EXPLAIN
TAG	EISPOT
TITLE	LABEL	Potentiostatic EIS	Test Identifier
DATE	LABEL	8/24/2020	Date
TIME	LABEL	15:01:43	Time
NOTES	NOTES	1	Notes...
	
PSTAT	PSTAT	REF3000-16137	Potentiostat
VDC	POTEN	0.00000E+000	T	DC Voltage (V)
FREQINIT	QUANT	3.00000E+005	Initial Freq. (Hz)
FREQFINAL	QUANT	1.00000E+000	Final Freq. (Hz)
PTSPERDEC	QUANT	1.00000E+001	Points/decade
VAC	QUANT	5.00000E+001	AC Voltage (mV rms)
AREA	QUANT	1.00000E+000	Sample Area (cm^2)
SPEED	SELECTOR	2	Optimize for:
ZGUESS	QUANT	1.00000E+003	Estimated Z (ohms)
EOC	QUANT	0	Open Circuit (V)
SEQUENCER	TOGGLE	TRUE	Run as Sequence
PSTATMODEL	IQUANT	5	Pstat Model
PSTATSECTION	LABEL	REF3000-16137	Pstat Section
PSTATSERIALNO	LABEL	16137	Pstat Serial Number
CTRLMODE	IQUANT	1	Control Mode
IESTAB	IQUANT	0	I/E Stability
CASPEED	IQUANT	1	Control Amp Speed
CONVENTION	IQUANT	1	Current Convention
ICHRANGE	IQUANT	2	Ich Range
ICHRANGEMODE	TOGGLE	F	Ich Auto Range
ICHOFFSETENABLE	TOGGLE	T	Ich Offset Enable
ICHOFFSET	QUANT	0	Ich Offset (V)
ICHFILTER	IQUANT	3	Ich Filter
VCHRANGE	IQUANT	2	Vch Range
VCHRANGEMODE	TOGGLE	F	Vch Auto Range
VCHOFFSETENABLE	TOGGLE	T	Vch Offset Enable
VCHOFFSET	QUANT	0	Vch Offset (V)
VCHFILTER	IQUANT	3	Vch Filter
ACHRANGE	IQUANT	2	Ach Range
ACHOFFSETENABLE	TOGGLE	F	Ach Offset Enable
ACHOFFSET	QUANT	0	Ach Offset (V)
ACHFILTER	IQUANT	3	Ach Filter
IERANGELOWERLIMIT	IQUANT	2	I/E Range Lower Limit
IERANGEMODE	TOGGLE	F	I/E AutoRange
IERANGE	IQUANT	11	I/E Range
POSFEEDENABLE	TOGGLE	F	Positive Feedback IR Comp
POSFEEDRESISTANCE	QUANT	0	Positive Feedback Resistance (ohm)
ACHSELECT	IQUANT	0	Ach Select
CABLEID	IQUANT	13	Cable ID
DCCALDATE	LABEL	7/31/2020	DC Calibration Date
ACCALDATE	LABEL	7/31/2020	AC Calibration Date
THERMOSELECT	IQUANT	1	Thermo Select
FRAMEWORKVERSION	QUANT	6.33	Framework Version
INSTRUMENTVERSION	LABEL	3.50	Instrument Version
COMPLIANCEVOLTAGE	IQUANT	0	Compliance Voltage
ZCURVE	TABLE
	Pt	Time	Freq	Zreal	Zimag	Zsig	Zmod	Zphz	Idc	Vdc	IERange
	#	s	Hz	ohm	ohm	V	ohm	°	A	V	#
	0	7	300046.9	99.5554	-5.7529	1	99.7215	-3.307212	6.496219E-006	-0.0016921	9
	1	10	238359.4	100.2437	-7.20134	1	100.5021	-4.108974	1.179152E-005	-0.0010658	9
	2	13	189328.1	100.9177	-8.491033	1	101.2743	-4.809436	6.989042E-005	-0.0023223	9
	3	16	150421.9	101.9667	-10.27204	1	102.4828	-5.752524	-7.547712E-005	0.002146	9
	4	19	119484.4	103.3325	-11.85789	1	104.0106	-6.546325	1.610583E-005	-0.0011252	9
	5	21	94921.88	104.8079	-13.61105	1	105.688	-7.399399	1.198231E-005	8.622315E-005	9
	6	24	75421.88	106.2935	-15.89102	1	107.4748	-8.502823	-1.68143E-005	0.0003317	9
	7	26	59859.37	108.0156	-18.39205	1	109.5702	-9.6632	-6.13368E-006	0.0006627	9
	8	29	47578.12	109.9465	-21.09193	1	111.9514	-10.85958	5.048339E-006	-0.0004975	9
	9	31	37828.12	111.9006	-24.25657	1	114.4994	-12.23072	-1.32854E-005	0.0001279	9
	10	34	30046.88	114.0899	-27.81369	1	117.4313	-13.70075	-2.005876E-005	0.000817	9
	11	36	23859.38	116.1644	-32.05433	1	120.5058	-15.42628	-1.917625E-005	0.0005116	9
	12	39	18984.38	118.3007	-37.22445	1	124.019	-17.46668	2.406359E-005	-0.0004883	9
	13	41	15046.87	120.0771	-43.57904	1	127.7405	-19.94713	-2.06184E-005	0.0006913	9
	14	43	11953.13	121.907	-51.76879	1	132.4436	-23.0089	2.284767E-005	-0.0006754	9
	15	45	9515.62	123.5987	-61.9587	1	138.2589	-26.62412	-3.113809E-006	-0.0002369	9
	16	48	7546.875	125.4766	-75.31168	1	146.3428	-30.97239	-4.850308E-006	0.0007287	9
	17	50	5928.309	127.2019	-92.9016	1	157.5152	-36.14243	-9.265966E-006	-2.068139E-005	9
	18	52	4733.456	129.1908	-113.6146	1	172.0422	-41.32945	-9.890135E-006	1.721632E-005	9
	19	55	3796.875	131.2713	-139.3069	1	191.412	-46.70105	2.300992E-005	-0.0002482	9
	20	57	2987.132	134.5881	-174.2972	1	220.2123	-52.32555	-1.441141E-005	0.0001763	9
	21	59	2390.625	138.0501	-214.9845	1	255.492	-57.29388	-2.090924E-005	0.0006351	9
	22	62	1884.191	144.5033	-269.5952	1	305.8803	-61.80865	-4.423834E-006	0.000691	9
	23	64	1516.544	149.6355	-330.0577	1	362.3932	-65.61228	-2.25326E-006	-0.0002717	9
	24	66	1193.986	157.7625	-411.9384	1	441.1148	-69.04436	-3.068973E-006	0.0027204	8
	25	69	946.5144	169.1945	-513.0491	1	540.2279	-71.74836	-5.885057E-006	0.0025983	8
	26	71	751.7689	184.5598	-637.4905	1	663.6689	-73.85375	6.168238E-006	-0.0016576	8
	27	74	597.4265	203.5551	-791.1152	1	816.8831	-75.5707	3.049749E-006	-0.0012946	8
	28	76	477.4305	226.7203	-976.023	1	1002.01	-76.92268	1.99252E-007	0.000646	8
	29	78	376.6741	261.1069	-1218.69	1	1246.348	-77.90709	1.804004E-007	0.000651	8
	30	81	298.2954	306.3692	-1514.807	1	1545.478	-78.56618	1.881948E-007	0.0006592	8
	31	83	237.7717	365.032	-1869.398	1	1904.704	-78.95105	1.9259E-007	0.0006499	8
	32	85	189.0121	444.4841	-2310.072	1	2352.445	-79.10874	2.012439E-007	0.0006485	8
	33	88	150.2404	551.085	-2850.236	1	2903.022	-79.05705	1.846828E-007	0.000656	8
	34	90	119.1737	695.5576	-3519.732	1	3587.801	-78.82143	2.005454E-007	0.00065	8
	35	93	95.0169	888.4229	-4327.303	1	4417.562	-78.39803	-1.945619E-009	0.0006246	7
	36	95	75.60484	1145.073	-5306.151	1	5428.299	-77.82226	-4.476601E-009	0.0006267	7
	37	98	54.50582	1670.379	-7071.831	1	7266.426	-76.71021	-5.569752E-009	0.0006198	7
	38	100	45.95588	2049.157	-8198.368	1	8450.579	-75.96662	-2.218579E-009	0.0006288	7
	39	102	37.20238	2639.065	-9801.27	1	10150.35	-74.93008	-1.091166E-008	0.0006777	7
	40	105	30.04808	3426.469	-11714.23	1	12205.08	-73.69556	-1.320299E-008	0.0006768	7
	41	107	23.91582	4517.417	-14081.72	1	14788.57	-72.21375	-9.174191E-009	0.0006243	7
	42	110	18.60119	6121.243	-17132.03	1	18192.75	-70.33829	-1.24751E-008	0.0006317	7
	43	112	15.02404	7909.54	-20098.76	1	21599.1	-68.51869	-3.926603E-009	0.0006673	7
	44	114	12.01923	10298.73	-23564.38	1	25716.6	-66.39243	-1.257276E-008	0.000622	7
	45	117	9.450605	13524.74	-27659.31	1	30788.9	-63.94247	-2.803779E-009	0.0006251	7
	46	119	7.512019	17347.76	-31852.73	1	36270.39	-61.42624	-2.327782E-011	0.0006462	7
	47	122	5.978954	22003.72	-36217.57	1	42377.78	-58.71953	-1.826375E-008	0.0006639	6
	48	125	4.734848	27663.69	-40751.11	1	49253.76	-55.82957	-2.058821E-008	0.0006916	6
	49	128	3.75601	34087.98	-45165.56	1	56585.5	-52.9569	-2.395474E-008	0.0006547	6
	50	132	3.004808	41012.96	-49249.39	1	64090.3	-50.21379	-2.595864E-008	0.0007112	6
	51	135	2.372217	49269.95	-53174.27	1	72491.59	-47.18258	-2.085701E-008	0.0007471	6
	52	140	1.878005	57935.9	-56230.4	1	80736.77	-44.14414	-2.214636E-008	0.0006501	6
	53	144	1.512097	66359.24	-58610.98	1	88536.98	-41.45215	-2.300772E-008	0.0007456	6
	54	150	1.201923	75765.28	-60524.27	1	96972	-38.61923	-2.103917E-008	0.0006365	6
	55	156	0.956633	85279.9	-61418.52	1	105094.7	-35.7614	-2.908443E-008	2.862045E-005	6
