EXPLAIN
TAG	EISPOT
TITLE	LABEL	Potentiostatic EIS	Test Identifier
DATE	LABEL	8/24/2020	Date
TIME	LABEL	14:58:59	Time
NOTES	NOTES	1	Notes...
	
PSTAT	PSTAT	REF3000-16137	Potentiostat
VDC	POTEN	0.00000E+000	T	DC Voltage (V)
FREQINIT	QUANT	3.00000E+005	Initial Freq. (Hz)
FREQFINAL	QUANT	1.00000E+000	Final Freq. (Hz)
PTSPERDEC	QUANT	1.00000E+001	Points/decade
VAC	QUANT	5.00000E+001	AC Voltage (mV rms)
AREA	QUANT	1.00000E+000	Sample Area (cm^2)
SPEED	SELECTOR	2	Optimize for:
ZGUESS	QUANT	1.00000E+003	Estimated Z (ohms)
EOC	QUANT	0	Open Circuit (V)
SEQUENCER	TOGGLE	TRUE	Run as Sequence
PSTATMODEL	IQUANT	5	Pstat Model
PSTATSECTION	LABEL	REF3000-16137	Pstat Section
PSTATSERIALNO	LABEL	16137	Pstat Serial Number
CTRLMODE	IQUANT	1	Control Mode
IESTAB	IQUANT	0	I/E Stability
CASPEED	IQUANT	1	Control Amp Speed
CONVENTION	IQUANT	1	Current Convention
ICHRANGE	IQUANT	2	Ich Range
ICHRANGEMODE	TOGGLE	F	Ich Auto Range
ICHOFFSETENABLE	TOGGLE	T	Ich Offset Enable
ICHOFFSET	QUANT	0	Ich Offset (V)
ICHFILTER	IQUANT	3	Ich Filter
VCHRANGE	IQUANT	2	Vch Range
VCHRANGEMODE	TOGGLE	F	Vch Auto Range
VCHOFFSETENABLE	TOGGLE	T	Vch Offset Enable
VCHOFFSET	QUANT	0	Vch Offset (V)
VCHFILTER	IQUANT	3	Vch Filter
ACHRANGE	IQUANT	2	Ach Range
ACHOFFSETENABLE	TOGGLE	F	Ach Offset Enable
ACHOFFSET	QUANT	0	Ach Offset (V)
ACHFILTER	IQUANT	3	Ach Filter
IERANGELOWERLIMIT	IQUANT	2	I/E Range Lower Limit
IERANGEMODE	TOGGLE	F	I/E AutoRange
IERANGE	IQUANT	11	I/E Range
POSFEEDENABLE	TOGGLE	F	Positive Feedback IR Comp
POSFEEDRESISTANCE	QUANT	0	Positive Feedback Resistance (ohm)
ACHSELECT	IQUANT	0	Ach Select
CABLEID	IQUANT	13	Cable ID
DCCALDATE	LABEL	7/31/2020	DC Calibration Date
ACCALDATE	LABEL	7/31/2020	AC Calibration Date
THERMOSELECT	IQUANT	1	Thermo Select
FRAMEWORKVERSION	QUANT	6.33	Framework Version
INSTRUMENTVERSION	LABEL	3.50	Instrument Version
COMPLIANCEVOLTAGE	IQUANT	0	Compliance Voltage
ZCURVE	TABLE
	Pt	Time	Freq	Zreal	Zimag	Zsig	Zmod	Zphz	Idc	Vdc	IERange
	#	s	Hz	ohm	ohm	V	ohm	°	A	V	#
	0	6	300046.9	96.0623	-5.496025	1	96.2194	-3.274501	7.276266E-005	-0.0025457	9
	1	10	238359.4	96.931	-6.866901	1	97.174	-4.052245	-5.691603E-005	0.0006823	9
	2	13	189328.1	97.8715	-8.477593	1	98.238	-4.950581	4.685114E-005	-0.0005362	9
	3	15	150421.9	99.1123	-9.92412	1	99.6079	-5.717972	-7.165733E-005	0.0020134	9
	4	18	119484.4	100.1227	-11.61503	1	100.7941	-6.617187	6.803425E-005	-0.001596	9
	5	20	94921.88	101.5421	-13.30709	1	102.4103	-7.466063	1.033717E-005	8.399674E-005	9
	6	23	75421.88	102.9409	-15.46967	1	104.0967	-8.5463	2.407335E-005	-0.0005334	9
	7	26	59859.37	104.6306	-17.95002	1	106.1592	-9.73468	-5.939325E-006	0.000752	9
	8	28	47578.12	106.445	-20.59804	1	108.4196	-10.95188	-2.09297E-005	0.0007119	9
	9	31	37828.12	108.4563	-23.70988	1	111.0177	-12.33156	-8.018448E-006	0.0006734	9
	10	33	30046.88	110.469	-27.2931	1	113.7906	-13.8779	-2.64705E-006	-0.0002455	9
	11	36	23859.38	112.5055	-31.44965	1	116.8185	-15.61774	2.476744E-005	-0.0004459	9
	12	38	18984.38	114.501	-36.52129	1	120.1843	-17.69063	1.958731E-005	-0.0001786	9
	13	40	15046.87	116.312	-42.9024	1	123.9722	-20.24681	1.122909E-005	-0.0005758	9
	14	43	11953.13	118.2157	-50.72849	1	128.6403	-23.22505	-1.556467E-005	0.0002842	9
	15	45	9515.62	119.685	-61.11346	1	134.3851	-27.04973	2.401759E-006	0.0004662	9
	16	47	7546.875	121.3047	-74.12356	1	142.1588	-31.42713	-1.779934E-005	0.000457	9
	17	49	5928.309	123.1608	-91.5039	1	153.4326	-36.61097	-1.014754E-005	2.468515E-005	9
	18	52	4733.456	125.2234	-112.0361	1	168.0268	-41.81868	-1.739632E-005	0.0008654	9
	19	54	3796.875	127.762	-136.9055	1	187.2598	-46.97861	1.270842E-005	-0.0006341	9
	20	56	2987.132	130.919	-171.7626	1	215.968	-52.68503	5.086931E-006	-0.0004634	9
	21	59	2390.625	134.5306	-211.2315	1	250.4341	-57.50747	-2.003009E-005	0.0008156	9
	22	61	1884.191	139.9692	-265.5275	1	300.1603	-62.20465	2.316607E-005	-0.0002781	9
	23	63	1516.544	146.0368	-324.2103	1	355.5827	-65.75136	-1.647045E-005	0.0003849	9
	24	66	1193.986	154.8312	-407.3423	1	435.7757	-69.18815	2.477775E-005	-0.0006109	9
	25	68	946.5144	165.7541	-503.5468	1	530.1262	-71.77985	-3.09846E-006	0.0005863	8
	26	70	751.7689	179.4792	-625.8115	1	651.0398	-73.99741	-4.439738E-006	0.002812	8
	27	73	597.4265	199.6095	-778.4342	1	803.6192	-75.61784	1.095625E-006	0.0016882	8
	28	75	477.4305	223.9604	-958.82	1	984.629	-76.85262	2.029842E-007	0.0006519	8
	29	77	376.6741	258.7471	-1196.217	1	1223.882	-77.7947	1.589957E-007	0.000697	8
	30	80	298.2954	304.6838	-1486.055	1	1516.968	-78.4133	1.91684E-007	0.0006528	8
	31	82	237.7717	364.1047	-1833.084	1	1868.895	-78.76559	2.029184E-007	0.0006493	8
	32	84	189.0121	444.4976	-2264.388	1	2307.603	-78.8941	1.861475E-007	0.0006521	8
	33	87	150.2404	552.4101	-2792.726	1	2846.836	-78.81114	1.902489E-007	0.0006675	8
	34	89	119.1737	698.9294	-3444.914	1	3515.101	-78.53108	1.971834E-007	0.0006595	8
	35	92	95.0169	892.6738	-4230.902	1	4324.049	-78.08596	-4.875973E-009	0.0006275	7
	36	94	75.60484	1151.475	-5183.15	1	5309.515	-77.47473	-4.306154E-009	0.0006243	7
	37	97	54.50582	1682.628	-6896.746	1	7099.038	-76.28915	-6.742587E-009	0.0006154	7
	38	99	45.95588	2061.515	-7988.182	1	8249.903	-75.52937	1.338551E-009	0.0006251	7
	39	101	37.20238	2661.853	-9552.63	1	9916.56	-74.42944	-5.869474E-009	0.000633	7
	40	104	30.04808	3456.679	-11393.68	1	11906.5	-73.12296	-1.128366E-008	0.0006307	7
	41	106	23.91582	4552.601	-13667.92	1	14406.19	-71.57778	-1.359466E-008	0.0006242	7
	42	109	18.60119	6169.197	-16583.77	1	17694.08	-69.5947	-1.277589E-008	0.0006327	7
	43	111	15.02404	7955.575	-19396.47	1	20964.6	-67.69873	-1.540751E-008	0.0006289	7
	44	113	12.01923	10338.17	-22641.18	1	24889.77	-65.45814	-1.035003E-008	0.0006271	7
	45	116	9.450605	13598.14	-26504.91	1	29789.59	-62.84025	-3.458385E-009	0.000623	7
	46	118	7.512019	17425.96	-30326.78	1	34976.82	-60.11805	-1.217655E-009	0.0006405	7
	47	121	5.978954	21974.82	-34219.73	1	40667.96	-57.29271	-2.324695E-008	0.0006708	6
	48	124	4.734848	27424.29	-38154.37	1	46987.74	-54.29248	-2.15994E-008	0.0007043	6
	49	127	3.75601	33655.88	-41848.53	1	53703.05	-51.19268	-2.739423E-008	0.0006573	6
	50	131	3.004808	40232.69	-45129.11	1	60459.13	-48.28294	-2.940986E-008	0.0007054	6
	51	134	2.372217	47868.13	-48055.3	1	67828.24	-45.1118	-2.465775E-008	0.0007486	6
	52	139	1.878005	55688.09	-50044.05	1	74870.35	-41.94442	-2.534511E-008	0.0006448	6
	53	143	1.512097	63155.46	-51428.27	1	81446.17	-39.15635	-2.733704E-008	0.0007307	6
	54	149	1.201923	71244.54	-52296.64	1	88378.29	-36.28031	-2.478328E-008	0.0006426	6
	55	155	0.956633	79412.27	-52280.41	1	95076.5	-33.35858	-3.268477E-008	3.45047E-005	6
