EXPLAIN
TAG	EISPOT
TITLE	LABEL	Potentiostatic EIS	Test Identifier
DATE	LABEL	8/24/2020	Date
TIME	LABEL	16:24:29	Time
NOTES	NOTES	1	Notes...
	
PSTAT	PSTAT	REF3000-16137	Potentiostat
VDC	POTEN	0.00000E+000	T	DC Voltage (V)
FREQINIT	QUANT	3.00000E+005	Initial Freq. (Hz)
FREQFINAL	QUANT	1.00000E+000	Final Freq. (Hz)
PTSPERDEC	QUANT	1.00000E+001	Points/decade
VAC	QUANT	5.00000E+001	AC Voltage (mV rms)
AREA	QUANT	1.00000E+000	Sample Area (cm^2)
SPEED	SELECTOR	2	Optimize for:
ZGUESS	QUANT	1.00000E+003	Estimated Z (ohms)
EOC	QUANT	0	Open Circuit (V)
SEQUENCER	TOGGLE	TRUE	Run as Sequence
PSTATMODEL	IQUANT	5	Pstat Model
PSTATSECTION	LABEL	REF3000-16137	Pstat Section
PSTATSERIALNO	LABEL	16137	Pstat Serial Number
CTRLMODE	IQUANT	1	Control Mode
IESTAB	IQUANT	0	I/E Stability
CASPEED	IQUANT	1	Control Amp Speed
CONVENTION	IQUANT	1	Current Convention
ICHRANGE	IQUANT	2	Ich Range
ICHRANGEMODE	TOGGLE	F	Ich Auto Range
ICHOFFSETENABLE	TOGGLE	T	Ich Offset Enable
ICHOFFSET	QUANT	0	Ich Offset (V)
ICHFILTER	IQUANT	3	Ich Filter
VCHRANGE	IQUANT	2	Vch Range
VCHRANGEMODE	TOGGLE	F	Vch Auto Range
VCHOFFSETENABLE	TOGGLE	T	Vch Offset Enable
VCHOFFSET	QUANT	0	Vch Offset (V)
VCHFILTER	IQUANT	3	Vch Filter
ACHRANGE	IQUANT	2	Ach Range
ACHOFFSETENABLE	TOGGLE	F	Ach Offset Enable
ACHOFFSET	QUANT	0	Ach Offset (V)
ACHFILTER	IQUANT	3	Ach Filter
IERANGELOWERLIMIT	IQUANT	2	I/E Range Lower Limit
IERANGEMODE	TOGGLE	F	I/E AutoRange
IERANGE	IQUANT	11	I/E Range
POSFEEDENABLE	TOGGLE	F	Positive Feedback IR Comp
POSFEEDRESISTANCE	QUANT	0	Positive Feedback Resistance (ohm)
ACHSELECT	IQUANT	0	Ach Select
CABLEID	IQUANT	13	Cable ID
DCCALDATE	LABEL	7/31/2020	DC Calibration Date
ACCALDATE	LABEL	7/31/2020	AC Calibration Date
THERMOSELECT	IQUANT	1	Thermo Select
FRAMEWORKVERSION	QUANT	6.33	Framework Version
INSTRUMENTVERSION	LABEL	3.50	Instrument Version
COMPLIANCEVOLTAGE	IQUANT	0	Compliance Voltage
ZCURVE	TABLE
	Pt	Time	Freq	Zreal	Zimag	Zsig	Zmod	Zphz	Idc	Vdc	IERange
	#	s	Hz	ohm	ohm	V	ohm	°	A	V	#
	0	23	300046.9	238.5656	-4801.545	1	4807.468	-87.15559	1.416444E-006	-0.0021567	9
	1	40	238359.4	246.8539	-5905.499	1	5910.656	-87.60639	-2.05095E-005	0.0011055	9
	2	63	189328.1	743.0487	-7267.459	1	7305.347	-84.16218	5.197855E-005	0.0001405	9
	3	71	150421.9	1194.26	-8990.788	1	9069.759	-82.43361	5.125497E-005	0.000129	9
	4	83	119484.4	1360.618	-11109.71	1	11192.72	-83.0177	1.593555E-006	-0.0018599	9
	5	94	94921.88	2649.368	-13662.04	1	13916.55	-79.02531	7.983014E-006	0.0043183	8
	6	103	75421.88	3583.172	-17521.62	1	17884.25	-78.44237	-2.014061E-005	0.0115622	8
	7	111	59859.37	4837.246	-21263.49	1	21806.77	-77.18386	2.632692E-005	-0.0052509	8
	8	120	47578.12	10744.82	-26823.66	1	28895.68	-68.17032	1.389671E-006	-0.0203304	7
	9	127	37828.12	11018.18	-31646.73	1	33509.94	-70.80384	8.28591E-006	-0.0078508	8
	10	136	30046.88	18903.18	-38222.25	1	42641.18	-63.68486	-5.419789E-006	0.0269755	7
	11	143	23859.38	25957.22	-44620.5	1	51621.38	-59.81202	-6.633034E-006	0.0264359	7
	12	149	18984.38	34006.04	-50901.23	1	61215.57	-56.25395	3.529731E-006	-0.024709	7
	13	154	15046.87	45526.07	-56743.27	1	72749.02	-51.25935	6.692684E-006	-0.0102879	7
	14	159	11953.13	55225.62	-61605.35	1	82735.05	-48.12561	3.556424E-006	-0.0258516	7
	15	166	9515.62	71082.47	-62545.96	1	94682.18	-41.34478	1.356847E-006	-0.0202196	7
	16	172	7546.875	89606.92	-53340.41	1	104281.4	-30.76412	-2.132519E-006	0.0078591	8
	17	180	5928.309	99402.6	-56885.2	1	114528.6	-29.78124	-5.416563E-006	0.026864	7
	18	186	4733.456	111170.2	-52825.55	1	123082.7	-25.416	-7.341745E-006	0.0237134	7
	19	193	3796.875	118916.5	-48881.32	1	128571.1	-22.3454	-2.717153E-005	0.0098256	8
	20	200	2987.132	112241.9	-57085.73	1	125924.6	-26.9577	-9.793705E-006	-0.0021123	8
	21	208	2390.625	137185.8	-34005.92	1	141337.7	-13.92199	-5.453094E-006	0.0270344	7
	22	215	1884.191	148116.2	-30529.41	1	151229.8	-11.64658	2.804461E-006	0.008534	7
	23	220	1516.544	150316.1	-21790.57	1	151887.3	-8.248424	-7.456807E-007	0.0177689	6
	24	225	1193.986	153544.1	-18482.29	1	154652.5	-6.863737	-1.902613E-009	0.0177063	6
	25	230	946.5144	154815.8	-18229.63	1	155885.3	-6.715681	5.861198E-007	-0.0274904	6
	26	232	751.7689	159239.9	-16297.32	1	160071.7	-5.84356	7.909626E-007	-0.0234723	6
	27	235	597.4265	163214.1	-12424.52	1	163686.3	-4.353193	-4.023948E-007	0.0254587	6
	28	238	477.4305	162532.5	-14089.4	1	163142.1	-4.954393	-1.004153E-008	0.0006467	6
	29	240	376.6741	164614.5	-14060.3	1	165213.8	-4.881985	-9.833649E-009	0.0006174	6
	30	242	298.2954	166568.2	-14343.36	1	167184.6	-4.921658	-9.797816E-009	0.0007053	6
	31	245	237.7717	169145	-15167.76	1	169823.7	-5.124187	-1.022211E-008	0.0006995	6
	32	247	189.0121	171801.4	-16239.57	1	172567.2	-5.399855	-1.037886E-008	0.0007378	6
	33	249	150.2404	174606	-17937.03	1	175524.9	-5.86534	-9.844745E-009	0.0006384	6
	34	252	119.1737	176421	-20605.69	1	177620.3	-6.661869	-9.869635E-009	0.0006595	6
	35	255	95.0169	180960.5	-22081.4	1	182302.7	-6.957028	-9.345871E-009	0.0006072	6
	36	257	75.60484	184699.7	-24973.08	1	186380.3	-7.700213	-1.060806E-008	0.0007016	6
	37	260	54.50582	189604.9	-29238.86	1	191846.1	-8.766492	-1.004192E-008	0.000704	6
	38	262	45.95588	193384	-32635.08	1	196118.4	-9.57886	-8.93459E-009	0.0007123	6
	39	265	37.20238	197571.6	-36816.07	1	200972.5	-10.5556	-1.112517E-008	0.0006474	6
	40	267	30.04808	202703.5	-41546.82	1	206917.5	-11.58312	-1.046082E-008	0.0007058	6
	41	270	23.91582	208026.2	-47158.74	1	213304.6	-12.77285	-7.872541E-009	0.0006464	6
	42	272	18.60119	214096.7	-54726.12	1	220980.4	-14.33858	-1.041306E-008	0.0006231	6
	43	275	15.02404	219904.1	-61833.59	1	228432	-15.70515	-1.108558E-008	0.0007071	6
	44	277	12.01923	225522.3	-71221.3	1	236501.2	-17.52643	-1.023841E-008	0.0007026	6
	45	280	9.450605	231608.8	-83576.95	1	246227	-19.84218	-9.59595E-009	0.0007442	6
	46	283	7.512019	237059.4	-98671.9	1	256774.8	-22.59868	-8.835848E-009	0.0006221	6
	47	286	5.978954	243070.3	-117886.6	1	270148.9	-25.8729	-9.131592E-009	0.0006129	6
	48	291	4.734848	248897.6	-142759	1	286932.3	-29.83708	-9.918892E-009	0.0006962	6
	49	294	3.75601	255201.8	-174546.2	1	309183.3	-34.37033	-9.093227E-009	0.0006253	6
	50	299	3.004808	262969.8	-213236	1	338559.7	-39.03778	-9.858232E-009	0.0007345	6
	51	306	2.372217	270846.7	-264970.8	1	378902.9	-44.3717	-1.011773E-008	0.0006922	6
	52	310	1.878005	279901.1	-330089	1	432785.6	-49.7035	-1.065496E-009	0.0006237	5
	53	315	1.512097	289016.4	-405223.8	1	497731.7	-54.50252	-1.07352E-009	0.0007276	5
	54	320	1.201923	300705.7	-504586.3	1	587393.7	-59.20738	-1.003288E-009	0.0006433	5
	55	326	0.956633	314229.9	-627672	1	701934.9	-63.40619	-1.142377E-009	3.846436E-006	5
