EXPLAIN
TAG	EISPOT
TITLE	LABEL	Potentiostatic EIS	Test Identifier
DATE	LABEL	8/24/2020	Date
TIME	LABEL	15:15:28	Time
NOTES	NOTES	1	Notes...
	
PSTAT	PSTAT	REF3000-16137	Potentiostat
VDC	POTEN	0.00000E+000	T	DC Voltage (V)
FREQINIT	QUANT	3.00000E+005	Initial Freq. (Hz)
FREQFINAL	QUANT	1.00000E+000	Final Freq. (Hz)
PTSPERDEC	QUANT	1.00000E+001	Points/decade
VAC	QUANT	5.00000E+001	AC Voltage (mV rms)
AREA	QUANT	1.00000E+000	Sample Area (cm^2)
SPEED	SELECTOR	2	Optimize for:
ZGUESS	QUANT	1.00000E+003	Estimated Z (ohms)
EOC	QUANT	0	Open Circuit (V)
SEQUENCER	TOGGLE	TRUE	Run as Sequence
PSTATMODEL	IQUANT	5	Pstat Model
PSTATSECTION	LABEL	REF3000-16137	Pstat Section
PSTATSERIALNO	LABEL	16137	Pstat Serial Number
CTRLMODE	IQUANT	1	Control Mode
IESTAB	IQUANT	0	I/E Stability
CASPEED	IQUANT	1	Control Amp Speed
CONVENTION	IQUANT	1	Current Convention
ICHRANGE	IQUANT	2	Ich Range
ICHRANGEMODE	TOGGLE	F	Ich Auto Range
ICHOFFSETENABLE	TOGGLE	T	Ich Offset Enable
ICHOFFSET	QUANT	0	Ich Offset (V)
ICHFILTER	IQUANT	3	Ich Filter
VCHRANGE	IQUANT	2	Vch Range
VCHRANGEMODE	TOGGLE	F	Vch Auto Range
VCHOFFSETENABLE	TOGGLE	T	Vch Offset Enable
VCHOFFSET	QUANT	0	Vch Offset (V)
VCHFILTER	IQUANT	3	Vch Filter
ACHRANGE	IQUANT	2	Ach Range
ACHOFFSETENABLE	TOGGLE	F	Ach Offset Enable
ACHOFFSET	QUANT	0	Ach Offset (V)
ACHFILTER	IQUANT	3	Ach Filter
IERANGELOWERLIMIT	IQUANT	2	I/E Range Lower Limit
IERANGEMODE	TOGGLE	F	I/E AutoRange
IERANGE	IQUANT	11	I/E Range
POSFEEDENABLE	TOGGLE	F	Positive Feedback IR Comp
POSFEEDRESISTANCE	QUANT	0	Positive Feedback Resistance (ohm)
ACHSELECT	IQUANT	0	Ach Select
CABLEID	IQUANT	13	Cable ID
DCCALDATE	LABEL	7/31/2020	DC Calibration Date
ACCALDATE	LABEL	7/31/2020	AC Calibration Date
THERMOSELECT	IQUANT	1	Thermo Select
FRAMEWORKVERSION	QUANT	6.33	Framework Version
INSTRUMENTVERSION	LABEL	3.50	Instrument Version
COMPLIANCEVOLTAGE	IQUANT	0	Compliance Voltage
ZCURVE	TABLE
	Pt	Time	Freq	Zreal	Zimag	Zsig	Zmod	Zphz	Idc	Vdc	IERange
	#	s	Hz	ohm	ohm	V	ohm	°	A	V	#
	0	6	300046.9	122.3008	-7.172513	1	122.5109	-3.356354	-8.438412E-005	0.0026662	9
	1	10	238359.4	123.2935	-8.882068	1	123.613	-4.120472	1.537371E-005	-0.0010506	9
	2	13	189328.1	124.3674	-10.15723	1	124.7814	-4.669052	-5.349611E-005	0.0007716	9
	3	15	150421.9	125.8979	-11.97282	1	126.466	-5.432457	2.655852E-007	0.001143	9
	4	19	119484.4	127.2145	-13.74116	1	127.9545	-6.16494	6.951576E-005	-0.0025724	9
	5	21	94921.88	128.8418	-15.82816	1	129.8104	-7.003667	2.348293E-005	-0.0007612	9
	6	24	75421.88	130.6514	-18.27262	1	131.923	-7.961621	5.826013E-006	-0.0005448	9
	7	26	59859.37	132.7213	-21.06069	1	134.3819	-9.016718	-2.056415E-005	0.0004737	9
	8	29	47578.12	134.9777	-24.16204	1	137.1232	-10.14889	-1.421424E-005	0.0008448	9
	9	31	37828.12	137.3698	-27.69034	1	140.1328	-11.39669	-1.476485E-005	0.0001463	9
	10	34	30046.88	140.0103	-31.63448	1	143.5397	-12.73185	-1.787894E-005	0.000905	9
	11	36	23859.38	142.7082	-36.29841	1	147.2522	-14.27079	2.646722E-005	-0.0004005	9
	12	39	18984.38	145.3276	-41.87378	1	151.24	-16.07347	-9.432904E-006	-3.125151E-005	9
	13	41	15046.87	147.8132	-48.91803	1	155.6975	-18.3117	2.361722E-005	-0.0007292	9
	14	43	11953.13	150.2491	-57.23703	1	160.7821	-20.85422	-2.04517E-005	0.0004699	9
	15	46	9515.62	152.2577	-68.01307	1	166.7578	-24.07018	2.094158E-005	-0.000799	9
	16	48	7546.875	154.3887	-82.30757	1	174.9583	-28.06294	2.409367E-005	-0.0002655	9
	17	50	5928.309	156.2021	-100.6158	1	185.8027	-32.78714	-1.796932E-005	0.0003948	9
	18	53	4733.456	158.6112	-123.0051	1	200.7182	-37.79405	-1.888753E-005	0.0009109	9
	19	55	3796.875	160.8424	-150.3814	1	220.1928	-43.07487	-1.307167E-005	0.0001058	9
	20	57	2987.132	163.5164	-188.0293	1	249.1839	-48.98872	1.358819E-005	-0.0006824	9
	21	60	2390.625	167.661	-231.1482	1	285.5516	-54.04512	-1.955455E-005	0.0004946	9
	22	62	1884.191	170.7337	-291.3831	1	337.719	-59.63215	2.342672E-005	-0.0002655	9
	23	64	1516.544	178.4867	-356.4862	1	398.6727	-63.40363	-1.486738E-005	0.0001771	9
	24	67	1193.986	185.5062	-445.2669	1	482.3642	-67.38251	-4.013096E-006	0.0005903	8
	25	69	946.5144	195.2934	-555.603	1	588.9263	-70.63351	6.094832E-006	-9.033881E-005	8
	26	71	751.7689	210.6834	-691.7829	1	723.1536	-73.06181	9.351857E-007	-0.0010741	8
	27	74	597.4265	226.6687	-861.2681	1	890.5961	-75.25524	-3.646236E-006	0.003124	8
	28	76	477.4305	249.5006	-1064.217	1	1093.073	-76.80557	1.557061E-007	0.0006461	8
	29	78	376.6741	281.3645	-1331.411	1	1360.816	-78.06736	1.358292E-007	0.0006492	8
	30	81	298.2954	323.1567	-1658.623	1	1689.811	-78.97493	1.434759E-007	0.0006542	8
	31	83	237.7717	377.3525	-2051.995	1	2086.404	-79.57999	1.45858E-007	0.0006482	8
	32	86	189.0121	450.4595	-2543.316	1	2582.9	-79.95621	1.594309E-007	0.0006461	8
	33	88	150.2404	548.6456	-3149.678	1	3197.105	-80.11874	1.622677E-007	0.0006491	8
	34	90	119.1737	682.0945	-3902.262	1	3961.427	-80.08517	1.447393E-007	0.0006577	8
	35	93	95.0169	860.6558	-4816.368	1	4892.661	-79.86852	2.122478E-009	0.0006273	7
	36	95	75.60484	1099.548	-5932.403	1	6033.441	-79.49961	2.472148E-009	0.000617	7
	37	98	54.50582	1590.908	-7965.814	1	8123.126	-78.70566	6.519418E-011	0.0006229	7
	38	100	45.95588	1941.65	-9271.601	1	9472.729	-78.1721	4.847309E-009	0.0006334	7
	39	103	37.20238	2501.776	-11167.65	1	11444.44	-77.37308	2.957128E-009	0.0006301	7
	40	105	30.04808	3242.273	-13431.25	1	13817.05	-76.42857	2.512427E-009	0.0006238	7
	41	107	23.91582	4299.17	-16325.6	1	16882.19	-75.24673	1.546515E-009	0.0006229	7
	42	110	18.60119	5832.585	-20067.96	1	20898.37	-73.79393	6.38499E-009	0.0006208	7
	43	112	15.02404	7547.901	-23848.1	1	25014.05	-72.43747	9.764014E-009	0.0006365	7
	44	114	12.01923	9863.6	-28362.5	1	30028.69	-70.82391	4.201548E-009	0.0006298	7
	45	117	9.450605	13071.64	-33963.78	1	36392.39	-68.94978	-1.030955E-009	0.0006412	7
	46	119	7.512019	16937.2	-40000.77	1	43438.81	-67.05114	-1.170473E-008	0.0006859	6
	47	122	5.978954	21684.93	-46680.47	1	51471.37	-65.08327	-1.29563E-008	0.000722	6
	48	125	4.734848	27695.18	-54318.26	1	60971.28	-62.98439	-8.066373E-009	0.0006763	6
	49	128	3.75601	34813.58	-62509.36	1	71550.02	-60.88509	-1.234463E-008	0.0006607	6
	50	132	3.004808	43009.38	-70924.45	1	82946.27	-58.76691	-8.88303E-009	0.0006471	6
	51	136	2.372217	53096.72	-80493.03	1	96428.2	-56.58941	-1.189943E-008	0.0006424	6
	52	140	1.878005	64877.32	-90241.52	1	111142.2	-54.28651	-1.17926E-008	0.0006796	6
	53	144	1.512097	77067.2	-99710.5	1	126022	-52.29922	-1.03095E-008	0.0005585	6
	54	150	1.201923	91658.31	-110235.7	1	143363.7	-50.25731	-1.164489E-008	0.0006851	6
	55	156	0.956633	107976.8	-120603.6	1	161877.2	-48.16183	-1.299529E-008	3.262558E-005	6
