EXPLAIN
TAG	EISPOT
TITLE	LABEL	Potentiostatic EIS	Test Identifier
DATE	LABEL	8/24/2020	Date
TIME	LABEL	18:33:46	Time
NOTES	NOTES	1	Notes...
	
PSTAT	PSTAT	REF3000-16137	Potentiostat
VDC	POTEN	0.00000E+000	T	DC Voltage (V)
FREQINIT	QUANT	3.00000E+005	Initial Freq. (Hz)
FREQFINAL	QUANT	1.00000E+000	Final Freq. (Hz)
PTSPERDEC	QUANT	1.00000E+001	Points/decade
VAC	QUANT	5.00000E+001	AC Voltage (mV rms)
AREA	QUANT	1.00000E+000	Sample Area (cm^2)
SPEED	SELECTOR	2	Optimize for:
ZGUESS	QUANT	1.00000E+003	Estimated Z (ohms)
EOC	QUANT	0	Open Circuit (V)
SEQUENCER	TOGGLE	TRUE	Run as Sequence
PSTATMODEL	IQUANT	5	Pstat Model
PSTATSECTION	LABEL	REF3000-16137	Pstat Section
PSTATSERIALNO	LABEL	16137	Pstat Serial Number
CTRLMODE	IQUANT	1	Control Mode
IESTAB	IQUANT	0	I/E Stability
CASPEED	IQUANT	1	Control Amp Speed
CONVENTION	IQUANT	1	Current Convention
ICHRANGE	IQUANT	2	Ich Range
ICHRANGEMODE	TOGGLE	F	Ich Auto Range
ICHOFFSETENABLE	TOGGLE	T	Ich Offset Enable
ICHOFFSET	QUANT	0	Ich Offset (V)
ICHFILTER	IQUANT	3	Ich Filter
VCHRANGE	IQUANT	2	Vch Range
VCHRANGEMODE	TOGGLE	F	Vch Auto Range
VCHOFFSETENABLE	TOGGLE	T	Vch Offset Enable
VCHOFFSET	QUANT	0	Vch Offset (V)
VCHFILTER	IQUANT	3	Vch Filter
ACHRANGE	IQUANT	2	Ach Range
ACHOFFSETENABLE	TOGGLE	F	Ach Offset Enable
ACHOFFSET	QUANT	0	Ach Offset (V)
ACHFILTER	IQUANT	3	Ach Filter
IERANGELOWERLIMIT	IQUANT	2	I/E Range Lower Limit
IERANGEMODE	TOGGLE	F	I/E AutoRange
IERANGE	IQUANT	11	I/E Range
POSFEEDENABLE	TOGGLE	F	Positive Feedback IR Comp
POSFEEDRESISTANCE	QUANT	0	Positive Feedback Resistance (ohm)
ACHSELECT	IQUANT	0	Ach Select
CABLEID	IQUANT	13	Cable ID
DCCALDATE	LABEL	7/31/2020	DC Calibration Date
ACCALDATE	LABEL	7/31/2020	AC Calibration Date
THERMOSELECT	IQUANT	1	Thermo Select
FRAMEWORKVERSION	QUANT	6.33	Framework Version
INSTRUMENTVERSION	LABEL	3.50	Instrument Version
COMPLIANCEVOLTAGE	IQUANT	0	Compliance Voltage
ZCURVE	TABLE
	Pt	Time	Freq	Zreal	Zimag	Zsig	Zmod	Zphz	Idc	Vdc	IERange
	#	s	Hz	ohm	ohm	V	ohm	°	A	V	#
	0	7	300046.9	88.08336	-4.961491	1	88.22298	-3.223905	4.680652E-005	-0.000807	9
	1	10	238359.4	88.82393	-6.154603	1	89.0369	-3.963685	1.979743E-006	-0.0015365	9
	2	14	189328.1	89.75932	-7.427639	1	90.06611	-4.730484	-7.779615E-005	0.0026686	9
	3	16	150421.9	90.51677	-9.009789	1	90.96407	-5.68434	1.410099E-005	-0.0011341	9
	4	19	119484.4	91.69272	-10.68593	1	92.31329	-6.647305	1.769215E-005	-0.000475	9
	5	21	94921.88	92.92829	-12.17539	1	93.7225	-7.464329	2.373565E-005	-0.000529	9
	6	24	75421.88	94.19979	-14.26776	1	95.2742	-8.612715	1.199715E-005	6.89228E-005	9
	7	26	59859.37	95.669	-16.55551	1	97.0909	-9.8178	2.288232E-005	-0.0007542	9
	8	29	47578.12	97.2653	-19.09752	1	99.1224	-11.10841	-4.660012E-006	0.0006937	9
	9	31	37828.12	98.9375	-21.97265	1	101.348	-12.52138	2.410632E-005	-0.0004459	9
	10	34	30046.88	100.8577	-25.33424	1	103.9908	-14.10029	1.894264E-005	-0.0001731	9
	11	36	23859.38	102.5644	-29.22996	1	106.6482	-15.90709	-1.485317E-005	0.0002144	9
	12	39	18984.38	104.2428	-34.04783	1	109.6623	-18.0881	-1.883183E-005	0.0005921	9
	13	41	15046.87	105.8034	-40.31766	1	113.2249	-20.85995	1.922492E-005	-0.0001824	9
	14	43	11953.13	107.375	-47.95251	1	117.5961	-24.06502	1.813681E-005	-0.0006998	9
	15	46	9515.62	108.7445	-57.67013	1	123.0902	-27.93821	2.408414E-005	-0.0006399	9
	16	48	7546.875	110.3306	-70.30569	1	130.8271	-32.50642	-1.199512E-005	0.0007545	9
	17	50	5928.309	111.9908	-87.07794	1	141.8609	-37.86668	3.142634E-006	0.0004522	9
	18	53	4733.456	113.9838	-106.423	1	155.9428	-43.03531	1.941334E-005	-0.0001437	9
	19	55	3796.875	116.2302	-130.6704	1	174.8834	-48.3472	2.387431E-005	-0.0004926	9
	20	57	2987.132	119.3176	-163.2287	1	202.1888	-53.8338	-2.050232E-005	0.0006593	9
	21	60	2390.625	123.2213	-201.2409	1	235.969	-58.52056	2.361535E-005	-0.0005624	9
	22	62	1884.191	128.4831	-251.1789	1	282.1325	-62.90933	1.806735E-005	-0.0006945	9
	23	64	1516.544	134.8876	-307.7672	1	336.0287	-66.33321	1.283206E-005	0.000127	9
	24	66	1193.986	144.0357	-385.9134	1	411.9168	-69.53275	-1.95964E-005	0.000772	9
	25	69	946.5144	154.8735	-477.5877	1	502.0716	-72.03301	-5.381518E-006	0.0017082	8
	26	71	751.7689	170.7849	-591.4283	1	615.5931	-73.89303	-1.066659E-006	0.0021815	8
	27	74	597.4265	191.1696	-733.001	1	757.5198	-75.38264	-4.155922E-006	0.0026735	8
	28	76	477.4305	217.5187	-902.6552	1	928.4938	-76.45138	2.131482E-007	0.000642	8
	29	78	376.6741	254.1507	-1123.416	1	1151.805	-77.25254	2.263254E-007	0.0006425	8
	30	81	298.2954	302.0888	-1391.854	1	1424.259	-77.75441	2.045302E-007	0.0006481	8
	31	83	237.7717	363.8393	-1712.232	1	1750.463	-78.00343	2.280449E-007	0.0006459	8
	32	85	189.0121	446.827	-2109.254	1	2156.063	-78.03922	2.259783E-007	0.0006496	8
	33	88	150.2404	557.9524	-2594.576	1	2653.891	-77.86362	2.300437E-007	0.0006438	8
	34	90	119.1737	708.2659	-3193.453	1	3271.052	-77.49496	2.15428E-007	0.0006472	8
	35	93	95.0169	908.4142	-3903.594	1	4007.9	-76.89973	2.188292E-007	0.0006979	8
	36	95	75.60484	1184.15	-4778.827	1	4923.352	-76.08294	-3.852966E-009	0.0006184	7
	37	98	54.50582	1752.562	-6326.837	1	6565.085	-74.51704	-1.693628E-009	0.0006093	7
	38	100	45.95588	2160.343	-7299.724	1	7612.69	-73.51395	4.754264E-009	0.0006216	7
	39	103	37.20238	2815.279	-8675.922	1	9121.262	-72.0221	-6.300431E-010	0.0006215	7
	40	105	30.04808	3681.571	-10260.92	1	10901.4	-70.26225	-9.830337E-011	0.0006187	7
	41	107	23.91582	4885.528	-12181.21	1	13124.42	-68.14572	-6.072514E-009	0.0006182	7
	42	110	18.60119	6661.699	-14542.31	1	15995.53	-65.38792	1.058437E-008	0.000617	7
	43	112	15.02404	8598.345	-16689.39	1	18774.11	-62.74255	5.804237E-009	0.0006131	7
	44	114	12.01923	11111.44	-18987.53	1	21999.78	-59.66396	6.373263E-009	0.0006208	7
	45	117	9.450605	14406.11	-21397.78	1	25795.37	-56.04949	4.091917E-009	0.0006099	7
	46	119	7.512019	18099.54	-23539.11	1	29693.15	-52.44283	1.322862E-009	0.0006037	7
	47	122	5.978954	22290.06	-25167.67	1	33619.32	-48.46988	6.997526E-010	0.0006265	7
	48	125	4.734848	26895.3	-26386.85	1	37677.88	-44.45326	-4.549025E-009	0.0006061	7
	49	128	3.75601	31569.54	-26799.22	1	41410.55	-40.32775	-1.588567E-008	0.0006833	6
	50	132	3.004808	35931.18	-26278.47	1	44515.25	-36.18008	-2.200806E-008	0.0006487	6
	51	138	2.372217	40333.68	-25528.36	1	47733.66	-32.33091	-2.712764E-008	0.0005911	6
	52	142	1.878005	43731.62	-23449.63	1	49621.97	-28.20096	-2.659586E-008	0.0006659	6
	53	151	1.512097	46320.8	-21641.29	1	51126.91	-25.04219	-2.972432E-008	0.0005861	6
	54	162	1.201923	48797.02	-19851.07	1	52680.3	-22.13694	-3.409472E-008	0.0006917	6
	55	175	0.956633	50918.52	-18047.09	1	54022.16	-19.51589	-5.312338E-008	2.89438E-005	6
