EXPLAIN
TAG	EISPOT
TITLE	LABEL	Potentiostatic EIS	Test Identifier
DATE	LABEL	8/24/2020	Date
TIME	LABEL	15:12:43	Time
NOTES	NOTES	1	Notes...
	
PSTAT	PSTAT	REF3000-16137	Potentiostat
VDC	POTEN	0.00000E+000	T	DC Voltage (V)
FREQINIT	QUANT	3.00000E+005	Initial Freq. (Hz)
FREQFINAL	QUANT	1.00000E+000	Final Freq. (Hz)
PTSPERDEC	QUANT	1.00000E+001	Points/decade
VAC	QUANT	5.00000E+001	AC Voltage (mV rms)
AREA	QUANT	1.00000E+000	Sample Area (cm^2)
SPEED	SELECTOR	2	Optimize for:
ZGUESS	QUANT	1.00000E+003	Estimated Z (ohms)
EOC	QUANT	0	Open Circuit (V)
SEQUENCER	TOGGLE	TRUE	Run as Sequence
PSTATMODEL	IQUANT	5	Pstat Model
PSTATSECTION	LABEL	REF3000-16137	Pstat Section
PSTATSERIALNO	LABEL	16137	Pstat Serial Number
CTRLMODE	IQUANT	1	Control Mode
IESTAB	IQUANT	0	I/E Stability
CASPEED	IQUANT	1	Control Amp Speed
CONVENTION	IQUANT	1	Current Convention
ICHRANGE	IQUANT	2	Ich Range
ICHRANGEMODE	TOGGLE	F	Ich Auto Range
ICHOFFSETENABLE	TOGGLE	T	Ich Offset Enable
ICHOFFSET	QUANT	0	Ich Offset (V)
ICHFILTER	IQUANT	3	Ich Filter
VCHRANGE	IQUANT	2	Vch Range
VCHRANGEMODE	TOGGLE	F	Vch Auto Range
VCHOFFSETENABLE	TOGGLE	T	Vch Offset Enable
VCHOFFSET	QUANT	0	Vch Offset (V)
VCHFILTER	IQUANT	3	Vch Filter
ACHRANGE	IQUANT	2	Ach Range
ACHOFFSETENABLE	TOGGLE	F	Ach Offset Enable
ACHOFFSET	QUANT	0	Ach Offset (V)
ACHFILTER	IQUANT	3	Ach Filter
IERANGELOWERLIMIT	IQUANT	2	I/E Range Lower Limit
IERANGEMODE	TOGGLE	F	I/E AutoRange
IERANGE	IQUANT	11	I/E Range
POSFEEDENABLE	TOGGLE	F	Positive Feedback IR Comp
POSFEEDRESISTANCE	QUANT	0	Positive Feedback Resistance (ohm)
ACHSELECT	IQUANT	0	Ach Select
CABLEID	IQUANT	13	Cable ID
DCCALDATE	LABEL	7/31/2020	DC Calibration Date
ACCALDATE	LABEL	7/31/2020	AC Calibration Date
THERMOSELECT	IQUANT	1	Thermo Select
FRAMEWORKVERSION	QUANT	6.33	Framework Version
INSTRUMENTVERSION	LABEL	3.50	Instrument Version
COMPLIANCEVOLTAGE	IQUANT	0	Compliance Voltage
ZCURVE	TABLE
	Pt	Time	Freq	Zreal	Zimag	Zsig	Zmod	Zphz	Idc	Vdc	IERange
	#	s	Hz	ohm	ohm	V	ohm	°	A	V	#
	0	7	300046.9	116.7354	-6.846431	1	116.936	-3.356504	-6.018105E-005	0.0006979	9
	1	10	238359.4	117.5238	-8.277779	1	117.815	-4.028969	-7.484528E-005	0.0018483	9
	2	13	189328.1	118.5399	-10.04351	1	118.9646	-4.842926	-7.800636E-005	0.0028424	9
	3	16	150421.9	119.8507	-11.44238	1	120.3957	-5.453609	6.907192E-005	-0.0016176	9
	4	18	119484.4	121.4467	-13.17136	1	122.1588	-6.189754	7.01399E-005	-0.0020957	9
	5	21	94921.88	122.7989	-15.23946	1	123.7409	-7.074294	-1.239235E-005	0.0009183	9
	6	23	75421.88	124.532	-17.7295	1	125.7878	-8.10269	-2.117422E-005	0.0007555	9
	7	26	59859.37	126.4644	-20.42199	1	128.1027	-9.17317	-2.005251E-005	0.0004662	9
	8	28	47578.12	128.6537	-23.42443	1	130.7688	-10.31901	-2.278065E-005	0.0005993	9
	9	31	37828.12	130.9761	-26.85861	1	133.7016	-11.5887	6.078682E-006	-0.0005371	9
	10	33	30046.88	133.476	-30.76597	1	136.9759	-12.97987	5.264884E-006	-0.0005109	9
	11	36	23859.38	136.0107	-35.35705	1	140.5313	-14.57195	2.424318E-005	-0.0002694	9
	12	38	18984.38	138.5332	-40.82333	1	144.4229	-16.41933	-2.351685E-006	-0.0002862	9
	13	40	15046.87	141.0397	-47.50139	1	148.824	-18.61323	2.289251E-005	-0.0002465	9
	14	43	11953.13	142.9442	-56.03819	1	153.536	-21.40659	1.903275E-005	-0.0001499	9
	15	45	9515.62	144.9829	-66.62303	1	159.5577	-24.67989	-1.903853E-005	0.000919	9
	16	47	7546.875	146.9237	-80.6299	1	167.594	-28.75744	-1.808994E-005	0.000373	9
	17	50	5928.309	148.9254	-99.0285	1	178.8447	-33.62207	-2.720951E-006	-0.0002796	9
	18	52	4733.456	150.9186	-121.2261	1	193.5773	-38.77334	-1.886292E-005	0.0009009	9
	19	54	3796.875	153.2724	-147.7086	1	212.8621	-43.94098	-1.986839E-005	0.000512	9
	20	57	2987.132	156.4277	-185.1036	1	242.3488	-49.79947	-1.536266E-005	0.0002035	9
	21	59	2390.625	159.9036	-228.1744	1	278.6265	-54.9774	-6.147694E-006	0.0008062	9
	22	61	1884.191	165.9059	-286.0588	1	330.6878	-59.8875	-2.138346E-005	0.000673	9
	23	64	1516.544	170.1856	-351.3019	1	390.3539	-64.15248	-1.266546E-005	0.0008509	9
	24	66	1193.986	178.0349	-439.0759	1	473.7975	-67.9286	-6.728394E-006	0.0028061	8
	25	68	946.5144	188.7167	-546.98	1	578.6201	-70.96476	3.522608E-006	0.0009944	8
	26	71	751.7689	202.1268	-680.9257	1	710.2922	-73.46694	9.910229E-007	0.0019054	8
	27	73	597.4265	218.7291	-849.1672	1	876.8851	-75.5557	-1.302628E-006	0.002597	8
	28	75	477.4305	243.3306	-1047.167	1	1075.067	-76.91832	1.525814E-007	0.0006535	8
	29	78	376.6741	275.7665	-1309.641	1	1338.36	-78.10914	1.710954E-007	0.0006444	8
	30	80	298.2954	318.2432	-1630.923	1	1661.682	-78.95857	1.68691E-007	0.0006482	8
	31	82	237.7717	373.3691	-2016.968	1	2051.235	-79.51247	1.496971E-007	0.0006541	8
	32	85	189.0121	447.8811	-2498.781	1	2538.603	-79.83822	1.726135E-007	0.0006505	8
	33	87	150.2404	548.0272	-3092.702	1	3140.882	-79.95149	1.756161E-007	0.0006459	8
	34	90	119.1737	683.1418	-3830.608	1	3891.046	-79.88831	1.792366E-007	0.0006505	8
	35	92	95.0169	865.7176	-4722.528	1	4801.223	-79.61208	3.300593E-009	0.0006224	7
	36	94	75.60484	1108.385	-5812.009	1	5916.753	-79.203	1.774427E-009	0.0006305	7
	37	97	54.50582	1609.713	-7795.858	1	7960.313	-78.33335	-4.052123E-009	0.0006787	7
	38	100	45.95588	1965.974	-9064.643	1	9275.387	-77.763	2.769885E-009	0.0006242	7
	39	102	37.20238	2533.922	-10901.02	1	11191.65	-76.91409	1.528347E-009	0.0006343	7
	40	104	30.04808	3293.142	-13110.58	1	13517.85	-75.90003	-6.641238E-011	0.0006236	7
	41	107	23.91582	4355.873	-15895.25	1	16481.28	-74.6751	4.941964E-009	0.0006172	7
	42	109	18.60119	5915.938	-19499.81	1	20377.46	-73.12302	1.798884E-009	0.0006277	7
	43	111	15.02404	7654.617	-23101.89	1	24337.02	-71.66782	3.535913E-009	0.0006242	7
	44	114	12.01923	9978.74	-27413.47	1	29173.16	-69.99806	1.882722E-009	0.0006167	7
	45	116	9.450605	13191.99	-32677.29	1	35239.66	-68.01581	4.726283E-009	0.0006239	7
	46	119	7.512019	17058.13	-38377.16	1	41997.45	-66.0355	-9.047953E-009	0.0006887	6
	47	121	5.978954	21848.96	-44613.72	1	49676.56	-63.90733	-1.118039E-008	0.000686	6
	48	124	4.734848	27804.72	-51541.02	1	58562.61	-61.65457	-8.611048E-009	0.0006998	6
	49	128	3.75601	34861.32	-58960.48	1	68495.62	-59.40562	-1.448348E-008	0.000658	6
	50	131	3.004808	42857.38	-66521.59	1	79132.02	-57.20782	-1.440363E-008	0.0006985	6
	51	135	2.372217	52758.92	-74738.34	1	91484.01	-54.78116	-1.317017E-008	0.0007263	6
	52	139	1.878005	63952.84	-83208.69	1	104945.9	-52.45471	-1.489139E-008	0.0006952	6
	53	144	1.512097	75400.82	-91087.63	1	118246.5	-50.38261	-1.379747E-008	0.0006689	6
	54	149	1.201923	89339.3	-99499.7	1	133722.5	-48.0798	-1.324706E-008	0.0006449	6
	55	155	0.956633	104676.2	-107495.3	1	150041.2	-45.76123	-1.586033E-008	3.356463E-005	6
