EXPLAIN
TAG	EISPOT
TITLE	LABEL	Potentiostatic EIS	Test Identifier
DATE	LABEL	8/24/2020	Date
TIME	LABEL	17:40:19	Time
NOTES	NOTES	1	Notes...
	
PSTAT	PSTAT	REF3000-16137	Potentiostat
VDC	POTEN	0.00000E+000	T	DC Voltage (V)
FREQINIT	QUANT	3.00000E+005	Initial Freq. (Hz)
FREQFINAL	QUANT	1.00000E+000	Final Freq. (Hz)
PTSPERDEC	QUANT	1.00000E+001	Points/decade
VAC	QUANT	5.00000E+001	AC Voltage (mV rms)
AREA	QUANT	1.00000E+000	Sample Area (cm^2)
SPEED	SELECTOR	2	Optimize for:
ZGUESS	QUANT	1.00000E+003	Estimated Z (ohms)
EOC	QUANT	0	Open Circuit (V)
SEQUENCER	TOGGLE	TRUE	Run as Sequence
PSTATMODEL	IQUANT	5	Pstat Model
PSTATSECTION	LABEL	REF3000-16137	Pstat Section
PSTATSERIALNO	LABEL	16137	Pstat Serial Number
CTRLMODE	IQUANT	1	Control Mode
IESTAB	IQUANT	0	I/E Stability
CASPEED	IQUANT	1	Control Amp Speed
CONVENTION	IQUANT	1	Current Convention
ICHRANGE	IQUANT	2	Ich Range
ICHRANGEMODE	TOGGLE	F	Ich Auto Range
ICHOFFSETENABLE	TOGGLE	T	Ich Offset Enable
ICHOFFSET	QUANT	0	Ich Offset (V)
ICHFILTER	IQUANT	3	Ich Filter
VCHRANGE	IQUANT	2	Vch Range
VCHRANGEMODE	TOGGLE	F	Vch Auto Range
VCHOFFSETENABLE	TOGGLE	T	Vch Offset Enable
VCHOFFSET	QUANT	0	Vch Offset (V)
VCHFILTER	IQUANT	3	Vch Filter
ACHRANGE	IQUANT	2	Ach Range
ACHOFFSETENABLE	TOGGLE	F	Ach Offset Enable
ACHOFFSET	QUANT	0	Ach Offset (V)
ACHFILTER	IQUANT	3	Ach Filter
IERANGELOWERLIMIT	IQUANT	2	I/E Range Lower Limit
IERANGEMODE	TOGGLE	F	I/E AutoRange
IERANGE	IQUANT	11	I/E Range
POSFEEDENABLE	TOGGLE	F	Positive Feedback IR Comp
POSFEEDRESISTANCE	QUANT	0	Positive Feedback Resistance (ohm)
ACHSELECT	IQUANT	0	Ach Select
CABLEID	IQUANT	13	Cable ID
DCCALDATE	LABEL	7/31/2020	DC Calibration Date
ACCALDATE	LABEL	7/31/2020	AC Calibration Date
THERMOSELECT	IQUANT	1	Thermo Select
FRAMEWORKVERSION	QUANT	6.33	Framework Version
INSTRUMENTVERSION	LABEL	3.50	Instrument Version
COMPLIANCEVOLTAGE	IQUANT	0	Compliance Voltage
ZCURVE	TABLE
	Pt	Time	Freq	Zreal	Zimag	Zsig	Zmod	Zphz	Idc	Vdc	IERange
	#	s	Hz	ohm	ohm	V	ohm	°	A	V	#
	0	14	300046.9	575.71	-77.89227	1	580.9554	-7.705202	2.438937E-005	-0.0016726	9
	1	22	238359.4	540.3618	-58.68501	1	543.5391	-6.198212	-5.975159E-005	0.0006389	9
	2	30	189328.1	509.1827	-48.35736	1	511.4738	-5.42514	-8.648937E-005	0.0039417	9
	3	39	150421.9	485.172	-42.65874	1	487.0437	-5.024808	5.140233E-005	-1.343661E-006	9
	4	47	119484.4	470.5225	-24.8997	1	471.1808	-3.029224	-3.699533E-006	0.0083668	8
	5	52	94921.88	458.4875	-25.82204	1	459.2141	-3.223496	1.552147E-005	-0.0031427	8
	6	54	75421.88	452.507	-29.92398	1	453.4953	-3.783423	-4.675237E-006	0.0054157	8
	7	57	59859.37	447.5445	-34.49015	1	448.8715	-4.406807	1.485318E-005	-0.0023056	8
	8	60	47578.12	443.0161	-39.88617	1	444.808	-5.144653	-9.433367E-006	0.0063109	8
	9	62	37828.12	440.1342	-46.0419	1	442.5358	-5.971922	6.974604E-006	-0.004437	8
	10	65	30046.88	437.5497	-51.97569	1	440.6259	-6.774311	-1.403568E-005	0.0047113	8
	11	67	23859.38	436.2699	-58.98669	1	440.2396	-7.700088	-1.14398E-005	0.0017466	8
	12	69	18984.38	436.4511	-67.00259	1	441.5641	-8.72773	-8.899907E-006	0.0061219	8
	13	72	15046.87	436.3612	-76.25642	1	442.9742	-9.91264	-1.067954E-005	0.0016894	8
	14	74	11953.13	438.6355	-85.52874	1	446.8963	-11.03356	1.205957E-005	-0.0056723	8
	15	77	9515.62	439.9319	-96.7323	1	450.4411	-12.40087	7.496636E-006	-0.0044387	8
	16	79	7546.875	443.3352	-110.666	1	456.9388	-14.01583	-4.172803E-006	0.005178	8
	17	81	5928.309	444.9371	-124.9434	1	462.147	-15.68535	-1.13515E-005	0.0059719	8
	18	84	4733.456	445.2786	-141.6313	1	467.2606	-17.64449	-7.240235E-006	0.0001034	8
	19	86	3796.875	445.6443	-164.81	1	475.1433	-20.2956	6.31234E-006	0.0017329	8
	20	88	2987.132	446.9682	-195.0737	1	487.6826	-23.57827	1.038447E-005	-0.0045914	8
	21	91	2390.625	445.8607	-231.5809	1	502.4157	-27.44745	1.273585E-005	-0.0044199	8
	22	93	1884.191	446.247	-282.187	1	527.9828	-32.30746	-1.085085E-005	0.0056867	8
	23	95	1516.544	444.2702	-339.8642	1	559.36	-37.41578	-4.290865E-006	0.0050079	8
	24	98	1193.986	446.7495	-422.9934	1	615.2305	-43.43541	1.327466E-005	-0.0020419	8
	25	100	946.5144	451.6693	-523.9413	1	691.7512	-49.23666	6.115783E-006	0.0015959	8
	26	103	751.7689	456.5809	-649.0673	1	793.5707	-54.87585	1.029289E-005	-0.0003806	8
	27	105	597.4265	469.6545	-804.5857	1	931.6295	-59.72694	-3.789518E-006	0.0047419	8
	28	108	477.4305	484.6482	-990.336	1	1102.565	-63.92392	-1.12649E-007	0.0006559	8
	29	110	376.6741	510.5668	-1236.043	1	1337.341	-67.55616	-9.884815E-008	0.0006515	8
	30	112	298.2954	546.7775	-1537.119	1	1631.471	-70.41872	-1.033271E-007	0.0006461	8
	31	115	237.7717	595.6229	-1898.909	1	1990.131	-72.58514	-1.066048E-007	0.0006507	8
	32	117	189.0121	664.5206	-2350.652	1	2442.775	-74.2146	-7.35582E-008	0.0006351	8
	33	120	150.2404	759.7671	-2906.966	1	3004.612	-75.35278	-6.265323E-008	0.0006388	8
	34	122	119.1737	892.4177	-3597.602	1	3706.636	-76.06847	-6.403879E-008	0.0006426	8
	35	124	95.0169	1075.766	-4431.469	1	4560.175	-76.35505	-8.008026E-008	0.0006052	7
	36	127	75.60484	1327.126	-5448.01	1	5607.323	-76.30949	-8.689295E-008	0.0006243	7
	37	130	54.50582	1864.144	-7291.914	1	7526.423	-75.65974	-9.01061E-008	0.0006093	7
	38	132	45.95588	2265.81	-8468.962	1	8766.824	-75.02172	-8.839996E-008	0.0006276	7
	39	135	37.20238	2919.978	-10153.44	1	10564.97	-73.95554	-8.855707E-008	0.0006054	7
	40	137	30.04808	3822.077	-12137.34	1	12724.91	-72.52066	-9.346508E-008	0.0006131	7
	41	139	23.91582	5128.074	-14591.62	1	15466.5	-70.63651	-9.842282E-008	0.0006092	7
	42	142	18.60119	7080.302	-17655.34	1	19022.14	-68.14779	-9.388828E-008	0.000609	7
	43	144	15.02404	9320.729	-20488.34	1	22508.85	-65.53786	-1.084474E-007	0.0006777	7
	44	146	12.01923	12351.62	-23579.31	1	26618.53	-62.35296	-1.120478E-007	0.0006253	7
	45	149	9.450605	16471.07	-26831.16	1	31483.45	-58.45514	-1.159592E-007	0.0006314	7
	46	151	7.512019	21238.63	-29523.07	1	36368.82	-54.2691	-1.171712E-007	0.0006311	7
	47	154	5.978954	26672.43	-31271.56	1	41101.45	-49.53817	-1.263675E-007	0.0006371	7
	48	157	4.734848	32664.29	-32005.76	1	45731.01	-44.41658	-1.251305E-007	0.0007011	6
	49	160	3.75601	38075.03	-30561.22	1	48823.11	-38.75254	-1.432152E-007	0.0006715	6
	50	166	3.004808	42100.02	-27714.18	1	50403.25	-33.35666	-1.571988E-007	0.0006469	6
	51	172	2.372217	45196.89	-24465.01	1	51393.54	-28.42662	-1.739298E-007	0.0006944	6
	52	180	1.878005	46347.31	-20337.13	1	50612.96	-23.6918	-1.961093E-007	0.0006721	6
	53	189	1.512097	46803.65	-17548.67	1	49985.37	-20.55315	-2.103395E-007	0.0006312	6
	54	199	1.201923	46943.59	-15035.31	1	49292.61	-17.75946	-2.241099E-007	0.0006685	6
	55	212	0.956633	47120.14	-13080.93	1	48902.14	-15.51509	-2.486593E-007	5.219778E-005	6
