EXPLAIN
TAG	EISPOT
TITLE	LABEL	Potentiostatic EIS	Test Identifier
DATE	LABEL	8/24/2020	Date
TIME	LABEL	17:17:32	Time
NOTES	NOTES	1	Notes...
	
PSTAT	PSTAT	REF3000-16137	Potentiostat
VDC	POTEN	0.00000E+000	T	DC Voltage (V)
FREQINIT	QUANT	3.00000E+005	Initial Freq. (Hz)
FREQFINAL	QUANT	1.00000E+000	Final Freq. (Hz)
PTSPERDEC	QUANT	1.00000E+001	Points/decade
VAC	QUANT	5.00000E+001	AC Voltage (mV rms)
AREA	QUANT	1.00000E+000	Sample Area (cm^2)
SPEED	SELECTOR	2	Optimize for:
ZGUESS	QUANT	1.00000E+003	Estimated Z (ohms)
EOC	QUANT	0	Open Circuit (V)
SEQUENCER	TOGGLE	TRUE	Run as Sequence
PSTATMODEL	IQUANT	5	Pstat Model
PSTATSECTION	LABEL	REF3000-16137	Pstat Section
PSTATSERIALNO	LABEL	16137	Pstat Serial Number
CTRLMODE	IQUANT	1	Control Mode
IESTAB	IQUANT	0	I/E Stability
CASPEED	IQUANT	1	Control Amp Speed
CONVENTION	IQUANT	1	Current Convention
ICHRANGE	IQUANT	2	Ich Range
ICHRANGEMODE	TOGGLE	F	Ich Auto Range
ICHOFFSETENABLE	TOGGLE	T	Ich Offset Enable
ICHOFFSET	QUANT	0	Ich Offset (V)
ICHFILTER	IQUANT	3	Ich Filter
VCHRANGE	IQUANT	2	Vch Range
VCHRANGEMODE	TOGGLE	F	Vch Auto Range
VCHOFFSETENABLE	TOGGLE	T	Vch Offset Enable
VCHOFFSET	QUANT	0	Vch Offset (V)
VCHFILTER	IQUANT	3	Vch Filter
ACHRANGE	IQUANT	2	Ach Range
ACHOFFSETENABLE	TOGGLE	F	Ach Offset Enable
ACHOFFSET	QUANT	0	Ach Offset (V)
ACHFILTER	IQUANT	3	Ach Filter
IERANGELOWERLIMIT	IQUANT	2	I/E Range Lower Limit
IERANGEMODE	TOGGLE	F	I/E AutoRange
IERANGE	IQUANT	11	I/E Range
POSFEEDENABLE	TOGGLE	F	Positive Feedback IR Comp
POSFEEDRESISTANCE	QUANT	0	Positive Feedback Resistance (ohm)
ACHSELECT	IQUANT	0	Ach Select
CABLEID	IQUANT	13	Cable ID
DCCALDATE	LABEL	7/31/2020	DC Calibration Date
ACCALDATE	LABEL	7/31/2020	AC Calibration Date
THERMOSELECT	IQUANT	1	Thermo Select
FRAMEWORKVERSION	QUANT	6.33	Framework Version
INSTRUMENTVERSION	LABEL	3.50	Instrument Version
COMPLIANCEVOLTAGE	IQUANT	0	Compliance Voltage
ZCURVE	TABLE
	Pt	Time	Freq	Zreal	Zimag	Zsig	Zmod	Zphz	Idc	Vdc	IERange
	#	s	Hz	ohm	ohm	V	ohm	°	A	V	#
	0	23	300046.9	-122.5991	-4892.223	1	4893.759	-91.43553	-3.786941E-006	0.001513	9
	1	38	238359.4	-86.1512	-6163.894	1	6164.496	-90.80076	2.022209E-005	-0.0022776	9
	2	52	189328.1	48.87655	-7516.226	1	7516.384	-89.62742	-2.157125E-005	0.0015006	9
	3	59	150421.9	-70.89676	-9149.172	1	9149.446	-90.44398	2.532654E-005	0.0010472	9
	4	67	119484.4	501.5862	-11775.42	1	11786.1	-87.5609	-6.102407E-005	0.0067473	8
	5	74	94921.88	595.3137	-14379.3	1	14391.62	-87.62926	2.247543E-005	-0.0097315	8
	6	83	75421.88	432.396	-18204.39	1	18209.53	-88.63935	2.336944E-005	-0.0028762	8
	7	92	59859.37	1145.664	-23063.18	1	23091.62	-87.15617	1.659874E-005	-0.009373	8
	8	100	47578.12	3965.648	-30081.21	1	30341.49	-82.48992	5.45675E-006	-0.0272751	7
	9	106	37828.12	520.7247	-35763.77	1	35767.56	-89.16582	2.620561E-005	-0.0052072	8
	10	115	30046.88	-179.5668	-44753.78	1	44754.14	-90.22989	-1.622212E-005	0.0006228	8
	11	125	23859.38	4460.286	-57677.09	1	57849.29	-85.578	-7.158847E-006	0.0127773	7
	12	130	18984.38	4813.227	-72764.11	1	72923.13	-86.21549	2.805268E-006	0.0085571	7
	13	135	15046.87	1172.912	-92331.52	1	92338.97	-89.27219	-1.231707E-005	0.010382	8
	14	143	11953.13	5910.274	-113773.1	1	113926.5	-87.02628	-7.35272E-006	0.0237925	7
	15	148	9515.62	4287.191	-140821.4	1	140886.7	-88.25622	3.495107E-006	-0.0248287	7
	16	154	7546.875	7583.683	-183675	1	183831.5	-87.63568	-6.804617E-006	0.0120262	7
	17	160	5928.309	13372.17	-232644.9	1	233028.9	-86.71033	-3.77831E-006	0.0257274	7
	18	165	4733.456	-7762.16	-276769.6	1	276878.4	-91.60647	-3.473722E-006	-0.005185	7
	19	171	3796.875	112365.9	-427933.9	1	442440.4	-75.28753	2.728696E-005	-0.0054293	8
	20	179	2987.132	78491.6	-681931.9	1	686434.3	-83.43404	-2.420977E-005	0.0053166	8
	21	188	2390.625	55733.52	-394442.2	1	398360.2	-81.95751	-2.00999E-005	0.0115073	8
	22	196	1884.191	-541538.8	-738869.3	1	916074.3	-126.2388	1.270024E-006	-0.0202022	7
	23	203	1516.544	51029.95	-908148.5	1	909581.1	-86.78387	-4.059185E-007	0.0258229	6
	24	210	1193.986	102737.9	-1143050	1	1147658	-84.86403	7.814444E-007	-0.023368	6
	25	215	946.5144	113214.9	-1308997	1	1313884	-85.0568	-2.875952E-007	-0.007259	6
	26	220	751.7689	40662.14	-1843497	1	1843946	-88.73643	6.172155E-007	-0.0074309	6
	27	224	597.4265	767350.3	-2817359	1	2919989	-74.7642	7.28447E-007	-0.0273769	6
	28	227	477.4305	83318.55	-2807924	1	2809159	-88.30038	-1.035631E-008	0.0006764	6
	29	233	376.6741	479411.7	-3660200	1	3691463	-82.5379	-1.063164E-009	0.0006801	5
	30	237	298.2954	521943.3	-4571405	1	4601105	-83.48642	-1.058822E-009	0.0006904	5
	31	240	237.7717	515924.3	-5563580	1	5587450	-84.70197	-1.052682E-009	0.0006117	5
	32	243	189.0121	568813.1	-7075042	1	7097870	-85.40347	-9.951355E-010	0.0006331	5
	33	246	150.2404	727805.1	-9142056	1	9170981	-85.44824	-9.867948E-010	0.0005945	5
	34	248	119.1737	1194176	-8195964	1	8282504	-81.71017	-1.072414E-009	0.000668	5
	35	251	95.0169	547481.9	-1.390981E+007	1	1.392058E+007	-87.74603	-9.515984E-010	0.0005958	5
	36	254	75.60484	1374590	-1.695846E+007	1	1.701408E+007	-85.36594	-1.114079E-009	0.0006811	5
	37	257	54.50582	77402.65	-2.354063E+007	1	2.354075E+007	-89.81161	-1.069564E-009	0.0006891	5
	38	260	45.95588	4356029	-3.156332E+007	1	3.186248E+007	-82.14229	-9.476285E-011	0.0006863	4
	39	263	37.20238	1375674	-3.707186E+007	1	3.709738E+007	-87.87482	-1.052556E-009	0.0006813	5
	40	266	30.04808	5300899	-4.388287E+007	1	4.420188E+007	-83.11224	-1.025972E-010	0.0005993	4
	41	270	23.91582	5723340	-5.676066E+007	1	5.704848E+007	-84.24216	-9.985736E-011	0.0005996	4
	42	274	18.60119	-1982928	-4.946708E+007	1	4.950681E+007	-92.29552	9.8444E-011	0.0006048	4
	43	278	15.02404	5015804	-8.660652E+007	1	8.675164E+007	-86.68542	-8.870793E-011	0.0005989	4
	44	281	12.01923	6711937	-1.039016E+008	1	1.041181E+008	-86.30389	-1.088619E-010	0.0006024	4
	45	285	9.450605	7694653	-1.344581E+008	1	1.346781E+008	-86.7247	-1.124353E-010	0.0007338	4
	46	289	7.512019	1.452707E+007	-1.635425E+008	1	1.641864E+008	-84.92388	-1.010569E-010	0.0006905	4
	47	293	5.978954	1.509338E+007	-1.920969E+008	1	1.926889E+008	-85.5074	-1.277599E-010	0.0006876	4
	48	299	4.734848	5.304662E+007	-2.820075E+008	1	2.869532E+008	-79.34694	-1.935257E-011	0.0007774	3
	49	304	3.75601	2.092046E+007	-3.323909E+008	1	3.330486E+008	-86.39859	-1.070952E-009	0.0007157	5
	50	312	3.004808	2.244998E+007	-4.186261E+008	1	4.192276E+008	-86.9303	-1.003123E-009	0.0005809	5
	51	321	2.372217	7.775454E+007	-5.34937E+008	1	5.405584E+008	-81.72982	-1.85206E-011	0.0006922	3
	52	327	1.878005	9.262164E+007	-6.689308E+008	1	6.753126E+008	-82.11682	-1.811204E-011	0.0007183	3
	53	336	1.512097	1.120364E+008	-8.215546E+008	1	8.291587E+008	-82.23441	-1.821978E-011	0.0007579	3
	54	343	1.201923	1.456929E+008	-1.027304E+009	1	1.037584E+009	-81.92811	-1.803113E-011	0.000732	3
	55	355	0.956633	1.937031E+008	-1.274902E+009	1	1.289533E+009	-81.3608	-1.81444E-011	0.0001266	3
