EXPLAIN
TAG	EISPOT
TITLE	LABEL	Potentiostatic EIS	Test Identifier
DATE	LABEL	8/24/2020	Date
TIME	LABEL	15:07:13	Time
NOTES	NOTES	1	Notes...
	
PSTAT	PSTAT	REF3000-16137	Potentiostat
VDC	POTEN	0.00000E+000	T	DC Voltage (V)
FREQINIT	QUANT	3.00000E+005	Initial Freq. (Hz)
FREQFINAL	QUANT	1.00000E+000	Final Freq. (Hz)
PTSPERDEC	QUANT	1.00000E+001	Points/decade
VAC	QUANT	5.00000E+001	AC Voltage (mV rms)
AREA	QUANT	1.00000E+000	Sample Area (cm^2)
SPEED	SELECTOR	2	Optimize for:
ZGUESS	QUANT	1.00000E+003	Estimated Z (ohms)
EOC	QUANT	0	Open Circuit (V)
SEQUENCER	TOGGLE	TRUE	Run as Sequence
PSTATMODEL	IQUANT	5	Pstat Model
PSTATSECTION	LABEL	REF3000-16137	Pstat Section
PSTATSERIALNO	LABEL	16137	Pstat Serial Number
CTRLMODE	IQUANT	1	Control Mode
IESTAB	IQUANT	0	I/E Stability
CASPEED	IQUANT	1	Control Amp Speed
CONVENTION	IQUANT	1	Current Convention
ICHRANGE	IQUANT	2	Ich Range
ICHRANGEMODE	TOGGLE	F	Ich Auto Range
ICHOFFSETENABLE	TOGGLE	T	Ich Offset Enable
ICHOFFSET	QUANT	0	Ich Offset (V)
ICHFILTER	IQUANT	3	Ich Filter
VCHRANGE	IQUANT	2	Vch Range
VCHRANGEMODE	TOGGLE	F	Vch Auto Range
VCHOFFSETENABLE	TOGGLE	T	Vch Offset Enable
VCHOFFSET	QUANT	0	Vch Offset (V)
VCHFILTER	IQUANT	3	Vch Filter
ACHRANGE	IQUANT	2	Ach Range
ACHOFFSETENABLE	TOGGLE	F	Ach Offset Enable
ACHOFFSET	QUANT	0	Ach Offset (V)
ACHFILTER	IQUANT	3	Ach Filter
IERANGELOWERLIMIT	IQUANT	2	I/E Range Lower Limit
IERANGEMODE	TOGGLE	F	I/E AutoRange
IERANGE	IQUANT	11	I/E Range
POSFEEDENABLE	TOGGLE	F	Positive Feedback IR Comp
POSFEEDRESISTANCE	QUANT	0	Positive Feedback Resistance (ohm)
ACHSELECT	IQUANT	0	Ach Select
CABLEID	IQUANT	13	Cable ID
DCCALDATE	LABEL	7/31/2020	DC Calibration Date
ACCALDATE	LABEL	7/31/2020	AC Calibration Date
THERMOSELECT	IQUANT	1	Thermo Select
FRAMEWORKVERSION	QUANT	6.33	Framework Version
INSTRUMENTVERSION	LABEL	3.50	Instrument Version
COMPLIANCEVOLTAGE	IQUANT	0	Compliance Voltage
ZCURVE	TABLE
	Pt	Time	Freq	Zreal	Zimag	Zsig	Zmod	Zphz	Idc	Vdc	IERange
	#	s	Hz	ohm	ohm	V	ohm	°	A	V	#
	0	7	300046.9	106.7404	-6.119641	1	106.9157	-3.28129	-5.891181E-006	0.0009089	9
	1	10	238359.4	107.7025	-7.80482	1	107.9849	-4.144777	-2.806558E-006	0.0009581	9
	2	13	189328.1	108.8804	-9.075694	1	109.258	-4.764858	-1.318604E-005	0.0010022	9
	3	16	150421.9	109.7588	-10.73772	1	110.2828	-5.587476	3.701109E-006	-0.0012897	9
	4	18	119484.4	111.2043	-12.66236	1	111.9229	-6.496047	1.148845E-005	-0.0007526	9
	5	21	94921.88	112.6737	-14.35816	1	113.5848	-7.262137	2.352004E-005	-0.0003046	9
	6	23	75421.88	114.3495	-16.71613	1	115.5649	-8.316843	2.440653E-005	-0.0004944	9
	7	26	59859.37	116.129	-19.33528	1	117.7277	-9.452933	5.062556E-006	-0.0004966	9
	8	28	47578.12	118.1677	-22.19305	1	120.2337	-10.6368	-1.972707E-005	0.0006577	9
	9	31	37828.12	120.3345	-25.40326	1	122.9866	-11.92043	-5.063376E-006	0.0007539	9
	10	33	30046.88	122.6414	-29.19113	1	126.0675	-13.38843	-1.967657E-005	0.0004816	9
	11	36	23859.38	124.9507	-33.61973	1	129.3946	-15.05958	1.226846E-005	0.000138	9
	12	38	18984.38	127.2366	-38.94583	1	133.0637	-17.01881	-4.366444E-006	0.0005766	9
	13	41	15046.87	129.257	-45.53262	1	137.0423	-19.40554	2.178667E-005	-0.0002819	9
	14	43	11953.13	131.1224	-53.87849	1	141.7603	-22.33787	-8.173633E-006	-0.0000951	9
	15	45	9515.62	133.0427	-64.3369	1	147.7822	-25.80752	-1.108426E-006	-0.0002631	9
	16	48	7546.875	134.8986	-77.78595	1	155.7186	-29.96883	-2.120476E-005	0.0006583	9
	17	50	5928.309	136.793	-96.1396	1	167.198	-35.09996	2.375768E-005	-0.0007165	9
	18	52	4733.456	139.0081	-117.5276	1	182.033	-40.21362	1.910282E-005	-0.0001053	9
	19	54	3796.875	141.432	-143.9604	1	201.8109	-45.5076	2.255731E-005	-0.0006615	9
	20	57	2987.132	144.2965	-179.4571	1	230.2745	-51.19821	1.930039E-005	-0.0007335	9
	21	59	2390.625	148.2012	-220.5607	1	265.7265	-56.10169	-2.079909E-006	-0.0002852	9
	22	61	1884.191	151.8955	-277.8025	1	316.6172	-61.33126	2.328997E-005	-0.0002908	9
	23	64	1516.544	158.6481	-340.1687	1	375.3452	-64.99656	-1.56787E-005	0.0002091	9
	24	66	1193.986	167.2697	-426.8121	1	458.4187	-68.59956	-1.480653E-005	0.0001779	9
	25	68	946.5144	177.1827	-528.1861	1	557.1124	-71.45571	-6.203712E-006	0.0025898	8
	26	71	751.7689	192.1047	-658.9754	1	686.4057	-73.74753	-6.324284E-006	0.0023619	8
	27	73	597.4265	210.6926	-817.1243	1	843.8504	-75.54142	-5.18498E-006	0.0013583	8
	28	75	477.4305	233.7958	-1010.58	1	1037.272	-76.9739	1.812417E-007	0.0006497	8
	29	78	376.6741	267.2894	-1262.615	1	1290.597	-78.04723	1.636135E-007	0.0006531	8
	30	80	298.2954	311.2531	-1570.459	1	1601.006	-78.78968	1.786468E-007	0.0006583	8
	31	82	237.7717	368.3875	-1940.019	1	1974.686	-79.24819	1.669001E-007	0.0006519	8
	32	85	189.0121	445.5371	-2400.353	1	2441.351	-79.48482	1.886571E-007	0.000651	8
	33	87	150.2404	549.2966	-2965.951	1	3016.387	-79.50766	1.694701E-007	0.0006504	8
	34	90	119.1737	690.1146	-3667.423	1	3731.789	-79.34303	1.911751E-007	0.0006503	8
	35	92	95.0169	877.9255	-4514.072	1	4598.652	-78.99414	-1.095784E-009	0.0006366	7
	36	95	75.60484	1127.953	-5546.908	1	5660.43	-78.50573	2.134296E-010	0.0006194	7
	37	97	54.50582	1643.247	-7415.931	1	7595.807	-77.50608	-2.448533E-009	0.0006165	7
	38	100	45.95588	2010.785	-8612.502	1	8844.119	-76.8584	1.267481E-009	0.0006284	7
	39	102	37.20238	2593.539	-10330.86	1	10651.44	-75.90727	3.294982E-009	0.0006194	7
	40	104	30.04808	3353.261	-12357.67	1	12804.55	-74.81833	9.720232E-010	0.0006143	7
	41	107	23.91582	4432.519	-14912.84	1	15557.63	-73.44656	-2.995834E-009	0.0006792	7
	42	109	18.60119	6023.154	-18257.47	1	19225.34	-71.74223	-1.38689E-010	0.0006366	7
	43	111	15.02404	7776.06	-21544.07	1	22904.45	-70.15359	-4.118014E-009	0.0006476	7
	44	114	12.01923	10135.01	-25414.77	1	27361.09	-68.25866	4.349732E-009	0.0006225	7
	45	116	9.450605	13335.37	-30064.4	1	32889.21	-66.07983	-6.018161E-009	0.0006159	7
	46	119	7.512019	17168.96	-35024.68	1	39006.43	-63.88609	-3.639286E-009	0.0006267	7
	47	121	5.978954	21889.4	-40316.63	1	45875.66	-61.50082	-1.982155E-008	0.0006744	6
	48	124	4.734848	27730.74	-46028.49	1	53736.54	-58.93234	-1.981615E-008	0.0006937	6
	49	128	3.75601	34553.42	-51925.16	1	62371.15	-56.35836	-1.439038E-008	0.000693	6
	50	131	3.004808	42086.02	-57671.29	1	71394.75	-53.87964	-1.472468E-008	0.0006635	6
	51	135	2.372217	51204.62	-63601.53	1	81652.11	-51.16299	-1.531439E-008	0.0006239	6
	52	139	1.878005	61437.36	-69202.49	1	92539.37	-48.40162	-1.323185E-008	0.0006677	6
	53	144	1.512097	71566.9	-74176.68	1	103072.8	-46.02587	-1.351656E-008	0.0007104	6
	54	149	1.201923	83502.72	-78678.78	1	114730.4	-43.29629	-1.399173E-008	0.0006798	6
	55	155	0.956633	95888.5	-82515.06	1	126504.3	-40.71304	-2.260551E-008	3.539334E-005	6
