EXPLAIN
TAG	EISPOT
TITLE	LABEL	Potentiostatic EIS	Test Identifier
DATE	LABEL	8/24/2020	Date
TIME	LABEL	15:18:13	Time
NOTES	NOTES	1	Notes...
	
PSTAT	PSTAT	REF3000-16137	Potentiostat
VDC	POTEN	0.00000E+000	T	DC Voltage (V)
FREQINIT	QUANT	3.00000E+005	Initial Freq. (Hz)
FREQFINAL	QUANT	1.00000E+000	Final Freq. (Hz)
PTSPERDEC	QUANT	1.00000E+001	Points/decade
VAC	QUANT	5.00000E+001	AC Voltage (mV rms)
AREA	QUANT	1.00000E+000	Sample Area (cm^2)
SPEED	SELECTOR	2	Optimize for:
ZGUESS	QUANT	1.00000E+003	Estimated Z (ohms)
EOC	QUANT	0	Open Circuit (V)
SEQUENCER	TOGGLE	TRUE	Run as Sequence
PSTATMODEL	IQUANT	5	Pstat Model
PSTATSECTION	LABEL	REF3000-16137	Pstat Section
PSTATSERIALNO	LABEL	16137	Pstat Serial Number
CTRLMODE	IQUANT	1	Control Mode
IESTAB	IQUANT	0	I/E Stability
CASPEED	IQUANT	1	Control Amp Speed
CONVENTION	IQUANT	1	Current Convention
ICHRANGE	IQUANT	2	Ich Range
ICHRANGEMODE	TOGGLE	F	Ich Auto Range
ICHOFFSETENABLE	TOGGLE	T	Ich Offset Enable
ICHOFFSET	QUANT	0	Ich Offset (V)
ICHFILTER	IQUANT	3	Ich Filter
VCHRANGE	IQUANT	2	Vch Range
VCHRANGEMODE	TOGGLE	F	Vch Auto Range
VCHOFFSETENABLE	TOGGLE	T	Vch Offset Enable
VCHOFFSET	QUANT	0	Vch Offset (V)
VCHFILTER	IQUANT	3	Vch Filter
ACHRANGE	IQUANT	2	Ach Range
ACHOFFSETENABLE	TOGGLE	F	Ach Offset Enable
ACHOFFSET	QUANT	0	Ach Offset (V)
ACHFILTER	IQUANT	3	Ach Filter
IERANGELOWERLIMIT	IQUANT	2	I/E Range Lower Limit
IERANGEMODE	TOGGLE	F	I/E AutoRange
IERANGE	IQUANT	11	I/E Range
POSFEEDENABLE	TOGGLE	F	Positive Feedback IR Comp
POSFEEDRESISTANCE	QUANT	0	Positive Feedback Resistance (ohm)
ACHSELECT	IQUANT	0	Ach Select
CABLEID	IQUANT	13	Cable ID
DCCALDATE	LABEL	7/31/2020	DC Calibration Date
ACCALDATE	LABEL	7/31/2020	AC Calibration Date
THERMOSELECT	IQUANT	1	Thermo Select
FRAMEWORKVERSION	QUANT	6.33	Framework Version
INSTRUMENTVERSION	LABEL	3.50	Instrument Version
COMPLIANCEVOLTAGE	IQUANT	0	Compliance Voltage
ZCURVE	TABLE
	Pt	Time	Freq	Zreal	Zimag	Zsig	Zmod	Zphz	Idc	Vdc	IERange
	#	s	Hz	ohm	ohm	V	ohm	°	A	V	#
	0	8	300046.9	128.8803	-7.471696	1	129.0967	-3.317947	-1.311185E-005	0.0009679	9
	1	11	238359.4	130.155	-8.953229	1	130.4625	-3.93512	6.961636E-005	-0.0018213	9
	2	14	189328.1	131.528	-10.29558	1	131.9303	-4.4758	-5.167762E-005	0.0006816	9
	3	17	150421.9	132.768	-12.40557	1	133.3463	-5.338103	1.399935E-005	-0.0007879	9
	4	19	119484.4	134.1611	-14.36426	1	134.9279	-6.111222	-3.15074E-005	-0.0003231	9
	5	22	94921.88	135.7331	-16.30948	1	136.7094	-6.851726	1.413713E-005	-0.0007117	9
	6	24	75421.88	137.6874	-18.85623	1	138.9726	-7.798119	2.817646E-005	-0.0006196	9
	7	27	59859.37	139.7904	-21.72643	1	141.4687	-8.834311	-9.690071E-006	-4.172419E-005	9
	8	29	47578.12	142.1259	-24.93135	1	144.296	-9.94945	-2.191002E-005	0.0006377	9
	9	32	37828.12	144.627	-28.48063	1	147.4046	-11.14041	6.017128E-006	-0.0005341	9
	10	35	30046.88	147.4754	-32.51096	1	151.0164	-12.43201	-1.78325E-005	0.000923	9
	11	37	23859.38	150.2737	-37.36455	1	154.8492	-13.96307	2.229381E-005	-0.0008051	9
	12	39	18984.38	153.0704	-42.97844	1	158.9896	-15.68345	2.048896E-005	-8.21178E-005	9
	13	42	15046.87	155.9517	-49.93483	1	163.7511	-17.75476	-2.192298E-005	0.0008597	9
	14	44	11953.13	158.0137	-58.50922	1	168.4983	-20.31855	2.465503E-006	0.0005801	9
	15	46	9515.62	160.5091	-69.52021	1	174.9178	-23.41855	2.386408E-005	-0.0001856	9
	16	49	7546.875	162.4506	-83.66811	1	182.7309	-27.25015	1.225025E-005	0.0002417	9
	17	51	5928.309	164.6297	-102.5535	1	193.9592	-31.92021	-2.072629E-005	0.0005074	9
	18	53	4733.456	167.1049	-124.8059	1	208.5679	-36.75501	2.555636E-005	-0.0004589	9
	19	56	3796.875	169.3483	-152.7244	1	228.0429	-42.04527	2.315976E-005	-0.0002872	9
	20	58	2987.132	172.368	-190.9352	1	257.2294	-47.92564	1.990572E-005	-0.0001032	9
	21	60	2390.625	175.6689	-235.5331	1	293.8289	-53.28313	2.423954E-006	0.0004991	9
	22	63	1884.191	181.3705	-294.5519	1	345.9135	-58.37729	1.172328E-005	0.0002213	9
	23	65	1516.544	186.1222	-361.4287	1	406.5368	-62.75323	-1.02056E-005	-1.307235E-005	9
	24	67	1193.986	193.742	-452.1027	1	491.8667	-66.80315	7.210447E-006	-0.0021531	8
	25	70	946.5144	203.3112	-564.3062	1	599.814	-70.18665	-5.725195E-006	0.0033608	8
	26	72	751.7689	216.8184	-703.3718	1	736.0314	-72.86778	6.409391E-006	-0.0001392	8
	27	74	597.4265	233.8295	-874.0765	1	904.8127	-75.02316	-3.979274E-006	0.0032973	8
	28	77	477.4305	256.7939	-1080.886	1	1110.972	-76.6356	1.375655E-007	0.0006505	8
	29	79	376.6741	288.1941	-1352.773	1	1383.131	-77.97353	1.019516E-007	0.0007018	8
	30	81	298.2954	329.1961	-1685.944	1	1717.783	-78.95148	1.363758E-007	0.0006565	8
	31	84	237.7717	382.2605	-2086.768	1	2121.491	-79.61948	1.319471E-007	0.000646	8
	32	86	189.0121	453.6919	-2587.979	1	2627.445	-80.05666	1.133213E-007	0.0006908	8
	33	88	150.2404	549.9455	-3206.702	1	3253.518	-80.26852	1.526121E-007	0.000653	8
	34	91	119.1737	681.0048	-3976.948	1	4034.834	-80.28303	1.590477E-007	0.0006554	8
	35	93	95.0169	854.7343	-4910.96	1	4984.787	-80.12679	1.640275E-009	0.0006315	7
	36	96	75.60484	1088.18	-6054.552	1	6151.563	-79.81105	-6.29585E-010	0.0006267	7
	37	98	54.50582	1569.607	-8141.264	1	8291.191	-79.08747	-1.223861E-009	0.0006261	7
	38	101	45.95588	1913.975	-9486.231	1	9677.39	-78.59295	5.787197E-009	0.0006221	7
	39	103	37.20238	2461.457	-11435.81	1	11697.72	-77.85291	3.238389E-009	0.0006281	7
	40	106	30.04808	3184.667	-13776.46	1	14139.77	-76.98373	-3.099334E-010	0.0006396	7
	41	108	23.91582	4206.631	-16747.43	1	17267.66	-75.90011	-3.752097E-009	0.0006417	7
	42	110	18.60119	5743.071	-20686.57	1	21468.98	-74.48411	-5.439683E-009	0.0006323	7
	43	113	15.02404	7440.354	-24614.54	1	25714.48	-73.18126	6.335486E-009	0.0006533	7
	44	115	12.01923	9733.98	-29349.8	1	30921.86	-71.6517	-8.31184E-010	0.0006347	7
	45	117	9.450605	12920.61	-35230.09	1	37524.67	-69.85953	3.914636E-009	0.0006357	7
	46	120	7.512019	16791.04	-41682.22	1	44937.14	-68.05872	-1.068283E-008	0.0006782	6
	47	123	5.978954	21553.08	-48857.65	1	53400.42	-66.19579	-1.03068E-008	0.0006821	6
	48	126	4.734848	27578.92	-57127.86	1	63436.5	-64.23071	-6.614943E-009	0.000673	6
	49	129	3.75601	34808.56	-66115.87	1	74719.1	-62.23418	-9.558522E-009	0.0006745	6
	50	132	3.004808	43107.68	-75467.16	1	86911.24	-60.26451	-7.083059E-009	0.0006482	6
	51	136	2.372217	53401.84	-86248.23	1	101442.2	-58.23568	-9.984523E-009	0.0006481	6
	52	140	1.878005	65585.51	-97593.9	1	117584.2	-56.09793	-1.052734E-008	0.0006681	6
	53	145	1.512097	78232.66	-108782.9	1	133992.8	-54.2777	-9.042406E-009	0.0005607	6
	54	150	1.201923	93540.98	-121409	1	153264.7	-52.38713	-9.899866E-009	0.000679	6
	55	157	0.956633	110770.2	-134429	1	174187.2	-50.5113	-1.093434E-008	2.583394E-005	6
