EXPLAIN
TAG	EISPOT
TITLE	LABEL	Potentiostatic EIS	Test Identifier
DATE	LABEL	8/24/2020	Date
TIME	LABEL	14:56:14	Time
NOTES	NOTES	1	Notes...
	
PSTAT	PSTAT	REF3000-16137	Potentiostat
VDC	POTEN	0.00000E+000	T	DC Voltage (V)
FREQINIT	QUANT	3.00000E+005	Initial Freq. (Hz)
FREQFINAL	QUANT	1.00000E+000	Final Freq. (Hz)
PTSPERDEC	QUANT	1.00000E+001	Points/decade
VAC	QUANT	5.00000E+001	AC Voltage (mV rms)
AREA	QUANT	1.00000E+000	Sample Area (cm^2)
SPEED	SELECTOR	2	Optimize for:
ZGUESS	QUANT	1.00000E+003	Estimated Z (ohms)
EOC	QUANT	0	Open Circuit (V)
SEQUENCER	TOGGLE	TRUE	Run as Sequence
PSTATMODEL	IQUANT	5	Pstat Model
PSTATSECTION	LABEL	REF3000-16137	Pstat Section
PSTATSERIALNO	LABEL	16137	Pstat Serial Number
CTRLMODE	IQUANT	1	Control Mode
IESTAB	IQUANT	0	I/E Stability
CASPEED	IQUANT	1	Control Amp Speed
CONVENTION	IQUANT	1	Current Convention
ICHRANGE	IQUANT	2	Ich Range
ICHRANGEMODE	TOGGLE	F	Ich Auto Range
ICHOFFSETENABLE	TOGGLE	T	Ich Offset Enable
ICHOFFSET	QUANT	0	Ich Offset (V)
ICHFILTER	IQUANT	3	Ich Filter
VCHRANGE	IQUANT	2	Vch Range
VCHRANGEMODE	TOGGLE	F	Vch Auto Range
VCHOFFSETENABLE	TOGGLE	T	Vch Offset Enable
VCHOFFSET	QUANT	0	Vch Offset (V)
VCHFILTER	IQUANT	3	Vch Filter
ACHRANGE	IQUANT	2	Ach Range
ACHOFFSETENABLE	TOGGLE	F	Ach Offset Enable
ACHOFFSET	QUANT	0	Ach Offset (V)
ACHFILTER	IQUANT	3	Ach Filter
IERANGELOWERLIMIT	IQUANT	2	I/E Range Lower Limit
IERANGEMODE	TOGGLE	F	I/E AutoRange
IERANGE	IQUANT	11	I/E Range
POSFEEDENABLE	TOGGLE	F	Positive Feedback IR Comp
POSFEEDRESISTANCE	QUANT	0	Positive Feedback Resistance (ohm)
ACHSELECT	IQUANT	0	Ach Select
CABLEID	IQUANT	13	Cable ID
DCCALDATE	LABEL	7/31/2020	DC Calibration Date
ACCALDATE	LABEL	7/31/2020	AC Calibration Date
THERMOSELECT	IQUANT	1	Thermo Select
FRAMEWORKVERSION	QUANT	6.33	Framework Version
INSTRUMENTVERSION	LABEL	3.50	Instrument Version
COMPLIANCEVOLTAGE	IQUANT	0	Compliance Voltage
ZCURVE	TABLE
	Pt	Time	Freq	Zreal	Zimag	Zsig	Zmod	Zphz	Idc	Vdc	IERange
	#	s	Hz	ohm	ohm	V	ohm	°	A	V	#
	0	6	300046.9	93.09705	-5.43031	1	93.25529	-3.338255	2.951276E-005	6.524281E-005	9
	1	10	238359.4	93.97131	-6.804157	1	94.21732	-4.141374	1.709192E-005	-0.0017581	9
	2	13	189328.1	94.9412	-8.119539	1	95.2878	-4.888142	-7.566994E-005	0.0021288	9
	3	16	150421.9	96.0176	-9.81004	1	96.5175	-5.833617	1.176794E-005	0.0007983	9
	4	18	119484.4	97.046	-11.29273	1	97.7008	-6.637359	-6.657877E-005	0.002652	9
	5	21	94921.88	98.5176	-12.99028	1	99.3703	-7.511541	3.106308E-006	0.0003854	9
	6	23	75421.88	99.9827	-15.08364	1	101.1141	-8.579091	2.052314E-005	-0.0007497	9
	7	26	59859.37	101.5896	-17.53283	1	103.0914	-9.79193	1.494488E-005	-0.0005925	9
	8	28	47578.12	103.3875	-20.21841	1	105.3459	-11.06508	-1.269826E-005	0.0007777	9
	9	31	37828.12	105.3278	-23.25828	1	107.8651	-12.45212	2.35966E-005	-0.0005056	9
	10	33	30046.88	107.2717	-26.69234	1	110.5427	-13.97309	1.82643E-005	-0.0007141	9
	11	36	23859.38	109.2597	-30.82604	1	113.525	-15.75564	3.940854E-006	0.000486	9
	12	38	18984.38	111.156	-35.72814	1	116.7568	-17.81862	-9.837167E-006	5.170821E-005	9
	13	40	15046.87	112.9284	-41.93139	1	120.4619	-20.37044	2.015414E-005	-0.0001943	9
	14	43	11953.13	114.6498	-49.93921	1	125.054	-23.53699	1.156961E-005	0.0001212	9
	15	45	9515.62	116.1922	-60.06782	1	130.8005	-27.33759	-2.029499E-005	0.0006451	9
	16	47	7546.875	117.7157	-73.00552	1	138.5164	-31.80657	1.946826E-005	-0.0007135	9
	17	50	5928.309	119.7272	-90.06078	1	149.8184	-36.95109	-2.07905E-005	0.0006708	9
	18	52	4733.456	121.781	-110.3197	1	164.32	-42.17298	2.413749E-005	-0.0005738	9
	19	54	3796.875	123.9673	-135.33	1	183.5268	-47.50915	-1.482403E-005	0.0001956	9
	20	57	2987.132	127.1675	-168.9107	1	211.4294	-53.02508	3.63908E-006	0.0004666	9
	21	59	2390.625	130.9477	-208.1792	1	245.9387	-57.82952	5.145206E-006	-0.0004589	9
	22	61	1884.191	136.929	-261.1697	1	294.8884	-62.33237	2.382207E-005	-0.0005757	9
	23	64	1516.544	142.4667	-319.1033	1	349.462	-65.94117	-1.679239E-005	0.0008502	9
	24	66	1193.986	151.6568	-400.1443	1	427.9196	-69.24303	-1.749291E-005	0.0008676	9
	25	68	946.5144	161.6458	-495.7256	1	521.4147	-71.93993	-4.69098E-006	0.0013019	8
	26	71	751.7689	176.7114	-614.8261	1	639.7172	-73.96445	2.902918E-006	-0.001229	8
	27	73	597.4265	198.1505	-762.5875	1	787.9107	-75.43439	9.845007E-007	-0.0007705	8
	28	75	477.4305	221.7212	-941.1527	1	966.917	-76.74371	1.970996E-007	0.0006524	8
	29	78	376.6741	256.9717	-1173.676	1	1201.478	-77.65019	2.060493E-007	0.0006476	8
	30	80	298.2954	303.381	-1457.178	1	1488.425	-78.23917	1.905728E-007	0.0006563	8
	31	82	237.7717	363.5701	-1795.875	1	1832.307	-78.55531	1.905981E-007	0.000654	8
	32	85	189.0121	444.8244	-2216.323	1	2260.521	-78.6513	2.028648E-007	0.0006569	8
	33	87	150.2404	553.5375	-2731.563	1	2787.085	-78.54443	1.578361E-007	0.000708	8
	34	90	119.1737	701.1464	-3368.827	1	3441.017	-78.243	2.16299E-007	0.0006474	8
	35	92	95.0169	894.4189	-4124.265	1	4220.136	-77.76389	2.156253E-007	0.000651	8
	36	94	75.60484	1158.603	-5058.659	1	5189.643	-77.09983	-1.186506E-008	0.0006274	7
	37	97	54.50582	1695.197	-6719.754	1	6930.281	-75.84138	-1.231708E-008	0.0006214	7
	38	100	45.95588	2076.432	-7776.386	1	8048.835	-75.04981	-8.024315E-009	0.0006333	7
	39	102	37.20238	2681.481	-9284.697	1	9664.16	-73.89094	-1.341174E-008	0.0006342	7
	40	104	30.04808	3472.141	-11044.78	1	11577.69	-72.54845	-9.617531E-009	0.000622	7
	41	107	23.91582	4610.305	-13265.02	1	14043.35	-70.83493	-1.014768E-008	0.0006267	7
	42	109	18.60119	6223.395	-16029.33	1	17195.06	-68.78128	-9.814826E-009	0.0006275	7
	43	111	15.02404	8024.796	-18709.3	1	20357.69	-66.78454	-1.351158E-008	0.0006339	7
	44	114	12.01923	10427.65	-21769.83	1	24138.38	-64.4058	-2.142465E-008	0.0006226	7
	45	116	9.450605	13656.57	-25282.72	1	28735.31	-61.62411	-2.3035E-008	0.0006316	7
	46	119	7.512019	17396.66	-28795.46	1	33642.56	-58.86189	-1.724416E-008	0.0006188	7
	47	121	5.978954	21888.1	-32253.52	1	38979.2	-55.83814	-1.801932E-008	0.0006482	7
	48	124	4.734848	27250.39	-35663.65	1	44882.95	-52.61676	-2.991451E-008	0.000677	6
	49	128	3.75601	33098.73	-38783.52	1	50987.13	-49.52181	-3.538976E-008	0.0007159	6
	50	131	3.004808	39271.74	-41233.08	1	56942.39	-46.39562	-2.989519E-008	0.0006619	6
	51	135	2.372217	46231.75	-43366.1	1	63387.64	-43.16811	-3.112347E-008	0.000654	6
	52	139	1.878005	53383.96	-44431.53	1	69455.08	-39.77065	-2.986736E-008	0.0006884	6
	53	144	1.512097	59935.11	-45105.85	1	75011.7	-36.96431	-2.598484E-008	0.0005601	6
	54	149	1.201923	66957.41	-45305.89	1	80845.02	-34.08376	-2.935821E-008	0.0006877	6
	55	155	0.956633	73613.75	-44499.17	1	86018.37	-31.15277	-3.496103E-008	3.134891E-005	6
