EXPLAIN
TAG	EISPOT
TITLE	LABEL	Potentiostatic EIS	Test Identifier
DATE	LABEL	8/24/2020	Date
TIME	LABEL	15:54:17	Time
NOTES	NOTES	1	Notes...
	
PSTAT	PSTAT	REF3000-16137	Potentiostat
VDC	POTEN	0.00000E+000	T	DC Voltage (V)
FREQINIT	QUANT	3.00000E+005	Initial Freq. (Hz)
FREQFINAL	QUANT	1.00000E+000	Final Freq. (Hz)
PTSPERDEC	QUANT	1.00000E+001	Points/decade
VAC	QUANT	5.00000E+001	AC Voltage (mV rms)
AREA	QUANT	1.00000E+000	Sample Area (cm^2)
SPEED	SELECTOR	2	Optimize for:
ZGUESS	QUANT	1.00000E+003	Estimated Z (ohms)
EOC	QUANT	0	Open Circuit (V)
SEQUENCER	TOGGLE	TRUE	Run as Sequence
PSTATMODEL	IQUANT	5	Pstat Model
PSTATSECTION	LABEL	REF3000-16137	Pstat Section
PSTATSERIALNO	LABEL	16137	Pstat Serial Number
CTRLMODE	IQUANT	1	Control Mode
IESTAB	IQUANT	0	I/E Stability
CASPEED	IQUANT	1	Control Amp Speed
CONVENTION	IQUANT	1	Current Convention
ICHRANGE	IQUANT	2	Ich Range
ICHRANGEMODE	TOGGLE	F	Ich Auto Range
ICHOFFSETENABLE	TOGGLE	T	Ich Offset Enable
ICHOFFSET	QUANT	0	Ich Offset (V)
ICHFILTER	IQUANT	3	Ich Filter
VCHRANGE	IQUANT	2	Vch Range
VCHRANGEMODE	TOGGLE	F	Vch Auto Range
VCHOFFSETENABLE	TOGGLE	T	Vch Offset Enable
VCHOFFSET	QUANT	0	Vch Offset (V)
VCHFILTER	IQUANT	3	Vch Filter
ACHRANGE	IQUANT	2	Ach Range
ACHOFFSETENABLE	TOGGLE	F	Ach Offset Enable
ACHOFFSET	QUANT	0	Ach Offset (V)
ACHFILTER	IQUANT	3	Ach Filter
IERANGELOWERLIMIT	IQUANT	2	I/E Range Lower Limit
IERANGEMODE	TOGGLE	F	I/E AutoRange
IERANGE	IQUANT	11	I/E Range
POSFEEDENABLE	TOGGLE	F	Positive Feedback IR Comp
POSFEEDRESISTANCE	QUANT	0	Positive Feedback Resistance (ohm)
ACHSELECT	IQUANT	0	Ach Select
CABLEID	IQUANT	13	Cable ID
DCCALDATE	LABEL	7/31/2020	DC Calibration Date
ACCALDATE	LABEL	7/31/2020	AC Calibration Date
THERMOSELECT	IQUANT	1	Thermo Select
FRAMEWORKVERSION	QUANT	6.33	Framework Version
INSTRUMENTVERSION	LABEL	3.50	Instrument Version
COMPLIANCEVOLTAGE	IQUANT	0	Compliance Voltage
ZCURVE	TABLE
	Pt	Time	Freq	Zreal	Zimag	Zsig	Zmod	Zphz	Idc	Vdc	IERange
	#	s	Hz	ohm	ohm	V	ohm	°	A	V	#
	0	30	300046.9	1864.973	-900.5938	1	2071.037	-25.77586	-3.476564E-005	-0.0012314	9
	1	58	238359.4	1999.548	-810.3543	1	2157.514	-22.06117	-2.016252E-005	0.0014272	9
	2	71	189328.1	2149.702	-705.5389	1	2262.522	-18.17	1.917561E-005	-0.0020536	9
	3	84	150421.9	2285.201	-614.5984	1	2366.406	-15.05334	-1.840295E-007	-0.0018758	9
	4	90	119484.4	2357.695	-540.6653	1	2418.894	-12.91572	-6.104288E-005	0.0006846	9
	5	98	94921.88	2406.743	-392.4217	1	2438.525	-9.260638	8.135908E-006	0.0035167	8
	6	102	75421.88	2454.123	-345.8024	1	2478.366	-8.020555	-1.521441E-005	0.0010395	8
	7	107	59859.37	2494.37	-310.7324	1	2513.65	-7.100953	-1.211338E-006	0.0067397	8
	8	112	47578.12	2523.357	-284.9032	1	2539.39	-6.441781	2.309978E-005	-0.008066	8
	9	116	37828.12	2559.763	-254.1778	1	2572.352	-5.670733	2.43465E-005	-0.0067926	8
	10	121	30046.88	2591.533	-248.8178	1	2603.45	-5.484262	-1.002589E-006	0.0067671	8
	11	127	23859.38	2630.448	-233.0312	1	2640.75	-5.062613	1.955162E-005	-0.0085608	8
	12	132	18984.38	2665.021	-230.4118	1	2674.963	-4.941379	-1.898321E-005	0.0029665	8
	13	137	15046.87	2706.319	-242.2265	1	2717.138	-5.114575	-1.018248E-005	0.0092401	8
	14	142	11953.13	2744.483	-262.1895	1	2756.978	-5.457094	-1.849875E-006	-0.0043172	8
	15	147	9515.62	2799.109	-283.9571	1	2813.476	-5.792583	-1.133941E-006	0.0008033	9
	16	153	7546.875	2835.362	-298.1879	1	2850.999	-6.003584	-8.738661E-007	0.0068445	8
	17	158	5928.309	2890.258	-332.9971	1	2909.378	-6.572276	-1.873301E-006	-0.0042952	8
	18	164	4733.456	2954.273	-381.1726	1	2978.762	-7.351924	-9.356565E-006	-0.0015706	8
	19	169	3796.875	3004.383	-415.3081	1	3032.952	-7.870351	-9.470689E-006	-0.0015125	8
	20	174	2987.132	3066.305	-466.5892	1	3101.601	-8.652132	-1.721029E-005	0.0101888	8
	21	180	2390.625	3151.952	-526.2491	1	3195.581	-9.47866	-1.951729E-005	0.0030794	8
	22	185	1884.191	3237.136	-625.1398	1	3296.946	-10.93013	2.921908E-005	-0.0008573	9
	23	190	1516.544	3326.995	-691.0381	1	3398.003	-11.73386	-2.527341E-005	0.0010833	9
	24	196	1193.986	3396.324	-805.7422	1	3490.593	-13.34609	6.715161E-006	-0.006774	8
	25	201	946.5144	3446.429	-919.7667	1	3567.05	-14.94258	2.33904E-005	-0.0080587	8
	26	205	751.7689	3616.866	-1023.167	1	3758.802	-15.79556	-9.020085E-006	-0.0015808	8
	27	209	597.4265	3672.561	-1207.053	1	3865.835	-18.19403	-1.82456E-005	0.0027526	8
	28	213	477.4305	3744.442	-1413.651	1	4002.406	-20.68318	-3.335348E-007	0.0006344	8
	29	216	376.6741	3828.708	-1677.855	1	4180.215	-23.66448	-7.547433E-008	0.0006327	7
	30	218	298.2954	3896.266	-2014.029	1	4386.023	-27.33501	-7.33154E-008	0.0005957	7
	31	221	237.7717	3958.791	-2429.717	1	4644.948	-31.53962	-7.124125E-008	0.0005781	7
	32	223	189.0121	4024.5	-2964.637	1	4998.567	-36.37712	-7.517672E-008	0.0006366	7
	33	225	150.2404	4099.122	-3643.53	1	5484.352	-41.63249	-8.139265E-008	0.0006513	7
	34	228	119.1737	4182.97	-4506.384	1	6148.555	-47.13154	-7.505674E-008	0.0006038	7
	35	230	95.0169	4285.63	-5563.769	1	7022.973	-52.39385	-7.739957E-008	0.0006615	7
	36	233	75.60484	4414.296	-6899.897	1	8191.129	-57.39041	-7.759955E-008	0.0006645	7
	37	235	54.50582	4652.709	-9405.242	1	10493.15	-63.67871	-7.086795E-008	0.0005812	7
	38	238	45.95588	4824.149	-11057.48	1	12064	-66.42935	-7.364144E-008	0.0005817	7
	39	240	37.20238	5081.662	-13515.8	1	14439.53	-69.39477	-7.925298E-008	0.0006586	7
	40	243	30.04808	5424.802	-16556.79	1	17422.86	-71.85871	-7.834344E-008	0.000634	7
	41	245	23.91582	5893.541	-20562.24	1	21390.18	-74.00666	-7.281094E-008	0.0005725	7
	42	248	18.60119	6593.324	-26076.9	1	26897.52	-75.81062	-7.284064E-008	0.0005845	7
	43	250	15.02404	7408.437	-31921.46	1	32769.88	-76.93392	-7.800046E-008	0.0006561	7
	44	252	12.01923	8521.323	-39343	1	40255.24	-77.77904	-7.851856E-008	0.0006612	7
	45	255	9.450605	10205.2	-49335.86	1	50380.29	-78.31311	-8.357484E-009	0.0007099	6
	46	257	7.512019	12337.54	-61001.7	1	62236.82	-78.56621	-7.676954E-009	0.0006959	6
	47	260	5.978954	15256.12	-75264.26	1	76794.91	-78.54136	-8.122883E-009	0.0007041	6
	48	263	4.734848	19335.79	-93115.8	1	95102.2	-78.26907	-7.886797E-009	0.0006506	6
	49	266	3.75601	24680.57	-114628.2	1	117255.1	-77.84916	-7.651907E-009	0.0006436	6
	50	270	3.004808	31550.88	-139515	1	143038.1	-77.25709	-9.166443E-009	0.0007389	6
	51	275	2.372217	41389.43	-171185.4	1	176117.9	-76.4078	-8.384875E-009	0.0006287	6
	52	279	1.878005	53972.17	-209404.7	1	216248.3	-75.54709	-7.861902E-009	0.0006562	6
	53	284	1.512097	68440.83	-250379	1	259564.6	-74.71173	-8.427627E-009	0.0006709	6
	54	289	1.201923	88664.65	-302915.9	1	315625.5	-73.68504	-8.296091E-009	0.0006893	6
	55	295	0.956633	113343	-364003.5	1	381241.6	-72.70451	-9.027626E-009	2.161215E-005	6
