EXPLAIN
TAG	EISPOT
TITLE	LABEL	Potentiostatic EIS	Test Identifier
DATE	LABEL	8/24/2020	Date
TIME	LABEL	15:20:59	Time
NOTES	NOTES	1	Notes...
	
PSTAT	PSTAT	REF3000-16137	Potentiostat
VDC	POTEN	0.00000E+000	T	DC Voltage (V)
FREQINIT	QUANT	3.00000E+005	Initial Freq. (Hz)
FREQFINAL	QUANT	1.00000E+000	Final Freq. (Hz)
PTSPERDEC	QUANT	1.00000E+001	Points/decade
VAC	QUANT	5.00000E+001	AC Voltage (mV rms)
AREA	QUANT	1.00000E+000	Sample Area (cm^2)
SPEED	SELECTOR	2	Optimize for:
ZGUESS	QUANT	1.00000E+003	Estimated Z (ohms)
EOC	QUANT	0	Open Circuit (V)
SEQUENCER	TOGGLE	TRUE	Run as Sequence
PSTATMODEL	IQUANT	5	Pstat Model
PSTATSECTION	LABEL	REF3000-16137	Pstat Section
PSTATSERIALNO	LABEL	16137	Pstat Serial Number
CTRLMODE	IQUANT	1	Control Mode
IESTAB	IQUANT	0	I/E Stability
CASPEED	IQUANT	1	Control Amp Speed
CONVENTION	IQUANT	1	Current Convention
ICHRANGE	IQUANT	2	Ich Range
ICHRANGEMODE	TOGGLE	F	Ich Auto Range
ICHOFFSETENABLE	TOGGLE	T	Ich Offset Enable
ICHOFFSET	QUANT	0	Ich Offset (V)
ICHFILTER	IQUANT	3	Ich Filter
VCHRANGE	IQUANT	2	Vch Range
VCHRANGEMODE	TOGGLE	F	Vch Auto Range
VCHOFFSETENABLE	TOGGLE	T	Vch Offset Enable
VCHOFFSET	QUANT	0	Vch Offset (V)
VCHFILTER	IQUANT	3	Vch Filter
ACHRANGE	IQUANT	2	Ach Range
ACHOFFSETENABLE	TOGGLE	F	Ach Offset Enable
ACHOFFSET	QUANT	0	Ach Offset (V)
ACHFILTER	IQUANT	3	Ach Filter
IERANGELOWERLIMIT	IQUANT	2	I/E Range Lower Limit
IERANGEMODE	TOGGLE	F	I/E AutoRange
IERANGE	IQUANT	11	I/E Range
POSFEEDENABLE	TOGGLE	F	Positive Feedback IR Comp
POSFEEDRESISTANCE	QUANT	0	Positive Feedback Resistance (ohm)
ACHSELECT	IQUANT	0	Ach Select
CABLEID	IQUANT	13	Cable ID
DCCALDATE	LABEL	7/31/2020	DC Calibration Date
ACCALDATE	LABEL	7/31/2020	AC Calibration Date
THERMOSELECT	IQUANT	1	Thermo Select
FRAMEWORKVERSION	QUANT	6.33	Framework Version
INSTRUMENTVERSION	LABEL	3.50	Instrument Version
COMPLIANCEVOLTAGE	IQUANT	0	Compliance Voltage
ZCURVE	TABLE
	Pt	Time	Freq	Zreal	Zimag	Zsig	Zmod	Zphz	Idc	Vdc	IERange
	#	s	Hz	ohm	ohm	V	ohm	°	A	V	#
	0	7	300046.9	136.9554	-8.11246	1	137.1954	-3.389916	-5.379692E-005	0.000655	9
	1	10	238359.4	138.3565	-9.447001	1	138.6787	-3.906101	-5.623134E-006	-0.0013867	9
	2	13	189328.1	138.9913	-11.23336	1	139.4445	-4.620638	-1.457614E-005	0.0011781	9
	3	16	150421.9	140.539	-13.32697	1	141.1695	-5.417019	1.170434E-005	0.0009527	9
	4	18	119484.4	142.0047	-14.92936	1	142.7873	-6.001622	-5.481836E-005	0.0009148	9
	5	21	94921.88	143.6433	-16.9252	1	144.637	-6.720063	2.432166E-005	-0.0006107	9
	6	23	75421.88	145.6187	-19.60981	1	146.9331	-7.669626	1.16082E-005	0.0002378	9
	7	26	59859.37	147.8275	-22.41216	1	149.5168	-8.620973	-1.015773E-005	-1.042786E-005	9
	8	28	47578.12	150.3409	-25.75841	1	152.5316	-9.72228	1.359522E-005	-0.0007231	9
	9	31	37828.12	152.9006	-29.26049	1	155.6752	-10.83367	-6.601887E-006	0.0008665	9
	10	33	30046.88	155.8993	-33.67008	1	159.4938	-12.18717	-2.156387E-005	0.00088	9
	11	36	23859.38	158.9642	-38.70922	1	163.6093	-13.68569	-1.475341E-005	0.0008812	9
	12	38	18984.38	161.8787	-44.28251	1	167.8263	-15.29917	-1.885941E-005	0.0003924	9
	13	41	15046.87	164.6567	-51.38862	1	172.4895	-17.33291	2.02225E-005	-0.0001515	9
	14	43	11953.13	167.6109	-59.8807	1	177.9862	-19.65979	2.570143E-005	-0.0004881	9
	15	45	9515.62	169.8813	-71.09184	1	184.1568	-22.70831	5.524551E-006	-0.0005836	9
	16	48	7546.875	172.135	-85.10162	1	192.0228	-26.30728	-2.090564E-005	0.0005511	9
	17	50	5928.309	174.2718	-104.1645	1	203.0293	-30.86731	1.350297E-005	-0.0006826	9
	18	52	4733.456	176.3941	-127.2013	1	217.4743	-35.79611	2.029343E-005	-0.0001062	9
	19	55	3796.875	178.9982	-155.1551	1	236.8828	-40.91865	-1.728578E-005	0.0008978	9
	20	57	2987.132	182.3037	-193.0863	1	265.5503	-46.64529	-2.115219E-005	0.0008107	9
	21	59	2390.625	186.0733	-237.8426	1	301.9808	-51.96257	-1.539876E-005	0.0001966	9
	22	61	1884.191	189.817	-298.8168	1	354.0085	-57.57512	2.427164E-005	-0.0002716	9
	23	64	1516.544	195.8642	-366.4669	1	415.5247	-61.877	2.565743E-005	-0.000602	9
	24	66	1193.986	202.8546	-458.8249	1	501.6675	-66.14893	-7.472918E-006	0.0030674	8
	25	69	946.5144	213.2085	-573.0177	1	611.3977	-69.59077	4.111069E-006	0.001111	8
	26	71	751.7689	225.6767	-713.9476	1	748.7665	-72.45841	-7.351432E-006	0.0025608	8
	27	73	597.4265	243.3576	-888.1448	1	920.8822	-74.67667	8.50881E-006	-0.0015952	8
	28	76	477.4305	265.1588	-1097.844	1	1129.411	-76.42158	1.24667E-007	0.0006537	8
	29	78	376.6741	295.9785	-1374.514	1	1406.02	-77.84788	1.264289E-007	0.0006476	8
	30	80	298.2954	336.2721	-1713.718	1	1746.399	-78.89826	1.291368E-007	0.0006481	8
	31	83	237.7717	388.3615	-2122.153	1	2157.396	-79.62943	1.112846E-007	0.0006569	8
	32	85	189.0121	458.5633	-2632.828	1	2672.464	-80.11983	1.257032E-007	0.0006563	8
	33	87	150.2404	552.541	-3264.732	1	3311.16	-80.39398	1.405382E-007	0.0006525	8
	34	90	119.1737	679.722	-4051.787	1	4108.406	-80.47681	1.18555E-007	0.0006556	8
	35	92	95.0169	850.5984	-5006.161	1	5077.909	-80.35695	1.471873E-011	0.000633	7
	36	95	75.60484	1078.909	-6177.193	1	6270.707	-80.09266	-1.238141E-009	0.0006273	7
	37	97	54.50582	1548.786	-8320.03	1	8462.957	-79.45501	1.20008E-009	0.0006111	7
	38	100	45.95588	1889.341	-9703.9	1	9886.12	-78.98241	3.229289E-009	0.0006277	7
	39	102	37.20238	2425.774	-11716.56	1	11965.04	-78.30286	2.961057E-009	0.0006189	7
	40	105	30.04808	3138.002	-14126.36	1	14470.7	-77.47579	1.299294E-011	0.0006206	7
	41	107	23.91582	4152.215	-17216.09	1	17709.73	-76.44024	2.962197E-009	0.000624	7
	42	109	18.60119	5649.942	-21302.77	1	22039.28	-75.14594	9.628978E-010	0.0006245	7
	43	112	15.02404	7333.572	-25381.68	1	26419.9	-73.88432	5.822459E-009	0.0006225	7
	44	114	12.01923	9607.65	-30363.64	1	31847.42	-72.44161	-2.894679E-009	0.0006292	7
	45	116	9.450605	12751.92	-36547.06	1	38707.87	-70.76521	5.532664E-009	0.000638	7
	46	119	7.512019	16592.08	-43402.18	1	46465.54	-69.0788	-4.496947E-009	0.0006847	6
	47	122	5.978954	21360.63	-51090.93	1	55376.52	-67.31066	-4.357475E-009	0.0006753	6
	48	125	4.734848	27392.73	-59905.45	1	65871.27	-65.42699	-3.811505E-009	0.0007033	6
	49	128	3.75601	34665.73	-69699.5	1	77844.29	-63.5561	-9.116677E-009	0.0006577	6
	50	131	3.004808	43084.26	-80052.99	1	90910.59	-61.71101	-7.938533E-009	0.0006794	6
	51	135	2.372217	53771.75	-91936.59	1	106507	-59.67755	-7.674893E-009	0.000728	6
	52	139	1.878005	66012.46	-104934.5	1	123971.3	-57.82671	-8.954016E-009	0.0006454	6
	53	144	1.512097	78877.59	-117786.1	1	141757.7	-56.19104	-8.373719E-009	0.0006564	6
	54	149	1.201923	94948.97	-132635.5	1	163118	-54.4025	-7.842331E-009	0.0006394	6
	55	156	0.956633	113104.8	-148466.2	1	186641.1	-52.69907	-9.665262E-009	2.54824E-005	6
