EXPLAIN
TAG	EISPOT
TITLE	LABEL	Potentiostatic EIS	Test Identifier
DATE	LABEL	8/24/2020	Date
TIME	LABEL	15:45:38	Time
NOTES	NOTES	1	Notes...
	
PSTAT	PSTAT	REF3000-16137	Potentiostat
VDC	POTEN	0.00000E+000	T	DC Voltage (V)
FREQINIT	QUANT	3.00000E+005	Initial Freq. (Hz)
FREQFINAL	QUANT	1.00000E+000	Final Freq. (Hz)
PTSPERDEC	QUANT	1.00000E+001	Points/decade
VAC	QUANT	5.00000E+001	AC Voltage (mV rms)
AREA	QUANT	1.00000E+000	Sample Area (cm^2)
SPEED	SELECTOR	2	Optimize for:
ZGUESS	QUANT	1.00000E+003	Estimated Z (ohms)
EOC	QUANT	0	Open Circuit (V)
SEQUENCER	TOGGLE	TRUE	Run as Sequence
PSTATMODEL	IQUANT	5	Pstat Model
PSTATSECTION	LABEL	REF3000-16137	Pstat Section
PSTATSERIALNO	LABEL	16137	Pstat Serial Number
CTRLMODE	IQUANT	1	Control Mode
IESTAB	IQUANT	0	I/E Stability
CASPEED	IQUANT	1	Control Amp Speed
CONVENTION	IQUANT	1	Current Convention
ICHRANGE	IQUANT	2	Ich Range
ICHRANGEMODE	TOGGLE	F	Ich Auto Range
ICHOFFSETENABLE	TOGGLE	T	Ich Offset Enable
ICHOFFSET	QUANT	0	Ich Offset (V)
ICHFILTER	IQUANT	3	Ich Filter
VCHRANGE	IQUANT	2	Vch Range
VCHRANGEMODE	TOGGLE	F	Vch Auto Range
VCHOFFSETENABLE	TOGGLE	T	Vch Offset Enable
VCHOFFSET	QUANT	0	Vch Offset (V)
VCHFILTER	IQUANT	3	Vch Filter
ACHRANGE	IQUANT	2	Ach Range
ACHOFFSETENABLE	TOGGLE	F	Ach Offset Enable
ACHOFFSET	QUANT	0	Ach Offset (V)
ACHFILTER	IQUANT	3	Ach Filter
IERANGELOWERLIMIT	IQUANT	2	I/E Range Lower Limit
IERANGEMODE	TOGGLE	F	I/E AutoRange
IERANGE	IQUANT	11	I/E Range
POSFEEDENABLE	TOGGLE	F	Positive Feedback IR Comp
POSFEEDRESISTANCE	QUANT	0	Positive Feedback Resistance (ohm)
ACHSELECT	IQUANT	0	Ach Select
CABLEID	IQUANT	13	Cable ID
DCCALDATE	LABEL	7/31/2020	DC Calibration Date
ACCALDATE	LABEL	7/31/2020	AC Calibration Date
THERMOSELECT	IQUANT	1	Thermo Select
FRAMEWORKVERSION	QUANT	6.33	Framework Version
INSTRUMENTVERSION	LABEL	3.50	Instrument Version
COMPLIANCEVOLTAGE	IQUANT	0	Compliance Voltage
ZCURVE	TABLE
	Pt	Time	Freq	Zreal	Zimag	Zsig	Zmod	Zphz	Idc	Vdc	IERange
	#	s	Hz	ohm	ohm	V	ohm	°	A	V	#
	0	33	300046.9	1092.91	-262.3848	1	1123.965	-13.50001	-9.07792E-005	0.0040088	9
	1	49	238359.4	1130.934	-240.993	1	1156.326	-12.02935	8.60322E-005	-0.0025936	9
	2	67	189328.1	1156.542	-202.8589	1	1174.198	-9.94855	8.645984E-005	-0.0026001	9
	3	73	150421.9	1180.168	-180.054	1	1193.824	-8.674521	-9.12785E-005	0.0022664	9
	4	82	119484.4	1210.839	-124.1111	1	1217.183	-5.85238	-3.029121E-006	0.0129037	8
	5	89	94921.88	1223.409	-104.8458	1	1227.894	-4.898261	1.441678E-005	-0.0001513	8
	6	92	75421.88	1233.4	-103.2318	1	1237.712	-4.784332	1.950836E-005	-0.0027565	8
	7	95	59859.37	1248.136	-96.2612	1	1251.843	-4.410148	-2.087447E-005	0.0079481	8
	8	99	47578.12	1259.388	-97.3649	1	1263.146	-4.420813	1.896971E-005	-0.0026603	8
	9	103	37828.12	1270.639	-101.0872	1	1274.654	-4.548654	-9.098432E-006	-0.001085	8
	10	106	30046.88	1287.295	-107.9937	1	1291.817	-4.795426	-2.186958E-005	0.0069655	8
	11	109	23859.38	1300.099	-112.1958	1	1304.931	-4.932287	-2.02289E-005	0.0066112	8
	12	113	18984.38	1316.025	-123.8665	1	1321.842	-5.376934	-1.458404E-005	0.0090098	8
	13	115	15046.87	1328.284	-140.0647	1	1335.649	-6.01947	-8.160693E-006	0.0079038	8
	14	118	11953.13	1348.935	-155.6177	1	1357.882	-6.580746	7.573798E-006	0.0032379	8
	15	122	9515.62	1374.842	-173.7195	1	1385.774	-7.201499	7.391324E-006	0.0029747	8
	16	126	7546.875	1397.924	-198.6707	1	1411.971	-8.088616	1.564572E-005	-0.0003944	8
	17	129	5928.309	1426.833	-226.6027	1	1444.715	-9.024073	-2.083765E-005	0.0079724	8
	18	134	4733.456	1458.682	-257.6998	1	1481.27	-10.01885	-1.746675E-005	0.0030155	8
	19	138	3796.875	1487.647	-289.653	1	1515.583	-11.01795	-5.85487E-007	0.0057984	8
	20	141	2987.132	1523.153	-335.9173	1	1559.755	-12.43697	2.198229E-005	-0.0061318	8
	21	146	2390.625	1549.355	-382.0702	1	1595.769	-13.85272	-7.949771E-006	0.0076658	8
	22	150	1884.191	1605.151	-434.1703	1	1662.833	-15.13551	-1.75096E-005	0.0030181	8
	23	154	1516.544	1645.382	-496.4228	1	1718.638	-16.78892	-5.068769E-007	0.0059995	8
	24	159	1193.986	1678.578	-580.155	1	1776.008	-19.06632	-2.125865E-005	0.0066183	8
	25	163	946.5144	1696.573	-669.4246	1	1823.867	-21.53293	2.10986E-005	-0.0073184	8
	26	166	751.7689	1758.817	-808.8581	1	1935.895	-24.69711	-9.406896E-006	-0.0008541	8
	27	168	597.4265	1783.565	-965.185	1	2027.976	-28.42024	1.552739E-005	-0.0001819	8
	28	171	477.4305	1805.388	-1169.533	1	2151.101	-32.93524	-2.839731E-007	0.0006376	8
	29	173	376.6741	1836.56	-1439.762	1	2333.639	-38.09449	-2.659711E-007	0.000626	8
	30	176	298.2954	1871.027	-1777.731	1	2580.905	-43.53531	-2.752065E-007	0.0006255	8
	31	178	237.7717	1911.956	-2191.918	1	2908.621	-48.90262	-2.666484E-007	0.0006225	8
	32	180	189.0121	1961.746	-2716.357	1	3350.678	-54.16329	-2.610181E-007	0.0006235	8
	33	183	150.2404	2024.901	-3371.625	1	3932.948	-59.01218	-2.982507E-007	0.0006388	8
	34	185	119.1737	2112.856	-4206.165	1	4707.014	-63.32854	-5.689175E-008	0.0005854	7
	35	188	95.0169	2215.101	-5214.123	1	5665.135	-66.98289	-6.149499E-008	0.0006517	7
	36	190	75.60484	2350.196	-6475.806	1	6889.084	-70.05318	-6.49468E-008	0.0006316	7
	37	193	54.50582	2617.753	-8829.474	1	9209.355	-73.48602	-5.813612E-008	0.0006217	7
	38	195	45.95588	2811.511	-10375.97	1	10750.13	-74.83897	-5.73971E-008	0.0006025	7
	39	197	37.20238	3111.156	-12666.12	1	13042.62	-76.19975	-6.575443E-008	0.0006522	7
	40	200	30.04808	3511.708	-15486.22	1	15879.39	-77.22348	-6.455191E-008	0.0006472	7
	41	202	23.91582	4083.018	-19182.01	1	19611.74	-77.98355	-6.33059E-008	0.0006495	7
	42	205	18.60119	4942.81	-24237.23	1	24736.1	-78.47346	-6.366061E-008	0.00059	7
	43	207	15.02404	5941.729	-29537.66	1	30129.35	-78.6263	-6.611995E-008	0.0006451	7
	44	209	12.01923	7342.8	-36260.11	1	36996.11	-78.55221	-6.04369E-008	0.0005795	7
	45	212	9.450605	9421.387	-45071.21	1	46045.37	-78.19328	-5.200639E-009	0.0006189	6
	46	214	7.512019	12085.46	-55357.81	1	56661.68	-77.68468	-5.562441E-009	0.0006434	6
	47	217	5.978954	15615.02	-67624.65	1	69404.05	-76.99788	-6.871497E-009	0.0007013	6
	48	220	4.734848	20358.38	-82728.29	1	85196.44	-76.17494	-8.185195E-009	0.0006178	6
	49	223	3.75601	26609.42	-100559.1	1	104020.1	-75.1784	-6.296505E-009	0.0007101	6
	50	227	3.004808	34319.61	-120837.8	1	125616.9	-74.14471	-6.59514E-009	0.0006378	6
	51	231	2.372217	44769.62	-145945.8	1	152658.1	-72.94633	-6.981447E-009	0.0006439	6
	52	235	1.878005	57862.25	-175711.9	1	184993.8	-71.77319	-6.497261E-009	0.0006518	6
	53	239	1.512097	72208.59	-207172.6	1	219395.9	-70.78435	-7.2075E-009	0.0007065	6
	54	245	1.201923	91595.3	-246517	1	262983.5	-69.61706	-7.011951E-009	0.0006881	6
	55	251	0.956633	114551.3	-291691.5	1	313378.3	-68.55938	-8.226946E-009	2.260334E-005	6
