EXPLAIN
TAG	EISPOT
TITLE	LABEL	Potentiostatic EIS	Test Identifier
DATE	LABEL	8/24/2020	Date
TIME	LABEL	14:50:42	Time
NOTES	NOTES	1	Notes...
	
PSTAT	PSTAT	REF3000-16137	Potentiostat
VDC	POTEN	0.00000E+000	T	DC Voltage (V)
FREQINIT	QUANT	3.00000E+005	Initial Freq. (Hz)
FREQFINAL	QUANT	1.00000E+000	Final Freq. (Hz)
PTSPERDEC	QUANT	1.00000E+001	Points/decade
VAC	QUANT	5.00000E+001	AC Voltage (mV rms)
AREA	QUANT	1.00000E+000	Sample Area (cm^2)
SPEED	SELECTOR	2	Optimize for:
ZGUESS	QUANT	1.00000E+003	Estimated Z (ohms)
EOC	QUANT	0	Open Circuit (V)
SEQUENCER	TOGGLE	TRUE	Run as Sequence
PSTATMODEL	IQUANT	5	Pstat Model
PSTATSECTION	LABEL	REF3000-16137	Pstat Section
PSTATSERIALNO	LABEL	16137	Pstat Serial Number
CTRLMODE	IQUANT	1	Control Mode
IESTAB	IQUANT	0	I/E Stability
CASPEED	IQUANT	1	Control Amp Speed
CONVENTION	IQUANT	1	Current Convention
ICHRANGE	IQUANT	2	Ich Range
ICHRANGEMODE	TOGGLE	F	Ich Auto Range
ICHOFFSETENABLE	TOGGLE	T	Ich Offset Enable
ICHOFFSET	QUANT	0	Ich Offset (V)
ICHFILTER	IQUANT	3	Ich Filter
VCHRANGE	IQUANT	2	Vch Range
VCHRANGEMODE	TOGGLE	F	Vch Auto Range
VCHOFFSETENABLE	TOGGLE	T	Vch Offset Enable
VCHOFFSET	QUANT	0	Vch Offset (V)
VCHFILTER	IQUANT	3	Vch Filter
ACHRANGE	IQUANT	2	Ach Range
ACHOFFSETENABLE	TOGGLE	F	Ach Offset Enable
ACHOFFSET	QUANT	0	Ach Offset (V)
ACHFILTER	IQUANT	3	Ach Filter
IERANGELOWERLIMIT	IQUANT	2	I/E Range Lower Limit
IERANGEMODE	TOGGLE	F	I/E AutoRange
IERANGE	IQUANT	11	I/E Range
POSFEEDENABLE	TOGGLE	F	Positive Feedback IR Comp
POSFEEDRESISTANCE	QUANT	0	Positive Feedback Resistance (ohm)
ACHSELECT	IQUANT	0	Ach Select
CABLEID	IQUANT	13	Cable ID
DCCALDATE	LABEL	7/31/2020	DC Calibration Date
ACCALDATE	LABEL	7/31/2020	AC Calibration Date
THERMOSELECT	IQUANT	1	Thermo Select
FRAMEWORKVERSION	QUANT	6.33	Framework Version
INSTRUMENTVERSION	LABEL	3.50	Instrument Version
COMPLIANCEVOLTAGE	IQUANT	0	Compliance Voltage
ZCURVE	TABLE
	Pt	Time	Freq	Zreal	Zimag	Zsig	Zmod	Zphz	Idc	Vdc	IERange
	#	s	Hz	ohm	ohm	V	ohm	°	A	V	#
	0	7	300046.9	88.77377	-4.994412	1	88.91415	-3.220066	-5.743921E-005	0.0006781	9
	1	10	238359.4	89.44311	-6.389141	1	89.67101	-4.085838	1.502266E-005	-0.0011071	9
	2	14	189328.1	90.17828	-7.702309	1	90.50662	-4.8819	-1.264629E-006	0.0008572	9
	3	16	150421.9	91.3215	-9.422071	1	91.80627	-5.890634	4.806556E-005	-0.0005413	9
	4	19	119484.4	92.34016	-10.90868	1	92.98228	-6.737456	1.256881E-005	-0.0007688	9
	5	21	94921.88	93.6791	-12.41039	1	94.49757	-7.546467	-1.893272E-005	0.0004916	9
	6	24	75421.88	95.0429	-14.47756	1	96.1393	-8.661088	2.263488E-005	-0.0007377	9
	7	26	59859.37	96.5584	-16.85844	1	98.019	-9.90363	5.201491E-006	-0.0004782	9
	8	29	47578.12	98.2884	-19.39605	1	100.1839	-11.16321	-9.655076E-006	1.829459E-005	9
	9	31	37828.12	100.0951	-22.32878	1	102.5554	-12.57539	2.385556E-005	-0.0006075	9
	10	34	30046.88	101.9929	-25.72908	1	105.1881	-14.15823	1.262202E-005	0.0001102	9
	11	36	23859.38	103.879	-29.69151	1	108.039	-15.95141	1.762372E-005	-0.0001463	9
	12	39	18984.38	105.5961	-34.52797	1	111.0978	-18.10678	6.124972E-006	0.0004746	9
	13	41	15046.87	107.2122	-40.5792	1	114.6348	-20.73136	9.244641E-006	-0.0006015	9
	14	43	11953.13	108.9144	-48.40236	1	119.1853	-23.96072	2.422491E-005	-0.0004354	9
	15	46	9515.62	110.4974	-58.21454	1	124.8944	-27.78208	-1.683238E-005	0.0008026	9
	16	48	7546.875	111.9655	-70.70965	1	132.424	-32.27367	-1.756013E-005	0.0008217	9
	17	50	5928.309	113.9232	-87.2054	1	143.4687	-37.43316	1.884691E-005	-0.0007055	9
	18	52	4733.456	116.0055	-106.8426	1	157.7105	-42.64548	1.184068E-005	0.0001598	9
	19	55	3796.875	118.4375	-131.1053	1	176.6807	-47.90606	-5.035293E-006	0.0006387	9
	20	57	2987.132	121.7184	-163.3867	1	203.7415	-53.31496	-1.972785E-005	0.0005093	9
	21	59	2390.625	125.3922	-201.4551	1	237.2917	-58.10052	-7.000758E-006	0.0007025	9
	22	62	1884.191	131.4476	-251.8537	1	284.0928	-62.43903	-1.925343E-005	0.0007808	9
	23	64	1516.544	137.7454	-308.5487	1	337.8995	-65.94258	1.818889E-005	-0.0006922	9
	24	66	1193.986	145.9076	-386.4502	1	413.0772	-69.31554	2.255147E-005	-0.0002708	9
	25	69	946.5144	158.2975	-477.0214	1	502.6007	-71.64179	6.25036E-006	-0.000723	8
	26	71	751.7689	172.8419	-592.6523	1	617.342	-73.74113	-4.994486E-006	0.002605	8
	27	73	597.4265	193.3507	-734.9128	1	759.9219	-75.2599	4.528848E-006	-0.0014226	8
	28	76	477.4305	218.9492	-904.4136	1	930.539	-76.39111	2.006144E-007	0.0006584	8
	29	78	376.6741	255.053	-1126.404	1	1154.919	-77.24158	1.972479E-007	0.0006472	8
	30	80	298.2954	302.5401	-1396.501	1	1428.897	-77.77625	1.905295E-007	0.0006562	8
	31	83	237.7717	363.9716	-1719.034	1	1757.143	-78.0453	2.08783E-007	0.0006459	8
	32	85	189.0121	446.674	-2118.645	1	2165.219	-78.09468	1.993399E-007	0.0006506	8
	33	87	150.2404	557.3	-2606.6	1	2665.51	-77.93166	2.121871E-007	0.0006485	8
	34	90	119.1737	705.9818	-3207.819	1	3284.587	-77.58813	2.022416E-007	0.0006492	8
	35	92	95.0169	902.2018	-3920.865	1	4023.326	-77.04164	2.042646E-007	0.0006529	8
	36	95	75.60484	1169.764	-4799.722	1	4940.21	-76.30318	-1.731128E-008	0.0006236	7
	37	97	54.50582	1712.669	-6356.821	1	6583.496	-74.92129	-2.12354E-008	0.0006249	7
	38	100	45.95588	2098.733	-7342.703	1	7636.751	-74.04871	-1.247916E-008	0.0006278	7
	39	102	37.20238	2706.351	-8735.161	1	9144.801	-72.78584	-1.477314E-008	0.0006257	7
	40	105	30.04808	3513.383	-10365.81	1	10945.04	-71.27645	-2.248457E-008	0.000626	7
	41	107	23.91582	4627.242	-12361.6	1	13199.26	-69.47792	-2.759362E-008	0.0006235	7
	42	109	18.60119	6270.315	-14887.04	1	16153.66	-67.15952	-1.314699E-008	0.0006316	7
	43	112	15.02404	8078.506	-17262.52	1	19059.3	-64.92136	-2.111346E-008	0.000621	7
	44	114	12.01923	10450.07	-19894.15	1	22471.79	-62.28778	-1.542833E-008	0.0006383	7
	45	116	9.450605	13569.1	-22864.05	1	26587.31	-59.31219	-2.842199E-008	0.0006756	7
	46	119	7.512019	17252.11	-25659.56	1	30920.03	-56.08523	-1.182249E-008	0.0006385	7
	47	122	5.978954	21482.71	-28201.99	1	35452.21	-52.70187	-1.213736E-008	0.000623	7
	48	125	4.734848	26371.58	-30478.3	1	40303.69	-49.13175	-3.937007E-008	0.0006767	6
	49	128	3.75601	31579.04	-32296.9	1	45169.96	-45.64388	-3.336116E-008	0.0006769	6
	50	131	3.004808	36754.87	-33518.29	1	49743.3	-42.36299	-3.946155E-008	0.000712	6
	51	135	2.372217	42519.22	-34500.57	1	54755.58	-39.05626	-3.232189E-008	0.0007222	6
	52	139	1.878005	47962.43	-34362.67	1	59001.59	-35.61969	-3.420006E-008	0.0006524	6
	53	144	1.512097	52810.5	-34023.43	1	62821.51	-32.79186	-3.90993E-008	0.0007677	6
	54	149	1.201923	57899.88	-33368.07	1	66826.82	-29.95513	-3.506191E-008	0.0006445	6
	55	156	0.956633	62424.14	-31788.65	1	70052.06	-26.98685	-5.285506E-008	7.904066E-005	6
