EXPLAIN
TAG	EISPOT
TITLE	LABEL	Potentiostatic EIS	Test Identifier
DATE	LABEL	8/24/2020	Date
TIME	LABEL	14:53:28	Time
NOTES	NOTES	1	Notes...
	
PSTAT	PSTAT	REF3000-16137	Potentiostat
VDC	POTEN	0.00000E+000	T	DC Voltage (V)
FREQINIT	QUANT	3.00000E+005	Initial Freq. (Hz)
FREQFINAL	QUANT	1.00000E+000	Final Freq. (Hz)
PTSPERDEC	QUANT	1.00000E+001	Points/decade
VAC	QUANT	5.00000E+001	AC Voltage (mV rms)
AREA	QUANT	1.00000E+000	Sample Area (cm^2)
SPEED	SELECTOR	2	Optimize for:
ZGUESS	QUANT	1.00000E+003	Estimated Z (ohms)
EOC	QUANT	0	Open Circuit (V)
SEQUENCER	TOGGLE	TRUE	Run as Sequence
PSTATMODEL	IQUANT	5	Pstat Model
PSTATSECTION	LABEL	REF3000-16137	Pstat Section
PSTATSERIALNO	LABEL	16137	Pstat Serial Number
CTRLMODE	IQUANT	1	Control Mode
IESTAB	IQUANT	0	I/E Stability
CASPEED	IQUANT	1	Control Amp Speed
CONVENTION	IQUANT	1	Current Convention
ICHRANGE	IQUANT	2	Ich Range
ICHRANGEMODE	TOGGLE	F	Ich Auto Range
ICHOFFSETENABLE	TOGGLE	T	Ich Offset Enable
ICHOFFSET	QUANT	0	Ich Offset (V)
ICHFILTER	IQUANT	3	Ich Filter
VCHRANGE	IQUANT	2	Vch Range
VCHRANGEMODE	TOGGLE	F	Vch Auto Range
VCHOFFSETENABLE	TOGGLE	T	Vch Offset Enable
VCHOFFSET	QUANT	0	Vch Offset (V)
VCHFILTER	IQUANT	3	Vch Filter
ACHRANGE	IQUANT	2	Ach Range
ACHOFFSETENABLE	TOGGLE	F	Ach Offset Enable
ACHOFFSET	QUANT	0	Ach Offset (V)
ACHFILTER	IQUANT	3	Ach Filter
IERANGELOWERLIMIT	IQUANT	2	I/E Range Lower Limit
IERANGEMODE	TOGGLE	F	I/E AutoRange
IERANGE	IQUANT	11	I/E Range
POSFEEDENABLE	TOGGLE	F	Positive Feedback IR Comp
POSFEEDRESISTANCE	QUANT	0	Positive Feedback Resistance (ohm)
ACHSELECT	IQUANT	0	Ach Select
CABLEID	IQUANT	13	Cable ID
DCCALDATE	LABEL	7/31/2020	DC Calibration Date
ACCALDATE	LABEL	7/31/2020	AC Calibration Date
THERMOSELECT	IQUANT	1	Thermo Select
FRAMEWORKVERSION	QUANT	6.33	Framework Version
INSTRUMENTVERSION	LABEL	3.50	Instrument Version
COMPLIANCEVOLTAGE	IQUANT	0	Compliance Voltage
ZCURVE	TABLE
	Pt	Time	Freq	Zreal	Zimag	Zsig	Zmod	Zphz	Idc	Vdc	IERange
	#	s	Hz	ohm	ohm	V	ohm	°	A	V	#
	0	7	300046.9	90.71227	-4.958704	1	90.8477	-3.128908	-1.16634E-005	0.0006269	9
	1	10	238359.4	91.57394	-6.553127	1	91.80811	-4.093169	6.586107E-005	-0.0019305	9
	2	13	189328.1	92.46384	-8.012585	1	92.81036	-4.952674	-1.065669E-005	0.001014	9
	3	16	150421.9	93.33913	-9.484029	1	93.81972	-5.801814	-1.850688E-006	0.0009936	9
	4	18	119484.4	94.56362	-11.15536	1	95.2193	-6.7279	1.078733E-005	-0.0008046	9
	5	21	94921.88	95.9095	-12.65382	1	96.7406	-7.515916	-1.706905E-005	0.000398	9
	6	23	75421.88	97.2509	-14.82259	1	98.374	-8.666093	1.914188E-005	-0.0007329	9
	7	26	59859.37	98.8404	-17.18181	1	100.3227	-9.8614	2.246141E-005	-0.0006917	9
	8	28	47578.12	100.6201	-19.78955	1	102.5477	-11.12668	4.913743E-006	-0.0004715	9
	9	31	37828.12	102.4624	-22.73739	1	104.9549	-12.51173	-1.135814E-005	0.0008334	9
	10	33	30046.88	104.4147	-26.15194	1	107.6399	-14.06117	-5.178447E-006	0.0007391	9
	11	36	23859.38	106.343	-30.25347	1	110.5627	-15.8805	2.439106E-005	-0.0005778	9
	12	38	18984.38	108.1707	-35.16526	1	113.7431	-18.00885	1.368334E-005	-0.0006714	9
	13	41	15046.87	109.9233	-41.32736	1	117.4355	-20.60452	-1.474247E-005	0.000222	9
	14	43	11953.13	111.4836	-49.33593	1	121.9123	-23.8713	-1.754904E-005	0.0004064	9
	15	45	9515.62	113.0908	-59.03721	1	127.5732	-27.56608	-1.129143E-005	0.0008376	9
	16	48	7546.875	114.724	-71.79034	1	135.3346	-32.03692	-1.953357E-005	0.0005385	9
	17	50	5928.309	116.6337	-88.60738	1	146.4742	-37.22416	2.475463E-005	-0.0006032	9
	18	52	4733.456	118.5574	-108.5292	1	160.731	-42.47144	-9.329242E-006	9.411885E-006	9
	19	54	3796.875	120.8299	-132.8104	1	179.5508	-47.70431	1.832234E-005	-0.0007037	9
	20	57	2987.132	124.2818	-166.0951	1	207.4453	-53.19408	2.26591E-005	-0.0006951	9
	21	59	2390.625	127.9495	-204.6861	1	241.3866	-57.99045	-2.467613E-006	-0.0002442	9
	22	61	1884.191	133.1859	-256.2075	1	288.7573	-62.53296	-3.117668E-006	-0.000222	9
	23	64	1516.544	139.49	-313.363	1	343.0071	-66.0043	-3.403042E-006	-0.0002226	9
	24	66	1193.986	148.7459	-393.0092	1	420.2162	-69.26938	-9.779913E-006	2.712895E-006	9
	25	68	946.5144	160.1612	-486.867	1	512.534	-71.79071	-5.135874E-006	0.0025899	8
	26	71	751.7689	175.0806	-604.1488	1	629.0063	-73.83856	6.306638E-006	-0.0013471	8
	27	73	597.4265	195.3597	-748.8648	1	773.9276	-75.37887	2.962889E-006	-0.0012321	8
	28	75	477.4305	220.036	-922.4517	1	948.3317	-76.58372	1.908844E-007	0.0006531	8
	29	78	376.6741	255.7367	-1149.792	1	1177.89	-77.4604	1.974129E-007	0.000652	8
	30	80	298.2954	302.6207	-1426.703	1	1458.444	-78.02438	1.995131E-007	0.0006583	8
	31	82	237.7717	363.3911	-1757.548	1	1794.723	-78.31812	2.035101E-007	0.0006496	8
	32	85	189.0121	445.5014	-2167.809	1	2213.112	-78.38696	2.11038E-007	0.0006441	8
	33	87	150.2404	555.1327	-2669.205	1	2726.321	-78.25129	1.942849E-007	0.0006454	8
	34	90	119.1737	703.5129	-3286.674	1	3361.124	-77.91815	2.031779E-007	0.0006642	8
	35	92	95.0169	897.4101	-4020.267	1	4119.209	-77.41664	2.058057E-007	0.0006452	8
	36	95	75.60484	1163.319	-4927.044	1	5062.517	-76.71526	-1.450183E-008	0.000621	7
	37	97	54.50582	1702.278	-6537.447	1	6755.44	-75.40492	-1.686905E-008	0.000621	7
	38	100	45.95588	2086.73	-7556.97	1	7839.786	-74.5634	-6.028933E-009	0.0006245	7
	39	102	37.20238	2689.457	-9004.769	1	9397.821	-73.37067	-1.721173E-008	0.0006303	7
	40	104	30.04808	3490.741	-10702.49	1	11257.38	-71.93566	-1.621609E-008	0.0006179	7
	41	107	23.91582	4610.833	-12810.72	1	13615.22	-70.20518	-2.322158E-008	0.000621	7
	42	109	18.60119	6246.824	-15460.64	1	16674.95	-67.99898	-1.058829E-008	0.0006286	7
	43	111	15.02404	8043.159	-17989.27	1	19705.48	-65.91016	-2.475679E-008	0.0006221	7
	44	114	12.01923	10411.53	-20828.22	1	23285.5	-63.44062	-1.924489E-008	0.0006218	7
	45	116	9.450605	13631.15	-24082.72	1	27672.83	-60.48955	-1.050921E-008	0.0006194	7
	46	119	7.512019	17283.45	-27252.91	1	32271.33	-57.61765	-9.777676E-009	0.0006479	7
	47	121	5.978954	21668.32	-30254.97	1	37213.97	-54.39013	-7.562183E-009	0.0006225	7
	48	124	4.734848	26770.87	-33085.65	1	42559.84	-51.02235	-2.815835E-008	0.000696	6
	49	128	3.75601	32343.21	-35449.8	1	47987.2	-47.62372	-3.753426E-008	0.0006679	6
	50	131	3.004808	38090.1	-37415.21	1	53392.45	-44.48789	-3.701316E-008	0.0006872	6
	51	135	2.372217	44450.46	-38795.25	1	58999.28	-41.11365	-3.171072E-008	0.0007409	6
	52	139	1.878005	50706.91	-39206.51	1	64096.34	-37.71114	-3.688842E-008	0.0006499	6
	53	144	1.512097	56425.12	-39409.11	1	68824.94	-34.93168	-3.66947E-008	0.0006498	6
	54	149	1.201923	62309.02	-38952.4	1	73482.67	-32.01151	-3.455422E-008	0.0006405	6
	55	155	0.956633	67855.9	-37581.03	1	77567.76	-28.97925	-4.279974E-008	3.480165E-005	6
