EXPLAIN
TAG	EISPOT
TITLE	LABEL	Potentiostatic EIS	Test Identifier
DATE	LABEL	8/24/2020	Date
TIME	LABEL	16:53:06	Time
NOTES	NOTES	1	Notes...
	
PSTAT	PSTAT	REF3000-16137	Potentiostat
VDC	POTEN	0.00000E+000	T	DC Voltage (V)
FREQINIT	QUANT	3.00000E+005	Initial Freq. (Hz)
FREQFINAL	QUANT	1.00000E+000	Final Freq. (Hz)
PTSPERDEC	QUANT	1.00000E+001	Points/decade
VAC	QUANT	5.00000E+001	AC Voltage (mV rms)
AREA	QUANT	1.00000E+000	Sample Area (cm^2)
SPEED	SELECTOR	2	Optimize for:
ZGUESS	QUANT	1.00000E+003	Estimated Z (ohms)
EOC	QUANT	0	Open Circuit (V)
SEQUENCER	TOGGLE	TRUE	Run as Sequence
PSTATMODEL	IQUANT	5	Pstat Model
PSTATSECTION	LABEL	REF3000-16137	Pstat Section
PSTATSERIALNO	LABEL	16137	Pstat Serial Number
CTRLMODE	IQUANT	1	Control Mode
IESTAB	IQUANT	0	I/E Stability
CASPEED	IQUANT	1	Control Amp Speed
CONVENTION	IQUANT	1	Current Convention
ICHRANGE	IQUANT	2	Ich Range
ICHRANGEMODE	TOGGLE	F	Ich Auto Range
ICHOFFSETENABLE	TOGGLE	T	Ich Offset Enable
ICHOFFSET	QUANT	0	Ich Offset (V)
ICHFILTER	IQUANT	3	Ich Filter
VCHRANGE	IQUANT	2	Vch Range
VCHRANGEMODE	TOGGLE	F	Vch Auto Range
VCHOFFSETENABLE	TOGGLE	T	Vch Offset Enable
VCHOFFSET	QUANT	0	Vch Offset (V)
VCHFILTER	IQUANT	3	Vch Filter
ACHRANGE	IQUANT	2	Ach Range
ACHOFFSETENABLE	TOGGLE	F	Ach Offset Enable
ACHOFFSET	QUANT	0	Ach Offset (V)
ACHFILTER	IQUANT	3	Ach Filter
IERANGELOWERLIMIT	IQUANT	2	I/E Range Lower Limit
IERANGEMODE	TOGGLE	F	I/E AutoRange
IERANGE	IQUANT	11	I/E Range
POSFEEDENABLE	TOGGLE	F	Positive Feedback IR Comp
POSFEEDRESISTANCE	QUANT	0	Positive Feedback Resistance (ohm)
ACHSELECT	IQUANT	0	Ach Select
CABLEID	IQUANT	13	Cable ID
DCCALDATE	LABEL	7/31/2020	DC Calibration Date
ACCALDATE	LABEL	7/31/2020	AC Calibration Date
THERMOSELECT	IQUANT	1	Thermo Select
FRAMEWORKVERSION	QUANT	6.33	Framework Version
INSTRUMENTVERSION	LABEL	3.50	Instrument Version
COMPLIANCEVOLTAGE	IQUANT	0	Compliance Voltage
ZCURVE	TABLE
	Pt	Time	Freq	Zreal	Zimag	Zsig	Zmod	Zphz	Idc	Vdc	IERange
	#	s	Hz	ohm	ohm	V	ohm	°	A	V	#
	0	24	300046.9	-12.15697	-4904.414	1	4904.429	-90.14202	-0.0001171	0.0038557	9
	1	39	238359.4	-29.14666	-5944.942	1	5945.014	-90.28091	1.979324E-005	-0.0009419	9
	2	56	189328.1	139.6756	-7185.645	1	7187.002	-88.88641	-6.300169E-005	0.0005814	9
	3	66	150421.9	306.5607	-8903.526	1	8908.803	-88.02801	1.994664E-005	-0.0003157	9
	4	75	119484.4	524.1819	-11659.35	1	11671.13	-87.42583	1.309676E-005	-0.0191869	8
	5	83	94921.88	762.929	-14500.07	1	14520.12	-86.98813	-2.678179E-005	0.0078034	8
	6	90	75421.88	672.8314	-18067.77	1	18080.3	-87.86733	2.341682E-005	-0.0028203	8
	7	99	59859.37	450.0382	-22411.6	1	22416.11	-88.84962	-2.733235E-005	0.0098203	8
	8	107	47578.12	4068.393	-29898.68	1	30174.21	-82.2512	-3.407351E-006	-0.0052695	7
	9	115	37828.12	514.3182	-35375.78	1	35379.52	-89.16705	-2.007108E-005	0.0114343	8
	10	123	30046.88	1785.668	-45735.38	1	45770.22	-87.76411	-2.207915E-006	0.0078917	8
	11	132	23859.38	4881.563	-56686.49	1	56896.29	-85.07811	-5.439205E-006	0.0036759	7
	12	137	18984.38	5249.908	-71417.63	1	71610.33	-85.79575	-7.398415E-006	0.0242837	7
	13	143	15046.87	4765.34	-90527.66	1	90652.99	-86.98676	7.821875E-006	-0.0248058	7
	14	149	11953.13	6152.654	-117844.8	1	118005.3	-87.01131	8.421508E-006	0.0042841	8
	15	157	9515.62	4754.019	-140787	1	140867.3	-88.066	4.731999E-007	0.016308	7
	16	162	7546.875	3395.122	-176997.9	1	177030.4	-88.9011	-5.363581E-006	0.0272437	7
	17	168	5928.309	2755.083	-223921.3	1	223938.3	-89.29508	-1.765476E-006	0.0222148	7
	18	174	4733.456	18780.76	-290146.1	1	290753.3	-86.29649	-7.329087E-006	0.0238866	7
	19	179	3796.875	43205.94	-356099.7	1	358711.2	-83.08206	-7.430295E-006	0.0187527	7
	20	185	2987.132	51421.37	-444958.7	1	447920.1	-83.40789	1.273672E-006	-0.0201887	7
	21	192	2390.625	50519.59	-571576.2	1	573804.4	-84.94895	-6.96496E-007	0.0268493	6
	22	197	1884.191	47386.77	-696957.2	1	698566.3	-86.11039	7.330776E-007	-0.0275681	6
	23	203	1516.544	68948.11	-891071.4	1	893734.9	-85.57546	-5.468088E-008	-0.0152089	6
	24	208	1193.986	40996.61	-1132689	1	1133430	-87.92714	-4.047057E-007	0.0258447	6
	25	214	946.5144	-37849.95	-1431795	1	1432295	-91.51428	7.88544E-007	-0.0236046	6
	26	217	751.7689	110465.7	-1827448	1	1830783	-86.54079	7.724667E-007	-0.0232024	6
	27	222	597.4265	140997.6	-2322673	1	2326949	-86.52613	2.253578E-007	0.0102739	6
	28	226	477.4305	100037.1	-2795991	1	2797780	-87.9509	-9.745294E-009	0.0006264	6
	29	228	376.6741	501719.8	-3640870	1	3675276	-82.15393	-1.107544E-009	0.0006806	5
	30	232	298.2954	556221.9	-4520888	1	4554976	-82.98593	-1.079004E-009	0.0007306	5
	31	235	237.7717	624407.5	-5536032	1	5571134	-83.56482	-1.061864E-009	0.0006972	5
	32	238	189.0121	669920	-7021923	1	7053807	-84.55025	-1.085604E-009	0.0007325	5
	33	240	150.2404	498209.4	-8369438	1	8384253	-86.59336	-9.581578E-010	0.0006038	5
	34	243	119.1737	3333151	-8689130	1	9306497	-69.01318	-9.784692E-010	0.0006205	5
	35	246	95.0169	773164.1	-1.379817E+007	1	1.381982E+007	-86.79285	-1.100721E-009	0.0007315	5
	36	249	75.60484	801385.7	-1.797322E+007	1	1.799108E+007	-87.447	-1.062516E-009	0.0006911	5
	37	252	54.50582	2315279	-2.391234E+007	1	2.402417E+007	-84.46966	-9.784392E-010	0.0005891	5
	38	255	45.95588	1683034	-2.659474E+007	1	2.664794E+007	-86.3789	-1.037416E-009	0.0006568	5
	39	259	37.20238	767090.3	-3.35599E+007	1	3.356866E+007	-88.6906	-1.058799E-009	0.000607	5
	40	263	30.04808	4838380	-4.140679E+007	1	4.168852E+007	-83.33522	-9.878905E-010	0.0006087	5
	41	267	23.91582	9.632542E+006	-4.897771E+007	1	4.991595E+007	-78.87354	-1.57423E-010	0.0006988	4
	42	270	18.60119	3430880	-7.820241E+007	1	7.827763E+007	-87.48795	-1.692967E-010	0.0007067	4
	43	274	15.02404	1.72153E+007	-8.427191E+007	1	8.601234E+007	-78.45432	-1.134662E-010	0.0006276	4
	44	277	12.01923	2.009533E+007	-9.92242E+007	1	1.012386E+008	-78.55106	-9.542484E-011	0.0006838	4
	45	281	9.450605	2.926646E+007	-1.311855E+008	1	1.344104E+008	-77.4237	-1.163891E-010	0.0006646	4
	46	285	7.512019	3.522994E+007	-1.652081E+008	1	1.689227E+008	-77.96222	-1.195872E-010	0.0006213	4
	47	290	5.978954	5.453626E+007	-1.942956E+008	1	2.018043E+008	-74.32126	-1.027684E-010	0.0006208	4
	48	295	4.734848	1.187686E+008	-2.403492E+008	1	2.680928E+008	-63.70372	-1.91521E-011	0.0007539	3
	49	300	3.75601	1.300511E+008	-2.839292E+008	1	3.122964E+008	-65.3903	-1.099992E-009	0.0007417	5
	50	308	3.004808	1.490758E+008	-3.042239E+008	1	3.387858E+008	-63.89423	-1.078244E-009	0.0007052	5
	51	317	2.372217	2.53399E+008	-3.926386E+008	1	4.673073E+008	-57.16282	-1.929141E-011	0.0006484	3
	52	323	1.878005	3.296139E+008	-4.503546E+008	1	5.580901E+008	-53.79965	-1.88753E-011	0.0007328	3
	53	332	1.512097	4.160474E+008	-5.02328E+008	1	6.522491E+008	-50.36714	-1.894865E-011	0.0006627	3
	54	338	1.201923	5.276361E+008	-5.543473E+008	1	7.653109E+008	-46.41419	-1.882105E-011	0.0007577	3
	55	348	0.956633	6.528774E+008	-5.945124E+008	1	8.830028E+008	-42.32111	-1.925293E-011	9.026768E-005	3
