EXPLAIN
TAG	EISPOT
TITLE	LABEL	Potentiostatic EIS	Test Identifier
DATE	LABEL	8/24/2020	Date
TIME	LABEL	18:09:03	Time
NOTES	NOTES	1	Notes...
	
PSTAT	PSTAT	REF3000-16137	Potentiostat
VDC	POTEN	0.00000E+000	T	DC Voltage (V)
FREQINIT	QUANT	3.00000E+005	Initial Freq. (Hz)
FREQFINAL	QUANT	1.00000E+000	Final Freq. (Hz)
PTSPERDEC	QUANT	1.00000E+001	Points/decade
VAC	QUANT	5.00000E+001	AC Voltage (mV rms)
AREA	QUANT	1.00000E+000	Sample Area (cm^2)
SPEED	SELECTOR	2	Optimize for:
ZGUESS	QUANT	1.00000E+003	Estimated Z (ohms)
EOC	QUANT	0	Open Circuit (V)
SEQUENCER	TOGGLE	TRUE	Run as Sequence
PSTATMODEL	IQUANT	5	Pstat Model
PSTATSECTION	LABEL	REF3000-16137	Pstat Section
PSTATSERIALNO	LABEL	16137	Pstat Serial Number
CTRLMODE	IQUANT	1	Control Mode
IESTAB	IQUANT	0	I/E Stability
CASPEED	IQUANT	1	Control Amp Speed
CONVENTION	IQUANT	1	Current Convention
ICHRANGE	IQUANT	2	Ich Range
ICHRANGEMODE	TOGGLE	F	Ich Auto Range
ICHOFFSETENABLE	TOGGLE	T	Ich Offset Enable
ICHOFFSET	QUANT	0	Ich Offset (V)
ICHFILTER	IQUANT	3	Ich Filter
VCHRANGE	IQUANT	2	Vch Range
VCHRANGEMODE	TOGGLE	F	Vch Auto Range
VCHOFFSETENABLE	TOGGLE	T	Vch Offset Enable
VCHOFFSET	QUANT	0	Vch Offset (V)
VCHFILTER	IQUANT	3	Vch Filter
ACHRANGE	IQUANT	2	Ach Range
ACHOFFSETENABLE	TOGGLE	F	Ach Offset Enable
ACHOFFSET	QUANT	0	Ach Offset (V)
ACHFILTER	IQUANT	3	Ach Filter
IERANGELOWERLIMIT	IQUANT	2	I/E Range Lower Limit
IERANGEMODE	TOGGLE	F	I/E AutoRange
IERANGE	IQUANT	11	I/E Range
POSFEEDENABLE	TOGGLE	F	Positive Feedback IR Comp
POSFEEDRESISTANCE	QUANT	0	Positive Feedback Resistance (ohm)
ACHSELECT	IQUANT	0	Ach Select
CABLEID	IQUANT	13	Cable ID
DCCALDATE	LABEL	7/31/2020	DC Calibration Date
ACCALDATE	LABEL	7/31/2020	AC Calibration Date
THERMOSELECT	IQUANT	1	Thermo Select
FRAMEWORKVERSION	QUANT	6.33	Framework Version
INSTRUMENTVERSION	LABEL	3.50	Instrument Version
COMPLIANCEVOLTAGE	IQUANT	0	Compliance Voltage
ZCURVE	TABLE
	Pt	Time	Freq	Zreal	Zimag	Zsig	Zmod	Zphz	Idc	Vdc	IERange
	#	s	Hz	ohm	ohm	V	ohm	°	A	V	#
	0	7	300046.9	88.1161	-5.002717	1	88.258	-3.249431	8.26526E-006	-0.0011263	9
	1	10	238359.4	88.66379	-6.169089	1	88.87814	-3.980137	1.424164E-005	-0.0014536	9
	2	14	189328.1	89.43069	-7.575241	1	89.75095	-4.84169	1.387554E-005	-0.0012811	9
	3	16	150421.9	90.58492	-8.952985	1	91.02628	-5.644512	-5.219556E-005	0.0009176	9
	4	19	119484.4	91.50262	-10.68221	1	92.12405	-6.658687	4.947888E-005	-0.0005416	9
	5	21	94921.88	92.6542	-12.1543	1	93.44799	-7.473342	-1.403394E-005	0.0001517	9
	6	24	75421.88	93.92475	-14.25054	1	94.99966	-8.627288	4.806992E-006	-0.000499	9
	7	26	59859.37	95.4357	-16.57245	1	96.8639	-9.8512	-1.508979E-005	0.0001841	9
	8	29	47578.12	97.0482	-19.06512	1	98.9031	-11.11423	-1.099055E-005	0.0008052	9
	9	31	37828.12	98.8083	-21.97657	1	101.2228	-12.5394	-1.918223E-005	0.0007387	9
	10	34	30046.88	100.6386	-25.34505	1	103.7811	-14.13554	-1.194196E-005	0.0007586	9
	11	36	23859.38	102.3491	-29.48796	1	106.5123	-16.07231	-1.242727E-005	0.0001108	9
	12	39	18984.38	104.1044	-34.07254	1	109.5385	-18.12285	1.249601E-005	0.000106	9
	13	41	15046.87	105.6605	-40.16186	1	113.0359	-20.81194	-1.732375E-005	0.000808	9
	14	43	11953.13	107.158	-47.86264	1	117.3613	-24.06816	-1.491761E-005	0.0001892	9
	15	46	9515.62	108.6503	-57.45005	1	122.904	-27.86814	-9.808658E-006	2.376319E-005	9
	16	48	7546.875	110.1715	-69.88606	1	130.4677	-32.38854	2.29922E-005	-0.0004409	9
	17	50	5928.309	112.0188	-86.47024	1	141.5108	-37.66549	-1.787347E-005	0.0004277	9
	18	53	4733.456	113.7985	-106.0334	1	155.5416	-42.97699	-1.911548E-005	0.0007608	9
	19	55	3796.875	116.299	-129.6409	1	174.1615	-48.10517	2.325131E-005	-0.0005334	9
	20	57	2987.132	119.5261	-161.9726	1	201.2998	-53.57489	4.120056E-006	0.0004377	9
	21	60	2390.625	123.2476	-199.6999	1	234.67	-58.31861	1.811298E-005	-0.0006647	9
	22	62	1884.191	128.0794	-249.6083	1	280.5506	-62.83665	-1.868364E-005	0.0007451	9
	23	64	1516.544	135.5576	-305.4946	1	334.2197	-66.07162	-1.055177E-005	3.859916E-005	9
	24	67	1193.986	144.674	-382.6089	1	409.0479	-69.28714	3.444765E-006	0.0004595	9
	25	69	946.5144	155.6213	-473.5385	1	498.4543	-71.80767	-1.019252E-006	-7.922189E-005	8
	26	71	751.7689	172.1129	-585.9264	1	610.6821	-73.63011	5.378657E-006	-0.0013834	8
	27	74	597.4265	191.9537	-726.561	1	751.4899	-75.20088	-4.172249E-006	0.0026692	8
	28	76	477.4305	218.4194	-893.4224	1	919.734	-76.26208	1.92282E-007	0.0006536	8
	29	78	376.6741	255.1996	-1111.564	1	1140.483	-77.06976	2.056846E-007	0.0006491	8
	30	81	298.2954	303.3043	-1376.826	1	1409.839	-77.57661	2.149721E-007	0.000644	8
	31	83	237.7717	365.3525	-1693.257	1	1732.225	-77.82401	2.164832E-007	0.0006463	8
	32	85	189.0121	448.8337	-2085.229	1	2132.987	-77.85274	2.202171E-007	0.0006442	8
	33	88	150.2404	560.9301	-2564.265	1	2624.899	-77.66097	2.079687E-007	0.0006436	8
	34	90	119.1737	712.922	-3154.825	1	3234.375	-77.26627	2.203602E-007	0.0006512	8
	35	93	95.0169	914.5546	-3854.199	1	3961.219	-76.65129	2.039578E-007	0.0006434	8
	36	95	75.60484	1192.937	-4714.688	1	4863.269	-75.80072	-1.468616E-008	0.0006207	7
	37	98	54.50582	1767.458	-6234.63	1	6480.318	-74.17247	-1.212179E-008	0.0006074	7
	38	100	45.95588	2179.56	-7185.887	1	7509.158	-73.12687	-1.170415E-008	0.0006239	7
	39	103	37.20238	2830.669	-8522.321	1	8980.125	-71.62621	-1.536892E-008	0.00063	7
	40	105	30.04808	3700.249	-10066.22	1	10724.77	-69.81705	-1.263725E-008	0.0006222	7
	41	107	23.91582	4937.134	-11946.39	1	12926.39	-67.54596	-1.108519E-008	0.0006171	7
	42	110	18.60119	6698.69	-14199.92	1	15700.64	-64.7448	-1.933472E-008	0.0006268	7
	43	112	15.02404	8627.615	-16260.78	1	18407.84	-62.05055	-1.069507E-008	0.0006339	7
	44	114	12.01923	11131.79	-18430.85	1	21531.67	-58.86905	-1.903133E-008	0.0006176	7
	45	117	9.450605	14400.33	-20682.16	1	25201.61	-55.15174	-2.173522E-008	0.0006314	7
	46	119	7.512019	18081.52	-22554.38	1	28907.47	-51.28135	-1.706426E-008	0.0006335	7
	47	122	5.978954	22097.27	-23883.87	1	32538.11	-47.22511	-1.005401E-008	0.0006138	7
	48	125	4.734848	26469.58	-24684.42	1	36193.36	-43.00132	-1.004629E-008	0.0006549	7
	49	128	3.75601	30837.8	-24554.74	1	39419.61	-38.52871	-4.445636E-008	0.0006559	6
	50	134	3.004808	34787.67	-23952.76	1	42236.44	-34.54903	-4.58528E-008	0.0006903	6
	51	140	2.372217	38796.93	-23200.45	1	45204.68	-30.87929	-4.876168E-008	0.0007599	6
	52	144	1.878005	41785.04	-21074.91	1	46798.94	-26.76477	-5.463809E-008	0.0006552	6
	53	153	1.512097	44017.56	-19427.29	1	48114.08	-23.81441	-5.439461E-008	0.0006727	6
	54	164	1.201923	45912.45	-17511.97	1	49138.81	-20.8779	-5.736101E-008	0.000639	6
	55	177	0.956633	47541.41	-15720.56	1	50073.16	-18.29755	-7.801895E-008	3.446859E-005	6
