EXPLAIN
TAG	EISPOT
TITLE	LABEL	Potentiostatic EIS	Test Identifier
DATE	LABEL	8/24/2020	Date
TIME	LABEL	16:35:36	Time
NOTES	NOTES	1	Notes...
	
PSTAT	PSTAT	REF3000-16137	Potentiostat
VDC	POTEN	0.00000E+000	T	DC Voltage (V)
FREQINIT	QUANT	3.00000E+005	Initial Freq. (Hz)
FREQFINAL	QUANT	1.00000E+000	Final Freq. (Hz)
PTSPERDEC	QUANT	1.00000E+001	Points/decade
VAC	QUANT	5.00000E+001	AC Voltage (mV rms)
AREA	QUANT	1.00000E+000	Sample Area (cm^2)
SPEED	SELECTOR	2	Optimize for:
ZGUESS	QUANT	1.00000E+003	Estimated Z (ohms)
EOC	QUANT	0	Open Circuit (V)
SEQUENCER	TOGGLE	TRUE	Run as Sequence
PSTATMODEL	IQUANT	5	Pstat Model
PSTATSECTION	LABEL	REF3000-16137	Pstat Section
PSTATSERIALNO	LABEL	16137	Pstat Serial Number
CTRLMODE	IQUANT	1	Control Mode
IESTAB	IQUANT	0	I/E Stability
CASPEED	IQUANT	1	Control Amp Speed
CONVENTION	IQUANT	1	Current Convention
ICHRANGE	IQUANT	2	Ich Range
ICHRANGEMODE	TOGGLE	F	Ich Auto Range
ICHOFFSETENABLE	TOGGLE	T	Ich Offset Enable
ICHOFFSET	QUANT	0	Ich Offset (V)
ICHFILTER	IQUANT	3	Ich Filter
VCHRANGE	IQUANT	2	Vch Range
VCHRANGEMODE	TOGGLE	F	Vch Auto Range
VCHOFFSETENABLE	TOGGLE	T	Vch Offset Enable
VCHOFFSET	QUANT	0	Vch Offset (V)
VCHFILTER	IQUANT	3	Vch Filter
ACHRANGE	IQUANT	2	Ach Range
ACHOFFSETENABLE	TOGGLE	F	Ach Offset Enable
ACHOFFSET	QUANT	0	Ach Offset (V)
ACHFILTER	IQUANT	3	Ach Filter
IERANGELOWERLIMIT	IQUANT	2	I/E Range Lower Limit
IERANGEMODE	TOGGLE	F	I/E AutoRange
IERANGE	IQUANT	11	I/E Range
POSFEEDENABLE	TOGGLE	F	Positive Feedback IR Comp
POSFEEDRESISTANCE	QUANT	0	Positive Feedback Resistance (ohm)
ACHSELECT	IQUANT	0	Ach Select
CABLEID	IQUANT	13	Cable ID
DCCALDATE	LABEL	7/31/2020	DC Calibration Date
ACCALDATE	LABEL	7/31/2020	AC Calibration Date
THERMOSELECT	IQUANT	1	Thermo Select
FRAMEWORKVERSION	QUANT	6.33	Framework Version
INSTRUMENTVERSION	LABEL	3.50	Instrument Version
COMPLIANCEVOLTAGE	IQUANT	0	Compliance Voltage
ZCURVE	TABLE
	Pt	Time	Freq	Zreal	Zimag	Zsig	Zmod	Zphz	Idc	Vdc	IERange
	#	s	Hz	ohm	ohm	V	ohm	°	A	V	#
	0	14	300046.9	-18.26416	-4847.282	1	4847.316	-90.21588	-1.584354E-005	0.0017837	9
	1	28	238359.4	-23.60706	-5962.252	1	5962.299	-90.22686	2.830334E-005	-0.0016772	9
	2	42	189328.1	154.8268	-7272.139	1	7273.787	-88.78033	1.991376E-005	-0.0009087	9
	3	50	150421.9	160.9038	-9407.407	1	9408.783	-89.02011	-1.530994E-005	0.001887	9
	4	58	119484.4	844.4462	-11419.05	1	11450.24	-85.77064	-9.109668E-005	0.0043339	9
	5	68	94921.88	792.9294	-14300.69	1	14322.66	-86.82638	-2.682609E-005	0.0076895	8
	6	77	75421.88	1012.169	-18098.25	1	18126.53	-86.79899	-1.283433E-006	-0.0051739	8
	7	85	59859.37	1203.812	-22960.37	1	22991.9	-86.99873	-1.618222E-005	0.0006319	8
	8	94	47578.12	4803.905	-29568.15	1	29955.85	-80.77185	-5.466648E-006	0.0038548	7
	9	100	37828.12	1842.25	-35347.46	1	35395.43	-87.01654	2.265982E-005	-0.0097987	8
	10	109	30046.88	1948.903	-44139.27	1	44182.27	-87.47183	8.407261E-006	0.0041057	8
	11	117	23859.38	7191.405	-57293.35	1	57742.92	-82.8457	-9.229579E-007	-0.0142633	7
	12	123	18984.38	8414.971	-70121.06	1	70624.18	-83.15687	-5.44088E-006	0.0271889	7
	13	128	15046.87	9255.106	-89376.27	1	89854.18	-84.08797	7.102115E-006	-0.0277591	7
	14	133	11953.13	13129.94	-113428.6	1	114186	-83.39711	7.663353E-006	-0.0184194	7
	15	140	9515.62	23717.88	-137278.3	1	139312.1	-80.19765	-3.803058E-006	0.025737	7
	16	146	7546.875	36556.19	-169719.4	1	173611.7	-77.84466	4.937706E-007	0.016435	7
	17	153	5928.309	50826.97	-207858.3	1	213982.3	-76.25926	5.128323E-007	0.0163971	7
	18	159	4733.456	95104.3	-277584.3	1	293424.4	-71.08782	7.809822E-007	-0.0233664	6
	19	164	3796.875	126071.5	-333839.7	1	356851.4	-69.31142	4.45365E-007	0.0017492	6
	20	169	2987.132	164955.1	-432507.7	1	462896.4	-69.12354	2.867965E-006	0.0084603	7
	21	175	2390.625	165884.2	-395273.3	1	428670.7	-67.23369	-3.486475E-006	-0.0052183	7
	22	182	1884.191	325443.4	-663496.3	1	739013.3	-63.87215	7.749763E-006	-0.0246517	7
	23	188	1516.544	442804.7	-471500.6	1	646829.8	-46.79767	5.034594E-006	-0.0008545	7
	24	198	1193.986	900228.7	-714121.3	1	1149078	-38.42379	-2.664994E-005	0.0076666	8
	25	208	946.5144	118052.1	-242035.7	1	269290.8	-63.99935	1.653292E-005	-0.0094003	8
	26	215	751.7689	1104662	-415864.3	1	1180348	-20.62949	-1.133117E-006	-0.0133565	7
	27	221	597.4265	1025849	-884929.4	1	1354794	-40.78208	-4.028528E-007	0.0257964	6
	28	225	477.4305	1254353	-775605.8	1	1474776	-31.72981	-9.257796E-009	0.0006192	6
	29	228	376.6741	1535964	-582192.4	1	1642600	-20.75873	-1.156133E-009	0.0006445	5
	30	231	298.2954	1627827	-505412.4	1	1704483	-17.24868	-1.091301E-009	0.0006317	5
	31	234	237.7717	1693775	-448886.4	1	1752248	-14.84336	-1.126268E-009	0.000669	5
	32	237	189.0121	1761611	-381693.1	1	1802488	-12.22545	-1.103975E-009	0.0006945	5
	33	239	150.2404	1806245	-346185.2	1	1839121	-10.84974	-1.001044E-009	0.0006498	5
	34	242	119.1737	1911410	-173080.8	1	1919230	-5.174101	-1.016375E-009	0.0006118	5
	35	245	95.0169	1890131	-253461.9	1	1907050	-7.63766	-1.133392E-009	0.0006989	5
	36	248	75.60484	1926873	-233293.8	1	1940944	-6.903418	-1.077198E-009	0.0006146	5
	37	251	54.50582	1971713	-216707.1	1	1983586	-6.272093	-1.156977E-009	0.0006895	5
	38	254	45.95588	2008628	-187149.6	1	2017328	-5.323041	-1.000751E-009	0.0007009	5
	39	256	37.20238	2053646	-187678.8	1	2062204	-5.221648	-9.813715E-010	0.0006982	5
	40	259	30.04808	2078669	-187744	1	2087130	-5.160916	-9.777261E-010	0.0006144	5
	41	262	23.91582	2125245	-190109	1	2133731	-5.11166	-1.003782E-009	0.0006305	5
	42	265	18.60119	2169808	-171089.8	1	2176543	-4.508455	-6.336427E-010	0.0006832	5
	43	267	15.02404	2196704	-218549	1	2207549	-5.681631	-1.225379E-009	0.0006441	5
	44	269	12.01923	2238666	-236942.9	1	2251171	-6.041754	-1.195042E-009	0.0006503	5
	45	272	9.450605	2291894	-261741.8	1	2306792	-6.515139	-9.024001E-010	0.0006763	5
	46	275	7.512019	2344695	-295873.2	1	2363290	-7.192046	-8.793907E-010	0.000654	5
	47	278	5.978954	2421988	-340948.7	1	2445868	-8.013002	-9.917615E-009	0.0006322	6
	48	283	4.734848	2510945	-383493.9	1	2540062	-8.683618	-9.576068E-009	0.0005911	6
	49	289	3.75601	2616689	-440297.6	1	2653474	-9.55141	-1.018324E-008	0.0006274	6
	50	296	3.004808	2743140	-501298.1	1	2788568	-10.3563	-1.052322E-008	0.0007797	6
	51	304	2.372217	2885314	-573078.5	1	2941676	-11.23383	-1.546031E-009	0.0006366	5
	52	309	1.878005	2994207	-654656	1	3064939	-12.33312	-1.336637E-009	0.0006514	5
	53	314	1.512097	3111034	-744704.5	1	3198924	-13.46188	-1.186176E-009	0.000551	5
	54	320	1.201923	3257963	-865637	1	3371001	-14.87964	-1.311543E-009	0.0006563	5
	55	326	0.956633	3413535	-999824	1	3556947	-16.3253	-1.356532E-009	7.216564E-006	5
