EXPLAIN
TAG	EISPOT
TITLE	LABEL	Potentiostatic EIS	Test Identifier
DATE	LABEL	8/24/2020	Date
TIME	LABEL	18:21:26	Time
NOTES	NOTES	1	Notes...
	
PSTAT	PSTAT	REF3000-16137	Potentiostat
VDC	POTEN	0.00000E+000	T	DC Voltage (V)
FREQINIT	QUANT	3.00000E+005	Initial Freq. (Hz)
FREQFINAL	QUANT	1.00000E+000	Final Freq. (Hz)
PTSPERDEC	QUANT	1.00000E+001	Points/decade
VAC	QUANT	5.00000E+001	AC Voltage (mV rms)
AREA	QUANT	1.00000E+000	Sample Area (cm^2)
SPEED	SELECTOR	2	Optimize for:
ZGUESS	QUANT	1.00000E+003	Estimated Z (ohms)
EOC	QUANT	0	Open Circuit (V)
SEQUENCER	TOGGLE	TRUE	Run as Sequence
PSTATMODEL	IQUANT	5	Pstat Model
PSTATSECTION	LABEL	REF3000-16137	Pstat Section
PSTATSERIALNO	LABEL	16137	Pstat Serial Number
CTRLMODE	IQUANT	1	Control Mode
IESTAB	IQUANT	0	I/E Stability
CASPEED	IQUANT	1	Control Amp Speed
CONVENTION	IQUANT	1	Current Convention
ICHRANGE	IQUANT	2	Ich Range
ICHRANGEMODE	TOGGLE	F	Ich Auto Range
ICHOFFSETENABLE	TOGGLE	T	Ich Offset Enable
ICHOFFSET	QUANT	0	Ich Offset (V)
ICHFILTER	IQUANT	3	Ich Filter
VCHRANGE	IQUANT	2	Vch Range
VCHRANGEMODE	TOGGLE	F	Vch Auto Range
VCHOFFSETENABLE	TOGGLE	T	Vch Offset Enable
VCHOFFSET	QUANT	0	Vch Offset (V)
VCHFILTER	IQUANT	3	Vch Filter
ACHRANGE	IQUANT	2	Ach Range
ACHOFFSETENABLE	TOGGLE	F	Ach Offset Enable
ACHOFFSET	QUANT	0	Ach Offset (V)
ACHFILTER	IQUANT	3	Ach Filter
IERANGELOWERLIMIT	IQUANT	2	I/E Range Lower Limit
IERANGEMODE	TOGGLE	F	I/E AutoRange
IERANGE	IQUANT	11	I/E Range
POSFEEDENABLE	TOGGLE	F	Positive Feedback IR Comp
POSFEEDRESISTANCE	QUANT	0	Positive Feedback Resistance (ohm)
ACHSELECT	IQUANT	0	Ach Select
CABLEID	IQUANT	13	Cable ID
DCCALDATE	LABEL	7/31/2020	DC Calibration Date
ACCALDATE	LABEL	7/31/2020	AC Calibration Date
THERMOSELECT	IQUANT	1	Thermo Select
FRAMEWORKVERSION	QUANT	6.33	Framework Version
INSTRUMENTVERSION	LABEL	3.50	Instrument Version
COMPLIANCEVOLTAGE	IQUANT	0	Compliance Voltage
ZCURVE	TABLE
	Pt	Time	Freq	Zreal	Zimag	Zsig	Zmod	Zphz	Idc	Vdc	IERange
	#	s	Hz	ohm	ohm	V	ohm	°	A	V	#
	0	7	300046.9	88.1457	-4.983861	1	88.28648	-3.236125	1.185994E-005	-0.0011495	9
	1	10	238359.4	88.72879	-6.210549	1	88.94588	-4.003873	-9.533606E-006	0.0007142	9
	2	13	189328.1	89.62343	-7.414735	1	89.92963	-4.72943	6.391443E-005	-0.0016893	9
	3	16	150421.9	90.53227	-8.962656	1	90.97484	-5.653835	1.151846E-005	0.0008159	9
	4	18	119484.4	91.55805	-10.66353	1	92.17694	-6.643165	3.793616E-006	-0.0011561	9
	5	21	94921.88	92.78714	-12.17045	1	93.58191	-7.472556	-1.791183E-005	0.0004051	9
	6	23	75421.88	94.06499	-14.2158	1	95.1331	-8.59393	-1.95099E-005	0.0006367	9
	7	26	59859.37	95.5359	-16.5741	1	96.963	-9.84203	-1.736999E-005	0.0003768	9
	8	29	47578.12	97.1673	-19.09179	1	99.0252	-11.11608	3.813321E-006	0.0004606	9
	9	31	37828.12	98.9237	-21.96691	1	101.3334	-12.5199	2.380853E-005	-0.0006181	9
	10	34	30046.88	100.6712	-25.30711	1	103.8033	-14.11085	1.264011E-005	0.0001647	9
	11	36	23859.38	102.4125	-29.35341	1	106.5361	-15.99333	-2.143466E-005	0.000669	9
	12	38	18984.38	104.1287	-34.08104	1	109.5641	-18.12313	5.007796E-006	-0.0004635	9
	13	41	15046.87	105.787	-40.14118	1	113.1468	-20.77939	-1.711431E-005	0.0004272	9
	14	43	11953.13	107.2065	-48.01316	1	117.467	-24.12554	3.026083E-006	0.0004199	9
	15	45	9515.62	108.6389	-57.66076	1	122.9926	-27.9574	-1.712291E-005	0.0008071	9
	16	48	7546.875	110.2373	-70.14836	1	130.6639	-32.4702	1.210245E-005	-0.0006181	9
	17	50	5928.309	112.0203	-86.71036	1	141.6588	-37.742	1.815524E-005	-0.00069	9
	18	52	4733.456	113.9017	-106.2124	1	155.7391	-42.9993	-1.473685E-005	0.0001946	9
	19	55	3796.875	116.064	-130.1964	1	174.4189	-48.28448	2.023796E-005	-0.000125	9
	20	57	2987.132	119.508	-162.6139	1	201.8054	-53.68714	-1.670232E-005	0.0008278	9
	21	59	2390.625	123.3081	-200.586	1	235.4562	-58.41931	-1.337055E-005	0.0002472	9
	22	62	1884.191	128.9659	-251.3227	1	282.4806	-62.83544	-1.004934E-005	2.616173E-005	9
	23	64	1516.544	135.7196	-307.2924	1	335.9293	-66.17074	-1.974226E-005	0.0006415	9
	24	66	1193.986	143.8431	-384.575	1	410.5957	-69.49262	1.966055E-005	-0.000144	9
	25	69	946.5144	155.7587	-475.2028	1	500.0784	-71.85224	-2.655182E-006	0.0025276	8
	26	71	751.7689	171.6045	-590.7061	1	615.1274	-73.80103	5.536978E-006	-0.0014166	8
	27	74	597.4265	191.4234	-731.2435	1	755.8835	-75.33041	9.115687E-007	0.0016052	8
	28	76	477.4305	217.7276	-899.2113	1	925.1953	-76.38884	2.140858E-007	0.0006463	8
	29	78	376.6741	254.3561	-1119.004	1	1147.548	-77.19393	2.079675E-007	0.0006471	8
	30	80	298.2954	302.3802	-1386.363	1	1418.956	-77.69588	2.056932E-007	0.0006493	8
	31	83	237.7717	364.1911	-1705.282	1	1743.738	-77.94465	2.171639E-007	0.0006433	8
	32	85	189.0121	447.2751	-2100.635	1	2147.725	-77.97987	2.174243E-007	0.0006485	8
	33	88	150.2404	558.7142	-2583.674	1	2643.395	-77.7978	2.028063E-007	0.000649	8
	34	90	119.1737	710.6156	-3179.311	1	3257.759	-77.40076	2.299083E-007	0.0006468	8
	35	92	95.0169	910.2324	-3886.324	1	3991.496	-76.81812	2.234628E-007	0.0006433	8
	36	95	75.60484	1186.84	-4756.2	1	4902.043	-75.98881	-9.810211E-009	0.0006218	7
	37	97	54.50582	1756.164	-6294.437	1	6534.833	-74.41076	-7.378441E-009	0.0006231	7
	38	100	45.95588	2165.847	-7257.986	1	7574.25	-73.38443	-3.189438E-011	0.0006211	7
	39	102	37.20238	2817.758	-8618.859	1	9067.772	-71.89591	-6.58437E-009	0.0006326	7
	40	105	30.04808	3690.773	-10200.68	1	10847.84	-70.10905	-8.901398E-009	0.0006264	7
	41	107	23.91582	4907.649	-12091.37	1	13049.37	-67.90872	-1.15102E-008	0.0006202	7
	42	110	18.60119	6679.7	-14418.17	1	15890.32	-65.14249	5.449259E-010	0.0006198	7
	43	112	15.02404	8614.43	-16546.21	1	18654.37	-62.49723	-8.605161E-009	0.00062	7
	44	114	12.01923	11121.19	-18790.99	1	21835.35	-59.38141	-1.032788E-008	0.0006209	7
	45	117	9.450605	14442.8	-21126.36	1	25591.36	-55.64197	4.317515E-009	0.0006151	7
	46	119	7.512019	18103.55	-23100.79	1	29349.37	-51.91503	2.328639E-009	0.0006501	7
	47	122	5.978954	22219.17	-24661.62	1	33194.69	-47.98237	-3.681135E-010	0.0006247	7
	48	125	4.734848	26766.98	-25629.96	1	37058.95	-43.75686	-3.66002E-009	0.0006465	7
	49	128	3.75601	31372.37	-26092.77	1	40805.12	-39.75069	-2.538484E-008	0.0006765	6
	50	132	3.004808	35545.59	-25449.42	1	43716.84	-35.60137	-3.178628E-008	0.0006843	6
	51	138	2.372217	39742.6	-24591.11	1	46735.39	-31.74754	-2.989701E-008	0.0006745	6
	52	142	1.878005	42977.15	-22444.84	1	48485.11	-27.57584	-3.526909E-008	0.0006551	6
	53	151	1.512097	45506.57	-20806.22	1	50037.46	-24.57052	-3.87849E-008	0.0007736	6
	54	162	1.201923	47694.62	-18860.42	1	51288.32	-21.57589	-4.081139E-008	0.0006581	6
	55	175	0.956633	49777.41	-17168.43	1	52654.96	-19.02952	-6.75513E-008	3.43869E-005	6
