EXPLAIN
TAG	EISPOT
TITLE	LABEL	Potentiostatic EIS	Test Identifier
DATE	LABEL	8/24/2020	Date
TIME	LABEL	17:05:14	Time
NOTES	NOTES	1	Notes...
	
PSTAT	PSTAT	REF3000-16137	Potentiostat
VDC	POTEN	0.00000E+000	T	DC Voltage (V)
FREQINIT	QUANT	3.00000E+005	Initial Freq. (Hz)
FREQFINAL	QUANT	1.00000E+000	Final Freq. (Hz)
PTSPERDEC	QUANT	1.00000E+001	Points/decade
VAC	QUANT	5.00000E+001	AC Voltage (mV rms)
AREA	QUANT	1.00000E+000	Sample Area (cm^2)
SPEED	SELECTOR	2	Optimize for:
ZGUESS	QUANT	1.00000E+003	Estimated Z (ohms)
EOC	QUANT	0	Open Circuit (V)
SEQUENCER	TOGGLE	TRUE	Run as Sequence
PSTATMODEL	IQUANT	5	Pstat Model
PSTATSECTION	LABEL	REF3000-16137	Pstat Section
PSTATSERIALNO	LABEL	16137	Pstat Serial Number
CTRLMODE	IQUANT	1	Control Mode
IESTAB	IQUANT	0	I/E Stability
CASPEED	IQUANT	1	Control Amp Speed
CONVENTION	IQUANT	1	Current Convention
ICHRANGE	IQUANT	2	Ich Range
ICHRANGEMODE	TOGGLE	F	Ich Auto Range
ICHOFFSETENABLE	TOGGLE	T	Ich Offset Enable
ICHOFFSET	QUANT	0	Ich Offset (V)
ICHFILTER	IQUANT	3	Ich Filter
VCHRANGE	IQUANT	2	Vch Range
VCHRANGEMODE	TOGGLE	F	Vch Auto Range
VCHOFFSETENABLE	TOGGLE	T	Vch Offset Enable
VCHOFFSET	QUANT	0	Vch Offset (V)
VCHFILTER	IQUANT	3	Vch Filter
ACHRANGE	IQUANT	2	Ach Range
ACHOFFSETENABLE	TOGGLE	F	Ach Offset Enable
ACHOFFSET	QUANT	0	Ach Offset (V)
ACHFILTER	IQUANT	3	Ach Filter
IERANGELOWERLIMIT	IQUANT	2	I/E Range Lower Limit
IERANGEMODE	TOGGLE	F	I/E AutoRange
IERANGE	IQUANT	11	I/E Range
POSFEEDENABLE	TOGGLE	F	Positive Feedback IR Comp
POSFEEDRESISTANCE	QUANT	0	Positive Feedback Resistance (ohm)
ACHSELECT	IQUANT	0	Ach Select
CABLEID	IQUANT	13	Cable ID
DCCALDATE	LABEL	7/31/2020	DC Calibration Date
ACCALDATE	LABEL	7/31/2020	AC Calibration Date
THERMOSELECT	IQUANT	1	Thermo Select
FRAMEWORKVERSION	QUANT	6.33	Framework Version
INSTRUMENTVERSION	LABEL	3.50	Instrument Version
COMPLIANCEVOLTAGE	IQUANT	0	Compliance Voltage
ZCURVE	TABLE
	Pt	Time	Freq	Zreal	Zimag	Zsig	Zmod	Zphz	Idc	Vdc	IERange
	#	s	Hz	ohm	ohm	V	ohm	°	A	V	#
	0	23	300046.9	-52.25686	-4823.821	1	4824.104	-90.62067	-2.127875E-005	0.0011513	9
	1	37	238359.4	-167.0507	-6066.993	1	6069.292	-91.5772	1.648746E-006	-0.0021067	9
	2	51	189328.1	49.85587	-7403.977	1	7404.145	-89.6142	1.953335E-005	-0.0020892	9
	3	60	150421.9	46.45118	-9150.828	1	9150.946	-89.70916	-2.959174E-005	-0.0010303	9
	4	67	119484.4	897.2914	-11558.67	1	11593.45	-85.56107	-9.408859E-005	0.0336751	8
	5	75	94921.88	595.0109	-14674.47	1	14686.53	-87.67808	-2.716469E-005	0.0097475	8
	6	83	75421.88	597.0442	-18103.06	1	18112.91	-88.11105	1.784439E-005	0.0001815	8
	7	91	59859.37	1670.079	-23706.7	1	23765.45	-85.97031	-9.518873E-006	-0.0021181	8
	8	99	47578.12	4011.214	-29845.72	1	30114.07	-82.34541	7.673849E-006	-0.0187555	7
	9	107	37828.12	4345.176	-37044.36	1	37298.33	-83.30997	-5.448075E-006	0.0271466	7
	10	114	30046.88	4649.597	-46405.59	1	46637.94	-84.27836	-1.828034E-006	0.0222875	7
	11	121	23859.38	4643.019	-57419.63	1	57607.04	-85.37705	-3.771987E-006	0.0254935	7
	12	127	18984.38	4574.09	-71758.16	1	71903.79	-86.35272	-1.064805E-006	-0.0135324	7
	13	132	15046.87	-1216.694	-86358.18	1	86366.75	-90.80718	-2.426134E-005	0.0053055	8
	14	140	11953.13	4489.224	-114571.4	1	114659.3	-87.75614	-1.157496E-006	-0.0051741	8
	15	147	9515.62	3421.788	-143723.2	1	143763.9	-88.63615	-7.315544E-006	0.0232725	7
	16	154	7546.875	-3139.573	-187476.4	1	187502.6	-90.95941	4.973185E-006	-0.0006893	7
	17	160	5928.309	-57.0704	-227080.2	1	227080.2	-90.0144	4.996683E-006	-0.0007291	7
	18	167	4733.456	18490.48	-299871.5	1	300441	-86.47153	-7.45891E-006	0.0191607	7
	19	172	3796.875	1723.927	-358419.9	1	358424	-89.72442	-6.815676E-006	0.0121518	7
	20	178	2987.132	83471.69	-404040.4	1	412572.6	-78.32734	5.405094E-006	-0.0271431	7
	21	185	2390.625	-2719388	604682.1	1	2785805	167.4637	-1.208771E-006	-0.005138	8
	22	192	1884.191	-232284.7	-593139.1	1	637000.9	-111.3863	-7.339185E-006	0.0238038	7
	23	201	1516.544	-131110.5	-870448	1	880266.8	-98.5657	5.020406E-006	-0.0007478	7
	24	208	1193.986	108637.3	-760817.3	1	768534.4	-81.87366	4.865929E-007	0.016536	7
	25	217	946.5144	-188373.7	-820139.8	1	841495.1	-102.9356	-3.739832E-006	0.0255756	7
	26	222	751.7689	447269.1	-68463.88	1	452478.6	-8.702765	-2.030616E-005	0.0028188	8
	27	229	597.4265	-48204.33	-672680.9	1	674405.9	-94.09881	2.841828E-006	0.0086601	7
	28	235	477.4305	52717.95	-2799036	1	2799533	-88.921	-9.755119E-008	0.0006614	7
	29	239	376.6741	479818	-3652881	1	3684259	-82.51685	-1.035355E-009	0.0006739	5
	30	243	298.2954	505637.1	-4547469	1	4575494	-83.6553	-1.038707E-009	0.0006962	5
	31	246	237.7717	543009.6	-5537942	1	5564500	-84.3999	-1.063491E-009	0.0006689	5
	32	248	189.0121	567905.7	-7044626	1	7067480	-85.39104	-1.026042E-009	0.0006184	5
	33	251	150.2404	686721	-8482746	1	8510497	-85.37171	-1.038835E-009	0.0006261	5
	34	254	119.1737	-3492510	-1.483954E+007	1	1.524499E+007	-103.2436	-9.256017E-010	0.0005993	5
	35	257	95.0169	1118546	-1.378794E+007	1	1.383323E+007	-85.36204	-9.824062E-010	0.0005984	5
	36	259	75.60484	1025851	-1.665938E+007	1	1.669093E+007	-86.47629	-9.102479E-010	0.0006042	5
	37	262	54.50582	1300635	-2.390498E+007	1	2.394033E+007	-86.88569	-1.026994E-009	0.0006846	5
	38	266	45.95588	2239730	-2.933562E+007	1	2.9421E+007	-85.63403	-9.549712E-010	0.0006047	5
	39	269	37.20238	-779275.5	-3.357899E+007	1	3.358803E+007	-91.32944	-9.85246E-010	0.0006114	5
	40	273	30.04808	1111022	-4.293656E+007	1	4.295093E+007	-88.51775	-1.002518E-009	0.0006166	5
	41	277	23.91582	7017929	-5.760983E+007	1	5.803571E+007	-83.05455	-8.593314E-011	0.0006538	4
	42	281	18.60119	3.111219E+007	-7.857267E+007	1	8.450818E+007	-68.39806	3.016279E-011	0.0006094	4
	43	285	15.02404	7295916	-8.502631E+007	1	8.533876E+007	-85.09559	-1.054387E-010	0.0006154	4
	44	288	12.01923	1.225905E+007	-1.04628E+008	1	1.053438E+008	-83.31724	-9.452834E-011	0.0007016	4
	45	292	9.450605	7153711	-1.334395E+008	1	1.336311E+008	-86.9313	-1.076923E-010	0.0005979	4
	46	296	7.512019	7634928	-1.685824E+008	1	1.687552E+008	-87.40691	-1.09973E-010	0.0007492	4
	47	300	5.978954	2.178378E+007	-2.067041E+008	1	2.078488E+008	-83.98402	-1.008042E-010	0.0006998	4
	48	306	4.734848	5.255574E+007	-2.808362E+008	1	2.857115E+008	-79.40026	-1.763888E-011	0.0007294	3
	49	311	3.75601	1.683468E+007	-3.306786E+008	1	3.311069E+008	-87.08562	-9.732651E-010	0.0006001	5
	50	319	3.004808	3.064963E+007	-3.994447E+008	1	4.006188E+008	-85.61226	-1.085026E-009	0.0006605	5
	51	328	2.372217	7.99129E+007	-5.316189E+008	1	5.375916E+008	-81.45131	-1.831052E-011	0.0007941	3
	52	334	1.878005	9.566109E+007	-6.636496E+008	1	6.705086E+008	-81.79765	-1.845676E-011	0.0006996	3
	53	344	1.512097	1.179454E+008	-8.144986E+008	1	8.22994E+008	-81.76042	-1.821118E-011	0.0007427	3
	54	351	1.201923	1.487076E+008	-1.016994E+009	1	1.027808E+009	-81.68101	-1.82959E-011	0.0006932	3
	55	362	0.956633	1.984894E+008	-1.264353E+009	1	1.279838E+009	-81.07801	-1.826534E-011	8.521815E-005	3
