EXPLAIN
TAG	EISPOT
TITLE	LABEL	Potentiostatic EIS	Test Identifier
DATE	LABEL	8/24/2020	Date
TIME	LABEL	16:41:11	Time
NOTES	NOTES	1	Notes...
	
PSTAT	PSTAT	REF3000-16137	Potentiostat
VDC	POTEN	0.00000E+000	T	DC Voltage (V)
FREQINIT	QUANT	3.00000E+005	Initial Freq. (Hz)
FREQFINAL	QUANT	1.00000E+000	Final Freq. (Hz)
PTSPERDEC	QUANT	1.00000E+001	Points/decade
VAC	QUANT	5.00000E+001	AC Voltage (mV rms)
AREA	QUANT	1.00000E+000	Sample Area (cm^2)
SPEED	SELECTOR	2	Optimize for:
ZGUESS	QUANT	1.00000E+003	Estimated Z (ohms)
EOC	QUANT	0	Open Circuit (V)
SEQUENCER	TOGGLE	TRUE	Run as Sequence
PSTATMODEL	IQUANT	5	Pstat Model
PSTATSECTION	LABEL	REF3000-16137	Pstat Section
PSTATSERIALNO	LABEL	16137	Pstat Serial Number
CTRLMODE	IQUANT	1	Control Mode
IESTAB	IQUANT	0	I/E Stability
CASPEED	IQUANT	1	Control Amp Speed
CONVENTION	IQUANT	1	Current Convention
ICHRANGE	IQUANT	2	Ich Range
ICHRANGEMODE	TOGGLE	F	Ich Auto Range
ICHOFFSETENABLE	TOGGLE	T	Ich Offset Enable
ICHOFFSET	QUANT	0	Ich Offset (V)
ICHFILTER	IQUANT	3	Ich Filter
VCHRANGE	IQUANT	2	Vch Range
VCHRANGEMODE	TOGGLE	F	Vch Auto Range
VCHOFFSETENABLE	TOGGLE	T	Vch Offset Enable
VCHOFFSET	QUANT	0	Vch Offset (V)
VCHFILTER	IQUANT	3	Vch Filter
ACHRANGE	IQUANT	2	Ach Range
ACHOFFSETENABLE	TOGGLE	F	Ach Offset Enable
ACHOFFSET	QUANT	0	Ach Offset (V)
ACHFILTER	IQUANT	3	Ach Filter
IERANGELOWERLIMIT	IQUANT	2	I/E Range Lower Limit
IERANGEMODE	TOGGLE	F	I/E AutoRange
IERANGE	IQUANT	11	I/E Range
POSFEEDENABLE	TOGGLE	F	Positive Feedback IR Comp
POSFEEDRESISTANCE	QUANT	0	Positive Feedback Resistance (ohm)
ACHSELECT	IQUANT	0	Ach Select
CABLEID	IQUANT	13	Cable ID
DCCALDATE	LABEL	7/31/2020	DC Calibration Date
ACCALDATE	LABEL	7/31/2020	AC Calibration Date
THERMOSELECT	IQUANT	1	Thermo Select
FRAMEWORKVERSION	QUANT	6.33	Framework Version
INSTRUMENTVERSION	LABEL	3.50	Instrument Version
COMPLIANCEVOLTAGE	IQUANT	0	Compliance Voltage
ZCURVE	TABLE
	Pt	Time	Freq	Zreal	Zimag	Zsig	Zmod	Zphz	Idc	Vdc	IERange
	#	s	Hz	ohm	ohm	V	ohm	°	A	V	#
	0	14	300046.9	-101.1454	-4799.753	1	4800.818	-91.20721	1.989079E-005	-0.001109	9
	1	28	238359.4	-107.7934	-5916.896	1	5917.878	-91.04369	-3.001896E-005	-0.0012304	9
	2	42	189328.1	-18.91827	-7382.441	1	7382.466	-90.14683	-6.240396E-005	0.0006134	9
	3	55	150421.9	-234.3604	-9535.69	1	9538.57	-91.40788	2.348264E-005	0.0010824	9
	4	65	119484.4	284.5717	-11370.13	1	11373.7	-88.5663	2.297681E-005	-0.0145649	8
	5	72	94921.88	619.1197	-14292.93	1	14306.33	-87.5197	8.385647E-006	0.004188	8
	6	81	75421.88	689.2691	-18092.06	1	18105.18	-87.81821	2.755547E-005	-0.0074745	8
	7	89	59859.37	973.509	-22740.09	1	22760.92	-87.54865	2.633951E-005	-0.0051915	8
	8	98	47578.12	1439.843	-28636.45	1	28672.63	-87.12159	-2.12302E-006	0.0078537	8
	9	108	37828.12	1461.311	-35340.61	1	35370.81	-87.63221	-2.666799E-005	0.007669	8
	10	116	30046.88	1060.493	-43836.88	1	43849.7	-88.61418	2.643688E-005	-0.0052232	8
	11	125	23859.38	63.76659	-59087.76	1	59087.8	-89.93816	2.651011E-005	-0.0053082	8
	12	131	18984.38	561.1235	-71376.48	1	71378.68	-89.54958	2.626797E-005	-0.0090955	8
	13	138	15046.87	-440.6822	-91721.8	1	91722.87	-90.27528	2.643484E-005	-0.0052894	8
	14	146	11953.13	-2382.373	-119461.2	1	119484.9	-91.14248	8.265589E-006	0.0042731	8
	15	153	9515.62	8769.847	-134264.1	1	134550.2	-86.26287	-2.724387E-005	0.0098224	8
	16	161	7546.875	20106.71	-179035.7	1	180161.2	-83.59221	8.672017E-006	0.0041624	8
	17	169	5928.309	9620	-239570.8	1	239763.8	-87.70052	-7.451443E-006	0.0191818	7
	18	174	4733.456	25032.7	-241792	1	243084.3	-84.08923	-2.66712E-005	0.0076997	8
	19	182	3796.875	64239.57	-340936.4	1	346935.7	-79.32938	8.3442E-006	0.004051	8
	20	190	2987.132	55931.65	-264684.5	1	270529.5	-78.06811	-9.672263E-006	-0.0021316	8
	21	198	2390.625	355445.4	360571.1	1	506313.1	45.41015	-2.688662E-005	0.0078029	8
	22	205	1884.191	374514.4	-188177.5	1	419132.2	-26.67758	-2.134734E-006	0.0078418	8
	23	214	1516.544	119890.3	-811854	1	820658.6	-81.59958	3.503129E-006	-0.024847	7
	24	221	1193.986	-187452.3	-1177497	1	1192325	-99.0453	5.049866E-006	-0.0008181	7
	25	228	946.5144	195950.7	307034.7	1	364234.8	57.45382	1.764658E-005	0.0003861	8
	26	235	751.7689	-457345.5	-729932.9	1	861375	-122.0695	-5.377031E-006	0.0034248	7
	27	241	597.4265	-709622.9	-2077133	1	2195005	-108.862	5.014442E-006	-0.0010137	7
	28	247	477.4305	813678.3	-2536755	1	2664057	-72.21606	-9.591625E-008	0.0006306	7
	29	254	376.6741	1580156	-3030166	1	3417426	-62.45909	-9.921414E-010	0.0005975	5
	30	258	298.2954	2085327	-3552174	1	4119045	-59.58465	-1.055505E-009	0.0006957	5
	31	262	237.7717	2691672	-3972611	1	4798619	-55.8801	-9.600084E-010	0.0006179	5
	32	265	189.0121	3583743	-4460947	1	5722172	-51.22303	-1.010749E-009	0.0006509	5
	33	268	150.2404	4644639	-5020193	1	6839226	-47.22527	-1.021104E-009	0.0006833	5
	34	271	119.1737	7286580	-3581748	1	8119309	-26.17661	-1.098431E-009	0.0006438	5
	35	273	95.0169	6762572	-4801591	1	8293832	-35.37568	-1.048271E-009	0.0006715	5
	36	276	75.60484	7527842	-4590449	1	8817065	-31.37468	-1.0272E-009	0.0005987	5
	37	279	54.50582	8975113	-4013804	1	9.831748E+006	-24.0949	-9.784279E-010	0.0006035	5
	38	282	45.95588	1.055203E+007	-2814854	1	1.092102E+007	-14.93639	-1.123921E-010	0.0007022	4
	39	285	37.20238	1.086645E+007	-2155667	1	1.107821E+007	-11.22056	-1.397356E-010	0.0006202	4
	40	287	30.04808	1.114624E+007	-2014999	1	1.132691E+007	-10.24717	-1.163976E-010	0.0007036	4
	41	290	23.91582	1.133134E+007	-1848530	1	1.148113E+007	-9.265288	-1.339132E-010	0.0006246	4
	42	293	18.60119	1.127221E+007	-1997846	1	1.144788E+007	-10.05053	-2.257743E-010	0.0006284	4
	43	295	15.02404	1.175534E+007	-1321024	1	1.182933E+007	-6.411801	-7.492122E-011	0.0006257	4
	44	298	12.01923	1.206601E+007	-1231524	1	1.21287E+007	-5.827743	-1.262523E-010	0.0006566	4
	45	300	9.450605	1.225681E+007	-1172541	1	1.231277E+007	-5.464537	-1.541982E-010	0.0006082	4
	46	303	7.512019	1.253991E+007	-1099923	1	1.258806E+007	-5.012799	-1.423674E-010	0.0006822	4
	47	306	5.978954	1.278843E+007	-1162945	1	1.28412E+007	-5.196029	-9.424473E-011	0.0006234	4
	48	311	4.734848	1.314492E+007	-1144663	1	1.319467E+007	-4.976777	-1.349852E-010	0.0006822	4
	49	315	3.75601	1.357059E+007	-1206779	1	1.362414E+007	-5.081719	-1.579552E-010	0.0006837	4
	50	320	3.004808	1.408214E+007	-1247282	1	1.413727E+007	-5.061588	-1.425335E-010	0.0006876	4
	51	327	2.372217	1.45835E+007	-1417438	1	1.465222E+007	-5.551406	-1.388888E-010	0.0007134	4
	52	331	1.878005	1.506199E+007	-1573475	1	1.514395E+007	-5.963866	-1.731048E-010	0.0006335	4
	53	336	1.512097	1.561068E+007	-1742913	1	1.570767E+007	-6.370622	-1.81068E-010	0.0006398	4
	54	341	1.201923	1.624167E+007	-1975751	1	1.63614E+007	-6.935785	-1.483147E-010	0.0006236	4
	55	347	0.956633	1.699806E+007	-2232836	1	1.714408E+007	-7.483431	-1.975631E-010	1.561375E-005	4
