EXPLAIN
TAG	EISPOT
TITLE	LABEL	Potentiostatic EIS	Test Identifier
DATE	LABEL	8/24/2020	Date
TIME	LABEL	17:53:29	Time
NOTES	NOTES	1	Notes...
	
PSTAT	PSTAT	REF3000-16137	Potentiostat
VDC	POTEN	0.00000E+000	T	DC Voltage (V)
FREQINIT	QUANT	3.00000E+005	Initial Freq. (Hz)
FREQFINAL	QUANT	1.00000E+000	Final Freq. (Hz)
PTSPERDEC	QUANT	1.00000E+001	Points/decade
VAC	QUANT	5.00000E+001	AC Voltage (mV rms)
AREA	QUANT	1.00000E+000	Sample Area (cm^2)
SPEED	SELECTOR	2	Optimize for:
ZGUESS	QUANT	1.00000E+003	Estimated Z (ohms)
EOC	QUANT	0	Open Circuit (V)
SEQUENCER	TOGGLE	TRUE	Run as Sequence
PSTATMODEL	IQUANT	5	Pstat Model
PSTATSECTION	LABEL	REF3000-16137	Pstat Section
PSTATSERIALNO	LABEL	16137	Pstat Serial Number
CTRLMODE	IQUANT	1	Control Mode
IESTAB	IQUANT	0	I/E Stability
CASPEED	IQUANT	1	Control Amp Speed
CONVENTION	IQUANT	1	Current Convention
ICHRANGE	IQUANT	2	Ich Range
ICHRANGEMODE	TOGGLE	F	Ich Auto Range
ICHOFFSETENABLE	TOGGLE	T	Ich Offset Enable
ICHOFFSET	QUANT	0	Ich Offset (V)
ICHFILTER	IQUANT	3	Ich Filter
VCHRANGE	IQUANT	2	Vch Range
VCHRANGEMODE	TOGGLE	F	Vch Auto Range
VCHOFFSETENABLE	TOGGLE	T	Vch Offset Enable
VCHOFFSET	QUANT	0	Vch Offset (V)
VCHFILTER	IQUANT	3	Vch Filter
ACHRANGE	IQUANT	2	Ach Range
ACHOFFSETENABLE	TOGGLE	F	Ach Offset Enable
ACHOFFSET	QUANT	0	Ach Offset (V)
ACHFILTER	IQUANT	3	Ach Filter
IERANGELOWERLIMIT	IQUANT	2	I/E Range Lower Limit
IERANGEMODE	TOGGLE	F	I/E AutoRange
IERANGE	IQUANT	11	I/E Range
POSFEEDENABLE	TOGGLE	F	Positive Feedback IR Comp
POSFEEDRESISTANCE	QUANT	0	Positive Feedback Resistance (ohm)
ACHSELECT	IQUANT	0	Ach Select
CABLEID	IQUANT	13	Cable ID
DCCALDATE	LABEL	7/31/2020	DC Calibration Date
ACCALDATE	LABEL	7/31/2020	AC Calibration Date
THERMOSELECT	IQUANT	1	Thermo Select
FRAMEWORKVERSION	QUANT	6.33	Framework Version
INSTRUMENTVERSION	LABEL	3.50	Instrument Version
COMPLIANCEVOLTAGE	IQUANT	0	Compliance Voltage
ZCURVE	TABLE
	Pt	Time	Freq	Zreal	Zimag	Zsig	Zmod	Zphz	Idc	Vdc	IERange
	#	s	Hz	ohm	ohm	V	ohm	°	A	V	#
	0	7	300046.9	88.32451	-4.733176	1	88.45124	-3.06746	-7.996057E-005	0.0025852	9
	1	10	238359.4	89.05016	-6.217953	1	89.26698	-3.994211	7.192585E-005	-0.0025098	9
	2	13	189328.1	89.93945	-7.537621	1	90.25475	-4.790634	1.651554E-005	-0.001131	9
	3	15	150421.9	90.5841	-9.069247	1	91.03697	-5.71738	1.546588E-005	-0.0011865	9
	4	18	119484.4	91.79141	-10.66253	1	92.40862	-6.625808	1.771399E-005	-0.0004625	9
	5	21	94921.88	93.04716	-12.21786	1	93.84589	-7.480614	-2.908398E-006	-0.0002602	9
	6	23	75421.88	94.30932	-14.29112	1	95.386	-8.616735	-1.792515E-005	0.0003844	9
	7	26	59859.37	95.7853	-16.5946	1	97.2122	-9.82881	1.903681E-005	-0.0007208	9
	8	28	47578.12	97.4638	-19.18242	1	99.3336	-11.1344	-1.349937E-005	0.0001067	9
	9	31	37828.12	99.2089	-22.03176	1	101.6258	-12.52074	-9.352169E-006	4.72439E-006	9
	10	33	30046.88	101	-25.34793	1	104.1322	-14.08852	1.238661E-005	0.0001684	9
	11	36	23859.38	102.7744	-29.30466	1	106.8707	-15.91474	2.305594E-005	-0.0001718	9
	12	38	18984.38	104.5277	-34.02567	1	109.9263	-18.031	5.693521E-006	-0.0004887	9
	13	40	15046.87	106.1016	-40.10308	1	113.4276	-20.70502	2.303828E-005	-0.0002629	9
	14	43	11953.13	107.7255	-47.71708	1	117.8207	-23.89098	1.745241E-005	-0.000644	9
	15	45	9515.62	109.1294	-57.41453	1	123.3112	-27.7495	1.991088E-005	-0.0001134	9
	16	47	7546.875	110.6346	-69.84818	1	130.8388	-32.2659	-2.010719E-005	0.000615	9
	17	50	5928.309	112.6333	-86.32494	1	141.9093	-37.46746	-1.889261E-005	0.0004981	9
	18	52	4733.456	114.6163	-105.4618	1	155.7533	-42.61806	1.780707E-005	-0.0006714	9
	19	54	3796.875	117.2048	-128.9539	1	174.2586	-47.73265	-1.051391E-005	0.0008087	9
	20	57	2987.132	120.2064	-161.5574	1	201.3712	-53.34898	-5.172704E-006	0.0006906	9
	21	59	2390.625	123.9664	-198.7743	1	234.2624	-58.05009	-2.017648E-005	0.000758	9
	22	61	1884.191	130.1251	-247.7774	1	279.8681	-62.29293	1.816181E-005	-0.0006951	9
	23	64	1516.544	135.9815	-304.4167	1	333.4074	-65.92992	3.386946E-006	0.0004512	9
	24	66	1193.986	145.7318	-380.2893	1	407.2563	-69.03252	1.918443E-005	-0.0001385	9
	25	68	946.5144	157.6802	-469.9468	1	495.6945	-71.45197	-5.344622E-006	0.0021332	8
	26	71	751.7689	172.9928	-583.3459	1	608.4562	-73.48213	2.893041E-006	-0.0011618	8
	27	73	597.4265	194.2358	-721.2905	1	746.9857	-74.92839	-2.914538E-006	0.0005998	8
	28	75	477.4305	220.9652	-887.2573	1	914.3583	-76.01537	1.932626E-007	0.0006448	8
	29	78	376.6741	258.5198	-1103.562	1	1133.438	-76.81566	1.824315E-007	0.0006382	8
	30	80	298.2954	307.7676	-1366.546	1	1400.774	-77.30785	2.050509E-007	0.0006444	8
	31	82	237.7717	371.561	-1679.998	1	1720.596	-77.52879	1.989346E-007	0.0006438	8
	32	85	189.0121	457.6849	-2067.905	1	2117.948	-77.52003	1.92192E-007	0.0006524	8
	33	87	150.2404	573.7601	-2541.145	1	2605.114	-77.27665	2.041864E-007	0.0006438	8
	34	90	119.1737	732.3161	-3122.398	1	3207.126	-76.80062	2.15678E-007	0.0006462	8
	35	92	95.0169	941.3363	-3809.834	1	3924.404	-76.12129	1.972093E-007	0.0006495	8
	36	95	75.60484	1230.752	-4652.336	1	4812.378	-75.18214	-2.983127E-008	0.0006219	7
	37	97	54.50582	1826.512	-6132.954	1	6399.162	-73.41546	-3.04857E-008	0.000618	7
	38	100	45.95588	2255.495	-7053.753	1	7405.585	-72.2679	-1.972008E-008	0.0006227	7
	39	102	37.20238	2939.649	-8350.145	1	8852.482	-70.6055	-2.249611E-008	0.0006218	7
	40	104	30.04808	3844.06	-9821.32	1	10546.81	-68.62466	-3.122713E-008	0.0006201	7
	41	107	23.91582	5104.756	-11584.7	1	12659.54	-66.21949	-3.192817E-008	0.0006168	7
	42	109	18.60119	6894.444	-13694.36	1	15331.96	-63.27697	-4.009331E-008	0.0006325	7
	43	111	15.02404	8869.893	-15546.37	1	17898.73	-60.29333	-2.163949E-008	0.000642	7
	44	114	12.01923	11363.41	-17434.92	1	20811.14	-56.90524	-3.159692E-008	0.0006236	7
	45	116	9.450605	14545.43	-19301.17	1	24168.26	-52.99819	-3.856105E-008	0.000612	7
	46	119	7.512019	18066.1	-20765.07	1	27524.03	-48.97596	-4.160059E-008	0.0006171	7
	47	122	5.978954	21782.14	-21697.78	1	30745	-44.88882	-4.163036E-008	0.0006309	7
	48	125	4.734848	25754.93	-22092.52	1	33932.23	-40.62292	-4.067881E-008	0.0006096	7
	49	128	3.75601	29578.33	-21730.53	1	36702.78	-36.30388	-4.164503E-008	0.000633	7
	50	133	3.004808	32936.65	-20942.08	1	39030.68	-32.44939	-6.277431E-008	0.0007044	6
	51	140	2.372217	36406.22	-20185.57	1	41627.76	-29.00635	-7.175733E-008	0.0006589	6
	52	144	1.878005	38726.85	-18078.29	1	42738.66	-25.02389	-7.462197E-008	0.0006669	6
	53	153	1.512097	40523.52	-16551.55	1	43773.38	-22.21722	-7.586525E-008	0.0005752	6
	54	164	1.201923	42069.26	-14878.23	1	44622.69	-19.47667	-8.097273E-008	0.0006673	6
	55	177	0.956633	43254.19	-13268.31	1	45243.49	-17.0535	-9.938103E-008	4.034943E-005	6
