EXPLAIN
TAG	EISPOT
TITLE	LABEL	Potentiostatic EIS	Test Identifier
DATE	LABEL	8/24/2020	Date
TIME	LABEL	17:59:43	Time
NOTES	NOTES	1	Notes...
	
PSTAT	PSTAT	REF3000-16137	Potentiostat
VDC	POTEN	0.00000E+000	T	DC Voltage (V)
FREQINIT	QUANT	3.00000E+005	Initial Freq. (Hz)
FREQFINAL	QUANT	1.00000E+000	Final Freq. (Hz)
PTSPERDEC	QUANT	1.00000E+001	Points/decade
VAC	QUANT	5.00000E+001	AC Voltage (mV rms)
AREA	QUANT	1.00000E+000	Sample Area (cm^2)
SPEED	SELECTOR	2	Optimize for:
ZGUESS	QUANT	1.00000E+003	Estimated Z (ohms)
EOC	QUANT	0	Open Circuit (V)
SEQUENCER	TOGGLE	TRUE	Run as Sequence
PSTATMODEL	IQUANT	5	Pstat Model
PSTATSECTION	LABEL	REF3000-16137	Pstat Section
PSTATSERIALNO	LABEL	16137	Pstat Serial Number
CTRLMODE	IQUANT	1	Control Mode
IESTAB	IQUANT	0	I/E Stability
CASPEED	IQUANT	1	Control Amp Speed
CONVENTION	IQUANT	1	Current Convention
ICHRANGE	IQUANT	2	Ich Range
ICHRANGEMODE	TOGGLE	F	Ich Auto Range
ICHOFFSETENABLE	TOGGLE	T	Ich Offset Enable
ICHOFFSET	QUANT	0	Ich Offset (V)
ICHFILTER	IQUANT	3	Ich Filter
VCHRANGE	IQUANT	2	Vch Range
VCHRANGEMODE	TOGGLE	F	Vch Auto Range
VCHOFFSETENABLE	TOGGLE	T	Vch Offset Enable
VCHOFFSET	QUANT	0	Vch Offset (V)
VCHFILTER	IQUANT	3	Vch Filter
ACHRANGE	IQUANT	2	Ach Range
ACHOFFSETENABLE	TOGGLE	F	Ach Offset Enable
ACHOFFSET	QUANT	0	Ach Offset (V)
ACHFILTER	IQUANT	3	Ach Filter
IERANGELOWERLIMIT	IQUANT	2	I/E Range Lower Limit
IERANGEMODE	TOGGLE	F	I/E AutoRange
IERANGE	IQUANT	11	I/E Range
POSFEEDENABLE	TOGGLE	F	Positive Feedback IR Comp
POSFEEDRESISTANCE	QUANT	0	Positive Feedback Resistance (ohm)
ACHSELECT	IQUANT	0	Ach Select
CABLEID	IQUANT	13	Cable ID
DCCALDATE	LABEL	7/31/2020	DC Calibration Date
ACCALDATE	LABEL	7/31/2020	AC Calibration Date
THERMOSELECT	IQUANT	1	Thermo Select
FRAMEWORKVERSION	QUANT	6.33	Framework Version
INSTRUMENTVERSION	LABEL	3.50	Instrument Version
COMPLIANCEVOLTAGE	IQUANT	0	Compliance Voltage
ZCURVE	TABLE
	Pt	Time	Freq	Zreal	Zimag	Zsig	Zmod	Zphz	Idc	Vdc	IERange
	#	s	Hz	ohm	ohm	V	ohm	°	A	V	#
	0	7	300046.9	87.90244	-4.755186	1	88.03096	-3.096464	-1.436122E-005	0.0007795	9
	1	10	238359.4	88.65992	-6.26802	1	88.88121	-4.043931	1.226749E-005	-0.0011285	9
	2	13	189328.1	89.50915	-7.520085	1	89.82449	-4.802411	1.216136E-005	-0.0008967	9
	3	16	150421.9	90.39085	-8.936375	1	90.83151	-5.646126	2.05136E-005	-0.0005921	9
	4	18	119484.4	91.47681	-10.82065	1	92.11456	-6.746085	-6.862469E-005	0.0028013	9
	5	21	94921.88	92.6753	-12.21692	1	93.47708	-7.509714	1.901373E-005	-0.0006563	9
	6	24	75421.88	93.98716	-14.28311	1	95.0663	-8.641053	-1.789448E-005	0.0008063	9
	7	26	59859.37	95.4353	-16.54785	1	96.8593	-9.8369	1.257402E-005	0.0001553	9
	8	29	47578.12	97.0818	-19.05984	1	98.9351	-11.10748	-1.454804E-005	0.0002036	9
	9	31	37828.12	98.8001	-21.96017	1	101.2112	-12.53135	-1.498226E-005	0.0001732	9
	10	34	30046.88	100.6576	-25.25165	1	103.7766	-14.08298	4.53299E-006	-0.0004577	9
	11	36	23859.38	102.4643	-29.20591	1	106.5453	-15.90941	1.753373E-005	-0.0006874	9
	12	39	18984.38	104.1712	-34.04076	1	109.592	-18.09621	3.337385E-006	0.0003956	9
	13	41	15046.87	105.7082	-40.05788	1	113.0436	-20.75409	4.04178E-006	0.0004589	9
	14	43	11953.13	107.3208	-47.79067	1	117.4806	-24.00374	-2.09048E-007	-0.0003237	9
	15	45	9515.62	108.7471	-57.44374	1	122.9866	-27.84447	-4.92085E-006	0.000631	9
	16	48	7546.875	110.3018	-69.88106	1	130.575	-32.35607	2.43795E-005	-0.0004382	9
	17	50	5928.309	112.0454	-86.42465	1	141.504	-37.64429	1.831554E-005	-0.0006929	9
	18	52	4733.456	114.1978	-105.8578	1	155.7145	-42.82954	1.944467E-005	-0.0001367	9
	19	55	3796.875	116.3245	-129.4933	1	174.0686	-48.06647	-2.074277E-005	0.0006327	9
	20	57	2987.132	119.8725	-161.6851	1	201.2746	-53.44694	2.25009E-005	-0.0002874	9
	21	59	2390.625	123.7416	-198.8253	1	234.1868	-58.10337	-4.656028E-006	0.0007089	9
	22	62	1884.191	129.4218	-247.1926	1	279.0236	-62.36494	1.922414E-005	-0.0001305	9
	23	64	1516.544	136.2598	-304.2019	1	333.325	-65.87117	1.243848E-005	-0.0006285	9
	24	66	1193.986	144.9709	-381.0723	1	407.7164	-69.17174	3.657086E-006	0.0004461	9
	25	69	946.5144	156.2943	-472.0287	1	497.2313	-71.67968	6.470655E-006	-0.0009848	8
	26	71	751.7689	172.5659	-583.7521	1	608.7245	-73.53152	9.371992E-007	-0.0006664	8
	27	74	597.4265	191.8652	-723.902	1	748.8968	-75.15546	-1.096262E-006	0.0021937	8
	28	76	477.4305	219.6651	-889.4817	1	916.2043	-76.12789	2.024376E-007	0.0006453	8
	29	78	376.6741	256.8693	-1106.568	1	1135.99	-76.9313	2.050338E-007	0.0006405	8
	30	80	298.2954	305.5845	-1370.282	1	1403.943	-77.42828	2.04183E-007	0.0006401	8
	31	83	237.7717	368.5691	-1684.821	1	1724.663	-77.66044	2.116958E-007	0.000641	8
	32	85	189.0121	453.6454	-2074.151	1	2123.181	-77.6629	1.87007E-007	0.0006515	8
	33	88	150.2404	567.7608	-2549.447	1	2611.902	-77.44513	2.119722E-007	0.0006447	8
	34	90	119.1737	722.914	-3135.092	1	3217.36	-77.01525	2.123335E-007	0.0006453	8
	35	92	95.0169	929.1982	-3826.764	1	3937.96	-76.35182	2.019043E-007	0.0006604	8
	36	95	75.60484	1213.736	-4677.601	1	4832.505	-75.45378	-2.101297E-008	0.0006225	7
	37	98	54.50582	1799.809	-6172.295	1	6429.35	-73.74359	-1.92314E-008	0.0006127	7
	38	100	45.95588	2218.602	-7108.82	1	7446.98	-72.6673	-2.155218E-008	0.0006784	7
	39	102	37.20238	2888.18	-8425.488	1	8906.764	-71.07876	-2.289651E-008	0.0006268	7
	40	105	30.04808	3772.607	-9924.21	1	10617.09	-69.18611	-2.014272E-008	0.0006326	7
	41	107	23.91582	5032.55	-11737.98	1	12771.32	-66.79321	-1.724166E-008	0.0006155	7
	42	110	18.60119	6792.644	-13927.51	1	15495.66	-64.00085	-3.28274E-008	0.0006239	7
	43	112	15.02404	8759.028	-15866.72	1	18123.83	-61.09964	-8.256181E-009	0.0006292	7
	44	114	12.01923	11268.91	-17897.63	1	21149.79	-57.80419	-3.222324E-008	0.0006177	7
	45	117	9.450605	14488.64	-19902.68	1	24617.82	-53.94633	-1.841967E-008	0.0006269	7
	46	119	7.512019	18052.12	-21551.33	1	28112.96	-50.04933	-1.695449E-008	0.000636	7
	47	122	5.978954	21954.6	-22697.44	1	31578.13	-45.9531	-2.396184E-008	0.000629	7
	48	125	4.734848	26078.79	-23279.1	1	34957.4	-41.75353	-1.78104E-008	0.0006488	7
	49	128	3.75601	30133.23	-22971.15	1	37890.44	-37.31898	-3.221252E-008	0.0006118	7
	50	134	3.004808	33808.22	-22355.49	1	40531.02	-33.47444	-5.504862E-008	0.0006858	6
	51	140	2.372217	37489.12	-21541.57	1	43237.41	-29.88205	-5.572995E-008	0.0007391	6
	52	144	1.878005	40107.85	-19444.43	1	44572.7	-25.86427	-6.380768E-008	0.0006515	6
	53	153	1.512097	42155.32	-17874.53	1	45788.32	-22.97772	-6.391578E-008	0.0007237	6
	54	164	1.201923	43787.11	-16027.55	1	46628.25	-20.10432	-6.675331E-008	0.0006456	6
	55	177	0.956633	45263.48	-14392	1	47496.45	-17.63861	-9.197208E-008	7.687146E-005	6
