EXPLAIN
TAG	EISPOT
TITLE	LABEL	Potentiostatic EIS	Test Identifier
DATE	LABEL	8/24/2020	Date
TIME	LABEL	17:35:33	Time
NOTES	NOTES	1	Notes...
	
PSTAT	PSTAT	REF3000-16137	Potentiostat
VDC	POTEN	0.00000E+000	T	DC Voltage (V)
FREQINIT	QUANT	3.00000E+005	Initial Freq. (Hz)
FREQFINAL	QUANT	1.00000E+000	Final Freq. (Hz)
PTSPERDEC	QUANT	1.00000E+001	Points/decade
VAC	QUANT	5.00000E+001	AC Voltage (mV rms)
AREA	QUANT	1.00000E+000	Sample Area (cm^2)
SPEED	SELECTOR	2	Optimize for:
ZGUESS	QUANT	1.00000E+003	Estimated Z (ohms)
EOC	QUANT	0	Open Circuit (V)
SEQUENCER	TOGGLE	TRUE	Run as Sequence
PSTATMODEL	IQUANT	5	Pstat Model
PSTATSECTION	LABEL	REF3000-16137	Pstat Section
PSTATSERIALNO	LABEL	16137	Pstat Serial Number
CTRLMODE	IQUANT	1	Control Mode
IESTAB	IQUANT	0	I/E Stability
CASPEED	IQUANT	1	Control Amp Speed
CONVENTION	IQUANT	1	Current Convention
ICHRANGE	IQUANT	2	Ich Range
ICHRANGEMODE	TOGGLE	F	Ich Auto Range
ICHOFFSETENABLE	TOGGLE	T	Ich Offset Enable
ICHOFFSET	QUANT	0	Ich Offset (V)
ICHFILTER	IQUANT	3	Ich Filter
VCHRANGE	IQUANT	2	Vch Range
VCHRANGEMODE	TOGGLE	F	Vch Auto Range
VCHOFFSETENABLE	TOGGLE	T	Vch Offset Enable
VCHOFFSET	QUANT	0	Vch Offset (V)
VCHFILTER	IQUANT	3	Vch Filter
ACHRANGE	IQUANT	2	Ach Range
ACHOFFSETENABLE	TOGGLE	F	Ach Offset Enable
ACHOFFSET	QUANT	0	Ach Offset (V)
ACHFILTER	IQUANT	3	Ach Filter
IERANGELOWERLIMIT	IQUANT	2	I/E Range Lower Limit
IERANGEMODE	TOGGLE	F	I/E AutoRange
IERANGE	IQUANT	11	I/E Range
POSFEEDENABLE	TOGGLE	F	Positive Feedback IR Comp
POSFEEDRESISTANCE	QUANT	0	Positive Feedback Resistance (ohm)
ACHSELECT	IQUANT	0	Ach Select
CABLEID	IQUANT	13	Cable ID
DCCALDATE	LABEL	7/31/2020	DC Calibration Date
ACCALDATE	LABEL	7/31/2020	AC Calibration Date
THERMOSELECT	IQUANT	1	Thermo Select
FRAMEWORKVERSION	QUANT	6.33	Framework Version
INSTRUMENTVERSION	LABEL	3.50	Instrument Version
COMPLIANCEVOLTAGE	IQUANT	0	Compliance Voltage
ZCURVE	TABLE
	Pt	Time	Freq	Zreal	Zimag	Zsig	Zmod	Zphz	Idc	Vdc	IERange
	#	s	Hz	ohm	ohm	V	ohm	°	A	V	#
	0	14	300046.9	1099.327	-4490.556	1	4623.16	-76.24405	9.147866E-005	-0.0027547	9
	1	28	238359.4	2213.089	-5100.979	1	5560.373	-66.54611	-2.65457E-006	-0.0020143	9
	2	45	189328.1	3286.361	-4940.931	1	5934.052	-56.37093	2.314989E-005	0.0010283	9
	3	56	150421.9	4611.871	-4600.817	1	6514.358	-44.93126	8.886456E-005	-0.0024893	9
	4	64	119484.4	5474.956	-3906.04	1	6725.496	-35.50549	6.372354E-005	-0.0257238	8
	5	71	94921.88	5864.822	-3052.651	1	6611.718	-27.49706	-2.604432E-005	0.0094527	8
	6	79	75421.88	5817.685	-2268.081	1	6244.169	-21.29881	2.249113E-005	-0.0029564	8
	7	86	59859.37	5572.287	-1614.07	1	5801.345	-16.1542	2.527246E-005	-0.0050994	8
	8	94	47578.12	5234.242	-1143.795	1	5357.757	-12.3266	1.702363E-005	6.245289E-005	8
	9	101	37828.12	4806.984	-807.9159	1	4874.405	-9.54061	-2.306554E-005	0.0052561	8
	10	108	30046.88	4441.595	-600.9575	1	4482.066	-7.70545	2.481152E-005	-0.0050795	8
	11	115	23859.38	4139.972	-470.3077	1	4166.6	-6.481111	-2.271483E-005	0.0052357	8
	12	120	18984.38	3898.85	-409.3593	1	3920.281	-5.993804	-1.378097E-006	0.0070566	8
	13	126	15046.87	3803.305	-223.1859	1	3809.848	-3.358384	4.823718E-006	-0.0230226	7
	14	129	11953.13	3532.433	-347.5044	1	3549.485	-5.618415	8.426072E-006	0.0035865	8
	15	134	9515.62	3338.232	-349.3644	1	3356.464	-5.974569	2.195252E-005	-0.0028736	8
	16	140	7546.875	3157.54	-362.748	1	3178.308	-6.553586	2.220958E-005	-0.002801	8
	17	145	5928.309	3004.428	-369.0825	1	3027.014	-7.003477	2.519868E-005	-0.0002031	9
	18	150	4733.456	2843.587	-399.4217	1	2871.502	-7.995686	-1.907749E-005	0.0030243	8
	19	156	3796.875	2719.129	-419.4749	1	2751.295	-8.769776	2.526698E-005	-0.0002365	9
	20	161	2987.132	2595.637	-456.5484	1	2635.482	-9.97576	6.030977E-006	-0.0064766	8
	21	166	2390.625	2481.511	-479.84	1	2527.478	-10.94399	-1.792632E-006	-0.0041243	8
	22	172	1884.191	2409.365	-558.8381	1	2473.325	-13.05851	-2.122031E-006	-0.0040326	8
	23	177	1516.544	2335.583	-596.1008	1	2410.454	-14.31769	-1.949835E-005	0.0003002	9
	24	183	1193.986	2250.099	-654.4314	1	2343.336	-16.21684	5.115135E-009	-0.0005112	9
	25	188	946.5144	2218.532	-726.8503	1	2334.566	-18.14017	-1.518342E-005	0.0012912	8
	26	191	751.7689	2177.665	-851.141	1	2338.09	-21.34806	-9.274226E-006	-0.0012233	8
	27	193	597.4265	2165.931	-948.2589	1	2364.414	-23.64412	-1.566042E-005	0.0095383	8
	28	196	477.4305	2115.026	-1157.338	1	2410.968	-28.68739	-3.210361E-007	0.0006411	8
	29	199	376.6741	2096.51	-1403.988	1	2523.2	-33.80936	-2.758739E-007	0.0006194	8
	30	202	298.2954	2081.073	-1716.556	1	2697.671	-39.51722	-2.707484E-007	0.0006237	8
	31	204	237.7717	2070.021	-2101.988	1	2950.142	-45.43901	-3.137825E-007	0.0006477	8
	32	207	189.0121	2072.607	-2592.751	1	3319.347	-51.36168	-2.590134E-007	0.0006213	8
	33	209	150.2404	2092.89	-3207.219	1	3829.679	-56.8733	-3.154199E-007	0.0006619	8
	34	211	119.1737	2147.457	-3988.203	1	4529.606	-61.69966	-6.151502E-008	0.0006296	7
	35	214	95.0169	2226.633	-4927.25	1	5407.003	-65.6817	-5.809756E-008	0.0006049	7
	36	216	75.60484	2355.323	-6096.13	1	6535.316	-68.87528	-6.042396E-008	0.0006224	7
	37	219	54.50582	2680.437	-8260.087	1	8684.11	-72.02151	-6.41539E-008	0.0006369	7
	38	221	45.95588	2915.898	-9658.35	1	10088.92	-73.20071	-6.140122E-008	0.0006323	7
	39	224	37.20238	3323.963	-11706.4	1	12169.16	-74.14841	-6.211658E-008	0.0006205	7
	40	226	30.04808	3898.276	-14188.29	1	14714.07	-74.63689	-6.25909E-008	0.0006341	7
	41	228	23.91582	4743.946	-17360.62	1	17997.12	-74.71653	-6.473876E-008	0.0006428	7
	42	231	18.60119	6078.54	-21592.63	1	22431.9	-74.27757	-6.165661E-008	0.0006597	7
	43	233	15.02404	7595.378	-25870.51	1	26962.44	-73.63818	-6.051726E-008	0.0005862	7
	44	235	12.01923	9749.77	-31090.13	1	32583.04	-72.58875	-5.83927E-008	0.000636	7
	45	238	9.450605	12792.49	-37590.43	1	39707.53	-71.20592	-5.232583E-008	0.0005899	7
	46	240	7.512019	16669.84	-44678.45	1	47686.97	-69.53911	-9.833577E-009	0.0006784	6
	47	243	5.978954	21566.2	-52587.74	1	56838.11	-67.7015	-1.107043E-008	0.0006463	6
	48	246	4.734848	27908.96	-61564.21	1	67594.84	-65.61375	-1.640931E-008	0.0006761	6
	49	249	3.75601	35724.02	-70992	1	79473.7	-63.28792	-1.326509E-008	0.0006615	6
	50	253	3.004808	44912.42	-80532.23	1	92209.36	-60.85181	-1.595645E-008	0.0006402	6
	51	256	2.372217	56666.91	-90638.32	1	106894.5	-57.98645	-1.806367E-008	0.0005883	6
	52	261	1.878005	70363.41	-100206.7	1	122443.4	-54.92412	-1.90739E-008	0.0006612	6
	53	265	1.512097	84720.74	-107304.4	1	136718.1	-51.70763	-2.20151E-008	0.000614	6
	54	271	1.201923	101604.8	-113003.1	1	151964.6	-48.04024	-2.579948E-008	0.0006885	6
	55	277	0.956633	119584	-114916.7	1	165849.9	-43.85981	-3.304277E-008	1.939509E-005	6
