EXPLAIN
TAG	EISPOT
TITLE	LABEL	Potentiostatic EIS	Test Identifier
DATE	LABEL	8/24/2020	Date
TIME	LABEL	17:56:36	Time
NOTES	NOTES	1	Notes...
	
PSTAT	PSTAT	REF3000-16137	Potentiostat
VDC	POTEN	0.00000E+000	T	DC Voltage (V)
FREQINIT	QUANT	3.00000E+005	Initial Freq. (Hz)
FREQFINAL	QUANT	1.00000E+000	Final Freq. (Hz)
PTSPERDEC	QUANT	1.00000E+001	Points/decade
VAC	QUANT	5.00000E+001	AC Voltage (mV rms)
AREA	QUANT	1.00000E+000	Sample Area (cm^2)
SPEED	SELECTOR	2	Optimize for:
ZGUESS	QUANT	1.00000E+003	Estimated Z (ohms)
EOC	QUANT	0	Open Circuit (V)
SEQUENCER	TOGGLE	TRUE	Run as Sequence
PSTATMODEL	IQUANT	5	Pstat Model
PSTATSECTION	LABEL	REF3000-16137	Pstat Section
PSTATSERIALNO	LABEL	16137	Pstat Serial Number
CTRLMODE	IQUANT	1	Control Mode
IESTAB	IQUANT	0	I/E Stability
CASPEED	IQUANT	1	Control Amp Speed
CONVENTION	IQUANT	1	Current Convention
ICHRANGE	IQUANT	2	Ich Range
ICHRANGEMODE	TOGGLE	F	Ich Auto Range
ICHOFFSETENABLE	TOGGLE	T	Ich Offset Enable
ICHOFFSET	QUANT	0	Ich Offset (V)
ICHFILTER	IQUANT	3	Ich Filter
VCHRANGE	IQUANT	2	Vch Range
VCHRANGEMODE	TOGGLE	F	Vch Auto Range
VCHOFFSETENABLE	TOGGLE	T	Vch Offset Enable
VCHOFFSET	QUANT	0	Vch Offset (V)
VCHFILTER	IQUANT	3	Vch Filter
ACHRANGE	IQUANT	2	Ach Range
ACHOFFSETENABLE	TOGGLE	F	Ach Offset Enable
ACHOFFSET	QUANT	0	Ach Offset (V)
ACHFILTER	IQUANT	3	Ach Filter
IERANGELOWERLIMIT	IQUANT	2	I/E Range Lower Limit
IERANGEMODE	TOGGLE	F	I/E AutoRange
IERANGE	IQUANT	11	I/E Range
POSFEEDENABLE	TOGGLE	F	Positive Feedback IR Comp
POSFEEDRESISTANCE	QUANT	0	Positive Feedback Resistance (ohm)
ACHSELECT	IQUANT	0	Ach Select
CABLEID	IQUANT	13	Cable ID
DCCALDATE	LABEL	7/31/2020	DC Calibration Date
ACCALDATE	LABEL	7/31/2020	AC Calibration Date
THERMOSELECT	IQUANT	1	Thermo Select
FRAMEWORKVERSION	QUANT	6.33	Framework Version
INSTRUMENTVERSION	LABEL	3.50	Instrument Version
COMPLIANCEVOLTAGE	IQUANT	0	Compliance Voltage
ZCURVE	TABLE
	Pt	Time	Freq	Zreal	Zimag	Zsig	Zmod	Zphz	Idc	Vdc	IERange
	#	s	Hz	ohm	ohm	V	ohm	°	A	V	#
	0	7	300046.9	88.0164	-4.819127	1	88.14822	-3.133964	-1.143157E-005	0.0008085	9
	1	10	238359.4	88.69051	-6.505819	1	88.9288	-4.195371	2.936961E-005	-0.0001046	9
	2	13	189328.1	89.52711	-7.685473	1	89.85638	-4.906539	1.63199E-005	-0.0006387	9
	3	16	150421.9	90.37994	-9.182832	1	90.84525	-5.801488	1.043484E-005	0.0007584	9
	4	18	119484.4	91.58162	-10.69538	1	92.20403	-6.661126	1.131233E-005	0.0007706	9
	5	21	94921.88	92.82987	-12.18286	1	93.62589	-7.476689	-5.596384E-006	0.0006305	9
	6	23	75421.88	94.09007	-14.26736	1	95.1656	-8.62237	1.944846E-005	-0.0001408	9
	7	26	59859.37	95.52	-16.54704	1	96.9426	-9.82789	2.066453E-005	-0.00039	9
	8	28	47578.12	97.2098	-19.097	1	99.0678	-11.1143	-3.999009E-006	0.0006914	9
	9	31	37828.12	98.9739	-21.9327	1	101.375	-12.49487	-1.960239E-005	0.00082	9
	10	34	30046.88	100.7641	-25.30175	1	103.8922	-14.09548	-5.201764E-006	0.0007138	9
	11	36	23859.38	102.5643	-29.22364	1	106.6464	-15.90384	-1.972457E-005	0.0006901	9
	12	38	18984.38	104.2492	-33.99277	1	109.6513	-18.0597	-1.503479E-005	0.0002193	9
	13	41	15046.87	105.9007	-40.12627	1	113.2478	-20.75194	3.99991E-006	0.0003765	9
	14	43	11953.13	107.4043	-47.8164	1	117.5674	-23.99863	1.979034E-005	-0.0001949	9
	15	45	9515.62	108.8834	-57.32068	1	123.0498	-27.76417	-1.039705E-005	0.0008147	9
	16	48	7546.875	110.4025	-69.79562	1	130.6145	-32.30076	-3.636034E-006	-0.0002162	9
	17	50	5928.309	112.2158	-86.26592	1	141.5422	-37.55128	1.2465E-005	-0.0006285	9
	18	52	4733.456	114.4647	-105.6295	1	155.7555	-42.70121	5.027091E-006	-0.0004628	9
	19	55	3796.875	116.7822	-129.2485	1	174.1931	-47.90067	4.236531E-006	0.0004676	9
	20	57	2987.132	119.9231	-161.5118	1	201.1656	-53.40598	2.406312E-005	-0.0005949	9
	21	59	2390.625	123.745	-198.5721	1	233.9737	-58.06992	-9.330491E-006	0.0007272	9
	22	62	1884.191	129.2359	-249.0626	1	280.5959	-62.57568	1.949576E-005	-0.0001447	9
	23	64	1516.544	136.6618	-303.8743	1	333.1907	-65.78506	-2.009768E-005	0.0006558	9
	24	66	1193.986	145.4424	-380.5338	1	407.3812	-69.08282	1.234718E-005	0.0001487	9
	25	69	946.5144	157.0059	-470.5434	1	496.0464	-71.54772	6.256242E-006	-0.0007233	8
	26	71	751.7689	173.3714	-583.9664	1	609.1588	-73.46459	-4.533281E-006	0.0013091	8
	27	73	597.4265	193.913	-722.154	1	747.7357	-74.96947	-4.913979E-006	0.002558	8
	28	76	477.4305	220.2603	-888.0254	1	914.9337	-76.06983	1.807638E-007	0.0006509	8
	29	78	376.6741	257.6145	-1104.659	1	1134.3	-76.87283	2.040791E-007	0.0006435	8
	30	80	298.2954	306.5546	-1367.779	1	1401.711	-77.36729	2.040963E-007	0.0006424	8
	31	83	237.7717	369.987	-1681.585	1	1721.807	-77.59134	1.967137E-007	0.0006375	8
	32	85	189.0121	455.6697	-2070.076	1	2119.635	-77.5859	2.031678E-007	0.0006468	8
	33	87	150.2404	570.5677	-2543.965	1	2607.164	-77.35873	1.968824E-007	0.0006441	8
	34	90	119.1737	727.9601	-3127.175	1	3210.786	-76.89577	2.084696E-007	0.0006428	8
	35	92	95.0169	935.2189	-3816.78	1	3929.687	-76.23217	2.069859E-007	0.0006417	8
	36	95	75.60484	1222.61	-4662.955	1	4820.573	-75.30798	-2.460611E-008	0.000625	7
	37	97	54.50582	1812.916	-6151.716	1	6413.289	-73.57971	-2.638206E-008	0.0006144	7
	38	100	45.95588	2238.2	-7078.236	1	7423.676	-72.45259	-1.694967E-008	0.0006184	7
	39	102	37.20238	2909.61	-8379.427	1	8870.21	-70.85133	-2.014936E-008	0.000624	7
	40	105	30.04808	3813.76	-9884.37	1	10594.6	-68.90152	-2.940222E-008	0.0006287	7
	41	107	23.91582	5043.884	-11646.71	1	12691.99	-66.58382	-3.096718E-008	0.000617	7
	42	109	18.60119	6852.082	-13810.92	1	15417.28	-63.61238	-2.642483E-008	0.0006259	7
	43	112	15.02404	8792.415	-15725.84	1	18016.9	-60.79017	-3.186513E-008	0.0006298	7
	44	114	12.01923	11294.84	-17695.24	1	20992.74	-57.44998	-2.67725E-008	0.0006241	7
	45	116	9.450605	14495.78	-19687.85	1	24448.7	-53.63652	-3.864991E-008	0.0006661	7
	46	119	7.512019	18057.84	-21280.32	1	27909.45	-49.68306	-3.343453E-008	0.0006251	7
	47	122	5.978954	21866.13	-22333.22	1	31255.4	-45.60547	-3.401849E-008	0.0006211	7
	48	125	4.734848	25981.98	-22813.81	1	34576.48	-41.28516	-3.090098E-008	0.0006071	7
	49	128	3.75601	29940.47	-22508.09	1	37457.25	-36.93443	-3.121611E-008	0.000618	7
	50	134	3.004808	33433.1	-21707.13	1	39861.91	-32.99448	-5.250659E-008	0.000632	6
	51	140	2.372217	37045.02	-20946.32	1	42556.8	-29.48507	-5.860881E-008	0.0005918	6
	52	144	1.878005	39508.17	-18838.25	1	43769.57	-25.49269	-6.058183E-008	0.0006765	6
	53	153	1.512097	41466.61	-17248	1	44910.73	-22.58482	-6.540677E-008	0.0005793	6
	54	164	1.201923	43169.84	-15602.89	1	45903	-19.87139	-7.125271E-008	0.0006903	6
	55	177	0.956633	44408.79	-13875.67	1	46526.07	-17.35159	-9.193664E-008	3.36179E-005	6
