EXPLAIN
TAG	EISPOT
TITLE	LABEL	Potentiostatic EIS	Test Identifier
DATE	LABEL	8/24/2020	Date
TIME	LABEL	17:23:37	Time
NOTES	NOTES	1	Notes...
	
PSTAT	PSTAT	REF3000-16137	Potentiostat
VDC	POTEN	0.00000E+000	T	DC Voltage (V)
FREQINIT	QUANT	3.00000E+005	Initial Freq. (Hz)
FREQFINAL	QUANT	1.00000E+000	Final Freq. (Hz)
PTSPERDEC	QUANT	1.00000E+001	Points/decade
VAC	QUANT	5.00000E+001	AC Voltage (mV rms)
AREA	QUANT	1.00000E+000	Sample Area (cm^2)
SPEED	SELECTOR	2	Optimize for:
ZGUESS	QUANT	1.00000E+003	Estimated Z (ohms)
EOC	QUANT	0	Open Circuit (V)
SEQUENCER	TOGGLE	TRUE	Run as Sequence
PSTATMODEL	IQUANT	5	Pstat Model
PSTATSECTION	LABEL	REF3000-16137	Pstat Section
PSTATSERIALNO	LABEL	16137	Pstat Serial Number
CTRLMODE	IQUANT	1	Control Mode
IESTAB	IQUANT	0	I/E Stability
CASPEED	IQUANT	1	Control Amp Speed
CONVENTION	IQUANT	1	Current Convention
ICHRANGE	IQUANT	2	Ich Range
ICHRANGEMODE	TOGGLE	F	Ich Auto Range
ICHOFFSETENABLE	TOGGLE	T	Ich Offset Enable
ICHOFFSET	QUANT	0	Ich Offset (V)
ICHFILTER	IQUANT	3	Ich Filter
VCHRANGE	IQUANT	2	Vch Range
VCHRANGEMODE	TOGGLE	F	Vch Auto Range
VCHOFFSETENABLE	TOGGLE	T	Vch Offset Enable
VCHOFFSET	QUANT	0	Vch Offset (V)
VCHFILTER	IQUANT	3	Vch Filter
ACHRANGE	IQUANT	2	Ach Range
ACHOFFSETENABLE	TOGGLE	F	Ach Offset Enable
ACHOFFSET	QUANT	0	Ach Offset (V)
ACHFILTER	IQUANT	3	Ach Filter
IERANGELOWERLIMIT	IQUANT	2	I/E Range Lower Limit
IERANGEMODE	TOGGLE	F	I/E AutoRange
IERANGE	IQUANT	11	I/E Range
POSFEEDENABLE	TOGGLE	F	Positive Feedback IR Comp
POSFEEDRESISTANCE	QUANT	0	Positive Feedback Resistance (ohm)
ACHSELECT	IQUANT	0	Ach Select
CABLEID	IQUANT	13	Cable ID
DCCALDATE	LABEL	7/31/2020	DC Calibration Date
ACCALDATE	LABEL	7/31/2020	AC Calibration Date
THERMOSELECT	IQUANT	1	Thermo Select
FRAMEWORKVERSION	QUANT	6.33	Framework Version
INSTRUMENTVERSION	LABEL	3.50	Instrument Version
COMPLIANCEVOLTAGE	IQUANT	0	Compliance Voltage
ZCURVE	TABLE
	Pt	Time	Freq	Zreal	Zimag	Zsig	Zmod	Zphz	Idc	Vdc	IERange
	#	s	Hz	ohm	ohm	V	ohm	°	A	V	#
	0	26	300046.9	47.28511	-4851.47	1	4851.701	-89.44158	-9.089973E-005	0.0041941	9
	1	43	238359.4	190.6004	-5696.173	1	5699.361	-88.08353	7.877171E-005	-0.0016001	9
	2	60	189328.1	114.9019	-7618.993	1	7619.859	-89.13599	8.82657E-005	-0.0025623	9
	3	67	150421.9	-76.13072	-9411.978	1	9412.285	-90.46344	7.818138E-005	-0.0015361	9
	4	76	119484.4	621.5981	-11779.31	1	11795.7	-86.97929	7.838914E-005	-0.0237879	8
	5	83	94921.88	389.4996	-14673.05	1	14678.22	-88.47942	2.26825E-005	-0.0098291	8
	6	92	75421.88	766.5746	-18296.53	1	18312.58	-87.60087	-1.143566E-006	-0.0051963	8
	7	100	59859.37	912.1819	-22891.14	1	22909.31	-87.71805	2.632234E-005	-0.005247	8
	8	109	47578.12	879.1763	-28613.5	1	28627	-88.24009	1.645866E-005	-0.009394	8
	9	116	37828.12	211.2111	-36293.75	1	36294.36	-89.66657	2.641877E-005	-0.0052459	8
	10	126	30046.88	1437.804	-45239.27	1	45262.12	-88.17963	-2.702039E-005	0.0098421	8
	11	136	23859.38	-1041.666	-58013.11	1	58022.46	-91.02868	2.343955E-005	-0.0028676	8
	12	142	18984.38	316.9641	-69796.92	1	69797.64	-89.73981	-2.02053E-005	0.0114771	8
	13	148	15046.87	4902.498	-89837.57	1	89971.23	-86.87643	2.691044E-006	0.0091507	7
	14	155	11953.13	6565.146	-112536.8	1	112728.1	-86.66128	5.069751E-006	-0.000991	7
	15	161	9515.62	1729.694	-134668.9	1	134680	-89.26413	-7.454042E-006	0.0191374	7
	16	167	7546.875	8727.1	-172057.8	1	172279	-87.09634	2.829079E-006	0.0086113	7
	17	172	5928.309	-7869.852	-233204.9	1	233337.6	-91.9328	-7.456309E-006	0.0191725	7
	18	179	4733.456	-54201.38	-251352.3	1	257129.9	-102.1689	2.74022E-005	-0.0074476	8
	19	187	3796.875	-21611.22	-325461.4	1	326178.1	-93.79897	-2.010064E-005	0.0115212	8
	20	195	2987.132	-8232.608	-380837.3	1	380926.3	-91.23838	7.694855E-006	-0.018774	7
	21	203	2390.625	122304.5	-315123.3	1	338025.3	-68.78795	-2.062478E-005	0.002777	8
	22	210	1884.191	83029.5	-736019.9	1	740688.4	-83.56374	4.702758E-007	0.0165547	7
	23	218	1516.544	46079.21	-901551.3	1	902728.1	-87.0741	6.193411E-007	-0.0073547	6
	24	223	1193.986	3952.995	-1168288	1	1168295	-89.80614	7.416093E-007	-0.0162469	6
	25	230	946.5144	530105.4	-488556.4	1	720901.6	-42.66432	7.80859E-006	-0.0248319	7
	26	236	751.7689	1226740	-175106.6	1	1239175	-8.123601	5.040466E-006	-0.0007683	7
	27	241	597.4265	-814190.7	-1281859	1	1518574	-122.4222	-6.883648E-006	0.0121769	7
	28	247	477.4305	42833.6	-2807438	1	2807764	-89.12589	-9.693536E-008	0.0006256	7
	29	253	376.6741	493279.9	-3665768	1	3698808	-82.3361	-9.895172E-010	0.0006931	5
	30	256	298.2954	511699.4	-4566298	1	4594879	-83.60611	-9.532762E-010	0.0005984	5
	31	259	237.7717	675232.4	-5693604	1	5733504	-83.2366	-1.042461E-009	0.0006946	5
	32	262	189.0121	563283.3	-7030752	1	7053280	-85.41941	-1.063127E-009	0.0007013	5
	33	265	150.2404	458901.1	-8945827	1	8957590	-87.06343	-9.98048E-010	0.0006001	5
	34	267	119.1737	211504.7	-1.754997E+007	1	1.755124E+007	-89.30953	-9.728827E-010	0.0006898	5
	35	270	95.0169	1059727	-1.372953E+007	1	1.377036E+007	-85.58632	-1.053328E-009	0.0006933	5
	36	273	75.60484	576363.6	-1.654572E+007	1	1.655575E+007	-88.00493	-9.352068E-010	0.000591	5
	37	276	54.50582	1190347	-2.406709E+007	1	2.409651E+007	-87.16849	-9.905642E-010	0.0005961	5
	38	279	45.95588	763889.6	-2.976681E+007	1	2.977661E+007	-88.52997	-1.010641E-009	0.0006871	5
	39	283	37.20238	-1447766	-3.464229E+007	1	3.467253E+007	-92.3931	-9.228346E-010	0.0005946	5
	40	287	30.04808	565277.8	-4.416626E+007	1	4.416987E+007	-89.26672	-9.896567E-010	0.0005907	5
	41	291	23.91582	1.104998E+007	-5.510529E+007	1	5.620227E+007	-78.66116	-1.500088E-010	0.0006449	4
	42	294	18.60119	1.403642E+007	-6.232608E+007	1	6.38871E+007	-77.3082	-1.589996E-010	0.0005932	4
	43	298	15.02404	6138074	-8.641614E+007	1	8.663386E+007	-85.93715	-1.048424E-010	0.0006138	4
	44	302	12.01923	9.549333E+006	-1.086452E+008	1	1.090641E+008	-84.97692	-9.877386E-011	0.0006907	4
	45	305	9.450605	6322108	-1.287646E+008	1	1.289197E+008	-87.18914	-9.724452E-011	0.0006957	4
	46	309	7.512019	8935417	-1.742657E+008	1	1.744947E+008	-87.06475	-1.156327E-010	0.00069	4
	47	314	5.978954	-4013363	-2.021284E+008	1	2.021683E+008	-91.13749	-9.386317E-011	0.0006942	4
	48	319	4.734848	5.215678E+007	-2.796665E+008	1	2.844884E+008	-79.43591	-1.713239E-011	0.0006485	3
	49	324	3.75601	2.523493E+007	-3.02621E+008	1	3.036714E+008	-85.23325	-9.898697E-010	0.0005865	5
	50	332	3.004808	2239151	-4.075302E+008	1	4.075363E+008	-89.6852	-1.060748E-009	0.0007211	5
	51	342	2.372217	7.615299E+007	-5.34425E+008	1	5.398234E+008	-81.89022	-1.842321E-011	0.000673	3
	52	347	1.878005	9.373498E+007	-6.656085E+008	1	6.721763E+008	-81.98398	-1.829677E-011	0.0007283	3
	53	356	1.512097	1.1239E+008	-8.179764E+008	1	8.256615E+008	-82.17654	-1.823824E-011	0.0006192	3
	54	363	1.201923	1.409833E+008	-1.019675E+009	1	1.029375E+009	-82.12802	-1.816259E-011	0.0007481	3
	55	374	0.956633	1.961419E+008	-1.259871E+009	1	1.275048E+009	-81.151	-1.810976E-011	8.151504E-005	3
