EXPLAIN
TAG	EISPOT
TITLE	LABEL	Potentiostatic EIS	Test Identifier
DATE	LABEL	8/24/2020	Date
TIME	LABEL	18:05:57	Time
NOTES	NOTES	1	Notes...
	
PSTAT	PSTAT	REF3000-16137	Potentiostat
VDC	POTEN	0.00000E+000	T	DC Voltage (V)
FREQINIT	QUANT	3.00000E+005	Initial Freq. (Hz)
FREQFINAL	QUANT	1.00000E+000	Final Freq. (Hz)
PTSPERDEC	QUANT	1.00000E+001	Points/decade
VAC	QUANT	5.00000E+001	AC Voltage (mV rms)
AREA	QUANT	1.00000E+000	Sample Area (cm^2)
SPEED	SELECTOR	2	Optimize for:
ZGUESS	QUANT	1.00000E+003	Estimated Z (ohms)
EOC	QUANT	0	Open Circuit (V)
SEQUENCER	TOGGLE	TRUE	Run as Sequence
PSTATMODEL	IQUANT	5	Pstat Model
PSTATSECTION	LABEL	REF3000-16137	Pstat Section
PSTATSERIALNO	LABEL	16137	Pstat Serial Number
CTRLMODE	IQUANT	1	Control Mode
IESTAB	IQUANT	0	I/E Stability
CASPEED	IQUANT	1	Control Amp Speed
CONVENTION	IQUANT	1	Current Convention
ICHRANGE	IQUANT	2	Ich Range
ICHRANGEMODE	TOGGLE	F	Ich Auto Range
ICHOFFSETENABLE	TOGGLE	T	Ich Offset Enable
ICHOFFSET	QUANT	0	Ich Offset (V)
ICHFILTER	IQUANT	3	Ich Filter
VCHRANGE	IQUANT	2	Vch Range
VCHRANGEMODE	TOGGLE	F	Vch Auto Range
VCHOFFSETENABLE	TOGGLE	T	Vch Offset Enable
VCHOFFSET	QUANT	0	Vch Offset (V)
VCHFILTER	IQUANT	3	Vch Filter
ACHRANGE	IQUANT	2	Ach Range
ACHOFFSETENABLE	TOGGLE	F	Ach Offset Enable
ACHOFFSET	QUANT	0	Ach Offset (V)
ACHFILTER	IQUANT	3	Ach Filter
IERANGELOWERLIMIT	IQUANT	2	I/E Range Lower Limit
IERANGEMODE	TOGGLE	F	I/E AutoRange
IERANGE	IQUANT	11	I/E Range
POSFEEDENABLE	TOGGLE	F	Positive Feedback IR Comp
POSFEEDRESISTANCE	QUANT	0	Positive Feedback Resistance (ohm)
ACHSELECT	IQUANT	0	Ach Select
CABLEID	IQUANT	13	Cable ID
DCCALDATE	LABEL	7/31/2020	DC Calibration Date
ACCALDATE	LABEL	7/31/2020	AC Calibration Date
THERMOSELECT	IQUANT	1	Thermo Select
FRAMEWORKVERSION	QUANT	6.33	Framework Version
INSTRUMENTVERSION	LABEL	3.50	Instrument Version
COMPLIANCEVOLTAGE	IQUANT	0	Compliance Voltage
ZCURVE	TABLE
	Pt	Time	Freq	Zreal	Zimag	Zsig	Zmod	Zphz	Idc	Vdc	IERange
	#	s	Hz	ohm	ohm	V	ohm	°	A	V	#
	0	7	300046.9	87.97256	-4.837421	1	88.10546	-3.147401	-8.364628E-005	0.0025648	9
	1	10	238359.4	88.64158	-5.9293	1	88.83967	-3.826856	1.465666E-005	-0.001638	9
	2	13	189328.1	89.27249	-7.63394	1	89.5983	-4.887631	3.182356E-006	0.0005875	9
	3	16	150421.9	90.40777	-9.111461	1	90.86575	-5.754942	-3.329586E-005	-0.0001859	9
	4	18	119484.4	91.40992	-10.66313	1	92.02975	-6.653586	2.98975E-005	0.0003463	9
	5	21	94921.88	92.64447	-12.18491	1	93.44234	-7.492725	-1.864001E-005	0.0005957	9
	6	23	75421.88	93.91938	-14.24528	1	94.99357	-8.624635	2.234197E-005	-0.0006937	9
	7	26	59859.37	95.4026	-16.55823	1	96.8289	-9.84626	-3.029048E-006	-0.0002491	9
	8	28	47578.12	97.0086	-19.0758	1	98.8663	-11.12472	2.491298E-005	-0.0004901	9
	9	31	37828.12	98.7954	-21.92978	1	101.2001	-12.51512	-9.587152E-006	1.630642E-005	9
	10	34	30046.88	100.601	-25.26998	1	103.7262	-14.10041	2.209094E-005	-0.0006965	9
	11	36	23859.38	102.3594	-29.18214	1	106.438	-15.91258	4.656262E-006	-0.0004799	9
	12	38	18984.38	104.0769	-34.06905	1	109.5112	-18.12559	-9.377596E-006	-1.765036E-005	9
	13	41	15046.87	105.7182	-40.16199	1	113.0899	-20.80161	1.083803E-005	0.0001253	9
	14	43	11953.13	107.2165	-47.73107	1	117.3611	-23.99786	1.158062E-005	-0.0006041	9
	15	45	9515.62	108.6674	-57.51521	1	122.9496	-27.89127	-1.241219E-005	0.0007841	9
	16	48	7546.875	110.1858	-69.89534	1	130.4848	-32.38861	1.220526E-005	-0.0006263	9
	17	50	5928.309	111.9568	-86.38538	1	141.4099	-37.65363	-1.71158E-005	0.0004165	9
	18	52	4733.456	113.9615	-105.9366	1	155.595	-42.90998	2.176604E-005	-0.0006731	9
	19	55	3796.875	116.6977	-129.2719	1	174.1539	-47.92646	-2.056341E-005	0.000843	9
	20	57	2987.132	119.6737	-161.8513	1	201.2899	-53.52058	2.203204E-005	-0.0002667	9
	21	59	2390.625	123.481	-199.357	1	234.5012	-58.22607	2.287392E-005	-0.0003347	9
	22	62	1884.191	129.072	-248.9486	1	280.4193	-62.59469	-1.003223E-005	2.038042E-005	9
	23	64	1516.544	135.6539	-305.2562	1	334.0409	-66.03995	-2.796029E-006	-0.000237	9
	24	66	1193.986	144.8471	-380.7253	1	407.348	-69.17066	-3.085504E-006	-0.0002147	9
	25	69	946.5144	156.7109	-472.146	1	497.4738	-71.63837	-3.125715E-006	0.0007056	8
	26	71	751.7689	172.4215	-584.9655	1	609.8474	-73.57685	-4.39423E-006	0.0012479	8
	27	73	597.4265	192.9962	-725.3863	1	750.6216	-75.10104	5.451923E-006	-0.0013949	8
	28	76	477.4305	218.7407	-891.9606	1	918.3906	-76.22095	1.902334E-007	0.000651	8
	29	78	376.6741	255.594	-1109.767	1	1138.82	-77.0302	1.84072E-007	0.0006506	8
	30	80	298.2954	303.8669	-1374.543	1	1407.729	-77.53425	1.903907E-007	0.0006477	8
	31	83	237.7717	365.9966	-1690.222	1	1729.394	-77.78194	1.975451E-007	0.0006457	8
	32	85	189.0121	449.6664	-2081.243	1	2129.266	-77.80827	1.980998E-007	0.0006515	8
	33	88	150.2404	561.9808	-2559.332	1	2620.306	-77.61548	2.179484E-007	0.0006392	8
	34	90	119.1737	714.1622	-3147.971	1	3227.963	-77.21799	2.072197E-007	0.000652	8
	35	92	95.0169	916.8526	-3846.115	1	3953.886	-76.59184	2.05379E-007	0.0006505	8
	36	95	75.60484	1195.813	-4703.215	1	4852.855	-75.73457	-1.700891E-008	0.0006197	7
	37	98	54.50582	1770.238	-6217.334	1	6464.44	-74.10696	-1.531825E-008	0.0006194	7
	38	100	45.95588	2183.333	-7164.075	1	7489.387	-73.0508	-8.329833E-009	0.0006245	7
	39	102	37.20238	2838.662	-8498.611	1	8960.156	-71.52992	-9.427254E-009	0.0006138	7
	40	105	30.04808	3717.936	-10042.88	1	10708.99	-69.68514	-1.993956E-008	0.0006269	7
	41	107	23.91582	4924.412	-11872.64	1	12853.38	-67.4728	-1.091332E-008	0.0006206	7
	42	110	18.60119	6697.72	-14140.36	1	15646.38	-64.65497	-2.153012E-008	0.0006323	7
	43	112	15.02404	8637.928	-16184.53	1	18345.38	-61.91049	-1.979436E-008	0.0006238	7
	44	114	12.01923	11161.94	-18308.29	1	21442.54	-58.63076	-8.812187E-009	0.0006324	7
	45	117	9.450605	14384.03	-20514.47	1	25054.81	-54.96321	-1.874976E-008	0.0006154	7
	46	119	7.512019	17991.39	-22356.41	1	28696.68	-51.17451	-2.167199E-008	0.0006157	7
	47	122	5.978954	22035.32	-23673.52	1	32341.79	-47.05259	-2.403214E-008	0.0006296	7
	48	125	4.734848	26383.14	-24428.36	1	35955.74	-42.79685	-2.51582E-008	0.0006013	7
	49	128	3.75601	30697.37	-24321.36	1	39164.48	-38.3896	-3.905846E-008	0.0006975	6
	50	133	3.004808	34580.8	-23627.81	1	41882.04	-34.34338	-4.237667E-008	0.0006502	6
	51	139	2.372217	38533.63	-22850.94	1	44799.62	-30.66848	-4.922868E-008	0.0005982	6
	52	143	1.878005	41306.69	-20623.84	1	46169.09	-26.5323	-5.018703E-008	0.0006818	6
	53	152	1.512097	43433.56	-18852.21	1	47348.5	-23.46312	-5.416599E-008	0.0005824	6
	54	163	1.201923	45430.27	-17149.95	1	48559.55	-20.68154	-5.894166E-008	0.0006997	6
	55	176	0.956633	47025.27	-15385.41	1	49478.15	-18.11671	-7.986655E-008	3.819596E-005	6
