EXPLAIN
TAG	EISPOT
TITLE	LABEL	Potentiostatic EIS	Test Identifier
DATE	LABEL	8/24/2020	Date
TIME	LABEL	18:12:10	Time
NOTES	NOTES	1	Notes...
	
PSTAT	PSTAT	REF3000-16137	Potentiostat
VDC	POTEN	0.00000E+000	T	DC Voltage (V)
FREQINIT	QUANT	3.00000E+005	Initial Freq. (Hz)
FREQFINAL	QUANT	1.00000E+000	Final Freq. (Hz)
PTSPERDEC	QUANT	1.00000E+001	Points/decade
VAC	QUANT	5.00000E+001	AC Voltage (mV rms)
AREA	QUANT	1.00000E+000	Sample Area (cm^2)
SPEED	SELECTOR	2	Optimize for:
ZGUESS	QUANT	1.00000E+003	Estimated Z (ohms)
EOC	QUANT	0	Open Circuit (V)
SEQUENCER	TOGGLE	TRUE	Run as Sequence
PSTATMODEL	IQUANT	5	Pstat Model
PSTATSECTION	LABEL	REF3000-16137	Pstat Section
PSTATSERIALNO	LABEL	16137	Pstat Serial Number
CTRLMODE	IQUANT	1	Control Mode
IESTAB	IQUANT	0	I/E Stability
CASPEED	IQUANT	1	Control Amp Speed
CONVENTION	IQUANT	1	Current Convention
ICHRANGE	IQUANT	2	Ich Range
ICHRANGEMODE	TOGGLE	F	Ich Auto Range
ICHOFFSETENABLE	TOGGLE	T	Ich Offset Enable
ICHOFFSET	QUANT	0	Ich Offset (V)
ICHFILTER	IQUANT	3	Ich Filter
VCHRANGE	IQUANT	2	Vch Range
VCHRANGEMODE	TOGGLE	F	Vch Auto Range
VCHOFFSETENABLE	TOGGLE	T	Vch Offset Enable
VCHOFFSET	QUANT	0	Vch Offset (V)
VCHFILTER	IQUANT	3	Vch Filter
ACHRANGE	IQUANT	2	Ach Range
ACHOFFSETENABLE	TOGGLE	F	Ach Offset Enable
ACHOFFSET	QUANT	0	Ach Offset (V)
ACHFILTER	IQUANT	3	Ach Filter
IERANGELOWERLIMIT	IQUANT	2	I/E Range Lower Limit
IERANGEMODE	TOGGLE	F	I/E AutoRange
IERANGE	IQUANT	11	I/E Range
POSFEEDENABLE	TOGGLE	F	Positive Feedback IR Comp
POSFEEDRESISTANCE	QUANT	0	Positive Feedback Resistance (ohm)
ACHSELECT	IQUANT	0	Ach Select
CABLEID	IQUANT	13	Cable ID
DCCALDATE	LABEL	7/31/2020	DC Calibration Date
ACCALDATE	LABEL	7/31/2020	AC Calibration Date
THERMOSELECT	IQUANT	1	Thermo Select
FRAMEWORKVERSION	QUANT	6.33	Framework Version
INSTRUMENTVERSION	LABEL	3.50	Instrument Version
COMPLIANCEVOLTAGE	IQUANT	0	Compliance Voltage
ZCURVE	TABLE
	Pt	Time	Freq	Zreal	Zimag	Zsig	Zmod	Zphz	Idc	Vdc	IERange
	#	s	Hz	ohm	ohm	V	ohm	°	A	V	#
	0	7	300046.9	87.9815	-4.781052	1	88.11131	-3.110482	6.928789E-005	-0.0028135	9
	1	11	238359.4	88.71254	-6.217821	1	88.93018	-4.009278	1.17029E-005	-0.0016599	9
	2	14	189328.1	89.50411	-7.627759	1	89.82855	-4.871116	1.353514E-005	-0.0012814	9
	3	16	150421.9	90.54659	-9.080585	1	91.00079	-5.726836	-7.043062E-005	0.0019847	9
	4	19	119484.4	91.47272	-10.61836	1	92.08696	-6.621391	6.725213E-005	-0.0020578	9
	5	21	94921.88	92.7226	-12.19609	1	93.52125	-7.493273	2.96765E-006	0.0003742	9
	6	24	75421.88	93.97084	-14.21563	1	95.04	-8.602313	-1.896014E-005	0.0004874	9
	7	26	59859.37	95.5032	-16.54601	1	96.9259	-9.82898	-1.11331E-006	-0.0003637	9
	8	29	47578.12	97.0554	-19.09709	1	98.9163	-11.1316	1.268452E-005	0.0001584	9
	9	31	37828.12	98.9216	-21.98796	1	101.3358	-12.53178	-2.040896E-005	0.0005248	9
	10	34	30046.88	100.6202	-25.24958	1	103.7399	-14.0869	-1.483184E-005	0.000212	9
	11	37	23859.38	102.345	-29.24475	1	106.4413	-15.94711	1.429423E-005	-0.0005512	9
	12	39	18984.38	104.0637	-34.10382	1	109.5094	-18.14504	-1.6184E-005	0.0002258	9
	13	41	15046.87	105.7786	-40.18544	1	113.1547	-20.80186	2.231186E-005	-0.0006243	9
	14	43	11953.13	107.1363	-47.85448	1	117.3381	-24.06885	2.379994E-005	-0.0005872	9
	15	46	9515.62	108.6258	-57.54235	1	122.9256	-27.9115	-1.251688E-005	0.0007926	9
	16	48	7546.875	110.1624	-69.95914	1	130.4992	-32.41778	5.159972E-006	-0.000466	9
	17	50	5928.309	111.971	-86.49987	1	141.4911	-37.68682	-1.491754E-005	0.0002044	9
	18	53	4733.456	113.9907	-106.0256	1	155.677	-42.92668	2.276838E-005	-0.0002967	9
	19	55	3796.875	116.006	-129.8976	1	174.1573	-48.23333	-2.066621E-005	0.0006372	9
	20	57	2987.132	119.4972	-162.0882	1	201.3757	-53.60104	2.224608E-005	-0.0006715	9
	21	60	2390.625	123.6318	-199.102	1	234.3638	-58.16191	-1.648257E-005	0.000919	9
	22	62	1884.191	128.9668	-249.6722	1	281.0136	-62.68164	1.96427E-005	-0.0001477	9
	23	64	1516.544	135.1439	-305.5889	1	334.1383	-66.14302	3.893123E-006	0.0004367	9
	24	67	1193.986	144.776	-382.2289	1	408.7285	-69.25492	-3.003492E-006	-0.0002313	9
	25	69	946.5144	156.023	-473.271	1	498.3258	-71.75419	6.135549E-006	-0.0012652	8
	26	72	751.7689	171.4505	-587.6685	1	612.1679	-73.73555	6.502369E-006	-0.000996	8
	27	74	597.4265	192.565	-727.5215	1	752.5748	-75.17457	4.372596E-006	-0.0013732	8
	28	76	477.4305	218.1428	-894.7177	1	920.9268	-76.29794	2.078796E-007	0.000645	8
	29	79	376.6741	254.8906	-1113.373	1	1142.177	-77.10517	1.987149E-007	0.0006433	8
	30	81	298.2954	302.9361	-1379.189	1	1412.067	-77.61182	2.197114E-007	0.0006466	8
	31	83	237.7717	364.8065	-1696.428	1	1735.209	-77.86372	2.116679E-007	0.0006449	8
	32	86	189.0121	448.1345	-2089.36	1	2136.878	-77.89437	2.220335E-007	0.0006512	8
	33	88	150.2404	559.7465	-2569.512	1	2629.773	-77.71059	2.049806E-007	0.0006454	8
	34	91	119.1737	711.0942	-3161.544	1	3240.527	-77.32398	2.085194E-007	0.00066	8
	35	93	95.0169	912.136	-3862.672	1	3968.908	-76.7135	2.121451E-007	0.0006442	8
	36	96	75.60484	1189.502	-4725.897	1	4873.296	-75.87219	-1.526822E-008	0.0006199	7
	37	98	54.50582	1761.551	-6252.616	1	6496.02	-74.26587	-1.112469E-008	0.0006061	7
	38	101	45.95588	2171.618	-7206.29	1	7526.39	-73.2298	-6.887572E-009	0.0006215	7
	39	103	37.20238	2822.411	-8550.236	1	9004.029	-71.73208	-9.036627E-009	0.0006244	7
	40	105	30.04808	3698.65	-10110.94	1	10766.21	-69.90714	-1.366264E-008	0.0006163	7
	41	108	23.91582	4926.472	-11994.01	1	12966.36	-67.66987	-8.655412E-009	0.0006141	7
	42	110	18.60119	6668.803	-14274.67	1	15755.61	-64.95908	-4.845913E-009	0.0006194	7
	43	112	15.02404	8609.141	-16346.22	1	18474.74	-62.22535	-1.121723E-008	0.0006307	7
	44	115	12.01923	11118.34	-18556.21	1	21632.16	-59.07119	-2.135564E-008	0.0006219	7
	45	117	9.450605	14406.79	-20800.84	1	25302.78	-55.29329	-5.454336E-009	0.0006294	7
	46	120	7.512019	18071.1	-22764.49	1	29065.21	-51.55645	-1.434119E-008	0.000642	7
	47	122	5.978954	22138.75	-24167.73	1	32775.04	-47.50889	-1.288128E-008	0.0006213	7
	48	126	4.734848	26549.76	-24966.89	1	36444.96	-43.24012	-8.336476E-009	0.0006476	7
	49	129	3.75601	31057.66	-25269.53	1	40039.08	-39.13293	-3.815846E-008	0.0006667	6
	50	132	3.004808	35074.2	-24539.71	1	42806.51	-34.97861	-4.31958E-008	0.0007018	6
	51	139	2.372217	39145.82	-23694.95	1	45758.56	-31.1865	-3.699202E-008	0.0007105	6
	52	143	1.878005	42103.8	-21439.24	1	47247.97	-26.98518	-4.566839E-008	0.0006488	6
	53	152	1.512097	44399.86	-19724.41	1	48583.94	-23.95294	-4.878277E-008	0.000774	6
	54	163	1.201923	46365.45	-17783.63	1	49658.96	-20.98449	-5.115726E-008	0.0006572	6
	55	175	0.956633	48276.77	-16156.86	1	50908.65	-18.50393	-7.858442E-008	3.896168E-005	6
