EXPLAIN
TAG	EISPOT
TITLE	LABEL	Potentiostatic EIS	Test Identifier
DATE	LABEL	2/26/2021	Date
TIME	LABEL	22:33:00	Time
NOTES	NOTES	1	Notes...
	
PSTAT	PSTAT	REF3000-16137	Potentiostat
VDC	POTEN	0.00000E+000	T	DC Voltage (V)
FREQINIT	QUANT	3.00000E+005	Initial Freq. (Hz)
FREQFINAL	QUANT	1.00000E+000	Final Freq. (Hz)
PTSPERDEC	QUANT	1.00000E+001	Points/decade
VAC	QUANT	5.00000E+001	AC Voltage (mV rms)
AREA	QUANT	1.00000E+000	Sample Area (cm^2)
SPEED	SELECTOR	2	Optimize for:
ZGUESS	QUANT	1.00000E+003	Estimated Z (ohms)
EOC	QUANT	0	Open Circuit (V)
SEQUENCER	TOGGLE	TRUE	Run as Sequence
PSTATMODEL	IQUANT	5	Pstat Model
PSTATSECTION	LABEL	REF3000-16137	Pstat Section
PSTATSERIALNO	LABEL	16137	Pstat Serial Number
CTRLMODE	IQUANT	1	Control Mode
IESTAB	IQUANT	0	I/E Stability
CASPEED	IQUANT	1	Control Amp Speed
CONVENTION	IQUANT	1	Current Convention
ICHRANGE	IQUANT	2	Ich Range
ICHRANGEMODE	TOGGLE	F	Ich Auto Range
ICHOFFSETENABLE	TOGGLE	T	Ich Offset Enable
ICHOFFSET	QUANT	0	Ich Offset (V)
ICHFILTER	IQUANT	3	Ich Filter
VCHRANGE	IQUANT	2	Vch Range
VCHRANGEMODE	TOGGLE	F	Vch Auto Range
VCHOFFSETENABLE	TOGGLE	T	Vch Offset Enable
VCHOFFSET	QUANT	0	Vch Offset (V)
VCHFILTER	IQUANT	3	Vch Filter
ACHRANGE	IQUANT	2	Ach Range
ACHOFFSETENABLE	TOGGLE	F	Ach Offset Enable
ACHOFFSET	QUANT	0	Ach Offset (V)
ACHFILTER	IQUANT	3	Ach Filter
IERANGELOWERLIMIT	IQUANT	2	I/E Range Lower Limit
IERANGEMODE	TOGGLE	F	I/E AutoRange
IERANGE	IQUANT	11	I/E Range
POSFEEDENABLE	TOGGLE	F	Positive Feedback IR Comp
POSFEEDRESISTANCE	QUANT	0	Positive Feedback Resistance (ohm)
ACHSELECT	IQUANT	0	Ach Select
CABLEID	IQUANT	13	Cable ID
DCCALDATE	LABEL	7/31/2020	DC Calibration Date
ACCALDATE	LABEL	7/31/2020	AC Calibration Date
THERMOSELECT	IQUANT	1	Thermo Select
FRAMEWORKVERSION	QUANT	6.33	Framework Version
INSTRUMENTVERSION	LABEL	3.50	Instrument Version
COMPLIANCEVOLTAGE	IQUANT	0	Compliance Voltage
ZCURVE	TABLE
	Pt	Time	Freq	Zreal	Zimag	Zsig	Zmod	Zphz	Idc	Vdc	IERange
	#	s	Hz	ohm	ohm	V	ohm	°	A	V	#
	0	7	300046.9	29.86287	-9.59349	1	31.366	-17.80969	-0.000101	-0.0001237	11
	1	11	238359.4	31.27003	-11.54713	1	33.33393	-20.26775	2.055567E-005	0.0004697	10
	2	14	189328.1	32.68657	-13.98646	1	35.55324	-23.1659	1.424296E-005	0.0004707	10
	3	17	150421.9	34.50139	-16.3082	1	38.16154	-25.29928	-4.658121E-005	0.0015775	9
	4	19	119484.4	36.35586	-19.27134	1	41.1477	-27.92695	1.478178E-005	-0.000366	9
	5	22	94921.88	38.54953	-22.37226	1	44.57112	-30.12878	7.581577E-006	0.0001428	9
	6	24	75421.88	40.66213	-25.97917	1	48.25273	-32.57465	1.542063E-005	-0.0004331	9
	7	27	59859.37	42.88316	-30.15358	1	52.42331	-35.11323	1.710023E-005	-0.0003729	9
	8	29	47578.12	44.94519	-34.9992	1	56.96503	-37.90819	-1.17058E-005	0.0004117	9
	9	32	37828.12	46.94759	-41.0451	1	62.36006	-41.16238	1.404995E-005	-0.0004045	9
	10	34	30046.88	48.75276	-48.6017	1	68.84009	-44.9111	1.459803E-005	-0.0003661	9
	11	37	23859.38	50.6685	-58.06889	1	77.06681	-48.8934	1.058336E-005	-0.0003539	9
	12	39	18984.38	52.36232	-70.06883	1	87.47259	-53.2293	2.106571E-005	-0.0003292	9
	13	42	15046.87	54.21173	-85.58561	1	101.3105	-57.64897	1.140439E-005	-3.697796E-005	9
	14	44	11953.13	56.43169	-104.8078	1	119.0345	-61.70064	1.675989E-005	-0.0002811	9
	15	46	9515.62	58.4959	-128.792	1	141.4537	-65.57298	-1.268537E-005	0.0002974	9
	16	49	7546.875	62.30145	-158.8325	1	170.6143	-68.58259	-4.086387E-006	3.188036E-005	9
	17	51	5928.309	65.19676	-199.2297	1	209.6261	-71.87962	1.82268E-005	-0.000298	9
	18	53	4733.456	69.24526	-246.1187	1	255.6742	-74.2861	1.822875E-005	-0.0002915	9
	19	55	3796.875	75.16159	-302.9242	1	312.1095	-76.06518	6.871217E-006	0.0001943	9
	20	58	2987.132	82.13497	-379.4525	1	388.2401	-77.78638	-1.207418E-005	0.0003744	9
	21	60	2390.625	89.33981	-467.0065	1	475.4752	-79.16998	1.693984E-006	4.297157E-005	8
	22	62	1884.191	101.3805	-584.4181	1	593.1463	-80.15869	3.656863E-006	-0.0001426	8
	23	65	1516.544	115.0627	-717.8335	1	726.9968	-80.89343	-2.168989E-006	0.0014376	8
	24	67	1193.986	133.5969	-899.865	1	909.7281	-81.55536	8.237283E-008	0.0011172	8
	25	70	946.5144	161.9789	-1118.433	1	1130.101	-81.75934	2.959914E-006	-0.0001516	8
	26	72	751.7689	191.374	-1392.985	1	1406.069	-82.17744	2.42558E-006	-8.089277E-005	8
	27	74	597.4265	229.8589	-1730.814	1	1746.011	-82.43517	3.685418E-006	-0.000146	8
	28	77	477.4305	282.9686	-2130.442	1	2149.152	-82.43417	5.406494E-007	0.0006627	8
	29	79	376.6741	355.7007	-2658.227	1	2681.919	-82.37845	5.385911E-007	0.0006581	8
	30	81	298.2954	449.9885	-3302.466	1	3332.982	-82.24076	5.490955E-007	0.0006548	8
	31	83	237.7717	570.2385	-4073.396	1	4113.116	-82.0309	5.489852E-007	0.0006572	8
	32	86	189.0121	732.7958	-5041.661	1	5094.638	-81.73008	5.00545E-008	0.0006287	7
	33	88	150.2404	939.8276	-6218.994	1	6289.607	-81.40636	5.199911E-008	0.0006286	7
	34	91	119.1737	1212.6	-7676.443	1	7771.626	-81.02351	5.166381E-008	0.0006312	7
	35	93	95.0169	1553.862	-9415.166	1	9542.53	-80.62849	5.100929E-008	0.0006338	7
	36	96	75.60484	1997.708	-11554.9	1	11726.32	-80.19118	5.442974E-008	0.0006313	7
	37	98	54.50582	2854.541	-15440.7	1	15702.34	-79.52592	5.647865E-008	0.0005964	7
	38	101	45.95588	3424.516	-17936.91	1	18260.88	-79.19116	5.23781E-008	0.0006387	7
	39	103	37.20238	4297.503	-21567.56	1	21991.54	-78.73096	5.095598E-008	0.000637	7
	40	105	30.04808	5380.288	-25961.02	1	26512.68	-78.2915	5.055134E-008	0.0006352	7
	41	108	23.91582	6855.006	-31675.69	1	32408.96	-77.7888	5.42867E-008	0.0006286	7
	42	110	18.60119	8843.789	-39255.98	1	40239.84	-77.30407	5.177755E-008	0.0006294	7
	43	112	15.02404	11041.32	-47121.77	1	48398.06	-76.81267	-6.865949E-010	0.0006696	6
	44	115	12.01923	13824.43	-56933.52	1	58587.89	-76.35175	-2.254269E-010	0.000677	6
	45	117	9.450605	17606.63	-69779.7	1	71966.66	-75.83886	2.433525E-010	0.000659	6
	46	120	7.512019	22206.52	-84626.3	1	87491.38	-75.29669	6.602895E-010	0.0006756	6
	47	123	5.978954	27923.57	-102399.6	1	106138.6	-74.74675	5.070268E-010	0.000672	6
	48	127	4.734848	35406.45	-124400	1	129340.5	-74.11271	1.298623E-009	0.0006988	6
	49	130	3.75601	45038.65	-150656.6	1	157244.7	-73.35602	7.359086E-010	0.0006586	6
	50	136	3.004808	56847.3	-180853.8	1	189577.7	-72.55064	7.001774E-010	0.0006975	6
	51	142	2.372217	73313.46	-219065.8	1	231008	-71.49645	4.497656E-010	0.0007438	6
	52	146	1.878005	93951.52	-263789.3	1	280020.8	-70.39607	-6.085221E-011	0.0006654	6
	53	151	1.512097	118491.5	-311708.1	1	333469.9	-69.18639	5.776761E-010	0.0006405	6
	54	157	1.201923	152779.7	-371909.7	1	402067.7	-67.66724	5.474507E-010	0.0006404	6
	55	163	0.956633	196144.5	-439719	1	481482.6	-65.95989	-5.527555E-009	1.97629E-005	5
