EXPLAIN
TAG	EISPOT
TITLE	LABEL	Potentiostatic EIS	Test Identifier
DATE	LABEL	2/27/2021	Date
TIME	LABEL	0:05:03	Time
NOTES	NOTES	1	Notes...
	
PSTAT	PSTAT	REF3000-16137	Potentiostat
VDC	POTEN	0.00000E+000	T	DC Voltage (V)
FREQINIT	QUANT	3.00000E+005	Initial Freq. (Hz)
FREQFINAL	QUANT	1.00000E+000	Final Freq. (Hz)
PTSPERDEC	QUANT	1.00000E+001	Points/decade
VAC	QUANT	5.00000E+001	AC Voltage (mV rms)
AREA	QUANT	1.00000E+000	Sample Area (cm^2)
SPEED	SELECTOR	2	Optimize for:
ZGUESS	QUANT	1.00000E+003	Estimated Z (ohms)
EOC	QUANT	0	Open Circuit (V)
SEQUENCER	TOGGLE	TRUE	Run as Sequence
PSTATMODEL	IQUANT	5	Pstat Model
PSTATSECTION	LABEL	REF3000-16137	Pstat Section
PSTATSERIALNO	LABEL	16137	Pstat Serial Number
CTRLMODE	IQUANT	1	Control Mode
IESTAB	IQUANT	0	I/E Stability
CASPEED	IQUANT	1	Control Amp Speed
CONVENTION	IQUANT	1	Current Convention
ICHRANGE	IQUANT	2	Ich Range
ICHRANGEMODE	TOGGLE	F	Ich Auto Range
ICHOFFSETENABLE	TOGGLE	T	Ich Offset Enable
ICHOFFSET	QUANT	0	Ich Offset (V)
ICHFILTER	IQUANT	3	Ich Filter
VCHRANGE	IQUANT	2	Vch Range
VCHRANGEMODE	TOGGLE	F	Vch Auto Range
VCHOFFSETENABLE	TOGGLE	T	Vch Offset Enable
VCHOFFSET	QUANT	0	Vch Offset (V)
VCHFILTER	IQUANT	3	Vch Filter
ACHRANGE	IQUANT	2	Ach Range
ACHOFFSETENABLE	TOGGLE	F	Ach Offset Enable
ACHOFFSET	QUANT	0	Ach Offset (V)
ACHFILTER	IQUANT	3	Ach Filter
IERANGELOWERLIMIT	IQUANT	2	I/E Range Lower Limit
IERANGEMODE	TOGGLE	F	I/E AutoRange
IERANGE	IQUANT	11	I/E Range
POSFEEDENABLE	TOGGLE	F	Positive Feedback IR Comp
POSFEEDRESISTANCE	QUANT	0	Positive Feedback Resistance (ohm)
ACHSELECT	IQUANT	0	Ach Select
CABLEID	IQUANT	13	Cable ID
DCCALDATE	LABEL	7/31/2020	DC Calibration Date
ACCALDATE	LABEL	7/31/2020	AC Calibration Date
THERMOSELECT	IQUANT	1	Thermo Select
FRAMEWORKVERSION	QUANT	6.33	Framework Version
INSTRUMENTVERSION	LABEL	3.50	Instrument Version
COMPLIANCEVOLTAGE	IQUANT	0	Compliance Voltage
ZCURVE	TABLE
	Pt	Time	Freq	Zreal	Zimag	Zsig	Zmod	Zphz	Idc	Vdc	IERange
	#	s	Hz	ohm	ohm	V	ohm	°	A	V	#
	0	14	300046.9	-77.91331	-4877.36	1	4877.982	-90.91519	2.025803E-006	-0.0020998	9
	1	28	238359.4	19.1796	-5996.876	1	5996.907	-89.81676	-9.246586E-005	0.0021053	9
	2	42	189328.1	-138.9039	-7711.851	1	7713.102	-91.03188	-6.078965E-005	0.0004506	9
	3	52	150421.9	-300.6597	-10444.32	1	10448.64	-91.64891	-2.712878E-005	-0.0009615	9
	4	60	119484.4	443.2299	-11514.97	1	11523.49	-87.79568	2.494893E-005	0.0084954	8
	5	67	94921.88	498.4465	-14332.75	1	14341.42	-88.00824	1.707919E-005	0.0003861	8
	6	76	75421.88	408.4337	-18161.88	1	18166.47	-88.71172	2.733457E-005	-0.0072685	8
	7	84	59859.37	662.6855	-22946.78	1	22956.34	-88.3458	2.305629E-005	-0.0027514	8
	8	93	47578.12	3945.172	-29978.34	1	30236.82	-82.50291	-5.370992E-006	0.0266103	7
	9	100	37828.12	4080.862	-37440.3	1	37662.04	-83.77952	-5.208021E-006	0.0263793	7
	10	108	30046.88	4643.213	-46332.86	1	46564.94	-84.27725	-7.301453E-006	0.0187524	7
	11	115	23859.38	4531.52	-57807.96	1	57985.3	-85.51779	-5.331903E-006	0.026742	7
	12	121	18984.38	4138.21	-71867.76	1	71986.8	-86.7045	4.916835E-006	-0.0008926	7
	13	126	15046.87	4676.261	-89069.55	1	89192.22	-86.99466	-2.575581E-005	0.0073356	8
	14	134	11953.13	-4276.032	-109584.8	1	109668.2	-92.23457	-1.582842E-005	0.000574	8
	15	141	9515.62	4982.896	-142559.9	1	142647	-87.99815	1.378643E-006	-0.020027	7
	16	148	7546.875	8084.843	-183543.5	1	183721.5	-87.47783	7.458377E-006	-0.0182274	7
	17	154	5928.309	-13958.41	-237220.1	1	237630.5	-93.36749	4.487397E-007	0.016256	7
	18	161	4733.456	41076.45	-300296.7	1	303093	-82.21107	4.043207E-007	-0.025367	6
	19	166	3796.875	-4215.281	-357890.7	1	357915.5	-90.6748	-7.302556E-006	0.023756	7
	20	172	2987.132	-12993.5	-500144.4	1	500313.2	-91.48818	-7.358003E-006	0.0188458	7
	21	180	2390.625	86481.11	-535472.7	1	542411.3	-80.82571	6.504406E-006	-0.0099633	7
	22	186	1884.191	-75883.99	-1395239	1	1397301	-93.11313	-3.347987E-006	-0.0051902	7
	23	194	1516.544	171764.6	-711950	1	732376.9	-76.43606	-7.257785E-006	0.0235407	7
	24	202	1193.986	848960.4	-1209037	1	1477330	-54.92427	4.905306E-006	-0.00052	7
	25	209	946.5144	-4816.57	-904389	1	904401.8	-90.30514	2.805315E-006	0.0088457	7
	26	216	751.7689	926079.2	-66827.38	1	928487.3	-4.127402	-2.419445E-005	0.0108681	8
	27	223	597.4265	543351.9	-15743.12	1	543579.9	-1.659628	2.678927E-005	-0.007033	8
	28	230	477.4305	97197.4	-2819627	1	2821302	-88.0257	-2.643245E-007	0.0006559	8
	29	236	376.6741	273511.3	-3549893	1	3560414	-85.59419	-6.644618E-009	0.000679	6
	30	240	298.2954	784906.4	-4583047	1	4649774	-80.28164	-6.814703E-010	0.0006141	5
	31	244	237.7717	996650	-5618351	1	5706064	-79.94083	-6.809736E-010	0.0006631	5
	32	248	189.0121	1193073	-6997812	1	7098788	-80.32454	-7.713694E-010	0.0007062	5
	33	252	150.2404	1445158	-8719878	1	8838821	-80.58982	-7.856391E-010	0.0006909	5
	34	259	119.1737	3344091	-1.039066E+007	1	1.091552E+007	-72.15993	-6.794355E-010	0.0006599	5
	35	261	95.0169	2698609	-1.313419E+007	1	1.340856E+007	-78.38934	-7.322074E-010	0.0007086	5
	36	264	75.60484	4549974	-1.519678E+007	1	1.58633E+007	-73.3321	-9.041614E-010	0.0006996	5
	37	267	54.50582	6062760	-2.115799E+007	1	2.200949E+007	-74.0105	-6.998192E-010	0.0006135	5
	38	270	45.95588	1.00726E+007	-2.890362E+007	1	3.060844E+007	-70.7871	-1.26248E-010	0.0006571	4
	39	273	37.20238	1.267554E+007	-2.631744E+007	1	2.921091E+007	-64.28265	-6.493936E-010	0.0006154	5
	40	277	30.04808	1.70833E+007	-3.496117E+007	1	3.891173E+007	-63.95818	-7.609401E-010	0.0006591	5
	41	281	23.91582	2.18916E+007	-4.40893E+007	1	4.922508E+007	-63.59428	-1.574117E-010	0.00069	4
	42	284	18.60119	3.382678E+007	-1.604252E+007	1	3.743813E+007	-25.37288	-4.848535E-010	0.0006215	4
	43	288	15.02404	4.657224E+007	-4.590652E+007	1	6.539406E+007	-44.58755	-8.238509E-011	0.0007087	4
	44	292	12.01923	5.463644E+007	-5.021892E+007	1	7.420971E+007	-42.58757	-6.538997E-011	0.0006504	4
	45	295	9.450605	6.786006E+007	-5.00239E+007	1	8.430527E+007	-36.39625	-6.484241E-011	0.000687	4
	46	299	7.512019	7.710269E+007	-5.069528E+007	1	9.227586E+007	-33.32505	-5.8297E-011	0.0007183	4
	47	304	5.978954	8.726642E+007	-3.835942E+007	1	9.53251E+007	-23.7287	-4.532097E-011	0.0006947	4
	48	309	4.734848	9.880546E+007	-4.266395E+007	1	1.076231E+008	-23.35456	-6.57867E-011	0.000611	4
	49	315	3.75601	1.075075E+008	-4.463635E+007	1	1.164056E+008	-22.54787	-5.280852E-011	0.0006841	4
	50	322	3.004808	1.1913E+008	-3.744024E+007	1	1.248749E+008	-17.44692	-6.924208E-011	0.0006618	4
	51	330	2.372217	1.33812E+008	-2.679132E+007	1	1.364676E+008	-11.32184	-8.308704E-012	0.0006764	3
	52	334	1.878005	1.418812E+008	-2.553295E+007	1	1.441603E+008	-10.20176	-5.966575E-012	0.0007396	3
	53	343	1.512097	1.507676E+008	-2.501614E+007	1	1.528289E+008	-9.420978	-2.280201E-012	0.0006342	3
	54	349	1.201923	1.617273E+008	-2.485574E+007	1	1.636262E+008	-8.73738	-5.971064E-012	0.0007611	3
	55	360	0.956633	1.74095E+008	-2.561615E+007	1	1.759695E+008	-8.370376	-1.140618E-011	8.91302E-005	3
