EXPLAIN
TAG	EISPOT
TITLE	LABEL	Potentiostatic EIS	Test Identifier
DATE	LABEL	2/26/2021	Date
TIME	LABEL	23:24:00	Time
NOTES	NOTES	1	Notes...
	
PSTAT	PSTAT	REF3000-16137	Potentiostat
VDC	POTEN	0.00000E+000	T	DC Voltage (V)
FREQINIT	QUANT	3.00000E+005	Initial Freq. (Hz)
FREQFINAL	QUANT	1.00000E+000	Final Freq. (Hz)
PTSPERDEC	QUANT	1.00000E+001	Points/decade
VAC	QUANT	5.00000E+001	AC Voltage (mV rms)
AREA	QUANT	1.00000E+000	Sample Area (cm^2)
SPEED	SELECTOR	2	Optimize for:
ZGUESS	QUANT	1.00000E+003	Estimated Z (ohms)
EOC	QUANT	0	Open Circuit (V)
SEQUENCER	TOGGLE	TRUE	Run as Sequence
PSTATMODEL	IQUANT	5	Pstat Model
PSTATSECTION	LABEL	REF3000-16137	Pstat Section
PSTATSERIALNO	LABEL	16137	Pstat Serial Number
CTRLMODE	IQUANT	1	Control Mode
IESTAB	IQUANT	0	I/E Stability
CASPEED	IQUANT	1	Control Amp Speed
CONVENTION	IQUANT	1	Current Convention
ICHRANGE	IQUANT	2	Ich Range
ICHRANGEMODE	TOGGLE	F	Ich Auto Range
ICHOFFSETENABLE	TOGGLE	T	Ich Offset Enable
ICHOFFSET	QUANT	0	Ich Offset (V)
ICHFILTER	IQUANT	3	Ich Filter
VCHRANGE	IQUANT	2	Vch Range
VCHRANGEMODE	TOGGLE	F	Vch Auto Range
VCHOFFSETENABLE	TOGGLE	T	Vch Offset Enable
VCHOFFSET	QUANT	0	Vch Offset (V)
VCHFILTER	IQUANT	3	Vch Filter
ACHRANGE	IQUANT	2	Ach Range
ACHOFFSETENABLE	TOGGLE	F	Ach Offset Enable
ACHOFFSET	QUANT	0	Ach Offset (V)
ACHFILTER	IQUANT	3	Ach Filter
IERANGELOWERLIMIT	IQUANT	2	I/E Range Lower Limit
IERANGEMODE	TOGGLE	F	I/E AutoRange
IERANGE	IQUANT	11	I/E Range
POSFEEDENABLE	TOGGLE	F	Positive Feedback IR Comp
POSFEEDRESISTANCE	QUANT	0	Positive Feedback Resistance (ohm)
ACHSELECT	IQUANT	0	Ach Select
CABLEID	IQUANT	13	Cable ID
DCCALDATE	LABEL	7/31/2020	DC Calibration Date
ACCALDATE	LABEL	7/31/2020	AC Calibration Date
THERMOSELECT	IQUANT	1	Thermo Select
FRAMEWORKVERSION	QUANT	6.33	Framework Version
INSTRUMENTVERSION	LABEL	3.50	Instrument Version
COMPLIANCEVOLTAGE	IQUANT	0	Compliance Voltage
ZCURVE	TABLE
	Pt	Time	Freq	Zreal	Zimag	Zsig	Zmod	Zphz	Idc	Vdc	IERange
	#	s	Hz	ohm	ohm	V	ohm	°	A	V	#
	0	24	300046.9	1031.658	-237.619	1	1058.67	-12.97057	-9.269619E-005	0.0040761	9
	1	44	238359.4	1075.734	-214.8212	1	1096.974	-11.29326	-0.0001019	0.0036333	9
	2	58	189328.1	1122.946	-201.4707	1	1140.876	-10.17138	8.451333E-005	-0.0032638	9
	3	68	150421.9	1165.679	-188.108	1	1180.759	-9.166911	7.618261E-005	-0.0015704	9
	4	81	119484.4	1194.714	-136.2072	1	1202.453	-6.504107	2.138551E-005	0.0054409	8
	5	88	94921.88	1206.963	-131.0936	1	1214.061	-6.198853	2.156692E-005	-0.0059542	8
	6	92	75421.88	1224.344	-132.1603	1	1231.456	-6.16087	-2.364358E-006	-0.0033333	8
	7	94	59859.37	1237.992	-144.6876	1	1246.419	-6.666077	-2.022596E-005	0.0077103	8
	8	97	47578.12	1258.582	-159.081	1	1268.596	-7.203815	8.164762E-006	0.0028127	8
	9	102	37828.12	1277.107	-180.7161	1	1289.829	-8.054128	1.440097E-005	0.0001133	8
	10	105	30046.88	1297.086	-206.5523	1	1313.429	-9.048001	-1.703116E-005	0.0029669	8
	11	110	23859.38	1324.144	-240.8914	1	1345.878	-10.31062	-8.836829E-006	-0.0009683	8
	12	112	18984.38	1351.895	-284.391	1	1381.484	-11.87979	-1.68284E-005	0.0028759	8
	13	116	15046.87	1388.868	-334.7155	1	1428.631	-13.54984	1.462749E-005	2.015381E-005	8
	14	121	11953.13	1430.28	-393.1504	1	1483.33	-15.36967	7.844603E-006	0.0030314	8
	15	123	9515.62	1473.961	-466.1363	1	1545.912	-17.54943	-2.10655E-006	-0.0034595	8
	16	128	7546.875	1532.279	-550.5159	1	1628.173	-19.7623	-1.678786E-005	0.0028869	8
	17	132	5928.309	1603.594	-653.771	1	1731.741	-22.18029	2.055076E-005	-0.00707	8
	18	136	4733.456	1687.86	-758.5966	1	1850.497	-24.20119	-1.446778E-005	0.0089066	8
	19	140	3796.875	1768.068	-885.4073	1	1977.375	-26.60064	2.203834E-005	-0.0059186	8
	20	145	2987.132	1879.702	-1029.886	1	2143.349	-28.71827	-1.93204E-005	0.0046981	8
	21	149	2390.625	2000.877	-1180.464	1	2323.145	-30.53948	-1.478956E-005	0.0090078	8
	22	153	1884.191	2132.603	-1375.538	1	2537.735	-32.82219	1.51991E-005	-0.0001098	8
	23	157	1516.544	2280.899	-1572.063	1	2770.178	-34.57576	-2.085702E-005	0.0079693	8
	24	163	1193.986	2423.222	-1820.727	1	3031.015	-36.91997	-1.720042E-005	0.0029239	8
	25	168	946.5144	2589.356	-2162.52	1	3373.612	-39.8672	-6.886457E-007	-0.0004528	9
	26	172	751.7689	2701.014	-2473.352	1	3662.369	-42.48072	1.28803E-005	-0.007303	8
	27	176	597.4265	2878.074	-2947.074	1	4119.291	-45.67865	-1.775017E-005	0.003155	8
	28	179	477.4305	2934.589	-3496.363	1	4564.687	-49.99239	-1.474297E-007	0.0006481	8
	29	183	376.6741	3057.104	-4253.203	1	5237.902	-54.29229	-3.677518E-008	0.0005885	7
	30	185	298.2954	3166.272	-5198.948	1	6087.228	-58.65768	-3.71234E-008	0.0005953	7
	31	187	237.7717	3281.027	-6362.89	1	7159.016	-62.72208	-3.604034E-008	0.0006123	7
	32	190	189.0121	3407.96	-7845.041	1	8553.295	-66.51942	-3.84889E-008	0.000637	7
	33	192	150.2404	3554.279	-9709.61	1	10339.7	-69.89445	-3.74162E-008	0.0006239	7
	34	195	119.1737	3724.586	-12072.5	1	12634	-72.85405	-3.7477E-008	0.0006242	7
	35	197	95.0169	3927.632	-14958.03	1	15465.09	-75.28758	-4.314308E-008	0.0006563	7
	36	200	75.60484	4175.262	-18591.37	1	19054.44	-77.34248	-3.903157E-008	0.0005982	7
	37	202	54.50582	4614.691	-25444.39	1	25859.47	-79.72036	-4.414914E-008	0.000655	7
	38	205	45.95588	4915.59	-29947.68	1	30348.42	-80.67863	-4.237533E-008	0.0006637	7
	39	207	37.20238	5340.734	-36689.73	1	37076.41	-81.71792	-4.444176E-008	0.0006478	7
	40	209	30.04808	5910.241	-45051.14	1	45437.17	-82.52607	-4.29451E-009	0.0006623	6
	41	212	23.91582	6592.105	-56050.72	1	56437.04	-83.29227	-5.116696E-009	0.0006678	6
	42	214	18.60119	7679.844	-71377.28	1	71789.25	-83.85888	-5.826306E-009	0.000657	6
	43	216	15.02404	8613.584	-87785.21	1	88206.79	-84.39601	-5.003665E-009	0.0007032	6
	44	219	12.01923	9967.38	-108825	1	109280.5	-84.76683	-4.83084E-009	0.0006505	6
	45	221	9.450605	11810.4	-137199	1	137706.4	-85.07998	-4.820364E-009	0.0006836	6
	46	224	7.512019	14033.51	-171247.7	1	171821.8	-85.31516	-5.049983E-009	0.0006938	6
	47	227	5.978954	16936.19	-213256.2	1	213927.6	-85.45927	-4.996171E-009	0.0006908	6
	48	231	4.734848	20697.03	-267187.8	1	267988.2	-85.57057	-5.064441E-009	0.0006974	6
	49	235	3.75601	25605.19	-333872.4	1	334852.8	-85.61449	-4.663412E-009	0.0006998	6
	50	240	3.004808	31646.47	-413840.6	1	415048.8	-85.62709	-4.515722E-009	0.0006005	6
	51	247	2.372217	40321.45	-519727.1	1	521288.9	-85.56377	-5.245887E-010	0.0005787	5
	52	251	1.878005	51250.21	-650363.6	1	652379.8	-85.49426	-5.217288E-010	0.0006627	5
	53	256	1.512097	64979.76	-798823.1	1	801461.6	-85.34955	-6.302129E-010	0.000603	5
	54	261	1.201923	81930.16	-997874	1	1001232	-85.30627	-5.336177E-010	0.0006807	5
	55	267	0.956633	105390.8	-1241287	1	1245753	-85.14697	-5.876667E-010	6.989741E-006	5
