EXPLAIN
TAG	EISPOT
TITLE	LABEL	Potentiostatic EIS	Test Identifier
DATE	LABEL	2/26/2021	Date
TIME	LABEL	23:28:37	Time
NOTES	NOTES	1	Notes...
	
PSTAT	PSTAT	REF3000-16137	Potentiostat
VDC	POTEN	0.00000E+000	T	DC Voltage (V)
FREQINIT	QUANT	3.00000E+005	Initial Freq. (Hz)
FREQFINAL	QUANT	1.00000E+000	Final Freq. (Hz)
PTSPERDEC	QUANT	1.00000E+001	Points/decade
VAC	QUANT	5.00000E+001	AC Voltage (mV rms)
AREA	QUANT	1.00000E+000	Sample Area (cm^2)
SPEED	SELECTOR	2	Optimize for:
ZGUESS	QUANT	1.00000E+003	Estimated Z (ohms)
EOC	QUANT	0	Open Circuit (V)
SEQUENCER	TOGGLE	TRUE	Run as Sequence
PSTATMODEL	IQUANT	5	Pstat Model
PSTATSECTION	LABEL	REF3000-16137	Pstat Section
PSTATSERIALNO	LABEL	16137	Pstat Serial Number
CTRLMODE	IQUANT	1	Control Mode
IESTAB	IQUANT	0	I/E Stability
CASPEED	IQUANT	1	Control Amp Speed
CONVENTION	IQUANT	1	Current Convention
ICHRANGE	IQUANT	2	Ich Range
ICHRANGEMODE	TOGGLE	F	Ich Auto Range
ICHOFFSETENABLE	TOGGLE	T	Ich Offset Enable
ICHOFFSET	QUANT	0	Ich Offset (V)
ICHFILTER	IQUANT	3	Ich Filter
VCHRANGE	IQUANT	2	Vch Range
VCHRANGEMODE	TOGGLE	F	Vch Auto Range
VCHOFFSETENABLE	TOGGLE	T	Vch Offset Enable
VCHOFFSET	QUANT	0	Vch Offset (V)
VCHFILTER	IQUANT	3	Vch Filter
ACHRANGE	IQUANT	2	Ach Range
ACHOFFSETENABLE	TOGGLE	F	Ach Offset Enable
ACHOFFSET	QUANT	0	Ach Offset (V)
ACHFILTER	IQUANT	3	Ach Filter
IERANGELOWERLIMIT	IQUANT	2	I/E Range Lower Limit
IERANGEMODE	TOGGLE	F	I/E AutoRange
IERANGE	IQUANT	11	I/E Range
POSFEEDENABLE	TOGGLE	F	Positive Feedback IR Comp
POSFEEDRESISTANCE	QUANT	0	Positive Feedback Resistance (ohm)
ACHSELECT	IQUANT	0	Ach Select
CABLEID	IQUANT	13	Cable ID
DCCALDATE	LABEL	7/31/2020	DC Calibration Date
ACCALDATE	LABEL	7/31/2020	AC Calibration Date
THERMOSELECT	IQUANT	1	Thermo Select
FRAMEWORKVERSION	QUANT	6.33	Framework Version
INSTRUMENTVERSION	LABEL	3.50	Instrument Version
COMPLIANCEVOLTAGE	IQUANT	0	Compliance Voltage
ZCURVE	TABLE
	Pt	Time	Freq	Zreal	Zimag	Zsig	Zmod	Zphz	Idc	Vdc	IERange
	#	s	Hz	ohm	ohm	V	ohm	°	A	V	#
	0	14	300046.9	1698.662	-698.3309	1	1836.605	-22.34788	1.853832E-005	-0.001054	9
	1	28	238359.4	1825.263	-632.4086	1	1931.716	-19.10994	-2.224115E-007	-0.0019912	9
	2	41	189328.1	1944.108	-549.2461	1	2020.204	-15.77596	-0.0001032	0.0037004	9
	3	50	150421.9	2032.69	-448.5748	1	2081.597	-12.4446	-0.000104	0.0037223	9
	4	56	119484.4	2106.966	-380.6868	1	2141.081	-10.24171	9.238567E-006	-0.0149394	8
	5	63	94921.88	2147.546	-331.0004	1	2172.905	-8.762028	-9.070432E-006	-0.0013831	8
	6	66	75421.88	2184.6	-313.1736	1	2206.934	-8.158062	8.076257E-006	0.0033288	8
	7	73	59859.37	2235.854	-289.9708	1	2254.578	-7.389519	-2.096839E-005	0.0048673	8
	8	76	47578.12	2257.121	-288.4234	1	2275.474	-7.282008	6.436176E-006	-0.0064038	8
	9	80	37828.12	2298.331	-284.2608	1	2315.844	-7.050616	-2.088501E-005	0.0095883	8
	10	83	30046.88	2330.427	-299.7172	1	2349.622	-7.328604	-1.130183E-006	0.0066004	8
	11	87	23859.38	2366.563	-329.8372	1	2389.438	-7.934426	-9.02152E-006	-0.001418	8
	12	91	18984.38	2426.117	-387.3692	1	2456.847	-9.071634	-1.196071E-005	0.0009789	9
	13	96	15046.87	2473.979	-423.5714	1	2509.978	-9.71544	-2.286634E-005	0.0068697	8
	14	101	11953.13	2528.477	-496.3984	1	2576.743	-11.10722	1.602896E-005	-7.087068E-006	8
	15	106	9515.62	2597.418	-572.2743	1	2659.714	-12.42514	2.277007E-005	-0.0077581	8
	16	111	7546.875	2684.868	-667.6049	1	2766.625	-13.96367	2.30669E-005	-0.007793	8
	17	117	5928.309	2776.41	-810.3885	1	2892.262	-16.27166	1.422876E-007	-0.0004897	9
	18	122	4733.456	2892.031	-954.024	1	3045.325	-18.2567	-9.086473E-006	-0.0014531	8
	19	127	3796.875	3007.598	-1115.285	1	3207.726	-20.34591	-2.289767E-005	0.0004468	9
	20	133	2987.132	3148.033	-1308.884	1	3409.295	-22.57648	1.611182E-005	7.802973E-005	8
	21	138	2390.625	3317.689	-1522.067	1	3650.171	-24.64439	2.286518E-005	-0.0077832	8
	22	143	1884.191	3492.456	-1802.127	1	3930.001	-27.29398	1.404566E-005	-0.0080099	8
	23	149	1516.544	3739.779	-2056.167	1	4267.759	-28.80242	2.130164E-005	-0.0027107	8
	24	154	1193.986	3966.636	-2429.937	1	4651.751	-31.49138	2.136468E-005	-0.0027174	8
	25	160	946.5144	4203.849	-2704.876	1	4998.87	-32.75838	2.31471E-005	-0.0044552	8
	26	163	751.7689	4505.718	-3134.332	1	5488.673	-34.8238	-2.364867E-005	0.0071066	8
	27	167	597.4265	4871.114	-3857.371	1	6213.458	-38.37524	-2.295616E-005	0.0084999	8
	28	171	477.4305	5107.716	-4259.349	1	6650.625	-39.82489	-1.998647E-007	0.0006543	8
	29	174	376.6741	5384.244	-5010.634	1	7355.035	-42.94157	-4.777477E-008	0.0005899	7
	30	176	298.2954	5621.862	-5942.458	1	8180.351	-46.588	-5.091985E-008	0.0006131	7
	31	179	237.7717	5839.891	-7095.078	1	9189.366	-50.54253	-5.397231E-008	0.0006579	7
	32	181	189.0121	6055.259	-8575.439	1	10497.83	-54.77345	-5.438882E-008	0.0006695	7
	33	184	150.2404	6273.53	-10455.49	1	12193.21	-59.03529	-4.956827E-008	0.0005924	7
	34	186	119.1737	6510.742	-12858.44	1	14412.82	-63.14509	-5.045014E-008	0.0006098	7
	35	188	95.0169	6764.076	-15818.96	1	17204.42	-66.84879	-5.344314E-008	0.0006675	7
	36	191	75.60484	7066.091	-19556.43	1	20793.83	-70.13429	-5.377508E-008	0.0006675	7
	37	193	54.50582	7541.151	-26597.86	1	27646.25	-74.17065	-5.208889E-008	0.0006246	7
	38	196	45.95588	7899.949	-31317.95	1	32298.96	-75.84249	-4.872651E-008	0.0006405	7
	39	198	37.20238	8360.5	-38280.61	1	39182.94	-77.68003	-4.7294E-008	0.0005928	7
	40	201	30.04808	9003.943	-47005.01	1	47859.61	-79.15619	-5.493525E-009	0.0006527	6
	41	203	23.91582	9684.81	-58474.87	1	59271.46	-80.59584	-5.959718E-009	0.0006779	6
	42	205	18.60119	10779.94	-74372.35	1	75149.54	-81.75267	-5.601225E-009	0.0006459	6
	43	208	15.02404	11807.15	-91376.73	1	92136.4	-82.63738	-5.769112E-009	0.000643	6
	44	210	12.01923	13191.39	-113248.4	1	114014.1	-83.35602	-5.706644E-009	0.0006951	6
	45	213	9.450605	15091.99	-142827.8	1	143623	-83.96819	-5.483969E-009	0.0006746	6
	46	215	7.512019	17250.29	-178150.6	1	178983.8	-84.4693	-6.004418E-009	0.000727	6
	47	218	5.978954	20029.26	-221921.2	1	222823.2	-84.8428	-5.746712E-009	0.0006494	6
	48	223	4.734848	23682.59	-277961.2	1	278968.3	-85.1301	-5.923851E-009	0.0006875	6
	49	226	3.75601	28248.05	-347714.4	1	348860	-85.35554	-5.334071E-009	0.0006349	6
	50	232	3.004808	33748.91	-431063	1	432382.2	-85.52332	-6.035329E-009	0.0007019	6
	51	238	2.372217	41748.48	-541562.6	1	543169.4	-85.59185	-7.206515E-010	0.0007202	5
	52	242	1.878005	52075.8	-678545.6	1	680540.9	-85.61137	-6.484875E-010	0.0006344	5
	53	247	1.512097	64333.18	-835664.9	1	838137.6	-85.5978	-6.036341E-010	0.0007413	5
	54	252	1.201923	79318.73	-1043373	1	1046383	-85.65265	-6.396015E-010	0.0006269	5
	55	259	0.956633	99136.4	-1300099	1	1303873	-85.63947	-6.922577E-010	1.158616E-005	5
