EXPLAIN
TAG	EISPOT
TITLE	LABEL	Potentiostatic EIS	Test Identifier
DATE	LABEL	2/26/2021	Date
TIME	LABEL	22:15:45	Time
NOTES	NOTES	1	Notes...
	
PSTAT	PSTAT	REF3000-16137	Potentiostat
VDC	POTEN	0.00000E+000	T	DC Voltage (V)
FREQINIT	QUANT	3.00000E+005	Initial Freq. (Hz)
FREQFINAL	QUANT	1.00000E+000	Final Freq. (Hz)
PTSPERDEC	QUANT	1.00000E+001	Points/decade
VAC	QUANT	5.00000E+001	AC Voltage (mV rms)
AREA	QUANT	1.00000E+000	Sample Area (cm^2)
SPEED	SELECTOR	2	Optimize for:
ZGUESS	QUANT	1.00000E+003	Estimated Z (ohms)
EOC	QUANT	0	Open Circuit (V)
SEQUENCER	TOGGLE	TRUE	Run as Sequence
PSTATMODEL	IQUANT	5	Pstat Model
PSTATSECTION	LABEL	REF3000-16137	Pstat Section
PSTATSERIALNO	LABEL	16137	Pstat Serial Number
CTRLMODE	IQUANT	1	Control Mode
IESTAB	IQUANT	0	I/E Stability
CASPEED	IQUANT	1	Control Amp Speed
CONVENTION	IQUANT	1	Current Convention
ICHRANGE	IQUANT	2	Ich Range
ICHRANGEMODE	TOGGLE	F	Ich Auto Range
ICHOFFSETENABLE	TOGGLE	T	Ich Offset Enable
ICHOFFSET	QUANT	0	Ich Offset (V)
ICHFILTER	IQUANT	3	Ich Filter
VCHRANGE	IQUANT	2	Vch Range
VCHRANGEMODE	TOGGLE	F	Vch Auto Range
VCHOFFSETENABLE	TOGGLE	T	Vch Offset Enable
VCHOFFSET	QUANT	0	Vch Offset (V)
VCHFILTER	IQUANT	3	Vch Filter
ACHRANGE	IQUANT	2	Ach Range
ACHOFFSETENABLE	TOGGLE	F	Ach Offset Enable
ACHOFFSET	QUANT	0	Ach Offset (V)
ACHFILTER	IQUANT	3	Ach Filter
IERANGELOWERLIMIT	IQUANT	2	I/E Range Lower Limit
IERANGEMODE	TOGGLE	F	I/E AutoRange
IERANGE	IQUANT	11	I/E Range
POSFEEDENABLE	TOGGLE	F	Positive Feedback IR Comp
POSFEEDRESISTANCE	QUANT	0	Positive Feedback Resistance (ohm)
ACHSELECT	IQUANT	0	Ach Select
CABLEID	IQUANT	13	Cable ID
DCCALDATE	LABEL	7/31/2020	DC Calibration Date
ACCALDATE	LABEL	7/31/2020	AC Calibration Date
THERMOSELECT	IQUANT	1	Thermo Select
FRAMEWORKVERSION	QUANT	6.33	Framework Version
INSTRUMENTVERSION	LABEL	3.50	Instrument Version
COMPLIANCEVOLTAGE	IQUANT	0	Compliance Voltage
ZCURVE	TABLE
	Pt	Time	Freq	Zreal	Zimag	Zsig	Zmod	Zphz	Idc	Vdc	IERange
	#	s	Hz	ohm	ohm	V	ohm	°	A	V	#
	0	7	300046.9	21.94655	-7.273506	1	23.12045	-18.33618	1.551111E-005	-0.0003703	10
	1	10	238359.4	22.92119	-9.235384	1	24.71181	-21.94544	2.80718E-005	0.0005806	10
	2	13	189328.1	23.98454	-11.41428	1	26.56207	-25.44985	-0.0001023	0.0001787	11
	3	17	150421.9	25.5035	-13.36081	1	28.79131	-27.64921	6.967948E-005	0.0005827	10
	4	20	119484.4	26.93208	-15.65551	1	31.15175	-30.16927	3.972333E-006	0.0008569	10
	5	22	94921.88	28.38059	-18.1993	1	33.71457	-32.67037	-1.94097E-005	0.0006805	10
	6	25	75421.88	29.89712	-21.12122	1	36.60524	-35.2398	-1.179688E-005	0.0007504	10
	7	27	59859.37	31.42924	-24.50051	1	39.85062	-37.93802	-9.354009E-006	0.0003351	9
	8	30	47578.12	32.76046	-28.82543	1	43.6366	-41.34405	1.614763E-005	-0.0002777	9
	9	32	37828.12	34.0658	-34.33184	1	48.3648	-45.22285	-4.307058E-006	0.0003685	9
	10	35	30046.88	35.34277	-41.20449	1	54.28555	-49.37897	6.715848E-007	-5.368108E-005	9
	11	37	23859.38	36.77839	-49.92213	1	62.00701	-53.62037	1.719704E-005	-0.0003506	9
	12	40	18984.38	38.28826	-60.69306	1	71.76099	-57.75419	-5.495491E-006	0.0004779	9
	13	42	15046.87	40.13963	-74.55137	1	84.67052	-61.70128	-8.546805E-006	0.0005195	9
	14	44	11953.13	42.09887	-91.96006	1	101.1384	-65.40192	-7.151684E-006	0.0004069	9
	15	47	9515.62	44.96023	-113.0081	1	121.6234	-68.30489	1.373318E-005	-0.0003156	9
	16	49	7546.875	47.72321	-140.0908	1	147.9964	-71.18813	-1.163452E-005	0.0004504	9
	17	51	5928.309	52.69335	-174.9318	1	182.6957	-73.23653	1.476661E-005	-0.0003278	9
	18	54	4733.456	58.35726	-215.2152	1	222.9869	-74.82862	-1.050876E-005	0.0003703	9
	19	56	3796.875	64.7401	-264.2115	1	272.0275	-76.232	1.657943E-005	-0.0002401	9
	20	58	2987.132	75.12248	-329.4608	1	337.9168	-77.15522	4.850467E-006	-0.0001846	9
	21	61	2390.625	84.64806	-405.865	1	414.5982	-78.21915	-1.026595E-006	-1.822028E-005	9
	22	63	1884.191	103.5439	-501.1556	1	511.7405	-78.32636	1.014367E-006	0.0003935	8
	23	65	1516.544	123.1656	-610.8142	1	623.1082	-78.59966	-1.357437E-006	0.0012447	8
	24	67	1193.986	151.5895	-758.22	1	773.225	-78.69402	-1.85807E-006	0.0011464	8
	25	70	946.5144	188.2039	-933.927	1	952.702	-78.60641	2.87435E-006	0.0001269	8
	26	72	751.7689	234.0554	-1147.415	1	1171.043	-78.4707	-1.480894E-006	0.0010116	8
	27	75	597.4265	287.8909	-1404.688	1	1433.886	-78.41762	1.583845E-006	0.0005575	8
	28	77	477.4305	361.7898	-1711.509	1	1749.33	-78.06416	5.957312E-007	0.0006664	8
	29	79	376.6741	457.5631	-2103.583	1	2152.771	-77.7284	5.909219E-007	0.0006631	8
	30	82	298.2954	576.0389	-2573.333	1	2637.018	-77.38238	5.891339E-007	0.0006692	8
	31	84	237.7717	719.7534	-3126.13	1	3207.917	-77.03429	6.030367E-007	0.0006631	8
	32	86	189.0121	900.182	-3801.79	1	3906.908	-76.67892	6.041985E-007	0.0006566	8
	33	89	150.2404	1127.695	-4626.213	1	4761.674	-76.30063	4.643853E-008	0.000638	7
	34	91	119.1737	1406.684	-5623.834	1	5797.092	-75.9568	4.789897E-008	0.00064	7
	35	94	95.0169	1741.897	-6800.526	1	7020.068	-75.63306	4.732271E-008	0.0006422	7
	36	96	75.60484	2157.594	-8230.869	1	8508.961	-75.31129	4.971612E-008	0.0006422	7
	37	99	54.50582	2918.957	-10794.8	1	11182.49	-74.86885	5.118645E-008	0.0006336	7
	38	101	45.95588	3414.161	-12441.02	1	12900.99	-74.65424	5.029444E-008	0.0006442	7
	39	104	37.20238	4146.812	-14823.46	1	15392.57	-74.37122	4.594506E-008	0.0006495	7
	40	106	30.04808	5044.458	-17671.21	1	18377.11	-74.06798	4.612084E-008	0.0006462	7
	41	108	23.91582	6210.616	-21324.88	1	22210.86	-73.76243	5.138119E-008	0.0006361	7
	42	111	18.60119	7796.896	-26167.21	1	27304.11	-73.40781	4.657396E-008	0.0006526	7
	43	113	15.02404	9438.311	-31193.2	1	32589.84	-73.16545	4.781972E-008	0.0006348	7
	44	115	12.01923	11606.69	-37387.1	1	39147.29	-72.75323	4.873616E-008	0.0006384	7
	45	118	9.450605	14479.38	-45461.88	1	47712	-72.33359	-7.070617E-009	0.0006861	6
	46	120	7.512019	17893.92	-54662.69	1	57516.97	-71.87406	-7.834497E-009	0.0007031	6
	47	123	5.978954	22193.17	-65590.95	1	69243.84	-71.30638	-8.226414E-009	0.0006868	6
	48	128	4.734848	27753.3	-79095.52	1	83823.31	-70.66488	-8.491725E-009	0.0006791	6
	49	131	3.75601	34703.75	-94806.43	1	100958.5	-69.89493	-7.369582E-009	0.0006959	6
	50	136	3.004808	43178.29	-112747.9	1	120733	-69.04501	-7.902118E-009	0.0007094	6
	51	143	2.372217	54616.58	-134973.3	1	145604.8	-67.96941	-7.906002E-009	0.0006693	6
	52	147	1.878005	69203.98	-160825.2	1	175082.6	-66.71752	-7.29838E-009	0.0006714	6
	53	152	1.512097	85938.45	-188381.1	1	207057.6	-65.47778	-7.737462E-009	0.0007689	6
	54	157	1.201923	108602.4	-221504.1	1	246695.2	-63.8815	-7.341971E-009	0.0006774	6
	55	163	0.956633	136458.7	-258325.3	1	292152.2	-62.15503	-8.971193E-009	3.938993E-005	6
