EXPLAIN
TAG	EISPOT
TITLE	LABEL	Potentiostatic EIS	Test Identifier
DATE	LABEL	2/26/2021	Date
TIME	LABEL	23:13:10	Time
NOTES	NOTES	1	Notes...
	
PSTAT	PSTAT	REF3000-16137	Potentiostat
VDC	POTEN	0.00000E+000	T	DC Voltage (V)
FREQINIT	QUANT	3.00000E+005	Initial Freq. (Hz)
FREQFINAL	QUANT	1.00000E+000	Final Freq. (Hz)
PTSPERDEC	QUANT	1.00000E+001	Points/decade
VAC	QUANT	5.00000E+001	AC Voltage (mV rms)
AREA	QUANT	1.00000E+000	Sample Area (cm^2)
SPEED	SELECTOR	2	Optimize for:
ZGUESS	QUANT	1.00000E+003	Estimated Z (ohms)
EOC	QUANT	0	Open Circuit (V)
SEQUENCER	TOGGLE	TRUE	Run as Sequence
PSTATMODEL	IQUANT	5	Pstat Model
PSTATSECTION	LABEL	REF3000-16137	Pstat Section
PSTATSERIALNO	LABEL	16137	Pstat Serial Number
CTRLMODE	IQUANT	1	Control Mode
IESTAB	IQUANT	0	I/E Stability
CASPEED	IQUANT	1	Control Amp Speed
CONVENTION	IQUANT	1	Current Convention
ICHRANGE	IQUANT	2	Ich Range
ICHRANGEMODE	TOGGLE	F	Ich Auto Range
ICHOFFSETENABLE	TOGGLE	T	Ich Offset Enable
ICHOFFSET	QUANT	0	Ich Offset (V)
ICHFILTER	IQUANT	3	Ich Filter
VCHRANGE	IQUANT	2	Vch Range
VCHRANGEMODE	TOGGLE	F	Vch Auto Range
VCHOFFSETENABLE	TOGGLE	T	Vch Offset Enable
VCHOFFSET	QUANT	0	Vch Offset (V)
VCHFILTER	IQUANT	3	Vch Filter
ACHRANGE	IQUANT	2	Ach Range
ACHOFFSETENABLE	TOGGLE	F	Ach Offset Enable
ACHOFFSET	QUANT	0	Ach Offset (V)
ACHFILTER	IQUANT	3	Ach Filter
IERANGELOWERLIMIT	IQUANT	2	I/E Range Lower Limit
IERANGEMODE	TOGGLE	F	I/E AutoRange
IERANGE	IQUANT	11	I/E Range
POSFEEDENABLE	TOGGLE	F	Positive Feedback IR Comp
POSFEEDRESISTANCE	QUANT	0	Positive Feedback Resistance (ohm)
ACHSELECT	IQUANT	0	Ach Select
CABLEID	IQUANT	13	Cable ID
DCCALDATE	LABEL	7/31/2020	DC Calibration Date
ACCALDATE	LABEL	7/31/2020	AC Calibration Date
THERMOSELECT	IQUANT	1	Thermo Select
FRAMEWORKVERSION	QUANT	6.33	Framework Version
INSTRUMENTVERSION	LABEL	3.50	Instrument Version
COMPLIANCEVOLTAGE	IQUANT	0	Compliance Voltage
ZCURVE	TABLE
	Pt	Time	Freq	Zreal	Zimag	Zsig	Zmod	Zphz	Idc	Vdc	IERange
	#	s	Hz	ohm	ohm	V	ohm	°	A	V	#
	0	18	300046.9	302.1836	-39.47888	1	304.7515	-7.443271	-2.261268E-005	0.0004808	10
	1	24	238359.4	308.1981	-35.15062	1	310.1961	-6.506585	7.700048E-005	-0.0032093	9
	2	31	189328.1	312.9076	-39.52201	1	315.3936	-7.198664	-8.519728E-005	0.002187	9
	3	36	150421.9	318.6669	-43.32249	1	321.5982	-7.741851	2.569583E-005	0.0007757	9
	4	41	119484.4	324.0256	-51.58294	1	328.1058	-9.045244	1.551586E-005	-0.000747	9
	5	45	94921.88	329.1359	-60.09428	1	334.577	-10.3472	2.672778E-005	-0.0004953	9
	6	48	75421.88	334.7906	-69.80592	1	341.9907	-11.77778	2.692409E-005	-0.0004463	9
	7	50	59859.37	342.5759	-82.39494	1	352.3453	-13.52368	2.777914E-005	-0.0006211	9
	8	53	47578.12	351.9764	-97.1939	1	365.1494	-15.43683	1.67551E-005	-0.0008949	9
	9	55	37828.12	361.3904	-113.7718	1	378.876	-17.47489	-1.521191E-005	0.0002256	9
	10	58	30046.88	373.8931	-130.6306	1	396.0561	-19.25838	-6.97112E-006	0.0051903	8
	11	60	23859.38	388.5335	-154.5077	1	418.1278	-21.68618	1.268373E-005	-0.0018404	8
	12	63	18984.38	405.8394	-181.216	1	444.4602	-24.06179	-2.125701E-006	-0.0015281	8
	13	65	15046.87	425.8855	-213.3923	1	476.3557	-26.61342	-1.015451E-005	0.0054439	8
	14	67	11953.13	447.2381	-245.6203	1	510.2463	-28.77531	1.399684E-005	-0.0030567	8
	15	69	9515.62	476.2787	-284.1686	1	554.6109	-30.82214	-1.128688E-005	0.0026021	8
	16	72	7546.875	505.5335	-328.1867	1	602.7194	-32.99118	-3.293766E-006	0.0046601	8
	17	74	5928.309	536.8179	-378.6138	1	656.9033	-35.19505	1.031925E-005	-0.0043287	8
	18	76	4733.456	568.3493	-437.2077	1	717.0576	-37.5696	-6.330357E-006	7.346336E-005	8
	19	79	3796.875	592.31	-501.3486	1	776.0036	-40.24556	1.43486E-005	-0.0030423	8
	20	81	2987.132	623.9301	-590.4026	1	858.9901	-43.41848	1.337678E-006	0.0034285	8
	21	84	2390.625	645.591	-699.404	1	951.816	-47.29117	-2.76624E-006	-0.001338	8
	22	86	1884.191	674.0305	-843.6878	1	1079.873	-51.3783	-6.841461E-006	0.0001767	8
	23	89	1516.544	695.7176	-1009.232	1	1225.794	-55.41942	-1.234038E-005	0.0036353	8
	24	92	1193.986	717.1606	-1240.825	1	1433.167	-59.97335	-6.731364E-006	0.0001303	8
	25	95	946.5144	742.7754	-1535.484	1	1705.704	-64.18507	-2.13764E-006	-0.0015986	8
	26	98	751.7689	776.3309	-1883.847	1	2037.54	-67.6035	2.030486E-006	-0.0028904	8
	27	100	597.4265	811.389	-2340.237	1	2476.906	-70.87794	6.944749E-006	-0.0040005	8
	28	103	477.4305	850.0327	-2895.427	1	3017.624	-73.63894	5.384005E-008	0.0006532	8
	29	105	376.6741	900.2686	-3625.191	1	3735.304	-76.05347	5.399111E-008	0.000644	8
	30	107	298.2954	966.67	-4537.146	1	4638.98	-77.97257	-9.44067E-009	0.0006287	7
	31	110	237.7717	1039.374	-5635.288	1	5730.337	-79.5498	-4.617901E-009	0.0006078	7
	32	112	189.0121	1129.935	-7021.716	1	7112.049	-80.85833	-6.968263E-009	0.0006351	7
	33	115	150.2404	1242.4	-8751.603	1	8839.35	-81.92014	-7.368303E-009	0.0006355	7
	34	117	119.1737	1382.22	-10931.94	1	11018.98	-82.79384	-5.402562E-009	0.0006104	7
	35	119	95.0169	1556.698	-13591.59	1	13680.45	-83.46616	-7.848793E-009	0.0006163	7
	36	122	75.60484	1773.928	-16933.3	1	17025.97	-84.01952	-6.929583E-009	0.0006129	7
	37	124	54.50582	2192.809	-23176.58	1	23280.08	-84.59515	-7.610677E-009	0.0006282	7
	38	127	45.95588	2465.935	-27340.76	1	27451.74	-84.84629	-9.117164E-009	0.0006376	7
	39	129	37.20238	2898.605	-33493.46	1	33618.65	-85.05381	-6.024216E-009	0.0006429	7
	40	132	30.04808	3448.74	-41181.43	1	41325.58	-85.21293	-9.041691E-009	0.0006347	7
	41	134	23.91582	4219.833	-51254.7	1	51428.11	-85.29342	-2.301835E-009	0.0006814	6
	42	136	18.60119	5320.347	-65256.79	1	65473.31	-85.33902	-1.220383E-009	0.0006861	6
	43	139	15.02404	6479.431	-80058.74	1	80320.52	-85.37294	-1.121666E-009	0.0006962	6
	44	141	12.01923	8092.426	-99167.4	1	99497	-85.33479	-1.285708E-009	0.0006653	6
	45	144	9.450605	10363.28	-124798.8	1	125228.3	-85.25305	-1.240163E-009	0.0006788	6
	46	146	7.512019	13278.18	-155425.5	1	155991.7	-85.11701	-9.092734E-010	0.000668	6
	47	149	5.978954	17079.68	-193174.8	1	193928.4	-84.9473	-1.292014E-009	0.0006729	6
	48	153	4.734848	22064	-241089.3	1	242096.8	-84.77097	-9.801068E-010	0.0006804	6
	49	157	3.75601	28741.15	-300339.7	1	301711.7	-84.5337	-9.153777E-010	0.0006988	6
	50	163	3.004808	37138.8	-370494	1	372350.8	-84.27572	-1.418512E-009	0.0006814	6
	51	169	2.372217	49813.96	-462289.7	1	464965.8	-83.84983	-3.440584E-010	0.0006348	5
	52	173	1.878005	65266.47	-576703	1	580384.4	-83.54321	-1.625376E-010	0.0006442	5
	53	178	1.512097	82787.73	-705520	1	710360.7	-83.30736	-2.753625E-010	0.0007411	5
	54	183	1.201923	109278.1	-874500.9	1	881302.1	-82.87721	-1.355167E-010	0.0006058	5
	55	190	0.956633	141974.3	-1079861	1	1089154	-82.51002	-3.172847E-010	9.020255E-007	5
