EXPLAIN
TAG	EISPOT
TITLE	LABEL	Potentiostatic EIS	Test Identifier
DATE	LABEL	2/26/2021	Date
TIME	LABEL	22:04:13	Time
NOTES	NOTES	1	Notes...
	
PSTAT	PSTAT	REF3000-16137	Potentiostat
VDC	POTEN	0.00000E+000	T	DC Voltage (V)
FREQINIT	QUANT	3.00000E+005	Initial Freq. (Hz)
FREQFINAL	QUANT	1.00000E+000	Final Freq. (Hz)
PTSPERDEC	QUANT	1.00000E+001	Points/decade
VAC	QUANT	5.00000E+001	AC Voltage (mV rms)
AREA	QUANT	1.00000E+000	Sample Area (cm^2)
SPEED	SELECTOR	2	Optimize for:
ZGUESS	QUANT	1.00000E+003	Estimated Z (ohms)
EOC	QUANT	0	Open Circuit (V)
SEQUENCER	TOGGLE	TRUE	Run as Sequence
PSTATMODEL	IQUANT	5	Pstat Model
PSTATSECTION	LABEL	REF3000-16137	Pstat Section
PSTATSERIALNO	LABEL	16137	Pstat Serial Number
CTRLMODE	IQUANT	1	Control Mode
IESTAB	IQUANT	0	I/E Stability
CASPEED	IQUANT	1	Control Amp Speed
CONVENTION	IQUANT	1	Current Convention
ICHRANGE	IQUANT	2	Ich Range
ICHRANGEMODE	TOGGLE	F	Ich Auto Range
ICHOFFSETENABLE	TOGGLE	T	Ich Offset Enable
ICHOFFSET	QUANT	0	Ich Offset (V)
ICHFILTER	IQUANT	3	Ich Filter
VCHRANGE	IQUANT	2	Vch Range
VCHRANGEMODE	TOGGLE	F	Vch Auto Range
VCHOFFSETENABLE	TOGGLE	T	Vch Offset Enable
VCHOFFSET	QUANT	0	Vch Offset (V)
VCHFILTER	IQUANT	3	Vch Filter
ACHRANGE	IQUANT	2	Ach Range
ACHOFFSETENABLE	TOGGLE	F	Ach Offset Enable
ACHOFFSET	QUANT	0	Ach Offset (V)
ACHFILTER	IQUANT	3	Ach Filter
IERANGELOWERLIMIT	IQUANT	2	I/E Range Lower Limit
IERANGEMODE	TOGGLE	F	I/E AutoRange
IERANGE	IQUANT	11	I/E Range
POSFEEDENABLE	TOGGLE	F	Positive Feedback IR Comp
POSFEEDRESISTANCE	QUANT	0	Positive Feedback Resistance (ohm)
ACHSELECT	IQUANT	0	Ach Select
CABLEID	IQUANT	13	Cable ID
DCCALDATE	LABEL	7/31/2020	DC Calibration Date
ACCALDATE	LABEL	7/31/2020	AC Calibration Date
THERMOSELECT	IQUANT	1	Thermo Select
FRAMEWORKVERSION	QUANT	6.33	Framework Version
INSTRUMENTVERSION	LABEL	3.50	Instrument Version
COMPLIANCEVOLTAGE	IQUANT	0	Compliance Voltage
ZCURVE	TABLE
	Pt	Time	Freq	Zreal	Zimag	Zsig	Zmod	Zphz	Idc	Vdc	IERange
	#	s	Hz	ohm	ohm	V	ohm	°	A	V	#
	0	8	300046.9	18.91336	-6.273606	1	19.9267	-18.35081	1.358773E-005	0.0003137	10
	1	11	238359.4	19.78627	-8.020715	1	21.35014	-22.06604	-1.604788E-005	0.0004439	10
	2	15	189328.1	20.88082	-9.78184	1	23.05847	-25.10123	2.439834E-005	0.0005037	10
	3	17	150421.9	22.00688	-11.70844	1	24.92771	-28.01456	-1.558072E-005	0.0006567	10
	4	20	119484.4	23.25501	-13.68786	1	26.98431	-30.48099	1.328104E-005	0.0005961	10
	5	22	94921.88	24.49033	-15.97104	1	29.23783	-33.10984	-1.091818E-006	0.0006441	10
	6	25	75421.88	25.72754	-18.63383	1	31.76674	-35.91489	2.688623E-005	0.0006583	10
	7	27	59859.37	26.9294	-21.8697	1	34.69115	-39.08048	-1.171423E-005	0.0007503	10
	8	30	47578.12	28.08408	-25.87535	1	38.18703	-42.65601	9.635248E-006	0.0007348	10
	9	32	37828.12	29.28737	-30.74369	1	42.46086	-46.38969	1.410526E-005	-0.0001948	9
	10	35	30046.88	30.51761	-37.08813	1	48.02972	-50.55107	1.672689E-006	0.000292	9
	11	37	23859.38	31.88948	-45.13462	1	55.26367	-54.75721	-9.438218E-006	0.0004256	9
	12	40	18984.38	33.47901	-54.97522	1	64.36707	-58.65927	4.668293E-006	-0.0001427	9
	13	42	15046.87	35.47207	-67.46629	1	76.22315	-62.26574	1.410096E-005	-0.0002859	9
	14	44	11953.13	38.02565	-82.83735	1	91.1481	-65.34299	6.172387E-006	0.0001205	9
	15	46	9515.62	41.49093	-101.5577	1	109.7063	-67.77776	-9.315571E-006	0.000317	9
	16	49	7546.875	45.19081	-125.5341	1	133.4204	-70.20171	5.223637E-006	-0.0001712	9
	17	51	5928.309	50.95497	-155.8824	1	163.9992	-71.89842	-9.909742E-006	0.0004296	9
	18	53	4733.456	57.64662	-190.8829	1	199.3976	-73.19569	9.394548E-006	-2.508744E-005	9
	19	56	3796.875	65.62746	-232.7504	1	241.8258	-74.2534	-3.984287E-006	7.577836E-005	9
	20	58	2987.132	79.13357	-287.4276	1	298.1221	-74.6069	4.763842E-006	-0.0001559	9
	21	60	2390.625	90.3097	-351.3699	1	362.7901	-75.58574	-1.119198E-005	0.000354	9
	22	63	1884.191	112.4677	-429.9496	1	444.4161	-75.34084	5.195682E-006	-0.0001702	9
	23	65	1516.544	134.427	-517.9199	1	535.081	-75.44985	7.372704E-007	0.0007601	8
	24	67	1193.986	166.0547	-636.1947	1	657.5089	-75.37147	2.200722E-006	0.0002	8
	25	70	946.5144	205.6317	-774.2956	1	801.1355	-75.12712	-1.607135E-006	0.0011023	8
	26	72	751.7689	248.9151	-942.713	1	975.021	-75.20911	-4.171353E-007	0.0010524	8
	27	74	597.4265	305.76	-1141.809	1	1182.04	-75.00875	2.919831E-006	0.0001525	8
	28	77	477.4305	376.4348	-1377.672	1	1428.174	-74.71755	5.945683E-007	0.0006662	8
	29	79	376.6741	465.9555	-1677.238	1	1740.759	-74.47411	5.93917E-007	0.0006612	8
	30	81	298.2954	574.3408	-2034.273	1	2113.796	-74.23392	5.981871E-007	0.0006636	8
	31	84	237.7717	702.6264	-2451.335	1	2550.044	-74.0061	5.998615E-007	0.000662	8
	32	86	189.0121	861.6358	-2960.336	1	3083.181	-73.77183	6.115231E-007	0.0006424	8
	33	88	150.2404	1055.002	-3570.821	1	3723.411	-73.54018	6.007376E-007	0.0006603	8
	34	91	119.1737	1296.617	-4322.8	1	4513.071	-73.30347	4.180427E-008	0.0006354	7
	35	93	95.0169	1579.751	-5194.766	1	5429.66	-73.08526	4.03012E-008	0.0006344	7
	36	96	75.60484	1927.771	-6252.914	1	6543.334	-72.86549	4.111418E-008	0.0006297	7
	37	98	54.50582	2558.152	-8141.257	1	8533.711	-72.5562	4.425047E-008	0.000626	7
	38	101	45.95588	2962.687	-9345.877	1	9804.23	-72.41114	4.117057E-008	0.0006359	7
	39	103	37.20238	3561.408	-11085.02	1	11643.08	-72.18877	4.067045E-008	0.0006351	7
	40	106	30.04808	4284.694	-13160.75	1	13840.67	-71.96651	3.927424E-008	0.0006355	7
	41	108	23.91582	5220.833	-15809.18	1	16648.94	-71.72468	4.678726E-008	0.0006226	7
	42	110	18.60119	6461.188	-19306.85	1	20359.31	-71.49678	3.66283E-008	0.0006405	7
	43	113	15.02404	7773.112	-22894.39	1	24177.97	-71.2466	3.915181E-008	0.0006331	7
	44	115	12.01923	9446.15	-27320.88	1	28907.79	-70.92725	4.130881E-008	0.0006259	7
	45	118	9.450605	11676.57	-33026.54	1	35029.91	-70.52889	4.157629E-008	0.0006297	7
	46	120	7.512019	14293.84	-39602.59	1	42103.2	-70.15386	4.365441E-008	0.0006263	7
	47	123	5.978954	17560.13	-47300.75	1	50455.12	-69.63284	-1.675345E-008	0.0006806	6
	48	126	4.734848	21704.67	-56681.93	1	60695.42	-69.04714	-1.435218E-008	0.0007087	6
	49	129	3.75601	26888.19	-67650.38	1	72798	-68.32426	-1.618321E-008	0.0006714	6
	50	135	3.004808	33125.04	-80125.56	1	86702.79	-67.53911	-1.551588E-008	0.0006964	6
	51	141	2.372217	41641.66	-95671.4	1	104341	-66.47858	-1.571909E-008	0.000757	6
	52	145	1.878005	51967.06	-113482.8	1	124815.5	-65.39558	-1.687552E-008	0.0006735	6
	53	150	1.512097	63873.78	-132271.2	1	146886.1	-64.22409	-1.592298E-008	0.0006849	6
	54	156	1.201923	80045.09	-155298	1	174713.2	-62.73211	-1.597872E-008	0.0006551	6
	55	162	0.956633	99882.2	-180714.9	1	206480.8	-61.07031	-1.696826E-008	4.154278E-005	6
