EXPLAIN
TAG	EISPOT
TITLE	LABEL	Potentiostatic EIS	Test Identifier
DATE	LABEL	2/26/2021	Date
TIME	LABEL	23:33:05	Time
NOTES	NOTES	1	Notes...
	
PSTAT	PSTAT	REF3000-16137	Potentiostat
VDC	POTEN	0.00000E+000	T	DC Voltage (V)
FREQINIT	QUANT	3.00000E+005	Initial Freq. (Hz)
FREQFINAL	QUANT	1.00000E+000	Final Freq. (Hz)
PTSPERDEC	QUANT	1.00000E+001	Points/decade
VAC	QUANT	5.00000E+001	AC Voltage (mV rms)
AREA	QUANT	1.00000E+000	Sample Area (cm^2)
SPEED	SELECTOR	2	Optimize for:
ZGUESS	QUANT	1.00000E+003	Estimated Z (ohms)
EOC	QUANT	0	Open Circuit (V)
SEQUENCER	TOGGLE	TRUE	Run as Sequence
PSTATMODEL	IQUANT	5	Pstat Model
PSTATSECTION	LABEL	REF3000-16137	Pstat Section
PSTATSERIALNO	LABEL	16137	Pstat Serial Number
CTRLMODE	IQUANT	1	Control Mode
IESTAB	IQUANT	0	I/E Stability
CASPEED	IQUANT	1	Control Amp Speed
CONVENTION	IQUANT	1	Current Convention
ICHRANGE	IQUANT	2	Ich Range
ICHRANGEMODE	TOGGLE	F	Ich Auto Range
ICHOFFSETENABLE	TOGGLE	T	Ich Offset Enable
ICHOFFSET	QUANT	0	Ich Offset (V)
ICHFILTER	IQUANT	3	Ich Filter
VCHRANGE	IQUANT	2	Vch Range
VCHRANGEMODE	TOGGLE	F	Vch Auto Range
VCHOFFSETENABLE	TOGGLE	T	Vch Offset Enable
VCHOFFSET	QUANT	0	Vch Offset (V)
VCHFILTER	IQUANT	3	Vch Filter
ACHRANGE	IQUANT	2	Ach Range
ACHOFFSETENABLE	TOGGLE	F	Ach Offset Enable
ACHOFFSET	QUANT	0	Ach Offset (V)
ACHFILTER	IQUANT	3	Ach Filter
IERANGELOWERLIMIT	IQUANT	2	I/E Range Lower Limit
IERANGEMODE	TOGGLE	F	I/E AutoRange
IERANGE	IQUANT	11	I/E Range
POSFEEDENABLE	TOGGLE	F	Positive Feedback IR Comp
POSFEEDRESISTANCE	QUANT	0	Positive Feedback Resistance (ohm)
ACHSELECT	IQUANT	0	Ach Select
CABLEID	IQUANT	13	Cable ID
DCCALDATE	LABEL	7/31/2020	DC Calibration Date
ACCALDATE	LABEL	7/31/2020	AC Calibration Date
THERMOSELECT	IQUANT	1	Thermo Select
FRAMEWORKVERSION	QUANT	6.33	Framework Version
INSTRUMENTVERSION	LABEL	3.50	Instrument Version
COMPLIANCEVOLTAGE	IQUANT	0	Compliance Voltage
ZCURVE	TABLE
	Pt	Time	Freq	Zreal	Zimag	Zsig	Zmod	Zphz	Idc	Vdc	IERange
	#	s	Hz	ohm	ohm	V	ohm	°	A	V	#
	0	14	300046.9	2376.062	-1964.11	1	3082.758	-39.57796	-2.01679E-005	0.0016372	9
	1	29	238359.4	2773.287	-1914.583	1	3369.978	-34.61988	5.169004E-005	-9.797079E-006	9
	2	43	189328.1	3170.652	-1759.775	1	3626.271	-29.03115	-1.551901E-005	0.0016938	9
	3	51	150421.9	3406.22	-1754.316	1	3831.444	-27.24997	1.851346E-005	-0.0019376	9
	4	58	119484.4	3876.656	-1404.208	1	4123.138	-19.91147	1.76775E-005	-0.0158887	8
	5	66	94921.88	4091.558	-1245.446	1	4276.913	-16.92993	2.410934E-005	-0.008222	8
	6	73	75421.88	4291.77	-1068.154	1	4422.696	-13.97606	-2.428778E-005	0.0089365	8
	7	80	59859.37	4489.642	-946.5478	1	4588.337	-11.90528	-1.917258E-005	0.0028552	8
	8	88	47578.12	4642.663	-842.3416	1	4718.459	-10.28359	8.26612E-006	0.0038288	8
	9	96	37828.12	4774.841	-791.0552	1	4839.925	-9.406837	2.464453E-005	-0.0048969	8
	10	103	30046.88	4925.046	-734.0585	1	4979.45	-8.477302	2.449343E-005	-0.0083128	8
	11	110	23859.38	5036.904	-699.7404	1	5085.277	-7.909064	7.390918E-006	-0.0070363	8
	12	116	18984.38	5144.544	-669.3953	1	5187.912	-7.413532	-1.553269E-005	0.0009376	8
	13	121	15046.87	5273.589	-709.909	1	5321.157	-7.666834	-1.833693E-005	0.0106803	8
	14	126	11953.13	5380.733	-741.5776	1	5431.595	-7.847121	-2.477743E-005	0.0091099	8
	15	132	9515.62	5493.778	-815.2801	1	5553.943	-8.441123	1.524398E-005	-0.00856	8
	16	137	7546.875	5614.871	-921.4841	1	5689.983	-9.320011	-2.24695E-005	0.0050582	8
	17	142	5928.309	5756.473	-1081.142	1	5857.119	-10.63699	-1.094237E-005	0.0096033	8
	18	148	4733.456	5974.163	-1265.62	1	6106.752	-11.96121	-1.649103E-006	0.0072572	8
	19	153	3796.875	6132.083	-1365.29	1	6282.234	-12.552	-2.432004E-007	-0.0136732	7
	20	157	2987.132	6329.999	-1642.597	1	6539.649	-14.54706	1.888773E-006	-0.0192091	7
	21	161	2390.625	6547.272	-1946.347	1	6830.45	-16.55595	-2.294073E-006	-0.0069872	7
	22	164	1884.191	6775.618	-2310.117	1	7158.606	-18.82658	6.918319E-006	-0.0202829	7
	23	169	1516.544	7074.255	-2699.021	1	7571.645	-20.88322	3.753695E-006	-0.0227248	7
	24	173	1193.986	7454.271	-3185.441	1	8106.367	-23.13852	-2.280499E-006	0.0211471	7
	25	177	946.5144	7853.293	-3765.396	1	8709.33	-25.61619	6.611469E-006	-0.014756	7
	26	180	751.7689	8351.694	-4370.728	1	9426.243	-27.6246	-2.287265E-006	-0.0072045	7
	27	183	597.4265	8846.916	-5087.126	1	10205.23	-29.89963	-3.773982E-006	0.0229562	7
	28	185	477.4305	9328.707	-5839.501	1	11005.66	-32.04538	-5.740081E-008	0.0006308	7
	29	187	376.6741	9942.4	-6748.346	1	12016.3	-34.16648	-5.423836E-008	0.000582	7
	30	190	298.2954	10563.46	-7780.269	1	13119.42	-36.37264	-5.271922E-008	0.0006023	7
	31	192	237.7717	11159.94	-8979.163	1	14323.74	-38.81977	-5.407094E-008	0.0005799	7
	32	195	189.0121	11738.4	-10459.4	1	15722.25	-41.70236	-6.128941E-008	0.0006677	7
	33	197	150.2404	12286.14	-12314.07	1	17394.99	-45.06506	-5.410295E-008	0.0005877	7
	34	199	119.1737	12801.26	-14685.09	1	19481.38	-48.92076	-6.08597E-008	0.0006707	7
	35	202	95.0169	13289.06	-17631.18	1	22078.44	-52.99376	-6.120628E-008	0.0006299	7
	36	204	75.60484	13794.16	-21400.84	1	25461.24	-57.19573	-5.610642E-008	0.0006312	7
	37	207	54.50582	14475.73	-28590.16	1	32045.96	-63.14605	-6.094707E-008	0.0006672	7
	38	209	45.95588	14969.64	-33415.38	1	36615.27	-65.86826	-6.03717E-008	0.0006227	7
	39	212	37.20238	15639.13	-40696.33	1	43597.86	-68.97881	-7.254314E-009	0.000671	6
	40	214	30.04808	16323.16	-49673.51	1	52286.74	-71.80901	-6.8985E-009	0.0007122	6
	41	216	23.91582	17139.99	-61610.97	1	63950.69	-74.45359	-6.606434E-009	0.0006221	6
	42	219	18.60119	18392.58	-78167.48	1	80302.19	-76.75932	-6.615834E-009	0.0007069	6
	43	221	15.02404	19516.8	-95916	1	97881.5	-78.49858	-6.046576E-009	0.0006312	6
	44	223	12.01923	21017.17	-118744.6	1	120590.3	-79.9629	-6.645765E-009	0.0006648	6
	45	226	9.450605	23023.21	-149569.5	1	151331.1	-81.24915	-5.99394E-009	0.0006361	6
	46	230	7.512019	25411.5	-186575.1	1	188297.7	-82.24405	-6.090859E-009	0.0006132	6
	47	233	5.978954	28350.26	-232299.6	1	234023.2	-83.04193	-6.291135E-009	0.0006837	6
	48	237	4.734848	32063.82	-290896.8	1	292658.5	-83.71001	-6.858771E-009	0.0006919	6
	49	240	3.75601	36718.82	-364020.9	1	365868.2	-84.24005	-6.937691E-009	0.0006958	6
	50	246	3.004808	42961.07	-451795.3	1	453833.3	-84.56809	-7.118652E-010	0.0006011	5
	51	252	2.372217	50159.34	-567078	1	569292.1	-84.94521	-6.746195E-010	0.000595	5
	52	256	1.878005	60109.54	-710624.9	1	713162.6	-85.16504	-7.285091E-010	0.0006656	5
	53	261	1.512097	72039.48	-874829.9	1	877791.1	-85.2925	-7.904381E-010	0.0005657	5
	54	267	1.201923	85457.76	-1093199	1	1096534	-85.53015	-6.857005E-010	0.0006304	5
	55	273	0.956633	103695.5	-1363219	1	1367157	-85.65008	-7.584999E-010	7.729683E-006	5
