EXPLAIN
TAG	EISPOT
TITLE	LABEL	Potentiostatic EIS	Test Identifier
DATE	LABEL	2/26/2021	Date
TIME	LABEL	23:42:30	Time
NOTES	NOTES	1	Notes...
	
PSTAT	PSTAT	REF3000-16137	Potentiostat
VDC	POTEN	0.00000E+000	T	DC Voltage (V)
FREQINIT	QUANT	3.00000E+005	Initial Freq. (Hz)
FREQFINAL	QUANT	1.00000E+000	Final Freq. (Hz)
PTSPERDEC	QUANT	1.00000E+001	Points/decade
VAC	QUANT	5.00000E+001	AC Voltage (mV rms)
AREA	QUANT	1.00000E+000	Sample Area (cm^2)
SPEED	SELECTOR	2	Optimize for:
ZGUESS	QUANT	1.00000E+003	Estimated Z (ohms)
EOC	QUANT	0	Open Circuit (V)
SEQUENCER	TOGGLE	TRUE	Run as Sequence
PSTATMODEL	IQUANT	5	Pstat Model
PSTATSECTION	LABEL	REF3000-16137	Pstat Section
PSTATSERIALNO	LABEL	16137	Pstat Serial Number
CTRLMODE	IQUANT	1	Control Mode
IESTAB	IQUANT	0	I/E Stability
CASPEED	IQUANT	1	Control Amp Speed
CONVENTION	IQUANT	1	Current Convention
ICHRANGE	IQUANT	2	Ich Range
ICHRANGEMODE	TOGGLE	F	Ich Auto Range
ICHOFFSETENABLE	TOGGLE	T	Ich Offset Enable
ICHOFFSET	QUANT	0	Ich Offset (V)
ICHFILTER	IQUANT	3	Ich Filter
VCHRANGE	IQUANT	2	Vch Range
VCHRANGEMODE	TOGGLE	F	Vch Auto Range
VCHOFFSETENABLE	TOGGLE	T	Vch Offset Enable
VCHOFFSET	QUANT	0	Vch Offset (V)
VCHFILTER	IQUANT	3	Vch Filter
ACHRANGE	IQUANT	2	Ach Range
ACHOFFSETENABLE	TOGGLE	F	Ach Offset Enable
ACHOFFSET	QUANT	0	Ach Offset (V)
ACHFILTER	IQUANT	3	Ach Filter
IERANGELOWERLIMIT	IQUANT	2	I/E Range Lower Limit
IERANGEMODE	TOGGLE	F	I/E AutoRange
IERANGE	IQUANT	11	I/E Range
POSFEEDENABLE	TOGGLE	F	Positive Feedback IR Comp
POSFEEDRESISTANCE	QUANT	0	Positive Feedback Resistance (ohm)
ACHSELECT	IQUANT	0	Ach Select
CABLEID	IQUANT	13	Cable ID
DCCALDATE	LABEL	7/31/2020	DC Calibration Date
ACCALDATE	LABEL	7/31/2020	AC Calibration Date
THERMOSELECT	IQUANT	1	Thermo Select
FRAMEWORKVERSION	QUANT	6.33	Framework Version
INSTRUMENTVERSION	LABEL	3.50	Instrument Version
COMPLIANCEVOLTAGE	IQUANT	0	Compliance Voltage
ZCURVE	TABLE
	Pt	Time	Freq	Zreal	Zimag	Zsig	Zmod	Zphz	Idc	Vdc	IERange
	#	s	Hz	ohm	ohm	V	ohm	°	A	V	#
	0	14	300046.9	928.9255	-4596.688	1	4689.61	-78.5752	-2.052269E-005	0.0014137	9
	1	28	238359.4	1405.355	-5600.672	1	5774.301	-75.91382	-1.972608E-005	0.0010184	9
	2	42	189328.1	2096.494	-7095.521	1	7398.764	-73.53931	2.739669E-005	-0.0018182	9
	3	51	150421.9	3610.893	-7581.777	1	8397.731	-64.53343	2.139191E-005	-0.0003197	9
	4	59	119484.4	4389.92	-9383.503	1	10359.61	-64.92822	-1.733409E-005	0.016597	8
	5	67	94921.88	6490.035	-10963.42	1	12740.38	-59.37567	-1.942506E-005	0.0111981	8
	6	74	75421.88	8774.858	-12285.84	1	15097.68	-54.46461	-8.936895E-007	-0.0049954	8
	7	83	59859.37	11262.15	-13591.78	1	17651.42	-50.35485	2.598119E-005	-0.0050336	8
	8	91	47578.12	16714.24	-13451.13	1	21454.57	-38.82609	-6.466377E-006	0.0111483	7
	9	99	37828.12	19555.78	-13347.9	1	23676.89	-34.3157	-7.126525E-006	0.0228081	7
	10	105	30046.88	22562.57	-12940.13	1	26009.93	-29.83522	-9.338425E-007	-0.0134632	7
	11	113	23859.38	25147.01	-12293.92	1	27991.3	-26.05317	-6.556471E-006	0.0253982	7
	12	118	18984.38	27366.87	-11088.78	1	29528.06	-22.05729	7.596632E-006	-0.0236498	7
	13	123	15046.87	29606.09	-9928.85	1	31226.64	-18.53966	-3.690592E-006	0.0249947	7
	14	129	11953.13	31455.33	-8606.601	1	32611.53	-15.30236	-5.269305E-006	0.025934	7
	15	134	9515.62	32341.84	-7704.234	1	33246.8	-13.39886	-7.211422E-006	0.0182569	7
	16	139	7546.875	33379.28	-9066.716	1	34588.75	-15.19643	-9.489967E-006	-0.0020623	8
	17	146	5928.309	35426.39	-6098.466	1	35947.47	-9.76744	-7.205051E-006	0.0182293	7
	18	151	4733.456	36447.02	-5836.607	1	36911.4	-9.098069	-7.187697E-006	0.0182453	7
	19	157	3796.875	36906	-5516.562	1	37316.02	-8.501401	-5.119926E-006	0.0030399	7
	20	162	2987.132	37787.93	-4987.268	1	38115.62	-7.518469	-6.460376E-006	0.0252693	7
	21	167	2390.625	40933.82	-5137.215	1	41254.92	-7.15325	-2.607688E-005	0.0094407	8
	22	174	1884.191	41271.52	-7150.413	1	41886.36	-9.82909	8.317871E-006	0.0041618	8
	23	180	1516.544	42001.43	-9124.154	1	42981.04	-12.25619	2.710511E-005	-0.0072427	8
	24	187	1193.986	42497.03	-7522.558	1	43157.7	-10.03816	2.244299E-005	-0.0095013	8
	25	194	946.5144	43495.54	-12682.42	1	45306.8	-16.25562	-2.669567E-005	0.0096494	8
	26	200	751.7689	50528.68	-7691.491	1	51110.73	-8.655139	-2.422745E-005	0.0109093	8
	27	205	597.4265	49374.35	-10172.96	1	50411.46	-11.64215	-5.048265E-006	0.0026589	7
	28	209	477.4305	48560.01	-11626.39	1	49932.43	-13.46448	-6.195486E-008	0.0006523	7
	29	213	376.6741	50235.13	-13177.04	1	51934.6	-14.69798	-7.63481E-009	0.0007163	6
	30	215	298.2954	51876.86	-15794.61	1	54228.02	-16.93357	-7.33123E-009	0.0006674	6
	31	217	237.7717	53790.43	-18626.64	1	56924.18	-19.10003	-7.254037E-009	0.0006627	6
	32	220	189.0121	56026.6	-21999.73	1	60191.1	-21.43824	-5.958274E-009	0.0006328	6
	33	222	150.2404	58786.09	-25897.72	1	64237.81	-23.77549	-6.626272E-009	0.0006255	6
	34	225	119.1737	61914.85	-30416.74	1	68982.8	-26.16337	-6.158571E-009	0.0006384	6
	35	227	95.0169	65591.76	-35325.2	1	74499.31	-28.30519	-7.355218E-009	0.0006961	6
	36	230	75.60484	69738.63	-40953	1	80874.13	-30.42297	-6.467909E-009	0.0006115	6
	37	232	54.50582	75769.92	-50084.4	1	90826.91	-33.46495	-6.531821E-009	0.0006148	6
	38	235	45.95588	79948.43	-55740.65	1	97461.6	-34.8845	-7.093692E-009	0.0006337	6
	39	237	37.20238	84511.52	-63636.69	1	105791.4	-36.97954	-7.602974E-009	0.0007017	6
	40	240	30.04808	89228.5	-72930.76	1	115241.6	-39.26079	-6.691574E-009	0.0006799	6
	41	243	23.91582	93928.86	-84894.05	1	126608.2	-42.10766	-8.038542E-009	0.0006949	6
	42	245	18.60119	99009.5	-101627.6	1	141884	-45.74761	-6.854908E-009	0.0006571	6
	43	247	15.02404	102980.2	-120005.8	1	158133.8	-49.36622	-6.610238E-009	0.0006435	6
	44	250	12.01923	107101.6	-143998.4	1	179461.1	-53.35926	-6.571847E-009	0.0006197	6
	45	252	9.450605	111612.7	-176728	1	209021.9	-57.72551	-7.229731E-009	0.0007075	6
	46	255	7.512019	116346.3	-216487.4	1	245770.7	-61.7452	-7.270294E-009	0.0007254	6
	47	258	5.978954	121758.1	-266295.9	1	292811.5	-65.42876	-7.273427E-009	0.0007188	6
	48	262	4.734848	128189.2	-330634.7	1	354614.9	-68.80837	-7.074409E-009	0.0006608	6
	49	265	3.75601	135685.1	-410786.6	1	432615.3	-71.72132	-6.888674E-009	0.0006512	6
	50	271	3.004808	145184.5	-507589.8	1	527945	-74.03802	-7.496357E-010	0.0006231	5
	51	277	2.372217	156865.3	-635162.4	1	654246.2	-76.12733	-8.63926E-010	0.0005983	5
	52	282	1.878005	168416.2	-795282	1	812919.1	-78.04317	-7.346155E-010	0.000663	5
	53	286	1.512097	180793.2	-977008	1	993595	-79.51614	-8.323536E-010	0.0007227	5
	54	292	1.201923	200036.5	-1221098	1	1237374	-80.69662	-7.333376E-010	0.0006711	5
	55	298	0.956633	221489.2	-1520136	1	1536187	-81.71014	-7.874379E-010	1.582917E-005	5
