EXPLAIN
TAG	EISPOT
TITLE	LABEL	Potentiostatic EIS	Test Identifier
DATE	LABEL	2/26/2021	Date
TIME	LABEL	21:55:40	Time
NOTES	NOTES	1	Notes...
	
PSTAT	PSTAT	REF3000-16137	Potentiostat
VDC	POTEN	0.00000E+000	T	DC Voltage (V)
FREQINIT	QUANT	3.00000E+005	Initial Freq. (Hz)
FREQFINAL	QUANT	1.00000E+000	Final Freq. (Hz)
PTSPERDEC	QUANT	1.00000E+001	Points/decade
VAC	QUANT	5.00000E+001	AC Voltage (mV rms)
AREA	QUANT	1.00000E+000	Sample Area (cm^2)
SPEED	SELECTOR	2	Optimize for:
ZGUESS	QUANT	1.00000E+003	Estimated Z (ohms)
EOC	QUANT	0	Open Circuit (V)
SEQUENCER	TOGGLE	TRUE	Run as Sequence
PSTATMODEL	IQUANT	5	Pstat Model
PSTATSECTION	LABEL	REF3000-16137	Pstat Section
PSTATSERIALNO	LABEL	16137	Pstat Serial Number
CTRLMODE	IQUANT	1	Control Mode
IESTAB	IQUANT	0	I/E Stability
CASPEED	IQUANT	1	Control Amp Speed
CONVENTION	IQUANT	1	Current Convention
ICHRANGE	IQUANT	2	Ich Range
ICHRANGEMODE	TOGGLE	F	Ich Auto Range
ICHOFFSETENABLE	TOGGLE	T	Ich Offset Enable
ICHOFFSET	QUANT	0	Ich Offset (V)
ICHFILTER	IQUANT	3	Ich Filter
VCHRANGE	IQUANT	2	Vch Range
VCHRANGEMODE	TOGGLE	F	Vch Auto Range
VCHOFFSETENABLE	TOGGLE	T	Vch Offset Enable
VCHOFFSET	QUANT	0	Vch Offset (V)
VCHFILTER	IQUANT	3	Vch Filter
ACHRANGE	IQUANT	2	Ach Range
ACHOFFSETENABLE	TOGGLE	F	Ach Offset Enable
ACHOFFSET	QUANT	0	Ach Offset (V)
ACHFILTER	IQUANT	1	Ach Filter
IERANGELOWERLIMIT	IQUANT	2	I/E Range Lower Limit
IERANGEMODE	TOGGLE	F	I/E AutoRange
IERANGE	IQUANT	11	I/E Range
POSFEEDENABLE	TOGGLE	F	Positive Feedback IR Comp
POSFEEDRESISTANCE	QUANT	0	Positive Feedback Resistance (ohm)
ACHSELECT	IQUANT	0	Ach Select
CABLEID	IQUANT	13	Cable ID
DCCALDATE	LABEL	7/31/2020	DC Calibration Date
ACCALDATE	LABEL	7/31/2020	AC Calibration Date
THERMOSELECT	IQUANT	1	Thermo Select
FRAMEWORKVERSION	QUANT	6.33	Framework Version
INSTRUMENTVERSION	LABEL	3.50	Instrument Version
COMPLIANCEVOLTAGE	IQUANT	0	Compliance Voltage
ZCURVE	TABLE
	Pt	Time	Freq	Zreal	Zimag	Zsig	Zmod	Zphz	Idc	Vdc	IERange
	#	s	Hz	ohm	ohm	V	ohm	°	A	V	#
	0	8	300046.9	17.60694	-5.760037	1	18.52518	-18.11529	7.505662E-005	0.0001017	10
	1	11	238359.4	18.51152	-7.35161	1	19.9179	-21.65985	2.0363E-005	0.0003556	10
	2	14	189328.1	19.44887	-9.020136	1	21.43878	-24.88126	-2.833292E-005	0.0005038	10
	3	17	150421.9	20.5206	-10.7822	1	23.18083	-27.71892	-2.373161E-005	0.0005949	10
	4	20	119484.4	21.67511	-12.62763	1	25.08521	-30.2245	2.5671E-005	0.0006315	10
	5	22	94921.88	22.84357	-14.74608	1	27.18963	-32.84323	-2.697613E-006	0.0006485	10
	6	25	75421.88	23.9422	-17.22177	1	29.49268	-35.72769	1.007451E-005	0.0007176	10
	7	27	59859.37	25.04824	-20.24228	1	32.20503	-38.94278	8.747425E-006	0.000729	10
	8	30	47578.12	26.17746	-23.99012	1	35.50754	-42.50345	2.036497E-005	0.0006064	10
	9	32	37828.12	27.347	-28.47571	1	39.48068	-46.15834	1.011183E-005	-3.15131E-005	9
	10	35	30046.88	28.59316	-34.3497	1	44.69307	-50.22555	4.751812E-006	0.0001688	9
	11	37	23859.38	30.08687	-41.6712	1	51.39755	-54.17048	-4.343486E-006	0.0003835	9
	12	39	18984.38	31.90387	-50.71501	1	59.91552	-57.82676	1.295176E-005	-0.0002593	9
	13	42	15046.87	34.08264	-62.13456	1	70.86839	-61.25393	-3.671108E-006	0.0002966	9
	14	44	11953.13	36.86891	-76.02723	1	84.4953	-64.12923	-1.029346E-005	0.000394	9
	15	46	9515.62	40.59235	-92.84083	1	101.327	-66.38383	1.184232E-005	-0.0001606	9
	16	49	7546.875	45.51107	-113.5584	1	122.3388	-68.16045	1.071663E-005	-0.0002585	9
	17	51	5928.309	51.62629	-140.4216	1	149.6112	-69.81395	-2.694468E-006	0.0003065	9
	18	53	4733.456	59.25738	-170.5559	1	180.5568	-70.8409	-5.935612E-006	0.0003789	9
	19	56	3796.875	68.16664	-206.5509	1	217.5085	-71.73589	8.277452E-006	-0.0002229	9
	20	58	2987.132	81.72635	-252.6892	1	265.5768	-72.07742	8.36354E-006	-0.0002176	9
	21	60	2390.625	96.5482	-305.427	1	320.3236	-72.45779	1.218588E-005	-0.000168	9
	22	62	1884.191	117.1566	-373.7472	1	391.6793	-72.59563	1.440682E-005	-0.0002252	9
	23	65	1516.544	138.9423	-444.0736	1	465.3024	-72.62608	2.194709E-006	0.0002039	8
	24	67	1193.986	169.0947	-540.5115	1	566.3442	-72.62812	2.6695E-006	0.0001522	8
	25	70	946.5144	204.0267	-653.7011	1	684.8007	-72.66634	-1.197239E-006	0.0009306	8
	26	72	751.7689	249.1178	-787.8358	1	826.2838	-72.45277	1.0852E-006	0.0004591	8
	27	74	597.4265	301.2459	-948.966	1	995.633	-72.38815	2.041893E-006	0.0003805	8
	28	77	477.4305	364.4049	-1136.894	1	1193.867	-72.22796	5.902371E-007	0.0006527	8
	29	79	376.6741	444.6526	-1375.209	1	1445.308	-72.08219	5.907665E-007	0.0006651	8
	30	81	298.2954	540.4155	-1658.088	1	1743.933	-71.94781	5.967987E-007	0.0006604	8
	31	83	237.7717	653.1699	-1987.205	1	2091.797	-71.80494	5.996163E-007	0.0006572	8
	32	86	189.0121	790.7007	-2387.447	1	2514.977	-71.6756	6.338753E-007	0.0006374	8
	33	88	150.2404	957.48	-2864.967	1	3020.729	-71.52023	6.018937E-007	0.0006545	8
	34	91	119.1737	1160.438	-3445.687	1	3635.846	-71.38751	6.077305E-007	0.0006572	8
	35	93	95.0169	1404.238	-4130.346	1	4362.527	-71.22295	2.767319E-008	0.0006285	7
	36	96	75.60484	1696.283	-4950.197	1	5232.765	-71.08496	2.865678E-008	0.0006173	7
	37	98	54.50582	2221.083	-6406.698	1	6780.781	-70.87952	3.023625E-008	0.0006262	7
	38	101	45.95588	2562.439	-7339.684	1	7774.127	-70.75482	2.933018E-008	0.0006346	7
	39	103	37.20238	3045.649	-8665.132	1	9184.797	-70.63428	2.736123E-008	0.0006466	7
	40	105	30.04808	3636.102	-10245.17	1	10871.28	-70.45978	2.683496E-008	0.0006359	7
	41	108	23.91582	4391.77	-12267.98	1	13030.39	-70.30332	3.133357E-008	0.0006355	7
	42	110	18.60119	5407.584	-14948.5	1	15896.52	-70.11253	3.211251E-008	0.0006326	7
	43	112	15.02404	6466.366	-17665.95	1	18812.22	-69.89558	3.231693E-008	0.0005971	7
	44	115	12.01923	7820.268	-21018.03	1	22425.75	-69.59106	2.740527E-008	0.000631	7
	45	117	9.450605	9621.08	-25325.17	1	27091.13	-69.19812	2.614059E-008	0.0006369	7
	46	120	7.512019	11732.93	-30280.59	1	32474.23	-68.81995	2.949722E-008	0.0006341	7
	47	122	5.978954	14257.93	-36055.84	1	38772.57	-68.42416	3.121551E-008	0.0006347	7
	48	125	4.734848	17553.62	-43059.57	1	46500.06	-67.82129	-3.046581E-008	0.000659	6
	49	129	3.75601	21634.99	-51128.29	1	55517.34	-67.06429	-2.720026E-008	0.0007058	6
	50	134	3.004808	26520.32	-60298.98	1	65873.32	-66.25945	-2.722009E-008	0.0006378	6
	51	140	2.372217	33054.42	-71686.35	1	78940.02	-65.24567	-2.756135E-008	0.0006445	6
	52	145	1.878005	41157.24	-84755.84	1	94220.34	-64.0989	-2.579617E-008	0.0006663	6
	53	149	1.512097	50315.32	-98552.8	1	110653.9	-62.95378	-2.670975E-008	0.0007526	6
	54	155	1.201923	62607.53	-115003.5	1	130940.9	-61.43628	-2.59478E-008	0.0006749	6
	55	161	0.956633	77480.44	-133107.3	1	154015.5	-59.79675	-2.93075E-008	3.632693E-005	6
