EXPLAIN
TAG	EISPOT
TITLE	LABEL	Potentiostatic EIS	Test Identifier
DATE	LABEL	2/26/2021	Date
TIME	LABEL	23:19:57	Time
NOTES	NOTES	1	Notes...
	
PSTAT	PSTAT	REF3000-16137	Potentiostat
VDC	POTEN	0.00000E+000	T	DC Voltage (V)
FREQINIT	QUANT	3.00000E+005	Initial Freq. (Hz)
FREQFINAL	QUANT	1.00000E+000	Final Freq. (Hz)
PTSPERDEC	QUANT	1.00000E+001	Points/decade
VAC	QUANT	5.00000E+001	AC Voltage (mV rms)
AREA	QUANT	1.00000E+000	Sample Area (cm^2)
SPEED	SELECTOR	2	Optimize for:
ZGUESS	QUANT	1.00000E+003	Estimated Z (ohms)
EOC	QUANT	0	Open Circuit (V)
SEQUENCER	TOGGLE	TRUE	Run as Sequence
PSTATMODEL	IQUANT	5	Pstat Model
PSTATSECTION	LABEL	REF3000-16137	Pstat Section
PSTATSERIALNO	LABEL	16137	Pstat Serial Number
CTRLMODE	IQUANT	1	Control Mode
IESTAB	IQUANT	0	I/E Stability
CASPEED	IQUANT	1	Control Amp Speed
CONVENTION	IQUANT	1	Current Convention
ICHRANGE	IQUANT	2	Ich Range
ICHRANGEMODE	TOGGLE	F	Ich Auto Range
ICHOFFSETENABLE	TOGGLE	T	Ich Offset Enable
ICHOFFSET	QUANT	0	Ich Offset (V)
ICHFILTER	IQUANT	3	Ich Filter
VCHRANGE	IQUANT	2	Vch Range
VCHRANGEMODE	TOGGLE	F	Vch Auto Range
VCHOFFSETENABLE	TOGGLE	T	Vch Offset Enable
VCHOFFSET	QUANT	0	Vch Offset (V)
VCHFILTER	IQUANT	3	Vch Filter
ACHRANGE	IQUANT	2	Ach Range
ACHOFFSETENABLE	TOGGLE	F	Ach Offset Enable
ACHOFFSET	QUANT	0	Ach Offset (V)
ACHFILTER	IQUANT	3	Ach Filter
IERANGELOWERLIMIT	IQUANT	2	I/E Range Lower Limit
IERANGEMODE	TOGGLE	F	I/E AutoRange
IERANGE	IQUANT	11	I/E Range
POSFEEDENABLE	TOGGLE	F	Positive Feedback IR Comp
POSFEEDRESISTANCE	QUANT	0	Positive Feedback Resistance (ohm)
ACHSELECT	IQUANT	0	Ach Select
CABLEID	IQUANT	13	Cable ID
DCCALDATE	LABEL	7/31/2020	DC Calibration Date
ACCALDATE	LABEL	7/31/2020	AC Calibration Date
THERMOSELECT	IQUANT	1	Thermo Select
FRAMEWORKVERSION	QUANT	6.33	Framework Version
INSTRUMENTVERSION	LABEL	3.50	Instrument Version
COMPLIANCEVOLTAGE	IQUANT	0	Compliance Voltage
ZCURVE	TABLE
	Pt	Time	Freq	Zreal	Zimag	Zsig	Zmod	Zphz	Idc	Vdc	IERange
	#	s	Hz	ohm	ohm	V	ohm	°	A	V	#
	0	14	300046.9	629.3334	-95.6976	1	636.5678	-8.646262	2.420451E-005	-0.0005685	9
	1	32	238359.4	655.3046	-93.91618	1	662.0002	-8.155912	-8.810624E-005	0.0039994	9
	2	47	189328.1	678.3552	-90.5332	1	684.3698	-7.601767	-2.858144E-005	-0.0008697	9
	3	56	150421.9	688.3817	-89.72713	1	694.2048	-7.426352	8.126242E-005	-0.0031938	9
	4	64	119484.4	704.7676	-89.69198	1	710.452	-7.252738	7.532978E-005	-0.001475	9
	5	74	94921.88	718.7295	-75.56552	1	722.691	-6.001893	1.834847E-005	-0.0050489	8
	6	76	75421.88	724.8283	-87.39488	1	730.0781	-6.875148	-1.467599E-005	0.0028663	8
	7	79	59859.37	734.9123	-101.8819	1	741.9407	-7.892685	-1.152475E-005	0.0073927	8
	8	82	47578.12	745.1541	-121.9807	1	755.0721	-9.296786	-1.494834E-005	0.0072665	8
	9	85	37828.12	756.5621	-142.6388	1	769.8909	-10.67696	-1.785859E-005	0.005764	8
	10	87	30046.88	774.5174	-169.3797	1	792.822	-12.33584	-7.949563E-006	-0.0006388	8
	11	90	23859.38	791.2427	-199.5546	1	816.019	-14.15504	9.520635E-006	-0.0057138	8
	12	92	18984.38	813.2388	-235.5988	1	846.6783	-16.15653	1.332128E-005	-0.0002028	8
	13	95	15046.87	839.8903	-280.2698	1	885.4191	-18.45376	3.17449E-007	0.0051234	8
	14	97	11953.13	870.881	-331.0211	1	931.6699	-20.81175	-1.549797E-005	0.0075883	8
	15	100	9515.62	908.7678	-386.2136	1	987.431	-23.02481	-1.231383E-005	0.001501	8
	16	102	7546.875	954.324	-452.7911	1	1056.293	-25.38258	2.369587E-007	0.0049573	8
	17	106	5928.309	1008.751	-531.2507	1	1140.091	-27.77317	-1.551675E-005	0.0076292	8
	18	109	4733.456	1069.997	-613.7927	1	1233.545	-29.8403	-1.271626E-005	0.0014931	8
	19	113	3796.875	1132.448	-698.6213	1	1330.605	-31.67096	-1.705159E-005	0.0044632	8
	20	116	2987.132	1209.191	-814.6006	1	1457.984	-33.96712	2.368918E-007	0.0050414	8
	21	120	2390.625	1282.395	-932.2214	1	1585.425	-36.01483	1.007329E-005	-0.005894	8
	22	124	1884.191	1367.565	-1079.828	1	1742.488	-38.29458	1.371287E-005	-0.0002777	8
	23	128	1516.544	1431.317	-1252.28	1	1901.808	-41.18315	1.370154E-005	-0.0002604	8
	24	132	1193.986	1492.095	-1482.232	1	2103.178	-44.81001	2.28267E-007	0.0050871	8
	25	137	946.5144	1535.454	-1767.094	1	2340.992	-49.01214	7.466434E-006	0.0026309	8
	26	139	751.7689	1620.181	-2135.021	1	2680.168	-52.80661	-1.284742E-005	0.0015357	8
	27	142	597.4265	1665.063	-2558.458	1	3052.563	-56.94363	-1.248979E-005	0.0079185	8
	28	146	477.4305	1742.102	-3150.608	1	3600.174	-61.05997	-6.398195E-008	0.0006393	8
	29	149	376.6741	1816.92	-3910.022	1	4311.551	-65.07652	-2.52346E-008	0.000604	7
	30	152	298.2954	1891.732	-4850.312	1	5206.167	-68.69309	-2.513326E-008	0.0006401	7
	31	154	237.7717	1976.643	-5996.524	1	6313.907	-71.75615	-2.917178E-008	0.0006532	7
	32	156	189.0121	2078.333	-7448.486	1	7733.008	-74.40943	-2.589765E-008	0.0006058	7
	33	159	150.2404	2202.271	-9265.007	1	9523.15	-76.62906	-2.496654E-008	0.0005957	7
	34	161	119.1737	2355.99	-11560.79	1	11798.41	-78.48135	-2.479782E-008	0.000608	7
	35	163	95.0169	2536.837	-14355.85	1	14578.27	-79.97866	-2.513852E-008	0.0005948	7
	36	166	75.60484	2764.258	-17871.35	1	18083.87	-81.20743	-2.921008E-008	0.0006148	7
	37	168	54.50582	3178.47	-24492.61	1	24697.98	-82.6059	-2.957829E-008	0.0006116	7
	38	171	45.95588	3463.061	-28846.09	1	29053.22	-83.15423	-2.882082E-008	0.0006546	7
	39	173	37.20238	3870.841	-35357.5	1	35568.76	-83.7523	-2.488272E-008	0.0006123	7
	40	176	30.04808	4422.745	-43419.17	1	43643.84	-84.18382	-3.666628E-009	0.0006658	6
	41	178	23.91582	5124.05	-54083.98	1	54326.17	-84.58781	-3.613848E-009	0.0006451	6
	42	180	18.60119	5968.348	-68849.2	1	69107.4	-85.04557	-4.392444E-009	0.0006981	6
	43	183	15.02404	7129.442	-84608.78	1	84908.63	-85.18343	-3.506489E-009	0.0006797	6
	44	185	12.01923	8517.06	-104924.1	1	105269.2	-85.35928	-3.598244E-009	0.0006561	6
	45	188	9.450605	10475.21	-132280.4	1	132694.5	-85.47223	-3.16233E-009	0.0006361	6
	46	190	7.512019	12921.36	-164941.8	1	165447.1	-85.52066	-3.402729E-009	0.0007063	6
	47	193	5.978954	15939.37	-205381.9	1	205999.5	-85.56226	-2.994886E-009	0.0006596	6
	48	198	4.734848	20155.59	-257059.4	1	257848.4	-85.51671	-3.569632E-009	0.0006924	6
	49	201	3.75601	25519.04	-320990.4	1	322003.2	-85.45449	-2.985548E-009	0.0006862	6
	50	207	3.004808	32143.97	-397294.8	1	398593.1	-85.37444	-3.624685E-009	0.0007055	6
	51	213	2.372217	42449.85	-497436.6	1	499244.6	-85.12235	-5.219085E-010	0.0006407	5
	52	217	1.878005	55051.99	-623020.3	1	625447.9	-84.95029	-3.61237E-010	0.0006404	5
	53	222	1.512097	69599.95	-765477.8	1	768635.4	-84.80475	-4.239972E-010	0.0007552	5
	54	227	1.201923	90955.27	-952356	1	956690	-84.54449	-3.749619E-010	0.0006367	5
	55	234	0.956633	117291.4	-1181251	1	1187059	-84.32944	-4.791707E-010	1.107206E-005	5
