EXPLAIN
TAG	EISPOT
TITLE	LABEL	Potentiostatic EIS	Test Identifier
DATE	LABEL	2/26/2021	Date
TIME	LABEL	22:21:31	Time
NOTES	NOTES	1	Notes...
	
PSTAT	PSTAT	REF3000-16137	Potentiostat
VDC	POTEN	0.00000E+000	T	DC Voltage (V)
FREQINIT	QUANT	3.00000E+005	Initial Freq. (Hz)
FREQFINAL	QUANT	1.00000E+000	Final Freq. (Hz)
PTSPERDEC	QUANT	1.00000E+001	Points/decade
VAC	QUANT	5.00000E+001	AC Voltage (mV rms)
AREA	QUANT	1.00000E+000	Sample Area (cm^2)
SPEED	SELECTOR	2	Optimize for:
ZGUESS	QUANT	1.00000E+003	Estimated Z (ohms)
EOC	QUANT	0	Open Circuit (V)
SEQUENCER	TOGGLE	TRUE	Run as Sequence
PSTATMODEL	IQUANT	5	Pstat Model
PSTATSECTION	LABEL	REF3000-16137	Pstat Section
PSTATSERIALNO	LABEL	16137	Pstat Serial Number
CTRLMODE	IQUANT	1	Control Mode
IESTAB	IQUANT	0	I/E Stability
CASPEED	IQUANT	1	Control Amp Speed
CONVENTION	IQUANT	1	Current Convention
ICHRANGE	IQUANT	2	Ich Range
ICHRANGEMODE	TOGGLE	F	Ich Auto Range
ICHOFFSETENABLE	TOGGLE	T	Ich Offset Enable
ICHOFFSET	QUANT	0	Ich Offset (V)
ICHFILTER	IQUANT	3	Ich Filter
VCHRANGE	IQUANT	2	Vch Range
VCHRANGEMODE	TOGGLE	F	Vch Auto Range
VCHOFFSETENABLE	TOGGLE	T	Vch Offset Enable
VCHOFFSET	QUANT	0	Vch Offset (V)
VCHFILTER	IQUANT	3	Vch Filter
ACHRANGE	IQUANT	2	Ach Range
ACHOFFSETENABLE	TOGGLE	F	Ach Offset Enable
ACHOFFSET	QUANT	0	Ach Offset (V)
ACHFILTER	IQUANT	3	Ach Filter
IERANGELOWERLIMIT	IQUANT	2	I/E Range Lower Limit
IERANGEMODE	TOGGLE	F	I/E AutoRange
IERANGE	IQUANT	11	I/E Range
POSFEEDENABLE	TOGGLE	F	Positive Feedback IR Comp
POSFEEDRESISTANCE	QUANT	0	Positive Feedback Resistance (ohm)
ACHSELECT	IQUANT	0	Ach Select
CABLEID	IQUANT	13	Cable ID
DCCALDATE	LABEL	7/31/2020	DC Calibration Date
ACCALDATE	LABEL	7/31/2020	AC Calibration Date
THERMOSELECT	IQUANT	1	Thermo Select
FRAMEWORKVERSION	QUANT	6.33	Framework Version
INSTRUMENTVERSION	LABEL	3.50	Instrument Version
COMPLIANCEVOLTAGE	IQUANT	0	Compliance Voltage
ZCURVE	TABLE
	Pt	Time	Freq	Zreal	Zimag	Zsig	Zmod	Zphz	Idc	Vdc	IERange
	#	s	Hz	ohm	ohm	V	ohm	°	A	V	#
	0	6	300046.9	23.83495	-8.129269	1	25.18313	-18.83272	-4.380775E-005	-0.0003608	11
	1	11	238359.4	25.0791	-9.91036	1	26.96621	-21.56215	3.299954E-005	0.0007195	10
	2	14	189328.1	26.38876	-12.05152	1	29.01045	-24.54578	-4.269295E-006	0.0004037	10
	3	16	150421.9	27.81022	-14.33423	1	31.28704	-27.26795	5.278178E-005	0.0007688	10
	4	19	119484.4	29.40113	-16.83538	1	33.88004	-29.79588	3.605792E-005	0.0006265	10
	5	21	94921.88	31.04444	-19.48038	1	36.65027	-32.10826	-2.282931E-005	0.000716	10
	6	24	75421.88	32.8347	-22.33223	1	39.70952	-34.22123	1.68195E-005	-0.0001794	9
	7	26	59859.37	34.47335	-26.05358	1	43.21112	-37.08052	5.565015E-006	-0.0001948	9
	8	29	47578.12	35.92567	-30.63682	1	47.21513	-40.45699	-9.579321E-006	0.0003336	9
	9	31	37828.12	37.44471	-36.23185	1	52.10425	-44.05689	1.133145E-005	-0.0003344	9
	10	34	30046.88	38.78598	-43.37064	1	58.18389	-48.19402	1.591441E-005	-0.0003375	9
	11	37	23859.38	40.27431	-52.32923	1	66.03309	-52.41693	-6.451117E-006	0.0005231	9
	12	39	18984.38	41.84698	-63.64798	1	76.17241	-56.67606	1.470763E-005	-0.0003347	9
	13	41	15046.87	43.5304	-78.02245	1	89.34427	-60.84191	1.529313E-005	-0.0001404	9
	14	44	11953.13	45.48866	-96.0518	1	106.2787	-64.65848	7.469939E-006	-0.0002622	9
	15	46	9515.62	48.20332	-118.0939	1	127.5529	-67.79581	-6.755311E-006	0.0005123	9
	16	48	7546.875	51.60631	-146.125	1	154.9701	-70.54853	-1.038705E-005	0.0003927	9
	17	50	5928.309	55.20877	-183.2039	1	191.3418	-73.22974	1.529555E-005	-0.0003449	9
	18	53	4733.456	60.19998	-225.7371	1	233.6263	-75.06777	-1.189247E-005	0.0004456	9
	19	55	3796.875	65.14685	-278.0481	1	285.5781	-76.81342	6.038572E-007	-8.91726E-005	9
	20	57	2987.132	74.12988	-347.9014	1	355.7115	-77.97146	5.715046E-006	0.0001302	9
	21	60	2390.625	86.43799	-427.4442	1	436.0964	-78.56779	1.565617E-005	-0.0003257	9
	22	62	1884.191	99.9358	-531.4003	1	540.7157	-79.34929	3.085098E-006	8.148661E-005	8
	23	64	1516.544	117.4998	-650.132	1	660.6647	-79.75539	2.777818E-006	-1.341034E-005	8
	24	67	1193.986	142.4479	-810.9438	1	823.3598	-80.03724	3.229954E-006	2.066378E-005	8
	25	69	946.5144	176.7262	-1002.609	1	1018.065	-80.00337	3.013386E-006	-1.139474E-005	8
	26	71	751.7689	215.968	-1237.712	1	1256.413	-80.10213	3.264384E-006	-3.035248E-007	8
	27	74	597.4265	268.8206	-1525.854	1	1549.353	-80.00832	2.824417E-006	-1.77773E-005	8
	28	76	477.4305	336.4036	-1867.249	1	1897.311	-79.78715	6.139759E-007	0.0006252	8
	29	78	376.6741	427.8914	-2308.461	1	2347.782	-79.49895	6.193918E-007	0.0006117	8
	30	81	298.2954	543.8596	-2839.286	1	2890.904	-79.15646	5.769735E-007	0.0006664	8
	31	83	237.7717	687.2291	-3467.861	1	3535.3	-78.79087	5.796618E-007	0.0006636	8
	32	86	189.0121	869.8608	-4238.84	1	4327.172	-78.40321	5.734129E-007	0.00066	8
	33	88	150.2404	1104.264	-5182.747	1	5299.082	-77.97211	4.809016E-008	0.0006411	7
	34	90	119.1737	1395.533	-6329.357	1	6481.379	-77.56604	5.066378E-008	0.000635	7
	35	93	95.0169	1749.155	-7681.95	1	7878.572	-77.17264	4.942329E-008	0.0006336	7
	36	95	75.60484	2192.568	-9334.747	1	9588.79	-76.78184	5.3439E-008	0.0006342	7
	37	98	54.50582	3019.479	-12303.94	1	12669.02	-76.21167	5.124116E-008	0.0006337	7
	38	100	45.95588	3555.055	-14214.28	1	14652.1	-75.95812	5.146245E-008	0.000643	7
	39	103	37.20238	4337.519	-16954.71	1	17500.75	-75.64982	4.895004E-008	0.0006419	7
	40	105	30.04808	5307.767	-20268.29	1	20951.76	-75.32518	4.825113E-008	0.00064	7
	41	107	23.91582	6617.613	-24553.08	1	25429.24	-74.91592	5.298749E-008	0.0006362	7
	42	110	18.60119	8355.051	-30221.29	1	31354.96	-74.54588	4.992357E-008	0.0006404	7
	43	112	15.02404	10175.48	-36063.75	1	37471.78	-74.24345	5.303815E-008	0.0006493	7
	44	114	12.01923	12571.66	-43346.77	1	45133.02	-73.82651	-4.555644E-009	0.0006845	6
	45	117	9.450605	15798.98	-52838.77	1	55150.19	-73.35314	-5.509572E-009	0.0006948	6
	46	119	7.512019	19593.13	-63686.43	1	66632.22	-72.89948	-4.698159E-009	0.0006715	6
	47	122	5.978954	24427.6	-76644.85	1	80443.41	-72.32232	-4.242569E-009	0.0006867	6
	48	127	4.734848	30710.02	-92612.57	1	97571.5	-71.65466	-4.266447E-009	0.0006764	6
	49	130	3.75601	38602.79	-111377.1	1	117877.2	-70.88392	-4.313941E-009	0.000697	6
	50	135	3.004808	48269.03	-132792.7	1	141293.3	-70.02422	-4.113574E-009	0.0006597	6
	51	142	2.372217	61506.5	-159800.3	1	171228.4	-68.94848	-4.743992E-009	0.0006097	6
	52	146	1.878005	78053.55	-190550.6	1	205917.2	-67.72495	-4.294295E-009	0.0006922	6
	53	151	1.512097	97755.4	-223537.8	1	243978	-66.37974	-4.511533E-009	0.0005867	6
	54	156	1.201923	123952.8	-264110.4	1	291750.9	-64.8583	-4.515698E-009	0.000708	6
	55	162	0.956633	156568.2	-309245.1	1	346621	-63.14729	-5.019926E-009	3.784013E-005	6
