EXPLAIN
TAG	EISPOT
TITLE	LABEL	Potentiostatic EIS	Test Identifier
DATE	LABEL	2/26/2021	Date
TIME	LABEL	22:35:52	Time
NOTES	NOTES	1	Notes...
	
PSTAT	PSTAT	REF3000-16137	Potentiostat
VDC	POTEN	0.00000E+000	T	DC Voltage (V)
FREQINIT	QUANT	3.00000E+005	Initial Freq. (Hz)
FREQFINAL	QUANT	1.00000E+000	Final Freq. (Hz)
PTSPERDEC	QUANT	1.00000E+001	Points/decade
VAC	QUANT	5.00000E+001	AC Voltage (mV rms)
AREA	QUANT	1.00000E+000	Sample Area (cm^2)
SPEED	SELECTOR	2	Optimize for:
ZGUESS	QUANT	1.00000E+003	Estimated Z (ohms)
EOC	QUANT	0	Open Circuit (V)
SEQUENCER	TOGGLE	TRUE	Run as Sequence
PSTATMODEL	IQUANT	5	Pstat Model
PSTATSECTION	LABEL	REF3000-16137	Pstat Section
PSTATSERIALNO	LABEL	16137	Pstat Serial Number
CTRLMODE	IQUANT	1	Control Mode
IESTAB	IQUANT	0	I/E Stability
CASPEED	IQUANT	1	Control Amp Speed
CONVENTION	IQUANT	1	Current Convention
ICHRANGE	IQUANT	2	Ich Range
ICHRANGEMODE	TOGGLE	F	Ich Auto Range
ICHOFFSETENABLE	TOGGLE	T	Ich Offset Enable
ICHOFFSET	QUANT	0	Ich Offset (V)
ICHFILTER	IQUANT	3	Ich Filter
VCHRANGE	IQUANT	2	Vch Range
VCHRANGEMODE	TOGGLE	F	Vch Auto Range
VCHOFFSETENABLE	TOGGLE	T	Vch Offset Enable
VCHOFFSET	QUANT	0	Vch Offset (V)
VCHFILTER	IQUANT	3	Vch Filter
ACHRANGE	IQUANT	2	Ach Range
ACHOFFSETENABLE	TOGGLE	F	Ach Offset Enable
ACHOFFSET	QUANT	0	Ach Offset (V)
ACHFILTER	IQUANT	3	Ach Filter
IERANGELOWERLIMIT	IQUANT	2	I/E Range Lower Limit
IERANGEMODE	TOGGLE	F	I/E AutoRange
IERANGE	IQUANT	11	I/E Range
POSFEEDENABLE	TOGGLE	F	Positive Feedback IR Comp
POSFEEDRESISTANCE	QUANT	0	Positive Feedback Resistance (ohm)
ACHSELECT	IQUANT	0	Ach Select
CABLEID	IQUANT	13	Cable ID
DCCALDATE	LABEL	7/31/2020	DC Calibration Date
ACCALDATE	LABEL	7/31/2020	AC Calibration Date
THERMOSELECT	IQUANT	1	Thermo Select
FRAMEWORKVERSION	QUANT	6.33	Framework Version
INSTRUMENTVERSION	LABEL	3.50	Instrument Version
COMPLIANCEVOLTAGE	IQUANT	0	Compliance Voltage
ZCURVE	TABLE
	Pt	Time	Freq	Zreal	Zimag	Zsig	Zmod	Zphz	Idc	Vdc	IERange
	#	s	Hz	ohm	ohm	V	ohm	°	A	V	#
	0	7	300046.9	31.95464	-10.04769	1	33.49709	-17.45502	-1.729473E-005	-4.264841E-005	11
	1	11	238359.4	33.32435	-12.09279	1	35.45064	-19.9449	5.079364E-005	0.000578	10
	2	15	189328.1	34.84732	-14.62292	1	37.79108	-22.7643	-8.788491E-005	0.0007293	10
	3	17	150421.9	36.76555	-16.96088	1	40.48923	-24.76507	1.441489E-006	0.0006954	9
	4	20	119484.4	38.73953	-20.11582	1	43.65086	-27.44097	2.025435E-006	-0.0006142	9
	5	22	94921.88	40.97367	-23.38157	1	47.17562	-29.71119	-3.311087E-006	-5.745427E-005	9
	6	25	75421.88	43.34349	-27.15151	1	51.1455	-32.06412	1.540801E-005	-0.0002855	9
	7	27	59859.37	45.63529	-31.39757	1	55.39302	-34.52839	2.619541E-006	0.0003275	9
	8	30	47578.12	47.96268	-36.37147	1	60.19387	-37.17408	-1.222526E-005	0.0003289	9
	9	32	37828.12	50.18452	-42.55063	1	65.79546	-40.29406	1.101246E-005	-0.0003926	9
	10	35	30046.88	52.27035	-50.14277	1	72.43264	-43.80988	6.35167E-006	-0.0002907	9
	11	37	23859.38	54.16893	-59.94695	1	80.79548	-47.89857	-1.741031E-006	0.000381	9
	12	40	18984.38	56.03836	-72.00443	1	91.24108	-52.10771	-9.287993E-006	0.0001722	9
	13	42	15046.87	58.06815	-87.64784	1	105.1383	-56.47486	1.746756E-005	-0.0003961	9
	14	44	11953.13	60.1661	-107.3621	1	123.0715	-60.73358	-5.776096E-007	0.0003363	9
	15	47	9515.62	62.40504	-131.6626	1	145.7032	-64.64013	-1.268092E-005	0.000292	9
	16	49	7546.875	65.85098	-162.2948	1	175.1456	-67.91519	6.291207E-006	-0.0003011	9
	17	51	5928.309	68.89436	-203.4216	1	214.7714	-71.2899	1.796159E-005	-0.0002822	9
	18	53	4733.456	73.17037	-251.2588	1	261.6961	-73.76363	6.284175E-006	-0.0002933	9
	19	56	3796.875	79.74797	-308.2668	1	318.4151	-75.49569	6.630588E-006	-0.0003156	9
	20	58	2987.132	84.459	-387.4212	1	396.5205	-77.70177	-4.911488E-009	0.0003716	9
	21	60	2390.625	92.31687	-477.0262	1	485.8769	-79.04719	1.74798E-006	2.147989E-005	8
	22	63	1884.191	103.9644	-597.3647	1	606.3441	-80.12722	1.042441E-006	0.0008719	8
	23	65	1516.544	117.0853	-733.9	1	743.1811	-80.93551	1.693904E-006	4.255765E-005	8
	24	67	1193.986	134.3595	-920.3845	1	930.1398	-81.69452	-7.322635E-007	0.0013468	8
	25	70	946.5144	161.0064	-1147.305	1	1158.547	-82.0116	3.493019E-006	-0.000241	8
	26	72	751.7689	188.6609	-1426.744	1	1439.163	-82.46738	-2.456476E-006	0.0012818	8
	27	74	597.4265	224.3698	-1767.6	1	1781.783	-82.76586	3.590113E-006	-7.84953E-005	8
	28	77	477.4305	273.9609	-2188.416	1	2205.498	-82.86444	5.330272E-007	0.0006565	8
	29	79	376.6741	341.5182	-2734.494	1	2755.739	-82.88104	5.430786E-007	0.0006492	8
	30	81	298.2954	429.547	-3403.029	1	3430.031	-82.80589	5.456262E-007	0.0006596	8
	31	84	237.7717	541.6006	-4205.104	1	4239.839	-82.66093	5.481298E-007	0.0006527	8
	32	86	189.0121	694.2295	-5215.215	1	5261.219	-82.41758	5.033669E-008	0.0006295	7
	33	88	150.2404	888.936	-6447.229	1	6508.223	-82.14963	5.078157E-008	0.0006246	7
	34	91	119.1737	1145.555	-7977.061	1	8058.896	-81.82784	5.06042E-008	0.000632	7
	35	93	95.0169	1474.856	-9810.54	1	9920.78	-81.45053	5.195691E-008	0.000626	7
	36	96	75.60484	1903.384	-12070.74	1	12219.89	-81.03905	5.343676E-008	0.000631	7
	37	98	54.50582	2734.675	-16196.1	1	16425.35	-80.41613	5.397857E-008	0.0006244	7
	38	101	45.95588	3308.191	-18845.4	1	19133.56	-80.04353	5.234138E-008	0.000635	7
	39	103	37.20238	4173.508	-22745.57	1	23125.29	-79.60265	5.060342E-008	0.0006298	7
	40	105	30.04808	5258.398	-27404.52	1	27904.45	-79.13807	5.121022E-008	0.0006276	7
	41	108	23.91582	6737.497	-33471.98	1	34143.34	-78.61915	5.546581E-008	0.0006248	7
	42	110	18.60119	8856.599	-41660.36	1	42591.37	-77.99814	5.015796E-008	0.0006228	7
	43	113	15.02404	10998.37	-50070.58	1	51264.29	-77.61131	5.924633E-010	0.0006729	6
	44	115	12.01923	13871.14	-60608.8	1	62175.84	-77.1091	1.777817E-009	0.0006739	6
	45	117	9.450605	17756.49	-74466.99	1	76554.73	-76.58839	1.055743E-009	0.0006818	6
	46	120	7.512019	22518.26	-90392.08	1	93154.71	-76.01135	1.39042E-009	0.000673	6
	47	123	5.978954	28389.8	-109592.9	1	113210.3	-75.4769	1.76174E-009	0.0006794	6
	48	127	4.734848	36200.73	-133335.3	1	138162.2	-74.81027	1.443538E-009	0.0006535	6
	49	130	3.75601	46110.77	-161739.2	1	168183.7	-74.0875	1.790183E-009	0.0006983	6
	50	136	3.004808	58271.62	-194529.8	1	203070	-73.32436	1.592798E-009	0.0006773	6
	51	142	2.372217	75235.28	-235900.2	1	247607	-72.31104	1.353771E-009	0.0006433	6
	52	147	1.878005	97151.1	-285177.1	1	301271.1	-71.18759	1.785252E-009	0.0006675	6
	53	151	1.512097	122840.5	-338563.6	1	360159.8	-70.05779	1.512917E-009	0.0007748	6
	54	157	1.201923	159116.5	-404244.3	1	434432.4	-68.51467	-3.725336E-009	0.0006608	5
	55	163	0.956633	204500	-479265.7	1	521071.8	-66.89233	-4.481321E-009	2.279855E-005	5
