EXPLAIN
TAG	EISPOT
TITLE	LABEL	Potentiostatic EIS	Test Identifier
DATE	LABEL	2/26/2021	Date
TIME	LABEL	22:01:21	Time
NOTES	NOTES	1	Notes...
	
PSTAT	PSTAT	REF3000-16137	Potentiostat
VDC	POTEN	0.00000E+000	T	DC Voltage (V)
FREQINIT	QUANT	3.00000E+005	Initial Freq. (Hz)
FREQFINAL	QUANT	1.00000E+000	Final Freq. (Hz)
PTSPERDEC	QUANT	1.00000E+001	Points/decade
VAC	QUANT	5.00000E+001	AC Voltage (mV rms)
AREA	QUANT	1.00000E+000	Sample Area (cm^2)
SPEED	SELECTOR	2	Optimize for:
ZGUESS	QUANT	1.00000E+003	Estimated Z (ohms)
EOC	QUANT	0	Open Circuit (V)
SEQUENCER	TOGGLE	TRUE	Run as Sequence
PSTATMODEL	IQUANT	5	Pstat Model
PSTATSECTION	LABEL	REF3000-16137	Pstat Section
PSTATSERIALNO	LABEL	16137	Pstat Serial Number
CTRLMODE	IQUANT	1	Control Mode
IESTAB	IQUANT	0	I/E Stability
CASPEED	IQUANT	1	Control Amp Speed
CONVENTION	IQUANT	1	Current Convention
ICHRANGE	IQUANT	2	Ich Range
ICHRANGEMODE	TOGGLE	F	Ich Auto Range
ICHOFFSETENABLE	TOGGLE	T	Ich Offset Enable
ICHOFFSET	QUANT	0	Ich Offset (V)
ICHFILTER	IQUANT	3	Ich Filter
VCHRANGE	IQUANT	2	Vch Range
VCHRANGEMODE	TOGGLE	F	Vch Auto Range
VCHOFFSETENABLE	TOGGLE	T	Vch Offset Enable
VCHOFFSET	QUANT	0	Vch Offset (V)
VCHFILTER	IQUANT	3	Vch Filter
ACHRANGE	IQUANT	2	Ach Range
ACHOFFSETENABLE	TOGGLE	F	Ach Offset Enable
ACHOFFSET	QUANT	0	Ach Offset (V)
ACHFILTER	IQUANT	3	Ach Filter
IERANGELOWERLIMIT	IQUANT	2	I/E Range Lower Limit
IERANGEMODE	TOGGLE	F	I/E AutoRange
IERANGE	IQUANT	11	I/E Range
POSFEEDENABLE	TOGGLE	F	Positive Feedback IR Comp
POSFEEDRESISTANCE	QUANT	0	Positive Feedback Resistance (ohm)
ACHSELECT	IQUANT	0	Ach Select
CABLEID	IQUANT	13	Cable ID
DCCALDATE	LABEL	7/31/2020	DC Calibration Date
ACCALDATE	LABEL	7/31/2020	AC Calibration Date
THERMOSELECT	IQUANT	1	Thermo Select
FRAMEWORKVERSION	QUANT	6.33	Framework Version
INSTRUMENTVERSION	LABEL	3.50	Instrument Version
COMPLIANCEVOLTAGE	IQUANT	0	Compliance Voltage
ZCURVE	TABLE
	Pt	Time	Freq	Zreal	Zimag	Zsig	Zmod	Zphz	Idc	Vdc	IERange
	#	s	Hz	ohm	ohm	V	ohm	°	A	V	#
	0	8	300046.9	18.27274	-6.053946	1	19.2495	-18.33057	3.179626E-005	0.0005257	10
	1	11	238359.4	19.20255	-7.730527	1	20.70022	-21.92864	-0.0001009	0.0004277	10
	2	14	189328.1	20.22358	-9.48022	1	22.33535	-25.1158	-5.057843E-005	0.0006245	10
	3	17	150421.9	21.33768	-11.31326	1	24.15132	-27.93259	-0.0000999	0.0005586	10
	4	19	119484.4	22.58249	-13.29007	1	26.20295	-30.47734	1.704805E-005	0.0006	10
	5	23	94921.88	23.76431	-15.53308	1	28.39047	-33.16986	1.655796E-005	0.0006535	10
	6	26	75421.88	24.96723	-18.08926	1	30.83154	-35.92409	5.106459E-006	0.0006224	10
	7	28	59859.37	26.08924	-21.24899	1	33.6477	-39.1619	8.773672E-006	0.0007352	10
	8	31	47578.12	27.21419	-25.1598	1	37.06248	-42.7537	2.839208E-005	0.0006968	10
	9	33	37828.12	28.41966	-29.9047	1	41.25492	-46.45854	1.416068E-005	-0.0001482	9
	10	36	30046.88	29.64059	-36.15255	1	46.75009	-50.65251	-1.080809E-005	0.0003923	9
	11	39	23859.38	31.11706	-43.82462	1	53.7482	-54.62387	-6.464473E-006	0.0002302	9
	12	41	18984.38	32.68586	-53.49896	1	62.69373	-58.57663	-3.693296E-006	0.0000978	9
	13	43	15046.87	34.97015	-65.50975	1	74.25927	-61.90599	9.728908E-007	-1.716575E-005	9
	14	45	11953.13	37.42985	-80.54942	1	88.82118	-65.07657	1.000575E-005	-6.986162E-006	9
	15	48	9515.62	40.76133	-98.8392	1	106.9143	-67.58873	3.570802E-006	0.0001043	9
	16	50	7546.875	45.38848	-121.3939	1	129.6016	-69.49951	1.336196E-005	-0.0002973	9
	17	52	5928.309	51.16996	-150.5711	1	159.0284	-71.23022	8.851702E-006	-0.0002301	9
	18	55	4733.456	58.30815	-183.9371	1	192.9577	-72.41136	-8.430175E-006	0.0004226	9
	19	57	3796.875	66.49664	-224.1621	1	233.8171	-73.47726	-1.084935E-005	0.00038	9
	20	59	2987.132	80.20342	-275.6656	1	287.096	-73.77793	-9.813578E-006	0.0003017	9
	21	62	2390.625	92.99049	-335.7636	1	348.4027	-74.51981	6.342241E-007	-4.584523E-005	9
	22	64	1884.191	113.8154	-410.8099	1	426.2848	-74.51454	9.532736E-006	-2.904064E-005	9
	23	66	1516.544	136.7434	-492.2997	1	510.9381	-74.47659	1.128053E-006	0.000445	8
	24	69	1193.986	167.7786	-602.6452	1	625.5645	-74.4426	4.333946E-007	0.0006264	8
	25	71	946.5144	205.0238	-732.6307	1	760.7776	-74.36594	-2.551188E-007	0.0010391	8
	26	73	751.7689	250.4016	-887.762	1	922.4003	-74.2484	-1.429424E-006	0.0011586	8
	27	76	597.4265	306.5864	-1074.294	1	1117.185	-74.0721	1.142091E-006	0.0004365	8
	28	78	477.4305	373.7452	-1293.813	1	1346.714	-73.88753	6.10626E-007	0.0006668	8
	29	80	376.6741	460.2579	-1571.83	1	1637.83	-73.67909	6.00783E-007	0.0006647	8
	30	83	298.2954	564.4894	-1903.066	1	1985.021	-73.47853	6.31353E-007	0.000629	8
	31	85	237.7717	688.1437	-2289.436	1	2390.619	-73.27061	5.952748E-007	0.0006662	8
	32	87	189.0121	840.1542	-2759.721	1	2884.774	-73.06795	6.038148E-007	0.000662	8
	33	90	150.2404	1024.864	-3323.77	1	3478.188	-72.86317	6.122685E-007	0.0006642	8
	34	92	119.1737	1251.893	-4010.532	1	4201.381	-72.66418	6.141704E-007	0.0006658	8
	35	95	95.0169	1525.125	-4821.729	1	5057.181	-72.44772	3.748202E-008	0.0006436	7
	36	97	75.60484	1854.525	-5795.075	1	6084.583	-72.25443	3.781795E-008	0.0006372	7
	37	100	54.50582	2453.725	-7531.712	1	7921.329	-71.95512	4.133923E-008	0.0006343	7
	38	102	45.95588	2839.127	-8642.837	1	9097.213	-71.81491	3.962907E-008	0.0006414	7
	39	105	37.20238	3396.98	-10227.5	1	10776.88	-71.62651	3.729337E-008	0.0006408	7
	40	107	30.04808	4063.774	-12119.43	1	12782.6	-71.46315	3.602672E-008	0.0006443	7
	41	109	23.91582	4945.968	-14559.14	1	15376.32	-71.23656	3.774787E-008	0.0006424	7
	42	112	18.60119	6140.241	-17766.94	1	18798.05	-70.93489	3.894479E-008	0.0006481	7
	43	114	15.02404	7343.222	-21032.15	1	22277.22	-70.75373	3.78575E-008	0.0006448	7
	44	116	12.01923	8917.545	-25077.14	1	26615.51	-70.42439	4.214412E-008	0.0006482	7
	45	119	9.450605	10997.3	-30335.82	1	32267.67	-70.07348	3.787498E-008	0.0006493	7
	46	121	7.512019	13411.2	-36266.44	1	38666.71	-69.70579	4.004034E-008	0.0006367	7
	47	124	5.978954	16439.96	-43283.98	1	46300.93	-69.20241	-2.03615E-008	0.0006924	6
	48	127	4.734848	20326.73	-51816	1	55660.34	-68.58057	-1.905763E-008	0.0006744	6
	49	130	3.75601	25080.26	-61774.32	1	66671.48	-67.90294	-1.823692E-008	0.0007034	6
	50	136	3.004808	30851.85	-73098.27	1	79342.25	-67.11734	-1.787883E-008	0.0006572	6
	51	142	2.372217	38610.44	-87325.77	1	95480.7	-66.14774	-1.91513E-008	0.0006196	6
	52	147	1.878005	48211.74	-103246.9	1	113948.6	-64.9695	-1.863234E-008	0.0006959	6
	53	151	1.512097	59359.76	-120278.2	1	134128.4	-63.73271	-1.838538E-008	0.00059	6
	54	157	1.201923	74036.18	-141028.8	1	159281.2	-62.30179	-1.879356E-008	0.0007067	6
	55	163	0.956633	91945.79	-163902.2	1	187930.7	-60.70846	-1.952464E-008	4.247739E-005	6
