EXPLAIN
TAG	EISPOT
TITLE	LABEL	Potentiostatic EIS	Test Identifier
DATE	LABEL	2/26/2021	Date
TIME	LABEL	22:07:04	Time
NOTES	NOTES	1	Notes...
	
PSTAT	PSTAT	REF3000-16137	Potentiostat
VDC	POTEN	0.00000E+000	T	DC Voltage (V)
FREQINIT	QUANT	3.00000E+005	Initial Freq. (Hz)
FREQFINAL	QUANT	1.00000E+000	Final Freq. (Hz)
PTSPERDEC	QUANT	1.00000E+001	Points/decade
VAC	QUANT	5.00000E+001	AC Voltage (mV rms)
AREA	QUANT	1.00000E+000	Sample Area (cm^2)
SPEED	SELECTOR	2	Optimize for:
ZGUESS	QUANT	1.00000E+003	Estimated Z (ohms)
EOC	QUANT	0	Open Circuit (V)
SEQUENCER	TOGGLE	TRUE	Run as Sequence
PSTATMODEL	IQUANT	5	Pstat Model
PSTATSECTION	LABEL	REF3000-16137	Pstat Section
PSTATSERIALNO	LABEL	16137	Pstat Serial Number
CTRLMODE	IQUANT	1	Control Mode
IESTAB	IQUANT	0	I/E Stability
CASPEED	IQUANT	1	Control Amp Speed
CONVENTION	IQUANT	1	Current Convention
ICHRANGE	IQUANT	2	Ich Range
ICHRANGEMODE	TOGGLE	F	Ich Auto Range
ICHOFFSETENABLE	TOGGLE	T	Ich Offset Enable
ICHOFFSET	QUANT	0	Ich Offset (V)
ICHFILTER	IQUANT	3	Ich Filter
VCHRANGE	IQUANT	2	Vch Range
VCHRANGEMODE	TOGGLE	F	Vch Auto Range
VCHOFFSETENABLE	TOGGLE	T	Vch Offset Enable
VCHOFFSET	QUANT	0	Vch Offset (V)
VCHFILTER	IQUANT	3	Vch Filter
ACHRANGE	IQUANT	2	Ach Range
ACHOFFSETENABLE	TOGGLE	F	Ach Offset Enable
ACHOFFSET	QUANT	0	Ach Offset (V)
ACHFILTER	IQUANT	3	Ach Filter
IERANGELOWERLIMIT	IQUANT	2	I/E Range Lower Limit
IERANGEMODE	TOGGLE	F	I/E AutoRange
IERANGE	IQUANT	11	I/E Range
POSFEEDENABLE	TOGGLE	F	Positive Feedback IR Comp
POSFEEDRESISTANCE	QUANT	0	Positive Feedback Resistance (ohm)
ACHSELECT	IQUANT	0	Ach Select
CABLEID	IQUANT	13	Cable ID
DCCALDATE	LABEL	7/31/2020	DC Calibration Date
ACCALDATE	LABEL	7/31/2020	AC Calibration Date
THERMOSELECT	IQUANT	1	Thermo Select
FRAMEWORKVERSION	QUANT	6.33	Framework Version
INSTRUMENTVERSION	LABEL	3.50	Instrument Version
COMPLIANCEVOLTAGE	IQUANT	0	Compliance Voltage
ZCURVE	TABLE
	Pt	Time	Freq	Zreal	Zimag	Zsig	Zmod	Zphz	Idc	Vdc	IERange
	#	s	Hz	ohm	ohm	V	ohm	°	A	V	#
	0	8	300046.9	19.54876	-6.495647	1	20.5997	-18.38057	-5.437338E-005	0.0005175	10
	1	11	238359.4	20.47233	-8.26895	1	22.07922	-21.9942	-8.710237E-005	0.0005645	10
	2	14	189328.1	21.57003	-10.12434	1	23.82789	-25.144	-7.203422E-006	0.0004125	10
	3	17	150421.9	22.66801	-12.25146	1	25.76698	-28.39004	2.372813E-005	0.0006646	11
	4	21	119484.4	24.063	-14.14435	1	27.9122	-30.44723	-7.38956E-006	0.0005494	10
	5	23	94921.88	25.37232	-16.48558	1	30.25771	-33.01367	-2.679694E-006	0.0006588	10
	6	26	75421.88	26.61234	-19.27072	1	32.85692	-35.90932	-4.766162E-006	0.0006578	10
	7	28	59859.37	27.86653	-22.5131	1	35.82434	-38.93441	-2.700443E-005	0.0007388	10
	8	31	47578.12	29.11294	-26.4697	1	39.34728	-42.27734	9.948E-007	-5.578622E-005	9
	9	34	37828.12	30.29346	-31.63944	1	43.80352	-46.245	-7.269245E-006	0.0004131	9
	10	36	30046.88	31.50135	-38.09993	1	49.43622	-50.41576	1.442936E-005	-0.0001383	9
	11	39	23859.38	32.86887	-46.25549	1	56.74445	-54.60263	6.068804E-006	0.0001413	9
	12	41	18984.38	34.51725	-56.33088	1	66.06519	-58.50174	-9.291122E-006	0.0003816	9
	13	43	15046.87	36.50952	-69.1775	1	78.22066	-62.17644	-7.320265E-006	0.0002376	9
	14	46	11953.13	38.95241	-85.0658	1	93.56004	-65.39652	7.822043E-007	-2.709538E-005	9
	15	48	9515.62	41.59533	-104.8532	1	112.8023	-68.36174	-9.892946E-006	0.0003094	9
	16	50	7546.875	45.49502	-129.3237	1	137.0928	-70.61855	1.55496E-005	-0.000285	9
	17	52	5928.309	51.19801	-160.8762	1	168.8265	-72.3466	-9.769441E-006	0.0003428	9
	18	55	4733.456	57.43599	-197.4263	1	205.6114	-73.77904	-8.574694E-006	0.0004327	9
	19	57	3796.875	65.59288	-241.046	1	249.8111	-74.7774	1.386653E-005	-0.000168	9
	20	59	2987.132	77.13441	-299.2756	1	309.056	-75.5473	-6.118438E-006	0.0003978	9
	21	62	2390.625	90.25454	-365.0745	1	376.0655	-76.11365	1.591126E-005	-0.0002249	9
	22	64	1884.191	109.2532	-450.9091	1	463.9561	-76.37998	-3.23136E-006	0.000349	9
	23	66	1516.544	132.2289	-542.7631	1	558.6379	-76.30821	2.118152E-006	0.0003674	8
	24	69	1193.986	163.184	-668.85	1	688.4689	-76.28901	2.941991E-006	0.0001209	8
	25	71	946.5144	199.6147	-817.8705	1	841.8778	-76.28417	-1.638492E-006	0.0011783	8
	26	73	751.7689	248.2208	-996.212	1	1026.671	-76.00881	2.796765E-006	0.0001802	8
	27	76	597.4265	304.5738	-1208.852	1	1246.63	-75.85849	-4.692246E-007	0.0010628	8
	28	78	477.4305	377.1588	-1461.831	1	1509.701	-75.53294	5.997068E-007	0.0006573	8
	29	80	376.6741	469.1459	-1783.332	1	1844.009	-75.261	5.929884E-007	0.000655	8
	30	83	298.2954	581.147	-2166.91	1	2243.487	-74.98705	5.991503E-007	0.0006532	8
	31	85	237.7717	714.3055	-2616.032	1	2711.8	-74.72771	6.036113E-007	0.0006592	8
	32	88	189.0121	879.3115	-3163.661	1	3283.586	-74.4672	6.074191E-007	0.0006603	8
	33	90	150.2404	1080.902	-3822.35	1	3972.242	-74.2099	6.10966E-007	0.0006547	8
	34	92	119.1737	1333.994	-4633.857	1	4822.05	-73.93996	4.459829E-008	0.0006294	7
	35	95	95.0169	1630.8	-5577.596	1	5811.118	-73.70193	4.311879E-008	0.0006287	7
	36	97	75.60484	1994.271	-6721.636	1	7011.241	-73.47468	4.556279E-008	0.0006289	7
	37	100	54.50582	2655.341	-8769.36	1	9162.561	-73.15382	4.615977E-008	0.0006321	7
	38	102	45.95588	3093.209	-10084.45	1	10548.18	-72.94762	4.409727E-008	0.0006311	7
	39	105	37.20238	3719.269	-11965.26	1	12529.98	-72.73271	4.218807E-008	0.0006286	7
	40	107	30.04808	4465.299	-14198.84	1	14884.42	-72.5425	4.189543E-008	0.0006243	7
	41	109	23.91582	5466.021	-17082.5	1	17935.69	-72.25648	4.733416E-008	0.0006282	7
	42	112	18.60119	6787.911	-20905.63	1	21980.02	-72.01175	4.717165E-008	0.0005935	7
	43	114	15.02404	8194.961	-24821.16	1	26139	-71.72883	4.357385E-008	0.0006282	7
	44	116	12.01923	9990.46	-29667.22	1	31304.21	-71.389	4.778234E-008	0.0006343	7
	45	119	9.450605	12410.89	-35946.54	1	38028.73	-70.95227	4.196869E-008	0.0006319	7
	46	121	7.512019	15215.44	-43079.8	1	45687.85	-70.54719	-1.561275E-008	0.0006659	6
	47	124	5.978954	18674.58	-51518.33	1	54798.52	-70.07522	-1.40444E-008	0.0006827	6
	48	128	4.734848	23141.96	-61831.61	1	66020.43	-69.48044	-1.19859E-008	0.0007073	6
	49	131	3.75601	28756.23	-73919.17	1	79315.6	-68.74284	-1.3111E-008	0.0006666	6
	50	137	3.004808	35508.41	-87625.81	1	94546.97	-67.94085	-1.312966E-008	0.00071	6
	51	143	2.372217	44686.84	-104788.6	1	113919.1	-66.9043	-1.311972E-008	0.0007473	6
	52	147	1.878005	55867.36	-124384.8	1	136355.2	-65.8128	-1.405274E-008	0.0006602	6
	53	152	1.512097	68858.37	-145122.7	1	160630.2	-64.61641	-1.341194E-008	0.0006914	6
	54	157	1.201923	86472.08	-170638.8	1	191298.2	-63.12615	-1.321983E-008	0.0006444	6
	55	164	0.956633	108140.5	-198858.3	1	226360.3	-61.46235	-1.443175E-008	3.616189E-005	6
