EXPLAIN
TAG	EISPOT
TITLE	LABEL	Potentiostatic EIS	Test Identifier
DATE	LABEL	2/26/2021	Date
TIME	LABEL	22:38:44	Time
NOTES	NOTES	1	Notes...
	
PSTAT	PSTAT	REF3000-16137	Potentiostat
VDC	POTEN	0.00000E+000	T	DC Voltage (V)
FREQINIT	QUANT	3.00000E+005	Initial Freq. (Hz)
FREQFINAL	QUANT	1.00000E+000	Final Freq. (Hz)
PTSPERDEC	QUANT	1.00000E+001	Points/decade
VAC	QUANT	5.00000E+001	AC Voltage (mV rms)
AREA	QUANT	1.00000E+000	Sample Area (cm^2)
SPEED	SELECTOR	2	Optimize for:
ZGUESS	QUANT	1.00000E+003	Estimated Z (ohms)
EOC	QUANT	0	Open Circuit (V)
SEQUENCER	TOGGLE	TRUE	Run as Sequence
PSTATMODEL	IQUANT	5	Pstat Model
PSTATSECTION	LABEL	REF3000-16137	Pstat Section
PSTATSERIALNO	LABEL	16137	Pstat Serial Number
CTRLMODE	IQUANT	1	Control Mode
IESTAB	IQUANT	0	I/E Stability
CASPEED	IQUANT	1	Control Amp Speed
CONVENTION	IQUANT	1	Current Convention
ICHRANGE	IQUANT	2	Ich Range
ICHRANGEMODE	TOGGLE	F	Ich Auto Range
ICHOFFSETENABLE	TOGGLE	T	Ich Offset Enable
ICHOFFSET	QUANT	0	Ich Offset (V)
ICHFILTER	IQUANT	3	Ich Filter
VCHRANGE	IQUANT	2	Vch Range
VCHRANGEMODE	TOGGLE	F	Vch Auto Range
VCHOFFSETENABLE	TOGGLE	T	Vch Offset Enable
VCHOFFSET	QUANT	0	Vch Offset (V)
VCHFILTER	IQUANT	3	Vch Filter
ACHRANGE	IQUANT	2	Ach Range
ACHOFFSETENABLE	TOGGLE	F	Ach Offset Enable
ACHOFFSET	QUANT	0	Ach Offset (V)
ACHFILTER	IQUANT	3	Ach Filter
IERANGELOWERLIMIT	IQUANT	2	I/E Range Lower Limit
IERANGEMODE	TOGGLE	F	I/E AutoRange
IERANGE	IQUANT	11	I/E Range
POSFEEDENABLE	TOGGLE	F	Positive Feedback IR Comp
POSFEEDRESISTANCE	QUANT	0	Positive Feedback Resistance (ohm)
ACHSELECT	IQUANT	0	Ach Select
CABLEID	IQUANT	13	Cable ID
DCCALDATE	LABEL	7/31/2020	DC Calibration Date
ACCALDATE	LABEL	7/31/2020	AC Calibration Date
THERMOSELECT	IQUANT	1	Thermo Select
FRAMEWORKVERSION	QUANT	6.33	Framework Version
INSTRUMENTVERSION	LABEL	3.50	Instrument Version
COMPLIANCEVOLTAGE	IQUANT	0	Compliance Voltage
ZCURVE	TABLE
	Pt	Time	Freq	Zreal	Zimag	Zsig	Zmod	Zphz	Idc	Vdc	IERange
	#	s	Hz	ohm	ohm	V	ohm	°	A	V	#
	0	7	300046.9	34.67959	-9.18603	1	35.87558	-14.83596	-4.927438E-005	0.0013764	9
	1	10	238359.4	35.9776	-11.98135	1	37.92018	-18.41892	2.936868E-005	-0.0007322	9
	2	13	189328.1	37.51563	-14.73811	1	40.30675	-21.44751	1.223891E-005	-0.000648	9
	3	16	150421.9	39.31087	-17.71967	1	43.11996	-24.26383	1.302877E-005	-0.0004382	9
	4	18	119484.4	41.36047	-20.99561	1	46.38431	-26.91348	1.759186E-005	0.0002188	9
	5	21	94921.88	43.8502	-24.43678	1	50.19956	-29.12999	1.738668E-005	-0.0005337	9
	6	23	75421.88	46.23857	-28.4117	1	54.26997	-31.56902	-1.202658E-005	0.0005239	9
	7	26	59859.37	48.77437	-32.82835	1	58.79319	-33.94314	1.854872E-005	-0.0004355	9
	8	28	47578.12	51.3319	-38.06363	1	63.90464	-36.55767	-1.253918E-005	0.0005606	9
	9	31	37828.12	53.7701	-44.30309	1	69.67056	-39.48632	-3.206765E-007	0.0003417	9
	10	34	30046.88	56.05927	-51.96122	1	76.43696	-42.82737	1.686836E-005	-0.0001247	9
	11	36	23859.38	58.23056	-61.82583	1	84.93074	-46.7153	-1.354796E-005	0.000593	9
	12	38	18984.38	60.33002	-74.0075	1	95.482	-50.8135	1.691776E-005	-0.0002252	9
	13	41	15046.87	62.43179	-89.82078	1	109.3869	-55.19797	1.811462E-005	-0.0002019	9
	14	43	11953.13	64.66888	-109.4976	1	127.1684	-59.43407	6.323392E-006	0.000232	9
	15	45	9515.62	67.0922	-134.6257	1	150.4175	-63.51012	1.593433E-005	-0.0001985	9
	16	48	7546.875	69.60181	-166.4122	1	180.3814	-67.30291	-1.421439E-005	0.0004959	9
	17	50	5928.309	73.45391	-207.8806	1	220.4763	-70.53931	1.65899E-005	-0.0001923	9
	18	52	4733.456	77.70593	-256.4125	1	267.9283	-73.14054	1.153555E-005	-0.0004155	9
	19	54	3796.875	82.49615	-315.3317	1	325.9443	-75.33904	1.292094E-005	2.194294E-005	9
	20	57	2987.132	88.40518	-396.0369	1	405.7841	-77.41647	1.157929E-005	1.374031E-005	9
	21	59	2390.625	97.3124	-486.4845	1	496.1219	-78.68832	-1.794548E-006	0.00151	8
	22	61	1884.191	106.9916	-609.6569	1	618.9739	-80.04625	-1.294723E-006	0.0008567	8
	23	64	1516.544	119.6799	-749.1862	1	758.6852	-80.92388	-2.276777E-006	0.0011711	8
	24	66	1193.986	135.8394	-941.1967	1	950.949	-81.78743	-7.810385E-007	0.0014031	8
	25	68	946.5144	155.3545	-1173.517	1	1183.756	-82.45882	8.011655E-007	0.0002082	8
	26	71	751.7689	184.3689	-1459.287	1	1470.888	-82.7993	2.076094E-006	0.0005295	8
	27	73	597.4265	223.3984	-1813.08	1	1826.791	-82.97572	3.185184E-006	-0.0002759	8
	28	75	477.4305	267.5909	-2243.889	1	2259.788	-83.19942	5.268731E-007	0.000658	8
	29	78	376.6741	331.075	-2807.042	1	2826.499	-83.27336	5.241913E-007	0.0006454	8
	30	80	298.2954	412.8478	-3497.925	1	3522.205	-83.26872	5.226931E-007	0.0006622	8
	31	82	237.7717	516.8656	-4328.576	1	4359.326	-83.19068	5.282625E-007	0.0006546	8
	32	85	189.0121	659.4604	-5377.519	1	5417.803	-83.00856	4.929752E-008	0.0006405	7
	33	87	150.2404	841.3044	-6660.623	1	6713.545	-82.80109	5.051078E-008	0.0006329	7
	34	90	119.1737	1083.182	-8259.24	1	8329.966	-82.52842	5.080053E-008	0.0006271	7
	35	92	95.0169	1392.83	-10177.39	1	10272.26	-82.20718	5.108857E-008	0.0006294	7
	36	94	75.60484	1801.852	-12555.81	1	12684.44	-81.83339	5.300782E-008	0.0006232	7
	37	97	54.50582	2598.458	-16892.04	1	17090.72	-81.25489	5.170796E-008	0.0006285	7
	38	99	45.95588	3168.595	-19737.51	1	19990.23	-80.87975	5.217496E-008	0.0006316	7
	39	102	37.20238	4007.333	-23855.29	1	24189.54	-80.4642	4.84295E-008	0.0006312	7
	40	104	30.04808	5106.699	-28880.79	1	29328.8	-79.97261	5.034743E-008	0.0006284	7
	41	107	23.91582	6543.042	-35270.34	1	35872.11	-79.49046	5.172599E-008	0.0006343	7
	42	109	18.60119	8673.337	-44022.61	1	44868.88	-78.85433	2.893407E-009	0.0006702	6
	43	111	15.02404	10859.53	-53001.42	1	54102.49	-78.42085	2.575339E-009	0.0006752	6
	44	113	12.01923	13784	-64296.68	1	65757.59	-77.90001	1.552867E-009	0.0006779	6
	45	116	9.450605	17770.49	-79174.43	1	81144.2	-77.34975	2.070381E-009	0.0006782	6
	46	119	7.512019	22565.95	-96300.7	1	98909.3	-76.81194	2.19864E-009	0.0006932	6
	47	122	5.978954	28651.95	-116922.5	1	120381.9	-76.23095	2.224945E-009	0.0006769	6
	48	126	4.734848	36685.34	-142551.2	1	147196	-75.56818	2.404412E-009	0.0006613	6
	49	129	3.75601	46858.79	-173227.8	1	179453.7	-74.86353	2.357503E-009	0.0006868	6
	50	135	3.004808	59465.8	-208696.6	1	217003.3	-74.09568	2.415567E-009	0.0006632	6
	51	141	2.372217	77101.73	-253710.1	1	265166.9	-73.09613	2.087875E-009	0.0006197	6
	52	145	1.878005	99481.7	-307357.4	1	323056	-72.0649	2.525869E-009	0.000672	6
	53	150	1.512097	125807.7	-365359.7	1	386413.3	-70.9994	2.257269E-009	0.0007168	6
	54	155	1.201923	163829.8	-438155.4	1	467782.4	-69.49883	-2.861652E-009	0.0006715	5
	55	161	0.956633	211640.2	-521190.6	1	562522.2	-67.89938	-3.536362E-009	2.008869E-005	5
