EXPLAIN
TAG	EISPOT
TITLE	LABEL	Potentiostatic EIS	Test Identifier
DATE	LABEL	2/26/2021	Date
TIME	LABEL	22:52:58	Time
NOTES	NOTES	1	Notes...
	
PSTAT	PSTAT	REF3000-16137	Potentiostat
VDC	POTEN	0.00000E+000	T	DC Voltage (V)
FREQINIT	QUANT	3.00000E+005	Initial Freq. (Hz)
FREQFINAL	QUANT	1.00000E+000	Final Freq. (Hz)
PTSPERDEC	QUANT	1.00000E+001	Points/decade
VAC	QUANT	5.00000E+001	AC Voltage (mV rms)
AREA	QUANT	1.00000E+000	Sample Area (cm^2)
SPEED	SELECTOR	2	Optimize for:
ZGUESS	QUANT	1.00000E+003	Estimated Z (ohms)
EOC	QUANT	0	Open Circuit (V)
SEQUENCER	TOGGLE	TRUE	Run as Sequence
PSTATMODEL	IQUANT	5	Pstat Model
PSTATSECTION	LABEL	REF3000-16137	Pstat Section
PSTATSERIALNO	LABEL	16137	Pstat Serial Number
CTRLMODE	IQUANT	1	Control Mode
IESTAB	IQUANT	0	I/E Stability
CASPEED	IQUANT	1	Control Amp Speed
CONVENTION	IQUANT	1	Current Convention
ICHRANGE	IQUANT	2	Ich Range
ICHRANGEMODE	TOGGLE	F	Ich Auto Range
ICHOFFSETENABLE	TOGGLE	T	Ich Offset Enable
ICHOFFSET	QUANT	0	Ich Offset (V)
ICHFILTER	IQUANT	3	Ich Filter
VCHRANGE	IQUANT	2	Vch Range
VCHRANGEMODE	TOGGLE	F	Vch Auto Range
VCHOFFSETENABLE	TOGGLE	T	Vch Offset Enable
VCHOFFSET	QUANT	0	Vch Offset (V)
VCHFILTER	IQUANT	3	Vch Filter
ACHRANGE	IQUANT	2	Ach Range
ACHOFFSETENABLE	TOGGLE	F	Ach Offset Enable
ACHOFFSET	QUANT	0	Ach Offset (V)
ACHFILTER	IQUANT	3	Ach Filter
IERANGELOWERLIMIT	IQUANT	2	I/E Range Lower Limit
IERANGEMODE	TOGGLE	F	I/E AutoRange
IERANGE	IQUANT	11	I/E Range
POSFEEDENABLE	TOGGLE	F	Positive Feedback IR Comp
POSFEEDRESISTANCE	QUANT	0	Positive Feedback Resistance (ohm)
ACHSELECT	IQUANT	0	Ach Select
CABLEID	IQUANT	13	Cable ID
DCCALDATE	LABEL	7/31/2020	DC Calibration Date
ACCALDATE	LABEL	7/31/2020	AC Calibration Date
THERMOSELECT	IQUANT	1	Thermo Select
FRAMEWORKVERSION	QUANT	6.33	Framework Version
INSTRUMENTVERSION	LABEL	3.50	Instrument Version
COMPLIANCEVOLTAGE	IQUANT	0	Compliance Voltage
ZCURVE	TABLE
	Pt	Time	Freq	Zreal	Zimag	Zsig	Zmod	Zphz	Idc	Vdc	IERange
	#	s	Hz	ohm	ohm	V	ohm	°	A	V	#
	0	7	300046.9	54.72032	-11.65272	1	55.94729	-12.0216	-6.14005E-005	0.002056	9
	1	10	238359.4	56.24987	-15.01854	1	58.22031	-14.94908	5.825009E-005	-0.0019301	9
	2	13	189328.1	58.01173	-18.52459	1	60.89762	-17.70958	2.878686E-005	-0.0001191	9
	3	16	150421.9	60.18563	-22.35135	1	64.20197	-20.37366	4.468052E-005	-0.0006237	9
	4	18	119484.4	62.8236	-26.72338	1	68.2711	-23.04353	-3.624635E-005	0.000422	9
	5	21	94921.88	65.89216	-31.2498	1	72.92686	-25.37296	5.24809E-006	0.0003194	9
	6	23	75421.88	69.29534	-36.5547	1	78.34596	-27.81255	-1.21789E-005	0.0002562	9
	7	26	59859.37	73.25565	-42.50395	1	84.69343	-30.12291	-4.427295E-006	-8.493782E-005	9
	8	28	47578.12	77.48656	-49.04406	1	91.70325	-32.3312	-1.359534E-005	0.000282	9
	9	31	37828.12	81.87535	-56.61295	1	99.5419	-34.66203	-1.68464E-005	0.0005736	9
	10	33	30046.88	86.36874	-65.10004	1	108.1553	-37.00699	-1.479286E-005	0.0004202	9
	11	36	23859.38	90.6268	-75.72919	1	118.1022	-39.88267	2.035866E-005	-0.0006012	9
	12	38	18984.38	94.55042	-88.71788	1	129.6559	-43.17717	2.03678E-005	-0.00034	9
	13	40	15046.87	98.1901	-105.1317	1	143.854	-46.95536	-9.519552E-007	0.0005171	9
	14	43	11953.13	101.7535	-125.8795	1	161.8624	-51.04997	-1.24154E-005	0.0007314	9
	15	45	9515.62	104.8319	-152.8557	1	185.3499	-55.55678	-1.643429E-005	0.000656	9
	16	47	7546.875	108.9061	-186.5598	1	216.0211	-59.72535	2.200063E-005	-0.0002855	9
	17	50	5928.309	113.0547	-231.6813	1	257.7937	-63.98877	2.119367E-005	-0.0004149	9
	18	52	4733.456	116.9291	-284.9176	1	307.978	-67.68694	2.070307E-005	-0.0005195	9
	19	54	3796.875	124.6512	-348.5291	1	370.1492	-70.32045	-4.308E-006	-8.8907E-005	9
	20	56	2987.132	128.3114	-435.507	1	454.0155	-73.58369	-2.392663E-006	0.0019879	8
	21	59	2390.625	136.3618	-537.4749	1	554.5032	-75.76396	-3.310249E-006	0.0017082	8
	22	61	1884.191	145.4834	-674.4876	1	689.9992	-77.82809	-1.368522E-006	0.0018217	8
	23	63	1516.544	156.5356	-829.1235	1	843.7708	-79.3086	6.164445E-007	-7.648746E-005	8
	24	66	1193.986	171.62	-1041.841	1	1055.882	-80.64581	4.753644E-006	-0.0007678	8
	25	68	946.5144	187.3145	-1303.699	1	1317.087	-81.82374	-2.200742E-006	0.0008168	8
	26	70	751.7689	212.1791	-1626.741	1	1640.52	-82.56875	3.244985E-006	-0.000672	8
	27	73	597.4265	243.6995	-2018.787	1	2033.443	-83.1168	-7.352979E-007	0.0003546	8
	28	75	477.4305	277.4451	-2505.789	1	2521.101	-83.68185	4.404131E-007	0.0006544	8
	29	77	376.6741	325.9883	-3145.34	1	3162.188	-84.08289	4.31604E-007	0.0006615	8
	30	80	298.2954	387.2611	-3932.3	1	3951.323	-84.37553	4.402005E-007	0.0006523	8
	31	82	237.7717	467.4756	-4895.655	1	4917.923	-84.54549	4.223727E-008	0.0006266	7
	32	85	189.0121	567.4112	-6097.844	1	6124.187	-84.68387	4.196516E-008	0.0006224	7
	33	87	150.2404	697.3825	-7593.567	1	7625.523	-84.75275	4.138744E-008	0.0006244	7
	34	89	119.1737	868.1459	-9475.509	1	9515.2	-84.76517	4.184031E-008	0.0006275	7
	35	92	95.0169	1087.176	-11756.65	1	11806.81	-84.7167	4.208163E-008	0.0006265	7
	36	94	75.60484	1375.888	-14607.46	1	14672.11	-84.61914	4.235977E-008	0.0006236	7
	37	97	54.50582	1966.359	-19940.89	1	20037.61	-84.36831	4.621558E-008	0.0005909	7
	38	99	45.95588	2368.978	-23424.34	1	23543.83	-84.22513	4.147613E-008	0.0006338	7
	39	102	37.20238	3016.474	-28586.92	1	28745.63	-83.97648	3.980906E-008	0.0006393	7
	40	104	30.04808	3828.223	-34937.08	1	35146.2	-83.74677	4.246118E-008	0.0006288	7
	41	106	23.91582	4993.649	-43312.15	1	43599.07	-83.42316	4.401212E-008	0.0006281	7
	42	109	18.60119	6715.878	-54522.36	1	54934.42	-82.97787	4.599209E-009	0.000671	6
	43	111	15.02404	8635.132	-66534.31	1	67092.33	-82.60522	3.911591E-009	0.0006831	6
	44	113	12.01923	11248.84	-81696.1	1	82466.9	-82.16017	3.649418E-009	0.0006803	6
	45	116	9.450605	14927.72	-101768.9	1	102857.9	-81.65522	3.495784E-009	0.0006764	6
	46	118	7.512019	19427.76	-125317.2	1	126814.2	-81.18767	3.81691E-009	0.000661	6
	47	122	5.978954	25403.21	-153903.9	1	155986.3	-80.62733	3.910281E-009	0.0006811	6
	48	126	4.734848	33032.14	-189857.6	1	192709.7	-80.13026	3.547421E-009	0.0006502	6
	49	129	3.75601	43306.52	-233314.3	1	237299.4	-79.48474	3.847641E-009	0.000687	6
	50	135	3.004808	55872.36	-284443	1	289878.5	-78.88703	3.728728E-009	0.0007061	6
	51	141	2.372217	73344.51	-350236.5	1	357833.8	-78.17237	3.507552E-009	0.0007163	6
	52	145	1.878005	97366.2	-429366.2	1	440267.5	-77.22327	-5.836064E-010	0.0006327	5
	53	150	1.512097	125857.1	-517464.7	1	532550.2	-76.33002	-5.356621E-010	0.0007423	5
	54	155	1.201923	164540.4	-631009	1	652108.8	-75.38513	-5.30036E-010	0.0006283	5
	55	161	0.956633	215760.3	-765483.1	1	795309.3	-74.2589	-7.950992E-010	1.370543E-005	5
