EXPLAIN
TAG	EISPOT
TITLE	LABEL	Potentiostatic EIS	Test Identifier
DATE	LABEL	2/26/2021	Date
TIME	LABEL	22:24:24	Time
NOTES	NOTES	1	Notes...
	
PSTAT	PSTAT	REF3000-16137	Potentiostat
VDC	POTEN	0.00000E+000	T	DC Voltage (V)
FREQINIT	QUANT	3.00000E+005	Initial Freq. (Hz)
FREQFINAL	QUANT	1.00000E+000	Final Freq. (Hz)
PTSPERDEC	QUANT	1.00000E+001	Points/decade
VAC	QUANT	5.00000E+001	AC Voltage (mV rms)
AREA	QUANT	1.00000E+000	Sample Area (cm^2)
SPEED	SELECTOR	2	Optimize for:
ZGUESS	QUANT	1.00000E+003	Estimated Z (ohms)
EOC	QUANT	0	Open Circuit (V)
SEQUENCER	TOGGLE	TRUE	Run as Sequence
PSTATMODEL	IQUANT	5	Pstat Model
PSTATSECTION	LABEL	REF3000-16137	Pstat Section
PSTATSERIALNO	LABEL	16137	Pstat Serial Number
CTRLMODE	IQUANT	1	Control Mode
IESTAB	IQUANT	0	I/E Stability
CASPEED	IQUANT	1	Control Amp Speed
CONVENTION	IQUANT	1	Current Convention
ICHRANGE	IQUANT	2	Ich Range
ICHRANGEMODE	TOGGLE	F	Ich Auto Range
ICHOFFSETENABLE	TOGGLE	T	Ich Offset Enable
ICHOFFSET	QUANT	0	Ich Offset (V)
ICHFILTER	IQUANT	3	Ich Filter
VCHRANGE	IQUANT	2	Vch Range
VCHRANGEMODE	TOGGLE	F	Vch Auto Range
VCHOFFSETENABLE	TOGGLE	T	Vch Offset Enable
VCHOFFSET	QUANT	0	Vch Offset (V)
VCHFILTER	IQUANT	3	Vch Filter
ACHRANGE	IQUANT	2	Ach Range
ACHOFFSETENABLE	TOGGLE	F	Ach Offset Enable
ACHOFFSET	QUANT	0	Ach Offset (V)
ACHFILTER	IQUANT	3	Ach Filter
IERANGELOWERLIMIT	IQUANT	2	I/E Range Lower Limit
IERANGEMODE	TOGGLE	F	I/E AutoRange
IERANGE	IQUANT	11	I/E Range
POSFEEDENABLE	TOGGLE	F	Positive Feedback IR Comp
POSFEEDRESISTANCE	QUANT	0	Positive Feedback Resistance (ohm)
ACHSELECT	IQUANT	0	Ach Select
CABLEID	IQUANT	13	Cable ID
DCCALDATE	LABEL	7/31/2020	DC Calibration Date
ACCALDATE	LABEL	7/31/2020	AC Calibration Date
THERMOSELECT	IQUANT	1	Thermo Select
FRAMEWORKVERSION	QUANT	6.33	Framework Version
INSTRUMENTVERSION	LABEL	3.50	Instrument Version
COMPLIANCEVOLTAGE	IQUANT	0	Compliance Voltage
ZCURVE	TABLE
	Pt	Time	Freq	Zreal	Zimag	Zsig	Zmod	Zphz	Idc	Vdc	IERange
	#	s	Hz	ohm	ohm	V	ohm	°	A	V	#
	0	7	300046.9	25.03816	-8.481828	1	26.43579	-18.71412	-1.437198E-005	-0.000137	11
	1	11	238359.4	26.34088	-10.27481	1	28.2739	-21.30931	4.561854E-006	0.0006759	10
	2	14	189328.1	27.63413	-12.51314	1	30.33519	-24.36171	2.528538E-006	0.0006601	10
	3	17	150421.9	29.16575	-14.83921	1	32.72374	-26.96648	1.642951E-005	0.0006242	10
	4	19	119484.4	30.81608	-17.41467	1	35.39635	-29.47149	3.139779E-005	0.0009115	10
	5	22	94921.88	32.7345	-19.95087	1	38.33517	-31.36127	-1.181079E-005	0.0004012	9
	6	24	75421.88	34.48806	-23.19303	1	41.56132	-33.92061	-1.019702E-005	0.0004639	9
	7	27	59859.37	36.21422	-26.923	1	45.12557	-36.62849	-1.034252E-005	0.0003171	9
	8	29	47578.12	37.85489	-31.53686	1	49.27034	-39.79764	4.80055E-007	-6.666891E-005	9
	9	32	37828.12	39.40393	-37.23744	1	54.21528	-43.3808	-7.608961E-006	0.0002242	9
	10	34	30046.88	40.83417	-44.55769	1	60.43854	-47.49681	9.892156E-007	-0.0000978	9
	11	37	23859.38	42.3779	-53.62794	1	68.35088	-51.68349	-3.399724E-006	0.0004735	9
	12	39	18984.38	43.8735	-65.20838	1	78.594	-56.06655	-1.259476E-005	0.0004417	9
	13	41	15046.87	45.81064	-79.71004	1	91.93642	-60.11333	-6.271678E-006	0.0005215	9
	14	44	11953.13	47.61582	-98.22	1	109.1533	-64.13647	-1.250148E-005	0.0004924	9
	15	46	9515.62	50.2887	-120.6307	1	130.6932	-67.36965	-7.005524E-006	0.0005204	9
	16	48	7546.875	52.69279	-149.7409	1	158.7415	-70.61338	-1.17599E-005	0.0005062	9
	17	51	5928.309	57.12101	-187.1973	1	195.7183	-73.03106	1.309644E-005	-0.0003513	9
	18	53	4733.456	61.2261	-231.1003	1	239.0732	-75.16135	8.203239E-007	0.0002996	9
	19	55	3796.875	68.03827	-283.7362	1	291.7798	-76.51542	-3.036127E-006	0.0004471	9
	20	58	2987.132	76.2056	-355.0204	1	363.1072	-77.88522	-8.388816E-006	0.0002036	9
	21	60	2390.625	85.04895	-436.4655	1	444.6746	-78.97361	-9.875729E-007	0.0008586	8
	22	62	1884.191	99.5037	-545.687	1	554.6849	-79.66589	2.356132E-006	3.575305E-005	8
	23	65	1516.544	114.9344	-667.8656	1	677.6831	-80.2355	9.93648E-007	0.0007988	8
	24	67	1193.986	138.7092	-834.2859	1	845.7383	-80.5603	-1.836718E-006	0.0013184	8
	25	69	946.5144	165.7606	-1035.981	1	1049.158	-80.90952	2.82312E-006	-3.712098E-005	8
	26	72	751.7689	206.5722	-1279.342	1	1295.912	-80.82776	-1.827794E-006	0.0012344	8
	27	74	597.4265	258.8329	-1582.701	1	1603.725	-80.71214	9.940325E-007	0.0007956	8
	28	76	477.4305	321.8343	-1938.85	1	1965.379	-80.57527	5.630252E-007	0.0006756	8
	29	79	376.6741	409.7994	-2403.298	1	2437.987	-80.32326	5.7522E-007	0.0006677	8
	30	81	298.2954	521.6949	-2965.455	1	3010.995	-80.02239	5.793474E-007	0.0006681	8
	31	83	237.7717	661.7488	-3631.038	1	3690.846	-79.67133	5.796518E-007	0.0006667	8
	32	86	189.0121	845.9843	-4459.244	1	4538.782	-79.2578	5.065227E-008	0.000639	7
	33	88	150.2404	1075.027	-5456.36	1	5561.254	-78.85419	4.97542E-008	0.000641	7
	34	91	119.1737	1366.612	-6680.652	1	6818.999	-78.43892	4.961686E-008	0.0006446	7
	35	93	95.0169	1725.666	-8128.521	1	8309.68	-78.01419	4.879266E-008	0.0006383	7
	36	95	75.60484	2175.736	-9895.07	1	10131.45	-77.5991	5.264913E-008	0.0006308	7
	37	98	54.50582	3023.755	-13087.16	1	13431.93	-76.99024	5.307327E-008	0.0006347	7
	38	101	45.95588	3574.101	-15125.98	1	15542.5	-76.70548	5.158355E-008	0.0006375	7
	39	103	37.20238	4391.952	-18077.77	1	18603.63	-76.34469	5.041592E-008	0.0006375	7
	40	105	30.04808	5424.928	-21675.06	1	22343.63	-75.94843	5.112102E-008	0.0006315	7
	41	108	23.91582	6712.628	-26203.16	1	27049.3	-75.63119	5.636418E-008	0.0006363	7
	42	110	18.60119	8615.165	-32359.02	1	33486.23	-75.09158	5.081189E-008	0.0006478	7
	43	112	15.02404	10483.73	-38676.82	1	40072.5	-74.83384	5.296197E-008	0.0006416	7
	44	115	12.01923	12997.51	-46542.63	1	48323.41	-74.39706	-2.046856E-009	0.0006865	6
	45	117	9.450605	16322.46	-56755.53	1	59056.02	-73.95517	-4.255404E-009	0.0006866	6
	46	120	7.512019	20364.18	-68558.12	1	71518.63	-73.45673	-3.343676E-009	0.0006761	6
	47	123	5.978954	25438.17	-82611.29	1	86439.14	-72.88504	-2.569549E-009	0.0006823	6
	48	127	4.734848	31997.53	-99927.2	1	104925.1	-72.2445	-3.047779E-009	0.0006259	6
	49	130	3.75601	40376.76	-120405.9	1	126995.6	-71.46171	-2.650636E-009	0.0007039	6
	50	136	3.004808	50630.74	-143792.3	1	152445.7	-70.60231	-2.224841E-009	0.0006325	6
	51	142	2.372217	64804.8	-173192.9	1	184920.1	-69.48531	-3.257842E-009	0.0006084	6
	52	146	1.878005	82358.43	-207116	1	222890	-68.31505	-2.619909E-009	0.0006767	6
	53	151	1.512097	103146.8	-243140.8	1	264114.9	-67.01205	-2.875142E-009	0.000635	6
	54	156	1.201923	131489.9	-288031.8	1	316625.8	-65.46275	-2.7519E-009	0.0007018	6
	55	163	0.956633	166870.3	-337897.5	1	376856	-63.71759	-3.550706E-009	2.725642E-005	6
