EXPLAIN
TAG	EISPOT
TITLE	LABEL	Potentiostatic EIS	Test Identifier
DATE	LABEL	2/26/2021	Date
TIME	LABEL	22:12:50	Time
NOTES	NOTES	1	Notes...
	
PSTAT	PSTAT	REF3000-16137	Potentiostat
VDC	POTEN	0.00000E+000	T	DC Voltage (V)
FREQINIT	QUANT	3.00000E+005	Initial Freq. (Hz)
FREQFINAL	QUANT	1.00000E+000	Final Freq. (Hz)
PTSPERDEC	QUANT	1.00000E+001	Points/decade
VAC	QUANT	5.00000E+001	AC Voltage (mV rms)
AREA	QUANT	1.00000E+000	Sample Area (cm^2)
SPEED	SELECTOR	2	Optimize for:
ZGUESS	QUANT	1.00000E+003	Estimated Z (ohms)
EOC	QUANT	0	Open Circuit (V)
SEQUENCER	TOGGLE	TRUE	Run as Sequence
PSTATMODEL	IQUANT	5	Pstat Model
PSTATSECTION	LABEL	REF3000-16137	Pstat Section
PSTATSERIALNO	LABEL	16137	Pstat Serial Number
CTRLMODE	IQUANT	1	Control Mode
IESTAB	IQUANT	0	I/E Stability
CASPEED	IQUANT	1	Control Amp Speed
CONVENTION	IQUANT	1	Current Convention
ICHRANGE	IQUANT	2	Ich Range
ICHRANGEMODE	TOGGLE	F	Ich Auto Range
ICHOFFSETENABLE	TOGGLE	T	Ich Offset Enable
ICHOFFSET	QUANT	0	Ich Offset (V)
ICHFILTER	IQUANT	3	Ich Filter
VCHRANGE	IQUANT	2	Vch Range
VCHRANGEMODE	TOGGLE	F	Vch Auto Range
VCHOFFSETENABLE	TOGGLE	T	Vch Offset Enable
VCHOFFSET	QUANT	0	Vch Offset (V)
VCHFILTER	IQUANT	3	Vch Filter
ACHRANGE	IQUANT	2	Ach Range
ACHOFFSETENABLE	TOGGLE	F	Ach Offset Enable
ACHOFFSET	QUANT	0	Ach Offset (V)
ACHFILTER	IQUANT	3	Ach Filter
IERANGELOWERLIMIT	IQUANT	2	I/E Range Lower Limit
IERANGEMODE	TOGGLE	F	I/E AutoRange
IERANGE	IQUANT	11	I/E Range
POSFEEDENABLE	TOGGLE	F	Positive Feedback IR Comp
POSFEEDRESISTANCE	QUANT	0	Positive Feedback Resistance (ohm)
ACHSELECT	IQUANT	0	Ach Select
CABLEID	IQUANT	13	Cable ID
DCCALDATE	LABEL	7/31/2020	DC Calibration Date
ACCALDATE	LABEL	7/31/2020	AC Calibration Date
THERMOSELECT	IQUANT	1	Thermo Select
FRAMEWORKVERSION	QUANT	6.33	Framework Version
INSTRUMENTVERSION	LABEL	3.50	Instrument Version
COMPLIANCEVOLTAGE	IQUANT	0	Compliance Voltage
ZCURVE	TABLE
	Pt	Time	Freq	Zreal	Zimag	Zsig	Zmod	Zphz	Idc	Vdc	IERange
	#	s	Hz	ohm	ohm	V	ohm	°	A	V	#
	0	10	300046.9	21.01013	-7.015654	1	22.1505	-18.46508	3.506607E-005	0.0007025	10
	1	13	238359.4	22.03827	-8.914799	1	23.77307	-22.02405	3.345822E-005	0.0003751	10
	2	16	189328.1	23.0581	-11.03947	1	25.56455	-25.58359	8.555363E-006	0.0006234	11
	3	20	150421.9	24.50506	-12.9066	1	27.69618	-27.77539	-1.944244E-005	0.0007261	10
	4	22	119484.4	25.84592	-15.11969	1	29.94356	-30.32735	-5.12387E-005	0.0007472	10
	5	25	94921.88	27.29463	-17.64919	1	32.5037	-32.88743	1.704585E-005	0.0006467	10
	6	27	75421.88	28.72266	-20.45279	1	35.26057	-35.45386	-1.129317E-005	0.0006642	10
	7	30	59859.37	30.15391	-23.76206	1	38.39133	-38.23903	-1.115409E-005	0.0003952	9
	8	32	47578.12	31.45423	-27.97838	1	42.09702	-41.65294	-3.757076E-006	0.0001023	9
	9	35	37828.12	32.70381	-33.33306	1	46.69724	-45.54594	1.109067E-006	-5.043887E-005	9
	10	37	30046.88	33.93189	-40.19775	1	52.60449	-49.83148	-4.409268E-006	0.0003901	9
	11	40	23859.38	35.26856	-48.7497	1	60.1698	-54.11569	-4.113962E-006	0.000361	9
	12	42	18984.38	36.76271	-59.34103	1	69.80583	-58.22113	1.275982E-005	-0.0003033	9
	13	45	15046.87	38.6597	-72.81924	1	82.44521	-62.03619	4.818593E-006	0.0001841	9
	14	47	11953.13	40.67815	-89.82349	1	98.6051	-65.63577	-7.242848E-006	0.000396	9
	15	49	9515.62	43.43339	-110.5287	1	118.7563	-68.54715	5.921373E-008	0.0002423	9
	16	51	7546.875	46.8398	-136.6642	1	144.4682	-71.08155	-1.101637E-005	0.0003685	9
	17	54	5928.309	51.80897	-170.6383	1	178.33	-73.11073	5.198952E-006	0.0001129	9
	18	56	4733.456	57.80809	-209.6581	1	217.4817	-74.58511	-1.096091E-005	0.0004066	9
	19	58	3796.875	65.73709	-256.5852	1	264.8723	-75.62992	-5.397296E-006	0.0004444	9
	20	61	2987.132	75.40375	-319.8895	1	328.6564	-76.73647	-1.02866E-005	0.0004433	9
	21	63	2390.625	86.13714	-393.2078	1	402.5319	-77.64381	9.880072E-007	-8.936775E-005	9
	22	65	1884.191	105.4072	-484.5798	1	495.9115	-77.72803	-4.511953E-007	0.0011027	8
	23	68	1516.544	126.0792	-589.2568	1	602.594	-77.92292	-4.99021E-007	0.0011027	8
	24	70	1193.986	156.1035	-729.9283	1	746.434	-77.92848	2.874101E-006	6.109725E-005	8
	25	72	946.5144	192.4203	-897.0525	1	917.4578	-77.89335	-3.166211E-007	0.0010901	8
	26	75	751.7689	240.6165	-1099.892	1	1125.903	-77.66016	2.679145E-006	5.676156E-005	8
	27	77	597.4265	298.0728	-1343.07	1	1375.749	-77.48694	1.508116E-006	0.0005639	8
	28	79	477.4305	370.3826	-1629.371	1	1670.938	-77.19337	5.880321E-007	0.0006622	8
	29	82	376.6741	465.8311	-1997.144	1	2050.752	-76.87058	5.945416E-007	0.000653	8
	30	84	298.2954	583.0821	-2437.194	1	2505.973	-76.54527	6.328977E-007	0.0006156	8
	31	86	237.7717	724.5812	-2953.579	1	3041.158	-76.21623	5.98446E-007	0.0006575	8
	32	89	189.0121	900.9034	-3584.278	1	3695.765	-75.89105	6.093846E-007	0.0006571	8
	33	91	150.2404	1121.849	-4353.34	1	4495.566	-75.54938	4.503883E-008	0.0006378	7
	34	94	119.1737	1391.733	-5283.383	1	5463.612	-75.24256	4.695166E-008	0.0006347	7
	35	96	95.0169	1715.217	-6376.878	1	6603.525	-74.94521	4.52629E-008	0.0006304	7
	36	99	75.60484	2113.343	-7706.133	1	7990.664	-74.66415	4.835355E-008	0.0006273	7
	37	101	54.50582	2848.882	-10098.54	1	10492.7	-74.2458	4.97342E-008	0.0006355	7
	38	104	45.95588	3324.222	-11625.83	1	12091.75	-74.04295	4.655993E-008	0.0006374	7
	39	106	37.20238	4009.065	-13810.47	1	14380.6	-73.81243	4.642164E-008	0.0006248	7
	40	108	30.04808	4865.891	-16468.58	1	17172.39	-73.53943	4.601668E-008	0.0006273	7
	41	111	23.91582	5978.533	-19833.58	1	20715.06	-73.22536	5.162495E-008	0.0006298	7
	42	113	18.60119	7488.899	-24354.28	1	25479.69	-72.90743	4.803105E-008	0.0006361	7
	43	115	15.02404	9054.319	-28961.22	1	30343.58	-72.63888	4.652032E-008	0.0006291	7
	44	118	12.01923	11093.56	-34663.67	1	36395.56	-72.25355	4.712139E-008	0.0006408	7
	45	120	9.450605	13782.93	-42075.13	1	44275.12	-71.86229	-1.055522E-008	0.0006917	6
	46	123	7.512019	17030.85	-50556.54	1	53348.05	-71.383	-1.021329E-008	0.0006942	6
	47	126	5.978954	21053.55	-60571	1	64125.64	-70.83333	-1.034725E-008	0.000678	6
	48	130	4.734848	26220.95	-72893.36	1	77465.99	-70.2155	-8.515431E-009	0.0007045	6
	49	133	3.75601	32784.38	-87261.44	1	93216.81	-69.40865	-1.017724E-008	0.0006681	6
	50	139	3.004808	40706.11	-103636.7	1	111344.3	-68.55624	-9.690056E-009	0.000696	6
	51	145	2.372217	51544.16	-124033.4	1	134317.1	-67.43385	-1.00481E-008	0.0007463	6
	52	149	1.878005	64806.95	-147415.6	1	161032	-66.26871	-1.046326E-008	0.0006589	6
	53	154	1.512097	80438.97	-172058.8	1	189933.3	-64.94351	-1.004855E-008	0.0007449	6
	54	159	1.201923	101181.1	-202443.3	1	226320.3	-63.44413	-9.941316E-009	0.0006496	6
	55	166	0.956633	126929	-235959.8	1	267932.8	-61.72302	-1.098201E-008	4.243007E-005	6
