EXPLAIN
TAG	EISPOT
TITLE	LABEL	Potentiostatic EIS	Test Identifier
DATE	LABEL	2/26/2021	Date
TIME	LABEL	22:09:57	Time
NOTES	NOTES	1	Notes...
	
PSTAT	PSTAT	REF3000-16137	Potentiostat
VDC	POTEN	0.00000E+000	T	DC Voltage (V)
FREQINIT	QUANT	3.00000E+005	Initial Freq. (Hz)
FREQFINAL	QUANT	1.00000E+000	Final Freq. (Hz)
PTSPERDEC	QUANT	1.00000E+001	Points/decade
VAC	QUANT	5.00000E+001	AC Voltage (mV rms)
AREA	QUANT	1.00000E+000	Sample Area (cm^2)
SPEED	SELECTOR	2	Optimize for:
ZGUESS	QUANT	1.00000E+003	Estimated Z (ohms)
EOC	QUANT	0	Open Circuit (V)
SEQUENCER	TOGGLE	TRUE	Run as Sequence
PSTATMODEL	IQUANT	5	Pstat Model
PSTATSECTION	LABEL	REF3000-16137	Pstat Section
PSTATSERIALNO	LABEL	16137	Pstat Serial Number
CTRLMODE	IQUANT	1	Control Mode
IESTAB	IQUANT	0	I/E Stability
CASPEED	IQUANT	1	Control Amp Speed
CONVENTION	IQUANT	1	Current Convention
ICHRANGE	IQUANT	2	Ich Range
ICHRANGEMODE	TOGGLE	F	Ich Auto Range
ICHOFFSETENABLE	TOGGLE	T	Ich Offset Enable
ICHOFFSET	QUANT	0	Ich Offset (V)
ICHFILTER	IQUANT	3	Ich Filter
VCHRANGE	IQUANT	2	Vch Range
VCHRANGEMODE	TOGGLE	F	Vch Auto Range
VCHOFFSETENABLE	TOGGLE	T	Vch Offset Enable
VCHOFFSET	QUANT	0	Vch Offset (V)
VCHFILTER	IQUANT	3	Vch Filter
ACHRANGE	IQUANT	2	Ach Range
ACHOFFSETENABLE	TOGGLE	F	Ach Offset Enable
ACHOFFSET	QUANT	0	Ach Offset (V)
ACHFILTER	IQUANT	3	Ach Filter
IERANGELOWERLIMIT	IQUANT	2	I/E Range Lower Limit
IERANGEMODE	TOGGLE	F	I/E AutoRange
IERANGE	IQUANT	11	I/E Range
POSFEEDENABLE	TOGGLE	F	Positive Feedback IR Comp
POSFEEDRESISTANCE	QUANT	0	Positive Feedback Resistance (ohm)
ACHSELECT	IQUANT	0	Ach Select
CABLEID	IQUANT	13	Cable ID
DCCALDATE	LABEL	7/31/2020	DC Calibration Date
ACCALDATE	LABEL	7/31/2020	AC Calibration Date
THERMOSELECT	IQUANT	1	Thermo Select
FRAMEWORKVERSION	QUANT	6.33	Framework Version
INSTRUMENTVERSION	LABEL	3.50	Instrument Version
COMPLIANCEVOLTAGE	IQUANT	0	Compliance Voltage
ZCURVE	TABLE
	Pt	Time	Freq	Zreal	Zimag	Zsig	Zmod	Zphz	Idc	Vdc	IERange
	#	s	Hz	ohm	ohm	V	ohm	°	A	V	#
	0	8	300046.9	20.23468	-6.775437	1	21.3389	-18.51275	4.068448E-005	0.0003673	10
	1	11	238359.4	21.20262	-8.588634	1	22.8761	-22.0516	-1.475293E-005	0.0005427	10
	2	14	189328.1	22.32801	-10.51596	1	24.68047	-25.21931	6.637913E-005	0.0004152	10
	3	17	150421.9	23.58663	-12.50168	1	26.69496	-27.92504	3.019904E-005	0.0005954	10
	4	21	119484.4	24.93003	-14.61566	1	28.89851	-30.38171	-9.002312E-005	0.0006717	10
	5	23	94921.88	26.25382	-17.01647	1	31.28616	-32.94938	5.991767E-006	0.0006254	10
	6	26	75421.88	27.6032	-19.87861	1	34.01611	-35.75977	1.625365E-005	0.000637	10
	7	28	59859.37	28.88538	-23.20933	1	37.05453	-38.7818	2.792532E-005	0.0006769	10
	8	31	47578.12	30.23128	-27.17357	1	40.64891	-41.95098	-6.315388E-006	0.0001771	9
	9	33	37828.12	31.38539	-32.48273	1	45.16824	-45.98432	5.078187E-006	-0.0001639	9
	10	36	30046.88	32.6164	-39.13816	1	50.94727	-50.19333	-7.830468E-006	0.000207	9
	11	38	23859.38	34.05552	-47.46735	1	58.42027	-54.3424	1.331072E-005	-0.0002881	9
	12	41	18984.38	35.5363	-57.9367	1	67.96684	-58.47654	4.709072E-006	9.066865E-005	9
	13	43	15046.87	37.54821	-70.94877	1	80.27201	-62.11087	-9.590157E-006	0.0003909	9
	14	45	11953.13	39.55155	-87.58005	1	96.0968	-65.69585	-7.246754E-006	0.0004018	9
	15	48	9515.62	42.34555	-107.7101	1	115.7351	-68.53805	-7.869596E-006	0.0001752	9
	16	50	7546.875	46.43153	-132.8383	1	140.7192	-70.73373	-5.351441E-006	0.000451	9
	17	52	5928.309	51.33172	-165.9449	1	173.7027	-72.81159	1.504182E-005	-0.0002232	9
	18	55	4733.456	57.33216	-203.8857	1	211.7931	-74.29414	5.369565E-006	0.0000984	9
	19	57	3796.875	67.01493	-248.293	1	257.1777	-74.89562	-9.880682E-006	0.0003214	9
	20	59	2987.132	76.96529	-309.4891	1	318.9156	-76.03469	-3.90822E-006	7.605964E-005	9
	21	62	2390.625	92.34502	-377.9595	1	389.0771	-76.27018	-7.977741E-006	0.0004737	9
	22	64	1884.191	107.9647	-466.9953	1	479.3131	-76.98249	-4.441487E-007	0.0010759	8
	23	66	1516.544	130.0508	-566.7137	1	581.4444	-77.07541	1.005639E-006	0.0004314	8
	24	69	1193.986	160.2171	-699.5563	1	717.6689	-77.1002	1.662198E-006	0.000264	8
	25	71	946.5144	196.2488	-858.4823	1	880.6279	-77.12346	-1.715665E-006	0.0011502	8
	26	73	751.7689	244.9086	-1047.039	1	1075.3	-76.83487	-1.270199E-006	0.0009673	8
	27	76	597.4265	303.7256	-1278.49	1	1314.073	-76.63622	2.205139E-006	0.000347	8
	28	78	477.4305	375.1382	-1545.921	1	1590.786	-76.36007	6.322388E-007	0.0006261	8
	29	80	376.6741	469.1762	-1890.105	1	1947.466	-76.05938	5.895336E-007	0.0006648	8
	30	83	298.2954	584.1194	-2301.372	1	2374.344	-75.75829	6.055648E-007	0.0006765	8
	31	85	237.7717	721.9806	-2783.77	1	2875.871	-75.46049	5.920057E-007	0.0006693	8
	32	87	189.0121	892.405	-3372.09	1	3488.177	-75.17681	5.961455E-007	0.0006623	8
	33	90	150.2404	1101.881	-4080.326	1	4226.488	-74.88789	5.955739E-007	0.0006652	8
	34	92	119.1737	1364.581	-4953.662	1	5138.175	-74.59876	4.491173E-008	0.0006495	7
	35	95	95.0169	1675.215	-5970.788	1	6201.343	-74.32755	4.299996E-008	0.0006473	7
	36	97	75.60484	2055.892	-7206.567	1	7494.084	-74.07759	4.597922E-008	0.0006333	7
	37	100	54.50582	2758.085	-9422.997	1	9818.35	-73.68539	4.862375E-008	0.0006361	7
	38	102	45.95588	3202.54	-10835.15	1	11298.53	-73.53393	4.596772E-008	0.0006421	7
	39	104	37.20238	3858.532	-12864.9	1	13431.08	-73.3046	4.400552E-008	0.0006448	7
	40	107	30.04808	4666.902	-15315.94	1	16011.18	-73.05355	4.372298E-008	0.0006419	7
	41	109	23.91582	5688.989	-18414.07	1	19272.85	-72.83157	4.994364E-008	0.0006398	7
	42	112	18.60119	7131.548	-22586.98	1	23686.09	-72.47717	4.710134E-008	0.0006349	7
	43	114	15.02404	8630.825	-26857.79	1	28210.5	-72.18505	4.620654E-008	0.0006327	7
	44	116	12.01923	10499.16	-32115.57	1	33788.2	-71.89649	4.935492E-008	0.0006414	7
	45	119	9.450605	13049.74	-38917.48	1	41047.12	-71.46277	4.428265E-008	0.0006466	7
	46	121	7.512019	16071.56	-46759.85	1	49444.7	-71.03194	-1.17231E-008	0.0006928	6
	47	124	5.978954	19793.33	-55970.49	1	59367.27	-70.52443	-1.161176E-008	0.0006867	6
	48	128	4.734848	24563.86	-67318.84	1	71660.37	-69.95357	-1.19841E-008	0.0006544	6
	49	132	3.75601	30558.42	-80561.13	1	86162.13	-69.22728	-1.007947E-008	0.0006983	6
	50	137	3.004808	37824.78	-95659	1	102865.8	-68.42554	-1.093829E-008	0.00071	6
	51	144	2.372217	47623.39	-114334.2	1	123856	-67.38691	-1.095033E-008	0.0006667	6
	52	148	1.878005	60001.04	-136067.9	1	148709.8	-66.20425	-1.015896E-008	0.0006661	6
	53	152	1.512097	74149.71	-159244	1	175661.1	-65.03162	-1.076172E-008	0.000774	6
	54	158	1.201923	93299.15	-187124.3	1	209093.9	-63.49941	-1.020904E-008	0.0006814	6
	55	164	0.956633	116795.1	-218103.6	1	247407.1	-61.83081	-1.216049E-008	4.452418E-005	6
