EXPLAIN
TAG	EISPOT
TITLE	LABEL	Potentiostatic EIS	Test Identifier
DATE	LABEL	2/26/2021	Date
TIME	LABEL	23:01:32	Time
NOTES	NOTES	1	Notes...
	
PSTAT	PSTAT	REF3000-16137	Potentiostat
VDC	POTEN	0.00000E+000	T	DC Voltage (V)
FREQINIT	QUANT	3.00000E+005	Initial Freq. (Hz)
FREQFINAL	QUANT	1.00000E+000	Final Freq. (Hz)
PTSPERDEC	QUANT	1.00000E+001	Points/decade
VAC	QUANT	5.00000E+001	AC Voltage (mV rms)
AREA	QUANT	1.00000E+000	Sample Area (cm^2)
SPEED	SELECTOR	2	Optimize for:
ZGUESS	QUANT	1.00000E+003	Estimated Z (ohms)
EOC	QUANT	0	Open Circuit (V)
SEQUENCER	TOGGLE	TRUE	Run as Sequence
PSTATMODEL	IQUANT	5	Pstat Model
PSTATSECTION	LABEL	REF3000-16137	Pstat Section
PSTATSERIALNO	LABEL	16137	Pstat Serial Number
CTRLMODE	IQUANT	1	Control Mode
IESTAB	IQUANT	0	I/E Stability
CASPEED	IQUANT	1	Control Amp Speed
CONVENTION	IQUANT	1	Current Convention
ICHRANGE	IQUANT	2	Ich Range
ICHRANGEMODE	TOGGLE	F	Ich Auto Range
ICHOFFSETENABLE	TOGGLE	T	Ich Offset Enable
ICHOFFSET	QUANT	0	Ich Offset (V)
ICHFILTER	IQUANT	3	Ich Filter
VCHRANGE	IQUANT	2	Vch Range
VCHRANGEMODE	TOGGLE	F	Vch Auto Range
VCHOFFSETENABLE	TOGGLE	T	Vch Offset Enable
VCHOFFSET	QUANT	0	Vch Offset (V)
VCHFILTER	IQUANT	3	Vch Filter
ACHRANGE	IQUANT	2	Ach Range
ACHOFFSETENABLE	TOGGLE	F	Ach Offset Enable
ACHOFFSET	QUANT	0	Ach Offset (V)
ACHFILTER	IQUANT	3	Ach Filter
IERANGELOWERLIMIT	IQUANT	2	I/E Range Lower Limit
IERANGEMODE	TOGGLE	F	I/E AutoRange
IERANGE	IQUANT	11	I/E Range
POSFEEDENABLE	TOGGLE	F	Positive Feedback IR Comp
POSFEEDRESISTANCE	QUANT	0	Positive Feedback Resistance (ohm)
ACHSELECT	IQUANT	0	Ach Select
CABLEID	IQUANT	13	Cable ID
DCCALDATE	LABEL	7/31/2020	DC Calibration Date
ACCALDATE	LABEL	7/31/2020	AC Calibration Date
THERMOSELECT	IQUANT	1	Thermo Select
FRAMEWORKVERSION	QUANT	6.33	Framework Version
INSTRUMENTVERSION	LABEL	3.50	Instrument Version
COMPLIANCEVOLTAGE	IQUANT	0	Compliance Voltage
ZCURVE	TABLE
	Pt	Time	Freq	Zreal	Zimag	Zsig	Zmod	Zphz	Idc	Vdc	IERange
	#	s	Hz	ohm	ohm	V	ohm	°	A	V	#
	0	6	300046.9	79.92931	-13.78428	1	81.10918	-9.78475	-6.813397E-005	0.0017277	9
	1	9	238359.4	81.55546	-17.5558	1	83.42361	-12.14823	1.205087E-005	-0.0014509	9
	2	13	189328.1	83.59673	-21.70496	1	86.36851	-14.55483	-8.44811E-006	0.0008071	9
	3	15	150421.9	86.00146	-26.10792	1	89.87699	-16.887	9.409003E-006	-0.000737	9
	4	18	119484.4	88.90354	-31.35103	1	94.26944	-19.42474	3.113929E-006	0.0010489	9
	5	20	94921.88	92.39635	-37.10462	1	99.5683	-21.87946	-1.014207E-005	-6.26983E-007	9
	6	23	75421.88	96.5458	-43.69623	1	105.9738	-24.35132	-1.004672E-005	6.271985E-005	9
	7	25	59859.37	101.3237	-51.2477	1	113.5466	-26.82946	4.12076E-006	0.0004403	9
	8	28	47578.12	106.9658	-59.4449	1	122.3739	-29.06257	-1.499347E-005	0.000266	9
	9	30	37828.12	113.1276	-68.76875	1	132.3895	-31.29486	-1.504854E-005	0.0002208	9
	10	33	30046.88	119.8896	-78.88969	1	143.5169	-33.34569	-1.802572E-005	0.0007781	9
	11	35	23859.38	126.8323	-90.79733	1	155.9827	-35.5983	1.661084E-005	-0.0006442	9
	12	38	18984.38	133.5221	-105.0125	1	169.8699	-38.18434	3.638221E-006	0.0003796	9
	13	40	15046.87	140.0512	-121.8887	1	185.6642	-41.03355	-5.133962E-007	0.0005739	9
	14	42	11953.13	145.9248	-143.2343	1	204.4752	-44.46689	-1.443672E-005	0.0002349	9
	15	44	9515.62	151.5926	-170.0138	1	227.7828	-48.27826	-1.420861E-005	0.0002378	9
	16	47	7546.875	156.3933	-205.5736	1	258.3009	-52.73738	-1.447774E-006	-0.0002417	9
	17	49	5928.309	161.9627	-251.808	1	299.3981	-57.2509	-1.530279E-005	0.0007968	9
	18	51	4733.456	167.729	-306.145	1	349.0813	-61.28279	2.244611E-005	-0.000295	9
	19	54	3796.875	173.2603	-375.5393	1	413.5806	-65.2331	1.93291E-005	-0.0001823	9
	20	56	2987.132	180.2913	-464.8015	1	498.5432	-68.79929	-4.535086E-006	0.001423	8
	21	58	2390.625	189.2554	-571.7917	1	602.2984	-71.68615	2.488747E-006	-0.0009397	8
	22	61	1884.191	197.9505	-717.0027	1	743.8261	-74.56621	6.122736E-006	-0.0007064	8
	23	63	1516.544	209.1683	-880.4394	1	904.9447	-76.63584	-4.519752E-006	0.0014563	8
	24	65	1193.986	223.1212	-1106.444	1	1128.717	-78.59886	-4.502872E-007	0.0019961	8
	25	68	946.5144	238.9531	-1381.026	1	1401.546	-80.18354	5.157643E-006	-3.46911E-005	8
	26	70	751.7689	263.5619	-1723.417	1	1743.453	-81.30513	-2.130331E-006	0.0023315	8
	27	73	597.4265	289.4804	-2142.554	1	2162.021	-82.30537	-5.089253E-006	0.002119	8
	28	75	477.4305	324.7141	-2662.521	1	2682.248	-83.04669	3.353609E-007	0.0006548	8
	29	77	376.6741	369.3364	-3344.142	1	3364.476	-83.69764	3.435581E-007	0.0006566	8
	30	80	298.2954	424.8337	-4184.753	1	4206.262	-84.20322	3.331067E-007	0.0006484	8
	31	82	237.7717	497.8447	-5214.98	1	5238.689	-84.54682	3.241824E-008	0.000623	7
	32	84	189.0121	585.8243	-6503.538	1	6529.869	-84.85281	3.284671E-008	0.0006185	7
	33	87	150.2404	698.2266	-8109.656	1	8139.658	-85.07907	3.237861E-008	0.0006253	7
	34	89	119.1737	846.3528	-10133.94	1	10169.22	-85.22593	3.242494E-008	0.0006232	7
	35	92	95.0169	1030.372	-12596.79	1	12638.86	-85.32382	3.044837E-008	0.0006329	7
	36	94	75.60484	1269.335	-15684.23	1	15735.51	-85.3731	3.059837E-008	0.0006277	7
	37	97	54.50582	1765.024	-21450.22	1	21522.71	-85.29604	3.253342E-008	0.0006238	7
	38	99	45.95588	2075.632	-25272.91	1	25358.01	-85.30491	3.533761E-008	0.0005856	7
	39	102	37.20238	2603.975	-30952.24	1	31061.58	-85.1911	2.942886E-008	0.000635	7
	40	104	30.04808	3287.142	-37960.24	1	38102.3	-85.05086	3.053405E-008	0.0006267	7
	41	106	23.91582	4227.675	-47043.76	1	47233.34	-84.8648	1.50238E-009	0.0006698	6
	42	109	18.60119	5551.043	-59829.03	1	60086	-84.69917	2.302887E-009	0.0006764	6
	43	111	15.02404	7162.649	-73200.39	1	73549.98	-84.41141	3.020631E-009	0.000659	6
	44	113	12.01923	9277.345	-90349.7	1	90824.76	-84.13727	2.818446E-009	0.0006665	6
	45	116	9.450605	12304.36	-113192	1	113858.8	-83.79611	3.295815E-009	0.0006574	6
	46	118	7.512019	16143.66	-140268.8	1	141194.7	-83.43466	3.183647E-009	0.0006798	6
	47	123	5.978954	21127.28	-173423.5	1	174705.7	-83.05418	3.321975E-009	0.000669	6
	48	127	4.734848	27913.8	-215264.6	1	217066.8	-82.61156	3.308054E-009	0.0006441	6
	49	130	3.75601	36535.15	-266466.5	1	268959.5	-82.19287	3.129724E-009	0.0006541	6
	50	136	3.004808	47277.93	-326892.1	1	330293.3	-81.77046	3.275131E-009	0.0006645	6
	51	142	2.372217	62717.23	-405246.1	1	410070.5	-81.20251	2.959796E-009	0.000668	6
	52	146	1.878005	83623.43	-501876.1	1	508795.1	-80.54018	-1.950504E-010	0.0006579	5
	53	151	1.512097	107643.5	-610534.1	1	619950.8	-80.00092	-9.041236E-011	0.0005573	5
	54	157	1.201923	142280.1	-750817.6	1	764179.8	-79.26968	-1.672137E-010	0.0006748	5
	55	163	0.956633	186977	-920179	1	938983.4	-78.51408	-1.966083E-010	1.176225E-005	5
