May 16, 2026   18:45:34
A.C. Impedance
File: e:\chi_data\bo-r0.20-n1.10-746i-2_t-30.0_f0.1_1000000_v0.txt
Data Source:  Experiment
Instrument Model:  CHI660E
Header: 
Note: 

Init E (V) = 0
High Frequency (Hz) = 1e+6
Low Frequency (Hz) = 0.1
Imp SF
Amplitude (V) = 0.005
Quiet Time (sec) = 2
Cycles (.1-1Hz) = 1

Freq/Hz, Z'/ohm, Z"/ohm, Z/ohm, Phase/deg

8.252e+5, 4.971e+0, 1.173e+1, 1.274e+1, 67.0
6.816e+5, 4.406e+0, 9.540e+0, 1.051e+1, 65.2
5.625e+5, 3.918e+0, 7.910e+0, 8.827e+0, 63.6
4.639e+5, 3.677e+0, 6.436e+0, 7.413e+0, 60.3
3.828e+5, 3.523e+0, 5.301e+0, 6.365e+0, 56.4
3.164e+5, 3.431e+0, 4.312e+0, 5.510e+0, 51.5
2.607e+5, 3.352e+0, 3.504e+0, 4.849e+0, 46.3
2.158e+5, 3.292e+0, 2.793e+0, 4.317e+0, 40.3
1.777e+5, 3.255e+0, 2.170e+0, 3.912e+0, 33.7
1.465e+5, 3.239e+0, 1.627e+0, 3.625e+0, 26.7
1.211e+5, 3.231e+0, 1.165e+0, 3.435e+0, 19.8
9.961e+4, 3.238e+0, 7.507e-1, 3.324e+0, 13.1
8.252e+4, 3.257e+0, 3.727e-1, 3.278e+0, 6.5
6.812e+4, 3.288e+0, 1.368e-2, 3.288e+0, 0.2
5.625e+4, 3.328e+0, -3.371e-1, 3.345e+0, -5.8
4.644e+4, 3.377e+0, -6.935e-1, 3.448e+0, -11.6
3.833e+4, 3.440e+0, -1.060e+0, 3.599e+0, -17.1
3.164e+4, 3.513e+0, -1.446e+0, 3.799e+0, -22.4
2.612e+4, 3.596e+0, -1.861e+0, 4.049e+0, -27.4
2.153e+4, 3.692e+0, -2.320e+0, 4.360e+0, -32.2
1.777e+4, 3.804e+0, -2.835e+0, 4.744e+0, -36.7
1.470e+4, 3.931e+0, -3.423e+0, 5.213e+0, -41.1
1.211e+4, 4.070e+0, -4.106e+0, 5.781e+0, -45.3
1.001e+4, 4.229e+0, -4.903e+0, 6.475e+0, -49.2
8.252e+3, 4.417e+0, -5.839e+0, 7.322e+0, -52.9
6.812e+3, 4.638e+0, -6.942e+0, 8.348e+0, -56.3
5.625e+3, 4.893e+0, -8.245e+0, 9.587e+0, -59.3
4.643e+3, 5.195e+0, -9.779e+0, 1.107e+1, -62.0
3.833e+3, 5.556e+0, -1.159e+1, 1.285e+1, -64.4
3.164e+3, 5.986e+0, -1.373e+1, 1.498e+1, -66.4
2.612e+3, 6.497e+0, -1.628e+1, 1.753e+1, -68.2
2.153e+3, 7.110e+0, -1.928e+1, 2.055e+1, -69.8
1.777e+3, 7.861e+0, -2.281e+1, 2.413e+1, -71.0
1.470e+3, 8.799e+0, -2.701e+1, 2.840e+1, -72.0
1.211e+3, 9.958e+0, -3.197e+1, 3.349e+1, -72.7
1.001e+3, 1.141e+1, -3.784e+1, 3.952e+1, -73.2
8.252e+2, 1.318e+1, -4.471e+1, 4.661e+1, -73.6
6.836e+2, 1.534e+1, -5.281e+1, 5.499e+1, -73.8
5.615e+2, 1.798e+1, -6.236e+1, 6.490e+1, -73.9
4.639e+2, 2.125e+1, -7.363e+1, 7.664e+1, -73.9
3.809e+2, 2.523e+1, -8.664e+1, 9.024e+1, -73.8
3.174e+2, 3.017e+1, -1.018e+2, 1.062e+2, -73.5
2.588e+2, 3.624e+1, -1.195e+2, 1.248e+2, -73.1
2.148e+2, 4.363e+1, -1.399e+2, 1.466e+2, -72.7
1.758e+2, 5.244e+1, -1.633e+2, 1.715e+2, -72.2
1.465e+2, 6.267e+1, -1.891e+2, 1.992e+2, -71.7
1.221e+2, 7.574e+1, -2.202e+2, 2.329e+2, -71.0
9.766e+1, 9.189e+1, -2.556e+2, 2.717e+2, -70.2
8.254e+1, 1.103e+2, -2.946e+2, 3.146e+2, -69.5
6.813e+1, 1.312e+2, -3.397e+2, 3.642e+2, -68.9
5.623e+1, 1.546e+2, -3.915e+2, 4.210e+2, -68.5
4.642e+1, 1.814e+2, -4.513e+2, 4.864e+2, -68.1
3.831e+1, 2.125e+2, -5.201e+2, 5.618e+2, -67.8
3.162e+1, 2.487e+2, -5.992e+2, 6.488e+2, -67.5
2.610e+1, 2.912e+2, -6.900e+2, 7.490e+2, -67.1
2.154e+1, 3.409e+2, -7.943e+2, 8.643e+2, -66.8
1.778e+1, 3.984e+2, -9.141e+2, 9.971e+2, -66.5
1.468e+1, 4.648e+2, -1.053e+3, 1.151e+3, -66.2
1.212e+1, 5.429e+2, -1.214e+3, 1.330e+3, -65.9
1.000e+1, 6.359e+2, -1.399e+3, 1.537e+3, -65.6
8.254e+0, 7.468e+2, -1.609e+3, 1.774e+3, -65.1
6.813e+0, 8.783e+2, -1.847e+3, 2.046e+3, -64.6
5.623e+0, 1.032e+3, -2.121e+3, 2.359e+3, -64.1
4.642e+0, 1.214e+3, -2.432e+3, 2.718e+3, -63.5
3.831e+0, 1.427e+3, -2.783e+3, 3.128e+3, -62.9
3.162e+0, 1.675e+3, -3.187e+3, 3.601e+3, -62.3
2.610e+0, 1.968e+3, -3.639e+3, 4.137e+3, -61.6
2.154e+0, 2.315e+3, -4.163e+3, 4.763e+3, -60.9
1.778e+0, 2.718e+3, -4.754e+3, 5.476e+3, -60.2
1.468e+0, 3.182e+3, -5.374e+3, 6.246e+3, -59.4
1.212e+0, 3.709e+3, -6.020e+3, 7.071e+3, -58.4
1.000e+0, 4.291e+3, -6.688e+3, 7.946e+3, -57.3
8.254e-1, 4.912e+3, -7.379e+3, 8.864e+3, -56.4
6.813e-1, 5.562e+3, -8.129e+3, 9.850e+3, -55.6
5.623e-1, 6.242e+3, -8.990e+3, 1.094e+4, -55.2
4.642e-1, 6.936e+3, -9.941e+3, 1.212e+4, -55.1
3.831e-1, 7.601e+3, -1.098e+4, 1.335e+4, -55.3
3.162e-1, 8.253e+3, -1.218e+4, 1.471e+4, -55.9
2.610e-1, 8.869e+3, -1.360e+4, 1.623e+4, -56.9
2.154e-1, 9.441e+3, -1.527e+4, 1.795e+4, -58.3
1.778e-1, 9.991e+3, -1.728e+4, 1.996e+4, -60.0
1.468e-1, 1.060e+4, -1.979e+4, 2.245e+4, -61.8
1.212e-1, 1.126e+4, -2.278e+4, 2.542e+4, -63.7
1.000e-1, 1.195e+4, -2.618e+4, 2.878e+4, -65.5
