EXPLAIN
TAG	EISPOT
TITLE	LABEL	Potentiostatic EIS	Test Identifier
DATE	LABEL	8/30/2020	Date
TIME	LABEL	11:06:03	Time
NOTES	NOTES	1	Notes...
	
PSTAT	PSTAT	REF3000-16137	Potentiostat
VDC	POTEN	0.00000E+000	T	DC Voltage (V)
FREQINIT	QUANT	3.00000E+005	Initial Freq. (Hz)
FREQFINAL	QUANT	1.00000E+000	Final Freq. (Hz)
PTSPERDEC	QUANT	1.00000E+001	Points/decade
VAC	QUANT	5.00000E+001	AC Voltage (mV rms)
AREA	QUANT	1.00000E+000	Sample Area (cm^2)
SPEED	SELECTOR	2	Optimize for:
ZGUESS	QUANT	1.00000E+003	Estimated Z (ohms)
EOC	QUANT	0	Open Circuit (V)
SEQUENCER	TOGGLE	TRUE	Run as Sequence
PSTATMODEL	IQUANT	5	Pstat Model
PSTATSECTION	LABEL	REF3000-16137	Pstat Section
PSTATSERIALNO	LABEL	16137	Pstat Serial Number
CTRLMODE	IQUANT	1	Control Mode
IESTAB	IQUANT	0	I/E Stability
CASPEED	IQUANT	1	Control Amp Speed
CONVENTION	IQUANT	1	Current Convention
ICHRANGE	IQUANT	2	Ich Range
ICHRANGEMODE	TOGGLE	F	Ich Auto Range
ICHOFFSETENABLE	TOGGLE	T	Ich Offset Enable
ICHOFFSET	QUANT	0	Ich Offset (V)
ICHFILTER	IQUANT	3	Ich Filter
VCHRANGE	IQUANT	2	Vch Range
VCHRANGEMODE	TOGGLE	F	Vch Auto Range
VCHOFFSETENABLE	TOGGLE	T	Vch Offset Enable
VCHOFFSET	QUANT	0	Vch Offset (V)
VCHFILTER	IQUANT	3	Vch Filter
ACHRANGE	IQUANT	2	Ach Range
ACHOFFSETENABLE	TOGGLE	F	Ach Offset Enable
ACHOFFSET	QUANT	0	Ach Offset (V)
ACHFILTER	IQUANT	3	Ach Filter
IERANGELOWERLIMIT	IQUANT	2	I/E Range Lower Limit
IERANGEMODE	TOGGLE	F	I/E AutoRange
IERANGE	IQUANT	11	I/E Range
POSFEEDENABLE	TOGGLE	F	Positive Feedback IR Comp
POSFEEDRESISTANCE	QUANT	0	Positive Feedback Resistance (ohm)
ACHSELECT	IQUANT	0	Ach Select
CABLEID	IQUANT	13	Cable ID
DCCALDATE	LABEL	7/31/2020	DC Calibration Date
ACCALDATE	LABEL	7/31/2020	AC Calibration Date
THERMOSELECT	IQUANT	1	Thermo Select
FRAMEWORKVERSION	QUANT	6.33	Framework Version
INSTRUMENTVERSION	LABEL	3.50	Instrument Version
COMPLIANCEVOLTAGE	IQUANT	0	Compliance Voltage
ZCURVE	TABLE
	Pt	Time	Freq	Zreal	Zimag	Zsig	Zmod	Zphz	Idc	Vdc	IERange
	#	s	Hz	ohm	ohm	V	ohm	°	A	V	#
	0	7	300046.9	33.09323	0.806633	1	33.10306	1.396283	-8.651248E-005	-8.512398E-005	11
	1	11	238359.4	33.54723	0.973047	1	33.56134	1.661415	-0.0001028	0.0004933	10
	2	14	189328.1	33.91938	0.759387	1	33.92788	1.282523	1.717682E-005	0.000466	10
	3	17	150421.9	34.26384	0.5734791	1	34.26864	0.958879	7.676864E-005	0.0004516	10
	4	19	119484.4	34.64287	0.4358908	1	34.64561	0.720881	1.411841E-005	0.000601	10
	5	22	94921.88	35.00096	0.3179662	1	35.00241	0.5204891	4.362982E-006	0.0006928	10
	6	24	75421.88	35.37947	0.4957175	1	35.38294	0.8027441	1.873531E-005	-0.0004466	9
	7	27	59859.37	35.73285	0.3235731	1	35.73431	0.5188186	-6.64555E-006	-4.330064E-006	9
	8	29	47578.12	36.09893	0.182738	1	36.09939	0.290037	-9.717694E-006	0.0001349	9
	9	32	37828.12	36.47701	0.052948	1	36.47704	0.0831674	-1.073069E-005	0.0002416	9
	10	34	30046.88	36.8554	-0.0859242	1	36.8555	-0.1335784	-1.375459E-005	0.0004096	9
	11	37	23859.38	37.23583	-0.2222592	1	37.23649	-0.3419922	-1.101446E-005	0.0004491	9
	12	39	18984.38	37.59948	-0.3568964	1	37.60117	-0.5438386	1.856915E-005	-0.0003511	9
	13	41	15046.87	37.98298	-0.5110096	1	37.98642	-0.7707907	-1.402711E-005	0.0005439	9
	14	44	11953.13	38.35849	-0.6808153	1	38.36453	-1.016822	1.55012E-005	-0.000496	9
	15	46	9515.62	38.7455	-0.8848221	1	38.7556	-1.308223	1.564213E-005	-0.0005177	9
	16	48	7546.875	39.15205	-1.132556	1	39.16842	-1.65694	-1.487242E-005	0.00049	9
	17	51	5928.309	39.55336	-1.449896	1	39.57993	-2.099334	6.161337E-006	-0.0003603	9
	18	53	4733.456	39.97778	-1.811638	1	40.01881	-2.594647	-1.512287E-005	0.0004336	9
	19	55	3796.875	40.41327	-2.233763	1	40.47495	-3.163692	-5.119386E-006	-4.586059E-005	9
	20	58	2987.132	40.86568	-2.831928	1	40.96369	-3.964171	-1.494148E-005	0.0004629	9
	21	60	2390.625	41.32643	-3.50016	1	41.47439	-4.841138	2.072195E-005	-0.000346	9
	22	62	1884.191	41.80825	-4.416474	1	42.04087	-6.030157	-1.368814E-005	0.0002781	9
	23	65	1516.544	42.32229	-5.399291	1	42.66531	-7.270269	-1.334785E-005	0.0005939	9
	24	67	1193.986	42.90636	-6.775457	1	43.43803	-8.973627	-1.524499E-005	0.0004286	9
	25	69	946.5144	43.52455	-8.451243	1	44.33746	-10.98849	-1.055894E-005	0.0001263	9
	26	72	751.7689	44.15236	-10.50618	1	45.38514	-13.38477	1.581529E-005	-0.0005259	9
	27	74	597.4265	44.86785	-13.03349	1	46.72254	-16.19785	-1.122427E-005	0.0006173	9
	28	76	477.4305	45.6316	-16.09561	1	48.3871	-19.42925	1.442143E-006	5.373184E-005	9
	29	79	376.6741	46.52594	-20.11061	1	50.68628	-23.37618	1.393013E-006	5.545044E-005	9
	30	81	298.2954	47.53361	-25.02902	1	53.72054	-27.76923	1.43693E-006	4.979076E-005	9
	31	83	237.7717	48.69925	-30.95194	1	57.70303	-32.43895	1.478556E-006	4.901545E-005	9
	32	86	189.0121	50.05913	-38.36247	1	63.06818	-37.4645	1.284525E-006	5.740784E-005	9
	33	88	150.2404	51.65516	-47.53555	1	70.19888	-42.62174	1.400174E-006	5.368403E-005	9
	34	91	119.1737	53.57087	-59.01278	1	79.70161	-47.76733	1.317628E-006	7.970253E-005	9
	35	93	95.0169	55.84208	-72.88202	1	91.81572	-52.54073	1.414272E-006	5.37696E-005	9
	36	95	75.60484	58.65872	-90.17313	1	107.5734	-56.95551	1.399496E-006	5.379097E-005	9
	37	98	54.50582	63.63327	-122.1668	1	137.7459	-62.48626	1.384613E-006	5.178306E-005	9
	38	101	45.95588	67.19187	-143.141	1	158.1268	-64.85416	1.343094E-006	5.511898E-005	9
	39	103	37.20238	72.3259	-174.0132	1	188.4453	-67.43053	1.429239E-006	4.820892E-005	9
	40	105	30.04808	78.74199	-211.8968	1	226.0543	-69.61466	1.436303E-006	5.04485E-005	9
	41	108	23.91582	87.30598	-261.2625	1	275.4641	-71.52194	1.227714E-006	5.193157E-005	9
	42	110	18.60119	99.2408	-328.7422	1	343.3951	-73.20197	1.350007E-006	4.807254E-005	9
	43	112	15.02404	112.0796	-399.3572	1	414.7867	-74.32323	1.271235E-006	4.847586E-005	9
	44	115	12.01923	128.3165	-486.7473	1	503.3767	-75.23166	4.48085E-007	0.0006339	8
	45	117	9.450605	150.9169	-604.6868	1	623.2352	-75.98648	3.84812E-007	0.0006425	8
	46	120	7.512019	178.4851	-743.7006	1	764.8186	-76.50449	3.613866E-007	0.000641	8
	47	122	5.978954	212.4746	-912.3187	1	936.7341	-76.88979	3.672572E-007	0.0006311	8
	48	125	4.734848	256.7451	-1125.396	1	1154.311	-77.14863	4.528438E-007	0.0006392	8
	49	129	3.75601	311.8918	-1383.615	1	1418.332	-77.29681	3.874573E-007	0.0006188	8
	50	132	3.004808	379.2512	-1686.894	1	1729	-77.32932	4.398114E-007	0.0005998	8
	51	136	2.372217	469.0196	-2077.718	1	2129.998	-77.27938	4.185335E-007	0.0006075	8
	52	140	1.878005	586.5264	-2558.03	1	2624.41	-77.08597	3.980428E-007	0.000634	8
	53	145	1.512097	718.95	-3098.082	1	3180.408	-76.93503	4.164973E-007	0.0005239	8
	54	150	1.201923	898.3105	-3792.403	1	3897.343	-76.6739	3.897125E-007	0.0006433	8
	55	156	0.956633	1119.448	-4639.33	1	4772.478	-76.43412	2.802507E-008	-3.749909E-005	7
