EXPLAIN
TAG	EISPOT
TITLE	LABEL	Potentiostatic EIS	Test Identifier
DATE	LABEL	8/30/2020	Date
TIME	LABEL	11:11:33	Time
NOTES	NOTES	1	Notes...
	
PSTAT	PSTAT	REF3000-16137	Potentiostat
VDC	POTEN	0.00000E+000	T	DC Voltage (V)
FREQINIT	QUANT	3.00000E+005	Initial Freq. (Hz)
FREQFINAL	QUANT	1.00000E+000	Final Freq. (Hz)
PTSPERDEC	QUANT	1.00000E+001	Points/decade
VAC	QUANT	5.00000E+001	AC Voltage (mV rms)
AREA	QUANT	1.00000E+000	Sample Area (cm^2)
SPEED	SELECTOR	2	Optimize for:
ZGUESS	QUANT	1.00000E+003	Estimated Z (ohms)
EOC	QUANT	0	Open Circuit (V)
SEQUENCER	TOGGLE	TRUE	Run as Sequence
PSTATMODEL	IQUANT	5	Pstat Model
PSTATSECTION	LABEL	REF3000-16137	Pstat Section
PSTATSERIALNO	LABEL	16137	Pstat Serial Number
CTRLMODE	IQUANT	1	Control Mode
IESTAB	IQUANT	0	I/E Stability
CASPEED	IQUANT	1	Control Amp Speed
CONVENTION	IQUANT	1	Current Convention
ICHRANGE	IQUANT	2	Ich Range
ICHRANGEMODE	TOGGLE	F	Ich Auto Range
ICHOFFSETENABLE	TOGGLE	T	Ich Offset Enable
ICHOFFSET	QUANT	0	Ich Offset (V)
ICHFILTER	IQUANT	3	Ich Filter
VCHRANGE	IQUANT	2	Vch Range
VCHRANGEMODE	TOGGLE	F	Vch Auto Range
VCHOFFSETENABLE	TOGGLE	T	Vch Offset Enable
VCHOFFSET	QUANT	0	Vch Offset (V)
VCHFILTER	IQUANT	3	Vch Filter
ACHRANGE	IQUANT	2	Ach Range
ACHOFFSETENABLE	TOGGLE	F	Ach Offset Enable
ACHOFFSET	QUANT	0	Ach Offset (V)
ACHFILTER	IQUANT	3	Ach Filter
IERANGELOWERLIMIT	IQUANT	2	I/E Range Lower Limit
IERANGEMODE	TOGGLE	F	I/E AutoRange
IERANGE	IQUANT	11	I/E Range
POSFEEDENABLE	TOGGLE	F	Positive Feedback IR Comp
POSFEEDRESISTANCE	QUANT	0	Positive Feedback Resistance (ohm)
ACHSELECT	IQUANT	0	Ach Select
CABLEID	IQUANT	13	Cable ID
DCCALDATE	LABEL	7/31/2020	DC Calibration Date
ACCALDATE	LABEL	7/31/2020	AC Calibration Date
THERMOSELECT	IQUANT	1	Thermo Select
FRAMEWORKVERSION	QUANT	6.33	Framework Version
INSTRUMENTVERSION	LABEL	3.50	Instrument Version
COMPLIANCEVOLTAGE	IQUANT	0	Compliance Voltage
ZCURVE	TABLE
	Pt	Time	Freq	Zreal	Zimag	Zsig	Zmod	Zphz	Idc	Vdc	IERange
	#	s	Hz	ohm	ohm	V	ohm	°	A	V	#
	0	8	300046.9	169.5023	-4.916679	1	169.5736	-1.661488	-5.96903E-005	0.000698	9
	1	11	238359.4	173.4335	-3.976377	1	173.479	-1.313413	-1.019321E-005	-0.0014054	9
	2	14	189328.1	176.2734	-3.900099	1	176.3165	-1.267478	1.905624E-005	-0.001376	9
	3	17	150421.9	179.3526	-3.345305	1	179.3837	-1.068564	2.190555E-005	-0.0005386	9
	4	19	119484.4	182.5538	-3.069776	1	182.5796	-0.963379	-8.528828E-006	-0.0012458	9
	5	22	94921.88	185.868	-2.54282	1	185.8854	-0.7838021	-2.26193E-005	0.0006921	9
	6	25	75421.88	189.0289	-2.331809	1	189.0432	-0.7067493	-2.20745E-005	0.0005179	9
	7	27	59859.37	192.0303	-2.153819	1	192.0424	-0.6426046	-2.134593E-006	-0.0003798	9
	8	30	47578.12	195.1895	-1.768298	1	195.1976	-0.5190504	-1.047934E-005	-7.859454E-005	9
	9	32	37828.12	198.4465	-1.576441	1	198.4527	-0.4551429	-1.579766E-005	0.0001276	9
	10	35	30046.88	201.7631	-1.560976	1	201.7691	-0.4432702	-1.878586E-005	0.0003253	9
	11	37	23859.38	204.6981	-1.360193	1	204.7026	-0.3807178	7.037942E-006	-0.000652	9
	12	40	18984.38	207.9456	-1.376706	1	207.9502	-0.3793218	7.970758E-006	-0.0006061	9
	13	42	15046.87	210.7018	-1.369777	1	210.7063	-0.3724757	2.148911E-005	-0.0008265	9
	14	44	11953.13	214.0235	-1.326361	1	214.0276	-0.3550729	-8.301513E-006	0.0008059	9
	15	47	9515.62	217.3697	-1.562069	1	217.3754	-0.4117335	-2.312914E-005	0.0008711	9
	16	49	7546.875	220.611	-2.011493	1	220.6201	-0.5223987	6.80015E-006	-0.0006414	9
	17	51	5928.309	223.9569	-2.185333	1	223.9676	-0.5590645	-2.391071E-005	0.000866	9
	18	53	4733.456	227.4562	-2.382591	1	227.4687	-0.6001483	1.15332E-005	0.0002459	9
	19	56	3796.875	231.1249	-2.920033	1	231.1433	-0.7238367	-8.650936E-006	0.0008285	9
	20	58	2987.132	234.5681	-3.90725	1	234.6006	-0.9543	-8.652109E-006	0.0008702	9
	21	60	2390.625	238.266	-4.414228	1	238.3069	-1.061367	-2.157848E-005	0.0004592	9
	22	63	1884.191	244.2503	-6.633154	1	244.3403	-1.555611	-2.022611E-006	0.0005897	10
	23	66	1516.544	247.8589	-6.244073	1	247.9376	-1.443092	-1.058397E-005	-9.324282E-005	9
	24	69	1193.986	253.7722	-8.283865	1	253.9074	-1.869637	2.719426E-005	-0.0004992	9
	25	72	946.5144	259.7363	-10.74884	1	259.9586	-2.369757	2.65273E-005	-0.0008529	9
	26	76	751.7689	264.3695	-12.54732	1	264.6671	-2.717293	2.653999E-005	-0.0004725	9
	27	78	597.4265	270.9211	-15.33267	1	271.3546	-3.239176	-1.138891E-006	-0.0004116	9
	28	81	477.4305	275.4497	-19.26169	1	276.1224	-4.000077	1.200939E-006	5.828049E-005	9
	29	84	376.6741	280.2798	-24.0378	1	281.3087	-4.901896	1.199281E-006	5.526806E-005	9
	30	86	298.2954	285.3182	-29.92171	1	286.8828	-5.986804	1.152531E-006	5.954809E-005	9
	31	88	237.7717	290.7536	-37.0361	1	293.103	-7.259223	1.232393E-006	5.599582E-005	9
	32	91	189.0121	296.515	-45.97044	1	300.0573	-8.812737	1.137494E-006	5.69197E-005	9
	33	93	150.2404	302.6216	-57.0535	1	307.9528	-10.6767	1.143031E-006	9.334459E-005	9
	34	96	119.1737	309.0844	-70.93642	1	317.12	-12.92583	1.172647E-006	5.725149E-005	9
	35	98	95.0169	316.1051	-87.72953	1	328.0532	-15.51108	1.096795E-006	5.851286E-005	9
	36	100	75.60484	323.9601	-108.6918	1	341.7076	-18.54711	1.108134E-006	4.939233E-005	9
	37	103	54.50582	334.2187	-147.4879	1	365.3147	-23.81146	1.167979E-006	4.874578E-005	9
	38	106	45.95588	341.3841	-172.276	1	382.39	-26.77733	-1.864626E-008	0.0006406	8
	39	108	37.20238	351.3593	-209.7643	1	409.212	-30.83754	-1.195373E-008	0.000632	8
	40	110	30.04808	362.8468	-255.8913	1	444.0024	-35.19272	-1.293929E-008	0.0006215	8
	41	113	23.91582	376.261	-316.3131	1	491.555	-40.05292	1.323382E-008	0.000624	8
	42	115	18.60119	392.4735	-399.3778	1	559.9447	-45.49956	3.258478E-008	0.0006302	8
	43	117	15.02404	409.6433	-486.9213	1	636.3175	-49.92635	-5.006518E-008	0.0006254	8
	44	120	12.01923	430.831	-598.9022	1	737.7664	-54.26997	2.809271E-008	0.0006338	8
	45	122	9.450605	457.7945	-748.4541	1	877.3593	-58.54782	-6.098131E-008	0.0006267	8
	46	125	7.512019	489.7444	-925.9258	1	1047.468	-62.12456	-8.566588E-008	0.0006239	8
	47	127	5.978954	529.166	-1144.222	1	1260.659	-65.18098	-6.765372E-008	0.0006418	8
	48	130	4.734848	579.4365	-1419.874	1	1533.554	-67.80012	-4.843539E-008	0.0005894	8
	49	134	3.75601	642.8521	-1758.759	1	1872.563	-69.92191	-2.727229E-008	0.0006451	8
	50	137	3.004808	718.3705	-2159.289	1	2275.65	-71.59831	-1.032503E-008	0.0005998	8
	51	141	2.372217	820.8989	-2680.945	1	2803.808	-72.97554	-6.34322E-008	0.0005818	8
	52	145	1.878005	944.8193	-3330.561	1	3461.982	-74.16233	-2.966607E-008	0.0006461	8
	53	150	1.512097	1084.107	-4059.643	1	4201.903	-75.04835	-6.161406E-008	0.0006882	8
	54	155	1.201923	1286.047	-5033.166	1	5194.87	-75.66676	-1.558712E-009	0.0006081	7
	55	161	0.956633	1524.611	-6203.861	1	6388.453	-76.19306	-3.288371E-008	-3.900967E-005	7
