EXPLAIN
TAG	EISPOT
TITLE	LABEL	Potentiostatic EIS	Test Identifier
DATE	LABEL	8/30/2020	Date
TIME	LABEL	11:03:17	Time
NOTES	NOTES	1	Notes...
	
PSTAT	PSTAT	REF3000-16137	Potentiostat
VDC	POTEN	0.00000E+000	T	DC Voltage (V)
FREQINIT	QUANT	3.00000E+005	Initial Freq. (Hz)
FREQFINAL	QUANT	1.00000E+000	Final Freq. (Hz)
PTSPERDEC	QUANT	1.00000E+001	Points/decade
VAC	QUANT	5.00000E+001	AC Voltage (mV rms)
AREA	QUANT	1.00000E+000	Sample Area (cm^2)
SPEED	SELECTOR	2	Optimize for:
ZGUESS	QUANT	1.00000E+003	Estimated Z (ohms)
EOC	QUANT	0	Open Circuit (V)
SEQUENCER	TOGGLE	TRUE	Run as Sequence
PSTATMODEL	IQUANT	5	Pstat Model
PSTATSECTION	LABEL	REF3000-16137	Pstat Section
PSTATSERIALNO	LABEL	16137	Pstat Serial Number
CTRLMODE	IQUANT	1	Control Mode
IESTAB	IQUANT	0	I/E Stability
CASPEED	IQUANT	1	Control Amp Speed
CONVENTION	IQUANT	1	Current Convention
ICHRANGE	IQUANT	2	Ich Range
ICHRANGEMODE	TOGGLE	F	Ich Auto Range
ICHOFFSETENABLE	TOGGLE	T	Ich Offset Enable
ICHOFFSET	QUANT	0	Ich Offset (V)
ICHFILTER	IQUANT	3	Ich Filter
VCHRANGE	IQUANT	2	Vch Range
VCHRANGEMODE	TOGGLE	F	Vch Auto Range
VCHOFFSETENABLE	TOGGLE	T	Vch Offset Enable
VCHOFFSET	QUANT	0	Vch Offset (V)
VCHFILTER	IQUANT	3	Vch Filter
ACHRANGE	IQUANT	2	Ach Range
ACHOFFSETENABLE	TOGGLE	F	Ach Offset Enable
ACHOFFSET	QUANT	0	Ach Offset (V)
ACHFILTER	IQUANT	3	Ach Filter
IERANGELOWERLIMIT	IQUANT	2	I/E Range Lower Limit
IERANGEMODE	TOGGLE	F	I/E AutoRange
IERANGE	IQUANT	11	I/E Range
POSFEEDENABLE	TOGGLE	F	Positive Feedback IR Comp
POSFEEDRESISTANCE	QUANT	0	Positive Feedback Resistance (ohm)
ACHSELECT	IQUANT	0	Ach Select
CABLEID	IQUANT	13	Cable ID
DCCALDATE	LABEL	7/31/2020	DC Calibration Date
ACCALDATE	LABEL	7/31/2020	AC Calibration Date
THERMOSELECT	IQUANT	1	Thermo Select
FRAMEWORKVERSION	QUANT	6.33	Framework Version
INSTRUMENTVERSION	LABEL	3.50	Instrument Version
COMPLIANCEVOLTAGE	IQUANT	0	Compliance Voltage
ZCURVE	TABLE
	Pt	Time	Freq	Zreal	Zimag	Zsig	Zmod	Zphz	Idc	Vdc	IERange
	#	s	Hz	ohm	ohm	V	ohm	°	A	V	#
	0	8	300046.9	18.23201	1.654807	1	18.30696	5.186174	4.837973E-006	0.0002762	10
	1	11	238359.4	18.40667	1.311816	1	18.45335	4.076495	6.022899E-005	0.0003241	10
	2	14	189328.1	18.58015	1.027393	1	18.60854	3.164957	-1.012784E-005	0.0005255	10
	3	17	150421.9	18.7397	0.8064635	1	18.75705	2.464204	6.735532E-005	0.0006142	10
	4	19	119484.4	18.87546	0.614711	1	18.88547	1.865274	-8.146108E-005	0.000789	10
	5	22	94921.88	19.02243	0.4691188	1	19.02821	1.412705	-2.581106E-005	0.000631	10
	6	24	75421.88	19.17901	0.3250903	1	19.18176	0.971089	1.329397E-005	0.0005733	10
	7	27	59859.37	19.33969	0.2006425	1	19.34074	0.5944021	1.706828E-005	0.000571	10
	8	30	47578.12	19.50394	0.091931	1	19.50415	0.2700593	-2.473537E-005	0.0006465	10
	9	32	37828.12	19.66855	-0.0137839	1	19.66856	-0.0401534	2.215614E-005	0.0005883	10
	10	35	30046.88	19.83767	-0.1202088	1	19.83803	-0.3471865	-3.099267E-005	0.0006642	10
	11	37	23859.38	20.00702	-0.2267709	1	20.0083	-0.649395	-1.186257E-005	0.0006563	10
	12	39	18984.38	20.16719	-0.3505348	1	20.17024	-0.995783	1.572972E-005	0.0006727	10
	13	42	15046.87	20.33716	-0.4939697	1	20.34316	-1.391385	-2.656058E-005	0.0007316	10
	14	44	11953.13	20.50544	-0.6496481	1	20.51572	-1.814623	2.127694E-005	0.0005778	10
	15	46	9515.62	20.68373	-0.8387093	1	20.70073	-2.322027	-2.867759E-005	0.0007217	10
	16	49	7546.875	20.86695	-1.068452	1	20.89429	-2.931161	3.626031E-006	0.0007012	10
	17	51	5928.309	21.05895	-1.365282	1	21.10316	-3.709375	2.197455E-005	0.0006305	10
	18	53	4733.456	21.25902	-1.705884	1	21.32735	-4.587744	-2.893458E-005	0.0006934	10
	19	56	3796.875	21.46015	-2.113931	1	21.56401	-5.625769	-2.634339E-005	0.000671	10
	20	58	2987.132	21.67969	-2.662177	1	21.84253	-7.00064	9.282634E-006	0.0005834	10
	21	60	2390.625	21.91301	-3.294614	1	22.1593	-8.55036	-1.923692E-005	0.0006614	10
	22	63	1884.191	22.16591	-4.134599	1	22.54823	-10.56593	-2.420527E-005	0.0007138	10
	23	65	1516.544	22.43629	-5.072399	1	23.00253	-12.73927	2.052522E-007	0.0005953	10
	24	67	1193.986	22.75476	-6.367407	1	23.62886	-15.63308	2.459584E-006	0.0006755	10
	25	70	946.5144	23.10649	-7.926803	1	24.42835	-18.9348	-2.40769E-005	0.0007364	10
	26	72	751.7689	23.49925	-9.85016	1	25.48019	-22.74192	8.320009E-006	0.0005866	10
	27	74	597.4265	23.94217	-12.22356	1	26.88202	-27.04637	-2.844279E-005	0.0007108	10
	28	77	477.4305	24.44839	-15.08445	1	28.72742	-31.67423	-1.741262E-006	0.0006589	10
	29	79	376.6741	25.06998	-18.83631	1	31.35778	-36.91933	-2.43747E-006	0.0006549	10
	30	81	298.2954	25.80153	-23.43335	1	34.85457	-42.24621	-2.05462E-006	0.0006559	10
	31	84	237.7717	26.64084	-28.93311	1	39.33013	-47.36195	1.307417E-006	5.156522E-005	9
	32	86	189.0121	27.70888	-35.85167	1	45.31142	-52.30043	1.368014E-006	5.817964E-005	9
	33	88	150.2404	29.02489	-44.41143	1	53.05487	-56.83356	1.064654E-006	9.427593E-005	9
	34	91	119.1737	30.68336	-55.09708	1	63.0647	-60.88673	1.290085E-006	6.370644E-005	9
	35	93	95.0169	32.72418	-67.992	1	75.45717	-64.29874	1.300665E-006	5.403169E-005	9
	36	96	75.60484	35.32506	-84.00952	1	91.13429	-67.19379	1.370124E-006	5.596309E-005	9
	37	98	54.50582	40.19682	-113.5165	1	120.4233	-70.50066	1.30923E-006	4.878525E-005	9
	38	101	45.95588	43.58118	-132.7704	1	139.7401	-71.82785	1.42262E-006	5.294706E-005	9
	39	103	37.20238	48.59401	-161.0153	1	168.1883	-73.20631	1.405511E-006	5.061124E-005	9
	40	105	30.04808	54.9124	-195.5578	1	203.1212	-74.31532	1.400303E-006	5.508366E-005	9
	41	108	23.91582	63.33473	-240.4209	1	248.6232	-75.24171	1.355673E-006	5.688455E-005	9
	42	110	18.60119	75.07058	-301.5493	1	310.7532	-76.02041	1.340359E-006	5.467348E-005	9
	43	113	15.02404	87.74622	-365.2935	1	375.6843	-76.49303	1.527374E-006	6.929581E-005	9
	44	115	12.01923	103.7938	-444.2112	1	456.1762	-76.8483	6.286691E-007	0.0006366	8
	45	117	9.450605	126.2816	-550.5013	1	564.7997	-77.08022	4.640923E-007	0.0006473	8
	46	120	7.512019	153.5428	-675.0625	1	692.304	-77.1861	5.35272E-007	0.0006496	8
	47	123	5.978954	188.0711	-825.7078	1	846.8555	-77.16867	4.84722E-007	0.0006405	8
	48	126	4.734848	233.4478	-1014.663	1	1041.172	-77.0432	5.507217E-007	0.0006353	8
	49	129	3.75601	289.9046	-1242.605	1	1275.975	-76.86758	5.528102E-007	0.0006449	8
	50	132	3.004808	358.5689	-1507.603	1	1549.658	-76.62132	5.770831E-007	0.0006146	8
	51	136	2.372217	452.7304	-1849.282	1	1903.893	-76.24374	5.518266E-007	0.0005624	8
	52	140	1.878005	565.122	-2261.484	1	2331.024	-75.9697	5.900789E-007	0.0006338	8
	53	145	1.512097	694.8893	-2714.302	1	2801.84	-75.64011	5.484658E-007	0.0006137	8
	54	150	1.201923	867.3301	-3308.51	1	3420.307	-75.31039	5.794053E-007	0.0006658	8
	55	157	0.956633	1074.562	-4012.977	1	4154.355	-75.00949	5.322428E-007	-2.132439E-006	8
