EXPLAIN
TAG	EISPOT
TITLE	LABEL	Potentiostatic EIS	Test Identifier
DATE	LABEL	8/30/2020	Date
TIME	LABEL	11:14:24	Time
NOTES	NOTES	1	Notes...
	
PSTAT	PSTAT	REF3000-16137	Potentiostat
VDC	POTEN	0.00000E+000	T	DC Voltage (V)
FREQINIT	QUANT	3.00000E+005	Initial Freq. (Hz)
FREQFINAL	QUANT	1.00000E+000	Final Freq. (Hz)
PTSPERDEC	QUANT	1.00000E+001	Points/decade
VAC	QUANT	5.00000E+001	AC Voltage (mV rms)
AREA	QUANT	1.00000E+000	Sample Area (cm^2)
SPEED	SELECTOR	2	Optimize for:
ZGUESS	QUANT	1.00000E+003	Estimated Z (ohms)
EOC	QUANT	0	Open Circuit (V)
SEQUENCER	TOGGLE	TRUE	Run as Sequence
PSTATMODEL	IQUANT	5	Pstat Model
PSTATSECTION	LABEL	REF3000-16137	Pstat Section
PSTATSERIALNO	LABEL	16137	Pstat Serial Number
CTRLMODE	IQUANT	1	Control Mode
IESTAB	IQUANT	0	I/E Stability
CASPEED	IQUANT	1	Control Amp Speed
CONVENTION	IQUANT	1	Current Convention
ICHRANGE	IQUANT	2	Ich Range
ICHRANGEMODE	TOGGLE	F	Ich Auto Range
ICHOFFSETENABLE	TOGGLE	T	Ich Offset Enable
ICHOFFSET	QUANT	0	Ich Offset (V)
ICHFILTER	IQUANT	3	Ich Filter
VCHRANGE	IQUANT	2	Vch Range
VCHRANGEMODE	TOGGLE	F	Vch Auto Range
VCHOFFSETENABLE	TOGGLE	T	Vch Offset Enable
VCHOFFSET	QUANT	0	Vch Offset (V)
VCHFILTER	IQUANT	3	Vch Filter
ACHRANGE	IQUANT	2	Ach Range
ACHOFFSETENABLE	TOGGLE	F	Ach Offset Enable
ACHOFFSET	QUANT	0	Ach Offset (V)
ACHFILTER	IQUANT	3	Ach Filter
IERANGELOWERLIMIT	IQUANT	2	I/E Range Lower Limit
IERANGEMODE	TOGGLE	F	I/E AutoRange
IERANGE	IQUANT	11	I/E Range
POSFEEDENABLE	TOGGLE	F	Positive Feedback IR Comp
POSFEEDRESISTANCE	QUANT	0	Positive Feedback Resistance (ohm)
ACHSELECT	IQUANT	0	Ach Select
CABLEID	IQUANT	13	Cable ID
DCCALDATE	LABEL	7/31/2020	DC Calibration Date
ACCALDATE	LABEL	7/31/2020	AC Calibration Date
THERMOSELECT	IQUANT	1	Thermo Select
FRAMEWORKVERSION	QUANT	6.33	Framework Version
INSTRUMENTVERSION	LABEL	3.50	Instrument Version
COMPLIANCEVOLTAGE	IQUANT	0	Compliance Voltage
ZCURVE	TABLE
	Pt	Time	Freq	Zreal	Zimag	Zsig	Zmod	Zphz	Idc	Vdc	IERange
	#	s	Hz	ohm	ohm	V	ohm	°	A	V	#
	0	14	300046.9	559.9682	-89.1032	1	567.013	-9.041214	-3.089079E-005	-0.0010585	9
	1	19	238359.4	607.1052	-86.02888	1	613.1702	-8.06531	1.887267E-005	-0.0020594	9
	2	29	189328.1	654.9656	-83.00586	1	660.2044	-7.222771	-1.859383E-005	0.0010882	9
	3	38	150421.9	704.6936	-74.53838	1	708.6248	-6.037962	7.631862E-005	-0.0015132	9
	4	45	119484.4	738.0728	-42.5683	1	739.2993	-3.300874	8.529125E-006	-0.0081821	8
	5	49	94921.88	759.8161	-34.63021	1	760.6049	-2.609569	1.754929E-005	-0.0048863	8
	6	52	75421.88	777.1025	-29.66988	1	777.6687	-2.186499	-6.403707E-006	0.0068672	8
	7	55	59859.37	798.577	-24.80584	1	798.9622	-1.779181	-1.223002E-005	0.0014965	8
	8	58	47578.12	814.3799	-22.16413	1	814.6815	-1.558975	3.920023E-006	-0.0047876	8
	9	60	37828.12	833.9537	-20.78111	1	834.2125	-1.427445	3.970581E-006	-0.0048607	8
	10	63	30046.88	851.3554	-18.67308	1	851.5602	-1.256487	1.939828E-005	-0.004123	8
	11	66	23859.38	871.0882	-14.31992	1	871.2059	-0.941807	-1.259663E-005	0.0079913	8
	12	68	18984.38	890.5511	-12.88694	1	890.6443	-0.8290548	-1.324139E-005	0.0013936	8
	13	71	15046.87	912.1632	-12.75045	1	912.2523	-0.8008431	1.518729E-005	-0.0067611	8
	14	74	11953.13	935.1767	-11.27314	1	935.2446	-0.690642	-1.916698E-005	0.0061667	8
	15	76	9515.62	958.309	-8.992053	1	958.351	-0.5376049	1.062906E-005	-0.0062589	8
	16	80	7546.875	983.26	-10.89657	1	983.32	-0.6349307	1.577087E-005	-0.0069875	8
	17	82	5928.309	1008.662	-8.247005	1	1008.695	-0.4684505	-1.699345E-005	0.0083111	8
	18	86	4733.456	1034.466	-7.689654	1	1034.495	-0.4258975	1.103734E-005	-0.0065704	8
	19	88	3796.875	1058.795	-5.907203	1	1058.811	-0.31966	-8.574635E-006	-0.0008879	8
	20	91	2987.132	1087.728	-8.417364	1	1087.761	-0.4433734	-2.002615E-005	0.006395	8
	21	95	2390.625	1115.459	-9.447229	1	1115.499	-0.4852472	9.675708E-008	0.0055031	8
	22	97	1884.191	1142.659	-6.694144	1	1142.678	-0.3356574	-7.611141E-006	0.0076546	8
	23	100	1516.544	1179.764	-10.05948	1	1179.807	-0.4885312	-1.717464E-005	0.0030725	8
	24	104	1193.986	1218.301	-12.42839	1	1218.364	-0.5844777	-1.698093E-005	0.0029899	8
	25	108	946.5144	1245.764	-20.09912	1	1245.926	-0.9243287	2.200342E-005	-0.0060779	8
	26	110	751.7689	1281.038	-16.17881	1	1281.14	-0.7235758	-1.800951E-005	0.0087817	8
	27	113	597.4265	1314.902	-27.21312	1	1315.184	-1.18562	-1.464838E-005	0.0090831	8
	28	115	477.4305	1342.031	-23.68914	1	1342.24	-1.011263	-1.722971E-007	0.0006345	8
	29	118	376.6741	1370.796	-29.04908	1	1371.104	-1.213996	-2.038311E-007	0.0006383	8
	30	120	298.2954	1400.299	-35.79497	1	1400.756	-1.464298	-1.584875E-007	0.0006189	8
	31	122	237.7717	1431.653	-43.92622	1	1432.327	-1.757408	-2.098325E-007	0.0006431	8
	32	125	189.0121	1463.988	-54.2527	1	1464.993	-2.122305	-1.888021E-007	0.0006105	8
	33	127	150.2404	1497.192	-67.04492	1	1498.692	-2.564018	-2.185458E-007	0.0006352	8
	34	130	119.1737	1531.795	-83.27036	1	1534.056	-3.111611	-1.9636E-007	0.0006355	8
	35	132	95.0169	1567.802	-102.6619	1	1571.159	-3.746463	-1.545133E-007	0.0006198	8
	36	135	75.60484	1606.688	-127.253	1	1611.719	-4.528492	-2.148313E-007	0.000619	8
	37	137	54.50582	1649.454	-172.7247	1	1658.473	-5.978014	-2.024729E-007	0.0006174	8
	38	140	45.95588	1689.776	-202.3665	1	1701.851	-6.829179	-1.558517E-007	0.0006505	8
	39	142	37.20238	1730.944	-247.569	1	1748.559	-8.13955	-1.279769E-007	0.0006283	8
	40	144	30.04808	1775.992	-301.4472	1	1801.394	-9.63326	-2.694989E-007	0.0006365	8
	41	147	23.91582	1823.526	-373.723	1	1861.428	-11.58212	-3.104878E-007	0.0006351	8
	42	149	18.60119	1878.262	-474.6157	1	1937.299	-14.18115	4.981123E-008	0.0006155	8
	43	151	15.02404	1926.774	-577.4594	1	2011.447	-16.68361	-1.783738E-007	0.0006147	8
	44	154	12.01923	1984.616	-708.1349	1	2107.167	-19.63701	-9.779453E-008	0.0006327	8
	45	156	9.450605	2055.083	-888.4079	1	2238.891	-23.37872	-2.175017E-007	0.0006267	8
	46	159	7.512019	2130.353	-1098.524	1	2396.906	-27.27806	-1.864854E-007	0.0006433	8
	47	161	5.978954	2220.926	-1360.003	1	2604.25	-31.48158	-1.982991E-007	0.0006423	8
	48	164	4.734848	2329.624	-1687.228	1	2876.436	-35.9139	-2.035067E-007	0.0006586	8
	49	168	3.75601	2457.552	-2092.489	1	3227.703	-40.41282	-1.779081E-007	0.0006233	8
	50	171	3.004808	2600.256	-2572.579	1	3657.799	-44.69344	-2.156321E-007	0.0006701	8
	51	175	2.372217	2783.684	-3211.132	1	4249.737	-49.07846	-4.86429E-008	0.0006543	7
	52	179	1.878005	2999.524	-3990.829	1	4992.38	-53.07132	-4.944181E-008	0.0005836	7
	53	184	1.512097	3255.378	-4888.484	1	5873.225	-56.33924	-5.195358E-008	0.0007021	7
	54	189	1.201923	3576.846	-6066.435	1	7042.404	-59.47587	-4.78994E-008	0.0005875	7
	55	195	0.956633	3964.709	-7520.219	1	8501.33	-62.20151	-6.742944E-008	-3.684268E-005	7
