EXPLAIN
TAG	EISPOT
TITLE	LABEL	Potentiostatic EIS	Test Identifier
DATE	LABEL	8/30/2020	Date
TIME	LABEL	10:54:58	Time
NOTES	NOTES	1	Notes...
	
PSTAT	PSTAT	REF3000-16137	Potentiostat
VDC	POTEN	0.00000E+000	T	DC Voltage (V)
FREQINIT	QUANT	3.00000E+005	Initial Freq. (Hz)
FREQFINAL	QUANT	1.00000E+000	Final Freq. (Hz)
PTSPERDEC	QUANT	1.00000E+001	Points/decade
VAC	QUANT	5.00000E+001	AC Voltage (mV rms)
AREA	QUANT	1.00000E+000	Sample Area (cm^2)
SPEED	SELECTOR	2	Optimize for:
ZGUESS	QUANT	1.00000E+003	Estimated Z (ohms)
EOC	QUANT	0	Open Circuit (V)
SEQUENCER	TOGGLE	TRUE	Run as Sequence
PSTATMODEL	IQUANT	5	Pstat Model
PSTATSECTION	LABEL	REF3000-16137	Pstat Section
PSTATSERIALNO	LABEL	16137	Pstat Serial Number
CTRLMODE	IQUANT	1	Control Mode
IESTAB	IQUANT	0	I/E Stability
CASPEED	IQUANT	1	Control Amp Speed
CONVENTION	IQUANT	1	Current Convention
ICHRANGE	IQUANT	2	Ich Range
ICHRANGEMODE	TOGGLE	F	Ich Auto Range
ICHOFFSETENABLE	TOGGLE	T	Ich Offset Enable
ICHOFFSET	QUANT	0	Ich Offset (V)
ICHFILTER	IQUANT	3	Ich Filter
VCHRANGE	IQUANT	2	Vch Range
VCHRANGEMODE	TOGGLE	F	Vch Auto Range
VCHOFFSETENABLE	TOGGLE	T	Vch Offset Enable
VCHOFFSET	QUANT	0	Vch Offset (V)
VCHFILTER	IQUANT	3	Vch Filter
ACHRANGE	IQUANT	2	Ach Range
ACHOFFSETENABLE	TOGGLE	F	Ach Offset Enable
ACHOFFSET	QUANT	0	Ach Offset (V)
ACHFILTER	IQUANT	3	Ach Filter
IERANGELOWERLIMIT	IQUANT	2	I/E Range Lower Limit
IERANGEMODE	TOGGLE	F	I/E AutoRange
IERANGE	IQUANT	11	I/E Range
POSFEEDENABLE	TOGGLE	F	Positive Feedback IR Comp
POSFEEDRESISTANCE	QUANT	0	Positive Feedback Resistance (ohm)
ACHSELECT	IQUANT	0	Ach Select
CABLEID	IQUANT	13	Cable ID
DCCALDATE	LABEL	7/31/2020	DC Calibration Date
ACCALDATE	LABEL	7/31/2020	AC Calibration Date
THERMOSELECT	IQUANT	1	Thermo Select
FRAMEWORKVERSION	QUANT	6.33	Framework Version
INSTRUMENTVERSION	LABEL	3.50	Instrument Version
COMPLIANCEVOLTAGE	IQUANT	0	Compliance Voltage
ZCURVE	TABLE
	Pt	Time	Freq	Zreal	Zimag	Zsig	Zmod	Zphz	Idc	Vdc	IERange
	#	s	Hz	ohm	ohm	V	ohm	°	A	V	#
	0	10	300046.9	5.706979	1.870272	1	6.005624	18.14483	-0.0001023	0.0001964	10
	1	13	238359.4	5.712005	1.481324	1	5.900959	14.53853	-2.04203E-006	-0.0001462	10
	2	16	189328.1	5.72061	1.167101	1	5.83845	11.53106	-5.731654E-007	0.0001407	10
	3	19	150421.9	5.733714	0.9085679	1	5.805254	9.004259	-4.6676E-007	0.0003216	10
	4	21	119484.4	5.743735	0.7098973	1	5.787439	7.045743	-3.819547E-005	0.0004646	10
	5	24	94921.88	5.763109	0.5607221	1	5.790322	5.557106	-3.194207E-005	0.0005685	10
	6	26	75421.88	5.777603	0.4094655	1	5.792094	4.053842	2.987916E-005	0.0004826	10
	7	29	59859.37	5.797711	0.2777857	1	5.804362	2.743115	2.390422E-005	0.0005601	10
	8	31	47578.12	5.819888	0.1606829	1	5.822105	1.581493	3.177229E-005	0.0005706	10
	9	34	37828.12	5.843693	0.052564	1	5.843929	0.5153611	1.743091E-005	0.0005594	10
	10	36	30046.88	5.871284	-0.0518632	1	5.871513	-0.5061013	-5.439916E-006	0.0006143	10
	11	39	23859.38	5.898022	-0.157962	1	5.900136	-1.534141	2.553143E-005	0.0005797	10
	12	41	18984.38	5.926579	-0.2700585	1	5.932729	-2.609012	-7.29093E-006	0.0006186	10
	13	43	15046.87	5.957866	-0.3970007	1	5.971078	-3.812252	-8.429105E-006	0.0006287	10
	14	46	11953.13	5.990179	-0.5415424	1	6.014608	-5.165784	2.836632E-005	0.0005868	10
	15	48	9515.62	6.027576	-0.7105094	1	6.069308	-6.722801	-2.824469E-005	0.0006594	10
	16	50	7546.875	6.068283	-0.9147018	1	6.136834	-8.571939	1.24301E-005	0.0006065	10
	17	53	5928.309	6.115781	-1.175831	1	6.227789	-10.88299	-3.198425E-005	0.0006924	10
	18	55	4733.456	6.166777	-1.473872	1	6.34046	-13.44166	2.060995E-005	0.0006104	10
	19	57	3796.875	6.225349	-1.829587	1	6.488633	-16.37769	-2.773458E-005	0.0007165	10
	20	60	2987.132	6.295652	-2.309132	1	6.705768	-20.14213	2.888815E-005	0.0006037	10
	21	62	2390.625	6.37487	-2.859531	1	6.986837	-24.15924	3.177619E-005	0.0006129	10
	22	64	1884.191	6.47611	-3.586326	1	7.402819	-28.97671	2.765247E-006	0.0006173	10
	23	67	1516.544	6.58791	-4.407841	1	7.926514	-33.7857	1.836472E-005	0.0006166	10
	24	69	1193.986	6.737566	-5.524164	1	8.712703	-39.3485	2.565954E-005	0.000606	10
	25	71	946.5144	6.922037	-6.874428	1	9.75563	-44.80228	-2.820106E-005	0.0007251	10
	26	74	751.7689	7.14697	-8.536625	1	11.13342	-50.0635	-8.127785E-006	0.0006422	10
	27	76	597.4265	7.433073	-10.59445	1	12.9419	-54.94647	-2.87636E-005	0.0007004	10
	28	78	477.4305	7.790055	-13.05717	1	15.20442	-59.17921	-2.562459E-006	0.0006616	10
	29	81	376.6741	8.273642	-16.27831	1	18.26024	-63.05751	-2.954819E-006	0.0006651	10
	30	83	298.2954	8.889747	-20.20279	1	22.07216	-66.24928	-2.96271E-006	0.0006584	10
	31	85	237.7717	9.65867	-24.89775	1	26.70558	-68.79706	-2.690588E-006	0.0006574	10
	32	88	189.0121	10.65535	-30.73096	1	32.52581	-70.87702	-1.939226E-006	0.0006613	10
	33	90	150.2404	11.92486	-37.88293	1	39.71547	-72.52695	-3.03879E-006	0.0006585	10
	34	93	119.1737	13.54164	-46.68204	1	48.60648	-73.82349	1.465858E-006	6.581604E-005	9
	35	95	95.0169	15.56225	-57.26891	1	59.34569	-74.79755	1.412544E-006	6.089025E-005	9
	36	97	75.60484	18.14799	-70.32664	1	72.63048	-75.53033	1.337547E-006	5.869725E-005	9
	37	100	54.50582	23.0983	-94.18508	1	96.9761	-76.22053	1.338232E-006	4.378506E-005	9
	38	103	45.95588	26.45689	-109.6421	1	112.789	-76.43373	1.571124E-006	5.94392E-005	9
	39	105	37.20238	31.56914	-132.2178	1	135.9344	-76.57113	1.317919E-006	6.393127E-005	9
	40	107	30.04808	38.01403	-159.5376	1	164.004	-76.59768	1.444831E-006	5.875584E-005	9
	41	110	23.91582	46.83403	-194.8772	1	200.426	-76.48662	1.446758E-006	5.265035E-005	9
	42	112	18.60119	59.19286	-242.2246	1	249.3522	-76.26766	1.753921E-006	5.604073E-005	9
	43	114	15.02404	72.7172	-291.1709	1	300.1138	-75.97775	1.361216E-006	5.364493E-005	9
	44	117	12.01923	90.41726	-351.9117	1	363.3416	-75.59058	1.650086E-006	5.19001E-005	9
	45	119	9.450605	113.9926	-429.2115	1	444.091	-75.1264	9.759942E-007	0.0006329	8
	46	122	7.512019	142.4489	-519.2571	1	538.4418	-74.65932	9.681345E-007	0.0006486	8
	47	124	5.978954	177.2727	-626.8469	1	651.4312	-74.20906	8.880099E-007	0.0006332	8
	48	127	4.734848	221.2926	-758.4478	1	790.0718	-73.73431	8.666956E-007	0.0006519	8
	49	131	3.75601	273.3658	-914.9753	1	954.939	-73.36551	8.373943E-007	0.0006251	8
	50	134	3.004808	333.4198	-1095.474	1	1145.09	-73.07178	8.167411E-007	0.0006614	8
	51	138	2.372217	411.4863	-1327.352	1	1389.671	-72.77628	8.374402E-007	0.0007093	8
	52	142	1.878005	502.1022	-1606.384	1	1683.026	-72.64249	8.0302E-007	0.0006074	8
	53	147	1.512097	606.3788	-1915.595	1	2009.279	-72.43489	8.474329E-007	0.0006888	8
	54	152	1.201923	740.3347	-2323.9	1	2438.977	-72.32947	8.175548E-007	0.0005991	8
	55	158	0.956633	909.8864	-2812.738	1	2956.246	-72.07424	7.616355E-007	-4.747053E-006	8
