EXPLAIN
TAG	EISPOT
TITLE	LABEL	Potentiostatic EIS	Test Identifier
DATE	LABEL	8/30/2020	Date
TIME	LABEL	10:52:09	Time
NOTES	NOTES	1	Notes...
	
PSTAT	PSTAT	REF3000-16137	Potentiostat
VDC	POTEN	0.00000E+000	T	DC Voltage (V)
FREQINIT	QUANT	3.00000E+005	Initial Freq. (Hz)
FREQFINAL	QUANT	1.00000E+000	Final Freq. (Hz)
PTSPERDEC	QUANT	1.00000E+001	Points/decade
VAC	QUANT	5.00000E+001	AC Voltage (mV rms)
AREA	QUANT	1.00000E+000	Sample Area (cm^2)
SPEED	SELECTOR	2	Optimize for:
ZGUESS	QUANT	1.00000E+003	Estimated Z (ohms)
EOC	QUANT	0	Open Circuit (V)
SEQUENCER	TOGGLE	TRUE	Run as Sequence
PSTATMODEL	IQUANT	5	Pstat Model
PSTATSECTION	LABEL	REF3000-16137	Pstat Section
PSTATSERIALNO	LABEL	16137	Pstat Serial Number
CTRLMODE	IQUANT	1	Control Mode
IESTAB	IQUANT	0	I/E Stability
CASPEED	IQUANT	1	Control Amp Speed
CONVENTION	IQUANT	1	Current Convention
ICHRANGE	IQUANT	2	Ich Range
ICHRANGEMODE	TOGGLE	F	Ich Auto Range
ICHOFFSETENABLE	TOGGLE	T	Ich Offset Enable
ICHOFFSET	QUANT	0	Ich Offset (V)
ICHFILTER	IQUANT	3	Ich Filter
VCHRANGE	IQUANT	2	Vch Range
VCHRANGEMODE	TOGGLE	F	Vch Auto Range
VCHOFFSETENABLE	TOGGLE	T	Vch Offset Enable
VCHOFFSET	QUANT	0	Vch Offset (V)
VCHFILTER	IQUANT	3	Vch Filter
ACHRANGE	IQUANT	2	Ach Range
ACHOFFSETENABLE	TOGGLE	F	Ach Offset Enable
ACHOFFSET	QUANT	0	Ach Offset (V)
ACHFILTER	IQUANT	3	Ach Filter
IERANGELOWERLIMIT	IQUANT	2	I/E Range Lower Limit
IERANGEMODE	TOGGLE	F	I/E AutoRange
IERANGE	IQUANT	11	I/E Range
POSFEEDENABLE	TOGGLE	F	Positive Feedback IR Comp
POSFEEDRESISTANCE	QUANT	0	Positive Feedback Resistance (ohm)
ACHSELECT	IQUANT	0	Ach Select
CABLEID	IQUANT	13	Cable ID
DCCALDATE	LABEL	7/31/2020	DC Calibration Date
ACCALDATE	LABEL	7/31/2020	AC Calibration Date
THERMOSELECT	IQUANT	1	Thermo Select
FRAMEWORKVERSION	QUANT	6.33	Framework Version
INSTRUMENTVERSION	LABEL	3.50	Instrument Version
COMPLIANCEVOLTAGE	IQUANT	0	Compliance Voltage
ZCURVE	TABLE
	Pt	Time	Freq	Zreal	Zimag	Zsig	Zmod	Zphz	Idc	Vdc	IERange
	#	s	Hz	ohm	ohm	V	ohm	°	A	V	#
	0	10	300046.9	4.522239	1.861049	1	4.89021	22.36876	3.417104E-005	-3.78955E-005	10
	1	13	238359.4	4.500317	1.486113	1	4.739344	18.27447	7.732856E-005	-0.0005076	10
	2	16	189328.1	4.495554	1.175413	1	4.646677	14.65261	-1.350304E-005	3.434042E-005	10
	3	19	150421.9	4.492128	0.9163505	1	4.584639	11.5296	3.751632E-005	0.0002181	10
	4	21	119484.4	4.500769	0.7186362	1	4.55778	9.07182	-5.620194E-005	0.0005307	10
	5	24	94921.88	4.508181	0.5619351	1	4.543067	7.105151	-3.62247E-006	0.0004724	10
	6	26	75421.88	4.514606	0.4135851	1	4.533511	5.234282	-1.169209E-005	0.0004917	10
	7	29	59859.37	4.522714	0.2835842	1	4.531596	3.587876	3.233089E-005	0.0004918	10
	8	31	47578.12	4.534266	0.1691549	1	4.53742	2.13648	1.429759E-005	0.0005462	10
	9	34	37828.12	4.547974	0.0627233	1	4.548406	0.790144	-2.077027E-005	0.0005973	10
	10	36	30046.88	4.563893	-0.0405951	1	4.564074	-0.5096228	-2.72717E-005	0.0006794	10
	11	39	23859.38	4.580579	-0.1457395	1	4.582897	-1.822355	-9.134445E-006	0.000602	10
	12	41	18984.38	4.598441	-0.2555061	1	4.605534	-3.180292	2.969206E-005	0.0005785	10
	13	43	15046.87	4.619181	-0.379485	1	4.634743	-4.696539	1.200441E-005	0.0006039	10
	14	46	11953.13	4.642407	-0.5198374	1	4.671422	-6.389127	2.571967E-005	0.0006032	10
	15	48	9515.62	4.669266	-0.6840205	1	4.719103	-8.334219	2.98967E-005	0.0006194	10
	16	50	7546.875	4.699884	-0.8828092	1	4.782077	-10.63827	1.538847E-006	0.000674	10
	17	53	5928.309	4.735494	-1.135324	1	4.869689	-13.48207	1.066542E-005	0.0006159	10
	18	55	4733.456	4.775805	-1.423944	1	4.983566	-16.60236	9.44913E-006	0.0006469	10
	19	57	3796.875	4.82254	-1.768402	1	5.136549	-20.13774	2.491977E-005	0.0005914	10
	20	60	2987.132	4.882529	-2.232142	1	5.36857	-24.56842	9.474945E-006	0.0006433	10
	21	62	2390.625	4.950721	-2.765146	1	5.670597	-29.18485	1.972487E-005	0.0006122	10
	22	64	1884.191	5.040016	-3.46897	1	6.118457	-34.53907	-2.15015E-005	0.0006797	10
	23	67	1516.544	5.143428	-4.261146	1	6.679238	-39.64053	-3.151791E-005	0.0006826	10
	24	69	1193.986	5.283833	-5.340431	1	7.512595	-45.30523	1.228783E-005	0.000622	10
	25	71	946.5144	5.455044	-6.647988	1	8.599607	-50.62922	1.079192E-005	0.0006211	10
	26	74	751.7689	5.681667	-8.248844	1	10.01622	-55.44157	-2.597759E-006	0.0006599	10
	27	76	597.4265	5.966259	-10.21999	1	11.83404	-59.72434	-3.285155E-005	0.0007016	10
	28	78	477.4305	6.326668	-12.58618	1	14.08683	-63.31281	-2.028648E-006	0.0006637	10
	29	81	376.6741	6.816488	-15.66843	1	17.08696	-66.48875	-3.052897E-006	0.0006606	10
	30	83	298.2954	7.440559	-19.41475	1	20.79169	-69.03104	-2.440143E-006	0.0006602	10
	31	85	237.7717	8.218996	-23.88759	1	25.262	-71.01321	-3.202273E-006	0.0006625	10
	32	88	189.0121	9.225351	-29.43143	1	30.84341	-72.59628	-2.569555E-006	0.0006593	10
	33	90	150.2404	10.50472	-36.22185	1	37.71434	-73.82728	-2.177394E-006	0.0006588	10
	34	92	119.1737	12.13654	-44.56156	1	46.18472	-74.76476	1.62483E-006	5.894148E-005	9
	35	95	95.0169	14.18042	-54.58828	1	56.40004	-75.43811	1.609344E-006	5.81391E-005	9
	36	97	75.60484	16.80878	-66.92606	1	69.00459	-75.90152	1.545342E-006	5.072053E-005	9
	37	100	54.50582	21.88114	-89.42545	1	92.06354	-76.25069	1.367138E-006	7.224148E-005	9
	38	102	45.95588	25.3392	-103.9089	1	106.9539	-76.29535	1.665488E-006	5.44158E-005	9
	39	105	37.20238	30.60325	-125.0139	1	128.7052	-76.24458	1.541439E-006	5.739799E-005	9
	40	107	30.04808	37.30506	-150.5604	1	155.1132	-76.08382	1.531868E-006	7.654823E-005	9
	41	110	23.91582	46.3669	-183.288	1	189.0619	-75.80356	1.508785E-006	4.977516E-005	9
	42	112	18.60119	59.06207	-226.9157	1	234.4762	-75.41065	1.637134E-006	6.299355E-005	9
	43	114	15.02404	72.88758	-271.5308	1	281.1433	-74.97419	1.551463E-006	4.895754E-005	9
	44	116	12.01923	90.70773	-327.0243	1	339.3711	-74.49741	1.448956E-006	5.152309E-005	9
	45	119	9.450605	114.6829	-398.553	1	414.7249	-73.94692	1.765352E-006	4.485925E-005	9
	46	121	7.512019	142.1175	-478.0424	1	498.7203	-73.44329	1.137444E-006	0.0006462	8
	47	124	5.978954	175.695	-574.834	1	601.0847	-73.0045	1.047188E-006	0.0006331	8
	48	127	4.734848	217.1521	-693.543	1	726.744	-72.61438	1.102766E-006	0.0006617	8
	49	130	3.75601	267.442	-834.9902	1	876.7747	-72.24007	9.280424E-007	0.0006184	8
	50	134	3.004808	326.1993	-998.678	1	1050.602	-71.91135	9.974424E-007	0.0006435	8
	51	138	2.372217	404.3953	-1208.247	1	1274.126	-71.49482	1.003933E-006	0.0006849	8
	52	142	1.878005	499.4544	-1464.189	1	1547.03	-71.1648	9.25209E-007	0.0006191	8
	53	147	1.512097	608.7372	-1744.089	1	1847.27	-70.75954	9.820793E-007	0.0006232	8
	54	152	1.201923	763.9841	-2109.242	1	2243.34	-70.08921	9.409528E-007	0.0006092	8
	55	158	0.956633	962.904	-2537.652	1	2714.196	-69.2209	8.826725E-007	-5.276687E-006	8
