EXPLAIN
TAG	EISPOT
TITLE	LABEL	Potentiostatic EIS	Test Identifier
DATE	LABEL	8/30/2020	Date
TIME	LABEL	11:08:49	Time
NOTES	NOTES	1	Notes...
	
PSTAT	PSTAT	REF3000-16137	Potentiostat
VDC	POTEN	0.00000E+000	T	DC Voltage (V)
FREQINIT	QUANT	3.00000E+005	Initial Freq. (Hz)
FREQFINAL	QUANT	1.00000E+000	Final Freq. (Hz)
PTSPERDEC	QUANT	1.00000E+001	Points/decade
VAC	QUANT	5.00000E+001	AC Voltage (mV rms)
AREA	QUANT	1.00000E+000	Sample Area (cm^2)
SPEED	SELECTOR	2	Optimize for:
ZGUESS	QUANT	1.00000E+003	Estimated Z (ohms)
EOC	QUANT	0	Open Circuit (V)
SEQUENCER	TOGGLE	TRUE	Run as Sequence
PSTATMODEL	IQUANT	5	Pstat Model
PSTATSECTION	LABEL	REF3000-16137	Pstat Section
PSTATSERIALNO	LABEL	16137	Pstat Serial Number
CTRLMODE	IQUANT	1	Control Mode
IESTAB	IQUANT	0	I/E Stability
CASPEED	IQUANT	1	Control Amp Speed
CONVENTION	IQUANT	1	Current Convention
ICHRANGE	IQUANT	2	Ich Range
ICHRANGEMODE	TOGGLE	F	Ich Auto Range
ICHOFFSETENABLE	TOGGLE	T	Ich Offset Enable
ICHOFFSET	QUANT	0	Ich Offset (V)
ICHFILTER	IQUANT	3	Ich Filter
VCHRANGE	IQUANT	2	Vch Range
VCHRANGEMODE	TOGGLE	F	Vch Auto Range
VCHOFFSETENABLE	TOGGLE	T	Vch Offset Enable
VCHOFFSET	QUANT	0	Vch Offset (V)
VCHFILTER	IQUANT	3	Vch Filter
ACHRANGE	IQUANT	2	Ach Range
ACHOFFSETENABLE	TOGGLE	F	Ach Offset Enable
ACHOFFSET	QUANT	0	Ach Offset (V)
ACHFILTER	IQUANT	3	Ach Filter
IERANGELOWERLIMIT	IQUANT	2	I/E Range Lower Limit
IERANGEMODE	TOGGLE	F	I/E AutoRange
IERANGE	IQUANT	11	I/E Range
POSFEEDENABLE	TOGGLE	F	Positive Feedback IR Comp
POSFEEDRESISTANCE	QUANT	0	Positive Feedback Resistance (ohm)
ACHSELECT	IQUANT	0	Ach Select
CABLEID	IQUANT	13	Cable ID
DCCALDATE	LABEL	7/31/2020	DC Calibration Date
ACCALDATE	LABEL	7/31/2020	AC Calibration Date
THERMOSELECT	IQUANT	1	Thermo Select
FRAMEWORKVERSION	QUANT	6.33	Framework Version
INSTRUMENTVERSION	LABEL	3.50	Instrument Version
COMPLIANCEVOLTAGE	IQUANT	0	Compliance Voltage
ZCURVE	TABLE
	Pt	Time	Freq	Zreal	Zimag	Zsig	Zmod	Zphz	Idc	Vdc	IERange
	#	s	Hz	ohm	ohm	V	ohm	°	A	V	#
	0	6	300046.9	68.7158	1.241606	1	68.72701	1.035148	8.097053E-006	-0.0015037	9
	1	10	238359.4	69.76798	0.8957399	1	69.77374	0.7355709	-6.085973E-005	0.0021604	9
	2	13	189328.1	70.8098	0.7284924	1	70.81355	0.5894392	7.557993E-006	-0.0008827	9
	3	15	150421.9	71.70087	0.4225448	1	71.70211	0.3376494	1.537697E-005	-0.000539	9
	4	18	119484.4	72.75269	0.3501512	1	72.75352	0.2757566	-3.524847E-005	4.035425E-005	9
	5	20	94921.88	73.70908	0.4456774	1	73.71043	0.3464312	-1.817829E-005	0.0005954	9
	6	23	75421.88	74.61707	0.2563486	1	74.61751	0.1968401	-1.013039E-005	0.0006441	9
	7	25	59859.37	75.56467	0.0850023	1	75.56471	0.0644517	-1.13665E-005	3.418904E-005	9
	8	28	47578.12	76.56227	-0.0582451	1	76.56229	-0.043588	2.008278E-005	-0.0007091	9
	9	31	37828.12	77.57082	-0.1390377	1	77.57094	-0.1026967	2.760869E-006	0.0002984	9
	10	33	30046.88	78.59878	-0.2563964	1	78.5992	-0.1869034	1.564119E-005	-0.0006484	9
	11	36	23859.38	79.60458	-0.3770383	1	79.60547	-0.2713731	-1.511322E-005	0.0002356	9
	12	38	18984.38	80.55776	-0.505887	1	80.55935	-0.3598016	-1.97159E-005	0.0006272	9
	13	40	15046.87	81.53526	-0.6781802	1	81.53808	-0.4765542	4.18013E-006	0.0003456	9
	14	43	11953.13	82.55178	-0.7615609	1	82.55529	-0.5285529	-1.798666E-005	0.0007734	9
	15	45	9515.62	83.57257	-1.014366	1	83.57873	-0.6953959	2.364706E-005	-0.0005327	9
	16	47	7546.875	84.60601	-1.286316	1	84.61579	-0.871035	-6.979591E-006	-0.0001247	9
	17	50	5928.309	85.65747	-1.617115	1	85.67274	-1.08155	-3.885541E-006	0.0006225	9
	18	52	4733.456	86.72981	-1.972998	1	86.75225	-1.303185	1.307472E-005	7.20985E-005	9
	19	54	3796.875	87.83757	-2.475677	1	87.87245	-1.614438	2.265363E-005	-0.0003749	9
	20	57	2987.132	88.91762	-3.065954	1	88.97046	-1.974824	1.112699E-005	-0.000616	9
	21	59	2390.625	90.13528	-3.890126	1	90.21919	-2.47128	2.252668E-005	-0.0006791	9
	22	61	1884.191	91.32392	-4.777538	1	91.4488	-2.994653	2.029312E-005	-0.0002072	9
	23	63	1516.544	92.53851	-5.886737	1	92.72556	-3.639904	1.118386E-005	-0.0006176	9
	24	66	1193.986	93.89159	-7.341905	1	94.17821	-4.471177	1.34965E-005	6.884959E-005	9
	25	68	946.5144	95.2017	-9.125224	1	95.638	-5.47516	-4.548301E-006	0.0006253	9
	26	71	751.7689	96.6139	-11.34685	1	97.278	-6.698434	3.810134E-006	-0.0004518	9
	27	73	597.4265	98.1562	-14.06994	1	99.1595	-8.157344	2.123523E-005	-0.0007014	9
	28	75	477.4305	99.6852	-17.39779	1	101.192	-9.89996	1.300224E-006	5.341073E-005	9
	29	77	376.6741	101.3875	-21.75009	1	103.6942	-12.10783	1.324181E-006	5.318492E-005	9
	30	80	298.2954	103.228	-27.08941	1	106.7232	-14.70419	1.324701E-006	4.718665E-005	9
	31	82	237.7717	105.2749	-33.52776	1	110.4849	-17.66554	1.241573E-006	5.584558E-005	9
	32	85	189.0121	107.5265	-41.58619	1	115.2881	-21.14413	1.252204E-006	5.592352E-005	9
	33	87	150.2404	110.0511	-51.56414	1	121.5324	-25.1053	1.252269E-006	5.783769E-005	9
	34	89	119.1737	112.9076	-64.0369	1	129.8031	-29.56026	1.313427E-006	5.698787E-005	9
	35	92	95.0169	116.1431	-79.11388	1	140.5284	-34.26174	1.236049E-006	6.024844E-005	9
	36	94	75.60484	119.9578	-97.9018	1	154.8374	-39.21908	1.26107E-006	5.420475E-005	9
	37	97	54.50582	125.8684	-132.7125	1	182.9084	-46.51615	1.190784E-006	4.948774E-005	9
	38	99	45.95588	130.2949	-155.6132	1	202.9587	-50.06057	1.273413E-006	5.903297E-005	9
	39	102	37.20238	136.1815	-189.4064	1	233.2813	-54.2842	1.203086E-006	6.401908E-005	9
	40	104	30.04808	143.323	-231.0277	1	271.8736	-58.18573	1.174997E-006	5.350191E-005	9
	41	106	23.91582	152.5402	-285.5696	1	323.7569	-61.89061	1.32518E-006	5.602503E-005	9
	42	109	18.60119	164.9253	-360.3714	1	396.3179	-65.40862	1.198221E-006	5.955628E-005	9
	43	111	15.02404	177.5633	-437.1476	1	471.8334	-67.89369	1.421332E-007	0.0006267	8
	44	113	12.01923	194.9038	-536.7753	1	571.0649	-70.04398	2.067894E-007	0.0006393	8
	45	116	9.450605	218.4818	-669.4473	1	704.1974	-71.92532	1.614804E-007	0.0006404	8
	46	118	7.512019	246.9702	-825.5906	1	861.7391	-73.34578	1.511953E-007	0.0006292	8
	47	121	5.978954	282.2066	-1016.279	1	1054.734	-74.48077	1.603326E-007	0.0006397	8
	48	124	4.734848	327.3276	-1256.981	1	1298.901	-75.4039	2.568569E-007	0.0006574	8
	49	127	3.75601	384.2975	-1549.855	1	1596.789	-76.07397	1.629617E-007	0.0006304	8
	50	131	3.004808	452.7912	-1894.744	1	1948.095	-76.55996	2.214211E-007	0.0006354	8
	51	135	2.372217	547.7148	-2343.577	1	2406.729	-76.84557	2.029844E-007	0.0006864	8
	52	139	1.878005	659.4982	-2898.453	1	2972.535	-77.18147	1.666189E-007	0.0006133	8
	53	143	1.512097	789.2789	-3515.399	1	3602.914	-77.34577	1.955478E-007	0.0006248	8
	54	149	1.201923	971.281	-4345.554	1	4452.777	-77.40083	3.451022E-009	0.0005838	7
	55	155	0.956633	1194.159	-5336.993	1	5468.959	-77.38773	-3.270962E-009	-3.365438E-005	7
