EXPLAIN
TAG	EISPOT
TITLE	LABEL	Potentiostatic EIS	Test Identifier
DATE	LABEL	8/30/2020	Date
TIME	LABEL	10:49:21	Time
NOTES	NOTES	1	Notes...
	
PSTAT	PSTAT	REF3000-16137	Potentiostat
VDC	POTEN	0.00000E+000	T	DC Voltage (V)
FREQINIT	QUANT	3.00000E+005	Initial Freq. (Hz)
FREQFINAL	QUANT	1.00000E+000	Final Freq. (Hz)
PTSPERDEC	QUANT	1.00000E+001	Points/decade
VAC	QUANT	5.00000E+001	AC Voltage (mV rms)
AREA	QUANT	1.00000E+000	Sample Area (cm^2)
SPEED	SELECTOR	2	Optimize for:
ZGUESS	QUANT	1.00000E+003	Estimated Z (ohms)
EOC	QUANT	0	Open Circuit (V)
SEQUENCER	TOGGLE	TRUE	Run as Sequence
PSTATMODEL	IQUANT	5	Pstat Model
PSTATSECTION	LABEL	REF3000-16137	Pstat Section
PSTATSERIALNO	LABEL	16137	Pstat Serial Number
CTRLMODE	IQUANT	1	Control Mode
IESTAB	IQUANT	0	I/E Stability
CASPEED	IQUANT	1	Control Amp Speed
CONVENTION	IQUANT	1	Current Convention
ICHRANGE	IQUANT	2	Ich Range
ICHRANGEMODE	TOGGLE	F	Ich Auto Range
ICHOFFSETENABLE	TOGGLE	T	Ich Offset Enable
ICHOFFSET	QUANT	0	Ich Offset (V)
ICHFILTER	IQUANT	3	Ich Filter
VCHRANGE	IQUANT	2	Vch Range
VCHRANGEMODE	TOGGLE	F	Vch Auto Range
VCHOFFSETENABLE	TOGGLE	T	Vch Offset Enable
VCHOFFSET	QUANT	0	Vch Offset (V)
VCHFILTER	IQUANT	3	Vch Filter
ACHRANGE	IQUANT	2	Ach Range
ACHOFFSETENABLE	TOGGLE	F	Ach Offset Enable
ACHOFFSET	QUANT	0	Ach Offset (V)
ACHFILTER	IQUANT	3	Ach Filter
IERANGELOWERLIMIT	IQUANT	2	I/E Range Lower Limit
IERANGEMODE	TOGGLE	F	I/E AutoRange
IERANGE	IQUANT	11	I/E Range
POSFEEDENABLE	TOGGLE	F	Positive Feedback IR Comp
POSFEEDRESISTANCE	QUANT	0	Positive Feedback Resistance (ohm)
ACHSELECT	IQUANT	0	Ach Select
CABLEID	IQUANT	13	Cable ID
DCCALDATE	LABEL	7/31/2020	DC Calibration Date
ACCALDATE	LABEL	7/31/2020	AC Calibration Date
THERMOSELECT	IQUANT	1	Thermo Select
FRAMEWORKVERSION	QUANT	6.33	Framework Version
INSTRUMENTVERSION	LABEL	3.50	Instrument Version
COMPLIANCEVOLTAGE	IQUANT	0	Compliance Voltage
ZCURVE	TABLE
	Pt	Time	Freq	Zreal	Zimag	Zsig	Zmod	Zphz	Idc	Vdc	IERange
	#	s	Hz	ohm	ohm	V	ohm	°	A	V	#
	0	10	300046.9	3.805791	1.865573	1	4.238444	26.11378	7.986476E-005	-0.0002572	10
	1	13	238359.4	3.781925	1.491327	1	4.065343	21.52081	8.634163E-007	-0.0003973	10
	2	16	189328.1	3.771223	1.181307	1	3.951912	17.39277	7.771904E-005	-0.0001335	10
	3	19	150421.9	3.764892	0.9207848	1	3.875856	13.74313	7.298747E-005	8.346942E-005	10
	4	21	119484.4	3.759797	0.7205423	1	3.828218	10.84885	6.549955E-005	0.0003071	10
	5	24	94921.88	3.763887	0.5639753	1	3.805906	8.521716	-5.566855E-006	0.000444	10
	6	26	75421.88	3.763806	0.4153101	1	3.78665	6.296721	5.960768E-006	0.0004464	10
	7	29	59859.37	3.768237	0.2872001	1	3.779166	4.358431	-4.139488E-006	0.0005195	10
	8	31	47578.12	3.773054	0.1745821	1	3.777091	2.64923	-2.728109E-005	0.0005654	10
	9	34	37828.12	3.780385	0.0696297	1	3.781026	1.055194	-1.020082E-005	0.0005884	10
	10	36	30046.88	3.789915	-0.0322917	1	3.790052	-0.4881729	-2.386805E-005	0.0006549	10
	11	39	23859.38	3.800599	-0.1357949	1	3.803024	-2.0463	1.330041E-005	0.0006331	10
	12	41	18984.38	3.813287	-0.2443496	1	3.821108	-3.666414	1.166624E-005	0.0006429	10
	13	43	15046.87	3.827379	-0.3657232	1	3.844813	-5.458296	4.321522E-006	0.0006234	10
	14	46	11953.13	3.844836	-0.5033849	1	3.877649	-7.45902	3.133332E-005	0.000621	10
	15	48	9515.62	3.865542	-0.6630031	1	3.921988	-9.73246	-2.214827E-005	0.0006913	10
	16	50	7546.875	3.888957	-0.8572727	1	3.982323	-12.43134	-1.792283E-005	0.0006404	10
	17	53	5928.309	3.91897	-1.103427	1	4.071348	-15.72513	2.992718E-005	0.0006253	10
	18	55	4733.456	3.953452	-1.384496	1	4.188868	-19.30022	-2.761343E-005	0.0006752	10
	19	57	3796.875	3.993897	-1.721476	1	4.349103	-23.31733	2.682511E-005	0.0006313	10
	20	60	2987.132	4.047667	-2.17152	1	4.593376	-28.21298	2.612357E-005	0.0006191	10
	21	62	2390.625	4.111076	-2.690469	1	4.913204	-33.2025	-8.774359E-006	0.0006808	10
	22	64	1884.191	4.195028	-3.374944	1	5.384098	-38.81704	1.949831E-005	0.000618	10
	23	67	1516.544	4.29328	-4.145346	1	5.967926	-43.99567	-1.675111E-005	0.0006479	10
	24	69	1193.986	4.430006	-5.194552	1	6.827029	-49.54187	2.637046E-005	0.0006222	10
	25	71	946.5144	4.60876	-6.453949	1	7.930583	-54.4694	2.691834E-006	0.0006257	10
	26	74	751.7689	4.828657	-8.00824	1	9.351355	-58.91166	1.30824E-005	0.0006194	10
	27	76	597.4265	5.115627	-9.91373	1	11.15579	-62.70562	-3.155634E-005	0.0006848	10
	28	78	477.4305	5.482347	-12.19621	1	13.37175	-65.7955	-1.375907E-006	0.0006535	10
	29	81	376.6741	5.980503	-15.1615	1	16.29839	-68.47308	-1.797773E-006	0.0006534	10
	30	83	298.2954	6.61405	-18.75899	1	19.89083	-70.57835	-2.277824E-006	0.0006591	10
	31	85	237.7717	7.403783	-23.0465	1	24.20655	-72.19017	-2.520971E-006	0.000653	10
	32	88	189.0121	8.423901	-28.35349	1	29.57841	-73.45317	-2.093796E-006	0.0006554	10
	33	90	150.2404	9.72324	-34.84451	1	36.1757	-74.40842	-1.819543E-006	0.0006541	10
	34	93	119.1737	11.38891	-42.80229	1	44.29157	-75.09987	1.936721E-006	6.108962E-005	9
	35	95	95.0169	13.48212	-52.35147	1	54.05963	-75.55837	1.868756E-006	5.844024E-005	9
	36	97	75.60484	16.18349	-64.0667	1	66.07909	-75.82343	1.71486E-006	5.382998E-005	9
	37	100	54.50582	21.41423	-85.32957	1	87.97559	-75.91205	1.664472E-006	4.954678E-005	9
	38	102	45.95588	24.97954	-98.9779	1	102.0814	-75.83576	1.870004E-006	5.553309E-005	9
	39	105	37.20238	30.39622	-118.7712	1	122.5991	-75.64483	1.936327E-006	5.080627E-005	9
	40	107	30.04808	37.22271	-142.5372	1	147.3173	-75.36442	1.904755E-006	5.235606E-005	9
	41	110	23.91582	46.49549	-172.9482	1	179.0892	-74.95236	1.763607E-006	5.102523E-005	9
	42	112	18.60119	59.3423	-213.2544	1	221.3571	-74.44971	1.891018E-006	6.729072E-005	9
	43	114	15.02404	73.07478	-254.2947	1	264.586	-73.96733	1.826051E-006	5.90096E-005	9
	44	117	12.01923	90.86476	-305.1483	1	318.3896	-73.41792	2.003573E-006	6.07022E-005	9
	45	119	9.450605	114.2676	-370.4861	1	387.7074	-72.85886	1.901874E-006	4.583577E-005	9
	46	121	7.512019	141.216	-443.6305	1	465.5641	-72.34274	1.319642E-006	0.0006407	8
	47	124	5.978954	174.0898	-532.1238	1	559.8777	-71.88396	1.357689E-006	0.0006345	8
	48	127	4.734848	216.0769	-641.132	1	676.5644	-71.37495	1.287013E-006	0.0006447	8
	49	130	3.75601	267.1796	-771.0745	1	816.0519	-70.88865	1.249035E-006	0.0006272	8
	50	134	3.004808	328.8621	-921.2448	1	978.183	-70.35467	1.177614E-006	0.0006731	8
	51	138	2.372217	412.5873	-1113.068	1	1187.076	-69.66148	1.23016E-006	0.0007061	8
	52	142	1.878005	520.2969	-1338.814	1	1436.361	-68.76262	1.180979E-006	0.0006105	8
	53	147	1.512097	650.5184	-1584.622	1	1712.951	-67.68089	1.205002E-006	0.0007164	8
	54	152	1.201923	827.7189	-1894.28	1	2067.224	-66.39674	1.24988E-006	0.000603	8
	55	158	0.956633	1057.738	-2245.369	1	2482.034	-64.77603	1.042483E-006	-7.16322E-006	8
