EXPLAIN
TAG	EISPOT
TITLE	LABEL	Potentiostatic EIS	Test Identifier
DATE	LABEL	8/30/2020	Date
TIME	LABEL	10:46:32	Time
NOTES	NOTES	1	Notes...
	
PSTAT	PSTAT	REF3000-16137	Potentiostat
VDC	POTEN	0.00000E+000	T	DC Voltage (V)
FREQINIT	QUANT	3.00000E+005	Initial Freq. (Hz)
FREQFINAL	QUANT	1.00000E+000	Final Freq. (Hz)
PTSPERDEC	QUANT	1.00000E+001	Points/decade
VAC	QUANT	5.00000E+001	AC Voltage (mV rms)
AREA	QUANT	1.00000E+000	Sample Area (cm^2)
SPEED	SELECTOR	2	Optimize for:
ZGUESS	QUANT	1.00000E+003	Estimated Z (ohms)
EOC	QUANT	0	Open Circuit (V)
SEQUENCER	TOGGLE	TRUE	Run as Sequence
PSTATMODEL	IQUANT	5	Pstat Model
PSTATSECTION	LABEL	REF3000-16137	Pstat Section
PSTATSERIALNO	LABEL	16137	Pstat Serial Number
CTRLMODE	IQUANT	1	Control Mode
IESTAB	IQUANT	0	I/E Stability
CASPEED	IQUANT	1	Control Amp Speed
CONVENTION	IQUANT	1	Current Convention
ICHRANGE	IQUANT	2	Ich Range
ICHRANGEMODE	TOGGLE	F	Ich Auto Range
ICHOFFSETENABLE	TOGGLE	T	Ich Offset Enable
ICHOFFSET	QUANT	0	Ich Offset (V)
ICHFILTER	IQUANT	3	Ich Filter
VCHRANGE	IQUANT	2	Vch Range
VCHRANGEMODE	TOGGLE	F	Vch Auto Range
VCHOFFSETENABLE	TOGGLE	T	Vch Offset Enable
VCHOFFSET	QUANT	0	Vch Offset (V)
VCHFILTER	IQUANT	3	Vch Filter
ACHRANGE	IQUANT	2	Ach Range
ACHOFFSETENABLE	TOGGLE	F	Ach Offset Enable
ACHOFFSET	QUANT	0	Ach Offset (V)
ACHFILTER	IQUANT	3	Ach Filter
IERANGELOWERLIMIT	IQUANT	2	I/E Range Lower Limit
IERANGEMODE	TOGGLE	F	I/E AutoRange
IERANGE	IQUANT	11	I/E Range
POSFEEDENABLE	TOGGLE	F	Positive Feedback IR Comp
POSFEEDRESISTANCE	QUANT	0	Positive Feedback Resistance (ohm)
ACHSELECT	IQUANT	0	Ach Select
CABLEID	IQUANT	13	Cable ID
DCCALDATE	LABEL	7/31/2020	DC Calibration Date
ACCALDATE	LABEL	7/31/2020	AC Calibration Date
THERMOSELECT	IQUANT	1	Thermo Select
FRAMEWORKVERSION	QUANT	6.33	Framework Version
INSTRUMENTVERSION	LABEL	3.50	Instrument Version
COMPLIANCEVOLTAGE	IQUANT	0	Compliance Voltage
ZCURVE	TABLE
	Pt	Time	Freq	Zreal	Zimag	Zsig	Zmod	Zphz	Idc	Vdc	IERange
	#	s	Hz	ohm	ohm	V	ohm	°	A	V	#
	0	11	300046.9	3.402525	1.874797	1	3.884848	28.85484	2.01889E-005	-8.501703E-005	10
	1	14	238359.4	3.388746	1.499309	1	3.705607	23.8664	-5.825269E-006	-0.0004712	10
	2	17	189328.1	3.372946	1.184086	1	3.574748	19.34383	1.575526E-006	-0.000113	10
	3	19	150421.9	3.356665	0.9254168	1	3.481895	15.41328	-2.026105E-005	8.374271E-005	10
	4	22	119484.4	3.357899	0.7043906	1	3.430984	11.84723	-0.0001237	0.0001081	11
	5	26	94921.88	3.351249	0.5371278	1	3.39402	9.105746	1.010439E-005	0.0005722	11
	6	28	75421.88	3.348938	0.3956046	1	3.372223	6.737036	-3.577418E-005	0.0005814	11
	7	31	59859.37	3.347173	0.272845	1	3.358275	4.660165	-4.77869E-005	0.0005754	11
	8	33	47578.12	3.348403	0.1642016	1	3.352427	2.807467	-3.810997E-005	0.0006038	11
	9	36	37828.12	3.351278	0.0635684	1	3.351881	1.08668	-1.369313E-005	0.000663	11
	10	38	30046.88	3.354897	-0.0348145	1	3.355078	-0.5945488	2.162586E-005	0.0006728	11
	11	41	23859.38	3.361131	-0.1346447	1	3.363827	-2.294004	2.127783E-005	0.0006871	11
	12	43	18984.38	3.370083	-0.2400049	1	3.378619	-4.073516	-3.22889E-005	0.0006677	11
	13	45	15046.87	3.379246	-0.3585002	1	3.39821	-6.055789	-1.326072E-005	0.0006564	11
	14	48	11953.13	3.391912	-0.4930059	1	3.427553	-8.269888	-4.8954E-005	0.0006259	11
	15	50	9515.62	3.407711	-0.6494482	1	3.469045	-10.79015	2.327685E-005	0.0007143	11
	16	52	7546.875	3.426788	-0.8395477	1	3.528132	-13.76606	-4.939616E-005	0.0006859	11
	17	55	5928.309	3.455116	-1.080135	1	3.620016	-17.36023	2.404643E-005	0.0006368	10
	18	57	4733.456	3.484848	-1.355674	1	3.739253	-21.25701	2.469008E-005	0.0006365	10
	19	59	3796.875	3.521399	-1.685532	1	3.904006	-25.5783	1.456434E-005	0.0006537	10
	20	62	2987.132	3.571182	-2.126719	1	4.156474	-30.77474	-2.307558E-005	0.0006633	10
	21	64	2390.625	3.629318	-2.633588	1	4.484165	-35.96623	-1.276234E-005	0.0006462	10
	22	66	1884.191	3.71098	-3.303991	1	4.968675	-41.67958	-2.210691E-005	0.0006684	10
	23	68	1516.544	3.806389	-4.055842	1	5.562234	-46.81727	-6.519898E-006	0.0006281	10
	24	71	1193.986	3.943356	-5.079793	1	6.430735	-52.17843	1.487313E-005	0.00062	10
	25	73	946.5144	4.112757	-6.315537	1	7.536629	-56.92732	1.374402E-005	0.0006202	10
	26	76	751.7689	4.340851	-7.821602	1	8.945415	-60.9705	-2.478254E-005	0.0006632	10
	27	78	597.4265	4.634083	-9.66946	1	10.72256	-64.39396	-2.153762E-005	0.0006588	10
	28	80	477.4305	5.000712	-11.88569	1	12.89483	-67.18186	-8.256112E-007	0.0006544	10
	29	83	376.6741	5.503413	-14.75867	1	15.75138	-69.54984	-3.682156E-007	0.0006552	10
	30	85	298.2954	6.143028	-18.23905	1	19.24577	-71.38615	-8.178649E-007	0.0006511	10
	31	87	237.7717	6.939332	-22.38413	1	23.43509	-72.77598	-9.837022E-007	0.0006516	10
	32	90	189.0121	7.969419	-27.50172	1	28.63313	-73.83952	-1.369406E-006	0.0006544	10
	33	92	150.2404	9.29058	-33.76553	1	35.02036	-74.61577	-1.339635E-006	0.0006519	10
	34	95	119.1737	10.98632	-41.42454	1	42.85664	-75.14638	2.301436E-006	5.440011E-005	9
	35	97	95.0169	13.12909	-50.59649	1	52.27215	-75.45336	2.323461E-006	5.26199E-005	9
	36	99	75.60484	15.89793	-61.81393	1	63.8256	-75.57669	2.159201E-006	5.396259E-005	9
	37	102	54.50582	21.27603	-82.08917	1	84.80154	-75.4697	2.068935E-006	5.085511E-005	9
	38	104	45.95588	24.92925	-95.0363	1	98.2516	-75.30173	2.150607E-006	5.618107E-005	9
	39	107	37.20238	30.47321	-113.7848	1	117.7947	-75.00721	2.233178E-006	5.6949E-005	9
	40	109	30.04808	37.47322	-136.1877	1	141.2491	-74.6153	2.166776E-006	6.017514E-005	9
	41	112	23.91582	46.87229	-164.7538	1	171.2916	-74.119	2.19576E-006	5.252508E-005	9
	42	114	18.60119	59.90963	-202.2969	1	210.9815	-73.5035	2.304656E-006	5.561111E-005	9
	43	116	15.02404	73.73853	-240.5258	1	251.5751	-72.95592	2.236694E-006	5.967374E-005	9
	44	118	12.01923	91.45141	-287.8033	1	301.9836	-72.372	2.394271E-006	5.259004E-005	9
	45	121	9.450605	114.8763	-348.3132	1	366.7678	-71.74706	1.936481E-006	5.459564E-005	9
	46	123	7.512019	141.538	-415.8156	1	439.2444	-71.20212	1.431488E-006	0.0005989	8
	47	126	5.978954	175.178	-497.9889	1	527.9018	-70.61961	1.40897E-006	0.0006345	8
	48	129	4.734848	218.5131	-598.7518	1	637.3788	-69.95056	1.526525E-006	0.0006233	8
	49	132	3.75601	272.5941	-718.1871	1	768.1799	-69.21531	1.636384E-006	0.0006406	8
	50	136	3.004808	339.2366	-854.3303	1	919.218	-68.34302	1.716243E-006	0.0006027	8
	51	140	2.372217	432.4751	-1023.695	1	1111.3	-67.09766	1.586244E-006	0.0005652	8
	52	144	1.878005	550.5646	-1220.993	1	1339.383	-65.72865	1.685119E-006	0.0006377	8
	53	149	1.512097	691.0286	-1425.828	1	1584.458	-64.14282	1.64075E-006	0.0005979	8
	54	154	1.201923	886.744	-1673.949	1	1894.313	-62.08841	1.610514E-006	0.000657	8
	55	160	0.956633	1130.462	-1939.085	1	2244.548	-59.75836	1.342674E-006	-3.528961E-006	8
