EXPLAIN
TAG	EISPOT
TITLE	LABEL	Potentiostatic EIS	Test Identifier
DATE	LABEL	8/9/2020	Date
TIME	LABEL	13:24:50	Time
NOTES	NOTES	1	Notes...
	
PSTAT	PSTAT	REF3000-16137	Potentiostat
VDC	POTEN	0.00000E+000	T	DC Voltage (V)
FREQINIT	QUANT	3.00000E+005	Initial Freq. (Hz)
FREQFINAL	QUANT	1.00000E+000	Final Freq. (Hz)
PTSPERDEC	QUANT	1.00000E+001	Points/decade
VAC	QUANT	5.00000E+001	AC Voltage (mV rms)
AREA	QUANT	1.00000E+000	Sample Area (cm^2)
SPEED	SELECTOR	2	Optimize for:
ZGUESS	QUANT	1.00000E+003	Estimated Z (ohms)
EOC	QUANT	0	Open Circuit (V)
SEQUENCER	TOGGLE	TRUE	Run as Sequence
PSTATMODEL	IQUANT	5	Pstat Model
PSTATSECTION	LABEL	REF3000-16137	Pstat Section
PSTATSERIALNO	LABEL	16137	Pstat Serial Number
CTRLMODE	IQUANT	1	Control Mode
IESTAB	IQUANT	0	I/E Stability
CASPEED	IQUANT	1	Control Amp Speed
CONVENTION	IQUANT	1	Current Convention
ICHRANGE	IQUANT	2	Ich Range
ICHRANGEMODE	TOGGLE	F	Ich Auto Range
ICHOFFSETENABLE	TOGGLE	T	Ich Offset Enable
ICHOFFSET	QUANT	0	Ich Offset (V)
ICHFILTER	IQUANT	3	Ich Filter
VCHRANGE	IQUANT	2	Vch Range
VCHRANGEMODE	TOGGLE	F	Vch Auto Range
VCHOFFSETENABLE	TOGGLE	T	Vch Offset Enable
VCHOFFSET	QUANT	0	Vch Offset (V)
VCHFILTER	IQUANT	3	Vch Filter
ACHRANGE	IQUANT	2	Ach Range
ACHOFFSETENABLE	TOGGLE	F	Ach Offset Enable
ACHOFFSET	QUANT	0	Ach Offset (V)
ACHFILTER	IQUANT	3	Ach Filter
IERANGELOWERLIMIT	IQUANT	2	I/E Range Lower Limit
IERANGEMODE	TOGGLE	F	I/E AutoRange
IERANGE	IQUANT	11	I/E Range
POSFEEDENABLE	TOGGLE	F	Positive Feedback IR Comp
POSFEEDRESISTANCE	QUANT	0	Positive Feedback Resistance (ohm)
ACHSELECT	IQUANT	0	Ach Select
CABLEID	IQUANT	13	Cable ID
DCCALDATE	LABEL	7/31/2020	DC Calibration Date
ACCALDATE	LABEL	7/31/2020	AC Calibration Date
THERMOSELECT	IQUANT	1	Thermo Select
FRAMEWORKVERSION	QUANT	6.33	Framework Version
INSTRUMENTVERSION	LABEL	3.50	Instrument Version
COMPLIANCEVOLTAGE	IQUANT	0	Compliance Voltage
ZCURVE	TABLE
	Pt	Time	Freq	Zreal	Zimag	Zsig	Zmod	Zphz	Idc	Vdc	IERange
	#	s	Hz	ohm	ohm	V	ohm	°	A	V	#
	0	10	300046.9	7.608547	0.3575479	1	7.616943	2.690517	-8.912139E-005	0.0003075	10
	1	13	238359.4	7.752508	-0.0343357	1	7.752584	-0.25376	-0.0001015	0.0001095	10
	2	16	189328.1	7.91791	-0.3746073	1	7.926767	-2.708723	-9.412706E-005	0.0003461	10
	3	19	150421.9	8.098784	-0.6856837	1	8.127759	-4.839407	2.068913E-005	0.0004072	10
	4	21	119484.4	8.295938	-0.970853	1	8.352553	-6.674818	5.519003E-005	0.000452	10
	5	24	94921.88	8.521676	-1.222841	1	8.608967	-8.166067	-2.532978E-005	0.0005845	10
	6	26	75421.88	8.750947	-1.49612	1	8.877919	-9.70187	2.312495E-005	0.0005824	10
	7	29	59859.37	9.007873	-1.765913	1	9.179337	-11.09166	-1.308776E-005	0.0006286	10
	8	31	47578.12	9.297468	-2.046862	1	9.52011	-12.41576	1.20557E-006	0.0005967	10
	9	34	37828.12	9.60761	-2.321054	1	9.884	-13.58156	-2.640356E-005	0.0006864	10
	10	36	30046.88	9.94762	-2.600603	1	10.28194	-14.65092	1.732958E-005	0.0006014	10
	11	39	23859.38	10.32433	-2.904	1	10.72497	-15.71009	1.682882E-005	0.000612	10
	12	41	18984.38	10.73507	-3.21607	1	11.20646	-16.67745	-3.334841E-005	0.0006604	10
	13	43	15046.87	11.18304	-3.535758	1	11.72868	-17.54548	-9.243327E-006	0.0006431	10
	14	46	11953.13	11.68634	-3.887792	1	12.31606	-18.40117	2.514373E-005	0.0006421	10
	15	48	9515.62	12.21714	-4.218561	1	12.92497	-19.04972	2.237131E-005	0.0006197	10
	16	50	7546.875	12.79911	-4.563681	1	13.58839	-19.62432	1.281194E-005	0.0006329	10
	17	53	5928.309	13.44689	-4.919384	1	14.3185	-20.09444	-5.227999E-006	0.0006707	10
	18	55	4733.456	14.08624	-5.242059	1	15.03002	-20.41226	2.113393E-005	0.0006262	10
	19	57	3796.875	14.70605	-5.539923	1	15.71491	-20.64192	1.190264E-005	0.0006379	10
	20	59	2987.132	15.37851	-5.877444	1	16.46338	-20.91613	-2.860579E-005	0.0006885	10
	21	62	2390.625	15.96859	-6.218079	1	17.13652	-21.27566	-1.742933E-005	0.0006558	10
	22	64	1884.191	16.52978	-6.641569	1	17.81415	-21.88998	-2.283593E-005	0.0006963	10
	23	66	1516.544	16.96089	-7.129646	1	18.39846	-22.79984	-2.208364E-005	0.0006945	10
	24	69	1193.986	17.39585	-7.870536	1	19.09348	-24.34379	2.030312E-005	0.0006497	10
	25	71	946.5144	17.75327	-8.847494	1	19.83574	-26.48977	-1.857924E-006	0.0006989	10
	26	74	751.7689	18.09344	-10.15137	1	20.74663	-29.29471	-2.611756E-005	0.0006791	10
	27	76	597.4265	18.45682	-11.86498	1	21.94155	-32.73496	2.235266E-005	0.0006459	10
	28	78	477.4305	18.81286	-14.01115	1	23.45711	-36.67743	-3.468737E-006	0.0006619	10
	29	80	376.6741	19.10675	-16.87889	1	25.49441	-41.45736	-3.890572E-006	0.0006581	10
	30	83	298.2954	19.50249	-20.47326	1	28.27546	-46.3911	-4.148378E-006	0.0006627	10
	31	85	237.7717	19.97245	-24.84394	1	31.87664	-51.20362	-3.99582E-006	0.0006669	10
	32	88	189.0121	20.6207	-30.34683	1	36.68982	-55.80386	-2.941201E-006	0.0006614	10
	33	90	150.2404	21.55935	-37.12561	1	42.93153	-59.85567	1.862715E-007	6.229703E-005	9
	34	92	119.1737	22.87933	-45.62791	1	51.04282	-63.36931	2.406637E-007	6.361893E-005	9
	35	95	95.0169	24.59723	-55.84828	1	61.02502	-66.2299	2.096797E-007	6.522593E-005	9
	36	97	75.60484	26.97373	-68.49226	1	73.6123	-68.50441	2.389659E-007	6.059521E-005	9
	37	100	54.50582	31.84226	-91.61476	1	96.9907	-70.83424	2.124415E-007	5.63532E-005	9
	38	102	45.95588	35.16425	-106.5976	1	112.2478	-71.74339	2.591984E-007	6.3525E-005	9
	39	105	37.20238	40.44638	-128.3985	1	134.6183	-72.51523	3.823527E-007	5.808157E-005	9
	40	107	30.04808	47.29501	-154.719	1	161.7863	-73.00249	3.669889E-007	5.233657E-005	9
	41	109	23.91582	56.81363	-188.5387	1	196.9128	-73.23052	4.084057E-007	5.814993E-005	9
	42	112	18.60119	70.42124	-233.6202	1	244.0031	-73.22536	2.559962E-007	6.061129E-005	9
	43	114	15.02404	85.27191	-279.846	1	292.5493	-73.05349	5.342774E-007	7.229036E-005	9
	44	116	12.01923	104.927	-337.0695	1	353.0234	-72.70906	3.491629E-007	6.722561E-005	9
	45	119	9.450605	131.3152	-409.2662	1	429.8169	-72.21089	-7.465333E-007	0.000636	8
	46	121	7.512019	163.6957	-493.6413	1	520.075	-71.65403	-5.289003E-007	0.0006397	8
	47	124	5.978954	204.2981	-593.4175	1	627.6002	-71.00276	-4.866511E-007	0.0006368	8
	48	127	4.734848	257.4565	-715.1519	1	760.0829	-70.201	-4.650724E-007	0.0006693	8
	49	130	3.75601	324.5852	-859.0497	1	918.3257	-69.30132	-5.680665E-007	0.0006269	8
	50	134	3.004808	406.904	-1022.401	1	1100.398	-68.298	-4.986855E-007	0.0006541	8
	51	137	2.372217	521.1821	-1225.434	1	1331.66	-66.95975	-4.579342E-007	0.0006955	8
	52	143	1.878005	664.993	-1466.601	1	1610.321	-65.60929	-4.187254E-007	0.000644	8
	53	148	1.512097	837.4352	-1718.804	1	1911.958	-64.02374	-3.99772E-007	0.0005412	8
	54	154	1.201923	1068.905	-2027.265	1	2291.803	-62.19892	-3.458815E-007	0.000665	8
	55	160	0.956633	1360.865	-2368.01	1	2731.195	-60.11457	-4.147609E-007	5.97028E-006	8
