EXPLAIN
TAG	EISPOT
TITLE	LABEL	Potentiostatic EIS	Test Identifier
DATE	LABEL	8/9/2020	Date
TIME	LABEL	13:12:57	Time
NOTES	NOTES	1	Notes...
	
PSTAT	PSTAT	REF3000-16137	Potentiostat
VDC	POTEN	0.00000E+000	T	DC Voltage (V)
FREQINIT	QUANT	3.00000E+005	Initial Freq. (Hz)
FREQFINAL	QUANT	1.00000E+000	Final Freq. (Hz)
PTSPERDEC	QUANT	1.00000E+001	Points/decade
VAC	QUANT	5.00000E+001	AC Voltage (mV rms)
AREA	QUANT	1.00000E+000	Sample Area (cm^2)
SPEED	SELECTOR	2	Optimize for:
ZGUESS	QUANT	1.00000E+003	Estimated Z (ohms)
EOC	QUANT	0	Open Circuit (V)
SEQUENCER	TOGGLE	TRUE	Run as Sequence
PSTATMODEL	IQUANT	5	Pstat Model
PSTATSECTION	LABEL	REF3000-16137	Pstat Section
PSTATSERIALNO	LABEL	16137	Pstat Serial Number
CTRLMODE	IQUANT	1	Control Mode
IESTAB	IQUANT	0	I/E Stability
CASPEED	IQUANT	1	Control Amp Speed
CONVENTION	IQUANT	1	Current Convention
ICHRANGE	IQUANT	2	Ich Range
ICHRANGEMODE	TOGGLE	F	Ich Auto Range
ICHOFFSETENABLE	TOGGLE	T	Ich Offset Enable
ICHOFFSET	QUANT	0	Ich Offset (V)
ICHFILTER	IQUANT	3	Ich Filter
VCHRANGE	IQUANT	2	Vch Range
VCHRANGEMODE	TOGGLE	F	Vch Auto Range
VCHOFFSETENABLE	TOGGLE	T	Vch Offset Enable
VCHOFFSET	QUANT	0	Vch Offset (V)
VCHFILTER	IQUANT	3	Vch Filter
ACHRANGE	IQUANT	2	Ach Range
ACHOFFSETENABLE	TOGGLE	F	Ach Offset Enable
ACHOFFSET	QUANT	0	Ach Offset (V)
ACHFILTER	IQUANT	0	Ach Filter
IERANGELOWERLIMIT	IQUANT	2	I/E Range Lower Limit
IERANGEMODE	TOGGLE	F	I/E AutoRange
IERANGE	IQUANT	11	I/E Range
POSFEEDENABLE	TOGGLE	F	Positive Feedback IR Comp
POSFEEDRESISTANCE	QUANT	0	Positive Feedback Resistance (ohm)
ACHSELECT	IQUANT	0	Ach Select
CABLEID	IQUANT	13	Cable ID
DCCALDATE	LABEL	7/31/2020	DC Calibration Date
ACCALDATE	LABEL	7/31/2020	AC Calibration Date
THERMOSELECT	IQUANT	1	Thermo Select
FRAMEWORKVERSION	QUANT	6.33	Framework Version
INSTRUMENTVERSION	LABEL	3.50	Instrument Version
COMPLIANCEVOLTAGE	IQUANT	0	Compliance Voltage
ZCURVE	TABLE
	Pt	Time	Freq	Zreal	Zimag	Zsig	Zmod	Zphz	Idc	Vdc	IERange
	#	s	Hz	ohm	ohm	V	ohm	°	A	V	#
	0	10	300046.9	4.671581	0.583349	1	4.707862	7.117788	-0.0001078	0.0001179	10
	1	13	238359.4	4.757374	0.2062871	1	4.761844	2.482879	-4.874043E-006	-0.0002658	10
	2	17	189328.1	4.854504	-0.1232534	1	4.856069	-1.454399	-0.0000984	0.000192	10
	3	19	150421.9	4.963654	-0.4140785	1	4.980895	-4.768694	1.806277E-005	0.0003987	10
	4	22	119484.4	5.087071	-0.6971021	1	5.134613	-7.802874	1.175033E-005	0.0004168	10
	5	24	94921.88	5.232668	-0.950025	1	5.318211	-10.29034	7.843894E-008	0.0004976	10
	6	27	75421.88	5.379754	-1.227035	1	5.517913	-12.84845	7.613404E-006	0.0005757	10
	7	29	59859.37	5.549674	-1.518381	1	5.753639	-15.30156	-2.122574E-005	0.0005751	10
	8	32	47578.12	5.738008	-1.823526	1	6.020796	-17.63014	-3.68393E-005	0.0006718	10
	9	34	37828.12	5.95242	-2.161063	1	6.332574	-19.95374	-2.957979E-005	0.0006181	10
	10	37	30046.88	6.197324	-2.534614	1	6.695602	-22.24383	-4.376177E-005	0.0006453	10
	11	39	23859.38	6.477753	-2.958307	1	7.121296	-24.54557	-4.280135E-005	0.0007102	10
	12	42	18984.38	6.799691	-3.429892	1	7.61577	-26.76723	-1.035633E-005	0.0006342	10
	13	44	15046.87	7.18656	-3.98816	1	8.219006	-29.02795	3.59097E-006	0.000631	10
	14	46	11953.13	7.643532	-4.624515	1	8.933628	-31.17492	-3.452786E-005	0.0006505	10
	15	48	9515.62	8.183126	-5.342616	1	9.77277	-33.13979	-4.237648E-005	0.0006975	10
	16	51	7546.875	8.844283	-6.149856	1	10.77228	-34.81275	-3.485765E-005	0.0007027	10
	17	53	5928.309	9.67857	-7.106367	1	12.0073	-36.28751	8.047467E-006	0.0006289	10
	18	55	4733.456	10.61109	-8.071435	1	13.33204	-37.2588	7.60064E-006	0.0006314	10
	19	58	3796.875	11.68752	-9.072084	1	14.7953	-37.81932	-3.140868E-005	0.000701	10
	20	60	2987.132	13.06812	-10.21675	1	16.58788	-38.01855	-3.133368E-005	0.0006606	10
	21	62	2390.625	14.53925	-11.33052	1	18.43287	-37.92947	-1.340855E-005	0.0006097	10
	22	65	1884.191	16.30598	-12.46391	1	20.52398	-37.39344	-3.936266E-005	0.0006785	10
	23	67	1516.544	18.08149	-13.49987	1	22.56516	-36.74548	-2.808542E-005	0.0006682	10
	24	69	1193.986	20.12959	-14.5485	1	24.83665	-35.85723	8.527226E-006	0.0006239	10
	25	72	946.5144	22.19792	-15.62596	1	27.14624	-35.14317	7.372193E-006	0.0006206	10
	26	74	751.7689	24.22886	-16.641	1	29.39321	-34.48227	6.480057E-006	0.0006144	10
	27	76	597.4265	26.24235	-17.80439	1	31.7121	-34.15533	3.714122E-006	0.0006129	10
	28	79	477.4305	28.0825	-19.18951	1	34.01271	-34.34583	-1.561419E-005	0.0006514	10
	29	81	376.6741	29.94666	-21.00699	1	36.57999	-35.0489	-1.616623E-005	0.00065	10
	30	83	298.2954	31.71661	-23.32531	1	39.37021	-36.33184	-1.14753E-005	5.6171E-005	9
	31	87	237.7717	33.54458	-26.30506	1	42.62857	-38.10291	-1.1279E-005	5.395944E-005	9
	32	90	189.0121	35.45604	-30.14687	1	46.53992	-40.3732	-1.120333E-005	4.972241E-005	9
	33	92	150.2404	37.61535	-35.02336	1	51.39601	-42.95636	-1.10649E-005	6.433479E-005	9
	34	95	119.1737	40.22243	-41.19123	1	57.57223	-45.68177	-1.093411E-005	5.470275E-005	9
	35	97	95.0169	43.2716	-48.60342	1	65.07475	-48.32134	-1.091414E-005	5.856888E-005	9
	36	100	75.60484	47.01195	-57.67865	1	74.41069	-50.81767	-1.071413E-005	5.940011E-005	9
	37	102	54.50582	54.19531	-73.96546	1	91.69527	-53.76936	-1.059674E-005	5.03965E-005	9
	38	105	45.95588	59.01165	-84.21037	1	102.8288	-54.97859	-1.044837E-005	6.100158E-005	9
	39	107	37.20238	66.33849	-98.7607	1	118.9725	-56.11036	-1.057994E-005	6.183192E-005	9
	40	109	30.04808	75.67127	-115.7757	1	138.3118	-56.83128	-1.037901E-005	6.028567E-005	9
	41	112	23.91582	88.23226	-136.6686	1	162.6752	-57.154	-1.033103E-005	5.518135E-005	9
	42	114	18.60119	105.948	-163.0352	1	194.4362	-56.98227	-1.041579E-005	6.752505E-005	9
	43	116	15.02404	125.365	-188.1542	1	226.0938	-56.32493	-9.53136E-006	6.942589E-005	9
	44	119	12.01923	150.2867	-216.7273	1	263.7363	-55.26113	-9.410535E-006	5.91918E-005	9
	45	121	9.450605	183.47	-249.528	1	309.7183	-53.67414	-9.342026E-006	4.659776E-005	9
	46	124	7.512019	222.2919	-281.8873	1	358.9905	-51.74124	-8.931177E-006	6.560483E-005	9
	47	126	5.978954	267.5974	-314.234	1	412.7365	-49.58274	-8.872189E-006	4.681389E-005	9
	48	129	4.734848	320.4763	-344.6705	1	470.6408	-47.08317	-9.651523E-006	0.0006801	8
	49	133	3.75601	381.8322	-373.5799	1	534.1889	-44.37411	-9.993462E-006	0.0006344	8
	50	136	3.004808	448.3559	-396.4805	1	598.5146	-41.48628	-9.486308E-006	0.0006378	8
	51	140	2.372217	525.4673	-413.6936	1	668.7737	-38.2129	-9.417043E-006	0.0006417	8
	52	144	1.878005	606.9398	-419.6968	1	737.9169	-34.66373	-9.198531E-006	0.0006476	8
	53	149	1.512097	683.1505	-417.2259	1	800.4824	-31.41399	-8.924821E-006	0.0005457	8
	54	159	1.201923	762.4631	-405.5702	1	863.6187	-28.00945	-8.720484E-006	0.0007063	8
	55	172	0.956633	835.7689	-386.6043	1	920.8542	-24.824	-9.021895E-006	9.144439E-006	8
