EXPLAIN
TAG	EISPOT
TITLE	LABEL	Potentiostatic EIS	Test Identifier
DATE	LABEL	8/9/2020	Date
TIME	LABEL	13:41:32	Time
NOTES	NOTES	1	Notes...
	
PSTAT	PSTAT	REF3000-16137	Potentiostat
VDC	POTEN	0.00000E+000	T	DC Voltage (V)
FREQINIT	QUANT	3.00000E+005	Initial Freq. (Hz)
FREQFINAL	QUANT	1.00000E+000	Final Freq. (Hz)
PTSPERDEC	QUANT	1.00000E+001	Points/decade
VAC	QUANT	5.00000E+001	AC Voltage (mV rms)
AREA	QUANT	1.00000E+000	Sample Area (cm^2)
SPEED	SELECTOR	2	Optimize for:
ZGUESS	QUANT	1.00000E+003	Estimated Z (ohms)
EOC	QUANT	0	Open Circuit (V)
SEQUENCER	TOGGLE	TRUE	Run as Sequence
PSTATMODEL	IQUANT	5	Pstat Model
PSTATSECTION	LABEL	REF3000-16137	Pstat Section
PSTATSERIALNO	LABEL	16137	Pstat Serial Number
CTRLMODE	IQUANT	1	Control Mode
IESTAB	IQUANT	0	I/E Stability
CASPEED	IQUANT	1	Control Amp Speed
CONVENTION	IQUANT	1	Current Convention
ICHRANGE	IQUANT	2	Ich Range
ICHRANGEMODE	TOGGLE	F	Ich Auto Range
ICHOFFSETENABLE	TOGGLE	T	Ich Offset Enable
ICHOFFSET	QUANT	0	Ich Offset (V)
ICHFILTER	IQUANT	3	Ich Filter
VCHRANGE	IQUANT	2	Vch Range
VCHRANGEMODE	TOGGLE	F	Vch Auto Range
VCHOFFSETENABLE	TOGGLE	T	Vch Offset Enable
VCHOFFSET	QUANT	0	Vch Offset (V)
VCHFILTER	IQUANT	3	Vch Filter
ACHRANGE	IQUANT	2	Ach Range
ACHOFFSETENABLE	TOGGLE	F	Ach Offset Enable
ACHOFFSET	QUANT	0	Ach Offset (V)
ACHFILTER	IQUANT	3	Ach Filter
IERANGELOWERLIMIT	IQUANT	2	I/E Range Lower Limit
IERANGEMODE	TOGGLE	F	I/E AutoRange
IERANGE	IQUANT	11	I/E Range
POSFEEDENABLE	TOGGLE	F	Positive Feedback IR Comp
POSFEEDRESISTANCE	QUANT	0	Positive Feedback Resistance (ohm)
ACHSELECT	IQUANT	0	Ach Select
CABLEID	IQUANT	13	Cable ID
DCCALDATE	LABEL	7/31/2020	DC Calibration Date
ACCALDATE	LABEL	7/31/2020	AC Calibration Date
THERMOSELECT	IQUANT	1	Thermo Select
FRAMEWORKVERSION	QUANT	6.33	Framework Version
INSTRUMENTVERSION	LABEL	3.50	Instrument Version
COMPLIANCEVOLTAGE	IQUANT	0	Compliance Voltage
ZCURVE	TABLE
	Pt	Time	Freq	Zreal	Zimag	Zsig	Zmod	Zphz	Idc	Vdc	IERange
	#	s	Hz	ohm	ohm	V	ohm	°	A	V	#
	0	7	300046.9	107.2204	-0.6236557	1	107.2222	-0.3332616	-3.599791E-005	-0.0005829	9
	1	10	238359.4	109.2529	-1.001701	1	109.2575	-0.5253097	1.726034E-005	-0.0016966	9
	2	13	189328.1	110.7121	-0.9074598	1	110.7158	-0.4696184	-1.129245E-005	0.0008416	9
	3	16	150421.9	112.3161	-0.5926108	1	112.3176	-0.3023056	-8.231944E-005	0.0027296	9
	4	18	119484.4	113.8235	-0.6997736	1	113.8256	-0.3522435	6.304743E-005	-0.0012918	9
	5	21	94921.88	115.4088	-0.4379624	1	115.4097	-0.2174294	2.56187E-005	-0.0006336	9
	6	24	75421.88	116.9421	-0.52065	1	116.9433	-0.2550908	2.066472E-006	0.0004323	9
	7	26	59859.37	118.5938	-0.5731977	1	118.5952	-0.2769246	-1.46858E-005	0.0001527	9
	8	29	47578.12	120.2099	-0.6562243	1	120.2117	-0.3127738	2.615432E-005	-0.0003163	9
	9	31	37828.12	121.8713	-0.6408009	1	121.873	-0.3012592	2.512038E-005	-0.0004534	9
	10	34	30046.88	123.5218	-0.6508176	1	123.5236	-0.3018799	1.44041E-005	-0.0007203	9
	11	36	23859.38	125.1928	-0.7109627	1	125.1948	-0.3253759	1.138243E-005	0.0001637	9
	12	38	18984.38	126.7531	-0.8388048	1	126.7559	-0.3791564	-1.51451E-005	0.0001823	9
	13	41	15046.87	128.2834	-0.8616577	1	128.2863	-0.3848403	-1.91265E-005	0.0006597	9
	14	43	11953.13	130.0872	-1.180689	1	130.0925	-0.52001	2.602812E-005	-0.000606	9
	15	45	9515.62	131.7096	-1.320472	1	131.7162	-0.5744072	1.937483E-005	-0.0001238	9
	16	48	7546.875	133.45	-1.514225	1	133.4586	-0.6500933	-9.534928E-006	-4.624336E-005	9
	17	50	5928.309	135.1272	-1.99809	1	135.142	-0.8471556	-1.595417E-006	-0.0003322	9
	18	52	4733.456	136.8693	-2.356484	1	136.8895	-0.986366	1.189138E-005	0.0002149	9
	19	55	3796.875	138.7743	-2.842659	1	138.8035	-1.173485	-2.382151E-006	-0.0003863	9
	20	57	2987.132	140.63	-3.526693	1	140.6742	-1.436552	2.624287E-005	-0.0006229	9
	21	59	2390.625	142.4109	-4.095218	1	142.4698	-1.647163	-1.686863E-005	0.0009732	9
	22	61	1884.191	144.6378	-4.903438	1	144.7209	-1.941669	-2.18244E-005	0.0006675	9
	23	64	1516.544	146.5304	-6.561951	1	146.6773	-2.564116	2.341942E-005	-0.0002449	9
	24	66	1193.986	148.701	-8.201227	1	148.927	-3.156805	-2.078904E-005	0.0004906	9
	25	69	946.5144	150.9403	-10.09138	1	151.2773	-3.824916	-7.399632E-006	0.0008375	9
	26	71	751.7689	153.2541	-12.61176	1	153.7722	-4.704449	1.165594E-005	0.0002309	9
	27	73	597.4265	155.5845	-15.55171	1	156.3598	-5.708138	2.110946E-005	-0.0008033	9
	28	76	477.4305	158.0122	-19.21727	1	159.1765	-6.934194	1.238165E-006	6.334972E-005	9
	29	78	376.6741	160.6275	-24.00694	1	162.4116	-8.500348	1.242072E-006	6.742954E-005	9
	30	80	298.2954	163.3468	-29.88807	1	166.0587	-10.36889	8.571183E-007	0.0001252	9
	31	82	237.7717	166.374	-36.99612	1	170.4377	-12.53672	1.230024E-006	6.402635E-005	9
	32	85	189.0121	169.6158	-45.91063	1	175.7194	-15.14558	1.160121E-006	6.629441E-005	9
	33	87	150.2404	173.1349	-56.97047	1	182.2672	-18.21392	8.327718E-007	0.0001213	9
	34	90	119.1737	177.044	-70.79482	1	190.6738	-21.79505	1.227792E-006	7.037645E-005	9
	35	92	95.0169	181.3727	-87.55666	1	201.4007	-25.76867	1.311938E-006	7.206752E-005	9
	36	95	75.60484	186.259	-108.4302	1	215.5215	-30.20572	8.422755E-007	0.0001222	9
	37	97	54.50582	193.2538	-147.1517	1	242.9006	-37.2872	1.235309E-006	6.276913E-005	9
	38	100	45.95588	198.7589	-172.7114	1	263.3142	-40.98898	1.302744E-006	6.861865E-005	9
	39	102	37.20238	205.4685	-210.3986	1	294.0831	-45.6792	1.258832E-006	7.154832E-005	9
	40	104	30.04808	213.3024	-256.9512	1	333.9489	-50.30298	1.26472E-006	6.602767E-005	9
	41	107	23.91582	222.8942	-318.143	1	388.4543	-54.98453	1.341787E-006	6.863466E-005	9
	42	109	18.60119	233.9232	-400.7822	1	464.0544	-59.72931	4.82272E-011	0.0006624	8
	43	111	15.02404	246.8132	-489.5247	1	548.2255	-63.24324	8.950674E-008	0.0006582	8
	44	114	12.01923	262.6841	-603.4371	1	658.1332	-66.47588	7.899991E-008	0.0006559	8
	45	116	9.450605	283.7176	-755.8275	1	807.3233	-69.42519	5.31889E-008	0.0006478	8
	46	119	7.512019	308.6613	-937.6005	1	987.1	-71.77827	7.069477E-008	0.0006546	8
	47	121	5.978954	339.3877	-1160.485	1	1209.095	-73.69827	4.939338E-008	0.0007013	8
	48	124	4.734848	379.5436	-1444.434	1	1493.467	-75.27761	7.804491E-008	0.0006641	8
	49	128	3.75601	428.4801	-1793.639	1	1844.108	-76.56448	7.362461E-008	0.0006361	8
	50	131	3.004808	487.2465	-2207.899	1	2261.023	-77.55524	5.807841E-008	0.000667	8
	51	135	2.372217	568.9901	-2752.933	1	2811.119	-78.32225	7.150447E-008	0.0007101	8
	52	139	1.878005	663.9391	-3430.294	1	3493.956	-79.04575	3.895608E-008	0.000635	8
	53	144	1.512097	773.8273	-4201.61	1	4272.275	-79.56455	1.091433E-008	0.0005777	7
	54	149	1.201923	929.6555	-5225.122	1	5307.18	-79.91148	-1.591537E-008	0.0006035	7
	55	155	0.956633	1118.203	-6468.448	1	6564.388	-80.19219	-1.354783E-008	-1.865022E-005	7
