EXPLAIN
TAG	EISPOT
TITLE	LABEL	Potentiostatic EIS	Test Identifier
DATE	LABEL	8/9/2020	Date
TIME	LABEL	13:16:00	Time
NOTES	NOTES	1	Notes...
	
PSTAT	PSTAT	REF3000-16137	Potentiostat
VDC	POTEN	0.00000E+000	T	DC Voltage (V)
FREQINIT	QUANT	3.00000E+005	Initial Freq. (Hz)
FREQFINAL	QUANT	1.00000E+000	Final Freq. (Hz)
PTSPERDEC	QUANT	1.00000E+001	Points/decade
VAC	QUANT	5.00000E+001	AC Voltage (mV rms)
AREA	QUANT	1.00000E+000	Sample Area (cm^2)
SPEED	SELECTOR	2	Optimize for:
ZGUESS	QUANT	1.00000E+003	Estimated Z (ohms)
EOC	QUANT	0	Open Circuit (V)
SEQUENCER	TOGGLE	TRUE	Run as Sequence
PSTATMODEL	IQUANT	5	Pstat Model
PSTATSECTION	LABEL	REF3000-16137	Pstat Section
PSTATSERIALNO	LABEL	16137	Pstat Serial Number
CTRLMODE	IQUANT	1	Control Mode
IESTAB	IQUANT	0	I/E Stability
CASPEED	IQUANT	1	Control Amp Speed
CONVENTION	IQUANT	1	Current Convention
ICHRANGE	IQUANT	2	Ich Range
ICHRANGEMODE	TOGGLE	F	Ich Auto Range
ICHOFFSETENABLE	TOGGLE	T	Ich Offset Enable
ICHOFFSET	QUANT	0	Ich Offset (V)
ICHFILTER	IQUANT	3	Ich Filter
VCHRANGE	IQUANT	2	Vch Range
VCHRANGEMODE	TOGGLE	F	Vch Auto Range
VCHOFFSETENABLE	TOGGLE	T	Vch Offset Enable
VCHOFFSET	QUANT	0	Vch Offset (V)
VCHFILTER	IQUANT	3	Vch Filter
ACHRANGE	IQUANT	2	Ach Range
ACHOFFSETENABLE	TOGGLE	F	Ach Offset Enable
ACHOFFSET	QUANT	0	Ach Offset (V)
ACHFILTER	IQUANT	3	Ach Filter
IERANGELOWERLIMIT	IQUANT	2	I/E Range Lower Limit
IERANGEMODE	TOGGLE	F	I/E AutoRange
IERANGE	IQUANT	11	I/E Range
POSFEEDENABLE	TOGGLE	F	Positive Feedback IR Comp
POSFEEDRESISTANCE	QUANT	0	Positive Feedback Resistance (ohm)
ACHSELECT	IQUANT	0	Ach Select
CABLEID	IQUANT	13	Cable ID
DCCALDATE	LABEL	7/31/2020	DC Calibration Date
ACCALDATE	LABEL	7/31/2020	AC Calibration Date
THERMOSELECT	IQUANT	1	Thermo Select
FRAMEWORKVERSION	QUANT	6.33	Framework Version
INSTRUMENTVERSION	LABEL	3.50	Instrument Version
COMPLIANCEVOLTAGE	IQUANT	0	Compliance Voltage
ZCURVE	TABLE
	Pt	Time	Freq	Zreal	Zimag	Zsig	Zmod	Zphz	Idc	Vdc	IERange
	#	s	Hz	ohm	ohm	V	ohm	°	A	V	#
	0	10	300046.9	4.747396	0.547594	1	4.778873	6.579772	3.880436E-005	0.0001249	10
	1	13	238359.4	4.835788	0.1889336	1	4.839478	2.2374	-5.377157E-005	-0.0001236	10
	2	16	189328.1	4.938656	-0.144577	1	4.940772	-1.676831	1.278171E-005	0.0001085	10
	3	19	150421.9	5.058976	-0.4469083	1	5.078678	-5.048385	1.035506E-005	0.0003317	10
	4	21	119484.4	5.188359	-0.7287927	1	5.239295	-7.995846	-3.50596E-005	0.00044	10
	5	24	94921.88	5.340781	-0.979045	1	5.429777	-10.38783	-2.49254E-005	0.0005766	10
	6	26	75421.88	5.499722	-1.258007	1	5.641766	-12.88418	-2.277206E-005	0.0005929	10
	7	29	59859.37	5.681348	-1.555944	1	5.890558	-15.31598	-3.605185E-005	0.0006681	10
	8	31	47578.12	5.881995	-1.865013	1	6.170586	-17.59234	-2.849036E-005	0.0006746	10
	9	34	37828.12	6.111399	-2.205699	1	6.497254	-19.8453	1.609508E-006	0.0005962	10
	10	36	30046.88	6.371769	-2.574321	1	6.872159	-21.99968	1.044591E-005	0.0006289	10
	11	39	23859.38	6.629421	-2.967504	1	7.263285	-24.11455	-2.344825E-005	0.0006328	10
	12	41	18984.38	6.964521	-3.445618	1	7.770253	-26.32339	-4.333491E-005	0.000661	10
	13	43	15046.87	7.365949	-4.003495	1	8.383625	-28.52469	-3.691981E-005	0.0007159	10
	14	46	11953.13	7.836629	-4.623927	1	9.099091	-30.54232	-2.881661E-005	0.0006968	10
	15	48	9515.62	8.39416	-5.33673	1	9.94699	-32.44686	-8.244091E-006	0.0006801	10
	16	50	7546.875	9.071815	-6.141428	1	10.95513	-34.09717	1.676785E-005	0.0006488	10
	17	53	5928.309	9.93037	-7.075747	1	12.19338	-35.47125	-1.224541E-005	0.0006609	10
	18	55	4733.456	10.89396	-8.03113	1	13.53431	-36.39798	1.23104E-005	0.0006437	10
	19	57	3796.875	12.00508	-9.019848	1	15.01598	-36.91884	-3.886511E-005	0.00066	10
	20	60	2987.132	13.41638	-10.09056	1	16.78746	-36.94709	-3.2118E-005	0.0007309	10
	21	62	2390.625	14.91542	-11.11602	1	18.60203	-36.69607	-3.768704E-005	0.000653	10
	22	64	1884.191	16.67914	-12.10516	1	20.60894	-35.97088	-2.020016E-005	0.0006489	10
	23	67	1516.544	18.40788	-12.98594	1	22.52742	-35.20127	-3.150389E-005	0.000725	10
	24	69	1193.986	20.4002	-13.94899	1	24.7132	-34.36304	1.500977E-005	0.0006302	10
	25	71	946.5144	22.29758	-14.7756	1	26.74884	-33.53065	-2.829217E-005	0.0006883	10
	26	74	751.7689	24.17559	-15.75999	1	28.85891	-33.1002	1.278926E-005	0.0006228	10
	27	76	597.4265	25.88731	-16.83659	1	30.8808	-33.03916	-2.499807E-005	0.0006579	10
	28	78	477.4305	27.4929	-18.20201	1	32.9723	-33.50704	-9.622575E-006	0.0006612	10
	29	81	376.6741	29.08819	-20.06445	1	35.33702	-34.59713	-9.942693E-006	0.0006585	10
	30	83	298.2954	30.60105	-22.47746	1	37.96921	-36.29849	-6.271473E-006	5.302867E-005	9
	31	85	237.7717	32.15364	-25.5763	1	41.08532	-38.50014	-6.27757E-006	5.439994E-005	9
	32	88	189.0121	33.84026	-29.5995	1	44.9588	-41.17564	-6.134206E-006	4.797473E-005	9
	33	90	150.2404	35.93167	-34.73779	1	49.97798	-44.03215	-6.027672E-006	5.885355E-005	9
	34	93	119.1737	38.24689	-41.15467	1	56.18302	-47.09731	-5.90044E-006	6.233962E-005	9
	35	95	95.0169	41.07383	-48.89165	1	63.85494	-49.96642	-5.857513E-006	5.616349E-005	9
	36	98	75.60484	44.56548	-58.37424	1	73.44137	-52.64028	-5.759454E-006	5.20796E-005	9
	37	100	54.50582	51.39388	-75.43549	1	91.27894	-55.73356	-5.704653E-006	5.522037E-005	9
	38	103	45.95588	55.92959	-86.21927	1	102.771	-57.02892	-5.498771E-006	6.191579E-005	9
	39	105	37.20238	63.0316	-101.6136	1	119.5755	-58.18839	-5.519707E-006	6.448784E-005	9
	40	107	30.04808	71.94647	-119.7515	1	139.7022	-59.00263	-5.551669E-006	5.568909E-005	9
	41	110	23.91582	84.13961	-142.1416	1	165.1778	-59.37693	-5.102397E-006	6.032215E-005	9
	42	112	18.60119	101.6084	-170.848	1	198.7796	-59.25879	-5.199421E-006	6.807183E-005	9
	43	114	15.02404	120.5856	-198.645	1	232.3806	-58.74055	-5.054119E-006	5.717348E-005	9
	44	117	12.01923	145.6022	-230.9986	1	273.0574	-57.77608	-5.241473E-006	5.976466E-005	9
	45	119	9.450605	179.3393	-269.2158	1	323.4807	-56.33025	-5.01016E-006	7.271062E-005	9
	46	122	7.512019	219.3021	-307.9595	1	378.0641	-54.54483	-4.841079E-006	5.591033E-005	9
	47	124	5.978954	266.0999	-346.6288	1	436.9905	-52.48728	-5.856909E-006	0.0006966	8
	48	127	4.734848	324.5529	-387.6583	1	505.5824	-50.06347	-5.491894E-006	0.0006509	8
	49	131	3.75601	392.2677	-426.8576	1	579.7252	-47.41804	-5.32025E-006	0.000645	8
	50	134	3.004808	467.0152	-461.1612	1	656.3329	-44.63864	-4.842313E-006	0.000613	8
	51	138	2.372217	556.7859	-491.3072	1	742.5587	-41.42514	-4.934091E-006	0.0006178	8
	52	142	1.878005	654.0322	-513.7674	1	831.694	-38.151	-4.537475E-006	0.0006983	8
	53	151	1.512097	751.1798	-530.6813	1	919.7249	-35.23982	-4.483999E-006	0.0006199	8
	54	162	1.201923	863.0298	-540.45	1	1018.286	-32.05579	-4.287824E-006	0.0006637	8
	55	174	0.956633	974.052	-539.3176	1	1113.392	-28.97262	-4.837047E-006	4.049634E-006	8
