EXPLAIN
TAG	EISPOT
TITLE	LABEL	Potentiostatic EIS	Test Identifier
DATE	LABEL	8/9/2020	Date
TIME	LABEL	13:44:16	Time
NOTES	NOTES	1	Notes...
	
PSTAT	PSTAT	REF3000-16137	Potentiostat
VDC	POTEN	0.00000E+000	T	DC Voltage (V)
FREQINIT	QUANT	3.00000E+005	Initial Freq. (Hz)
FREQFINAL	QUANT	1.00000E+000	Final Freq. (Hz)
PTSPERDEC	QUANT	1.00000E+001	Points/decade
VAC	QUANT	5.00000E+001	AC Voltage (mV rms)
AREA	QUANT	1.00000E+000	Sample Area (cm^2)
SPEED	SELECTOR	2	Optimize for:
ZGUESS	QUANT	1.00000E+003	Estimated Z (ohms)
EOC	QUANT	0	Open Circuit (V)
SEQUENCER	TOGGLE	TRUE	Run as Sequence
PSTATMODEL	IQUANT	5	Pstat Model
PSTATSECTION	LABEL	REF3000-16137	Pstat Section
PSTATSERIALNO	LABEL	16137	Pstat Serial Number
CTRLMODE	IQUANT	1	Control Mode
IESTAB	IQUANT	0	I/E Stability
CASPEED	IQUANT	1	Control Amp Speed
CONVENTION	IQUANT	1	Current Convention
ICHRANGE	IQUANT	2	Ich Range
ICHRANGEMODE	TOGGLE	F	Ich Auto Range
ICHOFFSETENABLE	TOGGLE	T	Ich Offset Enable
ICHOFFSET	QUANT	0	Ich Offset (V)
ICHFILTER	IQUANT	3	Ich Filter
VCHRANGE	IQUANT	2	Vch Range
VCHRANGEMODE	TOGGLE	F	Vch Auto Range
VCHOFFSETENABLE	TOGGLE	T	Vch Offset Enable
VCHOFFSET	QUANT	0	Vch Offset (V)
VCHFILTER	IQUANT	3	Vch Filter
ACHRANGE	IQUANT	2	Ach Range
ACHOFFSETENABLE	TOGGLE	F	Ach Offset Enable
ACHOFFSET	QUANT	0	Ach Offset (V)
ACHFILTER	IQUANT	3	Ach Filter
IERANGELOWERLIMIT	IQUANT	2	I/E Range Lower Limit
IERANGEMODE	TOGGLE	F	I/E AutoRange
IERANGE	IQUANT	11	I/E Range
POSFEEDENABLE	TOGGLE	F	Positive Feedback IR Comp
POSFEEDRESISTANCE	QUANT	0	Positive Feedback Resistance (ohm)
ACHSELECT	IQUANT	0	Ach Select
CABLEID	IQUANT	13	Cable ID
DCCALDATE	LABEL	7/31/2020	DC Calibration Date
ACCALDATE	LABEL	7/31/2020	AC Calibration Date
THERMOSELECT	IQUANT	1	Thermo Select
FRAMEWORKVERSION	QUANT	6.33	Framework Version
INSTRUMENTVERSION	LABEL	3.50	Instrument Version
COMPLIANCEVOLTAGE	IQUANT	0	Compliance Voltage
ZCURVE	TABLE
	Pt	Time	Freq	Zreal	Zimag	Zsig	Zmod	Zphz	Idc	Vdc	IERange
	#	s	Hz	ohm	ohm	V	ohm	°	A	V	#
	0	8	300046.9	284.3901	-19.28324	1	285.0431	-3.879036	1.65352E-005	-0.001163	9
	1	12	238359.4	296.5826	-17.52831	1	297.1002	-3.3823	-7.95188E-005	0.0034957	9
	2	18	189328.1	311.4953	-16.07179	1	311.9096	-2.953593	-1.689779E-006	-0.0015968	9
	3	25	150421.9	328.5046	-14.74711	1	328.8355	-2.570375	2.253557E-005	-0.0013876	9
	4	33	119484.4	342.5178	-13.31494	1	342.7765	-2.226179	-1.288136E-005	0.0017047	9
	5	37	94921.88	349.4884	-11.20561	1	349.668	-1.836439	-9.581507E-007	-0.0004435	9
	6	40	75421.88	356.5997	-9.56011	1	356.7278	-1.535679	-1.064918E-005	0.0009145	9
	7	42	59859.37	363.3414	-8.059627	1	363.4308	-1.270725	-1.993544E-005	0.0003399	9
	8	45	47578.12	370.0914	-6.946591	1	370.1566	-1.075312	2.063534E-005	-2.343935E-005	9
	9	47	37828.12	376.8055	-5.948624	1	376.8524	-0.9044527	-7.299587E-007	0.0006623	9
	10	50	30046.88	382.8371	-1.418063	1	382.8397	-0.2122278	-1.465355E-005	0.0045672	8
	11	52	23859.38	389.7862	-1.684262	1	389.7898	-0.2475729	-1.206437E-005	0.0061228	8
	12	55	18984.38	396.4249	-2.255162	1	396.4313	-0.3259378	1.164085E-005	-0.0049673	8
	13	57	15046.87	402.5721	-2.778453	1	402.5817	-0.395435	6.279031E-006	0.0018866	8
	14	59	11953.13	409.7335	-2.962038	1	409.7442	-0.4141944	1.207628E-005	-0.0008616	8
	15	62	9515.62	416.9935	-2.011481	1	416.9983	-0.2763796	-1.710179E-005	0.0056528	8
	16	64	7546.875	424.1467	-3.191215	1	424.1587	-0.4310765	-1.212553E-005	0.0062859	8
	17	66	5928.309	431.6959	-2.873461	1	431.7055	-0.3813674	1.170418E-005	-0.0051592	8
	18	69	4733.456	438.7191	-3.045377	1	438.7296	-0.3977134	-1.423417E-005	0.0039958	8
	19	71	3796.875	448.3832	-2.531742	1	448.3904	-0.3235103	2.350237E-007	0.0039814	8
	20	73	2987.132	455.8583	-3.277118	1	455.8701	-0.4118864	1.587767E-005	-0.004403	8
	21	75	2390.625	462.5028	-5.384229	1	462.5342	-0.666979	-1.50462E-005	0.0051386	8
	22	78	1884.191	469.7476	-6.830003	1	469.7972	-0.8330066	1.203636E-005	-0.0003814	8
	23	80	1516.544	479.6419	-7.456476	1	479.6999	-0.890644	-5.075284E-006	0.005817	8
	24	82	1193.986	487.753	-8.987658	1	487.8358	-1.05565	1.23077E-005	-0.0004387	8
	25	85	946.5144	496.0135	-11.86197	1	496.1553	-1.369945	-1.390666E-005	0.0028891	8
	26	87	751.7689	506.7417	-14.42583	1	506.947	-1.630646	-1.165446E-005	0.0016159	8
	27	90	597.4265	515.7783	-18.59939	1	516.1136	-2.065238	1.543095E-005	-0.0054405	8
	28	92	477.4305	525.2574	-21.81908	1	525.7104	-2.378687	-9.309574E-008	0.0006448	8
	29	94	376.6741	535.1632	-27.18832	1	535.8534	-2.908342	-9.294827E-008	0.0006363	8
	30	96	298.2954	545.5314	-33.80883	1	546.5781	-3.54632	-1.145348E-007	0.0006425	8
	31	99	237.7717	556.6044	-41.78403	1	558.1705	-4.293116	-1.452136E-007	0.0006995	8
	32	101	189.0121	568.1013	-51.87646	1	570.4649	-5.217524	-1.104897E-007	0.0006525	8
	33	104	150.2404	580.0919	-64.37418	1	583.6529	-6.33234	-1.078077E-007	0.0006526	8
	34	106	119.1737	592.6121	-80.0697	1	597.9969	-7.694816	-1.190342E-007	0.0006499	8
	35	108	95.0169	605.8783	-99.0877	1	613.9274	-9.288153	-7.87681E-008	0.0006363	8
	36	111	75.60484	620.4374	-122.8529	1	632.4835	-11.20026	-1.497836E-007	0.0007019	8
	37	113	54.50582	637.6625	-167.0099	1	659.1705	-14.67665	-1.362103E-007	0.0006576	8
	38	116	45.95588	652.9996	-196.1386	1	681.8203	-16.71845	-1.465178E-007	0.0006454	8
	39	118	37.20238	669.6708	-239.1407	1	711.0887	-19.65174	-1.546072E-007	0.0006982	8
	40	121	30.04808	688.3812	-292.1328	1	747.8036	-22.99522	-1.04064E-007	0.0006449	8
	41	123	23.91582	709.3105	-361.544	1	796.1378	-27.00848	-1.178171E-007	0.0006467	8
	42	125	18.60119	732.802	-457.1007	1	863.6781	-31.95472	-1.674381E-007	0.0006414	8
	43	128	15.02404	757.3582	-557.7653	1	940.5815	-36.37022	-1.014143E-007	0.0006636	8
	44	130	12.01923	786.0281	-686.408	1	1043.55	-41.12946	-1.816416E-007	0.0006521	8
	45	132	9.450605	820.4625	-858.8943	1	1187.795	-46.31098	-1.53951E-007	0.0006552	8
	46	135	7.512019	858.6648	-1063.799	1	1367.104	-51.09064	-1.918874E-007	0.0006406	8
	47	138	5.978954	905.3146	-1317	1	1598.15	-55.4951	-1.603586E-007	0.0006448	8
	48	141	4.734848	960.748	-1639.817	1	1900.536	-59.63451	-1.511013E-007	0.0006125	8
	49	144	3.75601	1028.351	-2038.092	1	2282.832	-63.22606	-1.513774E-007	0.0006748	8
	50	147	3.004808	1106.466	-2512.635	1	2745.469	-66.23318	-1.470523E-007	0.0006783	8
	51	151	2.372217	1204.143	-3138.767	1	3361.818	-69.0114	-1.679001E-007	0.0006968	8
	52	155	1.878005	1328.51	-3914.015	1	4133.334	-71.25156	-1.686071E-007	0.0006195	8
	53	160	1.512097	1480.476	-4810.069	1	5032.75	-72.89232	-3.073087E-008	0.0007066	7
	54	165	1.201923	1660.015	-5990.694	1	6216.435	-74.512	-3.849051E-008	0.000593	7
	55	172	0.956633	1884.671	-7443.891	1	7678.769	-75.79221	-5.039571E-008	-2.276197E-005	7
