EXPLAIN
TAG	EISPOT
TITLE	LABEL	Potentiostatic EIS	Test Identifier
DATE	LABEL	8/9/2020	Date
TIME	LABEL	13:33:13	Time
NOTES	NOTES	1	Notes...
	
PSTAT	PSTAT	REF3000-16137	Potentiostat
VDC	POTEN	0.00000E+000	T	DC Voltage (V)
FREQINIT	QUANT	3.00000E+005	Initial Freq. (Hz)
FREQFINAL	QUANT	1.00000E+000	Final Freq. (Hz)
PTSPERDEC	QUANT	1.00000E+001	Points/decade
VAC	QUANT	5.00000E+001	AC Voltage (mV rms)
AREA	QUANT	1.00000E+000	Sample Area (cm^2)
SPEED	SELECTOR	2	Optimize for:
ZGUESS	QUANT	1.00000E+003	Estimated Z (ohms)
EOC	QUANT	0	Open Circuit (V)
SEQUENCER	TOGGLE	TRUE	Run as Sequence
PSTATMODEL	IQUANT	5	Pstat Model
PSTATSECTION	LABEL	REF3000-16137	Pstat Section
PSTATSERIALNO	LABEL	16137	Pstat Serial Number
CTRLMODE	IQUANT	1	Control Mode
IESTAB	IQUANT	0	I/E Stability
CASPEED	IQUANT	1	Control Amp Speed
CONVENTION	IQUANT	1	Current Convention
ICHRANGE	IQUANT	2	Ich Range
ICHRANGEMODE	TOGGLE	F	Ich Auto Range
ICHOFFSETENABLE	TOGGLE	T	Ich Offset Enable
ICHOFFSET	QUANT	0	Ich Offset (V)
ICHFILTER	IQUANT	3	Ich Filter
VCHRANGE	IQUANT	2	Vch Range
VCHRANGEMODE	TOGGLE	F	Vch Auto Range
VCHOFFSETENABLE	TOGGLE	T	Vch Offset Enable
VCHOFFSET	QUANT	0	Vch Offset (V)
VCHFILTER	IQUANT	3	Vch Filter
ACHRANGE	IQUANT	2	Ach Range
ACHOFFSETENABLE	TOGGLE	F	Ach Offset Enable
ACHOFFSET	QUANT	0	Ach Offset (V)
ACHFILTER	IQUANT	3	Ach Filter
IERANGELOWERLIMIT	IQUANT	2	I/E Range Lower Limit
IERANGEMODE	TOGGLE	F	I/E AutoRange
IERANGE	IQUANT	11	I/E Range
POSFEEDENABLE	TOGGLE	F	Positive Feedback IR Comp
POSFEEDRESISTANCE	QUANT	0	Positive Feedback Resistance (ohm)
ACHSELECT	IQUANT	0	Ach Select
CABLEID	IQUANT	13	Cable ID
DCCALDATE	LABEL	7/31/2020	DC Calibration Date
ACCALDATE	LABEL	7/31/2020	AC Calibration Date
THERMOSELECT	IQUANT	1	Thermo Select
FRAMEWORKVERSION	QUANT	6.33	Framework Version
INSTRUMENTVERSION	LABEL	3.50	Instrument Version
COMPLIANCEVOLTAGE	IQUANT	0	Compliance Voltage
ZCURVE	TABLE
	Pt	Time	Freq	Zreal	Zimag	Zsig	Zmod	Zphz	Idc	Vdc	IERange
	#	s	Hz	ohm	ohm	V	ohm	°	A	V	#
	0	8	300046.9	18.48718	0.7561759	1	18.50264	2.342247	7.199602E-005	5.405343E-006	10
	1	11	238359.4	18.68185	0.5008621	1	18.68856	1.535737	7.513553E-005	0.0001013	10
	2	14	189328.1	18.86669	0.2627822	1	18.86852	0.7979849	1.171326E-005	0.000342	10
	3	17	150421.9	19.04635	0.0613192	1	19.04645	0.1844615	-1.081142E-005	0.0007051	10
	4	19	119484.4	19.22757	-0.1254146	1	19.22798	-0.3737146	-2.610311E-005	0.0005671	10
	5	22	94921.88	19.44468	-0.272383	1	19.44659	-0.8025524	-2.341594E-005	0.0006707	10
	6	24	75421.88	19.64586	-0.4251652	1	19.65046	-1.239771	5.293055E-006	0.0006108	10
	7	27	59859.37	19.85605	-0.5593836	1	19.86393	-1.613707	-1.875498E-005	0.0006232	10
	8	29	47578.12	20.08109	-0.684885	1	20.09277	-1.953371	-1.615011E-005	0.0006475	10
	9	32	37828.12	20.29079	-0.8004343	1	20.30657	-2.259042	2.339823E-005	0.0006128	10
	10	34	30046.88	20.51801	-0.9189894	1	20.53858	-2.56453	-3.020208E-005	0.000656	10
	11	37	23859.38	20.73908	-1.037183	1	20.765	-2.863036	2.420561E-005	0.0005927	10
	12	39	18984.38	20.96293	-1.16098	1	20.99505	-3.169945	-1.757381E-005	0.0006669	10
	13	42	15046.87	21.21226	-1.303401	1	21.25226	-3.516156	2.048014E-005	0.0005941	10
	14	44	11953.13	21.45422	-1.466177	1	21.50426	-3.909502	4.666597E-006	0.0006387	10
	15	46	9515.62	21.66361	-1.640741	1	21.72566	-4.331151	1.914823E-005	0.0005974	10
	16	49	7546.875	21.95641	-1.857808	1	22.03486	-4.836474	-2.627463E-005	0.0007507	10
	17	52	5928.309	22.21836	-2.136442	1	22.32084	-5.49248	2.057859E-005	0.0006048	10
	18	54	4733.456	22.48002	-2.457297	1	22.61393	-6.238247	-2.860881E-005	0.0006852	10
	19	56	3796.875	22.71461	-2.834623	1	22.8908	-7.113335	2.242533E-005	0.0006046	10
	20	59	2987.132	22.9681	-3.345411	1	23.21046	-8.28712	1.618208E-005	0.0006647	10
	21	61	2390.625	23.22281	-3.939393	1	23.55457	-9.6277	2.006458E-005	0.000616	10
	22	63	1884.191	23.50615	-4.738553	1	23.97901	-11.39738	2.365491E-005	0.0006234	10
	23	66	1516.544	23.83413	-5.643884	1	24.49325	-13.32216	1.635912E-005	0.000667	10
	24	68	1193.986	24.16223	-6.879472	1	25.12251	-15.89272	-3.689122E-006	0.0006156	10
	25	70	946.5144	24.51272	-8.375843	1	25.90421	-18.86498	-2.686277E-005	0.0007118	10
	26	73	751.7689	24.8995	-10.26343	1	26.93183	-22.40117	-2.254138E-005	0.0007121	10
	27	75	597.4265	25.33353	-12.58528	1	28.2874	-26.41742	-1.22863E-005	0.0006428	10
	28	77	477.4305	25.80649	-15.40742	1	30.05601	-30.83875	-1.986909E-006	0.000667	10
	29	80	376.6741	26.40752	-19.12261	1	32.60416	-35.90961	-2.249208E-006	0.0006705	10
	30	82	298.2954	27.07823	-23.69189	1	35.97966	-41.18405	-2.101927E-006	0.0006731	10
	31	84	237.7717	27.83312	-29.17625	1	40.3229	-46.34963	1.376211E-006	7.072817E-005	9
	32	87	189.0121	28.75356	-36.08932	1	46.14332	-51.4545	1.349753E-006	7.184115E-005	9
	33	89	150.2404	29.91445	-44.66078	1	53.75369	-56.18524	1.383896E-006	7.329336E-005	9
	34	92	119.1737	31.3963	-55.38195	1	63.6623	-60.45089	1.423871E-006	7.280801E-005	9
	35	94	95.0169	33.24142	-68.34932	1	76.00409	-64.06421	1.337044E-006	6.676054E-005	9
	36	96	75.60484	35.57088	-84.48988	1	91.67239	-67.16854	1.374029E-006	6.561082E-005	9
	37	99	54.50582	39.92463	-114.3198	1	121.0908	-70.74894	1.355906E-006	6.268159E-005	9
	38	102	45.95588	42.91612	-133.862	1	140.5732	-72.22416	1.291614E-006	7.14077E-005	9
	39	104	37.20238	47.36272	-162.6272	1	169.3837	-73.7626	1.436563E-006	6.715392E-005	9
	40	106	30.04808	52.94331	-197.9445	1	204.9025	-75.02586	1.266134E-006	7.798697E-005	9
	41	109	23.91582	60.43118	-244.0658	1	251.4359	-76.09314	8.896162E-007	0.0001215	9
	42	111	18.60119	70.93357	-307.138	1	315.2227	-76.99554	1.545928E-006	6.971257E-005	9
	43	113	15.02404	82.35808	-373.2439	1	382.2222	-77.5568	1.377971E-006	7.2408E-005	9
	44	116	12.01923	97.0975	-455.6089	1	465.8405	-77.96934	4.671847E-007	0.0006473	8
	45	118	9.450605	117.9762	-566.8217	1	578.9691	-78.24252	4.33939E-007	0.0006356	8
	46	121	7.512019	143.9122	-697.3367	1	712.0317	-78.33934	4.359769E-007	0.000665	8
	47	123	5.978954	176.9559	-856.686	1	874.771	-78.3292	4.144381E-007	0.0006465	8
	48	126	4.734848	220.5937	-1055.835	1	1078.633	-78.19905	4.396372E-007	0.0006743	8
	49	129	3.75601	276.5063	-1297.968	1	1327.093	-77.97404	2.941949E-007	0.0006906	8
	50	133	3.004808	345.4754	-1580.336	1	1617.658	-77.66863	3.863509E-007	0.0006449	8
	51	137	2.372217	440.0279	-1942.654	1	1991.865	-77.23737	3.883816E-007	0.0006524	8
	52	141	1.878005	560.322	-2386.793	1	2451.681	-76.78851	3.623896E-007	0.0006395	8
	53	146	1.512097	695.8654	-2881.478	1	2964.312	-76.42325	4.076727E-007	0.0005473	8
	54	151	1.201923	883.0074	-3515.281	1	3624.487	-75.89954	3.891272E-007	0.0006523	8
	55	157	0.956633	1111.438	-4284.218	1	4426.039	-75.45658	-3.487128E-008	-2.290915E-005	7
