EXPLAIN
TAG	EISPOT
TITLE	LABEL	Potentiostatic EIS	Test Identifier
DATE	LABEL	8/9/2020	Date
TIME	LABEL	13:51:41	Time
NOTES	NOTES	1	Notes...
	
PSTAT	PSTAT	REF3000-16137	Potentiostat
VDC	POTEN	0.00000E+000	T	DC Voltage (V)
FREQINIT	QUANT	3.00000E+005	Initial Freq. (Hz)
FREQFINAL	QUANT	1.00000E+000	Final Freq. (Hz)
PTSPERDEC	QUANT	1.00000E+001	Points/decade
VAC	QUANT	5.00000E+001	AC Voltage (mV rms)
AREA	QUANT	1.00000E+000	Sample Area (cm^2)
SPEED	SELECTOR	2	Optimize for:
ZGUESS	QUANT	1.00000E+003	Estimated Z (ohms)
EOC	QUANT	0	Open Circuit (V)
SEQUENCER	TOGGLE	TRUE	Run as Sequence
PSTATMODEL	IQUANT	5	Pstat Model
PSTATSECTION	LABEL	REF3000-16137	Pstat Section
PSTATSERIALNO	LABEL	16137	Pstat Serial Number
CTRLMODE	IQUANT	1	Control Mode
IESTAB	IQUANT	0	I/E Stability
CASPEED	IQUANT	1	Control Amp Speed
CONVENTION	IQUANT	1	Current Convention
ICHRANGE	IQUANT	2	Ich Range
ICHRANGEMODE	TOGGLE	F	Ich Auto Range
ICHOFFSETENABLE	TOGGLE	T	Ich Offset Enable
ICHOFFSET	QUANT	0	Ich Offset (V)
ICHFILTER	IQUANT	3	Ich Filter
VCHRANGE	IQUANT	2	Vch Range
VCHRANGEMODE	TOGGLE	F	Vch Auto Range
VCHOFFSETENABLE	TOGGLE	T	Vch Offset Enable
VCHOFFSET	QUANT	0	Vch Offset (V)
VCHFILTER	IQUANT	3	Vch Filter
ACHRANGE	IQUANT	2	Ach Range
ACHOFFSETENABLE	TOGGLE	F	Ach Offset Enable
ACHOFFSET	QUANT	0	Ach Offset (V)
ACHFILTER	IQUANT	3	Ach Filter
IERANGELOWERLIMIT	IQUANT	2	I/E Range Lower Limit
IERANGEMODE	TOGGLE	F	I/E AutoRange
IERANGE	IQUANT	11	I/E Range
POSFEEDENABLE	TOGGLE	F	Positive Feedback IR Comp
POSFEEDRESISTANCE	QUANT	0	Positive Feedback Resistance (ohm)
ACHSELECT	IQUANT	0	Ach Select
CABLEID	IQUANT	13	Cable ID
DCCALDATE	LABEL	7/31/2020	DC Calibration Date
ACCALDATE	LABEL	7/31/2020	AC Calibration Date
THERMOSELECT	IQUANT	1	Thermo Select
FRAMEWORKVERSION	QUANT	6.33	Framework Version
INSTRUMENTVERSION	LABEL	3.50	Instrument Version
COMPLIANCEVOLTAGE	IQUANT	0	Compliance Voltage
ZCURVE	TABLE
	Pt	Time	Freq	Zreal	Zimag	Zsig	Zmod	Zphz	Idc	Vdc	IERange
	#	s	Hz	ohm	ohm	V	ohm	°	A	V	#
	0	25	300046.9	824.5941	-3977.825	1	4062.394	-78.28859	-1.688551E-005	0.0014789	9
	1	40	238359.4	1131.7	-4991.431	1	5118.117	-77.22539	2.436222E-005	0.0009704	9
	2	57	189328.1	1389.36	-6079.993	1	6236.716	-77.12815	2.460394E-005	0.0010101	9
	3	65	150421.9	1888.374	-7414.95	1	7651.63	-75.71214	2.000634E-005	-0.0003076	9
	4	72	119484.4	2764.492	-9148.608	1	9557.17	-73.18643	7.838352E-005	-0.0237681	8
	5	80	94921.88	3736.558	-11336.05	1	11936	-71.75689	-1.642201E-005	0.0007241	8
	6	88	75421.88	4690.963	-14092.05	1	14852.31	-71.58842	2.238659E-005	-0.0097095	8
	7	97	59859.37	5866.591	-17434.79	1	18395.35	-71.40255	2.254222E-005	-0.0098276	8
	8	106	47578.12	8038.324	-21208.54	1	22680.76	-69.24261	2.77899E-005	-0.0076544	8
	9	115	37828.12	10423.62	-26231.37	1	28226.53	-68.3285	2.648865E-005	-0.0092	8
	10	125	30046.88	12904.8	-32733.68	1	35185.62	-68.48385	8.94412E-006	0.0041312	8
	11	134	23859.38	21233.25	-38304.02	1	43795.54	-60.99887	-7.343775E-006	0.0189352	7
	12	140	18984.38	23908.39	-47616.68	1	53281.89	-63.33872	-2.460612E-005	0.0054682	8
	13	146	15046.87	32835.26	-55936.87	1	64862.07	-59.58683	8.751366E-006	0.0041214	8
	14	152	11953.13	45057.34	-66248.16	1	80118.55	-55.77922	2.831951E-006	-0.0227549	7
	15	158	9515.62	54710.68	-76716.26	1	94226.55	-54.5052	-1.250199E-005	0.0011003	9
	16	165	7546.875	69388.05	-90712.36	1	114207.9	-52.58676	-5.907266E-006	0.005384	7
	17	172	5928.309	96344.6	-104034	1	141793.4	-47.19761	6.645971E-006	-0.0103546	7
	18	177	4733.456	116608.6	-120504.5	1	167686.9	-45.94132	-3.453513E-006	-0.0050356	7
	19	183	3796.875	160522.5	-117852	1	199139.6	-36.28527	-6.973819E-007	0.0262704	6
	20	188	2987.132	190315.8	-125228.2	1	227820.6	-33.34501	-5.355858E-008	-0.015003	6
	21	192	2390.625	219204.8	-130629.2	1	255175.9	-30.79168	4.036198E-007	-0.0253235	6
	22	196	1884.191	258445.5	-134823.4	1	291498.6	-27.54972	-4.948785E-007	0.0013994	6
	23	202	1516.544	271038.3	-181790.3	1	326357.9	-33.85047	3.485909E-006	-0.0245776	7
	24	208	1193.986	335192.1	-125271.3	1	357836	-20.49222	-3.452928E-006	-0.0051015	7
	25	215	946.5144	415370.1	-185080.9	1	454738.7	-24.01683	7.87257E-007	-0.023396	6
	26	220	751.7689	424307.2	-61237.94	1	428703.5	-8.21248	-1.258444E-006	-0.0130064	7
	27	225	597.4265	487054.3	-137797.6	1	506172	-15.79729	-7.414544E-007	0.0173062	6
	28	228	477.4305	557967.5	-148613	1	577419.8	-14.91432	-9.590895E-009	0.0006439	6
	29	232	376.6741	634022.8	-72340.16	1	638136.3	-6.509134	-1.426536E-009	0.0006663	5
	30	234	298.2954	658161.6	-64382.59	1	661303.1	-5.587004	-1.494161E-009	0.0005955	5
	31	236	237.7717	689902.3	-58756.44	1	692399.8	-4.867924	-1.391353E-009	0.0006849	5
	32	239	189.0121	722814.5	-53936.13	1	724824.1	-4.267479	-1.564158E-009	0.0006664	5
	33	241	150.2404	758250.5	-53290.04	1	760120.8	-4.020152	-1.393564E-009	0.0006428	5
	34	244	119.1737	780994.4	-55026.61	1	782930.5	-4.030235	-1.441346E-009	0.0006727	5
	35	246	95.0169	837788.4	-42542.83	1	838867.9	-2.906978	-1.318092E-009	0.0006174	5
	36	249	75.60484	882667.9	-36095.58	1	883405.7	-2.341733	-1.383635E-009	0.0006943	5
	37	252	54.50582	934971.5	-22000.83	1	935230.3	-1.347979	-1.2464E-009	0.0006387	5
	38	254	45.95588	967932	-32589.06	1	968481	-1.928348	-1.374393E-009	0.0006697	5
	39	257	37.20238	1011310	-26970.27	1	1011670	-1.527639	-1.348364E-009	0.0007351	5
	40	259	30.04808	1066386	-26197	1	1066708	-1.407254	-1.269304E-009	0.0006046	5
	41	262	23.91582	1125117	-25446.74	1	1125405	-1.295636	-1.241736E-009	0.0006222	5
	42	265	18.60119	1181296	-11298.48	1	1181350	-0.5479872	-1.406588E-009	0.0005957	5
	43	267	15.02404	1238137	-20799.46	1	1238312	-0.962421	-1.278141E-009	0.0006873	5
	44	269	12.01923	1299507	-19315.84	1	1299650	-0.8515806	-1.22047E-009	0.0005991	5
	45	272	9.450605	1371018	-16636.6	1	1371119	-0.6952208	-1.25342E-009	0.0006806	5
	46	275	7.512019	1452994	-16168.74	1	1453084	-0.6375544	-1.249294E-009	0.0006409	5
	47	278	5.978954	1560025	-16758.29	1	1560115	-0.6154657	-1.212102E-009	0.0006483	5
	48	282	4.734848	1687720	-16892.09	1	1687805	-0.5734442	-1.192405E-009	0.0006361	5
	49	286	3.75601	1849446	-18471.27	1	1849538	-0.5722204	-1.185943E-009	0.0005953	5
	50	291	3.004808	2089461	-19129.78	1	2089548	-0.5245493	-1.076416E-009	0.0005814	5
	51	298	2.372217	2325532	-20364	1	2325621	-0.5017095	-1.191776E-009	0.0006146	5
	52	302	1.878005	2551354	-21451.2	1	2551444	-0.4817185	-1.155424E-009	0.0006507	5
	53	307	1.512097	2835099	-21165.87	1	2835178	-0.4277425	-1.147075E-009	0.0005383	5
	54	312	1.201923	3205648	-32212.54	1	3205810	-0.5757277	-1.100259E-009	0.0006462	5
	55	318	0.956633	3666091	-38499.87	1	3666293	-0.601676	-1.274554E-009	1.700371E-006	5
