EXPLAIN
TAG	EISPOT
TITLE	LABEL	Potentiostatic EIS	Test Identifier
DATE	LABEL	2/25/2021	Date
TIME	LABEL	23:27:07	Time
NOTES	NOTES	1	Notes...
	
PSTAT	PSTAT	REF3000-16137	Potentiostat
VDC	POTEN	0.00000E+000	T	DC Voltage (V)
FREQINIT	QUANT	3.00000E+005	Initial Freq. (Hz)
FREQFINAL	QUANT	1.00000E+000	Final Freq. (Hz)
PTSPERDEC	QUANT	1.00000E+001	Points/decade
VAC	QUANT	5.00000E+001	AC Voltage (mV rms)
AREA	QUANT	1.00000E+000	Sample Area (cm^2)
SPEED	SELECTOR	2	Optimize for:
ZGUESS	QUANT	1.00000E+003	Estimated Z (ohms)
EOC	QUANT	0	Open Circuit (V)
SEQUENCER	TOGGLE	TRUE	Run as Sequence
PSTATMODEL	IQUANT	5	Pstat Model
PSTATSECTION	LABEL	REF3000-16137	Pstat Section
PSTATSERIALNO	LABEL	16137	Pstat Serial Number
CTRLMODE	IQUANT	1	Control Mode
IESTAB	IQUANT	0	I/E Stability
CASPEED	IQUANT	1	Control Amp Speed
CONVENTION	IQUANT	1	Current Convention
ICHRANGE	IQUANT	2	Ich Range
ICHRANGEMODE	TOGGLE	F	Ich Auto Range
ICHOFFSETENABLE	TOGGLE	T	Ich Offset Enable
ICHOFFSET	QUANT	0	Ich Offset (V)
ICHFILTER	IQUANT	3	Ich Filter
VCHRANGE	IQUANT	2	Vch Range
VCHRANGEMODE	TOGGLE	F	Vch Auto Range
VCHOFFSETENABLE	TOGGLE	T	Vch Offset Enable
VCHOFFSET	QUANT	0	Vch Offset (V)
VCHFILTER	IQUANT	3	Vch Filter
ACHRANGE	IQUANT	2	Ach Range
ACHOFFSETENABLE	TOGGLE	F	Ach Offset Enable
ACHOFFSET	QUANT	0	Ach Offset (V)
ACHFILTER	IQUANT	3	Ach Filter
IERANGELOWERLIMIT	IQUANT	2	I/E Range Lower Limit
IERANGEMODE	TOGGLE	F	I/E AutoRange
IERANGE	IQUANT	11	I/E Range
POSFEEDENABLE	TOGGLE	F	Positive Feedback IR Comp
POSFEEDRESISTANCE	QUANT	0	Positive Feedback Resistance (ohm)
ACHSELECT	IQUANT	0	Ach Select
CABLEID	IQUANT	13	Cable ID
DCCALDATE	LABEL	7/31/2020	DC Calibration Date
ACCALDATE	LABEL	7/31/2020	AC Calibration Date
THERMOSELECT	IQUANT	1	Thermo Select
FRAMEWORKVERSION	QUANT	6.33	Framework Version
INSTRUMENTVERSION	LABEL	3.50	Instrument Version
COMPLIANCEVOLTAGE	IQUANT	0	Compliance Voltage
ZCURVE	TABLE
	Pt	Time	Freq	Zreal	Zimag	Zsig	Zmod	Zphz	Idc	Vdc	IERange
	#	s	Hz	ohm	ohm	V	ohm	°	A	V	#
	0	26	300046.9	402.8376	-57.40691	1	406.9074	-8.110405	8.264439E-005	-0.0033238	9
	1	30	238359.4	408.2221	-50.13895	1	411.2897	-7.002154	-1.096864E-005	0.0015996	9
	2	37	189328.1	413.7214	-41.86892	1	415.8346	-5.778702	-3.140604E-005	-0.0007303	9
	3	43	150421.9	416.7832	-38.30803	1	418.54	-5.251504	1.788204E-005	-0.0008025	9
	4	48	119484.4	422.5435	-18.33445	1	422.9411	-2.484544	-4.738606E-007	-0.0071251	8
	5	51	94921.88	424.1885	-14.64771	1	424.4413	-1.977702	-1.427737E-005	0.0049491	8
	6	53	75421.88	425.3998	-13.07126	1	425.6006	-1.759973	-2.808469E-006	-0.0018174	8
	7	56	59859.37	426.8036	-12.19126	1	426.9777	-1.636158	1.530858E-005	-0.0032817	8
	8	58	47578.12	428.5331	-11.46556	1	428.6864	-1.532604	1.399115E-005	-0.0050707	8
	9	61	37828.12	429.5348	-10.22756	1	429.6566	-1.363999	-2.09566E-006	-0.0023678	8
	10	63	30046.88	431.6725	-10.18909	1	431.7927	-1.352144	7.055027E-006	-0.0044307	8
	11	66	23859.38	432.5679	-9.9678	1	432.6827	-1.320052	-1.463908E-005	0.0051884	8
	12	68	18984.38	433.9677	-9.50127	1	434.0717	-1.254231	1.190955E-005	-0.000617	8
	13	71	15046.87	433.751	-9.55284	1	433.8562	-1.261666	-8.743208E-006	0.0060077	8
	14	73	11953.13	438.2322	-10.15503	1	438.3498	-1.327462	6.524675E-006	0.0019138	8
	15	75	9515.62	438.0631	-10.1509	1	438.1807	-1.327434	-1.400279E-005	0.0040413	8
	16	77	7546.875	440.9749	-10.76149	1	441.1062	-1.397961	1.5519E-005	-0.0027674	8
	17	80	5928.309	440.288	-11.34547	1	440.4342	-1.476087	-1.106852E-005	0.0017396	8
	18	82	4733.456	442.5106	-12.24241	1	442.6799	-1.58473	-1.395046E-005	0.0039568	8
	19	84	3796.875	444.6843	-12.62157	1	444.8634	-1.625802	-1.360845E-005	0.0058737	8
	20	87	2987.132	445.9976	-14.82592	1	446.244	-1.903934	1.16082E-005	-0.0004914	8
	21	89	2390.625	446.8337	-19.38041	1	447.2538	-2.48352	-9.577383E-006	0.0004171	8
	22	91	1884.191	448.6455	-20.57842	1	449.1172	-2.626196	-7.81854E-006	0.0001155	8
	23	94	1516.544	451.6911	-22.15924	1	452.2343	-2.808587	6.945359E-006	0.0017006	8
	24	96	1193.986	453.0963	-27.09529	1	453.9057	-3.422229	-1.186677E-005	0.0062155	8
	25	98	946.5144	455.9077	-30.49388	1	456.9264	-3.826591	2.125231E-006	-0.003301	8
	26	101	751.7689	457.0559	-36.76898	1	458.5325	-4.599395	-1.110364E-005	0.0017676	8
	27	103	597.4265	461.2402	-44.23563	1	463.3566	-5.478245	-1.306371E-005	0.0028925	8
	28	105	477.4305	464.0712	-50.97519	1	466.8625	-6.268436	-7.048484E-008	0.0006521	8
	29	108	376.6741	467.9504	-60.9753	1	471.9063	-7.423977	-1.038151E-007	0.0006788	8
	30	110	298.2954	472.2527	-72.964	1	477.856	-8.782868	-7.375706E-008	0.0006645	8
	31	112	237.7717	477.0229	-87.12622	1	484.9142	-10.35074	-6.92206E-008	0.000652	8
	32	115	189.0121	482.5103	-104.456	1	493.6873	-12.21515	-8.799195E-008	0.0006632	8
	33	117	150.2404	488.7772	-125.5465	1	504.6436	-14.40548	-9.49379E-008	0.0006588	8
	34	120	119.1737	496.0017	-151.4927	1	518.621	-16.98412	-9.213218E-008	0.0006696	8
	35	122	95.0169	504.1982	-182.4207	1	536.1839	-19.8903	-6.994104E-008	0.0006476	8
	36	124	75.60484	513.7617	-220.4435	1	559.0585	-23.22307	-8.971067E-008	0.0006636	8
	37	127	54.50582	529.9338	-289.928	1	604.0597	-28.68317	-9.720968E-008	0.0006516	8
	38	129	45.95588	540.2628	-334.9913	1	635.691	-31.80108	-9.49602E-008	0.0006625	8
	39	132	37.20238	554.749	-400.9603	1	684.482	-35.85857	-4.708665E-008	0.0006561	8
	40	134	30.04808	572.0391	-481.4447	1	747.6749	-40.08494	-5.614496E-008	0.0006535	8
	41	137	23.91582	594.004	-585.9362	1	834.3632	-44.60825	-3.665143E-008	0.0006519	8
	42	139	18.60119	623.2059	-728.4695	1	958.673	-49.453	-4.779871E-008	0.0006762	8
	43	141	15.02404	654.2682	-876.3206	1	1093.62	-53.25468	-1.109568E-007	0.0006659	8
	44	143	12.01923	692.5966	-1064.032	1	1269.589	-56.93922	-9.800186E-008	0.0006544	8
	45	146	9.450605	742.8384	-1311.811	1	1507.534	-60.47845	-7.221952E-008	0.0006663	8
	46	148	7.512019	802.7846	-1601.792	1	1791.704	-63.38094	-9.293728E-008	0.0006535	8
	47	151	5.978954	873.8958	-1954.026	1	2140.54	-65.90446	-8.097387E-008	0.0006581	8
	48	154	4.734848	962.233	-2395.102	1	2581.163	-68.1122	-8.304523E-008	0.0006286	8
	49	157	3.75601	1070.832	-2931.088	1	3120.57	-69.93094	-6.51131E-008	0.0006984	8
	50	161	3.004808	1196.423	-3558.553	1	3754.294	-71.41682	-6.419249E-008	0.0006733	8
	51	164	2.372217	1366.154	-4376.428	1	4584.703	-72.66362	-7.687002E-008	0.000618	7
	52	169	1.878005	1567.036	-5379.462	1	5603.054	-73.75918	-5.844963E-008	0.0006224	7
	53	173	1.512097	1783.674	-6501.922	1	6742.143	-74.65943	-7.061711E-008	0.0007236	7
	54	179	1.201923	2082.648	-7958.101	1	8226.104	-75.3345	-6.114701E-008	0.0006277	7
	55	185	0.956633	2435.53	-9720.96	1	10021.42	-75.93441	-8.100114E-008	-8.328239E-006	7
