EXPLAIN
TAG	EISPOT
TITLE	LABEL	Potentiostatic EIS	Test Identifier
DATE	LABEL	2/25/2021	Date
TIME	LABEL	23:20:33	Time
NOTES	NOTES	1	Notes...
	
PSTAT	PSTAT	REF3000-16137	Potentiostat
VDC	POTEN	0.00000E+000	T	DC Voltage (V)
FREQINIT	QUANT	3.00000E+005	Initial Freq. (Hz)
FREQFINAL	QUANT	1.00000E+000	Final Freq. (Hz)
PTSPERDEC	QUANT	1.00000E+001	Points/decade
VAC	QUANT	5.00000E+001	AC Voltage (mV rms)
AREA	QUANT	1.00000E+000	Sample Area (cm^2)
SPEED	SELECTOR	2	Optimize for:
ZGUESS	QUANT	1.00000E+003	Estimated Z (ohms)
EOC	QUANT	0	Open Circuit (V)
SEQUENCER	TOGGLE	TRUE	Run as Sequence
PSTATMODEL	IQUANT	5	Pstat Model
PSTATSECTION	LABEL	REF3000-16137	Pstat Section
PSTATSERIALNO	LABEL	16137	Pstat Serial Number
CTRLMODE	IQUANT	1	Control Mode
IESTAB	IQUANT	0	I/E Stability
CASPEED	IQUANT	1	Control Amp Speed
CONVENTION	IQUANT	1	Current Convention
ICHRANGE	IQUANT	2	Ich Range
ICHRANGEMODE	TOGGLE	F	Ich Auto Range
ICHOFFSETENABLE	TOGGLE	T	Ich Offset Enable
ICHOFFSET	QUANT	0	Ich Offset (V)
ICHFILTER	IQUANT	3	Ich Filter
VCHRANGE	IQUANT	2	Vch Range
VCHRANGEMODE	TOGGLE	F	Vch Auto Range
VCHOFFSETENABLE	TOGGLE	T	Vch Offset Enable
VCHOFFSET	QUANT	0	Vch Offset (V)
VCHFILTER	IQUANT	3	Vch Filter
ACHRANGE	IQUANT	2	Ach Range
ACHOFFSETENABLE	TOGGLE	F	Ach Offset Enable
ACHOFFSET	QUANT	0	Ach Offset (V)
ACHFILTER	IQUANT	3	Ach Filter
IERANGELOWERLIMIT	IQUANT	2	I/E Range Lower Limit
IERANGEMODE	TOGGLE	F	I/E AutoRange
IERANGE	IQUANT	11	I/E Range
POSFEEDENABLE	TOGGLE	F	Positive Feedback IR Comp
POSFEEDRESISTANCE	QUANT	0	Positive Feedback Resistance (ohm)
ACHSELECT	IQUANT	0	Ach Select
CABLEID	IQUANT	13	Cable ID
DCCALDATE	LABEL	7/31/2020	DC Calibration Date
ACCALDATE	LABEL	7/31/2020	AC Calibration Date
THERMOSELECT	IQUANT	1	Thermo Select
FRAMEWORKVERSION	QUANT	6.33	Framework Version
INSTRUMENTVERSION	LABEL	3.50	Instrument Version
COMPLIANCEVOLTAGE	IQUANT	0	Compliance Voltage
ZCURVE	TABLE
	Pt	Time	Freq	Zreal	Zimag	Zsig	Zmod	Zphz	Idc	Vdc	IERange
	#	s	Hz	ohm	ohm	V	ohm	°	A	V	#
	0	17	300046.9	344.9663	-49.67186	1	348.5241	-8.193729	-0.0000976	0.0006764	10
	1	28	238359.4	349.4903	-35.72163	1	351.3112	-5.835971	2.813039E-005	0.0007229	9
	2	34	189328.1	352.5969	-30.89326	1	353.9477	-5.007262	-5.945931E-005	0.000699	9
	3	42	150421.9	354.7525	-28.45912	1	355.8922	-4.586586	-5.872205E-005	0.0007494	9
	4	51	119484.4	359.9465	-23.08013	1	360.6857	-3.668841	-0.0000964	0.0035399	9
	5	59	94921.88	362.4623	-19.61252	1	362.9925	-3.097204	-9.85705E-006	-9.48754E-005	9
	6	62	75421.88	363.4289	-16.25999	1	363.7924	-2.561733	-1.206042E-005	0.0010405	9
	7	65	59859.37	365.985	-14.53395	1	366.2735	-2.274128	-2.130014E-005	0.0006758	9
	8	67	47578.12	366.3851	-12.99105	1	366.6153	-2.030707	2.724473E-005	-0.0005965	9
	9	70	37828.12	369.0084	-11.58222	1	369.1901	-1.797776	2.678527E-005	-0.0007562	9
	10	72	30046.88	369.4716	-10.69657	1	369.6264	-1.658306	2.145027E-005	-0.0007894	9
	11	75	23859.38	371.0832	-9.360248	1	371.2012	-1.444929	-1.913391E-005	0.0002703	9
	12	77	18984.38	372.3875	-9.330812	1	372.5044	-1.435344	8.420896E-006	-0.0006702	9
	13	80	15046.87	372.5624	-8.748354	1	372.6651	-1.345148	-1.2708E-005	0.005433	8
	14	82	11953.13	372.7859	-8.293094	1	372.8781	-1.274407	-2.769476E-006	-0.0015006	8
	15	84	9515.62	374.2861	-8.257318	1	374.3772	-1.263826	-1.02417E-005	0.0015993	8
	16	86	7546.875	375.5407	-9.491871	1	375.6606	-1.447855	6.795904E-006	-0.0041086	8
	17	89	5928.309	376.4054	-9.275848	1	376.5197	-1.411668	-4.002142E-006	0.0049895	8
	18	91	4733.456	377.8673	-11.10255	1	378.0304	-1.682988	-1.304467E-005	0.004581	8
	19	93	3796.875	379.1933	-11.07872	1	379.3551	-1.67351	-1.285807E-005	0.0055285	8
	20	96	2987.132	380.4719	-14.32139	1	380.7413	-2.15566	-1.307008E-005	0.0038494	8
	21	98	2390.625	381.1203	-16.00028	1	381.4561	-2.403993	-1.038901E-005	0.001769	8
	22	100	1884.191	385.1486	-17.87515	1	385.5631	-2.657251	-6.92119E-006	8.072871E-005	8
	23	103	1516.544	385.1754	-21.03981	1	385.7496	-3.126616	-6.996886E-006	0.0001461	8
	24	105	1193.986	386.3888	-25.73569	1	387.2449	-3.810597	-7.300972E-006	0.0002499	8
	25	107	946.5144	388.3473	-30.30734	1	389.5281	-4.462423	1.376709E-005	-0.0021175	8
	26	110	751.7689	391.9057	-35.37556	1	393.4991	-5.157853	6.349312E-006	0.0016813	8
	27	112	597.4265	393.4874	-42.71221	1	395.7988	-6.195077	-1.322959E-005	0.0046549	8
	28	114	477.4305	396.4259	-50.37991	1	399.6144	-7.242626	-4.476673E-008	0.0006788	8
	29	117	376.6741	399.8328	-60.63872	1	404.4049	-8.623773	-5.170194E-008	0.000678	8
	30	119	298.2954	403.6434	-72.9953	1	410.1906	-10.25064	-3.380411E-008	0.00066	8
	31	121	237.7717	407.8828	-87.62787	1	417.1895	-12.12489	-7.071056E-008	0.0006758	8
	32	124	189.0121	412.7698	-105.6562	1	426.0776	-14.35767	-5.025156E-008	0.0006743	8
	33	126	150.2404	418.3986	-127.6891	1	437.4493	-16.97141	-7.180829E-008	0.0006671	8
	34	128	119.1737	424.9312	-154.8997	1	452.2836	-20.02826	-3.946087E-008	0.0006689	8
	35	131	95.0169	432.3637	-187.4509	1	471.2496	-23.4391	-4.244319E-008	0.0006557	8
	36	133	75.60484	441.1009	-227.6228	1	496.369	-27.29525	-6.111899E-008	0.0006604	8
	37	136	54.50582	456.1963	-301.4238	1	546.7827	-33.45404	-3.746844E-008	0.0006518	8
	38	138	45.95588	465.8948	-349.357	1	582.33	-36.86486	-3.051949E-008	0.0006562	8
	39	141	37.20238	479.7085	-419.7499	1	637.4247	-41.18626	-1.961775E-008	0.0006587	8
	40	143	30.04808	496.3734	-505.799	1	708.6742	-45.53886	-4.805356E-008	0.0006577	8
	41	148	23.91582	518.1987	-617.7	1	806.2773	-50.00616	-4.735386E-008	0.0006576	8
	42	150	18.60119	547.0084	-770.2769	1	944.7458	-54.61972	-9.759899E-008	0.0006601	8
	43	152	15.02404	577.3802	-929.1483	1	1093.931	-58.14285	-8.529471E-008	0.0006796	8
	44	154	12.01923	616.3059	-1130.495	1	1287.576	-61.40233	-1.824254E-008	0.0006609	8
	45	157	9.450605	666.9843	-1396.673	1	1547.761	-64.4731	-1.598372E-008	0.0006656	8
	46	159	7.512019	725.9813	-1708.601	1	1856.439	-66.97946	-3.203755E-008	0.0006785	8
	47	162	5.978954	798.2961	-2088.202	1	2235.59	-69.0787	-6.998137E-008	0.0006817	8
	48	165	4.734848	886.8694	-2564.302	1	2713.334	-70.92194	-6.788153E-008	0.0007127	8
	49	168	3.75601	996.068	-3143.385	1	3297.426	-72.41776	-8.936182E-008	0.0006805	8
	50	172	3.004808	1123.869	-3823.048	1	3984.818	-73.61814	-6.016806E-008	0.0006514	8
	51	175	2.372217	1289.087	-4715.578	1	4888.601	-74.71073	-7.187705E-008	0.0005887	7
	52	180	1.878005	1493.913	-5791.324	1	5980.904	-75.53548	-7.591115E-008	0.0006564	7
	53	184	1.512097	1728.147	-6999.143	1	7209.333	-76.13059	-8.383702E-008	0.0005519	7
	54	190	1.201923	2016.608	-8578.507	1	8812.349	-76.77128	-8.138445E-008	0.0006709	7
	55	196	0.956633	2377.008	-10486.73	1	10752.75	-77.22868	-8.828463E-008	3.306754E-006	7
