EXPLAIN
TAG	EISPOT
TITLE	LABEL	Potentiostatic EIS	Test Identifier
DATE	LABEL	2/25/2021	Date
TIME	LABEL	23:36:50	Time
NOTES	NOTES	1	Notes...
	
PSTAT	PSTAT	REF3000-16137	Potentiostat
VDC	POTEN	0.00000E+000	T	DC Voltage (V)
FREQINIT	QUANT	3.00000E+005	Initial Freq. (Hz)
FREQFINAL	QUANT	1.00000E+000	Final Freq. (Hz)
PTSPERDEC	QUANT	1.00000E+001	Points/decade
VAC	QUANT	5.00000E+001	AC Voltage (mV rms)
AREA	QUANT	1.00000E+000	Sample Area (cm^2)
SPEED	SELECTOR	2	Optimize for:
ZGUESS	QUANT	1.00000E+003	Estimated Z (ohms)
EOC	QUANT	0	Open Circuit (V)
SEQUENCER	TOGGLE	TRUE	Run as Sequence
PSTATMODEL	IQUANT	5	Pstat Model
PSTATSECTION	LABEL	REF3000-16137	Pstat Section
PSTATSERIALNO	LABEL	16137	Pstat Serial Number
CTRLMODE	IQUANT	1	Control Mode
IESTAB	IQUANT	0	I/E Stability
CASPEED	IQUANT	1	Control Amp Speed
CONVENTION	IQUANT	1	Current Convention
ICHRANGE	IQUANT	2	Ich Range
ICHRANGEMODE	TOGGLE	F	Ich Auto Range
ICHOFFSETENABLE	TOGGLE	T	Ich Offset Enable
ICHOFFSET	QUANT	0	Ich Offset (V)
ICHFILTER	IQUANT	3	Ich Filter
VCHRANGE	IQUANT	2	Vch Range
VCHRANGEMODE	TOGGLE	F	Vch Auto Range
VCHOFFSETENABLE	TOGGLE	T	Vch Offset Enable
VCHOFFSET	QUANT	0	Vch Offset (V)
VCHFILTER	IQUANT	3	Vch Filter
ACHRANGE	IQUANT	2	Ach Range
ACHOFFSETENABLE	TOGGLE	F	Ach Offset Enable
ACHOFFSET	QUANT	0	Ach Offset (V)
ACHFILTER	IQUANT	3	Ach Filter
IERANGELOWERLIMIT	IQUANT	2	I/E Range Lower Limit
IERANGEMODE	TOGGLE	F	I/E AutoRange
IERANGE	IQUANT	11	I/E Range
POSFEEDENABLE	TOGGLE	F	Positive Feedback IR Comp
POSFEEDRESISTANCE	QUANT	0	Positive Feedback Resistance (ohm)
ACHSELECT	IQUANT	0	Ach Select
CABLEID	IQUANT	13	Cable ID
DCCALDATE	LABEL	7/31/2020	DC Calibration Date
ACCALDATE	LABEL	7/31/2020	AC Calibration Date
THERMOSELECT	IQUANT	1	Thermo Select
FRAMEWORKVERSION	QUANT	6.33	Framework Version
INSTRUMENTVERSION	LABEL	3.50	Instrument Version
COMPLIANCEVOLTAGE	IQUANT	0	Compliance Voltage
ZCURVE	TABLE
	Pt	Time	Freq	Zreal	Zimag	Zsig	Zmod	Zphz	Idc	Vdc	IERange
	#	s	Hz	ohm	ohm	V	ohm	°	A	V	#
	0	21	300046.9	521.8718	-99.1574	1	531.2084	-10.75815	-9.279155E-005	0.0021494	9
	1	28	238359.4	532.1061	-85.09028	1	538.8667	-9.085374	1.550637E-005	-0.0019252	9
	2	38	189328.1	540.7167	-72.90822	1	545.6099	-7.679235	-8.514287E-005	0.0037861	9
	3	47	150421.9	548.053	-62.9211	1	551.6531	-6.549364	-3.087744E-006	-0.0016216	9
	4	52	119484.4	557.3235	-37.39142	1	558.5764	-3.838282	6.410522E-006	-0.0069399	8
	5	55	94921.88	560.1264	-28.03359	1	560.8275	-2.865188	-3.608787E-006	0.0056396	8
	6	58	75421.88	563.1315	-24.83211	1	563.6787	-2.524905	-3.024923E-006	-0.0021405	8
	7	60	59859.37	565.9439	-22.1911	1	566.3788	-2.245461	-1.435673E-005	0.0029256	8
	8	63	47578.12	568.3671	-20.02719	1	568.7198	-2.01806	-3.266697E-006	-0.002133	8
	9	65	37828.12	569.6481	-18.48495	1	569.9479	-1.858582	1.313601E-005	-0.0005655	8
	10	68	30046.88	572.3117	-16.81043	1	572.5585	-1.682457	-1.559159E-005	0.0065096	8
	11	70	23859.38	574.9919	-15.78366	1	575.2086	-1.572387	1.566774E-005	-0.0022645	8
	12	73	18984.38	576.7684	-14.71967	1	576.9562	-1.461925	-1.264096E-005	0.0017738	8
	13	75	15046.87	578.1196	-12.9429	1	578.2645	-1.28252	-1.58382E-005	0.0045203	8
	14	77	11953.13	581.3215	-14.47842	1	581.5018	-1.426716	1.724155E-005	-0.0048788	8
	15	80	9515.62	582.2556	-12.45732	1	582.3889	-1.225652	-1.35012E-005	0.0069008	8
	16	82	7546.875	587.1674	-15.31608	1	587.3671	-1.494204	1.576382E-005	-0.0023562	8
	17	84	5928.309	585.7167	-13.36099	1	585.869	-1.306767	1.232758E-005	-0.0055669	8
	18	87	4733.456	589.3733	-16.42803	1	589.6022	-1.596633	1.266491E-005	-0.0056831	8
	19	89	3796.875	589.202	-13.94892	1	589.3671	-1.356182	-1.439144E-005	0.0030266	8
	20	91	2987.132	593.8984	-16.54561	1	594.1288	-1.595809	2.678078E-006	-0.0038659	8
	21	94	2390.625	595.0134	-20.29368	1	595.3594	-1.953387	1.527367E-005	-0.0055229	8
	22	96	1884.191	595.9464	-29.28004	1	596.6652	-2.812794	1.309822E-005	-0.0005901	8
	23	99	1516.544	601.2164	-27.47343	1	601.8437	-2.616391	-1.187826E-005	0.0016418	8
	24	101	1193.986	602.6881	-30.54122	1	603.4614	-2.900982	1.551205E-005	-0.0055265	8
	25	103	946.5144	607.608	-35.35014	1	608.6355	-3.329668	1.309652E-005	-0.0005205	8
	26	106	751.7689	610.2161	-40.37382	1	611.5503	-3.785352	-1.215928E-005	0.0017446	8
	27	108	597.4265	613.7431	-47.70291	1	615.5942	-4.444354	2.654386E-006	-0.0039074	8
	28	111	477.4305	617.4898	-56.70009	1	620.0875	-5.246388	-1.165051E-007	0.0006622	8
	29	113	376.6741	622.3215	-67.46032	1	625.9672	-6.186767	-1.226934E-007	0.0006633	8
	30	116	298.2954	627.6872	-80.32543	1	632.806	-7.292532	-9.556027E-008	0.000653	8
	31	118	237.7717	633.5806	-95.4511	1	640.7303	-8.567379	-9.819186E-008	0.0006665	8
	32	120	189.0121	640.3318	-113.9501	1	650.3918	-10.09043	-8.630234E-008	0.0006518	8
	33	123	150.2404	647.9902	-136.3879	1	662.188	-11.88603	-1.10711E-007	0.0006568	8
	34	125	119.1737	656.8067	-163.8474	1	676.935	-14.00715	-8.463244E-008	0.0006509	8
	35	128	95.0169	666.5986	-196.484	1	694.9529	-16.4232	-9.377229E-008	0.0006478	8
	36	130	75.60484	678.0005	-236.4747	1	718.0563	-19.22787	-1.166454E-007	0.0006564	8
	37	133	54.50582	696.9661	-309.3888	1	762.5505	-23.93682	-8.484685E-008	0.0006374	8
	38	135	45.95588	709.0665	-356.4503	1	793.6196	-26.68884	-1.526113E-007	0.000672	8
	39	137	37.20238	725.6861	-425.4236	1	841.1929	-30.38038	-1.049527E-007	0.0006748	8
	40	140	30.04808	745.345	-509.3799	1	902.7773	-34.34928	-7.972341E-008	0.0006521	8
	41	142	23.91582	769.8805	-618.4223	1	987.503	-38.77389	-1.081765E-007	0.0006737	8
	42	145	18.60119	802.3854	-767.0865	1	1110.065	-43.71158	-2.389318E-008	0.0006609	8
	43	147	15.02404	835.5648	-920.9238	1	1243.491	-47.78218	-7.795138E-008	0.0006608	8
	44	149	12.01923	877.4402	-1116.561	1	1420.074	-51.83825	-1.221925E-007	0.0006462	8
	45	152	9.450605	931.4713	-1374.934	1	1660.747	-55.88368	-8.147663E-008	0.000667	8
	46	154	7.512019	995.31	-1678.432	1	1951.353	-59.33208	-1.070643E-007	0.000662	8
	47	157	5.978954	1071.727	-2045.391	1	2309.161	-62.34673	-1.012875E-007	0.0006617	8
	48	160	4.734848	1168.328	-2505.575	1	2764.578	-65.00077	-1.036448E-007	0.0006564	8
	49	163	3.75601	1283.56	-3065.543	1	3323.414	-67.28066	-9.032706E-008	0.0006791	8
	50	166	3.004808	1417.909	-3721.109	1	3982.1	-69.14091	-7.057111E-008	0.0006315	8
	51	170	2.372217	1601.978	-4581.344	1	4853.354	-70.72658	-5.948583E-008	0.0005661	7
	52	174	1.878005	1805.936	-5624.408	1	5907.23	-72.19875	-4.193613E-008	0.0006375	7
	53	179	1.512097	2032.217	-6784.837	1	7082.649	-73.32581	-5.927555E-008	0.0006496	7
	54	184	1.201923	2343.171	-8322.327	1	8645.899	-74.27531	-4.574717E-008	0.0006536	7
	55	191	0.956633	2714.736	-10172.85	1	10528.85	-75.0582	-6.157379E-008	-1.455374E-006	7
