EXPLAIN
TAG	EISPOT
TITLE	LABEL	Potentiostatic EIS	Test Identifier
DATE	LABEL	2/25/2021	Date
TIME	LABEL	23:11:28	Time
NOTES	NOTES	1	Notes...
	
PSTAT	PSTAT	REF3000-16137	Potentiostat
VDC	POTEN	0.00000E+000	T	DC Voltage (V)
FREQINIT	QUANT	3.00000E+005	Initial Freq. (Hz)
FREQFINAL	QUANT	1.00000E+000	Final Freq. (Hz)
PTSPERDEC	QUANT	1.00000E+001	Points/decade
VAC	QUANT	5.00000E+001	AC Voltage (mV rms)
AREA	QUANT	1.00000E+000	Sample Area (cm^2)
SPEED	SELECTOR	2	Optimize for:
ZGUESS	QUANT	1.00000E+003	Estimated Z (ohms)
EOC	QUANT	0	Open Circuit (V)
SEQUENCER	TOGGLE	TRUE	Run as Sequence
PSTATMODEL	IQUANT	5	Pstat Model
PSTATSECTION	LABEL	REF3000-16137	Pstat Section
PSTATSERIALNO	LABEL	16137	Pstat Serial Number
CTRLMODE	IQUANT	1	Control Mode
IESTAB	IQUANT	0	I/E Stability
CASPEED	IQUANT	1	Control Amp Speed
CONVENTION	IQUANT	1	Current Convention
ICHRANGE	IQUANT	2	Ich Range
ICHRANGEMODE	TOGGLE	F	Ich Auto Range
ICHOFFSETENABLE	TOGGLE	T	Ich Offset Enable
ICHOFFSET	QUANT	0	Ich Offset (V)
ICHFILTER	IQUANT	3	Ich Filter
VCHRANGE	IQUANT	2	Vch Range
VCHRANGEMODE	TOGGLE	F	Vch Auto Range
VCHOFFSETENABLE	TOGGLE	T	Vch Offset Enable
VCHOFFSET	QUANT	0	Vch Offset (V)
VCHFILTER	IQUANT	3	Vch Filter
ACHRANGE	IQUANT	2	Ach Range
ACHOFFSETENABLE	TOGGLE	F	Ach Offset Enable
ACHOFFSET	QUANT	0	Ach Offset (V)
ACHFILTER	IQUANT	1	Ach Filter
IERANGELOWERLIMIT	IQUANT	2	I/E Range Lower Limit
IERANGEMODE	TOGGLE	F	I/E AutoRange
IERANGE	IQUANT	11	I/E Range
POSFEEDENABLE	TOGGLE	F	Positive Feedback IR Comp
POSFEEDRESISTANCE	QUANT	0	Positive Feedback Resistance (ohm)
ACHSELECT	IQUANT	0	Ach Select
CABLEID	IQUANT	13	Cable ID
DCCALDATE	LABEL	7/31/2020	DC Calibration Date
ACCALDATE	LABEL	7/31/2020	AC Calibration Date
THERMOSELECT	IQUANT	1	Thermo Select
FRAMEWORKVERSION	QUANT	6.33	Framework Version
INSTRUMENTVERSION	LABEL	3.50	Instrument Version
COMPLIANCEVOLTAGE	IQUANT	0	Compliance Voltage
ZCURVE	TABLE
	Pt	Time	Freq	Zreal	Zimag	Zsig	Zmod	Zphz	Idc	Vdc	IERange
	#	s	Hz	ohm	ohm	V	ohm	°	A	V	#
	0	9	300046.9	303.3253	-31.64625	1	304.9716	-5.956182	2.336087E-005	-0.0006255	9
	1	14	238359.4	305.4005	-31.90453	1	307.0625	-5.963932	1.724323E-005	0.0003807	10
	2	18	189328.1	308.3533	-23.36588	1	309.2374	-4.333382	-8.390264E-005	0.002172	9
	3	25	150421.9	309.8862	-20.04027	1	310.5335	-3.700151	5.289176E-006	0.0014283	9
	4	30	119484.4	310.7329	-16.98868	1	311.197	-3.129412	2.220921E-005	-0.0003318	9
	5	34	94921.88	312.3564	-14.36272	1	312.6865	-2.632711	-2.435787E-005	0.0009758	9
	6	36	75421.88	313.1537	-12.93715	1	313.4208	-2.365685	-1.869462E-005	0.000335	9
	7	39	59859.37	313.653	-11.95146	1	313.8807	-2.182147	2.677255E-005	-0.0006921	9
	8	43	47578.12	314.1863	-10.1579	1	314.3505	-1.851774	-1.763611E-005	0.0002487	9
	9	45	37828.12	315.7315	-9.076002	1	315.8619	-1.646568	-1.944353E-005	0.0002647	9
	10	48	30046.88	316.3695	-8.317784	1	316.4789	-1.506037	-9.609408E-006	-8.08212E-005	9
	11	50	23859.38	317.1718	-7.559491	1	317.2619	-1.365332	-1.920048E-005	0.0003331	9
	12	55	18984.38	317.6264	-7.591609	1	317.7171	-1.369169	2.701629E-005	-0.000213	9
	13	57	15046.87	318.5247	-7.545063	1	318.6141	-1.356942	-2.464172E-005	0.000861	9
	14	59	11953.13	318.3233	-8.155555	1	318.4278	-1.467617	-2.283515E-005	0.0006851	9
	15	62	9515.62	319.4771	-7.699975	1	319.5699	-1.380664	-1.003659E-005	0.0008981	9
	16	64	7546.875	319.7484	-7.384229	1	319.8337	-1.322946	-2.116545E-005	0.0004911	9
	17	66	5928.309	320.6374	-9.105145	1	320.7666	-1.626592	1.131226E-005	0.0003295	9
	18	70	4733.456	321.1314	-9.286978	1	321.2657	-1.656507	-9.533247E-006	-9.467994E-005	9
	19	73	3796.875	322.5472	-11.62291	1	322.7566	-2.063747	2.624503E-005	-0.0007232	9
	20	75	2987.132	323.0596	-12.13877	1	323.2876	-2.151841	2.628787E-005	-0.0007413	9
	21	77	2390.625	324.148	-14.74703	1	324.4833	-2.60486	-1.8405E-005	0.0002012	9
	22	80	1884.191	324.7859	-17.36328	1	325.2497	-3.060158	-9.495703E-006	0.0009269	9
	23	82	1516.544	326.1691	-19.57277	1	326.7558	-3.434091	2.766574E-005	-0.0006173	9
	24	85	1193.986	327.342	-23.52151	1	328.186	-4.109986	2.635907E-005	-0.0004433	9
	25	87	946.5144	329.0951	-27.63759	1	330.2535	-4.800468	-2.24555E-005	0.0005076	9
	26	89	751.7689	331.1835	-33.06659	1	332.8302	-5.701726	-2.261321E-005	0.0010201	9
	27	92	597.4265	332.5325	-39.75506	1	334.9005	-6.817492	3.02661E-007	0.0006633	9
	28	94	477.4305	334.9727	-46.87343	1	338.2363	-7.965794	1.119869E-006	8.604905E-005	9
	29	96	376.6741	337.7147	-56.62484	1	342.4289	-9.51828	1.207266E-006	7.769859E-005	9
	30	99	298.2954	340.8292	-68.39215	1	347.6234	-11.34651	1.254163E-006	9.013764E-005	9
	31	101	237.7717	344.3368	-82.36105	1	354.0497	-13.4517	1.132897E-006	9.123534E-005	9
	32	104	189.0121	346.9662	-99.1803	1	360.8632	-15.95258	1.493003E-009	0.0006696	8
	33	106	150.2404	351.7393	-120.2084	1	371.713	-18.86808	1.331506E-008	0.0006587	8
	34	108	119.1737	357.3679	-146.2309	1	386.1286	-22.25382	1.261508E-008	0.0006652	8
	35	111	95.0169	363.8615	-177.4026	1	404.8047	-25.9918	-1.414227E-008	0.0006653	8
	36	113	75.60484	371.6201	-215.9272	1	429.7977	-30.15842	1.887406E-008	0.0006634	8
	37	116	54.50582	385.403	-286.7257	1	480.3614	-36.6479	1.541711E-009	0.0006678	8
	38	118	45.95588	394.2602	-332.7414	1	515.9049	-40.16316	-2.353587E-008	0.0006653	8
	39	120	37.20238	407.132	-400.2985	1	570.96	-44.5151	4.58388E-010	0.0006663	8
	40	123	30.04808	422.8001	-482.8289	1	641.7817	-48.79226	1.58281E-008	0.0006625	8
	41	125	23.91582	443.2306	-590.0809	1	738.0033	-53.0885	3.517066E-009	0.0006486	8
	42	128	18.60119	471.0157	-736.2672	1	874.0395	-57.39154	4.324858E-008	0.0006712	8
	43	130	15.02404	500.5908	-888.1564	1	1019.516	-60.59312	7.861083E-009	0.0006532	8
	44	132	12.01923	537.8118	-1080.849	1	1207.259	-63.54585	-2.700497E-008	0.0006522	8
	45	135	9.450605	586.6047	-1335.669	1	1458.806	-66.28967	1.297871E-008	0.0006702	8
	46	137	7.512019	644.2105	-1633.365	1	1755.816	-68.47539	-2.936818E-008	0.0006564	8
	47	140	5.978954	714.0109	-1996.1	1	2119.959	-70.31772	-8.264758E-009	0.0006758	8
	48	143	4.734848	801.3679	-2451.785	1	2579.426	-71.89998	1.235935E-008	0.0006585	8
	49	146	3.75601	906.1195	-3004.837	1	3138.487	-73.21912	3.852405E-008	0.0006612	8
	50	149	3.004808	1028.574	-3653.583	1	3795.608	-74.27677	-5.265882E-009	0.0007115	8
	51	153	2.372217	1193.727	-4509.369	1	4664.696	-75.17268	-1.573483E-008	0.0007177	7
	52	157	1.878005	1379.248	-5544.625	1	5713.598	-76.03097	-3.145031E-008	0.0006232	7
	53	162	1.512097	1585.635	-6701.314	1	6886.353	-76.68776	-1.500873E-008	0.000614	7
	54	167	1.201923	1871.105	-8236.697	1	8446.551	-77.2015	-3.026263E-008	0.0006231	7
	55	174	0.956633	2211.159	-10081.72	1	10321.36	-77.62956	-3.046831E-008	-1.675726E-006	7
