EXPLAIN
TAG	EISPOT
TITLE	LABEL	Potentiostatic EIS	Test Identifier
DATE	LABEL	2/25/2021	Date
TIME	LABEL	23:40:10	Time
NOTES	NOTES	1	Notes...
	
PSTAT	PSTAT	REF3000-16137	Potentiostat
VDC	POTEN	0.00000E+000	T	DC Voltage (V)
FREQINIT	QUANT	3.00000E+005	Initial Freq. (Hz)
FREQFINAL	QUANT	1.00000E+000	Final Freq. (Hz)
PTSPERDEC	QUANT	1.00000E+001	Points/decade
VAC	QUANT	5.00000E+001	AC Voltage (mV rms)
AREA	QUANT	1.00000E+000	Sample Area (cm^2)
SPEED	SELECTOR	2	Optimize for:
ZGUESS	QUANT	1.00000E+003	Estimated Z (ohms)
EOC	QUANT	0	Open Circuit (V)
SEQUENCER	TOGGLE	TRUE	Run as Sequence
PSTATMODEL	IQUANT	5	Pstat Model
PSTATSECTION	LABEL	REF3000-16137	Pstat Section
PSTATSERIALNO	LABEL	16137	Pstat Serial Number
CTRLMODE	IQUANT	1	Control Mode
IESTAB	IQUANT	0	I/E Stability
CASPEED	IQUANT	1	Control Amp Speed
CONVENTION	IQUANT	1	Current Convention
ICHRANGE	IQUANT	2	Ich Range
ICHRANGEMODE	TOGGLE	F	Ich Auto Range
ICHOFFSETENABLE	TOGGLE	T	Ich Offset Enable
ICHOFFSET	QUANT	0	Ich Offset (V)
ICHFILTER	IQUANT	3	Ich Filter
VCHRANGE	IQUANT	2	Vch Range
VCHRANGEMODE	TOGGLE	F	Vch Auto Range
VCHOFFSETENABLE	TOGGLE	T	Vch Offset Enable
VCHOFFSET	QUANT	0	Vch Offset (V)
VCHFILTER	IQUANT	3	Vch Filter
ACHRANGE	IQUANT	2	Ach Range
ACHOFFSETENABLE	TOGGLE	F	Ach Offset Enable
ACHOFFSET	QUANT	0	Ach Offset (V)
ACHFILTER	IQUANT	3	Ach Filter
IERANGELOWERLIMIT	IQUANT	2	I/E Range Lower Limit
IERANGEMODE	TOGGLE	F	I/E AutoRange
IERANGE	IQUANT	11	I/E Range
POSFEEDENABLE	TOGGLE	F	Positive Feedback IR Comp
POSFEEDRESISTANCE	QUANT	0	Positive Feedback Resistance (ohm)
ACHSELECT	IQUANT	0	Ach Select
CABLEID	IQUANT	13	Cable ID
DCCALDATE	LABEL	7/31/2020	DC Calibration Date
ACCALDATE	LABEL	7/31/2020	AC Calibration Date
THERMOSELECT	IQUANT	1	Thermo Select
FRAMEWORKVERSION	QUANT	6.33	Framework Version
INSTRUMENTVERSION	LABEL	3.50	Instrument Version
COMPLIANCEVOLTAGE	IQUANT	0	Compliance Voltage
ZCURVE	TABLE
	Pt	Time	Freq	Zreal	Zimag	Zsig	Zmod	Zphz	Idc	Vdc	IERange
	#	s	Hz	ohm	ohm	V	ohm	°	A	V	#
	0	18	300046.9	576.1823	-122.4889	1	589.0582	-12.00167	-2.971257E-005	-0.0010103	9
	1	27	238359.4	588.6473	-105.4102	1	598.0108	-10.15246	2.79566E-005	-0.0004698	9
	2	41	189328.1	601.6602	-89.48712	1	608.2786	-8.459793	8.229314E-005	-0.0031009	9
	3	50	150421.9	612.8845	-78.69508	1	617.9161	-7.316809	5.0499E-005	-1.327685E-005	9
	4	58	119484.4	622.2488	-47.37667	1	624.0498	-4.353975	7.099417E-006	-0.0049258	8
	5	62	94921.88	627.0102	-36.13085	1	628.0504	-3.297966	1.241952E-005	-0.005786	8
	6	64	75421.88	630.1166	-34.02384	1	631.0345	-3.090747	2.143912E-006	-0.0041802	8
	7	67	59859.37	632.826	-28.2721	1	633.4573	-2.558042	1.765379E-005	-0.0039493	8
	8	69	47578.12	636.8751	-26.53571	1	637.4277	-2.385876	1.346237E-005	-0.0059478	8
	9	72	37828.12	638.9187	-23.81687	1	639.3624	-2.134817	-1.431873E-005	0.0072749	8
	10	74	30046.88	640.8292	-21.72077	1	641.1971	-1.941285	-6.085717E-006	0.0063154	8
	11	77	23859.38	645.0386	-19.97638	1	645.3479	-1.773842	1.648553E-005	-0.0057573	8
	12	79	18984.38	646.8823	-17.65619	1	647.1232	-1.56346	-1.193703E-005	0.0011177	8
	13	82	15046.87	649.6441	-16.48557	1	649.8533	-1.453643	8.179208E-006	0.0019004	8
	14	84	11953.13	654.3568	-16.90452	1	654.5751	-1.479838	1.62848E-005	-0.0058158	8
	15	87	9515.62	655.1419	-15.01845	1	655.314	-1.313217	-1.595131E-005	0.0066412	8
	16	89	7546.875	654.8877	-16.00064	1	655.0831	-1.399609	1.722577E-005	-0.0025376	8
	17	91	5928.309	659.1864	-14.38677	1	659.3434	-1.250284	3.071051E-006	-0.0041123	8
	18	94	4733.456	661.4447	-17.56892	1	661.678	-1.5215	-1.639111E-005	0.0067773	8
	19	96	3796.875	660.9909	-14.90923	1	661.1591	-1.292138	-8.169053E-006	-0.0004455	8
	20	99	2987.132	666.2055	-17.78886	1	666.4429	-1.529535	-1.027255E-005	0.0070287	8
	21	101	2390.625	670.3588	-21.80533	1	670.7134	-1.863052	-1.737554E-005	0.0059547	8
	22	104	1884.191	674.8746	-28.96703	1	675.496	-2.457746	-8.352925E-006	-0.0002454	8
	23	106	1516.544	673.5558	-27.81444	1	674.1298	-2.364681	-4.91792E-006	0.0060978	8
	24	109	1193.986	676.6809	-31.66357	1	677.4213	-2.679057	1.341121E-005	-0.0060321	8
	25	111	946.5144	679.1807	-37.3157	1	680.2051	-3.144796	1.311573E-005	-0.0058512	8
	26	114	751.7689	684.5148	-43.04483	1	685.8668	-3.598233	8.666496E-006	-0.0054533	8
	27	116	597.4265	687.6121	-50.1371	1	689.4376	-4.17033	1.328765E-005	-0.0004645	8
	28	119	477.4305	692.913	-59.52727	1	695.4653	-4.910151	-9.31917E-008	0.0006553	8
	29	121	376.6741	698.21	-70.71776	1	701.7822	-5.783444	-9.856365E-008	0.0006634	8
	30	123	298.2954	704.0126	-84.06841	1	709.0143	-6.809628	-1.041533E-007	0.0006666	8
	31	125	237.7717	710.4538	-99.7536	1	717.4227	-7.992549	-1.365699E-007	0.0006758	8
	32	128	189.0121	717.759	-118.9473	1	727.5482	-9.409562	-1.29609E-007	0.0006749	8
	33	130	150.2404	726.058	-142.1683	1	739.846	-11.07882	-1.260221E-007	0.0006598	8
	34	133	119.1737	735.5267	-170.6552	1	755.0647	-13.06251	-7.407649E-008	0.0006237	8
	35	135	95.0169	746.1396	-204.3124	1	773.6071	-15.3137	-1.232897E-007	0.0006754	8
	36	138	75.60484	758.3763	-245.5963	1	797.1525	-17.94428	-1.239178E-007	0.0006601	8
	37	140	54.50582	778.7433	-320.7358	1	842.207	-22.38496	-1.346674E-007	0.0006706	8
	38	143	45.95588	791.5695	-369.2356	1	873.4514	-25.00718	-7.688242E-008	0.0006529	8
	39	145	37.20238	809.3044	-440.2222	1	921.2867	-28.54404	-1.450178E-007	0.000665	8
	40	147	30.04808	830.0583	-526.6135	1	983.015	-32.39225	-1.049554E-007	0.0006536	8
	41	150	23.91582	855.9453	-638.7999	1	1068.039	-36.73432	-1.473914E-007	0.0006771	8
	42	152	18.60119	889.7592	-791.0208	1	1190.54	-41.63799	-1.366966E-007	0.000684	8
	43	154	15.02404	924.937	-950.361	1	1326.158	-45.77673	-6.679357E-008	0.0006891	8
	44	157	12.01923	968.167	-1151.564	1	1504.475	-49.94486	-6.878555E-008	0.0006533	8
	45	159	9.450605	1024.127	-1416.866	1	1748.241	-54.14018	-1.42634E-007	0.0006691	8
	46	162	7.512019	1090.588	-1728.736	1	2043.994	-57.75387	-9.093925E-008	0.0006629	8
	47	164	5.978954	1169.121	-2107.059	1	2409.676	-60.97589	-1.200164E-007	0.0006868	8
	48	167	4.734848	1267.604	-2580.71	1	2875.219	-63.84047	-8.782149E-008	0.0006557	8
	49	171	3.75601	1387.235	-3156.423	1	3447.815	-66.2747	-1.105322E-007	0.0006398	8
	50	174	3.004808	1525.206	-3832.288	1	4124.643	-68.29802	-1.145166E-007	0.0006792	8
	51	178	2.372217	1709.652	-4712.485	1	5013.026	-70.05964	-4.417437E-008	0.0006495	7
	52	182	1.878005	1930.441	-5790.514	1	6103.823	-71.56265	-6.019981E-008	0.0006422	7
	53	187	1.512097	2171.63	-7000.633	1	7329.723	-72.76586	-5.164449E-008	0.0005323	7
	54	192	1.201923	2487.396	-8567.245	1	8921.033	-73.80999	-5.650305E-008	0.0006541	7
	55	198	0.956633	2860.081	-10471.64	1	10855.19	-74.72359	-5.697778E-008	-3.49467E-006	7
