EXPLAIN
TAG	EISPOT
TITLE	LABEL	Potentiostatic EIS	Test Identifier
DATE	LABEL	2/25/2021	Date
TIME	LABEL	23:43:37	Time
NOTES	NOTES	1	Notes...
	
PSTAT	PSTAT	REF3000-16137	Potentiostat
VDC	POTEN	0.00000E+000	T	DC Voltage (V)
FREQINIT	QUANT	3.00000E+005	Initial Freq. (Hz)
FREQFINAL	QUANT	1.00000E+000	Final Freq. (Hz)
PTSPERDEC	QUANT	1.00000E+001	Points/decade
VAC	QUANT	5.00000E+001	AC Voltage (mV rms)
AREA	QUANT	1.00000E+000	Sample Area (cm^2)
SPEED	SELECTOR	2	Optimize for:
ZGUESS	QUANT	1.00000E+003	Estimated Z (ohms)
EOC	QUANT	0	Open Circuit (V)
SEQUENCER	TOGGLE	TRUE	Run as Sequence
PSTATMODEL	IQUANT	5	Pstat Model
PSTATSECTION	LABEL	REF3000-16137	Pstat Section
PSTATSERIALNO	LABEL	16137	Pstat Serial Number
CTRLMODE	IQUANT	1	Control Mode
IESTAB	IQUANT	0	I/E Stability
CASPEED	IQUANT	1	Control Amp Speed
CONVENTION	IQUANT	1	Current Convention
ICHRANGE	IQUANT	2	Ich Range
ICHRANGEMODE	TOGGLE	F	Ich Auto Range
ICHOFFSETENABLE	TOGGLE	T	Ich Offset Enable
ICHOFFSET	QUANT	0	Ich Offset (V)
ICHFILTER	IQUANT	3	Ich Filter
VCHRANGE	IQUANT	2	Vch Range
VCHRANGEMODE	TOGGLE	F	Vch Auto Range
VCHOFFSETENABLE	TOGGLE	T	Vch Offset Enable
VCHOFFSET	QUANT	0	Vch Offset (V)
VCHFILTER	IQUANT	3	Vch Filter
ACHRANGE	IQUANT	2	Ach Range
ACHOFFSETENABLE	TOGGLE	F	Ach Offset Enable
ACHOFFSET	QUANT	0	Ach Offset (V)
ACHFILTER	IQUANT	3	Ach Filter
IERANGELOWERLIMIT	IQUANT	2	I/E Range Lower Limit
IERANGEMODE	TOGGLE	F	I/E AutoRange
IERANGE	IQUANT	11	I/E Range
POSFEEDENABLE	TOGGLE	F	Positive Feedback IR Comp
POSFEEDRESISTANCE	QUANT	0	Positive Feedback Resistance (ohm)
ACHSELECT	IQUANT	0	Ach Select
CABLEID	IQUANT	13	Cable ID
DCCALDATE	LABEL	7/31/2020	DC Calibration Date
ACCALDATE	LABEL	7/31/2020	AC Calibration Date
THERMOSELECT	IQUANT	1	Thermo Select
FRAMEWORKVERSION	QUANT	6.33	Framework Version
INSTRUMENTVERSION	LABEL	3.50	Instrument Version
COMPLIANCEVOLTAGE	IQUANT	0	Compliance Voltage
ZCURVE	TABLE
	Pt	Time	Freq	Zreal	Zimag	Zsig	Zmod	Zphz	Idc	Vdc	IERange
	#	s	Hz	ohm	ohm	V	ohm	°	A	V	#
	0	24	300046.9	643.3881	-155.7975	1	661.9827	-13.61224	-6.601989E-005	0.0004737	9
	1	38	238359.4	664.5362	-133.5772	1	677.8283	-11.36546	1.587098E-005	-0.0020007	9
	2	54	189328.1	678.629	-125.6426	1	690.1619	-10.48908	-8.723089E-005	0.0022227	9
	3	63	150421.9	695.0952	-100.7378	1	702.3571	-8.246272	-8.41631E-005	0.0038001	9
	4	70	119484.4	707.2657	-60.11073	1	709.8156	-4.857912	7.481669E-007	0.0099903	8
	5	75	94921.88	712.0876	-50.33331	1	713.8643	-4.043179	8.75579E-006	-0.0055888	8
	6	77	75421.88	717.9898	-44.74929	1	719.383	-3.566392	-1.528278E-005	0.0029729	8
	7	80	59859.37	720.942	-37.11999	1	721.897	-2.947453	-1.600091E-005	0.0042246	8
	8	82	47578.12	724.3546	-35.2369	1	725.2111	-2.785011	1.747988E-005	-0.002554	8
	9	85	37828.12	728.3297	-30.25639	1	728.9578	-2.378823	1.720139E-005	-0.0061317	8
	10	88	30046.88	732.2732	-26.89662	1	732.767	-2.103546	1.884836E-005	-0.0053558	8
	11	90	23859.38	735.4093	-23.81308	1	735.7947	-1.85463	8.261939E-006	0.0020334	8
	12	93	18984.38	739.0075	-21.41502	1	739.3177	-1.659857	1.378188E-005	-0.0005885	8
	13	95	15046.87	742.27	-20.49669	1	742.553	-1.581737	1.810843E-005	-0.0059825	8
	14	98	11953.13	742.5381	-24.02681	1	742.9268	-1.853312	-1.564208E-005	0.0032294	8
	15	100	9515.62	746.9653	-17.32763	1	747.1662	-1.328873	9.357343E-006	-0.0056664	8
	16	103	7546.875	750.8138	-16.95873	1	751.0053	-1.293928	1.82178E-005	-0.003947	8
	17	105	5928.309	752.2759	-16.11489	1	752.4485	-1.227175	1.841822E-005	-0.0052815	8
	18	108	4733.456	756.5646	-18.79597	1	756.798	-1.423155	8.618581E-007	0.004756	8
	19	110	3796.875	753.258	-18.82638	1	753.4932	-1.431711	-3.51363E-006	-0.0022484	8
	20	113	2987.132	760.3342	-21.15776	1	760.6285	-1.593953	1.876635E-005	-0.0040628	8
	21	115	2390.625	762.8356	-23.72259	1	763.2044	-1.781205	1.6737E-005	-0.0059207	8
	22	119	1884.191	769.3449	-20.42749	1	769.616	-1.520948	-1.555371E-005	0.0032014	8
	23	121	1516.544	771.4841	-29.45927	1	772.0463	-2.186788	1.119461E-006	0.0047437	8
	24	124	1193.986	773.6541	-33.82959	1	774.3934	-2.503778	-8.856797E-006	-0.0002434	8
	25	128	946.5144	778.9889	-36.32001	1	779.8351	-2.669457	-1.515114E-005	0.0077242	8
	26	130	751.7689	781.2594	-45.81644	1	782.6017	-3.356229	-1.30594E-005	0.0017414	8
	27	133	597.4265	788.0385	-53.02412	1	789.8203	-3.849413	-1.57733E-005	0.0032083	8
	28	135	477.4305	792.9022	-63.03663	1	795.404	-4.545519	-1.137703E-007	0.000654	8
	29	138	376.6741	798.7813	-74.75388	1	802.2715	-5.346449	-1.067743E-007	0.0006511	8
	30	140	298.2954	1473.393	-177.1614	1	1484.005	-6.856355	-1.270752E-007	0.0006534	8
	31	142	237.7717	1729.197	-249.9057	1	1747.162	-8.223521	-1.906435E-007	0.0006807	8
	32	145	189.0121	1931.063	-307.7586	1	1955.433	-9.055225	-1.516081E-007	0.0006562	8
	33	147	150.2404	2121.24	-361.8641	1	2151.884	-9.68094	-1.547624E-007	0.0006594	8
	34	152	119.1737	2452.336	-462.7864	1	2495.621	-10.68675	-1.516476E-007	0.0006621	8
	35	154	95.0169	2672.882	-526.2208	1	2724.189	-11.13761	-1.179434E-007	0.0006466	8
	36	156	75.60484	2920.182	-600.585	1	2981.303	-11.62179	-1.30279E-007	0.0006445	8
	37	159	54.50582	3214.776	-697.9625	1	3289.672	-12.24942	-1.81711E-007	0.0006666	8
	38	161	45.95588	3482.028	-787.1927	1	3569.901	-12.73889	-1.452114E-007	0.0006555	8
	39	164	37.20238	3779.779	-895.8181	1	3884.485	-13.33325	-1.120598E-007	0.0006298	7
	40	166	30.04808	4098.694	-1020.081	1	4223.726	-13.9758	-3.493418E-008	0.0006421	7
	41	169	23.91582	4447.305	-1172.801	1	4599.346	-14.77316	1.077761E-009	0.0006574	7
	42	171	18.60119	4819.887	-1365.953	1	5009.704	-15.8227	-1.462263E-007	0.0006239	7
	43	173	15.02404	5191.414	-1579.997	1	5426.525	-16.92753	-1.301034E-007	0.0006507	7
	44	175	12.01923	5594.519	-1827.878	1	5885.557	-18.09359	1.037837E-008	0.0006161	7
	45	178	9.450605	6059.103	-2155.15	1	6430.972	-19.57986	3.134761E-008	0.0006055	7
	46	180	7.512019	6562.389	-2571.424	1	7048.203	-21.39737	1.714431E-008	0.0006356	7
	47	183	5.978954	7159.207	-3039.92	1	7777.875	-23.0069	-7.025896E-008	0.0006204	7
	48	186	4.734848	7846.862	-3650.8	1	8654.57	-24.95049	-3.489624E-008	0.0006294	7
	49	189	3.75601	8624.825	-4383.013	1	9674.63	-26.93903	-7.888766E-008	0.0005975	7
	50	193	3.004808	9473.475	-5238.846	1	10825.54	-28.94266	-3.816708E-008	0.0005737	7
	51	196	2.372217	10500.43	-6334.521	1	12263.16	-31.10103	-7.054243E-008	0.0005804	7
	52	201	1.878005	11689.73	-7685.085	1	13989.65	-33.32179	-5.764528E-008	0.0006395	7
	53	205	1.512097	13081.18	-9194.281	1	15989.13	-35.10197	-6.003305E-008	0.0005346	7
	54	211	1.201923	14785.42	-11206.95	1	18552.75	-37.16114	-6.019353E-008	0.0006547	7
	55	217	0.956633	16749.21	-13601.01	1	21575.99	-39.07795	-7.121326E-008	-7.351625E-006	7
