EXPLAIN
TAG	EISPOT
TITLE	LABEL	Potentiostatic EIS	Test Identifier
DATE	LABEL	2/25/2021	Date
TIME	LABEL	23:33:36	Time
NOTES	NOTES	1	Notes...
	
PSTAT	PSTAT	REF3000-16137	Potentiostat
VDC	POTEN	0.00000E+000	T	DC Voltage (V)
FREQINIT	QUANT	3.00000E+005	Initial Freq. (Hz)
FREQFINAL	QUANT	1.00000E+000	Final Freq. (Hz)
PTSPERDEC	QUANT	1.00000E+001	Points/decade
VAC	QUANT	5.00000E+001	AC Voltage (mV rms)
AREA	QUANT	1.00000E+000	Sample Area (cm^2)
SPEED	SELECTOR	2	Optimize for:
ZGUESS	QUANT	1.00000E+003	Estimated Z (ohms)
EOC	QUANT	0	Open Circuit (V)
SEQUENCER	TOGGLE	TRUE	Run as Sequence
PSTATMODEL	IQUANT	5	Pstat Model
PSTATSECTION	LABEL	REF3000-16137	Pstat Section
PSTATSERIALNO	LABEL	16137	Pstat Serial Number
CTRLMODE	IQUANT	1	Control Mode
IESTAB	IQUANT	0	I/E Stability
CASPEED	IQUANT	1	Control Amp Speed
CONVENTION	IQUANT	1	Current Convention
ICHRANGE	IQUANT	2	Ich Range
ICHRANGEMODE	TOGGLE	F	Ich Auto Range
ICHOFFSETENABLE	TOGGLE	T	Ich Offset Enable
ICHOFFSET	QUANT	0	Ich Offset (V)
ICHFILTER	IQUANT	3	Ich Filter
VCHRANGE	IQUANT	2	Vch Range
VCHRANGEMODE	TOGGLE	F	Vch Auto Range
VCHOFFSETENABLE	TOGGLE	T	Vch Offset Enable
VCHOFFSET	QUANT	0	Vch Offset (V)
VCHFILTER	IQUANT	3	Vch Filter
ACHRANGE	IQUANT	2	Ach Range
ACHOFFSETENABLE	TOGGLE	F	Ach Offset Enable
ACHOFFSET	QUANT	0	Ach Offset (V)
ACHFILTER	IQUANT	3	Ach Filter
IERANGELOWERLIMIT	IQUANT	2	I/E Range Lower Limit
IERANGEMODE	TOGGLE	F	I/E AutoRange
IERANGE	IQUANT	11	I/E Range
POSFEEDENABLE	TOGGLE	F	Positive Feedback IR Comp
POSFEEDRESISTANCE	QUANT	0	Positive Feedback Resistance (ohm)
ACHSELECT	IQUANT	0	Ach Select
CABLEID	IQUANT	13	Cable ID
DCCALDATE	LABEL	7/31/2020	DC Calibration Date
ACCALDATE	LABEL	7/31/2020	AC Calibration Date
THERMOSELECT	IQUANT	1	Thermo Select
FRAMEWORKVERSION	QUANT	6.33	Framework Version
INSTRUMENTVERSION	LABEL	3.50	Instrument Version
COMPLIANCEVOLTAGE	IQUANT	0	Compliance Voltage
ZCURVE	TABLE
	Pt	Time	Freq	Zreal	Zimag	Zsig	Zmod	Zphz	Idc	Vdc	IERange
	#	s	Hz	ohm	ohm	V	ohm	°	A	V	#
	0	13	300046.9	473.4944	-81.09837	1	480.3893	-9.7191	-8.31096E-005	0.0036263	9
	1	20	238359.4	481.5253	-69.70679	1	486.5446	-8.237057	-1.874736E-005	0.0013554	9
	2	27	189328.1	490.3136	-59.57226	1	493.9193	-6.927385	-0.0000989	0.0035638	9
	3	34	150421.9	494.0739	-48.58488	1	496.4569	-5.616139	-8.728239E-005	0.0022552	9
	4	43	119484.4	501.523	-42.98264	1	503.3615	-4.89852	8.424955E-005	-0.0023901	9
	5	50	94921.88	505.0402	-37.03931	1	506.3966	-4.194525	2.728796E-005	-0.0007935	9
	6	52	75421.88	508.8962	-20.17595	1	509.296	-2.270388	-3.025091E-006	-0.0019328	8
	7	55	59859.37	510.7341	-18.18061	1	511.0576	-2.038698	1.493904E-005	-0.0053346	8
	8	57	47578.12	512.8655	-16.12716	1	513.119	-1.801083	-1.561468E-005	0.0053642	8
	9	60	37828.12	514.6984	-13.31801	1	514.8707	-1.482218	1.232417E-005	-0.0054681	8
	10	62	30046.88	516.8492	-13.86987	1	517.0353	-1.537188	2.819202E-006	-0.0037581	8
	11	65	23859.38	518.5361	-13.31819	1	518.7071	-1.471274	-1.573227E-005	0.0053716	8
	12	67	18984.38	520.1511	-12.78145	1	520.3081	-1.407621	1.189685E-005	-0.0003111	8
	13	69	15046.87	522.9243	-13.76435	1	523.1054	-1.507785	1.924738E-006	-0.00349	8
	14	72	11953.13	522.3643	-12.26749	1	522.5083	-1.345319	-3.058909E-006	-0.0019508	8
	15	74	9515.62	525.4106	-11.52409	1	525.5369	-1.256495	-1.663529E-005	0.0060393	8
	16	77	7546.875	527.5892	-11.13999	1	527.7068	-1.209615	-5.045292E-006	0.005849	8
	17	79	5928.309	528.571	-12.9831	1	528.7305	-1.407053	1.637799E-005	-0.004606	8
	18	81	4733.456	532.2083	-13.47369	1	532.3788	-1.450223	1.188665E-005	-0.0053523	8
	19	84	3796.875	533.2584	-15.49475	1	533.4835	-1.66436	-1.556526E-005	0.0053301	8
	20	86	2987.132	535.351	-17.41565	1	535.6342	-1.863247	-1.50367E-005	0.0042229	8
	21	89	2390.625	536.1704	-18.59787	1	536.4929	-1.986593	-9.641319E-006	0.0065922	8
	22	91	1884.191	536.7134	-16.57462	1	536.9692	-1.768829	-3.054112E-006	-0.001945	8
	23	93	1516.544	540.6407	-24.78047	1	541.2084	-2.624336	1.63259E-005	-0.0046308	8
	24	95	1193.986	543.2414	-28.61756	1	543.9946	-3.015512	-9.623614E-006	0.0066376	8
	25	98	946.5144	546.6216	-33.07602	1	547.6214	-3.46274	-7.960593E-006	-8.540139E-005	8
	26	100	751.7689	549.5143	-38.11723	1	550.8348	-3.967983	-1.491086E-005	0.0041756	8
	27	103	597.4265	553.793	-46.34238	1	555.7286	-4.783467	-9.535318E-006	0.0065753	8
	28	105	477.4305	556.5883	-54.32956	1	559.2336	-5.57508	-7.029342E-008	0.0006523	8
	29	107	376.6741	561.064	-64.73698	1	564.7864	-6.581827	-7.934681E-008	0.0006502	8
	30	109	298.2954	566.0273	-77.19966	1	571.2676	-7.766569	-7.643911E-008	0.0006631	8
	31	112	237.7717	571.5166	-91.87414	1	578.8541	-9.132449	-8.578802E-008	0.0006629	8
	32	114	189.0121	577.7795	-109.8222	1	588.1241	-10.76218	-1.070624E-007	0.000667	8
	33	117	150.2404	584.8976	-131.6139	1	599.5226	-12.6815	-1.085043E-007	0.0006604	8
	34	119	119.1737	593.0813	-158.34	1	613.8542	-14.9481	-1.233895E-007	0.0006686	8
	35	121	95.0169	602.303	-190.1117	1	631.5944	-17.51785	-1.203386E-007	0.0006621	8
	36	124	75.60484	612.9862	-229.0853	1	654.3945	-20.49173	-9.367107E-008	0.0006662	8
	37	126	54.50582	630.8743	-300.1336	1	698.629	-25.44241	-8.084377E-008	0.0006533	8
	38	129	45.95588	642.2708	-346.1771	1	729.6235	-28.32419	-1.002252E-007	0.0006601	8
	39	131	37.20238	658.0399	-413.5367	1	777.1931	-32.14678	-9.350837E-008	0.0006695	8
	40	134	30.04808	676.7229	-495.6074	1	838.7971	-36.2177	-1.048324E-007	0.000672	8
	41	136	23.91582	700.1779	-602.1082	1	923.4627	-40.69342	-4.525997E-008	0.0006581	8
	42	138	18.60119	731.3363	-747.1776	1	1045.527	-45.61386	-1.630228E-007	0.0006705	8
	43	141	15.02404	763.3958	-898.0372	1	1178.662	-49.63309	-1.253826E-007	0.0006941	8
	44	143	12.01923	804.0626	-1089.628	1	1354.181	-53.57549	-3.687406E-008	0.0006686	8
	45	145	9.450605	856.4525	-1341.883	1	1591.905	-57.45208	-1.069629E-007	0.0006567	8
	46	148	7.512019	918.6888	-1637.631	1	1877.718	-60.70817	-8.280172E-008	0.0006867	8
	47	151	5.978954	992.578	-1997.217	1	2230.266	-63.57352	-7.088531E-008	0.0006638	8
	48	154	4.734848	1084.409	-2447.115	1	2676.624	-66.10007	-4.889649E-008	0.0006874	8
	49	157	3.75601	1197.174	-2993.915	1	3224.399	-68.20506	-8.83705E-008	0.0006467	8
	50	160	3.004808	1327.318	-3635.524	1	3870.246	-69.94303	-9.755861E-008	0.0006455	8
	51	164	2.372217	1501.984	-4469.918	1	4715.52	-71.4266	-5.130745E-008	0.0006479	7
	52	168	1.878005	1710.19	-5493.772	1	5753.806	-72.70884	-6.878206E-008	0.0006356	7
	53	173	1.512097	1933.342	-6641.561	1	6917.235	-73.76985	-5.764033E-008	0.0005393	7
	54	178	1.201923	2238.997	-8130.295	1	8432.96	-74.603	-6.622426E-008	0.0006391	7
	55	185	0.956633	2598.026	-9935.04	1	10269.12	-75.34524	-6.590444E-008	-8.344025E-006	7
