EXPLAIN
TAG	EISPOT
TITLE	LABEL	Potentiostatic EIS	Test Identifier
DATE	LABEL	2/25/2021	Date
TIME	LABEL	23:14:31	Time
NOTES	NOTES	1	Notes...
	
PSTAT	PSTAT	REF3000-16137	Potentiostat
VDC	POTEN	0.00000E+000	T	DC Voltage (V)
FREQINIT	QUANT	3.00000E+005	Initial Freq. (Hz)
FREQFINAL	QUANT	1.00000E+000	Final Freq. (Hz)
PTSPERDEC	QUANT	1.00000E+001	Points/decade
VAC	QUANT	5.00000E+001	AC Voltage (mV rms)
AREA	QUANT	1.00000E+000	Sample Area (cm^2)
SPEED	SELECTOR	2	Optimize for:
ZGUESS	QUANT	1.00000E+003	Estimated Z (ohms)
EOC	QUANT	0	Open Circuit (V)
SEQUENCER	TOGGLE	TRUE	Run as Sequence
PSTATMODEL	IQUANT	5	Pstat Model
PSTATSECTION	LABEL	REF3000-16137	Pstat Section
PSTATSERIALNO	LABEL	16137	Pstat Serial Number
CTRLMODE	IQUANT	1	Control Mode
IESTAB	IQUANT	0	I/E Stability
CASPEED	IQUANT	1	Control Amp Speed
CONVENTION	IQUANT	1	Current Convention
ICHRANGE	IQUANT	2	Ich Range
ICHRANGEMODE	TOGGLE	F	Ich Auto Range
ICHOFFSETENABLE	TOGGLE	T	Ich Offset Enable
ICHOFFSET	QUANT	0	Ich Offset (V)
ICHFILTER	IQUANT	3	Ich Filter
VCHRANGE	IQUANT	2	Vch Range
VCHRANGEMODE	TOGGLE	F	Vch Auto Range
VCHOFFSETENABLE	TOGGLE	T	Vch Offset Enable
VCHOFFSET	QUANT	0	Vch Offset (V)
VCHFILTER	IQUANT	3	Vch Filter
ACHRANGE	IQUANT	2	Ach Range
ACHOFFSETENABLE	TOGGLE	F	Ach Offset Enable
ACHOFFSET	QUANT	0	Ach Offset (V)
ACHFILTER	IQUANT	3	Ach Filter
IERANGELOWERLIMIT	IQUANT	2	I/E Range Lower Limit
IERANGEMODE	TOGGLE	F	I/E AutoRange
IERANGE	IQUANT	11	I/E Range
POSFEEDENABLE	TOGGLE	F	Positive Feedback IR Comp
POSFEEDRESISTANCE	QUANT	0	Positive Feedback Resistance (ohm)
ACHSELECT	IQUANT	0	Ach Select
CABLEID	IQUANT	13	Cable ID
DCCALDATE	LABEL	7/31/2020	DC Calibration Date
ACCALDATE	LABEL	7/31/2020	AC Calibration Date
THERMOSELECT	IQUANT	1	Thermo Select
FRAMEWORKVERSION	QUANT	6.33	Framework Version
INSTRUMENTVERSION	LABEL	3.50	Instrument Version
COMPLIANCEVOLTAGE	IQUANT	0	Compliance Voltage
ZCURVE	TABLE
	Pt	Time	Freq	Zreal	Zimag	Zsig	Zmod	Zphz	Idc	Vdc	IERange
	#	s	Hz	ohm	ohm	V	ohm	°	A	V	#
	0	13	300046.9	306.9692	-32.18452	1	308.6518	-5.985372	8.122904E-005	-0.0031991	9
	1	17	238359.4	310.9488	-28.11972	1	312.2177	-5.167315	-1.736771E-005	0.0010889	9
	2	23	189328.1	313.5503	-25.35857	1	314.5741	-4.623766	8.437043E-005	-0.0024451	9
	3	28	150421.9	315.3321	-21.96134	1	316.0959	-3.983938	-4.209654E-006	-0.0014424	9
	4	33	119484.4	317.5413	-18.25044	1	318.0653	-3.289412	2.175834E-005	-0.0015801	9
	5	37	94921.88	319.5226	-15.3926	1	319.8932	-2.75802	-1.537069E-005	0.0001119	9
	6	40	75421.88	320.6317	-13.99124	1	320.9368	-2.498601	2.264805E-005	-0.0001409	9
	7	43	59859.37	321.9601	-12.02996	1	322.1848	-2.139847	-1.21131E-006	-0.0004042	9
	8	45	47578.12	323.3051	-10.49343	1	323.4753	-1.858982	2.804424E-005	-0.0006649	9
	9	48	37828.12	323.9096	-9.83326	1	324.0588	-1.738853	2.220848E-005	-0.0008162	9
	10	50	30046.88	325.014	-8.552361	1	325.1265	-1.507323	2.769841E-005	-0.000652	9
	11	53	23859.38	326.0715	-8.090411	1	326.1718	-1.421318	2.212872E-005	-0.0008296	9
	12	55	18984.38	326.5789	-7.908411	1	326.6746	-1.387199	-2.388241E-005	0.0006808	9
	13	57	15046.87	327.9396	-7.724896	1	328.0306	-1.349401	2.266752E-005	-0.0008517	9
	14	59	11953.13	328.739	-8.43346	1	328.8471	-1.469542	-9.775634E-006	-7.917263E-005	9
	15	62	9515.62	329.2879	-8.053081	1	329.3864	-1.400949	-2.233861E-005	0.0010499	9
	16	64	7546.875	330.5618	-8.139135	1	330.662	-1.410459	2.372867E-005	-0.0008498	9
	17	66	5928.309	330.8251	-9.060122	1	330.9491	-1.568735	-2.194651E-005	0.0004834	9
	18	69	4733.456	332.14	-9.92229	1	332.2882	-1.711135	1.971445E-005	-1.915781E-005	9
	19	71	3796.875	333.443	-12.21887	1	333.6668	-2.09864	-9.29993E-006	-7.949304E-005	9
	20	73	2987.132	334.163	-13.05013	1	334.4177	-2.236445	2.719554E-005	-0.0004513	9
	21	76	2390.625	335.4439	-15.2227	1	335.7891	-2.598344	-1.243647E-006	0.0007165	9
	22	78	1884.191	336.5178	-16.79848	1	336.9368	-2.85775	-1.817854E-005	0.0003065	9
	23	80	1516.544	337.8914	-19.75478	1	338.4684	-3.345982	-1.48826E-005	0.0001122	9
	24	85	1193.986	340.1371	-24.02332	1	340.9844	-4.039997	2.433202E-005	-0.0002149	9
	25	87	946.5144	341.1824	-28.43103	1	342.3649	-4.763503	2.842129E-005	-0.0006126	9
	26	90	751.7689	343.0699	-33.79037	1	344.73	-5.625155	-1.154679E-006	-0.0003729	9
	27	92	597.4265	345.7845	-39.97104	1	348.087	-6.593853	-8.82336E-006	0.0009145	9
	28	94	477.4305	348.1585	-47.81178	1	351.4261	-7.819384	1.183865E-006	9.167398E-005	9
	29	97	376.6741	349.6625	-57.44845	1	354.3504	-9.330161	-3.655585E-008	0.0006582	8
	30	99	298.2954	353.0366	-69.33588	1	359.7809	-11.11139	-3.659893E-008	0.0006662	8
	31	101	237.7717	356.8138	-83.44138	1	366.4404	-13.16217	-2.934624E-008	0.0006727	8
	32	104	189.0121	361.2072	-100.8593	1	375.0243	-15.60125	6.228663E-009	0.0006535	8
	33	106	150.2404	366.2698	-122.1818	1	386.1113	-18.44789	-3.379115E-008	0.000672	8
	34	109	119.1737	372.2264	-148.5389	1	400.7696	-21.75473	-3.373879E-008	0.0006629	8
	35	111	95.0169	379.0367	-180.1212	1	419.6576	-25.41743	-9.142143E-009	0.0006564	8
	36	113	75.60484	387.128	-219.147	1	444.8523	-29.51351	-9.154732E-009	0.0006529	8
	37	116	54.50582	401.3066	-290.8674	1	495.6318	-35.93463	-1.18647E-008	0.0006551	8
	38	121	45.95588	410.6839	-337.5675	1	531.6136	-39.41899	-1.275595E-008	0.0006578	8
	39	123	37.20238	423.8607	-406.0605	1	586.9778	-43.7713	-3.348446E-008	0.0006624	8
	40	125	30.04808	439.8598	-489.7718	1	658.2956	-48.07327	-2.190344E-008	0.0006663	8
	41	128	23.91582	460.6581	-598.5878	1	755.3233	-52.41903	-2.30124E-008	0.0006512	8
	42	130	18.60119	488.7961	-746.9307	1	892.6517	-56.79902	1.465701E-008	0.0006696	8
	43	132	15.02404	518.7213	-901.3206	1	1039.928	-60.07904	-2.123774E-008	0.000657	8
	44	135	12.01923	556.322	-1097.242	1	1230.218	-63.11416	-8.816316E-009	0.00065	8
	45	137	9.450605	605.998	-1355.613	1	1484.898	-65.91399	-6.238787E-010	0.0006662	8
	46	139	7.512019	663.6701	-1659.459	1	1787.25	-68.20197	1.683614E-009	0.0006719	8
	47	142	5.978954	734.4961	-2027.286	1	2156.24	-70.08429	-2.631601E-008	0.0006756	8
	48	145	4.734848	823.2492	-2490.484	1	2623.023	-71.70829	1.519994E-008	0.000644	8
	49	148	3.75601	928.9047	-3054.152	1	3192.289	-73.08313	-1.557001E-008	0.0006802	8
	50	152	3.004808	1052.689	-3715.648	1	3861.89	-74.18191	-1.260812E-008	0.0006289	8
	51	156	2.372217	1218.011	-4589.368	1	4748.247	-75.13644	-4.065269E-008	0.0005631	7
	52	160	1.878005	1408.28	-5641.791	1	5814.899	-75.98447	-3.13125E-008	0.0006431	7
	53	164	1.512097	1626.53	-6818.641	1	7009.955	-76.5833	-4.6459E-008	0.0006043	7
	54	170	1.201923	1908.094	-8385.783	1	8600.127	-77.18122	-3.507533E-008	0.0006666	7
	55	176	0.956633	2256.132	-10273.12	1	10517.94	-77.61362	-4.816396E-008	5.248197E-006	7
