EXPLAIN
TAG	EISPOT
TITLE	LABEL	Potentiostatic EIS	Test Identifier
DATE	LABEL	2/27/2021	Date
TIME	LABEL	10:47:07	Time
NOTES	NOTES	1	Notes...
	
PSTAT	PSTAT	REF3000-16137	Potentiostat
VDC	POTEN	0.00000E+000	T	DC Voltage (V)
FREQINIT	QUANT	3.00000E+005	Initial Freq. (Hz)
FREQFINAL	QUANT	1.00000E+000	Final Freq. (Hz)
PTSPERDEC	QUANT	1.00000E+001	Points/decade
VAC	QUANT	5.00000E+001	AC Voltage (mV rms)
AREA	QUANT	1.00000E+000	Sample Area (cm^2)
SPEED	SELECTOR	2	Optimize for:
ZGUESS	QUANT	1.00000E+003	Estimated Z (ohms)
EOC	QUANT	0	Open Circuit (V)
SEQUENCER	TOGGLE	TRUE	Run as Sequence
PSTATMODEL	IQUANT	5	Pstat Model
PSTATSECTION	LABEL	REF3000-16137	Pstat Section
PSTATSERIALNO	LABEL	16137	Pstat Serial Number
CTRLMODE	IQUANT	1	Control Mode
IESTAB	IQUANT	0	I/E Stability
CASPEED	IQUANT	1	Control Amp Speed
CONVENTION	IQUANT	1	Current Convention
ICHRANGE	IQUANT	2	Ich Range
ICHRANGEMODE	TOGGLE	F	Ich Auto Range
ICHOFFSETENABLE	TOGGLE	T	Ich Offset Enable
ICHOFFSET	QUANT	0	Ich Offset (V)
ICHFILTER	IQUANT	3	Ich Filter
VCHRANGE	IQUANT	2	Vch Range
VCHRANGEMODE	TOGGLE	F	Vch Auto Range
VCHOFFSETENABLE	TOGGLE	T	Vch Offset Enable
VCHOFFSET	QUANT	0	Vch Offset (V)
VCHFILTER	IQUANT	3	Vch Filter
ACHRANGE	IQUANT	2	Ach Range
ACHOFFSETENABLE	TOGGLE	F	Ach Offset Enable
ACHOFFSET	QUANT	0	Ach Offset (V)
ACHFILTER	IQUANT	3	Ach Filter
IERANGELOWERLIMIT	IQUANT	2	I/E Range Lower Limit
IERANGEMODE	TOGGLE	F	I/E AutoRange
IERANGE	IQUANT	11	I/E Range
POSFEEDENABLE	TOGGLE	F	Positive Feedback IR Comp
POSFEEDRESISTANCE	QUANT	0	Positive Feedback Resistance (ohm)
ACHSELECT	IQUANT	0	Ach Select
CABLEID	IQUANT	13	Cable ID
DCCALDATE	LABEL	7/31/2020	DC Calibration Date
ACCALDATE	LABEL	7/31/2020	AC Calibration Date
THERMOSELECT	IQUANT	1	Thermo Select
FRAMEWORKVERSION	QUANT	6.33	Framework Version
INSTRUMENTVERSION	LABEL	3.50	Instrument Version
COMPLIANCEVOLTAGE	IQUANT	0	Compliance Voltage
ZCURVE	TABLE
	Pt	Time	Freq	Zreal	Zimag	Zsig	Zmod	Zphz	Idc	Vdc	IERange
	#	s	Hz	ohm	ohm	V	ohm	°	A	V	#
	0	19	300046.9	1437.077	-726.1575	1	1610.123	-26.80755	2.872058E-006	0.0015271	9
	1	32	238359.4	1522.088	-666.8615	1	1661.763	-23.65932	1.909274E-005	-0.0009783	9
	2	44	189328.1	1596.001	-630.4799	1	1716.02	-21.55587	7.749099E-005	-0.0015804	9
	3	51	150421.9	1672.106	-602.4951	1	1777.341	-19.81516	-2.739605E-005	-0.0009187	9
	4	61	119484.4	1714.777	-542.0626	1	1798.414	-17.5424	-7.801942E-005	0.0286168	8
	5	67	94921.88	1761.837	-556.6351	1	1847.677	-17.53342	1.259309E-005	-0.0074818	8
	6	70	75421.88	1809.604	-584.4801	1	1901.653	-17.89983	-2.32499E-006	-0.0036888	8
	7	77	59859.37	1853.556	-634.2249	1	1959.059	-18.88923	-2.161588E-005	0.0084011	8
	8	82	47578.12	1903.95	-694.0083	1	2026.493	-20.02729	2.317434E-005	-0.0064117	8
	9	86	37828.12	1965.445	-780.3665	1	2114.698	-21.65521	-2.267641E-006	-0.0037246	8
	10	92	30046.88	2037.065	-883.5829	1	2220.44	-23.44893	1.607934E-005	-0.0001871	8
	11	95	23859.38	2122.102	-997.107	1	2344.683	-25.16732	1.267927E-005	-0.0075162	8
	12	99	18984.38	2223.236	-1141.649	1	2499.228	-27.18086	2.164979E-005	-0.0075883	8
	13	103	15046.87	2343.334	-1298.404	1	2679.005	-28.99014	-2.161757E-005	0.0083215	8
	14	108	11953.13	2483.16	-1487.96	1	2894.841	-30.9309	-2.179523E-005	0.0084054	8
	15	114	9515.62	2653.781	-1717.627	1	3161.138	-32.91246	-1.950486E-005	0.0011391	9
	16	119	7546.875	2831.637	-1960.854	1	3444.287	-34.70186	1.806079E-005	-0.0079525	8
	17	125	5928.309	3074.163	-2253.206	1	3811.485	-36.23954	5.503878E-006	-0.0059899	8
	18	130	4733.456	3282.249	-2539.962	1	4150.248	-37.73443	-1.434435E-007	0.0061344	8
	19	135	3796.875	3634.369	-2869.782	1	4630.798	-38.29544	2.013022E-006	-0.0155248	7
	20	138	2987.132	3973.518	-3302.529	1	5166.773	-39.73115	2.041345E-006	-0.0155823	7
	21	141	2390.625	4328.858	-3739.907	1	5720.657	-40.82531	2.069386E-006	-0.0157504	7
	22	144	1884.191	4767.088	-4280.89	1	6407.117	-41.92413	-2.633064E-006	-0.001474	7
	23	148	1516.544	5259.576	-4825.86	1	7138.071	-42.53756	5.186614E-007	-0.0121376	7
	24	153	1193.986	5821.273	-5517.152	1	8020.361	-43.46357	5.046926E-006	-0.0167618	7
	25	157	946.5144	6454.476	-6232.617	1	8972.501	-43.99817	-9.616122E-007	0.0146679	7
	26	160	751.7689	7247.507	-7230.241	1	10237.32	-44.93167	-3.41022E-006	0.0178975	7
	27	162	597.4265	8050.921	-8098.018	1	11419.07	-45.1671	-3.922854E-006	0.0046166	7
	28	165	477.4305	8973.733	-9200.512	1	12852.13	-45.7149	-5.245619E-008	0.0006604	7
	29	167	376.6741	10101.37	-10476.35	1	14553.06	-46.04395	-4.964879E-008	0.0006485	7
	30	170	298.2954	11372.35	-11901.43	1	16461.3	-46.30229	-4.752371E-008	0.0005969	7
	31	172	237.7717	12793.72	-13449.71	1	18562.7	-46.43189	-5.214121E-008	0.000663	7
	32	174	189.0121	14428.25	-15207.28	1	20962.72	-46.50579	-4.43923E-008	0.0006114	7
	33	177	150.2404	16303.55	-17173.47	1	23679.82	-46.48853	-5.248569E-008	0.0006607	7
	34	179	119.1737	18463.22	-19388.28	1	26773.05	-46.39999	-4.794274E-008	0.0006025	7
	35	181	95.0169	20913.24	-21800.93	1	30210	-46.19055	-5.042074E-008	0.0006599	7
	36	184	75.60484	23737.99	-24484.03	1	34102.2	-45.88636	-4.455956E-008	0.0006076	7
	37	187	54.50582	28526.93	-28739.36	1	40493.66	-45.21254	-5.114111E-008	0.0006272	7
	38	189	45.95588	31426.85	-31213.51	1	44293.68	-44.80487	-1.20567E-008	0.0006967	6
	39	191	37.20238	35405.79	-34452.56	1	49401.91	-44.21824	-8.905254E-009	0.0006612	6
	40	194	30.04808	39955.02	-37913.39	1	55080.2	-43.49811	-1.024496E-008	0.0006536	6
	41	197	23.91582	45459.55	-41864.72	1	61799.89	-42.64267	-8.716642E-009	0.0006759	6
	42	199	18.60119	52354.43	-46237.29	1	69848.93	-41.44963	-1.37804E-008	0.0006958	6
	43	201	15.02404	58825.51	-50010.66	1	77210.79	-40.36961	-1.290966E-008	0.0006433	6
	44	204	12.01923	66331.35	-54013.15	1	85541.03	-39.15568	-8.792622E-009	0.0006441	6
	45	206	9.450605	75123.23	-58077.59	1	94955.28	-37.70752	-8.666312E-009	0.000667	6
	46	209	7.512019	84268.25	-61835.44	1	104521.6	-36.27095	-1.069917E-008	0.0006647	6
	47	212	5.978954	93825.87	-65178.6	1	114243.4	-34.78679	-1.284277E-008	0.0006461	6
	48	216	4.734848	104153.3	-68593.42	1	124711.6	-33.36814	-1.015042E-008	0.0006968	6
	49	221	3.75601	114920.7	-71521.04	1	135358.9	-31.89611	-1.209553E-008	0.0006505	6
	50	227	3.004808	125419.2	-74186.59	1	145717.7	-30.60469	-1.349655E-008	0.0006773	6
	51	233	2.372217	135834.9	-75872.31	1	155588.3	-29.1861	-1.314836E-008	0.0007055	6
	52	241	1.878005	146745.9	-78107.72	1	166238.3	-28.02481	-1.441939E-008	0.0006425	6
	53	250	1.512097	157692.6	-80763.83	1	177171.6	-27.1197	-1.493217E-008	0.0007635	6
	54	260	1.201923	169843.9	-84203.05	1	189570.8	-26.37071	-1.491235E-008	0.0006452	6
	55	273	0.956633	182318.8	-87883.57	1	202394.9	-25.73557	-1.959448E-008	2.835605E-005	6
