EXPLAIN
TAG	EISPOT
TITLE	LABEL	Potentiostatic EIS	Test Identifier
DATE	LABEL	2/27/2021	Date
TIME	LABEL	11:31:23	Time
NOTES	NOTES	1	Notes...
	
PSTAT	PSTAT	REF3000-16137	Potentiostat
VDC	POTEN	0.00000E+000	T	DC Voltage (V)
FREQINIT	QUANT	3.00000E+005	Initial Freq. (Hz)
FREQFINAL	QUANT	1.00000E+000	Final Freq. (Hz)
PTSPERDEC	QUANT	1.00000E+001	Points/decade
VAC	QUANT	5.00000E+001	AC Voltage (mV rms)
AREA	QUANT	1.00000E+000	Sample Area (cm^2)
SPEED	SELECTOR	2	Optimize for:
ZGUESS	QUANT	1.00000E+003	Estimated Z (ohms)
EOC	QUANT	0	Open Circuit (V)
SEQUENCER	TOGGLE	TRUE	Run as Sequence
PSTATMODEL	IQUANT	5	Pstat Model
PSTATSECTION	LABEL	REF3000-16137	Pstat Section
PSTATSERIALNO	LABEL	16137	Pstat Serial Number
CTRLMODE	IQUANT	1	Control Mode
IESTAB	IQUANT	0	I/E Stability
CASPEED	IQUANT	1	Control Amp Speed
CONVENTION	IQUANT	1	Current Convention
ICHRANGE	IQUANT	2	Ich Range
ICHRANGEMODE	TOGGLE	F	Ich Auto Range
ICHOFFSETENABLE	TOGGLE	T	Ich Offset Enable
ICHOFFSET	QUANT	0	Ich Offset (V)
ICHFILTER	IQUANT	3	Ich Filter
VCHRANGE	IQUANT	2	Vch Range
VCHRANGEMODE	TOGGLE	F	Vch Auto Range
VCHOFFSETENABLE	TOGGLE	T	Vch Offset Enable
VCHOFFSET	QUANT	0	Vch Offset (V)
VCHFILTER	IQUANT	3	Vch Filter
ACHRANGE	IQUANT	2	Ach Range
ACHOFFSETENABLE	TOGGLE	F	Ach Offset Enable
ACHOFFSET	QUANT	0	Ach Offset (V)
ACHFILTER	IQUANT	3	Ach Filter
IERANGELOWERLIMIT	IQUANT	2	I/E Range Lower Limit
IERANGEMODE	TOGGLE	F	I/E AutoRange
IERANGE	IQUANT	11	I/E Range
POSFEEDENABLE	TOGGLE	F	Positive Feedback IR Comp
POSFEEDRESISTANCE	QUANT	0	Positive Feedback Resistance (ohm)
ACHSELECT	IQUANT	0	Ach Select
CABLEID	IQUANT	13	Cable ID
DCCALDATE	LABEL	7/31/2020	DC Calibration Date
ACCALDATE	LABEL	7/31/2020	AC Calibration Date
THERMOSELECT	IQUANT	1	Thermo Select
FRAMEWORKVERSION	QUANT	6.33	Framework Version
INSTRUMENTVERSION	LABEL	3.50	Instrument Version
COMPLIANCEVOLTAGE	IQUANT	0	Compliance Voltage
ZCURVE	TABLE
	Pt	Time	Freq	Zreal	Zimag	Zsig	Zmod	Zphz	Idc	Vdc	IERange
	#	s	Hz	ohm	ohm	V	ohm	°	A	V	#
	0	24	300046.9	1210.3	-4114.208	1	4288.536	-73.60739	-1.928941E-005	0.001751	9
	1	41	238359.4	1752.565	-4875.584	1	5181.004	-70.22865	1.253934E-006	-0.0019488	9
	2	57	189328.1	2749.584	-5710.902	1	6338.345	-64.29094	-5.974049E-005	0.0004285	9
	3	65	150421.9	3344.371	-6796.987	1	7575.212	-63.8011	1.979374E-005	-0.000823	9
	4	72	119484.4	4965.685	-7276.379	1	8809.298	-55.68885	1.866509E-005	-0.0087879	8
	5	80	94921.88	6311.845	-7916.261	1	10124.55	-51.43372	-2.270857E-005	0.0004409	9
	6	88	75421.88	8032.152	-8373.424	1	11603	-46.19171	2.574584E-005	-0.005042	8
	7	97	59859.37	9772.42	-8586.691	1	13008.9	-41.30467	2.685207E-005	-0.00721	8
	8	105	47578.12	11361.24	-8079.928	1	13941.41	-35.41982	-1.129332E-006	-0.0049313	8
	9	114	37828.12	14317.3	-7440.976	1	16135.47	-27.46176	-3.717903E-006	0.0243344	7
	10	120	30046.88	15434.91	-7051.123	1	16969.23	-24.55232	2.245906E-007	0.0160489	7
	11	127	23859.38	16340.02	-6782.272	1	17691.67	-22.54194	6.184366E-006	-0.0088017	7
	12	131	18984.38	17202.79	-6532.521	1	18401.35	-20.79358	-7.73209E-007	-0.0132241	7
	13	135	15046.87	18064.77	-6482.538	1	19192.68	-19.74051	6.136805E-006	-0.008956	7
	14	139	11953.13	18681.81	-6543.716	1	19794.7	-19.30393	6.175456E-006	-0.0089514	7
	15	144	9515.62	19424.02	-6692.645	1	20544.68	-19.01165	-1.940881E-006	0.0214602	7
	16	148	7546.875	20058.64	-7058.959	1	21264.48	-19.38779	4.536486E-006	6.466879E-005	7
	17	152	5928.309	20870.15	-7827.559	1	22289.77	-20.55906	2.478276E-006	0.0087612	7
	18	156	4733.456	21627.66	-8638.418	1	23289.01	-21.77252	6.199298E-006	-0.0089187	7
	19	161	3796.875	22466.68	-9651.01	1	24451.86	-23.2469	2.437657E-006	0.0087464	7
	20	165	2987.132	22684.76	-11102.53	1	25255.98	-26.07837	7.741558E-006	-0.0074221	8
	21	171	2390.625	24722.87	-12422.35	1	27668.31	-26.67788	-7.038766E-006	0.0177533	7
	22	177	1884.191	27529.57	-13348.15	1	30594.94	-25.86717	8.473167E-006	0.0040248	8
	23	183	1516.544	27258	-16214.82	1	31716.22	-30.74691	2.568703E-005	-0.0087457	8
	24	190	1193.986	27929.77	-19769.08	1	34218.25	-35.29139	-1.635983E-006	0.0075099	8
	25	198	946.5144	30262.78	-23193.64	1	38128.47	-37.46685	4.527996E-006	0.0004675	7
	26	201	751.7689	30141.59	-32030.24	1	43982.4	-46.73999	2.230261E-005	-0.0095527	8
	27	206	597.4265	34388.1	-25556.84	1	42845	-36.61931	2.136852E-005	-0.009233	8
	28	212	477.4305	40032.98	-36543.25	1	54203.77	-42.39072	-2.388207E-007	0.0006292	8
	29	215	376.6741	44721.2	-42395.57	1	61622.8	-43.47082	-1.151259E-008	0.0006585	6
	30	218	298.2954	49271.14	-49513.59	1	69851.56	-45.14062	-1.156977E-008	0.0006666	6
	31	220	237.7717	54406.08	-57716.58	1	79317.24	-46.6912	-1.140523E-008	0.0006681	6
	32	222	189.0121	60651.42	-67239.21	1	90552.23	-47.94876	-1.10624E-008	0.0006429	6
	33	225	150.2404	67928.65	-78138.41	1	103537	-48.99834	-1.064519E-008	0.0006606	6
	34	228	119.1737	77012.28	-90939.27	1	119167.3	-49.74027	-1.166269E-008	0.0007135	6
	35	230	95.0169	86882.15	-104784.7	1	136118.8	-50.3362	-1.119312E-008	0.0006945	6
	36	233	75.60484	98907.2	-120996.9	1	156278.2	-50.73621	-1.120878E-008	0.0007099	6
	37	235	54.50582	120249.2	-146832.6	1	189788.5	-50.68409	-1.067032E-008	0.000611	6
	38	238	45.95588	132741.9	-164255.7	1	211187.9	-51.05688	-1.131482E-008	0.0007068	6
	39	240	37.20238	151100.3	-186300.5	1	239873.3	-50.95599	-1.101898E-008	0.000698	6
	40	242	30.04808	172503.2	-210800.8	1	272386.4	-50.70574	-1.073467E-008	0.0006294	6
	41	245	23.91582	198579.2	-240022.5	1	311519.6	-50.39783	-1.107472E-008	0.0006249	6
	42	248	18.60119	230766.6	-277045.3	1	360565.3	-50.20718	-1.08507E-008	0.0006352	6
	43	250	15.02404	265140.2	-309543.7	1	407574.1	-49.41824	-1.040974E-008	0.0006875	6
	44	253	12.01923	305959.9	-347880.4	1	463284.2	-48.66846	-4.32417E-009	0.0007051	5
	45	255	9.450605	353287.4	-394397.1	1	529491.3	-48.14711	-4.544785E-009	0.0006927	5
	46	258	7.512019	405916.2	-443179.9	1	600979.5	-47.51289	-4.700338E-009	0.0005965	5
	47	261	5.978954	465148.1	-497995.4	1	681441.3	-46.95328	-4.634096E-009	0.0006079	5
	48	265	4.734848	534942.2	-559481.1	1	774068.6	-46.28445	-4.413846E-009	0.0006182	5
	49	268	3.75601	613428.2	-626575.9	1	876864.6	-45.60748	-4.575476E-009	0.0006449	5
	50	274	3.004808	701778.1	-698641.3	1	990249	-44.87166	-4.591898E-009	0.0007011	5
	51	280	2.372217	807947.1	-778657.3	1	1122090	-43.9424	-4.490776E-009	0.0007319	5
	52	285	1.878005	925261	-865542	1	1266993	-43.09003	-4.660833E-009	0.0006282	5
	53	289	1.512097	1048663	-950815	1	1415536	-42.19835	-4.606868E-009	0.0006503	5
	54	295	1.201923	1200052	-1045613	1	1591676	-41.06583	-4.540567E-009	0.000628	5
	55	301	0.956633	1369188	-1144620	1	1784609	-39.8951	-4.710788E-009	1.215206E-005	5
