EXPLAIN
TAG	EISPOT
TITLE	LABEL	Potentiostatic EIS	Test Identifier
DATE	LABEL	2/27/2021	Date
TIME	LABEL	11:41:38	Time
NOTES	NOTES	1	Notes...
	
PSTAT	PSTAT	REF3000-16137	Potentiostat
VDC	POTEN	0.00000E+000	T	DC Voltage (V)
FREQINIT	QUANT	3.00000E+005	Initial Freq. (Hz)
FREQFINAL	QUANT	1.00000E+000	Final Freq. (Hz)
PTSPERDEC	QUANT	1.00000E+001	Points/decade
VAC	QUANT	5.00000E+001	AC Voltage (mV rms)
AREA	QUANT	1.00000E+000	Sample Area (cm^2)
SPEED	SELECTOR	2	Optimize for:
ZGUESS	QUANT	1.00000E+003	Estimated Z (ohms)
EOC	QUANT	0	Open Circuit (V)
SEQUENCER	TOGGLE	TRUE	Run as Sequence
PSTATMODEL	IQUANT	5	Pstat Model
PSTATSECTION	LABEL	REF3000-16137	Pstat Section
PSTATSERIALNO	LABEL	16137	Pstat Serial Number
CTRLMODE	IQUANT	1	Control Mode
IESTAB	IQUANT	0	I/E Stability
CASPEED	IQUANT	1	Control Amp Speed
CONVENTION	IQUANT	1	Current Convention
ICHRANGE	IQUANT	2	Ich Range
ICHRANGEMODE	TOGGLE	F	Ich Auto Range
ICHOFFSETENABLE	TOGGLE	T	Ich Offset Enable
ICHOFFSET	QUANT	0	Ich Offset (V)
ICHFILTER	IQUANT	3	Ich Filter
VCHRANGE	IQUANT	2	Vch Range
VCHRANGEMODE	TOGGLE	F	Vch Auto Range
VCHOFFSETENABLE	TOGGLE	T	Vch Offset Enable
VCHOFFSET	QUANT	0	Vch Offset (V)
VCHFILTER	IQUANT	3	Vch Filter
ACHRANGE	IQUANT	2	Ach Range
ACHOFFSETENABLE	TOGGLE	F	Ach Offset Enable
ACHOFFSET	QUANT	0	Ach Offset (V)
ACHFILTER	IQUANT	3	Ach Filter
IERANGELOWERLIMIT	IQUANT	2	I/E Range Lower Limit
IERANGEMODE	TOGGLE	F	I/E AutoRange
IERANGE	IQUANT	11	I/E Range
POSFEEDENABLE	TOGGLE	F	Positive Feedback IR Comp
POSFEEDRESISTANCE	QUANT	0	Positive Feedback Resistance (ohm)
ACHSELECT	IQUANT	0	Ach Select
CABLEID	IQUANT	13	Cable ID
DCCALDATE	LABEL	7/31/2020	DC Calibration Date
ACCALDATE	LABEL	7/31/2020	AC Calibration Date
THERMOSELECT	IQUANT	1	Thermo Select
FRAMEWORKVERSION	QUANT	6.33	Framework Version
INSTRUMENTVERSION	LABEL	3.50	Instrument Version
COMPLIANCEVOLTAGE	IQUANT	0	Compliance Voltage
ZCURVE	TABLE
	Pt	Time	Freq	Zreal	Zimag	Zsig	Zmod	Zphz	Idc	Vdc	IERange
	#	s	Hz	ohm	ohm	V	ohm	°	A	V	#
	0	15	300046.9	346.714	-4480.112	1	4493.508	-85.57472	1.983124E-005	-0.0022608	9
	1	30	238359.4	684.8688	-5518.137	1	5560.475	-82.92506	2.111812E-005	-0.0004669	9
	2	44	189328.1	1289.265	-6455.237	1	6582.727	-78.70528	-1.735891E-005	0.001769	9
	3	56	150421.9	-169.7341	-8534.01	1	8535.697	-91.13941	2.14695E-005	-0.0003232	9
	4	64	119484.4	2405.885	-10410.04	1	10684.44	-76.98675	4.894682E-005	-0.0020093	8
	5	71	94921.88	3414.15	-12617.91	1	13071.65	-74.85947	-2.419611E-005	0.0108663	8
	6	80	75421.88	5247.32	-15208.84	1	16088.6	-70.96465	-1.589232E-005	0.0007008	8
	7	88	59859.37	7374.192	-18247.01	1	19680.75	-67.99481	-1.92203E-006	0.0077251	8
	8	97	47578.12	13112.02	-21576.15	1	25247.87	-58.71257	-3.594445E-006	0.0248837	7
	9	103	37828.12	16984.08	-24410.49	1	29737.71	-55.17097	1.358243E-006	-0.0196283	7
	10	111	30046.88	21615.94	-27042.35	1	34619.9	-51.36337	6.49766E-006	-0.0097853	7
	11	118	23859.38	26749.8	-29229.51	1	39622.17	-47.53637	-5.17084E-006	0.0034678	7
	12	123	18984.38	32609.85	-30439.23	1	44608.84	-43.02824	5.447034E-006	-0.0265909	7
	13	129	15046.87	39268.23	-31504.79	1	50344.27	-38.73997	7.462052E-006	-0.0181812	7
	14	134	11953.13	42513.69	-32153.56	1	53303.52	-37.10061	8.471508E-006	0.0040645	8
	15	141	9515.62	50057.69	-30352.82	1	58541.15	-31.23081	7.541325E-006	-0.0239199	7
	16	146	7546.875	54662.96	-29045.16	1	61900.41	-27.98394	4.25253E-007	0.0159444	7
	17	151	5928.309	60039.53	-27885.34	1	66199.23	-24.9125	3.471916E-006	-0.0240605	7
	18	157	4733.456	65668.85	-28086.52	1	71423.04	-23.15636	-6.591582E-006	0.0118558	7
	19	162	3796.875	64904.13	-27721.68	1	70576.47	-23.12817	-2.598869E-005	0.0075617	8
	20	170	2987.132	69063	-33935.3	1	76950	-26.16799	-9.523961E-006	-0.0019947	8
	21	178	2390.625	71875.59	-30242.21	1	77978.79	-22.8193	4.74492E-006	-0.0005054	7
	22	184	1884.191	79181.16	-29484.27	1	84492.48	-20.42355	7.446883E-006	-0.0180926	7
	23	189	1516.544	81594.66	-33954.55	1	88377.59	-22.594	5.290532E-006	-0.0262216	7
	24	195	1193.986	87427.45	-39508.29	1	95939.9	-24.31811	-3.651217E-006	0.0248109	7
	25	201	946.5144	82973.66	-52848.51	1	98374.8	-32.49433	-5.334663E-006	0.003669	7
	26	205	751.7689	94949.43	-57060.58	1	110775.9	-31.00408	6.711382E-006	-0.0263801	7
	27	208	597.4265	101879.3	-61506.19	1	119005.9	-31.12006	-5.218348E-006	0.0032737	7
	28	212	477.4305	104980.3	-65401.05	1	123685.7	-31.92225	-6.259879E-008	0.0005891	7
	29	215	376.6741	112701.7	-74826.82	1	135280.1	-33.58166	-8.198603E-009	0.0006317	6
	30	218	298.2954	119970.1	-87358.67	1	148406	-36.06101	-9.529196E-009	0.0006823	6
	31	220	237.7717	129164.5	-101901.3	1	164521.6	-38.27082	-8.833622E-009	0.0007042	6
	32	223	189.0121	139444	-118972.9	1	183300.8	-40.47062	-8.915222E-009	0.0007153	6
	33	225	150.2404	151954.7	-138827.2	1	205823.2	-42.41511	-8.309665E-009	0.0006151	6
	34	228	119.1737	166905.5	-161587.9	1	232310.3	-44.07259	-8.849735E-009	0.0007162	6
	35	230	95.0169	182954.9	-188887.3	1	262965.6	-45.91402	-8.565831E-009	0.0006769	6
	36	233	75.60484	202511.4	-219598.1	1	298720.9	-47.31802	-7.944478E-009	0.0006233	6
	37	235	54.50582	233134.9	-273176.5	1	359134	-49.52182	-8.88847E-009	0.0006604	6
	38	238	45.95588	259755.7	-306529.8	1	401787.9	-49.7218	-8.840513E-009	0.0007065	6
	39	240	37.20238	294967.6	-349556.4	1	457379	-49.84119	-2.118457E-009	0.0006064	5
	40	243	30.04808	331038.3	-401652.7	1	520491.3	-50.50498	-2.069328E-009	0.000609	5
	41	246	23.91582	377407.5	-465354.5	1	599158.8	-50.95758	-2.171017E-009	0.0006895	5
	42	248	18.60119	431088.2	-543456.4	1	693672.8	-51.57735	-2.335563E-009	0.0006559	5
	43	250	15.02404	496418.4	-623310.3	1	796835.6	-51.46539	-2.176175E-009	0.0006965	5
	44	253	12.01923	571590.1	-714698	1	915154.9	-51.34842	-2.084249E-009	0.0006637	5
	45	255	9.450605	663802.1	-825470.8	1	1059262	-51.19551	-2.047025E-009	0.0006809	5
	46	258	7.512019	770300.9	-942250.8	1	1217046	-50.7336	-2.147958E-009	0.000671	5
	47	261	5.978954	891621.3	-1075034	1	1396670	-50.32807	-2.193341E-009	0.0007053	5
	48	266	4.734848	1036937	-1222093	1	1602732	-49.68564	-1.913339E-009	0.0006316	5
	49	269	3.75601	1203671	-1383782	1	1834032	-48.9819	-2.014007E-009	0.0007172	5
	50	275	3.004808	1390220	-1560828	1	2090190	-48.30874	-1.990735E-009	0.0006217	5
	51	281	2.372217	1614780	-1764278	1	2391692	-47.53327	-1.981349E-009	0.0006527	5
	52	285	1.878005	1871150	-1981867	1	2725619	-46.64595	-1.954082E-009	0.0006379	5
	53	290	1.512097	2138822	-2206239	1	3072792	-45.88891	-1.99497E-009	0.0007443	5
	54	295	1.201923	2461764	-2467831	1	3485753	-45.07051	-1.959401E-009	0.0006564	5
	55	302	0.956633	2832211	-2755149	1	3951236	-44.20982	-2.149648E-009	1.330927E-005	5
