EXPLAIN
TAG	EISPOT
TITLE	LABEL	Potentiostatic EIS	Test Identifier
DATE	LABEL	2/27/2021	Date
TIME	LABEL	10:51:51	Time
NOTES	NOTES	1	Notes...
	
PSTAT	PSTAT	REF3000-16137	Potentiostat
VDC	POTEN	0.00000E+000	T	DC Voltage (V)
FREQINIT	QUANT	3.00000E+005	Initial Freq. (Hz)
FREQFINAL	QUANT	1.00000E+000	Final Freq. (Hz)
PTSPERDEC	QUANT	1.00000E+001	Points/decade
VAC	QUANT	5.00000E+001	AC Voltage (mV rms)
AREA	QUANT	1.00000E+000	Sample Area (cm^2)
SPEED	SELECTOR	2	Optimize for:
ZGUESS	QUANT	1.00000E+003	Estimated Z (ohms)
EOC	QUANT	0	Open Circuit (V)
SEQUENCER	TOGGLE	TRUE	Run as Sequence
PSTATMODEL	IQUANT	5	Pstat Model
PSTATSECTION	LABEL	REF3000-16137	Pstat Section
PSTATSERIALNO	LABEL	16137	Pstat Serial Number
CTRLMODE	IQUANT	1	Control Mode
IESTAB	IQUANT	0	I/E Stability
CASPEED	IQUANT	1	Control Amp Speed
CONVENTION	IQUANT	1	Current Convention
ICHRANGE	IQUANT	2	Ich Range
ICHRANGEMODE	TOGGLE	F	Ich Auto Range
ICHOFFSETENABLE	TOGGLE	T	Ich Offset Enable
ICHOFFSET	QUANT	0	Ich Offset (V)
ICHFILTER	IQUANT	3	Ich Filter
VCHRANGE	IQUANT	2	Vch Range
VCHRANGEMODE	TOGGLE	F	Vch Auto Range
VCHOFFSETENABLE	TOGGLE	T	Vch Offset Enable
VCHOFFSET	QUANT	0	Vch Offset (V)
VCHFILTER	IQUANT	3	Vch Filter
ACHRANGE	IQUANT	2	Ach Range
ACHOFFSETENABLE	TOGGLE	F	Ach Offset Enable
ACHOFFSET	QUANT	0	Ach Offset (V)
ACHFILTER	IQUANT	3	Ach Filter
IERANGELOWERLIMIT	IQUANT	2	I/E Range Lower Limit
IERANGEMODE	TOGGLE	F	I/E AutoRange
IERANGE	IQUANT	11	I/E Range
POSFEEDENABLE	TOGGLE	F	Positive Feedback IR Comp
POSFEEDRESISTANCE	QUANT	0	Positive Feedback Resistance (ohm)
ACHSELECT	IQUANT	0	Ach Select
CABLEID	IQUANT	13	Cable ID
DCCALDATE	LABEL	7/31/2020	DC Calibration Date
ACCALDATE	LABEL	7/31/2020	AC Calibration Date
THERMOSELECT	IQUANT	1	Thermo Select
FRAMEWORKVERSION	QUANT	6.33	Framework Version
INSTRUMENTVERSION	LABEL	3.50	Instrument Version
COMPLIANCEVOLTAGE	IQUANT	0	Compliance Voltage
ZCURVE	TABLE
	Pt	Time	Freq	Zreal	Zimag	Zsig	Zmod	Zphz	Idc	Vdc	IERange
	#	s	Hz	ohm	ohm	V	ohm	°	A	V	#
	0	20	300046.9	1406.537	-682.7899	1	1563.505	-25.8938	2.610788E-005	0.0009177	9
	1	33	238359.4	1486.301	-638.5635	1	1617.669	-23.24994	2.535811E-005	-0.0019605	9
	2	46	189328.1	1585.82	-595.7161	1	1694.02	-20.58878	4.998267E-005	3.838235E-005	9
	3	52	150421.9	1622.12	-577.5122	1	1721.858	-19.5969	2.539452E-005	0.00106	9
	4	60	119484.4	1695.47	-518.184	1	1772.888	-16.99465	7.293976E-006	0.0114102	8
	5	67	94921.88	1740.13	-520.5145	1	1816.311	-16.65318	-2.206249E-005	0.0068943	8
	6	70	75421.88	1780.243	-562.925	1	1867.123	-17.54731	-1.820222E-005	0.0030966	8
	7	73	59859.37	1830.286	-601.6302	1	1926.631	-18.19612	-2.444373E-007	0.0060613	8
	8	80	47578.12	1881.837	-661.5799	1	1994.742	-19.36967	2.306504E-005	-0.0064653	8
	9	85	37828.12	1948.467	-745.2719	1	2086.133	-20.93143	1.806782E-005	-0.007941	8
	10	91	30046.88	2017.797	-835.1956	1	2183.817	-22.48537	-1.475363E-005	0.0013068	8
	11	97	23859.38	2097.701	-955.725	1	2305.16	-24.49429	2.151699E-005	-0.0075196	8
	12	101	18984.38	2194.981	-1094.17	1	2452.581	-26.49567	2.087005E-005	-0.0029143	8
	13	105	15046.87	2311.747	-1270.89	1	2638.055	-28.79993	4.165137E-008	-0.0004835	9
	14	110	11953.13	2444.384	-1445.379	1	2839.741	-30.59608	1.823413E-005	-0.0080182	8
	15	116	9515.62	2599.104	-1668.658	1	3088.65	-32.70099	1.812637E-005	-0.0079562	8
	16	121	7546.875	2780.638	-1915.358	1	3376.469	-34.55983	-1.827498E-005	0.0031481	8
	17	126	5928.309	3004.321	-2229.712	1	3741.331	-36.58163	-9.44677E-006	-0.0010875	8
	18	132	4733.456	3237.882	-2538.316	1	4114.235	-38.09443	2.0773E-005	-0.0028787	8
	19	137	3796.875	3517.077	-2916.652	1	4569.101	-39.66833	-2.061774E-005	0.0050028	8
	20	142	2987.132	3843.353	-3358.872	1	5104.251	-41.15162	2.163735E-005	-0.007575	8
	21	148	2390.625	4246.965	-3825.648	1	5715.969	-42.0124	-8.472258E-006	0.0083767	8
	22	153	1884.191	4665.722	-4498.319	1	6481.037	-43.95348	-2.203748E-005	0.0068523	8
	23	158	1516.544	5112.059	-5021.419	1	7165.738	-44.48753	-1.824475E-005	0.0031339	8
	24	164	1193.986	5852.092	-5680.098	1	8155.396	-44.14554	-2.173506E-005	0.0083449	8
	25	171	946.5144	6565.588	-6645.796	1	9342.031	-45.34784	2.36192E-005	-0.0065282	8
	26	175	751.7689	7307.535	-7263.341	1	10303.21	-44.82622	8.877871E-008	0.0060986	8
	27	180	597.4265	8101.813	-8614.351	1	11825.67	-46.75621	2.171129E-006	0.0046083	7
	28	183	477.4305	8976.521	-9760.77	1	13260.87	-47.39671	-5.847117E-008	0.0005917	7
	29	185	376.6741	10149.03	-11180.13	1	15099.61	-47.76766	-5.807272E-008	0.0005835	7
	30	187	298.2954	11487.22	-12762.34	1	17170.71	-48.01001	-5.616986E-008	0.000601	7
	31	190	237.7717	12990.06	-14513.95	1	19478.1	-48.17128	-5.547559E-008	0.0006109	7
	32	192	189.0121	14743.21	-16494.14	1	22122.81	-48.20823	-6.125524E-008	0.0006605	7
	33	195	150.2404	16766.63	-18718.74	1	25129.88	-48.14876	-6.322699E-008	0.0006276	7
	34	197	119.1737	19125.31	-21242.26	1	28583.4	-48.00195	-5.591532E-008	0.0005951	7
	35	199	95.0169	21783.45	-23962.49	1	32383.94	-47.72714	-5.687282E-008	0.0006173	7
	36	202	75.60484	24808.05	-26865.11	1	36567.38	-47.27969	-5.735722E-008	0.0005981	7
	37	204	54.50582	29998.96	-31664.65	1	43618.66	-46.54733	-2.257323E-008	0.0006728	6
	38	207	45.95588	33207.98	-34419.28	1	47827.36	-46.02614	-2.346241E-008	0.0007195	6
	39	209	37.20238	37491.94	-38117.4	1	53465.71	-45.47396	-2.086469E-008	0.0006855	6
	40	212	30.04808	42440.92	-42077.74	1	59764.27	-44.7538	-2.11755E-008	0.0007114	6
	41	214	23.91582	48459.24	-46606.72	1	67234.55	-43.88364	-2.031608E-008	0.00063	6
	42	217	18.60119	55889.75	-51772.81	1	76184.56	-42.81012	-2.052472E-008	0.0006994	6
	43	219	15.02404	63128.23	-56403.96	1	84655.66	-41.78023	-2.050715E-008	0.0006637	6
	44	221	12.01923	71520.3	-61207.21	1	94135.41	-40.55697	-2.232598E-008	0.0007034	6
	45	224	9.450605	81536.75	-66372.43	1	105135.8	-39.14623	-2.210161E-008	0.0006781	6
	46	226	7.512019	92096.01	-71076.84	1	116334	-37.65984	-2.312487E-008	0.0007176	6
	47	229	5.978954	103391.5	-75475.19	1	128009	-36.12923	-2.32744E-008	0.0006878	6
	48	234	4.734848	115776.7	-79711.83	1	140563.9	-34.54726	-2.21774E-008	0.0007226	6
	49	238	3.75601	128552.6	-83272.77	1	153167	-32.93404	-2.377701E-008	0.0006357	6
	50	244	3.004808	141423.5	-86468.98	1	165763.3	-31.4424	-2.389688E-008	0.0006981	6
	51	250	2.372217	155640.7	-89462.43	1	179520.4	-29.89033	-2.309262E-008	0.000746	6
	52	258	1.878005	169538.1	-92282.76	1	193026.6	-28.56028	-2.481729E-008	0.0006498	6
	53	267	1.512097	182950.2	-95086.4	1	206184.9	-27.46266	-2.467793E-008	0.0006872	6
	54	278	1.201923	197515.1	-98193.5	1	220576.9	-26.43399	-2.46382E-008	0.0006385	6
	55	291	0.956633	212565.2	-101706.7	1	235644.2	-25.56986	-2.730403E-008	3.360087E-005	6
