EXPLAIN
TAG	EISPOT
TITLE	LABEL	Potentiostatic EIS	Test Identifier
DATE	LABEL	2/27/2021	Date
TIME	LABEL	12:03:50	Time
NOTES	NOTES	1	Notes...
	
PSTAT	PSTAT	REF3000-16137	Potentiostat
VDC	POTEN	0.00000E+000	T	DC Voltage (V)
FREQINIT	QUANT	3.00000E+005	Initial Freq. (Hz)
FREQFINAL	QUANT	1.00000E+000	Final Freq. (Hz)
PTSPERDEC	QUANT	1.00000E+001	Points/decade
VAC	QUANT	5.00000E+001	AC Voltage (mV rms)
AREA	QUANT	1.00000E+000	Sample Area (cm^2)
SPEED	SELECTOR	2	Optimize for:
ZGUESS	QUANT	1.00000E+003	Estimated Z (ohms)
EOC	QUANT	0	Open Circuit (V)
SEQUENCER	TOGGLE	TRUE	Run as Sequence
PSTATMODEL	IQUANT	5	Pstat Model
PSTATSECTION	LABEL	REF3000-16137	Pstat Section
PSTATSERIALNO	LABEL	16137	Pstat Serial Number
CTRLMODE	IQUANT	1	Control Mode
IESTAB	IQUANT	0	I/E Stability
CASPEED	IQUANT	1	Control Amp Speed
CONVENTION	IQUANT	1	Current Convention
ICHRANGE	IQUANT	2	Ich Range
ICHRANGEMODE	TOGGLE	F	Ich Auto Range
ICHOFFSETENABLE	TOGGLE	T	Ich Offset Enable
ICHOFFSET	QUANT	0	Ich Offset (V)
ICHFILTER	IQUANT	3	Ich Filter
VCHRANGE	IQUANT	2	Vch Range
VCHRANGEMODE	TOGGLE	F	Vch Auto Range
VCHOFFSETENABLE	TOGGLE	T	Vch Offset Enable
VCHOFFSET	QUANT	0	Vch Offset (V)
VCHFILTER	IQUANT	3	Vch Filter
ACHRANGE	IQUANT	2	Ach Range
ACHOFFSETENABLE	TOGGLE	F	Ach Offset Enable
ACHOFFSET	QUANT	0	Ach Offset (V)
ACHFILTER	IQUANT	3	Ach Filter
IERANGELOWERLIMIT	IQUANT	2	I/E Range Lower Limit
IERANGEMODE	TOGGLE	F	I/E AutoRange
IERANGE	IQUANT	11	I/E Range
POSFEEDENABLE	TOGGLE	F	Positive Feedback IR Comp
POSFEEDRESISTANCE	QUANT	0	Positive Feedback Resistance (ohm)
ACHSELECT	IQUANT	0	Ach Select
CABLEID	IQUANT	13	Cable ID
DCCALDATE	LABEL	7/31/2020	DC Calibration Date
ACCALDATE	LABEL	7/31/2020	AC Calibration Date
THERMOSELECT	IQUANT	1	Thermo Select
FRAMEWORKVERSION	QUANT	6.33	Framework Version
INSTRUMENTVERSION	LABEL	3.50	Instrument Version
COMPLIANCEVOLTAGE	IQUANT	0	Compliance Voltage
ZCURVE	TABLE
	Pt	Time	Freq	Zreal	Zimag	Zsig	Zmod	Zphz	Idc	Vdc	IERange
	#	s	Hz	ohm	ohm	V	ohm	°	A	V	#
	0	14	300046.9	-49.62276	-4634.958	1	4635.224	-90.6134	2.358792E-005	-0.0004642	9
	1	28	238359.4	51.66888	-5683.333	1	5683.568	-89.47912	1.875898E-005	-0.002169	9
	2	42	189328.1	-24.04363	-7123.316	1	7123.357	-90.19339	5.015662E-005	9.343439E-005	9
	3	50	150421.9	327.3298	-8425.511	1	8431.867	-87.77518	-2.026592E-005	0.0016394	9
	4	62	119484.4	495.4421	-10916.89	1	10928.12	-87.40152	-1.062944E-005	0.0178232	8
	5	69	94921.88	557.3329	-13596.12	1	13607.54	-87.65264	-2.614043E-005	0.0075679	8
	6	77	75421.88	613.5322	-17715.49	1	17726.11	-88.01649	-2.659633E-005	0.009614	8
	7	86	59859.37	719.6385	-21753.27	1	21765.17	-88.10524	2.62176E-005	-0.0089334	8
	8	94	47578.12	3924.722	-28438.37	1	28707.91	-82.14236	-1.743175E-006	0.021658	7
	9	102	37828.12	4216.945	-35363.33	1	35613.87	-83.19981	-3.706699E-006	0.0251224	7
	10	109	30046.88	1374.761	-42514.42	1	42536.64	-88.14791	8.187405E-006	0.0041341	8
	11	118	23859.38	4725.741	-54642.62	1	54846.6	-85.0571	-3.549789E-006	0.0250096	7
	12	123	18984.38	5451.111	-68396.04	1	68612.92	-85.44321	6.824185E-006	-0.026873	7
	13	128	15046.87	5346.308	-86273.02	1	86438.52	-86.45393	-6.406325E-006	0.0255539	7
	14	134	11953.13	6140.571	-108905.6	1	109078.6	-86.77283	7.457234E-006	-0.0184054	7
	15	139	9515.62	9548.97	-134586.4	1	134924.8	-85.94164	-3.359549E-006	-0.0049891	7
	16	145	7546.875	14461.23	-166383.9	1	167011.1	-85.03263	-6.720225E-006	0.0122634	7
	17	151	5928.309	10789.91	-224280.1	1	224539.5	-87.24567	-5.221407E-006	0.0263309	7
	18	157	4733.456	7697.581	-252614.5	1	252731.8	-88.25465	2.823865E-006	0.0081927	7
	19	163	3796.875	30702	-336828.7	1	338225.1	-84.79187	-7.230432E-006	0.02363	7
	20	169	2987.132	228278.2	-531848.8	1	578769.4	-66.7702	8.404358E-006	0.0041491	8
	21	177	2390.625	62867.02	-508391	1	512263.3	-82.95066	6.867318E-006	-0.0268788	7
	22	183	1884.191	198775.4	-680951.6	1	709370.7	-73.72704	3.452308E-006	-0.0242691	7
	23	190	1516.544	-137993.8	-711187.8	1	724451.8	-100.9808	-1.057134E-006	-0.0130942	7
	24	197	1193.986	244489.3	-1012163	1	1041272	-76.42025	5.843373E-007	-0.0273054	6
	25	204	946.5144	335620.8	-1165181	1	1212554	-73.93139	6.181884E-007	-0.0073228	6
	26	207	751.7689	-1254879	1089243	1	1661678	139.0418	-7.191658E-006	0.0238151	7
	27	213	597.4265	-1824226	-44516.18	1	1824769	-178.6021	1.217255E-006	-0.0190593	7
	28	219	477.4305	951899	-2217369	1	2413056	-66.76653	-6.888996E-009	0.0006639	6
	29	224	376.6741	1345446	-2593503	1	2921726	-62.58082	-7.810831E-009	0.0006816	6
	30	228	298.2954	1837185	-2957182	1	3481404	-58.14888	-7.141295E-009	0.000698	6
	31	232	237.7717	2685728	-3125843	1	4121168	-49.33078	-7.289606E-010	0.0006063	5
	32	236	189.0121	3274712	-3353700	1	4687328	-45.68274	-8.222344E-010	0.0006924	5
	33	240	150.2404	3905129	-3454787	1	5213980	-41.49853	-7.90004E-010	0.000677	5
	34	244	119.1737	4242356	-3637102	1	5588031	-40.60749	-8.476552E-010	0.0006479	5
	35	247	95.0169	5171826	-3505761	1	6248051	-34.13168	-7.616218E-010	0.0006997	5
	36	251	75.60484	5648543	-3365274	1	6575036	-30.78553	-6.545918E-010	0.0006074	5
	37	255	54.50582	6679301	-3633352	1	7603572	-28.54494	-7.716995E-010	0.0006078	5
	38	260	45.95588	7610285	-2688684	1	8071273	-19.45812	-1.789751E-010	0.0007184	4
	39	263	37.20238	8045873	-2788731	1	8515462	-19.11652	-1.681871E-011	0.0006747	4
	40	265	30.04808	8342284	-3383916	1	9002477	-22.07916	-1.183147E-010	0.0006075	4
	41	268	23.91582	8640098	-3867971	1	9466388	-24.11695	-1.775705E-010	0.000616	4
	42	271	18.60119	8031935	-4063313	1	9001250	-26.8346	2.330349E-010	0.0006367	4
	43	273	15.02404	9490384	-4578256	1	1.053697E+007	-25.75312	-1.258025E-010	0.0006902	4
	44	276	12.01923	1.004806E+007	-5188732	1	1.130869E+007	-27.31145	-1.065938E-010	0.0006153	4
	45	278	9.450605	1.049868E+007	-5936247	1	1.206073E+007	-29.48504	-6.382284E-011	0.000609	4
	46	281	7.512019	1.123958E+007	-6871109	1	1.317347E+007	-31.43876	-1.010184E-010	0.0006347	4
	47	284	5.978954	1.191724E+007	-8155946	1	1.444091E+007	-34.38705	-1.543804E-010	0.0006972	4
	48	288	4.734848	1.301448E+007	-9394057	1	1.60507E+007	-35.82234	-8.134245E-011	0.0006384	4
	49	293	3.75601	1.407786E+007	-1.080109E+007	1	1.774401E+007	-37.49683	-1.096923E-010	0.0006868	4
	50	299	3.004808	1.537866E+007	-1.277159E+007	1	1.999042E+007	-39.70878	-1.157603E-010	0.0006556	4
	51	305	2.372217	1.707564E+007	-1.490397E+007	1	2.266507E+007	-41.11512	-9.651889E-011	0.0006376	4
	52	309	1.878005	1.899471E+007	-1.753078E+007	1	2.584816E+007	-42.70484	-9.943989E-011	0.0006444	4
	53	318	1.512097	2.111882E+007	-2.043517E+007	1	2.938708E+007	-44.05746	-9.802503E-011	0.0007522	4
	54	324	1.201923	2.382856E+007	-2.409464E+007	1	3.388735E+007	-45.31811	-9.795136E-011	0.0006625	4
	55	337	0.956633	2.69711E+007	-2.838617E+007	1	3.915629E+007	-46.46431	-1.104691E-010	2.327038E-005	4
