EXPLAIN
TAG	EISPOT
TITLE	LABEL	Potentiostatic EIS	Test Identifier
DATE	LABEL	2/27/2021	Date
TIME	LABEL	11:11:40	Time
NOTES	NOTES	1	Notes...
	
PSTAT	PSTAT	REF3000-16137	Potentiostat
VDC	POTEN	0.00000E+000	T	DC Voltage (V)
FREQINIT	QUANT	3.00000E+005	Initial Freq. (Hz)
FREQFINAL	QUANT	1.00000E+000	Final Freq. (Hz)
PTSPERDEC	QUANT	1.00000E+001	Points/decade
VAC	QUANT	5.00000E+001	AC Voltage (mV rms)
AREA	QUANT	1.00000E+000	Sample Area (cm^2)
SPEED	SELECTOR	2	Optimize for:
ZGUESS	QUANT	1.00000E+003	Estimated Z (ohms)
EOC	QUANT	0	Open Circuit (V)
SEQUENCER	TOGGLE	TRUE	Run as Sequence
PSTATMODEL	IQUANT	5	Pstat Model
PSTATSECTION	LABEL	REF3000-16137	Pstat Section
PSTATSERIALNO	LABEL	16137	Pstat Serial Number
CTRLMODE	IQUANT	1	Control Mode
IESTAB	IQUANT	0	I/E Stability
CASPEED	IQUANT	1	Control Amp Speed
CONVENTION	IQUANT	1	Current Convention
ICHRANGE	IQUANT	2	Ich Range
ICHRANGEMODE	TOGGLE	F	Ich Auto Range
ICHOFFSETENABLE	TOGGLE	T	Ich Offset Enable
ICHOFFSET	QUANT	0	Ich Offset (V)
ICHFILTER	IQUANT	3	Ich Filter
VCHRANGE	IQUANT	2	Vch Range
VCHRANGEMODE	TOGGLE	F	Vch Auto Range
VCHOFFSETENABLE	TOGGLE	T	Vch Offset Enable
VCHOFFSET	QUANT	0	Vch Offset (V)
VCHFILTER	IQUANT	3	Vch Filter
ACHRANGE	IQUANT	2	Ach Range
ACHOFFSETENABLE	TOGGLE	F	Ach Offset Enable
ACHOFFSET	QUANT	0	Ach Offset (V)
ACHFILTER	IQUANT	3	Ach Filter
IERANGELOWERLIMIT	IQUANT	2	I/E Range Lower Limit
IERANGEMODE	TOGGLE	F	I/E AutoRange
IERANGE	IQUANT	11	I/E Range
POSFEEDENABLE	TOGGLE	F	Positive Feedback IR Comp
POSFEEDRESISTANCE	QUANT	0	Positive Feedback Resistance (ohm)
ACHSELECT	IQUANT	0	Ach Select
CABLEID	IQUANT	13	Cable ID
DCCALDATE	LABEL	7/31/2020	DC Calibration Date
ACCALDATE	LABEL	7/31/2020	AC Calibration Date
THERMOSELECT	IQUANT	1	Thermo Select
FRAMEWORKVERSION	QUANT	6.33	Framework Version
INSTRUMENTVERSION	LABEL	3.50	Instrument Version
COMPLIANCEVOLTAGE	IQUANT	0	Compliance Voltage
ZCURVE	TABLE
	Pt	Time	Freq	Zreal	Zimag	Zsig	Zmod	Zphz	Idc	Vdc	IERange
	#	s	Hz	ohm	ohm	V	ohm	°	A	V	#
	0	16	300046.9	2023.141	-1698.036	1	2641.292	-40.00697	2.716549E-005	-0.0016118	9
	1	38	238359.4	2335.528	-1641.724	1	2854.812	-35.10473	1.803732E-005	-0.0021419	9
	2	52	189328.1	2640.738	-1621.355	1	3098.756	-31.54901	5.012446E-005	0.0001851	9
	3	61	150421.9	2916.462	-1526.91	1	3291.991	-27.63424	8.784922E-005	-0.0024163	9
	4	68	119484.4	3083.344	-1428.38	1	3398.128	-24.85625	2.37775E-005	0.0010414	9
	5	76	94921.88	3294.319	-1244.128	1	3521.419	-20.68948	6.812032E-006	-0.0067829	8
	6	83	75421.88	3452.447	-1204.493	1	3656.527	-19.23291	-1.73257E-005	0.0102509	8
	7	91	59859.37	3584.765	-1194.924	1	3778.675	-18.43499	-1.025769E-005	0.0092881	8
	8	98	47578.12	3716.49	-1193.967	1	3903.569	-17.81024	-1.567648E-005	0.0011073	8
	9	106	37828.12	3847.961	-1244.352	1	4044.158	-17.92015	-1.005631E-005	0.0092553	8
	10	113	30046.88	3975.687	-1332.239	1	4192.964	-18.52582	-1.033025E-006	0.0069455	8
	11	121	23859.38	4239.777	-1219.865	1	4411.778	-16.05154	3.644735E-006	-0.0209229	7
	12	123	18984.38	4348.564	-1418.069	1	4573.94	-18.06117	6.076186E-006	-0.0215193	7
	13	126	15046.87	4359.496	-1823.004	1	4725.309	-22.69314	2.505542E-005	-0.0068261	8
	14	132	11953.13	4562.849	-2062.862	1	5007.494	-24.32771	-1.756701E-006	-0.0043704	8
	15	137	9515.62	4852.682	-2258.007	1	5352.3	-24.95308	-5.150496E-006	0.007449	7
	16	140	7546.875	5095.859	-2638.198	1	5738.281	-27.37124	-1.946664E-006	-0.0068747	7
	17	144	5928.309	5360.581	-3122.827	1	6203.859	-30.22311	6.042098E-006	-0.012792	7
	18	148	4733.456	5670.422	-3768.012	1	6808.201	-33.60415	2.203505E-005	-0.0028438	8
	19	156	3796.875	5990.795	-4265.552	1	7354.221	-35.45154	2.444593E-005	-0.0050378	8
	20	161	2987.132	6506.93	-5008.529	1	8211.304	-37.58628	1.450758E-005	-0.0083432	8
	21	168	2390.625	6870.045	-5813.537	1	8999.707	-40.23841	-2.353529E-005	0.0069854	8
	22	174	1884.191	7851.702	-6902.188	1	10454.16	-41.3177	2.203065E-005	-0.0028285	8
	23	181	1516.544	8516.826	-7599.17	1	11414.19	-41.74106	-1.742805E-005	0.0103649	8
	24	186	1193.986	9331.788	-9123.975	1	13051.02	-44.35487	-1.639541E-006	-0.0044296	8
	25	192	946.5144	10456.91	-10425.02	1	14765.77	-44.91252	1.605761E-006	0.0095354	7
	26	194	751.7689	11498.67	-12184.34	1	16753.43	-46.65838	6.487683E-006	-0.0187158	7
	27	197	597.4265	13212.32	-14129.56	1	19344.51	-46.9214	1.815838E-006	-0.0180192	7
	28	200	477.4305	14383.35	-16024.22	1	21532.69	-48.08884	-7.476518E-008	0.0006683	7
	29	202	376.6741	16248.13	-18506.34	1	24626.95	-48.71764	-7.370091E-008	0.000653	7
	30	204	298.2954	18391.11	-21291.99	1	28135.06	-49.18095	-7.40135E-008	0.0006438	7
	31	207	237.7717	20785.28	-24397.53	1	32051.01	-49.57092	-6.63561E-008	0.000587	7
	32	209	189.0121	23591.21	-27954.28	1	36578.5	-49.83827	-6.572819E-008	0.0005969	7
	33	211	150.2404	26988.49	-31903.82	1	41787.95	-49.77102	-2.131574E-008	0.000687	6
	34	214	119.1737	30737.04	-36566.63	1	47769.07	-49.95039	-2.158026E-008	0.0007024	6
	35	216	95.0169	35038.27	-41692.83	1	54460.74	-49.95662	-2.102547E-008	0.0006254	6
	36	219	75.60484	39982.37	-47487.11	1	62077.5	-49.90387	-2.057626E-008	0.0006252	6
	37	221	54.50582	48473.2	-57315.82	1	75065	-49.77809	-2.129172E-008	0.0006975	6
	38	224	45.95588	53635.91	-62806	1	82591.8	-49.50289	-2.1039E-008	0.0007197	6
	39	226	37.20238	60872.36	-70541.18	1	93174.58	-49.20798	-2.125083E-008	0.000695	6
	40	229	30.04808	69161.7	-79191.1	1	105140.7	-48.8676	-2.064758E-008	0.0006331	6
	41	231	23.91582	79281.3	-89264.13	1	119388.5	-48.38963	-2.095748E-008	0.0006342	6
	42	234	18.60119	92153.67	-101825.4	1	137334.3	-47.85437	-2.186599E-008	0.0007066	6
	43	236	15.02404	105207.8	-113452.3	1	154725.9	-47.1593	-2.157128E-008	0.0006416	6
	44	239	12.01923	120422.5	-126548.5	1	174688.6	-46.4209	-2.13406E-008	0.0006305	6
	45	241	9.450605	139256.7	-141725	1	198691.7	-45.5033	-2.024609E-008	0.0006455	6
	46	244	7.512019	159887.6	-157147.9	1	224186.3	-44.50488	-2.083257E-008	0.0007071	6
	47	247	5.978954	183198.5	-173288.4	1	252171.7	-43.40763	-2.005065E-008	0.0006275	6
	48	251	4.734848	210354.4	-190490.5	1	283787.9	-42.16302	-2.113749E-008	0.0006744	6
	49	255	3.75601	240737.4	-207683.3	1	317941.6	-40.78421	-2.149117E-008	0.0007011	6
	50	260	3.004808	273397.9	-224410.5	1	353704	-39.37984	-2.143637E-008	0.0007288	6
	51	267	2.372217	311985.4	-241275.5	1	394396.7	-37.71675	-2.068185E-008	0.000749	6
	52	271	1.878005	353516	-256981.9	1	437050.7	-36.01458	-1.546844E-008	0.0006539	5
	53	275	1.512097	394249.9	-269815.1	1	477737.6	-34.3868	-1.559387E-008	0.0007233	5
	54	281	1.201923	441487.3	-282246.6	1	523998.3	-32.59112	-1.507914E-008	0.0006382	5
	55	287	0.956633	490520.9	-292059.3	1	570884.8	-30.76984	-1.636124E-008	3.333521E-005	5
