EXPLAIN
TAG	EISPOT
TITLE	LABEL	Potentiostatic EIS	Test Identifier
DATE	LABEL	2/27/2021	Date
TIME	LABEL	11:21:37	Time
NOTES	NOTES	1	Notes...
	
PSTAT	PSTAT	REF3000-16137	Potentiostat
VDC	POTEN	0.00000E+000	T	DC Voltage (V)
FREQINIT	QUANT	3.00000E+005	Initial Freq. (Hz)
FREQFINAL	QUANT	1.00000E+000	Final Freq. (Hz)
PTSPERDEC	QUANT	1.00000E+001	Points/decade
VAC	QUANT	5.00000E+001	AC Voltage (mV rms)
AREA	QUANT	1.00000E+000	Sample Area (cm^2)
SPEED	SELECTOR	2	Optimize for:
ZGUESS	QUANT	1.00000E+003	Estimated Z (ohms)
EOC	QUANT	0	Open Circuit (V)
SEQUENCER	TOGGLE	TRUE	Run as Sequence
PSTATMODEL	IQUANT	5	Pstat Model
PSTATSECTION	LABEL	REF3000-16137	Pstat Section
PSTATSERIALNO	LABEL	16137	Pstat Serial Number
CTRLMODE	IQUANT	1	Control Mode
IESTAB	IQUANT	0	I/E Stability
CASPEED	IQUANT	1	Control Amp Speed
CONVENTION	IQUANT	1	Current Convention
ICHRANGE	IQUANT	2	Ich Range
ICHRANGEMODE	TOGGLE	F	Ich Auto Range
ICHOFFSETENABLE	TOGGLE	T	Ich Offset Enable
ICHOFFSET	QUANT	0	Ich Offset (V)
ICHFILTER	IQUANT	3	Ich Filter
VCHRANGE	IQUANT	2	Vch Range
VCHRANGEMODE	TOGGLE	F	Vch Auto Range
VCHOFFSETENABLE	TOGGLE	T	Vch Offset Enable
VCHOFFSET	QUANT	0	Vch Offset (V)
VCHFILTER	IQUANT	3	Vch Filter
ACHRANGE	IQUANT	2	Ach Range
ACHOFFSETENABLE	TOGGLE	F	Ach Offset Enable
ACHOFFSET	QUANT	0	Ach Offset (V)
ACHFILTER	IQUANT	3	Ach Filter
IERANGELOWERLIMIT	IQUANT	2	I/E Range Lower Limit
IERANGEMODE	TOGGLE	F	I/E AutoRange
IERANGE	IQUANT	11	I/E Range
POSFEEDENABLE	TOGGLE	F	Positive Feedback IR Comp
POSFEEDRESISTANCE	QUANT	0	Positive Feedback Resistance (ohm)
ACHSELECT	IQUANT	0	Ach Select
CABLEID	IQUANT	13	Cable ID
DCCALDATE	LABEL	7/31/2020	DC Calibration Date
ACCALDATE	LABEL	7/31/2020	AC Calibration Date
THERMOSELECT	IQUANT	1	Thermo Select
FRAMEWORKVERSION	QUANT	6.33	Framework Version
INSTRUMENTVERSION	LABEL	3.50	Instrument Version
COMPLIANCEVOLTAGE	IQUANT	0	Compliance Voltage
ZCURVE	TABLE
	Pt	Time	Freq	Zreal	Zimag	Zsig	Zmod	Zphz	Idc	Vdc	IERange
	#	s	Hz	ohm	ohm	V	ohm	°	A	V	#
	0	17	300046.9	2014.681	-3008.237	1	3620.557	-56.18893	1.929531E-005	-0.0022129	9
	1	33	238359.4	2576.154	-3212.057	1	4117.509	-51.26947	1.86128E-005	-0.000893	9
	2	49	189328.1	3294.989	-3254.275	1	4631.118	-44.64382	-2.157156E-005	0.0011253	9
	3	63	150421.9	4018.266	-3485.56	1	5319.36	-40.93931	2.487501E-005	0.0010996	9
	4	70	119484.4	4706.275	-3282.803	1	5738.103	-34.89722	3.978244E-005	-0.0181633	8
	5	78	94921.88	5296.462	-3170.22	1	6172.747	-30.90281	-1.571036E-005	0.0009012	8
	6	85	75421.88	5790.796	-2960.26	1	6503.572	-27.07616	-2.319901E-005	0.0104954	8
	7	93	59859.37	6246.825	-2831.977	1	6858.784	-24.387	-2.288876E-005	0.0052187	8
	8	100	47578.12	6610.618	-2722.162	1	7149.156	-22.3812	-2.485867E-005	0.0073481	8
	9	107	37828.12	6963.653	-2848.734	1	7523.812	-22.24879	2.855634E-005	-0.0008493	9
	10	116	30046.88	7288.761	-2633.795	1	7750.027	-19.86733	2.126313E-005	-0.0091638	8
	11	125	23859.38	7582.784	-2656.231	1	8034.562	-19.30523	-2.330755E-005	0.010641	8
	12	131	18984.38	7854.632	-2759.056	1	8325.121	-19.35458	-1.988503E-005	0.0029662	8
	13	137	15046.87	8199.598	-3024.389	1	8739.584	-20.2463	1.963748E-005	-8.487161E-006	9
	14	144	11953.13	8462.674	-3171.671	1	9037.497	-20.54517	-2.331566E-005	0.0105528	8
	15	150	9515.62	8814.587	-3526.014	1	9493.667	-21.80241	-2.31232E-005	0.0051934	8
	16	157	7546.875	9180.231	-4059.229	1	10037.63	-23.85361	-1.076964E-005	0.0096715	8
	17	163	5928.309	9724.25	-4413.718	1	10679.04	-24.41273	-6.57701E-006	0.0159764	7
	18	168	4733.456	10226.49	-5207.336	1	11475.95	-26.98524	6.40657E-006	-0.0239732	7
	19	172	3796.875	10710.23	-6017.952	1	12285.14	-29.33112	-6.017232E-006	0.0227926	7
	20	176	2987.132	11326.83	-7008.004	1	13319.5	-31.74543	-5.431915E-008	0.0160391	7
	21	180	2390.625	12069.42	-8090.375	1	14530.14	-33.83474	-6.014046E-006	0.0226226	7
	22	185	1884.191	13027.99	-9440.622	1	16088.93	-35.92865	-5.886171E-006	0.0096178	7
	23	189	1516.544	13868.68	-11041.24	1	17727.08	-38.52428	-3.762892E-006	0.0235246	7
	24	193	1193.986	14960.11	-12969.99	1	19799.63	-40.92437	-5.396964E-008	0.0161482	7
	25	198	946.5144	16715.97	-15475.61	1	22779.77	-42.79346	-4.478696E-006	0.0021543	7
	26	200	751.7689	17882.7	-17141.63	1	24771.48	-43.78788	-6.174556E-006	0.0231941	7
	27	203	597.4265	19575.43	-20503.3	1	28347.53	-46.32623	-6.542932E-006	0.0163167	7
	28	207	477.4305	22116.54	-23526.38	1	32289.81	-46.76921	-6.794897E-008	0.0005719	7
	29	210	376.6741	24791.16	-27367.56	1	36926.75	-47.82785	-7.335063E-008	0.0006626	7
	30	212	298.2954	28241.29	-31493.72	1	42301.6	-48.11654	-1.475803E-008	0.0006321	6
	31	215	237.7717	31727.77	-36350.2	1	48249.23	-48.88437	-1.545266E-008	0.0006209	6
	32	217	189.0121	35898.62	-41921.72	1	55191.86	-49.42573	-1.503241E-008	0.000623	6
	33	219	150.2404	40718.14	-48221.97	1	63113.59	-49.8226	-1.58681E-008	0.0007138	6
	34	222	119.1737	46401.96	-55383.68	1	72252.98	-50.0428	-1.541884E-008	0.0006328	6
	35	225	95.0169	52933.28	-63391.88	1	82586.09	-50.13755	-1.533303E-008	0.0006935	6
	36	227	75.60484	60517.02	-72398.88	1	94360.52	-50.10831	-1.610526E-008	0.0006966	6
	37	230	54.50582	72835.88	-87560.49	1	113894.3	-50.24513	-1.573568E-008	0.000651	6
	38	232	45.95588	81134.66	-96098.8	1	125768.9	-49.82612	-1.505399E-008	0.0006927	6
	39	235	37.20238	91899.55	-108291	1	142029.8	-49.68089	-1.485975E-008	0.0006222	6
	40	237	30.04808	104416.2	-121689.2	1	160346.5	-49.36854	-1.475346E-008	0.0006201	6
	41	240	23.91582	119568.5	-137868.5	1	182494.8	-49.06604	-1.512646E-008	0.0006606	6
	42	242	18.60119	139086.8	-157136.6	1	209850.1	-48.4869	-1.462205E-008	0.0006366	6
	43	245	15.02404	157933.2	-176095.6	1	236542.9	-48.11232	-1.513339E-008	0.0007231	6
	44	247	12.01923	180505.2	-197744.9	1	267740.9	-47.6096	-1.565107E-008	0.0006472	6
	45	249	9.450605	208230.6	-223263	1	305297.2	-46.99527	-1.463601E-008	0.0007132	6
	46	252	7.512019	238879.7	-250142.2	1	345882.4	-46.31933	-1.485971E-008	0.00073	6
	47	255	5.978954	274107.8	-279205.7	1	391268.3	-45.52787	-1.439655E-008	0.0006383	6
	48	259	4.734848	316142.6	-311358.1	1	443722.9	-44.56314	-9.162025E-009	0.000696	5
	49	263	3.75601	362978.3	-345343.3	1	501014.2	-43.57381	-9.181118E-009	0.0006493	5
	50	268	3.004808	414288.1	-379679	1	561952.7	-42.50406	-8.773029E-009	0.0006226	5
	51	275	2.372217	475986.5	-417610.7	1	633215.5	-41.26236	-9.101832E-009	0.0006284	5
	52	279	1.878005	544280.2	-454332	1	708984.1	-39.85308	-9.059201E-009	0.00066	5
	53	284	1.512097	614534.5	-489067.7	1	785391.5	-38.51398	-8.865643E-009	0.0005559	5
	54	289	1.201923	697110.1	-525016.5	1	872699.8	-36.9846	-8.944865E-009	0.0006643	5
	55	295	0.956633	786254.5	-559148.3	1	964802	-35.4187	-9.203749E-009	1.578831E-005	5
