EXPLAIN
TAG	EISPOT
TITLE	LABEL	Potentiostatic EIS	Test Identifier
DATE	LABEL	2/27/2021	Date
TIME	LABEL	10:42:46	Time
NOTES	NOTES	1	Notes...
	
PSTAT	PSTAT	REF3000-16137	Potentiostat
VDC	POTEN	0.00000E+000	T	DC Voltage (V)
FREQINIT	QUANT	3.00000E+005	Initial Freq. (Hz)
FREQFINAL	QUANT	1.00000E+000	Final Freq. (Hz)
PTSPERDEC	QUANT	1.00000E+001	Points/decade
VAC	QUANT	5.00000E+001	AC Voltage (mV rms)
AREA	QUANT	1.00000E+000	Sample Area (cm^2)
SPEED	SELECTOR	2	Optimize for:
ZGUESS	QUANT	1.00000E+003	Estimated Z (ohms)
EOC	QUANT	0	Open Circuit (V)
SEQUENCER	TOGGLE	TRUE	Run as Sequence
PSTATMODEL	IQUANT	5	Pstat Model
PSTATSECTION	LABEL	REF3000-16137	Pstat Section
PSTATSERIALNO	LABEL	16137	Pstat Serial Number
CTRLMODE	IQUANT	1	Control Mode
IESTAB	IQUANT	0	I/E Stability
CASPEED	IQUANT	1	Control Amp Speed
CONVENTION	IQUANT	1	Current Convention
ICHRANGE	IQUANT	2	Ich Range
ICHRANGEMODE	TOGGLE	F	Ich Auto Range
ICHOFFSETENABLE	TOGGLE	T	Ich Offset Enable
ICHOFFSET	QUANT	0	Ich Offset (V)
ICHFILTER	IQUANT	3	Ich Filter
VCHRANGE	IQUANT	2	Vch Range
VCHRANGEMODE	TOGGLE	F	Vch Auto Range
VCHOFFSETENABLE	TOGGLE	T	Vch Offset Enable
VCHOFFSET	QUANT	0	Vch Offset (V)
VCHFILTER	IQUANT	3	Vch Filter
ACHRANGE	IQUANT	2	Ach Range
ACHOFFSETENABLE	TOGGLE	F	Ach Offset Enable
ACHOFFSET	QUANT	0	Ach Offset (V)
ACHFILTER	IQUANT	3	Ach Filter
IERANGELOWERLIMIT	IQUANT	2	I/E Range Lower Limit
IERANGEMODE	TOGGLE	F	I/E AutoRange
IERANGE	IQUANT	11	I/E Range
POSFEEDENABLE	TOGGLE	F	Positive Feedback IR Comp
POSFEEDRESISTANCE	QUANT	0	Positive Feedback Resistance (ohm)
ACHSELECT	IQUANT	0	Ach Select
CABLEID	IQUANT	13	Cable ID
DCCALDATE	LABEL	7/31/2020	DC Calibration Date
ACCALDATE	LABEL	7/31/2020	AC Calibration Date
THERMOSELECT	IQUANT	1	Thermo Select
FRAMEWORKVERSION	QUANT	6.33	Framework Version
INSTRUMENTVERSION	LABEL	3.50	Instrument Version
COMPLIANCEVOLTAGE	IQUANT	0	Compliance Voltage
ZCURVE	TABLE
	Pt	Time	Freq	Zreal	Zimag	Zsig	Zmod	Zphz	Idc	Vdc	IERange
	#	s	Hz	ohm	ohm	V	ohm	°	A	V	#
	0	8	300046.9	12.48973	2.125864	1	12.66936	9.65968	-0.0001756	0.0001594	10
	1	11	238359.4	14.75265	1.674044	1	14.84733	6.473894	-0.0002017	0.0001662	10
	2	14	189328.1	19.97644	1.272182	1	20.01691	3.643911	-0.0001754	0.0005137	10
	3	17	150421.9	33.72486	0.8138852	1	33.73468	1.382456	-0.0001297	0.0004821	10
	4	19	119484.4	1182.965	-194.4854	1	1198.845	-9.336201	-0.0001152	0.0006253	10
	5	26	94921.88	2608.871	-999.603	1	2793.817	-20.9646	-2.118727E-005	0.0097884	8
	6	32	75421.88	2621.148	-969.032	1	2794.538	-20.28923	6.322133E-006	-0.0065571	8
	7	37	59859.37	2651.195	-991.072	1	2830.381	-20.49679	2.435852E-005	-0.0067423	8
	8	43	47578.12	2684.353	-1069.897	1	2889.711	-21.73064	1.983946E-005	-2.816569E-005	9
	9	50	37828.12	2709.372	-1084.716	1	2918.442	-21.81903	-1.62055E-005	0.0097862	8
	10	58	30046.88	2762.365	-1186.011	1	3006.207	-23.23609	-2.077342E-005	0.0097102	8
	11	63	23859.38	2843.426	-1352.37	1	3148.647	-25.43637	1.010406E-005	0.0003726	9
	12	69	18984.38	2947.6	-1495.848	1	3305.437	-26.90689	-9.295219E-007	0.0007832	9
	13	74	15046.87	3049.858	-1653.479	1	3469.24	-28.46431	2.417329E-005	-0.0066561	8
	14	79	11953.13	3199.473	-1874.685	1	3708.243	-30.36756	-2.256122E-005	0.0069812	8
	15	85	9515.62	3365.333	-2100.285	1	3966.946	-31.96805	5.95255E-006	-0.0062789	8
	16	90	7546.875	3578.721	-2365.155	1	4289.662	-33.46047	2.243086E-005	-0.0077081	8
	17	95	5928.309	3815.134	-2720.577	1	4685.807	-35.49271	1.326116E-005	-0.0077639	8
	18	101	4733.456	4091.173	-3055.143	1	5106.035	-36.75106	-2.253855E-005	0.0085745	8
	19	106	3796.875	4416.35	-3388.714	1	5566.644	-37.49943	-2.096819E-005	0.0050093	8
	20	112	2987.132	4803.647	-3827.272	1	6141.908	-38.54583	8.63508E-006	0.0031988	8
	21	117	2390.625	5254.81	-4258.165	1	6763.504	-39.01912	-1.21426E-006	-0.0077213	7
	22	121	1884.191	5785.514	-4774.112	1	7500.955	-39.52889	-1.305174E-006	-0.0072457	7
	23	126	1516.544	6288.268	-5338.995	1	8249.071	-40.33261	-2.891839E-006	-0.0011117	7
	24	130	1193.986	6927.599	-6002.979	1	9166.646	-40.90994	5.079241E-006	-0.0096847	7
	25	134	946.5144	7593.378	-6751.977	1	10161.13	-41.64326	-2.890938E-006	-0.0012104	7
	26	137	751.7689	8448.731	-7626.011	1	11381.44	-42.0701	5.009627E-006	-0.0095521	7
	27	140	597.4265	9385.743	-8606.604	1	12734.43	-42.52042	-9.0157E-007	0.0150967	7
	28	142	477.4305	10301.87	-9418.884	1	13958.65	-42.43633	-4.23256E-008	0.0006618	7
	29	144	376.6741	11453.49	-10594.29	1	15601.97	-42.76832	-3.846346E-008	0.0005895	7
	30	147	298.2954	12723.31	-11907.46	1	17426.13	-43.10286	-3.945222E-008	0.000597	7
	31	149	237.7717	14118.18	-13339.6	1	19423.39	-43.37579	-4.466212E-008	0.0006684	7
	32	152	189.0121	15713.66	-14985.45	1	21713.66	-43.64116	-4.226625E-008	0.0006656	7
	33	154	150.2404	17522.94	-16836.12	1	24300.38	-43.85484	-4.543922E-008	0.0006592	7
	34	156	119.1737	19601.98	-18938.91	1	27256.56	-44.01436	-3.495689E-008	0.0006141	7
	35	159	95.0169	21914.68	-21213.3	1	30500.12	-44.0683	-3.716138E-008	0.0005939	7
	36	161	75.60484	24598.03	-23777.58	1	34211.64	-44.02837	-3.894473E-008	0.0005909	7
	37	164	54.50582	29127.82	-27915.79	1	40345.02	-43.78279	-4.223727E-008	0.0006594	7
	38	166	45.95588	31985.18	-30171.42	1	43970.06	-43.32856	4.981117E-010	0.0007076	6
	39	169	37.20238	35791.23	-33258.59	1	48858.43	-42.89943	-2.782637E-010	0.0007151	6
	40	171	30.04808	40115.11	-36498.71	1	54234.48	-42.29748	6.134818E-010	0.0006527	6
	41	174	23.91582	45318.08	-40152.36	1	60547.01	-41.54132	9.526192E-011	0.0006377	6
	42	176	18.60119	51871.74	-44265.05	1	68191.44	-40.47598	-8.790739E-010	0.0006789	6
	43	179	15.02404	57978.94	-47782.4	1	75131.32	-39.49309	-5.47014E-010	0.0006583	6
	44	181	12.01923	64940.22	-51407.09	1	82824.64	-38.36536	-5.479232E-010	0.0006643	6
	45	184	9.450605	73102.65	-55254.74	1	91635.6	-37.08386	3.479577E-009	0.0007017	6
	46	186	7.512019	81367.95	-58793.52	1	100386.4	-35.85051	3.730238E-009	0.0006838	6
	47	189	5.978954	90185.16	-61955.62	1	109416	-34.48838	3.045078E-010	0.0007013	6
	48	194	4.734848	99500.4	-65174.38	1	118945.5	-33.22544	2.452393E-009	0.0006596	6
	49	199	3.75601	109237.6	-68275.01	1	128819	-32.00595	2.197702E-009	0.0006804	6
	50	204	3.004808	118156.1	-70593.89	1	137638.5	-30.85675	2.54952E-010	0.0006908	6
	51	210	2.372217	128662.9	-73624.26	1	148238.6	-29.77931	1.088172E-009	0.0007226	6
	52	218	1.878005	138771.5	-76313.83	1	158370.9	-28.80746	-2.629872E-010	0.0006438	6
	53	227	1.512097	148688	-79027.8	1	168385	-27.99069	-5.499693E-010	0.0007647	6
	54	238	1.201923	159644	-82477.66	1	179690.7	-27.32246	-3.952003E-010	0.0006416	6
	55	251	0.956633	171059.6	-86257.81	1	191577.2	-26.75979	-5.334818E-009	2.387704E-005	6
