EXPLAIN
TAG	EISPOT
TITLE	LABEL	Potentiostatic EIS	Test Identifier
DATE	LABEL	2/27/2021	Date
TIME	LABEL	11:36:33	Time
NOTES	NOTES	1	Notes...
	
PSTAT	PSTAT	REF3000-16137	Potentiostat
VDC	POTEN	0.00000E+000	T	DC Voltage (V)
FREQINIT	QUANT	3.00000E+005	Initial Freq. (Hz)
FREQFINAL	QUANT	1.00000E+000	Final Freq. (Hz)
PTSPERDEC	QUANT	1.00000E+001	Points/decade
VAC	QUANT	5.00000E+001	AC Voltage (mV rms)
AREA	QUANT	1.00000E+000	Sample Area (cm^2)
SPEED	SELECTOR	2	Optimize for:
ZGUESS	QUANT	1.00000E+003	Estimated Z (ohms)
EOC	QUANT	0	Open Circuit (V)
SEQUENCER	TOGGLE	TRUE	Run as Sequence
PSTATMODEL	IQUANT	5	Pstat Model
PSTATSECTION	LABEL	REF3000-16137	Pstat Section
PSTATSERIALNO	LABEL	16137	Pstat Serial Number
CTRLMODE	IQUANT	1	Control Mode
IESTAB	IQUANT	0	I/E Stability
CASPEED	IQUANT	1	Control Amp Speed
CONVENTION	IQUANT	1	Current Convention
ICHRANGE	IQUANT	2	Ich Range
ICHRANGEMODE	TOGGLE	F	Ich Auto Range
ICHOFFSETENABLE	TOGGLE	T	Ich Offset Enable
ICHOFFSET	QUANT	0	Ich Offset (V)
ICHFILTER	IQUANT	3	Ich Filter
VCHRANGE	IQUANT	2	Vch Range
VCHRANGEMODE	TOGGLE	F	Vch Auto Range
VCHOFFSETENABLE	TOGGLE	T	Vch Offset Enable
VCHOFFSET	QUANT	0	Vch Offset (V)
VCHFILTER	IQUANT	3	Vch Filter
ACHRANGE	IQUANT	2	Ach Range
ACHOFFSETENABLE	TOGGLE	F	Ach Offset Enable
ACHOFFSET	QUANT	0	Ach Offset (V)
ACHFILTER	IQUANT	3	Ach Filter
IERANGELOWERLIMIT	IQUANT	2	I/E Range Lower Limit
IERANGEMODE	TOGGLE	F	I/E AutoRange
IERANGE	IQUANT	11	I/E Range
POSFEEDENABLE	TOGGLE	F	Positive Feedback IR Comp
POSFEEDRESISTANCE	QUANT	0	Positive Feedback Resistance (ohm)
ACHSELECT	IQUANT	0	Ach Select
CABLEID	IQUANT	13	Cable ID
DCCALDATE	LABEL	7/31/2020	DC Calibration Date
ACCALDATE	LABEL	7/31/2020	AC Calibration Date
THERMOSELECT	IQUANT	1	Thermo Select
FRAMEWORKVERSION	QUANT	6.33	Framework Version
INSTRUMENTVERSION	LABEL	3.50	Instrument Version
COMPLIANCEVOLTAGE	IQUANT	0	Compliance Voltage
ZCURVE	TABLE
	Pt	Time	Freq	Zreal	Zimag	Zsig	Zmod	Zphz	Idc	Vdc	IERange
	#	s	Hz	ohm	ohm	V	ohm	°	A	V	#
	0	15	300046.9	735.3936	-4355.308	1	4416.957	-80.41601	1.899096E-005	-0.0009999	9
	1	28	238359.4	1133.232	-5309.969	1	5429.547	-77.9529	-2.878234E-005	-0.0011618	9
	2	42	189328.1	1417.758	-6177.563	1	6338.164	-77.07438	1.864607E-005	-0.0008611	9
	3	51	150421.9	2376.712	-8051.161	1	8394.639	-73.55334	-1.392839E-005	0.0018538	9
	4	60	119484.4	3730.339	-9159.709	1	9890.18	-67.84113	2.588067E-005	-0.0013535	9
	5	68	94921.88	5256.677	-10537.15	1	11775.58	-63.48674	8.46629E-006	0.004062	8
	6	76	75421.88	7326.653	-12419.89	1	14419.9	-59.46309	2.582747E-005	-0.0088618	8
	7	84	59859.37	9798.7	-13760.26	1	16892.58	-54.54528	7.93477E-006	-0.0075444	8
	8	93	47578.12	14939.14	-14164.49	1	20586.66	-43.47533	-5.124545E-006	0.0031414	7
	9	99	37828.12	17695.92	-14581.97	1	22929.88	-39.48955	7.342708E-006	-0.017725	7
	10	106	30046.88	20425.97	-14517.35	1	25059.41	-35.40255	3.531313E-006	-0.0240009	7
	11	112	23859.38	21856.02	-15591.47	1	26847.33	-35.50299	-2.432345E-005	0.0108894	8
	12	119	18984.38	24502.34	-15098.22	1	28780.56	-31.64116	2.601054E-005	-0.0050384	8
	13	125	15046.87	26373.67	-13912.83	1	29818.41	-27.81287	2.184227E-005	-0.0094163	8
	14	131	11953.13	29158.38	-13593.22	1	32171.21	-24.99425	-1.929938E-005	0.0111885	8
	15	138	9515.62	30859.01	-13610.05	1	33727.03	-23.79939	2.590956E-005	-0.0050597	8
	16	144	7546.875	32819.71	-12904.06	1	35265.4	-21.46377	1.744255E-005	0.0003009	8
	17	151	5928.309	35353.17	-13468.92	1	37831.97	-20.85593	5.27616E-006	-0.0259658	7
	18	156	4733.456	36620.03	-12529.57	1	38704.22	-18.88842	-2.628129E-005	0.0095521	8
	19	163	3796.875	38126.1	-15368.12	1	41106.91	-21.9537	5.017888E-007	-0.0005143	9
	20	169	2987.132	39315.2	-15775.45	1	42362.13	-21.86341	6.70128E-006	-0.026135	7
	21	174	2390.625	41055.44	-17680.67	1	44700.73	-23.2993	-6.377148E-006	0.0251077	7
	22	180	1884.191	44139.77	-19025.86	1	48065.61	-23.31781	2.640225E-006	0.0084783	7
	23	185	1516.544	44882.11	-22769.47	1	50327.46	-26.89947	-5.224498E-006	0.0258761	7
	24	190	1193.986	47779.35	-26128.5	1	54457	-28.67237	7.458278E-006	-0.0234269	7
	25	196	946.5144	50577	-31430.53	1	59547.55	-31.85843	4.783814E-006	-0.0006984	7
	26	200	751.7689	57359.19	-35175.25	1	67285.77	-31.51851	-5.047289E-006	0.0030034	7
	27	203	597.4265	59207.17	-43279.1	1	73338.73	-36.16596	-5.189236E-006	0.02606	7
	28	207	477.4305	61560.15	-47694.07	1	77874.11	-37.76693	-6.437732E-008	0.000573	7
	29	211	376.6741	67209.09	-55119.64	1	86920.87	-39.35592	-1.001628E-008	0.0007109	6
	30	213	298.2954	73000.91	-64452.68	1	97382.1	-41.44136	-9.407207E-009	0.0006883	6
	31	215	237.7717	79538.59	-75366.09	1	109573.9	-43.45706	-9.826712E-009	0.0006935	6
	32	218	189.0121	87284.12	-87992.66	1	123940.4	-45.23161	-9.700768E-009	0.0006581	6
	33	220	150.2404	96609.9	-102632.2	1	140949.8	-46.73129	-9.389498E-009	0.0006558	6
	34	223	119.1737	107368.5	-119549.9	1	160686.6	-48.07278	-9.354264E-009	0.000694	6
	35	225	95.0169	120324.3	-139321.4	1	184088	-49.1846	-1.033149E-008	0.0007058	6
	36	228	75.60484	135288.6	-161441.5	1	210633.2	-50.03685	-9.118332E-009	0.0006385	6
	37	230	54.50582	163626.6	-200920.2	1	259118.9	-50.84112	-9.205517E-009	0.0006471	6
	38	233	45.95588	178727.9	-222673.5	1	285529.6	-51.24788	-1.001232E-008	0.000701	6
	39	235	37.20238	202844.6	-253658.1	1	324789.8	-51.35147	-9.511766E-009	0.00069	6
	40	237	30.04808	230667.7	-289617.3	1	370250.9	-51.46418	-9.860607E-009	0.0007038	6
	41	240	23.91582	268664.2	-331513	1	426709.9	-50.97806	-3.224788E-009	0.0006707	5
	42	243	18.60119	316934.6	-386219.9	1	499613.2	-50.62747	-3.879343E-009	0.000605	5
	43	245	15.02404	358660.6	-435104.3	1	563873.4	-50.50092	-3.109745E-009	0.0006605	5
	44	248	12.01923	412733.1	-493328.4	1	643211.9	-50.08315	-2.922261E-009	0.0006818	5
	45	250	9.450605	480059.8	-563051.8	1	739922.1	-49.54898	-3.262363E-009	0.0007001	5
	46	253	7.512019	554212.1	-636851.9	1	844234.2	-48.969	-3.001524E-009	0.0006214	5
	47	256	5.978954	638917.6	-717209.1	1	960523	-48.30412	-3.182026E-009	0.0006471	5
	48	260	4.734848	737557.1	-808824.6	1	1094618	-47.6387	-2.953261E-009	0.0007236	5
	49	264	3.75601	850177.8	-908767.4	1	1244452	-46.90779	-2.992928E-009	0.0006582	5
	50	269	3.004808	974656	-1017683	1	1409125	-46.23717	-3.1058E-009	0.0007283	5
	51	276	2.372217	1123623	-1140031	1	1600687	-45.4153	-2.958496E-009	0.0006474	5
	52	280	1.878005	1292482	-1272111	1	1813498	-44.54489	-2.899547E-009	0.0006431	5
	53	284	1.512097	1468895	-1407447	1	2034345	-43.77615	-2.9535E-009	0.0007393	5
	54	290	1.201923	1682145	-1561658	1	2295296	-42.8728	-2.912516E-009	0.0006515	5
	55	296	0.956633	1925142	-1728488	1	2587246	-41.91907	-3.201037E-009	1.492535E-005	5
