EXPLAIN
TAG	EISPOT
TITLE	LABEL	Potentiostatic EIS	Test Identifier
DATE	LABEL	2/27/2021	Date
TIME	LABEL	11:58:00	Time
NOTES	NOTES	1	Notes...
	
PSTAT	PSTAT	REF3000-16137	Potentiostat
VDC	POTEN	0.00000E+000	T	DC Voltage (V)
FREQINIT	QUANT	3.00000E+005	Initial Freq. (Hz)
FREQFINAL	QUANT	1.00000E+000	Final Freq. (Hz)
PTSPERDEC	QUANT	1.00000E+001	Points/decade
VAC	QUANT	5.00000E+001	AC Voltage (mV rms)
AREA	QUANT	1.00000E+000	Sample Area (cm^2)
SPEED	SELECTOR	2	Optimize for:
ZGUESS	QUANT	1.00000E+003	Estimated Z (ohms)
EOC	QUANT	0	Open Circuit (V)
SEQUENCER	TOGGLE	TRUE	Run as Sequence
PSTATMODEL	IQUANT	5	Pstat Model
PSTATSECTION	LABEL	REF3000-16137	Pstat Section
PSTATSERIALNO	LABEL	16137	Pstat Serial Number
CTRLMODE	IQUANT	1	Control Mode
IESTAB	IQUANT	0	I/E Stability
CASPEED	IQUANT	1	Control Amp Speed
CONVENTION	IQUANT	1	Current Convention
ICHRANGE	IQUANT	2	Ich Range
ICHRANGEMODE	TOGGLE	F	Ich Auto Range
ICHOFFSETENABLE	TOGGLE	T	Ich Offset Enable
ICHOFFSET	QUANT	0	Ich Offset (V)
ICHFILTER	IQUANT	3	Ich Filter
VCHRANGE	IQUANT	2	Vch Range
VCHRANGEMODE	TOGGLE	F	Vch Auto Range
VCHOFFSETENABLE	TOGGLE	T	Vch Offset Enable
VCHOFFSET	QUANT	0	Vch Offset (V)
VCHFILTER	IQUANT	3	Vch Filter
ACHRANGE	IQUANT	2	Ach Range
ACHOFFSETENABLE	TOGGLE	F	Ach Offset Enable
ACHOFFSET	QUANT	0	Ach Offset (V)
ACHFILTER	IQUANT	3	Ach Filter
IERANGELOWERLIMIT	IQUANT	2	I/E Range Lower Limit
IERANGEMODE	TOGGLE	F	I/E AutoRange
IERANGE	IQUANT	11	I/E Range
POSFEEDENABLE	TOGGLE	F	Positive Feedback IR Comp
POSFEEDRESISTANCE	QUANT	0	Positive Feedback Resistance (ohm)
ACHSELECT	IQUANT	0	Ach Select
CABLEID	IQUANT	13	Cable ID
DCCALDATE	LABEL	7/31/2020	DC Calibration Date
ACCALDATE	LABEL	7/31/2020	AC Calibration Date
THERMOSELECT	IQUANT	1	Thermo Select
FRAMEWORKVERSION	QUANT	6.33	Framework Version
INSTRUMENTVERSION	LABEL	3.50	Instrument Version
COMPLIANCEVOLTAGE	IQUANT	0	Compliance Voltage
ZCURVE	TABLE
	Pt	Time	Freq	Zreal	Zimag	Zsig	Zmod	Zphz	Idc	Vdc	IERange
	#	s	Hz	ohm	ohm	V	ohm	°	A	V	#
	0	30	300046.9	2.654054	-4565.062	1	4565.063	-89.96669	-6.034034E-005	0.0003276	9
	1	43	238359.4	175.0305	-5604.921	1	5607.653	-88.21135	-9.090576E-005	0.004219	9
	2	58	189328.1	402.0445	-7029.476	1	7040.963	-86.72659	-1.891228E-005	0.0015246	9
	3	68	150421.9	-567.5954	-8492.418	1	8511.364	-93.82371	-2.719863E-005	-0.0009907	9
	4	75	119484.4	604.3618	-10981.85	1	10998.47	-86.85003	4.899047E-005	-0.0018982	8
	5	82	94921.88	724.3066	-13709.68	1	13728.8	-86.97578	2.256452E-005	-0.0095825	8
	6	91	75421.88	1003.625	-17177.67	1	17206.96	-86.65623	-1.18213E-005	0.0101417	8
	7	100	59859.37	925.2638	-21835.07	1	21854.66	-87.57353	1.649979E-005	-0.0092136	8
	8	108	47578.12	4783.318	-28317.96	1	28719.11	-80.41241	-1.036608E-006	-0.0130961	7
	9	115	37828.12	5464.028	-35400.53	1	35819.73	-81.22571	4.982251E-006	-0.0009268	7
	10	122	30046.88	3042.26	-42471.6	1	42580.42	-85.90288	-2.043593E-005	0.0028915	8
	11	131	23859.38	3796.775	-53503.37	1	53637.92	-85.94091	-1.187417E-005	0.0102447	8
	12	138	18984.38	8241.655	-68016.49	1	68514	-83.09107	6.389903E-006	-0.0095273	7
	13	143	15046.87	10504.35	-83933.09	1	84587.85	-82.86644	1.306509E-006	-0.0197225	7
	14	149	11953.13	16530.45	-106017.2	1	107298.1	-81.13766	-1.048166E-006	-0.0129631	7
	15	154	9515.62	20141.65	-130981.2	1	132520.8	-81.25781	-7.328225E-006	0.0189782	7
	16	161	7546.875	29057.81	-167824.6	1	170321.6	-80.17697	7.45183E-006	-0.0179117	7
	17	166	5928.309	36234.5	-201396.3	1	204630	-79.80067	3.464932E-006	-0.0242017	7
	18	172	4733.456	77281.67	-238212.2	1	250434.7	-72.02571	6.773744E-006	-0.0267432	7
	19	178	3796.875	107227.1	-346736.2	1	362937.5	-72.81594	8.214052E-006	-0.0076916	8
	20	185	2987.132	114765.1	-360443.1	1	378272.7	-72.33852	5.291203E-007	0.0159345	7
	21	192	2390.625	167041.9	-443866.7	1	474258	-69.377	7.546405E-006	-0.0183878	7
	22	198	1884.191	305600.4	-454942.6	1	548055.1	-56.1094	7.605592E-006	-0.0242556	7
	23	206	1516.544	342106.8	-456553.3	1	570506.8	-53.15487	-6.681928E-006	0.0121442	7
	24	212	1193.986	726811.4	-1024687	1	1256279	-54.65188	-7.180114E-006	0.0233558	7
	25	219	946.5144	163018.1	-605322.5	1	626889.3	-74.92739	-3.686429E-006	0.0255656	7
	26	226	751.7689	245719.4	-473910.5	1	533825.1	-62.59357	6.538355E-006	-0.010348	7
	27	231	597.4265	2270187	2089752	1	3085581	42.63017	-9.613144E-007	-0.0132617	7
	28	236	477.4305	1103760	-832831.4	1	1382713	-37.03602	-7.680378E-009	0.0007151	6
	29	242	376.6741	1371461	-718569.7	1	1548305	-27.65204	-9.258684E-010	0.0006264	5
	30	244	298.2954	1474594	-709955.7	1	1636601	-25.70889	-8.612182E-010	0.0006248	5
	31	247	237.7717	1557759	-700798.2	1	1708137	-24.22183	-9.054192E-010	0.0006449	5
	32	250	189.0121	1643341	-715623.4	1	1792397	-23.53161	-8.659384E-010	0.0006048	5
	33	252	150.2404	1724093	-743414.9	1	1877542	-23.32531	-8.707295E-010	0.0006084	5
	34	255	119.1737	1809798	-829279.5	1	1990747	-24.61804	-8.008754E-010	0.0006757	5
	35	258	95.0169	1895478	-836894.9	1	2072011	-23.8225	-8.782973E-010	0.0006252	5
	36	261	75.60484	1964005	-937489.9	1	2176282	-25.51682	-7.893345E-010	0.0006985	5
	37	264	54.50582	2120861	-1093730	1	2386272	-27.28019	-9.086412E-010	0.0006437	5
	38	267	45.95588	2234056	-1213696	1	2542452	-28.51392	-7.617591E-009	0.0007204	6
	39	271	37.20238	2364143	-1382959	1	2738932	-30.32647	-8.632693E-010	0.0006126	5
	40	274	30.04808	2486232	-1571438	1	2941219	-32.29518	-6.96772E-009	0.0006227	6
	41	278	23.91582	2709908	-1830309	1	3270112	-34.03564	-7.044427E-009	0.0006167	6
	42	282	18.60119	2823251	-2144439	1	3545330	-37.21899	-7.179556E-009	0.0006149	6
	43	286	15.02404	3106732	-2411363	1	3932741	-37.81767	-8.407028E-010	0.0006736	5
	44	289	12.01923	3502787	-2682077	1	4411695	-37.44121	-2.273487E-010	0.000702	4
	45	292	9.450605	3789139	-3177457	1	4945078	-39.98218	-2.173924E-010	0.0007099	4
	46	295	7.512019	4138087	-3716890	1	5562287	-41.93064	-1.749622E-010	0.0006943	4
	47	298	5.978954	4543757	-4375528	1	6308009	-43.91945	-1.579068E-010	0.0007017	4
	48	302	4.734848	5054500	-5144494	1	7212059	-45.50555	-1.78972E-010	0.0005982	4
	49	307	3.75601	5659326	-6040689	1	8277554	-46.8669	-1.879392E-010	0.0006877	4
	50	312	3.004808	6330922	-7058412	1	9481653	-48.11002	-1.606208E-010	0.0006527	4
	51	319	2.372217	7191068	-8275720	1	1.096353E+007	-49.01146	-1.804341E-010	0.0006878	4
	52	323	1.878005	8183344	-9.701512E+006	1	1.269198E+007	-49.85196	-1.842705E-010	0.0006474	4
	53	328	1.512097	9263927	-1.123486E+007	1	1.456168E+007	-50.49203	-1.756516E-010	0.0005886	4
	54	334	1.201923	1.064572E+007	-1.311591E+007	1	1.689255E+007	-50.93497	-1.737779E-010	0.0006526	4
	55	341	0.956633	1.224924E+007	-1.529301E+007	1	1.959387E+007	-51.30633	-1.760931E-010	2.130825E-005	4
