EXPLAIN
TAG	EISPOT
TITLE	LABEL	Potentiostatic EIS	Test Identifier
DATE	LABEL	2/27/2021	Date
TIME	LABEL	11:07:01	Time
NOTES	NOTES	1	Notes...
	
PSTAT	PSTAT	REF3000-16137	Potentiostat
VDC	POTEN	0.00000E+000	T	DC Voltage (V)
FREQINIT	QUANT	3.00000E+005	Initial Freq. (Hz)
FREQFINAL	QUANT	1.00000E+000	Final Freq. (Hz)
PTSPERDEC	QUANT	1.00000E+001	Points/decade
VAC	QUANT	5.00000E+001	AC Voltage (mV rms)
AREA	QUANT	1.00000E+000	Sample Area (cm^2)
SPEED	SELECTOR	2	Optimize for:
ZGUESS	QUANT	1.00000E+003	Estimated Z (ohms)
EOC	QUANT	0	Open Circuit (V)
SEQUENCER	TOGGLE	TRUE	Run as Sequence
PSTATMODEL	IQUANT	5	Pstat Model
PSTATSECTION	LABEL	REF3000-16137	Pstat Section
PSTATSERIALNO	LABEL	16137	Pstat Serial Number
CTRLMODE	IQUANT	1	Control Mode
IESTAB	IQUANT	0	I/E Stability
CASPEED	IQUANT	1	Control Amp Speed
CONVENTION	IQUANT	1	Current Convention
ICHRANGE	IQUANT	2	Ich Range
ICHRANGEMODE	TOGGLE	F	Ich Auto Range
ICHOFFSETENABLE	TOGGLE	T	Ich Offset Enable
ICHOFFSET	QUANT	0	Ich Offset (V)
ICHFILTER	IQUANT	3	Ich Filter
VCHRANGE	IQUANT	2	Vch Range
VCHRANGEMODE	TOGGLE	F	Vch Auto Range
VCHOFFSETENABLE	TOGGLE	T	Vch Offset Enable
VCHOFFSET	QUANT	0	Vch Offset (V)
VCHFILTER	IQUANT	3	Vch Filter
ACHRANGE	IQUANT	2	Ach Range
ACHOFFSETENABLE	TOGGLE	F	Ach Offset Enable
ACHOFFSET	QUANT	0	Ach Offset (V)
ACHFILTER	IQUANT	3	Ach Filter
IERANGELOWERLIMIT	IQUANT	2	I/E Range Lower Limit
IERANGEMODE	TOGGLE	F	I/E AutoRange
IERANGE	IQUANT	11	I/E Range
POSFEEDENABLE	TOGGLE	F	Positive Feedback IR Comp
POSFEEDRESISTANCE	QUANT	0	Positive Feedback Resistance (ohm)
ACHSELECT	IQUANT	0	Ach Select
CABLEID	IQUANT	13	Cable ID
DCCALDATE	LABEL	7/31/2020	DC Calibration Date
ACCALDATE	LABEL	7/31/2020	AC Calibration Date
THERMOSELECT	IQUANT	1	Thermo Select
FRAMEWORKVERSION	QUANT	6.33	Framework Version
INSTRUMENTVERSION	LABEL	3.50	Instrument Version
COMPLIANCEVOLTAGE	IQUANT	0	Compliance Voltage
ZCURVE	TABLE
	Pt	Time	Freq	Zreal	Zimag	Zsig	Zmod	Zphz	Idc	Vdc	IERange
	#	s	Hz	ohm	ohm	V	ohm	°	A	V	#
	0	14	300046.9	1837.712	-1255.481	1	2225.627	-34.33995	2.458739E-006	0.0014606	9
	1	30	238359.4	2051.763	-1192.59	1	2373.184	-30.16735	5.120347E-005	3.512629E-005	9
	2	42	189328.1	2202.443	-1101.476	1	2462.52	-26.57034	4.967176E-005	6.234678E-005	9
	3	50	150421.9	2336.168	-1090.69	1	2578.233	-25.02652	2.504364E-005	-0.000355	9
	4	58	119484.4	2533.294	-993.729	1	2721.227	-21.41845	2.631383E-005	-0.0017644	9
	5	69	94921.88	2635.43	-953.631	1	2802.66	-19.89267	1.858451E-005	-0.0009186	9
	6	77	75421.88	2751.827	-883.6575	1	2890.225	-17.80269	6.451582E-006	-0.0065943	8
	7	84	59859.37	2853.918	-899.6377	1	2992.356	-17.49636	-1.994345E-006	-0.0041696	8
	8	92	47578.12	2948.549	-972.792	1	3104.877	-18.25888	1.881909E-005	-0.0009305	9
	9	98	37828.12	3054.755	-1052.848	1	3231.101	-19.01696	-1.528365E-005	6.296702E-005	9
	10	106	30046.88	3134.857	-1094.44	1	3320.411	-19.24509	1.645483E-005	4.437874E-005	8
	11	113	23859.38	3245.799	-1234.002	1	3472.459	-20.81601	-2.134589E-006	-0.0041598	8
	12	119	18984.38	3360.088	-1374.602	1	3630.389	-22.24933	2.158246E-005	-0.0028733	8
	13	124	15046.87	3482.567	-1558.452	1	3815.369	-24.10856	2.154227E-005	-0.0028378	8
	14	129	11953.13	3665.945	-1812.958	1	4089.74	-26.31426	8.517729E-006	0.0034133	8
	15	135	9515.62	3852.358	-2074.657	1	4375.485	-28.30433	-8.870385E-007	0.0066269	8
	16	140	7546.875	4120.43	-2356.917	1	4746.894	-29.76988	2.045238E-006	-0.0171713	7
	17	143	5928.309	4374.023	-2736.453	1	5159.482	-32.0307	4.810397E-006	-0.0208495	7
	18	146	4733.456	4675.616	-3235.464	1	5685.913	-34.68272	6.097048E-006	-0.0172473	7
	19	150	3796.875	5013.134	-3721.32	1	6243.375	-36.58701	-4.815514E-006	0.0208215	7
	20	153	2987.132	5403.881	-4329.303	1	6924.218	-38.69986	3.040174E-006	0.0031906	7
	21	157	2390.625	5865.758	-4985.777	1	7698.382	-40.36387	-4.757321E-006	0.0208451	7
	22	160	1884.191	6426.747	-5829.483	1	8676.748	-42.2101	-6.633439E-007	0.0156499	7
	23	165	1516.544	7032.974	-6679.478	1	9699.39	-43.52329	1.431525E-007	-0.0130746	7
	24	169	1193.986	7774.794	-7767.227	1	10989.87	-44.9721	1.124022E-007	-0.0130169	7
	25	173	946.5144	8677.874	-8918.532	1	12443.7	-45.78356	-6.953182E-007	0.0159386	7
	26	176	751.7689	9699.66	-10342.15	1	14178.98	-46.83612	6.04248E-006	-0.0171877	7
	27	179	597.4265	10802.44	-12147.42	1	16255.85	-48.35399	-2.432121E-006	0.0195219	7
	28	181	477.4305	12143.71	-13633.65	1	18257.76	-48.30804	-7.201507E-008	0.0006506	7
	29	183	376.6741	13733.98	-15714.57	1	20870.31	-48.84768	-7.055757E-008	0.0005924	7
	30	186	298.2954	15551.47	-18067.14	1	23838.41	-49.27945	-7.291008E-008	0.0006644	7
	31	188	237.7717	17590.03	-20666.04	1	27138.43	-49.59703	-7.228324E-008	0.0006653	7
	32	191	189.0121	19983.15	-23652.22	1	30963.75	-49.8064	-6.655802E-008	0.000595	7
	33	193	150.2404	22745.99	-27052.7	1	35344.43	-49.94278	-6.688905E-008	0.0006047	7
	34	195	119.1737	25974.72	-30939.83	1	40397.51	-49.98575	-6.653026E-008	0.0005884	7
	35	198	95.0169	29737.52	-35134.16	1	46029.66	-49.75545	-2.437566E-008	0.000708	6
	36	200	75.60484	34018.07	-39984.7	1	52497.67	-49.60962	-2.445099E-008	0.0006272	6
	37	203	54.50582	41185.68	-47835.39	1	63122.77	-49.27195	-2.389396E-008	0.0006247	6
	38	205	45.95588	45700.4	-52643.55	1	69712.77	-49.03842	-2.385183E-008	0.0006908	6
	39	208	37.20238	51807.8	-58935.05	1	78469.02	-48.6824	-2.403705E-008	0.0007006	6
	40	210	30.04808	58949.75	-65965.65	1	88467.73	-48.21465	-2.399092E-008	0.0006322	6
	41	213	23.91582	67497.34	-74133.42	1	100257.9	-47.68262	-2.354698E-008	0.0007102	6
	42	215	18.60119	78527.45	-84190.09	1	115128.3	-46.99311	-2.295152E-008	0.0006365	6
	43	218	15.02404	89488.16	-93268.22	1	129255.9	-46.18491	-2.362632E-008	0.0006699	6
	44	220	12.01923	102362.8	-103515.6	1	145580.3	-45.32084	-2.367565E-008	0.0006351	6
	45	223	9.450605	118235.6	-115141.3	1	165036.9	-44.24037	-2.366647E-008	0.0006602	6
	46	225	7.512019	135440.5	-126827.4	1	185551.5	-43.11903	-2.41161E-008	0.0006198	6
	47	228	5.978954	154864.7	-138847.3	1	207994.4	-41.8785	-2.347102E-008	0.0006344	6
	48	232	4.734848	177030.6	-151213.9	1	232820.7	-40.5029	-2.44013E-008	0.0006852	6
	49	236	3.75601	201382.7	-163012.3	1	259090.7	-38.98897	-2.294013E-008	0.0006511	6
	50	241	3.004808	227475.2	-174450.7	1	286667.1	-37.48459	-2.291097E-008	0.0006083	6
	51	248	2.372217	258019.9	-185448.2	1	317750.4	-35.70617	-2.37648E-008	0.0005938	6
	52	252	1.878005	289414.9	-195145.5	1	349059.8	-33.99084	-2.272483E-008	0.0006758	6
	53	257	1.512097	320531.3	-203001.5	1	379407.4	-32.34723	-2.23869E-008	0.0006263	6
	54	262	1.201923	355312.7	-208901.5	1	412173.4	-30.45284	-2.326657E-008	0.0007045	6
	55	268	0.956633	391214	-214049.2	1	445943.3	-28.68487	-1.947382E-008	3.554226E-005	5
