EXPLAIN
TAG	EISPOT
TITLE	LABEL	Potentiostatic EIS	Test Identifier
DATE	LABEL	2/27/2021	Date
TIME	LABEL	11:01:49	Time
NOTES	NOTES	1	Notes...
	
PSTAT	PSTAT	REF3000-16137	Potentiostat
VDC	POTEN	0.00000E+000	T	DC Voltage (V)
FREQINIT	QUANT	3.00000E+005	Initial Freq. (Hz)
FREQFINAL	QUANT	1.00000E+000	Final Freq. (Hz)
PTSPERDEC	QUANT	1.00000E+001	Points/decade
VAC	QUANT	5.00000E+001	AC Voltage (mV rms)
AREA	QUANT	1.00000E+000	Sample Area (cm^2)
SPEED	SELECTOR	2	Optimize for:
ZGUESS	QUANT	1.00000E+003	Estimated Z (ohms)
EOC	QUANT	0	Open Circuit (V)
SEQUENCER	TOGGLE	TRUE	Run as Sequence
PSTATMODEL	IQUANT	5	Pstat Model
PSTATSECTION	LABEL	REF3000-16137	Pstat Section
PSTATSERIALNO	LABEL	16137	Pstat Serial Number
CTRLMODE	IQUANT	1	Control Mode
IESTAB	IQUANT	0	I/E Stability
CASPEED	IQUANT	1	Control Amp Speed
CONVENTION	IQUANT	1	Current Convention
ICHRANGE	IQUANT	2	Ich Range
ICHRANGEMODE	TOGGLE	F	Ich Auto Range
ICHOFFSETENABLE	TOGGLE	T	Ich Offset Enable
ICHOFFSET	QUANT	0	Ich Offset (V)
ICHFILTER	IQUANT	3	Ich Filter
VCHRANGE	IQUANT	2	Vch Range
VCHRANGEMODE	TOGGLE	F	Vch Auto Range
VCHOFFSETENABLE	TOGGLE	T	Vch Offset Enable
VCHOFFSET	QUANT	0	Vch Offset (V)
VCHFILTER	IQUANT	3	Vch Filter
ACHRANGE	IQUANT	2	Ach Range
ACHOFFSETENABLE	TOGGLE	F	Ach Offset Enable
ACHOFFSET	QUANT	0	Ach Offset (V)
ACHFILTER	IQUANT	3	Ach Filter
IERANGELOWERLIMIT	IQUANT	2	I/E Range Lower Limit
IERANGEMODE	TOGGLE	F	I/E AutoRange
IERANGE	IQUANT	11	I/E Range
POSFEEDENABLE	TOGGLE	F	Positive Feedback IR Comp
POSFEEDRESISTANCE	QUANT	0	Positive Feedback Resistance (ohm)
ACHSELECT	IQUANT	0	Ach Select
CABLEID	IQUANT	13	Cable ID
DCCALDATE	LABEL	7/31/2020	DC Calibration Date
ACCALDATE	LABEL	7/31/2020	AC Calibration Date
THERMOSELECT	IQUANT	1	Thermo Select
FRAMEWORKVERSION	QUANT	6.33	Framework Version
INSTRUMENTVERSION	LABEL	3.50	Instrument Version
COMPLIANCEVOLTAGE	IQUANT	0	Compliance Voltage
ZCURVE	TABLE
	Pt	Time	Freq	Zreal	Zimag	Zsig	Zmod	Zphz	Idc	Vdc	IERange
	#	s	Hz	ohm	ohm	V	ohm	°	A	V	#
	0	22	300046.9	1656.886	-963.835	1	1916.833	-30.1872	-2.941136E-005	-0.001144	9
	1	49	238359.4	1802.254	-902.3464	1	2015.526	-26.59606	2.025062E-005	-0.0009722	9
	2	62	189328.1	1870.566	-826.6334	1	2045.077	-23.84141	1.498462E-006	0.0014978	9
	3	69	150421.9	1995.953	-836.8418	1	2164.286	-22.74681	-2.839969E-005	-0.0009183	9
	4	75	119484.4	2125.658	-685.42	1	2233.433	-17.87195	-6.812947E-005	0.0322111	8
	5	81	94921.88	2215.349	-676.6222	1	2316.374	-16.98396	-9.518851E-006	-0.0012435	8
	6	88	75421.88	2283.136	-703.8109	1	2389.155	-17.1327	-2.289685E-005	0.0069351	8
	7	94	59859.37	2346.635	-732.5213	1	2458.309	-17.33618	-1.603669E-005	0.009699	8
	8	102	47578.12	2417.516	-781.8953	1	2540.816	-17.92272	-2.046013E-005	0.0096092	8
	9	109	37828.12	2490.004	-885.9641	1	2642.925	-19.58598	-1.541874E-007	-0.000492	9
	10	116	30046.88	2577.833	-975.762	1	2756.326	-20.73266	-9.304593E-006	-0.0001648	9
	11	122	23859.38	2668.547	-1073.064	1	2876.215	-21.90583	5.690172E-006	-0.0062547	8
	12	128	18984.38	2773.713	-1218.737	1	3029.654	-23.72012	-1.515203E-005	0.0012162	8
	13	133	15046.87	2900.839	-1413.675	1	3226.971	-25.98151	-9.365178E-006	0.0087096	8
	14	138	11953.13	3047.663	-1616.259	1	3449.716	-27.93824	-1.523259E-005	0.0012389	8
	15	144	9515.62	3212.606	-1873.496	1	3718.982	-30.24946	2.136234E-005	-0.002835	8
	16	149	7546.875	3415.087	-2187.518	1	4055.62	-32.64141	-9.179712E-006	-0.0001575	9
	17	154	5928.309	3689.614	-2537.934	1	4478.209	-34.52248	-2.076151E-005	0.0097097	8
	18	160	4733.456	3875.583	-2952.458	1	4872.079	-37.30052	-2.076516E-005	0.0096969	8
	19	165	3796.875	4230.364	-3386.407	1	5418.832	-38.67728	-2.237851E-005	0.0084522	8
	20	170	2987.132	4654.835	-3878.167	1	6058.686	-39.7993	2.343256E-005	-0.0047914	8
	21	176	2390.625	5059.791	-4567.259	1	6816.255	-42.07123	-6.919299E-007	0.0065169	8
	22	181	1884.191	5604.445	-5198.67	1	7644.343	-42.84893	-3.637225E-006	0.0199165	7
	23	186	1516.544	6149.383	-5980.764	1	8578.138	-44.20359	-3.646059E-006	0.0199091	7
	24	190	1193.986	6854.063	-6949.803	1	9761.04	-45.39738	-4.444791E-006	0.005743	7
	25	194	946.5144	7696.887	-7974.262	1	11082.91	-46.01402	-5.589073E-006	0.016283	7
	26	197	751.7689	8527.074	-9236.776	1	12570.96	-47.28787	5.281477E-006	-0.0102496	7
	27	200	597.4265	9418.087	-10375.69	1	14012.69	-47.76976	1.075124E-006	0.0101981	7
	28	202	477.4305	10674.88	-12011.8	1	16069.73	-48.37251	-7.422003E-008	0.0006639	7
	29	205	376.6741	12078.93	-13830.49	1	18362.54	-48.86749	-7.195084E-008	0.000665	7
	30	207	298.2954	13685.33	-15869.1	1	20955.11	-49.2259	-6.674319E-008	0.0006205	7
	31	209	237.7717	15492.01	-18147.6	1	23860.79	-49.51371	-7.076299E-008	0.0006092	7
	32	212	189.0121	17612.57	-20753.1	1	27219.37	-49.67968	-7.163689E-008	0.0006734	7
	33	214	150.2404	20074.99	-23701.05	1	31060.35	-49.73511	-7.471857E-008	0.0006446	7
	34	217	119.1737	22943.98	-27031.02	1	35455.64	-49.67534	-6.749281E-008	0.0005878	7
	35	219	95.0169	26218.74	-30744.52	1	40406.04	-49.54266	-6.481334E-008	0.0006087	7
	36	221	75.60484	30112.75	-34831.61	1	46043.66	-49.1558	-2.654761E-008	0.0007015	6
	37	224	54.50582	36635.82	-41474.63	1	55338.3	-48.54485	-2.619136E-008	0.0006909	6
	38	226	45.95588	40501.3	-45467.7	1	60890.61	-48.30628	-2.624331E-008	0.0006457	6
	39	229	37.20238	45989.24	-50680.98	1	68436.63	-47.77858	-2.632811E-008	0.0006561	6
	40	231	30.04808	52270.46	-56498.07	1	76969.05	-47.22585	-2.62812E-008	0.0006624	6
	41	234	23.91582	59971.27	-63140.56	1	87082.05	-46.47465	-2.61279E-008	0.0007054	6
	42	236	18.60119	69699.65	-71087.98	1	99556.7	-45.56499	-2.482898E-008	0.0006995	6
	43	239	15.02404	78984.3	-78429.96	1	111309.4	-44.79823	-2.498594E-008	0.0007148	6
	44	241	12.01923	90077.73	-86422.32	1	124831.1	-43.81355	-2.606717E-008	0.0006645	6
	45	244	9.450605	103583.9	-95461.1	1	140863.3	-42.66312	-2.626044E-008	0.000711	6
	46	246	7.512019	118168	-104371.9	1	157661.6	-41.45257	-2.537696E-008	0.0006826	6
	47	249	5.978954	134351.7	-113049.8	1	175586.6	-40.07882	-2.58556E-008	0.0006385	6
	48	254	4.734848	152800.7	-121949.2	1	195498.5	-38.59312	-2.491226E-008	0.0006471	6
	49	257	3.75601	172440.5	-130181.3	1	216062.3	-37.0504	-2.603026E-008	0.0007176	6
	50	262	3.004808	193363.6	-137501.3	1	237267.9	-35.41672	-2.682762E-008	0.0007086	6
	51	269	2.372217	217678.7	-144757	1	261416.6	-33.62402	-2.510608E-008	0.0007456	6
	52	273	1.878005	241797.9	-150057.2	1	284575.8	-31.8233	-2.613854E-008	0.0006548	6
	53	278	1.512097	265318.9	-154288.3	1	306918.6	-30.17887	-2.64269E-008	0.0007612	6
	54	288	1.201923	292039.6	-159139.4	1	332584.6	-28.58703	-2.612482E-008	0.0006458	6
	55	301	0.956633	318956.8	-163165.5	1	358268.7	-27.09246	-2.83301E-008	3.321967E-005	6
