EXPLAIN
TAG	EISPOT
TITLE	LABEL	Potentiostatic EIS	Test Identifier
DATE	LABEL	8/29/2020	Date
TIME	LABEL	18:02:43	Time
NOTES	NOTES	1	Notes...
	
PSTAT	PSTAT	REF3000-16137	Potentiostat
VDC	POTEN	0.00000E+000	T	DC Voltage (V)
FREQINIT	QUANT	3.00000E+005	Initial Freq. (Hz)
FREQFINAL	QUANT	1.00000E+000	Final Freq. (Hz)
PTSPERDEC	QUANT	1.00000E+001	Points/decade
VAC	QUANT	5.00000E+001	AC Voltage (mV rms)
AREA	QUANT	1.00000E+000	Sample Area (cm^2)
SPEED	SELECTOR	2	Optimize for:
ZGUESS	QUANT	1.00000E+003	Estimated Z (ohms)
EOC	QUANT	0	Open Circuit (V)
SEQUENCER	TOGGLE	TRUE	Run as Sequence
PSTATMODEL	IQUANT	5	Pstat Model
PSTATSECTION	LABEL	REF3000-16137	Pstat Section
PSTATSERIALNO	LABEL	16137	Pstat Serial Number
CTRLMODE	IQUANT	1	Control Mode
IESTAB	IQUANT	0	I/E Stability
CASPEED	IQUANT	1	Control Amp Speed
CONVENTION	IQUANT	1	Current Convention
ICHRANGE	IQUANT	2	Ich Range
ICHRANGEMODE	TOGGLE	F	Ich Auto Range
ICHOFFSETENABLE	TOGGLE	T	Ich Offset Enable
ICHOFFSET	QUANT	0	Ich Offset (V)
ICHFILTER	IQUANT	3	Ich Filter
VCHRANGE	IQUANT	2	Vch Range
VCHRANGEMODE	TOGGLE	F	Vch Auto Range
VCHOFFSETENABLE	TOGGLE	T	Vch Offset Enable
VCHOFFSET	QUANT	0	Vch Offset (V)
VCHFILTER	IQUANT	3	Vch Filter
ACHRANGE	IQUANT	2	Ach Range
ACHOFFSETENABLE	TOGGLE	F	Ach Offset Enable
ACHOFFSET	QUANT	0	Ach Offset (V)
ACHFILTER	IQUANT	3	Ach Filter
IERANGELOWERLIMIT	IQUANT	2	I/E Range Lower Limit
IERANGEMODE	TOGGLE	F	I/E AutoRange
IERANGE	IQUANT	11	I/E Range
POSFEEDENABLE	TOGGLE	F	Positive Feedback IR Comp
POSFEEDRESISTANCE	QUANT	0	Positive Feedback Resistance (ohm)
ACHSELECT	IQUANT	0	Ach Select
CABLEID	IQUANT	13	Cable ID
DCCALDATE	LABEL	7/31/2020	DC Calibration Date
ACCALDATE	LABEL	7/31/2020	AC Calibration Date
THERMOSELECT	IQUANT	1	Thermo Select
FRAMEWORKVERSION	QUANT	6.33	Framework Version
INSTRUMENTVERSION	LABEL	3.50	Instrument Version
COMPLIANCEVOLTAGE	IQUANT	0	Compliance Voltage
ZCURVE	TABLE
	Pt	Time	Freq	Zreal	Zimag	Zsig	Zmod	Zphz	Idc	Vdc	IERange
	#	s	Hz	ohm	ohm	V	ohm	°	A	V	#
	0	7	300046.9	43.53414	-1.067548	1	43.54723	-1.40473	1.111199E-005	-0.0001057	9
	1	10	238359.4	43.82042	-1.994398	1	43.86578	-2.605903	-2.775134E-005	-0.0004937	9
	2	13	189328.1	44.09845	-2.947731	1	44.19687	-3.824208	3.665373E-006	0.0003071	9
	3	16	150421.9	44.41254	-4.018839	1	44.594	-5.170546	-5.769919E-005	0.0015593	9
	4	18	119484.4	44.91394	-5.017989	1	45.19339	-6.374907	2.67543E-005	5.283401E-005	9
	5	21	94921.88	45.52975	-6.020996	1	45.92614	-7.533261	-7.956806E-006	-3.388538E-006	9
	6	23	75421.88	46.17174	-7.290621	1	46.7438	-8.973046	-6.875807E-006	1.948964E-005	9
	7	26	59859.37	46.95774	-8.710854	1	47.75885	-10.50914	1.645644E-005	-0.0005249	9
	8	28	47578.12	47.86292	-10.27603	1	48.95361	-12.1173	9.129664E-006	-0.0004396	9
	9	31	37828.12	48.89636	-12.02236	1	50.35266	-13.81355	3.519536E-006	0.0002507	9
	10	34	30046.88	50.04858	-13.94721	1	51.95561	-15.57174	1.385663E-005	-0.0001516	9
	11	36	23859.38	51.29483	-16.1476	1	53.77644	-17.47399	-1.503441E-005	0.0003982	9
	12	38	18984.38	52.56388	-18.61835	1	55.76383	-19.50436	-1.123065E-005	0.0006495	9
	13	41	15046.87	53.85188	-21.63601	1	58.03569	-21.88873	1.029424E-005	2.376328E-005	9
	14	43	11953.13	55.04129	-25.26246	1	60.56184	-24.65384	-1.742827E-006	0.0005009	9
	15	45	9515.62	56.1678	-29.71627	1	63.54431	-27.88163	-9.771079E-006	0.0001089	9
	16	48	7546.875	57.13101	-35.48279	1	67.25311	-31.84349	4.862962E-006	0.0003066	9
	17	50	5928.309	58.14765	-43.19254	1	72.43442	-36.60526	-1.228806E-005	0.0002279	9
	18	52	4733.456	58.97738	-52.3864	1	78.88387	-41.61295	1.662724E-005	-0.0001506	9
	19	55	3796.875	60.00035	-63.58527	1	87.42499	-46.66155	-7.264409E-006	8.16846E-005	9
	20	57	2987.132	60.99493	-79.28095	1	100.0293	-52.42706	-1.504112E-005	0.0004425	9
	21	59	2390.625	62.24443	-97.474	1	115.6527	-57.43872	2.016852E-005	-0.000422	9
	22	62	1884.191	63.95211	-122.0005	1	137.7462	-62.33668	-2.98835E-006	-9.335204E-005	9
	23	64	1516.544	65.49672	-149.9261	1	163.6083	-66.40141	1.761521E-005	-0.0004938	9
	24	66	1193.986	68.18771	-188.2376	1	200.2073	-70.08745	3.341725E-006	-0.0002743	9
	25	69	946.5144	71.33251	-235.1318	1	245.7139	-73.12365	1.935054E-005	-0.0003879	9
	26	71	751.7689	75.06039	-293.037	1	302.4975	-75.63279	8.866082E-006	-0.0004079	9
	27	73	597.4265	79.65339	-365.5745	1	374.1516	-77.70819	1.961092E-005	-0.0003769	9
	28	76	477.4305	87.0399	-453.694	1	461.9678	-79.13992	1.456757E-006	7.170923E-005	9
	29	78	376.6741	96.0479	-567.1589	1	575.2342	-80.3882	4.09963E-007	0.0006474	8
	30	80	298.2954	108.2537	-709.274	1	717.4877	-81.32214	4.11335E-007	0.0006534	8
	31	83	237.7717	124.0375	-881.1141	1	889.8019	-81.98693	4.181791E-007	0.0006453	8
	32	85	189.0121	145.3051	-1097	1	1106.582	-82.45471	4.153684E-007	0.0006472	8
	33	87	150.2404	173.7919	-1365.196	1	1376.214	-82.74516	3.968673E-007	0.0006579	8
	34	90	119.1737	212.4531	-1701.27	1	1714.484	-82.88181	4.107296E-007	0.0006572	8
	35	92	95.0169	263.879	-2108.453	1	2124.902	-82.86636	4.056584E-007	0.0006525	8
	36	95	75.60484	333.8585	-2616.249	1	2637.465	-82.72781	4.120786E-007	0.0006529	8
	37	97	54.50582	481.2182	-3558.632	1	3591.021	-82.29886	4.228703E-007	0.0006519	8
	38	100	45.95588	590.7294	-4182.966	1	4224.472	-81.96169	4.485056E-008	0.0006264	7
	39	102	37.20238	766.1497	-5090.227	1	5147.562	-81.44044	3.509398E-008	0.0006747	7
	40	104	30.04808	1006.383	-6193.355	1	6274.588	-80.77045	3.468921E-008	0.0006221	7
	41	107	23.91582	1363.486	-7630.983	1	7751.838	-79.86943	2.95302E-008	0.000617	7
	42	109	18.60119	1914.088	-9575.15	1	9764.59	-78.69548	4.564026E-008	0.0006203	7
	43	112	15.02404	2569.413	-11572.77	1	11854.58	-77.48211	4.236811E-008	0.0006363	7
	44	114	12.01923	3508.003	-14037.3	1	14469	-75.96883	3.38808E-008	0.0006229	7
	45	116	9.450605	4920.083	-17196.65	1	17886.64	-74.03381	3.3803E-008	0.0006434	7
	46	119	7.512019	6767.977	-20682.16	1	21761.37	-71.87997	3.608464E-008	0.0006284	7
	47	122	5.978954	9251.366	-24613.15	1	26294.39	-69.40022	3.382126E-008	0.0006395	7
	48	125	4.734848	12663.26	-29063.15	1	31702.13	-66.4565	4.233394E-008	0.0006402	7
	49	128	3.75601	17034.71	-33672.55	1	37736.21	-63.16547	3.363901E-008	0.0006089	7
	50	131	3.004808	22362.78	-38104.89	1	44182.3	-59.59243	-1.092814E-008	0.0006771	6
	51	135	2.372217	29220.3	-42386.62	1	51482.54	-55.41857	-1.352275E-008	0.0007433	6
	52	139	1.878005	37279.8	-45739.49	1	59007.5	-50.81837	-1.688282E-008	0.0006669	6
	53	144	1.512097	45191.74	-47840.2	1	65810.16	-46.63067	-1.566943E-008	0.0005923	6
	54	149	1.201923	53985.79	-47949.5	1	72205.41	-41.61108	-1.71157E-008	0.0006676	6
	55	162	0.956633	62359.31	-47080.38	1	78136.07	-37.05228	-2.475683E-008	3.181528E-005	6
