EXPLAIN
TAG	EISPOT
TITLE	LABEL	Potentiostatic EIS	Test Identifier
DATE	LABEL	8/29/2020	Date
TIME	LABEL	15:44:57	Time
NOTES	NOTES	1	Notes...
	
PSTAT	PSTAT	REF3000-16137	Potentiostat
VDC	POTEN	0.00000E+000	T	DC Voltage (V)
FREQINIT	QUANT	3.00000E+005	Initial Freq. (Hz)
FREQFINAL	QUANT	1.00000E+000	Final Freq. (Hz)
PTSPERDEC	QUANT	1.00000E+001	Points/decade
VAC	QUANT	5.00000E+001	AC Voltage (mV rms)
AREA	QUANT	1.00000E+000	Sample Area (cm^2)
SPEED	SELECTOR	2	Optimize for:
ZGUESS	QUANT	1.00000E+003	Estimated Z (ohms)
EOC	QUANT	0	Open Circuit (V)
SEQUENCER	TOGGLE	TRUE	Run as Sequence
PSTATMODEL	IQUANT	5	Pstat Model
PSTATSECTION	LABEL	REF3000-16137	Pstat Section
PSTATSERIALNO	LABEL	16137	Pstat Serial Number
CTRLMODE	IQUANT	1	Control Mode
IESTAB	IQUANT	0	I/E Stability
CASPEED	IQUANT	1	Control Amp Speed
CONVENTION	IQUANT	1	Current Convention
ICHRANGE	IQUANT	2	Ich Range
ICHRANGEMODE	TOGGLE	F	Ich Auto Range
ICHOFFSETENABLE	TOGGLE	T	Ich Offset Enable
ICHOFFSET	QUANT	0	Ich Offset (V)
ICHFILTER	IQUANT	3	Ich Filter
VCHRANGE	IQUANT	2	Vch Range
VCHRANGEMODE	TOGGLE	F	Vch Auto Range
VCHOFFSETENABLE	TOGGLE	T	Vch Offset Enable
VCHOFFSET	QUANT	0	Vch Offset (V)
VCHFILTER	IQUANT	3	Vch Filter
ACHRANGE	IQUANT	2	Ach Range
ACHOFFSETENABLE	TOGGLE	F	Ach Offset Enable
ACHOFFSET	QUANT	0	Ach Offset (V)
ACHFILTER	IQUANT	3	Ach Filter
IERANGELOWERLIMIT	IQUANT	2	I/E Range Lower Limit
IERANGEMODE	TOGGLE	F	I/E AutoRange
IERANGE	IQUANT	11	I/E Range
POSFEEDENABLE	TOGGLE	F	Positive Feedback IR Comp
POSFEEDRESISTANCE	QUANT	0	Positive Feedback Resistance (ohm)
ACHSELECT	IQUANT	0	Ach Select
CABLEID	IQUANT	13	Cable ID
DCCALDATE	LABEL	7/31/2020	DC Calibration Date
ACCALDATE	LABEL	7/31/2020	AC Calibration Date
THERMOSELECT	IQUANT	1	Thermo Select
FRAMEWORKVERSION	QUANT	6.33	Framework Version
INSTRUMENTVERSION	LABEL	3.50	Instrument Version
COMPLIANCEVOLTAGE	IQUANT	0	Compliance Voltage
ZCURVE	TABLE
	Pt	Time	Freq	Zreal	Zimag	Zsig	Zmod	Zphz	Idc	Vdc	IERange
	#	s	Hz	ohm	ohm	V	ohm	°	A	V	#
	0	7	300046.9	156.928	-4.99554	1	157.0075	-1.8233	3.296729E-005	0.0002971	9
	1	10	238359.4	157.7745	-5.79546	1	157.8809	-2.103675	1.290679E-005	-0.0010313	9
	2	13	189328.1	158.3047	-6.64388	1	158.4441	-2.403233	-7.165075E-006	0.001221	9
	3	16	150421.9	159.7345	-7.962982	1	159.9328	-2.853911	-5.370743E-005	0.0007912	9
	4	18	119484.4	159.9727	-9.022825	1	160.2269	-3.228193	-3.060313E-005	-0.0004425	9
	5	21	94921.88	161.0384	-10.66887	1	161.3914	-3.790332	2.274225E-005	-0.0008687	9
	6	24	75421.88	162.2464	-12.49502	1	162.7268	-4.403804	-2.257363E-005	0.0007671	9
	7	26	59859.37	163.599	-14.92315	1	164.2782	-5.211974	-2.12014E-006	-0.0003366	9
	8	29	47578.12	165.2409	-17.61588	1	166.1772	-6.085163	-1.272092E-005	0.0009586	9
	9	31	37828.12	167.3407	-20.90421	1	168.6413	-7.120509	2.380166E-005	-0.0007479	9
	10	34	30046.88	169.6779	-24.63327	1	171.4567	-8.260298	2.211441E-005	-0.0002508	9
	11	36	23859.38	172.5264	-28.88521	1	174.9277	-9.50459	-1.808384E-005	0.0003646	9
	12	38	18984.38	175.7823	-33.5138	1	178.9486	-10.79419	-2.069824E-005	0.0005004	9
	13	41	15046.87	179.5118	-38.83067	1	183.6636	-12.20575	-1.466115E-005	0.0009466	9
	14	43	11953.13	183.8812	-44.93835	1	189.2927	-13.73322	-1.469787E-005	0.000168	9
	15	45	9515.62	188.3046	-52.06835	1	195.3708	-15.45672	-2.210492E-005	0.0007074	9
	16	48	7546.875	193.3521	-59.53484	1	202.3102	-17.11407	-1.788214E-006	-0.0003296	9
	17	50	5928.309	198.9298	-69.56499	1	210.7424	-19.27454	-1.498495E-005	0.000164	9
	18	52	4733.456	204.426	-80.71559	1	219.784	-21.5461	-1.527204E-005	0.0001654	9
	19	55	3796.875	209.4559	-92.59541	1	229.0103	-23.84906	-2.270058E-005	0.0008867	9
	20	57	2987.132	214.3235	-110.1255	1	240.961	-27.19538	-7.474939E-006	0.0008207	9
	21	59	2390.625	219.3939	-130.0223	1	255.0284	-30.65281	1.088497E-005	0.0003274	9
	22	63	1884.191	224.0812	-157.3339	1	273.7998	-35.0738	2.575673E-005	-0.000463	9
	23	66	1516.544	227.5953	-187.8691	1	295.1176	-39.53805	2.387494E-005	-0.0002613	9
	24	69	1193.986	232.116	-231.5691	1	327.8751	-44.93243	-1.479569E-005	0.0009288	9
	25	71	946.5144	237.3609	-285.8058	1	371.5174	-50.29047	-1.717327E-006	-0.0003387	9
	26	73	751.7689	240.5493	-351.7252	1	426.1157	-55.63128	9.07206E-006	-0.002254	8
	27	76	597.4265	246.4421	-435.3586	1	500.2708	-60.48724	9.373734E-006	-0.0023266	8
	28	78	477.4305	253.0975	-539.43	1	595.8549	-64.8643	1.419724E-007	0.0006513	8
	29	80	376.6741	261.9018	-676.36	1	725.2968	-68.83248	1.580911E-007	0.0006581	8
	30	83	298.2954	272.8188	-845.9193	1	888.8248	-72.12489	1.666414E-007	0.0006436	8
	31	85	237.7717	286.4373	-1051.931	1	1090.231	-74.76785	1.321266E-007	0.0006503	8
	32	88	189.0121	304.1148	-1311.914	1	1346.701	-76.94878	1.56346E-007	0.0006505	8
	33	90	150.2404	327.0661	-1636.154	1	1668.524	-78.69562	1.560659E-007	0.0006527	8
	34	92	119.1737	357.1967	-2044.356	1	2075.327	-80.08913	1.484457E-007	0.0006597	8
	35	95	95.0169	395.3681	-2541.471	1	2572.04	-81.15756	1.391172E-007	0.0006511	8
	36	97	75.60484	445.3555	-3164.733	1	3195.916	-81.98969	1.58772E-007	0.0006596	8
	37	100	54.50582	543.4778	-4327.911	1	4361.901	-82.84254	1.634605E-007	0.0006477	8
	38	102	45.95588	612.6124	-5104.642	1	5141.27	-83.15662	1.472191E-008	0.0006246	7
	39	105	37.20238	717.0712	-6245.826	1	6286.854	-83.45066	1.324539E-008	0.0006254	7
	40	107	30.04808	849.2772	-7652.011	1	7698.996	-83.66681	1.119676E-008	0.0006166	7
	41	109	23.91582	1035.196	-9508	1	9564.19	-83.78632	8.232603E-009	0.0006201	7
	42	112	18.60119	1305.099	-12078.77	1	12149.07	-83.83317	1.434622E-008	0.0006096	7
	43	114	15.02404	1610.95	-14788.06	1	14875.55	-83.78295	1.293342E-008	0.000626	7
	44	116	12.01923	2040.247	-18270.83	1	18384.39	-83.62836	1.062863E-008	0.0006317	7
	45	119	9.450605	2656.795	-22932.31	1	23085.7	-83.39153	7.704357E-009	0.0006333	7
	46	121	7.512019	3454.601	-28447.66	1	28656.65	-83.07607	1.192098E-008	0.0006077	7
	47	124	5.978954	4536.146	-35224.07	1	35514.95	-82.66185	1.20632E-008	0.0006227	7
	48	127	4.734848	6050.551	-43780.77	1	44196.89	-82.1315	1.34175E-009	0.000713	6
	49	130	3.75601	8088.942	-54196.34	1	54796.66	-81.51112	1.176633E-009	0.0006977	6
	50	134	3.004808	10745.14	-66416.55	1	67280.14	-80.81008	2.293734E-009	0.0006458	6
	51	137	2.372217	14510.79	-82209.71	1	83480.53	-79.98986	9.484099E-010	0.0006075	6
	52	142	1.878005	19761.4	-101230.4	1	103141.2	-78.95408	5.477181E-010	0.0006837	6
	53	146	1.512097	26133.55	-122281.1	1	125042.6	-77.9364	9.675256E-010	0.000564	6
	54	152	1.201923	34860.61	-149049.8	1	153072.2	-76.83597	5.943313E-010	0.000696	6
	55	158	0.956633	46095.32	-180607.3	1	186396.9	-75.6824	1.501216E-012	2.867126E-005	6
