EXPLAIN
TAG	EISPOT
TITLE	LABEL	Potentiostatic EIS	Test Identifier
DATE	LABEL	8/29/2020	Date
TIME	LABEL	15:00:58	Time
NOTES	NOTES	1	Notes...
	
PSTAT	PSTAT	REF3000-16137	Potentiostat
VDC	POTEN	0.00000E+000	T	DC Voltage (V)
FREQINIT	QUANT	3.00000E+005	Initial Freq. (Hz)
FREQFINAL	QUANT	1.00000E+000	Final Freq. (Hz)
PTSPERDEC	QUANT	1.00000E+001	Points/decade
VAC	QUANT	5.00000E+001	AC Voltage (mV rms)
AREA	QUANT	1.00000E+000	Sample Area (cm^2)
SPEED	SELECTOR	2	Optimize for:
ZGUESS	QUANT	1.00000E+003	Estimated Z (ohms)
EOC	QUANT	0	Open Circuit (V)
SEQUENCER	TOGGLE	TRUE	Run as Sequence
PSTATMODEL	IQUANT	5	Pstat Model
PSTATSECTION	LABEL	REF3000-16137	Pstat Section
PSTATSERIALNO	LABEL	16137	Pstat Serial Number
CTRLMODE	IQUANT	1	Control Mode
IESTAB	IQUANT	0	I/E Stability
CASPEED	IQUANT	1	Control Amp Speed
CONVENTION	IQUANT	1	Current Convention
ICHRANGE	IQUANT	2	Ich Range
ICHRANGEMODE	TOGGLE	F	Ich Auto Range
ICHOFFSETENABLE	TOGGLE	T	Ich Offset Enable
ICHOFFSET	QUANT	0	Ich Offset (V)
ICHFILTER	IQUANT	3	Ich Filter
VCHRANGE	IQUANT	2	Vch Range
VCHRANGEMODE	TOGGLE	F	Vch Auto Range
VCHOFFSETENABLE	TOGGLE	T	Vch Offset Enable
VCHOFFSET	QUANT	0	Vch Offset (V)
VCHFILTER	IQUANT	3	Vch Filter
ACHRANGE	IQUANT	2	Ach Range
ACHOFFSETENABLE	TOGGLE	F	Ach Offset Enable
ACHOFFSET	QUANT	0	Ach Offset (V)
ACHFILTER	IQUANT	3	Ach Filter
IERANGELOWERLIMIT	IQUANT	2	I/E Range Lower Limit
IERANGEMODE	TOGGLE	F	I/E AutoRange
IERANGE	IQUANT	11	I/E Range
POSFEEDENABLE	TOGGLE	F	Positive Feedback IR Comp
POSFEEDRESISTANCE	QUANT	0	Positive Feedback Resistance (ohm)
ACHSELECT	IQUANT	0	Ach Select
CABLEID	IQUANT	13	Cable ID
DCCALDATE	LABEL	7/31/2020	DC Calibration Date
ACCALDATE	LABEL	7/31/2020	AC Calibration Date
THERMOSELECT	IQUANT	1	Thermo Select
FRAMEWORKVERSION	QUANT	6.33	Framework Version
INSTRUMENTVERSION	LABEL	3.50	Instrument Version
COMPLIANCEVOLTAGE	IQUANT	0	Compliance Voltage
ZCURVE	TABLE
	Pt	Time	Freq	Zreal	Zimag	Zsig	Zmod	Zphz	Idc	Vdc	IERange
	#	s	Hz	ohm	ohm	V	ohm	°	A	V	#
	0	7	300046.9	42.85935	-1.101836	1	42.87351	-1.472646	5.213099E-005	-0.0018799	9
	1	10	238359.4	43.1279	-1.961185	1	43.17246	-2.603657	9.934189E-008	-0.0013551	9
	2	13	189328.1	43.44558	-2.89352	1	43.54183	-3.81033	-2.753609E-005	-0.0002404	9
	3	16	150421.9	43.88991	-3.932178	1	44.0657	-5.119566	1.040238E-005	-0.0008142	9
	4	18	119484.4	44.33395	-4.987547	1	44.61361	-6.418758	1.64028E-005	-0.0004535	9
	5	21	94921.88	45.0242	-5.948901	1	45.41551	-7.526707	2.044498E-005	-0.0004845	9
	6	23	75421.88	45.7105	-7.242068	1	46.28064	-9.002734	1.08292E-005	-2.620087E-005	9
	7	26	59859.37	46.5046	-8.661768	1	47.30438	-10.55079	2.020708E-005	-0.0004044	9
	8	28	47578.12	47.44697	-10.21666	1	48.53447	-12.15184	-3.229684E-006	-0.000135	9
	9	31	37828.12	48.52789	-11.94959	1	49.97749	-13.83339	-2.692775E-006	0.0004137	9
	10	33	30046.88	49.70916	-13.84518	1	51.60125	-15.56378	-1.241952E-005	0.0002574	9
	11	36	23859.38	51.01125	-16.047	1	53.47573	-17.46241	2.843672E-006	0.0002785	9
	12	38	18984.38	52.33443	-18.52224	1	55.51546	-19.48993	1.852076E-005	-0.0002768	9
	13	41	15046.87	53.68566	-21.55026	1	57.84949	-21.8713	-1.545741E-005	0.0004185	9
	14	43	11953.13	54.88682	-25.08376	1	60.34698	-24.56082	-3.124045E-006	0.0005022	9
	15	45	9515.62	56.08256	-29.52798	1	63.38103	-27.76721	-1.667362E-006	0.0004995	9
	16	48	7546.875	57.20979	-35.19958	1	67.1712	-31.60283	1.453085E-005	-0.0005026	9
	17	50	5928.309	58.20086	-42.82082	1	72.25623	-36.34348	1.094224E-005	6.349722E-005	9
	18	52	4733.456	59.11599	-51.89592	1	78.66312	-41.27879	1.752538E-005	-0.0004899	9
	19	54	3796.875	60.069	-63.11982	1	87.13436	-46.41866	1.698526E-005	-0.0001297	9
	20	57	2987.132	61.1482	-78.48481	1	99.4936	-52.07753	-1.191848E-005	0.0006278	9
	21	59	2390.625	62.36515	-96.5652	1	114.9532	-57.14423	1.87841E-005	-0.000216	9
	22	61	1884.191	63.98313	-120.781	1	136.6817	-62.08782	-8.167539E-006	9.274656E-005	9
	23	64	1516.544	65.52312	-148.5595	1	162.3675	-66.19981	1.094044E-005	6.630931E-005	9
	24	66	1193.986	68.37933	-186.4633	1	198.6059	-69.86114	-8.443862E-006	9.064144E-005	9
	25	69	946.5144	70.66195	-233.3686	1	243.8319	-73.15415	-8.446345E-006	0.0005687	9
	26	71	751.7689	75.16612	-290.8677	1	300.423	-75.5106	1.950165E-005	-0.0003594	9
	27	73	597.4265	79.67449	-362.3081	1	370.9652	-77.5976	1.676515E-005	-0.0001502	9
	28	76	477.4305	86.62576	-449.9157	1	458.1792	-79.10176	1.408592E-006	0.0001313	9
	29	78	376.6741	95.2437	-562.6485	1	570.6529	-80.3922	4.192592E-007	0.0006524	8
	30	80	298.2954	106.8939	-703.9133	1	711.9833	-81.36523	4.147025E-007	0.0006583	8
	31	82	237.7717	121.8742	-874.7817	1	883.2306	-82.06863	4.274254E-007	0.0006557	8
	32	85	189.0121	141.9226	-1089.548	1	1098.753	-82.57854	4.163451E-007	0.0006541	8
	33	87	150.2404	168.653	-1356.441	1	1366.885	-82.91251	4.297356E-007	0.0006504	8
	34	90	119.1737	204.6424	-1691.022	1	1703.36	-83.09979	4.244005E-007	0.0006526	8
	35	92	95.0169	251.383	-2096.445	1	2111.463	-83.16235	4.280171E-007	0.0006469	8
	36	95	75.60484	314.521	-2602.761	1	2621.696	-83.10972	4.309286E-007	0.000652	8
	37	97	54.50582	444.9675	-3542.336	1	3570.173	-82.84034	4.298425E-007	0.0006431	8
	38	100	45.95588	540.3781	-4167.646	1	4202.532	-82.61223	4.945694E-008	0.0006349	7
	39	102	37.20238	689.6946	-5076.034	1	5122.675	-82.26245	4.653187E-008	0.0006407	7
	40	104	30.04808	893.4711	-6193.299	1	6257.416	-81.79091	4.13743E-008	0.0006206	7
	41	107	23.91582	1192.926	-7649.858	1	7742.312	-81.13663	3.641327E-008	0.0006398	7
	42	109	18.60119	1643.634	-9634.32	1	9773.52	-80.31844	4.580042E-008	0.0006315	7
	43	111	15.02404	2183.256	-11686.24	1	11888.43	-79.41783	5.150127E-008	0.0006276	7
	44	114	12.01923	2948.966	-14268.67	1	14570.22	-78.32285	4.210634E-008	0.0006269	7
	45	116	9.450605	4090.297	-17622.06	1	18090.54	-76.93234	4.524092E-008	0.000636	7
	46	119	7.512019	5623.163	-21455.96	1	22180.58	-75.31425	4.497626E-008	0.0006222	7
	47	121	5.978954	7688.97	-25926.27	1	27042.4	-73.48119	4.515874E-008	0.0006315	7
	48	124	4.734848	10575.36	-31242.29	1	32983.62	-71.2993	4.872499E-008	0.0006114	7
	49	128	3.75601	14396.53	-37215.96	1	39903.48	-68.85166	4.722527E-008	0.00063	7
	50	131	3.004808	19214.29	-43476.7	1	47533.28	-66.15723	5.621051E-009	0.0006387	6
	51	135	2.372217	25789.72	-50651.81	1	56839.39	-63.01676	1.069028E-009	0.0005972	6
	52	139	1.878005	33950.34	-57714.15	1	66959.31	-59.53383	1.792523E-009	0.0006795	6
	53	144	1.512097	43023.05	-63951.3	1	77076.27	-56.06942	2.060575E-009	0.0005911	6
	54	149	1.201923	54196.11	-70359.77	1	88812.82	-52.39397	-3.200279E-013	0.0006918	6
	55	155	0.956633	66806.16	-75398.13	1	100737	-48.4576	-5.612337E-009	3.546028E-005	6
