EXPLAIN
TAG	EISPOT
TITLE	LABEL	Potentiostatic EIS	Test Identifier
DATE	LABEL	8/29/2020	Date
TIME	LABEL	15:09:12	Time
NOTES	NOTES	1	Notes...
	
PSTAT	PSTAT	REF3000-16137	Potentiostat
VDC	POTEN	0.00000E+000	T	DC Voltage (V)
FREQINIT	QUANT	3.00000E+005	Initial Freq. (Hz)
FREQFINAL	QUANT	1.00000E+000	Final Freq. (Hz)
PTSPERDEC	QUANT	1.00000E+001	Points/decade
VAC	QUANT	5.00000E+001	AC Voltage (mV rms)
AREA	QUANT	1.00000E+000	Sample Area (cm^2)
SPEED	SELECTOR	2	Optimize for:
ZGUESS	QUANT	1.00000E+003	Estimated Z (ohms)
EOC	QUANT	0	Open Circuit (V)
SEQUENCER	TOGGLE	TRUE	Run as Sequence
PSTATMODEL	IQUANT	5	Pstat Model
PSTATSECTION	LABEL	REF3000-16137	Pstat Section
PSTATSERIALNO	LABEL	16137	Pstat Serial Number
CTRLMODE	IQUANT	1	Control Mode
IESTAB	IQUANT	0	I/E Stability
CASPEED	IQUANT	1	Control Amp Speed
CONVENTION	IQUANT	1	Current Convention
ICHRANGE	IQUANT	2	Ich Range
ICHRANGEMODE	TOGGLE	F	Ich Auto Range
ICHOFFSETENABLE	TOGGLE	T	Ich Offset Enable
ICHOFFSET	QUANT	0	Ich Offset (V)
ICHFILTER	IQUANT	3	Ich Filter
VCHRANGE	IQUANT	2	Vch Range
VCHRANGEMODE	TOGGLE	F	Vch Auto Range
VCHOFFSETENABLE	TOGGLE	T	Vch Offset Enable
VCHOFFSET	QUANT	0	Vch Offset (V)
VCHFILTER	IQUANT	3	Vch Filter
ACHRANGE	IQUANT	2	Ach Range
ACHOFFSETENABLE	TOGGLE	F	Ach Offset Enable
ACHOFFSET	QUANT	0	Ach Offset (V)
ACHFILTER	IQUANT	3	Ach Filter
IERANGELOWERLIMIT	IQUANT	2	I/E Range Lower Limit
IERANGEMODE	TOGGLE	F	I/E AutoRange
IERANGE	IQUANT	11	I/E Range
POSFEEDENABLE	TOGGLE	F	Positive Feedback IR Comp
POSFEEDRESISTANCE	QUANT	0	Positive Feedback Resistance (ohm)
ACHSELECT	IQUANT	0	Ach Select
CABLEID	IQUANT	13	Cable ID
DCCALDATE	LABEL	7/31/2020	DC Calibration Date
ACCALDATE	LABEL	7/31/2020	AC Calibration Date
THERMOSELECT	IQUANT	1	Thermo Select
FRAMEWORKVERSION	QUANT	6.33	Framework Version
INSTRUMENTVERSION	LABEL	3.50	Instrument Version
COMPLIANCEVOLTAGE	IQUANT	0	Compliance Voltage
ZCURVE	TABLE
	Pt	Time	Freq	Zreal	Zimag	Zsig	Zmod	Zphz	Idc	Vdc	IERange
	#	s	Hz	ohm	ohm	V	ohm	°	A	V	#
	0	7	300046.9	49.5752	-1.239201	1	49.59068	-1.43189	3.930603E-005	-0.0009681	9
	1	10	238359.4	49.96673	-2.13895	1	50.01249	-2.451192	2.750952E-005	-0.0003404	9
	2	13	189328.1	50.29141	-3.14669	1	50.38976	-3.580281	-6.35714E-005	0.0018969	9
	3	16	150421.9	50.6991	-4.184782	1	50.87152	-4.718585	7.983626E-006	-0.0010176	9
	4	19	119484.4	51.27813	-5.311329	1	51.55247	-5.913542	-5.176269E-006	0.0008267	9
	5	21	94921.88	51.99937	-6.352994	1	52.38602	-6.96556	-7.475275E-006	0.0005811	9
	6	24	75421.88	52.74725	-7.744955	1	53.31282	-8.353134	1.859358E-005	-0.0006059	9
	7	26	59859.37	53.61753	-9.309669	1	54.41975	-9.85013	4.283692E-006	-0.0003593	9
	8	29	47578.12	54.64475	-10.98438	1	55.73783	-11.3658	9.884069E-006	0.0001151	9
	9	31	37828.12	55.86172	-12.87067	1	57.32527	-12.97466	2.013524E-005	-0.0005119	9
	10	34	30046.88	57.20368	-14.97561	1	59.13146	-14.67048	1.740964E-005	-0.0001225	9
	11	36	23859.38	58.66722	-17.31256	1	61.16835	-16.44121	3.316919E-006	-0.0003019	9
	12	39	18984.38	60.2311	-19.99288	1	63.46259	-18.36287	2.372499E-007	0.0004375	9
	13	41	15046.87	61.84632	-23.1517	1	66.03763	-20.523	9.739283E-006	-0.0004482	9
	14	43	11953.13	63.44307	-26.92413	1	68.91975	-22.99552	-1.106191E-005	0.000202	9
	15	45	9515.62	64.85445	-31.46893	1	72.08601	-25.88377	1.861544E-005	-0.0005458	9
	16	48	7546.875	66.24187	-37.34694	1	76.04459	-29.41416	3.316214E-006	0.0003006	9
	17	50	5928.309	67.4924	-45.06308	1	81.15359	-33.7301	-1.623899E-005	0.0005617	9
	18	52	4733.456	68.66441	-54.30533	1	87.54353	-38.33978	-1.608596E-005	0.0005579	9
	19	55	3796.875	69.71239	-65.79402	1	95.8576	-43.34367	-1.658037E-005	0.0004521	9
	20	57	2987.132	71.05922	-81.46538	1	108.1019	-48.90302	-1.286888E-005	0.0002354	9
	21	59	2390.625	72.40836	-99.8468	1	123.3384	-54.05058	-2.930229E-006	-0.000118	9
	22	62	1884.191	74.08776	-125.036	1	145.3375	-59.35193	3.617908E-006	-0.000312	9
	23	64	1516.544	75.79244	-153.3405	1	171.0492	-63.69795	1.494191E-005	-0.0005284	9
	24	66	1193.986	78.26093	-192.633	1	207.9236	-67.88959	1.84743E-005	-0.0005251	9
	25	69	946.5144	80.56302	-240.897	1	254.0114	-71.50855	-8.789598E-006	6.142678E-005	9
	26	71	751.7689	85.21765	-300.1991	1	312.0602	-74.15232	9.52937E-006	-0.0004443	9
	27	73	597.4265	89.61514	-375.058	1	385.6155	-76.56188	-2.729339E-006	0.0005183	9
	28	76	477.4305	95.7698	-462.8341	1	472.6386	-78.30932	4.09338E-007	0.0006501	8
	29	78	376.6741	104.3313	-581.5056	1	590.7908	-79.82845	4.093033E-007	0.0006535	8
	30	80	298.2954	115.4735	-727.8678	1	736.9706	-80.98537	3.966572E-007	0.0006681	8
	31	83	237.7717	129.7484	-905.0607	1	914.3137	-81.84173	4.024888E-007	0.0006535	8
	32	85	189.0121	148.7981	-1127.994	1	1137.766	-82.48528	4.033579E-007	0.000659	8
	33	87	150.2404	174.0624	-1405.093	1	1415.833	-82.93819	3.576191E-007	0.0007114	8
	34	90	119.1737	207.722	-1753.054	1	1765.318	-83.24245	4.114913E-007	0.0006528	8
	35	92	95.0169	251.3938	-2175.411	1	2189.889	-83.40806	4.107306E-007	0.0006537	8
	36	95	75.60484	309.9819	-2702.765	1	2720.483	-83.4573	4.023529E-007	0.0006545	8
	37	97	54.50582	429.9183	-3685.843	1	3710.831	-83.34705	4.130626E-007	0.0006439	8
	38	100	45.95588	516.0215	-4339.234	1	4369.809	-83.21824	4.816392E-008	0.000629	7
	39	102	37.20238	651.9868	-5295.008	1	5334.998	-82.98037	4.426902E-008	0.0006343	7
	40	104	30.04808	835.1426	-6472.898	1	6526.552	-82.64823	4.008982E-008	0.0006217	7
	41	107	23.91582	1101.166	-8016.776	1	8092.049	-82.17892	3.593201E-008	0.0006227	7
	42	109	18.60119	1496.967	-10107.25	1	10217.5	-81.57526	4.638642E-008	0.0006232	7
	43	112	15.02404	1973.459	-12302.93	1	12460.2	-80.88706	4.985405E-008	0.0006228	7
	44	114	12.01923	2649.433	-15084.82	1	15315.72	-80.03842	4.064669E-008	0.0006236	7
	45	116	9.450605	3662.542	-18735.96	1	19090.58	-78.93919	4.571262E-008	0.0006372	7
	46	119	7.512019	4999.943	-22951.64	1	23489.94	-77.7103	4.571848E-008	0.0006403	7
	47	122	5.978954	6832.465	-27961.86	1	28784.51	-76.26887	4.281713E-008	0.0006244	7
	48	125	4.734848	9416.013	-34077	1	35353.97	-74.55369	4.708528E-008	0.0006283	7
	49	128	3.75601	12864.84	-41149.3	1	43113.45	-72.63876	4.495756E-008	0.0006253	7
	50	131	3.004808	17323.85	-48904.92	1	51882.63	-70.49406	5.448404E-009	0.0006843	6
	51	135	2.372217	23490.33	-58215.77	1	62776.36	-68.0257	1.844184E-009	0.000623	6
	52	139	1.878005	31597.28	-68218.95	1	75181.2	-65.14763	2.096182E-009	0.0006757	6
	53	144	1.512097	40947.32	-77960.04	1	88059.36	-62.28999	2.275061E-009	0.0005829	6
	54	149	1.201923	53007.9	-88892.99	1	103497.8	-59.19189	1.026038E-009	0.0006883	6
	55	156	0.956633	67479	-99472.7	1	120200.8	-55.84832	-3.117216E-009	2.660163E-005	6
