EXPLAIN
TAG	EISPOT
TITLE	LABEL	Potentiostatic EIS	Test Identifier
DATE	LABEL	8/29/2020	Date
TIME	LABEL	15:47:44	Time
NOTES	NOTES	1	Notes...
	
PSTAT	PSTAT	REF3000-16137	Potentiostat
VDC	POTEN	0.00000E+000	T	DC Voltage (V)
FREQINIT	QUANT	3.00000E+005	Initial Freq. (Hz)
FREQFINAL	QUANT	1.00000E+000	Final Freq. (Hz)
PTSPERDEC	QUANT	1.00000E+001	Points/decade
VAC	QUANT	5.00000E+001	AC Voltage (mV rms)
AREA	QUANT	1.00000E+000	Sample Area (cm^2)
SPEED	SELECTOR	2	Optimize for:
ZGUESS	QUANT	1.00000E+003	Estimated Z (ohms)
EOC	QUANT	0	Open Circuit (V)
SEQUENCER	TOGGLE	TRUE	Run as Sequence
PSTATMODEL	IQUANT	5	Pstat Model
PSTATSECTION	LABEL	REF3000-16137	Pstat Section
PSTATSERIALNO	LABEL	16137	Pstat Serial Number
CTRLMODE	IQUANT	1	Control Mode
IESTAB	IQUANT	0	I/E Stability
CASPEED	IQUANT	1	Control Amp Speed
CONVENTION	IQUANT	1	Current Convention
ICHRANGE	IQUANT	2	Ich Range
ICHRANGEMODE	TOGGLE	F	Ich Auto Range
ICHOFFSETENABLE	TOGGLE	T	Ich Offset Enable
ICHOFFSET	QUANT	0	Ich Offset (V)
ICHFILTER	IQUANT	3	Ich Filter
VCHRANGE	IQUANT	2	Vch Range
VCHRANGEMODE	TOGGLE	F	Vch Auto Range
VCHOFFSETENABLE	TOGGLE	T	Vch Offset Enable
VCHOFFSET	QUANT	0	Vch Offset (V)
VCHFILTER	IQUANT	3	Vch Filter
ACHRANGE	IQUANT	2	Ach Range
ACHOFFSETENABLE	TOGGLE	F	Ach Offset Enable
ACHOFFSET	QUANT	0	Ach Offset (V)
ACHFILTER	IQUANT	3	Ach Filter
IERANGELOWERLIMIT	IQUANT	2	I/E Range Lower Limit
IERANGEMODE	TOGGLE	F	I/E AutoRange
IERANGE	IQUANT	11	I/E Range
POSFEEDENABLE	TOGGLE	F	Positive Feedback IR Comp
POSFEEDRESISTANCE	QUANT	0	Positive Feedback Resistance (ohm)
ACHSELECT	IQUANT	0	Ach Select
CABLEID	IQUANT	13	Cable ID
DCCALDATE	LABEL	7/31/2020	DC Calibration Date
ACCALDATE	LABEL	7/31/2020	AC Calibration Date
THERMOSELECT	IQUANT	1	Thermo Select
FRAMEWORKVERSION	QUANT	6.33	Framework Version
INSTRUMENTVERSION	LABEL	3.50	Instrument Version
COMPLIANCEVOLTAGE	IQUANT	0	Compliance Voltage
ZCURVE	TABLE
	Pt	Time	Freq	Zreal	Zimag	Zsig	Zmod	Zphz	Idc	Vdc	IERange
	#	s	Hz	ohm	ohm	V	ohm	°	A	V	#
	0	7	300046.9	178.9527	-6.148217	1	179.0583	-1.967717	7.28516E-005	-0.0031131	9
	1	11	238359.4	179.5296	-7.456748	1	179.6843	-2.378409	2.028562E-005	-0.0007434	9
	2	14	189328.1	180.604	-7.503093	1	180.7598	-2.378954	-1.081865E-005	0.0014399	9
	3	16	150421.9	181.3033	-8.662879	1	181.5101	-2.735578	1.386118E-005	-0.0007989	9
	4	19	119484.4	182.3762	-9.82771	1	182.6408	-3.084515	1.995473E-005	-0.0015283	9
	5	22	94921.88	183.2115	-11.26238	1	183.5573	-3.517662	2.360047E-005	-0.0002322	9
	6	24	75421.88	184.5233	-13.30543	1	185.0024	-4.124293	-1.332083E-005	7.789138E-005	9
	7	27	59859.37	186.0288	-15.74012	1	186.6935	-4.836345	6.769997E-006	0.0003326	9
	8	29	47578.12	187.8237	-18.60883	1	188.7433	-5.658173	2.127929E-005	-0.000788	9
	9	32	37828.12	189.5756	-22.16551	1	190.867	-6.668844	-7.852134E-006	-0.0001845	9
	10	34	30046.88	192.5994	-25.84818	1	194.3261	-7.643821	-2.264757E-005	0.0005673	9
	11	37	23859.38	195.4681	-30.36876	1	197.8131	-8.831115	-1.551483E-005	0.0009818	9
	12	39	18984.38	198.8984	-35.43904	1	202.0309	-10.10275	2.755838E-005	-0.0005443	9
	13	42	15046.87	202.6871	-41.30527	1	206.853	-11.51849	-9.49251E-006	-2.750925E-005	9
	14	44	11953.13	207.3502	-47.96748	1	212.8262	-13.02542	-6.244024E-007	-0.0003965	9
	15	46	9515.62	212.4112	-55.23677	1	219.4758	-14.5767	-2.293618E-005	0.0006523	9
	16	49	7546.875	217.8157	-63.50266	1	226.8838	-16.25368	2.329264E-005	-0.0002642	9
	17	51	5928.309	224.0724	-74.15355	1	236.0237	-18.31122	-2.043772E-005	0.0009396	9
	18	53	4733.456	230.9697	-85.55927	1	246.3075	-20.3264	2.323674E-005	0.0006681	10
	19	57	3796.875	237.0302	-98.2122	1	256.5716	-22.50641	-1.718267E-005	0.0003165	9
	20	60	2987.132	243.1116	-115.979	1	269.3592	-25.50397	-1.526747E-005	0.0009544	9
	21	63	2390.625	247.9883	-135.5266	1	282.6051	-28.65678	-8.713534E-007	-0.0004112	9
	22	65	1884.191	253.6103	-164.407	1	302.238	-32.95398	2.523497E-005	-0.0007478	9
	23	68	1516.544	258.3949	-194.0532	1	323.1479	-36.90636	1.52876E-005	-0.0007623	9
	24	70	1193.986	263.4027	-238.1984	1	355.133	-42.12344	1.514205E-005	-0.0007507	9
	25	73	946.5144	268.2438	-292.4638	1	396.8499	-47.47337	-2.073613E-005	0.0009299	9
	26	75	751.7689	273.0062	-358.5747	1	450.6753	-52.71563	-1.790852E-006	-0.0008029	8
	27	77	597.4265	278.2914	-444.7874	1	524.6732	-57.9669	4.539512E-006	0.0013297	8
	28	80	477.4305	285.8111	-549.1018	1	619.0321	-62.50273	1.169311E-007	0.0006663	8
	29	82	376.6741	294.8507	-687.8968	1	748.4243	-66.79875	9.742774E-008	0.0006582	8
	30	84	298.2954	305.9517	-859.8767	1	912.6853	-70.41399	1.140069E-007	0.0006534	8
	31	87	237.7717	319.6756	-1068.931	1	1115.709	-73.35013	1.13657E-007	0.0006576	8
	32	89	189.0121	337.3686	-1332.94	1	1374.971	-75.79665	8.51993E-008	0.0007033	8
	33	91	150.2404	360.2744	-1662.302	1	1700.896	-77.77129	9.994416E-008	0.0006674	8
	34	94	119.1737	390.291	-2077.084	1	2113.435	-79.35802	1.241702E-007	0.0006622	8
	35	96	95.0169	428.463	-2582.628	1	2617.929	-80.58031	1.2471E-007	0.0006571	8
	36	99	75.60484	478.2005	-3216.417	1	3251.771	-81.5435	1.205587E-007	0.0006521	8
	37	101	54.50582	575.7153	-4400.375	1	4437.877	-82.54614	1.284742E-007	0.0006482	8
	38	104	45.95588	645.3759	-5190.684	1	5230.651	-82.91259	5.805923E-009	0.0006282	7
	39	106	37.20238	747.9825	-6348.729	1	6392.639	-83.28061	8.001063E-009	0.0006219	7
	40	108	30.04808	880.9417	-7783.35	1	7833.045	-83.54258	5.723353E-009	0.0006251	7
	41	111	23.91582	1063.403	-9668.82	1	9727.12	-83.72368	7.37005E-009	0.0006197	7
	42	113	18.60119	1329.43	-12284.22	1	12355.95	-83.82334	3.982547E-009	0.0006462	7
	43	116	15.02404	1631.294	-15046.13	1	15134.31	-83.81219	8.931958E-009	0.0006221	7
	44	118	12.01923	2045.92	-18593.6	1	18705.82	-83.7208	3.834098E-009	0.0006354	7
	45	120	9.450605	2642.369	-23335.23	1	23484.36	-83.53962	5.887882E-009	0.0006352	7
	46	123	7.512019	3421.256	-28975.69	1	29176.97	-83.26608	7.685797E-009	0.0006139	7
	47	126	5.978954	4457.281	-35884.64	1	36160.4	-82.91948	5.25597E-009	0.0006342	7
	48	129	4.734848	5919.405	-44648.81	1	45039.49	-82.44794	1.170678E-009	0.0007186	6
	49	132	3.75601	7862.844	-55323.41	1	55879.38	-81.91101	-5.495323E-011	0.0006659	6
	50	135	3.004808	10430.98	-67857.91	1	68654.94	-81.26101	1.868763E-009	0.0006366	6
	51	139	2.372217	14073.59	-84154.89	1	85323.57	-80.50603	4.072365E-010	0.0006061	6
	52	143	1.878005	19044.71	-103746.9	1	105480.4	-79.59808	8.779252E-010	0.0006793	6
	53	148	1.512097	25191.27	-125410.5	1	127915.6	-78.64212	5.172694E-010	0.0005895	6
	54	153	1.201923	33570.32	-153456.5	1	157085.5	-77.6603	4.715565E-010	0.0006909	6
	55	160	0.956633	44494.41	-186498.4	1	191732.6	-76.58133	-4.06771E-010	2.933902E-005	6
