EXPLAIN
TAG	EISPOT
TITLE	LABEL	Potentiostatic EIS	Test Identifier
DATE	LABEL	8/29/2020	Date
TIME	LABEL	16:13:09	Time
NOTES	NOTES	1	Notes...
	
PSTAT	PSTAT	REF3000-16137	Potentiostat
VDC	POTEN	0.00000E+000	T	DC Voltage (V)
FREQINIT	QUANT	3.00000E+005	Initial Freq. (Hz)
FREQFINAL	QUANT	1.00000E+000	Final Freq. (Hz)
PTSPERDEC	QUANT	1.00000E+001	Points/decade
VAC	QUANT	5.00000E+001	AC Voltage (mV rms)
AREA	QUANT	1.00000E+000	Sample Area (cm^2)
SPEED	SELECTOR	2	Optimize for:
ZGUESS	QUANT	1.00000E+003	Estimated Z (ohms)
EOC	QUANT	0	Open Circuit (V)
SEQUENCER	TOGGLE	TRUE	Run as Sequence
PSTATMODEL	IQUANT	5	Pstat Model
PSTATSECTION	LABEL	REF3000-16137	Pstat Section
PSTATSERIALNO	LABEL	16137	Pstat Serial Number
CTRLMODE	IQUANT	1	Control Mode
IESTAB	IQUANT	0	I/E Stability
CASPEED	IQUANT	1	Control Amp Speed
CONVENTION	IQUANT	1	Current Convention
ICHRANGE	IQUANT	2	Ich Range
ICHRANGEMODE	TOGGLE	F	Ich Auto Range
ICHOFFSETENABLE	TOGGLE	T	Ich Offset Enable
ICHOFFSET	QUANT	0	Ich Offset (V)
ICHFILTER	IQUANT	3	Ich Filter
VCHRANGE	IQUANT	2	Vch Range
VCHRANGEMODE	TOGGLE	F	Vch Auto Range
VCHOFFSETENABLE	TOGGLE	T	Vch Offset Enable
VCHOFFSET	QUANT	0	Vch Offset (V)
VCHFILTER	IQUANT	3	Vch Filter
ACHRANGE	IQUANT	2	Ach Range
ACHOFFSETENABLE	TOGGLE	F	Ach Offset Enable
ACHOFFSET	QUANT	0	Ach Offset (V)
ACHFILTER	IQUANT	3	Ach Filter
IERANGELOWERLIMIT	IQUANT	2	I/E Range Lower Limit
IERANGEMODE	TOGGLE	F	I/E AutoRange
IERANGE	IQUANT	11	I/E Range
POSFEEDENABLE	TOGGLE	F	Positive Feedback IR Comp
POSFEEDRESISTANCE	QUANT	0	Positive Feedback Resistance (ohm)
ACHSELECT	IQUANT	0	Ach Select
CABLEID	IQUANT	13	Cable ID
DCCALDATE	LABEL	7/31/2020	DC Calibration Date
ACCALDATE	LABEL	7/31/2020	AC Calibration Date
THERMOSELECT	IQUANT	1	Thermo Select
FRAMEWORKVERSION	QUANT	6.33	Framework Version
INSTRUMENTVERSION	LABEL	3.50	Instrument Version
COMPLIANCEVOLTAGE	IQUANT	0	Compliance Voltage
ZCURVE	TABLE
	Pt	Time	Freq	Zreal	Zimag	Zsig	Zmod	Zphz	Idc	Vdc	IERange
	#	s	Hz	ohm	ohm	V	ohm	°	A	V	#
	0	22	300046.9	931.612	-179.5146	1	948.7499	-10.90679	2.727389E-005	0.0007931	9
	1	37	238359.4	956.873	-153.7584	1	969.148	-9.128733	2.527804E-005	-0.0015758	9
	2	47	189328.1	982.262	-134.9884	1	991.494	-7.824914	-1.420312E-005	0.0018022	9
	3	58	150421.9	995.335	-112.7172	1	1001.697	-6.460961	-6.105624E-005	0.0006857	9
	4	64	119484.4	1019.315	-99.2132	1	1024.132	-5.559267	5.025187E-005	9.382109E-005	9
	5	75	94921.88	1032.482	-56.67678	1	1034.037	-3.142025	1.439668E-005	-0.0001482	8
	6	78	75421.88	1035.64	-53.7985	1	1037.036	-2.973678	-1.430103E-005	0.0084834	8
	7	81	59859.37	1041.092	-52.68654	1	1042.424	-2.897095	2.058985E-005	-0.0042232	8
	8	84	47578.12	1048.405	-49.81672	1	1049.588	-2.720458	4.730779E-006	-0.0053032	8
	9	86	37828.12	1055.083	-50.31631	1	1056.282	-2.730334	-8.265439E-006	-0.0010333	8
	10	89	30046.88	1059.097	-57.95859	1	1060.682	-3.132361	1.629174E-005	-0.007013	8
	11	91	23859.38	1069.836	-62.97861	1	1071.688	-3.368973	-1.371382E-005	0.0083784	8
	12	94	18984.38	1078.169	-70.09839	1	1080.446	-3.719914	7.528621E-006	0.0029639	8
	13	98	15046.87	1089.78	-83.71248	1	1092.99	-4.392604	1.157059E-005	-0.0068297	8
	14	101	11953.13	1098.778	-94.1375	1	1102.803	-4.896844	-1.32346E-005	0.0083444	8
	15	105	9515.62	1113.218	-110.7313	1	1118.712	-5.680499	-1.733045E-006	-0.0034397	8
	16	108	7546.875	1127.489	-130.8411	1	1135.055	-6.619365	2.103124E-005	-0.0043046	8
	17	111	5928.309	1145.385	-152.981	1	1155.556	-7.607571	2.108799E-005	-0.0058409	8
	18	114	4733.456	1165.174	-177.5801	1	1178.629	-8.665565	4.986927E-006	-0.0054182	8
	19	117	3796.875	1188.851	-204.5107	1	1206.313	-9.76071	2.092287E-005	-0.0057794	8
	20	121	2987.132	1221.287	-241.3897	1	1244.914	-11.18051	1.966673E-005	-0.0068197	8
	21	125	2390.625	1250.278	-270.6566	1	1279.238	-12.21475	-1.90429E-005	0.004797	8
	22	129	1884.191	1283.716	-326.8307	1	1324.667	-14.28389	-1.8071E-005	0.0086104	8
	23	132	1516.544	1311.917	-370.31	1	1363.179	-15.76258	-1.999921E-005	0.0077132	8
	24	136	1193.986	1355.924	-429.8754	1	1422.435	-17.59044	1.172774E-005	-0.0068245	8
	25	140	946.5144	1403.825	-495.2958	1	1488.637	-19.4338	-2.038795E-005	0.0064318	8
	26	142	751.7689	1444.841	-574.7974	1	1554.978	-21.69402	1.491526E-005	-0.0002379	8
	27	145	597.4265	1482.086	-674.7338	1	1628.449	-24.47785	-1.887202E-005	0.004665	8
	28	148	477.4305	1521.54	-788.9433	1	1713.918	-27.40747	-1.57481E-007	0.0006565	8
	29	150	376.6741	1559.968	-941.311	1	1821.968	-31.10749	-1.407461E-007	0.0006368	8
	30	152	298.2954	1595.965	-1131.909	1	1956.61	-35.34548	-1.682441E-007	0.0006651	8
	31	155	237.7717	1630.315	-1367.152	1	2127.682	-39.98256	-1.838142E-007	0.0006545	8
	32	157	189.0121	1665.346	-1668.594	1	2357.453	-45.05581	-1.557977E-007	0.0006393	8
	33	160	150.2404	1702.601	-2050.373	1	2665.123	-50.29423	-1.83917E-007	0.0006759	8
	34	162	119.1737	1744.166	-2535.809	1	3077.733	-55.47924	-1.887573E-007	0.0006779	8
	35	164	95.0169	1790.827	-3133.604	1	3609.229	-60.25241	-1.394389E-007	0.000639	8
	36	167	75.60484	1852.428	-3895.166	1	4313.213	-64.56559	-4.167533E-008	0.0006206	7
	37	169	54.50582	1954.132	-5316.791	1	5664.529	-69.81961	-4.352438E-008	0.0006352	7
	38	172	45.95588	2024.935	-6259.914	1	6579.276	-72.07482	-3.646919E-008	0.0005902	7
	39	174	37.20238	2128.719	-7663.282	1	7953.448	-74.47569	-3.717735E-008	0.0006145	7
	40	177	30.04808	2259.792	-9405.56	1	9673.22	-76.49011	-4.276734E-008	0.0006377	7
	41	179	23.91582	2437.704	-11704.46	1	11955.62	-78.23512	-3.7719E-008	0.0006019	7
	42	182	18.60119	2691.534	-14889.71	1	15131.02	-79.75359	-4.432003E-008	0.0006576	7
	43	184	15.02404	2967.354	-18266.1	1	18505.56	-80.77283	-4.604277E-008	0.0006607	7
	44	186	12.01923	3335.499	-22615.89	1	22860.54	-81.61023	-4.311297E-008	0.0006564	7
	45	189	9.450605	3832.395	-28439.94	1	28696.99	-82.32539	-4.037947E-008	0.0006376	7
	46	191	7.512019	4462.194	-35417.11	1	35697.09	-82.81915	-3.816311E-008	0.0005922	7
	47	194	5.978954	5255.279	-43992.62	1	44305.4	-83.18783	-4.50983E-009	0.0006607	6
	48	197	4.734848	6286.267	-54969.76	1	55328.04	-83.47607	-4.483092E-009	0.0007325	6
	49	200	3.75601	7614.917	-68477.2	1	68899.3	-83.65457	-4.816504E-009	0.0006694	6
	50	204	3.004808	9250.028	-84562.52	1	85066.93	-83.75742	-3.784702E-009	0.0006121	6
	51	207	2.372217	11585.7	-105676.9	1	106310.1	-83.74347	-4.159321E-009	0.0006557	6
	52	212	1.878005	14695.27	-132160.8	1	132975.3	-83.65521	-5.025892E-009	0.0006644	6
	53	216	1.512097	18106.07	-162067.1	1	163075.4	-83.62537	-4.456822E-009	0.0005756	6
	54	222	1.201923	23474.31	-201581.7	1	202943.9	-83.35779	-5.041719E-009	0.000658	6
	55	228	0.956633	30222.46	-249710.4	1	251532.6	-83.09905	-5.010054E-009	2.458372E-005	6
