EXPLAIN
TAG	EISPOT
TITLE	LABEL	Potentiostatic EIS	Test Identifier
DATE	LABEL	8/29/2020	Date
TIME	LABEL	16:05:57	Time
NOTES	NOTES	1	Notes...
	
PSTAT	PSTAT	REF3000-16137	Potentiostat
VDC	POTEN	0.00000E+000	T	DC Voltage (V)
FREQINIT	QUANT	3.00000E+005	Initial Freq. (Hz)
FREQFINAL	QUANT	1.00000E+000	Final Freq. (Hz)
PTSPERDEC	QUANT	1.00000E+001	Points/decade
VAC	QUANT	5.00000E+001	AC Voltage (mV rms)
AREA	QUANT	1.00000E+000	Sample Area (cm^2)
SPEED	SELECTOR	2	Optimize for:
ZGUESS	QUANT	1.00000E+003	Estimated Z (ohms)
EOC	QUANT	0	Open Circuit (V)
SEQUENCER	TOGGLE	TRUE	Run as Sequence
PSTATMODEL	IQUANT	5	Pstat Model
PSTATSECTION	LABEL	REF3000-16137	Pstat Section
PSTATSERIALNO	LABEL	16137	Pstat Serial Number
CTRLMODE	IQUANT	1	Control Mode
IESTAB	IQUANT	0	I/E Stability
CASPEED	IQUANT	1	Control Amp Speed
CONVENTION	IQUANT	1	Current Convention
ICHRANGE	IQUANT	2	Ich Range
ICHRANGEMODE	TOGGLE	F	Ich Auto Range
ICHOFFSETENABLE	TOGGLE	T	Ich Offset Enable
ICHOFFSET	QUANT	0	Ich Offset (V)
ICHFILTER	IQUANT	3	Ich Filter
VCHRANGE	IQUANT	2	Vch Range
VCHRANGEMODE	TOGGLE	F	Vch Auto Range
VCHOFFSETENABLE	TOGGLE	T	Vch Offset Enable
VCHOFFSET	QUANT	0	Vch Offset (V)
VCHFILTER	IQUANT	3	Vch Filter
ACHRANGE	IQUANT	2	Ach Range
ACHOFFSETENABLE	TOGGLE	F	Ach Offset Enable
ACHOFFSET	QUANT	0	Ach Offset (V)
ACHFILTER	IQUANT	3	Ach Filter
IERANGELOWERLIMIT	IQUANT	2	I/E Range Lower Limit
IERANGEMODE	TOGGLE	F	I/E AutoRange
IERANGE	IQUANT	11	I/E Range
POSFEEDENABLE	TOGGLE	F	Positive Feedback IR Comp
POSFEEDRESISTANCE	QUANT	0	Positive Feedback Resistance (ohm)
ACHSELECT	IQUANT	0	Ach Select
CABLEID	IQUANT	13	Cable ID
DCCALDATE	LABEL	7/31/2020	DC Calibration Date
ACCALDATE	LABEL	7/31/2020	AC Calibration Date
THERMOSELECT	IQUANT	1	Thermo Select
FRAMEWORKVERSION	QUANT	6.33	Framework Version
INSTRUMENTVERSION	LABEL	3.50	Instrument Version
COMPLIANCEVOLTAGE	IQUANT	0	Compliance Voltage
ZCURVE	TABLE
	Pt	Time	Freq	Zreal	Zimag	Zsig	Zmod	Zphz	Idc	Vdc	IERange
	#	s	Hz	ohm	ohm	V	ohm	°	A	V	#
	0	15	300046.9	530.5366	-55.90172	1	533.4736	-6.014962	1.873055E-005	-0.0011077	9
	1	28	238359.4	538.5313	-48.56179	1	540.7163	-5.152683	2.410266E-005	-0.0015021	9
	2	35	189328.1	546.2318	-42.59834	1	547.8903	-4.459234	2.330104E-005	-0.0014319	9
	3	43	150421.9	552.5734	-39.30889	1	553.9698	-4.069045	-1.925736E-005	0.00126	9
	4	48	119484.4	557.0641	-17.33756	1	557.3338	-1.782647	2.439614E-006	-0.0092166	8
	5	51	94921.88	559.5234	-15.83517	1	559.7475	-1.621106	-1.408391E-005	0.0070335	8
	6	54	75421.88	560.7432	-17.51801	1	561.0167	-1.789378	-1.197239E-005	0.0078382	8
	7	56	59859.37	563.5761	-21.62055	1	563.9907	-2.196969	1.227739E-005	-0.0003038	8
	8	59	47578.12	566.374	-26.18232	1	566.9789	-2.646783	-1.614358E-005	0.0053249	8
	9	62	37828.12	569.9594	-31.19241	1	570.8123	-3.132526	8.755052E-006	-0.0052635	8
	10	64	30046.88	573.4883	-37.95201	1	574.7427	-3.786169	1.554348E-005	-0.0050778	8
	11	67	23859.38	578.8893	-43.694	1	580.5359	-4.316445	-1.220932E-005	0.0016592	8
	12	69	18984.38	583.6701	-52.72459	1	586.0466	-5.161682	3.331367E-006	-0.0040966	8
	13	71	15046.87	587.9596	-60.94811	1	591.1101	-5.918165	-1.590166E-005	0.0064579	8
	14	74	11953.13	597.4178	-71.78557	1	601.7152	-6.851796	-1.62178E-005	0.0053716	8
	15	76	9515.62	607.7217	-86.53516	1	613.8518	-8.104024	-1.058171E-005	0.0070909	8
	16	78	7546.875	618.1213	-102.5735	1	626.5742	-9.42203	-7.596174E-007	0.0049036	8
	17	80	5928.309	629.4168	-118.79	1	640.5284	-10.68774	1.739335E-005	-0.0048214	8
	18	83	4733.456	643.4435	-135.4192	1	657.5392	-11.88503	6.935183E-006	0.0022593	8
	19	86	3796.875	657.5154	-156.5945	1	675.9056	-13.39606	-1.433002E-005	0.0028218	8
	20	88	2987.132	675.9926	-183.5886	1	700.479	-15.19412	-1.421392E-005	0.0028233	8
	21	90	2390.625	694.8027	-210.9579	1	726.1226	-16.88948	-1.10249E-005	0.0069818	8
	22	93	1884.191	716.8286	-245.8566	1	757.8184	-18.93085	1.277673E-005	-0.0003085	8
	23	96	1516.544	734.5146	-280.7112	1	786.3273	-20.91548	1.922352E-007	0.0046786	8
	24	98	1193.986	755.1263	-329.6457	1	823.9429	-23.58337	7.197785E-006	0.0022465	8
	25	101	946.5144	775.933	-388.6455	1	867.8234	-26.60515	1.641904E-005	-0.002368	8
	26	103	751.7689	794.3914	-460.5536	1	918.2414	-30.10329	-1.415128E-005	0.0027789	8
	27	106	597.4265	815.3636	-552.3784	1	984.855	-34.11618	9.081531E-006	-0.0053828	8
	28	109	477.4305	829.7916	-660.057	1	1060.297	-38.50047	-8.231324E-008	0.0006443	8
	29	111	376.6741	847.0321	-809.4641	1	1171.621	-43.7008	-6.012711E-008	0.0006363	8
	30	113	298.2954	864.8243	-996.765	1	1319.644	-49.05406	-5.950236E-008	0.0006357	8
	31	116	237.7717	884.045	-1226.487	1	1511.888	-54.21615	-5.894647E-008	0.0006256	8
	32	118	189.0121	906.437	-1518.805	1	1768.727	-59.17086	-7.569606E-008	0.0006484	8
	33	120	150.2404	933.2919	-1885.582	1	2103.914	-63.66633	-5.066916E-008	0.0006362	8
	34	123	119.1737	966.618	-2349.56	1	2540.626	-67.63754	-6.293403E-008	0.0006323	8
	35	125	95.0169	1006.678	-2917.523	1	3086.315	-70.96323	-5.510638E-008	0.0006385	8
	36	128	75.60484	1057.85	-3631.233	1	3782.182	-73.75812	-8.251563E-008	0.0006557	8
	37	130	54.50582	1157.337	-4978.939	1	5111.679	-76.91417	-2.127145E-008	0.0006023	7
	38	133	45.95588	1224.807	-5864.926	1	5991.453	-78.20412	-2.141315E-008	0.0005964	7
	39	135	37.20238	1327.195	-7182.868	1	7304.453	-79.5314	-2.151566E-008	0.0005925	7
	40	138	30.04808	1455.924	-8814.661	1	8934.09	-80.62109	-2.39685E-008	0.0006224	7
	41	140	23.91582	1633.099	-10966.74	1	11087.67	-81.53011	-2.701392E-008	0.0006168	7
	42	142	18.60119	1885.167	-13941.53	1	14068.41	-82.2992	-2.166683E-008	0.000624	7
	43	145	15.02404	2158.882	-17095.49	1	17231.27	-82.80257	-2.841188E-008	0.0006813	7
	44	147	12.01923	2521.978	-21147.52	1	21297.37	-83.19923	-2.599903E-008	0.0006383	7
	45	151	9.450605	3040.292	-26590.36	1	26763.61	-83.47723	-2.595023E-008	0.0006286	7
	46	153	7.512019	3670.977	-33098.6	1	33301.55	-83.67117	-2.674738E-008	0.0006677	7
	47	156	5.978954	4505.94	-41096.32	1	41342.6	-83.74289	-2.460584E-008	0.0006139	7
	48	159	4.734848	5634.018	-51294.68	1	51603.16	-83.73197	-2.790525E-009	0.0006571	6
	49	162	3.75601	7080.654	-63888.78	1	64279.95	-83.67584	-3.113306E-009	0.0007042	6
	50	165	3.004808	8941.441	-78837.7	1	79343.13	-83.5294	-2.569037E-009	0.0006515	6
	51	169	2.372217	11508.02	-98468.1	1	99138.3	-83.33405	-2.695862E-009	0.0006131	6
	52	173	1.878005	15155.89	-122654.9	1	123587.7	-82.95593	-3.00916E-009	0.0006731	6
	53	178	1.512097	19634.75	-150089.5	1	151368.3	-82.54687	-3.045837E-009	0.0005727	6
	54	184	1.201923	25709.03	-185954.8	1	187723.6	-82.12852	-3.239068E-009	0.0006863	6
	55	190	0.956633	33773.58	-229512	1	231983.6	-81.62878	-3.374007E-009	1.98657E-005	6
