EXPLAIN
TAG	EISPOT
TITLE	LABEL	Potentiostatic EIS	Test Identifier
DATE	LABEL	8/29/2020	Date
TIME	LABEL	17:44:49	Time
NOTES	NOTES	1	Notes...
	
PSTAT	PSTAT	REF3000-16137	Potentiostat
VDC	POTEN	0.00000E+000	T	DC Voltage (V)
FREQINIT	QUANT	3.00000E+005	Initial Freq. (Hz)
FREQFINAL	QUANT	1.00000E+000	Final Freq. (Hz)
PTSPERDEC	QUANT	1.00000E+001	Points/decade
VAC	QUANT	5.00000E+001	AC Voltage (mV rms)
AREA	QUANT	1.00000E+000	Sample Area (cm^2)
SPEED	SELECTOR	2	Optimize for:
ZGUESS	QUANT	1.00000E+003	Estimated Z (ohms)
EOC	QUANT	0	Open Circuit (V)
SEQUENCER	TOGGLE	TRUE	Run as Sequence
PSTATMODEL	IQUANT	5	Pstat Model
PSTATSECTION	LABEL	REF3000-16137	Pstat Section
PSTATSERIALNO	LABEL	16137	Pstat Serial Number
CTRLMODE	IQUANT	1	Control Mode
IESTAB	IQUANT	0	I/E Stability
CASPEED	IQUANT	1	Control Amp Speed
CONVENTION	IQUANT	1	Current Convention
ICHRANGE	IQUANT	2	Ich Range
ICHRANGEMODE	TOGGLE	F	Ich Auto Range
ICHOFFSETENABLE	TOGGLE	T	Ich Offset Enable
ICHOFFSET	QUANT	0	Ich Offset (V)
ICHFILTER	IQUANT	3	Ich Filter
VCHRANGE	IQUANT	2	Vch Range
VCHRANGEMODE	TOGGLE	F	Vch Auto Range
VCHOFFSETENABLE	TOGGLE	T	Vch Offset Enable
VCHOFFSET	QUANT	0	Vch Offset (V)
VCHFILTER	IQUANT	3	Vch Filter
ACHRANGE	IQUANT	2	Ach Range
ACHOFFSETENABLE	TOGGLE	F	Ach Offset Enable
ACHOFFSET	QUANT	0	Ach Offset (V)
ACHFILTER	IQUANT	3	Ach Filter
IERANGELOWERLIMIT	IQUANT	2	I/E Range Lower Limit
IERANGEMODE	TOGGLE	F	I/E AutoRange
IERANGE	IQUANT	11	I/E Range
POSFEEDENABLE	TOGGLE	F	Positive Feedback IR Comp
POSFEEDRESISTANCE	QUANT	0	Positive Feedback Resistance (ohm)
ACHSELECT	IQUANT	0	Ach Select
CABLEID	IQUANT	13	Cable ID
DCCALDATE	LABEL	7/31/2020	DC Calibration Date
ACCALDATE	LABEL	7/31/2020	AC Calibration Date
THERMOSELECT	IQUANT	1	Thermo Select
FRAMEWORKVERSION	QUANT	6.33	Framework Version
INSTRUMENTVERSION	LABEL	3.50	Instrument Version
COMPLIANCEVOLTAGE	IQUANT	0	Compliance Voltage
ZCURVE	TABLE
	Pt	Time	Freq	Zreal	Zimag	Zsig	Zmod	Zphz	Idc	Vdc	IERange
	#	s	Hz	ohm	ohm	V	ohm	°	A	V	#
	0	23	300046.9	-69.45196	-4814.442	1	4814.943	-90.82648	2.584584E-005	-0.0017121	9
	1	38	238359.4	-103.1265	-6043.51	1	6044.39	-90.9776	-6.363328E-005	0.0004496	9
	2	52	189328.1	105.6815	-7346.674	1	7347.435	-89.17586	-2.379769E-005	0.0011943	9
	3	63	150421.9	222.4304	-9056.352	1	9059.083	-88.59306	2.845204E-005	-0.0019102	9
	4	70	119484.4	609.6884	-11564.01	1	11580.07	-86.98199	-8.600559E-005	0.0224558	8
	5	78	94921.88	697.3146	-14384.62	1	14401.51	-87.22468	-1.208838E-005	0.0103901	8
	6	86	75421.88	596.3863	-18017.21	1	18027.08	-88.10415	8.468078E-006	0.0042416	8
	7	94	59859.37	931.2845	-22788.82	1	22807.84	-87.65986	2.35301E-005	-0.0027901	8
	8	102	47578.12	4225.872	-29712.59	1	30011.6	-81.9054	-6.632283E-006	0.0261465	7
	9	110	37828.12	4723.801	-36885.68	1	37186.93	-82.70209	5.301222E-007	0.0162041	7
	10	117	30046.88	5743.648	-45385.84	1	45747.83	-82.78747	-3.817283E-006	0.0257378	7
	11	125	23859.38	6943.119	-56529.82	1	56954.61	-82.99787	-5.36856E-006	0.0037045	7
	12	130	18984.38	9265.462	-70093.51	1	70703.24	-82.46989	1.348518E-006	-0.020165	7
	13	135	15046.87	13174.27	-87283.26	1	88271.9	-81.41674	6.682928E-006	-0.0103993	7
	14	142	11953.13	19123.95	-99723.9	1	101541	-79.14424	-2.084769E-005	0.0029387	8
	15	149	9515.62	42915.21	-122336.8	1	129645.7	-70.66936	-2.699187E-005	0.0097833	8
	16	157	7546.875	77249.84	-132183.3	1	153101.1	-59.69736	2.277183E-005	-0.0097523	8
	17	165	5928.309	107595.5	-104721.9	1	150144.8	-44.22457	2.285706E-005	-0.0097561	8
	18	173	4733.456	106277.3	-159395.5	1	191577.1	-56.30654	1.769058E-005	0.0002983	8
	19	180	3796.875	126689.7	-53323.04	1	137454.1	-22.82597	-3.888384E-006	0.0263218	7
	20	187	2987.132	112032.7	-28797.37	1	115674.6	-14.41548	-3.793383E-006	0.0255405	7
	21	193	2390.625	88289.55	-25340.9	1	91854.26	-16.01456	-5.185084E-006	0.0265372	7
	22	200	1884.191	73932.63	-9124.66	1	74493.57	-7.035785	5.403687E-006	-0.0267193	7
	23	206	1516.544	64928.06	-6375.564	1	65240.33	-5.608139	1.402437E-006	-0.0201684	7
	24	212	1193.986	53388.81	-3149.925	1	53481.65	-3.376521	2.749457E-006	0.0086354	7
	25	217	946.5144	48224.3	-5203.174	1	48504.19	-6.158122	-6.692001E-006	0.0115864	7
	26	221	751.7689	45532.6	456.2841	1	45534.88	0.5741442	-9.393365E-006	-0.0021485	8
	27	226	597.4265	37612.99	-3556.368	1	37780.75	-5.401349	-1.834775E-006	0.0217845	7
	28	229	477.4305	33588.61	-2970.785	1	33719.73	-5.054442	-6.504002E-008	0.0005879	7
	29	233	376.6741	31767.3	-3264.803	1	31934.63	-5.867826	-6.370896E-008	0.0005794	7
	30	235	298.2954	30112.71	-3614.696	1	30328.89	-6.844968	-7.156628E-008	0.0006728	7
	31	238	237.7717	28590.16	-3996.131	1	28868.09	-7.95685	-6.318203E-008	0.0005881	7
	32	240	189.0121	27223.78	-4448.173	1	27584.79	-9.279723	-7.404959E-008	0.0006516	7
	33	242	150.2404	26026.91	-4936.369	1	26490.9	-10.73939	-6.666097E-008	0.0005764	7
	34	245	119.1737	24956.46	-5465.572	1	25547.95	-12.35299	-6.393827E-008	0.0005815	7
	35	247	95.0169	23976.21	-6107.313	1	24741.82	-14.2907	-6.953581E-008	0.000666	7
	36	250	75.60484	23039.82	-6798.882	1	24022.04	-16.44094	-6.375424E-008	0.0005756	7
	37	252	54.50582	22318.12	-8130.563	1	23752.99	-20.01685	-6.606274E-008	0.0006147	7
	38	255	45.95588	20685.68	-8837.065	1	22494.24	-23.13251	-6.305822E-008	0.0006109	7
	39	259	37.20238	19896.91	-10145.63	1	22334.3	-27.01748	-7.724411E-008	0.0006938	7
	40	261	30.04808	19071.53	-11846.64	1	22451.42	-31.84726	-6.377974E-008	0.0005735	7
	41	263	23.91582	18312.8	-14205.29	1	23176.47	-37.80084	-7.125776E-008	0.0006653	7
	42	266	18.60119	17718.41	-17590.28	1	24967.18	-44.79209	-6.905142E-008	0.0006588	7
	43	268	15.02404	17159.32	-21238.35	1	27304.03	-51.06385	-7.048416E-008	0.0006686	7
	44	270	12.01923	16708.61	-25957.27	1	30870.01	-57.23075	-6.431362E-008	0.0006312	7
	45	273	9.450605	16434.08	-32356.08	1	36290.42	-63.07338	-6.412422E-008	0.000628	7
	46	275	7.512019	16345.84	-40023.86	1	43233.05	-67.78477	-7.945765E-009	0.0006637	6
	47	278	5.978954	16431.62	-49380.17	1	52042.28	-71.59476	-7.119256E-009	0.0006156	6
	48	281	4.734848	16872.36	-61215.41	1	63498.06	-74.59058	-7.133063E-009	0.0005896	6
	49	284	3.75601	17796.19	-75740.96	1	77803.59	-76.77755	-7.591455E-009	0.0007117	6
	50	288	3.004808	19326.09	-92762.19	1	94754	-78.23134	-6.536429E-009	0.0005852	6
	51	292	2.372217	21988.48	-114961	1	117045	-79.17188	-7.352264E-009	0.0005847	6
	52	296	1.878005	25752.84	-141586	1	143909.1	-79.69127	-6.942032E-009	0.0006617	6
	53	301	1.512097	31010.65	-170697.7	1	173491.7	-79.70338	-7.273633E-009	0.0005845	6
	54	306	1.201923	38615.71	-208153.9	1	211705.5	-79.49024	-7.149653E-009	0.0006883	6
	55	312	0.956633	49138.13	-251864.5	1	256613	-78.96041	-7.349266E-009	1.991175E-005	6
