EXPLAIN
TAG	EISPOT
TITLE	LABEL	Potentiostatic EIS	Test Identifier
DATE	LABEL	8/29/2020	Date
TIME	LABEL	17:59:50	Time
NOTES	NOTES	1	Notes...
	
PSTAT	PSTAT	REF3000-16137	Potentiostat
VDC	POTEN	0.00000E+000	T	DC Voltage (V)
FREQINIT	QUANT	3.00000E+005	Initial Freq. (Hz)
FREQFINAL	QUANT	1.00000E+000	Final Freq. (Hz)
PTSPERDEC	QUANT	1.00000E+001	Points/decade
VAC	QUANT	5.00000E+001	AC Voltage (mV rms)
AREA	QUANT	1.00000E+000	Sample Area (cm^2)
SPEED	SELECTOR	2	Optimize for:
ZGUESS	QUANT	1.00000E+003	Estimated Z (ohms)
EOC	QUANT	0	Open Circuit (V)
SEQUENCER	TOGGLE	TRUE	Run as Sequence
PSTATMODEL	IQUANT	5	Pstat Model
PSTATSECTION	LABEL	REF3000-16137	Pstat Section
PSTATSERIALNO	LABEL	16137	Pstat Serial Number
CTRLMODE	IQUANT	1	Control Mode
IESTAB	IQUANT	0	I/E Stability
CASPEED	IQUANT	1	Control Amp Speed
CONVENTION	IQUANT	1	Current Convention
ICHRANGE	IQUANT	2	Ich Range
ICHRANGEMODE	TOGGLE	F	Ich Auto Range
ICHOFFSETENABLE	TOGGLE	T	Ich Offset Enable
ICHOFFSET	QUANT	0	Ich Offset (V)
ICHFILTER	IQUANT	3	Ich Filter
VCHRANGE	IQUANT	2	Vch Range
VCHRANGEMODE	TOGGLE	F	Vch Auto Range
VCHOFFSETENABLE	TOGGLE	T	Vch Offset Enable
VCHOFFSET	QUANT	0	Vch Offset (V)
VCHFILTER	IQUANT	3	Vch Filter
ACHRANGE	IQUANT	2	Ach Range
ACHOFFSETENABLE	TOGGLE	F	Ach Offset Enable
ACHOFFSET	QUANT	0	Ach Offset (V)
ACHFILTER	IQUANT	3	Ach Filter
IERANGELOWERLIMIT	IQUANT	2	I/E Range Lower Limit
IERANGEMODE	TOGGLE	F	I/E AutoRange
IERANGE	IQUANT	11	I/E Range
POSFEEDENABLE	TOGGLE	F	Positive Feedback IR Comp
POSFEEDRESISTANCE	QUANT	0	Positive Feedback Resistance (ohm)
ACHSELECT	IQUANT	0	Ach Select
CABLEID	IQUANT	13	Cable ID
DCCALDATE	LABEL	7/31/2020	DC Calibration Date
ACCALDATE	LABEL	7/31/2020	AC Calibration Date
THERMOSELECT	IQUANT	1	Thermo Select
FRAMEWORKVERSION	QUANT	6.33	Framework Version
INSTRUMENTVERSION	LABEL	3.50	Instrument Version
COMPLIANCEVOLTAGE	IQUANT	0	Compliance Voltage
ZCURVE	TABLE
	Pt	Time	Freq	Zreal	Zimag	Zsig	Zmod	Zphz	Idc	Vdc	IERange
	#	s	Hz	ohm	ohm	V	ohm	°	A	V	#
	0	6	300046.9	47.74387	-1.215248	1	47.75934	-1.458063	5.732962E-005	-0.0018699	9
	1	10	238359.4	47.8532	-2.084765	1	47.89859	-2.494561	-6.091023E-005	0.0011937	9
	2	13	189328.1	48.01461	-3.102909	1	48.11477	-3.697556	-5.594764E-006	0.0003643	9
	3	15	150421.9	48.2654	-4.113592	1	48.44038	-4.871466	-4.052553E-005	0.0007401	9
	4	18	119484.4	48.70661	-5.186293	1	48.98195	-6.077968	8.097376E-006	-0.0008989	9
	5	20	94921.88	49.27506	-6.213227	1	49.66524	-7.186654	4.114091E-006	0.0002121	9
	6	23	75421.88	49.83557	-7.548411	1	50.404	-8.612913	1.416968E-005	-0.0005497	9
	7	25	59859.37	50.56427	-9.009951	1	51.36073	-10.10338	-2.552864E-006	-0.0001453	9
	8	28	47578.12	51.441	-10.64218	1	52.5303	-11.68853	-1.377187E-005	0.000402	9
	9	30	37828.12	52.42752	-12.42437	1	53.87959	-13.33211	4.448843E-006	0.0003279	9
	10	33	30046.88	53.57249	-14.42386	1	55.48026	-15.06898	1.885226E-005	-0.0002716	9
	11	35	23859.38	54.81271	-16.66155	1	57.28909	-16.90782	-1.428431E-005	0.0005194	9
	12	38	18984.38	56.1088	-19.22666	1	59.31157	-18.91492	-3.069282E-006	-0.0001075	9
	13	40	15046.87	57.45226	-22.28426	1	61.62265	-21.2	-1.529274E-005	0.0003977	9
	14	42	11953.13	58.64569	-25.93658	1	64.12506	-23.85784	1.958958E-005	-0.0004511	9
	15	45	9515.62	59.79634	-30.40228	1	67.0813	-26.95017	-1.191739E-005	0.000693	9
	16	47	7546.875	60.85191	-36.17108	1	70.79055	-30.72774	1.976785E-005	-0.00047	9
	17	49	5928.309	61.82613	-43.88231	1	75.81641	-35.36598	1.469717E-005	-0.0005088	9
	18	52	4733.456	62.65884	-53.1153	1	82.14235	-40.28762	-1.224463E-005	0.000647	9
	19	54	3796.875	63.6504	-64.39845	1	90.54575	-45.33471	-1.618556E-005	0.0006393	9
	20	56	2987.132	64.65387	-80.01501	1	102.8714	-51.06104	3.574474E-006	-0.0002926	9
	21	59	2390.625	65.79822	-98.349	1	118.3297	-56.21637	2.003712E-005	-0.000389	9
	22	61	1884.191	66.97585	-123.1954	1	140.2243	-61.46904	4.177708E-006	0.0003063	9
	23	63	1516.544	69.10625	-151.2746	1	166.312	-65.44782	3.271296E-006	-0.0002883	9
	24	66	1193.986	71.28745	-189.6343	1	202.5909	-69.39773	-1.47907E-005	0.0006234	9
	25	68	946.5144	73.79088	-237.0747	1	248.2932	-72.71095	-3.251377E-006	0.0004704	9
	26	70	751.7689	78.38779	-295.1822	1	305.4131	-75.12794	-2.991028E-006	-0.0000997	9
	27	73	597.4265	84.31274	-367.9579	1	377.4939	-77.09422	-1.500595E-005	0.0004403	9
	28	75	477.4305	89.76929	-454.7349	1	463.5109	-78.83282	3.951202E-007	0.0006481	8
	29	77	376.6741	98.9823	-570.8424	1	579.3605	-80.1629	3.837932E-007	0.0006528	8
	30	80	298.2954	111.0286	-713.8137	1	722.397	-81.1589	3.876302E-007	0.0006523	8
	31	82	237.7717	126.6362	-886.7512	1	895.7479	-81.87259	3.987559E-007	0.0006447	8
	32	85	189.0121	147.7357	-1104.062	1	1113.903	-82.37846	3.910638E-007	0.0006486	8
	33	87	150.2404	175.9418	-1374.035	1	1385.253	-82.70312	4.012419E-007	0.0006477	8
	34	89	119.1737	214.5546	-1712.578	1	1725.965	-82.85909	4.05574E-007	0.0006552	8
	35	92	95.0169	265.5577	-2122.335	1	2138.885	-82.86792	4.003575E-007	0.000651	8
	36	94	75.60484	335.7314	-2633.986	1	2655.296	-82.73617	4.046495E-007	0.000644	8
	37	97	54.50582	483.1163	-3583.507	1	3615.926	-82.32187	4.065719E-007	0.0006435	8
	38	99	45.95588	593.4229	-4210.879	1	4252.488	-81.97836	3.401889E-008	0.0006269	7
	39	102	37.20238	769.8442	-5122.995	1	5180.515	-81.45398	3.540452E-008	0.0006292	7
	40	104	30.04808	1013.967	-6245.56	1	6327.333	-80.77848	2.234235E-008	0.0006193	7
	41	106	23.91582	1368.35	-7680.599	1	7801.537	-79.89836	2.53566E-008	0.0006211	7
	42	109	18.60119	1930.386	-9641.62	1	9832.97	-78.67828	3.757746E-008	0.0006207	7
	43	111	15.02404	2595.925	-11647.86	1	11933.63	-77.43599	3.580015E-008	0.000631	7
	44	113	12.01923	3555.738	-14128.78	1	14569.34	-75.87394	3.130912E-008	0.0006255	7
	45	116	9.450605	4992.826	-17285.21	1	17991.85	-73.88866	3.323657E-008	0.0006264	7
	46	118	7.512019	6866.487	-20788.04	1	21892.72	-71.72112	3.49238E-008	0.0006478	7
	47	121	5.978954	9415.701	-24729.83	1	26461.67	-69.15604	3.190099E-008	0.0006289	7
	48	124	4.734848	12910.47	-29098.52	1	31834.01	-66.07403	3.545622E-008	0.0006582	7
	49	127	3.75601	17410.94	-33661.26	1	37897.51	-62.6502	2.729292E-008	0.0006201	7
	50	131	3.004808	22798.85	-37982.77	1	44299.87	-59.02606	-2.19415E-008	0.0007015	6
	51	135	2.372217	29807.75	-42060.41	1	51551.73	-54.67522	-1.86876E-008	0.0007471	6
	52	139	1.878005	37772.2	-45003.87	1	58754.46	-49.99293	-2.286048E-008	0.0006423	6
	53	143	1.512097	45649.71	-46864.39	1	65422.98	-45.75223	-2.553095E-008	0.0007518	6
	54	149	1.201923	54191.5	-46758.73	1	71575.82	-40.78902	-2.537846E-008	0.0006396	6
	55	162	0.956633	62526.35	-46134.46	1	77704.14	-36.4214	-3.561957E-008	3.844293E-005	6
