EXPLAIN
TAG	EISPOT
TITLE	LABEL	Potentiostatic EIS	Test Identifier
DATE	LABEL	8/29/2020	Date
TIME	LABEL	15:14:42	Time
NOTES	NOTES	1	Notes...
	
PSTAT	PSTAT	REF3000-16137	Potentiostat
VDC	POTEN	0.00000E+000	T	DC Voltage (V)
FREQINIT	QUANT	3.00000E+005	Initial Freq. (Hz)
FREQFINAL	QUANT	1.00000E+000	Final Freq. (Hz)
PTSPERDEC	QUANT	1.00000E+001	Points/decade
VAC	QUANT	5.00000E+001	AC Voltage (mV rms)
AREA	QUANT	1.00000E+000	Sample Area (cm^2)
SPEED	SELECTOR	2	Optimize for:
ZGUESS	QUANT	1.00000E+003	Estimated Z (ohms)
EOC	QUANT	0	Open Circuit (V)
SEQUENCER	TOGGLE	TRUE	Run as Sequence
PSTATMODEL	IQUANT	5	Pstat Model
PSTATSECTION	LABEL	REF3000-16137	Pstat Section
PSTATSERIALNO	LABEL	16137	Pstat Serial Number
CTRLMODE	IQUANT	1	Control Mode
IESTAB	IQUANT	0	I/E Stability
CASPEED	IQUANT	1	Control Amp Speed
CONVENTION	IQUANT	1	Current Convention
ICHRANGE	IQUANT	2	Ich Range
ICHRANGEMODE	TOGGLE	F	Ich Auto Range
ICHOFFSETENABLE	TOGGLE	T	Ich Offset Enable
ICHOFFSET	QUANT	0	Ich Offset (V)
ICHFILTER	IQUANT	3	Ich Filter
VCHRANGE	IQUANT	2	Vch Range
VCHRANGEMODE	TOGGLE	F	Vch Auto Range
VCHOFFSETENABLE	TOGGLE	T	Vch Offset Enable
VCHOFFSET	QUANT	0	Vch Offset (V)
VCHFILTER	IQUANT	3	Vch Filter
ACHRANGE	IQUANT	2	Ach Range
ACHOFFSETENABLE	TOGGLE	F	Ach Offset Enable
ACHOFFSET	QUANT	0	Ach Offset (V)
ACHFILTER	IQUANT	3	Ach Filter
IERANGELOWERLIMIT	IQUANT	2	I/E Range Lower Limit
IERANGEMODE	TOGGLE	F	I/E AutoRange
IERANGE	IQUANT	11	I/E Range
POSFEEDENABLE	TOGGLE	F	Positive Feedback IR Comp
POSFEEDRESISTANCE	QUANT	0	Positive Feedback Resistance (ohm)
ACHSELECT	IQUANT	0	Ach Select
CABLEID	IQUANT	13	Cable ID
DCCALDATE	LABEL	7/31/2020	DC Calibration Date
ACCALDATE	LABEL	7/31/2020	AC Calibration Date
THERMOSELECT	IQUANT	1	Thermo Select
FRAMEWORKVERSION	QUANT	6.33	Framework Version
INSTRUMENTVERSION	LABEL	3.50	Instrument Version
COMPLIANCEVOLTAGE	IQUANT	0	Compliance Voltage
ZCURVE	TABLE
	Pt	Time	Freq	Zreal	Zimag	Zsig	Zmod	Zphz	Idc	Vdc	IERange
	#	s	Hz	ohm	ohm	V	ohm	°	A	V	#
	0	7	300046.9	56.49477	-1.260512	1	56.50883	-1.278172	5.864851E-005	-0.0024646	9
	1	10	238359.4	56.80313	-2.347857	1	56.85163	-2.366872	1.506863E-005	-0.0008676	9
	2	13	189328.1	57.14416	-3.284675	1	57.23849	-3.289771	5.098495E-005	-0.001592	9
	3	15	150421.9	57.52979	-4.385621	1	57.6967	-4.35935	-1.26566E-005	-0.0008042	9
	4	18	119484.4	58.18682	-5.630541	1	58.45861	-5.52711	-4.186243E-005	0.0008268	9
	5	20	94921.88	58.91585	-6.676423	1	59.29293	-6.465254	-1.28672E-005	0.0003578	9
	6	23	75421.88	59.70743	-8.189241	1	60.26641	-7.809741	-1.209832E-005	0.0001298	9
	7	26	59859.37	60.64199	-9.84074	1	61.43526	-9.217381	-1.737472E-005	0.0005953	9
	8	28	47578.12	61.77132	-11.68894	1	62.86754	-10.71534	-1.484852E-005	0.000672	9
	9	31	37828.12	63.06729	-13.6987	1	64.53787	-12.25473	2.855469E-006	0.0003053	9
	10	33	30046.88	64.52844	-15.91701	1	66.46255	-13.85634	1.680848E-005	-0.0001688	9
	11	36	23859.38	66.13931	-18.42356	1	68.65738	-15.56554	-1.17799E-005	0.0001963	9
	12	38	18984.38	67.86407	-21.28009	1	71.12225	-17.40982	-2.809536E-006	0.0005794	9
	13	40	15046.87	69.67639	-24.65253	1	73.90904	-19.48453	3.71103E-006	-0.000351	9
	14	43	11953.13	71.50954	-28.53226	1	76.99158	-21.75197	-3.546664E-006	-0.0001264	9
	15	45	9515.62	73.25291	-33.16384	1	80.41038	-24.35772	1.54339E-005	-0.0005778	9
	16	47	7546.875	74.89823	-39.06414	1	84.47338	-27.54487	-1.378357E-005	0.0007457	9
	17	50	5928.309	76.41209	-46.95817	1	89.68766	-31.57233	-1.66424E-005	0.0004735	9
	18	52	4733.456	77.79253	-56.23822	1	95.9918	-35.86414	1.153086E-005	9.072288E-005	9
	19	54	3796.875	79.09666	-67.93681	1	104.2674	-40.65957	2.489797E-006	0.0003558	9
	20	57	2987.132	80.49142	-83.81847	1	116.2085	-46.16	-1.304035E-005	0.0002176	9
	21	59	2390.625	81.95668	-102.3286	1	131.1031	-51.30817	4.398873E-007	-0.0002182	9
	22	61	1884.191	83.40854	-127.8551	1	152.6562	-56.88088	1.73407E-005	-0.0001378	9
	23	63	1516.544	85.52128	-156.7852	1	178.5931	-61.38896	-1.638632E-005	0.0004626	9
	24	66	1193.986	87.8419	-197.1174	1	215.8043	-65.9807	3.861387E-006	0.0003615	9
	25	68	946.5144	90.89072	-245.7329	1	262.0034	-69.70177	1.713283E-005	-0.0001572	9
	26	71	751.7689	94.4119	-307.0735	1	321.2596	-72.90958	-9.504327E-006	0.0006848	9
	27	73	597.4265	99.0521	-382.4086	1	395.0287	-75.4783	-1.395838E-005	0.0007198	9
	28	75	477.4305	105.4483	-472.636	1	484.2563	-77.4229	3.858327E-007	0.0006567	8
	29	78	376.6741	113.8878	-593.8544	1	604.6763	-79.14378	3.738551E-007	0.0006544	8
	30	80	298.2954	124.8149	-743.4469	1	753.8515	-80.46967	3.711991E-007	0.0006684	8
	31	82	237.7717	138.7765	-924.5794	1	934.9363	-81.46381	3.879198E-007	0.0006533	8
	32	85	189.0121	157.3023	-1152.603	1	1163.287	-82.22853	3.76358E-007	0.0006612	8
	33	87	150.2404	181.7298	-1436.29	1	1447.741	-82.78884	3.695255E-007	0.000672	8
	34	89	119.1737	214.4378	-1792.729	1	1805.508	-83.17896	3.853314E-007	0.0006547	8
	35	92	95.0169	256.4457	-2225.108	1	2239.837	-83.42561	3.824738E-007	0.0006512	8
	36	94	75.60484	312.2261	-2765.728	1	2783.296	-83.55909	3.77847E-007	0.0006513	8
	37	97	54.50582	425.718	-3774.476	1	3798.408	-83.56488	3.810769E-007	0.0006567	8
	38	99	45.95588	507.2569	-4444.753	1	4473.605	-83.4893	4.626537E-008	0.0006284	7
	39	102	37.20238	635.5596	-5429.658	1	5466.729	-83.32372	4.138803E-008	0.0006263	7
	40	104	30.04808	805.2177	-6633.427	1	6682.121	-83.07885	3.773884E-008	0.0006203	7
	41	107	23.91582	1052.114	-8235.297	1	8302.232	-82.71952	2.824112E-008	0.0006748	7
	42	109	18.60119	1422.319	-10396.79	1	10493.63	-82.21008	4.597237E-008	0.0006238	7
	43	111	15.02404	1857.217	-12672.58	1	12807.95	-81.66244	4.284469E-008	0.0006278	7
	44	113	12.01923	2481.566	-15564.8	1	15761.38	-80.94131	4.274181E-008	0.0006298	7
	45	116	9.450605	3403.815	-19380.31	1	19676.95	-80.03859	3.98452E-008	0.0006246	7
	46	118	7.512019	4628.352	-23834.27	1	24279.5	-79.01057	4.218253E-008	0.0006191	7
	47	121	5.978954	6322.446	-29159.25	1	29836.81	-77.76623	4.230306E-008	0.0006339	7
	48	124	4.734848	8681.07	-35691.38	1	36731.95	-76.32963	4.371234E-008	0.0006024	7
	49	127	3.75601	11901.84	-43378.79	1	44981.91	-74.65731	4.924035E-009	0.0006889	6
	50	131	3.004808	16035.81	-51989.17	1	54406.07	-72.85787	5.689834E-009	0.0006507	6
	51	135	2.372217	21954.97	-62496.29	1	66240.52	-70.64361	3.124205E-009	0.0005999	6
	52	139	1.878005	29550.37	-74319.56	1	79978.88	-68.31663	3.832245E-009	0.0006751	6
	53	143	1.512097	38490.15	-86221.38	1	94422.55	-65.9435	2.570357E-009	0.0006596	6
	54	149	1.201923	50651.06	-100152.1	1	112231.8	-63.17239	1.802204E-009	0.0006998	6
	55	155	0.956633	65433.96	-114623	1	131985	-60.27958	-2.361585E-009	3.37726E-005	6
