EXPLAIN
TAG	EISPOT
TITLE	LABEL	Potentiostatic EIS	Test Identifier
DATE	LABEL	8/29/2020	Date
TIME	LABEL	15:25:41	Time
NOTES	NOTES	1	Notes...
	
PSTAT	PSTAT	REF3000-16137	Potentiostat
VDC	POTEN	0.00000E+000	T	DC Voltage (V)
FREQINIT	QUANT	3.00000E+005	Initial Freq. (Hz)
FREQFINAL	QUANT	1.00000E+000	Final Freq. (Hz)
PTSPERDEC	QUANT	1.00000E+001	Points/decade
VAC	QUANT	5.00000E+001	AC Voltage (mV rms)
AREA	QUANT	1.00000E+000	Sample Area (cm^2)
SPEED	SELECTOR	2	Optimize for:
ZGUESS	QUANT	1.00000E+003	Estimated Z (ohms)
EOC	QUANT	0	Open Circuit (V)
SEQUENCER	TOGGLE	TRUE	Run as Sequence
PSTATMODEL	IQUANT	5	Pstat Model
PSTATSECTION	LABEL	REF3000-16137	Pstat Section
PSTATSERIALNO	LABEL	16137	Pstat Serial Number
CTRLMODE	IQUANT	1	Control Mode
IESTAB	IQUANT	0	I/E Stability
CASPEED	IQUANT	1	Control Amp Speed
CONVENTION	IQUANT	1	Current Convention
ICHRANGE	IQUANT	2	Ich Range
ICHRANGEMODE	TOGGLE	F	Ich Auto Range
ICHOFFSETENABLE	TOGGLE	T	Ich Offset Enable
ICHOFFSET	QUANT	0	Ich Offset (V)
ICHFILTER	IQUANT	3	Ich Filter
VCHRANGE	IQUANT	2	Vch Range
VCHRANGEMODE	TOGGLE	F	Vch Auto Range
VCHOFFSETENABLE	TOGGLE	T	Vch Offset Enable
VCHOFFSET	QUANT	0	Vch Offset (V)
VCHFILTER	IQUANT	3	Vch Filter
ACHRANGE	IQUANT	2	Ach Range
ACHOFFSETENABLE	TOGGLE	F	Ach Offset Enable
ACHOFFSET	QUANT	0	Ach Offset (V)
ACHFILTER	IQUANT	3	Ach Filter
IERANGELOWERLIMIT	IQUANT	2	I/E Range Lower Limit
IERANGEMODE	TOGGLE	F	I/E AutoRange
IERANGE	IQUANT	11	I/E Range
POSFEEDENABLE	TOGGLE	F	Positive Feedback IR Comp
POSFEEDRESISTANCE	QUANT	0	Positive Feedback Resistance (ohm)
ACHSELECT	IQUANT	0	Ach Select
CABLEID	IQUANT	13	Cable ID
DCCALDATE	LABEL	7/31/2020	DC Calibration Date
ACCALDATE	LABEL	7/31/2020	AC Calibration Date
THERMOSELECT	IQUANT	1	Thermo Select
FRAMEWORKVERSION	QUANT	6.33	Framework Version
INSTRUMENTVERSION	LABEL	3.50	Instrument Version
COMPLIANCEVOLTAGE	IQUANT	0	Compliance Voltage
ZCURVE	TABLE
	Pt	Time	Freq	Zreal	Zimag	Zsig	Zmod	Zphz	Idc	Vdc	IERange
	#	s	Hz	ohm	ohm	V	ohm	°	A	V	#
	0	7	300046.9	76.4196	-1.805898	1	76.44093	-1.353724	4.550227E-005	-0.0008381	9
	1	10	238359.4	76.88065	-2.82395	1	76.9325	-2.10362	1.165686E-005	-0.0013938	9
	2	13	189328.1	77.36565	-3.953339	1	77.4666	-2.925236	-1.098846E-005	-0.0010346	9
	3	16	150421.9	77.85017	-5.09455	1	78.01669	-3.744123	6.647139E-005	-0.0021593	9
	4	18	119484.4	78.42242	-6.294183	1	78.6746	-4.588723	-5.125613E-005	0.0010651	9
	5	21	94921.88	79.21565	-7.540963	1	79.57378	-5.437906	-1.058973E-005	0.0007396	9
	6	23	75421.88	80.07507	-9.251261	1	80.6077	-6.590298	1.20355E-005	0.0001209	9
	7	26	59859.37	81.13584	-11.21587	1	81.90739	-7.87044	2.087862E-005	-0.0006429	9
	8	28	47578.12	82.42561	-13.33962	1	83.49807	-9.192946	-1.273142E-005	0.0001264	9
	9	31	37828.12	83.95682	-15.65664	1	85.40421	-10.56343	1.891038E-005	-0.0001188	9
	10	33	30046.88	85.68951	-18.25038	1	87.61147	-12.02335	8.948336E-006	0.0002335	9
	11	36	23859.38	87.67376	-21.22554	1	90.2065	-13.60927	-1.931468E-005	0.0006033	9
	12	38	18984.38	89.82108	-24.50533	1	93.10391	-15.26026	-1.931655E-005	0.0005951	9
	13	41	15046.87	92.26152	-28.2984	1	96.5038	-17.0518	2.376377E-005	-0.0006341	9
	14	43	11953.13	94.69572	-32.67982	1	100.1761	-19.03973	-1.814345E-005	0.0007658	9
	15	45	9515.62	97.1686	-37.83625	1	104.2752	-21.27531	-1.914477E-005	0.0006013	9
	16	47	7546.875	99.5881	-44.01409	1	108.8808	-23.84358	-1.806931E-005	0.0007617	9
	17	50	5928.309	102.0786	-52.04375	1	114.5801	-27.0143	-1.894557E-005	0.0006189	9
	18	52	4733.456	104.0825	-61.63282	1	120.9619	-30.63205	2.107868E-005	-0.00063	9
	19	54	3796.875	106.004	-73.3863	1	128.9278	-34.69477	-1.634516E-005	0.000378	9
	20	57	2987.132	107.8605	-89.54416	1	140.1858	-39.69893	2.283064E-005	-0.0005427	9
	21	59	2390.625	109.7416	-108.6727	1	154.444	-44.71961	1.753006E-005	-0.0006547	9
	22	61	1884.191	111.471	-134.8503	1	174.9583	-50.42192	-1.581262E-005	0.0007806	9
	23	64	1516.544	113.7256	-164.7904	1	200.2234	-55.38957	2.292048E-005	-0.0004351	9
	24	66	1193.986	116.4089	-206.1509	1	236.7472	-60.54753	-1.132566E-005	0.0007693	9
	25	68	946.5144	119.8172	-257.6503	1	284.1476	-65.05978	-9.678071E-006	2.593489E-005	9
	26	71	751.7689	123.6145	-320.5646	1	343.5727	-68.91262	1.182056E-005	-0.0005854	9
	27	73	597.4265	128.7211	-398.8709	1	419.1266	-72.1144	2.108468E-005	-0.0006274	9
	28	75	477.4305	134.3071	-493.2499	1	511.2083	-74.76819	3.048935E-007	0.000648	8
	29	78	376.6741	142.7781	-619.6685	1	635.9045	-77.0249	3.231994E-007	0.0006482	8
	30	80	298.2954	153.6313	-775.7053	1	790.7726	-78.79733	3.112213E-007	0.0006495	8
	31	82	237.7717	167.3683	-964.809	1	979.218	-80.15867	3.197782E-007	0.0006504	8
	32	85	189.0121	185.506	-1202.974	1	1217.193	-81.23369	3.147416E-007	0.0006503	8
	33	87	150.2404	209.129	-1499.329	1	1513.844	-82.05952	3.21118E-007	0.0006449	8
	34	90	119.1737	240.4333	-1871.929	1	1887.307	-82.68092	3.309704E-007	0.0006459	8
	35	92	95.0169	280.2575	-2324.923	1	2341.754	-83.12646	3.274392E-007	0.0006516	8
	36	95	75.60484	332.5796	-2891.382	1	2910.446	-83.43842	3.312648E-007	0.0006517	8
	37	97	54.50582	436.7096	-3948.9	1	3972.974	-83.68929	3.416308E-007	0.0006421	8
	38	100	45.95588	511.409	-4655.026	1	4683.034	-83.73053	3.457428E-008	0.0006245	7
	39	102	37.20238	625.4804	-5686.936	1	5721.229	-83.72353	3.183683E-008	0.0006274	7
	40	104	30.04808	777.1504	-6960.979	1	7004.227	-83.62966	2.459447E-008	0.0006832	7
	41	107	23.91582	991.931	-8633.572	1	8690.368	-83.44589	2.575665E-008	0.0006242	7
	42	109	18.60119	1316.714	-10948.31	1	11027.2	-83.14218	3.579624E-008	0.0006251	7
	43	111	15.02404	1691.904	-13382.5	1	13489.02	-82.79452	3.698769E-008	0.0006437	7
	44	114	12.01923	2225.94	-16485.3	1	16634.9	-82.3101	3.339511E-008	0.0006336	7
	45	116	9.450605	3015.247	-20596.14	1	20815.68	-81.67114	3.199044E-008	0.0006322	7
	46	119	7.512019	4051.112	-25431.3	1	25751.94	-80.94904	3.332802E-008	0.000617	7
	47	121	5.978954	5463.162	-31313.37	1	31786.37	-80.10337	3.673979E-008	0.0006291	7
	48	124	4.734848	7468.646	-38615.54	1	39331.16	-79.05356	3.377887E-008	0.0006161	7
	49	128	3.75601	10193.84	-47323.07	1	48408.55	-77.8437	5.430873E-009	0.0006836	6
	50	131	3.004808	13716.39	-57359.16	1	58976.38	-76.55132	2.884154E-009	0.0006916	6
	51	135	2.372217	18859.65	-69858.93	1	72359.91	-74.89215	2.890388E-009	0.0006303	6
	52	139	1.878005	25532.27	-84661.63	1	88427.88	-73.21773	4.016075E-009	0.0006734	6
	53	144	1.512097	33424.66	-100192.5	1	105620.7	-71.55106	2.566785E-009	0.0006934	6
	54	149	1.201923	44594.95	-119273.5	1	127337.7	-69.49982	2.66621E-009	0.0006946	6
	55	155	0.956633	58410.24	-140537.7	1	152192.7	-67.43127	-6.697066E-010	3.969899E-005	6
