EXPLAIN
TAG	EISPOT
TITLE	LABEL	Potentiostatic EIS	Test Identifier
DATE	LABEL	8/29/2020	Date
TIME	LABEL	17:13:40	Time
NOTES	NOTES	1	Notes...
	
PSTAT	PSTAT	REF3000-16137	Potentiostat
VDC	POTEN	0.00000E+000	T	DC Voltage (V)
FREQINIT	QUANT	3.00000E+005	Initial Freq. (Hz)
FREQFINAL	QUANT	1.00000E+000	Final Freq. (Hz)
PTSPERDEC	QUANT	1.00000E+001	Points/decade
VAC	QUANT	5.00000E+001	AC Voltage (mV rms)
AREA	QUANT	1.00000E+000	Sample Area (cm^2)
SPEED	SELECTOR	2	Optimize for:
ZGUESS	QUANT	1.00000E+003	Estimated Z (ohms)
EOC	QUANT	0	Open Circuit (V)
SEQUENCER	TOGGLE	TRUE	Run as Sequence
PSTATMODEL	IQUANT	5	Pstat Model
PSTATSECTION	LABEL	REF3000-16137	Pstat Section
PSTATSERIALNO	LABEL	16137	Pstat Serial Number
CTRLMODE	IQUANT	1	Control Mode
IESTAB	IQUANT	0	I/E Stability
CASPEED	IQUANT	1	Control Amp Speed
CONVENTION	IQUANT	1	Current Convention
ICHRANGE	IQUANT	2	Ich Range
ICHRANGEMODE	TOGGLE	F	Ich Auto Range
ICHOFFSETENABLE	TOGGLE	T	Ich Offset Enable
ICHOFFSET	QUANT	0	Ich Offset (V)
ICHFILTER	IQUANT	3	Ich Filter
VCHRANGE	IQUANT	2	Vch Range
VCHRANGEMODE	TOGGLE	F	Vch Auto Range
VCHOFFSETENABLE	TOGGLE	T	Vch Offset Enable
VCHOFFSET	QUANT	0	Vch Offset (V)
VCHFILTER	IQUANT	3	Vch Filter
ACHRANGE	IQUANT	2	Ach Range
ACHOFFSETENABLE	TOGGLE	F	Ach Offset Enable
ACHOFFSET	QUANT	0	Ach Offset (V)
ACHFILTER	IQUANT	3	Ach Filter
IERANGELOWERLIMIT	IQUANT	2	I/E Range Lower Limit
IERANGEMODE	TOGGLE	F	I/E AutoRange
IERANGE	IQUANT	11	I/E Range
POSFEEDENABLE	TOGGLE	F	Positive Feedback IR Comp
POSFEEDRESISTANCE	QUANT	0	Positive Feedback Resistance (ohm)
ACHSELECT	IQUANT	0	Ach Select
CABLEID	IQUANT	13	Cable ID
DCCALDATE	LABEL	7/31/2020	DC Calibration Date
ACCALDATE	LABEL	7/31/2020	AC Calibration Date
THERMOSELECT	IQUANT	1	Thermo Select
FRAMEWORKVERSION	QUANT	6.33	Framework Version
INSTRUMENTVERSION	LABEL	3.50	Instrument Version
COMPLIANCEVOLTAGE	IQUANT	0	Compliance Voltage
ZCURVE	TABLE
	Pt	Time	Freq	Zreal	Zimag	Zsig	Zmod	Zphz	Idc	Vdc	IERange
	#	s	Hz	ohm	ohm	V	ohm	°	A	V	#
	0	14	300046.9	-91.62263	-4830.447	1	4831.316	-91.08664	-2.061687E-005	0.0017759	9
	1	31	238359.4	-19.18444	-5938.722	1	5938.752	-90.18509	2.138709E-005	-0.0004127	9
	2	46	189328.1	-131.6199	-7485.917	1	7487.074	-91.00729	-2.943007E-005	-0.0011182	9
	3	54	150421.9	-37.12261	-9490.354	1	9490.427	-90.22412	2.36983E-005	-0.0004203	9
	4	67	119484.4	415.9207	-11593.96	1	11601.42	-87.94546	2.290349E-005	-0.0146655	8
	5	75	94921.88	498.522	-14464.48	1	14473.06	-88.02607	1.65612E-005	-0.0093501	8
	6	83	75421.88	513.1649	-18257.24	1	18264.46	-88.38998	-2.692693E-005	0.0096877	8
	7	92	59859.37	794.4869	-23146.37	1	23160	-88.03413	-1.13073E-006	-0.005075	8
	8	99	47578.12	3982.894	-29937.56	1	30201.34	-82.42187	5.424869E-006	-0.0269345	7
	9	106	37828.12	4259	-37042.39	1	37286.43	-83.44114	-5.443248E-006	0.026962	7
	10	113	30046.88	4502.908	-45980.09	1	46200.05	-84.40676	-5.421291E-006	0.0269894	7
	11	121	23859.38	1340.163	-55413.1	1	55429.3	-88.61458	2.622977E-005	-0.0052231	8
	12	127	18984.38	1347.338	-67549.34	1	67562.78	-88.85733	8.099595E-006	-0.0076777	8
	13	135	15046.87	4833.744	-88256.15	1	88388.42	-86.86507	-6.662768E-006	0.0118606	7
	14	140	11953.13	6477.683	-113728.5	1	113912.8	-86.7401	6.97612E-006	-0.0272578	7
	15	147	9515.62	6723.755	-139551.5	1	139713.4	-87.24155	5.473618E-006	-0.0269835	7
	16	153	7546.875	10752.18	-175166	1	175495.7	-86.48743	7.688763E-006	-0.0186429	7
	17	158	5928.309	1421.787	-215496.7	1	215501.4	-89.62199	7.70842E-006	-0.0245339	7
	18	165	4733.456	27775.93	-252323	1	253847.2	-83.71812	5.118241E-007	0.016327	7
	19	171	3796.875	16911.75	-347537.8	1	347949.1	-87.21409	-7.394465E-006	0.0192027	7
	20	178	2987.132	8592.604	-560877.6	1	560943.4	-89.1223	2.859689E-006	0.0083821	7
	21	186	2390.625	-77213.48	-359033.3	1	367242.2	-102.1371	6.7801E-006	-0.027618	7
	22	192	1884.191	-204293.4	-723109.8	1	751414.4	-105.7761	-6.752989E-006	0.0121038	7
	23	200	1516.544	-147816.8	-1282738	1	1291227	-96.5735	3.540471E-006	-0.024674	7
	24	207	1193.986	-116121.1	-829144.9	1	837236.8	-97.9724	1.271687E-006	-0.0199771	7
	25	214	946.5144	118214.1	-1446849	1	1451670	-85.32905	6.231988E-007	-0.0074102	6
	26	219	751.7689	-108885.9	-1902242	1	1905356	-93.27608	-7.512729E-007	0.0233036	6
	27	223	597.4265	333680.8	-1984696	1	2012551	-80.45629	-7.510088E-007	0.0181403	6
	28	226	477.4305	90739.7	-2787293	1	2788769	-88.13541	-7.507575E-009	0.0006177	6
	29	231	376.6741	478861.8	-3646380	1	3677689	-82.51843	-7.709626E-010	0.0006034	5
	30	235	298.2954	505204.5	-4542469	1	4570477	-83.65376	-7.830918E-010	0.0006003	5
	31	238	237.7717	628781.3	-5641366	1	5676300	-83.64011	-7.781806E-010	0.0006163	5
	32	241	189.0121	571285.4	-7054166	1	7077261	-85.36997	-7.421095E-010	0.0006064	5
	33	243	150.2404	920452	-9079736	1	9126272	-84.21146	-7.622667E-010	0.0006152	5
	34	246	119.1737	-2669392	-9.77009E+006	1	1.012819E+007	-105.2814	-8.350066E-010	0.0006904	5
	35	249	95.0169	908646.9	-1.378224E+007	1	1.381216E+007	-86.22801	-8.353432E-010	0.0005928	5
	36	252	75.60484	894720.1	-1.674642E+007	1	1.67703E+007	-86.94173	-8.689723E-010	0.0006808	5
	37	255	54.50582	848142.8	-2.406195E+007	1	2.407689E+007	-87.98125	-7.844331E-010	0.0005925	5
	38	258	45.95588	1005931	-2.988286E+007	1	2.989978E+007	-88.07201	-8.473124E-010	0.000682	5
	39	261	37.20238	762529.7	-3.251132E+007	1	3.252026E+007	-88.65642	-9.212732E-010	0.0006878	5
	40	265	30.04808	339560.3	-4.467636E+007	1	4.467765E+007	-89.56454	-8.994733E-010	0.0006845	5
	41	269	23.91582	2918921	-5.34694E+007	1	5.354901E+007	-86.8753	-1.35509E-010	0.0006079	4
	42	273	18.60119	-1.79705E+007	-6.889261E+007	1	7.119782E+007	-104.6197	-2.646656E-010	0.0006326	4
	43	277	15.02404	7076308	-8.532696E+007	1	8.561988E+007	-85.25922	-1.054354E-010	0.0006176	4
	44	280	12.01923	8498496	-1.058571E+008	1	1.061977E+008	-85.40998	-1.11929E-010	0.0006803	4
	45	284	9.450605	5923134	-1.407862E+008	1	1.409108E+008	-87.59088	-1.159096E-010	0.0006197	4
	46	288	7.512019	1.094197E+007	-1.687444E+008	1	1.690987E+008	-86.28993	-1.078382E-010	0.0006221	4
	47	293	5.978954	1.931299E+007	-2.088875E+008	1	2.097784E+008	-84.71766	-1.090172E-010	0.0006947	4
	48	298	4.734848	5.401166E+007	-2.822376E+008	1	2.873593E+008	-79.16632	-4.109136E-011	0.0007044	3
	49	303	3.75601	1.740356E+007	-3.204859E+008	1	3.209581E+008	-86.89169	-8.567367E-010	0.0006321	5
	50	311	3.004808	6.076114E+007	-4.195077E+008	1	4.238852E+008	-81.75864	-8.921024E-010	0.0006694	5
	51	320	2.372217	8.322982E+007	-5.400989E+008	1	5.464742E+008	-81.23957	-4.139228E-011	0.0007867	3
	52	326	1.878005	1.045476E+008	-6.757728E+008	1	6.838122E+008	-81.2056	-4.117779E-011	0.0007034	3
	53	335	1.512097	1.324273E+008	-8.345022E+008	1	8.449443E+008	-80.98291	-4.111981E-011	0.0008901	3
	54	342	1.201923	1.738224E+008	-1.043172E+009	1	1.057554E+009	-80.53979	-4.108133E-011	0.0007057	3
	55	353	0.956633	2.390308E+008	-1.302817E+009	1	1.324563E+009	-79.60344	-4.090615E-011	9.0959E-005	3
