EXPLAIN
TAG	EISPOT
TITLE	LABEL	Potentiostatic EIS	Test Identifier
DATE	LABEL	8/29/2020	Date
TIME	LABEL	18:08:28	Time
NOTES	NOTES	1	Notes...
	
PSTAT	PSTAT	REF3000-16137	Potentiostat
VDC	POTEN	0.00000E+000	T	DC Voltage (V)
FREQINIT	QUANT	3.00000E+005	Initial Freq. (Hz)
FREQFINAL	QUANT	1.00000E+000	Final Freq. (Hz)
PTSPERDEC	QUANT	1.00000E+001	Points/decade
VAC	QUANT	5.00000E+001	AC Voltage (mV rms)
AREA	QUANT	1.00000E+000	Sample Area (cm^2)
SPEED	SELECTOR	2	Optimize for:
ZGUESS	QUANT	1.00000E+003	Estimated Z (ohms)
EOC	QUANT	0	Open Circuit (V)
SEQUENCER	TOGGLE	TRUE	Run as Sequence
PSTATMODEL	IQUANT	5	Pstat Model
PSTATSECTION	LABEL	REF3000-16137	Pstat Section
PSTATSERIALNO	LABEL	16137	Pstat Serial Number
CTRLMODE	IQUANT	1	Control Mode
IESTAB	IQUANT	0	I/E Stability
CASPEED	IQUANT	1	Control Amp Speed
CONVENTION	IQUANT	1	Current Convention
ICHRANGE	IQUANT	2	Ich Range
ICHRANGEMODE	TOGGLE	F	Ich Auto Range
ICHOFFSETENABLE	TOGGLE	T	Ich Offset Enable
ICHOFFSET	QUANT	0	Ich Offset (V)
ICHFILTER	IQUANT	3	Ich Filter
VCHRANGE	IQUANT	2	Vch Range
VCHRANGEMODE	TOGGLE	F	Vch Auto Range
VCHOFFSETENABLE	TOGGLE	T	Vch Offset Enable
VCHOFFSET	QUANT	0	Vch Offset (V)
VCHFILTER	IQUANT	3	Vch Filter
ACHRANGE	IQUANT	2	Ach Range
ACHOFFSETENABLE	TOGGLE	F	Ach Offset Enable
ACHOFFSET	QUANT	0	Ach Offset (V)
ACHFILTER	IQUANT	3	Ach Filter
IERANGELOWERLIMIT	IQUANT	2	I/E Range Lower Limit
IERANGEMODE	TOGGLE	F	I/E AutoRange
IERANGE	IQUANT	11	I/E Range
POSFEEDENABLE	TOGGLE	F	Positive Feedback IR Comp
POSFEEDRESISTANCE	QUANT	0	Positive Feedback Resistance (ohm)
ACHSELECT	IQUANT	0	Ach Select
CABLEID	IQUANT	13	Cable ID
DCCALDATE	LABEL	7/31/2020	DC Calibration Date
ACCALDATE	LABEL	7/31/2020	AC Calibration Date
THERMOSELECT	IQUANT	1	Thermo Select
FRAMEWORKVERSION	QUANT	6.33	Framework Version
INSTRUMENTVERSION	LABEL	3.50	Instrument Version
COMPLIANCEVOLTAGE	IQUANT	0	Compliance Voltage
ZCURVE	TABLE
	Pt	Time	Freq	Zreal	Zimag	Zsig	Zmod	Zphz	Idc	Vdc	IERange
	#	s	Hz	ohm	ohm	V	ohm	°	A	V	#
	0	7	300046.9	42.3882	-1.110608	1	42.40274	-1.500857	1.760382E-006	-0.0011066	9
	1	10	238359.4	42.55488	-1.988596	1	42.60132	-2.675494	-1.810359E-006	0.0001861	9
	2	13	189328.1	42.85119	-2.94578	1	42.95232	-3.932578	-4.383123E-006	0.000357	9
	3	16	150421.9	43.2065	-3.900918	1	43.38224	-5.158988	-1.301754E-005	-0.0006177	9
	4	18	119484.4	43.70456	-4.972663	1	43.98655	-6.491144	2.574832E-006	-0.000745	9
	5	21	94921.88	44.36641	-5.962769	1	44.76531	-7.654586	-6.894947E-006	0.0004577	9
	6	24	75421.88	45.03539	-7.211096	1	45.60906	-9.097017	8.376282E-006	-0.0004515	9
	7	26	59859.37	45.79732	-8.624605	1	46.60234	-10.6651	-1.112195E-005	0.0006163	9
	8	29	47578.12	46.7146	-10.16666	1	47.8081	-12.27802	1.710198E-005	-0.0005191	9
	9	31	37828.12	47.75769	-11.88151	1	49.21349	-13.97083	1.8249E-005	-0.0002826	9
	10	34	30046.88	48.89999	-13.78972	1	50.80714	-15.74837	-2.80139E-006	-8.002789E-005	9
	11	36	23859.38	50.15659	-15.98507	1	52.64224	-17.67725	1.420852E-005	-0.0004895	9
	12	39	18984.38	51.4155	-18.4364	1	54.621	-19.72665	1.762622E-005	-0.0005123	9
	13	41	15046.87	52.68871	-21.47829	1	56.89831	-22.17802	2.134061E-005	-0.000405	9
	14	43	11953.13	53.8428	-25.0424	1	59.38156	-24.94323	-1.415674E-005	0.0004367	9
	15	45	9515.62	54.92678	-29.54264	1	62.36761	-28.27381	1.088357E-005	0.0001054	9
	16	48	7546.875	55.94421	-35.31328	1	66.15725	-32.26107	2.004962E-005	-0.0003648	9
	17	50	5928.309	56.91184	-43.02541	1	71.34525	-37.08932	1.961458E-005	-0.0003751	9
	18	52	4733.456	57.80177	-52.22081	1	77.89774	-42.09613	1.928343E-005	-0.0004482	9
	19	55	3796.875	58.68356	-63.47036	1	86.44216	-47.24408	-1.453945E-005	0.0005655	9
	20	57	2987.132	59.74161	-79.15371	1	99.1684	-52.95616	1.080475E-005	6.707511E-005	9
	21	59	2390.625	61.09516	-97.2575	1	114.8549	-57.86382	-1.461678E-005	0.0005497	9
	22	62	1884.191	62.43562	-121.8164	1	136.8848	-62.86311	-7.829753E-006	0.0005796	9
	23	64	1516.544	64.23795	-149.8242	1	163.0147	-66.7925	1.100153E-005	5.464556E-005	9
	24	66	1193.986	66.84884	-188.2112	1	199.7304	-70.44598	-1.480949E-005	0.0004378	9
	25	69	946.5144	69.52431	-235.0057	1	245.0741	-73.51962	1.746756E-005	-0.0004909	9
	26	71	751.7689	73.98615	-293.3162	1	302.5035	-75.84302	1.921577E-005	-0.0004471	9
	27	73	597.4265	79.16315	-365.9228	1	374.3878	-77.79285	1.08775E-005	6.513787E-005	9
	28	76	477.4305	85.60046	-451.7344	1	459.7733	-79.27008	4.128619E-007	0.0006507	8
	29	78	376.6741	94.91061	-567.1256	1	575.0126	-80.49937	4.207083E-007	0.0006494	8
	30	80	298.2954	107.1232	-709.2732	1	717.3171	-81.4114	4.193812E-007	0.0006616	8
	31	83	237.7717	122.9309	-881.1596	1	889.6934	-82.05791	4.216058E-007	0.000653	8
	32	85	189.0121	144.1693	-1097.132	1	1106.563	-82.5139	4.173898E-007	0.0006505	8
	33	87	150.2404	172.6667	-1365.319	1	1376.194	-82.79228	4.281732E-007	0.0006457	8
	34	90	119.1737	211.2154	-1701.625	1	1714.684	-82.92431	4.295564E-007	0.000657	8
	35	92	95.0169	262.3518	-2108.889	1	2125.145	-82.90867	3.867202E-007	0.0007046	8
	36	95	75.60484	332.0783	-2616.621	1	2637.609	-82.7672	4.316395E-007	0.000648	8
	37	97	54.50582	478.8356	-3559.279	1	3591.344	-82.33791	4.379454E-007	0.0006472	8
	38	100	45.95588	587.2938	-4183.451	1	4224.474	-82.00876	4.578183E-008	0.0006303	7
	39	102	37.20238	760.7866	-5089.847	1	5146.391	-81.49886	4.366262E-008	0.0006309	7
	40	105	30.04808	999.088	-6199.575	1	6279.563	-80.84525	3.792563E-008	0.0006214	7
	41	107	23.91582	1357.549	-7652.354	1	7771.837	-79.94022	3.143339E-008	0.0006243	7
	42	109	18.60119	1895.931	-9585.68	1	9771.38	-78.81199	5.062482E-008	0.0006325	7
	43	112	15.02404	2547.877	-11583.8	1	11860.7	-77.59522	4.451791E-008	0.0006213	7
	44	114	12.01923	3477.274	-14061.74	1	14485.3	-76.11019	4.249308E-008	0.0006341	7
	45	116	9.450605	4875.399	-17214.06	1	17891.16	-74.18671	4.692166E-008	0.0006408	7
	46	119	7.512019	6684.32	-20733.61	1	21784.46	-72.13116	4.6406E-008	0.0006497	7
	47	122	5.978954	9166.555	-24713.92	1	26359.12	-69.64985	4.392014E-008	0.0006298	7
	48	125	4.734848	12530.48	-29209.91	1	31784.14	-66.78162	4.730847E-008	0.000652	7
	49	128	3.75601	16900.63	-33906.16	1	37884.8	-63.5059	3.608376E-008	0.0006145	7
	50	131	3.004808	22230.94	-38441.02	1	44406.39	-59.95865	-5.710363E-009	0.0006516	6
	51	135	2.372217	29112.75	-42871.66	1	51822.11	-55.82085	-1.005522E-008	0.0006849	6
	52	139	1.878005	37229.72	-46361.76	1	59459.77	-51.23461	-1.346031E-008	0.0006675	6
	53	144	1.512097	45217.02	-48675.6	1	66437.13	-47.10957	-1.502079E-008	0.000599	6
	54	149	1.201923	54175.92	-48988.37	1	73040.34	-42.12135	-1.610949E-008	0.0006612	6
	55	162	0.956633	62796.93	-48273.39	1	79207.16	-37.55028	-2.400215E-008	3.579267E-005	6
