EXPLAIN
TAG	EISPOT
TITLE	LABEL	Potentiostatic EIS	Test Identifier
DATE	LABEL	8/29/2020	Date
TIME	LABEL	15:17:26	Time
NOTES	NOTES	1	Notes...
	
PSTAT	PSTAT	REF3000-16137	Potentiostat
VDC	POTEN	0.00000E+000	T	DC Voltage (V)
FREQINIT	QUANT	3.00000E+005	Initial Freq. (Hz)
FREQFINAL	QUANT	1.00000E+000	Final Freq. (Hz)
PTSPERDEC	QUANT	1.00000E+001	Points/decade
VAC	QUANT	5.00000E+001	AC Voltage (mV rms)
AREA	QUANT	1.00000E+000	Sample Area (cm^2)
SPEED	SELECTOR	2	Optimize for:
ZGUESS	QUANT	1.00000E+003	Estimated Z (ohms)
EOC	QUANT	0	Open Circuit (V)
SEQUENCER	TOGGLE	TRUE	Run as Sequence
PSTATMODEL	IQUANT	5	Pstat Model
PSTATSECTION	LABEL	REF3000-16137	Pstat Section
PSTATSERIALNO	LABEL	16137	Pstat Serial Number
CTRLMODE	IQUANT	1	Control Mode
IESTAB	IQUANT	0	I/E Stability
CASPEED	IQUANT	1	Control Amp Speed
CONVENTION	IQUANT	1	Current Convention
ICHRANGE	IQUANT	2	Ich Range
ICHRANGEMODE	TOGGLE	F	Ich Auto Range
ICHOFFSETENABLE	TOGGLE	T	Ich Offset Enable
ICHOFFSET	QUANT	0	Ich Offset (V)
ICHFILTER	IQUANT	3	Ich Filter
VCHRANGE	IQUANT	2	Vch Range
VCHRANGEMODE	TOGGLE	F	Vch Auto Range
VCHOFFSETENABLE	TOGGLE	T	Vch Offset Enable
VCHOFFSET	QUANT	0	Vch Offset (V)
VCHFILTER	IQUANT	3	Vch Filter
ACHRANGE	IQUANT	2	Ach Range
ACHOFFSETENABLE	TOGGLE	F	Ach Offset Enable
ACHOFFSET	QUANT	0	Ach Offset (V)
ACHFILTER	IQUANT	3	Ach Filter
IERANGELOWERLIMIT	IQUANT	2	I/E Range Lower Limit
IERANGEMODE	TOGGLE	F	I/E AutoRange
IERANGE	IQUANT	11	I/E Range
POSFEEDENABLE	TOGGLE	F	Positive Feedback IR Comp
POSFEEDRESISTANCE	QUANT	0	Positive Feedback Resistance (ohm)
ACHSELECT	IQUANT	0	Ach Select
CABLEID	IQUANT	13	Cable ID
DCCALDATE	LABEL	7/31/2020	DC Calibration Date
ACCALDATE	LABEL	7/31/2020	AC Calibration Date
THERMOSELECT	IQUANT	1	Thermo Select
FRAMEWORKVERSION	QUANT	6.33	Framework Version
INSTRUMENTVERSION	LABEL	3.50	Instrument Version
COMPLIANCEVOLTAGE	IQUANT	0	Compliance Voltage
ZCURVE	TABLE
	Pt	Time	Freq	Zreal	Zimag	Zsig	Zmod	Zphz	Idc	Vdc	IERange
	#	s	Hz	ohm	ohm	V	ohm	°	A	V	#
	0	6	300046.9	60.69219	-1.462912	1	60.70982	-1.380779	1.133705E-005	-0.0016179	9
	1	10	238359.4	60.91084	-2.385842	1	60.95755	-2.243095	-6.483284E-005	0.0014179	9
	2	13	189328.1	61.31298	-3.56694	1	61.41665	-3.329483	-5.58822E-005	0.0020499	9
	3	15	150421.9	61.51815	-4.513739	1	61.68352	-4.196414	-6.834746E-005	0.0018009	9
	4	18	119484.4	62.32208	-5.788498	1	62.59032	-5.30643	-6.361651E-008	0.0008955	9
	5	20	94921.88	63.08041	-6.903859	1	63.45709	-6.245898	-1.55369E-005	0.0003276	9
	6	23	75421.88	63.87318	-8.431246	1	64.42724	-7.519558	-1.643374E-005	0.0006708	9
	7	25	59859.37	64.83424	-10.17458	1	65.62774	-8.918811	-2.802194E-006	-0.0002464	9
	8	28	47578.12	65.99084	-12.04243	1	67.08064	-10.3419	-1.679661E-005	0.0004464	9
	9	30	37828.12	67.33788	-14.12813	1	68.80402	-11.84933	4.390311E-006	-0.0003779	9
	10	33	30046.88	68.8744	-16.45099	1	70.81184	-13.43368	2.207442E-005	-0.0004477	9
	11	35	23859.38	70.57487	-19.04488	1	73.09938	-15.10176	1.960645E-005	-0.0005911	9
	12	38	18984.38	72.40472	-21.99462	1	75.67171	-16.89738	1.72918E-005	-0.000137	9
	13	40	15046.87	74.38073	-25.35953	1	78.58498	-18.82641	2.054099E-005	-0.0006661	9
	14	42	11953.13	76.29687	-29.45105	1	81.78371	-21.10689	2.056357E-005	-0.0002244	9
	15	45	9515.62	78.22157	-34.17792	1	85.36243	-23.60231	2.133842E-005	-0.0005225	9
	16	47	7546.875	79.95615	-40.13136	1	89.46235	-26.65286	1.097786E-005	-0.0005263	9
	17	49	5928.309	81.75179	-48.04042	1	94.82214	-30.44009	-1.731328E-005	0.0004772	9
	18	52	4733.456	83.18764	-57.44988	1	101.0973	-34.62919	1.055219E-005	-0.0005003	9
	19	54	3796.875	84.68566	-68.88046	1	109.1612	-39.12374	1.594315E-005	-0.0005857	9
	20	56	2987.132	86.11086	-85.09947	1	121.0661	-44.66154	-1.742592E-005	0.000596	9
	21	59	2390.625	87.64661	-103.9277	1	135.9519	-49.85767	1.612752E-005	-0.0005888	9
	22	61	1884.191	89.06416	-129.3403	1	157.0393	-55.44859	-9.909194E-006	0.0007013	9
	23	63	1516.544	91.13906	-158.9225	1	183.2012	-60.16654	3.798364E-006	0.0003752	9
	24	66	1193.986	93.7758	-199.3586	1	220.3129	-64.80829	-1.775088E-005	0.000591	9
	25	68	946.5144	96.132	-248.9099	1	266.8285	-68.88284	3.253799E-006	0.0003528	9
	26	70	751.7689	100.0582	-309.9616	1	325.7113	-72.1095	3.907248E-006	0.0003727	9
	27	73	597.4265	106.2811	-386.2551	1	400.6104	-74.61534	2.170204E-005	-0.0005202	9
	28	75	477.4305	111.3866	-477.6613	1	490.4767	-76.87368	3.707909E-007	0.0006575	8
	29	77	376.6741	119.816	-600.1266	1	611.9705	-78.70929	3.635085E-007	0.0006521	8
	30	80	298.2954	130.6919	-751.2729	1	762.5558	-80.13155	3.67953E-007	0.0006577	8
	31	82	237.7717	144.5508	-934.383	1	945.498	-81.20595	3.740201E-007	0.0006517	8
	32	84	189.0121	162.8861	-1164.928	1	1176.261	-82.04022	3.736335E-007	0.0006554	8
	33	87	150.2404	187.0651	-1451.68	1	1463.683	-82.65726	3.746229E-007	0.0006567	8
	34	89	119.1737	219.4025	-1812.162	1	1825.396	-83.09667	3.806539E-007	0.0006561	8
	35	92	95.0169	260.5156	-2249.611	1	2264.645	-83.3943	3.751083E-007	0.0006532	8
	36	94	75.60484	315.3727	-2796.948	1	2814.672	-83.56673	3.572549E-007	0.0006534	8
	37	97	54.50582	426.2285	-3817.512	1	3841.233	-83.62926	3.8896E-007	0.0006441	8
	38	99	45.95588	506.0442	-4498.192	1	4526.567	-83.58125	4.318479E-008	0.0006337	7
	39	101	37.20238	629.9024	-5491.815	1	5527.821	-83.45686	4.258921E-008	0.0006158	7
	40	104	30.04808	793.0179	-6715.648	1	6762.308	-83.26541	3.0094E-008	0.0006765	7
	41	106	23.91582	1028.754	-8330.859	1	8394.138	-82.96035	2.968805E-008	0.0006333	7
	42	109	18.60119	1389.486	-10536.36	1	10627.59	-82.48745	3.911664E-008	0.0006217	7
	43	111	15.02404	1809.599	-12858.32	1	12985.04	-81.98917	4.446716E-008	0.0006491	7
	44	113	12.01923	2404.249	-15798.52	1	15980.41	-81.34701	3.920911E-008	0.0006237	7
	45	116	9.450605	3289.152	-19682.63	1	19955.56	-80.513	4.008351E-008	0.0006213	7
	46	118	7.512019	4463.04	-24257.64	1	24664.79	-79.57503	4.188955E-008	0.0006128	7
	47	121	5.978954	6067.777	-29724.96	1	30337.95	-78.46268	4.457856E-008	0.0006263	7
	48	124	4.734848	8330.66	-36479.4	1	37418.53	-77.13618	4.266808E-008	0.0006151	7
	49	127	3.75601	11413.43	-44426.01	1	45868.69	-75.5918	6.421734E-009	0.0006844	6
	50	131	3.004808	15393.25	-53428.06	1	55601.35	-73.92769	3.009516E-009	0.0006934	6
	51	134	2.372217	21043.4	-64430.09	1	67779.51	-71.91253	3.220136E-009	0.000703	6
	52	138	1.878005	28560.53	-77120.2	1	82238.85	-69.6785	4.168969E-009	0.0006558	6
	53	143	1.512097	37244.53	-90176.21	1	97564.9	-67.55843	2.364261E-009	0.0007494	6
	54	149	1.201923	49294.57	-105385.5	1	116344.6	-64.93194	2.73561E-009	0.000666	6
	55	155	0.956633	63860.19	-121660.4	1	137402.2	-62.30478	-2.359773E-009	2.9051E-005	6
