EXPLAIN
TAG	EISPOT
TITLE	LABEL	Potentiostatic EIS	Test Identifier
DATE	LABEL	8/29/2020	Date
TIME	LABEL	16:35:04	Time
NOTES	NOTES	1	Notes...
	
PSTAT	PSTAT	REF3000-16137	Potentiostat
VDC	POTEN	0.00000E+000	T	DC Voltage (V)
FREQINIT	QUANT	3.00000E+005	Initial Freq. (Hz)
FREQFINAL	QUANT	1.00000E+000	Final Freq. (Hz)
PTSPERDEC	QUANT	1.00000E+001	Points/decade
VAC	QUANT	5.00000E+001	AC Voltage (mV rms)
AREA	QUANT	1.00000E+000	Sample Area (cm^2)
SPEED	SELECTOR	2	Optimize for:
ZGUESS	QUANT	1.00000E+003	Estimated Z (ohms)
EOC	QUANT	0	Open Circuit (V)
SEQUENCER	TOGGLE	TRUE	Run as Sequence
PSTATMODEL	IQUANT	5	Pstat Model
PSTATSECTION	LABEL	REF3000-16137	Pstat Section
PSTATSERIALNO	LABEL	16137	Pstat Serial Number
CTRLMODE	IQUANT	1	Control Mode
IESTAB	IQUANT	0	I/E Stability
CASPEED	IQUANT	1	Control Amp Speed
CONVENTION	IQUANT	1	Current Convention
ICHRANGE	IQUANT	2	Ich Range
ICHRANGEMODE	TOGGLE	F	Ich Auto Range
ICHOFFSETENABLE	TOGGLE	T	Ich Offset Enable
ICHOFFSET	QUANT	0	Ich Offset (V)
ICHFILTER	IQUANT	3	Ich Filter
VCHRANGE	IQUANT	2	Vch Range
VCHRANGEMODE	TOGGLE	F	Vch Auto Range
VCHOFFSETENABLE	TOGGLE	T	Vch Offset Enable
VCHOFFSET	QUANT	0	Vch Offset (V)
VCHFILTER	IQUANT	3	Vch Filter
ACHRANGE	IQUANT	2	Ach Range
ACHOFFSETENABLE	TOGGLE	F	Ach Offset Enable
ACHOFFSET	QUANT	0	Ach Offset (V)
ACHFILTER	IQUANT	3	Ach Filter
IERANGELOWERLIMIT	IQUANT	2	I/E Range Lower Limit
IERANGEMODE	TOGGLE	F	I/E AutoRange
IERANGE	IQUANT	11	I/E Range
POSFEEDENABLE	TOGGLE	F	Positive Feedback IR Comp
POSFEEDRESISTANCE	QUANT	0	Positive Feedback Resistance (ohm)
ACHSELECT	IQUANT	0	Ach Select
CABLEID	IQUANT	13	Cable ID
DCCALDATE	LABEL	7/31/2020	DC Calibration Date
ACCALDATE	LABEL	7/31/2020	AC Calibration Date
THERMOSELECT	IQUANT	1	Thermo Select
FRAMEWORKVERSION	QUANT	6.33	Framework Version
INSTRUMENTVERSION	LABEL	3.50	Instrument Version
COMPLIANCEVOLTAGE	IQUANT	0	Compliance Voltage
ZCURVE	TABLE
	Pt	Time	Freq	Zreal	Zimag	Zsig	Zmod	Zphz	Idc	Vdc	IERange
	#	s	Hz	ohm	ohm	V	ohm	°	A	V	#
	0	15	300046.9	1570.955	-4221.032	1	4503.889	-69.58608	1.858434E-005	-0.0022745	9
	1	30	238359.4	2198.962	-4857.516	1	5332.063	-65.64408	7.225408E-007	0.001649	9
	2	44	189328.1	3110.776	-5593.554	1	6400.373	-60.91999	7.975227E-005	-0.0015864	9
	3	52	150421.9	4295.936	-6284.509	1	7612.498	-55.64445	1.846086E-005	-0.0003576	9
	4	59	119484.4	5668.865	-6965.14	1	8980.49	-50.85817	5.09903E-005	0.0001708	9
	5	68	94921.88	7398.709	-6929.258	1	10136.84	-43.12339	-1.595034E-005	0.0007394	8
	6	77	75421.88	8957.137	-6889.379	1	11300.17	-37.56567	-2.387774E-005	0.0053575	8
	7	85	59859.37	10451.64	-6581.05	1	12350.99	-32.19725	2.585488E-005	-0.0088379	8
	8	94	47578.12	11899.96	-6199.343	1	13417.93	-27.51749	2.592538E-005	-0.0051482	8
	9	103	37828.12	13033.33	-5652.501	1	14206.28	-23.44618	-2.638399E-005	0.0095524	8
	10	111	30046.88	14284.43	-5063.437	1	15155.31	-19.51801	2.568921E-005	-0.0088434	8
	11	120	23859.38	15015.17	-4243.51	1	15603.29	-15.78108	-1.131248E-006	-0.0050013	8
	12	126	18984.38	16177.53	-2880.957	1	16432.05	-10.0976	2.577918E-006	0.0093921	7
	13	130	15046.87	16425.92	-2487.09	1	16613.14	-8.609899	7.331631E-006	-0.0169885	7
	14	135	11953.13	16737.52	-2106.8	1	16869.6	-7.174254	-6.403405E-006	0.0107503	7
	15	139	9515.62	17138.41	-1762.806	1	17228.83	-5.872623	4.546368E-006	0.0005136	7
	16	143	7546.875	17285.58	-1495.776	1	17350.18	-4.945667	-3.864251E-006	0.0250906	7
	17	147	5928.309	17507.6	-1222.34	1	17550.21	-3.993778	2.045644E-007	0.0165351	7
	18	152	4733.456	17940.84	-1200.379	1	17980.95	-3.827818	4.59277E-006	0.0003295	7
	19	156	3796.875	18086.44	-1204.445	1	18126.5	-3.809921	-3.003823E-006	-0.0060117	7
	20	160	2987.132	18312.3	-1181.637	1	18350.38	-3.692004	1.537294E-006	-0.0199604	7
	21	165	2390.625	18491.28	-1294.163	1	18536.51	-4.003474	-5.444122E-006	0.0259159	7
	22	169	1884.191	18932.03	-1160.904	1	18967.59	-3.508959	-7.110169E-006	0.0177783	7
	23	173	1516.544	19282.19	-1276.338	1	19324.39	-3.78703	-6.471059E-006	0.0249764	7
	24	177	1193.986	19447.1	-1535.204	1	19507.6	-4.513716	-7.971155E-007	-0.0136182	7
	25	182	946.5144	19915.68	-1560.912	1	19976.75	-4.481455	-6.475959E-006	0.0249944	7
	26	185	751.7689	19859.95	-1612.034	1	19925.26	-4.640531	-7.102962E-006	0.0226064	7
	27	187	597.4265	20186.15	-2540.96	1	20345.44	-7.174454	-1.961174E-006	0.0219164	7
	28	190	477.4305	20734.41	-2476.36	1	20881.77	-6.81071	-7.049418E-008	0.0006041	7
	29	192	376.6741	21117.42	-2879.509	1	21312.83	-7.764796	-7.049158E-008	0.0005981	7
	30	194	298.2954	21547.47	-3344.162	1	21805.43	-8.82191	-7.317398E-008	0.0006746	7
	31	197	237.7717	22017.38	-3855.316	1	22352.37	-9.93199	-6.936953E-008	0.0005841	7
	32	199	189.0121	22547.72	-4456.474	1	22983.9	-11.1802	-7.33885E-008	0.0006614	7
	33	202	150.2404	23131.49	-5150.486	1	23697.96	-12.55278	-7.875165E-008	0.0006842	7
	34	204	119.1737	23761.75	-5979.169	1	24502.47	-14.12411	-6.488651E-008	0.0005724	7
	35	206	95.0169	24471.52	-6862.928	1	25415.65	-15.66591	-6.826904E-008	0.00063	7
	36	209	75.60484	25213.24	-7938.191	1	26433.35	-17.4762	-6.380471E-008	0.000575	7
	37	212	54.50582	26313.08	-9805.46	1	28080.69	-20.43769	-6.792769E-008	0.0006305	7
	38	214	45.95588	26962.28	-11003.96	1	29121.32	-22.20156	-7.299014E-008	0.0006718	7
	39	216	37.20238	27755.26	-12729.33	1	30535.07	-24.63751	-6.468773E-008	0.0005963	7
	40	219	30.04808	28586.57	-14832.92	1	32205.71	-27.42377	-6.87679E-008	0.0005867	7
	41	221	23.91582	29460.86	-17588.59	1	34311.82	-30.83785	-6.982525E-008	0.0006002	7
	42	224	18.60119	30392.44	-21396.89	1	37168.9	-35.14632	-6.5544E-008	0.0005895	7
	43	226	15.02404	31267.97	-25516.2	1	40357.93	-39.21613	-8.022684E-009	0.0006142	6
	44	228	12.01923	32123.3	-30838.81	1	44530.2	-43.83127	-8.396457E-009	0.0006935	6
	45	231	9.450605	33080.88	-38083.11	1	50444.7	-49.02079	-7.672669E-009	0.0007019	6
	46	233	7.512019	34093.45	-46820.16	1	57917.96	-53.93869	-6.889523E-009	0.0006676	6
	47	236	5.978954	35249.48	-57736.38	1	67646.25	-58.59491	-7.496714E-009	0.0006247	6
	48	239	4.734848	36642.08	-71737.57	1	80553.84	-62.94299	-7.984623E-009	0.0007174	6
	49	242	3.75601	38293.12	-89233.1	1	97102.6	-66.77409	-7.425649E-009	0.000641	6
	50	246	3.004808	40180.74	-110182.6	1	117280.4	-69.96439	-7.616848E-009	0.0007366	6
	51	249	2.372217	42614.75	-137735.2	1	144177	-72.80813	-8.143188E-009	0.0006773	6
	52	254	1.878005	45887.81	-172466.5	1	178466.8	-75.10062	-7.527547E-009	0.0006456	6
	53	258	1.512097	49261.23	-212053.9	1	217700.6	-76.92185	-7.875203E-009	0.0007528	6
	54	264	1.201923	54236	-264528.4	1	270031.2	-78.41328	-7.541904E-009	0.0006679	6
	55	270	0.956633	60209.45	-329031.7	1	334495.2	-79.63019	-7.869239E-009	1.920862E-005	6
