EXPLAIN
TAG	EISPOT
TITLE	LABEL	Potentiostatic EIS	Test Identifier
DATE	LABEL	8/29/2020	Date
TIME	LABEL	18:05:36	Time
NOTES	NOTES	1	Notes...
	
PSTAT	PSTAT	REF3000-16137	Potentiostat
VDC	POTEN	0.00000E+000	T	DC Voltage (V)
FREQINIT	QUANT	3.00000E+005	Initial Freq. (Hz)
FREQFINAL	QUANT	1.00000E+000	Final Freq. (Hz)
PTSPERDEC	QUANT	1.00000E+001	Points/decade
VAC	QUANT	5.00000E+001	AC Voltage (mV rms)
AREA	QUANT	1.00000E+000	Sample Area (cm^2)
SPEED	SELECTOR	2	Optimize for:
ZGUESS	QUANT	1.00000E+003	Estimated Z (ohms)
EOC	QUANT	0	Open Circuit (V)
SEQUENCER	TOGGLE	TRUE	Run as Sequence
PSTATMODEL	IQUANT	5	Pstat Model
PSTATSECTION	LABEL	REF3000-16137	Pstat Section
PSTATSERIALNO	LABEL	16137	Pstat Serial Number
CTRLMODE	IQUANT	1	Control Mode
IESTAB	IQUANT	0	I/E Stability
CASPEED	IQUANT	1	Control Amp Speed
CONVENTION	IQUANT	1	Current Convention
ICHRANGE	IQUANT	2	Ich Range
ICHRANGEMODE	TOGGLE	F	Ich Auto Range
ICHOFFSETENABLE	TOGGLE	T	Ich Offset Enable
ICHOFFSET	QUANT	0	Ich Offset (V)
ICHFILTER	IQUANT	3	Ich Filter
VCHRANGE	IQUANT	2	Vch Range
VCHRANGEMODE	TOGGLE	F	Vch Auto Range
VCHOFFSETENABLE	TOGGLE	T	Vch Offset Enable
VCHOFFSET	QUANT	0	Vch Offset (V)
VCHFILTER	IQUANT	3	Vch Filter
ACHRANGE	IQUANT	2	Ach Range
ACHOFFSETENABLE	TOGGLE	F	Ach Offset Enable
ACHOFFSET	QUANT	0	Ach Offset (V)
ACHFILTER	IQUANT	3	Ach Filter
IERANGELOWERLIMIT	IQUANT	2	I/E Range Lower Limit
IERANGEMODE	TOGGLE	F	I/E AutoRange
IERANGE	IQUANT	11	I/E Range
POSFEEDENABLE	TOGGLE	F	Positive Feedback IR Comp
POSFEEDRESISTANCE	QUANT	0	Positive Feedback Resistance (ohm)
ACHSELECT	IQUANT	0	Ach Select
CABLEID	IQUANT	13	Cable ID
DCCALDATE	LABEL	7/31/2020	DC Calibration Date
ACCALDATE	LABEL	7/31/2020	AC Calibration Date
THERMOSELECT	IQUANT	1	Thermo Select
FRAMEWORKVERSION	QUANT	6.33	Framework Version
INSTRUMENTVERSION	LABEL	3.50	Instrument Version
COMPLIANCEVOLTAGE	IQUANT	0	Compliance Voltage
ZCURVE	TABLE
	Pt	Time	Freq	Zreal	Zimag	Zsig	Zmod	Zphz	Idc	Vdc	IERange
	#	s	Hz	ohm	ohm	V	ohm	°	A	V	#
	0	6	300046.9	42.68486	-1.06799	1	42.69822	-1.433262	1.051804E-005	-0.0014646	9
	1	10	238359.4	42.85849	-1.870435	1	42.89929	-2.498922	5.474123E-005	-0.0023155	9
	2	13	189328.1	43.14112	-2.946495	1	43.24162	-3.907176	2.532813E-005	-0.0003123	9
	3	15	150421.9	43.55746	-3.938402	1	43.73515	-5.166551	1.493647E-005	-0.0005684	9
	4	18	119484.4	43.95192	-4.987433	1	44.23399	-6.473932	1.041366E-005	-0.0006242	9
	5	20	94921.88	44.60017	-5.954056	1	44.99585	-7.60394	-1.075596E-005	0.0005748	9
	6	23	75421.88	45.26157	-7.224584	1	45.83454	-9.068962	-1.149121E-005	0.0001825	9
	7	26	59859.37	46.05974	-8.645621	1	46.86412	-10.63098	1.790339E-005	-0.0002985	9
	8	28	47578.12	46.96276	-10.1995	1	48.05758	-12.25336	-1.194847E-005	0.0001749	9
	9	31	37828.12	47.99326	-11.89129	1	49.44447	-13.91593	-1.197073E-005	0.0002401	9
	10	33	30046.88	49.1432	-13.8174	1	51.04875	-15.70418	-1.424964E-005	0.0006434	9
	11	36	23859.38	50.38865	-15.98716	1	52.86403	-17.60303	-1.116817E-005	0.0006516	9
	12	38	18984.38	51.65606	-18.4761	1	54.86087	-19.68088	4.825158E-006	0.0003178	9
	13	40	15046.87	52.93876	-21.44707	1	57.11821	-22.05433	-3.077251E-006	-7.533675E-005	9
	14	43	11953.13	54.12899	-25.07689	1	59.65566	-24.85736	1.874356E-005	-0.0004466	9
	15	45	9515.62	55.21334	-29.59653	1	62.64557	-28.19306	1.926367E-005	-0.0003627	9
	16	47	7546.875	56.23568	-35.33134	1	66.41351	-32.14003	1.871238E-005	-0.0004048	9
	17	50	5928.309	57.19067	-43.06049	1	71.58896	-36.97713	-8.393537E-006	0.000097	9
	18	52	4733.456	58.03501	-52.22737	1	78.07536	-41.98495	-1.190622E-005	0.0006281	9
	19	54	3796.875	58.92405	-63.55647	1	86.66873	-47.16599	1.999494E-005	-0.0003591	9
	20	57	2987.132	60.07402	-79.03409	1	99.2737	-52.76144	-1.217245E-005	0.0002395	9
	21	59	2390.625	61.19169	-97.4067	1	115.0325	-57.86262	-1.482802E-005	0.0003888	9
	22	61	1884.191	62.79282	-121.6089	1	136.8637	-62.69041	-1.509323E-005	0.000455	9
	23	63	1516.544	64.70782	-149.5899	1	162.9854	-66.60824	-8.441112E-006	0.0000986	9
	24	66	1193.986	67.06213	-188.2651	1	199.8526	-70.39353	1.877506E-005	-0.0002517	9
	25	68	946.5144	71.00702	-234.1218	1	244.6529	-73.12793	-2.683064E-006	-8.50008E-005	9
	26	71	751.7689	74.49538	-293.3567	1	302.6677	-75.75142	1.942194E-005	-0.0004456	9
	27	73	597.4265	79.17007	-365.6573	1	374.1299	-77.78321	8.802443E-006	-0.0004122	9
	28	75	477.4305	85.90615	-451.4219	1	459.5232	-79.22537	4.111867E-007	0.0006553	8
	29	78	376.6741	95.2285	-566.7242	1	574.6693	-80.46151	4.166899E-007	0.0006499	8
	30	80	298.2954	107.4434	-708.7592	1	716.8568	-81.37995	4.107445E-007	0.0006638	8
	31	82	237.7717	123.2962	-880.4788	1	889.0696	-82.02853	4.16243E-007	0.0006465	8
	32	85	189.0121	144.5815	-1096.306	1	1105.799	-82.48715	3.823634E-007	0.0007053	8
	33	87	150.2404	173.1942	-1364.109	1	1375.06	-82.76415	4.202376E-007	0.0006493	8
	34	90	119.1737	212.0118	-1699.949	1	1713.119	-82.89098	4.240491E-007	0.0006505	8
	35	92	95.0169	262.9851	-2106.679	1	2123.031	-82.88435	4.234528E-007	0.0006532	8
	36	94	75.60484	332.9463	-2614.045	1	2635.164	-82.74142	4.118365E-007	0.0006657	8
	37	97	54.50582	479.455	-3555.563	1	3587.743	-82.32019	4.363888E-007	0.0006444	8
	38	99	45.95588	588.944	-4179.247	1	4220.541	-81.97864	4.377159E-008	0.0006371	7
	39	102	37.20238	763.4847	-5085.75	1	5142.739	-81.46238	4.622038E-008	0.0006253	7
	40	104	30.04808	1002.23	-6188.781	1	6269.408	-80.80121	3.24079E-008	0.0006356	7
	41	107	23.91582	1358.968	-7643.567	1	7763.435	-79.91859	3.125058E-008	0.0006212	7
	42	109	18.60119	1902.608	-9573.27	1	9760.5	-78.7594	5.142172E-008	0.000622	7
	43	111	15.02404	2552.086	-11567.97	1	11846.14	-77.55889	4.215327E-008	0.000641	7
	44	113	12.01923	3488.704	-14037.12	1	14464.16	-76.04283	3.705929E-008	0.0006215	7
	45	116	9.450605	4881.674	-17202.97	1	17882.2	-74.15769	3.791643E-008	0.0006341	7
	46	118	7.512019	6720.278	-20690.89	1	21754.89	-72.00651	3.874359E-008	0.0006133	7
	47	121	5.978954	9196.517	-24635.56	1	26296.14	-69.52927	3.757781E-008	0.000627	7
	48	124	4.734848	12591.45	-29111.59	1	31717.97	-66.61037	4.257782E-008	0.0006223	7
	49	127	3.75601	16974.14	-33755.82	1	37783.29	-63.30442	4.071874E-008	0.0006324	7
	50	131	3.004808	22327.61	-38179.61	1	44229.01	-59.68071	-3.259319E-009	0.0006404	6
	51	135	2.372217	29147.7	-42693.58	1	51694.58	-55.67792	-1.029109E-008	0.0006102	6
	52	139	1.878005	37151.77	-46031.13	1	59153.35	-51.09297	-1.090546E-008	0.0006789	6
	53	144	1.512097	45165.93	-48092.4	1	65976.06	-46.79736	-1.011596E-008	0.0005605	6
	54	149	1.201923	54009.9	-48535.62	1	72613.88	-41.94423	-1.328643E-008	0.0006821	6
	55	162	0.956633	62556.12	-47818.8	1	78739.48	-37.39482	-2.135782E-008	2.797801E-005	6
