EXPLAIN
TAG	EISPOT
TITLE	LABEL	Potentiostatic EIS	Test Identifier
DATE	LABEL	8/29/2020	Date
TIME	LABEL	15:31:10	Time
NOTES	NOTES	1	Notes...
	
PSTAT	PSTAT	REF3000-16137	Potentiostat
VDC	POTEN	0.00000E+000	T	DC Voltage (V)
FREQINIT	QUANT	3.00000E+005	Initial Freq. (Hz)
FREQFINAL	QUANT	1.00000E+000	Final Freq. (Hz)
PTSPERDEC	QUANT	1.00000E+001	Points/decade
VAC	QUANT	5.00000E+001	AC Voltage (mV rms)
AREA	QUANT	1.00000E+000	Sample Area (cm^2)
SPEED	SELECTOR	2	Optimize for:
ZGUESS	QUANT	1.00000E+003	Estimated Z (ohms)
EOC	QUANT	0	Open Circuit (V)
SEQUENCER	TOGGLE	TRUE	Run as Sequence
PSTATMODEL	IQUANT	5	Pstat Model
PSTATSECTION	LABEL	REF3000-16137	Pstat Section
PSTATSERIALNO	LABEL	16137	Pstat Serial Number
CTRLMODE	IQUANT	1	Control Mode
IESTAB	IQUANT	0	I/E Stability
CASPEED	IQUANT	1	Control Amp Speed
CONVENTION	IQUANT	1	Current Convention
ICHRANGE	IQUANT	2	Ich Range
ICHRANGEMODE	TOGGLE	F	Ich Auto Range
ICHOFFSETENABLE	TOGGLE	T	Ich Offset Enable
ICHOFFSET	QUANT	0	Ich Offset (V)
ICHFILTER	IQUANT	3	Ich Filter
VCHRANGE	IQUANT	2	Vch Range
VCHRANGEMODE	TOGGLE	F	Vch Auto Range
VCHOFFSETENABLE	TOGGLE	T	Vch Offset Enable
VCHOFFSET	QUANT	0	Vch Offset (V)
VCHFILTER	IQUANT	3	Vch Filter
ACHRANGE	IQUANT	2	Ach Range
ACHOFFSETENABLE	TOGGLE	F	Ach Offset Enable
ACHOFFSET	QUANT	0	Ach Offset (V)
ACHFILTER	IQUANT	3	Ach Filter
IERANGELOWERLIMIT	IQUANT	2	I/E Range Lower Limit
IERANGEMODE	TOGGLE	F	I/E AutoRange
IERANGE	IQUANT	11	I/E Range
POSFEEDENABLE	TOGGLE	F	Positive Feedback IR Comp
POSFEEDRESISTANCE	QUANT	0	Positive Feedback Resistance (ohm)
ACHSELECT	IQUANT	0	Ach Select
CABLEID	IQUANT	13	Cable ID
DCCALDATE	LABEL	7/31/2020	DC Calibration Date
ACCALDATE	LABEL	7/31/2020	AC Calibration Date
THERMOSELECT	IQUANT	1	Thermo Select
FRAMEWORKVERSION	QUANT	6.33	Framework Version
INSTRUMENTVERSION	LABEL	3.50	Instrument Version
COMPLIANCEVOLTAGE	IQUANT	0	Compliance Voltage
ZCURVE	TABLE
	Pt	Time	Freq	Zreal	Zimag	Zsig	Zmod	Zphz	Idc	Vdc	IERange
	#	s	Hz	ohm	ohm	V	ohm	°	A	V	#
	0	7	300046.9	91.37669	-2.025905	1	91.39915	-1.270092	-7.023614E-005	0.0024629	9
	1	10	238359.4	91.77694	-3.190279	1	91.83237	-1.99087	-7.032549E-005	0.0016804	9
	2	14	189328.1	92.39738	-4.124866	1	92.48941	-2.556139	1.575922E-005	-0.0011403	9
	3	16	150421.9	92.69635	-5.52973	1	92.86114	-3.41389	-3.172002E-005	-0.0002666	9
	4	19	119484.4	93.48664	-6.865589	1	93.7384	-4.200219	-4.17953E-006	0.0011042	9
	5	21	94921.88	94.23359	-8.10348	1	94.58137	-4.914976	2.414874E-005	-0.000465	9
	6	24	75421.88	95.1521	-9.9643	1	95.6724	-5.978208	2.394192E-005	-0.0005841	9
	7	26	59859.37	96.3694	-12.04204	1	97.1189	-7.122594	-1.894334E-005	0.0004393	9
	8	29	47578.12	97.7632	-14.33409	1	98.8085	-8.3413	-5.433857E-006	0.0006416	9
	9	31	37828.12	99.398	-16.85854	1	100.8175	-9.62613	-1.644198E-005	0.0007712	9
	10	34	30046.88	101.2895	-19.7063	1	103.1887	-11.0096	2.194075E-005	-0.0003073	9
	11	36	23859.38	103.4059	-22.94486	1	105.921	-12.51073	-1.45553E-005	0.0001761	9
	12	39	18984.38	105.851	-26.55642	1	109.1315	-14.08396	1.834281E-005	-0.0001456	9
	13	41	15046.87	108.5766	-30.80418	1	112.8618	-15.83912	-1.955357E-005	0.0004846	9
	14	43	11953.13	111.4384	-35.5052	1	116.9578	-17.67231	-1.783035E-005	0.0004956	9
	15	46	9515.62	114.4811	-40.85052	1	121.5512	-19.63803	-2.031194E-005	0.0006128	9
	16	48	7546.875	117.5349	-47.28343	1	126.6893	-21.91456	-1.966887E-005	0.0006645	9
	17	50	5928.309	120.6887	-55.60172	1	132.8809	-24.73569	-2.411991E-006	-0.0002395	9
	18	53	4733.456	123.2456	-65.24323	1	139.4494	-27.89567	2.361636E-005	-0.0004331	9
	19	55	3796.875	125.7477	-76.9827	1	147.4409	-31.47496	-2.246927E-006	-0.0002585	9
	20	57	2987.132	128.0356	-93.42368	1	158.4963	-36.1171	-5.440027E-006	0.0006939	9
	21	59	2390.625	130.1614	-113.0601	1	172.4082	-40.97807	-1.734867E-005	0.000803	9
	22	62	1884.191	132.1348	-139.0015	1	191.7838	-46.45076	1.144868E-005	0.0001901	9
	23	64	1516.544	134.714	-169.6676	1	216.6448	-51.55086	-1.718306E-005	0.0008324	9
	24	66	1193.986	137.6236	-211.5038	1	252.3374	-56.94831	-1.954287E-005	0.0007718	9
	25	69	946.5144	140.7038	-263.7805	1	298.9611	-61.92398	-1.664988E-005	0.0003725	9
	26	71	751.7689	144.6569	-327.5732	1	358.0919	-66.17366	5.541422E-006	-0.0004727	9
	27	74	597.4265	149.289	-406.867	1	433.3912	-69.85073	5.018725E-006	8.465871E-005	8
	28	76	477.4305	155.8386	-504.3377	1	527.8657	-72.82903	2.698354E-007	0.000646	8
	29	78	376.6741	164.293	-633.504	1	654.4612	-75.4612	2.834631E-007	0.000645	8
	30	80	298.2954	175.1325	-793.054	1	812.1613	-77.54707	2.869351E-007	0.000648	8
	31	83	237.7717	188.7941	-986.469	1	1004.373	-79.16553	2.882128E-007	0.0006422	8
	32	85	189.0121	206.7761	-1230.158	1	1247.416	-80.4584	2.948604E-007	0.0006474	8
	33	88	150.2404	230.2176	-1533.544	1	1550.728	-81.46244	2.78862E-007	0.0006515	8
	34	90	119.1737	260.916	-1915.113	1	1932.805	-82.24176	2.812282E-007	0.0006493	8
	35	93	95.0169	300.3203	-2378.643	1	2397.527	-82.80408	2.797867E-007	0.0006497	8
	36	95	75.60484	351.8334	-2959.717	1	2980.555	-83.22083	2.81723E-007	0.0006511	8
	37	98	54.50582	453.5197	-4043.032	1	4068.389	-83.59971	2.782989E-007	0.0006956	8
	38	100	45.95588	525.4836	-4766.398	1	4795.277	-83.70869	3.183747E-008	0.0006225	7
	39	103	37.20238	635.5031	-5827.946	1	5862.493	-83.77682	2.852521E-008	0.0006191	7
	40	105	30.04808	779.8812	-7140.204	1	7182.668	-83.76664	2.430989E-008	0.0006306	7
	41	107	23.91582	981.393	-8851.305	1	8905.545	-83.67314	2.396911E-008	0.0006222	7
	42	110	18.60119	1288.416	-11234.87	1	11308.51	-83.45789	3.073745E-008	0.0006305	7
	43	112	15.02404	1642.728	-13743.18	1	13841.01	-83.18375	3.044447E-008	0.0006371	7
	44	114	12.01923	2136.758	-16940.7	1	17074.92	-82.81115	2.66201E-008	0.0006234	7
	45	117	9.450605	2872.833	-21217.95	1	21411.55	-82.28925	2.517962E-008	0.0006268	7
	46	119	7.512019	3827.884	-26234.72	1	26512.51	-81.6986	2.776924E-008	0.0006122	7
	47	122	5.978954	5129.252	-32356.26	1	32760.29	-80.99219	2.841565E-008	0.0006327	7
	48	125	4.734848	6983.171	-39982.58	1	40587.82	-80.09292	2.781238E-008	0.000606	7
	49	128	3.75601	9520.61	-49188.66	1	50101.56	-79.04568	4.127651E-009	0.0006778	6
	50	132	3.004808	12773.81	-59835.3	1	61183.61	-77.94923	3.83611E-009	0.0006444	6
	51	135	2.372217	17555.94	-73365.44	1	75436.72	-76.5425	2.390063E-009	0.0005931	6
	52	140	1.878005	23701.96	-89323.89	1	92415.05	-75.13911	3.513046E-009	0.0006755	6
	53	144	1.512097	31113.75	-106375.6	1	110832.5	-73.69635	2.4476E-009	0.0006694	6
	54	150	1.201923	41567.56	-127841.2	1	134429.3	-71.98807	2.581658E-009	0.0006921	6
	55	156	0.956633	54674.45	-152142.3	1	161668.1	-70.2334	2.07833E-010	2.981817E-005	6
