EXPLAIN
TAG	EISPOT
TITLE	LABEL	Potentiostatic EIS	Test Identifier
DATE	LABEL	8/29/2020	Date
TIME	LABEL	15:53:25	Time
NOTES	NOTES	1	Notes...
	
PSTAT	PSTAT	REF3000-16137	Potentiostat
VDC	POTEN	0.00000E+000	T	DC Voltage (V)
FREQINIT	QUANT	3.00000E+005	Initial Freq. (Hz)
FREQFINAL	QUANT	1.00000E+000	Final Freq. (Hz)
PTSPERDEC	QUANT	1.00000E+001	Points/decade
VAC	QUANT	5.00000E+001	AC Voltage (mV rms)
AREA	QUANT	1.00000E+000	Sample Area (cm^2)
SPEED	SELECTOR	2	Optimize for:
ZGUESS	QUANT	1.00000E+003	Estimated Z (ohms)
EOC	QUANT	0	Open Circuit (V)
SEQUENCER	TOGGLE	TRUE	Run as Sequence
PSTATMODEL	IQUANT	5	Pstat Model
PSTATSECTION	LABEL	REF3000-16137	Pstat Section
PSTATSERIALNO	LABEL	16137	Pstat Serial Number
CTRLMODE	IQUANT	1	Control Mode
IESTAB	IQUANT	0	I/E Stability
CASPEED	IQUANT	1	Control Amp Speed
CONVENTION	IQUANT	1	Current Convention
ICHRANGE	IQUANT	2	Ich Range
ICHRANGEMODE	TOGGLE	F	Ich Auto Range
ICHOFFSETENABLE	TOGGLE	T	Ich Offset Enable
ICHOFFSET	QUANT	0	Ich Offset (V)
ICHFILTER	IQUANT	3	Ich Filter
VCHRANGE	IQUANT	2	Vch Range
VCHRANGEMODE	TOGGLE	F	Vch Auto Range
VCHOFFSETENABLE	TOGGLE	T	Vch Offset Enable
VCHOFFSET	QUANT	0	Vch Offset (V)
VCHFILTER	IQUANT	3	Vch Filter
ACHRANGE	IQUANT	2	Ach Range
ACHOFFSETENABLE	TOGGLE	F	Ach Offset Enable
ACHOFFSET	QUANT	0	Ach Offset (V)
ACHFILTER	IQUANT	3	Ach Filter
IERANGELOWERLIMIT	IQUANT	2	I/E Range Lower Limit
IERANGEMODE	TOGGLE	F	I/E AutoRange
IERANGE	IQUANT	11	I/E Range
POSFEEDENABLE	TOGGLE	F	Positive Feedback IR Comp
POSFEEDRESISTANCE	QUANT	0	Positive Feedback Resistance (ohm)
ACHSELECT	IQUANT	0	Ach Select
CABLEID	IQUANT	13	Cable ID
DCCALDATE	LABEL	7/31/2020	DC Calibration Date
ACCALDATE	LABEL	7/31/2020	AC Calibration Date
THERMOSELECT	IQUANT	1	Thermo Select
FRAMEWORKVERSION	QUANT	6.33	Framework Version
INSTRUMENTVERSION	LABEL	3.50	Instrument Version
COMPLIANCEVOLTAGE	IQUANT	0	Compliance Voltage
ZCURVE	TABLE
	Pt	Time	Freq	Zreal	Zimag	Zsig	Zmod	Zphz	Idc	Vdc	IERange
	#	s	Hz	ohm	ohm	V	ohm	°	A	V	#
	0	8	300046.9	239.7417	-10.63327	1	239.9773	-2.539578	8.248739E-005	-0.0031961	9
	1	14	238359.4	240.6968	-15.35824	1	241.1863	-3.650946	-5.204588E-006	0.0005061	10
	2	18	189328.1	242.5618	-14.73573	1	243.009	-3.47647	2.473757E-005	0.0004771	10
	3	24	150421.9	244.8206	-12.00967	1	245.115	-2.808391	-1.547185E-005	0.0011835	9
	4	30	119484.4	246.3688	-12.70339	1	246.6961	-2.9517	-3.090128E-005	-0.0005619	9
	5	34	94921.88	247.7418	-13.82759	1	248.1274	-3.194622	-1.010153E-006	-0.0004014	9
	6	38	75421.88	249.5077	-15.54336	1	249.9913	-3.564699	2.032311E-005	-4.086106E-005	9
	7	41	59859.37	251.3698	-18.30411	1	252.0354	-4.164781	-1.76174E-005	0.0010831	9
	8	45	47578.12	254.0587	-22.2164	1	255.0282	-4.997571	1.265118E-007	0.0006092	10
	9	49	37828.12	256.1702	-24.90808	1	257.3783	-5.553557	-2.141584E-005	0.000461	9
	10	52	30046.88	259.6752	-29.20208	1	261.312	-6.416306	2.390231E-005	-0.0006628	9
	11	56	23859.38	263.017	-34.24742	1	265.2373	-7.41874	2.238405E-005	-0.0008263	9
	12	59	18984.38	267.0902	-40.3106	1	270.115	-8.582593	-2.377861E-005	0.0008399	9
	13	62	15046.87	271.1612	-46.824	1	275.1743	-9.79719	-2.215653E-005	0.000521	9
	14	64	11953.13	276.4847	-54.44299	1	281.7939	-11.13967	-1.578872E-005	0.0001473	9
	15	67	9515.62	283.3284	-63.06193	1	290.2616	-12.54809	1.593909E-005	-0.0007922	9
	16	69	7546.875	290.3799	-73.15773	1	299.4538	-14.1407	-2.20686E-005	0.0009574	9
	17	71	5928.309	297.9024	-84.94456	1	309.7764	-15.91509	-1.063506E-006	-0.0003801	9
	18	74	4733.456	305.9028	-97.4931	1	321.063	-17.6774	-9.046842E-006	0.0009058	9
	19	76	3796.875	314.5094	-112.7155	1	334.0972	-19.71692	-1.720819E-005	0.0009847	9
	20	78	2987.132	322.5079	-130.2637	1	347.8217	-21.99421	2.386195E-005	-0.0002181	9
	21	81	2390.625	331.6869	-151.4836	1	364.6416	-24.5465	-1.775113E-005	0.0003227	9
	22	83	1884.191	340.1053	-180.278	1	384.9309	-27.9265	-2.160781E-005	0.0004861	9
	23	86	1516.544	346.7662	-210.7001	1	405.7602	-31.28346	-2.157678E-005	0.0004941	9
	24	88	1193.986	352.893	-254.5388	1	435.1132	-35.8026	1.083895E-005	-0.0035972	8
	25	91	946.5144	360.4486	-309.1378	1	474.8572	-40.61796	-9.325138E-006	0.0049631	8
	26	93	751.7689	367.2756	-378.7426	1	527.5768	-45.88062	-5.722117E-006	0.0001698	8
	27	95	597.4265	374.5225	-464.2121	1	596.4562	-51.1037	-1.116698E-005	0.0040088	8
	28	98	477.4305	381.8175	-572.5468	1	688.1819	-56.30164	1.522919E-008	0.0006977	8
	29	100	376.6741	391.7101	-715.0812	1	815.3391	-61.28677	5.906304E-008	0.0006445	8
	30	102	298.2954	403.5605	-892.0909	1	979.126	-65.65914	1.734817E-008	0.0006997	8
	31	104	237.7717	417.8644	-1107.582	1	1183.785	-69.32969	4.77306E-008	0.0006567	8
	32	107	189.0121	436.0146	-1380.016	1	1447.257	-72.46613	5.743791E-008	0.0006467	8
	33	109	150.2404	459.1664	-1720.361	1	1780.583	-75.05604	4.044363E-008	0.0006454	8
	34	112	119.1737	489.0748	-2149.271	1	2204.214	-77.18042	3.865931E-008	0.0006569	8
	35	114	95.0169	526.8803	-2672.311	1	2723.756	-78.84646	6.873235E-008	0.0006477	8
	36	117	75.60484	576.4785	-3328.996	1	3378.541	-80.17558	6.83206E-008	0.0006443	8
	37	119	54.50582	673.5696	-4556.488	1	4606.004	-81.59106	5.031136E-008	0.0007027	8
	38	122	45.95588	742.1913	-5376.754	1	5427.738	-82.14072	-3.252334E-009	0.0006362	7
	39	124	37.20238	844.0588	-6578.969	1	6632.893	-82.68909	-2.182931E-009	0.0006103	7
	40	126	30.04808	975.731	-8068.856	1	8127.638	-83.10496	-1.090068E-009	0.0006145	7
	41	129	23.91582	1155.53	-10031.03	1	10097.37	-83.42875	-1.628683E-009	0.0006117	7
	42	131	18.60119	1412.991	-12747.1	1	12825.17	-83.6747	-3.572408E-009	0.0006248	7
	43	134	15.02404	1704.174	-15616.45	1	15709.16	-83.77214	-1.297609E-009	0.0006193	7
	44	136	12.01923	2095.908	-19300.02	1	19413.49	-83.80219	-6.858993E-009	0.0006737	7
	45	138	9.450605	2665.617	-24242.69	1	24388.8	-83.72522	-2.258908E-009	0.0006154	7
	46	141	7.512019	3385.494	-30126.14	1	30315.77	-83.58816	-7.734302E-010	0.0006082	7
	47	144	5.978954	4342.279	-37350.01	1	37601.58	-83.36861	-7.567728E-010	0.0006269	7
	48	147	4.734848	5662.935	-46500.24	1	46843.79	-83.05654	-1.12463E-009	0.0006405	6
	49	150	3.75601	7480.085	-57740.08	1	58222.58	-82.61858	2.896055E-010	0.0006934	6
	50	153	3.004808	9788.53	-70968.23	1	71640.11	-82.14684	2.487492E-010	0.0006528	6
	51	157	2.372217	13223	-88176.85	1	89162.8	-81.47148	-5.767031E-010	0.0006231	6
	52	161	1.878005	17629.33	-109349.9	1	110761.9	-80.84161	4.620658E-010	0.0006646	6
	53	166	1.512097	22944.4	-132767.4	1	134735.4	-80.19518	-5.149141E-010	0.0007256	6
	54	171	1.201923	30937.61	-163225.2	1	166131.3	-79.26751	1.29237E-010	0.0006752	6
	55	178	0.956633	41112.72	-199337.2	1	203532.7	-78.34631	-1.432904E-009	2.869991E-005	6
