EXPLAIN
TAG	EISPOT
TITLE	LABEL	Potentiostatic EIS	Test Identifier
DATE	LABEL	8/29/2020	Date
TIME	LABEL	17:38:31	Time
NOTES	NOTES	1	Notes...
	
PSTAT	PSTAT	REF3000-16137	Potentiostat
VDC	POTEN	0.00000E+000	T	DC Voltage (V)
FREQINIT	QUANT	3.00000E+005	Initial Freq. (Hz)
FREQFINAL	QUANT	1.00000E+000	Final Freq. (Hz)
PTSPERDEC	QUANT	1.00000E+001	Points/decade
VAC	QUANT	5.00000E+001	AC Voltage (mV rms)
AREA	QUANT	1.00000E+000	Sample Area (cm^2)
SPEED	SELECTOR	2	Optimize for:
ZGUESS	QUANT	1.00000E+003	Estimated Z (ohms)
EOC	QUANT	0	Open Circuit (V)
SEQUENCER	TOGGLE	TRUE	Run as Sequence
PSTATMODEL	IQUANT	5	Pstat Model
PSTATSECTION	LABEL	REF3000-16137	Pstat Section
PSTATSERIALNO	LABEL	16137	Pstat Serial Number
CTRLMODE	IQUANT	1	Control Mode
IESTAB	IQUANT	0	I/E Stability
CASPEED	IQUANT	1	Control Amp Speed
CONVENTION	IQUANT	1	Current Convention
ICHRANGE	IQUANT	2	Ich Range
ICHRANGEMODE	TOGGLE	F	Ich Auto Range
ICHOFFSETENABLE	TOGGLE	T	Ich Offset Enable
ICHOFFSET	QUANT	0	Ich Offset (V)
ICHFILTER	IQUANT	3	Ich Filter
VCHRANGE	IQUANT	2	Vch Range
VCHRANGEMODE	TOGGLE	F	Vch Auto Range
VCHOFFSETENABLE	TOGGLE	T	Vch Offset Enable
VCHOFFSET	QUANT	0	Vch Offset (V)
VCHFILTER	IQUANT	3	Vch Filter
ACHRANGE	IQUANT	2	Ach Range
ACHOFFSETENABLE	TOGGLE	F	Ach Offset Enable
ACHOFFSET	QUANT	0	Ach Offset (V)
ACHFILTER	IQUANT	3	Ach Filter
IERANGELOWERLIMIT	IQUANT	2	I/E Range Lower Limit
IERANGEMODE	TOGGLE	F	I/E AutoRange
IERANGE	IQUANT	11	I/E Range
POSFEEDENABLE	TOGGLE	F	Positive Feedback IR Comp
POSFEEDRESISTANCE	QUANT	0	Positive Feedback Resistance (ohm)
ACHSELECT	IQUANT	0	Ach Select
CABLEID	IQUANT	13	Cable ID
DCCALDATE	LABEL	7/31/2020	DC Calibration Date
ACCALDATE	LABEL	7/31/2020	AC Calibration Date
THERMOSELECT	IQUANT	1	Thermo Select
FRAMEWORKVERSION	QUANT	6.33	Framework Version
INSTRUMENTVERSION	LABEL	3.50	Instrument Version
COMPLIANCEVOLTAGE	IQUANT	0	Compliance Voltage
ZCURVE	TABLE
	Pt	Time	Freq	Zreal	Zimag	Zsig	Zmod	Zphz	Idc	Vdc	IERange
	#	s	Hz	ohm	ohm	V	ohm	°	A	V	#
	0	14	300046.9	-60.50152	-4821.695	1	4822.075	-90.71889	4.02899E-008	0.0015996	9
	1	28	238359.4	-49.9483	-5951.741	1	5951.95	-90.48083	9.004458E-005	-0.002698	9
	2	42	189328.1	39.3279	-7456.592	1	7456.695	-89.69781	-1.914596E-005	0.0015344	9
	3	52	150421.9	194.6246	-9323.57	1	9325.602	-88.80415	1.896967E-005	-0.0008165	9
	4	63	119484.4	438.3016	-11730.38	1	11738.57	-87.86016	2.199477E-005	-0.0183341	8
	5	70	94921.88	526.0364	-14447.07	1	14456.65	-87.91471	-1.859953E-006	0.0077795	8
	6	79	75421.88	550.3903	-18143.95	1	18152.3	-88.26249	2.332214E-005	-0.002768	8
	7	87	59859.37	647.6741	-22977.9	1	22987.03	-88.38544	1.759273E-005	0.0003441	8
	8	95	47578.12	1037.184	-28663.82	1	28682.58	-87.92769	-2.049525E-005	0.0028205	8
	9	105	37828.12	428.0769	-36983.53	1	36986	-89.33685	-8.746242E-006	-0.0002024	9
	10	113	30046.88	4532.336	-46082.12	1	46304.47	-84.38283	1.23807E-006	-0.0198654	7
	11	121	23859.38	4721.74	-57047.98	1	57243.05	-85.26853	-7.357039E-006	0.0237267	7
	12	126	18984.38	4785.319	-72156.65	1	72315.15	-86.20579	5.229995E-006	-0.0268122	7
	13	131	15046.87	3926.147	-90734.41	1	90819.31	-87.52232	-7.435226E-006	0.0191414	7
	14	138	11953.13	4483.063	-114946.7	1	115034.1	-87.76653	-6.774749E-006	0.0120718	7
	15	144	9515.62	-2020.616	-142583.7	1	142598	-90.81191	-3.797691E-006	0.0255755	7
	16	151	7546.875	15600.87	-167988.2	1	168711	-84.69422	-1.785226E-006	0.0217909	7
	17	157	5928.309	15766.72	-221046.1	1	221607.7	-85.92013	-7.422288E-006	0.0190778	7
	18	163	4733.456	7106.557	-302604.8	1	302688.2	-88.65468	-7.332997E-006	0.023822	7
	19	169	3796.875	-27404.04	-346038.7	1	347122.1	-94.52801	-2.410617E-005	0.0053102	8
	20	177	2987.132	117959	-360100.6	1	378928.4	-71.86264	-1.203665E-005	0.0103137	8
	21	184	2390.625	489717.6	-407444.3	1	637051.2	-39.76041	6.662877E-006	-0.010369	7
	22	191	1884.191	125582.2	-311524	1	335884	-68.04456	2.759082E-005	-0.0074286	8
	23	201	1516.544	-548899.5	-449441.9	1	709428.4	-140.6892	2.343742E-005	-0.0028044	8
	24	208	1193.986	238069.9	-771081.9	1	806997.3	-72.84204	-2.646094E-005	0.0076344	8
	25	216	946.5144	-1077936	-698252.4	1	1284329	-147.0661	2.754163E-005	-0.0074071	8
	26	223	751.7689	835461.6	492067.6	1	969601	30.4971	2.656485E-005	-0.0090326	8
	27	230	597.4265	741051.8	-231623.2	1	776406.5	-17.35716	1.758133E-005	0.0003055	8
	28	237	477.4305	51864.06	-2797146	1	2797627	-88.93776	-7.121916E-008	0.0005951	7
	29	244	376.6741	481660.3	-3660070	1	3691627	-82.50304	-8.615744E-010	0.0006464	5
	30	248	298.2954	509355.4	-4561157	1	4589509	-83.62804	-8.179021E-010	0.0006531	5
	31	251	237.7717	512339.3	-5564648	1	5588184	-84.73959	-8.035579E-010	0.0006049	5
	32	254	189.0121	559446.2	-7086559	1	7108607	-85.48616	-7.511414E-010	0.0006047	5
	33	256	150.2404	402339.9	-9084790	1	9093695	-87.46419	-8.507478E-010	0.0006859	5
	34	259	119.1737	4627956	-1.197412E+007	1	1.283735E+007	-68.86866	-7.969246E-010	0.0006985	5
	35	262	95.0169	577099.2	-1.374976E+007	1	1.376186E+007	-87.59662	-8.397745E-010	0.000736	5
	36	265	75.60484	633212.6	-1.779689E+007	1	1.780815E+007	-87.96228	-7.865966E-010	0.0006922	5
	37	268	54.50582	387801	-2.394157E+007	1	2.394471E+007	-89.07201	-8.101767E-010	0.0006021	5
	38	271	45.95588	-834791.7	-2.827542E+007	1	2.828774E+007	-91.69109	-7.92634E-010	0.0006135	5
	39	275	37.20238	1973571	-3.619326E+007	1	3.624703E+007	-86.87883	-7.850496E-010	0.0006158	5
	40	279	30.04808	5750214	-4.394921E+007	1	4.432378E+007	-82.54589	-1.141403E-010	0.0006627	4
	41	283	23.91582	3415234	-5.58072E+007	1	5.59116E+007	-86.49804	-8.727582E-011	0.0006071	4
	42	286	18.60119	-2249722	-7.954515E+007	1	7.957696E+007	-91.62003	-5.112256E-011	0.0006984	4
	43	290	15.02404	6210199	-8.492756E+007	1	8.515431E+007	-85.81778	-9.633435E-011	0.0006208	4
	44	294	12.01923	5300261	-1.094633E+008	1	1.095915E+008	-87.22787	-1.089179E-010	0.0006497	4
	45	297	9.450605	6955448	-1.269741E+008	1	1.271644E+008	-86.86456	-1.282692E-010	0.0006565	4
	46	301	7.512019	8448379	-1.694416E+008	1	1.69652E+008	-87.14559	-1.062818E-010	0.0006505	4
	47	306	5.978954	2.186481E+007	-2.307529E+008	1	2.317865E+008	-84.58714	-8.726578E-011	0.0006164	4
	48	311	4.734848	4.933744E+007	-2.835502E+008	1	2.878105E+008	-80.12942	-3.95131E-011	0.0007477	3
	49	316	3.75601	-4586274	-3.168083E+008	1	3.168414E+008	-90.82938	-8.185416E-010	0.0006955	5
	50	324	3.004808	1055356	-4.362712E+008	1	4.362724E+008	-89.8614	-8.887062E-010	0.0007152	5
	51	334	2.372217	8.029576E+007	-5.39415E+008	1	5.453585E+008	-81.53329	-4.044849E-011	0.0006629	3
	52	339	1.878005	1.07905E+008	-6.72463E+008	1	6.810653E+008	-80.8839	-4.061539E-011	0.000735	3
	53	348	1.512097	1.61273E+008	-8.203639E+008	1	8.360657E+008	-78.87821	-4.059472E-011	0.0006314	3
	54	355	1.201923	3.132137E+008	-9.699725E+008	1	1.019289E+009	-72.10422	-4.099103E-011	0.0007448	3
	55	368	0.956633	6.139123E+008	-9.642843E+008	1	1.143124E+009	-57.5171	-4.198328E-011	9.345411E-005	3
