EXPLAIN
TAG	EISPOT
TITLE	LABEL	Potentiostatic EIS	Test Identifier
DATE	LABEL	8/29/2020	Date
TIME	LABEL	17:01:46	Time
NOTES	NOTES	1	Notes...
	
PSTAT	PSTAT	REF3000-16137	Potentiostat
VDC	POTEN	0.00000E+000	T	DC Voltage (V)
FREQINIT	QUANT	3.00000E+005	Initial Freq. (Hz)
FREQFINAL	QUANT	1.00000E+000	Final Freq. (Hz)
PTSPERDEC	QUANT	1.00000E+001	Points/decade
VAC	QUANT	5.00000E+001	AC Voltage (mV rms)
AREA	QUANT	1.00000E+000	Sample Area (cm^2)
SPEED	SELECTOR	2	Optimize for:
ZGUESS	QUANT	1.00000E+003	Estimated Z (ohms)
EOC	QUANT	0	Open Circuit (V)
SEQUENCER	TOGGLE	TRUE	Run as Sequence
PSTATMODEL	IQUANT	5	Pstat Model
PSTATSECTION	LABEL	REF3000-16137	Pstat Section
PSTATSERIALNO	LABEL	16137	Pstat Serial Number
CTRLMODE	IQUANT	1	Control Mode
IESTAB	IQUANT	0	I/E Stability
CASPEED	IQUANT	1	Control Amp Speed
CONVENTION	IQUANT	1	Current Convention
ICHRANGE	IQUANT	2	Ich Range
ICHRANGEMODE	TOGGLE	F	Ich Auto Range
ICHOFFSETENABLE	TOGGLE	T	Ich Offset Enable
ICHOFFSET	QUANT	0	Ich Offset (V)
ICHFILTER	IQUANT	3	Ich Filter
VCHRANGE	IQUANT	2	Vch Range
VCHRANGEMODE	TOGGLE	F	Vch Auto Range
VCHOFFSETENABLE	TOGGLE	T	Vch Offset Enable
VCHOFFSET	QUANT	0	Vch Offset (V)
VCHFILTER	IQUANT	3	Vch Filter
ACHRANGE	IQUANT	2	Ach Range
ACHOFFSETENABLE	TOGGLE	F	Ach Offset Enable
ACHOFFSET	QUANT	0	Ach Offset (V)
ACHFILTER	IQUANT	3	Ach Filter
IERANGELOWERLIMIT	IQUANT	2	I/E Range Lower Limit
IERANGEMODE	TOGGLE	F	I/E AutoRange
IERANGE	IQUANT	11	I/E Range
POSFEEDENABLE	TOGGLE	F	Positive Feedback IR Comp
POSFEEDRESISTANCE	QUANT	0	Positive Feedback Resistance (ohm)
ACHSELECT	IQUANT	0	Ach Select
CABLEID	IQUANT	13	Cable ID
DCCALDATE	LABEL	7/31/2020	DC Calibration Date
ACCALDATE	LABEL	7/31/2020	AC Calibration Date
THERMOSELECT	IQUANT	1	Thermo Select
FRAMEWORKVERSION	QUANT	6.33	Framework Version
INSTRUMENTVERSION	LABEL	3.50	Instrument Version
COMPLIANCEVOLTAGE	IQUANT	0	Compliance Voltage
ZCURVE	TABLE
	Pt	Time	Freq	Zreal	Zimag	Zsig	Zmod	Zphz	Idc	Vdc	IERange
	#	s	Hz	ohm	ohm	V	ohm	°	A	V	#
	0	14	300046.9	-90.18182	-4800.746	1	4801.593	-91.07617	-0.0001107	0.0037033	9
	1	28	238359.4	-94.50427	-5864.354	1	5865.115	-90.92324	-8.935683E-005	0.0041338	9
	2	43	189328.1	64.34893	-7321.833	1	7322.115	-89.49646	-1.918902E-005	0.0011598	9
	3	52	150421.9	-75.64455	-9079.336	1	9079.651	-90.47735	-2.90284E-005	-0.0010061	9
	4	62	119484.4	234.3049	-11843.25	1	11845.56	-88.86662	2.821282E-005	-0.0018459	9
	5	72	94921.88	593.4834	-14389.92	1	14402.15	-87.63829	2.267019E-005	-0.0096205	8
	6	81	75421.88	624.3981	-17980.97	1	17991.8	-88.01118	-1.210849E-005	0.0103029	8
	7	89	59859.37	476.9855	-23270.51	1	23275.4	-88.82575	2.656404E-005	-0.0090134	8
	8	98	47578.12	643.9464	-28606.05	1	28613.3	-88.71044	1.043571E-005	-0.0008093	9
	9	108	37828.12	4309.733	-36784.22	1	37035.83	-83.31754	6.966202E-006	-0.0273423	7
	10	115	30046.88	1594.244	-45384.79	1	45412.79	-87.98818	-1.609039E-005	0.0007171	8
	11	124	23859.38	5089.314	-56853.67	1	57081	-84.88474	5.483782E-006	-0.0271385	7
	12	129	18984.38	4309.41	-72179.01	1	72307.54	-86.58324	6.83507E-006	-0.0103709	7
	13	135	15046.87	5400.722	-88785.29	1	88949.4	-86.51904	-6.592141E-006	0.0260832	7
	14	141	11953.13	-4510.638	-112260	1	112350.6	-92.30093	-1.605922E-005	0.0006377	8
	15	148	9515.62	6940.566	-140240.2	1	140411.8	-87.16671	-6.648533E-006	0.0261896	7
	16	155	7546.875	7320.487	-173514.5	1	173668.8	-87.58415	-1.028307E-006	-0.0134915	7
	17	161	5928.309	17069.71	-217816.7	1	218484.5	-85.51904	2.836555E-006	0.0085049	7
	18	168	4733.456	44088.45	-298457.8	1	301696.7	-81.59698	-6.526523E-007	0.0101461	6
	19	173	3796.875	19731.61	-374836.6	1	375355.5	-86.9867	2.782471E-006	0.0084761	7
	20	180	2987.132	163295.6	-494752	1	521003.9	-71.73425	-2.649007E-005	0.0076287	8
	21	187	2390.625	56673.54	-443617.1	1	447222.6	-82.71971	-2.411658E-005	0.0052933	8
	22	196	1884.191	-78862.35	-1259960	1	1262426	-93.58154	-9.44624E-006	-0.0021564	8
	23	205	1516.544	394523	-80906.14	1	402733.4	-11.58916	-1.097996E-006	-0.0051035	8
	24	214	1193.986	106329.6	-1062743	1	1068049	-84.28645	-6.876379E-007	0.0264288	6
	25	220	946.5144	210220.5	-1405278	1	1420915	-81.49201	1.856344E-007	-0.0213195	6
	26	224	751.7689	394482.4	-1647311	1	1693886	-76.53296	-2.150559E-007	0.0226588	6
	27	229	597.4265	592748.3	-1749376	1	1847070	-71.28187	4.015793E-007	-0.0254495	6
	28	233	477.4305	744697.6	-2830667	1	2926986	-75.2605	-8.062634E-010	0.0007044	5
	29	237	376.6741	941980.3	-3498142	1	3622751	-74.92887	-8.397736E-010	0.0006807	5
	30	241	298.2954	1211095	-4333396	1	4499453	-74.38541	-7.778321E-010	0.000637	5
	31	244	237.7717	1662323	-5191993	1	5451615	-72.24647	-8.126781E-010	0.0006012	5
	32	246	189.0121	2150444	-6457511	1	6806163	-71.5815	-8.185046E-010	0.0006916	5
	33	249	150.2404	3343831	-7937442	1	8613025	-67.15562	-8.959244E-010	0.0006657	5
	34	252	119.1737	4167939	-6927530	1	8084701	-58.96684	-7.331997E-010	0.0006078	5
	35	255	95.0169	5700567	-1.126609E+007	1	1.262622E+007	-63.1609	-8.59421E-010	0.0006995	5
	36	258	75.60484	8055379	-1.202584E+007	1	1.447446E+007	-56.18428	-7.82127E-010	0.0006112	5
	37	261	54.50582	1.177162E+007	-1.392538E+007	1	1.823423E+007	-49.79099	-8.799066E-010	0.0006629	5
	38	264	45.95588	1.663129E+007	-1.486063E+007	1	2.230332E+007	-41.78189	-1.068869E-010	0.0007009	4
	39	266	37.20238	1.921332E+007	-1.335812E+007	1	2.340066E+007	-34.80908	-8.348257E-011	0.0007141	4
	40	269	30.04808	2.26317E+007	-1.373722E+007	1	2.647461E+007	-31.25734	-1.107061E-010	0.000612	4
	41	272	23.91582	2.464784E+007	-1.42588E+007	1	2.847506E+007	-30.04943	-8.614848E-010	0.000681	5
	42	276	18.60119	2.898819E+007	-1.62446E+007	1	3.322953E+007	-29.26569	-7.144796E-010	0.000594	5
	43	279	15.02404	2.978611E+007	-1.22922E+007	1	3.222283E+007	-22.42507	-8.403137E-010	0.0006353	5
	44	283	12.01923	3.153294E+007	-1.068883E+007	1	3.329531E+007	-18.72528	-8.173631E-010	0.0005903	5
	45	287	9.450605	3.431818E+007	-9.560891E+006	1	3.562511E+007	-15.5676	-8.656099E-010	0.0006529	5
	46	291	7.512019	3.572555E+007	-8865740	1	3.680919E+007	-13.93711	-8.547136E-010	0.0006962	5
	47	295	5.978954	3.810429E+007	-6892186	1	3.87226E+007	-10.25263	-1.147466E-010	0.0006108	4
	48	301	4.734848	4.295336E+007	-1084871	1	4.296706E+007	-1.446809	-3.696951E-011	0.0007404	3
	49	304	3.75601	4.375085E+007	-972220	1	4.376165E+007	-1.273002	-3.158709E-011	0.0007763	3
	50	310	3.004808	4.501764E+007	-1083917	1	4.503068E+007	-1.379279	-3.525993E-011	0.0007167	3
	51	316	2.372217	4.636403E+007	-1209552	1	4.63798E+007	-1.494403	-3.392517E-011	0.0006865	3
	52	320	1.878005	4.763595E+007	-1448366	1	4.765796E+007	-1.741536	-2.816102E-011	0.0007237	3
	53	325	1.512097	4.923639E+007	-1699830	1	4.926572E+007	-1.977286	-3.119983E-011	0.0007862	3
	54	330	1.201923	5.123354E+007	-2114934	1	5.127717E+007	-2.363843	-3.232926E-011	0.0007341	3
	55	337	0.956633	5.365298E+007	-2517747	1	5.371203E+007	-2.686719	-6.434775E-011	9.000567E-005	3
