EXPLAIN
TAG	EISPOT
TITLE	LABEL	Potentiostatic EIS	Test Identifier
DATE	LABEL	8/29/2020	Date
TIME	LABEL	16:09:16	Time
NOTES	NOTES	1	Notes...
	
PSTAT	PSTAT	REF3000-16137	Potentiostat
VDC	POTEN	0.00000E+000	T	DC Voltage (V)
FREQINIT	QUANT	3.00000E+005	Initial Freq. (Hz)
FREQFINAL	QUANT	1.00000E+000	Final Freq. (Hz)
PTSPERDEC	QUANT	1.00000E+001	Points/decade
VAC	QUANT	5.00000E+001	AC Voltage (mV rms)
AREA	QUANT	1.00000E+000	Sample Area (cm^2)
SPEED	SELECTOR	2	Optimize for:
ZGUESS	QUANT	1.00000E+003	Estimated Z (ohms)
EOC	QUANT	0	Open Circuit (V)
SEQUENCER	TOGGLE	TRUE	Run as Sequence
PSTATMODEL	IQUANT	5	Pstat Model
PSTATSECTION	LABEL	REF3000-16137	Pstat Section
PSTATSERIALNO	LABEL	16137	Pstat Serial Number
CTRLMODE	IQUANT	1	Control Mode
IESTAB	IQUANT	0	I/E Stability
CASPEED	IQUANT	1	Control Amp Speed
CONVENTION	IQUANT	1	Current Convention
ICHRANGE	IQUANT	2	Ich Range
ICHRANGEMODE	TOGGLE	F	Ich Auto Range
ICHOFFSETENABLE	TOGGLE	T	Ich Offset Enable
ICHOFFSET	QUANT	0	Ich Offset (V)
ICHFILTER	IQUANT	3	Ich Filter
VCHRANGE	IQUANT	2	Vch Range
VCHRANGEMODE	TOGGLE	F	Vch Auto Range
VCHOFFSETENABLE	TOGGLE	T	Vch Offset Enable
VCHOFFSET	QUANT	0	Vch Offset (V)
VCHFILTER	IQUANT	3	Vch Filter
ACHRANGE	IQUANT	2	Ach Range
ACHOFFSETENABLE	TOGGLE	F	Ach Offset Enable
ACHOFFSET	QUANT	0	Ach Offset (V)
ACHFILTER	IQUANT	3	Ach Filter
IERANGELOWERLIMIT	IQUANT	2	I/E Range Lower Limit
IERANGEMODE	TOGGLE	F	I/E AutoRange
IERANGE	IQUANT	11	I/E Range
POSFEEDENABLE	TOGGLE	F	Positive Feedback IR Comp
POSFEEDRESISTANCE	QUANT	0	Positive Feedback Resistance (ohm)
ACHSELECT	IQUANT	0	Ach Select
CABLEID	IQUANT	13	Cable ID
DCCALDATE	LABEL	7/31/2020	DC Calibration Date
ACCALDATE	LABEL	7/31/2020	AC Calibration Date
THERMOSELECT	IQUANT	1	Thermo Select
FRAMEWORKVERSION	QUANT	6.33	Framework Version
INSTRUMENTVERSION	LABEL	3.50	Instrument Version
COMPLIANCEVOLTAGE	IQUANT	0	Compliance Voltage
ZCURVE	TABLE
	Pt	Time	Freq	Zreal	Zimag	Zsig	Zmod	Zphz	Idc	Vdc	IERange
	#	s	Hz	ohm	ohm	V	ohm	°	A	V	#
	0	20	300046.9	685.6312	-93.59753	1	691.9903	-7.773565	2.622992E-005	-0.0020846	9
	1	36	238359.4	698.3448	-78.87686	1	702.7852	-6.44415	2.562992E-005	0.0009064	9
	2	52	189328.1	716.8286	-72.14055	1	720.4495	-5.746812	-3.098699E-005	-0.0009076	9
	3	61	150421.9	728.7156	-61.4667	1	731.3034	-4.82145	-0.000103	0.0036171	9
	4	70	119484.4	742.5012	-56.30541	1	744.633	-4.336558	-1.528961E-006	-0.0016885	9
	5	82	94921.88	749.4125	-27.7674	1	749.9267	-2.121965	1.319124E-005	-6.426115E-005	8
	6	84	75421.88	753.2438	-28.86316	1	753.7966	-2.194414	1.477638E-005	-0.0065091	8
	7	87	59859.37	757.2143	-31.20844	1	757.8571	-2.360098	-5.343189E-007	0.0051222	8
	8	90	47578.12	760.3948	-35.40389	1	761.2186	-2.665759	-1.727633E-006	-0.0030613	8
	9	92	37828.12	763.5204	-38.74386	1	764.5027	-2.904909	1.776652E-005	-0.0024822	8
	10	95	30046.88	769.4896	-43.64031	1	770.7261	-3.245957	9.74786E-006	-0.0059912	8
	11	97	23859.38	774.006	-52.41792	1	775.7789	-3.87432	1.864417E-005	-0.0042168	8
	12	100	18984.38	782.3116	-59.97662	1	784.6073	-4.384056	-1.798683E-005	0.0070875	8
	13	102	15046.87	789.5228	-70.65806	1	792.6782	-5.114041	-1.586667E-005	0.0076747	8
	14	105	11953.13	797.3022	-85.2151	1	801.8431	-6.100574	1.71706E-005	-0.0024293	8
	15	107	9515.62	808.7431	-95.6505	1	814.3798	-6.74507	-6.338681E-006	0.0067883	8
	16	110	7546.875	819.8879	-114.8658	1	827.8951	-7.975193	-1.55281E-005	0.0028231	8
	17	112	5928.309	837.1639	-134.4499	1	847.8917	-9.123883	1.013276E-005	-0.006	8
	18	115	4733.456	854.9729	-156.325	1	869.1468	-10.36162	1.89639E-005	-0.0039083	8
	19	118	3796.875	872.5023	-179.9017	1	890.8563	-11.65057	-1.684505E-005	0.0079639	8
	20	121	2987.132	890.9426	-209.1363	1	915.1594	-13.21021	1.0159E-005	-0.0060574	8
	21	123	2390.625	915.5493	-235.7533	1	945.4153	-14.43993	1.031057E-005	-0.0060743	8
	22	127	1884.191	945.4528	-276.2162	1	984.975	-16.28585	1.384322E-005	-0.0002827	8
	23	130	1516.544	965.8	-320.1898	1	1017.492	-18.34181	1.819415E-005	-0.0063632	8
	24	133	1193.986	997.583	-372.7747	1	1064.957	-20.48961	1.909781E-005	-0.003971	8
	25	136	946.5144	1028.549	-436.9101	1	1117.499	-23.01496	-1.275343E-005	0.0014388	8
	26	139	751.7689	1053.402	-505.3932	1	1168.365	-25.63041	1.3717E-005	-0.0001631	8
	27	141	597.4265	1087.822	-597.009	1	1240.877	-28.75848	-1.592198E-005	0.0030293	8
	28	144	477.4305	1107.3	-711.473	1	1316.171	-32.72195	-1.040847E-007	0.0006372	8
	29	146	376.6741	1131.85	-861.972	1	1422.702	-37.29145	-1.439661E-007	0.0006592	8
	30	148	298.2954	1155.596	-1051.105	1	1562.121	-42.28899	-1.021725E-007	0.0006529	8
	31	151	237.7717	1179.685	-1284.296	1	1743.867	-47.43111	-1.479962E-007	0.0006734	8
	32	153	189.0121	1206.037	-1581.889	1	1989.196	-52.67799	-1.027058E-007	0.0006306	8
	33	156	150.2404	1235.813	-1956.581	1	2314.183	-57.72273	-9.989074E-008	0.0006409	8
	34	158	119.1737	1271.754	-2432.364	1	2744.768	-62.39733	-9.826322E-008	0.0006396	8
	35	160	95.0169	1314.186	-3015.398	1	3289.333	-66.45123	-1.214642E-007	0.0006421	8
	36	163	75.60484	1366.983	-3749.457	1	3990.874	-69.96907	-9.451468E-008	0.0006415	8
	37	166	54.50582	1469.736	-5137.705	1	5343.794	-74.03584	-3.205123E-008	0.0005993	7
	38	168	45.95588	1537.875	-6051.392	1	6243.749	-75.74096	-3.390817E-008	0.0006252	7
	39	170	37.20238	1640.547	-7409.921	1	7589.356	-77.51616	-3.323287E-008	0.0006565	7
	40	173	30.04808	1771.216	-9095.878	1	9266.726	-78.98084	-3.87275E-008	0.0006772	7
	41	175	23.91582	1947.665	-11317.89	1	11484.25	-80.23576	-2.908898E-008	0.0006142	7
	42	178	18.60119	2196.777	-14391.94	1	14558.63	-81.32139	-3.55775E-008	0.0006397	7
	43	180	15.02404	2475.083	-17653.22	1	17825.88	-82.01882	-2.977002E-008	0.0006281	7
	44	182	12.01923	2841.74	-21836.64	1	22020.77	-82.58541	-3.363865E-008	0.0006055	7
	45	185	9.450605	3342.571	-27468.18	1	27670.81	-83.06186	-3.174146E-008	0.0005997	7
	46	187	7.512019	3959.068	-34184.45	1	34412.94	-83.39373	-3.576816E-008	0.0006244	7
	47	190	5.978954	4768.812	-42469.92	1	42736.82	-83.59328	-2.874681E-008	0.000618	7
	48	193	4.734848	5861.122	-53014.94	1	53337.95	-83.69122	-3.750486E-009	0.000682	6
	49	196	3.75601	7237.225	-66069.36	1	66464.56	-83.74876	-3.599494E-009	0.0006795	6
	50	200	3.004808	8941.504	-81595.34	1	82083.8	-83.74628	-3.729871E-009	0.0006854	6
	51	203	2.372217	11392.73	-101862	1	102497.1	-83.61829	-3.37885E-009	0.0006539	6
	52	208	1.878005	14756.01	-127247.5	1	128100.2	-83.38535	-4.141439E-009	0.0006684	6
	53	212	1.512097	18519.32	-155938	1	157033.8	-83.22723	-3.650233E-009	0.0005734	6
	54	218	1.201923	24359.38	-193597.9	1	195124.4	-82.82847	-4.199101E-009	0.0006678	6
	55	224	0.956633	31762.42	-239407.6	1	241505.3	-82.44265	-4.392072E-009	6.260925E-005	6
