EXPLAIN
TAG	EISPOT
TITLE	LABEL	Potentiostatic EIS	Test Identifier
DATE	LABEL	8/29/2020	Date
TIME	LABEL	16:21:07	Time
NOTES	NOTES	1	Notes...
	
PSTAT	PSTAT	REF3000-16137	Potentiostat
VDC	POTEN	0.00000E+000	T	DC Voltage (V)
FREQINIT	QUANT	3.00000E+005	Initial Freq. (Hz)
FREQFINAL	QUANT	1.00000E+000	Final Freq. (Hz)
PTSPERDEC	QUANT	1.00000E+001	Points/decade
VAC	QUANT	5.00000E+001	AC Voltage (mV rms)
AREA	QUANT	1.00000E+000	Sample Area (cm^2)
SPEED	SELECTOR	2	Optimize for:
ZGUESS	QUANT	1.00000E+003	Estimated Z (ohms)
EOC	QUANT	0	Open Circuit (V)
SEQUENCER	TOGGLE	TRUE	Run as Sequence
PSTATMODEL	IQUANT	5	Pstat Model
PSTATSECTION	LABEL	REF3000-16137	Pstat Section
PSTATSERIALNO	LABEL	16137	Pstat Serial Number
CTRLMODE	IQUANT	1	Control Mode
IESTAB	IQUANT	0	I/E Stability
CASPEED	IQUANT	1	Control Amp Speed
CONVENTION	IQUANT	1	Current Convention
ICHRANGE	IQUANT	2	Ich Range
ICHRANGEMODE	TOGGLE	F	Ich Auto Range
ICHOFFSETENABLE	TOGGLE	T	Ich Offset Enable
ICHOFFSET	QUANT	0	Ich Offset (V)
ICHFILTER	IQUANT	3	Ich Filter
VCHRANGE	IQUANT	2	Vch Range
VCHRANGEMODE	TOGGLE	F	Vch Auto Range
VCHOFFSETENABLE	TOGGLE	T	Vch Offset Enable
VCHOFFSET	QUANT	0	Vch Offset (V)
VCHFILTER	IQUANT	3	Vch Filter
ACHRANGE	IQUANT	2	Ach Range
ACHOFFSETENABLE	TOGGLE	F	Ach Offset Enable
ACHOFFSET	QUANT	0	Ach Offset (V)
ACHFILTER	IQUANT	3	Ach Filter
IERANGELOWERLIMIT	IQUANT	2	I/E Range Lower Limit
IERANGEMODE	TOGGLE	F	I/E AutoRange
IERANGE	IQUANT	11	I/E Range
POSFEEDENABLE	TOGGLE	F	Positive Feedback IR Comp
POSFEEDRESISTANCE	QUANT	0	Positive Feedback Resistance (ohm)
ACHSELECT	IQUANT	0	Ach Select
CABLEID	IQUANT	13	Cable ID
DCCALDATE	LABEL	7/31/2020	DC Calibration Date
ACCALDATE	LABEL	7/31/2020	AC Calibration Date
THERMOSELECT	IQUANT	1	Thermo Select
FRAMEWORKVERSION	QUANT	6.33	Framework Version
INSTRUMENTVERSION	LABEL	3.50	Instrument Version
COMPLIANCEVOLTAGE	IQUANT	0	Compliance Voltage
ZCURVE	TABLE
	Pt	Time	Freq	Zreal	Zimag	Zsig	Zmod	Zphz	Idc	Vdc	IERange
	#	s	Hz	ohm	ohm	V	ohm	°	A	V	#
	0	32	300046.9	1815.576	-807.1203	1	1986.897	-23.9677	8.027656E-005	-0.0018307	9
	1	57	238359.4	1960.52	-730.8083	1	2092.3	-20.44357	2.572989E-005	0.0009388	9
	2	73	189328.1	2067.009	-621.116	1	2158.312	-16.72501	2.68179E-005	-0.001947	9
	3	79	150421.9	2155.108	-543.4973	1	2222.584	-14.15429	2.706016E-005	-0.0018951	9
	4	86	119484.4	2252.135	-379.0533	1	2283.812	-9.55382	-5.318255E-005	0.0063385	8
	5	92	94921.88	2290.792	-318.4296	1	2312.818	-7.913641	-1.675342E-005	0.0100633	8
	6	96	75421.88	2321.16	-268.4293	1	2336.63	-6.596635	-2.114472E-005	0.0097891	8
	7	100	59859.37	2343.642	-226.1059	1	2354.523	-5.510629	1.602493E-005	-1.182326E-005	8
	8	104	47578.12	2381.689	-199.0956	1	2389.996	-4.778491	8.308445E-006	0.0034465	8
	9	110	37828.12	2417.412	-171.963	1	2423.521	-4.068889	-9.127477E-007	0.0066036	8
	10	115	30046.88	2444.521	-161.3508	1	2449.841	-3.776334	-1.866487E-005	0.0029221	8
	11	120	23859.38	2469.002	-151.9751	1	2473.675	-3.522298	-2.145413E-005	0.0050522	8
	12	125	18984.38	2495.76	-146.94	1	2500.081	-3.369448	-1.507919E-005	0.001075	8
	13	130	15046.87	2539.764	-161.3041	1	2544.882	-3.634058	2.8404E-005	-0.0004295	9
	14	135	11953.13	2558.2	-160.2051	1	2563.212	-3.58342	2.012438E-005	-0.0085765	8
	15	141	9515.62	2596.33	-172.5645	1	2602.059	-3.802558	2.169678E-005	-0.0027654	8
	16	146	7546.875	2636.194	-194.0654	1	2643.327	-4.210278	2.363573E-005	-0.0047154	8
	17	151	5928.309	2673.586	-227.7451	1	2683.269	-4.868894	8.377743E-006	0.0034867	8
	18	156	4733.456	2720.044	-250.9369	1	2731.595	-5.270886	-1.697692E-005	0.0100862	8
	19	162	3796.875	2766.706	-295.6204	1	2782.455	-6.09887	-1.681173E-006	-0.0042447	8
	20	167	2987.132	2831.749	-347.9897	1	2853.051	-7.005873	2.975034E-005	-0.0006738	9
	21	173	2390.625	2895.886	-401.9203	1	2923.644	-7.90161	2.528469E-005	-0.0009226	9
	22	178	1884.191	2959.448	-468.6264	1	2996.321	-8.998035	-1.146409E-006	0.0007789	9
	23	183	1516.544	3022.85	-538.1744	1	3070.383	-10.09491	-1.001526E-005	0.0090967	8
	24	189	1193.986	3123.201	-620.982	1	3184.337	-11.24539	-2.582825E-005	0.0006999	9
	25	194	946.5144	3217.074	-696.4547	1	3291.598	-12.21529	8.08845E-006	0.0036198	8
	26	198	751.7689	3309.941	-847.1938	1	3416.643	-14.35688	-2.352868E-005	0.008766	8
	27	202	597.4265	3431.176	-994.265	1	3572.328	-16.16021	-1.016842E-005	0.0092231	8
	28	205	477.4305	3490.61	-1120.981	1	3666.191	-17.804	-2.287049E-007	0.0006533	8
	29	208	376.6741	3609.886	-1303.538	1	3838.032	-19.85477	-6.122462E-008	0.0006586	7
	30	210	298.2954	3718.265	-1519.794	1	4016.873	-22.23167	-6.100762E-008	0.0006287	7
	31	212	237.7717	3825.645	-1774.063	1	4216.973	-24.87853	-6.002311E-008	0.0006604	7
	32	215	189.0121	3931.306	-2089.764	1	4452.222	-27.99376	-5.472761E-008	0.000584	7
	33	217	150.2404	4034.66	-2484.853	1	4738.457	-31.62795	-5.415048E-008	0.000578	7
	34	220	119.1737	4134.129	-2986.714	1	5100.145	-35.84634	-6.028948E-008	0.0006419	7
	35	222	95.0169	4229.942	-3607.28	1	5559.216	-40.45743	-5.326314E-008	0.0005937	7
	36	225	75.60484	4329.008	-4397.988	1	6171.111	-45.45287	-5.343934E-008	0.0005885	7
	37	227	54.50582	4474.538	-5903.052	1	7407.261	-52.83772	-6.00151E-008	0.0006244	7
	38	230	45.95588	4568.021	-6907.717	1	8281.507	-56.52364	-6.045829E-008	0.0006272	7
	39	232	37.20238	4694.711	-8412.587	1	9633.89	-60.83595	-5.329019E-008	0.0005829	7
	40	234	30.04808	4844.714	-10287.28	1	11370.99	-64.78227	-5.869883E-008	0.0006089	7
	41	237	23.91582	5036.513	-12774.73	1	13731.73	-68.48287	-5.561498E-008	0.000639	7
	42	239	18.60119	5296.37	-16232.49	1	17074.69	-71.92942	-5.29805E-008	0.0005992	7
	43	242	15.02404	5584.196	-19907.57	1	20675.95	-74.33086	-6.368143E-008	0.0006719	7
	44	244	12.01923	5943.236	-24649.46	1	25355.82	-76.44414	-5.978025E-008	0.0006678	7
	45	246	9.450605	6468.256	-31041.11	1	31707.87	-78.22931	-5.574335E-008	0.0006325	7
	46	249	7.512019	7076.498	-38658.44	1	39300.79	-79.62675	-5.227983E-008	0.0005684	7
	47	252	5.978954	7885.875	-48127.36	1	48769.15	-80.69453	-5.941399E-009	0.0006636	6
	48	255	4.734848	8914.771	-60123.98	1	60781.3	-81.56602	-7.024631E-009	0.0006578	6
	49	258	3.75601	10256.68	-74987.57	1	75685.77	-82.2115	-5.655056E-009	0.0006455	6
	50	261	3.004808	11886.49	-92685.71	1	93444.8	-82.69199	-6.146464E-009	0.0006088	6
	51	265	2.372217	14184.32	-116111.7	1	116974.9	-83.0352	-6.651932E-009	0.0005893	6
	52	269	1.878005	16839.23	-145037.3	1	146011.5	-83.37745	-6.219782E-009	0.0006667	6
	53	274	1.512097	20368.06	-177927.3	1	179089.3	-83.46954	-6.733743E-009	0.0005872	6
	54	279	1.201923	24608.93	-221693.6	1	223055.3	-83.66586	-6.507682E-009	0.000693	6
	55	286	0.956633	30254.27	-275435.8	1	277092.4	-83.73167	-6.683672E-009	2.556088E-005	6
