EXPLAIN
TAG	EISPOT
TITLE	LABEL	Potentiostatic EIS	Test Identifier
DATE	LABEL	8/4/2020	Date
TIME	LABEL	9:41:13	Time
NOTES	NOTES	1	Notes...
	
PSTAT	PSTAT	REF3000-16137	Potentiostat
VDC	POTEN	0.00000E+000	T	DC Voltage (V)
FREQINIT	QUANT	3.00000E+005	Initial Freq. (Hz)
FREQFINAL	QUANT	1.00000E+000	Final Freq. (Hz)
PTSPERDEC	QUANT	1.00000E+001	Points/decade
VAC	QUANT	5.00000E+001	AC Voltage (mV rms)
AREA	QUANT	1.00000E+000	Sample Area (cm^2)
SPEED	SELECTOR	2	Optimize for:
ZGUESS	QUANT	1.00000E+003	Estimated Z (ohms)
EOC	QUANT	0	Open Circuit (V)
SEQUENCER	TOGGLE	TRUE	Run as Sequence
PSTATMODEL	IQUANT	5	Pstat Model
PSTATSECTION	LABEL	REF3000-16137	Pstat Section
PSTATSERIALNO	LABEL	16137	Pstat Serial Number
CTRLMODE	IQUANT	1	Control Mode
IESTAB	IQUANT	0	I/E Stability
CASPEED	IQUANT	1	Control Amp Speed
CONVENTION	IQUANT	1	Current Convention
ICHRANGE	IQUANT	2	Ich Range
ICHRANGEMODE	TOGGLE	F	Ich Auto Range
ICHOFFSETENABLE	TOGGLE	T	Ich Offset Enable
ICHOFFSET	QUANT	0	Ich Offset (V)
ICHFILTER	IQUANT	3	Ich Filter
VCHRANGE	IQUANT	2	Vch Range
VCHRANGEMODE	TOGGLE	F	Vch Auto Range
VCHOFFSETENABLE	TOGGLE	T	Vch Offset Enable
VCHOFFSET	QUANT	0	Vch Offset (V)
VCHFILTER	IQUANT	3	Vch Filter
ACHRANGE	IQUANT	2	Ach Range
ACHOFFSETENABLE	TOGGLE	F	Ach Offset Enable
ACHOFFSET	QUANT	0	Ach Offset (V)
ACHFILTER	IQUANT	3	Ach Filter
IERANGELOWERLIMIT	IQUANT	2	I/E Range Lower Limit
IERANGEMODE	TOGGLE	F	I/E AutoRange
IERANGE	IQUANT	11	I/E Range
POSFEEDENABLE	TOGGLE	F	Positive Feedback IR Comp
POSFEEDRESISTANCE	QUANT	0	Positive Feedback Resistance (ohm)
ACHSELECT	IQUANT	0	Ach Select
CABLEID	IQUANT	13	Cable ID
DCCALDATE	LABEL	7/31/2020	DC Calibration Date
ACCALDATE	LABEL	7/31/2020	AC Calibration Date
THERMOSELECT	IQUANT	1	Thermo Select
FRAMEWORKVERSION	QUANT	6.33	Framework Version
INSTRUMENTVERSION	LABEL	3.50	Instrument Version
COMPLIANCEVOLTAGE	IQUANT	0	Compliance Voltage
ZCURVE	TABLE
	Pt	Time	Freq	Zreal	Zimag	Zsig	Zmod	Zphz	Idc	Vdc	IERange
	#	s	Hz	ohm	ohm	V	ohm	°	A	V	#
	0	8	300046.9	22.08222	0.9219647	1	22.10146	2.390793	1.525557E-005	0.0003213	10
	1	11	238359.4	22.31935	0.7299632	1	22.33128	1.873214	1.454107E-005	0.0003203	10
	2	14	189328.1	22.5496	0.5641015	1	22.55666	1.433014	-8.722274E-005	0.0006097	10
	3	17	150421.9	22.77387	0.4067256	1	22.7775	1.023154	1.660174E-005	0.0005271	10
	4	20	119484.4	22.98249	0.294696	1	22.98438	0.7346423	-4.360903E-005	0.0007401	10
	5	22	94921.88	23.19782	0.2057235	1	23.19873	0.5080985	9.161162E-006	0.0006895	10
	6	25	75421.88	23.4254	0.1015618	1	23.42562	0.2484067	2.342757E-005	0.0006309	10
	7	27	59859.37	23.65359	0.0116296	1	23.65359	0.0281703	-2.843734E-005	0.0006537	10
	8	30	47578.12	23.97905	-0.0764217	1	23.97917	-0.182602	2.207067E-005	0.0006397	10
	9	33	37828.12	24.22387	-0.1666508	1	24.22444	-0.3941665	2.659387E-005	0.0006902	10
	10	36	30046.88	24.46344	-0.2555997	1	24.46478	-0.5986179	-1.538714E-005	0.0006527	10
	11	38	23859.38	24.69571	-0.3588477	1	24.69832	-0.8324932	6.900584E-006	0.00064	10
	12	41	18984.38	24.92748	-0.4761637	1	24.93202	-1.094329	-1.748853E-005	0.0006588	10
	13	43	15046.87	25.16133	-0.6150656	1	25.16885	-1.400309	1.495376E-005	0.0006455	10
	14	45	11953.13	25.40627	-0.7793459	1	25.41822	-1.757017	8.548021E-006	0.0007095	10
	15	47	9515.62	25.65296	-0.976544	1	25.67154	-2.180056	2.141785E-005	0.0006685	10
	16	50	7546.875	25.91286	-1.227946	1	25.94194	-2.713075	2.717871E-005	0.0007026	10
	17	52	5928.309	26.18635	-1.536646	1	26.2314	-3.358333	2.196701E-005	0.000689	10
	18	54	4733.456	26.4609	-1.889734	1	26.52829	-4.084905	-2.84967E-005	0.0007008	10
	19	57	3796.875	26.75232	-2.32086	1	26.8528	-4.9582	1.334655E-005	0.0006668	10
	20	59	2987.132	27.06983	-2.89462	1	27.22416	-6.103535	-1.047433E-005	0.0006694	10
	21	61	2390.625	27.40514	-3.560172	1	27.63542	-7.401779	-1.454124E-006	0.0006615	10
	22	64	1884.191	27.77349	-4.431784	1	28.12486	-9.066187	-2.165779E-005	0.0007116	10
	23	66	1516.544	28.16211	-5.408264	1	28.67671	-10.87076	7.489283E-006	0.0006459	10
	24	68	1193.986	28.6093	-6.729307	1	29.39006	-13.23617	-2.670875E-005	0.00069	10
	25	71	946.5144	29.11088	-8.31407	1	30.27486	-15.93935	5.939337E-006	0.0006472	10
	26	73	751.7689	29.66365	-10.27416	1	31.39253	-19.1038	-2.744887E-005	0.000707	10
	27	75	597.4265	30.28106	-12.67659	1	32.82741	-22.7157	-1.933212E-005	0.000717	10
	28	78	477.4305	30.98774	-15.55704	1	34.67365	-26.65841	-1.047233E-006	0.000692	10
	29	80	376.6741	31.85486	-19.31169	1	37.2515	-31.22592	-1.368646E-006	0.0006915	10
	30	82	298.2954	32.83944	-23.85619	1	40.58998	-35.99651	1.008321E-006	9.232497E-005	9
	31	85	237.7717	34.05848	-29.31774	1	44.93896	-40.72207	9.576643E-007	0.0000984	9
	32	87	189.0121	35.55356	-36.1002	1	50.66833	-45.43709	9.07798E-007	9.484868E-005	9
	33	89	150.2404	37.38755	-44.42139	1	58.06108	-49.91415	9.328251E-007	9.085802E-005	9
	34	92	119.1737	39.67706	-54.72389	1	67.59418	-54.05635	8.757713E-007	0.0000953	9
	35	94	95.0169	42.46956	-67.05342	1	79.37144	-57.6511	9.045501E-007	8.874113E-005	9
	36	97	75.60484	45.99309	-82.24363	1	94.23045	-60.78478	9.272677E-007	8.952479E-005	9
	37	99	54.50582	52.52923	-109.9356	1	121.8407	-64.46068	8.540913E-007	8.350129E-005	9
	38	102	45.95588	57.07104	-127.8828	1	140.0397	-65.94994	1.006245E-006	9.461818E-005	9
	39	104	37.20238	63.86457	-153.9994	1	166.7169	-67.47589	8.223563E-007	9.278816E-005	9
	40	106	30.04808	72.45931	-185.6218	1	199.2632	-68.67632	8.533434E-007	9.200344E-005	9
	41	109	23.91582	84.11869	-226.1681	1	241.3047	-69.59833	8.204029E-007	8.736843E-005	9
	42	111	18.60119	100.6764	-280.4197	1	297.9446	-70.25083	1.280753E-006	8.932162E-005	9
	43	113	15.02404	118.7681	-335.9416	1	356.3181	-70.52957	1.007117E-006	8.778509E-005	9
	44	116	12.01923	141.7398	-402.7976	1	427.0083	-70.61362	2.284413E-007	0.0007196	8
	45	118	9.450605	173.6024	-490.064	1	519.9044	-70.49359	4.190083E-007	0.0006782	8
	46	121	7.512019	211.3307	-589.2657	1	626.015	-70.27044	2.204602E-007	0.0006752	8
	47	123	5.978954	256.1483	-705.1743	1	750.2551	-70.0369	2.407488E-007	0.0006716	8
	48	126	4.734848	311.3886	-845.2449	1	900.7784	-69.77618	2.684304E-007	0.0006463	8
	49	130	3.75601	375.1204	-1010.402	1	1077.788	-69.63212	3.789044E-007	0.0006833	8
	50	133	3.004808	445.002	-1198.676	1	1278.613	-69.63284	3.401141E-007	0.000655	8
	51	137	2.372217	530.315	-1437.046	1	1531.775	-69.74435	3.035168E-007	0.0006225	8
	52	141	1.878005	623.3607	-1729.044	1	1837.98	-70.17458	3.706319E-007	0.0006604	8
	53	146	1.512097	717.4701	-2054.404	1	2176.083	-70.749	3.161425E-007	0.0007225	8
	54	151	1.201923	838.5928	-2481.927	1	2619.771	-71.33093	3.512301E-007	0.000672	8
	55	157	0.956633	973.445	-3001.993	1	3155.877	-72.03387	3.047151E-007	2.179569E-005	8
