EXPLAIN
TAG	EISPOT
TITLE	LABEL	Potentiostatic EIS	Test Identifier
DATE	LABEL	8/4/2020	Date
TIME	LABEL	9:44:00	Time
NOTES	NOTES	1	Notes...
	
PSTAT	PSTAT	REF3000-16137	Potentiostat
VDC	POTEN	0.00000E+000	T	DC Voltage (V)
FREQINIT	QUANT	3.00000E+005	Initial Freq. (Hz)
FREQFINAL	QUANT	1.00000E+000	Final Freq. (Hz)
PTSPERDEC	QUANT	1.00000E+001	Points/decade
VAC	QUANT	5.00000E+001	AC Voltage (mV rms)
AREA	QUANT	1.00000E+000	Sample Area (cm^2)
SPEED	SELECTOR	2	Optimize for:
ZGUESS	QUANT	1.00000E+003	Estimated Z (ohms)
EOC	QUANT	0	Open Circuit (V)
SEQUENCER	TOGGLE	TRUE	Run as Sequence
PSTATMODEL	IQUANT	5	Pstat Model
PSTATSECTION	LABEL	REF3000-16137	Pstat Section
PSTATSERIALNO	LABEL	16137	Pstat Serial Number
CTRLMODE	IQUANT	1	Control Mode
IESTAB	IQUANT	0	I/E Stability
CASPEED	IQUANT	1	Control Amp Speed
CONVENTION	IQUANT	1	Current Convention
ICHRANGE	IQUANT	2	Ich Range
ICHRANGEMODE	TOGGLE	F	Ich Auto Range
ICHOFFSETENABLE	TOGGLE	T	Ich Offset Enable
ICHOFFSET	QUANT	0	Ich Offset (V)
ICHFILTER	IQUANT	3	Ich Filter
VCHRANGE	IQUANT	2	Vch Range
VCHRANGEMODE	TOGGLE	F	Vch Auto Range
VCHOFFSETENABLE	TOGGLE	T	Vch Offset Enable
VCHOFFSET	QUANT	0	Vch Offset (V)
VCHFILTER	IQUANT	3	Vch Filter
ACHRANGE	IQUANT	2	Ach Range
ACHOFFSETENABLE	TOGGLE	F	Ach Offset Enable
ACHOFFSET	QUANT	0	Ach Offset (V)
ACHFILTER	IQUANT	3	Ach Filter
IERANGELOWERLIMIT	IQUANT	2	I/E Range Lower Limit
IERANGEMODE	TOGGLE	F	I/E AutoRange
IERANGE	IQUANT	11	I/E Range
POSFEEDENABLE	TOGGLE	F	Positive Feedback IR Comp
POSFEEDRESISTANCE	QUANT	0	Positive Feedback Resistance (ohm)
ACHSELECT	IQUANT	0	Ach Select
CABLEID	IQUANT	13	Cable ID
DCCALDATE	LABEL	7/31/2020	DC Calibration Date
ACCALDATE	LABEL	7/31/2020	AC Calibration Date
THERMOSELECT	IQUANT	1	Thermo Select
FRAMEWORKVERSION	QUANT	6.33	Framework Version
INSTRUMENTVERSION	LABEL	3.50	Instrument Version
COMPLIANCEVOLTAGE	IQUANT	0	Compliance Voltage
ZCURVE	TABLE
	Pt	Time	Freq	Zreal	Zimag	Zsig	Zmod	Zphz	Idc	Vdc	IERange
	#	s	Hz	ohm	ohm	V	ohm	°	A	V	#
	0	6	300046.9	42.58553	1.384461	1	42.60802	1.862038	-5.851568E-005	0.0010096	9
	1	10	238359.4	43.12294	1.151504	1	43.13832	1.529596	5.406317E-005	-0.0021542	9
	2	13	189328.1	43.72576	0.721646	1	43.73172	0.9455185	-6.322311E-006	0.0003153	9
	3	15	150421.9	44.24144	0.5323022	1	44.24464	0.6893356	-5.539991E-005	0.0014485	9
	4	18	119484.4	44.7203	0.3595321	1	44.72174	0.4606236	-5.305462E-005	0.0019573	9
	5	20	94921.88	45.30219	0.4275861	1	45.30421	0.5407719	1.981074E-005	-0.0005062	9
	6	23	75421.88	45.79734	0.2567307	1	45.79806	0.3211853	-1.212921E-005	0.0005892	9
	7	25	59859.37	46.30392	0.1272001	1	46.30409	0.1573951	9.07868E-006	-0.0004488	9
	8	28	47578.12	46.83114	-0.009727	1	46.83114	-0.0119005	-8.692962E-006	4.223177E-005	9
	9	30	37828.12	47.37446	-0.1294444	1	47.37464	-0.1565527	-2.480922E-006	0.0004042	9
	10	33	30046.88	47.93099	-0.2619301	1	47.93171	-0.313103	-1.687912E-005	0.0005959	9
	11	35	23859.38	48.46843	-0.3672142	1	48.46982	-0.4340851	-7.798766E-006	0.0005509	9
	12	38	18984.38	48.99824	-0.5109934	1	49.0009	-0.5975053	1.611437E-005	-0.0002176	9
	13	40	15046.87	49.52931	-0.6636162	1	49.53375	-0.767629	-8.568858E-006	6.099699E-005	9
	14	42	11953.13	50.07239	-0.8435429	1	50.07949	-0.96514	-1.292811E-005	0.0006714	9
	15	45	9515.62	50.62526	-1.072727	1	50.63663	-1.213891	-1.697348E-005	0.0005312	9
	16	47	7546.875	51.21136	-1.332739	1	51.22869	-1.490746	1.771972E-005	-0.0004776	9
	17	49	5928.309	51.78741	-1.669945	1	51.81433	-1.846928	1.924179E-005	-0.0004448	9
	18	52	4733.456	52.39561	-2.072784	1	52.43659	-2.265455	-1.679989E-005	0.0006579	9
	19	54	3796.875	53.02191	-2.534235	1	53.08244	-2.736426	-1.554867E-005	0.000447	9
	20	56	2987.132	53.67073	-3.150288	1	53.76311	-3.359211	1.892127E-005	-0.0003368	9
	21	58	2390.625	54.33616	-3.879188	1	54.47446	-4.083553	-4.809218E-006	0.0005187	9
	22	61	1884.191	55.05456	-4.835304	1	55.26649	-5.019266	9.638357E-006	-0.0004406	9
	23	63	1516.544	55.79936	-5.877629	1	56.10806	-6.013081	-1.622579E-005	0.0004487	9
	24	65	1193.986	56.63702	-7.32504	1	57.10874	-7.369332	-2.74927E-006	-0.0001066	9
	25	68	946.5144	57.5218	-9.056008	1	58.23031	-8.946986	-3.290438E-006	0.0005684	9
	26	70	751.7689	58.42719	-11.16119	1	59.48369	-10.81476	2.049723E-005	-0.0004633	9
	27	72	597.4265	59.46766	-13.78444	1	61.04435	-13.05052	-8.55438E-006	8.009841E-005	9
	28	75	477.4305	60.57322	-16.92795	1	62.89412	-15.61369	1.009796E-006	9.27502E-005	9
	29	77	376.6741	61.8422	-21.01373	1	65.31488	-18.76755	9.989465E-007	0.0000997	9
	30	79	298.2954	63.27397	-25.99499	1	68.40566	-22.33444	9.893091E-007	9.104029E-005	9
	31	82	237.7717	64.91441	-31.96426	1	72.35741	-26.21593	8.517594E-007	0.0000958	9
	32	84	189.0121	66.83066	-39.39608	1	77.57827	-30.51897	9.624815E-007	8.739754E-005	9
	33	87	150.2404	69.07648	-48.54083	1	84.42613	-35.09615	8.915561E-007	0.0000969	9
	34	89	119.1737	71.77093	-59.89782	1	93.48163	-39.84734	8.697124E-007	9.020044E-005	9
	35	91	95.0169	74.96483	-73.53515	1	105.0102	-44.4484	9.227371E-007	9.471211E-005	9
	36	94	75.60484	78.90792	-90.38668	1	119.9842	-48.87891	6.097148E-007	0.000125	9
	37	96	54.50582	85.79377	-121.2436	1	148.5281	-54.71621	1.003492E-006	8.64995E-005	9
	38	99	45.95588	90.69652	-141.3217	1	167.9217	-57.30873	1.02726E-006	0.0000974	9
	39	101	37.20238	97.7042	-170.6483	1	196.6392	-60.20683	1.046166E-006	8.997583E-005	9
	40	104	30.04808	106.4967	-206.3829	1	232.2401	-62.7056	1.037833E-006	8.935403E-005	9
	41	106	23.91582	118.1407	-252.5723	1	278.8369	-64.93215	9.969507E-007	9.110263E-005	9
	42	108	18.60119	134.437	-315.0033	1	342.4914	-66.88819	7.40993E-007	0.0000984	9
	43	111	15.02404	152.4816	-379.6732	1	409.1484	-68.11898	1.02533E-006	0.0001039	9
	44	113	12.01923	175.2684	-458.6851	1	491.0305	-69.08762	1.683672E-007	0.0006715	8
	45	115	9.450605	207.9631	-563.6212	1	600.7641	-69.74711	1.017437E-008	0.0006783	8
	46	118	7.512019	247.4327	-684.0495	1	727.4247	-70.11405	1.105082E-007	0.0006615	8
	47	121	5.978954	297.4137	-827.4382	1	879.2661	-70.22958	2.574528E-007	0.0006725	8
	48	124	4.734848	361.3079	-1002.718	1	1065.827	-70.18446	1.727768E-007	0.0006675	8
	49	127	3.75601	439.534	-1208.416	1	1285.869	-70.01228	2.394109E-007	0.0006787	8
	50	130	3.004808	530.7933	-1441.507	1	1536.126	-69.78522	1.558095E-007	0.0007101	8
	51	134	2.372217	646.2534	-1735.479	1	1851.899	-69.57581	2.044604E-007	0.0007368	8
	52	138	1.878005	781.8422	-2079.673	1	2221.782	-69.39651	1.865841E-007	0.0006497	8
	53	143	1.512097	928.0273	-2458.844	1	2628.145	-69.32227	2.038116E-007	0.0007504	8
	54	148	1.201923	1099.882	-2947.198	1	3145.746	-69.53464	1.927427E-007	0.000635	8
	55	155	0.956633	1292.939	-3527.616	1	3757.095	-69.87114	1.537041E-007	3.599969E-005	8
