EXPLAIN
TAG	EISPOT
TITLE	LABEL	Potentiostatic EIS	Test Identifier
DATE	LABEL	8/4/2020	Date
TIME	LABEL	9:49:28	Time
NOTES	NOTES	1	Notes...
	
PSTAT	PSTAT	REF3000-16137	Potentiostat
VDC	POTEN	0.00000E+000	T	DC Voltage (V)
FREQINIT	QUANT	3.00000E+005	Initial Freq. (Hz)
FREQFINAL	QUANT	1.00000E+000	Final Freq. (Hz)
PTSPERDEC	QUANT	1.00000E+001	Points/decade
VAC	QUANT	5.00000E+001	AC Voltage (mV rms)
AREA	QUANT	1.00000E+000	Sample Area (cm^2)
SPEED	SELECTOR	2	Optimize for:
ZGUESS	QUANT	1.00000E+003	Estimated Z (ohms)
EOC	QUANT	0	Open Circuit (V)
SEQUENCER	TOGGLE	TRUE	Run as Sequence
PSTATMODEL	IQUANT	5	Pstat Model
PSTATSECTION	LABEL	REF3000-16137	Pstat Section
PSTATSERIALNO	LABEL	16137	Pstat Serial Number
CTRLMODE	IQUANT	1	Control Mode
IESTAB	IQUANT	0	I/E Stability
CASPEED	IQUANT	1	Control Amp Speed
CONVENTION	IQUANT	1	Current Convention
ICHRANGE	IQUANT	2	Ich Range
ICHRANGEMODE	TOGGLE	F	Ich Auto Range
ICHOFFSETENABLE	TOGGLE	T	Ich Offset Enable
ICHOFFSET	QUANT	0	Ich Offset (V)
ICHFILTER	IQUANT	3	Ich Filter
VCHRANGE	IQUANT	2	Vch Range
VCHRANGEMODE	TOGGLE	F	Vch Auto Range
VCHOFFSETENABLE	TOGGLE	T	Vch Offset Enable
VCHOFFSET	QUANT	0	Vch Offset (V)
VCHFILTER	IQUANT	3	Vch Filter
ACHRANGE	IQUANT	2	Ach Range
ACHOFFSETENABLE	TOGGLE	F	Ach Offset Enable
ACHOFFSET	QUANT	0	Ach Offset (V)
ACHFILTER	IQUANT	3	Ach Filter
IERANGELOWERLIMIT	IQUANT	2	I/E Range Lower Limit
IERANGEMODE	TOGGLE	F	I/E AutoRange
IERANGE	IQUANT	11	I/E Range
POSFEEDENABLE	TOGGLE	F	Positive Feedback IR Comp
POSFEEDRESISTANCE	QUANT	0	Positive Feedback Resistance (ohm)
ACHSELECT	IQUANT	0	Ach Select
CABLEID	IQUANT	13	Cable ID
DCCALDATE	LABEL	7/31/2020	DC Calibration Date
ACCALDATE	LABEL	7/31/2020	AC Calibration Date
THERMOSELECT	IQUANT	1	Thermo Select
FRAMEWORKVERSION	QUANT	6.33	Framework Version
INSTRUMENTVERSION	LABEL	3.50	Instrument Version
COMPLIANCEVOLTAGE	IQUANT	0	Compliance Voltage
ZCURVE	TABLE
	Pt	Time	Freq	Zreal	Zimag	Zsig	Zmod	Zphz	Idc	Vdc	IERange
	#	s	Hz	ohm	ohm	V	ohm	°	A	V	#
	0	14	300046.9	252.9214	-15.69913	1	253.4082	-3.55186	2.806159E-005	0.0004739	9
	1	18	238359.4	260.8979	-18.90281	1	261.5818	-4.144005	2.426174E-005	0.0003655	10
	2	23	189328.1	268.744	-12.5798	1	269.0383	-2.680036	-1.437733E-005	0.001286	9
	3	27	150421.9	279.7763	-13.69342	1	280.1112	-2.802058	-2.364681E-005	0.0005864	10
	4	33	119484.4	289.7897	-9.58717	1	289.9483	-1.894836	2.034002E-005	-0.0002925	9
	5	38	94921.88	295.8923	-8.079069	1	296.0026	-1.56402	2.581197E-005	-0.0004056	9
	6	40	75421.88	301.0606	-6.787937	1	301.1371	-1.291615	2.066587E-005	-6.356371E-005	9
	7	43	59859.37	306.127	-6.060837	1	306.187	-1.134219	1.958611E-005	-7.331718E-005	9
	8	45	47578.12	312.0134	-5.147714	1	312.0558	-0.9452015	1.070934E-005	0.0002535	9
	9	48	37828.12	317.5047	-4.42884	1	317.5356	-0.7991611	2.65378E-005	-0.0004831	9
	10	50	30046.88	322.8173	-3.823759	1	322.84	-0.6786346	2.210535E-005	-0.0008434	9
	11	53	23859.38	329.2367	-3.804837	1	329.2587	-0.6621113	-1.266177E-005	8.119212E-006	9
	12	56	18984.38	334.0605	-3.183472	1	334.0757	-0.5459909	1.574944E-005	-0.0007734	9
	13	58	15046.87	339.3987	-2.93559	1	339.4114	-0.4955609	7.531913E-006	-0.0006209	9
	14	60	11953.13	344.2192	-2.803525	1	344.2306	-0.4666405	2.115874E-005	-0.0007823	9
	15	62	9515.62	350.7104	-2.799223	1	350.7215	-0.4573012	2.755871E-005	-0.0005002	9
	16	65	7546.875	356.4634	-2.027099	1	356.4692	-0.3258201	-2.249382E-005	0.000486	9
	17	67	5928.309	361.5404	-2.921844	1	361.5522	-0.4630345	-4.133712E-007	0.0006862	9
	18	69	4733.456	366.055	-2.39443	1	366.0628	-0.3747765	1.362789E-005	-0.0037548	8
	19	72	3796.875	373.4207	-3.915469	1	373.4412	-0.6007477	-2.183073E-005	0.0005358	9
	20	74	2987.132	380.3398	-4.172601	1	380.3627	-0.6285506	-2.546365E-005	0.0009178	9
	21	76	2390.625	386.722	-5.414197	1	386.7599	-0.8021018	1.934732E-005	-5.739959E-005	9
	22	79	1884.191	389.9495	-6.074838	1	389.9968	-0.8925115	-1.192206E-005	0.0025662	8
	23	81	1516.544	398.3483	-7.84806	1	398.4256	-1.128667	-1.028248E-005	0.0016533	8
	24	83	1193.986	405.3505	-9.384225	1	405.4591	-1.326212	-1.427822E-005	0.0050208	8
	25	86	946.5144	411.379	-11.22736	1	411.5322	-1.563328	1.10316E-005	-0.0003055	8
	26	88	751.7689	418.2192	-14.29744	1	418.4635	-1.957978	1.439875E-005	-0.0029211	8
	27	90	597.4265	426.5793	-16.83365	1	426.9113	-2.259831	-1.362336E-005	0.0039592	8
	28	93	477.4305	434.1696	-21.59477	1	434.7064	-2.847436	-1.762228E-007	0.0006714	8
	29	95	376.6741	442.1638	-26.7544	1	442.9725	-3.462625	-1.788966E-007	0.0006771	8
	30	97	298.2954	450.4797	-33.05431	1	451.6908	-4.196602	-1.950754E-007	0.0006794	8
	31	99	237.7717	459.4283	-40.60743	1	461.2193	-5.05107	-1.741007E-007	0.0006752	8
	32	102	189.0121	468.8633	-50.02887	1	471.5249	-6.090556	-1.95669E-007	0.0006701	8
	33	104	150.2404	478.8316	-61.64063	1	482.7828	-7.335419	-1.947542E-007	0.0006817	8
	34	107	119.1737	489.3936	-76.07384	1	495.271	-8.835635	-2.135191E-007	0.0006752	8
	35	109	95.0169	500.6701	-93.48766	1	509.3236	-10.57676	-1.941164E-007	0.0006767	8
	36	112	75.60484	513.23	-115.0616	1	525.9698	-12.63627	-1.857731E-007	0.0006688	8
	37	114	54.50582	529.0438	-154.758	1	551.2145	-16.30547	-2.133137E-007	0.0006659	8
	38	117	45.95588	542.3821	-180.777	1	571.7155	-18.43333	-2.341596E-007	0.0006717	8
	39	119	37.20238	557.6205	-219.0619	1	599.1067	-21.44744	-1.547539E-007	0.0006767	8
	40	121	30.04808	575.0435	-265.9176	1	633.5513	-24.81726	-1.436186E-007	0.0006565	8
	41	124	23.91582	595.3234	-326.9778	1	679.2087	-28.77752	-2.26121E-007	0.0007153	8
	42	126	18.60119	619.6099	-410.5586	1	743.2865	-33.52878	-1.825151E-007	0.0007295	8
	43	128	15.02404	645.2363	-497.8582	1	814.9801	-37.65344	-3.283234E-007	0.0007264	8
	44	131	12.01923	676.4879	-608.5682	1	909.9402	-41.97453	-1.767338E-007	0.0006767	8
	45	133	9.450605	716.4002	-755.3309	1	1041.035	-46.51525	-1.242471E-007	0.0006587	8
	46	136	7.512019	762.9219	-928.1872	1	1201.491	-50.58156	-1.784314E-007	0.0006831	8
	47	138	5.978954	821.165	-1138.831	1	1404.011	-54.20614	-2.169301E-007	0.0006564	8
	48	141	4.734848	894.4946	-1404.084	1	1664.804	-57.50016	-1.895119E-007	0.0006779	8
	49	145	3.75601	985.559	-1725.564	1	1987.183	-60.26708	-3.046168E-007	0.0006833	8
	50	148	3.004808	1095.166	-2102.556	1	2370.681	-62.48618	-2.110744E-007	0.0006422	8
	51	152	2.372217	1241.269	-2593.073	1	2874.852	-64.42019	-2.541882E-007	0.0005982	8
	52	156	1.878005	1424.437	-3185.11	1	3489.118	-65.90497	-2.317962E-007	0.0006785	8
	53	161	1.512097	1643.231	-3846.369	1	4182.674	-66.86703	-2.52582E-007	0.0005904	8
	54	166	1.201923	1934.929	-4724.738	1	5105.595	-67.72935	-4.339317E-008	0.0006739	7
	55	172	0.956633	2297.636	-5766.313	1	6207.214	-68.27477	-7.999614E-008	7.572407E-007	7
