EXPLAIN
TAG	EISPOT
TITLE	LABEL	Potentiostatic EIS	Test Identifier
DATE	LABEL	8/4/2020	Date
TIME	LABEL	9:46:44	Time
NOTES	NOTES	1	Notes...
	
PSTAT	PSTAT	REF3000-16137	Potentiostat
VDC	POTEN	0.00000E+000	T	DC Voltage (V)
FREQINIT	QUANT	3.00000E+005	Initial Freq. (Hz)
FREQFINAL	QUANT	1.00000E+000	Final Freq. (Hz)
PTSPERDEC	QUANT	1.00000E+001	Points/decade
VAC	QUANT	5.00000E+001	AC Voltage (mV rms)
AREA	QUANT	1.00000E+000	Sample Area (cm^2)
SPEED	SELECTOR	2	Optimize for:
ZGUESS	QUANT	1.00000E+003	Estimated Z (ohms)
EOC	QUANT	0	Open Circuit (V)
SEQUENCER	TOGGLE	TRUE	Run as Sequence
PSTATMODEL	IQUANT	5	Pstat Model
PSTATSECTION	LABEL	REF3000-16137	Pstat Section
PSTATSERIALNO	LABEL	16137	Pstat Serial Number
CTRLMODE	IQUANT	1	Control Mode
IESTAB	IQUANT	0	I/E Stability
CASPEED	IQUANT	1	Control Amp Speed
CONVENTION	IQUANT	1	Current Convention
ICHRANGE	IQUANT	2	Ich Range
ICHRANGEMODE	TOGGLE	F	Ich Auto Range
ICHOFFSETENABLE	TOGGLE	T	Ich Offset Enable
ICHOFFSET	QUANT	0	Ich Offset (V)
ICHFILTER	IQUANT	3	Ich Filter
VCHRANGE	IQUANT	2	Vch Range
VCHRANGEMODE	TOGGLE	F	Vch Auto Range
VCHOFFSETENABLE	TOGGLE	T	Vch Offset Enable
VCHOFFSET	QUANT	0	Vch Offset (V)
VCHFILTER	IQUANT	3	Vch Filter
ACHRANGE	IQUANT	2	Ach Range
ACHOFFSETENABLE	TOGGLE	F	Ach Offset Enable
ACHOFFSET	QUANT	0	Ach Offset (V)
ACHFILTER	IQUANT	3	Ach Filter
IERANGELOWERLIMIT	IQUANT	2	I/E Range Lower Limit
IERANGEMODE	TOGGLE	F	I/E AutoRange
IERANGE	IQUANT	11	I/E Range
POSFEEDENABLE	TOGGLE	F	Positive Feedback IR Comp
POSFEEDRESISTANCE	QUANT	0	Positive Feedback Resistance (ohm)
ACHSELECT	IQUANT	0	Ach Select
CABLEID	IQUANT	13	Cable ID
DCCALDATE	LABEL	7/31/2020	DC Calibration Date
ACCALDATE	LABEL	7/31/2020	AC Calibration Date
THERMOSELECT	IQUANT	1	Thermo Select
FRAMEWORKVERSION	QUANT	6.33	Framework Version
INSTRUMENTVERSION	LABEL	3.50	Instrument Version
COMPLIANCEVOLTAGE	IQUANT	0	Compliance Voltage
ZCURVE	TABLE
	Pt	Time	Freq	Zreal	Zimag	Zsig	Zmod	Zphz	Idc	Vdc	IERange
	#	s	Hz	ohm	ohm	V	ohm	°	A	V	#
	0	7	300046.9	93.22383	-0.3855721	1	93.22463	-0.236973	1.630497E-005	-0.0011797	9
	1	10	238359.4	94.9937	-0.3921717	1	94.99451	-0.2365384	3.91221E-006	-0.0015352	9
	2	13	189328.1	96.5342	-0.397689	1	96.535	-0.2360384	-5.15931E-005	0.0007121	9
	3	16	150421.9	97.8	-0.523917	1	97.8014	-0.3069319	-1.22125E-005	0.0010707	9
	4	18	119484.4	99.1848	-0.4606784	1	99.1859	-0.2661166	-6.53418E-005	0.0026836	9
	5	21	94921.88	100.6122	-0.211264	1	100.6124	-0.1203086	2.006302E-005	-0.0005078	9
	6	23	75421.88	101.9868	-0.3195114	1	101.9873	-0.1794997	2.09042E-005	-0.0006817	9
	7	26	59859.37	103.4407	-0.4285542	1	103.4416	-0.2373747	1.766626E-005	-2.634125E-005	9
	8	28	47578.12	104.9063	-0.4833436	1	104.9074	-0.2639818	1.612602E-006	0.0004298	9
	9	31	37828.12	106.3633	-0.580287	1	106.3649	-0.3125859	2.325346E-005	-0.0004079	9
	10	33	30046.88	107.8207	-0.5854216	1	107.8223	-0.3110893	2.373311E-005	-0.0004154	9
	11	36	23859.38	109.2795	-0.7153932	1	109.2819	-0.3750787	-1.463217E-005	0.0001904	9
	12	38	18984.38	110.679	-0.7823948	1	110.6818	-0.4050197	-1.473826E-005	0.0001687	9
	13	40	15046.87	112.0546	-0.979125	1	112.0589	-0.5006336	2.43117E-005	-0.0004981	9
	14	43	11953.13	113.5993	-1.172416	1	113.6054	-0.591307	-1.979862E-005	0.0004643	9
	15	45	9515.62	115.0513	-1.314166	1	115.0588	-0.654429	1.8692E-005	-5.89778E-005	9
	16	47	7546.875	116.571	-1.517611	1	116.5809	-0.745878	-9.108791E-006	8.021434E-006	9
	17	49	5928.309	118.075	-1.990912	1	118.0918	-0.965996	2.446989E-005	-0.0005677	9
	18	52	4733.456	119.6927	-2.357651	1	119.7159	-1.12844	-1.774637E-005	0.000373	9
	19	54	3796.875	121.3455	-2.92974	1	121.3809	-1.383068	1.364709E-005	-0.0006521	9
	20	56	2987.132	122.9704	-3.62924	1	123.0239	-1.690487	-1.990307E-005	0.0007599	9
	21	59	2390.625	124.737	-4.331821	1	124.8122	-1.988948	5.499396E-006	-0.0004848	9
	22	61	1884.191	126.5478	-5.250053	1	126.6566	-2.375652	-2.115063E-006	-0.0002739	9
	23	63	1516.544	128.32	-6.579758	1	128.4886	-2.935337	1.91593E-005	-0.0006978	9
	24	66	1193.986	130.3018	-8.157763	1	130.5569	-3.582422	-2.057756E-005	0.000785	9
	25	68	946.5144	132.2977	-10.11269	1	132.6836	-4.371126	-2.21746E-005	0.000661	9
	26	70	751.7689	134.4606	-12.50464	1	135.0408	-5.313143	1.887011E-005	-7.778883E-005	9
	27	73	597.4265	136.5973	-15.32109	1	137.4538	-6.399687	1.366498E-005	-0.0006554	9
	28	75	477.4305	138.8966	-18.76476	1	140.1584	-7.694006	8.809872E-007	9.142203E-005	9
	29	77	376.6741	141.4026	-23.28595	1	143.3071	-9.351445	8.289089E-007	9.189979E-005	9
	30	80	298.2954	144.0946	-28.79137	1	146.9428	-11.2994	8.432309E-007	9.019823E-005	9
	31	82	237.7717	147.0786	-35.40271	1	151.2794	-13.53398	8.218533E-007	0.0000958	9
	32	84	189.0121	150.3659	-43.63251	1	156.5685	-16.18144	8.389554E-007	8.68118E-005	9
	33	87	150.2404	154.0079	-53.77966	1	163.1278	-19.24923	8.805549E-007	8.933467E-005	9
	34	89	119.1737	158.0961	-66.39561	1	171.4723	-22.78094	8.939322E-007	9.279815E-005	9
	35	92	95.0169	162.6995	-81.58924	1	182.0108	-26.63248	8.658244E-007	8.570582E-005	9
	36	94	75.60484	168.1248	-100.4218	1	195.8328	-30.85007	9.031313E-007	8.593861E-005	9
	37	97	54.50582	176.4992	-135.0093	1	222.215	-37.4134	8.627822E-007	8.220258E-005	9
	38	99	45.95588	182.8011	-157.6151	1	241.3685	-40.76863	9.0852E-007	9.332917E-005	9
	39	102	37.20238	191.2074	-190.776	1	270.1032	-44.93528	9.216333E-007	8.408725E-005	9
	40	104	30.04808	201.3326	-231.2723	1	306.6295	-48.95901	8.877776E-007	8.579314E-005	9
	41	106	23.91582	214.2511	-283.8714	1	355.6494	-52.95644	9.273367E-007	9.286821E-005	9
	42	109	18.60119	230.4436	-353.8798	1	422.2975	-56.92816	-1.710323E-007	0.0006787	8
	43	111	15.02404	249.1432	-428.0335	1	495.2625	-59.79783	2.629578E-008	0.000701	8
	44	113	12.01923	273.0397	-521.8376	1	588.9526	-62.3802	-1.982638E-009	0.0006743	8
	45	116	9.450605	305.6744	-645.1746	1	713.9238	-64.64908	-6.053266E-008	0.000663	8
	46	118	7.512019	345.4373	-789.6485	1	861.9	-66.37269	7.203507E-008	0.0006658	8
	47	121	5.978954	395.5285	-963.16	1	1041.211	-67.67414	7.690757E-008	0.0006709	8
	48	124	4.734848	462.0611	-1178.797	1	1266.121	-68.59597	3.976058E-008	0.000689	8
	49	127	3.75601	545.5163	-1437.637	1	1537.657	-69.22057	-1.300382E-008	0.0006605	8
	50	131	3.004808	646.5822	-1735.624	1	1852.15	-69.56783	-5.988419E-008	0.0006947	8
	51	134	2.372217	784.7288	-2114.699	1	2255.605	-69.64098	-1.036705E-008	0.0007435	8
	52	138	1.878005	950.337	-2565.622	1	2735.975	-69.67477	-4.904129E-008	0.0006477	8
	53	143	1.512097	1139.369	-3055.944	1	3261.435	-69.55269	-1.737078E-008	0.0006716	8
	54	149	1.201923	1389.252	-3688.781	1	3941.717	-69.36285	-4.264409E-008	0.0006371	8
	55	155	0.956633	1688.807	-4438.159	1	4748.613	-69.16719	-3.575936E-008	1.105018E-005	7
