EXPLAIN
TAG	EISPOT
TITLE	LABEL	Potentiostatic EIS	Test Identifier
DATE	LABEL	8/4/2020	Date
TIME	LABEL	9:38:28	Time
NOTES	NOTES	1	Notes...
	
PSTAT	PSTAT	REF3000-16137	Potentiostat
VDC	POTEN	0.00000E+000	T	DC Voltage (V)
FREQINIT	QUANT	3.00000E+005	Initial Freq. (Hz)
FREQFINAL	QUANT	1.00000E+000	Final Freq. (Hz)
PTSPERDEC	QUANT	1.00000E+001	Points/decade
VAC	QUANT	5.00000E+001	AC Voltage (mV rms)
AREA	QUANT	1.00000E+000	Sample Area (cm^2)
SPEED	SELECTOR	2	Optimize for:
ZGUESS	QUANT	1.00000E+003	Estimated Z (ohms)
EOC	QUANT	0	Open Circuit (V)
SEQUENCER	TOGGLE	TRUE	Run as Sequence
PSTATMODEL	IQUANT	5	Pstat Model
PSTATSECTION	LABEL	REF3000-16137	Pstat Section
PSTATSERIALNO	LABEL	16137	Pstat Serial Number
CTRLMODE	IQUANT	1	Control Mode
IESTAB	IQUANT	0	I/E Stability
CASPEED	IQUANT	1	Control Amp Speed
CONVENTION	IQUANT	1	Current Convention
ICHRANGE	IQUANT	2	Ich Range
ICHRANGEMODE	TOGGLE	F	Ich Auto Range
ICHOFFSETENABLE	TOGGLE	T	Ich Offset Enable
ICHOFFSET	QUANT	0	Ich Offset (V)
ICHFILTER	IQUANT	3	Ich Filter
VCHRANGE	IQUANT	2	Vch Range
VCHRANGEMODE	TOGGLE	F	Vch Auto Range
VCHOFFSETENABLE	TOGGLE	T	Vch Offset Enable
VCHOFFSET	QUANT	0	Vch Offset (V)
VCHFILTER	IQUANT	3	Vch Filter
ACHRANGE	IQUANT	2	Ach Range
ACHOFFSETENABLE	TOGGLE	F	Ach Offset Enable
ACHOFFSET	QUANT	0	Ach Offset (V)
ACHFILTER	IQUANT	3	Ach Filter
IERANGELOWERLIMIT	IQUANT	2	I/E Range Lower Limit
IERANGEMODE	TOGGLE	F	I/E AutoRange
IERANGE	IQUANT	11	I/E Range
POSFEEDENABLE	TOGGLE	F	Positive Feedback IR Comp
POSFEEDRESISTANCE	QUANT	0	Positive Feedback Resistance (ohm)
ACHSELECT	IQUANT	0	Ach Select
CABLEID	IQUANT	13	Cable ID
DCCALDATE	LABEL	7/31/2020	DC Calibration Date
ACCALDATE	LABEL	7/31/2020	AC Calibration Date
THERMOSELECT	IQUANT	1	Thermo Select
FRAMEWORKVERSION	QUANT	6.33	Framework Version
INSTRUMENTVERSION	LABEL	3.50	Instrument Version
COMPLIANCEVOLTAGE	IQUANT	0	Compliance Voltage
ZCURVE	TABLE
	Pt	Time	Freq	Zreal	Zimag	Zsig	Zmod	Zphz	Idc	Vdc	IERange
	#	s	Hz	ohm	ohm	V	ohm	°	A	V	#
	0	8	300046.9	12.78092	1.123782	1	12.83022	5.024899	2.204184E-005	0.0002382	10
	1	11	238359.4	12.87294	0.886689	1	12.90344	3.940313	1.974141E-005	0.0002372	10
	2	14	189328.1	12.98024	0.6861375	1	12.99836	3.025848	1.609064E-005	0.0004316	10
	3	17	150421.9	13.07314	0.5145885	1	13.08326	2.254128	4.609629E-005	0.000587	10
	4	19	119484.4	13.18173	0.38468	1	13.18734	1.671577	2.728124E-005	0.000778	10
	5	22	94921.88	13.2828	0.2861958	1	13.28589	1.234323	-2.100019E-005	0.0006789	10
	6	24	75421.88	13.38848	0.1703573	1	13.38957	0.7290019	2.31017E-005	0.0006159	10
	7	27	59859.37	13.49891	0.0685252	1	13.49908	0.2908509	2.389889E-005	0.0006707	10
	8	29	47578.12	13.61202	-0.0222639	1	13.61204	-0.0937134	2.405397E-005	0.0006902	10
	9	32	37828.12	13.72553	-0.1117535	1	13.72599	-0.4664927	1.726587E-005	0.0006925	10
	10	34	30046.88	13.84179	-0.2049731	1	13.84331	-0.84839	-2.819583E-006	0.0006523	10
	11	37	23859.38	13.95709	-0.3058367	1	13.96044	-1.255301	-2.500062E-005	0.0007133	10
	12	39	18984.38	14.07101	-0.4189081	1	14.07724	-1.705249	-2.422334E-005	0.0006622	10
	13	41	15046.87	14.19178	-0.5507077	1	14.20246	-2.222231	-1.86891E-006	0.0007124	10
	14	44	11953.13	14.31386	-0.7086844	1	14.3314	-2.83442	-2.61927E-005	0.0007113	10
	15	46	9515.62	14.43975	-0.8947057	1	14.46745	-3.545587	-2.617866E-005	0.0006667	10
	16	48	7546.875	14.5753	-1.124182	1	14.61859	-4.410449	8.816944E-006	0.0007092	10
	17	51	5928.309	14.71942	-1.415352	1	14.78731	-5.492414	7.114756E-006	0.0006759	10
	18	53	4733.456	14.87471	-1.750833	1	14.9774	-6.71313	-2.6695E-005	0.0007041	10
	19	55	3796.875	15.03515	-2.148419	1	15.18787	-8.132121	-2.249847E-005	0.0007109	10
	20	58	2987.132	15.223	-2.683954	1	15.45779	-9.99901	-2.21399E-005	0.0007172	10
	21	60	2390.625	15.42088	-3.30068	1	15.77016	-12.08128	2.660068E-005	0.0006982	10
	22	62	1884.191	15.64873	-4.107922	1	16.17893	-14.70875	2.512344E-005	0.0006795	10
	23	64	1516.544	15.89319	-5.013217	1	16.6651	-17.50694	6.329656E-006	0.0006602	10
	24	67	1193.986	16.19215	-6.245838	1	17.35501	-21.09324	-6.416506E-006	0.0006967	10
	25	69	946.5144	16.53829	-7.72757	1	18.25459	-25.04449	1.801935E-005	0.0007124	10
	26	72	751.7689	16.93531	-9.54016	1	19.43758	-29.39384	-2.963032E-005	0.0006986	10
	27	74	597.4265	17.41506	-11.76964	1	21.01925	-34.05207	1.532978E-005	0.0006876	10
	28	76	477.4305	17.98148	-14.43271	1	23.05725	-38.75203	-1.168578E-006	0.0006877	10
	29	78	376.6741	18.70495	-17.90075	1	25.89038	-43.74146	-1.832594E-006	0.0006832	10
	30	81	298.2954	19.59442	-22.1156	1	29.54726	-48.45906	-1.804548E-006	0.0006969	10
	31	83	237.7717	20.67519	-27.13691	1	34.11562	-52.69678	-1.438609E-006	0.0006915	10
	32	86	189.0121	22.03351	-33.35226	1	39.9731	-56.55005	-1.345627E-006	0.000697	10
	33	88	150.2404	23.70575	-40.90974	1	47.28181	-59.90922	9.850287E-007	0.0000958	9
	34	90	119.1737	25.86227	-50.28761	1	56.54821	-62.78382	9.377781E-007	9.421386E-005	9
	35	93	95.0169	28.52913	-61.47585	1	67.77309	-65.10538	9.124155E-007	0.0000967	9
	36	95	75.60484	31.94951	-75.21856	1	81.72272	-66.98637	9.631998E-007	9.317323E-005	9
	37	98	54.50582	38.49593	-100.1306	1	107.2757	-68.97038	9.033041E-007	8.745638E-005	9
	38	100	45.95588	43.02078	-116.1503	1	123.8616	-69.67594	1.000309E-006	0.0000965	9
	39	103	37.20238	49.85894	-139.2923	1	147.9468	-70.30544	9.596489E-007	0.0000951	9
	40	105	30.04808	58.54542	-167.0617	1	177.0231	-70.6874	9.325036E-007	9.432119E-005	9
	41	107	23.91582	70.31076	-202.3178	1	214.187	-70.83631	8.511815E-007	9.04937E-005	9
	42	110	18.60119	86.65205	-248.6862	1	263.3504	-70.78966	6.477606E-007	9.244656E-005	9
	43	112	15.02404	104.0615	-295.7335	1	313.5077	-70.61425	1.179486E-006	0.0001041	9
	44	114	12.01923	126.225	-352.8999	1	374.7947	-70.31892	8.786898E-007	8.643105E-005	9
	45	117	9.450605	154.0775	-423.9307	1	451.0622	-70.02634	2.901606E-007	0.0006796	8
	46	119	7.512019	186.0853	-505.3581	1	538.53	-69.78505	2.854613E-007	0.0006563	8
	47	122	5.978954	222.5512	-601.5454	1	641.3937	-69.69725	3.519756E-007	0.0006717	8
	48	125	4.734848	264.5257	-718.5627	1	765.7064	-69.78974	3.528673E-007	0.000642	8
	49	128	3.75601	311.0251	-858.8336	1	913.4177	-70.09223	4.490544E-007	0.0006827	8
	50	132	3.004808	360.017	-1022.656	1	1084.176	-70.60584	3.793076E-007	0.0006859	8
	51	135	2.372217	418.1868	-1234.684	1	1303.581	-71.28878	3.614058E-007	0.0006703	8
	52	140	1.878005	485.615	-1499.242	1	1575.927	-72.05249	4.123017E-007	0.0006495	8
	53	144	1.512097	557.2437	-1801.852	1	1886.052	-72.81516	3.979523E-007	0.0007725	8
	54	150	1.201923	650.5037	-2198.449	1	2292.669	-73.51693	4.126818E-007	0.0006503	8
	55	156	0.956633	764.524	-2686.708	1	2793.366	-74.11588	3.551693E-007	2.743296E-005	8
