EXPLAIN
TAG	EISPOT
TITLE	LABEL	Potentiostatic EIS	Test Identifier
DATE	LABEL	8/4/2020	Date
TIME	LABEL	9:35:42	Time
NOTES	NOTES	1	Notes...
	
PSTAT	PSTAT	REF3000-16137	Potentiostat
VDC	POTEN	0.00000E+000	T	DC Voltage (V)
FREQINIT	QUANT	3.00000E+005	Initial Freq. (Hz)
FREQFINAL	QUANT	1.00000E+000	Final Freq. (Hz)
PTSPERDEC	QUANT	1.00000E+001	Points/decade
VAC	QUANT	5.00000E+001	AC Voltage (mV rms)
AREA	QUANT	1.00000E+000	Sample Area (cm^2)
SPEED	SELECTOR	2	Optimize for:
ZGUESS	QUANT	1.00000E+003	Estimated Z (ohms)
EOC	QUANT	0	Open Circuit (V)
SEQUENCER	TOGGLE	TRUE	Run as Sequence
PSTATMODEL	IQUANT	5	Pstat Model
PSTATSECTION	LABEL	REF3000-16137	Pstat Section
PSTATSERIALNO	LABEL	16137	Pstat Serial Number
CTRLMODE	IQUANT	1	Control Mode
IESTAB	IQUANT	0	I/E Stability
CASPEED	IQUANT	1	Control Amp Speed
CONVENTION	IQUANT	1	Current Convention
ICHRANGE	IQUANT	2	Ich Range
ICHRANGEMODE	TOGGLE	F	Ich Auto Range
ICHOFFSETENABLE	TOGGLE	T	Ich Offset Enable
ICHOFFSET	QUANT	0	Ich Offset (V)
ICHFILTER	IQUANT	3	Ich Filter
VCHRANGE	IQUANT	2	Vch Range
VCHRANGEMODE	TOGGLE	F	Vch Auto Range
VCHOFFSETENABLE	TOGGLE	T	Vch Offset Enable
VCHOFFSET	QUANT	0	Vch Offset (V)
VCHFILTER	IQUANT	3	Vch Filter
ACHRANGE	IQUANT	2	Ach Range
ACHOFFSETENABLE	TOGGLE	F	Ach Offset Enable
ACHOFFSET	QUANT	0	Ach Offset (V)
ACHFILTER	IQUANT	3	Ach Filter
IERANGELOWERLIMIT	IQUANT	2	I/E Range Lower Limit
IERANGEMODE	TOGGLE	F	I/E AutoRange
IERANGE	IQUANT	11	I/E Range
POSFEEDENABLE	TOGGLE	F	Positive Feedback IR Comp
POSFEEDRESISTANCE	QUANT	0	Positive Feedback Resistance (ohm)
ACHSELECT	IQUANT	0	Ach Select
CABLEID	IQUANT	13	Cable ID
DCCALDATE	LABEL	7/31/2020	DC Calibration Date
ACCALDATE	LABEL	7/31/2020	AC Calibration Date
THERMOSELECT	IQUANT	1	Thermo Select
FRAMEWORKVERSION	QUANT	6.33	Framework Version
INSTRUMENTVERSION	LABEL	3.50	Instrument Version
COMPLIANCEVOLTAGE	IQUANT	0	Compliance Voltage
ZCURVE	TABLE
	Pt	Time	Freq	Zreal	Zimag	Zsig	Zmod	Zphz	Idc	Vdc	IERange
	#	s	Hz	ohm	ohm	V	ohm	°	A	V	#
	0	8	300046.9	8.134524	1.210745	1	8.224134	8.465771	-6.076586E-006	9.100906E-006	10
	1	11	238359.4	8.170793	0.9437109	1	8.22511	6.58836	2.215818E-005	0.0001171	10
	2	14	189328.1	8.221798	0.7361807	1	8.254691	5.116625	-0.0001117	0.0002517	10
	3	17	150421.9	8.260817	0.5636029	1	8.280021	3.903017	-8.223319E-005	0.0005173	10
	4	19	119484.4	8.320258	0.4183589	1	8.33077	2.87852	-2.505893E-005	0.0005248	10
	5	22	94921.88	8.378225	0.3215232	1	8.384393	2.197707	-2.154641E-005	0.0006357	10
	6	24	75421.88	8.429069	0.2055075	1	8.431574	1.396641	-2.14699E-005	0.0006455	10
	7	27	59859.37	8.483702	0.1002665	1	8.484294	0.6771315	-1.790263E-005	0.0006247	10
	8	30	47578.12	8.544415	0.005513	1	8.544417	0.0369681	-2.901457E-005	0.000639	10
	9	32	37828.12	8.606687	-0.0844976	1	8.607101	-0.5624927	-2.578166E-005	0.0006481	10
	10	35	30046.88	8.669644	-0.1757194	1	8.671425	-1.161132	-8.833043E-006	0.0006528	10
	11	37	23859.38	8.733214	-0.2735764	1	8.737498	-1.794259	1.34042E-005	0.0006547	10
	12	39	18984.38	8.796443	-0.3817534	1	8.804723	-2.484998	9.060022E-006	0.0007013	10
	13	42	15046.87	8.862798	-0.5086059	1	8.877379	-3.284408	-2.264523E-005	0.0007128	10
	14	44	11953.13	8.933305	-0.6555986	1	8.957329	-4.197306	-9.886106E-006	0.0006909	10
	15	46	9515.62	9.00862	-0.8323289	1	9.046989	-5.278713	1.215193E-005	0.00066	10
	16	49	7546.875	9.09038	-1.047509	1	9.150535	-6.573355	1.344871E-005	0.0006642	10
	17	51	5928.309	9.181329	-1.322314	1	9.276061	-8.195501	-1.728553E-005	0.0006796	10
	18	53	4733.456	9.278896	-1.636835	1	9.422162	-10.00428	-2.430606E-005	0.0006925	10
	19	56	3796.875	9.385941	-2.013888	1	9.59956	-12.11002	-2.662775E-005	0.0007108	10
	20	58	2987.132	9.5119	-2.515466	1	9.83889	-14.81303	-2.506462E-005	0.0006873	10
	21	60	2390.625	9.65022	-3.091522	1	10.13333	-17.76325	1.835607E-005	0.000671	10
	22	62	1884.191	9.81842	-3.850556	1	10.54647	-21.41397	-2.463109E-005	0.00069	10
	23	65	1516.544	10.00395	-4.703059	1	11.05431	-25.17916	2.227678E-005	0.0006849	10
	24	67	1193.986	10.24254	-5.85541	1	11.79811	-29.75556	-1.20489E-005	0.0006812	10
	25	70	946.5144	10.52329	-7.247352	1	12.77747	-34.55504	-2.458349E-005	0.0007106	10
	26	72	751.7689	10.86519	-8.940045	1	14.07042	-39.44808	-1.489459E-005	0.0007047	10
	27	74	597.4265	11.29136	-11.01621	1	15.77504	-44.29332	-2.515137E-005	0.0006951	10
	28	77	477.4305	11.79982	-13.49424	1	17.92569	-48.83247	-1.420224E-006	0.0006975	10
	29	79	376.6741	12.47329	-16.70873	1	20.85101	-53.25816	-1.618157E-006	0.0006946	10
	30	81	298.2954	13.30842	-20.60116	1	24.52594	-57.13741	-1.495814E-006	0.0006922	10
	31	83	237.7717	14.33618	-25.2341	1	29.02216	-60.39791	-1.632891E-006	0.0006946	10
	32	86	189.0121	15.6416	-30.9518	1	34.67958	-63.19009	-1.624108E-006	0.0006917	10
	33	88	150.2404	17.29481	-37.93011	1	41.68697	-65.48866	-1.487942E-006	0.0006948	10
	34	91	119.1737	19.39721	-46.46792	1	50.35394	-67.34277	1.105926E-006	0.0001	9
	35	93	95.0169	22.05435	-56.66269	1	60.80341	-68.73293	1.040645E-006	9.08228E-005	9
	36	96	75.60484	25.4901	-69.11267	1	73.66347	-69.75504	9.295342E-007	8.72278E-005	9
	37	98	54.50582	32.13371	-91.46554	1	96.946	-70.64259	9.043791E-007	8.740753E-005	9
	38	101	45.95588	36.6772	-105.706	1	111.8883	-70.86458	1.062024E-006	0.0000995	9
	39	103	37.20238	43.5097	-126.0904	1	133.3862	-70.96211	1.080928E-006	9.239763E-005	9
	40	105	30.04808	52.08	-150.3146	1	159.0811	-70.89016	1.017652E-006	8.361195E-005	9
	41	108	23.91582	63.33101	-180.6961	1	191.473	-70.68528	1.080069E-006	9.172776E-005	9
	42	110	18.60119	78.63577	-220.3922	1	234.0006	-70.36364	6.98538E-007	0.0001022	9
	43	112	15.02404	94.2752	-260.2356	1	276.7858	-70.08614	1.017001E-006	8.290239E-005	9
	44	115	12.01923	113.2799	-308.853	1	328.9719	-69.85818	9.895147E-007	9.00378E-005	9
	45	117	9.450605	136.7869	-370.7822	1	395.2089	-69.75026	1.126088E-006	8.645061E-005	9
	46	120	7.512019	161.3772	-439.6176	1	468.3014	-69.84255	4.437623E-007	0.0006526	8
	47	123	5.978954	189.2421	-523.9899	1	557.1158	-70.14251	4.556526E-007	0.0006724	8
	48	126	4.734848	220.637	-629.0058	1	666.5801	-70.67061	4.19702E-007	0.0006465	8
	49	129	3.75601	256.0028	-757.6617	1	799.7429	-71.33064	5.077751E-007	0.0006857	8
	50	132	3.004808	295.0694	-910.2847	1	956.914	-72.03986	4.787266E-007	0.000652	8
	51	136	2.372217	345.0714	-1111.872	1	1164.188	-72.75818	4.346785E-007	0.0005999	8
	52	140	1.878005	404.0786	-1359.948	1	1418.71	-73.45184	4.733798E-007	0.00068	8
	53	145	1.512097	474.5205	-1640.488	1	1707.738	-73.86718	4.170195E-007	0.0006331	8
	54	150	1.201923	571.8943	-2017.078	1	2096.585	-74.17059	4.74944E-007	0.000695	8
	55	157	0.956633	701.8111	-2472.128	1	2569.816	-74.15131	4.124462E-007	2.527279E-005	8
