EXPLAIN
TAG	EISPOT
TITLE	LABEL	Potentiostatic EIS	Test Identifier
DATE	LABEL	8/4/2020	Date
TIME	LABEL	9:24:29	Time
NOTES	NOTES	1	Notes...
	
PSTAT	PSTAT	REF3000-16137	Potentiostat
VDC	POTEN	0.00000E+000	T	DC Voltage (V)
FREQINIT	QUANT	3.00000E+005	Initial Freq. (Hz)
FREQFINAL	QUANT	1.00000E+000	Final Freq. (Hz)
PTSPERDEC	QUANT	1.00000E+001	Points/decade
VAC	QUANT	5.00000E+001	AC Voltage (mV rms)
AREA	QUANT	1.00000E+000	Sample Area (cm^2)
SPEED	SELECTOR	2	Optimize for:
ZGUESS	QUANT	1.00000E+003	Estimated Z (ohms)
EOC	QUANT	0	Open Circuit (V)
SEQUENCER	TOGGLE	TRUE	Run as Sequence
PSTATMODEL	IQUANT	5	Pstat Model
PSTATSECTION	LABEL	REF3000-16137	Pstat Section
PSTATSERIALNO	LABEL	16137	Pstat Serial Number
CTRLMODE	IQUANT	1	Control Mode
IESTAB	IQUANT	0	I/E Stability
CASPEED	IQUANT	1	Control Amp Speed
CONVENTION	IQUANT	1	Current Convention
ICHRANGE	IQUANT	2	Ich Range
ICHRANGEMODE	TOGGLE	F	Ich Auto Range
ICHOFFSETENABLE	TOGGLE	T	Ich Offset Enable
ICHOFFSET	QUANT	0	Ich Offset (V)
ICHFILTER	IQUANT	3	Ich Filter
VCHRANGE	IQUANT	2	Vch Range
VCHRANGEMODE	TOGGLE	F	Vch Auto Range
VCHOFFSETENABLE	TOGGLE	T	Vch Offset Enable
VCHOFFSET	QUANT	0	Vch Offset (V)
VCHFILTER	IQUANT	3	Vch Filter
ACHRANGE	IQUANT	2	Ach Range
ACHOFFSETENABLE	TOGGLE	F	Ach Offset Enable
ACHOFFSET	QUANT	0	Ach Offset (V)
ACHFILTER	IQUANT	3	Ach Filter
IERANGELOWERLIMIT	IQUANT	2	I/E Range Lower Limit
IERANGEMODE	TOGGLE	F	I/E AutoRange
IERANGE	IQUANT	11	I/E Range
POSFEEDENABLE	TOGGLE	F	Positive Feedback IR Comp
POSFEEDRESISTANCE	QUANT	0	Positive Feedback Resistance (ohm)
ACHSELECT	IQUANT	0	Ach Select
CABLEID	IQUANT	13	Cable ID
DCCALDATE	LABEL	7/31/2020	DC Calibration Date
ACCALDATE	LABEL	7/31/2020	AC Calibration Date
THERMOSELECT	IQUANT	1	Thermo Select
FRAMEWORKVERSION	QUANT	6.33	Framework Version
INSTRUMENTVERSION	LABEL	3.50	Instrument Version
COMPLIANCEVOLTAGE	IQUANT	0	Compliance Voltage
ZCURVE	TABLE
	Pt	Time	Freq	Zreal	Zimag	Zsig	Zmod	Zphz	Idc	Vdc	IERange
	#	s	Hz	ohm	ohm	V	ohm	°	A	V	#
	0	10	300046.9	3.380287	1.249979	1	3.603996	20.29363	7.334609E-005	-0.0001756	10
	1	13	238359.4	3.369238	0.995891	1	3.513341	16.46681	-4.195996E-005	-0.0004444	10
	2	16	189328.1	3.354338	0.7791211	1	3.443634	13.07638	1.0035E-005	-0.0001259	10
	3	19	150421.9	3.371933	0.393002	1	3.394758	6.647884	-5.968122E-006	0.000207	12
	4	22	119484.4	3.353674	0.4336234	1	3.381591	7.367357	-6.504928E-005	0.0005633	11
	5	25	94921.88	3.355189	0.3144379	1	3.369891	5.353944	-3.659754E-005	0.0005406	11
	6	27	75421.88	3.361619	0.2103156	1	3.368192	3.579974	1.626609E-005	0.0006413	11
	7	30	59859.37	3.368544	0.1181069	1	3.370614	2.008065	-4.686933E-005	0.0005993	11
	8	32	47578.12	3.377069	0.0337656	1	3.377238	0.5728524	-1.698888E-006	0.0006836	11
	9	35	37828.12	3.386302	-0.0475092	1	3.386635	-0.8037961	3.430996E-005	0.0007312	11
	10	37	30046.88	3.397161	-0.1298889	1	3.399643	-2.189612	3.032824E-005	0.0007379	11
	11	40	23859.38	3.409698	-0.2172356	1	3.416611	-3.64545	-3.132882E-005	0.0006874	11
	12	42	18984.38	3.422797	-0.3125972	1	3.437042	-5.218233	-2.707366E-005	0.0006754	11
	13	45	15046.87	3.438212	-0.4231566	1	3.464154	-7.016372	2.82054E-005	0.000741	11
	14	47	11953.13	3.457215	-0.5521005	1	3.501021	-9.073248	2.305654E-005	0.0007264	11
	15	49	9515.62	3.483114	-0.7029971	1	3.553349	-11.41072	-9.580526E-006	0.0006955	10
	16	51	7546.875	3.510926	-0.8892438	1	3.621789	-14.21293	-1.804932E-005	0.0006974	10
	17	54	5928.309	3.545736	-1.126688	1	3.720439	-17.6281	7.32902E-006	0.0006748	10
	18	56	4733.456	3.585424	-1.396948	1	3.847951	-21.28681	-9.254745E-006	0.0006786	10
	19	58	3796.875	3.634039	-1.720277	1	4.020646	-25.33188	2.31199E-005	0.0006842	10
	20	61	2987.132	3.702415	-2.151662	1	4.282234	-30.16305	6.505621E-006	0.0006789	10
	21	63	2390.625	3.78469	-2.642699	1	4.616031	-34.92508	2.30684E-005	0.0006853	10
	22	65	1884.191	3.895008	-3.290653	1	5.098969	-40.19241	2.095835E-005	0.0006863	10
	23	68	1516.544	4.025724	-4.011033	1	5.682855	-44.89526	6.973501E-006	0.00067	10
	24	70	1193.986	4.207871	-4.982277	1	6.521446	-49.81664	2.258431E-005	0.000682	10
	25	72	946.5144	4.441751	-6.137827	1	7.576416	-54.10793	8.517936E-006	0.0006738	10
	26	75	751.7689	4.723451	-7.54808	1	8.904185	-57.96242	-2.275928E-005	0.0006857	10
	27	77	597.4265	5.092868	-9.259906	1	10.56803	-61.18959	1.62734E-005	0.0006737	10
	28	79	477.4305	5.552204	-11.28952	1	12.58095	-63.81197	1.395988E-007	0.0006795	10
	29	82	376.6741	6.172223	-13.9064	1	15.21461	-66.06641	5.537362E-008	0.0006842	10
	30	84	298.2954	6.957456	-17.05201	1	18.41677	-67.80386	-1.069592E-007	0.000687	10
	31	86	237.7717	7.941022	-20.75906	1	22.22607	-69.06651	-2.170178E-007	0.0006864	10
	32	89	189.0121	9.218871	-25.285	1	26.91317	-69.96822	7.773059E-008	0.0006871	10
	33	91	150.2404	10.86234	-30.73671	1	32.59963	-70.53662	-1.321687E-007	0.0006829	10
	34	94	119.1737	12.98584	-37.32562	1	39.52005	-70.81686	-5.423192E-008	0.0006917	10
	35	96	95.0169	15.59524	-44.9391	1	47.56821	-70.86167	1.748063E-006	8.706158E-005	9
	36	99	75.60484	18.90774	-54.08406	1	57.29388	-70.73042	1.745951E-006	7.780625E-005	9
	37	101	54.50582	25.03762	-70.08733	1	74.42524	-70.34151	1.624441E-006	7.623605E-005	9
	38	104	45.95588	28.98079	-80.02363	1	85.10974	-70.092	1.798841E-006	8.878248E-005	9
	39	106	37.20238	34.60434	-94.08554	1	100.2474	-69.80665	1.691228E-006	9.352075E-005	9
	40	108	30.04808	41.1734	-110.6033	1	118.0184	-69.58161	1.607905E-006	8.790892E-005	9
	41	111	23.91582	49.17773	-131.3505	1	140.2548	-69.47406	1.496442E-006	8.329054E-005	9
	42	113	18.60119	59.31508	-158.9521	1	169.6586	-69.53627	1.483239E-006	0.0000958	9
	43	115	15.02404	69.01997	-187.317	1	199.6282	-69.77287	1.959764E-006	0.0000996	9
	44	118	12.01923	80.58862	-223.0146	1	237.1288	-70.13216	1.574118E-006	8.945156E-005	9
	45	120	9.450605	95.4654	-270.5136	1	286.8645	-70.56185	1.611224E-006	9.308106E-005	9
	46	123	7.512019	112.9876	-326.6902	1	345.6772	-70.92178	1.78525E-006	9.49332E-005	9
	47	125	5.978954	135.3531	-394.9772	1	417.5254	-71.08414	1.701795E-006	9.06359E-005	9
	48	128	4.734848	165.1778	-478.629	1	506.3293	-70.96013	1.047618E-006	0.0006934	8
	49	132	3.75601	206.6658	-581.4303	1	617.0672	-70.43256	1.227111E-006	0.0006845	8
	50	135	3.004808	260.995	-699.161	1	746.2871	-69.52953	1.258156E-006	0.0006472	8
	51	139	2.372217	342.2092	-846.234	1	912.8084	-67.98205	1.099014E-006	0.0005871	8
	52	143	1.878005	451.0314	-1012.669	1	1108.57	-65.99235	1.166115E-006	0.0007343	8
	53	148	1.512097	585.9874	-1180.619	1	1318.045	-63.60299	1.144926E-006	0.0006244	8
	54	153	1.201923	774.8163	-1375.552	1	1578.76	-60.60845	1.114818E-006	0.0006922	8
	55	159	0.956633	1011.92	-1567.962	1	1866.142	-57.1629	8.37352E-007	2.529515E-005	8
