EXPLAIN
TAG	EISPOT
TITLE	LABEL	Potentiostatic EIS	Test Identifier
DATE	LABEL	8/4/2020	Date
TIME	LABEL	9:56:27	Time
NOTES	NOTES	1	Notes...
	
PSTAT	PSTAT	REF3000-16137	Potentiostat
VDC	POTEN	0.00000E+000	T	DC Voltage (V)
FREQINIT	QUANT	3.00000E+005	Initial Freq. (Hz)
FREQFINAL	QUANT	1.00000E+000	Final Freq. (Hz)
PTSPERDEC	QUANT	1.00000E+001	Points/decade
VAC	QUANT	5.00000E+001	AC Voltage (mV rms)
AREA	QUANT	1.00000E+000	Sample Area (cm^2)
SPEED	SELECTOR	2	Optimize for:
ZGUESS	QUANT	1.00000E+003	Estimated Z (ohms)
EOC	QUANT	0	Open Circuit (V)
SEQUENCER	TOGGLE	TRUE	Run as Sequence
PSTATMODEL	IQUANT	5	Pstat Model
PSTATSECTION	LABEL	REF3000-16137	Pstat Section
PSTATSERIALNO	LABEL	16137	Pstat Serial Number
CTRLMODE	IQUANT	1	Control Mode
IESTAB	IQUANT	0	I/E Stability
CASPEED	IQUANT	1	Control Amp Speed
CONVENTION	IQUANT	1	Current Convention
ICHRANGE	IQUANT	2	Ich Range
ICHRANGEMODE	TOGGLE	F	Ich Auto Range
ICHOFFSETENABLE	TOGGLE	T	Ich Offset Enable
ICHOFFSET	QUANT	0	Ich Offset (V)
ICHFILTER	IQUANT	3	Ich Filter
VCHRANGE	IQUANT	2	Vch Range
VCHRANGEMODE	TOGGLE	F	Vch Auto Range
VCHOFFSETENABLE	TOGGLE	T	Vch Offset Enable
VCHOFFSET	QUANT	0	Vch Offset (V)
VCHFILTER	IQUANT	3	Vch Filter
ACHRANGE	IQUANT	2	Ach Range
ACHOFFSETENABLE	TOGGLE	F	Ach Offset Enable
ACHOFFSET	QUANT	0	Ach Offset (V)
ACHFILTER	IQUANT	3	Ach Filter
IERANGELOWERLIMIT	IQUANT	2	I/E Range Lower Limit
IERANGEMODE	TOGGLE	F	I/E AutoRange
IERANGE	IQUANT	11	I/E Range
POSFEEDENABLE	TOGGLE	F	Positive Feedback IR Comp
POSFEEDRESISTANCE	QUANT	0	Positive Feedback Resistance (ohm)
ACHSELECT	IQUANT	0	Ach Select
CABLEID	IQUANT	13	Cable ID
DCCALDATE	LABEL	7/31/2020	DC Calibration Date
ACCALDATE	LABEL	7/31/2020	AC Calibration Date
THERMOSELECT	IQUANT	1	Thermo Select
FRAMEWORKVERSION	QUANT	6.33	Framework Version
INSTRUMENTVERSION	LABEL	3.50	Instrument Version
COMPLIANCEVOLTAGE	IQUANT	0	Compliance Voltage
ZCURVE	TABLE
	Pt	Time	Freq	Zreal	Zimag	Zsig	Zmod	Zphz	Idc	Vdc	IERange
	#	s	Hz	ohm	ohm	V	ohm	°	A	V	#
	0	23	300046.9	1375.81	-3323.267	1	3596.798	-67.51078	-9.793895E-006	0.0017155	9
	1	39	238359.4	1744.075	-4026.328	1	4387.837	-66.5793	1.911528E-005	-0.0021454	9
	2	53	189328.1	2344.53	-4823.899	1	5363.471	-64.07914	1.882474E-005	-0.0003189	9
	3	62	150421.9	3011.284	-5850.408	1	6579.902	-62.76451	2.663158E-005	-0.0014668	9
	4	69	119484.4	4328.623	-6777.152	1	8041.564	-57.4333	3.942676E-005	-0.0181233	8
	5	76	94921.88	5205.375	-8072.512	1	9605.28	-57.18498	1.995709E-005	-1.833396E-005	9
	6	85	75421.88	6969.438	-9235.916	1	11570.45	-52.96173	-2.64601E-005	0.0097036	8
	7	94	59859.37	9090.153	-10343.93	1	13770.54	-48.69128	2.150431E-005	-0.0094244	8
	8	101	47578.12	11102.04	-12474.33	1	16699.23	-48.33121	-1.130545E-005	0.009998	8
	9	110	37828.12	15742.7	-12875.81	1	20337.63	-39.27942	-6.814559E-006	0.0222521	7
	10	116	30046.88	18757.72	-13947.74	1	23375.02	-36.6335	-7.017624E-006	0.0180914	7
	11	123	23859.38	22257.45	-14891.98	1	26779.94	-33.78564	-1.105042E-006	-0.0123708	7
	12	127	18984.38	25914.22	-15389.48	1	30139.39	-30.70448	-6.900417E-006	0.0224297	7
	13	132	15046.87	29512.93	-16943.33	1	34030.72	-29.86007	-1.119607E-005	0.0099299	8
	14	139	11953.13	34641.78	-16168.07	1	38229.04	-25.01948	-5.184291E-006	0.003699	7
	15	144	9515.62	39021.96	-17324.5	1	42694.86	-23.93969	2.164737E-005	-0.0095484	8
	16	150	7546.875	45027.87	-17087.66	1	48161.16	-20.78129	-1.790553E-006	-0.0048997	8
	17	158	5928.309	51442.62	-17324.87	1	54281.62	-18.61252	4.746899E-006	-0.0009697	7
	18	163	4733.456	56500.61	-17136.13	1	59042.07	-16.87209	-6.512261E-006	0.0117908	7
	19	169	3796.875	63253.5	-15961.78	1	65236.36	-14.16269	-1.042087E-006	-0.012805	7
	20	174	2987.132	68811.33	-13807.06	1	70182.86	-11.34579	-1.141555E-006	-0.0126587	7
	21	179	2390.625	76523.96	-13640.1	1	77730.1	-10.10661	-6.368092E-006	0.0252543	7
	22	185	1884.191	86349.98	-13573.29	1	87410.26	-8.933187	5.122183E-006	-0.0258599	7
	23	191	1516.544	90701.91	-14445.49	1	91845.02	-9.049121	5.114663E-006	-0.0259656	7
	24	198	1193.986	101667.1	-11985.72	1	102371.1	-6.723675	7.356934E-006	-0.0183889	7
	25	203	946.5144	99639.9	-17616.24	1	101185.2	-10.02623	7.202004E-006	-0.0076051	8
	26	209	751.7689	117660.5	-21202.11	1	119555.5	-10.21493	5.003269E-006	-0.0253051	7
	27	214	597.4265	134678.7	-15781.11	1	135600.1	-6.683212	7.597784E-006	-0.0245343	7
	28	219	477.4305	143895.2	-10998.48	1	144314.9	-4.370844	-1.121659E-007	0.0005949	7
	29	223	376.6741	149980.3	-7819.459	1	150184	-2.984504	-1.350328E-008	0.0006485	6
	30	225	298.2954	155886.8	-6728.849	1	156032	-2.471635	-1.406767E-008	0.0006862	6
	31	228	237.7717	162079.9	-6053.452	1	162192.9	-2.138921	-1.280343E-008	0.0006408	6
	32	230	189.0121	168661.3	-5350.864	1	168746.2	-1.817127	-1.361056E-008	0.0007172	6
	33	233	150.2404	175365.7	-4731.585	1	175429.5	-1.545537	-1.377663E-008	0.0007294	6
	34	235	119.1737	182337.3	-3411.519	1	182369.2	-1.071875	-1.306093E-008	0.0006703	6
	35	237	95.0169	189837.1	-3786.31	1	189874.8	-1.142616	-1.350208E-008	0.0007272	6
	36	240	75.60484	197784.2	-3456.279	1	197814.4	-1.001142	-1.369513E-008	0.0007281	6
	37	242	54.50582	206592.2	-2660.716	1	206609.3	-0.7378756	-1.314449E-008	0.000667	6
	38	245	45.95588	214717.8	-2788.891	1	214735.9	-0.7441521	-1.325457E-008	0.0007256	6
	39	247	37.20238	223125.9	-2505.465	1	223140	-0.6433432	-1.271248E-008	0.0006623	6
	40	250	30.04808	232327.5	-2481.853	1	232340.7	-0.6120425	-1.443868E-008	0.0007532	6
	41	252	23.91582	241885.9	-2550.017	1	241899.3	-0.6040031	-1.374949E-008	0.0007158	6
	42	254	18.60119	251103.6	-2353.871	1	251114.6	-0.5370808	-1.316177E-008	0.000717	6
	43	257	15.02404	261237.1	-2399.312	1	261248.1	-0.5262139	-1.355764E-008	0.0007207	6
	44	259	12.01923	271907.2	-2537.763	1	271919	-0.5347372	-1.291577E-008	0.0006401	6
	45	261	9.450605	283717.9	-2669.241	1	283730.5	-0.5390274	-1.205007E-008	0.0006484	6
	46	264	7.512019	297827	-3046.611	1	297842.6	-0.5860848	-1.259295E-008	0.0006861	6
	47	267	5.978954	313460.1	-3545.713	1	313480.2	-0.6480753	-1.262054E-008	0.0006605	6
	48	270	4.734848	331158	-4178.198	1	331184.3	-0.7228587	-1.30676E-008	0.0006637	6
	49	273	3.75601	358040.8	-4876.447	1	358074	-0.7803094	-1.201898E-008	0.0006755	6
	50	279	3.004808	397229.1	-5824.239	1	397271.8	-0.8400201	-1.069242E-008	0.0006417	6
	51	285	2.372217	436584.1	-6307.179	1	436629.6	-0.8276747	-9.649846E-010	0.0006097	5
	52	289	1.878005	473327.3	-8316.755	1	473400.3	-1.006631	-6.096447E-011	0.0006651	5
	53	294	1.512097	519381.7	-9952.54	1	519477	-1.097784	-4.310439E-010	0.0007001	5
	54	300	1.201923	576940.1	-12690.97	1	577079.6	-1.260134	-7.750049E-010	0.0006749	5
	55	306	0.956633	649511.5	-15876.71	1	649705.5	-1.400264	-3.285658E-009	2.978568E-005	5
