EXPLAIN
TAG	EISPOT
TITLE	LABEL	Potentiostatic EIS	Test Identifier
DATE	LABEL	8/31/2020	Date
TIME	LABEL	15:24:56	Time
NOTES	NOTES	1	Notes...
	
PSTAT	PSTAT	REF3000-16137	Potentiostat
VDC	POTEN	0.00000E+000	T	DC Voltage (V)
FREQINIT	QUANT	3.00000E+005	Initial Freq. (Hz)
FREQFINAL	QUANT	1.00000E+000	Final Freq. (Hz)
PTSPERDEC	QUANT	1.00000E+001	Points/decade
VAC	QUANT	5.00000E+001	AC Voltage (mV rms)
AREA	QUANT	1.00000E+000	Sample Area (cm^2)
SPEED	SELECTOR	2	Optimize for:
ZGUESS	QUANT	1.00000E+003	Estimated Z (ohms)
EOC	QUANT	0	Open Circuit (V)
SEQUENCER	TOGGLE	TRUE	Run as Sequence
PSTATMODEL	IQUANT	5	Pstat Model
PSTATSECTION	LABEL	REF3000-16137	Pstat Section
PSTATSERIALNO	LABEL	16137	Pstat Serial Number
CTRLMODE	IQUANT	1	Control Mode
IESTAB	IQUANT	0	I/E Stability
CASPEED	IQUANT	1	Control Amp Speed
CONVENTION	IQUANT	1	Current Convention
ICHRANGE	IQUANT	2	Ich Range
ICHRANGEMODE	TOGGLE	F	Ich Auto Range
ICHOFFSETENABLE	TOGGLE	T	Ich Offset Enable
ICHOFFSET	QUANT	0	Ich Offset (V)
ICHFILTER	IQUANT	3	Ich Filter
VCHRANGE	IQUANT	2	Vch Range
VCHRANGEMODE	TOGGLE	F	Vch Auto Range
VCHOFFSETENABLE	TOGGLE	T	Vch Offset Enable
VCHOFFSET	QUANT	0	Vch Offset (V)
VCHFILTER	IQUANT	3	Vch Filter
ACHRANGE	IQUANT	2	Ach Range
ACHOFFSETENABLE	TOGGLE	F	Ach Offset Enable
ACHOFFSET	QUANT	0	Ach Offset (V)
ACHFILTER	IQUANT	3	Ach Filter
IERANGELOWERLIMIT	IQUANT	2	I/E Range Lower Limit
IERANGEMODE	TOGGLE	F	I/E AutoRange
IERANGE	IQUANT	11	I/E Range
POSFEEDENABLE	TOGGLE	F	Positive Feedback IR Comp
POSFEEDRESISTANCE	QUANT	0	Positive Feedback Resistance (ohm)
ACHSELECT	IQUANT	0	Ach Select
CABLEID	IQUANT	13	Cable ID
DCCALDATE	LABEL	7/31/2020	DC Calibration Date
ACCALDATE	LABEL	7/31/2020	AC Calibration Date
THERMOSELECT	IQUANT	1	Thermo Select
FRAMEWORKVERSION	QUANT	6.33	Framework Version
INSTRUMENTVERSION	LABEL	3.50	Instrument Version
COMPLIANCEVOLTAGE	IQUANT	0	Compliance Voltage
ZCURVE	TABLE
	Pt	Time	Freq	Zreal	Zimag	Zsig	Zmod	Zphz	Idc	Vdc	IERange
	#	s	Hz	ohm	ohm	V	ohm	°	A	V	#
	0	19	300046.9	-66.12825	-4805.186	1	4805.641	-90.78844	-1.761873E-005	0.0016764	9
	1	41	238359.4	14.25209	-5991.003	1	5991.02	-89.8637	3.045531E-005	-0.0015557	9
	2	70	189328.1	10.18195	-7413.192	1	7413.199	-89.9213	-0.0001099	0.0037065	9
	3	81	150421.9	61.01022	-9362.367	1	9362.566	-89.62663	-1.447204E-005	0.00179	9
	4	90	119484.4	442.2415	-11805.91	1	11814.19	-87.85474	4.874696E-005	-0.0018148	8
	5	97	94921.88	627.0316	-14407.9	1	14421.54	-87.50806	-2.448587E-006	0.0079588	8
	6	106	75421.88	705.7943	-18255.29	1	18268.93	-87.7859	1.682464E-005	-0.0092996	8
	7	114	59859.37	433.8924	-22754.96	1	22759.09	-88.90762	2.614791E-005	-0.0050574	8
	8	123	47578.12	472.6695	-28587.66	1	28591.57	-89.05276	-2.510489E-005	0.0111849	8
	9	130	37828.12	907.0463	-36176.46	1	36187.84	-88.56374	-2.026144E-005	0.0027175	8
	10	140	30046.88	1825.037	-43818.42	1	43856.41	-87.61501	-2.395829E-005	0.0052059	8
	11	149	23859.38	-6622.146	-57592.66	1	57972.13	-96.5592	-2.029473E-005	0.0026967	8
	12	155	18984.38	2742.563	-73621.97	1	73673.03	-87.86661	-1.112002E-006	-0.0051337	8
	13	162	15046.87	5707.691	-91466.95	1	91644.87	-86.42928	-6.584849E-006	0.0261363	7
	14	167	11953.13	3777.463	-113796.2	1	113858.8	-88.09876	7.688212E-006	-0.0183156	7
	15	174	9515.62	3796.768	-141131.6	1	141182.7	-88.45898	7.708295E-006	-0.0186613	7
	16	180	7546.875	8752.215	-180762.8	1	180974.6	-87.228	7.644077E-006	-0.0185335	7
	17	185	5928.309	11350.46	-221990.9	1	222280.9	-87.073	-7.361721E-006	0.0187778	7
	18	192	4733.456	13832.81	-297058.2	1	297380.2	-87.33389	-1.225486E-005	0.0103378	8
	19	201	3796.875	6509.798	-349965.9	1	350026.5	-88.93435	6.929457E-006	-0.0270567	7
	20	208	2987.132	24889.02	-481929.7	1	482571.9	-87.04362	6.608385E-006	-0.0100129	7
	21	215	2390.625	-138653.5	-336035	1	363516.6	-112.4218	1.290024E-006	-0.0195943	7
	22	221	1884.191	45518.66	-734911.7	1	736320	-86.45576	6.11842E-007	-0.0070884	6
	23	226	1516.544	77539.3	-910232	1	913528.7	-85.13094	4.335996E-007	0.0021441	6
	24	233	1193.986	7858.528	-1083301	1	1083330	-89.58437	7.328124E-007	-0.0159228	6
	25	239	946.5144	186193.6	-1326190	1	1339197	-82.00806	4.022804E-007	-0.0255613	6
	26	242	751.7689	-200035.1	-1506375	1	1519599	-97.5642	-2.233267E-007	0.0229526	6
	27	246	597.4265	277060.4	-2132176	1	2150102	-82.59633	-5.572946E-007	0.0264206	6
	28	250	477.4305	75001.3	-2809202	1	2810203	-88.47066	-8.10968E-009	0.0006939	6
	29	254	376.6741	471816.6	-3669996	1	3700200	-82.67421	-8.455369E-010	0.0006812	5
	30	257	298.2954	510752.7	-4581456	1	4609838	-83.63878	-8.691523E-010	0.0006923	5
	31	260	237.7717	414735.7	-5745163	1	5760113	-85.87106	-8.225906E-010	0.0006845	5
	32	263	189.0121	543750.8	-7106825	1	7127595	-85.62476	-7.868494E-010	0.0005957	5
	33	266	150.2404	574992.1	-8496353	1	8515787	-86.1284	-7.781852E-010	0.0006245	5
	34	269	119.1737	-2132606	-1.449373E+007	1	1.464979E+007	-98.3704	-8.677009E-010	0.0006824	5
	35	271	95.0169	654904.9	-1.400687E+007	1	1.402217E+007	-87.32303	-8.258503E-010	0.0006809	5
	36	274	75.60484	153044.9	-1.728285E+007	1	1.728353E+007	-89.49265	-8.28741E-010	0.0006752	5
	37	277	54.50582	448360.5	-2.429092E+007	1	2.429506E+007	-88.94256	-8.137243E-010	0.0006726	5
	38	280	45.95588	923286.6	-2.761218E+007	1	2.762761E+007	-88.08488	-8.681236E-010	0.0006807	5
	39	284	37.20238	2644936	-3.304485E+007	1	3.315053E+007	-85.42376	-7.820564E-010	0.0006847	5
	40	288	30.04808	1004712	-4.453845E+007	1	4.454978E+007	-88.70773	-8.610194E-010	0.0006814	5
	41	292	23.91582	8063442	-5.434413E+007	1	5.493909E+007	-81.56018	-1.076106E-010	0.0006724	4
	42	296	18.60119	-6071702	-5.850334E+007	1	5.881756E+007	-95.9252	5.302133E-011	0.0006436	4
	43	299	15.02404	5170588	-8.550351E+007	1	8.56597E+007	-86.53941	-7.750193E-011	0.0006049	4
	44	303	12.01923	7551025	-1.085743E+008	1	1.088366E+008	-86.02165	-7.633589E-011	0.0006019	4
	45	306	9.450605	4568873	-1.400105E+008	1	1.400851E+008	-88.13097	-8.820916E-011	0.0006979	4
	46	311	7.512019	5762942	-1.724112E+008	1	1.725075E+008	-88.08557	-7.287163E-011	0.0006013	4
	47	315	5.978954	1.20554E+007	-2.124932E+008	1	2.128349E+008	-86.75291	-7.638722E-011	0.0006876	4
	48	320	4.734848	4.301936E+007	-2.870338E+008	1	2.902397E+008	-81.4762	-7.031276E-012	0.0007449	3
	49	325	3.75601	-1.18741E+007	-3.266186E+008	1	3.268344E+008	-92.08205	-8.367257E-010	0.000666	5
	50	333	3.004808	-2.260052E+007	-4.597719E+008	1	4.603271E+008	-92.81416	-8.711957E-010	0.000663	5
	51	343	2.372217	5.12725E+007	-5.508112E+008	1	5.531924E+008	-84.68192	-6.830931E-012	0.0007898	3
	52	348	1.878005	5.491447E+007	-6.889603E+008	1	6.911453E+008	-85.4428	-6.887553E-012	0.000691	3
	53	357	1.512097	5.976176E+007	-8.495234E+008	1	8.516228E+008	-85.97602	-6.790713E-012	0.000789	3
	54	363	1.201923	5.946997E+007	-1.065756E+009	1	1.067414E+009	-86.80617	-6.739634E-012	0.0006863	3
	55	376	0.956633	6.485766E+007	-1.340723E+009	1	1.342291E+009	-87.23047	-6.668534E-012	7.436133E-005	3
