EXPLAIN
TAG	EISPOT
TITLE	LABEL	Potentiostatic EIS	Test Identifier
DATE	LABEL	8/31/2020	Date
TIME	LABEL	13:29:39	Time
NOTES	NOTES	1	Notes...
	
PSTAT	PSTAT	REF3000-16137	Potentiostat
VDC	POTEN	0.00000E+000	T	DC Voltage (V)
FREQINIT	QUANT	3.00000E+005	Initial Freq. (Hz)
FREQFINAL	QUANT	1.00000E+000	Final Freq. (Hz)
PTSPERDEC	QUANT	1.00000E+001	Points/decade
VAC	QUANT	5.00000E+001	AC Voltage (mV rms)
AREA	QUANT	1.00000E+000	Sample Area (cm^2)
SPEED	SELECTOR	2	Optimize for:
ZGUESS	QUANT	1.00000E+003	Estimated Z (ohms)
EOC	QUANT	0	Open Circuit (V)
SEQUENCER	TOGGLE	TRUE	Run as Sequence
PSTATMODEL	IQUANT	5	Pstat Model
PSTATSECTION	LABEL	REF3000-16137	Pstat Section
PSTATSERIALNO	LABEL	16137	Pstat Serial Number
CTRLMODE	IQUANT	1	Control Mode
IESTAB	IQUANT	0	I/E Stability
CASPEED	IQUANT	1	Control Amp Speed
CONVENTION	IQUANT	1	Current Convention
ICHRANGE	IQUANT	2	Ich Range
ICHRANGEMODE	TOGGLE	F	Ich Auto Range
ICHOFFSETENABLE	TOGGLE	T	Ich Offset Enable
ICHOFFSET	QUANT	0	Ich Offset (V)
ICHFILTER	IQUANT	3	Ich Filter
VCHRANGE	IQUANT	2	Vch Range
VCHRANGEMODE	TOGGLE	F	Vch Auto Range
VCHOFFSETENABLE	TOGGLE	T	Vch Offset Enable
VCHOFFSET	QUANT	0	Vch Offset (V)
VCHFILTER	IQUANT	3	Vch Filter
ACHRANGE	IQUANT	2	Ach Range
ACHOFFSETENABLE	TOGGLE	F	Ach Offset Enable
ACHOFFSET	QUANT	0	Ach Offset (V)
ACHFILTER	IQUANT	3	Ach Filter
IERANGELOWERLIMIT	IQUANT	2	I/E Range Lower Limit
IERANGEMODE	TOGGLE	F	I/E AutoRange
IERANGE	IQUANT	11	I/E Range
POSFEEDENABLE	TOGGLE	F	Positive Feedback IR Comp
POSFEEDRESISTANCE	QUANT	0	Positive Feedback Resistance (ohm)
ACHSELECT	IQUANT	0	Ach Select
CABLEID	IQUANT	13	Cable ID
DCCALDATE	LABEL	7/31/2020	DC Calibration Date
ACCALDATE	LABEL	7/31/2020	AC Calibration Date
THERMOSELECT	IQUANT	1	Thermo Select
FRAMEWORKVERSION	QUANT	6.33	Framework Version
INSTRUMENTVERSION	LABEL	3.50	Instrument Version
COMPLIANCEVOLTAGE	IQUANT	0	Compliance Voltage
ZCURVE	TABLE
	Pt	Time	Freq	Zreal	Zimag	Zsig	Zmod	Zphz	Idc	Vdc	IERange
	#	s	Hz	ohm	ohm	V	ohm	°	A	V	#
	0	5	300046.9	300.3287	-35.17852	1	302.382	-6.680805	-1.068445E-005	-0.0015664	9
	1	8	238359.4	303.6045	-29.76445	1	305.06	-5.599209	-4.397155E-006	-0.0008183	9
	2	11	189328.1	306.8917	-25.15332	1	307.9207	-4.685579	1.048543E-005	0.0013985	9
	3	13	150421.9	308.4828	-21.62355	1	309.2398	-4.009673	-1.020136E-005	-0.0014991	9
	4	16	119484.4	310.9915	-18.51627	1	311.5423	-3.407337	3.516996E-006	0.0004316	9
	5	18	94921.88	312.4355	-15.84049	1	312.8368	-2.902414	-1.000042E-006	-0.0001178	9
	6	21	75421.88	314.1743	-14.13398	1	314.4921	-2.575868	-5.594106E-006	-0.0006631	9
	7	24	59859.37	315.8693	-12.9372	1	316.1341	-2.345378	2.803392E-006	0.0007945	9
	8	26	47578.12	317.4019	-12.31272	1	317.6406	-2.221517	1.440385E-006	0.0005098	9
	9	29	37828.12	318.9639	-12.17877	1	319.1963	-2.186623	3.537637E-006	0.0008408	9
	10	31	30046.88	320.67	-12.49855	1	320.9135	-2.23205	1.21884E-006	0.0001769	9
	11	34	23859.38	322.4409	-13.18324	1	322.7103	-2.341277	-4.343754E-006	-0.0003696	9
	12	36	18984.38	324.3552	-14.37719	1	324.6737	-2.537999	3.074182E-006	0.0007785	9
	13	38	15046.87	326.6162	-15.92392	1	327.0041	-2.791201	-3.326978E-006	-0.000141	9
	14	41	11953.13	328.6404	-18.0285	1	329.1345	-3.139975	-1.771081E-006	-0.0002888	9
	15	43	9515.62	331.4377	-20.34477	1	332.0616	-3.512602	-6.968401E-006	-0.0007802	9
	16	45	7546.875	334.5469	-23.38499	1	335.3633	-3.998498	3.505655E-006	0.0008476	9
	17	48	5928.309	338.1178	-26.68712	1	339.1694	-4.512912	2.076373E-006	0.0004771	9
	18	50	4733.456	341.7757	-30.52495	1	343.1361	-5.103705	3.242598E-006	0.0007652	9
	19	52	3796.875	345.6087	-34.69538	1	347.3459	-5.73267	-4.002931E-006	-0.0005143	9
	20	54	2987.132	350.5781	-40.03237	1	352.8563	-6.514365	-5.248713E-006	-0.0006985	9
	21	57	2390.625	355.5856	-45.49191	1	358.4838	-7.290543	-6.895672E-006	-0.0007677	9
	22	59	1884.191	361.3367	-52.49575	1	365.1302	-8.266215	1.109357E-006	0.000195	9
	23	61	1516.544	365.5471	-59.82683	1	370.4106	-9.294839	-3.479598E-006	0.0006221	8
	24	64	1193.986	372.812	-69.44917	1	379.2255	-10.55237	2.047647E-006	0.0006912	8
	25	66	946.5144	380.4344	-80.57287	1	388.8732	-11.95807	-2.861563E-006	0.0007835	8
	26	68	751.7689	389.1839	-93.50699	1	400.2595	-13.51005	-2.344365E-006	0.0005446	8
	27	71	597.4265	398.8873	-108.7039	1	413.434	-15.24395	6.53897E-007	0.000509	8
	28	73	477.4305	409.9884	-126.1415	1	428.9547	-17.10161	-3.613734E-007	0.0006463	8
	29	75	376.6741	423.3354	-147.7366	1	448.3737	-19.23809	-3.500633E-007	0.0006442	8
	30	78	298.2954	438.4949	-172.7771	1	471.3064	-21.50559	-3.655651E-007	0.0006529	8
	31	80	237.7717	455.5535	-201.4439	1	498.1051	-23.85482	-3.43195E-007	0.0006447	8
	32	83	189.0121	475.5238	-235.4767	1	530.6337	-26.34435	-3.349255E-007	0.000644	8
	33	85	150.2404	498.8136	-275.5481	1	569.8611	-28.91656	-3.346973E-007	0.0006463	8
	34	87	119.1737	526.4338	-322.9167	1	617.5822	-31.52513	-3.130908E-007	0.0006447	8
	35	90	95.0169	558.1514	-377.1808	1	673.6456	-34.04957	-3.172868E-007	0.000647	8
	36	92	75.60484	595.8513	-440.7466	1	741.1453	-36.49005	-3.044038E-007	0.0006392	8
	37	95	54.50582	660.7654	-549.6173	1	859.4709	-39.75331	-2.802803E-007	0.0006367	8
	38	97	45.95588	701.8151	-616.1083	1	933.8811	-41.27919	-2.840378E-007	0.0006436	8
	39	100	37.20238	759.056	-709.3991	1	1038.948	-43.06324	-2.150308E-007	0.0006426	8
	40	102	30.04808	826.1471	-818.267	1	1162.79	-44.72544	-2.204076E-007	0.0006437	8
	41	104	23.91582	909.9581	-951.099	1	1316.288	-46.2664	-2.351652E-007	0.0006416	8
	42	107	18.60119	1019.386	-1119.883	1	1514.36	-47.68961	-4.139197E-008	0.0006416	8
	43	109	15.02404	1132.068	-1289.223	1	1715.713	-48.7136	-1.819927E-007	0.0006425	8
	44	111	12.01923	1271.749	-1486.479	1	1956.263	-49.45154	-1.586052E-008	0.000645	8
	45	114	9.450605	1450.415	-1734.732	1	2261.194	-50.1009	-1.820261E-007	0.0006412	8
	46	116	7.512019	1659.004	-1997.83	1	2596.848	-50.29367	-1.60934E-007	0.0006527	8
	47	119	5.978954	1906.806	-2286.896	1	2977.55	-50.17877	-1.606715E-007	0.0006327	8
	48	122	4.734848	2208.266	-2602.202	1	3412.901	-49.68159	-1.892212E-007	0.0006213	8
	49	127	3.75601	2565.099	-2939.334	1	3901.207	-48.88944	-2.228112E-007	0.0006381	8
	50	132	3.004808	2970.238	-3283.91	1	4427.91	-47.87122	4.480957E-008	0.0006037	7
	51	139	2.372217	3470.33	-3653.456	1	5038.941	-46.47254	4.913644E-008	0.0006709	7
	52	143	1.878005	4011.261	-3984.062	1	5653.58	-44.80509	8.613209E-009	0.0005996	7
	53	152	1.512097	4570.952	-4325.085	1	6292.85	-43.41687	-1.381375E-009	0.0006254	7
	54	163	1.201923	5248.569	-4681.151	1	7032.827	-41.72948	-1.504686E-008	0.0005826	7
	55	176	0.956633	5985.296	-5035.215	1	7821.583	-40.0727	-7.194441E-008	-1.904993E-005	7
