EXPLAIN
TAG	EISPOT
TITLE	LABEL	Potentiostatic EIS	Test Identifier
DATE	LABEL	8/31/2020	Date
TIME	LABEL	14:51:02	Time
NOTES	NOTES	1	Notes...
	
PSTAT	PSTAT	REF3000-16137	Potentiostat
VDC	POTEN	0.00000E+000	T	DC Voltage (V)
FREQINIT	QUANT	3.00000E+005	Initial Freq. (Hz)
FREQFINAL	QUANT	1.00000E+000	Final Freq. (Hz)
PTSPERDEC	QUANT	1.00000E+001	Points/decade
VAC	QUANT	5.00000E+001	AC Voltage (mV rms)
AREA	QUANT	1.00000E+000	Sample Area (cm^2)
SPEED	SELECTOR	2	Optimize for:
ZGUESS	QUANT	1.00000E+003	Estimated Z (ohms)
EOC	QUANT	0	Open Circuit (V)
SEQUENCER	TOGGLE	TRUE	Run as Sequence
PSTATMODEL	IQUANT	5	Pstat Model
PSTATSECTION	LABEL	REF3000-16137	Pstat Section
PSTATSERIALNO	LABEL	16137	Pstat Serial Number
CTRLMODE	IQUANT	1	Control Mode
IESTAB	IQUANT	0	I/E Stability
CASPEED	IQUANT	1	Control Amp Speed
CONVENTION	IQUANT	1	Current Convention
ICHRANGE	IQUANT	2	Ich Range
ICHRANGEMODE	TOGGLE	F	Ich Auto Range
ICHOFFSETENABLE	TOGGLE	T	Ich Offset Enable
ICHOFFSET	QUANT	0	Ich Offset (V)
ICHFILTER	IQUANT	3	Ich Filter
VCHRANGE	IQUANT	2	Vch Range
VCHRANGEMODE	TOGGLE	F	Vch Auto Range
VCHOFFSETENABLE	TOGGLE	T	Vch Offset Enable
VCHOFFSET	QUANT	0	Vch Offset (V)
VCHFILTER	IQUANT	3	Vch Filter
ACHRANGE	IQUANT	2	Ach Range
ACHOFFSETENABLE	TOGGLE	F	Ach Offset Enable
ACHOFFSET	QUANT	0	Ach Offset (V)
ACHFILTER	IQUANT	3	Ach Filter
IERANGELOWERLIMIT	IQUANT	2	I/E Range Lower Limit
IERANGEMODE	TOGGLE	F	I/E AutoRange
IERANGE	IQUANT	11	I/E Range
POSFEEDENABLE	TOGGLE	F	Positive Feedback IR Comp
POSFEEDRESISTANCE	QUANT	0	Positive Feedback Resistance (ohm)
ACHSELECT	IQUANT	0	Ach Select
CABLEID	IQUANT	13	Cable ID
DCCALDATE	LABEL	7/31/2020	DC Calibration Date
ACCALDATE	LABEL	7/31/2020	AC Calibration Date
THERMOSELECT	IQUANT	1	Thermo Select
FRAMEWORKVERSION	QUANT	6.33	Framework Version
INSTRUMENTVERSION	LABEL	3.50	Instrument Version
COMPLIANCEVOLTAGE	IQUANT	0	Compliance Voltage
ZCURVE	TABLE
	Pt	Time	Freq	Zreal	Zimag	Zsig	Zmod	Zphz	Idc	Vdc	IERange
	#	s	Hz	ohm	ohm	V	ohm	°	A	V	#
	0	15	300046.9	127.3609	-2529.364	1	2532.569	-87.11742	-6.653145E-006	-0.0024294	9
	1	29	238359.4	167.363	-3099.993	1	3104.507	-86.90971	-2.464215E-006	-0.0001434	9
	2	42	189328.1	160.8611	-3852.744	1	3856.101	-87.60915	-3.007853E-007	0.0005695	9
	3	50	150421.9	374.9372	-4705.565	1	4720.479	-85.44432	2.121867E-005	0.0014596	9
	4	57	119484.4	250.4076	-6015.046	1	6020.256	-87.61614	-1.237998E-005	0.0018676	8
	5	65	94921.88	293.322	-7565.03	1	7570.715	-87.77956	3.017945E-006	0.0004552	8
	6	69	75421.88	323.3322	-9437.786	1	9443.323	-88.03785	-1.957633E-006	0.0012218	8
	7	73	59859.37	419.3281	-11924.17	1	11931.55	-87.98595	2.276045E-006	-4.43617E-006	8
	8	76	47578.12	592.6943	-14920.14	1	14931.91	-87.72515	-7.70731E-007	0.0039458	7
	9	79	37828.12	636.3488	-18685.08	1	18695.91	-88.04946	2.428737E-007	0.0011562	7
	10	82	30046.88	786.9373	-23425.23	1	23438.45	-88.07595	9.592856E-007	-0.0021249	7
	11	85	23859.38	1242.606	-29321.53	1	29347.84	-87.57333	-1.077398E-006	0.0030193	7
	12	88	18984.38	1555.971	-36746.28	1	36779.21	-87.57534	-4.756705E-007	0.0001589	7
	13	93	15046.87	2079.915	-46169.32	1	46216.15	-87.42059	5.389089E-007	-0.002601	7
	14	98	11953.13	2877.409	-58339.75	1	58410.66	-87.17637	5.997902E-007	-8.960706E-005	7
	15	104	9515.62	4147.107	-72604.56	1	72722.91	-86.73087	5.955119E-007	-7.302371E-005	7
	16	108	7546.875	6362.584	-91520.3	1	91741.2	-86.02314	-7.26899E-007	0.0039664	7
	17	114	5928.309	7040.451	-115663.8	1	115877.9	-86.51671	1.031499E-006	-0.0023211	7
	18	119	4733.456	10898.82	-144024.2	1	144436	-85.67247	1.030326E-007	-0.00298	6
	19	122	3796.875	15890.48	-178742	1	179446.9	-84.91966	-4.992055E-008	0.0002542	6
	20	124	2987.132	22472.56	-225118.7	1	226237.6	-84.29931	1.028822E-007	-0.0029745	6
	21	128	2390.625	30386.22	-279564	1	281210.5	-83.79679	-9.434071E-008	0.0044674	6
	22	131	1884.191	47450.56	-351956.4	1	355140.7	-82.32172	7.82188E-008	-0.0011826	6
	23	137	1516.544	67915.49	-432679.8	1	437977.5	-81.07937	1.032059E-007	-0.0029763	6
	24	141	1193.986	100770.7	-540071.3	1	549392.2	-79.43084	-4.649649E-008	0.0034312	6
	25	147	946.5144	163064.6	-671008.6	1	690537.9	-76.34109	-1.144075E-007	0.0041578	6
	26	149	751.7689	216899.9	-815720.5	1	844064.9	-75.10961	-4.691434E-008	0.0001736	6
	27	152	597.4265	315332.2	-999093	1	1047674	-72.48335	7.957912E-008	-0.0011977	6
	28	156	477.4305	483719.6	-1178340	1	1273762	-67.68139	-1.041062E-009	0.0006647	5
	29	158	376.6741	696216.9	-1384336	1	1549550	-63.30104	-1.023971E-009	0.0006499	5
	30	160	298.2954	971622	-1577652	1	1852845	-58.37251	-1.037807E-009	0.0006686	5
	31	163	237.7717	1301790	-1733555	1	2167918	-53.09576	-1.021688E-009	0.0006529	5
	32	165	189.0121	1685926	-1833696	1	2490942	-47.40413	-1.036133E-009	0.0006557	5
	33	169	150.2404	2096411	-1867289	1	2807439	-41.69169	-1.060496E-009	0.0006583	5
	34	171	119.1737	2503065	-1817811	1	3093505	-35.98844	-1.038424E-009	0.0006541	5
	35	173	95.0169	2867528	-1704210	1	3335723	-30.72357	-1.060722E-009	0.0006611	5
	36	176	75.60484	3183437	-1550828	1	3541093	-25.97326	-1.025819E-009	0.0006591	5
	37	178	54.50582	3531412	-1294349	1	3761145	-20.12912	-1.065324E-009	0.0006568	5
	38	181	45.95588	3687189	-1160631	1	3865543	-17.47264	-1.864424E-010	0.0006699	4
	39	183	37.20238	3833829	-1016307	1	3966248	-14.84701	-1.31007E-010	0.0006619	4
	40	186	30.04808	3956597	-887468.4	1	4054906	-12.64225	-1.40446E-010	0.0006633	4
	41	188	23.91582	4063393	-769636.9	1	4135638	-10.7252	-1.715797E-010	0.0006554	4
	42	190	18.60119	4159908	-666817.8	1	4213013	-9.10683	-7.741619E-011	0.0006548	4
	43	193	15.02404	4236382	-596121.9	1	4278118	-8.009778	-2.271729E-010	0.0006565	4
	44	195	12.01923	4309575	-538578.6	1	4343099	-7.123467	-7.559193E-011	0.0006697	4
	45	197	9.450605	4383802	-497524.2	1	4411944	-6.474879	-1.204395E-010	0.0006422	4
	46	200	7.512019	4453904	-475396	1	4479204	-6.092508	-5.145537E-011	0.0006671	4
	47	203	5.978954	4535112	-465611.8	1	4558951	-5.861917	-4.807803E-011	0.0006642	4
	48	206	4.734848	4622579	-467021.4	1	4646111	-5.769045	-6.762869E-011	0.0006672	4
	49	209	3.75601	4721349	-480509	1	4745738	-5.811193	-1.138152E-010	0.0006341	4
	50	212	3.004808	4823075	-507025.8	1	4849652	-6.001178	-2.222679E-010	0.0006987	4
	51	216	2.372217	4946809	-536866.4	1	4975856	-6.193945	-9.762313E-011	0.0007002	4
	52	220	1.878005	5082985	-585348.4	1	5116578	-6.569154	-1.199511E-010	0.000634	4
	53	225	1.512097	5235888	-639898.1	1	5274846	-6.967784	-1.393464E-010	0.0007501	4
	54	231	1.201923	5423208	-710766.2	1	5469586	-7.466634	-8.082934E-011	0.0006465	4
	55	237	0.956633	5636992	-787011.8	1	5691666	-7.948006	-3.772124E-010	1.915415E-005	4
