EXPLAIN
TAG	EISPOT
TITLE	LABEL	Potentiostatic EIS	Test Identifier
DATE	LABEL	8/31/2020	Date
TIME	LABEL	13:23:29	Time
NOTES	NOTES	1	Notes...
	
PSTAT	PSTAT	REF3000-16137	Potentiostat
VDC	POTEN	0.00000E+000	T	DC Voltage (V)
FREQINIT	QUANT	3.00000E+005	Initial Freq. (Hz)
FREQFINAL	QUANT	1.00000E+000	Final Freq. (Hz)
PTSPERDEC	QUANT	1.00000E+001	Points/decade
VAC	QUANT	5.00000E+001	AC Voltage (mV rms)
AREA	QUANT	1.00000E+000	Sample Area (cm^2)
SPEED	SELECTOR	2	Optimize for:
ZGUESS	QUANT	1.00000E+003	Estimated Z (ohms)
EOC	QUANT	0	Open Circuit (V)
SEQUENCER	TOGGLE	TRUE	Run as Sequence
PSTATMODEL	IQUANT	5	Pstat Model
PSTATSECTION	LABEL	REF3000-16137	Pstat Section
PSTATSERIALNO	LABEL	16137	Pstat Serial Number
CTRLMODE	IQUANT	1	Control Mode
IESTAB	IQUANT	0	I/E Stability
CASPEED	IQUANT	1	Control Amp Speed
CONVENTION	IQUANT	1	Current Convention
ICHRANGE	IQUANT	2	Ich Range
ICHRANGEMODE	TOGGLE	F	Ich Auto Range
ICHOFFSETENABLE	TOGGLE	T	Ich Offset Enable
ICHOFFSET	QUANT	0	Ich Offset (V)
ICHFILTER	IQUANT	3	Ich Filter
VCHRANGE	IQUANT	2	Vch Range
VCHRANGEMODE	TOGGLE	F	Vch Auto Range
VCHOFFSETENABLE	TOGGLE	T	Vch Offset Enable
VCHOFFSET	QUANT	0	Vch Offset (V)
VCHFILTER	IQUANT	3	Vch Filter
ACHRANGE	IQUANT	2	Ach Range
ACHOFFSETENABLE	TOGGLE	F	Ach Offset Enable
ACHOFFSET	QUANT	0	Ach Offset (V)
ACHFILTER	IQUANT	3	Ach Filter
IERANGELOWERLIMIT	IQUANT	2	I/E Range Lower Limit
IERANGEMODE	TOGGLE	F	I/E AutoRange
IERANGE	IQUANT	11	I/E Range
POSFEEDENABLE	TOGGLE	F	Positive Feedback IR Comp
POSFEEDRESISTANCE	QUANT	0	Positive Feedback Resistance (ohm)
ACHSELECT	IQUANT	0	Ach Select
CABLEID	IQUANT	13	Cable ID
DCCALDATE	LABEL	7/31/2020	DC Calibration Date
ACCALDATE	LABEL	7/31/2020	AC Calibration Date
THERMOSELECT	IQUANT	1	Thermo Select
FRAMEWORKVERSION	QUANT	6.33	Framework Version
INSTRUMENTVERSION	LABEL	3.50	Instrument Version
COMPLIANCEVOLTAGE	IQUANT	0	Compliance Voltage
ZCURVE	TABLE
	Pt	Time	Freq	Zreal	Zimag	Zsig	Zmod	Zphz	Idc	Vdc	IERange
	#	s	Hz	ohm	ohm	V	ohm	°	A	V	#
	0	5	300046.9	197.8338	-13.58189	1	198.2994	-3.927367	8.395992E-006	0.0012886	9
	1	8	238359.4	199.2362	-12.1245	1	199.6048	-3.482434	-1.312717E-005	-0.001563	9
	2	11	189328.1	200.4108	-10.41357	1	200.6812	-2.974478	1.374696E-005	0.0012219	9
	3	14	150421.9	201.712	-9.196946	1	201.9216	-2.610561	1.21414E-005	0.0012164	9
	4	16	119484.4	202.4822	-7.985762	1	202.6396	-2.258537	-1.642308E-006	7.557191E-005	9
	5	19	94921.88	203.4815	-7.232801	1	203.61	-2.035736	-6.986269E-006	-0.0006665	9
	6	21	75421.88	204.4226	-6.858403	1	204.5376	-1.92156	-8.018332E-006	-0.0006809	9
	7	24	59859.37	205.283	-6.740348	1	205.3936	-1.880598	4.433194E-006	0.0005806	9
	8	26	47578.12	206.2942	-6.852924	1	206.408	-1.902619	5.987051E-006	0.0007794	9
	9	29	37828.12	207.237	-7.320074	1	207.3662	-2.022974	-7.978844E-006	-0.000683	9
	10	31	30046.88	208.3173	-7.955758	1	208.4691	-2.187096	-7.423734E-006	-0.0006303	9
	11	34	23859.38	209.4639	-8.761003	1	209.647	-2.395048	-5.49409E-007	0.0001218	9
	12	36	18984.38	210.6819	-9.95602	1	210.917	-2.705566	-5.845697E-006	-0.0005087	9
	13	39	15046.87	212.1451	-11.33832	1	212.4478	-3.059324	5.965374E-006	0.0008008	9
	14	41	11953.13	213.8033	-13.09444	1	214.2039	-3.504717	-4.411673E-006	-0.0002739	9
	15	43	9515.62	215.5694	-15.07198	1	216.0956	-3.999446	-5.284649E-006	-0.0004114	9
	16	46	7546.875	217.6763	-17.39876	1	218.3705	-4.569908	4.017408E-006	0.0005653	9
	17	48	5928.309	220.1723	-20.26456	1	221.103	-5.258662	-6.842803E-006	-0.0005352	9
	18	50	4733.456	222.7455	-23.15765	1	223.9461	-5.935409	-7.830692E-006	-0.0006666	9
	19	53	3796.875	225.5624	-26.534	1	227.1177	-6.709147	-7.234882E-006	-0.0006786	9
	20	55	2987.132	228.9656	-30.6432	1	231.007	-7.622782	-6.685786E-006	-0.000643	9
	21	57	2390.625	232.4576	-35.11597	1	235.095	-8.590377	-1.610807E-006	-7.810246E-005	9
	22	59	1884.191	236.5947	-40.77842	1	240.0832	-9.77917	2.711107E-006	0.000475	9
	23	62	1516.544	240.8244	-46.83235	1	245.3358	-11.00478	2.93681E-006	0.0003915	9
	24	64	1193.986	246.0816	-54.72256	1	252.0927	-12.53719	5.440211E-006	0.0007678	9
	25	67	946.5144	251.8869	-63.78543	1	259.8377	-14.21031	-6.77355E-006	-0.0006375	9
	26	69	751.7689	258.403	-74.18083	1	268.8399	-16.0174	2.934428E-006	0.0004211	9
	27	71	597.4265	265.9207	-86.44849	1	279.6197	-18.00889	-2.819425E-006	-0.000273	9
	28	73	477.4305	274.1869	-100.5809	1	292.053	-20.14473	-7.493546E-007	7.152664E-005	9
	29	76	376.6741	284.294	-118.1191	1	307.8558	-22.56201	-7.422891E-007	6.68567E-005	9
	30	78	298.2954	295.8224	-138.5457	1	326.6585	-25.0956	-7.224041E-007	7.091049E-005	9
	31	80	237.7717	308.873	-162.0067	1	348.7818	-27.67742	-8.073128E-007	6.897018E-005	9
	32	83	189.0121	324.2983	-189.8939	1	375.8046	-30.35125	-7.045639E-007	7.123596E-005	9
	33	85	150.2404	340.9243	-221.7713	1	406.7086	-33.04401	-1.972283E-007	0.0006469	8
	34	88	119.1737	362.3206	-260.3914	1	446.1837	-35.70392	-1.898778E-007	0.0006443	8
	35	90	95.0169	386.7953	-304.6777	1	492.381	-38.22742	-1.611954E-007	0.0006397	8
	36	93	75.60484	415.8436	-356.7804	1	547.9216	-40.62853	-1.616811E-007	0.0006475	8
	37	95	54.50582	465.9794	-446.6811	1	645.4926	-43.78865	-1.088592E-007	0.000638	8
	38	98	45.95588	497.8857	-501.9261	1	706.9794	-45.23154	-8.610105E-008	0.0006511	8
	39	100	37.20238	542.7402	-579.8641	1	794.2351	-46.89405	-1.203052E-008	0.0006492	8
	40	102	30.04808	596.1314	-671.518	1	897.9471	-48.40335	-5.115763E-008	0.0006505	8
	41	105	23.91582	664.2531	-782.6736	1	1026.553	-49.67882	7.440305E-008	0.0006413	8
	42	107	18.60119	755.9314	-925.5573	1	1195.027	-50.76042	9.258183E-008	0.0006477	8
	43	109	15.02404	850.9322	-1066.411	1	1364.301	-51.41223	2.871969E-008	0.0006482	8
	44	112	12.01923	970.599	-1228.467	1	1565.629	-51.6881	1.564438E-007	0.0006533	8
	45	114	9.450605	1127.77	-1426.978	1	1818.827	-51.67995	1.215633E-007	0.000639	8
	46	117	7.512019	1309.315	-1631.6	1	2091.99	-51.25391	1.483058E-007	0.0006465	8
	47	119	5.978954	1522.116	-1850.403	1	2396.003	-50.55975	1.010594E-007	0.0006453	8
	48	122	4.734848	1780.158	-2080.9	1	2738.45	-49.45384	-3.140067E-008	0.0006602	8
	49	127	3.75601	2073.277	-2316.259	1	3108.622	-48.16837	-2.222332E-008	0.0006683	8
	50	133	3.004808	2401.06	-2550.048	1	3502.547	-46.72362	-8.51556E-008	0.0006648	8
	51	139	2.372217	2801.97	-2802.123	1	3962.692	-45.00157	3.362018E-008	0.0005597	7
	52	143	1.878005	3226.468	-3013.672	1	4415.01	-43.0469	7.800092E-008	0.0006117	7
	53	148	1.512097	3642.313	-3213.57	1	4857.312	-41.42157	-1.728514E-008	0.0006658	7
	54	159	1.201923	4138.014	-3421.044	1	5369.05	-39.58176	-3.930363E-008	0.0006258	7
	55	172	0.956633	4679.946	-3641.274	1	5929.652	-37.88503	-1.734755E-007	-1.723105E-005	7
