EXPLAIN
TAG	EISPOT
TITLE	LABEL	Potentiostatic EIS	Test Identifier
DATE	LABEL	8/31/2020	Date
TIME	LABEL	14:38:57	Time
NOTES	NOTES	1	Notes...
	
PSTAT	PSTAT	REF3000-16137	Potentiostat
VDC	POTEN	0.00000E+000	T	DC Voltage (V)
FREQINIT	QUANT	3.00000E+005	Initial Freq. (Hz)
FREQFINAL	QUANT	1.00000E+000	Final Freq. (Hz)
PTSPERDEC	QUANT	1.00000E+001	Points/decade
VAC	QUANT	5.00000E+001	AC Voltage (mV rms)
AREA	QUANT	1.00000E+000	Sample Area (cm^2)
SPEED	SELECTOR	2	Optimize for:
ZGUESS	QUANT	1.00000E+003	Estimated Z (ohms)
EOC	QUANT	0	Open Circuit (V)
SEQUENCER	TOGGLE	TRUE	Run as Sequence
PSTATMODEL	IQUANT	5	Pstat Model
PSTATSECTION	LABEL	REF3000-16137	Pstat Section
PSTATSERIALNO	LABEL	16137	Pstat Serial Number
CTRLMODE	IQUANT	1	Control Mode
IESTAB	IQUANT	0	I/E Stability
CASPEED	IQUANT	1	Control Amp Speed
CONVENTION	IQUANT	1	Current Convention
ICHRANGE	IQUANT	2	Ich Range
ICHRANGEMODE	TOGGLE	F	Ich Auto Range
ICHOFFSETENABLE	TOGGLE	T	Ich Offset Enable
ICHOFFSET	QUANT	0	Ich Offset (V)
ICHFILTER	IQUANT	3	Ich Filter
VCHRANGE	IQUANT	2	Vch Range
VCHRANGEMODE	TOGGLE	F	Vch Auto Range
VCHOFFSETENABLE	TOGGLE	T	Vch Offset Enable
VCHOFFSET	QUANT	0	Vch Offset (V)
VCHFILTER	IQUANT	3	Vch Filter
ACHRANGE	IQUANT	2	Ach Range
ACHOFFSETENABLE	TOGGLE	F	Ach Offset Enable
ACHOFFSET	QUANT	0	Ach Offset (V)
ACHFILTER	IQUANT	3	Ach Filter
IERANGELOWERLIMIT	IQUANT	2	I/E Range Lower Limit
IERANGEMODE	TOGGLE	F	I/E AutoRange
IERANGE	IQUANT	11	I/E Range
POSFEEDENABLE	TOGGLE	F	Positive Feedback IR Comp
POSFEEDRESISTANCE	QUANT	0	Positive Feedback Resistance (ohm)
ACHSELECT	IQUANT	0	Ach Select
CABLEID	IQUANT	13	Cable ID
DCCALDATE	LABEL	7/31/2020	DC Calibration Date
ACCALDATE	LABEL	7/31/2020	AC Calibration Date
THERMOSELECT	IQUANT	1	Thermo Select
FRAMEWORKVERSION	QUANT	6.33	Framework Version
INSTRUMENTVERSION	LABEL	3.50	Instrument Version
COMPLIANCEVOLTAGE	IQUANT	0	Compliance Voltage
ZCURVE	TABLE
	Pt	Time	Freq	Zreal	Zimag	Zsig	Zmod	Zphz	Idc	Vdc	IERange
	#	s	Hz	ohm	ohm	V	ohm	°	A	V	#
	0	14	300046.9	121.2618	-2505.191	1	2508.124	-87.22881	-8.877498E-006	-0.0018256	9
	1	28	238359.4	146.4285	-3104.615	1	3108.066	-87.29966	-1.573931E-005	-0.0048884	9
	2	43	189328.1	182.8665	-3835.502	1	3839.859	-87.27036	6.305634E-006	0.0015414	9
	3	52	150421.9	258.6505	-4771.616	1	4778.621	-86.89725	-5.10294E-006	-0.0016011	9
	4	59	119484.4	362.0337	-5982.623	1	5993.567	-86.53702	-9.840723E-006	0.000859	8
	5	67	94921.88	452.6634	-7472.448	1	7486.146	-86.53339	-4.189287E-006	0.0009783	8
	6	70	75421.88	594.701	-9376.953	1	9395.793	-86.37107	-3.444487E-006	0.0005586	8
	7	73	59859.37	810.3257	-11784.38	1	11812.21	-86.06638	5.29743E-007	0.0001667	8
	8	78	47578.12	1169.929	-14731.06	1	14777.44	-85.45914	-8.742049E-007	0.0038608	7
	9	80	37828.12	1667.745	-18434.15	1	18509.43	-84.8305	6.830685E-007	-0.0026281	7
	10	83	30046.88	2372.847	-23038.2	1	23160.08	-84.11949	8.347832E-007	-0.0027498	7
	11	86	23859.38	3358.076	-28716.07	1	28911.76	-83.33009	-9.155459E-007	0.0024339	7
	12	89	18984.38	4873.029	-35869.85	1	36199.34	-82.26356	8.417855E-007	-0.0026747	7
	13	93	15046.87	7320.559	-44639.56	1	45235.84	-80.68681	9.224813E-007	-0.0021544	7
	14	98	11953.13	11236.78	-55263.78	1	56394.59	-78.50673	-8.329807E-007	0.0038279	7
	15	104	9515.62	15301.36	-68410.1	1	70100.45	-77.39211	-3.391239E-007	0.0027549	7
	16	107	7546.875	23432.13	-83521.27	1	86746	-74.32838	5.388873E-007	-0.0002169	7
	17	114	5928.309	34054.5	-100105.1	1	105739	-71.21233	-3.588532E-008	0.001849	7
	18	120	4733.456	49635.26	-121197.6	1	130967.6	-67.72894	1.254277E-008	-0.001531	6
	19	122	3796.875	69251.58	-140621	1	156748.3	-63.78114	-4.111381E-008	0.0002692	6
	20	124	2987.132	98414.1	-161004.5	1	188700.3	-58.5646	-4.116258E-008	0.0030084	6
	21	127	2390.625	131142.9	-177296.8	1	220528	-53.51041	-1.014867E-007	0.0037421	6
	22	130	1884.191	170936.1	-188061.5	1	254138.3	-47.73113	-9.958646E-008	0.0040788	6
	23	133	1516.544	210598.7	-192464.9	1	285297.3	-42.424	-9.964439E-008	0.0040497	6
	24	137	1193.986	254398.5	-189510.4	1	317226.7	-36.68372	1.632087E-008	0.0011014	6
	25	142	946.5144	291071.3	-178021.8	1	341195.3	-31.45033	-9.989129E-008	0.0040824	6
	26	146	751.7689	328059.7	-164000.9	1	366769	-26.56101	-6.600906E-008	0.0036467	6
	27	150	597.4265	353289.1	-147079	1	382681.9	-22.60261	1.120949E-008	0.0012567	6
	28	153	477.4305	377220.3	-127505.3	1	398186.8	-18.67591	-1.27678E-009	0.0006554	5
	29	156	376.6741	394507.1	-110491.9	1	409688.1	-15.64628	-1.303227E-009	0.0006668	5
	30	158	298.2954	407911.8	-95973.4	1	419050.1	-13.23975	-1.249352E-009	0.0006524	5
	31	160	237.7717	418552.5	-84213.13	1	426940.4	-11.37608	-1.242769E-009	0.000651	5
	32	163	189.0121	427703	-74697.09	1	434176.8	-9.90663	-1.300506E-009	0.000665	5
	33	165	150.2404	435732.7	-67390.33	1	440913.2	-8.791697	-1.242975E-009	0.0006476	5
	34	168	119.1737	443183.2	-62106.97	1	447513.8	-7.977387	-1.116057E-009	0.0006487	5
	35	170	95.0169	450281.1	-58743.75	1	454096.8	-7.432837	-1.225052E-009	0.0006432	5
	36	172	75.60484	457521.4	-57027.43	1	461061.8	-7.104948	-1.145958E-009	0.0006413	5
	37	175	54.50582	467027.2	-57078.3	1	470502.2	-6.967918	-1.036279E-009	0.0006412	5
	38	178	45.95588	473584.7	-58347.23	1	477165.5	-7.023638	-1.132857E-009	0.0006579	5
	39	180	37.20238	481355.9	-60888.36	1	485191.6	-7.209252	-9.037903E-010	0.000651	5
	40	182	30.04808	489930.3	-64531.68	1	494162	-7.503578	-1.21551E-009	0.0006416	5
	41	185	23.91582	499730.9	-69472.05	1	504536.7	-7.914472	-1.698726E-009	0.0006512	5
	42	187	18.60119	511474.4	-76617.78	1	517181.2	-8.51944	-3.95043E-010	0.0006474	5
	43	189	15.02404	523028.8	-82752.27	1	529534.8	-8.990664	-1.493379E-009	0.0006405	5
	44	192	12.01923	536528.1	-90152.28	1	544049.5	-9.53825	-2.214652E-010	0.00066	5
	45	194	9.450605	552207.6	-99348.7	1	561073.4	-10.19908	-2.246818E-009	0.0006651	5
	46	197	7.512019	569785.9	-108674	1	580056.9	-10.79821	-2.086496E-009	0.0006476	5
	47	199	5.978954	589492.4	-117724.9	1	601132.7	-11.29371	-1.780118E-009	0.0006603	5
	48	202	4.734848	610430.9	-127190	1	623540.9	-11.76981	-1.944535E-009	0.0006372	5
	49	206	3.75601	633689	-136779.7	1	648282.7	-12.18024	-8.407293E-010	0.0006702	5
	50	209	3.004808	657366.5	-147453.4	1	673701.1	-12.64271	1.860919E-010	0.0006261	5
	51	213	2.372217	683534.8	-157462.8	1	701437.3	-12.97265	-8.283654E-010	0.0005768	5
	52	217	1.878005	711439.6	-170607.1	1	731609.9	-13.48519	-2.306732E-010	0.0006575	5
	53	222	1.512097	740005.4	-184077.1	1	762556.5	-13.96887	1.137383E-011	0.0005938	5
	54	227	1.201923	771503.3	-199346.5	1	796841.4	-14.48763	-7.654625E-010	0.0006792	5
	55	233	0.956633	807923.4	-218058.9	1	836833.3	-15.10426	-2.489687E-009	1.986651E-005	5
