EXPLAIN
TAG	EISPOT
TITLE	LABEL	Potentiostatic EIS	Test Identifier
DATE	LABEL	8/31/2020	Date
TIME	LABEL	15:18:49	Time
NOTES	NOTES	1	Notes...
	
PSTAT	PSTAT	REF3000-16137	Potentiostat
VDC	POTEN	0.00000E+000	T	DC Voltage (V)
FREQINIT	QUANT	3.00000E+005	Initial Freq. (Hz)
FREQFINAL	QUANT	1.00000E+000	Final Freq. (Hz)
PTSPERDEC	QUANT	1.00000E+001	Points/decade
VAC	QUANT	5.00000E+001	AC Voltage (mV rms)
AREA	QUANT	1.00000E+000	Sample Area (cm^2)
SPEED	SELECTOR	2	Optimize for:
ZGUESS	QUANT	1.00000E+003	Estimated Z (ohms)
EOC	QUANT	0	Open Circuit (V)
SEQUENCER	TOGGLE	TRUE	Run as Sequence
PSTATMODEL	IQUANT	5	Pstat Model
PSTATSECTION	LABEL	REF3000-16137	Pstat Section
PSTATSERIALNO	LABEL	16137	Pstat Serial Number
CTRLMODE	IQUANT	1	Control Mode
IESTAB	IQUANT	0	I/E Stability
CASPEED	IQUANT	1	Control Amp Speed
CONVENTION	IQUANT	1	Current Convention
ICHRANGE	IQUANT	2	Ich Range
ICHRANGEMODE	TOGGLE	F	Ich Auto Range
ICHOFFSETENABLE	TOGGLE	T	Ich Offset Enable
ICHOFFSET	QUANT	0	Ich Offset (V)
ICHFILTER	IQUANT	3	Ich Filter
VCHRANGE	IQUANT	2	Vch Range
VCHRANGEMODE	TOGGLE	F	Vch Auto Range
VCHOFFSETENABLE	TOGGLE	T	Vch Offset Enable
VCHOFFSET	QUANT	0	Vch Offset (V)
VCHFILTER	IQUANT	3	Vch Filter
ACHRANGE	IQUANT	2	Ach Range
ACHOFFSETENABLE	TOGGLE	F	Ach Offset Enable
ACHOFFSET	QUANT	0	Ach Offset (V)
ACHFILTER	IQUANT	3	Ach Filter
IERANGELOWERLIMIT	IQUANT	2	I/E Range Lower Limit
IERANGEMODE	TOGGLE	F	I/E AutoRange
IERANGE	IQUANT	11	I/E Range
POSFEEDENABLE	TOGGLE	F	Positive Feedback IR Comp
POSFEEDRESISTANCE	QUANT	0	Positive Feedback Resistance (ohm)
ACHSELECT	IQUANT	0	Ach Select
CABLEID	IQUANT	13	Cable ID
DCCALDATE	LABEL	7/31/2020	DC Calibration Date
ACCALDATE	LABEL	7/31/2020	AC Calibration Date
THERMOSELECT	IQUANT	1	Thermo Select
FRAMEWORKVERSION	QUANT	6.33	Framework Version
INSTRUMENTVERSION	LABEL	3.50	Instrument Version
COMPLIANCEVOLTAGE	IQUANT	0	Compliance Voltage
ZCURVE	TABLE
	Pt	Time	Freq	Zreal	Zimag	Zsig	Zmod	Zphz	Idc	Vdc	IERange
	#	s	Hz	ohm	ohm	V	ohm	°	A	V	#
	0	14	300046.9	-54.75011	-4830.039	1	4830.349	-90.64944	2.151599E-005	-0.000563	9
	1	28	238359.4	49.70056	-5976.079	1	5976.286	-89.52351	9.214474E-005	-0.0025574	9
	2	44	189328.1	35.12134	-7474.823	1	7474.905	-89.73079	2.648241E-005	0.001134	9
	3	56	150421.9	601.8594	-9343.365	1	9362.729	-86.31435	-0.0001067	0.0036729	9
	4	67	119484.4	210.1705	-11661.27	1	11663.17	-88.96748	-6.060794E-005	0.0005773	9
	5	76	94921.88	590.7393	-14435.53	1	14447.61	-87.65662	2.613295E-005	-0.0050381	8
	6	85	75421.88	597.3166	-18086.95	1	18096.81	-88.10851	-2.003027E-005	0.011413	8
	7	93	59859.37	477.4858	-22773.73	1	22778.73	-88.79888	2.747115E-005	-0.0073845	8
	8	102	47578.12	4003.094	-29912.03	1	30178.7	-82.37746	7.628771E-006	-0.0184332	7
	9	109	37828.12	4205.342	-37191.34	1	37428.34	-83.54879	3.797539E-007	0.0165738	7
	10	117	30046.88	4381.342	-46531.34	1	46737.15	-84.62095	5.499377E-006	-0.0270064	7
	11	124	23859.38	-15.54265	-57545.94	1	57545.94	-90.01547	1.655543E-005	-0.0093281	8
	12	131	18984.38	4697.441	-72258.63	1	72411.15	-86.28051	7.702331E-006	-0.0186562	7
	13	136	15046.87	3187.598	-90972.74	1	91028.57	-87.99323	-1.843727E-006	0.0224076	7
	14	142	11953.13	4632.565	-114103.2	1	114197.3	-87.67508	-7.313418E-006	0.023367	7
	15	148	9515.62	6140.462	-142994.5	1	143126.3	-87.54111	2.304665E-005	-0.0098303	8
	16	155	7546.875	-5829.771	-195743.2	1	195830	-91.70592	-9.014133E-006	-0.0022596	8
	17	163	5928.309	-7662.343	-228372.7	1	228501.2	-91.92166	-3.343484E-006	-0.0053717	7
	18	169	4733.456	39757.82	-297694.7	1	300337.8	-82.39303	7.375605E-007	-0.0159828	6
	19	175	3796.875	39937.97	-373263.5	1	375394	-83.89278	6.193758E-007	-0.006742	6
	20	180	2987.132	70905.85	-449273.9	1	454834.8	-81.03137	-3.812708E-006	0.0256488	7
	21	186	2390.625	-61998.37	-534227.1	1	537812.6	-96.6197	-9.841655E-007	-0.0136371	7
	22	193	1884.191	-52711.82	-632302.7	1	634496.1	-94.76543	-1.817748E-006	0.022236	7
	23	199	1516.544	18908.04	-901127.3	1	901325.6	-88.79796	-4.86497E-007	0.001196	6
	24	206	1193.986	382817.5	-1399351	1	1450770	-74.70006	-1.816994E-006	0.0222848	7
	25	214	946.5144	18789.38	-1364689	1	1364819	-89.21119	6.041699E-007	-0.0068635	6
	26	219	751.7689	68366.3	-1688567	1	1689950	-87.68149	7.655074E-007	-0.0224947	6
	27	224	597.4265	-535213.8	-2259812	1	2322327	-103.3244	-7.26832E-007	0.0170782	6
	28	228	477.4305	80610.04	-2816536	1	2817689	-88.36063	-7.504686E-009	0.0006057	6
	29	234	376.6741	470481.9	-3663296	1	3693385	-82.68149	-8.107944E-010	0.0006326	5
	30	238	298.2954	504001.5	-4562342	1	4590096	-83.6961	-8.599635E-010	0.0006866	5
	31	241	237.7717	610355.4	-5737541	1	5769914	-83.92775	-8.570424E-010	0.0006829	5
	32	244	189.0121	571740.1	-7089458	1	7112475	-85.38927	-7.830313E-010	0.0006268	5
	33	246	150.2404	905398	-9037274	1	9082514	-84.27892	-8.652886E-010	0.0006874	5
	34	249	119.1737	-1663503	-1.504216E+007	1	1.513386E+007	-96.3107	-8.520865E-010	0.0006776	5
	35	252	95.0169	506504.4	-1.369172E+007	1	1.370109E+007	-87.88139	-8.72558E-010	0.0006876	5
	36	255	75.60484	8585.211	-1.737048E+007	1	1.737048E+007	-89.97168	-8.99546E-010	0.0006941	5
	37	258	54.50582	572705.4	-2.364915E+007	1	2.365608E+007	-88.61275	-8.514608E-010	0.0006844	5
	38	261	45.95588	-22343.11	-2.799126E+007	1	2.799126E+007	-90.04574	-7.705376E-010	0.0006131	5
	39	265	37.20238	-991912	-3.710853E+007	1	3.712179E+007	-91.53115	-8.053719E-010	0.0006847	5
	40	268	30.04808	4693789	-4.473279E+007	1	4.497838E+007	-84.0099	-6.292911E-011	0.0006468	4
	41	272	23.91582	7438435	-5.881218E+007	1	5.928072E+007	-82.79163	-1.109273E-010	0.000609	4
	42	276	18.60119	-1.466527E+007	-6.604686E+007	1	6.765543E+007	-102.519	-2.084497E-010	0.0006052	4
	43	280	15.02404	5393385	-8.653183E+007	1	8.669975E+007	-86.43346	-7.64238E-011	0.0006798	4
	44	283	12.01923	5841663	-1.078887E+008	1	1.080468E+008	-86.90073	-7.379807E-011	0.0006341	4
	45	287	9.450605	6304329	-1.378556E+008	1	1.379997E+008	-87.38161	-6.956818E-011	0.0006159	4
	46	291	7.512019	4024868	-1.684335E+008	1	1.684816E+008	-88.63113	-6.550822E-011	0.000616	4
	47	296	5.978954	1888409	-2.123273E+008	1	2.123357E+008	-89.49043	-8.192137E-011	0.0006275	4
	48	301	4.734848	4.43058E+007	-2.864587E+008	1	2.898648E+008	-81.20789	-6.020892E-012	0.0007177	3
	49	306	3.75601	-2.052606E+007	-3.572658E+008	1	3.57855E+008	-93.28821	-7.799072E-010	0.0006133	5
	50	314	3.004808	7418487	-4.604359E+008	1	4.604956E+008	-89.07693	-8.745711E-010	0.0006464	5
	51	323	2.372217	5.623923E+007	-5.47684E+008	1	5.50564E+008	-84.1371	-7.083186E-012	0.0006481	3
	52	329	1.878005	6.067062E+007	-6.855334E+008	1	6.882129E+008	-84.94242	-6.83513E-012	0.000717	3
	53	338	1.512097	6.620932E+007	-8.441769E+008	1	8.467693E+008	-85.51543	-7.102879E-012	0.0006718	3
	54	344	1.201923	7.193794E+007	-1.058557E+009	1	1.060998E+009	-86.11224	-6.763646E-012	0.0007411	3
	55	356	0.956633	8.146586E+007	-1.329546E+009	1	1.332039E+009	-86.49368	-6.734426E-012	7.448334E-005	3
