EXPLAIN
TAG	EISPOT
TITLE	LABEL	Potentiostatic EIS	Test Identifier
DATE	LABEL	8/31/2020	Date
TIME	LABEL	13:32:46	Time
NOTES	NOTES	1	Notes...
	
PSTAT	PSTAT	REF3000-16137	Potentiostat
VDC	POTEN	0.00000E+000	T	DC Voltage (V)
FREQINIT	QUANT	3.00000E+005	Initial Freq. (Hz)
FREQFINAL	QUANT	1.00000E+000	Final Freq. (Hz)
PTSPERDEC	QUANT	1.00000E+001	Points/decade
VAC	QUANT	5.00000E+001	AC Voltage (mV rms)
AREA	QUANT	1.00000E+000	Sample Area (cm^2)
SPEED	SELECTOR	2	Optimize for:
ZGUESS	QUANT	1.00000E+003	Estimated Z (ohms)
EOC	QUANT	0	Open Circuit (V)
SEQUENCER	TOGGLE	TRUE	Run as Sequence
PSTATMODEL	IQUANT	5	Pstat Model
PSTATSECTION	LABEL	REF3000-16137	Pstat Section
PSTATSERIALNO	LABEL	16137	Pstat Serial Number
CTRLMODE	IQUANT	1	Control Mode
IESTAB	IQUANT	0	I/E Stability
CASPEED	IQUANT	1	Control Amp Speed
CONVENTION	IQUANT	1	Current Convention
ICHRANGE	IQUANT	2	Ich Range
ICHRANGEMODE	TOGGLE	F	Ich Auto Range
ICHOFFSETENABLE	TOGGLE	T	Ich Offset Enable
ICHOFFSET	QUANT	0	Ich Offset (V)
ICHFILTER	IQUANT	3	Ich Filter
VCHRANGE	IQUANT	2	Vch Range
VCHRANGEMODE	TOGGLE	F	Vch Auto Range
VCHOFFSETENABLE	TOGGLE	T	Vch Offset Enable
VCHOFFSET	QUANT	0	Vch Offset (V)
VCHFILTER	IQUANT	3	Vch Filter
ACHRANGE	IQUANT	2	Ach Range
ACHOFFSETENABLE	TOGGLE	F	Ach Offset Enable
ACHOFFSET	QUANT	0	Ach Offset (V)
ACHFILTER	IQUANT	3	Ach Filter
IERANGELOWERLIMIT	IQUANT	2	I/E Range Lower Limit
IERANGEMODE	TOGGLE	F	I/E AutoRange
IERANGE	IQUANT	11	I/E Range
POSFEEDENABLE	TOGGLE	F	Positive Feedback IR Comp
POSFEEDRESISTANCE	QUANT	0	Positive Feedback Resistance (ohm)
ACHSELECT	IQUANT	0	Ach Select
CABLEID	IQUANT	13	Cable ID
DCCALDATE	LABEL	7/31/2020	DC Calibration Date
ACCALDATE	LABEL	7/31/2020	AC Calibration Date
THERMOSELECT	IQUANT	1	Thermo Select
FRAMEWORKVERSION	QUANT	6.33	Framework Version
INSTRUMENTVERSION	LABEL	3.50	Instrument Version
COMPLIANCEVOLTAGE	IQUANT	0	Compliance Voltage
ZCURVE	TABLE
	Pt	Time	Freq	Zreal	Zimag	Zsig	Zmod	Zphz	Idc	Vdc	IERange
	#	s	Hz	ohm	ohm	V	ohm	°	A	V	#
	0	5	300046.9	373.355	-56.58675	1	377.6189	-8.61832	-1.227883E-006	-0.0002738	9
	1	8	238359.4	379.1387	-46.89947	1	382.0284	-7.051667	-1.068175E-006	-0.0002707	9
	2	11	189328.1	382.8189	-40.94342	1	385.0022	-6.104718	-5.805447E-006	-0.0010073	9
	3	13	150421.9	386.6501	-31.81737	1	387.957	-4.704261	-1.33351E-006	0.0010811	9
	4	16	119484.4	387.7954	-27.65243	1	388.78	-4.078672	2.158818E-007	0.0002735	8
	5	18	94921.88	391.191	-21.83942	1	391.8002	-3.195393	2.198418E-006	0.000624	8
	6	21	75421.88	392.9338	-19.04182	1	393.3949	-2.77442	2.521228E-006	0.0004304	8
	7	24	59859.37	394.9305	-17.60866	1	395.3228	-2.552941	2.557457E-007	0.0007194	8
	8	26	47578.12	396.7847	-16.38777	1	397.123	-2.365052	-3.220146E-006	0.0007205	8
	9	29	37828.12	398.7474	-15.7515	1	399.0584	-2.262148	2.456624E-006	0.0005658	8
	10	31	30046.88	400.9069	-16.10162	1	401.2301	-2.299934	2.188481E-006	0.0007162	8
	11	34	23859.38	402.8983	-16.49504	1	403.2358	-2.344434	6.74474E-007	0.0004982	8
	12	36	18984.38	405.3249	-17.54002	1	405.7042	-2.47787	3.457814E-007	0.0007279	8
	13	38	15046.87	407.5695	-19.34188	1	408.0282	-2.717027	-1.939332E-006	0.0005087	8
	14	41	11953.13	410.6973	-21.39871	1	411.2544	-2.982605	2.5041E-006	0.0005109	8
	15	43	9515.62	413.7496	-23.99071	1	414.4445	-3.318502	2.199694E-006	0.0004794	8
	16	45	7546.875	417.2076	-27.25132	1	418.0967	-3.737158	2.461642E-006	0.0006218	8
	17	48	5928.309	421.3446	-31.25057	1	422.5019	-4.241786	-8.800741E-007	0.0005255	8
	18	50	4733.456	425.4515	-35.39097	1	426.921	-4.755173	-2.046363E-006	0.0006068	8
	19	52	3796.875	430.3361	-40.32641	1	432.2215	-5.353502	-3.080702E-006	0.0006334	8
	20	54	2987.132	436.4478	-46.07853	1	438.8734	-6.026749	8.581692E-007	0.000503	8
	21	57	2390.625	441.9909	-52.35678	1	445.0811	-6.755589	-1.129156E-006	0.0005963	8
	22	59	1884.191	449.0631	-60.13867	1	453.0721	-7.627684	1.195736E-006	0.0007207	8
	23	61	1516.544	456.0919	-68.60599	1	461.223	-8.554377	1.531085E-007	0.0004706	8
	24	64	1193.986	464.4176	-79.2348	1	471.1283	-9.68207	6.718792E-007	0.0005144	8
	25	66	946.5144	473.5654	-91.5157	1	482.327	-10.93749	1.805131E-006	0.0008567	8
	26	69	751.7689	483.4395	-106.0311	1	494.9306	-12.37061	-2.505344E-006	0.0006302	8
	27	71	597.4265	494.7912	-122.6822	1	509.7738	-13.92551	-3.076063E-006	0.0006773	8
	28	73	477.4305	507.3994	-142.0925	1	526.9198	-15.64441	-3.896519E-007	0.0006417	8
	29	75	376.6741	522.6406	-166.1361	1	548.4108	-17.63433	-3.859801E-007	0.0006404	8
	30	78	298.2954	539.9146	-193.9863	1	573.7059	-19.76289	-3.965434E-007	0.0006487	8
	31	80	237.7717	559.3084	-225.8335	1	603.1805	-21.98752	-3.776112E-007	0.000641	8
	32	83	189.0121	581.9237	-263.6095	1	638.8467	-24.37037	-3.72461E-007	0.0006447	8
	33	85	150.2404	608.1448	-308.082	1	681.7291	-26.86646	-3.625726E-007	0.0006444	8
	34	88	119.1737	639.1169	-360.7068	1	733.88	-29.43965	-3.864146E-007	0.0006486	8
	35	90	95.0169	674.734	-421.1	1	795.356	-31.96819	-3.615351E-007	0.0006432	8
	36	92	75.60484	717.2263	-491.9995	1	869.7569	-34.44916	-3.528682E-007	0.0006437	8
	37	95	54.50582	790.6119	-613.4475	1	1000.692	-37.80842	-3.490147E-007	0.0006355	8
	38	97	45.95588	837.2633	-687.3342	1	1083.254	-39.38359	-3.176505E-007	0.0006472	8
	39	100	37.20238	902.2261	-790.8535	1	1199.776	-41.23644	-2.745956E-007	0.0006449	8
	40	102	30.04808	978.003	-911.3123	1	1336.78	-42.97837	-3.232963E-007	0.0006466	8
	41	105	23.91582	1072.261	-1057.811	1	1506.223	-44.61132	-3.147371E-007	0.0006406	8
	42	107	18.60119	1195.119	-1244.774	1	1725.623	-46.16588	-2.843024E-007	0.0006487	8
	43	109	15.02404	1319.334	-1430.772	1	1946.215	-47.32045	-2.981686E-007	0.0006373	8
	44	112	12.01923	1471.629	-1650.057	1	2210.968	-48.27132	-1.615395E-007	0.000645	8
	45	114	9.450605	1667.269	-1922.506	1	2544.763	-49.06696	-2.234485E-007	0.0006377	8
	46	117	7.512019	1891.935	-2217.659	1	2915.035	-49.53176	-1.713221E-007	0.0006606	8
	47	119	5.978954	2161.703	-2544.88	1	3339.068	-49.65435	-2.461309E-007	0.0006475	8
	48	122	4.734848	2490.491	-2911.406	1	3831.296	-49.45547	-2.365141E-007	0.0006465	8
	49	127	3.75601	2883.81	-3311.295	1	4391.018	-48.94736	2.684256E-008	0.0005982	7
	50	133	3.004808	3324.703	-3712.456	1	4983.571	-48.15386	3.664445E-008	0.0006141	7
	51	139	2.372217	3874.656	-4148.86	1	5676.794	-46.95733	3.382612E-008	0.0006715	7
	52	147	1.878005	4495.143	-4579.387	1	6416.938	-45.53189	4.792546E-009	0.0006027	7
	53	156	1.512097	5133.658	-5006.274	1	7170.58	-44.28025	5.088884E-009	0.0006228	7
	54	166	1.201923	5914.668	-5458.339	1	8048.401	-42.7023	-9.792024E-009	0.0005783	7
	55	179	0.956633	6772.86	-5911.736	1	8990.009	-41.1163	-5.753623E-008	-1.882186E-005	7
