EXPLAIN
TAG	EISPOT
TITLE	LABEL	Potentiostatic EIS	Test Identifier
DATE	LABEL	8/31/2020	Date
TIME	LABEL	13:26:31	Time
NOTES	NOTES	1	Notes...
	
PSTAT	PSTAT	REF3000-16137	Potentiostat
VDC	POTEN	0.00000E+000	T	DC Voltage (V)
FREQINIT	QUANT	3.00000E+005	Initial Freq. (Hz)
FREQFINAL	QUANT	1.00000E+000	Final Freq. (Hz)
PTSPERDEC	QUANT	1.00000E+001	Points/decade
VAC	QUANT	5.00000E+001	AC Voltage (mV rms)
AREA	QUANT	1.00000E+000	Sample Area (cm^2)
SPEED	SELECTOR	2	Optimize for:
ZGUESS	QUANT	1.00000E+003	Estimated Z (ohms)
EOC	QUANT	0	Open Circuit (V)
SEQUENCER	TOGGLE	TRUE	Run as Sequence
PSTATMODEL	IQUANT	5	Pstat Model
PSTATSECTION	LABEL	REF3000-16137	Pstat Section
PSTATSERIALNO	LABEL	16137	Pstat Serial Number
CTRLMODE	IQUANT	1	Control Mode
IESTAB	IQUANT	0	I/E Stability
CASPEED	IQUANT	1	Control Amp Speed
CONVENTION	IQUANT	1	Current Convention
ICHRANGE	IQUANT	2	Ich Range
ICHRANGEMODE	TOGGLE	F	Ich Auto Range
ICHOFFSETENABLE	TOGGLE	T	Ich Offset Enable
ICHOFFSET	QUANT	0	Ich Offset (V)
ICHFILTER	IQUANT	3	Ich Filter
VCHRANGE	IQUANT	2	Vch Range
VCHRANGEMODE	TOGGLE	F	Vch Auto Range
VCHOFFSETENABLE	TOGGLE	T	Vch Offset Enable
VCHOFFSET	QUANT	0	Vch Offset (V)
VCHFILTER	IQUANT	3	Vch Filter
ACHRANGE	IQUANT	2	Ach Range
ACHOFFSETENABLE	TOGGLE	F	Ach Offset Enable
ACHOFFSET	QUANT	0	Ach Offset (V)
ACHFILTER	IQUANT	3	Ach Filter
IERANGELOWERLIMIT	IQUANT	2	I/E Range Lower Limit
IERANGEMODE	TOGGLE	F	I/E AutoRange
IERANGE	IQUANT	11	I/E Range
POSFEEDENABLE	TOGGLE	F	Positive Feedback IR Comp
POSFEEDRESISTANCE	QUANT	0	Positive Feedback Resistance (ohm)
ACHSELECT	IQUANT	0	Ach Select
CABLEID	IQUANT	13	Cable ID
DCCALDATE	LABEL	7/31/2020	DC Calibration Date
ACCALDATE	LABEL	7/31/2020	AC Calibration Date
THERMOSELECT	IQUANT	1	Thermo Select
FRAMEWORKVERSION	QUANT	6.33	Framework Version
INSTRUMENTVERSION	LABEL	3.50	Instrument Version
COMPLIANCEVOLTAGE	IQUANT	0	Compliance Voltage
ZCURVE	TABLE
	Pt	Time	Freq	Zreal	Zimag	Zsig	Zmod	Zphz	Idc	Vdc	IERange
	#	s	Hz	ohm	ohm	V	ohm	°	A	V	#
	0	5	300046.9	241.5188	-22.12364	1	242.5299	-5.233812	-9.999992E-006	-0.0017637	9
	1	9	238359.4	242.9478	-21.3415	1	243.8834	-5.020202	4.079186E-005	0.0021811	10
	2	13	189328.1	246.3075	-16.23751	1	246.8421	-3.771696	-1.542458E-005	-0.0016411	9
	3	17	150421.9	248.6828	-12.92234	1	249.0183	-2.974594	1.759254E-006	0.0021175	9
	4	21	119484.4	250.0533	-11.61613	1	250.323	-2.65974	-2.582917E-006	-0.0004035	9
	5	25	94921.88	251.3151	-10.51089	1	251.5348	-2.394918	3.590117E-006	0.0007744	9
	6	28	75421.88	252.5575	-9.5654	1	252.7386	-2.168991	2.234441E-006	0.0005092	9
	7	30	59859.37	253.7764	-9.228696	1	253.9441	-2.08267	-4.824714E-006	-0.0003496	9
	8	33	47578.12	254.9935	-9.137833	1	255.1572	-2.052347	-2.023168E-007	-9.25824E-005	9
	9	35	37828.12	256.2886	-9.261258	1	256.4559	-2.069543	1.767288E-006	0.0004545	9
	10	38	30046.88	257.5858	-9.80908	1	257.7726	-2.180816	4.766177E-006	0.0009205	9
	11	40	23859.38	259.1356	-10.58537	1	259.3517	-2.339161	-2.934354E-006	-0.0001381	9
	12	43	18984.38	260.6009	-11.79959	1	260.8679	-2.59249	-1.670949E-006	-0.0003713	9
	13	45	15046.87	262.3648	-13.2648	1	262.6999	-2.894331	3.623216E-006	0.000836	9
	14	47	11953.13	264.3408	-15.20582	1	264.7778	-3.292229	2.194105E-006	0.0004761	9
	15	50	9515.62	266.6117	-17.33238	1	267.1745	-3.719554	-5.84182E-006	-0.0004608	9
	16	52	7546.875	269.1071	-19.96227	1	269.8465	-4.242411	-5.53522E-006	-0.000431	9
	17	54	5928.309	272.0272	-22.93082	1	272.9919	-4.818418	2.22461E-006	0.0004463	9
	18	56	4733.456	275.1128	-26.37345	1	276.3741	-5.475875	1.600341E-006	0.0001628	9
	19	59	3796.875	278.5133	-30.10875	1	280.136	-6.170014	-4.16167E-007	-0.0001703	9
	20	61	2987.132	282.599	-34.68286	1	284.7194	-6.996816	-6.058709E-006	-0.0005697	9
	21	63	2390.625	286.67	-39.65953	1	289.4004	-7.87662	-5.668835E-006	-0.00069	9
	22	66	1884.191	291.7004	-45.89405	1	295.2886	-8.941213	-5.559445E-006	-0.000741	9
	23	68	1516.544	296.4327	-52.55091	1	301.0547	-10.05282	-2.506162E-006	-0.0002846	9
	24	70	1193.986	302.4835	-61.31774	1	308.636	-11.45939	4.422632E-006	0.000836	9
	25	73	946.5144	309.1232	-71.34734	1	317.2501	-12.99659	-7.072025E-006	-0.0008049	9
	26	75	751.7689	316.7015	-82.79454	1	327.3451	-14.65081	1.321938E-006	0.0002107	9
	27	78	597.4265	325.3251	-96.5885	1	339.3608	-16.53607	3.693889E-006	0.0008852	9
	28	80	477.4305	334.867	-112.2398	1	353.1766	-18.52999	-9.814977E-007	6.518128E-005	9
	29	82	376.6741	344.9935	-131.101	1	369.0636	-20.8073	-3.108213E-007	0.0006402	8
	30	84	298.2954	358.1552	-153.6118	1	389.7072	-23.21437	-2.991383E-007	0.000641	8
	31	87	237.7717	373.0234	-179.4309	1	413.9347	-25.68838	-2.961893E-007	0.0006435	8
	32	89	189.0121	390.5662	-210.1231	1	443.5016	-28.28008	-2.794613E-007	0.0006524	8
	33	92	150.2404	411.0356	-246.2327	1	479.146	-30.9239	-2.609534E-007	0.0006435	8
	34	94	119.1737	435.3972	-288.8248	1	522.4849	-33.55867	-2.356555E-007	0.0006502	8
	35	96	95.0169	463.3074	-337.6527	1	573.2914	-36.08411	-2.307368E-007	0.0006492	8
	36	99	75.60484	496.4099	-394.9394	1	634.35	-38.50546	-2.596265E-007	0.0006542	8
	37	101	54.50582	553.3958	-493.2196	1	741.2911	-41.70935	-2.050228E-007	0.0006446	8
	38	104	45.95588	589.4953	-553.3577	1	808.523	-43.18888	-1.256444E-007	0.0006485	8
	39	106	37.20238	639.9064	-638.1458	1	903.7202	-44.92107	-1.047669E-007	0.000642	8
	40	109	30.04808	699.2325	-737.2374	1	1016.093	-46.51553	-1.119078E-007	0.000647	8
	41	111	23.91582	774.3276	-858.5967	1	1156.188	-47.9542	-9.548913E-008	0.0006481	8
	42	114	18.60119	873.0212	-1013.289	1	1337.506	-49.25275	7.863736E-008	0.0006502	8
	43	116	15.02404	975.18	-1167.049	1	1520.848	-50.11804	-4.64567E-008	0.0006434	8
	44	118	12.01923	1103.664	-1345.414	1	1740.176	-50.63744	8.558985E-008	0.0006529	8
	45	121	9.450605	1270.327	-1569.255	1	2018.983	-51.00951	-9.047049E-008	0.0006441	8
	46	123	7.512019	1464.51	-1803.799	1	2323.463	-50.92674	-8.448181E-008	0.000643	8
	47	126	5.978954	1694.036	-2057.764	1	2665.362	-50.53738	-5.825815E-008	0.0006493	8
	48	129	4.734848	1971.064	-2328.28	1	3050.571	-49.74957	-6.401692E-008	0.000672	8
	49	134	3.75601	2299.007	-2610.002	1	3478.152	-48.62495	-1.310928E-007	0.0006364	8
	50	139	3.004808	2660.595	-2889.95	1	3928.177	-47.36618	-1.562356E-007	0.0006599	8
	51	146	2.372217	3113.97	-3204.035	1	4467.958	-45.81671	2.789801E-008	0.000675	7
	52	150	1.878005	3598.771	-3478.207	1	5004.905	-44.024	-9.110027E-009	0.0005995	7
	53	154	1.512097	4076.611	-3730.768	1	5526.064	-42.46363	-1.992821E-008	0.0005974	7
	54	165	1.201923	4655.529	-3999.345	1	6137.484	-40.66432	-4.274894E-008	0.0005975	7
	55	178	0.956633	5286.096	-4273.015	1	6797.167	-38.95034	-1.018115E-007	-1.719194E-005	7
