EXPLAIN
TAG	EISPOT
TITLE	LABEL	Potentiostatic EIS	Test Identifier
DATE	LABEL	8/31/2020	Date
TIME	LABEL	14:02:12	Time
NOTES	NOTES	1	Notes...
	
PSTAT	PSTAT	REF3000-16137	Potentiostat
VDC	POTEN	0.00000E+000	T	DC Voltage (V)
FREQINIT	QUANT	3.00000E+005	Initial Freq. (Hz)
FREQFINAL	QUANT	1.00000E+000	Final Freq. (Hz)
PTSPERDEC	QUANT	1.00000E+001	Points/decade
VAC	QUANT	5.00000E+001	AC Voltage (mV rms)
AREA	QUANT	1.00000E+000	Sample Area (cm^2)
SPEED	SELECTOR	2	Optimize for:
ZGUESS	QUANT	1.00000E+003	Estimated Z (ohms)
EOC	QUANT	0	Open Circuit (V)
SEQUENCER	TOGGLE	TRUE	Run as Sequence
PSTATMODEL	IQUANT	5	Pstat Model
PSTATSECTION	LABEL	REF3000-16137	Pstat Section
PSTATSERIALNO	LABEL	16137	Pstat Serial Number
CTRLMODE	IQUANT	1	Control Mode
IESTAB	IQUANT	0	I/E Stability
CASPEED	IQUANT	1	Control Amp Speed
CONVENTION	IQUANT	1	Current Convention
ICHRANGE	IQUANT	2	Ich Range
ICHRANGEMODE	TOGGLE	F	Ich Auto Range
ICHOFFSETENABLE	TOGGLE	T	Ich Offset Enable
ICHOFFSET	QUANT	0	Ich Offset (V)
ICHFILTER	IQUANT	3	Ich Filter
VCHRANGE	IQUANT	2	Vch Range
VCHRANGEMODE	TOGGLE	F	Vch Auto Range
VCHOFFSETENABLE	TOGGLE	T	Vch Offset Enable
VCHOFFSET	QUANT	0	Vch Offset (V)
VCHFILTER	IQUANT	3	Vch Filter
ACHRANGE	IQUANT	2	Ach Range
ACHOFFSETENABLE	TOGGLE	F	Ach Offset Enable
ACHOFFSET	QUANT	0	Ach Offset (V)
ACHFILTER	IQUANT	3	Ach Filter
IERANGELOWERLIMIT	IQUANT	2	I/E Range Lower Limit
IERANGEMODE	TOGGLE	F	I/E AutoRange
IERANGE	IQUANT	11	I/E Range
POSFEEDENABLE	TOGGLE	F	Positive Feedback IR Comp
POSFEEDRESISTANCE	QUANT	0	Positive Feedback Resistance (ohm)
ACHSELECT	IQUANT	0	Ach Select
CABLEID	IQUANT	13	Cable ID
DCCALDATE	LABEL	7/31/2020	DC Calibration Date
ACCALDATE	LABEL	7/31/2020	AC Calibration Date
THERMOSELECT	IQUANT	1	Thermo Select
FRAMEWORKVERSION	QUANT	6.33	Framework Version
INSTRUMENTVERSION	LABEL	3.50	Instrument Version
COMPLIANCEVOLTAGE	IQUANT	0	Compliance Voltage
ZCURVE	TABLE
	Pt	Time	Freq	Zreal	Zimag	Zsig	Zmod	Zphz	Idc	Vdc	IERange
	#	s	Hz	ohm	ohm	V	ohm	°	A	V	#
	0	14	300046.9	1202.135	-1460.396	1	1891.53	-50.54027	4.633057E-006	0.0015087	9
	1	27	238359.4	1513.151	-1498.062	1	2129.275	-44.7129	-3.455021E-006	-0.0016535	9
	2	37	189328.1	1879.063	-1520.118	1	2416.948	-38.97204	-2.052414E-005	0.0022275	9
	3	44	150421.9	2159.842	-1429.708	1	2590.17	-33.50259	-3.911383E-006	-0.0015381	9
	4	51	119484.4	2436.493	-1312.34	1	2767.442	-28.30772	-9.641077E-006	-0.0003609	8
	5	57	94921.88	2679.169	-1171.307	1	2924.022	-23.61448	1.55626E-006	0.0005198	8
	6	60	75421.88	2860.667	-1024.345	1	3038.536	-19.70139	-8.88704E-007	0.0006184	8
	7	64	59859.37	2994.355	-869.2196	1	3117.965	-16.18727	-3.506917E-006	0.0007409	8
	8	67	47578.12	3100.326	-737.5724	1	3186.853	-13.382	-2.711334E-006	0.0007285	8
	9	69	37828.12	3174.126	-612.7178	1	3232.723	-10.92571	8.538653E-007	0.0004909	8
	10	72	30046.88	3232.368	-513.0533	1	3272.832	-9.018959	-3.536531E-006	0.0008084	8
	11	74	23859.38	3280.899	-432.3989	1	3309.27	-7.507902	1.449156E-006	0.0004633	8
	12	76	18984.38	3313.971	-369.3158	1	3334.486	-6.358922	1.359304E-006	0.0004867	8
	13	79	15046.87	3343.488	-315.0394	1	3358.297	-5.38279	-8.09448E-007	0.0005911	8
	14	81	11953.13	3365.92	-265.7087	1	3376.392	-4.513618	-3.622526E-006	0.0007438	8
	15	84	9515.62	3389.277	-242.1328	1	3397.915	-4.086317	-3.207194E-006	0.0007258	8
	16	86	7546.875	3416.093	-224.5366	1	3423.464	-3.760588	2.068149E-007	0.0005416	8
	17	88	5928.309	3434.649	-210.8484	1	3441.115	-3.512902	2.002268E-007	0.000546	8
	18	91	4733.456	3465.138	-208.6525	1	3471.414	-3.445892	1.803407E-006	0.0004953	8
	19	93	3796.875	3487.153	-207.8913	1	3493.344	-3.411727	-9.147346E-007	0.0007262	8
	20	96	2987.132	3516.425	-213.6632	1	3522.91	-3.477102	-4.066464E-007	0.0005664	8
	21	98	2390.625	3541.25	-229.4752	1	3548.677	-3.707618	-4.40116E-007	0.0005712	8
	22	101	1884.191	3581.817	-244.1698	1	3590.13	-3.899777	1.833281E-006	0.0004954	8
	23	103	1516.544	3608.626	-275.0657	1	3619.094	-4.358913	8.450274E-007	0.0004978	8
	24	106	1193.986	3651.087	-303.8758	1	3663.711	-4.757697	1.79934E-007	0.0006441	8
	25	108	946.5144	3698.283	-341.4149	1	3714.009	-5.274433	5.306043E-007	-0.0009903	7
	26	111	751.7689	3748.564	-384.07	1	3768.188	-5.849992	-7.971591E-007	0.0027459	7
	27	113	597.4265	3807.525	-432.5558	1	3832.016	-6.481328	-3.198071E-007	0.0021276	7
	28	115	477.4305	3865.142	-487.3336	1	3895.743	-7.186176	-9.785099E-008	0.0006223	7
	29	117	376.6741	3935.825	-550.93	1	3974.198	-7.968389	-9.817474E-008	0.000604	7
	30	120	298.2954	4011.646	-621.232	1	4059.462	-8.802738	-9.839271E-008	0.0006331	7
	31	122	237.7717	4092.266	-697.9484	1	4151.357	-9.67884	-1.016044E-007	0.0006288	7
	32	125	189.0121	4178.494	-786.6078	1	4251.889	-10.66125	-1.020917E-007	0.000625	7
	33	127	150.2404	4269.551	-890.0656	1	4361.34	-11.77569	-1.020988E-007	0.0006248	7
	34	129	119.1737	4367.028	-1013.937	1	4483.191	-13.07134	-9.423586E-008	0.0006247	7
	35	132	95.0169	4469.543	-1159.324	1	4617.451	-14.5411	-9.367456E-008	0.0006204	7
	36	134	75.60484	4582.729	-1335.874	1	4773.464	-16.25151	-1.025675E-007	0.000624	7
	37	137	54.50582	4760.151	-1652.595	1	5038.859	-19.14561	-9.350845E-008	0.000615	7
	38	139	45.95588	4871.918	-1854.953	1	5213.103	-20.84402	-1.097562E-007	0.0006316	7
	39	142	37.20238	5020.307	-2147.738	1	5460.427	-23.16172	-8.577982E-008	0.0006187	7
	40	144	30.04808	5192.304	-2498.396	1	5762.118	-25.6956	-1.060426E-007	0.0006251	7
	41	146	23.91582	5401.568	-2945.587	1	6152.513	-28.60455	-1.060499E-007	0.000622	7
	42	149	18.60119	5679.026	-3546.525	1	6695.459	-31.98458	-1.278038E-007	0.000627	7
	43	151	15.02404	5954.517	-4159.781	1	7263.612	-34.93786	-1.169258E-007	0.0006346	7
	44	153	12.01923	6306.077	-4914.369	1	7994.851	-37.92953	-1.148892E-007	0.0006048	7
	45	156	9.450605	6775.364	-5890.74	1	8978.105	-41.00484	-7.109069E-008	0.0005975	7
	46	158	7.512019	7333.692	-6994.144	1	10134.15	-43.64243	-7.029309E-008	0.0006263	7
	47	161	5.978954	8022.867	-8284.417	1	11532.47	-45.91888	-7.943127E-008	0.0006333	7
	48	164	4.734848	8904.664	-9812.82	1	13250.83	-47.77775	-9.860199E-008	0.0006263	7
	49	167	3.75601	9962.79	-11552.24	1	15254.88	-49.22511	-7.950671E-008	0.0006348	7
	50	171	3.004808	11187.07	-13458.46	1	17500.88	-50.26565	-9.480146E-008	0.0006634	7
	51	175	2.372217	12775.78	-15766.13	1	20292.64	-50.98108	-8.494592E-008	0.0007035	7
	52	179	1.878005	14608.01	-18370.47	1	23470.58	-51.50863	-8.914066E-008	0.0006048	7
	53	183	1.512097	16624.69	-21168	1	26915.88	-51.85501	-9.098903E-008	0.0006987	7
	54	194	1.201923	19244.9	-24671.92	1	31290.09	-52.04461	-8.988058E-008	0.0005967	7
	55	207	0.956633	22278.77	-28617.55	1	36267.17	-52.09924	-9.784844E-008	-2.030288E-005	7
