EXPLAIN
TAG	EISPOT
TITLE	LABEL	Potentiostatic EIS	Test Identifier
DATE	LABEL	8/31/2020	Date
TIME	LABEL	15:00:49	Time
NOTES	NOTES	1	Notes...
	
PSTAT	PSTAT	REF3000-16137	Potentiostat
VDC	POTEN	0.00000E+000	T	DC Voltage (V)
FREQINIT	QUANT	3.00000E+005	Initial Freq. (Hz)
FREQFINAL	QUANT	1.00000E+000	Final Freq. (Hz)
PTSPERDEC	QUANT	1.00000E+001	Points/decade
VAC	QUANT	5.00000E+001	AC Voltage (mV rms)
AREA	QUANT	1.00000E+000	Sample Area (cm^2)
SPEED	SELECTOR	2	Optimize for:
ZGUESS	QUANT	1.00000E+003	Estimated Z (ohms)
EOC	QUANT	0	Open Circuit (V)
SEQUENCER	TOGGLE	TRUE	Run as Sequence
PSTATMODEL	IQUANT	5	Pstat Model
PSTATSECTION	LABEL	REF3000-16137	Pstat Section
PSTATSERIALNO	LABEL	16137	Pstat Serial Number
CTRLMODE	IQUANT	1	Control Mode
IESTAB	IQUANT	0	I/E Stability
CASPEED	IQUANT	1	Control Amp Speed
CONVENTION	IQUANT	1	Current Convention
ICHRANGE	IQUANT	2	Ich Range
ICHRANGEMODE	TOGGLE	F	Ich Auto Range
ICHOFFSETENABLE	TOGGLE	T	Ich Offset Enable
ICHOFFSET	QUANT	0	Ich Offset (V)
ICHFILTER	IQUANT	3	Ich Filter
VCHRANGE	IQUANT	2	Vch Range
VCHRANGEMODE	TOGGLE	F	Vch Auto Range
VCHOFFSETENABLE	TOGGLE	T	Vch Offset Enable
VCHOFFSET	QUANT	0	Vch Offset (V)
VCHFILTER	IQUANT	3	Vch Filter
ACHRANGE	IQUANT	2	Ach Range
ACHOFFSETENABLE	TOGGLE	F	Ach Offset Enable
ACHOFFSET	QUANT	0	Ach Offset (V)
ACHFILTER	IQUANT	3	Ach Filter
IERANGELOWERLIMIT	IQUANT	2	I/E Range Lower Limit
IERANGEMODE	TOGGLE	F	I/E AutoRange
IERANGE	IQUANT	11	I/E Range
POSFEEDENABLE	TOGGLE	F	Positive Feedback IR Comp
POSFEEDRESISTANCE	QUANT	0	Positive Feedback Resistance (ohm)
ACHSELECT	IQUANT	0	Ach Select
CABLEID	IQUANT	13	Cable ID
DCCALDATE	LABEL	7/31/2020	DC Calibration Date
ACCALDATE	LABEL	7/31/2020	AC Calibration Date
THERMOSELECT	IQUANT	1	Thermo Select
FRAMEWORKVERSION	QUANT	6.33	Framework Version
INSTRUMENTVERSION	LABEL	3.50	Instrument Version
COMPLIANCEVOLTAGE	IQUANT	0	Compliance Voltage
ZCURVE	TABLE
	Pt	Time	Freq	Zreal	Zimag	Zsig	Zmod	Zphz	Idc	Vdc	IERange
	#	s	Hz	ohm	ohm	V	ohm	°	A	V	#
	0	17	300046.9	-66.55215	-4782.616	1	4783.079	-90.79724	2.699537E-005	-0.0016812	9
	1	31	238359.4	158.2897	-5974.929	1	5977.025	-88.48246	2.352337E-005	0.001013	9
	2	46	189328.1	188.5469	-7373.685	1	7376.095	-88.53526	5.034279E-005	0.0001663	9
	3	53	150421.9	-68.18591	-9240.024	1	9240.276	-90.4228	8.730113E-005	-0.002417	9
	4	63	119484.4	195.0811	-11661.5	1	11663.13	-89.04161	8.211596E-005	-0.0033057	9
	5	72	94921.88	637.3262	-14515.34	1	14529.33	-87.48592	-2.390349E-005	0.0052272	8
	6	80	75421.88	517.916	-17983.83	1	17991.28	-88.3504	-2.393762E-006	0.0078158	8
	7	89	59859.37	581.5006	-22660.18	1	22667.64	-88.53001	2.278673E-005	-0.0096879	8
	8	97	47578.12	4043.515	-29802.54	1	30075.6	-82.27347	-9.833295E-007	-0.0138687	7
	9	106	37828.12	4333.894	-36908.09	1	37161.68	-83.30277	2.734134E-006	0.0086852	7
	10	113	30046.88	4321.792	-45753.75	1	45957.41	-84.60398	-7.137839E-006	0.0233012	7
	11	121	23859.38	5173.632	-56815.58	1	57050.65	-84.79699	-3.777203E-006	0.0255028	7
	12	126	18984.38	3916.751	-71659.52	1	71766.48	-86.87145	7.5695E-006	-0.0243152	7
	13	131	15046.87	5864.321	-90247.32	1	90437.66	-86.28211	7.71562E-006	-0.0244242	7
	14	137	11953.13	2147.787	-109282.1	1	109303.3	-88.87408	6.734854E-006	-0.0270209	7
	15	142	9515.62	7824.554	-144713.7	1	144925.1	-86.90508	2.728778E-006	0.0087247	7
	16	149	7546.875	2869.21	-181486	1	181508.7	-89.09425	-3.659957E-006	0.0256749	7
	17	154	5928.309	4017.979	-217631.9	1	217669	-88.94231	-1.815446E-006	0.0222287	7
	18	159	4733.456	24608.24	-277398.3	1	278487.6	-84.93051	6.948263E-006	-0.0271856	7
	19	165	3796.875	2126.695	-349259.4	1	349265.8	-89.65112	-7.248645E-006	0.0187928	7
	20	171	2987.132	6669.669	-465168.2	1	465216	-89.17854	-5.335456E-006	0.0034153	7
	21	179	2390.625	144473	-525741.7	1	545230.9	-74.63449	4.904954E-006	-0.0003462	7
	22	185	1884.191	50300.07	-586134.5	1	588288.8	-85.09509	4.456325E-007	0.0164855	7
	23	192	1516.544	61403.68	-867477.3	1	869647.8	-85.95112	7.307222E-007	-0.0271533	6
	24	197	1193.986	97037.6	-1143418	1	1147528	-85.14914	4.043555E-007	-0.0254562	6
	25	204	946.5144	102954.2	-1439267	1	1442944	-85.90846	-2.82605E-009	0.0174234	6
	26	207	751.7689	-177453.6	-1632221	1	1641839	-96.2048	6.005853E-007	-0.027877	6
	27	211	597.4265	62328.4	-2001769	1	2002739	-88.21658	-4.911606E-008	-0.0152449	6
	28	216	477.4305	611273.8	-2870086	1	2934459	-77.97674	-8.753868E-010	0.0006155	5
	29	219	376.6741	731801.3	-3555915	1	3630436	-78.37099	-8.307581E-010	0.000599	5
	30	223	298.2954	911323	-4401218	1	4494578	-78.30157	-8.679517E-010	0.0006891	5
	31	226	237.7717	1013371	-5468129	1	5561237	-79.50088	-7.975458E-010	0.0006188	5
	32	229	189.0121	1448803	-6726227	1	6880491	-77.84443	-8.147279E-010	0.0006097	5
	33	231	150.2404	2010069	-8543225	1	8776507	-76.76012	-7.753652E-010	0.0005934	5
	34	234	119.1737	-371614.8	-1.112153E+007	1	1.112773E+007	-91.91377	-8.735552E-010	0.0006534	5
	35	237	95.0169	3620320	-1.236403E+007	1	1.288316E+007	-73.6794	-8.807972E-010	0.0006841	5
	36	240	75.60484	4739059	-1.499954E+007	1	1.573038E+007	-72.46623	-9.076958E-010	0.000677	5
	37	243	54.50582	8282750	-2.034069E+007	1	2.196242E+007	-67.8438	-7.696386E-010	0.0005944	5
	38	246	45.95588	1.455722E+007	-2.124413E+007	1	2.575317E+007	-55.57969	-6.764789E-011	0.000595	4
	39	248	37.20238	1.498971E+007	-2.414008E+007	1	2.84154E+007	-58.16191	-7.785291E-010	0.0006037	5
	40	252	30.04808	1.926351E+007	-2.848687E+007	1	3.438873E+007	-55.9325	-8.537525E-010	0.0006197	5
	41	256	23.91582	2.652101E+007	-3.017533E+007	1	4.017355E+007	-48.68786	-8.592221E-010	0.0005948	5
	42	260	18.60119	3.225451E+007	-2.352453E+007	1	3.992189E+007	-36.1048	-2.247039E-010	0.0005927	4
	43	264	15.02404	4.205117E+007	-3.176107E+007	1	5.269788E+007	-37.06359	-7.857229E-011	0.0006208	4
	44	267	12.01923	4.915436E+007	-3.047116E+007	1	5.783288E+007	-31.79509	-8.15007E-011	0.0006201	4
	45	271	9.450605	5.428055E+007	-2.87793E+007	1	6.143799E+007	-27.93233	-9.20064E-011	0.0005978	4
	46	275	7.512019	6.144784E+007	-2.610179E+007	1	6.676182E+007	-23.0148	-8.464073E-011	0.0006142	4
	47	279	5.978954	6.71921E+007	-2.476865E+007	1	7.16119E+007	-20.23512	-6.936825E-011	0.0005913	4
	48	285	4.734848	7.830991E+007	-1.288794E+007	1	7.936335E+007	-9.345739	-1.213403E-011	0.0006665	3
	49	290	3.75601	8.035894E+007	-1.087052E+007	1	8.109086E+007	-7.703895	-9.939704E-012	0.0006787	3
	50	295	3.004808	8.293449E+007	-9413906	1	8.346706E+007	-6.475934	-8.553355E-012	0.0006766	3
	51	302	2.372217	8.514966E+007	-8170536	1	8.554076E+007	-5.481036	-1.107497E-011	0.0006533	3
	52	306	1.878005	8.718891E+007	-7178452	1	8.748392E+007	-4.70667	-8.774377E-012	0.0007193	3
	53	311	1.512097	8.959045E+007	-6483614	1	8.982475E+007	-4.139249	-8.180886E-012	0.0007067	3
	54	316	1.201923	9.238655E+007	-5905550	1	9.25751E+007	-3.657495	-9.281057E-012	0.0007377	3
	55	322	0.956633	9.562153E+007	-5561281	1	9.578311E+007	-3.328533	-1.811956E-011	8.969258E-005	3
