EXPLAIN
TAG	EISPOT
TITLE	LABEL	Potentiostatic EIS	Test Identifier
DATE	LABEL	8/31/2020	Date
TIME	LABEL	14:19:46	Time
NOTES	NOTES	1	Notes...
	
PSTAT	PSTAT	REF3000-16137	Potentiostat
VDC	POTEN	0.00000E+000	T	DC Voltage (V)
FREQINIT	QUANT	3.00000E+005	Initial Freq. (Hz)
FREQFINAL	QUANT	1.00000E+000	Final Freq. (Hz)
PTSPERDEC	QUANT	1.00000E+001	Points/decade
VAC	QUANT	5.00000E+001	AC Voltage (mV rms)
AREA	QUANT	1.00000E+000	Sample Area (cm^2)
SPEED	SELECTOR	2	Optimize for:
ZGUESS	QUANT	1.00000E+003	Estimated Z (ohms)
EOC	QUANT	0	Open Circuit (V)
SEQUENCER	TOGGLE	TRUE	Run as Sequence
PSTATMODEL	IQUANT	5	Pstat Model
PSTATSECTION	LABEL	REF3000-16137	Pstat Section
PSTATSERIALNO	LABEL	16137	Pstat Serial Number
CTRLMODE	IQUANT	1	Control Mode
IESTAB	IQUANT	0	I/E Stability
CASPEED	IQUANT	1	Control Amp Speed
CONVENTION	IQUANT	1	Current Convention
ICHRANGE	IQUANT	2	Ich Range
ICHRANGEMODE	TOGGLE	F	Ich Auto Range
ICHOFFSETENABLE	TOGGLE	T	Ich Offset Enable
ICHOFFSET	QUANT	0	Ich Offset (V)
ICHFILTER	IQUANT	3	Ich Filter
VCHRANGE	IQUANT	2	Vch Range
VCHRANGEMODE	TOGGLE	F	Vch Auto Range
VCHOFFSETENABLE	TOGGLE	T	Vch Offset Enable
VCHOFFSET	QUANT	0	Vch Offset (V)
VCHFILTER	IQUANT	3	Vch Filter
ACHRANGE	IQUANT	2	Ach Range
ACHOFFSETENABLE	TOGGLE	F	Ach Offset Enable
ACHOFFSET	QUANT	0	Ach Offset (V)
ACHFILTER	IQUANT	3	Ach Filter
IERANGELOWERLIMIT	IQUANT	2	I/E Range Lower Limit
IERANGEMODE	TOGGLE	F	I/E AutoRange
IERANGE	IQUANT	11	I/E Range
POSFEEDENABLE	TOGGLE	F	Positive Feedback IR Comp
POSFEEDRESISTANCE	QUANT	0	Positive Feedback Resistance (ohm)
ACHSELECT	IQUANT	0	Ach Select
CABLEID	IQUANT	13	Cable ID
DCCALDATE	LABEL	7/31/2020	DC Calibration Date
ACCALDATE	LABEL	7/31/2020	AC Calibration Date
THERMOSELECT	IQUANT	1	Thermo Select
FRAMEWORKVERSION	QUANT	6.33	Framework Version
INSTRUMENTVERSION	LABEL	3.50	Instrument Version
COMPLIANCEVOLTAGE	IQUANT	0	Compliance Voltage
ZCURVE	TABLE
	Pt	Time	Freq	Zreal	Zimag	Zsig	Zmod	Zphz	Idc	Vdc	IERange
	#	s	Hz	ohm	ohm	V	ohm	°	A	V	#
	0	14	300046.9	299.3129	-2401.303	1	2419.885	-82.89495	-1.141897E-005	-0.0054446	9
	1	28	238359.4	442.3314	-2981.695	1	3014.326	-81.56178	4.29427E-006	0.0012649	9
	2	43	189328.1	657.7365	-3680.499	1	3738.809	-79.86772	-3.537835E-006	-0.0015149	9
	3	51	150421.9	922.7307	-4613.148	1	4704.526	-78.68886	-1.518097E-006	-0.0002116	9
	4	59	119484.4	1359.52	-5617.94	1	5780.1	-76.39617	-2.913604E-007	0.001268	8
	5	67	94921.88	1970.264	-6833.979	1	7112.329	-73.91752	1.974649E-006	0.0006405	8
	6	70	75421.88	2837.578	-8261.142	1	8734.891	-71.04317	-3.082579E-007	0.0008562	8
	7	73	59859.37	4090.161	-9871.28	1	10685.11	-67.49335	-1.277197E-006	0.0008572	8
	8	77	47578.12	5853.005	-11516.99	1	12918.93	-63.06004	6.878128E-007	-0.0013556	7
	9	79	37828.12	8089.094	-13069.34	1	15370.14	-58.24512	5.192056E-007	-0.0019969	7
	10	82	30046.88	10903.53	-14348.58	1	18021.34	-52.76867	-8.813408E-007	0.0027808	7
	11	84	23859.38	14064.77	-15233.52	1	20733.5	-47.2844	-7.930779E-008	0.0015378	7
	12	87	18984.38	17345.31	-15423.11	1	23210.6	-41.64286	7.446014E-007	-0.0021612	7
	13	89	15046.87	20712.38	-14945.38	1	25541.48	-35.81299	-8.124391E-007	0.0035028	7
	14	92	11953.13	23709.57	-14109.88	1	27590.44	-30.75743	-3.736159E-006	0.0007744	8
	15	98	9515.62	26418.09	-12966.19	1	29428.51	-26.14214	-4.980695E-007	0.0028533	7
	16	102	7546.875	28788.8	-11706.75	1	31078.02	-22.12874	6.697869E-007	-0.0014826	7
	17	106	5928.309	30664.79	-10344.8	1	32362.7	-18.64188	6.564238E-007	-0.0021968	7
	18	111	4733.456	32188.16	-9050.834	1	33436.44	-15.7052	-2.532585E-007	-1.584156E-005	7
	19	116	3796.875	33426.1	-8037.719	1	34378.91	-13.52078	7.402745E-007	-0.0022285	7
	20	119	2987.132	34417.1	-6865.268	1	35095.14	-11.28087	7.536374E-007	-0.0022268	7
	21	123	2390.625	35198.94	-6113.345	1	35725.88	-9.85284	7.361122E-007	-0.0020437	7
	22	127	1884.191	36115.45	-5535.384	1	36537.19	-8.713864	7.398169E-007	-0.001849	7
	23	132	1516.544	36878.38	-5091.968	1	37228.26	-7.861386	-8.72428E-007	0.0030126	7
	24	137	1193.986	37781.14	-4876.528	1	38094.56	-7.354679	6.615485E-007	-0.0020206	7
	25	143	946.5144	38678.61	-4687.715	1	38961.64	-6.910349	-3.640793E-007	0.0005362	7
	26	147	751.7689	39162.28	-4562.637	1	39427.17	-6.645339	-2.958556E-007	0.0021616	7
	27	150	597.4265	40137	-4592.323	1	40398.86	-6.527182	4.750074E-007	-0.0019395	7
	28	153	477.4305	40651.83	-4790.554	1	40933.12	-6.720939	-9.581058E-008	0.0006202	7
	29	156	376.6741	41368.12	-5029.39	1	41672.73	-6.931799	-9.795898E-009	0.0006715	6
	30	158	298.2954	42145.84	-5393.079	1	42489.5	-7.29207	-1.121829E-008	0.0006777	6
	31	160	237.7717	42996.91	-5841.377	1	43391.89	-7.736595	-9.745666E-009	0.0006595	6
	32	163	189.0121	43963.25	-6381.131	1	44423.94	-8.258633	-9.451374E-009	0.000672	6
	33	165	150.2404	45042.28	-6997.119	1	45582.52	-8.830068	-1.073358E-008	0.000667	6
	34	168	119.1737	46259.21	-7677.009	1	46891.91	-9.42272	-1.01602E-008	0.0006733	6
	35	170	95.0169	47596.77	-8389.743	1	48330.53	-9.99667	-9.487309E-009	0.0006683	6
	36	173	75.60484	49086.59	-9134.793	1	49929.33	-10.5419	-8.902178E-009	0.0006716	6
	37	175	54.50582	51307.97	-10204.93	1	52312.99	-11.24907	-1.004405E-008	0.0006588	6
	38	178	45.95588	52686.57	-10797.13	1	53781.53	-11.58135	-1.283641E-008	0.0006644	6
	39	180	37.20238	54392.88	-11551.15	1	55605.89	-11.9895	-1.466619E-008	0.0006625	6
	40	182	30.04808	56207.25	-12303.67	1	57538.12	-12.3472	-1.462425E-008	0.0006628	6
	41	185	23.91582	58194.69	-13173.15	1	59667.02	-12.75471	-1.080483E-008	0.0006621	6
	42	187	18.60119	60421.31	-14282.06	1	62086.33	-13.29916	1.509723E-009	0.0006614	6
	43	190	15.02404	62461.46	-15190.91	1	64282.18	-13.66921	-9.00632E-009	0.0006671	6
	44	192	12.01923	64700.43	-16330.8	1	66729.61	-14.16593	-1.444061E-008	0.0006617	6
	45	194	9.450605	67091.53	-17695.03	1	69385.79	-14.77499	-4.544127E-009	0.0006573	6
	46	197	7.512019	69410.27	-19454.13	1	72085.02	-15.65698	-1.951962E-008	0.0006589	6
	47	200	5.978954	72069.87	-21309.35	1	75154.2	-16.4717	-1.395706E-008	0.0006693	6
	48	203	4.734848	74786.63	-23588.43	1	78418.45	-17.50578	-1.337569E-008	0.0006549	6
	49	206	3.75601	77880.61	-26540.77	1	82278.8	-18.81849	-1.495719E-008	0.0006582	6
	50	209	3.004808	80964.16	-29775.94	1	86265.88	-20.19185	-7.239373E-009	0.0006343	6
	51	213	2.372217	84851.38	-34054.52	1	91430.13	-21.86772	-1.373685E-008	0.0006622	6
	52	217	1.878005	89069.88	-39091.57	1	97270.7	-23.69602	-1.290907E-008	0.0006667	6
	53	222	1.512097	93618.98	-44716.98	1	103750.3	-25.53141	-1.119769E-008	0.0005689	6
	54	227	1.201923	99322.8	-52061.34	1	112140.1	-27.66186	-1.196535E-008	0.0006637	6
	55	234	0.956633	106047.8	-60472.68	1	122078.1	-29.69352	-1.305163E-008	2.544013E-005	6
