EXPLAIN
TAG	EISPOT
TITLE	LABEL	Potentiostatic EIS	Test Identifier
DATE	LABEL	8/31/2020	Date
TIME	LABEL	13:48:31	Time
NOTES	NOTES	1	Notes...
	
PSTAT	PSTAT	REF3000-16137	Potentiostat
VDC	POTEN	0.00000E+000	T	DC Voltage (V)
FREQINIT	QUANT	3.00000E+005	Initial Freq. (Hz)
FREQFINAL	QUANT	1.00000E+000	Final Freq. (Hz)
PTSPERDEC	QUANT	1.00000E+001	Points/decade
VAC	QUANT	5.00000E+001	AC Voltage (mV rms)
AREA	QUANT	1.00000E+000	Sample Area (cm^2)
SPEED	SELECTOR	2	Optimize for:
ZGUESS	QUANT	1.00000E+003	Estimated Z (ohms)
EOC	QUANT	0	Open Circuit (V)
SEQUENCER	TOGGLE	TRUE	Run as Sequence
PSTATMODEL	IQUANT	5	Pstat Model
PSTATSECTION	LABEL	REF3000-16137	Pstat Section
PSTATSERIALNO	LABEL	16137	Pstat Serial Number
CTRLMODE	IQUANT	1	Control Mode
IESTAB	IQUANT	0	I/E Stability
CASPEED	IQUANT	1	Control Amp Speed
CONVENTION	IQUANT	1	Current Convention
ICHRANGE	IQUANT	2	Ich Range
ICHRANGEMODE	TOGGLE	F	Ich Auto Range
ICHOFFSETENABLE	TOGGLE	T	Ich Offset Enable
ICHOFFSET	QUANT	0	Ich Offset (V)
ICHFILTER	IQUANT	3	Ich Filter
VCHRANGE	IQUANT	2	Vch Range
VCHRANGEMODE	TOGGLE	F	Vch Auto Range
VCHOFFSETENABLE	TOGGLE	T	Vch Offset Enable
VCHOFFSET	QUANT	0	Vch Offset (V)
VCHFILTER	IQUANT	3	Vch Filter
ACHRANGE	IQUANT	2	Ach Range
ACHOFFSETENABLE	TOGGLE	F	Ach Offset Enable
ACHOFFSET	QUANT	0	Ach Offset (V)
ACHFILTER	IQUANT	3	Ach Filter
IERANGELOWERLIMIT	IQUANT	2	I/E Range Lower Limit
IERANGEMODE	TOGGLE	F	I/E AutoRange
IERANGE	IQUANT	11	I/E Range
POSFEEDENABLE	TOGGLE	F	Positive Feedback IR Comp
POSFEEDRESISTANCE	QUANT	0	Positive Feedback Resistance (ohm)
ACHSELECT	IQUANT	0	Ach Select
CABLEID	IQUANT	13	Cable ID
DCCALDATE	LABEL	7/31/2020	DC Calibration Date
ACCALDATE	LABEL	7/31/2020	AC Calibration Date
THERMOSELECT	IQUANT	1	Thermo Select
FRAMEWORKVERSION	QUANT	6.33	Framework Version
INSTRUMENTVERSION	LABEL	3.50	Instrument Version
COMPLIANCEVOLTAGE	IQUANT	0	Compliance Voltage
ZCURVE	TABLE
	Pt	Time	Freq	Zreal	Zimag	Zsig	Zmod	Zphz	Idc	Vdc	IERange
	#	s	Hz	ohm	ohm	V	ohm	°	A	V	#
	0	14	300046.9	933.9213	-438.1503	1	1031.593	-25.13368	7.514532E-006	0.0014617	9
	1	18	238359.4	1002.734	-382.5481	1	1073.228	-20.8821	6.002352E-006	0.0014469	9
	2	23	189328.1	1055.29	-324.8676	1	1104.163	-17.11081	1.359324E-006	0.000588	9
	3	27	150421.9	1101.775	-279.5526	1	1136.687	-14.23717	-5.257811E-006	-0.001663	9
	4	32	119484.4	1128.805	-230.3404	1	1152.067	-11.53326	-2.142719E-006	0.0004264	8
	5	35	94921.88	1150.774	-188.6878	1	1166.14	-9.311704	1.869669E-006	0.0004834	8
	6	37	75421.88	1165.976	-158.751	1	1176.734	-7.753312	1.681927E-006	0.0005233	8
	7	40	59859.37	1180.067	-133.8972	1	1187.639	-6.47342	1.640391E-008	0.0006737	8
	8	42	47578.12	1190.308	-112.736	1	1195.635	-5.410438	2.01638E-006	0.0006102	8
	9	45	37828.12	1199.207	-97.5686	1	1203.17	-4.651392	2.152328E-006	0.0006056	8
	10	47	30046.88	1206.799	-83.76705	1	1209.702	-3.970681	2.785316E-007	0.0005635	8
	11	50	23859.38	1214.855	-74.32662	1	1217.127	-3.501075	-3.066532E-006	0.0005808	8
	12	52	18984.38	1222.393	-68.73117	1	1224.324	-3.218167	1.029296E-006	0.0005784	8
	13	54	15046.87	1227.569	-64.48667	1	1229.261	-3.007099	-3.507575E-006	0.0008084	8
	14	57	11953.13	1237.419	-63.64883	1	1239.055	-2.944515	1.410866E-006	0.0007804	8
	15	59	9515.62	1243.002	-63.36104	1	1244.615	-2.918082	1.137505E-006	0.0006307	8
	16	61	7546.875	1250.882	-65.33064	1	1252.587	-2.989707	2.313205E-007	0.0005721	8
	17	64	5928.309	1259.709	-72.10557	1	1261.771	-3.276027	-1.764535E-006	0.0004942	8
	18	66	4733.456	1268.685	-76.67102	1	1271	-3.458376	-3.108669E-006	0.000754	8
	19	68	3796.875	1280.094	-84.68486	1	1282.892	-3.784897	2.039555E-007	0.0005835	8
	20	71	2987.132	1292.311	-95.5902	1	1295.841	-4.230375	-9.629742E-007	0.0007038	8
	21	73	2390.625	1304.736	-107.0092	1	1309.117	-4.688675	2.491498E-006	0.0006118	8
	22	75	1884.191	1320.526	-121.6225	1	1326.115	-5.262182	-2.514311E-006	0.0007622	8
	23	78	1516.544	1334.963	-136.3325	1	1341.906	-5.831089	-3.47771E-006	0.0007594	8
	24	80	1193.986	1355.067	-156.0739	1	1364.026	-6.570258	1.919358E-006	0.0005663	8
	25	82	946.5144	1377.039	-177.5622	1	1388.44	-7.347456	8.998527E-007	0.0005294	8
	26	85	751.7689	1399.618	-200.5404	1	1413.912	-8.153966	-3.213733E-006	0.0007079	8
	27	87	597.4265	1424.455	-227.209	1	1442.462	-9.062669	-3.091842E-006	0.0007712	8
	28	89	477.4305	1450.936	-258.8781	1	1473.849	-10.11635	-6.205513E-007	0.0006534	8
	29	92	376.6741	1481.289	-296.5734	1	1510.686	-11.32167	-5.990078E-007	0.0006378	8
	30	94	298.2954	1513.805	-340.5974	1	1551.648	-12.68007	-5.992421E-007	0.0006544	8
	31	96	237.7717	1548.987	-391.5726	1	1597.714	-14.18674	-6.081154E-007	0.0006498	8
	32	99	189.0121	1588.284	-452.7584	1	1651.556	-15.9108	-6.044424E-007	0.0006501	8
	33	101	150.2404	1632.868	-526.0034	1	1715.499	-17.85555	-6.056504E-007	0.0006507	8
	34	104	119.1737	1684.141	-613.847	1	1792.523	-20.02613	-5.978807E-007	0.000645	8
	35	106	95.0169	1741.712	-716.2333	1	1883.229	-22.35363	-6.079426E-007	0.0006511	8
	36	108	75.60484	1809.194	-838.7839	1	1994.177	-24.87352	-6.026989E-007	0.0006463	8
	37	111	54.50582	1924.544	-1054.618	1	2194.559	-28.722	-5.953717E-007	0.0006413	8
	38	114	45.95588	1999.099	-1189.301	1	2326.12	-30.74921	-5.978091E-007	0.0006588	8
	39	116	37.20238	2105.048	-1381.348	1	2517.806	-33.27317	-5.972955E-007	0.000656	8
	40	118	30.04808	2232.886	-1606.781	1	2750.913	-35.73872	-5.768417E-007	0.0006495	8
	41	121	23.91582	2395.621	-1883.31	1	3047.27	-38.17256	-5.554307E-007	0.000645	8
	42	123	18.60119	2612.434	-2237.702	1	3439.785	-40.58197	-6.384819E-007	0.0006574	8
	43	125	15.02404	2835.318	-2582.995	1	3835.478	-42.33375	-5.494096E-007	0.0006508	8
	44	128	12.01923	3113.394	-2998.264	1	4322.361	-43.92081	-8.755594E-008	0.0006218	7
	45	130	9.450605	3459.322	-3506.418	1	4925.635	-45.38737	-9.07994E-008	0.000639	7
	46	133	7.512019	3845.871	-4063.976	1	5595.232	-46.57946	-7.63651E-008	0.000612	7
	47	135	5.978954	4303.484	-4698.665	1	6371.611	-47.51359	-4.509571E-008	0.0006144	7
	48	138	4.734848	4847.204	-5442.442	1	7288.042	-48.31078	-5.694614E-008	0.0006021	7
	49	141	3.75601	5484.877	-6264.008	1	8325.964	-48.79403	-8.086263E-009	0.000647	7
	50	145	3.004808	6211.212	-7176.462	1	9491.089	-49.12389	-2.575616E-008	0.0006379	7
	51	149	2.372217	7119.102	-8236.563	1	10886.81	-49.16219	-2.558196E-008	0.0005849	7
	52	153	1.878005	8213.294	-9446.799	1	12518	-48.99545	-3.225436E-008	0.0006154	7
	53	162	1.512097	9386.534	-10707.03	1	14238.95	-48.75993	-4.806612E-008	0.0006721	7
	54	172	1.201923	10898.3	-12158.45	1	16327.92	-48.12833	-4.851751E-008	0.0006287	7
	55	185	0.956633	12631.7	-13734.48	1	18660.01	-47.39504	-7.591225E-008	-1.204398E-005	7
