EXPLAIN
TAG	EISPOT
TITLE	LABEL	Potentiostatic EIS	Test Identifier
DATE	LABEL	8/31/2020	Date
TIME	LABEL	13:20:23	Time
NOTES	NOTES	1	Notes...
	
PSTAT	PSTAT	REF3000-16137	Potentiostat
VDC	POTEN	0.00000E+000	T	DC Voltage (V)
FREQINIT	QUANT	3.00000E+005	Initial Freq. (Hz)
FREQFINAL	QUANT	1.00000E+000	Final Freq. (Hz)
PTSPERDEC	QUANT	1.00000E+001	Points/decade
VAC	QUANT	5.00000E+001	AC Voltage (mV rms)
AREA	QUANT	1.00000E+000	Sample Area (cm^2)
SPEED	SELECTOR	2	Optimize for:
ZGUESS	QUANT	1.00000E+003	Estimated Z (ohms)
EOC	QUANT	0	Open Circuit (V)
SEQUENCER	TOGGLE	TRUE	Run as Sequence
PSTATMODEL	IQUANT	5	Pstat Model
PSTATSECTION	LABEL	REF3000-16137	Pstat Section
PSTATSERIALNO	LABEL	16137	Pstat Serial Number
CTRLMODE	IQUANT	1	Control Mode
IESTAB	IQUANT	0	I/E Stability
CASPEED	IQUANT	1	Control Amp Speed
CONVENTION	IQUANT	1	Current Convention
ICHRANGE	IQUANT	2	Ich Range
ICHRANGEMODE	TOGGLE	F	Ich Auto Range
ICHOFFSETENABLE	TOGGLE	T	Ich Offset Enable
ICHOFFSET	QUANT	0	Ich Offset (V)
ICHFILTER	IQUANT	3	Ich Filter
VCHRANGE	IQUANT	2	Vch Range
VCHRANGEMODE	TOGGLE	F	Vch Auto Range
VCHOFFSETENABLE	TOGGLE	T	Vch Offset Enable
VCHOFFSET	QUANT	0	Vch Offset (V)
VCHFILTER	IQUANT	3	Vch Filter
ACHRANGE	IQUANT	2	Ach Range
ACHOFFSETENABLE	TOGGLE	F	Ach Offset Enable
ACHOFFSET	QUANT	0	Ach Offset (V)
ACHFILTER	IQUANT	3	Ach Filter
IERANGELOWERLIMIT	IQUANT	2	I/E Range Lower Limit
IERANGEMODE	TOGGLE	F	I/E AutoRange
IERANGE	IQUANT	11	I/E Range
POSFEEDENABLE	TOGGLE	F	Positive Feedback IR Comp
POSFEEDRESISTANCE	QUANT	0	Positive Feedback Resistance (ohm)
ACHSELECT	IQUANT	0	Ach Select
CABLEID	IQUANT	13	Cable ID
DCCALDATE	LABEL	7/31/2020	DC Calibration Date
ACCALDATE	LABEL	7/31/2020	AC Calibration Date
THERMOSELECT	IQUANT	1	Thermo Select
FRAMEWORKVERSION	QUANT	6.33	Framework Version
INSTRUMENTVERSION	LABEL	3.50	Instrument Version
COMPLIANCEVOLTAGE	IQUANT	0	Compliance Voltage
ZCURVE	TABLE
	Pt	Time	Freq	Zreal	Zimag	Zsig	Zmod	Zphz	Idc	Vdc	IERange
	#	s	Hz	ohm	ohm	V	ohm	°	A	V	#
	0	7	300046.9	166.8575	-8.932168	1	167.0965	-3.064216	-2.209018E-005	-0.0022468	9
	1	11	238359.4	167.5859	-8.090492	1	167.7811	-2.763904	-1.423445E-005	-0.0015767	9
	2	14	189328.1	168.2665	-7.116158	1	168.4169	-2.421653	-6.99845E-006	-0.0007262	9
	3	16	150421.9	169.2192	-6.357691	1	169.3386	-2.151633	5.945112E-006	0.0004866	9
	4	19	119484.4	169.8437	-5.651424	1	169.9377	-1.905772	1.465367E-005	0.0013351	9
	5	21	94921.88	170.5239	-5.190323	1	170.6028	-1.743403	5.002133E-006	0.000571	9
	6	24	75421.88	171.1284	-5.205016	1	171.2076	-1.742162	3.418981E-006	0.0003331	9
	7	27	59859.37	171.8017	-5.307884	1	171.8837	-1.769614	6.579388E-006	0.0007662	9
	8	29	47578.12	172.502	-5.625408	1	172.5937	-1.867792	-8.526064E-006	-0.0006871	9
	9	32	37828.12	173.247	-6.108481	1	173.3546	-2.019344	-2.720053E-006	-1.242356E-005	9
	10	34	30046.88	174.0442	-6.787119	1	174.1765	-2.233205	-8.753859E-006	-0.0006635	9
	11	37	23859.38	174.9878	-7.68637	1	175.1565	-2.515111	-8.895996E-006	-0.000659	9
	12	39	18984.38	175.9385	-8.787451	1	176.1578	-2.859327	3.248016E-006	0.0003587	9
	13	41	15046.87	177.1191	-10.09952	1	177.4068	-3.263535	-5.162861E-006	-0.0002828	9
	14	44	11953.13	178.4418	-11.73673	1	178.8273	-3.763122	-2.815083E-006	-0.0003353	9
	15	46	9515.62	180.0079	-13.56005	1	180.5179	-4.307971	-2.446519E-006	-3.689508E-006	9
	16	48	7546.875	181.8391	-15.66971	1	182.513	-4.925211	-7.088486E-006	-0.0005013	9
	17	51	5928.309	183.9077	-18.23791	1	184.8098	-5.663438	7.312843E-006	0.0009576	9
	18	53	4733.456	186.1616	-20.96855	1	187.3388	-6.426497	4.741646E-006	0.0006915	9
	19	55	3796.875	188.5702	-24.00611	1	190.0921	-7.255071	-1.658459E-006	-8.786762E-005	9
	20	57	2987.132	191.4577	-27.76772	1	193.4609	-8.252247	4.878118E-006	0.0006829	9
	21	60	2390.625	194.4819	-31.90501	1	197.0815	-9.316464	5.204186E-006	0.0005816	9
	22	62	1884.191	198.1074	-36.97926	1	201.5292	-10.5733	5.122239E-006	0.0005936	9
	23	64	1516.544	201.8061	-42.58985	1	206.2513	-11.91703	7.097783E-006	0.0008262	9
	24	67	1193.986	206.3543	-49.7525	1	212.2673	-13.55544	-5.176941E-006	-0.0003096	9
	25	69	946.5144	211.4873	-58.01152	1	219.2993	-15.3391	7.06216E-006	0.0008097	9
	26	72	751.7689	217.2646	-67.47195	1	227.5002	-17.25229	7.335541E-006	0.0008388	9
	27	74	597.4265	223.7874	-78.82536	1	237.2641	-19.40396	6.156062E-006	0.0007524	9
	28	76	477.4305	231.1743	-91.66328	1	248.684	-21.62889	-5.814418E-007	7.54678E-005	9
	29	78	376.6741	240.112	-107.7765	1	263.1911	-24.17337	-5.108666E-007	6.999037E-005	9
	30	81	298.2954	250.3317	-126.5928	1	280.5204	-26.82572	-5.598127E-007	8.065873E-005	9
	31	83	237.7717	261.9379	-148.2152	1	300.9638	-29.50297	-5.222188E-007	7.255824E-005	9
	32	86	189.0121	275.7183	-173.9441	1	326.0017	-32.24685	-5.096578E-007	7.27008E-005	9
	33	88	150.2404	291.849	-204.2405	1	356.2163	-34.98493	-4.296933E-007	7.351458E-005	9
	34	90	119.1737	309.791	-239.0405	1	391.2939	-37.65445	-1.153823E-007	0.0006528	8
	35	93	95.0169	331.7195	-280.0663	1	434.1371	-40.17395	-1.022711E-007	0.0006488	8
	36	95	75.60484	357.8595	-328.3929	1	485.7009	-42.54132	-6.70247E-008	0.0006454	8
	37	98	54.50582	403.3824	-412.1091	1	576.6726	-45.61311	-5.948827E-008	0.0006423	8
	38	100	45.95588	432.5729	-463.4003	1	633.9236	-46.97057	5.769208E-008	0.0006428	8
	39	103	37.20238	473.9131	-536.207	1	715.6197	-48.52895	6.272909E-008	0.0006504	8
	40	105	30.04808	523.6679	-621.0929	1	812.3943	-49.86444	6.542736E-008	0.0006432	8
	41	107	23.91582	587.6157	-724.3887	1	932.7546	-50.95144	1.408815E-007	0.0006456	8
	42	110	18.60119	674.608	-856.7958	1	1090.502	-51.78447	1.538269E-007	0.0006564	8
	43	112	15.02404	764.6633	-985.465	1	1247.337	-52.19062	4.897857E-008	0.0006504	8
	44	114	12.01923	878.3539	-1132.554	1	1433.243	-52.20459	1.999691E-007	0.000654	8
	45	117	9.450605	1027.682	-1309.301	1	1664.452	-51.87132	2.056388E-007	0.0006414	8
	46	119	7.512019	1197.074	-1489.272	1	1910.737	-51.20773	1.121283E-007	0.0006539	8
	47	122	5.978954	1395.075	-1677.806	1	2182.033	-50.2569	-2.081435E-008	0.0006506	8
	48	127	4.734848	1631.104	-1875.222	1	2485.349	-48.98261	1.767021E-008	0.000679	8
	49	131	3.75601	1905.151	-2079.723	1	2820.435	-47.50845	-5.67018E-009	0.0006543	8
	50	137	3.004808	2200.602	-2272.018	1	3163.023	-45.91478	-8.440536E-008	0.0006836	8
	51	143	2.372217	2561.182	-2486.753	1	3569.817	-44.15527	-1.444495E-008	0.0007081	8
	52	148	1.878005	2937.205	-2658.045	1	3961.36	-42.14376	-7.47126E-008	0.0005823	7
	53	152	1.512097	3302.636	-2814.232	1	4339.045	-40.43488	-1.036911E-007	0.0007096	7
	54	163	1.201923	3734.804	-2991.824	1	4785.371	-38.69703	-1.176549E-007	0.0005805	7
	55	176	0.956633	4205.303	-3167.163	1	5264.55	-36.9847	-2.518876E-007	-1.722607E-005	7
