EXPLAIN
TAG	EISPOT
TITLE	LABEL	Potentiostatic EIS	Test Identifier
DATE	LABEL	8/31/2020	Date
TIME	LABEL	13:55:07	Time
NOTES	NOTES	1	Notes...
	
PSTAT	PSTAT	REF3000-16137	Potentiostat
VDC	POTEN	0.00000E+000	T	DC Voltage (V)
FREQINIT	QUANT	3.00000E+005	Initial Freq. (Hz)
FREQFINAL	QUANT	1.00000E+000	Final Freq. (Hz)
PTSPERDEC	QUANT	1.00000E+001	Points/decade
VAC	QUANT	5.00000E+001	AC Voltage (mV rms)
AREA	QUANT	1.00000E+000	Sample Area (cm^2)
SPEED	SELECTOR	2	Optimize for:
ZGUESS	QUANT	1.00000E+003	Estimated Z (ohms)
EOC	QUANT	0	Open Circuit (V)
SEQUENCER	TOGGLE	TRUE	Run as Sequence
PSTATMODEL	IQUANT	5	Pstat Model
PSTATSECTION	LABEL	REF3000-16137	Pstat Section
PSTATSERIALNO	LABEL	16137	Pstat Serial Number
CTRLMODE	IQUANT	1	Control Mode
IESTAB	IQUANT	0	I/E Stability
CASPEED	IQUANT	1	Control Amp Speed
CONVENTION	IQUANT	1	Current Convention
ICHRANGE	IQUANT	2	Ich Range
ICHRANGEMODE	TOGGLE	F	Ich Auto Range
ICHOFFSETENABLE	TOGGLE	T	Ich Offset Enable
ICHOFFSET	QUANT	0	Ich Offset (V)
ICHFILTER	IQUANT	3	Ich Filter
VCHRANGE	IQUANT	2	Vch Range
VCHRANGEMODE	TOGGLE	F	Vch Auto Range
VCHOFFSETENABLE	TOGGLE	T	Vch Offset Enable
VCHOFFSET	QUANT	0	Vch Offset (V)
VCHFILTER	IQUANT	3	Vch Filter
ACHRANGE	IQUANT	2	Ach Range
ACHOFFSETENABLE	TOGGLE	F	Ach Offset Enable
ACHOFFSET	QUANT	0	Ach Offset (V)
ACHFILTER	IQUANT	3	Ach Filter
IERANGELOWERLIMIT	IQUANT	2	I/E Range Lower Limit
IERANGEMODE	TOGGLE	F	I/E AutoRange
IERANGE	IQUANT	11	I/E Range
POSFEEDENABLE	TOGGLE	F	Positive Feedback IR Comp
POSFEEDRESISTANCE	QUANT	0	Positive Feedback Resistance (ohm)
ACHSELECT	IQUANT	0	Ach Select
CABLEID	IQUANT	13	Cable ID
DCCALDATE	LABEL	7/31/2020	DC Calibration Date
ACCALDATE	LABEL	7/31/2020	AC Calibration Date
THERMOSELECT	IQUANT	1	Thermo Select
FRAMEWORKVERSION	QUANT	6.33	Framework Version
INSTRUMENTVERSION	LABEL	3.50	Instrument Version
COMPLIANCEVOLTAGE	IQUANT	0	Compliance Voltage
ZCURVE	TABLE
	Pt	Time	Freq	Zreal	Zimag	Zsig	Zmod	Zphz	Idc	Vdc	IERange
	#	s	Hz	ohm	ohm	V	ohm	°	A	V	#
	0	14	300046.9	1163.286	-848.0375	1	1439.584	-36.09211	-4.951632E-006	-0.0018722	9
	1	21	238359.4	1334.537	-791.2571	1	1551.476	-30.66402	-1.260639E-005	-0.0053091	9
	2	28	189328.1	1448.968	-702.0753	1	1610.099	-25.8518	2.087343E-005	0.0015036	9
	3	34	150421.9	1593.088	-636.8713	1	1715.673	-21.79013	-4.893368E-006	-0.0014778	9
	4	41	119484.4	1691.348	-548.385	1	1778.028	-17.96423	3.637736E-006	0.0001903	8
	5	44	94921.88	1758.417	-462.5096	1	1818.226	-14.7365	-3.362864E-006	0.0006784	8
	6	47	75421.88	1809.041	-389.3793	1	1850.472	-12.14706	-3.444076E-006	0.0006906	8
	7	49	59859.37	1847.517	-325.6738	1	1876.002	-9.99719	-9.398594E-007	0.0007063	8
	8	52	47578.12	1874.48	-271.3142	1	1894.014	-8.235854	-7.799191E-007	0.0005136	8
	9	54	37828.12	1899.093	-226.7178	1	1912.578	-6.807874	8.644213E-007	0.0005345	8
	10	57	30046.88	1916.426	-190.9453	1	1925.915	-5.689951	3.903424E-007	0.0005536	8
	11	59	23859.38	1935.174	-163.7308	1	1942.088	-4.836151	5.87682E-007	0.0007223	8
	12	62	18984.38	1948.722	-142.7864	1	1953.946	-4.190676	1.42042E-006	0.0006116	8
	13	64	15046.87	1954.093	-124.8369	1	1958.077	-3.655363	-1.151702E-006	0.0006374	8
	14	66	11953.13	1971.43	-118.1504	1	1974.967	-3.42971	8.665032E-007	0.0005525	8
	15	68	9515.62	1981.226	-110.9549	1	1984.331	-3.205396	-8.526167E-007	0.0005641	8
	16	71	7546.875	1991.265	-107.3306	1	1994.156	-3.085299	-3.390507E-006	0.0007304	8
	17	73	5928.309	2011.034	-112.1171	1	2014.157	-3.190992	9.314736E-007	0.0005462	8
	18	75	4733.456	2018.794	-115.1607	1	2022.076	-3.264859	-3.186164E-006	0.0007321	8
	19	78	3796.875	2037.079	-121.1584	1	2040.679	-3.403746	-3.066197E-006	0.0006242	8
	20	80	2987.132	2052.823	-134.7798	1	2057.242	-3.756412	1.090672E-006	0.0005944	8
	21	82	2390.625	2073.469	-146.9409	1	2078.669	-4.053615	1.490304E-006	0.0007468	8
	22	85	1884.191	2089.303	-161.3741	1	2095.526	-4.416657	-3.161369E-006	0.0007091	8
	23	87	1516.544	2111.951	-185.5878	1	2120.089	-5.021969	-2.573205E-006	0.0007678	8
	24	89	1193.986	2141.052	-209.183	1	2151.246	-5.580148	-2.64976E-006	0.0007431	8
	25	92	946.5144	2172.865	-236.8967	1	2185.741	-6.2221	1.986554E-006	0.000575	8
	26	94	751.7689	2205.119	-273.5587	1	2222.022	-7.071767	1.870832E-006	0.00058	8
	27	96	597.4265	2243.144	-306.847	1	2264.034	-7.789331	8.879931E-007	0.0005399	8
	28	99	477.4305	2279.355	-343.9062	1	2305.153	-8.579999	-6.772229E-007	0.0006511	8
	29	101	376.6741	2324.099	-390.9122	1	2356.745	-9.54775	-6.742717E-007	0.0006314	8
	30	103	298.2954	2372.164	-443.7564	1	2413.313	-10.59575	-6.713604E-007	0.0006463	8
	31	106	237.7717	2421.76	-503.8662	1	2473.622	-11.75316	-6.737598E-007	0.0006468	8
	32	108	189.0121	2476.075	-576.3974	1	2542.279	-13.10432	-6.612126E-007	0.0006473	8
	33	110	150.2404	2534.815	-662.6299	1	2619.994	-14.64994	-6.548036E-007	0.0006213	8
	34	113	119.1737	2600.478	-767.0104	1	2711.234	-16.43341	-6.481696E-007	0.0006524	8
	35	115	95.0169	2672.743	-889.6471	1	2816.918	-18.4105	-6.485246E-007	0.0006504	8
	36	118	75.60484	2754.805	-1037.227	1	2943.602	-20.63214	-6.617441E-007	0.0006484	8
	37	120	54.50582	2891.097	-1299.557	1	3169.746	-24.20407	-6.631703E-007	0.0006483	8
	38	123	45.95588	2977.899	-1466.069	1	3319.223	-26.21178	-6.444408E-007	0.0006548	8
	39	125	37.20238	3098.689	-1704.974	1	3536.78	-28.82066	-6.550177E-007	0.0006492	8
	40	127	30.04808	3241.685	-1991.095	1	3804.337	-31.55892	-6.684633E-007	0.0006517	8
	41	130	23.91582	3429.976	-2355.235	1	4160.754	-34.47592	-7.540158E-008	0.0006206	7
	42	132	18.60119	3675.244	-2828.639	1	4637.738	-37.58356	-1.412299E-007	0.0006277	7
	43	135	15.02404	3934.878	-3297.383	1	5133.809	-39.96262	-6.942781E-008	0.0006372	7
	44	137	12.01923	4258.626	-3866.367	1	5751.93	-42.23601	-9.725584E-008	0.0006353	7
	45	139	9.450605	4684.485	-4571.884	1	6545.726	-44.30305	-1.105825E-007	0.0005972	7
	46	142	7.512019	5175.096	-5348.028	1	7441.977	-45.94149	-1.135077E-007	0.0006221	7
	47	145	5.978954	5762.979	-6238.324	1	8492.856	-47.26817	-9.13401E-008	0.0006269	7
	48	148	4.734848	6474.917	-7271.937	1	9736.82	-48.3182	-5.949713E-008	0.0006402	7
	49	151	3.75601	7297.996	-8441.539	1	11158.87	-49.15548	-9.131004E-008	0.0006018	7
	50	154	3.004808	8238.675	-9715.95	1	12738.74	-49.70359	-8.441667E-008	0.0006525	7
	51	158	2.372217	9439.5	-11240.19	1	14678.08	-49.97651	-6.913712E-008	0.0007008	7
	52	162	1.878005	10814.29	-13020.86	1	16926.06	-50.28917	-7.92142E-008	0.0006006	7
	53	171	1.512097	12338.81	-14881.15	1	19331.19	-50.33594	-7.932714E-008	0.0006762	7
	54	182	1.201923	14302.12	-17155.04	1	22334.86	-50.1821	-8.026822E-008	0.0005914	7
	55	195	0.956633	16583.56	-19668.52	1	25726.74	-49.86401	-9.14921E-008	-1.494063E-005	7
