EXPLAIN
TAG	EISPOT
TITLE	LABEL	Potentiostatic EIS	Test Identifier
DATE	LABEL	8/31/2020	Date
TIME	LABEL	15:12:28	Time
NOTES	NOTES	1	Notes...
	
PSTAT	PSTAT	REF3000-16137	Potentiostat
VDC	POTEN	0.00000E+000	T	DC Voltage (V)
FREQINIT	QUANT	3.00000E+005	Initial Freq. (Hz)
FREQFINAL	QUANT	1.00000E+000	Final Freq. (Hz)
PTSPERDEC	QUANT	1.00000E+001	Points/decade
VAC	QUANT	5.00000E+001	AC Voltage (mV rms)
AREA	QUANT	1.00000E+000	Sample Area (cm^2)
SPEED	SELECTOR	2	Optimize for:
ZGUESS	QUANT	1.00000E+003	Estimated Z (ohms)
EOC	QUANT	0	Open Circuit (V)
SEQUENCER	TOGGLE	TRUE	Run as Sequence
PSTATMODEL	IQUANT	5	Pstat Model
PSTATSECTION	LABEL	REF3000-16137	Pstat Section
PSTATSERIALNO	LABEL	16137	Pstat Serial Number
CTRLMODE	IQUANT	1	Control Mode
IESTAB	IQUANT	0	I/E Stability
CASPEED	IQUANT	1	Control Amp Speed
CONVENTION	IQUANT	1	Current Convention
ICHRANGE	IQUANT	2	Ich Range
ICHRANGEMODE	TOGGLE	F	Ich Auto Range
ICHOFFSETENABLE	TOGGLE	T	Ich Offset Enable
ICHOFFSET	QUANT	0	Ich Offset (V)
ICHFILTER	IQUANT	3	Ich Filter
VCHRANGE	IQUANT	2	Vch Range
VCHRANGEMODE	TOGGLE	F	Vch Auto Range
VCHOFFSETENABLE	TOGGLE	T	Vch Offset Enable
VCHOFFSET	QUANT	0	Vch Offset (V)
VCHFILTER	IQUANT	3	Vch Filter
ACHRANGE	IQUANT	2	Ach Range
ACHOFFSETENABLE	TOGGLE	F	Ach Offset Enable
ACHOFFSET	QUANT	0	Ach Offset (V)
ACHFILTER	IQUANT	3	Ach Filter
IERANGELOWERLIMIT	IQUANT	2	I/E Range Lower Limit
IERANGEMODE	TOGGLE	F	I/E AutoRange
IERANGE	IQUANT	11	I/E Range
POSFEEDENABLE	TOGGLE	F	Positive Feedback IR Comp
POSFEEDRESISTANCE	QUANT	0	Positive Feedback Resistance (ohm)
ACHSELECT	IQUANT	0	Ach Select
CABLEID	IQUANT	13	Cable ID
DCCALDATE	LABEL	7/31/2020	DC Calibration Date
ACCALDATE	LABEL	7/31/2020	AC Calibration Date
THERMOSELECT	IQUANT	1	Thermo Select
FRAMEWORKVERSION	QUANT	6.33	Framework Version
INSTRUMENTVERSION	LABEL	3.50	Instrument Version
COMPLIANCEVOLTAGE	IQUANT	0	Compliance Voltage
ZCURVE	TABLE
	Pt	Time	Freq	Zreal	Zimag	Zsig	Zmod	Zphz	Idc	Vdc	IERange
	#	s	Hz	ohm	ohm	V	ohm	°	A	V	#
	0	14	300046.9	-61.53821	-4833.022	1	4833.414	-90.7295	-9.053799E-005	0.0042171	9
	1	30	238359.4	119.8958	-6134.667	1	6135.838	-88.88036	2.30786E-005	-0.000491	9
	2	51	189328.1	159.9723	-7223.161	1	7224.933	-88.73127	-2.921909E-005	-0.0011075	9
	3	58	150421.9	691.3809	-8878.337	1	8905.216	-85.5472	-2.0045E-005	0.0015832	9
	4	71	119484.4	406.2807	-11635.39	1	11642.48	-88.00018	6.740938E-005	-0.0258734	8
	5	78	94921.88	598.0524	-14395.23	1	14407.65	-87.621	-9.20545E-006	-0.0023109	8
	6	87	75421.88	659.553	-18213.88	1	18225.82	-87.92614	-1.582378E-005	0.0005529	8
	7	95	59859.37	686.0939	-22776.02	1	22786.35	-88.27457	2.622838E-005	-0.0051362	8
	8	104	47578.12	120.3101	-28212.49	1	28212.75	-89.75567	1.719117E-005	0.0004276	8
	9	114	37828.12	716.6632	-35550.53	1	35557.75	-88.84513	2.709868E-005	-0.0072777	8
	10	123	30046.88	343.6034	-45605.33	1	45606.62	-89.56833	2.622167E-005	-0.0051204	8
	11	133	23859.38	-282.9303	-58361.72	1	58362.41	-90.27776	-8.024499E-007	-0.0051859	8
	12	140	18984.38	4311.489	-71971.38	1	72100.41	-86.57176	5.557862E-007	0.0160288	7
	13	145	15046.87	4728.357	-90807.88	1	90930.89	-87.0193	5.078829E-006	-0.0007754	7
	14	150	11953.13	4967.121	-112984.3	1	113093.4	-87.48273	3.610266E-007	0.0167872	7
	15	156	9515.62	653.5432	-136837.6	1	136839.2	-89.72636	-1.577469E-005	0.0005594	8
	16	163	7546.875	-211.7765	-183848.6	1	183848.7	-90.066	-3.586057E-006	0.025478	7
	17	170	5928.309	10550.76	-234092.7	1	234330.4	-87.41938	6.936008E-006	-0.0271772	7
	18	175	4733.456	20320.44	-305131.3	1	305807.2	-86.18997	-7.385024E-006	0.0187995	7
	19	182	3796.875	23619.01	-358967.8	1	359743.9	-86.23553	-6.741557E-006	0.0120055	7
	20	188	2987.132	47159.01	-416949.3	1	419607.7	-83.54699	-3.807667E-006	0.0256499	7
	21	194	2390.625	-59161.76	-546421.9	1	549615.4	-96.1794	7.649809E-006	-0.0184583	7
	22	202	1884.191	43871.27	-488052.7	1	490020.5	-84.86346	2.778605E-006	0.0086932	7
	23	209	1516.544	-416062.2	-898644.6	1	990288	-114.8436	-1.018376E-006	-0.0135733	7
	24	215	1193.986	259695.1	-748421.9	1	792197.6	-70.86372	6.936757E-006	-0.027168	7
	25	223	946.5144	1019556	-474760.6	1	1124674	-24.96925	2.774481E-005	-0.0074749	8
	26	231	751.7689	-360255.7	-518854.6	1	631659.9	-124.7734	6.940229E-006	-0.0271127	7
	27	238	597.4265	1079332	-589441.3	1	1229796	-28.63969	-7.391737E-006	0.0188474	7
	28	243	477.4305	50330.92	-2814330	1	2814780	-88.97544	-7.724505E-008	0.000612	7
	29	250	376.6741	476322.2	-3661300	1	3692154	-82.58765	-8.474408E-010	0.0006839	5
	30	254	298.2954	516593.9	-4566641	1	4595768	-83.54594	-7.782692E-010	0.0005912	5
	31	256	237.7717	437260.4	-5626941	1	5643905	-85.55656	-7.649376E-010	0.0006276	5
	32	259	189.0121	572681.2	-7070713	1	7093867	-85.36953	-8.341112E-010	0.0006405	5
	33	262	150.2404	823372.8	-8489526	1	8529361	-84.46039	-8.651433E-010	0.0006544	5
	34	265	119.1737	212688.2	-8491126	1	8493789	-88.56514	-8.690995E-010	0.0006846	5
	35	268	95.0169	667283.6	-1.384897E+007	1	1.386504E+007	-87.24146	-7.514855E-010	0.0005891	5
	36	270	75.60484	169240.2	-1.704079E+007	1	1.704163E+007	-89.43098	-8.596856E-010	0.0006869	5
	37	273	54.50582	1113204	-2.36408E+007	1	2.3667E+007	-87.30403	-7.763533E-010	0.0005853	5
	38	276	45.95588	2252787	-2.901151E+007	1	2.909885E+007	-85.55981	-8.010685E-010	0.000609	5
	39	280	37.20238	2464009	-3.399464E+007	1	3.408382E+007	-85.85432	-8.058836E-010	0.0006423	5
	40	284	30.04808	2152607	-4.299975E+007	1	4.30536E+007	-87.13411	-7.919452E-010	0.0005914	5
	41	288	23.91582	6466050	-5.635699E+007	1	5.672672E+007	-83.45486	-7.042492E-011	0.0006025	4
	42	292	18.60119	-3926.548	-6.340657E+007	1	6.340657E+007	-90.00355	-1.362153E-010	0.0006635	4
	43	295	15.02404	7909906	-8.562768E+007	1	8.599225E+007	-84.72224	-7.474538E-011	0.0006813	4
	44	299	12.01923	1.238745E+007	-1.066372E+008	1	1.073543E+008	-83.37397	-6.903889E-011	0.0006495	4
	45	303	9.450605	1.200882E+007	-1.347281E+008	1	1.352623E+008	-84.90648	-7.973439E-011	0.000675	4
	46	307	7.512019	1.02974E+007	-1.677867E+008	1	1.681024E+008	-86.48805	-8.240085E-011	0.0006854	4
	47	311	5.978954	2.319864E+007	-2.032924E+008	1	2.046118E+008	-83.48988	-7.22749E-011	0.0006841	4
	48	317	4.734848	5.732298E+007	-2.792316E+008	1	2.850547E+008	-78.39902	-7.485084E-012	0.0006952	3
	49	322	3.75601	1.416072E+007	-3.120263E+008	1	3.123475E+008	-87.40153	-8.1159E-010	0.0005827	5
	50	330	3.004808	6.8265E+007	-3.958747E+008	1	4.017174E+008	-80.21608	-8.20621E-010	0.0006051	5
	51	339	2.372217	9.322806E+007	-5.295473E+008	1	5.376912E+008	-80.01526	-7.347407E-012	0.000762	3
	52	345	1.878005	1.167094E+008	-6.634429E+008	1	6.736301E+008	-80.02291	-7.28543E-012	0.000692	3
	53	354	1.512097	1.482978E+008	-8.145183E+008	1	8.279084E+008	-79.6813	-7.00324E-012	0.0008119	3
	54	359	1.201923	1.88945E+008	-1.011987E+009	1	1.029475E+009	-79.42426	-7.060014E-012	0.0006904	3
	55	370	0.956633	2.501416E+008	-1.263807E+009	1	1.288324E+009	-78.80431	-6.9506E-012	8.088526E-005	3
