EXPLAIN
TAG	EISPOT
TITLE	LABEL	Potentiostatic EIS	Test Identifier
DATE	LABEL	8/31/2020	Date
TIME	LABEL	16:00:49	Time
NOTES	NOTES	1	Notes...
	
PSTAT	PSTAT	REF3000-16137	Potentiostat
VDC	POTEN	0.00000E+000	T	DC Voltage (V)
FREQINIT	QUANT	3.00000E+005	Initial Freq. (Hz)
FREQFINAL	QUANT	1.00000E+000	Final Freq. (Hz)
PTSPERDEC	QUANT	1.00000E+001	Points/decade
VAC	QUANT	5.00000E+001	AC Voltage (mV rms)
AREA	QUANT	1.00000E+000	Sample Area (cm^2)
SPEED	SELECTOR	2	Optimize for:
ZGUESS	QUANT	1.00000E+003	Estimated Z (ohms)
EOC	QUANT	0	Open Circuit (V)
SEQUENCER	TOGGLE	TRUE	Run as Sequence
PSTATMODEL	IQUANT	5	Pstat Model
PSTATSECTION	LABEL	REF3000-16137	Pstat Section
PSTATSERIALNO	LABEL	16137	Pstat Serial Number
CTRLMODE	IQUANT	1	Control Mode
IESTAB	IQUANT	0	I/E Stability
CASPEED	IQUANT	1	Control Amp Speed
CONVENTION	IQUANT	1	Current Convention
ICHRANGE	IQUANT	2	Ich Range
ICHRANGEMODE	TOGGLE	F	Ich Auto Range
ICHOFFSETENABLE	TOGGLE	T	Ich Offset Enable
ICHOFFSET	QUANT	0	Ich Offset (V)
ICHFILTER	IQUANT	3	Ich Filter
VCHRANGE	IQUANT	2	Vch Range
VCHRANGEMODE	TOGGLE	F	Vch Auto Range
VCHOFFSETENABLE	TOGGLE	T	Vch Offset Enable
VCHOFFSET	QUANT	0	Vch Offset (V)
VCHFILTER	IQUANT	3	Vch Filter
ACHRANGE	IQUANT	2	Ach Range
ACHOFFSETENABLE	TOGGLE	F	Ach Offset Enable
ACHOFFSET	QUANT	0	Ach Offset (V)
ACHFILTER	IQUANT	3	Ach Filter
IERANGELOWERLIMIT	IQUANT	2	I/E Range Lower Limit
IERANGEMODE	TOGGLE	F	I/E AutoRange
IERANGE	IQUANT	11	I/E Range
POSFEEDENABLE	TOGGLE	F	Positive Feedback IR Comp
POSFEEDRESISTANCE	QUANT	0	Positive Feedback Resistance (ohm)
ACHSELECT	IQUANT	0	Ach Select
CABLEID	IQUANT	13	Cable ID
DCCALDATE	LABEL	7/31/2020	DC Calibration Date
ACCALDATE	LABEL	7/31/2020	AC Calibration Date
THERMOSELECT	IQUANT	1	Thermo Select
FRAMEWORKVERSION	QUANT	6.33	Framework Version
INSTRUMENTVERSION	LABEL	3.50	Instrument Version
COMPLIANCEVOLTAGE	IQUANT	0	Compliance Voltage
ZCURVE	TABLE
	Pt	Time	Freq	Zreal	Zimag	Zsig	Zmod	Zphz	Idc	Vdc	IERange
	#	s	Hz	ohm	ohm	V	ohm	°	A	V	#
	0	6	300046.9	344.8915	-48.44603	1	348.2774	-7.995877	-5.029563E-006	-0.0006784	9
	1	9	238359.4	345.6767	-39.78054	1	347.9581	-6.564732	2.573843E-006	0.0002706	9
	2	12	189328.1	345.3876	-32.22734	1	346.8879	-5.330706	4.111748E-006	0.000406	9
	3	14	150421.9	344.8737	-27.36913	1	345.958	-4.537475	-8.506458E-006	-0.0013558	9
	4	17	119484.4	345.8974	-22.64169	1	346.6376	-3.745113	1.803507E-006	0.0013882	9
	5	19	94921.88	343.4224	-19.27903	1	343.9631	-3.213095	-2.480601E-006	-0.0001305	9
	6	22	75421.88	342.1601	-16.79711	1	342.5721	-2.810472	3.612209E-006	0.0008722	9
	7	25	59859.37	340.9064	-15.19057	1	341.2447	-2.551374	-5.725807E-006	-0.0006273	9
	8	27	47578.12	339.6383	-13.96107	1	339.9251	-2.353859	3.127072E-006	0.0007603	9
	9	30	37828.12	338.2427	-13.35233	1	338.5062	-2.260611	-6.45222E-006	-0.0006894	9
	10	32	30046.88	337.0982	-13.16855	1	337.3553	-2.23709	2.443096E-006	0.0006576	9
	11	35	23859.38	336.0714	-13.50464	1	336.3427	-2.301126	3.598233E-006	0.0008555	9
	12	37	18984.38	335.3106	-14.22132	1	335.6121	-2.428596	3.939057E-006	0.0008766	9
	13	39	15046.87	334.629	-15.44747	1	334.9853	-2.643067	1.564258E-006	0.0004694	9
	14	42	11953.13	334.2286	-16.99373	1	334.6604	-2.910676	-6.363061E-007	0.0001639	9
	15	44	9515.62	333.8826	-18.84276	1	334.4138	-3.230078	-7.184446E-006	-0.0008063	9
	16	46	7546.875	334.0706	-20.94182	1	334.7263	-3.586996	3.617052E-006	0.0008049	9
	17	49	5928.309	334.6375	-24.00998	1	335.4978	-4.103894	-1.340795E-006	-5.682915E-005	9
	18	51	4733.456	335.3086	-27.12741	1	336.4041	-4.625316	-6.374948E-006	-0.0006937	9
	19	53	3796.875	336.3522	-30.42569	1	337.7255	-5.168785	-2.440019E-006	-0.0001136	9
	20	56	2987.132	337.9013	-34.80019	1	339.6886	-5.880116	3.926909E-006	0.0008528	9
	21	58	2390.625	339.6121	-39.24749	1	341.8724	-6.59218	-2.374688E-006	-0.0002635	9
	22	60	1884.191	342.2849	-45.18318	1	345.2542	-7.519828	-1.259325E-006	-4.651664E-005	9
	23	63	1516.544	344.8849	-51.01213	1	348.6371	-8.41365	4.000739E-006	0.0008626	9
	24	65	1193.986	348.481	-58.46433	1	353.3512	-9.52377	-2.225382E-006	-0.0002551	9
	25	67	946.5144	351.2705	-66.73412	1	357.5534	-10.75682	2.580649E-006	0.000491	8
	26	70	751.7689	356.0567	-76.4694	1	364.1757	-12.12115	2.237524E-006	0.0006381	8
	27	72	597.4265	361.8466	-87.96913	1	372.3863	-13.66419	-6.001425E-007	0.0007281	8
	28	74	477.4305	368.173	-101.054	1	381.7896	-15.34825	-3.226699E-007	0.0006487	8
	29	77	376.6741	376.1779	-117.4434	1	394.0847	-17.33846	-3.245526E-007	0.0006442	8
	30	79	298.2954	385.551	-136.6115	1	409.0382	-19.51066	-3.165151E-007	0.0006457	8
	31	81	237.7717	396.0138	-158.644	1	426.6085	-21.83116	-3.196758E-007	0.0006469	8
	32	84	189.0121	408.6064	-184.9796	1	448.5272	-24.35666	-3.077888E-007	0.0006468	8
	33	86	150.2404	423.5995	-216.1384	1	475.5547	-27.0326	-3.186249E-007	0.0006475	8
	34	89	119.1737	441.809	-253.1926	1	509.2167	-29.81623	-3.017443E-007	0.0006544	8
	35	91	95.0169	463.0485	-295.8502	1	549.4918	-32.57526	-3.026954E-007	0.0006459	8
	36	94	75.60484	488.8853	-346.1817	1	599.0414	-35.30247	-2.961706E-007	0.0006449	8
	37	96	54.50582	536.3784	-433.2294	1	689.4849	-38.92759	-2.999861E-007	0.0006097	8
	38	99	45.95588	566.2763	-486.6332	1	746.6464	-40.67433	-2.942795E-007	0.0006442	8
	39	101	37.20238	610.4691	-561.2262	1	829.2451	-42.59344	-3.298665E-007	0.0006523	8
	40	103	30.04808	664.2336	-646.6445	1	927.0142	-44.23126	-3.318249E-007	0.0006475	8
	41	106	23.91582	734.5346	-749.1314	1	1049.161	-45.56367	-1.785611E-007	0.0006488	8
	42	108	18.60119	830.4284	-879.1461	1	1209.342	-46.63231	-3.003944E-007	0.0006537	8
	43	110	15.02404	928.4703	-999.506	1	1364.21	-47.11008	-3.254576E-007	0.0006525	8
	44	113	12.01923	1051.824	-1135.232	1	1547.607	-47.18405	-3.656889E-007	0.0006453	8
	45	115	9.450605	1209.51	-1288.833	1	1767.486	-46.81854	-3.774361E-007	0.0006611	8
	46	118	7.512019	1385.899	-1438.897	1	1997.784	-46.07484	-3.511852E-007	0.0006373	8
	47	121	5.978954	1583.225	-1581.488	1	2237.79	-44.96855	-3.540157E-007	0.0006472	8
	48	126	4.734848	1809.733	-1725.095	1	2500.217	-43.62837	-2.9396E-007	0.0006733	8
	49	130	3.75601	2061.662	-1863.203	1	2778.844	-42.10533	-3.161427E-007	0.0006526	8
	50	136	3.004808	2321.752	-1989.396	1	3057.488	-40.59166	-3.570011E-007	0.0006739	8
	51	142	2.372217	2632.014	-2125.678	1	3383.195	-38.92519	-2.7653E-007	0.0006411	8
	52	147	1.878005	2919.737	-2189.564	1	3649.528	-36.86691	-3.077788E-007	0.0006344	8
	53	156	1.512097	3226.244	-2300.334	1	3962.347	-35.48913	-1.866617E-007	0.0006959	7
	54	166	1.201923	3560.325	-2386.308	1	4286.068	-33.83197	-1.726712E-007	0.0006005	7
	55	179	0.956633	3925.928	-2473.406	1	4640.113	-32.21167	-3.852141E-007	-1.687252E-005	7
