EXPLAIN
TAG	EISPOT
TITLE	LABEL	Potentiostatic EIS	Test Identifier
DATE	LABEL	8/31/2020	Date
TIME	LABEL	16:03:59	Time
NOTES	NOTES	1	Notes...
	
PSTAT	PSTAT	REF3000-16137	Potentiostat
VDC	POTEN	0.00000E+000	T	DC Voltage (V)
FREQINIT	QUANT	3.00000E+005	Initial Freq. (Hz)
FREQFINAL	QUANT	1.00000E+000	Final Freq. (Hz)
PTSPERDEC	QUANT	1.00000E+001	Points/decade
VAC	QUANT	5.00000E+001	AC Voltage (mV rms)
AREA	QUANT	1.00000E+000	Sample Area (cm^2)
SPEED	SELECTOR	2	Optimize for:
ZGUESS	QUANT	1.00000E+003	Estimated Z (ohms)
EOC	QUANT	0	Open Circuit (V)
SEQUENCER	TOGGLE	TRUE	Run as Sequence
PSTATMODEL	IQUANT	5	Pstat Model
PSTATSECTION	LABEL	REF3000-16137	Pstat Section
PSTATSERIALNO	LABEL	16137	Pstat Serial Number
CTRLMODE	IQUANT	1	Control Mode
IESTAB	IQUANT	0	I/E Stability
CASPEED	IQUANT	1	Control Amp Speed
CONVENTION	IQUANT	1	Current Convention
ICHRANGE	IQUANT	2	Ich Range
ICHRANGEMODE	TOGGLE	F	Ich Auto Range
ICHOFFSETENABLE	TOGGLE	T	Ich Offset Enable
ICHOFFSET	QUANT	0	Ich Offset (V)
ICHFILTER	IQUANT	3	Ich Filter
VCHRANGE	IQUANT	2	Vch Range
VCHRANGEMODE	TOGGLE	F	Vch Auto Range
VCHOFFSETENABLE	TOGGLE	T	Vch Offset Enable
VCHOFFSET	QUANT	0	Vch Offset (V)
VCHFILTER	IQUANT	3	Vch Filter
ACHRANGE	IQUANT	2	Ach Range
ACHOFFSETENABLE	TOGGLE	F	Ach Offset Enable
ACHOFFSET	QUANT	0	Ach Offset (V)
ACHFILTER	IQUANT	3	Ach Filter
IERANGELOWERLIMIT	IQUANT	2	I/E Range Lower Limit
IERANGEMODE	TOGGLE	F	I/E AutoRange
IERANGE	IQUANT	11	I/E Range
POSFEEDENABLE	TOGGLE	F	Positive Feedback IR Comp
POSFEEDRESISTANCE	QUANT	0	Positive Feedback Resistance (ohm)
ACHSELECT	IQUANT	0	Ach Select
CABLEID	IQUANT	13	Cable ID
DCCALDATE	LABEL	7/31/2020	DC Calibration Date
ACCALDATE	LABEL	7/31/2020	AC Calibration Date
THERMOSELECT	IQUANT	1	Thermo Select
FRAMEWORKVERSION	QUANT	6.33	Framework Version
INSTRUMENTVERSION	LABEL	3.50	Instrument Version
COMPLIANCEVOLTAGE	IQUANT	0	Compliance Voltage
ZCURVE	TABLE
	Pt	Time	Freq	Zreal	Zimag	Zsig	Zmod	Zphz	Idc	Vdc	IERange
	#	s	Hz	ohm	ohm	V	ohm	°	A	V	#
	0	4	300046.9	235.7759	-20.42937	1	236.6593	-4.952163	-1.737559E-005	-0.0021584	9
	1	9	238359.4	234.4814	-17.55139	1	235.1373	-4.280719	-8.729187E-006	-0.0012557	9
	2	14	189328.1	234.2542	-15.06066	1	234.7379	-3.678594	2.755212E-005	0.001097	9
	3	17	150421.9	234.2362	-12.6466	1	234.5774	-3.090445	6.083009E-006	0.0007015	9
	4	19	119484.4	234.1739	-11.01258	1	234.4327	-2.692485	2.796798E-005	0.0012982	9
	5	22	94921.88	233.8931	-9.69659	1	234.0941	-2.373972	-7.712851E-006	-0.0007393	9
	6	24	75421.88	233.4421	-8.905375	1	233.6119	-2.184666	1.028626E-006	0.0001718	9
	7	27	59859.37	233.1248	-8.566376	1	233.2821	-2.104437	-2.595532E-006	-0.0001664	9
	8	29	47578.12	232.6937	-8.496424	1	232.8488	-2.091131	-8.310886E-006	-0.00076	9
	9	32	37828.12	232.3461	-8.687827	1	232.5084	-2.141392	5.648057E-006	0.0008404	9
	10	34	30046.88	232.1379	-9.230158	1	232.3214	-2.276968	-2.647478E-006	-0.0001477	9
	11	37	23859.38	232.0201	-10.00684	1	232.2358	-2.469589	-1.372935E-006	-7.939148E-005	9
	12	39	18984.38	232.1342	-11.0758	1	232.3982	-2.731677	5.203015E-006	0.0007737	9
	13	41	15046.87	232.3469	-12.4484	1	232.6802	-3.066791	-7.257302E-006	-0.0006165	9
	14	44	11953.13	232.8207	-14.08833	1	233.2465	-3.462833	2.486125E-006	0.0004256	9
	15	46	9515.62	233.4665	-16.01494	1	234.0151	-3.924133	-6.972402E-006	-0.0006011	9
	16	48	7546.875	234.4468	-18.28463	1	235.1587	-4.459501	5.386671E-006	0.0007931	9
	17	51	5928.309	235.716	-20.99763	1	236.6494	-5.090483	5.697193E-006	0.0008254	9
	18	53	4733.456	237.1794	-23.95594	1	238.3861	-5.767514	3.870234E-006	0.0006146	9
	19	55	3796.875	238.5416	-27.22344	1	240.09	-6.510684	-1.30677E-006	-5.460286E-005	9
	20	59	2987.132	240.8969	-31.33822	1	242.9267	-7.411971	-7.572617E-006	-0.0006547	9
	21	61	2390.625	242.7541	-35.7618	1	245.3741	-8.380365	-5.398311E-006	-0.0004696	9
	22	65	1884.191	245.8706	-41.18205	1	249.2956	-9.50848	4.16413E-007	0.0002188	9
	23	67	1516.544	248.8988	-47.10678	1	253.3174	-10.71708	-8.045415E-006	-0.0007035	9
	24	70	1193.986	252.8596	-54.51833	1	258.6702	-12.16712	-4.586958E-006	-0.0003405	9
	25	72	946.5144	257.2889	-63.13831	1	264.9227	-13.78784	-6.714085E-006	-0.0005989	9
	26	74	751.7689	262.4384	-73.02077	1	272.4077	-15.54867	-5.208973E-006	-0.0004319	9
	27	77	597.4265	268.4983	-84.76153	1	281.5597	-17.52025	5.266948E-006	0.0007418	9
	28	79	477.4305	275.0333	-98.3136	1	292.0768	-19.66996	-7.052956E-007	7.267232E-005	9
	29	81	376.6741	283.3175	-115.323	1	305.8892	-22.14854	-6.053822E-007	7.00687E-005	9
	30	84	298.2954	292.9469	-135.2693	1	322.6696	-24.78531	-5.939078E-007	6.974712E-005	9
	31	86	237.7717	304.0005	-158.2363	1	342.7171	-27.49757	-6.584352E-007	6.917128E-005	9
	32	89	189.0121	317.3583	-185.6352	1	367.6639	-30.32503	-5.881671E-007	6.917542E-005	9
	33	91	150.2404	331.8354	-217.0203	1	396.5004	-33.18468	-1.607336E-007	0.0006417	8
	34	93	119.1737	351.0369	-255.1811	1	433.9865	-36.01472	-1.46191E-007	0.0006407	8
	35	96	95.0169	373.3693	-298.9844	1	478.3265	-38.68684	-1.350644E-007	0.000645	8
	36	98	75.60484	400.4121	-350.5946	1	532.209	-41.20488	-1.281445E-007	0.0006394	8
	37	101	54.50582	449.2155	-439.6282	1	628.5439	-44.38202	-1.282327E-007	0.0006394	8
	38	103	45.95588	480.34	-493.9568	1	688.9991	-45.80072	-3.794871E-008	0.0006457	8
	39	106	37.20238	525.5898	-570.2052	1	775.4861	-47.33151	-4.902936E-008	0.0006456	8
	40	108	30.04808	580.2499	-658.0405	1	877.3296	-48.59465	-6.639134E-008	0.0006417	8
	41	110	23.91582	651.438	-764.4208	1	1004.346	-49.56243	-1.166445E-007	0.0006412	8
	42	113	18.60119	748.178	-897.638	1	1168.557	-50.18892	-1.203699E-007	0.0006476	8
	43	115	15.02404	848.2283	-1023.63	1	1329.402	-50.35325	-2.683572E-008	0.0006357	8
	44	117	12.01923	972.2	-1165.744	1	1517.936	-50.17277	2.445773E-009	0.0006125	8
	45	120	9.450605	1131.979	-1330.116	1	1746.593	-49.60096	-9.74587E-008	0.0006544	8
	46	123	7.512019	1312.997	-1493.352	1	1988.482	-48.67715	-8.121139E-008	0.0006338	8
	47	126	5.978954	1517.238	-1652.506	1	2243.387	-47.44359	-7.967473E-008	0.0006492	8
	48	130	4.734848	1757.988	-1817.468	1	2528.579	-45.95306	-6.885824E-008	0.0006437	8
	49	135	3.75601	2023.026	-1974.713	1	2827.034	-44.30762	-1.335097E-007	0.0006298	8
	50	141	3.004808	2303.351	-2119.073	1	3129.839	-42.61393	-1.457353E-007	0.0006724	8
	51	147	2.372217	2640.849	-2271.641	1	3483.452	-40.7019	-9.332508E-008	0.000726	8
	52	151	1.878005	2951.602	-2357.201	1	3777.347	-38.61148	-1.778471E-007	0.0006212	8
	53	160	1.512097	3283.483	-2469.185	1	4108.301	-36.94323	-1.525564E-007	0.0006654	7
	54	171	1.201923	3645.86	-2558.196	1	4453.836	-35.05625	-1.553022E-007	0.0005875	7
	55	184	0.956633	4034.011	-2639.401	1	4820.755	-33.19621	-3.164918E-007	-3.359131E-005	7
