EXPLAIN
TAG	EISPOT
TITLE	LABEL	Potentiostatic EIS	Test Identifier
DATE	LABEL	8/31/2020	Date
TIME	LABEL	16:07:13	Time
NOTES	NOTES	1	Notes...
	
PSTAT	PSTAT	REF3000-16137	Potentiostat
VDC	POTEN	0.00000E+000	T	DC Voltage (V)
FREQINIT	QUANT	3.00000E+005	Initial Freq. (Hz)
FREQFINAL	QUANT	1.00000E+000	Final Freq. (Hz)
PTSPERDEC	QUANT	1.00000E+001	Points/decade
VAC	QUANT	5.00000E+001	AC Voltage (mV rms)
AREA	QUANT	1.00000E+000	Sample Area (cm^2)
SPEED	SELECTOR	2	Optimize for:
ZGUESS	QUANT	1.00000E+003	Estimated Z (ohms)
EOC	QUANT	0	Open Circuit (V)
SEQUENCER	TOGGLE	TRUE	Run as Sequence
PSTATMODEL	IQUANT	5	Pstat Model
PSTATSECTION	LABEL	REF3000-16137	Pstat Section
PSTATSERIALNO	LABEL	16137	Pstat Serial Number
CTRLMODE	IQUANT	1	Control Mode
IESTAB	IQUANT	0	I/E Stability
CASPEED	IQUANT	1	Control Amp Speed
CONVENTION	IQUANT	1	Current Convention
ICHRANGE	IQUANT	2	Ich Range
ICHRANGEMODE	TOGGLE	F	Ich Auto Range
ICHOFFSETENABLE	TOGGLE	T	Ich Offset Enable
ICHOFFSET	QUANT	0	Ich Offset (V)
ICHFILTER	IQUANT	3	Ich Filter
VCHRANGE	IQUANT	2	Vch Range
VCHRANGEMODE	TOGGLE	F	Vch Auto Range
VCHOFFSETENABLE	TOGGLE	T	Vch Offset Enable
VCHOFFSET	QUANT	0	Vch Offset (V)
VCHFILTER	IQUANT	3	Vch Filter
ACHRANGE	IQUANT	2	Ach Range
ACHOFFSETENABLE	TOGGLE	F	Ach Offset Enable
ACHOFFSET	QUANT	0	Ach Offset (V)
ACHFILTER	IQUANT	3	Ach Filter
IERANGELOWERLIMIT	IQUANT	2	I/E Range Lower Limit
IERANGEMODE	TOGGLE	F	I/E AutoRange
IERANGE	IQUANT	11	I/E Range
POSFEEDENABLE	TOGGLE	F	Positive Feedback IR Comp
POSFEEDRESISTANCE	QUANT	0	Positive Feedback Resistance (ohm)
ACHSELECT	IQUANT	0	Ach Select
CABLEID	IQUANT	13	Cable ID
DCCALDATE	LABEL	7/31/2020	DC Calibration Date
ACCALDATE	LABEL	7/31/2020	AC Calibration Date
THERMOSELECT	IQUANT	1	Thermo Select
FRAMEWORKVERSION	QUANT	6.33	Framework Version
INSTRUMENTVERSION	LABEL	3.50	Instrument Version
COMPLIANCEVOLTAGE	IQUANT	0	Compliance Voltage
ZCURVE	TABLE
	Pt	Time	Freq	Zreal	Zimag	Zsig	Zmod	Zphz	Idc	Vdc	IERange
	#	s	Hz	ohm	ohm	V	ohm	°	A	V	#
	0	5	300046.9	186.8628	-12.37228	1	187.272	-3.788054	-4.956335E-006	-0.000656	9
	1	8	238359.4	186.6368	-10.53783	1	186.934	-3.231585	1.436313E-005	0.0011431	9
	2	11	189328.1	186.8642	-9.329757	1	187.097	-2.85829	-1.869702E-005	-0.0015909	9
	3	14	150421.9	186.9229	-7.833004	1	187.0869	-2.399576	9.681707E-006	0.0008711	9
	4	16	119484.4	186.8253	-7.299022	1	186.9678	-2.237334	2.959026E-005	0.0012425	9
	5	19	94921.88	186.6839	-6.519955	1	186.7977	-2.000249	6.138446E-006	0.0006854	9
	6	21	75421.88	186.5741	-6.458064	1	186.6859	-1.98244	2.710521E-006	0.0003353	9
	7	24	59859.37	186.526	-6.530478	1	186.6403	-2.005168	-6.999081E-006	-0.0005497	9
	8	26	47578.12	186.5813	-6.779761	1	186.7044	-2.081028	5.072248E-007	0.0002158	9
	9	29	37828.12	186.6383	-7.259059	1	186.7794	-2.227323	5.752814E-006	0.0006638	9
	10	31	30046.88	186.8609	-7.943577	1	187.0296	-2.434215	6.328391E-006	0.0007411	9
	11	34	23859.38	187.1335	-8.937219	1	187.3468	-2.734284	-2.549091E-006	-0.0002994	9
	12	36	18984.38	187.612	-10.09203	1	187.8833	-3.079088	-7.224569E-006	-0.0005638	9
	13	38	15046.87	188.1532	-11.46645	1	188.5022	-3.487413	3.131151E-006	0.0003827	9
	14	41	11953.13	189.0267	-13.19074	1	189.4864	-3.991768	6.221526E-006	0.0007428	9
	15	43	9515.62	190.0515	-15.08207	1	190.649	-4.537359	5.734221E-006	0.000662	9
	16	45	7546.875	191.2437	-17.3096	1	192.0254	-5.17179	1.102645E-006	0.0001538	9
	17	48	5928.309	192.7937	-20.03381	1	193.8318	-5.932496	4.990453E-006	0.0006256	9
	18	50	4733.456	194.4699	-22.9107	1	195.8148	-6.719103	4.832498E-006	0.0006005	9
	19	52	3796.875	196.3996	-26.13319	1	198.1307	-7.579328	-7.20457E-006	-0.0005459	9
	20	55	2987.132	198.8979	-30.22575	1	201.1815	-8.640907	6.400261E-007	0.0002142	9
	21	57	2390.625	201.4793	-34.59956	1	204.4286	-9.74422	7.131686E-006	0.0008105	9
	22	59	1884.191	204.6436	-39.96029	1	208.5085	-11.04899	-2.409804E-006	-8.735994E-005	9
	23	61	1516.544	207.9065	-45.73259	1	212.8769	-12.40562	-4.777112E-006	-0.0003161	9
	24	64	1193.986	212.0278	-53.14758	1	218.5874	-14.07201	1.417748E-006	0.0001782	9
	25	66	946.5144	216.5991	-61.6225	1	225.1943	-15.88107	6.963809E-006	0.0007705	9
	26	69	751.7689	221.9106	-71.59802	1	233.175	-17.88196	-2.601585E-006	-0.0002877	9
	27	71	597.4265	227.7332	-83.4069	1	242.5265	-20.11517	6.254023E-006	0.0006907	9
	28	73	477.4305	234.4599	-97.1993	1	253.8092	-22.51727	-4.407075E-007	3.577204E-005	9
	29	75	376.6741	242.7873	-114.5059	1	268.4348	-25.25	-4.024383E-007	6.702145E-005	9
	30	78	298.2954	252.4848	-134.8112	1	286.2213	-28.09944	-4.743333E-007	7.709078E-005	9
	31	80	237.7717	263.6565	-158.2526	1	307.5038	-30.97313	-4.083332E-007	6.688878E-005	9
	32	83	189.0121	277.1761	-186.1793	1	333.9001	-33.88928	-3.737019E-007	6.962479E-005	9
	33	85	150.2404	293.3109	-219.0989	1	366.1088	-36.75918	-3.650176E-007	6.779181E-005	9
	34	87	119.1737	311.6194	-256.9482	1	403.8924	-39.50755	-6.759377E-008	0.0006512	8
	35	90	95.0169	334.2253	-301.408	1	450.0592	-42.04448	-5.478568E-008	0.0006467	8
	36	92	75.60484	361.7175	-353.7969	1	505.9761	-44.36577	-7.525095E-008	0.0006439	8
	37	95	54.50582	411.1224	-444.1369	1	605.2101	-47.21061	-4.508506E-008	0.0006382	8
	38	97	45.95588	442.7715	-499.1674	1	667.2441	-48.42634	4.283397E-008	0.000648	8
	39	100	37.20238	488.5374	-576.4804	1	755.6444	-49.72044	5.594244E-008	0.000644	8
	40	102	30.04808	543.9557	-665.9982	1	859.9078	-50.75968	-3.730516E-008	0.0006521	8
	41	105	23.91582	616.0024	-773.326	1	988.682	-51.46049	1.069E-007	0.0006492	8
	42	107	18.60119	714.0787	-909.3693	1	1156.227	-51.85936	9.541845E-009	0.0006526	8
	43	109	15.02404	814.2687	-1037.559	1	1318.924	-51.87543	1.078018E-007	0.0006497	8
	44	112	12.01923	940.8737	-1182.562	1	1511.191	-51.49343	1.478051E-007	0.0006447	8
	45	114	9.450605	1102.506	-1352.225	1	1744.716	-50.80871	3.990667E-008	0.0006584	8
	46	117	7.512019	1287.227	-1521.958	1	1993.316	-49.77645	8.918404E-009	0.0006485	8
	47	120	5.978954	1495.654	-1690.308	1	2257.016	-48.49627	1.395912E-009	0.0006516	8
	48	124	4.734848	1742.968	-1864.598	1	2552.383	-46.931	2.704056E-008	0.0006462	8
	49	129	3.75601	2016.268	-2033.853	1	2863.895	-45.24876	-5.036019E-008	0.0006284	8
	50	135	3.004808	2308.208	-2189.687	1	3181.596	-43.49058	-3.480905E-008	0.0006682	8
	51	141	2.372217	2656.982	-2352.933	1	3549.063	-41.52702	-2.002069E-008	0.000721	8
	52	145	1.878005	2998.919	-2462.651	1	3880.485	-39.39214	-1.1307E-007	0.0005999	7
	53	154	1.512097	3342.025	-2580.6	1	4222.396	-37.67413	-1.110336E-007	0.0006312	7
	54	165	1.201923	3729.966	-2681.435	1	4593.771	-35.71198	-1.228868E-007	0.0005832	7
	55	178	0.956633	4141.314	-2769.473	1	4982.014	-33.77234	-2.502557E-007	-1.974655E-005	7
