EXPLAIN
TAG	EISPOT
TITLE	LABEL	Potentiostatic EIS	Test Identifier
DATE	LABEL	8/31/2020	Date
TIME	LABEL	15:43:16	Time
NOTES	NOTES	1	Notes...
	
PSTAT	PSTAT	REF3000-16137	Potentiostat
VDC	POTEN	0.00000E+000	T	DC Voltage (V)
FREQINIT	QUANT	3.00000E+005	Initial Freq. (Hz)
FREQFINAL	QUANT	1.00000E+000	Final Freq. (Hz)
PTSPERDEC	QUANT	1.00000E+001	Points/decade
VAC	QUANT	5.00000E+001	AC Voltage (mV rms)
AREA	QUANT	1.00000E+000	Sample Area (cm^2)
SPEED	SELECTOR	2	Optimize for:
ZGUESS	QUANT	1.00000E+003	Estimated Z (ohms)
EOC	QUANT	0	Open Circuit (V)
SEQUENCER	TOGGLE	TRUE	Run as Sequence
PSTATMODEL	IQUANT	5	Pstat Model
PSTATSECTION	LABEL	REF3000-16137	Pstat Section
PSTATSERIALNO	LABEL	16137	Pstat Serial Number
CTRLMODE	IQUANT	1	Control Mode
IESTAB	IQUANT	0	I/E Stability
CASPEED	IQUANT	1	Control Amp Speed
CONVENTION	IQUANT	1	Current Convention
ICHRANGE	IQUANT	2	Ich Range
ICHRANGEMODE	TOGGLE	F	Ich Auto Range
ICHOFFSETENABLE	TOGGLE	T	Ich Offset Enable
ICHOFFSET	QUANT	0	Ich Offset (V)
ICHFILTER	IQUANT	3	Ich Filter
VCHRANGE	IQUANT	2	Vch Range
VCHRANGEMODE	TOGGLE	F	Vch Auto Range
VCHOFFSETENABLE	TOGGLE	T	Vch Offset Enable
VCHOFFSET	QUANT	0	Vch Offset (V)
VCHFILTER	IQUANT	3	Vch Filter
ACHRANGE	IQUANT	2	Ach Range
ACHOFFSETENABLE	TOGGLE	F	Ach Offset Enable
ACHOFFSET	QUANT	0	Ach Offset (V)
ACHFILTER	IQUANT	3	Ach Filter
IERANGELOWERLIMIT	IQUANT	2	I/E Range Lower Limit
IERANGEMODE	TOGGLE	F	I/E AutoRange
IERANGE	IQUANT	11	I/E Range
POSFEEDENABLE	TOGGLE	F	Positive Feedback IR Comp
POSFEEDRESISTANCE	QUANT	0	Positive Feedback Resistance (ohm)
ACHSELECT	IQUANT	0	Ach Select
CABLEID	IQUANT	13	Cable ID
DCCALDATE	LABEL	7/31/2020	DC Calibration Date
ACCALDATE	LABEL	7/31/2020	AC Calibration Date
THERMOSELECT	IQUANT	1	Thermo Select
FRAMEWORKVERSION	QUANT	6.33	Framework Version
INSTRUMENTVERSION	LABEL	3.50	Instrument Version
COMPLIANCEVOLTAGE	IQUANT	0	Compliance Voltage
ZCURVE	TABLE
	Pt	Time	Freq	Zreal	Zimag	Zsig	Zmod	Zphz	Idc	Vdc	IERange
	#	s	Hz	ohm	ohm	V	ohm	°	A	V	#
	0	30	300046.9	257.2801	-4730.977	1	4737.967	-86.88721	-9.444093E-005	0.0021558	9
	1	44	238359.4	742.1836	-5478.403	1	5528.448	-82.28486	2.604392E-005	0.0009795	9
	2	61	189328.1	1278.176	-6915.503	1	7032.633	-79.52833	-1.551418E-005	0.0017402	9
	3	68	150421.9	1905.35	-8687.704	1	8894.187	-77.62998	-2.054779E-005	0.0011804	9
	4	76	119484.4	3250.884	-10284.77	1	10786.32	-72.45892	-3.171939E-005	-0.0058365	8
	5	84	94921.88	5253.415	-11857.06	1	12968.74	-66.10368	8.886693E-006	0.004095	8
	6	93	75421.88	7647.407	-13274.94	1	15320.15	-60.05469	8.917377E-006	0.0039884	8
	7	101	59859.37	10745.78	-13695.95	1	17408.35	-51.88243	1.578324E-005	-0.009236	8
	8	109	47578.12	15994.38	-12792.77	1	20481.1	-38.65384	5.417419E-006	-0.0265346	7
	9	116	37828.12	18168.48	-11265.76	1	21377.82	-31.80188	-5.176836E-006	0.0032634	7
	10	122	30046.88	19508.5	-9373.306	1	21643.48	-25.66302	4.284071E-007	0.0161225	7
	11	128	23859.38	20222.01	-7474.862	1	21559.3	-20.28632	-7.185571E-006	0.0181154	7
	12	133	18984.38	20487.69	-6136.356	1	21386.92	-16.67371	-1.610792E-006	0.0216093	7
	13	137	15046.87	20221.11	-5020.161	1	20834.96	-13.94256	1.41934E-006	-0.0198975	7
	14	141	11953.13	19816.62	-4012.768	1	20218.82	-11.44733	-5.291376E-006	0.026111	7
	15	145	9515.62	19370.46	-3371.48	1	19661.68	-9.87357	-3.773645E-006	0.0250561	7
	16	150	7546.875	18980.08	-2943.188	1	19206.92	-8.814491	3.266382E-006	-0.0239097	7
	17	154	5928.309	18300.85	-2496.728	1	18470.38	-7.768722	-3.783353E-006	0.0249553	7
	18	158	4733.456	17720.96	-2427.642	1	17886.47	-7.80055	-5.285394E-006	0.0259418	7
	19	162	3796.875	17178.14	-2183.219	1	17316.32	-7.243054	-3.774514E-006	0.0249321	7
	20	167	2987.132	16719.91	-2301.957	1	16877.63	-7.839064	-3.124701E-006	-0.005542	7
	21	171	2390.625	16128.77	-2222.784	1	16281.22	-7.846781	-6.410005E-006	0.0111119	7
	22	175	1884.191	15859.99	-2336.217	1	16031.13	-8.379555	-8.474453E-007	-0.0133148	7
	23	179	1516.544	15258.81	-2468.19	1	15457.15	-9.188297	7.251359E-006	-0.017257	7
	24	184	1193.986	15165.56	-2761.546	1	15414.94	-10.3201	-3.727667E-006	0.0245354	7
	25	188	946.5144	15304.5	-3024.541	1	15600.49	-11.17899	3.505796E-006	-0.0235595	7
	26	191	751.7689	14857.6	-3408.025	1	15243.45	-12.91899	-6.952269E-006	0.0222591	7
	27	194	597.4265	15074.43	-3413.469	1	15456.07	-12.75894	3.531078E-006	-0.0236954	7
	28	196	477.4305	14231.45	-3794.356	1	14728.59	-14.92879	7.41093E-008	0.0006066	7
	29	198	376.6741	14563.7	-4087.952	1	15126.55	-15.67915	4.727585E-008	0.000609	7
	30	201	298.2954	14968.91	-4382.225	1	15597.18	-16.31766	4.963008E-008	0.0006144	7
	31	203	237.7717	15408.66	-4674.536	1	16102.12	-16.87626	4.904841E-008	0.0006252	7
	32	206	189.0121	15889.72	-4945.288	1	16641.49	-17.28748	3.002746E-008	0.0006283	7
	33	208	150.2404	16432.26	-5219.761	1	17241.38	-17.62262	2.767159E-008	0.000626	7
	34	210	119.1737	17029.86	-5494.461	1	17894.28	-17.88162	2.227328E-008	0.0006187	7
	35	213	95.0169	17632.9	-5742.767	1	18544.5	-18.03964	2.06104E-008	0.0006254	7
	36	215	75.60484	18255.6	-5959.456	1	19203.7	-18.07903	1.977142E-008	0.0006279	7
	37	218	54.50582	19302.94	-6243.439	1	20287.53	-17.92354	2.257505E-008	0.0006137	7
	38	220	45.95588	19727.7	-6310.333	1	20712.38	-17.738	2.375984E-008	0.0006306	7
	39	223	37.20238	20328.08	-6378.565	1	21305.33	-17.42086	2.267856E-008	0.0006236	7
	40	225	30.04808	20907.71	-6409.436	1	21868.09	-17.04336	2.710122E-008	0.000627	7
	41	228	23.91582	21511.47	-6411.779	1	22446.7	-16.59739	2.227698E-008	0.0005825	7
	42	230	18.60119	22177.97	-6437.317	1	23093.32	-16.18575	3.157732E-008	0.000623	7
	43	232	15.02404	22660.4	-6446.149	1	23559.42	-15.87934	2.039201E-008	0.0006227	7
	44	235	12.01923	23085.31	-6468.707	1	23974.48	-15.65334	4.03615E-008	0.0006236	7
	45	237	9.450605	23567.14	-6546.94	1	24459.61	-15.52527	4.299687E-008	0.0006327	7
	46	241	7.512019	23793.96	-6597.452	1	24691.68	-15.49732	7.16235E-008	0.0006232	7
	47	243	5.978954	24130.56	-6733.285	1	25052.37	-15.59099	7.565215E-008	0.0006236	7
	48	246	4.734848	24485.94	-6903.774	1	25440.59	-15.74572	5.528069E-008	0.0006068	7
	49	250	3.75601	24768.59	-7039.454	1	25749.5	-15.86562	9.574528E-008	0.0006485	7
	50	253	3.004808	25062.65	-7148.434	1	26062.17	-15.91935	1.004056E-007	0.0006079	7
	51	257	2.372217	25306.26	-7206.164	1	26312.27	-15.89474	8.13565E-008	0.000548	7
	52	261	1.878005	25369.88	-7254.279	1	26386.65	-15.95739	1.02999E-007	0.0006318	7
	53	266	1.512097	25224.88	-7244.633	1	26244.61	-16.02416	1.106339E-007	0.0005374	7
	54	271	1.201923	24929.27	-7174.106	1	25941.02	-16.05468	8.793166E-008	0.0006484	7
	55	277	0.956633	24432.53	-7149.177	1	25457.01	-16.30995	6.479635E-008	-1.574437E-005	7
