EXPLAIN
TAG	EISPOT
TITLE	LABEL	Potentiostatic EIS	Test Identifier
DATE	LABEL	8/31/2020	Date
TIME	LABEL	15:31:22	Time
NOTES	NOTES	1	Notes...
	
PSTAT	PSTAT	REF3000-16137	Potentiostat
VDC	POTEN	0.00000E+000	T	DC Voltage (V)
FREQINIT	QUANT	3.00000E+005	Initial Freq. (Hz)
FREQFINAL	QUANT	1.00000E+000	Final Freq. (Hz)
PTSPERDEC	QUANT	1.00000E+001	Points/decade
VAC	QUANT	5.00000E+001	AC Voltage (mV rms)
AREA	QUANT	1.00000E+000	Sample Area (cm^2)
SPEED	SELECTOR	2	Optimize for:
ZGUESS	QUANT	1.00000E+003	Estimated Z (ohms)
EOC	QUANT	0	Open Circuit (V)
SEQUENCER	TOGGLE	TRUE	Run as Sequence
PSTATMODEL	IQUANT	5	Pstat Model
PSTATSECTION	LABEL	REF3000-16137	Pstat Section
PSTATSERIALNO	LABEL	16137	Pstat Serial Number
CTRLMODE	IQUANT	1	Control Mode
IESTAB	IQUANT	0	I/E Stability
CASPEED	IQUANT	1	Control Amp Speed
CONVENTION	IQUANT	1	Current Convention
ICHRANGE	IQUANT	2	Ich Range
ICHRANGEMODE	TOGGLE	F	Ich Auto Range
ICHOFFSETENABLE	TOGGLE	T	Ich Offset Enable
ICHOFFSET	QUANT	0	Ich Offset (V)
ICHFILTER	IQUANT	3	Ich Filter
VCHRANGE	IQUANT	2	Vch Range
VCHRANGEMODE	TOGGLE	F	Vch Auto Range
VCHOFFSETENABLE	TOGGLE	T	Vch Offset Enable
VCHOFFSET	QUANT	0	Vch Offset (V)
VCHFILTER	IQUANT	3	Vch Filter
ACHRANGE	IQUANT	2	Ach Range
ACHOFFSETENABLE	TOGGLE	F	Ach Offset Enable
ACHOFFSET	QUANT	0	Ach Offset (V)
ACHFILTER	IQUANT	3	Ach Filter
IERANGELOWERLIMIT	IQUANT	2	I/E Range Lower Limit
IERANGEMODE	TOGGLE	F	I/E AutoRange
IERANGE	IQUANT	11	I/E Range
POSFEEDENABLE	TOGGLE	F	Positive Feedback IR Comp
POSFEEDRESISTANCE	QUANT	0	Positive Feedback Resistance (ohm)
ACHSELECT	IQUANT	0	Ach Select
CABLEID	IQUANT	13	Cable ID
DCCALDATE	LABEL	7/31/2020	DC Calibration Date
ACCALDATE	LABEL	7/31/2020	AC Calibration Date
THERMOSELECT	IQUANT	1	Thermo Select
FRAMEWORKVERSION	QUANT	6.33	Framework Version
INSTRUMENTVERSION	LABEL	3.50	Instrument Version
COMPLIANCEVOLTAGE	IQUANT	0	Compliance Voltage
ZCURVE	TABLE
	Pt	Time	Freq	Zreal	Zimag	Zsig	Zmod	Zphz	Idc	Vdc	IERange
	#	s	Hz	ohm	ohm	V	ohm	°	A	V	#
	0	14	300046.9	-65.06807	-4816.378	1	4816.817	-90.774	8.290506E-005	-0.0036564	9
	1	28	238359.4	-14.21317	-5867.866	1	5867.883	-90.13878	2.54138E-005	-0.0016817	9
	2	42	189328.1	70.39735	-7394.25	1	7394.585	-89.45453	2.772612E-005	-0.0019524	9
	3	49	150421.9	16.59901	-9141.207	1	9141.222	-89.89596	2.708495E-005	-0.0014279	9
	4	58	119484.4	-59.66362	-11585.06	1	11585.21	-90.29507	2.405713E-005	0.001118	9
	5	67	94921.88	674.1959	-14575.26	1	14590.85	-87.35161	-8.979512E-006	-0.0022846	8
	6	74	75421.88	544.1343	-18140.47	1	18148.63	-88.28189	-1.230079E-005	0.0103027	8
	7	83	59859.37	549.5706	-22472.08	1	22478.8	-88.59907	2.294411E-005	-0.0098034	8
	8	91	47578.12	645.2635	-28872.66	1	28879.87	-88.71973	8.172133E-006	0.0043185	8
	9	101	37828.12	4035.067	-37090.09	1	37308.93	-83.79115	7.755829E-006	-0.0245505	7
	10	108	30046.88	4454.188	-46766.04	1	46977.68	-84.55933	-1.849146E-006	0.0221874	7
	11	116	23859.38	1490.942	-59760.61	1	59779.21	-88.57085	3.387364E-006	-0.0244569	7
	12	121	18984.38	4792.355	-72331.07	1	72489.66	-86.20936	7.631676E-006	-0.0184285	7
	13	127	15046.87	6312.183	-90440.34	1	90660.35	-86.00758	-6.713491E-006	0.0118582	7
	14	132	11953.13	6483.06	-114928.3	1	115111	-86.77139	6.54759E-006	-0.0098954	7
	15	137	9515.62	3028.992	-143058.8	1	143090.9	-88.78706	7.770775E-006	-0.0245041	7
	16	143	7546.875	1337.062	-176962.8	1	176967.8	-89.5671	7.747349E-006	-0.0245132	7
	17	149	5928.309	3088.905	-235394.3	1	235414.6	-89.24819	4.079509E-007	0.0166176	7
	18	154	4733.456	38346.94	-300829.9	1	303264.2	-82.73566	-7.524175E-007	0.0233397	6
	19	159	3796.875	-31154.18	-311123.7	1	312679.6	-95.7182	2.74712E-005	-0.0073906	8
	20	166	2987.132	-62924.13	-514079.8	1	517916.5	-96.9784	2.457005E-005	-0.0001796	9
	21	175	2390.625	1344506	498521.1	1	1433952	20.34397	2.241636E-005	-0.0096193	8
	22	183	1884.191	-230514.2	-283021.8	1	365018	-129.162	-2.385149E-005	0.0051599	8
	23	191	1516.544	47668.91	-600938.5	1	602826.2	-85.46456	2.738169E-005	-0.0073274	8
	24	200	1193.986	-212932.5	-233869.8	1	316283.6	-132.3171	-2.632035E-005	0.0075214	8
	25	212	946.5144	-302564	-210357	1	368503.8	-145.1911	1.682959E-005	0.0004431	8
	26	218	751.7689	-3479833	-958928	1	3609540	-164.5935	6.624593E-006	-0.009664	7
	27	224	597.4265	306901.1	-304520.6	1	432343.7	-44.77693	-2.519784E-006	0.0078969	8
	28	232	477.4305	37901.04	-2813926	1	2814181	-89.22832	-6.843405E-008	0.000596	7
	29	236	376.6741	472779.9	-3672257	1	3702566	-82.66389	-7.924452E-010	0.0006203	5
	30	239	298.2954	491440.7	-4579436	1	4605730	-83.87476	-8.044597E-010	0.0006829	5
	31	242	237.7717	484420.2	-5801338	1	5821528	-85.22679	-7.895695E-010	0.0005941	5
	32	245	189.0121	568748	-7103667	1	7126399	-85.42243	-7.498679E-010	0.0006065	5
	33	248	150.2404	370653.5	-8762038	1	8769874	-87.57771	-8.567985E-010	0.0006875	5
	34	251	119.1737	-109713.4	-8613187	1	8613886	-90.72978	-8.317067E-010	0.0006826	5
	35	253	95.0169	794828.3	-1.418772E+007	1	1.420996E+007	-86.79351	-8.28931E-010	0.000619	5
	36	256	75.60484	1186166	-1.80819E+007	1	1.812077E+007	-86.2468	-8.975995E-010	0.0006815	5
	37	259	54.50582	963399	-2.468863E+007	1	2.470742E+007	-87.76534	-8.562234E-010	0.0006811	5
	38	262	45.95588	-43962.1	-2.943621E+007	1	2.943624E+007	-90.08557	-8.08787E-010	0.0006428	5
	39	266	37.20238	2383520	-3.302553E+007	1	3.311143E+007	-85.872	-8.755706E-010	0.0006178	5
	40	270	30.04808	389512.4	-4.379862E+007	1	4.380036E+007	-89.49047	-8.260069E-010	0.0006203	5
	41	274	23.91582	9.567146E+006	-5.499082E+007	1	5.581685E+007	-80.13063	-2.865441E-011	0.0006075	4
	42	278	18.60119	1.177954E+007	-7.261718E+007	1	7.356638E+007	-80.78607	-7.692638E-011	0.0006916	4
	43	281	15.02404	5999279	-8.672587E+007	1	8.693313E+007	-86.04285	-7.14758E-011	0.0006127	4
	44	285	12.01923	3238939	-1.060781E+008	1	1.061275E+008	-88.2511	-6.278292E-011	0.000675	4
	45	289	9.450605	-925752.9	-1.337823E+008	1	1.337855E+008	-90.39647	-8.548027E-011	0.0006001	4
	46	293	7.512019	1.05445E+007	-1.677986E+008	1	1.681296E+008	-86.40425	-7.973092E-011	0.0006585	4
	47	297	5.978954	1.137692E+007	-2.186172E+008	1	2.18913E+008	-87.021	-6.722831E-011	0.0006181	4
	48	303	4.734848	4.398909E+007	-2.868222E+008	1	2.901758E+008	-81.28065	-7.240721E-012	0.0007911	3
	49	307	3.75601	1.526721E+007	-3.420077E+008	1	3.423483E+008	-87.44402	-7.892308E-010	0.0006107	5
	50	316	3.004808	2.702072E+007	-3.94042E+008	1	3.949673E+008	-86.07719	-8.268398E-010	0.0006967	5
	51	325	2.372217	5.571778E+007	-5.459319E+008	1	5.487678E+008	-84.17257	-5.25746E-012	0.0006481	3
	52	331	1.878005	5.294978E+007	-6.914545E+008	1	6.934789E+008	-85.62099	-6.174965E-012	0.0007212	3
	53	340	1.512097	5.78795E+007	-8.518491E+008	1	8.538132E+008	-86.11297	-6.60954E-012	0.000648	3
	54	347	1.201923	5.472984E+007	-1.075361E+009	1	1.076753E+009	-87.08648	-6.607805E-012	0.0007465	3
	55	360	0.956633	7.118912E+007	-1.332161E+009	1	1.334062E+009	-86.94109	-6.653191E-012	7.996502E-005	3
