EXPLAIN
TAG	EISPOT
TITLE	LABEL	Potentiostatic EIS	Test Identifier
DATE	LABEL	8/31/2020	Date
TIME	LABEL	13:58:32	Time
NOTES	NOTES	1	Notes...
	
PSTAT	PSTAT	REF3000-16137	Potentiostat
VDC	POTEN	0.00000E+000	T	DC Voltage (V)
FREQINIT	QUANT	3.00000E+005	Initial Freq. (Hz)
FREQFINAL	QUANT	1.00000E+000	Final Freq. (Hz)
PTSPERDEC	QUANT	1.00000E+001	Points/decade
VAC	QUANT	5.00000E+001	AC Voltage (mV rms)
AREA	QUANT	1.00000E+000	Sample Area (cm^2)
SPEED	SELECTOR	2	Optimize for:
ZGUESS	QUANT	1.00000E+003	Estimated Z (ohms)
EOC	QUANT	0	Open Circuit (V)
SEQUENCER	TOGGLE	TRUE	Run as Sequence
PSTATMODEL	IQUANT	5	Pstat Model
PSTATSECTION	LABEL	REF3000-16137	Pstat Section
PSTATSERIALNO	LABEL	16137	Pstat Serial Number
CTRLMODE	IQUANT	1	Control Mode
IESTAB	IQUANT	0	I/E Stability
CASPEED	IQUANT	1	Control Amp Speed
CONVENTION	IQUANT	1	Current Convention
ICHRANGE	IQUANT	2	Ich Range
ICHRANGEMODE	TOGGLE	F	Ich Auto Range
ICHOFFSETENABLE	TOGGLE	T	Ich Offset Enable
ICHOFFSET	QUANT	0	Ich Offset (V)
ICHFILTER	IQUANT	3	Ich Filter
VCHRANGE	IQUANT	2	Vch Range
VCHRANGEMODE	TOGGLE	F	Vch Auto Range
VCHOFFSETENABLE	TOGGLE	T	Vch Offset Enable
VCHOFFSET	QUANT	0	Vch Offset (V)
VCHFILTER	IQUANT	3	Vch Filter
ACHRANGE	IQUANT	2	Ach Range
ACHOFFSETENABLE	TOGGLE	F	Ach Offset Enable
ACHOFFSET	QUANT	0	Ach Offset (V)
ACHFILTER	IQUANT	3	Ach Filter
IERANGELOWERLIMIT	IQUANT	2	I/E Range Lower Limit
IERANGEMODE	TOGGLE	F	I/E AutoRange
IERANGE	IQUANT	11	I/E Range
POSFEEDENABLE	TOGGLE	F	Positive Feedback IR Comp
POSFEEDRESISTANCE	QUANT	0	Positive Feedback Resistance (ohm)
ACHSELECT	IQUANT	0	Ach Select
CABLEID	IQUANT	13	Cable ID
DCCALDATE	LABEL	7/31/2020	DC Calibration Date
ACCALDATE	LABEL	7/31/2020	AC Calibration Date
THERMOSELECT	IQUANT	1	Thermo Select
FRAMEWORKVERSION	QUANT	6.33	Framework Version
INSTRUMENTVERSION	LABEL	3.50	Instrument Version
COMPLIANCEVOLTAGE	IQUANT	0	Compliance Voltage
ZCURVE	TABLE
	Pt	Time	Freq	Zreal	Zimag	Zsig	Zmod	Zphz	Idc	Vdc	IERange
	#	s	Hz	ohm	ohm	V	ohm	°	A	V	#
	0	15	300046.9	1217.795	-1137.545	1	1666.443	-43.04858	-3.005642E-006	-0.0003761	9
	1	25	238359.4	1459.202	-1109.832	1	1833.302	-37.2557	5.156072E-006	0.0015601	9
	2	33	189328.1	1676.052	-1049.342	1	1977.44	-32.04984	-8.927786E-006	-0.0015786	9
	3	40	150421.9	1878.798	-973.447	1	2116.006	-27.38967	-7.458987E-006	-0.0019556	9
	4	46	119484.4	2043.307	-848.1182	1	2212.331	-22.54193	4.425471E-006	0.0001673	8
	5	50	94921.88	2170.026	-726.5603	1	2288.428	-18.51139	-1.56456E-006	0.0004956	8
	6	53	75421.88	2265.381	-618.9877	1	2348.424	-15.28234	-2.639485E-006	0.0006993	8
	7	55	59859.37	2333.772	-515.8254	1	2390.098	-12.4635	-2.791748E-007	0.0005619	8
	8	58	47578.12	2387.3	-436.4349	1	2426.866	-10.36014	-3.567383E-006	0.0006991	8
	9	61	37828.12	2427.539	-366.0384	1	2454.981	-8.574792	-2.06184E-006	0.000559	8
	10	65	30046.88	2468.699	-305.8254	1	2487.57	-7.061891	5.248213E-008	0.0006796	8
	11	68	23859.38	2486.01	-264.3529	1	2500.026	-6.069807	-2.041045E-006	0.000542	8
	12	72	18984.38	2518.131	-225.0729	1	2528.17	-5.107577	1.76269E-007	0.0005596	8
	13	75	15046.87	2537.747	-199.7547	1	2545.597	-4.500665	-3.556322E-006	0.0006714	8
	14	79	11953.13	2561.057	-176.9714	1	2567.164	-3.952909	-2.080675E-006	0.0007807	8
	15	81	9515.62	2578.278	-157.8781	1	2583.107	-3.50407	-1.765177E-006	0.0007435	8
	16	85	7546.875	2595.058	-149.0792	1	2599.336	-3.287877	-3.535534E-006	0.0007722	8
	17	88	5928.309	2616.56	-150.3124	1	2620.874	-3.287832	-3.27636E-006	0.0007494	8
	18	92	4733.456	2633.432	-153.4153	1	2637.897	-3.3341	-3.21484E-006	0.0007503	8
	19	94	3796.875	2658.07	-151.6257	1	2662.391	-3.264814	-3.108016E-006	0.0006875	8
	20	97	2987.132	2682.393	-164.6546	1	2687.442	-3.512607	1.861642E-006	0.0006137	8
	21	100	2390.625	2700.499	-182.7565	1	2706.676	-3.871593	8.426509E-007	0.0005434	8
	22	103	1884.191	2725.653	-208.2264	1	2733.595	-4.368629	-1.798632E-006	0.0007229	8
	23	105	1516.544	2760.372	-218.0412	1	2768.97	-4.516404	-9.852001E-007	0.0006891	8
	24	108	1193.986	2789.732	-255.3016	1	2801.39	-5.228842	-2.539005E-006	0.0007592	8
	25	111	946.5144	2826.375	-284.2895	1	2840.637	-5.743748	-3.190182E-006	0.0006751	8
	26	113	751.7689	2865.741	-323.8816	1	2883.985	-6.448119	-2.527979E-006	0.0006832	8
	27	115	597.4265	2916.474	-367.1027	1	2939.487	-7.174211	8.683068E-007	0.0005405	8
	28	118	477.4305	2960.114	-408.2102	1	2988.128	-7.851768	-6.947187E-007	0.0006546	8
	29	120	376.6741	3016.714	-461.949	1	3051.878	-8.706068	-6.973132E-007	0.0006443	8
	30	122	298.2954	3076.191	-522.0875	1	3120.181	-9.63239	-6.914316E-007	0.000654	8
	31	125	237.7717	3139.066	-589.4898	1	3193.937	-10.63579	-6.906965E-007	0.0006461	8
	32	127	189.0121	3206.3	-668.7704	1	3275.303	-11.78184	-6.931045E-007	0.0006514	8
	33	129	150.2404	3278.486	-762.9391	1	3366.088	-13.10019	-6.813886E-007	0.000649	8
	34	132	119.1737	3357.435	-876.9602	1	3470.076	-14.63857	-6.791115E-007	0.0006534	8
	35	134	95.0169	3441.422	-1010.848	1	3586.809	-16.36908	-6.861315E-007	0.0006513	8
	36	137	75.60484	3536.226	-1173	1	3725.697	-18.35118	-6.891388E-007	0.000652	8
	37	139	54.50582	3696.921	-1465.661	1	3976.857	-21.62608	-9.606308E-008	0.0006207	7
	38	142	45.95588	3794.662	-1650.366	1	4138.015	-23.50508	-1.054879E-007	0.0006276	7
	39	144	37.20238	3926.874	-1916.793	1	4369.718	-26.01801	-8.232922E-008	0.0006291	7
	40	146	30.04808	4081.702	-2235.377	1	4653.73	-28.70768	-1.043848E-007	0.0006309	7
	41	149	23.91582	4274.36	-2640.692	1	5024.282	-31.7077	-1.169033E-007	0.0006273	7
	42	151	18.60119	4533.197	-3180.736	1	5537.775	-35.05557	-1.415895E-007	0.000639	7
	43	154	15.02404	4805.138	-3720.52	1	6077.139	-37.74989	-1.241162E-007	0.0006223	7
	44	156	12.01923	5147.699	-4390.902	1	6766.005	-40.46363	-6.15839E-008	0.0006253	7
	45	158	9.450605	5601.181	-5234.517	1	7666.381	-43.06193	-7.770525E-008	0.0006143	7
	46	161	7.512019	6138.785	-6166.96	1	8701.499	-45.13118	-6.660356E-008	0.0006214	7
	47	164	5.978954	6786.225	-7242.953	1	9925.38	-46.86464	-7.102115E-008	0.0006275	7
	48	167	4.734848	7596.803	-8501.673	1	11401.31	-48.21712	-8.118815E-008	0.0006285	7
	49	170	3.75601	8550.356	-9928.44	1	13102.76	-49.26501	-8.185267E-008	0.0006216	7
	50	173	3.004808	9627.3	-11493.31	1	14992.7	-50.04897	-9.348815E-008	0.0006522	7
	51	177	2.372217	11019.87	-13369.96	1	17326.09	-50.50376	-7.49931E-008	0.0006877	7
	52	181	1.878005	12609.44	-15489.92	1	19973.37	-50.85297	-8.037915E-008	0.0006	7
	53	186	1.512097	14372.78	-17778.45	1	22861.54	-51.0466	-8.402156E-008	0.0007164	7
	54	197	1.201923	16617.82	-20599.67	1	26466.92	-51.10677	-8.456795E-008	0.0006011	7
	55	210	0.956633	19244.37	-23775.5	1	30587.91	-51.0126	-9.561632E-008	-1.504784E-005	7
