EXPLAIN
TAG	EISPOT
TITLE	LABEL	Potentiostatic EIS	Test Identifier
DATE	LABEL	8/31/2020	Date
TIME	LABEL	13:51:47	Time
NOTES	NOTES	1	Notes...
	
PSTAT	PSTAT	REF3000-16137	Potentiostat
VDC	POTEN	0.00000E+000	T	DC Voltage (V)
FREQINIT	QUANT	3.00000E+005	Initial Freq. (Hz)
FREQFINAL	QUANT	1.00000E+000	Final Freq. (Hz)
PTSPERDEC	QUANT	1.00000E+001	Points/decade
VAC	QUANT	5.00000E+001	AC Voltage (mV rms)
AREA	QUANT	1.00000E+000	Sample Area (cm^2)
SPEED	SELECTOR	2	Optimize for:
ZGUESS	QUANT	1.00000E+003	Estimated Z (ohms)
EOC	QUANT	0	Open Circuit (V)
SEQUENCER	TOGGLE	TRUE	Run as Sequence
PSTATMODEL	IQUANT	5	Pstat Model
PSTATSECTION	LABEL	REF3000-16137	Pstat Section
PSTATSERIALNO	LABEL	16137	Pstat Serial Number
CTRLMODE	IQUANT	1	Control Mode
IESTAB	IQUANT	0	I/E Stability
CASPEED	IQUANT	1	Control Amp Speed
CONVENTION	IQUANT	1	Current Convention
ICHRANGE	IQUANT	2	Ich Range
ICHRANGEMODE	TOGGLE	F	Ich Auto Range
ICHOFFSETENABLE	TOGGLE	T	Ich Offset Enable
ICHOFFSET	QUANT	0	Ich Offset (V)
ICHFILTER	IQUANT	3	Ich Filter
VCHRANGE	IQUANT	2	Vch Range
VCHRANGEMODE	TOGGLE	F	Vch Auto Range
VCHOFFSETENABLE	TOGGLE	T	Vch Offset Enable
VCHOFFSET	QUANT	0	Vch Offset (V)
VCHFILTER	IQUANT	3	Vch Filter
ACHRANGE	IQUANT	2	Ach Range
ACHOFFSETENABLE	TOGGLE	F	Ach Offset Enable
ACHOFFSET	QUANT	0	Ach Offset (V)
ACHFILTER	IQUANT	3	Ach Filter
IERANGELOWERLIMIT	IQUANT	2	I/E Range Lower Limit
IERANGEMODE	TOGGLE	F	I/E AutoRange
IERANGE	IQUANT	11	I/E Range
POSFEEDENABLE	TOGGLE	F	Positive Feedback IR Comp
POSFEEDRESISTANCE	QUANT	0	Positive Feedback Resistance (ohm)
ACHSELECT	IQUANT	0	Ach Select
CABLEID	IQUANT	13	Cable ID
DCCALDATE	LABEL	7/31/2020	DC Calibration Date
ACCALDATE	LABEL	7/31/2020	AC Calibration Date
THERMOSELECT	IQUANT	1	Thermo Select
FRAMEWORKVERSION	QUANT	6.33	Framework Version
INSTRUMENTVERSION	LABEL	3.50	Instrument Version
COMPLIANCEVOLTAGE	IQUANT	0	Compliance Voltage
ZCURVE	TABLE
	Pt	Time	Freq	Zreal	Zimag	Zsig	Zmod	Zphz	Idc	Vdc	IERange
	#	s	Hz	ohm	ohm	V	ohm	°	A	V	#
	0	14	300046.9	1059.854	-616.2038	1	1225.968	-30.17392	-3.606588E-007	-0.0003917	9
	1	20	238359.4	1170.96	-554.3773	1	1295.562	-25.33466	-3.954006E-006	-0.0015461	9
	2	25	189328.1	1259.186	-485.5326	1	1349.552	-21.08626	1.944849E-006	0.0003746	9
	3	31	150421.9	1331.486	-411.5901	1	1393.651	-17.17747	-1.361835E-005	-0.0049884	9
	4	36	119484.4	1383.247	-354.4756	1	1427.944	-14.3735	3.741124E-006	0.0001095	8
	5	39	94921.88	1422.395	-293.2503	1	1452.31	-11.64926	-6.342233E-007	0.0005668	8
	6	41	75421.88	1452.221	-246.7117	1	1473.028	-9.64168	-3.204515E-008	0.0006204	8
	7	44	59859.37	1472.982	-204.3921	1	1487.095	-7.899963	1.472779E-006	0.0004793	8
	8	46	47578.12	1490.318	-173.4868	1	1500.382	-6.639872	-1.778167E-006	0.0006949	8
	9	49	37828.12	1502.291	-146.1795	1	1509.386	-5.557636	-2.501714E-006	0.0006324	8
	10	51	30046.88	1513.672	-126.0373	1	1518.91	-4.759807	-2.640066E-006	0.0006768	8
	11	54	23859.38	1525.486	-110.3973	1	1529.475	-4.139199	-2.187532E-006	0.0007948	8
	12	56	18984.38	1535.315	-96.8771	1	1538.369	-3.610528	2.113999E-007	0.0006651	8
	13	58	15046.87	1544.171	-88.88298	1	1546.727	-3.294329	-7.258216E-007	0.0006923	8
	14	61	11953.13	1554.552	-83.93928	1	1556.816	-3.090731	1.650784E-006	0.0005056	8
	15	63	9515.62	1563.04	-81.35868	1	1565.156	-2.979645	-2.591883E-006	0.0007743	8
	16	65	7546.875	1572.231	-81.37777	1	1574.336	-2.962953	2.374539E-006	0.0004533	8
	17	68	5928.309	1581.726	-86.983	1	1584.115	-3.147666	-9.815122E-007	0.0005558	8
	18	70	4733.456	1594.872	-89.93203	1	1597.406	-3.227391	9.912748E-007	0.0004879	8
	19	72	3796.875	1606.591	-100.3589	1	1609.722	-3.574451	2.233581E-006	0.0005078	8
	20	75	2987.132	1619.284	-111.4112	1	1623.113	-3.935905	2.031926E-006	0.0005627	8
	21	77	2390.625	1635.438	-123.9905	1	1640.131	-4.335578	-1.602962E-006	0.0007298	8
	22	79	1884.191	1652.261	-139.3529	1	1658.127	-4.820956	-2.178666E-006	0.0006264	8
	23	81	1516.544	1670.398	-157.833	1	1677.838	-5.397754	-1.208486E-006	0.0006203	8
	24	84	1193.986	1694.43	-178.6292	1	1703.82	-6.017972	-1.88233E-006	0.0007632	8
	25	86	946.5144	1719.893	-204.1314	1	1731.965	-6.768679	2.017535E-006	0.0004499	8
	26	89	751.7689	1747.229	-232.959	1	1762.691	-7.594487	3.742785E-008	0.0007061	8
	27	91	597.4265	1778.611	-262.029	1	1797.808	-8.380662	1.72959E-006	0.0006293	8
	28	93	477.4305	1808.908	-296.8885	1	1833.11	-9.320618	-6.483965E-007	0.0006495	8
	29	96	376.6741	1845.586	-338.4253	1	1876.358	-10.3909	-6.400378E-007	0.0006479	8
	30	98	298.2954	1884.401	-386.5814	1	1923.646	-11.59327	-6.39873E-007	0.0006535	8
	31	100	237.7717	1925.33	-441.7791	1	1975.365	-12.92317	-6.433251E-007	0.0006478	8
	32	103	189.0121	1970.913	-508.4381	1	2035.438	-14.46527	-6.376044E-007	0.0006496	8
	33	105	150.2404	2021.425	-587.9298	1	2105.189	-16.21703	-6.324324E-007	0.0006474	8
	34	108	119.1737	2078.851	-684.1539	1	2188.536	-18.21647	-6.300273E-007	0.0006517	8
	35	110	95.0169	2142.738	-796.2829	1	2285.911	-20.38604	-6.319313E-007	0.0006492	8
	36	112	75.60484	2216.702	-930.9491	1	2404.253	-22.78096	-6.279942E-007	0.0006457	8
	37	115	54.50582	2341.892	-1169.877	1	2617.837	-26.54413	-6.460233E-007	0.0006463	8
	38	118	45.95588	2422.018	-1320.45	1	2758.58	-28.5986	-6.191593E-007	0.0006292	8
	39	120	37.20238	2534.567	-1535.885	1	2963.608	-31.21482	-6.383502E-007	0.0006417	8
	40	122	30.04808	2669.568	-1790.569	1	3214.456	-33.85109	-6.173222E-007	0.0006481	8
	41	125	23.91582	2842.057	-2107.848	1	3538.405	-36.56295	-5.942089E-007	0.0006389	8
	42	127	18.60119	3076.048	-2517.24	1	3974.741	-39.29468	-6.597068E-007	0.0006535	8
	43	129	15.02404	3324.908	-2927.903	1	4430.308	-41.36703	-6.94148E-008	0.000618	7
	44	132	12.01923	3629.409	-3408.266	1	4978.844	-43.20021	-2.959819E-008	0.0006198	7
	45	134	9.450605	4018.28	-4009.617	1	5676.583	-44.93817	-5.640085E-008	0.0005916	7
	46	137	7.512019	4457.704	-4662.645	1	6450.688	-46.28727	-7.176919E-008	0.000618	7
	47	139	5.978954	4975.215	-5399.909	1	7342.464	-47.34403	-4.201346E-008	0.0006291	7
	48	142	4.734848	5598.479	-6275.574	1	8409.862	-48.26365	-6.92317E-008	0.000604	7
	49	146	3.75601	6319.33	-7242.668	1	9611.98	-48.89484	-3.38007E-008	0.0006465	7
	50	149	3.004808	7141.415	-8319.462	1	10964.18	-49.35725	-4.835337E-008	0.0006309	7
	51	153	2.372217	8163.425	-9585.32	1	12590.46	-49.58031	-4.555003E-008	0.0005943	7
	52	157	1.878005	9397.377	-11055.21	1	14509.6	-49.63412	-5.362754E-008	0.0006253	7
	53	166	1.512097	10714.74	-12586.17	1	16529.29	-49.59187	-6.542817E-008	0.00062	7
	54	177	1.201923	12442.22	-14421.85	1	19047.27	-49.21455	-6.463593E-008	0.0006435	7
	55	189	0.956633	14433.72	-16418.77	1	21861.12	-48.68134	-8.50069E-008	-1.566169E-005	7
