EXPLAIN
TAG	EISPOT
TITLE	LABEL	Potentiostatic EIS	Test Identifier
DATE	LABEL	8/31/2020	Date
TIME	LABEL	13:39:01	Time
NOTES	NOTES	1	Notes...
	
PSTAT	PSTAT	REF3000-16137	Potentiostat
VDC	POTEN	0.00000E+000	T	DC Voltage (V)
FREQINIT	QUANT	3.00000E+005	Initial Freq. (Hz)
FREQFINAL	QUANT	1.00000E+000	Final Freq. (Hz)
PTSPERDEC	QUANT	1.00000E+001	Points/decade
VAC	QUANT	5.00000E+001	AC Voltage (mV rms)
AREA	QUANT	1.00000E+000	Sample Area (cm^2)
SPEED	SELECTOR	2	Optimize for:
ZGUESS	QUANT	1.00000E+003	Estimated Z (ohms)
EOC	QUANT	0	Open Circuit (V)
SEQUENCER	TOGGLE	TRUE	Run as Sequence
PSTATMODEL	IQUANT	5	Pstat Model
PSTATSECTION	LABEL	REF3000-16137	Pstat Section
PSTATSERIALNO	LABEL	16137	Pstat Serial Number
CTRLMODE	IQUANT	1	Control Mode
IESTAB	IQUANT	0	I/E Stability
CASPEED	IQUANT	1	Control Amp Speed
CONVENTION	IQUANT	1	Current Convention
ICHRANGE	IQUANT	2	Ich Range
ICHRANGEMODE	TOGGLE	F	Ich Auto Range
ICHOFFSETENABLE	TOGGLE	T	Ich Offset Enable
ICHOFFSET	QUANT	0	Ich Offset (V)
ICHFILTER	IQUANT	3	Ich Filter
VCHRANGE	IQUANT	2	Vch Range
VCHRANGEMODE	TOGGLE	F	Vch Auto Range
VCHOFFSETENABLE	TOGGLE	T	Vch Offset Enable
VCHOFFSET	QUANT	0	Vch Offset (V)
VCHFILTER	IQUANT	3	Vch Filter
ACHRANGE	IQUANT	2	Ach Range
ACHOFFSETENABLE	TOGGLE	F	Ach Offset Enable
ACHOFFSET	QUANT	0	Ach Offset (V)
ACHFILTER	IQUANT	3	Ach Filter
IERANGELOWERLIMIT	IQUANT	2	I/E Range Lower Limit
IERANGEMODE	TOGGLE	F	I/E AutoRange
IERANGE	IQUANT	11	I/E Range
POSFEEDENABLE	TOGGLE	F	Positive Feedback IR Comp
POSFEEDRESISTANCE	QUANT	0	Positive Feedback Resistance (ohm)
ACHSELECT	IQUANT	0	Ach Select
CABLEID	IQUANT	13	Cable ID
DCCALDATE	LABEL	7/31/2020	DC Calibration Date
ACCALDATE	LABEL	7/31/2020	AC Calibration Date
THERMOSELECT	IQUANT	1	Thermo Select
FRAMEWORKVERSION	QUANT	6.33	Framework Version
INSTRUMENTVERSION	LABEL	3.50	Instrument Version
COMPLIANCEVOLTAGE	IQUANT	0	Compliance Voltage
ZCURVE	TABLE
	Pt	Time	Freq	Zreal	Zimag	Zsig	Zmod	Zphz	Idc	Vdc	IERange
	#	s	Hz	ohm	ohm	V	ohm	°	A	V	#
	0	7	300046.9	564.9028	-138.2623	1	581.5768	-13.75301	-1.994044E-005	-0.0051734	9
	1	10	238359.4	577.6644	-114.6453	1	588.931	-11.22526	-3.14294E-006	-0.0005715	9
	2	14	189328.1	588.8128	-96.3125	1	596.6378	-9.289644	-5.171121E-006	-0.0014202	9
	3	17	150421.9	597.5015	-81.28303	1	603.005	-7.746859	-5.14259E-006	-0.0012561	9
	4	20	119484.4	603.8713	-64.99565	1	607.359	-6.143189	4.322909E-006	0.0006783	8
	5	22	94921.88	609.4244	-52.8037	1	611.7077	-4.952036	-3.445519E-006	0.0006546	8
	6	25	75421.88	613.1419	-45.1357	1	614.801	-4.210166	-3.047012E-006	0.0007475	8
	7	27	59859.37	616.8302	-38.62684	1	618.0385	-3.58327	2.020206E-006	0.0005173	8
	8	30	47578.12	620.1867	-34.48035	1	621.1445	-3.182182	1.127671E-006	0.0005667	8
	9	32	37828.12	623.4611	-31.66909	1	624.2649	-2.907876	-3.266319E-006	0.0007454	8
	10	35	30046.88	626.6259	-29.5676	1	627.3231	-2.701521	-3.131615E-006	0.0007941	8
	11	37	23859.38	629.5336	-28.37989	1	630.1729	-2.581193	-6.962401E-007	0.0005637	8
	12	40	18984.38	633.1106	-28.59414	1	633.756	-2.585979	-1.090427E-006	0.0006255	8
	13	42	15046.87	636.9	-29.38248	1	637.5775	-2.641387	-1.67274E-006	0.0007754	8
	14	44	11953.13	640.6786	-31.45695	1	641.4504	-2.810933	1.901223E-006	0.0006498	8
	15	47	9515.62	644.8428	-34.21056	1	645.7496	-3.036841	-2.941997E-006	0.0006798	8
	16	49	7546.875	650.2004	-38.18155	1	651.3206	-3.360706	-1.040127E-006	0.0006146	8
	17	51	5928.309	655.3931	-42.44311	1	656.7659	-3.705288	-7.105901E-007	0.0006722	8
	18	54	4733.456	661.7164	-48.00817	1	663.4556	-4.149595	1.058143E-006	0.0005166	8
	19	56	3796.875	668.6519	-53.98093	1	670.8273	-4.615535	1.699083E-006	0.000488	8
	20	58	2987.132	676.1199	-61.92227	1	678.9495	-5.232821	-1.692253E-006	0.0007366	8
	21	61	2390.625	684.3592	-70.15564	1	687.9457	-5.85311	4.470201E-007	0.0005453	8
	22	63	1884.191	693.614	-79.43581	1	698.1478	-6.533308	-1.719743E-006	0.0007406	8
	23	65	1516.544	703.6459	-90.27826	1	709.4137	-7.311146	-2.122219E-006	0.0006189	8
	24	67	1193.986	715.8096	-103.4769	1	723.2502	-8.225649	2.172704E-006	0.0005625	8
	25	70	946.5144	728.2024	-118.8223	1	737.8329	-9.267395	-2.594204E-006	0.0006616	8
	26	72	751.7689	741.8262	-135.9132	1	754.174	-10.38227	-3.139478E-006	0.0007381	8
	27	75	597.4265	756.7489	-156.1821	1	772.6977	-11.6613	-3.294406E-007	0.0005828	8
	28	77	477.4305	773.4258	-179.3738	1	793.9537	-13.05727	-5.138945E-007	0.000647	8
	29	79	376.6741	792.873	-208.5135	1	819.8326	-14.73428	-5.065166E-007	0.0006446	8
	30	82	298.2954	814.6918	-242.6078	1	850.0479	-16.58305	-5.042596E-007	0.0006485	8
	31	84	237.7717	838.9538	-281.5775	1	884.946	-18.55326	-4.917421E-007	0.000645	8
	32	86	189.0121	867.1299	-328.0875	1	927.1223	-20.72465	-4.911616E-007	0.0006461	8
	33	89	150.2404	899.6921	-383.0013	1	977.822	-23.05959	-4.976906E-007	0.0006485	8
	34	91	119.1737	938.007	-448.2095	1	1039.591	-25.53995	-4.848528E-007	0.0006434	8
	35	94	95.0169	981.872	-523.4875	1	1112.705	-28.06441	-4.847489E-007	0.0006442	8
	36	96	75.60484	1034.189	-612.3807	1	1201.897	-30.63131	-4.694591E-007	0.0006411	8
	37	99	54.50582	1125.53	-765.5811	1	1361.224	-34.22339	-4.790326E-007	0.0006426	8
	38	101	45.95588	1184.006	-859.0123	1	1462.796	-35.9614	-4.942228E-007	0.0006528	8
	39	103	37.20238	1266.307	-989.87	1	1607.289	-38.01468	-4.992947E-007	0.0006532	8
	40	106	30.04808	1363.483	-1140.645	1	1777.683	-39.91475	-4.281905E-007	0.00064	8
	41	108	23.91582	1484.059	-1323.36	1	1988.394	-41.72393	-4.142921E-007	0.000646	8
	42	111	18.60119	1641.025	-1555.829	1	2261.32	-43.47344	-3.567972E-007	0.0006572	8
	43	113	15.02404	1795.424	-1784.315	1	2531.27	-44.82219	-4.143056E-007	0.0006624	8
	44	115	12.01923	1987.114	-2053.989	1	2857.882	-45.94809	-3.106319E-007	0.0006524	8
	45	118	9.450605	2223.685	-2395.885	1	3268.798	-47.13477	-4.352591E-007	0.0006496	8
	46	120	7.512019	2495.506	-2766.786	1	3725.943	-47.95108	-4.413357E-007	0.0006456	8
	47	123	5.978954	2822.844	-3188.934	1	4258.844	-48.48474	4.995113E-008	0.0006157	7
	48	126	4.734848	3215.915	-3675.729	1	4883.963	-48.81715	1.768961E-008	0.0006049	7
	49	129	3.75601	3676.146	-4203.517	1	5584.228	-48.82899	3.437421E-008	0.0006331	7
	50	135	3.004808	4210.012	-4768.47	1	6361.015	-48.55919	1.009744E-009	0.0006443	7
	51	141	2.372217	4871.701	-5396.113	1	7269.904	-47.92375	8.545631E-009	0.0005807	7
	52	147	1.878005	5657.176	-6046.116	1	8280.046	-46.90343	1.536436E-008	0.0006094	7
	53	156	1.512097	6474.128	-6712.706	1	9326.026	-46.03649	-7.472026E-009	0.0006661	7
	54	167	1.201923	7491.144	-7429.531	1	10550.6	-44.76341	-1.194109E-008	0.0006309	7
	55	180	0.956633	8627.202	-8173.101	1	11883.95	-43.45171	-6.18284E-008	-1.867223E-005	7
