EXPLAIN
TAG	EISPOT
TITLE	LABEL	Potentiostatic EIS	Test Identifier
DATE	LABEL	8/31/2020	Date
TIME	LABEL	14:23:49	Time
NOTES	NOTES	1	Notes...
	
PSTAT	PSTAT	REF3000-16137	Potentiostat
VDC	POTEN	0.00000E+000	T	DC Voltage (V)
FREQINIT	QUANT	3.00000E+005	Initial Freq. (Hz)
FREQFINAL	QUANT	1.00000E+000	Final Freq. (Hz)
PTSPERDEC	QUANT	1.00000E+001	Points/decade
VAC	QUANT	5.00000E+001	AC Voltage (mV rms)
AREA	QUANT	1.00000E+000	Sample Area (cm^2)
SPEED	SELECTOR	2	Optimize for:
ZGUESS	QUANT	1.00000E+003	Estimated Z (ohms)
EOC	QUANT	0	Open Circuit (V)
SEQUENCER	TOGGLE	TRUE	Run as Sequence
PSTATMODEL	IQUANT	5	Pstat Model
PSTATSECTION	LABEL	REF3000-16137	Pstat Section
PSTATSERIALNO	LABEL	16137	Pstat Serial Number
CTRLMODE	IQUANT	1	Control Mode
IESTAB	IQUANT	0	I/E Stability
CASPEED	IQUANT	1	Control Amp Speed
CONVENTION	IQUANT	1	Current Convention
ICHRANGE	IQUANT	2	Ich Range
ICHRANGEMODE	TOGGLE	F	Ich Auto Range
ICHOFFSETENABLE	TOGGLE	T	Ich Offset Enable
ICHOFFSET	QUANT	0	Ich Offset (V)
ICHFILTER	IQUANT	3	Ich Filter
VCHRANGE	IQUANT	2	Vch Range
VCHRANGEMODE	TOGGLE	F	Vch Auto Range
VCHOFFSETENABLE	TOGGLE	T	Vch Offset Enable
VCHOFFSET	QUANT	0	Vch Offset (V)
VCHFILTER	IQUANT	3	Vch Filter
ACHRANGE	IQUANT	2	Ach Range
ACHOFFSETENABLE	TOGGLE	F	Ach Offset Enable
ACHOFFSET	QUANT	0	Ach Offset (V)
ACHFILTER	IQUANT	3	Ach Filter
IERANGELOWERLIMIT	IQUANT	2	I/E Range Lower Limit
IERANGEMODE	TOGGLE	F	I/E AutoRange
IERANGE	IQUANT	11	I/E Range
POSFEEDENABLE	TOGGLE	F	Positive Feedback IR Comp
POSFEEDRESISTANCE	QUANT	0	Positive Feedback Resistance (ohm)
ACHSELECT	IQUANT	0	Ach Select
CABLEID	IQUANT	13	Cable ID
DCCALDATE	LABEL	7/31/2020	DC Calibration Date
ACCALDATE	LABEL	7/31/2020	AC Calibration Date
THERMOSELECT	IQUANT	1	Thermo Select
FRAMEWORKVERSION	QUANT	6.33	Framework Version
INSTRUMENTVERSION	LABEL	3.50	Instrument Version
COMPLIANCEVOLTAGE	IQUANT	0	Compliance Voltage
ZCURVE	TABLE
	Pt	Time	Freq	Zreal	Zimag	Zsig	Zmod	Zphz	Idc	Vdc	IERange
	#	s	Hz	ohm	ohm	V	ohm	°	A	V	#
	0	14	300046.9	218.8327	-2440.737	1	2450.527	-84.87665	5.494826E-006	0.0016029	9
	1	28	238359.4	335.3622	-3016.073	1	3034.661	-83.65525	-1.878832E-006	-0.0005541	9
	2	43	189328.1	458.2866	-3734.409	1	3762.424	-83.00365	5.319111E-006	0.0016605	9
	3	52	150421.9	629.6448	-4587.771	1	4630.777	-82.18531	5.034796E-006	0.0016744	9
	4	59	119484.4	892.3035	-5768.601	1	5837.205	-81.20702	8.075229E-006	0.0005488	8
	5	67	94921.88	1318.536	-7219.773	1	7339.187	-79.65022	1.042472E-006	0.0004281	8
	6	70	75421.88	1913.497	-8867.521	1	9071.626	-77.82302	-3.933243E-007	0.0007835	8
	7	74	59859.37	2818.167	-10857.15	1	11216.94	-75.44897	-3.571457E-006	0.0008044	8
	8	77	47578.12	4153.685	-13210.49	1	13848.11	-72.54564	6.126044E-007	-0.0010891	7
	9	79	37828.12	6057.875	-15939.74	1	17052.07	-69.19078	7.808065E-007	-0.0024776	7
	10	82	30046.88	8633.322	-18723.67	1	20618.2	-65.24599	6.502331E-007	-0.001196	7
	11	85	23859.38	12201.83	-21539.71	1	24755.69	-60.46929	-7.343606E-007	0.0035046	7
	12	88	18984.38	16535.16	-24102.16	1	29228.85	-55.54815	2.772719E-007	0.0003412	7
	13	92	15046.87	21803.35	-26000.53	1	33932.49	-50.0177	-6.920062E-007	0.0033251	7
	14	96	11953.13	27365.7	-27061.12	1	38486.18	-44.67937	-2.925653E-007	9.688119E-006	7
	15	101	9515.62	33331.58	-26651.69	1	42676.77	-38.64558	-7.010801E-007	0.0033453	7
	16	104	7546.875	38888.97	-25780.68	1	46658.29	-33.54161	-5.171736E-007	0.0008645	7
	17	107	5928.309	44078.65	-23946.21	1	50163.21	-28.51351	-4.915762E-007	0.000791	7
	18	111	4733.456	48237.64	-21359.21	1	52754.96	-23.88335	5.739668E-008	-0.0010939	6
	19	114	3796.875	51255.3	-18783.08	1	54588.55	-20.12593	6.762654E-008	-0.0016142	6
	20	116	2987.132	54024.58	-16464.02	1	56477.6	-16.94863	-3.749448E-008	0.0025725	6
	21	118	2390.625	55949.63	-14389.35	1	57770.36	-14.42299	-8.967928E-008	0.0030836	6
	22	121	1884.191	57442.44	-12484.95	1	58783.57	-12.26235	-8.725533E-008	0.0039037	6
	23	123	1516.544	58812.95	-11053.58	1	59842.67	-10.64427	-8.573388E-008	0.0034287	6
	24	125	1193.986	59943.92	-9928.67	1	60760.61	-9.404673	-9.001246E-008	0.0032212	6
	25	128	946.5144	60909.49	-9043.269	1	61577.16	-8.445046	-8.69646E-008	0.0034433	6
	26	130	751.7689	61978.34	-8510.79	1	62559.96	-7.818885	7.082382E-008	-0.0021267	6
	27	132	597.4265	62893.62	-8258.908	1	63433.57	-7.48102	-8.59056E-008	0.0038235	6
	28	135	477.4305	63820.26	-8180.616	1	64342.43	-7.304462	-1.030953E-008	0.0006476	6
	29	137	376.6741	64847.75	-8321.237	1	65379.46	-7.312212	-1.061208E-008	0.0006598	6
	30	139	298.2954	65941.75	-8661.665	1	66508.19	-7.483148	-1.084374E-008	0.0006648	6
	31	142	237.7717	67124	-9177.649	1	67748.51	-7.785593	-1.030315E-008	0.0006551	6
	32	144	189.0121	68442.47	-9869.78	1	69150.45	-8.2058	-1.089227E-008	0.0006589	6
	33	147	150.2404	69918.56	-10722.75	1	70736.01	-8.718985	-1.081649E-008	0.0006681	6
	34	149	119.1737	71585.11	-11727.61	1	72539.4	-9.303974	-1.133092E-008	0.0006586	6
	35	151	95.0169	73441.23	-12837.99	1	74554.86	-9.91547	-1.091255E-008	0.0006706	6
	36	154	75.60484	75552.77	-14049.42	1	76847.95	-10.53412	-9.405054E-009	0.0006572	6
	37	156	54.50582	78845.56	-15854.28	1	80423.76	-11.36943	-9.146746E-009	0.0006603	6
	38	159	45.95588	80904.1	-16849.16	1	82639.99	-11.76431	-1.066396E-008	0.0006724	6
	39	161	37.20238	83509.69	-18070.53	1	85442.45	-12.20989	-1.243584E-008	0.0006717	6
	40	164	30.04808	86350.7	-19295.86	1	88480.36	-12.59633	-8.381299E-009	0.0006583	6
	41	166	23.91582	89468.83	-20639.46	1	91818.62	-12.99024	-6.001889E-009	0.0006588	6
	42	169	18.60119	93150.45	-22240.17	1	95768.6	-13.42829	-1.771205E-008	0.0006791	6
	43	171	15.02404	96344.2	-23447.8	1	99156.4	-13.67845	-1.236456E-008	0.0006722	6
	44	173	12.01923	99813.3	-24861.63	1	102863	-13.98669	-2.996391E-009	0.0006642	6
	45	176	9.450605	103718.1	-26789.3	1	107122	-14.48237	-1.02585E-008	0.0006654	6
	46	178	7.512019	107588.9	-28642.36	1	111336.3	-14.90754	-7.753488E-009	0.000656	6
	47	181	5.978954	111516.5	-30883.27	1	115713.9	-15.47949	-6.317617E-009	0.0006756	6
	48	184	4.734848	115846.3	-33776.11	1	120669.7	-16.25456	-1.544318E-008	0.0006525	6
	49	187	3.75601	120346.4	-36958.64	1	125893.6	-17.07184	-4.714002E-009	0.0006936	6
	50	191	3.004808	124981.8	-40435.64	1	131360.2	-17.92807	-8.850931E-009	0.0006784	6
	51	194	2.372217	130192.3	-45259.15	1	137834.8	-19.16914	-6.586678E-009	0.0006311	6
	52	199	1.878005	135954.8	-50930.34	1	145181.3	-20.53657	-6.024332E-009	0.0006587	6
	53	203	1.512097	141761.1	-57336.62	1	152917.3	-22.02133	-7.345272E-009	0.0007327	6
	54	209	1.201923	148725	-65841.35	1	162647.5	-23.87923	-7.458675E-009	0.0006753	6
	55	215	0.956633	156921.3	-75682.98	1	174218.9	-25.74796	-1.37843E-008	3.020299E-005	6
