EXPLAIN
TAG	EISPOT
TITLE	LABEL	Potentiostatic EIS	Test Identifier
DATE	LABEL	8/31/2020	Date
TIME	LABEL	14:55:08	Time
NOTES	NOTES	1	Notes...
	
PSTAT	PSTAT	REF3000-16137	Potentiostat
VDC	POTEN	0.00000E+000	T	DC Voltage (V)
FREQINIT	QUANT	3.00000E+005	Initial Freq. (Hz)
FREQFINAL	QUANT	1.00000E+000	Final Freq. (Hz)
PTSPERDEC	QUANT	1.00000E+001	Points/decade
VAC	QUANT	5.00000E+001	AC Voltage (mV rms)
AREA	QUANT	1.00000E+000	Sample Area (cm^2)
SPEED	SELECTOR	2	Optimize for:
ZGUESS	QUANT	1.00000E+003	Estimated Z (ohms)
EOC	QUANT	0	Open Circuit (V)
SEQUENCER	TOGGLE	TRUE	Run as Sequence
PSTATMODEL	IQUANT	5	Pstat Model
PSTATSECTION	LABEL	REF3000-16137	Pstat Section
PSTATSERIALNO	LABEL	16137	Pstat Serial Number
CTRLMODE	IQUANT	1	Control Mode
IESTAB	IQUANT	0	I/E Stability
CASPEED	IQUANT	1	Control Amp Speed
CONVENTION	IQUANT	1	Current Convention
ICHRANGE	IQUANT	2	Ich Range
ICHRANGEMODE	TOGGLE	F	Ich Auto Range
ICHOFFSETENABLE	TOGGLE	T	Ich Offset Enable
ICHOFFSET	QUANT	0	Ich Offset (V)
ICHFILTER	IQUANT	3	Ich Filter
VCHRANGE	IQUANT	2	Vch Range
VCHRANGEMODE	TOGGLE	F	Vch Auto Range
VCHOFFSETENABLE	TOGGLE	T	Vch Offset Enable
VCHOFFSET	QUANT	0	Vch Offset (V)
VCHFILTER	IQUANT	3	Vch Filter
ACHRANGE	IQUANT	2	Ach Range
ACHOFFSETENABLE	TOGGLE	F	Ach Offset Enable
ACHOFFSET	QUANT	0	Ach Offset (V)
ACHFILTER	IQUANT	3	Ach Filter
IERANGELOWERLIMIT	IQUANT	2	I/E Range Lower Limit
IERANGEMODE	TOGGLE	F	I/E AutoRange
IERANGE	IQUANT	11	I/E Range
POSFEEDENABLE	TOGGLE	F	Positive Feedback IR Comp
POSFEEDRESISTANCE	QUANT	0	Positive Feedback Resistance (ohm)
ACHSELECT	IQUANT	0	Ach Select
CABLEID	IQUANT	13	Cable ID
DCCALDATE	LABEL	7/31/2020	DC Calibration Date
ACCALDATE	LABEL	7/31/2020	AC Calibration Date
THERMOSELECT	IQUANT	1	Thermo Select
FRAMEWORKVERSION	QUANT	6.33	Framework Version
INSTRUMENTVERSION	LABEL	3.50	Instrument Version
COMPLIANCEVOLTAGE	IQUANT	0	Compliance Voltage
ZCURVE	TABLE
	Pt	Time	Freq	Zreal	Zimag	Zsig	Zmod	Zphz	Idc	Vdc	IERange
	#	s	Hz	ohm	ohm	V	ohm	°	A	V	#
	0	14	300046.9	-65.54547	-4770.086	1	4770.537	-90.78725	8.464236E-005	-0.0037176	9
	1	28	238359.4	14.24879	-5976.688	1	5976.705	-89.8634	4.009596E-006	-0.0020456	9
	2	45	189328.1	142.5851	-7230.709	1	7232.115	-88.87031	2.220545E-005	-0.0004247	9
	3	53	150421.9	137.0582	-9147.381	1	9148.407	-89.14159	-2.101063E-005	0.0012588	9
	4	60	119484.4	537.2457	-11565.62	1	11578.09	-87.34041	6.740262E-005	-0.0258748	8
	5	68	94921.88	616.8937	-14308.8	1	14322.09	-87.53134	2.278901E-005	-0.0096987	8
	6	76	75421.88	611.9698	-18042.87	1	18053.25	-88.05741	2.277462E-005	-0.0097015	8
	7	85	59859.37	499.2215	-22398.23	1	22403.79	-88.72318	-2.645505E-005	0.0074983	8
	8	94	47578.12	4131.66	-29696.98	1	29983.01	-82.07944	6.665419E-006	-0.0100462	7
	9	101	37828.12	686.1116	-36019.82	1	36026.36	-88.90875	-1.988745E-005	0.0114006	8
	10	110	30046.88	746.1683	-45228.05	1	45234.2	-89.05482	-2.500167E-005	0.0110388	8
	11	119	23859.38	700.2969	-56642.61	1	56646.94	-89.29166	-1.588153E-005	0.0005856	8
	12	126	18984.38	5232.123	-71644.65	1	71835.45	-85.82317	3.433847E-006	-0.0251409	7
	13	131	15046.87	1765.659	-87102.66	1	87120.55	-88.83871	1.692737E-005	-0.0094043	8
	14	139	11953.13	3887.718	-113729.8	1	113796.2	-88.04218	-5.335262E-006	0.0029879	7
	15	145	9515.62	5849.88	-141980	1	142100.5	-87.64063	6.540047E-006	-0.010071	7
	16	150	7546.875	12675.41	-174718.7	1	175177.9	-85.8506	-3.772672E-006	0.0256234	7
	17	156	5928.309	18879.39	-233139.2	1	233902.3	-85.37035	-5.424044E-006	0.026846	7
	18	161	4733.456	28608.64	-262935.4	1	264487.2	-83.79037	-3.353149E-006	-0.0053609	7
	19	168	3796.875	-10538.39	-336110.2	1	336275.3	-91.79586	1.665322E-005	-0.0093804	8
	20	176	2987.132	62013.16	-402453.4	1	407203.1	-81.24031	6.618383E-006	-0.0099381	7
	21	185	2390.625	93743.54	-533684.6	1	541855.2	-80.03743	-1.851871E-006	0.0223105	7
	22	192	1884.191	105091.1	-694372.7	1	702280.3	-81.39378	-6.50713E-007	0.0099261	6
	23	198	1516.544	148041.1	-837324.5	1	850310.8	-79.97358	-6.493862E-007	0.0098401	6
	24	203	1193.986	-582362.1	-487160.7	1	759257	-140.0867	2.977303E-005	-0.00068	9
	25	212	946.5144	-217916.5	-327282.2	1	393193.7	-123.6571	8.159092E-006	0.004264	8
	26	220	751.7689	374710.1	-127307.1	1	395745.8	-18.7651	-2.022414E-005	0.0027338	8
	27	229	597.4265	489312.9	511636.3	1	707954	46.27761	4.990631E-006	-0.0006656	7
	28	234	477.4305	625598.3	-2565202	1	2640385	-76.29432	-7.028535E-008	0.0005708	7
	29	239	376.6741	1336273	-3171188	1	3441229	-67.15045	-8.55484E-010	0.0005934	5
	30	243	298.2954	1769368	-3804236	1	4195578	-65.05664	-7.880466E-010	0.0005936	5
	31	246	237.7717	2426113	-4429198	1	5050131	-61.28807	-8.798039E-010	0.0006791	5
	32	249	189.0121	3134015	-5172193	1	6047614	-58.78684	-7.687912E-010	0.0006237	5
	33	251	150.2404	3984632	-5642976	1	6908000	-54.77323	-8.612476E-010	0.0006325	5
	34	254	119.1737	6105574	-8586610	1	1.053603E+007	-54.58498	-8.794687E-010	0.0006807	5
	35	257	95.0169	6711965	-6718463	1	9496748	-45.02772	-9.253798E-010	0.0006724	5
	36	260	75.60484	8142825	-6950999	1	1.070617E+007	-40.48523	-8.860542E-010	0.0006845	5
	37	263	54.50582	1.025048E+007	-6515499	1	1.214594E+007	-32.44122	-8.211684E-010	0.0005818	5
	38	266	45.95588	1.273109E+007	-4592905	1	1.353423E+007	-19.83757	-1.306323E-010	0.000598	4
	39	268	37.20238	1.352832E+007	-4250742	1	1.418042E+007	-17.44327	-1.079026E-010	0.000689	4
	40	271	30.04808	1.399959E+007	-3854500	1	1.452052E+007	-15.3938	-1.071116E-010	0.0006775	4
	41	274	23.91582	1.459857E+007	-3043503	1	1.491245E+007	-11.77631	-6.545099E-011	0.0006073	4
	42	277	18.60119	1.449913E+007	-2112320	1	1.465219E+007	-8.288876	7.727471E-012	0.0006949	4
	43	279	15.02404	1.543708E+007	-2365469	1	1.561726E+007	-8.711834	-1.120209E-010	0.0006144	4
	44	282	12.01923	1.571929E+007	-2022463	1	1.584886E+007	-7.331467	-1.151062E-010	0.0006885	4
	45	284	9.450605	1.613895E+007	-1799793	1	1.623899E+007	-6.363256	-1.189054E-010	0.000659	4
	46	287	7.512019	1.633709E+007	-1522902	1	1.640792E+007	-5.325576	-9.757772E-011	0.0006259	4
	47	290	5.978954	1.655981E+007	-1375773	1	1.661686E+007	-4.74917	-1.092099E-010	0.0006609	4
	48	294	4.734848	1.706002E+007	-1237336	1	1.710484E+007	-4.148308	-9.498551E-011	0.000614	4
	49	299	3.75601	1.745483E+007	-1142121	1	1.749216E+007	-3.743694	-8.924932E-011	0.0006936	4
	50	305	3.004808	1.799517E+007	-1146358	1	1.803165E+007	-3.645024	-7.799309E-011	0.0005936	4
	51	311	2.372217	1.847247E+007	-1104239	1	1.850545E+007	-3.420931	-9.334418E-011	0.0005695	4
	52	315	1.878005	1.890078E+007	-1117964	1	1.893381E+007	-3.385049	-7.180497E-011	0.0006495	4
	53	320	1.512097	1.939057E+007	-1154407	1	1.94249E+007	-3.407051	-6.536892E-011	0.0005959	4
	54	325	1.201923	1.995759E+007	-1205820	1	1.999398E+007	-3.457557	-8.238135E-011	0.0006737	4
	55	332	0.956633	2.062675E+007	-1304963	1	2.066799E+007	-3.620023	-1.313722E-010	7.083638E-006	4
