EXPLAIN
TAG	EISPOT
TITLE	LABEL	Potentiostatic EIS	Test Identifier
DATE	LABEL	8/31/2020	Date
TIME	LABEL	14:46:59	Time
NOTES	NOTES	1	Notes...
	
PSTAT	PSTAT	REF3000-16137	Potentiostat
VDC	POTEN	0.00000E+000	T	DC Voltage (V)
FREQINIT	QUANT	3.00000E+005	Initial Freq. (Hz)
FREQFINAL	QUANT	1.00000E+000	Final Freq. (Hz)
PTSPERDEC	QUANT	1.00000E+001	Points/decade
VAC	QUANT	5.00000E+001	AC Voltage (mV rms)
AREA	QUANT	1.00000E+000	Sample Area (cm^2)
SPEED	SELECTOR	2	Optimize for:
ZGUESS	QUANT	1.00000E+003	Estimated Z (ohms)
EOC	QUANT	0	Open Circuit (V)
SEQUENCER	TOGGLE	TRUE	Run as Sequence
PSTATMODEL	IQUANT	5	Pstat Model
PSTATSECTION	LABEL	REF3000-16137	Pstat Section
PSTATSERIALNO	LABEL	16137	Pstat Serial Number
CTRLMODE	IQUANT	1	Control Mode
IESTAB	IQUANT	0	I/E Stability
CASPEED	IQUANT	1	Control Amp Speed
CONVENTION	IQUANT	1	Current Convention
ICHRANGE	IQUANT	2	Ich Range
ICHRANGEMODE	TOGGLE	F	Ich Auto Range
ICHOFFSETENABLE	TOGGLE	T	Ich Offset Enable
ICHOFFSET	QUANT	0	Ich Offset (V)
ICHFILTER	IQUANT	3	Ich Filter
VCHRANGE	IQUANT	2	Vch Range
VCHRANGEMODE	TOGGLE	F	Vch Auto Range
VCHOFFSETENABLE	TOGGLE	T	Vch Offset Enable
VCHOFFSET	QUANT	0	Vch Offset (V)
VCHFILTER	IQUANT	3	Vch Filter
ACHRANGE	IQUANT	2	Ach Range
ACHOFFSETENABLE	TOGGLE	F	Ach Offset Enable
ACHOFFSET	QUANT	0	Ach Offset (V)
ACHFILTER	IQUANT	3	Ach Filter
IERANGELOWERLIMIT	IQUANT	2	I/E Range Lower Limit
IERANGEMODE	TOGGLE	F	I/E AutoRange
IERANGE	IQUANT	11	I/E Range
POSFEEDENABLE	TOGGLE	F	Positive Feedback IR Comp
POSFEEDRESISTANCE	QUANT	0	Positive Feedback Resistance (ohm)
ACHSELECT	IQUANT	0	Ach Select
CABLEID	IQUANT	13	Cable ID
DCCALDATE	LABEL	7/31/2020	DC Calibration Date
ACCALDATE	LABEL	7/31/2020	AC Calibration Date
THERMOSELECT	IQUANT	1	Thermo Select
FRAMEWORKVERSION	QUANT	6.33	Framework Version
INSTRUMENTVERSION	LABEL	3.50	Instrument Version
COMPLIANCEVOLTAGE	IQUANT	0	Compliance Voltage
ZCURVE	TABLE
	Pt	Time	Freq	Zreal	Zimag	Zsig	Zmod	Zphz	Idc	Vdc	IERange
	#	s	Hz	ohm	ohm	V	ohm	°	A	V	#
	0	14	300046.9	93.75346	-2503.199	1	2504.954	-87.85508	-4.739215E-006	-0.0018212	9
	1	28	238359.4	89.7765	-3064.478	1	3065.793	-88.32195	-1.699955E-005	0.0021756	9
	2	42	189328.1	171.7287	-3799.833	1	3803.712	-87.41235	-6.822799E-006	-0.0021171	9
	3	51	150421.9	210.382	-4834.193	1	4838.769	-87.50809	-4.997527E-006	-0.0014641	9
	4	58	119484.4	237.9486	-6035.313	1	6040.002	-87.74223	-9.155368E-007	0.0018439	8
	5	66	94921.88	320.0729	-7559.475	1	7566.248	-87.57551	8.279586E-007	0.0009382	8
	6	69	75421.88	393.4819	-9419.966	1	9428.181	-87.60809	-1.681304E-006	0.0011304	8
	7	73	59859.37	494.6306	-11831.16	1	11841.5	-87.606	-1.624423E-006	0.0011159	8
	8	77	47578.12	689.231	-14910.39	1	14926.31	-87.35339	9.38988E-007	-0.0028252	7
	9	79	37828.12	912.0032	-18652.34	1	18674.62	-87.20076	9.419684E-007	-0.0022517	7
	10	82	30046.88	1033.277	-23443	1	23465.76	-87.47626	-4.535731E-008	0.0018758	7
	11	85	23859.38	1530.503	-29356.63	1	29396.5	-87.01559	9.478092E-007	-0.0028034	7
	12	88	18984.38	2014.31	-36703.74	1	36758.97	-86.85875	-9.882141E-007	0.0039737	7
	13	92	15046.87	3147.177	-46180.91	1	46288.03	-86.10139	-2.510895E-007	-0.0004735	7
	14	97	11953.13	4319.527	-57558.6	1	57720.45	-85.70824	9.653312E-008	-0.0014717	7
	15	102	9515.62	5987.094	-72229.24	1	72476.95	-85.26157	3.836019E-007	-0.0022309	7
	16	107	7546.875	9933.8	-90684.98	1	91227.45	-83.74864	-3.503267E-007	0.0028687	7
	17	114	5928.309	12459.23	-114187.3	1	114865	-83.77296	5.495262E-007	-0.0002163	7
	18	118	4733.456	18786.31	-141645.8	1	142886.2	-82.44502	6.749019E-008	-0.0009864	6
	19	121	3796.875	27439.69	-174591.6	1	176734.8	-81.06818	6.862627E-008	-0.0027745	6
	20	123	2987.132	40991.32	-218546.1	1	222357.1	-79.37682	-6.950251E-008	0.0037567	6
	21	126	2390.625	59883.23	-267973.8	1	274583.3	-77.40326	-8.746593E-008	0.0039699	6
	22	130	1884.191	88523.59	-331046.4	1	342677.9	-75.02908	8.616041E-008	-0.0020047	6
	23	135	1516.544	126609.9	-398429.9	1	418062.8	-72.37119	4.129597E-008	0.0001914	6
	24	140	1193.986	187093.7	-483964	1	518869.1	-68.8642	9.428295E-008	-0.0027766	6
	25	145	946.5144	266527.9	-566066.2	1	625674.1	-64.78696	4.276156E-008	0.000247	6
	26	147	751.7689	370612.3	-657798.8	1	755018.4	-60.60253	4.530405E-008	-0.0024181	6
	27	152	597.4265	509126.6	-732088.6	1	891719.4	-55.18355	5.005966E-008	-8.965636E-005	6
	28	154	477.4305	670268.8	-773412.7	1	1023439	-49.08656	-1.13276E-009	0.000651	5
	29	156	376.6741	848293.7	-794240.6	1	1162076	-43.11517	-1.126185E-009	0.0006437	5
	30	159	298.2954	1023878	-780442.8	1	1287407	-37.31618	-1.149004E-009	0.0006596	5
	31	161	237.7717	1182440	-738721.8	1	1394229	-31.99481	-1.125284E-009	0.0006432	5
	32	164	189.0121	1322002	-676312.8	1	1484954	-27.09348	-1.102934E-009	0.0006547	5
	33	166	150.2404	1437407	-603831.4	1	1559086	-22.78649	-1.121422E-009	0.0006572	5
	34	168	119.1737	1530493	-529116.8	1	1619374	-19.07112	-1.104203E-009	0.0006624	5
	35	171	95.0169	1603108	-461006.8	1	1668077	-16.04368	-1.100007E-009	0.0006579	5
	36	173	75.60484	1662134	-400082.1	1	1709607	-13.53386	-1.077901E-009	0.0006542	5
	37	176	54.50582	1723564	-326969.8	1	1754304	-10.74169	-1.089136E-009	0.0006579	5
	38	178	45.95588	1755098	-298533.6	1	1780306	-9.65334	-1.090314E-009	0.0006568	5
	39	181	37.20238	1787585	-269153.7	1	1807734	-8.562611	-1.153194E-009	0.0006501	5
	40	183	30.04808	1818718	-246057.8	1	1835287	-7.704874	-1.224409E-009	0.000651	5
	41	185	23.91582	1848693	-228645.2	1	1862778	-7.050502	-1.004313E-009	0.0006454	5
	42	188	18.60119	1880513	-216000.7	1	1892877	-6.552431	-9.931578E-010	0.0006441	5
	43	190	15.02404	1909378	-211485	1	1921055	-6.320386	-1.327623E-009	0.0006427	5
	44	192	12.01923	1939604	-213247.1	1	1951291	-6.274108	-1.10393E-009	0.0006476	5
	45	195	9.450605	1972801	-218733.4	1	1984890	-6.326801	-8.856568E-010	0.0006383	5
	46	197	7.512019	2008860	-231637.3	1	2022171	-6.577603	-8.450124E-010	0.0006532	5
	47	200	5.978954	2052345	-248701.7	1	2067359	-6.909373	-8.661172E-010	0.0006528	5
	48	203	4.734848	2099748	-269602.5	1	2116985	-7.316606	-8.875262E-010	0.0006649	5
	49	206	3.75601	2155526	-294585.6	1	2175562	-7.782136	-1.089584E-009	0.0006436	5
	50	210	3.004808	2214857	-324502.6	1	2238502	-8.335205	-1.363237E-009	0.0006822	5
	51	214	2.372217	2286509	-353989.1	1	2313749	-8.800458	-1.053203E-009	0.0007185	5
	52	218	1.878005	2365817	-391582.7	1	2398005	-9.398212	-1.247433E-009	0.0006278	5
	53	222	1.512097	2453054	-428734.6	1	2490239	-9.91378	-1.325537E-009	0.0007443	5
	54	228	1.201923	2557464	-467384.1	1	2599821	-10.35668	-1.023306E-009	0.0006282	5
	55	234	0.956633	2674074	-512227.7	1	2722691	-10.84384	-1.658681E-009	9.981424E-006	5
