EXPLAIN
TAG	EISPOT
TITLE	LABEL	Potentiostatic EIS	Test Identifier
DATE	LABEL	8/31/2020	Date
TIME	LABEL	13:17:15	Time
NOTES	NOTES	1	Notes...
	
PSTAT	PSTAT	REF3000-16137	Potentiostat
VDC	POTEN	0.00000E+000	T	DC Voltage (V)
FREQINIT	QUANT	3.00000E+005	Initial Freq. (Hz)
FREQFINAL	QUANT	1.00000E+000	Final Freq. (Hz)
PTSPERDEC	QUANT	1.00000E+001	Points/decade
VAC	QUANT	5.00000E+001	AC Voltage (mV rms)
AREA	QUANT	1.00000E+000	Sample Area (cm^2)
SPEED	SELECTOR	2	Optimize for:
ZGUESS	QUANT	1.00000E+003	Estimated Z (ohms)
EOC	QUANT	0	Open Circuit (V)
SEQUENCER	TOGGLE	TRUE	Run as Sequence
PSTATMODEL	IQUANT	5	Pstat Model
PSTATSECTION	LABEL	REF3000-16137	Pstat Section
PSTATSERIALNO	LABEL	16137	Pstat Serial Number
CTRLMODE	IQUANT	1	Control Mode
IESTAB	IQUANT	0	I/E Stability
CASPEED	IQUANT	1	Control Amp Speed
CONVENTION	IQUANT	1	Current Convention
ICHRANGE	IQUANT	2	Ich Range
ICHRANGEMODE	TOGGLE	F	Ich Auto Range
ICHOFFSETENABLE	TOGGLE	T	Ich Offset Enable
ICHOFFSET	QUANT	0	Ich Offset (V)
ICHFILTER	IQUANT	3	Ich Filter
VCHRANGE	IQUANT	2	Vch Range
VCHRANGEMODE	TOGGLE	F	Vch Auto Range
VCHOFFSETENABLE	TOGGLE	T	Vch Offset Enable
VCHOFFSET	QUANT	0	Vch Offset (V)
VCHFILTER	IQUANT	3	Vch Filter
ACHRANGE	IQUANT	2	Ach Range
ACHOFFSETENABLE	TOGGLE	F	Ach Offset Enable
ACHOFFSET	QUANT	0	Ach Offset (V)
ACHFILTER	IQUANT	3	Ach Filter
IERANGELOWERLIMIT	IQUANT	2	I/E Range Lower Limit
IERANGEMODE	TOGGLE	F	I/E AutoRange
IERANGE	IQUANT	11	I/E Range
POSFEEDENABLE	TOGGLE	F	Positive Feedback IR Comp
POSFEEDRESISTANCE	QUANT	0	Positive Feedback Resistance (ohm)
ACHSELECT	IQUANT	0	Ach Select
CABLEID	IQUANT	13	Cable ID
DCCALDATE	LABEL	7/31/2020	DC Calibration Date
ACCALDATE	LABEL	7/31/2020	AC Calibration Date
THERMOSELECT	IQUANT	1	Thermo Select
FRAMEWORKVERSION	QUANT	6.33	Framework Version
INSTRUMENTVERSION	LABEL	3.50	Instrument Version
COMPLIANCEVOLTAGE	IQUANT	0	Compliance Voltage
ZCURVE	TABLE
	Pt	Time	Freq	Zreal	Zimag	Zsig	Zmod	Zphz	Idc	Vdc	IERange
	#	s	Hz	ohm	ohm	V	ohm	°	A	V	#
	0	8	300046.9	150.6372	-7.081793	1	150.8035	-2.691622	-4.474049E-006	-0.0008246	9
	1	11	238359.4	151.2233	-5.621567	1	151.3277	-2.128931	1.657669E-005	0.0015757	9
	2	15	189328.1	151.3565	-5.656086	1	151.4622	-2.140107	-9.860257E-006	-0.0008179	9
	3	17	150421.9	151.8374	-5.237337	1	151.9277	-1.975524	-1.012272E-005	-0.0007721	9
	4	20	119484.4	152.4564	-4.7413	1	152.5301	-1.781289	1.0083E-005	0.000834	9
	5	22	94921.88	152.6518	-4.247519	1	152.7108	-1.593838	4.348983E-006	0.0004673	9
	6	25	75421.88	153.0411	-4.372987	1	153.1035	-1.636721	-5.607435E-006	-0.0003609	9
	7	27	59859.37	153.3882	-4.594427	1	153.4569	-1.715664	-6.414713E-006	-0.0004252	9
	8	30	47578.12	153.8344	-4.924369	1	153.9132	-1.83346	3.672671E-006	0.0003972	9
	9	32	37828.12	154.2761	-5.410197	1	154.371	-2.008441	-3.425777E-006	-0.0003142	9
	10	35	30046.88	154.8516	-6.109568	1	154.9721	-2.259396	-7.680392E-006	-0.0005061	9
	11	37	23859.38	155.4988	-7.008223	1	155.6566	-2.580535	-1.019644E-005	-0.0007081	9
	12	40	18984.38	156.2101	-8.045417	1	156.4172	-2.948346	-5.351909E-006	-0.000325	9
	13	42	15046.87	157.1559	-9.323874	1	157.4322	-3.395312	6.189029E-006	0.0006019	9
	14	44	11953.13	158.2446	-10.84045	1	158.6155	-3.91889	-3.451986E-006	-0.0003083	9
	15	47	9515.62	159.4675	-12.51181	1	159.9575	-4.486232	-7.501891E-006	-0.0004528	9
	16	49	7546.875	160.9447	-14.50928	1	161.5974	-5.15133	6.92147E-006	0.0007029	9
	17	51	5928.309	162.7262	-16.86081	1	163.5974	-5.915568	-6.248243E-006	-0.0004158	9
	18	54	4733.456	164.5998	-19.37024	1	165.7356	-6.711747	-9.455248E-006	-0.000646	9
	19	56	3796.875	166.7301	-22.17874	1	168.1987	-7.577106	1.060226E-006	0.0001374	9
	20	58	2987.132	169.217	-25.66835	1	171.1527	-8.625385	-3.5801E-006	-0.000304	9
	21	60	2390.625	171.8611	-29.54746	1	174.3826	-9.75529	5.412685E-006	0.0005447	9
	22	63	1884.191	174.9727	-34.28454	1	178.2999	-11.08621	-4.825858E-006	-0.0002714	9
	23	65	1516.544	178.2676	-39.42519	1	182.5751	-12.47066	3.548931E-006	0.0003694	9
	24	67	1193.986	182.3087	-46.04087	1	188.0325	-14.17332	6.777643E-006	0.0006687	9
	25	70	946.5144	186.7765	-53.52623	1	194.2949	-15.99119	7.162387E-006	0.0006871	9
	26	72	751.7689	192.0001	-62.50135	1	201.917	-18.0315	-2.135998E-006	-3.770287E-005	9
	27	75	597.4265	197.7539	-72.97307	1	210.7882	-20.25454	-5.21317E-006	-0.0003041	9
	28	77	477.4305	204.3147	-84.87439	1	221.2423	-22.55849	-4.833096E-007	6.991211E-005	9
	29	79	376.6741	212.3237	-99.8367	1	234.6246	-25.18338	-4.59701E-007	6.505979E-005	9
	30	82	298.2954	221.5069	-117.3187	1	250.6571	-27.90745	-4.696831E-007	6.84015E-005	9
	31	84	237.7717	231.9976	-137.4438	1	269.6548	-30.64404	-4.243695E-007	6.500266E-005	9
	32	86	189.0121	244.4382	-161.3608	1	292.8947	-33.42997	-4.265293E-007	7.065988E-005	9
	33	89	150.2404	259.024	-189.571	1	320.9838	-36.19916	-4.211069E-007	6.458884E-005	9
	34	91	119.1737	276.4667	-222.9517	1	355.1638	-38.88383	-4.40738E-007	7.155817E-005	9
	35	93	95.0169	295.1807	-260.2812	1	393.5453	-41.40485	-1.637459E-007	0.0006471	8
	36	96	75.60484	319.0268	-305.477	1	441.6947	-43.75705	-1.41207E-007	0.0006416	8
	37	98	54.50582	361.0308	-383.877	1	526.977	-46.75671	-1.060178E-007	0.0006423	8
	38	101	45.95588	388.0532	-431.7928	1	580.5431	-48.05389	1.608581E-008	0.0006485	8
	39	103	37.20238	426.7304	-499.7442	1	657.1477	-49.50606	4.393154E-008	0.0006465	8
	40	106	30.04808	473.5475	-579.1832	1	748.1313	-50.73013	-4.860023E-008	0.0006474	8
	41	108	23.91582	534.4257	-675.455	1	861.3073	-51.64866	-6.255554E-008	0.000644	8
	42	111	18.60119	617.3491	-796.994	1	1008.127	-52.23875	1.216411E-007	0.0006519	8
	43	113	15.02404	703.4442	-914.2996	1	1153.593	-52.42602	3.669645E-009	0.0006395	8
	44	115	12.01923	811.1135	-1047.924	1	1325.161	-52.25945	8.573341E-008	0.0006478	8
	45	118	9.450605	951.391	-1205.648	1	1535.816	-51.72259	-4.577329E-008	0.0006578	8
	46	121	7.512019	1112.089	-1364.52	1	1760.3	-50.81984	-5.417983E-008	0.0006329	8
	47	124	5.978954	1296.03	-1525.946	1	2002.05	-49.65781	-6.736689E-008	0.0006494	8
	48	128	4.734848	1515.806	-1696.164	1	2274.784	-48.21388	-7.469467E-008	0.0006395	8
	49	133	3.75601	1761.965	-1865.198	1	2565.83	-46.63026	-1.403943E-007	0.000638	8
	50	138	3.004808	2027.68	-2028.061	1	2867.842	-45.00539	-1.375398E-007	0.0006497	8
	51	145	2.372217	2348.342	-2201.339	1	3218.789	-43.14938	-1.223862E-007	0.0007108	8
	52	149	1.878005	2677.581	-2342.018	1	3557.314	-41.17543	-2.122548E-007	0.0006341	8
	53	154	1.512097	3002.644	-2477.971	1	3893.098	-39.5316	-2.26829E-007	0.000624	7
	54	164	1.201923	3379.78	-2613.112	1	4272.15	-37.70978	-2.300306E-007	0.0005929	7
	55	177	0.956633	3791.817	-2753.082	1	4685.866	-35.98185	-3.442759E-007	-2.31416E-005	7
