EXPLAIN
TAG	EISPOT
TITLE	LABEL	Potentiostatic EIS	Test Identifier
DATE	LABEL	8/31/2020	Date
TIME	LABEL	13:42:11	Time
NOTES	NOTES	1	Notes...
	
PSTAT	PSTAT	REF3000-16137	Potentiostat
VDC	POTEN	0.00000E+000	T	DC Voltage (V)
FREQINIT	QUANT	3.00000E+005	Initial Freq. (Hz)
FREQFINAL	QUANT	1.00000E+000	Final Freq. (Hz)
PTSPERDEC	QUANT	1.00000E+001	Points/decade
VAC	QUANT	5.00000E+001	AC Voltage (mV rms)
AREA	QUANT	1.00000E+000	Sample Area (cm^2)
SPEED	SELECTOR	2	Optimize for:
ZGUESS	QUANT	1.00000E+003	Estimated Z (ohms)
EOC	QUANT	0	Open Circuit (V)
SEQUENCER	TOGGLE	TRUE	Run as Sequence
PSTATMODEL	IQUANT	5	Pstat Model
PSTATSECTION	LABEL	REF3000-16137	Pstat Section
PSTATSERIALNO	LABEL	16137	Pstat Serial Number
CTRLMODE	IQUANT	1	Control Mode
IESTAB	IQUANT	0	I/E Stability
CASPEED	IQUANT	1	Control Amp Speed
CONVENTION	IQUANT	1	Current Convention
ICHRANGE	IQUANT	2	Ich Range
ICHRANGEMODE	TOGGLE	F	Ich Auto Range
ICHOFFSETENABLE	TOGGLE	T	Ich Offset Enable
ICHOFFSET	QUANT	0	Ich Offset (V)
ICHFILTER	IQUANT	3	Ich Filter
VCHRANGE	IQUANT	2	Vch Range
VCHRANGEMODE	TOGGLE	F	Vch Auto Range
VCHOFFSETENABLE	TOGGLE	T	Vch Offset Enable
VCHOFFSET	QUANT	0	Vch Offset (V)
VCHFILTER	IQUANT	3	Vch Filter
ACHRANGE	IQUANT	2	Ach Range
ACHOFFSETENABLE	TOGGLE	F	Ach Offset Enable
ACHOFFSET	QUANT	0	Ach Offset (V)
ACHFILTER	IQUANT	3	Ach Filter
IERANGELOWERLIMIT	IQUANT	2	I/E Range Lower Limit
IERANGEMODE	TOGGLE	F	I/E AutoRange
IERANGE	IQUANT	11	I/E Range
POSFEEDENABLE	TOGGLE	F	Positive Feedback IR Comp
POSFEEDRESISTANCE	QUANT	0	Positive Feedback Resistance (ohm)
ACHSELECT	IQUANT	0	Ach Select
CABLEID	IQUANT	13	Cable ID
DCCALDATE	LABEL	7/31/2020	DC Calibration Date
ACCALDATE	LABEL	7/31/2020	AC Calibration Date
THERMOSELECT	IQUANT	1	Thermo Select
FRAMEWORKVERSION	QUANT	6.33	Framework Version
INSTRUMENTVERSION	LABEL	3.50	Instrument Version
COMPLIANCEVOLTAGE	IQUANT	0	Compliance Voltage
ZCURVE	TABLE
	Pt	Time	Freq	Zreal	Zimag	Zsig	Zmod	Zphz	Idc	Vdc	IERange
	#	s	Hz	ohm	ohm	V	ohm	°	A	V	#
	0	8	300046.9	682.7656	-204.4177	1	712.71	-16.66752	-5.975667E-006	0.0013217	9
	1	11	238359.4	701.4124	-172.4913	1	722.3106	-13.81601	-1.098402E-005	-0.0016674	9
	2	14	189328.1	721.0125	-147.0096	1	735.847	-11.52426	3.028683E-006	0.0004024	9
	3	17	150421.9	736.5433	-120.8752	1	746.3959	-9.319818	-9.991212E-006	-0.0019337	9
	4	21	119484.4	747.1665	-94.77799	1	753.1538	-7.229353	2.638379E-006	0.0004193	8
	5	23	94921.88	753.8826	-79.49833	1	758.0627	-6.0197	2.196017E-006	0.0004903	8
	6	26	75421.88	759.7115	-68.27798	1	762.7735	-5.135579	-1.811545E-006	0.0006606	8
	7	28	59859.37	764.3553	-58.72182	1	766.6076	-4.393136	-3.472815E-006	0.0007188	8
	8	31	47578.12	769.1758	-50.41599	1	770.8263	-3.750114	1.365563E-006	0.0004911	8
	9	34	37828.12	773.9572	-44.75791	1	775.2502	-3.309726	2.078471E-006	0.000547	8
	10	36	30046.88	777.9033	-41.19023	1	778.993	-3.030999	-2.739255E-006	0.0006866	8
	11	39	23859.38	782.2994	-38.51268	1	783.2468	-2.818402	2.188318E-006	0.0005484	8
	12	41	18984.38	786.5441	-37.07019	1	787.4172	-2.69838	-7.603671E-007	0.0006293	8
	13	43	15046.87	790.2363	-37.67429	1	791.1339	-2.729493	2.54153E-007	0.0005534	8
	14	46	11953.13	795.4237	-39.15794	1	796.387	-2.818341	1.586827E-006	0.0005137	8
	15	48	9515.62	800.3977	-41.4929	1	801.4725	-2.967577	-3.508139E-006	0.0007532	8
	16	50	7546.875	806.3124	-44.98313	1	807.5662	-3.193147	8.767908E-007	0.0005345	8
	17	52	5928.309	812.0024	-50.38334	1	813.564	-3.550552	-2.046732E-006	0.0005971	8
	18	55	4733.456	819.9375	-56.23004	1	821.8633	-3.923113	2.204137E-006	0.0005326	8
	19	57	3796.875	827.0857	-62.68435	1	829.4577	-4.334129	-7.991923E-007	0.0006004	8
	20	59	2987.132	836.7548	-71.75141	1	839.8254	-4.901103	-1.802924E-006	0.0007315	8
	21	62	2390.625	845.4252	-80.93151	1	849.2902	-5.468191	-2.219E-006	0.0006005	8
	22	64	1884.191	857.5252	-92.24567	1	862.4725	-6.139809	2.258649E-006	0.0005138	8
	23	66	1516.544	868.9734	-104.2032	1	875.1989	-6.837986	-3.407975E-006	0.000782	8
	24	69	1193.986	882.9609	-118.646	1	890.8967	-7.653154	-2.569155E-006	0.000671	8
	25	71	946.5144	898.4128	-135.0105	1	908.5007	-8.546271	2.009685E-006	0.0005116	8
	26	73	751.7689	914.7355	-154.2975	1	927.6577	-9.57452	-3.167271E-006	0.0007776	8
	27	76	597.4265	932.4415	-176.5233	1	949.0035	-10.71997	1.766813E-006	0.0006502	8
	28	78	477.4305	951.087	-201.5663	1	972.212	-11.96579	-5.394212E-007	0.0006487	8
	29	80	376.6741	973.274	-233.2134	1	1000.825	-13.47501	-5.28658E-007	0.0006476	8
	30	83	298.2954	997.759	-270.2861	1	1033.721	-15.15726	-5.46582E-007	0.0006494	8
	31	85	237.7717	1024.852	-313.0454	1	1071.597	-16.98551	-5.321783E-007	0.0006459	8
	32	87	189.0121	1056.083	-364.2045	1	1117.119	-19.02745	-5.437536E-007	0.0006466	8
	33	90	150.2404	1091.946	-424.6707	1	1171.619	-21.25164	-5.390797E-007	0.0006493	8
	34	92	119.1737	1133.844	-496.9453	1	1237.964	-23.66706	-5.35893E-007	0.0006443	8
	35	95	95.0169	1181.61	-580.5665	1	1316.533	-26.16651	-5.301586E-007	0.0006438	8
	36	97	75.60484	1238.463	-679.8558	1	1412.797	-28.76463	-5.304854E-007	0.00064	8
	37	100	54.50582	1337.543	-852.2622	1	1585.992	-32.50468	-5.20211E-007	0.00064	8
	38	102	45.95588	1401.639	-958.304	1	1697.922	-34.36051	-5.010114E-007	0.0006433	8
	39	105	37.20238	1492.232	-1107.2	1	1858.13	-36.57452	-5.143718E-007	0.0006478	8
	40	107	30.04808	1600.003	-1279.391	1	2048.622	-38.64645	-5.109838E-007	0.0006429	8
	41	109	23.91582	1735.035	-1488.504	1	2286.043	-40.62663	-5.140502E-007	0.0006456	8
	42	112	18.60119	1910.199	-1752.576	1	2592.37	-42.53587	-5.426807E-007	0.0006582	8
	43	114	15.02404	2086.538	-2011.605	1	2898.31	-43.95249	-4.703822E-007	0.0006427	8
	44	116	12.01923	2301.787	-2316.803	1	3265.854	-45.18628	-4.040281E-007	0.0006525	8
	45	119	9.450605	2568.773	-2703.776	1	3729.477	-46.46673	-5.00371E-007	0.0006462	8
	46	121	7.512019	2876.494	-3130.416	1	4251.32	-47.42055	-9.046515E-009	0.0006021	7
	47	124	5.978954	3233.11	-3603.867	1	4841.576	-48.10401	3.35735E-008	0.000626	7
	48	127	4.734848	3667.966	-4162.427	1	5547.952	-48.61322	6.12297E-009	0.0006144	7
	49	130	3.75601	4175.775	-4784.207	1	6350.254	-48.88473	9.732929E-009	0.0006347	7
	50	136	3.004808	4763.57	-5452.631	1	7240.358	-48.85864	-1.504377E-008	0.0006436	7
	51	142	2.372217	5498.648	-6212.468	1	8296.378	-48.488	1.864515E-008	0.0006324	7
	52	146	1.878005	6375.071	-7010.479	1	9475.671	-47.71777	-3.642616E-009	0.0006017	7
	53	155	1.512097	7307.809	-7842.897	1	10719.85	-47.02272	-2.028546E-008	0.0007016	7
	54	166	1.201923	8462.186	-8753.045	1	12174.74	-45.96795	-2.345536E-008	0.0006147	7
	55	179	0.956633	9771.95	-9717.54	1	13781.21	-44.84005	-6.686866E-008	-1.642382E-005	7
