EXPLAIN
TAG	EISPOT
TITLE	LABEL	Potentiostatic EIS	Test Identifier
DATE	LABEL	8/31/2020	Date
TIME	LABEL	14:43:00	Time
NOTES	NOTES	1	Notes...
	
PSTAT	PSTAT	REF3000-16137	Potentiostat
VDC	POTEN	0.00000E+000	T	DC Voltage (V)
FREQINIT	QUANT	3.00000E+005	Initial Freq. (Hz)
FREQFINAL	QUANT	1.00000E+000	Final Freq. (Hz)
PTSPERDEC	QUANT	1.00000E+001	Points/decade
VAC	QUANT	5.00000E+001	AC Voltage (mV rms)
AREA	QUANT	1.00000E+000	Sample Area (cm^2)
SPEED	SELECTOR	2	Optimize for:
ZGUESS	QUANT	1.00000E+003	Estimated Z (ohms)
EOC	QUANT	0	Open Circuit (V)
SEQUENCER	TOGGLE	TRUE	Run as Sequence
PSTATMODEL	IQUANT	5	Pstat Model
PSTATSECTION	LABEL	REF3000-16137	Pstat Section
PSTATSERIALNO	LABEL	16137	Pstat Serial Number
CTRLMODE	IQUANT	1	Control Mode
IESTAB	IQUANT	0	I/E Stability
CASPEED	IQUANT	1	Control Amp Speed
CONVENTION	IQUANT	1	Current Convention
ICHRANGE	IQUANT	2	Ich Range
ICHRANGEMODE	TOGGLE	F	Ich Auto Range
ICHOFFSETENABLE	TOGGLE	T	Ich Offset Enable
ICHOFFSET	QUANT	0	Ich Offset (V)
ICHFILTER	IQUANT	3	Ich Filter
VCHRANGE	IQUANT	2	Vch Range
VCHRANGEMODE	TOGGLE	F	Vch Auto Range
VCHOFFSETENABLE	TOGGLE	T	Vch Offset Enable
VCHOFFSET	QUANT	0	Vch Offset (V)
VCHFILTER	IQUANT	3	Vch Filter
ACHRANGE	IQUANT	2	Ach Range
ACHOFFSETENABLE	TOGGLE	F	Ach Offset Enable
ACHOFFSET	QUANT	0	Ach Offset (V)
ACHFILTER	IQUANT	3	Ach Filter
IERANGELOWERLIMIT	IQUANT	2	I/E Range Lower Limit
IERANGEMODE	TOGGLE	F	I/E AutoRange
IERANGE	IQUANT	11	I/E Range
POSFEEDENABLE	TOGGLE	F	Positive Feedback IR Comp
POSFEEDRESISTANCE	QUANT	0	Positive Feedback Resistance (ohm)
ACHSELECT	IQUANT	0	Ach Select
CABLEID	IQUANT	13	Cable ID
DCCALDATE	LABEL	7/31/2020	DC Calibration Date
ACCALDATE	LABEL	7/31/2020	AC Calibration Date
THERMOSELECT	IQUANT	1	Thermo Select
FRAMEWORKVERSION	QUANT	6.33	Framework Version
INSTRUMENTVERSION	LABEL	3.50	Instrument Version
COMPLIANCEVOLTAGE	IQUANT	0	Compliance Voltage
ZCURVE	TABLE
	Pt	Time	Freq	Zreal	Zimag	Zsig	Zmod	Zphz	Idc	Vdc	IERange
	#	s	Hz	ohm	ohm	V	ohm	°	A	V	#
	0	14	300046.9	107.7948	-2477.957	1	2480.3	-87.50912	-2.702665E-006	0.0012466	9
	1	28	238359.4	159.7524	-3092.656	1	3096.779	-87.04299	-5.007382E-006	-0.0016443	9
	2	43	189328.1	100.7807	-3852.565	1	3853.883	-88.50152	-1.743562E-005	0.0023465	9
	3	51	150421.9	223.6983	-4858.398	1	4863.545	-87.36375	-1.015129E-006	-0.0002409	9
	4	59	119484.4	302.2363	-6005.581	1	6013.182	-87.11897	-5.654296E-006	0.0016048	8
	5	66	94921.88	353.1654	-7542.292	1	7550.555	-87.3191	2.352097E-006	0.0002254	8
	6	70	75421.88	465.577	-9432.761	1	9444.243	-87.17432	2.241654E-006	0.0006801	8
	7	73	59859.37	545.4496	-11769.82	1	11782.45	-87.34663	-1.520228E-006	0.0010224	8
	8	77	47578.12	901.0597	-14839.52	1	14866.85	-86.52525	6.582514E-007	-0.0026163	7
	9	80	37828.12	1195.683	-18548.45	1	18586.95	-86.31166	8.613785E-007	-0.0029251	7
	10	83	30046.88	1533.01	-23262.79	1	23313.25	-86.22968	8.101418E-007	-0.0013762	7
	11	86	23859.38	2274.176	-29099.21	1	29187.94	-85.53127	8.669084E-007	-0.002645	7
	12	88	18984.38	3218.099	-36328.78	1	36471.04	-84.93781	9.376963E-007	-0.0023654	7
	13	92	15046.87	4855.853	-45697.7	1	45954.97	-83.93449	-4.206729E-007	0.0029331	7
	14	97	11953.13	6836.348	-57033.71	1	57441.97	-83.16485	-1.482756E-007	-0.000693	7
	15	102	9515.62	9162.086	-70886.39	1	71476.04	-82.63533	-6.843926E-007	0.0034883	7
	16	106	7546.875	14939.37	-88282.55	1	89537.66	-80.39527	7.618416E-007	-0.0011799	7
	17	111	5928.309	21785.28	-111346	1	113457.1	-78.9297	7.439655E-007	-0.0011488	7
	18	116	4733.456	32494.04	-135403.3	1	139247.6	-76.50536	6.894756E-008	-0.0026719	6
	19	118	3796.875	45823.33	-164183.3	1	170458	-74.40566	-1.031559E-007	0.0037178	6
	20	121	2987.132	69295.5	-200280.9	1	211929.9	-70.91481	8.632983E-008	-0.0028811	6
	21	124	2390.625	98520.9	-237264.1	1	256905.8	-67.44994	-8.473024E-008	0.0040081	6
	22	127	1884.191	142662.9	-278990.8	1	313350.6	-62.91691	9.152279E-008	-0.0026989	6
	23	131	1516.544	192722.6	-314039.1	1	368459.7	-58.46299	9.169806E-008	-0.0027532	6
	24	135	1193.986	261431.7	-346760	1	434268.4	-52.98637	6.726263E-008	-0.0027488	6
	25	141	946.5144	342797.4	-371619.5	1	505580	-47.31026	-8.471346E-008	0.0040521	6
	26	145	751.7689	421742.4	-373887.6	1	563612.1	-41.55797	-3.681108E-008	0.0029787	6
	27	147	597.4265	503313.1	-360652.1	1	619188.2	-35.62373	-8.422669E-008	0.0040408	6
	28	150	477.4305	575439.9	-339406.3	1	668077.6	-30.53298	-1.228609E-009	0.0006639	5
	29	152	376.6741	639221.9	-307211.1	1	709213.1	-25.66902	-1.185037E-009	0.0006523	5
	30	154	298.2954	690048.8	-271989.9	1	741718.2	-21.51239	-1.2484E-009	0.0006587	5
	31	157	237.7717	729482.7	-238500.6	1	767481.3	-18.10489	-1.166209E-009	0.0006414	5
	32	159	189.0121	761078.8	-207366.8	1	788823.1	-15.24109	-1.2298E-009	0.0006538	5
	33	162	150.2404	786298.6	-180327.7	1	806711.5	-12.9167	-1.168171E-009	0.0006469	5
	34	164	119.1737	807135.5	-157526.5	1	822363.9	-11.04344	-1.266945E-009	0.0006575	5
	35	166	95.0169	824627.4	-139717.3	1	836379.8	-9.61635	-1.245683E-009	0.0006596	5
	36	169	75.60484	840452.6	-125890.3	1	849828.8	-8.518929	-1.264372E-009	0.0006448	5
	37	171	54.50582	859009.6	-112210.9	1	866307.5	-7.442309	-1.089001E-009	0.0006458	5
	38	174	45.95588	870981.6	-108065.9	1	877660	-7.072756	-1.195104E-009	0.0006628	5
	39	176	37.20238	884099.5	-105279	1	890345.8	-6.790832	-1.062529E-009	0.0006497	5
	40	179	30.04808	897998.8	-104770.8	1	904090	-6.654692	-1.312059E-009	0.000664	5
	41	181	23.91582	912916.3	-106870.2	1	919150.3	-6.676919	-1.373238E-009	0.0006582	5
	42	184	18.60119	930252.3	-112167.6	1	936990.4	-6.875393	-1.62799E-009	0.0006541	5
	43	186	15.02404	946781.1	-118074.7	1	954115	-7.108751	-7.402238E-010	0.0006586	5
	44	188	12.01923	964840	-127118.5	1	973178	-7.505541	-1.144761E-009	0.0006584	5
	45	191	9.450605	986166	-138896	1	995900	-8.017058	-1.55117E-009	0.0006617	5
	46	193	7.512019	1010418	-152765.2	1	1021901	-8.597444	-1.708849E-009	0.0006412	5
	47	196	5.978954	1038546	-167467.5	1	1051962	-9.160201	-1.732682E-009	0.0006543	5
	48	199	4.734848	1070470	-183366.1	1	1086061	-9.72015	-1.603236E-009	0.000644	5
	49	202	3.75601	1107207	-200133.4	1	1125149	-10.24588	-1.187524E-009	0.000647	5
	50	206	3.004808	1144839	-218192.5	1	1165446	-10.79047	-4.45288E-010	0.0006245	5
	51	209	2.372217	1188725	-234927.5	1	1211716	-11.1793	-1.086663E-009	0.0005791	5
	52	213	1.878005	1235801	-255824.7	1	1262003	-11.69567	-6.733388E-010	0.0006617	5
	53	218	1.512097	1285068	-276079.6	1	1314389	-12.12494	-4.502602E-010	0.0005873	5
	54	224	1.201923	1340870	-297583.7	1	1373495	-12.51304	-1.014083E-009	0.0006655	5
	55	230	0.956633	1404123	-323903.7	1	1440998	-12.98979	-1.84904E-009	1.342453E-005	5
