EXPLAIN
TAG	EISPOT
TITLE	LABEL	Potentiostatic EIS	Test Identifier
DATE	LABEL	8/31/2020	Date
TIME	LABEL	15:54:38	Time
NOTES	NOTES	1	Notes...
	
PSTAT	PSTAT	REF3000-16137	Potentiostat
VDC	POTEN	0.00000E+000	T	DC Voltage (V)
FREQINIT	QUANT	3.00000E+005	Initial Freq. (Hz)
FREQFINAL	QUANT	1.00000E+000	Final Freq. (Hz)
PTSPERDEC	QUANT	1.00000E+001	Points/decade
VAC	QUANT	5.00000E+001	AC Voltage (mV rms)
AREA	QUANT	1.00000E+000	Sample Area (cm^2)
SPEED	SELECTOR	2	Optimize for:
ZGUESS	QUANT	1.00000E+003	Estimated Z (ohms)
EOC	QUANT	0	Open Circuit (V)
SEQUENCER	TOGGLE	TRUE	Run as Sequence
PSTATMODEL	IQUANT	5	Pstat Model
PSTATSECTION	LABEL	REF3000-16137	Pstat Section
PSTATSERIALNO	LABEL	16137	Pstat Serial Number
CTRLMODE	IQUANT	1	Control Mode
IESTAB	IQUANT	0	I/E Stability
CASPEED	IQUANT	1	Control Amp Speed
CONVENTION	IQUANT	1	Current Convention
ICHRANGE	IQUANT	2	Ich Range
ICHRANGEMODE	TOGGLE	F	Ich Auto Range
ICHOFFSETENABLE	TOGGLE	T	Ich Offset Enable
ICHOFFSET	QUANT	0	Ich Offset (V)
ICHFILTER	IQUANT	3	Ich Filter
VCHRANGE	IQUANT	2	Vch Range
VCHRANGEMODE	TOGGLE	F	Vch Auto Range
VCHOFFSETENABLE	TOGGLE	T	Vch Offset Enable
VCHOFFSET	QUANT	0	Vch Offset (V)
VCHFILTER	IQUANT	3	Vch Filter
ACHRANGE	IQUANT	2	Ach Range
ACHOFFSETENABLE	TOGGLE	F	Ach Offset Enable
ACHOFFSET	QUANT	0	Ach Offset (V)
ACHFILTER	IQUANT	3	Ach Filter
IERANGELOWERLIMIT	IQUANT	2	I/E Range Lower Limit
IERANGEMODE	TOGGLE	F	I/E AutoRange
IERANGE	IQUANT	11	I/E Range
POSFEEDENABLE	TOGGLE	F	Positive Feedback IR Comp
POSFEEDRESISTANCE	QUANT	0	Positive Feedback Resistance (ohm)
ACHSELECT	IQUANT	0	Ach Select
CABLEID	IQUANT	13	Cable ID
DCCALDATE	LABEL	7/31/2020	DC Calibration Date
ACCALDATE	LABEL	7/31/2020	AC Calibration Date
THERMOSELECT	IQUANT	1	Thermo Select
FRAMEWORKVERSION	QUANT	6.33	Framework Version
INSTRUMENTVERSION	LABEL	3.50	Instrument Version
COMPLIANCEVOLTAGE	IQUANT	0	Compliance Voltage
ZCURVE	TABLE
	Pt	Time	Freq	Zreal	Zimag	Zsig	Zmod	Zphz	Idc	Vdc	IERange
	#	s	Hz	ohm	ohm	V	ohm	°	A	V	#
	0	12	300046.9	962.622	-498.037	1	1083.828	-27.35593	6.248695E-006	0.0013686	9
	1	18	238359.4	1032.511	-435.9418	1	1120.77	-22.8902	-1.048098E-005	-0.001671	9
	2	22	189328.1	1091.545	-369.8807	1	1152.511	-18.71945	-2.874224E-006	-0.0002405	9
	3	25	150421.9	1127.056	-314.9169	1	1170.226	-15.61119	7.989747E-007	0.0006823	9
	4	30	119484.4	1149.166	-259.2886	1	1178.055	-12.71484	-1.153803E-006	0.0009176	8
	5	33	94921.88	1166.016	-214.5432	1	1185.589	-10.42563	-1.456595E-006	0.0006011	8
	6	36	75421.88	1176.128	-179.6566	1	1189.771	-8.684943	6.707189E-007	0.0006009	8
	7	38	59859.37	1180.976	-153.3335	1	1190.889	-7.397683	-3.561921E-006	0.0006758	8
	8	41	47578.12	1183.869	-131.1285	1	1191.109	-6.320474	-3.555899E-006	0.0007157	8
	9	43	37828.12	1183.355	-112.5087	1	1188.692	-5.431127	1.651992E-006	0.0005518	8
	10	46	30046.88	1181.696	-100.2095	1	1185.938	-4.847165	-1.065351E-007	0.0005932	8
	11	48	23859.38	1179.104	-90.83606	1	1182.598	-4.405264	-3.877912E-006	0.0007376	8
	12	51	18984.38	1176.781	-85.23788	1	1179.864	-4.142874	-8.642791E-007	0.0006018	8
	13	53	15046.87	1175.783	-82.42117	1	1178.668	-4.009815	-3.437885E-006	0.0007883	8
	14	55	11953.13	1173.853	-80.89308	1	1176.637	-3.942159	-1.210462E-006	0.0006827	8
	15	58	9515.62	1171.941	-82.32669	1	1174.829	-4.01832	-3.010068E-006	0.0006845	8
	16	60	7546.875	1171.144	-83.8279	1	1174.14	-4.094123	-2.086989E-007	0.0005818	8
	17	62	5928.309	1171.205	-89.4264	1	1174.615	-4.366299	-1.341346E-007	0.0005762	8
	18	65	4733.456	1171.499	-93.46352	1	1175.221	-4.561462	1.258558E-006	0.0006404	8
	19	67	3796.875	1173.774	-98.5214	1	1177.902	-4.797907	-2.62429E-007	0.0005836	8
	20	69	2987.132	1177.796	-104.7431	1	1182.444	-5.082028	-2.182025E-006	0.0007118	8
	21	72	2390.625	1186.326	-112.621	1	1191.66	-5.422983	-1.019899E-006	0.0006149	8
	22	74	1884.191	1192.734	-117.737	1	1198.53	-5.637512	5.75371E-007	0.0006078	8
	23	76	1516.544	1194.904	-125.176	1	1201.442	-5.98039	-1.613273E-006	0.0006306	8
	24	79	1193.986	1200.971	-132.0197	1	1208.205	-6.273194	1.213242E-006	0.0006444	8
	25	81	946.5144	1206.803	-139.9017	1	1214.886	-6.61264	1.261441E-006	0.0006169	8
	26	83	751.7689	1212.831	-147.9843	1	1221.826	-6.956589	-3.881925E-006	0.0007654	8
	27	86	597.4265	1219.837	-156.8876	1	1229.885	-7.328784	-1.157404E-006	0.0006599	8
	28	88	477.4305	1226.254	-165.3009	1	1237.345	-7.677282	-1.045569E-006	0.0006529	8
	29	90	376.6741	1234.591	-176.4409	1	1247.135	-8.133326	-1.014512E-006	0.0006205	8
	30	93	298.2954	1243.428	-189.1707	1	1257.736	-8.650439	-1.003532E-006	0.0006515	8
	31	95	237.7717	1251.618	-203.7062	1	1268.087	-9.244078	-1.005913E-006	0.0006533	8
	32	97	189.0121	1261.332	-221.3509	1	1280.607	-9.95347	-9.815702E-007	0.0006523	8
	33	100	150.2404	1272.412	-242.1971	1	1295.258	-10.77703	-9.628804E-007	0.0006474	8
	34	102	119.1737	1285.758	-267.4393	1	1313.277	-11.75006	-9.707118E-007	0.0006486	8
	35	105	95.0169	1300.527	-296.6025	1	1333.92	-12.84733	-9.791737E-007	0.0006526	8
	36	107	75.60484	1318.153	-331.3244	1	1359.155	-14.10929	-9.194934E-007	0.0006525	8
	37	110	54.50582	1357.055	-392.0689	1	1412.557	-16.11461	-8.94673E-007	0.0006505	8
	38	112	45.95588	1375.667	-429.4116	1	1441.129	-17.33565	-8.383984E-007	0.0006535	8
	39	115	37.20238	1407.377	-482.1718	1	1487.683	-18.91162	-8.468253E-007	0.0006493	8
	40	117	30.04808	1445.879	-541.9229	1	1544.1	-20.54626	-8.193699E-007	0.0006463	8
	41	119	23.91582	1498.364	-614.1622	1	1619.348	-22.28816	-7.402186E-007	0.0006471	8
	42	122	18.60119	1573.875	-704.3231	1	1724.284	-24.10894	-6.422031E-007	0.0006473	8
	43	124	15.02404	1647.843	-786.5692	1	1825.946	-25.51667	-7.360761E-007	0.0006506	8
	44	126	12.01923	1739.807	-877.9746	1	1948.787	-26.77729	-9.080675E-007	0.0006484	8
	45	129	9.450605	1856.959	-973.687	1	2096.75	-27.67003	-7.105382E-007	0.000644	8
	46	131	7.512019	1983.134	-1067.689	1	2252.283	-28.29733	-7.380946E-007	0.0006438	8
	47	134	5.978954	2119.009	-1157.853	1	2414.709	-28.65275	-7.808257E-007	0.0006533	8
	48	137	4.734848	2271.826	-1239.174	1	2587.807	-28.61038	-7.91061E-007	0.0006713	8
	49	140	3.75601	2436.813	-1322.264	1	2772.443	-28.48516	-9.381479E-007	0.0006367	8
	50	144	3.004808	2603.509	-1396.657	1	2954.473	-28.21141	-9.949601E-007	0.0006785	8
	51	147	2.372217	2784.412	-1455.739	1	3141.994	-27.60135	-8.786652E-007	0.0007268	8
	52	152	1.878005	2954.141	-1502.583	1	3314.318	-26.95953	-9.63509E-007	0.0006252	8
	53	156	1.512097	3128.87	-1561.864	1	3497.034	-26.52738	-9.485787E-007	0.0006996	8
	54	162	1.201923	3292.112	-1610.129	1	3664.767	-26.06266	-8.331339E-007	0.0006137	8
	55	175	0.956633	3554.881	-1720.391	1	3949.294	-25.82475	-6.055536E-007	-7.890744E-006	7
