EXPLAIN
TAG	EISPOT
TITLE	LABEL	Potentiostatic EIS	Test Identifier
DATE	LABEL	8/31/2020	Date
TIME	LABEL	14:31:19	Time
NOTES	NOTES	1	Notes...
	
PSTAT	PSTAT	REF3000-16137	Potentiostat
VDC	POTEN	0.00000E+000	T	DC Voltage (V)
FREQINIT	QUANT	3.00000E+005	Initial Freq. (Hz)
FREQFINAL	QUANT	1.00000E+000	Final Freq. (Hz)
PTSPERDEC	QUANT	1.00000E+001	Points/decade
VAC	QUANT	5.00000E+001	AC Voltage (mV rms)
AREA	QUANT	1.00000E+000	Sample Area (cm^2)
SPEED	SELECTOR	2	Optimize for:
ZGUESS	QUANT	1.00000E+003	Estimated Z (ohms)
EOC	QUANT	0	Open Circuit (V)
SEQUENCER	TOGGLE	TRUE	Run as Sequence
PSTATMODEL	IQUANT	5	Pstat Model
PSTATSECTION	LABEL	REF3000-16137	Pstat Section
PSTATSERIALNO	LABEL	16137	Pstat Serial Number
CTRLMODE	IQUANT	1	Control Mode
IESTAB	IQUANT	0	I/E Stability
CASPEED	IQUANT	1	Control Amp Speed
CONVENTION	IQUANT	1	Current Convention
ICHRANGE	IQUANT	2	Ich Range
ICHRANGEMODE	TOGGLE	F	Ich Auto Range
ICHOFFSETENABLE	TOGGLE	T	Ich Offset Enable
ICHOFFSET	QUANT	0	Ich Offset (V)
ICHFILTER	IQUANT	3	Ich Filter
VCHRANGE	IQUANT	2	Vch Range
VCHRANGEMODE	TOGGLE	F	Vch Auto Range
VCHOFFSETENABLE	TOGGLE	T	Vch Offset Enable
VCHOFFSET	QUANT	0	Vch Offset (V)
VCHFILTER	IQUANT	3	Vch Filter
ACHRANGE	IQUANT	2	Ach Range
ACHOFFSETENABLE	TOGGLE	F	Ach Offset Enable
ACHOFFSET	QUANT	0	Ach Offset (V)
ACHFILTER	IQUANT	3	Ach Filter
IERANGELOWERLIMIT	IQUANT	2	I/E Range Lower Limit
IERANGEMODE	TOGGLE	F	I/E AutoRange
IERANGE	IQUANT	11	I/E Range
POSFEEDENABLE	TOGGLE	F	Positive Feedback IR Comp
POSFEEDRESISTANCE	QUANT	0	Positive Feedback Resistance (ohm)
ACHSELECT	IQUANT	0	Ach Select
CABLEID	IQUANT	13	Cable ID
DCCALDATE	LABEL	7/31/2020	DC Calibration Date
ACCALDATE	LABEL	7/31/2020	AC Calibration Date
THERMOSELECT	IQUANT	1	Thermo Select
FRAMEWORKVERSION	QUANT	6.33	Framework Version
INSTRUMENTVERSION	LABEL	3.50	Instrument Version
COMPLIANCEVOLTAGE	IQUANT	0	Compliance Voltage
ZCURVE	TABLE
	Pt	Time	Freq	Zreal	Zimag	Zsig	Zmod	Zphz	Idc	Vdc	IERange
	#	s	Hz	ohm	ohm	V	ohm	°	A	V	#
	0	15	300046.9	154.5459	-2481.267	1	2486.075	-86.43593	-1.076535E-006	-0.0003894	9
	1	28	238359.4	231.0215	-3077.277	1	3085.936	-85.70667	-4.917791E-006	-0.0016556	9
	2	42	189328.1	289.9697	-3822.427	1	3833.409	-85.66184	5.128786E-006	0.0012095	9
	3	51	150421.9	512.9786	-4611.871	1	4640.312	-83.65308	1.994532E-005	0.0013704	9
	4	58	119484.4	554.3229	-5919.507	1	5945.404	-84.65023	-1.081145E-005	0.0014811	8
	5	66	94921.88	761.8381	-7434.957	1	7473.886	-84.14949	2.241565E-006	0.0006821	8
	6	69	75421.88	1071.904	-9267.21	1	9328.996	-83.40212	2.274829E-006	0.0002686	8
	7	72	59859.37	1573.753	-11579.55	1	11686.01	-82.26047	2.426618E-007	0.0002201	8
	8	75	47578.12	2362.119	-14399.87	1	14592.32	-80.6843	-7.93407E-007	0.0017072	7
	9	78	37828.12	3360.939	-17850.49	1	18164.14	-79.33703	8.304253E-007	-0.0028451	7
	10	80	30046.88	4948.656	-21963.59	1	22514.18	-77.30261	9.550192E-007	-0.0027443	7
	11	83	23859.38	7288.597	-27036.68	1	28001.88	-74.91276	-2.423632E-007	-0.0004977	7
	12	86	18984.38	10481.86	-32810.19	1	34443.84	-72.2829	9.324895E-007	-0.0027703	7
	13	90	15046.87	15544.93	-39235.49	1	42202.71	-68.38675	-8.262073E-007	0.0038926	7
	14	95	11953.13	21604.98	-46380.31	1	51165.5	-65.02285	-9.865311E-007	0.00402	7
	15	100	9515.62	30084.03	-53454.46	1	61338.63	-60.62931	-6.306201E-007	0.0034827	7
	16	103	7546.875	41722.71	-58776.7	1	72079.72	-54.63091	-3.103184E-007	0.0027574	7
	17	108	5928.309	54621.52	-63463.12	1	83732.18	-49.28204	-1.081822E-006	0.0037892	7
	18	112	4733.456	68905.73	-65654.33	1	95176.1	-43.61582	3.98486E-008	-0.0022697	6
	19	114	3796.875	82056.88	-64853.99	1	104591.5	-38.32122	-1.071884E-007	0.0035838	6
	20	117	2987.132	96001.2	-61582.65	1	114055.5	-32.67927	-1.042738E-007	0.0040206	6
	21	119	2390.625	107440.6	-56777.11	1	121520	-27.85427	-1.030019E-007	0.0039278	6
	22	121	1884.191	117224.7	-50125.1	1	127491.8	-23.15148	-8.394471E-008	0.0040849	6
	23	124	1516.544	124440.7	-44946.07	1	132308.9	-19.85894	-9.501773E-008	0.0026759	6
	24	126	1193.986	130567.9	-38994.04	1	136266.3	-16.62823	8.49509E-008	-0.0030154	6
	25	129	946.5144	135219.4	-33681.54	1	139351.1	-13.98706	-7.690834E-008	0.0016261	6
	26	131	751.7689	139429.6	-29709.02	1	142559.6	-12.02844	5.169748E-008	-0.0002715	6
	27	134	597.4265	142511.3	-26175.88	1	144895.3	-10.40784	-9.510994E-008	0.0026547	6
	28	136	477.4305	145034	-23963.23	1	147000.4	-9.381927	-1.00929E-008	0.0006729	6
	29	139	376.6741	147555.1	-22027.87	1	149190.2	-8.490737	-1.013836E-008	0.0006631	6
	30	141	298.2954	149895.4	-20809.58	1	151332.9	-7.903707	-1.00227E-008	0.0006713	6
	31	143	237.7717	152221.8	-20223.73	1	153559.4	-7.567826	-1.031994E-008	0.0006736	6
	32	146	189.0121	154627.2	-20177.14	1	155938	-7.434462	-1.032527E-008	0.0006644	6
	33	148	150.2404	157166.4	-20613.11	1	158512.4	-7.471961	-9.972384E-009	0.0006664	6
	34	151	119.1737	159907.9	-21536.61	1	161351.7	-7.670517	-9.9118E-009	0.0006677	6
	35	153	95.0169	162895.5	-22866.82	1	164492.7	-7.990806	-1.040545E-008	0.0006629	6
	36	156	75.60484	166253	-24618.56	1	168065.8	-8.423088	-1.012955E-008	0.0006651	6
	37	158	54.50582	171392	-27766.49	1	173626.6	-9.202292	-9.422883E-009	0.000656	6
	38	161	45.95588	174807.5	-29695.49	1	177311.9	-9.6411	-9.932924E-009	0.000661	6
	39	163	37.20238	179265.2	-32313.76	1	182154.3	-10.21822	-1.085245E-008	0.0006629	6
	40	165	30.04808	184275	-35086.86	1	187585.6	-10.78035	-9.228807E-009	0.0006559	6
	41	168	23.91582	190105.9	-38145.61	1	193895.2	-11.34599	-1.110188E-008	0.0006571	6
	42	170	18.60119	197200.5	-41675.68	1	201556.2	-11.9331	-1.17607E-008	0.0006641	6
	43	172	15.02404	203555.4	-44606.29	1	208385.5	-12.36019	-9.453374E-009	0.0006587	6
	44	175	12.01923	210705.4	-47636.02	1	216023	-12.7392	-8.077359E-009	0.0006625	6
	45	177	9.450605	218673.7	-50973.45	1	224536.1	-13.1215	-6.894061E-009	0.0006719	6
	46	180	7.512019	226828.8	-54402.76	1	233261.6	-13.4871	-6.952853E-009	0.0006747	6
	47	183	5.978954	235664.7	-58247.05	1	242756.2	-13.88303	-1.06133E-008	0.0006635	6
	48	186	4.734848	244666.5	-62627.82	1	252554.9	-14.35784	-1.288378E-008	0.0006434	6
	49	189	3.75601	254150	-66880.66	1	262802.7	-14.74337	-8.088849E-009	0.0006768	6
	50	192	3.004808	263902.2	-72339.95	1	273637.4	-15.32918	-6.869814E-009	0.0006347	6
	51	196	2.372217	274356	-78023.6	1	285234.8	-15.87512	-9.193899E-009	0.0005904	6
	52	200	1.878005	285382.8	-85714.3	1	297977	-16.71756	-8.339533E-009	0.0006675	6
	53	205	1.512097	296500.7	-94189.58	1	311101.8	-17.62353	-7.986709E-009	0.0005887	6
	54	210	1.201923	309134.4	-104523.9	1	326327	-18.68132	-9.734424E-009	0.0006913	6
	55	217	0.956633	323714.8	-117938.7	1	344529.8	-20.01815	-1.19452E-008	2.759293E-005	6
