EXPLAIN
TAG	EISPOT
TITLE	LABEL	Potentiostatic EIS	Test Identifier
DATE	LABEL	8/31/2020	Date
TIME	LABEL	15:48:04	Time
NOTES	NOTES	1	Notes...
	
PSTAT	PSTAT	REF3000-16137	Potentiostat
VDC	POTEN	0.00000E+000	T	DC Voltage (V)
FREQINIT	QUANT	3.00000E+005	Initial Freq. (Hz)
FREQFINAL	QUANT	1.00000E+000	Final Freq. (Hz)
PTSPERDEC	QUANT	1.00000E+001	Points/decade
VAC	QUANT	5.00000E+001	AC Voltage (mV rms)
AREA	QUANT	1.00000E+000	Sample Area (cm^2)
SPEED	SELECTOR	2	Optimize for:
ZGUESS	QUANT	1.00000E+003	Estimated Z (ohms)
EOC	QUANT	0	Open Circuit (V)
SEQUENCER	TOGGLE	TRUE	Run as Sequence
PSTATMODEL	IQUANT	5	Pstat Model
PSTATSECTION	LABEL	REF3000-16137	Pstat Section
PSTATSERIALNO	LABEL	16137	Pstat Serial Number
CTRLMODE	IQUANT	1	Control Mode
IESTAB	IQUANT	0	I/E Stability
CASPEED	IQUANT	1	Control Amp Speed
CONVENTION	IQUANT	1	Current Convention
ICHRANGE	IQUANT	2	Ich Range
ICHRANGEMODE	TOGGLE	F	Ich Auto Range
ICHOFFSETENABLE	TOGGLE	T	Ich Offset Enable
ICHOFFSET	QUANT	0	Ich Offset (V)
ICHFILTER	IQUANT	3	Ich Filter
VCHRANGE	IQUANT	2	Vch Range
VCHRANGEMODE	TOGGLE	F	Vch Auto Range
VCHOFFSETENABLE	TOGGLE	T	Vch Offset Enable
VCHOFFSET	QUANT	0	Vch Offset (V)
VCHFILTER	IQUANT	3	Vch Filter
ACHRANGE	IQUANT	2	Ach Range
ACHOFFSETENABLE	TOGGLE	F	Ach Offset Enable
ACHOFFSET	QUANT	0	Ach Offset (V)
ACHFILTER	IQUANT	3	Ach Filter
IERANGELOWERLIMIT	IQUANT	2	I/E Range Lower Limit
IERANGEMODE	TOGGLE	F	I/E AutoRange
IERANGE	IQUANT	11	I/E Range
POSFEEDENABLE	TOGGLE	F	Positive Feedback IR Comp
POSFEEDRESISTANCE	QUANT	0	Positive Feedback Resistance (ohm)
ACHSELECT	IQUANT	0	Ach Select
CABLEID	IQUANT	13	Cable ID
DCCALDATE	LABEL	7/31/2020	DC Calibration Date
ACCALDATE	LABEL	7/31/2020	AC Calibration Date
THERMOSELECT	IQUANT	1	Thermo Select
FRAMEWORKVERSION	QUANT	6.33	Framework Version
INSTRUMENTVERSION	LABEL	3.50	Instrument Version
COMPLIANCEVOLTAGE	IQUANT	0	Compliance Voltage
ZCURVE	TABLE
	Pt	Time	Freq	Zreal	Zimag	Zsig	Zmod	Zphz	Idc	Vdc	IERange
	#	s	Hz	ohm	ohm	V	ohm	°	A	V	#
	0	14	300046.9	971.897	-1875.53	1	2112.391	-62.60688	-4.32973E-006	-0.0018197	9
	1	27	238359.4	1358.611	-2003.197	1	2420.459	-55.85403	-1.624815E-007	0.0004191	9
	2	40	189328.1	1786.754	-2065.636	1	2731.179	-49.14053	-5.040115E-006	0.0013949	9
	3	47	150421.9	2218.451	-2022.881	1	3002.261	-42.35993	4.970635E-006	0.0016743	9
	4	55	119484.4	2605.07	-1851.709	1	3196.125	-35.40557	1.266311E-006	0.0003678	8
	5	61	94921.88	2930.732	-1656.273	1	3366.368	-29.47252	1.275171E-006	0.000648	8
	6	64	75421.88	3168.023	-1475.017	1	3494.573	-24.96647	-1.299504E-006	0.0003477	8
	7	66	59859.37	3349.538	-1273.586	1	3583.494	-20.81818	-2.148889E-006	0.0005032	8
	8	69	47578.12	3472.841	-1087.302	1	3639.073	-17.38467	-2.629017E-006	0.0004564	8
	9	71	37828.12	3549.375	-928.0897	1	3668.707	-14.6536	3.010886E-007	0.000513	8
	10	74	30046.88	3596.917	-784.019	1	3681.372	-12.29642	5.485802E-007	-0.0008854	7
	11	76	23859.38	3621.474	-691.0916	1	3686.825	-10.80395	-3.882152E-007	0.0020567	7
	12	79	18984.38	3632.792	-612.9542	1	3684.14	-9.5772	4.62247E-007	-0.0005404	7
	13	81	15046.87	3634.574	-556.1324	1	3676.876	-8.699451	7.018996E-007	-0.0015653	7
	14	83	11953.13	3636.13	-529.4928	1	3674.48	-8.28517	-6.529221E-008	0.0010273	7
	15	86	9515.62	3633.808	-508.1066	1	3669.159	-7.959923	-1.441623E-007	0.0004519	7
	16	88	7546.875	3630.821	-500.9208	1	3665.212	-7.85514	-6.826449E-007	0.002311	7
	17	90	5928.309	3639.57	-504.8836	1	3674.422	-7.897707	3.538696E-007	-0.0002106	7
	18	92	4733.456	3649.635	-532.2288	1	3688.238	-8.296998	4.701519E-007	-0.0005882	7
	19	95	3796.875	3661.615	-551.1701	1	3702.865	-8.560266	-1.573738E-007	0.0001149	7
	20	97	2987.132	3686.146	-586.2315	1	3732.471	-9.036439	4.345225E-007	-0.000516	7
	21	99	2390.625	3710.066	-628.6084	1	3762.943	-9.61648	1.436546E-007	-0.0002	7
	22	102	1884.191	3751.118	-672.2083	1	3810.873	-10.15969	-5.921236E-007	0.0027766	7
	23	104	1516.544	3792.038	-716.1049	1	3859.062	-10.69405	-5.065055E-007	0.0022724	7
	24	106	1193.986	3853.398	-758.4629	1	3927.333	-11.13516	2.247332E-007	0.0001725	7
	25	109	946.5144	3917.036	-802.0693	1	3998.31	-11.57217	5.770536E-007	-0.0012137	7
	26	111	751.7689	3984.506	-834.9014	1	4071.038	-11.83437	-4.082636E-007	0.0012569	7
	27	115	597.4265	4050.538	-858.5976	1	4140.537	-11.96791	-7.498007E-008	-5.762228E-005	7
	28	117	477.4305	4121.088	-882.478	1	4214.515	-12.08662	-6.74333E-008	0.0006216	7
	29	119	376.6741	4206.017	-902.4615	1	4301.745	-12.11002	-7.589712E-008	0.0006298	7
	30	121	298.2954	4289.164	-917.065	1	4386.107	-12.06868	-7.248206E-008	0.0006333	7
	31	124	237.7717	4363.501	-924.4498	1	4460.353	-11.96179	-7.134168E-008	0.0006232	7
	32	126	189.0121	4437.713	-928.3202	1	4533.771	-11.81526	-8.385079E-008	0.0006249	7
	33	129	150.2404	4506.751	-927.149	1	4601.132	-11.62495	-7.637205E-008	0.0006258	7
	34	131	119.1737	4574.585	-924.3956	1	4667.048	-11.42404	-7.728221E-008	0.0006279	7
	35	133	95.0169	4629.159	-917.4199	1	4719.192	-11.20979	-8.049104E-008	0.0006226	7
	36	136	75.60484	4675.144	-910.3846	1	4762.958	-11.01923	-9.214136E-008	0.0006296	7
	37	138	54.50582	4763.345	-914.3226	1	4850.303	-10.86574	-8.832757E-008	0.0005963	7
	38	141	45.95588	4773.167	-912.2842	1	4859.566	-10.82031	-8.418248E-008	0.0006234	7
	39	143	37.20238	4800.019	-918.6798	1	4887.142	-10.83486	-5.8762E-008	0.0006228	7
	40	146	30.04808	4819.331	-927.4224	1	4907.755	-10.89273	-9.330822E-008	0.000625	7
	41	148	23.91582	4850.292	-945.5342	1	4941.596	-11.0311	-5.350088E-008	0.0006167	7
	42	150	18.60119	4910.737	-979.472	1	5007.464	-11.27991	-1.882044E-007	0.0006243	7
	43	153	15.02404	4933.17	-1005.514	1	5034.603	-11.52062	-1.13979E-007	0.0006312	7
	44	155	12.01923	4960.648	-1033.044	1	5067.071	-11.76359	-1.882213E-007	0.0006179	7
	45	158	9.450605	4998.938	-1073.94	1	5112.997	-12.12477	-1.667007E-007	0.0006399	7
	46	160	7.512019	5028.466	-1112.726	1	5150.109	-12.47764	-1.649698E-007	0.0006423	7
	47	163	5.978954	5043.845	-1152.234	1	5173.781	-12.86804	-1.359625E-007	0.0006329	7
	48	166	4.734848	5071.878	-1209.831	1	5214.177	-13.41645	-1.45888E-008	0.0006569	7
	49	169	3.75601	5098.126	-1257.358	1	5250.889	-13.85444	-1.67733E-007	0.0005931	7
	50	172	3.004808	5146.185	-1321.95	1	5313.264	-14.40663	-2.199926E-007	0.0006419	7
	51	176	2.372217	5186.971	-1383.473	1	5368.302	-14.93431	-1.771564E-007	0.0006883	7
	52	180	1.878005	5217.574	-1442.794	1	5413.384	-15.4575	-2.460729E-007	0.000599	7
	53	185	1.512097	5254.148	-1507.63	1	5466.171	-16.01035	-2.68855E-007	0.0006479	7
	54	191	1.201923	5283.966	-1571.797	1	5512.789	-16.56592	-2.44711E-007	0.0005911	7
	55	197	0.956633	5314.961	-1614.451	1	5554.752	-16.89647	-3.892081E-007	-1.358865E-005	7
