EXPLAIN
TAG	EISPOT
TITLE	LABEL	Potentiostatic EIS	Test Identifier
DATE	LABEL	8/31/2020	Date
TIME	LABEL	15:37:32	Time
NOTES	NOTES	1	Notes...
	
PSTAT	PSTAT	REF3000-16137	Potentiostat
VDC	POTEN	0.00000E+000	T	DC Voltage (V)
FREQINIT	QUANT	3.00000E+005	Initial Freq. (Hz)
FREQFINAL	QUANT	1.00000E+000	Final Freq. (Hz)
PTSPERDEC	QUANT	1.00000E+001	Points/decade
VAC	QUANT	5.00000E+001	AC Voltage (mV rms)
AREA	QUANT	1.00000E+000	Sample Area (cm^2)
SPEED	SELECTOR	2	Optimize for:
ZGUESS	QUANT	1.00000E+003	Estimated Z (ohms)
EOC	QUANT	0	Open Circuit (V)
SEQUENCER	TOGGLE	TRUE	Run as Sequence
PSTATMODEL	IQUANT	5	Pstat Model
PSTATSECTION	LABEL	REF3000-16137	Pstat Section
PSTATSERIALNO	LABEL	16137	Pstat Serial Number
CTRLMODE	IQUANT	1	Control Mode
IESTAB	IQUANT	0	I/E Stability
CASPEED	IQUANT	1	Control Amp Speed
CONVENTION	IQUANT	1	Current Convention
ICHRANGE	IQUANT	2	Ich Range
ICHRANGEMODE	TOGGLE	F	Ich Auto Range
ICHOFFSETENABLE	TOGGLE	T	Ich Offset Enable
ICHOFFSET	QUANT	0	Ich Offset (V)
ICHFILTER	IQUANT	3	Ich Filter
VCHRANGE	IQUANT	2	Vch Range
VCHRANGEMODE	TOGGLE	F	Vch Auto Range
VCHOFFSETENABLE	TOGGLE	T	Vch Offset Enable
VCHOFFSET	QUANT	0	Vch Offset (V)
VCHFILTER	IQUANT	3	Vch Filter
ACHRANGE	IQUANT	2	Ach Range
ACHOFFSETENABLE	TOGGLE	F	Ach Offset Enable
ACHOFFSET	QUANT	0	Ach Offset (V)
ACHFILTER	IQUANT	3	Ach Filter
IERANGELOWERLIMIT	IQUANT	2	I/E Range Lower Limit
IERANGEMODE	TOGGLE	F	I/E AutoRange
IERANGE	IQUANT	11	I/E Range
POSFEEDENABLE	TOGGLE	F	Positive Feedback IR Comp
POSFEEDRESISTANCE	QUANT	0	Positive Feedback Resistance (ohm)
ACHSELECT	IQUANT	0	Ach Select
CABLEID	IQUANT	13	Cable ID
DCCALDATE	LABEL	7/31/2020	DC Calibration Date
ACCALDATE	LABEL	7/31/2020	AC Calibration Date
THERMOSELECT	IQUANT	1	Thermo Select
FRAMEWORKVERSION	QUANT	6.33	Framework Version
INSTRUMENTVERSION	LABEL	3.50	Instrument Version
COMPLIANCEVOLTAGE	IQUANT	0	Compliance Voltage
ZCURVE	TABLE
	Pt	Time	Freq	Zreal	Zimag	Zsig	Zmod	Zphz	Idc	Vdc	IERange
	#	s	Hz	ohm	ohm	V	ohm	°	A	V	#
	0	20	300046.9	-43.62203	-4844.949	1	4845.145	-90.51585	-2.245725E-005	0.0011258	9
	1	34	238359.4	-109.6331	-5817.072	1	5818.105	-91.07971	8.225164E-005	-0.0016582	9
	2	64	189328.1	122.7657	-7420.362	1	7421.378	-89.05216	-1.696474E-007	-0.0020016	9
	3	71	150421.9	-42.08053	-9185.513	1	9185.609	-90.26248	7.922814E-007	0.0016438	9
	4	80	119484.4	110.3318	-11645.58	1	11646.11	-89.45719	-6.032219E-005	0.0005564	9
	5	88	94921.88	546.0244	-14427.64	1	14437.97	-87.83263	-2.307311E-006	0.007903	8
	6	97	75421.88	565.2427	-18155.05	1	18163.85	-88.21672	2.617356E-005	-0.0051315	8
	7	104	59859.37	890.3593	-22909.39	1	22926.69	-87.77435	-2.698052E-005	0.0096866	8
	8	113	47578.12	4129.82	-29797.85	1	30082.67	-82.10938	-1.063548E-006	-0.013578	7
	9	120	37828.12	1134.267	-35267.26	1	35285.5	-88.15788	8.611461E-006	-0.0078806	8
	10	129	30046.88	4268.634	-46196.27	1	46393.07	-84.72074	-1.876748E-006	0.0222775	7
	11	136	23859.38	5541.382	-57976.85	1	58241.07	-84.5403	-3.324924E-006	-0.0051448	7
	12	142	18984.38	4733.176	-71683.57	1	71839.66	-86.22231	-3.17073E-006	-0.0061987	7
	13	147	15046.87	4471.639	-89783.8	1	89895.09	-87.14877	7.143205E-006	-0.0272596	7
	14	154	11953.13	-1074.742	-111090.5	1	111095.7	-90.55429	2.282982E-005	-0.0024971	8
	15	161	9515.62	8426.18	-136621.8	1	136881.4	-86.47074	8.322457E-006	-0.0077541	8
	16	169	7546.875	1446.606	-175756.5	1	175762.4	-89.52843	5.496238E-006	-0.0270127	7
	17	175	5928.309	13270.5	-215487	1	215895.2	-86.47596	7.7297E-006	-0.0244492	7
	18	182	4733.456	8786.527	-267833.3	1	267977.3	-88.12103	4.936429E-006	-0.0005155	7
	19	189	3796.875	24900.84	-344785.9	1	345683.9	-85.8692	-6.804119E-006	0.012042	7
	20	198	2987.132	55692.3	-403270.1	1	407097.5	-82.13708	-5.351067E-006	0.0035179	7
	21	204	2390.625	181735.7	-510748.6	1	542118.1	-70.41331	-7.434827E-006	0.018915	7
	22	211	1884.191	224967	-548013.3	1	592392.3	-67.68118	-6.738685E-006	0.0118951	7
	23	218	1516.544	336100	-731692.3	1	805193.7	-65.3285	4.655786E-007	0.0164256	7
	24	225	1193.986	412741.7	-883233.2	1	974914	-64.95296	-4.075385E-007	0.0257472	6
	25	231	946.5144	674983.8	-953479	1	1168214	-54.70467	7.382095E-007	-0.0159513	6
	26	234	751.7689	961682	-1058522	1	1430140	-47.74441	7.355808E-007	-0.0159074	6
	27	238	597.4265	977540	-954958	1	1366575	-44.3305	-2.729135E-007	-0.0076301	6
	28	243	477.4305	1305064	-575322	1	1426249	-23.78972	-1.022639E-009	0.0006203	5
	29	246	376.6741	1316932	-445560.6	1	1390264	-18.69234	-9.701071E-010	0.0006376	5
	30	249	298.2954	1284772	-340001.8	1	1329000	-14.82294	-1.087447E-009	0.0006731	5
	31	252	237.7717	1236612	-258153.5	1	1263271	-11.79164	-1.056679E-009	0.0005935	5
	32	255	189.0121	1171470	-209895.3	1	1190126	-10.15805	-1.104148E-009	0.0006032	5
	33	257	150.2404	1095853	-180392.3	1	1110601	-9.347831	-1.024031E-009	0.0005937	5
	34	260	119.1737	1054570	-218317.3	1	1076931	-11.69616	-1.071257E-009	0.0006149	5
	35	263	95.0169	985045	-147568	1	996037	-8.520025	-1.158041E-009	0.0005941	5
	36	266	75.60484	932684.5	-142649.1	1	943530.1	-8.695696	-1.17204E-009	0.0006536	5
	37	268	54.50582	893277.5	-173317.3	1	909936.1	-10.98033	-1.106952E-009	0.0006352	5
	38	271	45.95588	846911.6	-165355.4	1	862903	-11.04774	-1.04071E-009	0.0006571	5
	39	273	37.20238	817409.8	-177735.5	1	836509.8	-12.2673	-1.244789E-009	0.0006629	5
	40	276	30.04808	788260.9	-200157.2	1	813276.1	-14.24757	-1.370345E-009	0.0006809	5
	41	279	23.91582	758840.6	-223879.1	1	791176.9	-16.43753	-9.693124E-010	0.00067	5
	42	281	18.60119	745625.1	-258638	1	789208.8	-19.13033	-9.426951E-010	0.0006895	5
	43	284	15.02404	742817.9	-277935	1	793111.8	-20.51399	-1.596392E-009	0.0006542	5
	44	286	12.01923	741997.4	-305342.6	1	802367.9	-22.36787	-1.634383E-009	0.000678	5
	45	289	9.450605	745351.3	-334044	1	816782.6	-24.14049	-1.618652E-009	0.0006948	5
	46	292	7.512019	752283.3	-358402.3	1	833296.1	-25.47404	-1.572791E-009	0.0006667	5
	47	295	5.978954	754292.9	-375271.8	1	842488.4	-26.45102	-1.424462E-009	0.0005953	5
	48	299	4.734848	758036.5	-388770.1	1	851916.4	-27.15168	-1.298076E-009	0.0006208	5
	49	303	3.75601	756783.7	-394291.1	1	853338.8	-27.51992	-1.234064E-009	0.0006315	5
	50	308	3.004808	740984.1	-384614	1	834856.4	-27.43195	-1.806687E-009	0.0007268	5
	51	314	2.372217	741303.6	-374364.2	1	830469.5	-26.79413	-1.36041E-009	0.0007014	5
	52	319	1.878005	747251.3	-362794.5	1	830665	-25.89682	-1.797928E-009	0.0006157	5
	53	323	1.512097	738466.9	-341028.2	1	813408.7	-24.78776	-2.433057E-009	0.0007345	5
	54	329	1.201923	716934.8	-310660.2	1	781348.4	-23.42792	-1.705771E-009	0.0006093	5
	55	335	0.956633	686440.2	-280001	1	741350.6	-22.19069	-4.156193E-009	3.356501E-006	5
