EXPLAIN
TAG	EISPOT
TITLE	LABEL	Potentiostatic EIS	Test Identifier
DATE	LABEL	11/21/2021	Date
TIME	LABEL	11:17:17	Time
NOTES	NOTES	1	Notes...
	
PSTAT	PSTAT	REF3000-16137	Potentiostat
VDC	POTEN	0.00000E+000	T	DC Voltage (V)
FREQINIT	QUANT	3.00000E+005	Initial Freq. (Hz)
FREQFINAL	QUANT	1.00000E+000	Final Freq. (Hz)
PTSPERDEC	QUANT	1.00000E+001	Points/decade
VAC	QUANT	5.00000E+001	AC Voltage (mV rms)
AREA	QUANT	1.00000E+000	Sample Area (cm^2)
SPEED	SELECTOR	2	Optimize for:
ZGUESS	QUANT	1.00000E+003	Estimated Z (ohms)
EOC	QUANT	0	Open Circuit (V)
SEQUENCER	TOGGLE	TRUE	Run as Sequence
PSTATMODEL	IQUANT	5	Pstat Model
PSTATSECTION	LABEL	REF3000-16137	Pstat Section
PSTATSERIALNO	LABEL	16137	Pstat Serial Number
CTRLMODE	IQUANT	1	Control Mode
IESTAB	IQUANT	0	I/E Stability
CASPEED	IQUANT	1	Control Amp Speed
CONVENTION	IQUANT	1	Current Convention
ICHRANGE	IQUANT	2	Ich Range
ICHRANGEMODE	TOGGLE	F	Ich Auto Range
ICHOFFSETENABLE	TOGGLE	T	Ich Offset Enable
ICHOFFSET	QUANT	0	Ich Offset (V)
ICHFILTER	IQUANT	3	Ich Filter
VCHRANGE	IQUANT	2	Vch Range
VCHRANGEMODE	TOGGLE	F	Vch Auto Range
VCHOFFSETENABLE	TOGGLE	T	Vch Offset Enable
VCHOFFSET	QUANT	0	Vch Offset (V)
VCHFILTER	IQUANT	3	Vch Filter
ACHRANGE	IQUANT	2	Ach Range
ACHOFFSETENABLE	TOGGLE	F	Ach Offset Enable
ACHOFFSET	QUANT	0	Ach Offset (V)
ACHFILTER	IQUANT	3	Ach Filter
IERANGELOWERLIMIT	IQUANT	2	I/E Range Lower Limit
IERANGEMODE	TOGGLE	F	I/E AutoRange
IERANGE	IQUANT	11	I/E Range
POSFEEDENABLE	TOGGLE	F	Positive Feedback IR Comp
POSFEEDRESISTANCE	QUANT	0	Positive Feedback Resistance (ohm)
ACHSELECT	IQUANT	0	Ach Select
CABLEID	IQUANT	13	Cable ID
DCCALDATE	LABEL	9/10/2021	DC Calibration Date
ACCALDATE	LABEL	9/10/2021	AC Calibration Date
THERMOSELECT	IQUANT	1	Thermo Select
FRAMEWORKVERSION	QUANT	6.33	Framework Version
INSTRUMENTVERSION	LABEL	3.50	Instrument Version
COMPLIANCEVOLTAGE	IQUANT	0	Compliance Voltage
ZCURVE	TABLE
	Pt	Time	Freq	Zreal	Zimag	Zsig	Zmod	Zphz	Idc	Vdc	IERange
	#	s	Hz	ohm	ohm	V	ohm	°	A	V	#
	0	8	300046.9	12.45718	2.21558	1	12.65267	10.08492	2.730426E-005	-0.0006418	10
	1	11	238359.4	12.44149	1.758122	1	12.5651	8.04328	-1.888672E-005	-0.0005372	10
	2	14	189328.1	12.44483	1.383749	1	12.52152	6.344693	5.515188E-006	-0.0003558	10
	3	17	150421.9	12.44695	1.066558	1	12.49256	4.897616	4.669452E-006	-0.0002289	10
	4	19	119484.4	12.48052	0.8211474	1	12.50751	3.764311	-9.010158E-006	-0.000292	10
	5	22	94921.88	12.49942	0.6124016	1	12.51441	2.804929	1.359843E-005	-0.0002296	10
	6	24	75421.88	12.52272	0.4298012	1	12.5301	1.965717	-1.677719E-005	-0.0001839	10
	7	27	59859.37	12.54992	0.268687	1	12.5528	1.226484	-1.640925E-005	-0.0001345	10
	8	29	47578.12	12.57854	0.1310998	1	12.57922	0.5971437	-1.143074E-005	-0.000158	10
	9	32	37828.12	12.6089	0.0031073	1	12.6089	0.0141199	-1.34919E-005	-0.0001542	10
	10	34	30046.88	12.63777	-0.1254617	1	12.63839	-0.5687862	-2.290493E-006	-0.0001613	10
	11	37	23859.38	12.67088	-0.2550859	1	12.67344	-1.153304	1.931085E-005	-0.0001762	10
	12	39	18984.38	12.70676	-0.3941983	1	12.71287	-1.776901	-2.456214E-005	-8.220309E-005	10
	13	41	15046.87	12.74454	-0.5543585	1	12.75659	-2.490667	-2.694631E-005	-0.000127	10
	14	44	11953.13	12.78307	-0.7359007	1	12.80423	-3.294789	1.345428E-005	-0.0001754	10
	15	46	9515.62	12.82893	-0.950244	1	12.86408	-4.236187	-2.69549E-005	-0.0001204	10
	16	48	7546.875	12.87989	-1.209346	1	12.93654	-5.36401	-2.470172E-006	-0.0001449	10
	17	50	5928.309	12.94127	-1.541045	1	13.0327	-6.790798	8.753128E-006	-0.000125	10
	18	53	4733.456	13.00776	-1.916512	1	13.14819	-8.381434	2.412297E-005	-0.0001526	10
	19	55	3796.875	13.08798	-2.36978	1	13.3008	-10.26308	-2.588468E-005	-0.0001278	10
	20	57	2987.132	13.18587	-2.968955	1	13.51598	-12.68922	-1.614015E-005	-0.0001466	10
	21	60	2390.625	13.29919	-3.660263	1	13.79369	-15.38821	-1.222875E-005	-0.0001327	10
	22	62	1884.191	13.44462	-4.560634	1	14.19708	-18.73778	-1.644951E-005	-0.0001201	10
	23	64	1516.544	13.60875	-5.578665	1	14.70781	-22.2903	2.325507E-005	-0.0001369	10
	24	67	1193.986	13.82796	-6.948778	1	15.47573	-26.68028	-2.431311E-005	-0.0001009	10
	25	69	946.5144	14.09102	-8.597218	1	16.50664	-31.38821	1.97741E-005	-0.000152	10
	26	71	751.7689	14.40782	-10.59078	1	17.88156	-36.31856	-1.514115E-005	-0.0001493	10
	27	74	597.4265	14.78744	-13.03657	1	19.71346	-41.39933	-1.584336E-005	-0.0001153	10
	28	76	477.4305	15.23464	-15.97871	1	22.07744	-46.36558	-1.06769E-006	-0.0001088	10
	29	78	376.6741	15.77459	-19.78942	1	25.30729	-51.44088	-1.059893E-006	-0.000114	10
	30	81	298.2954	16.39658	-24.45015	1	29.43905	-56.15369	-1.078075E-006	-0.0001176	10
	31	83	237.7717	17.09925	-30.05792	1	34.58125	-60.36546	-1.410098E-006	-0.0001111	10
	32	85	189.0121	17.93625	-37.08827	1	41.19768	-64.19114	-1.217145E-006	-0.0001091	10
	33	88	150.2404	18.90991	-45.76241	1	49.51548	-67.54865	5.900046E-007	-0.0001269	9
	34	90	119.1737	20.12587	-56.6992	1	60.16519	-70.45724	6.149382E-007	-0.000125	9
	35	93	95.0169	21.57958	-69.97433	1	73.22626	-72.86061	6.318966E-007	-0.000132	9
	36	95	75.60484	23.39208	-86.57277	1	89.67739	-74.87967	4.67124E-007	-0.0001358	9
	37	98	54.50582	26.76247	-117.4694	1	120.4795	-77.16565	5.521241E-007	-0.0001327	9
	38	100	45.95588	29.0197	-137.7786	1	140.8016	-78.1059	6.158494E-007	-0.0001271	9
	39	103	37.20238	32.38507	-167.8153	1	170.9116	-79.07731	5.985061E-007	-0.0001351	9
	40	105	30.04808	36.61462	-204.8748	1	208.1209	-79.86724	5.871134E-007	-0.0001294	9
	41	107	23.91582	42.27705	-253.4453	1	256.9472	-80.52972	5.897573E-007	-0.0001311	9
	42	110	18.60119	50.25687	-320.503	1	324.4194	-81.08823	5.913942E-007	-0.0001271	9
	43	112	15.02404	58.88349	-390.9417	1	395.3514	-81.43452	5.784652E-007	-0.0001358	9
	44	114	12.01923	69.82942	-479.3451	1	484.4047	-81.71164	5.591184E-007	-0.0001264	8
	45	117	9.450605	85.29845	-599.2549	1	605.2952	-81.89889	5.878128E-007	-0.0001096	8
	46	119	7.512019	104.4554	-741.8474	1	749.1652	-81.98519	5.907643E-007	-0.0001266	8
	47	122	5.978954	128.179	-916.3712	1	925.2924	-82.03732	5.98058E-007	-0.0001204	8
	48	125	4.734848	160.1241	-1137.217	1	1148.435	-81.98524	6.021504E-007	-0.0001424	8
	49	128	3.75601	200.6617	-1408.223	1	1422.448	-81.89036	6.531777E-007	-0.0001016	8
	50	132	3.004808	251.9979	-1728.934	1	1747.202	-81.70734	6.360399E-007	-0.0001421	8
	51	135	2.372217	324.67	-2150.769	1	2175.136	-81.41571	6.394922E-007	-0.0002174	8
	52	140	1.878005	415.8104	-2664.707	1	2696.954	-81.13088	6.629929E-007	-0.0001426	8
	53	148	1.512097	530.7153	-3240.243	1	3283.418	-80.69819	6.069191E-007	-0.0001563	8
	54	153	1.201923	689.8235	-4004.549	1	4063.529	-80.22615	6.231975E-007	-8.846924E-005	8
	55	160	0.956633	904.8068	-4932.468	1	5014.77	-79.60529	7.652083E-008	-0.0006536	7
