EXPLAIN
TAG	EISPOT
TITLE	LABEL	Potentiostatic EIS	Test Identifier
DATE	LABEL	11/21/2021	Date
TIME	LABEL	12:26:25	Time
NOTES	NOTES	1	Notes...
	
PSTAT	PSTAT	REF3000-16137	Potentiostat
VDC	POTEN	0.00000E+000	T	DC Voltage (V)
FREQINIT	QUANT	3.00000E+005	Initial Freq. (Hz)
FREQFINAL	QUANT	1.00000E+000	Final Freq. (Hz)
PTSPERDEC	QUANT	1.00000E+001	Points/decade
VAC	QUANT	5.00000E+001	AC Voltage (mV rms)
AREA	QUANT	1.00000E+000	Sample Area (cm^2)
SPEED	SELECTOR	2	Optimize for:
ZGUESS	QUANT	1.00000E+003	Estimated Z (ohms)
EOC	QUANT	0	Open Circuit (V)
SEQUENCER	TOGGLE	TRUE	Run as Sequence
PSTATMODEL	IQUANT	5	Pstat Model
PSTATSECTION	LABEL	REF3000-16137	Pstat Section
PSTATSERIALNO	LABEL	16137	Pstat Serial Number
CTRLMODE	IQUANT	1	Control Mode
IESTAB	IQUANT	0	I/E Stability
CASPEED	IQUANT	1	Control Amp Speed
CONVENTION	IQUANT	1	Current Convention
ICHRANGE	IQUANT	2	Ich Range
ICHRANGEMODE	TOGGLE	F	Ich Auto Range
ICHOFFSETENABLE	TOGGLE	T	Ich Offset Enable
ICHOFFSET	QUANT	0	Ich Offset (V)
ICHFILTER	IQUANT	3	Ich Filter
VCHRANGE	IQUANT	2	Vch Range
VCHRANGEMODE	TOGGLE	F	Vch Auto Range
VCHOFFSETENABLE	TOGGLE	T	Vch Offset Enable
VCHOFFSET	QUANT	0	Vch Offset (V)
VCHFILTER	IQUANT	3	Vch Filter
ACHRANGE	IQUANT	2	Ach Range
ACHOFFSETENABLE	TOGGLE	F	Ach Offset Enable
ACHOFFSET	QUANT	0	Ach Offset (V)
ACHFILTER	IQUANT	3	Ach Filter
IERANGELOWERLIMIT	IQUANT	2	I/E Range Lower Limit
IERANGEMODE	TOGGLE	F	I/E AutoRange
IERANGE	IQUANT	11	I/E Range
POSFEEDENABLE	TOGGLE	F	Positive Feedback IR Comp
POSFEEDRESISTANCE	QUANT	0	Positive Feedback Resistance (ohm)
ACHSELECT	IQUANT	0	Ach Select
CABLEID	IQUANT	13	Cable ID
DCCALDATE	LABEL	9/10/2021	DC Calibration Date
ACCALDATE	LABEL	9/10/2021	AC Calibration Date
THERMOSELECT	IQUANT	1	Thermo Select
FRAMEWORKVERSION	QUANT	6.33	Framework Version
INSTRUMENTVERSION	LABEL	3.50	Instrument Version
COMPLIANCEVOLTAGE	IQUANT	0	Compliance Voltage
ZCURVE	TABLE
	Pt	Time	Freq	Zreal	Zimag	Zsig	Zmod	Zphz	Idc	Vdc	IERange
	#	s	Hz	ohm	ohm	V	ohm	°	A	V	#
	0	26	300046.9	801.243	-4137.733	1	4214.597	-79.04071	2.560578E-005	-0.0022916	9
	1	41	238359.4	1177.7	-5018.786	1	5155.113	-76.794	7.863885E-005	-0.0019604	9
	2	66	189328.1	1700.292	-6454.802	1	6674.988	-75.24265	2.451445E-005	-0.0020183	9
	3	77	150421.9	2198.86	-7579.659	1	7892.162	-73.82255	-2.156115E-005	0.001094	9
	4	84	119484.4	3613.728	-8788.792	1	9502.73	-67.64878	1.958248E-005	-0.0109328	8
	5	92	94921.88	4973.446	-10571.35	1	11682.84	-64.80468	-1.000028E-005	0.0088591	8
	6	100	75421.88	6301.098	-11944.57	1	13504.69	-62.18709	-1.676852E-005	0.000332	8
	7	109	59859.37	8904.18	-14083.28	1	16662.03	-57.6968	6.390106E-006	-0.0079747	8
	8	117	47578.12	14084.3	-15413.93	1	20879.58	-47.58085	6.464828E-006	-0.0267	7
	9	124	37828.12	17220.59	-16238.66	1	23669.45	-43.31902	-6.079701E-006	0.0243394	7
	10	130	30046.88	20905.5	-16989.07	1	26938.24	-39.0994	9.298959E-007	-0.0192479	7
	11	138	23859.38	24942.34	-17173.34	1	30282.73	-34.54826	-6.119622E-006	0.0241837	7
	12	143	18984.38	27143.09	-17715.18	1	32412.58	-33.13084	-1.096872E-005	-0.0023341	8
	13	149	15046.87	32008.15	-16189.09	1	35869.32	-26.82938	8.427007E-007	-0.0189896	7
	14	156	11953.13	35404.6	-15704.48	1	38731.34	-23.92072	-4.022039E-007	0.0062195	8
	15	162	9515.62	38252.21	-13418.42	1	40537.46	-19.33027	-1.317185E-006	-0.0127322	7
	16	168	7546.875	40765.93	-11629.69	1	42392.34	-15.92237	6.501698E-006	-0.0115459	7
	17	173	5928.309	44224.93	-11213.74	1	45624.47	-14.22814	6.508106E-006	-0.0116157	7
	18	178	4733.456	44762.45	-11226.16	1	46148.71	-14.07906	-1.812351E-005	0.0101733	8
	19	185	3796.875	46945.25	-7844.361	1	47596.11	-9.486253	-5.392985E-006	0.0038877	7
	20	190	2987.132	49193.5	-5058.194	1	49452.87	-5.870659	7.783996E-007	0.0139136	7
	21	195	2390.625	49819.43	-5761.055	1	50151.42	-6.596312	9.74363E-007	-0.0193084	7
	22	201	1884.191	53604.39	-4532.226	1	53795.65	-4.832837	-6.97858E-006	0.0226852	7
	23	206	1516.544	51450.77	-4361.523	1	51635.3	-4.845425	-4.967324E-006	0.0250753	7
	24	212	1193.986	53461.14	-4196.069	1	53625.55	-4.487843	-3.324129E-006	0.0234327	7
	25	217	946.5144	54264.21	-1519.093	1	54285.46	-1.603541	-5.459709E-006	0.0042252	7
	26	221	751.7689	56947.47	-537.5665	1	56950.01	-0.5408383	4.962731E-006	-0.0264929	7
	27	225	597.4265	58497.89	-2083	1	58534.96	-2.039333	-3.239117E-006	0.0231981	7
	28	228	477.4305	58108.97	-1573.259	1	58130.26	-1.550864	-9.339288E-008	-0.0001359	7
	29	232	376.6741	58811.25	-658.8026	1	58814.94	-0.6417994	-1.320921E-008	-0.0001952	6
	30	234	298.2954	59368.63	-573.4684	1	59371.4	-0.5534286	-1.392144E-008	-0.0001036	6
	31	236	237.7717	60018.71	-517.5902	1	60020.94	-0.4940959	-1.297343E-008	-0.0001496	6
	32	239	189.0121	60627.96	-479.4944	1	60629.85	-0.4531315	-1.164586E-008	-0.000192	6
	33	241	150.2404	61283.19	-473.0506	1	61285.01	-0.4422626	-1.278765E-008	-0.0001625	6
	34	244	119.1737	61895.82	-520.5598	1	61898	-0.481861	-1.083962E-008	-0.0001923	6
	35	246	95.0169	62593.8	-476.63	1	62595.62	-0.436279	-1.0842E-008	-0.0001775	6
	36	249	75.60484	63313.23	-497.7332	1	63315.18	-0.4504181	-1.482142E-008	-0.0001152	6
	37	251	54.50582	64003.55	-579.1015	1	64006.17	-0.5183957	-1.305513E-008	-0.0001573	6
	38	254	45.95588	64708.4	-650.4901	1	64711.67	-0.5759543	-9.591502E-009	-0.0001652	6
	39	256	37.20238	65395.58	-740.5928	1	65399.77	-0.6488364	-8.908343E-009	-0.0001658	6
	40	258	30.04808	66095.07	-862.5605	1	66100.7	-0.7476847	-8.806273E-009	-0.0001566	6
	41	261	23.91582	66857.61	-1028.552	1	66865.52	-0.8813813	-6.502946E-009	-0.0001076	6
	42	263	18.60119	67506.05	-1272.485	1	67518.05	-1.079894	-3.31335E-009	-0.0001427	6
	43	265	15.02404	68287.99	-1497.38	1	68304.41	-1.256147	-9.866367E-009	-0.0002021	6
	44	268	12.01923	69035.42	-1801.098	1	69058.91	-1.494478	-1.893598E-008	-0.0001604	6
	45	270	9.450605	69846.29	-2239.798	1	69882.2	-1.836705	-5.437791E-009	-0.0001121	6
	46	273	7.512019	70746.67	-2768.291	1	70800.81	-2.240819	-4.041897E-009	-8.577002E-005	6
	47	275	5.978954	71734.22	-3334.034	1	71811.66	-2.661055	-1.31043E-008	-0.0001503	6
	48	278	4.734848	72886.2	-4204.413	1	73007.37	-3.301426	1.95042E-009	-0.0001482	6
	49	282	3.75601	74124.04	-5204.312	1	74306.52	-4.016194	-2.651972E-008	-0.0002034	6
	50	285	3.004808	75640.62	-6256.553	1	75898.93	-4.728411	-2.261648E-008	-8.753806E-005	6
	51	289	2.372217	77197.89	-7734.821	1	77584.41	-5.721639	-2.050596E-008	-7.942183E-005	6
	52	293	1.878005	79180.61	-9565.37	1	79756.29	-6.88821	-2.492433E-008	-0.000191	6
	53	298	1.512097	81405.51	-11450.19	1	82206.84	-8.006485	-2.259823E-008	-0.0001733	6
	54	303	1.201923	83922.85	-14268.69	1	85127.2	-9.64924	-1.86559E-008	-0.000164	6
	55	309	0.956633	87165.53	-17367.81	1	88878.97	-11.26866	-2.308895E-008	-0.0006932	6
