EXPLAIN
TAG	EISPOT
TITLE	LABEL	Potentiostatic EIS	Test Identifier
DATE	LABEL	11/21/2021	Date
TIME	LABEL	11:42:10	Time
NOTES	NOTES	1	Notes...
	
PSTAT	PSTAT	REF3000-16137	Potentiostat
VDC	POTEN	0.00000E+000	T	DC Voltage (V)
FREQINIT	QUANT	3.00000E+005	Initial Freq. (Hz)
FREQFINAL	QUANT	1.00000E+000	Final Freq. (Hz)
PTSPERDEC	QUANT	1.00000E+001	Points/decade
VAC	QUANT	5.00000E+001	AC Voltage (mV rms)
AREA	QUANT	1.00000E+000	Sample Area (cm^2)
SPEED	SELECTOR	2	Optimize for:
ZGUESS	QUANT	1.00000E+003	Estimated Z (ohms)
EOC	QUANT	0	Open Circuit (V)
SEQUENCER	TOGGLE	TRUE	Run as Sequence
PSTATMODEL	IQUANT	5	Pstat Model
PSTATSECTION	LABEL	REF3000-16137	Pstat Section
PSTATSERIALNO	LABEL	16137	Pstat Serial Number
CTRLMODE	IQUANT	1	Control Mode
IESTAB	IQUANT	0	I/E Stability
CASPEED	IQUANT	1	Control Amp Speed
CONVENTION	IQUANT	1	Current Convention
ICHRANGE	IQUANT	2	Ich Range
ICHRANGEMODE	TOGGLE	F	Ich Auto Range
ICHOFFSETENABLE	TOGGLE	T	Ich Offset Enable
ICHOFFSET	QUANT	0	Ich Offset (V)
ICHFILTER	IQUANT	3	Ich Filter
VCHRANGE	IQUANT	2	Vch Range
VCHRANGEMODE	TOGGLE	F	Vch Auto Range
VCHOFFSETENABLE	TOGGLE	T	Vch Offset Enable
VCHOFFSET	QUANT	0	Vch Offset (V)
VCHFILTER	IQUANT	3	Vch Filter
ACHRANGE	IQUANT	2	Ach Range
ACHOFFSETENABLE	TOGGLE	F	Ach Offset Enable
ACHOFFSET	QUANT	0	Ach Offset (V)
ACHFILTER	IQUANT	3	Ach Filter
IERANGELOWERLIMIT	IQUANT	2	I/E Range Lower Limit
IERANGEMODE	TOGGLE	F	I/E AutoRange
IERANGE	IQUANT	11	I/E Range
POSFEEDENABLE	TOGGLE	F	Positive Feedback IR Comp
POSFEEDRESISTANCE	QUANT	0	Positive Feedback Resistance (ohm)
ACHSELECT	IQUANT	0	Ach Select
CABLEID	IQUANT	13	Cable ID
DCCALDATE	LABEL	9/10/2021	DC Calibration Date
ACCALDATE	LABEL	9/10/2021	AC Calibration Date
THERMOSELECT	IQUANT	1	Thermo Select
FRAMEWORKVERSION	QUANT	6.33	Framework Version
INSTRUMENTVERSION	LABEL	3.50	Instrument Version
COMPLIANCEVOLTAGE	IQUANT	0	Compliance Voltage
ZCURVE	TABLE
	Pt	Time	Freq	Zreal	Zimag	Zsig	Zmod	Zphz	Idc	Vdc	IERange
	#	s	Hz	ohm	ohm	V	ohm	°	A	V	#
	0	6	300046.9	53.70773	2.163163	1	53.75127	2.306431	4.935777E-006	-0.0016565	9
	1	10	238359.4	53.89086	1.699186	1	53.91764	1.805946	-3.027681E-005	-0.0005861	9
	2	13	189328.1	54.18396	1.357346	1	54.20096	1.434999	2.666186E-005	-0.0004939	9
	3	15	150421.9	54.24543	1.033789	1	54.25528	1.091789	-6.41611E-005	0.0018486	9
	4	18	119484.4	54.51638	0.7306511	1	54.52128	0.7678557	-4.404497E-005	0.0007026	9
	5	20	94921.88	54.74828	0.6526417	1	54.75217	0.6829774	1.903266E-005	-0.000786	9
	6	23	75421.88	54.90908	0.438935	1	54.91083	0.4580042	1.805301E-005	-0.0005648	9
	7	25	59859.37	55.07363	0.2368887	1	55.07414	0.2464453	-1.572909E-005	0.00042	9
	8	28	47578.12	55.26584	0.0630806	1	55.26587	0.0653976	1.053764E-005	-0.0001354	9
	9	30	37828.12	55.45806	-0.1090617	1	55.45816	-0.1126755	-9.880527E-006	0.0003741	9
	10	33	30046.88	55.65068	-0.2574789	1	55.65128	-0.2650883	8.346901E-006	-0.0006677	9
	11	35	23859.38	55.85918	-0.4321499	1	55.86086	-0.4432552	1.865427E-005	-0.0004583	9
	12	38	18984.38	56.04527	-0.5688994	1	56.04816	-0.581573	-1.429501E-005	0.0001062	9
	13	40	15046.87	56.22949	-0.7564309	1	56.23458	-0.7707286	1.936546E-005	-0.0005877	9
	14	42	11953.13	56.39441	-0.958349	1	56.40255	-0.973573	1.895112E-005	-0.0003959	9
	15	45	9515.62	56.62707	-1.252941	1	56.64093	-1.26753	-1.039908E-005	0.0003949	9
	16	47	7546.875	56.83936	-1.585016	1	56.86145	-1.597329	1.890034E-005	-0.0007137	9
	17	49	5928.309	57.06026	-1.980709	1	57.09463	-1.988086	-9.61516E-006	0.0004278	9
	18	52	4733.456	57.29355	-2.46889	1	57.34672	-2.46746	1.602776E-005	-0.0003637	9
	19	54	3796.875	57.55379	-3.067329	1	57.63547	-3.050693	1.838203E-005	-0.0005025	9
	20	56	2987.132	57.83548	-3.784515	1	57.95917	-3.743862	-1.650585E-005	0.0002506	9
	21	58	2390.625	58.096	-4.64079	1	58.28106	-4.567169	8.199257E-006	-0.0006748	9
	22	61	1884.191	58.35935	-5.80545	1	58.6474	-5.680958	1.054266E-005	-0.0001432	9
	23	63	1516.544	58.77076	-7.083608	1	59.19611	-6.872677	1.963419E-005	-0.0006133	9
	24	65	1193.986	59.19918	-8.820033	1	59.85262	-8.474112	1.848123E-005	-0.0004689	9
	25	68	946.5144	59.69213	-10.93615	1	60.68566	-10.38198	1.970504E-005	-0.0005816	9
	26	70	751.7689	60.24257	-13.49846	1	61.73634	-12.62957	-3.883147E-006	0.0003142	9
	27	73	597.4265	61.00935	-16.66418	1	63.24425	-15.27721	-1.474982E-005	0.0001008	9
	28	76	477.4305	61.79453	-20.47583	1	65.09857	-18.3328	5.523507E-007	-0.0001255	9
	29	78	376.6741	62.77629	-25.3909	1	67.71676	-22.02168	5.924531E-007	-0.0001274	9
	30	80	298.2954	63.96751	-31.35491	1	71.23885	-26.11267	6.796822E-007	-0.0001278	9
	31	83	237.7717	65.39742	-38.44716	1	75.86176	-30.45128	6.410452E-007	-0.0001282	9
	32	85	189.0121	67.15565	-47.20211	1	82.08484	-35.10247	5.796793E-007	-0.0001282	9
	33	88	150.2404	69.27177	-57.8787	1	90.26917	-39.8798	5.211175E-007	-0.0001285	9
	34	90	119.1737	71.81451	-71.03768	1	101.0132	-44.68843	5.745912E-007	-0.0001265	9
	35	92	95.0169	74.73691	-86.73968	1	114.4962	-49.25105	5.264691E-007	-0.0001269	9
	36	95	75.60484	78.15178	-106.1182	1	131.7907	-53.62986	6.829515E-007	-0.0001377	9
	37	97	54.50582	83.81779	-141.7758	1	164.6991	-59.40844	5.3855E-007	-0.0001299	9
	38	100	45.95588	87.35446	-165.1153	1	186.799	-62.11886	5.69445E-007	-0.0001316	9
	39	102	37.20238	92.19778	-199.617	1	219.8803	-65.20904	5.291765E-007	-0.0001282	9
	40	105	30.04808	97.8678	-242.1732	1	261.201	-67.99522	4.69025E-007	-0.0001355	9
	41	107	23.91582	105.004	-298.1885	1	316.1364	-70.60081	6.057061E-007	-0.0001315	9
	42	109	18.60119	114.4716	-375.4516	1	392.5145	-73.04404	5.911976E-007	-0.000165	9
	43	112	15.02404	123.8678	-455.0731	1	471.6299	-74.77336	3.063519E-007	-0.0001235	8
	44	114	12.01923	136.2613	-559.4217	1	575.7775	-76.31073	2.8965E-007	-0.000121	8
	45	116	9.450605	152.9047	-698.9214	1	715.4515	-77.65969	3.14983E-007	-0.0001059	8
	46	119	7.512019	173.0871	-864.894	1	882.0435	-78.68317	3.082866E-007	-0.000127	8
	47	122	5.978954	197.4911	-1068.845	1	1086.937	-79.53149	3.141171E-007	-0.0001133	8
	48	125	4.734848	228.8105	-1327.527	1	1347.102	-80.22067	3.186749E-007	-0.0001513	8
	49	128	3.75601	268.3768	-1646.055	1	1667.79	-80.73984	3.459791E-007	-0.0001062	8
	50	131	3.004808	315.816	-2023.955	1	2048.447	-81.13114	3.204572E-007	-0.0000952	8
	51	135	2.372217	378.7107	-2517.581	1	2545.906	-81.44534	3.125293E-007	-8.757442E-005	8
	52	139	1.878005	462.7746	-3131.611	1	3165.619	-81.59394	3.382094E-007	-0.000134	8
	53	144	1.512097	555.8417	-3828.678	1	3868.816	-81.73959	3.319704E-007	-1.433062E-005	8
	54	149	1.201923	685.5274	-4747.199	1	4796.441	-81.78291	5.020891E-008	-0.0001231	7
	55	157	0.956633	842.5706	-5864.295	1	5924.515	-81.82381	3.158322E-008	-0.0006611	7
