EXPLAIN
TAG	EISPOT
TITLE	LABEL	Potentiostatic EIS	Test Identifier
DATE	LABEL	11/21/2021	Date
TIME	LABEL	10:57:51	Time
NOTES	NOTES	1	Notes...
	
PSTAT	PSTAT	REF3000-16137	Potentiostat
VDC	POTEN	0.00000E+000	T	DC Voltage (V)
FREQINIT	QUANT	3.00000E+005	Initial Freq. (Hz)
FREQFINAL	QUANT	1.00000E+000	Final Freq. (Hz)
PTSPERDEC	QUANT	1.00000E+001	Points/decade
VAC	QUANT	5.00000E+001	AC Voltage (mV rms)
AREA	QUANT	1.00000E+000	Sample Area (cm^2)
SPEED	SELECTOR	2	Optimize for:
ZGUESS	QUANT	1.00000E+003	Estimated Z (ohms)
EOC	QUANT	0	Open Circuit (V)
SEQUENCER	TOGGLE	TRUE	Run as Sequence
PSTATMODEL	IQUANT	5	Pstat Model
PSTATSECTION	LABEL	REF3000-16137	Pstat Section
PSTATSERIALNO	LABEL	16137	Pstat Serial Number
CTRLMODE	IQUANT	1	Control Mode
IESTAB	IQUANT	0	I/E Stability
CASPEED	IQUANT	1	Control Amp Speed
CONVENTION	IQUANT	1	Current Convention
ICHRANGE	IQUANT	2	Ich Range
ICHRANGEMODE	TOGGLE	F	Ich Auto Range
ICHOFFSETENABLE	TOGGLE	T	Ich Offset Enable
ICHOFFSET	QUANT	0	Ich Offset (V)
ICHFILTER	IQUANT	3	Ich Filter
VCHRANGE	IQUANT	2	Vch Range
VCHRANGEMODE	TOGGLE	F	Vch Auto Range
VCHOFFSETENABLE	TOGGLE	T	Vch Offset Enable
VCHOFFSET	QUANT	0	Vch Offset (V)
VCHFILTER	IQUANT	3	Vch Filter
ACHRANGE	IQUANT	2	Ach Range
ACHOFFSETENABLE	TOGGLE	F	Ach Offset Enable
ACHOFFSET	QUANT	0	Ach Offset (V)
ACHFILTER	IQUANT	3	Ach Filter
IERANGELOWERLIMIT	IQUANT	2	I/E Range Lower Limit
IERANGEMODE	TOGGLE	F	I/E AutoRange
IERANGE	IQUANT	11	I/E Range
POSFEEDENABLE	TOGGLE	F	Positive Feedback IR Comp
POSFEEDRESISTANCE	QUANT	0	Positive Feedback Resistance (ohm)
ACHSELECT	IQUANT	0	Ach Select
CABLEID	IQUANT	13	Cable ID
DCCALDATE	LABEL	9/10/2021	DC Calibration Date
ACCALDATE	LABEL	9/10/2021	AC Calibration Date
THERMOSELECT	IQUANT	1	Thermo Select
FRAMEWORKVERSION	QUANT	6.33	Framework Version
INSTRUMENTVERSION	LABEL	3.50	Instrument Version
COMPLIANCEVOLTAGE	IQUANT	0	Compliance Voltage
ZCURVE	TABLE
	Pt	Time	Freq	Zreal	Zimag	Zsig	Zmod	Zphz	Idc	Vdc	IERange
	#	s	Hz	ohm	ohm	V	ohm	°	A	V	#
	0	9	300046.9	6.597313	2.315562	1	6.991879	19.34034	2.017263E-005	-0.0006607	10
	1	12	238359.4	6.552485	1.833387	1	6.804143	15.63164	-1.451545E-005	-0.000808	10
	2	15	189328.1	6.532528	1.445126	1	6.690464	12.47408	-0.0001032	-0.0006512	10
	3	18	150421.9	6.528203	1.135239	1	6.626176	9.86495	-1.14478E-005	-0.0003815	10
	4	20	119484.4	6.512959	0.8678167	1	6.57052	7.589649	-2.490964E-005	-0.0003401	10
	5	23	94921.88	6.515936	0.665457	1	6.549829	5.831263	4.29245E-007	-0.0002573	10
	6	26	75421.88	6.511514	0.4803714	1	6.529209	4.219216	1.411594E-005	-0.0002561	10
	7	28	59859.37	6.512333	0.3206155	1	6.52022	2.818513	-6.761619E-006	-0.0001465	10
	8	31	47578.12	6.514541	0.1787239	1	6.516992	1.571493	2.284927E-005	-0.0001976	10
	9	33	37828.12	6.520762	0.0509046	1	6.520961	0.4472724	5.243671E-006	-0.0001856	10
	10	36	30046.88	6.529801	-0.0720228	1	6.530199	-0.6319392	2.344573E-005	-0.0001642	10
	11	38	23859.38	6.538624	-0.1961337	1	6.541565	-1.718139	1.830161E-005	-0.0001746	10
	12	40	18984.38	6.551201	-0.326065	1	6.559311	-2.849362	-2.226068E-005	-9.460137E-005	10
	13	43	15046.87	6.564289	-0.4725286	1	6.581275	-4.117319	7.187666E-006	-0.0001555	10
	14	45	11953.13	6.582153	-0.6398042	1	6.613175	-5.551873	1.964992E-005	-0.000121	10
	15	47	9515.62	6.604105	-0.8320107	1	6.656308	-7.180515	-1.982185E-005	-9.206202E-005	10
	16	50	7546.875	6.630759	-1.066403	1	6.715965	-9.136456	-7.638478E-006	-0.0001146	10
	17	52	5928.309	6.665337	-1.363565	1	6.803383	-11.56178	2.124664E-005	-0.0001371	10
	18	54	4733.456	6.707439	-1.701302	1	6.919839	-14.23258	2.262549E-005	-0.000153	10
	19	58	3796.875	6.758399	-2.102858	1	7.077992	-17.28339	1.351215E-005	-0.0001562	10
	20	60	2987.132	6.828209	-2.640888	1	7.321115	-21.14455	2.044206E-005	-0.0001371	10
	21	62	2390.625	6.909136	-3.253451	1	7.636825	-25.21533	-1.647453E-005	-0.000132	10
	22	64	1884.191	7.017844	-4.055101	1	8.105183	-30.02049	-2.720125E-006	-0.0001443	10
	23	67	1516.544	7.138064	-4.954893	1	8.689242	-34.76648	2.140682E-005	-0.0001355	10
	24	69	1193.986	7.299969	-6.168013	1	9.55688	-40.1957	5.563394E-006	-0.0001559	10
	25	72	946.5144	7.480212	-7.633253	1	10.68738	-45.58016	-1.763455E-005	-0.0001329	10
	26	74	751.7689	7.700637	-9.419934	1	12.16696	-50.73458	-2.93896E-006	-0.000128	10
	27	76	597.4265	7.963078	-11.62809	1	14.09337	-55.5961	1.193647E-005	-0.0001629	10
	28	78	477.4305	8.263451	-14.30357	1	16.51898	-59.98414	-5.720741E-007	-0.0001145	10
	29	81	376.6741	8.639749	-17.80364	1	19.78926	-64.11364	-5.026343E-007	-0.0001159	10
	30	83	298.2954	9.090379	-22.10878	1	23.90467	-67.6492	3.26788E-006	-0.000155	10
	31	85	237.7717	9.62792	-27.31262	1	28.9599	-70.58203	-6.188202E-007	-0.0001141	10
	32	88	189.0121	10.30098	-33.83937	1	35.3725	-73.06933	-6.496224E-007	-0.0001176	10
	33	90	150.2404	11.12822	-41.89565	1	43.34838	-75.12472	6.271067E-007	-0.0001336	9
	34	93	119.1737	12.19391	-52.04243	1	53.45191	-76.81308	5.872064E-007	-0.0001304	9
	35	95	95.0169	13.5069	-64.34579	1	65.74813	-78.14509	5.810076E-007	-0.0001291	9
	36	98	75.60484	15.1805	-79.69991	1	81.13274	-79.216	5.214211E-007	-0.0001334	9
	37	100	54.50582	18.39154	-108.2586	1	109.8097	-80.35834	5.085714E-007	-0.0001356	9
	38	103	45.95588	20.56564	-126.9787	1	128.6334	-80.80019	6.328017E-007	-0.0001202	9
	39	105	37.20238	23.85172	-154.6631	1	156.4915	-81.23306	6.13836E-007	-0.0001193	9
	40	107	30.04808	28.00735	-188.685	1	190.7523	-81.55698	5.440832E-007	-0.0001224	9
	41	110	23.91582	33.64418	-233.472	1	235.8836	-81.79991	5.883515E-007	-0.0001322	9
	42	112	18.60119	41.73155	-294.975	1	297.9124	-81.94753	5.678806E-007	-0.0001315	9
	43	114	15.02404	50.55431	-359.6047	1	363.1409	-81.99763	6.794465E-007	-0.0001288	9
	44	117	12.01923	62.12022	-440.3118	1	444.6722	-81.96957	7.405224E-007	-0.000118	8
	45	119	9.450605	78.69672	-550.109	1	555.7095	-81.8587	7.207317E-007	-0.0001355	8
	46	122	7.512019	99.4252	-679.7158	1	686.949	-81.6781	7.072657E-007	-0.0001383	8
	47	124	5.978954	126.6542	-838.709	1	848.2181	-81.4126	7.371654E-007	-0.0001319	8
	48	127	4.734848	163.2805	-1038.752	1	1051.507	-81.06683	7.18804E-007	-0.000152	8
	49	131	3.75601	212.5994	-1283.036	1	1300.531	-80.59157	7.788448E-007	-0.0001054	8
	50	134	3.004808	275.3913	-1569.488	1	1593.466	-80.04787	7.682038E-007	-0.0001361	8
	51	138	2.372217	367.304	-1941.129	1	1975.574	-79.28507	7.240382E-007	-0.0001811	8
	52	142	1.878005	485.7845	-2393.396	1	2442.198	-78.5266	7.778607E-007	-0.0001225	8
	53	147	1.512097	631.1413	-2890.402	1	2958.507	-77.68237	7.352276E-007	-9.184047E-005	8
	54	152	1.201923	847.5962	-3535.58	1	3635.76	-76.51871	7.585292E-007	-0.0001084	8
	55	158	0.956633	1133.206	-4299.621	1	4446.448	-75.23492	1.227247E-007	-0.0006535	7
