EXPLAIN
TAG	EISPOT
TITLE	LABEL	Potentiostatic EIS	Test Identifier
DATE	LABEL	11/21/2021	Date
TIME	LABEL	12:16:53	Time
NOTES	NOTES	1	Notes...
	
PSTAT	PSTAT	REF3000-16137	Potentiostat
VDC	POTEN	0.00000E+000	T	DC Voltage (V)
FREQINIT	QUANT	3.00000E+005	Initial Freq. (Hz)
FREQFINAL	QUANT	1.00000E+000	Final Freq. (Hz)
PTSPERDEC	QUANT	1.00000E+001	Points/decade
VAC	QUANT	5.00000E+001	AC Voltage (mV rms)
AREA	QUANT	1.00000E+000	Sample Area (cm^2)
SPEED	SELECTOR	2	Optimize for:
ZGUESS	QUANT	1.00000E+003	Estimated Z (ohms)
EOC	QUANT	0	Open Circuit (V)
SEQUENCER	TOGGLE	TRUE	Run as Sequence
PSTATMODEL	IQUANT	5	Pstat Model
PSTATSECTION	LABEL	REF3000-16137	Pstat Section
PSTATSERIALNO	LABEL	16137	Pstat Serial Number
CTRLMODE	IQUANT	1	Control Mode
IESTAB	IQUANT	0	I/E Stability
CASPEED	IQUANT	1	Control Amp Speed
CONVENTION	IQUANT	1	Current Convention
ICHRANGE	IQUANT	2	Ich Range
ICHRANGEMODE	TOGGLE	F	Ich Auto Range
ICHOFFSETENABLE	TOGGLE	T	Ich Offset Enable
ICHOFFSET	QUANT	0	Ich Offset (V)
ICHFILTER	IQUANT	3	Ich Filter
VCHRANGE	IQUANT	2	Vch Range
VCHRANGEMODE	TOGGLE	F	Vch Auto Range
VCHOFFSETENABLE	TOGGLE	T	Vch Offset Enable
VCHOFFSET	QUANT	0	Vch Offset (V)
VCHFILTER	IQUANT	3	Vch Filter
ACHRANGE	IQUANT	2	Ach Range
ACHOFFSETENABLE	TOGGLE	F	Ach Offset Enable
ACHOFFSET	QUANT	0	Ach Offset (V)
ACHFILTER	IQUANT	3	Ach Filter
IERANGELOWERLIMIT	IQUANT	2	I/E Range Lower Limit
IERANGEMODE	TOGGLE	F	I/E AutoRange
IERANGE	IQUANT	11	I/E Range
POSFEEDENABLE	TOGGLE	F	Positive Feedback IR Comp
POSFEEDRESISTANCE	QUANT	0	Positive Feedback Resistance (ohm)
ACHSELECT	IQUANT	0	Ach Select
CABLEID	IQUANT	13	Cable ID
DCCALDATE	LABEL	9/10/2021	DC Calibration Date
ACCALDATE	LABEL	9/10/2021	AC Calibration Date
THERMOSELECT	IQUANT	1	Thermo Select
FRAMEWORKVERSION	QUANT	6.33	Framework Version
INSTRUMENTVERSION	LABEL	3.50	Instrument Version
COMPLIANCEVOLTAGE	IQUANT	0	Compliance Voltage
ZCURVE	TABLE
	Pt	Time	Freq	Zreal	Zimag	Zsig	Zmod	Zphz	Idc	Vdc	IERange
	#	s	Hz	ohm	ohm	V	ohm	°	A	V	#
	0	26	300046.9	1996.738	-1723.014	1	2637.374	-40.79138	8.362722E-005	-0.0031893	9
	1	40	238359.4	2370.356	-1793.064	1	2972.149	-37.10581	2.673316E-005	-0.0018496	9
	2	62	189328.1	2728.977	-1699.223	1	3214.759	-31.90885	-7.924144E-005	0.0030949	9
	3	74	150421.9	3256.664	-1725.464	1	3685.524	-27.91579	7.766511E-005	-0.0018581	9
	4	84	119484.4	3508.919	-1599.507	1	3856.285	-24.50541	8.486722E-005	-0.0027717	9
	5	96	94921.88	3884.339	-1336.993	1	4107.997	-18.99351	4.069966E-007	0.0056019	8
	6	103	75421.88	4121.218	-1145.18	1	4277.368	-15.52924	-2.01708E-005	0.0026046	8
	7	111	59859.37	4345.164	-1033.744	1	4466.438	-13.38228	-1.068826E-005	-0.0019902	8
	8	118	47578.12	4549.67	-924.2335	1	4642.597	-11.48298	-1.620046E-005	0.0005533	8
	9	126	37828.12	4737.67	-745.78	1	4796.009	-8.945803	-1.639049E-005	0.0006179	8
	10	133	30046.88	4891.545	-657.9432	1	4935.596	-7.66066	2.456049E-005	-0.0060636	8
	11	140	23859.38	5015.863	-559.6481	1	5046.988	-6.366481	-1.623343E-005	0.0005457	8
	12	146	18984.38	5139.181	-467.0526	1	5160.36	-5.192818	5.555869E-006	-0.0074754	8
	13	151	15046.87	5267.791	-177.2294	1	5270.771	-1.926931	-6.129845E-007	-0.0127972	7
	14	154	11953.13	5336.249	-149.2366	1	5338.335	-1.601949	-4.284992E-006	0.0013838	7
	15	157	9515.62	5388.938	-128.6995	1	5390.475	-1.368087	-4.92331E-006	0.022107	7
	16	160	7546.875	5458.572	-224.6545	1	5463.193	-2.356751	2.533906E-007	0.0056987	8
	17	166	5928.309	5532.982	-102.6119	1	5533.933	-1.062457	-6.096549E-007	-0.0129818	7
	18	171	4733.456	5628.749	-72.31618	1	5629.213	-0.7360755	2.112887E-006	0.0074619	7
	19	175	3796.875	5718.534	-69.36302	1	5718.955	-0.6949357	1.494593E-006	-0.0185776	7
	20	179	2987.132	5798.03	-65.95406	1	5798.405	-0.6517259	4.016593E-006	-0.0003744	7
	21	183	2390.625	5867.536	-65.13553	1	5867.897	-0.6360144	6.558042E-006	-0.0210208	7
	22	186	1884.191	5946.118	-49.83784	1	5946.327	-0.4802176	-1.801938E-006	0.0188595	7
	23	191	1516.544	6002.465	-72.13371	1	6002.898	-0.6885102	-5.751522E-006	0.0214855	7
	24	195	1193.986	6110.818	-36.37714	1	6110.927	-0.3410724	4.795263E-006	-0.0238855	7
	25	199	946.5144	6139.487	-22.20438	1	6139.527	-0.2072179	-6.36701E-006	0.015321	7
	26	202	751.7689	6207.268	-29.3258	1	6207.337	-0.2706878	5.58647E-006	-0.0087295	7
	27	205	597.4265	6307.908	-75.26588	1	6308.357	-0.6836202	-4.757958E-006	0.0222867	7
	28	207	477.4305	6338.875	-55.24037	1	6339.116	-0.4992936	-7.843761E-008	-0.0001498	7
	29	210	376.6741	6386.369	-62.47895	1	6386.675	-0.5605166	-8.687196E-008	-0.0001598	7
	30	212	298.2954	6436.185	-73.25993	1	6436.602	-0.6521415	-8.246811E-008	-0.0001475	7
	31	214	237.7717	6490.71	-86.93887	1	6491.292	-0.7673941	-9.081263E-008	-0.00012	7
	32	217	189.0121	6543.763	-104.969	1	6544.605	-0.9190069	-9.812929E-008	-0.000123	7
	33	219	150.2404	6599.994	-126.744	1	6601.211	-1.100153	-8.249722E-008	-9.245262E-005	7
	34	222	119.1737	6656.935	-156.7034	1	6658.779	-1.348487	-1.10326E-007	-8.809723E-005	7
	35	224	95.0169	6715.062	-190.28	1	6717.757	-1.623116	-7.241682E-008	-0.0001624	7
	36	226	75.60484	6776.746	-232.0862	1	6780.719	-1.961467	-9.546047E-008	-0.0001606	7
	37	229	54.50582	6846.439	-311.512	1	6853.522	-2.605153	-9.70111E-008	-0.0001468	7
	38	231	45.95588	6910.868	-364.1545	1	6920.455	-3.016298	-1.277906E-007	-0.0001381	7
	39	234	37.20238	6973.38	-441.9647	1	6987.372	-3.626489	-1.360526E-007	-0.0001529	7
	40	236	30.04808	7044.898	-532.8384	1	7065.02	-4.325311	-7.909341E-008	-8.04216E-005	7
	41	239	23.91582	7118.104	-657.5981	1	7148.415	-5.278224	-1.283429E-007	-0.0001626	7
	42	241	18.60119	7209.453	-836.8253	1	7257.857	-6.620884	5.14505E-008	-8.294113E-005	7
	43	243	15.02404	7302.404	-1001.357	1	7370.741	-7.808099	-1.982737E-007	-0.0001452	7
	44	246	12.01923	7390.276	-1204.247	1	7487.75	-9.255014	2.368778E-008	-0.0001428	7
	45	248	9.450605	7474.419	-1509.088	1	7625.241	-11.41459	-1.808033E-007	-0.0001553	7
	46	250	7.512019	7626.834	-1860.549	1	7850.493	-13.70941	-7.443179E-008	-0.000095	7
	47	253	5.978954	7772.169	-2292.41	1	8103.194	-16.43348	-2.819893E-008	-0.000135	7
	48	256	4.734848	7971.199	-2809.766	1	8451.911	-19.41703	-7.344168E-008	-8.147817E-005	7
	49	259	3.75601	8205.709	-3452.344	1	8902.379	-22.81769	-6.845921E-008	-0.0001295	7
	50	263	3.004808	8461.856	-4200.292	1	9446.981	-26.39886	-1.001603E-007	-9.44838E-005	7
	51	267	2.372217	8812.771	-5157.574	1	10211.05	-30.33782	-6.770667E-008	-6.211112E-005	7
	52	271	1.878005	9210.849	-6315.053	1	11167.79	-34.43494	-7.814961E-008	-0.0001378	7
	53	276	1.512097	9675.31	-7601.855	1	12304.46	-38.15659	-8.076756E-008	-1.009871E-005	7
	54	281	1.201923	10260.96	-9285.905	1	13838.9	-42.1443	-7.489651E-008	-0.0001579	7
	55	287	0.956633	10955.82	-11302.61	1	15741	-45.89261	-9.492945E-008	-0.0006585	7
