EXPLAIN
TAG	EISPOT
TITLE	LABEL	Potentiostatic EIS	Test Identifier
DATE	LABEL	11/21/2021	Date
TIME	LABEL	11:58:45	Time
NOTES	NOTES	1	Notes...
	
PSTAT	PSTAT	REF3000-16137	Potentiostat
VDC	POTEN	0.00000E+000	T	DC Voltage (V)
FREQINIT	QUANT	3.00000E+005	Initial Freq. (Hz)
FREQFINAL	QUANT	1.00000E+000	Final Freq. (Hz)
PTSPERDEC	QUANT	1.00000E+001	Points/decade
VAC	QUANT	5.00000E+001	AC Voltage (mV rms)
AREA	QUANT	1.00000E+000	Sample Area (cm^2)
SPEED	SELECTOR	2	Optimize for:
ZGUESS	QUANT	1.00000E+003	Estimated Z (ohms)
EOC	QUANT	0	Open Circuit (V)
SEQUENCER	TOGGLE	TRUE	Run as Sequence
PSTATMODEL	IQUANT	5	Pstat Model
PSTATSECTION	LABEL	REF3000-16137	Pstat Section
PSTATSERIALNO	LABEL	16137	Pstat Serial Number
CTRLMODE	IQUANT	1	Control Mode
IESTAB	IQUANT	0	I/E Stability
CASPEED	IQUANT	1	Control Amp Speed
CONVENTION	IQUANT	1	Current Convention
ICHRANGE	IQUANT	2	Ich Range
ICHRANGEMODE	TOGGLE	F	Ich Auto Range
ICHOFFSETENABLE	TOGGLE	T	Ich Offset Enable
ICHOFFSET	QUANT	0	Ich Offset (V)
ICHFILTER	IQUANT	3	Ich Filter
VCHRANGE	IQUANT	2	Vch Range
VCHRANGEMODE	TOGGLE	F	Vch Auto Range
VCHOFFSETENABLE	TOGGLE	T	Vch Offset Enable
VCHOFFSET	QUANT	0	Vch Offset (V)
VCHFILTER	IQUANT	3	Vch Filter
ACHRANGE	IQUANT	2	Ach Range
ACHOFFSETENABLE	TOGGLE	F	Ach Offset Enable
ACHOFFSET	QUANT	0	Ach Offset (V)
ACHFILTER	IQUANT	3	Ach Filter
IERANGELOWERLIMIT	IQUANT	2	I/E Range Lower Limit
IERANGEMODE	TOGGLE	F	I/E AutoRange
IERANGE	IQUANT	11	I/E Range
POSFEEDENABLE	TOGGLE	F	Positive Feedback IR Comp
POSFEEDRESISTANCE	QUANT	0	Positive Feedback Resistance (ohm)
ACHSELECT	IQUANT	0	Ach Select
CABLEID	IQUANT	13	Cable ID
DCCALDATE	LABEL	9/10/2021	DC Calibration Date
ACCALDATE	LABEL	9/10/2021	AC Calibration Date
THERMOSELECT	IQUANT	1	Thermo Select
FRAMEWORKVERSION	QUANT	6.33	Framework Version
INSTRUMENTVERSION	LABEL	3.50	Instrument Version
COMPLIANCEVOLTAGE	IQUANT	0	Compliance Voltage
ZCURVE	TABLE
	Pt	Time	Freq	Zreal	Zimag	Zsig	Zmod	Zphz	Idc	Vdc	IERange
	#	s	Hz	ohm	ohm	V	ohm	°	A	V	#
	0	13	300046.9	255.8288	-12.63932	1	256.1408	-2.828421	1.229611E-005	0.0008174	9
	1	17	238359.4	258.9147	-15.45284	1	259.3755	-3.41554	2.435183E-005	-0.0004133	10
	2	24	189328.1	263.6895	-8.91816	1	263.8403	-1.937044	-8.656643E-006	0.0011554	9
	3	29	150421.9	266.5171	-11.69017	1	266.7733	-2.511539	1.924089E-005	-0.000208	10
	4	35	119484.4	268.8514	-6.433114	1	268.9284	-1.37072	6.928596E-005	-0.0032265	9
	5	40	94921.88	271.3237	-6.054312	1	271.3912	-1.278285	-2.342364E-005	0.0006694	9
	6	43	75421.88	273.1111	-5.008941	1	273.157	-1.050704	-2.509777E-005	0.0004907	9
	7	46	59859.37	275.0774	-4.412514	1	275.1128	-0.9190023	-2.279217E-005	0.0003216	9
	8	50	47578.12	277.2011	-3.602418	1	277.2245	-0.744556	-2.465526E-005	0.0004834	9
	9	53	37828.12	279.426	-3.57177	1	279.4488	-0.732345	-2.472209E-005	0.0007116	9
	10	57	30046.88	281.2119	-2.504296	1	281.2231	-0.5102265	-2.388321E-005	0.0006824	9
	11	61	23859.38	283.9586	-2.365877	1	283.9685	-0.477364	8.371585E-006	-0.0008709	9
	12	65	18984.38	285.8897	-2.30385	1	285.899	-0.4617096	2.559464E-005	-0.0008254	9
	13	68	15046.87	287.0997	-2.737371	1	287.1128	-0.5462738	1.401123E-005	-0.0010107	9
	14	71	11953.13	288.1619	-3.050217	1	288.178	-0.6064578	-5.793897E-006	-0.000499	9
	15	73	9515.62	290.1665	-2.879218	1	290.1808	-0.5685068	-1.663825E-005	0.0007387	9
	16	76	7546.875	291.1584	-3.663952	1	291.1814	-0.720975	-1.962916E-005	0.000098	9
	17	78	5928.309	292.199	-3.379364	1	292.2186	-0.6626121	1.115843E-006	0.0003741	9
	18	80	4733.456	294.134	-3.678404	1	294.157	-0.7164966	-3.50468E-006	-0.0005389	9
	19	83	3796.875	295.7177	-3.719929	1	295.7411	-0.7207041	-2.3752E-005	0.0005118	9
	20	85	2987.132	297.5821	-5.687116	1	297.6365	-1.094851	2.438833E-005	-0.0009804	9
	21	89	2390.625	299.5759	-6.224186	1	299.6406	-1.190243	4.575525E-007	0.000367	9
	22	91	1884.191	302.3371	-8.748056	1	302.4637	-1.657378	2.406741E-005	-0.0009608	9
	23	93	1516.544	302.5912	-9.76204	1	302.7487	-1.847806	-8.585302E-006	0.0006459	9
	24	96	1193.986	304.2581	-11.13208	1	304.4617	-2.095382	2.317534E-005	-0.0004626	9
	25	98	946.5144	307.0854	-15.0678	1	307.4548	-2.809087	-2.426912E-005	0.0007128	9
	26	102	751.7689	309.6099	-17.45239	1	310.1014	-3.22629	-1.990265E-005	0.000099	9
	27	105	597.4265	311.1885	-20.885	1	311.8886	-3.839572	-2.4094E-005	0.0006737	9
	28	107	477.4305	313.6191	-26.52032	1	314.7385	-4.833557	2.833728E-007	-0.0001677	9
	29	109	376.6741	315.9322	-32.88869	1	317.6395	-5.94311	3.186305E-007	-0.0001304	9
	30	112	298.2954	318.4861	-40.69703	1	321.0758	-7.281948	2.955421E-007	-0.0001255	9
	31	114	237.7717	321.4011	-50.09326	1	325.2814	-8.858789	2.735964E-007	-0.0001648	9
	32	117	189.0121	324.7388	-61.79937	1	330.5668	-10.77483	2.897389E-007	-0.0001202	9
	33	119	150.2404	328.6064	-76.19675	1	337.3249	-13.05494	2.733865E-007	-0.0001644	9
	34	121	119.1737	333.1763	-94.06161	1	346.1994	-15.76532	2.648295E-007	-0.0001243	9
	35	124	95.0169	338.5698	-115.4646	1	357.7172	-18.83123	3.090287E-007	-0.0001319	9
	36	126	75.60484	343.6764	-141.2372	1	371.5661	-22.34069	-1.081446E-007	-0.0001176	8
	37	129	54.50582	354.7915	-189.0943	1	402.0369	-28.05641	-1.081213E-007	-0.0001233	8
	38	131	45.95588	362.6949	-219.9929	1	424.1987	-31.23894	-6.031974E-008	-0.0001263	8
	39	134	37.20238	373.6264	-264.9346	1	458.0251	-35.34006	-1.35198E-007	-0.0001087	8
	40	136	30.04808	386.8341	-319.3228	1	501.6051	-39.53891	-1.271479E-007	-0.0001131	8
	41	139	23.91582	403.4424	-389.2973	1	560.6409	-43.97776	-1.154064E-007	-0.0001276	8
	42	141	18.60119	424.9365	-483.7082	1	643.8514	-48.70077	-9.727382E-009	-0.0001352	8
	43	143	15.02404	446.5504	-581.3341	1	733.0461	-52.47042	-1.375815E-007	-0.000107	8
	44	145	12.01923	472.7873	-704.5423	1	848.4738	-56.13618	-4.455595E-008	-0.0001145	8
	45	148	9.450605	504.4198	-867.5154	1	1003.505	-59.82399	-5.458849E-008	-0.0001373	8
	46	150	7.512019	539.4958	-1059.401	1	1188.859	-63.0127	-5.578723E-008	-0.000126	8
	47	153	5.978954	578.632	-1294.486	1	1417.924	-65.91547	-5.947452E-008	-0.0001314	8
	48	156	4.734848	624.8104	-1592.499	1	1710.684	-68.57764	-7.053195E-008	-8.710904E-005	8
	49	159	3.75601	679.8831	-1959.957	1	2074.53	-70.86902	-6.969891E-008	-0.0001675	8
	50	163	3.004808	742.027	-2396.625	1	2508.867	-72.79678	-8.174476E-008	-9.4456E-005	8
	51	167	2.372217	823.8537	-2973.106	1	3085.141	-74.51184	-8.9568E-008	-5.120963E-005	8
	52	171	1.878005	915.7553	-3685.197	1	3797.273	-76.04491	-1.063841E-007	-0.0001714	8
	53	175	1.512097	1023.967	-4494.972	1	4610.128	-77.16686	-1.961988E-009	-0.0001079	7
	54	181	1.201923	1166.261	-5573.556	1	5694.269	-78.18143	-2.620781E-008	-0.0001314	7
	55	187	0.956633	1341.402	-6880.398	1	7009.938	-78.968	-2.477673E-008	-0.0006505	7
