EXPLAIN
TAG	EISPOT
TITLE	LABEL	Potentiostatic EIS	Test Identifier
DATE	LABEL	11/21/2021	Date
TIME	LABEL	11:28:23	Time
NOTES	NOTES	1	Notes...
	
PSTAT	PSTAT	REF3000-16137	Potentiostat
VDC	POTEN	0.00000E+000	T	DC Voltage (V)
FREQINIT	QUANT	3.00000E+005	Initial Freq. (Hz)
FREQFINAL	QUANT	1.00000E+000	Final Freq. (Hz)
PTSPERDEC	QUANT	1.00000E+001	Points/decade
VAC	QUANT	5.00000E+001	AC Voltage (mV rms)
AREA	QUANT	1.00000E+000	Sample Area (cm^2)
SPEED	SELECTOR	2	Optimize for:
ZGUESS	QUANT	1.00000E+003	Estimated Z (ohms)
EOC	QUANT	0	Open Circuit (V)
SEQUENCER	TOGGLE	TRUE	Run as Sequence
PSTATMODEL	IQUANT	5	Pstat Model
PSTATSECTION	LABEL	REF3000-16137	Pstat Section
PSTATSERIALNO	LABEL	16137	Pstat Serial Number
CTRLMODE	IQUANT	1	Control Mode
IESTAB	IQUANT	0	I/E Stability
CASPEED	IQUANT	1	Control Amp Speed
CONVENTION	IQUANT	1	Current Convention
ICHRANGE	IQUANT	2	Ich Range
ICHRANGEMODE	TOGGLE	F	Ich Auto Range
ICHOFFSETENABLE	TOGGLE	T	Ich Offset Enable
ICHOFFSET	QUANT	0	Ich Offset (V)
ICHFILTER	IQUANT	3	Ich Filter
VCHRANGE	IQUANT	2	Vch Range
VCHRANGEMODE	TOGGLE	F	Vch Auto Range
VCHOFFSETENABLE	TOGGLE	T	Vch Offset Enable
VCHOFFSET	QUANT	0	Vch Offset (V)
VCHFILTER	IQUANT	3	Vch Filter
ACHRANGE	IQUANT	2	Ach Range
ACHOFFSETENABLE	TOGGLE	F	Ach Offset Enable
ACHOFFSET	QUANT	0	Ach Offset (V)
ACHFILTER	IQUANT	3	Ach Filter
IERANGELOWERLIMIT	IQUANT	2	I/E Range Lower Limit
IERANGEMODE	TOGGLE	F	I/E AutoRange
IERANGE	IQUANT	11	I/E Range
POSFEEDENABLE	TOGGLE	F	Positive Feedback IR Comp
POSFEEDRESISTANCE	QUANT	0	Positive Feedback Resistance (ohm)
ACHSELECT	IQUANT	0	Ach Select
CABLEID	IQUANT	13	Cable ID
DCCALDATE	LABEL	9/10/2021	DC Calibration Date
ACCALDATE	LABEL	9/10/2021	AC Calibration Date
THERMOSELECT	IQUANT	1	Thermo Select
FRAMEWORKVERSION	QUANT	6.33	Framework Version
INSTRUMENTVERSION	LABEL	3.50	Instrument Version
COMPLIANCEVOLTAGE	IQUANT	0	Compliance Voltage
ZCURVE	TABLE
	Pt	Time	Freq	Zreal	Zimag	Zsig	Zmod	Zphz	Idc	Vdc	IERange
	#	s	Hz	ohm	ohm	V	ohm	°	A	V	#
	0	8	300046.9	21.62253	2.014219	1	21.71614	5.321955	6.735115E-005	-0.0005955	10
	1	11	238359.4	21.68352	1.608967	1	21.74313	4.243701	3.171693E-005	-0.0002639	10
	2	14	189328.1	21.72441	1.262263	1	21.76105	3.325342	-1.191719E-005	-0.0002408	10
	3	17	150421.9	21.80633	0.98266	1	21.82846	2.580178	2.788355E-005	-2.13607E-005	10
	4	19	119484.4	21.82969	0.7359654	1	21.84209	1.930937	2.788025E-005	-0.0001796	10
	5	22	94921.88	21.88204	0.5178742	1	21.88817	1.355745	-1.433844E-005	-0.0001696	10
	6	24	75421.88	21.93679	0.3500082	1	21.93959	0.9140941	5.184206E-006	-0.0002044	10
	7	27	59859.37	21.99441	0.2037585	1	21.99535	0.5307789	2.413265E-005	-0.0001253	10
	8	29	47578.12	22.05737	0.0722193	1	22.05749	0.1875948	-9.702097E-006	-7.697257E-005	10
	9	32	37828.12	22.11644	-0.0550835	1	22.1165	-0.1427013	1.991032E-005	-0.0001132	10
	10	34	30046.88	22.17937	-0.1842731	1	22.18014	-0.4760203	-1.234043E-006	-8.742561E-005	10
	11	37	23859.38	22.2407	-0.319634	1	22.243	-0.8233743	-2.884313E-005	-0.0001366	10
	12	39	18984.38	22.30536	-0.4633293	1	22.31017	-1.189983	2.50064E-005	-0.0001721	10
	13	41	15046.87	22.36994	-0.6327422	1	22.37889	-1.620201	-3.267078E-006	-0.0001544	10
	14	44	11953.13	22.43881	-0.8314512	1	22.45421	-2.122076	-2.150936E-005	-0.0001316	10
	15	46	9515.62	22.51796	-1.061355	1	22.54296	-2.698567	2.553526E-005	-0.0001409	10
	16	48	7546.875	22.59981	-1.344734	1	22.63978	-3.405199	-2.267722E-005	-6.063308E-005	10
	17	51	5928.309	22.69453	-1.701974	1	22.75826	-4.288862	1.787026E-005	-0.0001358	10
	18	53	4733.456	22.79337	-2.106826	1	22.89053	-5.280932	-2.459895E-005	-0.0001088	10
	19	55	3796.875	22.89986	-2.600575	1	23.04705	-6.47892	2.576572E-005	-0.0001696	10
	20	57	2987.132	23.0439	-3.258017	1	23.27308	-8.047317	1.748826E-005	-0.0001341	10
	21	60	2390.625	23.19026	-4.00834	1	23.53412	-9.80644	-1.058758E-005	-0.0001193	10
	22	62	1884.191	23.37314	-5.004406	1	23.90288	-12.08509	-2.017587E-005	-9.01949E-005	10
	23	64	1516.544	23.58274	-6.123214	1	24.36472	-14.55533	-2.002312E-005	-0.000154	10
	24	67	1193.986	23.85334	-7.630907	1	25.04421	-17.73996	2.490449E-005	-0.0001574	10
	25	69	946.5144	24.17707	-9.4324	1	25.9519	-21.31265	1.390866E-005	-0.0001934	10
	26	72	751.7689	24.56098	-11.65129	1	27.18445	-25.37883	-1.284685E-005	-9.389899E-005	10
	27	74	597.4265	25.04627	-14.3655	1	28.87357	-29.83678	-2.704348E-005	-9.355426E-005	10
	28	76	477.4305	25.62419	-17.59495	1	31.08346	-34.47559	-5.825459E-007	-0.0001172	10
	29	78	376.6741	26.34146	-21.76612	1	34.1707	-39.56714	-6.321885E-007	-0.0001208	10
	30	81	298.2954	27.18503	-26.82224	1	38.18977	-44.61512	-6.409522E-007	-0.0001155	10
	31	83	237.7717	28.11535	-32.814	1	43.21148	-49.40971	5.60425E-007	-0.000134	9
	32	86	189.0121	29.24607	-40.30584	1	49.79853	-54.03522	5.216901E-007	-0.0001295	9
	33	88	150.2404	30.55096	-49.55198	1	58.21305	-58.34435	4.927467E-007	-0.0001292	9
	34	90	119.1737	32.07656	-61.11111	1	69.01792	-62.3055	5.307612E-007	-0.0001295	9
	35	93	95.0169	33.82404	-75.11635	1	82.3804	-65.75851	5.233611E-007	-0.0001346	9
	36	95	75.60484	35.91853	-92.62657	1	99.347	-68.80482	4.07985E-007	-0.0001305	9
	37	98	54.50582	39.66152	-125.2493	1	131.3789	-72.42905	5.35524E-007	-0.0001394	9
	38	100	45.95588	42.10888	-146.7103	1	152.6338	-73.98544	4.722656E-007	-0.0001288	9
	39	103	37.20238	45.70334	-178.52	1	184.2775	-75.63999	5.067163E-007	-0.0001263	9
	40	105	30.04808	50.15756	-217.7673	1	223.4689	-77.02947	4.862761E-007	-0.0001268	9
	41	107	23.91582	56.00828	-269.2651	1	275.0284	-78.24979	4.12584E-007	-0.0001336	9
	42	110	18.60119	64.22325	-340.4172	1	346.4224	-79.31613	5.366334E-007	-0.0001356	9
	43	112	15.02404	72.99557	-415.3844	1	421.7494	-80.03316	5.217502E-007	-0.0001405	9
	44	114	12.01923	84.02495	-509.2217	1	516.1075	-80.63025	5.156849E-007	-0.0001212	8
	45	117	9.450605	99.6158	-636.9362	1	644.679	-81.11104	5.448763E-007	-0.0001153	8
	46	119	7.512019	118.2274	-788.8734	1	797.6835	-81.47659	5.408139E-007	-0.0001109	8
	47	122	5.978954	141.9143	-974.783	1	985.059	-81.71675	5.256161E-007	-0.0001178	8
	48	125	4.734848	173.2047	-1210.739	1	1223.065	-81.85867	5.386636E-007	-0.000137	8
	49	128	3.75601	211.825	-1500.327	1	1515.206	-81.96376	5.544356E-007	-0.0001057	8
	50	132	3.004808	259.5438	-1842.997	1	1861.183	-81.98392	5.392706E-007	-0.0001385	8
	51	135	2.372217	326.8329	-2293.76	1	2316.928	-81.89063	5.505826E-007	-0.0002152	8
	52	140	1.878005	407.2871	-2849.058	1	2878.022	-81.8644	5.821472E-007	-0.0001525	8
	53	144	1.512097	502.3928	-3471.659	1	3507.822	-81.76574	5.296076E-007	-8.824296E-005	8
	54	150	1.201923	643.087	-4300.929	1	4348.742	-81.49597	5.573538E-007	-0.0001055	8
	55	156	0.956633	824.7184	-5313.046	1	5376.673	-81.17667	5.85038E-008	-0.0006573	7
