EXPLAIN
TAG	EISPOT
TITLE	LABEL	Potentiostatic EIS	Test Identifier
DATE	LABEL	11/21/2021	Date
TIME	LABEL	11:25:36	Time
NOTES	NOTES	1	Notes...
	
PSTAT	PSTAT	REF3000-16137	Potentiostat
VDC	POTEN	0.00000E+000	T	DC Voltage (V)
FREQINIT	QUANT	3.00000E+005	Initial Freq. (Hz)
FREQFINAL	QUANT	1.00000E+000	Final Freq. (Hz)
PTSPERDEC	QUANT	1.00000E+001	Points/decade
VAC	QUANT	5.00000E+001	AC Voltage (mV rms)
AREA	QUANT	1.00000E+000	Sample Area (cm^2)
SPEED	SELECTOR	2	Optimize for:
ZGUESS	QUANT	1.00000E+003	Estimated Z (ohms)
EOC	QUANT	0	Open Circuit (V)
SEQUENCER	TOGGLE	TRUE	Run as Sequence
PSTATMODEL	IQUANT	5	Pstat Model
PSTATSECTION	LABEL	REF3000-16137	Pstat Section
PSTATSERIALNO	LABEL	16137	Pstat Serial Number
CTRLMODE	IQUANT	1	Control Mode
IESTAB	IQUANT	0	I/E Stability
CASPEED	IQUANT	1	Control Amp Speed
CONVENTION	IQUANT	1	Current Convention
ICHRANGE	IQUANT	2	Ich Range
ICHRANGEMODE	TOGGLE	F	Ich Auto Range
ICHOFFSETENABLE	TOGGLE	T	Ich Offset Enable
ICHOFFSET	QUANT	0	Ich Offset (V)
ICHFILTER	IQUANT	3	Ich Filter
VCHRANGE	IQUANT	2	Vch Range
VCHRANGEMODE	TOGGLE	F	Vch Auto Range
VCHOFFSETENABLE	TOGGLE	T	Vch Offset Enable
VCHOFFSET	QUANT	0	Vch Offset (V)
VCHFILTER	IQUANT	3	Vch Filter
ACHRANGE	IQUANT	2	Ach Range
ACHOFFSETENABLE	TOGGLE	F	Ach Offset Enable
ACHOFFSET	QUANT	0	Ach Offset (V)
ACHFILTER	IQUANT	3	Ach Filter
IERANGELOWERLIMIT	IQUANT	2	I/E Range Lower Limit
IERANGEMODE	TOGGLE	F	I/E AutoRange
IERANGE	IQUANT	11	I/E Range
POSFEEDENABLE	TOGGLE	F	Positive Feedback IR Comp
POSFEEDRESISTANCE	QUANT	0	Positive Feedback Resistance (ohm)
ACHSELECT	IQUANT	0	Ach Select
CABLEID	IQUANT	13	Cable ID
DCCALDATE	LABEL	9/10/2021	DC Calibration Date
ACCALDATE	LABEL	9/10/2021	AC Calibration Date
THERMOSELECT	IQUANT	1	Thermo Select
FRAMEWORKVERSION	QUANT	6.33	Framework Version
INSTRUMENTVERSION	LABEL	3.50	Instrument Version
COMPLIANCEVOLTAGE	IQUANT	0	Compliance Voltage
ZCURVE	TABLE
	Pt	Time	Freq	Zreal	Zimag	Zsig	Zmod	Zphz	Idc	Vdc	IERange
	#	s	Hz	ohm	ohm	V	ohm	°	A	V	#
	0	7	300046.9	18.57761	2.076751	1	18.69333	6.378491	7.722069E-005	-0.0005706	10
	1	11	238359.4	18.6245	1.668589	1	18.69909	5.119524	-9.472871E-005	-0.0006232	10
	2	14	189328.1	18.65394	1.307468	1	18.6997	4.009347	5.561128E-005	-0.0002228	10
	3	16	150421.9	18.69732	1.022321	1	18.72525	3.129669	7.213997E-005	-0.0005261	10
	4	19	119484.4	18.72686	0.7689015	1	18.74264	2.351172	2.718776E-005	-0.0002907	10
	5	21	94921.88	18.77091	0.5511919	1	18.779	1.681959	-1.269867E-005	-0.0001573	10
	6	24	75421.88	18.81582	0.3772584	1	18.8196	1.14863	-2.569138E-005	-0.0001587	10
	7	26	59859.37	18.86269	0.2260985	1	18.86404	0.6867457	-2.839466E-005	-0.0001453	10
	8	29	47578.12	18.91124	0.0915335	1	18.91146	0.2773188	-2.787752E-005	-0.000138	10
	9	31	37828.12	18.96028	-0.0361261	1	18.96031	-0.1091687	2.383976E-005	-0.0001727	10
	10	34	30046.88	19.01231	-0.1667556	1	19.01304	-0.5025244	2.093256E-005	-0.0001642	10
	11	36	23859.38	19.06535	-0.2991898	1	19.0677	-0.8990606	1.854447E-005	-0.0001087	10
	12	39	18984.38	19.11829	-0.444111	1	19.12345	-1.330721	-2.845873E-005	-0.000129	10
	13	41	15046.87	19.17651	-0.6098142	1	19.1862	-1.821396	-1.729792E-005	-6.176574E-005	10
	14	43	11953.13	19.23486	-0.8029835	1	19.25161	-2.390497	-4.787218E-006	-0.0001456	10
	15	46	9515.62	19.29996	-1.026879	1	19.32726	-3.045624	1.94491E-005	-0.0001891	10
	16	48	7546.875	19.37406	-1.300473	1	19.41766	-3.840188	2.283397E-005	-0.0001083	10
	17	50	5928.309	19.45553	-1.65299	1	19.52563	-4.856327	1.350817E-005	-0.0001831	10
	18	53	4733.456	19.54486	-2.054261	1	19.65252	-6.000039	-2.016567E-005	-9.492922E-005	10
	19	55	3796.875	19.64462	-2.534737	1	19.80747	-7.352231	-2.769474E-005	-0.000133	10
	20	57	2987.132	19.76753	-3.180289	1	20.02173	-9.139681	-1.198351E-005	-0.0001044	10
	21	59	2390.625	19.90391	-3.91699	1	20.28567	-11.13325	-1.363184E-005	-0.0001392	10
	22	62	1884.191	20.07782	-4.880184	1	20.66241	-13.66158	-2.382788E-005	-0.0001063	10
	23	64	1516.544	20.26727	-5.968011	1	21.12769	-16.40788	2.635085E-005	-0.0001477	10
	24	66	1193.986	20.52452	-7.441246	1	21.83181	-19.92831	-1.64076E-005	-0.0001536	10
	25	69	946.5144	20.82518	-9.213968	1	22.77246	-23.86669	-1.651055E-005	-0.0001353	10
	26	71	751.7689	21.19655	-11.35933	1	24.04846	-28.18707	-1.245913E-005	-0.0001054	10
	27	74	597.4265	21.66559	-13.99877	1	25.79464	-32.86768	-1.24817E-005	-0.0001111	10
	28	77	477.4305	22.21757	-17.14037	1	28.06088	-37.64941	-4.791679E-007	-0.0001604	10
	29	79	376.6741	22.88702	-21.20292	1	31.19903	-42.81255	-1.177632E-006	-0.000123	10
	30	81	298.2954	23.66698	-26.13556	1	35.25895	-47.83767	-1.082417E-006	-0.0001098	10
	31	84	237.7717	24.52191	-31.99624	1	40.31232	-52.53346	8.866884E-007	-0.0001731	9
	32	86	189.0121	25.55559	-39.34284	1	46.91425	-56.9938	4.363385E-007	-0.0001309	9
	33	89	150.2404	26.75438	-48.43291	1	55.33122	-61.0837	4.493929E-007	-0.0001349	9
	34	91	119.1737	28.16881	-59.81475	1	66.11571	-64.78265	5.53516E-007	-0.0001292	9
	35	93	95.0169	29.81006	-73.62107	1	79.42734	-67.95638	5.313419E-007	-0.0001283	9
	36	96	75.60484	31.80006	-90.89037	1	96.2928	-70.71645	5.543026E-007	-0.0001268	9
	37	98	54.50582	35.4011	-123.0524	1	128.0435	-73.94994	4.681449E-007	-0.0001356	9
	38	101	45.95588	37.78642	-144.2129	1	149.0811	-75.31752	5.447616E-007	-0.0001256	9
	39	103	37.20238	41.27727	-175.5456	1	180.3332	-76.76801	4.626768E-007	-0.000122	9
	40	106	30.04808	45.65837	-214.2273	1	219.0389	-77.96854	4.706515E-007	-0.0001298	9
	41	108	23.91582	51.46106	-265.0653	1	270.0146	-79.013	5.653841E-007	-0.0001358	9
	42	110	18.60119	59.56219	-335.0572	1	340.3101	-79.91999	5.731537E-007	-0.0001359	9
	43	113	15.02404	68.28442	-408.763	1	414.4272	-80.51624	5.715514E-007	-0.0001169	9
	44	115	12.01923	79.29672	-501.2014	1	507.4355	-81.00957	5.800027E-007	-0.0001183	8
	45	117	9.450605	94.67426	-626.949	1	634.0569	-81.41277	5.709392E-007	-0.0001272	8
	46	120	7.512019	113.528	-775.9289	1	784.1902	-81.67598	5.722762E-007	-0.0001049	8
	47	123	5.978954	137.0311	-959.156	1	968.895	-81.86938	5.495598E-007	-0.0001198	8
	48	126	4.734848	167.6385	-1191.668	1	1203.402	-81.99244	5.883428E-007	-0.0001059	8
	49	129	3.75601	206.782	-1476.684	1	1491.092	-82.02863	5.400261E-007	-0.0001284	8
	50	132	3.004808	254.6308	-1814.218	1	1832	-82.01056	5.776777E-007	-0.0001513	8
	51	136	2.372217	318.7638	-2256.161	1	2278.568	-81.95814	5.712635E-007	-0.0001626	8
	52	140	1.878005	406.9099	-2799.708	1	2829.123	-81.73052	5.695295E-007	-0.000106	8
	53	145	1.512097	512.9632	-3414.766	1	3453.08	-81.45695	5.511683E-007	-0.0002087	8
	54	150	1.201923	651.4012	-4222.768	1	4272.715	-81.23071	5.657301E-007	-8.985023E-005	8
	55	156	0.956633	837.7655	-5215.013	1	5281.875	-80.8737	6.565346E-008	-0.0006551	7
