EXPLAIN
TAG	EISPOT
TITLE	LABEL	Potentiostatic EIS	Test Identifier
DATE	LABEL	11/21/2021	Date
TIME	LABEL	11:31:08	Time
NOTES	NOTES	1	Notes...
	
PSTAT	PSTAT	REF3000-16137	Potentiostat
VDC	POTEN	0.00000E+000	T	DC Voltage (V)
FREQINIT	QUANT	3.00000E+005	Initial Freq. (Hz)
FREQFINAL	QUANT	1.00000E+000	Final Freq. (Hz)
PTSPERDEC	QUANT	1.00000E+001	Points/decade
VAC	QUANT	5.00000E+001	AC Voltage (mV rms)
AREA	QUANT	1.00000E+000	Sample Area (cm^2)
SPEED	SELECTOR	2	Optimize for:
ZGUESS	QUANT	1.00000E+003	Estimated Z (ohms)
EOC	QUANT	0	Open Circuit (V)
SEQUENCER	TOGGLE	TRUE	Run as Sequence
PSTATMODEL	IQUANT	5	Pstat Model
PSTATSECTION	LABEL	REF3000-16137	Pstat Section
PSTATSERIALNO	LABEL	16137	Pstat Serial Number
CTRLMODE	IQUANT	1	Control Mode
IESTAB	IQUANT	0	I/E Stability
CASPEED	IQUANT	1	Control Amp Speed
CONVENTION	IQUANT	1	Current Convention
ICHRANGE	IQUANT	2	Ich Range
ICHRANGEMODE	TOGGLE	F	Ich Auto Range
ICHOFFSETENABLE	TOGGLE	T	Ich Offset Enable
ICHOFFSET	QUANT	0	Ich Offset (V)
ICHFILTER	IQUANT	3	Ich Filter
VCHRANGE	IQUANT	2	Vch Range
VCHRANGEMODE	TOGGLE	F	Vch Auto Range
VCHOFFSETENABLE	TOGGLE	T	Vch Offset Enable
VCHOFFSET	QUANT	0	Vch Offset (V)
VCHFILTER	IQUANT	3	Vch Filter
ACHRANGE	IQUANT	2	Ach Range
ACHOFFSETENABLE	TOGGLE	F	Ach Offset Enable
ACHOFFSET	QUANT	0	Ach Offset (V)
ACHFILTER	IQUANT	3	Ach Filter
IERANGELOWERLIMIT	IQUANT	2	I/E Range Lower Limit
IERANGEMODE	TOGGLE	F	I/E AutoRange
IERANGE	IQUANT	11	I/E Range
POSFEEDENABLE	TOGGLE	F	Positive Feedback IR Comp
POSFEEDRESISTANCE	QUANT	0	Positive Feedback Resistance (ohm)
ACHSELECT	IQUANT	0	Ach Select
CABLEID	IQUANT	13	Cable ID
DCCALDATE	LABEL	9/10/2021	DC Calibration Date
ACCALDATE	LABEL	9/10/2021	AC Calibration Date
THERMOSELECT	IQUANT	1	Thermo Select
FRAMEWORKVERSION	QUANT	6.33	Framework Version
INSTRUMENTVERSION	LABEL	3.50	Instrument Version
COMPLIANCEVOLTAGE	IQUANT	0	Compliance Voltage
ZCURVE	TABLE
	Pt	Time	Freq	Zreal	Zimag	Zsig	Zmod	Zphz	Idc	Vdc	IERange
	#	s	Hz	ohm	ohm	V	ohm	°	A	V	#
	0	7	300046.9	25.38703	1.564163	1	25.43517	3.52569	-2.619639E-005	-0.0005172	11
	1	11	238359.4	25.46023	1.548533	1	25.50728	3.480536	-4.95596E-006	-0.0005144	10
	2	14	189328.1	25.53272	0.978109	1	25.55145	2.193818	-4.915284E-005	0.0001823	11
	3	18	150421.9	25.63168	0.927106	1	25.64844	2.071504	-1.849148E-005	-0.0001503	10
	4	21	119484.4	25.7033	0.5524548	1	25.70924	1.231299	-7.060262E-005	0.0002832	11
	5	24	94921.88	25.79264	0.4778072	1	25.79707	1.061279	-1.026193E-005	-0.0001368	10
	6	27	75421.88	25.86386	0.3195907	1	25.86584	0.707948	2.371728E-005	-0.000142	10
	7	29	59859.37	25.93652	0.1744171	1	25.93711	0.3852951	2.58004E-005	-0.0001552	10
	8	32	47578.12	26.00871	0.0454846	1	26.00875	0.1002	2.503088E-005	-0.0001771	10
	9	34	37828.12	26.0815	-0.0802048	1	26.08162	-0.1761931	2.58379E-005	-0.0001801	10
	10	37	30046.88	26.15937	-0.2047699	1	26.16017	-0.4484899	-3.398071E-006	-0.0001561	10
	11	39	23859.38	26.23822	-0.3403369	1	26.24043	-0.7431439	2.611384E-005	-0.0001776	10
	12	42	18984.38	26.31489	-0.4900689	1	26.31945	-1.066911	2.741999E-005	-0.0001159	10
	13	44	15046.87	26.39059	-0.6568217	1	26.39876	-1.42571	-1.737294E-005	-0.0001372	10
	14	46	11953.13	26.49171	-0.8545956	1	26.50549	-1.847663	1.915785E-005	-0.0001642	10
	15	49	9515.62	26.56975	-1.093817	1	26.59226	-2.357408	-1.627352E-006	-7.386732E-005	10
	16	51	7546.875	26.66287	-1.384615	1	26.6988	-2.972726	-1.337436E-005	-0.0001344	10
	17	53	5928.309	26.76871	-1.750918	1	26.82591	-3.742337	2.130665E-005	-0.0001737	10
	18	56	4733.456	26.88332	-2.17094	1	26.97083	-4.616853	-2.64397E-005	-0.0000966	10
	19	58	3796.875	27.01041	-2.671728	1	27.14222	-5.649024	-1.727568E-006	-0.0001528	10
	20	60	2987.132	27.16309	-3.349916	1	27.36888	-7.03056	-2.652837E-005	-9.384361E-005	10
	21	62	2390.625	27.32748	-4.126429	1	27.63727	-8.586748	-1.736122E-005	-0.0001379	10
	22	65	1884.191	27.51903	-5.149055	1	27.9966	-10.598	2.061632E-005	-0.0001672	10
	23	67	1516.544	27.75409	-6.289227	1	28.45776	-12.7679	8.52667E-006	-0.000125	10
	24	69	1193.986	28.03816	-7.839371	1	29.11347	-15.62081	5.493615E-006	-0.0001723	10
	25	72	946.5144	28.379	-9.69452	1	29.98918	-18.86063	-1.562621E-005	-0.0001113	10
	26	74	751.7689	28.78919	-11.98052	1	31.18253	-22.59447	2.512835E-005	-0.0001419	10
	27	77	597.4265	29.2888	-14.76914	1	32.80185	-26.75994	-2.910047E-006	-0.0001159	10
	28	79	477.4305	29.91548	-18.09408	1	34.96186	-31.16723	-1.171126E-006	-0.0001133	10
	29	81	376.6741	30.64441	-22.36229	1	37.93615	-36.11953	4.988934E-007	-0.0001372	9
	30	83	298.2954	31.55392	-27.55672	1	41.89299	-41.13142	8.760307E-007	-0.0001653	9
	31	86	237.7717	32.60787	-33.74075	1	46.9224	-45.97821	4.757754E-007	-0.0001278	9
	32	88	189.0121	33.85098	-41.41209	1	53.48692	-50.73682	8.060375E-007	-0.0001689	9
	33	91	150.2404	35.2859	-50.84356	1	61.8883	-55.23899	4.308393E-007	-0.0001263	9
	34	93	119.1737	36.95631	-62.61193	1	72.70504	-59.44904	4.915036E-007	-0.000125	9
	35	95	95.0169	38.85005	-76.84204	1	86.10474	-63.1796	3.933495E-007	-0.0001264	9
	36	98	75.60484	41.08546	-94.61475	1	103.1502	-66.52761	4.618826E-007	-0.000127	9
	37	100	54.50582	45.0122	-127.7179	1	135.4177	-70.58578	4.417815E-007	-0.0001305	9
	38	103	45.95588	47.56049	-149.501	1	156.8839	-72.35267	4.782039E-007	-0.0001299	9
	39	105	37.20238	51.26972	-181.7763	1	188.8682	-74.24898	5.448982E-007	-0.0001348	9
	40	108	30.04808	55.79887	-221.616	1	228.5327	-75.86771	4.810665E-007	-0.00014	9
	41	110	23.91582	61.77615	-273.948	1	280.827	-77.29218	5.233555E-007	-0.0001377	9
	42	112	18.60119	70.11765	-346.244	1	353.2724	-78.55189	5.575684E-007	-0.0001285	9
	43	115	15.02404	78.59198	-420.6087	1	427.8883	-79.41616	5.249535E-007	-0.0001221	8
	44	117	12.01923	90.10966	-517.8093	1	525.5912	-80.12819	5.185493E-007	-0.0001216	8
	45	119	9.450605	105.8258	-647.8123	1	656.3991	-80.72218	5.216754E-007	-0.0001207	8
	46	122	7.512019	124.3885	-801.9689	1	811.5581	-81.18346	5.160828E-007	-0.0001047	8
	47	125	5.978954	148.29	-991.424	1	1002.453	-81.49318	4.910707E-007	-0.0001174	8
	48	128	4.734848	179.3057	-1232.188	1	1245.166	-81.72054	5.359641E-007	-0.0001205	8
	49	131	3.75601	218.0147	-1527.063	1	1542.547	-81.87494	4.908275E-007	-0.0001062	8
	50	134	3.004808	264.5564	-1876.868	1	1895.421	-81.97665	5.338451E-007	-0.0001503	8
	51	138	2.372217	326.9979	-2333.857	1	2356.654	-82.02418	5.246432E-007	-0.0001495	8
	52	142	1.878005	412.3207	-2899.601	1	2928.77	-81.90685	5.054412E-007	-0.0001065	8
	53	147	1.512097	511.9332	-3541.385	1	3578.195	-81.77445	5.018252E-007	-0.0002207	8
	54	152	1.201923	645.8186	-4388.67	1	4435.934	-81.62867	6.110574E-008	-7.91954E-005	7
	55	159	0.956633	816.2459	-5414.146	1	5475.33	-81.42656	5.6963E-008	-0.0006523	7
