EXPLAIN
TAG	EISPOT
TITLE	LABEL	Potentiostatic EIS	Test Identifier
DATE	LABEL	11/21/2021	Date
TIME	LABEL	11:39:25	Time
NOTES	NOTES	1	Notes...
	
PSTAT	PSTAT	REF3000-16137	Potentiostat
VDC	POTEN	0.00000E+000	T	DC Voltage (V)
FREQINIT	QUANT	3.00000E+005	Initial Freq. (Hz)
FREQFINAL	QUANT	1.00000E+000	Final Freq. (Hz)
PTSPERDEC	QUANT	1.00000E+001	Points/decade
VAC	QUANT	5.00000E+001	AC Voltage (mV rms)
AREA	QUANT	1.00000E+000	Sample Area (cm^2)
SPEED	SELECTOR	2	Optimize for:
ZGUESS	QUANT	1.00000E+003	Estimated Z (ohms)
EOC	QUANT	0	Open Circuit (V)
SEQUENCER	TOGGLE	TRUE	Run as Sequence
PSTATMODEL	IQUANT	5	Pstat Model
PSTATSECTION	LABEL	REF3000-16137	Pstat Section
PSTATSERIALNO	LABEL	16137	Pstat Serial Number
CTRLMODE	IQUANT	1	Control Mode
IESTAB	IQUANT	0	I/E Stability
CASPEED	IQUANT	1	Control Amp Speed
CONVENTION	IQUANT	1	Current Convention
ICHRANGE	IQUANT	2	Ich Range
ICHRANGEMODE	TOGGLE	F	Ich Auto Range
ICHOFFSETENABLE	TOGGLE	T	Ich Offset Enable
ICHOFFSET	QUANT	0	Ich Offset (V)
ICHFILTER	IQUANT	3	Ich Filter
VCHRANGE	IQUANT	2	Vch Range
VCHRANGEMODE	TOGGLE	F	Vch Auto Range
VCHOFFSETENABLE	TOGGLE	T	Vch Offset Enable
VCHOFFSET	QUANT	0	Vch Offset (V)
VCHFILTER	IQUANT	3	Vch Filter
ACHRANGE	IQUANT	2	Ach Range
ACHOFFSETENABLE	TOGGLE	F	Ach Offset Enable
ACHOFFSET	QUANT	0	Ach Offset (V)
ACHFILTER	IQUANT	3	Ach Filter
IERANGELOWERLIMIT	IQUANT	2	I/E Range Lower Limit
IERANGEMODE	TOGGLE	F	I/E AutoRange
IERANGE	IQUANT	11	I/E Range
POSFEEDENABLE	TOGGLE	F	Positive Feedback IR Comp
POSFEEDRESISTANCE	QUANT	0	Positive Feedback Resistance (ohm)
ACHSELECT	IQUANT	0	Ach Select
CABLEID	IQUANT	13	Cable ID
DCCALDATE	LABEL	9/10/2021	DC Calibration Date
ACCALDATE	LABEL	9/10/2021	AC Calibration Date
THERMOSELECT	IQUANT	1	Thermo Select
FRAMEWORKVERSION	QUANT	6.33	Framework Version
INSTRUMENTVERSION	LABEL	3.50	Instrument Version
COMPLIANCEVOLTAGE	IQUANT	0	Compliance Voltage
ZCURVE	TABLE
	Pt	Time	Freq	Zreal	Zimag	Zsig	Zmod	Zphz	Idc	Vdc	IERange
	#	s	Hz	ohm	ohm	V	ohm	°	A	V	#
	0	7	300046.9	43.79809	2.404839	1	43.86406	3.142806	-3.143699E-005	-0.000663	9
	1	10	238359.4	43.92122	1.832334	1	43.95943	2.388917	-5.678151E-005	0.0012987	9
	2	13	189328.1	44.10471	1.419298	1	44.12754	1.843153	5.021153E-005	-0.0017683	9
	3	16	150421.9	44.24465	1.084276	1	44.25793	1.403831	-4.015443E-005	0.0005341	9
	4	19	119484.4	44.36736	0.8149529	1	44.37485	1.052307	-5.285679E-005	0.0015342	9
	5	21	94921.88	44.57404	0.6945026	1	44.57944	0.8926463	9.934862E-006	-0.0002067	9
	6	24	75421.88	44.70204	0.4720842	1	44.70453	0.6050602	-1.237762E-005	1.699812E-005	9
	7	26	59859.37	44.82713	0.2839038	1	44.82803	0.3628667	-1.523188E-005	7.412652E-005	9
	8	29	47578.12	44.96091	0.113324	1	44.96105	0.1444138	7.681258E-006	-0.0006444	9
	9	31	37828.12	45.11206	-0.0536356	1	45.11209	-0.0681213	-1.217205E-005	1.783456E-006	9
	10	34	30046.88	45.2742	-0.2106532	1	45.27469	-0.2665856	1.055021E-005	-0.0006528	9
	11	36	23859.38	45.43119	-0.3678496	1	45.43268	-0.4639053	-3.955179E-006	0.0002099	9
	12	39	18984.38	45.57192	-0.521129	1	45.5749	-0.6551664	-1.954632E-006	-0.0003583	9
	13	41	15046.87	45.72931	-0.7350261	1	45.73522	-0.9208593	2.318298E-006	-0.0004969	9
	14	43	11953.13	45.8999	-0.931095	1	45.90934	-1.162105	1.526092E-005	-0.0003347	9
	15	46	9515.62	46.04313	-1.20001	1	46.05877	-1.492946	1.841559E-005	-0.0005621	9
	16	48	7546.875	46.2065	-1.495938	1	46.23071	-1.854306	-1.4775E-005	0.0004263	9
	17	50	5928.309	46.39211	-1.904563	1	46.43118	-2.350878	1.499462E-005	-0.000351	9
	18	52	4733.456	46.58218	-2.366081	1	46.64223	-2.907764	1.261785E-005	-0.0006919	9
	19	55	3796.875	46.76144	-2.919779	1	46.85251	-3.572903	1.775736E-005	-0.0005906	9
	20	57	2987.132	47.01183	-3.640342	1	47.15257	-4.427839	7.739889E-006	-0.000613	9
	21	59	2390.625	47.24567	-4.481873	1	47.45778	-5.419041	1.687508E-005	-0.0004712	9
	22	62	1884.191	47.53064	-5.637644	1	47.86382	-6.764292	-1.594498E-005	0.0002464	9
	23	64	1516.544	47.83345	-6.84576	1	48.32084	-8.14467	-1.280219E-005	0.000424	9
	24	66	1193.986	48.2039	-8.532695	1	48.95327	-10.03809	1.844974E-006	-0.0004764	9
	25	69	946.5144	48.64404	-10.57131	1	49.77946	-12.26086	1.461434E-005	-0.0003734	9
	26	71	751.7689	49.1288	-13.07544	1	50.83902	-14.90357	1.776334E-005	-0.0006528	9
	27	73	597.4265	49.76889	-16.14581	1	52.32236	-17.97388	2.970525E-006	7.79659E-005	9
	28	76	477.4305	50.51105	-19.80023	1	54.25325	-21.40508	9.156952E-007	-0.0001627	9
	29	78	376.6741	51.42909	-24.53815	1	56.98309	-25.50702	8.926905E-007	-0.000167	9
	30	80	298.2954	52.54514	-30.27965	1	60.64527	-29.95312	9.193369E-007	-0.0001594	9
	31	83	237.7717	53.87674	-37.1014	1	65.41573	-34.55265	6.567803E-007	-0.0001303	9
	32	85	189.0121	55.50016	-45.52072	1	71.78024	-39.35829	5.549772E-007	-0.0001201	9
	33	87	150.2404	57.43454	-55.79705	1	80.0752	-44.17148	5.705322E-007	-0.0001216	9
	34	90	119.1737	59.72875	-68.49177	1	90.87709	-48.9097	6.26641E-007	-0.0001221	9
	35	92	95.0169	62.32822	-83.69283	1	104.3518	-53.32399	5.626871E-007	-0.0001228	9
	36	95	75.60484	65.3464	-102.5244	1	121.5788	-57.48762	5.963169E-007	-0.0001279	9
	37	97	54.50582	70.37411	-137.3577	1	154.3361	-62.87202	6.329769E-007	-0.0001315	9
	38	100	45.95588	73.52488	-160.231	1	176.2948	-65.35112	7.244332E-007	-0.0001327	9
	39	102	37.20238	77.92981	-194.0913	1	209.1519	-68.12399	6.350264E-007	-0.0001311	9
	40	104	30.04808	83.15392	-235.899	1	250.1258	-70.58255	6.904913E-007	-0.0001383	9
	41	107	23.91582	89.83533	-290.9623	1	304.5151	-72.8418	5.771928E-007	-0.0001334	9
	42	109	18.60119	98.7932	-366.8456	1	379.9155	-74.92757	5.355001E-007	-0.0001262	9
	43	111	15.02404	107.8104	-445.047	1	457.9191	-76.38271	3.704354E-007	-0.0001149	8
	44	114	12.01923	119.9531	-547.4575	1	560.4449	-77.64126	4.078305E-007	-0.0001167	8
	45	116	9.450605	136.2538	-684.5413	1	697.9698	-78.74275	3.900252E-007	-0.0001154	8
	46	119	7.512019	155.4909	-847.2399	1	861.3901	-79.60044	3.975961E-007	-0.000095	8
	47	121	5.978954	179.8851	-1047.194	1	1062.532	-80.25296	3.933496E-007	-0.0001492	8
	48	124	4.734848	211.5226	-1301.633	1	1318.708	-80.7698	3.946714E-007	-0.0001131	8
	49	128	3.75601	250.6624	-1613.479	1	1632.834	-81.1694	3.946293E-007	-0.0001447	8
	50	131	3.004808	298.552	-1983.284	1	2005.63	-81.43931	3.710445E-007	-0.0001465	8
	51	135	2.372217	361.8687	-2471.117	1	2497.472	-81.66886	3.781573E-007	-0.0001895	8
	52	139	1.878005	441.6731	-3067.721	1	3099.353	-81.80717	3.851218E-007	-0.0001086	8
	53	144	1.512097	536.457	-3739.113	1	3777.4	-81.83539	3.701462E-007	-0.0001398	8
	54	149	1.201923	662.8864	-4648.423	1	4695.45	-81.88408	5.606199E-008	-8.137125E-005	7
	55	155	0.956633	825.1512	-5740.715	1	5799.714	-81.82052	3.894111E-008	-0.0006557	7
