EXPLAIN
TAG	EISPOT
TITLE	LABEL	Potentiostatic EIS	Test Identifier
DATE	LABEL	11/21/2021	Date
TIME	LABEL	11:00:39	Time
NOTES	NOTES	1	Notes...
	
PSTAT	PSTAT	REF3000-16137	Potentiostat
VDC	POTEN	0.00000E+000	T	DC Voltage (V)
FREQINIT	QUANT	3.00000E+005	Initial Freq. (Hz)
FREQFINAL	QUANT	1.00000E+000	Final Freq. (Hz)
PTSPERDEC	QUANT	1.00000E+001	Points/decade
VAC	QUANT	5.00000E+001	AC Voltage (mV rms)
AREA	QUANT	1.00000E+000	Sample Area (cm^2)
SPEED	SELECTOR	2	Optimize for:
ZGUESS	QUANT	1.00000E+003	Estimated Z (ohms)
EOC	QUANT	0	Open Circuit (V)
SEQUENCER	TOGGLE	TRUE	Run as Sequence
PSTATMODEL	IQUANT	5	Pstat Model
PSTATSECTION	LABEL	REF3000-16137	Pstat Section
PSTATSERIALNO	LABEL	16137	Pstat Serial Number
CTRLMODE	IQUANT	1	Control Mode
IESTAB	IQUANT	0	I/E Stability
CASPEED	IQUANT	1	Control Amp Speed
CONVENTION	IQUANT	1	Current Convention
ICHRANGE	IQUANT	2	Ich Range
ICHRANGEMODE	TOGGLE	F	Ich Auto Range
ICHOFFSETENABLE	TOGGLE	T	Ich Offset Enable
ICHOFFSET	QUANT	0	Ich Offset (V)
ICHFILTER	IQUANT	3	Ich Filter
VCHRANGE	IQUANT	2	Vch Range
VCHRANGEMODE	TOGGLE	F	Vch Auto Range
VCHOFFSETENABLE	TOGGLE	T	Vch Offset Enable
VCHOFFSET	QUANT	0	Vch Offset (V)
VCHFILTER	IQUANT	3	Vch Filter
ACHRANGE	IQUANT	2	Ach Range
ACHOFFSETENABLE	TOGGLE	F	Ach Offset Enable
ACHOFFSET	QUANT	0	Ach Offset (V)
ACHFILTER	IQUANT	3	Ach Filter
IERANGELOWERLIMIT	IQUANT	2	I/E Range Lower Limit
IERANGEMODE	TOGGLE	F	I/E AutoRange
IERANGE	IQUANT	11	I/E Range
POSFEEDENABLE	TOGGLE	F	Positive Feedback IR Comp
POSFEEDRESISTANCE	QUANT	0	Positive Feedback Resistance (ohm)
ACHSELECT	IQUANT	0	Ach Select
CABLEID	IQUANT	13	Cable ID
DCCALDATE	LABEL	9/10/2021	DC Calibration Date
ACCALDATE	LABEL	9/10/2021	AC Calibration Date
THERMOSELECT	IQUANT	1	Thermo Select
FRAMEWORKVERSION	QUANT	6.33	Framework Version
INSTRUMENTVERSION	LABEL	3.50	Instrument Version
COMPLIANCEVOLTAGE	IQUANT	0	Compliance Voltage
ZCURVE	TABLE
	Pt	Time	Freq	Zreal	Zimag	Zsig	Zmod	Zphz	Idc	Vdc	IERange
	#	s	Hz	ohm	ohm	V	ohm	°	A	V	#
	0	9	300046.9	6.844033	2.322622	1	7.227403	18.74539	-0.0001049	-0.0006819	10
	1	12	238359.4	6.825471	1.828148	1	7.066059	14.99427	1.488881E-005	-0.0007401	10
	2	15	189328.1	6.814854	1.438201	1	6.96496	11.91679	6.410301E-005	-0.0006114	10
	3	17	150421.9	6.807466	1.110688	1	6.897479	9.26658	6.284798E-005	-0.0006461	10
	4	20	119484.4	6.807386	0.8632296	1	6.8619	7.226979	5.781175E-005	-0.0005154	10
	5	23	94921.88	6.815085	0.6639751	1	6.847353	5.564609	2.494913E-005	-0.0002382	10
	6	25	75421.88	6.816772	0.4777779	1	6.833494	4.009224	1.394568E-005	-0.000256	10
	7	28	59859.37	6.822186	0.316958	1	6.829545	2.660043	1.958782E-005	-0.0002157	10
	8	30	47578.12	6.834222	0.1763267	1	6.836496	1.477935	1.237982E-005	-0.0001511	10
	9	33	37828.12	6.845994	0.0476535	1	6.846159	0.3988174	-7.326014E-006	-0.0001414	10
	10	35	30046.88	6.860488	-0.0757464	1	6.860906	-0.6325752	-8.358324E-006	-0.0001042	10
	11	38	23859.38	6.874054	-0.2002238	1	6.87697	-1.66841	1.472067E-005	-0.0001676	10
	12	40	18984.38	6.891116	-0.3309827	1	6.89906	-2.749823	1.899606E-005	-0.0001595	10
	13	42	15046.87	6.911836	-0.4784798	1	6.928378	-3.960049	-2.816417E-005	-0.0001304	10
	14	45	11953.13	6.934116	-0.6473512	1	6.964268	-5.333527	1.689156E-005	-0.0001652	10
	15	47	9515.62	6.961851	-0.8416216	1	7.012538	-6.893065	3.889481E-006	-0.0001605	10
	16	49	7546.875	6.993512	-1.077163	1	7.075979	-8.756069	1.862501E-005	-0.0001662	10
	17	51	5928.309	7.034444	-1.376619	1	7.167879	-11.07267	2.353789E-005	-0.000154	10
	18	54	4733.456	7.082256	-1.717694	1	7.28758	-13.63298	-1.511833E-005	-0.0001188	10
	19	56	3796.875	7.138715	-2.122058	1	7.447441	-16.55514	-9.00476E-006	-0.0001124	10
	20	58	2987.132	7.213366	-2.665675	1	7.690155	-20.28162	2.256688E-005	-0.0001504	10
	21	61	2390.625	7.300426	-3.287231	1	8.006379	-24.24105	-2.742437E-005	-0.0001316	10
	22	63	1884.191	7.416657	-4.098239	1	8.473628	-28.92382	-2.336219E-005	-0.0001111	10
	23	65	1516.544	7.543674	-5.003813	1	9.052357	-33.55681	5.353413E-006	-0.0001557	10
	24	68	1193.986	7.713799	-6.231194	1	9.91617	-38.93122	-1.554774E-005	-0.0001251	10
	25	70	946.5144	7.9087	-7.707907	1	11.04352	-44.26335	6.733326E-007	-9.353089E-005	10
	26	72	751.7689	8.140486	-9.50951	1	12.51792	-49.43526	1.237835E-005	-0.0001595	10
	27	75	597.4265	8.408368	-11.73911	1	14.43979	-54.38713	2.344412E-005	-0.0001401	10
	28	77	477.4305	8.725876	-14.43379	1	16.86639	-58.84514	-7.265581E-007	-0.0001188	10
	29	79	376.6741	9.116237	-17.95977	1	20.14098	-63.08801	3.102109E-006	-0.0001575	10
	30	82	298.2954	9.58037	-22.29361	1	24.26497	-66.74507	2.644666E-006	-0.000158	10
	31	84	237.7717	10.13124	-27.53411	1	29.33887	-69.7988	-4.394789E-007	-0.0001182	10
	32	88	189.0121	10.82175	-34.10896	1	35.78451	-72.39733	-6.940517E-007	-0.0001152	10
	33	90	150.2404	11.66096	-42.2256	1	43.80616	-74.56206	6.254285E-007	-0.0001358	9
	34	92	119.1737	12.73945	-52.44786	1	53.97288	-76.3474	6.083957E-007	-0.0001355	9
	35	95	95.0169	14.06653	-64.84583	1	66.35397	-77.76086	5.582415E-007	-0.000129	9
	36	97	75.60484	15.75506	-80.32272	1	81.85329	-78.9025	5.487619E-007	-0.0001305	9
	37	100	54.50582	18.97923	-109.1022	1	110.7407	-80.13168	5.51245E-007	-0.0001348	9
	38	102	45.95588	21.15504	-127.9633	1	129.7002	-80.6127	6.106136E-007	-0.0001327	9
	39	105	37.20238	24.4594	-155.9001	1	157.8072	-81.08347	6.27897E-007	-0.0001319	9
	40	107	30.04808	28.61266	-190.237	1	192.3768	-81.44653	5.528076E-007	-0.0001277	9
	41	109	23.91582	34.29781	-235.4955	1	237.98	-81.71365	4.83359E-007	-0.0001334	9
	42	112	18.60119	42.34323	-297.3873	1	300.3867	-81.89646	5.562805E-007	-0.0001287	9
	43	114	15.02404	51.06767	-362.5978	1	366.1763	-81.98328	6.649166E-007	-0.0001249	9
	44	116	12.01923	62.67604	-444.1641	1	448.5644	-81.96802	6.09218E-007	-0.0001235	8
	45	119	9.450605	78.92356	-554.9454	1	560.5295	-81.90575	6.849729E-007	-0.0001081	8
	46	121	7.512019	99.7513	-686.2173	1	693.4295	-81.72919	6.763112E-007	-0.000121	8
	47	124	5.978954	126.3091	-846.53	1	855.9013	-81.51362	6.679547E-007	-0.000125	8
	48	127	4.734848	162.6096	-1048.997	1	1061.525	-81.18846	6.875715E-007	-0.0001456	8
	49	130	3.75601	210.1882	-1296.063	1	1312.996	-80.78829	7.376891E-007	-0.0001068	8
	50	134	3.004808	271.24	-1586.59	1	1609.609	-80.29863	7.110771E-007	-0.0001136	8
	51	137	2.372217	361.1406	-1962.801	1	1995.748	-79.57461	6.874899E-007	-0.0001611	8
	52	141	1.878005	477.1866	-2424.157	1	2470.677	-78.86391	7.318584E-007	-0.0001211	8
	53	146	1.512097	618.1968	-2933.5	1	2997.931	-78.09978	6.909254E-007	-5.971194E-005	8
	54	152	1.201923	830.5385	-3591.756	1	3686.53	-76.98006	7.298982E-007	-0.0001099	8
	55	158	0.956633	1108.633	-4376.299	1	4514.539	-75.78452	1.027999E-007	-0.0006585	7
