EXPLAIN
TAG	EISPOT
TITLE	LABEL	Potentiostatic EIS	Test Identifier
DATE	LABEL	11/21/2021	Date
TIME	LABEL	11:14:28	Time
NOTES	NOTES	1	Notes...
	
PSTAT	PSTAT	REF3000-16137	Potentiostat
VDC	POTEN	0.00000E+000	T	DC Voltage (V)
FREQINIT	QUANT	3.00000E+005	Initial Freq. (Hz)
FREQFINAL	QUANT	1.00000E+000	Final Freq. (Hz)
PTSPERDEC	QUANT	1.00000E+001	Points/decade
VAC	QUANT	5.00000E+001	AC Voltage (mV rms)
AREA	QUANT	1.00000E+000	Sample Area (cm^2)
SPEED	SELECTOR	2	Optimize for:
ZGUESS	QUANT	1.00000E+003	Estimated Z (ohms)
EOC	QUANT	0	Open Circuit (V)
SEQUENCER	TOGGLE	TRUE	Run as Sequence
PSTATMODEL	IQUANT	5	Pstat Model
PSTATSECTION	LABEL	REF3000-16137	Pstat Section
PSTATSERIALNO	LABEL	16137	Pstat Serial Number
CTRLMODE	IQUANT	1	Control Mode
IESTAB	IQUANT	0	I/E Stability
CASPEED	IQUANT	1	Control Amp Speed
CONVENTION	IQUANT	1	Current Convention
ICHRANGE	IQUANT	2	Ich Range
ICHRANGEMODE	TOGGLE	F	Ich Auto Range
ICHOFFSETENABLE	TOGGLE	T	Ich Offset Enable
ICHOFFSET	QUANT	0	Ich Offset (V)
ICHFILTER	IQUANT	3	Ich Filter
VCHRANGE	IQUANT	2	Vch Range
VCHRANGEMODE	TOGGLE	F	Vch Auto Range
VCHOFFSETENABLE	TOGGLE	T	Vch Offset Enable
VCHOFFSET	QUANT	0	Vch Offset (V)
VCHFILTER	IQUANT	3	Vch Filter
ACHRANGE	IQUANT	2	Ach Range
ACHOFFSETENABLE	TOGGLE	F	Ach Offset Enable
ACHOFFSET	QUANT	0	Ach Offset (V)
ACHFILTER	IQUANT	3	Ach Filter
IERANGELOWERLIMIT	IQUANT	2	I/E Range Lower Limit
IERANGEMODE	TOGGLE	F	I/E AutoRange
IERANGE	IQUANT	11	I/E Range
POSFEEDENABLE	TOGGLE	F	Positive Feedback IR Comp
POSFEEDRESISTANCE	QUANT	0	Positive Feedback Resistance (ohm)
ACHSELECT	IQUANT	0	Ach Select
CABLEID	IQUANT	13	Cable ID
DCCALDATE	LABEL	9/10/2021	DC Calibration Date
ACCALDATE	LABEL	9/10/2021	AC Calibration Date
THERMOSELECT	IQUANT	1	Thermo Select
FRAMEWORKVERSION	QUANT	6.33	Framework Version
INSTRUMENTVERSION	LABEL	3.50	Instrument Version
COMPLIANCEVOLTAGE	IQUANT	0	Compliance Voltage
ZCURVE	TABLE
	Pt	Time	Freq	Zreal	Zimag	Zsig	Zmod	Zphz	Idc	Vdc	IERange
	#	s	Hz	ohm	ohm	V	ohm	°	A	V	#
	0	8	300046.9	11.02631	2.229525	1	11.24946	11.43111	3.662633E-005	-0.0005111	10
	1	12	238359.4	11.03733	1.779511	1	11.17986	9.158789	-2.676502E-005	-0.0006643	10
	2	15	189328.1	11.03744	1.397379	1	11.12555	7.215456	2.982683E-005	-0.0003469	10
	3	17	150421.9	11.05168	1.074438	1	11.10379	5.552809	1.661608E-005	-0.0003275	10
	4	20	119484.4	11.06434	0.8327762	1	11.09564	4.304347	-7.517323E-006	-0.0003019	10
	5	22	94921.88	11.07851	0.6282094	1	11.0963	3.245495	-1.39579E-005	-0.0001998	10
	6	25	75421.88	11.09685	0.4419832	1	11.10564	2.280864	2.68005E-005	-0.0001728	10
	7	27	59859.37	11.11865	0.2801358	1	11.12218	1.443269	1.947686E-005	-0.0001873	10
	8	30	47578.12	11.14298	0.1413089	1	11.14388	0.7265535	-2.020701E-005	-0.0001821	10
	9	32	37828.12	11.16887	0.0125374	1	11.16888	0.0643164	-2.695095E-005	-0.0001471	10
	10	35	30046.88	11.19697	-0.1132818	1	11.19755	-0.5796518	-9.823833E-007	-0.0000993	10
	11	37	23859.38	11.22408	-0.2425188	1	11.2267	-1.237798	1.290203E-005	-0.0001807	10
	12	40	18984.38	11.25343	-0.3812427	1	11.25989	-1.940319	-1.514804E-005	-0.0001361	10
	13	42	15046.87	11.2886	-0.5375277	1	11.30139	-2.726187	-2.314035E-005	-7.635147E-005	10
	14	44	11953.13	11.32485	-0.717536	1	11.34756	-3.625381	1.867031E-005	-0.0001144	10
	15	47	9515.62	11.36483	-0.9263705	1	11.40253	-4.659992	-1.4227E-005	-0.0001075	10
	16	49	7546.875	11.41261	-1.182976	1	11.47376	-5.917868	1.013973E-005	-0.0000979	10
	17	51	5928.309	11.46727	-1.507397	1	11.56592	-7.488715	-2.48574E-005	-9.267154E-005	10
	18	54	4733.456	11.53821	-1.877947	1	11.69004	-9.24434	-2.579953E-005	-0.0001008	10
	19	57	3796.875	11.61141	-2.320966	1	11.8411	-11.30369	4.903443E-006	-0.0001593	10
	20	59	2987.132	11.70468	-2.908575	1	12.06065	-13.95515	-1.570269E-005	-0.0001494	10
	21	61	2390.625	11.81387	-3.581485	1	12.34482	-16.86518	-2.394891E-005	-8.40937E-005	10
	22	64	1884.191	11.95171	-4.473631	1	12.76153	-20.52132	1.276063E-005	-0.0001663	10
	23	66	1516.544	12.1076	-5.464302	1	13.28355	-24.29021	-2.325208E-005	-0.0001032	10
	24	68	1193.986	12.31863	-6.805273	1	14.07339	-28.91791	-2.441856E-005	-0.0001016	10
	25	71	946.5144	12.56938	-8.418898	1	15.12836	-33.81394	2.258558E-005	-0.0001138	10
	26	73	751.7689	12.87095	-10.37622	1	16.53261	-38.87483	2.147828E-005	-0.0001388	10
	27	75	597.4265	13.22431	-12.77038	1	18.38383	-43.99958	2.298006E-005	-0.0001461	10
	28	78	477.4305	13.64515	-15.65578	1	20.76761	-48.92548	-1.057283E-006	-0.0001194	10
	29	80	376.6741	14.14918	-19.40427	1	24.0151	-53.90126	-2.465956E-007	-0.0001196	10
	30	82	298.2954	14.7302	-23.9967	1	28.15707	-58.45662	-5.428824E-007	-0.000113	10
	31	85	237.7717	15.39283	-29.53101	1	33.30194	-62.46954	-7.426334E-007	-0.0001165	10
	32	87	189.0121	16.18825	-36.47215	1	39.90335	-66.06584	-1.091086E-006	-0.0001144	10
	33	89	150.2404	17.12396	-45.04076	1	48.18609	-69.18379	5.498417E-007	-0.0001344	9
	34	92	119.1737	18.30268	-55.84645	1	58.76916	-71.85437	5.933533E-007	-0.0001244	9
	35	94	95.0169	19.72223	-68.95924	1	71.72408	-74.03955	5.280521E-007	-0.0001304	9
	36	97	75.60484	21.49767	-85.34804	1	88.01385	-75.8623	5.489156E-007	-0.0001329	9
	37	99	54.50582	24.82915	-115.8526	1	118.4834	-77.90354	5.323025E-007	-0.0001362	9
	38	102	45.95588	27.06172	-135.884	1	138.5525	-78.73674	5.578044E-007	-0.0001263	9
	39	104	37.20238	30.41385	-165.5156	1	168.2867	-79.58792	5.886426E-007	-0.0001258	9
	40	108	30.04808	34.62497	-202.1251	1	205.0694	-80.27932	5.791063E-007	-0.0001286	9
	41	110	23.91582	40.27923	-250.1611	1	253.3831	-80.85313	5.833513E-007	-0.0001347	9
	42	112	18.60119	48.20526	-316.1173	1	319.7716	-81.32967	6.411954E-007	-0.0001323	9
	43	115	15.02404	56.85419	-385.7451	1	389.9124	-81.61565	5.598341E-007	-0.0001423	9
	44	117	12.01923	67.8821	-472.6479	1	477.4977	-81.82702	6.221607E-007	-0.0001169	8
	45	119	9.450605	83.43499	-590.9861	1	596.8467	-81.96413	6.452304E-007	-0.0001121	8
	46	122	7.512019	102.4033	-731.4487	1	738.5822	-82.03035	6.239326E-007	-0.000101	8
	47	124	5.978954	126.8267	-903.3148	1	912.1747	-82.00784	5.92581E-007	-0.0001131	8
	48	128	4.734848	159.1473	-1121.731	1	1132.964	-81.92496	6.615119E-007	-0.0001184	8
	49	131	3.75601	200.8513	-1388.683	1	1403.133	-81.77013	6.231931E-007	-0.0001144	8
	50	134	3.004808	253.5858	-1703.552	1	1722.323	-81.53329	6.454455E-007	-0.0001509	8
	51	138	2.372217	327.8136	-2118.242	1	2143.458	-81.20284	6.235568E-007	-0.0001954	8
	52	142	1.878005	422.7098	-2622.531	1	2656.38	-80.8436	6.629838E-007	-0.0001139	8
	53	147	1.512097	540.666	-3186.043	1	3231.593	-80.36876	6.136848E-007	-0.0001331	8
	54	152	1.201923	707.9269	-3934.459	1	3997.64	-79.79991	6.607987E-007	-0.000126	8
	55	158	0.956633	934.8136	-4839.746	1	4929.201	-79.06775	8.052463E-008	-0.0006597	7
