EXPLAIN
TAG	EISPOT
TITLE	LABEL	Potentiostatic EIS	Test Identifier
DATE	LABEL	11/21/2021	Date
TIME	LABEL	11:33:56	Time
NOTES	NOTES	1	Notes...
	
PSTAT	PSTAT	REF3000-16137	Potentiostat
VDC	POTEN	0.00000E+000	T	DC Voltage (V)
FREQINIT	QUANT	3.00000E+005	Initial Freq. (Hz)
FREQFINAL	QUANT	1.00000E+000	Final Freq. (Hz)
PTSPERDEC	QUANT	1.00000E+001	Points/decade
VAC	QUANT	5.00000E+001	AC Voltage (mV rms)
AREA	QUANT	1.00000E+000	Sample Area (cm^2)
SPEED	SELECTOR	2	Optimize for:
ZGUESS	QUANT	1.00000E+003	Estimated Z (ohms)
EOC	QUANT	0	Open Circuit (V)
SEQUENCER	TOGGLE	TRUE	Run as Sequence
PSTATMODEL	IQUANT	5	Pstat Model
PSTATSECTION	LABEL	REF3000-16137	Pstat Section
PSTATSERIALNO	LABEL	16137	Pstat Serial Number
CTRLMODE	IQUANT	1	Control Mode
IESTAB	IQUANT	0	I/E Stability
CASPEED	IQUANT	1	Control Amp Speed
CONVENTION	IQUANT	1	Current Convention
ICHRANGE	IQUANT	2	Ich Range
ICHRANGEMODE	TOGGLE	F	Ich Auto Range
ICHOFFSETENABLE	TOGGLE	T	Ich Offset Enable
ICHOFFSET	QUANT	0	Ich Offset (V)
ICHFILTER	IQUANT	3	Ich Filter
VCHRANGE	IQUANT	2	Vch Range
VCHRANGEMODE	TOGGLE	F	Vch Auto Range
VCHOFFSETENABLE	TOGGLE	T	Vch Offset Enable
VCHOFFSET	QUANT	0	Vch Offset (V)
VCHFILTER	IQUANT	3	Vch Filter
ACHRANGE	IQUANT	2	Ach Range
ACHOFFSETENABLE	TOGGLE	F	Ach Offset Enable
ACHOFFSET	QUANT	0	Ach Offset (V)
ACHFILTER	IQUANT	3	Ach Filter
IERANGELOWERLIMIT	IQUANT	2	I/E Range Lower Limit
IERANGEMODE	TOGGLE	F	I/E AutoRange
IERANGE	IQUANT	11	I/E Range
POSFEEDENABLE	TOGGLE	F	Positive Feedback IR Comp
POSFEEDRESISTANCE	QUANT	0	Positive Feedback Resistance (ohm)
ACHSELECT	IQUANT	0	Ach Select
CABLEID	IQUANT	13	Cable ID
DCCALDATE	LABEL	9/10/2021	DC Calibration Date
ACCALDATE	LABEL	9/10/2021	AC Calibration Date
THERMOSELECT	IQUANT	1	Thermo Select
FRAMEWORKVERSION	QUANT	6.33	Framework Version
INSTRUMENTVERSION	LABEL	3.50	Instrument Version
COMPLIANCEVOLTAGE	IQUANT	0	Compliance Voltage
ZCURVE	TABLE
	Pt	Time	Freq	Zreal	Zimag	Zsig	Zmod	Zphz	Idc	Vdc	IERange
	#	s	Hz	ohm	ohm	V	ohm	°	A	V	#
	0	7	300046.9	30.12428	1.422299	1	30.15784	2.703177	-8.051899E-005	-0.0005997	11
	1	11	238359.4	30.28231	1.430032	1	30.31605	2.70369	7.97515E-005	-0.0006958	10
	2	14	189328.1	30.36422	1.119091	1	30.38483	2.110714	-5.798115E-005	-0.0001584	10
	3	17	150421.9	30.47081	0.8033859	1	30.4814	1.510296	8.816341E-006	-0.0002748	10
	4	19	119484.4	30.55113	0.6419777	1	30.55787	1.203792	-7.000193E-006	-0.0002989	10
	5	22	94921.88	30.63612	0.4279929	1	30.6391	0.800382	1.716022E-005	-0.0001861	10
	6	24	75421.88	30.72939	0.2755232	1	30.73062	0.5137067	2.64157E-005	-0.0001587	10
	7	27	59859.37	30.82162	0.1384001	1	30.82193	0.2572768	-2.358802E-005	-7.383597E-005	10
	8	29	47578.12	30.91049	0.0116794	1	30.91049	0.021649	2.504553E-005	-0.0001734	10
	9	32	37828.12	31.00219	-0.1034662	1	31.00237	-0.1912173	-1.545135E-005	-0.0001224	10
	10	34	30046.88	31.1065	-0.2292521	1	31.10735	-0.422257	3.986307E-006	-0.000175	10
	11	37	23859.38	31.19445	-0.3675627	1	31.19662	-0.6750821	-1.59447E-005	-0.0001136	10
	12	39	18984.38	31.28794	-0.5185062	1	31.29223	-0.9494233	1.473312E-005	-0.0001699	10
	13	41	15046.87	31.38951	-0.6878508	1	31.39705	-1.255344	1.649345E-005	-0.0001576	10
	14	44	11953.13	31.4784	-0.8913	1	31.49101	-1.621877	1.493374E-005	-0.000162	10
	15	46	9515.62	31.59107	-1.132751	1	31.61138	-2.053556	-2.459376E-005	-0.0001187	10
	16	48	7546.875	31.70448	-1.427996	1	31.73662	-2.578906	1.776756E-005	-0.0001793	10
	17	51	5928.309	31.8241	-1.806896	1	31.87536	-3.249627	2.569769E-005	-0.0001328	10
	18	53	4733.456	31.9656	-2.237345	1	32.0438	-4.003731	1.448549E-005	-0.0001719	10
	19	55	3796.875	32.11799	-2.752602	1	32.23573	-4.89844	2.771668E-005	-0.0001176	10
	20	58	2987.132	32.28276	-3.451996	1	32.46679	-6.103447	8.171781E-006	-0.000113	10
	21	60	2390.625	32.46082	-4.241172	1	32.73671	-7.443821	2.232071E-005	-0.0001471	10
	22	62	1884.191	32.70991	-5.303133	1	33.13701	-9.20902	-2.600326E-005	-0.0000952	10
	23	64	1516.544	32.93303	-6.457918	1	33.56023	-11.09449	5.828219E-006	-0.0001705	10
	24	67	1193.986	33.24106	-8.057055	1	34.20357	-13.62474	-2.035684E-005	-0.0001436	10
	25	69	946.5144	33.60785	-9.98541	1	35.05989	-16.5475	-1.067614E-005	-0.0001256	10
	26	72	751.7689	33.99554	-12.30293	1	36.15326	-19.89511	-1.112765E-005	0.0003125	9
	27	74	597.4265	34.53113	-15.17044	1	37.71659	-23.71716	1.51642E-005	-0.0005688	9
	28	76	477.4305	35.19301	-18.60391	1	39.8077	-27.86206	4.856985E-007	-0.0001252	9
	29	78	376.6741	36.00752	-23.03128	1	42.7432	-32.60396	4.706807E-007	-0.0001307	9
	30	81	298.2954	36.98623	-28.38877	1	46.62513	-37.50803	4.864789E-007	-0.0001232	9
	31	83	237.7717	38.12983	-34.75788	1	51.59452	-42.35125	4.57473E-007	-0.0001272	9
	32	86	189.0121	39.49428	-42.6371	1	58.11816	-47.1914	4.47566E-007	-0.0001256	9
	33	88	150.2404	41.0825	-52.3007	1	66.50665	-51.85016	4.378014E-007	-0.0001288	9
	34	90	119.1737	42.93171	-64.31584	1	77.32825	-56.27634	5.518485E-007	-0.0001308	9
	35	93	95.0169	45.01245	-78.80534	1	90.75463	-60.26563	4.456861E-007	-0.000123	9
	36	95	75.60484	47.44323	-96.8714	1	107.8653	-63.90647	3.862579E-007	-0.000127	9
	37	98	54.50582	51.62451	-130.4917	1	140.3324	-68.4155	4.39145E-007	-0.0001275	9
	38	100	45.95588	54.31593	-152.605	1	161.983	-70.40808	5.094513E-007	-0.0001225	9
	39	103	37.20238	58.18047	-185.3729	1	194.2886	-72.5752	4.625805E-007	-0.0001262	9
	40	105	30.04808	62.86663	-225.8385	1	234.4254	-74.4444	5.025505E-007	-0.000128	9
	41	107	23.91582	69.01812	-279.0509	1	287.4594	-76.10774	4.068031E-007	-0.0001345	9
	42	110	18.60119	77.50835	-352.4915	1	360.9124	-77.59875	5.454605E-007	-0.0001641	9
	43	112	15.02404	86.0522	-428.1634	1	436.7252	-78.6361	4.995773E-007	-0.0001127	8
	44	114	12.01923	97.8075	-526.9888	1	535.9884	-79.48571	4.138971E-007	-0.0001263	8
	45	117	9.450605	113.4274	-659.23	1	668.917	-80.23726	4.447772E-007	-0.0001139	8
	46	119	7.512019	132.578	-816.0269	1	826.7266	-80.77192	4.581449E-007	-0.0001354	8
	47	122	5.978954	156.3066	-1008.9	1	1020.936	-81.19331	4.878119E-007	-0.000118	8
	48	125	4.734848	186.5029	-1253.634	1	1267.431	-81.53819	4.467311E-007	-0.0001349	8
	49	128	3.75601	225.3464	-1554.015	1	1570.268	-81.7491	4.947037E-007	-0.0001064	8
	50	132	3.004808	272.8547	-1910.878	1	1930.26	-81.87366	4.628366E-007	-8.652221E-005	8
	51	135	2.372217	335.2092	-2378.591	1	2402.095	-81.97827	4.691943E-007	-5.229816E-005	8
	52	139	1.878005	418.1227	-2953.018	1	2982.473	-81.94096	4.728512E-007	-0.0001496	8
	53	144	1.512097	517.6566	-3601.333	1	3638.346	-81.82031	4.896599E-007	-5.608653E-005	8
	54	150	1.201923	645.3824	-4470.745	1	4517.087	-81.78571	6.027825E-008	-0.0001318	7
	55	156	0.956633	813.0557	-5519.362	1	5578.926	-81.62004	4.8152E-008	-0.0006528	7
