EXPLAIN
TAG	EISPOT
TITLE	LABEL	Potentiostatic EIS	Test Identifier
DATE	LABEL	11/21/2021	Date
TIME	LABEL	11:55:58	Time
NOTES	NOTES	1	Notes...
	
PSTAT	PSTAT	REF3000-16137	Potentiostat
VDC	POTEN	0.00000E+000	T	DC Voltage (V)
FREQINIT	QUANT	3.00000E+005	Initial Freq. (Hz)
FREQFINAL	QUANT	1.00000E+000	Final Freq. (Hz)
PTSPERDEC	QUANT	1.00000E+001	Points/decade
VAC	QUANT	5.00000E+001	AC Voltage (mV rms)
AREA	QUANT	1.00000E+000	Sample Area (cm^2)
SPEED	SELECTOR	2	Optimize for:
ZGUESS	QUANT	1.00000E+003	Estimated Z (ohms)
EOC	QUANT	0	Open Circuit (V)
SEQUENCER	TOGGLE	TRUE	Run as Sequence
PSTATMODEL	IQUANT	5	Pstat Model
PSTATSECTION	LABEL	REF3000-16137	Pstat Section
PSTATSERIALNO	LABEL	16137	Pstat Serial Number
CTRLMODE	IQUANT	1	Control Mode
IESTAB	IQUANT	0	I/E Stability
CASPEED	IQUANT	1	Control Amp Speed
CONVENTION	IQUANT	1	Current Convention
ICHRANGE	IQUANT	2	Ich Range
ICHRANGEMODE	TOGGLE	F	Ich Auto Range
ICHOFFSETENABLE	TOGGLE	T	Ich Offset Enable
ICHOFFSET	QUANT	0	Ich Offset (V)
ICHFILTER	IQUANT	3	Ich Filter
VCHRANGE	IQUANT	2	Vch Range
VCHRANGEMODE	TOGGLE	F	Vch Auto Range
VCHOFFSETENABLE	TOGGLE	T	Vch Offset Enable
VCHOFFSET	QUANT	0	Vch Offset (V)
VCHFILTER	IQUANT	3	Vch Filter
ACHRANGE	IQUANT	2	Ach Range
ACHOFFSETENABLE	TOGGLE	F	Ach Offset Enable
ACHOFFSET	QUANT	0	Ach Offset (V)
ACHFILTER	IQUANT	3	Ach Filter
IERANGELOWERLIMIT	IQUANT	2	I/E Range Lower Limit
IERANGEMODE	TOGGLE	F	I/E AutoRange
IERANGE	IQUANT	11	I/E Range
POSFEEDENABLE	TOGGLE	F	Positive Feedback IR Comp
POSFEEDRESISTANCE	QUANT	0	Positive Feedback Resistance (ohm)
ACHSELECT	IQUANT	0	Ach Select
CABLEID	IQUANT	13	Cable ID
DCCALDATE	LABEL	9/10/2021	DC Calibration Date
ACCALDATE	LABEL	9/10/2021	AC Calibration Date
THERMOSELECT	IQUANT	1	Thermo Select
FRAMEWORKVERSION	QUANT	6.33	Framework Version
INSTRUMENTVERSION	LABEL	3.50	Instrument Version
COMPLIANCEVOLTAGE	IQUANT	0	Compliance Voltage
ZCURVE	TABLE
	Pt	Time	Freq	Zreal	Zimag	Zsig	Zmod	Zphz	Idc	Vdc	IERange
	#	s	Hz	ohm	ohm	V	ohm	°	A	V	#
	0	8	300046.9	187.049	-5.088327	1	187.1181	-1.558243	2.566671E-005	0.0001081	9
	1	11	238359.4	188.4454	-4.546657	1	188.5003	-1.382117	-8.932959E-006	0.0009083	9
	2	14	189328.1	189.9652	-4.432988	1	190.0169	-1.3368	1.866586E-005	-0.0009022	9
	3	18	150421.9	191.6656	-3.226196	1	191.6927	-0.964336	-1.404502E-005	0.0011204	9
	4	20	119484.4	192.2955	-2.822969	1	192.3163	-0.8410625	6.578726E-005	-0.0030254	9
	5	23	94921.88	193.3189	-2.614956	1	193.3366	-0.7749723	-1.064128E-005	-0.0002544	9
	6	26	75421.88	194.207	-2.314309	1	194.2208	-0.6827447	-1.501679E-005	0.0006444	9
	7	28	59859.37	195.2458	-2.022197	1	195.2563	-0.5934018	1.894147E-005	-0.0002544	9
	8	31	47578.12	196.2256	-1.751132	1	196.2334	-0.5112983	-1.975078E-005	0.0007353	9
	9	33	37828.12	197.1193	-1.517496	1	197.1251	-0.4410751	2.268948E-005	-0.0004589	9
	10	36	30046.88	198.1912	-1.592998	1	198.1976	-0.4605153	1.943955E-005	-0.0010261	9
	11	38	23859.38	199.0123	-1.442628	1	199.0175	-0.4153264	2.337138E-005	-0.0009418	9
	12	41	18984.38	199.8149	-1.437497	1	199.8201	-0.4121868	1.338337E-005	-0.0009384	9
	13	43	15046.87	200.6981	-1.868473	1	200.7068	-0.5334007	-7.829755E-006	0.0005429	9
	14	45	11953.13	201.509	-1.575127	1	201.5152	-0.4478524	5.254963E-006	-0.0007897	9
	15	48	9515.62	202.4689	-2.021981	1	202.479	-0.5721723	2.259574E-005	-0.0004385	9
	16	50	7546.875	203.4717	-2.235036	1	203.4839	-0.6293406	-2.297767E-005	0.0006206	9
	17	52	5928.309	204.4543	-2.537921	1	204.47	-0.7111845	-7.437598E-006	0.0005837	9
	18	55	4733.456	205.1007	-3.160401	1	205.1251	-0.8828018	-1.827719E-005	9.411437E-005	9
	19	57	3796.875	206.0729	-3.998442	1	206.1117	-1.111573	-2.299712E-005	0.0006085	9
	20	59	2987.132	207.3416	-4.737716	1	207.3958	-1.30897	5.408388E-006	-0.0007814	9
	21	61	2390.625	208.0619	-6.098452	1	208.1513	-1.678902	-2.162496E-005	0.0003033	9
	22	64	1884.191	208.6984	-7.406962	1	208.8298	-2.032645	-1.846147E-005	9.041907E-005	9
	23	66	1516.544	210.6454	-8.87278	1	210.8322	-2.41198	-3.340275E-006	-0.0005247	9
	24	68	1193.986	211.3622	-10.8829	1	211.6422	-2.947517	-2.190651E-005	0.0003197	9
	25	71	946.5144	213.0638	-13.55942	1	213.4948	-3.641402	2.530982E-005	-0.0008703	9
	26	73	751.7689	214.1944	-16.40467	1	214.8217	-4.379606	-1.518822E-005	0.0007284	9
	27	76	597.4265	215.4028	-20.67	1	216.3923	-5.481305	-1.061015E-005	-0.0002288	9
	28	78	477.4305	217.3158	-25.01382	1	218.7507	-6.566052	3.983498E-007	-0.0001247	9
	29	80	376.6741	219.0809	-31.04424	1	221.2695	-8.065242	3.507829E-007	-0.0001211	9
	30	82	298.2954	221.0916	-38.43425	1	224.4075	-9.86166	3.847209E-007	-0.0001225	9
	31	85	237.7717	223.4373	-47.28328	1	228.3855	-11.94852	7.246118E-007	-0.000165	9
	32	87	189.0121	226.1875	-58.31812	1	233.5846	-14.45774	3.154245E-007	-0.0001169	9
	33	90	150.2404	229.4512	-71.83909	1	240.4344	-17.38487	3.741118E-007	-0.0001221	9
	34	92	119.1737	233.4572	-88.59775	1	249.7035	-20.78191	3.302644E-007	-0.0001255	9
	35	94	95.0169	238.1782	-108.6014	1	261.7692	-24.51143	3.319245E-007	-0.0001227	9
	36	97	75.60484	243.9911	-133.1879	1	277.976	-28.62889	3.833585E-007	-0.0001263	9
	37	99	54.50582	254.0526	-177.8485	1	310.1174	-34.99379	3.564914E-007	-0.0001321	9
	38	102	45.95588	260.9765	-206.6345	1	332.8761	-38.37128	3.140269E-007	-0.0001197	9
	39	104	37.20238	270.6305	-248.4902	1	367.4075	-42.55783	3.431923E-007	-0.0001312	9
	40	107	30.04808	280.8568	-297.9163	1	409.4321	-46.68832	6.017705E-009	-0.0001299	8
	41	109	23.91582	294.9991	-362.9918	1	467.7473	-50.89965	3.567102E-011	-0.0001194	8
	42	111	18.60119	312.8065	-451.1874	1	549.0154	-55.26658	-8.84322E-008	-0.0001159	8
	43	114	15.02404	330.4892	-542.9695	1	635.6406	-58.67238	-1.87373E-008	-0.0001004	8
	44	116	12.01923	351.1508	-659.9857	1	747.5881	-61.98443	-1.082485E-009	-0.0001175	8
	45	118	9.450605	376.5753	-815.5035	1	898.251	-65.21391	-3.826075E-008	-0.0001196	8
	46	121	7.512019	404.9311	-1000.634	1	1079.462	-67.96807	1.630992E-008	-0.0001252	8
	47	124	5.978954	437.2986	-1227.821	1	1303.371	-70.39623	-3.987966E-009	-0.0001186	8
	48	127	4.734848	476.7563	-1517.95	1	1591.059	-72.56359	-4.377437E-008	-0.0001294	8
	49	130	3.75601	524.3063	-1874.358	1	1946.308	-74.37232	1.658014E-008	-0.0001206	8
	50	133	3.004808	580.2928	-2298.683	1	2370.798	-75.83194	-4.028578E-008	-7.74431E-005	8
	51	137	2.372217	650.9711	-2858.164	1	2931.359	-77.16927	-1.885348E-008	-5.444018E-005	8
	52	141	1.878005	741.6125	-3544.555	1	3621.306	-78.18271	-2.336121E-008	-0.0001409	8
	53	146	1.512097	851.4144	-4333.014	1	4415.871	-78.88331	7.384411E-009	-3.134441E-005	7
	54	151	1.201923	980.82	-5369.701	1	5458.543	-79.64857	-5.062338E-009	-0.0001385	7
	55	158	0.956633	1145.367	-6635.669	1	6733.793	-80.20681	-1.476968E-008	-0.0006543	7
