EXPLAIN
TAG	EISPOT
TITLE	LABEL	Potentiostatic EIS	Test Identifier
DATE	LABEL	8/3/2020	Date
TIME	LABEL	1:06:39	Time
NOTES	NOTES	1	Notes...
	
PSTAT	PSTAT	REF3000-16137	Potentiostat
VDC	POTEN	0.00000E+000	T	DC Voltage (V)
FREQINIT	QUANT	3.00000E+005	Initial Freq. (Hz)
FREQFINAL	QUANT	1.00000E+000	Final Freq. (Hz)
PTSPERDEC	QUANT	1.00000E+001	Points/decade
VAC	QUANT	5.00000E+001	AC Voltage (mV rms)
AREA	QUANT	1.00000E+000	Sample Area (cm^2)
SPEED	SELECTOR	2	Optimize for:
ZGUESS	QUANT	1.00000E+003	Estimated Z (ohms)
EOC	QUANT	0	Open Circuit (V)
SEQUENCER	TOGGLE	TRUE	Run as Sequence
PSTATMODEL	IQUANT	5	Pstat Model
PSTATSECTION	LABEL	REF3000-16137	Pstat Section
PSTATSERIALNO	LABEL	16137	Pstat Serial Number
CTRLMODE	IQUANT	1	Control Mode
IESTAB	IQUANT	0	I/E Stability
CASPEED	IQUANT	1	Control Amp Speed
CONVENTION	IQUANT	1	Current Convention
ICHRANGE	IQUANT	2	Ich Range
ICHRANGEMODE	TOGGLE	F	Ich Auto Range
ICHOFFSETENABLE	TOGGLE	T	Ich Offset Enable
ICHOFFSET	QUANT	0	Ich Offset (V)
ICHFILTER	IQUANT	3	Ich Filter
VCHRANGE	IQUANT	2	Vch Range
VCHRANGEMODE	TOGGLE	F	Vch Auto Range
VCHOFFSETENABLE	TOGGLE	T	Vch Offset Enable
VCHOFFSET	QUANT	0	Vch Offset (V)
VCHFILTER	IQUANT	3	Vch Filter
ACHRANGE	IQUANT	2	Ach Range
ACHOFFSETENABLE	TOGGLE	F	Ach Offset Enable
ACHOFFSET	QUANT	0	Ach Offset (V)
ACHFILTER	IQUANT	3	Ach Filter
IERANGELOWERLIMIT	IQUANT	2	I/E Range Lower Limit
IERANGEMODE	TOGGLE	F	I/E AutoRange
IERANGE	IQUANT	11	I/E Range
POSFEEDENABLE	TOGGLE	F	Positive Feedback IR Comp
POSFEEDRESISTANCE	QUANT	0	Positive Feedback Resistance (ohm)
ACHSELECT	IQUANT	0	Ach Select
CABLEID	IQUANT	13	Cable ID
DCCALDATE	LABEL	7/31/2020	DC Calibration Date
ACCALDATE	LABEL	7/31/2020	AC Calibration Date
THERMOSELECT	IQUANT	1	Thermo Select
FRAMEWORKVERSION	QUANT	6.33	Framework Version
INSTRUMENTVERSION	LABEL	3.50	Instrument Version
COMPLIANCEVOLTAGE	IQUANT	0	Compliance Voltage
ZCURVE	TABLE
	Pt	Time	Freq	Zreal	Zimag	Zsig	Zmod	Zphz	Idc	Vdc	IERange
	#	s	Hz	ohm	ohm	V	ohm	°	A	V	#
	0	8	300046.9	13.10352	1.072859	1	13.14736	4.680687	1.958519E-005	0.0002129	10
	1	11	238359.4	13.19379	0.8454592	1	13.22085	3.666507	-0.0001069	0.0001756	10
	2	14	189328.1	13.2893	0.6419281	1	13.3048	2.765473	-0.0000969	0.0004053	10
	3	17	150421.9	13.37914	0.4811702	1	13.38778	2.059711	7.035167E-005	0.0003733	10
	4	19	119484.4	13.46928	0.3286524	1	13.47329	1.397748	-1.191192E-005	0.0006657	10
	5	22	94921.88	13.55968	0.2202278	1	13.56147	0.9304804	1.992658E-005	0.0006512	10
	6	24	75421.88	13.65481	0.0944712	1	13.65514	0.3963962	-2.44542E-005	0.0006527	10
	7	27	59859.37	13.75493	-0.0210754	1	13.75495	-0.0877889	-2.038266E-005	0.0006937	10
	8	30	47578.12	13.8561	-0.1305451	1	13.85672	-0.5397956	-3.208655E-006	0.0006951	10
	9	32	37828.12	13.96051	-0.2415808	1	13.9626	-0.991381	-2.166807E-005	0.0007219	10
	10	35	30046.88	14.06786	-0.3632535	1	14.07255	-1.479135	-2.163644E-005	0.0007169	10
	11	37	23859.38	14.17492	-0.5003077	1	14.18374	-2.021431	2.399306E-005	0.0006521	10
	12	39	18984.38	14.28246	-0.6552503	1	14.29748	-2.626772	2.412664E-005	0.0006864	10
	13	42	15046.87	14.39417	-0.8409205	1	14.41871	-3.343471	8.727113E-006	0.0006979	10
	14	44	11953.13	14.51057	-1.061574	1	14.54935	-4.184228	-2.558695E-006	0.0006618	10
	15	46	9515.62	14.63627	-1.330056	1	14.69658	-5.192432	-2.930808E-005	0.0006562	10
	16	49	7546.875	14.7714	-1.660108	1	14.86439	-6.412373	1.662101E-005	0.0007005	10
	17	51	5928.309	14.91808	-2.083825	1	15.06291	-7.951881	-1.712391E-005	0.0006734	10
	18	53	4733.456	15.07241	-2.570369	1	15.29001	-9.67782	1.635539E-005	0.0006754	10
	19	56	3796.875	15.24464	-3.157168	1	15.56813	-11.70056	-1.34289E-005	0.0007185	10
	20	58	2987.132	15.44217	-3.942408	1	15.93748	-14.32177	-1.38976E-005	0.0006913	10
	21	60	2390.625	15.6594	-4.843575	1	16.39137	-17.18725	1.494694E-005	0.0006462	10
	22	63	1884.191	15.91871	-6.034072	1	17.02396	-20.75948	-1.706138E-005	0.0006654	10
	23	65	1516.544	16.19967	-7.370603	1	17.79761	-24.46482	2.463913E-005	0.0006585	10
	24	67	1193.986	16.5634	-9.182611	1	18.93849	-29.00362	6.417966E-006	0.0006455	10
	25	70	946.5144	16.98269	-11.37199	1	20.43854	-33.80715	2.547816E-005	0.0006896	10
	26	72	751.7689	17.4904	-14.03371	1	22.42452	-38.74238	-1.746806E-005	0.0006744	10
	27	74	597.4265	18.08965	-17.3204	1	25.04459	-43.7555	-1.452246E-005	0.0006967	10
	28	77	477.4305	18.82016	-21.24069	1	28.37896	-48.45768	-6.87874E-007	0.0006796	10
	29	79	376.6741	19.74645	-26.33876	1	32.91888	-53.14072	-7.535882E-007	0.0006789	10
	30	81	298.2954	20.86166	-32.53383	1	38.64788	-57.3308	-8.36745E-007	0.0006803	10
	31	84	237.7717	22.15855	-39.88267	1	45.62487	-60.94374	9.958852E-007	8.181031E-005	9
	32	86	189.0121	23.7753	-49.05827	1	54.51585	-64.1436	1.041087E-006	8.452679E-005	9
	33	88	150.2404	25.73284	-60.32534	1	65.5845	-66.89847	9.964926E-007	7.781143E-005	9
	34	91	119.1737	28.11945	-74.32722	1	79.46848	-69.27738	9.543762E-007	8.093307E-005	9
	35	93	95.0169	30.93499	-91.15472	1	96.2609	-71.25443	9.427125E-007	7.783726E-005	9
	36	96	75.60484	34.36641	-112.0321	1	117.1847	-72.94635	1.000309E-006	7.930609E-005	9
	37	98	54.50582	40.50532	-150.5069	1	155.8621	-74.9371	9.337731E-007	7.189017E-005	9
	38	101	45.95588	44.52244	-175.7108	1	181.2637	-75.78137	1.068664E-006	7.437661E-005	9
	39	103	37.20238	50.34605	-212.8065	1	218.6809	-76.68961	1.054953E-006	7.469249E-005	9
	40	106	30.04808	57.4587	-258.3546	1	264.6669	-77.46135	9.723428E-007	7.635295E-005	9
	41	108	23.91582	66.65649	-317.8975	1	324.8105	-78.15783	1.070107E-006	7.804038E-005	9
	42	110	18.60119	79.30241	-399.4815	1	407.2767	-78.772	1.191502E-006	7.5181E-005	9
	43	113	15.02404	91.99942	-483.1783	1	491.8588	-79.21965	2.920951E-007	0.0006512	8
	44	115	12.01923	108.8868	-591.9005	1	601.8326	-79.57634	3.341227E-007	0.0006552	8
	45	117	9.450605	131.4028	-736.863	1	748.4877	-79.88888	3.746081E-007	0.0006516	8
	46	120	7.512019	158.2932	-908.2855	1	921.9757	-80.11396	3.502551E-007	0.0006559	8
	47	123	5.978954	191.3954	-1117.406	1	1133.679	-80.28039	3.673285E-007	0.0006575	8
	48	126	4.734848	233.606	-1382.78	1	1402.373	-80.41103	3.420931E-007	0.0006642	8
	49	129	3.75601	284.8668	-1707.051	1	1730.657	-80.52598	3.620796E-007	0.0006651	8
	50	132	3.004808	346.0806	-2090.063	1	2118.522	-80.59806	3.42794E-007	0.0006948	8
	51	136	2.372217	426.7629	-2592.535	1	2627.425	-80.65224	3.470633E-007	0.0007309	8
	52	140	1.878005	525.1654	-3206.732	1	3249.451	-80.69926	3.555981E-007	0.0006293	8
	53	145	1.512097	641.7878	-3904.26	1	3956.657	-80.66512	3.683527E-007	0.0007357	8
	54	150	1.201923	785.3218	-4834.334	1	4897.705	-80.77309	4.265057E-008	0.0005989	7
	55	157	0.956633	962.932	-5961.33	1	6038.601	-80.82429	3.233E-008	-1.496493E-005	7
