EXPLAIN
TAG	EISPOT
TITLE	LABEL	Potentiostatic EIS	Test Identifier
DATE	LABEL	8/3/2020	Date
TIME	LABEL	1:12:11	Time
NOTES	NOTES	1	Notes...
	
PSTAT	PSTAT	REF3000-16137	Potentiostat
VDC	POTEN	0.00000E+000	T	DC Voltage (V)
FREQINIT	QUANT	3.00000E+005	Initial Freq. (Hz)
FREQFINAL	QUANT	1.00000E+000	Final Freq. (Hz)
PTSPERDEC	QUANT	1.00000E+001	Points/decade
VAC	QUANT	5.00000E+001	AC Voltage (mV rms)
AREA	QUANT	1.00000E+000	Sample Area (cm^2)
SPEED	SELECTOR	2	Optimize for:
ZGUESS	QUANT	1.00000E+003	Estimated Z (ohms)
EOC	QUANT	0	Open Circuit (V)
SEQUENCER	TOGGLE	TRUE	Run as Sequence
PSTATMODEL	IQUANT	5	Pstat Model
PSTATSECTION	LABEL	REF3000-16137	Pstat Section
PSTATSERIALNO	LABEL	16137	Pstat Serial Number
CTRLMODE	IQUANT	1	Control Mode
IESTAB	IQUANT	0	I/E Stability
CASPEED	IQUANT	1	Control Amp Speed
CONVENTION	IQUANT	1	Current Convention
ICHRANGE	IQUANT	2	Ich Range
ICHRANGEMODE	TOGGLE	F	Ich Auto Range
ICHOFFSETENABLE	TOGGLE	T	Ich Offset Enable
ICHOFFSET	QUANT	0	Ich Offset (V)
ICHFILTER	IQUANT	3	Ich Filter
VCHRANGE	IQUANT	2	Vch Range
VCHRANGEMODE	TOGGLE	F	Vch Auto Range
VCHOFFSETENABLE	TOGGLE	T	Vch Offset Enable
VCHOFFSET	QUANT	0	Vch Offset (V)
VCHFILTER	IQUANT	3	Vch Filter
ACHRANGE	IQUANT	2	Ach Range
ACHOFFSETENABLE	TOGGLE	F	Ach Offset Enable
ACHOFFSET	QUANT	0	Ach Offset (V)
ACHFILTER	IQUANT	3	Ach Filter
IERANGELOWERLIMIT	IQUANT	2	I/E Range Lower Limit
IERANGEMODE	TOGGLE	F	I/E AutoRange
IERANGE	IQUANT	11	I/E Range
POSFEEDENABLE	TOGGLE	F	Positive Feedback IR Comp
POSFEEDRESISTANCE	QUANT	0	Positive Feedback Resistance (ohm)
ACHSELECT	IQUANT	0	Ach Select
CABLEID	IQUANT	13	Cable ID
DCCALDATE	LABEL	7/31/2020	DC Calibration Date
ACCALDATE	LABEL	7/31/2020	AC Calibration Date
THERMOSELECT	IQUANT	1	Thermo Select
FRAMEWORKVERSION	QUANT	6.33	Framework Version
INSTRUMENTVERSION	LABEL	3.50	Instrument Version
COMPLIANCEVOLTAGE	IQUANT	0	Compliance Voltage
ZCURVE	TABLE
	Pt	Time	Freq	Zreal	Zimag	Zsig	Zmod	Zphz	Idc	Vdc	IERange
	#	s	Hz	ohm	ohm	V	ohm	°	A	V	#
	0	7	300046.9	35.79771	0.4520599	1	35.80056	0.7235029	1.933708E-005	-0.0001126	10
	1	11	238359.4	36.24596	1.037641	1	36.26081	1.639803	9.799289E-006	-0.0009307	9
	2	14	189328.1	36.56246	0.7224587	1	36.5696	1.131993	-3.638021E-005	0.0003751	9
	3	17	150421.9	36.9408	0.6365764	1	36.94629	0.987243	4.984437E-005	-0.0016794	9
	4	19	119484.4	37.29697	0.335972	1	37.29848	0.5161077	-1.055331E-005	-0.0005226	9
	5	22	94921.88	37.69666	0.3358323	1	37.69816	0.5104235	1.644096E-005	-0.0003359	9
	6	24	75421.88	38.04943	0.1598977	1	38.04976	0.2407765	1.888522E-005	-0.0004766	9
	7	27	59859.37	38.40783	0.0028043	1	38.40783	0.0041834	1.031151E-005	1.930601E-005	9
	8	29	47578.12	38.77831	-0.1521127	1	38.77861	-0.2247486	-1.372029E-005	0.0003773	9
	9	32	37828.12	39.15634	-0.2949251	1	39.15745	-0.431543	1.284177E-005	-0.0004558	9
	10	35	30046.88	39.54558	-0.4587815	1	39.54824	-0.6646776	-1.488168E-005	0.0003676	9
	11	37	23859.38	39.93428	-0.6310257	1	39.93927	-0.9052898	-2.413039E-006	-8.603181E-005	9
	12	39	18984.38	40.31456	-0.8232399	1	40.32297	-1.169841	1.503241E-005	-0.0001391	9
	13	42	15046.87	40.69905	-1.041375	1	40.71238	-1.465719	-1.298414E-005	0.0003762	9
	14	44	11953.13	41.08331	-1.308419	1	41.10414	-1.824137	-1.180579E-005	0.000609	9
	15	46	9515.62	41.48872	-1.632535	1	41.52083	-2.253363	1.547074E-005	-0.0001025	9
	16	49	7546.875	41.89549	-2.023834	1	41.94435	-2.765621	-1.403733E-005	0.0005901	9
	17	51	5928.309	42.34375	-2.536977	1	42.41968	-3.428713	-3.546694E-006	0.0004619	9
	18	53	4733.456	42.78472	-3.132644	1	42.89925	-4.187653	-3.282971E-006	0.0004542	9
	19	56	3796.875	43.25647	-3.830127	1	43.42571	-5.060037	-9.197563E-006	0.0005419	9
	20	58	2987.132	43.7681	-4.779282	1	44.02827	-6.231753	-3.531228E-006	0.0004619	9
	21	60	2390.625	44.28612	-5.851891	1	44.67107	-7.527356	2.622417E-006	-0.0002271	9
	22	63	1884.191	44.86419	-7.304307	1	45.45491	-9.24715	-1.526558E-005	0.0004237	9
	23	65	1516.544	45.47446	-8.920394	1	46.34113	-11.09837	1.754644E-005	-0.0002146	9
	24	67	1193.986	46.18953	-11.11213	1	47.50739	-13.52698	1.845488E-005	-0.000337	9
	25	70	946.5144	46.96885	-13.75803	1	48.94238	-16.32627	8.700132E-006	-0.0003882	9
	26	72	751.7689	47.83398	-16.99827	1	50.76446	-19.56317	3.181607E-006	-0.0002646	9
	27	74	597.4265	48.8053	-21.02448	1	53.14119	-23.30554	-1.586778E-005	0.0005218	9
	28	77	477.4305	49.93064	-25.84187	1	56.22162	-27.36406	1.072473E-006	7.974709E-005	9
	29	79	376.6741	51.29337	-32.11458	1	60.5174	-32.05052	1.005283E-006	7.976438E-005	9
	30	81	298.2954	52.89174	-39.75323	1	66.16536	-36.92838	9.585873E-007	8.525921E-005	9
	31	84	237.7717	54.78008	-48.88853	1	73.42306	-41.74734	1.021392E-006	7.721781E-005	9
	32	86	189.0121	57.05783	-60.24007	1	82.97266	-46.55403	9.85917E-007	7.702673E-005	9
	33	88	150.2404	59.79198	-74.18037	1	95.2775	-51.12997	9.470181E-007	8.204927E-005	9
	34	91	119.1737	63.1113	-91.4922	1	111.1479	-55.4021	1.023801E-006	8.368687E-005	9
	35	93	95.0169	67.02371	-112.2513	1	130.7384	-59.15915	1.048844E-006	7.712306E-005	9
	36	96	75.60484	71.79507	-137.9532	1	155.5172	-62.50614	9.799215E-007	7.926708E-005	9
	37	98	54.50582	80.10061	-185.1216	1	201.708	-66.60226	1.008669E-006	7.296434E-005	9
	38	101	45.95588	85.65347	-215.999	1	232.3619	-68.36941	9.877327E-007	8.02826E-005	9
	39	103	37.20238	93.47121	-261.2652	1	277.4822	-70.31464	1.085909E-006	7.593315E-005	9
	40	105	30.04808	102.8714	-316.8105	1	333.0938	-72.01089	1.037902E-006	7.526585E-005	9
	41	108	23.91582	114.7735	-389.3165	1	405.8821	-73.57408	1.030859E-006	7.246238E-005	9
	42	110	18.60119	129.9259	-486.6068	1	503.6536	-75.05055	1.841347E-007	0.0006491	8
	43	113	15.02404	146.2491	-590.3765	1	608.2214	-76.08668	2.511213E-007	0.0006543	8
	44	115	12.01923	166.6574	-723.1106	1	742.0671	-77.0215	2.790624E-007	0.0006586	8
	45	117	9.450605	193.2637	-900.0428	1	920.5585	-77.88106	1.648697E-007	0.0007127	8
	46	120	7.512019	224.5077	-1109.681	1	1132.164	-78.56246	2.343805E-007	0.0006626	8
	47	123	5.978954	261.901	-1366.426	1	1391.298	-79.14978	2.456804E-007	0.0006521	8
	48	126	4.734848	310.0654	-1692.656	1	1720.821	-79.61949	2.642192E-007	0.0006399	8
	49	129	3.75601	367.7843	-2093.823	1	2125.878	-80.03751	2.367652E-007	0.00066	8
	50	132	3.004808	436.6266	-2569.648	1	2606.479	-80.35658	2.590883E-007	0.0006218	8
	51	136	2.372217	527.0678	-3197.084	1	3240.239	-80.63848	2.540056E-007	0.0005854	8
	52	140	1.878005	639.1144	-3964.969	1	4016.148	-80.84324	2.560442E-007	0.0006658	8
	53	145	1.512097	775.3756	-4853.356	1	4914.903	-80.92309	2.213939E-008	0.0005292	7
	54	150	1.201923	940.1208	-6011.907	1	6084.969	-81.11227	2.557011E-008	0.0006558	7
	55	157	0.956633	1147.068	-7432.939	1	7520.928	-81.22719	2.145164E-008	-1.098552E-005	7
