EXPLAIN
TAG	EISPOT
TITLE	LABEL	Potentiostatic EIS	Test Identifier
DATE	LABEL	8/3/2020	Date
TIME	LABEL	1:27:48	Time
NOTES	NOTES	1	Notes...
	
PSTAT	PSTAT	REF3000-16137	Potentiostat
VDC	POTEN	0.00000E+000	T	DC Voltage (V)
FREQINIT	QUANT	3.00000E+005	Initial Freq. (Hz)
FREQFINAL	QUANT	1.00000E+000	Final Freq. (Hz)
PTSPERDEC	QUANT	1.00000E+001	Points/decade
VAC	QUANT	5.00000E+001	AC Voltage (mV rms)
AREA	QUANT	1.00000E+000	Sample Area (cm^2)
SPEED	SELECTOR	2	Optimize for:
ZGUESS	QUANT	1.00000E+003	Estimated Z (ohms)
EOC	QUANT	0	Open Circuit (V)
SEQUENCER	TOGGLE	TRUE	Run as Sequence
PSTATMODEL	IQUANT	5	Pstat Model
PSTATSECTION	LABEL	REF3000-16137	Pstat Section
PSTATSERIALNO	LABEL	16137	Pstat Serial Number
CTRLMODE	IQUANT	1	Control Mode
IESTAB	IQUANT	0	I/E Stability
CASPEED	IQUANT	1	Control Amp Speed
CONVENTION	IQUANT	1	Current Convention
ICHRANGE	IQUANT	2	Ich Range
ICHRANGEMODE	TOGGLE	F	Ich Auto Range
ICHOFFSETENABLE	TOGGLE	T	Ich Offset Enable
ICHOFFSET	QUANT	0	Ich Offset (V)
ICHFILTER	IQUANT	3	Ich Filter
VCHRANGE	IQUANT	2	Vch Range
VCHRANGEMODE	TOGGLE	F	Vch Auto Range
VCHOFFSETENABLE	TOGGLE	T	Vch Offset Enable
VCHOFFSET	QUANT	0	Vch Offset (V)
VCHFILTER	IQUANT	3	Vch Filter
ACHRANGE	IQUANT	2	Ach Range
ACHOFFSETENABLE	TOGGLE	F	Ach Offset Enable
ACHOFFSET	QUANT	0	Ach Offset (V)
ACHFILTER	IQUANT	3	Ach Filter
IERANGELOWERLIMIT	IQUANT	2	I/E Range Lower Limit
IERANGEMODE	TOGGLE	F	I/E AutoRange
IERANGE	IQUANT	11	I/E Range
POSFEEDENABLE	TOGGLE	F	Positive Feedback IR Comp
POSFEEDRESISTANCE	QUANT	0	Positive Feedback Resistance (ohm)
ACHSELECT	IQUANT	0	Ach Select
CABLEID	IQUANT	13	Cable ID
DCCALDATE	LABEL	7/31/2020	DC Calibration Date
ACCALDATE	LABEL	7/31/2020	AC Calibration Date
THERMOSELECT	IQUANT	1	Thermo Select
FRAMEWORKVERSION	QUANT	6.33	Framework Version
INSTRUMENTVERSION	LABEL	3.50	Instrument Version
COMPLIANCEVOLTAGE	IQUANT	0	Compliance Voltage
ZCURVE	TABLE
	Pt	Time	Freq	Zreal	Zimag	Zsig	Zmod	Zphz	Idc	Vdc	IERange
	#	s	Hz	ohm	ohm	V	ohm	°	A	V	#
	0	14	300046.9	455.7721	-4223.064	1	4247.587	-83.84023	-9.445724E-005	0.0020822	9
	1	28	238359.4	512.0464	-5401.33	1	5425.546	-84.58454	-1.82375E-005	0.0014923	9
	2	42	189328.1	853.9652	-6556.458	1	6611.838	-82.57912	7.749176E-005	-0.0015751	9
	3	55	150421.9	1226.918	-8080.555	1	8173.169	-81.36639	7.493445E-005	-0.001428	9
	4	66	119484.4	1706.161	-9915.92	1	10061.63	-80.23712	4.914621E-005	-0.0023051	8
	5	74	94921.88	2341.53	-12338.44	1	12558.66	-79.25447	-1.950983E-006	0.0076493	8
	6	83	75421.88	2997.241	-15467.22	1	15754.95	-79.03313	-1.207022E-005	0.0100502	8
	7	92	59859.37	3380.457	-19480.61	1	19771.73	-80.15553	-2.484433E-005	0.0111227	8
	8	100	47578.12	7967.5	-24583.33	1	25842.24	-72.0424	-7.141136E-006	0.0186351	7
	9	108	37828.12	9680.91	-30106.35	1	31624.55	-72.17444	-1.766296E-006	0.0215403	7
	10	115	30046.88	8899.73	-36641.38	1	37706.71	-76.34794	2.691086E-005	-0.0074264	8
	11	124	23859.38	12596.2	-44235.54	1	45993.99	-74.10554	-9.711904E-006	-0.0020496	8
	12	130	18984.38	19107.81	-55527.28	1	58722.96	-71.01086	6.723851E-006	-0.0267593	7
	13	135	15046.87	24732.03	-69079.7	1	73373.55	-70.30153	4.957664E-006	-0.0010231	7
	14	141	11953.13	33180.92	-82760.27	1	89164.09	-68.15276	-2.652908E-005	0.0077088	8
	15	148	9515.62	35257.49	-100438.6	1	106447.2	-70.65714	1.598354E-005	-0.0092167	8
	16	156	7546.875	58946.18	-125859.1	1	138979	-64.90393	3.388284E-006	-0.0241028	7
	17	162	5928.309	72221.07	-162342.9	1	177682.6	-66.01728	5.23415E-006	-0.02643	7
	18	169	4733.456	92514.35	-177389.3	1	200064.6	-62.45647	-1.702538E-006	0.0216462	7
	19	175	3796.875	130754.4	-211062	1	248281.9	-58.2215	-7.302497E-006	0.0190422	7
	20	182	2987.132	158834.5	-207741.6	1	261505.2	-52.5993	-2.679842E-005	0.0096962	8
	21	189	2390.625	219698.1	-204670.9	1	300262.3	-42.97197	-1.507008E-006	-0.0049872	8
	22	198	1884.191	273563	-357946	1	450513.1	-52.61085	-3.691091E-006	0.0251326	7
	23	206	1516.544	362340.6	-341349.4	1	497805.3	-43.29137	-5.292493E-006	0.0265611	7
	24	212	1193.986	407413.3	-699823.8	1	809777.1	-59.79351	-6.704855E-006	0.0121319	7
	25	220	946.5144	143772.6	367753.7	1	394858.6	68.64708	8.319861E-006	0.004037	8
	26	227	751.7689	350902.2	-567261.1	1	667021.3	-58.25947	7.552677E-006	-0.0243035	7
	27	232	597.4265	331275.5	-507941.8	1	606422.6	-56.88794	4.981562E-006	-0.0011391	7
	28	237	477.4305	1010338	-677724	1	1216591	-33.85328	-1.138866E-007	0.0005969	7
	29	242	376.6741	1291798	-550518.3	1	1404213	-23.08197	-1.318396E-009	0.0006229	5
	30	244	298.2954	1417053	-524137.2	1	1510880	-20.29835	-1.417619E-009	0.0006518	5
	31	247	237.7717	1539128	-486152.2	1	1614081	-17.52936	-1.396112E-009	0.0006736	5
	32	249	189.0121	1664707	-460016	1	1727097	-15.44732	-1.282621E-009	0.0006595	5
	33	252	150.2404	1775947	-410772.9	1	1822834	-13.02337	-1.399176E-009	0.0006873	5
	34	255	119.1737	1875533	-348633	1	1907660	-10.53023	-1.316615E-009	0.0006379	5
	35	257	95.0169	2042477	-361697.1	1	2074256	-10.04226	-1.382419E-009	0.0006868	5
	36	260	75.60484	2162693	-328290.5	1	2187468	-8.631438	-1.352632E-009	0.000631	5
	37	263	54.50582	2316174	-279639	1	2332993	-6.884182	-1.344293E-009	0.000694	5
	38	266	45.95588	2447393	-271657.6	1	2462423	-6.333834	-1.289958E-009	0.0006316	5
	39	269	37.20238	2632257	-276471.9	1	2646736	-5.995922	-1.156251E-008	0.0006494	6
	40	273	30.04808	2834386	-243208.7	1	2844802	-4.904336	-1.302631E-009	0.000658	5
	41	277	23.91582	3052330	-228546.3	1	3060874	-4.282088	-1.345884E-009	0.0006954	5
	42	281	18.60119	3215670	-181656.7	1	3220797	-3.233265	-1.191471E-009	0.0006542	5
	43	283	15.02404	3345551	-181098.4	1	3350449	-3.09846	-1.325759E-009	0.0006483	5
	44	286	12.01923	3507675	-163776.6	1	3511496	-2.673251	-1.267885E-009	0.0006179	5
	45	288	9.450605	3684508	-145965	1	3687398	-2.268636	-1.254198E-009	0.0006072	5
	46	291	7.512019	3890202	-132390.6	1	3892454	-1.949127	-1.26708E-009	0.0006426	5
	47	294	5.978954	4174719	-45656.62	1	4174969	-0.6265876	-1.709242E-010	0.0007107	4
	48	298	4.734848	4484421	-53985.61	1	4484746	-0.6897207	-1.378529E-010	0.0006362	4
	49	302	3.75601	4880300	-63589.93	1	4880714	-0.7465174	-1.107961E-010	0.0007143	4
	50	308	3.004808	5443960	-75752.56	1	5444487	-0.7972178	-1.160538E-010	0.0006766	4
	51	314	2.372217	6011373	-76383.13	1	6011859	-0.727986	-1.456679E-010	0.0005805	4
	52	318	1.878005	6538037	-87703.54	1	6538625	-0.7685397	-1.053129E-010	0.0006695	4
	53	323	1.512097	7197728	-104372.8	1	7198485	-0.8307763	-1.038171E-010	0.00059	4
	54	328	1.201923	8063459	-111889	1	8064236	-0.7949883	-1.144985E-010	0.0007416	4
	55	335	0.956633	9105553	-152869.7	1	9106836	-0.961827	-1.916404E-010	8.43763E-005	4
