EXPLAIN
TAG	EISPOT
TITLE	LABEL	Potentiostatic EIS	Test Identifier
DATE	LABEL	8/3/2020	Date
TIME	LABEL	1:17:42	Time
NOTES	NOTES	1	Notes...
	
PSTAT	PSTAT	REF3000-16137	Potentiostat
VDC	POTEN	0.00000E+000	T	DC Voltage (V)
FREQINIT	QUANT	3.00000E+005	Initial Freq. (Hz)
FREQFINAL	QUANT	1.00000E+000	Final Freq. (Hz)
PTSPERDEC	QUANT	1.00000E+001	Points/decade
VAC	QUANT	5.00000E+001	AC Voltage (mV rms)
AREA	QUANT	1.00000E+000	Sample Area (cm^2)
SPEED	SELECTOR	2	Optimize for:
ZGUESS	QUANT	1.00000E+003	Estimated Z (ohms)
EOC	QUANT	0	Open Circuit (V)
SEQUENCER	TOGGLE	TRUE	Run as Sequence
PSTATMODEL	IQUANT	5	Pstat Model
PSTATSECTION	LABEL	REF3000-16137	Pstat Section
PSTATSERIALNO	LABEL	16137	Pstat Serial Number
CTRLMODE	IQUANT	1	Control Mode
IESTAB	IQUANT	0	I/E Stability
CASPEED	IQUANT	1	Control Amp Speed
CONVENTION	IQUANT	1	Current Convention
ICHRANGE	IQUANT	2	Ich Range
ICHRANGEMODE	TOGGLE	F	Ich Auto Range
ICHOFFSETENABLE	TOGGLE	T	Ich Offset Enable
ICHOFFSET	QUANT	0	Ich Offset (V)
ICHFILTER	IQUANT	3	Ich Filter
VCHRANGE	IQUANT	2	Vch Range
VCHRANGEMODE	TOGGLE	F	Vch Auto Range
VCHOFFSETENABLE	TOGGLE	T	Vch Offset Enable
VCHOFFSET	QUANT	0	Vch Offset (V)
VCHFILTER	IQUANT	3	Vch Filter
ACHRANGE	IQUANT	2	Ach Range
ACHOFFSETENABLE	TOGGLE	F	Ach Offset Enable
ACHOFFSET	QUANT	0	Ach Offset (V)
ACHFILTER	IQUANT	3	Ach Filter
IERANGELOWERLIMIT	IQUANT	2	I/E Range Lower Limit
IERANGEMODE	TOGGLE	F	I/E AutoRange
IERANGE	IQUANT	11	I/E Range
POSFEEDENABLE	TOGGLE	F	Positive Feedback IR Comp
POSFEEDRESISTANCE	QUANT	0	Positive Feedback Resistance (ohm)
ACHSELECT	IQUANT	0	Ach Select
CABLEID	IQUANT	13	Cable ID
DCCALDATE	LABEL	7/31/2020	DC Calibration Date
ACCALDATE	LABEL	7/31/2020	AC Calibration Date
THERMOSELECT	IQUANT	1	Thermo Select
FRAMEWORKVERSION	QUANT	6.33	Framework Version
INSTRUMENTVERSION	LABEL	3.50	Instrument Version
COMPLIANCEVOLTAGE	IQUANT	0	Compliance Voltage
ZCURVE	TABLE
	Pt	Time	Freq	Zreal	Zimag	Zsig	Zmod	Zphz	Idc	Vdc	IERange
	#	s	Hz	ohm	ohm	V	ohm	°	A	V	#
	0	7	300046.9	149.4715	-3.924623	1	149.523	-1.504051	1.498792E-005	-0.0017731	9
	1	10	238359.4	151.937	-3.422786	1	151.9755	-1.290522	1.916145E-005	-0.0006337	9
	2	13	189328.1	154.5509	-3.249565	1	154.585	-1.204515	-4.651575E-006	0.001195	9
	3	16	150421.9	156.8316	-2.933029	1	156.859	-1.071408	-5.685835E-005	0.0009352	9
	4	19	119484.4	159.2143	-2.436334	1	159.233	-0.8766845	-1.357069E-005	0.0012186	9
	5	21	94921.88	161.5523	-1.95884	1	161.5641	-0.6946837	-1.501566E-005	0.0008412	9
	6	24	75421.88	163.8739	-1.832061	1	163.8842	-0.6405229	-8.048836E-006	-0.0001375	9
	7	26	59859.37	166.2824	-1.697499	1	166.2911	-0.5848852	-7.788858E-006	0.0007358	9
	8	29	47578.12	168.6534	-1.673994	1	168.6617	-0.5686791	-1.521822E-005	0.0001346	9
	9	31	37828.12	171.2405	-1.58125	1	171.2478	-0.5290595	-9.331429E-006	2.635005E-006	9
	10	34	30046.88	173.5738	-1.62903	1	173.5814	-0.5377184	-1.504815E-005	0.0002482	9
	11	36	23859.38	175.92	-1.701728	1	175.9282	-0.5542223	1.46831E-005	-0.0007381	9
	12	39	18984.38	178.2941	-1.693428	1	178.3021	-0.5441759	2.744347E-005	-0.0005953	9
	13	41	15046.87	180.7532	-1.757295	1	180.7618	-0.5570158	-9.078403E-006	0.0009269	9
	14	43	11953.13	183.0269	-1.964639	1	183.0374	-0.6149983	-1.903525E-005	0.00097	9
	15	46	9515.62	185.5109	-2.666217	1	185.5301	-0.823415	2.041631E-005	-0.0006819	9
	16	48	7546.875	187.7926	-2.985875	1	187.8164	-0.9109176	-1.790729E-005	0.0003423	9
	17	50	5928.309	190.4618	-3.660029	1	190.4969	-1.100895	5.626891E-007	0.0005968	9
	18	53	4733.456	193.0369	-4.096357	1	193.0803	-1.215668	1.086216E-005	0.0002542	9
	19	55	3796.875	196.1187	-5.185282	1	196.1872	-1.51452	1.647132E-005	-0.0007676	9
	20	57	2987.132	198.5377	-6.209103	1	198.6348	-1.791294	-1.202011E-006	-0.0003454	9
	21	60	2390.625	201.2201	-7.387402	1	201.3556	-2.102558	-1.994986E-005	0.0009206	9
	22	62	1884.191	204.2089	-9.92009	1	204.4497	-2.781135	1.125026E-005	0.0002601	9
	23	64	1516.544	207.3652	-11.41669	1	207.6792	-3.151293	1.491238E-005	-0.0007304	9
	24	67	1193.986	210.4817	-14.1208	1	210.9548	-3.838109	-2.102027E-005	0.0009479	9
	25	69	946.5144	213.9432	-17.78591	1	214.6813	-4.752288	2.303938E-005	-0.0001883	9
	26	71	751.7689	217.4529	-21.84918	1	218.5478	-5.737694	1.489578E-005	-0.0007374	9
	27	74	597.4265	221.2178	-26.9758	1	222.8565	-6.952452	-2.136069E-005	0.0009653	9
	28	76	477.4305	224.759	-33.021	1	227.1717	-8.357953	8.504358E-007	8.00249E-005	9
	29	78	376.6741	228.87	-41.05996	1	232.524	-10.17084	8.498273E-007	7.874874E-005	9
	30	81	298.2954	233.3185	-50.89583	1	238.8052	-12.30566	8.760415E-007	7.58236E-005	9
	31	83	237.7717	238.2465	-62.7473	1	246.3709	-14.755	9.151158E-007	7.950592E-005	9
	32	85	189.0121	243.6605	-77.52845	1	255.6973	-17.65015	9.506438E-007	7.910698E-005	9
	33	88	150.2404	249.6857	-95.777	1	267.4251	-20.98632	9.117148E-007	7.724472E-005	9
	34	90	119.1737	256.566	-118.5106	1	282.6144	-24.79273	9.05081E-007	8.399942E-005	9
	35	93	95.0169	264.3083	-145.8613	1	301.8847	-28.89258	9.505573E-007	6.742435E-005	9
	36	95	75.60484	273.4511	-179.7722	1	327.2515	-33.32171	8.0923E-007	7.406406E-005	9
	37	98	54.50582	287.462	-241.963	1	375.7399	-40.08805	8.455935E-007	7.423389E-005	9
	38	100	45.95588	296.746	-281.5161	1	409.0348	-43.49132	-8.863292E-008	0.0006545	8
	39	102	37.20238	310.3654	-340.8782	1	461.0039	-47.68253	-8.458439E-008	0.0006593	8
	40	105	30.04808	326.4987	-413.5541	1	526.9045	-51.7091	-8.368191E-008	0.0006579	8
	41	107	23.91582	346.4674	-508.083	1	614.97	-55.70949	-5.457244E-008	0.0006524	8
	42	110	18.60119	372.0866	-637.1486	1	737.8393	-59.71562	-1.162314E-007	0.0006842	8
	43	112	15.02404	398.945	-772.3076	1	869.2618	-62.68083	-4.55987E-008	0.000675	8
	44	114	12.01923	432.0612	-944.2262	1	1038.383	-65.41201	-8.162349E-008	0.00065	8
	45	117	9.450605	474.218	-1172.592	1	1264.854	-67.98067	-5.632234E-008	0.0006474	8
	46	119	7.512019	523.0377	-1442.688	1	1534.574	-70.0722	-9.717505E-008	0.000649	8
	47	122	5.978954	582.1422	-1772.546	1	1865.693	-71.81871	-7.262567E-008	0.0006596	8
	48	125	4.734848	653.7478	-2190.409	1	2285.887	-73.38178	-1.028441E-007	0.000642	8
	49	128	3.75601	741.6917	-2702.24	1	2802.179	-74.65183	-9.779442E-008	0.0006934	8
	50	132	3.004808	842.9377	-3310.281	1	3415.919	-75.71369	-6.735223E-008	0.0006475	8
	51	135	2.372217	977.692	-4106.85	1	4221.623	-76.60921	-1.011044E-007	0.0006034	8
	52	140	1.878005	1133.209	-5108	1	5232.191	-77.49152	-1.041809E-008	0.0006259	7
	53	144	1.512097	1301.294	-6232.688	1	6367.085	-78.20689	-2.83329E-008	0.0006892	7
	54	150	1.201923	1539.993	-7728.561	1	7880.497	-78.73084	-1.577185E-008	0.0006388	7
	55	156	0.956633	1819.099	-9555.58	1	9727.19	-79.22155	-3.11546E-008	-9.190291E-006	7
