EXPLAIN
TAG	EISPOT
TITLE	LABEL	Potentiostatic EIS	Test Identifier
DATE	LABEL	10/5/2021	Date
TIME	LABEL	14:03:36	Time
NOTES	NOTES	1	Notes...
	
PSTAT	PSTAT	REF3000-16137	Potentiostat
VDC	POTEN	0.00000E+000	T	DC Voltage (V)
FREQINIT	QUANT	3.00000E+005	Initial Freq. (Hz)
FREQFINAL	QUANT	1.00000E+000	Final Freq. (Hz)
PTSPERDEC	QUANT	1.00000E+001	Points/decade
VAC	QUANT	5.00000E+001	AC Voltage (mV rms)
AREA	QUANT	1.00000E+000	Sample Area (cm^2)
SPEED	SELECTOR	2	Optimize for:
ZGUESS	QUANT	1.00000E+003	Estimated Z (ohms)
EOC	QUANT	0	Open Circuit (V)
SEQUENCER	TOGGLE	TRUE	Run as Sequence
PSTATMODEL	IQUANT	5	Pstat Model
PSTATSECTION	LABEL	REF3000-16137	Pstat Section
PSTATSERIALNO	LABEL	16137	Pstat Serial Number
CTRLMODE	IQUANT	1	Control Mode
IESTAB	IQUANT	0	I/E Stability
CASPEED	IQUANT	1	Control Amp Speed
CONVENTION	IQUANT	1	Current Convention
ICHRANGE	IQUANT	2	Ich Range
ICHRANGEMODE	TOGGLE	F	Ich Auto Range
ICHOFFSETENABLE	TOGGLE	T	Ich Offset Enable
ICHOFFSET	QUANT	0	Ich Offset (V)
ICHFILTER	IQUANT	3	Ich Filter
VCHRANGE	IQUANT	2	Vch Range
VCHRANGEMODE	TOGGLE	F	Vch Auto Range
VCHOFFSETENABLE	TOGGLE	T	Vch Offset Enable
VCHOFFSET	QUANT	0	Vch Offset (V)
VCHFILTER	IQUANT	3	Vch Filter
ACHRANGE	IQUANT	2	Ach Range
ACHOFFSETENABLE	TOGGLE	F	Ach Offset Enable
ACHOFFSET	QUANT	0	Ach Offset (V)
ACHFILTER	IQUANT	3	Ach Filter
IERANGELOWERLIMIT	IQUANT	2	I/E Range Lower Limit
IERANGEMODE	TOGGLE	F	I/E AutoRange
IERANGE	IQUANT	11	I/E Range
POSFEEDENABLE	TOGGLE	F	Positive Feedback IR Comp
POSFEEDRESISTANCE	QUANT	0	Positive Feedback Resistance (ohm)
ACHSELECT	IQUANT	0	Ach Select
CABLEID	IQUANT	13	Cable ID
DCCALDATE	LABEL	9/10/2021	DC Calibration Date
ACCALDATE	LABEL	9/10/2021	AC Calibration Date
THERMOSELECT	IQUANT	1	Thermo Select
FRAMEWORKVERSION	QUANT	6.33	Framework Version
INSTRUMENTVERSION	LABEL	3.50	Instrument Version
COMPLIANCEVOLTAGE	IQUANT	0	Compliance Voltage
ZCURVE	TABLE
	Pt	Time	Freq	Zreal	Zimag	Zsig	Zmod	Zphz	Idc	Vdc	IERange
	#	s	Hz	ohm	ohm	V	ohm	°	A	V	#
	0	10	300046.9	2.916655	2.248519	1	3.682759	37.62949	-1.193863E-005	-0.0009724	10
	1	13	238359.4	2.89171	1.786415	1	3.399009	31.70658	2.438396E-005	-0.0013078	10
	2	16	189328.1	2.962305	1.185036	1	3.190542	21.80331	-0.0001869	-0.0010921	12
	3	20	150421.9	2.870389	1.079782	1	3.066767	20.61527	-8.81606E-005	-2.857567E-005	11
	4	23	119484.4	2.86464	0.8414863	1	2.985677	16.37012	-0.000183	0.0000954	11
	5	25	94921.88	2.861214	0.6366091	1	2.93118	12.54376	-8.267185E-005	0.000189	11
	6	28	75421.88	2.86095	0.4689876	1	2.899135	9.309539	-2.261851E-005	0.0002912	11
	7	30	59859.37	2.861686	0.3258353	1	2.880176	6.495799	-7.18649E-005	0.0002512	11
	8	33	47578.12	2.865738	0.2015629	1	2.872818	4.023297	-2.374773E-005	0.0003296	11
	9	35	37828.12	2.870863	0.0892956	1	2.872252	1.781559	-4.604246E-005	0.0003079	11
	10	38	30046.88	2.878073	-0.0176529	1	2.878128	-0.3514242	-2.375239E-005	0.0003636	11
	11	40	23859.38	2.887031	-0.124232	1	2.889703	-2.463978	-4.349544E-005	0.0003632	11
	12	43	18984.38	2.897115	-0.2349675	1	2.906628	-4.636764	-2.44743E-005	0.0003945	11
	13	45	15046.87	2.908914	-0.3577871	1	2.930835	-7.011979	-3.447417E-005	0.0003752	11
	14	47	11953.13	2.923533	-0.4959015	1	2.965293	-9.62711	-8.433738E-005	0.0002988	11
	15	50	9515.62	2.942214	-0.654379	1	3.014107	-12.53908	-7.440549E-005	0.0003638	11
	16	52	7546.875	2.964186	-0.8464445	1	3.082672	-15.93707	-9.190634E-005	0.0003368	11
	17	54	5928.309	2.99355	-1.087756	1	3.185051	-19.96945	-2.480557E-005	0.0003845	11
	18	57	4733.456	3.028459	-1.362125	1	3.320685	-24.21702	-7.417128E-005	0.00035	11
	19	59	3796.875	3.07143	-1.686492	1	3.503989	-28.77075	-5.967247E-005	0.000376	11
	20	61	2987.132	3.130647	-2.123366	1	3.782808	-34.14714	-8.662187E-006	-0.0001321	10
	21	63	2390.625	3.196059	-2.620843	1	4.133233	-39.35256	-2.865772E-006	-0.0001512	10
	22	66	1884.191	3.285856	-3.273901	1	4.638456	-44.89557	6.96786E-006	-0.0001566	10
	23	68	1516.544	3.388561	-4.007	1	5.247704	-49.78013	5.992316E-006	-0.0001595	10
	24	70	1193.986	3.53042	-5.00003	1	6.120798	-54.77485	2.204772E-005	-0.0001422	10
	25	73	946.5144	3.703357	-6.196652	1	7.218957	-59.13585	2.338012E-005	-0.0001396	10
	26	75	751.7689	3.92673	-7.653345	1	8.601912	-62.83883	7.719897E-006	-0.0001406	10
	27	78	597.4265	4.211502	-9.442237	1	10.33889	-65.96179	-1.418014E-005	-0.0001676	10
	28	80	477.4305	4.555096	-11.59152	1	12.4544	-68.54675	-4.868082E-008	-0.0001178	10
	29	82	376.6741	5.013175	-14.37758	1	15.22651	-70.77735	-5.746653E-007	-0.0001185	10
	30	85	298.2954	5.58489	-17.76848	1	18.62552	-72.55132	-1.788678E-007	-0.0001158	10
	31	87	237.7717	6.291441	-21.81992	1	22.70884	-73.91589	-8.834858E-007	-0.0001199	10
	32	89	189.0121	7.200608	-26.85199	1	27.80069	-74.98878	-3.990361E-007	-0.0001195	10
	33	92	150.2404	8.370209	-33.03191	1	34.07591	-75.78069	-1.132488E-006	-0.0001185	10
	34	94	119.1737	9.89519	-40.67776	1	41.86401	-76.3279	-1.239506E-006	-0.0001165	10
	35	96	95.0169	11.80674	-49.75133	1	51.1331	-76.64982	1.09436E-006	-0.0001309	9
	36	99	75.60484	14.32239	-60.95584	1	62.61586	-76.77744	1.274176E-006	-0.0001737	9
	37	102	54.50582	19.24458	-81.28551	1	83.53256	-76.68031	8.934243E-007	-0.0001382	9
	38	104	45.95588	22.63081	-94.33365	1	97.0103	-76.50958	1.153395E-006	-0.0001314	9
	39	106	37.20238	27.77664	-113.16	1	116.5192	-76.20865	1.218475E-006	-0.0001325	9
	40	109	30.04808	34.31087	-135.8559	1	140.1216	-75.82615	9.905949E-007	-0.000131	9
	41	111	23.91582	42.95027	-164.5118	1	170.0261	-75.368	7.966137E-007	-0.0001336	9
	42	114	18.60119	55.01321	-202.9018	1	210.2275	-74.82998	1.162914E-006	-0.0001423	9
	43	116	15.02404	67.60318	-242.0241	1	251.2884	-74.39366	9.874069E-007	-0.0001385	9
	44	118	12.01923	83.80206	-290.6729	1	302.5121	-73.91754	1.184145E-006	-0.0001315	9
	45	121	9.450605	105.3283	-353.7611	1	369.1084	-73.41972	8.837922E-007	-0.0001291	9
	46	123	7.512019	130.4122	-425.1825	1	444.7331	-72.94814	8.837006E-007	-0.0001399	8
	47	126	5.978954	162.8224	-512.29	1	537.5427	-72.36806	9.686594E-007	-0.0001204	8
	48	129	4.734848	205.5128	-619.5955	1	652.7894	-71.6499	7.959629E-007	-0.0001481	8
	49	132	3.75601	261.8353	-746.8149	1	791.385	-70.67919	1.115612E-006	-0.0001012	8
	50	136	3.004808	332.9682	-890.7916	1	950.988	-69.50481	1.024717E-006	-0.0001366	8
	51	139	2.372217	433.1703	-1067.075	1	1151.645	-67.90571	9.859446E-007	-0.0001381	8
	52	143	1.878005	565.043	-1269.099	1	1389.203	-65.99985	1.080711E-006	-0.0001254	8
	53	148	1.512097	716.7812	-1473.344	1	1638.45	-64.0571	1.00348E-006	-7.507014E-005	8
	54	154	1.201923	924.9814	-1709.833	1	1943.996	-61.58761	1.049819E-006	-0.0001085	8
	55	160	0.956633	1173.377	-1955.726	1	2280.719	-59.0375	7.44427E-007	-0.0006678	8
