EXPLAIN
TAG	EISPOT
TITLE	LABEL	Potentiostatic EIS	Test Identifier
DATE	LABEL	10/5/2021	Date
TIME	LABEL	15:12:30	Time
NOTES	NOTES	1	Notes...
	
PSTAT	PSTAT	REF3000-16137	Potentiostat
VDC	POTEN	0.00000E+000	T	DC Voltage (V)
FREQINIT	QUANT	3.00000E+005	Initial Freq. (Hz)
FREQFINAL	QUANT	1.00000E+000	Final Freq. (Hz)
PTSPERDEC	QUANT	1.00000E+001	Points/decade
VAC	QUANT	5.00000E+001	AC Voltage (mV rms)
AREA	QUANT	1.00000E+000	Sample Area (cm^2)
SPEED	SELECTOR	2	Optimize for:
ZGUESS	QUANT	1.00000E+003	Estimated Z (ohms)
EOC	QUANT	0	Open Circuit (V)
SEQUENCER	TOGGLE	TRUE	Run as Sequence
PSTATMODEL	IQUANT	5	Pstat Model
PSTATSECTION	LABEL	REF3000-16137	Pstat Section
PSTATSERIALNO	LABEL	16137	Pstat Serial Number
CTRLMODE	IQUANT	1	Control Mode
IESTAB	IQUANT	0	I/E Stability
CASPEED	IQUANT	1	Control Amp Speed
CONVENTION	IQUANT	1	Current Convention
ICHRANGE	IQUANT	2	Ich Range
ICHRANGEMODE	TOGGLE	F	Ich Auto Range
ICHOFFSETENABLE	TOGGLE	T	Ich Offset Enable
ICHOFFSET	QUANT	0	Ich Offset (V)
ICHFILTER	IQUANT	3	Ich Filter
VCHRANGE	IQUANT	2	Vch Range
VCHRANGEMODE	TOGGLE	F	Vch Auto Range
VCHOFFSETENABLE	TOGGLE	T	Vch Offset Enable
VCHOFFSET	QUANT	0	Vch Offset (V)
VCHFILTER	IQUANT	3	Vch Filter
ACHRANGE	IQUANT	2	Ach Range
ACHOFFSETENABLE	TOGGLE	F	Ach Offset Enable
ACHOFFSET	QUANT	0	Ach Offset (V)
ACHFILTER	IQUANT	3	Ach Filter
IERANGELOWERLIMIT	IQUANT	2	I/E Range Lower Limit
IERANGEMODE	TOGGLE	F	I/E AutoRange
IERANGE	IQUANT	11	I/E Range
POSFEEDENABLE	TOGGLE	F	Positive Feedback IR Comp
POSFEEDRESISTANCE	QUANT	0	Positive Feedback Resistance (ohm)
ACHSELECT	IQUANT	0	Ach Select
CABLEID	IQUANT	13	Cable ID
DCCALDATE	LABEL	9/10/2021	DC Calibration Date
ACCALDATE	LABEL	9/10/2021	AC Calibration Date
THERMOSELECT	IQUANT	1	Thermo Select
FRAMEWORKVERSION	QUANT	6.33	Framework Version
INSTRUMENTVERSION	LABEL	3.50	Instrument Version
COMPLIANCEVOLTAGE	IQUANT	0	Compliance Voltage
ZCURVE	TABLE
	Pt	Time	Freq	Zreal	Zimag	Zsig	Zmod	Zphz	Idc	Vdc	IERange
	#	s	Hz	ohm	ohm	V	ohm	°	A	V	#
	0	20	300046.9	1427.598	-821.2388	1	1646.957	-29.91006	-1.221866E-006	0.0011554	9
	1	36	238359.4	1609.86	-809.874	1	1802.094	-26.70565	-5.706693E-006	-0.0019982	9
	2	50	189328.1	1854.881	-767.0328	1	2007.217	-22.46614	2.072628E-005	-0.0012234	9
	3	61	150421.9	1951.193	-728.3235	1	2082.692	-20.46914	2.514966E-005	-0.0017487	9
	4	67	119484.4	2115.097	-575.186	1	2191.911	-15.21329	-3.89905E-006	0.0138016	8
	5	74	94921.88	2217.271	-510.3207	1	2275.24	-12.96132	4.697747E-006	-0.0070399	8
	6	77	75421.88	2314.53	-436.1887	1	2355.272	-10.6726	-2.23131E-005	0.0047474	8
	7	84	59859.37	2396.959	-382.2802	1	2427.252	-9.06153	-1.565367E-005	0.0091547	8
	8	88	47578.12	2480.795	-371.5504	1	2508.464	-8.517918	-1.100967E-005	-0.000346	9
	9	95	37828.12	2562.739	-295.2343	1	2579.689	-6.571657	2.43007E-005	-0.0078657	8
	10	103	30046.88	2666.355	-246.515	1	2677.727	-5.282205	-1.079293E-005	-0.0017979	8
	11	110	23859.38	2763.092	-228.2584	1	2772.504	-4.72247	-9.336731E-007	0.0004696	9
	12	115	18984.38	2817.73	-182.9745	1	2823.664	-3.71539	1.880372E-005	-0.0095361	8
	13	121	15046.87	2877.652	-147.7122	1	2881.441	-2.93846	-1.653853E-005	0.0007724	8
	14	126	11953.13	2947.207	-123.4465	1	2949.791	-2.398485	-2.388443E-005	0.0084077	8
	15	131	9515.62	3013.173	-116.4411	1	3015.422	-2.213038	-1.611657E-005	0.0093743	8
	16	137	7546.875	3087.36	-113.2983	1	3089.438	-2.101668	-2.4927E-005	0.0003174	9
	17	142	5928.309	3163.739	-102.7991	1	3165.408	-1.861053	1.279335E-005	-0.0089685	8
	18	148	4733.456	3229.133	-70.49879	1	3229.902	-1.250689	2.443306E-005	-0.0061531	8
	19	153	3796.875	3287.668	-62.58001	1	3288.263	-1.09048	3.81005E-007	0.0056785	8
	20	158	2987.132	3364.771	-75.1448	1	3365.611	-1.279363	-2.728465E-005	0.0005353	9
	21	164	2390.625	3445.157	-50.27938	1	3445.524	-0.8361279	8.317439E-006	-0.000982	9
	22	169	1884.191	3491.317	-60.79282	1	3491.846	-0.997566	9.81952E-006	0.002276	8
	23	174	1516.544	3578.242	-14.24155	1	3578.271	-0.2280383	2.465567E-005	-0.0061826	8
	24	180	1193.986	3659.131	-83.4086	1	3660.081	-1.305811	2.395272E-005	-0.0011681	9
	25	185	946.5144	3763.478	-44.55625	1	3763.741	-0.6782998	-1.975243E-005	0.000942	9
	26	189	751.7689	3849.369	-19.46196	1	3849.418	-0.2896783	-2.098953E-005	0.0029194	8
	27	193	597.4265	3863.829	-41.37296	1	3864.051	-0.6134861	8.039154E-006	-0.0009761	9
	28	197	477.4305	3881.972	-39.0363	1	3882.168	-0.576135	-4.901315E-007	-0.0001214	8
	29	199	376.6741	3933.482	-38.36762	1	3933.669	-0.5588517	-9.564368E-008	-0.0001571	7
	30	201	298.2954	3968.274	-45.07777	1	3968.53	-0.6508258	-9.930868E-008	-0.0000973	7
	31	204	237.7717	4010.159	-54.0682	1	4010.524	-0.7724611	-1.042508E-007	-6.824837E-005	7
	32	206	189.0121	4048.739	-65.43002	1	4049.268	-0.9258531	-1.109811E-007	-0.0001385	7
	33	208	150.2404	4090.043	-79.95851	1	4090.825	-1.119964	-1.167333E-007	-8.682787E-005	7
	34	211	119.1737	4132.602	-97.6811	1	4133.756	-1.354031	-1.254503E-007	-7.38105E-005	7
	35	213	95.0169	4174.152	-119.2831	1	4175.856	-1.636873	-9.986401E-008	-0.0001365	7
	36	216	75.60484	4220.769	-146.3474	1	4223.305	-1.985831	-7.40867E-008	-0.000138	7
	37	218	54.50582	4271.792	-196.3439	1	4276.302	-2.631627	-7.566047E-008	-0.0001527	7
	38	221	45.95588	4315.706	-230.7903	1	4321.873	-3.061081	-1.244636E-007	-0.0001317	7
	39	223	37.20238	4362.199	-281.0547	1	4371.244	-3.686448	-1.491251E-007	-0.0001488	7
	40	226	30.04808	4413.934	-339.8179	1	4426.996	-4.402376	-4.570455E-008	-7.300624E-005	7
	41	228	23.91582	4456.94	-419.0333	1	4476.595	-5.371055	1.449852E-008	-7.684745E-005	7
	42	230	18.60119	4512.96	-536.3013	1	4544.715	-6.777009	2.346535E-008	-0.000148	7
	43	233	15.02404	4581.912	-646.9528	1	4627.361	-8.036871	8.708745E-008	-0.000149	7
	44	235	12.01923	4631.827	-784.8586	1	4697.853	-9.61736	5.719051E-008	-0.0001499	7
	45	237	9.450605	4702.437	-996.457	1	4806.853	-11.96413	-9.178223E-008	-0.0001565	7
	46	240	7.512019	4763.184	-1238.239	1	4921.499	-14.57209	-2.253227E-007	-0.0001519	7
	47	243	5.978954	4871.063	-1529.055	1	5105.416	-17.42738	-1.122686E-007	-0.0001568	7
	48	246	4.734848	4973.95	-1898.179	1	5323.839	-20.88806	-1.367873E-007	-0.0001425	7
	49	249	3.75601	5109.036	-2352.182	1	5624.5	-24.72118	-1.009719E-007	-0.0001548	7
	50	252	3.004808	5252.631	-2891.224	1	5995.774	-28.82986	-8.295717E-008	-0.0001619	7
	51	256	2.372217	5438.036	-3596.496	1	6519.741	-33.47903	-1.150451E-007	-0.0001414	7
	52	260	1.878005	5657.186	-4459.067	1	7203.265	-38.24564	-1.119036E-007	-0.0001031	7
	53	265	1.512097	5913.398	-5438.063	1	8033.729	-42.60217	-1.066861E-007	-0.0002109	7
	54	271	1.201923	6230.478	-6723.812	1	9166.706	-47.18093	-1.06201E-007	-9.321087E-005	7
	55	277	0.956633	6608.874	-8294.957	1	10605.83	-51.45448	-1.079548E-007	-0.0006553	7
