EXPLAIN
TAG	EISPOT
TITLE	LABEL	Potentiostatic EIS	Test Identifier
DATE	LABEL	10/5/2021	Date
TIME	LABEL	13:32:13	Time
NOTES	NOTES	1	Notes...
	
PSTAT	PSTAT	REF3000-16137	Potentiostat
VDC	POTEN	0.00000E+000	T	DC Voltage (V)
FREQINIT	QUANT	3.00000E+005	Initial Freq. (Hz)
FREQFINAL	QUANT	1.00000E+000	Final Freq. (Hz)
PTSPERDEC	QUANT	1.00000E+001	Points/decade
VAC	QUANT	5.00000E+001	AC Voltage (mV rms)
AREA	QUANT	1.00000E+000	Sample Area (cm^2)
SPEED	SELECTOR	2	Optimize for:
ZGUESS	QUANT	1.00000E+003	Estimated Z (ohms)
EOC	QUANT	0	Open Circuit (V)
SEQUENCER	TOGGLE	TRUE	Run as Sequence
PSTATMODEL	IQUANT	5	Pstat Model
PSTATSECTION	LABEL	REF3000-16137	Pstat Section
PSTATSERIALNO	LABEL	16137	Pstat Serial Number
CTRLMODE	IQUANT	1	Control Mode
IESTAB	IQUANT	0	I/E Stability
CASPEED	IQUANT	1	Control Amp Speed
CONVENTION	IQUANT	1	Current Convention
ICHRANGE	IQUANT	2	Ich Range
ICHRANGEMODE	TOGGLE	F	Ich Auto Range
ICHOFFSETENABLE	TOGGLE	T	Ich Offset Enable
ICHOFFSET	QUANT	0	Ich Offset (V)
ICHFILTER	IQUANT	3	Ich Filter
VCHRANGE	IQUANT	2	Vch Range
VCHRANGEMODE	TOGGLE	F	Vch Auto Range
VCHOFFSETENABLE	TOGGLE	T	Vch Offset Enable
VCHOFFSET	QUANT	0	Vch Offset (V)
VCHFILTER	IQUANT	3	Vch Filter
ACHRANGE	IQUANT	2	Ach Range
ACHOFFSETENABLE	TOGGLE	F	Ach Offset Enable
ACHOFFSET	QUANT	0	Ach Offset (V)
ACHFILTER	IQUANT	3	Ach Filter
IERANGELOWERLIMIT	IQUANT	2	I/E Range Lower Limit
IERANGEMODE	TOGGLE	F	I/E AutoRange
IERANGE	IQUANT	11	I/E Range
POSFEEDENABLE	TOGGLE	F	Positive Feedback IR Comp
POSFEEDRESISTANCE	QUANT	0	Positive Feedback Resistance (ohm)
ACHSELECT	IQUANT	0	Ach Select
CABLEID	IQUANT	13	Cable ID
DCCALDATE	LABEL	9/10/2021	DC Calibration Date
ACCALDATE	LABEL	9/10/2021	AC Calibration Date
THERMOSELECT	IQUANT	1	Thermo Select
FRAMEWORKVERSION	QUANT	6.33	Framework Version
INSTRUMENTVERSION	LABEL	3.50	Instrument Version
COMPLIANCEVOLTAGE	IQUANT	0	Compliance Voltage
ZCURVE	TABLE
	Pt	Time	Freq	Zreal	Zimag	Zsig	Zmod	Zphz	Idc	Vdc	IERange
	#	s	Hz	ohm	ohm	V	ohm	°	A	V	#
	0	10	300046.9	1.756794	2.234385	1	2.842324	51.82367	2.333934E-005	-0.0007704	11
	1	13	238359.4	1.842227	1.630264	1	2.459992	41.50697	-0.0003025	-0.0012055	12
	2	17	189328.1	1.759435	1.295137	1	2.184717	36.35714	-0.0003336	-0.0008734	12
	3	21	150421.9	1.660658	1.115011	1	2.000258	33.87849	-0.0001627	-0.000146	11
	4	24	119484.4	1.645033	0.8607189	1	1.856602	27.61959	2.74113E-005	-0.000119	11
	5	26	94921.88	1.638734	0.6611449	1	1.767078	21.97153	-8.166911E-005	3.859015E-005	11
	6	29	75421.88	1.634139	0.4920435	1	1.70661	16.75718	-3.303257E-005	0.0001066	11
	7	31	59859.37	1.632791	0.3516279	1	1.670224	12.15326	-7.590779E-005	0.0001573	11
	8	34	47578.12	1.634127	0.2301584	1	1.650255	8.017085	-7.672391E-005	0.0002013	11
	9	36	37828.12	1.636068	0.1211643	1	1.640548	4.235491	-4.060214E-005	0.0002599	11
	10	39	30046.88	1.640009	0.0193964	1	1.640124	0.6776056	-6.131535E-005	0.0002777	11
	11	41	23859.38	1.644823	-0.0805074	1	1.646793	-2.802158	-2.878661E-005	0.0003098	11
	12	44	18984.38	1.652391	-0.181774	1	1.662359	-6.277676	-3.300516E-005	0.0003365	11
	13	46	15046.87	1.661786	-0.2923765	1	1.687311	-9.97855	-5.208948E-005	0.000318	11
	14	48	11953.13	1.674315	-0.4143468	1	1.724823	-13.89986	-7.026768E-005	0.000326	11
	15	51	9515.62	1.688789	-0.553186	1	1.777083	-18.13692	-2.494323E-005	0.0003455	11
	16	53	7546.875	1.70834	-0.7197564	1	1.853773	-22.84663	-4.412137E-005	0.0003368	11
	17	55	5928.309	1.73399	-0.9271902	1	1.966317	-28.13408	-2.070923E-005	0.0003439	11
	18	58	4733.456	1.764902	-1.161984	1	2.113075	-33.36028	-4.709772E-005	0.0003354	11
	19	60	3796.875	1.802551	-1.439269	1	2.306661	-38.60604	-5.093321E-005	0.0002972	11
	20	62	2987.132	1.855014	-1.808975	1	2.591036	-44.28009	-2.117786E-005	0.0003557	11
	21	64	2390.625	1.91696	-2.230077	1	2.940745	-49.31785	-0.0001033	0.0002945	11
	22	67	1884.191	2.002333	-2.781202	1	3.427014	-54.24791	-8.967941E-005	0.0003128	11
	23	69	1516.544	2.099994	-3.395787	1	3.992661	-58.26687	-9.370321E-005	0.0003593	11
	24	71	1193.986	2.236487	-4.228234	1	4.783288	-62.1238	-1.156611E-005	-0.0001578	10
	25	74	946.5144	2.402204	-5.226291	1	5.751931	-65.31467	1.708375E-005	-0.0001846	10
	26	76	751.7689	2.612651	-6.439424	1	6.949253	-67.91625	-2.462986E-005	-0.0001582	10
	27	79	597.4265	2.881117	-7.922383	1	8.430005	-70.0153	1.400349E-005	-0.0001926	10
	28	81	477.4305	3.214469	-9.70571	1	10.22416	-71.67545	-6.696507E-008	-0.0001593	10
	29	83	376.6741	3.66441	-12.00643	1	12.55317	-73.0276	-2.529365E-006	-0.0001358	10
	30	86	298.2954	4.236646	-14.79366	1	15.38836	-74.01921	3.378045E-008	-0.0001535	10
	31	88	237.7717	4.955187	-18.10194	1	18.7679	-74.691	-2.329811E-006	-0.0001431	10
	32	90	189.0121	5.893228	-22.18075	1	22.95029	-75.12078	3.636137E-007	-0.0001633	10
	33	93	150.2404	7.108486	-27.13281	1	28.04853	-75.31911	-2.320424E-006	-0.0001452	10
	34	95	119.1737	8.699986	-33.2077	1	34.32843	-75.31919	-7.888733E-007	-0.0001569	10
	35	98	95.0169	10.70398	-40.36027	1	41.75555	-75.14648	-1.146601E-006	-0.0001588	10
	36	100	75.60484	13.26825	-48.96074	1	50.72673	-74.83716	1.755547E-006	-0.0001694	9
	37	103	54.50582	18.18775	-64.36552	1	66.88583	-74.22131	1.696976E-006	-0.0001775	9
	38	105	45.95588	21.45286	-74.1002	1	77.14315	-73.85366	2.344009E-006	-0.0001721	9
	39	107	37.20238	26.29365	-88.04893	1	91.89108	-73.37304	2.097127E-006	-0.000171	9
	40	110	30.04808	32.231	-104.6936	1	109.5427	-72.88849	1.951131E-006	-0.0001771	9
	41	112	23.91582	40.08158	-125.8949	1	132.1214	-72.33991	1.579675E-006	-0.0001752	9
	42	115	18.60119	51.02391	-154.2154	1	162.4372	-71.69262	2.138615E-006	-0.0001659	9
	43	117	15.02404	62.8404	-183.0677	1	193.5528	-71.05454	2.274801E-006	-0.000171	9
	44	119	12.01923	78.74861	-218.8019	1	232.5417	-70.20578	2.065054E-006	-0.000148	9
	45	122	9.450605	101.5022	-264.6868	1	283.4815	-69.01917	2.416522E-006	-0.0001743	9
	46	124	7.512019	130.3536	-316.0727	1	341.8977	-67.58794	2.491501E-006	-0.0001736	9
	47	127	5.978954	168.2153	-374.227	1	410.2953	-65.79604	2.482071E-006	-0.0001733	9
	48	130	4.734848	218.4678	-439.096	1	490.4422	-63.54782	1.730452E-006	-0.0001787	8
	49	133	3.75601	283.7093	-509.5325	1	583.1932	-60.8908	2.188397E-006	-0.000139	8
	50	137	3.004808	362.4712	-579.5316	1	683.5512	-57.97586	2.075364E-006	-0.0001609	8
	51	140	2.372217	464.8344	-651.6944	1	800.4852	-54.50086	1.916361E-006	-0.0002206	8
	52	145	1.878005	583.0828	-718.0838	1	925.0026	-50.92346	2.095351E-006	-0.0001528	8
	53	149	1.512097	705.262	-769.0398	1	1043.464	-47.47705	2.032299E-006	-0.0001992	8
	54	155	1.201923	848.5486	-812.2924	1	1174.672	-43.74943	1.951288E-006	-0.0001277	8
	55	161	0.956633	996.678	-840.4066	1	1303.707	-40.13784	1.388472E-006	-0.0006954	8
