EXPLAIN
TAG	EISPOT
TITLE	LABEL	Potentiostatic EIS	Test Identifier
DATE	LABEL	10/5/2021	Date
TIME	LABEL	14:23:16	Time
NOTES	NOTES	1	Notes...
	
PSTAT	PSTAT	REF3000-16137	Potentiostat
VDC	POTEN	0.00000E+000	T	DC Voltage (V)
FREQINIT	QUANT	3.00000E+005	Initial Freq. (Hz)
FREQFINAL	QUANT	1.00000E+000	Final Freq. (Hz)
PTSPERDEC	QUANT	1.00000E+001	Points/decade
VAC	QUANT	5.00000E+001	AC Voltage (mV rms)
AREA	QUANT	1.00000E+000	Sample Area (cm^2)
SPEED	SELECTOR	2	Optimize for:
ZGUESS	QUANT	1.00000E+003	Estimated Z (ohms)
EOC	QUANT	0	Open Circuit (V)
SEQUENCER	TOGGLE	TRUE	Run as Sequence
PSTATMODEL	IQUANT	5	Pstat Model
PSTATSECTION	LABEL	REF3000-16137	Pstat Section
PSTATSERIALNO	LABEL	16137	Pstat Serial Number
CTRLMODE	IQUANT	1	Control Mode
IESTAB	IQUANT	0	I/E Stability
CASPEED	IQUANT	1	Control Amp Speed
CONVENTION	IQUANT	1	Current Convention
ICHRANGE	IQUANT	2	Ich Range
ICHRANGEMODE	TOGGLE	F	Ich Auto Range
ICHOFFSETENABLE	TOGGLE	T	Ich Offset Enable
ICHOFFSET	QUANT	0	Ich Offset (V)
ICHFILTER	IQUANT	3	Ich Filter
VCHRANGE	IQUANT	2	Vch Range
VCHRANGEMODE	TOGGLE	F	Vch Auto Range
VCHOFFSETENABLE	TOGGLE	T	Vch Offset Enable
VCHOFFSET	QUANT	0	Vch Offset (V)
VCHFILTER	IQUANT	3	Vch Filter
ACHRANGE	IQUANT	2	Ach Range
ACHOFFSETENABLE	TOGGLE	F	Ach Offset Enable
ACHOFFSET	QUANT	0	Ach Offset (V)
ACHFILTER	IQUANT	3	Ach Filter
IERANGELOWERLIMIT	IQUANT	2	I/E Range Lower Limit
IERANGEMODE	TOGGLE	F	I/E AutoRange
IERANGE	IQUANT	11	I/E Range
POSFEEDENABLE	TOGGLE	F	Positive Feedback IR Comp
POSFEEDRESISTANCE	QUANT	0	Positive Feedback Resistance (ohm)
ACHSELECT	IQUANT	0	Ach Select
CABLEID	IQUANT	13	Cable ID
DCCALDATE	LABEL	9/10/2021	DC Calibration Date
ACCALDATE	LABEL	9/10/2021	AC Calibration Date
THERMOSELECT	IQUANT	1	Thermo Select
FRAMEWORKVERSION	QUANT	6.33	Framework Version
INSTRUMENTVERSION	LABEL	3.50	Instrument Version
COMPLIANCEVOLTAGE	IQUANT	0	Compliance Voltage
ZCURVE	TABLE
	Pt	Time	Freq	Zreal	Zimag	Zsig	Zmod	Zphz	Idc	Vdc	IERange
	#	s	Hz	ohm	ohm	V	ohm	°	A	V	#
	0	10	300046.9	6.190122	2.192942	1	6.567084	19.50744	3.44602E-005	-0.0007289	10
	1	13	238359.4	6.166321	1.751139	1	6.410149	15.85372	-0.000098	-0.0008404	10
	2	16	189328.1	6.153999	1.376675	1	6.306103	12.60969	6.920673E-005	-0.0008245	10
	3	19	150421.9	6.15169	1.085423	1	6.246714	10.00644	1.24145E-005	-0.0004317	10
	4	21	119484.4	6.16464	0.833276	1	6.220702	7.698028	-1.590419E-005	-0.0002919	10
	5	24	94921.88	6.177928	0.6436651	1	6.211369	5.948064	2.678101E-005	-0.0002657	10
	6	26	75421.88	6.18571	0.467711	1	6.203367	4.323994	1.365277E-005	-0.0002686	10
	7	29	59859.37	6.197701	0.3170539	1	6.205805	2.92851	-2.662953E-005	-0.0002073	10
	8	31	47578.12	6.212948	0.1846632	1	6.215692	1.702462	-3.136542E-005	-0.0001777	10
	9	34	37828.12	6.231518	0.0641362	1	6.231848	0.5896803	-1.320252E-005	-0.0001549	10
	10	36	30046.88	6.25062	-0.0502468	1	6.250822	-0.4605727	2.262467E-005	-0.0001732	10
	11	39	23859.38	6.270197	-0.1647325	1	6.27236	-1.504945	6.390861E-006	-0.0001705	10
	12	41	18984.38	6.29126	-0.2842522	1	6.297678	-2.586982	-2.798054E-005	-0.000144	10
	13	44	15046.87	6.315026	-0.4180669	1	6.32885	-3.787565	-1.160223E-005	-0.0001563	10
	14	46	11953.13	6.339878	-0.5707641	1	6.365518	-5.144334	-4.62075E-006	-0.0001571	10
	15	48	9515.62	6.368835	-0.7477097	1	6.412576	-6.69595	-1.314352E-005	-0.0001437	10
	16	51	7546.875	6.402095	-0.962785	1	6.474085	-8.55239	2.470109E-005	-0.0001354	10
	17	53	5928.309	6.442725	-1.234376	1	6.559907	-10.84599	-2.788137E-005	-0.0001122	10
	18	55	4733.456	6.488047	-1.544277	1	6.669298	-13.38835	-2.622444E-005	-0.0001188	10
	19	57	3796.875	6.541249	-1.915007	1	6.815804	-16.31784	-3.010538E-005	-0.0001317	10
	20	60	2987.132	6.610964	-2.409185	1	7.036265	-20.02288	-1.635807E-005	-0.000133	10
	21	62	2390.625	6.689649	-2.975557	1	7.321567	-23.97951	1.262865E-005	-0.0001573	10
	22	64	1884.191	6.793983	-3.722314	1	7.74686	-28.71762	1.757433E-005	-0.0001636	10
	23	67	1516.544	6.912238	-4.561661	1	8.281774	-33.42241	-2.775561E-005	-0.0001124	10
	24	69	1193.986	7.071028	-5.695446	1	9.079513	-38.85013	1.252854E-005	-0.0001612	10
	25	72	946.5144	7.267783	-7.064612	1	10.13555	-44.18785	-2.344579E-005	-9.182005E-005	10
	26	74	751.7689	7.500668	-8.745659	1	11.52157	-49.38213	-2.843168E-005	-0.0001085	10
	27	76	597.4265	7.801682	-10.80855	1	13.33008	-54.17801	2.013892E-005	-0.000138	10
	28	79	477.4305	8.175642	-13.29493	1	15.60757	-58.41079	-2.170896E-006	-0.0001147	10
	29	81	376.6741	8.664716	-16.52159	1	18.65584	-62.32533	-1.115427E-006	-0.0001217	10
	30	83	298.2954	9.274072	-20.45131	1	22.45584	-65.60709	-1.711745E-006	-0.000116	10
	31	85	237.7717	10.01697	-25.15155	1	27.07287	-68.28437	-1.769597E-006	-0.0001198	10
	32	88	189.0121	10.96007	-31.00299	1	32.88326	-70.53065	-1.677571E-006	-0.0001156	10
	33	90	150.2404	12.14175	-38.19365	1	40.07713	-72.36456	-2.36442E-006	-0.0001195	10
	34	93	119.1737	13.62557	-47.07824	1	49.01038	-73.8583	8.580765E-007	-0.0001328	9
	35	95	95.0169	15.48206	-57.80417	1	59.84159	-75.00603	8.032044E-007	-0.0001404	9
	36	98	75.60484	17.86034	-71.08319	1	73.29265	-75.89584	7.809345E-007	-0.0001388	9
	37	100	54.50582	22.46932	-95.4831	1	98.0913	-76.75794	8.072908E-007	-0.0001403	9
	38	103	45.95588	25.62579	-111.3309	1	114.242	-77.03761	7.947403E-007	-0.0001305	9
	39	105	37.20238	30.44809	-134.4784	1	137.8823	-77.24241	8.764142E-007	-0.000133	9
	40	107	30.04808	36.65602	-162.6258	1	166.7058	-77.29775	7.963392E-007	-0.0001274	9
	41	110	23.91582	45.20758	-199.0576	1	204.1266	-77.2047	7.495875E-007	-0.0001371	9
	42	112	18.60119	57.29828	-247.8625	1	254.3992	-76.9836	6.680316E-007	-0.0001291	9
	43	115	15.02404	70.56178	-298.3402	1	306.5711	-76.69324	7.707293E-007	-0.0001404	9
	44	117	12.01923	87.97713	-361.1163	1	371.6786	-76.30802	9.950728E-007	-0.0001341	9
	45	119	9.450605	111.0066	-440.9474	1	454.7055	-75.86965	8.053611E-007	-0.0001193	8
	46	122	7.512019	138.7312	-534.3669	1	552.0818	-75.4463	8.063599E-007	-0.0001023	8
	47	124	5.978954	172.6957	-646.4289	1	669.0995	-75.04255	7.600045E-007	-0.0001192	8
	48	128	4.734848	215.8092	-784.3751	1	813.5219	-74.61655	7.879079E-007	-0.0000959	8
	49	131	3.75601	268.3866	-950.846	1	987.998	-74.23771	7.280851E-007	-0.0001218	8
	50	134	3.004808	331.3929	-1143.215	1	1190.278	-73.83428	6.640506E-007	-8.567856E-005	8
	51	138	2.372217	415.493	-1391.544	1	1452.249	-73.37521	7.070462E-007	-5.056898E-005	8
	52	142	1.878005	524.6605	-1687.325	1	1767.013	-72.72733	6.725094E-007	-0.0001466	8
	53	147	1.512097	656.315	-2012.998	1	2117.288	-71.94203	6.879725E-007	-5.369073E-005	8
	54	152	1.201923	837.2293	-2431.775	1	2571.863	-71.00206	7.119227E-007	-0.0001477	8
	55	159	0.956633	1074.162	-2918.879	1	3110.254	-69.79613	6.040576E-007	-0.00067	8
