EXPLAIN
TAG	EISPOT
TITLE	LABEL	Potentiostatic EIS	Test Identifier
DATE	LABEL	10/5/2021	Date
TIME	LABEL	15:27:37	Time
NOTES	NOTES	1	Notes...
	
PSTAT	PSTAT	REF3000-16137	Potentiostat
VDC	POTEN	0.00000E+000	T	DC Voltage (V)
FREQINIT	QUANT	3.00000E+005	Initial Freq. (Hz)
FREQFINAL	QUANT	1.00000E+000	Final Freq. (Hz)
PTSPERDEC	QUANT	1.00000E+001	Points/decade
VAC	QUANT	5.00000E+001	AC Voltage (mV rms)
AREA	QUANT	1.00000E+000	Sample Area (cm^2)
SPEED	SELECTOR	2	Optimize for:
ZGUESS	QUANT	1.00000E+003	Estimated Z (ohms)
EOC	QUANT	0	Open Circuit (V)
SEQUENCER	TOGGLE	TRUE	Run as Sequence
PSTATMODEL	IQUANT	5	Pstat Model
PSTATSECTION	LABEL	REF3000-16137	Pstat Section
PSTATSERIALNO	LABEL	16137	Pstat Serial Number
CTRLMODE	IQUANT	1	Control Mode
IESTAB	IQUANT	0	I/E Stability
CASPEED	IQUANT	1	Control Amp Speed
CONVENTION	IQUANT	1	Current Convention
ICHRANGE	IQUANT	2	Ich Range
ICHRANGEMODE	TOGGLE	F	Ich Auto Range
ICHOFFSETENABLE	TOGGLE	T	Ich Offset Enable
ICHOFFSET	QUANT	0	Ich Offset (V)
ICHFILTER	IQUANT	3	Ich Filter
VCHRANGE	IQUANT	2	Vch Range
VCHRANGEMODE	TOGGLE	F	Vch Auto Range
VCHOFFSETENABLE	TOGGLE	T	Vch Offset Enable
VCHOFFSET	QUANT	0	Vch Offset (V)
VCHFILTER	IQUANT	3	Vch Filter
ACHRANGE	IQUANT	2	Ach Range
ACHOFFSETENABLE	TOGGLE	F	Ach Offset Enable
ACHOFFSET	QUANT	0	Ach Offset (V)
ACHFILTER	IQUANT	3	Ach Filter
IERANGELOWERLIMIT	IQUANT	2	I/E Range Lower Limit
IERANGEMODE	TOGGLE	F	I/E AutoRange
IERANGE	IQUANT	11	I/E Range
POSFEEDENABLE	TOGGLE	F	Positive Feedback IR Comp
POSFEEDRESISTANCE	QUANT	0	Positive Feedback Resistance (ohm)
ACHSELECT	IQUANT	0	Ach Select
CABLEID	IQUANT	13	Cable ID
DCCALDATE	LABEL	9/10/2021	DC Calibration Date
ACCALDATE	LABEL	9/10/2021	AC Calibration Date
THERMOSELECT	IQUANT	1	Thermo Select
FRAMEWORKVERSION	QUANT	6.33	Framework Version
INSTRUMENTVERSION	LABEL	3.50	Instrument Version
COMPLIANCEVOLTAGE	IQUANT	0	Compliance Voltage
ZCURVE	TABLE
	Pt	Time	Freq	Zreal	Zimag	Zsig	Zmod	Zphz	Idc	Vdc	IERange
	#	s	Hz	ohm	ohm	V	ohm	°	A	V	#
	0	21	300046.9	270.0952	-4100.719	1	4109.604	-86.23164	2.74839E-005	0.000668	9
	1	41	238359.4	430.13	-5070.735	1	5088.946	-85.15144	2.695663E-005	-0.0018361	9
	2	60	189328.1	735.4398	-5814.827	1	5861.15	-82.79169	2.084633E-006	0.0014114	9
	3	69	150421.9	1354.331	-7103.733	1	7231.683	-79.20606	-2.109731E-005	0.0014664	9
	4	77	119484.4	1538.957	-9579.8	1	9702.63	-80.87363	3.939686E-005	-0.0192904	8
	5	84	94921.88	2244.086	-11750.44	1	11962.81	-79.18791	-1.911687E-005	0.0106513	8
	6	93	75421.88	2546.165	-14496.81	1	14718.71	-80.03839	-2.510899E-005	0.004967	8
	7	101	59859.37	3450.682	-18261.88	1	18585.04	-79.2998	-2.722381E-005	0.0073673	8
	8	110	47578.12	3248.701	-22508.58	1	22741.81	-81.78712	2.404727E-005	-0.0040849	8
	9	119	37828.12	8384.692	-30636.47	1	31763.13	-74.69391	-2.167092E-005	0.0025229	8
	10	128	30046.88	8103.445	-35568.77	1	36480.18	-77.16566	1.837862E-005	-0.0009732	8
	11	137	23859.38	11987.51	-42962.41	1	44603.47	-74.40966	1.536258E-005	-0.0101624	8
	12	143	18984.38	19305.47	-51396.71	1	54902.86	-69.41297	6.731419E-006	-0.012192	7
	13	148	15046.87	25316.35	-61467.65	1	66476.99	-67.61497	8.30695E-007	0.0143003	7
	14	154	11953.13	34551.4	-73889.38	1	81568.62	-64.93874	-3.455862E-006	0.0241789	7
	15	159	9515.62	44997.88	-86452.41	1	97461.9	-62.50333	-7.260014E-006	0.0237544	7
	16	166	7546.875	61844.69	-93118.51	1	111784.7	-56.40986	-1.124648E-005	-0.002426	8
	17	173	5928.309	82228.41	-117789.1	1	143651.6	-55.08115	8.535212E-007	-0.0198821	7
	18	180	4733.456	124254	-127328.5	1	177908.9	-45.70015	2.511007E-007	0.0082443	6
	19	184	3796.875	147487.7	-133878.3	1	199188.5	-42.23082	-8.51618E-008	-0.0147909	6
	20	188	2987.132	177880.7	-137847.3	1	225041	-37.77362	3.629942E-007	-0.0256937	6
	21	192	2390.625	206287.3	-140843.7	1	249782.7	-34.32351	-6.768106E-007	0.0104141	6
	22	197	1884.191	240166.9	-140202.8	1	278095.3	-30.27521	-7.491162E-007	0.0231493	6
	23	202	1516.544	386249.1	-94940.95	1	397746.3	-13.80966	-2.475436E-005	0.0105756	8
	24	209	1193.986	202722.6	-44121.77	1	207468.5	-12.27871	2.385905E-005	-0.0039775	8
	25	220	946.5144	281707.9	64967.36	1	289102.3	12.98648	-2.173309E-005	0.0024787	8
	26	228	751.7689	209438	-95850.6	1	230329.3	-24.5915	-2.721001E-005	0.0074119	8
	27	234	597.4265	118774	-78022.45	1	142108.3	-33.30085	1.003957E-005	0.0001632	9
	28	241	477.4305	433899	-116952.2	1	449384.2	-15.08489	-1.207767E-007	-0.0001284	7
	29	245	376.6741	454659.1	-96745.9	1	464838.3	-12.01267	-1.320796E-008	-0.0001373	6
	30	248	298.2954	486758.3	-41080.41	1	488488.8	-4.824098	-1.875658E-009	-2.768589E-005	5
	31	250	237.7717	498229.2	-39032.34	1	499755.8	-4.479524	-1.667506E-009	-2.252875E-005	5
	32	253	189.0121	507909.9	-34414.18	1	509074.5	-3.876235	-1.969277E-009	-6.122717E-005	5
	33	255	150.2404	518877.8	-29993.88	1	519744	-3.308317	-1.67356E-009	-1.337175E-005	5
	34	258	119.1737	523549.9	-37577.85	1	524896.8	-4.105371	-1.727729E-009	-0.0001006	5
	35	260	95.0169	538723.3	-23848.59	1	539250.9	-2.534756	-1.598466E-009	-1.671995E-005	5
	36	263	75.60484	552224.1	-21812.29	1	552654.7	-2.261949	-1.692855E-009	-1.344165E-005	5
	37	266	54.50582	552685.1	-8238.334	1	552746.5	-0.8539886	-1.937409E-009	-2.608618E-005	5
	38	268	45.95588	571574.4	-15627.4	1	571788	-1.566132	-1.538219E-009	-7.529261E-005	5
	39	270	37.20238	577971.4	-13284.77	1	578124	-1.316721	-1.703131E-009	-0.0001155	5
	40	273	30.04808	590455.4	-12350.02	1	590584.5	-1.198229	-1.623382E-009	-1.699123E-005	5
	41	276	23.91582	601277.7	-9262.055	1	601349	-0.8825119	-1.638237E-009	-0.0001166	5
	42	278	18.60119	609208.9	-9696.13	1	609286.1	-0.9118388	-1.22556E-009	-0.0001077	5
	43	281	15.02404	622921.8	-8953.169	1	622986.1	-0.8234477	-1.615937E-009	-0.0001152	5
	44	283	12.01923	633638.6	-7818.854	1	633686.9	-0.7069717	-1.877655E-009	-2.376198E-005	5
	45	286	9.450605	644451.1	-8114.349	1	644502.1	-0.7213789	-1.577868E-009	-4.868317E-005	5
	46	288	7.512019	657086	-7291.293	1	657126.4	-0.6357512	-1.429487E-009	-2.980186E-005	5
	47	291	5.978954	673873.3	-6548.164	1	673905.1	-0.5567372	-1.458138E-009	-6.188347E-005	5
	48	296	4.734848	691368.7	-7154.86	1	691405.7	-0.5929234	-1.232171E-009	-8.007078E-005	5
	49	299	3.75601	713124.1	-7674.59	1	713165.4	-0.6165892	-8.53924E-010	-4.570335E-005	5
	50	305	3.004808	742687.3	-8197.446	1	742732.5	-0.6323792	-1.332004E-009	-5.318023E-005	5
	51	311	2.372217	770006.6	-9057.351	1	770059.9	-0.6739215	-1.187344E-009	-4.693307E-005	5
	52	315	1.878005	794106.7	-10134.92	1	794171.4	-0.7312074	-1.236589E-009	-7.823071E-005	5
	53	320	1.512097	821971	-11320.07	1	822048.9	-0.7890195	-1.581366E-009	4.319935E-005	5
	54	325	1.201923	856123.3	-13846.34	1	856235.2	-0.9265812	-1.412522E-009	-7.571468E-005	5
	55	332	0.956633	894520.1	-16689.04	1	894675.8	-1.068842	-3.060771E-009	-0.0006025	5
