EXPLAIN
TAG	EISPOT
TITLE	LABEL	Potentiostatic EIS	Test Identifier
DATE	LABEL	10/5/2021	Date
TIME	LABEL	14:39:54	Time
NOTES	NOTES	1	Notes...
	
PSTAT	PSTAT	REF3000-16137	Potentiostat
VDC	POTEN	0.00000E+000	T	DC Voltage (V)
FREQINIT	QUANT	3.00000E+005	Initial Freq. (Hz)
FREQFINAL	QUANT	1.00000E+000	Final Freq. (Hz)
PTSPERDEC	QUANT	1.00000E+001	Points/decade
VAC	QUANT	5.00000E+001	AC Voltage (mV rms)
AREA	QUANT	1.00000E+000	Sample Area (cm^2)
SPEED	SELECTOR	2	Optimize for:
ZGUESS	QUANT	1.00000E+003	Estimated Z (ohms)
EOC	QUANT	0	Open Circuit (V)
SEQUENCER	TOGGLE	TRUE	Run as Sequence
PSTATMODEL	IQUANT	5	Pstat Model
PSTATSECTION	LABEL	REF3000-16137	Pstat Section
PSTATSERIALNO	LABEL	16137	Pstat Serial Number
CTRLMODE	IQUANT	1	Control Mode
IESTAB	IQUANT	0	I/E Stability
CASPEED	IQUANT	1	Control Amp Speed
CONVENTION	IQUANT	1	Current Convention
ICHRANGE	IQUANT	2	Ich Range
ICHRANGEMODE	TOGGLE	F	Ich Auto Range
ICHOFFSETENABLE	TOGGLE	T	Ich Offset Enable
ICHOFFSET	QUANT	0	Ich Offset (V)
ICHFILTER	IQUANT	3	Ich Filter
VCHRANGE	IQUANT	2	Vch Range
VCHRANGEMODE	TOGGLE	F	Vch Auto Range
VCHOFFSETENABLE	TOGGLE	T	Vch Offset Enable
VCHOFFSET	QUANT	0	Vch Offset (V)
VCHFILTER	IQUANT	3	Vch Filter
ACHRANGE	IQUANT	2	Ach Range
ACHOFFSETENABLE	TOGGLE	F	Ach Offset Enable
ACHOFFSET	QUANT	0	Ach Offset (V)
ACHFILTER	IQUANT	3	Ach Filter
IERANGELOWERLIMIT	IQUANT	2	I/E Range Lower Limit
IERANGEMODE	TOGGLE	F	I/E AutoRange
IERANGE	IQUANT	11	I/E Range
POSFEEDENABLE	TOGGLE	F	Positive Feedback IR Comp
POSFEEDRESISTANCE	QUANT	0	Positive Feedback Resistance (ohm)
ACHSELECT	IQUANT	0	Ach Select
CABLEID	IQUANT	13	Cable ID
DCCALDATE	LABEL	9/10/2021	DC Calibration Date
ACCALDATE	LABEL	9/10/2021	AC Calibration Date
THERMOSELECT	IQUANT	1	Thermo Select
FRAMEWORKVERSION	QUANT	6.33	Framework Version
INSTRUMENTVERSION	LABEL	3.50	Instrument Version
COMPLIANCEVOLTAGE	IQUANT	0	Compliance Voltage
ZCURVE	TABLE
	Pt	Time	Freq	Zreal	Zimag	Zsig	Zmod	Zphz	Idc	Vdc	IERange
	#	s	Hz	ohm	ohm	V	ohm	°	A	V	#
	0	8	300046.9	19.02006	1.962843	1	19.12107	5.891986	1.176421E-005	-0.0006023	10
	1	11	238359.4	19.05554	1.548517	1	19.11835	4.64584	3.004857E-005	-0.0005456	10
	2	15	189328.1	19.12782	1.221328	1	19.16677	3.653425	-1.961775E-005	-0.0002968	10
	3	17	150421.9	19.17388	0.9303426	1	19.19644	2.77789	7.151505E-005	-0.0003511	10
	4	20	119484.4	19.25729	0.7224848	1	19.27084	2.148585	-1.785083E-005	-0.0001949	10
	5	22	94921.88	19.32268	0.5216185	1	19.32972	1.546332	-2.354309E-005	-0.0001629	10
	6	25	75421.88	19.39708	0.360678	1	19.40043	1.065261	4.394477E-006	-0.0002129	10
	7	27	59859.37	19.47687	0.2218222	1	19.47813	0.6525138	-1.766742E-005	-0.0002028	10
	8	30	47578.12	19.55241	0.0987456	1	19.55266	0.2893586	2.486232E-005	-0.0001876	10
	9	32	37828.12	19.62961	-0.0119611	1	19.62961	-0.0349127	-1.453503E-006	-0.0001013	10
	10	35	30046.88	19.71072	-0.1278621	1	19.71113	-0.3716685	-2.474693E-005	-8.008196E-005	10
	11	37	23859.38	19.78788	-0.2442824	1	19.78939	-0.7072833	5.540852E-006	-0.0001855	10
	12	40	18984.38	19.86996	-0.3726442	1	19.87346	-1.074407	6.327497E-006	-0.0001728	10
	13	42	15046.87	19.95147	-0.5181407	1	19.9582	-1.48764	-2.308418E-005	-0.0001379	10
	14	44	11953.13	20.03073	-0.6886423	1	20.04256	-1.969013	4.715126E-006	-0.0001676	10
	15	47	9515.62	20.11863	-0.8810539	1	20.13792	-2.507548	-2.961021E-005	-0.0001346	10
	16	49	7546.875	20.21359	-1.119166	1	20.24455	-3.169059	-2.911729E-005	-0.0001303	10
	17	51	5928.309	20.31218	-1.428671	1	20.36236	-4.02331	8.431995E-006	-0.0001301	10
	18	54	4733.456	20.41542	-1.775244	1	20.49246	-4.969712	2.051306E-005	-0.0001736	10
	19	56	3796.875	20.52826	-2.195445	1	20.64532	-6.104436	2.448225E-005	-0.0001778	10
	20	58	2987.132	20.65719	-2.766402	1	20.8416	-7.627645	-4.673981E-006	-0.0001148	10
	21	61	2390.625	20.7953	-3.420144	1	21.07467	-9.339664	2.75484E-005	-0.000132	10
	22	63	1884.191	20.95989	-4.290172	1	21.39445	-11.56779	6.871171E-006	-0.0001243	10
	23	65	1516.544	21.13621	-5.257096	1	21.78018	-13.96745	-1.405996E-005	-0.0000994	10
	24	68	1193.986	21.35753	-6.577303	1	22.34737	-17.11683	-2.606784E-005	-0.0000973	10
	25	70	946.5144	21.62026	-8.175004	1	23.1142	-20.71249	2.00154E-005	-0.0001593	10
	26	73	751.7689	21.93046	-10.13385	1	24.15864	-24.8012	-1.250948E-005	-0.0001321	10
	27	75	597.4265	22.30443	-12.55659	1	25.59601	-29.37794	7.314024E-006	-0.0001292	10
	28	77	477.4305	22.7693	-15.46561	1	27.52501	-34.18556	-1.771949E-006	-0.0001135	10
	29	80	376.6741	23.3418	-19.25093	1	30.2562	-39.51378	-1.525437E-006	-0.0001613	10
	30	82	298.2954	24.03807	-23.87378	1	33.87899	-44.80353	-1.73366E-006	-0.0001177	10
	31	84	237.7717	24.87953	-29.41934	1	38.52906	-49.77927	-1.695728E-006	-0.0001167	10
	32	87	189.0121	25.90488	-36.28903	1	44.5865	-54.4789	7.868062E-007	-0.0001289	9
	33	89	150.2404	27.22345	-44.80103	1	52.42374	-58.71494	7.843286E-007	-0.0001301	9
	34	92	119.1737	28.89182	-55.3903	1	62.47258	-62.45326	7.581874E-007	-0.0001289	9
	35	94	95.0169	30.93264	-68.12173	1	74.81577	-65.5782	7.169874E-007	-0.0001314	9
	36	96	75.60484	33.50388	-83.89402	1	90.33669	-68.23023	6.853111E-007	-0.0001268	9
	37	99	54.50582	38.29673	-112.9184	1	119.2359	-71.26543	7.06796E-007	-0.0001389	9
	38	102	45.95588	41.50554	-131.8355	1	138.2147	-72.52452	6.988098E-007	-0.0001317	9
	39	104	37.20238	46.28768	-159.6232	1	166.199	-73.82885	6.919558E-007	-0.0001319	9
	40	106	30.04808	52.24738	-193.6296	1	200.5548	-74.89942	7.114533E-007	-0.0001262	9
	41	109	23.91582	60.26974	-238.0276	1	245.5394	-75.79106	6.488149E-007	-0.0001373	9
	42	111	18.60119	71.54108	-298.5314	1	306.9839	-76.52359	8.933632E-007	-0.0001342	9
	43	113	15.02404	83.82742	-361.721	1	371.3073	-76.95226	9.194268E-007	-0.0001224	9
	44	116	12.01923	99.8191	-439.986	1	451.1669	-77.21774	4.363673E-007	-0.000118	8
	45	118	9.450605	122.6172	-545.0936	1	558.7146	-77.3225	5.359033E-007	-0.0001087	8
	46	121	7.512019	150.8871	-667.9742	1	684.804	-77.27122	6.234899E-007	-0.0001094	8
	47	123	5.978954	186.3581	-815.9571	1	836.968	-77.13477	5.698575E-007	-0.0001171	8
	48	126	4.734848	233.3997	-999.491	1	1026.381	-76.85592	5.836565E-007	-0.0000957	8
	49	130	3.75601	292.1815	-1220.956	1	1255.43	-76.5419	5.65924E-007	-0.000125	8
	50	133	3.004808	362.7816	-1476.244	1	1520.167	-76.19337	5.163583E-007	-8.347043E-005	8
	51	137	2.372217	454.3506	-1802.455	1	1858.838	-75.85201	5.344726E-007	-6.979762E-005	8
	52	141	1.878005	571.1667	-2193.423	1	2266.57	-75.40434	5.461149E-007	-0.0001435	8
	53	146	1.512097	700.8875	-2630.162	1	2721.947	-75.07853	5.414403E-007	-1.375572E-005	8
	54	151	1.201923	868.1584	-3188.389	1	3304.47	-74.76833	5.552292E-007	-0.0001433	8
	55	157	0.956633	1070.292	-3860.336	1	4005.961	-74.50378	5.001167E-007	-0.0006644	8
