EXPLAIN
TAG	EISPOT
TITLE	LABEL	Potentiostatic EIS	Test Identifier
DATE	LABEL	10/5/2021	Date
TIME	LABEL	14:12:04	Time
NOTES	NOTES	1	Notes...
	
PSTAT	PSTAT	REF3000-16137	Potentiostat
VDC	POTEN	0.00000E+000	T	DC Voltage (V)
FREQINIT	QUANT	3.00000E+005	Initial Freq. (Hz)
FREQFINAL	QUANT	1.00000E+000	Final Freq. (Hz)
PTSPERDEC	QUANT	1.00000E+001	Points/decade
VAC	QUANT	5.00000E+001	AC Voltage (mV rms)
AREA	QUANT	1.00000E+000	Sample Area (cm^2)
SPEED	SELECTOR	2	Optimize for:
ZGUESS	QUANT	1.00000E+003	Estimated Z (ohms)
EOC	QUANT	0	Open Circuit (V)
SEQUENCER	TOGGLE	TRUE	Run as Sequence
PSTATMODEL	IQUANT	5	Pstat Model
PSTATSECTION	LABEL	REF3000-16137	Pstat Section
PSTATSERIALNO	LABEL	16137	Pstat Serial Number
CTRLMODE	IQUANT	1	Control Mode
IESTAB	IQUANT	0	I/E Stability
CASPEED	IQUANT	1	Control Amp Speed
CONVENTION	IQUANT	1	Current Convention
ICHRANGE	IQUANT	2	Ich Range
ICHRANGEMODE	TOGGLE	F	Ich Auto Range
ICHOFFSETENABLE	TOGGLE	T	Ich Offset Enable
ICHOFFSET	QUANT	0	Ich Offset (V)
ICHFILTER	IQUANT	3	Ich Filter
VCHRANGE	IQUANT	2	Vch Range
VCHRANGEMODE	TOGGLE	F	Vch Auto Range
VCHOFFSETENABLE	TOGGLE	T	Vch Offset Enable
VCHOFFSET	QUANT	0	Vch Offset (V)
VCHFILTER	IQUANT	3	Vch Filter
ACHRANGE	IQUANT	2	Ach Range
ACHOFFSETENABLE	TOGGLE	F	Ach Offset Enable
ACHOFFSET	QUANT	0	Ach Offset (V)
ACHFILTER	IQUANT	3	Ach Filter
IERANGELOWERLIMIT	IQUANT	2	I/E Range Lower Limit
IERANGEMODE	TOGGLE	F	I/E AutoRange
IERANGE	IQUANT	11	I/E Range
POSFEEDENABLE	TOGGLE	F	Positive Feedback IR Comp
POSFEEDRESISTANCE	QUANT	0	Positive Feedback Resistance (ohm)
ACHSELECT	IQUANT	0	Ach Select
CABLEID	IQUANT	13	Cable ID
DCCALDATE	LABEL	9/10/2021	DC Calibration Date
ACCALDATE	LABEL	9/10/2021	AC Calibration Date
THERMOSELECT	IQUANT	1	Thermo Select
FRAMEWORKVERSION	QUANT	6.33	Framework Version
INSTRUMENTVERSION	LABEL	3.50	Instrument Version
COMPLIANCEVOLTAGE	IQUANT	0	Compliance Voltage
ZCURVE	TABLE
	Pt	Time	Freq	Zreal	Zimag	Zsig	Zmod	Zphz	Idc	Vdc	IERange
	#	s	Hz	ohm	ohm	V	ohm	°	A	V	#
	0	10	300046.9	3.805197	2.225048	1	4.407989	30.31651	5.312979E-005	-0.000887	10
	1	13	238359.4	3.784722	1.773213	1	4.179522	25.10397	1.17057E-005	-0.001186	10
	2	16	189328.1	3.763855	1.398813	1	4.015381	20.38726	2.804524E-005	-0.0009292	10
	3	19	150421.9	3.75799	1.089276	1	3.912673	16.16455	5.228815E-005	-0.0006524	10
	4	21	119484.4	3.754518	0.852038	1	3.849983	12.78596	-8.856564E-006	-0.0005294	10
	5	24	94921.88	3.757405	0.6539901	1	3.813895	9.87363	8.002364E-006	-0.0003644	10
	6	26	75421.88	3.75839	0.4800582	1	3.788925	7.278961	3.829244E-005	-0.0003357	10
	7	29	59859.37	3.762292	0.3324926	1	3.776955	5.050395	1.071311E-005	-0.0002796	10
	8	31	47578.12	3.76949	0.2043615	1	3.775026	3.103232	7.520011E-006	-0.0002484	10
	9	34	37828.12	3.77728	0.0871262	1	3.778285	1.321342	2.399486E-005	-0.000208	10
	10	36	30046.88	3.78743	-0.0243486	1	3.787508	-0.3683377	-2.820063E-005	-0.0001749	10
	11	39	23859.38	3.79869	-0.1359039	1	3.80112	-2.048969	-2.88731E-005	-0.0001595	10
	12	41	18984.38	3.81221	-0.2511271	1	3.820473	-3.768881	-9.265E-008	-0.0001318	10
	13	44	15046.87	3.826778	-0.3792555	1	3.845526	-5.659856	-1.306968E-005	-0.0001458	10
	14	46	11953.13	3.843734	-0.5230907	1	3.879164	-7.749728	2.303315E-006	-0.0001564	10
	15	48	9515.62	3.864411	-0.6888261	1	3.925322	-10.10675	2.298835E-005	-0.0001506	10
	16	51	7546.875	3.890897	-0.8900306	1	3.991395	-12.88456	-2.035193E-005	-0.000102	10
	17	53	5928.309	3.922333	-1.143826	1	4.085711	-16.25767	2.395005E-005	-0.0001448	10
	18	55	4733.456	3.959965	-1.432303	1	4.211035	-19.88485	1.215177E-005	-0.0001555	10
	19	58	3796.875	4.005339	-1.775911	1	4.381392	-23.91182	-1.000228E-006	-0.0001092	10
	20	60	2987.132	4.065664	-2.233799	1	4.638909	-28.78572	-2.088921E-005	-0.0001117	10
	21	62	2390.625	4.135483	-2.757891	1	4.970733	-33.69873	-5.152109E-006	-0.0001506	10
	22	64	1884.191	4.22807	-3.445974	1	5.454476	-39.18082	5.250302E-006	-0.0001334	10
	23	67	1516.544	4.334564	-4.218804	1	6.048698	-44.22462	6.212766E-006	-0.0001366	10
	24	69	1193.986	4.481342	-5.265786	1	6.914545	-49.60122	2.143365E-005	-0.0001391	10
	25	72	946.5144	4.658809	-6.530396	1	8.02188	-54.49579	-2.95953E-005	-0.00013	10
	26	74	751.7689	4.891888	-8.070184	1	9.437078	-58.77709	1.777898E-005	-0.0001472	10
	27	76	597.4265	5.174536	-9.96592	1	11.22922	-62.56062	2.213642E-005	-0.0001417	10
	28	79	477.4305	5.530818	-12.24451	1	13.4357	-65.69142	1.073621E-006	-0.0001553	10
	29	81	376.6741	5.999927	-15.19885	1	16.34026	-68.45779	-1.085915E-006	-0.0001202	10
	30	83	298.2954	6.581192	-18.79391	1	19.91289	-70.70093	-1.182265E-006	-0.0001178	10
	31	86	237.7717	7.293931	-23.09321	1	24.21771	-72.47141	-7.953415E-007	-0.0001216	10
	32	88	189.0121	8.206189	-28.44306	1	29.6032	-73.90647	-2.099117E-006	-0.0001207	10
	33	90	150.2404	9.366915	-35.01445	1	36.2457	-75.02318	-2.186382E-006	-0.0001223	10
	34	93	119.1737	10.8529	-43.11985	1	44.46467	-75.87257	9.449826E-007	-0.0001395	9
	35	95	95.0169	12.73438	-52.87897	1	54.39071	-76.45979	9.020847E-007	-0.0001434	9
	36	98	75.60484	15.18256	-64.91264	1	66.66454	-76.83562	8.139031E-007	-0.0001356	9
	37	100	54.50582	19.9929	-86.88725	1	89.15778	-77.0417	8.652943E-007	-0.0001382	9
	38	103	45.95588	23.28741	-101.0251	1	103.6744	-77.01942	9.835628E-007	-0.0001284	9
	39	105	37.20238	28.36646	-121.6091	1	124.8737	-76.87	9.945705E-007	-0.0001315	9
	40	108	30.04808	34.84629	-146.4646	1	150.5528	-76.61722	9.104593E-007	-0.0001337	9
	41	110	23.91582	43.59021	-178.2787	1	183.5303	-76.2604	9.117624E-007	-0.0001392	9
	42	112	18.60119	55.79567	-220.573	1	227.5205	-75.80436	1.00199E-006	-0.0001339	9
	43	115	15.02404	68.81324	-263.7898	1	272.6176	-75.37943	9.65925E-007	-0.0001287	9
	44	117	12.01923	85.57825	-317.7239	1	329.0473	-74.92525	1.061668E-006	-0.0001349	9
	45	119	9.450605	108.0171	-387.4917	1	402.2654	-74.42367	8.141292E-007	-0.0001347	9
	46	122	7.512019	133.6594	-466.1718	1	484.9546	-74.0015	6.631722E-007	-0.0001381	8
	47	125	5.978954	165.6735	-562.3453	1	586.2422	-73.5844	6.712896E-007	-0.0001212	8
	48	128	4.734848	207.6168	-681.6804	1	712.5959	-73.06104	8.021989E-007	-0.0001279	8
	49	131	3.75601	260.0694	-824.6782	1	864.7139	-72.49688	7.248025E-007	-0.0001279	8
	50	134	3.004808	326.0593	-989.347	1	1041.692	-71.75932	9.022587E-007	-0.000152	8
	51	138	2.372217	417.6166	-1196.741	1	1267.514	-70.76297	7.461506E-007	-0.0001438	8
	52	142	1.878005	541.9228	-1440.907	1	1539.446	-69.38879	7.040253E-007	-0.0001197	8
	53	147	1.512097	688.0362	-1701.127	1	1835	-67.97868	7.791164E-007	-0.0002095	8
	54	153	1.201923	893.5716	-2013.665	1	2203.025	-66.07056	7.150404E-007	-0.0001191	8
	55	159	0.956633	1150.221	-2356.579	1	2622.303	-63.98348	6.903539E-007	-0.0006654	8
