EXPLAIN
TAG	EISPOT
TITLE	LABEL	Potentiostatic EIS	Test Identifier
DATE	LABEL	10/5/2021	Date
TIME	LABEL	15:17:16	Time
NOTES	NOTES	1	Notes...
	
PSTAT	PSTAT	REF3000-16137	Potentiostat
VDC	POTEN	0.00000E+000	T	DC Voltage (V)
FREQINIT	QUANT	3.00000E+005	Initial Freq. (Hz)
FREQFINAL	QUANT	1.00000E+000	Final Freq. (Hz)
PTSPERDEC	QUANT	1.00000E+001	Points/decade
VAC	QUANT	5.00000E+001	AC Voltage (mV rms)
AREA	QUANT	1.00000E+000	Sample Area (cm^2)
SPEED	SELECTOR	2	Optimize for:
ZGUESS	QUANT	1.00000E+003	Estimated Z (ohms)
EOC	QUANT	0	Open Circuit (V)
SEQUENCER	TOGGLE	TRUE	Run as Sequence
PSTATMODEL	IQUANT	5	Pstat Model
PSTATSECTION	LABEL	REF3000-16137	Pstat Section
PSTATSERIALNO	LABEL	16137	Pstat Serial Number
CTRLMODE	IQUANT	1	Control Mode
IESTAB	IQUANT	0	I/E Stability
CASPEED	IQUANT	1	Control Amp Speed
CONVENTION	IQUANT	1	Current Convention
ICHRANGE	IQUANT	2	Ich Range
ICHRANGEMODE	TOGGLE	F	Ich Auto Range
ICHOFFSETENABLE	TOGGLE	T	Ich Offset Enable
ICHOFFSET	QUANT	0	Ich Offset (V)
ICHFILTER	IQUANT	3	Ich Filter
VCHRANGE	IQUANT	2	Vch Range
VCHRANGEMODE	TOGGLE	F	Vch Auto Range
VCHOFFSETENABLE	TOGGLE	T	Vch Offset Enable
VCHOFFSET	QUANT	0	Vch Offset (V)
VCHFILTER	IQUANT	3	Vch Filter
ACHRANGE	IQUANT	2	Ach Range
ACHOFFSETENABLE	TOGGLE	F	Ach Offset Enable
ACHOFFSET	QUANT	0	Ach Offset (V)
ACHFILTER	IQUANT	3	Ach Filter
IERANGELOWERLIMIT	IQUANT	2	I/E Range Lower Limit
IERANGEMODE	TOGGLE	F	I/E AutoRange
IERANGE	IQUANT	11	I/E Range
POSFEEDENABLE	TOGGLE	F	Positive Feedback IR Comp
POSFEEDRESISTANCE	QUANT	0	Positive Feedback Resistance (ohm)
ACHSELECT	IQUANT	0	Ach Select
CABLEID	IQUANT	13	Cable ID
DCCALDATE	LABEL	9/10/2021	DC Calibration Date
ACCALDATE	LABEL	9/10/2021	AC Calibration Date
THERMOSELECT	IQUANT	1	Thermo Select
FRAMEWORKVERSION	QUANT	6.33	Framework Version
INSTRUMENTVERSION	LABEL	3.50	Instrument Version
COMPLIANCEVOLTAGE	IQUANT	0	Compliance Voltage
ZCURVE	TABLE
	Pt	Time	Freq	Zreal	Zimag	Zsig	Zmod	Zphz	Idc	Vdc	IERange
	#	s	Hz	ohm	ohm	V	ohm	°	A	V	#
	0	20	300046.9	1667.82	-2412.848	1	2933.165	-55.34681	-9.202772E-005	0.0035075	9
	1	35	238359.4	2109.212	-2712.359	1	3435.938	-52.13029	1.863097E-005	-0.0008169	9
	2	52	189328.1	2622.583	-2998.646	1	3983.694	-48.82741	2.705587E-005	0.0007571	9
	3	59	150421.9	3334.524	-3221.519	1	4636.511	-44.01251	1.53429E-005	-0.0022187	9
	4	67	119484.4	4044.112	-3335.799	1	5242.365	-39.51762	2.07689E-005	-0.0011599	9
	5	83	94921.88	4875.82	-3285.639	1	5879.544	-33.9746	-2.42485E-005	0.0049937	8
	6	90	75421.88	5631.465	-3311.613	1	6533.007	-30.45788	2.330718E-005	-0.0041355	8
	7	98	59859.37	6287.781	-3137.832	1	7027.245	-26.52087	2.478218E-005	-0.0097874	8
	8	105	47578.12	6987.387	-2803.724	1	7528.907	-21.86337	-2.579956E-005	0.0089921	8
	9	113	37828.12	7935.23	-2770.459	1	8404.959	-19.24584	-2.484992E-005	0.0003112	9
	10	121	30046.88	8266.938	-2587.641	1	8662.457	-17.38068	2.083838E-005	-0.0103106	8
	11	130	23859.38	8855.117	-2293.033	1	9147.191	-14.51786	2.645629E-005	-0.0084039	8
	12	137	18984.38	9355.54	-1981.996	1	9563.18	-11.96141	-2.143431E-005	0.0026491	8
	13	143	15046.87	9754.77	-1770.472	1	9914.14	-10.28709	2.505459E-005	-0.0098792	8
	14	149	11953.13	10125.84	-1544.986	1	10243.03	-8.675195	2.804897E-005	-0.0011181	9
	15	155	9515.62	10587.02	-1369.861	1	10675.27	-7.372579	2.684224E-005	-0.0083967	8
	16	161	7546.875	10947.63	-1105.466	1	11003.31	-5.766047	-2.14767E-005	0.0026759	8
	17	168	5928.309	11337.27	-1200.121	1	11400.61	-6.042614	1.44805E-005	-0.0097817	8
	18	174	4733.456	11529.95	-808.8901	1	11558.29	-4.013041	1.450684E-005	-0.0098172	8
	19	180	3796.875	11979.91	-753.2693	1	12003.57	-3.59789	-2.642106E-005	0.0073022	8
	20	186	2987.132	12584.84	-481.6512	1	12594.06	-2.191773	-1.728712E-005	0.0004917	8
	21	193	2390.625	12903.23	-613.2405	1	12917.8	-2.720998	-2.458244E-005	0.0049851	8
	22	199	1884.191	13186.64	-444.1284	1	13194.12	-1.929003	-3.265958E-006	-0.00514	7
	23	205	1516.544	13576.98	-431.5703	1	13583.84	-1.820643	1.072789E-006	-0.0189781	7
	24	209	1193.986	13838.88	-261.8488	1	13841.36	-1.083978	4.788241E-007	0.0140983	7
	25	213	946.5144	14042.23	-235.3895	1	14044.2	-0.960358	-6.984549E-006	0.0173456	7
	26	216	751.7689	14229.93	15.62254	1	14229.94	0.062903	6.262475E-006	-0.0259672	7
	27	219	597.4265	14233.99	-267.0008	1	14236.49	-1.074627	-1.511151E-006	0.0193772	7
	28	221	477.4305	14616.1	-170.1685	1	14617.09	-0.6670383	-1.132443E-007	-0.0001539	7
	29	224	376.6741	14772.09	-153.2792	1	14772.89	-0.594495	-1.125185E-007	-0.0001456	7
	30	226	298.2954	14937.56	-148.3457	1	14938.3	-0.5689886	-1.209902E-007	-0.0001253	7
	31	228	237.7717	15113.98	-140.3817	1	15114.64	-0.5321595	-1.17458E-007	-8.161289E-005	7
	32	231	189.0121	15281.55	-141.8046	1	15282.21	-0.5316586	-1.231193E-007	-7.623243E-005	7
	33	233	150.2404	15463.76	-147.8099	1	15464.46	-0.5476434	-1.070005E-007	-0.0001153	7
	34	236	119.1737	15649.18	-170.6133	1	15650.11	-0.6246356	-1.225568E-007	-0.0001618	7
	35	238	95.0169	15822.77	-178.857	1	15823.78	-0.6476307	-1.221172E-007	-6.828711E-005	7
	36	240	75.60484	16019.99	-200.3758	1	16021.24	-0.7166103	-1.205596E-007	-0.0001497	7
	37	243	54.50582	16231.93	-261.0074	1	16234.03	-0.9212296	-1.123699E-007	-0.0001202	7
	38	246	45.95588	16409.15	-291.3002	1	16411.74	-1.017025	-1.115859E-007	-0.0001505	7
	39	248	37.20238	16599.96	-344.4171	1	16603.54	-1.188606	-1.32817E-007	-0.0001222	7
	40	250	30.04808	16798.88	-407.2283	1	16803.82	-1.388658	-1.274753E-007	-0.0001482	7
	41	253	23.91582	16988.29	-491.8776	1	16995.41	-1.658474	-1.510092E-007	-0.0001429	7
	42	255	18.60119	17199.58	-648.0217	1	17211.79	-2.157689	-1.871207E-007	-6.423048E-005	7
	43	257	15.02404	17414.23	-729.7866	1	17429.52	-2.399718	-1.715499E-007	-0.0001233	7
	44	260	12.01923	17614.88	-903.5772	1	17638.04	-2.936484	-1.70753E-007	-7.089692E-005	7
	45	262	9.450605	17832.34	-1141.664	1	17868.84	-3.663199	-7.982965E-008	-6.878082E-005	7
	46	265	7.512019	18079.04	-1433.871	1	18135.81	-4.534708	-5.948318E-008	-7.301284E-005	7
	47	267	5.978954	18385.43	-1735.899	1	18467.2	-5.393712	-1.12527E-007	-0.0001514	7
	48	270	4.734848	18693.05	-2169.177	1	18818.49	-6.619107	-8.034421E-008	-6.763078E-005	7
	49	274	3.75601	19085.31	-2677.443	1	19272.21	-7.985801	-1.111116E-007	-0.0001535	7
	50	277	3.004808	19482.75	-3299.093	1	19760.1	-9.61096	-1.199999E-007	-5.292065E-005	7
	51	281	2.372217	20021.73	-4126.647	1	20442.57	-11.64606	-7.776923E-008	-0.0001211	7
	52	285	1.878005	20578.09	-5118.577	1	21205.13	-13.96823	-8.3493E-008	-0.0001166	7
	53	290	1.512097	21216.71	-6244.347	1	22116.52	-16.39983	-9.286543E-008	-7.4735E-005	7
	54	295	1.201923	21949.29	-7775.294	1	23285.76	-19.50613	-9.987838E-008	-0.0000989	7
	55	302	0.956633	22903.66	-9602.98	1	24835.36	-22.7472	-1.309465E-007	-0.0006585	7
