EXPLAIN
TAG	EISPOT
TITLE	LABEL	Potentiostatic EIS	Test Identifier
DATE	LABEL	10/5/2021	Date
TIME	LABEL	15:02:07	Time
NOTES	NOTES	1	Notes...
	
PSTAT	PSTAT	REF3000-16137	Potentiostat
VDC	POTEN	0.00000E+000	T	DC Voltage (V)
FREQINIT	QUANT	3.00000E+005	Initial Freq. (Hz)
FREQFINAL	QUANT	1.00000E+000	Final Freq. (Hz)
PTSPERDEC	QUANT	1.00000E+001	Points/decade
VAC	QUANT	5.00000E+001	AC Voltage (mV rms)
AREA	QUANT	1.00000E+000	Sample Area (cm^2)
SPEED	SELECTOR	2	Optimize for:
ZGUESS	QUANT	1.00000E+003	Estimated Z (ohms)
EOC	QUANT	0	Open Circuit (V)
SEQUENCER	TOGGLE	TRUE	Run as Sequence
PSTATMODEL	IQUANT	5	Pstat Model
PSTATSECTION	LABEL	REF3000-16137	Pstat Section
PSTATSERIALNO	LABEL	16137	Pstat Serial Number
CTRLMODE	IQUANT	1	Control Mode
IESTAB	IQUANT	0	I/E Stability
CASPEED	IQUANT	1	Control Amp Speed
CONVENTION	IQUANT	1	Current Convention
ICHRANGE	IQUANT	2	Ich Range
ICHRANGEMODE	TOGGLE	F	Ich Auto Range
ICHOFFSETENABLE	TOGGLE	T	Ich Offset Enable
ICHOFFSET	QUANT	0	Ich Offset (V)
ICHFILTER	IQUANT	3	Ich Filter
VCHRANGE	IQUANT	2	Vch Range
VCHRANGEMODE	TOGGLE	F	Vch Auto Range
VCHOFFSETENABLE	TOGGLE	T	Vch Offset Enable
VCHOFFSET	QUANT	0	Vch Offset (V)
VCHFILTER	IQUANT	3	Vch Filter
ACHRANGE	IQUANT	2	Ach Range
ACHOFFSETENABLE	TOGGLE	F	Ach Offset Enable
ACHOFFSET	QUANT	0	Ach Offset (V)
ACHFILTER	IQUANT	3	Ach Filter
IERANGELOWERLIMIT	IQUANT	2	I/E Range Lower Limit
IERANGEMODE	TOGGLE	F	I/E AutoRange
IERANGE	IQUANT	11	I/E Range
POSFEEDENABLE	TOGGLE	F	Positive Feedback IR Comp
POSFEEDRESISTANCE	QUANT	0	Positive Feedback Resistance (ohm)
ACHSELECT	IQUANT	0	Ach Select
CABLEID	IQUANT	13	Cable ID
DCCALDATE	LABEL	9/10/2021	DC Calibration Date
ACCALDATE	LABEL	9/10/2021	AC Calibration Date
THERMOSELECT	IQUANT	1	Thermo Select
FRAMEWORKVERSION	QUANT	6.33	Framework Version
INSTRUMENTVERSION	LABEL	3.50	Instrument Version
COMPLIANCEVOLTAGE	IQUANT	0	Compliance Voltage
ZCURVE	TABLE
	Pt	Time	Freq	Zreal	Zimag	Zsig	Zmod	Zphz	Idc	Vdc	IERange
	#	s	Hz	ohm	ohm	V	ohm	°	A	V	#
	0	14	300046.9	271.6362	-27.82744	1	273.0579	-5.849191	2.817048E-005	-0.0005214	10
	1	18	238359.4	278.386	-18.14718	1	278.9768	-3.72967	-9.608078E-006	0.0011307	9
	2	25	189328.1	284.5471	-18.89045	1	285.1734	-3.798166	2.553175E-005	-2.62804E-005	10
	3	31	150421.9	289.7147	-11.5395	1	289.9444	-2.280919	-8.587207E-005	0.002075	9
	4	37	119484.4	294.4171	-11.17956	1	294.6293	-2.174581	8.082098E-005	-0.0028012	9
	5	41	94921.88	298.4302	-9.96824	1	298.5966	-1.913097	2.031499E-005	-0.0002944	9
	6	45	75421.88	300.846	-8.197504	1	300.9577	-1.560819	2.560236E-005	-0.0010628	9
	7	47	59859.37	303.0967	-6.783417	1	303.1726	-1.282087	2.523299E-005	-0.0010412	9
	8	50	47578.12	305.5588	-5.583712	1	305.6098	-1.046893	1.393765E-006	0.0004366	9
	9	52	37828.12	307.7422	-4.854748	1	307.7805	-0.9037875	-2.353137E-005	0.0003134	9
	10	55	30046.88	309.7185	-4.049399	1	309.745	-0.7490681	1.013384E-006	0.0003444	9
	11	57	23859.38	312.4222	-3.766117	1	312.4449	-0.6906428	2.538167E-005	-0.0009893	9
	12	60	18984.38	314.3692	-3.09978	1	314.3845	-0.5649362	2.043593E-005	-0.0003472	9
	13	62	15046.87	316.6645	-2.266361	1	316.6726	-0.4100576	-2.59102E-005	0.0007276	9
	14	64	11953.13	318.135	-2.279026	1	318.1432	-0.4104432	-2.325363E-005	0.0003086	9
	15	67	9515.62	320.9106	-2.791891	1	320.9228	-0.4984551	1.502978E-005	-0.001065	9
	16	69	7546.875	323.0394	-3.060655	1	323.0539	-0.5428358	-1.7324E-005	-6.08519E-005	9
	17	71	5928.309	325.5629	-2.784863	1	325.5748	-0.4900959	-1.794901E-005	0.0008202	9
	18	74	4733.456	327.1299	-2.647126	1	327.1406	-0.4636258	1.86001E-006	0.0003798	9
	19	76	3796.875	329.9509	-2.821215	1	329.963	-0.4898903	2.608701E-005	-0.0010609	9
	20	78	2987.132	331.2019	-3.932971	1	331.2253	-0.6803464	-2.363978E-005	0.0003289	9
	21	81	2390.625	334.1898	-5.158176	1	334.2296	-0.8842826	-2.52348E-005	0.0005451	9
	22	83	1884.191	336.2592	-6.231757	1	336.3169	-1.061718	-1.730229E-005	-7.139129E-005	9
	23	85	1516.544	338.7408	-6.969209	1	338.8125	-1.17863	-1.019584E-005	-0.0003048	9
	24	88	1193.986	341.2667	-8.884979	1	341.3823	-1.491376	1.546058E-005	-0.0010567	9
	25	90	946.5144	343.5439	-10.72291	1	343.7112	-1.787771	1.504775E-005	-0.0010345	9
	26	93	751.7689	346.8311	-13.17157	1	347.0811	-2.174872	-8.917879E-006	0.0006686	9
	27	95	597.4265	349.8736	-16.37408	1	350.2565	-2.679488	-1.643845E-005	-0.000103	9
	28	98	477.4305	352.4415	-20.55003	1	353.0401	-3.337004	3.164251E-007	-0.0001371	9
	29	100	376.6741	353.7426	-25.39549	1	354.653	-4.106269	-1.698656E-007	-0.0001105	8
	30	102	298.2954	356.7117	-31.53316	1	358.1028	-5.051789	-1.237142E-007	-0.0001558	8
	31	105	237.7717	359.8906	-38.98097	1	361.9955	-6.181801	-1.322429E-007	-0.0001377	8
	32	107	189.0121	363.2989	-48.32808	1	366.4993	-7.577322	-1.371034E-007	-0.0001236	8
	33	109	150.2404	367.0073	-59.9201	1	371.8666	-9.272686	-1.279763E-007	-0.0001135	8
	34	112	119.1737	371.0607	-74.44629	1	378.4551	-11.34469	-1.285788E-007	-0.0001287	8
	35	114	95.0169	375.5941	-92.04195	1	386.7075	-13.76938	-1.390503E-007	-0.0001232	8
	36	117	75.60484	380.8205	-113.979	1	397.5116	-16.66237	-1.458441E-007	-0.0001276	8
	37	119	54.50582	388.4748	-154.6397	1	418.1221	-21.70596	-1.282458E-007	-0.0001333	8
	38	122	45.95588	394.445	-181.274	1	434.105	-24.68196	-1.301415E-007	-0.0001367	8
	39	124	37.20238	402.0676	-220.5462	1	458.5836	-28.7461	-1.835541E-007	-0.0001182	8
	40	127	30.04808	411.205	-268.7484	1	491.2385	-33.16715	-1.694819E-007	-0.0001226	8
	41	129	23.91582	422.5613	-331.7215	1	537.2125	-38.13283	-1.857443E-007	-0.0001331	8
	42	131	18.60119	437.314	-417.9391	1	604.9105	-43.70225	-1.777996E-007	-0.0001281	8
	43	134	15.02404	453.0545	-508.3875	1	680.9672	-48.29386	-1.60692E-007	-0.0001302	8
	44	136	12.01923	473.0574	-623.894	1	782.9604	-52.82938	-1.022331E-007	-0.0001147	8
	45	138	9.450605	499.2885	-777.1654	1	923.7289	-57.28136	-1.545117E-007	-0.0001254	8
	46	141	7.512019	530.7583	-958.493	1	1095.634	-61.02485	-1.700748E-007	-0.0001305	8
	47	144	5.978954	570.3426	-1179.58	1	1310.229	-64.19561	-1.205437E-007	-0.0001252	8
	48	147	4.734848	619.819	-1458.565	1	1584.798	-66.97687	-1.827018E-007	-0.0001426	8
	49	150	3.75601	683.1191	-1798.241	1	1923.623	-69.19913	-1.147133E-007	-0.0001031	8
	50	153	3.004808	757.6286	-2198.937	1	2325.796	-70.98896	-1.610455E-007	-0.0001298	8
	51	157	2.372217	859.6805	-2722.273	1	2854.789	-72.47414	-1.69456E-007	-0.0001919	8
	52	161	1.878005	979.66	-3363.579	1	3503.341	-73.76152	-1.499561E-007	-0.0001173	8
	53	166	1.512097	1126.444	-4079.593	1	4232.251	-74.56428	-1.735418E-007	-0.000187	8
	54	172	1.201923	1316.307	-5039.084	1	5208.169	-75.36036	-2.757743E-008	-7.556621E-005	7
	55	178	0.956633	1554.22	-6189.218	1	6381.381	-75.90352	-4.332103E-008	-0.0006475	7
