EXPLAIN
TAG	EISPOT
TITLE	LABEL	Potentiostatic EIS	Test Identifier
DATE	LABEL	10/5/2021	Date
TIME	LABEL	14:20:28	Time
NOTES	NOTES	1	Notes...
	
PSTAT	PSTAT	REF3000-16137	Potentiostat
VDC	POTEN	0.00000E+000	T	DC Voltage (V)
FREQINIT	QUANT	3.00000E+005	Initial Freq. (Hz)
FREQFINAL	QUANT	1.00000E+000	Final Freq. (Hz)
PTSPERDEC	QUANT	1.00000E+001	Points/decade
VAC	QUANT	5.00000E+001	AC Voltage (mV rms)
AREA	QUANT	1.00000E+000	Sample Area (cm^2)
SPEED	SELECTOR	2	Optimize for:
ZGUESS	QUANT	1.00000E+003	Estimated Z (ohms)
EOC	QUANT	0	Open Circuit (V)
SEQUENCER	TOGGLE	TRUE	Run as Sequence
PSTATMODEL	IQUANT	5	Pstat Model
PSTATSECTION	LABEL	REF3000-16137	Pstat Section
PSTATSERIALNO	LABEL	16137	Pstat Serial Number
CTRLMODE	IQUANT	1	Control Mode
IESTAB	IQUANT	0	I/E Stability
CASPEED	IQUANT	1	Control Amp Speed
CONVENTION	IQUANT	1	Current Convention
ICHRANGE	IQUANT	2	Ich Range
ICHRANGEMODE	TOGGLE	F	Ich Auto Range
ICHOFFSETENABLE	TOGGLE	T	Ich Offset Enable
ICHOFFSET	QUANT	0	Ich Offset (V)
ICHFILTER	IQUANT	3	Ich Filter
VCHRANGE	IQUANT	2	Vch Range
VCHRANGEMODE	TOGGLE	F	Vch Auto Range
VCHOFFSETENABLE	TOGGLE	T	Vch Offset Enable
VCHOFFSET	QUANT	0	Vch Offset (V)
VCHFILTER	IQUANT	3	Vch Filter
ACHRANGE	IQUANT	2	Ach Range
ACHOFFSETENABLE	TOGGLE	F	Ach Offset Enable
ACHOFFSET	QUANT	0	Ach Offset (V)
ACHFILTER	IQUANT	3	Ach Filter
IERANGELOWERLIMIT	IQUANT	2	I/E Range Lower Limit
IERANGEMODE	TOGGLE	F	I/E AutoRange
IERANGE	IQUANT	11	I/E Range
POSFEEDENABLE	TOGGLE	F	Positive Feedback IR Comp
POSFEEDRESISTANCE	QUANT	0	Positive Feedback Resistance (ohm)
ACHSELECT	IQUANT	0	Ach Select
CABLEID	IQUANT	13	Cable ID
DCCALDATE	LABEL	9/10/2021	DC Calibration Date
ACCALDATE	LABEL	9/10/2021	AC Calibration Date
THERMOSELECT	IQUANT	1	Thermo Select
FRAMEWORKVERSION	QUANT	6.33	Framework Version
INSTRUMENTVERSION	LABEL	3.50	Instrument Version
COMPLIANCEVOLTAGE	IQUANT	0	Compliance Voltage
ZCURVE	TABLE
	Pt	Time	Freq	Zreal	Zimag	Zsig	Zmod	Zphz	Idc	Vdc	IERange
	#	s	Hz	ohm	ohm	V	ohm	°	A	V	#
	0	10	300046.9	5.367939	2.224977	1	5.810791	22.51371	-2.828418E-005	-0.0007528	10
	1	13	238359.4	5.364523	1.76085	1	5.646123	18.17189	-8.19499E-005	-0.0008462	10
	2	16	189328.1	5.354033	1.388247	1	5.531085	14.53611	-8.583673E-005	-0.0006535	10
	3	19	150421.9	5.343692	1.091898	1	5.454107	11.5485	1.638727E-005	-0.0004853	10
	4	21	119484.4	5.352718	0.8389094	1	5.418059	8.907273	1.841482E-005	-0.0003624	10
	5	24	94921.88	5.363172	0.6474693	1	5.402113	6.883724	-1.459474E-005	-0.0002592	10
	6	26	75421.88	5.368216	0.473125	1	5.389025	5.03672	2.804821E-005	-0.0002667	10
	7	29	59859.37	5.37622	0.3224339	1	5.38588	3.432151	1.162302E-005	-0.0002419	10
	8	31	47578.12	5.389976	0.1913491	1	5.393372	2.033199	-2.120006E-005	-0.0001561	10
	9	34	37828.12	5.403439	0.0710933	1	5.403906	0.7537993	7.830116E-006	-0.000196	10
	10	36	30046.88	5.41898	-0.0428144	1	5.419149	-0.452674	3.834345E-006	-0.000185	10
	11	39	23859.38	5.436777	-0.1564693	1	5.439028	-1.648505	2.390186E-005	-0.0001592	10
	12	41	18984.38	5.4536	-0.2750116	1	5.46053	-2.886839	2.077714E-005	-0.00017	10
	13	43	15046.87	5.474615	-0.4074262	1	5.489754	-4.256163	-1.925549E-005	-0.000177	10
	14	46	11953.13	5.497081	-0.5577124	1	5.5253	-5.793183	-5.147246E-006	-0.0001573	10
	15	48	9515.62	5.523217	-0.7317038	1	5.571474	-7.546477	-8.887572E-006	-0.000151	10
	16	50	7546.875	5.553288	-0.9429469	1	5.632776	-9.63689	-3.130216E-005	-0.0001349	10
	17	53	5928.309	5.590969	-1.209559	1	5.720312	-12.20733	-2.760558E-005	-0.00012	10
	18	55	4733.456	5.633811	-1.51381	1	5.833648	-15.04018	-1.594249E-005	-0.0001626	10
	19	57	3796.875	5.683573	-1.876741	1	5.985412	-18.27345	-2.57862E-005	-0.0001386	10
	20	60	2987.132	5.750014	-2.361463	1	6.216042	-22.32738	2.253252E-005	-0.0001476	10
	21	62	2390.625	5.826875	-2.914845	1	6.515274	-26.57612	1.990147E-005	-0.0001551	10
	22	64	1884.191	5.927588	-3.646553	1	6.959429	-31.59913	1.191538E-005	-0.0001615	10
	23	67	1516.544	6.041432	-4.468507	1	7.514417	-36.48825	6.730682E-006	-0.0001335	10
	24	69	1193.986	6.196062	-5.578994	1	8.337646	-42.00018	-1.60086E-005	-0.000164	10
	25	71	946.5144	6.38953	-6.913481	1	9.413942	-47.25548	-1.678809E-006	-0.0001403	10
	26	74	751.7689	6.620872	-8.560023	1	10.82173	-52.27933	-1.543621E-005	-0.0001325	10
	27	76	597.4265	6.918598	-10.58074	1	12.64196	-56.81989	3.659011E-006	-0.0001584	10
	28	78	477.4305	7.282875	-13.00876	1	14.90866	-60.75799	-1.55288E-006	-0.0001174	10
	29	81	376.6741	7.766276	-16.16064	1	17.9299	-64.33259	-1.472168E-006	-0.0001179	10
	30	83	298.2954	8.366201	-19.99763	1	21.67714	-67.29753	-1.968664E-006	-0.0001178	10
	31	85	237.7717	9.099692	-24.58709	1	26.21696	-69.69046	-1.806981E-006	-0.0001213	10
	32	88	189.0121	10.03091	-30.30072	1	31.9179	-71.68312	-1.848062E-006	-0.0001187	10
	33	90	150.2404	11.20142	-37.32172	1	38.96642	-73.29385	-1.972846E-006	-0.0001193	10
	34	93	119.1737	12.68004	-45.99649	1	47.71227	-74.58784	9.416665E-007	-0.0001261	9
	35	95	95.0169	14.5341	-56.46507	1	58.30561	-75.56541	8.592272E-007	-0.0001338	9
	36	97	75.60484	16.92224	-69.41457	1	71.4475	-76.29939	8.01086E-007	-0.0001341	9
	37	100	54.50582	21.57876	-93.17776	1	95.6438	-76.9609	7.563194E-007	-0.0001362	9
	38	103	45.95588	24.7717	-108.5755	1	111.3655	-77.14785	9.484008E-007	-0.0001304	9
	39	105	37.20238	29.67422	-131.0745	1	134.3916	-77.24373	8.897924E-007	-0.0001362	9
	40	107	30.04808	35.94804	-158.3028	1	162.3331	-77.20602	9.008897E-007	-0.0001397	9
	41	110	23.91582	44.5899	-193.4529	1	198.5252	-77.02031	8.198941E-007	-0.0001399	9
	42	112	18.60119	56.79114	-240.5946	1	247.2064	-76.71873	8.922333E-007	-0.0001362	9
	43	114	15.02404	69.98885	-289.106	1	297.4571	-76.39125	8.793401E-007	-0.0001368	9
	44	117	12.01923	87.3461	-349.418	1	360.1698	-75.96505	1.070314E-006	-0.0001652	9
	45	119	9.450605	110.1062	-425.9231	1	439.9248	-75.50568	6.955651E-007	-0.0001485	8
	46	122	7.512019	137.3782	-515.6038	1	533.5917	-75.08064	6.380974E-007	-0.0001362	8
	47	124	5.978954	170.6834	-623.2029	1	646.1538	-74.68337	7.54698E-007	-0.000125	8
	48	127	4.734848	212.8939	-755.7277	1	785.1421	-74.26709	6.655739E-007	-0.0001493	8
	49	131	3.75601	265.2269	-915.3264	1	952.978	-73.84042	8.0164E-007	-0.0001074	8
	50	134	3.004808	327.8683	-1100.186	1	1148.001	-73.40533	7.82915E-007	-0.0001271	8
	51	138	2.372217	415.5945	-1337.077	1	1400.176	-72.73354	7.268811E-007	-0.0001763	8
	52	142	1.878005	525.5858	-1622.69	1	1705.686	-72.05298	8.175816E-007	-0.0001191	8
	53	147	1.512097	657.4651	-1931.961	1	2040.768	-71.20606	7.587362E-007	-0.0001091	8
	54	152	1.201923	848.9725	-2326.57	1	2476.627	-69.95282	7.941515E-007	-0.0001116	8
	55	158	0.956633	1095.12	-2776.532	1	2984.697	-68.47472	6.179756E-007	-0.0006687	8
