EXPLAIN
TAG	EISPOT
TITLE	LABEL	Potentiostatic EIS	Test Identifier
DATE	LABEL	10/5/2021	Date
TIME	LABEL	15:05:14	Time
NOTES	NOTES	1	Notes...
	
PSTAT	PSTAT	REF3000-16137	Potentiostat
VDC	POTEN	0.00000E+000	T	DC Voltage (V)
FREQINIT	QUANT	3.00000E+005	Initial Freq. (Hz)
FREQFINAL	QUANT	1.00000E+000	Final Freq. (Hz)
PTSPERDEC	QUANT	1.00000E+001	Points/decade
VAC	QUANT	5.00000E+001	AC Voltage (mV rms)
AREA	QUANT	1.00000E+000	Sample Area (cm^2)
SPEED	SELECTOR	2	Optimize for:
ZGUESS	QUANT	1.00000E+003	Estimated Z (ohms)
EOC	QUANT	0	Open Circuit (V)
SEQUENCER	TOGGLE	TRUE	Run as Sequence
PSTATMODEL	IQUANT	5	Pstat Model
PSTATSECTION	LABEL	REF3000-16137	Pstat Section
PSTATSERIALNO	LABEL	16137	Pstat Serial Number
CTRLMODE	IQUANT	1	Control Mode
IESTAB	IQUANT	0	I/E Stability
CASPEED	IQUANT	1	Control Amp Speed
CONVENTION	IQUANT	1	Current Convention
ICHRANGE	IQUANT	2	Ich Range
ICHRANGEMODE	TOGGLE	F	Ich Auto Range
ICHOFFSETENABLE	TOGGLE	T	Ich Offset Enable
ICHOFFSET	QUANT	0	Ich Offset (V)
ICHFILTER	IQUANT	3	Ich Filter
VCHRANGE	IQUANT	2	Vch Range
VCHRANGEMODE	TOGGLE	F	Vch Auto Range
VCHOFFSETENABLE	TOGGLE	T	Vch Offset Enable
VCHOFFSET	QUANT	0	Vch Offset (V)
VCHFILTER	IQUANT	3	Vch Filter
ACHRANGE	IQUANT	2	Ach Range
ACHOFFSETENABLE	TOGGLE	F	Ach Offset Enable
ACHOFFSET	QUANT	0	Ach Offset (V)
ACHFILTER	IQUANT	3	Ach Filter
IERANGELOWERLIMIT	IQUANT	2	I/E Range Lower Limit
IERANGEMODE	TOGGLE	F	I/E AutoRange
IERANGE	IQUANT	11	I/E Range
POSFEEDENABLE	TOGGLE	F	Positive Feedback IR Comp
POSFEEDRESISTANCE	QUANT	0	Positive Feedback Resistance (ohm)
ACHSELECT	IQUANT	0	Ach Select
CABLEID	IQUANT	13	Cable ID
DCCALDATE	LABEL	9/10/2021	DC Calibration Date
ACCALDATE	LABEL	9/10/2021	AC Calibration Date
THERMOSELECT	IQUANT	1	Thermo Select
FRAMEWORKVERSION	QUANT	6.33	Framework Version
INSTRUMENTVERSION	LABEL	3.50	Instrument Version
COMPLIANCEVOLTAGE	IQUANT	0	Compliance Voltage
ZCURVE	TABLE
	Pt	Time	Freq	Zreal	Zimag	Zsig	Zmod	Zphz	Idc	Vdc	IERange
	#	s	Hz	ohm	ohm	V	ohm	°	A	V	#
	0	14	300046.9	454.2928	-65.79964	1	459.0333	-8.241392	2.329063E-005	-0.0021901	9
	1	20	238359.4	467.9658	-56.31289	1	471.3418	-6.861722	5.273497E-005	-0.0004119	9
	2	26	189328.1	475.9198	-47.53188	1	478.2875	-5.70343	-8.422809E-006	-0.0017882	9
	3	32	150421.9	490.0099	-42.22517	1	491.8259	-4.925129	1.822908E-005	-0.0007452	9
	4	37	119484.4	502.2692	-19.06742	1	502.631	-2.17405	-3.078754E-006	0.0079234	8
	5	43	94921.88	508.745	-15.28463	1	508.9745	-1.720865	-1.566611E-005	0.005849	8
	6	46	75421.88	512.528	-13.71403	1	512.7114	-1.532733	-3.213214E-006	-0.0028519	8
	7	48	59859.37	516.8314	-11.62131	1	516.962	-1.288119	1.433684E-005	-0.0061353	8
	8	51	47578.12	521.9761	-7.782831	1	522.0342	-0.8542351	1.626048E-005	-0.0040845	8
	9	53	37828.12	525.4442	-7.909455	1	525.5037	-0.8624022	7.48204E-006	-0.0058087	8
	10	56	30046.88	530.4207	-7.455602	1	530.4731	-0.8052973	-4.754759E-006	0.0050432	8
	11	58	23859.38	534.0858	-5.870689	1	534.118	-0.6297719	7.61674E-006	0.0009161	8
	12	61	18984.38	537.5745	-5.803058	1	537.6058	-0.6184776	7.540863E-006	0.00128	8
	13	63	15046.87	543.0305	-5.518124	1	543.0585	-0.5822036	2.830265E-006	0.0027206	8
	14	66	11953.13	545.7335	-2.515609	1	545.7393	-0.2641083	1.306689E-005	-0.0015519	8
	15	68	9515.62	549.9689	-3.971286	1	549.9833	-0.4137215	-4.46943E-006	0.0050157	8
	16	70	7546.875	554.5278	-5.922062	1	554.5594	-0.6118652	1.096386E-005	-0.0058004	8
	17	73	5928.309	559.0579	-3.66169	1	559.0699	-0.3752677	-1.639895E-005	0.0048182	8
	18	75	4733.456	562.6554	-2.911036	1	562.6629	-0.2964312	1.709159E-005	-0.0058771	8
	19	78	3796.875	569.2588	-3.751513	1	569.2712	-0.3775835	1.539616E-005	-0.0063904	8
	20	80	2987.132	571.3759	-5.80495	1	571.4053	-0.5820822	2.067987E-006	-0.0046982	8
	21	82	2390.625	577.1674	-7.451674	1	577.2155	-0.7396914	-9.111656E-006	0.0058134	8
	22	85	1884.191	583.3356	-7.802565	1	583.3878	-0.7663297	2.151132E-006	-0.004653	8
	23	88	1516.544	584.7697	-7.220415	1	584.8142	-0.7074209	1.333635E-005	-0.0014714	8
	24	90	1193.986	591.7856	-8.484478	1	591.8464	-0.8213979	1.939173E-006	0.0033475	8
	25	93	946.5144	593.4152	-12.3448	1	593.5436	-1.191751	-8.970745E-006	-0.0007417	8
	26	95	751.7689	598.3285	-15.16274	1	598.5206	-1.451669	1.630231E-005	-0.0032649	8
	27	98	597.4265	604.8512	-16.97276	1	605.0893	-1.607358	-1.706214E-005	0.0050733	8
	28	100	477.4305	609.9608	-21.82829	1	610.3513	-2.049534	-2.076368E-007	-0.0001228	8
	29	102	376.6741	614.7985	-26.96929	1	615.3898	-2.511776	-2.474337E-007	-0.0001174	8
	30	105	298.2954	619.8766	-33.38539	1	620.775	-3.082864	-2.392401E-007	-0.0001139	8
	31	107	237.7717	625.3629	-41.18998	1	626.7179	-3.768385	-2.424097E-007	-0.000112	8
	32	110	189.0121	631.0659	-50.98456	1	633.1221	-4.618962	-2.023196E-007	-0.0001286	8
	33	112	150.2404	637.08	-63.14965	1	640.2021	-5.660871	-2.064626E-007	-0.0001324	8
	34	114	119.1737	643.4037	-78.36583	1	648.1586	-6.944355	-2.148281E-007	-0.00013	8
	35	117	95.0169	650.2288	-96.9042	1	657.41	-8.47646	-2.149624E-007	-0.0001354	8
	36	119	75.60484	657.8862	-120.0044	1	668.7416	-10.33762	-2.336703E-007	-0.0001238	8
	37	122	54.50582	668.0249	-162.9275	1	687.6064	-13.70652	-2.313114E-007	-0.000122	8
	38	124	45.95588	676.2852	-191.1425	1	702.7781	-15.7822	-2.367877E-007	-0.0001014	8
	39	127	37.20238	686.0931	-232.7432	1	724.4951	-18.73846	-2.066845E-007	-0.0001318	8
	40	129	30.04808	697.5554	-284.0405	1	753.1683	-22.15587	-2.551506E-007	-0.0001368	8
	41	132	23.91582	711.3755	-351.0734	1	793.2891	-26.26696	-2.535833E-007	-0.0001206	8
	42	134	18.60119	728.4734	-443.2628	1	852.7341	-31.31975	-1.429596E-007	-0.0001602	8
	43	136	15.02404	746.6481	-539.3904	1	921.1001	-35.84494	-2.492142E-007	-0.0001061	8
	44	139	12.01923	769.4528	-662.5989	1	1015.428	-40.73273	-1.975263E-007	-0.000121	8
	45	141	9.450605	798.6426	-825.8613	1	1148.859	-45.9599	-2.966501E-007	-0.0001202	8
	46	143	7.512019	833.3004	-1019.211	1	1316.503	-50.73079	-2.787639E-007	-0.0001545	8
	47	146	5.978954	875.4554	-1256.159	1	1531.129	-55.12618	-2.618132E-007	-0.0001235	8
	48	149	4.734848	930.4496	-1555.467	1	1812.516	-59.11297	-2.665732E-007	-0.0001011	8
	49	153	3.75601	996.511	-1921.045	1	2164.127	-62.58271	-2.657996E-007	-0.0001487	8
	50	156	3.004808	1076.285	-2352.141	1	2586.688	-65.41226	-2.513222E-007	-0.0001518	8
	51	160	2.372217	1180.565	-2911.555	1	3141.797	-67.92863	-2.628359E-007	-0.0001231	8
	52	164	1.878005	1315.578	-3604.065	1	3836.669	-69.94659	-2.925622E-007	-0.0001274	8
	53	169	1.512097	1465.659	-4392.645	1	4630.711	-71.5481	-4.601615E-008	-0.000191	7
	54	174	1.201923	1671.495	-5412.158	1	5664.394	-72.83718	-6.070174E-008	-0.0001376	7
	55	180	0.956633	1917.654	-6647.866	1	6918.925	-73.90918	-6.094727E-008	-0.0006527	7
