EXPLAIN
TAG	EISPOT
TITLE	LABEL	Potentiostatic EIS	Test Identifier
DATE	LABEL	10/5/2021	Date
TIME	LABEL	14:31:36	Time
NOTES	NOTES	1	Notes...
	
PSTAT	PSTAT	REF3000-16137	Potentiostat
VDC	POTEN	0.00000E+000	T	DC Voltage (V)
FREQINIT	QUANT	3.00000E+005	Initial Freq. (Hz)
FREQFINAL	QUANT	1.00000E+000	Final Freq. (Hz)
PTSPERDEC	QUANT	1.00000E+001	Points/decade
VAC	QUANT	5.00000E+001	AC Voltage (mV rms)
AREA	QUANT	1.00000E+000	Sample Area (cm^2)
SPEED	SELECTOR	2	Optimize for:
ZGUESS	QUANT	1.00000E+003	Estimated Z (ohms)
EOC	QUANT	0	Open Circuit (V)
SEQUENCER	TOGGLE	TRUE	Run as Sequence
PSTATMODEL	IQUANT	5	Pstat Model
PSTATSECTION	LABEL	REF3000-16137	Pstat Section
PSTATSERIALNO	LABEL	16137	Pstat Serial Number
CTRLMODE	IQUANT	1	Control Mode
IESTAB	IQUANT	0	I/E Stability
CASPEED	IQUANT	1	Control Amp Speed
CONVENTION	IQUANT	1	Current Convention
ICHRANGE	IQUANT	2	Ich Range
ICHRANGEMODE	TOGGLE	F	Ich Auto Range
ICHOFFSETENABLE	TOGGLE	T	Ich Offset Enable
ICHOFFSET	QUANT	0	Ich Offset (V)
ICHFILTER	IQUANT	3	Ich Filter
VCHRANGE	IQUANT	2	Vch Range
VCHRANGEMODE	TOGGLE	F	Vch Auto Range
VCHOFFSETENABLE	TOGGLE	T	Vch Offset Enable
VCHOFFSET	QUANT	0	Vch Offset (V)
VCHFILTER	IQUANT	3	Vch Filter
ACHRANGE	IQUANT	2	Ach Range
ACHOFFSETENABLE	TOGGLE	F	Ach Offset Enable
ACHOFFSET	QUANT	0	Ach Offset (V)
ACHFILTER	IQUANT	3	Ach Filter
IERANGELOWERLIMIT	IQUANT	2	I/E Range Lower Limit
IERANGEMODE	TOGGLE	F	I/E AutoRange
IERANGE	IQUANT	11	I/E Range
POSFEEDENABLE	TOGGLE	F	Positive Feedback IR Comp
POSFEEDRESISTANCE	QUANT	0	Positive Feedback Resistance (ohm)
ACHSELECT	IQUANT	0	Ach Select
CABLEID	IQUANT	13	Cable ID
DCCALDATE	LABEL	9/10/2021	DC Calibration Date
ACCALDATE	LABEL	9/10/2021	AC Calibration Date
THERMOSELECT	IQUANT	1	Thermo Select
FRAMEWORKVERSION	QUANT	6.33	Framework Version
INSTRUMENTVERSION	LABEL	3.50	Instrument Version
COMPLIANCEVOLTAGE	IQUANT	0	Compliance Voltage
ZCURVE	TABLE
	Pt	Time	Freq	Zreal	Zimag	Zsig	Zmod	Zphz	Idc	Vdc	IERange
	#	s	Hz	ohm	ohm	V	ohm	°	A	V	#
	0	8	300046.9	10.08186	2.124748	1	10.30332	11.90091	6.509807E-005	-0.0009595	10
	1	11	238359.4	10.08616	1.697718	1	10.22804	9.55456	7.195798E-005	-0.0009026	10
	2	14	189328.1	10.10722	1.340833	1	10.19577	7.556787	-1.878143E-005	-0.0004135	10
	3	17	150421.9	10.13785	1.043979	1	10.19146	5.879503	-8.248832E-005	-0.0001779	10
	4	19	119484.4	10.14685	0.8062631	1	10.17883	4.543146	-4.618791E-005	-0.000176	10
	5	22	94921.88	10.17158	0.6130656	1	10.19003	3.449183	2.79113E-006	-0.0002376	10
	6	24	75421.88	10.19916	0.4379506	1	10.20856	2.458762	1.119475E-005	-0.0001733	10
	7	27	59859.37	10.22986	0.2871433	1	10.23389	1.60782	-7.625596E-006	-0.0001249	10
	8	29	47578.12	10.26245	0.1550818	1	10.26363	0.8657634	1.504913E-005	-0.000196	10
	9	32	37828.12	10.29785	0.0363898	1	10.29791	0.2024669	-2.46719E-005	-0.0001545	10
	10	34	30046.88	10.3335	-0.0772642	1	10.33379	-0.4283956	2.173373E-005	-0.0001825	10
	11	37	23859.38	10.36929	-0.1944052	1	10.37111	-1.074066	2.132009E-005	-0.0001828	10
	12	39	18984.38	10.40684	-0.3174146	1	10.41168	-1.747013	-2.334347E-005	-0.0001019	10
	13	42	15046.87	10.4454	-0.4577354	1	10.45543	-2.509194	-2.538938E-005	-8.527332E-005	10
	14	44	11953.13	10.4851	-0.6173713	1	10.50325	-3.369733	1.397146E-005	-0.0001694	10
	15	46	9515.62	10.53029	-0.8039253	1	10.56093	-4.365724	-7.5096E-006	-0.0001589	10
	16	48	7546.875	10.57953	-1.029174	1	10.62947	-5.556235	-2.415666E-005	-0.0001337	10
	17	51	5928.309	10.63585	-1.317909	1	10.71719	-7.063628	2.134977E-005	-0.0001436	10
	18	53	4733.456	10.69707	-1.646719	1	10.82307	-8.751479	2.410736E-005	-0.0001491	10
	19	55	3796.875	10.76796	-2.041632	1	10.9598	-10.73598	-1.124366E-005	-8.032025E-005	10
	20	58	2987.132	10.85254	-2.569032	1	11.15247	-13.318	-1.217564E-005	-0.0001276	10
	21	60	2390.625	10.94611	-3.175042	1	11.39729	-16.17539	1.882187E-005	-0.0001624	10
	22	62	1884.191	11.06702	-3.97547	1	11.75939	-19.75919	-2.139286E-005	-0.0001006	10
	23	65	1516.544	11.20329	-4.877632	1	12.21904	-23.52711	-2.566204E-005	-0.0001022	10
	24	67	1193.986	11.38114	-6.095508	1	12.91067	-28.17261	2.331539E-005	-0.0001447	10
	25	70	946.5144	11.59651	-7.573751	1	13.85066	-33.14881	-1.386771E-005	-0.0001404	10
	26	72	751.7689	11.85871	-9.369803	1	15.11364	-38.31298	2.498583E-005	-0.0001514	10
	27	74	597.4265	12.18097	-11.58998	1	16.8138	-43.57581	-2.834622E-005	-0.000112	10
	28	77	477.4305	12.58052	-14.26077	1	19.01681	-48.582	-1.599773E-006	-0.0001112	10
	29	79	376.6741	13.09329	-17.73646	1	22.04578	-53.56478	1.465952E-006	-0.0001577	10
	30	81	298.2954	13.73017	-21.97797	1	25.91426	-58.00598	-1.456563E-006	-0.0001127	10
	31	84	237.7717	14.51126	-27.06368	1	30.70862	-61.80025	-2.04252E-006	-0.0001223	10
	32	86	189.0121	15.49917	-33.38689	1	36.80909	-65.09789	-2.03037E-006	-0.0001153	10
	33	88	150.2404	16.71773	-41.11764	1	44.38629	-67.87418	7.746987E-007	-0.0001349	9
	34	91	119.1737	18.28049	-50.77033	1	53.96112	-70.19796	8.409876E-007	-0.0001264	9
	35	93	95.0169	20.19327	-62.37095	1	65.5584	-72.06008	8.177071E-007	-0.0001315	9
	36	96	75.60484	22.61131	-76.74252	1	80.00428	-73.58298	7.769462E-007	-0.0001338	9
	37	98	54.50582	27.18072	-103.2032	1	106.7225	-75.24503	6.924478E-007	-0.0001367	9
	38	101	45.95588	30.27939	-120.4418	1	124.1897	-75.88815	8.695784E-007	-0.0001289	9
	39	103	37.20238	34.97496	-145.7507	1	149.8884	-76.50621	8.06302E-007	-0.0001289	9
	40	105	30.04808	40.92781	-176.6374	1	181.317	-76.95448	8.802554E-007	-0.0001366	9
	41	108	23.91582	49.09388	-216.8172	1	222.3059	-77.24167	8.302064E-007	-0.0001361	9
	42	110	18.60119	60.79803	-271.283	1	278.0123	-77.368	8.051305E-007	-0.0001338	9
	43	113	15.02404	73.6863	-327.8321	1	336.0113	-77.33224	1.020448E-006	-0.0001247	9
	44	115	12.01923	90.79614	-398.843	1	409.0473	-77.17525	9.649951E-007	-0.0001311	9
	45	117	9.450605	113.9483	-489.8123	1	502.892	-76.90384	5.205511E-007	-0.0001112	8
	46	120	7.512019	142.7122	-596.5456	1	613.3787	-76.54594	5.448245E-007	-0.000129	8
	47	122	5.978954	178.3016	-724.6514	1	746.2648	-76.17688	6.11729E-007	-0.0001137	8
	48	126	4.734848	223.719	-882.3465	1	910.2667	-75.77248	5.942639E-007	-0.0001462	8
	49	129	3.75601	279.4181	-1071.357	1	1107.195	-75.38245	7.107007E-007	-0.0001284	8
	50	132	3.004808	345.4631	-1289.48	1	1334.955	-75.00216	6.520273E-007	-0.0001272	8
	51	136	2.372217	433.4558	-1569.909	1	1628.649	-74.56504	6.164643E-007	-0.0001857	8
	52	140	1.878005	537.3215	-1908.454	1	1982.652	-74.27554	6.774365E-007	-0.0001171	8
	53	145	1.512097	660.4254	-2280.698	1	2374.393	-73.85048	6.427803E-007	-0.0001738	8
	54	150	1.201923	824.8832	-2770.375	1	2890.572	-73.41902	6.459454E-007	-0.0001174	8
	55	157	0.956633	1035.578	-3351.669	1	3508.006	-72.83022	5.907464E-007	-0.0006659	8
