EXPLAIN
TAG	EISPOT
TITLE	LABEL	Potentiostatic EIS	Test Identifier
DATE	LABEL	10/5/2021	Date
TIME	LABEL	14:42:41	Time
NOTES	NOTES	1	Notes...
	
PSTAT	PSTAT	REF3000-16137	Potentiostat
VDC	POTEN	0.00000E+000	T	DC Voltage (V)
FREQINIT	QUANT	3.00000E+005	Initial Freq. (Hz)
FREQFINAL	QUANT	1.00000E+000	Final Freq. (Hz)
PTSPERDEC	QUANT	1.00000E+001	Points/decade
VAC	QUANT	5.00000E+001	AC Voltage (mV rms)
AREA	QUANT	1.00000E+000	Sample Area (cm^2)
SPEED	SELECTOR	2	Optimize for:
ZGUESS	QUANT	1.00000E+003	Estimated Z (ohms)
EOC	QUANT	0	Open Circuit (V)
SEQUENCER	TOGGLE	TRUE	Run as Sequence
PSTATMODEL	IQUANT	5	Pstat Model
PSTATSECTION	LABEL	REF3000-16137	Pstat Section
PSTATSERIALNO	LABEL	16137	Pstat Serial Number
CTRLMODE	IQUANT	1	Control Mode
IESTAB	IQUANT	0	I/E Stability
CASPEED	IQUANT	1	Control Amp Speed
CONVENTION	IQUANT	1	Current Convention
ICHRANGE	IQUANT	2	Ich Range
ICHRANGEMODE	TOGGLE	F	Ich Auto Range
ICHOFFSETENABLE	TOGGLE	T	Ich Offset Enable
ICHOFFSET	QUANT	0	Ich Offset (V)
ICHFILTER	IQUANT	3	Ich Filter
VCHRANGE	IQUANT	2	Vch Range
VCHRANGEMODE	TOGGLE	F	Vch Auto Range
VCHOFFSETENABLE	TOGGLE	T	Vch Offset Enable
VCHOFFSET	QUANT	0	Vch Offset (V)
VCHFILTER	IQUANT	3	Vch Filter
ACHRANGE	IQUANT	2	Ach Range
ACHOFFSETENABLE	TOGGLE	F	Ach Offset Enable
ACHOFFSET	QUANT	0	Ach Offset (V)
ACHFILTER	IQUANT	3	Ach Filter
IERANGELOWERLIMIT	IQUANT	2	I/E Range Lower Limit
IERANGEMODE	TOGGLE	F	I/E AutoRange
IERANGE	IQUANT	11	I/E Range
POSFEEDENABLE	TOGGLE	F	Positive Feedback IR Comp
POSFEEDRESISTANCE	QUANT	0	Positive Feedback Resistance (ohm)
ACHSELECT	IQUANT	0	Ach Select
CABLEID	IQUANT	13	Cable ID
DCCALDATE	LABEL	9/10/2021	DC Calibration Date
ACCALDATE	LABEL	9/10/2021	AC Calibration Date
THERMOSELECT	IQUANT	1	Thermo Select
FRAMEWORKVERSION	QUANT	6.33	Framework Version
INSTRUMENTVERSION	LABEL	3.50	Instrument Version
COMPLIANCEVOLTAGE	IQUANT	0	Compliance Voltage
ZCURVE	TABLE
	Pt	Time	Freq	Zreal	Zimag	Zsig	Zmod	Zphz	Idc	Vdc	IERange
	#	s	Hz	ohm	ohm	V	ohm	°	A	V	#
	0	7	300046.9	24.28487	1.455122	1	24.32843	3.428998	1.729006E-005	-0.0005946	11
	1	11	238359.4	24.49562	1.434891	1	24.53761	3.35241	-2.289276E-005	-0.0004364	10
	2	15	189328.1	24.6236	0.9123887	1	24.64049	2.122034	-0.0001564	-7.938823E-005	11
	3	19	150421.9	24.76956	0.8515025	1	24.78419	1.96888	-2.545811E-005	-0.0002402	10
	4	23	119484.4	24.89989	0.5189869	1	24.9053	1.194039	-2.644278E-005	0.0005054	11
	5	26	94921.88	25.02586	0.4560241	1	25.03001	1.043935	2.428782E-005	-0.0001781	10
	6	29	75421.88	25.13282	0.3094689	1	25.13473	0.7054666	1.488588E-005	-0.0002027	10
	7	31	59859.37	25.23861	0.1763337	1	25.23923	0.4002998	1.71369E-005	-0.0001883	10
	8	34	47578.12	25.34768	0.0646185	1	25.34777	0.1460631	-2.732487E-005	-0.0001391	10
	9	36	37828.12	25.45643	-0.0468021	1	25.45648	-0.1053392	2.194042E-005	-0.000176	10
	10	39	30046.88	25.56759	-0.1581464	1	25.56808	-0.3543941	6.696782E-006	-0.000178	10
	11	41	23859.38	25.68188	-0.2734	1	25.68334	-0.609927	-2.407021E-005	-6.47345E-005	10
	12	44	18984.38	25.78516	-0.4000063	1	25.78827	-0.8887606	-2.084782E-005	-0.0001785	10
	13	46	15046.87	25.89574	-0.5465668	1	25.90151	-1.20913	-2.430253E-005	-6.40625E-005	10
	14	48	11953.13	26.00654	-0.7206314	1	26.01652	-1.587239	-1.210688E-005	-6.243755E-005	10
	15	51	9515.62	26.12428	-0.9217231	1	26.14053	-2.020685	2.341109E-005	-0.0001262	10
	16	53	7546.875	26.25236	-1.160637	1	26.278	-2.531444	2.424297E-005	-0.0001681	10
	17	55	5928.309	26.37883	-1.473504	1	26.41995	-3.197182	2.621078E-005	-0.0001521	10
	18	58	4733.456	26.51187	-1.837887	1	26.5755	-3.96558	2.132291E-005	-0.0001739	10
	19	60	3796.875	26.6456	-2.269507	1	26.74207	-4.868351	-2.378632E-005	-8.853085E-005	10
	20	62	2987.132	26.8081	-2.845818	1	26.95872	-6.059549	-1.749129E-005	-0.0001298	10
	21	65	2390.625	26.97563	-3.514332	1	27.20358	-7.422578	-1.188589E-005	-6.162504E-005	10
	22	67	1884.191	27.17807	-4.39151	1	27.53058	-9.178683	2.594862E-005	-0.000147	10
	23	69	1516.544	27.37237	-5.404986	1	27.90091	-11.17001	-2.904441E-005	-0.0000979	10
	24	72	1193.986	27.63207	-6.759385	1	28.4468	-13.74581	-3.300288E-006	-0.0001553	10
	25	74	946.5144	27.92239	-8.400498	1	29.15867	-16.74401	-1.777385E-005	-0.0001209	10
	26	77	751.7689	28.26607	-10.43732	1	30.13152	-20.2668	-2.893037E-005	-0.0001021	10
	27	79	597.4265	28.65995	-12.94182	1	31.44652	-24.30224	1.704028E-005	-0.0001314	10
	28	81	477.4305	29.16258	-15.93871	1	33.23399	-28.65867	-1.496361E-006	-0.000111	10
	29	84	376.6741	29.76895	-19.85152	1	35.7809	-33.69746	-1.76673E-006	-0.0001164	10
	30	86	298.2954	30.46703	-24.59935	1	39.15825	-38.91771	8.077191E-007	-0.0001263	9
	31	88	237.7717	31.35011	-30.32434	1	43.61645	-44.04715	1.124442E-006	-0.0001731	9
	32	91	189.0121	32.44797	-37.4639	1	49.56223	-49.10374	6.671796E-007	-0.0001322	9
	33	93	150.2404	33.80879	-46.26527	1	57.30192	-53.84217	7.334166E-007	-0.0001307	9
	34	96	119.1737	35.51989	-57.22972	1	67.35654	-58.174	7.427556E-007	-0.0001249	9
	35	98	95.0169	37.61522	-70.4191	1	79.83579	-61.89055	6.550495E-007	-0.0001325	9
	36	100	75.60484	40.2599	-86.76763	1	95.6529	-65.10886	6.596843E-007	-0.0001403	9
	37	103	54.50582	45.16645	-116.856	1	125.281	-68.86779	7.590417E-007	-0.0001409	9
	38	106	45.95588	48.47594	-136.4742	1	144.828	-70.44485	7.088096E-007	-0.0001404	9
	39	108	37.20238	53.37246	-165.2823	1	173.6861	-72.10386	7.353106E-007	-0.0001399	9
	40	110	30.04808	59.42548	-200.5586	1	209.1773	-73.49545	6.893851E-007	-0.0001401	9
	41	113	23.91582	67.52196	-246.4799	1	255.5612	-74.67995	7.213085E-007	-0.0001414	9
	42	115	18.60119	78.8548	-309.303	1	319.1965	-75.69749	7.956748E-007	-0.0001343	9
	43	117	15.02404	91.0965	-374.9955	1	385.9018	-76.3458	8.033037E-007	-0.0001237	9
	44	120	12.01923	106.9157	-456.4726	1	468.8264	-76.81773	3.706307E-007	-0.000123	8
	45	122	9.450605	129.2905	-566.2195	1	580.793	-77.13761	5.677168E-007	-0.0001231	8
	46	125	7.512019	156.7268	-694.6514	1	712.1122	-77.28584	4.859748E-007	-0.0001331	8
	47	127	5.978954	192.1961	-850.2549	1	871.7068	-77.26263	5.075796E-007	-0.0001125	8
	48	130	4.734848	238.1845	-1044.415	1	1071.23	-77.15309	4.586356E-007	-0.000132	8
	49	134	3.75601	297.4344	-1276.914	1	1311.097	-76.88778	5.40573E-007	-0.0001076	8
	50	137	3.004808	369.123	-1547.201	1	1590.624	-76.58151	5.070999E-007	-0.0001338	8
	51	141	2.372217	466.3358	-1894.626	1	1951.173	-76.17231	4.860783E-007	-0.0001905	8
	52	145	1.878005	582.3246	-2309.782	1	2382.057	-75.84991	5.078872E-007	-0.0001143	8
	53	150	1.512097	719.3682	-2768.913	1	2860.834	-75.43643	4.813502E-007	-0.0002057	8
	54	155	1.201923	890.4464	-3362.647	1	3478.547	-75.16821	4.902456E-007	-9.16046E-005	8
	55	162	0.956633	1099.366	-4071.961	1	4217.757	-74.89126	4.680124E-007	-0.0006636	8
