EXPLAIN
TAG	EISPOT
TITLE	LABEL	Potentiostatic EIS	Test Identifier
DATE	LABEL	10/5/2021	Date
TIME	LABEL	13:29:22	Time
NOTES	NOTES	1	Notes...
	
PSTAT	PSTAT	REF3000-16137	Potentiostat
VDC	POTEN	0.00000E+000	T	DC Voltage (V)
FREQINIT	QUANT	3.00000E+005	Initial Freq. (Hz)
FREQFINAL	QUANT	1.00000E+000	Final Freq. (Hz)
PTSPERDEC	QUANT	1.00000E+001	Points/decade
VAC	QUANT	5.00000E+001	AC Voltage (mV rms)
AREA	QUANT	1.00000E+000	Sample Area (cm^2)
SPEED	SELECTOR	2	Optimize for:
ZGUESS	QUANT	1.00000E+003	Estimated Z (ohms)
EOC	QUANT	0	Open Circuit (V)
SEQUENCER	TOGGLE	TRUE	Run as Sequence
PSTATMODEL	IQUANT	5	Pstat Model
PSTATSECTION	LABEL	REF3000-16137	Pstat Section
PSTATSERIALNO	LABEL	16137	Pstat Serial Number
CTRLMODE	IQUANT	1	Control Mode
IESTAB	IQUANT	0	I/E Stability
CASPEED	IQUANT	1	Control Amp Speed
CONVENTION	IQUANT	1	Current Convention
ICHRANGE	IQUANT	2	Ich Range
ICHRANGEMODE	TOGGLE	F	Ich Auto Range
ICHOFFSETENABLE	TOGGLE	T	Ich Offset Enable
ICHOFFSET	QUANT	0	Ich Offset (V)
ICHFILTER	IQUANT	3	Ich Filter
VCHRANGE	IQUANT	2	Vch Range
VCHRANGEMODE	TOGGLE	F	Vch Auto Range
VCHOFFSETENABLE	TOGGLE	T	Vch Offset Enable
VCHOFFSET	QUANT	0	Vch Offset (V)
VCHFILTER	IQUANT	3	Vch Filter
ACHRANGE	IQUANT	2	Ach Range
ACHOFFSETENABLE	TOGGLE	F	Ach Offset Enable
ACHOFFSET	QUANT	0	Ach Offset (V)
ACHFILTER	IQUANT	3	Ach Filter
IERANGELOWERLIMIT	IQUANT	2	I/E Range Lower Limit
IERANGEMODE	TOGGLE	F	I/E AutoRange
IERANGE	IQUANT	11	I/E Range
POSFEEDENABLE	TOGGLE	F	Positive Feedback IR Comp
POSFEEDRESISTANCE	QUANT	0	Positive Feedback Resistance (ohm)
ACHSELECT	IQUANT	0	Ach Select
CABLEID	IQUANT	13	Cable ID
DCCALDATE	LABEL	9/10/2021	DC Calibration Date
ACCALDATE	LABEL	9/10/2021	AC Calibration Date
THERMOSELECT	IQUANT	1	Thermo Select
FRAMEWORKVERSION	QUANT	6.33	Framework Version
INSTRUMENTVERSION	LABEL	3.50	Instrument Version
COMPLIANCEVOLTAGE	IQUANT	0	Compliance Voltage
ZCURVE	TABLE
	Pt	Time	Freq	Zreal	Zimag	Zsig	Zmod	Zphz	Idc	Vdc	IERange
	#	s	Hz	ohm	ohm	V	ohm	°	A	V	#
	0	10	300046.9	1.702123	2.246283	1	2.818335	52.84695	-0.0001123	-0.0008316	11
	1	13	238359.4	1.797122	1.622953	1	2.421492	42.08471	-0.0002306	-0.0012384	12
	2	17	189328.1	1.723023	1.295546	1	2.155748	36.93961	-0.0002407	-0.0008176	12
	3	21	150421.9	1.620484	1.115219	1	1.967151	34.53579	-0.000102	-0.0001948	11
	4	23	119484.4	1.605127	0.8650537	1	1.82339	28.32162	-0.0001037	-9.401747E-005	11
	5	26	94921.88	1.596118	0.6602627	1	1.727293	22.4733	-2.511102E-005	4.251627E-005	11
	6	28	75421.88	1.591768	0.4947541	1	1.666886	17.26631	-4.470336E-005	8.680439E-005	11
	7	31	59859.37	1.58986	0.3524069	1	1.628448	12.49806	-7.219338E-005	0.0001137	11
	8	33	47578.12	1.591383	0.2317816	1	1.608173	8.286745	-7.021317E-005	0.0002026	11
	9	36	37828.12	1.593056	0.1230557	1	1.597801	4.417045	-3.369647E-005	0.0002482	11
	10	39	30046.88	1.596497	0.0217921	1	1.596646	0.7820357	-4.121133E-005	0.0002868	11
	11	41	23859.38	1.601615	-0.0773073	1	1.603479	-2.763427	-5.783102E-005	0.0002939	11
	12	43	18984.38	1.609075	-0.1777648	1	1.618865	-6.304264	-7.1908E-005	0.0003072	11
	13	46	15046.87	1.618193	-0.2874893	1	1.643532	-10.0741	-4.002788E-005	0.000316	11
	14	48	11953.13	1.629807	-0.40837	1	1.680189	-14.06662	-2.937249E-005	0.0003428	11
	15	50	9515.62	1.645139	-0.5458174	1	1.733321	-18.3546	-7.096302E-005	0.0003261	11
	16	53	7546.875	1.664396	-0.7099311	1	1.80948	-23.10018	-6.291678E-005	0.0003243	11
	17	55	5928.309	1.689684	-0.915056	1	1.921551	-28.43797	-8.973477E-005	0.000313	11
	18	57	4733.456	1.719897	-1.146483	1	2.066995	-33.68742	-6.728357E-005	0.0003158	11
	19	60	3796.875	1.75724	-1.419958	1	2.259242	-38.94034	-4.794135E-005	0.0003146	11
	20	62	2987.132	1.809915	-1.785081	1	2.542107	-44.60422	-8.860212E-005	0.0003053	11
	21	64	2390.625	1.871259	-2.200256	1	2.888379	-49.61973	-2.732642E-005	0.000349	11
	22	66	1884.191	1.95622	-2.742562	1	3.368745	-54.50042	-8.924904E-005	0.0003571	11
	23	69	1516.544	2.052988	-3.347219	1	3.926657	-58.47748	-3.127626E-005	0.0003312	11
	24	71	1193.986	2.189856	-4.167765	1	4.70805	-62.28135	-7.02732E-006	-0.0001809	10
	25	74	946.5144	2.35309	-5.149898	1	5.662021	-65.44341	2.204268E-005	-0.0001865	10
	26	76	751.7689	2.564759	-6.343258	1	6.842143	-67.98512	2.294783E-005	-0.000188	10
	27	78	597.4265	2.827026	-7.80394	1	8.300215	-70.08676	1.621975E-005	-0.0001788	10
	28	81	477.4305	3.160765	-9.55799	1	10.06706	-71.70129	-5.252639E-007	-0.000158	10
	29	83	376.6741	3.608644	-11.82111	1	12.35965	-73.02407	-2.986408E-007	-0.0001643	10
	30	85	298.2954	4.179273	-14.56092	1	15.14882	-73.98547	-2.031871E-007	-0.0001587	10
	31	87	237.7717	4.895457	-17.81218	1	18.47266	-74.63239	-4.24269E-007	-0.0001613	10
	32	90	189.0121	5.83285	-21.81736	1	22.58361	-75.03209	-2.50596E-007	-0.0001604	10
	33	92	150.2404	7.046679	-26.67891	1	27.59384	-75.20441	-8.452828E-007	-0.0001545	10
	34	95	119.1737	8.636294	-32.63255	1	33.75602	-75.17637	-1.258079E-006	-0.0001605	10
	35	97	95.0169	10.63448	-39.63492	1	41.0368	-74.98067	-1.276172E-006	-0.0001559	10
	36	100	75.60484	13.19256	-48.05132	1	49.82944	-74.64764	2.027247E-006	-0.0001839	9
	37	102	54.50582	18.08186	-63.10449	1	65.64397	-74.01096	1.657817E-006	-0.0001408	9
	38	105	45.95588	21.33546	-72.62201	1	75.6912	-73.62786	2.263235E-006	-0.0001692	9
	39	107	37.20238	26.14221	-86.26988	1	90.14381	-73.14171	2.301897E-006	-0.0001714	9
	40	109	30.04808	32.03398	-102.5318	1	107.4195	-72.64964	2.125144E-006	-0.0001714	9
	41	112	23.91582	39.86341	-123.259	1	129.5449	-72.07818	1.887463E-006	-0.0001825	9
	42	114	18.60119	50.58482	-150.7626	1	159.0226	-71.45204	2.268291E-006	-0.0001694	9
	43	116	15.02404	62.37667	-178.9032	1	189.4656	-70.77831	2.247852E-006	-0.0001742	9
	44	119	12.01923	78.30751	-213.7748	1	227.6659	-69.8818	2.482338E-006	-0.0001724	9
	45	121	9.450605	100.9727	-258.1074	1	277.155	-68.63435	2.287237E-006	-0.0001846	9
	46	124	7.512019	129.9648	-307.8382	1	334.1485	-67.11124	2.329118E-006	-0.0001851	9
	47	126	5.978954	167.9942	-363.7325	1	400.6537	-65.20958	2.251543E-006	-0.0001728	9
	48	129	4.734848	218.2516	-425.1052	1	477.8579	-62.82376	1.764817E-006	-0.000145	8
	49	133	3.75601	283.6331	-491.5791	1	567.5366	-60.01575	2.212085E-006	-0.0001511	8
	50	136	3.004808	361.4328	-556.5823	1	663.6396	-57.00116	2.322849E-006	-0.0001919	8
	51	140	2.372217	461.4338	-623.2115	1	775.4443	-53.48328	1.951589E-006	-0.0002254	8
	52	144	1.878005	576.7771	-679.9321	1	891.6162	-49.69251	2.002351E-006	-0.0001513	8
	53	149	1.512097	695.1558	-723.0582	1	1003.023	-46.12711	2.072722E-006	-0.0002633	8
	54	154	1.201923	830.0057	-756.7205	1	1123.181	-42.35559	1.902022E-006	-0.0001401	8
	55	161	0.956633	967.562	-776.22	1	1240.441	-38.7381	1.545552E-006	-0.0007031	8
