EXPLAIN
TAG	EISPOT
TITLE	LABEL	Potentiostatic EIS	Test Identifier
DATE	LABEL	10/5/2021	Date
TIME	LABEL	14:59:21	Time
NOTES	NOTES	1	Notes...
	
PSTAT	PSTAT	REF3000-16137	Potentiostat
VDC	POTEN	0.00000E+000	T	DC Voltage (V)
FREQINIT	QUANT	3.00000E+005	Initial Freq. (Hz)
FREQFINAL	QUANT	1.00000E+000	Final Freq. (Hz)
PTSPERDEC	QUANT	1.00000E+001	Points/decade
VAC	QUANT	5.00000E+001	AC Voltage (mV rms)
AREA	QUANT	1.00000E+000	Sample Area (cm^2)
SPEED	SELECTOR	2	Optimize for:
ZGUESS	QUANT	1.00000E+003	Estimated Z (ohms)
EOC	QUANT	0	Open Circuit (V)
SEQUENCER	TOGGLE	TRUE	Run as Sequence
PSTATMODEL	IQUANT	5	Pstat Model
PSTATSECTION	LABEL	REF3000-16137	Pstat Section
PSTATSERIALNO	LABEL	16137	Pstat Serial Number
CTRLMODE	IQUANT	1	Control Mode
IESTAB	IQUANT	0	I/E Stability
CASPEED	IQUANT	1	Control Amp Speed
CONVENTION	IQUANT	1	Current Convention
ICHRANGE	IQUANT	2	Ich Range
ICHRANGEMODE	TOGGLE	F	Ich Auto Range
ICHOFFSETENABLE	TOGGLE	T	Ich Offset Enable
ICHOFFSET	QUANT	0	Ich Offset (V)
ICHFILTER	IQUANT	3	Ich Filter
VCHRANGE	IQUANT	2	Vch Range
VCHRANGEMODE	TOGGLE	F	Vch Auto Range
VCHOFFSETENABLE	TOGGLE	T	Vch Offset Enable
VCHOFFSET	QUANT	0	Vch Offset (V)
VCHFILTER	IQUANT	3	Vch Filter
ACHRANGE	IQUANT	2	Ach Range
ACHOFFSETENABLE	TOGGLE	F	Ach Offset Enable
ACHOFFSET	QUANT	0	Ach Offset (V)
ACHFILTER	IQUANT	3	Ach Filter
IERANGELOWERLIMIT	IQUANT	2	I/E Range Lower Limit
IERANGEMODE	TOGGLE	F	I/E AutoRange
IERANGE	IQUANT	11	I/E Range
POSFEEDENABLE	TOGGLE	F	Positive Feedback IR Comp
POSFEEDRESISTANCE	QUANT	0	Positive Feedback Resistance (ohm)
ACHSELECT	IQUANT	0	Ach Select
CABLEID	IQUANT	13	Cable ID
DCCALDATE	LABEL	9/10/2021	DC Calibration Date
ACCALDATE	LABEL	9/10/2021	AC Calibration Date
THERMOSELECT	IQUANT	1	Thermo Select
FRAMEWORKVERSION	QUANT	6.33	Framework Version
INSTRUMENTVERSION	LABEL	3.50	Instrument Version
COMPLIANCEVOLTAGE	IQUANT	0	Compliance Voltage
ZCURVE	TABLE
	Pt	Time	Freq	Zreal	Zimag	Zsig	Zmod	Zphz	Idc	Vdc	IERange
	#	s	Hz	ohm	ohm	V	ohm	°	A	V	#
	0	7	300046.9	175.1024	-6.632316	1	175.228	-2.169143	3.109137E-005	3.89526E-005	9
	1	10	238359.4	177.36	-5.422999	1	177.4429	-1.751343	7.695108E-005	-0.0030459	9
	2	13	189328.1	178.839	-4.848279	1	178.9047	-1.552893	-1.566044E-005	0.0009469	9
	3	16	150421.9	179.3536	-4.198979	1	179.4028	-1.341148	5.023635E-005	-0.0005405	9
	4	18	119484.4	182.0006	-3.474168	1	182.0337	-1.093573	-5.870772E-005	0.0007694	9
	5	22	94921.88	183.3827	-3.228411	1	183.4111	-1.008575	2.06468E-005	-0.0010478	9
	6	24	75421.88	184.7842	-2.837328	1	184.806	-0.8796971	-1.896822E-005	7.39583E-005	9
	7	27	59859.37	186.0641	-2.419625	1	186.0799	-0.7450469	2.409488E-005	-0.0010158	9
	8	29	47578.12	187.4198	-1.90198	1	187.4295	-0.5814311	-1.118093E-005	-0.0002475	9
	9	32	37828.12	188.6329	-1.927523	1	188.6428	-0.5854498	5.597867E-006	-0.0007924	9
	10	34	30046.88	189.7902	-1.523284	1	189.7963	-0.4598544	-1.471337E-005	0.0007571	9
	11	37	23859.38	191.3861	-1.648687	1	191.3932	-0.4935597	-4.635718E-006	-0.0004817	9
	12	39	18984.38	192.2416	-1.455864	1	192.2471	-0.4338983	-1.623993E-005	-4.978186E-005	9
	13	42	15046.87	193.5739	-1.224519	1	193.5778	-0.3624395	1.920508E-005	-0.0009813	9
	14	44	11953.13	194.8871	-1.377849	1	194.892	-0.4050736	-1.066343E-005	-0.000253	9
	15	46	9515.62	195.9491	-1.618585	1	195.9558	-0.4732656	2.383783E-005	-0.0004744	9
	16	49	7546.875	197.059	-2.132187	1	197.0705	-0.6199187	-8.668042E-007	-0.0006561	9
	17	51	5928.309	198.4358	-2.011573	1	198.446	-0.5807957	-1.917024E-005	0.000112	9
	18	53	4733.456	199.6356	-2.695986	1	199.6538	-0.7737059	1.456717E-005	-0.0009726	9
	19	56	3796.875	200.7503	-3.270872	1	200.7769	-0.9334512	2.155747E-005	-0.0010313	9
	20	58	2987.132	202.4295	-3.95276	1	202.468	-1.11865	-8.82733E-006	0.0006435	9
	21	60	2390.625	203.4193	-4.497882	1	203.469	-1.266683	-1.653858E-005	-2.994642E-005	9
	22	63	1884.191	204.7086	-6.058918	1	204.7982	-1.695333	-8.546493E-006	0.0006245	9
	23	65	1516.544	206.1343	-6.698105	1	206.2431	-1.861108	-3.289889E-006	-0.0005288	9
	24	67	1193.986	207.6362	-8.410439	1	207.8064	-2.319535	-1.903747E-005	8.677083E-005	9
	25	70	946.5144	208.9542	-10.38712	1	209.2122	-2.845831	-1.669388E-005	0.0007484	9
	26	72	751.7689	210.7539	-13.10353	1	211.1608	-3.55776	2.42459E-005	-0.0009735	9
	27	74	597.4265	212.4946	-15.87044	1	213.0864	-4.271281	-1.958442E-005	9.464562E-005	9
	28	77	477.4305	214.0741	-19.49897	1	214.9603	-5.204434	3.997376E-007	-0.0001218	9
	29	79	376.6741	215.8209	-24.28742	1	217.1832	-6.420771	4.414018E-007	-0.0001287	9
	30	81	298.2954	217.7169	-30.20741	1	219.8025	-7.899145	4.584137E-007	-0.000125	9
	31	84	237.7717	219.8268	-37.35604	1	222.9782	-9.64437	3.740809E-007	-0.0001262	9
	32	86	189.0121	222.1698	-46.32034	1	226.9471	-11.77693	3.728408E-007	-0.0001307	9
	33	89	150.2404	224.809	-57.43988	1	232.0311	-14.33273	4.752096E-007	-0.0001423	9
	34	91	119.1737	227.7725	-71.35532	1	238.6878	-17.39445	6.783825E-007	-0.0001785	9
	35	93	95.0169	231.2582	-88.16061	1	247.4928	-20.86792	3.026857E-007	-0.0001365	9
	36	96	75.60484	235.3525	-109.0748	1	259.3996	-24.86551	4.208773E-007	-0.0001405	9
	37	98	54.50582	241.919	-147.7227	1	283.4551	-31.40943	4.457421E-007	-0.0001404	9
	38	101	45.95588	246.7459	-173.0071	1	301.3553	-35.03641	4.193782E-007	-0.0001247	9
	39	103	37.20238	253.2807	-210.2263	1	329.1599	-39.69311	4.696467E-007	-0.0001332	9
	40	106	30.04808	261.2207	-255.8857	1	365.6689	-44.4089	4.262184E-007	-0.0001334	9
	41	108	23.91582	270.2379	-314.2474	1	414.4634	-49.30603	-6.806921E-008	-0.0001327	8
	42	111	18.60119	283.7188	-395.6395	1	486.8542	-54.35514	-8.351213E-008	-0.0001099	8
	43	113	15.02404	298.2205	-481.023	1	565.967	-58.20227	-6.08124E-009	-0.0001051	8
	44	115	12.01923	316.9268	-589.6019	1	669.3826	-61.74078	-1.353036E-007	-0.0001143	8
	45	118	9.450605	341.8398	-733.9503	1	809.6526	-65.02609	-1.033337E-007	-0.0001065	8
	46	120	7.512019	371.8292	-904.1821	1	977.651	-67.64594	-6.470484E-008	-0.0001169	8
	47	123	5.978954	409.0314	-1111.248	1	1184.137	-69.79221	-4.929945E-008	-0.0001226	8
	48	126	4.734848	455.982	-1372.327	1	1446.098	-71.61993	-2.178371E-008	-9.244557E-005	8
	49	129	3.75601	515.3341	-1690.936	1	1767.72	-73.05074	-6.615092E-008	-0.0001408	8
	50	133	3.004808	586.4799	-2065.859	1	2147.494	-74.15121	-7.288462E-008	-0.0000962	8
	51	136	2.372217	684.133	-2557.223	1	2647.155	-75.02243	-4.935263E-008	-5.146027E-005	8
	52	141	1.878005	800.6368	-3156.036	1	3256.007	-75.76525	-8.12773E-008	-0.0001348	8
	53	145	1.512097	943.9631	-3824.045	1	3938.831	-76.13378	-4.915645E-008	-5.517985E-005	8
	54	151	1.201923	1131.486	-4718.207	1	4851.983	-76.51441	-1.445909E-008	-0.0001338	7
	55	157	0.956633	1368.54	-5785.823	1	5945.473	-76.69222	-3.118948E-008	-0.0006668	7
