EXPLAIN
TAG	EISPOT
TITLE	LABEL	Potentiostatic EIS	Test Identifier
DATE	LABEL	10/5/2021	Date
TIME	LABEL	13:35:03	Time
NOTES	NOTES	1	Notes...
	
PSTAT	PSTAT	REF3000-16137	Potentiostat
VDC	POTEN	0.00000E+000	T	DC Voltage (V)
FREQINIT	QUANT	3.00000E+005	Initial Freq. (Hz)
FREQFINAL	QUANT	1.00000E+000	Final Freq. (Hz)
PTSPERDEC	QUANT	1.00000E+001	Points/decade
VAC	QUANT	5.00000E+001	AC Voltage (mV rms)
AREA	QUANT	1.00000E+000	Sample Area (cm^2)
SPEED	SELECTOR	2	Optimize for:
ZGUESS	QUANT	1.00000E+003	Estimated Z (ohms)
EOC	QUANT	0	Open Circuit (V)
SEQUENCER	TOGGLE	TRUE	Run as Sequence
PSTATMODEL	IQUANT	5	Pstat Model
PSTATSECTION	LABEL	REF3000-16137	Pstat Section
PSTATSERIALNO	LABEL	16137	Pstat Serial Number
CTRLMODE	IQUANT	1	Control Mode
IESTAB	IQUANT	0	I/E Stability
CASPEED	IQUANT	1	Control Amp Speed
CONVENTION	IQUANT	1	Current Convention
ICHRANGE	IQUANT	2	Ich Range
ICHRANGEMODE	TOGGLE	F	Ich Auto Range
ICHOFFSETENABLE	TOGGLE	T	Ich Offset Enable
ICHOFFSET	QUANT	0	Ich Offset (V)
ICHFILTER	IQUANT	3	Ich Filter
VCHRANGE	IQUANT	2	Vch Range
VCHRANGEMODE	TOGGLE	F	Vch Auto Range
VCHOFFSETENABLE	TOGGLE	T	Vch Offset Enable
VCHOFFSET	QUANT	0	Vch Offset (V)
VCHFILTER	IQUANT	3	Vch Filter
ACHRANGE	IQUANT	2	Ach Range
ACHOFFSETENABLE	TOGGLE	F	Ach Offset Enable
ACHOFFSET	QUANT	0	Ach Offset (V)
ACHFILTER	IQUANT	3	Ach Filter
IERANGELOWERLIMIT	IQUANT	2	I/E Range Lower Limit
IERANGEMODE	TOGGLE	F	I/E AutoRange
IERANGE	IQUANT	11	I/E Range
POSFEEDENABLE	TOGGLE	F	Positive Feedback IR Comp
POSFEEDRESISTANCE	QUANT	0	Positive Feedback Resistance (ohm)
ACHSELECT	IQUANT	0	Ach Select
CABLEID	IQUANT	13	Cable ID
DCCALDATE	LABEL	9/10/2021	DC Calibration Date
ACCALDATE	LABEL	9/10/2021	AC Calibration Date
THERMOSELECT	IQUANT	1	Thermo Select
FRAMEWORKVERSION	QUANT	6.33	Framework Version
INSTRUMENTVERSION	LABEL	3.50	Instrument Version
COMPLIANCEVOLTAGE	IQUANT	0	Compliance Voltage
ZCURVE	TABLE
	Pt	Time	Freq	Zreal	Zimag	Zsig	Zmod	Zphz	Idc	Vdc	IERange
	#	s	Hz	ohm	ohm	V	ohm	°	A	V	#
	0	10	300046.9	1.801797	2.232859	1	2.869169	51.09834	1.429589E-005	-0.0006507	11
	1	14	238359.4	1.892533	1.614611	1	2.4877	40.46909	-0.0002021	-0.0011201	12
	2	18	189328.1	1.812371	1.282664	1	2.220341	35.28807	-0.000203	-0.0007438	12
	3	21	150421.9	1.706949	1.107814	1	2.034926	32.98368	-6.206675E-005	-8.838614E-005	11
	4	24	119484.4	1.69926	0.8617935	1	1.905301	26.89221	-4.903932E-005	8.70004E-006	11
	5	27	94921.88	1.689451	0.6589558	1	1.813413	21.30784	-0.0000965	2.984059E-005	11
	6	29	75421.88	1.686694	0.4919081	1	1.75696	16.25882	-7.519695E-005	0.0000985	11
	7	32	59859.37	1.685597	0.3498828	1	1.721527	11.72647	-8.379391E-005	0.0001611	11
	8	34	47578.12	1.686886	0.227662	1	1.702179	7.686196	-4.216438E-005	0.0002346	11
	9	37	37828.12	1.68943	0.1190116	1	1.693617	4.029534	-7.452907E-005	0.0002575	11
	10	39	30046.88	1.693375	0.0166685	1	1.693457	0.5639648	-8.127851E-005	0.0002857	11
	11	42	23859.38	1.697905	-0.0839414	1	1.699979	-2.830297	-5.037881E-005	0.0002881	11
	12	44	18984.38	1.706034	-0.18562	1	1.716102	-6.209475	-8.182137E-005	0.0003384	11
	13	46	15046.87	1.715205	-0.2975377	1	1.74082	-9.8412	-5.955758E-005	0.0003288	11
	14	49	11953.13	1.726965	-0.4208484	1	1.777504	-13.69561	-3.597362E-005	0.0003297	11
	15	51	9515.62	1.742458	-0.5616621	1	1.830744	-17.86615	-7.029109E-005	0.0003314	11
	16	53	7546.875	1.761881	-0.7293554	1	1.906878	-22.4878	-2.448228E-005	0.0003433	11
	17	56	5928.309	1.788189	-0.9400924	1	2.020246	-27.73194	-1.882659E-005	0.000362	11
	18	58	4733.456	1.818961	-1.178005	1	2.167098	-32.9281	-2.704461E-005	0.0003557	11
	19	60	3796.875	1.856722	-1.46064	1	2.36239	-38.19129	-2.088884E-005	0.000362	11
	20	63	2987.132	1.909778	-1.834938	1	2.648443	-43.85507	-2.335483E-005	0.0003571	11
	21	65	2390.625	1.97299	-2.260504	1	3.000428	-48.88522	-2.078164E-005	0.0003479	11
	22	67	1884.191	2.056713	-2.82138	1	3.491454	-53.90892	-5.239884E-005	0.0003166	11
	23	70	1516.544	2.157198	-3.448467	1	4.067607	-57.97185	-2.058074E-005	-0.0001582	10
	24	72	1193.986	2.293318	-4.292395	1	4.866617	-61.88554	-2.089997E-005	-0.0001564	10
	25	74	946.5144	2.465834	-5.302127	1	5.847468	-65.0585	-3.133375E-006	-0.0001637	10
	26	77	751.7689	2.670533	-6.537006	1	7.061459	-67.77874	-1.182276E-005	-0.0001549	10
	27	79	597.4265	2.93909	-8.046714	1	8.566671	-69.9351	-1.94844E-005	-0.0001509	10
	28	81	477.4305	3.275423	-9.85851	1	10.38838	-71.62128	1.231253E-007	-0.000147	10
	29	84	376.6741	3.726634	-12.1991	1	12.75562	-73.01291	2.164458E-008	-0.0001534	10
	30	86	298.2954	4.30001	-15.03444	1	15.63728	-74.0389	4.391316E-007	-0.0001467	10
	31	88	237.7717	5.017928	-18.40263	1	19.0745	-74.7477	-1.965918E-007	-0.000151	10
	32	91	189.0121	5.95718	-22.5575	1	23.33085	-75.20657	-3.443431E-007	-0.000148	10
	33	93	150.2404	7.173457	-27.60905	1	28.52574	-75.4353	-1.246356E-007	-0.0001573	10
	34	96	119.1737	8.76307	-33.8058	1	34.92311	-75.46776	-1.103493E-006	-0.0001467	10
	35	98	95.0169	10.75225	-41.06309	1	42.44748	-75.32669	1.857363E-006	-0.0001672	9
	36	100	75.60484	13.33211	-49.90987	1	51.65985	-75.04414	1.624224E-006	-0.0001702	9
	37	103	54.50582	18.27577	-65.69762	1	68.19223	-74.45449	1.68545E-006	-0.0001751	9
	38	106	45.95588	21.57138	-75.70044	1	78.71392	-74.09472	2.171366E-006	-0.0001614	9
	39	108	37.20238	26.45668	-90.03141	1	93.83822	-73.62402	1.831622E-006	-0.0001575	9
	40	110	30.04808	32.40811	-107.07	1	111.8672	-73.15991	1.908427E-006	-0.0001717	9
	41	113	23.91582	40.31495	-128.8831	1	135.0412	-72.63018	1.507964E-006	-0.0001681	9
	42	115	18.60119	51.27124	-157.8456	1	165.9638	-72.00523	1.839029E-006	-0.0001603	9
	43	117	15.02404	63.03719	-187.5356	1	197.8466	-71.42072	1.79229E-006	-0.0001682	9
	44	120	12.01923	78.83689	-224.3715	1	237.8188	-70.64017	2.064402E-006	-0.0001623	9
	45	122	9.450605	101.2506	-271.5832	1	289.8433	-69.55373	1.831178E-006	-0.0001541	9
	46	125	7.512019	129.7503	-324.9283	1	349.8765	-68.23219	2.193438E-006	-0.0001424	9
	47	127	5.978954	167.4832	-385.8373	1	420.6198	-66.53544	2.245536E-006	-0.0001618	9
	48	130	4.734848	217.3488	-454.1312	1	503.4636	-64.42406	2.026519E-006	-0.0001241	8
	49	134	3.75601	282.9425	-529.5201	1	600.3732	-61.88273	1.603266E-006	-0.0001674	8
	50	137	3.004808	362.0042	-605.7444	1	705.6722	-59.13667	1.646554E-006	-0.0001446	8
	51	141	2.372217	466.1847	-685.9658	1	829.3837	-55.79984	1.701408E-006	-8.956698E-005	8
	52	145	1.878005	588.0568	-762.096	1	962.601	-52.34512	1.500115E-006	-0.0001381	8
	53	150	1.512097	715.2114	-823.4387	1	1090.678	-49.02351	1.570689E-006	-0.0001425	8
	54	155	1.201923	867.6903	-877.6008	1	1234.127	-45.32535	1.646431E-006	-0.0001803	8
	55	161	0.956633	1026.965	-917.0261	1	1376.805	-41.7632	1.212741E-006	-0.0006472	8
