EXPLAIN
TAG	EISPOT
TITLE	LABEL	Potentiostatic EIS	Test Identifier
DATE	LABEL	10/5/2021	Date
TIME	LABEL	13:26:32	Time
NOTES	NOTES	1	Notes...
	
PSTAT	PSTAT	REF3000-16137	Potentiostat
VDC	POTEN	0.00000E+000	T	DC Voltage (V)
FREQINIT	QUANT	3.00000E+005	Initial Freq. (Hz)
FREQFINAL	QUANT	1.00000E+000	Final Freq. (Hz)
PTSPERDEC	QUANT	1.00000E+001	Points/decade
VAC	QUANT	5.00000E+001	AC Voltage (mV rms)
AREA	QUANT	1.00000E+000	Sample Area (cm^2)
SPEED	SELECTOR	2	Optimize for:
ZGUESS	QUANT	1.00000E+003	Estimated Z (ohms)
EOC	QUANT	0	Open Circuit (V)
SEQUENCER	TOGGLE	TRUE	Run as Sequence
PSTATMODEL	IQUANT	5	Pstat Model
PSTATSECTION	LABEL	REF3000-16137	Pstat Section
PSTATSERIALNO	LABEL	16137	Pstat Serial Number
CTRLMODE	IQUANT	1	Control Mode
IESTAB	IQUANT	0	I/E Stability
CASPEED	IQUANT	1	Control Amp Speed
CONVENTION	IQUANT	1	Current Convention
ICHRANGE	IQUANT	2	Ich Range
ICHRANGEMODE	TOGGLE	F	Ich Auto Range
ICHOFFSETENABLE	TOGGLE	T	Ich Offset Enable
ICHOFFSET	QUANT	0	Ich Offset (V)
ICHFILTER	IQUANT	3	Ich Filter
VCHRANGE	IQUANT	2	Vch Range
VCHRANGEMODE	TOGGLE	F	Vch Auto Range
VCHOFFSETENABLE	TOGGLE	T	Vch Offset Enable
VCHOFFSET	QUANT	0	Vch Offset (V)
VCHFILTER	IQUANT	3	Vch Filter
ACHRANGE	IQUANT	2	Ach Range
ACHOFFSETENABLE	TOGGLE	F	Ach Offset Enable
ACHOFFSET	QUANT	0	Ach Offset (V)
ACHFILTER	IQUANT	1	Ach Filter
IERANGELOWERLIMIT	IQUANT	2	I/E Range Lower Limit
IERANGEMODE	TOGGLE	F	I/E AutoRange
IERANGE	IQUANT	11	I/E Range
POSFEEDENABLE	TOGGLE	F	Positive Feedback IR Comp
POSFEEDRESISTANCE	QUANT	0	Positive Feedback Resistance (ohm)
ACHSELECT	IQUANT	0	Ach Select
CABLEID	IQUANT	13	Cable ID
DCCALDATE	LABEL	9/10/2021	DC Calibration Date
ACCALDATE	LABEL	9/10/2021	AC Calibration Date
THERMOSELECT	IQUANT	1	Thermo Select
FRAMEWORKVERSION	QUANT	6.33	Framework Version
INSTRUMENTVERSION	LABEL	3.50	Instrument Version
COMPLIANCEVOLTAGE	IQUANT	0	Compliance Voltage
ZCURVE	TABLE
	Pt	Time	Freq	Zreal	Zimag	Zsig	Zmod	Zphz	Idc	Vdc	IERange
	#	s	Hz	ohm	ohm	V	ohm	°	A	V	#
	0	11	300046.9	1.687609	2.242955	1	2.806933	53.04204	-6.962492E-005	-0.0008201	11
	1	14	238359.4	1.787984	1.631111	1	2.420208	42.37304	-0.0002382	-0.0011851	12
	2	18	189328.1	1.707453	1.298055	1	2.144841	37.24314	-0.0001884	-0.0007981	12
	3	22	150421.9	1.603785	1.10922	1	1.949999	34.66876	-6.826928E-005	-0.0001437	11
	4	24	119484.4	1.584112	0.8634582	1	1.804154	28.59365	-4.274382E-005	-0.0000992	11
	5	27	94921.88	1.577803	0.6632826	1	1.711551	22.80109	-6.034662E-005	1.683676E-005	11
	6	29	75421.88	1.574293	0.4960006	1	1.65058	17.48768	-8.276674E-005	6.62341E-005	11
	7	32	59859.37	1.57236	0.3543648	1	1.611797	12.70063	-7.679067E-005	0.0001275	11
	8	34	47578.12	1.571892	0.2326997	1	1.589022	8.420794	-3.105995E-005	0.0002154	11
	9	37	37828.12	1.573805	0.1245409	1	1.578725	4.524593	-4.669545E-005	0.0002226	11
	10	39	30046.88	1.576774	0.0232927	1	1.576946	0.8463326	-6.176827E-005	0.0002671	11
	11	42	23859.38	1.581551	-0.0754495	1	1.583349	-2.731282	-0.0001452	0.0003288	11
	12	44	18984.38	1.588134	-0.1754903	1	1.597801	-6.305656	-0.0001057	0.0002736	11
	13	46	15046.87	1.597664	-0.2843508	1	1.622771	-10.09178	-8.738349E-005	0.0003112	11
	14	49	11953.13	1.608919	-0.4045158	1	1.658992	-14.11284	-3.761417E-005	0.000333	11
	15	51	9515.62	1.623113	-0.5407119	1	1.710808	-18.4246	-0.0000956	0.0002813	11
	16	53	7546.875	1.64263	-0.7035609	1	1.786962	-23.18611	-7.42908E-005	0.0003108	11
	17	56	5928.309	1.66717	-0.9066995	1	1.897777	-28.5398	-4.56759E-005	0.0003237	11
	18	58	4733.456	1.697217	-1.136224	1	2.042438	-33.80085	-4.788665E-005	0.0002981	11
	19	60	3796.875	1.734907	-1.407195	1	2.233854	-39.04575	-4.122319E-005	0.0003322	11
	20	63	2987.132	1.786364	-1.76833	1	2.51358	-44.70931	-4.314481E-005	0.0003334	11
	21	65	2390.625	1.847327	-2.17904	1	2.856717	-49.70968	-7.669348E-005	0.000321	11
	22	67	1884.191	1.930653	-2.715352	1	3.33175	-54.58665	-4.408067E-005	0.0003184	11
	23	70	1516.544	2.026561	-3.313832	1	3.884383	-58.55229	-6.145114E-005	0.0002963	11
	24	72	1193.986	2.162839	-4.123364	1	4.656179	-62.32153	1.471908E-005	-0.0001934	10
	25	74	946.5144	2.324118	-5.093336	1	5.598535	-65.47251	-4.477001E-006	-0.0001923	10
	26	77	751.7689	2.533036	-6.271597	1	6.763815	-68.00671	5.353776E-006	-0.0001721	10
	27	79	597.4265	2.79666	-7.71556	1	8.206777	-70.07594	2.107325E-005	-0.0001806	10
	28	81	477.4305	3.126264	-9.448547	1	9.95232	-71.69205	-8.954805E-008	-0.0001639	10
	29	84	376.6741	3.571272	-11.68281	1	12.21647	-73.00234	8.583643E-007	-0.0001787	10
	30	86	298.2954	4.138186	-14.38688	1	14.9702	-73.95286	-4.43592E-007	-0.0001612	10
	31	88	237.7717	4.850054	-17.59451	1	18.25075	-74.58875	2.771269E-007	-0.0001637	10
	32	91	189.0121	5.78214	-21.54327	1	22.30573	-74.97608	8.433645E-008	-0.000163	10
	33	93	150.2404	6.989435	-26.33368	1	27.24545	-75.13539	-8.589453E-007	-0.0001612	10
	34	96	119.1737	8.570482	-32.1962	1	33.31739	-75.09379	-7.808632E-007	-0.0001606	10
	35	98	95.0169	10.55566	-39.08706	1	40.48729	-74.88749	-8.839029E-007	-0.0001638	10
	36	100	75.60484	13.09546	-47.35899	1	49.13619	-74.54309	2.10974E-006	-0.0001789	9
	37	103	54.50582	17.93794	-62.14096	1	64.67819	-73.89841	2.142541E-006	-0.0001866	9
	38	105	45.95588	21.15244	-71.48921	1	74.55289	-73.51742	2.564383E-006	-0.0001753	9
	39	108	37.20238	25.88814	-84.85609	1	88.71726	-73.03395	1.808285E-006	-0.0001227	9
	40	110	30.04808	31.67483	-100.8013	1	105.6608	-72.55569	2.081206E-006	-0.000178	9
	41	113	23.91582	39.31377	-121.0661	1	127.2893	-72.00984	2.239936E-006	-0.0001796	9
	42	115	18.60119	49.99484	-148.2116	1	156.4166	-71.35969	2.58272E-006	-0.0001761	9
	43	117	15.02404	61.67582	-175.8897	1	186.3896	-70.67675	2.220249E-006	-0.0001968	9
	44	119	12.01923	77.39469	-209.972	1	223.7815	-69.76635	2.645347E-006	-0.000176	9
	45	122	9.450605	99.8929	-253.4187	1	272.3961	-68.48656	2.230698E-006	-0.000182	9
	46	124	7.512019	128.5302	-302.0577	1	328.2664	-66.94951	2.433621E-006	-0.0001909	9
	47	127	5.978954	166.5484	-356.5535	1	393.5337	-64.96243	2.332262E-006	-0.0001814	9
	48	130	4.734848	216.5278	-416.1808	1	469.1383	-62.51324	2.043814E-006	-0.0001944	8
	49	133	3.75601	281.0639	-480.3628	1	556.5477	-59.66778	2.454998E-006	-0.0001512	8
	50	137	3.004808	358.0617	-542.5657	1	650.066	-56.57752	2.514411E-006	-0.000195	8
	51	141	2.372217	456.8549	-604.1847	1	757.4665	-52.90521	2.303125E-006	-0.0002387	8
	52	145	1.878005	569.6494	-658.006	1	870.3289	-49.11658	2.465929E-006	-0.0001684	8
	53	150	1.512097	683.7339	-695.8836	1	975.575	-45.50457	2.381043E-006	-0.0002127	8
	54	155	1.201923	814.8663	-723.5864	1	1089.763	-41.60449	2.19666E-006	-0.0001342	8
	55	161	0.956633	946.8199	-736.8234	1	1199.74	-37.89036	1.638321E-006	-0.0007054	8
