EXPLAIN
TAG	EISPOT
TITLE	LABEL	Potentiostatic EIS	Test Identifier
DATE	LABEL	10/5/2021	Date
TIME	LABEL	14:06:25	Time
NOTES	NOTES	1	Notes...
	
PSTAT	PSTAT	REF3000-16137	Potentiostat
VDC	POTEN	0.00000E+000	T	DC Voltage (V)
FREQINIT	QUANT	3.00000E+005	Initial Freq. (Hz)
FREQFINAL	QUANT	1.00000E+000	Final Freq. (Hz)
PTSPERDEC	QUANT	1.00000E+001	Points/decade
VAC	QUANT	5.00000E+001	AC Voltage (mV rms)
AREA	QUANT	1.00000E+000	Sample Area (cm^2)
SPEED	SELECTOR	2	Optimize for:
ZGUESS	QUANT	1.00000E+003	Estimated Z (ohms)
EOC	QUANT	0	Open Circuit (V)
SEQUENCER	TOGGLE	TRUE	Run as Sequence
PSTATMODEL	IQUANT	5	Pstat Model
PSTATSECTION	LABEL	REF3000-16137	Pstat Section
PSTATSERIALNO	LABEL	16137	Pstat Serial Number
CTRLMODE	IQUANT	1	Control Mode
IESTAB	IQUANT	0	I/E Stability
CASPEED	IQUANT	1	Control Amp Speed
CONVENTION	IQUANT	1	Current Convention
ICHRANGE	IQUANT	2	Ich Range
ICHRANGEMODE	TOGGLE	F	Ich Auto Range
ICHOFFSETENABLE	TOGGLE	T	Ich Offset Enable
ICHOFFSET	QUANT	0	Ich Offset (V)
ICHFILTER	IQUANT	3	Ich Filter
VCHRANGE	IQUANT	2	Vch Range
VCHRANGEMODE	TOGGLE	F	Vch Auto Range
VCHOFFSETENABLE	TOGGLE	T	Vch Offset Enable
VCHOFFSET	QUANT	0	Vch Offset (V)
VCHFILTER	IQUANT	3	Vch Filter
ACHRANGE	IQUANT	2	Ach Range
ACHOFFSETENABLE	TOGGLE	F	Ach Offset Enable
ACHOFFSET	QUANT	0	Ach Offset (V)
ACHFILTER	IQUANT	3	Ach Filter
IERANGELOWERLIMIT	IQUANT	2	I/E Range Lower Limit
IERANGEMODE	TOGGLE	F	I/E AutoRange
IERANGE	IQUANT	11	I/E Range
POSFEEDENABLE	TOGGLE	F	Positive Feedback IR Comp
POSFEEDRESISTANCE	QUANT	0	Positive Feedback Resistance (ohm)
ACHSELECT	IQUANT	0	Ach Select
CABLEID	IQUANT	13	Cable ID
DCCALDATE	LABEL	9/10/2021	DC Calibration Date
ACCALDATE	LABEL	9/10/2021	AC Calibration Date
THERMOSELECT	IQUANT	1	Thermo Select
FRAMEWORKVERSION	QUANT	6.33	Framework Version
INSTRUMENTVERSION	LABEL	3.50	Instrument Version
COMPLIANCEVOLTAGE	IQUANT	0	Compliance Voltage
ZCURVE	TABLE
	Pt	Time	Freq	Zreal	Zimag	Zsig	Zmod	Zphz	Idc	Vdc	IERange
	#	s	Hz	ohm	ohm	V	ohm	°	A	V	#
	0	10	300046.9	3.169847	2.259221	1	3.892558	35.47832	-4.037803E-005	-0.0008851	10
	1	13	238359.4	3.14365	1.78662	1	3.615874	29.61072	-4.163793E-005	-0.001252	10
	2	17	189328.1	3.120919	1.413299	1	3.42601	24.36326	-0.0000972	-0.0010037	10
	3	19	150421.9	3.163093	0.9146149	1	3.29267	16.12733	-0.000254	-0.0007329	12
	4	23	119484.4	3.111356	0.8374622	1	3.222092	15.06488	-0.0001118	0.000228	11
	5	25	94921.88	3.107485	0.6322836	1	3.171159	11.50104	-2.345164E-005	0.0002688	11
	6	28	75421.88	3.106312	0.4654438	1	3.140989	8.521691	-0.000098	0.0002095	11
	7	30	59859.37	3.110312	0.3225305	1	3.12699	5.920249	-6.094081E-005	0.0003053	11
	8	33	47578.12	3.114226	0.1980174	1	3.120515	3.638242	-3.747164E-005	0.0003302	11
	9	35	37828.12	3.120439	0.0855259	1	3.121611	1.569987	-2.774623E-005	0.0003756	11
	10	38	30046.88	3.12863	-0.0218362	1	3.128707	-0.3998879	-7.543352E-005	0.000347	11
	11	41	23859.38	3.137831	-0.1293386	1	3.140496	-2.360345	-7.255561E-005	0.0003585	11
	12	43	18984.38	3.14842	-0.240973	1	3.157628	-4.376759	-7.151897E-005	0.0003666	11
	13	45	15046.87	3.160724	-0.3654035	1	3.181776	-6.594548	-2.665389E-005	0.0003944	11
	14	48	11953.13	3.175238	-0.5047835	1	3.215112	-9.033005	-6.754125E-005	0.0003241	11
	15	50	9515.62	3.194643	-0.6661386	1	3.263355	-11.77839	-6.59734E-005	0.0003599	11
	16	52	7546.875	3.218422	-0.8598835	1	3.331312	-14.95863	-5.397289E-005	0.0003717	11
	17	54	5928.309	3.247762	-1.105572	1	3.430779	-18.79911	-2.845395E-005	0.0003817	11
	18	57	4733.456	3.283736	-1.384093	1	3.563514	-22.8554	-9.115117E-005	0.0003422	11
	19	59	3796.875	3.330362	-1.715466	1	3.746216	-27.25295	-1.080264E-005	-0.0001262	10
	20	61	2987.132	3.387407	-2.158283	1	4.016555	-32.50321	2.031286E-005	-0.0001354	10
	21	64	2390.625	3.456168	-2.662601	1	4.36286	-37.61034	-1.130646E-005	-0.0001243	10
	22	66	1884.191	3.544317	-3.32891	1	4.862491	-43.20494	-4.406128E-006	-0.0001284	10
	23	68	1516.544	3.648622	-4.073491	1	5.468617	-48.14923	6.050228E-006	-0.0001558	10
	24	71	1193.986	3.791384	-5.085106	1	6.342941	-53.2923	-1.922449E-005	-0.0001147	10
	25	73	946.5144	3.967155	-6.302797	1	7.447387	-57.81255	1.867967E-005	-0.0001264	10
	26	75	751.7689	4.191439	-7.784973	1	8.841604	-61.70193	1.940475E-005	-0.0001443	10
	27	78	597.4265	4.47794	-9.6084	1	10.60063	-65.01241	-9.823476E-006	-0.0001325	10
	28	80	477.4305	4.823986	-11.79928	1	12.74731	-67.76343	-6.276158E-007	-0.000118	10
	29	82	376.6741	5.285001	-14.63778	1	15.56264	-70.14777	-9.366188E-007	-0.0001208	10
	30	85	298.2954	5.859181	-18.09361	1	19.01864	-72.0567	-7.656366E-007	-0.0001178	10
	31	87	237.7717	6.566154	-22.22445	1	23.17413	-73.54036	-4.549547E-007	-0.0001217	10
	32	90	189.0121	7.47573	-27.35622	1	28.35929	-74.71576	-9.526985E-007	-0.0001191	10
	33	92	150.2404	8.640888	-33.66474	1	34.756	-75.60439	-1.635837E-006	-0.0001242	10
	34	94	119.1737	10.15583	-41.47426	1	42.69959	-76.24069	-1.336565E-006	-0.0001167	10
	35	97	95.0169	12.05276	-50.75178	1	52.16332	-76.64063	1.063335E-006	-0.0001342	9
	36	99	75.60484	14.54438	-62.22717	1	63.9043	-76.8444	9.118644E-007	-0.0001341	9
	37	102	54.50582	19.44094	-83.09302	1	85.33698	-76.8316	8.374673E-007	-0.0001313	9
	38	104	45.95588	22.80147	-96.4866	1	99.1441	-76.70393	1.066993E-006	-0.0001303	9
	39	107	37.20238	27.94349	-115.9104	1	119.2311	-76.44585	1.132838E-006	-0.0001343	9
	40	109	30.04808	34.44788	-139.2068	1	143.4057	-76.1009	1.073274E-006	-0.0001395	9
	41	111	23.91582	43.16567	-169.0502	1	174.4742	-75.67603	1.003318E-006	-0.0001397	9
	42	114	18.60119	55.27322	-208.5233	1	215.7246	-75.15404	1.072686E-006	-0.0001351	9
	43	116	15.02404	67.99949	-248.877	1	257.9994	-74.71832	1.316936E-006	-0.0001314	9
	44	118	12.01923	84.41367	-299.2198	1	310.8989	-74.24557	8.757082E-007	-0.0001387	9
	45	121	9.450605	106.0568	-364.4443	1	379.5625	-73.77449	9.708358E-007	-0.0001238	9
	46	123	7.512019	131.2741	-438.1006	1	457.3456	-73.31949	9.101903E-007	-0.0001077	8
	47	126	5.978954	163.5178	-528.0305	1	552.7696	-72.79356	8.39527E-007	-0.0001179	8
	48	129	4.734848	205.4494	-639.3429	1	671.5421	-72.18547	1.059441E-006	-0.0000963	8
	49	132	3.75601	260.3839	-771.5448	1	814.298	-71.3513	7.432226E-007	-0.0001516	8
	50	136	3.004808	329.9853	-922.2338	1	979.492	-70.31223	8.304618E-007	-0.0001099	8
	51	140	2.372217	429.1923	-1109.557	1	1189.673	-68.85282	8.477298E-007	-5.366324E-005	8
	52	144	1.878005	556.3619	-1325.221	1	1437.271	-67.22607	7.451973E-007	-0.0001374	8
	53	148	1.512097	706.9836	-1546.897	1	1700.799	-65.43803	8.098918E-007	-0.0001463	8
	54	154	1.201923	916.0262	-1808.991	1	2027.697	-63.14353	7.961945E-007	-0.0001367	8
	55	160	0.956633	1169.908	-2085.938	1	2391.615	-60.71392	7.473167E-007	-0.0006627	8
