EXPLAIN
TAG	EISPOT
TITLE	LABEL	Potentiostatic EIS	Test Identifier
DATE	LABEL	10/5/2021	Date
TIME	LABEL	14:48:19	Time
NOTES	NOTES	1	Notes...
	
PSTAT	PSTAT	REF3000-16137	Potentiostat
VDC	POTEN	0.00000E+000	T	DC Voltage (V)
FREQINIT	QUANT	3.00000E+005	Initial Freq. (Hz)
FREQFINAL	QUANT	1.00000E+000	Final Freq. (Hz)
PTSPERDEC	QUANT	1.00000E+001	Points/decade
VAC	QUANT	5.00000E+001	AC Voltage (mV rms)
AREA	QUANT	1.00000E+000	Sample Area (cm^2)
SPEED	SELECTOR	2	Optimize for:
ZGUESS	QUANT	1.00000E+003	Estimated Z (ohms)
EOC	QUANT	0	Open Circuit (V)
SEQUENCER	TOGGLE	TRUE	Run as Sequence
PSTATMODEL	IQUANT	5	Pstat Model
PSTATSECTION	LABEL	REF3000-16137	Pstat Section
PSTATSERIALNO	LABEL	16137	Pstat Serial Number
CTRLMODE	IQUANT	1	Control Mode
IESTAB	IQUANT	0	I/E Stability
CASPEED	IQUANT	1	Control Amp Speed
CONVENTION	IQUANT	1	Current Convention
ICHRANGE	IQUANT	2	Ich Range
ICHRANGEMODE	TOGGLE	F	Ich Auto Range
ICHOFFSETENABLE	TOGGLE	T	Ich Offset Enable
ICHOFFSET	QUANT	0	Ich Offset (V)
ICHFILTER	IQUANT	3	Ich Filter
VCHRANGE	IQUANT	2	Vch Range
VCHRANGEMODE	TOGGLE	F	Vch Auto Range
VCHOFFSETENABLE	TOGGLE	T	Vch Offset Enable
VCHOFFSET	QUANT	0	Vch Offset (V)
VCHFILTER	IQUANT	3	Vch Filter
ACHRANGE	IQUANT	2	Ach Range
ACHOFFSETENABLE	TOGGLE	F	Ach Offset Enable
ACHOFFSET	QUANT	0	Ach Offset (V)
ACHFILTER	IQUANT	3	Ach Filter
IERANGELOWERLIMIT	IQUANT	2	I/E Range Lower Limit
IERANGEMODE	TOGGLE	F	I/E AutoRange
IERANGE	IQUANT	11	I/E Range
POSFEEDENABLE	TOGGLE	F	Positive Feedback IR Comp
POSFEEDRESISTANCE	QUANT	0	Positive Feedback Resistance (ohm)
ACHSELECT	IQUANT	0	Ach Select
CABLEID	IQUANT	13	Cable ID
DCCALDATE	LABEL	9/10/2021	DC Calibration Date
ACCALDATE	LABEL	9/10/2021	AC Calibration Date
THERMOSELECT	IQUANT	1	Thermo Select
FRAMEWORKVERSION	QUANT	6.33	Framework Version
INSTRUMENTVERSION	LABEL	3.50	Instrument Version
COMPLIANCEVOLTAGE	IQUANT	0	Compliance Voltage
ZCURVE	TABLE
	Pt	Time	Freq	Zreal	Zimag	Zsig	Zmod	Zphz	Idc	Vdc	IERange
	#	s	Hz	ohm	ohm	V	ohm	°	A	V	#
	0	7	300046.9	42.91402	2.136009	1	42.96715	2.849497	-4.470859E-007	-0.0015939	9
	1	10	238359.4	43.13112	1.759696	1	43.167	2.3363	5.416889E-005	-0.0024972	9
	2	13	189328.1	43.37402	1.207944	1	43.39084	1.595246	3.736692E-005	-0.0010265	9
	3	15	150421.9	43.58861	0.957002	1	43.59912	1.257746	-5.368704E-005	0.0016414	9
	4	18	119484.4	43.81736	0.7795569	1	43.82429	1.019245	5.513954E-005	-0.0021181	9
	5	21	94921.88	44.07839	0.633773	1	44.08295	0.82376	-2.412259E-006	-0.0004217	9
	6	23	75421.88	44.26675	0.4431438	1	44.26896	0.5735551	2.003861E-005	-0.0006664	9
	7	26	59859.37	44.47414	0.2687102	1	44.47495	0.3461736	-1.27847E-005	0.0004091	9
	8	28	47578.12	44.6778	0.1242095	1	44.67797	0.1592885	-1.575145E-005	0.0003185	9
	9	31	37828.12	44.89335	-0.0364741	1	44.89336	-0.0465506	2.350204E-006	-0.0005131	9
	10	33	30046.88	45.12134	-0.1541766	1	45.1216	-0.1957751	-3.619266E-006	0.0002137	9
	11	36	23859.38	45.33879	-0.2968682	1	45.33976	-0.3751546	-9.395199E-006	-0.0001133	9
	12	38	18984.38	45.56165	-0.4378042	1	45.56375	-0.5505411	8.437883E-006	-0.000642	9
	13	40	15046.87	45.76997	-0.5995569	1	45.7739	-0.7504946	-1.366337E-005	0.0004057	9
	14	43	11953.13	45.9836	-0.7432752	1	45.98961	-0.9260436	-1.435324E-005	0.0001704	9
	15	45	9515.62	46.21478	-0.986085	1	46.2253	-1.222335	1.847926E-005	-0.0004534	9
	16	47	7546.875	46.43807	-1.237396	1	46.45456	-1.526351	-3.09134E-006	0.0003045	9
	17	50	5928.309	46.69383	-1.571399	1	46.72026	-1.927461	1.867393E-005	-0.00067	9
	18	52	4733.456	46.92308	-1.937683	1	46.96307	-2.364678	-3.15555E-006	0.0002638	9
	19	54	3796.875	47.17676	-2.410936	1	47.23832	-2.925517	9.071973E-006	-0.0002165	9
	20	57	2987.132	47.44956	-3.01929	1	47.54552	-3.640912	-9.776107E-006	-0.0001178	9
	21	59	2390.625	47.70299	-3.732472	1	47.84879	-4.473935	-4.761357E-006	0.0002548	9
	22	61	1884.191	48.03661	-4.64676	1	48.26083	-5.525243	-3.845806E-006	-0.0003166	9
	23	64	1516.544	48.34613	-5.711311	1	48.68231	-6.737342	-1.329808E-005	2.214652E-005	9
	24	66	1193.986	48.71263	-7.149933	1	49.23456	-8.350125	2.717249E-006	-0.0005029	9
	25	69	946.5144	49.12307	-8.8983	1	49.92249	-10.2674	1.936833E-005	-0.0006748	9
	26	71	751.7689	49.58189	-11.0485	1	50.79797	-12.56217	-1.610465E-005	0.0004172	9
	27	73	597.4265	50.07769	-13.72161	1	51.92358	-15.32331	1.033399E-005	-0.0001405	9
	28	76	477.4305	50.69818	-16.92204	1	53.44775	-18.45798	7.085076E-007	-0.0001229	9
	29	78	376.6741	51.40982	-21.10596	1	55.57366	-22.32028	6.342085E-007	-0.0001274	9
	30	80	298.2954	52.26012	-26.22599	1	58.47155	-26.64913	7.470452E-007	-0.0001226	9
	31	83	237.7717	53.27795	-32.37191	1	62.34164	-31.28305	6.565631E-007	-0.0001295	9
	32	85	189.0121	54.51471	-40.0362	1	67.6369	-36.29397	6.878781E-007	-0.000127	9
	33	87	150.2404	56.02551	-49.48796	1	74.75237	-41.45452	7.625745E-007	-0.0001272	9
	34	90	119.1737	57.88995	-61.26113	1	84.28625	-46.62066	7.743875E-007	-0.0001285	9
	35	92	95.0169	60.14395	-75.44365	1	96.4834	-51.43802	7.126803E-007	-0.0001246	9
	36	95	75.60484	62.96104	-93.05476	1	112.3534	-55.91764	7.64117E-007	-0.0001273	9
	37	97	54.50582	68.12488	-125.5237	1	142.8188	-61.5102	7.497637E-007	-0.0001299	9
	38	100	45.95588	71.66289	-146.7132	1	163.2799	-63.96654	8.085666E-007	-0.0001214	9
	39	102	37.20238	76.85071	-177.8457	1	193.7398	-66.62985	6.992805E-007	-0.0001193	9
	40	105	30.04808	83.29794	-215.9428	1	231.4516	-68.90634	1.186155E-006	-0.0001768	9
	41	107	23.91582	91.78294	-265.587	1	280.9992	-70.93561	8.937949E-007	-0.0001398	9
	42	109	18.60119	103.521	-333.4189	1	349.1199	-72.7513	7.784104E-007	-0.0001267	9
	43	112	15.02404	116.1425	-404.396	1	420.7436	-73.97594	7.09834E-007	-0.0001717	9
	44	114	12.01923	131.9319	-492.6141	1	509.9752	-75.00691	4.322021E-007	-0.000115	8
	45	116	9.450605	154.1477	-611.689	1	630.813	-75.85577	3.392973E-007	-0.0001195	8
	46	119	7.512019	181.268	-751.7631	1	773.3084	-76.4434	3.143867E-007	-0.0001325	8
	47	122	5.978954	215.4516	-922.4921	1	947.3179	-76.854	3.236153E-007	-0.0001156	8
	48	125	4.734848	260.3518	-1136.12	1	1165.569	-77.09303	3.078599E-007	-0.0001444	8
	49	128	3.75601	318.5989	-1395.619	1	1431.523	-77.14059	3.715126E-007	-0.0000957	8
	50	131	3.004808	389.7404	-1698.977	1	1743.107	-77.08005	3.759829E-007	-0.0001458	8
	51	135	2.372217	483.6841	-2090.086	1	2145.323	-76.97008	3.639744E-007	-0.0001719	8
	52	139	1.878005	608.2866	-2560.001	1	2631.277	-76.63371	3.698962E-007	-0.0001368	8
	53	144	1.512097	750.9953	-3085.375	1	3175.458	-76.31995	3.515318E-007	-0.0002219	8
	54	150	1.201923	936.483	-3757.329	1	3872.276	-76.00465	3.423238E-007	-0.0001024	8
	55	156	0.956633	1164.611	-4567.731	1	4713.861	-75.69634	2.691101E-008	-0.0006477	7
