EXPLAIN
TAG	EISPOT
TITLE	LABEL	Potentiostatic EIS	Test Identifier
DATE	LABEL	10/5/2021	Date
TIME	LABEL	14:28:50	Time
NOTES	NOTES	1	Notes...
	
PSTAT	PSTAT	REF3000-16137	Potentiostat
VDC	POTEN	0.00000E+000	T	DC Voltage (V)
FREQINIT	QUANT	3.00000E+005	Initial Freq. (Hz)
FREQFINAL	QUANT	1.00000E+000	Final Freq. (Hz)
PTSPERDEC	QUANT	1.00000E+001	Points/decade
VAC	QUANT	5.00000E+001	AC Voltage (mV rms)
AREA	QUANT	1.00000E+000	Sample Area (cm^2)
SPEED	SELECTOR	2	Optimize for:
ZGUESS	QUANT	1.00000E+003	Estimated Z (ohms)
EOC	QUANT	0	Open Circuit (V)
SEQUENCER	TOGGLE	TRUE	Run as Sequence
PSTATMODEL	IQUANT	5	Pstat Model
PSTATSECTION	LABEL	REF3000-16137	Pstat Section
PSTATSERIALNO	LABEL	16137	Pstat Serial Number
CTRLMODE	IQUANT	1	Control Mode
IESTAB	IQUANT	0	I/E Stability
CASPEED	IQUANT	1	Control Amp Speed
CONVENTION	IQUANT	1	Current Convention
ICHRANGE	IQUANT	2	Ich Range
ICHRANGEMODE	TOGGLE	F	Ich Auto Range
ICHOFFSETENABLE	TOGGLE	T	Ich Offset Enable
ICHOFFSET	QUANT	0	Ich Offset (V)
ICHFILTER	IQUANT	3	Ich Filter
VCHRANGE	IQUANT	2	Vch Range
VCHRANGEMODE	TOGGLE	F	Vch Auto Range
VCHOFFSETENABLE	TOGGLE	T	Vch Offset Enable
VCHOFFSET	QUANT	0	Vch Offset (V)
VCHFILTER	IQUANT	3	Vch Filter
ACHRANGE	IQUANT	2	Ach Range
ACHOFFSETENABLE	TOGGLE	F	Ach Offset Enable
ACHOFFSET	QUANT	0	Ach Offset (V)
ACHFILTER	IQUANT	3	Ach Filter
IERANGELOWERLIMIT	IQUANT	2	I/E Range Lower Limit
IERANGEMODE	TOGGLE	F	I/E AutoRange
IERANGE	IQUANT	11	I/E Range
POSFEEDENABLE	TOGGLE	F	Positive Feedback IR Comp
POSFEEDRESISTANCE	QUANT	0	Positive Feedback Resistance (ohm)
ACHSELECT	IQUANT	0	Ach Select
CABLEID	IQUANT	13	Cable ID
DCCALDATE	LABEL	9/10/2021	DC Calibration Date
ACCALDATE	LABEL	9/10/2021	AC Calibration Date
THERMOSELECT	IQUANT	1	Thermo Select
FRAMEWORKVERSION	QUANT	6.33	Framework Version
INSTRUMENTVERSION	LABEL	3.50	Instrument Version
COMPLIANCEVOLTAGE	IQUANT	0	Compliance Voltage
ZCURVE	TABLE
	Pt	Time	Freq	Zreal	Zimag	Zsig	Zmod	Zphz	Idc	Vdc	IERange
	#	s	Hz	ohm	ohm	V	ohm	°	A	V	#
	0	8	300046.9	8.450806	2.155335	1	8.72133	14.30797	2.729632E-005	-0.0008534	10
	1	11	238359.4	8.440318	1.718745	1	8.613539	11.51006	1.978795E-005	-0.0007333	10
	2	14	189328.1	8.447042	1.357776	1	8.555471	9.131605	-1.788427E-005	-0.0004628	10
	3	17	150421.9	8.465957	1.055027	1	8.531442	7.103576	-5.846902E-006	-0.0004278	10
	4	19	119484.4	8.471616	0.8166759	1	8.510889	5.50638	-0.0000961	-0.0002261	10
	5	22	94921.88	8.494093	0.6280433	1	8.51728	4.228688	-2.02234E-005	-0.0001679	10
	6	24	75421.88	8.510087	0.4518973	1	8.522077	3.03963	-2.362663E-005	-0.0002058	10
	7	27	59859.37	8.533048	0.2988869	1	8.53828	2.006078	5.465944E-006	-0.0002132	10
	8	29	47578.12	8.556894	0.1666552	1	8.558517	1.115759	2.153923E-005	-0.0001974	10
	9	32	37828.12	8.585625	0.0473885	1	8.585755	0.3162416	-2.484294E-005	-0.0001556	10
	10	34	30046.88	8.61639	-0.0668317	1	8.61665	-0.4443972	-1.361536E-005	-9.149955E-005	10
	11	37	23859.38	8.643682	-0.1833129	1	8.645625	-1.214932	2.648689E-005	-0.000152	10
	12	39	18984.38	8.672225	-0.3058419	1	8.677616	-2.019804	2.179429E-005	-0.0001762	10
	13	42	15046.87	8.705162	-0.4440029	1	8.716477	-2.919816	2.031004E-005	-0.0001676	10
	14	44	11953.13	8.739368	-0.600428	1	8.75997	-3.930263	2.092324E-005	-0.0001687	10
	15	46	9515.62	8.775776	-0.7831199	1	8.810648	-5.09937	2.190521E-005	-0.0001656	10
	16	49	7546.875	8.819382	-1.004557	1	8.876409	-6.498177	-1.490275E-005	-0.0001179	10
	17	51	5928.309	8.868913	-1.288023	1	8.961954	-8.263232	-2.841492E-005	-0.0001073	10
	18	53	4733.456	8.922877	-1.610719	1	9.067092	-10.23259	2.185366E-005	-0.0001567	10
	19	55	3796.875	8.984251	-1.994742	1	9.20303	-12.51812	1.259504E-005	-0.0001737	10
	20	58	2987.132	9.063389	-2.513347	1	9.40542	-15.4991	-2.428088E-005	-0.0001123	10
	21	60	2390.625	9.151493	-3.106939	1	9.66452	-18.75239	-2.781342E-005	-0.0001273	10
	22	62	1884.191	9.264857	-3.886324	1	10.04694	-22.75656	-1.151004E-005	-0.000134	10
	23	65	1516.544	9.393873	-4.76452	1	10.53307	-26.89387	-4.578593E-006	-0.000126	10
	24	67	1193.986	9.56429	-5.954195	1	11.26624	-31.90409	-1.662795E-005	-0.0001247	10
	25	70	946.5144	9.76843	-7.393354	1	12.25087	-37.1207	-3.019371E-005	-0.0001327	10
	26	72	751.7689	10.01939	-9.147664	1	13.56717	-42.39595	-4.431913E-006	-0.000128	10
	27	74	597.4265	10.33262	-11.31608	1	15.32373	-47.60107	-1.452936E-005	-0.0001111	10
	28	76	477.4305	10.72195	-13.91635	1	17.56772	-52.3873	-1.591078E-006	-0.0001167	10
	29	79	376.6741	11.2249	-17.30416	1	20.62601	-57.02924	-1.438326E-006	-0.0001205	10
	30	81	298.2954	11.85153	-21.43522	1	24.49342	-61.0618	-1.825452E-006	-0.0001161	10
	31	83	237.7717	12.61884	-26.38528	1	29.24753	-64.4404	-2.41421E-006	-0.0001216	10
	32	86	189.0121	13.58971	-32.53596	1	35.26002	-67.33054	-1.943956E-006	-0.0001195	10
	33	88	150.2404	14.7882	-40.0548	1	42.69751	-69.73589	8.041192E-007	-0.0001344	9
	34	91	119.1737	16.32342	-49.44767	1	52.07232	-71.73116	8.860087E-007	-0.0001329	9
	35	93	95.0169	18.20753	-60.73318	1	63.40374	-73.31151	8.042604E-007	-0.000132	9
	36	96	75.60484	20.5984	-74.71745	1	77.50478	-74.58732	7.474213E-007	-0.0001386	9
	37	98	54.50582	25.15788	-100.449	1	103.5516	-75.93927	6.652049E-007	-0.0001402	9
	38	101	45.95588	28.2557	-117.2017	1	120.5597	-76.44545	8.149729E-007	-0.0001353	9
	39	103	37.20238	32.98257	-141.7646	1	145.5509	-76.90272	7.529868E-007	-0.0001298	9
	40	105	30.04808	39.01186	-171.7199	1	176.0956	-77.20062	6.98824E-007	-0.0001301	9
	41	108	23.91582	47.22852	-210.4945	1	215.7278	-77.35401	7.477124E-007	-0.0001353	9
	42	110	18.60119	59.14613	-263.1357	1	269.7011	-77.33193	9.555088E-007	-0.0001332	9
	43	112	15.02404	72.17038	-317.6362	1	325.7319	-77.1991	6.745122E-007	-0.000139	9
	44	115	12.01923	89.45721	-385.8047	1	396.0403	-76.94542	8.876852E-007	-0.0001349	9
	45	117	9.450605	112.7989	-472.6581	1	485.9313	-76.57754	5.382632E-007	-0.0001224	8
	46	120	7.512019	141.2136	-574.7916	1	591.884	-76.19707	5.708512E-007	-0.000135	8
	47	122	5.978954	176.3771	-697.038	1	719.0069	-75.80005	6.119831E-007	-0.0001169	8
	48	125	4.734848	221.1242	-847.4391	1	875.8133	-75.37576	6.10159E-007	-0.0001464	8
	49	129	3.75601	275.918	-1028.236	1	1064.612	-74.97904	6.599892E-007	-0.0001128	8
	50	132	3.004808	340.3368	-1237.185	1	1283.143	-74.61898	7.029671E-007	-0.000154	8
	51	136	2.372217	423.9214	-1506.5	1	1565.009	-74.28368	6.323411E-007	-0.0001833	8
	52	140	1.878005	531.3188	-1829.131	1	1904.736	-73.80268	6.207208E-007	-0.0001121	8
	53	145	1.512097	654.4529	-2191.663	1	2287.29	-73.37384	6.599451E-007	-0.0002295	8
	54	150	1.201923	824.5969	-2654.008	1	2779.158	-72.74005	6.136191E-007	-0.000113	8
	55	157	0.956633	1042.676	-3203.886	1	3369.282	-71.97298	6.008901E-007	-0.0006673	8
