EXPLAIN
TAG	EISPOT
TITLE	LABEL	Potentiostatic EIS	Test Identifier
DATE	LABEL	10/5/2021	Date
TIME	LABEL	14:26:04	Time
NOTES	NOTES	1	Notes...
	
PSTAT	PSTAT	REF3000-16137	Potentiostat
VDC	POTEN	0.00000E+000	T	DC Voltage (V)
FREQINIT	QUANT	3.00000E+005	Initial Freq. (Hz)
FREQFINAL	QUANT	1.00000E+000	Final Freq. (Hz)
PTSPERDEC	QUANT	1.00000E+001	Points/decade
VAC	QUANT	5.00000E+001	AC Voltage (mV rms)
AREA	QUANT	1.00000E+000	Sample Area (cm^2)
SPEED	SELECTOR	2	Optimize for:
ZGUESS	QUANT	1.00000E+003	Estimated Z (ohms)
EOC	QUANT	0	Open Circuit (V)
SEQUENCER	TOGGLE	TRUE	Run as Sequence
PSTATMODEL	IQUANT	5	Pstat Model
PSTATSECTION	LABEL	REF3000-16137	Pstat Section
PSTATSERIALNO	LABEL	16137	Pstat Serial Number
CTRLMODE	IQUANT	1	Control Mode
IESTAB	IQUANT	0	I/E Stability
CASPEED	IQUANT	1	Control Amp Speed
CONVENTION	IQUANT	1	Current Convention
ICHRANGE	IQUANT	2	Ich Range
ICHRANGEMODE	TOGGLE	F	Ich Auto Range
ICHOFFSETENABLE	TOGGLE	T	Ich Offset Enable
ICHOFFSET	QUANT	0	Ich Offset (V)
ICHFILTER	IQUANT	3	Ich Filter
VCHRANGE	IQUANT	2	Vch Range
VCHRANGEMODE	TOGGLE	F	Vch Auto Range
VCHOFFSETENABLE	TOGGLE	T	Vch Offset Enable
VCHOFFSET	QUANT	0	Vch Offset (V)
VCHFILTER	IQUANT	3	Vch Filter
ACHRANGE	IQUANT	2	Ach Range
ACHOFFSETENABLE	TOGGLE	F	Ach Offset Enable
ACHOFFSET	QUANT	0	Ach Offset (V)
ACHFILTER	IQUANT	3	Ach Filter
IERANGELOWERLIMIT	IQUANT	2	I/E Range Lower Limit
IERANGEMODE	TOGGLE	F	I/E AutoRange
IERANGE	IQUANT	11	I/E Range
POSFEEDENABLE	TOGGLE	F	Positive Feedback IR Comp
POSFEEDRESISTANCE	QUANT	0	Positive Feedback Resistance (ohm)
ACHSELECT	IQUANT	0	Ach Select
CABLEID	IQUANT	13	Cable ID
DCCALDATE	LABEL	9/10/2021	DC Calibration Date
ACCALDATE	LABEL	9/10/2021	AC Calibration Date
THERMOSELECT	IQUANT	1	Thermo Select
FRAMEWORKVERSION	QUANT	6.33	Framework Version
INSTRUMENTVERSION	LABEL	3.50	Instrument Version
COMPLIANCEVOLTAGE	IQUANT	0	Compliance Voltage
ZCURVE	TABLE
	Pt	Time	Freq	Zreal	Zimag	Zsig	Zmod	Zphz	Idc	Vdc	IERange
	#	s	Hz	ohm	ohm	V	ohm	°	A	V	#
	0	8	300046.9	7.16107	2.19813	1	7.490841	17.06416	-1.242423E-005	-0.0008104	10
	1	11	238359.4	7.168534	1.738919	1	7.376431	13.63524	-8.96874E-006	-0.0008815	10
	2	14	189328.1	7.162949	1.366999	1	7.292223	10.80458	2.171773E-005	-0.0005654	10
	3	17	150421.9	7.161815	1.078196	1	7.24252	8.561462	2.074647E-005	-0.0004198	10
	4	19	119484.4	7.177577	0.8251908	1	7.224857	6.558379	6.984702E-005	-0.0004797	10
	5	22	94921.88	7.195457	0.6357263	1	7.223486	5.049033	7.320448E-006	-0.000266	10
	6	24	75421.88	7.207997	0.460886	1	7.222716	3.658565	-1.040349E-005	-0.0002043	10
	7	27	59859.37	7.223469	0.3083719	1	7.230048	2.444489	1.353954E-005	-0.0002225	10
	8	29	47578.12	7.243305	0.1758779	1	7.24544	1.390951	1.838559E-005	-0.0002098	10
	9	32	37828.12	7.26618	0.0563228	1	7.266398	0.4441118	1.842425E-005	-0.0001483	10
	10	35	30046.88	7.289867	-0.0582797	1	7.2901	-0.4580478	-2.318291E-005	-0.0001026	10
	11	37	23859.38	7.312895	-0.1732941	1	7.314948	-1.357487	-1.336615E-005	-0.0001591	10
	12	39	18984.38	7.337278	-0.2939472	1	7.343163	-2.294166	-8.936825E-006	-0.0001581	10
	13	42	15046.87	7.364299	-0.431116	1	7.376907	-3.350348	-1.265135E-005	-0.0001462	10
	14	44	11953.13	7.39331	-0.5856273	1	7.416468	-4.528967	2.620564E-005	-0.0001274	10
	15	46	9515.62	7.426028	-0.7650559	1	7.465333	-5.882063	-1.867585E-005	-0.0001451	10
	16	49	7546.875	7.462365	-0.983161	1	7.526851	-7.505448	-1.783843E-005	-0.0001417	10
	17	51	5928.309	7.507397	-1.259572	1	7.612328	-9.52423	-1.067418E-005	-0.0001314	10
	18	53	4733.456	7.556611	-1.576888	1	7.719387	-11.78714	-1.438791E-005	-0.0001217	10
	19	56	3796.875	7.614116	-1.955682	1	7.861263	-14.405	1.867818E-005	-0.0001255	10
	20	58	2987.132	7.686828	-2.459429	1	8.070695	-17.74226	-3.779419E-006	-0.0001495	10
	21	60	2390.625	7.770419	-3.04005	1	8.343939	-21.36711	1.916792E-005	-0.0001234	10
	22	62	1884.191	7.876858	-3.80345	1	8.747064	-25.77422	-2.694708E-005	-0.0001154	10
	23	65	1516.544	8.000539	-4.659109	1	9.258289	-30.21436	2.172474E-005	-0.0001585	10
	24	67	1193.986	8.165392	-5.821473	1	10.02812	-35.48677	1.792391E-005	-0.0001704	10
	25	70	946.5144	8.360551	-7.225415	1	11.05013	-40.83447	-2.948282E-005	-0.0001332	10
	26	72	751.7689	8.609486	-8.93681	1	12.40926	-46.06873	-1.692308E-005	-0.0001614	10
	27	74	597.4265	8.912003	-11.04859	1	14.1949	-51.1097	2.356206E-005	-0.0001557	10
	28	77	477.4305	9.293055	-13.59568	1	16.46825	-55.64622	-1.828047E-006	-0.0001202	10
	29	79	376.6741	9.78822	-16.89982	1	19.5298	-59.92097	-1.651852E-006	-0.000122	10
	30	81	298.2954	10.40548	-20.92785	1	23.37197	-63.5631	-1.33591E-006	-0.0001194	10
	31	83	237.7717	11.1599	-25.74607	1	28.06071	-66.56519	-1.546409E-006	-0.0001192	10
	32	86	189.0121	12.11649	-31.74423	1	33.97802	-69.10858	-2.337382E-006	-0.000117	10
	33	88	150.2404	13.31392	-39.11483	1	41.31865	-71.20243	-2.252773E-006	-0.0001165	10
	34	91	119.1737	14.81174	-48.2192	1	50.44283	-72.92434	8.447062E-007	-0.0001349	9
	35	93	95.0169	16.6776	-59.21802	1	61.52167	-74.27116	8.102285E-007	-0.0001392	9
	36	96	75.60484	19.05493	-72.83833	1	75.28953	-75.33964	7.003127E-007	-0.0001356	9
	37	98	54.50582	23.62691	-97.891	1	100.7019	-76.43064	7.375635E-007	-0.0001475	9
	38	101	45.95588	26.75016	-114.1715	1	117.2634	-76.81357	8.966852E-007	-0.0001308	9
	39	103	37.20238	31.52234	-138.0549	1	141.608	-77.13805	7.313087E-007	-0.0001267	9
	40	105	30.04808	37.64267	-167.1196	1	171.3065	-77.30631	7.723194E-007	-0.0001381	9
	41	108	23.91582	46.06771	-204.7023	1	209.822	-77.31703	6.813117E-007	-0.0001373	9
	42	110	18.60119	58.05221	-255.3739	1	261.8891	-77.19302	8.391116E-007	-0.0001251	9
	43	112	15.02404	71.17142	-307.7355	1	315.8583	-76.97789	7.266959E-007	-0.0001331	9
	44	115	12.01923	88.58274	-373.0805	1	383.4527	-76.64326	8.990109E-007	-0.0001776	9
	45	117	9.450605	111.7296	-456.3564	1	469.8347	-76.2429	6.229635E-007	-0.0001313	8
	46	120	7.512019	139.7834	-554.2377	1	571.5933	-75.84473	6.62282E-007	-0.0001361	8
	47	122	5.978954	174.5269	-671.0116	1	693.337	-75.42068	6.405438E-007	-0.0001171	8
	48	126	4.734848	218.5707	-815.0007	1	843.8005	-74.98741	6.525842E-007	-0.0001363	8
	49	129	3.75601	272.0193	-987.97	1	1024.734	-74.60609	6.825333E-007	-0.00011	8
	50	132	3.004808	335.375	-1187.934	1	1234.368	-74.23468	7.331624E-007	-0.0001445	8
	51	136	2.372217	420.6894	-1446.538	1	1506.47	-73.78424	6.56272E-007	-0.000193	8
	52	140	1.878005	525.9847	-1755.967	1	1833.052	-73.32487	7.316826E-007	-0.0001175	8
	53	145	1.512097	653.5189	-2096.926	1	2196.402	-72.69006	6.91919E-007	-0.0001874	8
	54	150	1.201923	827.9347	-2540.053	1	2671.582	-71.94653	6.802595E-007	-8.899433E-005	8
	55	157	0.956633	1056.552	-3060.134	1	3237.395	-70.9521	6.101356E-007	-0.0006756	8
