EXPLAIN
TAG	EISPOT
TITLE	LABEL	Potentiostatic EIS	Test Identifier
DATE	LABEL	10/5/2021	Date
TIME	LABEL	14:09:14	Time
NOTES	NOTES	1	Notes...
	
PSTAT	PSTAT	REF3000-16137	Potentiostat
VDC	POTEN	0.00000E+000	T	DC Voltage (V)
FREQINIT	QUANT	3.00000E+005	Initial Freq. (Hz)
FREQFINAL	QUANT	1.00000E+000	Final Freq. (Hz)
PTSPERDEC	QUANT	1.00000E+001	Points/decade
VAC	QUANT	5.00000E+001	AC Voltage (mV rms)
AREA	QUANT	1.00000E+000	Sample Area (cm^2)
SPEED	SELECTOR	2	Optimize for:
ZGUESS	QUANT	1.00000E+003	Estimated Z (ohms)
EOC	QUANT	0	Open Circuit (V)
SEQUENCER	TOGGLE	TRUE	Run as Sequence
PSTATMODEL	IQUANT	5	Pstat Model
PSTATSECTION	LABEL	REF3000-16137	Pstat Section
PSTATSERIALNO	LABEL	16137	Pstat Serial Number
CTRLMODE	IQUANT	1	Control Mode
IESTAB	IQUANT	0	I/E Stability
CASPEED	IQUANT	1	Control Amp Speed
CONVENTION	IQUANT	1	Current Convention
ICHRANGE	IQUANT	2	Ich Range
ICHRANGEMODE	TOGGLE	F	Ich Auto Range
ICHOFFSETENABLE	TOGGLE	T	Ich Offset Enable
ICHOFFSET	QUANT	0	Ich Offset (V)
ICHFILTER	IQUANT	3	Ich Filter
VCHRANGE	IQUANT	2	Vch Range
VCHRANGEMODE	TOGGLE	F	Vch Auto Range
VCHOFFSETENABLE	TOGGLE	T	Vch Offset Enable
VCHOFFSET	QUANT	0	Vch Offset (V)
VCHFILTER	IQUANT	3	Vch Filter
ACHRANGE	IQUANT	2	Ach Range
ACHOFFSETENABLE	TOGGLE	F	Ach Offset Enable
ACHOFFSET	QUANT	0	Ach Offset (V)
ACHFILTER	IQUANT	3	Ach Filter
IERANGELOWERLIMIT	IQUANT	2	I/E Range Lower Limit
IERANGEMODE	TOGGLE	F	I/E AutoRange
IERANGE	IQUANT	11	I/E Range
POSFEEDENABLE	TOGGLE	F	Positive Feedback IR Comp
POSFEEDRESISTANCE	QUANT	0	Positive Feedback Resistance (ohm)
ACHSELECT	IQUANT	0	Ach Select
CABLEID	IQUANT	13	Cable ID
DCCALDATE	LABEL	9/10/2021	DC Calibration Date
ACCALDATE	LABEL	9/10/2021	AC Calibration Date
THERMOSELECT	IQUANT	1	Thermo Select
FRAMEWORKVERSION	QUANT	6.33	Framework Version
INSTRUMENTVERSION	LABEL	3.50	Instrument Version
COMPLIANCEVOLTAGE	IQUANT	0	Compliance Voltage
ZCURVE	TABLE
	Pt	Time	Freq	Zreal	Zimag	Zsig	Zmod	Zphz	Idc	Vdc	IERange
	#	s	Hz	ohm	ohm	V	ohm	°	A	V	#
	0	11	300046.9	3.445299	2.244454	1	4.111893	33.0824	-2.408646E-005	-0.000934	10
	1	14	238359.4	3.435329	1.786524	1	3.872099	27.47643	-5.378192E-005	-0.0012205	10
	2	17	189328.1	3.415273	1.411445	1	3.695439	22.45405	-5.333958E-005	-0.0008871	10
	3	19	150421.9	3.398227	1.10647	1	3.573825	18.03536	7.460939E-005	-0.0008652	10
	4	22	119484.4	3.397706	0.8538384	1	3.503348	14.10624	-0.000098	-0.0005384	10
	5	24	94921.88	3.40105	0.6551979	1	3.463585	10.90421	2.974003E-005	-0.0004263	10
	6	27	75421.88	3.409894	0.3677825	1	3.429671	6.155979	-0.000122	-0.0003458	12
	7	31	59859.37	3.405366	0.3182139	1	3.420201	5.338493	-4.845675E-005	0.0003211	11
	8	33	47578.12	3.410817	0.1943288	1	3.416348	3.260861	-4.210964E-005	0.0003354	11
	9	36	37828.12	3.418338	0.0813073	1	3.419305	1.362558	-7.734203E-005	0.0003422	11
	10	38	30046.88	3.427102	-0.0268789	1	3.427208	-0.4493645	-7.306469E-005	0.0003544	11
	11	41	23859.38	3.435375	-0.1352518	1	3.438036	-2.254588	-3.651263E-005	0.0003641	11
	12	43	18984.38	3.446996	-0.2477403	1	3.455888	-4.110857	-6.272292E-005	0.0003266	11
	13	45	15046.87	3.461139	-0.3733408	1	3.481217	-6.156488	-0.0000979	0.00032	11
	14	48	11953.13	3.477391	-0.5145394	1	3.515252	-8.416817	-0.0000994	0.0003223	11
	15	50	9515.62	3.500592	-0.6771193	1	3.565478	-10.94752	-1.311891E-005	-0.0001402	10
	16	52	7546.875	3.524246	-0.8746588	1	3.631161	-13.93823	1.742379E-006	-0.0001496	10
	17	55	5928.309	3.556055	-1.124485	1	3.72961	-17.54784	-2.437813E-005	-0.0001123	10
	18	57	4733.456	3.592346	-1.408109	1	3.858461	-21.40393	-1.3936E-005	-0.0001157	10
	19	59	3796.875	3.635573	-1.744697	1	4.032538	-25.63616	2.718185E-006	-0.0001496	10
	20	62	2987.132	3.695108	-2.195079	1	4.297929	-30.71243	6.8748E-006	-0.0001348	10
	21	64	2390.625	3.76479	-2.707349	1	4.637175	-35.7208	1.879193E-005	-0.000152	10
	22	66	1884.191	3.855185	-3.385368	1	5.130611	-41.28746	2.231832E-005	-0.0001407	10
	23	69	1516.544	3.960101	-4.14386	1	5.731839	-46.29898	-1.056948E-005	-0.0001331	10
	24	71	1193.986	4.105342	-5.172419	1	6.603617	-51.56101	2.204297E-005	-0.0001456	10
	25	73	946.5144	4.280379	-6.414304	1	7.711351	-56.28411	-1.920393E-005	-0.0001476	10
	26	76	751.7689	4.507327	-7.925439	1	9.117488	-60.3724	-2.330883E-005	-0.0001153	10
	27	78	597.4265	4.796031	-9.78592	1	10.89799	-63.89076	-1.942866E-006	-0.0001452	10
	28	80	477.4305	5.145136	-12.01697	1	13.0721	-66.82153	-1.20223E-006	-0.0001181	10
	29	83	376.6741	5.609115	-14.91208	1	15.93211	-69.38642	-5.286712E-007	-0.0001217	10
	30	85	298.2954	6.187275	-18.43546	1	19.44605	-71.44732	-1.735171E-006	-0.0001137	10
	31	87	237.7717	6.896467	-22.64831	1	23.67503	-73.06438	-1.285262E-006	-0.0001158	10
	32	90	189.0121	7.80672	-27.89023	1	28.96221	-74.3626	-1.91662E-006	-0.0001229	10
	33	92	150.2404	8.968559	-34.32533	1	35.47764	-75.35705	-2.098232E-006	-0.0001222	10
	34	95	119.1737	10.46066	-42.25558	1	43.53113	-76.09557	1.073693E-006	-0.0001356	9
	35	97	95.0169	12.3578	-51.79585	1	53.24965	-76.58086	9.298093E-007	-0.0001367	9
	36	99	75.60484	14.82775	-63.54771	1	65.25468	-76.86602	9.233431E-007	-0.0001348	9
	37	102	54.50582	19.68166	-84.95744	1	87.20742	-76.95667	7.682344E-007	-0.0001395	9
	38	105	45.95588	23.01819	-98.7339	1	101.3816	-76.87683	1.097536E-006	-0.0001373	9
	39	107	37.20238	28.09915	-118.6731	1	121.9544	-76.67896	9.312909E-007	-0.0001327	9
	40	109	30.04808	34.58805	-142.7136	1	146.8452	-76.3765	8.250499E-007	-0.0001329	9
	41	112	23.91582	43.25949	-173.3361	1	178.6527	-75.98695	7.339651E-007	-0.0001392	9
	42	114	18.60119	55.56271	-214.3858	1	221.4689	-75.47025	8.285649E-007	-0.000125	9
	43	116	15.02404	68.36844	-256.2509	1	265.2146	-75.0613	8.549953E-007	-0.0001372	9
	44	119	12.01923	84.9026	-308.2141	1	319.6942	-74.59892	1.051904E-006	-0.0001273	9
	45	121	9.450605	106.9637	-375.6565	1	390.5881	-74.10633	7.911035E-007	-0.000127	9
	46	124	7.512019	132.4802	-451.7927	1	470.8159	-73.65716	7.004872E-007	-0.0001101	8
	47	126	5.978954	164.4132	-544.7836	1	569.0526	-73.20642	8.210263E-007	-0.0001163	8
	48	129	4.734848	205.8811	-659.9803	1	691.3473	-72.67467	7.441099E-007	-0.0001401	8
	49	133	3.75601	260.066	-797.3954	1	838.7334	-71.93655	9.746299E-007	-0.0000983	8
	50	136	3.004808	327.6479	-955.169	1	1009.802	-71.06669	9.428811E-007	-0.0001296	8
	51	140	2.372217	424.4671	-1153.578	1	1229.193	-69.79855	8.24405E-007	-0.0001906	8
	52	144	1.878005	548.7915	-1382.729	1	1487.653	-68.35236	9.39848E-007	-0.0001184	8
	53	149	1.512097	698.6216	-1620.736	1	1764.896	-66.68143	9.015121E-007	-0.0001496	8
	54	154	1.201923	905.402	-1909.943	1	2113.678	-64.63687	8.975762E-007	-9.01247E-005	8
	55	160	0.956633	1162	-2220.527	1	2506.189	-62.37696	7.058421E-007	-0.0006624	8
