EXPLAIN
TAG	EISPOT
TITLE	LABEL	Potentiostatic EIS	Test Identifier
DATE	LABEL	10/5/2021	Date
TIME	LABEL	14:53:49	Time
NOTES	NOTES	1	Notes...
	
PSTAT	PSTAT	REF3000-16137	Potentiostat
VDC	POTEN	0.00000E+000	T	DC Voltage (V)
FREQINIT	QUANT	3.00000E+005	Initial Freq. (Hz)
FREQFINAL	QUANT	1.00000E+000	Final Freq. (Hz)
PTSPERDEC	QUANT	1.00000E+001	Points/decade
VAC	QUANT	5.00000E+001	AC Voltage (mV rms)
AREA	QUANT	1.00000E+000	Sample Area (cm^2)
SPEED	SELECTOR	2	Optimize for:
ZGUESS	QUANT	1.00000E+003	Estimated Z (ohms)
EOC	QUANT	0	Open Circuit (V)
SEQUENCER	TOGGLE	TRUE	Run as Sequence
PSTATMODEL	IQUANT	5	Pstat Model
PSTATSECTION	LABEL	REF3000-16137	Pstat Section
PSTATSERIALNO	LABEL	16137	Pstat Serial Number
CTRLMODE	IQUANT	1	Control Mode
IESTAB	IQUANT	0	I/E Stability
CASPEED	IQUANT	1	Control Amp Speed
CONVENTION	IQUANT	1	Current Convention
ICHRANGE	IQUANT	2	Ich Range
ICHRANGEMODE	TOGGLE	F	Ich Auto Range
ICHOFFSETENABLE	TOGGLE	T	Ich Offset Enable
ICHOFFSET	QUANT	0	Ich Offset (V)
ICHFILTER	IQUANT	3	Ich Filter
VCHRANGE	IQUANT	2	Vch Range
VCHRANGEMODE	TOGGLE	F	Vch Auto Range
VCHOFFSETENABLE	TOGGLE	T	Vch Offset Enable
VCHOFFSET	QUANT	0	Vch Offset (V)
VCHFILTER	IQUANT	3	Vch Filter
ACHRANGE	IQUANT	2	Ach Range
ACHOFFSETENABLE	TOGGLE	F	Ach Offset Enable
ACHOFFSET	QUANT	0	Ach Offset (V)
ACHFILTER	IQUANT	3	Ach Filter
IERANGELOWERLIMIT	IQUANT	2	I/E Range Lower Limit
IERANGEMODE	TOGGLE	F	I/E AutoRange
IERANGE	IQUANT	11	I/E Range
POSFEEDENABLE	TOGGLE	F	Positive Feedback IR Comp
POSFEEDRESISTANCE	QUANT	0	Positive Feedback Resistance (ohm)
ACHSELECT	IQUANT	0	Ach Select
CABLEID	IQUANT	13	Cable ID
DCCALDATE	LABEL	9/10/2021	DC Calibration Date
ACCALDATE	LABEL	9/10/2021	AC Calibration Date
THERMOSELECT	IQUANT	1	Thermo Select
FRAMEWORKVERSION	QUANT	6.33	Framework Version
INSTRUMENTVERSION	LABEL	3.50	Instrument Version
COMPLIANCEVOLTAGE	IQUANT	0	Compliance Voltage
ZCURVE	TABLE
	Pt	Time	Freq	Zreal	Zimag	Zsig	Zmod	Zphz	Idc	Vdc	IERange
	#	s	Hz	ohm	ohm	V	ohm	°	A	V	#
	0	7	300046.9	82.1419	0.8899179	1	82.14672	0.620713	-6.489206E-005	0.001915	9
	1	10	238359.4	82.81682	0.5298366	1	82.81851	0.3665558	-6.059165E-005	0.0020092	9
	2	14	189328.1	83.3121	0.3261568	1	83.31274	0.2243049	-1.205396E-005	-0.0011533	9
	3	16	150421.9	83.85481	0.1868835	1	83.85502	0.1276924	1.297285E-005	-0.0007684	9
	4	19	119484.4	84.48128	0.0372513	1	84.48129	0.0252641	-3.381884E-005	-0.0002714	9
	5	21	94921.88	85.006	0.0754692	1	85.00603	0.0508677	-1.702229E-005	4.978703E-005	9
	6	24	75421.88	85.47124	-0.0376994	1	85.47125	-0.0252718	2.004775E-005	-0.0008856	9
	7	26	59859.37	85.93961	-0.1660466	1	85.93977	-0.1107028	2.048584E-005	-0.000898	9
	8	29	47578.12	86.44189	-0.2538004	1	86.44226	-0.1682246	-5.962718E-006	0.0003963	9
	9	31	37828.12	86.96623	-0.3294062	1	86.96686	-0.217021	-3.620763E-006	-0.0004402	9
	10	34	30046.88	87.41494	-0.4266495	1	87.41598	-0.2796435	-1.089544E-005	-0.0001673	9
	11	36	23859.38	87.94647	-0.5229575	1	87.94803	-0.3406948	-1.284997E-005	0.0005404	9
	12	39	18984.38	88.40807	-0.6362342	1	88.41036	-0.4123255	-1.225674E-005	0.0006105	9
	13	41	15046.87	88.81756	-0.7820014	1	88.821	-0.5044523	2.060262E-005	-0.0005193	9
	14	43	11953.13	89.33649	-0.9389547	1	89.34143	-0.6021745	-1.766739E-005	0.00058	9
	15	46	9515.62	89.87247	-1.185152	1	89.88028	-0.7555178	2.092588E-005	-0.000702	9
	16	48	7546.875	90.27104	-1.423821	1	90.28227	-0.9036362	3.4787E-006	0.0002406	9
	17	50	5928.309	90.81098	-1.720866	1	90.82729	-1.085624	-1.742648E-005	0.0001105	9
	18	53	4733.456	91.30956	-2.156964	1	91.33503	-1.35322	2.056763E-005	-0.0008596	9
	19	55	3796.875	91.83926	-2.686592	1	91.87854	-1.675607	2.261558E-005	-0.0006869	9
	20	57	2987.132	92.34155	-3.299258	1	92.40047	-2.046242	-4.098417E-006	-0.0004098	9
	21	60	2390.625	92.92539	-3.983784	1	93.01075	-2.454812	-2.042568E-005	0.000384	9
	22	62	1884.191	93.59017	-4.992407	1	93.72324	-3.053451	-1.200113E-005	0.0005824	9
	23	64	1516.544	94.13232	-6.163833	1	94.33392	-3.746409	-1.014839E-005	-0.0001796	9
	24	67	1193.986	94.79184	-7.674772	1	95.102	-4.628827	2.172081E-005	-0.0005002	9
	25	69	946.5144	95.5132	-9.5245	1	95.9869	-5.694663	-1.545203E-005	-1.113423E-005	9
	26	72	751.7689	96.129	-11.79552	1	96.85	-6.995514	2.327688E-005	-0.0007908	9
	27	74	597.4265	96.9481	-14.70588	1	98.0571	-8.62534	2.675096E-006	0.0002188	9
	28	76	477.4305	97.921	-18.06768	1	99.5739	-10.45422	5.642287E-007	-0.000123	9
	29	79	376.6741	98.8971	-22.55007	1	101.4354	-12.84473	7.08315E-007	-0.0001384	9
	30	81	298.2954	100.0097	-28.05181	1	103.8693	-15.66833	6.525856E-007	-0.0001272	9
	31	83	237.7717	101.3089	-34.68103	1	107.0807	-18.89758	5.697757E-007	-0.0001251	9
	32	86	189.0121	102.8389	-42.96701	1	111.454	-22.67561	5.700891E-007	-0.0001221	9
	33	88	150.2404	104.6572	-53.20515	1	117.405	-26.94766	7.40486E-007	-0.0001325	9
	34	91	119.1737	106.8482	-65.96614	1	125.571	-31.69043	6.858047E-007	-0.0001228	9
	35	93	95.0169	109.4482	-81.33448	1	136.3605	-36.61724	5.859511E-007	-0.0001261	9
	36	96	75.60484	112.6358	-100.4221	1	150.9021	-41.71907	6.121772E-007	-0.0001317	9
	37	98	54.50582	118.2103	-135.6649	1	179.9407	-48.93304	5.960657E-007	-0.000133	9
	38	101	45.95588	122.1081	-158.6926	1	200.2342	-52.42306	6.388157E-007	-0.0001279	9
	39	103	37.20238	127.6917	-192.6005	1	231.0847	-56.45612	6.490872E-007	-0.0001312	9
	40	105	30.04808	134.6286	-234.1682	1	270.1104	-60.10442	4.560696E-007	-0.0001261	9
	41	108	23.91582	143.7505	-288.4247	1	322.2624	-63.5084	4.7192E-007	-0.0001336	9
	42	110	18.60119	156.2329	-362.5513	1	394.7812	-66.68752	4.755436E-007	-0.0001302	9
	43	112	15.02404	168.8995	-438.2708	1	469.6896	-68.92448	1.941606E-007	-0.0001031	8
	44	115	12.01923	186.1161	-536.4236	1	567.7935	-70.86541	6.814488E-008	-0.0001132	8
	45	117	9.450605	209.2285	-666.5941	1	698.6589	-72.57413	2.10499E-007	-0.0001288	8
	46	120	7.512019	236.9258	-819.8167	1	853.3658	-73.88078	1.458911E-007	-0.0001303	8
	47	122	5.978954	271.6664	-1006.937	1	1042.94	-74.90138	1.250815E-007	-0.0001122	8
	48	126	4.734848	317.2421	-1242.504	1	1282.365	-75.67698	1.644166E-007	-0.0001246	8
	49	129	3.75601	373.6078	-1529.909	1	1574.866	-76.2768	1.374705E-007	-0.0001075	8
	50	132	3.004808	441.7143	-1866.785	1	1918.332	-76.68764	1.656104E-007	-0.0001289	8
	51	136	2.372217	537.8974	-2301.968	1	2363.978	-76.84777	1.56781E-007	-7.982001E-005	8
	52	140	1.878005	656.8097	-2838.667	1	2913.662	-76.97218	1.228737E-007	-0.0001355	8
	53	145	1.512097	798.8816	-3427.476	1	3519.347	-76.87965	1.661245E-007	-8.328008E-005	8
	54	150	1.201923	990.046	-4213.062	1	4327.826	-76.77576	6.315143E-009	-0.0001344	7
	55	157	0.956633	1229.663	-5140.327	1	5285.36	-76.54659	-4.520412E-009	-0.000648	7
