EXPLAIN
TAG	EISPOT
TITLE	LABEL	Potentiostatic EIS	Test Identifier
DATE	LABEL	10/5/2021	Date
TIME	LABEL	13:37:54	Time
NOTES	NOTES	1	Notes...
	
PSTAT	PSTAT	REF3000-16137	Potentiostat
VDC	POTEN	0.00000E+000	T	DC Voltage (V)
FREQINIT	QUANT	3.00000E+005	Initial Freq. (Hz)
FREQFINAL	QUANT	1.00000E+000	Final Freq. (Hz)
PTSPERDEC	QUANT	1.00000E+001	Points/decade
VAC	QUANT	5.00000E+001	AC Voltage (mV rms)
AREA	QUANT	1.00000E+000	Sample Area (cm^2)
SPEED	SELECTOR	2	Optimize for:
ZGUESS	QUANT	1.00000E+003	Estimated Z (ohms)
EOC	QUANT	0	Open Circuit (V)
SEQUENCER	TOGGLE	TRUE	Run as Sequence
PSTATMODEL	IQUANT	5	Pstat Model
PSTATSECTION	LABEL	REF3000-16137	Pstat Section
PSTATSERIALNO	LABEL	16137	Pstat Serial Number
CTRLMODE	IQUANT	1	Control Mode
IESTAB	IQUANT	0	I/E Stability
CASPEED	IQUANT	1	Control Amp Speed
CONVENTION	IQUANT	1	Current Convention
ICHRANGE	IQUANT	2	Ich Range
ICHRANGEMODE	TOGGLE	F	Ich Auto Range
ICHOFFSETENABLE	TOGGLE	T	Ich Offset Enable
ICHOFFSET	QUANT	0	Ich Offset (V)
ICHFILTER	IQUANT	3	Ich Filter
VCHRANGE	IQUANT	2	Vch Range
VCHRANGEMODE	TOGGLE	F	Vch Auto Range
VCHOFFSETENABLE	TOGGLE	T	Vch Offset Enable
VCHOFFSET	QUANT	0	Vch Offset (V)
VCHFILTER	IQUANT	3	Vch Filter
ACHRANGE	IQUANT	2	Ach Range
ACHOFFSETENABLE	TOGGLE	F	Ach Offset Enable
ACHOFFSET	QUANT	0	Ach Offset (V)
ACHFILTER	IQUANT	3	Ach Filter
IERANGELOWERLIMIT	IQUANT	2	I/E Range Lower Limit
IERANGEMODE	TOGGLE	F	I/E AutoRange
IERANGE	IQUANT	11	I/E Range
POSFEEDENABLE	TOGGLE	F	Positive Feedback IR Comp
POSFEEDRESISTANCE	QUANT	0	Positive Feedback Resistance (ohm)
ACHSELECT	IQUANT	0	Ach Select
CABLEID	IQUANT	13	Cable ID
DCCALDATE	LABEL	9/10/2021	DC Calibration Date
ACCALDATE	LABEL	9/10/2021	AC Calibration Date
THERMOSELECT	IQUANT	1	Thermo Select
FRAMEWORKVERSION	QUANT	6.33	Framework Version
INSTRUMENTVERSION	LABEL	3.50	Instrument Version
COMPLIANCEVOLTAGE	IQUANT	0	Compliance Voltage
ZCURVE	TABLE
	Pt	Time	Freq	Zreal	Zimag	Zsig	Zmod	Zphz	Idc	Vdc	IERange
	#	s	Hz	ohm	ohm	V	ohm	°	A	V	#
	0	10	300046.9	1.860433	2.229793	1	2.903995	50.16	9.969251E-006	-0.0006444	11
	1	13	238359.4	1.942262	1.610649	1	2.523206	39.66772	-0.0001695	-0.0010738	12
	2	17	189328.1	1.873659	1.279278	1	2.268733	34.32409	-0.0002115	-0.0007806	12
	3	21	150421.9	1.774698	1.104238	1	2.09019	31.89037	-3.228756E-005	-8.933176E-005	11
	4	24	119484.4	1.757671	0.8602399	1	1.95689	26.07807	-2.604308E-005	7.408188E-006	11
	5	26	94921.88	1.750417	0.6574321	1	1.869806	20.58548	-3.123968E-005	0.000099	11
	6	29	75421.88	1.746802	0.4899276	1	1.814206	15.66728	-3.111478E-005	0.0001445	11
	7	31	59859.37	1.746192	0.3477274	1	1.780477	11.26225	-5.673746E-005	0.0001911	11
	8	34	47578.12	1.745977	0.2253967	1	1.760466	7.355907	-7.455261E-005	0.0001967	11
	9	36	37828.12	1.748535	0.116129	1	1.752387	3.79972	-8.847703E-005	0.0002333	11
	10	39	30046.88	1.753149	0.0135719	1	1.753202	0.4435416	-2.452539E-005	0.0003241	11
	11	41	23859.38	1.759107	-0.0872131	1	1.761267	-2.838289	-7.738415E-005	0.0003317	11
	12	44	18984.38	1.766173	-0.1902283	1	1.776388	-6.147429	-3.947342E-005	0.0003381	11
	13	46	15046.87	1.776094	-0.3028179	1	1.801724	-9.67569	-3.810615E-005	0.0003361	11
	14	48	11953.13	1.787918	-0.4276532	1	1.838352	-13.45188	-8.25635E-005	0.0003219	11
	15	50	9515.62	1.803452	-0.5695419	1	1.891247	-17.52646	-3.187223E-005	0.000357	11
	16	53	7546.875	1.823256	-0.7396907	1	1.967588	-22.08228	-3.006772E-005	0.000362	11
	17	55	5928.309	1.849431	-0.953244	1	2.080642	-27.26774	-4.002007E-005	0.0003534	11
	18	57	4733.456	1.880093	-1.194449	1	2.227433	-32.42836	-2.268554E-005	0.0003547	11
	19	60	3796.875	1.918368	-1.479328	1	2.422509	-37.63721	-2.815387E-005	0.0003505	11
	20	62	2987.132	1.971751	-1.860757	1	2.711129	-43.34111	-8.619502E-005	0.0003394	11
	21	64	2390.625	2.033833	-2.293311	1	3.065249	-48.43165	-8.380155E-005	0.0003079	11
	22	67	1884.191	2.119485	-2.862107	1	3.561443	-53.47883	-7.281284E-005	0.000322	11
	23	69	1516.544	2.220269	-3.497997	1	4.143137	-57.59565	2.245955E-005	-0.000168	10
	24	71	1193.986	2.357233	-4.355627	1	4.952578	-61.57807	1.548124E-005	-0.0001617	10
	25	74	946.5144	2.527518	-5.381373	1	5.945378	-64.84154	3.60828E-006	-0.0001638	10
	26	76	751.7689	2.737051	-6.634743	1	7.177135	-67.58224	-1.293115E-005	-0.0001438	10
	27	79	597.4265	3.00852	-8.173738	1	8.709832	-69.79278	2.26942E-005	-0.0001596	10
	28	81	477.4305	3.343416	-10.01241	1	10.55589	-71.53443	-3.759234E-007	-0.0001379	10
	29	83	376.6741	3.795824	-12.39171	1	12.96004	-72.96914	-1.254301E-006	-0.0001381	10
	30	86	298.2954	4.368175	-15.27689	1	15.88913	-74.04299	1.639645E-007	-0.0001415	10
	31	88	237.7717	5.086747	-18.70618	1	19.38547	-74.78748	-3.997113E-007	-0.0001488	10
	32	90	189.0121	6.024166	-22.93837	1	23.71622	-75.28505	-6.61704E-007	-0.0001432	10
	33	93	150.2404	7.238494	-28.09365	1	29.01119	-75.55166	-1.490689E-006	-0.0001451	10
	34	95	119.1737	8.825127	-34.41362	1	35.52718	-75.61685	-9.78401E-007	-0.0001379	10
	35	97	95.0169	10.81171	-41.83158	1	43.20618	-75.50857	1.745038E-006	-0.0001591	9
	36	100	75.60484	13.39639	-50.88502	1	52.6189	-75.25055	1.602205E-006	-0.0001619	9
	37	103	54.50582	18.35025	-67.05673	1	69.5222	-74.69555	1.61319E-006	-0.0001666	9
	38	105	45.95588	21.6561	-77.29832	1	80.27463	-74.34911	1.907323E-006	-0.0001561	9
	39	107	37.20238	26.55325	-91.96468	1	95.7214	-73.89482	1.734071E-006	-0.0001509	9
	40	110	30.04808	32.57626	-109.4765	1	114.2205	-73.42889	1.72797E-006	-0.0001613	9
	41	112	23.91582	40.61479	-131.9685	1	138.077	-72.89366	1.687324E-006	-0.0001567	9
	42	115	18.60119	51.4995	-161.6153	1	169.6223	-72.32527	1.446095E-006	-0.0001579	9
	43	117	15.02404	63.2549	-192.0699	1	202.2178	-71.7716	2.235352E-006	-0.0001472	9
	44	119	12.01923	78.92063	-229.8837	1	243.0535	-71.05231	1.803356E-006	-0.0001579	9
	45	122	9.450605	101.1034	-278.6672	1	296.4411	-70.05869	1.875226E-006	-0.0001695	9
	46	124	7.512019	129.3023	-334.0399	1	358.1923	-68.83926	1.824308E-006	-0.000172	9
	47	127	5.978954	165.8399	-395.9774	1	429.3029	-67.2755	1.622619E-006	-0.0001441	8
	48	130	4.734848	215.9113	-469.898	1	517.1285	-65.32191	1.47699E-006	-0.0001682	8
	49	133	3.75601	281.1671	-550.2419	1	617.9167	-62.93351	1.909114E-006	-0.000132	8
	50	137	3.004808	360.6932	-632.9435	1	728.5034	-60.32264	1.793574E-006	-0.0001482	8
	51	140	2.372217	466.2866	-721.6744	1	859.2072	-57.13278	1.695267E-006	-0.000204	8
	52	145	1.878005	591.8694	-808.6965	1	1002.147	-53.80032	1.905984E-006	-0.0001528	8
	53	149	1.512097	724.3818	-881.9921	1	1141.332	-50.60367	1.80134E-006	-0.0001057	8
	54	155	1.201923	885.0348	-948.2219	1	1297.078	-46.97404	1.808912E-006	-0.0001285	8
	55	161	0.956633	1054.999	-999.644	1	1453.379	-43.45673	1.208386E-006	-0.0006899	8
