EXPLAIN
TAG	EISPOT
TITLE	LABEL	Potentiostatic EIS	Test Identifier
DATE	LABEL	10/5/2021	Date
TIME	LABEL	14:34:22	Time
NOTES	NOTES	1	Notes...
	
PSTAT	PSTAT	REF3000-16137	Potentiostat
VDC	POTEN	0.00000E+000	T	DC Voltage (V)
FREQINIT	QUANT	3.00000E+005	Initial Freq. (Hz)
FREQFINAL	QUANT	1.00000E+000	Final Freq. (Hz)
PTSPERDEC	QUANT	1.00000E+001	Points/decade
VAC	QUANT	5.00000E+001	AC Voltage (mV rms)
AREA	QUANT	1.00000E+000	Sample Area (cm^2)
SPEED	SELECTOR	2	Optimize for:
ZGUESS	QUANT	1.00000E+003	Estimated Z (ohms)
EOC	QUANT	0	Open Circuit (V)
SEQUENCER	TOGGLE	TRUE	Run as Sequence
PSTATMODEL	IQUANT	5	Pstat Model
PSTATSECTION	LABEL	REF3000-16137	Pstat Section
PSTATSERIALNO	LABEL	16137	Pstat Serial Number
CTRLMODE	IQUANT	1	Control Mode
IESTAB	IQUANT	0	I/E Stability
CASPEED	IQUANT	1	Control Amp Speed
CONVENTION	IQUANT	1	Current Convention
ICHRANGE	IQUANT	2	Ich Range
ICHRANGEMODE	TOGGLE	F	Ich Auto Range
ICHOFFSETENABLE	TOGGLE	T	Ich Offset Enable
ICHOFFSET	QUANT	0	Ich Offset (V)
ICHFILTER	IQUANT	3	Ich Filter
VCHRANGE	IQUANT	2	Vch Range
VCHRANGEMODE	TOGGLE	F	Vch Auto Range
VCHOFFSETENABLE	TOGGLE	T	Vch Offset Enable
VCHOFFSET	QUANT	0	Vch Offset (V)
VCHFILTER	IQUANT	3	Vch Filter
ACHRANGE	IQUANT	2	Ach Range
ACHOFFSETENABLE	TOGGLE	F	Ach Offset Enable
ACHOFFSET	QUANT	0	Ach Offset (V)
ACHFILTER	IQUANT	3	Ach Filter
IERANGELOWERLIMIT	IQUANT	2	I/E Range Lower Limit
IERANGEMODE	TOGGLE	F	I/E AutoRange
IERANGE	IQUANT	11	I/E Range
POSFEEDENABLE	TOGGLE	F	Positive Feedback IR Comp
POSFEEDRESISTANCE	QUANT	0	Positive Feedback Resistance (ohm)
ACHSELECT	IQUANT	0	Ach Select
CABLEID	IQUANT	13	Cable ID
DCCALDATE	LABEL	9/10/2021	DC Calibration Date
ACCALDATE	LABEL	9/10/2021	AC Calibration Date
THERMOSELECT	IQUANT	1	Thermo Select
FRAMEWORKVERSION	QUANT	6.33	Framework Version
INSTRUMENTVERSION	LABEL	3.50	Instrument Version
COMPLIANCEVOLTAGE	IQUANT	0	Compliance Voltage
ZCURVE	TABLE
	Pt	Time	Freq	Zreal	Zimag	Zsig	Zmod	Zphz	Idc	Vdc	IERange
	#	s	Hz	ohm	ohm	V	ohm	°	A	V	#
	0	8	300046.9	12.24422	2.12461	1	12.42718	9.84391	-8.997743E-005	-0.0004916	10
	1	11	238359.4	12.26312	1.670912	1	12.37643	7.759059	-5.340379E-005	-0.0005127	10
	2	14	189328.1	12.28759	1.318193	1	12.35809	6.123183	-1.537663E-005	-0.0003414	10
	3	17	150421.9	12.32069	1.013912	1	12.36234	4.704466	1.089134E-005	-0.0003418	10
	4	19	119484.4	12.3464	0.7855907	1	12.37137	3.640773	7.517073E-005	-0.0004252	10
	5	22	94921.88	12.38239	0.5909602	1	12.39649	2.732416	1.38613E-005	-0.0002323	10
	6	24	75421.88	12.42013	0.418577	1	12.42718	1.930224	2.098302E-005	-0.0002126	10
	7	27	59859.37	12.46302	0.270203	1	12.46595	1.242	-2.680375E-005	-0.0001663	10
	8	29	47578.12	12.50683	0.1418445	1	12.50764	0.6497845	-2.342744E-005	-0.0001071	10
	9	32	37828.12	12.55162	0.0248532	1	12.55164	0.1134499	-2.649829E-005	-0.0001491	10
	10	35	30046.88	12.59668	-0.0907877	1	12.59701	-0.4129389	2.514323E-005	-0.0001606	10
	11	37	23859.38	12.64221	-0.2076045	1	12.64392	-0.9408002	-2.238495E-005	-0.0000998	10
	12	39	18984.38	12.68771	-0.3327025	1	12.69207	-1.50209	-1.873135E-005	-7.3953E-005	10
	13	42	15046.87	12.7341	-0.4727692	1	12.74287	-2.1262	-2.477774E-005	-9.179662E-005	10
	14	44	11953.13	12.7844	-0.6358523	1	12.80021	-2.847349	6.330662E-006	-0.0001735	10
	15	46	9515.62	12.84031	-0.826054	1	12.86685	-3.680931	-2.916019E-005	-0.0001352	10
	16	49	7546.875	12.89974	-1.056373	1	12.94293	-4.681565	-1.736662E-005	-0.0001803	10
	17	51	5928.309	12.96467	-1.351185	1	13.03489	-5.949916	2.312149E-005	-0.0001595	10
	18	53	4733.456	13.03464	-1.68644	1	13.14328	-7.372057	-4.784822E-006	-0.0001241	10
	19	56	3796.875	13.11658	-2.0906	1	13.28215	-9.055974	-1.819781E-005	-0.0001441	10
	20	58	2987.132	13.20904	-2.629546	1	13.46823	-11.25878	-1.465591E-005	-0.0001121	10
	21	60	2390.625	13.31287	-3.252449	1	13.70441	-13.72893	-1.798298E-005	-0.0001807	10
	22	62	1884.191	13.44073	-4.065198	1	14.04205	-16.82813	-1.12218E-005	-0.0001348	10
	23	65	1516.544	13.58881	-4.992709	1	14.47698	-20.174	1.259578E-005	-0.0001742	10
	24	67	1193.986	13.77578	-6.248211	1	15.12654	-24.39738	-2.155291E-005	-0.0000957	10
	25	70	946.5144	14.00788	-7.753646	1	16.01061	-28.96542	-2.403172E-005	-9.27419E-005	10
	26	72	751.7689	14.28318	-9.61228	1	17.21642	-33.93972	-2.825465E-005	-0.0001061	10
	27	74	597.4265	14.61042	-11.8853	1	18.83413	-39.12771	-1.783069E-005	-0.0001341	10
	28	77	477.4305	15.02747	-14.63244	1	20.97458	-44.23694	-1.137136E-006	-0.0001194	10
	29	79	376.6741	15.55437	-18.20255	1	23.94308	-49.48559	-1.118044E-006	-0.0001227	10
	30	81	298.2954	16.20583	-22.56436	1	27.78092	-54.31391	-1.181899E-006	-0.0001177	10
	31	84	237.7717	17.00048	-27.79019	1	32.57776	-58.54404	-2.187441E-006	-0.000117	10
	32	86	189.0121	18.00701	-34.29776	1	38.73743	-62.29963	-1.856649E-006	-0.0001187	10
	33	88	150.2404	19.24592	-42.25496	1	46.43153	-65.5121	7.750828E-007	-0.0001365	9
	34	91	119.1737	20.8417	-52.19613	1	56.20332	-68.23338	8.212681E-007	-0.0001318	9
	35	93	95.0169	22.79122	-64.1403	1	68.06922	-70.43815	8.324889E-007	-0.000132	9
	36	96	75.60484	25.24999	-78.93641	1	82.87653	-72.26169	8.612364E-007	-0.0001398	9
	37	98	54.50582	29.86908	-106.1698	1	110.2914	-74.28696	1.078447E-006	-0.0001775	9
	38	101	45.95588	32.97644	-123.9268	1	128.2393	-75.09911	8.524704E-007	-0.0001277	9
	39	103	37.20238	37.64433	-149.9961	1	154.6478	-75.91153	8.104034E-007	-0.0001306	9
	40	105	30.04808	43.5604	-181.8699	1	187.0138	-76.53059	7.246675E-007	-0.0001298	9
	41	108	23.91582	51.57233	-223.3209	1	229.1984	-76.99643	7.067794E-007	-0.0001349	9
	42	110	18.60119	63.12426	-279.7696	1	286.8026	-77.28529	8.816868E-007	-0.0001453	9
	43	113	15.02404	75.77382	-338.5569	1	346.9329	-77.3843	6.973487E-007	-0.0001508	9
	44	115	12.01923	92.66694	-412.4977	1	422.7784	-77.33879	8.243031E-007	-0.0001333	9
	45	117	9.450605	115.8006	-507.3573	1	520.4048	-77.1429	4.975362E-007	-0.0001217	8
	46	120	7.512019	144.576	-619.4318	1	636.0802	-76.8623	5.229383E-007	-0.0001218	8
	47	123	5.978954	180.1749	-753.7465	1	774.9818	-76.55634	5.701613E-007	-0.0001208	8
	48	126	4.734848	226.9062	-919.9911	1	947.5601	-76.14511	6.36971E-007	-0.0001265	8
	49	129	3.75601	284.0543	-1118.323	1	1153.834	-75.74825	6.210512E-007	-0.0001181	8
	50	132	3.004808	351.5201	-1347.093	1	1392.202	-75.37496	6.363306E-007	-0.0001406	8
	51	136	2.372217	439.7701	-1642.675	1	1700.523	-75.01247	6.105921E-007	-0.0001954	8
	52	140	1.878005	546.8941	-1994.489	1	2068.11	-74.66623	6.384635E-007	-0.0001091	8
	53	145	1.512097	671.8727	-2385.023	1	2477.852	-74.26721	6.307274E-007	-0.0002132	8
	54	150	1.201923	832.549	-2896.786	1	3014.051	-73.96512	6.241845E-007	-9.090476E-005	8
	55	157	0.956633	1037.49	-3508.041	1	3658.242	-73.52461	5.748279E-007	-0.0006689	8
