June 11, 2026   19:44:45
A.C. Impedance
File: e:\chi_data\Data Source:  Experiment
Instrument Model:  CHI660E
Header: 
Note: 

Init E (V) = 0
High Frequency (Hz) = 1e+6
Low Frequency (Hz) = 0.1
Imp SF
Amplitude (V) = 0.005
Quiet Time (sec) = 2
Cycles (.1-1Hz) = 1

Freq/Hz, Z'/ohm, Z"/ohm, Z/ohm, Phase/deg

8.252e+5, 3.762e+2, -3.416e+2, 5.081e+2, -42.2
6.816e+5, 4.481e+2, -3.944e+2, 5.970e+2, -41.4
5.625e+5, 5.282e+2, -4.224e+2, 6.763e+2, -38.6
4.639e+5, 6.131e+2, -4.472e+2, 7.589e+2, -36.1
3.828e+5, 7.001e+2, -4.576e+2, 8.364e+2, -33.2
3.164e+5, 7.846e+2, -4.583e+2, 9.086e+2, -30.3
2.607e+5, 8.640e+2, -4.470e+2, 9.728e+2, -27.4
2.158e+5, 9.362e+2, -4.265e+2, 1.029e+3, -24.5
1.777e+5, 1.002e+3, -3.991e+2, 1.078e+3, -21.7
1.465e+5, 1.059e+3, -3.676e+2, 1.121e+3, -19.1
1.211e+5, 1.110e+3, -3.301e+2, 1.158e+3, -16.6
9.961e+4, 1.154e+3, -2.933e+2, 1.190e+3, -14.3
8.252e+4, 1.189e+3, -2.619e+2, 1.217e+3, -12.4
6.812e+4, 1.217e+3, -2.331e+2, 1.239e+3, -10.8
5.625e+4, 1.239e+3, -2.026e+2, 1.255e+3, -9.3
4.644e+4, 1.258e+3, -1.762e+2, 1.270e+3, -8.0
3.833e+4, 1.276e+3, -1.554e+2, 1.286e+3, -6.9
3.164e+4, 1.291e+3, -1.363e+2, 1.298e+3, -6.0
2.612e+4, 1.303e+3, -1.169e+2, 1.308e+3, -5.1
2.153e+4, 1.314e+3, -9.944e+1, 1.318e+3, -4.3
1.777e+4, 1.322e+3, -8.738e+1, 1.325e+3, -3.8
1.470e+4, 1.329e+3, -7.758e+1, 1.331e+3, -3.3
1.211e+4, 1.335e+3, -6.602e+1, 1.337e+3, -2.8
1.001e+4, 1.341e+3, -5.340e+1, 1.342e+3, -2.3
8.252e+3, 1.348e+3, -4.291e+1, 1.349e+3, -1.8
6.812e+3, 1.353e+3, -3.597e+1, 1.353e+3, -1.5
5.625e+3, 1.357e+3, -3.270e+1, 1.357e+3, -1.4
4.643e+3, 1.361e+3, -2.957e+1, 1.361e+3, -1.2
3.833e+3, 1.365e+3, -2.609e+1, 1.365e+3, -1.1
3.164e+3, 1.369e+3, -2.400e+1, 1.369e+3, -1.0
2.612e+3, 1.372e+3, -2.311e+1, 1.373e+3, -1.0
2.153e+3, 1.376e+3, -2.292e+1, 1.377e+3, -1.0
1.777e+3, 1.380e+3, -2.348e+1, 1.381e+3, -1.0
1.470e+3, 1.384e+3, -2.488e+1, 1.384e+3, -1.0
1.211e+3, 1.387e+3, -2.624e+1, 1.387e+3, -1.1
1.001e+3, 1.389e+3, -2.638e+1, 1.389e+3, -1.1
8.252e+2, 1.391e+3, -2.661e+1, 1.391e+3, -1.1
6.836e+2, 1.394e+3, -2.972e+1, 1.394e+3, -1.2
5.615e+2, 1.398e+3, -3.464e+1, 1.399e+3, -1.4
4.639e+2, 1.403e+3, -4.148e+1, 1.403e+3, -1.7
3.809e+2, 1.408e+3, -4.974e+1, 1.408e+3, -2.0
3.174e+2, 1.412e+3, -5.954e+1, 1.414e+3, -2.4
2.588e+2, 1.417e+3, -7.096e+1, 1.419e+3, -2.9
2.148e+2, 1.422e+3, -8.405e+1, 1.424e+3, -3.4
1.758e+2, 1.427e+3, -9.953e+1, 1.431e+3, -4.0
1.465e+2, 1.434e+3, -1.168e+2, 1.439e+3, -4.7
1.221e+2, 1.441e+3, -1.362e+2, 1.448e+3, -5.4
9.766e+1, 1.451e+3, -1.546e+2, 1.459e+3, -6.1
8.254e+1, 1.464e+3, -1.760e+2, 1.474e+3, -6.9
6.813e+1, 1.477e+3, -2.065e+2, 1.491e+3, -8.0
5.623e+1, 1.491e+3, -2.457e+2, 1.511e+3, -9.4
4.642e+1, 1.506e+3, -2.936e+2, 1.535e+3, -11.0
3.831e+1, 1.524e+3, -3.492e+2, 1.564e+3, -12.9
3.162e+1, 1.546e+3, -4.132e+2, 1.600e+3, -15.0
2.610e+1, 1.572e+3, -4.869e+2, 1.646e+3, -17.2
2.154e+1, 1.603e+3, -5.723e+2, 1.702e+3, -19.7
1.778e+1, 1.639e+3, -6.718e+2, 1.771e+3, -22.3
1.468e+1, 1.681e+3, -7.881e+2, 1.856e+3, -25.1
1.212e+1, 1.730e+3, -9.219e+2, 1.960e+3, -28.1
1.000e+1, 1.789e+3, -1.078e+3, 2.089e+3, -31.1
8.254e+0, 1.860e+3, -1.264e+3, 2.249e+3, -34.2
6.813e+0, 1.941e+3, -1.484e+3, 2.444e+3, -37.4
5.623e+0, 2.032e+3, -1.745e+3, 2.678e+3, -40.7
4.642e+0, 2.136e+3, -2.056e+3, 2.965e+3, -43.9
3.831e+0, 2.249e+3, -2.418e+3, 3.302e+3, -47.1
3.162e+0, 2.375e+3, -2.851e+3, 3.711e+3, -50.2
2.610e+0, 2.517e+3, -3.361e+3, 4.199e+3, -53.2
2.154e+0, 2.683e+3, -4.028e+3, 4.839e+3, -56.3
1.778e+0, 2.867e+3, -4.837e+3, 5.623e+3, -59.3
1.468e+0, 3.055e+3, -5.699e+3, 6.466e+3, -61.8
1.212e+0, 3.266e+3, -6.632e+3, 7.393e+3, -63.8
1.000e+0, 3.524e+3, -7.672e+3, 8.443e+3, -65.3
8.254e-1, 3.837e+3, -8.854e+3, 9.649e+3, -66.6
6.813e-1, 4.197e+3, -1.023e+4, 1.106e+4, -67.7
5.623e-1, 4.622e+3, -1.185e+4, 1.272e+4, -68.7
4.642e-1, 5.132e+3, -1.374e+4, 1.467e+4, -69.5
3.831e-1, 5.744e+3, -1.598e+4, 1.698e+4, -70.2
3.162e-1, 6.480e+3, -1.860e+4, 1.970e+4, -70.8
2.610e-1, 7.357e+3, -2.167e+4, 2.289e+4, -71.2
2.154e-1, 8.407e+3, -2.522e+4, 2.659e+4, -71.6
1.778e-1, 9.658e+3, -2.932e+4, 3.087e+4, -71.8
1.468e-1, 1.112e+4, -3.413e+4, 3.589e+4, -72.0
1.212e-1, 1.283e+4, -3.975e+4, 4.177e+4, -72.1
1.000e-1, 1.480e+4, -4.620e+4, 4.851e+4, -72.2
