EXPLAIN
TAG	EISPOT
TITLE	LABEL	Potentiostatic EIS	Test Identifier
DATE	LABEL	8/9/2020	Date
TIME	LABEL	16:23:09	Time
NOTES	NOTES	1	Notes...
	
PSTAT	PSTAT	REF3000-16137	Potentiostat
VDC	POTEN	0.00000E+000	T	DC Voltage (V)
FREQINIT	QUANT	3.00000E+005	Initial Freq. (Hz)
FREQFINAL	QUANT	1.00000E+000	Final Freq. (Hz)
PTSPERDEC	QUANT	1.00000E+001	Points/decade
VAC	QUANT	5.00000E+001	AC Voltage (mV rms)
AREA	QUANT	1.00000E+000	Sample Area (cm^2)
SPEED	SELECTOR	2	Optimize for:
ZGUESS	QUANT	1.00000E+003	Estimated Z (ohms)
EOC	QUANT	0	Open Circuit (V)
SEQUENCER	TOGGLE	TRUE	Run as Sequence
PSTATMODEL	IQUANT	5	Pstat Model
PSTATSECTION	LABEL	REF3000-16137	Pstat Section
PSTATSERIALNO	LABEL	16137	Pstat Serial Number
CTRLMODE	IQUANT	1	Control Mode
IESTAB	IQUANT	0	I/E Stability
CASPEED	IQUANT	1	Control Amp Speed
CONVENTION	IQUANT	1	Current Convention
ICHRANGE	IQUANT	2	Ich Range
ICHRANGEMODE	TOGGLE	F	Ich Auto Range
ICHOFFSETENABLE	TOGGLE	T	Ich Offset Enable
ICHOFFSET	QUANT	0	Ich Offset (V)
ICHFILTER	IQUANT	3	Ich Filter
VCHRANGE	IQUANT	2	Vch Range
VCHRANGEMODE	TOGGLE	F	Vch Auto Range
VCHOFFSETENABLE	TOGGLE	T	Vch Offset Enable
VCHOFFSET	QUANT	0	Vch Offset (V)
VCHFILTER	IQUANT	3	Vch Filter
ACHRANGE	IQUANT	2	Ach Range
ACHOFFSETENABLE	TOGGLE	F	Ach Offset Enable
ACHOFFSET	QUANT	0	Ach Offset (V)
ACHFILTER	IQUANT	3	Ach Filter
IERANGELOWERLIMIT	IQUANT	2	I/E Range Lower Limit
IERANGEMODE	TOGGLE	F	I/E AutoRange
IERANGE	IQUANT	11	I/E Range
POSFEEDENABLE	TOGGLE	F	Positive Feedback IR Comp
POSFEEDRESISTANCE	QUANT	0	Positive Feedback Resistance (ohm)
ACHSELECT	IQUANT	0	Ach Select
CABLEID	IQUANT	13	Cable ID
DCCALDATE	LABEL	7/31/2020	DC Calibration Date
ACCALDATE	LABEL	7/31/2020	AC Calibration Date
THERMOSELECT	IQUANT	1	Thermo Select
FRAMEWORKVERSION	QUANT	6.33	Framework Version
INSTRUMENTVERSION	LABEL	3.50	Instrument Version
COMPLIANCEVOLTAGE	IQUANT	0	Compliance Voltage
ZCURVE	TABLE
	Pt	Time	Freq	Zreal	Zimag	Zsig	Zmod	Zphz	Idc	Vdc	IERange
	#	s	Hz	ohm	ohm	V	ohm	°	A	V	#
	0	8	300046.9	12.13502	1.246341	1	12.19885	5.864068	-6.749982E-005	0.0003098	10
	1	11	238359.4	12.24041	0.965023	1	12.27839	4.507823	-9.482877E-005	0.0002859	10
	2	15	189328.1	12.34624	0.7510754	1	12.36906	3.481262	1.236095E-005	0.0003142	10
	3	17	150421.9	12.4465	0.5857775	1	12.46027	2.69456	7.68863E-005	0.0003417	10
	4	20	119484.4	12.54899	0.4279287	1	12.55628	1.953067	-5.179847E-006	0.0004815	10
	5	22	94921.88	12.65037	0.3237868	1	12.65451	1.466168	-2.691486E-006	0.0005941	10
	6	25	75421.88	12.75736	0.2038032	1	12.75898	0.9152423	-1.61127E-005	0.0006383	10
	7	27	59859.37	12.86916	0.0976318	1	12.86953	0.4346658	1.40755E-005	0.0005859	10
	8	30	47578.12	12.98304	0.0041437	1	12.98304	0.0182865	-2.290824E-005	0.0006818	10
	9	32	37828.12	13.09832	-0.0865538	1	13.0986	-0.3786055	-2.559979E-005	0.0006962	10
	10	35	30046.88	13.21591	-0.1801341	1	13.21714	-0.7808985	-1.674191E-005	0.0006536	10
	11	37	23859.38	13.33018	-0.2803196	1	13.33312	-1.204693	1.250726E-005	0.0005961	10
	12	40	18984.38	13.44392	-0.3930802	1	13.44966	-1.674766	2.359623E-005	0.0006831	10
	13	42	15046.87	13.5604	-0.5257864	1	13.57059	-2.220455	1.410011E-005	0.0006366	10
	14	44	11953.13	13.6829	-0.6776434	1	13.69967	-2.835249	4.114193E-006	0.0006127	10
	15	47	9515.62	13.80837	-0.8609834	1	13.83519	-3.567904	-1.66718E-007	0.0006203	10
	16	49	7546.875	13.94201	-1.087062	1	13.98433	-4.458345	-1.709345E-005	0.0006639	10
	17	51	5928.309	14.08221	-1.375555	1	14.14923	-5.57897	-2.640911E-005	0.0007051	10
	18	54	4733.456	14.23182	-1.707435	1	14.33388	-6.841249	-4.308542E-006	0.0006837	10
	19	56	3796.875	14.38614	-2.104734	1	14.53929	-8.323489	-2.711529E-005	0.0007164	10
	20	58	2987.132	14.56097	-2.637025	1	14.79783	-10.26514	-5.188155E-006	0.0006923	10
	21	60	2390.625	14.74455	-3.251381	1	15.09878	-12.43551	2.160732E-005	0.0006862	10
	22	63	1884.191	14.95572	-4.06252	1	15.49767	-15.19693	1.923486E-005	0.0006209	10
	23	65	1516.544	15.18027	-4.978527	1	15.9758	-18.15744	2.289707E-005	0.0006339	10
	24	67	1193.986	15.45395	-6.222904	1	16.6598	-21.93337	-2.813568E-005	0.0006922	10
	25	70	946.5144	15.76758	-7.717749	1	17.55506	-26.08034	-2.427252E-005	0.0007539	10
	26	72	751.7689	16.11315	-9.56568	1	18.73862	-30.69577	-1.185486E-005	0.0006527	10
	27	75	597.4265	16.53646	-11.84697	1	20.34221	-35.61839	-2.775971E-005	0.0007086	10
	28	77	477.4305	17.02483	-14.57522	1	22.41165	-40.56735	-2.422827E-006	0.0006716	10
	29	79	376.6741	17.64275	-18.14782	1	25.31027	-45.80849	-2.091255E-006	0.0006659	10
	30	81	298.2954	18.38964	-22.51248	1	29.06872	-50.75583	-2.083682E-006	0.000675	10
	31	84	237.7717	19.28823	-27.7458	1	33.7915	-55.19387	-2.02148E-006	0.0006691	10
	32	86	189.0121	20.41051	-34.26923	1	39.88696	-59.22227	-2.366448E-006	0.0006704	10
	33	89	150.2404	21.78005	-42.25085	1	47.53425	-62.72918	9.804818E-007	0.000126	9
	34	91	119.1737	23.53635	-52.2286	1	57.28688	-65.74171	1.420939E-006	7.460493E-005	9
	35	93	95.0169	25.69298	-64.21544	1	69.16467	-68.19335	1.365448E-006	6.986284E-005	9
	36	96	75.60484	28.42004	-79.05351	1	84.00688	-70.2263	1.395121E-006	6.824388E-005	9
	37	99	54.50582	33.52084	-106.284	1	111.4448	-72.49528	1.459607E-006	6.952684E-005	9
	38	101	45.95588	37.00941	-124.0351	1	129.4388	-73.38602	1.400199E-006	7.452483E-005	9
	39	103	37.20238	42.22061	-150.0179	1	155.846	-74.28143	1.381979E-006	7.563055E-005	9
	40	106	30.04808	48.81054	-181.7524	1	188.1925	-74.96761	1.497365E-006	6.653531E-005	9
	41	108	23.91582	57.67779	-222.8371	1	230.1806	-75.48838	1.380669E-006	7.158767E-005	9
	42	111	18.60119	70.26942	-278.547	1	287.2738	-75.84134	1.384029E-006	7.506416E-005	9
	43	113	15.02404	84.0323	-336.2483	1	346.5896	-75.96853	1.566447E-006	6.851442E-005	9
	44	115	12.01923	102.197	-408.8393	1	421.4188	-75.96545	1.333509E-006	7.443878E-005	9
	45	118	9.450605	126.2885	-501.6551	1	517.3071	-75.86977	4.480295E-007	0.0006557	8
	46	120	7.512019	156.1746	-611.3381	1	630.9713	-75.66952	4.093056E-007	0.0006598	8
	47	123	5.978954	192.9441	-741.9991	1	766.6747	-75.42403	3.933708E-007	0.0006504	8
	48	126	4.734848	239.5751	-903.4094	1	934.6362	-75.14761	4.153197E-007	0.0006224	8
	49	129	3.75601	296.7521	-1096.59	1	1136.034	-74.85767	5.197872E-007	0.0006714	8
	50	133	3.004808	362.129	-1319.161	1	1367.964	-74.64961	4.927488E-007	0.0006483	8
	51	136	2.372217	446.2835	-1601.594	1	1662.61	-74.42952	4.720991E-007	0.0006246	8
	52	140	1.878005	544.2104	-1946.037	1	2020.699	-74.37632	5.127006E-007	0.0006426	8
	53	145	1.512097	645.3777	-2325.556	1	2413.446	-74.48984	4.712049E-007	0.000693	8
	54	151	1.201923	777.207	-2820.834	1	2925.945	-74.59585	5.040758E-007	0.0006621	8
	55	157	0.956633	922.8087	-3415.069	1	3537.551	-74.87885	4.599387E-007	5.87186E-006	8
