EXPLAIN
TAG	EISPOT
TITLE	LABEL	Potentiostatic EIS	Test Identifier
DATE	LABEL	8/9/2020	Date
TIME	LABEL	16:09:01	Time
NOTES	NOTES	1	Notes...
	
PSTAT	PSTAT	REF3000-16137	Potentiostat
VDC	POTEN	0.00000E+000	T	DC Voltage (V)
FREQINIT	QUANT	3.00000E+005	Initial Freq. (Hz)
FREQFINAL	QUANT	1.00000E+000	Final Freq. (Hz)
PTSPERDEC	QUANT	1.00000E+001	Points/decade
VAC	QUANT	5.00000E+001	AC Voltage (mV rms)
AREA	QUANT	1.00000E+000	Sample Area (cm^2)
SPEED	SELECTOR	2	Optimize for:
ZGUESS	QUANT	1.00000E+003	Estimated Z (ohms)
EOC	QUANT	0	Open Circuit (V)
SEQUENCER	TOGGLE	TRUE	Run as Sequence
PSTATMODEL	IQUANT	5	Pstat Model
PSTATSECTION	LABEL	REF3000-16137	Pstat Section
PSTATSERIALNO	LABEL	16137	Pstat Serial Number
CTRLMODE	IQUANT	1	Control Mode
IESTAB	IQUANT	0	I/E Stability
CASPEED	IQUANT	1	Control Amp Speed
CONVENTION	IQUANT	1	Current Convention
ICHRANGE	IQUANT	2	Ich Range
ICHRANGEMODE	TOGGLE	F	Ich Auto Range
ICHOFFSETENABLE	TOGGLE	T	Ich Offset Enable
ICHOFFSET	QUANT	0	Ich Offset (V)
ICHFILTER	IQUANT	3	Ich Filter
VCHRANGE	IQUANT	2	Vch Range
VCHRANGEMODE	TOGGLE	F	Vch Auto Range
VCHOFFSETENABLE	TOGGLE	T	Vch Offset Enable
VCHOFFSET	QUANT	0	Vch Offset (V)
VCHFILTER	IQUANT	3	Vch Filter
ACHRANGE	IQUANT	2	Ach Range
ACHOFFSETENABLE	TOGGLE	F	Ach Offset Enable
ACHOFFSET	QUANT	0	Ach Offset (V)
ACHFILTER	IQUANT	3	Ach Filter
IERANGELOWERLIMIT	IQUANT	2	I/E Range Lower Limit
IERANGEMODE	TOGGLE	F	I/E AutoRange
IERANGE	IQUANT	11	I/E Range
POSFEEDENABLE	TOGGLE	F	Positive Feedback IR Comp
POSFEEDRESISTANCE	QUANT	0	Positive Feedback Resistance (ohm)
ACHSELECT	IQUANT	0	Ach Select
CABLEID	IQUANT	13	Cable ID
DCCALDATE	LABEL	7/31/2020	DC Calibration Date
ACCALDATE	LABEL	7/31/2020	AC Calibration Date
THERMOSELECT	IQUANT	1	Thermo Select
FRAMEWORKVERSION	QUANT	6.33	Framework Version
INSTRUMENTVERSION	LABEL	3.50	Instrument Version
COMPLIANCEVOLTAGE	IQUANT	0	Compliance Voltage
ZCURVE	TABLE
	Pt	Time	Freq	Zreal	Zimag	Zsig	Zmod	Zphz	Idc	Vdc	IERange
	#	s	Hz	ohm	ohm	V	ohm	°	A	V	#
	0	9	300046.9	2.542351	1.03763	1	2.745947	22.20224	-0.0001914	0.000917	12
	1	14	238359.4	2.426972	1.03521	1	2.638533	23.10037	2.17977E-005	5.371987E-005	11
	2	18	189328.1	2.455146	0.645358	1	2.538549	14.72756	3.741779E-007	4.205208E-006	12
	3	21	150421.9	2.435919	0.495083	1	2.48572	11.48847	-7.124596E-005	0.0002459	12
	4	25	119484.4	2.430784	0.3745655	1	2.459473	8.759948	-4.243888E-005	0.0004749	12
	5	29	94921.88	2.427511	0.2702419	1	2.442507	6.352279	-0.0000956	0.0004678	12
	6	32	75421.88	2.431122	0.1783663	1	2.437656	4.196153	-0.0001062	0.0006087	12
	7	36	59859.37	2.435849	0.0965034	1	2.43776	2.268757	-8.34302E-005	0.0005395	12
	8	40	47578.12	2.443538	0.0647839	1	2.444396	1.518689	-2.575787E-006	0.0006419	11
	9	42	37828.12	2.451945	-0.0162715	1	2.451999	-0.3802193	2.358786E-005	0.0006822	11
	10	45	30046.88	2.46153	-0.0971774	1	2.463448	-2.260774	-3.807948E-005	0.0006499	11
	11	47	23859.38	2.472639	-0.1818718	1	2.479319	-4.206741	3.794849E-006	0.0006938	11
	12	50	18984.38	2.484967	-0.27335	1	2.499956	-6.277381	-2.65362E-005	0.0006927	11
	13	52	15046.87	2.49921	-0.3788287	1	2.527758	-8.619246	-1.506926E-005	0.0006663	11
	14	54	11953.13	2.516278	-0.5005025	1	2.565571	-11.24965	2.15902E-006	0.0007092	11
	15	56	9515.62	2.535712	-0.6434491	1	2.616078	-14.23854	-4.904298E-005	0.0006581	11
	16	59	7546.875	2.560109	-0.8180112	1	2.687619	-17.71983	2.151919E-005	0.0007106	11
	17	61	5928.309	2.591079	-1.04159	1	2.792598	-21.89968	-6.376174E-006	0.0006964	11
	18	63	4733.456	2.627134	-1.296148	1	2.929477	-26.26033	-3.833381E-006	0.0006841	11
	19	66	3796.875	2.670082	-1.601212	1	3.113393	-30.95053	2.317684E-005	0.0007155	11
	20	68	2987.132	2.729101	-2.007999	1	3.388222	-36.34463	-4.062818E-005	0.0006742	11
	21	70	2390.625	2.798019	-2.472712	1	3.734061	-41.46821	3.583899E-007	0.000672	11
	22	73	1884.191	2.893792	-3.088631	1	4.232455	-46.86538	2.267073E-005	0.0006573	10
	23	75	1516.544	3.001601	-3.775387	1	4.823189	-51.51374	2.20653E-005	0.0006501	10
	24	77	1193.986	3.153138	-4.704926	1	5.663798	-56.17088	-1.576884E-005	0.000669	10
	25	80	946.5144	3.336802	-5.823556	1	6.711785	-60.188	2.239416E-005	0.000651	10
	26	82	751.7689	3.578262	-7.181402	1	8.023497	-63.5144	-1.645943E-005	0.0006705	10
	27	84	597.4265	3.872755	-8.843823	1	9.65461	-66.35115	-2.378111E-005	0.0006748	10
	28	87	477.4305	4.246111	-10.8308	1	11.63339	-68.59281	-4.74023E-006	0.0007245	10
	29	89	376.6741	4.745751	-13.40695	1	14.22211	-70.50721	-8.568677E-007	0.0006729	10
	30	91	298.2954	5.377402	-16.52669	1	17.37953	-71.97631	-1.132056E-006	0.0006731	10
	31	94	237.7717	6.164464	-20.23409	1	21.15228	-73.05626	-1.552839E-006	0.0006742	10
	32	96	189.0121	7.187234	-24.80524	1	25.8255	-73.84123	-1.435812E-006	0.0006741	10
	33	99	150.2404	8.500492	-30.36895	1	31.53619	-74.36268	-1.671959E-006	0.0006714	10
	34	101	119.1737	10.1995	-37.17895	1	38.55262	-74.65915	-1.289088E-006	0.0006706	10
	35	103	95.0169	12.2983	-45.16894	1	46.81326	-74.76908	1.307637E-006	7.083963E-005	9
	36	106	75.60484	14.97984	-54.91922	1	56.92554	-74.74307	1.187256E-006	6.062651E-005	9
	37	108	54.50582	20.02199	-72.35674	1	75.07581	-74.53259	1.159632E-006	5.839422E-005	9
	38	111	45.95588	23.31026	-83.42347	1	86.61896	-74.38853	1.439961E-006	7.612638E-005	9
	39	113	37.20238	28.12415	-99.3177	1	103.2229	-74.18928	1.362155E-006	7.279837E-005	9
	40	116	30.04808	33.908	-118.2724	1	123.037	-74.00271	1.151431E-006	7.890508E-005	9
	41	118	23.91582	41.14488	-142.3003	1	148.1293	-73.87324	1.260523E-006	6.625951E-005	9
	42	120	18.60119	50.6208	-174.4792	1	181.674	-73.82123	1.166859E-006	7.053287E-005	9
	43	123	15.02404	59.91713	-207.3736	1	215.8561	-73.88423	1.269714E-006	6.325427E-005	9
	44	125	12.01923	70.87586	-248.6171	1	258.5224	-74.08819	1.496129E-006	6.852736E-005	9
	45	127	9.450605	84.12601	-302.7786	1	314.2484	-74.47223	1.431738E-006	5.942963E-005	9
	46	130	7.512019	98.6494	-366.6211	1	379.6613	-74.93971	1.53663E-006	6.478414E-005	9
	47	133	5.978954	114.7365	-442.7717	1	457.3961	-75.47235	5.5543E-007	0.000646	8
	48	136	4.734848	134.6515	-541.5439	1	558.033	-76.03691	5.213104E-007	0.0006539	8
	49	139	3.75601	158.3851	-662.6614	1	681.3266	-76.55772	5.516997E-007	0.0006443	8
	50	142	3.004808	186.643	-806.7354	1	828.0444	-76.97347	5.249969E-007	0.0006921	8
	51	146	2.372217	225.8529	-996.291	1	1021.57	-77.22729	5.158951E-007	0.0007225	8
	52	150	1.878005	274.3124	-1228.956	1	1259.198	-77.4174	4.6355E-007	0.0006238	8
	53	155	1.512097	334.6934	-1490.405	1	1527.523	-77.34332	5.441422E-007	0.0006738	8
	54	160	1.201923	419.8632	-1838.809	1	1886.135	-77.13791	4.925803E-007	0.000614	8
	55	167	0.956633	535.3485	-2257.812	1	2320.413	-76.66096	4.474805E-007	8.310422E-006	8
