EXPLAIN
TAG	EISPOT
TITLE	LABEL	Potentiostatic EIS	Test Identifier
DATE	LABEL	8/9/2020	Date
TIME	LABEL	16:34:11	Time
NOTES	NOTES	1	Notes...
	
PSTAT	PSTAT	REF3000-16137	Potentiostat
VDC	POTEN	0.00000E+000	T	DC Voltage (V)
FREQINIT	QUANT	3.00000E+005	Initial Freq. (Hz)
FREQFINAL	QUANT	1.00000E+000	Final Freq. (Hz)
PTSPERDEC	QUANT	1.00000E+001	Points/decade
VAC	QUANT	5.00000E+001	AC Voltage (mV rms)
AREA	QUANT	1.00000E+000	Sample Area (cm^2)
SPEED	SELECTOR	2	Optimize for:
ZGUESS	QUANT	1.00000E+003	Estimated Z (ohms)
EOC	QUANT	0	Open Circuit (V)
SEQUENCER	TOGGLE	TRUE	Run as Sequence
PSTATMODEL	IQUANT	5	Pstat Model
PSTATSECTION	LABEL	REF3000-16137	Pstat Section
PSTATSERIALNO	LABEL	16137	Pstat Serial Number
CTRLMODE	IQUANT	1	Control Mode
IESTAB	IQUANT	0	I/E Stability
CASPEED	IQUANT	1	Control Amp Speed
CONVENTION	IQUANT	1	Current Convention
ICHRANGE	IQUANT	2	Ich Range
ICHRANGEMODE	TOGGLE	F	Ich Auto Range
ICHOFFSETENABLE	TOGGLE	T	Ich Offset Enable
ICHOFFSET	QUANT	0	Ich Offset (V)
ICHFILTER	IQUANT	3	Ich Filter
VCHRANGE	IQUANT	2	Vch Range
VCHRANGEMODE	TOGGLE	F	Vch Auto Range
VCHOFFSETENABLE	TOGGLE	T	Vch Offset Enable
VCHOFFSET	QUANT	0	Vch Offset (V)
VCHFILTER	IQUANT	3	Vch Filter
ACHRANGE	IQUANT	2	Ach Range
ACHOFFSETENABLE	TOGGLE	F	Ach Offset Enable
ACHOFFSET	QUANT	0	Ach Offset (V)
ACHFILTER	IQUANT	3	Ach Filter
IERANGELOWERLIMIT	IQUANT	2	I/E Range Lower Limit
IERANGEMODE	TOGGLE	F	I/E AutoRange
IERANGE	IQUANT	11	I/E Range
POSFEEDENABLE	TOGGLE	F	Positive Feedback IR Comp
POSFEEDRESISTANCE	QUANT	0	Positive Feedback Resistance (ohm)
ACHSELECT	IQUANT	0	Ach Select
CABLEID	IQUANT	13	Cable ID
DCCALDATE	LABEL	7/31/2020	DC Calibration Date
ACCALDATE	LABEL	7/31/2020	AC Calibration Date
THERMOSELECT	IQUANT	1	Thermo Select
FRAMEWORKVERSION	QUANT	6.33	Framework Version
INSTRUMENTVERSION	LABEL	3.50	Instrument Version
COMPLIANCEVOLTAGE	IQUANT	0	Compliance Voltage
ZCURVE	TABLE
	Pt	Time	Freq	Zreal	Zimag	Zsig	Zmod	Zphz	Idc	Vdc	IERange
	#	s	Hz	ohm	ohm	V	ohm	°	A	V	#
	0	8	300046.9	317.4596	-22.34759	1	318.2452	-4.026699	1.870124E-005	-0.0011627	9
	1	13	238359.4	328.0029	-26.92573	1	329.1062	-4.692883	-0.0001062	0.0004954	10
	2	18	189328.1	342.8232	-17.24552	1	343.2567	-2.879804	7.923593E-005	-0.0031369	9
	3	22	150421.9	358.0465	-15.94076	1	358.4012	-2.549209	-8.357605E-005	0.0037731	9
	4	29	119484.4	375.9357	-14.91517	1	376.2315	-2.272007	-8.279113E-005	0.0038353	9
	5	36	94921.88	388.8458	-12.58925	1	389.0496	-1.854358	-2.57456E-005	0.0008842	9
	6	38	75421.88	396.7464	-11.22793	1	396.9053	-1.621038	2.3092E-005	-0.0009606	9
	7	41	59859.37	404.7098	-1.521301	1	404.7127	-0.2153733	2.968816E-006	-0.0035119	8
	8	43	47578.12	412.6808	-1.818854	1	412.6848	-0.2525244	6.718648E-006	0.0017669	8
	9	46	37828.12	420.7791	-1.635731	1	420.7822	-0.2227298	-1.405141E-005	0.0049102	8
	10	49	30046.88	429.2013	-1.907399	1	429.2055	-0.2546246	1.479861E-005	-0.0050594	8
	11	51	23859.38	437.6458	-4.235927	1	437.6663	-0.5545424	1.233468E-005	-0.00062	8
	12	53	18984.38	445.5409	-2.106559	1	445.5459	-0.2708977	-1.340765E-005	0.0027871	8
	13	56	15046.87	453.4756	-1.667843	1	453.4786	-0.2107279	-1.445164E-005	0.0059585	8
	14	58	11953.13	461.3816	-2.725003	1	461.3896	-0.3383952	3.340961E-006	-0.0039019	8
	15	60	9515.62	470.1249	-2.241047	1	470.1302	-0.2731223	1.380052E-005	-0.0048796	8
	16	63	7546.875	478.4294	-1.486082	1	478.4317	-0.1779697	-1.336869E-005	0.0026387	8
	17	65	5928.309	488.402	-3.522719	1	488.4147	-0.4132527	-7.616136E-006	-0.000253	8
	18	67	4733.456	497.7384	-4.799174	1	497.7616	-0.5524265	-1.49182E-005	0.0041266	8
	19	70	3796.875	507.9306	-4.511786	1	507.9506	-0.5089267	-8.933976E-006	0.0065319	8
	20	72	2987.132	515.7534	-4.37982	1	515.772	-0.4865488	8.291562E-006	-0.0050331	8
	21	74	2390.625	526.541	-5.277392	1	526.5674	-0.5742424	-8.024752E-006	-0.000152	8
	22	76	1884.191	536.2565	-1.622564	1	536.259	-0.1733607	1.256086E-005	-0.005555	8
	23	79	1516.544	545.9089	-7.06998	1	545.9547	-0.741987	-1.203048E-005	0.0016252	8
	24	81	1193.986	557.1238	-9.276767	1	557.201	-0.953954	1.721643E-005	-0.0048244	8
	25	84	946.5144	569.454	-12.38956	1	569.5888	-1.246383	1.625528E-005	-0.0023682	8
	26	86	751.7689	578.3147	-16.72186	1	578.5564	-1.656235	8.83055E-006	-0.0053885	8
	27	88	597.4265	593.4327	-17.44025	1	593.6889	-1.683368	1.324395E-005	-0.0004604	8
	28	91	477.4305	605.3918	-22.40748	1	605.8064	-2.119732	-1.379702E-007	0.0006515	8
	29	93	376.6741	617.849	-27.83681	1	618.4758	-2.579682	-1.064364E-007	0.0006263	8
	30	96	298.2954	630.6689	-34.4957	1	631.6116	-3.130788	-1.458432E-007	0.0006676	8
	31	98	237.7717	644.5231	-42.581	1	645.9282	-3.779804	-9.779003E-008	0.0006446	8
	32	100	189.0121	658.7004	-52.67994	1	660.8036	-4.57253	-1.095328E-007	0.0006392	8
	33	103	150.2404	673.6698	-65.18299	1	676.8159	-5.526625	-1.550498E-007	0.0006622	8
	34	105	119.1737	689.3824	-80.86256	1	694.1087	-6.690059	-1.129211E-007	0.0006458	8
	35	108	95.0169	705.8771	-99.8251	1	712.9008	-8.049386	-1.484331E-007	0.0006446	8
	36	110	75.60484	723.9417	-123.5023	1	734.4006	-9.68128	-1.635165E-007	0.0006698	8
	37	113	54.50582	745.09	-167.2755	1	763.6361	-12.65332	-1.582786E-007	0.0006546	8
	38	115	45.95588	764.127	-196.1677	1	788.9054	-14.39812	-1.508531E-007	0.0006651	8
	39	118	37.20238	784.4191	-238.7409	1	819.9454	-16.92783	-1.17881E-007	0.0006478	8
	40	120	30.04808	807.0738	-291.1142	1	857.9718	-19.83454	-1.44842E-007	0.0006473	8
	41	122	23.91582	832.4645	-359.7511	1	906.8726	-23.37168	-1.193945E-007	0.0006453	8
	42	125	18.60119	861.4674	-454.1104	1	973.829	-27.79532	-5.182174E-008	0.0006431	8
	43	127	15.02404	891.5021	-552.9607	1	1049.067	-31.80956	-2.226667E-007	0.0006384	8
	44	129	12.01923	926.684	-679.8009	1	1149.292	-36.26319	-1.147193E-007	0.0006574	8
	45	132	9.450605	969.502	-848.3768	1	1288.285	-41.188	-2.16407E-007	0.0006691	8
	46	134	7.512019	1018.524	-1048.603	1	1461.835	-45.83366	-1.89824E-007	0.0006888	8
	47	137	5.978954	1077.022	-1293.401	1	1683.111	-50.21569	-1.826669E-007	0.0006523	8
	48	140	4.734848	1150.589	-1604.868	1	1974.704	-54.36185	-1.484975E-007	0.0006563	8
	49	143	3.75601	1237.364	-1987.816	1	2341.47	-58.0988	-2.352689E-007	0.0006601	8
	50	147	3.004808	1339.695	-2440.98	1	2784.451	-61.24049	-2.000911E-007	0.0006433	8
	51	150	2.372217	1469.521	-3035.912	1	3372.87	-64.17088	-1.958654E-007	0.0006036	8
	52	155	1.878005	1636.18	-3768.289	1	4108.173	-66.52966	-2.097538E-007	0.0006547	8
	53	159	1.512097	1832.38	-4617.259	1	4967.565	-68.35412	-4.763913E-008	0.0005184	7
	54	165	1.201923	2081.172	-5717.608	1	6084.597	-69.99883	-5.454551E-008	0.0006414	7
	55	171	0.956633	2384.027	-7069.611	1	7460.763	-71.36477	-5.843055E-008	-1.445638E-005	7
