EXPLAIN
TAG	EISPOT
TITLE	LABEL	Potentiostatic EIS	Test Identifier
DATE	LABEL	8/9/2020	Date
TIME	LABEL	16:31:26	Time
NOTES	NOTES	1	Notes...
	
PSTAT	PSTAT	REF3000-16137	Potentiostat
VDC	POTEN	0.00000E+000	T	DC Voltage (V)
FREQINIT	QUANT	3.00000E+005	Initial Freq. (Hz)
FREQFINAL	QUANT	1.00000E+000	Final Freq. (Hz)
PTSPERDEC	QUANT	1.00000E+001	Points/decade
VAC	QUANT	5.00000E+001	AC Voltage (mV rms)
AREA	QUANT	1.00000E+000	Sample Area (cm^2)
SPEED	SELECTOR	2	Optimize for:
ZGUESS	QUANT	1.00000E+003	Estimated Z (ohms)
EOC	QUANT	0	Open Circuit (V)
SEQUENCER	TOGGLE	TRUE	Run as Sequence
PSTATMODEL	IQUANT	5	Pstat Model
PSTATSECTION	LABEL	REF3000-16137	Pstat Section
PSTATSERIALNO	LABEL	16137	Pstat Serial Number
CTRLMODE	IQUANT	1	Control Mode
IESTAB	IQUANT	0	I/E Stability
CASPEED	IQUANT	1	Control Amp Speed
CONVENTION	IQUANT	1	Current Convention
ICHRANGE	IQUANT	2	Ich Range
ICHRANGEMODE	TOGGLE	F	Ich Auto Range
ICHOFFSETENABLE	TOGGLE	T	Ich Offset Enable
ICHOFFSET	QUANT	0	Ich Offset (V)
ICHFILTER	IQUANT	3	Ich Filter
VCHRANGE	IQUANT	2	Vch Range
VCHRANGEMODE	TOGGLE	F	Vch Auto Range
VCHOFFSETENABLE	TOGGLE	T	Vch Offset Enable
VCHOFFSET	QUANT	0	Vch Offset (V)
VCHFILTER	IQUANT	3	Vch Filter
ACHRANGE	IQUANT	2	Ach Range
ACHOFFSETENABLE	TOGGLE	F	Ach Offset Enable
ACHOFFSET	QUANT	0	Ach Offset (V)
ACHFILTER	IQUANT	3	Ach Filter
IERANGELOWERLIMIT	IQUANT	2	I/E Range Lower Limit
IERANGEMODE	TOGGLE	F	I/E AutoRange
IERANGE	IQUANT	11	I/E Range
POSFEEDENABLE	TOGGLE	F	Positive Feedback IR Comp
POSFEEDRESISTANCE	QUANT	0	Positive Feedback Resistance (ohm)
ACHSELECT	IQUANT	0	Ach Select
CABLEID	IQUANT	13	Cable ID
DCCALDATE	LABEL	7/31/2020	DC Calibration Date
ACCALDATE	LABEL	7/31/2020	AC Calibration Date
THERMOSELECT	IQUANT	1	Thermo Select
FRAMEWORKVERSION	QUANT	6.33	Framework Version
INSTRUMENTVERSION	LABEL	3.50	Instrument Version
COMPLIANCEVOLTAGE	IQUANT	0	Compliance Voltage
ZCURVE	TABLE
	Pt	Time	Freq	Zreal	Zimag	Zsig	Zmod	Zphz	Idc	Vdc	IERange
	#	s	Hz	ohm	ohm	V	ohm	°	A	V	#
	0	6	300046.9	104.9879	0.0903137	1	104.9879	0.0492875	7.030591E-005	-0.0028721	9
	1	10	238359.4	107.1977	-0.314014	1	107.1981	-0.167836	6.546655E-005	-0.0018614	9
	2	13	189328.1	109.122	-0.471675	1	109.1231	-0.2476569	-6.994193E-007	0.0008938	9
	3	15	150421.9	110.8482	-0.3978629	1	110.8489	-0.2056486	4.710836E-005	-0.0002433	9
	4	18	119484.4	112.6311	-0.4585574	1	112.6321	-0.2332682	-5.990775E-006	0.0012612	9
	5	20	94921.88	114.4038	-0.2341679	1	114.404	-0.117276	-1.518845E-005	0.0001572	9
	6	23	75421.88	116.1687	-0.3624578	1	116.1692	-0.1787679	-1.438067E-005	0.0008204	9
	7	25	59859.37	117.9884	-0.4710037	1	117.9893	-0.2287206	2.603078E-005	-0.0006367	9
	8	28	47578.12	119.8928	-0.4983537	1	119.8938	-0.2381578	-1.927613E-005	0.00093	9
	9	30	37828.12	121.8537	-0.484327	1	121.8547	-0.22773	-1.911013E-005	0.0003693	9
	10	33	30046.88	123.6398	-0.6036707	1	123.6412	-0.2797442	-6.288163E-006	0.0007792	9
	11	36	23859.38	125.4981	-0.6743463	1	125.4999	-0.3078678	-1.433985E-005	0.0001419	9
	12	38	18984.38	127.3315	-0.8201313	1	127.3342	-0.3690321	2.047662E-005	-0.0007904	9
	13	40	15046.87	129.406	-0.9297644	1	129.4093	-0.4116552	2.365503E-005	-0.0002267	9
	14	42	11953.13	130.9883	-1.066186	1	130.9926	-0.4663516	1.186458E-005	0.0002492	9
	15	45	9515.62	133.0166	-1.345657	1	133.0234	-0.5796106	2.362214E-005	-0.0002477	9
	16	47	7546.875	134.9908	-1.607709	1	135.0004	-0.6823471	2.944214E-006	0.0005502	9
	17	49	5928.309	137.0236	-1.926238	1	137.0372	-0.8053941	-9.616405E-006	-4.60795E-005	9
	18	52	4733.456	138.976	-2.212467	1	138.9936	-0.912059	-7.42463E-006	0.0007956	9
	19	54	3796.875	141.1242	-2.96728	1	141.1553	-1.204525	2.122031E-005	-0.00021	9
	20	56	2987.132	143.1841	-3.613475	1	143.2297	-1.445642	-1.964059E-005	0.0009282	9
	21	59	2390.625	145.4543	-4.324206	1	145.5186	-1.702843	-1.534289E-005	0.0001427	9
	22	61	1884.191	147.6409	-5.303075	1	147.7361	-2.057107	-2.213875E-005	0.00084	9
	23	63	1516.544	149.9693	-6.614505	1	150.1151	-2.525435	2.491251E-005	-0.0007445	9
	24	66	1193.986	152.506	-8.198556	1	152.7263	-3.077196	1.987293E-005	-8.752406E-005	9
	25	68	946.5144	155.0439	-10.1821	1	155.3779	-3.757353	-9.367833E-006	-5.532891E-005	9
	26	70	751.7689	157.6184	-12.52816	1	158.1155	-4.544551	2.617906E-005	-0.000467	9
	27	73	597.4265	160.3997	-15.56916	1	161.1535	-5.544033	7.377761E-006	-0.0005868	9
	28	75	477.4305	163.2342	-19.25541	1	164.366	-6.72763	1.272102E-006	8.180434E-005	9
	29	77	376.6741	166.2519	-24.00092	1	167.9754	-8.214738	1.259864E-006	7.469503E-005	9
	30	80	298.2954	169.4498	-29.8088	1	172.0517	-9.97712	1.289462E-006	7.233374E-005	9
	31	82	237.7717	172.979	-36.82015	1	176.8544	-12.01658	8.922168E-007	0.0001305	9
	32	85	189.0121	176.7674	-45.58215	1	182.5499	-14.45958	1.303079E-006	7.499564E-005	9
	33	87	150.2404	180.8925	-56.42683	1	189.489	-17.32457	1.265224E-006	7.262903E-005	9
	34	89	119.1737	185.437	-69.98307	1	198.2032	-20.67627	1.285991E-006	7.929251E-005	9
	35	92	95.0169	190.4341	-86.36377	1	209.1025	-24.39476	1.317239E-006	7.808295E-005	9
	36	94	75.60484	196.2296	-106.7492	1	223.3863	-28.54626	1.220137E-006	7.678272E-005	9
	37	97	54.50582	204.5329	-144.3838	1	250.3605	-35.21901	1.208849E-006	6.708573E-005	9
	38	99	45.95588	211.0832	-169.1482	1	270.4944	-38.7064	1.381527E-006	7.120465E-005	9
	39	102	37.20238	219.2449	-205.5506	1	300.5318	-43.15358	1.282951E-006	7.250541E-005	9
	40	104	30.04808	228.8578	-250.2702	1	339.1328	-47.55886	1.216651E-006	7.189969E-005	9
	41	107	23.91582	240.7273	-308.8184	1	391.559	-52.06319	1.318195E-006	7.099375E-005	9
	42	109	18.60119	254.8702	-387.4021	1	463.7232	-56.65925	9.699322E-008	0.0006593	8
	43	111	15.02404	271.0271	-471.2181	1	543.6011	-60.0941	5.271329E-008	0.0006438	8
	44	114	12.01923	291.4968	-578.2661	1	647.5817	-63.24789	7.247991E-009	0.0006467	8
	45	116	9.450605	318.4476	-720.6125	1	787.8397	-66.15878	1.007433E-007	0.0006508	8
	46	119	7.512019	350.5825	-888.719	1	955.369	-68.47172	1.168431E-007	0.0006593	8
	47	121	5.978954	390.4651	-1094.63	1	1162.187	-70.36819	3.999393E-008	0.0006515	8
	48	124	4.734848	440.9424	-1354.857	1	1424.805	-71.97237	9.87359E-008	0.0006729	8
	49	128	3.75601	506.4912	-1673.04	1	1748.027	-73.157	7.171225E-008	0.0006867	8
	50	132	3.004808	582.8477	-2047.801	1	2129.131	-74.11252	6.48318E-008	0.0006456	8
	51	136	2.372217	686.0267	-2534.568	1	2625.77	-74.85475	3.272462E-008	0.0006305	8
	52	140	1.878005	814.6293	-3140.427	1	3244.364	-75.45795	6.298774E-008	0.0006492	8
	53	145	1.512097	958.965	-3819.8	1	3938.335	-75.90709	2.957712E-008	0.0007131	8
	54	150	1.201923	1168.704	-4722.526	1	4864.99	-76.10003	1.391887E-008	0.0006256	7
	55	156	0.956633	1418.844	-5805.847	1	5976.703	-76.26711	-2.857166E-008	-1.28804E-005	7
