EXPLAIN
TAG	EISPOT
TITLE	LABEL	Potentiostatic EIS	Test Identifier
DATE	LABEL	8/9/2020	Date
TIME	LABEL	16:03:22	Time
NOTES	NOTES	1	Notes...
	
PSTAT	PSTAT	REF3000-16137	Potentiostat
VDC	POTEN	0.00000E+000	T	DC Voltage (V)
FREQINIT	QUANT	3.00000E+005	Initial Freq. (Hz)
FREQFINAL	QUANT	1.00000E+000	Final Freq. (Hz)
PTSPERDEC	QUANT	1.00000E+001	Points/decade
VAC	QUANT	5.00000E+001	AC Voltage (mV rms)
AREA	QUANT	1.00000E+000	Sample Area (cm^2)
SPEED	SELECTOR	2	Optimize for:
ZGUESS	QUANT	1.00000E+003	Estimated Z (ohms)
EOC	QUANT	0	Open Circuit (V)
SEQUENCER	TOGGLE	TRUE	Run as Sequence
PSTATMODEL	IQUANT	5	Pstat Model
PSTATSECTION	LABEL	REF3000-16137	Pstat Section
PSTATSERIALNO	LABEL	16137	Pstat Serial Number
CTRLMODE	IQUANT	1	Control Mode
IESTAB	IQUANT	0	I/E Stability
CASPEED	IQUANT	1	Control Amp Speed
CONVENTION	IQUANT	1	Current Convention
ICHRANGE	IQUANT	2	Ich Range
ICHRANGEMODE	TOGGLE	F	Ich Auto Range
ICHOFFSETENABLE	TOGGLE	T	Ich Offset Enable
ICHOFFSET	QUANT	0	Ich Offset (V)
ICHFILTER	IQUANT	3	Ich Filter
VCHRANGE	IQUANT	2	Vch Range
VCHRANGEMODE	TOGGLE	F	Vch Auto Range
VCHOFFSETENABLE	TOGGLE	T	Vch Offset Enable
VCHOFFSET	QUANT	0	Vch Offset (V)
VCHFILTER	IQUANT	3	Vch Filter
ACHRANGE	IQUANT	2	Ach Range
ACHOFFSETENABLE	TOGGLE	F	Ach Offset Enable
ACHOFFSET	QUANT	0	Ach Offset (V)
ACHFILTER	IQUANT	3	Ach Filter
IERANGELOWERLIMIT	IQUANT	2	I/E Range Lower Limit
IERANGEMODE	TOGGLE	F	I/E AutoRange
IERANGE	IQUANT	11	I/E Range
POSFEEDENABLE	TOGGLE	F	Positive Feedback IR Comp
POSFEEDRESISTANCE	QUANT	0	Positive Feedback Resistance (ohm)
ACHSELECT	IQUANT	0	Ach Select
CABLEID	IQUANT	13	Cable ID
DCCALDATE	LABEL	7/31/2020	DC Calibration Date
ACCALDATE	LABEL	7/31/2020	AC Calibration Date
THERMOSELECT	IQUANT	1	Thermo Select
FRAMEWORKVERSION	QUANT	6.33	Framework Version
INSTRUMENTVERSION	LABEL	3.50	Instrument Version
COMPLIANCEVOLTAGE	IQUANT	0	Compliance Voltage
ZCURVE	TABLE
	Pt	Time	Freq	Zreal	Zimag	Zsig	Zmod	Zphz	Idc	Vdc	IERange
	#	s	Hz	ohm	ohm	V	ohm	°	A	V	#
	0	9	300046.9	2.168895	1.087916	1	2.426452	26.63831	-8.105928E-005	0.0009698	12
	1	13	238359.4	2.104876	0.8690171	1	2.277212	22.43372	-6.930006E-005	-0.0003514	12
	2	17	189328.1	2.026733	0.823704	1	2.187724	22.11779	-7.88396E-005	-1.044195E-005	11
	3	20	150421.9	2.020559	0.6412878	1	2.119884	17.60847	-0.0001303	0.0000968	11
	4	22	119484.4	2.013288	0.4846611	1	2.070803	13.53533	-1.911571E-005	0.0004278	11
	5	25	94921.88	2.011194	0.361183	1	2.043369	10.18101	-2.812381E-005	0.000488	11
	6	27	75421.88	2.011469	0.2528545	1	2.027299	7.164864	2.468434E-005	0.0005523	11
	7	30	59859.37	2.013083	0.1585445	1	2.019316	4.503151	-4.082979E-005	0.0005492	11
	8	32	47578.12	2.016633	0.0740804	1	2.017993	2.103796	2.118844E-005	0.0006325	11
	9	35	37828.12	2.02151	-0.0050407	1	2.021516	-0.1428697	-2.5097E-005	0.0006495	11
	10	38	30046.88	2.026979	-0.0840259	1	2.02872	-2.373767	-2.982698E-005	0.0006427	11
	11	40	23859.38	2.033892	-0.1662297	1	2.040673	-4.672391	-4.39549E-005	0.0006539	11
	12	42	18984.38	2.042161	-0.2543426	1	2.057939	-7.099394	-4.637673E-005	0.0006528	11
	13	45	15046.87	2.053024	-0.355368	1	2.083553	-9.8203	-3.009683E-005	0.0006906	11
	14	47	11953.13	2.065996	-0.4716057	1	2.119139	-12.85861	-3.025315E-005	0.0006913	11
	15	49	9515.62	2.081873	-0.6076909	1	2.168751	-16.27233	-5.349134E-006	0.0006892	11
	16	52	7546.875	2.101586	-0.7742252	1	2.239663	-20.22382	2.322661E-005	0.000708	11
	17	54	5928.309	2.128635	-0.986402	1	2.346077	-24.86284	-3.856523E-005	0.000675	11
	18	56	4733.456	2.160244	-1.22745	1	2.48461	-29.60523	2.52342E-005	0.0007075	11
	19	59	3796.875	2.20035	-1.515109	1	2.671534	-34.55038	6.216737E-007	0.0006946	11
	20	61	2987.132	2.254236	-1.900673	1	2.948582	-40.13613	-2.950016E-005	0.0006917	11
	21	63	2390.625	2.317921	-2.340944	1	3.294356	-45.28314	-4.554489E-005	0.000663	11
	22	66	1884.191	2.40645	-2.917931	1	3.782238	-50.48722	2.163165E-005	0.0007009	11
	23	68	1516.544	2.512686	-3.565641	1	4.362039	-54.82787	1.896481E-005	0.0006517	10
	24	70	1193.986	2.657863	-4.437932	1	5.172957	-59.08274	2.061576E-005	0.0006483	10
	25	73	946.5144	2.83991	-5.481203	1	6.173222	-62.61052	2.086929E-005	0.0006523	10
	26	75	751.7689	3.064275	-6.754471	1	7.417052	-65.59782	6.162893E-006	0.0006557	10
	27	77	597.4265	3.35488	-8.311303	1	8.962867	-68.0184	-1.402486E-005	0.0006738	10
	28	80	477.4305	3.71543	-10.15941	1	10.81749	-69.91187	-9.358316E-007	0.0006732	10
	29	82	376.6741	4.203168	-12.55745	1	13.24221	-71.49383	-9.454227E-007	0.0006685	10
	30	84	298.2954	4.822493	-15.45341	1	16.1884	-72.6686	-1.500932E-006	0.0006724	10
	31	87	237.7717	5.595036	-18.88218	1	19.69369	-73.49476	-1.279373E-006	0.0006682	10
	32	89	189.0121	6.596434	-23.09403	1	24.01764	-74.05887	-1.678963E-006	0.0006662	10
	33	91	150.2404	7.874587	-28.19796	1	29.27685	-74.39703	-1.702811E-006	0.0006629	10
	34	94	119.1737	9.51089	-34.42184	1	35.71162	-74.55431	-2.177589E-006	0.0006697	10
	35	96	95.0169	11.50683	-41.69274	1	43.25149	-74.57096	1.185996E-006	6.654305E-005	9
	36	99	75.60484	14.02101	-50.53745	1	52.44637	-74.49396	1.076561E-006	6.497039E-005	9
	37	101	54.50582	18.63529	-66.33057	1	68.89861	-74.30752	9.817123E-007	5.796468E-005	9
	38	104	45.95588	21.61711	-76.36419	1	79.36491	-74.19428	1.454646E-006	7.140746E-005	9
	39	106	37.20238	25.88973	-90.77611	1	94.39587	-74.08163	1.305812E-006	6.769122E-005	9
	40	109	30.04808	30.90744	-107.9582	1	112.2953	-74.02406	1.119272E-006	6.926961E-005	9
	41	111	23.91582	37.2211	-129.9876	1	135.2116	-74.02128	1.234275E-006	7.327495E-005	9
	42	113	18.60119	45.25474	-159.4701	1	165.767	-74.15701	1.141859E-006	7.135328E-005	9
	43	116	15.02404	53.16036	-189.9728	1	197.2706	-74.36671	1.541568E-006	7.192584E-005	9
	44	118	12.01923	62.72312	-228.4729	1	236.9262	-74.64868	1.363587E-006	6.719958E-005	9
	45	120	9.450605	74.48533	-279.3829	1	289.1416	-75.07179	1.463357E-006	6.371662E-005	9
	46	123	7.512019	88.07997	-339.4598	1	350.7008	-75.45418	1.551695E-006	8.096884E-005	9
	47	126	5.978954	104.1324	-412.9839	1	425.9099	-75.84808	1.549429E-006	6.959814E-005	9
	48	129	4.734848	124.2644	-503.6704	1	518.7731	-76.14089	5.947055E-007	0.000675	8
	49	132	3.75601	150.5193	-617.3746	1	635.4584	-76.29829	5.068382E-007	0.0006424	8
	50	135	3.004808	183.5435	-751.1273	1	773.2272	-76.26843	4.753855E-007	0.0006829	8
	51	139	2.372217	230.8772	-926.1392	1	954.483	-76.00205	4.477591E-007	0.0007739	8
	52	143	1.878005	294.7154	-1136.647	1	1174.234	-75.46417	4.442082E-007	0.0006168	8
	53	148	1.512097	376.6593	-1370.922	1	1421.724	-74.63712	4.668487E-007	0.000726	8
	54	153	1.201923	493.8993	-1672.225	1	1743.638	-73.54525	4.707094E-007	0.0006127	8
	55	160	0.956633	654.2486	-2025.404	1	2128.451	-72.09844	3.313569E-007	8.578505E-006	8
