EXPLAIN
TAG	EISPOT
TITLE	LABEL	Potentiostatic EIS	Test Identifier
DATE	LABEL	8/9/2020	Date
TIME	LABEL	16:06:11	Time
NOTES	NOTES	1	Notes...
	
PSTAT	PSTAT	REF3000-16137	Potentiostat
VDC	POTEN	0.00000E+000	T	DC Voltage (V)
FREQINIT	QUANT	3.00000E+005	Initial Freq. (Hz)
FREQFINAL	QUANT	1.00000E+000	Final Freq. (Hz)
PTSPERDEC	QUANT	1.00000E+001	Points/decade
VAC	QUANT	5.00000E+001	AC Voltage (mV rms)
AREA	QUANT	1.00000E+000	Sample Area (cm^2)
SPEED	SELECTOR	2	Optimize for:
ZGUESS	QUANT	1.00000E+003	Estimated Z (ohms)
EOC	QUANT	0	Open Circuit (V)
SEQUENCER	TOGGLE	TRUE	Run as Sequence
PSTATMODEL	IQUANT	5	Pstat Model
PSTATSECTION	LABEL	REF3000-16137	Pstat Section
PSTATSERIALNO	LABEL	16137	Pstat Serial Number
CTRLMODE	IQUANT	1	Control Mode
IESTAB	IQUANT	0	I/E Stability
CASPEED	IQUANT	1	Control Amp Speed
CONVENTION	IQUANT	1	Current Convention
ICHRANGE	IQUANT	2	Ich Range
ICHRANGEMODE	TOGGLE	F	Ich Auto Range
ICHOFFSETENABLE	TOGGLE	T	Ich Offset Enable
ICHOFFSET	QUANT	0	Ich Offset (V)
ICHFILTER	IQUANT	3	Ich Filter
VCHRANGE	IQUANT	2	Vch Range
VCHRANGEMODE	TOGGLE	F	Vch Auto Range
VCHOFFSETENABLE	TOGGLE	T	Vch Offset Enable
VCHOFFSET	QUANT	0	Vch Offset (V)
VCHFILTER	IQUANT	3	Vch Filter
ACHRANGE	IQUANT	2	Ach Range
ACHOFFSETENABLE	TOGGLE	F	Ach Offset Enable
ACHOFFSET	QUANT	0	Ach Offset (V)
ACHFILTER	IQUANT	3	Ach Filter
IERANGELOWERLIMIT	IQUANT	2	I/E Range Lower Limit
IERANGEMODE	TOGGLE	F	I/E AutoRange
IERANGE	IQUANT	11	I/E Range
POSFEEDENABLE	TOGGLE	F	Positive Feedback IR Comp
POSFEEDRESISTANCE	QUANT	0	Positive Feedback Resistance (ohm)
ACHSELECT	IQUANT	0	Ach Select
CABLEID	IQUANT	13	Cable ID
DCCALDATE	LABEL	7/31/2020	DC Calibration Date
ACCALDATE	LABEL	7/31/2020	AC Calibration Date
THERMOSELECT	IQUANT	1	Thermo Select
FRAMEWORKVERSION	QUANT	6.33	Framework Version
INSTRUMENTVERSION	LABEL	3.50	Instrument Version
COMPLIANCEVOLTAGE	IQUANT	0	Compliance Voltage
ZCURVE	TABLE
	Pt	Time	Freq	Zreal	Zimag	Zsig	Zmod	Zphz	Idc	Vdc	IERange
	#	s	Hz	ohm	ohm	V	ohm	°	A	V	#
	0	9	300046.9	2.297127	1.070594	1	2.534357	24.98824	1.777972E-005	0.0009	12
	1	13	238359.4	2.238925	0.8504899	1	2.39502	20.80005	-6.999102E-005	-0.0002566	12
	2	18	189328.1	2.202313	0.6681854	1	2.301446	16.87788	-2.800591E-005	8.562808E-005	12
	3	21	150421.9	2.155689	0.63884	1	2.248357	16.50723	-1.723683E-005	0.0003007	11
	4	24	119484.4	2.151713	0.483518	1	2.20537	12.66473	-0.0001481	0.0002362	11
	5	26	94921.88	2.150547	0.3572681	1	2.180022	9.432343	2.129767E-005	0.0005054	11
	6	29	75421.88	2.152941	0.2501648	1	2.167426	6.627862	-4.04901E-005	0.0005237	11
	7	31	59859.37	2.156651	0.1554031	1	2.162243	4.121473	1.241568E-005	0.0006043	11
	8	34	47578.12	2.161407	0.0704548	1	2.162555	1.866995	2.246551E-005	0.0006455	11
	9	37	37828.12	2.167343	-0.0096397	1	2.167364	-0.2548332	1.54698E-005	0.0006628	11
	10	39	30046.88	2.174852	-0.0892317	1	2.176682	-2.349463	-2.435508E-005	0.0006734	11
	11	42	23859.38	2.18288	-0.1723755	1	2.189676	-4.515107	2.232054E-005	0.000682	11
	12	44	18984.38	2.193151	-0.262013	1	2.208747	-6.812766	1.865672E-005	0.0006982	11
	13	46	15046.87	2.205353	-0.365006	1	2.235355	-9.397778	-1.416095E-005	0.0007039	11
	14	49	11953.13	2.219546	-0.4835031	1	2.271598	-12.28925	2.158083E-006	0.000686	11
	15	51	9515.62	2.237032	-0.6221157	1	2.321926	-15.54118	2.711694E-005	0.0007101	11
	16	53	7546.875	2.259288	-0.7929883	1	2.394413	-19.34058	5.423417E-006	0.0007134	11
	17	55	5928.309	2.287884	-1.008756	1	2.5004	-23.79326	-1.35227E-006	0.0006854	11
	18	58	4733.456	2.321217	-1.255821	1	2.639154	-28.41421	2.593681E-005	0.000713	11
	19	60	3796.875	2.362115	-1.551134	1	2.825881	-33.29177	-1.949068E-005	0.0006713	11
	20	62	2987.132	2.418514	-1.944276	1	3.10313	-38.79628	2.216914E-005	0.0007077	11
	21	65	2390.625	2.485345	-2.394923	1	3.451463	-43.93855	-2.216393E-005	0.0007002	11
	22	67	1884.191	2.576758	-2.985894	1	3.944014	-49.20656	2.313941E-005	0.0007075	11
	23	69	1516.544	2.684092	-3.650239	1	4.530849	-53.67224	2.169111E-005	0.0006497	10
	24	72	1193.986	2.832299	-4.545526	1	5.355719	-58.07314	-2.511837E-005	0.0006803	10
	25	74	946.5144	3.021114	-5.615629	1	6.376709	-61.72049	-1.063519E-005	0.000684	10
	26	76	751.7689	3.248622	-6.921752	1	7.646189	-64.85768	2.183436E-005	0.0006595	10
	27	79	597.4265	3.543729	-8.521711	1	9.22917	-67.42016	2.031535E-005	0.0006565	10
	28	81	477.4305	3.912654	-10.42739	1	11.13729	-69.43248	-9.219425E-007	0.0006683	10
	29	83	376.6741	4.409363	-12.8952	1	13.62823	-71.12247	-1.092956E-006	0.0006706	10
	30	86	298.2954	5.038774	-15.87914	1	16.65943	-72.39471	-7.796355E-007	0.0006742	10
	31	88	237.7717	5.825801	-19.415	1	20.27023	-73.29723	-1.157192E-006	0.0006726	10
	32	90	189.0121	6.847066	-23.76389	1	24.73064	-73.92677	-1.812722E-006	0.0006732	10
	33	93	150.2404	8.154269	-29.04024	1	30.16335	-74.31568	-1.742136E-006	0.0006732	10
	34	95	119.1737	9.83665	-35.47823	1	36.81663	-74.5035	-1.181672E-006	0.0006787	10
	35	97	95.0169	11.89384	-43.00658	1	44.62096	-74.54076	1.377835E-006	7.448908E-005	9
	36	100	75.60484	14.50428	-52.17325	1	54.15184	-74.46395	1.155763E-006	6.857199E-005	9
	37	103	54.50582	19.32401	-68.52244	1	71.1951	-74.25102	9.992939E-007	6.486855E-005	9
	38	105	45.95588	22.44629	-78.893	1	82.02402	-74.11812	1.511283E-006	7.819675E-005	9
	39	107	37.20238	26.97383	-93.8092	1	97.6102	-73.95798	1.420939E-006	7.075718E-005	9
	40	110	30.04808	32.2817	-111.5505	1	116.1276	-73.86004	1.14544E-006	7.142455E-005	9
	41	112	23.91582	38.99615	-134.3198	1	139.866	-73.81075	1.216934E-006	7.210318E-005	9
	42	115	18.60119	47.5192	-164.5368	1	171.2613	-73.89097	1.178187E-006	8.064968E-005	9
	43	117	15.02404	55.89226	-195.7555	1	203.5784	-74.06485	1.572685E-006	8.766791E-005	9
	44	119	12.01923	65.78138	-234.9549	1	243.9897	-74.35911	1.275576E-006	7.407424E-005	9
	45	122	9.450605	78.13904	-287.0433	1	297.4888	-74.77192	1.476236E-006	7.966348E-005	9
	46	124	7.512019	91.50581	-348.203	1	360.0259	-75.27592	1.644181E-006	9.317576E-005	9
	47	127	5.978954	106.9317	-421.6251	1	434.9736	-75.76883	5.75535E-007	0.0006527	8
	48	130	4.734848	126.7347	-516.3013	1	531.6283	-76.20849	6.026686E-007	0.0006854	8
	49	133	3.75601	151.3953	-633.0561	1	650.9075	-76.55033	5.536286E-007	0.0006458	8
	50	137	3.004808	181.6888	-771.3557	1	792.4648	-76.74587	5.000113E-007	0.0006882	8
	51	140	2.372217	223.5998	-952.069	1	977.973	-76.78323	4.841253E-007	0.0007049	8
	52	145	1.878005	281.769	-1172.573	1	1205.953	-76.48803	5.029895E-007	0.0006201	8
	53	149	1.512097	354.1977	-1420.361	1	1463.859	-75.99765	5.100986E-007	0.0007428	8
	54	155	1.201923	455.9232	-1741.808	1	1800.49	-75.33176	5.029171E-007	0.0006134	8
	55	161	0.956633	595.9734	-2125.958	1	2207.913	-74.34013	4.076941E-007	5.523363E-006	8
