EXPLAIN
TAG	EISPOT
TITLE	LABEL	Potentiostatic EIS	Test Identifier
DATE	LABEL	10/12/2021	Date
TIME	LABEL	12:10:52	Time
NOTES	NOTES	1	Notes...
	
PSTAT	PSTAT	REF3000-16137	Potentiostat
VDC	POTEN	0.00000E+000	T	DC Voltage (V)
FREQINIT	QUANT	3.00000E+005	Initial Freq. (Hz)
FREQFINAL	QUANT	1.00000E+000	Final Freq. (Hz)
PTSPERDEC	QUANT	1.00000E+001	Points/decade
VAC	QUANT	5.00000E+001	AC Voltage (mV rms)
AREA	QUANT	1.00000E+000	Sample Area (cm^2)
SPEED	SELECTOR	2	Optimize for:
ZGUESS	QUANT	1.00000E+003	Estimated Z (ohms)
EOC	QUANT	0	Open Circuit (V)
SEQUENCER	TOGGLE	TRUE	Run as Sequence
PSTATMODEL	IQUANT	5	Pstat Model
PSTATSECTION	LABEL	REF3000-16137	Pstat Section
PSTATSERIALNO	LABEL	16137	Pstat Serial Number
CTRLMODE	IQUANT	1	Control Mode
IESTAB	IQUANT	0	I/E Stability
CASPEED	IQUANT	1	Control Amp Speed
CONVENTION	IQUANT	1	Current Convention
ICHRANGE	IQUANT	2	Ich Range
ICHRANGEMODE	TOGGLE	F	Ich Auto Range
ICHOFFSETENABLE	TOGGLE	T	Ich Offset Enable
ICHOFFSET	QUANT	0	Ich Offset (V)
ICHFILTER	IQUANT	3	Ich Filter
VCHRANGE	IQUANT	2	Vch Range
VCHRANGEMODE	TOGGLE	F	Vch Auto Range
VCHOFFSETENABLE	TOGGLE	T	Vch Offset Enable
VCHOFFSET	QUANT	0	Vch Offset (V)
VCHFILTER	IQUANT	3	Vch Filter
ACHRANGE	IQUANT	2	Ach Range
ACHOFFSETENABLE	TOGGLE	F	Ach Offset Enable
ACHOFFSET	QUANT	0	Ach Offset (V)
ACHFILTER	IQUANT	3	Ach Filter
IERANGELOWERLIMIT	IQUANT	2	I/E Range Lower Limit
IERANGEMODE	TOGGLE	F	I/E AutoRange
IERANGE	IQUANT	11	I/E Range
POSFEEDENABLE	TOGGLE	F	Positive Feedback IR Comp
POSFEEDRESISTANCE	QUANT	0	Positive Feedback Resistance (ohm)
ACHSELECT	IQUANT	0	Ach Select
CABLEID	IQUANT	13	Cable ID
DCCALDATE	LABEL	9/10/2021	DC Calibration Date
ACCALDATE	LABEL	9/10/2021	AC Calibration Date
THERMOSELECT	IQUANT	1	Thermo Select
FRAMEWORKVERSION	QUANT	6.33	Framework Version
INSTRUMENTVERSION	LABEL	3.50	Instrument Version
COMPLIANCEVOLTAGE	IQUANT	0	Compliance Voltage
ZCURVE	TABLE
	Pt	Time	Freq	Zreal	Zimag	Zsig	Zmod	Zphz	Idc	Vdc	IERange
	#	s	Hz	ohm	ohm	V	ohm	°	A	V	#
	0	10	300046.9	1.688245	2.389912	1	2.926064	54.76243	-3.672877E-005	-0.0006344	11
	1	13	238359.4	1.771518	1.752008	1	2.491547	44.68274	-0.0002755	-0.0011924	12
	2	17	189328.1	1.688361	1.378452	1	2.179608	39.22971	-8.252681E-005	-0.0008865	12
	3	21	150421.9	1.580014	1.177639	1	1.970603	36.69842	-1.443487E-006	-2.407308E-005	11
	4	23	119484.4	1.572119	0.9102595	1	1.816626	30.07091	-6.976571E-005	-4.050693E-005	11
	5	26	94921.88	1.565411	0.6913471	1	1.711278	23.82813	-6.995516E-005	7.65272E-005	11
	6	28	75421.88	1.562847	0.5091447	1	1.64369	18.04459	-5.659685E-005	0.0001179	11
	7	31	59859.37	1.56254	0.3540256	1	1.602144	12.766	-2.71854E-005	0.0002037	11
	8	34	47578.12	1.564807	0.2195321	1	1.580132	7.986094	-7.314629E-005	0.0002356	11
	9	36	37828.12	1.569613	0.0980905	1	1.572675	3.57596	-2.193961E-005	0.0003141	11
	10	39	30046.88	1.576269	-0.0170052	1	1.576361	-0.6180989	-3.023187E-005	0.0003283	11
	11	41	23859.38	1.585004	-0.1309704	1	1.590406	-4.723674	-4.880859E-005	0.0003462	11
	12	43	18984.38	1.595642	-0.2483476	1	1.614853	-8.846606	-2.643539E-005	0.0003794	11
	13	46	15046.87	1.60942	-0.3771985	1	1.653031	-13.1903	-4.403549E-005	0.0003685	11
	14	48	11953.13	1.626554	-0.5211677	1	1.708009	-17.76609	-7.428312E-005	0.0003612	11
	15	50	9515.62	1.647464	-0.6859512	1	1.784563	-22.60528	-6.887712E-005	0.0003747	11
	16	53	7546.875	1.673365	-0.8836583	1	1.892354	-27.83731	-5.595641E-005	0.0003739	11
	17	55	5928.309	1.708525	-1.131224	1	2.049079	-33.50875	-5.61594E-005	0.0003751	11
	18	57	4733.456	1.749554	-1.411699	1	2.248073	-38.89974	-7.729825E-005	0.0003558	11
	19	60	3796.875	1.800107	-1.742809	1	2.505547	-44.07346	-8.006376E-005	0.0003366	11
	20	62	2987.132	1.871872	-2.184105	1	2.876495	-49.402	-3.225648E-005	0.0003845	11
	21	64	2390.625	1.955051	-2.683508	1	3.320156	-53.92506	-3.821713E-005	0.0003445	11
	22	67	1884.191	2.069252	-3.339657	1	3.928755	-58.21765	-5.333465E-005	0.0003698	11
	23	69	1516.544	2.202668	-4.071081	1	4.628763	-61.58429	1.692488E-005	-0.0001532	10
	24	71	1193.986	2.385636	-5.052896	1	5.587756	-64.72649	6.913065E-006	-0.0001524	10
	25	74	946.5144	2.607885	-6.228175	1	6.752128	-67.27978	2.391127E-005	-0.0001302	10
	26	76	751.7689	2.893814	-7.648218	1	8.177371	-69.27514	-2.963249E-006	-0.0001301	10
	27	78	597.4265	3.254668	-9.37555	1	9.92441	-70.85585	-2.349422E-005	-0.0001275	10
	28	81	477.4305	3.702932	-11.43366	1	12.01833	-72.05481	-7.760187E-007	-0.0001181	10
	29	83	376.6741	4.292039	-14.06899	1	14.70912	-73.03458	-1.218716E-006	-0.0001242	10
	30	85	298.2954	5.016778	-17.233	1	17.94838	-73.76895	-8.645853E-007	-0.0001229	10
	31	88	237.7717	5.887054	-20.96385	1	21.77477	-74.31423	-7.451172E-007	-0.0001224	10
	32	90	189.0121	6.964997	-25.53477	1	26.46764	-74.74286	-1.427267E-006	-0.0001187	10
	33	92	150.2404	8.279199	-31.08377	1	32.16747	-75.08546	-1.341656E-006	-0.0001201	10
	34	95	119.1737	9.88266	-37.87897	1	39.14695	-75.37745	-1.275939E-006	-0.0001166	10
	35	97	95.0169	11.7557	-45.88232	1	47.36438	-75.62915	-4.070498E-008	-0.0001402	9
	36	100	75.60484	14.03245	-55.73003	1	57.46952	-75.86709	-1.020407E-007	-0.0001477	9
	37	102	54.50582	18.04351	-73.59367	1	75.77332	-76.22411	-1.171378E-007	-0.0001435	9
	38	105	45.95588	20.53403	-85.08788	1	87.53053	-76.43238	1.966027E-007	-0.0001346	9
	39	107	37.20238	24.04079	-101.8836	1	104.6816	-76.72316	1.975019E-008	-0.000137	9
	40	110	30.04808	28.12395	-122.3755	1	125.5656	-77.05721	-9.518782E-008	-0.0001353	9
	41	112	23.91582	33.2472	-149.1188	1	152.7802	-77.43103	-2.040854E-007	-0.0001401	9
	42	114	18.60119	39.56842	-185.3096	1	189.487	-77.94686	-1.365899E-007	-0.0001306	9
	43	117	15.02404	46.02816	-223.516	1	228.206	-78.36387	3.698778E-007	-0.0001778	9
	44	119	12.01923	53.80383	-272.2047	1	277.4712	-78.81907	-8.255774E-008	-0.0001435	9
	45	121	9.450605	63.61735	-337.2423	1	343.1903	-79.31727	9.570245E-008	-0.0001438	9
	46	124	7.512019	75.09235	-414.6095	1	421.3548	-79.73411	1.811792E-007	-0.0001249	9
	47	127	5.978954	88.23809	-507.3063	1	514.923	-80.133	5.835026E-007	-0.0001293	8
	48	130	4.734848	105.2206	-627.5151	1	636.2755	-80.48129	6.503821E-007	-0.0001	8
	49	133	3.75601	127.0747	-775.7394	1	786.0786	-80.69695	5.606417E-007	-0.0001421	8
	50	136	3.004808	153.5241	-951.681	1	963.985	-80.83606	6.137694E-007	-0.0001408	8
	51	140	2.372217	191.4808	-1183.978	1	1199.362	-80.81329	5.71207E-007	-5.145239E-005	8
	52	144	1.878005	238.3738	-1469.089	1	1488.302	-80.78353	5.338317E-007	-0.0001481	8
	53	149	1.512097	299.0562	-1789.525	1	1814.341	-80.5127	5.873663E-007	-6.818328E-005	8
	54	154	1.201923	381.5008	-2215.226	1	2247.836	-80.22851	5.54296E-007	-0.0001523	8
	55	161	0.956633	494.4912	-2730.122	1	2774.543	-79.73365	5.297409E-007	-0.0006703	8
