EXPLAIN
TAG	EISPOT
TITLE	LABEL	Potentiostatic EIS	Test Identifier
DATE	LABEL	10/12/2021	Date
TIME	LABEL	11:53:51	Time
NOTES	NOTES	1	Notes...
	
PSTAT	PSTAT	REF3000-16137	Potentiostat
VDC	POTEN	0.00000E+000	T	DC Voltage (V)
FREQINIT	QUANT	3.00000E+005	Initial Freq. (Hz)
FREQFINAL	QUANT	1.00000E+000	Final Freq. (Hz)
PTSPERDEC	QUANT	1.00000E+001	Points/decade
VAC	QUANT	5.00000E+001	AC Voltage (mV rms)
AREA	QUANT	1.00000E+000	Sample Area (cm^2)
SPEED	SELECTOR	2	Optimize for:
ZGUESS	QUANT	1.00000E+003	Estimated Z (ohms)
EOC	QUANT	0	Open Circuit (V)
SEQUENCER	TOGGLE	TRUE	Run as Sequence
PSTATMODEL	IQUANT	5	Pstat Model
PSTATSECTION	LABEL	REF3000-16137	Pstat Section
PSTATSERIALNO	LABEL	16137	Pstat Serial Number
CTRLMODE	IQUANT	1	Control Mode
IESTAB	IQUANT	0	I/E Stability
CASPEED	IQUANT	1	Control Amp Speed
CONVENTION	IQUANT	1	Current Convention
ICHRANGE	IQUANT	2	Ich Range
ICHRANGEMODE	TOGGLE	F	Ich Auto Range
ICHOFFSETENABLE	TOGGLE	T	Ich Offset Enable
ICHOFFSET	QUANT	0	Ich Offset (V)
ICHFILTER	IQUANT	3	Ich Filter
VCHRANGE	IQUANT	2	Vch Range
VCHRANGEMODE	TOGGLE	F	Vch Auto Range
VCHOFFSETENABLE	TOGGLE	T	Vch Offset Enable
VCHOFFSET	QUANT	0	Vch Offset (V)
VCHFILTER	IQUANT	3	Vch Filter
ACHRANGE	IQUANT	2	Ach Range
ACHOFFSETENABLE	TOGGLE	F	Ach Offset Enable
ACHOFFSET	QUANT	0	Ach Offset (V)
ACHFILTER	IQUANT	3	Ach Filter
IERANGELOWERLIMIT	IQUANT	2	I/E Range Lower Limit
IERANGEMODE	TOGGLE	F	I/E AutoRange
IERANGE	IQUANT	11	I/E Range
POSFEEDENABLE	TOGGLE	F	Positive Feedback IR Comp
POSFEEDRESISTANCE	QUANT	0	Positive Feedback Resistance (ohm)
ACHSELECT	IQUANT	0	Ach Select
CABLEID	IQUANT	13	Cable ID
DCCALDATE	LABEL	9/10/2021	DC Calibration Date
ACCALDATE	LABEL	9/10/2021	AC Calibration Date
THERMOSELECT	IQUANT	1	Thermo Select
FRAMEWORKVERSION	QUANT	6.33	Framework Version
INSTRUMENTVERSION	LABEL	3.50	Instrument Version
COMPLIANCEVOLTAGE	IQUANT	0	Compliance Voltage
ZCURVE	TABLE
	Pt	Time	Freq	Zreal	Zimag	Zsig	Zmod	Zphz	Idc	Vdc	IERange
	#	s	Hz	ohm	ohm	V	ohm	°	A	V	#
	0	10	300046.9	1.404944	2.397271	1	2.778628	59.62714	-2.367292E-005	-0.0007779	11
	1	13	238359.4	1.508238	1.775399	1	2.329555	49.65143	-0.0001661	-0.0011151	12
	2	18	189328.1	1.323371	1.507124	1	2.005675	48.71437	-9.452525E-005	-0.0003832	11
	3	20	150421.9	1.299203	1.17969	1	1.754878	42.2398	-0.0001851	-0.000379	11
	4	23	119484.4	1.29016	0.9191722	1	1.584106	35.4679	-3.346302E-006	1.162964E-005	11
	5	25	94921.88	1.280617	0.7015376	1	1.460184	28.71446	-0.0000961	-4.9754E-006	11
	6	28	75421.88	1.278341	0.5214629	1	1.380608	22.19161	-3.541507E-005	8.426946E-005	11
	7	30	59859.37	1.277399	0.3674312	1	1.329193	16.04736	-8.543459E-005	0.0001165	11
	8	33	47578.12	1.279836	0.2365376	1	1.301511	10.47117	-4.796083E-005	0.0001989	11
	9	36	37828.12	1.282635	0.1182767	1	1.288077	5.268566	-8.337184E-005	0.0002251	11
	10	38	30046.88	1.288884	0.0082449	1	1.28891	0.3665103	-7.413846E-005	0.0003047	11
	11	41	23859.38	1.295959	-0.1001569	1	1.299824	-4.419263	-2.450577E-005	0.0003476	11
	12	43	18984.38	1.30495	-0.2102396	1	1.321777	-9.152238	-8.985995E-005	0.0003313	11
	13	45	15046.87	1.317344	-0.3304746	1	1.358164	-14.08284	-8.025135E-005	0.0003537	11
	14	48	11953.13	1.332658	-0.4631088	1	1.410832	-19.16273	-1.879539E-005	0.0003828	11
	15	50	9515.62	1.352231	-0.6146405	1	1.485366	-24.44361	-2.017022E-005	0.0003913	11
	16	52	7546.875	1.376956	-0.7947713	1	1.589864	-29.99331	-9.331267E-005	0.0003499	11
	17	54	5928.309	1.411227	-1.019888	1	1.741187	-35.85547	-3.184107E-005	0.0003336	11
	18	57	4733.456	1.451976	-1.272745	1	1.930833	-41.23654	-6.769762E-005	0.0003663	11
	19	59	3796.875	1.5021	-1.571343	1	2.173804	-46.29062	-2.165444E-005	0.0003782	11
	20	61	2987.132	1.572227	-1.964731	1	2.516359	-51.33233	-6.761159E-005	0.0003587	11
	21	64	2390.625	1.657153	-2.409383	1	2.924258	-55.48014	-2.545629E-005	0.0003862	11
	22	66	1884.191	1.768228	-2.991564	1	3.475066	-59.41388	-8.326666E-005	0.0003432	11
	23	68	1516.544	1.899415	-3.634782	1	4.101148	-62.40994	-2.933188E-005	0.0003831	11
	24	71	1193.986	2.082211	-4.499894	1	4.958291	-65.16887	2.506773E-005	-0.0001398	10
	25	73	946.5144	2.302891	-5.52773	1	5.988248	-67.38305	2.195364E-005	-0.0001347	10
	26	76	751.7689	2.582342	-6.76043	1	7.236843	-69.09419	-1.890812E-005	-0.0001163	10
	27	78	597.4265	2.929059	-8.255468	1	8.759688	-70.4652	7.702432E-006	-0.0001334	10
	28	80	477.4305	3.35196	-10.02299	1	10.56864	-71.50867	-4.297409E-007	-0.0001143	10
	29	82	376.6741	3.894728	-12.28035	1	12.88316	-72.40351	-1.840698E-007	-0.0001223	10
	30	85	298.2954	4.547245	-14.98606	1	15.66076	-73.12054	-6.996647E-007	-0.0001147	10
	31	87	237.7717	5.314701	-18.17563	1	18.93672	-73.70065	-1.564794E-006	-0.000122	10
	32	90	189.0121	6.249391	-22.08624	1	22.95336	-74.20092	-1.636239E-006	-0.0001231	10
	33	92	150.2404	7.373504	-26.83219	1	27.82688	-74.63437	-1.071823E-006	-0.000122	10
	34	94	119.1737	8.728242	-32.65802	1	33.80427	-75.03675	-1.727371E-006	-0.0001252	10
	35	97	95.0169	10.29223	-39.57149	1	40.88805	-75.42084	-2.023708E-006	-0.0001206	10
	36	99	75.60484	12.12998	-47.9947	1	49.50381	-75.81632	-5.687188E-007	-0.0001382	9
	37	102	54.50582	15.32352	-63.46887	1	65.29248	-76.42662	-4.729654E-007	-0.0001478	9
	38	104	45.95588	17.27649	-73.48273	1	75.48635	-76.76951	-7.274942E-008	-0.000141	9
	39	107	37.20238	20.04612	-88.25945	1	90.50733	-77.20366	-3.41638E-007	-0.0001276	9
	40	109	30.04808	23.2878	-106.2562	1	108.7782	-77.63814	-5.496439E-007	-0.0001381	9
	41	112	23.91582	27.45172	-130.067	1	132.9324	-78.08216	-5.424944E-007	-0.0001423	9
	42	114	18.60119	32.85114	-162.353	1	165.6432	-78.56099	-4.412545E-007	-0.0001305	9
	43	116	15.02404	38.46997	-196.4401	1	200.1715	-78.91967	-1.740873E-007	-0.000141	9
	44	118	12.01923	45.72314	-239.9654	1	244.2826	-79.21214	-3.594897E-007	-0.0001376	9
	45	121	9.450605	55.53119	-298.2298	1	303.3558	-79.45217	-2.576771E-007	-0.0001422	9
	46	123	7.512019	67.97989	-367.3371	1	373.5744	-79.51539	-3.781871E-008	-0.0001253	9
	47	126	5.978954	83.43124	-449.8875	1	457.5583	-79.4939	3.268811E-007	-0.0001206	8
	48	129	4.734848	104.9524	-555.6064	1	565.4322	-79.30304	3.875779E-007	-9.320963E-005	8
	49	132	3.75601	133.3631	-684.5925	1	697.4615	-78.97647	2.390836E-007	-0.0001361	8
	50	136	3.004808	169.4082	-835.3259	1	852.3312	-78.53562	3.275235E-007	-0.0001297	8
	51	140	2.372217	222.3416	-1029.43	1	1053.167	-77.81218	2.887635E-007	-5.859922E-005	8
	52	144	1.878005	288.7687	-1264.544	1	1297.096	-77.13662	2.137626E-007	-0.0001407	8
	53	149	1.512097	369.3398	-1520.143	1	1564.368	-76.34381	2.997862E-007	-0.0001232	8
	54	154	1.201923	483.7253	-1851.738	1	1913.876	-75.35991	2.582249E-007	-0.0001456	8
	55	160	0.956633	627.8254	-2260.215	1	2345.791	-74.47617	2.38808E-007	-0.0006656	8
