EXPLAIN
TAG	EISPOT
TITLE	LABEL	Potentiostatic EIS	Test Identifier
DATE	LABEL	10/12/2021	Date
TIME	LABEL	12:16:33	Time
NOTES	NOTES	1	Notes...
	
PSTAT	PSTAT	REF3000-16137	Potentiostat
VDC	POTEN	0.00000E+000	T	DC Voltage (V)
FREQINIT	QUANT	3.00000E+005	Initial Freq. (Hz)
FREQFINAL	QUANT	1.00000E+000	Final Freq. (Hz)
PTSPERDEC	QUANT	1.00000E+001	Points/decade
VAC	QUANT	5.00000E+001	AC Voltage (mV rms)
AREA	QUANT	1.00000E+000	Sample Area (cm^2)
SPEED	SELECTOR	2	Optimize for:
ZGUESS	QUANT	1.00000E+003	Estimated Z (ohms)
EOC	QUANT	0	Open Circuit (V)
SEQUENCER	TOGGLE	TRUE	Run as Sequence
PSTATMODEL	IQUANT	5	Pstat Model
PSTATSECTION	LABEL	REF3000-16137	Pstat Section
PSTATSERIALNO	LABEL	16137	Pstat Serial Number
CTRLMODE	IQUANT	1	Control Mode
IESTAB	IQUANT	0	I/E Stability
CASPEED	IQUANT	1	Control Amp Speed
CONVENTION	IQUANT	1	Current Convention
ICHRANGE	IQUANT	2	Ich Range
ICHRANGEMODE	TOGGLE	F	Ich Auto Range
ICHOFFSETENABLE	TOGGLE	T	Ich Offset Enable
ICHOFFSET	QUANT	0	Ich Offset (V)
ICHFILTER	IQUANT	3	Ich Filter
VCHRANGE	IQUANT	2	Vch Range
VCHRANGEMODE	TOGGLE	F	Vch Auto Range
VCHOFFSETENABLE	TOGGLE	T	Vch Offset Enable
VCHOFFSET	QUANT	0	Vch Offset (V)
VCHFILTER	IQUANT	3	Vch Filter
ACHRANGE	IQUANT	2	Ach Range
ACHOFFSETENABLE	TOGGLE	F	Ach Offset Enable
ACHOFFSET	QUANT	0	Ach Offset (V)
ACHFILTER	IQUANT	3	Ach Filter
IERANGELOWERLIMIT	IQUANT	2	I/E Range Lower Limit
IERANGEMODE	TOGGLE	F	I/E AutoRange
IERANGE	IQUANT	11	I/E Range
POSFEEDENABLE	TOGGLE	F	Positive Feedback IR Comp
POSFEEDRESISTANCE	QUANT	0	Positive Feedback Resistance (ohm)
ACHSELECT	IQUANT	0	Ach Select
CABLEID	IQUANT	13	Cable ID
DCCALDATE	LABEL	9/10/2021	DC Calibration Date
ACCALDATE	LABEL	9/10/2021	AC Calibration Date
THERMOSELECT	IQUANT	1	Thermo Select
FRAMEWORKVERSION	QUANT	6.33	Framework Version
INSTRUMENTVERSION	LABEL	3.50	Instrument Version
COMPLIANCEVOLTAGE	IQUANT	0	Compliance Voltage
ZCURVE	TABLE
	Pt	Time	Freq	Zreal	Zimag	Zsig	Zmod	Zphz	Idc	Vdc	IERange
	#	s	Hz	ohm	ohm	V	ohm	°	A	V	#
	0	10	300046.9	1.868782	2.381495	1	3.027188	51.87838	-7.517596E-005	-0.0007185	11
	1	13	238359.4	1.82897	1.900035	1	2.637284	46.09178	-8.911163E-005	-0.0006481	11
	2	16	189328.1	1.895874	1.363643	1	2.33535	35.7263	-0.0001774	-0.0008521	12
	3	20	150421.9	1.787434	1.170041	1	2.136332	33.20846	-3.539771E-005	-3.692066E-005	11
	4	23	119484.4	1.782461	0.9046018	1	1.998867	26.90787	3.592526E-005	-5.850368E-005	11
	5	25	94921.88	1.778254	0.6851749	1	1.90569	21.07205	-2.747046E-005	0.0001304	11
	6	28	75421.88	1.778834	0.503127	1	1.848618	15.79307	-7.273226E-005	0.0001599	11
	7	30	59859.37	1.780429	0.3462299	1	1.813782	11.00463	-5.92372E-005	0.0001889	11
	8	33	47578.12	1.786707	0.2115212	1	1.799184	6.751598	-2.122877E-005	0.000299	11
	9	35	37828.12	1.794645	0.0886836	1	1.796835	2.829008	-4.898429E-005	0.0003128	11
	10	38	30046.88	1.803563	-0.0283073	1	1.803785	-0.899194	-6.008486E-005	0.000295	11
	11	40	23859.38	1.815942	-0.1443299	1	1.821668	-4.54428	-4.364489E-005	0.0002854	11
	12	43	18984.38	1.830357	-0.2642507	1	1.849333	-8.215096	-4.82929E-005	0.0003624	11
	13	45	15046.87	1.848055	-0.396554	1	1.890123	-12.11083	-4.421502E-005	0.0003764	11
	14	47	11953.13	1.868748	-0.5440766	1	1.946339	-16.23266	-7.325953E-005	0.0003605	11
	15	50	9515.62	1.894275	-0.7129389	1	2.023996	-20.62458	-7.174403E-005	0.0003647	11
	16	52	7546.875	1.924399	-0.9152026	1	2.130941	-25.43475	-2.806005E-005	0.0003897	11
	17	54	5928.309	1.962819	-1.170347	1	2.285251	-30.80587	-6.399474E-005	0.0003634	11
	18	57	4733.456	2.006736	-1.458657	1	2.480861	-36.01267	-4.734769E-005	0.0003732	11
	19	59	3796.875	2.060164	-1.799802	1	2.73561	-41.14113	-2.935591E-005	0.0003672	11
	20	61	2987.132	2.132931	-2.256247	1	3.104843	-46.60933	-6.617328E-005	0.0003711	11
	21	64	2390.625	2.218024	-2.772437	1	3.550498	-51.33926	-1.675723E-005	0.0003711	11
	22	66	1884.191	2.334162	-3.457039	1	4.171263	-55.97312	-2.394291E-005	-0.0001218	10
	23	68	1516.544	2.466445	-4.214891	1	4.883509	-59.66494	-1.216334E-005	-0.0001712	10
	24	71	1193.986	2.649013	-5.236172	1	5.868114	-63.16486	7.896138E-006	-0.000133	10
	25	73	946.5144	2.874544	-6.458124	1	7.068972	-66.00591	-2.760948E-005	-0.0001258	10
	26	75	751.7689	3.162943	-7.939912	1	8.54672	-68.27964	1.521584E-005	-0.0001538	10
	27	78	597.4265	3.524071	-9.75307	1	10.37022	-70.13373	1.97218E-005	-0.0001437	10
	28	80	477.4305	3.96936	-11.90963	1	12.55369	-71.56729	-7.951477E-007	-0.0001161	10
	29	82	376.6741	4.563499	-14.67976	1	15.37273	-72.73109	1.431612E-007	-0.0001226	10
	30	85	298.2954	5.300211	-18.01262	1	18.77623	-73.60349	-8.359472E-007	-0.0001115	10
	31	87	237.7717	6.193186	-21.94718	1	22.80426	-74.24168	-8.835022E-007	-0.0001168	10
	32	90	189.0121	7.31024	-26.77059	1	27.75075	-74.72662	-1.245647E-006	-0.0001146	10
	33	92	150.2404	8.681719	-32.62878	1	33.76403	-75.10021	-1.471475E-006	-0.0001144	10
	34	94	119.1737	10.37096	-39.79875	1	41.12782	-75.39439	-1.356583E-006	-0.0001223	10
	35	97	95.0169	12.34959	-48.23958	1	49.79527	-75.64038	6.648476E-008	-0.0001315	9
	36	99	75.60484	14.77213	-58.62278	1	60.45533	-75.8567	-3.829146E-008	-0.0001338	9
	37	102	54.50582	19.087	-77.44261	1	79.76009	-76.15447	-1.300304E-007	-0.0001373	9
	38	104	45.95588	21.79757	-89.5473	1	92.1621	-76.31915	2.344891E-007	-0.0001261	9
	39	107	37.20238	25.66619	-107.2104	1	110.2398	-76.53677	1.508861E-007	-0.000132	9
	40	109	30.04808	30.11641	-128.5559	1	132.0364	-76.81525	-8.561807E-008	-0.0001314	9
	41	111	23.91582	35.70162	-156.3158	1	160.341	-77.13465	4.808065E-008	-0.0001391	9
	42	114	18.60119	42.78283	-194.154	1	198.8118	-77.57317	2.04398E-007	-0.000139	9
	43	116	15.02404	49.75998	-233.7064	1	238.9451	-77.98026	1.803113E-007	-0.0001344	9
	44	118	12.01923	58.16922	-284.1846	1	290.0768	-78.43202	8.55758E-008	-0.0001346	9
	45	121	9.450605	68.72884	-351.2935	1	357.9536	-78.93019	1.346226E-008	-0.0001161	9
	46	123	7.512019	80.23896	-429.3162	1	436.7502	-79.41359	6.391185E-007	-0.0001054	8
	47	126	5.978954	94.24765	-526.98	1	535.3416	-79.86015	5.921686E-007	-0.0001184	8
	48	129	4.734848	111.2367	-651.0328	1	660.4675	-80.30396	6.942006E-007	-9.181175E-005	8
	49	132	3.75601	132.6746	-804.1658	1	815.037	-80.6315	6.207503E-007	-0.0001254	8
	50	136	3.004808	158.0408	-986.653	1	999.231	-80.89974	6.169765E-007	-8.197829E-005	8
	51	140	2.372217	191.1881	-1226.407	1	1241.22	-81.13932	5.803047E-007	-5.713306E-005	8
	52	144	1.878005	236.9454	-1521.81	1	1540.145	-81.15012	5.979295E-007	-0.000141	8
	53	149	1.512097	291.9742	-1859.162	1	1881.949	-81.07482	6.128495E-007	-1.91081E-005	8
	54	154	1.201923	366.7784	-2299.852	1	2328.915	-80.93883	6.107217E-007	-0.0001445	8
	55	160	0.956633	466.3314	-2839.343	1	2877.383	-80.67306	5.800115E-007	-0.000668	8
