EXPLAIN
TAG	EISPOT
TITLE	LABEL	Potentiostatic EIS	Test Identifier
DATE	LABEL	10/12/2021	Date
TIME	LABEL	12:25:10	Time
NOTES	NOTES	1	Notes...
	
PSTAT	PSTAT	REF3000-16137	Potentiostat
VDC	POTEN	0.00000E+000	T	DC Voltage (V)
FREQINIT	QUANT	3.00000E+005	Initial Freq. (Hz)
FREQFINAL	QUANT	1.00000E+000	Final Freq. (Hz)
PTSPERDEC	QUANT	1.00000E+001	Points/decade
VAC	QUANT	5.00000E+001	AC Voltage (mV rms)
AREA	QUANT	1.00000E+000	Sample Area (cm^2)
SPEED	SELECTOR	2	Optimize for:
ZGUESS	QUANT	1.00000E+003	Estimated Z (ohms)
EOC	QUANT	0	Open Circuit (V)
SEQUENCER	TOGGLE	TRUE	Run as Sequence
PSTATMODEL	IQUANT	5	Pstat Model
PSTATSECTION	LABEL	REF3000-16137	Pstat Section
PSTATSERIALNO	LABEL	16137	Pstat Serial Number
CTRLMODE	IQUANT	1	Control Mode
IESTAB	IQUANT	0	I/E Stability
CASPEED	IQUANT	1	Control Amp Speed
CONVENTION	IQUANT	1	Current Convention
ICHRANGE	IQUANT	2	Ich Range
ICHRANGEMODE	TOGGLE	F	Ich Auto Range
ICHOFFSETENABLE	TOGGLE	T	Ich Offset Enable
ICHOFFSET	QUANT	0	Ich Offset (V)
ICHFILTER	IQUANT	3	Ich Filter
VCHRANGE	IQUANT	2	Vch Range
VCHRANGEMODE	TOGGLE	F	Vch Auto Range
VCHOFFSETENABLE	TOGGLE	T	Vch Offset Enable
VCHOFFSET	QUANT	0	Vch Offset (V)
VCHFILTER	IQUANT	3	Vch Filter
ACHRANGE	IQUANT	2	Ach Range
ACHOFFSETENABLE	TOGGLE	F	Ach Offset Enable
ACHOFFSET	QUANT	0	Ach Offset (V)
ACHFILTER	IQUANT	3	Ach Filter
IERANGELOWERLIMIT	IQUANT	2	I/E Range Lower Limit
IERANGEMODE	TOGGLE	F	I/E AutoRange
IERANGE	IQUANT	11	I/E Range
POSFEEDENABLE	TOGGLE	F	Positive Feedback IR Comp
POSFEEDRESISTANCE	QUANT	0	Positive Feedback Resistance (ohm)
ACHSELECT	IQUANT	0	Ach Select
CABLEID	IQUANT	13	Cable ID
DCCALDATE	LABEL	9/10/2021	DC Calibration Date
ACCALDATE	LABEL	9/10/2021	AC Calibration Date
THERMOSELECT	IQUANT	1	Thermo Select
FRAMEWORKVERSION	QUANT	6.33	Framework Version
INSTRUMENTVERSION	LABEL	3.50	Instrument Version
COMPLIANCEVOLTAGE	IQUANT	0	Compliance Voltage
ZCURVE	TABLE
	Pt	Time	Freq	Zreal	Zimag	Zsig	Zmod	Zphz	Idc	Vdc	IERange
	#	s	Hz	ohm	ohm	V	ohm	°	A	V	#
	0	10	300046.9	2.915836	2.411171	1	3.783629	39.58812	-5.193384E-005	-0.0009414	10
	1	14	238359.4	2.890199	1.901435	1	3.459582	33.34054	-0.0000976	-0.0013233	10
	2	17	189328.1	2.968376	1.267311	1	3.22759	23.11946	-0.0002224	-0.0010698	12
	3	20	150421.9	2.873408	1.144199	1	3.09284	21.71258	-2.713713E-005	2.713113E-005	11
	4	23	119484.4	2.873092	0.8753154	1	3.003471	16.94386	-3.278935E-005	0.0000953	11
	5	25	94921.88	2.876835	0.654586	1	2.950366	12.81866	-3.92551E-005	0.0002404	11
	6	28	75421.88	2.883432	0.4710384	1	2.921653	9.277905	-8.250825E-005	0.0002525	11
	7	30	59859.37	2.892065	0.311623	1	2.908805	6.149952	-2.930981E-005	0.0003073	11
	8	33	47578.12	2.903779	0.1726405	1	2.908906	3.402442	-7.950572E-005	0.0002782	11
	9	36	37828.12	2.919603	0.0448825	1	2.919948	0.880728	-4.318721E-005	0.0003457	11
	10	38	30046.88	2.937367	-0.0783193	1	2.938411	-1.527321	-8.697775E-005	0.0003182	11
	11	41	23859.38	2.958498	-0.2021771	1	2.965399	-3.909385	-7.797932E-005	0.0003531	11
	12	43	18984.38	2.980523	-0.331235	1	2.998872	-6.341442	-2.232991E-005	0.0003747	11
	13	45	15046.87	3.008096	-0.4746867	1	3.045319	-8.967501	-3.194405E-005	0.0003581	11
	14	48	11953.13	3.04128	-0.6356047	1	3.106988	-11.80448	-7.912617E-005	0.0003398	11
	15	50	9515.62	3.078604	-0.8196555	1	3.18585	-14.90873	-5.308535E-005	0.0003709	11
	16	52	7546.875	3.123524	-1.039618	1	3.291991	-18.40924	-6.257914E-005	0.0003719	11
	17	54	5928.309	3.177513	-1.314514	1	3.438682	-22.47453	-4.851862E-005	0.0003771	11
	18	57	4733.456	3.237992	-1.624693	1	3.622736	-26.64564	-6.230274E-005	0.0003717	11
	19	59	3796.875	3.309757	-1.992119	1	3.863034	-31.04343	2.33805E-005	-0.0001436	10
	20	61	2987.132	3.398201	-2.482505	1	4.208396	-36.14943	-1.373984E-005	-0.0001673	10
	21	64	2390.625	3.495855	-3.041239	1	4.633588	-41.02183	-2.035015E-005	-0.0001777	10
	22	66	1884.191	3.623214	-3.773033	1	5.23101	-46.16043	2.340735E-005	-0.0001412	10
	23	68	1516.544	3.766389	-4.593975	1	5.940564	-50.65324	-1.470351E-005	-0.0001294	10
	24	71	1193.986	3.958318	-5.704886	1	6.943631	-55.24527	6.754282E-006	-0.0001346	10
	25	73	946.5144	4.203321	-7.033955	1	8.194171	-59.13848	2.2113E-005	-0.0001433	10
	26	76	751.7689	4.493975	-8.664972	1	9.76102	-62.58708	-1.569272E-006	-0.0001421	10
	27	78	597.4265	4.868662	-10.65966	1	11.71888	-65.45206	-1.432702E-005	-0.0001662	10
	28	80	477.4305	5.330584	-13.04087	1	14.08827	-67.76723	-1.049448E-006	-0.0001168	10
	29	83	376.6741	5.948288	-16.11376	1	17.17659	-69.7387	-8.194417E-007	-0.0001195	10
	30	85	298.2954	6.722019	-19.82719	1	20.93569	-71.27179	-2.118614E-007	-0.0001132	10
	31	87	237.7717	7.675545	-24.22849	1	25.41523	-72.42189	-8.198916E-007	-0.0001203	10
	32	90	189.0121	8.889274	-29.64639	1	30.95041	-73.30899	-1.6099E-006	-0.0001206	10
	33	92	150.2404	10.40919	-36.22042	1	37.68647	-73.96617	-1.763096E-006	-0.0001273	10
	34	95	119.1737	12.30563	-44.22301	1	45.90319	-74.45007	2.341122E-007	-0.0001311	9
	35	97	95.0169	14.60647	-53.74522	1	55.69468	-74.79581	1.710566E-007	-0.0001308	9
	36	100	75.60484	17.44744	-65.36712	1	67.65555	-75.05531	1.027097E-007	-0.0001317	9
	37	102	54.50582	22.59322	-86.35077	1	89.25755	-75.33755	9.856288E-008	-0.0001345	9
	38	105	45.95588	25.90505	-99.8362	1	103.1423	-75.45394	6.56946E-007	-0.0001708	9
	39	107	37.20238	30.64182	-119.3771	1	123.247	-75.60406	2.326194E-007	-0.000138	9
	40	109	30.04808	36.32138	-143.0271	1	147.567	-75.75108	1.418378E-007	-0.0001315	9
	41	112	23.91582	43.45488	-173.4027	1	178.7647	-75.93136	1.901013E-007	-0.0001364	9
	42	114	18.60119	52.69258	-214.5078	1	220.8848	-76.19889	3.653234E-007	-0.0001353	9
	43	116	15.02404	61.88742	-257.1011	1	264.4448	-76.46568	2.950145E-007	-0.0001238	9
	44	119	12.01923	72.87241	-311.0775	1	319.499	-76.81574	1.193762E-007	-0.0001303	9
	45	121	9.450605	86.56969	-382.5816	1	392.2537	-77.24995	2.549561E-007	-0.0001459	9
	46	124	7.512019	101.2218	-464.685	1	475.5818	-77.71129	5.773461E-007	-0.000135	8
	47	127	5.978954	118.5167	-567.3624	1	579.6087	-78.2011	6.391051E-007	-0.0001172	8
	48	130	4.734848	138.9311	-697.4407	1	711.1437	-78.73407	5.85743E-007	-0.0001467	8
	49	133	3.75601	163.6942	-857.1489	1	872.6397	-79.18812	6.372303E-007	-0.0001035	8
	50	136	3.004808	192.0608	-1047.498	1	1064.96	-79.61012	6.492971E-007	-0.0001562	8
	51	140	2.372217	227.7097	-1298.75	1	1318.561	-80.05542	6.143429E-007	-0.0001926	8
	52	144	1.878005	274.5412	-1607.16	1	1630.441	-80.30608	6.016768E-007	-0.0001107	8
	53	149	1.512097	330.4078	-1959.126	1	1986.792	-80.42712	5.824903E-007	-0.0002196	8
	54	154	1.201923	402.4445	-2423.055	1	2456.249	-80.56985	5.825234E-007	-0.0000977	8
	55	161	0.956633	496.1728	-2989.423	1	3030.319	-80.57618	5.806963E-007	-0.0006666	8
