EXPLAIN
TAG	EISPOT
TITLE	LABEL	Potentiostatic EIS	Test Identifier
DATE	LABEL	10/12/2021	Date
TIME	LABEL	11:39:44	Time
NOTES	NOTES	1	Notes...
	
PSTAT	PSTAT	REF3000-16137	Potentiostat
VDC	POTEN	0.00000E+000	T	DC Voltage (V)
FREQINIT	QUANT	3.00000E+005	Initial Freq. (Hz)
FREQFINAL	QUANT	1.00000E+000	Final Freq. (Hz)
PTSPERDEC	QUANT	1.00000E+001	Points/decade
VAC	QUANT	5.00000E+001	AC Voltage (mV rms)
AREA	QUANT	1.00000E+000	Sample Area (cm^2)
SPEED	SELECTOR	2	Optimize for:
ZGUESS	QUANT	1.00000E+003	Estimated Z (ohms)
EOC	QUANT	0	Open Circuit (V)
SEQUENCER	TOGGLE	TRUE	Run as Sequence
PSTATMODEL	IQUANT	5	Pstat Model
PSTATSECTION	LABEL	REF3000-16137	Pstat Section
PSTATSERIALNO	LABEL	16137	Pstat Serial Number
CTRLMODE	IQUANT	1	Control Mode
IESTAB	IQUANT	0	I/E Stability
CASPEED	IQUANT	1	Control Amp Speed
CONVENTION	IQUANT	1	Current Convention
ICHRANGE	IQUANT	2	Ich Range
ICHRANGEMODE	TOGGLE	F	Ich Auto Range
ICHOFFSETENABLE	TOGGLE	T	Ich Offset Enable
ICHOFFSET	QUANT	0	Ich Offset (V)
ICHFILTER	IQUANT	3	Ich Filter
VCHRANGE	IQUANT	2	Vch Range
VCHRANGEMODE	TOGGLE	F	Vch Auto Range
VCHOFFSETENABLE	TOGGLE	T	Vch Offset Enable
VCHOFFSET	QUANT	0	Vch Offset (V)
VCHFILTER	IQUANT	3	Vch Filter
ACHRANGE	IQUANT	2	Ach Range
ACHOFFSETENABLE	TOGGLE	F	Ach Offset Enable
ACHOFFSET	QUANT	0	Ach Offset (V)
ACHFILTER	IQUANT	3	Ach Filter
IERANGELOWERLIMIT	IQUANT	2	I/E Range Lower Limit
IERANGEMODE	TOGGLE	F	I/E AutoRange
IERANGE	IQUANT	11	I/E Range
POSFEEDENABLE	TOGGLE	F	Positive Feedback IR Comp
POSFEEDRESISTANCE	QUANT	0	Positive Feedback Resistance (ohm)
ACHSELECT	IQUANT	0	Ach Select
CABLEID	IQUANT	13	Cable ID
DCCALDATE	LABEL	9/10/2021	DC Calibration Date
ACCALDATE	LABEL	9/10/2021	AC Calibration Date
THERMOSELECT	IQUANT	1	Thermo Select
FRAMEWORKVERSION	QUANT	6.33	Framework Version
INSTRUMENTVERSION	LABEL	3.50	Instrument Version
COMPLIANCEVOLTAGE	IQUANT	0	Compliance Voltage
ZCURVE	TABLE
	Pt	Time	Freq	Zreal	Zimag	Zsig	Zmod	Zphz	Idc	Vdc	IERange
	#	s	Hz	ohm	ohm	V	ohm	°	A	V	#
	0	10	300046.9	1.297071	2.402094	1	2.729918	61.63206	-7.309584E-005	-0.0008211	11
	1	13	238359.4	1.39784	1.788037	1	2.269588	51.98265	-0.0001276	-0.0011268	12
	2	17	189328.1	1.222556	1.508165	1	1.941444	50.97092	3.401558E-005	-0.0004527	11
	3	20	150421.9	1.211596	1.190277	1	1.698447	44.49144	-3.463736E-005	-0.0001783	11
	4	22	119484.4	1.192051	0.9260105	1	1.509464	37.84081	-0.0000966	-0.0001207	11
	5	25	94921.88	1.186442	0.7069095	1	1.381074	30.78747	-2.596285E-005	1.079385E-006	11
	6	27	75421.88	1.181221	0.5289733	1	1.294255	24.12374	-4.689849E-005	4.839858E-005	11
	7	30	59859.37	1.181257	0.3767788	1	1.239891	17.69082	-3.500133E-005	0.0001304	11
	8	32	47578.12	1.181904	0.2473375	1	1.207507	11.81973	-6.323289E-005	0.0001857	11
	9	35	37828.12	1.184878	0.1318478	1	1.192191	6.349493	-0.0001013	0.0002107	11
	10	37	30046.88	1.189767	0.0243171	1	1.190015	1.170878	-4.175838E-005	0.0002669	11
	11	40	23859.38	1.196786	-0.0798299	1	1.199445	-3.816181	-7.80249E-005	0.000308	11
	12	42	18984.38	1.205997	-0.1851683	1	1.220129	-8.729004	-6.134649E-005	0.0003341	11
	13	45	15046.87	1.217244	-0.2994101	1	1.253527	-13.81892	-0.0000999	0.0003299	11
	14	47	11953.13	1.232552	-0.4249416	1	1.303749	-19.02243	-2.424001E-005	0.0003746	11
	15	49	9515.62	1.251399	-0.5666627	1	1.373719	-24.36214	-6.536958E-005	0.0003618	11
	16	52	7546.875	1.276974	-0.7348643	1	1.473325	-29.91928	-3.202867E-005	0.0003348	11
	17	54	5928.309	1.310201	-0.943523	1	1.614578	-35.75903	-2.731023E-005	0.0003939	11
	18	56	4733.456	1.350735	-1.177458	1	1.791897	-41.0792	-8.342289E-005	0.0003581	11
	19	58	3796.875	1.400686	-1.450815	1	2.016627	-46.00716	-2.288103E-005	0.0003583	11
	20	61	2987.132	1.46999	-1.813245	1	2.334251	-50.96848	-4.387138E-005	0.0003343	11
	21	63	2390.625	1.553196	-2.219946	1	2.70935	-55.02125	-2.726325E-005	0.000372	11
	22	65	1884.191	1.663712	-2.750763	1	3.214752	-58.83368	-1.883108E-005	0.0003748	11
	23	68	1516.544	1.792054	-3.335505	1	3.78643	-61.75237	-2.591427E-005	0.0003778	11
	24	70	1193.986	1.97001	-4.119429	1	4.56625	-64.44175	-1.318447E-005	-0.0001466	10
	25	73	946.5144	2.187201	-5.041412	1	5.495424	-66.54653	2.09514E-006	-0.000146	10
	26	75	751.7689	2.452104	-6.154068	1	6.624604	-68.27506	-1.391115E-005	-0.0001487	10
	27	77	597.4265	2.775379	-7.494565	1	7.991948	-69.67945	-1.235686E-005	-0.0001296	10
	28	79	477.4305	3.168854	-9.079954	1	9.61703	-70.76129	-1.782141E-006	-0.0001247	10
	29	82	376.6741	3.668499	-11.10411	1	11.6944	-71.71783	-2.346219E-006	-0.0001253	10
	30	84	298.2954	4.26492	-13.53121	1	14.18743	-72.50561	-2.105794E-006	-0.0001287	10
	31	86	237.7717	4.963279	-16.39136	1	17.12632	-73.15377	-2.866592E-006	-0.0001309	10
	32	89	189.0121	5.81109	-19.8985	1	20.72967	-73.72027	-2.699619E-006	-0.0001278	10
	33	91	150.2404	6.821456	-24.15437	1	25.09912	-74.22974	-1.931128E-006	-0.0001373	10
	34	94	119.1737	8.028656	-29.38125	1	30.45845	-74.71659	-3.080399E-006	-0.0001242	10
	35	96	95.0169	9.413509	-35.59925	1	36.82283	-75.18829	-3.082E-006	-0.0001264	10
	36	99	75.60484	11.03446	-43.20001	1	44.58699	-75.67146	-1.7619E-006	-0.0001441	9
	37	101	54.50582	13.87604	-57.2004	1	58.85941	-76.36423	-1.670039E-006	-0.0001468	9
	38	104	45.95588	15.66533	-66.33288	1	68.15756	-76.71236	-1.326241E-006	-0.0001361	9
	39	106	37.20238	18.22513	-79.75645	1	81.81227	-77.12836	-1.357373E-006	-0.0001452	9
	40	108	30.04808	21.32746	-96.2473	1	98.582	-77.50571	-1.763986E-006	-0.0001446	9
	41	111	23.91582	25.33215	-117.586	1	120.2837	-77.84229	-1.921445E-006	-0.0001392	9
	42	113	18.60119	30.9884	-147.1024	1	150.331	-78.10408	-1.235719E-006	-0.0001424	9
	43	115	15.02404	37.15191	-178.0021	1	181.8379	-78.21069	-1.426329E-006	-0.0001496	9
	44	118	12.01923	45.37455	-217.1255	1	221.816	-78.19629	-1.503016E-006	-0.0001417	9
	45	120	9.450605	56.96524	-268.8049	1	274.7746	-78.03487	-1.484723E-006	-0.0001502	9
	46	123	7.512019	71.44475	-329.5059	1	337.1624	-77.76627	-1.359789E-006	-0.0001584	9
	47	125	5.978954	90.52312	-402.512	1	412.5656	-77.32532	-1.35289E-006	-0.0001352	9
	48	129	4.734848	115.1808	-491.1208	1	504.4465	-76.80117	-9.947431E-007	-0.0001492	8
	49	132	3.75601	147.8466	-599.1699	1	617.1411	-76.13902	-8.110352E-007	-0.0001107	8
	50	135	3.004808	188.0181	-723.3967	1	747.4313	-75.43061	-9.267446E-007	-0.0001074	8
	51	139	2.372217	242.5282	-880.0038	1	912.8125	-74.59184	-9.695671E-007	-0.0001203	8
	52	143	1.878005	313.29	-1068.918	1	1113.883	-73.66462	-8.995522E-007	-0.0001386	8
	53	148	1.512097	393.4507	-1276.097	1	1335.375	-72.86424	-9.413786E-007	-4.242016E-005	8
	54	153	1.201923	507.5915	-1537.437	1	1619.062	-71.72913	-8.906512E-007	-0.0001313	8
	55	159	0.956633	651.9001	-1843.968	1	1955.81	-70.52991	-1.022772E-006	-0.0006686	8
