EXPLAIN
TAG	EISPOT
TITLE	LABEL	Potentiostatic EIS	Test Identifier
DATE	LABEL	10/12/2021	Date
TIME	LABEL	11:51:02	Time
NOTES	NOTES	1	Notes...
	
PSTAT	PSTAT	REF3000-16137	Potentiostat
VDC	POTEN	0.00000E+000	T	DC Voltage (V)
FREQINIT	QUANT	3.00000E+005	Initial Freq. (Hz)
FREQFINAL	QUANT	1.00000E+000	Final Freq. (Hz)
PTSPERDEC	QUANT	1.00000E+001	Points/decade
VAC	QUANT	5.00000E+001	AC Voltage (mV rms)
AREA	QUANT	1.00000E+000	Sample Area (cm^2)
SPEED	SELECTOR	2	Optimize for:
ZGUESS	QUANT	1.00000E+003	Estimated Z (ohms)
EOC	QUANT	0	Open Circuit (V)
SEQUENCER	TOGGLE	TRUE	Run as Sequence
PSTATMODEL	IQUANT	5	Pstat Model
PSTATSECTION	LABEL	REF3000-16137	Pstat Section
PSTATSERIALNO	LABEL	16137	Pstat Serial Number
CTRLMODE	IQUANT	1	Control Mode
IESTAB	IQUANT	0	I/E Stability
CASPEED	IQUANT	1	Control Amp Speed
CONVENTION	IQUANT	1	Current Convention
ICHRANGE	IQUANT	2	Ich Range
ICHRANGEMODE	TOGGLE	F	Ich Auto Range
ICHOFFSETENABLE	TOGGLE	T	Ich Offset Enable
ICHOFFSET	QUANT	0	Ich Offset (V)
ICHFILTER	IQUANT	3	Ich Filter
VCHRANGE	IQUANT	2	Vch Range
VCHRANGEMODE	TOGGLE	F	Vch Auto Range
VCHOFFSETENABLE	TOGGLE	T	Vch Offset Enable
VCHOFFSET	QUANT	0	Vch Offset (V)
VCHFILTER	IQUANT	3	Vch Filter
ACHRANGE	IQUANT	2	Ach Range
ACHOFFSETENABLE	TOGGLE	F	Ach Offset Enable
ACHOFFSET	QUANT	0	Ach Offset (V)
ACHFILTER	IQUANT	3	Ach Filter
IERANGELOWERLIMIT	IQUANT	2	I/E Range Lower Limit
IERANGEMODE	TOGGLE	F	I/E AutoRange
IERANGE	IQUANT	11	I/E Range
POSFEEDENABLE	TOGGLE	F	Positive Feedback IR Comp
POSFEEDRESISTANCE	QUANT	0	Positive Feedback Resistance (ohm)
ACHSELECT	IQUANT	0	Ach Select
CABLEID	IQUANT	13	Cable ID
DCCALDATE	LABEL	9/10/2021	DC Calibration Date
ACCALDATE	LABEL	9/10/2021	AC Calibration Date
THERMOSELECT	IQUANT	1	Thermo Select
FRAMEWORKVERSION	QUANT	6.33	Framework Version
INSTRUMENTVERSION	LABEL	3.50	Instrument Version
COMPLIANCEVOLTAGE	IQUANT	0	Compliance Voltage
ZCURVE	TABLE
	Pt	Time	Freq	Zreal	Zimag	Zsig	Zmod	Zphz	Idc	Vdc	IERange
	#	s	Hz	ohm	ohm	V	ohm	°	A	V	#
	0	10	300046.9	1.385427	2.397964	1	2.769412	59.98277	-4.015642E-005	-0.000773	11
	1	13	238359.4	1.476168	1.775814	1	2.30924	50.26452	-0.0001522	-0.0011347	12
	2	17	189328.1	1.290375	1.509718	1	1.986031	49.47907	-7.315563E-005	-0.000442	11
	3	20	150421.9	1.281344	1.180737	1	1.742407	42.66005	3.525001E-005	-0.0003262	11
	4	22	119484.4	1.264494	0.9203616	1	1.563973	36.049	-6.862867E-006	-8.127895E-006	11
	5	25	94921.88	1.255789	0.7035546	1	1.439443	29.25969	-3.343082E-005	2.125475E-005	11
	6	28	75421.88	1.251733	0.5220267	1	1.356225	22.63824	-8.09854E-005	1.958285E-005	11
	7	30	59859.37	1.251606	0.3699677	1	1.305141	16.46738	-7.656798E-005	0.000121	11
	8	33	47578.12	1.253274	0.2386006	1	1.275784	10.77908	-9.33362E-005	0.0001786	11
	9	35	37828.12	1.256838	0.1212408	1	1.262673	5.509983	-0.0000974	0.0002232	11
	10	38	30046.88	1.262187	0.0114866	1	1.262239	0.5214109	-9.44377E-005	0.0002589	11
	11	40	23859.38	1.269871	-0.0958078	1	1.27348	-4.314614	-3.296616E-005	0.0003309	11
	12	43	18984.38	1.278761	-0.2049159	1	1.295076	-9.103997	-0.0000983	0.0003059	11
	13	45	15046.87	1.290829	-0.3238006	1	1.330822	-14.08191	-8.304782E-005	0.0003253	11
	14	47	11953.13	1.306499	-0.4549611	1	1.383448	-19.19961	-2.020935E-005	0.0003806	11
	15	49	9515.62	1.325583	-0.6040272	1	1.456715	-24.49728	-2.423243E-005	0.000379	11
	16	52	7546.875	1.351486	-0.7823415	1	1.561593	-30.06548	-7.696252E-005	0.0003779	11
	17	54	5928.309	1.384966	-1.003699	1	1.710422	-35.93122	-5.063636E-005	0.0003819	11
	18	56	4733.456	1.425431	-1.252755	1	1.897696	-41.31097	-8.403226E-005	0.0003584	11
	19	59	3796.875	1.475645	-1.546272	1	2.137401	-46.33885	-2.405268E-005	0.0003946	11
	20	61	2987.132	1.545878	-1.932536	1	2.474759	-51.34292	-3.034114E-005	0.0003851	11
	21	63	2390.625	1.629805	-2.369287	1	2.875723	-55.47636	-1.86943E-005	0.0003774	11
	22	66	1884.191	1.741388	-2.941421	1	3.418244	-59.37351	-8.136522E-005	0.0003432	11
	23	68	1516.544	1.871462	-3.57096	1	4.03164	-62.34195	-1.660009E-005	0.0003803	11
	24	70	1193.986	2.054535	-4.420548	1	4.874665	-65.07243	-1.249481E-005	-0.0001741	10
	25	73	946.5144	2.274171	-5.424063	1	5.881523	-67.25294	6.616249E-007	-0.000127	10
	26	75	751.7689	2.553681	-6.63159	1	7.106285	-68.93939	-1.221336E-005	-0.0001411	10
	27	77	597.4265	2.896763	-8.089507	1	8.592518	-70.29811	7.559506E-006	-0.0001525	10
	28	80	477.4305	3.311065	-9.82052	1	10.36367	-71.36806	-1.204003E-006	-0.0001202	10
	29	82	376.6741	3.84498	-12.02667	1	12.62635	-72.27069	-5.651056E-007	-0.0001222	10
	30	84	298.2954	4.484637	-14.6711	1	15.34122	-73.00274	-8.038172E-007	-0.0001308	10
	31	87	237.7717	5.236622	-17.78877	1	18.54353	-73.59673	-1.41693E-006	-0.0001261	10
	32	89	189.0121	6.152862	-21.61137	1	22.47018	-74.10809	-1.295436E-006	-0.0001253	10
	33	92	150.2404	7.249508	-26.25028	1	27.23293	-74.56151	-1.895983E-006	-0.000123	10
	34	94	119.1737	8.570364	-31.94769	1	33.07728	-74.98326	-2.404754E-006	-0.000124	10
	35	96	95.0169	10.09521	-38.70787	1	40.00266	-75.38259	-1.975216E-006	-0.0001237	10
	36	99	75.60484	11.88021	-46.94969	1	48.42946	-75.79987	-6.842581E-007	-0.0001481	9
	37	101	54.50582	14.98058	-62.09661	1	63.87806	-76.43677	-5.996176E-007	-0.0001431	9
	38	104	45.95588	16.90027	-71.95244	1	73.91057	-76.7819	-2.147689E-007	-0.0001424	9
	39	106	37.20238	19.60602	-86.38761	1	88.58451	-77.2131	-5.163276E-007	-0.0001279	9
	40	109	30.04808	22.77695	-104.056	1	106.5196	-77.65318	-5.716416E-007	-0.0001396	9
	41	111	23.91582	26.8784	-127.2606	1	130.0681	-78.07397	-6.212391E-007	-0.0001415	9
	42	114	18.60119	32.29613	-159.1097	1	162.3544	-78.52597	-4.100047E-007	-0.0001484	9
	43	116	15.02404	38.01064	-192.5966	1	196.3117	-78.83565	-7.097196E-008	-0.000136	9
	44	118	12.01923	45.40228	-235.2673	1	239.6082	-79.07724	-3.170438E-007	-0.0001482	9
	45	121	9.450605	55.81438	-292.3436	1	297.624	-79.19114	-5.415503E-007	-0.0001511	9
	46	123	7.512019	68.49821	-359.9008	1	366.3612	-79.22404	-4.015075E-007	-0.0001476	9
	47	126	5.978954	84.72099	-440.2304	1	448.3084	-79.10678	1.301833E-007	-0.0001237	8
	48	129	4.734848	107.5337	-542.9597	1	553.5059	-78.79749	1.171609E-007	-0.0001476	8
	49	132	3.75601	137.2153	-667.9684	1	681.9163	-78.39169	1.178111E-007	-0.0001192	8
	50	136	3.004808	175.2599	-813.0946	1	831.7685	-77.83618	2.025195E-007	-0.000159	8
	51	139	2.372217	227.926	-998.18	1	1023.872	-77.13751	1.325412E-007	-0.0001448	8
	52	143	1.878005	299.0964	-1221.93	1	1258.003	-76.24593	6.473159E-008	-0.0001242	8
	53	148	1.512097	380.6322	-1468.174	1	1516.713	-75.46575	1.228812E-007	-0.0002217	8
	54	154	1.201923	495.6879	-1778.909	1	1846.68	-74.42966	8.831468E-008	-0.0001139	8
	55	160	0.956633	638.7856	-2144.794	1	2237.898	-73.41485	8.231388E-008	-0.0006693	8
