EXPLAIN
TAG	EISPOT
TITLE	LABEL	Potentiostatic EIS	Test Identifier
DATE	LABEL	10/12/2021	Date
TIME	LABEL	12:08:01	Time
NOTES	NOTES	1	Notes...
	
PSTAT	PSTAT	REF3000-16137	Potentiostat
VDC	POTEN	0.00000E+000	T	DC Voltage (V)
FREQINIT	QUANT	3.00000E+005	Initial Freq. (Hz)
FREQFINAL	QUANT	1.00000E+000	Final Freq. (Hz)
PTSPERDEC	QUANT	1.00000E+001	Points/decade
VAC	QUANT	5.00000E+001	AC Voltage (mV rms)
AREA	QUANT	1.00000E+000	Sample Area (cm^2)
SPEED	SELECTOR	2	Optimize for:
ZGUESS	QUANT	1.00000E+003	Estimated Z (ohms)
EOC	QUANT	0	Open Circuit (V)
SEQUENCER	TOGGLE	TRUE	Run as Sequence
PSTATMODEL	IQUANT	5	Pstat Model
PSTATSECTION	LABEL	REF3000-16137	Pstat Section
PSTATSERIALNO	LABEL	16137	Pstat Serial Number
CTRLMODE	IQUANT	1	Control Mode
IESTAB	IQUANT	0	I/E Stability
CASPEED	IQUANT	1	Control Amp Speed
CONVENTION	IQUANT	1	Current Convention
ICHRANGE	IQUANT	2	Ich Range
ICHRANGEMODE	TOGGLE	F	Ich Auto Range
ICHOFFSETENABLE	TOGGLE	T	Ich Offset Enable
ICHOFFSET	QUANT	0	Ich Offset (V)
ICHFILTER	IQUANT	3	Ich Filter
VCHRANGE	IQUANT	2	Vch Range
VCHRANGEMODE	TOGGLE	F	Vch Auto Range
VCHOFFSETENABLE	TOGGLE	T	Vch Offset Enable
VCHOFFSET	QUANT	0	Vch Offset (V)
VCHFILTER	IQUANT	3	Vch Filter
ACHRANGE	IQUANT	2	Ach Range
ACHOFFSETENABLE	TOGGLE	F	Ach Offset Enable
ACHOFFSET	QUANT	0	Ach Offset (V)
ACHFILTER	IQUANT	3	Ach Filter
IERANGELOWERLIMIT	IQUANT	2	I/E Range Lower Limit
IERANGEMODE	TOGGLE	F	I/E AutoRange
IERANGE	IQUANT	11	I/E Range
POSFEEDENABLE	TOGGLE	F	Positive Feedback IR Comp
POSFEEDRESISTANCE	QUANT	0	Positive Feedback Resistance (ohm)
ACHSELECT	IQUANT	0	Ach Select
CABLEID	IQUANT	13	Cable ID
DCCALDATE	LABEL	9/10/2021	DC Calibration Date
ACCALDATE	LABEL	9/10/2021	AC Calibration Date
THERMOSELECT	IQUANT	1	Thermo Select
FRAMEWORKVERSION	QUANT	6.33	Framework Version
INSTRUMENTVERSION	LABEL	3.50	Instrument Version
COMPLIANCEVOLTAGE	IQUANT	0	Compliance Voltage
ZCURVE	TABLE
	Pt	Time	Freq	Zreal	Zimag	Zsig	Zmod	Zphz	Idc	Vdc	IERange
	#	s	Hz	ohm	ohm	V	ohm	°	A	V	#
	0	10	300046.9	1.612258	2.387177	1	2.880623	55.96559	2.761928E-005	-0.0007787	11
	1	14	238359.4	1.711	1.747575	1	2.445719	45.6059	-0.0002116	-0.0011509	12
	2	18	189328.1	1.623198	1.386756	1	2.134915	40.50845	-0.0001924	-0.0008419	12
	3	21	150421.9	1.509913	1.173933	1	1.912578	37.86449	-0.0001758	-0.0001423	11
	4	24	119484.4	1.500131	0.9084203	1	1.753745	31.19744	3.431213E-005	-0.0001077	11
	5	27	94921.88	1.494158	0.6933321	1	1.647185	24.89264	-2.596663E-005	9.393726E-005	11
	6	29	75421.88	1.491907	0.5119172	1	1.577291	18.9386	-7.029117E-005	0.0001124	11
	7	32	59859.37	1.491983	0.356982	1	1.534096	13.456	-6.536584E-005	0.0001887	11
	8	34	47578.12	1.493491	0.222635	1	1.509994	8.478658	-0.0000985	0.000208	11
	9	37	37828.12	1.498084	0.1019713	1	1.501551	3.893993	-3.320817E-005	0.000308	11
	10	39	30046.88	1.504556	-0.0121755	1	1.504605	-0.4636509	-2.961488E-005	0.0003229	11
	11	42	23859.38	1.512651	-0.1251528	1	1.51782	-4.729729	-2.881022E-005	0.0003492	11
	12	44	18984.38	1.523358	-0.240995	1	1.542302	-8.989685	-4.525408E-005	0.0003499	11
	13	46	15046.87	1.536758	-0.3685392	1	1.580331	-13.48576	-2.638066E-005	0.0003729	11
	14	49	11953.13	1.552834	-0.5099846	1	1.634435	-18.18131	-2.157639E-005	0.0003796	11
	15	51	9515.62	1.573885	-0.6725518	1	1.711561	-23.13797	-4.6879E-005	0.0003702	11
	16	53	7546.875	1.600232	-0.8667862	1	1.819907	-28.44276	-7.456409E-005	0.000371	11
	17	56	5928.309	1.634332	-1.110338	1	1.975827	-34.19153	-4.406668E-005	0.00038	11
	18	58	4733.456	1.675011	-1.385313	1	2.173649	-39.59235	-1.819388E-005	0.0003917	11
	19	60	3796.875	1.726953	-1.710801	1	2.430887	-44.7308	-5.529231E-005	0.0003757	11
	20	62	2987.132	1.79669	-2.143692	1	2.797054	-50.03266	-8.49811E-005	0.0003512	11
	21	65	2390.625	1.87921	-2.634842	1	3.236329	-54.50294	-2.738514E-005	0.0004039	11
	22	67	1884.191	1.993309	-3.274072	1	3.833122	-58.66625	-2.502048E-005	0.0003799	11
	23	69	1516.544	2.12672	-3.99159	1	4.522801	-61.9513	-2.369847E-005	-0.0001222	10
	24	72	1193.986	2.308755	-4.950948	1	5.462805	-64.99915	-3.829034E-006	-0.0001294	10
	25	74	946.5144	2.534975	-6.093535	1	6.599793	-67.41218	-1.641665E-005	-0.0001296	10
	26	77	751.7689	2.820676	-7.48279	1	7.996771	-69.34581	-1.218385E-005	-0.0001686	10
	27	79	597.4265	3.180295	-9.172052	1	9.70777	-70.87665	-2.121083E-005	-0.0001181	10
	28	81	477.4305	3.624165	-11.17051	1	11.74372	-72.02485	3.410676E-007	-0.0001178	10
	29	84	376.6741	4.208008	-13.73233	1	14.3626	-72.96333	-7.569529E-007	-0.0001237	10
	30	86	298.2954	4.923456	-16.80694	1	17.51324	-73.67249	-1.736621E-007	-0.0001212	10
	31	88	237.7717	5.777516	-20.42885	1	21.23011	-74.20848	-9.978869E-007	-0.000122	10
	32	91	189.0121	6.829969	-24.86803	1	25.7889	-74.64247	-1.019085E-006	-0.0001185	10
	33	93	150.2404	8.109168	-30.25747	1	31.32528	-74.99699	-2.025849E-006	-0.0001222	10
	34	96	119.1737	9.66613	-36.85744	1	38.10387	-75.3047	-1.588603E-006	-0.0001223	10
	35	98	95.0169	11.48004	-44.63517	1	46.08785	-75.57631	-8.020815E-008	-0.0001356	9
	36	100	75.60484	13.67227	-54.20362	1	55.90138	-75.84308	-1.965618E-007	-0.0001341	9
	37	103	54.50582	17.5257	-71.57633	1	73.69072	-76.24163	-1.269025E-007	-0.0001409	9
	38	105	45.95588	19.89801	-82.76716	1	85.1254	-76.48209	3.997275E-008	-0.0001351	9
	39	108	37.20238	23.25624	-99.166	1	101.8565	-76.80161	-1.654867E-007	-0.0001296	9
	40	110	30.04808	27.15081	-119.1533	1	122.2075	-77.16349	-1.621088E-007	-0.0001465	9
	41	113	23.91582	31.89172	-145.0311	1	148.4961	-77.59828	-2.028343E-007	-0.0001375	9
	42	115	18.60119	38.14621	-180.7501	1	184.7315	-78.08295	-9.362638E-008	-0.0001432	9
	43	117	15.02404	44.25469	-218.175	1	222.6181	-78.53368	1.172963E-007	-0.0001483	9
	44	120	12.01923	51.83162	-265.7847	1	270.7915	-78.96504	1.055777E-007	-0.0001459	9
	45	122	9.450605	61.69314	-329.703	1	335.4253	-79.40153	-1.179524E-007	-0.0001421	9
	46	125	7.512019	72.6417	-405.4247	1	411.881	-79.84186	1.076178E-007	-0.0001509	9
	47	127	5.978954	86.10108	-496.5238	1	503.9338	-80.16229	5.264135E-007	-0.0001241	8
	48	130	4.734848	103.7042	-614.3381	1	623.0296	-80.41843	4.982901E-007	-0.0001488	8
	49	134	3.75601	126.1809	-759.4357	1	769.8469	-80.56644	5.798714E-007	-0.0001053	8
	50	137	3.004808	153.7413	-931.5781	1	944.1791	-80.62876	5.323854E-007	-0.0001153	8
	51	141	2.372217	194.7327	-1157.648	1	1173.912	-80.45143	4.830562E-007	-0.0001821	8
	52	145	1.878005	245.177	-1435.889	1	1456.67	-80.31023	5.792989E-007	-0.0001461	8
	53	150	1.512097	307.9734	-1746.003	1	1772.957	-79.99663	4.980041E-007	-0.0001118	8
	54	155	1.201923	400.8766	-2158.272	1	2195.186	-79.47781	5.505602E-007	-0.0000997	8
	55	161	0.956633	525.1332	-2651.405	1	2702.908	-78.79707	4.754398E-007	-0.0006684	8
