EXPLAIN
TAG	EISPOT
TITLE	LABEL	Potentiostatic EIS	Test Identifier
DATE	LABEL	10/12/2021	Date
TIME	LABEL	11:59:30	Time
NOTES	NOTES	1	Notes...
	
PSTAT	PSTAT	REF3000-16137	Potentiostat
VDC	POTEN	0.00000E+000	T	DC Voltage (V)
FREQINIT	QUANT	3.00000E+005	Initial Freq. (Hz)
FREQFINAL	QUANT	1.00000E+000	Final Freq. (Hz)
PTSPERDEC	QUANT	1.00000E+001	Points/decade
VAC	QUANT	5.00000E+001	AC Voltage (mV rms)
AREA	QUANT	1.00000E+000	Sample Area (cm^2)
SPEED	SELECTOR	2	Optimize for:
ZGUESS	QUANT	1.00000E+003	Estimated Z (ohms)
EOC	QUANT	0	Open Circuit (V)
SEQUENCER	TOGGLE	TRUE	Run as Sequence
PSTATMODEL	IQUANT	5	Pstat Model
PSTATSECTION	LABEL	REF3000-16137	Pstat Section
PSTATSERIALNO	LABEL	16137	Pstat Serial Number
CTRLMODE	IQUANT	1	Control Mode
IESTAB	IQUANT	0	I/E Stability
CASPEED	IQUANT	1	Control Amp Speed
CONVENTION	IQUANT	1	Current Convention
ICHRANGE	IQUANT	2	Ich Range
ICHRANGEMODE	TOGGLE	F	Ich Auto Range
ICHOFFSETENABLE	TOGGLE	T	Ich Offset Enable
ICHOFFSET	QUANT	0	Ich Offset (V)
ICHFILTER	IQUANT	3	Ich Filter
VCHRANGE	IQUANT	2	Vch Range
VCHRANGEMODE	TOGGLE	F	Vch Auto Range
VCHOFFSETENABLE	TOGGLE	T	Vch Offset Enable
VCHOFFSET	QUANT	0	Vch Offset (V)
VCHFILTER	IQUANT	3	Vch Filter
ACHRANGE	IQUANT	2	Ach Range
ACHOFFSETENABLE	TOGGLE	F	Ach Offset Enable
ACHOFFSET	QUANT	0	Ach Offset (V)
ACHFILTER	IQUANT	3	Ach Filter
IERANGELOWERLIMIT	IQUANT	2	I/E Range Lower Limit
IERANGEMODE	TOGGLE	F	I/E AutoRange
IERANGE	IQUANT	11	I/E Range
POSFEEDENABLE	TOGGLE	F	Positive Feedback IR Comp
POSFEEDRESISTANCE	QUANT	0	Positive Feedback Resistance (ohm)
ACHSELECT	IQUANT	0	Ach Select
CABLEID	IQUANT	13	Cable ID
DCCALDATE	LABEL	9/10/2021	DC Calibration Date
ACCALDATE	LABEL	9/10/2021	AC Calibration Date
THERMOSELECT	IQUANT	1	Thermo Select
FRAMEWORKVERSION	QUANT	6.33	Framework Version
INSTRUMENTVERSION	LABEL	3.50	Instrument Version
COMPLIANCEVOLTAGE	IQUANT	0	Compliance Voltage
ZCURVE	TABLE
	Pt	Time	Freq	Zreal	Zimag	Zsig	Zmod	Zphz	Idc	Vdc	IERange
	#	s	Hz	ohm	ohm	V	ohm	°	A	V	#
	0	10	300046.9	1.459779	2.405827	1	2.814065	58.75195	-0.0001247	-0.0006835	11
	1	13	238359.4	1.559326	1.771938	1	2.360352	48.65184	-0.0001954	-0.0011724	12
	2	17	189328.1	1.477877	1.402697	1	2.037567	43.50497	-0.0001732	-0.0008676	12
	3	21	150421.9	1.367326	1.186944	1	1.81064	40.9605	-0.0001573	-0.0002729	11
	4	23	119484.4	1.353931	0.9170175	1	1.635252	34.10979	1.531422E-005	-0.0001135	11
	5	26	94921.88	1.346542	0.6991702	1	1.517239	27.43987	-4.051625E-005	2.238779E-005	11
	6	28	75421.88	1.343285	0.5182709	1	1.439798	21.09779	-5.619469E-005	8.807825E-005	11
	7	31	59859.37	1.341937	0.3634107	1	1.390275	15.15285	-8.650866E-005	0.0001267	11
	8	34	47578.12	1.344527	0.2309641	1	1.36422	9.74719	-2.172849E-005	0.000241	11
	9	36	37828.12	1.348303	0.1124429	1	1.352983	4.767202	-2.132237E-005	0.0002954	11
	10	39	30046.88	1.353752	0.0005113	1	1.353752	0.0216411	-8.002874E-005	0.0002882	11
	11	41	23859.38	1.361995	-0.1093828	1	1.36638	-4.591612	-7.052544E-005	0.0003401	11
	12	43	18984.38	1.371168	-0.2217081	1	1.388976	-9.184828	-4.283229E-005	0.0002913	11
	13	46	15046.87	1.383827	-0.344542	1	1.426074	-13.9811	-2.301367E-005	0.0003769	11
	14	48	11953.13	1.399089	-0.4807634	1	1.479386	-18.96405	-6.602582E-005	0.0003383	11
	15	50	9515.62	1.419413	-0.6362656	1	1.555496	-24.14477	-5.424557E-005	0.0003719	11
	16	53	7546.875	1.44415	-0.8214521	1	1.661431	-29.6318	-5.319867E-005	0.000341	11
	17	55	5928.309	1.478471	-1.053805	1	1.815594	-35.48002	-2.582607E-005	0.0003996	11
	18	57	4733.456	1.519262	-1.315405	1	2.009589	-40.88661	-8.011071E-005	0.000352	11
	19	60	3796.875	1.569917	-1.62471	1	2.259274	-45.98261	-4.418387E-005	0.0003699	11
	20	62	2987.132	1.639853	-2.032146	1	2.611271	-51.09797	-2.142E-005	0.0003878	11
	21	64	2390.625	1.723877	-2.493816	1	3.031645	-55.34542	-1.898338E-005	0.0003696	11
	22	67	1884.191	1.836316	-3.098534	1	3.601801	-59.34731	-1.796725E-005	0.0003884	11
	23	69	1516.544	1.968916	-3.772382	1	4.255291	-62.43864	2.67139E-005	-0.0001363	10
	24	71	1193.986	2.151129	-4.673317	1	5.144633	-65.28338	-2.335196E-005	-0.0001218	10
	25	74	946.5144	2.38182	-5.742148	1	6.216537	-67.47153	-1.759254E-006	-0.0001282	10
	26	76	751.7689	2.659909	-7.038507	1	7.524341	-69.29802	-1.270119E-005	-0.0001728	10
	27	78	597.4265	3.016118	-8.603733	1	9.117083	-70.68141	1.527997E-005	-0.0001479	10
	28	81	477.4305	3.444941	-10.45805	1	11.01083	-71.76783	-9.392102E-007	-0.0001177	10
	29	83	376.6741	4.006166	-12.82764	1	13.43866	-72.65603	-7.474002E-007	-0.0001287	10
	30	85	298.2954	4.684045	-15.66798	1	16.35316	-73.35562	-1.243015E-006	-0.0001186	10
	31	88	237.7717	5.485053	-19.01461	1	19.78992	-73.90899	-1.593819E-006	-0.0001224	10
	32	90	189.0121	6.465232	-23.11794	1	24.00497	-74.37566	-1.279817E-006	-0.0001197	10
	33	92	150.2404	7.645738	-28.10059	1	29.12216	-74.77916	-1.827284E-006	-0.0001217	10
	34	95	119.1737	9.071019	-34.20579	1	35.38812	-75.14762	-1.929883E-006	-0.0001116	10
	35	97	95.0169	10.7137	-41.40229	1	42.76603	-75.49178	-2.081029E-007	-0.0001302	9
	36	100	75.60484	12.6796	-50.26652	1	51.84105	-75.84263	-3.360027E-007	-0.0001379	9
	37	102	54.50582	16.06787	-66.41586	1	68.33186	-76.39986	-3.148742E-007	-0.0001438	9
	38	105	45.95588	18.1594	-76.9016	1	79.01659	-76.71367	6.450753E-008	-0.0001304	9
	39	107	37.20238	21.06239	-92.21825	1	94.59297	-77.13448	-1.587439E-007	-0.0001286	9
	40	110	30.04808	24.52483	-111.119	1	113.7932	-77.5539	-2.598211E-007	-0.0001294	9
	41	112	23.91582	28.7327	-135.7024	1	138.7109	-78.04514	-3.939128E-007	-0.0001333	9
	42	114	18.60119	34.25246	-169.2163	1	172.6482	-78.55691	1.274509E-007	-0.0001332	9
	43	117	15.02404	39.84195	-204.6225	1	208.4652	-78.98183	2.601223E-007	-0.0001222	9
	44	119	12.01923	46.88557	-249.919	1	254.2789	-79.37464	-1.891899E-007	-0.0001334	9
	45	121	9.450605	56.1518	-310.5888	1	315.6239	-79.75211	2.898947E-008	-0.0001409	9
	46	124	7.512019	67.35572	-382.8027	1	388.6833	-80.02072	9.663534E-008	-0.0001402	9
	47	127	5.978954	81.23765	-469.0158	1	475.9994	-80.17336	5.140853E-007	-0.0001182	8
	48	130	4.734848	99.7128	-580.7912	1	589.2886	-80.25818	4.394124E-007	-0.0001392	8
	49	133	3.75601	124.5385	-717.3153	1	728.0461	-80.15063	5.831093E-007	-0.0000994	8
	50	136	3.004808	155.6698	-878.8853	1	892.5651	-79.95583	5.06767E-007	-0.0001065	8
	51	140	2.372217	201.4521	-1088.323	1	1106.811	-79.51307	4.600832E-007	-0.0001509	8
	52	144	1.878005	261.2816	-1346.702	1	1371.814	-79.02012	5.413569E-007	-0.0001266	8
	53	149	1.512097	332.7576	-1632.703	1	1666.267	-78.48044	4.734196E-007	-5.182175E-005	8
	54	154	1.201923	440.855	-2003.522	1	2051.452	-77.59039	5.312981E-007	-0.0001042	8
	55	161	0.956633	581.4356	-2442.747	1	2510.992	-76.6113	4.453167E-007	-0.0006688	8
