EXPLAIN
TAG	EISPOT
TITLE	LABEL	Potentiostatic EIS	Test Identifier
DATE	LABEL	10/12/2021	Date
TIME	LABEL	12:19:23	Time
NOTES	NOTES	1	Notes...
	
PSTAT	PSTAT	REF3000-16137	Potentiostat
VDC	POTEN	0.00000E+000	T	DC Voltage (V)
FREQINIT	QUANT	3.00000E+005	Initial Freq. (Hz)
FREQFINAL	QUANT	1.00000E+000	Final Freq. (Hz)
PTSPERDEC	QUANT	1.00000E+001	Points/decade
VAC	QUANT	5.00000E+001	AC Voltage (mV rms)
AREA	QUANT	1.00000E+000	Sample Area (cm^2)
SPEED	SELECTOR	2	Optimize for:
ZGUESS	QUANT	1.00000E+003	Estimated Z (ohms)
EOC	QUANT	0	Open Circuit (V)
SEQUENCER	TOGGLE	TRUE	Run as Sequence
PSTATMODEL	IQUANT	5	Pstat Model
PSTATSECTION	LABEL	REF3000-16137	Pstat Section
PSTATSERIALNO	LABEL	16137	Pstat Serial Number
CTRLMODE	IQUANT	1	Control Mode
IESTAB	IQUANT	0	I/E Stability
CASPEED	IQUANT	1	Control Amp Speed
CONVENTION	IQUANT	1	Current Convention
ICHRANGE	IQUANT	2	Ich Range
ICHRANGEMODE	TOGGLE	F	Ich Auto Range
ICHOFFSETENABLE	TOGGLE	T	Ich Offset Enable
ICHOFFSET	QUANT	0	Ich Offset (V)
ICHFILTER	IQUANT	3	Ich Filter
VCHRANGE	IQUANT	2	Vch Range
VCHRANGEMODE	TOGGLE	F	Vch Auto Range
VCHOFFSETENABLE	TOGGLE	T	Vch Offset Enable
VCHOFFSET	QUANT	0	Vch Offset (V)
VCHFILTER	IQUANT	3	Vch Filter
ACHRANGE	IQUANT	2	Ach Range
ACHOFFSETENABLE	TOGGLE	F	Ach Offset Enable
ACHOFFSET	QUANT	0	Ach Offset (V)
ACHFILTER	IQUANT	3	Ach Filter
IERANGELOWERLIMIT	IQUANT	2	I/E Range Lower Limit
IERANGEMODE	TOGGLE	F	I/E AutoRange
IERANGE	IQUANT	11	I/E Range
POSFEEDENABLE	TOGGLE	F	Positive Feedback IR Comp
POSFEEDRESISTANCE	QUANT	0	Positive Feedback Resistance (ohm)
ACHSELECT	IQUANT	0	Ach Select
CABLEID	IQUANT	13	Cable ID
DCCALDATE	LABEL	9/10/2021	DC Calibration Date
ACCALDATE	LABEL	9/10/2021	AC Calibration Date
THERMOSELECT	IQUANT	1	Thermo Select
FRAMEWORKVERSION	QUANT	6.33	Framework Version
INSTRUMENTVERSION	LABEL	3.50	Instrument Version
COMPLIANCEVOLTAGE	IQUANT	0	Compliance Voltage
ZCURVE	TABLE
	Pt	Time	Freq	Zreal	Zimag	Zsig	Zmod	Zphz	Idc	Vdc	IERange
	#	s	Hz	ohm	ohm	V	ohm	°	A	V	#
	0	10	300046.9	2.149961	2.371228	1	3.20079	47.80183	-3.269872E-005	-0.0006229	11
	1	13	238359.4	2.093491	1.890466	1	2.820739	42.0827	-8.902234E-005	-0.0006154	11
	2	16	189328.1	2.156018	1.335986	1	2.536389	31.7846	-6.439065E-005	-0.000706	12
	3	20	150421.9	2.120686	1.044252	1	2.363847	26.21621	-0.0001422	-0.0004969	12
	4	23	119484.4	2.088512	0.8086608	1	2.239601	21.16614	-0.0002292	-0.0003957	12
	5	27	94921.88	2.053565	0.6743273	1	2.161446	18.17858	-3.548914E-005	0.0001607	11
	6	30	75421.88	2.056785	0.4936365	1	2.115193	13.49595	-6.360017E-005	0.0001918	11
	7	32	59859.37	2.061354	0.3360505	1	2.088567	9.259143	-2.64041E-005	0.0002636	11
	8	35	47578.12	2.069288	0.2003708	1	2.078967	5.530753	-2.770856E-005	0.0002466	11
	9	37	37828.12	2.077662	0.075643	1	2.079039	2.085088	-7.309559E-005	0.0002774	11
	10	40	30046.88	2.09097	-0.0426613	1	2.091405	-1.168824	-5.048425E-005	0.0003411	11
	11	42	23859.38	2.105548	-0.1607421	1	2.111675	-4.365615	-5.790924E-005	0.0003593	11
	12	45	18984.38	2.121756	-0.282598	1	2.140493	-7.586608	-7.053321E-005	0.0003229	11
	13	47	15046.87	2.143534	-0.4171091	1	2.183739	-11.01155	-7.180651E-005	0.0003647	11
	14	49	11953.13	2.167411	-0.5669243	1	2.240329	-14.65831	-2.542753E-005	0.0003949	11
	15	52	9515.62	2.196296	-0.7378292	1	2.316918	-18.56939	-5.904983E-005	0.0003721	11
	16	54	7546.875	2.229307	-0.9434529	1	2.420726	-22.9383	-7.199399E-005	0.0003611	11
	17	56	5928.309	2.271592	-1.201055	1	2.569565	-27.86666	-5.594437E-005	0.0003713	11
	18	59	4733.456	2.318293	-1.49309	1	2.757499	-32.78344	-8.245389E-005	0.0003536	11
	19	61	3796.875	2.374135	-1.838062	1	3.002497	-37.74715	-2.590233E-005	0.0003835	11
	20	63	2987.132	2.4474	-2.301388	1	3.359487	-43.23887	-5.159892E-005	0.0003686	11
	21	66	2390.625	2.531551	-2.830198	1	3.797206	-48.18805	-1.385266E-005	0.0004023	11
	22	68	1884.191	2.650902	-3.524714	1	4.410317	-53.05354	1.351183E-005	-0.0001524	10
	23	70	1516.544	2.782634	-4.298966	1	5.120953	-57.08584	2.416897E-005	-0.0001356	10
	24	73	1193.986	2.966997	-5.344258	1	6.112624	-60.96207	2.223434E-005	-0.0001372	10
	25	75	946.5144	3.191903	-6.598341	1	7.329826	-64.18494	-4.857446E-006	-0.0001431	10
	26	77	751.7689	3.486107	-8.120068	1	8.836766	-66.76519	2.052009E-005	-0.0001461	10
	27	80	597.4265	3.848423	-9.97931	1	10.69565	-68.91135	2.001551E-005	-0.0001384	10
	28	82	477.4305	4.300061	-12.19284	1	12.92888	-70.57374	-3.429108E-007	-0.0001217	10
	29	84	376.6741	4.902521	-15.04132	1	15.82012	-71.9473	-7.447957E-007	-0.0001238	10
	30	87	298.2954	5.65203	-18.47158	1	19.31696	-72.98666	-2.196657E-007	-0.0001181	10
	31	89	237.7717	6.565401	-22.52548	1	23.46277	-73.75041	3.240047E-006	-0.0001615	10
	32	92	189.0121	7.711926	-27.49824	1	28.55918	-74.33376	-6.148375E-007	-0.000114	10
	33	94	150.2404	9.128258	-33.53748	1	34.75756	-74.77403	-1.134315E-006	-0.0001166	10
	34	96	119.1737	10.87742	-40.92669	1	42.34752	-75.11612	-1.086296E-006	-0.0001143	10
	35	99	95.0169	12.93996	-49.62251	1	51.28192	-75.38458	1.323316E-007	-0.00013	9
	36	101	75.60484	15.47185	-60.31124	1	62.26415	-75.61198	4.912701E-008	-0.0001453	9
	37	104	54.50582	19.99596	-79.67515	1	82.14601	-75.91154	-6.480239E-008	-0.0001384	9
	38	106	45.95588	22.858	-92.12733	1	94.92066	-76.06555	1.566028E-007	-0.0001379	9
	39	109	37.20238	26.93671	-110.2219	1	113.4657	-76.26688	1.607479E-007	-0.0001282	9
	40	111	30.04808	31.78404	-132.2961	1	136.0606	-76.49076	3.569085E-009	-0.0001376	9
	41	114	23.91582	37.72275	-160.6432	1	165.0129	-76.78506	4.620674E-008	-0.0001371	9
	42	116	18.60119	45.27949	-199.2211	1	204.3019	-77.1952	2.98034E-008	-0.0001291	9
	43	118	15.02404	52.7864	-239.5313	1	245.2787	-77.57216	2.497071E-007	-0.0001383	9
	44	121	12.01923	61.812	-290.9523	1	297.4458	-78.006	8.118848E-008	-0.0001348	9
	45	123	9.450605	73.07625	-359.2698	1	366.6264	-78.50276	1.735674E-007	-0.0001418	9
	46	126	7.512019	85.14249	-438.4103	1	446.6014	-79.00955	6.243538E-007	-0.0001352	8
	47	128	5.978954	99.7439	-537.4622	1	546.6393	-79.48648	6.233892E-007	-0.0001227	8
	48	131	4.734848	117.894	-663.1387	1	673.5369	-79.91918	6.326713E-007	-0.0001467	8
	49	135	3.75601	139.4149	-818.7159	1	830.5012	-80.33609	6.048402E-007	-0.0001154	8
	50	138	3.004808	165.1889	-1003.325	1	1016.833	-80.65062	6.516165E-007	-0.0001546	8
	51	142	2.372217	198.3076	-1245.834	1	1261.518	-80.95573	6.244026E-007	-0.000165	8
	52	146	1.878005	244.2515	-1547.012	1	1566.176	-81.02786	5.658829E-007	-0.0001241	8
	53	151	1.512097	293.8657	-1887.796	1	1910.531	-81.15201	6.304117E-007	-0.0002083	8
	54	156	1.201923	370.354	-2338.31	1	2367.457	-80.99995	5.770376E-007	-0.000128	8
	55	163	0.956633	468.0402	-2884.928	1	2922.648	-80.78483	5.836945E-007	-0.0006667	8
