EXPLAIN
TAG	EISPOT
TITLE	LABEL	Potentiostatic EIS	Test Identifier
DATE	LABEL	10/12/2021	Date
TIME	LABEL	12:58:42	Time
NOTES	NOTES	1	Notes...
	
PSTAT	PSTAT	REF3000-16137	Potentiostat
VDC	POTEN	0.00000E+000	T	DC Voltage (V)
FREQINIT	QUANT	3.00000E+005	Initial Freq. (Hz)
FREQFINAL	QUANT	1.00000E+000	Final Freq. (Hz)
PTSPERDEC	QUANT	1.00000E+001	Points/decade
VAC	QUANT	5.00000E+001	AC Voltage (mV rms)
AREA	QUANT	1.00000E+000	Sample Area (cm^2)
SPEED	SELECTOR	2	Optimize for:
ZGUESS	QUANT	1.00000E+003	Estimated Z (ohms)
EOC	QUANT	0	Open Circuit (V)
SEQUENCER	TOGGLE	TRUE	Run as Sequence
PSTATMODEL	IQUANT	5	Pstat Model
PSTATSECTION	LABEL	REF3000-16137	Pstat Section
PSTATSERIALNO	LABEL	16137	Pstat Serial Number
CTRLMODE	IQUANT	1	Control Mode
IESTAB	IQUANT	0	I/E Stability
CASPEED	IQUANT	1	Control Amp Speed
CONVENTION	IQUANT	1	Current Convention
ICHRANGE	IQUANT	2	Ich Range
ICHRANGEMODE	TOGGLE	F	Ich Auto Range
ICHOFFSETENABLE	TOGGLE	T	Ich Offset Enable
ICHOFFSET	QUANT	0	Ich Offset (V)
ICHFILTER	IQUANT	3	Ich Filter
VCHRANGE	IQUANT	2	Vch Range
VCHRANGEMODE	TOGGLE	F	Vch Auto Range
VCHOFFSETENABLE	TOGGLE	T	Vch Offset Enable
VCHOFFSET	QUANT	0	Vch Offset (V)
VCHFILTER	IQUANT	3	Vch Filter
ACHRANGE	IQUANT	2	Ach Range
ACHOFFSETENABLE	TOGGLE	F	Ach Offset Enable
ACHOFFSET	QUANT	0	Ach Offset (V)
ACHFILTER	IQUANT	3	Ach Filter
IERANGELOWERLIMIT	IQUANT	2	I/E Range Lower Limit
IERANGEMODE	TOGGLE	F	I/E AutoRange
IERANGE	IQUANT	11	I/E Range
POSFEEDENABLE	TOGGLE	F	Positive Feedback IR Comp
POSFEEDRESISTANCE	QUANT	0	Positive Feedback Resistance (ohm)
ACHSELECT	IQUANT	0	Ach Select
CABLEID	IQUANT	13	Cable ID
DCCALDATE	LABEL	9/10/2021	DC Calibration Date
ACCALDATE	LABEL	9/10/2021	AC Calibration Date
THERMOSELECT	IQUANT	1	Thermo Select
FRAMEWORKVERSION	QUANT	6.33	Framework Version
INSTRUMENTVERSION	LABEL	3.50	Instrument Version
COMPLIANCEVOLTAGE	IQUANT	0	Compliance Voltage
ZCURVE	TABLE
	Pt	Time	Freq	Zreal	Zimag	Zsig	Zmod	Zphz	Idc	Vdc	IERange
	#	s	Hz	ohm	ohm	V	ohm	°	A	V	#
	0	7	300046.9	120.3778	-1.453885	1	120.3866	-0.6919665	5.062625E-005	-0.0009965	9
	1	10	238359.4	122.0495	-1.828217	1	122.0632	-0.8581868	1.421473E-005	-0.0009771	9
	2	14	189328.1	123.0766	-1.444687	1	123.085	-0.6725137	1.383792E-005	-0.0014668	9
	3	17	150421.9	123.8851	-1.555568	1	123.8948	-0.7193989	2.725263E-005	0.0002636	9
	4	19	119484.4	125.4371	-1.707905	1	125.4487	-0.78007	1.333678E-005	-0.0015468	9
	5	22	94921.88	126.4104	-1.484375	1	126.4191	-0.6727654	-1.108749E-005	0.0005724	9
	6	24	75421.88	127.6092	-1.781958	1	127.6216	-0.8000368	2.777586E-006	0.0002783	9
	7	27	59859.37	128.652	-1.954733	1	128.6668	-0.8704829	-2.225401E-005	0.0006339	9
	8	29	47578.12	129.7253	-2.153708	1	129.7431	-0.951141	-1.867766E-005	0.000237	9
	9	32	37828.12	130.7938	-2.540231	1	130.8185	-1.112639	2.581732E-005	-0.0007852	9
	10	34	30046.88	132.1754	-2.629873	1	132.2015	-1.139855	-6.860848E-006	0.0004688	9
	11	37	23859.38	133.2387	-2.665761	1	133.2654	-1.146187	-4.854448E-006	-0.0005157	9
	12	39	18984.38	134.3697	-3.279911	1	134.4097	-1.39829	1.261444E-005	-0.0009113	9
	13	42	15046.87	135.7878	-3.492085	1	135.8327	-1.473163	4.504009E-006	-0.000743	9
	14	44	11953.13	136.9453	-4.311493	1	137.0131	-1.803266	2.471799E-005	-0.0008556	9
	15	46	9515.62	138.4126	-4.560258	1	138.4877	-1.887033	1.907158E-005	-0.0010007	9
	16	49	7546.875	139.9168	-4.873969	1	140.0017	-1.995078	-2.483134E-005	0.0003738	9
	17	51	5928.309	141.3871	-5.834271	1	141.5075	-2.362942	-1.5023E-005	0.0006928	9
	18	53	4733.456	142.7629	-6.705088	1	142.9203	-2.689012	3.910463E-006	-0.0007197	9
	19	56	3796.875	144.4059	-7.514304	1	144.6012	-2.978757	2.469276E-005	-0.000969	9
	20	58	2987.132	146.1841	-8.550502	1	146.4339	-3.347493	-1.775418E-005	8.07238E-005	9
	21	60	2390.625	147.8361	-9.74373	1	148.1568	-3.770853	-3.83797E-006	-0.0004736	9
	22	63	1884.191	149.6863	-11.34174	1	150.1154	-4.333024	1.118136E-005	8.248403E-006	9
	23	65	1516.544	151.724	-12.75383	1	152.2591	-4.804952	1.392308E-006	0.0003118	9
	24	67	1193.986	153.6586	-14.98043	1	154.3871	-5.568261	-2.309322E-005	0.0006526	9
	25	70	946.5144	156.051	-17.60548	1	157.041	-6.436819	1.912212E-005	-0.0009946	9
	26	72	751.7689	158.3691	-20.69133	1	159.7151	-7.443675	-1.951304E-005	0.0007161	9
	27	74	597.4265	160.6149	-24.57412	1	162.4839	-8.698812	2.519795E-005	-0.000704	9
	28	77	477.4305	163.3891	-28.94768	1	165.9336	-10.04685	3.597236E-007	-0.0001309	9
	29	79	376.6741	166.3656	-34.61322	1	169.9282	-11.75301	3.52345E-007	-0.0001311	9
	30	81	298.2954	169.6468	-41.42719	1	174.6318	-13.72287	3.445339E-007	-0.0001309	9
	31	84	237.7717	173.3028	-49.46686	1	180.2244	-15.93065	3.658805E-007	-0.0001345	9
	32	86	189.0121	177.4485	-59.309	1	187.0977	-18.48129	3.622951E-007	-0.0001377	9
	33	88	150.2404	182.1382	-71.23392	1	195.5724	-21.36038	3.296481E-007	-0.0001286	9
	34	91	119.1737	187.4998	-85.81778	1	206.2058	-24.59335	3.058538E-007	-0.0001268	9
	35	93	95.0169	193.4843	-103.1007	1	219.2394	-28.05152	2.873709E-007	-0.0001309	9
	36	96	75.60484	200.4227	-124.2216	1	235.7971	-31.79055	6.947486E-007	-0.0001776	9
	37	98	54.50582	211.4666	-162.5524	1	266.7235	-37.54915	2.542453E-007	-0.0001442	9
	38	101	45.95588	218.7239	-187.3688	1	288.0055	-40.58485	2.394708E-007	-0.0001246	9
	39	103	37.20238	228.4145	-223.5628	1	319.6146	-44.38499	2.279282E-007	-0.0001317	9
	40	106	30.04808	239.6669	-267.7372	1	359.3375	-48.16646	2.143937E-007	-0.0001339	9
	41	108	23.91582	252.4332	-323.6849	1	410.4807	-52.05029	6.474794E-008	-0.0001243	8
	42	110	18.60119	270.1141	-401.5132	1	483.9157	-56.06969	2.192369E-007	-0.0001302	8
	43	113	15.02404	288.3094	-482.8932	1	562.4128	-59.16086	4.735198E-008	-0.0001516	8
	44	115	12.01923	311.1946	-586.3827	1	663.8424	-62.04501	2.032633E-007	-0.0001222	8
	45	117	9.450605	341.0613	-723.3416	1	799.7161	-64.75574	5.990513E-008	-0.0001197	8
	46	120	7.512019	376.0518	-884.843	1	961.438	-66.97486	8.579755E-008	-0.0001025	8
	47	123	5.978954	419.8007	-1080.567	1	1159.249	-68.76883	7.004917E-008	-0.0001276	8
	48	126	4.734848	475.0429	-1326.334	1	1408.84	-70.2944	1.494396E-007	-9.281675E-005	8
	49	129	3.75601	545.0343	-1624.18	1	1713.191	-71.44953	6.153737E-008	-0.0001254	8
	50	132	3.004808	628.5573	-1972.332	1	2070.067	-72.32358	1.082336E-007	-0.0001057	8
	51	136	2.372217	740.6803	-2423.743	1	2534.391	-73.00718	1.058283E-007	-3.518866E-005	8
	52	140	1.878005	874.1088	-2967.303	1	3093.373	-73.58607	8.498112E-008	-0.0001376	8
	53	145	1.512097	1030.421	-3568.395	1	3714.191	-73.89323	1.089251E-007	-6.507006E-005	8
	54	151	1.201923	1231.871	-4367.151	1	4537.567	-74.24749	5.36299E-009	-0.0001658	7
	55	157	0.956633	1474.083	-5313.65	1	5514.327	-74.49522	-1.308604E-008	-0.0006526	7
