EXPLAIN
TAG	EISPOT
TITLE	LABEL	Potentiostatic EIS	Test Identifier
DATE	LABEL	10/12/2021	Date
TIME	LABEL	11:45:22	Time
NOTES	NOTES	1	Notes...
	
PSTAT	PSTAT	REF3000-16137	Potentiostat
VDC	POTEN	0.00000E+000	T	DC Voltage (V)
FREQINIT	QUANT	3.00000E+005	Initial Freq. (Hz)
FREQFINAL	QUANT	1.00000E+000	Final Freq. (Hz)
PTSPERDEC	QUANT	1.00000E+001	Points/decade
VAC	QUANT	5.00000E+001	AC Voltage (mV rms)
AREA	QUANT	1.00000E+000	Sample Area (cm^2)
SPEED	SELECTOR	2	Optimize for:
ZGUESS	QUANT	1.00000E+003	Estimated Z (ohms)
EOC	QUANT	0	Open Circuit (V)
SEQUENCER	TOGGLE	TRUE	Run as Sequence
PSTATMODEL	IQUANT	5	Pstat Model
PSTATSECTION	LABEL	REF3000-16137	Pstat Section
PSTATSERIALNO	LABEL	16137	Pstat Serial Number
CTRLMODE	IQUANT	1	Control Mode
IESTAB	IQUANT	0	I/E Stability
CASPEED	IQUANT	1	Control Amp Speed
CONVENTION	IQUANT	1	Current Convention
ICHRANGE	IQUANT	2	Ich Range
ICHRANGEMODE	TOGGLE	F	Ich Auto Range
ICHOFFSETENABLE	TOGGLE	T	Ich Offset Enable
ICHOFFSET	QUANT	0	Ich Offset (V)
ICHFILTER	IQUANT	3	Ich Filter
VCHRANGE	IQUANT	2	Vch Range
VCHRANGEMODE	TOGGLE	F	Vch Auto Range
VCHOFFSETENABLE	TOGGLE	T	Vch Offset Enable
VCHOFFSET	QUANT	0	Vch Offset (V)
VCHFILTER	IQUANT	3	Vch Filter
ACHRANGE	IQUANT	2	Ach Range
ACHOFFSETENABLE	TOGGLE	F	Ach Offset Enable
ACHOFFSET	QUANT	0	Ach Offset (V)
ACHFILTER	IQUANT	3	Ach Filter
IERANGELOWERLIMIT	IQUANT	2	I/E Range Lower Limit
IERANGEMODE	TOGGLE	F	I/E AutoRange
IERANGE	IQUANT	11	I/E Range
POSFEEDENABLE	TOGGLE	F	Positive Feedback IR Comp
POSFEEDRESISTANCE	QUANT	0	Positive Feedback Resistance (ohm)
ACHSELECT	IQUANT	0	Ach Select
CABLEID	IQUANT	13	Cable ID
DCCALDATE	LABEL	9/10/2021	DC Calibration Date
ACCALDATE	LABEL	9/10/2021	AC Calibration Date
THERMOSELECT	IQUANT	1	Thermo Select
FRAMEWORKVERSION	QUANT	6.33	Framework Version
INSTRUMENTVERSION	LABEL	3.50	Instrument Version
COMPLIANCEVOLTAGE	IQUANT	0	Compliance Voltage
ZCURVE	TABLE
	Pt	Time	Freq	Zreal	Zimag	Zsig	Zmod	Zphz	Idc	Vdc	IERange
	#	s	Hz	ohm	ohm	V	ohm	°	A	V	#
	0	10	300046.9	1.332076	2.39605	1	2.741438	60.92828	1.214689E-005	-0.0006649	11
	1	14	238359.4	1.427393	1.788466	1	2.288245	51.40627	-0.0002062	-0.0012652	12
	2	18	189328.1	1.257502	1.508309	1	1.963748	50.18147	-6.513052E-005	-0.0004098	11
	3	20	150421.9	1.232823	1.185811	1	1.710556	43.88646	-6.452831E-005	-0.000191	11
	4	23	119484.4	1.224039	0.9231219	1	1.533109	37.02217	-6.455441E-005	-0.0001398	11
	5	25	94921.88	1.214801	0.7062079	1	1.405159	30.17099	-4.596894E-005	8.454279E-006	11
	6	28	75421.88	1.211441	0.5261478	1	1.320765	23.47607	-4.480114E-005	5.484816E-005	11
	7	30	59859.37	1.210801	0.3737077	1	1.267161	17.15257	-4.702734E-005	0.0001427	11
	8	33	47578.12	1.212566	0.2426569	1	1.236608	11.31646	-2.637674E-005	0.0002058	11
	9	37	37828.12	1.216	0.1269039	1	1.222604	5.95792	-3.163795E-005	0.0002605	11
	10	39	30046.88	1.221332	0.0184002	1	1.221471	0.8631356	-7.146291E-005	0.0002933	11
	11	42	23859.38	1.227848	-0.087656	1	1.230973	-4.083413	-1.931083E-005	0.000352	11
	12	44	18984.38	1.23687	-0.1948363	1	1.252122	-8.951882	-4.36291E-005	0.0003628	11
	13	46	15046.87	1.248481	-0.3113195	1	1.286711	-14.00165	-2.11622E-005	0.0003675	11
	14	49	11953.13	1.26352	-0.4396464	1	1.337824	-19.18552	-9.247666E-005	0.0003363	11
	15	51	9515.62	1.282842	-0.5852262	1	1.410026	-24.52223	-5.595657E-005	0.0003242	11
	16	53	7546.875	1.308014	-0.7583377	1	1.511945	-30.10355	-2.013888E-005	0.0003965	11
	17	55	5928.309	1.341734	-0.973076	1	1.657446	-35.95102	-2.73727E-005	0.0003769	11
	18	58	4733.456	1.382208	-1.21429	1	1.839836	-41.29977	-5.329245E-005	0.0003423	11
	19	60	3796.875	1.432174	-1.497703	1	2.072254	-46.28125	-0.000095	0.0003361	11
	20	62	2987.132	1.502491	-1.872172	1	2.400522	-51.25161	-6.730696E-005	0.0003554	11
	21	65	2390.625	1.584093	-2.295509	1	2.789035	-55.39108	-2.126212E-005	0.0003975	11
	22	67	1884.191	1.697515	-2.843983	1	3.312069	-59.16789	-3.658592E-005	0.0003681	11
	23	69	1516.544	1.826687	-3.452312	1	3.905796	-62.11579	-8.533437E-005	0.0003549	11
	24	72	1193.986	2.007717	-4.267263	1	4.715979	-64.80334	2.086619E-005	-0.0001462	10
	25	74	946.5144	2.230411	-5.226015	1	5.682074	-66.8877	2.58752E-005	-0.0001499	10
	26	77	751.7689	2.498292	-6.387855	1	6.85902	-68.63951	-4.969156E-006	-0.0001426	10
	27	79	597.4265	2.833586	-7.789142	1	8.288543	-70.00928	-1.190766E-005	-0.0001238	10
	28	81	477.4305	3.238373	-9.438818	1	9.9789	-71.06337	-1.287355E-006	-0.0001272	10
	29	83	376.6741	3.755401	-11.54913	1	12.14436	-71.98717	-1.931327E-006	-0.000128	10
	30	86	298.2954	4.373621	-14.07918	1	14.74286	-72.74288	-1.361067E-006	-0.0001189	10
	31	88	237.7717	5.097745	-17.06026	1	17.8056	-73.36342	-2.069221E-006	-0.0001237	10
	32	91	189.0121	5.976326	-20.71587	1	21.5607	-73.90766	-1.853004E-006	-0.0001231	10
	33	93	150.2404	7.025557	-25.15025	1	26.11309	-74.39265	-1.575059E-006	-0.0001266	10
	34	95	119.1737	8.279715	-30.59855	1	31.69897	-74.85883	-1.64545E-006	-0.0001236	10
	35	98	95.0169	9.71774	-37.07384	1	38.32628	-75.31214	-2.138932E-006	-0.0001226	10
	36	100	75.60484	11.39975	-44.98277	1	46.40478	-75.77922	-1.094222E-006	-0.0001378	9
	37	103	54.50582	14.31755	-59.53579	1	61.23318	-76.47791	-1.094399E-006	-0.0001453	9
	38	105	45.95588	16.13862	-69.01968	1	70.88139	-76.83919	-6.419974E-007	-0.0001377	9
	39	108	37.20238	18.73059	-82.95439	1	85.04273	-77.27633	-8.675711E-007	-0.0001377	9
	40	110	30.04808	21.77474	-99.9939	1	102.3373	-77.71502	-9.917218E-007	-0.0001428	9
	41	113	23.91582	25.73708	-122.4601	1	125.1354	-78.13106	-1.295403E-006	-0.0001375	9
	42	115	18.60119	31.1291	-153.146	1	156.2777	-78.51035	-1.015817E-006	-0.0001357	9
	43	117	15.02404	36.91424	-185.3759	1	189.0155	-78.73791	-6.015262E-007	-0.0001398	9
	44	120	12.01923	44.58953	-226.5443	1	230.8908	-78.8651	-6.714429E-007	-0.0001368	9
	45	122	9.450605	55.31163	-281.4329	1	286.8167	-78.88104	-8.010871E-007	-0.0001466	9
	46	124	7.512019	68.90165	-345.7235	1	352.5226	-78.72881	-4.881338E-007	-0.0001255	9
	47	127	5.978954	86.28058	-422.3681	1	431.0906	-78.45457	-1.432881E-007	-0.0001279	8
	48	130	4.734848	110.5417	-519.9209	1	531.5423	-77.99693	-2.33286E-007	-0.0001147	8
	49	133	3.75601	141.8167	-637.1427	1	652.7349	-77.45154	-1.594272E-007	-0.0001197	8
	50	137	3.004808	181.3328	-772.6713	1	793.664	-76.79266	-2.664401E-007	-0.0001206	8
	51	141	2.372217	236.6162	-944.1099	1	973.309	-75.93014	-2.979397E-007	-0.0001226	8
	52	145	1.878005	308.5208	-1150.97	1	1191.603	-74.99446	-2.20492E-007	-0.0001423	8
	53	150	1.512097	390.9155	-1377.317	1	1431.719	-74.15479	-2.675149E-007	-3.787023E-005	8
	54	155	1.201923	506.2119	-1662.872	1	1738.215	-73.06869	-2.203745E-007	-0.0001302	8
	55	161	0.956633	650.5445	-1998.549	1	2101.763	-71.9695	-3.416026E-007	-0.0006679	8
