EXPLAIN
TAG	EISPOT
TITLE	LABEL	Potentiostatic EIS	Test Identifier
DATE	LABEL	10/12/2021	Date
TIME	LABEL	12:53:11	Time
NOTES	NOTES	1	Notes...
	
PSTAT	PSTAT	REF3000-16137	Potentiostat
VDC	POTEN	0.00000E+000	T	DC Voltage (V)
FREQINIT	QUANT	3.00000E+005	Initial Freq. (Hz)
FREQFINAL	QUANT	1.00000E+000	Final Freq. (Hz)
PTSPERDEC	QUANT	1.00000E+001	Points/decade
VAC	QUANT	5.00000E+001	AC Voltage (mV rms)
AREA	QUANT	1.00000E+000	Sample Area (cm^2)
SPEED	SELECTOR	2	Optimize for:
ZGUESS	QUANT	1.00000E+003	Estimated Z (ohms)
EOC	QUANT	0	Open Circuit (V)
SEQUENCER	TOGGLE	TRUE	Run as Sequence
PSTATMODEL	IQUANT	5	Pstat Model
PSTATSECTION	LABEL	REF3000-16137	Pstat Section
PSTATSERIALNO	LABEL	16137	Pstat Serial Number
CTRLMODE	IQUANT	1	Control Mode
IESTAB	IQUANT	0	I/E Stability
CASPEED	IQUANT	1	Control Amp Speed
CONVENTION	IQUANT	1	Current Convention
ICHRANGE	IQUANT	2	Ich Range
ICHRANGEMODE	TOGGLE	F	Ich Auto Range
ICHOFFSETENABLE	TOGGLE	T	Ich Offset Enable
ICHOFFSET	QUANT	0	Ich Offset (V)
ICHFILTER	IQUANT	3	Ich Filter
VCHRANGE	IQUANT	2	Vch Range
VCHRANGEMODE	TOGGLE	F	Vch Auto Range
VCHOFFSETENABLE	TOGGLE	T	Vch Offset Enable
VCHOFFSET	QUANT	0	Vch Offset (V)
VCHFILTER	IQUANT	3	Vch Filter
ACHRANGE	IQUANT	2	Ach Range
ACHOFFSETENABLE	TOGGLE	F	Ach Offset Enable
ACHOFFSET	QUANT	0	Ach Offset (V)
ACHFILTER	IQUANT	3	Ach Filter
IERANGELOWERLIMIT	IQUANT	2	I/E Range Lower Limit
IERANGEMODE	TOGGLE	F	I/E AutoRange
IERANGE	IQUANT	11	I/E Range
POSFEEDENABLE	TOGGLE	F	Positive Feedback IR Comp
POSFEEDRESISTANCE	QUANT	0	Positive Feedback Resistance (ohm)
ACHSELECT	IQUANT	0	Ach Select
CABLEID	IQUANT	13	Cable ID
DCCALDATE	LABEL	9/10/2021	DC Calibration Date
ACCALDATE	LABEL	9/10/2021	AC Calibration Date
THERMOSELECT	IQUANT	1	Thermo Select
FRAMEWORKVERSION	QUANT	6.33	Framework Version
INSTRUMENTVERSION	LABEL	3.50	Instrument Version
COMPLIANCEVOLTAGE	IQUANT	0	Compliance Voltage
ZCURVE	TABLE
	Pt	Time	Freq	Zreal	Zimag	Zsig	Zmod	Zphz	Idc	Vdc	IERange
	#	s	Hz	ohm	ohm	V	ohm	°	A	V	#
	0	7	300046.9	50.93501	1.870768	1	50.96935	2.103444	2.535723E-005	-0.0006268	9
	1	10	238359.4	51.45364	1.343466	1	51.47118	1.495666	-6.073298E-005	0.0014656	9
	2	14	189328.1	51.91722	0.974013	1	51.92636	1.074794	-5.76608E-005	0.0011749	9
	3	16	150421.9	52.34256	0.4911385	1	52.34486	0.5375996	1.906077E-006	-0.0012314	9
	4	19	119484.4	52.66164	0.1412025	1	52.66183	0.1536277	-5.464974E-006	0.0003274	9
	5	21	94921.88	53.16639	0.0045441	1	53.16639	0.0048971	-1.449822E-005	-9.958275E-006	9
	6	24	75421.88	53.54966	-0.3101564	1	53.55056	-0.3318499	9.071076E-006	-0.0007636	9
	7	26	59859.37	53.98186	-0.6003718	1	53.9852	-0.637202	2.961183E-006	-0.0005969	9
	8	29	47578.12	54.44053	-0.8959186	1	54.4479	-0.9428219	-1.749738E-005	0.0002159	9
	9	31	37828.12	54.92773	-1.166174	1	54.94011	-1.216268	2.576302E-006	5.125521E-005	9
	10	34	30046.88	55.44434	-1.445539	1	55.46318	-1.493471	2.043158E-005	-0.000633	9
	11	36	23859.38	55.9776	-1.735154	1	56.00449	-1.775445	1.401488E-005	-0.000759	9
	12	39	18984.38	56.53417	-2.000404	1	56.56955	-2.026507	1.06928E-005	-0.0001189	9
	13	41	15046.87	57.04787	-2.334316	1	57.09561	-2.343153	-4.207862E-006	-0.0003592	9
	14	43	11953.13	57.69437	-2.652087	1	57.75529	-2.631912	-1.37574E-005	0.0005056	9
	15	46	9515.62	58.28954	-3.032745	1	58.36838	-2.978356	-1.389777E-005	-5.275164E-006	9
	16	48	7546.875	58.92284	-3.458815	1	59.02427	-3.35945	-1.047298E-005	0.0004116	9
	17	50	5928.309	59.64663	-3.984442	1	59.77957	-3.821726	1.99651E-005	-0.000639	9
	18	53	4733.456	60.3405	-4.581483	1	60.51418	-4.341975	1.980308E-005	-0.0007186	9
	19	55	3796.875	61.03945	-5.229384	1	61.26305	-4.896699	-3.512684E-006	0.0003166	9
	20	57	2987.132	61.82782	-6.139816	1	62.13193	-5.671168	8.796005E-006	-0.0007091	9
	21	60	2390.625	62.64544	-7.171872	1	63.05463	-6.53099	1.695425E-005	-0.0003054	9
	22	62	1884.191	63.5433	-8.397639	1	64.0958	-7.528365	1.871129E-005	-0.000484	9
	23	64	1516.544	64.46876	-9.82006	1	65.21238	-8.66088	2.349965E-006	-0.0005605	9
	24	67	1193.986	65.52707	-11.69552	1	66.56261	-10.1198	1.861403E-005	-0.00047	9
	25	69	946.5144	66.70158	-13.90735	1	68.136	-11.7775	3.70876E-006	0.0001417	9
	26	72	751.7689	67.96053	-16.61215	1	69.9614	-13.73593	1.880442E-005	-0.0008081	9
	27	74	597.4265	69.40016	-19.83294	1	72.17844	-15.94869	1.00934E-005	-0.0001301	9
	28	76	477.4305	71.01655	-23.64791	1	74.85034	-18.41733	3.963737E-007	-0.0001349	9
	29	78	376.6741	72.8739	-28.51963	1	78.25583	-21.37318	4.00452E-007	-0.0001352	9
	30	81	298.2954	74.96893	-34.36096	1	82.46827	-24.62369	4.690191E-007	-0.000136	9
	31	83	237.7717	77.33254	-41.24865	1	87.64573	-28.07516	3.699121E-007	-0.000133	9
	32	86	189.0121	80.05244	-49.69589	1	94.22354	-31.83167	4.215806E-007	-0.0001327	9
	33	88	150.2404	83.17783	-59.95425	1	102.5332	-35.78391	4.05951E-007	-0.0001325	9
	34	91	119.1737	86.78945	-72.56085	1	113.126	-39.89751	7.330646E-007	-0.000181	9
	35	93	95.0169	90.87241	-87.58886	1	126.2125	-43.94592	3.465173E-007	-0.0001345	9
	36	95	75.60484	95.6472	-106.0759	1	142.8303	-47.95945	3.878209E-007	-0.0001434	9
	37	98	54.50582	103.6743	-139.8647	1	174.0991	-53.4524	3.661997E-007	-0.0001395	9
	38	101	45.95588	108.8969	-161.8443	1	195.0696	-56.06536	3.767273E-007	-0.0001354	9
	39	103	37.20238	116.2008	-194.0375	1	226.1707	-59.08439	5.394286E-007	-0.0001427	9
	40	105	30.04808	124.9439	-233.4227	1	264.7587	-61.84124	3.675351E-007	-0.0001454	9
	41	108	23.91582	136.1804	-284.6603	1	315.5576	-64.43372	4.70592E-007	-0.0001423	9
	42	110	18.60119	151.2548	-354.4274	1	385.3528	-66.88924	2.586082E-007	-0.0001425	9
	43	112	15.02404	166.6102	-425.3747	1	456.8398	-68.61079	2.467472E-007	-0.0001307	8
	44	115	12.01923	186.9906	-517.0554	1	549.8289	-70.11772	3.238003E-007	-0.0001216	8
	45	117	9.450605	214.658	-637.7405	1	672.8975	-71.3972	3.023079E-007	-0.0001146	8
	46	120	7.512019	247.4026	-778.8621	1	817.2112	-72.37775	2.979233E-007	-0.0001061	8
	47	122	5.978954	288.2554	-949.2834	1	992.084	-73.10879	3.062169E-007	-0.0001287	8
	48	126	4.734848	340.5794	-1161.479	1	1210.384	-73.65733	2.842854E-007	-0.0001103	8
	49	129	3.75601	403.808	-1417.115	1	1473.525	-74.09506	2.727624E-007	-0.0001244	8
	50	132	3.004808	477.6956	-1714.981	1	1780.268	-74.4352	2.620829E-007	-9.03073E-005	8
	51	136	2.372217	571.511	-2096.893	1	2173.381	-74.75426	2.714531E-007	-8.927338E-005	8
	52	140	1.878005	690.3874	-2560.246	1	2651.696	-74.90876	2.842741E-007	-0.0001428	8
	53	145	1.512097	819.7938	-3079.956	1	3187.192	-75.09512	2.760907E-007	-1.457334E-005	8
	54	150	1.201923	982.83	-3746.381	1	3873.154	-75.30022	2.880896E-007	-0.0001403	8
	55	157	0.956633	1175.628	-4560.11	1	4709.215	-75.54354	1.244874E-008	-0.000656	7
