EXPLAIN
TAG	EISPOT
TITLE	LABEL	Potentiostatic EIS	Test Identifier
DATE	LABEL	10/12/2021	Date
TIME	LABEL	11:28:25	Time
NOTES	NOTES	1	Notes...
	
PSTAT	PSTAT	REF3000-16137	Potentiostat
VDC	POTEN	0.00000E+000	T	DC Voltage (V)
FREQINIT	QUANT	3.00000E+005	Initial Freq. (Hz)
FREQFINAL	QUANT	1.00000E+000	Final Freq. (Hz)
PTSPERDEC	QUANT	1.00000E+001	Points/decade
VAC	QUANT	5.00000E+001	AC Voltage (mV rms)
AREA	QUANT	1.00000E+000	Sample Area (cm^2)
SPEED	SELECTOR	2	Optimize for:
ZGUESS	QUANT	1.00000E+003	Estimated Z (ohms)
EOC	QUANT	0	Open Circuit (V)
SEQUENCER	TOGGLE	TRUE	Run as Sequence
PSTATMODEL	IQUANT	5	Pstat Model
PSTATSECTION	LABEL	REF3000-16137	Pstat Section
PSTATSERIALNO	LABEL	16137	Pstat Serial Number
CTRLMODE	IQUANT	1	Control Mode
IESTAB	IQUANT	0	I/E Stability
CASPEED	IQUANT	1	Control Amp Speed
CONVENTION	IQUANT	1	Current Convention
ICHRANGE	IQUANT	2	Ich Range
ICHRANGEMODE	TOGGLE	F	Ich Auto Range
ICHOFFSETENABLE	TOGGLE	T	Ich Offset Enable
ICHOFFSET	QUANT	0	Ich Offset (V)
ICHFILTER	IQUANT	3	Ich Filter
VCHRANGE	IQUANT	2	Vch Range
VCHRANGEMODE	TOGGLE	F	Vch Auto Range
VCHOFFSETENABLE	TOGGLE	T	Vch Offset Enable
VCHOFFSET	QUANT	0	Vch Offset (V)
VCHFILTER	IQUANT	3	Vch Filter
ACHRANGE	IQUANT	2	Ach Range
ACHOFFSETENABLE	TOGGLE	F	Ach Offset Enable
ACHOFFSET	QUANT	0	Ach Offset (V)
ACHFILTER	IQUANT	3	Ach Filter
IERANGELOWERLIMIT	IQUANT	2	I/E Range Lower Limit
IERANGEMODE	TOGGLE	F	I/E AutoRange
IERANGE	IQUANT	11	I/E Range
POSFEEDENABLE	TOGGLE	F	Positive Feedback IR Comp
POSFEEDRESISTANCE	QUANT	0	Positive Feedback Resistance (ohm)
ACHSELECT	IQUANT	0	Ach Select
CABLEID	IQUANT	13	Cable ID
DCCALDATE	LABEL	9/10/2021	DC Calibration Date
ACCALDATE	LABEL	9/10/2021	AC Calibration Date
THERMOSELECT	IQUANT	1	Thermo Select
FRAMEWORKVERSION	QUANT	6.33	Framework Version
INSTRUMENTVERSION	LABEL	3.50	Instrument Version
COMPLIANCEVOLTAGE	IQUANT	0	Compliance Voltage
ZCURVE	TABLE
	Pt	Time	Freq	Zreal	Zimag	Zsig	Zmod	Zphz	Idc	Vdc	IERange
	#	s	Hz	ohm	ohm	V	ohm	°	A	V	#
	0	10	300046.9	1.264296	2.39822	1	2.71107	62.20266	-1.038103E-005	-0.0006832	11
	1	13	238359.4	1.3672	1.789773	1	2.252226	52.62395	-0.0002605	-0.001209	12
	2	18	189328.1	1.192344	1.517462	1	1.929864	51.84156	-4.075618E-005	-0.0003555	11
	3	20	150421.9	1.165328	1.185625	1	1.662437	45.49465	-9.224007E-005	-0.0003507	11
	4	23	119484.4	1.15548	0.9280142	1	1.482007	38.76941	-8.298273E-005	-0.0001459	11
	5	25	94921.88	1.144829	0.7102638	1	1.34726	31.81589	-5.499163E-005	-5.335336E-005	11
	6	28	75421.88	1.14066	0.5338895	1	1.259422	25.08208	-7.789991E-005	7.430558E-007	11
	7	30	59859.37	1.141006	0.3837187	1	1.2038	18.58772	-7.072085E-005	0.0001071	11
	8	33	47578.12	1.141125	0.2548938	1	1.169246	12.5915	-8.620404E-005	0.000147	11
	9	35	37828.12	1.143977	0.1409134	1	1.152623	7.022238	-3.52117E-005	0.0002153	11
	10	38	30046.88	1.149029	0.0361767	1	1.149598	1.803341	-2.794274E-005	0.0002833	11
	11	41	23859.38	1.155614	-0.0655516	1	1.157471	-3.246593	-3.23957E-005	0.0003046	11
	12	43	18984.38	1.164159	-0.1675529	1	1.176155	-8.190118	-8.232141E-005	0.0003102	11
	13	45	15046.87	1.176273	-0.2773516	1	1.208529	-13.26736	-7.389228E-005	0.0003412	11
	14	48	11953.13	1.191112	-0.3972822	1	1.25562	-18.44555	-7.543916E-005	0.0003498	11
	15	50	9515.62	1.209428	-0.5319414	1	1.321241	-23.74129	-3.615332E-005	0.0003497	11
	16	52	7546.875	1.2346	-0.6917688	1	1.415196	-29.2627	-2.841956E-005	0.0003795	11
	17	54	5928.309	1.26811	-0.8886968	1	1.548511	-35.02293	-8.561012E-005	0.0003543	11
	18	57	4733.456	1.308125	-1.10826	1	1.714477	-40.27168	-2.556036E-005	0.0003821	11
	19	59	3796.875	1.358095	-1.365967	1	1.926211	-45.16556	-6.01123E-005	0.0003624	11
	20	61	2987.132	1.426042	-1.704363	1	2.222262	-50.08074	-5.038645E-005	0.0003615	11
	21	64	2390.625	1.506834	-2.085976	1	2.573294	-54.157	-7.205657E-005	0.000344	11
	22	66	1884.191	1.616384	-2.578498	1	3.043247	-57.91762	-7.375861E-005	0.0003523	11
	23	68	1516.544	1.740579	-3.12135	1	3.573855	-60.85436	-8.983403E-005	0.0003263	11
	24	71	1193.986	1.91414	-3.846822	1	4.29674	-63.54553	2.13309E-005	-0.0001553	10
	25	73	946.5144	2.119618	-4.701661	1	5.157363	-65.73304	-2.875559E-005	-0.0001465	10
	26	75	751.7689	2.374976	-5.727268	1	6.200171	-67.47726	-1.041577E-005	-0.0001565	10
	27	78	597.4265	2.680849	-6.965124	1	7.463236	-68.94848	-1.540503E-005	-0.0001415	10
	28	80	477.4305	3.049587	-8.429949	1	8.964598	-70.11209	-4.282816E-006	-0.0001383	10
	29	82	376.6741	3.517021	-10.29913	1	10.88309	-71.14562	-4.221942E-006	-0.0001358	10
	30	85	298.2954	4.073703	-12.53923	1	13.18436	-72.00223	-4.572594E-006	-0.0001342	10
	31	87	237.7717	4.723176	-15.1782	1	15.8961	-72.71482	-4.75762E-006	-0.0001378	10
	32	90	189.0121	5.505039	-18.41206	1	19.21742	-73.35381	-5.227734E-006	-0.0001405	10
	33	92	150.2404	6.43023	-22.34236	1	23.24928	-73.94395	-4.915913E-006	-0.0001399	10
	34	94	119.1737	7.528608	-27.17343	1	28.19708	-74.5142	-5.481626E-006	-0.0001287	10
	35	97	95.0169	8.792418	-32.94353	1	34.09666	-75.05644	-5.288076E-006	-0.0001366	10
	36	99	75.60484	10.28852	-40.0562	1	41.35641	-75.59486	-5.707893E-006	-0.0001366	10
	37	102	54.50582	12.91228	-53.0581	1	54.60667	-76.32231	-3.438836E-006	-0.0001556	9
	38	104	45.95588	14.59993	-61.57475	1	63.28197	-76.66099	-2.945323E-006	-0.0001493	9
	39	107	37.20238	17.10484	-74.07359	1	76.02283	-76.99735	-3.259754E-006	-0.000142	9
	40	109	30.04808	20.15897	-89.40184	1	91.64645	-77.29305	-3.43924E-006	-0.000143	9
	41	112	23.91582	24.27436	-109.4183	1	112.0786	-77.49156	-3.430541E-006	-0.0001528	9
	42	114	18.60119	30.11608	-136.5865	1	139.8673	-77.56576	-3.261728E-006	-0.0001556	9
	43	116	15.02404	36.69117	-164.7679	1	168.8037	-77.44598	-2.803691E-006	-0.0001426	9
	44	118	12.01923	45.39167	-200.4297	1	205.5054	-77.23938	-3.533841E-006	-0.0001508	9
	45	121	9.450605	57.45895	-247.1473	1	253.7387	-76.91188	-3.226181E-006	-0.0001427	9
	46	123	7.512019	72.78484	-301.655	1	310.3117	-76.43467	-3.170793E-006	-0.0001431	9
	47	126	5.978954	92.33316	-366.4974	1	377.9494	-75.85951	-3.233529E-006	-0.0001506	9
	48	129	4.734848	117.803	-445.0403	1	460.3676	-75.17374	-2.704288E-006	-0.0001357	8
	49	132	3.75601	150.7184	-540.1247	1	560.759	-74.40858	-2.866366E-006	-0.0001337	8
	50	136	3.004808	191.8087	-649.25	1	676.9905	-73.54121	-2.747403E-006	-0.000165	8
	51	140	2.372217	247.9205	-787.3937	1	825.502	-72.52276	-2.837515E-006	-0.0001645	8
	52	144	1.878005	323.3714	-950.252	1	1003.767	-71.20652	-2.924853E-006	-0.0001182	8
	53	149	1.512097	412.7769	-1127.959	1	1201.114	-69.89988	-2.879694E-006	-0.0002367	8
	54	154	1.201923	537.9975	-1346.91	1	1450.382	-68.22671	-2.88764E-006	-0.0001203	8
	55	160	0.956633	700.1385	-1594.809	1	1741.726	-66.298	-2.913127E-006	-0.0006804	8
