EXPLAIN
TAG	EISPOT
TITLE	LABEL	Potentiostatic EIS	Test Identifier
DATE	LABEL	10/12/2021	Date
TIME	LABEL	11:19:31	Time
NOTES	NOTES	1	Notes...
	
PSTAT	PSTAT	REF3000-16137	Potentiostat
VDC	POTEN	0.00000E+000	T	DC Voltage (V)
FREQINIT	QUANT	3.00000E+005	Initial Freq. (Hz)
FREQFINAL	QUANT	1.00000E+000	Final Freq. (Hz)
PTSPERDEC	QUANT	1.00000E+001	Points/decade
VAC	QUANT	5.00000E+001	AC Voltage (mV rms)
AREA	QUANT	1.00000E+000	Sample Area (cm^2)
SPEED	SELECTOR	2	Optimize for:
ZGUESS	QUANT	1.00000E+003	Estimated Z (ohms)
EOC	QUANT	0	Open Circuit (V)
SEQUENCER	TOGGLE	TRUE	Run as Sequence
PSTATMODEL	IQUANT	5	Pstat Model
PSTATSECTION	LABEL	REF3000-16137	Pstat Section
PSTATSERIALNO	LABEL	16137	Pstat Serial Number
CTRLMODE	IQUANT	1	Control Mode
IESTAB	IQUANT	0	I/E Stability
CASPEED	IQUANT	1	Control Amp Speed
CONVENTION	IQUANT	1	Current Convention
ICHRANGE	IQUANT	2	Ich Range
ICHRANGEMODE	TOGGLE	F	Ich Auto Range
ICHOFFSETENABLE	TOGGLE	T	Ich Offset Enable
ICHOFFSET	QUANT	0	Ich Offset (V)
ICHFILTER	IQUANT	3	Ich Filter
VCHRANGE	IQUANT	2	Vch Range
VCHRANGEMODE	TOGGLE	F	Vch Auto Range
VCHOFFSETENABLE	TOGGLE	T	Vch Offset Enable
VCHOFFSET	QUANT	0	Vch Offset (V)
VCHFILTER	IQUANT	3	Vch Filter
ACHRANGE	IQUANT	2	Ach Range
ACHOFFSETENABLE	TOGGLE	F	Ach Offset Enable
ACHOFFSET	QUANT	0	Ach Offset (V)
ACHFILTER	IQUANT	3	Ach Filter
IERANGELOWERLIMIT	IQUANT	2	I/E Range Lower Limit
IERANGEMODE	TOGGLE	F	I/E AutoRange
IERANGE	IQUANT	11	I/E Range
POSFEEDENABLE	TOGGLE	F	Positive Feedback IR Comp
POSFEEDRESISTANCE	QUANT	0	Positive Feedback Resistance (ohm)
ACHSELECT	IQUANT	0	Ach Select
CABLEID	IQUANT	13	Cable ID
DCCALDATE	LABEL	9/10/2021	DC Calibration Date
ACCALDATE	LABEL	9/10/2021	AC Calibration Date
THERMOSELECT	IQUANT	1	Thermo Select
FRAMEWORKVERSION	QUANT	6.33	Framework Version
INSTRUMENTVERSION	LABEL	3.50	Instrument Version
COMPLIANCEVOLTAGE	IQUANT	0	Compliance Voltage
ZCURVE	TABLE
	Pt	Time	Freq	Zreal	Zimag	Zsig	Zmod	Zphz	Idc	Vdc	IERange
	#	s	Hz	ohm	ohm	V	ohm	°	A	V	#
	0	10	300046.9	1.246997	2.41607	1	2.718896	62.70055	-5.087286E-005	-0.0007406	11
	1	13	238359.4	1.355103	1.796473	1	2.250249	52.97227	-0.0001874	-0.0011677	12
	2	18	189328.1	1.159222	1.514169	1	1.906961	52.56295	-1.919933E-005	-0.0003538	11
	3	20	150421.9	1.142087	1.197084	1	1.654501	46.34686	-5.916923E-005	-0.00032	11
	4	23	119484.4	1.133271	0.931227	1	1.466795	39.4105	-0.0001265	-0.0001174	11
	5	25	94921.88	1.124575	0.7155921	1	1.332945	32.4695	-6.771322E-005	-4.803305E-005	11
	6	28	75421.88	1.119295	0.53803	1	1.241893	25.67297	-5.035527E-005	6.559496E-006	11
	7	30	59859.37	1.117756	0.3872682	1	1.182944	19.10963	-7.454466E-005	5.219589E-005	11
	8	33	47578.12	1.118964	0.2603853	1	1.14886	13.09973	-9.437867E-005	0.000119	11
	9	35	37828.12	1.122508	0.1487122	1	1.132316	7.546719	-6.525998E-005	0.000204	11
	10	38	30046.88	1.126775	0.0451154	1	1.127678	2.292866	-7.783328E-005	0.0002481	11
	11	40	23859.38	1.133712	-0.0541543	1	1.135005	-2.734783	-0.0000986	0.0003102	11
	12	43	18984.38	1.142269	-0.1535313	1	1.152541	-7.655191	-7.511076E-005	0.0003097	11
	13	45	15046.87	1.153701	-0.2599238	1	1.182619	-12.69651	-6.004972E-005	0.0003324	11
	14	47	11953.13	1.168299	-0.375388	1	1.227126	-17.81281	-2.871638E-005	0.0003469	11
	15	50	9515.62	1.187318	-0.5049543	1	1.290234	-23.03955	-5.27457E-005	0.0003515	11
	16	52	7546.875	1.212074	-0.6571054	1	1.378735	-28.46359	-0.0001249	0.0003708	11
	17	54	5928.309	1.24547	-0.844738	1	1.504918	-34.14701	-2.494335E-005	0.0003669	11
	18	57	4733.456	1.285332	-1.053895	1	1.662159	-39.34969	-8.515702E-005	0.0003234	11
	19	59	3796.875	1.33469	-1.298441	1	1.862081	-44.21129	-5.447998E-005	0.0003436	11
	20	61	2987.132	1.402594	-1.618055	1	2.141348	-49.07997	-4.98552E-005	0.0003471	11
	21	64	2390.625	1.482687	-1.976242	1	2.470605	-53.12072	-2.085759E-005	0.000359	11
	22	66	1884.191	1.58947	-2.442286	1	2.913962	-56.94343	-7.911833E-005	0.0003371	11
	23	68	1516.544	1.710698	-2.95281	1	3.412561	-59.91432	-8.873881E-005	0.0003162	11
	24	71	1193.986	1.877507	-3.630694	1	4.087417	-62.65558	-2.565129E-005	0.0003634	11
	25	73	946.5144	2.078506	-4.433426	1	4.896473	-64.88159	-1.33898E-005	-0.0001718	10
	26	75	751.7689	2.32205	-5.398975	1	5.877146	-66.7279	-1.943239E-005	-0.0001625	10
	27	78	597.4265	2.618072	-6.561957	1	7.064955	-68.24912	-5.71051E-006	-0.0001771	10
	28	80	477.4305	2.969493	-7.933344	1	8.470882	-69.47886	-7.640222E-006	-0.0001546	10
	29	82	376.6741	3.419201	-9.68554	1	10.27135	-70.55589	-8.09149E-006	-0.0001496	10
	30	85	298.2954	3.956281	-11.78358	1	12.43	-71.44077	-7.844905E-006	-0.0001466	10
	31	87	237.7717	4.58293	-14.25227	1	14.97099	-72.1744	-7.40305E-006	-0.0001502	10
	32	89	189.0121	5.337151	-17.27597	1	18.0816	-72.83226	-7.605457E-006	-0.0001574	10
	33	92	150.2404	6.233947	-20.94723	1	21.85517	-73.42686	-8.064747E-006	-0.0001456	10
	34	94	119.1737	7.304685	-25.46061	1	26.48775	-73.99174	-7.900382E-006	-0.0001483	10
	35	97	95.0169	8.543717	-30.84664	1	32.00797	-74.51865	-8.708947E-006	-0.000146	10
	36	99	75.60484	10.0281	-37.47279	1	38.7914	-75.01813	-8.391585E-006	-0.000148	10
	37	102	54.50582	12.68374	-49.56822	1	51.16528	-75.64687	-7.032583E-006	-0.0001664	9
	38	104	45.95588	14.40346	-57.45093	1	59.22895	-75.92554	-6.530263E-006	-0.000159	9
	39	107	37.20238	16.95469	-69.0171	1	71.06913	-76.19807	-6.660454E-006	-0.0001623	9
	40	109	30.04808	20.08573	-83.0849	1	85.47829	-76.40953	-7.178318E-006	-0.0001606	9
	41	111	23.91582	24.3517	-101.4014	1	104.2845	-76.49606	-7.113204E-006	-0.0001608	9
	42	114	18.60119	30.25677	-126.1506	1	129.7283	-76.51258	-6.819641E-006	-0.0001633	9
	43	116	15.02404	36.74958	-151.8764	1	156.2593	-76.39757	-6.630074E-006	-0.0001499	9
	44	118	12.01923	45.39076	-184.294	1	189.8015	-76.1637	-7.32012E-006	-0.0001638	9
	45	121	9.450605	57.40121	-226.7184	1	233.872	-75.79224	-7.341667E-006	-0.0001223	9
	46	123	7.512019	72.33805	-276.1437	1	285.4613	-75.32076	-6.751678E-006	-0.0001385	9
	47	126	5.978954	91.87465	-335.3132	1	347.6721	-74.67722	-6.768379E-006	-0.0001539	9
	48	129	4.734848	118.46	-408.4074	1	425.2404	-73.82501	-6.814259E-006	-0.0001525	9
	49	132	3.75601	152.4438	-492.7271	1	515.7704	-72.80856	-6.484231E-006	-0.0001217	8
	50	136	3.004808	196.3725	-590.8115	1	622.5917	-71.61435	-6.658348E-006	-7.221251E-005	8
	51	140	2.372217	257.9455	-712.212	1	757.4839	-70.09087	-6.604838E-006	-0.0001178	8
	52	144	1.878005	340.8105	-852.9702	1	918.5368	-68.22045	-6.545787E-006	-0.0001546	8
	53	153	1.512097	437.9636	-1002.739	1	1094.211	-66.40586	-6.494484E-006	-5.44041E-005	8
	54	163	1.201923	575.2099	-1180.375	1	1313.07	-64.01952	-6.311061E-006	-0.000137	8
	55	176	0.956633	748.3614	-1370.99	1	1561.941	-61.37187	-6.430141E-006	-0.000676	8
