EXPLAIN
TAG	EISPOT
TITLE	LABEL	Potentiostatic EIS	Test Identifier
DATE	LABEL	10/12/2021	Date
TIME	LABEL	12:22:15	Time
NOTES	NOTES	1	Notes...
	
PSTAT	PSTAT	REF3000-16137	Potentiostat
VDC	POTEN	0.00000E+000	T	DC Voltage (V)
FREQINIT	QUANT	3.00000E+005	Initial Freq. (Hz)
FREQFINAL	QUANT	1.00000E+000	Final Freq. (Hz)
PTSPERDEC	QUANT	1.00000E+001	Points/decade
VAC	QUANT	5.00000E+001	AC Voltage (mV rms)
AREA	QUANT	1.00000E+000	Sample Area (cm^2)
SPEED	SELECTOR	2	Optimize for:
ZGUESS	QUANT	1.00000E+003	Estimated Z (ohms)
EOC	QUANT	0	Open Circuit (V)
SEQUENCER	TOGGLE	TRUE	Run as Sequence
PSTATMODEL	IQUANT	5	Pstat Model
PSTATSECTION	LABEL	REF3000-16137	Pstat Section
PSTATSERIALNO	LABEL	16137	Pstat Serial Number
CTRLMODE	IQUANT	1	Control Mode
IESTAB	IQUANT	0	I/E Stability
CASPEED	IQUANT	1	Control Amp Speed
CONVENTION	IQUANT	1	Current Convention
ICHRANGE	IQUANT	2	Ich Range
ICHRANGEMODE	TOGGLE	F	Ich Auto Range
ICHOFFSETENABLE	TOGGLE	T	Ich Offset Enable
ICHOFFSET	QUANT	0	Ich Offset (V)
ICHFILTER	IQUANT	3	Ich Filter
VCHRANGE	IQUANT	2	Vch Range
VCHRANGEMODE	TOGGLE	F	Vch Auto Range
VCHOFFSETENABLE	TOGGLE	T	Vch Offset Enable
VCHOFFSET	QUANT	0	Vch Offset (V)
VCHFILTER	IQUANT	3	Vch Filter
ACHRANGE	IQUANT	2	Ach Range
ACHOFFSETENABLE	TOGGLE	F	Ach Offset Enable
ACHOFFSET	QUANT	0	Ach Offset (V)
ACHFILTER	IQUANT	3	Ach Filter
IERANGELOWERLIMIT	IQUANT	2	I/E Range Lower Limit
IERANGEMODE	TOGGLE	F	I/E AutoRange
IERANGE	IQUANT	11	I/E Range
POSFEEDENABLE	TOGGLE	F	Positive Feedback IR Comp
POSFEEDRESISTANCE	QUANT	0	Positive Feedback Resistance (ohm)
ACHSELECT	IQUANT	0	Ach Select
CABLEID	IQUANT	13	Cable ID
DCCALDATE	LABEL	9/10/2021	DC Calibration Date
ACCALDATE	LABEL	9/10/2021	AC Calibration Date
THERMOSELECT	IQUANT	1	Thermo Select
FRAMEWORKVERSION	QUANT	6.33	Framework Version
INSTRUMENTVERSION	LABEL	3.50	Instrument Version
COMPLIANCEVOLTAGE	IQUANT	0	Compliance Voltage
ZCURVE	TABLE
	Pt	Time	Freq	Zreal	Zimag	Zsig	Zmod	Zphz	Idc	Vdc	IERange
	#	s	Hz	ohm	ohm	V	ohm	°	A	V	#
	0	10	300046.9	2.486527	2.355401	1	3.425016	43.44873	3.051383E-006	-0.000418	11
	1	13	238359.4	2.453049	1.876169	1	3.088278	37.40989	-7.196092E-005	-0.0004736	11
	2	16	189328.1	2.422773	1.482056	1	2.840126	31.45491	-0.0001804	-0.00046	11
	3	19	150421.9	2.463276	1.023959	1	2.667625	22.57216	-9.202737E-005	-0.0004278	12
	4	23	119484.4	2.412854	0.8897089	1	2.571662	20.2408	-8.747551E-005	0.0001572	11
	5	26	94921.88	2.432464	0.5824308	1	2.501221	13.46543	-0.0001115	-0.0002863	12
	6	30	75421.88	2.429834	0.4172737	1	2.465403	9.74431	-0.0001507	-0.0002351	12
	7	33	59859.37	2.434535	0.2729771	1	2.449791	6.397683	-0.0001208	-0.0002107	12
	8	37	47578.12	2.440868	0.189428	1	2.448208	4.437647	-7.166204E-005	0.0003044	11
	9	41	37828.12	2.453658	0.0638397	1	2.454488	1.490395	-7.472991E-005	0.0003273	11
	10	43	30046.88	2.467164	-0.0568418	1	2.467818	-1.319822	-5.355113E-005	0.0003478	11
	11	46	23859.38	2.483157	-0.1776321	1	2.489503	-4.091671	-3.029717E-005	0.0003513	11
	12	48	18984.38	2.503569	-0.3025899	1	2.521789	-6.891536	-4.773797E-005	0.000361	11
	13	50	15046.87	2.525493	-0.4407622	1	2.563667	-9.89985	-3.118455E-005	0.0003583	11
	14	53	11953.13	2.553627	-0.5957912	1	2.622209	-13.13285	-4.368282E-005	0.0003792	11
	15	55	9515.62	2.58565	-0.7727343	1	2.698649	-16.63903	-2.150658E-005	0.0004024	11
	16	57	7546.875	2.623112	-0.983678	1	2.801489	-20.55626	-2.455793E-005	0.0003931	11
	17	60	5928.309	2.66944	-1.249924	1	2.947579	-25.09063	-5.264475E-005	0.0003534	11
	18	62	4733.456	2.721322	-1.550021	1	3.131799	-29.66514	-7.499681E-005	0.0003498	11
	19	64	3796.875	2.781398	-1.904625	1	3.371019	-34.40228	-1.989902E-005	0.0003901	11
	20	67	2987.132	2.859077	-2.38113	1	3.720767	-39.78861	-8.271037E-005	0.0003433	11
	21	69	2390.625	2.952472	-2.925471	1	4.156377	-44.73681	-1.934804E-005	-0.0001101	10
	22	71	1884.191	3.069248	-3.639985	1	4.761279	-49.8623	-2.376864E-005	-0.0001209	10
	23	74	1516.544	3.20441	-4.437784	1	5.473771	-54.16792	2.517759E-005	-0.00014	10
	24	76	1193.986	3.391463	-5.517397	1	6.476395	-58.42157	2.307624E-005	-0.0001396	10
	25	79	946.5144	3.622868	-6.813117	1	7.716458	-61.99823	-7.743175E-006	-0.0001411	10
	26	81	751.7689	3.914745	-8.389112	1	9.257561	-64.98409	1.722608E-005	-0.0001298	10
	27	83	597.4265	4.280405	-10.31796	1	11.1706	-67.46889	-2.511521E-005	-0.0001219	10
	28	85	477.4305	4.746845	-12.61895	1	13.48223	-69.38531	-6.441183E-007	-0.0001237	10
	29	88	376.6741	5.361139	-15.57894	1	16.47559	-71.01025	-1.96226E-007	-0.0001183	10
	30	90	298.2954	6.130044	-19.14839	1	20.10568	-72.24838	-1.962386E-007	-0.0001083	10
	31	92	237.7717	7.071075	-23.36886	1	24.41523	-73.16496	-6.508328E-007	-0.0001179	10
	32	95	189.0121	8.262094	-28.55786	1	29.729	-73.86428	-1.217753E-006	-0.0001195	10
	33	97	150.2404	9.74064	-34.84453	1	36.1804	-74.3819	-1.45291E-006	-0.0001157	10
	34	100	119.1737	11.56421	-42.49047	1	44.03602	-74.77514	3.048019E-007	-0.0001408	9
	35	102	95.0169	13.75897	-51.59176	1	53.39493	-75.06738	2.348327E-007	-0.0001373	9
	36	105	75.60484	16.4421	-62.70694	1	64.82671	-75.30748	-1.712871E-008	-0.0001318	9
	37	107	54.50582	21.27084	-82.81255	1	85.50068	-75.59468	3.632857E-007	-0.0001784	9
	38	110	45.95588	24.33788	-95.7284	1	98.7738	-75.7354	6.169503E-007	-0.0001678	9
	39	112	37.20238	28.76494	-114.5055	1	118.0632	-75.89851	1.648501E-007	-0.0001404	9
	40	114	30.04808	33.94352	-137.2043	1	141.3407	-76.10438	6.32623E-008	-0.0001272	9
	41	117	23.91582	40.41555	-166.4468	1	171.2833	-76.35194	-2.581754E-008	-0.0001305	9
	42	119	18.60119	48.86685	-206.2795	1	211.9887	-76.67253	1.840865E-007	-0.0001338	9
	43	121	15.02404	57.06431	-247.5991	1	254.0898	-77.02163	2.502267E-007	-0.0001315	9
	44	124	12.01923	66.99094	-300.1029	1	307.4891	-77.41637	1.860369E-007	-0.0001749	9
	45	126	9.450605	79.32218	-369.955	1	378.3633	-77.89841	2.9217E-007	-0.0001518	9
	46	129	7.512019	92.52436	-450.3968	1	459.8021	-78.39131	6.141463E-007	-0.0001357	8
	47	132	5.978954	108.4305	-551.1803	1	561.7445	-78.87066	6.127614E-007	-0.0001157	8
	48	135	4.734848	127.9346	-678.9955	1	690.9429	-79.32957	6.478825E-007	-0.0001406	8
	49	138	3.75601	150.7964	-836.5597	1	850.0422	-79.78172	6.122791E-007	-0.0001213	8
	50	141	3.004808	177.4855	-1023.505	1	1038.78	-80.16219	6.794655E-007	-0.0001766	8
	51	145	2.372217	214.0118	-1268.114	1	1286.046	-80.4208	6.348193E-007	-0.000107	8
	52	149	1.878005	259.6655	-1574.842	1	1596.106	-80.63711	5.65511E-007	-0.0001263	8
	53	154	1.512097	310.8427	-1917.425	1	1942.458	-80.79163	6.335087E-007	-0.0001551	8
	54	160	1.201923	387.6753	-2375.904	1	2407.325	-80.73274	5.825165E-007	-0.0001363	8
	55	166	0.956633	486.4612	-2930.124	1	2970.231	-80.57369	5.832095E-007	-0.0006687	8
