EXPLAIN
TAG	EISPOT
TITLE	LABEL	Potentiostatic EIS	Test Identifier
DATE	LABEL	10/12/2021	Date
TIME	LABEL	11:31:16	Time
NOTES	NOTES	1	Notes...
	
PSTAT	PSTAT	REF3000-16137	Potentiostat
VDC	POTEN	0.00000E+000	T	DC Voltage (V)
FREQINIT	QUANT	3.00000E+005	Initial Freq. (Hz)
FREQFINAL	QUANT	1.00000E+000	Final Freq. (Hz)
PTSPERDEC	QUANT	1.00000E+001	Points/decade
VAC	QUANT	5.00000E+001	AC Voltage (mV rms)
AREA	QUANT	1.00000E+000	Sample Area (cm^2)
SPEED	SELECTOR	2	Optimize for:
ZGUESS	QUANT	1.00000E+003	Estimated Z (ohms)
EOC	QUANT	0	Open Circuit (V)
SEQUENCER	TOGGLE	TRUE	Run as Sequence
PSTATMODEL	IQUANT	5	Pstat Model
PSTATSECTION	LABEL	REF3000-16137	Pstat Section
PSTATSERIALNO	LABEL	16137	Pstat Serial Number
CTRLMODE	IQUANT	1	Control Mode
IESTAB	IQUANT	0	I/E Stability
CASPEED	IQUANT	1	Control Amp Speed
CONVENTION	IQUANT	1	Current Convention
ICHRANGE	IQUANT	2	Ich Range
ICHRANGEMODE	TOGGLE	F	Ich Auto Range
ICHOFFSETENABLE	TOGGLE	T	Ich Offset Enable
ICHOFFSET	QUANT	0	Ich Offset (V)
ICHFILTER	IQUANT	3	Ich Filter
VCHRANGE	IQUANT	2	Vch Range
VCHRANGEMODE	TOGGLE	F	Vch Auto Range
VCHOFFSETENABLE	TOGGLE	T	Vch Offset Enable
VCHOFFSET	QUANT	0	Vch Offset (V)
VCHFILTER	IQUANT	3	Vch Filter
ACHRANGE	IQUANT	2	Ach Range
ACHOFFSETENABLE	TOGGLE	F	Ach Offset Enable
ACHOFFSET	QUANT	0	Ach Offset (V)
ACHFILTER	IQUANT	3	Ach Filter
IERANGELOWERLIMIT	IQUANT	2	I/E Range Lower Limit
IERANGEMODE	TOGGLE	F	I/E AutoRange
IERANGE	IQUANT	11	I/E Range
POSFEEDENABLE	TOGGLE	F	Positive Feedback IR Comp
POSFEEDRESISTANCE	QUANT	0	Positive Feedback Resistance (ohm)
ACHSELECT	IQUANT	0	Ach Select
CABLEID	IQUANT	13	Cable ID
DCCALDATE	LABEL	9/10/2021	DC Calibration Date
ACCALDATE	LABEL	9/10/2021	AC Calibration Date
THERMOSELECT	IQUANT	1	Thermo Select
FRAMEWORKVERSION	QUANT	6.33	Framework Version
INSTRUMENTVERSION	LABEL	3.50	Instrument Version
COMPLIANCEVOLTAGE	IQUANT	0	Compliance Voltage
ZCURVE	TABLE
	Pt	Time	Freq	Zreal	Zimag	Zsig	Zmod	Zphz	Idc	Vdc	IERange
	#	s	Hz	ohm	ohm	V	ohm	°	A	V	#
	0	10	300046.9	1.271568	2.399319	1	2.71544	62.07773	1.358084E-006	-0.0006816	11
	1	13	238359.4	1.378398	1.790992	1	2.260008	52.4171	-0.0002153	-0.0011618	12
	2	17	189328.1	1.19631	1.512451	1	1.928384	51.65691	-6.863654E-005	-0.0004267	11
	3	20	150421.9	1.173546	1.184957	1	1.667733	45.27721	-8.68034E-005	-0.0003415	11
	4	22	119484.4	1.162363	0.9274378	1	1.48702	38.58602	-3.546879E-005	-0.0001213	11
	5	25	94921.88	1.154704	0.7120379	1	1.356591	31.6597	-5.072638E-005	-4.691234E-005	11
	6	27	75421.88	1.148846	0.5322305	1	1.266142	24.85707	-0.0001004	-4.655019E-006	11
	7	30	59859.37	1.149489	0.3819511	1	1.211285	18.38056	-6.333505E-005	0.0001084	11
	8	32	47578.12	1.149981	0.2530484	1	1.177493	12.40992	-4.459395E-005	0.00019	11
	9	35	37828.12	1.153103	0.139029	1	1.161454	6.874935	-2.579464E-005	0.0002474	11
	10	37	30046.88	1.157822	0.0333244	1	1.158301	1.64863	-4.24028E-005	0.0002778	11
	11	40	23859.38	1.164162	-0.0691515	1	1.166214	-3.399386	-2.674767E-005	0.0003095	11
	12	42	18984.38	1.173654	-0.1718208	1	1.186164	-8.328832	-7.150196E-005	0.0003287	11
	13	45	15046.87	1.184373	-0.282753	1	1.217657	-13.42726	-7.136132E-005	0.0003102	11
	14	47	11953.13	1.199298	-0.4040709	1	1.265539	-18.61985	-9.439072E-005	0.0003216	11
	15	49	9515.62	1.218597	-0.5407878	1	1.333203	-23.93065	-3.101326E-005	0.0003847	11
	16	52	7546.875	1.243676	-0.7023925	1	1.428316	-29.45651	-5.689376E-005	0.0003556	11
	17	54	5928.309	1.277078	-0.9021809	1	1.563604	-35.23897	-7.366571E-005	0.0003546	11
	18	56	4733.456	1.317136	-1.125272	1	1.732364	-40.50835	-2.628692E-005	0.0003816	11
	19	59	3796.875	1.366604	-1.387404	1	1.947433	-45.43272	-2.906794E-005	0.0003744	11
	20	61	2987.132	1.435433	-1.731	1	2.24874	-50.33275	-3.847339E-005	0.0003572	11
	21	63	2390.625	1.516073	-2.119059	1	2.60555	-54.4183	-3.385649E-005	0.0003785	11
	22	65	1884.191	1.627339	-2.620567	1	3.084737	-58.16023	-7.093078E-005	0.0003554	11
	23	68	1516.544	1.752169	-3.172922	1	3.624573	-61.0914	-2.539549E-005	0.0003768	11
	24	70	1193.986	1.927482	-3.913125	1	4.362079	-63.7766	1.349214E-005	-0.0001631	10
	25	73	946.5144	2.138521	-4.784328	1	5.240521	-65.91609	-1.77518E-005	-0.0001317	10
	26	75	751.7689	2.394081	-5.831821	1	6.304107	-67.68085	1.259627E-005	-0.0001682	10
	27	77	597.4265	2.704466	-7.094195	1	7.592216	-69.13203	1.860313E-005	-0.0001536	10
	28	80	477.4305	3.079029	-8.587405	1	9.122716	-70.27461	-3.852299E-006	-0.0001323	10
	29	82	376.6741	3.555699	-10.49446	1	11.08047	-71.28276	-3.721123E-006	-0.0001363	10
	30	84	298.2954	4.12445	-12.78049	1	13.42952	-72.11435	-3.721977E-006	-0.000135	10
	31	87	237.7717	4.789282	-15.47279	1	16.19705	-72.80117	-4.278842E-006	-0.0001362	10
	32	89	189.0121	5.593733	-18.77337	1	19.58901	-73.408	-4.135039E-006	-0.000131	10
	33	91	150.2404	6.549183	-22.77941	1	23.70218	-73.95982	-4.339778E-006	-0.0001377	10
	34	94	119.1737	7.68848	-27.70616	1	28.75316	-74.49062	-4.890298E-006	-0.0001318	10
	35	96	95.0169	8.99809	-33.57312	1	34.75802	-74.9965	-5.204424E-006	-0.0001335	10
	36	99	75.60484	10.55461	-40.79867	1	42.1418	-75.49558	-4.509476E-006	-0.0001394	10
	37	101	54.50582	13.28404	-54.00085	1	55.61076	-76.17983	-2.940639E-006	-0.0001545	9
	38	104	45.95588	15.02122	-62.60773	1	64.38451	-76.50828	-2.426146E-006	-0.0001415	9
	39	106	37.20238	17.58268	-75.28342	1	77.30941	-76.85403	-2.601216E-006	-0.0001465	9
	40	109	30.04808	20.70528	-90.83531	1	93.16525	-77.15922	-2.960179E-006	-0.0001382	9
	41	111	23.91582	24.95119	-111.1518	1	113.9179	-77.34806	-3.166498E-006	-0.0001498	9
	42	113	18.60119	30.826	-138.6471	1	142.0326	-77.46508	-3.00003E-006	-0.0001429	9
	43	116	15.02404	37.35196	-167.4056	1	171.522	-77.42204	-2.674015E-006	-0.0001511	9
	44	118	12.01923	46.07227	-203.5899	1	208.7379	-77.24877	-2.516865E-006	-0.000142	9
	45	120	9.450605	58.25036	-251.2128	1	257.8778	-76.94516	-2.89408E-006	-0.0001395	9
	46	123	7.512019	73.47472	-306.4439	1	315.1292	-76.51696	-2.592566E-006	-0.0001413	9
	47	126	5.978954	92.88229	-372.5004	1	383.9058	-75.99891	-2.627128E-006	-0.00015	9
	48	129	4.734848	117.9853	-452.3998	1	467.532	-75.38293	-2.054092E-006	-0.0001143	8
	49	132	3.75601	150.5793	-549.3698	1	569.6326	-74.67199	-2.299931E-006	-0.0001457	8
	50	135	3.004808	190.8491	-661.1054	1	688.1016	-73.89754	-2.169744E-006	-0.0001558	8
	51	139	2.372217	246.1364	-802.1903	1	839.1022	-72.94239	-2.236561E-006	-0.0001307	8
	52	143	1.878005	319.1863	-971.168	1	1022.276	-71.80626	-2.349922E-006	-0.0001291	8
	53	148	1.512097	405.2996	-1155.157	1	1224.196	-70.66602	-2.285549E-006	-0.000238	8
	54	153	1.201923	526.4261	-1383.59	1	1480.353	-69.16926	-2.322499E-006	-0.0001267	8
	55	160	0.956633	683.8263	-1644.825	1	1781.311	-67.42519	-2.363178E-006	-0.000674	8
