EXPLAIN
TAG	EISPOT
TITLE	LABEL	Potentiostatic EIS	Test Identifier
DATE	LABEL	10/12/2021	Date
TIME	LABEL	11:13:07	Time
NOTES	NOTES	1	Notes...
	
PSTAT	PSTAT	REF3000-16137	Potentiostat
VDC	POTEN	0.00000E+000	T	DC Voltage (V)
FREQINIT	QUANT	3.00000E+005	Initial Freq. (Hz)
FREQFINAL	QUANT	1.00000E+000	Final Freq. (Hz)
PTSPERDEC	QUANT	1.00000E+001	Points/decade
VAC	QUANT	5.00000E+001	AC Voltage (mV rms)
AREA	QUANT	1.00000E+000	Sample Area (cm^2)
SPEED	SELECTOR	2	Optimize for:
ZGUESS	QUANT	1.00000E+003	Estimated Z (ohms)
EOC	QUANT	0	Open Circuit (V)
SEQUENCER	TOGGLE	TRUE	Run as Sequence
PSTATMODEL	IQUANT	5	Pstat Model
PSTATSECTION	LABEL	REF3000-16137	Pstat Section
PSTATSERIALNO	LABEL	16137	Pstat Serial Number
CTRLMODE	IQUANT	1	Control Mode
IESTAB	IQUANT	0	I/E Stability
CASPEED	IQUANT	1	Control Amp Speed
CONVENTION	IQUANT	1	Current Convention
ICHRANGE	IQUANT	2	Ich Range
ICHRANGEMODE	TOGGLE	F	Ich Auto Range
ICHOFFSETENABLE	TOGGLE	T	Ich Offset Enable
ICHOFFSET	QUANT	0	Ich Offset (V)
ICHFILTER	IQUANT	3	Ich Filter
VCHRANGE	IQUANT	2	Vch Range
VCHRANGEMODE	TOGGLE	F	Vch Auto Range
VCHOFFSETENABLE	TOGGLE	T	Vch Offset Enable
VCHOFFSET	QUANT	0	Vch Offset (V)
VCHFILTER	IQUANT	3	Vch Filter
ACHRANGE	IQUANT	2	Ach Range
ACHOFFSETENABLE	TOGGLE	F	Ach Offset Enable
ACHOFFSET	QUANT	0	Ach Offset (V)
ACHFILTER	IQUANT	1	Ach Filter
IERANGELOWERLIMIT	IQUANT	2	I/E Range Lower Limit
IERANGEMODE	TOGGLE	F	I/E AutoRange
IERANGE	IQUANT	11	I/E Range
POSFEEDENABLE	TOGGLE	F	Positive Feedback IR Comp
POSFEEDRESISTANCE	QUANT	0	Positive Feedback Resistance (ohm)
ACHSELECT	IQUANT	0	Ach Select
CABLEID	IQUANT	13	Cable ID
DCCALDATE	LABEL	9/10/2021	DC Calibration Date
ACCALDATE	LABEL	9/10/2021	AC Calibration Date
THERMOSELECT	IQUANT	1	Thermo Select
FRAMEWORKVERSION	QUANT	6.33	Framework Version
INSTRUMENTVERSION	LABEL	3.50	Instrument Version
COMPLIANCEVOLTAGE	IQUANT	0	Compliance Voltage
ZCURVE	TABLE
	Pt	Time	Freq	Zreal	Zimag	Zsig	Zmod	Zphz	Idc	Vdc	IERange
	#	s	Hz	ohm	ohm	V	ohm	°	A	V	#
	0	10	300046.9	1.247196	2.413709	1	2.716889	62.67399	-4.955019E-005	-0.0007876	11
	1	14	238359.4	1.342334	1.794603	1	2.241084	53.20411	-0.0001642	-0.0012204	12
	2	18	189328.1	1.159673	1.514871	1	1.907793	52.56499	-4.198807E-005	-0.0004352	11
	3	20	150421.9	1.13807	1.201232	1	1.654739	46.54662	-0.0001749	-0.0004329	11
	4	23	119484.4	1.125062	0.9329189	1	1.461541	39.66605	-0.0001546	-0.0003585	11
	5	25	94921.88	1.116645	0.717835	1	1.327473	32.73492	-0.0001249	-2.229923E-005	11
	6	28	75421.88	1.110998	0.5388328	1	1.23477	25.87334	-8.266906E-005	-6.007619E-005	11
	7	30	59859.37	1.110079	0.3898104	1	1.176532	19.349	-6.210808E-005	3.645382E-005	11
	8	33	47578.12	1.110932	0.2639973	1	1.141869	13.36759	-0.0001386	0.0001577	11
	9	35	37828.12	1.113793	0.1525799	1	1.124196	7.800464	-4.513689E-005	0.0001839	11
	10	38	30046.88	1.118091	0.0503617	1	1.119225	2.579003	-7.343149E-005	0.0002238	11
	11	41	23859.38	1.124687	-0.0477883	1	1.125701	-2.433051	-3.886408E-005	0.0002879	11
	12	43	18984.38	1.13312	-0.1453377	1	1.142403	-7.309036	-3.843429E-005	0.0002944	11
	13	45	15046.87	1.144629	-0.249437	1	1.171492	-12.29367	-6.533072E-005	0.0002684	11
	14	48	11953.13	1.159431	-0.3620151	1	1.214634	-17.34019	-4.015296E-005	0.0003175	11
	15	50	9515.62	1.177982	-0.4879552	1	1.275046	-22.5008	-9.439844E-005	0.0002913	11
	16	52	7546.875	1.20311	-0.6359375	1	1.360842	-27.85994	-8.138409E-005	0.0003333	11
	17	54	5928.309	1.235383	-0.8176519	1	1.48146	-33.49903	-8.931303E-005	0.0003307	11
	18	57	4733.456	1.274797	-1.019578	1	1.632375	-38.65271	-8.946923E-005	0.0003116	11
	19	59	3796.875	1.324119	-1.255322	1	1.824589	-43.4722	-9.157841E-005	0.0003279	11
	20	61	2987.132	1.390736	-1.563131	1	2.092254	-48.34013	-4.113729E-005	0.0003417	11
	21	64	2390.625	1.470477	-1.907872	1	2.408792	-52.37705	-5.468298E-005	0.0003234	11
	22	66	1884.191	1.575486	-2.353866	1	2.832462	-56.20487	-4.799508E-005	0.0003293	11
	23	68	1516.544	1.694428	-2.842289	1	3.309032	-59.19875	-3.5072E-005	0.0003416	11
	24	71	1193.986	1.856903	-3.49151	1	3.954583	-61.99444	-3.772541E-005	0.0003234	11
	25	73	946.5144	2.054671	-4.259138	1	4.72884	-64.24665	-6.26149E-006	-0.0001807	10
	26	75	751.7689	2.290825	-5.178275	1	5.662367	-66.13581	-3.063631E-005	-0.0001723	10
	27	78	597.4265	2.580411	-6.285231	1	6.79431	-67.67933	-1.046795E-005	-0.0001881	10
	28	80	477.4305	2.923904	-7.594669	1	8.138072	-68.94358	-1.237772E-005	-0.0001616	10
	29	82	376.6741	3.362327	-9.26113	1	9.8526	-70.04617	-1.228823E-005	-0.0001627	10
	30	85	298.2954	3.883657	-11.25321	1	11.90451	-70.95965	-1.192181E-005	-0.0001662	10
	31	87	237.7717	4.48891	-13.59329	1	14.3153	-71.72523	-1.189711E-005	-0.0001717	10
	32	90	189.0121	5.215007	-16.45806	1	17.26453	-72.41833	-1.182289E-005	-0.000165	10
	33	92	150.2404	6.069219	-19.93116	1	20.83474	-73.06403	-1.234564E-005	-0.0001745	10
	34	94	119.1737	7.083961	-24.20436	1	25.21971	-73.68668	-1.24791E-005	-0.0001718	10
	35	97	95.0169	8.252937	-29.30222	1	30.44226	-74.27019	-1.288768E-005	-0.0001728	10
	36	99	75.60484	9.6427	-35.58007	1	36.86358	-74.83629	-1.279053E-005	-0.0001746	10
	37	102	54.50582	12.1085	-47.05223	1	48.58527	-75.56854	-1.108626E-005	-0.0001875	9
	38	104	45.95588	13.71393	-54.55717	1	56.2544	-75.89001	-1.052009E-005	-0.0001757	9
	39	107	37.20238	16.07613	-65.54683	1	67.48947	-76.21955	-1.090444E-005	-0.0001763	9
	40	109	30.04808	19.03568	-79.02247	1	81.28289	-76.45609	-1.108881E-005	-0.0001882	9
	41	111	23.91582	23.05302	-96.5578	1	99.2716	-76.5721	-1.117162E-005	-0.0001865	9
	42	114	18.60119	28.79929	-120.2809	1	123.6806	-76.53496	-1.073065E-005	-0.0001813	9
	43	116	15.02404	35.21517	-145.0126	1	149.2272	-76.3504	-1.069016E-005	-0.000168	9
	44	118	12.01923	43.98373	-176.165	1	181.5728	-75.98136	-1.152434E-005	-0.0001805	9
	45	121	9.450605	56.52708	-216.8706	1	224.1164	-75.39097	-1.102155E-005	-0.000187	9
	46	123	7.512019	72.55502	-263.8779	1	273.6709	-74.62605	-1.093994E-005	-0.0001829	9
	47	126	5.978954	94.02614	-319.4122	1	332.9641	-73.59702	-1.095886E-005	-0.0001827	9
	48	129	4.734848	123.2024	-387.4908	1	406.6054	-72.36198	-1.119687E-005	-0.0001447	9
	49	132	3.75601	161.3039	-464.3959	1	491.6122	-70.84577	-1.06881E-005	-0.0001531	8
	50	138	3.004808	210.0828	-551.573	1	590.2267	-69.14919	-1.077931E-005	-0.0001181	8
	51	144	2.372217	277.33	-657.6429	1	713.727	-67.1347	-1.07815E-005	-0.0000962	8
	52	152	1.878005	364.9824	-774.9585	1	856.6054	-64.78096	-1.078299E-005	-0.0001747	8
	53	161	1.512097	467.863	-894.1887	1	1009.192	-62.38026	-1.058122E-005	-6.363471E-005	8
	54	172	1.201923	604.4008	-1033.289	1	1197.074	-59.67538	-1.045192E-005	-0.0001795	8
	55	184	0.956633	773.5276	-1173.002	1	1405.09	-56.59743	-1.056915E-005	-0.0006886	8
