EXPLAIN
TAG	EISPOT
TITLE	LABEL	Potentiostatic EIS	Test Identifier
DATE	LABEL	10/12/2021	Date
TIME	LABEL	13:11:23	Time
NOTES	NOTES	1	Notes...
	
PSTAT	PSTAT	REF3000-16137	Potentiostat
VDC	POTEN	0.00000E+000	T	DC Voltage (V)
FREQINIT	QUANT	3.00000E+005	Initial Freq. (Hz)
FREQFINAL	QUANT	1.00000E+000	Final Freq. (Hz)
PTSPERDEC	QUANT	1.00000E+001	Points/decade
VAC	QUANT	5.00000E+001	AC Voltage (mV rms)
AREA	QUANT	1.00000E+000	Sample Area (cm^2)
SPEED	SELECTOR	2	Optimize for:
ZGUESS	QUANT	1.00000E+003	Estimated Z (ohms)
EOC	QUANT	0	Open Circuit (V)
SEQUENCER	TOGGLE	TRUE	Run as Sequence
PSTATMODEL	IQUANT	5	Pstat Model
PSTATSECTION	LABEL	REF3000-16137	Pstat Section
PSTATSERIALNO	LABEL	16137	Pstat Serial Number
CTRLMODE	IQUANT	1	Control Mode
IESTAB	IQUANT	0	I/E Stability
CASPEED	IQUANT	1	Control Amp Speed
CONVENTION	IQUANT	1	Current Convention
ICHRANGE	IQUANT	2	Ich Range
ICHRANGEMODE	TOGGLE	F	Ich Auto Range
ICHOFFSETENABLE	TOGGLE	T	Ich Offset Enable
ICHOFFSET	QUANT	0	Ich Offset (V)
ICHFILTER	IQUANT	3	Ich Filter
VCHRANGE	IQUANT	2	Vch Range
VCHRANGEMODE	TOGGLE	F	Vch Auto Range
VCHOFFSETENABLE	TOGGLE	T	Vch Offset Enable
VCHOFFSET	QUANT	0	Vch Offset (V)
VCHFILTER	IQUANT	3	Vch Filter
ACHRANGE	IQUANT	2	Ach Range
ACHOFFSETENABLE	TOGGLE	F	Ach Offset Enable
ACHOFFSET	QUANT	0	Ach Offset (V)
ACHFILTER	IQUANT	3	Ach Filter
IERANGELOWERLIMIT	IQUANT	2	I/E Range Lower Limit
IERANGEMODE	TOGGLE	F	I/E AutoRange
IERANGE	IQUANT	11	I/E Range
POSFEEDENABLE	TOGGLE	F	Positive Feedback IR Comp
POSFEEDRESISTANCE	QUANT	0	Positive Feedback Resistance (ohm)
ACHSELECT	IQUANT	0	Ach Select
CABLEID	IQUANT	13	Cable ID
DCCALDATE	LABEL	9/10/2021	DC Calibration Date
ACCALDATE	LABEL	9/10/2021	AC Calibration Date
THERMOSELECT	IQUANT	1	Thermo Select
FRAMEWORKVERSION	QUANT	6.33	Framework Version
INSTRUMENTVERSION	LABEL	3.50	Instrument Version
COMPLIANCEVOLTAGE	IQUANT	0	Compliance Voltage
ZCURVE	TABLE
	Pt	Time	Freq	Zreal	Zimag	Zsig	Zmod	Zphz	Idc	Vdc	IERange
	#	s	Hz	ohm	ohm	V	ohm	°	A	V	#
	0	18	300046.9	1313.298	-629.0994	1	1456.2	-25.59547	-6.668166E-005	0.0004349	9
	1	35	238359.4	1487.315	-629.6652	1	1615.111	-22.94571	1.508354E-005	-0.0023032	9
	2	54	189328.1	1671.262	-633.2157	1	1787.199	-20.75093	-3.448464E-005	-0.0010174	9
	3	63	150421.9	1785.307	-465.2812	1	1844.941	-14.60732	-6.492178E-005	0.0006061	9
	4	70	119484.4	1892.877	-430.0127	1	1941.106	-12.7989	-3.063631E-005	0.0176779	8
	5	76	94921.88	1959.476	-373.0841	1	1994.678	-10.78008	1.266318E-005	-0.0086009	8
	6	79	75421.88	2033.218	-319.4542	1	2058.161	-8.929174	1.886047E-005	-0.0092812	8
	7	83	59859.37	2083.994	-275.3689	1	2102.108	-7.527183	2.281479E-005	-0.0089224	8
	8	86	47578.12	2154.302	-240.9001	1	2167.729	-6.38047	1.890218E-005	-0.0093013	8
	9	92	37828.12	2207.896	-196.8032	1	2216.649	-5.09366	5.137726E-006	-0.0070252	8
	10	99	30046.88	2277.392	-171.7195	1	2283.856	-4.312046	1.004865E-005	0.0021402	8
	11	103	23859.38	2328.082	-150.4511	1	2332.939	-3.697568	1.309279E-005	-0.0087541	8
	12	107	18984.38	2371.782	-125.6009	1	2375.105	-3.031344	-3.171597E-006	-0.0045629	8
	13	111	15046.87	2440.608	-117.6988	1	2443.445	-2.760961	-8.456192E-007	0.0004913	9
	14	116	11953.13	2493.098	-94.5944	1	2494.892	-2.172903	-2.348155E-005	0.0083461	8
	15	121	9515.62	2550.923	-85.26756	1	2552.348	-1.914465	1.754013E-005	-0.0012952	8
	16	127	7546.875	2617.794	-80.01325	1	2619.017	-1.750708	-8.404598E-006	0.0079967	8
	17	132	5928.309	2677.722	-76.11966	1	2678.804	-1.62831	-2.026144E-005	0.0009279	9
	18	138	4733.456	2746.224	-82.415	1	2747.46	-1.718948	1.769264E-005	-0.001148	9
	19	143	3796.875	2812.536	-64.50441	1	2813.276	-1.313826	-8.571664E-006	0.0080823	8
	20	148	2987.132	2885.041	-60.99409	1	2885.686	-1.211138	-8.531035E-006	0.0081015	8
	21	154	2390.625	2959.113	-68.04829	1	2959.895	-1.317352	-1.655439E-005	0.0007305	8
	22	159	1884.191	3045.204	-74.81615	1	3046.123	-1.407389	2.280804E-005	-0.0040352	8
	23	164	1516.544	3120.609	-65.76022	1	3121.302	-1.207209	2.294392E-005	-0.0040637	8
	24	170	1193.986	3200.525	-101.907	1	3202.147	-1.823722	5.914154E-007	0.0056822	8
	25	176	946.5144	3298.247	-123.4957	1	3300.558	-2.144315	1.417452E-005	-0.0091991	8
	26	179	751.7689	3379.387	-153.9516	1	3382.892	-2.608368	-2.806298E-005	0.0005589	9
	27	183	597.4265	3448.264	-114.1501	1	3450.153	-1.896007	2.337261E-005	-0.0041961	8
	28	187	477.4305	3485.641	-143.0348	1	3488.574	-2.349839	-1.504561E-007	-0.0001363	8
	29	190	376.6741	3541.609	-157.7684	1	3545.121	-2.550674	-1.838575E-007	-0.0001407	8
	30	192	298.2954	3614.742	-170.9717	1	3618.783	-2.707984	-4.933895E-008	-0.0001248	7
	31	195	237.7717	3673.127	-187.9995	1	3677.935	-2.92998	-4.079753E-008	-0.0001511	7
	32	197	189.0121	3740.103	-206.9006	1	3745.821	-3.166346	-4.952162E-008	-0.0001034	7
	33	200	150.2404	3801.423	-227.3363	1	3808.215	-3.42238	-6.189137E-008	-0.0001389	7
	34	202	119.1737	3868.587	-251.7183	1	3876.768	-3.72283	-8.46353E-008	-6.109571E-005	7
	35	204	95.0169	3935.627	-280.5708	1	3945.615	-4.077717	-5.543202E-008	-6.700368E-005	7
	36	207	75.60484	4008.934	-315.5511	1	4021.334	-4.500585	-7.490469E-008	-0.0001254	7
	37	209	54.50582	4091.292	-378.9152	1	4108.802	-5.291357	-2.442407E-008	-0.0001435	7
	38	212	45.95588	4161.472	-421.041	1	4182.718	-5.777297	-3.369763E-008	-0.0001254	7
	39	214	37.20238	4231.049	-483.4462	1	4258.579	-6.518435	-1.014006E-007	-0.0001091	7
	40	217	30.04808	4313.428	-556.4303	1	4349.169	-7.350537	-1.04891E-007	-0.0001463	7
	41	219	23.91582	4395.843	-651.7524	1	4443.896	-8.433557	-1.241347E-007	-0.0001212	7
	42	222	18.60119	4496.469	-789.8696	1	4565.318	-9.96318	-1.840346E-007	-6.165204E-005	7
	43	224	15.02404	4589.352	-924.6852	1	4681.58	-11.39172	-9.99559E-009	-6.954292E-005	7
	44	226	12.01923	4700.874	-1088.878	1	4825.336	-13.0416	7.839044E-008	-0.0001278	7
	45	229	9.450605	4824.208	-1310.995	1	4999.168	-15.20318	3.366186E-008	-7.329293E-005	7
	46	231	7.512019	4950.646	-1585.022	1	5198.191	-17.75323	-1.232831E-007	-0.0001617	7
	47	234	5.978954	5115.86	-1890.199	1	5453.887	-20.27817	-3.454606E-008	-6.474648E-005	7
	48	237	4.734848	5298.79	-2289.118	1	5772.108	-23.36472	-9.998093E-008	-0.0001278	7
	49	240	3.75601	5512.669	-2758.055	1	6164.121	-26.57935	-5.610239E-009	-4.273482E-005	7
	50	244	3.004808	5753.138	-3301.493	1	6633.133	-29.84977	-3.07694E-008	-0.0001287	7
	51	247	2.372217	6034.323	-4004.673	1	7242.269	-33.57021	-3.716391E-008	-0.0001566	7
	52	252	1.878005	6369.164	-4872.392	1	8019.13	-37.41589	-2.672594E-008	-0.0001077	7
	53	256	1.512097	6727.07	-5842.324	1	8909.895	-40.97366	-4.070791E-008	-8.506856E-005	7
	54	262	1.201923	7184.062	-7109.075	1	10106.91	-44.69941	-3.591112E-008	-8.352156E-005	7
	55	268	0.956633	7709.295	-8648.638	1	11585.86	-48.28656	-5.866847E-008	-0.000657	7
