EXPLAIN
TAG	EISPOT
TITLE	LABEL	Potentiostatic EIS	Test Identifier
DATE	LABEL	10/12/2021	Date
TIME	LABEL	11:36:54	Time
NOTES	NOTES	1	Notes...
	
PSTAT	PSTAT	REF3000-16137	Potentiostat
VDC	POTEN	0.00000E+000	T	DC Voltage (V)
FREQINIT	QUANT	3.00000E+005	Initial Freq. (Hz)
FREQFINAL	QUANT	1.00000E+000	Final Freq. (Hz)
PTSPERDEC	QUANT	1.00000E+001	Points/decade
VAC	QUANT	5.00000E+001	AC Voltage (mV rms)
AREA	QUANT	1.00000E+000	Sample Area (cm^2)
SPEED	SELECTOR	2	Optimize for:
ZGUESS	QUANT	1.00000E+003	Estimated Z (ohms)
EOC	QUANT	0	Open Circuit (V)
SEQUENCER	TOGGLE	TRUE	Run as Sequence
PSTATMODEL	IQUANT	5	Pstat Model
PSTATSECTION	LABEL	REF3000-16137	Pstat Section
PSTATSERIALNO	LABEL	16137	Pstat Serial Number
CTRLMODE	IQUANT	1	Control Mode
IESTAB	IQUANT	0	I/E Stability
CASPEED	IQUANT	1	Control Amp Speed
CONVENTION	IQUANT	1	Current Convention
ICHRANGE	IQUANT	2	Ich Range
ICHRANGEMODE	TOGGLE	F	Ich Auto Range
ICHOFFSETENABLE	TOGGLE	T	Ich Offset Enable
ICHOFFSET	QUANT	0	Ich Offset (V)
ICHFILTER	IQUANT	3	Ich Filter
VCHRANGE	IQUANT	2	Vch Range
VCHRANGEMODE	TOGGLE	F	Vch Auto Range
VCHOFFSETENABLE	TOGGLE	T	Vch Offset Enable
VCHOFFSET	QUANT	0	Vch Offset (V)
VCHFILTER	IQUANT	3	Vch Filter
ACHRANGE	IQUANT	2	Ach Range
ACHOFFSETENABLE	TOGGLE	F	Ach Offset Enable
ACHOFFSET	QUANT	0	Ach Offset (V)
ACHFILTER	IQUANT	3	Ach Filter
IERANGELOWERLIMIT	IQUANT	2	I/E Range Lower Limit
IERANGEMODE	TOGGLE	F	I/E AutoRange
IERANGE	IQUANT	11	I/E Range
POSFEEDENABLE	TOGGLE	F	Positive Feedback IR Comp
POSFEEDRESISTANCE	QUANT	0	Positive Feedback Resistance (ohm)
ACHSELECT	IQUANT	0	Ach Select
CABLEID	IQUANT	13	Cable ID
DCCALDATE	LABEL	9/10/2021	DC Calibration Date
ACCALDATE	LABEL	9/10/2021	AC Calibration Date
THERMOSELECT	IQUANT	1	Thermo Select
FRAMEWORKVERSION	QUANT	6.33	Framework Version
INSTRUMENTVERSION	LABEL	3.50	Instrument Version
COMPLIANCEVOLTAGE	IQUANT	0	Compliance Voltage
ZCURVE	TABLE
	Pt	Time	Freq	Zreal	Zimag	Zsig	Zmod	Zphz	Idc	Vdc	IERange
	#	s	Hz	ohm	ohm	V	ohm	°	A	V	#
	0	10	300046.9	1.290484	2.39818	1	2.723347	61.71488	1.211578E-005	-0.0006775	11
	1	14	238359.4	1.401711	1.796825	1	2.278898	52.04206	-0.0002729	-0.0011937	12
	2	18	189328.1	1.215706	1.510878	1	1.939251	51.17861	-7.184105E-005	-0.0003984	11
	3	20	150421.9	1.19995	1.191026	1	1.690687	44.78615	-3.470051E-005	-0.0001812	11
	4	23	119484.4	1.183109	0.9235796	1	1.500915	37.97694	-3.499792E-005	-8.489289E-005	11
	5	26	94921.88	1.173465	0.7070872	1	1.370034	31.07163	-2.89585E-005	-2.578382E-005	11
	6	28	75421.88	1.169257	0.5288554	1	1.283297	24.33725	-4.52737E-005	1.510235E-005	11
	7	31	59859.37	1.168853	0.3787888	1	1.228697	17.9559	-2.503696E-005	0.0001264	11
	8	33	47578.12	1.170317	0.248991	1	1.196511	12.01089	-2.739211E-005	0.00019	11
	9	36	37828.12	1.173334	0.1342834	1	1.180993	6.528871	-3.317676E-005	0.0002386	11
	10	38	30046.88	1.177512	0.0273158	1	1.177828	1.328902	-7.645074E-005	0.0002443	11
	11	41	23859.38	1.18461	-0.0761586	1	1.187056	-3.678484	-3.418474E-005	0.0003228	11
	12	43	18984.38	1.193621	-0.1806404	1	1.207212	-8.605734	-1.791262E-005	0.0003568	11
	13	45	15046.87	1.205246	-0.2938086	1	1.240541	-13.70005	-1.970935E-005	0.0003718	11
	14	48	11953.13	1.220159	-0.4179255	1	1.289748	-18.90722	-2.287299E-005	0.0003765	11
	15	50	9515.62	1.239216	-0.5579475	1	1.359029	-24.23929	-1.851411E-005	0.0003862	11
	16	52	7546.875	1.264176	-0.7239927	1	1.456814	-29.79974	-2.41152E-005	0.0003921	11
	17	55	5928.309	1.297975	-0.9295944	1	1.596523	-35.60979	-4.925373E-005	0.0003372	11
	18	57	4733.456	1.338091	-1.159679	1	1.77069	-40.91438	-7.92201E-005	0.0003407	11
	19	59	3796.875	1.387875	-1.430275	1	1.992959	-45.86196	-2.213097E-005	0.0003854	11
	20	62	2987.132	1.457324	-1.785208	1	2.304508	-50.77411	-3.559081E-005	0.0003753	11
	21	64	2390.625	1.538346	-2.18676	1	2.673654	-54.87431	-1.58189E-005	0.0003893	11
	22	66	1884.191	1.650747	-2.706455	1	3.170152	-58.61974	-5.394621E-005	0.0003589	11
	23	68	1516.544	1.778187	-3.279699	1	3.730734	-61.53435	-3.703598E-005	0.0003677	11
	24	71	1193.986	1.955074	-4.048635	1	4.495971	-64.22424	2.453466E-005	-0.0001482	10
	25	73	946.5144	2.166272	-4.95551	1	5.408309	-66.38774	1.682206E-005	-0.0001574	10
	26	76	751.7689	2.430971	-6.041608	1	6.512346	-68.08155	1.944035E-005	-0.0001518	10
	27	78	597.4265	2.751562	-7.361473	1	7.858904	-69.50533	-2.37989E-005	-0.0001384	10
	28	80	477.4305	3.137551	-8.911397	1	9.447604	-70.6037	-2.849752E-006	-0.0001357	10
	29	83	376.6741	3.62938	-10.89611	1	11.48467	-71.57761	-3.295788E-006	-0.0001311	10
	30	85	298.2954	4.216898	-13.27565	1	13.92929	-72.37799	-2.841837E-006	-0.0001253	10
	31	87	237.7717	4.904906	-16.07856	1	16.81006	-73.03521	-2.846496E-006	-0.0001312	10
	32	90	189.0121	5.738738	-19.51492	1	20.34122	-73.61301	-2.475019E-006	-0.0001345	10
	33	92	150.2404	6.731705	-23.68491	1	24.62297	-74.13383	-3.4271E-006	-0.0001319	10
	34	95	119.1737	7.921137	-28.80945	1	29.87857	-74.62645	-3.225888E-006	-0.0001324	10
	35	97	95.0169	9.285213	-34.90653	1	36.12037	-75.10413	-3.424658E-006	-0.0001318	10
	36	99	75.60484	10.88618	-42.35823	1	43.73475	-75.58676	-2.224207E-006	-0.0001498	9
	37	102	54.50582	13.71467	-56.10096	1	57.75301	-76.26266	-2.100954E-006	-0.0001485	9
	38	104	45.95588	15.48631	-65.03081	1	66.84932	-76.60519	-1.755654E-006	-0.0001401	9
	39	107	37.20238	18.0523	-78.15303	1	80.21086	-76.99356	-1.773449E-006	-0.0001427	9
	40	109	30.04808	21.1684	-94.24416	1	96.5923	-77.34076	-2.157574E-006	-0.0001444	9
	41	112	23.91582	25.20503	-115.2706	1	117.994	-77.66585	-1.972067E-006	-0.0001733	9
	42	114	18.60119	31.01825	-144.209	1	147.5071	-77.86106	-1.712244E-006	-0.0001431	9
	43	116	15.02404	37.33708	-174.3584	1	178.3113	-77.91323	-1.869522E-006	-0.0001492	9
	44	119	12.01923	45.78426	-212.4458	1	217.3233	-77.83818	-2.097759E-006	-0.0001463	9
	45	121	9.450605	57.62355	-262.6201	1	268.8676	-77.6244	-1.784406E-006	-0.0001532	9
	46	124	7.512019	72.65213	-321.4375	1	329.5457	-77.26386	-1.685576E-006	-0.0001561	9
	47	126	5.978954	92.04649	-391.5638	1	402.2372	-76.77142	-1.658518E-006	-0.0001672	9
	48	129	4.734848	116.7377	-476.7348	1	490.8194	-76.24077	-1.427296E-006	-0.0001493	8
	49	133	3.75601	149.3132	-579.9843	1	598.8958	-75.56306	-1.240912E-006	-0.0001141	8
	50	136	3.004808	189.1489	-698.9922	1	724.1322	-74.85827	-1.368438E-006	-0.0001235	8
	51	140	2.372217	243.1095	-849.734	1	883.827	-74.03413	-1.414342E-006	-0.0001197	8
	52	144	1.878005	313.5508	-1030.988	1	1077.613	-73.08409	-1.33945E-006	-0.0001464	8
	53	149	1.512097	394.0022	-1229.882	1	1291.452	-72.23674	-1.391728E-006	-4.750382E-005	8
	54	154	1.201923	508.8137	-1480.305	1	1565.309	-71.03101	-1.33443E-006	-0.0001299	8
	55	160	0.956633	655.761	-1772.111	1	1889.55	-69.69325	-1.473808E-006	-0.0006723	8
