EXPLAIN
TAG	EISPOT
TITLE	LABEL	Potentiostatic EIS	Test Identifier
DATE	LABEL	10/12/2021	Date
TIME	LABEL	12:05:11	Time
NOTES	NOTES	1	Notes...
	
PSTAT	PSTAT	REF3000-16137	Potentiostat
VDC	POTEN	0.00000E+000	T	DC Voltage (V)
FREQINIT	QUANT	3.00000E+005	Initial Freq. (Hz)
FREQFINAL	QUANT	1.00000E+000	Final Freq. (Hz)
PTSPERDEC	QUANT	1.00000E+001	Points/decade
VAC	QUANT	5.00000E+001	AC Voltage (mV rms)
AREA	QUANT	1.00000E+000	Sample Area (cm^2)
SPEED	SELECTOR	2	Optimize for:
ZGUESS	QUANT	1.00000E+003	Estimated Z (ohms)
EOC	QUANT	0	Open Circuit (V)
SEQUENCER	TOGGLE	TRUE	Run as Sequence
PSTATMODEL	IQUANT	5	Pstat Model
PSTATSECTION	LABEL	REF3000-16137	Pstat Section
PSTATSERIALNO	LABEL	16137	Pstat Serial Number
CTRLMODE	IQUANT	1	Control Mode
IESTAB	IQUANT	0	I/E Stability
CASPEED	IQUANT	1	Control Amp Speed
CONVENTION	IQUANT	1	Current Convention
ICHRANGE	IQUANT	2	Ich Range
ICHRANGEMODE	TOGGLE	F	Ich Auto Range
ICHOFFSETENABLE	TOGGLE	T	Ich Offset Enable
ICHOFFSET	QUANT	0	Ich Offset (V)
ICHFILTER	IQUANT	3	Ich Filter
VCHRANGE	IQUANT	2	Vch Range
VCHRANGEMODE	TOGGLE	F	Vch Auto Range
VCHOFFSETENABLE	TOGGLE	T	Vch Offset Enable
VCHOFFSET	QUANT	0	Vch Offset (V)
VCHFILTER	IQUANT	3	Vch Filter
ACHRANGE	IQUANT	2	Ach Range
ACHOFFSETENABLE	TOGGLE	F	Ach Offset Enable
ACHOFFSET	QUANT	0	Ach Offset (V)
ACHFILTER	IQUANT	3	Ach Filter
IERANGELOWERLIMIT	IQUANT	2	I/E Range Lower Limit
IERANGEMODE	TOGGLE	F	I/E AutoRange
IERANGE	IQUANT	11	I/E Range
POSFEEDENABLE	TOGGLE	F	Positive Feedback IR Comp
POSFEEDRESISTANCE	QUANT	0	Positive Feedback Resistance (ohm)
ACHSELECT	IQUANT	0	Ach Select
CABLEID	IQUANT	13	Cable ID
DCCALDATE	LABEL	9/10/2021	DC Calibration Date
ACCALDATE	LABEL	9/10/2021	AC Calibration Date
THERMOSELECT	IQUANT	1	Thermo Select
FRAMEWORKVERSION	QUANT	6.33	Framework Version
INSTRUMENTVERSION	LABEL	3.50	Instrument Version
COMPLIANCEVOLTAGE	IQUANT	0	Compliance Voltage
ZCURVE	TABLE
	Pt	Time	Freq	Zreal	Zimag	Zsig	Zmod	Zphz	Idc	Vdc	IERange
	#	s	Hz	ohm	ohm	V	ohm	°	A	V	#
	0	10	300046.9	1.543331	2.391796	1	2.846499	57.16746	-7.123155E-005	-0.0007729	11
	1	13	238359.4	1.643105	1.762322	1	2.409475	47.00499	-0.0002051	-0.0012238	12
	2	17	189328.1	1.565828	1.394519	1	2.096783	41.68811	-0.0001457	-0.0007923	12
	3	21	150421.9	1.460748	1.176852	1	1.875837	38.85665	-3.020333E-005	-0.0001075	11
	4	23	119484.4	1.444553	0.9141636	1	1.709511	32.32706	-0.0001501	-4.515781E-005	11
	5	26	94921.88	1.437012	0.6956031	1	1.596517	25.82987	-7.38298E-005	5.626172E-005	11
	6	28	75421.88	1.433458	0.5128948	1	1.522453	19.68733	-2.611876E-005	0.0001171	11
	7	31	59859.37	1.433511	0.3592701	1	1.477846	14.06981	-6.249875E-005	0.0001867	11
	8	34	47578.12	1.434723	0.2257642	1	1.452377	8.942583	-8.255579E-005	0.0002112	11
	9	36	37828.12	1.439228	0.1057388	1	1.443107	4.201921	-4.606269E-005	0.0002668	11
	10	39	30046.88	1.444563	-0.0080299	1	1.444586	-0.3184882	-2.457605E-005	0.0003037	11
	11	41	23859.38	1.452725	-0.1197867	1	1.457655	-4.713751	-9.48751E-005	0.0003057	11
	12	43	18984.38	1.462846	-0.2343681	1	1.481502	-9.10222	-3.458315E-005	0.0003264	11
	13	46	15046.87	1.476194	-0.3602586	1	1.519518	-13.7147	-7.574363E-005	0.0003474	11
	14	48	11953.13	1.492941	-0.5001908	1	1.574505	-18.52276	-7.731408E-005	0.0003656	11
	15	50	9515.62	1.512975	-0.6600229	1	1.650673	-23.56884	-5.019909E-005	0.0003746	11
	16	53	7546.875	1.538941	-0.8512927	1	1.758703	-28.94996	-5.826869E-005	0.0003745	11
	17	55	5928.309	1.572696	-1.090813	1	1.913961	-34.74496	-2.20449E-005	0.0003984	11
	18	57	4733.456	1.613419	-1.361548	1	2.111145	-40.16067	-1.934987E-005	0.0004016	11
	19	60	3796.875	1.663636	-1.682081	1	2.365815	-45.31587	-4.374639E-005	0.000384	11
	20	62	2987.132	1.734456	-2.106323	1	2.728541	-50.53019	-7.490845E-005	0.0003323	11
	21	64	2390.625	1.816432	-2.588618	1	3.162336	-54.94269	-2.060206E-005	0.0004058	11
	22	67	1884.191	1.931196	-3.216312	1	3.751558	-59.0178	-2.348318E-005	0.0003986	11
	23	69	1516.544	2.063408	-3.918449	1	4.428532	-62.22925	-2.021741E-005	-0.0001196	10
	24	71	1193.986	2.245337	-4.859731	1	5.353365	-65.20169	-1.987948E-005	-0.0001222	10
	25	74	946.5144	2.469209	-5.980504	1	6.470195	-67.56542	-2.756655E-005	-0.0001274	10
	26	76	751.7689	2.753836	-7.337055	1	7.836835	-69.42725	-2.240266E-005	-0.0001231	10
	27	78	597.4265	3.112391	-8.983754	1	9.50762	-70.89153	-1.206392E-005	-0.0001635	10
	28	81	477.4305	3.552468	-10.93854	1	11.50094	-72.00796	-1.016477E-006	-0.0001155	10
	29	83	376.6741	4.129472	-13.43816	1	14.05833	-72.9181	-6.779748E-007	-0.0001274	10
	30	85	298.2954	4.832781	-16.43628	1	17.13204	-73.61501	-4.045683E-007	-0.0001192	10
	31	88	237.7717	5.670691	-19.96692	1	20.75656	-74.14523	-4.901153E-007	-0.0001259	10
	32	90	189.0121	6.700161	-24.2966	1	25.20351	-74.58299	-9.126495E-007	-0.0001187	10
	33	92	150.2404	7.947026	-29.55165	1	30.60155	-74.94812	-1.419125E-006	-0.0001183	10
	34	95	119.1737	9.461744	-35.98988	1	37.21284	-75.27025	-1.750605E-006	-0.0001195	10
	35	97	95.0169	11.22028	-43.57383	1	44.99526	-75.56001	6.838022E-009	-0.0001395	9
	36	100	75.60484	13.34249	-52.90822	1	54.56466	-75.84617	-2.031176E-007	-0.0001335	9
	37	102	54.50582	17.0365	-69.86282	1	71.91006	-76.29552	-4.165734E-008	-0.0001378	9
	38	105	45.95588	19.3282	-80.83951	1	83.11802	-76.55339	2.719097E-007	-0.0001302	9
	39	107	37.20238	22.49338	-96.8118	1	99.3905	-76.91989	4.924525E-008	-0.00014	9
	40	110	30.04808	26.18929	-116.3552	1	119.2661	-77.31522	-1.233113E-007	-0.0001351	9
	41	112	23.91582	30.82363	-142.0246	1	145.3309	-77.75498	-1.57057E-007	-0.0001338	9
	42	114	18.60119	36.76727	-176.909	1	180.6893	-78.25927	3.136461E-008	-0.0001297	9
	43	117	15.02404	42.67687	-213.565	1	217.7873	-78.69939	2.213244E-007	-0.0001301	9
	44	119	12.01923	50.02641	-260.4027	1	265.1645	-79.12531	-3.008846E-008	-0.0001338	9
	45	122	9.450605	59.45364	-323.2351	1	328.6574	-79.5779	-9.87929E-008	-0.0001224	9
	46	124	7.512019	70.70938	-397.6588	1	403.8965	-79.91738	8.759299E-008	-0.0001481	9
	47	127	5.978954	84.18331	-487.2351	1	494.4541	-80.19735	5.004948E-007	-0.0001203	8
	48	130	4.734848	102.0168	-603.3642	1	611.9279	-80.40319	6.155786E-007	-0.0001164	8
	49	133	3.75601	124.4866	-745.6214	1	755.9419	-80.52151	4.816927E-007	-0.0001367	8
	50	137	3.004808	153.2278	-913.9736	1	926.7289	-80.48286	5.717301E-007	-0.0001308	8
	51	140	2.372217	195.7469	-1134.318	1	1151.084	-80.20901	5.216158E-007	-6.484304E-005	8
	52	144	1.878005	248.7857	-1406.417	1	1428.252	-79.96854	4.627541E-007	-0.0001364	8
	53	149	1.512097	314.1159	-1707.985	1	1736.63	-79.57917	5.261822E-007	-0.0001328	8
	54	155	1.201923	412.4413	-2107.211	1	2147.195	-78.92558	4.74651E-007	-0.0001427	8
	55	161	0.956633	542.846	-2581.593	1	2638.049	-78.1251	4.554075E-007	-0.0006658	8
