EXPLAIN
TAG	EISPOT
TITLE	LABEL	Potentiostatic EIS	Test Identifier
DATE	LABEL	10/12/2021	Date
TIME	LABEL	11:16:22	Time
NOTES	NOTES	1	Notes...
	
PSTAT	PSTAT	REF3000-16137	Potentiostat
VDC	POTEN	0.00000E+000	T	DC Voltage (V)
FREQINIT	QUANT	3.00000E+005	Initial Freq. (Hz)
FREQFINAL	QUANT	1.00000E+000	Final Freq. (Hz)
PTSPERDEC	QUANT	1.00000E+001	Points/decade
VAC	QUANT	5.00000E+001	AC Voltage (mV rms)
AREA	QUANT	1.00000E+000	Sample Area (cm^2)
SPEED	SELECTOR	2	Optimize for:
ZGUESS	QUANT	1.00000E+003	Estimated Z (ohms)
EOC	QUANT	0	Open Circuit (V)
SEQUENCER	TOGGLE	TRUE	Run as Sequence
PSTATMODEL	IQUANT	5	Pstat Model
PSTATSECTION	LABEL	REF3000-16137	Pstat Section
PSTATSERIALNO	LABEL	16137	Pstat Serial Number
CTRLMODE	IQUANT	1	Control Mode
IESTAB	IQUANT	0	I/E Stability
CASPEED	IQUANT	1	Control Amp Speed
CONVENTION	IQUANT	1	Current Convention
ICHRANGE	IQUANT	2	Ich Range
ICHRANGEMODE	TOGGLE	F	Ich Auto Range
ICHOFFSETENABLE	TOGGLE	T	Ich Offset Enable
ICHOFFSET	QUANT	0	Ich Offset (V)
ICHFILTER	IQUANT	3	Ich Filter
VCHRANGE	IQUANT	2	Vch Range
VCHRANGEMODE	TOGGLE	F	Vch Auto Range
VCHOFFSETENABLE	TOGGLE	T	Vch Offset Enable
VCHOFFSET	QUANT	0	Vch Offset (V)
VCHFILTER	IQUANT	3	Vch Filter
ACHRANGE	IQUANT	2	Ach Range
ACHOFFSETENABLE	TOGGLE	F	Ach Offset Enable
ACHOFFSET	QUANT	0	Ach Offset (V)
ACHFILTER	IQUANT	3	Ach Filter
IERANGELOWERLIMIT	IQUANT	2	I/E Range Lower Limit
IERANGEMODE	TOGGLE	F	I/E AutoRange
IERANGE	IQUANT	11	I/E Range
POSFEEDENABLE	TOGGLE	F	Positive Feedback IR Comp
POSFEEDRESISTANCE	QUANT	0	Positive Feedback Resistance (ohm)
ACHSELECT	IQUANT	0	Ach Select
CABLEID	IQUANT	13	Cable ID
DCCALDATE	LABEL	9/10/2021	DC Calibration Date
ACCALDATE	LABEL	9/10/2021	AC Calibration Date
THERMOSELECT	IQUANT	1	Thermo Select
FRAMEWORKVERSION	QUANT	6.33	Framework Version
INSTRUMENTVERSION	LABEL	3.50	Instrument Version
COMPLIANCEVOLTAGE	IQUANT	0	Compliance Voltage
ZCURVE	TABLE
	Pt	Time	Freq	Zreal	Zimag	Zsig	Zmod	Zphz	Idc	Vdc	IERange
	#	s	Hz	ohm	ohm	V	ohm	°	A	V	#
	0	10	300046.9	1.230322	2.414011	1	2.709454	62.99392	-0.0001885	-0.0009368	11
	1	13	238359.4	1.339768	1.791338	1	2.236933	53.20664	-0.000143	-0.0011319	12
	2	17	189328.1	1.157989	1.516905	1	1.908387	52.64227	-0.0001804	-0.0004194	11
	3	20	150421.9	1.136833	1.199549	1	1.652666	46.53762	-0.0001701	-0.0004991	11
	4	22	119484.4	1.124807	0.931998	1	1.460757	39.64462	-6.53098E-005	-0.0001974	11
	5	25	94921.88	1.115069	0.7168262	1	1.325601	32.73508	-7.932938E-005	-7.379498E-005	11
	6	28	75421.88	1.111274	0.5386665	1	1.234946	25.8608	-0.0001055	-4.378307E-005	11
	7	30	59859.37	1.110618	0.3888719	1	1.17673	19.2972	-6.211228E-005	5.037927E-005	11
	8	33	47578.12	1.111478	0.2628356	1	1.142132	13.30455	-8.412591E-005	0.0001333	11
	9	35	37828.12	1.114529	0.1511039	1	1.124726	7.720879	-3.944213E-005	0.000222	11
	10	38	30046.88	1.119289	0.0482828	1	1.12033	2.470039	-5.221473E-005	0.0002416	11
	11	40	23859.38	1.125593	-0.0503596	1	1.126719	-2.561731	-3.664538E-005	0.0002865	11
	12	43	18984.38	1.134437	-0.1485496	1	1.144122	-7.460186	-7.647796E-005	0.0003049	11
	13	45	15046.87	1.145404	-0.2536331	1	1.173149	-12.48585	-0.0000966	0.0002913	11
	14	47	11953.13	1.161205	-0.3674901	1	1.217968	-17.56117	-6.098735E-005	0.0003342	11
	15	49	9515.62	1.180013	-0.4949395	1	1.279608	-22.75492	-7.439227E-005	0.0003389	11
	16	52	7546.875	1.204458	-0.6445107	1	1.366057	-28.15143	-0.0001057	0.0003033	11
	17	54	5928.309	1.237811	-0.8288314	1	1.489677	-33.80606	-5.000383E-005	0.0003439	11
	18	56	4733.456	1.277563	-1.033729	1	1.6434	-38.97777	-2.909906E-005	0.0003569	11
	19	59	3796.875	1.326819	-1.273312	1	1.83896	-43.82109	-4.659777E-005	0.0003556	11
	20	61	2987.132	1.39479	-1.586005	1	2.112072	-48.67044	-3.40128E-005	0.0003551	11
	21	63	2390.625	1.47405	-1.938229	1	2.435067	-52.74651	-6.284647E-005	0.0003278	11
	22	66	1884.191	1.58156	-2.391228	1	2.866933	-56.51932	-9.258212E-005	0.000364	11
	23	68	1516.544	1.702007	-2.889409	1	3.353433	-59.49977	-0.0000951	0.0003088	11
	24	70	1193.986	1.866684	-3.550652	1	4.011438	-62.26775	-8.962262E-005	0.0003686	11
	25	73	946.5144	2.064437	-4.335396	1	4.801829	-64.53706	1.369867E-005	-0.0001734	10
	26	75	751.7689	2.306381	-5.269425	1	5.752063	-66.36143	-1.538926E-006	-0.0001905	10
	27	77	597.4265	2.597364	-6.401971	1	6.908801	-67.91696	-3.218179E-005	-0.0001621	10
	28	80	477.4305	2.946774	-7.739158	1	8.281186	-69.15509	-1.028582E-005	-0.0001562	10
	29	82	376.6741	3.391005	-9.444553	1	10.03486	-70.24966	-1.043509E-005	-0.0001594	10
	30	84	298.2954	3.921422	-11.48479	1	12.13581	-71.14779	-1.001229E-005	-0.0001515	10
	31	87	237.7717	4.540216	-13.88295	1	14.6065	-71.89042	-1.099148E-005	-0.0001536	10
	32	89	189.0121	5.286542	-16.81923	1	17.63049	-72.55127	-1.033668E-005	-0.0001522	10
	33	92	150.2404	6.170682	-20.3803	1	21.29399	-73.1549	-1.057299E-005	-0.000153	10
	34	94	119.1737	7.225912	-24.76018	1	25.79302	-73.73085	-1.040799E-005	-0.0001543	10
	35	96	95.0169	8.449033	-29.97878	1	31.14664	-74.26037	-1.119842E-005	-0.0001545	10
	36	99	75.60484	9.91543	-36.40004	1	37.72636	-74.76225	-1.108239E-005	-0.0001579	10
	37	101	54.50582	12.52759	-48.09667	1	49.70141	-75.40073	-9.294698E-006	-0.0001745	9
	38	104	45.95588	14.21495	-55.70849	1	57.49348	-75.68548	-8.597675E-006	-0.0001688	9
	39	106	37.20238	16.70439	-66.89198	1	68.94616	-75.97875	-8.806759E-006	-0.0001694	9
	40	109	30.04808	19.79352	-80.47852	1	82.87687	-76.18248	-9.135776E-006	-0.0001744	9
	41	111	23.91582	23.88445	-98.1167	1	100.982	-76.31864	-9.386141E-006	-0.0001804	9
	42	113	18.60119	29.72507	-122.1842	1	125.748	-76.32667	-8.930017E-006	-0.0001682	9
	43	116	15.02404	36.11589	-147.1325	1	151.5003	-76.20856	-8.981054E-006	-0.0001667	9
	44	118	12.01923	44.66442	-178.6539	1	184.1525	-75.96347	-9.500412E-006	-0.0001685	9
	45	120	9.450605	56.77412	-219.6927	1	226.9101	-75.51033	-9.02698E-006	-0.000175	9
	46	123	7.512019	72.04285	-267.5067	1	277.038	-74.92715	-8.928322E-006	-0.0001521	9
	47	126	5.978954	92.22992	-324.6915	1	337.5366	-74.14259	-9.058861E-006	-0.0001647	9
	48	129	4.734848	119.9364	-394.5612	1	412.3873	-73.09209	-8.888583E-006	-0.0001446	9
	49	132	3.75601	155.67	-475.1732	1	500.0227	-71.86086	-8.679006E-006	-0.0001427	8
	50	135	3.004808	201.8302	-567.1342	1	601.9772	-70.41051	-8.714175E-006	-0.0001129	8
	51	142	2.372217	266.0933	-680.5318	1	730.7046	-68.64411	-8.738519E-006	-0.0001089	8
	52	146	1.878005	352.0517	-808.733	1	882.037	-66.4759	-8.704442E-006	-0.0001677	8
	53	155	1.512097	454.1316	-944.4448	1	1047.956	-64.31966	-8.533201E-006	-4.393224E-005	8
	54	166	1.201923	591.6797	-1104.121	1	1252.664	-61.8139	-8.354827E-006	-0.0001652	8
	55	179	0.956633	766.5455	-1274.735	1	1487.462	-58.97995	-8.371707E-006	-0.0006823	8
