EXPLAIN
TAG	EISPOT
TITLE	LABEL	Potentiostatic EIS	Test Identifier
DATE	LABEL	10/12/2021	Date
TIME	LABEL	12:13:42	Time
NOTES	NOTES	1	Notes...
	
PSTAT	PSTAT	REF3000-16137	Potentiostat
VDC	POTEN	0.00000E+000	T	DC Voltage (V)
FREQINIT	QUANT	3.00000E+005	Initial Freq. (Hz)
FREQFINAL	QUANT	1.00000E+000	Final Freq. (Hz)
PTSPERDEC	QUANT	1.00000E+001	Points/decade
VAC	QUANT	5.00000E+001	AC Voltage (mV rms)
AREA	QUANT	1.00000E+000	Sample Area (cm^2)
SPEED	SELECTOR	2	Optimize for:
ZGUESS	QUANT	1.00000E+003	Estimated Z (ohms)
EOC	QUANT	0	Open Circuit (V)
SEQUENCER	TOGGLE	TRUE	Run as Sequence
PSTATMODEL	IQUANT	5	Pstat Model
PSTATSECTION	LABEL	REF3000-16137	Pstat Section
PSTATSERIALNO	LABEL	16137	Pstat Serial Number
CTRLMODE	IQUANT	1	Control Mode
IESTAB	IQUANT	0	I/E Stability
CASPEED	IQUANT	1	Control Amp Speed
CONVENTION	IQUANT	1	Current Convention
ICHRANGE	IQUANT	2	Ich Range
ICHRANGEMODE	TOGGLE	F	Ich Auto Range
ICHOFFSETENABLE	TOGGLE	T	Ich Offset Enable
ICHOFFSET	QUANT	0	Ich Offset (V)
ICHFILTER	IQUANT	3	Ich Filter
VCHRANGE	IQUANT	2	Vch Range
VCHRANGEMODE	TOGGLE	F	Vch Auto Range
VCHOFFSETENABLE	TOGGLE	T	Vch Offset Enable
VCHOFFSET	QUANT	0	Vch Offset (V)
VCHFILTER	IQUANT	3	Vch Filter
ACHRANGE	IQUANT	2	Ach Range
ACHOFFSETENABLE	TOGGLE	F	Ach Offset Enable
ACHOFFSET	QUANT	0	Ach Offset (V)
ACHFILTER	IQUANT	3	Ach Filter
IERANGELOWERLIMIT	IQUANT	2	I/E Range Lower Limit
IERANGEMODE	TOGGLE	F	I/E AutoRange
IERANGE	IQUANT	11	I/E Range
POSFEEDENABLE	TOGGLE	F	Positive Feedback IR Comp
POSFEEDRESISTANCE	QUANT	0	Positive Feedback Resistance (ohm)
ACHSELECT	IQUANT	0	Ach Select
CABLEID	IQUANT	13	Cable ID
DCCALDATE	LABEL	9/10/2021	DC Calibration Date
ACCALDATE	LABEL	9/10/2021	AC Calibration Date
THERMOSELECT	IQUANT	1	Thermo Select
FRAMEWORKVERSION	QUANT	6.33	Framework Version
INSTRUMENTVERSION	LABEL	3.50	Instrument Version
COMPLIANCEVOLTAGE	IQUANT	0	Compliance Voltage
ZCURVE	TABLE
	Pt	Time	Freq	Zreal	Zimag	Zsig	Zmod	Zphz	Idc	Vdc	IERange
	#	s	Hz	ohm	ohm	V	ohm	°	A	V	#
	0	10	300046.9	1.753063	2.384845	1	2.959851	53.68096	-6.67649E-005	-0.0006967	11
	1	13	238359.4	1.85101	1.739458	1	2.540069	43.22047	-0.0002277	-0.0011785	12
	2	18	189328.1	1.776817	1.372951	1	2.245456	37.69336	-7.954543E-005	-0.0007066	12
	3	21	150421.9	1.665416	1.167069	1	2.033633	35.02152	-0.0001001	-0.0001894	11
	4	24	119484.4	1.656466	0.9075084	1	1.888769	28.7165	3.26036E-005	7.105548E-005	11
	5	26	94921.88	1.650733	0.6875609	1	1.7882	22.61263	-4.38362E-005	0.0000978	11
	6	29	75421.88	1.646803	0.5064267	1	1.722913	17.09377	-4.143402E-005	7.541382E-005	11
	7	31	59859.37	1.648079	0.3509212	1	1.685025	12.02033	-2.547051E-005	0.000234	11
	8	34	47578.12	1.651172	0.2157633	1	1.66521	7.444819	-3.051321E-005	0.0002632	11
	9	36	37828.12	1.656173	0.0939704	1	1.658837	3.247451	-4.743372E-005	0.0003017	11
	10	39	30046.88	1.66263	-0.0219716	1	1.662775	-0.7571183	-6.042868E-005	0.0003202	11
	11	41	23859.38	1.671025	-0.1372258	1	1.67665	-4.694637	-5.758132E-005	0.0003107	11
	12	44	18984.38	1.682769	-0.2556804	1	1.702082	-8.639459	-3.057564E-005	0.000368	11
	13	46	15046.87	1.696325	-0.3866484	1	1.739832	-12.84023	-8.774282E-005	0.0003301	11
	14	48	11953.13	1.713821	-0.5324016	1	1.794613	-17.2575	-1.924835E-005	0.0003835	11
	15	51	9515.62	1.735403	-0.7003322	1	1.871387	-21.97683	-2.493542E-005	0.0003953	11
	16	53	7546.875	1.762097	-0.901252	1	1.979202	-27.08818	-2.013889E-005	0.000407	11
	17	55	5928.309	1.797603	-1.153428	1	2.13583	-32.68617	-8.194631E-005	0.0003635	11
	18	58	4733.456	1.838854	-1.438895	1	2.33491	-38.04303	-3.093493E-005	0.0003726	11
	19	60	3796.875	1.889729	-1.77723	1	2.594152	-43.24277	-4.544151E-005	0.0003163	11
	20	62	2987.132	1.961338	-2.226914	1	2.967489	-48.62825	-1.944508E-005	0.0003981	11
	21	65	2390.625	2.045087	-2.739771	1	3.418878	-53.26071	-6.41815E-005	0.0003704	11
	22	67	1884.191	2.158956	-3.407609	1	4.033967	-57.64292	-1.444483E-005	0.0003937	11
	23	69	1516.544	2.292865	-4.157392	1	4.747751	-61.1226	-2.260467E-005	-0.000121	10
	24	72	1193.986	2.475988	-5.162539	1	5.725585	-64.37732	-1.878095E-005	-0.0001145	10
	25	74	946.5144	2.709674	-6.360119	1	6.913281	-66.92399	-2.221755E-006	-0.0001312	10
	26	76	751.7689	2.992761	-7.819578	1	8.372718	-69.05682	1.572882E-005	-0.0001459	10
	27	79	597.4265	3.346992	-9.5922	1	10.15937	-70.76467	-4.35436E-006	-0.0001308	10
	28	81	477.4305	3.798099	-11.70727	1	12.30796	-72.02579	-8.758616E-007	-0.0001223	10
	29	83	376.6741	4.391435	-14.41803	1	15.07197	-73.06034	-6.562673E-007	-0.0001205	10
	30	86	298.2954	5.125947	-17.67643	1	18.40466	-73.82849	2.925912E-006	-0.0001633	10
	31	88	237.7717	6.010947	-21.51991	1	22.34363	-74.39387	-8.678752E-007	-0.0001233	10
	32	91	189.0121	7.113393	-26.23112	1	27.17852	-74.82735	-3.785223E-007	-0.0001206	10
	33	93	150.2404	8.461987	-31.94959	1	33.0512	-75.16557	-1.350265E-006	-0.0001221	10
	34	95	119.1737	10.11449	-38.9508	1	40.24261	-75.44331	-1.202501E-006	-0.0001239	10
	35	98	95.0169	12.04885	-47.19449	1	48.70826	-75.67819	1.069435E-007	-0.0001479	9
	36	100	75.60484	14.40593	-57.33022	1	59.11248	-75.89476	-3.625834E-008	-0.0001484	9
	37	103	54.50582	18.58361	-75.71619	1	77.9634	-76.21004	-1.435051E-007	-0.0001343	9
	38	105	45.95588	21.2	-87.56005	1	90.08997	-76.3895	2.308951E-007	-0.0001311	9
	39	108	37.20238	24.86756	-104.7949	1	107.705	-76.65076	3.411053E-007	-0.0001763	9
	40	110	30.04808	29.15298	-125.7808	1	129.1151	-76.95063	7.674004E-010	-0.0001383	9
	41	113	23.91582	34.49668	-153.0623	1	156.9016	-77.29907	-4.300377E-008	-0.0001352	9
	42	115	18.60119	41.21065	-190.2595	1	194.6715	-77.7784	1.348721E-007	-0.0001378	9
	43	117	15.02404	47.92646	-229.2376	1	234.194	-78.19133	3.555575E-007	-0.000146	9
	44	120	12.01923	56.0621	-278.9327	1	284.5108	-78.63565	1.381272E-007	-0.0001291	9
	45	122	9.450605	66.20185	-345.2462	1	351.5361	-79.14515	3.472126E-008	-0.0001248	9
	46	125	7.512019	77.60527	-422.1962	1	429.2694	-79.58454	5.789989E-007	-0.0001416	8
	47	127	5.978954	91.1679	-518.6558	1	526.6075	-80.03055	5.93711E-007	-0.0001206	8
	48	130	4.734848	108.1987	-641.6181	1	650.6771	-80.42804	6.655635E-007	-0.0001239	8
	49	134	3.75601	129.1226	-792.7292	1	803.1763	-80.7487	5.792725E-007	-0.0001333	8
	50	137	3.004808	154.141	-972.348	1	984.49	-80.99218	6.569234E-007	-0.0001543	8
	51	141	2.372217	189.7784	-1207.437	1	1222.26	-81.06763	6.184267E-007	-0.0001032	8
	52	145	1.878005	234.8234	-1501.87	1	1520.117	-81.11353	5.458293E-007	-0.0001304	8
	53	150	1.512097	286.7552	-1831.317	1	1853.632	-81.10065	6.171165E-007	-0.0001714	8
	54	155	1.201923	366.6385	-2269.773	1	2299.195	-80.82422	5.604303E-007	-0.0001378	8
	55	161	0.956633	470.4509	-2798.98	1	2838.241	-80.45894	5.705762E-007	-0.0006725	8
