EXPLAIN
TAG	EISPOT
TITLE	LABEL	Potentiostatic EIS	Test Identifier
DATE	LABEL	10/12/2021	Date
TIME	LABEL	11:48:12	Time
NOTES	NOTES	1	Notes...
	
PSTAT	PSTAT	REF3000-16137	Potentiostat
VDC	POTEN	0.00000E+000	T	DC Voltage (V)
FREQINIT	QUANT	3.00000E+005	Initial Freq. (Hz)
FREQFINAL	QUANT	1.00000E+000	Final Freq. (Hz)
PTSPERDEC	QUANT	1.00000E+001	Points/decade
VAC	QUANT	5.00000E+001	AC Voltage (mV rms)
AREA	QUANT	1.00000E+000	Sample Area (cm^2)
SPEED	SELECTOR	2	Optimize for:
ZGUESS	QUANT	1.00000E+003	Estimated Z (ohms)
EOC	QUANT	0	Open Circuit (V)
SEQUENCER	TOGGLE	TRUE	Run as Sequence
PSTATMODEL	IQUANT	5	Pstat Model
PSTATSECTION	LABEL	REF3000-16137	Pstat Section
PSTATSERIALNO	LABEL	16137	Pstat Serial Number
CTRLMODE	IQUANT	1	Control Mode
IESTAB	IQUANT	0	I/E Stability
CASPEED	IQUANT	1	Control Amp Speed
CONVENTION	IQUANT	1	Current Convention
ICHRANGE	IQUANT	2	Ich Range
ICHRANGEMODE	TOGGLE	F	Ich Auto Range
ICHOFFSETENABLE	TOGGLE	T	Ich Offset Enable
ICHOFFSET	QUANT	0	Ich Offset (V)
ICHFILTER	IQUANT	3	Ich Filter
VCHRANGE	IQUANT	2	Vch Range
VCHRANGEMODE	TOGGLE	F	Vch Auto Range
VCHOFFSETENABLE	TOGGLE	T	Vch Offset Enable
VCHOFFSET	QUANT	0	Vch Offset (V)
VCHFILTER	IQUANT	3	Vch Filter
ACHRANGE	IQUANT	2	Ach Range
ACHOFFSETENABLE	TOGGLE	F	Ach Offset Enable
ACHOFFSET	QUANT	0	Ach Offset (V)
ACHFILTER	IQUANT	3	Ach Filter
IERANGELOWERLIMIT	IQUANT	2	I/E Range Lower Limit
IERANGEMODE	TOGGLE	F	I/E AutoRange
IERANGE	IQUANT	11	I/E Range
POSFEEDENABLE	TOGGLE	F	Positive Feedback IR Comp
POSFEEDRESISTANCE	QUANT	0	Positive Feedback Resistance (ohm)
ACHSELECT	IQUANT	0	Ach Select
CABLEID	IQUANT	13	Cable ID
DCCALDATE	LABEL	9/10/2021	DC Calibration Date
ACCALDATE	LABEL	9/10/2021	AC Calibration Date
THERMOSELECT	IQUANT	1	Thermo Select
FRAMEWORKVERSION	QUANT	6.33	Framework Version
INSTRUMENTVERSION	LABEL	3.50	Instrument Version
COMPLIANCEVOLTAGE	IQUANT	0	Compliance Voltage
ZCURVE	TABLE
	Pt	Time	Freq	Zreal	Zimag	Zsig	Zmod	Zphz	Idc	Vdc	IERange
	#	s	Hz	ohm	ohm	V	ohm	°	A	V	#
	0	10	300046.9	1.345139	2.401786	1	2.752812	60.74866	-6.933983E-005	-0.0007604	11
	1	13	238359.4	1.454946	1.791773	1	2.308099	50.9229	-0.0002733	-0.0011997	12
	2	17	189328.1	1.272818	1.505501	1	1.971446	49.78733	1.240224E-005	-0.0004223	11
	3	20	150421.9	1.257607	1.180209	1	1.724664	43.18153	1.418717E-005	-0.0001755	11
	4	22	119484.4	1.240662	0.9178094	1	1.543248	36.49308	1.890332E-005	-4.820544E-005	11
	5	25	94921.88	1.234075	0.7049036	1	1.421207	29.73501	-2.2752E-005	2.355547E-005	11
	6	27	75421.88	1.230444	0.5249472	1	1.337745	23.10466	-5.800321E-005	5.241454E-005	11
	7	30	59859.37	1.229041	0.3716784	1	1.284012	16.82601	-9.478108E-005	0.0001189	11
	8	32	47578.12	1.231368	0.2406454	1	1.254663	11.0579	-2.556418E-005	0.0002073	11
	9	35	37828.12	1.234329	0.1241658	1	1.240559	5.744271	-6.361983E-005	0.000248	11
	10	37	30046.88	1.239508	0.0149559	1	1.239598	0.6912965	-7.751712E-005	0.0002844	11
	11	40	23859.38	1.246977	-0.0915819	1	1.250336	-4.20044	-5.388623E-005	0.0003279	11
	12	42	18984.38	1.256302	-0.1997403	1	1.272081	-9.033883	-5.426113E-005	0.0003532	11
	13	45	15046.87	1.268112	-0.3174304	1	1.307237	-14.05336	-3.630956E-005	0.0003654	11
	14	47	11953.13	1.283147	-0.4473925	1	1.358906	-19.22204	-2.316992E-005	0.0003967	11
	15	49	9515.62	1.302299	-0.5943808	1	1.431528	-24.53238	-2.359174E-005	0.0003797	11
	16	52	7546.875	1.327767	-0.7702244	1	1.534996	-30.11758	-3.210678E-005	0.000385	11
	17	54	5928.309	1.361763	-0.988384	1	1.682647	-35.9726	-8.029037E-005	0.0003729	11
	18	56	4733.456	1.40196	-1.233224	1	1.867172	-41.33625	-4.973803E-005	0.0003557	11
	19	58	3796.875	1.452174	-1.521887	1	2.103557	-46.34278	-3.748126E-005	0.0003905	11
	20	61	2987.132	1.522524	-1.902275	1	2.436541	-51.32726	-8.638363E-005	0.0003578	11
	21	63	2390.625	1.604676	-2.333118	1	2.831683	-55.48051	-2.396886E-005	0.0003863	11
	22	65	1884.191	1.717717	-2.891988	1	3.363651	-59.2915	-8.074813E-005	0.0003197	11
	23	68	1516.544	1.847742	-3.510498	1	3.967083	-62.24004	-2.751165E-005	0.0003859	11
	24	70	1193.986	2.02917	-4.342566	1	4.793267	-64.95452	6.047865E-007	-0.0001472	10
	25	73	946.5144	2.25147	-5.325488	1	5.781863	-67.0827	-1.829852E-005	-0.0001163	10
	26	75	751.7689	2.525388	-6.506314	1	6.979234	-68.78657	2.260294E-006	-0.0001452	10
	27	77	597.4265	2.860676	-7.936539	1	8.436357	-70.17862	6.90251E-006	-0.0001337	10
	28	80	477.4305	3.271819	-9.6268	1	10.1676	-71.22887	-1.713543E-006	-0.0001178	10
	29	82	376.6741	3.796212	-11.78445	1	12.38081	-72.14431	-1.368877E-006	-0.0001172	10
	30	84	298.2954	4.424335	-14.37179	1	15.03739	-72.88909	-1.192669E-006	-0.0001135	10
	31	86	237.7717	5.160995	-17.42124	1	18.16963	-73.49822	-1.877283E-006	-0.0001191	10
	32	89	189.0121	6.057753	-21.16141	1	22.0114	-74.02548	-2.290459E-006	-0.0001222	10
	33	91	150.2404	7.129024	-25.69789	1	26.66841	-74.49509	-2.080863E-006	-0.0001197	10
	34	94	119.1737	8.416747	-31.27261	1	32.38546	-74.9363	-1.655403E-006	-0.0001626	10
	35	96	95.0169	9.89759	-37.88868	1	39.16011	-75.35989	-2.410738E-006	-0.0001252	10
	36	99	75.60484	11.63029	-45.96458	1	47.41314	-75.80063	-9.000158E-007	-0.0001368	9
	37	101	54.50582	14.64578	-60.8283	1	62.56661	-76.46243	-9.64726E-007	-0.0001433	9
	38	104	45.95588	16.50244	-70.46913	1	72.37561	-76.82	-4.459996E-007	-0.0001246	9
	39	106	37.20238	19.16472	-84.71161	1	86.85242	-77.2523	-6.158319E-007	-0.0001405	9
	40	108	30.04808	22.33044	-102.1649	1	104.5768	-77.67062	-9.978421E-007	-0.0001341	9
	41	111	23.91582	26.3546	-124.9344	1	127.6839	-78.08824	-9.104336E-007	-0.0001458	9
	42	113	18.60119	31.69496	-156.1272	1	159.3118	-78.52448	-5.525716E-007	-0.0001342	9
	43	115	15.02404	37.41101	-189.0355	1	192.7019	-78.80555	-5.702786E-007	-0.0001464	9
	44	118	12.01923	44.94913	-230.9132	1	235.2474	-78.98466	-5.872055E-007	-0.0001349	9
	45	120	9.450605	55.4752	-286.7511	1	292.068	-79.05076	-7.348813E-007	-0.0001443	9
	46	123	7.512019	68.51567	-352.8905	1	359.4803	-79.01241	-3.89541E-007	-0.0001386	9
	47	125	5.978954	85.39912	-431.4365	1	439.8073	-78.80353	3.068029E-008	-0.0001264	8
	48	129	4.734848	108.4873	-531.7728	1	542.7263	-78.46928	-8.956901E-008	-0.0001587	8
	49	132	3.75601	139.4281	-652.7281	1	667.4535	-77.94236	7.256615E-008	-0.0001142	8
	50	135	3.004808	178.5302	-793.2865	1	813.1276	-77.31682	-4.990579E-008	-9.473984E-005	8
	51	139	2.372217	232.4224	-972.682	1	1000.065	-76.56116	-5.975496E-008	-6.797414E-005	8
	52	143	1.878005	304.1559	-1186	1	1224.38	-75.6162	-4.940294E-008	-0.0001502	8
	53	148	1.512097	389.1107	-1421.013	1	1473.324	-74.68629	-3.009495E-008	-2.520661E-005	8
	54	153	1.201923	501.6833	-1718.854	1	1790.571	-73.72902	-4.192712E-008	-0.000152	8
	55	159	0.956633	645.4319	-2070.182	1	2168.464	-72.68381	-1.269905E-007	-0.000666	8
