EXPLAIN
TAG	EISPOT
TITLE	LABEL	Potentiostatic EIS	Test Identifier
DATE	LABEL	10/12/2021	Date
TIME	LABEL	13:16:00	Time
NOTES	NOTES	1	Notes...
	
PSTAT	PSTAT	REF3000-16137	Potentiostat
VDC	POTEN	0.00000E+000	T	DC Voltage (V)
FREQINIT	QUANT	3.00000E+005	Initial Freq. (Hz)
FREQFINAL	QUANT	1.00000E+000	Final Freq. (Hz)
PTSPERDEC	QUANT	1.00000E+001	Points/decade
VAC	QUANT	5.00000E+001	AC Voltage (mV rms)
AREA	QUANT	1.00000E+000	Sample Area (cm^2)
SPEED	SELECTOR	2	Optimize for:
ZGUESS	QUANT	1.00000E+003	Estimated Z (ohms)
EOC	QUANT	0	Open Circuit (V)
SEQUENCER	TOGGLE	TRUE	Run as Sequence
PSTATMODEL	IQUANT	5	Pstat Model
PSTATSECTION	LABEL	REF3000-16137	Pstat Section
PSTATSERIALNO	LABEL	16137	Pstat Serial Number
CTRLMODE	IQUANT	1	Control Mode
IESTAB	IQUANT	0	I/E Stability
CASPEED	IQUANT	1	Control Amp Speed
CONVENTION	IQUANT	1	Current Convention
ICHRANGE	IQUANT	2	Ich Range
ICHRANGEMODE	TOGGLE	F	Ich Auto Range
ICHOFFSETENABLE	TOGGLE	T	Ich Offset Enable
ICHOFFSET	QUANT	0	Ich Offset (V)
ICHFILTER	IQUANT	3	Ich Filter
VCHRANGE	IQUANT	2	Vch Range
VCHRANGEMODE	TOGGLE	F	Vch Auto Range
VCHOFFSETENABLE	TOGGLE	T	Vch Offset Enable
VCHOFFSET	QUANT	0	Vch Offset (V)
VCHFILTER	IQUANT	3	Vch Filter
ACHRANGE	IQUANT	2	Ach Range
ACHOFFSETENABLE	TOGGLE	F	Ach Offset Enable
ACHOFFSET	QUANT	0	Ach Offset (V)
ACHFILTER	IQUANT	3	Ach Filter
IERANGELOWERLIMIT	IQUANT	2	I/E Range Lower Limit
IERANGEMODE	TOGGLE	F	I/E AutoRange
IERANGE	IQUANT	11	I/E Range
POSFEEDENABLE	TOGGLE	F	Positive Feedback IR Comp
POSFEEDRESISTANCE	QUANT	0	Positive Feedback Resistance (ohm)
ACHSELECT	IQUANT	0	Ach Select
CABLEID	IQUANT	13	Cable ID
DCCALDATE	LABEL	9/10/2021	DC Calibration Date
ACCALDATE	LABEL	9/10/2021	AC Calibration Date
THERMOSELECT	IQUANT	1	Thermo Select
FRAMEWORKVERSION	QUANT	6.33	Framework Version
INSTRUMENTVERSION	LABEL	3.50	Instrument Version
COMPLIANCEVOLTAGE	IQUANT	0	Compliance Voltage
ZCURVE	TABLE
	Pt	Time	Freq	Zreal	Zimag	Zsig	Zmod	Zphz	Idc	Vdc	IERange
	#	s	Hz	ohm	ohm	V	ohm	°	A	V	#
	0	19	300046.9	1761.928	-2440.798	1	3010.296	-54.17577	5.557795E-005	-0.0003121	9
	1	39	238359.4	2214.786	-2750.109	1	3531.059	-51.15394	8.594064E-005	-0.0020256	9
	2	55	189328.1	2792.144	-3157.609	1	4215.04	-48.515	-6.632547E-005	0.0005429	9
	3	65	150421.9	3373.802	-3200.833	1	4650.578	-43.49298	-2.130627E-005	0.0015058	9
	4	73	119484.4	4241.306	-3156.889	1	5287.214	-36.66105	7.962071E-006	0.0131251	8
	5	80	94921.88	4977.08	-3173.181	1	5902.575	-32.51991	2.662743E-005	-0.0063889	8
	6	88	75421.88	5703.325	-3133.444	1	6507.41	-28.78468	-2.128273E-005	0.002644	8
	7	96	59859.37	6424.199	-3050.059	1	7111.483	-25.39727	-7.075367E-008	0.006338	8
	8	103	47578.12	7696.232	-2105.354	1	7979.004	-15.29933	-6.653358E-006	0.0205395	7
	9	107	37828.12	8079.087	-1838.818	1	8285.705	-12.82221	-5.964674E-006	0.0226626	7
	10	113	30046.88	8430.547	-1669.846	1	8594.33	-11.20362	5.980615E-006	-0.0095128	7
	11	117	23859.38	8732.92	-1418.036	1	8847.3	-9.223089	-2.985602E-006	-0.0057926	7
	12	121	18984.38	9012.096	-1240.486	1	9097.069	-7.837329	-6.730786E-006	0.0209192	7
	13	124	15046.87	9275.452	-1060.637	1	9335.896	-6.523373	-6.09067E-006	0.0100446	7
	14	128	11953.13	9534.32	-958.016	1	9582.33	-5.737866	4.459888E-006	-0.001089	7
	15	133	9515.62	9821.25	-811.9007	1	9854.75	-4.725769	-8.850449E-007	-0.0131223	7
	16	137	7546.875	10034.3	-691.4404	1	10058.1	-3.941888	-4.826086E-006	0.0024541	7
	17	141	5928.309	10325.66	-593.7566	1	10342.72	-3.291056	-1.672629E-006	0.0196126	7
	18	145	4733.456	10469.22	-493.5664	1	10480.85	-2.699184	-6.192609E-006	0.0103365	7
	19	149	3796.875	10799.51	-518.2065	1	10811.94	-2.747188	6.350242E-006	-0.0253304	7
	20	153	2987.132	11051.87	-455.2224	1	11061.24	-2.358658	7.039536E-006	-0.0177259	7
	21	158	2390.625	11319.03	-430.9608	1	11327.23	-2.180426	1.369781E-006	-0.0194087	7
	22	162	1884.191	11661.28	-473.9734	1	11670.91	-2.327509	-6.84598E-006	0.016905	7
	23	166	1516.544	11844.06	-447.1842	1	11852.5	-2.162232	-6.856299E-006	0.0169976	7
	24	170	1193.986	12195.29	-495.068	1	12205.33	-2.324647	4.576635E-006	-0.0012401	7
	25	175	946.5144	12297.79	-436.3377	1	12305.53	-2.032058	-5.027687E-006	0.0030579	7
	26	178	751.7689	12643.3	-512.0159	1	12653.67	-2.31904	-6.20707E-006	0.0105199	7
	27	180	597.4265	13102.37	-768.3977	1	13124.89	-3.356306	6.511756E-006	-0.0260445	7
	28	183	477.4305	13149.44	-559.127	1	13161.32	-2.434806	-6.113903E-008	-0.0001315	7
	29	185	376.6741	13397.54	-606.4603	1	13411.25	-2.591813	-6.585361E-008	-0.0001312	7
	30	188	298.2954	13649.34	-655.1149	1	13665.06	-2.747864	-6.352192E-008	-0.0001247	7
	31	190	237.7717	13929.81	-703.4238	1	13947.56	-2.890851	-5.895298E-008	-6.019063E-005	7
	32	192	189.0121	14219.82	-750.3446	1	14239.6	-3.020556	-5.93269E-008	-0.0001554	7
	33	195	150.2404	14522.24	-791.7275	1	14543.8	-3.120578	-5.022499E-008	-0.0001379	7
	34	197	119.1737	14842.86	-832.9299	1	14866.21	-3.211871	-5.997829E-008	-5.605665E-005	7
	35	200	95.0169	15145.26	-871.6281	1	15170.32	-3.293808	-6.31479E-008	-0.0001492	7
	36	202	75.60484	15483.82	-911.8766	1	15510.65	-3.370383	-6.988354E-008	-8.137077E-005	7
	37	205	54.50582	15868.33	-974.038	1	15898.2	-3.512552	-4.56262E-008	-0.0001152	7
	38	207	45.95588	16165	-1020.786	1	16197.2	-3.613313	-6.748894E-008	-8.580815E-005	7
	39	210	37.20238	16471.35	-1086.554	1	16507.15	-3.774123	-8.802328E-008	-7.183752E-005	7
	40	212	30.04808	16813.53	-1162.46	1	16853.67	-3.955042	-8.229588E-008	-6.826669E-005	7
	41	214	23.91582	17136.29	-1265.466	1	17182.96	-4.223464	-9.343678E-008	-6.230079E-005	7
	42	217	18.60119	17484.15	-1427.475	1	17542.32	-4.667502	-8.870691E-008	-0.0001156	7
	43	219	15.02404	17864.39	-1571.776	1	17933.4	-5.02815	-1.133341E-007	-0.0001509	7
	44	221	12.01923	18202.68	-1761.714	1	18287.73	-5.528052	-1.163824E-007	-6.347533E-005	7
	45	224	9.450605	18629.22	-2067.937	1	18743.65	-6.334188	-6.477732E-008	-0.0000972	7
	46	226	7.512019	19020.08	-2432.477	1	19174.99	-7.287993	-1.009659E-009	-6.098803E-005	7
	47	229	5.978954	19540.47	-2837.664	1	19745.44	-8.262722	-1.289302E-008	-0.0001539	7
	48	232	4.734848	20085.82	-3341.986	1	20361.95	-9.446638	-1.397369E-008	-4.993336E-005	7
	49	235	3.75601	20726.54	-3947.25	1	21099.06	-10.78253	-8.558397E-008	-6.929207E-005	7
	50	239	3.004808	21469.39	-4691.322	1	21975.97	-12.32608	-8.730629E-008	-0.0001242	7
	51	243	2.372217	22281.66	-5557.648	1	22964.32	-14.00534	-6.02374E-008	-3.117031E-005	7
	52	247	1.878005	23261.14	-6719.795	1	24212.32	-16.11321	-8.000637E-008	-0.000128	7
	53	251	1.512097	24387.45	-7974.926	1	25658.27	-18.10824	-7.661666E-008	-6.907481E-005	7
	54	257	1.201923	25734.71	-9546.75	1	27448.42	-20.35324	-5.817513E-008	-0.0001409	7
	55	263	0.956633	27394.86	-11511.8	1	29715.31	-22.793	-7.766867E-008	-0.0006544	7
