EXPLAIN
TAG	EISPOT
TITLE	LABEL	Potentiostatic EIS	Test Identifier
DATE	LABEL	10/12/2021	Date
TIME	LABEL	12:55:57	Time
NOTES	NOTES	1	Notes...
	
PSTAT	PSTAT	REF3000-16137	Potentiostat
VDC	POTEN	0.00000E+000	T	DC Voltage (V)
FREQINIT	QUANT	3.00000E+005	Initial Freq. (Hz)
FREQFINAL	QUANT	1.00000E+000	Final Freq. (Hz)
PTSPERDEC	QUANT	1.00000E+001	Points/decade
VAC	QUANT	5.00000E+001	AC Voltage (mV rms)
AREA	QUANT	1.00000E+000	Sample Area (cm^2)
SPEED	SELECTOR	2	Optimize for:
ZGUESS	QUANT	1.00000E+003	Estimated Z (ohms)
EOC	QUANT	0	Open Circuit (V)
SEQUENCER	TOGGLE	TRUE	Run as Sequence
PSTATMODEL	IQUANT	5	Pstat Model
PSTATSECTION	LABEL	REF3000-16137	Pstat Section
PSTATSERIALNO	LABEL	16137	Pstat Serial Number
CTRLMODE	IQUANT	1	Control Mode
IESTAB	IQUANT	0	I/E Stability
CASPEED	IQUANT	1	Control Amp Speed
CONVENTION	IQUANT	1	Current Convention
ICHRANGE	IQUANT	2	Ich Range
ICHRANGEMODE	TOGGLE	F	Ich Auto Range
ICHOFFSETENABLE	TOGGLE	T	Ich Offset Enable
ICHOFFSET	QUANT	0	Ich Offset (V)
ICHFILTER	IQUANT	3	Ich Filter
VCHRANGE	IQUANT	2	Vch Range
VCHRANGEMODE	TOGGLE	F	Vch Auto Range
VCHOFFSETENABLE	TOGGLE	T	Vch Offset Enable
VCHOFFSET	QUANT	0	Vch Offset (V)
VCHFILTER	IQUANT	3	Vch Filter
ACHRANGE	IQUANT	2	Ach Range
ACHOFFSETENABLE	TOGGLE	F	Ach Offset Enable
ACHOFFSET	QUANT	0	Ach Offset (V)
ACHFILTER	IQUANT	3	Ach Filter
IERANGELOWERLIMIT	IQUANT	2	I/E Range Lower Limit
IERANGEMODE	TOGGLE	F	I/E AutoRange
IERANGE	IQUANT	11	I/E Range
POSFEEDENABLE	TOGGLE	F	Positive Feedback IR Comp
POSFEEDRESISTANCE	QUANT	0	Positive Feedback Resistance (ohm)
ACHSELECT	IQUANT	0	Ach Select
CABLEID	IQUANT	13	Cable ID
DCCALDATE	LABEL	9/10/2021	DC Calibration Date
ACCALDATE	LABEL	9/10/2021	AC Calibration Date
THERMOSELECT	IQUANT	1	Thermo Select
FRAMEWORKVERSION	QUANT	6.33	Framework Version
INSTRUMENTVERSION	LABEL	3.50	Instrument Version
COMPLIANCEVOLTAGE	IQUANT	0	Compliance Voltage
ZCURVE	TABLE
	Pt	Time	Freq	Zreal	Zimag	Zsig	Zmod	Zphz	Idc	Vdc	IERange
	#	s	Hz	ohm	ohm	V	ohm	°	A	V	#
	0	7	300046.9	77.22933	1.018398	1	77.23605	0.7554966	2.652066E-005	-0.0004008	9
	1	10	238359.4	78.12607	0.5828606	1	78.12824	0.4274481	-7.214829E-005	0.0014594	9
	2	13	189328.1	79.06329	0.204411	1	79.06356	0.1481327	-5.857682E-005	0.0017871	9
	3	16	150421.9	79.29343	-0.0812225	1	79.29347	-0.0586897	1.071768E-005	-0.0010009	9
	4	18	119484.4	80.07957	-0.3094406	1	80.08017	-0.2213992	5.970832E-005	-0.0017459	9
	5	21	94921.88	80.7253	-0.4256182	1	80.72642	-0.302085	5.008601E-007	0.0002186	9
	6	23	75421.88	81.33384	-0.7243074	1	81.33707	-0.5102262	-1.532055E-005	-4.737183E-005	9
	7	26	59859.37	81.99436	-1.046346	1	82.00104	-0.7311228	1.821227E-005	-0.0003582	9
	8	28	47578.12	82.70332	-1.345281	1	82.71426	-0.9319107	2.206188E-006	0.0001444	9
	9	31	37828.12	83.48734	-1.665051	1	83.50394	-1.142541	1.929534E-005	-0.0008199	9
	10	33	30046.88	84.21046	-1.844168	1	84.23065	-1.254549	2.062863E-005	-0.0008736	9
	11	36	23859.38	84.98814	-2.167732	1	85.01578	-1.461086	1.797026E-005	-0.0003228	9
	12	38	18984.38	85.76378	-2.495281	1	85.80007	-1.66654	-1.929179E-005	0.000307	9
	13	41	15046.87	86.56445	-2.845432	1	86.6112	-1.882673	1.76295E-005	-0.0003864	9
	14	43	11953.13	87.45795	-3.217151	1	87.5171	-2.106683	2.061856E-005	-0.0008984	9
	15	45	9515.62	88.34348	-3.686718	1	88.42038	-2.38966	1.073459E-005	-0.0008109	9
	16	48	7546.875	89.28767	-4.203802	1	89.38657	-2.695584	-6.115988E-006	0.0004084	9
	17	50	5928.309	90.33033	-4.788638	1	90.45717	-3.034553	-1.993127E-005	0.0005581	9
	18	52	4733.456	91.34443	-5.418414	1	91.505	-3.394721	-1.704135E-005	0.0000953	9
	19	55	3796.875	92.33922	-6.125221	1	92.54215	-3.795093	2.066113E-005	-0.0005228	9
	20	57	2987.132	93.46545	-7.14023	1	93.73779	-4.368587	1.069288E-005	-0.0008151	9
	21	59	2390.625	94.65971	-8.218605	1	95.0158	-4.962127	2.969445E-006	0.0002476	9
	22	62	1884.191	95.9138	-9.59568	1	96.3926	-5.713133	-1.983636E-005	0.0003017	9
	23	64	1516.544	97.147	-11.03014	1	97.7712	-6.477665	-1.240196E-005	0.0006015	9
	24	66	1193.986	98.604	-13.11996	1	99.473	-7.579091	-1.760573E-005	0.0006169	9
	25	69	946.5144	100.1325	-15.54816	1	101.3325	-8.826162	-1.226924E-005	0.0006281	9
	26	71	751.7689	101.8607	-18.37174	1	103.5042	-10.22403	2.103063E-005	-0.0008743	9
	27	73	597.4265	103.5919	-21.77227	1	105.8552	-11.8693	2.031944E-005	-0.0008669	9
	28	76	477.4305	105.6807	-25.95267	1	108.8208	-13.79744	4.381031E-007	-0.0001257	9
	29	78	376.6741	107.9745	-31.19917	1	112.3916	-16.11663	4.603217E-007	-0.0001344	9
	30	80	298.2954	110.5459	-37.49207	1	116.7306	-18.73457	3.890621E-007	-0.000129	9
	31	83	237.7717	113.4193	-44.9087	1	121.9866	-21.60122	4.549924E-007	-0.0001267	9
	32	85	189.0121	116.7161	-53.9841	1	128.596	-24.82172	3.843639E-007	-0.0001291	9
	33	88	150.2404	120.4852	-64.99773	1	136.8992	-28.34537	4.21502E-007	-0.0001285	9
	34	90	119.1737	124.8058	-78.48363	1	147.4319	-32.16357	3.856327E-007	-0.0001267	9
	35	92	95.0169	129.6566	-94.50833	1	160.4452	-36.08879	3.062299E-007	-0.0001279	9
	36	95	75.60484	135.287	-114.1609	1	177.0178	-40.15909	4.099264E-007	-0.0001344	9
	37	98	54.50582	144.5053	-149.9656	1	208.2581	-46.0623	2.978464E-007	-0.0001346	9
	38	100	45.95588	150.5058	-173.2229	1	229.4737	-49.01404	3.967272E-007	-0.0001329	9
	39	102	37.20238	158.706	-207.2481	1	261.0352	-52.5559	4.514476E-007	-0.0001398	9
	40	105	30.04808	168.4217	-248.8732	1	300.5058	-55.91233	4.550326E-007	-0.0001456	9
	41	107	23.91582	180.5716	-302.9604	1	352.6913	-59.20406	2.994805E-007	-0.0001345	9
	42	110	18.60119	195.7584	-375.1274	1	423.1335	-62.44242	1.446326E-007	-0.0001275	8
	43	112	15.02404	212.401	-451.8559	1	499.2874	-64.82349	1.282026E-007	-0.0001207	8
	44	114	12.01923	233.8018	-549.3791	1	597.06	-66.94662	9.656641E-008	-0.0001239	8
	45	117	9.450605	262.063	-678.1483	1	727.0227	-68.87152	1.250663E-007	-0.0001051	8
	46	119	7.512019	295.9149	-829.3077	1	880.5209	-70.3625	1.856726E-007	-0.0001081	8
	47	122	5.978954	338.1537	-1011.923	1	1066.928	-71.52194	1.65477E-007	-0.0001173	8
	48	125	4.734848	391.3901	-1240.829	1	1301.093	-72.49336	2.51007E-007	-0.0001014	8
	49	128	3.75601	458.7692	-1516.065	1	1583.958	-73.16391	1.701601E-007	-0.0001301	8
	50	132	3.004808	538.1942	-1837.426	1	1914.625	-73.67435	1.977926E-007	-0.0000979	8
	51	135	2.372217	641.9345	-2254.076	1	2343.702	-74.10367	1.971736E-007	-4.080944E-005	8
	52	140	1.878005	767.7576	-2751.964	1	2857.054	-74.41168	1.86764E-007	-0.0001451	8
	53	144	1.512097	913.052	-3308.338	1	3432.02	-74.57129	1.9966E-007	-3.451814E-005	8
	54	150	1.201923	1090.459	-4031.663	1	4176.53	-74.86513	1.952216E-007	-0.0001552	8
	55	156	0.956633	1309.625	-4910.918	1	5082.542	-75.06808	8.016552E-010	-0.0006532	7
