EXPLAIN
TAG	EISPOT
TITLE	LABEL	Potentiostatic EIS	Test Identifier
DATE	LABEL	10/12/2021	Date
TIME	LABEL	13:07:38	Time
NOTES	NOTES	1	Notes...
	
PSTAT	PSTAT	REF3000-16137	Potentiostat
VDC	POTEN	0.00000E+000	T	DC Voltage (V)
FREQINIT	QUANT	3.00000E+005	Initial Freq. (Hz)
FREQFINAL	QUANT	1.00000E+000	Final Freq. (Hz)
PTSPERDEC	QUANT	1.00000E+001	Points/decade
VAC	QUANT	5.00000E+001	AC Voltage (mV rms)
AREA	QUANT	1.00000E+000	Sample Area (cm^2)
SPEED	SELECTOR	2	Optimize for:
ZGUESS	QUANT	1.00000E+003	Estimated Z (ohms)
EOC	QUANT	0	Open Circuit (V)
SEQUENCER	TOGGLE	TRUE	Run as Sequence
PSTATMODEL	IQUANT	5	Pstat Model
PSTATSECTION	LABEL	REF3000-16137	Pstat Section
PSTATSERIALNO	LABEL	16137	Pstat Serial Number
CTRLMODE	IQUANT	1	Control Mode
IESTAB	IQUANT	0	I/E Stability
CASPEED	IQUANT	1	Control Amp Speed
CONVENTION	IQUANT	1	Current Convention
ICHRANGE	IQUANT	2	Ich Range
ICHRANGEMODE	TOGGLE	F	Ich Auto Range
ICHOFFSETENABLE	TOGGLE	T	Ich Offset Enable
ICHOFFSET	QUANT	0	Ich Offset (V)
ICHFILTER	IQUANT	3	Ich Filter
VCHRANGE	IQUANT	2	Vch Range
VCHRANGEMODE	TOGGLE	F	Vch Auto Range
VCHOFFSETENABLE	TOGGLE	T	Vch Offset Enable
VCHOFFSET	QUANT	0	Vch Offset (V)
VCHFILTER	IQUANT	3	Vch Filter
ACHRANGE	IQUANT	2	Ach Range
ACHOFFSETENABLE	TOGGLE	F	Ach Offset Enable
ACHOFFSET	QUANT	0	Ach Offset (V)
ACHFILTER	IQUANT	3	Ach Filter
IERANGELOWERLIMIT	IQUANT	2	I/E Range Lower Limit
IERANGEMODE	TOGGLE	F	I/E AutoRange
IERANGE	IQUANT	11	I/E Range
POSFEEDENABLE	TOGGLE	F	Positive Feedback IR Comp
POSFEEDRESISTANCE	QUANT	0	Positive Feedback Resistance (ohm)
ACHSELECT	IQUANT	0	Ach Select
CABLEID	IQUANT	13	Cable ID
DCCALDATE	LABEL	9/10/2021	DC Calibration Date
ACCALDATE	LABEL	9/10/2021	AC Calibration Date
THERMOSELECT	IQUANT	1	Thermo Select
FRAMEWORKVERSION	QUANT	6.33	Framework Version
INSTRUMENTVERSION	LABEL	3.50	Instrument Version
COMPLIANCEVOLTAGE	IQUANT	0	Compliance Voltage
ZCURVE	TABLE
	Pt	Time	Freq	Zreal	Zimag	Zsig	Zmod	Zphz	Idc	Vdc	IERange
	#	s	Hz	ohm	ohm	V	ohm	°	A	V	#
	0	17	300046.9	666.0646	-141.6501	1	680.9603	-12.00607	2.598395E-005	-0.0019753	9
	1	31	238359.4	708.7092	-130.257	1	720.5801	-10.41443	8.309465E-005	-0.0038048	9
	2	42	189328.1	752.6531	-119.8878	1	762.1415	-9.050435	2.199633E-005	-0.0020791	9
	3	53	150421.9	777.8344	-106.3218	1	785.0673	-7.783499	1.858837E-005	-0.0010985	9
	4	62	119484.4	816.3434	-62.68467	1	818.7466	-4.390962	5.065137E-005	-0.0215316	8
	5	69	94921.88	831.0041	-53.72673	1	832.7391	-3.699183	-1.382002E-005	0.0009201	8
	6	71	75421.88	841.3452	-44.08323	1	842.4993	-2.999334	8.558673E-006	0.0014823	8
	7	74	59859.37	850.4786	-38.55033	1	851.3518	-2.595316	8.682678E-006	0.0013865	8
	8	76	47578.12	859.1456	-31.90958	1	859.7379	-2.127048	1.979111E-005	-0.0065941	8
	9	79	37828.12	867.409	-30.96721	1	867.9616	-2.044638	1.849881E-005	-0.0038226	8
	10	82	30046.88	878.126	-27.69961	1	878.5628	-1.806739	1.815269E-005	-0.0073047	8
	11	84	23859.38	890.6871	-21.4065	1	890.9443	-1.376764	2.075992E-005	-0.0065634	8
	12	87	18984.38	900.4883	-21.13667	1	900.7363	-1.344625	1.942153E-005	-0.0038135	8
	13	90	15046.87	908.4326	-20.0574	1	908.6539	-1.264835	1.909704E-005	-0.0037238	8
	14	92	11953.13	916.8198	-16.03046	1	916.9599	-1.001707	-9.811461E-006	-0.0010447	8
	15	95	9515.62	932.3858	-18.30457	1	932.5655	-1.124684	1.536533E-005	-0.0078109	8
	16	99	7546.875	945.8531	-19.2008	1	946.048	-1.162943	3.685592E-006	-0.0056618	8
	17	102	5928.309	958.734	-21.57932	1	958.977	-1.289403	1.555449E-005	-0.0014701	8
	18	105	4733.456	972.984	-17.49582	1	973.141	-1.030159	1.93815E-005	-0.0037412	8
	19	108	3796.875	984.923	-27.93575	1	985.319	-1.624667	1.904144E-005	-0.007727	8
	20	110	2987.132	993.092	-22.08719	1	993.338	-1.274095	2.084105E-005	-0.0053218	8
	21	114	2390.625	1010.383	-28.52424	1	1010.786	-1.617094	2.084079E-005	-0.0068443	8
	22	117	1884.191	1029.947	-28.54666	1	1030.343	-1.587639	1.466851E-006	0.0043324	8
	23	121	1516.544	1045.324	-33.99522	1	1045.877	-1.862672	-9.980666E-006	-0.0011962	8
	24	124	1193.986	1062.449	-40.01218	1	1063.202	-2.156759	1.953109E-005	-0.0037192	8
	25	128	946.5144	1077.923	-41.99399	1	1078.74	-2.231015	3.865916E-006	-0.0059987	8
	26	130	751.7689	1094.485	-46.14738	1	1095.458	-2.414364	-1.960961E-005	0.0071918	8
	27	133	597.4265	1110.873	-57.0897	1	1112.339	-2.941942	9.540096E-007	0.0045904	8
	28	135	477.4305	1127.163	-63.04526	1	1128.925	-3.201372	-9.330814E-008	-0.0001364	8
	29	138	376.6741	1143.695	-71.31148	1	1145.916	-3.567877	-1.029253E-007	-0.000135	8
	30	140	298.2954	1160.667	-80.91488	1	1163.484	-3.987872	-1.09765E-007	-0.0001149	8
	31	142	237.7717	1178.55	-92.11327	1	1182.144	-4.469048	-1.075456E-007	-0.0001266	8
	32	145	189.0121	1197.037	-105.7567	1	1201.7	-5.0489	-1.489372E-007	-0.000113	8
	33	147	150.2404	1216.458	-122.3508	1	1222.595	-5.743469	-1.243301E-007	-0.0001203	8
	34	150	119.1737	1236.806	-142.7217	1	1245.013	-6.582553	-1.475897E-007	-0.0001098	8
	35	152	95.0169	1258.234	-167.1325	1	1269.285	-7.566364	-9.382979E-008	-0.0001363	8
	36	155	75.60484	1281.61	-197.1002	1	1296.678	-8.743078	-1.193616E-007	-0.0001131	8
	37	157	54.50582	1313.255	-251.39	1	1337.1	-10.83675	-1.089502E-007	-0.0001229	8
	38	160	45.95588	1337.048	-286.7403	1	1367.449	-12.10418	-1.683575E-007	-0.0001269	8
	39	162	37.20238	1365.014	-337.7962	1	1406.19	-13.89958	-1.75478E-007	-0.0001211	8
	40	164	30.04808	1397.245	-399.4058	1	1453.21	-15.95271	-1.807707E-007	-0.0001059	8
	41	167	23.91582	1433.876	-478.2106	1	1511.518	-18.444	-1.207989E-007	-0.0001713	8
	42	169	18.60119	1477.768	-586.192	1	1589.786	-21.63693	-2.939646E-007	-0.0001251	8
	43	172	15.02404	1522.027	-695.1083	1	1673.243	-24.54614	-6.591896E-009	-0.0001104	8
	44	174	12.01923	1572.848	-832.3277	1	1779.5	-27.88713	-1.725031E-007	-0.0001264	8
	45	176	9.450605	1633.068	-1013.135	1	1921.81	-31.81494	-1.103759E-007	-0.0000996	8
	46	179	7.512019	1700.743	-1222.669	1	2094.623	-35.71247	-1.426704E-008	-0.0001225	8
	47	182	5.978954	1780.373	-1479.924	1	2315.147	-39.73484	-1.216794E-007	-0.0001058	8
	48	185	4.734848	1872.832	-1799.427	1	2597.198	-43.85486	-5.453295E-008	-0.0000973	8
	49	188	3.75601	1983.035	-2190.245	1	2954.59	-47.8425	-1.430371E-007	-0.0001202	8
	50	191	3.004808	2104.934	-2650.151	1	3384.383	-51.54095	-1.214075E-007	-8.815025E-005	8
	51	195	2.372217	2260	-3251.834	1	3960.053	-55.20099	-1.161581E-007	-4.779807E-005	8
	52	199	1.878005	2445.623	-3994.175	1	4683.429	-58.52097	-4.387591E-008	-0.0001341	7
	53	204	1.512097	2658.743	-4820.482	1	5505.085	-61.12101	-2.572214E-008	-3.179923E-005	7
	54	209	1.201923	2923.706	-5916.07	1	6599.086	-63.70154	-2.774746E-008	-0.0001362	7
	55	216	0.956633	3248.463	-7244.408	1	7939.393	-65.84807	-4.872289E-008	-0.000654	7
