EXPLAIN
TAG	EISPOT
TITLE	LABEL	Potentiostatic EIS	Test Identifier
DATE	LABEL	10/12/2021	Date
TIME	LABEL	13:20:32	Time
NOTES	NOTES	1	Notes...
	
PSTAT	PSTAT	REF3000-16137	Potentiostat
VDC	POTEN	0.00000E+000	T	DC Voltage (V)
FREQINIT	QUANT	3.00000E+005	Initial Freq. (Hz)
FREQFINAL	QUANT	1.00000E+000	Final Freq. (Hz)
PTSPERDEC	QUANT	1.00000E+001	Points/decade
VAC	QUANT	5.00000E+001	AC Voltage (mV rms)
AREA	QUANT	1.00000E+000	Sample Area (cm^2)
SPEED	SELECTOR	2	Optimize for:
ZGUESS	QUANT	1.00000E+003	Estimated Z (ohms)
EOC	QUANT	0	Open Circuit (V)
SEQUENCER	TOGGLE	TRUE	Run as Sequence
PSTATMODEL	IQUANT	5	Pstat Model
PSTATSECTION	LABEL	REF3000-16137	Pstat Section
PSTATSERIALNO	LABEL	16137	Pstat Serial Number
CTRLMODE	IQUANT	1	Control Mode
IESTAB	IQUANT	0	I/E Stability
CASPEED	IQUANT	1	Control Amp Speed
CONVENTION	IQUANT	1	Current Convention
ICHRANGE	IQUANT	2	Ich Range
ICHRANGEMODE	TOGGLE	F	Ich Auto Range
ICHOFFSETENABLE	TOGGLE	T	Ich Offset Enable
ICHOFFSET	QUANT	0	Ich Offset (V)
ICHFILTER	IQUANT	3	Ich Filter
VCHRANGE	IQUANT	2	Vch Range
VCHRANGEMODE	TOGGLE	F	Vch Auto Range
VCHOFFSETENABLE	TOGGLE	T	Vch Offset Enable
VCHOFFSET	QUANT	0	Vch Offset (V)
VCHFILTER	IQUANT	3	Vch Filter
ACHRANGE	IQUANT	2	Ach Range
ACHOFFSETENABLE	TOGGLE	F	Ach Offset Enable
ACHOFFSET	QUANT	0	Ach Offset (V)
ACHFILTER	IQUANT	3	Ach Filter
IERANGELOWERLIMIT	IQUANT	2	I/E Range Lower Limit
IERANGEMODE	TOGGLE	F	I/E AutoRange
IERANGE	IQUANT	11	I/E Range
POSFEEDENABLE	TOGGLE	F	Positive Feedback IR Comp
POSFEEDRESISTANCE	QUANT	0	Positive Feedback Resistance (ohm)
ACHSELECT	IQUANT	0	Ach Select
CABLEID	IQUANT	13	Cable ID
DCCALDATE	LABEL	9/10/2021	DC Calibration Date
ACCALDATE	LABEL	9/10/2021	AC Calibration Date
THERMOSELECT	IQUANT	1	Thermo Select
FRAMEWORKVERSION	QUANT	6.33	Framework Version
INSTRUMENTVERSION	LABEL	3.50	Instrument Version
COMPLIANCEVOLTAGE	IQUANT	0	Compliance Voltage
ZCURVE	TABLE
	Pt	Time	Freq	Zreal	Zimag	Zsig	Zmod	Zphz	Idc	Vdc	IERange
	#	s	Hz	ohm	ohm	V	ohm	°	A	V	#
	0	17	300046.9	820.4069	-3850.311	1	3936.745	-77.97156	-8.052471E-006	-0.0022305	9
	1	43	238359.4	1167.798	-4710.065	1	4852.676	-76.07507	2.8625E-005	-0.0018331	9
	2	63	189328.1	1598.193	-5912.602	1	6124.792	-74.87426	2.554772E-005	-0.0017818	9
	3	71	150421.9	2260.495	-6974.729	1	7331.895	-72.04259	-3.271394E-005	-0.001111	9
	4	78	119484.4	3174.848	-8037.45	1	8641.774	-68.44564	-9.435243E-006	-0.0143655	8
	5	86	94921.88	4245.421	-10002.02	1	10865.72	-67.00089	1.007208E-005	0.0029384	8
	6	94	75421.88	5847.832	-11954.12	1	13307.82	-63.93259	-2.327152E-006	-0.0056087	8
	7	102	59859.37	7770.106	-14042.6	1	16048.96	-61.0432	2.712381E-005	-0.0064265	8
	8	111	47578.12	12701.37	-15857.6	1	20317.19	-51.30653	6.602922E-006	-0.0112679	7
	9	118	37828.12	15690.18	-17496.53	1	23501.28	-48.11552	7.540517E-006	-0.0196223	7
	10	125	30046.88	19258.09	-19084.96	1	27112.9	-44.7413	-6.740219E-006	0.0119733	7
	11	131	23859.38	21964.79	-21776.21	1	30929.85	-44.75299	1.601956E-005	-0.0101966	8
	12	137	18984.38	27968.06	-21720.18	1	35411.56	-37.83314	5.198619E-006	-0.0271867	7
	13	143	15046.87	31235.79	-21653.51	1	38007.22	-34.73076	-2.27628E-006	-0.0056455	8
	14	149	11953.13	37906.05	-21463.49	1	43560.87	-29.51978	-7.186572E-006	0.0232357	7
	15	155	9515.62	41902.7	-20971.52	1	46857.67	-26.58711	-1.881696E-005	0.0107194	8
	16	161	7546.875	46805.09	-19218.56	1	50597.13	-22.32346	9.628497E-006	0.0030223	8
	17	167	5928.309	52985.85	-18261.68	1	56044.53	-19.01661	3.063024E-006	0.0066218	7
	18	173	4733.456	56718.8	-16072.58	1	58952.1	-15.8213	-1.459511E-006	0.0204732	7
	19	178	3796.875	59348.76	-16601.98	1	61627.11	-15.62822	7.510887E-007	0.0148377	7
	20	184	2987.132	63243.43	-13638.85	1	64697.37	-12.16982	1.056924E-006	-0.0199628	7
	21	189	2390.625	67215.8	-11969.29	1	68273.18	-10.09697	5.153346E-006	-0.027281	7
	22	195	1884.191	70419.99	-13225.28	1	71651.13	-10.63658	5.190584E-006	-0.0272903	7
	23	200	1516.544	72489.75	-11907.69	1	73461.26	-9.328506	3.293484E-006	-0.0249015	7
	24	206	1193.986	76183.87	-10718.85	1	76934.23	-8.008778	3.081023E-006	0.0065174	7
	25	211	946.5144	89806.85	-30626.11	1	94885.34	-18.8305	-1.059861E-005	0.0093372	8
	26	217	751.7689	77310.05	-10590.74	1	78032.09	-7.800424	-3.540874E-006	-0.0050902	7
	27	221	597.4265	77907.45	-10401.22	1	78598.7	-7.604443	-3.520009E-006	-0.0054338	7
	28	225	477.4305	89046.38	-10441.47	1	89656.46	-6.687893	-5.512538E-008	-0.0001409	7
	29	228	376.6741	91804.26	-9437.172	1	92288.04	-5.8692	-7.751388E-009	-0.0001837	6
	30	230	298.2954	94300.06	-9840.69	1	94812.13	-5.957541	-7.859057E-009	-0.0001517	6
	31	233	237.7717	97296.1	-10198.65	1	97829.2	-5.983932	-8.917548E-009	-0.0001031	6
	32	235	189.0121	100212.7	-10560.97	1	100767.7	-6.015939	-7.654458E-009	-0.000163	6
	33	238	150.2404	103573.7	-10848.48	1	104140.3	-5.979451	-7.542821E-009	-0.0001664	6
	34	240	119.1737	106410.2	-11023.28	1	106979.7	-5.914305	-7.232101E-009	-0.0001776	6
	35	242	95.0169	110275.1	-11172.05	1	110839.6	-5.784942	-8.767447E-009	-8.485207E-005	6
	36	245	75.60484	113808.2	-11225.43	1	114360.4	-5.633129	-8.630233E-009	-0.0001414	6
	37	247	54.50582	118362.1	-11015.59	1	118873.6	-5.317024	-6.965141E-009	-0.0001818	6
	38	250	45.95588	121264	-10893.31	1	121752.3	-5.133181	-8.435801E-009	-0.0001687	6
	39	252	37.20238	124752.2	-10767.16	1	125216	-4.932879	-8.740924E-009	-0.0001624	6
	40	255	30.04808	128093.8	-10496.72	1	128523.1	-4.68467	-8.528851E-009	-0.0001799	6
	41	257	23.91582	131622.1	-10282.42	1	132023.2	-4.466916	-9.888287E-009	-0.0001572	6
	42	260	18.60119	135089.8	-9942.27	1	135455.2	-4.209238	-8.0114E-009	-0.0001443	6
	43	262	15.02404	138228.5	-9763.65	1	138572.9	-4.040327	-1.020056E-008	-0.0001151	6
	44	264	12.01923	141779.6	-9551.16	1	142101	-3.853978	-1.177842E-008	-8.287245E-005	6
	45	267	9.450605	145118.3	-9436.166	1	145424.7	-3.720362	-5.43728E-009	-0.0001913	6
	46	269	7.512019	148810.5	-9571.59	1	149118	-3.680235	-9.702427E-009	-0.0001972	6
	47	272	5.978954	152610.7	-9769.4	1	152923.1	-3.662801	-8.998859E-009	-0.0001249	6
	48	275	4.734848	156752.8	-10166.91	1	157082.2	-3.710977	-1.118212E-008	-0.0001482	6
	49	278	3.75601	161400.7	-10735.02	1	161757.3	-3.80523	-5.71639E-009	-0.0001261	6
	50	282	3.004808	166303.3	-11594.89	1	166707	-3.988285	-1.209978E-009	-0.0001745	6
	51	285	2.372217	171906.2	-12451.42	1	172356.5	-4.142782	-8.463002E-009	-0.000189	6
	52	290	1.878005	178159.9	-13861.69	1	178698.3	-4.448922	-7.10901E-009	-0.0001259	6
	53	294	1.512097	185300.3	-15528.6	1	185949.8	-4.790327	-5.446355E-009	-0.0002365	6
	54	300	1.201923	194024.6	-17780.11	1	194837.5	-5.235871	-9.325893E-009	-0.0001144	6
	55	306	0.956633	203798.5	-20551.68	1	204832.1	-5.758421	-1.206833E-008	-0.0006849	6
