EXPLAIN
TAG	EISPOT
TITLE	LABEL	Potentiostatic EIS	Test Identifier
DATE	LABEL	10/12/2021	Date
TIME	LABEL	11:22:38	Time
NOTES	NOTES	1	Notes...
	
PSTAT	PSTAT	REF3000-16137	Potentiostat
VDC	POTEN	0.00000E+000	T	DC Voltage (V)
FREQINIT	QUANT	3.00000E+005	Initial Freq. (Hz)
FREQFINAL	QUANT	1.00000E+000	Final Freq. (Hz)
PTSPERDEC	QUANT	1.00000E+001	Points/decade
VAC	QUANT	5.00000E+001	AC Voltage (mV rms)
AREA	QUANT	1.00000E+000	Sample Area (cm^2)
SPEED	SELECTOR	2	Optimize for:
ZGUESS	QUANT	1.00000E+003	Estimated Z (ohms)
EOC	QUANT	0	Open Circuit (V)
SEQUENCER	TOGGLE	TRUE	Run as Sequence
PSTATMODEL	IQUANT	5	Pstat Model
PSTATSECTION	LABEL	REF3000-16137	Pstat Section
PSTATSERIALNO	LABEL	16137	Pstat Serial Number
CTRLMODE	IQUANT	1	Control Mode
IESTAB	IQUANT	0	I/E Stability
CASPEED	IQUANT	1	Control Amp Speed
CONVENTION	IQUANT	1	Current Convention
ICHRANGE	IQUANT	2	Ich Range
ICHRANGEMODE	TOGGLE	F	Ich Auto Range
ICHOFFSETENABLE	TOGGLE	T	Ich Offset Enable
ICHOFFSET	QUANT	0	Ich Offset (V)
ICHFILTER	IQUANT	3	Ich Filter
VCHRANGE	IQUANT	2	Vch Range
VCHRANGEMODE	TOGGLE	F	Vch Auto Range
VCHOFFSETENABLE	TOGGLE	T	Vch Offset Enable
VCHOFFSET	QUANT	0	Vch Offset (V)
VCHFILTER	IQUANT	3	Vch Filter
ACHRANGE	IQUANT	2	Ach Range
ACHOFFSETENABLE	TOGGLE	F	Ach Offset Enable
ACHOFFSET	QUANT	0	Ach Offset (V)
ACHFILTER	IQUANT	3	Ach Filter
IERANGELOWERLIMIT	IQUANT	2	I/E Range Lower Limit
IERANGEMODE	TOGGLE	F	I/E AutoRange
IERANGE	IQUANT	11	I/E Range
POSFEEDENABLE	TOGGLE	F	Positive Feedback IR Comp
POSFEEDRESISTANCE	QUANT	0	Positive Feedback Resistance (ohm)
ACHSELECT	IQUANT	0	Ach Select
CABLEID	IQUANT	13	Cable ID
DCCALDATE	LABEL	9/10/2021	DC Calibration Date
ACCALDATE	LABEL	9/10/2021	AC Calibration Date
THERMOSELECT	IQUANT	1	Thermo Select
FRAMEWORKVERSION	QUANT	6.33	Framework Version
INSTRUMENTVERSION	LABEL	3.50	Instrument Version
COMPLIANCEVOLTAGE	IQUANT	0	Compliance Voltage
ZCURVE	TABLE
	Pt	Time	Freq	Zreal	Zimag	Zsig	Zmod	Zphz	Idc	Vdc	IERange
	#	s	Hz	ohm	ohm	V	ohm	°	A	V	#
	0	10	300046.9	1.246915	2.414736	1	2.717673	62.68918	-0.0001661	-0.0007713	11
	1	13	238359.4	1.35608	1.801288	1	2.254682	53.02614	-0.0002253	-0.0011685	12
	2	17	189328.1	1.174368	1.524157	1	1.924109	52.38564	-0.0001178	-0.0004246	11
	3	20	150421.9	1.15024	1.191058	1	1.655799	45.99879	-0.0001238	-0.0003112	11
	4	22	119484.4	1.139305	0.9311557	1	1.471416	39.25918	-0.0000977	-0.0001566	11
	5	25	94921.88	1.13108	0.7144376	1	1.33782	32.27824	-8.603985E-005	-6.902128E-005	11
	6	28	75421.88	1.128296	0.5352073	1	1.248799	25.37733	-2.285769E-005	9.348507E-006	11
	7	30	59859.37	1.126739	0.3854912	1	1.190859	18.88735	-3.131362E-005	7.889061E-005	11
	8	33	47578.12	1.128213	0.2584988	1	1.157448	12.90499	-3.34387E-005	0.0001575	11
	9	35	37828.12	1.130387	0.1456093	1	1.139726	7.340061	-2.142399E-005	0.000217	11
	10	38	30046.88	1.135325	0.0420855	1	1.136105	2.122932	-7.352501E-005	0.0002568	11
	11	40	23859.38	1.141093	-0.0584274	1	1.142588	-2.931156	-2.524033E-005	0.0002983	11
	12	43	18984.38	1.150293	-0.1584897	1	1.16116	-7.844932	-5.267541E-005	0.0003221	11
	13	45	15046.87	1.161166	-0.2662032	1	1.19129	-12.91222	-5.513606E-005	0.0002925	11
	14	47	11953.13	1.176024	-0.3832039	1	1.236882	-18.04804	-8.749275E-005	0.0003102	11
	15	49	9515.62	1.195747	-0.5147453	1	1.301835	-23.29091	-7.81498E-005	0.000343	11
	16	52	7546.875	1.22057	-0.6696674	1	1.392209	-28.75144	-7.508753E-005	0.0003517	11
	17	54	5928.309	1.253422	-0.8606593	1	1.520461	-34.47535	-8.385246E-005	0.0003257	11
	18	56	4733.456	1.293254	-1.073342	1	1.680646	-39.69113	-2.242778E-005	0.0003743	11
	19	59	3796.875	1.342384	-1.321727	1	1.883868	-44.55575	-3.661427E-005	0.0003426	11
	20	61	2987.132	1.41074	-1.649196	1	2.170261	-49.45597	-7.141608E-005	0.0003496	11
	21	63	2390.625	1.491708	-2.016045	1	2.507914	-53.50159	-6.262759E-005	0.0003486	11
	22	66	1884.191	1.598471	-2.490671	1	2.959485	-57.30832	-3.139632E-005	0.0003507	11
	23	68	1516.544	1.721796	-3.013577	1	3.470767	-60.25867	-9.069184E-005	0.0003229	11
	24	70	1193.986	1.89007	-3.707226	1	4.161236	-62.98597	-6.108719E-005	0.0003481	11
	25	73	946.5144	2.092081	-4.530452	1	4.99017	-65.21336	-3.367637E-005	-0.0001504	10
	26	75	751.7689	2.338905	-5.513524	1	5.989109	-67.01275	-2.285225E-005	-0.0001436	10
	27	78	597.4265	2.639341	-6.702448	1	7.203397	-68.5061	-1.187252E-005	-0.0001605	10
	28	80	477.4305	2.995089	-8.108596	1	8.644067	-69.72718	-6.611673E-006	-0.0001382	10
	29	82	376.6741	3.448862	-9.90176	1	10.48521	-70.79637	-5.709735E-006	-0.0001416	10
	30	84	298.2954	3.988648	-12.04971	1	12.69271	-71.68462	-7.278123E-006	-0.000129	10
	31	87	237.7717	4.615607	-14.58056	1	15.29367	-72.43435	-5.773724E-006	-0.0001412	10
	32	89	189.0121	5.367489	-17.68322	1	18.47989	-73.11508	-6.595785E-006	-0.0001452	10
	33	92	150.2404	6.258001	-21.45354	1	22.34764	-73.73802	-6.355884E-006	-0.0001454	10
	34	94	119.1737	7.31602	-26.09454	1	27.10072	-74.33831	-6.397567E-006	-0.0001395	10
	35	96	95.0169	8.534571	-31.63879	1	32.76968	-74.90376	-6.960202E-006	-0.0001405	10
	36	99	75.60484	9.98713	-38.47955	1	39.75447	-75.45027	-7.275976E-006	-0.00014	10
	37	101	54.50582	12.55802	-50.98204	1	52.50593	-76.16225	-5.275305E-006	-0.0001593	9
	38	104	45.95588	14.22811	-59.17776	1	60.86416	-76.48097	-4.734945E-006	-0.0001545	9
	39	106	37.20238	16.69167	-71.19644	1	73.12691	-76.80557	-5.083627E-006	-0.0001502	9
	40	109	30.04808	19.7351	-85.86356	1	88.10236	-77.0558	-5.208037E-006	-0.0001589	9
	41	111	23.91582	23.86009	-104.9656	1	107.6433	-77.19351	-5.360383E-006	-0.0001591	9
	42	114	18.60119	29.77362	-131.0551	1	134.3946	-77.20057	-4.797149E-006	-0.0001539	9
	43	116	15.02404	36.213	-158.272	1	162.3619	-77.11243	-4.790769E-006	-0.0001574	9
	44	118	12.01923	45.01731	-192.4813	1	197.6756	-76.83634	-5.263907E-006	-0.0001571	9
	45	121	9.450605	57.23009	-237.2894	1	244.0934	-76.44022	-5.079646E-006	-0.0001412	9
	46	123	7.512019	72.46059	-289.3014	1	298.2379	-75.93855	-4.979155E-006	-0.0001358	9
	47	126	5.978954	92.16525	-351.3784	1	363.2647	-75.30262	-4.968185E-006	-0.000155	9
	48	129	4.734848	118.1795	-425.9945	1	442.0834	-74.49491	-4.504791E-006	-7.628041E-005	8
	49	132	3.75601	152.8914	-516.739	1	538.8831	-73.51771	-4.665882E-006	-0.0001409	8
	50	136	3.004808	196.264	-620.4207	1	650.7237	-72.44575	-4.670444E-006	-0.000106	8
	51	139	2.372217	256.7214	-751.3782	1	794.0246	-71.13638	-4.638897E-006	-6.181491E-005	8
	52	143	1.878005	337.2514	-901.6545	1	962.663	-69.49239	-4.64259E-006	-0.0001541	8
	53	148	1.512097	434.3393	-1061.654	1	1147.066	-67.74976	-4.543483E-006	-6.624871E-005	8
	54	154	1.201923	567.5671	-1259.569	1	1381.537	-65.74347	-4.544358E-006	-0.0001705	8
	55	166	0.956633	741.1288	-1476.488	1	1652.056	-63.34547	-4.620581E-006	-0.0006826	8
