EXPLAIN
TAG	EISPOT
TITLE	LABEL	Potentiostatic EIS	Test Identifier
DATE	LABEL	8/4/2020	Date
TIME	LABEL	9:32:54	Time
NOTES	NOTES	1	Notes...
	
PSTAT	PSTAT	REF3000-16137	Potentiostat
VDC	POTEN	0.00000E+000	T	DC Voltage (V)
FREQINIT	QUANT	3.00000E+005	Initial Freq. (Hz)
FREQFINAL	QUANT	1.00000E+000	Final Freq. (Hz)
PTSPERDEC	QUANT	1.00000E+001	Points/decade
VAC	QUANT	5.00000E+001	AC Voltage (mV rms)
AREA	QUANT	1.00000E+000	Sample Area (cm^2)
SPEED	SELECTOR	2	Optimize for:
ZGUESS	QUANT	1.00000E+003	Estimated Z (ohms)
EOC	QUANT	0	Open Circuit (V)
SEQUENCER	TOGGLE	TRUE	Run as Sequence
PSTATMODEL	IQUANT	5	Pstat Model
PSTATSECTION	LABEL	REF3000-16137	Pstat Section
PSTATSERIALNO	LABEL	16137	Pstat Serial Number
CTRLMODE	IQUANT	1	Control Mode
IESTAB	IQUANT	0	I/E Stability
CASPEED	IQUANT	1	Control Amp Speed
CONVENTION	IQUANT	1	Current Convention
ICHRANGE	IQUANT	2	Ich Range
ICHRANGEMODE	TOGGLE	F	Ich Auto Range
ICHOFFSETENABLE	TOGGLE	T	Ich Offset Enable
ICHOFFSET	QUANT	0	Ich Offset (V)
ICHFILTER	IQUANT	3	Ich Filter
VCHRANGE	IQUANT	2	Vch Range
VCHRANGEMODE	TOGGLE	F	Vch Auto Range
VCHOFFSETENABLE	TOGGLE	T	Vch Offset Enable
VCHOFFSET	QUANT	0	Vch Offset (V)
VCHFILTER	IQUANT	3	Vch Filter
ACHRANGE	IQUANT	2	Ach Range
ACHOFFSETENABLE	TOGGLE	F	Ach Offset Enable
ACHOFFSET	QUANT	0	Ach Offset (V)
ACHFILTER	IQUANT	3	Ach Filter
IERANGELOWERLIMIT	IQUANT	2	I/E Range Lower Limit
IERANGEMODE	TOGGLE	F	I/E AutoRange
IERANGE	IQUANT	11	I/E Range
POSFEEDENABLE	TOGGLE	F	Positive Feedback IR Comp
POSFEEDRESISTANCE	QUANT	0	Positive Feedback Resistance (ohm)
ACHSELECT	IQUANT	0	Ach Select
CABLEID	IQUANT	13	Cable ID
DCCALDATE	LABEL	7/31/2020	DC Calibration Date
ACCALDATE	LABEL	7/31/2020	AC Calibration Date
THERMOSELECT	IQUANT	1	Thermo Select
FRAMEWORKVERSION	QUANT	6.33	Framework Version
INSTRUMENTVERSION	LABEL	3.50	Instrument Version
COMPLIANCEVOLTAGE	IQUANT	0	Compliance Voltage
ZCURVE	TABLE
	Pt	Time	Freq	Zreal	Zimag	Zsig	Zmod	Zphz	Idc	Vdc	IERange
	#	s	Hz	ohm	ohm	V	ohm	°	A	V	#
	0	10	300046.9	5.709687	1.246933	1	5.844259	12.31935	-0.0001125	9.370574E-005	10
	1	13	238359.4	5.734301	0.970731	1	5.815886	9.60822	-2.022883E-005	-0.0000963	10
	2	17	189328.1	5.75618	0.7577459	1	5.805841	7.499319	-8.349902E-005	0.0001377	10
	3	19	150421.9	5.772054	0.575276	1	5.800651	5.691629	-2.551858E-005	0.0003357	10
	4	22	119484.4	5.803222	0.434624	1	5.819474	4.283089	-1.313297E-005	0.0005285	10
	5	24	94921.88	5.835101	0.3334256	1	5.84462	3.270403	-1.375287E-005	0.0005305	10
	6	27	75421.88	5.860882	0.2201628	1	5.865016	2.151292	-2.23444E-005	0.0005982	10
	7	29	59859.37	5.888824	0.1173618	1	5.889993	1.14173	-1.817829E-005	0.0005871	10
	8	32	47578.12	5.921699	0.0240991	1	5.921748	0.233171	-2.56148E-005	0.0006587	10
	9	34	37828.12	5.956578	-0.0656052	1	5.95694	-0.6310253	-2.245413E-005	0.000673	10
	10	37	30046.88	5.993218	-0.1556861	1	5.99524	-1.48804	-2.10378E-005	0.0006856	10
	11	39	23859.38	6.030085	-0.2512049	1	6.035315	-2.385483	2.257067E-005	0.0006578	10
	12	42	18984.38	6.067683	-0.3555097	1	6.078089	-3.353166	-3.13819E-005	0.0006587	10
	13	44	15046.87	6.109015	-0.4763637	1	6.12756	-4.45874	-1.978601E-005	0.0007326	10
	14	46	11953.13	6.153184	-0.6183857	1	6.184179	-5.738871	1.18747E-005	0.000659	10
	15	49	9515.62	6.201705	-0.785304	1	6.251228	-7.21679	-1.014537E-005	0.0006591	10
	16	51	7546.875	6.257082	-0.990147	1	6.33494	-8.992159	-2.061875E-005	0.0007026	10
	17	53	5928.309	6.319897	-1.251857	1	6.442689	-11.20422	1.983971E-005	0.0006813	10
	18	56	4733.456	6.389699	-1.550353	1	6.575092	-13.6383	-1.047973E-005	0.0006732	10
	19	58	3796.875	6.468471	-1.90763	1	6.743899	-16.43143	-1.631754E-005	0.0007206	10
	20	60	2987.132	6.565474	-2.385686	1	6.985481	-19.96955	-1.479425E-005	0.000689	10
	21	62	2390.625	6.676317	-2.929419	1	7.290728	-23.6908	-1.562777E-005	0.0006931	10
	22	65	1884.191	6.81526	-3.649411	1	7.730845	-28.168	-2.599148E-006	0.0006703	10
	23	67	1516.544	6.970266	-4.455773	1	8.272758	-32.58892	1.41393E-005	0.000682	10
	24	69	1193.986	7.181307	-5.544646	1	9.072721	-37.67152	1.990958E-005	0.0006869	10
	25	72	946.5144	7.441002	-6.846237	1	10.11135	-42.6162	-2.204534E-005	0.0007065	10
	26	74	751.7689	7.756003	-8.441552	1	11.46365	-47.42355	-2.4189E-005	0.0006875	10
	27	77	597.4265	8.156049	-10.3892	1	13.2082	-51.86629	-2.59443E-005	0.0006919	10
	28	79	477.4305	8.642233	-12.70315	1	15.36418	-55.77167	-1.512227E-006	0.0006835	10
	29	81	376.6741	9.291015	-15.69981	1	18.243	-59.38331	-1.752675E-006	0.0006852	10
	30	83	298.2954	10.10165	-19.31925	1	21.80085	-62.39584	-2.307381E-006	0.0006948	10
	31	86	237.7717	11.1048	-23.61583	1	26.09643	-64.81582	-2.14712E-006	0.0006829	10
	32	88	189.0121	12.39437	-28.9133	1	31.4579	-66.79647	-1.79479E-006	0.0006916	10
	33	91	150.2404	14.04088	-35.3504	1	38.03679	-68.33745	-1.764732E-006	0.0006913	10
	34	93	119.1737	16.15852	-43.19032	1	46.114	-69.48799	1.12399E-006	8.736878E-005	9
	35	95	95.0169	18.83832	-52.49146	1	55.76948	-70.25777	1.081929E-006	8.544348E-005	9
	36	98	75.60484	22.29991	-63.76637	1	67.55321	-70.72462	1.016794E-006	8.865706E-005	9
	37	100	54.50582	28.93245	-83.79823	1	88.6523	-70.95209	1.019217E-006	8.685093E-005	9
	38	103	45.95588	33.39173	-96.4406	1	102.0578	-70.90202	7.289268E-007	0.0001319	9
	39	105	37.20238	39.98922	-114.4162	1	121.2031	-70.73514	1.118912E-006	9.050316E-005	9
	40	108	30.04808	48.06976	-135.6261	1	143.8928	-70.48421	1.071098E-006	8.60598E-005	9
	41	110	23.91582	58.43375	-162.0962	1	172.307	-70.17638	1.154593E-006	9.152466E-005	9
	42	113	18.60119	71.92964	-196.5266	1	209.2764	-69.89715	1.209043E-006	8.924339E-005	9
	43	115	15.02404	85.259	-231.2019	1	246.4212	-69.75783	1.049942E-006	9.36311E-005	9
	44	117	12.01923	101.0771	-273.9203	1	291.9742	-69.74584	1.218206E-006	9.160027E-005	9
	45	120	9.450605	119.9931	-329.1896	1	350.3771	-69.97266	1.065449E-006	8.946807E-005	9
	46	122	7.512019	139.4869	-391.7671	1	415.8582	-70.40195	4.958475E-007	0.0006612	8
	47	125	5.978954	161.7344	-469.81	1	496.8696	-71.00372	5.284235E-007	0.000676	8
	48	128	4.734848	188.1416	-568.8586	1	599.1639	-71.69913	6.497264E-007	0.0006824	8
	49	131	3.75601	219.3	-690.3033	1	724.3004	-72.37565	5.176227E-007	0.0006622	8
	50	135	3.004808	256.5812	-835.0436	1	873.5741	-72.91955	6.071925E-007	0.0006356	8
	51	138	2.372217	306.8683	-1024.14	1	1069.126	-73.31994	5.687618E-007	0.0006336	8
	52	142	1.878005	376.016	-1257.732	1	1312.737	-73.35526	5.229537E-007	0.0006724	8
	53	147	1.512097	460.7773	-1521.729	1	1589.96	-73.15376	5.286846E-007	0.0005595	8
	54	153	1.201923	581.5416	-1862.209	1	1950.901	-72.65716	5.311435E-007	0.0006894	8
	55	159	0.956633	747.1608	-2270.282	1	2390.069	-71.78337	4.833163E-007	2.789196E-005	8
