EXPLAIN
TAG	EISPOT
TITLE	LABEL	Potentiostatic EIS	Test Identifier
DATE	LABEL	8/4/2020	Date
TIME	LABEL	9:30:06	Time
NOTES	NOTES	1	Notes...
	
PSTAT	PSTAT	REF3000-16137	Potentiostat
VDC	POTEN	0.00000E+000	T	DC Voltage (V)
FREQINIT	QUANT	3.00000E+005	Initial Freq. (Hz)
FREQFINAL	QUANT	1.00000E+000	Final Freq. (Hz)
PTSPERDEC	QUANT	1.00000E+001	Points/decade
VAC	QUANT	5.00000E+001	AC Voltage (mV rms)
AREA	QUANT	1.00000E+000	Sample Area (cm^2)
SPEED	SELECTOR	2	Optimize for:
ZGUESS	QUANT	1.00000E+003	Estimated Z (ohms)
EOC	QUANT	0	Open Circuit (V)
SEQUENCER	TOGGLE	TRUE	Run as Sequence
PSTATMODEL	IQUANT	5	Pstat Model
PSTATSECTION	LABEL	REF3000-16137	Pstat Section
PSTATSERIALNO	LABEL	16137	Pstat Serial Number
CTRLMODE	IQUANT	1	Control Mode
IESTAB	IQUANT	0	I/E Stability
CASPEED	IQUANT	1	Control Amp Speed
CONVENTION	IQUANT	1	Current Convention
ICHRANGE	IQUANT	2	Ich Range
ICHRANGEMODE	TOGGLE	F	Ich Auto Range
ICHOFFSETENABLE	TOGGLE	T	Ich Offset Enable
ICHOFFSET	QUANT	0	Ich Offset (V)
ICHFILTER	IQUANT	3	Ich Filter
VCHRANGE	IQUANT	2	Vch Range
VCHRANGEMODE	TOGGLE	F	Vch Auto Range
VCHOFFSETENABLE	TOGGLE	T	Vch Offset Enable
VCHOFFSET	QUANT	0	Vch Offset (V)
VCHFILTER	IQUANT	3	Vch Filter
ACHRANGE	IQUANT	2	Ach Range
ACHOFFSETENABLE	TOGGLE	F	Ach Offset Enable
ACHOFFSET	QUANT	0	Ach Offset (V)
ACHFILTER	IQUANT	3	Ach Filter
IERANGELOWERLIMIT	IQUANT	2	I/E Range Lower Limit
IERANGEMODE	TOGGLE	F	I/E AutoRange
IERANGE	IQUANT	11	I/E Range
POSFEEDENABLE	TOGGLE	F	Positive Feedback IR Comp
POSFEEDRESISTANCE	QUANT	0	Positive Feedback Resistance (ohm)
ACHSELECT	IQUANT	0	Ach Select
CABLEID	IQUANT	13	Cable ID
DCCALDATE	LABEL	7/31/2020	DC Calibration Date
ACCALDATE	LABEL	7/31/2020	AC Calibration Date
THERMOSELECT	IQUANT	1	Thermo Select
FRAMEWORKVERSION	QUANT	6.33	Framework Version
INSTRUMENTVERSION	LABEL	3.50	Instrument Version
COMPLIANCEVOLTAGE	IQUANT	0	Compliance Voltage
ZCURVE	TABLE
	Pt	Time	Freq	Zreal	Zimag	Zsig	Zmod	Zphz	Idc	Vdc	IERange
	#	s	Hz	ohm	ohm	V	ohm	°	A	V	#
	0	10	300046.9	4.373858	1.246557	1	4.548026	15.90764	-8.370985E-006	0.0000995	10
	1	13	238359.4	4.391834	0.986965	1	4.501368	12.66551	-4.963003E-005	-0.0002353	10
	2	16	189328.1	4.398534	0.7685322	1	4.46517	9.91093	-7.670491E-005	0.0001032	10
	3	19	150421.9	4.403859	0.597431	1	4.444198	7.725628	7.051192E-005	0.0001799	10
	4	21	119484.4	4.418642	0.4439014	1	4.440883	5.736747	-2.680109E-005	0.0003817	10
	5	24	94921.88	4.436599	0.3359501	1	4.4493	4.330313	3.038928E-005	0.0005039	10
	6	26	75421.88	4.450895	0.2244742	1	4.456552	2.88718	2.267075E-005	0.0005206	10
	7	29	59859.37	4.467232	0.1256803	1	4.468999	1.611524	2.694624E-005	0.0005756	10
	8	31	47578.12	4.486147	0.035506	1	4.486288	0.4534624	1.241727E-005	0.0005944	10
	9	34	37828.12	4.506664	-0.0522574	1	4.506967	-0.6643485	-2.416261E-005	0.000619	10
	10	37	30046.88	4.529997	-0.1407643	1	4.532183	-1.779826	-3.141161E-005	0.0006332	10
	11	39	23859.38	4.554239	-0.2339204	1	4.560243	-2.940312	8.690646E-006	0.000644	10
	12	41	18984.38	4.580015	-0.3350418	1	4.592254	-4.183905	9.547568E-006	0.0006783	10
	13	44	15046.87	4.608054	-0.4526886	1	4.630236	-5.610652	1.031548E-005	0.0006565	10
	14	46	11953.13	4.63941	-0.588286	1	4.676559	-7.226645	2.153882E-005	0.0006646	10
	15	48	9515.62	4.674858	-0.7492393	1	4.734518	-9.105357	-2.058358E-005	0.0006671	10
	16	51	7546.875	4.716066	-0.9452998	1	4.809873	-11.3343	2.011704E-005	0.0006766	10
	17	53	5928.309	4.765318	-1.196712	1	4.913286	-14.09714	-2.439421E-005	0.000687	10
	18	55	4733.456	4.820682	-1.482946	1	5.04362	-17.09903	5.72678E-006	0.0006761	10
	19	58	3796.875	4.885652	-1.825157	1	5.215438	-20.48443	-1.07836E-005	0.0007044	10
	20	60	2987.132	4.969505	-2.281366	1	5.468145	-24.65858	-1.047739E-005	0.0006742	10
	21	62	2390.625	5.066462	-2.80308	1	5.790189	-28.95408	-2.059766E-005	0.0006968	10
	22	65	1884.191	5.191891	-3.490997	1	6.256421	-33.91666	-2.749556E-005	0.0006847	10
	23	67	1516.544	5.336303	-4.256965	1	6.826263	-38.58065	2.112784E-005	0.0006779	10
	24	69	1193.986	5.535868	-5.292099	1	7.658469	-43.71032	-3.144107E-006	0.0006725	10
	25	72	946.5144	5.781723	-6.531669	1	8.723017	-48.48529	1.223474E-005	0.0006676	10
	26	74	751.7689	6.089229	-8.039571	1	10.08531	-52.85945	-2.430173E-005	0.0006898	10
	27	76	597.4265	6.475513	-9.87688	1	11.81038	-56.75022	2.14167E-005	0.0006825	10
	28	79	477.4305	6.951853	-12.05883	1	13.91918	-60.03677	-2.066849E-006	0.0006924	10
	29	81	376.6741	7.59024	-14.87942	1	16.70356	-62.97311	-1.161551E-006	0.0006841	10
	30	83	298.2954	8.393246	-18.27991	1	20.11471	-65.33772	-1.962728E-006	0.000694	10
	31	86	237.7717	9.389793	-22.30641	1	24.20215	-67.17154	-2.09968E-006	0.0006917	10
	32	88	189.0121	10.68251	-27.25347	1	29.2723	-68.59637	-1.561513E-006	0.0006882	10
	33	90	150.2404	12.3411	-33.23831	1	35.45544	-69.63046	-1.75959E-006	0.0006901	10
	34	93	119.1737	14.47481	-40.48438	1	42.99425	-70.32597	1.279064E-006	9.094269E-005	9
	35	95	95.0169	17.16245	-49.02489	1	51.94218	-70.70606	1.176345E-006	8.994065E-005	9
	36	98	75.60484	20.6039	-59.30489	1	62.78209	-70.84158	8.297799E-007	0.0001132	9
	37	100	54.50582	27.08928	-77.41953	1	82.02202	-70.71494	1.0363E-006	8.611831E-005	9
	38	103	45.95588	31.35263	-88.7592	1	94.13386	-70.54513	1.16014E-006	9.326683E-005	9
	39	105	37.20238	37.56094	-104.8235	1	111.3498	-70.28609	1.17428E-006	9.471211E-005	9
	40	107	30.04808	45.00804	-123.7026	1	131.6361	-70.00655	1.114713E-006	8.768761E-005	9
	41	110	23.91582	54.26112	-147.2549	1	156.934	-69.77195	1.188965E-006	8.882159E-005	9
	42	112	18.60119	66.1162	-178.1919	1	190.0624	-69.64317	1.112175E-006	9.342297E-005	9
	43	115	15.02404	77.53394	-209.6052	1	223.4857	-69.70033	1.037963E-006	9.324091E-005	9
	44	117	12.01923	90.79485	-248.7251	1	264.779	-69.94585	1.352912E-006	8.847547E-005	9
	45	119	9.450605	106.8295	-300.1181	1	318.5647	-70.40639	1.229996E-006	8.722208E-005	9
	46	122	7.512019	124.5645	-360.9381	1	381.828	-70.95977	1.400496E-006	9.151537E-005	9
	47	125	5.978954	144.6123	-433.2708	1	456.7672	-71.54259	7.801946E-007	0.0006686	8
	48	128	4.734848	170.5319	-527.1227	1	554.0212	-72.07285	6.410093E-007	0.0006459	8
	49	131	3.75601	203.9711	-642.4026	1	674.007	-72.38468	7.987425E-007	0.0006817	8
	50	134	3.004808	246.062	-778.1094	1	816.0887	-72.45145	6.920715E-007	0.0006749	8
	51	138	2.372217	308.0865	-953.23	1	1001.781	-72.08903	6.384798E-007	0.0006264	8
	52	142	1.878005	391.3349	-1167.534	1	1231.373	-71.46984	6.9065E-007	0.0007195	8
	53	147	1.512097	494.7903	-1399.857	1	1484.728	-70.53365	6.556186E-007	0.0006773	8
	54	152	1.201923	651.384	-1696.304	1	1817.071	-68.99312	7.191455E-007	0.0006863	8
	55	159	0.956633	860.4121	-2032.395	1	2207.021	-67.05469	5.413708E-007	2.652033E-005	8
