EXPLAIN
TAG	EISPOT
TITLE	LABEL	Potentiostatic EIS	Test Identifier
DATE	LABEL	8/4/2020	Date
TIME	LABEL	9:52:30	Time
NOTES	NOTES	1	Notes...
	
PSTAT	PSTAT	REF3000-16137	Potentiostat
VDC	POTEN	0.00000E+000	T	DC Voltage (V)
FREQINIT	QUANT	3.00000E+005	Initial Freq. (Hz)
FREQFINAL	QUANT	1.00000E+000	Final Freq. (Hz)
PTSPERDEC	QUANT	1.00000E+001	Points/decade
VAC	QUANT	5.00000E+001	AC Voltage (mV rms)
AREA	QUANT	1.00000E+000	Sample Area (cm^2)
SPEED	SELECTOR	2	Optimize for:
ZGUESS	QUANT	1.00000E+003	Estimated Z (ohms)
EOC	QUANT	0	Open Circuit (V)
SEQUENCER	TOGGLE	TRUE	Run as Sequence
PSTATMODEL	IQUANT	5	Pstat Model
PSTATSECTION	LABEL	REF3000-16137	Pstat Section
PSTATSERIALNO	LABEL	16137	Pstat Serial Number
CTRLMODE	IQUANT	1	Control Mode
IESTAB	IQUANT	0	I/E Stability
CASPEED	IQUANT	1	Control Amp Speed
CONVENTION	IQUANT	1	Current Convention
ICHRANGE	IQUANT	2	Ich Range
ICHRANGEMODE	TOGGLE	F	Ich Auto Range
ICHOFFSETENABLE	TOGGLE	T	Ich Offset Enable
ICHOFFSET	QUANT	0	Ich Offset (V)
ICHFILTER	IQUANT	3	Ich Filter
VCHRANGE	IQUANT	2	Vch Range
VCHRANGEMODE	TOGGLE	F	Vch Auto Range
VCHOFFSETENABLE	TOGGLE	T	Vch Offset Enable
VCHOFFSET	QUANT	0	Vch Offset (V)
VCHFILTER	IQUANT	3	Vch Filter
ACHRANGE	IQUANT	2	Ach Range
ACHOFFSETENABLE	TOGGLE	F	Ach Offset Enable
ACHOFFSET	QUANT	0	Ach Offset (V)
ACHFILTER	IQUANT	3	Ach Filter
IERANGELOWERLIMIT	IQUANT	2	I/E Range Lower Limit
IERANGEMODE	TOGGLE	F	I/E AutoRange
IERANGE	IQUANT	11	I/E Range
POSFEEDENABLE	TOGGLE	F	Positive Feedback IR Comp
POSFEEDRESISTANCE	QUANT	0	Positive Feedback Resistance (ohm)
ACHSELECT	IQUANT	0	Ach Select
CABLEID	IQUANT	13	Cable ID
DCCALDATE	LABEL	7/31/2020	DC Calibration Date
ACCALDATE	LABEL	7/31/2020	AC Calibration Date
THERMOSELECT	IQUANT	1	Thermo Select
FRAMEWORKVERSION	QUANT	6.33	Framework Version
INSTRUMENTVERSION	LABEL	3.50	Instrument Version
COMPLIANCEVOLTAGE	IQUANT	0	Compliance Voltage
ZCURVE	TABLE
	Pt	Time	Freq	Zreal	Zimag	Zsig	Zmod	Zphz	Idc	Vdc	IERange
	#	s	Hz	ohm	ohm	V	ohm	°	A	V	#
	0	14	300046.9	905.4303	-248.4021	1	938.8864	-15.34146	4.956774E-005	-0.0001774	9
	1	25	238359.4	1021.871	-249.8347	1	1051.969	-13.73859	-1.405562E-006	-0.0018061	9
	2	41	189328.1	1118.123	-249.3379	1	1145.587	-12.5711	-1.342531E-005	0.0016365	9
	3	47	150421.9	1202.324	-230.2515	1	1224.173	-10.84119	-3.058991E-005	-0.0008345	9
	4	54	119484.4	1299.816	-170.5006	1	1310.951	-7.472986	-2.803221E-005	-0.0027002	8
	5	60	94921.88	1360.256	-151.5837	1	1368.676	-6.358673	1.1382E-005	-0.0069683	8
	6	63	75421.88	1403.946	-133.5498	1	1410.283	-5.433888	1.747145E-005	-0.0078468	8
	7	66	59859.37	1453.192	-112.121	1	1457.511	-4.411914	-2.082653E-005	0.0065113	8
	8	70	47578.12	1510.247	-100.1594	1	1513.564	-3.794293	-2.146834E-005	0.0082839	8
	9	74	37828.12	1565.611	-89.45442	1	1568.165	-3.270157	1.179393E-005	-0.0071585	8
	10	77	30046.88	1610.273	-77.71394	1	1612.147	-2.763028	-9.644258E-006	-0.0009599	8
	11	80	23859.38	1657.376	-66.4245	1	1658.706	-2.295079	1.186179E-005	-0.0072725	8
	12	83	18984.38	1716.212	-58.05395	1	1717.193	-1.937394	1.202739E-005	-0.0072968	8
	13	87	15046.87	1775.169	-47.12087	1	1775.794	-1.520528	8.396439E-006	0.0029928	8
	14	91	11953.13	1834.229	-41.82432	1	1834.706	-1.306239	-8.447592E-006	0.0082409	8
	15	94	9515.62	1891.352	-36.90894	1	1891.712	-1.117961	-9.41187E-006	-0.0011323	8
	16	98	7546.875	1962.893	-35.57033	1	1963.215	-1.038165	2.135491E-005	-0.0076568	8
	17	102	5928.309	2031.182	-34.05223	1	2031.467	-0.960459	-9.574655E-006	-0.0011418	8
	18	106	4733.456	2115.854	-30.6311	1	2116.075	-0.82941	2.265939E-005	-0.0047451	8
	19	110	3796.875	2184.307	-27.88138	1	2184.485	-0.7313066	-1.570784E-005	0.009609	8
	20	113	2987.132	2262.473	-28.58312	1	2262.654	-0.723812	-2.445127E-006	-0.0038623	8
	21	117	2390.625	2346.989	-22.20761	1	2347.094	-0.5421264	1.274385E-005	-0.0077505	8
	22	121	1884.191	2431.062	-17.57467	1	2431.126	-0.4141962	-2.296116E-005	0.0087392	8
	23	125	1516.544	2567.545	-27.00696	1	2567.687	-0.6026487	-1.541928E-005	8.60159E-005	9
	24	130	1193.986	2703.338	-31.66981	1	2703.524	-0.6711937	5.732004E-006	-0.0063725	8
	25	136	946.5144	2797.864	-22.39819	1	2797.953	-0.4586694	1.586612E-005	6.729151E-005	8
	26	140	751.7689	2960.253	8.444059	1	2960.265	0.1634346	1.000029E-005	-0.0007321	9
	27	144	597.4265	3029.51	-21.9801	1	3029.59	-0.4156926	-2.384277E-005	0.0088798	8
	28	147	477.4305	3139.833	-34.51065	1	3140.023	-0.6297262	-4.911255E-007	0.0006988	8
	29	151	376.6741	3213.877	-39.90469	1	3214.125	-0.7113691	-4.338499E-007	0.0006702	8
	30	153	298.2954	3289.131	-47.11841	1	3289.468	-0.820734	-4.452335E-007	0.0006708	8
	31	155	237.7717	3370.383	-56.26044	1	3370.852	-0.956327	-4.465587E-007	0.0006573	8
	32	158	189.0121	3453.133	-67.97416	1	3453.802	-1.127709	-4.475715E-007	0.0006515	8
	33	160	150.2404	3538.431	-83.29423	1	3539.411	-1.348487	-4.337113E-007	0.0006579	8
	34	163	119.1737	3627.395	-100.449	1	3628.786	-1.586216	-5.015906E-007	0.0007147	8
	35	165	95.0169	3730.032	-121.9626	1	3732.025	-1.87276	-8.940023E-008	0.0006834	7
	36	167	75.60484	3828.858	-149.612	1	3831.78	-2.237685	-8.152218E-008	0.0006416	7
	37	170	54.50582	3935.835	-200.6323	1	3940.946	-2.918172	-9.073864E-008	0.0005983	7
	38	172	45.95588	4039.923	-234.3402	1	4046.713	-3.319785	-7.698601E-008	0.0006498	7
	39	175	37.20238	4141.534	-285.4059	1	4151.356	-3.942196	-1.437935E-008	0.0006375	7
	40	177	30.04808	4253.672	-344.5218	1	4267.601	-4.630505	-7.197139E-008	0.0006785	7
	41	180	23.91582	4372.938	-421.8548	1	4393.238	-5.510241	-6.735603E-008	0.0005983	7
	42	182	18.60119	4501.621	-531.187	1	4532.852	-6.729728	8.504809E-008	0.0006139	7
	43	184	15.02404	4619.82	-645.9785	1	4664.764	-7.959924	-8.633807E-009	0.000682	7
	44	186	12.01923	4742.613	-778.3106	1	4806.053	-9.319741	-2.433366E-007	0.000606	7
	45	189	9.450605	4895.983	-964.048	1	4989.994	-11.13937	-2.69809E-007	0.0006766	7
	46	191	7.512019	5059.269	-1214.014	1	5202.887	-13.49348	-2.43726E-007	0.0006722	7
	47	194	5.978954	5269.561	-1480.028	1	5473.459	-15.68812	-9.375205E-008	0.0006059	7
	48	197	4.734848	5504.303	-1837.312	1	5802.85	-18.45878	-1.420689E-007	0.0005872	7
	49	200	3.75601	5774.858	-2265.832	1	6203.466	-21.42313	-5.315185E-008	0.0006288	7
	50	204	3.004808	6071.65	-2769.218	1	6673.343	-24.51725	-1.150804E-007	0.0006351	7
	51	207	2.372217	6449.101	-3427.408	1	7303.289	-27.98865	-8.190523E-008	0.0006949	7
	52	212	1.878005	6887.651	-4242.876	1	8089.606	-31.63357	-1.052562E-007	0.00062	7
	53	216	1.512097	7416.72	-5162.677	1	9036.646	-34.84124	-1.035395E-007	0.0007242	7
	54	222	1.201923	8084.96	-6397.374	1	10309.85	-38.35346	-1.062145E-007	0.0006131	7
	55	228	0.956633	8887.675	-7891.305	1	11885.43	-41.60165	-1.182976E-007	9.716708E-006	7
