EXPLAIN
TAG	EISPOT
TITLE	LABEL	Potentiostatic EIS	Test Identifier
DATE	LABEL	8/4/2020	Date
TIME	LABEL	9:27:18	Time
NOTES	NOTES	1	Notes...
	
PSTAT	PSTAT	REF3000-16137	Potentiostat
VDC	POTEN	0.00000E+000	T	DC Voltage (V)
FREQINIT	QUANT	3.00000E+005	Initial Freq. (Hz)
FREQFINAL	QUANT	1.00000E+000	Final Freq. (Hz)
PTSPERDEC	QUANT	1.00000E+001	Points/decade
VAC	QUANT	5.00000E+001	AC Voltage (mV rms)
AREA	QUANT	1.00000E+000	Sample Area (cm^2)
SPEED	SELECTOR	2	Optimize for:
ZGUESS	QUANT	1.00000E+003	Estimated Z (ohms)
EOC	QUANT	0	Open Circuit (V)
SEQUENCER	TOGGLE	TRUE	Run as Sequence
PSTATMODEL	IQUANT	5	Pstat Model
PSTATSECTION	LABEL	REF3000-16137	Pstat Section
PSTATSERIALNO	LABEL	16137	Pstat Serial Number
CTRLMODE	IQUANT	1	Control Mode
IESTAB	IQUANT	0	I/E Stability
CASPEED	IQUANT	1	Control Amp Speed
CONVENTION	IQUANT	1	Current Convention
ICHRANGE	IQUANT	2	Ich Range
ICHRANGEMODE	TOGGLE	F	Ich Auto Range
ICHOFFSETENABLE	TOGGLE	T	Ich Offset Enable
ICHOFFSET	QUANT	0	Ich Offset (V)
ICHFILTER	IQUANT	3	Ich Filter
VCHRANGE	IQUANT	2	Vch Range
VCHRANGEMODE	TOGGLE	F	Vch Auto Range
VCHOFFSETENABLE	TOGGLE	T	Vch Offset Enable
VCHOFFSET	QUANT	0	Vch Offset (V)
VCHFILTER	IQUANT	3	Vch Filter
ACHRANGE	IQUANT	2	Ach Range
ACHOFFSETENABLE	TOGGLE	F	Ach Offset Enable
ACHOFFSET	QUANT	0	Ach Offset (V)
ACHFILTER	IQUANT	3	Ach Filter
IERANGELOWERLIMIT	IQUANT	2	I/E Range Lower Limit
IERANGEMODE	TOGGLE	F	I/E AutoRange
IERANGE	IQUANT	11	I/E Range
POSFEEDENABLE	TOGGLE	F	Positive Feedback IR Comp
POSFEEDRESISTANCE	QUANT	0	Positive Feedback Resistance (ohm)
ACHSELECT	IQUANT	0	Ach Select
CABLEID	IQUANT	13	Cable ID
DCCALDATE	LABEL	7/31/2020	DC Calibration Date
ACCALDATE	LABEL	7/31/2020	AC Calibration Date
THERMOSELECT	IQUANT	1	Thermo Select
FRAMEWORKVERSION	QUANT	6.33	Framework Version
INSTRUMENTVERSION	LABEL	3.50	Instrument Version
COMPLIANCEVOLTAGE	IQUANT	0	Compliance Voltage
ZCURVE	TABLE
	Pt	Time	Freq	Zreal	Zimag	Zsig	Zmod	Zphz	Idc	Vdc	IERange
	#	s	Hz	ohm	ohm	V	ohm	°	A	V	#
	0	10	300046.9	3.703947	1.251581	1	3.90969	18.67035	1.336785E-005	-1.293446E-005	10
	1	13	238359.4	3.684909	0.989681	1	3.815497	15.03355	6.510161E-005	-0.0004879	10
	2	16	189328.1	3.684236	0.7732186	1	3.7645	11.85276	2.310559E-005	-2.680446E-005	10
	3	19	150421.9	3.692955	0.5985551	1	3.741147	9.206454	-1.74859E-005	0.0001788	10
	4	21	119484.4	3.688986	0.4485687	1	3.716158	6.932946	5.866875E-005	0.0002504	10
	5	24	94921.88	3.698519	0.3386415	1	3.71399	5.231493	2.096309E-005	0.0004562	10
	6	26	75421.88	3.704786	0.2286399	1	3.711835	3.531515	-1.001998E-005	0.0004781	10
	7	29	59859.37	3.714149	0.1309909	1	3.716458	2.019875	3.155831E-005	0.0005608	10
	8	31	47578.12	3.724632	0.0420244	1	3.724869	0.6464316	2.81355E-005	0.0005923	10
	9	34	37828.12	3.736845	-0.0432501	1	3.737095	-0.6631103	-1.842909E-005	0.000608	10
	10	36	30046.88	3.750871	-0.1296992	1	3.753112	-1.980409	4.692495E-006	0.0006241	10
	11	39	23859.38	3.766967	-0.2209301	1	3.77344	-3.356515	1.083024E-005	0.0006402	10
	12	41	18984.38	3.78441	-0.3198313	1	3.797901	-4.830751	9.566293E-006	0.0006733	10
	13	43	15046.87	3.804574	-0.433996	1	3.829248	-6.507723	-2.765096E-005	0.0006943	10
	14	46	11953.13	3.827984	-0.5654273	1	3.869518	-8.402341	-6.180733E-006	0.0006805	10
	15	48	9515.62	3.855029	-0.721228	1	3.921915	-10.59683	-2.4088E-005	0.0006914	10
	16	50	7546.875	3.887847	-0.9117112	1	3.993316	-13.19755	-2.151398E-005	0.000696	10
	17	53	5928.309	3.927981	-1.154085	1	4.094014	-16.37338	-1.892104E-006	0.0006715	10
	18	55	4733.456	3.974784	-1.431003	1	4.224533	-19.79991	-2.538626E-005	0.0006828	10
	19	57	3796.875	4.030324	-1.761674	1	4.398524	-23.61037	-3.013358E-005	0.0006654	10
	20	60	2987.132	4.105552	-2.202567	1	4.659062	-28.21289	-2.549645E-005	0.0006884	10
	21	62	2390.625	4.194233	-2.704672	1	4.990675	-32.81615	-1.147264E-005	0.0006948	10
	22	64	1884.191	4.310815	-3.367364	1	5.470125	-37.99493	-2.450672E-005	0.0006863	10
	23	67	1516.544	4.447417	-4.103842	1	6.051532	-42.69919	-2.754319E-005	0.000684	10
	24	69	1193.986	4.638498	-5.097415	1	6.891974	-47.69872	-2.39631E-005	0.0006895	10
	25	71	946.5144	4.871222	-6.286644	1	7.953031	-52.2296	2.031148E-005	0.0006951	10
	26	74	751.7689	5.172452	-7.722663	1	9.294826	-56.18679	2.093682E-005	0.0006844	10
	27	76	597.4265	5.550477	-9.476956	1	10.98274	-59.64329	2.255641E-005	0.0006836	10
	28	78	477.4305	6.014995	-11.56073	1	13.03191	-62.51225	-2.677895E-006	0.0006918	10
	29	81	376.6741	6.641677	-14.24775	1	15.71974	-65.00713	-1.335142E-006	0.0006857	10
	30	83	298.2954	7.433488	-17.48143	1	18.99624	-66.96374	-1.752664E-006	0.0006891	10
	31	85	237.7717	8.421861	-21.30114	1	22.90559	-68.42757	-2.445644E-006	0.0006934	10
	32	88	189.0121	9.70423	-25.97599	1	27.72948	-69.51509	-2.16818E-006	0.0006952	10
	33	90	150.2404	11.35676	-31.621	1	33.59857	-70.24413	-1.658415E-006	0.0006951	10
	34	93	119.1737	13.4926	-38.46217	1	40.76013	-70.66904	-1.544735E-006	0.0006975	10
	35	95	95.0169	16.13032	-46.392	1	49.11624	-70.82764	1.312996E-006	9.437173E-005	9
	36	97	75.60484	19.49719	-55.94295	1	59.24318	-70.78558	1.302473E-006	8.810272E-005	9
	37	100	54.50582	25.76514	-72.68879	1	77.12006	-70.48271	1.238921E-006	8.938005E-005	9
	38	103	45.95588	29.8285	-83.12633	1	88.31606	-70.26032	1.439573E-006	9.40401E-005	9
	39	105	37.20238	35.67421	-97.8818	1	104.1801	-69.97511	1.391352E-006	9.375511E-005	9
	40	107	30.04808	42.54605	-115.2367	1	122.84	-69.73556	1.290937E-006	8.638504E-005	9
	41	110	23.91582	51.0087	-136.9578	1	146.1483	-69.57261	1.223183E-006	0.0000952	9
	42	112	18.60119	61.66918	-165.6907	1	176.795	-69.585	1.280132E-006	0.0001004	9
	43	114	15.02404	71.91473	-195.0782	1	207.9116	-69.76381	1.354734E-006	8.632691E-005	9
	44	117	12.01923	83.91018	-232.046	1	246.7514	-70.1195	1.476991E-006	8.774619E-005	9
	45	119	9.450605	98.9027	-281.133	1	298.0226	-70.61811	1.570203E-006	8.346254E-005	9
	46	122	7.512019	116.1245	-338.9023	1	358.2452	-71.08604	1.544371E-006	0.0001414	9
	47	124	5.978954	136.656	-408.0552	1	430.33	-71.48452	1.013024E-006	0.0006635	8
	48	127	4.734848	164.4741	-497.3458	1	523.8364	-71.70076	8.228529E-007	0.0006487	8
	49	131	3.75601	201.8126	-605.6822	1	638.4193	-71.57199	1.02205E-006	0.0006842	8
	50	134	3.004808	250.3927	-731.9186	1	773.564	-71.11395	8.859797E-007	0.0006846	8
	51	138	2.372217	321.763	-891.8276	1	948.097	-70.16103	8.517127E-007	0.0006815	8
	52	142	1.878005	421.816	-1081.377	1	1160.735	-68.69059	9.222061E-007	0.0006541	8
	53	147	1.512097	543.5827	-1282.968	1	1393.374	-67.03804	8.408472E-007	0.0007384	8
	54	152	1.201923	723.6207	-1522.737	1	1685.928	-64.58244	8.985479E-007	0.0006686	8
	55	158	0.956633	954.659	-1781.232	1	2020.931	-61.81073	6.11754E-007	3.088256E-005	8
