EXPLAIN
TAG	EISPOT
TITLE	LABEL	Potentiostatic EIS	Test Identifier
DATE	LABEL	8/3/2020	Date
TIME	LABEL	1:01:05	Time
NOTES	NOTES	1	Notes...
	
PSTAT	PSTAT	REF3000-16137	Potentiostat
VDC	POTEN	0.00000E+000	T	DC Voltage (V)
FREQINIT	QUANT	3.00000E+005	Initial Freq. (Hz)
FREQFINAL	QUANT	1.00000E+000	Final Freq. (Hz)
PTSPERDEC	QUANT	1.00000E+001	Points/decade
VAC	QUANT	5.00000E+001	AC Voltage (mV rms)
AREA	QUANT	1.00000E+000	Sample Area (cm^2)
SPEED	SELECTOR	2	Optimize for:
ZGUESS	QUANT	1.00000E+003	Estimated Z (ohms)
EOC	QUANT	0	Open Circuit (V)
SEQUENCER	TOGGLE	TRUE	Run as Sequence
PSTATMODEL	IQUANT	5	Pstat Model
PSTATSECTION	LABEL	REF3000-16137	Pstat Section
PSTATSERIALNO	LABEL	16137	Pstat Serial Number
CTRLMODE	IQUANT	1	Control Mode
IESTAB	IQUANT	0	I/E Stability
CASPEED	IQUANT	1	Control Amp Speed
CONVENTION	IQUANT	1	Current Convention
ICHRANGE	IQUANT	2	Ich Range
ICHRANGEMODE	TOGGLE	F	Ich Auto Range
ICHOFFSETENABLE	TOGGLE	T	Ich Offset Enable
ICHOFFSET	QUANT	0	Ich Offset (V)
ICHFILTER	IQUANT	3	Ich Filter
VCHRANGE	IQUANT	2	Vch Range
VCHRANGEMODE	TOGGLE	F	Vch Auto Range
VCHOFFSETENABLE	TOGGLE	T	Vch Offset Enable
VCHOFFSET	QUANT	0	Vch Offset (V)
VCHFILTER	IQUANT	3	Vch Filter
ACHRANGE	IQUANT	2	Ach Range
ACHOFFSETENABLE	TOGGLE	F	Ach Offset Enable
ACHOFFSET	QUANT	0	Ach Offset (V)
ACHFILTER	IQUANT	3	Ach Filter
IERANGELOWERLIMIT	IQUANT	2	I/E Range Lower Limit
IERANGEMODE	TOGGLE	F	I/E AutoRange
IERANGE	IQUANT	11	I/E Range
POSFEEDENABLE	TOGGLE	F	Positive Feedback IR Comp
POSFEEDRESISTANCE	QUANT	0	Positive Feedback Resistance (ohm)
ACHSELECT	IQUANT	0	Ach Select
CABLEID	IQUANT	13	Cable ID
DCCALDATE	LABEL	7/31/2020	DC Calibration Date
ACCALDATE	LABEL	7/31/2020	AC Calibration Date
THERMOSELECT	IQUANT	1	Thermo Select
FRAMEWORKVERSION	QUANT	6.33	Framework Version
INSTRUMENTVERSION	LABEL	3.50	Instrument Version
COMPLIANCEVOLTAGE	IQUANT	0	Compliance Voltage
ZCURVE	TABLE
	Pt	Time	Freq	Zreal	Zimag	Zsig	Zmod	Zphz	Idc	Vdc	IERange
	#	s	Hz	ohm	ohm	V	ohm	°	A	V	#
	0	10	300046.9	6.609607	1.206823	1	6.718878	10.34744	2.023196E-005	0.000199	10
	1	13	238359.4	6.615649	0.9386618	1	6.681908	8.075513	5.988861E-005	-2.227319E-005	10
	2	16	189328.1	6.635383	0.722789	1	6.674633	6.216691	1.669648E-005	0.000271	10
	3	19	150421.9	6.669627	0.5447434	1	6.691836	4.669282	-5.513374E-005	0.0004943	10
	4	21	119484.4	6.685678	0.3914487	1	6.697128	3.350862	3.178016E-005	0.0005753	10
	5	24	94921.88	6.71892	0.2842548	1	6.72493	2.422546	2.489276E-005	0.000552	10
	6	26	75421.88	6.746614	0.1613395	1	6.748543	1.369919	-2.114172E-005	0.000609	10
	7	29	59859.37	6.777253	0.046411	1	6.777411	0.3923582	-2.278728E-005	0.0005967	10
	8	31	47578.12	6.813216	-0.0618444	1	6.813497	-0.5200666	-2.294318E-005	0.0006566	10
	9	34	37828.12	6.850988	-0.1687836	1	6.853067	-1.411275	-2.47907E-005	0.0006693	10
	10	36	30046.88	6.891418	-0.2808161	1	6.897137	-2.333436	2.398189E-005	0.0006529	10
	11	39	23859.38	6.933364	-0.4027072	1	6.945049	-3.324148	5.982537E-007	0.0006597	10
	12	41	18984.38	6.976794	-0.5402558	1	6.99768	-4.427927	2.332376E-005	0.0006571	10
	13	44	15046.87	7.024867	-0.7046815	1	7.060123	-5.728316	-3.080353E-006	0.0006493	10
	14	46	11953.13	7.075925	-0.8963268	1	7.132469	-7.219364	1.377609E-005	0.0006433	10
	15	48	9515.62	7.133849	-1.127329	1	7.222373	-8.979927	-1.989543E-005	0.0006948	10
	16	51	7546.875	7.198328	-1.41356	1	7.335808	-11.10999	1.939437E-005	0.0006548	10
	17	53	5928.309	7.274817	-1.778533	1	7.489068	-13.73809	-2.67628E-005	0.0006748	10
	18	55	4733.456	7.358004	-2.197399	1	7.679114	-16.62776	-2.620988E-006	0.0006569	10
	19	57	3796.875	7.454561	-2.697789	1	7.927707	-19.89508	7.682806E-006	0.0006634	10
	20	60	2987.132	7.57534	-3.373112	1	8.292386	-24.00223	-2.219527E-006	0.0006624	10
	21	62	2390.625	7.712584	-4.147071	1	8.756834	-28.267	1.870297E-005	0.00069	10
	22	64	1884.191	7.888361	-5.162458	1	9.42747	-33.20234	2.206048E-005	0.0006628	10
	23	67	1516.544	8.087022	-6.303882	1	10.25372	-37.93663	-1.472563E-005	0.0006798	10
	24	69	1193.986	8.35369	-7.84266	1	11.45825	-43.19279	-1.65941E-005	0.0006774	10
	25	72	946.5144	8.671769	-9.69797	1	13.00962	-48.19743	-9.08005E-006	0.0006649	10
	26	74	751.7689	9.072024	-11.95173	1	15.00485	-52.79948	-1.660624E-005	0.000669	10
	27	76	597.4265	9.54801	-14.70894	1	17.53617	-57.01122	1.285336E-005	0.0006481	10
	28	78	477.4305	10.11963	-18.01983	1	20.66692	-60.68217	-1.634661E-006	0.0006827	10
	29	81	376.6741	10.86071	-22.31194	1	24.81487	-64.04472	-1.254507E-006	0.0006776	10
	30	83	298.2954	11.75675	-27.53332	1	29.93835	-66.87747	-6.337189E-007	0.000681	10
	31	85	237.7717	12.81672	-33.76891	1	36.11935	-69.21615	-7.750459E-007	0.0006757	10
	32	88	189.0121	14.10549	-41.4752	1	43.80819	-71.21712	1.005738E-006	8.061068E-005	9
	33	90	150.2404	15.69612	-50.99885	1	53.35963	-72.893	9.595844E-007	8.010297E-005	9
	34	93	119.1737	17.66141	-62.84402	1	65.27861	-74.30275	9.468564E-007	8.163602E-005	9
	35	95	95.0169	20.0241	-77.08274	1	79.64115	-75.4379	9.865688E-007	7.576157E-005	9
	36	98	75.60484	22.95099	-94.73219	1	97.4727	-76.38123	9.453129E-007	7.533716E-005	9
	37	100	54.50582	28.3353	-127.192	1	130.31	-77.44097	9.045723E-007	7.109927E-005	9
	38	103	45.95588	31.88675	-148.4073	1	151.7943	-77.87381	1.062258E-006	7.989209E-005	9
	39	105	37.20238	37.10812	-179.548	1	183.3426	-78.32279	9.680471E-007	8.114763E-005	9
	40	107	30.04808	43.46332	-217.5454	1	221.8447	-78.70165	9.901802E-007	7.647646E-005	9
	41	110	23.91582	51.86288	-267.3995	1	272.3825	-79.02361	8.010298E-007	7.555618E-005	9
	42	112	18.60119	63.19937	-334.9622	1	340.8722	-79.31526	1.030149E-006	6.537646E-005	9
	43	114	15.02404	74.88821	-405.9422	1	412.7921	-79.54759	1.154148E-006	8.020714E-005	9
	44	117	12.01923	89.60706	-494.0038	1	502.065	-79.71893	3.147222E-007	0.000661	8
	45	119	9.450605	109.251	-613.1787	1	622.8354	-79.89753	3.405479E-007	0.000665	8
	46	122	7.512019	131.9606	-754.2026	1	765.66	-80.07558	3.699992E-007	0.0006778	8
	47	124	5.978954	159.5809	-926.1437	1	939.7916	-80.22354	3.456603E-007	0.0006581	8
	48	128	4.734848	193.9455	-1143.7	1	1160.028	-80.3755	4.120246E-007	0.0006924	8
	49	131	3.75601	236.0126	-1410.973	1	1430.576	-80.50408	3.474572E-007	0.0006486	8
	50	134	3.004808	286.1622	-1726.61	1	1750.163	-80.58955	3.80053E-007	0.0006671	8
	51	138	2.372217	354.7753	-2139.612	1	2168.826	-80.58528	3.613455E-007	0.0006913	8
	52	142	1.878005	436.1211	-2654.508	1	2690.096	-80.66997	3.293813E-007	0.0006468	8
	53	147	1.512097	527.6237	-3231.548	1	3274.338	-80.72698	3.694585E-007	0.0006146	8
	54	152	1.201923	661.1125	-4001.071	1	4055.322	-80.61757	3.360434E-007	0.000638	8
	55	159	0.956633	829.1324	-4943.219	1	5012.272	-80.47834	2.743026E-008	-1.155157E-005	7
