EXPLAIN
TAG	EISPOT
TITLE	LABEL	Potentiostatic EIS	Test Identifier
DATE	LABEL	8/3/2020	Date
TIME	LABEL	0:55:29	Time
NOTES	NOTES	1	Notes...
	
PSTAT	PSTAT	REF3000-16137	Potentiostat
VDC	POTEN	0.00000E+000	T	DC Voltage (V)
FREQINIT	QUANT	3.00000E+005	Initial Freq. (Hz)
FREQFINAL	QUANT	1.00000E+000	Final Freq. (Hz)
PTSPERDEC	QUANT	1.00000E+001	Points/decade
VAC	QUANT	5.00000E+001	AC Voltage (mV rms)
AREA	QUANT	1.00000E+000	Sample Area (cm^2)
SPEED	SELECTOR	2	Optimize for:
ZGUESS	QUANT	1.00000E+003	Estimated Z (ohms)
EOC	QUANT	0	Open Circuit (V)
SEQUENCER	TOGGLE	TRUE	Run as Sequence
PSTATMODEL	IQUANT	5	Pstat Model
PSTATSECTION	LABEL	REF3000-16137	Pstat Section
PSTATSERIALNO	LABEL	16137	Pstat Serial Number
CTRLMODE	IQUANT	1	Control Mode
IESTAB	IQUANT	0	I/E Stability
CASPEED	IQUANT	1	Control Amp Speed
CONVENTION	IQUANT	1	Current Convention
ICHRANGE	IQUANT	2	Ich Range
ICHRANGEMODE	TOGGLE	F	Ich Auto Range
ICHOFFSETENABLE	TOGGLE	T	Ich Offset Enable
ICHOFFSET	QUANT	0	Ich Offset (V)
ICHFILTER	IQUANT	3	Ich Filter
VCHRANGE	IQUANT	2	Vch Range
VCHRANGEMODE	TOGGLE	F	Vch Auto Range
VCHOFFSETENABLE	TOGGLE	T	Vch Offset Enable
VCHOFFSET	QUANT	0	Vch Offset (V)
VCHFILTER	IQUANT	3	Vch Filter
ACHRANGE	IQUANT	2	Ach Range
ACHOFFSETENABLE	TOGGLE	F	Ach Offset Enable
ACHOFFSET	QUANT	0	Ach Offset (V)
ACHFILTER	IQUANT	3	Ach Filter
IERANGELOWERLIMIT	IQUANT	2	I/E Range Lower Limit
IERANGEMODE	TOGGLE	F	I/E AutoRange
IERANGE	IQUANT	11	I/E Range
POSFEEDENABLE	TOGGLE	F	Positive Feedback IR Comp
POSFEEDRESISTANCE	QUANT	0	Positive Feedback Resistance (ohm)
ACHSELECT	IQUANT	0	Ach Select
CABLEID	IQUANT	13	Cable ID
DCCALDATE	LABEL	7/31/2020	DC Calibration Date
ACCALDATE	LABEL	7/31/2020	AC Calibration Date
THERMOSELECT	IQUANT	1	Thermo Select
FRAMEWORKVERSION	QUANT	6.33	Framework Version
INSTRUMENTVERSION	LABEL	3.50	Instrument Version
COMPLIANCEVOLTAGE	IQUANT	0	Compliance Voltage
ZCURVE	TABLE
	Pt	Time	Freq	Zreal	Zimag	Zsig	Zmod	Zphz	Idc	Vdc	IERange
	#	s	Hz	ohm	ohm	V	ohm	°	A	V	#
	0	10	300046.9	4.520342	1.234107	1	4.685778	15.27029	1.892847E-005	8.987985E-005	10
	1	13	238359.4	4.505796	0.964583	1	4.607887	12.08327	1.880108E-005	-0.0002527	10
	2	16	189328.1	4.506807	0.7456088	1	4.568068	9.393957	7.234703E-006	5.368148E-005	10
	3	18	150421.9	4.512185	0.557333	1	4.546474	7.041358	5.101863E-005	0.000254	10
	4	21	119484.4	4.519427	0.4141901	1	4.538367	5.236335	-7.562723E-005	0.0004707	10
	5	24	94921.88	4.53204	0.299788	1	4.541945	3.784521	4.723023E-006	0.0004992	10
	6	26	75421.88	4.541298	0.1813621	1	4.544919	2.286959	-1.767405E-005	0.000517	10
	7	29	59859.37	4.553812	0.0730603	1	4.554398	0.9191611	-2.606862E-006	0.0005831	10
	8	31	47578.12	4.568501	-0.0287282	1	4.568591	-0.360289	1.970781E-006	0.0006051	10
	9	34	37828.12	4.585701	-0.1300207	1	4.587544	-1.624101	-9.045773E-006	0.000641	10
	10	36	30046.88	4.604836	-0.2358595	1	4.610873	-2.932125	2.288829E-005	0.0006388	10
	11	39	23859.38	4.626564	-0.3498141	1	4.63977	-4.323902	8.467959E-006	0.0006404	10
	12	41	18984.38	4.64994	-0.4768314	1	4.674324	-5.854971	-1.356988E-006	0.0006797	10
	13	43	15046.87	4.676763	-0.6265262	1	4.718543	-7.630244	1.835077E-005	0.0006463	10
	14	46	11953.13	4.707247	-0.8022429	1	4.77512	-9.67183	-3.038512E-005	0.0006538	10
	15	48	9515.62	4.742974	-1.011629	1	4.849659	-12.0402	-2.635345E-005	0.000697	10
	16	50	7546.875	4.785239	-1.269634	1	4.950806	-14.85952	-2.082263E-005	0.0006961	10
	17	53	5928.309	4.838013	-1.599933	1	5.0957	-18.29908	1.406906E-005	0.0006586	10
	18	55	4733.456	4.89803	-1.978489	1	5.282529	-21.99554	-9.238432E-006	0.0006654	10
	19	57	3796.875	4.969551	-2.431265	1	5.532403	-26.06938	1.785002E-005	0.00066	10
	20	60	2987.132	5.06458	-3.038525	1	5.90615	-30.9619	6.247041E-006	0.0006606	10
	21	62	2390.625	5.174992	-3.732784	1	6.380769	-35.80336	-2.073437E-005	0.0006991	10
	22	64	1884.191	5.319321	-4.646024	1	7.062628	-41.13475	-2.079145E-005	0.0006777	10
	23	66	1516.544	5.486917	-5.663971	1	7.885862	-45.90967	6.281358E-006	0.000665	10
	24	69	1193.986	5.711751	-7.043891	1	9.068655	-50.96209	1.531532E-005	0.0006729	10
	25	71	946.5144	5.982495	-8.699975	1	10.5584	-55.48583	4.351718E-006	0.0006532	10
	26	74	751.7689	6.324901	-10.7078	1	12.43629	-59.43043	2.292438E-005	0.00067	10
	27	76	597.4265	6.731278	-13.17939	1	14.79886	-62.94465	-2.704967E-005	0.0006798	10
	28	78	477.4305	7.230162	-16.12807	1	17.67456	-65.85346	-1.502691E-006	0.0006852	10
	29	81	376.6741	7.869665	-19.96367	1	21.45879	-68.48567	-1.75446E-006	0.0006728	10
	30	83	298.2954	8.644687	-24.62874	1	26.10183	-70.65893	-1.820427E-006	0.0006845	10
	31	85	237.7717	9.57274	-30.20903	1	31.68947	-72.41746	-1.159053E-006	0.0006779	10
	32	88	189.0121	10.72857	-37.14323	1	38.66163	-73.88901	-1.171424E-006	0.0006776	10
	33	90	150.2404	12.14161	-45.6106	1	47.199	-75.09347	8.725514E-007	7.389186E-005	9
	34	93	119.1737	13.92306	-56.18145	1	57.88097	-76.08121	9.367989E-007	8.040564E-005	9
	35	95	95.0169	16.08026	-68.87123	1	70.72356	-76.85785	8.783229E-007	7.548829E-005	9
	36	97	75.60484	18.77722	-84.58292	1	86.64211	-77.48344	8.58209E-007	7.593101E-005	9
	37	100	54.50582	23.72298	-113.378	1	115.8332	-78.18204	7.88961E-007	7.1617E-005	9
	38	102	45.95588	26.93895	-132.0857	1	134.8048	-78.47259	9.89296E-007	8.132923E-005	9
	39	105	37.20238	31.61034	-159.4388	1	162.5421	-78.78596	9.491048E-007	7.980994E-005	9
	40	107	30.04808	37.37293	-193.0227	1	196.6074	-79.04202	8.342693E-007	8.382003E-005	9
	41	110	23.91582	44.6347	-236.4837	1	240.6591	-79.31155	8.524321E-007	8.088409E-005	9
	42	112	18.60119	54.73107	-296.2857	1	301.2984	-79.53407	9.018397E-007	0.0001196	9
	43	114	15.02404	65.04076	-358.8009	1	364.6483	-79.72542	1.053181E-006	9.020697E-005	9
	44	117	12.01923	77.64928	-436.5543	1	443.4062	-79.91436	3.682339E-007	0.0006573	8
	45	119	9.450605	94.96687	-542.2214	1	550.475	-80.06574	2.90855E-007	0.0006702	8
	46	122	7.512019	115.3276	-667.0671	1	676.9631	-80.19123	3.215919E-007	0.0006765	8
	47	124	5.978954	140.7966	-819.7762	1	831.7792	-80.25452	3.042185E-007	0.0006702	8
	48	127	4.734848	173.6195	-1013.679	1	1028.44	-80.28088	4.008268E-007	0.0006742	8
	49	131	3.75601	215.5946	-1250.057	1	1268.513	-80.21459	3.138256E-007	0.0006472	8
	50	134	3.004808	267.845	-1529.82	1	1553.09	-80.06916	3.517366E-007	0.0006737	8
	51	138	2.372217	342.7132	-1894.801	1	1925.545	-79.74773	3.380506E-007	0.0007082	8
	52	142	1.878005	437.2317	-2346.42	1	2386.809	-79.44457	2.899646E-007	0.0006477	8
	53	147	1.512097	550.7854	-2848.435	1	2901.198	-79.05611	3.398623E-007	0.0006295	8
	54	152	1.201923	720.7117	-3512.614	1	3585.789	-78.40508	3.124989E-007	0.0006361	8
	55	158	0.956633	946.1506	-4313.492	1	4416.041	-77.62829	-1.000564E-008	-7.87486E-006	7
