EXPLAIN
TAG	EISPOT
TITLE	LABEL	Potentiostatic EIS	Test Identifier
DATE	LABEL	8/3/2020	Date
TIME	LABEL	1:23:30	Time
NOTES	NOTES	1	Notes...
	
PSTAT	PSTAT	REF3000-16137	Potentiostat
VDC	POTEN	0.00000E+000	T	DC Voltage (V)
FREQINIT	QUANT	3.00000E+005	Initial Freq. (Hz)
FREQFINAL	QUANT	1.00000E+000	Final Freq. (Hz)
PTSPERDEC	QUANT	1.00000E+001	Points/decade
VAC	QUANT	5.00000E+001	AC Voltage (mV rms)
AREA	QUANT	1.00000E+000	Sample Area (cm^2)
SPEED	SELECTOR	2	Optimize for:
ZGUESS	QUANT	1.00000E+003	Estimated Z (ohms)
EOC	QUANT	0	Open Circuit (V)
SEQUENCER	TOGGLE	TRUE	Run as Sequence
PSTATMODEL	IQUANT	5	Pstat Model
PSTATSECTION	LABEL	REF3000-16137	Pstat Section
PSTATSERIALNO	LABEL	16137	Pstat Serial Number
CTRLMODE	IQUANT	1	Control Mode
IESTAB	IQUANT	0	I/E Stability
CASPEED	IQUANT	1	Control Amp Speed
CONVENTION	IQUANT	1	Current Convention
ICHRANGE	IQUANT	2	Ich Range
ICHRANGEMODE	TOGGLE	F	Ich Auto Range
ICHOFFSETENABLE	TOGGLE	T	Ich Offset Enable
ICHOFFSET	QUANT	0	Ich Offset (V)
ICHFILTER	IQUANT	3	Ich Filter
VCHRANGE	IQUANT	2	Vch Range
VCHRANGEMODE	TOGGLE	F	Vch Auto Range
VCHOFFSETENABLE	TOGGLE	T	Vch Offset Enable
VCHOFFSET	QUANT	0	Vch Offset (V)
VCHFILTER	IQUANT	3	Vch Filter
ACHRANGE	IQUANT	2	Ach Range
ACHOFFSETENABLE	TOGGLE	F	Ach Offset Enable
ACHOFFSET	QUANT	0	Ach Offset (V)
ACHFILTER	IQUANT	3	Ach Filter
IERANGELOWERLIMIT	IQUANT	2	I/E Range Lower Limit
IERANGEMODE	TOGGLE	F	I/E AutoRange
IERANGE	IQUANT	11	I/E Range
POSFEEDENABLE	TOGGLE	F	Positive Feedback IR Comp
POSFEEDRESISTANCE	QUANT	0	Positive Feedback Resistance (ohm)
ACHSELECT	IQUANT	0	Ach Select
CABLEID	IQUANT	13	Cable ID
DCCALDATE	LABEL	7/31/2020	DC Calibration Date
ACCALDATE	LABEL	7/31/2020	AC Calibration Date
THERMOSELECT	IQUANT	1	Thermo Select
FRAMEWORKVERSION	QUANT	6.33	Framework Version
INSTRUMENTVERSION	LABEL	3.50	Instrument Version
COMPLIANCEVOLTAGE	IQUANT	0	Compliance Voltage
ZCURVE	TABLE
	Pt	Time	Freq	Zreal	Zimag	Zsig	Zmod	Zphz	Idc	Vdc	IERange
	#	s	Hz	ohm	ohm	V	ohm	°	A	V	#
	0	15	300046.9	1823.806	-1452.55	1	2331.56	-38.53518	8.093117E-005	-0.0032388	9
	1	28	238359.4	2206.232	-1657.89	1	2759.721	-36.92331	7.506233E-005	-0.0016758	9
	2	40	189328.1	2713.545	-1957.825	1	3346.103	-35.81048	2.801721E-005	-0.0018726	9
	3	54	150421.9	3214.482	-2117.936	1	3849.487	-33.37982	-3.025271E-005	-0.0009382	9
	4	61	119484.4	3732.812	-2181.449	1	4323.495	-30.30194	-7.881976E-007	-0.0017002	9
	5	69	94921.88	4442.866	-2064.466	1	4899.089	-24.92288	-1.587195E-005	0.001029	8
	6	76	75421.88	5030.259	-2077.637	1	5442.434	-22.44199	8.789441E-006	0.00362	8
	7	83	59859.37	5708.9	-2079.931	1	6075.99	-20.01827	6.599037E-006	-0.0070261	8
	8	91	47578.12	6792.536	-1367.534	1	6928.831	-11.38313	-3.645566E-006	0.0226696	7
	9	95	37828.12	7108.463	-1220.23	1	7212.435	-9.74039	-5.933187E-006	0.0223721	7
	10	98	30046.88	7413.724	-1084.933	1	7492.688	-8.325637	6.549195E-006	-0.0153284	7
	11	101	23859.38	7814.244	-959.035	1	7872.875	-6.996865	-4.434075E-006	0.0018875	7
	12	106	18984.38	8217.259	-885.6168	1	8264.845	-6.151321	-5.943257E-007	-0.012933	7
	13	110	15046.87	8657.834	-795.3617	1	8694.291	-5.248809	2.904152E-007	0.0148779	7
	14	114	11953.13	9104.317	-734.1774	1	9133.872	-4.610388	-5.663629E-006	0.0094023	7
	15	118	9515.62	9540.92	-671.532	1	9564.52	-4.026089	-6.023487E-006	0.0230965	7
	16	122	7546.875	9993.72	-593.9406	1	10011.35	-3.401166	-3.66722E-006	0.0233775	7
	17	126	5928.309	10511.04	-516.6359	1	10523.73	-2.813921	-3.638109E-006	0.0233375	7
	18	130	4733.456	11070.5	-475.8501	1	11080.72	-2.461265	-4.679966E-006	0.0025084	7
	19	135	3796.875	11658.93	-436.9914	1	11667.12	-2.146513	-4.717363E-006	0.0026346	7
	20	139	2987.132	12217.65	-391.0531	1	12223.9	-1.833254	-4.741529E-006	0.0027026	7
	21	143	2390.625	12811.7	-374.4891	1	12817.17	-1.674293	1.451476E-006	-0.0188931	7
	22	147	1884.191	13435.31	-353.5079	1	13439.96	-1.50721	4.324528E-006	0.0001149	7
	23	152	1516.544	14225.41	-304.3697	1	14228.67	-1.225725	-6.715494E-006	0.0214638	7
	24	156	1193.986	14768.97	-257.4043	1	14771.21	-0.998491	-4.831999E-006	0.0027747	7
	25	160	946.5144	15310.42	-244.2479	1	15312.37	-0.9139648	1.213966E-006	-0.0183251	7
	26	163	751.7689	16015.32	-89.47589	1	16015.57	-0.3201021	-6.232023E-006	0.0106917	7
	27	166	597.4265	16239.17	-90.40434	1	16239.42	-0.3189654	4.270389E-006	0.0004736	7
	28	168	477.4305	16997.17	-251.4614	1	16999.03	-0.8475896	-1.088498E-007	0.0006771	7
	29	171	376.6741	17468.05	-255.14	1	17469.91	-0.836808	-1.144264E-007	0.0006546	7
	30	173	298.2954	17954.04	-272.8566	1	17956.12	-0.8706857	-1.158978E-007	0.000679	7
	31	175	237.7717	18475.38	-293.8	1	18477.72	-0.9110545	-1.041989E-007	0.0006137	7
	32	178	189.0121	19011.67	-330.0158	1	19014.53	-0.994474	-1.079054E-007	0.0005858	7
	33	180	150.2404	19570.56	-381.4608	1	19574.28	-1.116643	-1.14891E-007	0.0006458	7
	34	183	119.1737	20143.26	-435.3009	1	20147.96	-1.237983	-1.180142E-007	0.0006756	7
	35	185	95.0169	20738.65	-518.4288	1	20745.13	-1.431993	-1.09895E-007	0.0006472	7
	36	187	75.60484	21380.45	-617.5731	1	21389.37	-1.654525	-1.151969E-007	0.0006611	7
	37	190	54.50582	22075.59	-802.2476	1	22090.16	-2.081266	-1.080626E-007	0.0006239	7
	38	192	45.95588	22736.86	-918.6783	1	22755.41	-2.313766	-1.272473E-007	0.0006769	7
	39	195	37.20238	23409.73	-1106.652	1	23435.87	-2.706538	-1.211227E-007	0.0005919	7
	40	197	30.04808	24138.12	-1322.079	1	24174.3	-3.135037	-1.10512E-007	0.0005896	7
	41	200	23.91582	24914.99	-1614.879	1	24967.27	-3.70847	-1.203623E-007	0.0005812	7
	42	202	18.60119	25673.67	-2020.93	1	25753.09	-4.500816	-1.351403E-007	0.0005936	7
	43	204	15.02404	26525.53	-2352.171	1	26629.62	-5.067491	-1.480002E-007	0.0005792	7
	44	207	12.01923	27360.78	-2889.864	1	27512.97	-6.029265	-9.767748E-008	0.0006448	7
	45	209	9.450605	28346.83	-3532.423	1	28566.07	-7.103263	-1.202882E-007	0.0006413	7
	46	212	7.512019	29411.7	-4365.559	1	29733.92	-8.442735	-1.005796E-007	0.000602	7
	47	214	5.978954	30648.67	-5310.617	1	31105.37	-9.83026	-1.092053E-007	0.0005836	7
	48	217	4.734848	32134.47	-6596.451	1	32804.53	-11.60033	-9.171356E-008	0.0006759	7
	49	221	3.75601	33794.8	-8049.259	1	34740.16	-13.39712	-1.232986E-007	0.0005849	7
	50	224	3.004808	35771.48	-9779.82	1	37084.28	-15.29083	-1.163205E-007	0.0006259	7
	51	228	2.372217	38067.31	-11957.23	1	39901.07	-17.4379	-1.612891E-008	0.0007406	6
	52	232	1.878005	40834.69	-14744.93	1	43415.26	-19.85406	-1.943366E-008	0.0006441	6
	53	237	1.512097	44105.57	-17876.15	1	47590.52	-22.06289	-1.871797E-008	0.0007198	6
	54	242	1.201923	48273.63	-21943.56	1	53027	-24.44493	-1.473663E-008	0.0006873	6
	55	248	0.956633	53285.84	-27021.71	1	59745.74	-26.88996	-2.031974E-008	9.16407E-005	6
