EXPLAIN
TAG	EISPOT
TITLE	LABEL	Potentiostatic EIS	Test Identifier
DATE	LABEL	8/3/2020	Date
TIME	LABEL	0:58:17	Time
NOTES	NOTES	1	Notes...
	
PSTAT	PSTAT	REF3000-16137	Potentiostat
VDC	POTEN	0.00000E+000	T	DC Voltage (V)
FREQINIT	QUANT	3.00000E+005	Initial Freq. (Hz)
FREQFINAL	QUANT	1.00000E+000	Final Freq. (Hz)
PTSPERDEC	QUANT	1.00000E+001	Points/decade
VAC	QUANT	5.00000E+001	AC Voltage (mV rms)
AREA	QUANT	1.00000E+000	Sample Area (cm^2)
SPEED	SELECTOR	2	Optimize for:
ZGUESS	QUANT	1.00000E+003	Estimated Z (ohms)
EOC	QUANT	0	Open Circuit (V)
SEQUENCER	TOGGLE	TRUE	Run as Sequence
PSTATMODEL	IQUANT	5	Pstat Model
PSTATSECTION	LABEL	REF3000-16137	Pstat Section
PSTATSERIALNO	LABEL	16137	Pstat Serial Number
CTRLMODE	IQUANT	1	Control Mode
IESTAB	IQUANT	0	I/E Stability
CASPEED	IQUANT	1	Control Amp Speed
CONVENTION	IQUANT	1	Current Convention
ICHRANGE	IQUANT	2	Ich Range
ICHRANGEMODE	TOGGLE	F	Ich Auto Range
ICHOFFSETENABLE	TOGGLE	T	Ich Offset Enable
ICHOFFSET	QUANT	0	Ich Offset (V)
ICHFILTER	IQUANT	3	Ich Filter
VCHRANGE	IQUANT	2	Vch Range
VCHRANGEMODE	TOGGLE	F	Vch Auto Range
VCHOFFSETENABLE	TOGGLE	T	Vch Offset Enable
VCHOFFSET	QUANT	0	Vch Offset (V)
VCHFILTER	IQUANT	3	Vch Filter
ACHRANGE	IQUANT	2	Ach Range
ACHOFFSETENABLE	TOGGLE	F	Ach Offset Enable
ACHOFFSET	QUANT	0	Ach Offset (V)
ACHFILTER	IQUANT	3	Ach Filter
IERANGELOWERLIMIT	IQUANT	2	I/E Range Lower Limit
IERANGEMODE	TOGGLE	F	I/E AutoRange
IERANGE	IQUANT	11	I/E Range
POSFEEDENABLE	TOGGLE	F	Positive Feedback IR Comp
POSFEEDRESISTANCE	QUANT	0	Positive Feedback Resistance (ohm)
ACHSELECT	IQUANT	0	Ach Select
CABLEID	IQUANT	13	Cable ID
DCCALDATE	LABEL	7/31/2020	DC Calibration Date
ACCALDATE	LABEL	7/31/2020	AC Calibration Date
THERMOSELECT	IQUANT	1	Thermo Select
FRAMEWORKVERSION	QUANT	6.33	Framework Version
INSTRUMENTVERSION	LABEL	3.50	Instrument Version
COMPLIANCEVOLTAGE	IQUANT	0	Compliance Voltage
ZCURVE	TABLE
	Pt	Time	Freq	Zreal	Zimag	Zsig	Zmod	Zphz	Idc	Vdc	IERange
	#	s	Hz	ohm	ohm	V	ohm	°	A	V	#
	0	10	300046.9	5.287906	1.218055	1	5.426381	12.97166	1.662022E-005	0.000138	10
	1	13	238359.4	5.27965	0.956041	1	5.365512	10.26393	-2.32015E-005	-0.0001518	10
	2	16	189328.1	5.287366	0.736214	1	5.338375	7.92691	2.646492E-005	0.0001647	10
	3	19	150421.9	5.292013	0.5597161	1	5.32153	6.037511	7.115788E-006	0.0003249	10
	4	21	119484.4	5.312587	0.4043186	1	5.32795	4.35215	5.215891E-005	0.0004282	10
	5	24	94921.88	5.33344	0.2942422	1	5.34155	3.157768	8.802733E-006	0.000509	10
	6	26	75421.88	5.349686	0.1740616	1	5.352517	1.863564	1.883356E-006	0.0005835	10
	7	29	59859.37	5.368511	0.0628865	1	5.368879	0.6711296	1.390003E-006	0.000595	10
	8	31	47578.12	5.389729	-0.0424278	1	5.389896	-0.4510216	-8.920129E-006	0.0006083	10
	9	34	37828.12	5.414277	-0.1468907	1	5.416269	-1.554068	1.920578E-005	0.0006255	10
	10	36	30046.88	5.44143	-0.2554156	1	5.447421	-2.687438	1.232936E-005	0.0006353	10
	11	39	23859.38	5.470385	-0.3729106	1	5.48308	-3.899762	-1.32631E-005	0.0006434	10
	12	41	18984.38	5.500632	-0.5039046	1	5.523664	-5.234171	-1.667529E-005	0.0006886	10
	13	44	15046.87	5.534446	-0.6601619	1	5.57368	-6.802237	1.287933E-005	0.0006536	10
	14	46	11953.13	5.573663	-0.8436428	1	5.637149	-8.60709	1.214184E-005	0.0006563	10
	15	48	9515.62	5.616982	-1.062117	1	5.716518	-10.70765	-2.9054E-005	0.0006613	10
	16	51	7546.875	5.666886	-1.330515	1	5.820985	-13.21303	2.221993E-005	0.0006642	10
	17	53	5928.309	5.72791	-1.676978	1	5.96835	-16.31861	-2.094999E-005	0.0006784	10
	18	55	4733.456	5.797046	-2.072996	1	6.156545	-19.67681	1.287617E-005	0.0006577	10
	19	58	3796.875	5.877633	-2.548725	1	6.406447	-23.44306	2.35089E-005	0.0006852	10
	20	60	2987.132	5.98262	-3.183398	1	6.776855	-28.01779	5.597823E-006	0.0006708	10
	21	62	2390.625	6.104186	-3.907379	1	7.247668	-32.6239	2.153091E-005	0.0006577	10
	22	65	1884.191	6.261003	-4.867723	1	7.93063	-37.86389	-2.741435E-005	0.0006805	10
	23	67	1516.544	6.441375	-5.93813	1	8.760862	-42.67213	2.197303E-005	0.0006701	10
	24	69	1193.986	6.685924	-7.385372	1	9.96219	-47.84568	2.133258E-005	0.0006698	10
	25	72	946.5144	6.984688	-9.122437	1	11.48933	-52.56015	-2.132046E-005	0.0006991	10
	26	74	751.7689	7.341084	-11.24048	1	13.42535	-56.85172	1.567413E-005	0.0006687	10
	27	76	597.4265	7.783377	-13.83885	1	15.87749	-60.64532	-6.783339E-006	0.0006754	10
	28	79	477.4305	8.318254	-16.92643	1	18.85994	-63.82885	-4.904332E-006	0.0007181	10
	29	81	376.6741	9.004853	-20.95142	1	22.80459	-66.74212	-2.250086E-006	0.000681	10
	30	83	298.2954	9.83621	-25.84195	1	27.65063	-69.16169	-1.958444E-006	0.0006842	10
	31	86	237.7717	10.8293	-31.69428	1	33.49331	-71.13573	-1.553894E-006	0.000681	10
	32	88	189.0121	12.05724	-38.95924	1	40.78234	-72.80357	-1.518568E-006	0.0007081	10
	33	90	150.2404	13.55127	-47.83923	1	49.72151	-74.18433	8.819804E-007	7.251837E-005	9
	34	93	119.1737	15.42723	-58.92333	1	60.90943	-75.32822	9.7205E-007	7.456585E-005	9
	35	95	95.0169	17.68896	-72.22636	1	74.36092	-76.23856	9.179411E-007	7.944475E-005	9
	36	98	75.60484	20.49793	-88.68889	1	91.02683	-76.98621	8.664166E-007	7.639996E-005	9
	37	100	54.50582	25.67262	-118.9221	1	121.6616	-77.81807	7.874967E-007	7.447798E-005	9
	38	103	45.95588	29.0365	-138.6146	1	141.6232	-78.16895	9.303929E-007	8.22591E-005	9
	39	105	37.20238	33.97235	-167.5188	1	170.9288	-78.53604	9.011571E-007	8.587424E-005	9
	40	107	30.04808	39.9572	-202.7489	1	206.6488	-78.85118	9.20461E-007	6.759004E-005	9
	41	110	23.91582	47.71475	-248.6601	1	253.1966	-79.1377	8.561814E-007	7.385307E-005	9
	42	112	18.60119	58.22062	-311.6481	1	317.0397	-79.41825	1.034406E-006	7.36186E-005	9
	43	114	15.02404	69.12548	-377.4424	1	383.7201	-79.62176	1.005984E-006	6.984268E-005	9
	44	117	12.01923	82.39749	-459.3131	1	466.6453	-79.82973	2.714455E-007	0.0006578	8
	45	119	9.450605	100.1042	-570.2546	1	578.9742	-80.04356	3.062151E-007	0.0006716	8
	46	122	7.512019	121.3417	-701.617	1	712.0325	-80.188	3.076213E-007	0.0006577	8
	47	124	5.978954	146.7841	-862.5768	1	874.9768	-80.34253	3.562453E-007	0.0006613	8
	48	127	4.734848	178.7588	-1066.33	1	1081.21	-80.48347	3.284722E-007	0.0006496	8
	49	131	3.75601	219.335	-1316.577	1	1334.722	-80.54168	3.900301E-007	0.000681	8
	50	134	3.004808	268.2286	-1612.931	1	1635.082	-80.55818	3.325325E-007	0.0006924	8
	51	138	2.372217	335.333	-1998.904	1	2026.836	-80.47682	3.133344E-007	0.0006794	8
	52	142	1.878005	424.0897	-2478.981	1	2514.995	-80.29214	3.510771E-007	0.0006411	8
	53	147	1.512097	523.1155	-3021.727	1	3066.673	-80.17841	3.313125E-007	0.0007423	8
	54	152	1.201923	669.5458	-3731.138	1	3790.736	-79.82665	3.591717E-007	0.0006596	8
	55	158	0.956633	858.4054	-4600.129	1	4679.535	-79.42991	3.063776E-009	5.27087E-005	7
