EXPLAIN
TAG	EISPOT
TITLE	LABEL	Potentiostatic EIS	Test Identifier
DATE	LABEL	8/3/2020	Date
TIME	LABEL	1:09:25	Time
NOTES	NOTES	1	Notes...
	
PSTAT	PSTAT	REF3000-16137	Potentiostat
VDC	POTEN	0.00000E+000	T	DC Voltage (V)
FREQINIT	QUANT	3.00000E+005	Initial Freq. (Hz)
FREQFINAL	QUANT	1.00000E+000	Final Freq. (Hz)
PTSPERDEC	QUANT	1.00000E+001	Points/decade
VAC	QUANT	5.00000E+001	AC Voltage (mV rms)
AREA	QUANT	1.00000E+000	Sample Area (cm^2)
SPEED	SELECTOR	2	Optimize for:
ZGUESS	QUANT	1.00000E+003	Estimated Z (ohms)
EOC	QUANT	0	Open Circuit (V)
SEQUENCER	TOGGLE	TRUE	Run as Sequence
PSTATMODEL	IQUANT	5	Pstat Model
PSTATSECTION	LABEL	REF3000-16137	Pstat Section
PSTATSERIALNO	LABEL	16137	Pstat Serial Number
CTRLMODE	IQUANT	1	Control Mode
IESTAB	IQUANT	0	I/E Stability
CASPEED	IQUANT	1	Control Amp Speed
CONVENTION	IQUANT	1	Current Convention
ICHRANGE	IQUANT	2	Ich Range
ICHRANGEMODE	TOGGLE	F	Ich Auto Range
ICHOFFSETENABLE	TOGGLE	T	Ich Offset Enable
ICHOFFSET	QUANT	0	Ich Offset (V)
ICHFILTER	IQUANT	3	Ich Filter
VCHRANGE	IQUANT	2	Vch Range
VCHRANGEMODE	TOGGLE	F	Vch Auto Range
VCHOFFSETENABLE	TOGGLE	T	Vch Offset Enable
VCHOFFSET	QUANT	0	Vch Offset (V)
VCHFILTER	IQUANT	3	Vch Filter
ACHRANGE	IQUANT	2	Ach Range
ACHOFFSETENABLE	TOGGLE	F	Ach Offset Enable
ACHOFFSET	QUANT	0	Ach Offset (V)
ACHFILTER	IQUANT	3	Ach Filter
IERANGELOWERLIMIT	IQUANT	2	I/E Range Lower Limit
IERANGEMODE	TOGGLE	F	I/E AutoRange
IERANGE	IQUANT	11	I/E Range
POSFEEDENABLE	TOGGLE	F	Positive Feedback IR Comp
POSFEEDRESISTANCE	QUANT	0	Positive Feedback Resistance (ohm)
ACHSELECT	IQUANT	0	Ach Select
CABLEID	IQUANT	13	Cable ID
DCCALDATE	LABEL	7/31/2020	DC Calibration Date
ACCALDATE	LABEL	7/31/2020	AC Calibration Date
THERMOSELECT	IQUANT	1	Thermo Select
FRAMEWORKVERSION	QUANT	6.33	Framework Version
INSTRUMENTVERSION	LABEL	3.50	Instrument Version
COMPLIANCEVOLTAGE	IQUANT	0	Compliance Voltage
ZCURVE	TABLE
	Pt	Time	Freq	Zreal	Zimag	Zsig	Zmod	Zphz	Idc	Vdc	IERange
	#	s	Hz	ohm	ohm	V	ohm	°	A	V	#
	0	8	300046.9	20.76985	0.951329	1	20.79162	2.622507	-8.634898E-005	0.0004382	10
	1	11	238359.4	20.96155	0.7077207	1	20.9735	1.933731	-1.785614E-005	0.0002974	10
	2	14	189328.1	21.15163	0.524954	1	21.15815	1.42171	-0.0001036	0.0004037	10
	3	17	150421.9	21.32758	0.360729	1	21.33063	0.968993	2.577956E-005	0.0005692	10
	4	19	119484.4	21.50086	0.2455042	1	21.50226	0.6541945	-2.725941E-005	0.0005617	10
	5	22	94921.88	21.66569	0.1367372	1	21.66612	0.3616021	2.350059E-005	0.0006201	10
	6	25	75421.88	21.84872	0.0205556	1	21.84873	0.0539046	7.730382E-006	0.0006154	10
	7	27	59859.37	22.03278	-0.0874574	1	22.03295	-0.2274299	-2.77429E-005	0.0006416	10
	8	30	47578.12	22.22009	-0.1960466	1	22.22095	-0.5055044	-6.428984E-006	0.000641	10
	9	32	37828.12	22.41092	-0.30937	1	22.41305	-0.7908856	-3.554983E-006	0.0007054	10
	10	35	30046.88	22.6039	-0.4351434	1	22.60809	-1.102854	-2.261908E-005	0.0006506	10
	11	37	23859.38	22.79493	-0.5765235	1	22.80222	-1.448801	-2.821822E-005	0.0006437	10
	12	40	18984.38	22.98328	-0.7422487	1	22.99526	-1.849733	2.401581E-005	0.0006457	10
	13	42	15046.87	23.17893	-0.9405044	1	23.19801	-2.323549	-2.462789E-005	0.0007173	10
	14	44	11953.13	23.37921	-1.179837	1	23.40896	-2.888992	-1.353225E-006	0.0006436	10
	15	46	9515.62	23.59191	-1.471462	1	23.63776	-3.568998	2.337289E-005	0.0006952	10
	16	49	7546.875	23.81566	-1.826154	1	23.88557	-4.384787	-9.28489E-006	0.0006642	10
	17	51	5928.309	24.04994	-2.290308	1	24.15875	-5.439948	-4.384741E-006	0.0006794	10
	18	53	4733.456	24.29984	-2.820266	1	24.46295	-6.620193	1.549988E-005	0.0006284	10
	19	56	3796.875	24.56238	-3.464094	1	24.80545	-8.027622	-2.093308E-005	0.0006888	10
	20	58	2987.132	24.85322	-4.32173	1	25.22618	-9.86453	8.125803E-006	0.0006421	10
	21	60	2390.625	25.16744	-5.307358	1	25.72097	-11.90817	1.538646E-005	0.0006414	10
	22	63	1884.191	25.52893	-6.618198	1	26.37284	-14.53359	-4.535041E-006	0.0006789	10
	23	65	1516.544	25.91641	-8.073767	1	27.14491	-17.30343	-9.50098E-006	0.0006616	10
	24	67	1193.986	26.38542	-10.06627	1	28.2404	-20.8823	-2.72741E-005	0.0006864	10
	25	70	946.5144	26.91651	-12.47547	1	29.66709	-24.86715	-2.814219E-005	0.0006578	10
	26	72	751.7689	27.53406	-15.40079	1	31.54852	-29.21986	-1.036437E-006	0.0006568	10
	27	74	597.4265	28.26447	-19.00574	1	34.06022	-33.91787	-1.987616E-005	0.0007075	10
	28	77	477.4305	29.12533	-23.34717	1	37.32794	-38.71603	-7.74084E-007	0.0006858	10
	29	79	376.6741	30.17119	-28.94462	1	41.81019	-43.81136	9.984253E-007	8.176961E-005	9
	30	81	298.2954	31.4609	-35.78683	1	47.64961	-48.68067	1.034191E-006	8.268956E-005	9
	31	84	237.7717	32.99715	-43.95774	1	54.96449	-53.10605	9.710066E-007	7.799924E-005	9
	32	86	189.0121	34.87492	-54.10855	1	64.37387	-57.19676	9.370976E-007	8.311037E-005	9
	33	88	150.2404	37.14148	-66.56742	1	76.22802	-60.84055	9.901796E-007	8.094293E-005	9
	34	91	119.1737	39.91405	-82.03638	1	91.23102	-64.05518	9.722461E-007	8.242701E-005	9
	35	93	95.0169	43.18129	-100.5953	1	109.4717	-66.76821	9.333409E-007	8.041509E-005	9
	36	96	75.60484	47.14997	-123.5951	1	132.2833	-69.11878	9.81952E-007	7.775119E-005	9
	37	98	54.50582	54.16136	-165.8825	1	174.5006	-71.91792	9.497871E-007	7.468261E-005	9
	38	101	45.95588	58.75019	-193.58	1	202.2988	-73.11732	9.545322E-007	7.512645E-005	9
	39	103	37.20238	65.30791	-234.3201	1	243.2509	-74.42619	9.909947E-007	7.936083E-005	9
	40	106	30.04808	73.2355	-284.3136	1	293.5944	-75.55536	1.116899E-006	7.272692E-005	9
	41	108	23.91582	83.35723	-349.6097	1	359.4098	-76.58939	1.10451E-006	7.188432E-005	9
	42	110	18.60119	96.6471	-437.593	1	448.1386	-77.54556	3.25295E-007	0.0006532	8
	43	113	15.02404	110.9284	-531.3023	1	542.7589	-78.20687	3.609959E-007	0.0006673	8
	44	115	12.01923	128.9639	-651.2492	1	663.8955	-78.79889	2.611991E-007	0.0006534	8
	45	117	9.450605	152.6602	-810.9993	1	825.2424	-79.33955	3.015776E-007	0.0006567	8
	46	120	7.512019	181.2058	-1000.306	1	1016.587	-79.7322	3.078115E-007	0.0006495	8
	47	123	5.978954	215.3539	-1232.063	1	1250.743	-80.08536	3.093085E-007	0.0006525	8
	48	126	4.734848	259.8478	-1525.532	1	1547.504	-80.33344	3.208381E-007	0.0006303	8
	49	129	3.75601	313.7402	-1886.151	1	1912.066	-80.55595	3.420959E-007	0.0006748	8
	50	132	3.004808	378.7696	-2312.642	1	2343.455	-80.69855	3.263641E-007	0.0006435	8
	51	136	2.372217	467.4852	-2869.918	1	2907.743	-80.74826	3.191502E-007	0.0006152	8
	52	140	1.878005	571.0443	-3563.489	1	3608.953	-80.89584	3.557796E-007	0.0006615	8
	53	145	1.512097	687.9283	-4349.439	1	4403.506	-81.01228	2.807206E-008	0.000666	7
	54	150	1.201923	852.3479	-5386.231	1	5453.254	-81.00775	4.857849E-008	0.0006421	7
	55	157	0.956633	1050.079	-6644.436	1	6726.9	-81.01932	2.982257E-008	-1.058096E-005	7
