EXPLAIN
TAG	EISPOT
TITLE	LABEL	Potentiostatic EIS	Test Identifier
DATE	LABEL	8/3/2020	Date
TIME	LABEL	1:33:32	Time
NOTES	NOTES	1	Notes...
	
PSTAT	PSTAT	REF3000-16137	Potentiostat
VDC	POTEN	0.00000E+000	T	DC Voltage (V)
FREQINIT	QUANT	3.00000E+005	Initial Freq. (Hz)
FREQFINAL	QUANT	1.00000E+000	Final Freq. (Hz)
PTSPERDEC	QUANT	1.00000E+001	Points/decade
VAC	QUANT	5.00000E+001	AC Voltage (mV rms)
AREA	QUANT	1.00000E+000	Sample Area (cm^2)
SPEED	SELECTOR	2	Optimize for:
ZGUESS	QUANT	1.00000E+003	Estimated Z (ohms)
EOC	QUANT	0	Open Circuit (V)
SEQUENCER	TOGGLE	TRUE	Run as Sequence
PSTATMODEL	IQUANT	5	Pstat Model
PSTATSECTION	LABEL	REF3000-16137	Pstat Section
PSTATSERIALNO	LABEL	16137	Pstat Serial Number
CTRLMODE	IQUANT	1	Control Mode
IESTAB	IQUANT	0	I/E Stability
CASPEED	IQUANT	1	Control Amp Speed
CONVENTION	IQUANT	1	Current Convention
ICHRANGE	IQUANT	2	Ich Range
ICHRANGEMODE	TOGGLE	F	Ich Auto Range
ICHOFFSETENABLE	TOGGLE	T	Ich Offset Enable
ICHOFFSET	QUANT	0	Ich Offset (V)
ICHFILTER	IQUANT	3	Ich Filter
VCHRANGE	IQUANT	2	Vch Range
VCHRANGEMODE	TOGGLE	F	Vch Auto Range
VCHOFFSETENABLE	TOGGLE	T	Vch Offset Enable
VCHOFFSET	QUANT	0	Vch Offset (V)
VCHFILTER	IQUANT	3	Vch Filter
ACHRANGE	IQUANT	2	Ach Range
ACHOFFSETENABLE	TOGGLE	F	Ach Offset Enable
ACHOFFSET	QUANT	0	Ach Offset (V)
ACHFILTER	IQUANT	3	Ach Filter
IERANGELOWERLIMIT	IQUANT	2	I/E Range Lower Limit
IERANGEMODE	TOGGLE	F	I/E AutoRange
IERANGE	IQUANT	11	I/E Range
POSFEEDENABLE	TOGGLE	F	Positive Feedback IR Comp
POSFEEDRESISTANCE	QUANT	0	Positive Feedback Resistance (ohm)
ACHSELECT	IQUANT	0	Ach Select
CABLEID	IQUANT	13	Cable ID
DCCALDATE	LABEL	7/31/2020	DC Calibration Date
ACCALDATE	LABEL	7/31/2020	AC Calibration Date
THERMOSELECT	IQUANT	1	Thermo Select
FRAMEWORKVERSION	QUANT	6.33	Framework Version
INSTRUMENTVERSION	LABEL	3.50	Instrument Version
COMPLIANCEVOLTAGE	IQUANT	0	Compliance Voltage
ZCURVE	TABLE
	Pt	Time	Freq	Zreal	Zimag	Zsig	Zmod	Zphz	Idc	Vdc	IERange
	#	s	Hz	ohm	ohm	V	ohm	°	A	V	#
	0	14	300046.9	-41.23079	-4592.248	1	4592.433	-90.5144	-6.477229E-005	0.0004177	9
	1	40	238359.4	-269.3524	-5913.783	1	5919.914	-92.60783	-6.095984E-005	0.000494	9
	2	55	189328.1	-43.32185	-6997.774	1	6997.909	-90.35471	2.173909E-005	-0.0009111	9
	3	63	150421.9	227.6676	-8861.903	1	8864.827	-88.52836	1.12906E-006	0.0015672	9
	4	71	119484.4	435.3226	-11066.12	1	11074.68	-87.74724	2.221225E-005	-0.018431	8
	5	78	94921.88	596.616	-13768.08	1	13781	-87.51874	-1.057268E-006	-0.0051327	8
	6	87	75421.88	837.5726	-17394.67	1	17414.83	-87.24327	-1.600111E-005	0.0006456	8
	7	95	59859.37	399.8213	-21567.13	1	21570.84	-88.93795	-2.494448E-005	0.0110838	8
	8	104	47578.12	3978.004	-28507.2	1	28783.42	-82.05602	6.637358E-006	-0.0102406	7
	9	111	37828.12	4251.412	-35290.94	1	35546.09	-83.13082	2.976455E-006	0.0079268	7
	10	119	30046.88	4484.021	-43922.77	1	44151.05	-84.17094	-3.724051E-006	0.0253224	7
	11	126	23859.38	4489.408	-54720.72	1	54904.57	-85.30983	3.419142E-006	-0.0244539	7
	12	132	18984.38	5328.824	-68291.53	1	68499.13	-85.53822	-3.466798E-006	-0.0049817	7
	13	137	15046.87	4970.432	-85993.44	1	86136.96	-86.69198	-3.798426E-006	0.0255145	7
	14	142	11953.13	-404.6856	-110951.6	1	110952.3	-90.20898	8.305847E-006	0.0040884	8
	15	150	9515.62	5944.037	-132467.7	1	132601	-87.43077	-9.448968E-006	-0.0020984	8
	16	157	7546.875	5864.619	-169876.9	1	169978.1	-88.02277	2.575299E-005	-0.0051242	8
	17	165	5928.309	-3248.036	-217509.1	1	217533.4	-90.85553	-3.464647E-006	-0.004946	7
	18	171	4733.456	7678.975	-277509.9	1	277616.2	-88.41497	7.62012E-006	-0.0244936	7
	19	177	3796.875	-1926	-346100.7	1	346106	-90.31884	5.31256E-006	-0.0267441	7
	20	183	2987.132	-20103.66	-423531.4	1	424008.3	-92.71761	-5.402882E-006	0.0037856	7
	21	191	2390.625	80670.24	-513503	1	519801	-81.07192	7.459724E-006	-0.0186196	7
	22	198	1884.191	84898.66	-635624	1	641268.8	-82.39218	5.12203E-007	0.0159807	7
	23	206	1516.544	56130.54	-848278.6	1	850133.6	-86.21426	5.817284E-007	-0.027529	6
	24	211	1193.986	39679.8	-1106058	1	1106769	-87.9454	2.217973E-007	0.0101465	6
	25	217	946.5144	12974.93	-1470080	1	1470137	-89.49432	1.66891E-007	-0.0207115	6
	26	222	751.7689	-135663.3	-1912114	1	1916921	-94.0583	-7.35755E-007	0.017628	6
	27	226	597.4265	172718	-1942143	1	1949808	-84.91796	4.294321E-007	0.0017281	6
	28	230	477.4305	117008.1	-2651894	1	2654474	-87.47361	-1.262097E-008	0.0007044	6
	29	234	376.6741	506478.9	-3446647	1	3483661	-81.64031	-1.316054E-009	0.0006968	5
	30	238	298.2954	559667.1	-4280981	1	4317410	-82.55177	-1.191631E-009	0.0006302	5
	31	241	237.7717	592779.8	-5367161	1	5399797	-83.69747	-1.227298E-009	0.0006131	5
	32	243	189.0121	671002	-6635034	1	6668877	-84.2253	-1.308947E-009	0.0007427	5
	33	246	150.2404	700602.4	-8687020	1	8715226	-85.38911	-1.298146E-009	0.0006977	5
	34	249	119.1737	-863350.2	-1.019549E+007	1	1.023198E+007	-94.84024	-1.235095E-009	0.0006552	5
	35	252	95.0169	1160342	-1.284293E+007	1	1.289524E+007	-84.83742	-1.269091E-009	0.0006387	5
	36	255	75.60484	1163245	-1.59096E+007	1	1.595207E+007	-85.81821	-1.266584E-009	0.0006337	5
	37	257	54.50582	1598222	-2.205619E+007	1	2.211402E+007	-85.85551	-1.299691E-009	0.0006648	5
	38	261	45.95588	5273483	-2.782765E+007	1	2.832292E+007	-79.2694	-1.1652E-010	0.0006145	4
	39	263	37.20238	3532619	-3.167552E+007	1	3.18719E+007	-83.63638	-1.31585E-009	0.0007017	5
	40	267	30.04808	3520498	-4.01752E+007	1	4.032915E+007	-84.99204	-1.303968E-009	0.0007026	5
	41	271	23.91582	8843581	-4.914654E+007	1	4.993587E+007	-79.79919	-1.409857E-010	0.0006422	4
	42	275	18.60119	1.105364E+007	-6.642664E+007	1	6.734005E+007	-80.55234	-1.407323E-010	0.0006346	4
	43	278	15.02404	1.116707E+007	-7.732783E+007	1	7.813E+007	-81.78261	-1.346632E-010	0.0007078	4
	44	282	12.01923	1.338635E+007	-9.495094E+007	1	9.588991E+007	-81.97523	-1.306677E-010	0.0006996	4
	45	286	9.450605	1.411145E+007	-1.196065E+008	1	1.204361E+008	-83.27122	-1.3467E-010	0.0006074	4
	46	290	7.512019	1.826925E+007	-1.488015E+008	1	1.499188E+008	-83.00049	-1.3838E-010	0.0007003	4
	47	294	5.978954	2.554104E+007	-1.921073E+008	1	1.937977E+008	-82.42683	-1.341908E-010	0.0006322	4
	48	300	4.734848	6.771958E+007	-2.434679E+008	1	2.527104E+008	-74.45631	-2.128436E-011	0.0007047	3
	49	305	3.75601	5.201226E+007	-2.933643E+008	1	2.979394E+008	-79.94617	-1.303879E-009	0.0006913	5
	50	313	3.004808	9.506208E+007	-3.666424E+008	1	3.787657E+008	-75.46458	-1.992003E-011	0.0007316	3
	51	321	2.372217	1.119289E+008	-4.567773E+008	1	4.702909E+008	-76.23152	-2.140326E-011	0.0007279	3
	52	326	1.878005	1.383188E+008	-5.691598E+008	1	5.85726E+008	-76.34062	-2.139511E-011	0.0007326	3
	53	334	1.512097	1.680785E+008	-6.959428E+008	1	7.159517E+008	-76.42239	-2.122145E-011	0.0006517	3
	54	340	1.201923	2.122044E+008	-8.66636E+008	1	8.92238E+008	-76.24127	-2.115082E-011	0.0007437	3
	55	350	0.956633	2.640556E+008	-1.077243E+009	1	1.109134E+009	-76.22713	-2.115341E-011	9.358369E-005	3
