EXPLAIN
TAG	EISPOT
TITLE	LABEL	Potentiostatic EIS	Test Identifier
DATE	LABEL	2/27/2021	Date
TIME	LABEL	23:19:27	Time
NOTES	NOTES	1	Notes...
	
PSTAT	PSTAT	REF3000-16137	Potentiostat
VDC	POTEN	0.00000E+000	T	DC Voltage (V)
FREQINIT	QUANT	3.00000E+005	Initial Freq. (Hz)
FREQFINAL	QUANT	1.00000E+000	Final Freq. (Hz)
PTSPERDEC	QUANT	1.00000E+001	Points/decade
VAC	QUANT	5.00000E+001	AC Voltage (mV rms)
AREA	QUANT	1.00000E+000	Sample Area (cm^2)
SPEED	SELECTOR	2	Optimize for:
ZGUESS	QUANT	1.00000E+003	Estimated Z (ohms)
EOC	QUANT	0	Open Circuit (V)
SEQUENCER	TOGGLE	TRUE	Run as Sequence
PSTATMODEL	IQUANT	5	Pstat Model
PSTATSECTION	LABEL	REF3000-16137	Pstat Section
PSTATSERIALNO	LABEL	16137	Pstat Serial Number
CTRLMODE	IQUANT	1	Control Mode
IESTAB	IQUANT	0	I/E Stability
CASPEED	IQUANT	1	Control Amp Speed
CONVENTION	IQUANT	1	Current Convention
ICHRANGE	IQUANT	2	Ich Range
ICHRANGEMODE	TOGGLE	F	Ich Auto Range
ICHOFFSETENABLE	TOGGLE	T	Ich Offset Enable
ICHOFFSET	QUANT	0	Ich Offset (V)
ICHFILTER	IQUANT	3	Ich Filter
VCHRANGE	IQUANT	2	Vch Range
VCHRANGEMODE	TOGGLE	F	Vch Auto Range
VCHOFFSETENABLE	TOGGLE	T	Vch Offset Enable
VCHOFFSET	QUANT	0	Vch Offset (V)
VCHFILTER	IQUANT	3	Vch Filter
ACHRANGE	IQUANT	2	Ach Range
ACHOFFSETENABLE	TOGGLE	F	Ach Offset Enable
ACHOFFSET	QUANT	0	Ach Offset (V)
ACHFILTER	IQUANT	3	Ach Filter
IERANGELOWERLIMIT	IQUANT	2	I/E Range Lower Limit
IERANGEMODE	TOGGLE	F	I/E AutoRange
IERANGE	IQUANT	11	I/E Range
POSFEEDENABLE	TOGGLE	F	Positive Feedback IR Comp
POSFEEDRESISTANCE	QUANT	0	Positive Feedback Resistance (ohm)
ACHSELECT	IQUANT	0	Ach Select
CABLEID	IQUANT	13	Cable ID
DCCALDATE	LABEL	7/31/2020	DC Calibration Date
ACCALDATE	LABEL	7/31/2020	AC Calibration Date
THERMOSELECT	IQUANT	1	Thermo Select
FRAMEWORKVERSION	QUANT	6.33	Framework Version
INSTRUMENTVERSION	LABEL	3.50	Instrument Version
COMPLIANCEVOLTAGE	IQUANT	0	Compliance Voltage
ZCURVE	TABLE
	Pt	Time	Freq	Zreal	Zimag	Zsig	Zmod	Zphz	Idc	Vdc	IERange
	#	s	Hz	ohm	ohm	V	ohm	°	A	V	#
	0	14	300046.9	618.751	-100.0473	1	626.7872	-9.184793	3.164489E-005	0.0007398	9
	1	21	238359.4	641.2217	-86.35313	1	647.0101	-7.66986	1.915551E-005	-0.0009552	9
	2	33	189328.1	655.0281	-71.0332	1	658.8683	-6.18914	8.437852E-005	-0.0024227	9
	3	42	150421.9	674.6403	-62.00608	1	677.4838	-5.251292	8.623757E-005	-0.0024423	9
	4	48	119484.4	693.2141	-53.95007	1	695.3103	-4.45013	2.54817E-005	0.0009459	9
	5	58	94921.88	705.1227	-23.50051	1	705.5142	-1.908862	1.677627E-005	-0.0022445	8
	6	60	75421.88	709.0406	-19.27901	1	709.3027	-1.557505	-1.276194E-005	0.0016972	8
	7	63	59859.37	714.8163	-17.57269	1	715.0322	-1.408248	-1.751784E-005	0.0055845	8
	8	65	47578.12	719.3679	-16.18223	1	719.5499	-1.288655	-1.679277E-005	0.0067447	8
	9	68	37828.12	723.6667	-12.52664	1	723.7751	-0.991689	-6.078432E-006	0.0064714	8
	10	71	30046.88	729.046	-11.86535	1	729.1425	-0.9324166	1.869079E-005	-0.00519	8
	11	74	23859.38	734.4413	-9.94638	1	734.5086	-0.7758969	9.393318E-006	-0.0057816	8
	12	76	18984.38	739.1913	-7.846671	1	739.2329	-0.6081839	4.331021E-006	-0.0046797	8
	13	79	15046.87	742.6509	-3.77243	1	742.6605	-0.2910418	-1.735025E-005	0.006914	8
	14	81	11953.13	747.1077	-6.08538	1	747.1324	-0.4666782	7.957683E-006	0.0024485	8
	15	84	9515.62	754.0426	-5.910533	1	754.0658	-0.4491015	8.95007E-006	-0.0056084	8
	16	86	7546.875	761.9401	-2.227139	1	761.9434	-0.1674742	-1.285225E-005	0.00164	8
	17	89	5928.309	761.65	-2.348202	1	761.6536	-0.1766449	-1.277592E-005	0.0015704	8
	18	92	4733.456	768.9629	-4.912418	1	768.9786	-0.3660216	-1.692451E-005	0.0044292	8
	19	94	3796.875	773.8751	-5.020433	1	773.8914	-0.3716951	-1.566365E-005	0.0030626	8
	20	97	2987.132	779.4756	-6.069175	1	779.4993	-0.446109	7.626787E-006	0.0024195	8
	21	99	2390.625	783.9214	-5.818154	1	783.943	-0.4252334	1.767917E-005	-0.0061774	8
	22	101	1884.191	784.1428	-6.686199	1	784.1713	-0.4885357	-1.178588E-005	0.0077205	8
	23	104	1516.544	793.7371	-7.918806	1	793.7766	-0.5715988	-1.571801E-005	0.0077385	8
	24	107	1193.986	800.9175	-12.09419	1	801.0088	-0.8651243	-2.600724E-006	-0.0027164	8
	25	110	946.5144	806.5023	-13.02336	1	806.6074	-0.9251289	-1.782823E-005	0.0071757	8
	26	112	751.7689	810.3983	-14.55472	1	810.5289	-1.028919	1.889893E-005	-0.0038727	8
	27	115	597.4265	818.0244	-17.07177	1	818.2025	-1.195562	-1.587582E-005	0.0031133	8
	28	118	477.4305	822.3464	-21.83372	1	822.6362	-1.520875	-3.755217E-008	0.0006441	8
	29	120	376.6741	827.8116	-27.02861	1	828.2528	-1.870082	-4.649275E-008	0.0006559	8
	30	122	298.2954	833.3721	-33.50051	1	834.0452	-2.301979	-6.212502E-008	0.0006604	8
	31	125	237.7717	839.2925	-41.33199	1	840.3096	-2.819323	-4.684536E-008	0.000647	8
	32	127	189.0121	845.459	-51.18264	1	847.0068	-3.464361	-8.761012E-008	0.0006633	8
	33	129	150.2404	851.8643	-63.46761	1	854.2253	-4.260913	-6.114413E-008	0.0006472	8
	34	132	119.1737	858.7056	-78.84985	1	862.3181	-5.24642	-5.719245E-008	0.0006486	8
	35	134	95.0169	865.9459	-97.4963	1	871.4172	-6.42384	-6.932632E-008	0.0006709	8
	36	137	75.60484	874.0201	-120.8433	1	882.3346	-7.871894	-6.339159E-008	0.0006517	8
	37	139	54.50582	884.5019	-164.2361	1	899.6205	-10.519	-8.400641E-008	0.0006462	8
	38	142	45.95588	893.158	-192.7134	1	913.712	-12.17584	-8.952195E-008	0.0006699	8
	39	144	37.20238	903.3649	-234.8886	1	933.4028	-14.57503	-8.729319E-009	0.0006417	8
	40	147	30.04808	915.4557	-286.6735	1	959.292	-17.38786	-1.046168E-007	0.0006617	8
	41	149	23.91582	929.5811	-354.5938	1	994.916	-20.87963	-1.267843E-007	0.0006506	8
	42	151	18.60119	948.0175	-448.0042	1	1048.544	-25.29399	3.254716E-008	0.000667	8
	43	154	15.02404	967.069	-544.7067	1	1109.923	-29.3906	-4.596165E-008	0.0006878	8
	44	156	12.01923	991.032	-668.3958	1	1195.365	-33.99746	-1.568641E-007	0.0006539	8
	45	159	9.450605	1021.672	-832.8052	1	1318.096	-39.18484	-1.086696E-008	0.0006435	8
	46	161	7.512019	1056.525	-1026.56	1	1473.116	-44.17587	-1.291387E-007	0.0006449	8
	47	164	5.978954	1099.949	-1262.44	1	1674.408	-48.93475	-1.110098E-007	0.0006603	8
	48	167	4.734848	1153.999	-1560.944	1	1941.201	-53.52466	-3.419671E-008	0.0006546	8
	49	170	3.75601	1217.446	-1925.672	1	2278.242	-57.69817	-7.047736E-008	0.0006442	8
	50	174	3.004808	1291.073	-2356.027	1	2686.583	-61.27782	-7.090998E-008	0.0006356	8
	51	177	2.372217	1387.27	-2914.752	1	3228.048	-64.54799	-6.853609E-008	0.0006795	8
	52	182	1.878005	1505.084	-3611.996	1	3913.028	-67.37898	-9.486461E-008	0.0006498	8
	53	186	1.512097	1633.367	-4403.245	1	4696.43	-69.64786	-2.011526E-008	0.0005734	7
	54	192	1.201923	1809.926	-5436.107	1	5729.494	-71.58507	-3.87648E-008	0.0006239	7
	55	198	0.956633	2014.065	-6687.096	1	6983.818	-73.2384	-3.521978E-008	-9.682794E-006	7
