EXPLAIN
TAG	EISPOT
TITLE	LABEL	Potentiostatic EIS	Test Identifier
DATE	LABEL	2/27/2021	Date
TIME	LABEL	22:06:31	Time
NOTES	NOTES	1	Notes...
	
PSTAT	PSTAT	REF3000-16137	Potentiostat
VDC	POTEN	0.00000E+000	T	DC Voltage (V)
FREQINIT	QUANT	3.00000E+005	Initial Freq. (Hz)
FREQFINAL	QUANT	1.00000E+000	Final Freq. (Hz)
PTSPERDEC	QUANT	1.00000E+001	Points/decade
VAC	QUANT	5.00000E+001	AC Voltage (mV rms)
AREA	QUANT	1.00000E+000	Sample Area (cm^2)
SPEED	SELECTOR	2	Optimize for:
ZGUESS	QUANT	1.00000E+003	Estimated Z (ohms)
EOC	QUANT	0	Open Circuit (V)
SEQUENCER	TOGGLE	TRUE	Run as Sequence
PSTATMODEL	IQUANT	5	Pstat Model
PSTATSECTION	LABEL	REF3000-16137	Pstat Section
PSTATSERIALNO	LABEL	16137	Pstat Serial Number
CTRLMODE	IQUANT	1	Control Mode
IESTAB	IQUANT	0	I/E Stability
CASPEED	IQUANT	1	Control Amp Speed
CONVENTION	IQUANT	1	Current Convention
ICHRANGE	IQUANT	2	Ich Range
ICHRANGEMODE	TOGGLE	F	Ich Auto Range
ICHOFFSETENABLE	TOGGLE	T	Ich Offset Enable
ICHOFFSET	QUANT	0	Ich Offset (V)
ICHFILTER	IQUANT	3	Ich Filter
VCHRANGE	IQUANT	2	Vch Range
VCHRANGEMODE	TOGGLE	F	Vch Auto Range
VCHOFFSETENABLE	TOGGLE	T	Vch Offset Enable
VCHOFFSET	QUANT	0	Vch Offset (V)
VCHFILTER	IQUANT	3	Vch Filter
ACHRANGE	IQUANT	2	Ach Range
ACHOFFSETENABLE	TOGGLE	F	Ach Offset Enable
ACHOFFSET	QUANT	0	Ach Offset (V)
ACHFILTER	IQUANT	3	Ach Filter
IERANGELOWERLIMIT	IQUANT	2	I/E Range Lower Limit
IERANGEMODE	TOGGLE	F	I/E AutoRange
IERANGE	IQUANT	11	I/E Range
POSFEEDENABLE	TOGGLE	F	Positive Feedback IR Comp
POSFEEDRESISTANCE	QUANT	0	Positive Feedback Resistance (ohm)
ACHSELECT	IQUANT	0	Ach Select
CABLEID	IQUANT	13	Cable ID
DCCALDATE	LABEL	7/31/2020	DC Calibration Date
ACCALDATE	LABEL	7/31/2020	AC Calibration Date
THERMOSELECT	IQUANT	1	Thermo Select
FRAMEWORKVERSION	QUANT	6.33	Framework Version
INSTRUMENTVERSION	LABEL	3.50	Instrument Version
COMPLIANCEVOLTAGE	IQUANT	0	Compliance Voltage
ZCURVE	TABLE
	Pt	Time	Freq	Zreal	Zimag	Zsig	Zmod	Zphz	Idc	Vdc	IERange
	#	s	Hz	ohm	ohm	V	ohm	°	A	V	#
	0	10	300046.9	4.914469	2.225723	1	5.394983	24.36539	2.368587E-005	0.0001027	10
	1	14	238359.4	4.873894	1.762397	1	5.182749	19.87996	8.837427E-006	-0.0001808	10
	2	17	189328.1	4.861655	1.397209	1	5.058447	16.03432	-0.0000972	0.0001244	10
	3	19	150421.9	4.844302	1.097084	1	4.966976	12.76047	-6.093336E-006	0.0002259	10
	4	22	119484.4	4.847197	0.8509006	1	4.921316	9.95654	-0.0001098	0.0004016	10
	5	24	94921.88	4.84936	0.666724	1	4.894978	7.828347	-1.222644E-005	0.0004941	10
	6	27	75421.88	4.849974	0.493169	1	4.874984	5.806157	2.837413E-005	0.000538	10
	7	29	59859.37	4.853627	0.3461421	1	4.865954	4.079209	-1.847976E-005	0.0006128	10
	8	32	47578.12	4.857388	0.2180324	1	4.862279	2.570097	-3.17284E-005	0.0006189	10
	9	34	37828.12	4.865659	0.1027851	1	4.866745	1.210171	-1.993907E-005	0.0006645	10
	10	37	30046.88	4.873468	-0.0062073	1	4.873472	-0.0729769	6.366173E-006	0.0006373	10
	11	40	23859.38	4.883365	-0.1130633	1	4.884674	-1.326317	-1.410988E-005	0.0007065	10
	12	42	18984.38	4.892234	-0.2233558	1	4.89733	-2.614033	1.729071E-005	0.0006606	10
	13	44	15046.87	4.904198	-0.3453119	1	4.916339	-4.027635	-2.552147E-005	0.0006841	10
	14	46	11953.13	4.917452	-0.4822816	1	4.941046	-5.601398	1.06171E-007	0.0006715	10
	15	49	9515.62	4.933813	-0.6410607	1	4.975286	-7.403086	2.192079E-005	0.0006781	10
	16	51	7546.875	4.953498	-0.8324377	1	5.022957	-9.53945	-2.269122E-005	0.0007205	10
	17	53	5928.309	4.976643	-1.075103	1	5.091445	-12.19026	2.281677E-005	0.0006818	10
	18	56	4733.456	5.005491	-1.352636	1	5.185032	-15.12188	-2.51035E-005	0.0007047	10
	19	58	3796.875	5.039602	-1.683797	1	5.313451	-18.47515	-1.616282E-005	0.000731	10
	20	60	2987.132	5.085319	-2.127766	1	5.512518	-22.70509	-1.124217E-005	0.0006874	10
	21	63	2390.625	5.140343	-2.635674	1	5.776669	-27.14615	1.282462E-005	0.0006601	10
	22	65	1884.191	5.212777	-3.310987	1	6.17541	-32.42239	1.390264E-005	0.0006917	10
	23	67	1516.544	5.298956	-4.068489	1	6.680684	-37.51672	-2.652139E-005	0.0007114	10
	24	70	1193.986	5.420014	-5.096615	1	7.439895	-43.23864	-4.242488E-006	0.0006726	10
	25	72	946.5144	5.568232	-6.338899	1	8.437229	-48.7032	-1.736592E-005	0.0007306	10
	26	74	751.7689	5.75535	-7.861352	1	9.74294	-53.79189	1.428194E-005	0.0006894	10
	27	77	597.4265	5.996592	-9.73996	1	11.43791	-58.38067	-2.557793E-005	0.0006955	10
	28	79	477.4305	6.289723	-11.98767	1	13.53754	-62.31479	-2.88361E-006	0.0006908	10
	29	81	376.6741	6.682026	-14.92474	1	16.35229	-65.88124	-2.714394E-006	0.000691	10
	30	84	298.2954	7.168046	-18.50479	1	19.8446	-68.82554	-2.34205E-006	0.0006896	10
	31	86	237.7717	7.756872	-22.79068	1	24.07455	-71.20385	-2.259818E-006	0.0006906	10
	32	88	189.0121	8.493823	-28.13489	1	29.38906	-73.20112	-2.488983E-006	0.0006933	10
	33	91	150.2404	9.397398	-34.71624	1	35.96566	-74.85349	-2.551198E-006	0.0006953	10
	34	93	119.1737	10.50295	-42.87219	1	44.13997	-76.23463	1.257086E-006	9.378429E-005	9
	35	96	95.0169	11.84603	-52.76777	1	54.0811	-77.34724	1.223559E-006	9.236296E-005	9
	36	98	75.60484	13.52129	-65.09928	1	66.48866	-78.26635	1.138583E-006	9.131352E-005	9
	37	101	54.50582	16.69596	-88.00505	1	89.5748	-79.25774	1.087666E-006	8.53664E-005	9
	38	103	45.95588	18.85829	-103.038	1	104.7496	-79.62837	1.217087E-006	0.0001053	9
	39	106	37.20238	22.20553	-125.2613	1	127.2143	-79.9474	1.22662E-006	0.0000954	9
	40	108	30.04808	26.51507	-152.5308	1	154.8183	-80.13858	1.079887E-006	0.0000987	9
	41	110	23.91582	32.63966	-188.3932	1	191.1998	-80.17091	1.029917E-006	9.185272E-005	9
	42	113	18.60119	41.78157	-237.3029	1	240.953	-80.01436	1.116473E-006	0.0000991	9
	43	115	15.02404	52.2823	-288.476	1	293.1755	-79.72744	1.328159E-006	9.268107E-005	9
	44	117	12.01923	66.9521	-353.3765	1	359.6631	-79.27168	1.201516E-006	9.232919E-005	9
	45	120	9.450605	87.94658	-437.3298	1	446.0852	-78.62954	5.433054E-007	0.0006718	8
	46	122	7.512019	116.0412	-536.5185	1	548.9241	-77.79573	5.622684E-007	0.0006632	8
	47	125	5.978954	153.5234	-655.9402	1	673.6668	-76.827	5.499847E-007	0.0006769	8
	48	128	4.734848	206.1669	-803.8156	1	829.8339	-75.61457	7.014008E-007	0.0006717	8
	49	131	3.75601	277.8468	-978.686	1	1017.362	-74.15087	6.092275E-007	0.0006718	8
	50	135	3.004808	371.2679	-1177.303	1	1234.456	-72.49709	7.588682E-007	0.0006284	8
	51	138	2.372217	505.5578	-1421.712	1	1508.925	-70.42472	6.229558E-007	0.0006352	8
	52	143	1.878005	690.5405	-1699.44	1	1834.378	-67.88641	5.895856E-007	0.0006684	8
	53	147	1.512097	913.4242	-1983.643	1	2183.846	-65.27496	6.595757E-007	0.0005608	8
	54	153	1.201923	1219.567	-2304.878	1	2607.644	-62.1156	6.133664E-007	0.0006814	8
	55	159	0.956633	1600.13	-2630.623	1	3079.057	-58.6891	5.243392E-007	2.35829E-005	8
