EXPLAIN
TAG	EISPOT
TITLE	LABEL	Potentiostatic EIS	Test Identifier
DATE	LABEL	2/27/2021	Date
TIME	LABEL	22:56:32	Time
NOTES	NOTES	1	Notes...
	
PSTAT	PSTAT	REF3000-16137	Potentiostat
VDC	POTEN	0.00000E+000	T	DC Voltage (V)
FREQINIT	QUANT	3.00000E+005	Initial Freq. (Hz)
FREQFINAL	QUANT	1.00000E+000	Final Freq. (Hz)
PTSPERDEC	QUANT	1.00000E+001	Points/decade
VAC	QUANT	5.00000E+001	AC Voltage (mV rms)
AREA	QUANT	1.00000E+000	Sample Area (cm^2)
SPEED	SELECTOR	2	Optimize for:
ZGUESS	QUANT	1.00000E+003	Estimated Z (ohms)
EOC	QUANT	0	Open Circuit (V)
SEQUENCER	TOGGLE	TRUE	Run as Sequence
PSTATMODEL	IQUANT	5	Pstat Model
PSTATSECTION	LABEL	REF3000-16137	Pstat Section
PSTATSERIALNO	LABEL	16137	Pstat Serial Number
CTRLMODE	IQUANT	1	Control Mode
IESTAB	IQUANT	0	I/E Stability
CASPEED	IQUANT	1	Control Amp Speed
CONVENTION	IQUANT	1	Current Convention
ICHRANGE	IQUANT	2	Ich Range
ICHRANGEMODE	TOGGLE	F	Ich Auto Range
ICHOFFSETENABLE	TOGGLE	T	Ich Offset Enable
ICHOFFSET	QUANT	0	Ich Offset (V)
ICHFILTER	IQUANT	3	Ich Filter
VCHRANGE	IQUANT	2	Vch Range
VCHRANGEMODE	TOGGLE	F	Vch Auto Range
VCHOFFSETENABLE	TOGGLE	T	Vch Offset Enable
VCHOFFSET	QUANT	0	Vch Offset (V)
VCHFILTER	IQUANT	3	Vch Filter
ACHRANGE	IQUANT	2	Ach Range
ACHOFFSETENABLE	TOGGLE	F	Ach Offset Enable
ACHOFFSET	QUANT	0	Ach Offset (V)
ACHFILTER	IQUANT	3	Ach Filter
IERANGELOWERLIMIT	IQUANT	2	I/E Range Lower Limit
IERANGEMODE	TOGGLE	F	I/E AutoRange
IERANGE	IQUANT	11	I/E Range
POSFEEDENABLE	TOGGLE	F	Positive Feedback IR Comp
POSFEEDRESISTANCE	QUANT	0	Positive Feedback Resistance (ohm)
ACHSELECT	IQUANT	0	Ach Select
CABLEID	IQUANT	13	Cable ID
DCCALDATE	LABEL	7/31/2020	DC Calibration Date
ACCALDATE	LABEL	7/31/2020	AC Calibration Date
THERMOSELECT	IQUANT	1	Thermo Select
FRAMEWORKVERSION	QUANT	6.33	Framework Version
INSTRUMENTVERSION	LABEL	3.50	Instrument Version
COMPLIANCEVOLTAGE	IQUANT	0	Compliance Voltage
ZCURVE	TABLE
	Pt	Time	Freq	Zreal	Zimag	Zsig	Zmod	Zphz	Idc	Vdc	IERange
	#	s	Hz	ohm	ohm	V	ohm	°	A	V	#
	0	7	300046.9	51.49431	2.333296	1	51.54715	2.594396	-6.1569E-006	0.0002175	9
	1	10	238359.4	51.7625	1.732035	1	51.79147	1.91647	1.010494E-005	-0.0013063	9
	2	13	189328.1	51.98463	1.357696	1	52.00236	1.496069	5.28495E-005	-0.0016264	9
	3	16	150421.9	52.1791	1.072655	1	52.19012	1.177673	-5.829438E-005	0.0014975	9
	4	18	119484.4	52.38557	0.7536385	1	52.39099	0.8242218	2.403296E-005	0.0001355	9
	5	21	94921.88	52.62783	0.7615497	1	52.63334	0.8290393	-8.484682E-006	1.676373E-005	9
	6	24	75421.88	52.78337	0.5425111	1	52.78616	0.5888693	1.602473E-005	-0.0001906	9
	7	26	59859.37	52.96104	0.3318153	1	52.96208	0.3589689	4.199751E-006	0.0003177	9
	8	29	47578.12	53.13818	0.1646564	1	53.13844	0.1775387	-1.358508E-005	0.0003441	9
	9	31	37828.12	53.34808	0.0109868	1	53.34808	0.0117998	-3.532229E-006	0.0005609	9
	10	34	30046.88	53.54923	-0.1326394	1	53.5494	-0.1419192	9.948162E-006	-0.0004531	9
	11	36	23859.38	53.7477	-0.2504987	1	53.74828	-0.2670331	-2.143193E-006	-0.000143	9
	12	39	18984.38	53.93332	-0.3801686	1	53.93466	-0.4038634	7.077932E-006	-0.0004023	9
	13	41	15046.87	54.10814	-0.5593001	1	54.11103	-0.5922288	1.483887E-005	-0.0005223	9
	14	43	11953.13	54.25885	-0.7000161	1	54.26337	-0.7391558	-1.617181E-005	0.0006543	9
	15	45	9515.62	54.49173	-0.9155759	1	54.49942	-0.962599	3.916714E-006	-0.0003148	9
	16	48	7546.875	54.69987	-1.138531	1	54.71172	-1.19239	1.094958E-005	0.0001473	9
	17	50	5928.309	54.89663	-1.456398	1	54.91594	-1.519691	-1.374412E-005	0.0006995	9
	18	52	4733.456	55.11483	-1.834516	1	55.14535	-1.906405	-4.111777E-006	0.000567	9
	19	55	3796.875	55.32663	-2.286419	1	55.37386	-2.366449	9.512271E-006	0.0001215	9
	20	57	2987.132	55.56669	-2.837132	1	55.63908	-2.922878	-1.609908E-005	0.0004729	9
	21	59	2390.625	55.78662	-3.512204	1	55.89708	-3.602463	1.882386E-005	-0.0005032	9
	22	62	1884.191	56.0299	-4.375489	1	56.20049	-4.465281	-1.634977E-005	0.0006711	9
	23	64	1516.544	56.32471	-5.427623	1	56.58562	-5.504202	3.295281E-006	0.0003635	9
	24	66	1193.986	56.63472	-6.802916	1	57.04183	-6.849505	2.979948E-006	0.0003729	9
	25	69	946.5144	56.99786	-8.463607	1	57.62281	-8.44613	1.898799E-005	-0.0005099	9
	26	71	751.7689	57.34832	-10.53184	1	58.30737	-10.40624	1.009E-005	-0.0004509	9
	27	73	597.4265	57.81742	-13.06816	1	59.27588	-12.73625	-1.690035E-005	0.0005753	9
	28	76	477.4305	58.2862	-16.17155	1	60.48801	-15.50672	1.408114E-006	8.814972E-005	9
	29	78	376.6741	58.89476	-20.22138	1	62.26955	-18.94979	1.334596E-006	8.864432E-005	9
	30	80	298.2954	59.61444	-25.18491	1	64.716	-22.90228	1.399956E-006	0.0000954	9
	31	83	237.7717	60.47855	-31.15747	1	68.03265	-27.25672	1.36556E-006	9.169861E-005	9
	32	85	189.0121	61.53979	-38.6202	1	72.65443	-32.11093	1.36772E-006	9.268096E-005	9
	33	88	150.2404	62.84496	-47.84311	1	78.98386	-37.28158	1.412087E-006	0.0000988	9
	34	90	119.1737	64.45752	-59.34156	1	87.61388	-42.63362	1.363032E-006	8.964384E-005	9
	35	92	95.0169	66.40775	-73.20619	1	98.8389	-47.78779	1.358476E-006	8.726806E-005	9
	36	95	75.60484	68.82821	-90.44479	1	113.6555	-52.72898	1.253649E-006	0.0001105	9
	37	97	54.50582	73.22191	-122.2993	1	142.5432	-59.09058	1.323488E-006	8.558125E-005	9
	38	100	45.95588	76.20232	-143.1357	1	162.1561	-61.97013	1.298879E-006	9.149329E-005	9
	39	102	37.20238	80.53772	-173.8219	1	191.5734	-65.14007	1.268121E-006	9.234883E-005	9
	40	105	30.04808	85.86927	-211.4967	1	228.2638	-67.90247	1.366452E-006	8.824727E-005	9
	41	107	23.91582	92.81428	-260.647	1	276.6791	-70.3996	1.330205E-006	8.157155E-005	9
	42	110	18.60119	102.2814	-328.1153	1	343.6876	-72.68649	1.47105E-006	8.123587E-005	9
	43	112	15.02404	112.044	-398.7243	1	414.1678	-74.30431	1.44531E-006	0.0000953	9
	44	114	12.01923	123.9388	-486.8409	1	502.3693	-75.71718	4.314712E-007	0.0006677	8
	45	117	9.450605	139.831	-606.4404	1	622.3525	-77.01586	3.630755E-007	0.0006684	8
	46	119	7.512019	158.3869	-748.4622	1	765.0372	-78.05155	4.043321E-007	0.0006755	8
	47	122	5.978954	180.1798	-922.653	1	940.0815	-78.9501	4.079854E-007	0.0006651	8
	48	125	4.734848	208.0453	-1144.568	1	1163.322	-79.69796	3.758773E-007	0.0006783	8
	49	128	3.75601	240.8563	-1417.088	1	1437.411	-80.35387	4.106306E-007	0.0006911	8
	50	132	3.004808	281.1387	-1740.803	1	1763.358	-80.82597	3.761667E-007	0.0006756	8
	51	135	2.372217	338.6321	-2166.479	1	2192.784	-81.11625	3.715933E-007	0.0006173	8
	52	140	1.878005	404.8354	-2695.856	1	2726.083	-81.45973	4.155438E-007	0.0006615	8
	53	144	1.512097	483.8199	-3287.839	1	3323.247	-81.62875	3.87598E-007	0.0006604	8
	54	150	1.201923	595.085	-4081.13	1	4124.288	-81.70395	4.190522E-007	0.0006872	8
	55	156	0.956633	738.5376	-5051.181	1	5104.887	-81.68168	3.144361E-008	-8.03749E-006	7
