EXPLAIN
TAG	EISPOT
TITLE	LABEL	Potentiostatic EIS	Test Identifier
DATE	LABEL	2/27/2021	Date
TIME	LABEL	23:07:33	Time
NOTES	NOTES	1	Notes...
	
PSTAT	PSTAT	REF3000-16137	Potentiostat
VDC	POTEN	0.00000E+000	T	DC Voltage (V)
FREQINIT	QUANT	3.00000E+005	Initial Freq. (Hz)
FREQFINAL	QUANT	1.00000E+000	Final Freq. (Hz)
PTSPERDEC	QUANT	1.00000E+001	Points/decade
VAC	QUANT	5.00000E+001	AC Voltage (mV rms)
AREA	QUANT	1.00000E+000	Sample Area (cm^2)
SPEED	SELECTOR	2	Optimize for:
ZGUESS	QUANT	1.00000E+003	Estimated Z (ohms)
EOC	QUANT	0	Open Circuit (V)
SEQUENCER	TOGGLE	TRUE	Run as Sequence
PSTATMODEL	IQUANT	5	Pstat Model
PSTATSECTION	LABEL	REF3000-16137	Pstat Section
PSTATSERIALNO	LABEL	16137	Pstat Serial Number
CTRLMODE	IQUANT	1	Control Mode
IESTAB	IQUANT	0	I/E Stability
CASPEED	IQUANT	1	Control Amp Speed
CONVENTION	IQUANT	1	Current Convention
ICHRANGE	IQUANT	2	Ich Range
ICHRANGEMODE	TOGGLE	F	Ich Auto Range
ICHOFFSETENABLE	TOGGLE	T	Ich Offset Enable
ICHOFFSET	QUANT	0	Ich Offset (V)
ICHFILTER	IQUANT	3	Ich Filter
VCHRANGE	IQUANT	2	Vch Range
VCHRANGEMODE	TOGGLE	F	Vch Auto Range
VCHOFFSETENABLE	TOGGLE	T	Vch Offset Enable
VCHOFFSET	QUANT	0	Vch Offset (V)
VCHFILTER	IQUANT	3	Vch Filter
ACHRANGE	IQUANT	2	Ach Range
ACHOFFSETENABLE	TOGGLE	F	Ach Offset Enable
ACHOFFSET	QUANT	0	Ach Offset (V)
ACHFILTER	IQUANT	3	Ach Filter
IERANGELOWERLIMIT	IQUANT	2	I/E Range Lower Limit
IERANGEMODE	TOGGLE	F	I/E AutoRange
IERANGE	IQUANT	11	I/E Range
POSFEEDENABLE	TOGGLE	F	Positive Feedback IR Comp
POSFEEDRESISTANCE	QUANT	0	Positive Feedback Resistance (ohm)
ACHSELECT	IQUANT	0	Ach Select
CABLEID	IQUANT	13	Cable ID
DCCALDATE	LABEL	7/31/2020	DC Calibration Date
ACCALDATE	LABEL	7/31/2020	AC Calibration Date
THERMOSELECT	IQUANT	1	Thermo Select
FRAMEWORKVERSION	QUANT	6.33	Framework Version
INSTRUMENTVERSION	LABEL	3.50	Instrument Version
COMPLIANCEVOLTAGE	IQUANT	0	Compliance Voltage
ZCURVE	TABLE
	Pt	Time	Freq	Zreal	Zimag	Zsig	Zmod	Zphz	Idc	Vdc	IERange
	#	s	Hz	ohm	ohm	V	ohm	°	A	V	#
	0	7	300046.9	143.1997	-1.276052	1	143.2054	-0.510549	-7.665125E-005	0.0029507	9
	1	10	238359.4	144.1958	-1.376047	1	144.2024	-0.5467516	7.825217E-005	-0.0024628	9
	2	13	189328.1	144.9518	-1.222124	1	144.957	-0.4830631	7.067465E-006	-0.0015808	9
	3	16	150421.9	145.5109	-1.34433	1	145.5171	-0.5293228	8.785892E-006	-0.0014184	9
	4	18	119484.4	146.7209	-1.081298	1	146.7248	-0.4222487	7.816769E-006	0.0011466	9
	5	22	94921.88	147.5972	-0.7730992	1	147.5992	-0.3001069	1.45603E-005	-0.0007384	9
	6	24	75421.88	148.3036	-0.8566512	1	148.3061	-0.3309558	1.469869E-005	-0.0007263	9
	7	27	59859.37	148.9963	-0.8119615	1	148.9985	-0.3122326	1.457663E-005	-0.0007312	9
	8	29	47578.12	149.79	-0.7676226	1	149.792	-0.2936187	-2.123343E-005	0.0006711	9
	9	32	37828.12	150.4019	-0.6945918	1	150.4035	-0.2646036	-2.175159E-005	0.0006801	9
	10	34	30046.88	151.2594	-0.728217	1	151.2612	-0.2758403	2.525693E-005	-0.0004181	9
	11	37	23859.38	151.7566	-0.8738416	1	151.7592	-0.3299156	2.597992E-005	-0.0007895	9
	12	39	18984.38	152.5052	-0.8767757	1	152.5078	-0.3293985	2.57615E-005	-0.000571	9
	13	42	15046.87	153.193	-0.968729	1	153.196	-0.36231	1.395121E-006	0.0005177	9
	14	44	11953.13	153.7832	-1.115627	1	153.7872	-0.4156476	-2.146474E-005	0.0008409	9
	15	46	9515.62	154.5695	-1.299393	1	154.575	-0.4816471	-9.554068E-006	-3.996996E-005	9
	16	48	7546.875	155.2791	-1.488151	1	155.2862	-0.5490898	1.127158E-005	0.0002918	9
	17	51	5928.309	156.0446	-1.906482	1	156.0562	-0.6999789	-9.553209E-006	-2.665801E-005	9
	18	53	4733.456	156.5927	-2.012225	1	156.6056	-0.7362133	-7.017165E-006	0.0007975	9
	19	55	3796.875	157.2479	-2.860067	1	157.2739	-1.041996	2.594008E-005	-0.0005544	9
	20	58	2987.132	158.2193	-3.313849	1	158.254	-1.199865	1.336453E-006	0.0005666	9
	21	60	2390.625	158.8049	-4.048939	1	158.8565	-1.460515	2.526685E-005	-0.0004187	9
	22	62	1884.191	159.5041	-5.256223	1	159.5907	-1.887415	1.4782E-005	-0.0007165	9
	23	65	1516.544	160.2753	-6.063346	1	160.39	-2.166513	7.190977E-006	-0.0005572	9
	24	67	1193.986	161.264	-7.612512	1	161.4436	-2.702656	-1.439186E-005	0.0009052	9
	25	70	946.5144	161.9816	-9.393317	1	162.2537	-3.318868	-1.512947E-005	0.0001553	9
	26	72	751.7689	163.1448	-11.90405	1	163.5786	-4.173256	-1.446286E-005	0.0001494	9
	27	74	597.4265	163.9956	-14.63206	1	164.6471	-5.098559	2.079308E-005	-0.0007506	9
	28	77	477.4305	164.9855	-18.05845	1	165.9708	-6.246433	1.26429E-006	7.979932E-005	9
	29	79	376.6741	166.139	-22.57799	1	167.6661	-7.738986	1.301179E-006	7.880075E-005	9
	30	81	298.2954	167.3999	-28.1214	1	169.7455	-9.53604	1.300138E-006	8.618784E-005	9
	31	83	237.7717	168.8279	-34.816	1	172.3805	-11.65229	1.286382E-006	8.275914E-005	9
	32	86	189.0121	170.4565	-43.21237	1	175.8486	-14.22535	1.29185E-006	8.109904E-005	9
	33	88	150.2404	172.3619	-53.6117	1	180.5072	-17.27786	1.228183E-006	8.660668E-005	9
	34	91	119.1737	174.6064	-66.61131	1	186.8809	-20.88156	1.228378E-006	9.159701E-005	9
	35	93	95.0169	177.2585	-82.3199	1	195.4408	-24.91044	1.227568E-006	8.376932E-005	9
	36	96	75.60484	180.4958	-101.8396	1	207.2439	-29.43262	1.193576E-006	8.396258E-005	9
	37	98	54.50582	185.9894	-137.897	1	231.5332	-36.55412	1.227985E-006	8.088417E-005	9
	38	101	45.95588	189.9024	-161.4312	1	249.2448	-40.36701	1.251383E-006	8.287643E-005	9
	39	103	37.20238	195.3361	-196.1388	1	276.8152	-45.11749	1.271878E-006	9.272958E-005	9
	40	105	30.04808	201.9385	-238.6628	1	312.6325	-49.76461	1.247052E-006	9.066296E-005	9
	41	108	23.91582	210.4091	-294.2408	1	361.7315	-54.43176	1.256544E-006	8.194667E-005	9
	42	110	18.60119	220.7767	-368.8104	1	429.8412	-59.09449	7.445534E-008	0.0006678	8
	43	113	15.02404	232.686	-448.4916	1	505.2598	-62.57885	8.854296E-008	0.0006614	8
	44	115	12.01923	247.8182	-549.9034	1	603.1647	-65.74092	1.948498E-007	0.0006604	8
	45	117	9.450605	267.8882	-685.0215	1	735.5397	-68.64126	1.405351E-007	0.0006502	8
	46	120	7.512019	291.4603	-844.5286	1	893.4078	-70.95963	1.298823E-007	0.0006463	8
	47	123	5.978954	319.9089	-1039.914	1	1088.008	-72.90052	1.528505E-007	0.0006457	8
	48	126	4.734848	356.0595	-1286.316	1	1334.686	-74.52761	1.397045E-007	0.0006441	8
	49	129	3.75601	398.6131	-1588.983	1	1638.218	-75.91736	1.620356E-007	0.0006551	8
	50	132	3.004808	448.0261	-1946.571	1	1997.465	-77.03844	1.581202E-007	0.0006232	8
	51	136	2.372217	510.4207	-2416.428	1	2469.747	-78.07277	1.5799E-007	0.0005871	8
	52	140	1.878005	587.5461	-2993.415	1	3050.531	-78.89518	1.524442E-007	0.0006665	8
	53	145	1.512097	673.1504	-3654.51	1	3715.989	-79.56326	1.505812E-007	0.0005505	8
	54	150	1.201923	784.1888	-4529.533	1	4596.914	-80.17786	2.720239E-009	0.0006489	7
	55	157	0.956633	915.6924	-5595.414	1	5669.846	-80.7059	1.649008E-009	-9.102033E-006	7
