EXPLAIN
TAG	EISPOT
TITLE	LABEL	Potentiostatic EIS	Test Identifier
DATE	LABEL	2/27/2021	Date
TIME	LABEL	22:28:49	Time
NOTES	NOTES	1	Notes...
	
PSTAT	PSTAT	REF3000-16137	Potentiostat
VDC	POTEN	0.00000E+000	T	DC Voltage (V)
FREQINIT	QUANT	3.00000E+005	Initial Freq. (Hz)
FREQFINAL	QUANT	1.00000E+000	Final Freq. (Hz)
PTSPERDEC	QUANT	1.00000E+001	Points/decade
VAC	QUANT	5.00000E+001	AC Voltage (mV rms)
AREA	QUANT	1.00000E+000	Sample Area (cm^2)
SPEED	SELECTOR	2	Optimize for:
ZGUESS	QUANT	1.00000E+003	Estimated Z (ohms)
EOC	QUANT	0	Open Circuit (V)
SEQUENCER	TOGGLE	TRUE	Run as Sequence
PSTATMODEL	IQUANT	5	Pstat Model
PSTATSECTION	LABEL	REF3000-16137	Pstat Section
PSTATSERIALNO	LABEL	16137	Pstat Serial Number
CTRLMODE	IQUANT	1	Control Mode
IESTAB	IQUANT	0	I/E Stability
CASPEED	IQUANT	1	Control Amp Speed
CONVENTION	IQUANT	1	Current Convention
ICHRANGE	IQUANT	2	Ich Range
ICHRANGEMODE	TOGGLE	F	Ich Auto Range
ICHOFFSETENABLE	TOGGLE	T	Ich Offset Enable
ICHOFFSET	QUANT	0	Ich Offset (V)
ICHFILTER	IQUANT	3	Ich Filter
VCHRANGE	IQUANT	2	Vch Range
VCHRANGEMODE	TOGGLE	F	Vch Auto Range
VCHOFFSETENABLE	TOGGLE	T	Vch Offset Enable
VCHOFFSET	QUANT	0	Vch Offset (V)
VCHFILTER	IQUANT	3	Vch Filter
ACHRANGE	IQUANT	2	Ach Range
ACHOFFSETENABLE	TOGGLE	F	Ach Offset Enable
ACHOFFSET	QUANT	0	Ach Offset (V)
ACHFILTER	IQUANT	3	Ach Filter
IERANGELOWERLIMIT	IQUANT	2	I/E Range Lower Limit
IERANGEMODE	TOGGLE	F	I/E AutoRange
IERANGE	IQUANT	11	I/E Range
POSFEEDENABLE	TOGGLE	F	Positive Feedback IR Comp
POSFEEDRESISTANCE	QUANT	0	Positive Feedback Resistance (ohm)
ACHSELECT	IQUANT	0	Ach Select
CABLEID	IQUANT	13	Cable ID
DCCALDATE	LABEL	7/31/2020	DC Calibration Date
ACCALDATE	LABEL	7/31/2020	AC Calibration Date
THERMOSELECT	IQUANT	1	Thermo Select
FRAMEWORKVERSION	QUANT	6.33	Framework Version
INSTRUMENTVERSION	LABEL	3.50	Instrument Version
COMPLIANCEVOLTAGE	IQUANT	0	Compliance Voltage
ZCURVE	TABLE
	Pt	Time	Freq	Zreal	Zimag	Zsig	Zmod	Zphz	Idc	Vdc	IERange
	#	s	Hz	ohm	ohm	V	ohm	°	A	V	#
	0	7	300046.9	10.01642	2.144407	1	10.24339	12.08399	4.435335E-005	0.0001883	10
	1	11	238359.4	10.02262	1.713967	1	10.16812	9.70427	4.635333E-005	0.000271	10
	2	14	189328.1	10.02246	1.354832	1	10.11362	7.69855	-1.510685E-005	0.0003714	10
	3	16	150421.9	10.04063	1.051686	1	10.09556	5.979532	-3.926743E-006	0.0004129	10
	4	19	119484.4	10.043	0.8180762	1	10.07626	4.656883	-4.786123E-006	0.000471	10
	5	21	94921.88	10.05522	0.6420612	1	10.0757	3.653577	-2.555869E-006	0.0005868	10
	6	24	75421.88	10.06902	0.4665007	1	10.07982	2.652633	-1.148834E-005	0.0006686	10
	7	26	59859.37	10.08754	0.3144772	1	10.09244	1.785607	-2.870414E-005	0.0006338	10
	8	29	47578.12	10.11009	0.1849617	1	10.11178	1.048096	-1.72949E-005	0.0007037	10
	9	32	37828.12	10.13021	0.0692266	1	10.13045	0.3915347	-7.841762E-006	0.0006375	10
	10	34	30046.88	10.15442	-0.0416658	1	10.1545	-0.2350959	-2.422447E-005	0.0006634	10
	11	37	23859.38	10.17669	-0.152436	1	10.17783	-0.8581658	-1.244767E-005	0.0006473	10
	12	39	18984.38	10.19971	-0.2688595	1	10.20325	-1.509941	-2.698009E-005	0.0006618	10
	13	41	15046.87	10.22506	-0.3993137	1	10.23286	-2.236404	-1.939007E-005	0.000655	10
	14	44	11953.13	10.25215	-0.5464177	1	10.26671	-3.050854	-4.213966E-006	0.0007152	10
	15	46	9515.62	10.28117	-0.7192522	1	10.3063	-4.001791	8.897439E-006	0.00064	10
	16	48	7546.875	10.31425	-0.9292061	1	10.35602	-5.147853	1.829826E-005	0.0006459	10
	17	50	5928.309	10.35201	-1.194739	1	10.42073	-6.583455	-2.146571E-005	0.0007043	10
	18	53	4733.456	10.39377	-1.49892	1	10.5013	-8.206237	-2.594271E-005	0.0007009	10
	19	55	3796.875	10.4395	-1.861238	1	10.60412	-10.10894	2.289784E-005	0.0006494	10
	20	57	2987.132	10.49813	-2.354563	1	10.75894	-12.64133	4.685242E-006	0.0006911	10
	21	60	2390.625	10.56513	-2.918765	1	10.96089	-15.44356	2.225489E-005	0.0006942	10
	22	62	1884.191	10.6513	-3.666123	1	11.26457	-18.99321	1.224868E-005	0.000632	10
	23	64	1516.544	10.74814	-4.510727	1	11.65629	-22.76658	-2.755746E-005	0.0006974	10
	24	67	1193.986	10.87851	-5.661826	1	12.2637	-27.49515	-2.128556E-005	0.0007059	10
	25	69	946.5144	11.03971	-7.055739	1	13.10185	-32.58361	-1.307736E-005	0.0006541	10
	26	71	751.7689	11.2443	-8.760726	1	14.25428	-37.92308	-2.427489E-005	0.0006897	10
	27	74	597.4265	11.49723	-10.87419	1	15.82512	-43.40474	4.649336E-006	0.0006843	10
	28	76	477.4305	11.8099	-13.40703	1	17.86679	-48.62402	-2.631926E-006	0.000683	10
	29	78	376.6741	12.22667	-16.72354	1	20.71638	-53.82925	-2.943586E-006	0.0006799	10
	30	81	298.2954	12.74666	-20.77599	1	24.37456	-58.4697	-2.319538E-006	0.0006823	10
	31	83	237.7717	13.38485	-25.64031	1	28.92369	-62.43438	-1.957308E-006	0.0006791	10
	32	85	189.0121	14.19011	-31.70157	1	34.73253	-65.88598	-2.154147E-006	0.0006801	10
	33	88	150.2404	15.1932	-39.16958	1	42.01296	-68.7996	-2.095185E-006	0.000683	10
	34	90	119.1737	16.43112	-48.41013	1	51.12262	-71.25202	1.308645E-006	8.295448E-005	9
	35	93	95.0169	17.9371	-59.58974	1	62.23083	-73.24769	1.255637E-006	8.563841E-005	9
	36	95	75.60484	19.78987	-73.47226	1	76.09081	-74.92506	1.25123E-006	7.616535E-005	9
	37	98	54.50582	23.14017	-99.16	1	101.8242	-76.86443	1.271248E-006	7.421429E-005	9
	38	100	45.95588	25.31048	-115.9855	1	118.7151	-77.68984	1.366374E-006	8.109499E-005	9
	39	103	37.20238	28.46614	-140.8766	1	143.7239	-78.57639	1.2897E-006	8.746604E-005	9
	40	105	30.04808	32.33616	-171.5216	1	174.5431	-79.32361	1.321991E-006	7.667189E-005	9
	41	107	23.91582	37.46453	-211.8594	1	215.1464	-79.97167	1.250681E-006	8.080601E-005	9
	42	110	18.60119	44.68999	-267.3564	1	271.0657	-80.51045	1.179359E-006	8.033709E-005	9
	43	112	15.02404	52.5968	-325.9727	1	330.1887	-80.83413	1.429674E-006	0.0000954	9
	44	114	12.01923	63.33289	-400.8523	1	405.8246	-81.02174	1.240275E-006	8.016786E-005	9
	45	117	9.450605	77.94424	-498.6313	1	504.6865	-81.11563	6.102526E-007	0.0006712	8
	46	119	7.512019	96.6715	-616.6465	1	624.1781	-81.09027	6.350948E-007	0.000672	8
	47	122	5.978954	121.1777	-760.2908	1	769.8871	-80.94418	6.293312E-007	0.0006576	8
	48	125	4.734848	153.9808	-941.3759	1	953.886	-80.7104	6.803724E-007	0.0006878	8
	49	128	3.75601	197.2621	-1162.586	1	1179.203	-80.37004	6.045229E-007	0.0006442	8
	50	132	3.004808	252.0568	-1422.48	1	1444.64	-79.95176	6.49209E-007	0.0006449	8
	51	135	2.372217	329.0986	-1758.041	1	1788.579	-79.39716	6.746413E-007	0.0006365	8
	52	140	1.878005	434.154	-2170.739	1	2213.729	-78.68991	6.153826E-007	0.0006637	8
	53	144	1.512097	558.6229	-2633.234	1	2691.836	-78.02266	6.426479E-007	0.0005586	8
	54	150	1.201923	741.096	-3228.284	1	3312.256	-77.07099	6.281859E-007	0.0006671	8
	55	156	0.956633	982.602	-3939.74	1	4060.426	-75.9957	6.028997E-007	1.842679E-005	8
