EXPLAIN
TAG	EISPOT
TITLE	LABEL	Potentiostatic EIS	Test Identifier
DATE	LABEL	2/27/2021	Date
TIME	LABEL	22:00:55	Time
NOTES	NOTES	1	Notes...
	
PSTAT	PSTAT	REF3000-16137	Potentiostat
VDC	POTEN	0.00000E+000	T	DC Voltage (V)
FREQINIT	QUANT	3.00000E+005	Initial Freq. (Hz)
FREQFINAL	QUANT	1.00000E+000	Final Freq. (Hz)
PTSPERDEC	QUANT	1.00000E+001	Points/decade
VAC	QUANT	5.00000E+001	AC Voltage (mV rms)
AREA	QUANT	1.00000E+000	Sample Area (cm^2)
SPEED	SELECTOR	2	Optimize for:
ZGUESS	QUANT	1.00000E+003	Estimated Z (ohms)
EOC	QUANT	0	Open Circuit (V)
SEQUENCER	TOGGLE	TRUE	Run as Sequence
PSTATMODEL	IQUANT	5	Pstat Model
PSTATSECTION	LABEL	REF3000-16137	Pstat Section
PSTATSERIALNO	LABEL	16137	Pstat Serial Number
CTRLMODE	IQUANT	1	Control Mode
IESTAB	IQUANT	0	I/E Stability
CASPEED	IQUANT	1	Control Amp Speed
CONVENTION	IQUANT	1	Current Convention
ICHRANGE	IQUANT	2	Ich Range
ICHRANGEMODE	TOGGLE	F	Ich Auto Range
ICHOFFSETENABLE	TOGGLE	T	Ich Offset Enable
ICHOFFSET	QUANT	0	Ich Offset (V)
ICHFILTER	IQUANT	3	Ich Filter
VCHRANGE	IQUANT	2	Vch Range
VCHRANGEMODE	TOGGLE	F	Vch Auto Range
VCHOFFSETENABLE	TOGGLE	T	Vch Offset Enable
VCHOFFSET	QUANT	0	Vch Offset (V)
VCHFILTER	IQUANT	3	Vch Filter
ACHRANGE	IQUANT	2	Ach Range
ACHOFFSETENABLE	TOGGLE	F	Ach Offset Enable
ACHOFFSET	QUANT	0	Ach Offset (V)
ACHFILTER	IQUANT	3	Ach Filter
IERANGELOWERLIMIT	IQUANT	2	I/E Range Lower Limit
IERANGEMODE	TOGGLE	F	I/E AutoRange
IERANGE	IQUANT	11	I/E Range
POSFEEDENABLE	TOGGLE	F	Positive Feedback IR Comp
POSFEEDRESISTANCE	QUANT	0	Positive Feedback Resistance (ohm)
ACHSELECT	IQUANT	0	Ach Select
CABLEID	IQUANT	13	Cable ID
DCCALDATE	LABEL	7/31/2020	DC Calibration Date
ACCALDATE	LABEL	7/31/2020	AC Calibration Date
THERMOSELECT	IQUANT	1	Thermo Select
FRAMEWORKVERSION	QUANT	6.33	Framework Version
INSTRUMENTVERSION	LABEL	3.50	Instrument Version
COMPLIANCEVOLTAGE	IQUANT	0	Compliance Voltage
ZCURVE	TABLE
	Pt	Time	Freq	Zreal	Zimag	Zsig	Zmod	Zphz	Idc	Vdc	IERange
	#	s	Hz	ohm	ohm	V	ohm	°	A	V	#
	0	10	300046.9	4.315989	2.244853	1	4.864888	27.48006	-0.0001132	2.448825E-005	10
	1	13	238359.4	4.299227	1.772598	1	4.650318	22.40666	1.164366E-005	-0.0002838	10
	2	16	189328.1	4.27941	1.403156	1	4.503576	18.15356	6.935775E-006	1.540977E-005	10
	3	19	150421.9	4.259706	1.103911	1	4.400422	14.52869	3.855765E-005	0.0002324	10
	4	21	119484.4	4.26219	0.8539069	1	4.346886	11.32892	-2.031325E-005	0.0003413	10
	5	24	94921.88	4.261272	0.6664833	1	4.313077	8.889316	1.300981E-005	0.000467	10
	6	27	75421.88	4.259468	0.4949959	1	4.288134	6.628651	-2.071044E-005	0.000515	10
	7	29	59859.37	4.261405	0.3482748	1	4.275614	4.672267	-1.532499E-005	0.0005706	10
	8	32	47578.12	4.266109	0.2223454	1	4.271899	2.983501	2.518653E-005	0.0006064	10
	9	34	37828.12	4.271381	0.108045	1	4.272747	1.448993	2.134278E-005	0.0006177	10
	10	37	30046.88	4.278504	6.32472E-005	1	4.278504	0.000847	1.660569E-005	0.0006641	10
	11	39	23859.38	4.285948	-0.1061662	1	4.287263	-1.41897	-1.853217E-005	0.000654	10
	12	42	18984.38	4.295855	-0.2146398	1	4.301214	-2.86037	-1.708933E-005	0.0007089	10
	13	44	15046.87	4.305708	-0.3349596	1	4.318718	-4.448326	1.237076E-005	0.0006502	10
	14	46	11953.13	4.318165	-0.4694871	1	4.343613	-6.205039	-1.942105E-006	0.0006691	10
	15	49	9515.62	4.332182	-0.625271	1	4.377072	-8.212879	2.037326E-005	0.0006606	10
	16	51	7546.875	4.350841	-0.8131722	1	4.42618	-10.58644	-9.134493E-006	0.0006823	10
	17	53	5928.309	4.373494	-1.051537	1	4.49813	-13.51925	-2.463633E-005	0.0006895	10
	18	55	4733.456	4.400124	-1.322922	1	4.594694	-16.73369	4.337037E-006	0.0006892	10
	19	58	3796.875	4.433275	-1.647409	1	4.729469	-20.38511	1.375569E-006	0.0006531	10
	20	60	2987.132	4.478771	-2.080566	1	4.938436	-24.91673	-1.752756E-005	0.0006851	10
	21	62	2390.625	4.531375	-2.579296	1	5.214032	-29.64888	-3.21858E-005	0.0006821	10
	22	65	1884.191	4.604383	-3.235328	1	5.627405	-35.09428	3.916783E-006	0.0006585	10
	23	67	1516.544	4.689017	-3.975021	1	6.147168	-40.28895	-6.10042E-006	0.0006974	10
	24	69	1193.986	4.807114	-4.977556	1	6.919856	-45.99795	1.85625E-005	0.0006818	10
	25	72	946.5144	4.954983	-6.188888	1	7.928063	-51.31834	-1.945324E-005	0.0006903	10
	26	74	751.7689	5.143981	-7.670724	1	9.23583	-56.15423	-1.184438E-005	0.0006825	10
	27	77	597.4265	5.378394	-9.498551	1	10.91557	-60.48003	-2.392338E-005	0.0007009	10
	28	79	477.4305	5.670908	-11.68996	1	12.99286	-64.12154	-2.214379E-006	0.0006905	10
	29	81	376.6741	6.05941	-14.54798	1	15.75945	-67.38768	-2.180551E-006	0.0006894	10
	30	83	298.2954	6.54047	-18.031	1	19.18059	-70.06254	-2.063419E-006	0.0006896	10
	31	86	237.7717	7.121207	-22.19953	1	23.31375	-72.2147	-2.378684E-006	0.0006887	10
	32	88	189.0121	7.845814	-27.39208	1	28.49356	-74.01689	-2.749183E-006	0.0006906	10
	33	91	150.2404	8.739741	-33.80199	1	34.91357	-75.50325	-2.683928E-006	0.0006923	10
	34	93	119.1737	9.83741	-41.74281	1	42.88632	-76.73923	1.320656E-006	9.063976E-005	9
	35	95	95.0169	11.17937	-51.38239	1	52.58449	-77.72533	1.116023E-006	8.367428E-005	9
	36	98	75.60484	12.87478	-63.39808	1	64.69216	-78.52057	1.084915E-006	8.511079E-005	9
	37	100	54.50582	16.1487	-85.71659	1	87.22451	-79.33073	1.04265E-006	8.144027E-005	9
	38	103	45.95588	18.40739	-100.3348	1	102.0094	-79.60414	1.185685E-006	9.380567E-005	9
	39	105	37.20238	21.9412	-121.9137	1	123.8724	-79.79752	1.146451E-006	8.938028E-005	9
	40	108	30.04808	26.61754	-148.5219	1	150.8882	-79.83952	1.219523E-006	7.985548E-005	9
	41	110	23.91582	33.18715	-182.9991	1	185.9841	-79.72105	1.107255E-006	8.158727E-005	9
	42	113	18.60119	43.26244	-230.451	1	234.4766	-79.36765	1.275445E-006	8.408741E-005	9
	43	115	15.02404	54.91535	-279.6972	1	285.0372	-78.89192	1.410589E-006	9.223826E-005	9
	44	117	12.01923	71.24466	-341.9422	1	349.2854	-78.23064	1.131325E-006	7.964698E-005	9
	45	120	9.450605	95.4192	-423.3346	1	433.955	-77.29786	1.208726E-006	0.0000989	9
	46	122	7.512019	126.688	-515.7283	1	531.0607	-76.19863	5.583753E-007	0.0006769	8
	47	125	5.978954	169.515	-627.1897	1	649.694	-74.87563	5.998522E-007	0.0006715	8
	48	128	4.734848	229.3448	-762.925	1	796.6516	-73.26856	7.821387E-007	0.0006994	8
	49	131	3.75601	310.9425	-920.9501	1	972.026	-71.34366	5.44532E-007	0.0006556	8
	50	135	3.004808	416.2621	-1095.541	1	1171.957	-69.19519	6.162233E-007	0.0006648	8
	51	138	2.372217	567.7649	-1301.812	1	1420.237	-66.43633	5.97122E-007	0.0007195	8
	52	142	1.878005	762.9135	-1527.446	1	1707.375	-63.45924	4.863413E-007	0.00065	8
	53	147	1.512097	989.045	-1741.578	1	2002.824	-60.40769	5.529173E-007	0.0006341	8
	54	153	1.201923	1292.545	-1968.51	1	2354.931	-56.71066	5.570934E-007	0.0006429	8
	55	159	0.956633	1645.442	-2175.705	1	2727.851	-52.90051	4.231789E-007	2.599955E-005	8
