EXPLAIN
TAG	EISPOT
TITLE	LABEL	Potentiostatic EIS	Test Identifier
DATE	LABEL	2/27/2021	Date
TIME	LABEL	22:42:39	Time
NOTES	NOTES	1	Notes...
	
PSTAT	PSTAT	REF3000-16137	Potentiostat
VDC	POTEN	0.00000E+000	T	DC Voltage (V)
FREQINIT	QUANT	3.00000E+005	Initial Freq. (Hz)
FREQFINAL	QUANT	1.00000E+000	Final Freq. (Hz)
PTSPERDEC	QUANT	1.00000E+001	Points/decade
VAC	QUANT	5.00000E+001	AC Voltage (mV rms)
AREA	QUANT	1.00000E+000	Sample Area (cm^2)
SPEED	SELECTOR	2	Optimize for:
ZGUESS	QUANT	1.00000E+003	Estimated Z (ohms)
EOC	QUANT	0	Open Circuit (V)
SEQUENCER	TOGGLE	TRUE	Run as Sequence
PSTATMODEL	IQUANT	5	Pstat Model
PSTATSECTION	LABEL	REF3000-16137	Pstat Section
PSTATSERIALNO	LABEL	16137	Pstat Serial Number
CTRLMODE	IQUANT	1	Control Mode
IESTAB	IQUANT	0	I/E Stability
CASPEED	IQUANT	1	Control Amp Speed
CONVENTION	IQUANT	1	Current Convention
ICHRANGE	IQUANT	2	Ich Range
ICHRANGEMODE	TOGGLE	F	Ich Auto Range
ICHOFFSETENABLE	TOGGLE	T	Ich Offset Enable
ICHOFFSET	QUANT	0	Ich Offset (V)
ICHFILTER	IQUANT	3	Ich Filter
VCHRANGE	IQUANT	2	Vch Range
VCHRANGEMODE	TOGGLE	F	Vch Auto Range
VCHOFFSETENABLE	TOGGLE	T	Vch Offset Enable
VCHOFFSET	QUANT	0	Vch Offset (V)
VCHFILTER	IQUANT	3	Vch Filter
ACHRANGE	IQUANT	2	Ach Range
ACHOFFSETENABLE	TOGGLE	F	Ach Offset Enable
ACHOFFSET	QUANT	0	Ach Offset (V)
ACHFILTER	IQUANT	3	Ach Filter
IERANGELOWERLIMIT	IQUANT	2	I/E Range Lower Limit
IERANGEMODE	TOGGLE	F	I/E AutoRange
IERANGE	IQUANT	11	I/E Range
POSFEEDENABLE	TOGGLE	F	Positive Feedback IR Comp
POSFEEDRESISTANCE	QUANT	0	Positive Feedback Resistance (ohm)
ACHSELECT	IQUANT	0	Ach Select
CABLEID	IQUANT	13	Cable ID
DCCALDATE	LABEL	7/31/2020	DC Calibration Date
ACCALDATE	LABEL	7/31/2020	AC Calibration Date
THERMOSELECT	IQUANT	1	Thermo Select
FRAMEWORKVERSION	QUANT	6.33	Framework Version
INSTRUMENTVERSION	LABEL	3.50	Instrument Version
COMPLIANCEVOLTAGE	IQUANT	0	Compliance Voltage
ZCURVE	TABLE
	Pt	Time	Freq	Zreal	Zimag	Zsig	Zmod	Zphz	Idc	Vdc	IERange
	#	s	Hz	ohm	ohm	V	ohm	°	A	V	#
	0	8	300046.9	19.82454	1.993598	1	19.92453	5.742481	-1.013218E-006	0.0004094	10
	1	11	238359.4	19.88995	1.577772	1	19.95243	4.535494	2.369031E-005	0.0004997	10
	2	14	189328.1	19.93441	1.240732	1	19.97298	3.561538	-2.695719E-005	0.0004487	10
	3	17	150421.9	19.96768	0.975843	1	19.99151	2.797882	-1.984623E-005	0.0005922	10
	4	19	119484.4	20.02772	0.7436553	1	20.04152	2.12649	-3.525674E-005	0.0005509	10
	5	22	94921.88	20.06878	0.5701563	1	20.07687	1.627342	6.611315E-006	0.0006997	10
	6	25	75421.88	20.12195	0.4016413	1	20.12596	1.143492	-2.084389E-005	0.0006661	10
	7	27	59859.37	20.17545	0.2580718	1	20.1771	0.7328521	4.980203E-006	0.0006128	10
	8	30	47578.12	20.23479	0.1329546	1	20.23523	0.3764618	-1.992598E-005	0.0006785	10
	9	32	37828.12	20.28817	0.0251469	1	20.28819	0.0710173	-1.220785E-005	0.000653	10
	10	35	30046.88	20.34491	-0.0866953	1	20.34509	-0.2441516	5.999657E-006	0.0006266	10
	11	37	23859.38	20.39908	-0.2016743	1	20.40008	-0.5664328	1.82475E-005	0.0006585	10
	12	40	18984.38	20.45549	-0.3207186	1	20.45801	-0.8982585	-3.346941E-005	0.0006709	10
	13	42	15046.87	20.51365	-0.4576731	1	20.51876	-1.278094	-1.734649E-005	0.0006514	10
	14	44	11953.13	20.56942	-0.6120541	1	20.57852	-1.704364	-2.271929E-006	0.000645	10
	15	46	9515.62	20.63491	-0.7950159	1	20.65022	-2.206384	-2.458105E-005	0.0007467	10
	16	49	7546.875	20.7033	-1.022052	1	20.72851	-2.826204	2.254559E-005	0.0006457	10
	17	51	5928.309	20.77292	-1.305297	1	20.81389	-3.595538	2.033014E-005	0.0006824	10
	18	53	4733.456	20.8448	-1.631851	1	20.90858	-4.476315	2.323539E-005	0.000672	10
	19	56	3796.875	20.92739	-2.027192	1	21.02534	-5.532859	5.12201E-006	0.0006398	10
	20	58	2987.132	21.01969	-2.554455	1	21.17434	-6.928993	1.514932E-005	0.0006905	10
	21	60	2390.625	21.11727	-3.154913	1	21.35164	-8.497124	-1.597626E-005	0.0006848	10
	22	63	1884.191	21.24255	-3.977067	1	21.61164	-10.60425	-2.217731E-005	0.0007238	10
	23	65	1516.544	21.37256	-4.883541	1	21.9234	-12.87088	-1.238825E-005	0.0006696	10
	24	67	1193.986	21.53602	-6.12912	1	22.39121	-15.88628	2.410408E-005	0.0006705	10
	25	70	946.5144	21.73089	-7.643388	1	23.03591	-19.37826	-4.938861E-006	0.0007351	10
	26	72	751.7689	21.97079	-9.496901	1	23.93547	-23.37647	1.279165E-005	0.0006306	10
	27	74	597.4265	22.25662	-11.80503	1	25.19357	-27.94171	-1.759485E-005	0.0006835	10
	28	77	477.4305	22.6082	-14.57739	1	26.90039	-32.81326	-2.295474E-006	0.0006966	10
	29	79	376.6741	23.06606	-18.20755	1	29.38636	-38.28634	-2.839439E-006	0.0006925	10
	30	81	298.2954	23.63204	-22.64638	1	32.7312	-43.77988	-2.538084E-006	0.0006989	10
	31	84	237.7717	24.32156	-27.97826	1	37.07184	-48.99949	-2.559227E-006	0.0006966	10
	32	86	189.0121	25.1609	-34.59481	1	42.777	-53.9715	1.268802E-006	8.961457E-005	9
	33	88	150.2404	26.24665	-42.80311	1	50.20949	-58.48359	1.270634E-006	8.583211E-005	9
	34	91	119.1737	27.61553	-53.03588	1	59.79484	-62.49422	1.358643E-006	8.728036E-005	9
	35	93	95.0169	29.2858	-65.36531	1	71.62598	-65.86606	1.249943E-006	8.887506E-005	9
	36	96	75.60484	31.37855	-80.67458	1	86.56213	-68.74635	1.243335E-006	8.264177E-005	9
	37	98	54.50582	35.22534	-108.9292	1	114.4831	-72.07991	1.243415E-006	8.373555E-005	9
	38	101	45.95588	37.74168	-127.3666	1	132.8409	-73.49422	1.246618E-006	8.952479E-005	9
	39	103	37.20238	41.39549	-154.5436	1	159.9916	-75.00496	1.329346E-006	9.455578E-005	9
	40	106	30.04808	45.80877	-187.8988	1	193.4022	-76.29886	1.342495E-006	9.003786E-005	9
	41	108	23.91582	51.47585	-231.6656	1	237.3157	-77.47247	1.33583E-006	9.06499E-005	9
	42	110	18.60119	59.01784	-291.7939	1	297.7025	-78.56569	1.30751E-006	9.061064E-005	9
	43	113	15.02404	66.94662	-355.2467	1	361.4997	-79.32771	1.445662E-006	0.0001018	9
	44	115	12.01923	76.69678	-434.7513	1	441.4647	-79.99509	4.816231E-007	0.0006728	8
	45	117	9.450605	90.28871	-543.2412	1	550.6932	-80.56348	5.885553E-007	0.0006764	8
	46	120	7.512019	106.569	-672.0776	1	680.4743	-80.98982	5.929631E-007	0.0006894	8
	47	123	5.978954	127.6924	-830.5717	1	840.3301	-81.25976	5.916425E-007	0.0006678	8
	48	126	4.734848	155.7801	-1031.332	1	1043.031	-81.41055	5.917859E-007	0.0007035	8
	49	129	3.75601	191.6344	-1278.33	1	1292.614	-81.47428	5.848781E-007	0.0006582	8
	50	132	3.004808	236.7044	-1569.528	1	1587.277	-81.42371	5.935674E-007	0.0006777	8
	51	136	2.372217	299.7893	-1952.216	1	1975.1	-81.26965	5.805742E-007	0.0007425	8
	52	140	1.878005	379.2906	-2418.029	1	2447.595	-81.08526	5.679298E-007	0.0006396	8
	53	145	1.512097	477.3275	-2940.921	1	2979.406	-80.78098	6.0257E-007	0.000712	8
	54	150	1.201923	607.2134	-3633.653	1	3684.039	-80.51306	5.836476E-007	0.0006382	8
	55	157	0.956633	780.3276	-4479.521	1	4546.979	-80.11829	4.714531E-008	1.584523E-006	7
