EXPLAIN
TAG	EISPOT
TITLE	LABEL	Potentiostatic EIS	Test Identifier
DATE	LABEL	2/27/2021	Date
TIME	LABEL	23:10:19	Time
NOTES	NOTES	1	Notes...
	
PSTAT	PSTAT	REF3000-16137	Potentiostat
VDC	POTEN	0.00000E+000	T	DC Voltage (V)
FREQINIT	QUANT	3.00000E+005	Initial Freq. (Hz)
FREQFINAL	QUANT	1.00000E+000	Final Freq. (Hz)
PTSPERDEC	QUANT	1.00000E+001	Points/decade
VAC	QUANT	5.00000E+001	AC Voltage (mV rms)
AREA	QUANT	1.00000E+000	Sample Area (cm^2)
SPEED	SELECTOR	2	Optimize for:
ZGUESS	QUANT	1.00000E+003	Estimated Z (ohms)
EOC	QUANT	0	Open Circuit (V)
SEQUENCER	TOGGLE	TRUE	Run as Sequence
PSTATMODEL	IQUANT	5	Pstat Model
PSTATSECTION	LABEL	REF3000-16137	Pstat Section
PSTATSERIALNO	LABEL	16137	Pstat Serial Number
CTRLMODE	IQUANT	1	Control Mode
IESTAB	IQUANT	0	I/E Stability
CASPEED	IQUANT	1	Control Amp Speed
CONVENTION	IQUANT	1	Current Convention
ICHRANGE	IQUANT	2	Ich Range
ICHRANGEMODE	TOGGLE	F	Ich Auto Range
ICHOFFSETENABLE	TOGGLE	T	Ich Offset Enable
ICHOFFSET	QUANT	0	Ich Offset (V)
ICHFILTER	IQUANT	3	Ich Filter
VCHRANGE	IQUANT	2	Vch Range
VCHRANGEMODE	TOGGLE	F	Vch Auto Range
VCHOFFSETENABLE	TOGGLE	T	Vch Offset Enable
VCHOFFSET	QUANT	0	Vch Offset (V)
VCHFILTER	IQUANT	3	Vch Filter
ACHRANGE	IQUANT	2	Ach Range
ACHOFFSETENABLE	TOGGLE	F	Ach Offset Enable
ACHOFFSET	QUANT	0	Ach Offset (V)
ACHFILTER	IQUANT	3	Ach Filter
IERANGELOWERLIMIT	IQUANT	2	I/E Range Lower Limit
IERANGEMODE	TOGGLE	F	I/E AutoRange
IERANGE	IQUANT	11	I/E Range
POSFEEDENABLE	TOGGLE	F	Positive Feedback IR Comp
POSFEEDRESISTANCE	QUANT	0	Positive Feedback Resistance (ohm)
ACHSELECT	IQUANT	0	Ach Select
CABLEID	IQUANT	13	Cable ID
DCCALDATE	LABEL	7/31/2020	DC Calibration Date
ACCALDATE	LABEL	7/31/2020	AC Calibration Date
THERMOSELECT	IQUANT	1	Thermo Select
FRAMEWORKVERSION	QUANT	6.33	Framework Version
INSTRUMENTVERSION	LABEL	3.50	Instrument Version
COMPLIANCEVOLTAGE	IQUANT	0	Compliance Voltage
ZCURVE	TABLE
	Pt	Time	Freq	Zreal	Zimag	Zsig	Zmod	Zphz	Idc	Vdc	IERange
	#	s	Hz	ohm	ohm	V	ohm	°	A	V	#
	0	6	300046.9	193.8755	-5.883083	1	193.9647	-1.738087	2.37156E-005	0.0003907	9
	1	12	238359.4	195.959	-4.790322	1	196.0176	-1.400347	7.881616E-005	-0.0025851	9
	2	15	189328.1	197.5275	-4.700459	1	197.5834	-1.363181	2.011261E-005	-0.0005402	9
	3	17	150421.9	198.3676	-3.999695	1	198.4079	-1.155101	1.373977E-005	-0.0007949	9
	4	20	119484.4	199.7293	-2.898958	1	199.7503	-0.8315577	4.904169E-005	-0.0001148	9
	5	23	94921.88	200.6373	-2.488261	1	200.6527	-0.7105335	-2.119515E-005	0.0004827	9
	6	25	75421.88	201.645	-2.208646	1	201.6571	-0.6275435	7.345418E-006	-0.0006112	9
	7	28	59859.37	202.784	-1.952422	1	202.7934	-0.5516319	2.074839E-005	-0.0007976	9
	8	30	47578.12	203.7155	-1.788191	1	203.7233	-0.502923	-9.305065E-006	-7.975061E-005	9
	9	33	37828.12	205.1651	-1.644619	1	205.1717	-0.4592776	-2.033788E-005	0.0007137	9
	10	35	30046.88	206.1005	-1.544411	1	206.1063	-0.4293369	1.071538E-005	0.0002468	9
	11	38	23859.38	206.903	-1.332394	1	206.9073	-0.3689627	2.617834E-005	-0.0005773	9
	12	40	18984.38	208.0421	-1.23935	1	208.0458	-0.3413188	7.689999E-006	-0.0006034	9
	13	42	15046.87	209.0381	-0.9370167	1	209.0402	-0.2568276	-2.012407E-005	0.0009104	9
	14	45	11953.13	209.9972	-1.125632	1	210.0002	-0.3071154	-1.580848E-005	0.0010233	9
	15	47	9515.62	210.9403	-1.598093	1	210.9463	-0.434067	1.919508E-005	-6.633702E-005	9
	16	49	7546.875	211.7272	-1.617347	1	211.7334	-0.4376638	-9.610548E-006	-6.710235E-005	9
	17	52	5928.309	212.9251	-1.734869	1	212.9321	-0.4668237	2.612248E-005	-0.0004507	9
	18	54	4733.456	213.9865	-2.286189	1	213.9987	-0.6121135	2.68218E-005	-0.0006103	9
	19	56	3796.875	215.1818	-3.146015	1	215.2048	-0.83762	-1.792198E-006	-0.0003388	9
	20	59	2987.132	215.7954	-3.268974	1	215.8201	-0.8678781	1.187012E-006	0.0005942	9
	21	61	2390.625	217.0751	-4.217091	1	217.116	-1.112938	2.558323E-005	-0.0007259	9
	22	63	1884.191	218.5305	-5.344052	1	218.5959	-1.40086	2.189291E-005	-0.0008085	9
	23	66	1516.544	219.0213	-6.257074	1	219.1106	-1.6364	1.930281E-005	-3.200113E-005	9
	24	68	1193.986	220.52	-8.00288	1	220.6652	-2.078406	-2.119087E-005	0.0005044	9
	25	71	946.5144	221.7095	-9.80681	1	221.9263	-2.532697	-9.382832E-006	-6.555554E-005	9
	26	73	751.7689	223.2536	-12.30087	1	223.5922	-3.153707	2.574802E-005	-0.0007522	9
	27	75	597.4265	224.3914	-15.24142	1	224.9085	-3.885754	1.55717E-005	-0.0007538	9
	28	78	477.4305	225.516	-18.68193	1	226.2885	-4.735615	1.229658E-006	7.729031E-005	9
	29	80	376.6741	226.9954	-23.33393	1	228.1915	-5.86909	1.175755E-006	8.170038E-005	9
	30	82	298.2954	228.6	-29.0721	1	230.4412	-7.247659	1.208306E-006	8.683016E-005	9
	31	85	237.7717	230.3785	-35.97915	1	233.1711	-8.876413	1.215014E-006	8.32726E-005	9
	32	87	189.0121	232.3846	-44.65894	1	236.6369	-10.8783	1.145962E-006	8.828654E-005	9
	33	89	150.2404	234.6614	-55.42612	1	241.1183	-13.28948	1.248557E-006	8.365105E-005	9
	34	92	119.1737	237.2532	-68.8958	1	247.0541	-16.19273	1.1958E-006	8.283739E-005	9
	35	94	95.0169	240.2802	-85.18284	1	254.9327	-19.52016	1.256905E-006	8.673777E-005	9
	36	97	75.60484	243.9041	-105.4588	1	265.7269	-23.38259	1.277434E-006	8.217341E-005	9
	37	99	54.50582	249.8669	-142.9316	1	287.8592	-29.7709	1.240454E-006	7.592377E-005	9
	38	102	45.95588	254.2431	-167.4198	1	304.4157	-33.36502	1.189495E-006	8.783704E-005	9
	39	104	37.20238	260.2136	-203.4598	1	330.3135	-38.02169	1.263519E-006	8.891111E-005	9
	40	106	30.04808	267.4309	-247.6517	1	364.4868	-42.80092	1.217725E-006	8.341698E-005	9
	41	109	23.91582	275.4678	-304.0369	1	410.2693	-47.82234	1.125851E-007	0.0006558	8
	42	111	18.60119	287.6003	-382.6818	1	478.7058	-53.07371	-5.420686E-009	0.000671	8
	43	114	15.02404	300.3559	-465.0457	1	553.6074	-57.14307	4.674996E-008	0.0006752	8
	44	116	12.01923	316.477	-570.2356	1	652.1705	-60.97002	2.797592E-008	0.000674	8
	45	118	9.450605	337.5893	-710.5116	1	786.6342	-64.58595	8.452432E-008	0.000663	8
	46	121	7.512019	362.9384	-876.076	1	948.2792	-67.49689	8.254894E-008	0.0006564	8
	47	124	5.978954	393.1206	-1078.397	1	1147.818	-69.97111	8.337236E-008	0.0006585	8
	48	127	4.734848	431.8446	-1334.857	1	1402.973	-72.0729	1.105512E-007	0.0006706	8
	49	130	3.75601	477.5931	-1647.905	1	1715.717	-73.83744	8.874563E-008	0.0006456	8
	50	133	3.004808	530.6618	-2017.548	1	2086.169	-75.26366	1.152694E-007	0.0006279	8
	51	137	2.372217	598.5627	-2499.693	1	2570.358	-76.53382	9.337665E-008	0.0006379	8
	52	141	1.878005	684.4866	-3098.535	1	3173.239	-77.54305	7.829725E-008	0.0006604	8
	53	146	1.512097	771.0151	-3777.524	1	3855.406	-78.46404	9.40728E-008	0.0005643	8
	54	151	1.201923	894.2549	-4679.02	1	4763.708	-79.18011	-1.037735E-008	0.0006352	7
	55	158	0.956633	1033.185	-5771.477	1	5863.226	-79.85067	-6.478055E-009	-6.890283E-006	7
