EXPLAIN
TAG	EISPOT
TITLE	LABEL	Potentiostatic EIS	Test Identifier
DATE	LABEL	2/27/2021	Date
TIME	LABEL	22:37:07	Time
NOTES	NOTES	1	Notes...
	
PSTAT	PSTAT	REF3000-16137	Potentiostat
VDC	POTEN	0.00000E+000	T	DC Voltage (V)
FREQINIT	QUANT	3.00000E+005	Initial Freq. (Hz)
FREQFINAL	QUANT	1.00000E+000	Final Freq. (Hz)
PTSPERDEC	QUANT	1.00000E+001	Points/decade
VAC	QUANT	5.00000E+001	AC Voltage (mV rms)
AREA	QUANT	1.00000E+000	Sample Area (cm^2)
SPEED	SELECTOR	2	Optimize for:
ZGUESS	QUANT	1.00000E+003	Estimated Z (ohms)
EOC	QUANT	0	Open Circuit (V)
SEQUENCER	TOGGLE	TRUE	Run as Sequence
PSTATMODEL	IQUANT	5	Pstat Model
PSTATSECTION	LABEL	REF3000-16137	Pstat Section
PSTATSERIALNO	LABEL	16137	Pstat Serial Number
CTRLMODE	IQUANT	1	Control Mode
IESTAB	IQUANT	0	I/E Stability
CASPEED	IQUANT	1	Control Amp Speed
CONVENTION	IQUANT	1	Current Convention
ICHRANGE	IQUANT	2	Ich Range
ICHRANGEMODE	TOGGLE	F	Ich Auto Range
ICHOFFSETENABLE	TOGGLE	T	Ich Offset Enable
ICHOFFSET	QUANT	0	Ich Offset (V)
ICHFILTER	IQUANT	3	Ich Filter
VCHRANGE	IQUANT	2	Vch Range
VCHRANGEMODE	TOGGLE	F	Vch Auto Range
VCHOFFSETENABLE	TOGGLE	T	Vch Offset Enable
VCHOFFSET	QUANT	0	Vch Offset (V)
VCHFILTER	IQUANT	3	Vch Filter
ACHRANGE	IQUANT	2	Ach Range
ACHOFFSETENABLE	TOGGLE	F	Ach Offset Enable
ACHOFFSET	QUANT	0	Ach Offset (V)
ACHFILTER	IQUANT	3	Ach Filter
IERANGELOWERLIMIT	IQUANT	2	I/E Range Lower Limit
IERANGEMODE	TOGGLE	F	I/E AutoRange
IERANGE	IQUANT	11	I/E Range
POSFEEDENABLE	TOGGLE	F	Positive Feedback IR Comp
POSFEEDRESISTANCE	QUANT	0	Positive Feedback Resistance (ohm)
ACHSELECT	IQUANT	0	Ach Select
CABLEID	IQUANT	13	Cable ID
DCCALDATE	LABEL	7/31/2020	DC Calibration Date
ACCALDATE	LABEL	7/31/2020	AC Calibration Date
THERMOSELECT	IQUANT	1	Thermo Select
FRAMEWORKVERSION	QUANT	6.33	Framework Version
INSTRUMENTVERSION	LABEL	3.50	Instrument Version
COMPLIANCEVOLTAGE	IQUANT	0	Compliance Voltage
ZCURVE	TABLE
	Pt	Time	Freq	Zreal	Zimag	Zsig	Zmod	Zphz	Idc	Vdc	IERange
	#	s	Hz	ohm	ohm	V	ohm	°	A	V	#
	0	8	300046.9	14.69068	2.110157	1	14.84146	8.174009	-0.0001064	0.0002022	10
	1	11	238359.4	14.70524	1.657374	1	14.79835	6.430461	-2.177545E-005	0.0002616	10
	2	14	189328.1	14.72801	1.305035	1	14.78571	5.063703	-1.585974E-005	0.0005009	10
	3	17	150421.9	14.74689	0.99624	1	14.78051	3.864797	2.609646E-005	0.000516	10
	4	19	119484.4	14.77687	0.7861269	1	14.79776	3.045255	-1.695409E-005	0.0007065	10
	5	22	94921.88	14.80096	0.6100475	1	14.81353	2.360209	2.214833E-005	0.0006518	10
	6	24	75421.88	14.83223	0.4330134	1	14.83855	1.672223	-7.346182E-007	0.000602	10
	7	27	59859.37	14.86813	0.28839	1	14.87092	1.1112	2.226625E-005	0.0006685	10
	8	29	47578.12	14.90335	0.1616043	1	14.90423	0.6212618	1.349002E-005	0.0006344	10
	9	32	37828.12	14.94142	0.0471776	1	14.94149	0.180911	2.410283E-005	0.0006485	10
	10	34	30046.88	14.97901	-0.0641282	1	14.97915	-0.2452933	2.405633E-005	0.0006826	10
	11	37	23859.38	15.01754	-0.1761801	1	15.01858	-0.6721417	-2.628098E-005	0.0007209	10
	12	39	18984.38	15.05452	-0.2940522	1	15.05739	-1.118987	-1.731841E-005	0.0006756	10
	13	42	15046.87	15.09259	-0.4295617	1	15.09871	-1.630298	2.285878E-005	0.0006336	10
	14	44	11953.13	15.13751	-0.5824878	1	15.14872	-2.20364	-2.323357E-005	0.0006919	10
	15	46	9515.62	15.17991	-0.7610593	1	15.19897	-2.870176	1.663273E-005	0.0007155	10
	16	49	7546.875	15.22639	-0.978049	1	15.25777	-3.675275	1.713267E-005	0.0007144	10
	17	51	5928.309	15.28074	-1.255601	1	15.33224	-4.697377	-2.75965E-005	0.0006982	10
	18	53	4733.456	15.33728	-1.571437	1	15.41757	-5.850038	1.62929E-005	0.0006911	10
	19	55	3796.875	15.39921	-1.950871	1	15.52229	-7.220139	-2.533651E-005	0.0007182	10
	20	58	2987.132	15.47242	-2.46471	1	15.6675	-9.050999	1.559844E-005	0.0006841	10
	21	60	2390.625	15.55374	-3.055785	1	15.85108	-11.11512	-1.878157E-005	0.0006583	10
	22	62	1884.191	15.6533	-3.835255	1	16.1163	-13.76698	2.375404E-005	0.0006536	10
	23	65	1516.544	15.76396	-4.719317	1	16.45522	-16.66632	1.96856E-005	0.0006318	10
	24	67	1193.986	15.91358	-5.923271	1	16.9802	-20.41601	-1.169256E-005	0.0006684	10
	25	70	946.5144	16.09104	-7.385142	1	17.70485	-24.65323	-4.362411E-006	0.0007286	10
	26	72	751.7689	16.30781	-9.179173	1	18.71368	-29.37385	1.849078E-005	0.0006355	10
	27	74	597.4265	16.57597	-11.40371	1	20.11982	-34.52667	-6.618462E-006	0.0006978	10
	28	77	477.4305	16.90527	-14.06862	1	21.9935	-39.76734	-2.661524E-006	0.0006806	10
	29	79	376.6741	17.34101	-17.56334	1	24.68161	-45.36495	-2.421087E-006	0.0006806	10
	30	81	298.2954	17.88534	-21.83774	1	28.22715	-50.68217	-2.380796E-006	0.000684	10
	31	83	237.7717	18.54785	-26.96713	1	32.72994	-55.48001	-2.370842E-006	0.0006808	10
	32	86	189.0121	19.38658	-33.36805	1	38.59101	-59.84375	-2.411652E-006	0.000685	10
	33	88	150.2404	20.41007	-41.21742	1	45.99398	-63.65628	1.152737E-006	0.000115	9
	34	91	119.1737	21.73324	-51.04102	1	55.4754	-66.93572	1.331687E-006	8.291518E-005	9
	35	93	95.0169	23.33941	-62.87183	1	67.06412	-69.63396	1.286162E-006	7.646989E-005	9
	36	96	75.60484	25.3373	-77.5501	1	81.58429	-71.90666	1.173421E-006	8.165759E-005	9
	37	98	54.50582	28.9732	-104.6569	1	108.5934	-74.52579	1.180624E-006	7.959485E-005	9
	38	101	45.95588	31.32657	-122.3647	1	126.311	-75.64013	1.306612E-006	8.568113E-005	9
	39	103	37.20238	34.73574	-148.5088	1	152.517	-76.83537	1.280326E-006	8.972198E-005	9
	40	105	30.04808	38.84407	-180.6686	1	184.7972	-77.86602	1.302721E-006	7.716021E-005	9
	41	108	23.91582	44.13544	-222.8082	1	227.1375	-78.79549	1.307239E-006	8.002471E-005	9
	42	110	18.60119	51.38311	-281.0298	1	285.6885	-79.63857	1.329345E-006	8.779818E-005	9
	43	113	15.02404	59.12223	-342.3979	1	347.4647	-80.20328	1.323289E-006	6.997277E-005	9
	44	115	12.01923	69.14819	-421.1087	1	426.7482	-80.67496	1.400209E-006	7.87618E-005	9
	45	117	9.450605	82.69499	-524.1116	1	530.5954	-81.03371	5.781463E-007	0.0006475	8
	46	120	7.512019	99.6461	-648.7358	1	656.344	-81.26759	5.890633E-007	0.0006498	8
	47	123	5.978954	121.8229	-801.2032	1	810.4119	-81.3544	6.032567E-007	0.0006603	8
	48	126	4.734848	151.2711	-993.888	1	1005.334	-81.34592	5.76277E-007	0.0006369	8
	49	129	3.75601	190.2563	-1230.389	1	1245.012	-81.20991	6.111161E-007	0.0006771	8
	50	132	3.004808	238.4643	-1509.213	1	1527.936	-81.02116	6.141324E-007	0.0006226	8
	51	136	2.372217	306.4146	-1873.918	1	1898.805	-80.71344	5.955554E-007	0.0005787	8
	52	140	1.878005	392.7188	-2316.728	1	2349.778	-80.379	6.188168E-007	0.00066	8
	53	145	1.512097	498.5298	-2811.498	1	2855.355	-79.94493	5.884904E-007	0.0006234	8
	54	150	1.201923	643.3865	-3469.584	1	3528.734	-79.49462	6.315823E-007	0.0006825	8
	55	157	0.956633	836.3107	-4259.271	1	4340.6	-78.89126	5.914946E-007	1.537559E-005	8
