EXPLAIN
TAG	EISPOT
TITLE	LABEL	Potentiostatic EIS	Test Identifier
DATE	LABEL	2/27/2021	Date
TIME	LABEL	22:51:01	Time
NOTES	NOTES	1	Notes...
	
PSTAT	PSTAT	REF3000-16137	Potentiostat
VDC	POTEN	0.00000E+000	T	DC Voltage (V)
FREQINIT	QUANT	3.00000E+005	Initial Freq. (Hz)
FREQFINAL	QUANT	1.00000E+000	Final Freq. (Hz)
PTSPERDEC	QUANT	1.00000E+001	Points/decade
VAC	QUANT	5.00000E+001	AC Voltage (mV rms)
AREA	QUANT	1.00000E+000	Sample Area (cm^2)
SPEED	SELECTOR	2	Optimize for:
ZGUESS	QUANT	1.00000E+003	Estimated Z (ohms)
EOC	QUANT	0	Open Circuit (V)
SEQUENCER	TOGGLE	TRUE	Run as Sequence
PSTATMODEL	IQUANT	5	Pstat Model
PSTATSECTION	LABEL	REF3000-16137	Pstat Section
PSTATSERIALNO	LABEL	16137	Pstat Serial Number
CTRLMODE	IQUANT	1	Control Mode
IESTAB	IQUANT	0	I/E Stability
CASPEED	IQUANT	1	Control Amp Speed
CONVENTION	IQUANT	1	Current Convention
ICHRANGE	IQUANT	2	Ich Range
ICHRANGEMODE	TOGGLE	F	Ich Auto Range
ICHOFFSETENABLE	TOGGLE	T	Ich Offset Enable
ICHOFFSET	QUANT	0	Ich Offset (V)
ICHFILTER	IQUANT	3	Ich Filter
VCHRANGE	IQUANT	2	Vch Range
VCHRANGEMODE	TOGGLE	F	Vch Auto Range
VCHOFFSETENABLE	TOGGLE	T	Vch Offset Enable
VCHOFFSET	QUANT	0	Vch Offset (V)
VCHFILTER	IQUANT	3	Vch Filter
ACHRANGE	IQUANT	2	Ach Range
ACHOFFSETENABLE	TOGGLE	F	Ach Offset Enable
ACHOFFSET	QUANT	0	Ach Offset (V)
ACHFILTER	IQUANT	3	Ach Filter
IERANGELOWERLIMIT	IQUANT	2	I/E Range Lower Limit
IERANGEMODE	TOGGLE	F	I/E AutoRange
IERANGE	IQUANT	11	I/E Range
POSFEEDENABLE	TOGGLE	F	Positive Feedback IR Comp
POSFEEDRESISTANCE	QUANT	0	Positive Feedback Resistance (ohm)
ACHSELECT	IQUANT	0	Ach Select
CABLEID	IQUANT	13	Cable ID
DCCALDATE	LABEL	7/31/2020	DC Calibration Date
ACCALDATE	LABEL	7/31/2020	AC Calibration Date
THERMOSELECT	IQUANT	1	Thermo Select
FRAMEWORKVERSION	QUANT	6.33	Framework Version
INSTRUMENTVERSION	LABEL	3.50	Instrument Version
COMPLIANCEVOLTAGE	IQUANT	0	Compliance Voltage
ZCURVE	TABLE
	Pt	Time	Freq	Zreal	Zimag	Zsig	Zmod	Zphz	Idc	Vdc	IERange
	#	s	Hz	ohm	ohm	V	ohm	°	A	V	#
	0	6	300046.9	33.89482	1.140504	1	33.91401	1.927181	7.322348E-005	-0.0001931	11
	1	11	238359.4	34.0918	1.304243	1	34.11674	2.190885	4.566427E-005	0.0005768	10
	2	14	189328.1	34.21802	1.02737	1	34.23344	1.719746	-1.900289E-005	0.0005495	10
	3	16	150421.9	34.29158	0.8001565	1	34.30091	1.336692	2.140897E-005	0.0005656	10
	4	19	119484.4	34.42001	0.5996103	1	34.42524	0.998014	-0.0000999	0.0005859	10
	5	22	94921.88	34.53725	0.449476	1	34.54018	0.7456188	-2.291832E-005	0.0006706	10
	6	24	75421.88	34.65314	0.2982289	1	34.65443	0.4930819	2.386101E-005	0.0006365	10
	7	27	59859.37	34.76609	0.1702465	1	34.7665	0.2805701	6.546044E-006	0.0006122	10
	8	29	47578.12	34.88124	0.0621335	1	34.88129	0.1020601	-5.936885E-006	0.0006628	10
	9	32	37828.12	34.99746	-0.0440621	1	34.99749	-0.0721358	2.530554E-005	0.0006669	10
	10	34	30046.88	35.097	-0.1490971	1	35.09732	-0.2433993	-8.494369E-006	0.0006706	10
	11	37	23859.38	35.17317	-0.1914148	1	35.17369	-0.3118044	3.383283E-006	0.0002929	9
	12	39	18984.38	35.28304	-0.3354467	1	35.28464	-0.5447122	3.007526E-006	-0.0002307	9
	13	41	15046.87	35.39032	-0.4835342	1	35.39363	-0.7827774	-1.197415E-005	0.0005462	9
	14	44	11953.13	35.51938	-0.6578317	1	35.52547	-1.061017	1.605311E-005	-0.0002025	9
	15	46	9515.62	35.63266	-0.8547879	1	35.64291	-1.374198	1.340254E-005	-0.0001165	9
	16	48	7546.875	35.73629	-1.085881	1	35.75279	-1.740451	3.112677E-006	-0.000231	9
	17	51	5928.309	35.86909	-1.388419	1	35.89595	-2.216696	-1.361277E-005	0.000556	9
	18	53	4733.456	36.01247	-1.731099	1	36.05405	-2.752057	1.660493E-005	-0.0001883	9
	19	55	3796.875	36.15111	-2.146091	1	36.21475	-3.397346	1.694569E-005	-0.0003761	9
	20	58	2987.132	36.29072	-2.708979	1	36.39169	-4.269018	-7.525595E-006	9.40747E-005	9
	21	60	2390.625	36.45145	-3.351432	1	36.60519	-5.253139	-7.372414E-006	0.0005742	9
	22	62	1884.191	36.61863	-4.191657	1	36.85776	-6.530104	-1.374963E-005	0.0004096	9
	23	64	1516.544	36.82076	-5.177021	1	37.18293	-8.003358	1.432278E-005	-9.400034E-005	9
	24	67	1193.986	37.04092	-6.493889	1	37.60586	-9.94385	-1.421891E-005	0.000498	9
	25	69	946.5144	37.30844	-8.0941	1	38.17636	-12.24068	-1.20757E-005	0.0005514	9
	26	72	751.7689	37.59581	-10.07031	1	38.92115	-14.99509	-1.22951E-005	0.0003408	9
	27	74	597.4265	37.94651	-12.52003	1	39.95859	-18.25973	-1.434512E-005	0.0004982	9
	28	76	477.4305	38.35291	-15.45717	1	41.35057	-21.95066	1.405512E-006	8.423465E-005	9
	29	79	376.6741	38.87281	-19.32116	1	43.40971	-26.429	1.393097E-006	7.966867E-005	9
	30	81	298.2954	39.50401	-24.0538	1	46.25097	-31.33704	1.406294E-006	8.28804E-005	9
	31	83	237.7717	40.27285	-29.7386	1	50.06283	-36.4432	1.331747E-006	8.304924E-005	9
	32	86	189.0121	41.22855	-36.84084	1	55.29051	-41.78321	1.42016E-006	8.129427E-005	9
	33	88	150.2404	42.40993	-45.61044	1	62.28093	-47.08241	1.281304E-006	8.924329E-005	9
	34	91	119.1737	43.88968	-56.54663	1	71.58089	-52.18253	1.380219E-006	8.404804E-005	9
	35	93	95.0169	45.68877	-69.73993	1	83.37338	-56.76996	1.326943E-006	8.901449E-005	9
	36	95	75.60484	47.93976	-86.1368	1	98.5787	-60.90171	1.327237E-006	8.580595E-005	9
	37	98	54.50582	52.0792	-116.4391	1	127.5551	-65.90267	1.318801E-006	7.838439E-005	9
	38	100	45.95588	54.85866	-136.2278	1	146.8587	-68.06544	1.370045E-006	9.154806E-005	9
	39	103	37.20238	58.92723	-165.3785	1	175.5633	-70.38814	1.389985E-006	8.921405E-005	9
	40	105	30.04808	63.8804	-201.0963	1	210.9986	-72.37699	1.408832E-006	7.839082E-005	9
	41	108	23.91582	70.32622	-247.7831	1	257.5699	-74.15491	1.338641E-006	0.0001031	9
	42	110	18.60119	78.91345	-311.8432	1	321.673	-75.79913	1.42043E-006	8.049327E-005	9
	43	112	15.02404	87.81631	-379.0341	1	389.074	-76.9556	1.386903E-006	7.798042E-005	9
	44	114	12.01923	98.4843	-463.1409	1	473.4962	-77.99519	4.002109E-007	0.000662	8
	45	117	9.450605	112.7508	-577.7031	1	588.6031	-78.95636	4.394852E-007	0.0006738	8
	46	119	7.512019	129.8574	-713.8661	1	725.5809	-79.69022	4.479421E-007	0.000662	8
	47	122	5.978954	150.2072	-881.2613	1	893.9707	-80.32714	4.56996E-007	0.0006659	8
	48	125	4.734848	176.5481	-1093.917	1	1108.072	-80.83205	4.610853E-007	0.0006336	8
	49	128	3.75601	210.1985	-1356.18	1	1372.373	-81.18965	4.886699E-007	0.0006776	8
	50	132	3.004808	251.8367	-1667.223	1	1686.135	-81.41032	4.760884E-007	0.0006438	8
	51	136	2.372217	310.2907	-2076.548	1	2099.603	-81.50139	4.686837E-007	0.0005881	8
	52	140	1.878005	379.9796	-2580.022	1	2607.853	-81.62184	5.033492E-007	0.0006528	8
	53	144	1.512097	462.1573	-3145.429	1	3179.2	-81.64135	4.750998E-007	0.0006862	8
	54	150	1.201923	582.4105	-3897.594	1	3940.868	-81.50127	5.047788E-007	0.0006794	8
	55	156	0.956633	736.4569	-4815.535	1	4871.524	-81.30492	4.010033E-008	-8.682459E-006	7
