EXPLAIN
TAG	EISPOT
TITLE	LABEL	Potentiostatic EIS	Test Identifier
DATE	LABEL	2/27/2021	Date
TIME	LABEL	22:53:46	Time
NOTES	NOTES	1	Notes...
	
PSTAT	PSTAT	REF3000-16137	Potentiostat
VDC	POTEN	0.00000E+000	T	DC Voltage (V)
FREQINIT	QUANT	3.00000E+005	Initial Freq. (Hz)
FREQFINAL	QUANT	1.00000E+000	Final Freq. (Hz)
PTSPERDEC	QUANT	1.00000E+001	Points/decade
VAC	QUANT	5.00000E+001	AC Voltage (mV rms)
AREA	QUANT	1.00000E+000	Sample Area (cm^2)
SPEED	SELECTOR	2	Optimize for:
ZGUESS	QUANT	1.00000E+003	Estimated Z (ohms)
EOC	QUANT	0	Open Circuit (V)
SEQUENCER	TOGGLE	TRUE	Run as Sequence
PSTATMODEL	IQUANT	5	Pstat Model
PSTATSECTION	LABEL	REF3000-16137	Pstat Section
PSTATSERIALNO	LABEL	16137	Pstat Serial Number
CTRLMODE	IQUANT	1	Control Mode
IESTAB	IQUANT	0	I/E Stability
CASPEED	IQUANT	1	Control Amp Speed
CONVENTION	IQUANT	1	Current Convention
ICHRANGE	IQUANT	2	Ich Range
ICHRANGEMODE	TOGGLE	F	Ich Auto Range
ICHOFFSETENABLE	TOGGLE	T	Ich Offset Enable
ICHOFFSET	QUANT	0	Ich Offset (V)
ICHFILTER	IQUANT	3	Ich Filter
VCHRANGE	IQUANT	2	Vch Range
VCHRANGEMODE	TOGGLE	F	Vch Auto Range
VCHOFFSETENABLE	TOGGLE	T	Vch Offset Enable
VCHOFFSET	QUANT	0	Vch Offset (V)
VCHFILTER	IQUANT	3	Vch Filter
ACHRANGE	IQUANT	2	Ach Range
ACHOFFSETENABLE	TOGGLE	F	Ach Offset Enable
ACHOFFSET	QUANT	0	Ach Offset (V)
ACHFILTER	IQUANT	3	Ach Filter
IERANGELOWERLIMIT	IQUANT	2	I/E Range Lower Limit
IERANGEMODE	TOGGLE	F	I/E AutoRange
IERANGE	IQUANT	11	I/E Range
POSFEEDENABLE	TOGGLE	F	Positive Feedback IR Comp
POSFEEDRESISTANCE	QUANT	0	Positive Feedback Resistance (ohm)
ACHSELECT	IQUANT	0	Ach Select
CABLEID	IQUANT	13	Cable ID
DCCALDATE	LABEL	7/31/2020	DC Calibration Date
ACCALDATE	LABEL	7/31/2020	AC Calibration Date
THERMOSELECT	IQUANT	1	Thermo Select
FRAMEWORKVERSION	QUANT	6.33	Framework Version
INSTRUMENTVERSION	LABEL	3.50	Instrument Version
COMPLIANCEVOLTAGE	IQUANT	0	Compliance Voltage
ZCURVE	TABLE
	Pt	Time	Freq	Zreal	Zimag	Zsig	Zmod	Zphz	Idc	Vdc	IERange
	#	s	Hz	ohm	ohm	V	ohm	°	A	V	#
	0	6	300046.9	41.38791	2.380441	1	41.45631	3.291762	1.118076E-005	-8.603175E-005	9
	1	10	238359.4	41.67354	1.852281	1	41.71469	2.544974	-3.658929E-005	0.000102	9
	2	13	189328.1	41.81334	1.426215	1	41.83766	1.953549	8.45863E-007	0.0002287	9
	3	15	150421.9	42.02312	1.073936	1	42.03685	1.463923	-5.377091E-005	0.0014125	9
	4	18	119484.4	42.13335	0.8492151	1	42.14191	1.154664	4.728374E-005	-0.0012685	9
	5	20	94921.88	42.31295	0.7734897	1	42.32001	1.047262	-1.13886E-005	0.0001249	9
	6	23	75421.88	42.4359	0.5571859	1	42.43956	0.7522539	-1.373041E-005	0.0003787	9
	7	25	59859.37	42.56476	0.3748966	1	42.56641	0.5046296	3.677636E-006	0.0002812	9
	8	28	47578.12	42.6983	0.2121103	1	42.69883	0.2846231	1.833461E-005	-0.0003723	9
	9	30	37828.12	42.84771	0.0554908	1	42.84775	0.074202	9.185899E-006	-0.0004185	9
	10	33	30046.88	42.99531	-0.0815695	1	42.99539	-0.1086999	9.583444E-006	5.560273E-005	9
	11	36	23859.38	43.14625	-0.2207357	1	43.14682	-0.2931219	-1.505577E-005	0.0005393	9
	12	38	18984.38	43.29681	-0.3522392	1	43.29824	-0.4661168	-1.173275E-005	0.000639	9
	13	40	15046.87	43.43603	-0.5009561	1	43.43892	-0.6607741	2.48547E-006	0.0002828	9
	14	42	11953.13	43.56543	-0.6833373	1	43.57079	-0.8986285	1.799991E-005	-0.0004068	9
	15	45	9515.62	43.72808	-0.8874931	1	43.73708	-1.1627	-6.084067E-006	8.147319E-005	9
	16	47	7546.875	43.88629	-1.094478	1	43.89994	-1.4286	-1.29171E-005	0.0006033	9
	17	49	5928.309	44.03694	-1.416745	1	44.05972	-1.84267	1.529982E-005	-0.0000994	9
	18	52	4733.456	44.20181	-1.779056	1	44.2376	-2.304825	-1.25255E-005	0.000633	9
	19	54	3796.875	44.36444	-2.214872	1	44.4197	-2.85809	1.689259E-005	-0.0004658	9
	20	56	2987.132	44.56726	-2.777976	1	44.65376	-3.566759	-1.310146E-005	0.0003427	9
	21	59	2390.625	44.75922	-3.437235	1	44.89101	-4.391347	1.031124E-005	0.0001375	9
	22	61	1884.191	44.99931	-4.307418	1	45.205	-5.467799	-8.34216E-006	0.0000968	9
	23	63	1516.544	45.19085	-5.293753	1	45.49986	-6.681301	1.703148E-005	-0.0004586	9
	24	66	1193.986	45.46184	-6.6387	1	45.944	-8.308064	1.539115E-005	-0.0000976	9
	25	68	946.5144	45.76947	-8.274707	1	46.51146	-10.24786	1.851386E-005	-0.0003377	9
	26	71	751.7689	46.08519	-10.297	1	47.22153	-12.59496	3.475931E-006	-0.0002683	9
	27	73	597.4265	46.46177	-12.77366	1	48.18571	-15.37244	-1.546713E-005	0.000534	9
	28	75	477.4305	46.91497	-15.79982	1	49.50403	-18.61228	1.425387E-006	0.0000952	9
	29	78	376.6741	47.47273	-19.75289	1	51.41825	-22.59167	1.333816E-006	0.0000981	9
	30	80	298.2954	48.14466	-24.59577	1	54.06348	-27.06123	1.439368E-006	0.0000961	9
	31	82	237.7717	48.9539	-30.42067	1	57.63594	-31.85742	1.406012E-006	9.290975E-005	9
	32	85	189.0121	49.95749	-37.69626	1	62.58401	-37.03699	1.340086E-006	0.0000973	9
	33	87	150.2404	51.19324	-46.67986	1	69.28028	-42.35969	1.349328E-006	8.785013E-005	9
	34	90	119.1737	52.73147	-57.88579	1	78.30309	-47.66782	1.435197E-006	9.000507E-005	9
	35	92	95.0169	54.5951	-71.40067	1	89.88148	-52.59739	1.374931E-006	8.700561E-005	9
	36	95	75.60484	56.92355	-88.1984	1	104.9726	-57.16167	1.372389E-006	8.63918E-005	9
	37	97	54.50582	61.17893	-119.2568	1	134.0338	-62.84211	1.364303E-006	8.30425E-005	9
	38	100	45.95588	64.04816	-139.5512	1	153.5471	-65.34686	1.39137E-006	0.0000976	9
	39	102	37.20238	68.2301	-169.4442	1	182.6655	-68.06683	1.369088E-006	9.282738E-005	9
	40	104	30.04808	73.39453	-206.1147	1	218.7922	-70.3999	1.353497E-006	8.783039E-005	9
	41	107	23.91582	80.06816	-253.9754	1	266.2976	-72.50205	1.404262E-006	8.6931E-005	9
	42	109	18.60119	89.12444	-319.6275	1	331.8206	-74.41949	1.432264E-006	8.314972E-005	9
	43	112	15.02404	98.4352	-388.4138	1	400.6928	-75.77901	1.390288E-006	9.066233E-005	9
	44	114	12.01923	109.6326	-474.4647	1	486.9662	-76.98925	3.704473E-007	0.0006589	8
	45	116	9.450605	124.6638	-591.3717	1	604.3687	-78.09608	4.597184E-007	0.000656	8
	46	119	7.512019	142.1751	-730.3807	1	744.0899	-78.98462	4.430209E-007	0.0006612	8
	47	122	5.978954	163.266	-900.8531	1	915.5284	-79.72751	4.53263E-007	0.0006671	8
	48	125	4.734848	189.8764	-1118.623	1	1134.623	-80.36636	4.133156E-007	0.0006615	8
	49	128	3.75601	223.0923	-1385.218	1	1403.068	-80.85096	4.549289E-007	0.0006857	8
	50	131	3.004808	264.2715	-1702.831	1	1723.216	-81.17834	4.361163E-007	0.0006458	8
	51	135	2.372217	320.39	-2122.393	1	2146.439	-81.41562	4.33562E-007	0.000592	8
	52	139	1.878005	389.6765	-2635.645	1	2664.296	-81.58982	4.425949E-007	0.0006811	8
	53	144	1.512097	476.888	-3217.565	1	3252.714	-81.56934	4.344238E-007	0.0005902	8
	54	150	1.201923	588.0746	-3987.37	1	4030.502	-81.61025	4.529933E-007	0.0006924	8
	55	156	0.956633	733.5675	-4931.714	1	4985.973	-81.53957	4.302895E-008	-4.086625E-005	7
