EXPLAIN
TAG	EISPOT
TITLE	LABEL	Potentiostatic EIS	Test Identifier
DATE	LABEL	2/27/2021	Date
TIME	LABEL	23:16:08	Time
NOTES	NOTES	1	Notes...
	
PSTAT	PSTAT	REF3000-16137	Potentiostat
VDC	POTEN	0.00000E+000	T	DC Voltage (V)
FREQINIT	QUANT	3.00000E+005	Initial Freq. (Hz)
FREQFINAL	QUANT	1.00000E+000	Final Freq. (Hz)
PTSPERDEC	QUANT	1.00000E+001	Points/decade
VAC	QUANT	5.00000E+001	AC Voltage (mV rms)
AREA	QUANT	1.00000E+000	Sample Area (cm^2)
SPEED	SELECTOR	2	Optimize for:
ZGUESS	QUANT	1.00000E+003	Estimated Z (ohms)
EOC	QUANT	0	Open Circuit (V)
SEQUENCER	TOGGLE	TRUE	Run as Sequence
PSTATMODEL	IQUANT	5	Pstat Model
PSTATSECTION	LABEL	REF3000-16137	Pstat Section
PSTATSERIALNO	LABEL	16137	Pstat Serial Number
CTRLMODE	IQUANT	1	Control Mode
IESTAB	IQUANT	0	I/E Stability
CASPEED	IQUANT	1	Control Amp Speed
CONVENTION	IQUANT	1	Current Convention
ICHRANGE	IQUANT	2	Ich Range
ICHRANGEMODE	TOGGLE	F	Ich Auto Range
ICHOFFSETENABLE	TOGGLE	T	Ich Offset Enable
ICHOFFSET	QUANT	0	Ich Offset (V)
ICHFILTER	IQUANT	3	Ich Filter
VCHRANGE	IQUANT	2	Vch Range
VCHRANGEMODE	TOGGLE	F	Vch Auto Range
VCHOFFSETENABLE	TOGGLE	T	Vch Offset Enable
VCHOFFSET	QUANT	0	Vch Offset (V)
VCHFILTER	IQUANT	3	Vch Filter
ACHRANGE	IQUANT	2	Ach Range
ACHOFFSETENABLE	TOGGLE	F	Ach Offset Enable
ACHOFFSET	QUANT	0	Ach Offset (V)
ACHFILTER	IQUANT	3	Ach Filter
IERANGELOWERLIMIT	IQUANT	2	I/E Range Lower Limit
IERANGEMODE	TOGGLE	F	I/E AutoRange
IERANGE	IQUANT	11	I/E Range
POSFEEDENABLE	TOGGLE	F	Positive Feedback IR Comp
POSFEEDRESISTANCE	QUANT	0	Positive Feedback Resistance (ohm)
ACHSELECT	IQUANT	0	Ach Select
CABLEID	IQUANT	13	Cable ID
DCCALDATE	LABEL	7/31/2020	DC Calibration Date
ACCALDATE	LABEL	7/31/2020	AC Calibration Date
THERMOSELECT	IQUANT	1	Thermo Select
FRAMEWORKVERSION	QUANT	6.33	Framework Version
INSTRUMENTVERSION	LABEL	3.50	Instrument Version
COMPLIANCEVOLTAGE	IQUANT	0	Compliance Voltage
ZCURVE	TABLE
	Pt	Time	Freq	Zreal	Zimag	Zsig	Zmod	Zphz	Idc	Vdc	IERange
	#	s	Hz	ohm	ohm	V	ohm	°	A	V	#
	0	13	300046.9	401.7001	-38.31362	1	403.5231	-5.448314	-1.921974E-005	0.0009236	9
	1	27	238359.4	412.3155	-33.5974	1	413.682	-4.658437	-1.684427E-005	0.0010008	9
	2	32	189328.1	418.751	-30.2983	1	419.8456	-4.138366	2.255741E-005	-0.0016908	9
	3	39	150421.9	426.8044	-23.09249	1	427.4287	-3.097	-8.217762E-005	0.0037377	9
	4	46	119484.4	433.2301	-20.23237	1	433.7023	-2.673839	-8.331005E-005	0.0037338	9
	5	54	94921.88	439.6148	-16.33788	1	439.9183	-2.128365	2.819467E-005	-0.0008089	9
	6	56	75421.88	442.7059	-3.597277	1	442.7206	-0.4655556	-1.488358E-005	0.0050079	8
	7	59	59859.37	446.0058	-3.330768	1	446.0182	-0.4278765	-1.101008E-005	0.001627	8
	8	61	47578.12	447.0632	-3.081919	1	447.0738	-0.3949736	-1.297823E-005	0.0028615	8
	9	64	37828.12	449.6122	-2.557028	1	449.6195	-0.3258482	-1.226422E-005	0.0063296	8
	10	66	30046.88	452.2033	-3.053838	1	452.2137	-0.3869263	-2.069049E-006	-0.0019972	8
	11	69	23859.38	455.5035	-2.76566	1	455.5119	-0.3478759	2.984225E-006	-0.0036014	8
	12	71	18984.38	457.2383	-2.734371	1	457.2464	-0.3426355	7.72104E-006	-0.0046019	8
	13	73	15046.87	459.6632	-0.9386683	1	459.6642	-0.1170023	-1.117488E-005	0.0016589	8
	14	76	11953.13	462.9524	-2.261874	1	462.9579	-0.2799312	-1.315645E-005	0.0068075	8
	15	78	9515.62	465.0182	-2.327316	1	465.024	-0.2867506	-1.98379E-006	-0.0021939	8
	16	80	7546.875	467.4103	-3.261617	1	467.4217	-0.3998069	-1.243826E-005	0.0063064	8
	17	83	5928.309	470.7975	-3.090042	1	470.8076	-0.3760509	-2.433965E-006	-0.0019448	8
	18	85	4733.456	472.4013	-2.465983	1	472.4078	-0.299087	-1.269656E-005	0.0064996	8
	19	87	3796.875	475.8739	-3.387181	1	475.886	-0.4078137	-1.30048E-005	0.0021307	8
	20	90	2987.132	478.8581	-4.182034	1	478.8763	-0.5003712	-9.51835E-006	0.0064318	8
	21	92	2390.625	480.5064	-4.894196	1	480.5313	-0.5835658	-1.370997E-005	0.0056153	8
	22	95	1884.191	478.9532	-4.738585	1	478.9767	-0.5668446	6.526773E-007	0.0041815	8
	23	97	1516.544	487.1888	-7.926444	1	487.2533	-0.9321062	3.089833E-006	-0.0037055	8
	24	99	1193.986	488.5336	-8.549786	1	488.6084	-1.002626	1.516496E-005	-0.0022174	8
	25	102	946.5144	492.0777	-11.07978	1	492.2025	-1.289872	6.707761E-006	0.0020045	8
	26	104	751.7689	495.4501	-13.52656	1	495.6347	-1.563875	7.380674E-007	0.0041498	8
	27	106	597.4265	498.1752	-17.83829	1	498.4944	-2.050729	-4.803775E-006	0.0056583	8
	28	109	477.4305	500.8222	-20.38849	1	501.2371	-2.331226	-6.922119E-009	0.0006714	8
	29	111	376.6741	504.0356	-25.40316	1	504.6753	-2.88524	1.06892E-008	0.0006607	8
	30	113	298.2954	507.3936	-31.57866	1	508.3753	-3.561325	6.12342E-009	0.0006582	8
	31	116	237.7717	511.0164	-39.04186	1	512.5057	-4.368933	2.776374E-009	0.0006614	8
	32	118	189.0121	514.8203	-48.42096	1	517.0924	-5.373096	-3.174629E-009	0.0006515	8
	33	121	150.2404	518.8581	-60.07691	1	522.3246	-6.604684	-3.401152E-008	0.0006795	8
	34	123	119.1737	523.2574	-74.70737	1	528.5637	-8.125413	-2.324092E-008	0.0006755	8
	35	125	95.0169	528.1317	-92.43803	1	536.1603	-9.92782	-1.742895E-008	0.0006575	8
	36	128	75.60484	533.6964	-114.5722	1	545.8559	-12.11618	6.430194E-009	0.0006465	8
	37	131	54.50582	541.649	-155.6376	1	563.566	-16.03149	8.806843E-009	0.0006571	8
	38	133	45.95588	547.9836	-182.5407	1	577.5873	-18.42361	-9.206342E-010	0.0006549	8
	39	136	37.20238	555.9237	-222.2821	1	598.7157	-21.79364	-7.647925E-008	0.000687	8
	40	138	30.04808	565.4431	-271.0384	1	627.0468	-25.61017	5.231295E-010	0.0006697	8
	41	140	23.91582	577.1851	-334.6714	1	667.1938	-30.10661	4.040466E-008	0.0006559	8
	42	143	18.60119	592.5766	-421.7978	1	727.3654	-35.44337	-3.033981E-008	0.0006489	8
	43	145	15.02404	608.6542	-512.7632	1	795.8555	-40.1126	-1.38701E-008	0.0006639	8
	44	147	12.01923	629.0164	-628.5118	1	889.2068	-44.97701	-4.63018E-008	0.0006493	8
	45	150	9.450605	654.9582	-782.2658	1	1020.25	-50.06198	-7.375324E-008	0.0006615	8
	46	152	7.512019	685.4691	-963.957	1	1182.827	-54.58339	-6.780893E-008	0.0006629	8
	47	155	5.978954	721.7358	-1186.256	1	1388.562	-58.68304	-5.942338E-008	0.0006735	8
	48	158	4.734848	767.3107	-1467.823	1	1656.282	-62.40149	3.613633E-008	0.0006692	8
	49	161	3.75601	823.0051	-1810.431	1	1988.718	-65.55389	-1.118637E-008	0.0006348	8
	50	165	3.004808	888.5429	-2216.506	1	2387.971	-68.15536	-2.33253E-008	0.0006805	8
	51	169	2.372217	974.351	-2751.016	1	2918.467	-70.49695	-1.277224E-008	0.0007337	8
	52	173	1.878005	1075.82	-3401.364	1	3567.446	-72.44832	-2.305944E-008	0.000631	8
	53	178	1.512097	1199.973	-4144.737	1	4314.949	-73.85336	-2.338788E-009	0.0007146	7
	54	183	1.201923	1344.737	-5118.663	1	5292.355	-75.2803	-1.074242E-008	0.0006053	7
	55	189	0.956633	1518.685	-6303.101	1	6483.478	-76.45322	-2.605667E-008	-9.481859E-006	7
