EXPLAIN
TAG	EISPOT
TITLE	LABEL	Potentiostatic EIS	Test Identifier
DATE	LABEL	2/27/2021	Date
TIME	LABEL	23:47:06	Time
NOTES	NOTES	1	Notes...
	
PSTAT	PSTAT	REF3000-16137	Potentiostat
VDC	POTEN	0.00000E+000	T	DC Voltage (V)
FREQINIT	QUANT	3.00000E+005	Initial Freq. (Hz)
FREQFINAL	QUANT	1.00000E+000	Final Freq. (Hz)
PTSPERDEC	QUANT	1.00000E+001	Points/decade
VAC	QUANT	5.00000E+001	AC Voltage (mV rms)
AREA	QUANT	1.00000E+000	Sample Area (cm^2)
SPEED	SELECTOR	2	Optimize for:
ZGUESS	QUANT	1.00000E+003	Estimated Z (ohms)
EOC	QUANT	0	Open Circuit (V)
SEQUENCER	TOGGLE	TRUE	Run as Sequence
PSTATMODEL	IQUANT	5	Pstat Model
PSTATSECTION	LABEL	REF3000-16137	Pstat Section
PSTATSERIALNO	LABEL	16137	Pstat Serial Number
CTRLMODE	IQUANT	1	Control Mode
IESTAB	IQUANT	0	I/E Stability
CASPEED	IQUANT	1	Control Amp Speed
CONVENTION	IQUANT	1	Current Convention
ICHRANGE	IQUANT	2	Ich Range
ICHRANGEMODE	TOGGLE	F	Ich Auto Range
ICHOFFSETENABLE	TOGGLE	T	Ich Offset Enable
ICHOFFSET	QUANT	0	Ich Offset (V)
ICHFILTER	IQUANT	3	Ich Filter
VCHRANGE	IQUANT	2	Vch Range
VCHRANGEMODE	TOGGLE	F	Vch Auto Range
VCHOFFSETENABLE	TOGGLE	T	Vch Offset Enable
VCHOFFSET	QUANT	0	Vch Offset (V)
VCHFILTER	IQUANT	3	Vch Filter
ACHRANGE	IQUANT	2	Ach Range
ACHOFFSETENABLE	TOGGLE	F	Ach Offset Enable
ACHOFFSET	QUANT	0	Ach Offset (V)
ACHFILTER	IQUANT	3	Ach Filter
IERANGELOWERLIMIT	IQUANT	2	I/E Range Lower Limit
IERANGEMODE	TOGGLE	F	I/E AutoRange
IERANGE	IQUANT	11	I/E Range
POSFEEDENABLE	TOGGLE	F	Positive Feedback IR Comp
POSFEEDRESISTANCE	QUANT	0	Positive Feedback Resistance (ohm)
ACHSELECT	IQUANT	0	Ach Select
CABLEID	IQUANT	13	Cable ID
DCCALDATE	LABEL	7/31/2020	DC Calibration Date
ACCALDATE	LABEL	7/31/2020	AC Calibration Date
THERMOSELECT	IQUANT	1	Thermo Select
FRAMEWORKVERSION	QUANT	6.33	Framework Version
INSTRUMENTVERSION	LABEL	3.50	Instrument Version
COMPLIANCEVOLTAGE	IQUANT	0	Compliance Voltage
ZCURVE	TABLE
	Pt	Time	Freq	Zreal	Zimag	Zsig	Zmod	Zphz	Idc	Vdc	IERange
	#	s	Hz	ohm	ohm	V	ohm	°	A	V	#
	0	20	300046.9	144.9621	-4375.906	1	4378.307	-88.10264	-1.618521E-005	0.001021	9
	1	34	238359.4	304.4802	-5409.904	1	5418.465	-86.77868	-2.308877E-005	0.0010876	9
	2	51	189328.1	902.6547	-7142.017	1	7198.833	-82.79678	1.97063E-005	-0.0019857	9
	3	61	150421.9	323.8833	-8485.381	1	8491.56	-87.8141	2.644152E-005	-0.0017838	9
	4	68	119484.4	950.1	-10596.96	1	10639.47	-84.87669	-6.022265E-005	0.0069001	8
	5	76	94921.88	1447.873	-12790.47	1	12872.16	-83.54165	-2.448911E-005	0.0110002	8
	6	84	75421.88	2020.342	-15713.35	1	15842.7	-82.6734	-2.42967E-005	0.010924	8
	7	92	59859.37	2279.196	-20289.71	1	20417.32	-83.59068	-1.945122E-005	0.0112408	8
	8	100	47578.12	3163.382	-23941.51	1	24149.59	-82.47313	8.487428E-006	0.0041121	8
	9	109	37828.12	4937.486	-31334.31	1	31720.94	-81.04528	-2.430231E-005	0.0109661	8
	10	118	30046.88	5589.648	-38356.57	1	38761.71	-81.70873	1.760744E-005	0.0003195	8
	11	127	23859.38	11946.95	-48301.17	1	49756.74	-76.10713	5.287921E-006	-0.0263134	7
	12	133	18984.38	16186.2	-59945.69	1	62092.5	-74.88965	-1.266364E-006	-0.012565	7
	13	138	15046.87	21483.37	-72837.48	1	75939.66	-73.56661	-3.314395E-006	-0.0048587	7
	14	143	11953.13	29606.14	-91257.09	1	95939.5	-72.0256	-3.391819E-006	0.0244434	7
	15	150	9515.62	38743.02	-110560.3	1	117152	-70.68829	7.551669E-006	-0.0242263	7
	16	155	7546.875	55646.73	-133987.4	1	145083.4	-67.44624	-1.084394E-006	-0.0128424	7
	17	160	5928.309	64023.03	-162373.3	1	174539.5	-68.48091	5.554375E-007	0.0157358	7
	18	166	4733.456	127074.1	-183677.3	1	223349.9	-55.32321	-7.383231E-007	0.0231278	6
	19	170	3796.875	158723.9	-204675.9	1	259008.6	-52.20682	5.830226E-007	-0.0271975	6
	20	174	2987.132	202839	-222391.9	1	301001.3	-47.63271	-7.265166E-007	0.0175936	6
	21	180	2390.625	246841.4	-238533.6	1	343262.3	-44.01941	-5.345854E-008	-0.0145224	6
	22	185	1884.191	308950.3	-265734.7	1	407511	-40.69952	3.906149E-007	-0.0248335	6
	23	190	1516.544	505724.7	-287432.5	1	581700	-29.61207	3.418598E-006	-0.0240739	7
	24	197	1193.986	411219.1	-239926.3	1	476094.3	-30.26148	-7.354682E-007	0.0230319	6
	25	204	946.5144	482880	-243453.6	1	540779.8	-26.75587	1.727733E-007	-0.0207357	6
	26	207	751.7689	498794.2	-216859.1	1	543896.6	-23.4978	-5.412389E-007	0.0259071	6
	27	211	597.4265	542059.8	-156557.7	1	564215.4	-16.10977	7.23232E-007	-0.0156545	6
	28	215	477.4305	600133.2	-167484.3	1	623065.7	-15.59328	-7.336756E-009	0.000662	6
	29	219	376.6741	663031.4	-82743.5	1	668174.4	-7.113493	-1.022229E-009	0.0006424	5
	30	221	298.2954	673108	-69662.58	1	676703.3	-5.908728	-1.174182E-009	0.0006778	5
	31	223	237.7717	684389.6	-56347.43	1	686705.3	-4.706682	-1.104568E-009	0.0006975	5
	32	226	189.0121	696794.6	-47391.08	1	698404.3	-3.890865	-1.007114E-009	0.0006243	5
	33	229	150.2404	707120.1	-40861.71	1	708299.8	-3.307221	-9.962323E-010	0.000654	5
	34	232	119.1737	726609.7	-27851.79	1	727143.3	-2.195139	-1.103229E-009	0.000707	5
	35	234	95.0169	729735	-29209.43	1	730319.4	-2.29218	-1.188334E-009	0.0007054	5
	36	237	75.60484	739481.6	-20641.5	1	739769.6	-1.598909	-9.511005E-010	0.000685	5
	37	239	54.50582	754827.7	-7864.782	1	754868.7	-0.5969607	-9.77204E-010	0.0006102	5
	38	242	45.95588	767718.6	-18693.65	1	767946.2	-1.394855	-9.374455E-010	0.0006373	5
	39	244	37.20238	777216.3	-12584.93	1	777318.1	-0.9276701	-1.02594E-009	0.000634	5
	40	247	30.04808	788144.4	-11985.43	1	788235.5	-0.8712383	-1.161033E-009	0.0007063	5
	41	250	23.91582	800716.7	-8641.575	1	800763.3	-0.6183293	-1.064872E-009	0.0006107	5
	42	252	18.60119	809295.8	-9002.726	1	809345.8	-0.6373404	-7.608082E-010	0.0006272	5
	43	255	15.02404	824980.6	-7883.507	1	825018.3	-0.5475013	-8.757601E-010	0.0006677	5
	44	257	12.01923	836517.5	-7162.583	1	836548.2	-0.4905764	-8.77062E-010	0.0006991	5
	45	260	9.450605	850042.6	-6718.608	1	850069.2	-0.4528477	-8.996963E-010	0.0006659	5
	46	263	7.512019	865532.8	-6763.663	1	865559.2	-0.4477259	-1.122641E-009	0.0006967	5
	47	266	5.978954	884408.1	-6505.747	1	884432	-0.4214628	-1.15596E-009	0.000638	5
	48	270	4.734848	904778.1	-6770.414	1	904803.4	-0.4287338	-9.024629E-010	0.0006345	5
	49	274	3.75601	929127.2	-7293.307	1	929155.8	-0.4497415	-6.687202E-010	0.0007318	5
	50	279	3.004808	962531	-8641.892	1	962570	-0.5144048	-7.991432E-010	0.0006892	5
	51	285	2.372217	992703	-8764.137	1	992741	-0.5058261	-7.3809E-010	0.0006561	5
	52	290	1.878005	1019613	-10400.56	1	1019666	-0.584425	-5.899775E-010	0.0006539	5
	53	294	1.512097	1051265	-12249.2	1	1051337	-0.6675722	-5.254044E-010	0.0006499	5
	54	300	1.201923	1088350	-14197.91	1	1088443	-0.747401	-6.956104E-010	0.0006829	5
	55	306	0.956633	1131490	-17824.34	1	1131630	-0.9025046	-1.774735E-009	1.410353E-005	5
