EXPLAIN
TAG	EISPOT
TITLE	LABEL	Potentiostatic EIS	Test Identifier
DATE	LABEL	2/27/2021	Date
TIME	LABEL	23:41:35	Time
NOTES	NOTES	1	Notes...
	
PSTAT	PSTAT	REF3000-16137	Potentiostat
VDC	POTEN	0.00000E+000	T	DC Voltage (V)
FREQINIT	QUANT	3.00000E+005	Initial Freq. (Hz)
FREQFINAL	QUANT	1.00000E+000	Final Freq. (Hz)
PTSPERDEC	QUANT	1.00000E+001	Points/decade
VAC	QUANT	5.00000E+001	AC Voltage (mV rms)
AREA	QUANT	1.00000E+000	Sample Area (cm^2)
SPEED	SELECTOR	2	Optimize for:
ZGUESS	QUANT	1.00000E+003	Estimated Z (ohms)
EOC	QUANT	0	Open Circuit (V)
SEQUENCER	TOGGLE	TRUE	Run as Sequence
PSTATMODEL	IQUANT	5	Pstat Model
PSTATSECTION	LABEL	REF3000-16137	Pstat Section
PSTATSERIALNO	LABEL	16137	Pstat Serial Number
CTRLMODE	IQUANT	1	Control Mode
IESTAB	IQUANT	0	I/E Stability
CASPEED	IQUANT	1	Control Amp Speed
CONVENTION	IQUANT	1	Current Convention
ICHRANGE	IQUANT	2	Ich Range
ICHRANGEMODE	TOGGLE	F	Ich Auto Range
ICHOFFSETENABLE	TOGGLE	T	Ich Offset Enable
ICHOFFSET	QUANT	0	Ich Offset (V)
ICHFILTER	IQUANT	3	Ich Filter
VCHRANGE	IQUANT	2	Vch Range
VCHRANGEMODE	TOGGLE	F	Vch Auto Range
VCHOFFSETENABLE	TOGGLE	T	Vch Offset Enable
VCHOFFSET	QUANT	0	Vch Offset (V)
VCHFILTER	IQUANT	3	Vch Filter
ACHRANGE	IQUANT	2	Ach Range
ACHOFFSETENABLE	TOGGLE	F	Ach Offset Enable
ACHOFFSET	QUANT	0	Ach Offset (V)
ACHFILTER	IQUANT	3	Ach Filter
IERANGELOWERLIMIT	IQUANT	2	I/E Range Lower Limit
IERANGEMODE	TOGGLE	F	I/E AutoRange
IERANGE	IQUANT	11	I/E Range
POSFEEDENABLE	TOGGLE	F	Positive Feedback IR Comp
POSFEEDRESISTANCE	QUANT	0	Positive Feedback Resistance (ohm)
ACHSELECT	IQUANT	0	Ach Select
CABLEID	IQUANT	13	Cable ID
DCCALDATE	LABEL	7/31/2020	DC Calibration Date
ACCALDATE	LABEL	7/31/2020	AC Calibration Date
THERMOSELECT	IQUANT	1	Thermo Select
FRAMEWORKVERSION	QUANT	6.33	Framework Version
INSTRUMENTVERSION	LABEL	3.50	Instrument Version
COMPLIANCEVOLTAGE	IQUANT	0	Compliance Voltage
ZCURVE	TABLE
	Pt	Time	Freq	Zreal	Zimag	Zsig	Zmod	Zphz	Idc	Vdc	IERange
	#	s	Hz	ohm	ohm	V	ohm	°	A	V	#
	0	17	300046.9	526.8289	-4143.569	1	4176.926	-82.75407	-2.394266E-007	0.0014926	9
	1	31	238359.4	729.3223	-5090.141	1	5142.125	-81.84608	-2.016205E-005	0.0010859	9
	2	48	189328.1	1606.698	-6311.872	1	6513.157	-75.71856	-2.933361E-005	-0.0009986	9
	3	61	150421.9	1514.052	-7085.838	1	7245.789	-77.93881	-0.0001063	0.0038043	9
	4	68	119484.4	1998.552	-9400.108	1	9610.22	-77.9971	-2.763632E-005	-0.0009407	9
	5	79	94921.88	3335.468	-11559.64	1	12031.24	-73.90481	-1.154778E-005	0.0100835	8
	6	87	75421.88	4420.211	-14329.31	1	14995.58	-72.8564	2.61161E-005	-0.0089753	8
	7	96	59859.37	6329.233	-17340.28	1	18459.26	-69.94782	-2.042108E-005	0.0029427	8
	8	105	47578.12	8412.113	-20566.54	1	22220.4	-67.75449	1.612715E-005	-0.0091043	8
	9	113	37828.12	14529.38	-24228.47	1	28251.05	-59.04963	-1.71663E-006	0.0213096	7
	10	120	30046.88	16095.89	-27732.88	1	32065.41	-59.86953	-2.066757E-005	0.0030305	8
	11	129	23859.38	21140.34	-32728.29	1	38962.22	-57.14017	8.758051E-006	0.0039973	8
	12	135	18984.38	30516.25	-35122.23	1	46527.55	-49.01398	-5.156312E-006	0.0036443	7
	13	140	15046.87	35564.41	-41201.02	1	54427.49	-49.19949	-2.047122E-005	0.0029011	8
	14	147	11953.13	45225.16	-34838.32	1	57087.86	-37.60815	-2.332673E-005	0.005159	8
	15	153	9515.62	56492.27	-40392.41	1	69447.27	-35.56506	2.334767E-005	-0.0028411	8
	16	161	7546.875	61393.27	-39519.52	1	73013.19	-32.76983	-2.431486E-005	0.0109576	8
	17	170	5928.309	71055.87	-57215.2	1	91227.82	-38.84151	8.686528E-006	0.004058	8
	18	177	4733.456	85469.62	-35608.76	1	92590.71	-22.61782	-6.564459E-006	0.0119537	7
	19	184	3796.875	88322.56	-33608.53	1	94500.84	-20.83284	-1.735909E-006	0.0212866	7
	20	189	2987.132	96370.5	-31829.84	1	101490.9	-18.27768	-1.658504E-006	0.0212244	7
	21	196	2390.625	100939.1	-25430.04	1	104093.2	-14.14051	6.614098E-006	-0.0103451	7
	22	201	1884.191	105558.6	-18160.7	1	107109.4	-9.76182	-5.155713E-006	0.0259313	7
	23	207	1516.544	106930.2	-16043.22	1	108127	-8.532699	7.500087E-006	-0.0238284	7
	24	213	1193.986	116745.6	-15758.94	1	117804.4	-7.687621	3.398138E-006	-0.0238264	7
	25	219	946.5144	120238.8	-20062.5	1	121901.1	-9.472845	4.86204E-006	-0.0009461	7
	26	223	751.7689	129443.2	4993.381	1	129539.5	2.209138	-1.04185E-006	-0.0126567	7
	27	228	597.4265	140650.3	-14220.85	1	141367.4	-5.773433	-5.228435E-006	0.0039944	7
	28	233	477.4305	129135.8	-7947.319	1	129380.1	-3.521674	-7.256131E-008	0.0006753	7
	29	237	376.6741	131094	-5116.092	1	131193.8	-2.234899	-8.457417E-009	0.0006283	6
	30	239	298.2954	132747.3	-4476.605	1	132822.8	-1.931439	-8.662608E-009	0.0006917	6
	31	241	237.7717	134405.3	-3562.736	1	134452.5	-1.518407	-8.588204E-009	0.0006963	6
	32	244	189.0121	136061.6	-2937.058	1	136093.3	-1.236608	-7.8917E-009	0.0006278	6
	33	246	150.2404	137965	-2480.72	1	137987.3	-1.030112	-8.652979E-009	0.0007208	6
	34	249	119.1737	139320.6	-1983.003	1	139334.7	-0.8154576	-8.439185E-009	0.0006938	6
	35	251	95.0169	141321.2	-1763.64	1	141332.2	-0.7149942	-7.779062E-009	0.0006326	6
	36	254	75.60484	143094.9	-1700.351	1	143105	-0.6807953	-8.144429E-009	0.0006994	6
	37	256	54.50582	145145.9	-2017.737	1	145159.9	-0.7964424	-8.158073E-009	0.000683	6
	38	259	45.95588	146740.9	-1220.427	1	146746	-0.4765112	-9.489701E-009	0.0007264	6
	39	261	37.20238	148465	-1242.801	1	148470.2	-0.4796118	-8.269152E-009	0.0006376	6
	40	264	30.04808	150441.7	-1177.847	1	150446.3	-0.4485744	-8.347434E-009	0.0007204	6
	41	267	23.91582	152546.8	-1427.135	1	152553.5	-0.5360089	-1.042003E-008	0.0007088	6
	42	269	18.60119	154034.7	-1394.89	1	154041	-0.5188383	-9.300448E-009	0.000715	6
	43	271	15.02404	156075.7	-1418.182	1	156082.1	-0.5206037	-7.332864E-009	0.0007101	6
	44	274	12.01923	157952.9	-1528.127	1	157960.3	-0.5542951	-5.987955E-009	0.0007218	6
	45	276	9.450605	160043.2	-1810.682	1	160053.4	-0.6482003	-8.740501E-009	0.0006562	6
	46	279	7.512019	162300.6	-2138.537	1	162314.7	-0.7549083	-6.036175E-009	0.0006505	6
	47	282	5.978954	165343.9	-2525.89	1	165363.2	-0.8752157	-7.572684E-009	0.0006703	6
	48	286	4.734848	168505.3	-3188.342	1	168535.4	-1.083982	-7.551811E-009	0.0006933	6
	49	289	3.75601	172430.3	-3803.247	1	172472.3	-1.263552	-5.579048E-009	0.000707	6
	50	295	3.004808	177706.5	-4646.036	1	177767.3	-1.497624	-1.034873E-008	0.0007461	6
	51	301	2.372217	182673.9	-5569.508	1	182758.8	-1.746338	-5.918524E-009	0.0007308	6
	52	306	1.878005	186934.9	-6973.821	1	187064.9	-2.136494	-8.445569E-009	0.0006555	6
	53	310	1.512097	191949	-8630.876	1	192143	-2.574537	-1.088658E-008	0.0007755	6
	54	316	1.201923	198140.3	-10527.63	1	198419.8	-3.041391	-4.693949E-009	0.0006592	6
	55	322	0.956633	205468.8	-12996.57	1	205879.4	-3.619323	-1.895261E-008	4.066216E-005	6
