EXPLAIN
TAG	EISPOT
TITLE	LABEL	Potentiostatic EIS	Test Identifier
DATE	LABEL	2/27/2021	Date
TIME	LABEL	23:04:48	Time
NOTES	NOTES	1	Notes...
	
PSTAT	PSTAT	REF3000-16137	Potentiostat
VDC	POTEN	0.00000E+000	T	DC Voltage (V)
FREQINIT	QUANT	3.00000E+005	Initial Freq. (Hz)
FREQFINAL	QUANT	1.00000E+000	Final Freq. (Hz)
PTSPERDEC	QUANT	1.00000E+001	Points/decade
VAC	QUANT	5.00000E+001	AC Voltage (mV rms)
AREA	QUANT	1.00000E+000	Sample Area (cm^2)
SPEED	SELECTOR	2	Optimize for:
ZGUESS	QUANT	1.00000E+003	Estimated Z (ohms)
EOC	QUANT	0	Open Circuit (V)
SEQUENCER	TOGGLE	TRUE	Run as Sequence
PSTATMODEL	IQUANT	5	Pstat Model
PSTATSECTION	LABEL	REF3000-16137	Pstat Section
PSTATSERIALNO	LABEL	16137	Pstat Serial Number
CTRLMODE	IQUANT	1	Control Mode
IESTAB	IQUANT	0	I/E Stability
CASPEED	IQUANT	1	Control Amp Speed
CONVENTION	IQUANT	1	Current Convention
ICHRANGE	IQUANT	2	Ich Range
ICHRANGEMODE	TOGGLE	F	Ich Auto Range
ICHOFFSETENABLE	TOGGLE	T	Ich Offset Enable
ICHOFFSET	QUANT	0	Ich Offset (V)
ICHFILTER	IQUANT	3	Ich Filter
VCHRANGE	IQUANT	2	Vch Range
VCHRANGEMODE	TOGGLE	F	Vch Auto Range
VCHOFFSETENABLE	TOGGLE	T	Vch Offset Enable
VCHOFFSET	QUANT	0	Vch Offset (V)
VCHFILTER	IQUANT	3	Vch Filter
ACHRANGE	IQUANT	2	Ach Range
ACHOFFSETENABLE	TOGGLE	F	Ach Offset Enable
ACHOFFSET	QUANT	0	Ach Offset (V)
ACHFILTER	IQUANT	3	Ach Filter
IERANGELOWERLIMIT	IQUANT	2	I/E Range Lower Limit
IERANGEMODE	TOGGLE	F	I/E AutoRange
IERANGE	IQUANT	11	I/E Range
POSFEEDENABLE	TOGGLE	F	Positive Feedback IR Comp
POSFEEDRESISTANCE	QUANT	0	Positive Feedback Resistance (ohm)
ACHSELECT	IQUANT	0	Ach Select
CABLEID	IQUANT	13	Cable ID
DCCALDATE	LABEL	7/31/2020	DC Calibration Date
ACCALDATE	LABEL	7/31/2020	AC Calibration Date
THERMOSELECT	IQUANT	1	Thermo Select
FRAMEWORKVERSION	QUANT	6.33	Framework Version
INSTRUMENTVERSION	LABEL	3.50	Instrument Version
COMPLIANCEVOLTAGE	IQUANT	0	Compliance Voltage
ZCURVE	TABLE
	Pt	Time	Freq	Zreal	Zimag	Zsig	Zmod	Zphz	Idc	Vdc	IERange
	#	s	Hz	ohm	ohm	V	ohm	°	A	V	#
	0	7	300046.9	108.0729	0.5455248	1	108.0743	0.2892121	-8.388713E-005	0.0026012	9
	1	10	238359.4	108.6917	0.2233621	1	108.6919	0.117743	-2.764483E-005	-0.0006015	9
	2	13	189328.1	109.146	-0.1008298	1	109.146	-0.0529302	2.140212E-005	-0.0005601	9
	3	15	150421.9	109.8709	-0.1774735	1	109.8711	-0.0925493	6.466157E-005	-0.001534	9
	4	18	119484.4	110.3686	-0.0901959	1	110.3686	-0.0468235	-7.856484E-005	0.002794	9
	5	21	94921.88	110.883	0.0625198	1	110.883	0.0323054	-1.40328E-005	0.0001359	9
	6	23	75421.88	111.3824	-0.0718648	1	111.3825	-0.0369677	-6.092551E-006	0.0007324	9
	7	26	59859.37	111.8952	-0.2571777	1	111.8955	-0.1316873	2.386286E-005	-0.0006088	9
	8	28	47578.12	112.4687	-0.3203896	1	112.4692	-0.163218	-1.653256E-005	0.0003541	9
	9	31	37828.12	112.9132	-0.3543074	1	112.9138	-0.1797862	2.379807E-006	0.0005309	9
	10	33	30046.88	113.4092	-0.499712	1	113.4103	-0.2524592	2.082565E-005	-0.0002843	9
	11	36	23859.38	114.0574	-0.6110245	1	114.059	-0.3069401	2.176901E-005	-0.0003809	9
	12	38	18984.38	114.3584	-0.6692231	1	114.3604	-0.33529	1.917711E-005	-0.0006915	9
	13	40	15046.87	114.913	-0.7726588	1	114.9156	-0.385243	-1.661802E-005	0.0003685	9
	14	43	11953.13	115.2993	-0.8654302	1	115.3026	-0.4300508	2.477361E-005	-0.0005995	9
	15	45	9515.62	115.7929	-1.11241	1	115.7982	-0.5504178	2.188392E-005	-0.0002606	9
	16	47	7546.875	116.2409	-1.275559	1	116.2479	-0.6287048	1.893487E-005	-0.0006703	9
	17	50	5928.309	116.7814	-1.677987	1	116.7934	-0.8232042	2.432419E-005	-0.0005501	9
	18	52	4733.456	117.254	-1.982734	1	117.2708	-0.968764	1.863919E-005	-8.586774E-005	9
	19	54	3796.875	117.8234	-2.450844	1	117.8489	-1.191637	-1.908236E-005	0.0004978	9
	20	57	2987.132	118.2969	-3.127799	1	118.3382	-1.514562	-6.339564E-006	0.0007408	9
	21	59	2390.625	118.8177	-3.878947	1	118.881	-1.869825	-1.827664E-005	0.0009163	9
	22	61	1884.191	119.3389	-4.746034	1	119.4333	-2.277417	1.353601E-005	-0.0006383	9
	23	64	1516.544	119.9781	-5.918619	1	120.124	-2.824158	-1.686839E-005	0.0003593	9
	24	66	1193.986	120.5549	-7.42878	1	120.7835	-3.526197	1.957973E-005	-0.0007097	9
	25	68	946.5144	121.2178	-9.195779	1	121.5661	-4.338242	1.311698E-005	-0.0006492	9
	26	71	751.7689	121.9147	-11.49114	1	122.455	-5.384539	5.81353E-006	-0.0004894	9
	27	73	597.4265	122.6916	-14.18295	1	123.5087	-6.594029	-1.985932E-005	0.0005083	9
	28	75	477.4305	123.5233	-17.50491	1	124.7574	-8.065873	1.444311E-006	8.682152E-005	9
	29	78	376.6741	124.442	-21.89467	1	126.3534	-9.97865	1.264292E-006	8.528516E-005	9
	30	80	298.2954	125.4795	-27.27867	1	128.4104	-12.265	1.227661E-006	8.764635E-005	9
	31	82	237.7717	126.6777	-33.76964	1	131.1016	-14.92674	1.292349E-006	8.540981E-005	9
	32	85	189.0121	128.0765	-41.90301	1	134.757	-18.11663	1.35483E-006	8.498582E-005	9
	33	87	150.2404	129.7477	-51.97117	1	139.7693	-21.82886	1.352975E-006	8.323454E-005	9
	34	90	119.1737	131.7541	-64.54452	1	146.7145	-26.0996	1.222128E-006	9.206545E-005	9
	35	92	95.0169	134.1422	-79.71195	1	156.0389	-30.72025	1.235993E-006	8.070013E-005	9
	36	95	75.60484	137.0814	-98.5608	1	168.8358	-35.71592	1.261538E-006	8.292333E-005	9
	37	97	54.50582	142.1898	-133.3527	1	194.9382	-43.16306	1.322511E-006	8.508348E-005	9
	38	100	45.95588	145.7491	-156.0883	1	213.5565	-46.96185	1.301224E-006	8.974349E-005	9
	39	102	37.20238	150.7664	-189.5853	1	242.2253	-51.50676	1.332764E-006	8.851099E-005	9
	40	104	30.04808	156.9462	-230.7488	1	279.0647	-55.77801	1.355977E-006	8.734222E-005	9
	41	107	23.91582	164.8673	-284.4937	1	328.8128	-59.90723	1.289448E-006	8.441554E-005	9
	42	109	18.60119	175.5596	-358.1742	1	398.8858	-63.88815	1.336334E-006	8.182166E-005	9
	43	111	15.02404	186.0856	-433.7055	1	471.941	-66.77778	1.796555E-007	0.0006548	8
	44	114	12.01923	200.5132	-531.8322	1	568.3757	-69.34238	2.623838E-007	0.000662	8
	45	116	9.450605	219.3753	-662.3787	1	697.7615	-71.67548	1.964386E-007	0.0006784	8
	46	119	7.512019	241.5857	-816.5236	1	851.513	-73.51804	2.43623E-007	0.0006835	8
	47	122	5.978954	268.3256	-1005.351	1	1040.542	-75.05623	2.631924E-007	0.0006593	8
	48	125	4.734848	301.5028	-1244.662	1	1280.659	-76.38316	1.899241E-007	0.0006587	8
	49	128	3.75601	340.6106	-1537.305	1	1574.586	-77.50716	2.435101E-007	0.0006653	8
	50	131	3.004808	385.6223	-1883.478	1	1922.549	-78.4292	2.17381E-007	0.0006682	8
	51	135	2.372217	443.8397	-2337.639	1	2379.402	-79.24941	2.140309E-007	0.0006694	8
	52	139	1.878005	517.3403	-2904.698	1	2950.408	-79.90125	2.333751E-007	0.0006464	8
	53	144	1.512097	593.301	-3549.087	1	3598.336	-80.50962	2.163864E-007	0.0007499	8
	54	149	1.201923	704.3799	-4405.135	1	4461.094	-80.91532	3.236729E-008	0.000641	7
	55	156	0.956633	836.2797	-5442.434	1	5506.31	-81.26431	7.531598E-009	-7.075584E-006	7
