EXPLAIN
TAG	EISPOT
TITLE	LABEL	Potentiostatic EIS	Test Identifier
DATE	LABEL	2/27/2021	Date
TIME	LABEL	23:13:06	Time
NOTES	NOTES	1	Notes...
	
PSTAT	PSTAT	REF3000-16137	Potentiostat
VDC	POTEN	0.00000E+000	T	DC Voltage (V)
FREQINIT	QUANT	3.00000E+005	Initial Freq. (Hz)
FREQFINAL	QUANT	1.00000E+000	Final Freq. (Hz)
PTSPERDEC	QUANT	1.00000E+001	Points/decade
VAC	QUANT	5.00000E+001	AC Voltage (mV rms)
AREA	QUANT	1.00000E+000	Sample Area (cm^2)
SPEED	SELECTOR	2	Optimize for:
ZGUESS	QUANT	1.00000E+003	Estimated Z (ohms)
EOC	QUANT	0	Open Circuit (V)
SEQUENCER	TOGGLE	TRUE	Run as Sequence
PSTATMODEL	IQUANT	5	Pstat Model
PSTATSECTION	LABEL	REF3000-16137	Pstat Section
PSTATSERIALNO	LABEL	16137	Pstat Serial Number
CTRLMODE	IQUANT	1	Control Mode
IESTAB	IQUANT	0	I/E Stability
CASPEED	IQUANT	1	Control Amp Speed
CONVENTION	IQUANT	1	Current Convention
ICHRANGE	IQUANT	2	Ich Range
ICHRANGEMODE	TOGGLE	F	Ich Auto Range
ICHOFFSETENABLE	TOGGLE	T	Ich Offset Enable
ICHOFFSET	QUANT	0	Ich Offset (V)
ICHFILTER	IQUANT	3	Ich Filter
VCHRANGE	IQUANT	2	Vch Range
VCHRANGEMODE	TOGGLE	F	Vch Auto Range
VCHOFFSETENABLE	TOGGLE	T	Vch Offset Enable
VCHOFFSET	QUANT	0	Vch Offset (V)
VCHFILTER	IQUANT	3	Vch Filter
ACHRANGE	IQUANT	2	Ach Range
ACHOFFSETENABLE	TOGGLE	F	Ach Offset Enable
ACHOFFSET	QUANT	0	Ach Offset (V)
ACHFILTER	IQUANT	3	Ach Filter
IERANGELOWERLIMIT	IQUANT	2	I/E Range Lower Limit
IERANGEMODE	TOGGLE	F	I/E AutoRange
IERANGE	IQUANT	11	I/E Range
POSFEEDENABLE	TOGGLE	F	Positive Feedback IR Comp
POSFEEDRESISTANCE	QUANT	0	Positive Feedback Resistance (ohm)
ACHSELECT	IQUANT	0	Ach Select
CABLEID	IQUANT	13	Cable ID
DCCALDATE	LABEL	7/31/2020	DC Calibration Date
ACCALDATE	LABEL	7/31/2020	AC Calibration Date
THERMOSELECT	IQUANT	1	Thermo Select
FRAMEWORKVERSION	QUANT	6.33	Framework Version
INSTRUMENTVERSION	LABEL	3.50	Instrument Version
COMPLIANCEVOLTAGE	IQUANT	0	Compliance Voltage
ZCURVE	TABLE
	Pt	Time	Freq	Zreal	Zimag	Zsig	Zmod	Zphz	Idc	Vdc	IERange
	#	s	Hz	ohm	ohm	V	ohm	°	A	V	#
	0	10	300046.9	269.9716	-20.78559	1	270.7706	-4.402617	-3.406462E-006	0.0005944	10
	1	14	238359.4	273.2992	-12.93684	1	273.6052	-2.710119	2.392778E-005	-0.0014792	9
	2	18	189328.1	276.0575	-14.25452	1	276.4253	-2.955902	4.533986E-005	0.0007656	10
	3	23	150421.9	279.2399	-12.28851	1	279.5101	-2.51979	4.54992E-005	0.0008123	10
	4	27	119484.4	281.9645	-9.90393	1	282.1384	-2.011673	1.544051E-005	0.0006354	10
	5	31	94921.88	283.4689	-6.172946	1	283.5361	-1.247502	2.781296E-005	-0.0006019	9
	6	34	75421.88	286.2429	-4.961702	1	286.2859	-0.993059	-1.656088E-005	0.0010312	9
	7	38	59859.37	288.8982	-4.732932	1	288.9369	-0.9385756	-6.625048E-006	-0.0001412	9
	8	42	47578.12	290.4335	-3.985595	1	290.4608	-0.786216	-1.185156E-006	-0.0003826	9
	9	44	37828.12	291.8981	-3.315593	1	291.9169	-0.6507795	-1.821677E-005	0.0003369	9
	10	47	30046.88	294.4872	-2.720569	1	294.4998	-0.5293022	2.646789E-005	-0.0004677	9
	11	51	23859.38	296.3366	-2.217306	1	296.3449	-0.4287014	8.95146E-006	0.0003825	9
	12	54	18984.38	298.1841	-2.200814	1	298.1923	-0.4228766	2.426876E-005	-0.0001903	9
	13	56	15046.87	300.845	-2.161672	1	300.8528	-0.4116823	1.260865E-005	0.0002782	9
	14	59	11953.13	301.2247	-1.97354	1	301.2312	-0.3753805	-8.351289E-006	0.0008514	9
	15	61	9515.62	303.0095	-1.998596	1	303.0161	-0.3779071	-1.831564E-005	0.000353	9
	16	63	7546.875	304.8144	-2.639235	1	304.8258	-0.4960831	-1.423458E-005	9.371546E-005	9
	17	66	5928.309	306.2355	-3.082206	1	306.251	-0.5766523	1.642432E-005	-0.0007924	9
	18	68	4733.456	307.8785	-3.00348	1	307.8932	-0.5589259	2.649987E-005	-0.0004372	9
	19	70	3796.875	309.4943	-2.837573	1	309.5073	-0.525297	-1.860888E-005	0.0002941	9
	20	74	2987.132	311.0793	-3.655169	1	311.1008	-0.6731921	-9.226975E-006	-9.160225E-005	9
	21	76	2390.625	313.1692	-4.38846	1	313.2	-0.8028368	-9.382744E-006	0.0009602	9
	22	79	1884.191	314.6039	-4.515782	1	314.6364	-0.8223594	2.71411E-005	-0.000611	9
	23	81	1516.544	316.0304	-7.530443	1	316.1201	-1.364998	1.125887E-005	0.000333	9
	24	83	1193.986	318.3162	-8.757452	1	318.4366	-1.575913	-2.388908E-005	0.0008761	9
	25	86	946.5144	319.6551	-10.51334	1	319.828	-1.883758	-2.178406E-005	0.0005179	9
	26	88	751.7689	321.7972	-13.31049	1	322.0724	-2.368574	2.683718E-005	-0.0004424	9
	27	91	597.4265	323.2743	-15.71673	1	323.6562	-2.783375	-2.195561E-005	0.0009958	9
	28	93	477.4305	325.5895	-19.4827	1	326.1719	-3.424396	1.225832E-006	8.492038E-005	9
	29	95	376.6741	327.694	-24.30803	1	328.5944	-4.242376	1.205122E-006	7.587542E-005	9
	30	98	298.2954	329.8999	-30.23993	1	331.283	-5.237321	1.216693E-006	8.820194E-005	9
	31	100	237.7717	332.3103	-37.41884	1	334.4104	-6.424564	1.233464E-006	8.510858E-005	9
	32	102	189.0121	334.9253	-46.43184	1	338.1284	-7.892803	1.206209E-006	8.81303E-005	9
	33	105	150.2404	337.8073	-57.62805	1	342.6876	-9.68114	1.259811E-006	8.60662E-005	9
	34	107	119.1737	341.0409	-71.64124	1	348.4844	-11.86342	1.1871E-006	8.436078E-005	9
	35	110	95.0169	344.6896	-88.61935	1	355.8993	-14.41842	1.31199E-006	8.312181E-005	9
	36	112	75.60484	347.5152	-109.3116	1	364.3018	-17.46107	1.531937E-008	0.0006692	8
	37	115	54.50582	354.1905	-148.3422	1	384.0004	-22.72492	4.15191E-008	0.0006472	8
	38	117	45.95588	359.2274	-173.874	1	399.0945	-25.82801	6.328477E-009	0.0006584	8
	39	119	37.20238	365.9367	-211.4821	1	422.6516	-30.02447	-1.235351E-008	0.0006678	8
	40	122	30.04808	374.0502	-257.5762	1	454.1575	-34.55184	3.524677E-008	0.0006593	8
	41	124	23.91582	384.2407	-317.7195	1	498.5846	-39.58654	-4.014244E-009	0.0006553	8
	42	127	18.60119	397.6198	-399.9459	1	563.9665	-45.1671	9.035321E-008	0.0006766	8
	43	129	15.02404	411.6958	-486.0995	1	637.0134	-49.7375	-2.327043E-008	0.0006708	8
	44	131	12.01923	429.4297	-595.8217	1	734.4477	-54.21838	-4.013561E-009	0.0006637	8
	45	134	9.450605	452.5842	-741.9799	1	869.1183	-58.61813	5.730002E-008	0.0006628	8
	46	136	7.512019	479.3507	-914.8998	1	1032.869	-62.34825	3.998808E-008	0.0006379	8
	47	139	5.978954	512.3062	-1125.839	1	1236.92	-65.53237	-6.868919E-009	0.0006681	8
	48	142	4.734848	553.5972	-1392.404	1	1498.419	-68.31804	-8.425996E-009	0.0006418	8
	49	145	3.75601	604.194	-1719.459	1	1822.523	-70.63924	5.240893E-008	0.0006641	8
	50	149	3.004808	663.6986	-2105.413	1	2207.546	-72.50336	1.591248E-008	0.0006307	8
	51	152	2.372217	740.341	-2612.461	1	2715.337	-74.17789	2.107274E-008	0.0005826	8
	52	157	1.878005	831.1842	-3230.822	1	3336.027	-75.57255	3.133483E-008	0.0006674	8
	53	161	1.512097	938.0062	-3934.519	1	4044.786	-76.59074	1.861317E-008	0.0005578	8
	54	167	1.201923	1067.427	-4867.884	1	4983.542	-77.63197	-1.512046E-008	0.0006482	7
	55	173	0.956633	1218.841	-5999.294	1	6121.855	-78.51586	-1.547449E-008	-1.18413E-005	7
