EXPLAIN
TAG	EISPOT
TITLE	LABEL	Potentiostatic EIS	Test Identifier
DATE	LABEL	2/27/2021	Date
TIME	LABEL	21:55:19	Time
NOTES	NOTES	1	Notes...
	
PSTAT	PSTAT	REF3000-16137	Potentiostat
VDC	POTEN	0.00000E+000	T	DC Voltage (V)
FREQINIT	QUANT	3.00000E+005	Initial Freq. (Hz)
FREQFINAL	QUANT	1.00000E+000	Final Freq. (Hz)
PTSPERDEC	QUANT	1.00000E+001	Points/decade
VAC	QUANT	5.00000E+001	AC Voltage (mV rms)
AREA	QUANT	1.00000E+000	Sample Area (cm^2)
SPEED	SELECTOR	2	Optimize for:
ZGUESS	QUANT	1.00000E+003	Estimated Z (ohms)
EOC	QUANT	0	Open Circuit (V)
SEQUENCER	TOGGLE	TRUE	Run as Sequence
PSTATMODEL	IQUANT	5	Pstat Model
PSTATSECTION	LABEL	REF3000-16137	Pstat Section
PSTATSERIALNO	LABEL	16137	Pstat Serial Number
CTRLMODE	IQUANT	1	Control Mode
IESTAB	IQUANT	0	I/E Stability
CASPEED	IQUANT	1	Control Amp Speed
CONVENTION	IQUANT	1	Current Convention
ICHRANGE	IQUANT	2	Ich Range
ICHRANGEMODE	TOGGLE	F	Ich Auto Range
ICHOFFSETENABLE	TOGGLE	T	Ich Offset Enable
ICHOFFSET	QUANT	0	Ich Offset (V)
ICHFILTER	IQUANT	3	Ich Filter
VCHRANGE	IQUANT	2	Vch Range
VCHRANGEMODE	TOGGLE	F	Vch Auto Range
VCHOFFSETENABLE	TOGGLE	T	Vch Offset Enable
VCHOFFSET	QUANT	0	Vch Offset (V)
VCHFILTER	IQUANT	3	Vch Filter
ACHRANGE	IQUANT	2	Ach Range
ACHOFFSETENABLE	TOGGLE	F	Ach Offset Enable
ACHOFFSET	QUANT	0	Ach Offset (V)
ACHFILTER	IQUANT	3	Ach Filter
IERANGELOWERLIMIT	IQUANT	2	I/E Range Lower Limit
IERANGEMODE	TOGGLE	F	I/E AutoRange
IERANGE	IQUANT	11	I/E Range
POSFEEDENABLE	TOGGLE	F	Positive Feedback IR Comp
POSFEEDRESISTANCE	QUANT	0	Positive Feedback Resistance (ohm)
ACHSELECT	IQUANT	0	Ach Select
CABLEID	IQUANT	13	Cable ID
DCCALDATE	LABEL	7/31/2020	DC Calibration Date
ACCALDATE	LABEL	7/31/2020	AC Calibration Date
THERMOSELECT	IQUANT	1	Thermo Select
FRAMEWORKVERSION	QUANT	6.33	Framework Version
INSTRUMENTVERSION	LABEL	3.50	Instrument Version
COMPLIANCEVOLTAGE	IQUANT	0	Compliance Voltage
ZCURVE	TABLE
	Pt	Time	Freq	Zreal	Zimag	Zsig	Zmod	Zphz	Idc	Vdc	IERange
	#	s	Hz	ohm	ohm	V	ohm	°	A	V	#
	0	10	300046.9	3.909176	2.246471	1	4.50869	29.88453	-9.483465E-005	2.87233E-005	10
	1	13	238359.4	3.886329	1.771098	1	4.270872	24.49995	3.21898E-005	-0.0003051	10
	2	16	189328.1	3.866886	1.404317	1	4.11399	19.95924	-1.325278E-005	1.513848E-005	10
	3	19	150421.9	3.846858	1.101237	1	4.001379	15.97479	-5.093967E-005	0.0002453	10
	4	21	119484.4	3.84791	0.855826	1	3.941935	12.53924	1.301431E-005	0.0003444	10
	5	24	94921.88	3.843004	0.6678598	1	3.900604	9.85874	-2.481063E-006	0.0004499	10
	6	27	75421.88	3.843232	0.4970592	1	3.875242	7.369364	1.185568E-005	0.0005216	10
	7	29	59859.37	3.842571	0.3501155	1	3.858488	5.206126	2.536659E-005	0.0005444	10
	8	32	47578.12	3.844825	0.2249448	1	3.851399	3.348322	-1.574292E-005	0.0005895	10
	9	34	37828.12	3.848311	0.111886	1	3.849937	1.665351	1.65915E-005	0.0006099	10
	10	37	30046.88	3.854167	0.0052177	1	3.85417	0.0775661	1.671649E-005	0.0006261	10
	11	39	23859.38	3.860847	-0.0998734	1	3.862139	-1.481811	-1.315369E-005	0.0006697	10
	12	41	18984.38	3.868341	-0.2075408	1	3.873904	-3.071038	-1.319902E-005	0.0006826	10
	13	44	15046.87	3.877419	-0.3264364	1	3.891135	-4.812333	-1.95727E-005	0.0007023	10
	14	46	11953.13	3.887977	-0.4593366	1	3.915017	-6.737853	-8.837671E-006	0.0007137	10
	15	48	9515.62	3.900624	-0.6125531	1	3.948429	-8.924826	9.809269E-006	0.0006542	10
	16	51	7546.875	3.916872	-0.7965232	1	3.997041	-11.49475	1.173255E-005	0.0006614	10
	17	53	5928.309	3.93874	-1.030609	1	4.071342	-14.66324	-2.113509E-005	0.000702	10
	18	55	4733.456	3.964384	-1.296635	1	4.171043	-18.11142	-1.246782E-005	0.0006732	10
	19	58	3796.875	3.995831	-1.614588	1	4.309706	-22.00207	-2.61417E-005	0.0007164	10
	20	60	2987.132	4.039526	-2.039731	1	4.525292	-26.79118	-2.110851E-005	0.0007074	10
	21	62	2390.625	4.09201	-2.525217	1	4.808458	-31.67912	1.966162E-005	0.0006703	10
	22	65	1884.191	4.164017	-3.169839	1	5.233251	-37.28004	-4.882502E-006	0.0006689	10
	23	67	1516.544	4.246418	-3.892851	1	5.76076	-42.51266	-2.725337E-005	0.000708	10
	24	69	1193.986	4.363482	-4.872493	1	6.540731	-48.15448	-3.460445E-006	0.0006679	10
	25	72	946.5144	4.505917	-6.059225	1	7.550993	-53.36382	-1.447632E-005	0.0006762	10
	26	74	751.7689	4.695601	-7.505637	1	8.853432	-57.96949	-1.175584E-005	0.0006799	10
	27	76	597.4265	4.925768	-9.293382	1	10.51809	-62.07508	-2.642001E-005	0.0007016	10
	28	79	477.4305	5.217035	-11.42949	1	12.56386	-65.46548	-2.473923E-006	0.0006893	10
	29	81	376.6741	5.602079	-14.2186	1	15.2824	-68.49573	-2.616288E-006	0.0006886	10
	30	83	298.2954	6.077869	-17.61648	1	18.63548	-70.96503	-2.151086E-006	0.0006907	10
	31	86	237.7717	6.652344	-21.68392	1	22.68141	-72.94467	-2.459585E-006	0.0006882	10
	32	88	189.0121	7.370998	-26.75003	1	27.747	-74.59441	-2.022672E-006	0.0006914	10
	33	90	150.2404	8.260142	-33.00623	1	34.02413	-75.94973	-2.165151E-006	0.0006935	10
	34	93	119.1737	9.372101	-40.8054	1	41.86785	-77.06476	-1.926154E-006	0.0006924	10
	35	95	95.0169	10.71648	-50.16999	1	51.30176	-77.94263	1.230633E-006	8.983468E-005	9
	36	98	75.60484	12.45065	-61.89918	1	63.13895	-78.62705	1.214515E-006	8.800902E-005	9
	37	100	54.50582	15.8553	-83.66002	1	85.14922	-79.26855	1.125847E-006	8.701689E-005	9
	38	103	45.95588	18.23921	-97.9148	1	99.599	-79.44809	1.286067E-006	0.0000989	9
	39	105	37.20238	22.01923	-118.9552	1	120.976	-79.51295	1.300735E-006	0.0000967	9
	40	107	30.04808	26.99092	-144.6988	1	147.1946	-79.43394	1.191921E-006	0.0000957	9
	41	110	23.91582	34.25273	-178.3982	1	181.6568	-79.13139	9.821081E-007	0.0000957	9
	42	112	18.60119	45.27261	-223.9212	1	228.452	-78.56996	1.240291E-006	9.416547E-005	9
	43	115	15.02404	58.07605	-271.3262	1	277.472	-77.91843	1.381035E-006	0.0001042	9
	44	117	12.01923	76.30936	-330.7744	1	339.4626	-77.0092	1.307848E-006	9.156125E-005	9
	45	119	9.450605	103.5513	-408.2617	1	421.1893	-75.76766	1.115981E-006	0.0001201	9
	46	122	7.512019	138.3611	-494.3028	1	513.3021	-74.36245	5.589871E-007	0.0006582	8
	47	125	5.978954	186.7181	-597.3993	1	625.899	-72.64329	5.085034E-007	0.0006766	8
	48	128	4.734848	254.0424	-720.1745	1	763.668	-70.56965	5.698727E-007	0.0006495	8
	49	131	3.75601	343.826	-859.0684	1	925.3187	-68.18716	7.686967E-007	0.0006865	8
	50	134	3.004808	457.6073	-1006.888	1	1105.997	-65.5593	8.277624E-007	0.000656	8
	51	138	2.372217	615.6501	-1173.2	1	1324.924	-62.31124	7.335245E-007	0.0006175	8
	52	142	1.878005	811.621	-1344.117	1	1570.152	-58.87506	8.475215E-007	0.0006741	8
	53	147	1.512097	1028.308	-1494.792	1	1814.337	-55.47488	8.14412E-007	0.0006879	8
	54	152	1.201923	1302.1	-1640.602	1	2094.526	-51.56195	8.236236E-007	0.00068	8
	55	159	0.956633	1601.651	-1761.379	1	2380.702	-47.71923	3.561934E-007	2.04053E-005	8
