EXPLAIN
TAG	EISPOT
TITLE	LABEL	Potentiostatic EIS	Test Identifier
DATE	LABEL	2/26/2021	Date
TIME	LABEL	10:58:52	Time
NOTES	NOTES	1	Notes...
	
PSTAT	PSTAT	REF3000-16137	Potentiostat
VDC	POTEN	0.00000E+000	T	DC Voltage (V)
FREQINIT	QUANT	3.00000E+005	Initial Freq. (Hz)
FREQFINAL	QUANT	1.00000E+000	Final Freq. (Hz)
PTSPERDEC	QUANT	1.00000E+001	Points/decade
VAC	QUANT	5.00000E+001	AC Voltage (mV rms)
AREA	QUANT	1.00000E+000	Sample Area (cm^2)
SPEED	SELECTOR	2	Optimize for:
ZGUESS	QUANT	1.00000E+003	Estimated Z (ohms)
EOC	QUANT	0	Open Circuit (V)
SEQUENCER	TOGGLE	TRUE	Run as Sequence
PSTATMODEL	IQUANT	5	Pstat Model
PSTATSECTION	LABEL	REF3000-16137	Pstat Section
PSTATSERIALNO	LABEL	16137	Pstat Serial Number
CTRLMODE	IQUANT	1	Control Mode
IESTAB	IQUANT	0	I/E Stability
CASPEED	IQUANT	1	Control Amp Speed
CONVENTION	IQUANT	1	Current Convention
ICHRANGE	IQUANT	2	Ich Range
ICHRANGEMODE	TOGGLE	F	Ich Auto Range
ICHOFFSETENABLE	TOGGLE	T	Ich Offset Enable
ICHOFFSET	QUANT	0	Ich Offset (V)
ICHFILTER	IQUANT	3	Ich Filter
VCHRANGE	IQUANT	2	Vch Range
VCHRANGEMODE	TOGGLE	F	Vch Auto Range
VCHOFFSETENABLE	TOGGLE	T	Vch Offset Enable
VCHOFFSET	QUANT	0	Vch Offset (V)
VCHFILTER	IQUANT	3	Vch Filter
ACHRANGE	IQUANT	2	Ach Range
ACHOFFSETENABLE	TOGGLE	F	Ach Offset Enable
ACHOFFSET	QUANT	0	Ach Offset (V)
ACHFILTER	IQUANT	3	Ach Filter
IERANGELOWERLIMIT	IQUANT	2	I/E Range Lower Limit
IERANGEMODE	TOGGLE	F	I/E AutoRange
IERANGE	IQUANT	11	I/E Range
POSFEEDENABLE	TOGGLE	F	Positive Feedback IR Comp
POSFEEDRESISTANCE	QUANT	0	Positive Feedback Resistance (ohm)
ACHSELECT	IQUANT	0	Ach Select
CABLEID	IQUANT	13	Cable ID
DCCALDATE	LABEL	7/31/2020	DC Calibration Date
ACCALDATE	LABEL	7/31/2020	AC Calibration Date
THERMOSELECT	IQUANT	1	Thermo Select
FRAMEWORKVERSION	QUANT	6.33	Framework Version
INSTRUMENTVERSION	LABEL	3.50	Instrument Version
COMPLIANCEVOLTAGE	IQUANT	0	Compliance Voltage
ZCURVE	TABLE
	Pt	Time	Freq	Zreal	Zimag	Zsig	Zmod	Zphz	Idc	Vdc	IERange
	#	s	Hz	ohm	ohm	V	ohm	°	A	V	#
	0	6	300046.9	34.97873	-5.61412	1	35.4264	-9.118261	5.228515E-005	-0.0023611	9
	1	10	238359.4	35.65377	-8.296147	1	36.60624	-13.09887	7.734381E-005	-0.0002951	10
	2	14	189328.1	36.59035	-9.7859	1	37.87635	-14.97303	-5.564246E-005	0.0018232	9
	3	16	150421.9	37.56032	-12.05385	1	39.44709	-17.79246	1.60165E-005	-0.0005094	9
	4	19	119484.4	38.68557	-14.80725	1	41.42256	-20.9448	3.607901E-006	0.0004662	9
	5	22	94921.88	39.9633	-17.5875	1	43.66218	-23.75388	-2.773289E-006	-7.772719E-005	9
	6	24	75421.88	41.16803	-21.16199	1	46.28862	-27.20495	1.28904E-005	-0.0004676	9
	7	27	59859.37	42.54067	-25.46361	1	49.57927	-30.90352	-1.38955E-005	0.000465	9
	8	29	47578.12	43.99143	-30.54417	1	53.55551	-34.77305	1.687588E-005	-0.000158	9
	9	32	37828.12	45.67792	-36.78254	1	58.64663	-38.84306	-3.861684E-006	-1.163818E-005	9
	10	34	30046.88	47.61055	-44.51887	1	65.18201	-43.07799	1.168355E-005	-0.0004126	9
	11	37	23859.38	49.79936	-54.04879	1	73.49318	-47.34321	1.892526E-005	-0.0003477	9
	12	39	18984.38	52.60197	-65.5346	1	84.03423	-51.2474	6.899987E-006	-0.0003345	9
	13	41	15046.87	55.89185	-80.08711	1	97.6619	-55.08927	-2.010541E-006	0.0003803	9
	14	44	11953.13	60.09161	-97.5247	1	114.5516	-58.35996	3.596114E-006	0.0002584	9
	15	46	9515.62	64.95438	-118.6928	1	135.3035	-61.31041	-1.382607E-005	0.0005543	9
	16	48	7546.875	71.77785	-144.2073	1	161.0833	-63.5386	-1.178373E-005	0.0005863	9
	17	51	5928.309	80.13982	-177.4715	1	194.7268	-65.69775	1.199598E-005	-0.0004222	9
	18	53	4733.456	89.78361	-214.9637	1	232.9603	-67.33124	1.05211E-005	3.772403E-005	9
	19	55	3796.875	100.5639	-259.5649	1	278.365	-68.82201	1.555264E-006	-0.0002008	9
	20	58	2987.132	116.5923	-317.2421	1	337.9886	-69.82069	-6.221149E-006	0.0005156	9
	21	60	2390.625	132.6219	-383.4154	1	405.7043	-70.91969	7.246172E-006	-0.0003464	9
	22	62	1884.191	155.6792	-464.9172	1	490.2897	-71.48669	3.525533E-006	-0.0002796	8
	23	65	1516.544	180.1151	-558.1608	1	586.5023	-72.11542	3.230242E-006	-0.0003042	8
	24	67	1193.986	212.6974	-681.577	1	713.994	-72.6686	-1.136774E-006	0.0014265	8
	25	69	946.5144	250.0491	-829.0226	1	865.9117	-73.21568	1.876695E-006	0.0006023	8
	26	72	751.7689	297.5159	-1003.832	1	1046.993	-73.49123	1.798972E-006	-8.687354E-005	8
	27	74	597.4265	352.5826	-1218.598	1	1268.58	-73.86301	-2.305564E-006	0.001545	8
	28	76	477.4305	416.2466	-1470.628	1	1528.4	-74.19637	3.879007E-007	0.0006532	8
	29	79	376.6741	497.6864	-1795.082	1	1862.796	-74.50397	3.872842E-007	0.0006465	8
	30	81	298.2954	594.6376	-2185.201	1	2264.663	-74.77725	3.780483E-007	0.0006459	8
	31	83	237.7717	706.6556	-2647.368	1	2740.058	-75.05463	3.731109E-007	0.0006586	8
	32	86	189.0121	843.7281	-3217.19	1	3325.987	-75.30476	3.846878E-007	0.0006611	8
	33	88	150.2404	1008.325	-3911.563	1	4039.436	-75.54495	3.941806E-007	0.0006468	8
	34	91	119.1737	1212.865	-4775.918	1	4927.518	-75.75072	-8.318384E-008	0.0006236	7
	35	93	95.0169	1451.863	-5798.105	1	5977.118	-75.94202	-8.483403E-008	0.0006282	7
	36	95	75.60484	1745.874	-7056.275	1	7269.05	-76.10288	-8.335056E-008	0.0006277	7
	37	98	54.50582	2283.48	-9353.553	1	9628.25	-76.28075	-8.236355E-008	0.0006176	7
	38	101	45.95588	2640.807	-10838.89	1	11155.96	-76.30713	-8.179954E-008	0.0006212	7
	39	103	37.20238	3168.242	-13009.9	1	13390.12	-76.31343	-8.558719E-008	0.0006311	7
	40	105	30.04808	3817.136	-15645.63	1	16104.54	-76.28914	-8.46451E-008	0.0006217	7
	41	108	23.91582	4678.485	-19032.64	1	19599.22	-76.18972	-8.220973E-008	0.0006207	7
	42	110	18.60119	5892.219	-23642.71	1	24365.87	-76.00586	-8.8392E-008	0.0006319	7
	43	112	15.02404	7225.486	-28412.84	1	29317.18	-75.73192	-8.049653E-008	0.0006445	7
	44	115	12.01923	8989.758	-34392.11	1	35547.61	-75.3512	-8.591403E-008	0.0006213	7
	45	117	9.450605	11444.91	-42163.28	1	43689	-74.81342	-8.349163E-008	0.0006368	7
	46	120	7.512019	14532.12	-51264.58	1	53284.52	-74.17341	-1.310379E-007	0.0006961	6
	47	122	5.978954	18528.65	-62022.3	1	64730.8	-73.36692	-1.304587E-007	0.0006891	6
	48	125	4.734848	23895.19	-75253.63	1	78956.25	-72.38387	-1.290549E-007	0.0007071	6
	49	129	3.75601	30980.4	-90722.38	1	95866.2	-71.1457	-1.301432E-007	0.0006765	6
	50	134	3.004808	39915.12	-108292.9	1	115414.7	-69.76687	-1.289218E-007	0.0006698	6
	51	141	2.372217	52522.27	-129631.1	1	139867.1	-67.94382	-1.294257E-007	0.0007079	6
	52	145	1.878005	68926	-154099.5	1	168811.9	-65.90187	-1.299088E-007	0.0006773	6
	53	149	1.512097	88051.85	-179129.3	1	199600.7	-63.82336	-1.289942E-007	0.0006019	6
	54	155	1.201923	114249.6	-207795.9	1	237133.1	-61.19728	-1.288569E-007	0.0006809	6
	55	161	0.956633	146277.9	-237524.4	1	278953.5	-58.37342	-1.293411E-007	3.954767E-005	6
