EXPLAIN
TAG	EISPOT
TITLE	LABEL	Potentiostatic EIS	Test Identifier
DATE	LABEL	2/26/2021	Date
TIME	LABEL	12:08:45	Time
NOTES	NOTES	1	Notes...
	
PSTAT	PSTAT	REF3000-16137	Potentiostat
VDC	POTEN	0.00000E+000	T	DC Voltage (V)
FREQINIT	QUANT	3.00000E+005	Initial Freq. (Hz)
FREQFINAL	QUANT	1.00000E+000	Final Freq. (Hz)
PTSPERDEC	QUANT	1.00000E+001	Points/decade
VAC	QUANT	5.00000E+001	AC Voltage (mV rms)
AREA	QUANT	1.00000E+000	Sample Area (cm^2)
SPEED	SELECTOR	2	Optimize for:
ZGUESS	QUANT	1.00000E+003	Estimated Z (ohms)
EOC	QUANT	0	Open Circuit (V)
SEQUENCER	TOGGLE	TRUE	Run as Sequence
PSTATMODEL	IQUANT	5	Pstat Model
PSTATSECTION	LABEL	REF3000-16137	Pstat Section
PSTATSERIALNO	LABEL	16137	Pstat Serial Number
CTRLMODE	IQUANT	1	Control Mode
IESTAB	IQUANT	0	I/E Stability
CASPEED	IQUANT	1	Control Amp Speed
CONVENTION	IQUANT	1	Current Convention
ICHRANGE	IQUANT	2	Ich Range
ICHRANGEMODE	TOGGLE	F	Ich Auto Range
ICHOFFSETENABLE	TOGGLE	T	Ich Offset Enable
ICHOFFSET	QUANT	0	Ich Offset (V)
ICHFILTER	IQUANT	3	Ich Filter
VCHRANGE	IQUANT	2	Vch Range
VCHRANGEMODE	TOGGLE	F	Vch Auto Range
VCHOFFSETENABLE	TOGGLE	T	Vch Offset Enable
VCHOFFSET	QUANT	0	Vch Offset (V)
VCHFILTER	IQUANT	3	Vch Filter
ACHRANGE	IQUANT	2	Ach Range
ACHOFFSETENABLE	TOGGLE	F	Ach Offset Enable
ACHOFFSET	QUANT	0	Ach Offset (V)
ACHFILTER	IQUANT	3	Ach Filter
IERANGELOWERLIMIT	IQUANT	2	I/E Range Lower Limit
IERANGEMODE	TOGGLE	F	I/E AutoRange
IERANGE	IQUANT	11	I/E Range
POSFEEDENABLE	TOGGLE	F	Positive Feedback IR Comp
POSFEEDRESISTANCE	QUANT	0	Positive Feedback Resistance (ohm)
ACHSELECT	IQUANT	0	Ach Select
CABLEID	IQUANT	13	Cable ID
DCCALDATE	LABEL	7/31/2020	DC Calibration Date
ACCALDATE	LABEL	7/31/2020	AC Calibration Date
THERMOSELECT	IQUANT	1	Thermo Select
FRAMEWORKVERSION	QUANT	6.33	Framework Version
INSTRUMENTVERSION	LABEL	3.50	Instrument Version
COMPLIANCEVOLTAGE	IQUANT	0	Compliance Voltage
ZCURVE	TABLE
	Pt	Time	Freq	Zreal	Zimag	Zsig	Zmod	Zphz	Idc	Vdc	IERange
	#	s	Hz	ohm	ohm	V	ohm	°	A	V	#
	0	22	300046.9	1202.906	-321.2209	1	1245.056	-14.95125	2.096812E-005	-0.0005452	9
	1	39	238359.4	1281.925	-299.3138	1	1316.404	-13.14241	3.619662E-006	0.0015769	9
	2	65	189328.1	1325.013	-268.288	1	1351.902	-11.44647	1.794071E-005	-0.0019846	9
	3	73	150421.9	1404.954	-226.4807	1	1423.092	-9.157385	1.74633E-005	-0.0019425	9
	4	84	119484.4	1410.592	-160.2218	1	1419.662	-6.480157	5.68671E-005	-0.0224001	8
	5	90	94921.88	1433.818	-151.0753	1	1441.755	-6.014823	-1.964753E-006	-0.0036576	8
	6	93	75421.88	1437.238	-145.3242	1	1444.566	-5.773757	-1.899158E-005	0.0088779	8
	7	96	59859.37	1453.29	-144.7948	1	1460.486	-5.68974	-1.442858E-005	0.0013029	8
	8	99	47578.12	1468.953	-143.3726	1	1475.933	-5.57452	-8.942546E-006	-0.0011965	8
	9	102	37828.12	1485.869	-152.9485	1	1493.72	-5.877064	-8.854573E-006	-0.0011398	8
	10	105	30046.88	1501.534	-176.8041	1	1511.907	-6.7156	5.743257E-006	-0.005963	8
	11	109	23859.38	1521.691	-193.5086	1	1533.946	-7.247222	-1.534474E-006	-0.0037194	8
	12	113	18984.38	1549.355	-225.4457	1	1565.671	-8.27897	1.811918E-005	-0.0077666	8
	13	117	15046.87	1576.064	-260.9908	1	1597.527	-9.402656	-2.10004E-005	0.006424	8
	14	121	11953.13	1607.353	-307.5375	1	1636.51	-10.83159	2.276709E-005	-0.0061553	8
	15	126	9515.62	1638.857	-359.2916	1	1677.779	-12.3655	7.893724E-006	0.003186	8
	16	128	7546.875	1680.121	-426.5334	1	1733.418	-14.24478	-2.004764E-006	-0.0036465	8
	17	133	5928.309	1732.648	-507.3994	1	1805.415	-16.32247	7.933354E-006	0.0031688	8
	18	137	4733.456	1783.152	-596.9344	1	1880.415	-18.50867	2.258325E-005	-0.0061486	8
	19	141	3796.875	1834.665	-700.219	1	1963.747	-20.88988	5.881564E-006	-0.0059655	8
	20	144	2987.132	1896.495	-835.3877	1	2072.334	-23.77302	-6.526491E-007	0.0061748	8
	21	149	2390.625	1964.027	-979.024	1	2194.514	-26.49524	1.296186E-005	-0.0073667	8
	22	152	1884.191	2032.035	-1163.575	1	2341.597	-29.79613	-8.899543E-006	-0.0011653	8
	23	156	1516.544	2093.009	-1373.296	1	2503.323	-33.27028	1.810541E-005	-0.0077748	8
	24	161	1193.986	2176.785	-1681.18	1	2750.411	-37.67971	2.265696E-005	-0.0061769	8
	25	166	946.5144	2241.57	-2007.592	1	3009.163	-41.84822	-2.04487E-005	0.0049094	8
	26	170	751.7689	2347.746	-2491.521	1	3423.388	-46.70177	-2.11691E-005	0.0064744	8
	27	174	597.4265	2478.358	-3052.151	1	3931.652	-50.92327	-2.023764E-005	0.0048152	8
	28	177	477.4305	2515.26	-3672.126	1	4450.96	-55.59041	-1.703273E-007	0.0006819	8
	29	181	376.6741	2637.219	-4558.521	1	5266.406	-59.94954	-4.444738E-008	0.000656	7
	30	183	298.2954	2767.406	-5644.439	1	6286.353	-63.88179	-4.004103E-008	0.0006033	7
	31	185	237.7717	2921.282	-6957.627	1	7546.023	-67.22404	-4.284079E-008	0.0006652	7
	32	188	189.0121	3109.798	-8607.277	1	9151.834	-70.13528	-3.890588E-008	0.0006428	7
	33	190	150.2404	3342.037	-10654.59	1	11166.45	-72.58487	-4.382977E-008	0.0006648	7
	34	193	119.1737	3629.089	-13225.99	1	13714.85	-74.65621	-4.333173E-008	0.0006617	7
	35	195	95.0169	3976.756	-16330.11	1	16807.35	-76.31356	-3.834269E-008	0.000618	7
	36	197	75.60484	4406.05	-20209.4	1	20684.13	-77.70084	-4.014019E-008	0.000592	7
	37	200	54.50582	5163.991	-27430.27	1	27912.13	-79.33835	-4.300163E-008	0.0006048	7
	38	202	45.95588	5706.777	-32177.18	1	32679.32	-79.94289	-4.290489E-008	0.0006622	7
	39	205	37.20238	6450.707	-39209	1	39736.09	-80.65733	-4.53119E-008	0.0006431	7
	40	207	30.04808	7440.351	-47887.48	1	48462.05	-81.16848	-4.879579E-009	0.0006443	6
	41	210	23.91582	8612.444	-59291.2	1	59913.45	-81.73521	-4.573218E-009	0.0006208	6
	42	212	18.60119	10457.85	-74945.05	1	75671.18	-82.05623	-5.54598E-009	0.0006457	6
	43	214	15.02404	12108.71	-91618.52	1	92415.23	-82.47117	-4.715139E-009	0.0006502	6
	44	217	12.01923	14429.9	-112906.4	1	113824.7	-82.71685	-5.168433E-009	0.0006878	6
	45	219	9.450605	17617.7	-141432	1	142525.1	-82.89944	-5.307688E-009	0.0006882	6
	46	222	7.512019	21355.27	-175408.4	1	176703.6	-83.05863	-5.038144E-009	0.000697	6
	47	225	5.978954	26136.49	-217143.8	1	218711.1	-83.13662	-5.17272E-009	0.0006997	6
	48	229	4.734848	32197.97	-270321	1	272231.8	-83.2075	-5.368515E-009	0.000683	6
	49	233	3.75601	39934.18	-335941	1	338306.2	-83.22092	-5.451395E-009	0.0006943	6
	50	238	3.004808	49505.54	-413773.6	1	416724.6	-83.17733	-5.466372E-009	0.0006626	6
	51	244	2.372217	63009.51	-516481.1	1	520310.4	-83.04442	-8.483353E-010	0.0005798	5
	52	249	1.878005	78375.65	-642871.4	1	647631.3	-83.04909	-7.318005E-010	0.000654	5
	53	253	1.512097	96640.7	-784984.6	1	790911	-82.98154	-8.814358E-010	0.0006585	5
	54	259	1.201923	122268.1	-976045	1	983674	-82.85981	-7.40739E-010	0.0006695	5
	55	265	0.956633	154801.4	-1207645	1	1217526	-82.6954	-8.401455E-010	1.059716E-005	5
