EXPLAIN
TAG	EISPOT
TITLE	LABEL	Potentiostatic EIS	Test Identifier
DATE	LABEL	2/26/2021	Date
TIME	LABEL	11:56:54	Time
NOTES	NOTES	1	Notes...
	
PSTAT	PSTAT	REF3000-16137	Potentiostat
VDC	POTEN	0.00000E+000	T	DC Voltage (V)
FREQINIT	QUANT	3.00000E+005	Initial Freq. (Hz)
FREQFINAL	QUANT	1.00000E+000	Final Freq. (Hz)
PTSPERDEC	QUANT	1.00000E+001	Points/decade
VAC	QUANT	5.00000E+001	AC Voltage (mV rms)
AREA	QUANT	1.00000E+000	Sample Area (cm^2)
SPEED	SELECTOR	2	Optimize for:
ZGUESS	QUANT	1.00000E+003	Estimated Z (ohms)
EOC	QUANT	0	Open Circuit (V)
SEQUENCER	TOGGLE	TRUE	Run as Sequence
PSTATMODEL	IQUANT	5	Pstat Model
PSTATSECTION	LABEL	REF3000-16137	Pstat Section
PSTATSERIALNO	LABEL	16137	Pstat Serial Number
CTRLMODE	IQUANT	1	Control Mode
IESTAB	IQUANT	0	I/E Stability
CASPEED	IQUANT	1	Control Amp Speed
CONVENTION	IQUANT	1	Current Convention
ICHRANGE	IQUANT	2	Ich Range
ICHRANGEMODE	TOGGLE	F	Ich Auto Range
ICHOFFSETENABLE	TOGGLE	T	Ich Offset Enable
ICHOFFSET	QUANT	0	Ich Offset (V)
ICHFILTER	IQUANT	3	Ich Filter
VCHRANGE	IQUANT	2	Vch Range
VCHRANGEMODE	TOGGLE	F	Vch Auto Range
VCHOFFSETENABLE	TOGGLE	T	Vch Offset Enable
VCHOFFSET	QUANT	0	Vch Offset (V)
VCHFILTER	IQUANT	3	Vch Filter
ACHRANGE	IQUANT	2	Ach Range
ACHOFFSETENABLE	TOGGLE	F	Ach Offset Enable
ACHOFFSET	QUANT	0	Ach Offset (V)
ACHFILTER	IQUANT	3	Ach Filter
IERANGELOWERLIMIT	IQUANT	2	I/E Range Lower Limit
IERANGEMODE	TOGGLE	F	I/E AutoRange
IERANGE	IQUANT	11	I/E Range
POSFEEDENABLE	TOGGLE	F	Positive Feedback IR Comp
POSFEEDRESISTANCE	QUANT	0	Positive Feedback Resistance (ohm)
ACHSELECT	IQUANT	0	Ach Select
CABLEID	IQUANT	13	Cable ID
DCCALDATE	LABEL	7/31/2020	DC Calibration Date
ACCALDATE	LABEL	7/31/2020	AC Calibration Date
THERMOSELECT	IQUANT	1	Thermo Select
FRAMEWORKVERSION	QUANT	6.33	Framework Version
INSTRUMENTVERSION	LABEL	3.50	Instrument Version
COMPLIANCEVOLTAGE	IQUANT	0	Compliance Voltage
ZCURVE	TABLE
	Pt	Time	Freq	Zreal	Zimag	Zsig	Zmod	Zphz	Idc	Vdc	IERange
	#	s	Hz	ohm	ohm	V	ohm	°	A	V	#
	0	17	300046.9	418.8775	-43.81887	1	421.1632	-5.972003	2.4268E-005	-0.0006145	9
	1	27	238359.4	426.0934	-43.25379	1	428.2831	-5.79638	1.330044E-005	-0.0019438	9
	2	36	189328.1	431.4097	-44.59728	1	433.7087	-5.902027	2.21058E-005	-0.0003955	9
	3	43	150421.9	437.8479	-44.77554	1	440.1313	-5.838929	-8.694496E-005	0.0022617	9
	4	50	119484.4	444.9824	-48.06055	1	447.5703	-6.164365	2.226215E-005	-0.0013237	9
	5	57	94921.88	452.3425	-39.19588	1	454.0375	-4.95236	-5.036286E-006	0.005661	8
	6	60	75421.88	456.2913	-48.61804	1	458.8741	-6.081944	-9.32386E-006	0.0062069	8
	7	62	59859.37	460.7676	-58.78117	1	464.5019	-7.270082	-1.104639E-005	0.0017139	8
	8	65	47578.12	466.6019	-71.47919	1	472.0452	-8.709486	-9.076052E-006	0.0063086	8
	9	67	37828.12	472.4458	-85.87556	1	480.1871	-10.30207	7.534589E-006	-0.0049862	8
	10	70	30046.88	483.9634	-102.4757	1	494.6937	-11.95538	-1.432471E-005	0.0047521	8
	11	72	23859.38	491.7419	-121.1714	1	506.4509	-13.84263	-1.430728E-005	0.00603	8
	12	77	18984.38	504.1773	-144.0966	1	524.365	-15.95022	1.441419E-005	-0.005071	8
	13	79	15046.87	518.6959	-167.9219	1	545.2001	-17.93877	-7.733479E-006	-2.182404E-005	8
	14	81	11953.13	530.1597	-201.5789	1	567.189	-20.81796	-1.474583E-005	0.0050509	8
	15	83	9515.62	546.6617	-237.5862	1	596.0589	-23.49039	1.5487E-005	-0.0041769	8
	16	86	7546.875	562.7857	-280.5073	1	628.818	-26.49288	1.185803E-005	-0.0051835	8
	17	88	5928.309	582.6016	-335.3363	1	672.2165	-29.92406	8.144047E-007	0.0040113	8
	18	91	4733.456	603.0384	-399.9848	1	723.6319	-33.55562	-1.489691E-005	0.0050827	8
	19	93	3796.875	617.5019	-478.1058	1	780.957	-37.74911	-1.309327E-005	0.0027633	8
	20	95	2987.132	638.954	-582.1438	1	864.3805	-42.3363	-9.102925E-006	0.0062662	8
	21	98	2390.625	658.0524	-701.5611	1	961.884	-46.83288	1.212653E-005	-0.0052707	8
	22	100	1884.191	684.0302	-860.589	1	1099.323	-51.52094	7.702517E-007	0.0041125	8
	23	103	1516.544	706.9191	-1052.312	1	1267.713	-56.10771	-1.441839E-005	0.0059566	8
	24	107	1193.986	744.6357	-1300.266	1	1498.39	-60.20111	1.586191E-005	-0.0043433	8
	25	110	946.5144	779.8396	-1616.899	1	1795.135	-64.25172	-1.455222E-005	0.0039693	8
	26	113	751.7689	829.1956	-1985.939	1	2152.097	-67.33784	-7.382236E-006	-0.0000986	8
	27	116	597.4265	885.7302	-2465.303	1	2619.587	-70.23773	-1.132372E-005	0.0015986	8
	28	118	477.4305	953.949	-3026.037	1	3172.841	-72.50269	7.314367E-009	0.0006412	8
	29	122	376.6741	1042.538	-3769.356	1	3910.873	-74.53948	1.556972E-008	0.0006321	8
	30	124	298.2954	1156.591	-4688.324	1	4828.88	-76.14206	-1.823358E-008	0.0006231	7
	31	126	237.7717	1286.327	-5785.481	1	5926.755	-77.46493	-1.936563E-008	0.0006451	7
	32	129	189.0121	1446.706	-7159.406	1	7304.112	-78.57603	-1.834467E-008	0.000625	7
	33	131	150.2404	1644.839	-8860.442	1	9011.822	-79.48341	-1.428973E-008	0.0006041	7
	34	134	119.1737	1892.724	-10989.05	1	11150.86	-80.22742	-1.44273E-008	0.0006102	7
	35	136	95.0169	2188.266	-13566.98	1	13742.32	-80.83747	-1.430386E-008	0.0006072	7
	36	138	75.60484	2557.188	-16778.98	1	16972.73	-81.33456	-1.989491E-008	0.0006442	7
	37	141	54.50582	3263.219	-22768.39	1	23001.04	-81.84377	-1.575745E-008	0.0005822	7
	38	143	45.95588	3713.841	-26676.65	1	26933.92	-82.07439	-1.674323E-008	0.000641	7
	39	146	37.20238	4403.781	-32493.95	1	32791.01	-82.28194	-1.914677E-008	0.0006465	7
	40	148	30.04808	5272.727	-39650.33	1	39999.38	-82.42521	-1.473547E-008	0.0006076	7
	41	151	23.91582	6473.663	-49008.71	1	49434.42	-82.47524	-4.410799E-009	0.0006454	6
	42	153	18.60119	7939.955	-61880.7	1	62388.01	-82.68829	-4.774682E-009	0.0006875	6
	43	155	15.02404	9774.26	-75516.64	1	76146.56	-82.62511	-3.673985E-009	0.0006615	6
	44	158	12.01923	12014.02	-92894.84	1	93668.51	-82.63088	-4.094288E-009	0.0006701	6
	45	160	9.450605	15154.54	-116152.3	1	117136.7	-82.56654	-3.800749E-009	0.0006549	6
	46	163	7.512019	18959.99	-143723.8	1	144969	-82.48495	-3.748715E-009	0.0006624	6
	47	166	5.978954	23792.33	-177441	1	179029	-82.363	-4.041307E-009	0.0006913	6
	48	170	4.734848	30142.87	-220489.5	1	222540.4	-82.21542	-3.792107E-009	0.0006382	6
	49	173	3.75601	38458.05	-272876.8	1	275573.6	-81.97782	-4.266064E-009	0.0006901	6
	50	179	3.004808	48634.11	-335382.6	1	338890.5	-81.74901	-4.233379E-009	0.0007069	6
	51	185	2.372217	62936.83	-417135.8	1	421856.9	-81.42001	-4.152254E-009	0.0007408	6
	52	189	1.878005	81991.54	-516650.6	1	523116.1	-80.98246	-2.426148E-009	0.0006311	5
	53	194	1.512097	105441.9	-629217.5	1	637991.1	-80.48698	-2.308773E-009	0.0007338	5
	54	199	1.201923	136722.8	-777444.5	1	789375.1	-80.02585	-2.350894E-009	0.0006238	5
	55	206	0.956633	179225.4	-957041	1	973679	-79.39306	-2.443265E-009	1.233516E-005	5
