EXPLAIN
TAG	EISPOT
TITLE	LABEL	Potentiostatic EIS	Test Identifier
DATE	LABEL	2/26/2021	Date
TIME	LABEL	11:01:42	Time
NOTES	NOTES	1	Notes...
	
PSTAT	PSTAT	REF3000-16137	Potentiostat
VDC	POTEN	0.00000E+000	T	DC Voltage (V)
FREQINIT	QUANT	3.00000E+005	Initial Freq. (Hz)
FREQFINAL	QUANT	1.00000E+000	Final Freq. (Hz)
PTSPERDEC	QUANT	1.00000E+001	Points/decade
VAC	QUANT	5.00000E+001	AC Voltage (mV rms)
AREA	QUANT	1.00000E+000	Sample Area (cm^2)
SPEED	SELECTOR	2	Optimize for:
ZGUESS	QUANT	1.00000E+003	Estimated Z (ohms)
EOC	QUANT	0	Open Circuit (V)
SEQUENCER	TOGGLE	TRUE	Run as Sequence
PSTATMODEL	IQUANT	5	Pstat Model
PSTATSECTION	LABEL	REF3000-16137	Pstat Section
PSTATSERIALNO	LABEL	16137	Pstat Serial Number
CTRLMODE	IQUANT	1	Control Mode
IESTAB	IQUANT	0	I/E Stability
CASPEED	IQUANT	1	Control Amp Speed
CONVENTION	IQUANT	1	Current Convention
ICHRANGE	IQUANT	2	Ich Range
ICHRANGEMODE	TOGGLE	F	Ich Auto Range
ICHOFFSETENABLE	TOGGLE	T	Ich Offset Enable
ICHOFFSET	QUANT	0	Ich Offset (V)
ICHFILTER	IQUANT	3	Ich Filter
VCHRANGE	IQUANT	2	Vch Range
VCHRANGEMODE	TOGGLE	F	Vch Auto Range
VCHOFFSETENABLE	TOGGLE	T	Vch Offset Enable
VCHOFFSET	QUANT	0	Vch Offset (V)
VCHFILTER	IQUANT	3	Vch Filter
ACHRANGE	IQUANT	2	Ach Range
ACHOFFSETENABLE	TOGGLE	F	Ach Offset Enable
ACHOFFSET	QUANT	0	Ach Offset (V)
ACHFILTER	IQUANT	3	Ach Filter
IERANGELOWERLIMIT	IQUANT	2	I/E Range Lower Limit
IERANGEMODE	TOGGLE	F	I/E AutoRange
IERANGE	IQUANT	11	I/E Range
POSFEEDENABLE	TOGGLE	F	Positive Feedback IR Comp
POSFEEDRESISTANCE	QUANT	0	Positive Feedback Resistance (ohm)
ACHSELECT	IQUANT	0	Ach Select
CABLEID	IQUANT	13	Cable ID
DCCALDATE	LABEL	7/31/2020	DC Calibration Date
ACCALDATE	LABEL	7/31/2020	AC Calibration Date
THERMOSELECT	IQUANT	1	Thermo Select
FRAMEWORKVERSION	QUANT	6.33	Framework Version
INSTRUMENTVERSION	LABEL	3.50	Instrument Version
COMPLIANCEVOLTAGE	IQUANT	0	Compliance Voltage
ZCURVE	TABLE
	Pt	Time	Freq	Zreal	Zimag	Zsig	Zmod	Zphz	Idc	Vdc	IERange
	#	s	Hz	ohm	ohm	V	ohm	°	A	V	#
	0	7	300046.9	37.31829	-5.888175	1	37.77996	-8.966354	4.726528E-006	-0.0013672	9
	1	10	238359.4	37.97507	-7.909719	1	38.79007	-11.76575	-5.376279E-005	0.0010586	9
	2	14	189328.1	38.92172	-10.19671	1	40.23522	-14.68042	-5.785944E-005	0.0016684	9
	3	16	150421.9	39.96553	-12.58679	1	41.90073	-17.48136	4.967532E-006	-0.0007925	9
	4	19	119484.4	41.05797	-15.22241	1	43.78902	-20.34247	-5.056004E-005	0.0020567	9
	5	21	94921.88	42.42469	-18.19381	1	46.16133	-23.21206	-1.158894E-005	0.0003189	9
	6	24	75421.88	43.74592	-21.83835	1	48.89396	-26.52878	1.593313E-005	-0.0005121	9
	7	26	59859.37	45.09937	-26.22086	1	52.16787	-30.1738	-3.730303E-006	-5.904781E-005	9
	8	29	47578.12	46.64921	-31.51033	1	56.29432	-34.03801	-1.96957E-006	0.0003881	9
	9	31	37828.12	48.29636	-37.89862	1	61.39091	-38.12162	1.248356E-005	-0.0004291	9
	10	34	30046.88	50.20625	-45.77518	1	67.94141	-42.35677	1.683086E-005	-0.0001381	9
	11	36	23859.38	52.47179	-55.47269	1	76.35777	-46.59244	-1.271944E-005	0.0006392	9
	12	39	18984.38	55.06289	-67.48065	1	87.09512	-50.78623	1.266772E-005	-0.000449	9
	13	41	15046.87	58.31075	-82.43919	1	100.9771	-54.72753	2.158575E-006	-0.0002229	9
	14	43	11953.13	62.58327	-100.3194	1	118.2398	-58.04244	1.304605E-005	-0.0004166	9
	15	46	9515.62	67.32185	-122.3853	1	139.6796	-61.18563	1.622517E-005	-0.0004521	9
	16	48	7546.875	73.43621	-149.6285	1	166.678	-63.85864	-1.241196E-005	0.0003156	9
	17	50	5928.309	82.19058	-183.8823	1	201.415	-65.9166	7.370807E-006	-0.0003519	9
	18	53	4733.456	91.56074	-223.4855	1	241.5143	-67.72137	4.908585E-006	0.0002427	9
	19	55	3796.875	104.5104	-268.5729	1	288.1906	-68.73738	-1.291587E-005	0.0003799	9
	20	57	2987.132	117.8103	-330.948	1	351.2917	-70.40538	-6.833794E-006	0.0005445	9
	21	60	2390.625	135.5265	-400.0414	1	422.3749	-71.28458	1.621775E-005	-0.0001336	9
	22	62	1884.191	158.6066	-486.465	1	511.6681	-71.94201	8.084848E-007	0.0001285	8
	23	64	1516.544	183.7168	-584.6447	1	612.8305	-72.55537	-1.460631E-006	0.0007833	8
	24	67	1193.986	216.947	-715.8931	1	748.0434	-73.14089	-2.676881E-006	0.0015059	8
	25	69	946.5144	259.1543	-869.9365	1	907.7171	-73.41119	3.233117E-006	-0.000309	8
	26	71	751.7689	305.0123	-1058.947	1	1101.998	-73.93182	-2.906813E-006	0.0013109	8
	27	74	597.4265	361.0439	-1283.845	1	1333.646	-74.29292	-1.118938E-006	0.0014869	8
	28	76	477.4305	428.3037	-1551.778	1	1609.801	-74.57005	3.781879E-007	0.0006522	8
	29	78	376.6741	513.7554	-1895.59	1	1963.977	-74.83561	3.742731E-007	0.000648	8
	30	81	298.2954	615.3425	-2308.852	1	2389.444	-75.07672	3.774408E-007	0.0006519	8
	31	83	237.7717	733.9739	-2798.338	1	2892.994	-75.30299	3.735707E-007	0.0006511	8
	32	85	189.0121	877.8768	-3400.92	1	3512.396	-75.52623	3.792098E-007	0.0006602	8
	33	88	150.2404	1051.113	-4135.654	1	4267.139	-75.73971	3.734478E-007	0.0006488	8
	34	90	119.1737	1266.222	-5050.573	1	5206.881	-75.92554	-7.871888E-008	0.0006285	7
	35	92	95.0169	1517.622	-6131.816	1	6316.831	-76.09867	-7.881873E-008	0.0006241	7
	36	95	75.60484	1825.239	-7462.887	1	7682.85	-76.25665	-7.745583E-008	0.0006248	7
	37	98	54.50582	2389.992	-9893.72	1	10178.3	-76.41943	-7.867199E-008	0.0006265	7
	38	100	45.95588	2757.428	-11463.84	1	11790.8	-76.47541	-7.90088E-008	0.0006262	7
	39	102	37.20238	3302.04	-13749.21	1	14140.17	-76.49548	-7.898928E-008	0.0006213	7
	40	105	30.04808	3986.556	-16551.22	1	17024.56	-76.4576	-7.9919E-008	0.0006305	7
	41	107	23.91582	4868.623	-20142.21	1	20722.26	-76.41153	-7.698297E-008	0.0006223	7
	42	110	18.60119	6162.411	-25063.97	1	25810.42	-76.18683	-8.183315E-008	0.0006325	7
	43	112	15.02404	7535.498	-30116.02	1	31044.46	-75.95213	-7.841454E-008	0.0006337	7
	44	114	12.01923	9391.203	-36498.47	1	37687.3	-75.57056	-8.057933E-008	0.0006257	7
	45	117	9.450605	11950.55	-44847.78	1	46412.7	-75.07915	-1.258522E-007	0.0006925	6
	46	119	7.512019	15179.43	-54457.87	1	56533.84	-74.42487	-1.25758E-007	0.0006783	6
	47	122	5.978954	19349.55	-65972.84	1	68751.88	-73.65382	-1.252973E-007	0.0006887	6
	48	125	4.734848	24990.39	-80096.17	1	83904.21	-72.67183	-1.232313E-007	0.0007077	6
	49	128	3.75601	32434.22	-96719.8	1	102013.2	-71.46152	-1.240423E-007	0.0006704	6
	50	134	3.004808	41897.17	-115559.5	1	122920.1	-70.07141	-1.228853E-007	0.0006567	6
	51	140	2.372217	55131.58	-138684.5	1	149241	-68.32057	-1.235817E-007	0.0006363	6
	52	144	1.878005	72642.81	-164673.5	1	179984.3	-66.19617	-1.235033E-007	0.0006853	6
	53	149	1.512097	93273.01	-191595.9	1	213093.5	-64.04218	-1.231999E-007	0.0005667	6
	54	154	1.201923	121085.3	-222450.7	1	253270.5	-61.43949	-1.230289E-007	0.0006395	6
	55	161	0.956633	155386.7	-254529.8	1	298212.1	-58.59656	-1.239856E-007	-2.233206E-005	6
