EXPLAIN
TAG	EISPOT
TITLE	LABEL	Potentiostatic EIS	Test Identifier
DATE	LABEL	2/26/2021	Date
TIME	LABEL	11:32:57	Time
NOTES	NOTES	1	Notes...
	
PSTAT	PSTAT	REF3000-16137	Potentiostat
VDC	POTEN	0.00000E+000	T	DC Voltage (V)
FREQINIT	QUANT	3.00000E+005	Initial Freq. (Hz)
FREQFINAL	QUANT	1.00000E+000	Final Freq. (Hz)
PTSPERDEC	QUANT	1.00000E+001	Points/decade
VAC	QUANT	5.00000E+001	AC Voltage (mV rms)
AREA	QUANT	1.00000E+000	Sample Area (cm^2)
SPEED	SELECTOR	2	Optimize for:
ZGUESS	QUANT	1.00000E+003	Estimated Z (ohms)
EOC	QUANT	0	Open Circuit (V)
SEQUENCER	TOGGLE	TRUE	Run as Sequence
PSTATMODEL	IQUANT	5	Pstat Model
PSTATSECTION	LABEL	REF3000-16137	Pstat Section
PSTATSERIALNO	LABEL	16137	Pstat Serial Number
CTRLMODE	IQUANT	1	Control Mode
IESTAB	IQUANT	0	I/E Stability
CASPEED	IQUANT	1	Control Amp Speed
CONVENTION	IQUANT	1	Current Convention
ICHRANGE	IQUANT	2	Ich Range
ICHRANGEMODE	TOGGLE	F	Ich Auto Range
ICHOFFSETENABLE	TOGGLE	T	Ich Offset Enable
ICHOFFSET	QUANT	0	Ich Offset (V)
ICHFILTER	IQUANT	3	Ich Filter
VCHRANGE	IQUANT	2	Vch Range
VCHRANGEMODE	TOGGLE	F	Vch Auto Range
VCHOFFSETENABLE	TOGGLE	T	Vch Offset Enable
VCHOFFSET	QUANT	0	Vch Offset (V)
VCHFILTER	IQUANT	3	Vch Filter
ACHRANGE	IQUANT	2	Ach Range
ACHOFFSETENABLE	TOGGLE	F	Ach Offset Enable
ACHOFFSET	QUANT	0	Ach Offset (V)
ACHFILTER	IQUANT	3	Ach Filter
IERANGELOWERLIMIT	IQUANT	2	I/E Range Lower Limit
IERANGEMODE	TOGGLE	F	I/E AutoRange
IERANGE	IQUANT	11	I/E Range
POSFEEDENABLE	TOGGLE	F	Positive Feedback IR Comp
POSFEEDRESISTANCE	QUANT	0	Positive Feedback Resistance (ohm)
ACHSELECT	IQUANT	0	Ach Select
CABLEID	IQUANT	13	Cable ID
DCCALDATE	LABEL	7/31/2020	DC Calibration Date
ACCALDATE	LABEL	7/31/2020	AC Calibration Date
THERMOSELECT	IQUANT	1	Thermo Select
FRAMEWORKVERSION	QUANT	6.33	Framework Version
INSTRUMENTVERSION	LABEL	3.50	Instrument Version
COMPLIANCEVOLTAGE	IQUANT	0	Compliance Voltage
ZCURVE	TABLE
	Pt	Time	Freq	Zreal	Zimag	Zsig	Zmod	Zphz	Idc	Vdc	IERange
	#	s	Hz	ohm	ohm	V	ohm	°	A	V	#
	0	7	300046.9	99.3192	-9.229289	1	99.7471	-5.308996	3.378626E-005	0.0001088	9
	1	10	238359.4	100.6359	-11.57632	1	101.2995	-6.561988	6.935099E-005	-0.002817	9
	2	13	189328.1	101.9731	-14.71216	1	103.029	-8.209691	1.069524E-005	-0.0009164	9
	3	16	150421.9	103.3838	-17.88727	1	104.9198	-9.81603	1.200585E-005	-0.000737	9
	4	18	119484.4	105.0945	-21.78138	1	107.3279	-11.70907	2.020518E-005	-0.0004601	9
	5	21	94921.88	107.3084	-25.97293	1	110.407	-13.6062	2.334072E-005	-0.0002289	9
	6	23	75421.88	109.6382	-31.10385	1	113.9649	-15.83839	-9.853848E-006	-1.191583E-005	9
	7	26	59859.37	112.4803	-37.00352	1	118.4107	-18.21005	-6.114267E-006	0.0006686	9
	8	29	47578.12	115.5093	-43.71146	1	123.5034	-20.72784	-1.946987E-005	0.0007904	9
	9	31	37828.12	118.9771	-51.69122	1	129.721	-23.48319	3.374255E-006	0.0004427	9
	10	34	30046.88	122.4375	-60.93672	1	136.7634	-26.45937	-1.645644E-005	0.000365	9
	11	36	23859.38	126.0646	-72.52746	1	145.439	-29.91268	1.945326E-005	-6.661827E-005	9
	12	38	18984.38	129.7621	-86.46903	1	155.933	-33.67813	-1.687855E-005	0.0006785	9
	13	41	15046.87	133.8108	-103.9725	1	169.4568	-37.8476	3.66142E-006	0.0004857	9
	14	43	11953.13	137.8034	-125.8864	1	186.6471	-42.41239	2.356941E-005	-0.0004024	9
	15	45	9515.62	142.3874	-153.1277	1	209.0987	-47.08146	-2.056348E-005	0.0006245	9
	16	48	7546.875	147.7211	-187.1885	1	238.4556	-51.72102	2.442903E-005	-0.0005634	9
	17	50	5928.309	154.416	-231.4184	1	278.2064	-56.28644	2.209109E-005	-0.0006559	9
	18	52	4733.456	161.1134	-283.7907	1	326.3353	-60.41559	-1.220386E-005	0.0008388	9
	19	55	3796.875	169.9929	-345.9841	1	385.4901	-63.83366	-5.330386E-006	0.0007449	9
	20	57	2987.132	180.9227	-428.4117	1	465.048	-67.10516	-3.080358E-006	0.0027752	8
	21	59	2390.625	194.1324	-524.2576	1	559.0469	-69.68043	3.980486E-006	-0.0010947	8
	22	62	1884.191	210.8845	-653.156	1	686.3563	-72.10629	-2.831154E-006	0.0026914	8
	23	64	1516.544	230.2027	-796.6892	1	829.281	-73.88339	-9.353452E-007	0.0023376	8
	24	66	1193.986	255.7544	-993.475	1	1025.867	-75.56357	1.061774E-006	0.0017858	8
	25	69	946.5144	286.886	-1229.925	1	1262.941	-76.87024	7.120923E-006	-0.0011153	8
	26	71	751.7689	329.2018	-1514.436	1	1549.804	-77.73608	-5.047205E-006	0.0014265	8
	27	73	597.4265	376.1289	-1876.311	1	1913.64	-78.66462	4.915264E-006	-0.0016229	8
	28	76	477.4305	435.2177	-2302.785	1	2343.551	-79.29755	2.542475E-007	0.0006584	8
	29	78	376.6741	514.0829	-2862.994	1	2908.783	-79.82037	2.554541E-007	0.0006621	8
	30	81	298.2954	611.8196	-3547.41	1	3599.784	-80.2145	2.780131E-007	0.0006545	8
	31	83	237.7717	736.1091	-4375.993	1	4437.474	-80.45137	-3.627697E-009	0.000629	7
	32	86	189.0121	889.2037	-5400.181	1	5472.9	-80.64948	-5.054145E-009	0.0006256	7
	33	88	150.2404	1082.637	-6661.903	1	6749.301	-80.76946	-3.204133E-009	0.0006162	7
	34	90	119.1737	1330.918	-8231.393	1	8338.295	-80.81544	-4.574575E-009	0.0006385	7
	35	93	95.0169	1636.348	-10116.85	1	10248.33	-80.81227	-6.179721E-009	0.0006367	7
	36	95	75.60484	2026.116	-12450.23	1	12614.02	-80.75687	-4.858404E-009	0.0006239	7
	37	98	54.50582	2781.489	-16749.94	1	16979.32	-80.57152	-1.03228E-009	0.0005943	7
	38	100	45.95588	3276.877	-19544.38	1	19817.19	-80.48212	-4.365423E-009	0.0006472	7
	39	103	37.20238	4031.269	-23641.52	1	23982.75	-80.3232	-4.857624E-009	0.0006379	7
	40	105	30.04808	4990.831	-28620.24	1	29052.13	-80.10816	-6.062816E-009	0.000642	7
	41	108	23.91582	6243.266	-35087.26	1	35638.38	-79.91064	-2.69651E-009	0.0006315	7
	42	110	18.60119	8070.837	-43944.7	1	44679.69	-79.59309	-2.737368E-008	0.0006885	6
	43	112	15.02404	10076.52	-53154.3	1	54100.98	-79.26575	-2.706421E-008	0.0006821	6
	44	114	12.01923	12683.72	-64793.19	1	66022.98	-78.92401	-2.634399E-008	0.0006937	6
	45	117	9.450605	16244.15	-80120.48	1	81750.62	-78.53883	-2.690332E-008	0.0006719	6
	46	119	7.512019	20827.71	-98127.9	1	100313.9	-78.01678	-2.620977E-008	0.0006813	6
	47	122	5.978954	26589.08	-119853.5	1	122767.5	-77.49171	-2.594775E-008	0.0006729	6
	48	127	4.734848	34420.54	-147007.2	1	150983.1	-76.82205	-2.615181E-008	0.0006639	6
	49	130	3.75601	44747.58	-179629.9	1	185119.5	-76.01176	-2.577158E-008	0.0006924	6
	50	136	3.004808	57924.5	-217602.1	1	225179.8	-75.09384	-2.581982E-008	0.0006994	6
	51	142	2.372217	76972.15	-265486.1	1	276419.3	-73.83159	-2.597894E-008	0.0006531	6
	52	146	1.878005	102490.1	-323088.9	1	338955.3	-72.39995	-2.548173E-008	0.0006611	6
	53	151	1.512097	133278.3	-385068.5	1	407481.2	-70.90845	-2.55621E-008	0.000762	6
	54	156	1.201923	178435.3	-461109.5	1	494430.1	-68.84508	-2.75278E-008	0.0006961	5
	55	162	0.956633	236587.8	-546530.8	1	595541.5	-66.59268	-2.800007E-008	5.21166E-005	5
