EXPLAIN
TAG	EISPOT
TITLE	LABEL	Potentiostatic EIS	Test Identifier
DATE	LABEL	2/26/2021	Date
TIME	LABEL	11:07:21	Time
NOTES	NOTES	1	Notes...
	
PSTAT	PSTAT	REF3000-16137	Potentiostat
VDC	POTEN	0.00000E+000	T	DC Voltage (V)
FREQINIT	QUANT	3.00000E+005	Initial Freq. (Hz)
FREQFINAL	QUANT	1.00000E+000	Final Freq. (Hz)
PTSPERDEC	QUANT	1.00000E+001	Points/decade
VAC	QUANT	5.00000E+001	AC Voltage (mV rms)
AREA	QUANT	1.00000E+000	Sample Area (cm^2)
SPEED	SELECTOR	2	Optimize for:
ZGUESS	QUANT	1.00000E+003	Estimated Z (ohms)
EOC	QUANT	0	Open Circuit (V)
SEQUENCER	TOGGLE	TRUE	Run as Sequence
PSTATMODEL	IQUANT	5	Pstat Model
PSTATSECTION	LABEL	REF3000-16137	Pstat Section
PSTATSERIALNO	LABEL	16137	Pstat Serial Number
CTRLMODE	IQUANT	1	Control Mode
IESTAB	IQUANT	0	I/E Stability
CASPEED	IQUANT	1	Control Amp Speed
CONVENTION	IQUANT	1	Current Convention
ICHRANGE	IQUANT	2	Ich Range
ICHRANGEMODE	TOGGLE	F	Ich Auto Range
ICHOFFSETENABLE	TOGGLE	T	Ich Offset Enable
ICHOFFSET	QUANT	0	Ich Offset (V)
ICHFILTER	IQUANT	3	Ich Filter
VCHRANGE	IQUANT	2	Vch Range
VCHRANGEMODE	TOGGLE	F	Vch Auto Range
VCHOFFSETENABLE	TOGGLE	T	Vch Offset Enable
VCHOFFSET	QUANT	0	Vch Offset (V)
VCHFILTER	IQUANT	3	Vch Filter
ACHRANGE	IQUANT	2	Ach Range
ACHOFFSETENABLE	TOGGLE	F	Ach Offset Enable
ACHOFFSET	QUANT	0	Ach Offset (V)
ACHFILTER	IQUANT	3	Ach Filter
IERANGELOWERLIMIT	IQUANT	2	I/E Range Lower Limit
IERANGEMODE	TOGGLE	F	I/E AutoRange
IERANGE	IQUANT	11	I/E Range
POSFEEDENABLE	TOGGLE	F	Positive Feedback IR Comp
POSFEEDRESISTANCE	QUANT	0	Positive Feedback Resistance (ohm)
ACHSELECT	IQUANT	0	Ach Select
CABLEID	IQUANT	13	Cable ID
DCCALDATE	LABEL	7/31/2020	DC Calibration Date
ACCALDATE	LABEL	7/31/2020	AC Calibration Date
THERMOSELECT	IQUANT	1	Thermo Select
FRAMEWORKVERSION	QUANT	6.33	Framework Version
INSTRUMENTVERSION	LABEL	3.50	Instrument Version
COMPLIANCEVOLTAGE	IQUANT	0	Compliance Voltage
ZCURVE	TABLE
	Pt	Time	Freq	Zreal	Zimag	Zsig	Zmod	Zphz	Idc	Vdc	IERange
	#	s	Hz	ohm	ohm	V	ohm	°	A	V	#
	0	7	300046.9	42.51903	-6.197777	1	42.96836	-8.293299	-5.559337E-005	0.0012001	9
	1	11	238359.4	43.3412	-8.517388	1	44.17019	-11.11805	4.369393E-005	-0.0010748	9
	2	14	189328.1	44.22622	-10.80473	1	45.52692	-13.72878	-1.20732E-005	-0.0007371	9
	3	16	150421.9	45.35986	-13.25896	1	47.25799	-16.29396	3.232265E-006	-0.0006097	9
	4	19	119484.4	46.6561	-16.19445	1	49.38676	-19.14202	2.959599E-006	-0.0004985	9
	5	21	94921.88	48.06632	-19.2396	1	51.77386	-21.81484	-1.029005E-005	0.0005951	9
	6	24	75421.88	49.49866	-23.01899	1	54.58929	-24.94044	-1.413766E-005	0.0005371	9
	7	26	59859.37	51.04367	-27.61833	1	58.03644	-28.4166	-2.46421E-006	0.0004204	9
	8	29	47578.12	52.63745	-33.06701	1	62.16212	-32.13716	-8.222022E-006	0.0005845	9
	9	31	37828.12	54.39343	-39.5743	1	67.26641	-36.03801	-1.531473E-005	0.0005188	9
	10	34	30046.88	56.32153	-47.77549	1	73.85534	-40.30672	-1.086739E-005	0.0006585	9
	11	36	23859.38	58.51892	-57.85572	1	82.29063	-44.67348	-1.544359E-005	0.0005035	9
	12	39	18984.38	61.08429	-70.25189	1	93.09467	-48.99292	-3.646422E-006	-6.809476E-005	9
	13	41	15046.87	63.93745	-86.14821	1	107.2824	-53.41795	-3.423784E-006	-8.375853E-005	9
	14	43	11953.13	67.85802	-105.0803	1	125.0863	-57.14671	5.561033E-006	0.0002744	9
	15	46	9515.62	72.31381	-128.4444	1	147.4016	-60.62061	2.685094E-006	-0.0002644	9
	16	48	7546.875	78.08302	-157.3108	1	175.6236	-63.60197	8.525556E-006	-0.0004031	9
	17	50	5928.309	86.22759	-194.3959	1	212.6616	-66.07951	2.600414E-006	-0.0002484	9
	18	53	4733.456	95.0807	-237.0812	1	255.4366	-68.1469	1.892518E-005	-0.0002792	9
	19	55	3796.875	107.4913	-287.0675	1	306.5325	-69.47179	-1.298379E-005	0.0002814	9
	20	57	2987.132	120.9593	-354.0198	1	374.1138	-71.13605	-1.572917E-005	0.0005665	9
	21	60	2390.625	135.908	-431.6874	1	452.576	-72.52445	-1.480212E-005	0.0005889	9
	22	62	1884.191	159.7049	-526.1589	1	549.8626	-73.11539	7.584007E-007	0.0010675	8
	23	64	1516.544	185.3648	-634.4658	1	660.9894	-73.71381	8.324266E-007	4.347213E-005	8
	24	67	1193.986	219.7816	-780.2657	1	810.6285	-74.26878	-1.640189E-006	0.0007684	8
	25	69	946.5144	262.0471	-951.95	1	987.358	-74.60915	2.977177E-006	-0.0004265	8
	26	71	751.7689	307.9077	-1158.847	1	1199.055	-75.12021	-2.936307E-006	0.0015946	8
	27	74	597.4265	370.1493	-1415.43	1	1463.028	-75.34476	8.394433E-007	5.450279E-005	8
	28	76	477.4305	438.9458	-1712.801	1	1768.151	-75.62595	3.790038E-007	0.0006572	8
	29	78	376.6741	530.1315	-2097.932	1	2163.875	-75.81866	3.653238E-007	0.000652	8
	30	81	298.2954	639.3127	-2561.23	1	2639.814	-75.9847	3.576334E-007	0.000656	8
	31	83	237.7717	768.2523	-3109.514	1	3203.013	-76.12213	3.663402E-007	0.0006535	8
	32	85	189.0121	925.8366	-3784.321	1	3895.928	-76.25258	3.718686E-007	0.0006591	8
	33	88	150.2404	1119.245	-4615.311	1	4749.084	-76.36852	-6.661191E-008	0.0006274	7
	34	90	119.1737	1352.001	-5630.594	1	5790.639	-76.49793	-6.618929E-008	0.0006315	7
	35	93	95.0169	1628.608	-6839.906	1	7031.123	-76.60703	-6.577136E-008	0.0006318	7
	36	95	75.60484	1967.808	-8328.805	1	8558.11	-76.70676	-6.38303E-008	0.0006243	7
	37	98	54.50582	2582.577	-11039.13	1	11337.2	-76.83262	-6.429244E-008	0.0006345	7
	38	100	45.95588	2992.148	-12812.12	1	13156.87	-76.85472	-6.532393E-008	0.0006316	7
	39	103	37.20238	3589.25	-15387.17	1	15800.24	-76.86982	-6.827894E-008	0.0006319	7
	40	105	30.04808	4332.652	-18513.46	1	19013.68	-76.82829	-6.688404E-008	0.0006294	7
	41	107	23.91582	5305.411	-22549.16	1	23164.89	-76.76014	-6.394812E-008	0.0006273	7
	42	110	18.60119	6684.585	-28049.13	1	28834.66	-76.59547	-6.847328E-008	0.0006394	7
	43	112	15.02404	8188.48	-33765.42	1	34744.14	-76.36832	-6.470921E-008	0.0006252	7
	44	114	12.01923	10177.58	-40946.71	1	42192.61	-76.04162	-6.545701E-008	0.00063	7
	45	117	9.450605	12980.26	-50384.34	1	52029.5	-75.55333	-1.083309E-007	0.0006838	6
	46	119	7.512019	16475.21	-61303.23	1	63478.49	-74.95723	-1.082352E-007	0.0007036	6
	47	122	5.978954	21080.98	-74398.18	1	77327.2	-74.17974	-1.080801E-007	0.0006946	6
	48	125	4.734848	27303.04	-90436.38	1	94467.96	-73.20077	-1.07412E-007	0.0007177	6
	49	128	3.75601	35632.5	-109428.3	1	115083.5	-71.96349	-1.078942E-007	0.0006722	6
	50	134	3.004808	46173.35	-130926	1	138829.4	-70.57391	-1.074691E-007	0.0007082	6
	51	140	2.372217	61234.52	-157484.1	1	168970.2	-68.75243	-1.073206E-007	0.0007605	6
	52	144	1.878005	80568.09	-187411.2	1	203995.6	-66.73713	-1.074602E-007	0.0006578	6
	53	149	1.512097	104015.5	-218060.9	1	241598.4	-64.49876	-1.068097E-007	0.0007696	6
	54	155	1.201923	135540.7	-254149.4	1	288033.3	-61.9285	-1.063384E-007	0.0006555	6
	55	161	0.956633	174837.7	-291631.5	1	340025.2	-59.05664	-1.071267E-007	4.041831E-005	6
