EXPLAIN
TAG	EISPOT
TITLE	LABEL	Potentiostatic EIS	Test Identifier
DATE	LABEL	2/26/2021	Date
TIME	LABEL	12:27:42	Time
NOTES	NOTES	1	Notes...
	
PSTAT	PSTAT	REF3000-16137	Potentiostat
VDC	POTEN	0.00000E+000	T	DC Voltage (V)
FREQINIT	QUANT	3.00000E+005	Initial Freq. (Hz)
FREQFINAL	QUANT	1.00000E+000	Final Freq. (Hz)
PTSPERDEC	QUANT	1.00000E+001	Points/decade
VAC	QUANT	5.00000E+001	AC Voltage (mV rms)
AREA	QUANT	1.00000E+000	Sample Area (cm^2)
SPEED	SELECTOR	2	Optimize for:
ZGUESS	QUANT	1.00000E+003	Estimated Z (ohms)
EOC	QUANT	0	Open Circuit (V)
SEQUENCER	TOGGLE	TRUE	Run as Sequence
PSTATMODEL	IQUANT	5	Pstat Model
PSTATSECTION	LABEL	REF3000-16137	Pstat Section
PSTATSERIALNO	LABEL	16137	Pstat Serial Number
CTRLMODE	IQUANT	1	Control Mode
IESTAB	IQUANT	0	I/E Stability
CASPEED	IQUANT	1	Control Amp Speed
CONVENTION	IQUANT	1	Current Convention
ICHRANGE	IQUANT	2	Ich Range
ICHRANGEMODE	TOGGLE	F	Ich Auto Range
ICHOFFSETENABLE	TOGGLE	T	Ich Offset Enable
ICHOFFSET	QUANT	0	Ich Offset (V)
ICHFILTER	IQUANT	3	Ich Filter
VCHRANGE	IQUANT	2	Vch Range
VCHRANGEMODE	TOGGLE	F	Vch Auto Range
VCHOFFSETENABLE	TOGGLE	T	Vch Offset Enable
VCHOFFSET	QUANT	0	Vch Offset (V)
VCHFILTER	IQUANT	3	Vch Filter
ACHRANGE	IQUANT	2	Ach Range
ACHOFFSETENABLE	TOGGLE	F	Ach Offset Enable
ACHOFFSET	QUANT	0	Ach Offset (V)
ACHFILTER	IQUANT	3	Ach Filter
IERANGELOWERLIMIT	IQUANT	2	I/E Range Lower Limit
IERANGEMODE	TOGGLE	F	I/E AutoRange
IERANGE	IQUANT	11	I/E Range
POSFEEDENABLE	TOGGLE	F	Positive Feedback IR Comp
POSFEEDRESISTANCE	QUANT	0	Positive Feedback Resistance (ohm)
ACHSELECT	IQUANT	0	Ach Select
CABLEID	IQUANT	13	Cable ID
DCCALDATE	LABEL	7/31/2020	DC Calibration Date
ACCALDATE	LABEL	7/31/2020	AC Calibration Date
THERMOSELECT	IQUANT	1	Thermo Select
FRAMEWORKVERSION	QUANT	6.33	Framework Version
INSTRUMENTVERSION	LABEL	3.50	Instrument Version
COMPLIANCEVOLTAGE	IQUANT	0	Compliance Voltage
ZCURVE	TABLE
	Pt	Time	Freq	Zreal	Zimag	Zsig	Zmod	Zphz	Idc	Vdc	IERange
	#	s	Hz	ohm	ohm	V	ohm	°	A	V	#
	0	14	300046.9	1133.384	-4479.498	1	4620.656	-75.80124	3.682672E-006	0.0015902	9
	1	28	238359.4	1702.464	-5423.552	1	5684.479	-72.57282	-2.836534E-005	-0.0011758	9
	2	41	189328.1	2436.578	-6623.968	1	7057.894	-69.80432	2.619365E-005	-0.0014932	9
	3	49	150421.9	2797.74	-7748.174	1	8237.813	-70.14617	-2.016585E-005	0.0011414	9
	4	56	119484.4	5271.872	-8546.043	1	10041.29	-58.33045	2.457955E-005	0.0081665	8
	5	64	94921.88	7059.085	-9536.75	1	11865.09	-53.49123	2.582634E-005	-0.0087381	8
	6	72	75421.88	8995.771	-9809.89	1	13310.06	-47.47884	-9.622365E-007	-0.0050115	8
	7	81	59859.37	11627.91	-10930.58	1	15958.87	-43.22943	1.627184E-005	-0.0090428	8
	8	90	47578.12	13725.82	-10864.27	1	17505.15	-38.36233	-9.342662E-006	-0.0020294	8
	9	101	37828.12	17655.63	-9433.821	1	20017.95	-28.11665	6.305477E-006	-0.0087504	7
	10	107	30046.88	19712.99	-8623.645	1	21516.72	-23.62745	6.316527E-006	-0.0090303	7
	11	113	23859.38	21344.87	-7785.519	1	22720.43	-20.03939	2.10654E-007	0.0164044	7
	12	117	18984.38	22448.64	-6779.939	1	23450.14	-16.80537	6.832173E-006	-0.0262855	7
	13	122	15046.87	23413.98	-5863.105	1	24136.91	-14.05837	-6.460819E-006	0.0250674	7
	14	126	11953.13	24402.85	-5157.572	1	24941.93	-11.93391	4.597848E-006	0.0002194	7
	15	131	9515.62	24938.08	-4886.256	1	25412.27	-11.08584	-2.432925E-005	0.0108446	8
	16	138	7546.875	26079.25	-3852.561	1	26362.27	-8.403254	7.391926E-006	-0.0072755	8
	17	145	5928.309	26640.77	-5703.619	1	27244.48	-12.08424	-2.422838E-005	0.0108675	8
	18	152	4733.456	27829.09	-4321.439	1	28162.62	-8.826677	1.718755E-005	0.0003711	8
	19	158	3796.875	28298.04	-3741.958	1	28544.37	-7.532738	-2.416128E-005	0.0107758	8
	20	166	2987.132	29165.28	-4125.757	1	29455.65	-8.051708	-2.003711E-005	0.002821	8
	21	173	2390.625	32087.66	-4574.409	1	32412.08	-8.113404	-1.574824E-005	0.0008532	8
	22	180	1884.191	27560.19	-2358.353	1	27660.9	-4.890943	8.203398E-006	-0.0075703	8
	23	188	1516.544	31655.9	-4057.821	1	31914.91	-7.304642	6.798922E-006	-0.0262455	7
	24	193	1193.986	32114.84	-4740.041	1	32462.76	-8.396043	-3.106234E-006	-0.005634	7
	25	199	946.5144	33808.09	-8615.459	1	34888.58	-14.29663	2.332008E-005	-0.0028111	8
	26	203	751.7689	32726.04	-4580.793	1	33045.08	-7.968146	2.199053E-005	-0.009315	8
	27	208	597.4265	32598.43	-3394.593	1	32774.7	-5.944989	-2.478989E-005	0.0110085	8
	28	213	477.4305	36206.95	-8700.479	1	37237.63	-13.51191	-2.105047E-007	0.0006528	8
	29	219	376.6741	37491.21	-10268.73	1	38872.07	-15.31748	-6.551214E-008	0.00062	7
	30	221	298.2954	38787.09	-11795.53	1	40541	-16.91502	-6.994331E-009	0.0007221	6
	31	223	237.7717	39986.04	-14017.77	1	42371.94	-19.31897	-7.300891E-009	0.0007139	6
	32	226	189.0121	41290.53	-16614.37	1	44507.8	-21.91873	-6.354367E-009	0.0006399	6
	33	228	150.2404	42704.07	-19685.64	1	47023	-24.74866	-6.73992E-009	0.0006844	6
	34	230	119.1737	44241.19	-23375.93	1	50037.15	-27.85085	-7.479201E-009	0.0006785	6
	35	233	95.0169	45895.85	-27761.69	1	53638.98	-31.1691	-6.72818E-009	0.0006596	6
	36	235	75.60484	47489.45	-33170.15	1	57926.73	-34.9333	-7.218398E-009	0.0006774	6
	37	238	54.50582	49694.79	-43113.11	1	65789.91	-40.94353	-6.810487E-009	0.0006566	6
	38	240	45.95588	51210.81	-49917.31	1	71514.23	-44.26719	-6.932365E-009	0.0006502	6
	39	243	37.20238	52915.75	-59862.01	1	79897.03	-48.52454	-6.262521E-009	0.0006199	6
	40	245	30.04808	54889.7	-72277.32	1	90757.31	-52.7858	-6.395496E-009	0.0006269	6
	41	248	23.91582	57177.64	-88769.96	1	105590.7	-57.214	-6.159623E-009	0.0006389	6
	42	250	18.60119	59898.97	-111556.1	1	126620.1	-61.76685	-5.76274E-009	0.0006225	6
	43	252	15.02404	63148.93	-135743.3	1	149713.1	-65.05175	-7.239094E-009	0.0006825	6
	44	255	12.01923	66974.49	-166911.2	1	179847	-68.13647	-6.662689E-009	0.0006389	6
	45	257	9.450605	71744	-208704.3	1	220691.4	-71.02912	-7.145399E-009	0.0007325	6
	46	260	7.512019	77731.75	-258637	1	270065.4	-73.27217	-6.742192E-009	0.0007046	6
	47	263	5.978954	85121.59	-320165.5	1	331287.8	-75.11134	-6.919696E-009	0.0007155	6
	48	267	4.734848	94048.28	-398872.8	1	409810.4	-76.73283	-6.449582E-009	0.0006439	6
	49	271	3.75601	106224.1	-496031.7	1	507278	-77.9128	-6.332734E-010	0.0006164	5
	50	276	3.004808	119992.8	-611221	1	622887.9	-78.89314	-6.909744E-010	0.0006506	5
	51	283	2.372217	137256.1	-763107.5	1	775353	-79.80354	-7.799196E-010	0.0007292	5
	52	287	1.878005	158527.8	-949891.2	1	963029	-80.5252	-7.918105E-010	0.0006336	5
	53	292	1.512097	183935.8	-1161979	1	1176447	-81.00499	-7.073755E-010	0.0007187	5
	54	297	1.201923	213861.8	-1445483	1	1461218	-81.58404	-7.737815E-010	0.0006285	5
	55	303	0.956633	252480.9	-1793172	1	1810860	-81.98537	-7.998767E-010	1.644095E-005	5
