EXPLAIN
TAG	EISPOT
TITLE	LABEL	Potentiostatic EIS	Test Identifier
DATE	LABEL	2/26/2021	Date
TIME	LABEL	11:04:32	Time
NOTES	NOTES	1	Notes...
	
PSTAT	PSTAT	REF3000-16137	Potentiostat
VDC	POTEN	0.00000E+000	T	DC Voltage (V)
FREQINIT	QUANT	3.00000E+005	Initial Freq. (Hz)
FREQFINAL	QUANT	1.00000E+000	Final Freq. (Hz)
PTSPERDEC	QUANT	1.00000E+001	Points/decade
VAC	QUANT	5.00000E+001	AC Voltage (mV rms)
AREA	QUANT	1.00000E+000	Sample Area (cm^2)
SPEED	SELECTOR	2	Optimize for:
ZGUESS	QUANT	1.00000E+003	Estimated Z (ohms)
EOC	QUANT	0	Open Circuit (V)
SEQUENCER	TOGGLE	TRUE	Run as Sequence
PSTATMODEL	IQUANT	5	Pstat Model
PSTATSECTION	LABEL	REF3000-16137	Pstat Section
PSTATSERIALNO	LABEL	16137	Pstat Serial Number
CTRLMODE	IQUANT	1	Control Mode
IESTAB	IQUANT	0	I/E Stability
CASPEED	IQUANT	1	Control Amp Speed
CONVENTION	IQUANT	1	Current Convention
ICHRANGE	IQUANT	2	Ich Range
ICHRANGEMODE	TOGGLE	F	Ich Auto Range
ICHOFFSETENABLE	TOGGLE	T	Ich Offset Enable
ICHOFFSET	QUANT	0	Ich Offset (V)
ICHFILTER	IQUANT	3	Ich Filter
VCHRANGE	IQUANT	2	Vch Range
VCHRANGEMODE	TOGGLE	F	Vch Auto Range
VCHOFFSETENABLE	TOGGLE	T	Vch Offset Enable
VCHOFFSET	QUANT	0	Vch Offset (V)
VCHFILTER	IQUANT	3	Vch Filter
ACHRANGE	IQUANT	2	Ach Range
ACHOFFSETENABLE	TOGGLE	F	Ach Offset Enable
ACHOFFSET	QUANT	0	Ach Offset (V)
ACHFILTER	IQUANT	3	Ach Filter
IERANGELOWERLIMIT	IQUANT	2	I/E Range Lower Limit
IERANGEMODE	TOGGLE	F	I/E AutoRange
IERANGE	IQUANT	11	I/E Range
POSFEEDENABLE	TOGGLE	F	Positive Feedback IR Comp
POSFEEDRESISTANCE	QUANT	0	Positive Feedback Resistance (ohm)
ACHSELECT	IQUANT	0	Ach Select
CABLEID	IQUANT	13	Cable ID
DCCALDATE	LABEL	7/31/2020	DC Calibration Date
ACCALDATE	LABEL	7/31/2020	AC Calibration Date
THERMOSELECT	IQUANT	1	Thermo Select
FRAMEWORKVERSION	QUANT	6.33	Framework Version
INSTRUMENTVERSION	LABEL	3.50	Instrument Version
COMPLIANCEVOLTAGE	IQUANT	0	Compliance Voltage
ZCURVE	TABLE
	Pt	Time	Freq	Zreal	Zimag	Zsig	Zmod	Zphz	Idc	Vdc	IERange
	#	s	Hz	ohm	ohm	V	ohm	°	A	V	#
	0	7	300046.9	39.77756	-6.054681	1	40.23573	-8.654757	-2.988534E-005	-0.0003444	9
	1	10	238359.4	40.51403	-8.273303	1	41.35014	-11.54159	4.07079E-005	-0.0011517	9
	2	13	189328.1	41.45716	-10.46035	1	42.75646	-14.16113	1.578091E-005	-0.000694	9
	3	16	150421.9	42.54498	-13.00528	1	44.48835	-16.99751	-1.692221E-006	-0.0007579	9
	4	18	119484.4	43.67465	-15.7803	1	46.43806	-19.86554	-3.962592E-005	0.0009575	9
	5	21	94921.88	45.12999	-18.74143	1	48.86673	-22.55197	-8.321485E-006	8.964118E-005	9
	6	23	75421.88	46.46	-22.46325	1	51.60551	-25.8036	1.194415E-005	2.98452E-005	9
	7	26	59859.37	47.96972	-26.89928	1	54.99696	-29.28177	5.910521E-006	-0.0003308	9
	8	28	47578.12	49.53471	-32.27596	1	59.12212	-33.08756	1.794877E-005	-0.0004551	9
	9	31	37828.12	51.21471	-38.75356	1	64.22449	-37.11436	-1.449613E-005	0.0004968	9
	10	33	30046.88	53.1173	-46.90897	1	70.86536	-41.44838	-1.505186E-005	0.000606	9
	11	36	23859.38	55.34104	-56.85739	1	79.34351	-45.7743	1.03151E-005	2.153688E-005	9
	12	38	18984.38	57.94431	-68.91284	1	90.03623	-49.94171	-1.267819E-005	0.0005805	9
	13	40	15046.87	61.02597	-84.28347	1	104.0571	-54.09335	-4.022173E-006	-5.521187E-005	9
	14	43	11953.13	64.86278	-103.046	1	121.7607	-57.81146	-1.240212E-006	0.0003851	9
	15	45	9515.62	70.07605	-125.4016	1	143.6531	-60.80296	1.252492E-005	-0.0004628	9
	16	47	7546.875	76.41811	-153.3139	1	171.3035	-63.5064	-1.552054E-005	0.0004822	9
	17	50	5928.309	83.90083	-189.632	1	207.3636	-66.13348	1.595527E-005	-0.0001576	9
	18	52	4733.456	93.46916	-230.2488	1	248.4975	-67.90538	1.817876E-005	-0.0004457	9
	19	54	3796.875	106.4867	-278.2222	1	297.9044	-69.05618	-4.07937E-006	-5.035255E-005	9
	20	57	2987.132	119.446	-342.8824	1	363.0919	-70.79379	1.100295E-005	5.584867E-005	9
	21	59	2390.625	140.1702	-413.449	1	436.5635	-71.27198	1.948257E-006	-0.0002358	9
	22	61	1884.191	160.3641	-506.4322	1	531.2158	-72.42937	8.474885E-007	8.226023E-005	8
	23	64	1516.544	184.4305	-610.1224	1	637.3884	-73.18076	8.321686E-007	0.0010064	8
	24	66	1193.986	218.1617	-748.011	1	779.1759	-73.74037	3.896602E-006	-0.0001514	8
	25	68	946.5144	256.6123	-913.5633	1	948.9193	-74.31039	8.411219E-007	4.427633E-005	8
	26	71	751.7689	306.8315	-1108.893	1	1150.56	-74.5332	-1.379618E-006	0.0007383	8
	27	73	597.4265	367.8827	-1350.577	1	1399.785	-74.76291	-2.459549E-006	0.0011052	8
	28	75	477.4305	435.0362	-1631.435	1	1688.442	-75.06902	3.659059E-007	0.0006537	8
	29	78	376.6741	523.6219	-1995.066	1	2062.636	-75.29393	3.612791E-007	0.000644	8
	30	80	298.2954	629.1095	-2432.938	1	2512.96	-75.50201	3.667819E-007	0.0006438	8
	31	82	237.7717	752.666	-2951.261	1	3045.726	-75.69273	3.836118E-007	0.0006461	8
	32	85	189.0121	903.4361	-3588.787	1	3700.755	-75.87004	3.620276E-007	0.0006544	8
	33	87	150.2404	1088.528	-4373.958	1	4507.373	-76.02495	-7.533485E-008	0.0006185	7
	34	90	119.1737	1311.185	-5333.416	1	5492.224	-76.18813	-7.555675E-008	0.0006371	7
	35	92	95.0169	1573.872	-6477.144	1	6665.618	-76.34247	-7.316675E-008	0.0006253	7
	36	95	75.60484	1896.696	-7885.16	1	8110.068	-76.47501	-7.145949E-008	0.0006314	7
	37	97	54.50582	2487.479	-10446.51	1	10738.58	-76.60638	-7.27215E-008	0.0006219	7
	38	100	45.95588	2868.491	-12109.68	1	12444.79	-76.67365	-7.087337E-008	0.000628	7
	39	102	37.20238	3441.946	-14547.97	1	14949.6	-76.689	-7.448229E-008	0.0006294	7
	40	104	30.04808	4138.686	-17492.41	1	17975.35	-76.68866	-7.269936E-008	0.0006226	7
	41	107	23.91582	5094.513	-21342.97	1	21942.57	-76.57485	-7.022334E-008	0.0006309	7
	42	109	18.60119	6398.159	-26501.81	1	27263.21	-76.42718	-7.208281E-008	0.0006348	7
	43	111	15.02404	7847.998	-31888.38	1	32839.91	-76.17381	-7.004002E-008	0.0006349	7
	44	114	12.01923	9762.84	-38664.48	1	39878	-75.82894	-7.19997E-008	0.0006241	7
	45	116	9.450605	12413.44	-47542.18	1	49136.06	-75.36657	-1.166699E-007	0.0006548	6
	46	119	7.512019	15825.54	-57819.95	1	59946.59	-74.69282	-1.179002E-007	0.0006806	6
	47	121	5.978954	20202.1	-70086.2	1	72939.7	-73.92056	-1.1745E-007	0.0006877	6
	48	124	4.734848	26169.75	-85167.48	1	89097.45	-72.91917	-1.161881E-007	0.000671	6
	49	128	3.75601	33976.08	-102994.2	1	108453.6	-71.74314	-1.159046E-007	0.000636	6
	50	133	3.004808	43987.86	-123166.3	1	130785.6	-70.34622	-1.152212E-007	0.0006501	6
	51	140	2.372217	57932.91	-147870.4	1	158814	-68.60566	-1.156859E-007	0.0006567	6
	52	144	1.878005	76561.55	-175971.8	1	191905.6	-66.48718	-1.158798E-007	0.0006798	6
	53	149	1.512097	98202.6	-204961.9	1	227273.3	-64.39971	-1.150247E-007	0.0005975	6
	54	154	1.201923	128080.7	-238234	1	270481.3	-61.73639	-1.149976E-007	0.0006898	6
	55	160	0.956633	164680.2	-273029	1	318848.6	-58.90331	-1.151867E-007	4.267032E-005	6
