EXPLAIN
TAG	EISPOT
TITLE	LABEL	Potentiostatic EIS	Test Identifier
DATE	LABEL	2/26/2021	Date
TIME	LABEL	12:00:29	Time
NOTES	NOTES	1	Notes...
	
PSTAT	PSTAT	REF3000-16137	Potentiostat
VDC	POTEN	0.00000E+000	T	DC Voltage (V)
FREQINIT	QUANT	3.00000E+005	Initial Freq. (Hz)
FREQFINAL	QUANT	1.00000E+000	Final Freq. (Hz)
PTSPERDEC	QUANT	1.00000E+001	Points/decade
VAC	QUANT	5.00000E+001	AC Voltage (mV rms)
AREA	QUANT	1.00000E+000	Sample Area (cm^2)
SPEED	SELECTOR	2	Optimize for:
ZGUESS	QUANT	1.00000E+003	Estimated Z (ohms)
EOC	QUANT	0	Open Circuit (V)
SEQUENCER	TOGGLE	TRUE	Run as Sequence
PSTATMODEL	IQUANT	5	Pstat Model
PSTATSECTION	LABEL	REF3000-16137	Pstat Section
PSTATSERIALNO	LABEL	16137	Pstat Serial Number
CTRLMODE	IQUANT	1	Control Mode
IESTAB	IQUANT	0	I/E Stability
CASPEED	IQUANT	1	Control Amp Speed
CONVENTION	IQUANT	1	Current Convention
ICHRANGE	IQUANT	2	Ich Range
ICHRANGEMODE	TOGGLE	F	Ich Auto Range
ICHOFFSETENABLE	TOGGLE	T	Ich Offset Enable
ICHOFFSET	QUANT	0	Ich Offset (V)
ICHFILTER	IQUANT	3	Ich Filter
VCHRANGE	IQUANT	2	Vch Range
VCHRANGEMODE	TOGGLE	F	Vch Auto Range
VCHOFFSETENABLE	TOGGLE	T	Vch Offset Enable
VCHOFFSET	QUANT	0	Vch Offset (V)
VCHFILTER	IQUANT	3	Vch Filter
ACHRANGE	IQUANT	2	Ach Range
ACHOFFSETENABLE	TOGGLE	F	Ach Offset Enable
ACHOFFSET	QUANT	0	Ach Offset (V)
ACHFILTER	IQUANT	3	Ach Filter
IERANGELOWERLIMIT	IQUANT	2	I/E Range Lower Limit
IERANGEMODE	TOGGLE	F	I/E AutoRange
IERANGE	IQUANT	11	I/E Range
POSFEEDENABLE	TOGGLE	F	Positive Feedback IR Comp
POSFEEDRESISTANCE	QUANT	0	Positive Feedback Resistance (ohm)
ACHSELECT	IQUANT	0	Ach Select
CABLEID	IQUANT	13	Cable ID
DCCALDATE	LABEL	7/31/2020	DC Calibration Date
ACCALDATE	LABEL	7/31/2020	AC Calibration Date
THERMOSELECT	IQUANT	1	Thermo Select
FRAMEWORKVERSION	QUANT	6.33	Framework Version
INSTRUMENTVERSION	LABEL	3.50	Instrument Version
COMPLIANCEVOLTAGE	IQUANT	0	Compliance Voltage
ZCURVE	TABLE
	Pt	Time	Freq	Zreal	Zimag	Zsig	Zmod	Zphz	Idc	Vdc	IERange
	#	s	Hz	ohm	ohm	V	ohm	°	A	V	#
	0	17	300046.9	563.0393	-74.03885	1	567.8864	-7.491329	1.425902E-005	-0.0010247	9
	1	32	238359.4	575.9059	-68.66777	1	579.9853	-6.799524	2.363317E-005	-0.0018385	9
	2	40	189328.1	582.1423	-65.69543	1	585.8375	-6.438654	4.910304E-006	0.0015253	9
	3	48	150421.9	595.6224	-69.3194	1	599.6426	-6.638302	-2.784428E-005	-0.0008144	9
	4	55	119484.4	604.8298	-44.90143	1	606.4943	-4.245743	7.377084E-006	-0.0070467	8
	5	62	94921.88	609.2324	-48.35251	1	611.1481	-4.537841	8.19521E-006	0.0021635	8
	6	64	75421.88	616.7246	-58.3906	1	619.4826	-5.408559	1.230661E-005	-0.0006983	8
	7	67	59859.37	620.5931	-68.37349	1	624.3482	-6.287173	1.748583E-005	-0.0049043	8
	8	69	47578.12	628.8212	-79.33784	1	633.8065	-7.190964	-1.361894E-005	0.0069997	8
	9	72	37828.12	636.546	-97.994	1	644.0447	-8.751781	-1.42416E-005	0.0047172	8
	10	74	30046.88	645.7239	-113.3228	1	655.5925	-9.95389	-6.113344E-006	0.0063165	8
	11	77	23859.38	657.1751	-134.5976	1	670.8171	-11.57481	1.636447E-005	-0.0023811	8
	12	79	18984.38	670.2249	-160.0711	1	689.0748	-13.43244	3.610047E-006	-0.004221	8
	13	81	15046.87	684.0054	-190.2477	1	709.9701	-15.54325	1.281605E-005	-0.0003685	8
	14	84	11953.13	700.8195	-224.4756	1	735.8921	-17.76049	3.856038E-006	-0.0042946	8
	15	86	9515.62	722.2046	-263.496	1	768.7715	-20.04447	-1.604374E-005	0.0053802	8
	16	89	7546.875	742.6559	-311.5648	1	805.3636	-22.75941	-1.662056E-005	0.0055307	8
	17	92	5928.309	770.1026	-372.279	1	855.3652	-25.79981	-1.686249E-005	0.0055719	8
	18	95	4733.456	794.3069	-439.8689	1	907.9692	-28.97668	1.763212E-005	-0.004793	8
	19	97	3796.875	814.8979	-517.5581	1	965.363	-32.42046	-1.311089E-005	0.0015296	8
	20	100	2987.132	840.653	-626.6138	1	1048.495	-36.70046	1.767651E-005	-0.0048698	8
	21	103	2390.625	867.0318	-755.8394	1	1150.234	-41.08046	1.675986E-005	-0.0057996	8
	22	106	1884.191	894.7603	-919.4394	1	1282.952	-45.77936	1.37015E-005	-0.0059455	8
	23	109	1516.544	927.5762	-1115.409	1	1450.702	-50.25303	-1.64056E-005	0.0066146	8
	24	112	1193.986	969.521	-1375.722	1	1683.027	-54.82627	-1.121197E-005	0.0072831	8
	25	117	946.5144	1015.109	-1694.777	1	1975.529	-59.07994	1.388732E-005	-0.0059538	8
	26	119	751.7689	1058.438	-2113.385	1	2363.617	-63.3971	1.696171E-005	-0.0024771	8
	27	122	597.4265	1118.416	-2583.111	1	2814.838	-66.58872	1.273493E-005	-0.0002089	8
	28	125	477.4305	1191.228	-3179.682	1	3395.497	-69.46217	-7.034428E-008	0.0006655	8
	29	129	376.6741	1282.85	-3960.983	1	4163.543	-72.05433	-5.971325E-008	0.0006455	8
	30	131	298.2954	1401.128	-4927.18	1	5122.525	-74.12599	-1.904529E-008	0.0006114	7
	31	133	237.7717	1534.759	-6082.088	1	6272.741	-75.83759	-2.015529E-008	0.0006109	7
	32	136	189.0121	1701.022	-7529.283	1	7719.04	-77.2694	-1.968842E-008	0.0006127	7
	33	138	150.2404	1905.712	-9320.562	1	9513.39	-78.4444	-2.203612E-008	0.0006268	7
	34	141	119.1737	2156.996	-11563.13	1	11762.6	-79.43345	-2.027131E-008	0.0005864	7
	35	143	95.0169	2462.785	-14278.92	1	14489.75	-80.21408	-2.1928E-008	0.0006011	7
	36	146	75.60484	2845.217	-17667.76	1	17895.39	-80.85163	-2.310441E-008	0.00064	7
	37	148	54.50582	3533.623	-23972.5	1	24231.54	-81.61481	-2.154869E-008	0.0006012	7
	38	151	45.95588	4020.671	-28117.6	1	28403.62	-81.86217	-2.618403E-008	0.0006323	7
	39	153	37.20238	4712.556	-34235.79	1	34558.61	-82.16249	-2.644304E-008	0.0006256	7
	40	155	30.04808	5578.336	-41805.71	1	42176.24	-82.39964	-2.083816E-008	0.0006087	7
	41	158	23.91582	6796.301	-51746.8	1	52191.2	-82.51774	-4.805285E-009	0.0006711	6
	42	160	18.60119	8331.32	-65264.98	1	65794.6	-82.72533	-4.560333E-009	0.0006447	6
	43	162	15.02404	10111.29	-79764.6	1	80402.92	-82.77548	-4.152005E-009	0.0006793	6
	44	165	12.01923	12404.25	-98234.4	1	99014.5	-82.80324	-3.946704E-009	0.0006504	6
	45	167	9.450605	15478.62	-122892.2	1	123863.2	-82.82124	-4.120646E-009	0.0006707	6
	46	170	7.512019	19241.14	-152090.9	1	153303.2	-82.78977	-3.890967E-009	0.0007098	6
	47	173	5.978954	23975.85	-188049.6	1	189571.8	-82.73413	-3.791869E-009	0.0006274	6
	48	177	4.734848	30187.72	-233664.2	1	235606.2	-82.63858	-3.355065E-009	0.0006623	6
	49	181	3.75601	38177.67	-289691	1	292195.8	-82.49239	-3.621972E-009	0.0006511	6
	50	186	3.004808	48070.16	-356410.1	1	359637.2	-82.31869	-3.650984E-009	0.0006772	6
	51	193	2.372217	61687.85	-443516.3	1	447785.7	-82.08163	-1.626644E-009	0.0007186	5
	52	197	1.878005	79664.2	-550491.1	1	556225.5	-81.76562	-1.5423E-009	0.0005917	5
	53	202	1.512097	101515.9	-671400.8	1	679032	-81.402	-1.490646E-009	0.0007274	5
	54	207	1.201923	130099.1	-831124.5	1	841245.3	-81.10347	-1.549019E-009	0.0006196	5
	55	213	0.956633	168626	-1025510	1	1039281	-80.66233	-1.627609E-009	8.303421E-006	5
