EXPLAIN
TAG	EISPOT
TITLE	LABEL	Potentiostatic EIS	Test Identifier
DATE	LABEL	2/26/2021	Date
TIME	LABEL	11:30:05	Time
NOTES	NOTES	1	Notes...
	
PSTAT	PSTAT	REF3000-16137	Potentiostat
VDC	POTEN	0.00000E+000	T	DC Voltage (V)
FREQINIT	QUANT	3.00000E+005	Initial Freq. (Hz)
FREQFINAL	QUANT	1.00000E+000	Final Freq. (Hz)
PTSPERDEC	QUANT	1.00000E+001	Points/decade
VAC	QUANT	5.00000E+001	AC Voltage (mV rms)
AREA	QUANT	1.00000E+000	Sample Area (cm^2)
SPEED	SELECTOR	2	Optimize for:
ZGUESS	QUANT	1.00000E+003	Estimated Z (ohms)
EOC	QUANT	0	Open Circuit (V)
SEQUENCER	TOGGLE	TRUE	Run as Sequence
PSTATMODEL	IQUANT	5	Pstat Model
PSTATSECTION	LABEL	REF3000-16137	Pstat Section
PSTATSERIALNO	LABEL	16137	Pstat Serial Number
CTRLMODE	IQUANT	1	Control Mode
IESTAB	IQUANT	0	I/E Stability
CASPEED	IQUANT	1	Control Amp Speed
CONVENTION	IQUANT	1	Current Convention
ICHRANGE	IQUANT	2	Ich Range
ICHRANGEMODE	TOGGLE	F	Ich Auto Range
ICHOFFSETENABLE	TOGGLE	T	Ich Offset Enable
ICHOFFSET	QUANT	0	Ich Offset (V)
ICHFILTER	IQUANT	3	Ich Filter
VCHRANGE	IQUANT	2	Vch Range
VCHRANGEMODE	TOGGLE	F	Vch Auto Range
VCHOFFSETENABLE	TOGGLE	T	Vch Offset Enable
VCHOFFSET	QUANT	0	Vch Offset (V)
VCHFILTER	IQUANT	3	Vch Filter
ACHRANGE	IQUANT	2	Ach Range
ACHOFFSETENABLE	TOGGLE	F	Ach Offset Enable
ACHOFFSET	QUANT	0	Ach Offset (V)
ACHFILTER	IQUANT	3	Ach Filter
IERANGELOWERLIMIT	IQUANT	2	I/E Range Lower Limit
IERANGEMODE	TOGGLE	F	I/E AutoRange
IERANGE	IQUANT	11	I/E Range
POSFEEDENABLE	TOGGLE	F	Positive Feedback IR Comp
POSFEEDRESISTANCE	QUANT	0	Positive Feedback Resistance (ohm)
ACHSELECT	IQUANT	0	Ach Select
CABLEID	IQUANT	13	Cable ID
DCCALDATE	LABEL	7/31/2020	DC Calibration Date
ACCALDATE	LABEL	7/31/2020	AC Calibration Date
THERMOSELECT	IQUANT	1	Thermo Select
FRAMEWORKVERSION	QUANT	6.33	Framework Version
INSTRUMENTVERSION	LABEL	3.50	Instrument Version
COMPLIANCEVOLTAGE	IQUANT	0	Compliance Voltage
ZCURVE	TABLE
	Pt	Time	Freq	Zreal	Zimag	Zsig	Zmod	Zphz	Idc	Vdc	IERange
	#	s	Hz	ohm	ohm	V	ohm	°	A	V	#
	0	6	300046.9	88.23484	-8.540394	1	88.64719	-5.52853	-6.814927E-006	-0.0012799	9
	1	10	238359.4	89.08736	-11.05308	1	89.77042	-7.072552	-7.552934E-005	0.0024697	9
	2	13	189328.1	90.33015	-13.90952	1	91.39481	-8.753954	-6.069003E-006	0.0006161	9
	3	15	150421.9	91.82034	-17.21281	1	93.41978	-10.61754	6.726515E-005	-0.002178	9
	4	18	119484.4	93.44268	-20.88318	1	95.7478	-12.59782	1.78024E-005	-0.0004195	9
	5	20	94921.88	95.4838	-24.77035	1	98.6444	-14.54305	-4.980299E-006	0.0006768	9
	6	23	75421.88	97.7128	-29.70623	1	102.1286	-16.9101	-1.453874E-005	0.0001623	9
	7	25	59859.37	100.3024	-35.30154	1	106.3333	-19.38957	1.748272E-005	-0.0006971	9
	8	28	47578.12	103.1171	-41.89376	1	111.3024	-22.11061	1.176158E-005	-0.000607	9
	9	30	37828.12	106.1677	-49.49841	1	117.1395	-24.99628	2.72462E-006	0.000395	9
	10	33	30046.88	109.2946	-58.63948	1	124.0318	-28.21476	1.079409E-005	-0.0005625	9
	11	36	23859.38	112.5959	-69.80144	1	132.4767	-31.79596	1.186888E-005	-0.0006178	9
	12	38	18984.38	115.9968	-83.40729	1	142.8707	-35.71796	5.075994E-006	-0.000452	9
	13	40	15046.87	119.8028	-100.543	1	156.402	-40.00463	-1.510799E-005	0.000239	9
	14	42	11953.13	123.5252	-122.4038	1	173.8999	-44.73876	3.663062E-006	-0.0004042	9
	15	45	9515.62	127.6852	-148.9672	1	196.2008	-49.39893	-1.637E-005	0.0003235	9
	16	47	7546.875	133.1273	-181.7748	1	225.3108	-53.7819	-1.829383E-005	0.0005103	9
	17	49	5928.309	138.9338	-225.9505	1	265.2475	-58.41323	5.584624E-006	-0.0004616	9
	18	52	4733.456	145.9285	-276.8081	1	312.9183	-62.20258	-1.615912E-005	0.0008031	9
	19	54	3796.875	155.2034	-337.959	1	371.893	-65.33364	-1.609555E-005	0.000854	9
	20	56	2987.132	165.8464	-420.7768	1	452.2811	-68.48845	-2.009044E-005	0.0006564	9
	21	59	2390.625	178.2191	-513.804	1	543.835	-70.87029	-3.046879E-006	0.0006457	8
	22	61	1884.191	195.7027	-637.8471	1	667.1945	-72.94307	-5.248679E-006	0.0017667	8
	23	64	1516.544	214.4098	-780.2332	1	809.1572	-74.63428	5.131214E-006	-2.106633E-005	8
	24	66	1193.986	241.849	-970.437	1	1000.12	-76.00601	-4.909843E-006	0.0026185	8
	25	68	946.5144	273.4939	-1199.601	1	1230.382	-77.1568	4.869659E-006	8.295561E-005	8
	26	71	751.7689	313.277	-1484.21	1	1516.912	-78.08134	-3.948726E-006	0.0026254	8
	27	73	597.4265	363.9039	-1829.093	1	1864.942	-78.74775	1.238649E-006	0.0015702	8
	28	76	477.4305	424.4137	-2245.076	1	2284.84	-79.29502	2.892186E-007	0.0006402	8
	29	78	376.6741	505.4758	-2788.801	1	2834.24	-79.72655	2.731697E-007	0.000643	8
	30	80	298.2954	606.9404	-3451.942	1	3504.894	-80.02785	2.983943E-007	0.0006451	8
	31	82	237.7717	730.7183	-4245.59	1	4308.014	-80.23437	3.03699E-007	0.0006447	8
	32	85	189.0121	893.1161	-5242.538	1	5318.069	-80.33194	-6.690876E-009	0.000621	7
	33	87	150.2404	1093.013	-6458.365	1	6550.203	-80.39429	-8.682195E-009	0.0006211	7
	34	90	119.1737	1349.089	-7968.864	1	8082.254	-80.39122	-7.857914E-009	0.0006164	7
	35	92	95.0169	1663.271	-9778.1	1	9918.56	-80.3463	-7.59441E-009	0.0006391	7
	36	95	75.60484	2063.57	-12015.46	1	12191.37	-80.25493	-8.450741E-009	0.0006379	7
	37	97	54.50582	2816.895	-16109.6	1	16354.03	-80.08164	-6.551998E-009	0.0006287	7
	38	100	45.95588	3334.268	-18793.05	1	19086.55	-79.93926	-8.428853E-009	0.0006465	7
	39	102	37.20238	4099.085	-22682.61	1	23050.02	-79.75636	-9.893948E-009	0.000635	7
	40	104	30.04808	5062.438	-27472.71	1	27935.25	-79.55914	-7.113571E-009	0.0006299	7
	41	107	23.91582	6331.949	-33598.19	1	34189.65	-79.32716	-6.072731E-009	0.0006236	7
	42	109	18.60119	8122.662	-41964.42	1	42743.31	-79.04526	-9.110247E-009	0.000636	7
	43	111	15.02404	10107.02	-50749.91	1	51746.55	-78.73671	-3.270335E-008	0.0006858	6
	44	114	12.01923	12682.37	-61783.97	1	63072.2	-78.40005	-3.399516E-008	0.0006768	6
	45	116	9.450605	16248.35	-76339.45	1	78049.48	-77.98428	-3.270953E-008	0.0006749	6
	46	119	7.512019	20698.56	-93318.98	1	95586.9	-77.49401	-3.239871E-008	0.0006733	6
	47	122	5.978954	26454.82	-113908.8	1	116940.5	-76.92509	-3.289873E-008	0.0006868	6
	48	126	4.734848	34192.06	-139483.6	1	143613.2	-76.2265	-3.21684E-008	0.0007146	6
	49	129	3.75601	44559.38	-170280.3	1	176014	-75.33553	-3.238614E-008	0.0006647	6
	50	135	3.004808	57716.25	-205917.8	1	213853.5	-74.34246	-3.209976E-008	0.0006913	6
	51	141	2.372217	76902.03	-251146	1	262656.2	-72.97518	-3.205177E-008	0.0007533	6
	52	146	1.878005	101908.1	-304359.3	1	320967.1	-71.488	-3.221361E-008	0.0006573	6
	53	150	1.512097	132916.8	-360709.4	1	384419.3	-69.7718	-3.176799E-008	0.0007095	6
	54	156	1.201923	177119.2	-430987.3	1	465962.7	-67.65923	-3.175464E-008	0.0006583	6
	55	162	0.956633	234867	-508248.3	1	559891.8	-65.19784	-3.460181E-008	6.18714E-005	5
