EXPLAIN
TAG	EISPOT
TITLE	LABEL	Potentiostatic EIS	Test Identifier
DATE	LABEL	2/26/2021	Date
TIME	LABEL	11:18:41	Time
NOTES	NOTES	1	Notes...
	
PSTAT	PSTAT	REF3000-16137	Potentiostat
VDC	POTEN	0.00000E+000	T	DC Voltage (V)
FREQINIT	QUANT	3.00000E+005	Initial Freq. (Hz)
FREQFINAL	QUANT	1.00000E+000	Final Freq. (Hz)
PTSPERDEC	QUANT	1.00000E+001	Points/decade
VAC	QUANT	5.00000E+001	AC Voltage (mV rms)
AREA	QUANT	1.00000E+000	Sample Area (cm^2)
SPEED	SELECTOR	2	Optimize for:
ZGUESS	QUANT	1.00000E+003	Estimated Z (ohms)
EOC	QUANT	0	Open Circuit (V)
SEQUENCER	TOGGLE	TRUE	Run as Sequence
PSTATMODEL	IQUANT	5	Pstat Model
PSTATSECTION	LABEL	REF3000-16137	Pstat Section
PSTATSERIALNO	LABEL	16137	Pstat Serial Number
CTRLMODE	IQUANT	1	Control Mode
IESTAB	IQUANT	0	I/E Stability
CASPEED	IQUANT	1	Control Amp Speed
CONVENTION	IQUANT	1	Current Convention
ICHRANGE	IQUANT	2	Ich Range
ICHRANGEMODE	TOGGLE	F	Ich Auto Range
ICHOFFSETENABLE	TOGGLE	T	Ich Offset Enable
ICHOFFSET	QUANT	0	Ich Offset (V)
ICHFILTER	IQUANT	3	Ich Filter
VCHRANGE	IQUANT	2	Vch Range
VCHRANGEMODE	TOGGLE	F	Vch Auto Range
VCHOFFSETENABLE	TOGGLE	T	Vch Offset Enable
VCHOFFSET	QUANT	0	Vch Offset (V)
VCHFILTER	IQUANT	3	Vch Filter
ACHRANGE	IQUANT	2	Ach Range
ACHOFFSETENABLE	TOGGLE	F	Ach Offset Enable
ACHOFFSET	QUANT	0	Ach Offset (V)
ACHFILTER	IQUANT	3	Ach Filter
IERANGELOWERLIMIT	IQUANT	2	I/E Range Lower Limit
IERANGEMODE	TOGGLE	F	I/E AutoRange
IERANGE	IQUANT	11	I/E Range
POSFEEDENABLE	TOGGLE	F	Positive Feedback IR Comp
POSFEEDRESISTANCE	QUANT	0	Positive Feedback Resistance (ohm)
ACHSELECT	IQUANT	0	Ach Select
CABLEID	IQUANT	13	Cable ID
DCCALDATE	LABEL	7/31/2020	DC Calibration Date
ACCALDATE	LABEL	7/31/2020	AC Calibration Date
THERMOSELECT	IQUANT	1	Thermo Select
FRAMEWORKVERSION	QUANT	6.33	Framework Version
INSTRUMENTVERSION	LABEL	3.50	Instrument Version
COMPLIANCEVOLTAGE	IQUANT	0	Compliance Voltage
ZCURVE	TABLE
	Pt	Time	Freq	Zreal	Zimag	Zsig	Zmod	Zphz	Idc	Vdc	IERange
	#	s	Hz	ohm	ohm	V	ohm	°	A	V	#
	0	7	300046.9	58.14146	-7.13569	1	58.57771	-6.996909	5.414798E-005	-0.0018987	9
	1	10	238359.4	59.10239	-9.448747	1	59.85292	-9.083058	6.661146E-006	-0.0012819	9
	2	13	189328.1	60.15731	-12.03042	1	61.34846	-11.30898	-3.117313E-005	-0.0001354	9
	3	16	150421.9	61.40513	-14.92028	1	63.19181	-13.65712	-5.293043E-006	0.0007595	9
	4	18	119484.4	62.86821	-18.08275	1	65.41711	-16.04679	-4.857563E-006	0.000827	9
	5	21	94921.88	64.64003	-21.46823	1	68.11181	-18.37234	3.780786E-006	0.0002668	9
	6	23	75421.88	66.32404	-25.60644	1	71.09548	-21.11062	1.532352E-005	-0.0005801	9
	7	26	59859.37	68.23493	-30.5466	1	74.76029	-24.11654	-4.726489E-006	-0.0001404	9
	8	28	47578.12	70.32503	-36.27559	1	79.12981	-27.28593	9.949621E-006	-0.000494	9
	9	31	37828.12	72.47572	-43.24947	1	84.39933	-30.8264	2.094775E-005	-0.0004161	9
	10	33	30046.88	74.67551	-51.7169	1	90.8354	-34.70473	-1.504729E-005	0.0003903	9
	11	36	23859.38	77.00165	-62.35616	1	99.0835	-39.00065	1.93064E-005	-0.0005475	9
	12	38	18984.38	79.70807	-75.25594	1	109.6213	-43.35434	-2.764539E-006	-0.0001323	9
	13	40	15046.87	82.46268	-91.87346	1	123.4537	-48.08986	2.174433E-005	-0.00038	9
	14	43	11953.13	86.05132	-112.2493	1	141.4381	-52.52589	3.385193E-006	0.000366	9
	15	45	9515.62	90.08289	-137.0029	1	163.9656	-56.67406	-1.241907E-005	0.0007257	9
	16	47	7546.875	94.91118	-168.8062	1	193.6586	-60.65315	-1.305449E-005	0.0002047	9
	17	50	5928.309	101.6027	-209.0569	1	232.439	-64.08002	-3.477921E-006	-0.0001183	9
	18	52	4733.456	109.1217	-256.5566	1	278.7989	-66.95839	-3.796566E-006	-0.0001224	9
	19	54	3796.875	118.0159	-313.2511	1	334.7447	-69.35633	1.101848E-005	7.759075E-005	9
	20	57	2987.132	131.0045	-388.5362	1	410.0275	-71.36721	1.011359E-005	-0.0005012	9
	21	59	2390.625	145.1109	-473.0037	1	494.7622	-72.94472	4.872096E-006	-0.0005199	8
	22	61	1884.191	163.6612	-585.769	1	608.2026	-74.38988	-2.694079E-006	0.0020128	8
	23	64	1516.544	185.4165	-713.1963	1	736.9045	-75.42688	4.242668E-006	-0.000803	8
	24	66	1193.986	216.0655	-884.1277	1	910.1462	-76.26707	-2.794558E-006	0.0020691	8
	25	68	946.5144	249.6802	-1089.777	1	1118.014	-77.09561	8.805262E-007	-0.0002371	8
	26	71	751.7689	300.1119	-1335.546	1	1368.85	-77.33538	3.351599E-006	-0.0007252	8
	27	73	597.4265	360.03	-1645.189	1	1684.122	-77.6561	7.751906E-007	-0.0002053	8
	28	75	477.4305	426.5136	-2002.06	1	2046.987	-77.97364	3.907993E-007	0.0006148	8
	29	78	376.6741	518.4731	-2470.503	1	2524.321	-78.14761	3.391105E-007	0.0006498	8
	30	80	298.2954	631.5235	-3037.266	1	3102.226	-78.25414	3.618197E-007	0.000648	8
	31	82	237.7717	767.3638	-3709.787	1	3788.32	-78.31327	3.443934E-007	0.0006501	8
	32	85	189.0121	941.2513	-4549.451	1	4645.8	-78.31081	-3.216136E-008	0.0006252	7
	33	87	150.2404	1151.489	-5565.984	1	5683.846	-78.31155	-3.253405E-008	0.0006298	7
	34	90	119.1737	1413.098	-6821.748	1	6966.57	-78.29692	-3.160102E-008	0.0006235	7
	35	92	95.0169	1729.154	-8317.911	1	8495.741	-78.25643	-3.376564E-008	0.0006316	7
	36	95	75.60484	2119.781	-10158.77	1	10377.58	-78.21349	-3.196416E-008	0.0006231	7
	37	97	54.50582	2842.348	-13520.18	1	13815.72	-78.1276	-3.129415E-008	0.0006191	7
	38	100	45.95588	3320.73	-15692.82	1	16040.32	-78.05199	-2.674672E-008	0.0005855	7
	39	102	37.20238	4032.728	-18888.24	1	19313.95	-77.94804	-3.323368E-008	0.0006221	7
	40	104	30.04808	4904.463	-22763.78	1	23286.12	-77.84146	-3.156435E-008	0.0006231	7
	41	107	23.91582	6072.438	-27821.51	1	28476.5	-77.68748	-2.931089E-008	0.0006179	7
	42	109	18.60119	7675.113	-34562.06	1	35404	-77.47964	-3.133258E-008	0.0006245	7
	43	111	15.02404	9404.824	-41665.32	1	42713.58	-77.28019	-6.812181E-008	0.0006753	6
	44	114	12.01923	11718.45	-50613.6	1	51952.46	-76.96413	-6.843781E-008	0.0006676	6
	45	116	9.450605	14924.27	-62418.02	1	64177.43	-76.55293	-6.787129E-008	0.0006794	6
	46	119	7.512019	18995.24	-76099.99	1	78434.87	-75.98484	-6.781324E-008	0.0006807	6
	47	121	5.978954	24275.9	-92575.82	1	95705.8	-75.30632	-6.754065E-008	0.0006819	6
	48	125	4.734848	31543.23	-112989.7	1	117310.1	-74.40192	-6.654661E-008	0.0006985	6
	49	128	3.75601	41053.96	-137353.3	1	143357.4	-73.35895	-6.650231E-008	0.0006808	6
	50	134	3.004808	53405.74	-165170.7	1	173590.1	-72.08208	-6.635398E-008	0.0007083	6
	51	140	2.372217	70787.74	-199812.7	1	211981.1	-70.49226	-6.611605E-008	0.0007243	6
	52	145	1.878005	94416.9	-239429.9	1	257373.8	-68.47868	-6.585384E-008	0.000653	6
	53	149	1.512097	122846.4	-281154.2	1	306820.6	-66.39775	-6.554423E-008	0.0007705	6
	54	155	1.201923	162009.8	-329888.7	1	367523.7	-63.84414	-6.509557E-008	0.000649	6
	55	161	0.956633	211293.7	-381960.3	1	436507.4	-61.0494	-6.586998E-008	3.242344E-005	6
