EXPLAIN
TAG	EISPOT
TITLE	LABEL	Potentiostatic EIS	Test Identifier
DATE	LABEL	2/26/2021	Date
TIME	LABEL	12:38:17	Time
NOTES	NOTES	1	Notes...
	
PSTAT	PSTAT	REF3000-16137	Potentiostat
VDC	POTEN	0.00000E+000	T	DC Voltage (V)
FREQINIT	QUANT	3.00000E+005	Initial Freq. (Hz)
FREQFINAL	QUANT	1.00000E+000	Final Freq. (Hz)
PTSPERDEC	QUANT	1.00000E+001	Points/decade
VAC	QUANT	5.00000E+001	AC Voltage (mV rms)
AREA	QUANT	1.00000E+000	Sample Area (cm^2)
SPEED	SELECTOR	2	Optimize for:
ZGUESS	QUANT	1.00000E+003	Estimated Z (ohms)
EOC	QUANT	0	Open Circuit (V)
SEQUENCER	TOGGLE	TRUE	Run as Sequence
PSTATMODEL	IQUANT	5	Pstat Model
PSTATSECTION	LABEL	REF3000-16137	Pstat Section
PSTATSERIALNO	LABEL	16137	Pstat Serial Number
CTRLMODE	IQUANT	1	Control Mode
IESTAB	IQUANT	0	I/E Stability
CASPEED	IQUANT	1	Control Amp Speed
CONVENTION	IQUANT	1	Current Convention
ICHRANGE	IQUANT	2	Ich Range
ICHRANGEMODE	TOGGLE	F	Ich Auto Range
ICHOFFSETENABLE	TOGGLE	T	Ich Offset Enable
ICHOFFSET	QUANT	0	Ich Offset (V)
ICHFILTER	IQUANT	3	Ich Filter
VCHRANGE	IQUANT	2	Vch Range
VCHRANGEMODE	TOGGLE	F	Vch Auto Range
VCHOFFSETENABLE	TOGGLE	T	Vch Offset Enable
VCHOFFSET	QUANT	0	Vch Offset (V)
VCHFILTER	IQUANT	3	Vch Filter
ACHRANGE	IQUANT	2	Ach Range
ACHOFFSETENABLE	TOGGLE	F	Ach Offset Enable
ACHOFFSET	QUANT	0	Ach Offset (V)
ACHFILTER	IQUANT	3	Ach Filter
IERANGELOWERLIMIT	IQUANT	2	I/E Range Lower Limit
IERANGEMODE	TOGGLE	F	I/E AutoRange
IERANGE	IQUANT	11	I/E Range
POSFEEDENABLE	TOGGLE	F	Positive Feedback IR Comp
POSFEEDRESISTANCE	QUANT	0	Positive Feedback Resistance (ohm)
ACHSELECT	IQUANT	0	Ach Select
CABLEID	IQUANT	13	Cable ID
DCCALDATE	LABEL	7/31/2020	DC Calibration Date
ACCALDATE	LABEL	7/31/2020	AC Calibration Date
THERMOSELECT	IQUANT	1	Thermo Select
FRAMEWORKVERSION	QUANT	6.33	Framework Version
INSTRUMENTVERSION	LABEL	3.50	Instrument Version
COMPLIANCEVOLTAGE	IQUANT	0	Compliance Voltage
ZCURVE	TABLE
	Pt	Time	Freq	Zreal	Zimag	Zsig	Zmod	Zphz	Idc	Vdc	IERange
	#	s	Hz	ohm	ohm	V	ohm	°	A	V	#
	0	19	300046.9	52.76099	-4807.285	1	4807.574	-89.37119	2.586209E-005	-0.0020461	9
	1	44	238359.4	220.88	-5982.33	1	5986.406	-87.88548	5.103673E-005	0.0000954	9
	2	64	189328.1	183.905	-7750.058	1	7752.239	-88.64066	8.397618E-005	-0.0033549	9
	3	73	150421.9	54.85468	-9228.426	1	9228.589	-89.65943	2.694716E-005	-0.0017782	9
	4	89	119484.4	514.2092	-11532.11	1	11543.57	-87.44691	-1.922534E-005	0.0011537	9
	5	105	94921.88	1301.044	-14360.58	1	14419.4	-84.82323	-2.464502E-005	0.0109543	8
	6	114	75421.88	2115.642	-17815.37	1	17940.54	-83.22762	8.261644E-006	0.0042401	8
	7	123	59859.37	2517.596	-22487.96	1	22628.45	-83.61216	-2.460405E-005	0.0110115	8
	8	131	47578.12	2455.791	-29427.9	1	29530.19	-85.22966	-1.177852E-005	0.0101191	8
	9	141	37828.12	8699.684	-35542.59	1	36591.8	-76.24625	-1.770303E-006	0.0221393	7
	10	149	30046.88	10871.69	-44189.04	1	45506.75	-76.17821	-6.718151E-006	0.0119368	7
	11	156	23859.38	14396.5	-54410.23	1	56282.61	-75.17963	-5.332791E-006	0.026424	7
	12	161	18984.38	19886.28	-66892.66	1	69786.04	-73.4435	-3.297293E-006	-0.0053333	7
	13	167	15046.87	25626.33	-81607.41	1	85536.41	-72.56669	2.742659E-006	0.0085184	7
	14	172	11953.13	36226.51	-99603.4	1	105986.8	-70.01328	-5.181656E-006	0.0264295	7
	15	177	9515.62	48571.97	-119844.4	1	129313.3	-67.93769	-2.603376E-005	0.007496	8
	16	185	7546.875	67058.96	-135975.2	1	151611.9	-63.74884	-2.186714E-006	0.0078158	8
	17	192	5928.309	100438	-165055.5	1	193212.6	-58.67904	-5.300971E-006	0.0035469	7
	18	198	4733.456	125558.3	-175366.8	1	215681.2	-54.39826	-3.317127E-006	-0.0052543	7
	19	204	3796.875	202300.8	-180963.6	1	271428.5	-41.81351	1.92443E-007	-0.0212374	6
	20	210	2987.132	245904.1	-182840.1	1	306430	-36.63237	-5.599437E-007	0.0266332	6
	21	215	2390.625	364225.4	-105095.7	1	379084.7	-16.09528	2.83165E-006	0.0083806	7
	22	221	1884.191	56954.54	-325201.1	1	330150.8	-80.06617	-2.609149E-005	0.0075201	8
	23	229	1516.544	143323.4	-253810	1	291481	-60.54711	8.300837E-006	-0.0076586	8
	24	236	1193.986	318466.1	-218647.6	1	386299.7	-34.47212	4.458482E-007	0.0162185	7
	25	244	946.5144	685250.6	261640.1	1	733501.1	20.89769	-5.441136E-006	0.0038574	7
	26	249	751.7689	454053.6	-70953.16	1	459564	-8.881556	-6.613354E-006	0.0118057	7
	27	256	597.4265	502724.3	26111.2	1	503402	2.973236	4.938928E-006	-0.0002966	7
	28	262	477.4305	487804.7	-101972.2	1	498349	-11.80726	-6.223064E-008	0.0005926	7
	29	266	376.6741	501752.5	-83894.25	1	508717.8	-9.492188	-6.584931E-009	0.0006218	6
	30	269	298.2954	527453.6	-37434.33	1	528780.3	-4.059578	-7.292652E-010	0.0007023	5
	31	271	237.7717	533822.9	-36625.65	1	535077.9	-3.924919	-8.320504E-010	0.0006716	5
	32	274	189.0121	539494	-40499.31	1	541012	-4.293088	-5.344913E-010	0.0006444	5
	33	276	150.2404	546889.1	-46349.09	1	548849.6	-4.844266	-7.959619E-010	0.0006368	5
	34	279	119.1737	555277.3	-58845.44	1	558386.6	-6.049335	-8.068952E-010	0.0007097	5
	35	281	95.0169	565821.1	-62922.85	1	569309.1	-6.345576	-7.677015E-010	0.00066	5
	36	284	75.60484	575434.3	-77441.88	1	580622	-7.664805	-8.632716E-010	0.0007019	5
	37	287	54.50582	601407	-91105.57	1	608268.5	-8.614093	-9.42793E-010	0.0006158	5
	38	289	45.95588	599322.4	-107795.9	1	608939.5	-10.19637	-3.884905E-010	0.0006143	5
	39	291	37.20238	616778	-126602.9	1	629637.5	-11.59969	-1.090222E-009	0.0006922	5
	40	294	30.04808	630838.8	-150763.3	1	648604	-13.44093	-8.351027E-010	0.0006106	5
	41	297	23.91582	649850.6	-179374.3	1	674152.1	-15.43077	-7.821766E-010	0.0006972	5
	42	299	18.60119	675638.8	-213931.1	1	708699	-17.56963	-5.768137E-010	0.0006101	5
	43	301	15.02404	696286.9	-252802	1	740759.3	-19.95452	-1.188593E-009	0.000705	5
	44	304	12.01923	719652.9	-298467.3	1	779091.2	-22.52563	-9.876198E-010	0.0006808	5
	45	306	9.450605	751059.2	-356659.3	1	831441.9	-25.40188	-6.170442E-010	0.0006027	5
	46	309	7.512019	781662.4	-424693.9	1	889584.8	-28.51618	-5.416091E-010	0.0006422	5
	47	312	5.978954	817011.4	-504801.1	1	960381	-31.71039	-8.459896E-010	0.0007122	5
	48	316	4.734848	856364.8	-606104.2	1	1049154	-35.28949	-6.111728E-010	0.00064	5
	49	320	3.75601	899413.2	-730767.4	1	1158864	-39.09364	-7.179168E-010	0.000705	5
	50	325	3.004808	949068.9	-882567.8	1	1296016	-42.92068	-7.199976E-010	0.0006226	5
	51	332	2.372217	1001084	-1079817	1	1472472	-47.16681	-7.882923E-010	0.0006295	5
	52	336	1.878005	1055563	-1328718	1	1696969	-51.53559	-7.343288E-010	0.000636	5
	53	341	1.512097	1112028	-1613658	1	1959719	-55.42792	-7.761004E-010	0.0007086	5
	54	346	1.201923	1186660	-1991453	1	2318199	-59.21029	-7.506052E-010	0.0006437	5
	55	352	0.956633	1268990	-2455673	1	2764175	-62.67195	-8.007812E-010	1.545934E-006	5
