EXPLAIN
TAG	EISPOT
TITLE	LABEL	Potentiostatic EIS	Test Identifier
DATE	LABEL	2/26/2021	Date
TIME	LABEL	10:46:53	Time
NOTES	NOTES	1	Notes...
	
PSTAT	PSTAT	REF3000-16137	Potentiostat
VDC	POTEN	0.00000E+000	T	DC Voltage (V)
FREQINIT	QUANT	3.00000E+005	Initial Freq. (Hz)
FREQFINAL	QUANT	1.00000E+000	Final Freq. (Hz)
PTSPERDEC	QUANT	1.00000E+001	Points/decade
VAC	QUANT	5.00000E+001	AC Voltage (mV rms)
AREA	QUANT	1.00000E+000	Sample Area (cm^2)
SPEED	SELECTOR	2	Optimize for:
ZGUESS	QUANT	1.00000E+003	Estimated Z (ohms)
EOC	QUANT	0	Open Circuit (V)
SEQUENCER	TOGGLE	TRUE	Run as Sequence
PSTATMODEL	IQUANT	5	Pstat Model
PSTATSECTION	LABEL	REF3000-16137	Pstat Section
PSTATSERIALNO	LABEL	16137	Pstat Serial Number
CTRLMODE	IQUANT	1	Control Mode
IESTAB	IQUANT	0	I/E Stability
CASPEED	IQUANT	1	Control Amp Speed
CONVENTION	IQUANT	1	Current Convention
ICHRANGE	IQUANT	2	Ich Range
ICHRANGEMODE	TOGGLE	F	Ich Auto Range
ICHOFFSETENABLE	TOGGLE	T	Ich Offset Enable
ICHOFFSET	QUANT	0	Ich Offset (V)
ICHFILTER	IQUANT	3	Ich Filter
VCHRANGE	IQUANT	2	Vch Range
VCHRANGEMODE	TOGGLE	F	Vch Auto Range
VCHOFFSETENABLE	TOGGLE	T	Vch Offset Enable
VCHOFFSET	QUANT	0	Vch Offset (V)
VCHFILTER	IQUANT	3	Vch Filter
ACHRANGE	IQUANT	2	Ach Range
ACHOFFSETENABLE	TOGGLE	F	Ach Offset Enable
ACHOFFSET	QUANT	0	Ach Offset (V)
ACHFILTER	IQUANT	3	Ach Filter
IERANGELOWERLIMIT	IQUANT	2	I/E Range Lower Limit
IERANGEMODE	TOGGLE	F	I/E AutoRange
IERANGE	IQUANT	11	I/E Range
POSFEEDENABLE	TOGGLE	F	Positive Feedback IR Comp
POSFEEDRESISTANCE	QUANT	0	Positive Feedback Resistance (ohm)
ACHSELECT	IQUANT	0	Ach Select
CABLEID	IQUANT	13	Cable ID
DCCALDATE	LABEL	7/31/2020	DC Calibration Date
ACCALDATE	LABEL	7/31/2020	AC Calibration Date
THERMOSELECT	IQUANT	1	Thermo Select
FRAMEWORKVERSION	QUANT	6.33	Framework Version
INSTRUMENTVERSION	LABEL	3.50	Instrument Version
COMPLIANCEVOLTAGE	IQUANT	0	Compliance Voltage
ZCURVE	TABLE
	Pt	Time	Freq	Zreal	Zimag	Zsig	Zmod	Zphz	Idc	Vdc	IERange
	#	s	Hz	ohm	ohm	V	ohm	°	A	V	#
	0	7	300046.9	27.74032	-5.609968	1	28.30189	-11.43282	-0.0001353	-0.0005982	11
	1	12	238359.4	28.48886	-7.002568	1	29.33685	-13.80955	-1.092536E-005	0.0005781	10
	2	15	189328.1	29.25124	-8.825179	1	30.55354	-16.78871	-5.182518E-006	0.0003674	10
	3	17	150421.9	30.11516	-10.92746	1	32.03642	-19.9436	8.148851E-005	0.0002613	10
	4	20	119484.4	31.01792	-13.157	1	33.693	-22.9854	-5.510848E-005	0.0007397	10
	5	22	94921.88	32.0934	-15.84132	1	35.79013	-26.27098	2.581592E-005	0.0006173	10
	6	25	75421.88	33.30363	-18.69879	1	38.19393	-29.31264	1.633569E-005	-0.0001712	9
	7	27	59859.37	34.53668	-22.57368	1	41.25959	-33.16922	-1.149215E-005	0.0004737	9
	8	30	47578.12	35.93148	-27.15787	1	45.04022	-37.08286	1.674603E-005	-0.0003446	9
	9	32	37828.12	37.48879	-32.75475	1	49.78236	-41.1444	-8.006091E-006	0.0005387	9
	10	35	30046.88	39.37898	-39.64682	1	55.88	-45.19419	1.755279E-005	-0.0002292	9
	11	37	23859.38	41.7096	-48.04565	1	63.62448	-49.03796	-8.333229E-006	0.0004792	9
	12	40	18984.38	44.57764	-58.06947	1	73.20676	-52.48797	1.02012E-005	-2.910302E-005	9
	13	42	15046.87	48.05478	-70.38837	1	85.22784	-55.6783	1.54878E-005	-0.0001412	9
	14	44	11953.13	52.67087	-85.05602	1	100.0437	-58.23217	-3.126232E-006	2.140375E-005	9
	15	47	9515.62	57.92845	-102.5886	1	117.814	-60.548	9.076916E-006	-0.0003171	9
	16	49	7546.875	64.10108	-124.3728	1	139.9198	-62.73366	-3.940072E-006	-9.59567E-006	9
	17	51	5928.309	72.61346	-151.2662	1	167.7921	-64.35724	-1.158679E-005	0.0005174	9
	18	53	4733.456	81.81953	-181.7343	1	199.3033	-65.76201	-1.143837E-005	0.0003413	9
	19	56	3796.875	92.98331	-216.8982	1	235.9888	-66.7954	-8.475717E-006	0.0005428	9
	20	58	2987.132	106.8689	-264.2143	1	285.009	-67.97775	1.022045E-005	-0.0003428	9
	21	60	2390.625	124.105	-315.3372	1	338.8799	-68.51725	1.414785E-006	-0.0001385	9
	22	63	1884.191	141.3068	-384.4459	1	409.5928	-69.81861	1.70857E-005	-0.0003352	9
	23	65	1516.544	162.981	-457.0603	1	485.2494	-70.37451	-8.755279E-007	0.0007421	8
	24	67	1193.986	190.8644	-556.3418	1	588.1713	-71.06442	-1.858006E-006	0.001348	8
	25	70	946.5144	225.0844	-672.2637	1	708.944	-71.48865	-2.181628E-006	0.0011819	8
	26	72	751.7689	261.9336	-813.7344	1	854.8525	-72.15711	1.769182E-006	5.667459E-005	8
	27	74	597.4265	307.4828	-984.566	1	1031.463	-72.65627	-1.927905E-006	0.0013708	8
	28	77	477.4305	361.7182	-1186.731	1	1240.633	-73.04866	4.331579E-007	0.0006545	8
	29	79	376.6741	430.0175	-1445.648	1	1508.248	-73.43454	4.174384E-007	0.0006485	8
	30	81	298.2954	510.9142	-1757.395	1	1830.156	-73.78967	4.134714E-007	0.000651	8
	31	84	237.7717	606.017	-2125.298	1	2210.011	-74.08479	4.17577E-007	0.000646	8
	32	86	189.0121	722.1511	-2577.683	1	2676.93	-74.34951	4.214899E-007	0.0006537	8
	33	89	150.2404	862.6296	-3128.606	1	3245.352	-74.58523	4.265653E-007	0.00065	8
	34	91	119.1737	1035.249	-3803.806	1	3942.167	-74.77507	4.206273E-007	0.0006484	8
	35	93	95.0169	1244.757	-4616.982	1	4781.834	-74.91158	-8.209268E-008	0.0006244	7
	36	96	75.60484	1498.283	-5602.735	1	5799.611	-75.0283	-8.153492E-008	0.0006231	7
	37	98	54.50582	1966.554	-7391.309	1	7648.449	-75.10088	-8.079326E-008	0.0006277	7
	38	101	45.95588	2274.056	-8546.562	1	8843.927	-75.10005	-8.094963E-008	0.000629	7
	39	103	37.20238	2720.645	-10212.06	1	10568.26	-75.08205	-7.959284E-008	0.0005875	7
	40	106	30.04808	3291.737	-12249.16	1	12683.75	-74.95818	-8.236443E-008	0.0006239	7
	41	108	23.91582	4038.504	-14875.29	1	15413.75	-74.81084	-7.953617E-008	0.000597	7
	42	110	18.60119	5079.548	-18356.31	1	19046.15	-74.5322	-8.134487E-008	0.0006252	7
	43	113	15.02404	6211.729	-21966.65	1	22828.04	-74.21016	-8.447257E-008	0.0006232	7
	44	115	12.01923	7696.168	-26484.08	1	27579.66	-73.79635	-8.461972E-008	0.0006279	7
	45	117	9.450605	9787.51	-32344.66	1	33793.08	-73.16416	-8.18662E-008	0.0006389	7
	46	120	7.512019	12341.31	-39123.15	1	41023.52	-72.49223	-7.967694E-008	0.0006484	7
	47	123	5.978954	15666.49	-47086.12	1	49624.01	-71.59669	-1.342725E-007	0.0006964	6
	48	127	4.734848	20122.38	-56743.77	1	60206.02	-70.47456	-1.335724E-007	0.0007062	6
	49	131	3.75601	25865.26	-68042.88	1	72793.16	-69.18661	-1.33546E-007	0.0007034	6
	50	137	3.004808	33047.49	-80579.28	1	87092.8	-67.70029	-1.344834E-007	0.0007024	6
	51	143	2.372217	42918.21	-95786.4	1	104961.9	-65.86468	-1.344734E-007	0.0007041	6
	52	147	1.878005	55706.73	-112696.1	1	125712.6	-63.69638	-1.341815E-007	0.000675	6
	53	152	1.512097	70300.09	-130012	1	147801.3	-61.59902	-1.342574E-007	0.0007318	6
	54	163	1.201923	89863.48	-149632.8	1	174543.4	-59.01265	-1.347917E-007	0.0006763	6
	55	175	0.956633	113301.3	-170073.5	1	204358	-56.32882	-1.37447E-007	4.817394E-005	6
