EXPLAIN
TAG	EISPOT
TITLE	LABEL	Potentiostatic EIS	Test Identifier
DATE	LABEL	2/26/2021	Date
TIME	LABEL	12:56:20	Time
NOTES	NOTES	1	Notes...
	
PSTAT	PSTAT	REF3000-16137	Potentiostat
VDC	POTEN	0.00000E+000	T	DC Voltage (V)
FREQINIT	QUANT	3.00000E+005	Initial Freq. (Hz)
FREQFINAL	QUANT	1.00000E+000	Final Freq. (Hz)
PTSPERDEC	QUANT	1.00000E+001	Points/decade
VAC	QUANT	5.00000E+001	AC Voltage (mV rms)
AREA	QUANT	1.00000E+000	Sample Area (cm^2)
SPEED	SELECTOR	2	Optimize for:
ZGUESS	QUANT	1.00000E+003	Estimated Z (ohms)
EOC	QUANT	0	Open Circuit (V)
SEQUENCER	TOGGLE	TRUE	Run as Sequence
PSTATMODEL	IQUANT	5	Pstat Model
PSTATSECTION	LABEL	REF3000-16137	Pstat Section
PSTATSERIALNO	LABEL	16137	Pstat Serial Number
CTRLMODE	IQUANT	1	Control Mode
IESTAB	IQUANT	0	I/E Stability
CASPEED	IQUANT	1	Control Amp Speed
CONVENTION	IQUANT	1	Current Convention
ICHRANGE	IQUANT	2	Ich Range
ICHRANGEMODE	TOGGLE	F	Ich Auto Range
ICHOFFSETENABLE	TOGGLE	T	Ich Offset Enable
ICHOFFSET	QUANT	0	Ich Offset (V)
ICHFILTER	IQUANT	3	Ich Filter
VCHRANGE	IQUANT	2	Vch Range
VCHRANGEMODE	TOGGLE	F	Vch Auto Range
VCHOFFSETENABLE	TOGGLE	T	Vch Offset Enable
VCHOFFSET	QUANT	0	Vch Offset (V)
VCHFILTER	IQUANT	3	Vch Filter
ACHRANGE	IQUANT	2	Ach Range
ACHOFFSETENABLE	TOGGLE	F	Ach Offset Enable
ACHOFFSET	QUANT	0	Ach Offset (V)
ACHFILTER	IQUANT	3	Ach Filter
IERANGELOWERLIMIT	IQUANT	2	I/E Range Lower Limit
IERANGEMODE	TOGGLE	F	I/E AutoRange
IERANGE	IQUANT	11	I/E Range
POSFEEDENABLE	TOGGLE	F	Positive Feedback IR Comp
POSFEEDRESISTANCE	QUANT	0	Positive Feedback Resistance (ohm)
ACHSELECT	IQUANT	0	Ach Select
CABLEID	IQUANT	13	Cable ID
DCCALDATE	LABEL	7/31/2020	DC Calibration Date
ACCALDATE	LABEL	7/31/2020	AC Calibration Date
THERMOSELECT	IQUANT	1	Thermo Select
FRAMEWORKVERSION	QUANT	6.33	Framework Version
INSTRUMENTVERSION	LABEL	3.50	Instrument Version
COMPLIANCEVOLTAGE	IQUANT	0	Compliance Voltage
ZCURVE	TABLE
	Pt	Time	Freq	Zreal	Zimag	Zsig	Zmod	Zphz	Idc	Vdc	IERange
	#	s	Hz	ohm	ohm	V	ohm	°	A	V	#
	0	16	300046.9	-114.675	-4861.563	1	4862.915	-91.35125	8.476953E-005	-0.0017197	9
	1	31	238359.4	6.383408	-5952.529	1	5952.532	-89.93856	2.174623E-005	0.00106	9
	2	46	189328.1	208.6243	-7635.512	1	7638.362	-88.43491	-2.808014E-005	-0.0010922	9
	3	55	150421.9	-692.568	-10854.31	1	10876.38	-93.65086	1.258413E-006	0.0016127	9
	4	62	119484.4	414.1689	-11434.85	1	11442.35	-87.92566	-9.311119E-005	0.0330745	8
	5	71	94921.88	657.831	-14467.49	1	14482.43	-87.39658	-1.203338E-005	0.0102891	8
	6	79	75421.88	594.9473	-18576.42	1	18585.95	-88.16561	-2.620419E-005	0.0075245	8
	7	88	59859.37	804.4843	-22940.21	1	22954.32	-87.99153	-1.583466E-005	0.0006303	8
	8	96	47578.12	3991.661	-30103.62	1	30367.11	-82.44679	2.805111E-006	0.0083579	7
	9	104	37828.12	271.5289	-34947.85	1	34948.9	-89.55485	-2.45572E-005	0.0109132	8
	10	112	30046.88	761.6368	-45253.79	1	45260.2	-89.03578	2.625525E-005	-0.0088753	8
	11	122	23859.38	1505.469	-57417.77	1	57437.51	-88.49808	2.601879E-005	-0.0050669	8
	12	129	18984.38	3146.865	-71726.92	1	71795.92	-87.48788	2.609335E-005	-0.0050066	8
	13	136	15046.87	673.0784	-86599.65	1	86602.27	-89.55469	-8.95219E-007	-0.0051502	8
	14	146	11953.13	807.7534	-113183.1	1	113186	-89.5911	-7.106819E-006	0.0232538	7
	15	151	9515.62	878.5234	-137230.5	1	137233.3	-89.63321	-2.011094E-005	0.0027737	8
	16	158	7546.875	-12862.39	-188440.2	1	188878.7	-93.90479	8.468653E-006	0.004143	8
	17	166	5928.309	-10833.32	-213238.6	1	213513.6	-92.90834	7.593263E-006	-0.0183902	7
	18	171	4733.456	-3143.127	-276699.3	1	276717.1	-90.65082	-3.742211E-006	0.0254372	7
	19	179	3796.875	-8531.917	-363245.1	1	363345.3	-91.34552	2.60789E-005	-0.0050674	8
	20	186	2987.132	157333.6	-310363.1	1	347964.2	-63.11799	1.654467E-005	-0.0092037	8
	21	194	2390.625	43927.41	-576281.3	1	577953.1	-85.64102	-9.885022E-007	-0.0137561	7
	22	201	1884.191	53621.44	-699789	1	701840.4	-85.61826	-4.022045E-007	0.0255265	6
	23	207	1516.544	51149.65	-914443.6	1	915873	-86.79848	7.292903E-007	-0.0270821	6
	24	212	1193.986	105976.4	-1115547	1	1120570	-84.57322	6.090806E-007	-0.0070697	6
	25	219	946.5144	135431.8	-1388374	1	1394964	-84.4286	-6.770354E-007	0.0261279	6
	26	224	751.7689	-212071.1	-1633941	1	1647645	-97.3951	6.028807E-007	-0.0278538	6
	27	228	597.4265	508522.7	-2264255	1	2320656	-77.34213	-3.908935E-007	0.0254302	6
	28	232	477.4305	450903.5	-2958747	1	2992908	-81.33498	-5.446884E-010	0.0006075	5
	29	236	376.6741	118855.1	-3557691	1	3559676	-88.08658	-6.490551E-009	0.0006339	6
	30	240	298.2954	520245.2	-4551772	1	4581407	-83.47967	-7.81442E-010	0.000705	5
	31	244	237.7717	588864.1	-5753265	1	5783323	-84.15595	-6.833243E-010	0.00061	5
	32	248	189.0121	648842.3	-7128804	1	7158272	-84.79944	-7.249409E-010	0.000666	5
	33	252	150.2404	868279	-9058418	1	9099937	-84.52474	-7.323011E-010	0.000688	5
	34	255	119.1737	1909446	-1.198284E+007	1	1.213402E+007	-80.94613	-6.519867E-010	0.0006015	5
	35	257	95.0169	671096.4	-1.423664E+007	1	1.425245E+007	-87.30115	-8.325188E-010	0.0006328	5
	36	260	75.60484	154067.3	-1.597681E+007	1	1.597755E+007	-89.4475	-7.462326E-010	0.0006996	5
	37	263	54.50582	920652.6	-2.396135E+007	1	2.397903E+007	-87.79964	-6.905335E-010	0.0006005	5
	38	266	45.95588	4421027	-2.59581E+007	1	2.633189E+007	-80.33447	-7.142066E-010	0.0006679	5
	39	270	37.20238	6982796	-3.70958E+007	1	3.774729E+007	-79.33957	-7.366062E-010	0.0007014	5
	40	274	30.04808	6196534	-4.412449E+007	1	4.455746E+007	-82.00606	-5.875241E-011	0.0007004	4
	41	278	23.91582	1.605933E+007	-5.162652E+007	1	5.406662E+007	-72.72078	-1.761015E-011	0.0006697	4
	42	282	18.60119	1.406253E+007	-3.573118E+007	1	3.839886E+007	-68.51716	-4.585262E-010	0.0006754	4
	43	285	15.02404	2.062335E+007	-8.347318E+007	1	8.59831E+007	-76.1221	-9.330973E-011	0.0007008	4
	44	289	12.01923	2.085289E+007	-1.051568E+008	1	1.072045E+008	-78.7836	-7.264921E-011	0.00071	4
	45	293	9.450605	2.441625E+007	-1.300525E+008	1	1.323246E+008	-79.36698	-6.078146E-011	0.000674	4
	46	297	7.512019	3.009416E+007	-1.51791E+008	1	1.547455E+008	-78.78593	-4.88703E-011	0.000679	4
	47	301	5.978954	1.01191E+008	-2.128729E+008	1	2.357E+008	-64.57552	-3.727785E-011	0.0006135	4
	48	306	4.734848	1.275808E+008	-2.493603E+008	1	2.801025E+008	-62.90424	-5.527572E-012	0.0007565	3
	49	311	3.75601	1.982903E+008	-3.54387E+008	1	4.060901E+008	-60.77166	-7.682337E-010	0.0006891	5
	50	319	3.004808	1.212089E+008	-4.306704E+008	1	4.47402E+008	-74.28115	-4.737293E-011	0.0006374	4
	51	329	2.372217	2.735805E+008	-4.070996E+008	1	4.904859E+008	-56.09797	-6.005515E-012	0.000658	3
	52	334	1.878005	3.55494E+008	-4.697589E+008	1	5.89109E+008	-52.88309	-5.843377E-012	0.0007383	3
	53	343	1.512097	4.451794E+008	-5.273164E+008	1	6.901068E+008	-49.82774	-5.604898E-012	0.0006581	3
	54	350	1.201923	5.644969E+008	-5.982374E+008	1	8.225234E+008	-46.66216	-5.558367E-012	0.0007555	3
	55	363	0.956633	6.9572E+008	-6.7171E+008	1	9.670681E+008	-43.99408	-5.987874E-012	8.431109E-005	3
