EXPLAIN
TAG	EISPOT
TITLE	LABEL	Potentiostatic EIS	Test Identifier
DATE	LABEL	2/26/2021	Date
TIME	LABEL	11:38:41	Time
NOTES	NOTES	1	Notes...
	
PSTAT	PSTAT	REF3000-16137	Potentiostat
VDC	POTEN	0.00000E+000	T	DC Voltage (V)
FREQINIT	QUANT	3.00000E+005	Initial Freq. (Hz)
FREQFINAL	QUANT	1.00000E+000	Final Freq. (Hz)
PTSPERDEC	QUANT	1.00000E+001	Points/decade
VAC	QUANT	5.00000E+001	AC Voltage (mV rms)
AREA	QUANT	1.00000E+000	Sample Area (cm^2)
SPEED	SELECTOR	2	Optimize for:
ZGUESS	QUANT	1.00000E+003	Estimated Z (ohms)
EOC	QUANT	0	Open Circuit (V)
SEQUENCER	TOGGLE	TRUE	Run as Sequence
PSTATMODEL	IQUANT	5	Pstat Model
PSTATSECTION	LABEL	REF3000-16137	Pstat Section
PSTATSERIALNO	LABEL	16137	Pstat Serial Number
CTRLMODE	IQUANT	1	Control Mode
IESTAB	IQUANT	0	I/E Stability
CASPEED	IQUANT	1	Control Amp Speed
CONVENTION	IQUANT	1	Current Convention
ICHRANGE	IQUANT	2	Ich Range
ICHRANGEMODE	TOGGLE	F	Ich Auto Range
ICHOFFSETENABLE	TOGGLE	T	Ich Offset Enable
ICHOFFSET	QUANT	0	Ich Offset (V)
ICHFILTER	IQUANT	3	Ich Filter
VCHRANGE	IQUANT	2	Vch Range
VCHRANGEMODE	TOGGLE	F	Vch Auto Range
VCHOFFSETENABLE	TOGGLE	T	Vch Offset Enable
VCHOFFSET	QUANT	0	Vch Offset (V)
VCHFILTER	IQUANT	3	Vch Filter
ACHRANGE	IQUANT	2	Ach Range
ACHOFFSETENABLE	TOGGLE	F	Ach Offset Enable
ACHOFFSET	QUANT	0	Ach Offset (V)
ACHFILTER	IQUANT	3	Ach Filter
IERANGELOWERLIMIT	IQUANT	2	I/E Range Lower Limit
IERANGEMODE	TOGGLE	F	I/E AutoRange
IERANGE	IQUANT	11	I/E Range
POSFEEDENABLE	TOGGLE	F	Positive Feedback IR Comp
POSFEEDRESISTANCE	QUANT	0	Positive Feedback Resistance (ohm)
ACHSELECT	IQUANT	0	Ach Select
CABLEID	IQUANT	13	Cable ID
DCCALDATE	LABEL	7/31/2020	DC Calibration Date
ACCALDATE	LABEL	7/31/2020	AC Calibration Date
THERMOSELECT	IQUANT	1	Thermo Select
FRAMEWORKVERSION	QUANT	6.33	Framework Version
INSTRUMENTVERSION	LABEL	3.50	Instrument Version
COMPLIANCEVOLTAGE	IQUANT	0	Compliance Voltage
ZCURVE	TABLE
	Pt	Time	Freq	Zreal	Zimag	Zsig	Zmod	Zphz	Idc	Vdc	IERange
	#	s	Hz	ohm	ohm	V	ohm	°	A	V	#
	0	7	300046.9	130.471	-11.1319	1	130.945	-4.876715	2.185869E-005	-0.0007419	9
	1	10	238359.4	131.6692	-13.56034	1	132.3656	-5.880041	-7.393736E-005	0.0029054	9
	2	13	189328.1	133.4768	-17.08447	1	134.5657	-7.29396	-6.848431E-006	-0.0012965	9
	3	16	150421.9	135.0676	-19.83414	1	136.5162	-8.35395	7.080335E-005	-0.0026152	9
	4	18	119484.4	136.9796	-24.39433	1	139.1348	-10.09779	2.754579E-005	0.000462	9
	5	21	94921.88	139.1379	-28.71516	1	142.0701	-11.66094	-1.078721E-005	-7.708676E-005	9
	6	23	75421.88	141.8859	-34.39343	1	145.9949	-13.62579	-2.036475E-005	0.0004491	9
	7	26	59859.37	145.0911	-40.97874	1	150.767	-15.77151	-1.840854E-005	0.0008317	9
	8	28	47578.12	148.7404	-48.55046	1	156.4636	-18.07724	-1.407093E-005	0.0008419	9
	9	31	37828.12	152.8428	-57.03972	1	163.1394	-20.46517	2.438751E-005	-0.0006215	9
	10	34	30046.88	157.2835	-67.35432	1	171.0985	-23.18231	-1.017722E-005	-3.751664E-005	9
	11	36	23859.38	161.8959	-79.68197	1	180.4425	-26.20551	-2.076558E-005	0.0007515	9
	12	38	18984.38	166.7526	-94.37158	1	191.6048	-29.50716	-1.883839E-005	0.0008674	9
	13	41	15046.87	171.7137	-112.4636	1	205.2648	-33.22273	2.399391E-005	-0.0004031	9
	14	43	11953.13	176.8402	-134.8921	1	222.4148	-37.33605	2.533638E-005	-0.0005892	9
	15	45	9515.62	182.2045	-162.9967	1	244.4716	-41.81522	2.016172E-005	-0.0007552	9
	16	48	7546.875	188.2913	-198.2437	1	273.4121	-46.47491	1.973629E-005	-0.0007275	9
	17	51	5928.309	195.473	-244.3138	1	312.888	-51.33705	-2.079603E-005	0.0006429	9
	18	53	4733.456	202.7149	-299.4312	1	361.597	-55.902	1.968996E-005	-0.0001042	9
	19	56	3796.875	211.8462	-365.1871	1	422.1853	-59.88185	2.403052E-005	-0.0006958	9
	20	58	2987.132	223.2876	-450.3133	1	502.6325	-63.62551	6.611417E-006	-0.000118	8
	21	60	2390.625	237.0189	-551.6836	1	600.4438	-66.75027	-5.388996E-006	0.0033999	8
	22	63	1884.191	250.9962	-685.546	1	730.0496	-69.89101	-3.734496E-006	0.0031917	8
	23	65	1516.544	273.9421	-837.4079	1	881.0768	-71.88548	-7.041237E-006	0.0025135	8
	24	67	1193.986	300.4744	-1043.221	1	1085.631	-73.93224	8.691487E-006	-0.0016024	8
	25	70	946.5144	339.2476	-1290.396	1	1334.245	-75.27015	-3.973416E-006	0.0005493	8
	26	72	751.7689	372.3239	-1596.411	1	1639.254	-76.87183	5.750744E-006	-0.0021526	8
	27	75	597.4265	417.9122	-1983.713	1	2027.256	-78.10336	6.518585E-006	-9.088948E-005	8
	28	77	477.4305	476.7685	-2428.682	1	2475.037	-78.89364	2.129749E-007	0.0006422	8
	29	80	376.6741	553.4577	-3023.083	1	3073.329	-79.62534	1.95347E-007	0.0006468	8
	30	82	298.2954	647.7298	-3750.163	1	3805.69	-80.20053	2.169302E-007	0.0006451	8
	31	84	237.7717	767.1953	-4631.929	1	4695.035	-80.59538	-1.895449E-009	0.0006092	7
	32	87	189.0121	913.0248	-5725.48	1	5797.822	-80.93951	-5.590998E-011	0.0006165	7
	33	89	150.2404	1097.28	-7075.874	1	7160.448	-81.18516	-1.590914E-010	0.0006127	7
	34	92	119.1737	1330.875	-8759.713	1	8860.237	-81.36104	-8.351327E-010	0.000619	7
	35	94	95.0169	1623.318	-10791.16	1	10912.58	-81.44513	-5.695209E-010	0.0006139	7
	36	96	75.60484	1994.095	-13314.56	1	13463.06	-81.48223	-1.07468E-009	0.0006136	7
	37	99	54.50582	2705.1	-17966.11	1	18168.62	-81.43748	-2.940573E-009	0.0006303	7
	38	101	45.95588	3183.009	-21008.69	1	21248.45	-81.38469	-3.123193E-009	0.0006217	7
	39	104	37.20238	3906.868	-25465.54	1	25763.49	-81.27781	1.572287E-009	0.0005738	7
	40	106	30.04808	4845.586	-30956.44	1	31333.38	-81.10372	-8.109362E-010	0.0006062	7
	41	109	23.91582	6092.15	-38145.05	1	38628.48	-80.92592	1.092221E-010	0.0006142	7
	42	111	18.60119	7882.745	-47897.14	1	48541.47	-80.65424	-1.833401E-008	0.0006738	6
	43	113	15.02404	9840.33	-57992.56	1	58821.5	-80.36964	-1.614954E-008	0.0006707	6
	44	115	12.01923	12425.96	-70908.39	1	71988.91	-80.06044	-1.642726E-008	0.0006638	6
	45	118	9.450605	16016.75	-87951.66	1	89398.16	-79.67905	-1.712289E-008	0.0006809	6
	46	121	7.512019	20533.26	-107974.6	1	109909.6	-79.23277	-1.648811E-008	0.0006466	6
	47	124	5.978954	26299.32	-132310.4	1	134898.8	-78.75785	-1.612702E-008	0.0006556	6
	48	128	4.734848	34169.87	-162777.4	1	166325.2	-78.14473	-1.617251E-008	0.0006637	6
	49	131	3.75601	44450.43	-199588.6	1	204478.5	-77.44455	-1.577259E-008	0.000661	6
	50	137	3.004808	57630.87	-242498.2	1	249252.3	-76.63139	-1.601526E-008	0.000711	6
	51	143	2.372217	76378.96	-297819.1	1	307457.3	-75.61588	-1.589187E-008	0.0007439	6
	52	147	1.878005	101209.5	-363374.8	1	377206.3	-74.43607	-1.604763E-008	0.0006458	6
	53	152	1.512097	132218	-434809.7	1	454467.9	-73.0864	-1.566649E-008	0.0007163	6
	54	157	1.201923	176244	-526263.7	1	554991.4	-71.48447	-1.723969E-008	0.0006392	5
	55	163	0.956633	234956.9	-630913.7	1	673243.5	-69.5743	-1.737203E-008	2.911667E-005	5
