EXPLAIN
TAG	EISPOT
TITLE	LABEL	Potentiostatic EIS	Test Identifier
DATE	LABEL	2/26/2021	Date
TIME	LABEL	13:02:33	Time
NOTES	NOTES	1	Notes...
	
PSTAT	PSTAT	REF3000-16137	Potentiostat
VDC	POTEN	0.00000E+000	T	DC Voltage (V)
FREQINIT	QUANT	3.00000E+005	Initial Freq. (Hz)
FREQFINAL	QUANT	1.00000E+000	Final Freq. (Hz)
PTSPERDEC	QUANT	1.00000E+001	Points/decade
VAC	QUANT	5.00000E+001	AC Voltage (mV rms)
AREA	QUANT	1.00000E+000	Sample Area (cm^2)
SPEED	SELECTOR	2	Optimize for:
ZGUESS	QUANT	1.00000E+003	Estimated Z (ohms)
EOC	QUANT	0	Open Circuit (V)
SEQUENCER	TOGGLE	TRUE	Run as Sequence
PSTATMODEL	IQUANT	5	Pstat Model
PSTATSECTION	LABEL	REF3000-16137	Pstat Section
PSTATSERIALNO	LABEL	16137	Pstat Serial Number
CTRLMODE	IQUANT	1	Control Mode
IESTAB	IQUANT	0	I/E Stability
CASPEED	IQUANT	1	Control Amp Speed
CONVENTION	IQUANT	1	Current Convention
ICHRANGE	IQUANT	2	Ich Range
ICHRANGEMODE	TOGGLE	F	Ich Auto Range
ICHOFFSETENABLE	TOGGLE	T	Ich Offset Enable
ICHOFFSET	QUANT	0	Ich Offset (V)
ICHFILTER	IQUANT	3	Ich Filter
VCHRANGE	IQUANT	2	Vch Range
VCHRANGEMODE	TOGGLE	F	Vch Auto Range
VCHOFFSETENABLE	TOGGLE	T	Vch Offset Enable
VCHOFFSET	QUANT	0	Vch Offset (V)
VCHFILTER	IQUANT	3	Vch Filter
ACHRANGE	IQUANT	2	Ach Range
ACHOFFSETENABLE	TOGGLE	F	Ach Offset Enable
ACHOFFSET	QUANT	0	Ach Offset (V)
ACHFILTER	IQUANT	3	Ach Filter
IERANGELOWERLIMIT	IQUANT	2	I/E Range Lower Limit
IERANGEMODE	TOGGLE	F	I/E AutoRange
IERANGE	IQUANT	11	I/E Range
POSFEEDENABLE	TOGGLE	F	Positive Feedback IR Comp
POSFEEDRESISTANCE	QUANT	0	Positive Feedback Resistance (ohm)
ACHSELECT	IQUANT	0	Ach Select
CABLEID	IQUANT	13	Cable ID
DCCALDATE	LABEL	7/31/2020	DC Calibration Date
ACCALDATE	LABEL	7/31/2020	AC Calibration Date
THERMOSELECT	IQUANT	1	Thermo Select
FRAMEWORKVERSION	QUANT	6.33	Framework Version
INSTRUMENTVERSION	LABEL	3.50	Instrument Version
COMPLIANCEVOLTAGE	IQUANT	0	Compliance Voltage
ZCURVE	TABLE
	Pt	Time	Freq	Zreal	Zimag	Zsig	Zmod	Zphz	Idc	Vdc	IERange
	#	s	Hz	ohm	ohm	V	ohm	°	A	V	#
	0	22	300046.9	-76.23657	-4831.8	1	4832.402	-90.90395	1.997943E-005	-0.0022403	9
	1	35	238359.4	57.71988	-6038.752	1	6039.028	-89.45237	8.137066E-005	-0.0016024	9
	2	53	189328.1	-358.1472	-7342.766	1	7351.495	-92.79242	-0.0001068	0.003733	9
	3	66	150421.9	-58.30453	-8876.71	1	8876.901	-90.37633	-0.0001063	0.0036972	9
	4	79	119484.4	424.0807	-11772.14	1	11779.78	-87.93687	-5.800887E-005	0.0064755	8
	5	87	94921.88	526.1154	-14558.35	1	14567.85	-87.93032	9.74702E-006	0.0003974	9
	6	95	75421.88	736.352	-18256.42	1	18271.26	-87.69029	-2.603691E-005	0.0074584	8
	7	104	59859.37	440.0728	-22747.37	1	22751.63	-88.89169	1.7289E-005	0.0003632	8
	8	111	47578.12	752.375	-29462.69	1	29472.3	-88.53719	-2.600709E-005	0.007457	8
	9	121	37828.12	743.7087	-37880.82	1	37888.12	-88.87527	-2.585867E-005	0.0074414	8
	10	131	30046.88	1983.823	-45937.8	1	45980.61	-87.52722	-1.566991E-005	0.0005662	8
	11	140	23859.38	3606.457	-58300.04	1	58411.48	-86.46017	4.505179E-007	0.0162004	7
	12	147	18984.38	4667.032	-72372.13	1	72522.46	-86.3103	-3.37025E-006	-0.0049622	7
	13	152	15046.87	959.385	-91713.63	1	91718.64	-89.40067	2.264614E-005	-0.0095682	8
	14	160	11953.13	1355.894	-122504.5	1	122512	-89.36587	-1.975431E-005	0.0112629	8
	15	167	9515.62	5547.503	-142315.5	1	142423.5	-87.76772	6.918735E-006	-0.0270542	7
	16	174	7546.875	-2252.376	-176153.1	1	176167.5	-90.73257	-7.245095E-006	0.0238065	7
	17	180	5928.309	-2135.317	-228241	1	228251	-90.53602	4.951047E-006	-0.0006353	7
	18	186	4733.456	-3378.081	-267713	1	267734.3	-90.72294	-5.339593E-006	0.0266533	7
	19	193	3796.875	-9948.59	-365281.7	1	365417.2	-91.56009	7.756124E-006	-0.024391	7
	20	201	2987.132	3756.181	-499962.4	1	499976.6	-89.56955	2.757482E-006	0.0085944	7
	21	207	2390.625	53279.54	-529607.8	1	532281	-84.25526	-1.095255E-006	-0.0134398	7
	22	213	1884.191	34652.98	-715815.4	1	716653.8	-87.22845	-2.804057E-007	-0.0072522	6
	23	219	1516.544	48908.35	-875222	1	876587.4	-86.80157	-4.766141E-008	-0.0149812	6
	24	224	1193.986	102566.4	-1164121	1	1168630	-84.96488	-2.110673E-007	0.0224352	6
	25	230	946.5144	-22940.44	-1599616	1	1599780	-90.82163	-4.741768E-007	0.0008587	6
	26	234	751.7689	75363.27	-1811994	1	1813560	-87.61836	7.369421E-007	-0.016215	6
	27	239	597.4265	464422	-2429255	1	2473250	-79.17686	4.163841E-007	0.0024008	6
	28	243	477.4305	73360.03	-2838316	1	2839264	-88.51945	-6.501108E-009	0.0006422	6
	29	248	376.6741	467028.3	-3699300	1	3728664	-82.8046	-7.414596E-010	0.000687	5
	30	252	298.2954	441811.2	-4620987	1	4642059	-84.53857	-7.741133E-010	0.0007073	5
	31	255	237.7717	549799.4	-5742136	1	5768397	-84.5307	-7.405966E-010	0.0006006	5
	32	259	189.0121	510549.7	-7175656	1	7193796	-85.93025	-8.405956E-010	0.0007071	5
	33	264	150.2404	626555.4	-9041476	1	9063159	-86.03586	-7.400325E-010	0.0006403	5
	34	266	119.1737	-610905.6	-1.160305E+007	1	1.161913E+007	-93.01386	-7.027804E-010	0.0007164	5
	35	269	95.0169	416445.9	-1.368874E+007	1	1.369507E+007	-88.25745	-7.785343E-010	0.000614	5
	36	272	75.60484	2536601	-1.709415E+007	1	1.728132E+007	-81.55947	-6.483502E-010	0.0006324	5
	37	275	54.50582	1766344	-2.393285E+007	1	2.399794E+007	-85.77898	-7.430987E-010	0.0006568	5
	38	278	45.95588	4841689	-2.966397E+007	1	3.00565E+007	-80.73005	-7.516789E-010	0.0006821	5
	39	282	37.20238	4932200	-4.101604E+007	1	4.131153E+007	-83.14308	-8.141787E-010	0.0006263	5
	40	286	30.04808	5119629	-4.431581E+007	1	4.461056E+007	-83.41006	-7.429798E-011	0.0006132	4
	41	290	23.91582	1.195177E+007	-5.947518E+007	1	6.066418E+007	-78.63753	-1.195829E-010	0.0006677	4
	42	293	18.60119	-1.529463E+007	-4.243718E+007	1	4.51092E+007	-109.8195	-4.149941E-010	0.0006502	4
	43	297	15.02404	4291068	-8.441088E+007	1	8.451988E+007	-87.08984	-9.019697E-011	0.0007145	4
	44	302	12.01923	9023163	-1.174628E+008	1	1.178088E+008	-85.60732	-5.007714E-011	0.0006736	4
	45	306	9.450605	1.072847E+007	-1.453394E+008	1	1.457348E+008	-85.77827	-5.115077E-011	0.0006077	4
	46	310	7.512019	1.938938E+007	-1.663078E+008	1	1.674343E+008	-83.35006	-8.710566E-011	0.0006818	4
	47	315	5.978954	1.886767E+007	-1.95931E+008	1	1.968373E+008	-84.49952	-4.259972E-011	0.0006215	4
	48	320	4.734848	4.245375E+007	-2.924442E+008	1	2.955096E+008	-81.74014	-7.408484E-012	0.0007558	3
	49	325	3.75601	3212060	-3.559944E+008	1	3.560089E+008	-89.48305	-7.174837E-010	0.0005916	5
	50	333	3.004808	2.044378E+007	-4.611807E+008	1	4.616336E+008	-87.46178	-7.692512E-010	0.0006788	5
	51	342	2.372217	5.418483E+007	-5.619774E+008	1	5.645836E+008	-84.49267	-5.75664E-012	0.0007462	3
	52	349	1.878005	5.732061E+007	-7.051036E+008	1	7.074296E+008	-85.35242	-5.647661E-012	0.0007374	3
	53	358	1.512097	6.173951E+007	-8.722095E+008	1	8.743919E+008	-85.95106	-5.605094E-012	0.0006315	3
	54	365	1.201923	6.447528E+007	-1.097701E+009	1	1.099593E+009	-86.6385	-5.576571E-012	0.0007478	3
	55	378	0.956633	6.690807E+007	-1.363738E+009	1	1.365378E+009	-87.19119	-5.491284E-012	8.774202E-005	3
