EXPLAIN
TAG	EISPOT
TITLE	LABEL	Potentiostatic EIS	Test Identifier
DATE	LABEL	2/26/2021	Date
TIME	LABEL	11:41:34	Time
NOTES	NOTES	1	Notes...
	
PSTAT	PSTAT	REF3000-16137	Potentiostat
VDC	POTEN	0.00000E+000	T	DC Voltage (V)
FREQINIT	QUANT	3.00000E+005	Initial Freq. (Hz)
FREQFINAL	QUANT	1.00000E+000	Final Freq. (Hz)
PTSPERDEC	QUANT	1.00000E+001	Points/decade
VAC	QUANT	5.00000E+001	AC Voltage (mV rms)
AREA	QUANT	1.00000E+000	Sample Area (cm^2)
SPEED	SELECTOR	2	Optimize for:
ZGUESS	QUANT	1.00000E+003	Estimated Z (ohms)
EOC	QUANT	0	Open Circuit (V)
SEQUENCER	TOGGLE	TRUE	Run as Sequence
PSTATMODEL	IQUANT	5	Pstat Model
PSTATSECTION	LABEL	REF3000-16137	Pstat Section
PSTATSERIALNO	LABEL	16137	Pstat Serial Number
CTRLMODE	IQUANT	1	Control Mode
IESTAB	IQUANT	0	I/E Stability
CASPEED	IQUANT	1	Control Amp Speed
CONVENTION	IQUANT	1	Current Convention
ICHRANGE	IQUANT	2	Ich Range
ICHRANGEMODE	TOGGLE	F	Ich Auto Range
ICHOFFSETENABLE	TOGGLE	T	Ich Offset Enable
ICHOFFSET	QUANT	0	Ich Offset (V)
ICHFILTER	IQUANT	3	Ich Filter
VCHRANGE	IQUANT	2	Vch Range
VCHRANGEMODE	TOGGLE	F	Vch Auto Range
VCHOFFSETENABLE	TOGGLE	T	Vch Offset Enable
VCHOFFSET	QUANT	0	Vch Offset (V)
VCHFILTER	IQUANT	3	Vch Filter
ACHRANGE	IQUANT	2	Ach Range
ACHOFFSETENABLE	TOGGLE	F	Ach Offset Enable
ACHOFFSET	QUANT	0	Ach Offset (V)
ACHFILTER	IQUANT	3	Ach Filter
IERANGELOWERLIMIT	IQUANT	2	I/E Range Lower Limit
IERANGEMODE	TOGGLE	F	I/E AutoRange
IERANGE	IQUANT	11	I/E Range
POSFEEDENABLE	TOGGLE	F	Positive Feedback IR Comp
POSFEEDRESISTANCE	QUANT	0	Positive Feedback Resistance (ohm)
ACHSELECT	IQUANT	0	Ach Select
CABLEID	IQUANT	13	Cable ID
DCCALDATE	LABEL	7/31/2020	DC Calibration Date
ACCALDATE	LABEL	7/31/2020	AC Calibration Date
THERMOSELECT	IQUANT	1	Thermo Select
FRAMEWORKVERSION	QUANT	6.33	Framework Version
INSTRUMENTVERSION	LABEL	3.50	Instrument Version
COMPLIANCEVOLTAGE	IQUANT	0	Compliance Voltage
ZCURVE	TABLE
	Pt	Time	Freq	Zreal	Zimag	Zsig	Zmod	Zphz	Idc	Vdc	IERange
	#	s	Hz	ohm	ohm	V	ohm	°	A	V	#
	0	7	300046.9	152.0235	-12.3784	1	152.5266	-4.654997	-2.794596E-005	-0.000704	9
	1	10	238359.4	153.2382	-14.79857	1	153.9511	-5.516081	7.783657E-005	-0.0025167	9
	2	13	189328.1	154.6148	-17.86557	1	155.6435	-6.591235	-5.681947E-005	0.0007589	9
	3	16	150421.9	156.2805	-21.67895	1	157.777	-7.897565	1.718727E-005	-0.0012072	9
	4	18	119484.4	158.5704	-25.58978	1	160.6219	-9.167245	1.632077E-005	-0.0010782	9
	5	21	94921.88	161.0464	-30.49702	1	163.9086	-10.72301	-5.354605E-006	-0.0002365	9
	6	23	75421.88	163.9045	-36.5219	1	167.9242	-12.56168	1.905276E-006	0.0004805	9
	7	26	59859.37	167.3293	-43.2124	1	172.819	-14.48013	-9.717921E-006	-3.672835E-005	9
	8	28	47578.12	171.1851	-51.25448	1	178.6935	-16.66821	1.839616E-006	0.0005878	9
	9	31	37828.12	175.6848	-60.45408	1	185.7951	-18.98862	1.366389E-005	-0.0007179	9
	10	33	30046.88	180.6132	-71.25875	1	194.1622	-21.53111	-2.161633E-005	0.0008574	9
	11	36	23859.38	185.9811	-84.17702	1	204.144	-24.35201	2.546395E-005	-0.0004865	9
	12	38	18984.38	191.4395	-99.4478	1	215.7288	-27.4507	2.038038E-005	-0.0007367	9
	13	40	15046.87	197.1597	-118.3179	1	229.9371	-30.96847	-1.835804E-005	0.0009069	9
	14	43	11953.13	203.1029	-141.4653	1	247.5141	-34.85799	-2.192103E-005	0.0007939	9
	15	45	9515.62	209.4376	-169.6813	1	269.5475	-39.01356	-2.164691E-005	0.0008625	9
	16	48	7546.875	216.0253	-205.6979	1	298.2928	-43.59719	1.502458E-005	-0.0007536	9
	17	51	5928.309	223.542	-253.0572	1	337.6522	-48.54373	1.924928E-005	-5.248559E-005	9
	18	53	4733.456	232.1927	-307.8873	1	385.6268	-52.97829	-1.745318E-005	0.0003216	9
	19	55	3796.875	240.9379	-373.6241	1	444.574	-57.18336	-1.679947E-006	-0.0005798	8
	20	58	2987.132	252.8431	-463.3651	1	527.8606	-61.38015	-7.901011E-006	0.0032256	8
	21	60	2390.625	266.0507	-567.5694	1	626.8317	-64.88496	9.630767E-006	-0.0014557	8
	22	62	1884.191	285.3842	-706.5437	1	762.0027	-68.00544	4.353417E-006	-0.0022319	8
	23	65	1516.544	303.8073	-860.7327	1	912.7758	-70.55882	-6.318022E-006	0.0037083	8
	24	67	1193.986	328.8994	-1074.62	1	1123.825	-72.98269	7.805773E-006	-0.0024215	8
	25	69	946.5144	366.1776	-1328.286	1	1377.836	-74.58771	-7.566694E-006	0.0036375	8
	26	72	751.7689	398.3607	-1642.288	1	1689.912	-76.36543	7.209021E-006	-0.0002088	8
	27	75	597.4265	454.0625	-2032.437	1	2082.54	-77.40647	9.253193E-006	-0.0023042	8
	28	77	477.4305	509.7186	-2499.223	1	2550.672	-78.47257	1.847479E-007	0.0006392	8
	29	79	376.6741	586.6393	-3111.908	1	3166.721	-79.32421	1.778153E-007	0.0005989	8
	30	82	298.2954	680.4141	-3860.447	1	3919.951	-80.00413	1.669812E-007	0.0006498	8
	31	84	237.7717	799.3263	-4770.323	1	4836.828	-80.48775	-3.297915E-009	0.0006225	7
	32	87	189.0121	943.3813	-5899.235	1	5974.19	-80.91442	-7.356296E-010	0.000618	7
	33	89	150.2404	1124.484	-7294.567	1	7380.729	-81.23663	-3.498397E-009	0.0006286	7
	34	91	119.1737	1356.489	-9037.516	1	9138.75	-81.46389	-6.056591E-010	0.0006171	7
	35	94	95.0169	1639.875	-11141.2	1	11261.24	-81.62675	-3.107548E-009	0.0006282	7
	36	96	75.60484	2002.443	-13758.04	1	13903	-81.71891	-3.481794E-009	0.0006165	7
	37	99	54.50582	2687.935	-18586.58	1	18779.93	-81.77111	-3.243313E-009	0.0006226	7
	38	101	45.95588	3165.872	-21766.58	1	21995.6	-81.72456	2.716089E-009	0.0005774	7
	39	104	37.20238	3872.203	-26415.19	1	26697.5	-81.66041	-1.644634E-009	0.0006123	7
	40	106	30.04808	4773.557	-32141.49	1	32494.03	-81.55235	-6.58976E-010	0.0006179	7
	41	108	23.91582	6038.332	-39600.55	1	40058.27	-81.33026	-5.942385E-010	0.0006169	7
	42	111	18.60119	7675.003	-49830.15	1	50417.75	-81.24393	-1.100988E-008	0.0006282	6
	43	113	15.02404	9663.38	-60464.79	1	61232.12	-80.91988	-1.285891E-008	0.0006574	6
	44	115	12.01923	12198.85	-74005.27	1	75003.95	-80.63968	-1.3266E-008	0.0006826	6
	45	118	9.450605	15852.59	-92032.44	1	93387.77	-80.22671	-1.28578E-008	0.0006696	6
	46	120	7.512019	20179.35	-113130.8	1	114916.4	-79.88641	-1.238371E-008	0.000675	6
	47	123	5.978954	25903.8	-138775.1	1	141172	-79.42683	-1.253429E-008	0.0006695	6
	48	128	4.734848	33487.78	-171033.8	1	174281.4	-78.92184	-1.213855E-008	0.0006928	6
	49	131	3.75601	43675.11	-210053.7	1	214546.2	-78.25421	-1.232021E-008	0.0006517	6
	50	137	3.004808	56493.32	-255894.5	1	262056.3	-77.55061	-1.203594E-008	0.0006302	6
	51	143	2.372217	74698.6	-314783.3	1	323524.9	-76.65054	-1.231341E-008	0.0006123	6
	52	147	1.878005	99627.4	-385247.5	1	397921.2	-75.50061	-1.235393E-008	0.0006743	6
	53	152	1.512097	130579.8	-462951.7	1	481014.9	-74.24841	-1.335408E-008	0.0005721	5
	54	157	1.201923	173571.7	-561909.6	1	588106.8	-72.83428	-1.323399E-008	0.0006919	5
	55	163	0.956633	231221.4	-677061.5	1	715454.8	-71.14459	-1.33268E-008	2.37235E-005	5
