EXPLAIN
TAG	EISPOT
TITLE	LABEL	Potentiostatic EIS	Test Identifier
DATE	LABEL	2/26/2021	Date
TIME	LABEL	11:50:25	Time
NOTES	NOTES	1	Notes...
	
PSTAT	PSTAT	REF3000-16137	Potentiostat
VDC	POTEN	0.00000E+000	T	DC Voltage (V)
FREQINIT	QUANT	3.00000E+005	Initial Freq. (Hz)
FREQFINAL	QUANT	1.00000E+000	Final Freq. (Hz)
PTSPERDEC	QUANT	1.00000E+001	Points/decade
VAC	QUANT	5.00000E+001	AC Voltage (mV rms)
AREA	QUANT	1.00000E+000	Sample Area (cm^2)
SPEED	SELECTOR	2	Optimize for:
ZGUESS	QUANT	1.00000E+003	Estimated Z (ohms)
EOC	QUANT	0	Open Circuit (V)
SEQUENCER	TOGGLE	TRUE	Run as Sequence
PSTATMODEL	IQUANT	5	Pstat Model
PSTATSECTION	LABEL	REF3000-16137	Pstat Section
PSTATSERIALNO	LABEL	16137	Pstat Serial Number
CTRLMODE	IQUANT	1	Control Mode
IESTAB	IQUANT	0	I/E Stability
CASPEED	IQUANT	1	Control Amp Speed
CONVENTION	IQUANT	1	Current Convention
ICHRANGE	IQUANT	2	Ich Range
ICHRANGEMODE	TOGGLE	F	Ich Auto Range
ICHOFFSETENABLE	TOGGLE	T	Ich Offset Enable
ICHOFFSET	QUANT	0	Ich Offset (V)
ICHFILTER	IQUANT	3	Ich Filter
VCHRANGE	IQUANT	2	Vch Range
VCHRANGEMODE	TOGGLE	F	Vch Auto Range
VCHOFFSETENABLE	TOGGLE	T	Vch Offset Enable
VCHOFFSET	QUANT	0	Vch Offset (V)
VCHFILTER	IQUANT	3	Vch Filter
ACHRANGE	IQUANT	2	Ach Range
ACHOFFSETENABLE	TOGGLE	F	Ach Offset Enable
ACHOFFSET	QUANT	0	Ach Offset (V)
ACHFILTER	IQUANT	3	Ach Filter
IERANGELOWERLIMIT	IQUANT	2	I/E Range Lower Limit
IERANGEMODE	TOGGLE	F	I/E AutoRange
IERANGE	IQUANT	11	I/E Range
POSFEEDENABLE	TOGGLE	F	Positive Feedback IR Comp
POSFEEDRESISTANCE	QUANT	0	Positive Feedback Resistance (ohm)
ACHSELECT	IQUANT	0	Ach Select
CABLEID	IQUANT	13	Cable ID
DCCALDATE	LABEL	7/31/2020	DC Calibration Date
ACCALDATE	LABEL	7/31/2020	AC Calibration Date
THERMOSELECT	IQUANT	1	Thermo Select
FRAMEWORKVERSION	QUANT	6.33	Framework Version
INSTRUMENTVERSION	LABEL	3.50	Instrument Version
COMPLIANCEVOLTAGE	IQUANT	0	Compliance Voltage
ZCURVE	TABLE
	Pt	Time	Freq	Zreal	Zimag	Zsig	Zmod	Zphz	Idc	Vdc	IERange
	#	s	Hz	ohm	ohm	V	ohm	°	A	V	#
	0	11	300046.9	259.2423	-22.0593	1	260.1792	-4.863664	4.781252E-005	-0.0002839	9
	1	15	238359.4	261.2612	-28.58775	1	262.8206	-6.244582	-1.885202E-005	0.0004243	10
	2	19	189328.1	263.5757	-26.14134	1	264.8689	-5.664052	2.295391E-005	-0.0004852	9
	3	26	150421.9	267.2478	-32.965	1	269.2733	-7.03191	-0.0000982	0.0005798	10
	4	33	119484.4	272.5369	-33.92597	1	274.6404	-7.095799	2.120799E-005	-0.0015484	9
	5	40	94921.88	277.0108	-38.85716	1	279.7229	-7.984955	-8.376193E-006	-8.225858E-005	9
	6	45	75421.88	281.2182	-45.48561	1	284.873	-9.18773	-1.309816E-006	-0.0004112	9
	7	49	59859.37	286.0655	-53.99826	1	291.1173	-10.68948	-9.398222E-006	-0.000095	9
	8	53	47578.12	290.9552	-63.04313	1	297.7068	-12.22566	-2.392007E-005	0.00072	9
	9	55	37828.12	296.8764	-74.93936	1	306.1887	-14.167	2.442328E-005	-0.0002075	9
	10	58	30046.88	303.8482	-88.09859	1	316.3623	-16.16913	2.895381E-005	-0.0007094	9
	11	60	23859.38	311.5689	-103.9977	1	328.4672	-18.45834	-9.682774E-006	-9.476594E-005	9
	12	63	18984.38	320.0812	-121.8055	1	342.4742	-20.8341	-2.348378E-005	0.0008853	9
	13	65	15046.87	329.9057	-144.3152	1	360.0898	-23.62667	-9.044247E-006	0.0009295	9
	14	67	11953.13	340.6562	-168.9571	1	380.254	-26.38028	2.57327E-005	-0.0007775	9
	15	69	9515.62	350.1103	-201.4086	1	403.9092	-29.91061	2.877309E-005	-0.0006542	9
	16	72	7546.875	362.2854	-239.9199	1	434.5253	-33.51413	-1.541725E-005	0.0001105	9
	17	74	5928.309	371.5812	-290.0177	1	471.3627	-37.9719	-2.886217E-006	0.0042827	8
	18	77	4733.456	382.0432	-349.3383	1	517.6816	-42.43963	2.29745E-006	-0.0026716	8
	19	79	3796.875	393.1384	-421.1136	1	576.1028	-46.96773	1.336166E-005	-0.0027	8
	20	81	2987.132	409.4367	-520.0422	1	661.8779	-51.78613	6.003785E-006	-0.0033944	8
	21	84	2390.625	424.2088	-633.413	1	762.3419	-56.18902	-2.942239E-006	0.0041397	8
	22	86	1884.191	447.6573	-786.6732	1	905.1253	-60.35791	-1.078018E-005	0.0025962	8
	23	88	1516.544	468.6395	-955.217	1	1063.984	-63.86694	-1.050559E-005	0.0025151	8
	24	91	1193.986	498.6754	-1189.921	1	1290.189	-67.26228	5.680411E-006	0.0015361	8
	25	94	946.5144	528.9839	-1472.886	1	1564.997	-70.24435	2.067302E-006	-0.0025785	8
	26	96	751.7689	574.2006	-1816.72	1	1905.303	-72.46011	1.155881E-005	-0.003893	8
	27	99	597.4265	624.4663	-2263.121	1	2347.696	-74.57414	1.99524E-006	-0.0025377	8
	28	102	477.4305	691.1955	-2772.568	1	2857.426	-76.00162	4.375226E-008	0.0006556	8
	29	104	376.6741	773.7086	-3453.139	1	3538.756	-77.37092	7.737113E-008	0.0006431	8
	30	106	298.2954	879.5041	-4293.513	1	4382.668	-78.4234	-9.241027E-009	0.0006226	7
	31	108	237.7717	999.25	-5297.081	1	5390.507	-79.31718	-9.317838E-009	0.0006225	7
	32	111	189.0121	1148.851	-6553.484	1	6653.421	-80.05686	-6.618649E-009	0.0006193	7
	33	113	150.2404	1334.08	-8108.602	1	8217.615	-80.65703	-8.116346E-009	0.0006288	7
	34	116	119.1737	1565.654	-10057.02	1	10178.16	-81.15135	-9.490684E-009	0.0006262	7
	35	118	95.0169	1848.618	-12409.41	1	12546.34	-81.52701	-1.00922E-008	0.0006393	7
	36	121	75.60484	2203.791	-15344.72	1	15502.16	-81.82713	-1.05969E-008	0.0006307	7
	37	123	54.50582	2893.145	-20795.96	1	20996.24	-82.07982	-1.111567E-008	0.0006309	7
	38	126	45.95588	3323.527	-24362.58	1	24588.23	-82.2317	-9.150752E-009	0.0006373	7
	39	128	37.20238	4012.013	-29663.38	1	29933.47	-82.29741	-8.678222E-009	0.0006218	7
	40	130	30.04808	4862.122	-36177.41	1	36502.68	-82.3455	-5.699781E-009	0.0006199	7
	41	133	23.91582	6004.403	-44642.66	1	45044.64	-82.33973	-7.235028E-009	0.0006853	6
	42	135	18.60119	7688.955	-56335.29	1	56857.59	-82.22797	-5.685175E-009	0.0006862	6
	43	137	15.02404	9383.638	-68626.47	1	69265.03	-82.21395	-5.728963E-009	0.0006488	6
	44	140	12.01923	11724.74	-84306.72	1	85118.11	-82.08252	-5.956777E-009	0.0006622	6
	45	142	9.450605	14973.23	-105174.9	1	106235.4	-81.89754	-5.568822E-009	0.0006726	6
	46	145	7.512019	18976.96	-129941	1	131319.4	-81.69109	-5.680705E-009	0.0007039	6
	47	148	5.978954	24066.08	-160207.2	1	162004.7	-81.45699	-5.897922E-009	0.0006768	6
	48	152	4.734848	31055.61	-198349.5	1	200766	-81.10144	-5.141458E-009	0.0006864	6
	49	155	3.75601	39917.55	-245191.7	1	248419.7	-80.75329	-5.547296E-009	0.0006482	6
	50	161	3.004808	51290.14	-300411.9	1	304758.9	-80.31116	-5.201425E-009	0.0006481	6
	51	167	2.372217	67402.37	-371797.3	1	377857.5	-79.72456	-5.541282E-009	0.0006587	6
	52	172	1.878005	89493.84	-459660.4	1	468291.4	-78.9826	-5.282903E-009	0.0006629	5
	53	176	1.512097	115917.5	-558195.3	1	570104.2	-78.26842	-5.153941E-009	0.0005542	5
	54	182	1.201923	153983.5	-684932.2	1	702027.8	-77.32967	-5.187181E-009	0.0006736	5
	55	188	0.956633	204442.5	-836723.6	1	861338	-76.26955	-5.190407E-009	1.313687E-005	5
