EXPLAIN
TAG	EISPOT
TITLE	LABEL	Potentiostatic EIS	Test Identifier
DATE	LABEL	2/26/2021	Date
TIME	LABEL	11:47:23	Time
NOTES	NOTES	1	Notes...
	
PSTAT	PSTAT	REF3000-16137	Potentiostat
VDC	POTEN	0.00000E+000	T	DC Voltage (V)
FREQINIT	QUANT	3.00000E+005	Initial Freq. (Hz)
FREQFINAL	QUANT	1.00000E+000	Final Freq. (Hz)
PTSPERDEC	QUANT	1.00000E+001	Points/decade
VAC	QUANT	5.00000E+001	AC Voltage (mV rms)
AREA	QUANT	1.00000E+000	Sample Area (cm^2)
SPEED	SELECTOR	2	Optimize for:
ZGUESS	QUANT	1.00000E+003	Estimated Z (ohms)
EOC	QUANT	0	Open Circuit (V)
SEQUENCER	TOGGLE	TRUE	Run as Sequence
PSTATMODEL	IQUANT	5	Pstat Model
PSTATSECTION	LABEL	REF3000-16137	Pstat Section
PSTATSERIALNO	LABEL	16137	Pstat Serial Number
CTRLMODE	IQUANT	1	Control Mode
IESTAB	IQUANT	0	I/E Stability
CASPEED	IQUANT	1	Control Amp Speed
CONVENTION	IQUANT	1	Current Convention
ICHRANGE	IQUANT	2	Ich Range
ICHRANGEMODE	TOGGLE	F	Ich Auto Range
ICHOFFSETENABLE	TOGGLE	T	Ich Offset Enable
ICHOFFSET	QUANT	0	Ich Offset (V)
ICHFILTER	IQUANT	3	Ich Filter
VCHRANGE	IQUANT	2	Vch Range
VCHRANGEMODE	TOGGLE	F	Vch Auto Range
VCHOFFSETENABLE	TOGGLE	T	Vch Offset Enable
VCHOFFSET	QUANT	0	Vch Offset (V)
VCHFILTER	IQUANT	3	Vch Filter
ACHRANGE	IQUANT	2	Ach Range
ACHOFFSETENABLE	TOGGLE	F	Ach Offset Enable
ACHOFFSET	QUANT	0	Ach Offset (V)
ACHFILTER	IQUANT	3	Ach Filter
IERANGELOWERLIMIT	IQUANT	2	I/E Range Lower Limit
IERANGEMODE	TOGGLE	F	I/E AutoRange
IERANGE	IQUANT	11	I/E Range
POSFEEDENABLE	TOGGLE	F	Positive Feedback IR Comp
POSFEEDRESISTANCE	QUANT	0	Positive Feedback Resistance (ohm)
ACHSELECT	IQUANT	0	Ach Select
CABLEID	IQUANT	13	Cable ID
DCCALDATE	LABEL	7/31/2020	DC Calibration Date
ACCALDATE	LABEL	7/31/2020	AC Calibration Date
THERMOSELECT	IQUANT	1	Thermo Select
FRAMEWORKVERSION	QUANT	6.33	Framework Version
INSTRUMENTVERSION	LABEL	3.50	Instrument Version
COMPLIANCEVOLTAGE	IQUANT	0	Compliance Voltage
ZCURVE	TABLE
	Pt	Time	Freq	Zreal	Zimag	Zsig	Zmod	Zphz	Idc	Vdc	IERange
	#	s	Hz	ohm	ohm	V	ohm	°	A	V	#
	0	8	300046.9	212.475	-17.42311	1	213.1882	-4.687808	2.925364E-005	-0.0007265	9
	1	11	238359.4	214.5082	-19.33035	1	215.3774	-5.149286	7.933545E-005	-0.0025998	9
	2	14	189328.1	216.4389	-22.53664	1	217.609	-5.944488	4.788927E-005	-0.0001711	9
	3	16	150421.9	217.6716	-26.00826	1	219.2198	-6.813625	2.238373E-005	-0.000476	9
	4	19	119484.4	221.0213	-30.05429	1	223.0553	-7.743539	-1.459127E-005	0.0011386	9
	5	22	94921.88	223.8004	-35.49239	1	226.5973	-9.011461	-1.306261E-006	-0.0003736	9
	6	24	75421.88	227.5053	-41.78002	1	231.3098	-10.40609	1.920231E-005	-0.0007553	9
	7	27	59859.37	231.1153	-49.32581	1	236.3204	-12.0476	1.576044E-005	-0.0007833	9
	8	29	47578.12	236.1382	-58.52576	1	243.2828	-13.91999	2.338673E-005	-0.0002566	9
	9	33	37828.12	241.7101	-68.85811	1	251.327	-15.90113	-1.693019E-005	0.0002706	9
	10	37	30046.88	247.7203	-81.29207	1	260.7177	-18.1678	2.637172E-005	-0.0007743	9
	11	40	23859.38	255.0546	-95.6854	1	272.4125	-20.56391	-1.370202E-006	-0.0003442	9
	12	44	18984.38	262.7789	-112.6158	1	285.8935	-23.1979	-2.054853E-005	0.0010152	9
	13	46	15046.87	270.6754	-133.3526	1	301.7418	-26.22791	-4.369705E-006	-0.0002542	9
	14	49	11953.13	278.4673	-158.6402	1	320.4852	-29.66976	-2.243512E-005	0.0010563	9
	15	51	9515.62	287.2899	-188.1247	1	343.4041	-33.2178	-1.346482E-006	0.0006384	9
	16	54	7546.875	296.7401	-226.2214	1	373.1364	-37.32028	-1.233546E-005	-1.340421E-005	9
	17	56	5928.309	305.1087	-273.1832	1	409.5368	-41.8401	-5.555706E-006	0.0003165	8
	18	59	4733.456	314.0615	-331.2426	1	456.4606	-46.52513	-1.001988E-005	0.003734	8
	19	61	3796.875	324.6342	-401.0752	1	515.9929	-51.01295	5.066361E-006	0.0014363	8
	20	63	2987.132	339.3771	-496.2328	1	601.1854	-55.6315	1.116914E-005	-0.0022245	8
	21	65	2390.625	353.7073	-606.4165	1	702.0327	-59.74607	1.103626E-005	-0.0016045	8
	22	68	1884.191	372.9104	-754.3791	1	841.5165	-63.69554	8.220877E-006	-0.0033416	8
	23	70	1516.544	393.0133	-918.718	1	999.251	-66.83952	-9.286689E-006	0.0042357	8
	24	73	1193.986	423.8688	-1142.567	1	1218.657	-69.64619	-8.219726E-006	0.0016057	8
	25	75	946.5144	449.8601	-1418.039	1	1487.686	-72.39883	-9.892925E-006	0.0037182	8
	26	78	751.7689	500.0956	-1752.268	1	1822.234	-74.0713	1.082224E-006	0.0028763	8
	27	81	597.4265	547.2834	-2167.966	1	2235.978	-75.8322	-5.765554E-006	0.0044235	8
	28	83	477.4305	609.3105	-2665.294	1	2734.054	-77.12295	8.857508E-008	0.0006616	8
	29	86	376.6741	689.2027	-3319.096	1	3389.897	-78.26936	8.698147E-008	0.000658	8
	30	88	298.2954	786.0767	-4119.022	1	4193.359	-79.19556	9.840338E-008	0.0006683	8
	31	90	237.7717	907.7469	-5090.822	1	5171.119	-79.88982	-3.21755E-009	0.0006244	7
	32	93	189.0121	1053.536	-6297.623	1	6385.139	-80.50288	-7.175311E-009	0.0006497	7
	33	95	150.2404	1234.826	-7791.595	1	7888.837	-80.99455	-6.87674E-009	0.0006427	7
	34	97	119.1737	1465.373	-9661.17	1	9771.67	-81.37531	-2.626201E-009	0.0006281	7
	35	100	95.0169	1744.256	-11919.26	1	12046.21	-81.67447	-3.208546E-009	0.0006086	7
	36	102	75.60484	2100.056	-14733.38	1	14882.29	-81.88786	-5.456859E-009	0.0006196	7
	37	105	54.50582	2757.507	-19942.95	1	20132.69	-82.12764	-3.675933E-009	0.0006223	7
	38	107	45.95588	3224.807	-23376.17	1	23597.56	-82.14546	-5.049829E-009	0.000626	7
	39	110	37.20238	3903.821	-28432.97	1	28699.72	-82.18222	-6.796698E-009	0.0006321	7
	40	112	30.04808	4759.282	-34623.2	1	34948.77	-82.17321	-4.082931E-009	0.0006371	7
	41	116	23.91582	5983.349	-42815.98	1	43232.03	-82.04468	-8.53579E-009	0.0006764	6
	42	119	18.60119	7509.673	-53949.34	1	54469.5	-82.07543	-9.015557E-009	0.0006825	6
	43	121	15.02404	9405.624	-65633.26	1	66303.77	-81.84471	-7.294336E-009	0.0006699	6
	44	123	12.01923	11784.47	-80557.84	1	81415.23	-81.67747	-8.01911E-009	0.0006893	6
	45	126	9.450605	15118.89	-100404.3	1	101536.3	-81.43673	-7.93435E-009	0.0006767	6
	46	129	7.512019	19329.46	-123897	1	125395.7	-81.13263	-7.325292E-009	0.000662	6
	47	132	5.978954	24663.61	-152476	1	154457.9	-80.81176	-7.16294E-009	0.0006603	6
	48	136	4.734848	31794.87	-188587.9	1	191249.3	-80.43024	-7.588664E-009	0.0006537	6
	49	139	3.75601	41346.47	-232577.8	1	236224.4	-79.91957	-7.335409E-009	0.0006965	6
	50	145	3.004808	53336.78	-284475.3	1	289432.2	-79.3808	-7.07464E-009	0.0007032	6
	51	151	2.372217	70389.2	-351676.9	1	358652.1	-78.68164	-7.355888E-009	0.0007352	6
	52	155	1.878005	93452.48	-432777.5	1	442752.5	-77.81484	-7.302374E-009	0.0006459	6
	53	160	1.512097	122275	-522934.3	1	537039.5	-76.83928	-7.239369E-009	0.0006898	5
	54	165	1.201923	162115.8	-640103.8	1	660313.9	-75.78783	-7.288315E-009	0.0006357	5
	55	172	0.956633	216158.4	-778905.5	1	808342.9	-74.48984	-7.436134E-009	2.309283E-005	5
