EXPLAIN
TAG	EISPOT
TITLE	LABEL	Potentiostatic EIS	Test Identifier
DATE	LABEL	2/26/2021	Date
TIME	LABEL	11:35:49	Time
NOTES	NOTES	1	Notes...
	
PSTAT	PSTAT	REF3000-16137	Potentiostat
VDC	POTEN	0.00000E+000	T	DC Voltage (V)
FREQINIT	QUANT	3.00000E+005	Initial Freq. (Hz)
FREQFINAL	QUANT	1.00000E+000	Final Freq. (Hz)
PTSPERDEC	QUANT	1.00000E+001	Points/decade
VAC	QUANT	5.00000E+001	AC Voltage (mV rms)
AREA	QUANT	1.00000E+000	Sample Area (cm^2)
SPEED	SELECTOR	2	Optimize for:
ZGUESS	QUANT	1.00000E+003	Estimated Z (ohms)
EOC	QUANT	0	Open Circuit (V)
SEQUENCER	TOGGLE	TRUE	Run as Sequence
PSTATMODEL	IQUANT	5	Pstat Model
PSTATSECTION	LABEL	REF3000-16137	Pstat Section
PSTATSERIALNO	LABEL	16137	Pstat Serial Number
CTRLMODE	IQUANT	1	Control Mode
IESTAB	IQUANT	0	I/E Stability
CASPEED	IQUANT	1	Control Amp Speed
CONVENTION	IQUANT	1	Current Convention
ICHRANGE	IQUANT	2	Ich Range
ICHRANGEMODE	TOGGLE	F	Ich Auto Range
ICHOFFSETENABLE	TOGGLE	T	Ich Offset Enable
ICHOFFSET	QUANT	0	Ich Offset (V)
ICHFILTER	IQUANT	3	Ich Filter
VCHRANGE	IQUANT	2	Vch Range
VCHRANGEMODE	TOGGLE	F	Vch Auto Range
VCHOFFSETENABLE	TOGGLE	T	Vch Offset Enable
VCHOFFSET	QUANT	0	Vch Offset (V)
VCHFILTER	IQUANT	3	Vch Filter
ACHRANGE	IQUANT	2	Ach Range
ACHOFFSETENABLE	TOGGLE	F	Ach Offset Enable
ACHOFFSET	QUANT	0	Ach Offset (V)
ACHFILTER	IQUANT	3	Ach Filter
IERANGELOWERLIMIT	IQUANT	2	I/E Range Lower Limit
IERANGEMODE	TOGGLE	F	I/E AutoRange
IERANGE	IQUANT	11	I/E Range
POSFEEDENABLE	TOGGLE	F	Positive Feedback IR Comp
POSFEEDRESISTANCE	QUANT	0	Positive Feedback Resistance (ohm)
ACHSELECT	IQUANT	0	Ach Select
CABLEID	IQUANT	13	Cable ID
DCCALDATE	LABEL	7/31/2020	DC Calibration Date
ACCALDATE	LABEL	7/31/2020	AC Calibration Date
THERMOSELECT	IQUANT	1	Thermo Select
FRAMEWORKVERSION	QUANT	6.33	Framework Version
INSTRUMENTVERSION	LABEL	3.50	Instrument Version
COMPLIANCEVOLTAGE	IQUANT	0	Compliance Voltage
ZCURVE	TABLE
	Pt	Time	Freq	Zreal	Zimag	Zsig	Zmod	Zphz	Idc	Vdc	IERange
	#	s	Hz	ohm	ohm	V	ohm	°	A	V	#
	0	7	300046.9	113.5214	-9.85913	1	113.9488	-4.963579	-5.424217E-005	0.0005962	9
	1	10	238359.4	114.4898	-12.43556	1	115.1632	-6.199005	-5.031121E-005	0.0005398	9
	2	13	189328.1	116.0118	-15.45259	1	117.0364	-7.587052	6.565339E-005	-0.0020819	9
	3	16	150421.9	117.6739	-18.79424	1	119.1653	-9.074335	-3.070469E-006	0.0011669	9
	4	18	119484.4	119.3022	-22.83998	1	121.4689	-10.83793	-6.990931E-005	0.0031467	9
	5	21	94921.88	121.6474	-27.26685	1	124.6658	-12.63383	1.948068E-005	-8.775463E-005	9
	6	23	75421.88	124.1911	-32.55637	1	128.3875	-14.68941	5.73711E-006	-0.0005216	9
	7	26	59859.37	127.1047	-38.82112	1	132.901	-16.98405	2.469662E-005	-0.000579	9
	8	28	47578.12	130.4992	-45.97161	1	138.3598	-19.40609	-2.099126E-005	0.0006317	9
	9	31	37828.12	134.1108	-54.19996	1	144.649	-22.00576	-2.41379E-006	-0.0002731	9
	10	33	30046.88	138.1917	-63.95602	1	152.2738	-24.835	1.322021E-005	-0.000674	9
	11	36	23859.38	142.226	-75.66868	1	161.1024	-28.01437	1.956474E-005	-3.931648E-006	9
	12	38	18984.38	146.4502	-90.17963	1	171.9885	-31.62351	2.969368E-006	0.0004377	9
	13	40	15046.87	150.9346	-107.7261	1	185.435	-35.51648	1.930671E-005	-6.565725E-005	9
	14	43	11953.13	155.2682	-130.33	1	202.7168	-40.00963	-2.082971E-005	0.0007746	9
	15	45	9515.62	160.4977	-157.6082	1	224.9441	-44.47958	9.866385E-006	-0.0005425	9
	16	47	7546.875	166.2059	-192.313	1	254.1824	-49.16489	5.649775E-006	-0.0004794	9
	17	50	5928.309	172.648	-237.6828	1	293.7694	-54.0061	-6.157858E-006	0.0007463	9
	18	52	4733.456	180.2978	-290.43	1	341.8434	-58.16816	2.277567E-005	-0.0006729	9
	19	54	3796.875	188.6014	-353.4311	1	400.6045	-61.91429	-1.685799E-005	0.0003048	9
	20	57	2987.132	199.9067	-438.85	1	482.2365	-65.5096	-1.404259E-006	-0.0002705	8
	21	59	2390.625	212.7913	-536.958	1	577.5847	-68.38205	3.699461E-006	-0.0018189	8
	22	61	1884.191	229.7974	-668.0577	1	706.4757	-71.01789	-6.264112E-006	0.0019203	8
	23	64	1516.544	248.7586	-814.8472	1	851.9724	-73.02348	5.08614E-006	-0.0017635	8
	24	66	1193.986	274.9105	-1017.624	1	1054.104	-74.88245	7.800708E-006	-0.0013636	8
	25	68	946.5144	309.6382	-1257.012	1	1294.586	-76.1619	-6.384726E-006	0.0027434	8
	26	71	751.7689	346.6849	-1553.572	1	1591.784	-77.42036	-6.455735E-006	0.0020068	8
	27	74	597.4265	394.3218	-1919.492	1	1959.576	-78.39121	-5.440494E-006	0.0014113	8
	28	76	477.4305	452.5255	-2364.295	1	2407.212	-79.16465	2.286506E-007	0.0006551	8
	29	79	376.6741	529.9307	-2941.718	1	2989.069	-79.78808	2.34467E-007	0.0006583	8
	30	81	298.2954	626.1023	-3646.852	1	3700.207	-80.25826	2.493009E-007	0.0006489	8
	31	83	237.7717	747.2299	-4501.898	1	4563.49	-80.5759	-1.478548E-009	0.0006193	7
	32	86	189.0121	896.6387	-5560.62	1	5632.446	-80.84002	-2.657606E-009	0.0006162	7
	33	88	150.2404	1085.102	-6865.894	1	6951.111	-81.01913	-2.265961E-009	0.0006277	7
	34	91	119.1737	1326.95	-8492.196	1	8595.242	-81.11905	-3.277651E-009	0.0006226	7
	35	93	95.0169	1624.995	-10450.98	1	10576.56	-81.162	-3.645019E-009	0.0006278	7
	36	95	75.60484	2004.314	-12880.88	1	13035.89	-81.15549	-2.862221E-009	0.0006302	7
	37	98	54.50582	2735.6	-17360.82	1	17575.03	-81.04535	-1.689539E-009	0.0006152	7
	38	101	45.95588	3223.073	-20259.97	1	20514.74	-80.9608	-1.560632E-009	0.0006276	7
	39	103	37.20238	3966.439	-24545.88	1	24864.29	-80.82076	-8.890239E-011	0.0005966	7
	40	105	30.04808	4920.742	-29822.28	1	30225.52	-80.63049	-7.580842E-011	0.0006199	7
	41	108	23.91582	6198.613	-36626	1	37146.83	-80.39424	-1.687877E-009	0.0006239	7
	42	110	18.60119	7994.512	-45920.45	1	46611.16	-80.12408	-2.012492E-008	0.0006689	6
	43	112	15.02404	9967.66	-55560.98	1	56448	-79.82931	-2.083629E-008	0.0006931	6
	44	115	12.01923	12578.6	-67813.73	1	68970.45	-79.49178	-2.159522E-008	0.0006628	6
	45	117	9.450605	16255.59	-84048.45	1	85605.99	-79.05372	-2.113087E-008	0.0006335	6
	46	120	7.512019	20710.7	-102992.3	1	105054	-78.63004	-2.127095E-008	0.0006633	6
	47	123	5.978954	26568.62	-125925.4	1	128697.7	-78.08607	-2.064334E-008	0.0006663	6
	48	127	4.734848	34480.86	-154574.3	1	158373.4	-77.42492	-2.102097E-008	0.0006469	6
	49	130	3.75601	44752.26	-189298.2	1	194516.2	-76.69883	-2.033252E-008	0.0006868	6
	50	136	3.004808	57945.97	-229615.9	1	236814.7	-75.83654	-2.039903E-008	0.0006714	6
	51	142	2.372217	77039.22	-280849.9	1	291224.5	-74.66064	-2.062607E-008	0.0006302	6
	52	146	1.878005	102341.4	-342604.8	1	357563.7	-73.36829	-2.01506E-008	0.0006542	6
	53	151	1.512097	133142.9	-409594.9	1	430691.3	-71.99274	-2.026656E-008	0.0007551	6
	54	157	1.201923	178304.4	-492611.4	1	523887.8	-70.1019	-2.18824E-008	0.0006806	5
	55	163	0.956633	236990.7	-586991.6	1	633027.4	-68.01421	-2.23135E-008	4.398064E-005	5
