EXPLAIN
TAG	EISPOT
TITLE	LABEL	Potentiostatic EIS	Test Identifier
DATE	LABEL	8/5/2020	Date
TIME	LABEL	19:02:59	Time
NOTES	NOTES	1	Notes...
	
PSTAT	PSTAT	REF3000-16137	Potentiostat
VDC	POTEN	0.00000E+000	T	DC Voltage (V)
FREQINIT	QUANT	3.00000E+005	Initial Freq. (Hz)
FREQFINAL	QUANT	1.00000E+000	Final Freq. (Hz)
PTSPERDEC	QUANT	1.00000E+001	Points/decade
VAC	QUANT	5.00000E+001	AC Voltage (mV rms)
AREA	QUANT	1.00000E+000	Sample Area (cm^2)
SPEED	SELECTOR	2	Optimize for:
ZGUESS	QUANT	1.00000E+003	Estimated Z (ohms)
EOC	QUANT	0	Open Circuit (V)
SEQUENCER	TOGGLE	TRUE	Run as Sequence
PSTATMODEL	IQUANT	5	Pstat Model
PSTATSECTION	LABEL	REF3000-16137	Pstat Section
PSTATSERIALNO	LABEL	16137	Pstat Serial Number
CTRLMODE	IQUANT	1	Control Mode
IESTAB	IQUANT	0	I/E Stability
CASPEED	IQUANT	1	Control Amp Speed
CONVENTION	IQUANT	1	Current Convention
ICHRANGE	IQUANT	2	Ich Range
ICHRANGEMODE	TOGGLE	F	Ich Auto Range
ICHOFFSETENABLE	TOGGLE	T	Ich Offset Enable
ICHOFFSET	QUANT	0	Ich Offset (V)
ICHFILTER	IQUANT	3	Ich Filter
VCHRANGE	IQUANT	2	Vch Range
VCHRANGEMODE	TOGGLE	F	Vch Auto Range
VCHOFFSETENABLE	TOGGLE	T	Vch Offset Enable
VCHOFFSET	QUANT	0	Vch Offset (V)
VCHFILTER	IQUANT	3	Vch Filter
ACHRANGE	IQUANT	2	Ach Range
ACHOFFSETENABLE	TOGGLE	F	Ach Offset Enable
ACHOFFSET	QUANT	0	Ach Offset (V)
ACHFILTER	IQUANT	3	Ach Filter
IERANGELOWERLIMIT	IQUANT	2	I/E Range Lower Limit
IERANGEMODE	TOGGLE	F	I/E AutoRange
IERANGE	IQUANT	11	I/E Range
POSFEEDENABLE	TOGGLE	F	Positive Feedback IR Comp
POSFEEDRESISTANCE	QUANT	0	Positive Feedback Resistance (ohm)
ACHSELECT	IQUANT	0	Ach Select
CABLEID	IQUANT	13	Cable ID
DCCALDATE	LABEL	7/31/2020	DC Calibration Date
ACCALDATE	LABEL	7/31/2020	AC Calibration Date
THERMOSELECT	IQUANT	1	Thermo Select
FRAMEWORKVERSION	QUANT	6.33	Framework Version
INSTRUMENTVERSION	LABEL	3.50	Instrument Version
COMPLIANCEVOLTAGE	IQUANT	0	Compliance Voltage
ZCURVE	TABLE
	Pt	Time	Freq	Zreal	Zimag	Zsig	Zmod	Zphz	Idc	Vdc	IERange
	#	s	Hz	ohm	ohm	V	ohm	°	A	V	#
	0	10	300046.9	3.181015	1.173901	1	3.390708	20.25575	-4.617575E-005	-0.0001772	11
	1	13	238359.4	3.184208	0.9223444	1	3.315102	16.1543	-2.547913E-005	-0.0000951	11
	2	16	189328.1	3.190767	0.7157364	1	3.270057	12.64301	-8.452406E-005	0.0001989	11
	3	19	150421.9	3.198223	0.5391698	1	3.243353	9.56918	7.405267E-005	0.0004425	11
	4	21	119484.4	3.209335	0.403512	1	3.234602	7.166236	2.389479E-005	0.000558	11
	5	24	94921.88	3.222939	0.2866895	1	3.235664	5.083242	-4.381411E-005	0.0005349	11
	6	27	75421.88	3.238223	0.1840504	1	3.243449	3.253011	2.527325E-006	0.0006045	11
	7	29	59859.37	3.252905	0.0926419	1	3.254224	1.631328	-2.655499E-006	0.0006259	11
	8	32	47578.12	3.268625	0.00881	1	3.268637	0.1544302	-1.681794E-005	0.0006346	11
	9	34	37828.12	3.284595	-0.0728961	1	3.285403	-1.271376	1.521772E-005	0.0006786	11
	10	37	30046.88	3.302621	-0.1566777	1	3.306336	-2.716098	-4.694794E-005	0.0006323	11
	11	39	23859.38	3.322798	-0.2466416	1	3.33194	-4.245113	-1.063442E-005	0.00068	11
	12	41	18984.38	3.34507	-0.346515	1	3.362969	-5.914162	3.140506E-005	0.0007146	11
	13	44	15046.87	3.370385	-0.4629602	1	3.402033	-7.821273	2.503843E-005	0.000715	11
	14	46	11953.13	3.400238	-0.5997007	1	3.452718	-10.0024	3.24121E-005	0.000715	11
	15	48	9515.62	3.43336	-0.7625663	1	3.517025	-12.52241	-5.323146E-006	0.0007164	11
	16	51	7546.875	3.473177	-0.962403	1	3.60405	-15.48784	2.154038E-005	0.0006557	10
	17	53	5928.309	3.518965	-1.219971	1	3.724439	-19.12065	6.071315E-006	0.000655	10
	18	55	4733.456	3.568957	-1.515596	1	3.877433	-23.00903	-1.624328E-005	0.000676	10
	19	58	3796.875	3.626184	-1.870024	1	4.079975	-27.28017	-3.206779E-005	0.0006654	10
	20	60	2987.132	3.700282	-2.344761	1	4.380638	-32.36124	2.344721E-005	0.000653	10
	21	62	2390.625	3.784923	-2.891277	1	4.76289	-37.37596	1.735863E-005	0.0006418	10
	22	64	1884.191	3.896804	-3.609143	1	5.311402	-42.80525	1.214344E-005	0.000648	10
	23	67	1516.544	4.023655	-4.416898	1	5.974847	-47.66747	-2.358179E-005	0.0007363	10
	24	69	1193.986	4.197395	-5.511785	1	6.928052	-52.7096	-1.656315E-005	0.0006773	10
	25	72	946.5144	4.416546	-6.824307	1	8.128779	-57.08992	2.194884E-005	0.0006593	10
	26	74	751.7689	4.685699	-8.435526	1	9.64955	-60.94905	-2.361081E-005	0.0006792	10
	27	76	597.4265	5.018595	-10.40916	1	11.55582	-64.25977	-1.486317E-005	0.0006834	10
	28	80	477.4305	5.452312	-12.76205	1	13.87795	-66.86644	-1.831618E-006	0.0006786	10
	29	83	376.6741	6.000066	-15.81381	1	16.91382	-69.22228	-1.724886E-006	0.0006694	10
	30	85	298.2954	6.678512	-19.51197	1	20.62327	-71.10506	-1.093899E-006	0.0006697	10
	31	87	237.7717	7.498615	-23.91722	1	25.06517	-72.59255	-2.116422E-006	0.0006767	10
	32	90	189.0121	8.517551	-29.3776	1	30.58745	-73.83135	-1.810919E-006	0.0006725	10
	33	92	150.2404	9.75825	-36.0635	1	37.3604	-74.85918	-2.350817E-006	0.0006714	10
	34	95	119.1737	11.27245	-44.30069	1	45.71235	-75.72386	1.907324E-006	8.399945E-005	9
	35	97	95.0169	13.10005	-54.22379	1	55.78379	-76.41804	1.880586E-006	7.74969E-005	9
	36	100	75.60484	15.36247	-66.49911	1	68.25055	-76.99187	1.773215E-006	7.315771E-005	9
	37	102	54.50582	19.52578	-89.03985	1	91.15564	-77.63125	1.726088E-006	7.588416E-005	9
	38	105	45.95588	22.27664	-103.722	1	106.0872	-77.87857	1.964917E-006	8.26106E-005	9
	39	107	37.20238	26.36868	-125.2852	1	128.03	-78.11448	1.918457E-006	7.243721E-005	9
	40	109	30.04808	31.4622	-151.5852	1	154.8158	-78.27448	1.742074E-006	7.411335E-005	9
	41	112	23.91582	38.34875	-185.9279	1	189.8415	-78.34583	1.738766E-006	7.916544E-005	9
	42	114	18.60119	47.93171	-232.4553	1	237.3456	-78.34904	1.710564E-006	7.38919E-005	9
	43	117	15.02404	58.48658	-281.0992	1	287.1192	-78.24651	2.051537E-006	8.225138E-005	9
	44	119	12.01923	72.21301	-342.288	1	349.8225	-78.08692	1.837361E-006	6.916555E-005	9
	45	121	9.450605	91.33113	-422.943	1	432.6918	-77.81454	1.825053E-006	8.081572E-005	9
	46	124	7.512019	114.0641	-514.3965	1	526.8913	-77.49733	2.225948E-007	0.0006369	8
	47	127	5.978954	143.2232	-626.9689	1	643.1196	-77.13229	2.560242E-007	0.0006604	8
	48	130	4.734848	181.4009	-766.5269	1	787.699	-76.68573	3.393463E-007	0.0006456	8
	49	133	3.75601	228.2016	-934.0115	1	961.485	-76.27023	2.955477E-007	0.0006552	8
	50	136	3.004808	284.1967	-1127.491	1	1162.757	-75.85266	3.717508E-007	0.0006383	8
	51	140	2.372217	357.8632	-1375.315	1	1421.112	-75.41481	3.162328E-007	0.0006082	8
	52	144	1.878005	451.2626	-1672.487	1	1732.296	-74.90028	2.993071E-007	0.0006694	8
	53	149	1.512097	555.8538	-2004.281	1	2079.932	-74.49953	3.187739E-007	0.0005463	8
	54	154	1.201923	692.2354	-2428.844	1	2525.564	-74.09212	3.113619E-007	0.0006597	8
	55	161	0.956633	858.5438	-2937.227	1	3060.131	-73.7065	3.154384E-007	1.440213E-005	8
