EXPLAIN
TAG	EISPOT
TITLE	LABEL	Potentiostatic EIS	Test Identifier
DATE	LABEL	8/5/2020	Date
TIME	LABEL	19:16:55	Time
NOTES	NOTES	1	Notes...
	
PSTAT	PSTAT	REF3000-16137	Potentiostat
VDC	POTEN	0.00000E+000	T	DC Voltage (V)
FREQINIT	QUANT	3.00000E+005	Initial Freq. (Hz)
FREQFINAL	QUANT	1.00000E+000	Final Freq. (Hz)
PTSPERDEC	QUANT	1.00000E+001	Points/decade
VAC	QUANT	5.00000E+001	AC Voltage (mV rms)
AREA	QUANT	1.00000E+000	Sample Area (cm^2)
SPEED	SELECTOR	2	Optimize for:
ZGUESS	QUANT	1.00000E+003	Estimated Z (ohms)
EOC	QUANT	0	Open Circuit (V)
SEQUENCER	TOGGLE	TRUE	Run as Sequence
PSTATMODEL	IQUANT	5	Pstat Model
PSTATSECTION	LABEL	REF3000-16137	Pstat Section
PSTATSERIALNO	LABEL	16137	Pstat Serial Number
CTRLMODE	IQUANT	1	Control Mode
IESTAB	IQUANT	0	I/E Stability
CASPEED	IQUANT	1	Control Amp Speed
CONVENTION	IQUANT	1	Current Convention
ICHRANGE	IQUANT	2	Ich Range
ICHRANGEMODE	TOGGLE	F	Ich Auto Range
ICHOFFSETENABLE	TOGGLE	T	Ich Offset Enable
ICHOFFSET	QUANT	0	Ich Offset (V)
ICHFILTER	IQUANT	3	Ich Filter
VCHRANGE	IQUANT	2	Vch Range
VCHRANGEMODE	TOGGLE	F	Vch Auto Range
VCHOFFSETENABLE	TOGGLE	T	Vch Offset Enable
VCHOFFSET	QUANT	0	Vch Offset (V)
VCHFILTER	IQUANT	3	Vch Filter
ACHRANGE	IQUANT	2	Ach Range
ACHOFFSETENABLE	TOGGLE	F	Ach Offset Enable
ACHOFFSET	QUANT	0	Ach Offset (V)
ACHFILTER	IQUANT	3	Ach Filter
IERANGELOWERLIMIT	IQUANT	2	I/E Range Lower Limit
IERANGEMODE	TOGGLE	F	I/E AutoRange
IERANGE	IQUANT	11	I/E Range
POSFEEDENABLE	TOGGLE	F	Positive Feedback IR Comp
POSFEEDRESISTANCE	QUANT	0	Positive Feedback Resistance (ohm)
ACHSELECT	IQUANT	0	Ach Select
CABLEID	IQUANT	13	Cable ID
DCCALDATE	LABEL	7/31/2020	DC Calibration Date
ACCALDATE	LABEL	7/31/2020	AC Calibration Date
THERMOSELECT	IQUANT	1	Thermo Select
FRAMEWORKVERSION	QUANT	6.33	Framework Version
INSTRUMENTVERSION	LABEL	3.50	Instrument Version
COMPLIANCEVOLTAGE	IQUANT	0	Compliance Voltage
ZCURVE	TABLE
	Pt	Time	Freq	Zreal	Zimag	Zsig	Zmod	Zphz	Idc	Vdc	IERange
	#	s	Hz	ohm	ohm	V	ohm	°	A	V	#
	0	7	300046.9	25.99766	0.3909797	1	26.0006	0.8616083	2.172834E-005	-0.000186	11
	1	11	238359.4	26.32904	0.5734268	1	26.33529	1.247662	-2.17636E-005	0.0004837	10
	2	15	189328.1	26.66832	0.4029343	1	26.67137	0.8656217	-3.466608E-006	0.0003886	10
	3	18	150421.9	26.98715	0.2777973	1	26.98858	0.5897639	-2.218293E-005	0.0005842	10
	4	22	119484.4	27.24212	0.1429225	1	27.2425	0.3005927	2.07102E-005	0.0006261	10
	5	25	94921.88	27.50995	0.0482607	1	27.50999	0.1005138	2.33849E-005	0.0006689	10
	6	27	75421.88	27.75012	-0.0540574	1	27.75018	-0.1116123	-1.571984E-005	0.0006435	10
	7	30	59859.37	28.02087	-0.1515791	1	28.02128	-0.3099389	2.275489E-005	0.0006154	10
	8	32	47578.12	28.2752	-0.2402926	1	28.27622	-0.4869079	2.367016E-005	0.0006061	10
	9	35	37828.12	28.52365	-0.3343737	1	28.52561	-0.6716296	1.934783E-005	0.0006024	10
	10	37	30046.88	28.80938	-0.4350794	1	28.81267	-0.8652152	-1.947691E-005	0.0007385	10
	11	40	23859.38	29.07512	-0.5494919	1	29.08031	-1.082707	-2.44289E-005	0.0007076	10
	12	42	18984.38	29.30951	-0.6701077	1	29.31717	-1.309734	-2.431471E-006	0.0007281	10
	13	44	15046.87	29.58433	-0.8225944	1	29.59576	-1.592703	8.726219E-006	0.0006101	10
	14	47	11953.13	29.83963	-0.990098	1	29.85605	-1.900413	8.656851E-007	0.0006257	10
	15	49	9515.62	30.12276	-1.212825	1	30.14717	-2.30564	-2.090441E-005	0.0007419	10
	16	51	7546.875	30.37942	-1.478925	1	30.4154	-2.787061	2.261587E-005	0.0006052	10
	17	54	5928.309	30.66895	-1.818558	1	30.72282	-3.39346	-2.514228E-005	0.0006754	10
	18	56	4733.456	31.0003	-2.216451	1	31.07943	-4.08956	2.571906E-005	0.0006364	10
	19	58	3796.875	31.34521	-2.695194	1	31.46086	-4.914447	1.93527E-005	0.0007042	10
	20	61	2987.132	31.69978	-3.346699	1	31.87595	-6.026667	2.312724E-005	0.0006707	10
	21	63	2390.625	32.08207	-4.093038	1	32.34211	-7.270533	6.18947E-006	0.0006439	10
	22	65	1884.191	32.48172	-5.065448	1	32.87432	-8.863747	-2.895159E-005	0.0006929	10
	23	68	1516.544	32.88087	-6.19027	1	33.4585	-10.66191	-2.142649E-005	0.0007086	10
	24	70	1193.986	33.36364	-7.720983	1	34.24538	-13.02996	-2.903906E-005	0.0006997	10
	25	72	946.5144	33.87424	-9.54981	1	35.19464	-15.74418	-1.058885E-005	0.0006575	10
	26	75	751.7689	34.49406	-11.8081	1	36.45918	-18.89723	1.758692E-005	-0.0002197	9
	27	77	597.4265	35.14905	-14.61005	1	38.06454	-22.57069	-1.313233E-005	0.00054	9
	28	79	477.4305	35.83169	-17.98195	1	40.09065	-26.64955	2.01067E-006	7.799338E-005	9
	29	82	376.6741	36.62347	-22.39296	1	42.92695	-31.44318	2.002336E-006	7.079741E-005	9
	30	84	298.2954	37.55019	-27.78863	1	46.71429	-36.50291	1.968311E-006	7.773314E-005	9
	31	86	237.7717	38.65435	-34.27303	1	51.66043	-41.56192	1.986718E-006	7.527017E-005	9
	32	89	189.0121	40.01609	-42.36705	1	58.27739	-46.63459	1.934178E-006	8.135291E-005	9
	33	91	150.2404	41.69428	-52.36039	1	66.93298	-51.46989	1.926106E-006	6.980384E-005	9
	34	94	119.1737	43.78111	-64.81657	1	78.21748	-55.96248	1.900001E-006	7.511274E-005	9
	35	96	95.0169	46.28885	-79.82394	1	92.27415	-59.89112	1.944699E-006	7.418224E-005	9
	36	98	75.60484	49.45858	-98.4474	1	110.1728	-63.3257	1.965311E-006	6.951727E-005	9
	37	101	54.50582	55.26456	-132.6969	1	143.745	-67.38963	1.857915E-006	6.298398E-005	9
	38	103	45.95588	59.27879	-155.0756	1	166.0194	-69.08028	1.928358E-006	7.525925E-005	9
	39	106	37.20238	65.09452	-187.896	1	198.8522	-70.89191	1.974509E-006	7.985873E-005	9
	40	108	30.04808	72.31396	-227.9856	1	239.1793	-72.40167	1.990881E-006	6.734303E-005	9
	41	111	23.91582	81.72163	-280.14	1	291.8165	-73.73714	2.051934E-006	6.669673E-005	9
	42	113	18.60119	94.6194	-351.1496	1	363.6741	-74.91947	1.982532E-006	7.182161E-005	9
	43	115	15.02404	107.6156	-423.5934	1	437.0497	-75.74535	4.495558E-007	0.0006599	8
	44	117	12.01923	124.5302	-517.3741	1	532.1501	-76.46653	4.04313E-007	0.0006614	8
	45	120	9.450605	146.8712	-641.544	1	658.1412	-77.10526	3.605658E-007	0.0006433	8
	46	122	7.512019	172.684	-788.2657	1	806.9589	-77.64351	3.606379E-007	0.0006473	8
	47	125	5.978954	204.4022	-967.148	1	988.511	-78.06641	3.843181E-007	0.0006603	8
	48	128	4.734848	244.1528	-1192.75	1	1217.483	-78.43152	3.649709E-007	0.0006285	8
	49	131	3.75601	292.3152	-1469.428	1	1498.221	-78.74895	4.020115E-007	0.0006835	8
	50	135	3.004808	348.9135	-1796.19	1	1829.764	-79.00708	3.75077E-007	0.000661	8
	51	139	2.372217	426.7901	-2222.221	1	2262.833	-79.1284	3.727333E-007	0.0006029	8
	52	143	1.878005	518.0234	-2751.71	1	2800.045	-79.33855	4.111642E-007	0.0006385	8
	53	147	1.512097	619.9074	-3349.232	1	3406.118	-79.51382	3.848177E-007	0.0007337	8
	54	153	1.201923	767.7766	-4134.74	1	4205.419	-79.48061	4.120753E-007	0.0006402	8
	55	159	0.956633	945.1191	-5099.56	1	5186.401	-79.50031	2.008581E-008	-1.681281E-005	7
