EXPLAIN
TAG	EISPOT
TITLE	LABEL	Potentiostatic EIS	Test Identifier
DATE	LABEL	8/5/2020	Date
TIME	LABEL	18:54:19	Time
NOTES	NOTES	1	Notes...
	
PSTAT	PSTAT	REF3000-16137	Potentiostat
VDC	POTEN	0.00000E+000	T	DC Voltage (V)
FREQINIT	QUANT	3.00000E+005	Initial Freq. (Hz)
FREQFINAL	QUANT	1.00000E+000	Final Freq. (Hz)
PTSPERDEC	QUANT	1.00000E+001	Points/decade
VAC	QUANT	5.00000E+001	AC Voltage (mV rms)
AREA	QUANT	1.00000E+000	Sample Area (cm^2)
SPEED	SELECTOR	2	Optimize for:
ZGUESS	QUANT	1.00000E+003	Estimated Z (ohms)
EOC	QUANT	0	Open Circuit (V)
SEQUENCER	TOGGLE	TRUE	Run as Sequence
PSTATMODEL	IQUANT	5	Pstat Model
PSTATSECTION	LABEL	REF3000-16137	Pstat Section
PSTATSERIALNO	LABEL	16137	Pstat Serial Number
CTRLMODE	IQUANT	1	Control Mode
IESTAB	IQUANT	0	I/E Stability
CASPEED	IQUANT	1	Control Amp Speed
CONVENTION	IQUANT	1	Current Convention
ICHRANGE	IQUANT	2	Ich Range
ICHRANGEMODE	TOGGLE	F	Ich Auto Range
ICHOFFSETENABLE	TOGGLE	T	Ich Offset Enable
ICHOFFSET	QUANT	0	Ich Offset (V)
ICHFILTER	IQUANT	3	Ich Filter
VCHRANGE	IQUANT	2	Vch Range
VCHRANGEMODE	TOGGLE	F	Vch Auto Range
VCHOFFSETENABLE	TOGGLE	T	Vch Offset Enable
VCHOFFSET	QUANT	0	Vch Offset (V)
VCHFILTER	IQUANT	3	Vch Filter
ACHRANGE	IQUANT	2	Ach Range
ACHOFFSETENABLE	TOGGLE	F	Ach Offset Enable
ACHOFFSET	QUANT	0	Ach Offset (V)
ACHFILTER	IQUANT	3	Ach Filter
IERANGELOWERLIMIT	IQUANT	2	I/E Range Lower Limit
IERANGEMODE	TOGGLE	F	I/E AutoRange
IERANGE	IQUANT	11	I/E Range
POSFEEDENABLE	TOGGLE	F	Positive Feedback IR Comp
POSFEEDRESISTANCE	QUANT	0	Positive Feedback Resistance (ohm)
ACHSELECT	IQUANT	0	Ach Select
CABLEID	IQUANT	13	Cable ID
DCCALDATE	LABEL	7/31/2020	DC Calibration Date
ACCALDATE	LABEL	7/31/2020	AC Calibration Date
THERMOSELECT	IQUANT	1	Thermo Select
FRAMEWORKVERSION	QUANT	6.33	Framework Version
INSTRUMENTVERSION	LABEL	3.50	Instrument Version
COMPLIANCEVOLTAGE	IQUANT	0	Compliance Voltage
ZCURVE	TABLE
	Pt	Time	Freq	Zreal	Zimag	Zsig	Zmod	Zphz	Idc	Vdc	IERange
	#	s	Hz	ohm	ohm	V	ohm	°	A	V	#
	0	9	300046.9	2.409079	0.9364471	1	2.584685	21.24189	-0.0002535	0.000722	12
	1	13	238359.4	2.355223	0.741169	1	2.46909	17.46836	1.152622E-006	-0.000208	12
	2	17	189328.1	2.324444	0.5784517	1	2.395338	13.97453	-0.0002402	-0.0001565	12
	3	21	150421.9	2.303372	0.4378321	1	2.344615	10.76256	-0.0001207	7.814008E-005	12
	4	25	119484.4	2.285093	0.4246433	1	2.324214	10.5273	-3.630725E-005	0.0004182	11
	5	27	94921.88	2.284672	0.3074119	1	2.305261	7.663355	-1.506684E-005	0.0005213	11
	6	30	75421.88	2.286793	0.205885	1	2.296043	5.144594	9.939318E-006	0.0005548	11
	7	32	59859.37	2.29019	0.1159816	1	2.293125	2.899142	-5.300522E-005	0.0005686	11
	8	35	47578.12	2.29521	0.0340413	1	2.295463	0.8497166	1.674013E-006	0.0006391	11
	9	37	37828.12	2.300747	-0.0447087	1	2.301182	-1.113246	2.205487E-005	0.0006844	11
	10	40	30046.88	2.307775	-0.1242973	1	2.31112	-3.082986	-7.950591E-006	0.0006652	11
	11	42	23859.38	2.315639	-0.2089221	1	2.325045	-5.155395	2.121885E-005	0.0006848	11
	12	45	18984.38	2.325305	-0.3017791	1	2.344806	-7.394538	-2.073856E-005	0.0006644	11
	13	47	15046.87	2.337815	-0.40944	1	2.373398	-9.93391	-2.358994E-005	0.0006877	11
	14	49	11953.13	2.352412	-0.5348023	1	2.412437	-12.80805	-3.205235E-005	0.0006973	11
	15	51	9515.62	2.3699	-0.6831574	1	2.4664	-16.08038	-3.149837E-005	0.0006972	11
	16	54	7546.875	2.39159	-0.8657162	1	2.543456	-19.89942	2.575166E-005	0.000716	11
	17	56	5928.309	2.420633	-1.097873	1	2.657967	-24.39658	-3.757604E-005	0.0006808	11
	18	58	4733.456	2.454973	-1.364046	1	2.808471	-29.05768	-3.411686E-005	0.0007229	11
	19	61	3796.875	2.496806	-1.682726	1	3.010915	-33.97805	5.822854E-006	0.0006872	11
	20	63	2987.132	2.555914	-2.10757	1	3.312786	-39.5085	-1.737532E-005	0.0006818	11
	21	65	2390.625	2.625236	-2.595636	1	3.691773	-44.67516	-4.685804E-005	0.0006587	11
	22	68	1884.191	2.724026	-3.235412	1	4.229445	-49.9046	1.248481E-005	0.000637	10
	23	70	1516.544	2.834984	-3.951938	1	4.863635	-54.34565	5.404923E-006	0.0006596	10
	24	72	1193.986	2.991642	-4.918806	1	5.757133	-58.69183	-2.431028E-005	0.0006798	10
	25	75	946.5144	3.193125	-6.072233	1	6.860617	-62.26206	2.146996E-005	0.0006532	10
	26	77	751.7689	3.434194	-7.485379	1	8.235568	-65.35496	-2.16144E-005	0.0007219	10
	27	79	597.4265	3.739761	-9.20565	1	9.93629	-67.89074	-2.247106E-005	0.0006704	10
	28	82	477.4305	4.111344	-11.24915	1	11.97691	-69.92363	-1.597254E-006	0.0006722	10
	29	84	376.6741	4.599654	-13.89862	1	14.63996	-71.68839	-1.506988E-006	0.0006677	10
	30	86	298.2954	5.193501	-17.10752	1	17.87847	-73.11276	-1.607703E-006	0.0006769	10
	31	89	237.7717	5.904317	-20.92113	1	21.73833	-74.23999	-2.329574E-006	0.0006731	10
	32	91	189.0121	6.789795	-25.65489	1	26.53817	-75.17603	-2.026588E-006	0.0006755	10
	33	94	150.2404	7.879105	-31.4602	1	32.43184	-75.93967	-1.64143E-006	0.0006645	10
	34	96	119.1737	9.238358	-38.6479	1	39.73673	-76.55634	-1.592873E-006	0.0006662	10
	35	98	95.0169	10.8735	-47.20636	1	48.44247	-77.02875	1.569617E-006	6.569998E-005	9
	36	101	75.60484	12.9473	-57.83336	1	59.26492	-77.38113	1.47496E-006	6.936877E-005	9
	37	103	54.50582	16.84698	-77.28863	1	79.10343	-77.70331	1.291848E-006	7.129446E-005	9
	38	106	45.95588	19.48366	-89.92796	1	92.01441	-77.77532	1.514564E-006	7.832175E-005	9
	39	108	37.20238	23.43346	-108.3703	1	110.8749	-77.7985	1.512825E-006	7.553263E-005	9
	40	111	30.04808	28.43727	-130.7812	1	133.8372	-77.73248	1.38162E-006	7.260281E-005	9
	41	113	23.91582	35.20068	-159.7557	1	163.5878	-77.57397	1.40723E-006	6.73842E-005	9
	42	116	18.60119	44.79143	-198.9606	1	203.9402	-77.31268	1.439885E-006	6.436105E-005	9
	43	118	15.02404	55.29897	-239.4239	1	245.7271	-76.99464	1.691686E-006	6.342352E-005	9
	44	120	12.01923	69.13004	-290.4165	1	298.5309	-76.61063	1.576485E-006	6.779867E-005	9
	45	123	9.450605	87.82377	-356.4477	1	367.1076	-76.1588	1.830445E-006	7.323757E-005	9
	46	125	7.512019	110.1561	-430.7721	1	444.6335	-75.65584	2.334009E-007	0.000664	8
	47	128	5.978954	138.2063	-521.519	1	539.5212	-75.15739	2.197709E-007	0.0006487	8
	48	131	4.734848	174.5376	-633.2083	1	656.8227	-74.58966	1.442228E-007	0.0006581	8
	49	134	3.75601	219.7313	-766.3522	1	797.2311	-74.00115	1.483962E-007	0.0006566	8
	50	138	3.004808	274.4372	-919.2825	1	959.373	-73.37784	1.001814E-007	0.0006842	8
	51	141	2.372217	349.5559	-1114.381	1	1167.919	-72.58455	1.337987E-007	0.000724	8
	52	145	1.878005	443.5002	-1347.07	1	1418.2	-71.77674	4.105207E-008	0.0006387	8
	53	153	1.512097	553.1281	-1600.017	1	1692.928	-70.92966	1.221585E-007	0.0006134	8
	54	158	1.201923	710.4597	-1922.506	1	2049.582	-69.71828	7.834055E-008	0.0006349	8
	55	164	0.956633	911.2728	-2293.36	1	2467.776	-68.32946	4.471916E-008	6.156513E-006	8
