EXPLAIN
TAG	EISPOT
TITLE	LABEL	Potentiostatic EIS	Test Identifier
DATE	LABEL	8/5/2020	Date
TIME	LABEL	19:19:43	Time
NOTES	NOTES	1	Notes...
	
PSTAT	PSTAT	REF3000-16137	Potentiostat
VDC	POTEN	0.00000E+000	T	DC Voltage (V)
FREQINIT	QUANT	3.00000E+005	Initial Freq. (Hz)
FREQFINAL	QUANT	1.00000E+000	Final Freq. (Hz)
PTSPERDEC	QUANT	1.00000E+001	Points/decade
VAC	QUANT	5.00000E+001	AC Voltage (mV rms)
AREA	QUANT	1.00000E+000	Sample Area (cm^2)
SPEED	SELECTOR	2	Optimize for:
ZGUESS	QUANT	1.00000E+003	Estimated Z (ohms)
EOC	QUANT	0	Open Circuit (V)
SEQUENCER	TOGGLE	TRUE	Run as Sequence
PSTATMODEL	IQUANT	5	Pstat Model
PSTATSECTION	LABEL	REF3000-16137	Pstat Section
PSTATSERIALNO	LABEL	16137	Pstat Serial Number
CTRLMODE	IQUANT	1	Control Mode
IESTAB	IQUANT	0	I/E Stability
CASPEED	IQUANT	1	Control Amp Speed
CONVENTION	IQUANT	1	Current Convention
ICHRANGE	IQUANT	2	Ich Range
ICHRANGEMODE	TOGGLE	F	Ich Auto Range
ICHOFFSETENABLE	TOGGLE	T	Ich Offset Enable
ICHOFFSET	QUANT	0	Ich Offset (V)
ICHFILTER	IQUANT	3	Ich Filter
VCHRANGE	IQUANT	2	Vch Range
VCHRANGEMODE	TOGGLE	F	Vch Auto Range
VCHOFFSETENABLE	TOGGLE	T	Vch Offset Enable
VCHOFFSET	QUANT	0	Vch Offset (V)
VCHFILTER	IQUANT	3	Vch Filter
ACHRANGE	IQUANT	2	Ach Range
ACHOFFSETENABLE	TOGGLE	F	Ach Offset Enable
ACHOFFSET	QUANT	0	Ach Offset (V)
ACHFILTER	IQUANT	3	Ach Filter
IERANGELOWERLIMIT	IQUANT	2	I/E Range Lower Limit
IERANGEMODE	TOGGLE	F	I/E AutoRange
IERANGE	IQUANT	11	I/E Range
POSFEEDENABLE	TOGGLE	F	Positive Feedback IR Comp
POSFEEDRESISTANCE	QUANT	0	Positive Feedback Resistance (ohm)
ACHSELECT	IQUANT	0	Ach Select
CABLEID	IQUANT	13	Cable ID
DCCALDATE	LABEL	7/31/2020	DC Calibration Date
ACCALDATE	LABEL	7/31/2020	AC Calibration Date
THERMOSELECT	IQUANT	1	Thermo Select
FRAMEWORKVERSION	QUANT	6.33	Framework Version
INSTRUMENTVERSION	LABEL	3.50	Instrument Version
COMPLIANCEVOLTAGE	IQUANT	0	Compliance Voltage
ZCURVE	TABLE
	Pt	Time	Freq	Zreal	Zimag	Zsig	Zmod	Zphz	Idc	Vdc	IERange
	#	s	Hz	ohm	ohm	V	ohm	°	A	V	#
	0	7	300046.9	47.76087	1.344656	1	47.7798	1.612675	9.961616E-006	4.631395E-005	9
	1	10	238359.4	48.52104	1.005706	1	48.53146	1.187412	-5.742603E-005	0.0015659	9
	2	14	189328.1	49.10963	0.7487775	1	49.11534	0.8735245	9.113992E-006	-0.0009013	9
	3	16	150421.9	49.70515	0.4994303	1	49.70766	0.5756806	-4.028369E-005	0.0007211	9
	4	19	119484.4	50.25331	0.3742609	1	50.2547	0.4267018	2.238331E-005	0.000336	9
	5	21	94921.88	50.82972	0.4056701	1	50.83134	0.4572658	2.042004E-005	-0.0003506	9
	6	24	75421.88	51.36953	0.2521048	1	51.37015	0.2811866	7.22642E-006	-0.0004268	9
	7	26	59859.37	51.92743	0.0662111	1	51.92747	0.0730561	4.435199E-006	-0.000343	9
	8	29	47578.12	52.49786	-0.0833237	1	52.49792	-0.0909388	-1.729764E-005	0.0005162	9
	9	31	37828.12	53.1308	-0.227388	1	53.13129	-0.2452117	2.194953E-005	-0.0005035	9
	10	34	30046.88	53.71938	-0.3606547	1	53.72058	-0.3846598	-1.120938E-005	0.0001344	9
	11	36	23859.38	54.32488	-0.4974797	1	54.32716	-0.524671	1.749583E-005	-0.0001626	9
	12	39	18984.38	54.91204	-0.6485779	1	54.91587	-0.6767014	2.020023E-005	-0.0001507	9
	13	41	15046.87	55.48779	-0.8354284	1	55.49408	-0.8625844	1.659397E-005	-0.0005569	9
	14	43	11953.13	56.07734	-1.016041	1	56.08654	-1.038004	4.499869E-006	0.000392	9
	15	46	9515.62	56.70431	-1.268845	1	56.71851	-1.281866	-1.704783E-005	0.0004547	9
	16	48	7546.875	57.31268	-1.59476	1	57.33487	-1.593879	2.242294E-005	-0.0004847	9
	17	50	5928.309	58.01038	-1.963778	1	58.04361	-1.938846	5.103648E-006	-0.0003495	9
	18	53	4733.456	58.65133	-2.42565	1	58.70147	-2.368239	-1.670981E-005	0.0004617	9
	19	55	3796.875	59.31251	-2.953923	1	59.38602	-2.851129	-8.950836E-006	3.984892E-005	9
	20	57	2987.132	60.04974	-3.667313	1	60.16162	-3.494785	5.604623E-006	-0.0003709	9
	21	59	2390.625	60.78989	-4.493499	1	60.95574	-4.227531	-1.734648E-005	0.00066	9
	22	62	1884.191	61.56104	-5.574657	1	61.81293	-5.174304	-1.77195E-005	0.0006023	9
	23	64	1516.544	62.40207	-6.817364	1	62.77336	-6.234781	3.833828E-006	0.0003786	9
	24	66	1193.986	63.28075	-8.471897	1	63.84533	-7.625301	-1.551659E-005	0.0003889	9
	25	69	946.5144	64.27565	-10.48757	1	65.12563	-9.26703	2.169113E-005	-0.0002359	9
	26	71	751.7689	65.23387	-13.01336	1	66.51921	-11.28171	2.166571E-005	-0.0002586	9
	27	74	597.4265	66.30696	-16.06506	1	68.22536	-13.61936	-1.780215E-005	0.000486	9
	28	76	477.4305	67.47759	-19.77358	1	70.31515	-16.33265	2.103284E-006	7.426085E-005	9
	29	78	376.6741	68.82294	-24.62553	1	73.09592	-19.68771	2.032368E-006	6.757707E-005	9
	30	81	298.2954	70.27259	-30.56577	1	76.63226	-23.50711	2.03723E-006	7.010312E-005	9
	31	83	237.7717	71.98784	-37.71378	1	81.26855	-27.64964	2.010039E-006	7.305505E-005	9
	32	85	189.0121	73.92854	-46.64447	1	87.41359	-32.24947	1.987786E-006	7.426289E-005	9
	33	88	150.2404	76.17814	-57.6806	1	95.5519	-37.13229	2.053311E-006	7.514185E-005	9
	34	90	119.1737	78.82923	-71.45134	1	106.3924	-42.18937	2.03173E-006	7.260335E-005	9
	35	92	95.0169	81.87873	-88.06721	1	120.2496	-47.08547	1.975887E-006	7.139202E-005	9
	36	95	75.60484	85.70027	-108.7333	1	138.4467	-51.75591	2.035537E-006	7.357922E-005	9
	37	97	54.50582	92.13686	-146.8668	1	173.3755	-57.8979	1.940234E-006	7.271041E-005	9
	38	100	45.95588	96.7435	-171.8788	1	197.2349	-60.62663	1.870083E-006	8.44778E-005	9
	39	102	37.20238	103.2796	-208.6735	1	232.8332	-63.66764	1.9541E-006	8.436053E-005	9
	40	105	30.04808	111.3188	-253.7558	1	277.099	-66.31366	1.973044E-006	7.163962E-005	9
	41	107	23.91582	121.8392	-312.6428	1	335.5448	-68.70877	1.998875E-006	7.085304E-005	9
	42	110	18.60119	136.1685	-392.9652	1	415.8889	-70.88802	2.026357E-006	7.54939E-005	9
	43	112	15.02404	150.7572	-475.0027	1	498.3525	-72.39151	3.234988E-007	0.0006619	8
	44	114	12.01923	170.4178	-581.3513	1	605.8148	-73.66199	1.686028E-007	0.0007095	8
	45	117	9.450605	196.0774	-722.0295	1	748.1798	-74.80692	2.523722E-007	0.0006657	8
	46	119	7.512019	226.8016	-887.9142	1	916.4227	-75.67122	2.450163E-007	0.0006711	8
	47	122	5.978954	263.8201	-1089.67	1	1121.152	-76.39	2.764065E-007	0.0006517	8
	48	125	4.734848	309.735	-1344.73	1	1379.94	-77.02914	3.123861E-007	0.000674	8
	49	128	3.75601	366.2113	-1655.221	1	1695.249	-77.5245	2.448202E-007	0.0006426	8
	50	132	3.004808	432.1721	-2021.662	1	2067.339	-77.93346	2.449686E-007	0.0007113	8
	51	135	2.372217	521.2269	-2499.55	1	2553.317	-78.221	2.969541E-007	0.0007032	8
	52	140	1.878005	623.5665	-3093.532	1	3155.753	-78.60355	2.616347E-007	0.0006367	8
	53	144	1.512097	740.1492	-3755.818	1	3828.053	-78.85172	2.920765E-007	0.000655	8
	54	150	1.201923	897.8705	-4652.979	1	4738.817	-79.07806	1.618239E-008	0.0005968	7
	55	156	0.956633	1088.506	-5731.717	1	5834.161	-79.24705	1.066363E-008	-9.487112E-006	7
