EXPLAIN
TAG	EISPOT
TITLE	LABEL	Potentiostatic EIS	Test Identifier
DATE	LABEL	8/5/2020	Date
TIME	LABEL	19:14:09	Time
NOTES	NOTES	1	Notes...
	
PSTAT	PSTAT	REF3000-16137	Potentiostat
VDC	POTEN	0.00000E+000	T	DC Voltage (V)
FREQINIT	QUANT	3.00000E+005	Initial Freq. (Hz)
FREQFINAL	QUANT	1.00000E+000	Final Freq. (Hz)
PTSPERDEC	QUANT	1.00000E+001	Points/decade
VAC	QUANT	5.00000E+001	AC Voltage (mV rms)
AREA	QUANT	1.00000E+000	Sample Area (cm^2)
SPEED	SELECTOR	2	Optimize for:
ZGUESS	QUANT	1.00000E+003	Estimated Z (ohms)
EOC	QUANT	0	Open Circuit (V)
SEQUENCER	TOGGLE	TRUE	Run as Sequence
PSTATMODEL	IQUANT	5	Pstat Model
PSTATSECTION	LABEL	REF3000-16137	Pstat Section
PSTATSERIALNO	LABEL	16137	Pstat Serial Number
CTRLMODE	IQUANT	1	Control Mode
IESTAB	IQUANT	0	I/E Stability
CASPEED	IQUANT	1	Control Amp Speed
CONVENTION	IQUANT	1	Current Convention
ICHRANGE	IQUANT	2	Ich Range
ICHRANGEMODE	TOGGLE	F	Ich Auto Range
ICHOFFSETENABLE	TOGGLE	T	Ich Offset Enable
ICHOFFSET	QUANT	0	Ich Offset (V)
ICHFILTER	IQUANT	3	Ich Filter
VCHRANGE	IQUANT	2	Vch Range
VCHRANGEMODE	TOGGLE	F	Vch Auto Range
VCHOFFSETENABLE	TOGGLE	T	Vch Offset Enable
VCHOFFSET	QUANT	0	Vch Offset (V)
VCHFILTER	IQUANT	3	Vch Filter
ACHRANGE	IQUANT	2	Ach Range
ACHOFFSETENABLE	TOGGLE	F	Ach Offset Enable
ACHOFFSET	QUANT	0	Ach Offset (V)
ACHFILTER	IQUANT	3	Ach Filter
IERANGELOWERLIMIT	IQUANT	2	I/E Range Lower Limit
IERANGEMODE	TOGGLE	F	I/E AutoRange
IERANGE	IQUANT	11	I/E Range
POSFEEDENABLE	TOGGLE	F	Positive Feedback IR Comp
POSFEEDRESISTANCE	QUANT	0	Positive Feedback Resistance (ohm)
ACHSELECT	IQUANT	0	Ach Select
CABLEID	IQUANT	13	Cable ID
DCCALDATE	LABEL	7/31/2020	DC Calibration Date
ACCALDATE	LABEL	7/31/2020	AC Calibration Date
THERMOSELECT	IQUANT	1	Thermo Select
FRAMEWORKVERSION	QUANT	6.33	Framework Version
INSTRUMENTVERSION	LABEL	3.50	Instrument Version
COMPLIANCEVOLTAGE	IQUANT	0	Compliance Voltage
ZCURVE	TABLE
	Pt	Time	Freq	Zreal	Zimag	Zsig	Zmod	Zphz	Idc	Vdc	IERange
	#	s	Hz	ohm	ohm	V	ohm	°	A	V	#
	0	8	300046.9	16.34351	0.877309	1	16.36704	3.072651	-1.867604E-005	0.0003362	10
	1	11	238359.4	16.48954	0.624387	1	16.50136	2.168505	-0.000097	0.0003354	10
	2	15	189328.1	16.60533	0.4250762	1	16.61077	1.466382	-9.490177E-005	0.0004858	10
	3	17	150421.9	16.70899	0.2741184	1	16.71124	0.9398786	-5.617997E-006	0.0004183	10
	4	20	119484.4	16.82912	0.1280962	1	16.82961	0.436103	3.140278E-005	0.0006705	10
	5	22	94921.88	16.95095	0.018239	1	16.95096	0.0616495	-1.064513E-005	0.0006039	10
	6	25	75421.88	17.09446	-0.0971897	1	17.09473	-0.3257487	-1.214774E-005	0.000694	10
	7	27	59859.37	17.2444	-0.1994732	1	17.24555	-0.6627347	2.049649E-005	0.0005865	10
	8	30	47578.12	17.40564	-0.2949707	1	17.40814	-0.97089	6.022285E-006	0.0006244	10
	9	32	37828.12	17.55282	-0.3830015	1	17.557	-1.249992	-2.850267E-005	0.0006658	10
	10	35	30046.88	17.70187	-0.4748662	1	17.70823	-1.536635	-2.410067E-005	0.0007274	10
	11	37	23859.38	17.86405	-0.5734601	1	17.87325	-1.83864	-1.624348E-005	0.0006721	10
	12	40	18984.38	17.99543	-0.6816044	1	18.00834	-2.169128	-2.502636E-005	0.0006654	10
	13	42	15046.87	18.15828	-0.8093516	1	18.17631	-2.552101	6.496859E-006	0.0006064	10
	14	44	11953.13	18.31278	-0.966759	1	18.33829	-3.021924	2.552266E-005	0.0006722	10
	15	47	9515.62	18.44425	-1.150877	1	18.48012	-3.570491	-3.060091E-005	0.0006576	10
	16	49	7546.875	18.57355	-1.381236	1	18.62484	-4.253014	-2.51865E-005	0.0007504	10
	17	51	5928.309	18.72509	-1.690431	1	18.80124	-5.158466	2.408529E-005	0.0006497	10
	18	54	4733.456	18.85618	-2.049561	1	18.96724	-6.203377	2.078477E-005	0.0006582	10
	19	56	3796.875	19.03742	-2.480655	1	19.19836	-7.424048	-2.682698E-005	0.0007102	10
	20	58	2987.132	19.20237	-3.0721	1	19.44656	-9.089466	-2.162975E-005	0.0007018	10
	21	61	2390.625	19.37056	-3.756178	1	19.73138	-10.97412	2.6514E-005	0.0006807	10
	22	63	1884.191	19.6078	-4.66421	1	20.15491	-13.38057	-2.77659E-006	0.0006366	10
	23	65	1516.544	19.85264	-5.690726	1	20.65215	-15.99486	2.030749E-005	0.0006262	10
	24	68	1193.986	20.1327	-7.092815	1	21.34558	-19.40753	-2.520399E-005	0.0006806	10
	25	70	946.5144	20.45699	-8.799541	1	22.26927	-23.27488	2.643515E-005	0.0006513	10
	26	72	751.7689	20.84855	-10.87831	1	23.51595	-27.55454	-2.837081E-005	0.0007006	10
	27	75	597.4265	21.32081	-13.45173	1	25.20964	-32.24865	2.527196E-005	0.0006495	10
	28	77	477.4305	21.84924	-16.56154	1	27.41668	-37.16182	-9.113769E-007	0.0006708	10
	29	79	376.6741	22.56313	-20.61814	1	30.56473	-42.421	-8.369133E-007	0.0006744	10
	30	82	298.2954	23.38173	-25.57479	1	34.65221	-47.56491	-7.652994E-007	0.0006733	10
	31	84	237.7717	24.42435	-31.52306	1	39.87796	-52.23116	-1.311119E-006	0.0006709	10
	32	86	189.0121	25.66236	-38.89209	1	46.59562	-56.58178	2.121761E-006	6.614815E-005	9
	33	89	150.2404	27.22777	-48.01223	1	55.19534	-60.4424	2.03899E-006	7.153537E-005	9
	34	91	119.1737	29.19812	-59.35067	1	66.14402	-63.80469	2.00605E-006	7.13923E-005	9
	35	94	95.0169	31.5792	-72.96767	1	79.50803	-66.59784	1.98041E-006	6.548838E-005	9
	36	96	75.60484	34.56841	-89.8107	1	96.2338	-68.94814	2.001242E-006	6.697849E-005	9
	37	99	54.50582	40.07026	-120.6841	1	127.1624	-71.63248	2.008E-006	6.132406E-005	9
	38	101	45.95588	43.73916	-140.7922	1	147.4298	-72.74183	1.996087E-006	7.71499E-005	9
	39	103	37.20238	49.06202	-170.2306	1	177.1597	-73.92253	1.999018E-006	6.931194E-005	9
	40	106	30.04808	55.55422	-206.1792	1	213.5325	-74.92	1.971286E-006	8.083823E-005	9
	41	108	23.91582	63.97041	-253.0012	1	260.9632	-75.81037	2.060772E-006	6.685307E-005	9
	42	111	18.60119	75.32066	-316.7683	1	325.6	-76.62469	2.13584E-006	7.029824E-005	9
	43	113	15.02404	87.14771	-383.6048	1	393.3795	-77.20074	2.197345E-006	7.953003E-005	9
	44	115	12.01923	101.6515	-466.4987	1	477.4453	-77.70723	3.503191E-007	0.0006508	8
	45	118	9.450605	121.308	-578.6512	1	591.2299	-78.16002	4.094E-007	0.0006662	8
	46	120	7.512019	144.4731	-711.4294	1	725.9506	-78.52079	4.133813E-007	0.0006646	8
	47	123	5.978954	172.9437	-873.2212	1	890.1824	-78.79739	4.212875E-007	0.000653	8
	48	126	4.734848	208.6801	-1078.031	1	1098.043	-79.04445	4.814742E-007	0.000675	8
	49	129	3.75601	253.6253	-1328.223	1	1352.221	-79.18946	3.758971E-007	0.0006428	8
	50	133	3.004808	307.5672	-1623.408	1	1652.287	-79.27203	4.294401E-007	0.0006541	8
	51	136	2.372217	382.1246	-2007.488	1	2043.533	-79.2227	4.365123E-007	0.0006839	8
	52	141	1.878005	473.2519	-2484.179	1	2528.856	-79.21404	3.91458E-007	0.0006538	8
	53	145	1.512097	575.7986	-3019.754	1	3074.16	-79.20458	4.416632E-007	0.0005668	8
	54	151	1.201923	724.2186	-3719.709	1	3789.555	-78.98248	4.196523E-007	0.0006452	8
	55	157	0.956633	906.8041	-4573.544	1	4662.574	-78.78532	2.259248E-008	-1.560087E-005	7
