EXPLAIN
TAG	EISPOT
TITLE	LABEL	Potentiostatic EIS	Test Identifier
DATE	LABEL	8/5/2020	Date
TIME	LABEL	19:33:05	Time
NOTES	NOTES	1	Notes...
	
PSTAT	PSTAT	REF3000-16137	Potentiostat
VDC	POTEN	0.00000E+000	T	DC Voltage (V)
FREQINIT	QUANT	3.00000E+005	Initial Freq. (Hz)
FREQFINAL	QUANT	1.00000E+000	Final Freq. (Hz)
PTSPERDEC	QUANT	1.00000E+001	Points/decade
VAC	QUANT	5.00000E+001	AC Voltage (mV rms)
AREA	QUANT	1.00000E+000	Sample Area (cm^2)
SPEED	SELECTOR	2	Optimize for:
ZGUESS	QUANT	1.00000E+003	Estimated Z (ohms)
EOC	QUANT	0	Open Circuit (V)
SEQUENCER	TOGGLE	TRUE	Run as Sequence
PSTATMODEL	IQUANT	5	Pstat Model
PSTATSECTION	LABEL	REF3000-16137	Pstat Section
PSTATSERIALNO	LABEL	16137	Pstat Serial Number
CTRLMODE	IQUANT	1	Control Mode
IESTAB	IQUANT	0	I/E Stability
CASPEED	IQUANT	1	Control Amp Speed
CONVENTION	IQUANT	1	Current Convention
ICHRANGE	IQUANT	2	Ich Range
ICHRANGEMODE	TOGGLE	F	Ich Auto Range
ICHOFFSETENABLE	TOGGLE	T	Ich Offset Enable
ICHOFFSET	QUANT	0	Ich Offset (V)
ICHFILTER	IQUANT	3	Ich Filter
VCHRANGE	IQUANT	2	Vch Range
VCHRANGEMODE	TOGGLE	F	Vch Auto Range
VCHOFFSETENABLE	TOGGLE	T	Vch Offset Enable
VCHOFFSET	QUANT	0	Vch Offset (V)
VCHFILTER	IQUANT	3	Vch Filter
ACHRANGE	IQUANT	2	Ach Range
ACHOFFSETENABLE	TOGGLE	F	Ach Offset Enable
ACHOFFSET	QUANT	0	Ach Offset (V)
ACHFILTER	IQUANT	3	Ach Filter
IERANGELOWERLIMIT	IQUANT	2	I/E Range Lower Limit
IERANGEMODE	TOGGLE	F	I/E AutoRange
IERANGE	IQUANT	11	I/E Range
POSFEEDENABLE	TOGGLE	F	Positive Feedback IR Comp
POSFEEDRESISTANCE	QUANT	0	Positive Feedback Resistance (ohm)
ACHSELECT	IQUANT	0	Ach Select
CABLEID	IQUANT	13	Cable ID
DCCALDATE	LABEL	7/31/2020	DC Calibration Date
ACCALDATE	LABEL	7/31/2020	AC Calibration Date
THERMOSELECT	IQUANT	1	Thermo Select
FRAMEWORKVERSION	QUANT	6.33	Framework Version
INSTRUMENTVERSION	LABEL	3.50	Instrument Version
COMPLIANCEVOLTAGE	IQUANT	0	Compliance Voltage
ZCURVE	TABLE
	Pt	Time	Freq	Zreal	Zimag	Zsig	Zmod	Zphz	Idc	Vdc	IERange
	#	s	Hz	ohm	ohm	V	ohm	°	A	V	#
	0	21	300046.9	439.8189	-4239.321	1	4262.075	-84.0769	1.856786E-005	-0.0011123	9
	1	34	238359.4	624.0812	-5212.712	1	5249.938	-83.17287	2.577654E-005	0.0010303	9
	2	58	189328.1	803.5677	-6611.271	1	6659.927	-83.06997	-1.552057E-007	-0.0019337	9
	3	69	150421.9	1132.497	-8159.817	1	8238.032	-82.09843	2.747973E-005	-0.0014801	9
	4	78	119484.4	1799.122	-9969.04	1	10130.08	-79.76989	4.077673E-005	-0.0181815	8
	5	85	94921.88	2274.127	-12554.05	1	12758.37	-79.73239	-1.183697E-005	0.010363	8
	6	94	75421.88	2699.384	-15559.76	1	15792.17	-80.158	-1.206007E-005	0.0104411	8
	7	103	59859.37	3304.603	-19614.19	1	19890.62	-80.43661	-1.724144E-006	-0.0050701	8
	8	110	47578.12	7699.434	-25153.44	1	26305.45	-72.98072	-7.265698E-006	0.0239602	7
	9	117	37828.12	9151.839	-30740.39	1	32073.79	-73.42101	1.238398E-006	-0.0200475	7
	10	124	30046.88	10824.03	-38075.14	1	39583.79	-74.13056	5.390474E-007	0.0159396	7
	11	132	23859.38	13558.85	-47059.91	1	48974.26	-73.92731	5.313179E-006	-0.0269019	7
	12	137	18984.38	17697.36	-57906.76	1	60550.72	-73.0059	6.93094E-006	-0.0271807	7
	13	142	15046.87	22841.26	-72973.95	1	76465.16	-72.61958	6.663659E-006	-0.0104299	7
	14	148	11953.13	29234.25	-90088.68	1	94713.31	-72.02148	7.671596E-006	-0.0187088	7
	15	154	9515.62	30868.43	-108384.4	1	112694.4	-74.10278	-2.714689E-005	0.0078885	8
	16	162	7546.875	41539.38	-127865.5	1	134443.7	-72.0027	2.643689E-005	-0.0091479	8
	17	169	5928.309	61074.02	-124572.6	1	138738.5	-63.88274	2.667579E-005	-0.0092344	8
	18	178	4733.456	124149.6	-250686.5	1	279744.2	-63.65362	-1.642756E-005	0.0006996	8
	19	185	3796.875	115294.9	-276919.3	1	299962	-67.39568	-3.639151E-006	-0.0043028	7
	20	193	2987.132	93908.17	-306548.1	1	320609.5	-72.96804	-6.838002E-006	0.0124413	7
	21	199	2390.625	172691.2	-417318.5	1	451638.1	-67.51967	6.90515E-006	-0.027535	7
	22	207	1884.191	273771.6	-436500	1	515250.6	-57.90418	-7.444409E-006	0.019401	7
	23	213	1516.544	366960.3	-814643.6	1	893478.6	-65.75058	-1.217946E-006	-0.0130596	7
	24	220	1193.986	467555	-682704.2	1	827461.6	-55.59442	7.294025E-007	-0.0274902	6
	25	226	946.5144	168988.9	-157892.4	1	231273.1	-43.05574	-1.212442E-005	0.0104787	8
	26	233	751.7689	685858.5	-29837.95	1	686507.3	-2.491055	2.817735E-005	-0.0077248	8
	27	240	597.4265	-55670.68	-337683.7	1	342241.8	-99.3616	-1.694961E-005	0.000812	8
	28	247	477.4305	1081203	-1386508	1	1758239	-52.0528	-9.965358E-008	0.0006824	7
	29	253	376.6741	1630130	-1434724	1	2171580	-41.35192	-1.083917E-009	0.0006146	5
	30	256	298.2954	1946578	-1544494	1	2484880	-38.42992	-1.032944E-009	0.000612	5
	31	259	237.7717	2124788	-1809216	1	2790696	-40.41376	-1.021826E-008	0.0007128	6
	32	263	189.0121	2734668	-1807156	1	3277838	-33.458	-1.149174E-009	0.000743	5
	33	267	150.2404	3230359	-1929738	1	3762859	-30.85308	-1.043027E-009	0.0006519	5
	34	269	119.1737	3220156	-1858162	1	3717818	-29.98672	-1.012888E-009	0.0006278	5
	35	272	95.0169	4139192	-1858641	1	4537341	-24.18174	-1.057381E-009	0.000655	5
	36	275	75.60484	4620140	-1885810	1	4990187	-22.20389	-1.039767E-009	0.0006057	5
	37	278	54.50582	5269863	-1719617	1	5543333	-18.0721	-1.032952E-009	0.0006487	5
	38	281	45.95588	6328077	-1072629	1	6418340	-9.62037	-1.226076E-010	0.0007094	4
	39	283	37.20238	6630655	-1025204	1	6709443	-8.789238	-1.28172E-010	0.0006312	4
	40	286	30.04808	7104193	-983900	1	7172002	-7.885062	-1.284437E-010	0.0006438	4
	41	289	23.91582	7642604	-979815	1	7705156	-7.305714	-1.380935E-010	0.0006602	4
	42	292	18.60119	8025618	-732952.3	1	8059017	-5.218153	-2.20424E-010	0.0006171	4
	43	294	15.02404	8628708	-872777.4	1	8672736	-5.775715	-1.191909E-010	0.000618	4
	44	297	12.01923	9180770	-831569.8	1	9218354	-5.175577	-1.288331E-010	0.0006622	4
	45	299	9.450605	9.836331E+006	-793325.7	1	9.868271E+006	-4.611073	-1.194097E-010	0.0006202	4
	46	302	7.512019	1.058578E+007	-786513.9	1	1.061496E+007	-4.249216	-1.238348E-010	0.0006205	4
	47	305	5.978954	1.159966E+007	-778068.4	1	1.162573E+007	-3.83747	-1.294879E-010	0.0007162	4
	48	309	4.734848	1.293696E+007	-827943.1	1	1.296343E+007	-3.661837	-1.184805E-010	0.0006064	4
	49	314	3.75601	1.471345E+007	-897058.8	1	1.474077E+007	-3.488926	-1.232145E-010	0.0006914	4
	50	320	3.004808	1.703226E+007	-1008933	1	1.706212E+007	-3.390047	-1.170532E-010	0.0006975	4
	51	326	2.372217	1.944152E+007	-1077046	1	1.947133E+007	-3.170902	-1.117722E-010	0.0007325	4
	52	330	1.878005	2.178593E+007	-1136624	1	2.181556E+007	-2.98655	-1.128297E-010	0.0006396	4
	53	335	1.512097	2.482956E+007	-1270033	1	2.486202E+007	-2.928129	-1.095811E-010	0.000662	4
	54	340	1.201923	2.882312E+007	-1385799	1	2.885642E+007	-2.752628	-1.090709E-010	0.0006449	4
	55	347	0.956633	3.403234E+007	-1662814	1	3.407294E+007	-2.797236	-1.229042E-010	2.254155E-005	4
