EXPLAIN
TAG	EISPOT
TITLE	LABEL	Potentiostatic EIS	Test Identifier
DATE	LABEL	8/5/2020	Date
TIME	LABEL	19:00:09	Time
NOTES	NOTES	1	Notes...
	
PSTAT	PSTAT	REF3000-16137	Potentiostat
VDC	POTEN	0.00000E+000	T	DC Voltage (V)
FREQINIT	QUANT	3.00000E+005	Initial Freq. (Hz)
FREQFINAL	QUANT	1.00000E+000	Final Freq. (Hz)
PTSPERDEC	QUANT	1.00000E+001	Points/decade
VAC	QUANT	5.00000E+001	AC Voltage (mV rms)
AREA	QUANT	1.00000E+000	Sample Area (cm^2)
SPEED	SELECTOR	2	Optimize for:
ZGUESS	QUANT	1.00000E+003	Estimated Z (ohms)
EOC	QUANT	0	Open Circuit (V)
SEQUENCER	TOGGLE	TRUE	Run as Sequence
PSTATMODEL	IQUANT	5	Pstat Model
PSTATSECTION	LABEL	REF3000-16137	Pstat Section
PSTATSERIALNO	LABEL	16137	Pstat Serial Number
CTRLMODE	IQUANT	1	Control Mode
IESTAB	IQUANT	0	I/E Stability
CASPEED	IQUANT	1	Control Amp Speed
CONVENTION	IQUANT	1	Current Convention
ICHRANGE	IQUANT	2	Ich Range
ICHRANGEMODE	TOGGLE	F	Ich Auto Range
ICHOFFSETENABLE	TOGGLE	T	Ich Offset Enable
ICHOFFSET	QUANT	0	Ich Offset (V)
ICHFILTER	IQUANT	3	Ich Filter
VCHRANGE	IQUANT	2	Vch Range
VCHRANGEMODE	TOGGLE	F	Vch Auto Range
VCHOFFSETENABLE	TOGGLE	T	Vch Offset Enable
VCHOFFSET	QUANT	0	Vch Offset (V)
VCHFILTER	IQUANT	3	Vch Filter
ACHRANGE	IQUANT	2	Ach Range
ACHOFFSETENABLE	TOGGLE	F	Ach Offset Enable
ACHOFFSET	QUANT	0	Ach Offset (V)
ACHFILTER	IQUANT	3	Ach Filter
IERANGELOWERLIMIT	IQUANT	2	I/E Range Lower Limit
IERANGEMODE	TOGGLE	F	I/E AutoRange
IERANGE	IQUANT	11	I/E Range
POSFEEDENABLE	TOGGLE	F	Positive Feedback IR Comp
POSFEEDRESISTANCE	QUANT	0	Positive Feedback Resistance (ohm)
ACHSELECT	IQUANT	0	Ach Select
CABLEID	IQUANT	13	Cable ID
DCCALDATE	LABEL	7/31/2020	DC Calibration Date
ACCALDATE	LABEL	7/31/2020	AC Calibration Date
THERMOSELECT	IQUANT	1	Thermo Select
FRAMEWORKVERSION	QUANT	6.33	Framework Version
INSTRUMENTVERSION	LABEL	3.50	Instrument Version
COMPLIANCEVOLTAGE	IQUANT	0	Compliance Voltage
ZCURVE	TABLE
	Pt	Time	Freq	Zreal	Zimag	Zsig	Zmod	Zphz	Idc	Vdc	IERange
	#	s	Hz	ohm	ohm	V	ohm	°	A	V	#
	0	9	300046.9	2.780199	0.8875808	1	2.918442	17.70573	-2.962089E-005	0.0009929	12
	1	13	238359.4	2.684241	0.9347103	1	2.842329	19.19921	-0.0001184	-0.0001509	11
	2	16	189328.1	2.708867	0.5444003	1	2.76303	11.36335	-0.0001884	-0.0001458	12
	3	20	150421.9	2.682667	0.5548275	1	2.73944	11.68513	2.918883E-005	0.0004357	11
	4	22	119484.4	2.691972	0.299587	1	2.708591	6.350262	3.651728E-005	0.0005051	12
	5	26	94921.88	2.68663	0.2981039	1	2.703118	6.331544	-1.760526E-005	0.0005547	11
	6	28	75421.88	2.69271	0.1956342	1	2.699807	4.155424	-2.936886E-005	0.000556	11
	7	31	59859.37	2.700556	0.1044387	1	2.702574	2.214698	2.244291E-005	0.0006313	11
	8	33	47578.12	2.710234	0.0214014	1	2.710319	0.4524285	-2.28117E-005	0.0006494	11
	9	36	37828.12	2.719954	-0.0594198	1	2.720603	-1.251479	-5.025744E-005	0.0006224	11
	10	39	30046.88	2.731493	-0.1418559	1	2.735174	-2.972897	2.108914E-005	0.0006999	11
	11	41	23859.38	2.743502	-0.2297521	1	2.753105	-4.787014	1.524864E-005	0.0006845	11
	12	43	18984.38	2.757478	-0.3266041	1	2.776753	-6.754816	2.854986E-005	0.0007123	11
	13	46	15046.87	2.773599	-0.4399555	1	2.808276	-9.013311	2.631178E-005	0.0007157	11
	14	48	11953.13	2.792567	-0.5725949	1	2.850666	-11.58746	1.169111E-005	0.0006951	11
	15	50	9515.62	2.815053	-0.7290515	1	2.907927	-14.51963	-2.746353E-005	0.0006997	11
	16	53	7546.875	2.841113	-0.9220271	1	2.986981	-17.97982	2.398854E-005	0.0007115	11
	17	55	5928.309	2.875365	-1.169342	1	3.104044	-22.13039	2.594963E-006	0.0006913	11
	18	57	4733.456	2.91408	-1.453154	1	3.256305	-26.50389	2.214729E-005	0.0007106	11
	19	60	3796.875	2.961924	-1.791453	1	3.461545	-31.16671	-1.296002E-005	0.0007	11
	20	62	2987.132	3.02491	-2.247778	1	3.768632	-36.61563	-3.970789E-005	0.000681	11
	21	64	2390.625	3.101994	-2.771543	1	4.159786	-41.77988	-9.171152E-006	0.0006933	10
	22	66	1884.191	3.20327	-3.459074	1	4.71446	-47.19883	-9.929743E-006	0.0006593	10
	23	69	1516.544	3.320054	-4.229941	1	5.377282	-51.87186	-2.441843E-005	0.0006793	10
	24	71	1193.986	3.482745	-5.273887	1	6.320078	-56.56021	-1.994043E-005	0.0006807	10
	25	74	946.5144	3.684933	-6.52534	1	7.493917	-60.54609	-2.553009E-005	0.0006665	10
	26	76	751.7689	3.943305	-8.053699	1	8.967258	-63.91241	1.582699E-005	0.0006543	10
	27	78	597.4265	4.263214	-9.91948	1	10.79681	-66.74284	-4.60231E-006	0.0006714	10
	28	81	477.4305	4.661097	-12.14684	1	13.01044	-69.00674	-7.362106E-007	0.0006698	10
	29	83	376.6741	5.180789	-15.03185	1	15.8996	-70.98328	-9.263272E-007	0.0006678	10
	30	85	298.2954	5.816865	-18.52561	1	19.41737	-72.56821	-5.826482E-007	0.0006714	10
	31	88	237.7717	6.579306	-22.68538	1	23.6202	-73.82657	-1.285563E-006	0.0006733	10
	32	90	189.0121	7.527215	-27.84437	1	28.84385	-74.87271	-1.721955E-006	0.0006762	10
	33	92	150.2404	8.688242	-34.16159	1	35.24911	-75.73062	-1.585518E-006	0.0006711	10
	34	95	119.1737	10.118	-41.94424	1	43.14735	-76.43792	1.845906E-006	7.67434E-005	9
	35	97	95.0169	11.85303	-51.32271	1	52.67367	-76.9955	1.682105E-006	7.183826E-005	9
	36	100	75.60484	14.01579	-62.91636	1	64.4586	-77.44136	1.69291E-006	7.09231E-005	9
	37	102	54.50582	18.05671	-84.21065	1	86.12478	-77.89771	1.595727E-006	6.607975E-005	9
	38	105	45.95588	20.73825	-98.0553	1	100.2244	-78.05819	1.536908E-006	0.0001217	9
	39	107	37.20238	24.77367	-118.355	1	120.92	-78.17773	1.798936E-006	7.326717E-005	9
	40	109	30.04808	29.83271	-143.1531	1	146.2285	-78.2282	1.75724E-006	6.525293E-005	9
	41	112	23.91582	36.74736	-175.4475	1	179.2545	-78.17044	1.744858E-006	7.200929E-005	9
	42	114	18.60119	46.39	-218.8666	1	223.7289	-78.03295	1.803917E-006	6.522028E-005	9
	43	116	15.02404	56.94404	-264.0944	1	270.1638	-77.83217	2.005594E-006	8.880066E-005	9
	44	119	12.01923	70.94072	-321.0384	1	328.783	-77.53944	1.68701E-006	6.546784E-005	9
	45	121	9.450605	90.26893	-395.5687	1	405.7377	-77.1452	2.019423E-006	7.684116E-005	9
	46	124	7.512019	113.037	-480.0042	1	493.1342	-76.74876	3.709037E-007	0.0006555	8
	47	127	5.978954	141.7501	-583.0813	1	600.0641	-76.33616	3.415158E-007	0.0006471	8
	48	130	4.734848	179.4223	-710.41	1	732.7174	-75.8257	3.305752E-007	0.0006713	8
	49	133	3.75601	225.4277	-863.4852	1	892.4261	-75.36852	3.151734E-007	0.0006484	8
	50	136	3.004808	280.3516	-1039.912	1	1077.04	-74.91224	2.388096E-007	0.0006864	8
	51	140	2.372217	352.165	-1264.372	1	1312.5	-74.43591	2.371549E-007	0.0006731	8
	52	144	1.878005	444.5135	-1535.372	1	1598.424	-73.85347	2.84689E-007	0.0006266	8
	53	149	1.512097	549.2617	-1836.131	1	1916.524	-73.34593	2.759213E-007	0.0007499	8
	54	154	1.201923	687.5994	-2219.802	1	2323.857	-72.78926	3.006495E-007	0.0006259	8
	55	161	0.956633	859.7872	-2677.932	1	2812.571	-72.20005	2.226502E-007	7.613052E-006	8
