EXPLAIN
TAG	EISPOT
TITLE	LABEL	Potentiostatic EIS	Test Identifier
DATE	LABEL	11/20/2021	Date
TIME	LABEL	12:48:16	Time
NOTES	NOTES	1	Notes...
	
PSTAT	PSTAT	REF3000-16137	Potentiostat
VDC	POTEN	0.00000E+000	T	DC Voltage (V)
FREQINIT	QUANT	3.00000E+005	Initial Freq. (Hz)
FREQFINAL	QUANT	1.00000E+000	Final Freq. (Hz)
PTSPERDEC	QUANT	1.00000E+001	Points/decade
VAC	QUANT	5.00000E+001	AC Voltage (mV rms)
AREA	QUANT	1.00000E+000	Sample Area (cm^2)
SPEED	SELECTOR	2	Optimize for:
ZGUESS	QUANT	1.00000E+003	Estimated Z (ohms)
EOC	QUANT	0	Open Circuit (V)
SEQUENCER	TOGGLE	TRUE	Run as Sequence
PSTATMODEL	IQUANT	5	Pstat Model
PSTATSECTION	LABEL	REF3000-16137	Pstat Section
PSTATSERIALNO	LABEL	16137	Pstat Serial Number
CTRLMODE	IQUANT	1	Control Mode
IESTAB	IQUANT	0	I/E Stability
CASPEED	IQUANT	1	Control Amp Speed
CONVENTION	IQUANT	1	Current Convention
ICHRANGE	IQUANT	2	Ich Range
ICHRANGEMODE	TOGGLE	F	Ich Auto Range
ICHOFFSETENABLE	TOGGLE	T	Ich Offset Enable
ICHOFFSET	QUANT	0	Ich Offset (V)
ICHFILTER	IQUANT	3	Ich Filter
VCHRANGE	IQUANT	2	Vch Range
VCHRANGEMODE	TOGGLE	F	Vch Auto Range
VCHOFFSETENABLE	TOGGLE	T	Vch Offset Enable
VCHOFFSET	QUANT	0	Vch Offset (V)
VCHFILTER	IQUANT	3	Vch Filter
ACHRANGE	IQUANT	2	Ach Range
ACHOFFSETENABLE	TOGGLE	F	Ach Offset Enable
ACHOFFSET	QUANT	0	Ach Offset (V)
ACHFILTER	IQUANT	3	Ach Filter
IERANGELOWERLIMIT	IQUANT	2	I/E Range Lower Limit
IERANGEMODE	TOGGLE	F	I/E AutoRange
IERANGE	IQUANT	11	I/E Range
POSFEEDENABLE	TOGGLE	F	Positive Feedback IR Comp
POSFEEDRESISTANCE	QUANT	0	Positive Feedback Resistance (ohm)
ACHSELECT	IQUANT	0	Ach Select
CABLEID	IQUANT	13	Cable ID
DCCALDATE	LABEL	9/10/2021	DC Calibration Date
ACCALDATE	LABEL	9/10/2021	AC Calibration Date
THERMOSELECT	IQUANT	1	Thermo Select
FRAMEWORKVERSION	QUANT	6.33	Framework Version
INSTRUMENTVERSION	LABEL	3.50	Instrument Version
COMPLIANCEVOLTAGE	IQUANT	0	Compliance Voltage
ZCURVE	TABLE
	Pt	Time	Freq	Zreal	Zimag	Zsig	Zmod	Zphz	Idc	Vdc	IERange
	#	s	Hz	ohm	ohm	V	ohm	°	A	V	#
	0	10	300046.9	2.160532	2.263672	1	3.129235	46.33547	-6.973528E-005	-0.0006316	11
	1	13	238359.4	2.12032	1.753057	1	2.751175	39.58355	-1.02481E-005	-0.0005133	11
	2	17	189328.1	2.184266	1.203327	1	2.493795	28.85067	-4.610707E-005	-0.0008059	12
	3	20	150421.9	2.156963	0.9094331	1	2.340846	22.86158	-3.287869E-005	-0.0004589	12
	4	24	119484.4	2.118704	0.7502971	1	2.247633	19.50059	-8.44504E-006	0.0001333	11
	5	26	94921.88	2.138327	0.5270308	1	2.202318	13.84566	-7.505645E-005	0.0001081	11
	6	29	75421.88	2.166726	0.3442283	1	2.193899	9.027151	-2.026789E-005	0.0001829	11
	7	31	59859.37	2.200957	0.1936347	1	2.209458	5.027794	-2.854455E-005	0.000276	11
	8	34	47578.12	2.236544	0.0690261	1	2.237609	1.767748	-5.931153E-005	0.0002798	11
	9	36	37828.12	2.273765	-0.0372546	1	2.27407	-0.9386817	-5.831935E-005	0.0003274	11
	10	39	30046.88	2.308708	-0.1318977	1	2.312473	-3.269783	-4.554315E-005	0.0003122	11
	11	42	23859.38	2.343961	-0.2198266	1	2.354246	-5.35777	-4.283237E-005	0.0003557	11
	12	44	18984.38	2.375254	-0.3070717	1	2.395021	-7.366314	-2.186534E-005	0.0003797	11
	13	46	15046.87	2.406293	-0.4019045	1	2.439625	-9.482145	-6.383902E-005	0.0003681	11
	14	48	11953.13	2.43454	-0.5077866	1	2.486933	-11.78161	-4.514434E-005	0.0003745	11
	15	51	9515.62	2.462199	-0.6319029	1	2.541992	-14.39384	-3.913483E-005	0.0003697	11
	16	53	7546.875	2.491965	-0.7829306	1	2.612062	-17.44178	3.846692E-007	0.0003974	11
	17	55	5928.309	2.525654	-0.975239	1	2.707401	-21.11322	-5.920505E-005	0.000356	11
	18	58	4733.456	2.560906	-1.19682	1	2.826768	-25.04868	-2.683875E-006	0.0004029	11
	19	60	3796.875	2.603102	-1.462414	1	2.985765	-29.32713	-4.776621E-005	0.0003833	11
	20	62	2987.132	2.657818	-1.82129	1	3.221971	-34.42119	-7.161736E-005	0.0003472	11
	21	65	2390.625	2.72138	-2.233601	1	3.520637	-39.3778	-2.827497E-005	0.0003862	11
	22	67	1884.191	2.813472	-2.777253	1	3.953323	-44.62882	-9.928519E-006	-0.0001752	10
	23	69	1516.544	2.916869	-3.385745	1	4.468936	-49.25462	2.294468E-005	-0.0001432	10
	24	71	1193.986	3.065557	-4.210329	1	5.208119	-53.94149	2.04796E-005	-0.0001364	10
	25	74	946.5144	3.259548	-5.196666	1	6.134329	-57.90249	-1.255762E-005	-0.0001195	10
	26	76	751.7689	3.509525	-6.396766	1	7.296257	-61.24905	2.892307E-005	-0.0001267	10
	27	79	597.4265	3.843742	-7.858977	1	8.748592	-63.93724	2.570958E-005	-0.0001327	10
	28	81	477.4305	4.270639	-9.58884	1	10.49687	-65.99295	3.437115E-006	-0.0001193	10
	29	83	376.6741	4.859881	-11.79286	1	12.755	-67.60326	3.274852E-006	-0.0001225	10
	30	86	298.2954	5.615083	-14.41656	1	15.47147	-68.71967	3.412853E-006	-0.0001164	10
	31	88	237.7717	6.55558	-17.47297	1	18.66227	-69.43471	3.905733E-006	-0.000122	10
	32	90	189.0121	7.760878	-21.16269	1	22.54086	-69.86077	3.076282E-006	-0.0001152	10
	33	93	150.2404	9.273632	-25.55423	1	27.1849	-70.05416	2.786571E-006	-0.0001132	10
	34	95	119.1737	11.1718	-30.83145	1	32.79309	-70.08198	2.506761E-006	-0.0001202	10
	35	98	95.0169	13.44684	-36.93829	1	39.30973	-69.99671	3.213701E-006	-0.0001608	10
	36	100	75.60484	16.21317	-44.19086	1	47.07121	-69.85244	3.349639E-006	-0.000142	9
	37	103	54.50582	21.22097	-57.09667	1	60.91272	-69.61154	3.131726E-006	-0.0001408	9
	38	105	45.95588	24.4487	-65.28327	1	69.71115	-69.46899	3.584301E-006	-0.000137	9
	39	107	37.20238	29.19304	-77.07752	1	82.42074	-69.25587	3.313831E-006	-0.0001369	9
	40	110	30.04808	35.05861	-91.17105	1	97.6794	-68.96642	3.214387E-006	-0.0001395	9
	41	112	23.91582	43.06395	-109.1463	1	117.3346	-68.46816	3.173453E-006	-0.0001325	9
	42	115	18.60119	54.7233	-132.8143	1	143.6463	-67.60693	2.550689E-006	-0.0001355	9
	43	117	15.02404	67.75066	-156.3746	1	170.4205	-66.5749	2.382473E-006	-0.0001374	9
	44	119	12.01923	85.51009	-184.3942	1	203.2565	-65.12118	2.863947E-006	-0.0001355	9
	45	122	9.450605	110.5387	-218.347	1	244.7329	-63.14906	3.250048E-006	-0.0001353	9
	46	124	7.512019	141.3433	-253.8808	1	290.5742	-60.89396	2.637049E-006	-0.0001149	9
	47	127	5.978954	179.5383	-290.5622	1	341.5558	-58.28809	2.337189E-006	-0.0001333	9
	48	130	4.734848	227.6312	-328.5166	1	399.6737	-55.28167	2.533905E-006	-0.0001531	9
	49	133	3.75601	282.8	-363.0684	1	460.2113	-52.08439	3.121982E-006	-0.0001108	8
	50	136	3.004808	344.2157	-394.2321	1	523.3578	-48.87483	3.357596E-006	-0.0001443	8
	51	140	2.372217	417.013	-421.3777	1	592.8398	-45.29828	3.053008E-006	-0.0001974	8
	52	144	1.878005	493.1517	-442.0702	1	662.2875	-41.87363	3.555878E-006	-0.0001207	8
	53	149	1.512097	565.0875	-455.7961	1	725.9986	-38.88943	3.540848E-006	-0.000122	8
	54	154	1.201923	643.8465	-464.2245	1	793.7523	-35.79226	3.536074E-006	-0.0001094	8
	55	161	0.956633	721.1202	-468.1561	1	859.7584	-32.99191	2.505806E-006	-0.000674	8
