EXPLAIN
TAG	EISPOT
TITLE	LABEL	Potentiostatic EIS	Test Identifier
DATE	LABEL	11/20/2021	Date
TIME	LABEL	13:44:35	Time
NOTES	NOTES	1	Notes...
	
PSTAT	PSTAT	REF3000-16137	Potentiostat
VDC	POTEN	0.00000E+000	T	DC Voltage (V)
FREQINIT	QUANT	3.00000E+005	Initial Freq. (Hz)
FREQFINAL	QUANT	1.00000E+000	Final Freq. (Hz)
PTSPERDEC	QUANT	1.00000E+001	Points/decade
VAC	QUANT	5.00000E+001	AC Voltage (mV rms)
AREA	QUANT	1.00000E+000	Sample Area (cm^2)
SPEED	SELECTOR	2	Optimize for:
ZGUESS	QUANT	1.00000E+003	Estimated Z (ohms)
EOC	QUANT	0	Open Circuit (V)
SEQUENCER	TOGGLE	TRUE	Run as Sequence
PSTATMODEL	IQUANT	5	Pstat Model
PSTATSECTION	LABEL	REF3000-16137	Pstat Section
PSTATSERIALNO	LABEL	16137	Pstat Serial Number
CTRLMODE	IQUANT	1	Control Mode
IESTAB	IQUANT	0	I/E Stability
CASPEED	IQUANT	1	Control Amp Speed
CONVENTION	IQUANT	1	Current Convention
ICHRANGE	IQUANT	2	Ich Range
ICHRANGEMODE	TOGGLE	F	Ich Auto Range
ICHOFFSETENABLE	TOGGLE	T	Ich Offset Enable
ICHOFFSET	QUANT	0	Ich Offset (V)
ICHFILTER	IQUANT	3	Ich Filter
VCHRANGE	IQUANT	2	Vch Range
VCHRANGEMODE	TOGGLE	F	Vch Auto Range
VCHOFFSETENABLE	TOGGLE	T	Vch Offset Enable
VCHOFFSET	QUANT	0	Vch Offset (V)
VCHFILTER	IQUANT	3	Vch Filter
ACHRANGE	IQUANT	2	Ach Range
ACHOFFSETENABLE	TOGGLE	F	Ach Offset Enable
ACHOFFSET	QUANT	0	Ach Offset (V)
ACHFILTER	IQUANT	3	Ach Filter
IERANGELOWERLIMIT	IQUANT	2	I/E Range Lower Limit
IERANGEMODE	TOGGLE	F	I/E AutoRange
IERANGE	IQUANT	11	I/E Range
POSFEEDENABLE	TOGGLE	F	Positive Feedback IR Comp
POSFEEDRESISTANCE	QUANT	0	Positive Feedback Resistance (ohm)
ACHSELECT	IQUANT	0	Ach Select
CABLEID	IQUANT	13	Cable ID
DCCALDATE	LABEL	9/10/2021	DC Calibration Date
ACCALDATE	LABEL	9/10/2021	AC Calibration Date
THERMOSELECT	IQUANT	1	Thermo Select
FRAMEWORKVERSION	QUANT	6.33	Framework Version
INSTRUMENTVERSION	LABEL	3.50	Instrument Version
COMPLIANCEVOLTAGE	IQUANT	0	Compliance Voltage
ZCURVE	TABLE
	Pt	Time	Freq	Zreal	Zimag	Zsig	Zmod	Zphz	Idc	Vdc	IERange
	#	s	Hz	ohm	ohm	V	ohm	°	A	V	#
	0	8	300046.9	11.40504	2.194247	1	11.6142	10.89022	2.725949E-005	-0.0006531	10
	1	11	238359.4	11.375	1.738168	1	11.50703	8.687937	-8.569883E-005	-0.0006386	10
	2	14	189328.1	11.37787	1.367996	1	11.45981	6.855937	1.552425E-005	-0.000472	10
	3	17	150421.9	11.37412	1.054018	1	11.42285	5.294369	2.78425E-005	-0.0002442	10
	4	19	119484.4	11.4122	0.8141628	1	11.4412	4.08065	-5.238226E-005	-7.615785E-005	10
	5	22	94921.88	11.4362	0.6127185	1	11.4526	3.06681	2.669895E-005	-0.0001771	10
	6	24	75421.88	11.46519	0.432242	1	11.47333	2.15905	6.434968E-006	-0.0002009	10
	7	27	59859.37	11.49992	0.2761607	1	11.50323	1.375645	-9.679708E-006	-0.0001208	10
	8	30	47578.12	11.5363	0.1408945	1	11.53716	0.6997266	2.345587E-005	-0.0001664	10
	9	32	37828.12	11.57784	0.018849	1	11.57786	0.0932789	1.174667E-005	-0.0001156	10
	10	35	30046.88	11.61717	-0.1013996	1	11.61762	-0.5000891	-1.621043E-005	-0.0001606	10
	11	37	23859.38	11.65933	-0.2229936	1	11.66147	-1.095692	-2.939846E-005	-0.000157	10
	12	39	18984.38	11.70337	-0.3519422	1	11.70866	-1.722472	2.658919E-005	-0.0001059	10
	13	42	15046.87	11.74966	-0.4979399	1	11.76021	-2.426691	-1.772519E-005	-0.0001921	10
	14	44	11953.13	11.79899	-0.6615478	1	11.81752	-3.20911	-1.751192E-005	-0.0001947	10
	15	46	9515.62	11.85243	-0.8513936	1	11.88297	-4.108662	-2.231386E-005	-0.0001001	10
	16	49	7546.875	11.91012	-1.082291	1	11.95919	-5.192297	2.405501E-005	-0.0001453	10
	17	51	5928.309	11.97768	-1.37671	1	12.05654	-6.556779	-2.615651E-005	-0.0001174	10
	18	53	4733.456	12.0474	-1.711997	1	12.16844	-8.08787	-2.337706E-005	-0.000123	10
	19	56	3796.875	12.12474	-2.112791	1	12.30745	-9.88479	-2.772048E-005	-0.0001427	10
	20	58	2987.132	12.21934	-2.645756	1	12.50249	-12.21721	-2.373874E-005	-0.000124	10
	21	60	2390.625	12.321	-3.257528	1	12.74435	-14.80948	2.309494E-005	-0.0001398	10
	22	63	1884.191	12.44703	-4.07506	1	13.09713	-18.12804	2.517524E-005	-0.0001255	10
	23	65	1516.544	12.58817	-4.984195	1	13.53899	-21.60073	-1.60347E-005	-0.0001374	10
	24	67	1193.986	12.76691	-6.226752	1	14.20445	-25.99969	2.003181E-005	-0.0001396	10
	25	70	946.5144	12.97701	-7.733834	1	15.10679	-30.79342	-1.168505E-005	-0.0001384	10
	26	72	751.7689	13.23407	-9.57017	1	16.33183	-35.87244	-2.460044E-005	-0.0001117	10
	27	74	597.4265	13.54884	-11.833	1	17.98864	-41.13263	2.321052E-005	-0.0001278	10
	28	77	477.4305	13.93684	-14.57763	1	20.16786	-46.28735	-4.201829E-007	-0.0001125	10
	29	79	376.6741	14.43263	-18.15073	1	23.18943	-51.50987	2.889734E-007	-0.0001238	10
	30	81	298.2954	15.04771	-22.52482	1	27.08876	-56.25509	-4.193161E-007	-0.0001154	10
	31	84	237.7717	15.81057	-27.78631	1	31.96956	-60.35987	-3.039395E-007	-0.0001149	10
	32	86	189.0121	16.79101	-34.35546	1	38.2392	-63.95322	-9.62487E-007	-0.0001187	10
	33	89	150.2404	18.03343	-42.41489	1	46.08934	-66.96638	6.091434E-007	-0.0001347	9
	34	91	119.1737	19.68843	-52.50905	1	56.07883	-69.44631	6.457932E-007	-0.0001299	9
	35	93	95.0169	21.80304	-64.64978	1	68.22732	-71.3634	5.451878E-007	-0.0001308	9
	36	96	75.60484	24.59823	-79.67558	1	83.38627	-72.84298	5.553215E-007	-0.000131	9
	37	98	54.50582	30.19992	-107.2095	1	111.3819	-74.26797	4.361153E-007	-0.000136	9
	38	101	45.95588	34.14308	-125.0129	1	129.5916	-74.72413	5.307764E-007	-0.0001252	9
	39	103	37.20238	40.27147	-150.9489	1	156.2286	-75.06206	4.160024E-007	-0.0001221	9
	40	106	30.04808	48.24645	-182.3067	1	188.5828	-75.17681	5.376384E-007	-0.0001319	9
	41	108	23.91582	59.1922	-222.3509	1	230.0948	-75.09297	5.969436E-007	-0.0001303	9
	42	111	18.60119	74.88775	-275.8734	1	285.8571	-74.81264	8.223171E-007	-0.000134	9
	43	113	15.02404	92.02857	-330.3575	1	342.9364	-74.43362	4.234388E-007	-0.0001203	9
	44	115	12.01923	114.2667	-397.7111	1	413.8006	-73.97007	6.688612E-007	-0.000127	9
	45	118	9.450605	143.6926	-481.9284	1	502.8942	-73.39743	4.15638E-007	-0.0001171	8
	46	120	7.512019	178.4345	-579.4984	1	606.3475	-72.88577	4.626438E-007	-0.000136	8
	47	123	5.978954	220.0839	-694.904	1	728.9228	-72.42642	5.162653E-007	-0.0001129	8
	48	126	4.734848	270.8728	-835.3458	1	878.1655	-72.03397	4.923883E-007	-0.0001454	8
	49	129	3.75601	331.1392	-1002.791	1	1056.051	-71.72588	6.146869E-007	-0.0001073	8
	50	133	3.004808	399.8732	-1196.777	1	1261.814	-71.52424	6.184544E-007	-0.0001544	8
	51	136	2.372217	488.8322	-1446.806	1	1527.155	-71.33143	5.411888E-007	-0.0001906	8
	52	140	1.878005	596.78	-1746.432	1	1845.582	-71.13399	5.89125E-007	-0.0001086	8
	53	145	1.512097	725.8133	-2079.061	1	2202.113	-70.75558	5.729663E-007	-0.0002031	8
	54	151	1.201923	898.0886	-2510.024	1	2665.855	-70.31275	5.606998E-007	-8.66826E-005	8
	55	157	0.956633	1122.88	-3018.155	1	3220.267	-69.59269	4.933582E-007	-0.0006658	8
