EXPLAIN
TAG	EISPOT
TITLE	LABEL	Potentiostatic EIS	Test Identifier
DATE	LABEL	11/20/2021	Date
TIME	LABEL	14:15:07	Time
NOTES	NOTES	1	Notes...
	
PSTAT	PSTAT	REF3000-16137	Potentiostat
VDC	POTEN	0.00000E+000	T	DC Voltage (V)
FREQINIT	QUANT	3.00000E+005	Initial Freq. (Hz)
FREQFINAL	QUANT	1.00000E+000	Final Freq. (Hz)
PTSPERDEC	QUANT	1.00000E+001	Points/decade
VAC	QUANT	5.00000E+001	AC Voltage (mV rms)
AREA	QUANT	1.00000E+000	Sample Area (cm^2)
SPEED	SELECTOR	2	Optimize for:
ZGUESS	QUANT	1.00000E+003	Estimated Z (ohms)
EOC	QUANT	0	Open Circuit (V)
SEQUENCER	TOGGLE	TRUE	Run as Sequence
PSTATMODEL	IQUANT	5	Pstat Model
PSTATSECTION	LABEL	REF3000-16137	Pstat Section
PSTATSERIALNO	LABEL	16137	Pstat Serial Number
CTRLMODE	IQUANT	1	Control Mode
IESTAB	IQUANT	0	I/E Stability
CASPEED	IQUANT	1	Control Amp Speed
CONVENTION	IQUANT	1	Current Convention
ICHRANGE	IQUANT	2	Ich Range
ICHRANGEMODE	TOGGLE	F	Ich Auto Range
ICHOFFSETENABLE	TOGGLE	T	Ich Offset Enable
ICHOFFSET	QUANT	0	Ich Offset (V)
ICHFILTER	IQUANT	3	Ich Filter
VCHRANGE	IQUANT	2	Vch Range
VCHRANGEMODE	TOGGLE	F	Vch Auto Range
VCHOFFSETENABLE	TOGGLE	T	Vch Offset Enable
VCHOFFSET	QUANT	0	Vch Offset (V)
VCHFILTER	IQUANT	3	Vch Filter
ACHRANGE	IQUANT	2	Ach Range
ACHOFFSETENABLE	TOGGLE	F	Ach Offset Enable
ACHOFFSET	QUANT	0	Ach Offset (V)
ACHFILTER	IQUANT	3	Ach Filter
IERANGELOWERLIMIT	IQUANT	2	I/E Range Lower Limit
IERANGEMODE	TOGGLE	F	I/E AutoRange
IERANGE	IQUANT	11	I/E Range
POSFEEDENABLE	TOGGLE	F	Positive Feedback IR Comp
POSFEEDRESISTANCE	QUANT	0	Positive Feedback Resistance (ohm)
ACHSELECT	IQUANT	0	Ach Select
CABLEID	IQUANT	13	Cable ID
DCCALDATE	LABEL	9/10/2021	DC Calibration Date
ACCALDATE	LABEL	9/10/2021	AC Calibration Date
THERMOSELECT	IQUANT	1	Thermo Select
FRAMEWORKVERSION	QUANT	6.33	Framework Version
INSTRUMENTVERSION	LABEL	3.50	Instrument Version
COMPLIANCEVOLTAGE	IQUANT	0	Compliance Voltage
ZCURVE	TABLE
	Pt	Time	Freq	Zreal	Zimag	Zsig	Zmod	Zphz	Idc	Vdc	IERange
	#	s	Hz	ohm	ohm	V	ohm	°	A	V	#
	0	9	300046.9	316.78	-28.79327	1	318.0859	-5.193547	-9.304538E-005	0.0018129	9
	1	13	238359.4	322.6047	-25.00844	1	323.5726	-4.432727	1.974992E-005	-0.002001	9
	2	19	189328.1	328.1815	-25.87537	1	329.2	-4.508142	7.938177E-005	-0.0007037	10
	3	25	150421.9	334.8144	-16.24422	1	335.2082	-2.777646	1.771333E-005	-0.0011157	9
	4	30	119484.4	341.2999	-15.72853	1	341.6621	-2.638562	-7.066182E-005	0.002163	9
	5	38	94921.88	347.4373	-13.86506	1	347.7138	-2.285271	-1.714626E-005	0.0006935	9
	6	41	75421.88	350.4611	-10.86835	1	350.6296	-1.776262	-2.254925E-005	0.0008175	9
	7	44	59859.37	353.2727	-8.870393	1	353.3841	-1.438349	-2.524621E-005	0.0005447	9
	8	47	47578.12	356.2286	-7.668724	1	356.3111	-1.233247	-2.359246E-005	0.0003305	9
	9	49	37828.12	359.2691	-6.758916	1	359.3327	-1.077776	2.643864E-005	-0.0006747	9
	10	52	30046.88	361.5348	-5.162517	1	361.5717	-0.8180965	-1.097895E-005	-0.0002842	9
	11	54	23859.38	364.048	-4.366549	1	364.0742	-0.6871973	-1.675505E-005	0.0008253	9
	12	56	18984.38	366.7865	-4.241886	1	366.811	-0.6625962	-2.924274E-006	-0.0005853	9
	13	59	15046.87	368.8604	-2.6933	1	368.8702	-0.4183479	-1.281312E-005	0.0048075	8
	14	61	11953.13	371.3485	-3.226629	1	371.3625	-0.4978277	-2.543372E-005	0.0004951	9
	15	63	9515.62	374.2711	-3.310026	1	374.2858	-0.5067064	6.406636E-007	0.0003613	9
	16	66	7546.875	375.8493	-1.969272	1	375.8545	-0.3002	1.311698E-005	-0.0054727	8
	17	68	5928.309	377.839	-3.279653	1	377.8532	-0.4973164	-1.324248E-005	0.0031095	8
	18	70	4733.456	380.2177	-2.960922	1	380.2292	-0.4461783	-1.294551E-005	0.004879	8
	19	73	3796.875	385.2672	-3.462448	1	385.2827	-0.5149111	-7.680977E-006	-0.0005033	8
	20	75	2987.132	385.8849	-4.150117	1	385.9072	-0.6161813	-1.343841E-005	0.0040331	8
	21	77	2390.625	388.657	-5.675562	1	388.6985	-0.8366313	-8.183742E-006	0.0050007	8
	22	80	1884.191	388.4418	-8.942958	1	388.5447	-1.318867	-1.07444E-005	0.001037	8
	23	82	1516.544	395.0533	-8.66832	1	395.1484	-1.256991	6.256169E-006	-0.0049048	8
	24	84	1193.986	396.9428	-9.71763	1	397.0617	-1.402388	1.616725E-006	-0.0038384	8
	25	87	946.5144	400.0191	-11.31487	1	400.1791	-1.620227	1.451501E-005	-0.0049544	8
	26	89	751.7689	403.89	-14.82486	1	404.1619	-2.102109	-1.292357E-005	0.0022093	8
	27	91	597.4265	406.7146	-18.62978	1	407.1411	-2.622631	1.50459E-006	0.0027364	8
	28	94	477.4305	409.8472	-21.66613	1	410.4195	-3.026062	-1.573917E-007	-0.0001202	8
	29	96	376.6741	413.1358	-26.85594	1	414.0078	-3.719286	-1.207546E-007	-0.0001347	8
	30	98	298.2954	416.6391	-33.27683	1	417.9659	-4.566503	-1.383047E-007	-0.000135	8
	31	101	237.7717	420.4315	-41.04143	1	422.4299	-5.575401	-1.628426E-007	-0.0001238	8
	32	103	189.0121	424.4699	-50.77106	1	427.4955	-6.820772	-1.780172E-007	-0.0001172	8
	33	106	150.2404	428.8371	-62.80658	1	433.4119	-8.332182	-1.688053E-007	-0.0001203	8
	34	108	119.1737	433.5878	-77.88263	1	440.5271	-10.18309	-1.769528E-007	-0.0001102	8
	35	110	95.0169	438.7387	-96.1122	1	449.1428	-12.35629	-1.508786E-007	-0.0001284	8
	36	113	75.60484	444.6332	-118.83	1	460.2382	-14.96283	-1.553424E-007	-0.0001183	8
	37	115	54.50582	452.9458	-160.9374	1	480.6878	-19.56077	-1.347197E-007	-0.0001687	8
	38	118	45.95588	459.4066	-188.5584	1	496.5971	-22.31516	-1.563029E-007	-0.0001132	8
	39	120	37.20238	467.4402	-229.321	1	520.6616	-26.13206	-1.431353E-007	-0.0001262	8
	40	123	30.04808	476.9114	-279.4614	1	552.7596	-30.36953	-1.379329E-007	-0.0001283	8
	41	125	23.91582	488.4916	-345.0849	1	598.0867	-35.23851	-1.577778E-007	-0.0001337	8
	42	127	18.60119	503.2444	-435.1227	1	665.2719	-40.84784	-8.437011E-008	-0.0001343	8
	43	130	15.02404	518.9316	-529.704	1	741.5365	-45.58857	-1.687255E-007	-0.0001154	8
	44	132	12.01923	538.721	-650.7694	1	844.8202	-50.38131	-1.253824E-007	-0.0001287	8
	45	134	9.450605	564.303	-811.8865	1	988.735	-55.19871	-1.672454E-007	-0.0001371	8
	46	137	7.512019	594.6429	-1003.108	1	1166.116	-59.34052	-1.70908E-007	-0.0001504	8
	47	140	5.978954	632.9612	-1237.135	1	1389.656	-62.90414	-1.434662E-007	-0.0001117	8
	48	143	4.734848	681.5281	-1534.75	1	1679.267	-66.05569	-1.775982E-007	-0.0001387	8
	49	146	3.75601	742.8454	-1897.96	1	2038.154	-68.62505	-1.263513E-007	-0.0001047	8
	50	149	3.004808	817.7061	-2328.47	1	2467.877	-70.64988	-1.620183E-007	-0.0001141	8
	51	153	2.372217	918.873	-2889.075	1	3031.679	-72.35668	-1.923282E-007	-0.0001041	8
	52	157	1.878005	1053.923	-3583.17	1	3734.951	-73.60973	-1.672766E-007	-0.0001292	8
	53	162	1.512097	1208.275	-4375.029	1	4538.812	-74.56116	-3.202318E-008	-2.044535E-005	7
	54	167	1.201923	1428.898	-5396.355	1	5582.329	-75.16905	-1.190152E-008	-0.0001343	7
	55	174	0.956633	1703.273	-6630.857	1	6846.123	-75.59386	-4.990075E-008	-0.0006697	7
