EXPLAIN
TAG	EISPOT
TITLE	LABEL	Potentiostatic EIS	Test Identifier
DATE	LABEL	11/20/2021	Date
TIME	LABEL	13:22:19	Time
NOTES	NOTES	1	Notes...
	
PSTAT	PSTAT	REF3000-16137	Potentiostat
VDC	POTEN	0.00000E+000	T	DC Voltage (V)
FREQINIT	QUANT	3.00000E+005	Initial Freq. (Hz)
FREQFINAL	QUANT	1.00000E+000	Final Freq. (Hz)
PTSPERDEC	QUANT	1.00000E+001	Points/decade
VAC	QUANT	5.00000E+001	AC Voltage (mV rms)
AREA	QUANT	1.00000E+000	Sample Area (cm^2)
SPEED	SELECTOR	2	Optimize for:
ZGUESS	QUANT	1.00000E+003	Estimated Z (ohms)
EOC	QUANT	0	Open Circuit (V)
SEQUENCER	TOGGLE	TRUE	Run as Sequence
PSTATMODEL	IQUANT	5	Pstat Model
PSTATSECTION	LABEL	REF3000-16137	Pstat Section
PSTATSERIALNO	LABEL	16137	Pstat Serial Number
CTRLMODE	IQUANT	1	Control Mode
IESTAB	IQUANT	0	I/E Stability
CASPEED	IQUANT	1	Control Amp Speed
CONVENTION	IQUANT	1	Current Convention
ICHRANGE	IQUANT	2	Ich Range
ICHRANGEMODE	TOGGLE	F	Ich Auto Range
ICHOFFSETENABLE	TOGGLE	T	Ich Offset Enable
ICHOFFSET	QUANT	0	Ich Offset (V)
ICHFILTER	IQUANT	3	Ich Filter
VCHRANGE	IQUANT	2	Vch Range
VCHRANGEMODE	TOGGLE	F	Vch Auto Range
VCHOFFSETENABLE	TOGGLE	T	Vch Offset Enable
VCHOFFSET	QUANT	0	Vch Offset (V)
VCHFILTER	IQUANT	3	Vch Filter
ACHRANGE	IQUANT	2	Ach Range
ACHOFFSETENABLE	TOGGLE	F	Ach Offset Enable
ACHOFFSET	QUANT	0	Ach Offset (V)
ACHFILTER	IQUANT	3	Ach Filter
IERANGELOWERLIMIT	IQUANT	2	I/E Range Lower Limit
IERANGEMODE	TOGGLE	F	I/E AutoRange
IERANGE	IQUANT	11	I/E Range
POSFEEDENABLE	TOGGLE	F	Positive Feedback IR Comp
POSFEEDRESISTANCE	QUANT	0	Positive Feedback Resistance (ohm)
ACHSELECT	IQUANT	0	Ach Select
CABLEID	IQUANT	13	Cable ID
DCCALDATE	LABEL	9/10/2021	DC Calibration Date
ACCALDATE	LABEL	9/10/2021	AC Calibration Date
THERMOSELECT	IQUANT	1	Thermo Select
FRAMEWORKVERSION	QUANT	6.33	Framework Version
INSTRUMENTVERSION	LABEL	3.50	Instrument Version
COMPLIANCEVOLTAGE	IQUANT	0	Compliance Voltage
ZCURVE	TABLE
	Pt	Time	Freq	Zreal	Zimag	Zsig	Zmod	Zphz	Idc	Vdc	IERange
	#	s	Hz	ohm	ohm	V	ohm	°	A	V	#
	0	10	300046.9	4.116503	2.29297	1	4.712039	29.11864	1.08205E-005	-0.0007527	10
	1	14	238359.4	4.081522	1.819441	1	4.46869	24.02612	-2.650511E-005	-0.0011864	10
	2	17	189328.1	4.062275	1.423378	1	4.304426	19.30991	-8.977042E-005	-0.0009143	10
	3	19	150421.9	4.046118	1.101748	1	4.193438	15.2322	7.477184E-005	-0.000769	10
	4	22	119484.4	4.051086	0.8328915	1	4.13582	11.61795	1.937808E-005	-0.0004175	10
	5	24	94921.88	4.057548	0.6211054	1	4.10481	8.702944	1.992652E-005	-0.0003621	10
	6	27	75421.88	4.069452	0.4375521	1	4.092907	6.13693	2.185362E-005	-0.0002869	10
	7	29	59859.37	4.084307	0.2796722	1	4.093871	3.917204	6.837283E-006	-0.0002193	10
	8	32	47578.12	4.102158	0.1427182	1	4.10464	1.992574	2.545269E-005	-0.0002037	10
	9	34	37828.12	4.124317	0.020949	1	4.12437	0.2910251	1.433322E-005	-0.0001855	10
	10	37	30046.88	4.149006	-0.093029	1	4.150049	-1.284471	-2.018073E-005	-0.0002259	10
	11	39	23859.38	4.174952	-0.2044914	1	4.179957	-2.804137	-2.494368E-005	-0.0001636	10
	12	42	18984.38	4.202392	-0.316546	1	4.214297	-4.307681	-5.850683E-006	-0.0001356	10
	13	44	15046.87	4.229425	-0.4395911	1	4.252209	-5.93381	-1.894963E-005	-0.0001517	10
	14	46	11953.13	4.258862	-0.5763642	1	4.297685	-7.707181	-3.00143E-005	-0.0001477	10
	15	49	9515.62	4.289095	-0.7349278	1	4.351604	-9.72309	4.131333E-006	-0.0001459	10
	16	51	7546.875	4.321836	-0.9263817	1	4.420005	-12.09823	2.494846E-005	-0.0001082	10
	17	53	5928.309	4.359732	-1.169363	1	4.513831	-15.01442	-2.051972E-005	-0.0001207	10
	18	56	4733.456	4.400609	-1.447272	1	4.632489	-18.205	-2.428813E-005	-0.0001223	10
	19	58	3796.875	4.447538	-1.780454	1	4.79068	-21.81738	1.838027E-005	-0.0001276	10
	20	60	2987.132	4.507709	-2.225889	1	5.027327	-26.27998	2.154255E-005	-0.0001224	10
	21	62	2390.625	4.576752	-2.736416	1	5.332413	-30.87498	2.217699E-005	-0.0001229	10
	22	65	1884.191	4.665877	-3.41518	1	5.782203	-36.20219	2.338164E-005	-0.0001191	10
	23	67	1516.544	4.767889	-4.177863	1	6.339346	-41.22647	-4.679336E-006	-0.0001243	10
	24	69	1193.986	4.909044	-5.213129	1	7.160686	-46.72073	-1.453519E-005	-0.0001291	10
	25	72	946.5144	5.080534	-6.469487	1	8.225941	-51.8572	1.81438E-005	-0.0001277	10
	26	74	751.7689	5.30526	-8.001696	1	9.60067	-56.45494	-2.286441E-005	-0.0001217	10
	27	76	597.4265	5.59308	-9.89381	1	11.3653	-60.52006	-1.428639E-005	-0.0001742	10
	28	79	477.4305	5.965744	-12.17697	1	13.55982	-63.89883	3.685399E-006	-0.0001538	10
	29	81	376.6741	6.476079	-15.1377	1	16.46479	-66.83821	-5.90923E-008	-0.0001142	10
	30	83	298.2954	7.143291	-18.73661	1	20.05211	-69.13076	7.804663E-008	-0.000111	10
	31	86	237.7717	8.003179	-23.02454	1	24.37582	-70.83289	1.68871E-007	-0.0001128	10
	32	88	189.0121	9.154073	-28.32327	1	29.76583	-72.08919	-8.217835E-007	-0.0001157	10
	33	91	150.2404	10.67221	-34.76306	1	36.36436	-72.93359	-9.024412E-007	-0.0001168	10
	34	93	119.1737	12.67168	-42.59197	1	44.43701	-73.43156	6.010743E-007	-0.0001315	9
	35	95	95.0169	15.23333	-51.8631	1	54.05401	-73.63132	5.985946E-007	-0.000132	9
	36	98	75.60484	18.56007	-63.07775	1	65.75165	-73.60395	4.852546E-007	-0.0001354	9
	37	100	54.50582	24.94642	-83.00391	1	86.67164	-73.2721	4.379852E-007	-0.0001316	9
	38	103	45.95588	29.20851	-95.5714	1	99.9351	-73.00581	5.170386E-007	-0.0001266	9
	39	105	37.20238	35.53725	-113.5135	1	118.9463	-72.61642	4.234214E-007	-0.0001227	9
	40	108	30.04808	43.23707	-134.7011	1	141.4702	-72.20413	3.698794E-007	-0.0001245	9
	41	110	23.91582	53.22957	-161.4846	1	170.0313	-71.75642	3.922734E-007	-0.0001379	9
	42	112	18.60119	66.48353	-196.7448	1	207.6742	-71.32899	8.641094E-007	-0.0001294	9
	43	115	15.02404	80.04316	-232.5961	1	245.9834	-71.01015	5.358816E-007	-0.0001317	9
	44	117	12.01923	97.0496	-277.3587	1	293.8477	-70.71474	2.573209E-007	-0.0001309	9
	45	119	9.450605	119.5233	-335.462	1	356.1188	-70.3893	3.275977E-007	-0.0001253	9
	46	122	7.512019	146.0908	-400.7598	1	426.5571	-69.97146	3.668869E-007	-0.0001224	8
	47	125	5.978954	180.2017	-480.2602	1	512.9547	-69.43307	5.190433E-007	-0.0001168	8
	48	128	4.734848	225.8102	-576.9823	1	619.5957	-68.62641	4.206699E-007	-0.0001457	8
	49	131	3.75601	285.486	-689.8212	1	746.5625	-67.51753	8.359367E-007	-0.0001029	8
	50	134	3.004808	360.409	-814.6336	1	890.7988	-66.13451	5.167828E-007	-9.036847E-005	8
	51	138	2.372217	462.9747	-964.82	1	1070.151	-64.36571	6.533396E-007	-7.284478E-005	8
	52	142	1.878005	594.8895	-1127.644	1	1274.941	-62.18607	5.622935E-007	-0.0001467	8
	53	147	1.512097	745.0706	-1289.246	1	1489.055	-59.97587	4.87908E-007	-2.953438E-005	8
	54	152	1.201923	938.6742	-1471.338	1	1745.263	-57.46321	5.990389E-007	-0.0001459	8
	55	158	0.956633	1165.477	-1655.933	1	2024.957	-54.86139	2.514292E-007	-0.0006667	8
