EXPLAIN
TAG	EISPOT
TITLE	LABEL	Potentiostatic EIS	Test Identifier
DATE	LABEL	11/20/2021	Date
TIME	LABEL	13:58:28	Time
NOTES	NOTES	1	Notes...
	
PSTAT	PSTAT	REF3000-16137	Potentiostat
VDC	POTEN	0.00000E+000	T	DC Voltage (V)
FREQINIT	QUANT	3.00000E+005	Initial Freq. (Hz)
FREQFINAL	QUANT	1.00000E+000	Final Freq. (Hz)
PTSPERDEC	QUANT	1.00000E+001	Points/decade
VAC	QUANT	5.00000E+001	AC Voltage (mV rms)
AREA	QUANT	1.00000E+000	Sample Area (cm^2)
SPEED	SELECTOR	2	Optimize for:
ZGUESS	QUANT	1.00000E+003	Estimated Z (ohms)
EOC	QUANT	0	Open Circuit (V)
SEQUENCER	TOGGLE	TRUE	Run as Sequence
PSTATMODEL	IQUANT	5	Pstat Model
PSTATSECTION	LABEL	REF3000-16137	Pstat Section
PSTATSERIALNO	LABEL	16137	Pstat Serial Number
CTRLMODE	IQUANT	1	Control Mode
IESTAB	IQUANT	0	I/E Stability
CASPEED	IQUANT	1	Control Amp Speed
CONVENTION	IQUANT	1	Current Convention
ICHRANGE	IQUANT	2	Ich Range
ICHRANGEMODE	TOGGLE	F	Ich Auto Range
ICHOFFSETENABLE	TOGGLE	T	Ich Offset Enable
ICHOFFSET	QUANT	0	Ich Offset (V)
ICHFILTER	IQUANT	3	Ich Filter
VCHRANGE	IQUANT	2	Vch Range
VCHRANGEMODE	TOGGLE	F	Vch Auto Range
VCHOFFSETENABLE	TOGGLE	T	Vch Offset Enable
VCHOFFSET	QUANT	0	Vch Offset (V)
VCHFILTER	IQUANT	3	Vch Filter
ACHRANGE	IQUANT	2	Ach Range
ACHOFFSETENABLE	TOGGLE	F	Ach Offset Enable
ACHOFFSET	QUANT	0	Ach Offset (V)
ACHFILTER	IQUANT	3	Ach Filter
IERANGELOWERLIMIT	IQUANT	2	I/E Range Lower Limit
IERANGEMODE	TOGGLE	F	I/E AutoRange
IERANGE	IQUANT	11	I/E Range
POSFEEDENABLE	TOGGLE	F	Positive Feedback IR Comp
POSFEEDRESISTANCE	QUANT	0	Positive Feedback Resistance (ohm)
ACHSELECT	IQUANT	0	Ach Select
CABLEID	IQUANT	13	Cable ID
DCCALDATE	LABEL	9/10/2021	DC Calibration Date
ACCALDATE	LABEL	9/10/2021	AC Calibration Date
THERMOSELECT	IQUANT	1	Thermo Select
FRAMEWORKVERSION	QUANT	6.33	Framework Version
INSTRUMENTVERSION	LABEL	3.50	Instrument Version
COMPLIANCEVOLTAGE	IQUANT	0	Compliance Voltage
ZCURVE	TABLE
	Pt	Time	Freq	Zreal	Zimag	Zsig	Zmod	Zphz	Idc	Vdc	IERange
	#	s	Hz	ohm	ohm	V	ohm	°	A	V	#
	0	7	300046.9	35.67342	2.277963	1	35.74608	3.653721	-6.095074E-006	-0.0003354	9
	1	10	238359.4	35.83752	1.808072	1	35.88311	2.888234	4.811251E-005	-0.0025001	9
	2	13	189328.1	35.99705	1.38224	1	36.02357	2.199004	4.447327E-005	-0.0017193	9
	3	16	150421.9	36.17827	1.046007	1	36.19339	1.656108	1.162665E-006	0.0001624	9
	4	18	119484.4	36.324	0.787505	1	36.33254	1.241979	-5.461548E-005	0.0010752	9
	5	21	94921.88	36.49176	0.6528541	1	36.4976	1.024938	-4.706028E-006	0.0001864	9
	6	23	75421.88	36.62476	0.4583088	1	36.62763	0.7169408	1.78364E-005	-0.0005299	9
	7	26	59859.37	36.77849	0.2851677	1	36.77959	0.4442427	2.908149E-006	-0.0005048	9
	8	28	47578.12	36.93505	0.1319062	1	36.93529	0.2046196	1.395042E-005	-0.0004199	9
	9	31	37828.12	37.1063	-0.0040363	1	37.1063	-0.0062325	-1.062528E-005	0.0003357	9
	10	33	30046.88	37.27296	-0.1498301	1	37.27326	-0.2303167	1.461827E-005	-0.0003512	9
	11	36	23859.38	37.44615	-0.2858919	1	37.44724	-0.4374303	1.413904E-005	-0.0003291	9
	12	38	18984.38	37.61484	-0.4341226	1	37.61735	-0.661236	-3.136079E-007	0.0001532	9
	13	41	15046.87	37.77767	-0.5957925	1	37.78237	-0.9035382	-3.902147E-006	-0.0002448	9
	14	43	11953.13	37.95314	-0.771203	1	37.96098	-1.164083	9.173513E-006	-0.0006301	9
	15	45	9515.62	38.136	-0.995791	1	38.149	-1.495743	1.662775E-005	-0.0005569	9
	16	47	7546.875	38.3185	-1.264783	1	38.33937	-1.890481	4.707625E-006	-0.000465	9
	17	50	5928.309	38.52334	-1.604828	1	38.55676	-2.385483	1.67468E-005	-0.0006141	9
	18	52	4733.456	38.72018	-1.971163	1	38.77032	-2.914292	1.991832E-006	-0.0004378	9
	19	54	3796.875	38.92339	-2.444016	1	39.00005	-3.59291	-1.562736E-005	0.0001976	9
	20	57	2987.132	39.15939	-3.050881	1	39.27806	-4.454875	-3.22259E-006	0.0002098	9
	21	59	2390.625	39.39939	-3.767092	1	39.57907	-5.461616	1.186431E-005	-0.0006248	9
	22	61	1884.191	39.65163	-4.718139	1	39.93135	-6.785706	7.156803E-006	-0.000568	9
	23	64	1516.544	39.94873	-5.762543	1	40.36221	-8.20821	-1.433333E-005	0.000346	9
	24	66	1193.986	40.27531	-7.193585	1	40.9127	-10.12683	-8.213305E-006	0.0003194	9
	25	69	946.5144	40.64128	-8.937073	1	41.61232	-12.40203	-1.616997E-005	0.0002818	9
	26	71	751.7689	41.06004	-11.07231	1	42.52673	-15.09149	1.170765E-005	-0.0006305	9
	27	73	597.4265	41.50893	-13.70444	1	43.71273	-18.27098	-1.505529E-005	0.0003706	9
	28	75	477.4305	42.09001	-16.88393	1	45.35015	-21.85763	5.805645E-007	-0.0001261	9
	29	78	376.6741	42.74981	-21.0328	1	47.64373	-26.19707	5.958422E-007	-0.0001251	9
	30	80	298.2954	43.52975	-26.11126	1	50.76059	-30.95738	5.919371E-007	-0.0001244	9
	31	83	237.7717	44.45819	-32.21761	1	54.90451	-35.92979	5.987555E-007	-0.0001265	9
	32	85	189.0121	45.58961	-39.84511	1	60.54788	-41.15331	6.630833E-007	-0.0001289	9
	33	87	150.2404	46.97429	-49.2685	1	68.07327	-46.36554	5.431291E-007	-0.0001245	9
	34	90	119.1737	48.68759	-61.03856	1	78.07809	-51.42228	5.953988E-007	-0.0001243	9
	35	92	95.0169	50.77323	-75.25065	1	90.77765	-55.99161	6.108506E-007	-0.0001255	9
	36	95	75.60484	53.40314	-92.94386	1	107.1935	-60.11944	9.844154E-007	-0.0001705	9
	37	97	54.50582	58.31205	-125.7024	1	138.5691	-65.11391	6.460631E-007	-0.0001331	9
	38	100	45.95588	61.73245	-147.1501	1	159.5746	-67.24097	6.647518E-007	-0.0001252	9
	39	102	37.20238	66.87975	-178.7458	1	190.848	-69.4861	5.949908E-007	-0.0001294	9
	40	106	30.04808	73.53826	-217.5521	1	229.645	-71.32342	6.181668E-007	-0.0001268	9
	41	108	23.91582	82.66227	-268.1572	1	280.6089	-72.86754	4.235207E-007	-0.0001298	9
	42	110	18.60119	95.8499	-337.2504	1	350.6067	-74.13432	3.989489E-007	-0.000122	9
	43	113	15.02404	110.26	-407.571	1	422.222	-74.86215	3.939219E-007	-0.0001059	8
	44	115	12.01923	130.2539	-498.1325	1	514.8806	-75.34615	3.054155E-007	-0.0001145	8
	45	117	9.450605	158.611	-617.305	1	637.3562	-75.59007	2.475179E-007	-0.0001067	8
	46	120	7.512019	194.2463	-755.8129	1	780.3748	-75.58673	2.898838E-007	-0.0001099	8
	47	123	5.978954	239.9063	-921.2347	1	951.96	-75.40334	3.143053E-007	-0.0001205	8
	48	126	4.734848	299.7839	-1126.091	1	1165.312	-75.09267	4.25769E-007	-9.109781E-005	8
	49	129	3.75601	376.0098	-1368.609	1	1419.322	-74.63766	3.05066E-007	-0.0001308	8
	50	132	3.004808	467.8748	-1646.85	1	1712.022	-74.14	3.705758E-007	-0.0001253	8
	51	136	2.372217	590.4047	-1995.872	1	2081.365	-73.5211	3.772589E-007	-8.402448E-005	8
	52	140	1.878005	737.831	-2414.702	1	2524.912	-73.00906	3.323439E-007	-0.0001259	8
	53	145	1.512097	896.2257	-2868.371	1	3005.125	-72.64853	3.769527E-007	-0.0001726	8
	54	150	1.201923	1105.903	-3447.477	1	3620.513	-72.21448	3.515161E-007	-0.0001279	8
	55	157	0.956633	1347.854	-4138.992	1	4352.926	-71.96227	1.736307E-008	-0.0006451	7
