EXPLAIN
TAG	EISPOT
TITLE	LABEL	Potentiostatic EIS	Test Identifier
DATE	LABEL	11/20/2021	Date
TIME	LABEL	14:18:10	Time
NOTES	NOTES	1	Notes...
	
PSTAT	PSTAT	REF3000-16137	Potentiostat
VDC	POTEN	0.00000E+000	T	DC Voltage (V)
FREQINIT	QUANT	3.00000E+005	Initial Freq. (Hz)
FREQFINAL	QUANT	1.00000E+000	Final Freq. (Hz)
PTSPERDEC	QUANT	1.00000E+001	Points/decade
VAC	QUANT	5.00000E+001	AC Voltage (mV rms)
AREA	QUANT	1.00000E+000	Sample Area (cm^2)
SPEED	SELECTOR	2	Optimize for:
ZGUESS	QUANT	1.00000E+003	Estimated Z (ohms)
EOC	QUANT	0	Open Circuit (V)
SEQUENCER	TOGGLE	TRUE	Run as Sequence
PSTATMODEL	IQUANT	5	Pstat Model
PSTATSECTION	LABEL	REF3000-16137	Pstat Section
PSTATSERIALNO	LABEL	16137	Pstat Serial Number
CTRLMODE	IQUANT	1	Control Mode
IESTAB	IQUANT	0	I/E Stability
CASPEED	IQUANT	1	Control Amp Speed
CONVENTION	IQUANT	1	Current Convention
ICHRANGE	IQUANT	2	Ich Range
ICHRANGEMODE	TOGGLE	F	Ich Auto Range
ICHOFFSETENABLE	TOGGLE	T	Ich Offset Enable
ICHOFFSET	QUANT	0	Ich Offset (V)
ICHFILTER	IQUANT	3	Ich Filter
VCHRANGE	IQUANT	2	Vch Range
VCHRANGEMODE	TOGGLE	F	Vch Auto Range
VCHOFFSETENABLE	TOGGLE	T	Vch Offset Enable
VCHOFFSET	QUANT	0	Vch Offset (V)
VCHFILTER	IQUANT	3	Vch Filter
ACHRANGE	IQUANT	2	Ach Range
ACHOFFSETENABLE	TOGGLE	F	Ach Offset Enable
ACHOFFSET	QUANT	0	Ach Offset (V)
ACHFILTER	IQUANT	3	Ach Filter
IERANGELOWERLIMIT	IQUANT	2	I/E Range Lower Limit
IERANGEMODE	TOGGLE	F	I/E AutoRange
IERANGE	IQUANT	11	I/E Range
POSFEEDENABLE	TOGGLE	F	Positive Feedback IR Comp
POSFEEDRESISTANCE	QUANT	0	Positive Feedback Resistance (ohm)
ACHSELECT	IQUANT	0	Ach Select
CABLEID	IQUANT	13	Cable ID
DCCALDATE	LABEL	9/10/2021	DC Calibration Date
ACCALDATE	LABEL	9/10/2021	AC Calibration Date
THERMOSELECT	IQUANT	1	Thermo Select
FRAMEWORKVERSION	QUANT	6.33	Framework Version
INSTRUMENTVERSION	LABEL	3.50	Instrument Version
COMPLIANCEVOLTAGE	IQUANT	0	Compliance Voltage
ZCURVE	TABLE
	Pt	Time	Freq	Zreal	Zimag	Zsig	Zmod	Zphz	Idc	Vdc	IERange
	#	s	Hz	ohm	ohm	V	ohm	°	A	V	#
	0	18	300046.9	535.5655	-91.19484	1	543.2742	-9.66351	2.095701E-005	-0.0011596	9
	1	24	238359.4	555.3955	-79.74648	1	561.0915	-8.170968	7.951806E-006	0.0010497	9
	2	32	189328.1	579.9551	-69.31202	1	584.0823	-6.815249	-6.410232E-005	0.0008235	9
	3	40	150421.9	589.8015	-59.25982	1	592.7711	-5.737491	7.584035E-005	-0.0018021	9
	4	46	119484.4	606.0594	-51.9119	1	608.2786	-4.895709	-0.0000977	0.0034345	9
	5	54	94921.88	618.8088	-42.27353	1	620.2511	-3.908052	1.959463E-005	-0.0003231	9
	6	57	75421.88	623.3499	-22.34245	1	623.7502	-2.052748	1.361153E-005	-0.0015733	8
	7	59	59859.37	629.6414	-18.45791	1	629.9119	-1.679142	-3.775872E-006	-0.0030523	8
	8	62	47578.12	634.6244	-15.85536	1	634.8224	-1.431171	1.258759E-005	-0.0067097	8
	9	64	37828.12	641.159	-14.59922	1	641.3252	-1.304402	2.383355E-006	-0.004836	8
	10	67	30046.88	648.2474	-12.34845	1	648.365	-1.091294	-1.541155E-005	0.0024036	8
	11	70	23859.38	653.0832	-9.55598	1	653.1531	-0.8382976	-8.994434E-006	-0.0008506	8
	12	72	18984.38	657.8576	-8.409858	1	657.9114	-0.7324125	8.46379E-006	0.0010561	8
	13	74	15046.87	665.4971	-8.594887	1	665.5526	-0.7399332	8.075132E-006	-0.0061574	8
	14	77	11953.13	669.6512	-8.113476	1	669.7003	-0.6941602	-8.937595E-006	-0.0008953	8
	15	79	9515.62	673.5889	-6.236484	1	673.6177	-0.530463	-3.973704E-006	-0.0028077	8
	16	82	7546.875	678.0287	-5.549322	1	678.0515	-0.4689265	1.599317E-006	0.0034687	8
	17	84	5928.309	681.9791	-4.92973	1	681.9969	-0.4141591	1.605559E-006	0.0035447	8
	18	86	4733.456	689.6081	-3.970998	1	689.6195	-0.329925	8.379948E-006	0.0010347	8
	19	89	3796.875	695.5286	-4.865845	1	695.5457	-0.4008287	8.288741E-006	0.001131	8
	20	91	2987.132	700.7067	-6.945462	1	700.7411	-0.5679018	8.443361E-006	0.0010392	8
	21	94	2390.625	706.6512	-6.83426	1	706.6843	-0.5541093	2.677757E-006	-0.0050946	8
	22	96	1884.191	703.226	-7.993709	1	703.2714	-0.6512644	8.301373E-006	-0.0063176	8
	23	99	1516.544	718.1454	-11.54072	1	718.2381	-0.920674	2.495429E-006	-0.0050238	8
	24	101	1193.986	723.5207	-12.25112	1	723.6244	-0.970077	1.409161E-005	-0.0015421	8
	25	104	946.5144	729.2943	-14.83277	1	729.4451	-1.165151	8.568566E-006	0.0010182	8
	26	106	751.7689	735.6079	-15.02727	1	735.7614	-1.170296	-5.074067E-006	0.0055588	8
	27	109	597.4265	743.0981	-19.48108	1	743.3534	-1.501724	1.684971E-005	-0.0069863	8
	28	112	477.4305	749.9155	-23.51418	1	750.2841	-1.795965	-2.39987E-007	-0.0001329	8
	29	114	376.6741	756.0543	-28.92587	1	756.6074	-2.19101	-2.483022E-007	-0.0001201	8
	30	116	298.2954	762.4297	-35.69537	1	763.2648	-2.680512	-2.511318E-007	-0.0001312	8
	31	119	237.7717	769.267	-43.91242	1	770.5193	-3.267095	-2.433248E-007	-0.0001249	8
	32	121	189.0121	776.3945	-54.21612	1	778.2852	-3.994516	-2.77919E-007	-0.0001176	8
	33	124	150.2404	783.9174	-66.98153	1	786.7738	-4.883754	-2.303217E-007	-0.0001648	8
	34	126	119.1737	791.7654	-82.9586	1	796.0997	-5.981441	-2.95281E-007	-0.0001192	8
	35	128	95.0169	800.1451	-102.3346	1	806.6626	-7.28828	-2.552381E-007	-0.0001372	8
	36	131	75.60484	809.4805	-126.4422	1	819.2963	-8.877954	-2.726992E-007	-0.0001175	8
	37	133	54.50582	821.3272	-171.1824	1	838.9766	-11.77314	-2.899594E-007	-0.00013	8
	38	136	45.95588	831.1932	-200.552	1	855.0457	-13.56517	-2.988692E-007	-0.0001326	8
	39	138	37.20238	842.4614	-243.9337	1	877.066	-16.14831	-2.423654E-007	-0.0001274	8
	40	141	30.04808	855.3873	-297.3736	1	905.6039	-19.1699	-2.670972E-007	-0.0001354	8
	41	143	23.91582	870.4352	-367.2183	1	944.7257	-22.87386	-3.349993E-007	-0.000114	8
	42	145	18.60119	888.6417	-463.9529	1	1002.465	-27.56871	-3.761449E-007	-0.0001255	8
	43	148	15.02404	908.0731	-564.6393	1	1069.306	-31.87333	-2.628602E-007	-0.0001013	8
	44	150	12.01923	931.3587	-693.8419	1	1161.398	-36.6853	-2.892776E-007	-0.0001294	8
	45	152	9.450605	961.36	-865.5195	1	1293.575	-41.99694	-2.661738E-007	-0.0001164	8
	46	155	7.512019	996.438	-1069.426	1	1461.698	-47.02343	-2.634789E-007	-0.0001326	8
	47	158	5.978954	1038.432	-1319.276	1	1678.938	-51.79293	-2.674741E-007	-0.0001346	8
	48	161	4.734848	1091.666	-1635.068	1	1966.007	-56.27062	-2.656898E-007	-0.0001035	8
	49	164	3.75601	1157.725	-2023.42	1	2331.213	-60.22343	-3.499742E-007	-0.0001152	8
	50	167	3.004808	1235.485	-2483.322	1	2773.681	-63.54906	-3.190382E-007	-0.0001021	8
	51	171	2.372217	1343.961	-3085.618	1	3365.601	-66.46416	-3.15117E-007	-5.247802E-005	8
	52	175	1.878005	1470.961	-3830.747	1	4103.455	-68.9938	-3.445526E-007	-0.0001426	8
	53	180	1.512097	1622.51	-4675.396	1	4948.926	-70.86161	-4.719938E-008	-0.0001252	7
	54	185	1.201923	1834.234	-5789.887	1	6073.483	-72.42181	-6.647272E-008	-0.0001231	7
	55	192	0.956633	2098.325	-7136.516	1	7438.604	-73.61526	-6.565381E-008	-0.0006762	7
