EXPLAIN
TAG	EISPOT
TITLE	LABEL	Potentiostatic EIS	Test Identifier
DATE	LABEL	11/20/2021	Date
TIME	LABEL	13:50:07	Time
NOTES	NOTES	1	Notes...
	
PSTAT	PSTAT	REF3000-16137	Potentiostat
VDC	POTEN	0.00000E+000	T	DC Voltage (V)
FREQINIT	QUANT	3.00000E+005	Initial Freq. (Hz)
FREQFINAL	QUANT	1.00000E+000	Final Freq. (Hz)
PTSPERDEC	QUANT	1.00000E+001	Points/decade
VAC	QUANT	5.00000E+001	AC Voltage (mV rms)
AREA	QUANT	1.00000E+000	Sample Area (cm^2)
SPEED	SELECTOR	2	Optimize for:
ZGUESS	QUANT	1.00000E+003	Estimated Z (ohms)
EOC	QUANT	0	Open Circuit (V)
SEQUENCER	TOGGLE	TRUE	Run as Sequence
PSTATMODEL	IQUANT	5	Pstat Model
PSTATSECTION	LABEL	REF3000-16137	Pstat Section
PSTATSERIALNO	LABEL	16137	Pstat Serial Number
CTRLMODE	IQUANT	1	Control Mode
IESTAB	IQUANT	0	I/E Stability
CASPEED	IQUANT	1	Control Amp Speed
CONVENTION	IQUANT	1	Current Convention
ICHRANGE	IQUANT	2	Ich Range
ICHRANGEMODE	TOGGLE	F	Ich Auto Range
ICHOFFSETENABLE	TOGGLE	T	Ich Offset Enable
ICHOFFSET	QUANT	0	Ich Offset (V)
ICHFILTER	IQUANT	3	Ich Filter
VCHRANGE	IQUANT	2	Vch Range
VCHRANGEMODE	TOGGLE	F	Vch Auto Range
VCHOFFSETENABLE	TOGGLE	T	Vch Offset Enable
VCHOFFSET	QUANT	0	Vch Offset (V)
VCHFILTER	IQUANT	3	Vch Filter
ACHRANGE	IQUANT	2	Ach Range
ACHOFFSETENABLE	TOGGLE	F	Ach Offset Enable
ACHOFFSET	QUANT	0	Ach Offset (V)
ACHFILTER	IQUANT	3	Ach Filter
IERANGELOWERLIMIT	IQUANT	2	I/E Range Lower Limit
IERANGEMODE	TOGGLE	F	I/E AutoRange
IERANGE	IQUANT	11	I/E Range
POSFEEDENABLE	TOGGLE	F	Positive Feedback IR Comp
POSFEEDRESISTANCE	QUANT	0	Positive Feedback Resistance (ohm)
ACHSELECT	IQUANT	0	Ach Select
CABLEID	IQUANT	13	Cable ID
DCCALDATE	LABEL	9/10/2021	DC Calibration Date
ACCALDATE	LABEL	9/10/2021	AC Calibration Date
THERMOSELECT	IQUANT	1	Thermo Select
FRAMEWORKVERSION	QUANT	6.33	Framework Version
INSTRUMENTVERSION	LABEL	3.50	Instrument Version
COMPLIANCEVOLTAGE	IQUANT	0	Compliance Voltage
ZCURVE	TABLE
	Pt	Time	Freq	Zreal	Zimag	Zsig	Zmod	Zphz	Idc	Vdc	IERange
	#	s	Hz	ohm	ohm	V	ohm	°	A	V	#
	0	8	300046.9	16.92084	2.11063	1	17.05197	7.110095	-4.815056E-005	-0.0003489	10
	1	11	238359.4	16.92636	1.648797	1	17.00647	5.563631	2.856246E-005	-0.0007395	10
	2	15	189328.1	16.97203	1.297551	1	17.02156	4.371891	-2.64324E-005	-0.0004244	10
	3	17	150421.9	17.00372	0.986263	1	17.0323	3.319596	1.822258E-005	-0.0002883	10
	4	20	119484.4	17.06051	0.7695289	1	17.07785	2.582625	7.358725E-005	-0.0004827	10
	5	22	94921.88	17.11131	0.5600425	1	17.12048	1.874585	-1.369586E-005	-0.0001896	10
	6	25	75421.88	17.17125	0.3887211	1	17.17565	1.296835	-1.567771E-005	-0.0001819	10
	7	27	59859.37	17.23174	0.2412177	1	17.23343	0.802	1.511511E-005	-0.0001729	10
	8	30	47578.12	17.29609	0.1107347	1	17.29645	0.3668194	2.0019E-005	-0.000111	10
	9	32	37828.12	17.36385	-0.0065318	1	17.36385	-0.021553	-7.836156E-007	-0.0000985	10
	10	35	30046.88	17.42526	-0.1273604	1	17.42573	-0.4187647	2.485805E-005	-0.0001652	10
	11	37	23859.38	17.4943	-0.2510622	1	17.4961	-0.8221999	2.133802E-005	-0.0001032	10
	12	40	18984.38	17.55992	-0.3824362	1	17.56408	-1.247644	-2.598001E-005	-0.0001446	10
	13	42	15046.87	17.6334	-0.5300543	1	17.64137	-1.721774	-1.430284E-005	-0.0001257	10
	14	44	11953.13	17.70508	-0.7028238	1	17.71903	-2.273229	1.621187E-005	-0.0001594	10
	15	47	9515.62	17.78387	-0.9017412	1	17.80672	-2.902729	6.879025E-006	-0.0001514	10
	16	49	7546.875	17.86988	-1.140924	1	17.90626	-3.653162	1.618921E-005	-0.0001481	10
	17	51	5928.309	17.96062	-1.453033	1	18.0193	-4.625217	1.818359E-005	-0.0001307	10
	18	54	4733.456	18.05703	-1.804309	1	18.14695	-5.706214	-1.535743E-005	-0.0001361	10
	19	56	3796.875	18.16459	-2.227715	1	18.30069	-6.991868	2.451666E-005	-0.0001581	10
	20	58	2987.132	18.28523	-2.790658	1	18.49695	-8.677418	-2.446791E-006	-0.0001503	10
	21	61	2390.625	18.41542	-3.442772	1	18.73447	-10.58924	-2.503479E-005	-0.0001401	10
	22	63	1884.191	18.57224	-4.303758	1	19.06437	-13.04691	-1.219756E-005	-0.0001202	10
	23	65	1516.544	18.7396	-5.261917	1	19.46434	-15.68428	-2.909256E-006	-0.0001246	10
	24	68	1193.986	18.95029	-6.575165	1	20.05857	-19.13519	-2.003443E-005	-0.0001037	10
	25	70	946.5144	19.19883	-8.148432	1	20.85646	-22.9975	-2.241862E-005	-9.283565E-005	10
	26	72	751.7689	19.48721	-10.10463	1	21.9512	-27.40793	-2.651443E-005	-0.0001102	10
	27	75	597.4265	19.83668	-12.50495	1	23.44926	-32.22714	-1.533408E-005	-0.0001304	10
	28	77	477.4305	20.26292	-15.40385	1	25.45318	-37.24206	-1.545801E-007	-0.0001094	10
	29	79	376.6741	20.79703	-19.18126	1	28.292	-42.68558	-2.732819E-007	-0.0001112	10
	30	82	298.2954	21.44468	-23.80234	1	32.03788	-47.98278	-4.972983E-007	-0.0001099	10
	31	84	237.7717	22.23122	-29.35839	1	36.82584	-52.86569	-5.73558E-007	-0.0001114	10
	32	86	189.0121	23.19753	-36.25954	1	43.04509	-57.39037	6.06151E-007	-0.0001286	9
	33	89	150.2404	24.45134	-44.83313	1	51.06738	-61.39259	5.815468E-007	-0.0001263	9
	34	91	119.1737	26.06501	-55.53928	1	61.35141	-64.85898	6.121985E-007	-0.0001297	9
	35	94	95.0169	28.09109	-68.44778	1	73.98789	-67.68667	5.428977E-007	-0.0001251	9
	36	96	75.60484	30.73318	-84.48651	1	89.90272	-70.01042	5.508685E-007	-0.0001296	9
	37	99	54.50582	35.94677	-114.0446	1	119.5757	-72.50519	4.789828E-007	-0.0001239	9
	38	101	45.95588	39.61227	-133.2914	1	139.053	-73.44881	6.859993E-007	-0.000119	9
	39	104	37.20238	45.28859	-161.4751	1	167.7059	-74.33289	5.124786E-007	-0.0001203	9
	40	106	30.04808	52.69448	-195.7792	1	202.7467	-74.93569	5.996135E-007	-0.0001245	9
	41	108	23.91582	63.06151	-240.1113	1	248.2543	-75.28449	4.428947E-007	-0.0001311	9
	42	111	18.60119	78.07154	-299.802	1	309.8006	-75.40376	3.475087E-007	-0.0001268	9
	43	113	15.02404	94.77768	-361.2477	1	373.4738	-75.29909	7.015931E-007	-0.0001178	9
	44	115	12.01923	116.6684	-435.7577	1	451.1056	-75.01135	4.645294E-007	-0.0001527	8
	45	118	9.450605	147.284	-534.0475	1	553.985	-74.58178	5.319481E-007	-0.0001169	8
	46	120	7.512019	184.047	-646.4661	1	672.1545	-74.10851	5.158424E-007	-0.0000969	8
	47	123	5.978954	229.8672	-779.086	1	812.2893	-73.56145	4.953961E-007	-0.0001212	8
	48	126	4.734848	286.7663	-940.9219	1	983.651	-73.05026	5.758943E-007	-0.0000982	8
	49	129	3.75601	355.1872	-1130.903	1	1185.369	-72.56386	4.685132E-007	-0.0001286	8
	50	133	3.004808	433.3609	-1348.06	1	1416.004	-72.17896	5.346994E-007	-0.0001194	8
	51	136	2.372217	532.2762	-1623.003	1	1708.057	-71.8427	5.338878E-007	-8.757382E-005	8
	52	141	1.878005	648.0751	-1957.967	1	2062.434	-71.68577	4.809737E-007	-0.0001266	8
	53	145	1.512097	772.0971	-2328.563	1	2453.23	-71.65569	5.301885E-007	-0.0001877	8
	54	151	1.201923	942.2006	-2809.715	1	2963.485	-71.46181	4.959041E-007	-0.0001618	8
	55	157	0.956633	1149.647	-3385.038	1	3574.937	-71.24118	4.774317E-007	-0.0006711	8
