EXPLAIN
TAG	EISPOT
TITLE	LABEL	Potentiostatic EIS	Test Identifier
DATE	LABEL	11/20/2021	Date
TIME	LABEL	12:45:27	Time
NOTES	NOTES	1	Notes...
	
PSTAT	PSTAT	REF3000-16137	Potentiostat
VDC	POTEN	0.00000E+000	T	DC Voltage (V)
FREQINIT	QUANT	3.00000E+005	Initial Freq. (Hz)
FREQFINAL	QUANT	1.00000E+000	Final Freq. (Hz)
PTSPERDEC	QUANT	1.00000E+001	Points/decade
VAC	QUANT	5.00000E+001	AC Voltage (mV rms)
AREA	QUANT	1.00000E+000	Sample Area (cm^2)
SPEED	SELECTOR	2	Optimize for:
ZGUESS	QUANT	1.00000E+003	Estimated Z (ohms)
EOC	QUANT	0	Open Circuit (V)
SEQUENCER	TOGGLE	TRUE	Run as Sequence
PSTATMODEL	IQUANT	5	Pstat Model
PSTATSECTION	LABEL	REF3000-16137	Pstat Section
PSTATSERIALNO	LABEL	16137	Pstat Serial Number
CTRLMODE	IQUANT	1	Control Mode
IESTAB	IQUANT	0	I/E Stability
CASPEED	IQUANT	1	Control Amp Speed
CONVENTION	IQUANT	1	Current Convention
ICHRANGE	IQUANT	2	Ich Range
ICHRANGEMODE	TOGGLE	F	Ich Auto Range
ICHOFFSETENABLE	TOGGLE	T	Ich Offset Enable
ICHOFFSET	QUANT	0	Ich Offset (V)
ICHFILTER	IQUANT	3	Ich Filter
VCHRANGE	IQUANT	2	Vch Range
VCHRANGEMODE	TOGGLE	F	Vch Auto Range
VCHOFFSETENABLE	TOGGLE	T	Vch Offset Enable
VCHOFFSET	QUANT	0	Vch Offset (V)
VCHFILTER	IQUANT	3	Vch Filter
ACHRANGE	IQUANT	2	Ach Range
ACHOFFSETENABLE	TOGGLE	F	Ach Offset Enable
ACHOFFSET	QUANT	0	Ach Offset (V)
ACHFILTER	IQUANT	3	Ach Filter
IERANGELOWERLIMIT	IQUANT	2	I/E Range Lower Limit
IERANGEMODE	TOGGLE	F	I/E AutoRange
IERANGE	IQUANT	11	I/E Range
POSFEEDENABLE	TOGGLE	F	Positive Feedback IR Comp
POSFEEDRESISTANCE	QUANT	0	Positive Feedback Resistance (ohm)
ACHSELECT	IQUANT	0	Ach Select
CABLEID	IQUANT	13	Cable ID
DCCALDATE	LABEL	9/10/2021	DC Calibration Date
ACCALDATE	LABEL	9/10/2021	AC Calibration Date
THERMOSELECT	IQUANT	1	Thermo Select
FRAMEWORKVERSION	QUANT	6.33	Framework Version
INSTRUMENTVERSION	LABEL	3.50	Instrument Version
COMPLIANCEVOLTAGE	IQUANT	0	Compliance Voltage
ZCURVE	TABLE
	Pt	Time	Freq	Zreal	Zimag	Zsig	Zmod	Zphz	Idc	Vdc	IERange
	#	s	Hz	ohm	ohm	V	ohm	°	A	V	#
	0	10	300046.9	2.084123	2.260053	1	3.074315	47.31909	-0.0001835	-0.0010059	11
	1	13	238359.4	2.057983	1.750522	1	2.701781	40.38452	4.381994E-005	-0.0006731	11
	2	16	189328.1	2.118089	1.210579	1	2.439631	29.74983	-9.053064E-005	-0.0008405	12
	3	20	150421.9	2.084624	0.9091673	1	2.274257	23.56346	2.659958E-005	-0.0004565	12
	4	23	119484.4	2.053763	0.7483937	1	2.185872	20.0218	-0.0001647	-6.791972E-005	11
	5	26	94921.88	2.075176	0.5237904	1	2.14026	14.16601	-7.847414E-005	0.0001039	11
	6	28	75421.88	2.105564	0.3419736	1	2.133154	9.225099	-1.178811E-005	0.0002082	11
	7	31	59859.37	2.139126	0.1907648	1	2.147615	5.096091	-1.64401E-005	0.0002828	11
	8	33	47578.12	2.175603	0.0672158	1	2.176641	1.769605	-8.944581E-005	0.0002489	11
	9	36	37828.12	2.213095	-0.0381241	1	2.213423	-0.986915	-2.748591E-005	0.0003356	11
	10	38	30046.88	2.248919	-0.1311505	1	2.25274	-3.337545	-5.783898E-005	0.0002981	11
	11	41	23859.38	2.284283	-0.2177155	1	2.294635	-5.444427	-4.672276E-005	0.0003639	11
	12	43	18984.38	2.315978	-0.3032987	1	2.335753	-7.460954	-4.755856E-005	0.000369	11
	13	45	15046.87	2.346434	-0.3964	1	2.379681	-9.58885	-5.897171E-005	0.0003636	11
	14	48	11953.13	2.37421	-0.5004341	1	2.426378	-11.90253	-8.513098E-005	0.000325	11
	15	50	9515.62	2.402626	-0.62178	1	2.481778	-14.50936	-3.626692E-005	0.00038	11
	16	52	7546.875	2.432069	-0.7697004	1	2.550961	-17.56152	-9.047405E-006	0.0003933	11
	17	55	5928.309	2.465137	-0.958364	1	2.644875	-21.24443	-1.022779E-005	0.0003794	11
	18	57	4733.456	2.50093	-1.175907	1	2.763586	-25.18235	-4.889332E-005	0.0003481	11
	19	59	3796.875	2.542335	-1.43755	1	2.920619	-29.48576	-1.508604E-005	0.0004066	11
	20	62	2987.132	2.597529	-1.787802	1	3.153315	-34.53849	-4.829195E-005	0.0003536	11
	21	64	2390.625	2.661667	-2.191293	1	3.447642	-39.46389	-4.033895E-005	0.0003766	11
	22	66	1884.191	2.750322	-2.719891	1	3.868084	-44.68126	-5.402592E-006	0.0003886	11
	23	68	1516.544	2.857924	-3.318598	1	4.379592	-49.26549	1.764202E-005	-0.0001445	10
	24	71	1193.986	3.007037	-4.12401	1	5.103894	-53.9022	2.043355E-005	-0.0001321	10
	25	73	946.5144	3.20536	-5.085008	1	6.01096	-57.77451	8.029006E-006	-0.0001354	10
	26	76	751.7689	3.452945	-6.258834	1	7.148135	-61.11486	-1.510463E-005	-0.000118	10
	27	78	597.4265	3.785162	-7.678955	1	8.56118	-63.76008	2.827581E-005	-0.0001224	10
	28	80	477.4305	4.21646	-9.363046	1	10.26865	-65.75653	5.15222E-006	-0.0001209	10
	29	82	376.6741	4.804192	-11.50258	1	12.46554	-67.33156	4.685313E-006	-0.0001178	10
	30	85	298.2954	5.554465	-14.04624	1	15.1046	-68.4241	5.146212E-006	-0.000118	10
	31	87	237.7717	6.484938	-17.00503	1	18.1996	-69.12544	4.048028E-006	-0.0001137	10
	32	90	189.0121	7.673394	-20.57484	1	21.95916	-69.54697	4.586906E-006	-0.0001124	10
	33	92	150.2404	9.157458	-24.81875	1	26.45429	-69.74728	4.089865E-006	-0.0001155	10
	34	94	119.1737	11.0153	-29.91551	1	31.87906	-69.78561	4.285515E-006	-0.0001102	10
	35	97	95.0169	13.23378	-35.81397	1	38.1808	-69.71999	3.750764E-006	-0.0001208	10
	36	99	75.60484	15.92169	-42.82162	1	45.68579	-69.60415	4.559389E-006	-0.0001701	9
	37	102	54.50582	20.79002	-55.31939	1	59.09704	-69.40288	4.049519E-006	-0.0001332	9
	38	104	45.95588	23.92499	-63.2495	1	67.62325	-69.28019	4.622262E-006	-0.0001275	9
	39	107	37.20238	28.55749	-74.68169	1	79.95552	-69.07367	4.071971E-006	-0.0001342	9
	40	109	30.04808	34.36726	-88.37336	1	94.82067	-68.74958	3.78921E-006	-0.0001265	9
	41	111	23.91582	42.27444	-105.6963	1	113.8369	-68.2005	3.423902E-006	-0.0001314	9
	42	114	18.60119	53.91961	-128.5545	1	139.4044	-67.24536	3.66779E-006	-0.0001267	9
	43	116	15.02404	66.93309	-151.198	1	165.3508	-66.12175	4.447152E-006	-0.0001221	9
	44	118	12.01923	84.54076	-177.9061	1	196.9714	-64.58299	3.782232E-006	-0.0001304	9
	45	121	9.450605	109.2716	-209.9844	1	236.7144	-62.50845	3.524341E-006	-0.0001373	9
	46	123	7.512019	139.7212	-243.2505	1	280.5224	-60.12727	4.066443E-006	-0.0001327	9
	47	126	5.978954	177.1023	-277.4702	1	329.1731	-57.45092	4.043756E-006	-0.0001354	9
	48	129	4.734848	223.6672	-311.9487	1	383.8476	-54.35948	4.200087E-006	-0.0001009	9
	49	132	3.75601	276.62	-342.9912	1	440.6377	-51.11407	3.391579E-006	-0.000145	8
	50	136	3.004808	335.5782	-370.4904	1	499.8759	-47.83074	3.759973E-006	-0.0001371	8
	51	139	2.372217	403.6066	-393.8249	1	563.9116	-44.29722	3.646883E-006	-0.0001099	8
	52	144	1.878005	476.0688	-409.9705	1	628.2653	-40.73365	3.600207E-006	-0.0001211	8
	53	148	1.512097	543.5123	-420.3002	1	687.0647	-37.71492	3.899639E-006	-0.0002224	8
	54	154	1.201923	615.5219	-425.6238	1	748.3467	-34.66325	3.830354E-006	-0.0001204	8
	55	160	0.956633	685.5441	-426.8455	1	807.569	-31.90794	3.49803E-006	-0.0006747	8
