EXPLAIN
TAG	EISPOT
TITLE	LABEL	Potentiostatic EIS	Test Identifier
DATE	LABEL	11/20/2021	Date
TIME	LABEL	13:55:39	Time
NOTES	NOTES	1	Notes...
	
PSTAT	PSTAT	REF3000-16137	Potentiostat
VDC	POTEN	0.00000E+000	T	DC Voltage (V)
FREQINIT	QUANT	3.00000E+005	Initial Freq. (Hz)
FREQFINAL	QUANT	1.00000E+000	Final Freq. (Hz)
PTSPERDEC	QUANT	1.00000E+001	Points/decade
VAC	QUANT	5.00000E+001	AC Voltage (mV rms)
AREA	QUANT	1.00000E+000	Sample Area (cm^2)
SPEED	SELECTOR	2	Optimize for:
ZGUESS	QUANT	1.00000E+003	Estimated Z (ohms)
EOC	QUANT	0	Open Circuit (V)
SEQUENCER	TOGGLE	TRUE	Run as Sequence
PSTATMODEL	IQUANT	5	Pstat Model
PSTATSECTION	LABEL	REF3000-16137	Pstat Section
PSTATSERIALNO	LABEL	16137	Pstat Serial Number
CTRLMODE	IQUANT	1	Control Mode
IESTAB	IQUANT	0	I/E Stability
CASPEED	IQUANT	1	Control Amp Speed
CONVENTION	IQUANT	1	Current Convention
ICHRANGE	IQUANT	2	Ich Range
ICHRANGEMODE	TOGGLE	F	Ich Auto Range
ICHOFFSETENABLE	TOGGLE	T	Ich Offset Enable
ICHOFFSET	QUANT	0	Ich Offset (V)
ICHFILTER	IQUANT	3	Ich Filter
VCHRANGE	IQUANT	2	Vch Range
VCHRANGEMODE	TOGGLE	F	Vch Auto Range
VCHOFFSETENABLE	TOGGLE	T	Vch Offset Enable
VCHOFFSET	QUANT	0	Vch Offset (V)
VCHFILTER	IQUANT	3	Vch Filter
ACHRANGE	IQUANT	2	Ach Range
ACHOFFSETENABLE	TOGGLE	F	Ach Offset Enable
ACHOFFSET	QUANT	0	Ach Offset (V)
ACHFILTER	IQUANT	3	Ach Filter
IERANGELOWERLIMIT	IQUANT	2	I/E Range Lower Limit
IERANGEMODE	TOGGLE	F	I/E AutoRange
IERANGE	IQUANT	11	I/E Range
POSFEEDENABLE	TOGGLE	F	Positive Feedback IR Comp
POSFEEDRESISTANCE	QUANT	0	Positive Feedback Resistance (ohm)
ACHSELECT	IQUANT	0	Ach Select
CABLEID	IQUANT	13	Cable ID
DCCALDATE	LABEL	9/10/2021	DC Calibration Date
ACCALDATE	LABEL	9/10/2021	AC Calibration Date
THERMOSELECT	IQUANT	1	Thermo Select
FRAMEWORKVERSION	QUANT	6.33	Framework Version
INSTRUMENTVERSION	LABEL	3.50	Instrument Version
COMPLIANCEVOLTAGE	IQUANT	0	Compliance Voltage
ZCURVE	TABLE
	Pt	Time	Freq	Zreal	Zimag	Zsig	Zmod	Zphz	Idc	Vdc	IERange
	#	s	Hz	ohm	ohm	V	ohm	°	A	V	#
	0	7	300046.9	27.15788	1.443065	1	27.19619	3.041617	-8.698989E-005	-0.0005883	11
	1	12	238359.4	27.27134	1.411749	1	27.30786	2.963372	8.347231E-005	-0.0007168	10
	2	15	189328.1	27.43667	1.110042	1	27.45911	2.316829	-3.367493E-005	-0.0002841	10
	3	18	150421.9	27.58437	0.8650365	1	27.59793	1.796188	2.609867E-005	-0.0001699	10
	4	22	119484.4	27.69171	0.644231	1	27.6992	1.332712	-0.0000987	-0.0003516	10
	5	25	94921.88	27.79953	0.4367	1	27.80296	0.8999795	2.468696E-005	-0.0001883	10
	6	27	75421.88	27.91864	0.2913712	1	27.92016	0.5979422	-3.340644E-006	-0.0001853	10
	7	30	59859.37	28.03781	0.1620027	1	28.03827	0.3310519	-2.812644E-005	-0.0001505	10
	8	32	47578.12	28.15825	0.0446776	1	28.15828	0.0909088	-2.732791E-005	-0.0001586	10
	9	35	37828.12	28.27949	-0.0692888	1	28.27958	-0.1403826	8.537963E-006	-0.0001811	10
	10	37	30046.88	28.40212	-0.1813636	1	28.4027	-0.3658608	2.201976E-005	-0.0001768	10
	11	40	23859.38	28.5222	-0.3011691	1	28.52379	-0.6049699	-1.129538E-005	-8.072627E-005	10
	12	42	18984.38	28.6383	-0.4377924	1	28.64164	-0.8758098	-1.401095E-005	-0.0001597	10
	13	45	15046.87	28.76621	-0.5910634	1	28.77228	-1.177099	1.512098E-005	-0.0001789	10
	14	47	11953.13	28.88859	-0.7695876	1	28.89884	-1.52599	-2.549212E-005	-7.870294E-005	10
	15	49	9515.62	29.02027	-0.971978	1	29.03654	-1.918295	2.03161E-005	-0.000164	10
	16	52	7546.875	29.16191	-1.221872	1	29.18749	-2.399266	-1.877447E-005	-6.362506E-005	10
	17	54	5928.309	29.31153	-1.547899	1	29.35238	-3.022897	-1.171965E-005	-0.000108	10
	18	56	4733.456	29.46762	-1.916616	1	29.52988	-3.721359	2.255296E-005	-0.0001362	10
	19	59	3796.875	29.62427	-2.367659	1	29.71873	-4.569535	-1.379409E-005	-0.0001484	10
	20	61	2987.132	29.80669	-2.96743	1	29.95404	-5.685395	-2.545862E-006	-0.0001198	10
	21	63	2390.625	29.99285	-3.655053	1	30.21474	-6.948042	-1.735052E-005	-0.0001421	10
	22	66	1884.191	30.20925	-4.546724	1	30.54949	-8.559213	6.412939E-006	-0.0001649	10
	23	68	1516.544	30.43069	-5.588796	1	30.93964	-10.40677	2.642593E-005	-0.000126	10
	24	70	1193.986	30.7144	-6.980404	1	31.49762	-12.80402	1.823504E-005	-0.0001253	10
	25	73	946.5144	31.02652	-8.666139	1	32.21408	-15.60579	9.792587E-006	-9.428873E-005	10
	26	75	751.7689	31.37013	-10.73767	1	33.15693	-18.89554	-1.99915E-005	-0.0001004	10
	27	77	597.4265	31.79457	-13.28642	1	34.45902	-22.67924	2.206346E-005	-0.0001495	10
	28	80	477.4305	32.29578	-16.37232	1	36.2087	-26.88269	-6.093565E-007	-0.0001181	10
	29	82	376.6741	32.85621	-20.36507	1	38.65575	-31.79164	5.928948E-007	-0.0001339	9
	30	84	298.2954	33.5745	-25.27683	1	42.02577	-36.97456	5.43165E-007	-0.0001277	9
	31	87	237.7717	34.43666	-31.18103	1	46.45579	-42.15959	5.097055E-007	-0.0001262	9
	32	89	189.0121	35.50169	-38.55809	1	52.41275	-47.36322	5.177768E-007	-0.0001277	9
	33	91	150.2404	36.81584	-47.67527	1	60.23568	-52.32393	5.048568E-007	-0.0001272	9
	34	94	119.1737	38.46949	-59.06376	1	70.48708	-56.92294	5.89544E-007	-0.0001209	9
	35	96	95.0169	40.49716	-72.81668	1	83.3204	-60.91928	5.659377E-007	-0.0001257	9
	36	99	75.60484	43.08984	-89.93401	1	99.7239	-64.39964	6.752282E-007	-0.0001384	9
	37	101	54.50582	48.04002	-121.5916	1	130.7378	-68.44136	5.513439E-007	-0.0001399	9
	38	104	45.95588	51.4884	-142.3008	1	151.3293	-70.10846	6.381129E-007	-0.0001302	9
	39	106	37.20238	56.76108	-172.7633	1	181.8488	-71.81216	5.20778E-007	-0.0001281	9
	40	108	30.04808	63.56754	-210.0542	1	219.4621	-73.1629	5.103616E-007	-0.0001391	9
	41	111	23.91582	73.07814	-258.5739	1	268.7022	-74.21865	4.364885E-007	-0.0001363	9
	42	113	18.60119	86.90478	-324.5974	1	336.0296	-75.01167	4.713657E-007	-0.0001309	9
	43	116	15.02404	102.4922	-393.1967	1	406.3352	-75.39016	6.313118E-007	-0.000118	9
	44	118	12.01923	123.0854	-477.3906	1	493.0028	-75.54233	2.796881E-007	-0.0001248	8
	45	120	9.450605	152.5121	-589.519	1	608.9274	-75.49525	3.412018E-007	-0.0001009	8
	46	123	7.512019	189.4364	-719.0664	1	743.6011	-75.24091	3.428154E-007	-0.0001154	8
	47	126	5.978954	235.8198	-873.0576	1	904.3453	-74.88466	3.700655E-007	-0.0001179	8
	48	129	4.734848	296.9436	-1062.637	1	1103.346	-74.3875	4.532693E-007	-0.0001263	8
	49	132	3.75601	372.1806	-1286.338	1	1339.098	-73.86308	4.379964E-007	-0.0001182	8
	50	135	3.004808	460.525	-1541.291	1	1608.621	-73.36429	4.806983E-007	-0.0001521	8
	51	139	2.372217	575.0181	-1860.439	1	1947.275	-72.82484	4.505146E-007	-0.0001117	8
	52	143	1.878005	713.5609	-2243.579	1	2354.318	-72.35695	4.110809E-007	-0.0001204	8
	53	148	1.512097	858.6005	-2663.059	1	2798.049	-72.13009	4.503532E-007	-0.000203	8
	54	153	1.201923	1048.242	-3198.75	1	3366.127	-71.85585	4.210056E-007	-0.0001144	8
	55	160	0.956633	1264.225	-3838.719	1	4041.538	-71.77146	4.186659E-007	-0.0006684	8
