EXPLAIN
TAG	EISPOT
TITLE	LABEL	Potentiostatic EIS	Test Identifier
DATE	LABEL	11/20/2021	Date
TIME	LABEL	12:59:45	Time
NOTES	NOTES	1	Notes...
	
PSTAT	PSTAT	REF3000-16137	Potentiostat
VDC	POTEN	0.00000E+000	T	DC Voltage (V)
FREQINIT	QUANT	3.00000E+005	Initial Freq. (Hz)
FREQFINAL	QUANT	1.00000E+000	Final Freq. (Hz)
PTSPERDEC	QUANT	1.00000E+001	Points/decade
VAC	QUANT	5.00000E+001	AC Voltage (mV rms)
AREA	QUANT	1.00000E+000	Sample Area (cm^2)
SPEED	SELECTOR	2	Optimize for:
ZGUESS	QUANT	1.00000E+003	Estimated Z (ohms)
EOC	QUANT	0	Open Circuit (V)
SEQUENCER	TOGGLE	TRUE	Run as Sequence
PSTATMODEL	IQUANT	5	Pstat Model
PSTATSECTION	LABEL	REF3000-16137	Pstat Section
PSTATSERIALNO	LABEL	16137	Pstat Serial Number
CTRLMODE	IQUANT	1	Control Mode
IESTAB	IQUANT	0	I/E Stability
CASPEED	IQUANT	1	Control Amp Speed
CONVENTION	IQUANT	1	Current Convention
ICHRANGE	IQUANT	2	Ich Range
ICHRANGEMODE	TOGGLE	F	Ich Auto Range
ICHOFFSETENABLE	TOGGLE	T	Ich Offset Enable
ICHOFFSET	QUANT	0	Ich Offset (V)
ICHFILTER	IQUANT	3	Ich Filter
VCHRANGE	IQUANT	2	Vch Range
VCHRANGEMODE	TOGGLE	F	Vch Auto Range
VCHOFFSETENABLE	TOGGLE	T	Vch Offset Enable
VCHOFFSET	QUANT	0	Vch Offset (V)
VCHFILTER	IQUANT	3	Vch Filter
ACHRANGE	IQUANT	2	Ach Range
ACHOFFSETENABLE	TOGGLE	F	Ach Offset Enable
ACHOFFSET	QUANT	0	Ach Offset (V)
ACHFILTER	IQUANT	3	Ach Filter
IERANGELOWERLIMIT	IQUANT	2	I/E Range Lower Limit
IERANGEMODE	TOGGLE	F	I/E AutoRange
IERANGE	IQUANT	11	I/E Range
POSFEEDENABLE	TOGGLE	F	Positive Feedback IR Comp
POSFEEDRESISTANCE	QUANT	0	Positive Feedback Resistance (ohm)
ACHSELECT	IQUANT	0	Ach Select
CABLEID	IQUANT	13	Cable ID
DCCALDATE	LABEL	9/10/2021	DC Calibration Date
ACCALDATE	LABEL	9/10/2021	AC Calibration Date
THERMOSELECT	IQUANT	1	Thermo Select
FRAMEWORKVERSION	QUANT	6.33	Framework Version
INSTRUMENTVERSION	LABEL	3.50	Instrument Version
COMPLIANCEVOLTAGE	IQUANT	0	Compliance Voltage
ZCURVE	TABLE
	Pt	Time	Freq	Zreal	Zimag	Zsig	Zmod	Zphz	Idc	Vdc	IERange
	#	s	Hz	ohm	ohm	V	ohm	°	A	V	#
	0	11	300046.9	2.508996	2.268099	1	3.382208	42.11317	-0.0001548	-0.0006984	11
	1	14	238359.4	2.479282	1.77457	1	3.048924	35.59355	-0.0000997	-0.0005368	11
	2	17	189328.1	2.45018	1.367056	1	2.805748	29.15895	-2.82656E-005	-0.0002351	11
	3	20	150421.9	2.501138	0.9009287	1	2.658452	19.8094	-0.0001116	-0.0007116	12
	4	23	119484.4	2.457829	0.7710587	1	2.575938	17.41744	-3.295277E-005	0.0001872	11
	5	27	94921.88	2.490938	0.4637038	1	2.533731	10.54526	1.018608E-005	-0.0003182	12
	6	31	75421.88	2.505734	0.2976768	1	2.523354	6.774885	-3.574638E-006	-0.0002013	12
	7	34	59859.37	2.52622	0.2145406	1	2.535313	4.854229	-2.733885E-005	0.000269	11
	8	37	47578.12	2.556856	0.0871317	1	2.55834	1.951751	-6.303822E-005	0.0002642	11
	9	39	37828.12	2.589633	-0.0230268	1	2.589735	-0.5094562	-1.458321E-005	0.0003793	11
	10	42	30046.88	2.62121	-0.1222917	1	2.624061	-2.67118	-8.461274E-005	0.0002826	11
	11	44	23859.38	2.652119	-0.2165333	1	2.660944	-4.667583	-1.025742E-005	0.0003833	11
	12	47	18984.38	2.681553	-0.3105153	1	2.699472	-6.605251	-3.227444E-005	0.0003417	11
	13	49	15046.87	2.709912	-0.4130294	1	2.741207	-8.666003	-5.05612E-005	0.0003298	11
	14	51	11953.13	2.737448	-0.527883	1	2.787881	-10.9148	-3.347819E-005	0.0003459	11
	15	53	9515.62	2.766069	-0.6619236	1	2.844167	-13.45787	-3.476721E-005	0.0003801	11
	16	56	7546.875	2.794207	-0.8240331	1	2.913181	-16.43119	-6.937496E-006	0.0004136	11
	17	58	5928.309	2.828145	-1.032646	1	3.010774	-20.05875	-1.133796E-005	0.0003922	11
	18	60	4733.456	2.864146	-1.271471	1	3.133683	-23.93772	-1.351976E-005	0.000393	11
	19	63	3796.875	2.905327	-1.556894	1	3.296186	-28.18578	-1.557821E-005	0.0003799	11
	20	65	2987.132	2.960619	-1.942905	1	3.541206	-33.27487	-1.260523E-005	0.0004249	11
	21	67	2390.625	3.027254	-2.388971	1	3.856352	-38.27889	2.350624E-005	-0.0001175	10
	22	70	1884.191	3.113636	-2.972704	1	4.304846	-43.67352	1.998794E-005	-0.0001284	10
	23	72	1516.544	3.214415	-3.63054	1	4.84905	-48.4789	2.42642E-005	-0.000114	10
	24	74	1193.986	3.358795	-4.524081	1	5.634609	-53.40884	-2.273983E-005	-0.0001309	10
	25	77	946.5144	3.546988	-5.593249	1	6.623108	-57.61896	2.359258E-005	-0.0001227	10
	26	79	751.7689	3.78725	-6.907755	1	7.877839	-61.26578	2.424113E-005	-0.0001208	10
	27	81	597.4265	4.106778	-8.512837	1	9.451668	-64.24632	-2.20178E-005	-0.0001286	10
	28	84	477.4305	4.523542	-10.41918	1	11.35878	-66.53167	1.590087E-006	-0.0001161	10
	29	86	376.6741	5.101839	-12.8683	1	13.84275	-68.37337	1.380899E-006	-0.0001165	10
	30	88	298.2954	5.853913	-15.80384	1	16.85318	-69.67482	1.611771E-006	-0.0001127	10
	31	91	237.7717	6.806101	-19.24365	1	20.41179	-70.52232	4.6021E-006	-0.0001559	10
	32	93	189.0121	8.047132	-23.42049	1	24.76441	-71.03761	7.356537E-007	-0.0001113	10
	33	95	150.2404	9.63377	-28.41929	1	30.00776	-71.27401	5.330451E-007	-0.0001207	10
	34	98	119.1737	11.65473	-34.43259	1	36.35155	-71.30009	2.47076E-007	-0.0001113	10
	35	100	95.0169	14.10107	-41.36597	1	43.70336	-71.17648	1.353671E-006	-0.0001252	9
	36	103	75.60484	17.15606	-49.69868	1	52.57651	-70.95525	1.225197E-006	-0.0001298	9
	37	105	54.50582	22.72181	-64.38189	1	68.27377	-70.56093	1.254922E-006	-0.0001332	9
	38	108	45.95588	26.27915	-73.61565	1	78.16557	-70.35456	1.293001E-006	-0.000133	9
	39	110	37.20238	31.40691	-86.84911	1	92.35345	-70.11868	1.376582E-006	-0.0001317	9
	40	112	30.04808	37.61658	-102.6749	1	109.3487	-69.87889	1.098529E-006	-0.0001262	9
	41	115	23.91582	45.8803	-123.0068	1	131.2847	-69.54498	1.313135E-006	-0.0001292	9
	42	117	18.60119	57.33941	-149.8706	1	160.465	-69.06351	9.551181E-007	-0.0001281	9
	43	119	15.02404	70.00848	-177.2522	1	190.5768	-68.44769	8.345543E-007	-0.0001231	9
	44	122	12.01923	87.30801	-210.7491	1	228.1181	-67.49702	1.633317E-006	-0.0001199	9
	45	124	9.450605	111.7338	-252.634	1	276.2397	-66.14137	1.563174E-006	-0.0001402	9
	46	127	7.512019	142.3737	-298.3179	1	330.5508	-64.48695	1.561974E-006	-0.0001088	9
	47	129	5.978954	181.8116	-348.6002	1	393.1635	-62.45581	1.052494E-006	-0.0001266	9
	48	132	4.734848	231.9192	-402.6324	1	464.6497	-60.05775	1.38875E-006	-0.0001039	8
	49	136	3.75601	294.4919	-459.37	1	545.6614	-57.33697	8.435994E-007	-0.0001283	8
	50	139	3.004808	366.8045	-513.1715	1	630.7856	-54.44359	1.407623E-006	-0.0001521	8
	51	143	2.372217	456.4969	-568.2648	1	728.9131	-51.22448	9.934419E-007	-0.0001821	8
	52	147	1.878005	556.1778	-615.1089	1	829.2724	-47.8803	1.269375E-006	-0.0001061	8
	53	152	1.512097	655.3956	-652.4079	1	924.7592	-44.86911	1.400414E-006	-0.0001916	8
	54	157	1.201923	768.3315	-686.3083	1	1030.22	-41.77266	1.301013E-006	-9.223896E-005	8
	55	163	0.956633	883.6638	-713.0119	1	1135.45	-38.89941	8.734054E-007	-0.0006681	8
