EXPLAIN
TAG	EISPOT
TITLE	LABEL	Potentiostatic EIS	Test Identifier
DATE	LABEL	11/20/2021	Date
TIME	LABEL	14:03:59	Time
NOTES	NOTES	1	Notes...
	
PSTAT	PSTAT	REF3000-16137	Potentiostat
VDC	POTEN	0.00000E+000	T	DC Voltage (V)
FREQINIT	QUANT	3.00000E+005	Initial Freq. (Hz)
FREQFINAL	QUANT	1.00000E+000	Final Freq. (Hz)
PTSPERDEC	QUANT	1.00000E+001	Points/decade
VAC	QUANT	5.00000E+001	AC Voltage (mV rms)
AREA	QUANT	1.00000E+000	Sample Area (cm^2)
SPEED	SELECTOR	2	Optimize for:
ZGUESS	QUANT	1.00000E+003	Estimated Z (ohms)
EOC	QUANT	0	Open Circuit (V)
SEQUENCER	TOGGLE	TRUE	Run as Sequence
PSTATMODEL	IQUANT	5	Pstat Model
PSTATSECTION	LABEL	REF3000-16137	Pstat Section
PSTATSERIALNO	LABEL	16137	Pstat Serial Number
CTRLMODE	IQUANT	1	Control Mode
IESTAB	IQUANT	0	I/E Stability
CASPEED	IQUANT	1	Control Amp Speed
CONVENTION	IQUANT	1	Current Convention
ICHRANGE	IQUANT	2	Ich Range
ICHRANGEMODE	TOGGLE	F	Ich Auto Range
ICHOFFSETENABLE	TOGGLE	T	Ich Offset Enable
ICHOFFSET	QUANT	0	Ich Offset (V)
ICHFILTER	IQUANT	3	Ich Filter
VCHRANGE	IQUANT	2	Vch Range
VCHRANGEMODE	TOGGLE	F	Vch Auto Range
VCHOFFSETENABLE	TOGGLE	T	Vch Offset Enable
VCHOFFSET	QUANT	0	Vch Offset (V)
VCHFILTER	IQUANT	3	Vch Filter
ACHRANGE	IQUANT	2	Ach Range
ACHOFFSETENABLE	TOGGLE	F	Ach Offset Enable
ACHOFFSET	QUANT	0	Ach Offset (V)
ACHFILTER	IQUANT	3	Ach Filter
IERANGELOWERLIMIT	IQUANT	2	I/E Range Lower Limit
IERANGEMODE	TOGGLE	F	I/E AutoRange
IERANGE	IQUANT	11	I/E Range
POSFEEDENABLE	TOGGLE	F	Positive Feedback IR Comp
POSFEEDRESISTANCE	QUANT	0	Positive Feedback Resistance (ohm)
ACHSELECT	IQUANT	0	Ach Select
CABLEID	IQUANT	13	Cable ID
DCCALDATE	LABEL	9/10/2021	DC Calibration Date
ACCALDATE	LABEL	9/10/2021	AC Calibration Date
THERMOSELECT	IQUANT	1	Thermo Select
FRAMEWORKVERSION	QUANT	6.33	Framework Version
INSTRUMENTVERSION	LABEL	3.50	Instrument Version
COMPLIANCEVOLTAGE	IQUANT	0	Compliance Voltage
ZCURVE	TABLE
	Pt	Time	Freq	Zreal	Zimag	Zsig	Zmod	Zphz	Idc	Vdc	IERange
	#	s	Hz	ohm	ohm	V	ohm	°	A	V	#
	0	7	300046.9	65.79826	1.357581	1	65.81226	1.181986	1.277814E-006	0.0002017	9
	1	10	238359.4	66.21821	1.034624	1	66.22629	0.895143	5.941909E-005	-0.0027647	9
	2	13	189328.1	66.47514	0.5973722	1	66.47782	0.514869	-6.673573E-005	0.0013692	9
	3	16	150421.9	66.91769	0.6558311	1	66.9209	0.561513	5.641693E-005	-0.0022828	9
	4	18	119484.4	67.20783	0.3363437	1	67.20867	0.2867362	-4.628355E-005	0.0008435	9
	5	21	94921.88	67.61797	0.3385676	1	67.61882	0.2868814	-1.719251E-005	0.00044	9
	6	23	75421.88	67.91523	0.1772847	1	67.91546	0.1495635	-1.354495E-005	-3.654385E-005	9
	7	26	59859.37	68.25515	0.0136731	1	68.25515	0.0114777	2.5703E-006	-0.0005808	9
	8	28	47578.12	68.61635	-0.1088211	1	68.61643	-0.0908673	-1.010848E-005	-0.0001709	9
	9	31	37828.12	68.98768	-0.2089762	1	68.98799	-0.1735588	9.684491E-006	-0.0006989	9
	10	33	30046.88	69.35326	-0.3317865	1	69.35405	-0.2741013	-1.001958E-005	0.0004867	9
	11	36	23859.38	69.71069	-0.444434	1	69.7121	-0.365279	-4.459637E-006	-0.0003841	9
	12	38	18984.38	70.08155	-0.5872521	1	70.08401	-0.4801019	2.021468E-005	-0.0006439	9
	13	40	15046.87	70.44769	-0.7296993	1	70.45146	-0.5934502	1.781246E-005	-0.0007662	9
	14	43	11953.13	70.79196	-0.9176964	1	70.79791	-0.7426999	-4.193177E-006	-0.0003511	9
	15	45	9515.62	71.16519	-1.150851	1	71.1745	-0.9264802	9.203709E-006	-0.0006937	9
	16	47	7546.875	71.58047	-1.407951	1	71.59431	-1.126833	1.095606E-005	-0.0001766	9
	17	50	5928.309	71.91026	-1.746203	1	71.93147	-1.391045	2.927807E-006	-0.0005606	9
	18	52	4733.456	72.32001	-2.112866	1	72.35087	-1.673449	2.927964E-006	0.0001423	9
	19	54	3796.875	72.63898	-2.660353	1	72.68768	-2.097481	-1.205121E-005	0.0004939	9
	20	57	2987.132	73.13723	-3.328574	1	73.21294	-2.60581	1.951888E-005	-0.0004864	9
	21	59	2390.625	73.6009	-4.080402	1	73.71392	-3.173205	-1.819321E-005	0.0002438	9
	22	61	1884.191	74.06722	-5.189209	1	74.24878	-4.007639	-1.884659E-005	0.0003896	9
	23	64	1516.544	74.54361	-6.21188	1	74.80199	-4.763575	-1.863442E-005	0.0002783	9
	24	66	1193.986	75.08801	-7.695215	1	75.48129	-5.851392	-1.804076E-005	0.0004845	9
	25	69	946.5144	75.70084	-9.59926	1	76.30704	-7.226835	-1.879753E-005	0.0004686	9
	26	71	751.7689	76.33534	-11.8725	1	77.2531	-8.840429	-1.019887E-005	-0.00014	9
	27	73	597.4265	76.97583	-14.68382	1	78.36385	-10.79992	1.083787E-005	-0.0001035	9
	28	75	477.4305	77.79919	-18.09799	1	79.87648	-13.09549	5.817686E-007	-0.0001257	9
	29	78	376.6741	78.67485	-22.54594	1	81.84162	-15.99077	5.400219E-007	-0.0001275	9
	30	80	298.2954	79.67458	-28.00049	1	84.45155	-19.36329	5.572961E-007	-0.0001257	9
	31	82	237.7717	80.83878	-34.56629	1	87.91891	-23.15133	5.235845E-007	-0.0001235	9
	32	85	189.0121	82.21905	-42.77304	1	92.67958	-27.48493	5.219644E-007	-0.0001217	9
	33	87	150.2404	83.85862	-52.91879	1	99.1598	-32.25388	6.586005E-007	-0.0001313	9
	34	90	119.1737	85.82977	-65.57925	1	108.0157	-37.38206	4.931428E-007	-0.0001249	9
	35	92	95.0169	88.18224	-80.85901	1	119.6423	-42.51937	4.90703E-007	-0.0001269	9
	36	95	75.60484	91.07604	-99.8756	1	135.1665	-47.63846	9.030919E-007	-0.000171	9
	37	97	54.50582	96.2032	-135.0835	1	165.8391	-54.54247	5.696986E-007	-0.0001313	9
	38	100	45.95588	99.7706	-158.1509	1	186.9917	-57.75393	5.044523E-007	-0.0001298	9
	39	102	37.20238	104.9326	-192.1993	1	218.9781	-61.36735	4.133654E-007	-0.0001214	9
	40	104	30.04808	111.4398	-234.0871	1	259.2597	-64.54269	5.032015E-007	-0.0001259	9
	41	107	23.91582	120.1226	-288.8815	1	312.8609	-67.42151	5.045421E-007	-0.000131	9
	42	109	18.60119	132.4214	-364.0533	1	387.3889	-70.01156	4.831997E-007	-0.0001294	9
	43	111	15.02404	145.3991	-440.9476	1	464.3013	-71.75042	2.399779E-007	-0.0001252	8
	44	114	12.01923	163.6268	-541.0206	1	565.223	-73.17253	8.542155E-008	-0.0001228	8
	45	116	9.450605	189.3198	-673.368	1	699.4758	-74.29648	2.007924E-007	-0.0001134	8
	46	119	7.512019	221.2816	-829.1478	1	858.1675	-75.05726	1.601281E-007	-0.0000973	8
	47	121	5.978954	263.379	-1017.503	1	1051.038	-75.4876	1.422565E-007	-0.0001081	8
	48	124	4.734848	318.9944	-1253.011	1	1292.979	-75.71692	2.570046E-007	-9.046408E-005	8
	49	128	3.75601	392.3402	-1536.281	1	1585.588	-75.67384	1.32873E-007	-0.0001272	8
	50	131	3.004808	482.6741	-1864.967	1	1926.415	-75.48961	1.87382E-007	-0.0001072	8
	51	135	2.372217	608.1417	-2283.269	1	2362.87	-75.08569	1.880893E-007	-7.101676E-005	8
	52	139	1.878005	764.0128	-2789.03	1	2891.782	-74.6805	1.515529E-007	-0.0001272	8
	53	144	1.512097	940.0355	-3338.538	1	3468.358	-74.27432	1.890881E-007	-0.0001686	8
	54	149	1.201923	1183.727	-4041.645	1	4211.425	-73.67561	1.598262E-007	-0.0001312	8
	55	155	0.956633	1476.927	-4874.484	1	5093.32	-73.14364	-2.334486E-009	-0.0006463	7
