EXPLAIN
TAG	EISPOT
TITLE	LABEL	Potentiostatic EIS	Test Identifier
DATE	LABEL	11/20/2021	Date
TIME	LABEL	14:40:40	Time
NOTES	NOTES	1	Notes...
	
PSTAT	PSTAT	REF3000-16137	Potentiostat
VDC	POTEN	0.00000E+000	T	DC Voltage (V)
FREQINIT	QUANT	3.00000E+005	Initial Freq. (Hz)
FREQFINAL	QUANT	1.00000E+000	Final Freq. (Hz)
PTSPERDEC	QUANT	1.00000E+001	Points/decade
VAC	QUANT	5.00000E+001	AC Voltage (mV rms)
AREA	QUANT	1.00000E+000	Sample Area (cm^2)
SPEED	SELECTOR	2	Optimize for:
ZGUESS	QUANT	1.00000E+003	Estimated Z (ohms)
EOC	QUANT	0	Open Circuit (V)
SEQUENCER	TOGGLE	TRUE	Run as Sequence
PSTATMODEL	IQUANT	5	Pstat Model
PSTATSECTION	LABEL	REF3000-16137	Pstat Section
PSTATSERIALNO	LABEL	16137	Pstat Serial Number
CTRLMODE	IQUANT	1	Control Mode
IESTAB	IQUANT	0	I/E Stability
CASPEED	IQUANT	1	Control Amp Speed
CONVENTION	IQUANT	1	Current Convention
ICHRANGE	IQUANT	2	Ich Range
ICHRANGEMODE	TOGGLE	F	Ich Auto Range
ICHOFFSETENABLE	TOGGLE	T	Ich Offset Enable
ICHOFFSET	QUANT	0	Ich Offset (V)
ICHFILTER	IQUANT	3	Ich Filter
VCHRANGE	IQUANT	2	Vch Range
VCHRANGEMODE	TOGGLE	F	Vch Auto Range
VCHOFFSETENABLE	TOGGLE	T	Vch Offset Enable
VCHOFFSET	QUANT	0	Vch Offset (V)
VCHFILTER	IQUANT	3	Vch Filter
ACHRANGE	IQUANT	2	Ach Range
ACHOFFSETENABLE	TOGGLE	F	Ach Offset Enable
ACHOFFSET	QUANT	0	Ach Offset (V)
ACHFILTER	IQUANT	3	Ach Filter
IERANGELOWERLIMIT	IQUANT	2	I/E Range Lower Limit
IERANGEMODE	TOGGLE	F	I/E AutoRange
IERANGE	IQUANT	11	I/E Range
POSFEEDENABLE	TOGGLE	F	Positive Feedback IR Comp
POSFEEDRESISTANCE	QUANT	0	Positive Feedback Resistance (ohm)
ACHSELECT	IQUANT	0	Ach Select
CABLEID	IQUANT	13	Cable ID
DCCALDATE	LABEL	9/10/2021	DC Calibration Date
ACCALDATE	LABEL	9/10/2021	AC Calibration Date
THERMOSELECT	IQUANT	1	Thermo Select
FRAMEWORKVERSION	QUANT	6.33	Framework Version
INSTRUMENTVERSION	LABEL	3.50	Instrument Version
COMPLIANCEVOLTAGE	IQUANT	0	Compliance Voltage
ZCURVE	TABLE
	Pt	Time	Freq	Zreal	Zimag	Zsig	Zmod	Zphz	Idc	Vdc	IERange
	#	s	Hz	ohm	ohm	V	ohm	°	A	V	#
	0	17	300046.9	300.5086	-4274.639	1	4285.189	-85.9787	-8.211766E-005	0.0026487	9
	1	32	238359.4	334.2617	-5239.27	1	5249.922	-86.34952	1.396101E-005	-0.0022753	9
	2	49	189328.1	514.0813	-6627.402	1	6647.311	-85.5645	1.361238E-005	-0.0022175	9
	3	56	150421.9	919.7642	-7996.37	1	8049.093	-83.43852	1.733869E-005	-0.0007858	9
	4	64	119484.4	1415.875	-9942.68	1	10042.99	-81.89536	-3.706897E-005	0.0196223	8
	5	71	94921.88	1615.049	-12434.57	1	12539.02	-82.59964	1.486761E-005	-0.0098912	8
	6	80	75421.88	2531.211	-16103.54	1	16301.25	-81.06713	-1.07604E-005	-0.0024354	8
	7	88	59859.37	2922.719	-19313.05	1	19532.95	-81.3945	2.145439E-005	-0.0104966	8
	8	97	47578.12	4015.888	-24153.64	1	24485.21	-80.56011	1.493291E-005	-0.0098749	8
	9	105	37828.12	5304.761	-29692.84	1	30162.98	-79.87071	1.485672E-005	-0.0098497	8
	10	115	30046.88	10529.66	-37048.75	1	38516.02	-74.13427	-6.267252E-006	0.0252245	7
	11	123	23859.38	13530.07	-45261.93	1	47240.93	-73.3571	6.739117E-006	-0.0122068	7
	12	128	18984.38	13843.76	-55176.31	1	56886.51	-75.91521	2.561414E-005	-0.0099378	8
	13	134	15046.87	23291.29	-65421.59	1	69443.99	-70.40334	-2.614094E-006	-0.0054922	8
	14	141	11953.13	30964.29	-84345.41	1	89849.52	-69.84116	5.178931E-006	-0.0033069	7
	15	146	9515.62	40899.62	-97948.8	1	106145	-67.33648	-6.847579E-006	0.0125494	7
	16	151	7546.875	54591.11	-118820.1	1	130760.9	-65.3239	8.728686E-007	-0.0195272	7
	17	157	5928.309	70730.13	-143425.8	1	159917.9	-63.74989	-4.989944E-006	0.0256509	7
	18	163	4733.456	93234.85	-176998.1	1	200052.6	-62.22169	4.937417E-006	-0.0270399	7
	19	170	3796.875	123903.6	-177504.1	1	216471.3	-55.08371	5.185802E-006	-0.00321	7
	20	176	2987.132	160924.7	-183356.8	1	243960	-48.72791	3.000573E-006	-0.0243024	7
	21	183	2390.625	177373.3	-215383.4	1	279018.4	-50.52775	-1.040635E-005	0.0091138	8
	22	190	1884.191	253559	-265124.2	1	366855.6	-46.27732	-6.905031E-006	0.0127318	7
	23	198	1516.544	72870.8	-508557.2	1	513751.5	-81.84563	-2.468821E-005	0.0049457	8
	24	207	1193.986	152213.2	-272427.8	1	312066.9	-60.80667	-1.093255E-005	-0.0024096	8
	25	214	946.5144	239414.2	-173408.3	1	295617.3	-35.9159	-4.971873E-006	0.0253309	7
	26	220	751.7689	610409.4	-294146.9	1	677585.4	-25.72871	-7.092348E-006	0.0235342	7
	27	226	597.4265	475669.9	-170474	1	505295.2	-19.71703	-6.91925E-006	0.0125052	7
	28	233	477.4305	596372.6	-212192.4	1	632997.5	-19.58582	-1.070308E-007	-6.70092E-005	7
	29	239	376.6741	639899.4	-180676.8	1	664917.6	-15.76713	-1.126347E-008	-0.0001013	6
	30	242	298.2954	697446.4	-102916.5	1	704998.8	-8.394099	-1.399942E-009	-3.050685E-005	5
	31	244	237.7717	717024.2	-90295.67	1	722687.3	-7.17754	-1.436292E-009	-7.265624E-005	5
	32	246	189.0121	733667.9	-77792.37	1	737780.6	-6.052578	-1.343502E-009	-7.603644E-005	5
	33	249	150.2404	752090.8	-66571.13	1	755031.3	-5.058339	-1.359025E-009	-8.084162E-005	5
	34	252	119.1737	763908.8	-50942.32	1	765605.4	-3.8152	-1.363979E-009	-9.405391E-005	5
	35	254	95.0169	786299.6	-50940.92	1	787947.9	-3.706763	-1.430896E-009	-7.612699E-006	5
	36	256	75.60484	801770.5	-43760.47	1	802963.8	-3.124092	-1.37517E-009	-1.304361E-005	5
	37	259	54.50582	819836.8	-32648.96	1	820486.6	-2.280527	-1.385687E-009	-6.453279E-005	5
	38	262	45.95588	835152.8	-31872.73	1	835760.8	-2.185573	-1.430033E-009	-7.330043E-005	5
	39	264	37.20238	849081.4	-28059.17	1	849544.9	-1.892736	-1.375502E-009	-2.425027E-005	5
	40	266	30.04808	865734.5	-24172.19	1	866071.9	-1.599341	-1.43151E-009	-2.590064E-005	5
	41	269	23.91582	883658.1	-21371.02	1	883916.4	-1.385412	-1.243436E-009	-8.297477E-005	5
	42	272	18.60119	899724.9	-17157.99	1	899888.4	-1.092513	-1.245922E-009	-0.0001025	5
	43	274	15.02404	914800.8	-15952.89	1	914939.8	-0.999059	-1.197398E-009	-8.030424E-005	5
	44	277	12.01923	932273.1	-14084.18	1	932379.5	-0.8655215	-1.175427E-009	-0.0001105	5
	45	279	9.450605	948802.3	-12780.95	1	948888.3	-0.7717628	-1.246866E-009	-2.659415E-005	5
	46	282	7.512019	967573	-11705.26	1	967644	-0.6931046	-1.213646E-009	6.32868E-006	5
	47	285	5.978954	992689	-11095.43	1	992751	-0.6403767	-1.257649E-009	-3.109802E-005	5
	48	289	4.734848	1018954	-10860.14	1	1019012	-0.6106426	-1.145566E-009	7.120647E-006	5
	49	292	3.75601	1051630	-10953.99	1	1051687	-0.5967831	-1.438216E-009	-2.104451E-005	5
	50	298	3.004808	1096044	-11294.15	1	1096103	-0.5903813	-1.483518E-009	-7.638137E-005	5
	51	304	2.372217	1137476	-11522.88	1	1137534	-0.5803987	-1.470927E-009	1.497671E-005	5
	52	309	1.878005	1174095	-12883.53	1	1174166	-0.6286902	-1.755141E-009	-8.130924E-005	5
	53	313	1.512097	1217216	-14722.9	1	1217305	-0.6929905	-1.814021E-009	-4.591699E-005	5
	54	319	1.201923	1268677	-16097.64	1	1268780	-0.7269595	-1.667625E-009	-8.314628E-005	5
	55	325	0.956633	1327809	-19807.27	1	1327956	-0.8546327	-2.165935E-009	-0.0006003	5
