EXPLAIN
TAG	EISPOT
TITLE	LABEL	Potentiostatic EIS	Test Identifier
DATE	LABEL	11/20/2021	Date
TIME	LABEL	13:16:42	Time
NOTES	NOTES	1	Notes...
	
PSTAT	PSTAT	REF3000-16137	Potentiostat
VDC	POTEN	0.00000E+000	T	DC Voltage (V)
FREQINIT	QUANT	3.00000E+005	Initial Freq. (Hz)
FREQFINAL	QUANT	1.00000E+000	Final Freq. (Hz)
PTSPERDEC	QUANT	1.00000E+001	Points/decade
VAC	QUANT	5.00000E+001	AC Voltage (mV rms)
AREA	QUANT	1.00000E+000	Sample Area (cm^2)
SPEED	SELECTOR	2	Optimize for:
ZGUESS	QUANT	1.00000E+003	Estimated Z (ohms)
EOC	QUANT	0	Open Circuit (V)
SEQUENCER	TOGGLE	TRUE	Run as Sequence
PSTATMODEL	IQUANT	5	Pstat Model
PSTATSECTION	LABEL	REF3000-16137	Pstat Section
PSTATSERIALNO	LABEL	16137	Pstat Serial Number
CTRLMODE	IQUANT	1	Control Mode
IESTAB	IQUANT	0	I/E Stability
CASPEED	IQUANT	1	Control Amp Speed
CONVENTION	IQUANT	1	Current Convention
ICHRANGE	IQUANT	2	Ich Range
ICHRANGEMODE	TOGGLE	F	Ich Auto Range
ICHOFFSETENABLE	TOGGLE	T	Ich Offset Enable
ICHOFFSET	QUANT	0	Ich Offset (V)
ICHFILTER	IQUANT	3	Ich Filter
VCHRANGE	IQUANT	2	Vch Range
VCHRANGEMODE	TOGGLE	F	Vch Auto Range
VCHOFFSETENABLE	TOGGLE	T	Vch Offset Enable
VCHOFFSET	QUANT	0	Vch Offset (V)
VCHFILTER	IQUANT	3	Vch Filter
ACHRANGE	IQUANT	2	Ach Range
ACHOFFSETENABLE	TOGGLE	F	Ach Offset Enable
ACHOFFSET	QUANT	0	Ach Offset (V)
ACHFILTER	IQUANT	3	Ach Filter
IERANGELOWERLIMIT	IQUANT	2	I/E Range Lower Limit
IERANGEMODE	TOGGLE	F	I/E AutoRange
IERANGE	IQUANT	11	I/E Range
POSFEEDENABLE	TOGGLE	F	Positive Feedback IR Comp
POSFEEDRESISTANCE	QUANT	0	Positive Feedback Resistance (ohm)
ACHSELECT	IQUANT	0	Ach Select
CABLEID	IQUANT	13	Cable ID
DCCALDATE	LABEL	9/10/2021	DC Calibration Date
ACCALDATE	LABEL	9/10/2021	AC Calibration Date
THERMOSELECT	IQUANT	1	Thermo Select
FRAMEWORKVERSION	QUANT	6.33	Framework Version
INSTRUMENTVERSION	LABEL	3.50	Instrument Version
COMPLIANCEVOLTAGE	IQUANT	0	Compliance Voltage
ZCURVE	TABLE
	Pt	Time	Freq	Zreal	Zimag	Zsig	Zmod	Zphz	Idc	Vdc	IERange
	#	s	Hz	ohm	ohm	V	ohm	°	A	V	#
	0	10	300046.9	3.502223	2.296811	1	4.188187	33.25747	3.501429E-005	-0.0008186	10
	1	14	238359.4	3.47292	1.819401	1	3.920637	27.64925	-1.262077E-005	-0.0012293	10
	2	17	189328.1	3.458489	1.416965	1	3.737504	22.27923	1.631823E-005	-0.000907	10
	3	19	150421.9	3.45803	1.092828	1	3.626602	17.53789	1.752334E-006	-0.0006968	10
	4	22	119484.4	3.448149	0.8217164	1	3.544708	13.40395	6.222099E-005	-0.0007389	10
	5	24	94921.88	3.459138	0.6102	1	3.512546	10.00419	2.719261E-005	-0.0004133	10
	6	27	75421.88	3.473871	0.4245877	1	3.499722	6.968314	3.783275E-005	-0.000347	10
	7	29	59859.37	3.491395	0.2673743	1	3.501618	4.379217	-1.813608E-005	-0.0002886	10
	8	32	47578.12	3.513172	0.1322728	1	3.515661	2.156197	-2.490894E-005	-0.0002391	10
	9	34	37828.12	3.537224	0.0121196	1	3.537245	0.1963127	2.53162E-005	-0.0001929	10
	10	37	30046.88	3.563993	-0.0984128	1	3.565352	-1.58171	1.807967E-006	-0.0001818	10
	11	39	23859.38	3.591735	-0.2056046	1	3.597615	-3.276252	-1.658658E-005	-0.0001391	10
	12	42	18984.38	3.618621	-0.3137715	1	3.6322	-4.955734	2.515224E-005	-0.0001291	10
	13	44	15046.87	3.645634	-0.4310273	1	3.671026	-6.74284	-8.716921E-006	-0.0001457	10
	14	46	11953.13	3.674704	-0.5620484	1	3.717438	-8.696034	-1.475708E-005	-0.0001026	10
	15	49	9515.62	3.702164	-0.7129703	1	3.770192	-10.90068	1.359611E-005	-0.0001377	10
	16	51	7546.875	3.733952	-0.8973417	1	3.840263	-13.51304	2.963418E-006	-0.0001469	10
	17	53	5928.309	3.769991	-1.130192	1	3.935755	-16.68801	1.560541E-005	-0.0001264	10
	18	56	4733.456	3.808682	-1.397278	1	4.056901	-20.14639	1.991127E-005	-0.0001388	10
	19	58	3796.875	3.853977	-1.715828	1	4.218673	-23.99909	9.324558E-007	-0.000128	10
	20	60	2987.132	3.91151	-2.146667	1	4.461848	-28.75832	-1.36891E-005	-0.0001234	10
	21	62	2390.625	3.977358	-2.640198	1	4.77389	-33.57649	2.190105E-005	-0.0001282	10
	22	65	1884.191	4.064739	-3.29151	1	5.23031	-38.99957	-2.584105E-005	-0.0001251	10
	23	67	1516.544	4.164587	-4.024844	1	5.791646	-44.02241	-2.618774E-005	-0.000126	10
	24	69	1193.986	4.304851	-5.020582	1	6.61347	-49.38887	1.890477E-005	-0.0001263	10
	25	72	946.5144	4.477616	-6.230244	1	7.672352	-54.29556	-5.730817E-006	-0.0001483	10
	26	74	751.7689	4.70734	-7.70028	1	9.025151	-58.5617	1.817566E-005	-0.0001355	10
	27	77	597.4265	4.998319	-9.51985	1	10.75224	-62.29864	-1.416688E-005	-0.000127	10
	28	79	477.4305	5.383808	-11.70194	1	12.88103	-65.29388	-6.822983E-007	-0.0001138	10
	29	81	376.6741	5.914143	-14.52902	1	15.6866	-67.85086	-3.073267E-007	-0.000114	10
	30	83	298.2954	6.609245	-17.95551	1	19.13328	-69.79183	-5.503662E-007	-0.0001086	10
	31	86	237.7717	7.50431	-22.02046	1	23.26404	-71.1815	-3.790914E-007	-0.0001177	10
	32	88	189.0121	8.696496	-27.01411	1	28.37942	-72.15537	-9.29264E-007	-0.0001171	10
	33	91	150.2404	10.26503	-33.06506	1	34.6218	-72.75307	-9.375343E-007	-0.0001115	10
	34	93	119.1737	12.32483	-40.42398	1	42.26109	-73.04411	-8.364149E-007	-0.0001106	10
	35	95	95.0169	14.89439	-48.99008	1	51.2042	-73.08923	5.406078E-007	-0.0001277	9
	36	98	75.60484	18.20738	-59.36365	1	62.09309	-72.94874	4.839349E-007	-0.0001303	9
	37	100	54.50582	24.47413	-77.7211	1	81.48344	-72.52095	4.050842E-007	-0.0001399	9
	38	103	45.95588	28.58227	-89.24151	1	93.70695	-72.24078	6.657014E-007	-0.0001313	9
	39	105	37.20238	34.60582	-105.6773	1	111.1992	-71.8681	7.76714E-007	-0.0001304	9
	40	108	30.04808	41.94914	-125.1987	1	132.0395	-71.47603	5.984397E-007	-0.0001331	9
	41	110	23.91582	51.29683	-149.8163	1	158.3549	-71.09889	6.035064E-007	-0.0001261	9
	42	112	18.60119	63.62283	-182.3672	1	193.1467	-70.76754	2.797833E-007	-0.0001212	9
	43	115	15.02404	76.40741	-215.7012	1	228.8342	-70.49442	4.089401E-007	-0.0001247	9
	44	117	12.01923	92.87014	-257.2731	1	273.5221	-70.1515	9.105901E-007	-0.0001325	9
	45	119	9.450605	115.2854	-311.3987	1	332.054	-69.68455	8.609431E-007	-0.0001362	9
	46	122	7.512019	142.7787	-373.446	1	399.8096	-69.07676	6.82981E-007	-0.0001169	9
	47	125	5.978954	178.0444	-444.1443	1	478.5018	-68.1556	4.750143E-007	-0.0001229	8
	48	128	4.734848	226.2249	-531.0905	1	577.2649	-66.92779	6.664813E-007	-0.000125	8
	49	131	3.75601	288.3621	-629.7544	1	692.635	-65.39714	4.982359E-007	-0.0001248	8
	50	134	3.004808	365.3856	-735.4905	1	821.2509	-63.5822	7.610195E-007	-0.0001471	8
	51	138	2.372217	468.7175	-858.5435	1	978.158	-61.36789	4.668979E-007	-0.0001501	8
	52	142	1.878005	598.7843	-986.789	1	1154.251	-58.75059	5.203297E-007	-0.000116	8
	53	147	1.512097	741.7901	-1108.343	1	1333.67	-56.20645	6.430033E-007	-0.0002236	8
	54	152	1.201923	919.6242	-1238.53	1	1542.617	-53.40565	5.106735E-007	-9.303264E-005	8
	55	159	0.956633	1120.037	-1363.261	1	1764.359	-50.59392	3.385934E-007	-0.0006632	8
