EXPLAIN
TAG	EISPOT
TITLE	LABEL	Potentiostatic EIS	Test Identifier
DATE	LABEL	11/20/2021	Date
TIME	LABEL	14:09:29	Time
NOTES	NOTES	1	Notes...
	
PSTAT	PSTAT	REF3000-16137	Potentiostat
VDC	POTEN	0.00000E+000	T	DC Voltage (V)
FREQINIT	QUANT	3.00000E+005	Initial Freq. (Hz)
FREQFINAL	QUANT	1.00000E+000	Final Freq. (Hz)
PTSPERDEC	QUANT	1.00000E+001	Points/decade
VAC	QUANT	5.00000E+001	AC Voltage (mV rms)
AREA	QUANT	1.00000E+000	Sample Area (cm^2)
SPEED	SELECTOR	2	Optimize for:
ZGUESS	QUANT	1.00000E+003	Estimated Z (ohms)
EOC	QUANT	0	Open Circuit (V)
SEQUENCER	TOGGLE	TRUE	Run as Sequence
PSTATMODEL	IQUANT	5	Pstat Model
PSTATSECTION	LABEL	REF3000-16137	Pstat Section
PSTATSERIALNO	LABEL	16137	Pstat Serial Number
CTRLMODE	IQUANT	1	Control Mode
IESTAB	IQUANT	0	I/E Stability
CASPEED	IQUANT	1	Control Amp Speed
CONVENTION	IQUANT	1	Current Convention
ICHRANGE	IQUANT	2	Ich Range
ICHRANGEMODE	TOGGLE	F	Ich Auto Range
ICHOFFSETENABLE	TOGGLE	T	Ich Offset Enable
ICHOFFSET	QUANT	0	Ich Offset (V)
ICHFILTER	IQUANT	3	Ich Filter
VCHRANGE	IQUANT	2	Vch Range
VCHRANGEMODE	TOGGLE	F	Vch Auto Range
VCHOFFSETENABLE	TOGGLE	T	Vch Offset Enable
VCHOFFSET	QUANT	0	Vch Offset (V)
VCHFILTER	IQUANT	3	Vch Filter
ACHRANGE	IQUANT	2	Ach Range
ACHOFFSETENABLE	TOGGLE	F	Ach Offset Enable
ACHOFFSET	QUANT	0	Ach Offset (V)
ACHFILTER	IQUANT	3	Ach Filter
IERANGELOWERLIMIT	IQUANT	2	I/E Range Lower Limit
IERANGEMODE	TOGGLE	F	I/E AutoRange
IERANGE	IQUANT	11	I/E Range
POSFEEDENABLE	TOGGLE	F	Positive Feedback IR Comp
POSFEEDRESISTANCE	QUANT	0	Positive Feedback Resistance (ohm)
ACHSELECT	IQUANT	0	Ach Select
CABLEID	IQUANT	13	Cable ID
DCCALDATE	LABEL	9/10/2021	DC Calibration Date
ACCALDATE	LABEL	9/10/2021	AC Calibration Date
THERMOSELECT	IQUANT	1	Thermo Select
FRAMEWORKVERSION	QUANT	6.33	Framework Version
INSTRUMENTVERSION	LABEL	3.50	Instrument Version
COMPLIANCEVOLTAGE	IQUANT	0	Compliance Voltage
ZCURVE	TABLE
	Pt	Time	Freq	Zreal	Zimag	Zsig	Zmod	Zphz	Idc	Vdc	IERange
	#	s	Hz	ohm	ohm	V	ohm	°	A	V	#
	0	7	300046.9	134.4766	-2.754927	1	134.5049	-1.173614	7.239266E-005	-0.003025	9
	1	10	238359.4	135.3312	-2.337097	1	135.3514	-0.989369	6.322363E-005	-0.002916	9
	2	13	189328.1	136.8955	-1.980146	1	136.9098	-0.828706	1.337041E-005	-0.0017125	9
	3	16	150421.9	137.633	-2.111394	1	137.6492	-0.8788913	-5.448651E-006	0.0010458	9
	4	19	119484.4	138.5589	-1.826936	1	138.5709	-0.7554163	1.387665E-005	-0.0015129	9
	5	21	94921.88	139.1532	-1.430271	1	139.1606	-0.5888878	1.363244E-005	-0.0008741	9
	6	24	75421.88	140.1873	-1.357038	1	140.1939	-0.5546157	-1.399808E-005	0.0005735	9
	7	26	59859.37	141.0394	-1.21528	1	141.0446	-0.4936828	-1.416584E-005	0.0006007	9
	8	29	47578.12	141.8942	-1.154017	1	141.8989	-0.4659727	2.172648E-005	-0.0005413	9
	9	31	37828.12	142.834	-1.089424	1	142.8382	-0.436998	-1.605225E-005	-5.640687E-005	9
	10	34	30046.88	143.7574	-1.042949	1	143.7612	-0.4156692	-2.217578E-005	0.0005786	9
	11	36	23859.38	144.5018	-0.9323845	1	144.5048	-0.3696906	-8.77296E-006	-0.0002867	9
	12	39	18984.38	145.3735	-1.063243	1	145.3773	-0.4190466	1.202824E-005	-0.0008483	9
	13	41	15046.87	146.1339	-1.118566	1	146.1382	-0.4385556	2.375674E-005	-0.0006309	9
	14	43	11953.13	147.2095	-1.368128	1	147.2159	-0.5324773	-2.012282E-005	0.0006658	9
	15	46	9515.62	147.947	-1.416149	1	147.9538	-0.5484185	-2.277213E-005	0.0005193	9
	16	48	7546.875	148.9358	-1.856209	1	148.9474	-0.7140488	1.78423E-006	0.0003277	9
	17	50	5928.309	149.7665	-2.06776	1	149.7808	-0.7910072	-2.173456E-005	0.0003287	9
	18	53	4733.456	150.7295	-2.621922	1	150.7523	-0.996553	1.062664E-005	-1.091542E-005	9
	19	55	3796.875	151.6898	-3.171333	1	151.7229	-1.197691	-6.637039E-006	0.0005202	9
	20	57	2987.132	152.5667	-3.716619	1	152.6119	-1.395485	-1.803018E-005	7.221605E-005	9
	21	60	2390.625	153.5296	-4.479157	1	153.595	-1.671104	1.902447E-005	-0.000919	9
	22	62	1884.191	154.2952	-5.773592	1	154.4032	-2.142958	1.110488E-005	-1.461073E-005	9
	23	64	1516.544	155.5582	-6.850743	1	155.709	-2.521661	2.206438E-005	-0.0005038	9
	24	66	1193.986	156.6493	-8.437466	1	156.8764	-3.083094	1.778197E-006	0.0003035	9
	25	69	946.5144	157.7503	-10.23643	1	158.0821	-3.712722	-2.266574E-005	0.0004485	9
	26	71	751.7689	158.8871	-12.82371	1	159.4038	-4.614316	-2.246705E-005	0.0006217	9
	27	74	597.4265	160.256	-15.80407	1	161.0334	-5.632164	-1.607447E-005	-1.623578E-005	9
	28	76	477.4305	161.5903	-19.58949	1	162.7734	-6.912199	2.70929E-007	-0.0001107	9
	29	78	376.6741	163.0246	-24.38033	1	164.8376	-8.505546	3.625005E-007	-0.0001223	9
	30	81	298.2954	164.6026	-30.26298	1	167.3615	-10.41776	3.464438E-007	-0.0001167	9
	31	83	237.7717	166.3732	-37.36429	1	170.5173	-12.65754	2.74704E-007	-0.0001239	9
	32	85	189.0121	168.3689	-46.25467	1	174.607	-15.36145	3.430591E-007	-0.00012	9
	33	88	150.2404	170.6393	-57.26228	1	179.991	-18.55046	7.067674E-007	-0.0001633	9
	34	90	119.1737	173.2668	-70.99605	1	187.248	-22.28135	2.745093E-007	-0.0001205	9
	35	93	95.0169	176.2893	-87.59623	1	196.8528	-26.42228	2.90942E-007	-0.0001247	9
	36	95	75.60484	179.8911	-108.2628	1	209.9563	-31.04056	2.970462E-007	-0.0001267	9
	37	98	54.50582	185.8068	-146.484	1	236.6046	-38.25109	2.535149E-007	-0.0001232	9
	38	100	45.95588	190.0896	-171.5666	1	256.0648	-42.06803	3.111759E-007	-0.000115	9
	39	103	37.20238	195.9381	-208.5043	1	286.122	-46.77962	2.991526E-007	-0.0001227	9
	40	105	30.04808	203.0321	-253.9598	1	325.1425	-51.35888	2.544762E-007	-0.0001253	9
	41	107	23.91582	212.2586	-313.4406	1	378.5482	-55.89457	2.792164E-007	-0.000126	9
	42	110	18.60119	223.7448	-393.534	1	452.6928	-60.37949	-3.472786E-008	-0.0001097	8
	43	112	15.02404	237.0565	-479.0405	1	534.4863	-63.67117	5.176477E-008	-0.0001147	8
	44	114	12.01923	254.5813	-588.4517	1	641.1606	-66.60529	-7.054273E-008	-0.0001047	8
	45	117	9.450605	278.5656	-733.9536	1	785.0393	-69.21618	1.23604E-008	-0.0001112	8
	46	119	7.512019	307.8287	-906.3141	1	957.164	-71.24	1.194593E-009	-9.135809E-005	8
	47	122	5.978954	345.8735	-1116.487	1	1168.833	-72.78768	-4.363019E-008	-0.0001087	8
	48	125	4.734848	396.3687	-1382.655	1	1438.347	-74.00388	2.188236E-008	-0.000103	8
	49	128	3.75601	461.7665	-1705.924	1	1767.316	-74.8539	-4.241265E-008	-0.0001036	8
	50	132	3.004808	543.9176	-2085.314	1	2155.083	-75.38112	2.052833E-008	-0.0001432	8
	51	135	2.372217	656.173	-2578.384	1	2660.569	-75.72189	-2.01875E-008	-0.0001709	8
	52	140	1.878005	805.9753	-3171.946	1	3272.742	-75.74315	-1.397694E-008	-0.0001035	8
	53	144	1.512097	986.145	-3833.594	1	3958.4	-75.57413	-1.906332E-008	-0.000191	8
	54	150	1.201923	1225.756	-4700.466	1	4857.66	-75.38428	-9.086085E-009	-6.188116E-005	7
	55	156	0.956633	1528.33	-5723.22	1	5923.769	-75.0486	-2.694446E-008	-0.0006447	7
