EXPLAIN
TAG	EISPOT
TITLE	LABEL	Potentiostatic EIS	Test Identifier
DATE	LABEL	11/20/2021	Date
TIME	LABEL	13:36:17	Time
NOTES	NOTES	1	Notes...
	
PSTAT	PSTAT	REF3000-16137	Potentiostat
VDC	POTEN	0.00000E+000	T	DC Voltage (V)
FREQINIT	QUANT	3.00000E+005	Initial Freq. (Hz)
FREQFINAL	QUANT	1.00000E+000	Final Freq. (Hz)
PTSPERDEC	QUANT	1.00000E+001	Points/decade
VAC	QUANT	5.00000E+001	AC Voltage (mV rms)
AREA	QUANT	1.00000E+000	Sample Area (cm^2)
SPEED	SELECTOR	2	Optimize for:
ZGUESS	QUANT	1.00000E+003	Estimated Z (ohms)
EOC	QUANT	0	Open Circuit (V)
SEQUENCER	TOGGLE	TRUE	Run as Sequence
PSTATMODEL	IQUANT	5	Pstat Model
PSTATSECTION	LABEL	REF3000-16137	Pstat Section
PSTATSERIALNO	LABEL	16137	Pstat Serial Number
CTRLMODE	IQUANT	1	Control Mode
IESTAB	IQUANT	0	I/E Stability
CASPEED	IQUANT	1	Control Amp Speed
CONVENTION	IQUANT	1	Current Convention
ICHRANGE	IQUANT	2	Ich Range
ICHRANGEMODE	TOGGLE	F	Ich Auto Range
ICHOFFSETENABLE	TOGGLE	T	Ich Offset Enable
ICHOFFSET	QUANT	0	Ich Offset (V)
ICHFILTER	IQUANT	3	Ich Filter
VCHRANGE	IQUANT	2	Vch Range
VCHRANGEMODE	TOGGLE	F	Vch Auto Range
VCHOFFSETENABLE	TOGGLE	T	Vch Offset Enable
VCHOFFSET	QUANT	0	Vch Offset (V)
VCHFILTER	IQUANT	3	Vch Filter
ACHRANGE	IQUANT	2	Ach Range
ACHOFFSETENABLE	TOGGLE	F	Ach Offset Enable
ACHOFFSET	QUANT	0	Ach Offset (V)
ACHFILTER	IQUANT	3	Ach Filter
IERANGELOWERLIMIT	IQUANT	2	I/E Range Lower Limit
IERANGEMODE	TOGGLE	F	I/E AutoRange
IERANGE	IQUANT	11	I/E Range
POSFEEDENABLE	TOGGLE	F	Positive Feedback IR Comp
POSFEEDRESISTANCE	QUANT	0	Positive Feedback Resistance (ohm)
ACHSELECT	IQUANT	0	Ach Select
CABLEID	IQUANT	13	Cable ID
DCCALDATE	LABEL	9/10/2021	DC Calibration Date
ACCALDATE	LABEL	9/10/2021	AC Calibration Date
THERMOSELECT	IQUANT	1	Thermo Select
FRAMEWORKVERSION	QUANT	6.33	Framework Version
INSTRUMENTVERSION	LABEL	3.50	Instrument Version
COMPLIANCEVOLTAGE	IQUANT	0	Compliance Voltage
ZCURVE	TABLE
	Pt	Time	Freq	Zreal	Zimag	Zsig	Zmod	Zphz	Idc	Vdc	IERange
	#	s	Hz	ohm	ohm	V	ohm	°	A	V	#
	0	8	300046.9	7.083117	2.268077	1	7.437387	17.75552	-3.404047E-007	-0.0008241	10
	1	11	238359.4	7.071606	1.798761	1	7.296791	14.27132	-0.0000972	-0.0010228	10
	2	14	189328.1	7.053857	1.410709	1	7.193539	11.30945	5.290637E-005	-0.0005138	10
	3	16	150421.9	7.0391	1.103052	1	7.125002	8.906027	-3.379468E-005	-0.0004381	10
	4	19	119484.4	7.0561	0.8409048	1	7.10603	6.796124	9.285228E-007	-0.0003248	10
	5	21	94921.88	7.069755	0.6420999	1	7.098854	5.189566	2.110057E-005	-0.0002329	10
	6	24	75421.88	7.079251	0.4570086	1	7.093987	3.693665	2.007762E-005	-0.0002274	10
	7	27	59859.37	7.095068	0.2978818	1	7.101319	2.404114	-6.536207E-006	-0.0002085	10
	8	29	47578.12	7.117574	0.1584711	1	7.119338	1.275466	2.009327E-005	-0.0001668	10
	9	32	37828.12	7.142049	0.0327462	1	7.142124	0.2626988	-1.759157E-005	-0.0002215	10
	10	34	30046.88	7.16771	-0.0871503	1	7.16824	-0.69661	4.072664E-006	-0.0001788	10
	11	37	23859.38	7.196643	-0.2054607	1	7.199575	-1.635322	7.040035E-006	-0.0001493	10
	12	39	18984.38	7.225899	-0.3289905	1	7.233385	-2.606839	-7.518965E-006	-0.0001526	10
	13	41	15046.87	7.257738	-0.4666125	1	7.272722	-3.678581	1.373088E-005	-0.0001464	10
	14	44	11953.13	7.293995	-0.6197067	1	7.320273	-4.856257	1.587761E-005	-0.0001322	10
	15	46	9515.62	7.333224	-0.7975888	1	7.376471	-6.207303	-1.271541E-005	-0.0001601	10
	16	48	7546.875	7.374521	-1.013903	1	7.443894	-7.82836	-2.724547E-005	-0.0001425	10
	17	50	5928.309	7.423297	-1.285535	1	7.533786	-9.8248	2.485733E-005	-0.0001158	10
	18	53	4733.456	7.475468	-1.596476	1	7.64404	-12.0551	-3.282608E-006	-0.0001224	10
	19	55	3796.875	7.533735	-1.968145	1	7.786575	-14.64097	-2.876646E-005	-0.0001491	10
	20	57	2987.132	7.607592	-2.463708	1	7.996581	-17.94448	2.398159E-005	-0.0001179	10
	21	60	2390.625	7.689904	-3.036574	1	8.267733	-21.54797	-2.838291E-005	-0.0001439	10
	22	62	1884.191	7.795187	-3.789039	1	8.667281	-25.92319	-2.666349E-005	-0.0001124	10
	23	64	1516.544	7.91073	-4.635675	1	9.168922	-30.37023	-2.486441E-005	-0.0001156	10
	24	67	1193.986	8.065682	-5.788077	1	9.92759	-35.66389	-2.066493E-005	-0.000111	10
	25	69	946.5144	8.254704	-7.176775	1	10.93829	-41.00423	1.837814E-005	-0.000156	10
	26	71	751.7689	8.485488	-8.885545	1	12.28643	-46.31929	1.385568E-005	-0.0001385	10
	27	74	597.4265	8.771422	-10.99357	1	14.06402	-51.41475	-3.301344E-006	-0.0001363	10
	28	76	477.4305	9.137113	-13.54422	1	16.33808	-55.99587	5.982264E-008	-0.0001071	10
	29	78	376.6741	9.61766	-16.86157	1	19.41164	-60.30001	-2.283424E-007	-0.0001131	10
	30	81	298.2954	10.23038	-20.91963	1	23.28716	-63.93985	-3.871949E-007	-0.0001083	10
	31	83	237.7717	11.0041	-25.78732	1	28.03705	-66.89083	-1.49186E-007	-0.0001138	10
	32	85	189.0121	12.02948	-31.85753	1	34.05305	-69.31334	-8.840802E-007	-0.0001078	10
	33	88	150.2404	13.37456	-39.31617	1	41.52879	-71.21275	-5.50432E-007	-0.0001079	10
	34	90	119.1737	15.14916	-48.50364	1	50.81437	-72.65483	5.251043E-007	-0.0001251	9
	35	93	95.0169	17.46453	-59.53616	1	62.04486	-73.65131	4.736509E-007	-0.0001287	9
	36	95	75.60484	20.54265	-73.0862	1	75.91833	-74.3007	4.311936E-007	-0.0001245	9
	37	98	54.50582	26.68916	-97.62	1	101.2027	-74.7091	4.566316E-007	-0.0001313	9
	38	100	45.95588	30.95753	-113.3088	1	117.4617	-74.71893	4.830471E-007	-0.0001224	9
	39	102	37.20238	37.49025	-135.8933	1	140.9699	-74.57688	6.523112E-007	-0.0001293	9
	40	105	30.04808	45.78378	-162.8952	1	169.207	-74.3013	8.251808E-007	-0.0001652	9
	41	107	23.91582	56.91514	-197.1563	1	205.207	-73.89761	3.577453E-007	-0.000129	9
	42	110	18.60119	72.4037	-242.2661	1	252.854	-73.36069	4.438313E-007	-0.000129	9
	43	112	15.02404	88.59384	-287.9841	1	301.3034	-72.9003	7.210587E-007	-0.0001243	9
	44	114	12.01923	109.0375	-344.1147	1	360.9766	-72.41848	6.817513E-007	-0.0001314	9
	45	117	9.450605	135.0065	-414.2863	1	435.7291	-71.95038	4.070245E-007	-0.0001244	8
	46	119	7.512019	164.8645	-496.3686	1	523.0316	-71.62655	5.280023E-007	-0.0001314	8
	47	122	5.978954	200.6659	-594.0712	1	627.0465	-71.33601	6.577445E-007	-0.0001216	8
	48	125	4.734848	245.2004	-715.281	1	756.1416	-71.07813	6.026776E-007	-0.0001046	8
	49	128	3.75601	299.3042	-860.8721	1	911.4185	-70.82868	6.102004E-007	-0.0001173	8
	50	131	3.004808	365.1742	-1028.931	1	1091.811	-70.4599	4.682087E-007	-8.394412E-005	8
	51	135	2.372217	456.0945	-1244.528	1	1325.47	-69.87312	5.692334E-007	-5.059792E-005	8
	52	139	1.878005	572.1429	-1497.787	1	1603.345	-69.09354	4.670776E-007	-0.0001441	8
	53	144	1.512097	712.222	-1769.668	1	1907.612	-68.07715	5.001707E-007	-8.706789E-005	8
	54	149	1.201923	907.8999	-2112.047	1	2298.918	-66.73871	5.159993E-007	-0.000142	8
	55	156	0.956633	1157.736	-2495.682	1	2751.142	-65.11362	4.172121E-007	-0.0006639	8
