EXPLAIN
TAG	EISPOT
TITLE	LABEL	Potentiostatic EIS	Test Identifier
DATE	LABEL	11/20/2021	Date
TIME	LABEL	12:53:57	Time
NOTES	NOTES	1	Notes...
	
PSTAT	PSTAT	REF3000-16137	Potentiostat
VDC	POTEN	0.00000E+000	T	DC Voltage (V)
FREQINIT	QUANT	3.00000E+005	Initial Freq. (Hz)
FREQFINAL	QUANT	1.00000E+000	Final Freq. (Hz)
PTSPERDEC	QUANT	1.00000E+001	Points/decade
VAC	QUANT	5.00000E+001	AC Voltage (mV rms)
AREA	QUANT	1.00000E+000	Sample Area (cm^2)
SPEED	SELECTOR	2	Optimize for:
ZGUESS	QUANT	1.00000E+003	Estimated Z (ohms)
EOC	QUANT	0	Open Circuit (V)
SEQUENCER	TOGGLE	TRUE	Run as Sequence
PSTATMODEL	IQUANT	5	Pstat Model
PSTATSECTION	LABEL	REF3000-16137	Pstat Section
PSTATSERIALNO	LABEL	16137	Pstat Serial Number
CTRLMODE	IQUANT	1	Control Mode
IESTAB	IQUANT	0	I/E Stability
CASPEED	IQUANT	1	Control Amp Speed
CONVENTION	IQUANT	1	Current Convention
ICHRANGE	IQUANT	2	Ich Range
ICHRANGEMODE	TOGGLE	F	Ich Auto Range
ICHOFFSETENABLE	TOGGLE	T	Ich Offset Enable
ICHOFFSET	QUANT	0	Ich Offset (V)
ICHFILTER	IQUANT	3	Ich Filter
VCHRANGE	IQUANT	2	Vch Range
VCHRANGEMODE	TOGGLE	F	Vch Auto Range
VCHOFFSETENABLE	TOGGLE	T	Vch Offset Enable
VCHOFFSET	QUANT	0	Vch Offset (V)
VCHFILTER	IQUANT	3	Vch Filter
ACHRANGE	IQUANT	2	Ach Range
ACHOFFSETENABLE	TOGGLE	F	Ach Offset Enable
ACHOFFSET	QUANT	0	Ach Offset (V)
ACHFILTER	IQUANT	3	Ach Filter
IERANGELOWERLIMIT	IQUANT	2	I/E Range Lower Limit
IERANGEMODE	TOGGLE	F	I/E AutoRange
IERANGE	IQUANT	11	I/E Range
POSFEEDENABLE	TOGGLE	F	Positive Feedback IR Comp
POSFEEDRESISTANCE	QUANT	0	Positive Feedback Resistance (ohm)
ACHSELECT	IQUANT	0	Ach Select
CABLEID	IQUANT	13	Cable ID
DCCALDATE	LABEL	9/10/2021	DC Calibration Date
ACCALDATE	LABEL	9/10/2021	AC Calibration Date
THERMOSELECT	IQUANT	1	Thermo Select
FRAMEWORKVERSION	QUANT	6.33	Framework Version
INSTRUMENTVERSION	LABEL	3.50	Instrument Version
COMPLIANCEVOLTAGE	IQUANT	0	Compliance Voltage
ZCURVE	TABLE
	Pt	Time	Freq	Zreal	Zimag	Zsig	Zmod	Zphz	Idc	Vdc	IERange
	#	s	Hz	ohm	ohm	V	ohm	°	A	V	#
	0	10	300046.9	2.320949	2.258678	1	3.238585	44.22098	-3.22611E-005	-0.0005414	11
	1	13	238359.4	2.277118	1.763628	1	2.880217	37.75779	-8.508172E-005	-0.0005491	11
	2	16	189328.1	2.336053	1.200612	1	2.626521	27.20084	4.456563E-005	-0.0006603	12
	3	20	150421.9	2.309977	0.9059337	1	2.481272	21.41427	-3.339397E-006	-0.0004718	12
	4	23	119484.4	2.295806	0.6625696	1	2.389503	16.09814	-4.863794E-005	-0.0003743	12
	5	27	94921.88	2.302292	0.4569503	1	2.347201	11.22596	1.944691E-005	-0.0002804	12
	6	31	75421.88	2.312797	0.3544467	1	2.339799	8.713048	-7.595067E-005	0.0001823	11
	7	33	59859.37	2.344585	0.2028565	1	2.353344	4.944991	-3.558261E-006	0.0002891	11
	8	36	47578.12	2.377985	0.0764011	1	2.379212	1.840193	2.382449E-007	0.0003415	11
	9	38	37828.12	2.412388	-0.0672039	1	2.413324	-1.595724	-3.579055E-008	-0.0002304	12
	10	42	30046.88	2.448216	-0.1284611	1	2.451584	-3.00363	-6.350434E-005	0.000339	11
	11	44	23859.38	2.480631	-0.2195281	1	2.490325	-5.057324	-3.898311E-005	0.0003613	11
	12	47	18984.38	2.511132	-0.3099671	1	2.53019	-7.036836	-2.77661E-005	0.0003732	11
	13	49	15046.87	2.540677	-0.4089506	1	2.573379	-9.143972	-4.396101E-005	0.0003664	11
	14	51	11953.13	2.568633	-0.519241	1	2.620589	-11.42816	-5.906359E-005	0.0003583	11
	15	53	9515.62	2.596111	-0.6468498	1	2.675483	-13.99099	-1.405397E-005	0.000392	11
	16	56	7546.875	2.625803	-0.8036417	1	2.74603	-17.01702	-3.922233E-005	0.0003768	11
	17	58	5928.309	2.658798	-1.004433	1	2.842199	-20.69542	-9.90127E-006	0.000405	11
	18	60	4733.456	2.694657	-1.234804	1	2.964104	-24.61922	-4.534365E-005	0.0003661	11
	19	63	3796.875	2.735704	-1.512123	1	3.125795	-28.93103	-4.110191E-005	0.0003689	11
	20	65	2987.132	2.790549	-1.882333	1	3.366057	-34.00119	-1.767185E-005	0.0003946	11
	21	67	2390.625	2.853365	-2.31029	1	3.671394	-38.99612	-8.531801E-005	0.0003251	11
	22	70	1884.191	2.944122	-2.876567	1	4.116126	-44.33506	-2.310475E-005	-0.0001245	10
	23	72	1516.544	3.046309	-3.510488	1	4.647959	-49.04941	-5.697966E-007	-0.0001264	10
	24	74	1193.986	3.193074	-4.369297	1	5.411698	-53.84073	-1.801833E-006	-0.0001277	10
	25	77	946.5144	3.37916	-5.402209	1	6.372016	-57.97342	-1.747673E-005	-0.0001848	10
	26	79	751.7689	3.630271	-6.654577	1	7.580387	-61.38621	1.869694E-006	-0.0001447	10
	27	81	597.4265	3.956832	-8.184643	1	9.090923	-64.19875	1.552136E-005	-0.0001496	10
	28	84	477.4305	4.38206	-10.00857	1	10.92584	-66.35472	2.485863E-006	-0.000119	10
	29	86	376.6741	4.969151	-12.33521	1	13.29849	-68.05831	2.301827E-006	-0.000125	10
	30	88	298.2954	5.72742	-15.114	1	16.16281	-69.2459	2.530111E-006	-0.000124	10
	31	90	237.7717	6.678521	-18.35851	1	19.53555	-70.00945	2.27417E-006	-0.0001227	10
	32	93	189.0121	7.909005	-22.2867	1	23.64845	-70.46146	2.284341E-006	-0.0001201	10
	33	95	150.2404	9.465281	-26.97405	1	28.58656	-70.66386	1.866865E-006	-0.000121	10
	34	98	119.1737	11.43112	-32.60226	1	34.54819	-70.67814	2.127875E-006	-0.0001176	10
	35	100	95.0169	13.80725	-39.12806	1	41.49271	-70.56342	2.182255E-006	-0.0001196	10
	36	103	75.60484	16.71456	-46.86936	1	49.76056	-70.37274	1.952799E-006	-0.0001392	9
	37	105	54.50582	21.99825	-60.61281	1	64.48129	-70.05261	1.781925E-006	-0.0001404	9
	38	108	45.95588	25.36498	-69.28398	1	73.78111	-69.89223	2.334714E-006	-0.000132	9
	39	110	37.20238	30.29937	-81.78629	1	87.21839	-69.67184	1.797743E-006	-0.0001308	9
	40	112	30.04808	36.31923	-96.7124	1	103.3072	-69.41691	1.690284E-006	-0.0001299	9
	41	115	23.91582	44.44669	-115.8353	1	124.0698	-69.0079	1.630923E-006	-0.0001358	9
	42	117	18.60119	55.99543	-141.1015	1	151.8062	-68.35458	2.205407E-006	-0.0001347	9
	43	119	15.02404	68.93813	-166.6004	1	180.3002	-67.52056	1.396748E-006	-0.0001395	9
	44	122	12.01923	86.46779	-197.2802	1	215.3976	-66.33218	1.782655E-006	-0.0001376	9
	45	124	9.450605	111.4625	-235.1092	1	260.1927	-64.63493	2.12924E-006	-0.0001419	9
	46	127	7.512019	142.4769	-275.4438	1	310.1112	-62.64914	2.088676E-006	-0.0001185	9
	47	129	5.978954	181.7756	-318.6496	1	366.8513	-60.29715	1.563815E-006	-0.0001338	9
	48	132	4.734848	230.8995	-363.4025	1	430.5531	-57.56884	2.002439E-006	-0.0001145	8
	49	136	3.75601	290.6172	-408.6444	1	501.4465	-54.58057	1.512024E-006	-0.0001329	8
	50	139	3.004808	357.947	-449.3325	1	574.4787	-51.45849	2.110111E-006	-0.0001611	8
	51	143	2.372217	438.9541	-488.8771	1	657.0248	-48.07989	1.669414E-006	-0.0001783	8
	52	147	1.878005	526.5297	-519.2978	1	739.5294	-44.60381	1.963761E-006	-0.0001214	8
	53	152	1.512097	610.9373	-541.8253	1	816.5898	-41.56903	2.197872E-006	-0.0002039	8
	54	157	1.201923	704.722	-560.3857	1	900.3695	-38.49126	2.07711E-006	-0.0000993	8
	55	163	0.956633	798.449	-573.0875	1	982.828	-35.66893	1.536805E-006	-0.0006694	8
