EXPLAIN
TAG	EISPOT
TITLE	LABEL	Potentiostatic EIS	Test Identifier
DATE	LABEL	11/20/2021	Date
TIME	LABEL	13:05:28	Time
NOTES	NOTES	1	Notes...
	
PSTAT	PSTAT	REF3000-16137	Potentiostat
VDC	POTEN	0.00000E+000	T	DC Voltage (V)
FREQINIT	QUANT	3.00000E+005	Initial Freq. (Hz)
FREQFINAL	QUANT	1.00000E+000	Final Freq. (Hz)
PTSPERDEC	QUANT	1.00000E+001	Points/decade
VAC	QUANT	5.00000E+001	AC Voltage (mV rms)
AREA	QUANT	1.00000E+000	Sample Area (cm^2)
SPEED	SELECTOR	2	Optimize for:
ZGUESS	QUANT	1.00000E+003	Estimated Z (ohms)
EOC	QUANT	0	Open Circuit (V)
SEQUENCER	TOGGLE	TRUE	Run as Sequence
PSTATMODEL	IQUANT	5	Pstat Model
PSTATSECTION	LABEL	REF3000-16137	Pstat Section
PSTATSERIALNO	LABEL	16137	Pstat Serial Number
CTRLMODE	IQUANT	1	Control Mode
IESTAB	IQUANT	0	I/E Stability
CASPEED	IQUANT	1	Control Amp Speed
CONVENTION	IQUANT	1	Current Convention
ICHRANGE	IQUANT	2	Ich Range
ICHRANGEMODE	TOGGLE	F	Ich Auto Range
ICHOFFSETENABLE	TOGGLE	T	Ich Offset Enable
ICHOFFSET	QUANT	0	Ich Offset (V)
ICHFILTER	IQUANT	3	Ich Filter
VCHRANGE	IQUANT	2	Vch Range
VCHRANGEMODE	TOGGLE	F	Vch Auto Range
VCHOFFSETENABLE	TOGGLE	T	Vch Offset Enable
VCHOFFSET	QUANT	0	Vch Offset (V)
VCHFILTER	IQUANT	3	Vch Filter
ACHRANGE	IQUANT	2	Ach Range
ACHOFFSETENABLE	TOGGLE	F	Ach Offset Enable
ACHOFFSET	QUANT	0	Ach Offset (V)
ACHFILTER	IQUANT	3	Ach Filter
IERANGELOWERLIMIT	IQUANT	2	I/E Range Lower Limit
IERANGEMODE	TOGGLE	F	I/E AutoRange
IERANGE	IQUANT	11	I/E Range
POSFEEDENABLE	TOGGLE	F	Positive Feedback IR Comp
POSFEEDRESISTANCE	QUANT	0	Positive Feedback Resistance (ohm)
ACHSELECT	IQUANT	0	Ach Select
CABLEID	IQUANT	13	Cable ID
DCCALDATE	LABEL	9/10/2021	DC Calibration Date
ACCALDATE	LABEL	9/10/2021	AC Calibration Date
THERMOSELECT	IQUANT	1	Thermo Select
FRAMEWORKVERSION	QUANT	6.33	Framework Version
INSTRUMENTVERSION	LABEL	3.50	Instrument Version
COMPLIANCEVOLTAGE	IQUANT	0	Compliance Voltage
ZCURVE	TABLE
	Pt	Time	Freq	Zreal	Zimag	Zsig	Zmod	Zphz	Idc	Vdc	IERange
	#	s	Hz	ohm	ohm	V	ohm	°	A	V	#
	0	10	300046.9	2.763945	2.302863	1	3.597579	39.80038	-7.206082E-005	-0.0010996	10
	1	13	238359.4	2.733793	1.793688	1	3.2697	33.26957	-1.463298E-005	-0.0014506	10
	2	17	189328.1	2.788961	1.183493	1	3.02968	22.9939	9.010751E-006	-0.0010669	12
	3	20	150421.9	2.710927	1.046712	1	2.905982	21.11201	-2.66765E-005	0.0001176	11
	4	23	119484.4	2.708445	0.7822855	1	2.819157	16.11041	-0.000143	-6.060298E-005	11
	5	25	94921.88	2.719698	0.5591714	1	2.776587	11.61814	-3.954608E-005	0.0002296	11
	6	28	75421.88	2.738147	0.3778391	1	2.764094	7.856673	-3.783434E-005	0.0002788	11
	7	30	59859.37	2.761868	0.2254136	1	2.771051	4.665931	-4.125684E-005	0.0003156	11
	8	33	47578.12	2.789334	0.0964191	1	2.791	1.979759	-1.156824E-005	0.0003898	11
	9	35	37828.12	2.817895	-0.0156571	1	2.817938	-0.3183499	-8.627664E-005	0.0002722	11
	10	38	30046.88	2.849069	-0.117566	1	2.851494	-2.362952	-6.800266E-005	0.00033	11
	11	40	23859.38	2.877099	-0.2151091	1	2.885129	-4.275818	-2.183466E-005	0.0003781	11
	12	43	18984.38	2.906871	-0.3128893	1	2.923661	-6.143541	-1.761705E-005	0.0004439	11
	13	45	15046.87	2.933877	-0.4195283	1	2.96372	-8.137816	-7.301027E-005	0.0003199	11
	14	47	11953.13	2.962391	-0.5390439	1	3.011035	-10.31285	-6.753956E-005	0.0003476	11
	15	50	9515.62	2.989307	-0.6782305	1	3.065282	-12.78317	-6.776764E-005	0.0003345	11
	16	52	7546.875	3.018604	-0.8476216	1	3.135352	-15.6847	-8.614983E-005	0.00032	11
	17	54	5928.309	3.052381	-1.062889	1	3.232145	-19.19896	-1.386511E-005	0.0004302	11
	18	56	4733.456	3.089281	-1.310656	1	3.355813	-22.98954	-7.363931E-005	0.0003225	11
	19	59	3796.875	3.130331	-1.606772	1	3.51862	-27.17104	-5.163796E-005	0.000334	11
	20	61	2987.132	3.190169	-2.008086	1	3.769561	-32.1888	-1.198231E-005	-0.0001377	10
	21	63	2390.625	3.253206	-2.468052	1	4.083458	-37.18586	1.349623E-005	-0.0001249	10
	22	66	1884.191	3.339691	-3.073821	1	4.538933	-42.62617	-2.181496E-005	-0.0001377	10
	23	68	1516.544	3.440067	-3.755169	1	5.092677	-47.50756	4.997539E-007	-0.0001382	10
	24	70	1193.986	3.580997	-4.68142	1	5.894	-52.58625	2.418513E-005	-0.000104	10
	25	73	946.5144	3.759151	-5.800901	1	6.912429	-57.0556	2.513545E-005	-0.0000964	10
	26	75	751.7689	4.000978	-7.162219	1	8.203975	-60.81128	2.567328E-005	-0.0000999	10
	27	77	597.4265	4.312328	-8.832403	1	9.82891	-63.97654	-1.385282E-005	-0.0001495	10
	28	80	477.4305	4.718942	-10.83419	1	11.81728	-66.46398	5.484981E-007	-0.0001127	10
	29	82	376.6741	5.284506	-13.40678	1	14.41068	-68.48729	8.887459E-007	-0.0001109	10
	30	84	298.2954	6.02428	-16.50187	1	17.56711	-69.94455	9.321431E-007	-0.0001085	10
	31	87	237.7717	6.966902	-20.14263	1	21.31345	-70.9206	1.978942E-007	-0.0001104	10
	32	89	189.0121	8.207092	-24.57951	1	25.91349	-71.53585	9.768403E-007	-0.0001094	10
	33	91	150.2404	9.80587	-29.90751	1	31.47403	-71.84708	3.982325E-007	-0.000113	10
	34	94	119.1737	11.86212	-36.33543	1	38.22268	-71.92014	4.772401E-007	-0.0001084	10
	35	96	95.0169	14.3749	-43.76384	1	46.06421	-71.81644	1.034658E-006	-0.000127	9
	36	99	75.60484	17.54486	-52.70867	1	55.55201	-71.58922	8.969512E-007	-0.0001294	9
	37	101	54.50582	23.37173	-68.4481	1	72.32829	-71.14744	9.714478E-007	-0.0001329	9
	38	104	45.95588	27.1307	-78.34724	1	82.91179	-70.89965	9.996634E-007	-0.000132	9
	39	106	37.20238	32.53671	-92.45219	1	98.0104	-70.6115	8.358031E-007	-0.0001208	9
	40	108	30.04808	39.03081	-109.2957	1	116.0558	-70.34774	8.559708E-007	-0.0001268	9
	41	111	23.91582	47.41872	-130.761	1	139.0934	-70.0675	9.44727E-007	-0.0001691	9
	42	113	18.60119	59.01205	-159.4165	1	169.9883	-69.68669	9.676172E-007	-0.0001263	9
	43	115	15.02404	71.47621	-188.7489	1	201.8291	-69.25912	1.388154E-006	-0.000122	9
	44	118	12.01923	88.29867	-224.9126	1	241.6243	-68.56548	3.718322E-007	-0.0001248	9
	45	120	9.450605	111.9055	-271.0042	1	293.1997	-67.56285	4.377846E-007	-0.0001155	9
	46	123	7.512019	141.6603	-322.1268	1	351.8996	-66.26176	5.864665E-007	-0.0001387	9
	47	125	5.978954	179.7471	-378.4264	1	418.9457	-64.59296	9.859375E-007	-0.0001166	8
	48	128	4.734848	230.5871	-444.2487	1	500.527	-62.56845	6.752015E-007	-0.0001281	8
	49	132	3.75601	294.7211	-514.1502	1	592.6306	-60.17781	1.008395E-006	-0.0001172	8
	50	135	3.004808	370.3892	-583.7625	1	691.3514	-57.60544	5.092014E-007	-8.086741E-005	8
	51	139	2.372217	467.8227	-658.3792	1	807.664	-54.60365	8.373491E-007	-4.381662E-005	8
	52	143	1.878005	579.1072	-727.7213	1	930.0233	-51.48787	6.343071E-007	-0.000171	8
	53	148	1.512097	694.3663	-786.4362	1	1049.107	-48.55782	6.430103E-007	-4.585553E-005	8
	54	153	1.201923	829.5867	-842.803	1	1182.595	-45.45278	8.332743E-007	-0.0001449	8
	55	159	0.956633	971.816	-891.3641	1	1318.695	-42.5275	3.753679E-007	-0.0006629	8
