EXPLAIN
TAG	EISPOT
TITLE	LABEL	Potentiostatic EIS	Test Identifier
DATE	LABEL	11/20/2021	Date
TIME	LABEL	14:30:57	Time
NOTES	NOTES	1	Notes...
	
PSTAT	PSTAT	REF3000-16137	Potentiostat
VDC	POTEN	0.00000E+000	T	DC Voltage (V)
FREQINIT	QUANT	3.00000E+005	Initial Freq. (Hz)
FREQFINAL	QUANT	1.00000E+000	Final Freq. (Hz)
PTSPERDEC	QUANT	1.00000E+001	Points/decade
VAC	QUANT	5.00000E+001	AC Voltage (mV rms)
AREA	QUANT	1.00000E+000	Sample Area (cm^2)
SPEED	SELECTOR	2	Optimize for:
ZGUESS	QUANT	1.00000E+003	Estimated Z (ohms)
EOC	QUANT	0	Open Circuit (V)
SEQUENCER	TOGGLE	TRUE	Run as Sequence
PSTATMODEL	IQUANT	5	Pstat Model
PSTATSECTION	LABEL	REF3000-16137	Pstat Section
PSTATSERIALNO	LABEL	16137	Pstat Serial Number
CTRLMODE	IQUANT	1	Control Mode
IESTAB	IQUANT	0	I/E Stability
CASPEED	IQUANT	1	Control Amp Speed
CONVENTION	IQUANT	1	Current Convention
ICHRANGE	IQUANT	2	Ich Range
ICHRANGEMODE	TOGGLE	F	Ich Auto Range
ICHOFFSETENABLE	TOGGLE	T	Ich Offset Enable
ICHOFFSET	QUANT	0	Ich Offset (V)
ICHFILTER	IQUANT	3	Ich Filter
VCHRANGE	IQUANT	2	Vch Range
VCHRANGEMODE	TOGGLE	F	Vch Auto Range
VCHOFFSETENABLE	TOGGLE	T	Vch Offset Enable
VCHOFFSET	QUANT	0	Vch Offset (V)
VCHFILTER	IQUANT	3	Vch Filter
ACHRANGE	IQUANT	2	Ach Range
ACHOFFSETENABLE	TOGGLE	F	Ach Offset Enable
ACHOFFSET	QUANT	0	Ach Offset (V)
ACHFILTER	IQUANT	3	Ach Filter
IERANGELOWERLIMIT	IQUANT	2	I/E Range Lower Limit
IERANGEMODE	TOGGLE	F	I/E AutoRange
IERANGE	IQUANT	11	I/E Range
POSFEEDENABLE	TOGGLE	F	Positive Feedback IR Comp
POSFEEDRESISTANCE	QUANT	0	Positive Feedback Resistance (ohm)
ACHSELECT	IQUANT	0	Ach Select
CABLEID	IQUANT	13	Cable ID
DCCALDATE	LABEL	9/10/2021	DC Calibration Date
ACCALDATE	LABEL	9/10/2021	AC Calibration Date
THERMOSELECT	IQUANT	1	Thermo Select
FRAMEWORKVERSION	QUANT	6.33	Framework Version
INSTRUMENTVERSION	LABEL	3.50	Instrument Version
COMPLIANCEVOLTAGE	IQUANT	0	Compliance Voltage
ZCURVE	TABLE
	Pt	Time	Freq	Zreal	Zimag	Zsig	Zmod	Zphz	Idc	Vdc	IERange
	#	s	Hz	ohm	ohm	V	ohm	°	A	V	#
	0	20	300046.9	1492.532	-3099.286	1	3439.946	-64.2858	8.58307E-005	-0.0019882	9
	1	35	238359.4	1956.152	-3599.239	1	4096.469	-61.47634	-0.0001075	0.0036137	9
	2	53	189328.1	2843.27	-4175.275	1	5051.445	-55.74601	4.053072E-006	0.0012539	9
	3	63	150421.9	3230.958	-4720.308	1	5720.175	-55.60912	-6.505828E-005	0.0007727	9
	4	71	119484.4	4468.729	-4974.151	1	6686.682	-48.06379	8.805992E-006	0.0126449	8
	5	78	94921.88	5590.261	-5206.924	1	7639.573	-42.96666	9.89624E-006	0.0024616	8
	6	85	75421.88	6560.296	-5476.522	1	8545.746	-39.85506	-5.827685E-007	0.0004365	9
	7	94	59859.37	7891.692	-5591.547	1	9671.83	-35.31894	2.03814E-005	-0.0101271	8
	8	103	47578.12	9282.664	-5485.106	1	10782.13	-30.57875	-1.71442E-005	0.0005311	8
	9	110	37828.12	10456.3	-5368.863	1	11754.1	-27.17857	2.569152E-005	-0.0062798	8
	10	118	30046.88	11699.83	-4994.499	1	12721.28	-23.11698	-2.432013E-005	0.0049551	8
	11	126	23859.38	12775.1	-4686.347	1	13607.54	-20.14478	1.400297E-005	-0.0095008	8
	12	133	18984.38	13707.94	-4345.827	1	14380.33	-17.59017	4.486451E-007	0.0058966	8
	13	139	15046.87	14809.6	-3234.41	1	15158.68	-12.31992	4.828308E-006	-0.0254661	7
	14	144	11953.13	15365.45	-2829.704	1	15623.83	-10.43469	6.255524E-006	-0.0257644	7
	15	148	9515.62	15967.19	-2441.219	1	16152.73	-8.692623	-3.466602E-006	-0.0046536	7
	16	152	7546.875	16491.23	-2037.6	1	16616.63	-7.043575	2.713115E-006	0.0064061	7
	17	156	5928.309	16876.87	-1813.682	1	16974.04	-6.133784	-1.225051E-006	-0.0125384	7
	18	161	4733.456	17500.89	-1576.342	1	17571.74	-5.146864	4.73181E-006	-0.0022558	7
	19	165	3796.875	17866.13	-1287.527	1	17912.46	-4.121907	-1.481897E-006	0.0193206	7
	20	169	2987.132	18302.62	-1084.654	1	18334.73	-3.39151	-3.300908E-006	0.022715	7
	21	174	2390.625	18804.27	-947.6645	1	18828.13	-2.885051	-6.821701E-006	0.0172838	7
	22	178	1884.191	19022.98	-589.5214	1	19032.12	-1.775026	-1.301419E-006	-0.0123856	7
	23	182	1516.544	19540.96	-733.4895	1	19554.72	-2.149646	-3.300625E-006	0.0227834	7
	24	186	1193.986	19892.32	-566.1515	1	19900.37	-1.630244	-6.795833E-006	0.0219269	7
	25	191	946.5144	20131.64	-717.5847	1	20144.42	-2.041422	6.336869E-006	-0.0114386	7
	26	193	751.7689	20719.17	-529.6532	1	20725.94	-1.464358	-6.392396E-006	0.01144	7
	27	196	597.4265	20753.12	-397.3029	1	20756.92	-1.096751	-1.487521E-006	0.019288	7
	28	199	477.4305	21155.58	-309.4827	1	21157.84	-0.838114	-1.075028E-007	-9.393052E-005	7
	29	201	376.6741	21385.84	-266.0663	1	21387.49	-0.7127938	-1.116662E-007	-0.0001091	7
	30	203	298.2954	21630.33	-238.3878	1	21631.65	-0.6314309	-1.02961E-007	-0.0001506	7
	31	206	237.7717	21893.83	-217.4096	1	21894.91	-0.5689385	-1.058081E-007	-0.0001305	7
	32	208	189.0121	22162.2	-211.7158	1	22163.21	-0.5473309	-1.137597E-007	-6.365425E-005	7
	33	210	150.2404	22414.87	-206.9324	1	22415.82	-0.5289353	-1.109572E-007	-7.314935E-005	7
	34	213	119.1737	22679.73	-208.8638	1	22680.69	-0.5276375	-9.928453E-008	-0.0001044	7
	35	215	95.0169	22964.69	-230.8008	1	22965.85	-0.5758173	-1.069632E-007	-0.0001474	7
	36	218	75.60484	23265.87	-251.4758	1	23267.23	-0.6192736	-1.081679E-007	-0.0001624	7
	37	220	54.50582	23571.81	-301.6213	1	23573.74	-0.7331081	-1.049176E-007	-0.0001306	7
	38	223	45.95588	23864.16	-337.2096	1	23866.54	-0.8095571	-1.217658E-007	-0.0001355	7
	39	225	37.20238	24137.46	-394.877	1	24140.7	-0.9372471	-9.619987E-008	-0.0001153	7
	40	228	30.04808	24433.6	-468.946	1	24438.1	-1.099524	-9.885857E-008	-7.357883E-005	7
	41	230	23.91582	24737.51	-555.9958	1	24743.75	-1.287553	-8.477547E-008	-0.0001223	7
	42	232	18.60119	25035.64	-687.2801	1	25045.07	-1.572492	-1.192742E-007	-7.645659E-005	7
	43	235	15.02404	25373.31	-843.3873	1	25387.32	-1.903762	-7.423954E-008	-5.415255E-005	7
	44	237	12.01923	25656.14	-963.742	1	25674.23	-2.151235	-1.494857E-007	-6.963404E-005	7
	45	239	9.450605	25987.48	-1218.709	1	26016.04	-2.684976	-1.596799E-007	-0.000098	7
	46	242	7.512019	26354.79	-1512.028	1	26398.13	-3.283575	-1.498557E-007	-5.947793E-005	7
	47	245	5.978954	26759.79	-1903.879	1	26827.43	-4.069566	-1.433214E-007	-0.0001438	7
	48	248	4.734848	27293.67	-2349.955	1	27394.65	-4.920968	-9.683946E-008	-0.0001033	7
	49	251	3.75601	27858.2	-2921.993	1	28011.02	-5.987751	-1.219352E-007	-0.0001507	7
	50	254	3.004808	28376.52	-3572.144	1	28600.47	-7.17487	-8.448293E-008	-0.0001797	7
	51	258	2.372217	29178.96	-4431.135	1	29513.5	-8.634996	-1.388182E-007	-0.0001042	7
	52	262	1.878005	29978.13	-5476.455	1	30474.25	-10.35273	-1.34651E-007	-0.0001067	7
	53	267	1.512097	30858.35	-6654.325	1	31567.67	-12.16898	-1.22983E-007	-0.0001852	7
	54	273	1.201923	31985.83	-8353.137	1	33058.56	-14.63598	-1.23517E-007	-0.0001154	7
	55	279	0.956633	33298.01	-10261.17	1	34843.21	-17.12729	-1.251184E-007	-0.0006592	7
