EXPLAIN
TAG	EISPOT
TITLE	LABEL	Potentiostatic EIS	Test Identifier
DATE	LABEL	11/20/2021	Date
TIME	LABEL	13:41:48	Time
NOTES	NOTES	1	Notes...
	
PSTAT	PSTAT	REF3000-16137	Potentiostat
VDC	POTEN	0.00000E+000	T	DC Voltage (V)
FREQINIT	QUANT	3.00000E+005	Initial Freq. (Hz)
FREQFINAL	QUANT	1.00000E+000	Final Freq. (Hz)
PTSPERDEC	QUANT	1.00000E+001	Points/decade
VAC	QUANT	5.00000E+001	AC Voltage (mV rms)
AREA	QUANT	1.00000E+000	Sample Area (cm^2)
SPEED	SELECTOR	2	Optimize for:
ZGUESS	QUANT	1.00000E+003	Estimated Z (ohms)
EOC	QUANT	0	Open Circuit (V)
SEQUENCER	TOGGLE	TRUE	Run as Sequence
PSTATMODEL	IQUANT	5	Pstat Model
PSTATSECTION	LABEL	REF3000-16137	Pstat Section
PSTATSERIALNO	LABEL	16137	Pstat Serial Number
CTRLMODE	IQUANT	1	Control Mode
IESTAB	IQUANT	0	I/E Stability
CASPEED	IQUANT	1	Control Amp Speed
CONVENTION	IQUANT	1	Current Convention
ICHRANGE	IQUANT	2	Ich Range
ICHRANGEMODE	TOGGLE	F	Ich Auto Range
ICHOFFSETENABLE	TOGGLE	T	Ich Offset Enable
ICHOFFSET	QUANT	0	Ich Offset (V)
ICHFILTER	IQUANT	3	Ich Filter
VCHRANGE	IQUANT	2	Vch Range
VCHRANGEMODE	TOGGLE	F	Vch Auto Range
VCHOFFSETENABLE	TOGGLE	T	Vch Offset Enable
VCHOFFSET	QUANT	0	Vch Offset (V)
VCHFILTER	IQUANT	3	Vch Filter
ACHRANGE	IQUANT	2	Ach Range
ACHOFFSETENABLE	TOGGLE	F	Ach Offset Enable
ACHOFFSET	QUANT	0	Ach Offset (V)
ACHFILTER	IQUANT	3	Ach Filter
IERANGELOWERLIMIT	IQUANT	2	I/E Range Lower Limit
IERANGEMODE	TOGGLE	F	I/E AutoRange
IERANGE	IQUANT	11	I/E Range
POSFEEDENABLE	TOGGLE	F	Positive Feedback IR Comp
POSFEEDRESISTANCE	QUANT	0	Positive Feedback Resistance (ohm)
ACHSELECT	IQUANT	0	Ach Select
CABLEID	IQUANT	13	Cable ID
DCCALDATE	LABEL	9/10/2021	DC Calibration Date
ACCALDATE	LABEL	9/10/2021	AC Calibration Date
THERMOSELECT	IQUANT	1	Thermo Select
FRAMEWORKVERSION	QUANT	6.33	Framework Version
INSTRUMENTVERSION	LABEL	3.50	Instrument Version
COMPLIANCEVOLTAGE	IQUANT	0	Compliance Voltage
ZCURVE	TABLE
	Pt	Time	Freq	Zreal	Zimag	Zsig	Zmod	Zphz	Idc	Vdc	IERange
	#	s	Hz	ohm	ohm	V	ohm	°	A	V	#
	0	8	300046.9	9.56057	2.233612	1	9.81802	13.15001	-1.359933E-005	-0.0006931	10
	1	11	238359.4	9.55144	1.766395	1	9.7134	10.47761	-1.532017E-005	-0.0006946	10
	2	14	189328.1	9.54736	1.389516	1	9.64794	8.280653	-8.089159E-005	-0.0005525	10
	3	17	150421.9	9.56214	1.068941	1	9.6217	6.378547	2.035542E-005	-0.0003671	10
	4	19	119484.4	9.56537	0.825428	1	9.60092	4.932029	2.260391E-005	-0.0002444	10
	5	22	94921.88	9.58487	0.6264215	1	9.60532	3.739261	2.273758E-005	-0.0001887	10
	6	24	75421.88	9.60493	0.4457023	1	9.61526	2.656819	-1.207757E-005	-0.0002154	10
	7	27	59859.37	9.62921	0.2858296	1	9.63345	1.700246	1.509326E-005	-0.0001906	10
	8	29	47578.12	9.66044	0.1496003	1	9.6616	0.8872038	-2.669711E-005	-0.000175	10
	9	32	37828.12	9.69361	0.0256049	1	9.69364	0.1513418	-1.278262E-005	-0.0001422	10
	10	34	30046.88	9.72733	-0.0937362	1	9.72778	-0.5521069	-2.911759E-005	-0.0001628	10
	11	37	23859.38	9.76206	-0.2150814	1	9.76443	-1.262157	-2.550501E-005	-0.000157	10
	12	39	18984.38	9.79926	-0.3419062	1	9.80522	-1.998297	1.152871E-005	-0.0001086	10
	13	41	15046.87	9.83864	-0.4849209	1	9.85058	-2.821677	2.691418E-005	-0.0001163	10
	14	44	11953.13	9.88131	-0.6455746	1	9.90237	-3.737988	5.383888E-006	-0.0001655	10
	15	46	9515.62	9.92745	-0.8312585	1	9.96219	-4.7864	-1.195283E-006	-0.0001374	10
	16	48	7546.875	9.98046	-1.057499	1	10.03633	-6.04832	-2.090617E-005	-0.0000993	10
	17	51	5928.309	10.03761	-1.343388	1	10.12711	-7.622905	2.375116E-005	-0.0001251	10
	18	53	4733.456	10.10105	-1.67035	1	10.23822	-9.389688	-1.497226E-005	-0.0001729	10
	19	55	3796.875	10.17048	-2.055738	1	10.37616	-11.42712	-1.312945E-005	-0.0001175	10
	20	58	2987.132	10.25575	-2.58148	1	10.57566	-14.12844	-2.090149E-005	-0.000117	10
	21	60	2390.625	10.34942	-3.182355	1	10.82764	-17.09221	-1.850324E-005	-0.00015	10
	22	62	1884.191	10.46597	-3.972518	1	11.19452	-20.78502	-2.522379E-005	-0.0001113	10
	23	65	1516.544	10.5958	-4.860836	1	11.65756	-24.64334	2.297776E-005	-0.0001268	10
	24	67	1193.986	10.76484	-6.07036	1	12.35844	-29.41892	-2.349849E-005	-0.0001177	10
	25	70	946.5144	10.97139	-7.528742	1	13.30614	-34.45852	-2.11421E-005	-8.5937E-005	10
	26	72	751.7689	11.21394	-9.32483	1	14.58441	-39.74485	-2.356144E-005	-0.0001207	10
	27	74	597.4265	11.51458	-11.53382	1	16.29769	-45.04784	5.902559E-006	-0.0001465	10
	28	76	477.4305	11.89008	-14.20714	1	18.52612	-50.07373	-3.950036E-007	-0.0001076	10
	29	79	376.6741	12.37751	-17.68888	1	21.58933	-55.01821	-6.864136E-008	-0.0001099	10
	30	81	298.2954	12.98625	-21.95215	1	25.50567	-59.39269	2.360132E-007	-0.0001126	10
	31	83	237.7717	13.74821	-27.07731	1	30.36764	-63.08132	-2.538989E-007	-0.0001125	10
	32	86	189.0121	14.73764	-33.4722	1	36.57302	-66.23635	-9.890467E-007	-0.0001107	10
	33	88	150.2404	16.00112	-41.30887	1	44.29964	-68.82597	4.827264E-007	-0.0001262	9
	34	91	119.1737	17.69704	-51.10903	1	54.08621	-70.90105	5.741227E-007	-0.0001224	9
	35	93	95.0169	19.8748	-62.87506	1	65.9415	-72.45826	8.921441E-007	-0.0001622	9
	36	96	75.60484	22.76676	-77.40166	1	80.6805	-73.60939	4.874426E-007	-0.0001287	9
	37	98	54.50582	28.56767	-103.9175	1	107.7727	-74.62868	4.818144E-007	-0.000132	9
	38	101	45.95588	32.63694	-121.0023	1	125.3265	-74.90529	6.049884E-007	-0.0001191	9
	39	103	37.20238	38.96005	-145.8	1	150.9156	-75.03922	5.705797E-007	-0.0001272	9
	40	105	30.04808	47.0905	-175.657	1	181.8596	-74.9929	4.592589E-007	-0.0001261	9
	41	108	23.91582	58.21433	-213.6281	1	221.4178	-74.75683	6.142875E-007	-0.0001373	9
	42	110	18.60119	74.02576	-264.166	1	274.3419	-74.34583	7.340415E-007	-0.0001307	9
	43	114	15.02404	90.96188	-315.6459	1	328.4911	-73.92424	4.102898E-007	-0.0001282	9
	44	116	12.01923	112.8337	-378.7957	1	395.2437	-73.41253	7.189608E-007	-0.0001245	9
	45	118	9.450605	141.1856	-457.7048	1	478.9854	-72.85687	4.571768E-007	-0.00012	8
	46	121	7.512019	174.2441	-549.4097	1	576.3784	-72.40369	5.104717E-007	-0.0001353	8
	47	123	5.978954	213.8533	-657.705	1	691.5989	-71.98802	6.060206E-007	-0.0001143	8
	48	127	4.734848	261.4375	-791.0607	1	833.1426	-71.71181	4.927968E-007	-0.0001436	8
	49	130	3.75601	318.6414	-949.6872	1	1001.718	-71.45224	6.232495E-007	-0.0000995	8
	50	133	3.004808	384.9565	-1135.012	1	1198.517	-71.26485	6.302347E-007	-0.0001533	8
	51	137	2.372217	471.5638	-1373.424	1	1452.124	-71.05014	5.451482E-007	-0.0001814	8
	52	141	1.878005	583.0939	-1658.078	1	1757.618	-70.62482	5.469171E-007	-0.0001157	8
	53	146	1.512097	715.8665	-1973.651	1	2099.467	-70.06369	5.711221E-007	-0.0002188	8
	54	151	1.201923	896.2271	-2375.209	1	2538.669	-69.32723	5.202603E-007	-9.243979E-005	8
	55	158	0.956633	1129.872	-2843.071	1	3059.357	-68.3265	4.831941E-007	-0.0006734	8
