EXPLAIN
TAG	EISPOT
TITLE	LABEL	Potentiostatic EIS	Test Identifier
DATE	LABEL	11/20/2021	Date
TIME	LABEL	13:27:54	Time
NOTES	NOTES	1	Notes...
	
PSTAT	PSTAT	REF3000-16137	Potentiostat
VDC	POTEN	0.00000E+000	T	DC Voltage (V)
FREQINIT	QUANT	3.00000E+005	Initial Freq. (Hz)
FREQFINAL	QUANT	1.00000E+000	Final Freq. (Hz)
PTSPERDEC	QUANT	1.00000E+001	Points/decade
VAC	QUANT	5.00000E+001	AC Voltage (mV rms)
AREA	QUANT	1.00000E+000	Sample Area (cm^2)
SPEED	SELECTOR	2	Optimize for:
ZGUESS	QUANT	1.00000E+003	Estimated Z (ohms)
EOC	QUANT	0	Open Circuit (V)
SEQUENCER	TOGGLE	TRUE	Run as Sequence
PSTATMODEL	IQUANT	5	Pstat Model
PSTATSECTION	LABEL	REF3000-16137	Pstat Section
PSTATSERIALNO	LABEL	16137	Pstat Serial Number
CTRLMODE	IQUANT	1	Control Mode
IESTAB	IQUANT	0	I/E Stability
CASPEED	IQUANT	1	Control Amp Speed
CONVENTION	IQUANT	1	Current Convention
ICHRANGE	IQUANT	2	Ich Range
ICHRANGEMODE	TOGGLE	F	Ich Auto Range
ICHOFFSETENABLE	TOGGLE	T	Ich Offset Enable
ICHOFFSET	QUANT	0	Ich Offset (V)
ICHFILTER	IQUANT	3	Ich Filter
VCHRANGE	IQUANT	2	Vch Range
VCHRANGEMODE	TOGGLE	F	Vch Auto Range
VCHOFFSETENABLE	TOGGLE	T	Vch Offset Enable
VCHOFFSET	QUANT	0	Vch Offset (V)
VCHFILTER	IQUANT	3	Vch Filter
ACHRANGE	IQUANT	2	Ach Range
ACHOFFSETENABLE	TOGGLE	F	Ach Offset Enable
ACHOFFSET	QUANT	0	Ach Offset (V)
ACHFILTER	IQUANT	3	Ach Filter
IERANGELOWERLIMIT	IQUANT	2	I/E Range Lower Limit
IERANGEMODE	TOGGLE	F	I/E AutoRange
IERANGE	IQUANT	11	I/E Range
POSFEEDENABLE	TOGGLE	F	Positive Feedback IR Comp
POSFEEDRESISTANCE	QUANT	0	Positive Feedback Resistance (ohm)
ACHSELECT	IQUANT	0	Ach Select
CABLEID	IQUANT	13	Cable ID
DCCALDATE	LABEL	9/10/2021	DC Calibration Date
ACCALDATE	LABEL	9/10/2021	AC Calibration Date
THERMOSELECT	IQUANT	1	Thermo Select
FRAMEWORKVERSION	QUANT	6.33	Framework Version
INSTRUMENTVERSION	LABEL	3.50	Instrument Version
COMPLIANCEVOLTAGE	IQUANT	0	Compliance Voltage
ZCURVE	TABLE
	Pt	Time	Freq	Zreal	Zimag	Zsig	Zmod	Zphz	Idc	Vdc	IERange
	#	s	Hz	ohm	ohm	V	ohm	°	A	V	#
	0	10	300046.9	4.947642	2.298821	1	5.455616	24.92097	1.169075E-005	-0.0007247	10
	1	14	238359.4	4.92709	1.826351	1	5.25469	20.3385	-2.74557E-005	-0.0010663	10
	2	17	189328.1	4.912037	1.42625	1	5.114909	16.19109	-9.466281E-005	-0.0009056	10
	3	19	150421.9	4.89561	1.112978	1	5.02053	12.80804	1.813335E-005	-0.0005094	10
	4	22	119484.4	4.90343	0.8452086	1	4.975741	9.78002	-5.655107E-005	-0.0002846	10
	5	24	94921.88	4.914325	0.6382861	1	4.955603	7.400306	-1.739618E-006	-0.0003267	10
	6	27	75421.88	4.923021	0.4525785	1	4.94378	5.252498	6.244062E-006	-0.000267	10
	7	29	59859.37	4.936857	0.294063	1	4.945607	3.408785	-8.163301E-006	-0.0002059	10
	8	32	47578.12	4.954	0.1553049	1	4.956434	1.7956	1.349429E-005	-0.0002024	10
	9	34	37828.12	4.975154	0.030126	1	4.975245	0.3469382	2.523401E-005	-0.0001551	10
	10	37	30046.88	4.999843	-0.0871338	1	5.000602	-0.998411	-1.959471E-005	-0.0001253	10
	11	39	23859.38	5.024314	-0.2026557	1	5.0284	-2.309773	2.30065E-005	-0.0001457	10
	12	42	18984.38	5.051683	-0.3191841	1	5.061757	-3.615354	7.849125E-006	-0.0001455	10
	13	44	15046.87	5.079734	-0.4477151	1	5.099426	-5.036891	2.292446E-005	-0.0001397	10
	14	46	11953.13	5.109613	-0.5917068	1	5.14376	-6.60558	1.270816E-005	-0.0001516	10
	15	49	9515.62	5.142785	-0.7575359	1	5.198278	-8.379452	1.20348E-005	-0.0001115	10
	16	51	7546.875	5.178139	-0.958295	1	5.266066	-10.48485	-1.814321E-005	-0.0001375	10
	17	53	5928.309	5.218864	-1.211793	1	5.357703	-13.07215	-9.715724E-006	-0.000126	10
	18	55	4733.456	5.2629	-1.502137	1	5.473074	-15.92981	-2.340983E-005	-0.0001131	10
	19	58	3796.875	5.312256	-1.848028	1	5.624524	-19.18177	3.192727E-006	-0.0001501	10
	20	60	2987.132	5.37711	-2.313038	1	5.853499	-23.27563	1.909605E-005	-0.000129	10
	21	62	2390.625	5.450212	-2.847759	1	6.149353	-27.58726	-1.556443E-005	-9.450744E-005	10
	22	65	1884.191	5.542845	-3.553298	1	6.584001	-32.66232	7.217333E-006	-0.0001255	10
	23	67	1516.544	5.648889	-4.346186	1	7.127361	-37.57424	-2.565962E-005	-0.0001166	10
	24	69	1193.986	5.792746	-5.424689	1	7.936193	-43.12074	-1.55048E-005	-0.0001309	10
	25	72	946.5144	5.976915	-6.72256	1	8.99535	-48.36024	-3.422012E-007	-0.0001306	10
	26	74	751.7689	6.192342	-8.327909	1	10.37782	-53.3668	2.412916E-005	-0.0001232	10
	27	76	597.4265	6.474834	-10.30511	1	12.17041	-57.85833	1.670873E-005	-0.0001246	10
	28	79	477.4305	6.840576	-12.68635	1	14.41308	-61.66612	1.605131E-007	-0.0001141	10
	29	81	376.6741	7.334996	-15.78344	1	17.40457	-65.07442	-7.708334E-007	-0.0001099	10
	30	83	298.2954	7.97617	-19.56063	1	21.12434	-67.81602	-5.330214E-007	-0.0001118	10
	31	86	237.7717	8.797873	-24.07548	1	25.63262	-69.92624	-1.781906E-007	-0.0001168	10
	32	88	189.0121	9.89793	-29.67652	1	31.28362	-71.55505	-8.748102E-007	-0.0001144	10
	33	90	150.2404	11.35283	-36.51636	1	38.24044	-72.72968	-1.031064E-006	-0.0001115	10
	34	93	119.1737	13.27909	-44.88103	1	46.80428	-73.51794	6.112301E-007	-0.000127	9
	35	95	95.0169	15.77097	-54.8386	1	57.06134	-73.95536	4.373265E-007	-0.0001293	9
	36	98	75.60484	19.04753	-66.952	1	69.60876	-74.1192	4.836128E-007	-0.0001365	9
	37	100	54.50582	25.44632	-88.61671	1	92.19781	-73.97856	3.923823E-007	-0.0001347	9
	38	103	45.95588	29.79144	-102.3484	1	106.5961	-73.77086	5.542174E-007	-0.0001309	9
	39	105	37.20238	36.29438	-121.9909	1	127.2755	-73.43135	4.232265E-007	-0.0001287	9
	40	108	30.04808	44.37253	-145.289	1	151.9138	-73.01687	4.596501E-007	-0.0001335	9
	41	110	23.91582	54.87497	-174.5779	1	182.9992	-72.55054	5.736639E-007	-0.0001334	9
	42	112	18.60119	69.12322	-213.2658	1	224.1881	-72.04157	7.547436E-007	-0.0001322	9
	43	115	15.02404	83.65395	-252.4084	1	265.9097	-71.66361	4.408379E-007	-0.0001302	9
	44	117	12.01923	101.8727	-300.7401	1	317.5258	-71.2867	7.531521E-007	-0.0001287	9
	45	119	9.450605	125.2579	-363.2628	1	384.2518	-70.97512	4.586412E-007	-0.0001395	9
	46	122	7.512019	152.0814	-434.0186	1	459.8923	-70.68938	7.765225E-007	-0.0001229	8
	47	125	5.978954	185.5841	-520.2173	1	552.3292	-70.36648	7.418087E-007	-0.0001199	8
	48	128	4.734848	229.9087	-626.9688	1	667.7933	-69.86207	6.296812E-007	-0.0001166	8
	49	131	3.75601	286.5585	-753.0765	1	805.7543	-69.16733	6.040349E-007	-0.0001233	8
	50	134	3.004808	357.4583	-895.9477	1	964.624	-68.24937	4.475164E-007	-7.788683E-005	8
	51	138	2.372217	457.1107	-1073.421	1	1166.697	-66.93352	5.893374E-007	-3.659843E-005	8
	52	142	1.878005	584.0886	-1273.414	1	1400.98	-65.36006	4.359236E-007	-0.0001328	8
	53	147	1.512097	733.3375	-1478.367	1	1650.258	-63.61649	4.673267E-007	-8.816731E-005	8
	54	152	1.201923	936.3563	-1722.044	1	1960.152	-61.46499	5.238992E-007	-0.000177	8
	55	159	0.956633	1182.939	-1978.725	1	2305.363	-59.12779	3.415553E-007	-0.0006667	8
