EXPLAIN
TAG	EISPOT
TITLE	LABEL	Potentiostatic EIS	Test Identifier
DATE	LABEL	11/20/2021	Date
TIME	LABEL	14:01:14	Time
NOTES	NOTES	1	Notes...
	
PSTAT	PSTAT	REF3000-16137	Potentiostat
VDC	POTEN	0.00000E+000	T	DC Voltage (V)
FREQINIT	QUANT	3.00000E+005	Initial Freq. (Hz)
FREQFINAL	QUANT	1.00000E+000	Final Freq. (Hz)
PTSPERDEC	QUANT	1.00000E+001	Points/decade
VAC	QUANT	5.00000E+001	AC Voltage (mV rms)
AREA	QUANT	1.00000E+000	Sample Area (cm^2)
SPEED	SELECTOR	2	Optimize for:
ZGUESS	QUANT	1.00000E+003	Estimated Z (ohms)
EOC	QUANT	0	Open Circuit (V)
SEQUENCER	TOGGLE	TRUE	Run as Sequence
PSTATMODEL	IQUANT	5	Pstat Model
PSTATSECTION	LABEL	REF3000-16137	Pstat Section
PSTATSERIALNO	LABEL	16137	Pstat Serial Number
CTRLMODE	IQUANT	1	Control Mode
IESTAB	IQUANT	0	I/E Stability
CASPEED	IQUANT	1	Control Amp Speed
CONVENTION	IQUANT	1	Current Convention
ICHRANGE	IQUANT	2	Ich Range
ICHRANGEMODE	TOGGLE	F	Ich Auto Range
ICHOFFSETENABLE	TOGGLE	T	Ich Offset Enable
ICHOFFSET	QUANT	0	Ich Offset (V)
ICHFILTER	IQUANT	3	Ich Filter
VCHRANGE	IQUANT	2	Vch Range
VCHRANGEMODE	TOGGLE	F	Vch Auto Range
VCHOFFSETENABLE	TOGGLE	T	Vch Offset Enable
VCHOFFSET	QUANT	0	Vch Offset (V)
VCHFILTER	IQUANT	3	Vch Filter
ACHRANGE	IQUANT	2	Ach Range
ACHOFFSETENABLE	TOGGLE	F	Ach Offset Enable
ACHOFFSET	QUANT	0	Ach Offset (V)
ACHFILTER	IQUANT	3	Ach Filter
IERANGELOWERLIMIT	IQUANT	2	I/E Range Lower Limit
IERANGEMODE	TOGGLE	F	I/E AutoRange
IERANGE	IQUANT	11	I/E Range
POSFEEDENABLE	TOGGLE	F	Positive Feedback IR Comp
POSFEEDRESISTANCE	QUANT	0	Positive Feedback Resistance (ohm)
ACHSELECT	IQUANT	0	Ach Select
CABLEID	IQUANT	13	Cable ID
DCCALDATE	LABEL	9/10/2021	DC Calibration Date
ACCALDATE	LABEL	9/10/2021	AC Calibration Date
THERMOSELECT	IQUANT	1	Thermo Select
FRAMEWORKVERSION	QUANT	6.33	Framework Version
INSTRUMENTVERSION	LABEL	3.50	Instrument Version
COMPLIANCEVOLTAGE	IQUANT	0	Compliance Voltage
ZCURVE	TABLE
	Pt	Time	Freq	Zreal	Zimag	Zsig	Zmod	Zphz	Idc	Vdc	IERange
	#	s	Hz	ohm	ohm	V	ohm	°	A	V	#
	0	7	300046.9	48.11759	1.7739	1	48.15028	2.111306	6.0633E-006	-0.0015688	9
	1	10	238359.4	48.26464	1.426948	1	48.28572	1.693461	-8.384367E-006	4.986554E-005	9
	2	13	189328.1	48.35359	1.09792	1	48.36605	1.300738	-2.356337E-005	-0.0005347	9
	3	16	150421.9	48.63842	0.8112266	1	48.64518	0.955532	-5.647289E-005	0.0011628	9
	4	18	119484.4	48.85173	0.5969053	1	48.85537	0.7000459	-5.739955E-005	0.0012309	9
	5	21	94921.88	49.1094	0.5245113	1	49.1122	0.6119224	1.876262E-005	-0.0007535	9
	6	23	75421.88	49.31263	0.3486258	1	49.31387	0.4050575	-3.925486E-006	-0.0003673	9
	7	26	59859.37	49.52588	0.1857265	1	49.52623	0.2148633	1.964966E-005	-0.0006107	9
	8	28	47578.12	49.793	0.0386274	1	49.79301	0.0444477	-3.259411E-006	0.0002239	9
	9	31	37828.12	50.00614	-0.0968954	1	50.00623	-0.1110202	-1.412286E-005	8.22395E-005	9
	10	33	30046.88	50.2625	-0.2282082	1	50.26302	-0.2601398	-1.534686E-005	0.0004177	9
	11	36	23859.38	50.50607	-0.3700409	1	50.50742	-0.4197794	-1.714832E-005	0.0002986	9
	12	38	18984.38	50.74714	-0.502636	1	50.74963	-0.5674798	1.836403E-005	-0.0005881	9
	13	41	15046.87	51.00112	-0.6788218	1	51.00563	-0.7625583	8.33939E-006	-0.0006352	9
	14	43	11953.13	51.2569	-0.8369031	1	51.26374	-0.9354204	-8.672051E-006	0.0004183	9
	15	45	9515.62	51.49485	-1.06312	1	51.50582	-1.182713	2.036614E-006	-0.0004768	9
	16	48	7546.875	51.74332	-1.321864	1	51.7602	-1.463392	1.01376E-005	-0.0001988	9
	17	50	5928.309	52.03131	-1.677459	1	52.05834	-1.846543	-1.445782E-005	8.72862E-005	9
	18	52	4733.456	52.30972	-2.050689	1	52.3499	-2.245008	3.295969E-006	8.018475E-005	9
	19	55	3796.875	52.58764	-2.53839	1	52.64886	-2.763506	-4.802821E-006	-0.0002906	9
	20	57	2987.132	52.88898	-3.169881	1	52.98389	-3.429898	1.025463E-005	-0.0001487	9
	21	59	2390.625	53.2336	-3.897218	1	53.37607	-4.187139	2.176635E-005	-0.0006102	9
	22	61	1884.191	53.51023	-4.831222	1	53.72788	-5.159016	1.833194E-005	-0.0004853	9
	23	64	1516.544	53.9161	-5.958036	1	54.2443	-6.305924	2.571826E-006	-0.0005093	9
	24	66	1193.986	54.33712	-7.457937	1	54.84654	-7.815191	-9.461382E-006	0.0003946	9
	25	69	946.5144	54.78934	-9.23814	1	55.56271	-9.57073	8.812252E-006	-0.0006379	9
	26	71	751.7689	55.26403	-11.43516	1	56.4347	-11.69059	8.249027E-006	-0.000633	9
	27	73	597.4265	55.82425	-14.20203	1	57.60247	-14.2736	-1.3063E-005	-1.575917E-005	9
	28	76	477.4305	56.49281	-17.46687	1	59.13145	-17.18095	6.276093E-007	-0.0001264	9
	29	78	376.6741	57.2354	-21.76024	1	61.23234	-20.81623	5.978343E-007	-0.0001247	9
	30	80	298.2954	58.104	-27.02061	1	64.07954	-24.94025	5.715326E-007	-0.0001272	9
	31	83	237.7717	59.12535	-33.34829	1	67.88162	-29.42417	5.953467E-007	-0.0001285	9
	32	85	189.0121	60.35587	-41.25277	1	73.10692	-34.3523	5.922773E-007	-0.0001241	9
	33	87	150.2404	61.84015	-51.01901	1	80.16947	-39.52312	6.066625E-007	-0.0001284	9
	34	90	119.1737	63.65989	-63.21352	1	89.7136	-44.79842	5.828019E-007	-0.0001239	9
	35	92	95.0169	65.84573	-77.93298	1	102.0255	-49.80547	4.755857E-007	-0.0001279	9
	36	95	75.60484	68.56649	-96.2544	1	118.179	-54.53597	5.334319E-007	-0.0001222	9
	37	97	54.50582	73.53268	-130.1854	1	149.5169	-60.54092	5.461665E-007	-0.0001283	9
	38	100	45.95588	76.98012	-152.4204	1	170.7569	-63.20389	4.51956E-007	-0.0001209	9
	39	102	37.20238	82.08265	-185.2045	1	202.5791	-66.09708	5.344484E-007	-0.0001272	9
	40	105	30.04808	88.56596	-225.4958	1	242.2649	-68.55703	5.878304E-007	-0.00013	9
	41	107	23.91582	97.377	-278.199	1	294.749	-70.7086	5.935674E-007	-0.0001337	9
	42	109	18.60119	110.0345	-350.296	1	367.1714	-72.56152	5.386253E-007	-0.0001285	9
	43	112	15.02404	123.6957	-423.8842	1	441.5637	-73.73196	2.323208E-007	-0.0001099	8
	44	114	12.01923	142.6515	-519.2917	1	538.5288	-74.63952	3.724815E-007	-0.0001148	8
	45	116	9.450605	169.7043	-645.1669	1	667.1131	-75.26279	1.796522E-007	-0.0001095	8
	46	119	7.512019	203.5844	-792.3521	1	818.0883	-75.5903	2.488058E-007	-0.0001029	8
	47	122	5.978954	247.8772	-969.359	1	1000.55	-75.65612	2.343446E-007	-0.0001097	8
	48	125	4.734848	307.005	-1189.879	1	1228.847	-75.53244	2.929174E-007	-0.0001196	8
	49	128	3.75601	382.4627	-1453.009	1	1502.502	-75.25304	2.654305E-007	-0.0001005	8
	50	131	3.004808	474.6005	-1756.283	1	1819.279	-74.87814	3.089102E-007	-0.0001572	8
	51	135	2.372217	598.154	-2142.419	1	2224.353	-74.4005	2.728553E-007	-0.0001889	8
	52	139	1.878005	754.7104	-2596.523	1	2703.983	-73.79286	2.664939E-007	-0.0001094	8
	53	144	1.512097	932.4861	-3096.641	1	3233.994	-73.24147	2.734513E-007	-0.0002441	8
	54	149	1.201923	1155.285	-3728.668	1	3903.543	-72.78501	2.688487E-007	-9.225096E-005	8
	55	156	0.956633	1422.794	-4483.953	1	4704.272	-72.39536	1.191817E-008	-0.0006483	7
