Z60W Data File: Version 1.1
CorrTest for Windows: SN CS310H1805157  V5.2.1111.9  2.5H6.220118
Sweep Frequency: Control Voltage
  Date:4-28-2026   Time:13:15:46
  Begin Information:            Cell Information
      Surface Area:           1
      Density:                7.8
      Weight:                 28
  End Information:              Cell Information
  Freq (Hz)     Ampl(mV)       Bias(V)      Time(Sec)       Z'(Ohm.cm^2)    Z''(Ohm.cm^2)        GD       Err      Range
End Comments
  3.07200E+05,	1.00000E+01,	-7.06310E-03,	5.81410E-02,	1.66119E+00,	4.51996E+00,	0.00000E+00,	0,	0
  2.76480E+05,	1.00000E+01,	-7.06310E-03,	1.66309E+00,	2.22966E+00,	3.78856E+00,	0.00000E+00,	0,	0
  1.97486E+05,	1.00000E+01,	-7.06310E-03,	2.59808E+00,	2.87209E+00,	2.69990E+00,	0.00000E+00,	0,	0
  1.53600E+05,	1.00000E+01,	-7.06310E-03,	3.49863E+00,	3.12229E+00,	2.04045E+00,	0.00000E+00,	0,	0
  1.25673E+05,	1.00000E+01,	-7.06310E-03,	4.39050E+00,	3.27227E+00,	1.62640E+00,	0.00000E+00,	0,	0
  9.87429E+04,	1.00000E+01,	-7.06310E-03,	5.32881E+00,	3.39559E+00,	1.22982E+00,	0.00000E+00,	0,	0
  7.68000E+04,	1.00000E+01,	-7.06310E-03,	6.25203E+00,	3.46566E+00,	8.90321E-01,	0.00000E+00,	0,	0
  6.01043E+04,	1.00000E+01,	-7.06310E-03,	9.47838E+00,	3.53879E+00,	5.65956E-01,	0.00000E+00,	0,	0
  4.93714E+04,	1.00000E+01,	-7.06310E-03,	1.10641E+01,	3.56484E+00,	3.81445E-01,	0.00000E+00,	0,	0
  3.84000E+04,	1.00000E+01,	-7.06310E-03,	1.19646E+01,	3.59694E+00,	1.81712E-01,	0.00000E+00,	0,	0
  3.00522E+04,	1.00000E+01,	-7.06310E-03,	1.28106E+01,	3.62053E+00,	-4.66002E-03,	0.00000E+00,	0,	0
  2.38345E+04,	1.00000E+01,	-7.06310E-03,	1.36773E+01,	3.64723E+00,	-1.73002E-01,	0.00000E+00,	0,	0
  1.86811E+04,	1.00000E+01,	-7.06310E-03,	1.45069E+01,	3.68260E+00,	-3.43948E-01,	0.00000E+00,	0,	0
  1.47064E+04,	1.00000E+01,	-7.06310E-03,	1.54827E+01,	3.72251E+00,	-5.28347E-01,	0.00000E+00,	0,	0
  1.15200E+04,	1.00000E+01,	-7.06310E-03,	1.64797E+01,	3.77936E+00,	-7.30373E-01,	0.00000E+00,	0,	0
  9.60000E+03,	1.00000E+01,	-7.06310E-03,	1.80550E+01,	3.82456E+00,	-8.87476E-01,	0.00000E+00,	0,	0
  7.51304E+03,	1.00000E+01,	-7.06310E-03,	1.89416E+01,	3.90837E+00,	-1.13779E+00,	0.00000E+00,	0,	0
  5.76000E+03,	1.00000E+01,	-7.06310E-03,	1.98567E+01,	4.00498E+00,	-1.43774E+00,	0.00000E+00,	0,	0
  4.54737E+03,	1.00000E+01,	-7.06310E-03,	2.07064E+01,	4.10803E+00,	-1.76102E+00,	0.00000E+00,	0,	0
  3.60000E+03,	1.00000E+01,	-7.06310E-03,	2.17161E+01,	4.23295E+00,	-2.13455E+00,	0.00000E+00,	0,	0
  2.88000E+03,	1.00000E+01,	-7.06310E-03,	2.25982E+01,	4.36045E+00,	-2.56158E+00,	0.00000E+00,	0,	0
  2.27368E+03,	1.00000E+01,	-7.06310E-03,	2.48728E+01,	4.47710E+00,	-3.08447E+00,	0.00000E+00,	0,	0
  1.78144E+03,	1.00000E+01,	-7.06310E-03,	2.56650E+01,	4.66736E+00,	-3.75379E+00,	0.00000E+00,	0,	0
  1.41639E+03,	1.00000E+01,	-7.06310E-03,	2.65597E+01,	4.87844E+00,	-4.53406E+00,	0.00000E+00,	0,	0
  1.12208E+03,	1.00000E+01,	-7.06310E-03,	2.75890E+01,	5.12454E+00,	-5.48774E+00,	0.00000E+00,	0,	0
  9.00000E+02,	1.00000E+01,	-7.06310E-03,	3.25583E+01,	5.40895E+00,	-6.61638E+00,	0.00000E+00,	0,	0
  7.20000E+02,	1.00000E+01,	-7.06310E-03,	3.39508E+01,	5.72877E+00,	-7.98216E+00,	0.00000E+00,	0,	0
  5.68421E+02,	1.00000E+01,	-7.06310E-03,	3.53257E+01,	6.14636E+00,	-9.75380E+00,	0.00000E+00,	0,	0
  4.40816E+02,	1.00000E+01,	-7.06310E-03,	3.83667E+01,	6.71799E+00,	-1.21574E+01,	0.00000E+00,	0,	0
  3.54098E+02,	1.00000E+01,	-7.06310E-03,	4.07487E+01,	7.31146E+00,	-1.46752E+01,	0.00000E+00,	0,	0
  2.76923E+02,	1.00000E+01,	-7.06310E-03,	4.33802E+01,	8.15249E+00,	-1.81257E+01,	0.00000E+00,	0,	0
  2.20408E+02,	1.00000E+01,	-7.06310E-03,	4.63059E+01,	9.15371E+00,	-2.20749E+01,	0.00000E+00,	0,	0
  1.74194E+02,	1.00000E+01,	-7.06310E-03,	4.95982E+01,	1.04620E+01,	-2.70214E+01,	0.00000E+00,	0,	0
  1.37580E+02,	1.00000E+01,	-7.06310E-03,	5.32901E+01,	1.21564E+01,	-3.30627E+01,	0.00000E+00,	0,	0
  1.09091E+02,	1.00000E+01,	-7.06310E-03,	5.74099E+01,	1.43053E+01,	-4.02967E+01,	0.00000E+00,	0,	0
  8.70968E+01,	1.00000E+01,	-7.06310E-03,	6.31419E+01,	1.69542E+01,	-4.87903E+01,	0.00000E+00,	0,	0
  6.83544E+01,	1.00000E+01,	-7.06310E-03,	6.82057E+01,	2.06876E+01,	-6.00556E+01,	0.00000E+00,	0,	0
  5.45455E+01,	1.00000E+01,	-7.06310E-03,	7.36487E+01,	2.53283E+01,	-7.11275E+01,	0.00000E+00,	0,	0
  4.28571E+01,	1.00000E+01,	-7.06310E-03,	7.72042E+01,	3.14394E+01,	-8.61726E+01,	0.00000E+00,	0,	0
  3.39623E+01,	1.00000E+01,	-7.06310E-03,	8.09344E+01,	3.81762E+01,	-1.03170E+02,	0.00000E+00,	0,	0
  2.68657E+01,	1.00000E+01,	-7.06310E-03,	8.47847E+01,	4.76474E+01,	-1.23651E+02,	0.00000E+00,	0,	0
  2.13439E+01,	1.00000E+01,	-7.06310E-03,	8.85926E+01,	5.88193E+01,	-1.46752E+02,	0.00000E+00,	0,	0
  1.73077E+01,	1.00000E+01,	-7.06310E-03,	9.53181E+01,	7.08820E+01,	-1.71186E+02,	0.00000E+00,	0,	0
  1.36364E+01,	1.00000E+01,	-7.06310E-03,	1.00330E+02,	8.65279E+01,	-2.02857E+02,	0.00000E+00,	0,	0
  1.07143E+01,	1.00000E+01,	-7.06310E-03,	1.03274E+02,	1.04715E+02,	-2.40361E+02,	0.00000E+00,	0,	0
  8.49057E+00,	1.00000E+01,	-7.06310E-03,	1.07464E+02,	1.24558E+02,	-2.83144E+02,	0.00000E+00,	0,	0
  6.71642E+00,	1.00000E+01,	-7.06310E-03,	1.10030E+02,	1.47126E+02,	-3.34457E+02,	0.00000E+00,	0,	0
  5.29412E+00,	1.00000E+01,	-7.06310E-03,	1.12962E+02,	1.73034E+02,	-3.96794E+02,	0.00000E+00,	0,	0
  4.16667E+00,	1.00000E+01,	-7.06310E-03,	1.16463E+02,	2.02611E+02,	-4.72904E+02,	0.00000E+00,	0,	0
  3.30882E+00,	1.00000E+01,	-7.06310E-03,	1.20680E+02,	2.35309E+02,	-5.61701E+02,	0.00000E+00,	0,	0
  2.61628E+00,	1.00000E+01,	-7.06310E-03,	1.24667E+02,	2.74040E+02,	-6.70754E+02,	0.00000E+00,	0,	0
  2.07373E+00,	1.00000E+01,	-7.06310E-03,	1.29485E+02,	3.18773E+02,	-8.01707E+02,	0.00000E+00,	0,	0
  1.64234E+00,	1.00000E+01,	-7.06310E-03,	1.35265E+02,	3.71099E+02,	-9.60245E+02,	0.00000E+00,	0,	0
  1.30058E+00,	1.00000E+01,	-7.06310E-03,	1.39425E+02,	4.32770E+02,	-1.15070E+03,	0.00000E+00,	0,	0
  1.03211E+00,	1.00000E+01,	-7.06310E-03,	1.43831E+02,	5.03423E+02,	-1.37930E+03,	0.00000E+00,	0,	0
  8.15217E-01,	1.00000E+01,	-7.06310E-03,	1.50753E+02,	5.81764E+02,	-1.65855E+03,	0.00000E+00,	0,	0
  6.46552E-01,	1.00000E+01,	-7.06310E-03,	1.59892E+02,	6.67420E+02,	-1.99460E+03,	0.00000E+00,	0,	0
  5.11364E-01,	1.00000E+01,	-7.06310E-03,	1.64891E+02,	7.39884E+02,	-2.42004E+03,	0.00000E+00,	0,	0
  4.07609E-01,	1.00000E+01,	-7.06310E-03,	1.70983E+02,	8.40260E+02,	-2.92168E+03,	0.00000E+00,	0,	0
  3.21429E-01,	1.00000E+01,	-7.06310E-03,	1.78137E+02,	9.57524E+02,	-3.62299E+03,	0.00000E+00,	0,	0
  2.54525E-01,	1.00000E+01,	-7.06310E-03,	1.86944E+02,	1.09507E+03,	-4.42663E+03,	0.00000E+00,	0,	0
  2.01613E-01,	1.00000E+01,	-7.06310E-03,	1.97842E+02,	1.25599E+03,	-5.43520E+03,	0.00000E+00,	0,	0
  1.59574E-01,	1.00000E+01,	-7.06310E-03,	2.11305E+02,	1.45739E+03,	-6.69672E+03,	0.00000E+00,	0,	0
  1.26689E-01,	1.00000E+01,	-7.06310E-03,	2.28261E+02,	1.71276E+03,	-8.24103E+03,	0.00000E+00,	0,	0
  1.00446E-01,	1.00000E+01,	-7.06310E-03,	2.49177E+02,	2.04476E+03,	-1.01800E+04,	0.00000E+00,	0,	0