Z60W Data File: Version 1.1
CorrTest for Windows: SN CS310H1805157  V5.2.1111.9  2.5H6.220118
Sweep Frequency: Control Voltage
  Date:4-28-2026   Time:17:34:39
  Begin Information:            Cell Information
      Surface Area:           1
      Density:                7.8
      Weight:                 28
  End Information:              Cell Information
  Freq (Hz)     Ampl(mV)       Bias(V)      Time(Sec)       Z'(Ohm.cm^2)    Z''(Ohm.cm^2)        GD       Err      Range
End Comments
  3.07200E+05,	1.00000E+01,	-1.32486E-02,	2.10696E-02,	4.84846E+02,	-7.72525E+01,	0.00000E+00,	0,	0
  2.76480E+05,	1.00000E+01,	-1.32486E-02,	1.61887E+00,	4.91195E+02,	-7.42382E+01,	0.00000E+00,	0,	0
  1.97486E+05,	1.00000E+01,	-1.32486E-02,	2.52153E+00,	5.09861E+02,	-7.56352E+01,	0.00000E+00,	0,	0
  1.53600E+05,	1.00000E+01,	-1.32486E-02,	3.41558E+00,	5.25154E+02,	-7.15277E+01,	0.00000E+00,	0,	0
  1.25673E+05,	1.00000E+01,	-1.32486E-02,	4.34569E+00,	5.36939E+02,	-6.41003E+01,	0.00000E+00,	0,	0
  9.87429E+04,	1.00000E+01,	-1.32486E-02,	5.24552E+00,	5.45848E+02,	-6.00167E+01,	0.00000E+00,	0,	0
  7.68000E+04,	1.00000E+01,	-1.32486E-02,	6.14228E+00,	5.53628E+02,	-5.46632E+01,	0.00000E+00,	0,	0
  6.01043E+04,	1.00000E+01,	-1.32486E-02,	7.14172E+00,	5.60882E+02,	-4.71509E+01,	0.00000E+00,	0,	0
  4.93714E+04,	1.00000E+01,	-1.32486E-02,	8.74421E+00,	5.68155E+02,	-4.28617E+01,	0.00000E+00,	0,	0
  3.84000E+04,	1.00000E+01,	-1.32486E-02,	9.63797E+00,	5.64904E+02,	-3.26869E+01,	0.00000E+00,	0,	0
  3.00522E+04,	1.00000E+01,	-1.32486E-02,	1.05316E+01,	5.57015E+02,	-3.70942E+01,	0.00000E+00,	0,	0
  2.38345E+04,	1.00000E+01,	-1.32486E-02,	1.13887E+01,	5.81283E+02,	-2.28720E+01,	0.00000E+00,	0,	0
  1.86811E+04,	1.00000E+01,	-1.32486E-02,	1.22162E+01,	5.76579E+02,	-2.63295E+01,	0.00000E+00,	0,	0
  1.47064E+04,	1.00000E+01,	-1.32486E-02,	1.31716E+01,	5.87278E+02,	-1.99722E+01,	0.00000E+00,	0,	0
  1.15200E+04,	1.00000E+01,	-1.32486E-02,	1.41332E+01,	5.86725E+02,	-1.48676E+01,	0.00000E+00,	0,	0
  9.60000E+03,	1.00000E+01,	-1.32486E-02,	1.57010E+01,	5.91251E+02,	-1.80440E+01,	0.00000E+00,	0,	0
  7.51304E+03,	1.00000E+01,	-1.32486E-02,	1.65610E+01,	5.90626E+02,	-1.32207E+01,	0.00000E+00,	0,	0
  5.76000E+03,	1.00000E+01,	-1.32486E-02,	1.74524E+01,	5.93443E+02,	-1.12663E+01,	0.00000E+00,	0,	0
  4.54737E+03,	1.00000E+01,	-1.32486E-02,	1.83067E+01,	5.94427E+02,	-1.14904E+01,	0.00000E+00,	0,	0
  3.60000E+03,	1.00000E+01,	-1.32486E-02,	1.93065E+01,	5.90351E+02,	-1.43492E+01,	0.00000E+00,	0,	0
  2.88000E+03,	1.00000E+01,	-1.32486E-02,	2.01957E+01,	5.95953E+02,	-1.76504E+01,	0.00000E+00,	0,	0
  2.27368E+03,	1.00000E+01,	-1.32486E-02,	2.24788E+01,	5.95632E+02,	-1.58102E+01,	0.00000E+00,	0,	0
  1.78144E+03,	1.00000E+01,	-1.32486E-02,	2.32738E+01,	6.02362E+02,	-2.19746E+01,	0.00000E+00,	0,	0
  1.41639E+03,	1.00000E+01,	-1.32486E-02,	2.41771E+01,	5.93254E+02,	-2.26595E+01,	0.00000E+00,	0,	0
  1.12208E+03,	1.00000E+01,	-1.32486E-02,	2.51960E+01,	5.95120E+02,	-2.26647E+01,	0.00000E+00,	0,	0
  9.00000E+02,	1.00000E+01,	-1.32486E-02,	3.01951E+01,	6.04354E+02,	-2.59041E+01,	0.00000E+00,	0,	0
  7.20000E+02,	1.00000E+01,	-1.32486E-02,	3.15675E+01,	6.06730E+02,	-3.10528E+01,	0.00000E+00,	0,	0
  5.68421E+02,	1.00000E+01,	-1.32486E-02,	3.29316E+01,	6.09230E+02,	-3.80698E+01,	0.00000E+00,	0,	0
  4.40816E+02,	1.00000E+01,	-1.32486E-02,	3.44170E+01,	6.12375E+02,	-4.61340E+01,	0.00000E+00,	0,	0
  3.54098E+02,	1.00000E+01,	-1.32486E-02,	3.67703E+01,	6.16122E+02,	-5.56326E+01,	0.00000E+00,	0,	0
  2.76923E+02,	1.00000E+01,	-1.32486E-02,	3.93974E+01,	6.21271E+02,	-6.83408E+01,	0.00000E+00,	0,	0
  2.20408E+02,	1.00000E+01,	-1.32486E-02,	4.23158E+01,	6.27201E+02,	-8.25020E+01,	0.00000E+00,	0,	0
  1.74194E+02,	1.00000E+01,	-1.32486E-02,	4.55898E+01,	6.34055E+02,	-1.00318E+02,	0.00000E+00,	0,	0
  1.37580E+02,	1.00000E+01,	-1.32486E-02,	4.92579E+01,	6.43449E+02,	-1.22027E+02,	0.00000E+00,	0,	0
  1.09091E+02,	1.00000E+01,	-1.32486E-02,	5.33728E+01,	6.54791E+02,	-1.48003E+02,	0.00000E+00,	0,	0
  8.70968E+01,	1.00000E+01,	-1.32486E-02,	5.90535E+01,	6.68952E+02,	-1.77763E+02,	0.00000E+00,	0,	0
  6.83544E+01,	1.00000E+01,	-1.32486E-02,	6.40592E+01,	6.89160E+02,	-2.17835E+02,	0.00000E+00,	0,	0
  5.45455E+01,	1.00000E+01,	-1.32486E-02,	6.95343E+01,	7.00743E+02,	-2.51748E+02,	0.00000E+00,	0,	0
  4.28571E+01,	1.00000E+01,	-1.32486E-02,	7.30599E+01,	7.22899E+02,	-3.03267E+02,	0.00000E+00,	0,	0
  3.39623E+01,	1.00000E+01,	-1.32486E-02,	7.67768E+01,	7.44206E+02,	-3.65265E+02,	0.00000E+00,	0,	0
  2.68657E+01,	1.00000E+01,	-1.32486E-02,	8.06036E+01,	7.77523E+02,	-4.36089E+02,	0.00000E+00,	0,	0
  2.13439E+01,	1.00000E+01,	-1.32486E-02,	8.44027E+01,	8.13403E+02,	-5.18544E+02,	0.00000E+00,	0,	0
  1.73077E+01,	1.00000E+01,	-1.32486E-02,	8.80929E+01,	8.49991E+02,	-6.06945E+02,	0.00000E+00,	0,	0
  1.36364E+01,	1.00000E+01,	-1.32486E-02,	9.31214E+01,	8.97772E+02,	-7.27293E+02,	0.00000E+00,	0,	0
  1.07143E+01,	1.00000E+01,	-1.32486E-02,	9.60358E+01,	9.50720E+02,	-8.73705E+02,	0.00000E+00,	0,	0
  8.49057E+00,	1.00000E+01,	-1.32486E-02,	1.00224E+02,	1.01143E+03,	-1.04694E+03,	0.00000E+00,	0,	0
  6.71642E+00,	1.00000E+01,	-1.32486E-02,	1.02735E+02,	1.07837E+03,	-1.25537E+03,	0.00000E+00,	0,	0
  5.29412E+00,	1.00000E+01,	-1.32486E-02,	1.05673E+02,	1.15597E+03,	-1.51487E+03,	0.00000E+00,	0,	0
  4.16667E+00,	1.00000E+01,	-1.32486E-02,	1.09143E+02,	1.24802E+03,	-1.83681E+03,	0.00000E+00,	0,	0
  3.30882E+00,	1.00000E+01,	-1.32486E-02,	1.15678E+02,	1.35229E+03,	-2.21603E+03,	0.00000E+00,	0,	0
  2.61628E+00,	1.00000E+01,	-1.32486E-02,	1.19691E+02,	1.47791E+03,	-2.69039E+03,	0.00000E+00,	0,	0
  2.07373E+00,	1.00000E+01,	-1.32486E-02,	1.24484E+02,	1.62837E+03,	-3.26824E+03,	0.00000E+00,	0,	0
  1.64234E+00,	1.00000E+01,	-1.32486E-02,	1.30284E+02,	1.81273E+03,	-3.97977E+03,	0.00000E+00,	0,	0
  1.30058E+00,	1.00000E+01,	-1.32486E-02,	1.34437E+02,	2.04178E+03,	-4.84862E+03,	0.00000E+00,	0,	0
  1.03211E+00,	1.00000E+01,	-1.32486E-02,	1.38827E+02,	2.32832E+03,	-5.90730E+03,	0.00000E+00,	0,	0
  8.15217E-01,	1.00000E+01,	-1.32486E-02,	1.45764E+02,	2.69212E+03,	-7.21317E+03,	0.00000E+00,	0,	0
  6.46552E-01,	1.00000E+01,	-1.32486E-02,	1.50574E+02,	3.15326E+03,	-8.77990E+03,	0.00000E+00,	0,	0
  5.11364E-01,	1.00000E+01,	-1.32486E-02,	1.55576E+02,	3.66515E+03,	-1.07336E+04,	0.00000E+00,	0,	0
  4.07609E-01,	1.00000E+01,	-1.32486E-02,	1.61623E+02,	4.38536E+03,	-1.29863E+04,	0.00000E+00,	0,	0
  3.21429E-01,	1.00000E+01,	-1.32486E-02,	1.68777E+02,	5.37965E+03,	-1.59885E+04,	0.00000E+00,	0,	0
  2.54525E-01,	1.00000E+01,	-1.32486E-02,	1.77561E+02,	6.62733E+03,	-1.93268E+04,	0.00000E+00,	0,	0
  2.01613E-01,	1.00000E+01,	-1.32486E-02,	1.88393E+02,	8.19821E+03,	-2.33177E+04,	0.00000E+00,	0,	0
  1.59574E-01,	1.00000E+01,	-1.32486E-02,	2.01839E+02,	1.01790E+04,	-2.80729E+04,	0.00000E+00,	0,	0
  1.26689E-01,	1.00000E+01,	-1.32486E-02,	2.35752E+02,	1.26271E+04,	-3.32913E+04,	0.00000E+00,	0,	0
  1.00446E-01,	1.00000E+01,	-1.32486E-02,	2.56606E+02,	1.54922E+04,	-4.07674E+04,	0.00000E+00,	0,	0