Z60W Data File: Version 1.1
CorrTest for Windows: SN CS310H1805157  V5.2.1111.9  2.5H6.220118
Sweep Frequency: Control Voltage
  Date:4-28-2026   Time:08:50:52
  Begin Information:            Cell Information
      Surface Area:           1
      Density:                7.8
      Weight:                 28
  End Information:              Cell Information
  Freq (Hz)     Ampl(mV)       Bias(V)      Time(Sec)       Z'(Ohm.cm^2)    Z''(Ohm.cm^2)        GD       Err      Range
End Comments
  3.07200E+05,	1.00000E+01,	-1.05382E-02,	6.26291E-02,	2.12100E-01,	3.74414E+00,	0.00000E+00,	0,	0
  2.76480E+05,	1.00000E+01,	-1.05382E-02,	1.66590E+00,	6.99238E-01,	3.03535E+00,	0.00000E+00,	0,	0
  1.97486E+05,	1.00000E+01,	-1.05382E-02,	2.58035E+00,	1.40747E+00,	2.13915E+00,	0.00000E+00,	0,	0
  1.53600E+05,	1.00000E+01,	-1.05382E-02,	3.51708E+00,	1.66395E+00,	1.63787E+00,	0.00000E+00,	0,	0
  1.25673E+05,	1.00000E+01,	-1.05382E-02,	4.41279E+00,	1.82469E+00,	1.31002E+00,	0.00000E+00,	0,	0
  9.87429E+04,	1.00000E+01,	-1.05382E-02,	5.33222E+00,	1.94524E+00,	9.76004E-01,	0.00000E+00,	0,	0
  7.68000E+04,	1.00000E+01,	-1.05382E-02,	6.23032E+00,	2.03303E+00,	7.28279E-01,	0.00000E+00,	0,	0
  6.01043E+04,	1.00000E+01,	-1.05382E-02,	9.44085E+00,	2.09774E+00,	4.48940E-01,	0.00000E+00,	0,	0
  4.93714E+04,	1.00000E+01,	-1.05382E-02,	1.10044E+01,	2.11874E+00,	3.04846E-01,	0.00000E+00,	0,	0
  3.84000E+04,	1.00000E+01,	-1.05382E-02,	1.19485E+01,	2.14373E+00,	1.44424E-01,	0.00000E+00,	0,	0
  3.00522E+04,	1.00000E+01,	-1.05382E-02,	1.28155E+01,	2.16700E+00,	3.21746E-03,	0.00000E+00,	0,	0
  2.38345E+04,	1.00000E+01,	-1.05382E-02,	1.36820E+01,	2.19353E+00,	-1.23206E-01,	0.00000E+00,	0,	0
  1.86811E+04,	1.00000E+01,	-1.05382E-02,	1.45175E+01,	2.22239E+00,	-2.56285E-01,	0.00000E+00,	0,	0
  1.47064E+04,	1.00000E+01,	-1.05382E-02,	1.54693E+01,	2.25476E+00,	-3.89857E-01,	0.00000E+00,	0,	0
  1.15200E+04,	1.00000E+01,	-1.05382E-02,	1.64563E+01,	2.29835E+00,	-5.38521E-01,	0.00000E+00,	0,	0
  9.60000E+03,	1.00000E+01,	-1.05382E-02,	1.80230E+01,	2.33141E+00,	-6.56724E-01,	0.00000E+00,	0,	0
  7.51304E+03,	1.00000E+01,	-1.05382E-02,	1.89322E+01,	2.38524E+00,	-8.40819E-01,	0.00000E+00,	0,	0
  5.76000E+03,	1.00000E+01,	-1.05382E-02,	1.98387E+01,	2.45104E+00,	-1.07453E+00,	0.00000E+00,	0,	0
  4.54737E+03,	1.00000E+01,	-1.05382E-02,	2.07114E+01,	2.51890E+00,	-1.31948E+00,	0.00000E+00,	0,	0
  3.60000E+03,	1.00000E+01,	-1.05382E-02,	2.16978E+01,	2.59955E+00,	-1.61608E+00,	0.00000E+00,	0,	0
  2.88000E+03,	1.00000E+01,	-1.05382E-02,	2.26085E+01,	2.68623E+00,	-1.94826E+00,	0.00000E+00,	0,	0
  2.27368E+03,	1.00000E+01,	-1.05382E-02,	2.49050E+01,	2.77294E+00,	-2.36333E+00,	0.00000E+00,	0,	0
  1.78144E+03,	1.00000E+01,	-1.05382E-02,	2.57161E+01,	2.90071E+00,	-2.90151E+00,	0.00000E+00,	0,	0
  1.41639E+03,	1.00000E+01,	-1.05382E-02,	2.66162E+01,	3.05228E+00,	-3.53243E+00,	0.00000E+00,	0,	0
  1.12208E+03,	1.00000E+01,	-1.05382E-02,	2.76383E+01,	3.23204E+00,	-4.30537E+00,	0.00000E+00,	0,	0
  9.00000E+02,	1.00000E+01,	-1.05382E-02,	3.26234E+01,	3.45452E+00,	-5.22089E+00,	0.00000E+00,	0,	0
  7.20000E+02,	1.00000E+01,	-1.05382E-02,	3.39936E+01,	3.72046E+00,	-6.32600E+00,	0.00000E+00,	0,	0
  5.68421E+02,	1.00000E+01,	-1.05382E-02,	3.54037E+01,	4.07920E+00,	-7.75329E+00,	0.00000E+00,	0,	0
  4.40816E+02,	1.00000E+01,	-1.05382E-02,	3.68986E+01,	4.57141E+00,	-9.64723E+00,	0.00000E+00,	0,	0
  3.54098E+02,	1.00000E+01,	-1.05382E-02,	3.92444E+01,	5.11579E+00,	-1.16425E+01,	0.00000E+00,	0,	0
  2.76923E+02,	1.00000E+01,	-1.05382E-02,	4.18917E+01,	5.90276E+00,	-1.43451E+01,	0.00000E+00,	0,	0
  2.20408E+02,	1.00000E+01,	-1.05382E-02,	4.48480E+01,	6.84491E+00,	-1.73985E+01,	0.00000E+00,	0,	0
  1.74194E+02,	1.00000E+01,	-1.05382E-02,	4.81037E+01,	8.08846E+00,	-2.11706E+01,	0.00000E+00,	0,	0
  1.37580E+02,	1.00000E+01,	-1.05382E-02,	5.17821E+01,	9.68532E+00,	-2.57098E+01,	0.00000E+00,	0,	0
  1.09091E+02,	1.00000E+01,	-1.05382E-02,	5.58663E+01,	1.16803E+01,	-3.10452E+01,	0.00000E+00,	0,	0
  8.70968E+01,	1.00000E+01,	-1.05382E-02,	6.39950E+01,	1.41404E+01,	-3.73171E+01,	0.00000E+00,	0,	0
  6.83544E+01,	1.00000E+01,	-1.05382E-02,	6.90139E+01,	1.74304E+01,	-4.53495E+01,	0.00000E+00,	0,	0
  5.45455E+01,	1.00000E+01,	-1.05382E-02,	7.44949E+01,	2.13027E+01,	-5.30203E+01,	0.00000E+00,	0,	0
  4.28571E+01,	1.00000E+01,	-1.05382E-02,	7.80156E+01,	2.61674E+01,	-6.33798E+01,	0.00000E+00,	0,	0
  3.39623E+01,	1.00000E+01,	-1.05382E-02,	8.17844E+01,	3.12119E+01,	-7.49839E+01,	0.00000E+00,	0,	0
  2.68657E+01,	1.00000E+01,	-1.05382E-02,	8.56359E+01,	3.79053E+01,	-8.90137E+01,	0.00000E+00,	0,	0
  2.13439E+01,	1.00000E+01,	-1.05382E-02,	8.94643E+01,	4.53547E+01,	-1.05007E+02,	0.00000E+00,	0,	0
  1.73077E+01,	1.00000E+01,	-1.05382E-02,	9.61438E+01,	5.30862E+01,	-1.22308E+02,	0.00000E+00,	0,	0
  1.36364E+01,	1.00000E+01,	-1.05382E-02,	1.01166E+02,	6.27985E+01,	-1.45313E+02,	0.00000E+00,	0,	0
  1.07143E+01,	1.00000E+01,	-1.05382E-02,	1.04107E+02,	7.39865E+01,	-1.73307E+02,	0.00000E+00,	0,	0
  8.49057E+00,	1.00000E+01,	-1.05382E-02,	1.08313E+02,	8.64082E+01,	-2.06150E+02,	0.00000E+00,	0,	0
  6.71642E+00,	1.00000E+01,	-1.05382E-02,	1.10880E+02,	1.01007E+02,	-2.46244E+02,	0.00000E+00,	0,	0
  5.29412E+00,	1.00000E+01,	-1.05382E-02,	1.13816E+02,	1.18447E+02,	-2.95289E+02,	0.00000E+00,	0,	0
  4.16667E+00,	1.00000E+01,	-1.05382E-02,	1.17290E+02,	1.39169E+02,	-3.55293E+02,	0.00000E+00,	0,	0
  3.30882E+00,	1.00000E+01,	-1.05382E-02,	1.21582E+02,	1.62613E+02,	-4.24954E+02,	0.00000E+00,	0,	0
  2.61628E+00,	1.00000E+01,	-1.05382E-02,	1.25604E+02,	1.90574E+02,	-5.09817E+02,	0.00000E+00,	0,	0
  2.07373E+00,	1.00000E+01,	-1.05382E-02,	1.30380E+02,	2.22361E+02,	-6.11283E+02,	0.00000E+00,	0,	0
  1.64234E+00,	1.00000E+01,	-1.05382E-02,	1.36168E+02,	2.58109E+02,	-7.34472E+02,	0.00000E+00,	0,	0
  1.30058E+00,	1.00000E+01,	-1.05382E-02,	1.40376E+02,	2.98288E+02,	-8.84298E+02,	0.00000E+00,	0,	0
  1.03211E+00,	1.00000E+01,	-1.05382E-02,	1.44790E+02,	3.42631E+02,	-1.06699E+03,	0.00000E+00,	0,	0
  8.15217E-01,	1.00000E+01,	-1.05382E-02,	1.51747E+02,	3.92927E+02,	-1.29718E+03,	0.00000E+00,	0,	0
  6.46552E-01,	1.00000E+01,	-1.05382E-02,	1.60825E+02,	4.50239E+02,	-1.58115E+03,	0.00000E+00,	0,	0
  5.11364E-01,	1.00000E+01,	-1.05382E-02,	1.65874E+02,	5.11624E+02,	-1.94013E+03,	0.00000E+00,	0,	0
  4.07609E-01,	1.00000E+01,	-1.05382E-02,	1.71982E+02,	5.97801E+02,	-2.36956E+03,	0.00000E+00,	0,	0
  3.21429E-01,	1.00000E+01,	-1.05382E-02,	1.79127E+02,	7.18503E+02,	-2.95523E+03,	0.00000E+00,	0,	0
  2.54525E-01,	1.00000E+01,	-1.05382E-02,	1.87918E+02,	8.80556E+02,	-3.63201E+03,	0.00000E+00,	0,	0
  2.01613E-01,	1.00000E+01,	-1.05382E-02,	1.98810E+02,	1.08953E+03,	-4.46727E+03,	0.00000E+00,	0,	0
  1.59574E-01,	1.00000E+01,	-1.05382E-02,	2.12307E+02,	1.39468E+03,	-5.49391E+03,	0.00000E+00,	0,	0
  1.26689E-01,	1.00000E+01,	-1.05382E-02,	2.29215E+02,	1.80287E+03,	-6.73001E+03,	0.00000E+00,	0,	0
  1.00446E-01,	1.00000E+01,	-1.05382E-02,	2.50089E+02,	2.37438E+03,	-8.24009E+03,	0.00000E+00,	0,	0