Z60W Data File: Version 1.1
CorrTest for Windows: SN CS310H1805157  V5.2.1111.9  2.5H6.220118
Sweep Frequency: Control Voltage
  Date:4-28-2026   Time:12:45:24
  Begin Information:            Cell Information
      Surface Area:           1
      Density:                7.8
      Weight:                 28
  End Information:              Cell Information
  Freq (Hz)     Ampl(mV)       Bias(V)      Time(Sec)       Z'(Ohm.cm^2)    Z''(Ohm.cm^2)        GD       Err      Range
End Comments
  3.07200E+05,	1.00000E+01,	-7.62290E-03,	5.32160E-02,	1.27424E+00,	4.37073E+00,	0.00000E+00,	0,	0
  2.76480E+05,	1.00000E+01,	-7.62290E-03,	1.67849E+00,	1.84466E+00,	3.60579E+00,	0.00000E+00,	0,	0
  1.97486E+05,	1.00000E+01,	-7.62290E-03,	2.62728E+00,	2.51116E+00,	2.56173E+00,	0.00000E+00,	0,	0
  1.53600E+05,	1.00000E+01,	-7.62290E-03,	3.53921E+00,	2.76761E+00,	1.93973E+00,	0.00000E+00,	0,	0
  1.25673E+05,	1.00000E+01,	-7.62290E-03,	4.44000E+00,	2.90524E+00,	1.53372E+00,	0.00000E+00,	0,	0
  9.87429E+04,	1.00000E+01,	-7.62290E-03,	5.36930E+00,	3.02202E+00,	1.16007E+00,	0.00000E+00,	0,	0
  7.68000E+04,	1.00000E+01,	-7.62290E-03,	6.29884E+00,	3.10007E+00,	8.43671E-01,	0.00000E+00,	0,	0
  6.01043E+04,	1.00000E+01,	-7.62290E-03,	9.51441E+00,	3.17892E+00,	5.28879E-01,	0.00000E+00,	0,	0
  4.93714E+04,	1.00000E+01,	-7.62290E-03,	1.10976E+01,	3.20015E+00,	3.56733E-01,	0.00000E+00,	0,	0
  3.84000E+04,	1.00000E+01,	-7.62290E-03,	1.19920E+01,	3.22415E+00,	1.59568E-01,	0.00000E+00,	0,	0
  3.00522E+04,	1.00000E+01,	-7.62290E-03,	1.28460E+01,	3.24719E+00,	-1.26441E-02,	0.00000E+00,	0,	0
  2.38345E+04,	1.00000E+01,	-7.62290E-03,	1.37517E+01,	3.27464E+00,	-1.71545E-01,	0.00000E+00,	0,	0
  1.86811E+04,	1.00000E+01,	-7.62290E-03,	1.45845E+01,	3.31427E+00,	-3.34836E-01,	0.00000E+00,	0,	0
  1.47064E+04,	1.00000E+01,	-7.62290E-03,	1.55693E+01,	3.35123E+00,	-5.12256E-01,	0.00000E+00,	0,	0
  1.15200E+04,	1.00000E+01,	-7.62290E-03,	1.65630E+01,	3.40707E+00,	-6.96543E-01,	0.00000E+00,	0,	0
  9.60000E+03,	1.00000E+01,	-7.62290E-03,	1.81386E+01,	3.44938E+00,	-8.52260E-01,	0.00000E+00,	0,	0
  7.51304E+03,	1.00000E+01,	-7.62290E-03,	1.90131E+01,	3.52327E+00,	-1.08529E+00,	0.00000E+00,	0,	0
  5.76000E+03,	1.00000E+01,	-7.62290E-03,	1.99582E+01,	3.61688E+00,	-1.37468E+00,	0.00000E+00,	0,	0
  4.54737E+03,	1.00000E+01,	-7.62290E-03,	2.08280E+01,	3.71550E+00,	-1.68647E+00,	0.00000E+00,	0,	0
  3.60000E+03,	1.00000E+01,	-7.62290E-03,	2.18534E+01,	3.83156E+00,	-2.04404E+00,	0.00000E+00,	0,	0
  2.88000E+03,	1.00000E+01,	-7.62290E-03,	2.27519E+01,	3.95770E+00,	-2.46245E+00,	0.00000E+00,	0,	0
  2.27368E+03,	1.00000E+01,	-7.62290E-03,	2.50178E+01,	4.04394E+00,	-2.95135E+00,	0.00000E+00,	0,	0
  1.78144E+03,	1.00000E+01,	-7.62290E-03,	2.58119E+01,	4.22058E+00,	-3.61114E+00,	0.00000E+00,	0,	0
  1.41639E+03,	1.00000E+01,	-7.62290E-03,	2.67044E+01,	4.41213E+00,	-4.35754E+00,	0.00000E+00,	0,	0
  1.12208E+03,	1.00000E+01,	-7.62290E-03,	2.77282E+01,	4.64383E+00,	-5.29250E+00,	0.00000E+00,	0,	0
  9.00000E+02,	1.00000E+01,	-7.62290E-03,	3.27077E+01,	4.91470E+00,	-6.38010E+00,	0.00000E+00,	0,	0
  7.20000E+02,	1.00000E+01,	-7.62290E-03,	3.41050E+01,	5.22222E+00,	-7.70660E+00,	0.00000E+00,	0,	0
  5.68421E+02,	1.00000E+01,	-7.62290E-03,	3.55082E+01,	5.62407E+00,	-9.42764E+00,	0.00000E+00,	0,	0
  4.40816E+02,	1.00000E+01,	-7.62290E-03,	3.85205E+01,	6.17788E+00,	-1.17553E+01,	0.00000E+00,	0,	0
  3.54098E+02,	1.00000E+01,	-7.62290E-03,	4.08631E+01,	6.76178E+00,	-1.41934E+01,	0.00000E+00,	0,	0
  2.76923E+02,	1.00000E+01,	-7.62290E-03,	4.35464E+01,	7.59827E+00,	-1.75392E+01,	0.00000E+00,	0,	0
  2.20408E+02,	1.00000E+01,	-7.62290E-03,	4.65041E+01,	8.58671E+00,	-2.13465E+01,	0.00000E+00,	0,	0
  1.74194E+02,	1.00000E+01,	-7.62290E-03,	4.97568E+01,	9.89110E+00,	-2.61142E+01,	0.00000E+00,	0,	0
  1.37580E+02,	1.00000E+01,	-7.62290E-03,	5.34136E+01,	1.15825E+01,	-3.19238E+01,	0.00000E+00,	0,	0
  1.09091E+02,	1.00000E+01,	-7.62290E-03,	5.74919E+01,	1.37290E+01,	-3.88572E+01,	0.00000E+00,	0,	0
  8.70968E+01,	1.00000E+01,	-7.62290E-03,	6.31813E+01,	1.63786E+01,	-4.69706E+01,	0.00000E+00,	0,	0
  6.83544E+01,	1.00000E+01,	-7.62290E-03,	6.82315E+01,	2.00898E+01,	-5.76883E+01,	0.00000E+00,	0,	0
  5.45455E+01,	1.00000E+01,	-7.62290E-03,	7.36889E+01,	2.46872E+01,	-6.81588E+01,	0.00000E+00,	0,	0
  4.28571E+01,	1.00000E+01,	-7.62290E-03,	7.72571E+01,	3.06958E+01,	-8.23417E+01,	0.00000E+00,	0,	0
  3.39623E+01,	1.00000E+01,	-7.62290E-03,	8.10290E+01,	3.72724E+01,	-9.82954E+01,	0.00000E+00,	0,	0
  2.68657E+01,	1.00000E+01,	-7.62290E-03,	8.48752E+01,	4.63921E+01,	-1.17455E+02,	0.00000E+00,	0,	0
  2.13439E+01,	1.00000E+01,	-7.62290E-03,	8.87239E+01,	5.70271E+01,	-1.39029E+02,	0.00000E+00,	0,	0
  1.73077E+01,	1.00000E+01,	-7.62290E-03,	9.53931E+01,	6.83609E+01,	-1.61824E+02,	0.00000E+00,	0,	0
  1.36364E+01,	1.00000E+01,	-7.62290E-03,	1.00424E+02,	8.28823E+01,	-1.91469E+02,	0.00000E+00,	0,	0
  1.07143E+01,	1.00000E+01,	-7.62290E-03,	1.03354E+02,	9.96248E+01,	-2.26795E+02,	0.00000E+00,	0,	0
  8.49057E+00,	1.00000E+01,	-7.62290E-03,	1.07584E+02,	1.17832E+02,	-2.67339E+02,	0.00000E+00,	0,	0
  6.71642E+00,	1.00000E+01,	-7.62290E-03,	1.10138E+02,	1.38472E+02,	-3.16072E+02,	0.00000E+00,	0,	0
  5.29412E+00,	1.00000E+01,	-7.62290E-03,	1.13070E+02,	1.62311E+02,	-3.75569E+02,	0.00000E+00,	0,	0
  4.16667E+00,	1.00000E+01,	-7.62290E-03,	1.16577E+02,	1.89672E+02,	-4.48496E+02,	0.00000E+00,	0,	0
  3.30882E+00,	1.00000E+01,	-7.62290E-03,	1.20827E+02,	2.20150E+02,	-5.33567E+02,	0.00000E+00,	0,	0
  2.61628E+00,	1.00000E+01,	-7.62290E-03,	1.24791E+02,	2.56477E+02,	-6.37940E+02,	0.00000E+00,	0,	0
  2.07373E+00,	1.00000E+01,	-7.62290E-03,	1.29567E+02,	2.98562E+02,	-7.63106E+02,	0.00000E+00,	0,	0
  1.64234E+00,	1.00000E+01,	-7.62290E-03,	1.35366E+02,	3.47629E+02,	-9.14322E+02,	0.00000E+00,	0,	0
  1.30058E+00,	1.00000E+01,	-7.62290E-03,	1.39582E+02,	4.05008E+02,	-1.09609E+03,	0.00000E+00,	0,	0
  1.03211E+00,	1.00000E+01,	-7.62290E-03,	1.44012E+02,	4.69947E+02,	-1.31436E+03,	0.00000E+00,	0,	0
  8.15217E-01,	1.00000E+01,	-7.62290E-03,	1.50993E+02,	5.41038E+02,	-1.58206E+03,	0.00000E+00,	0,	0
  6.46552E-01,	1.00000E+01,	-7.62290E-03,	1.60083E+02,	6.18427E+02,	-1.90503E+03,	0.00000E+00,	0,	0
  5.11364E-01,	1.00000E+01,	-7.62290E-03,	1.65103E+02,	6.84897E+02,	-2.31707E+03,	0.00000E+00,	0,	0
  4.07609E-01,	1.00000E+01,	-7.62290E-03,	1.71154E+02,	7.77492E+02,	-2.80373E+03,	0.00000E+00,	0,	0
  3.21429E-01,	1.00000E+01,	-7.62290E-03,	1.78323E+02,	8.89769E+02,	-3.48255E+03,	0.00000E+00,	0,	0
  2.54525E-01,	1.00000E+01,	-7.62290E-03,	1.87140E+02,	1.02340E+03,	-4.26518E+03,	0.00000E+00,	0,	0
  2.01613E-01,	1.00000E+01,	-7.62290E-03,	1.98019E+02,	1.18758E+03,	-5.24401E+03,	0.00000E+00,	0,	0
  1.59574E-01,	1.00000E+01,	-7.62290E-03,	2.11475E+02,	1.39997E+03,	-6.46643E+03,	0.00000E+00,	0,	0
  1.26689E-01,	1.00000E+01,	-7.62290E-03,	2.28376E+02,	1.67528E+03,	-7.95755E+03,	0.00000E+00,	0,	0
  1.00446E-01,	1.00000E+01,	-7.62290E-03,	2.49262E+02,	2.04416E+03,	-9.81953E+03,	0.00000E+00,	0,	0