Z60W Data File: Version 1.1
CorrTest for Windows: SN CS310H1805157  V5.2.1111.9  2.5H6.220118
Sweep Frequency: Control Voltage
  Date:4-28-2026   Time:16:05:44
  Begin Information:            Cell Information
      Surface Area:           1
      Density:                7.8
      Weight:                 28
  End Information:              Cell Information
  Freq (Hz)     Ampl(mV)       Bias(V)      Time(Sec)       Z'(Ohm.cm^2)    Z''(Ohm.cm^2)        GD       Err      Range
End Comments
  3.07200E+05,	1.00000E+01,	-4.37535E-03,	2.30541E-02,	3.52203E+01,	2.07384E+01,	0.00000E+00,	0,	0
  2.76480E+05,	1.00000E+01,	-4.37535E-03,	1.67245E+00,	3.49030E+01,	1.82780E+01,	0.00000E+00,	0,	0
  1.97486E+05,	1.00000E+01,	-4.37535E-03,	2.57106E+00,	3.43704E+01,	1.29840E+01,	0.00000E+00,	0,	0
  1.53600E+05,	1.00000E+01,	-4.37535E-03,	3.48147E+00,	3.41033E+01,	1.00576E+01,	0.00000E+00,	0,	0
  1.25673E+05,	1.00000E+01,	-4.37535E-03,	4.36685E+00,	3.40144E+01,	8.13738E+00,	0.00000E+00,	0,	0
  9.87429E+04,	1.00000E+01,	-4.37535E-03,	5.27531E+00,	3.39332E+01,	6.24761E+00,	0.00000E+00,	0,	0
  7.68000E+04,	1.00000E+01,	-4.37535E-03,	6.20089E+00,	3.39081E+01,	4.74679E+00,	0.00000E+00,	0,	0
  6.01043E+04,	1.00000E+01,	-4.37535E-03,	8.30113E+00,	3.39285E+01,	3.57246E+00,	0.00000E+00,	0,	0
  4.93714E+04,	1.00000E+01,	-4.37535E-03,	9.86755E+00,	3.39095E+01,	2.80244E+00,	0.00000E+00,	0,	0
  3.84000E+04,	1.00000E+01,	-4.37535E-03,	1.07623E+01,	3.40202E+01,	1.92701E+00,	0.00000E+00,	0,	0
  3.00522E+04,	1.00000E+01,	-4.37535E-03,	1.16179E+01,	3.39684E+01,	1.20459E+00,	0.00000E+00,	0,	0
  2.38345E+04,	1.00000E+01,	-4.37535E-03,	1.24772E+01,	3.40865E+01,	6.70981E-01,	0.00000E+00,	0,	0
  1.86811E+04,	1.00000E+01,	-4.37535E-03,	1.33456E+01,	3.41410E+01,	2.50600E-01,	0.00000E+00,	0,	0
  1.47064E+04,	1.00000E+01,	-4.37535E-03,	1.43129E+01,	3.42124E+01,	-2.88324E-01,	0.00000E+00,	0,	0
  1.15200E+04,	1.00000E+01,	-4.37535E-03,	1.52876E+01,	3.43040E+01,	-8.07741E-01,	0.00000E+00,	0,	0
  9.60000E+03,	1.00000E+01,	-4.37535E-03,	1.68646E+01,	3.43692E+01,	-1.21207E+00,	0.00000E+00,	0,	0
  7.51304E+03,	1.00000E+01,	-4.37535E-03,	1.77355E+01,	3.44842E+01,	-1.79181E+00,	0.00000E+00,	0,	0
  5.76000E+03,	1.00000E+01,	-4.37535E-03,	1.86271E+01,	3.46352E+01,	-2.49393E+00,	0.00000E+00,	0,	0
  4.54737E+03,	1.00000E+01,	-4.37535E-03,	1.95227E+01,	3.48729E+01,	-3.13770E+00,	0.00000E+00,	0,	0
  3.60000E+03,	1.00000E+01,	-4.37535E-03,	2.05591E+01,	3.50526E+01,	-3.96834E+00,	0.00000E+00,	0,	0
  2.88000E+03,	1.00000E+01,	-4.37535E-03,	2.14741E+01,	3.52850E+01,	-5.00644E+00,	0.00000E+00,	0,	0
  2.27368E+03,	1.00000E+01,	-4.37535E-03,	2.37507E+01,	3.57103E+01,	-5.97372E+00,	0.00000E+00,	0,	0
  1.78144E+03,	1.00000E+01,	-4.37535E-03,	2.45515E+01,	3.61419E+01,	-7.33788E+00,	0.00000E+00,	0,	0
  1.41639E+03,	1.00000E+01,	-4.37535E-03,	2.54547E+01,	3.66420E+01,	-8.98500E+00,	0.00000E+00,	0,	0
  1.12208E+03,	1.00000E+01,	-4.37535E-03,	2.64817E+01,	3.72817E+01,	-1.08019E+01,	0.00000E+00,	0,	0
  9.00000E+02,	1.00000E+01,	-4.37535E-03,	3.14679E+01,	3.81907E+01,	-1.28960E+01,	0.00000E+00,	0,	0
  7.20000E+02,	1.00000E+01,	-4.37535E-03,	3.28779E+01,	3.91003E+01,	-1.53955E+01,	0.00000E+00,	0,	0
  5.68421E+02,	1.00000E+01,	-4.37535E-03,	3.42412E+01,	4.02588E+01,	-1.85245E+01,	0.00000E+00,	0,	0
  4.40816E+02,	1.00000E+01,	-4.37535E-03,	3.56843E+01,	4.17233E+01,	-2.25706E+01,	0.00000E+00,	0,	0
  3.54098E+02,	1.00000E+01,	-4.37535E-03,	3.80152E+01,	4.32039E+01,	-2.67468E+01,	0.00000E+00,	0,	0
  2.76923E+02,	1.00000E+01,	-4.37535E-03,	4.06700E+01,	4.51311E+01,	-3.23557E+01,	0.00000E+00,	0,	0
  2.20408E+02,	1.00000E+01,	-4.37535E-03,	4.35892E+01,	4.71903E+01,	-3.86541E+01,	0.00000E+00,	0,	0
  1.74194E+02,	1.00000E+01,	-4.37535E-03,	4.68655E+01,	4.96096E+01,	-4.65171E+01,	0.00000E+00,	0,	0
  1.37580E+02,	1.00000E+01,	-4.37535E-03,	5.05409E+01,	5.23694E+01,	-5.61182E+01,	0.00000E+00,	0,	0
  1.09091E+02,	1.00000E+01,	-4.37535E-03,	5.46129E+01,	5.55119E+01,	-6.77156E+01,	0.00000E+00,	0,	0
  8.70968E+01,	1.00000E+01,	-4.37535E-03,	6.27431E+01,	5.91831E+01,	-8.17407E+01,	0.00000E+00,	0,	0
  6.83544E+01,	1.00000E+01,	-4.37535E-03,	6.77658E+01,	6.38434E+01,	-1.00614E+02,	0.00000E+00,	0,	0
  5.45455E+01,	1.00000E+01,	-4.37535E-03,	7.32081E+01,	6.87850E+01,	-1.19548E+02,	0.00000E+00,	0,	0
  4.28571E+01,	1.00000E+01,	-4.37535E-03,	7.67338E+01,	7.53495E+01,	-1.46506E+02,	0.00000E+00,	0,	0
  3.39623E+01,	1.00000E+01,	-4.37535E-03,	8.04546E+01,	8.19702E+01,	-1.78424E+02,	0.00000E+00,	0,	0
  2.68657E+01,	1.00000E+01,	-4.37535E-03,	8.42904E+01,	9.22675E+01,	-2.18625E+02,	0.00000E+00,	0,	0
  2.13439E+01,	1.00000E+01,	-4.37535E-03,	8.80866E+01,	1.04837E+02,	-2.66437E+02,	0.00000E+00,	0,	0
  1.73077E+01,	1.00000E+01,	-4.37535E-03,	9.17570E+01,	1.18959E+02,	-3.18842E+02,	0.00000E+00,	0,	0
  1.36364E+01,	1.00000E+01,	-4.37535E-03,	9.67681E+01,	1.39358E+02,	-3.90650E+02,	0.00000E+00,	0,	0
  1.07143E+01,	1.00000E+01,	-4.37535E-03,	9.97026E+01,	1.65918E+02,	-4.79171E+02,	0.00000E+00,	0,	0
  8.49057E+00,	1.00000E+01,	-4.37535E-03,	1.03943E+02,	1.99057E+02,	-5.82637E+02,	0.00000E+00,	0,	0
  6.71642E+00,	1.00000E+01,	-4.37535E-03,	1.06456E+02,	2.41803E+02,	-7.07624E+02,	0.00000E+00,	0,	0
  5.29412E+00,	1.00000E+01,	-4.37535E-03,	1.09397E+02,	2.98058E+02,	-8.58968E+02,	0.00000E+00,	0,	0
  4.16667E+00,	1.00000E+01,	-4.37535E-03,	1.12896E+02,	3.70227E+02,	-1.04064E+03,	0.00000E+00,	0,	0
  3.30882E+00,	1.00000E+01,	-4.37535E-03,	1.19442E+02,	4.57363E+02,	-1.24546E+03,	0.00000E+00,	0,	0
  2.61628E+00,	1.00000E+01,	-4.37535E-03,	1.23442E+02,	5.68251E+02,	-1.49015E+03,	0.00000E+00,	0,	0
  2.07373E+00,	1.00000E+01,	-4.37535E-03,	1.28240E+02,	7.02089E+02,	-1.77191E+03,	0.00000E+00,	0,	0
  1.64234E+00,	1.00000E+01,	-4.37535E-03,	1.34023E+02,	8.62465E+02,	-2.09992E+03,	0.00000E+00,	0,	0
  1.30058E+00,	1.00000E+01,	-4.37535E-03,	1.38189E+02,	1.05178E+03,	-2.47922E+03,	0.00000E+00,	0,	0
  1.03211E+00,	1.00000E+01,	-4.37535E-03,	1.42600E+02,	1.27179E+03,	-2.92137E+03,	0.00000E+00,	0,	0
  8.15217E-01,	1.00000E+01,	-4.37535E-03,	1.49538E+02,	1.51680E+03,	-3.43943E+03,	0.00000E+00,	0,	0
  6.46552E-01,	1.00000E+01,	-4.37535E-03,	1.54340E+02,	1.79736E+03,	-4.04821E+03,	0.00000E+00,	0,	0
  5.11364E-01,	1.00000E+01,	-4.37535E-03,	1.59345E+02,	2.05255E+03,	-4.82435E+03,	0.00000E+00,	0,	0
  4.07609E-01,	1.00000E+01,	-4.37535E-03,	1.65412E+02,	2.40018E+03,	-5.68953E+03,	0.00000E+00,	0,	0
  3.21429E-01,	1.00000E+01,	-4.37535E-03,	1.72547E+02,	2.84498E+03,	-6.89590E+03,	0.00000E+00,	0,	0
  2.54525E-01,	1.00000E+01,	-4.37535E-03,	1.81325E+02,	3.33425E+03,	-8.18116E+03,	0.00000E+00,	0,	0
  2.01613E-01,	1.00000E+01,	-4.37535E-03,	1.92181E+02,	3.89070E+03,	-9.75245E+03,	0.00000E+00,	0,	0
  1.59574E-01,	1.00000E+01,	-4.37535E-03,	2.05637E+02,	4.53945E+03,	-1.16471E+04,	0.00000E+00,	0,	0
  1.26689E-01,	1.00000E+01,	-4.37535E-03,	2.39545E+02,	5.26683E+03,	-1.36327E+04,	0.00000E+00,	0,	0
  1.00446E-01,	1.00000E+01,	-4.37535E-03,	2.60402E+02,	6.05289E+03,	-1.68637E+04,	0.00000E+00,	0,	0