Z60W Data File: Version 1.1
CorrTest for Windows: SN CS310H1805157  V5.2.1111.9  2.5H6.220118
Sweep Frequency: Control Voltage
  Date:4-28-2026   Time:09:52:30
  Begin Information:            Cell Information
      Surface Area:           1
      Density:                7.8
      Weight:                 28
  End Information:              Cell Information
  Freq (Hz)     Ampl(mV)       Bias(V)      Time(Sec)       Z'(Ohm.cm^2)    Z''(Ohm.cm^2)        GD       Err      Range
End Comments
  3.07200E+05,	1.00000E+01,	-1.63273E-03,	8.38103E-02,	1.48228E-01,	3.73518E+00,	0.00000E+00,	0,	0
  2.76480E+05,	1.00000E+01,	-1.63273E-03,	1.70271E+00,	7.16221E-01,	3.00808E+00,	0.00000E+00,	0,	0
  1.97486E+05,	1.00000E+01,	-1.63273E-03,	2.60717E+00,	1.39124E+00,	2.15146E+00,	0.00000E+00,	0,	0
  1.53600E+05,	1.00000E+01,	-1.63273E-03,	3.51623E+00,	1.68208E+00,	1.64073E+00,	0.00000E+00,	0,	0
  1.25673E+05,	1.00000E+01,	-1.63273E-03,	4.42477E+00,	1.83334E+00,	1.29780E+00,	0.00000E+00,	0,	0
  9.87429E+04,	1.00000E+01,	-1.63273E-03,	5.33430E+00,	1.96575E+00,	9.75326E-01,	0.00000E+00,	0,	0
  7.68000E+04,	1.00000E+01,	-1.63273E-03,	6.25510E+00,	2.04196E+00,	7.09471E-01,	0.00000E+00,	0,	0
  6.01043E+04,	1.00000E+01,	-1.63273E-03,	9.46900E+00,	2.10780E+00,	4.36268E-01,	0.00000E+00,	0,	0
  4.93714E+04,	1.00000E+01,	-1.63273E-03,	1.10440E+01,	2.13226E+00,	2.98020E-01,	0.00000E+00,	0,	0
  3.84000E+04,	1.00000E+01,	-1.63273E-03,	1.19748E+01,	2.15977E+00,	1.28908E-01,	0.00000E+00,	0,	0
  3.00522E+04,	1.00000E+01,	-1.63273E-03,	1.28740E+01,	2.18524E+00,	-1.29799E-02,	0.00000E+00,	0,	0
  2.38345E+04,	1.00000E+01,	-1.63273E-03,	1.37348E+01,	2.21042E+00,	-1.41231E-01,	0.00000E+00,	0,	0
  1.86811E+04,	1.00000E+01,	-1.63273E-03,	1.46008E+01,	2.24233E+00,	-2.79572E-01,	0.00000E+00,	0,	0
  1.47064E+04,	1.00000E+01,	-1.63273E-03,	1.55710E+01,	2.27644E+00,	-4.20609E-01,	0.00000E+00,	0,	0
  1.15200E+04,	1.00000E+01,	-1.63273E-03,	1.65641E+01,	2.32122E+00,	-5.72824E-01,	0.00000E+00,	0,	0
  9.60000E+03,	1.00000E+01,	-1.63273E-03,	1.81421E+01,	2.35988E+00,	-6.96588E-01,	0.00000E+00,	0,	0
  7.51304E+03,	1.00000E+01,	-1.63273E-03,	1.90765E+01,	2.41565E+00,	-8.85694E-01,	0.00000E+00,	0,	0
  5.76000E+03,	1.00000E+01,	-1.63273E-03,	1.99800E+01,	2.48696E+00,	-1.12810E+00,	0.00000E+00,	0,	0
  4.54737E+03,	1.00000E+01,	-1.63273E-03,	2.08643E+01,	2.56122E+00,	-1.38161E+00,	0.00000E+00,	0,	0
  3.60000E+03,	1.00000E+01,	-1.63273E-03,	2.18687E+01,	2.64455E+00,	-1.68415E+00,	0.00000E+00,	0,	0
  2.88000E+03,	1.00000E+01,	-1.63273E-03,	2.27633E+01,	2.73636E+00,	-2.03705E+00,	0.00000E+00,	0,	0
  2.27368E+03,	1.00000E+01,	-1.63273E-03,	2.50565E+01,	2.81805E+00,	-2.46099E+00,	0.00000E+00,	0,	0
  1.78144E+03,	1.00000E+01,	-1.63273E-03,	2.58785E+01,	2.95784E+00,	-3.02272E+00,	0.00000E+00,	0,	0
  1.41639E+03,	1.00000E+01,	-1.63273E-03,	2.67761E+01,	3.10420E+00,	-3.66709E+00,	0.00000E+00,	0,	0
  1.12208E+03,	1.00000E+01,	-1.63273E-03,	2.78444E+01,	3.29903E+00,	-4.47666E+00,	0.00000E+00,	0,	0
  9.00000E+02,	1.00000E+01,	-1.63273E-03,	3.28285E+01,	3.52480E+00,	-5.42478E+00,	0.00000E+00,	0,	0
  7.20000E+02,	1.00000E+01,	-1.63273E-03,	3.41873E+01,	3.79521E+00,	-6.57003E+00,	0.00000E+00,	0,	0
  5.68421E+02,	1.00000E+01,	-1.63273E-03,	3.55496E+01,	4.15744E+00,	-8.05561E+00,	0.00000E+00,	0,	0
  4.40816E+02,	1.00000E+01,	-1.63273E-03,	3.70031E+01,	4.65964E+00,	-1.00273E+01,	0.00000E+00,	0,	0
  3.54098E+02,	1.00000E+01,	-1.63273E-03,	3.93533E+01,	5.21146E+00,	-1.21066E+01,	0.00000E+00,	0,	0
  2.76923E+02,	1.00000E+01,	-1.63273E-03,	4.19721E+01,	6.01314E+00,	-1.49319E+01,	0.00000E+00,	0,	0
  2.20408E+02,	1.00000E+01,	-1.63273E-03,	4.49113E+01,	6.96888E+00,	-1.81198E+01,	0.00000E+00,	0,	0
  1.74194E+02,	1.00000E+01,	-1.63273E-03,	4.81817E+01,	8.23880E+00,	-2.20714E+01,	0.00000E+00,	0,	0
  1.37580E+02,	1.00000E+01,	-1.63273E-03,	5.18571E+01,	9.87924E+00,	-2.68348E+01,	0.00000E+00,	0,	0
  1.09091E+02,	1.00000E+01,	-1.63273E-03,	5.59738E+01,	1.19370E+01,	-3.24396E+01,	0.00000E+00,	0,	0
  8.70968E+01,	1.00000E+01,	-1.63273E-03,	6.41212E+01,	1.44939E+01,	-3.90130E+01,	0.00000E+00,	0,	0
  6.83544E+01,	1.00000E+01,	-1.63273E-03,	6.91379E+01,	1.79475E+01,	-4.74487E+01,	0.00000E+00,	0,	0
  5.45455E+01,	1.00000E+01,	-1.63273E-03,	7.45814E+01,	2.20330E+01,	-5.55096E+01,	0.00000E+00,	0,	0
  4.28571E+01,	1.00000E+01,	-1.63273E-03,	7.81139E+01,	2.71988E+01,	-6.63574E+01,	0.00000E+00,	0,	0
  3.39623E+01,	1.00000E+01,	-1.63273E-03,	8.18939E+01,	3.25980E+01,	-7.84519E+01,	0.00000E+00,	0,	0
  2.68657E+01,	1.00000E+01,	-1.63273E-03,	8.57600E+01,	3.97528E+01,	-9.30147E+01,	0.00000E+00,	0,	0
  2.13439E+01,	1.00000E+01,	-1.63273E-03,	8.95772E+01,	4.77227E+01,	-1.09528E+02,	0.00000E+00,	0,	0
  1.73077E+01,	1.00000E+01,	-1.63273E-03,	9.63219E+01,	5.59461E+01,	-1.27282E+02,	0.00000E+00,	0,	0
  1.36364E+01,	1.00000E+01,	-1.63273E-03,	1.01351E+02,	6.62511E+01,	-1.50827E+02,	0.00000E+00,	0,	0
  1.07143E+01,	1.00000E+01,	-1.63273E-03,	1.04276E+02,	7.80299E+01,	-1.79479E+02,	0.00000E+00,	0,	0
  8.49057E+00,	1.00000E+01,	-1.63273E-03,	1.08468E+02,	9.09683E+01,	-2.12970E+02,	0.00000E+00,	0,	0
  6.71642E+00,	1.00000E+01,	-1.63273E-03,	1.11031E+02,	1.05918E+02,	-2.53730E+02,	0.00000E+00,	0,	0
  5.29412E+00,	1.00000E+01,	-1.63273E-03,	1.14040E+02,	1.23687E+02,	-3.03817E+02,	0.00000E+00,	0,	0
  4.16667E+00,	1.00000E+01,	-1.63273E-03,	1.17506E+02,	1.44708E+02,	-3.65265E+02,	0.00000E+00,	0,	0
  3.30882E+00,	1.00000E+01,	-1.63273E-03,	1.21746E+02,	1.68450E+02,	-4.36777E+02,	0.00000E+00,	0,	0
  2.61628E+00,	1.00000E+01,	-1.63273E-03,	1.25711E+02,	1.96922E+02,	-5.24227E+02,	0.00000E+00,	0,	0
  2.07373E+00,	1.00000E+01,	-1.63273E-03,	1.30485E+02,	2.29407E+02,	-6.28767E+02,	0.00000E+00,	0,	0
  1.64234E+00,	1.00000E+01,	-1.63273E-03,	1.36280E+02,	2.66374E+02,	-7.55410E+02,	0.00000E+00,	0,	0
  1.30058E+00,	1.00000E+01,	-1.63273E-03,	1.40471E+02,	3.08140E+02,	-9.09159E+02,	0.00000E+00,	0,	0
  1.03211E+00,	1.00000E+01,	-1.63273E-03,	1.44906E+02,	3.54379E+02,	-1.09717E+03,	0.00000E+00,	0,	0
  8.15217E-01,	1.00000E+01,	-1.63273E-03,	1.51903E+02,	4.05930E+02,	-1.33303E+03,	0.00000E+00,	0,	0
  6.46552E-01,	1.00000E+01,	-1.63273E-03,	1.60987E+02,	4.64756E+02,	-1.62159E+03,	0.00000E+00,	0,	0
  5.11364E-01,	1.00000E+01,	-1.63273E-03,	1.65985E+02,	5.25724E+02,	-1.98951E+03,	0.00000E+00,	0,	0
  4.07609E-01,	1.00000E+01,	-1.63273E-03,	1.72073E+02,	6.12484E+02,	-2.42879E+03,	0.00000E+00,	0,	0
  3.21429E-01,	1.00000E+01,	-1.63273E-03,	1.79286E+02,	7.29876E+02,	-3.02939E+03,	0.00000E+00,	0,	0
  2.54525E-01,	1.00000E+01,	-1.63273E-03,	1.88048E+02,	8.87271E+02,	-3.72943E+03,	0.00000E+00,	0,	0
  2.01613E-01,	1.00000E+01,	-1.63273E-03,	1.98882E+02,	1.10018E+03,	-4.59292E+03,	0.00000E+00,	0,	0
  1.59574E-01,	1.00000E+01,	-1.63273E-03,	2.12339E+02,	1.39391E+03,	-5.65879E+03,	0.00000E+00,	0,	0
  1.26689E-01,	1.00000E+01,	-1.63273E-03,	2.29240E+02,	1.79770E+03,	-6.93834E+03,	0.00000E+00,	0,	0
  1.00446E-01,	1.00000E+01,	-1.63273E-03,	2.50091E+02,	2.35104E+03,	-8.50524E+03,	0.00000E+00,	0,	0