Z60W Data File: Version 1.1
CorrTest for Windows: SN CS310H1805157  V5.2.1111.9  2.5H6.220118
Sweep Frequency: Control Voltage
  Date:4-28-2026   Time:16:41:56
  Begin Information:            Cell Information
      Surface Area:           1
      Density:                7.8
      Weight:                 28
  End Information:              Cell Information
  Freq (Hz)     Ampl(mV)       Bias(V)      Time(Sec)       Z'(Ohm.cm^2)    Z''(Ohm.cm^2)        GD       Err      Range
End Comments
  3.07200E+05,	1.00000E+01,	-7.75621E-03,	2.80034E-02,	7.61225E+01,	3.48805E+01,	0.00000E+00,	0,	0
  2.76480E+05,	1.00000E+01,	-7.75621E-03,	1.63925E+00,	7.46807E+01,	3.11111E+01,	0.00000E+00,	0,	0
  1.97486E+05,	1.00000E+01,	-7.75621E-03,	2.56975E+00,	7.23561E+01,	2.25087E+01,	0.00000E+00,	0,	0
  1.53600E+05,	1.00000E+01,	-7.75621E-03,	3.49109E+00,	7.14108E+01,	1.73462E+01,	0.00000E+00,	0,	0
  1.25673E+05,	1.00000E+01,	-7.75621E-03,	4.37880E+00,	7.09422E+01,	1.41459E+01,	0.00000E+00,	0,	0
  9.87429E+04,	1.00000E+01,	-7.75621E-03,	5.27204E+00,	7.05855E+01,	1.08181E+01,	0.00000E+00,	0,	0
  7.68000E+04,	1.00000E+01,	-7.75621E-03,	6.18288E+00,	7.04690E+01,	8.12231E+00,	0.00000E+00,	0,	0
  6.01043E+04,	1.00000E+01,	-7.75621E-03,	7.17358E+00,	7.05017E+01,	6.26115E+00,	0.00000E+00,	0,	0
  4.93714E+04,	1.00000E+01,	-7.75621E-03,	8.75561E+00,	7.04023E+01,	4.70309E+00,	0.00000E+00,	0,	0
  3.84000E+04,	1.00000E+01,	-7.75621E-03,	9.65777E+00,	7.00525E+01,	3.61351E+00,	0.00000E+00,	0,	0
  3.00522E+04,	1.00000E+01,	-7.75621E-03,	1.05057E+01,	7.04764E+01,	2.70703E+00,	0.00000E+00,	0,	0
  2.38345E+04,	1.00000E+01,	-7.75621E-03,	1.13569E+01,	7.07269E+01,	1.59516E+00,	0.00000E+00,	0,	0
  1.86811E+04,	1.00000E+01,	-7.75621E-03,	1.21924E+01,	7.08062E+01,	9.04667E-01,	0.00000E+00,	0,	0
  1.47064E+04,	1.00000E+01,	-7.75621E-03,	1.31530E+01,	7.07773E+01,	1.39901E-01,	0.00000E+00,	0,	0
  1.15200E+04,	1.00000E+01,	-7.75621E-03,	1.41233E+01,	7.10823E+01,	-6.05860E-01,	0.00000E+00,	0,	0
  9.60000E+03,	1.00000E+01,	-7.75621E-03,	1.56916E+01,	7.12069E+01,	-1.03055E+00,	0.00000E+00,	0,	0
  7.51304E+03,	1.00000E+01,	-7.75621E-03,	1.65843E+01,	7.13922E+01,	-1.80692E+00,	0.00000E+00,	0,	0
  5.76000E+03,	1.00000E+01,	-7.75621E-03,	1.74888E+01,	7.14398E+01,	-2.62105E+00,	0.00000E+00,	0,	0
  4.54737E+03,	1.00000E+01,	-7.75621E-03,	1.83593E+01,	7.18386E+01,	-3.52806E+00,	0.00000E+00,	0,	0
  3.60000E+03,	1.00000E+01,	-7.75621E-03,	1.93426E+01,	7.21095E+01,	-4.42662E+00,	0.00000E+00,	0,	0
  2.88000E+03,	1.00000E+01,	-7.75621E-03,	2.02268E+01,	7.25079E+01,	-5.82849E+00,	0.00000E+00,	0,	0
  2.27368E+03,	1.00000E+01,	-7.75621E-03,	2.13564E+01,	7.27764E+01,	-7.07932E+00,	0.00000E+00,	0,	0
  1.78144E+03,	1.00000E+01,	-7.75621E-03,	2.21807E+01,	7.33714E+01,	-8.83073E+00,	0.00000E+00,	0,	0
  1.41639E+03,	1.00000E+01,	-7.75621E-03,	2.30778E+01,	7.38991E+01,	-1.06413E+01,	0.00000E+00,	0,	0
  1.12208E+03,	1.00000E+01,	-7.75621E-03,	2.41403E+01,	7.48075E+01,	-1.29073E+01,	0.00000E+00,	0,	0
  9.00000E+02,	1.00000E+01,	-7.75621E-03,	2.91371E+01,	7.59377E+01,	-1.55870E+01,	0.00000E+00,	0,	0
  7.20000E+02,	1.00000E+01,	-7.75621E-03,	3.05367E+01,	7.70949E+01,	-1.86978E+01,	0.00000E+00,	0,	0
  5.68421E+02,	1.00000E+01,	-7.75621E-03,	3.18797E+01,	7.85200E+01,	-2.26445E+01,	0.00000E+00,	0,	0
  4.40816E+02,	1.00000E+01,	-7.75621E-03,	3.33247E+01,	8.04149E+01,	-2.77261E+01,	0.00000E+00,	0,	0
  3.54098E+02,	1.00000E+01,	-7.75621E-03,	3.57166E+01,	8.24835E+01,	-3.29960E+01,	0.00000E+00,	0,	0
  2.76923E+02,	1.00000E+01,	-7.75621E-03,	3.83681E+01,	8.51350E+01,	-3.99243E+01,	0.00000E+00,	0,	0
  2.20408E+02,	1.00000E+01,	-7.75621E-03,	4.12760E+01,	8.81219E+01,	-4.76597E+01,	0.00000E+00,	0,	0
  1.74194E+02,	1.00000E+01,	-7.75621E-03,	4.45631E+01,	9.16536E+01,	-5.71583E+01,	0.00000E+00,	0,	0
  1.37580E+02,	1.00000E+01,	-7.75621E-03,	4.82260E+01,	9.57730E+01,	-6.85763E+01,	0.00000E+00,	0,	0
  1.09091E+02,	1.00000E+01,	-7.75621E-03,	5.23346E+01,	1.00431E+02,	-8.22008E+01,	0.00000E+00,	0,	0
  8.70968E+01,	1.00000E+01,	-7.75621E-03,	6.04770E+01,	1.06097E+02,	-9.84957E+01,	0.00000E+00,	0,	0
  6.83544E+01,	1.00000E+01,	-7.75621E-03,	6.54871E+01,	1.12898E+02,	-1.20189E+02,	0.00000E+00,	0,	0
  5.45455E+01,	1.00000E+01,	-7.75621E-03,	7.09193E+01,	1.19224E+02,	-1.41291E+02,	0.00000E+00,	0,	0
  4.28571E+01,	1.00000E+01,	-7.75621E-03,	7.44771E+01,	1.27564E+02,	-1.71724E+02,	0.00000E+00,	0,	0
  3.39623E+01,	1.00000E+01,	-7.75621E-03,	7.82257E+01,	1.35500E+02,	-2.07846E+02,	0.00000E+00,	0,	0
  2.68657E+01,	1.00000E+01,	-7.75621E-03,	8.21088E+01,	1.47540E+02,	-2.53261E+02,	0.00000E+00,	0,	0
  2.13439E+01,	1.00000E+01,	-7.75621E-03,	8.59153E+01,	1.61388E+02,	-3.07504E+02,	0.00000E+00,	0,	0
  1.73077E+01,	1.00000E+01,	-7.75621E-03,	8.95843E+01,	1.76334E+02,	-3.67369E+02,	0.00000E+00,	0,	0
  1.36364E+01,	1.00000E+01,	-7.75621E-03,	9.46116E+01,	1.97318E+02,	-4.50081E+02,	0.00000E+00,	0,	0
  1.07143E+01,	1.00000E+01,	-7.75621E-03,	9.75533E+01,	2.23824E+02,	-5.53024E+02,	0.00000E+00,	0,	0
  8.49057E+00,	1.00000E+01,	-7.75621E-03,	1.01753E+02,	2.56378E+02,	-6.75044E+02,	0.00000E+00,	0,	0
  6.71642E+00,	1.00000E+01,	-7.75621E-03,	1.04322E+02,	2.97955E+02,	-8.24088E+02,	0.00000E+00,	0,	0
  5.29412E+00,	1.00000E+01,	-7.75621E-03,	1.07257E+02,	3.52473E+02,	-1.00825E+03,	0.00000E+00,	0,	0
  4.16667E+00,	1.00000E+01,	-7.75621E-03,	1.10774E+02,	4.23030E+02,	-1.23404E+03,	0.00000E+00,	0,	0
  3.30882E+00,	1.00000E+01,	-7.75621E-03,	1.17296E+02,	5.10451E+02,	-1.49423E+03,	0.00000E+00,	0,	0
  2.61628E+00,	1.00000E+01,	-7.75621E-03,	1.21302E+02,	6.25190E+02,	-1.81217E+03,	0.00000E+00,	0,	0
  2.07373E+00,	1.00000E+01,	-7.75621E-03,	1.26073E+02,	7.69919E+02,	-2.18731E+03,	0.00000E+00,	0,	0
  1.64234E+00,	1.00000E+01,	-7.75621E-03,	1.31870E+02,	9.53348E+02,	-2.63168E+03,	0.00000E+00,	0,	0
  1.30058E+00,	1.00000E+01,	-7.75621E-03,	1.36036E+02,	1.18381E+03,	-3.15111E+03,	0.00000E+00,	0,	0
  1.03211E+00,	1.00000E+01,	-7.75621E-03,	1.40434E+02,	1.46859E+03,	-3.75829E+03,	0.00000E+00,	0,	0
  8.15217E-01,	1.00000E+01,	-7.75621E-03,	1.47377E+02,	1.80801E+03,	-4.46231E+03,	0.00000E+00,	0,	0
  6.46552E-01,	1.00000E+01,	-7.75621E-03,	1.52199E+02,	2.21407E+03,	-5.27414E+03,	0.00000E+00,	0,	0
  5.11364E-01,	1.00000E+01,	-7.75621E-03,	1.57203E+02,	2.60474E+03,	-6.27526E+03,	0.00000E+00,	0,	0
  4.07609E-01,	1.00000E+01,	-7.75621E-03,	1.63265E+02,	3.12827E+03,	-7.37796E+03,	0.00000E+00,	0,	0
  3.21429E-01,	1.00000E+01,	-7.75621E-03,	1.70429E+02,	3.78471E+03,	-8.87650E+03,	0.00000E+00,	0,	0
  2.54525E-01,	1.00000E+01,	-7.75621E-03,	1.79209E+02,	4.50615E+03,	-1.04579E+04,	0.00000E+00,	0,	0
  2.01613E-01,	1.00000E+01,	-7.75621E-03,	1.90057E+02,	5.31482E+03,	-1.23806E+04,	0.00000E+00,	0,	0
  1.59574E-01,	1.00000E+01,	-7.75621E-03,	2.03532E+02,	6.24459E+03,	-1.47011E+04,	0.00000E+00,	0,	0
  1.26689E-01,	1.00000E+01,	-7.75621E-03,	2.37436E+02,	7.30144E+03,	-1.71663E+04,	0.00000E+00,	0,	0
  1.00446E-01,	1.00000E+01,	-7.75621E-03,	2.58341E+02,	8.52942E+03,	-2.12376E+04,	0.00000E+00,	0,	0