Z60W Data File: Version 1.1
CorrTest for Windows: SN CS310H1805157  V5.2.1111.9  2.5H6.220118
Sweep Frequency: Control Voltage
  Date:4-28-2026   Time:17:42:44
  Begin Information:            Cell Information
      Surface Area:           1
      Density:                7.8
      Weight:                 28
  End Information:              Cell Information
  Freq (Hz)     Ampl(mV)       Bias(V)      Time(Sec)       Z'(Ohm.cm^2)    Z''(Ohm.cm^2)        GD       Err      Range
End Comments
  3.07200E+05,	1.00000E+01,	-1.39823E-02,	2.86503E-02,	5.60983E+02,	-2.28855E+02,	0.00000E+00,	0,	0
  2.76480E+05,	1.00000E+01,	-1.39823E-02,	1.62550E+00,	5.82249E+02,	-2.34627E+02,	0.00000E+00,	0,	0
  1.97486E+05,	1.00000E+01,	-1.39823E-02,	2.52652E+00,	6.33461E+02,	-2.33793E+02,	0.00000E+00,	0,	0
  1.53600E+05,	1.00000E+01,	-1.39823E-02,	3.43146E+00,	6.79982E+02,	-2.53249E+02,	0.00000E+00,	0,	0
  1.25673E+05,	1.00000E+01,	-1.39823E-02,	4.36352E+00,	7.10756E+02,	-2.09927E+02,	0.00000E+00,	0,	0
  9.87429E+04,	1.00000E+01,	-1.39823E-02,	5.27471E+00,	7.51453E+02,	-1.88959E+02,	0.00000E+00,	0,	0
  7.68000E+04,	1.00000E+01,	-1.39823E-02,	6.20875E+00,	7.98117E+02,	-1.70681E+02,	0.00000E+00,	0,	0
  6.01043E+04,	1.00000E+01,	-1.39823E-02,	7.21714E+00,	8.09669E+02,	-1.49655E+02,	0.00000E+00,	0,	0
  4.93714E+04,	1.00000E+01,	-1.39823E-02,	8.79231E+00,	8.21609E+02,	-1.30041E+02,	0.00000E+00,	0,	0
  3.84000E+04,	1.00000E+01,	-1.39823E-02,	9.69184E+00,	8.43684E+02,	-1.11270E+02,	0.00000E+00,	0,	0
  3.00522E+04,	1.00000E+01,	-1.39823E-02,	1.05656E+01,	8.23926E+02,	-1.13774E+02,	0.00000E+00,	0,	0
  2.38345E+04,	1.00000E+01,	-1.39823E-02,	1.14278E+01,	8.53865E+02,	-7.81823E+01,	0.00000E+00,	0,	0
  1.86811E+04,	1.00000E+01,	-1.39823E-02,	1.23024E+01,	8.66176E+02,	-8.61873E+01,	0.00000E+00,	0,	0
  1.47064E+04,	1.00000E+01,	-1.39823E-02,	1.32654E+01,	8.68001E+02,	-5.47475E+01,	0.00000E+00,	0,	0
  1.15200E+04,	1.00000E+01,	-1.39823E-02,	1.42605E+01,	8.68813E+02,	-4.20941E+01,	0.00000E+00,	0,	0
  9.60000E+03,	1.00000E+01,	-1.39823E-02,	1.58278E+01,	8.82531E+02,	-3.75438E+01,	0.00000E+00,	0,	0
  7.51304E+03,	1.00000E+01,	-1.39823E-02,	1.67088E+01,	8.78375E+02,	-3.34551E+01,	0.00000E+00,	0,	0
  5.76000E+03,	1.00000E+01,	-1.39823E-02,	1.75982E+01,	8.79625E+02,	-2.19951E+01,	0.00000E+00,	0,	0
  4.54737E+03,	1.00000E+01,	-1.39823E-02,	1.84636E+01,	8.84836E+02,	-2.90753E+01,	0.00000E+00,	0,	0
  3.60000E+03,	1.00000E+01,	-1.39823E-02,	1.94586E+01,	8.78625E+02,	-2.49263E+01,	0.00000E+00,	0,	0
  2.88000E+03,	1.00000E+01,	-1.39823E-02,	2.03712E+01,	8.83667E+02,	-2.57062E+01,	0.00000E+00,	0,	0
  2.27368E+03,	1.00000E+01,	-1.39823E-02,	2.15034E+01,	8.98831E+02,	-2.22958E+01,	0.00000E+00,	0,	0
  1.78144E+03,	1.00000E+01,	-1.39823E-02,	2.23027E+01,	8.96681E+02,	-2.61375E+01,	0.00000E+00,	0,	0
  1.41639E+03,	1.00000E+01,	-1.39823E-02,	2.32059E+01,	9.03493E+02,	-5.41753E+01,	0.00000E+00,	0,	0
  1.12208E+03,	1.00000E+01,	-1.39823E-02,	2.42956E+01,	8.90543E+02,	-2.98740E+01,	0.00000E+00,	0,	0
  9.00000E+02,	1.00000E+01,	-1.39823E-02,	2.92670E+01,	9.02950E+02,	-2.91724E+01,	0.00000E+00,	0,	0
  7.20000E+02,	1.00000E+01,	-1.39823E-02,	3.06210E+01,	9.04086E+02,	-3.55450E+01,	0.00000E+00,	0,	0
  5.68421E+02,	1.00000E+01,	-1.39823E-02,	3.19849E+01,	9.06369E+02,	-4.16926E+01,	0.00000E+00,	0,	0
  4.40816E+02,	1.00000E+01,	-1.39823E-02,	3.50575E+01,	9.12234E+02,	-5.20772E+01,	0.00000E+00,	0,	0
  3.54098E+02,	1.00000E+01,	-1.39823E-02,	3.74076E+01,	9.17743E+02,	-6.15847E+01,	0.00000E+00,	0,	0
  2.76923E+02,	1.00000E+01,	-1.39823E-02,	4.00593E+01,	9.23957E+02,	-7.55545E+01,	0.00000E+00,	0,	0
  2.20408E+02,	1.00000E+01,	-1.39823E-02,	4.29701E+01,	9.30861E+02,	-9.14724E+01,	0.00000E+00,	0,	0
  1.74194E+02,	1.00000E+01,	-1.39823E-02,	4.62431E+01,	9.38957E+02,	-1.10831E+02,	0.00000E+00,	0,	0
  1.37580E+02,	1.00000E+01,	-1.39823E-02,	4.99056E+01,	9.49813E+02,	-1.34654E+02,	0.00000E+00,	0,	0
  1.09091E+02,	1.00000E+01,	-1.39823E-02,	5.39969E+01,	9.62984E+02,	-1.63942E+02,	0.00000E+00,	0,	0
  8.70968E+01,	1.00000E+01,	-1.39823E-02,	6.21674E+01,	9.81102E+02,	-1.97508E+02,	0.00000E+00,	0,	0
  6.83544E+01,	1.00000E+01,	-1.39823E-02,	6.71919E+01,	1.00562E+03,	-2.42750E+02,	0.00000E+00,	0,	0
  5.45455E+01,	1.00000E+01,	-1.39823E-02,	7.26238E+01,	1.01682E+03,	-2.79795E+02,	0.00000E+00,	0,	0
  4.28571E+01,	1.00000E+01,	-1.39823E-02,	7.61487E+01,	1.04214E+03,	-3.38503E+02,	0.00000E+00,	0,	0
  3.39623E+01,	1.00000E+01,	-1.39823E-02,	7.98692E+01,	1.06570E+03,	-4.09840E+02,	0.00000E+00,	0,	0
  2.68657E+01,	1.00000E+01,	-1.39823E-02,	8.37225E+01,	1.10594E+03,	-4.89735E+02,	0.00000E+00,	0,	0
  2.13439E+01,	1.00000E+01,	-1.39823E-02,	8.75263E+01,	1.14864E+03,	-5.82481E+02,	0.00000E+00,	0,	0
  1.73077E+01,	1.00000E+01,	-1.39823E-02,	9.12196E+01,	1.19292E+03,	-6.81904E+02,	0.00000E+00,	0,	0
  1.36364E+01,	1.00000E+01,	-1.39823E-02,	9.62373E+01,	1.25122E+03,	-8.16048E+02,	0.00000E+00,	0,	0
  1.07143E+01,	1.00000E+01,	-1.39823E-02,	9.91605E+01,	1.31635E+03,	-9.78065E+02,	0.00000E+00,	0,	0
  8.49057E+00,	1.00000E+01,	-1.39823E-02,	1.03364E+02,	1.39283E+03,	-1.16618E+03,	0.00000E+00,	0,	0
  6.71642E+00,	1.00000E+01,	-1.39823E-02,	1.05876E+02,	1.47280E+03,	-1.39337E+03,	0.00000E+00,	0,	0
  5.29412E+00,	1.00000E+01,	-1.39823E-02,	1.08824E+02,	1.56866E+03,	-1.67397E+03,	0.00000E+00,	0,	0
  4.16667E+00,	1.00000E+01,	-1.39823E-02,	1.12294E+02,	1.67906E+03,	-2.01714E+03,	0.00000E+00,	0,	0
  3.30882E+00,	1.00000E+01,	-1.39823E-02,	1.16595E+02,	1.80366E+03,	-2.42199E+03,	0.00000E+00,	0,	0
  2.61628E+00,	1.00000E+01,	-1.39823E-02,	1.20551E+02,	1.94780E+03,	-2.92442E+03,	0.00000E+00,	0,	0
  2.07373E+00,	1.00000E+01,	-1.39823E-02,	1.25328E+02,	2.11721E+03,	-3.53581E+03,	0.00000E+00,	0,	0
  1.64234E+00,	1.00000E+01,	-1.39823E-02,	1.31115E+02,	2.31756E+03,	-4.29023E+03,	0.00000E+00,	0,	0
  1.30058E+00,	1.00000E+01,	-1.39823E-02,	1.35334E+02,	2.56061E+03,	-5.21215E+03,	0.00000E+00,	0,	0
  1.03211E+00,	1.00000E+01,	-1.39823E-02,	1.39791E+02,	2.85832E+03,	-6.33844E+03,	0.00000E+00,	0,	0
  8.15217E-01,	1.00000E+01,	-1.39823E-02,	1.46759E+02,	3.22922E+03,	-7.73384E+03,	0.00000E+00,	0,	0
  6.46552E-01,	1.00000E+01,	-1.39823E-02,	1.51557E+02,	3.68961E+03,	-9.41819E+03,	0.00000E+00,	0,	0
  5.11364E-01,	1.00000E+01,	-1.39823E-02,	1.56569E+02,	4.18561E+03,	-1.15376E+04,	0.00000E+00,	0,	0
  4.07609E-01,	1.00000E+01,	-1.39823E-02,	1.62613E+02,	4.89743E+03,	-1.39885E+04,	0.00000E+00,	0,	0
  3.21429E-01,	1.00000E+01,	-1.39823E-02,	1.69761E+02,	5.88441E+03,	-1.72941E+04,	0.00000E+00,	0,	0
  2.54525E-01,	1.00000E+01,	-1.39823E-02,	1.78569E+02,	7.11437E+03,	-2.09864E+04,	0.00000E+00,	0,	0
  2.01613E-01,	1.00000E+01,	-1.39823E-02,	1.89432E+02,	8.67435E+03,	-2.54558E+04,	0.00000E+00,	0,	0
  1.59574E-01,	1.00000E+01,	-1.39823E-02,	2.02890E+02,	1.06597E+04,	-3.08285E+04,	0.00000E+00,	0,	0
  1.26689E-01,	1.00000E+01,	-1.39823E-02,	2.36769E+02,	1.31723E+04,	-3.68009E+04,	0.00000E+00,	0,	0
  1.00446E-01,	1.00000E+01,	-1.39823E-02,	2.57626E+02,	1.61751E+04,	-4.53265E+04,	0.00000E+00,	0,	0