Z60W Data File: Version 1.1
CorrTest for Windows: SN CS310H1805157  V5.2.1111.9  2.5H6.220118
Sweep Frequency: Control Voltage
  Date:4-28-2026   Time:10:41:41
  Begin Information:            Cell Information
      Surface Area:           1
      Density:                7.8
      Weight:                 28
  End Information:              Cell Information
  Freq (Hz)     Ampl(mV)       Bias(V)      Time(Sec)       Z'(Ohm.cm^2)    Z''(Ohm.cm^2)        GD       Err      Range
End Comments
  3.07200E+05,	1.00000E+01,	-5.21162E-03,	5.58321E-02,	5.80017E-01,	3.95777E+00,	0.00000E+00,	0,	0
  2.76480E+05,	1.00000E+01,	-5.21162E-03,	1.65791E+00,	1.12486E+00,	3.21026E+00,	0.00000E+00,	0,	0
  1.97486E+05,	1.00000E+01,	-5.21162E-03,	2.56814E+00,	1.82271E+00,	2.29314E+00,	0.00000E+00,	0,	0
  1.53600E+05,	1.00000E+01,	-5.21162E-03,	3.46677E+00,	2.06949E+00,	1.74525E+00,	0.00000E+00,	0,	0
  1.25673E+05,	1.00000E+01,	-5.21162E-03,	4.38196E+00,	2.22262E+00,	1.37387E+00,	0.00000E+00,	0,	0
  9.87429E+04,	1.00000E+01,	-5.21162E-03,	5.27431E+00,	2.34732E+00,	1.03918E+00,	0.00000E+00,	0,	0
  7.68000E+04,	1.00000E+01,	-5.21162E-03,	6.20113E+00,	2.42369E+00,	7.55310E-01,	0.00000E+00,	0,	0
  6.01043E+04,	1.00000E+01,	-5.21162E-03,	9.41603E+00,	2.49642E+00,	4.68587E-01,	0.00000E+00,	0,	0
  4.93714E+04,	1.00000E+01,	-5.21162E-03,	1.09752E+01,	2.51643E+00,	3.15273E-01,	0.00000E+00,	0,	0
  3.84000E+04,	1.00000E+01,	-5.21162E-03,	1.19115E+01,	2.54301E+00,	1.42732E-01,	0.00000E+00,	0,	0
  3.00522E+04,	1.00000E+01,	-5.21162E-03,	1.27717E+01,	2.57320E+00,	-1.77110E-02,	0.00000E+00,	0,	0
  2.38345E+04,	1.00000E+01,	-5.21162E-03,	1.36445E+01,	2.59861E+00,	-1.59866E-01,	0.00000E+00,	0,	0
  1.86811E+04,	1.00000E+01,	-5.21162E-03,	1.44857E+01,	2.63369E+00,	-3.12135E-01,	0.00000E+00,	0,	0
  1.47064E+04,	1.00000E+01,	-5.21162E-03,	1.54540E+01,	2.67087E+00,	-4.61494E-01,	0.00000E+00,	0,	0
  1.15200E+04,	1.00000E+01,	-5.21162E-03,	1.64358E+01,	2.71896E+00,	-6.31713E-01,	0.00000E+00,	0,	0
  9.60000E+03,	1.00000E+01,	-5.21162E-03,	1.79989E+01,	2.76018E+00,	-7.66991E-01,	0.00000E+00,	0,	0
  7.51304E+03,	1.00000E+01,	-5.21162E-03,	1.88931E+01,	2.82771E+00,	-9.75976E-01,	0.00000E+00,	0,	0
  5.76000E+03,	1.00000E+01,	-5.21162E-03,	1.98396E+01,	2.90732E+00,	-1.23540E+00,	0.00000E+00,	0,	0
  4.54737E+03,	1.00000E+01,	-5.21162E-03,	2.07348E+01,	2.98935E+00,	-1.51660E+00,	0.00000E+00,	0,	0
  3.60000E+03,	1.00000E+01,	-5.21162E-03,	2.17516E+01,	3.08699E+00,	-1.84100E+00,	0.00000E+00,	0,	0
  2.88000E+03,	1.00000E+01,	-5.21162E-03,	2.26695E+01,	3.19645E+00,	-2.21447E+00,	0.00000E+00,	0,	0
  2.27368E+03,	1.00000E+01,	-5.21162E-03,	2.49609E+01,	3.29438E+00,	-2.66887E+00,	0.00000E+00,	0,	0
  1.78144E+03,	1.00000E+01,	-5.21162E-03,	2.57251E+01,	3.44983E+00,	-3.27440E+00,	0.00000E+00,	0,	0
  1.41639E+03,	1.00000E+01,	-5.21162E-03,	2.66448E+01,	3.62332E+00,	-3.96733E+00,	0.00000E+00,	0,	0
  1.12208E+03,	1.00000E+01,	-5.21162E-03,	2.76692E+01,	3.82011E+00,	-4.83188E+00,	0.00000E+00,	0,	0
  9.00000E+02,	1.00000E+01,	-5.21162E-03,	3.26689E+01,	4.06752E+00,	-5.84271E+00,	0.00000E+00,	0,	0
  7.20000E+02,	1.00000E+01,	-5.21162E-03,	3.40425E+01,	4.35190E+00,	-7.07271E+00,	0.00000E+00,	0,	0
  5.68421E+02,	1.00000E+01,	-5.21162E-03,	3.54231E+01,	4.72950E+00,	-8.66668E+00,	0.00000E+00,	0,	0
  4.40816E+02,	1.00000E+01,	-5.21162E-03,	3.84534E+01,	5.25863E+00,	-1.08137E+01,	0.00000E+00,	0,	0
  3.54098E+02,	1.00000E+01,	-5.21162E-03,	4.08047E+01,	5.82131E+00,	-1.30572E+01,	0.00000E+00,	0,	0
  2.76923E+02,	1.00000E+01,	-5.21162E-03,	4.34475E+01,	6.63890E+00,	-1.61321E+01,	0.00000E+00,	0,	0
  2.20408E+02,	1.00000E+01,	-5.21162E-03,	4.63633E+01,	7.61236E+00,	-1.96128E+01,	0.00000E+00,	0,	0
  1.74194E+02,	1.00000E+01,	-5.21162E-03,	4.96451E+01,	8.90161E+00,	-2.39476E+01,	0.00000E+00,	0,	0
  1.37580E+02,	1.00000E+01,	-5.21162E-03,	5.33302E+01,	1.05763E+01,	-2.92031E+01,	0.00000E+00,	0,	0
  1.09091E+02,	1.00000E+01,	-5.21162E-03,	5.73953E+01,	1.26957E+01,	-3.54270E+01,	0.00000E+00,	0,	0
  8.70968E+01,	1.00000E+01,	-5.21162E-03,	6.31064E+01,	1.52983E+01,	-4.26655E+01,	0.00000E+00,	0,	0
  6.83544E+01,	1.00000E+01,	-5.21162E-03,	6.81735E+01,	1.89120E+01,	-5.21453E+01,	0.00000E+00,	0,	0
  5.45455E+01,	1.00000E+01,	-5.21162E-03,	7.36133E+01,	2.32915E+01,	-6.12916E+01,	0.00000E+00,	0,	0
  4.28571E+01,	1.00000E+01,	-5.21162E-03,	7.71351E+01,	2.89169E+01,	-7.36073E+01,	0.00000E+00,	0,	0
  3.39623E+01,	1.00000E+01,	-5.21162E-03,	8.08595E+01,	3.49427E+01,	-8.73690E+01,	0.00000E+00,	0,	0
  2.68657E+01,	1.00000E+01,	-5.21162E-03,	8.47319E+01,	4.30729E+01,	-1.03861E+02,	0.00000E+00,	0,	0
  2.13439E+01,	1.00000E+01,	-5.21162E-03,	8.85687E+01,	5.22900E+01,	-1.22454E+02,	0.00000E+00,	0,	0
  1.73077E+01,	1.00000E+01,	-5.21162E-03,	9.52315E+01,	6.19298E+01,	-1.42258E+02,	0.00000E+00,	0,	0
  1.36364E+01,	1.00000E+01,	-5.21162E-03,	1.00303E+02,	7.40314E+01,	-1.68246E+02,	0.00000E+00,	0,	0
  1.07143E+01,	1.00000E+01,	-5.21162E-03,	1.03222E+02,	8.78195E+01,	-1.99582E+02,	0.00000E+00,	0,	0
  8.49057E+00,	1.00000E+01,	-5.21162E-03,	1.07417E+02,	1.02868E+02,	-2.35966E+02,	0.00000E+00,	0,	0
  6.71642E+00,	1.00000E+01,	-5.21162E-03,	1.09940E+02,	1.20115E+02,	-2.80382E+02,	0.00000E+00,	0,	0
  5.29412E+00,	1.00000E+01,	-5.21162E-03,	1.12912E+02,	1.40193E+02,	-3.34505E+02,	0.00000E+00,	0,	0
  4.16667E+00,	1.00000E+01,	-5.21162E-03,	1.16392E+02,	1.63668E+02,	-4.01156E+02,	0.00000E+00,	0,	0
  3.30882E+00,	1.00000E+01,	-5.21162E-03,	1.20618E+02,	1.90155E+02,	-4.78792E+02,	0.00000E+00,	0,	0
  2.61628E+00,	1.00000E+01,	-5.21162E-03,	1.24607E+02,	2.21922E+02,	-5.73968E+02,	0.00000E+00,	0,	0
  2.07373E+00,	1.00000E+01,	-5.21162E-03,	1.29379E+02,	2.58607E+02,	-6.87712E+02,	0.00000E+00,	0,	0
  1.64234E+00,	1.00000E+01,	-5.21162E-03,	1.35162E+02,	3.00844E+02,	-8.25166E+02,	0.00000E+00,	0,	0
  1.30058E+00,	1.00000E+01,	-5.21162E-03,	1.39330E+02,	3.49265E+02,	-9.91060E+02,	0.00000E+00,	0,	0
  1.03211E+00,	1.00000E+01,	-5.21162E-03,	1.43732E+02,	4.02662E+02,	-1.19161E+03,	0.00000E+00,	0,	0
  8.15217E-01,	1.00000E+01,	-5.21162E-03,	1.50674E+02,	4.61210E+02,	-1.44058E+03,	0.00000E+00,	0,	0
  6.46552E-01,	1.00000E+01,	-5.21162E-03,	1.59763E+02,	5.25046E+02,	-1.74387E+03,	0.00000E+00,	0,	0
  5.11364E-01,	1.00000E+01,	-5.21162E-03,	1.64769E+02,	5.84397E+02,	-2.13228E+03,	0.00000E+00,	0,	0
  4.07609E-01,	1.00000E+01,	-5.21162E-03,	1.70832E+02,	6.69200E+02,	-2.59447E+03,	0.00000E+00,	0,	0
  3.21429E-01,	1.00000E+01,	-5.21162E-03,	1.77984E+02,	7.76908E+02,	-3.23294E+03,	0.00000E+00,	0,	0
  2.54525E-01,	1.00000E+01,	-5.21162E-03,	1.86778E+02,	9.16100E+02,	-3.97294E+03,	0.00000E+00,	0,	0
  2.01613E-01,	1.00000E+01,	-5.21162E-03,	1.97654E+02,	1.09765E+03,	-4.89233E+03,	0.00000E+00,	0,	0
  1.59574E-01,	1.00000E+01,	-5.21162E-03,	2.11130E+02,	1.33758E+03,	-6.03944E+03,	0.00000E+00,	0,	0
  1.26689E-01,	1.00000E+01,	-5.21162E-03,	2.28037E+02,	1.66598E+03,	-7.42915E+03,	0.00000E+00,	0,	0
  1.00446E-01,	1.00000E+01,	-5.21162E-03,	2.48893E+02,	2.11221E+03,	-9.14748E+03,	0.00000E+00,	0,	0