Z60W Data File: Version 1.1
CorrTest for Windows: SN CS310H1805157  V5.2.1111.9  2.5H6.220118
Sweep Frequency: Control Voltage
  Date:4-28-2026   Time:14:21:40
  Begin Information:            Cell Information
      Surface Area:           1
      Density:                7.8
      Weight:                 28
  End Information:              Cell Information
  Freq (Hz)     Ampl(mV)       Bias(V)      Time(Sec)       Z'(Ohm.cm^2)    Z''(Ohm.cm^2)        GD       Err      Range
End Comments
  3.07200E+05,	1.00000E+01,	-3.89101E-03,	8.90031E-02,	4.34151E+00,	5.93396E+00,	0.00000E+00,	0,	0
  2.76480E+05,	1.00000E+01,	-3.89101E-03,	1.69378E+00,	4.79338E+00,	5.03899E+00,	0.00000E+00,	0,	0
  1.97486E+05,	1.00000E+01,	-3.89101E-03,	2.59769E+00,	5.36554E+00,	3.59611E+00,	0.00000E+00,	0,	0
  1.53600E+05,	1.00000E+01,	-3.89101E-03,	3.50136E+00,	5.57568E+00,	2.74870E+00,	0.00000E+00,	0,	0
  1.25673E+05,	1.00000E+01,	-3.89101E-03,	4.39130E+00,	5.69554E+00,	2.19869E+00,	0.00000E+00,	0,	0
  9.87429E+04,	1.00000E+01,	-3.89101E-03,	5.28410E+00,	5.81932E+00,	1.65999E+00,	0.00000E+00,	0,	0
  7.68000E+04,	1.00000E+01,	-3.89101E-03,	6.18115E+00,	5.87840E+00,	1.21639E+00,	0.00000E+00,	0,	0
  6.01043E+04,	1.00000E+01,	-3.89101E-03,	8.27511E+00,	5.92415E+00,	8.33494E-01,	0.00000E+00,	0,	0
  4.93714E+04,	1.00000E+01,	-3.89101E-03,	9.85681E+00,	5.95254E+00,	5.88682E-01,	0.00000E+00,	0,	0
  3.84000E+04,	1.00000E+01,	-3.89101E-03,	1.07725E+01,	5.97253E+00,	3.18707E-01,	0.00000E+00,	0,	0
  3.00522E+04,	1.00000E+01,	-3.89101E-03,	1.16374E+01,	6.00619E+00,	8.17673E-02,	0.00000E+00,	0,	0
  2.38345E+04,	1.00000E+01,	-3.89101E-03,	1.24945E+01,	6.03301E+00,	-1.22120E-01,	0.00000E+00,	0,	0
  1.86811E+04,	1.00000E+01,	-3.89101E-03,	1.33349E+01,	6.06588E+00,	-3.48477E-01,	0.00000E+00,	0,	0
  1.47064E+04,	1.00000E+01,	-3.89101E-03,	1.43001E+01,	6.11792E+00,	-5.70341E-01,	0.00000E+00,	0,	0
  1.15200E+04,	1.00000E+01,	-3.89101E-03,	1.52661E+01,	6.18060E+00,	-8.13581E-01,	0.00000E+00,	0,	0
  9.60000E+03,	1.00000E+01,	-3.89101E-03,	1.68283E+01,	6.23670E+00,	-1.01278E+00,	0.00000E+00,	0,	0
  7.51304E+03,	1.00000E+01,	-3.89101E-03,	1.77196E+01,	6.32413E+00,	-1.30955E+00,	0.00000E+00,	0,	0
  5.76000E+03,	1.00000E+01,	-3.89101E-03,	1.86640E+01,	6.44669E+00,	-1.69491E+00,	0.00000E+00,	0,	0
  4.54737E+03,	1.00000E+01,	-3.89101E-03,	1.95360E+01,	6.57939E+00,	-2.07633E+00,	0.00000E+00,	0,	0
  3.60000E+03,	1.00000E+01,	-3.89101E-03,	2.05245E+01,	6.72871E+00,	-2.53648E+00,	0.00000E+00,	0,	0
  2.88000E+03,	1.00000E+01,	-3.89101E-03,	2.14219E+01,	6.90095E+00,	-3.04107E+00,	0.00000E+00,	0,	0
  2.27368E+03,	1.00000E+01,	-3.89101E-03,	2.25751E+01,	7.11908E+00,	-3.67998E+00,	0.00000E+00,	0,	0
  1.78144E+03,	1.00000E+01,	-3.89101E-03,	2.33561E+01,	7.37507E+00,	-4.46528E+00,	0.00000E+00,	0,	0
  1.41639E+03,	1.00000E+01,	-3.89101E-03,	2.42723E+01,	7.65705E+00,	-5.35027E+00,	0.00000E+00,	0,	0
  1.12208E+03,	1.00000E+01,	-3.89101E-03,	2.53367E+01,	7.98280E+00,	-6.45828E+00,	0.00000E+00,	0,	0
  9.00000E+02,	1.00000E+01,	-3.89101E-03,	3.03386E+01,	8.36648E+00,	-7.73312E+00,	0.00000E+00,	0,	0
  7.20000E+02,	1.00000E+01,	-3.89101E-03,	3.17099E+01,	8.77493E+00,	-9.27033E+00,	0.00000E+00,	0,	0
  5.68421E+02,	1.00000E+01,	-3.89101E-03,	3.30688E+01,	9.27833E+00,	-1.12664E+01,	0.00000E+00,	0,	0
  4.40816E+02,	1.00000E+01,	-3.89101E-03,	3.61631E+01,	9.95216E+00,	-1.39614E+01,	0.00000E+00,	0,	0
  3.54098E+02,	1.00000E+01,	-3.89101E-03,	3.85097E+01,	1.06133E+01,	-1.67838E+01,	0.00000E+00,	0,	0
  2.76923E+02,	1.00000E+01,	-3.89101E-03,	4.11778E+01,	1.15338E+01,	-2.06836E+01,	0.00000E+00,	0,	0
  2.20408E+02,	1.00000E+01,	-3.89101E-03,	4.41478E+01,	1.25876E+01,	-2.51561E+01,	0.00000E+00,	0,	0
  1.74194E+02,	1.00000E+01,	-3.89101E-03,	4.74058E+01,	1.39384E+01,	-3.07900E+01,	0.00000E+00,	0,	0
  1.37580E+02,	1.00000E+01,	-3.89101E-03,	5.10739E+01,	1.56640E+01,	-3.77397E+01,	0.00000E+00,	0,	0
  1.09091E+02,	1.00000E+01,	-3.89101E-03,	5.51866E+01,	1.78093E+01,	-4.61128E+01,	0.00000E+00,	0,	0
  8.70968E+01,	1.00000E+01,	-3.89101E-03,	6.09003E+01,	2.04522E+01,	-5.60563E+01,	0.00000E+00,	0,	0
  6.83544E+01,	1.00000E+01,	-3.89101E-03,	6.59286E+01,	2.41534E+01,	-6.93788E+01,	0.00000E+00,	0,	0
  5.45455E+01,	1.00000E+01,	-3.89101E-03,	7.13865E+01,	2.88378E+01,	-8.27338E+01,	0.00000E+00,	0,	0
  4.28571E+01,	1.00000E+01,	-3.89101E-03,	7.49398E+01,	3.50561E+01,	-1.01120E+02,	0.00000E+00,	0,	0
  3.39623E+01,	1.00000E+01,	-3.89101E-03,	7.86862E+01,	4.19967E+01,	-1.22246E+02,	0.00000E+00,	0,	0
  2.68657E+01,	1.00000E+01,	-3.89101E-03,	8.25383E+01,	5.21943E+01,	-1.48154E+02,	0.00000E+00,	0,	0
  2.13439E+01,	1.00000E+01,	-3.89101E-03,	8.63913E+01,	6.47434E+01,	-1.77827E+02,	0.00000E+00,	0,	0
  1.73077E+01,	1.00000E+01,	-3.89101E-03,	9.30774E+01,	7.89067E+01,	-2.09525E+02,	0.00000E+00,	0,	0
  1.36364E+01,	1.00000E+01,	-3.89101E-03,	9.81358E+01,	9.81935E+01,	-2.50696E+02,	0.00000E+00,	0,	0
  1.07143E+01,	1.00000E+01,	-3.89101E-03,	1.01053E+02,	1.21761E+02,	-2.99163E+02,	0.00000E+00,	0,	0
  8.49057E+00,	1.00000E+01,	-3.89101E-03,	1.05259E+02,	1.48616E+02,	-3.53682E+02,	0.00000E+00,	0,	0
  6.71642E+00,	1.00000E+01,	-3.89101E-03,	1.07808E+02,	1.79927E+02,	-4.17417E+02,	0.00000E+00,	0,	0
  5.29412E+00,	1.00000E+01,	-3.89101E-03,	1.10742E+02,	2.16297E+02,	-4.93384E+02,	0.00000E+00,	0,	0
  4.16667E+00,	1.00000E+01,	-3.89101E-03,	1.14263E+02,	2.57542E+02,	-5.84251E+02,	0.00000E+00,	0,	0
  3.30882E+00,	1.00000E+01,	-3.89101E-03,	1.18516E+02,	3.02365E+02,	-6.89012E+02,	0.00000E+00,	0,	0
  2.61628E+00,	1.00000E+01,	-3.89101E-03,	1.22484E+02,	3.54252E+02,	-8.16584E+02,	0.00000E+00,	0,	0
  2.07373E+00,	1.00000E+01,	-3.89101E-03,	1.27281E+02,	4.12453E+02,	-9.69563E+02,	0.00000E+00,	0,	0
  1.64234E+00,	1.00000E+01,	-3.89101E-03,	1.33062E+02,	4.79892E+02,	-1.15512E+03,	0.00000E+00,	0,	0
  1.30058E+00,	1.00000E+01,	-3.89101E-03,	1.37226E+02,	5.58760E+02,	-1.37883E+03,	0.00000E+00,	0,	0
  1.03211E+00,	1.00000E+01,	-3.89101E-03,	1.41621E+02,	6.51870E+02,	-1.64869E+03,	0.00000E+00,	0,	0
  8.15217E-01,	1.00000E+01,	-3.89101E-03,	1.48562E+02,	7.58558E+02,	-1.97561E+03,	0.00000E+00,	0,	0
  6.46552E-01,	1.00000E+01,	-3.89101E-03,	1.57667E+02,	8.80244E+02,	-2.36735E+03,	0.00000E+00,	0,	0
  5.11364E-01,	1.00000E+01,	-3.89101E-03,	1.62672E+02,	9.87716E+02,	-2.85409E+03,	0.00000E+00,	0,	0
  4.07609E-01,	1.00000E+01,	-3.89101E-03,	1.68738E+02,	1.13828E+03,	-3.41561E+03,	0.00000E+00,	0,	0
  3.21429E-01,	1.00000E+01,	-3.89101E-03,	1.75930E+02,	1.31170E+03,	-4.19816E+03,	0.00000E+00,	0,	0
  2.54525E-01,	1.00000E+01,	-3.89101E-03,	1.84751E+02,	1.49791E+03,	-5.07095E+03,	0.00000E+00,	0,	0
  2.01613E-01,	1.00000E+01,	-3.89101E-03,	1.95582E+02,	1.69502E+03,	-6.16358E+03,	0.00000E+00,	0,	0
  1.59574E-01,	1.00000E+01,	-3.89101E-03,	2.09037E+02,	1.91676E+03,	-7.52873E+03,	0.00000E+00,	0,	0
  1.26689E-01,	1.00000E+01,	-3.89101E-03,	2.25960E+02,	2.16983E+03,	-9.21066E+03,	0.00000E+00,	0,	0
  1.00446E-01,	1.00000E+01,	-3.89101E-03,	2.46854E+02,	2.47135E+03,	-1.13379E+04,	0.00000E+00,	0,	0