Z60W Data File: Version 1.1
CorrTest for Windows: SN CS310H1805157  V5.2.1111.9  2.5H6.220118
Sweep Frequency: Control Voltage
  Date:4-28-2026   Time:10:05:20
  Begin Information:            Cell Information
      Surface Area:           1
      Density:                7.8
      Weight:                 28
  End Information:              Cell Information
  Freq (Hz)     Ampl(mV)       Bias(V)      Time(Sec)       Z'(Ohm.cm^2)    Z''(Ohm.cm^2)        GD       Err      Range
End Comments
  3.07200E+05,	1.00000E+01,	-2.85581E-03,	5.40203E-02,	3.04522E-01,	3.82447E+00,	0.00000E+00,	0,	0
  2.76480E+05,	1.00000E+01,	-2.85581E-03,	1.66244E+00,	8.65720E-01,	3.04800E+00,	0.00000E+00,	0,	0
  1.97486E+05,	1.00000E+01,	-2.85581E-03,	2.55351E+00,	1.54255E+00,	2.21047E+00,	0.00000E+00,	0,	0
  1.53600E+05,	1.00000E+01,	-2.85581E-03,	3.46204E+00,	1.79485E+00,	1.66857E+00,	0.00000E+00,	0,	0
  1.25673E+05,	1.00000E+01,	-2.85581E-03,	4.42464E+00,	1.95491E+00,	1.32197E+00,	0.00000E+00,	0,	0
  9.87429E+04,	1.00000E+01,	-2.85581E-03,	5.33121E+00,	2.08443E+00,	9.92779E-01,	0.00000E+00,	0,	0
  7.68000E+04,	1.00000E+01,	-2.85581E-03,	6.22935E+00,	2.16596E+00,	7.24745E-01,	0.00000E+00,	0,	0
  6.01043E+04,	1.00000E+01,	-2.85581E-03,	9.45143E+00,	2.23439E+00,	4.48022E-01,	0.00000E+00,	0,	0
  4.93714E+04,	1.00000E+01,	-2.85581E-03,	1.10745E+01,	2.25930E+00,	3.01225E-01,	0.00000E+00,	0,	0
  3.84000E+04,	1.00000E+01,	-2.85581E-03,	1.19965E+01,	2.28589E+00,	1.32969E-01,	0.00000E+00,	0,	0
  3.00522E+04,	1.00000E+01,	-2.85581E-03,	1.28658E+01,	2.30897E+00,	-1.51913E-02,	0.00000E+00,	0,	0
  2.38345E+04,	1.00000E+01,	-2.85581E-03,	1.37284E+01,	2.33611E+00,	-1.47461E-01,	0.00000E+00,	0,	0
  1.86811E+04,	1.00000E+01,	-2.85581E-03,	1.46272E+01,	2.36770E+00,	-2.90850E-01,	0.00000E+00,	0,	0
  1.47064E+04,	1.00000E+01,	-2.85581E-03,	1.56192E+01,	2.40296E+00,	-4.35372E-01,	0.00000E+00,	0,	0
  1.15200E+04,	1.00000E+01,	-2.85581E-03,	1.66283E+01,	2.45177E+00,	-5.95806E-01,	0.00000E+00,	0,	0
  9.60000E+03,	1.00000E+01,	-2.85581E-03,	1.82007E+01,	2.49016E+00,	-7.24016E-01,	0.00000E+00,	0,	0
  7.51304E+03,	1.00000E+01,	-2.85581E-03,	1.90902E+01,	2.55062E+00,	-9.17116E-01,	0.00000E+00,	0,	0
  5.76000E+03,	1.00000E+01,	-2.85581E-03,	1.99929E+01,	2.62616E+00,	-1.16901E+00,	0.00000E+00,	0,	0
  4.54737E+03,	1.00000E+01,	-2.85581E-03,	2.08554E+01,	2.70264E+00,	-1.43042E+00,	0.00000E+00,	0,	0
  3.60000E+03,	1.00000E+01,	-2.85581E-03,	2.18448E+01,	2.79167E+00,	-1.73908E+00,	0.00000E+00,	0,	0
  2.88000E+03,	1.00000E+01,	-2.85581E-03,	2.27666E+01,	2.88737E+00,	-2.10252E+00,	0.00000E+00,	0,	0
  2.27368E+03,	1.00000E+01,	-2.85581E-03,	2.50547E+01,	2.97702E+00,	-2.53720E+00,	0.00000E+00,	0,	0
  1.78144E+03,	1.00000E+01,	-2.85581E-03,	2.58299E+01,	3.11753E+00,	-3.10926E+00,	0.00000E+00,	0,	0
  1.41639E+03,	1.00000E+01,	-2.85581E-03,	2.67237E+01,	3.28177E+00,	-3.77720E+00,	0.00000E+00,	0,	0
  1.12208E+03,	1.00000E+01,	-2.85581E-03,	2.77608E+01,	3.47420E+00,	-4.60919E+00,	0.00000E+00,	0,	0
  9.00000E+02,	1.00000E+01,	-2.85581E-03,	3.27741E+01,	3.70865E+00,	-5.57842E+00,	0.00000E+00,	0,	0
  7.20000E+02,	1.00000E+01,	-2.85581E-03,	3.41468E+01,	3.98372E+00,	-6.75852E+00,	0.00000E+00,	0,	0
  5.68421E+02,	1.00000E+01,	-2.85581E-03,	3.55197E+01,	4.35146E+00,	-8.28622E+00,	0.00000E+00,	0,	0
  4.40816E+02,	1.00000E+01,	-2.85581E-03,	3.85420E+01,	4.87087E+00,	-1.03404E+01,	0.00000E+00,	0,	0
  3.54098E+02,	1.00000E+01,	-2.85581E-03,	4.09149E+01,	5.42606E+00,	-1.24789E+01,	0.00000E+00,	0,	0
  2.76923E+02,	1.00000E+01,	-2.85581E-03,	4.35491E+01,	6.23605E+00,	-1.54027E+01,	0.00000E+00,	0,	0
  2.20408E+02,	1.00000E+01,	-2.85581E-03,	4.64624E+01,	7.19857E+00,	-1.87055E+01,	0.00000E+00,	0,	0
  1.74194E+02,	1.00000E+01,	-2.85581E-03,	4.97515E+01,	8.47931E+00,	-2.28111E+01,	0.00000E+00,	0,	0
  1.37580E+02,	1.00000E+01,	-2.85581E-03,	5.34130E+01,	1.01381E+01,	-2.77718E+01,	0.00000E+00,	0,	0
  1.09091E+02,	1.00000E+01,	-2.85581E-03,	5.74819E+01,	1.22291E+01,	-3.36229E+01,	0.00000E+00,	0,	0
  8.70968E+01,	1.00000E+01,	-2.85581E-03,	6.31661E+01,	1.47855E+01,	-4.04003E+01,	0.00000E+00,	0,	0
  6.83544E+01,	1.00000E+01,	-2.85581E-03,	6.81920E+01,	1.83097E+01,	-4.92443E+01,	0.00000E+00,	0,	0
  5.45455E+01,	1.00000E+01,	-2.85581E-03,	7.36303E+01,	2.25150E+01,	-5.77178E+01,	0.00000E+00,	0,	0
  4.28571E+01,	1.00000E+01,	-2.85581E-03,	7.71833E+01,	2.78704E+01,	-6.91176E+01,	0.00000E+00,	0,	0
  3.39623E+01,	1.00000E+01,	-2.85581E-03,	8.09059E+01,	3.35317E+01,	-8.18458E+01,	0.00000E+00,	0,	0
  2.68657E+01,	1.00000E+01,	-2.85581E-03,	8.47810E+01,	4.10725E+01,	-9.71229E+01,	0.00000E+00,	0,	0
  2.13439E+01,	1.00000E+01,	-2.85581E-03,	8.85998E+01,	4.95310E+01,	-1.14413E+02,	0.00000E+00,	0,	0
  1.73077E+01,	1.00000E+01,	-2.85581E-03,	9.52985E+01,	5.82977E+01,	-1.32952E+02,	0.00000E+00,	0,	0
  1.36364E+01,	1.00000E+01,	-2.85581E-03,	1.00333E+02,	6.92889E+01,	-1.57425E+02,	0.00000E+00,	0,	0
  1.07143E+01,	1.00000E+01,	-2.85581E-03,	1.03247E+02,	8.17996E+01,	-1.87078E+02,	0.00000E+00,	0,	0
  8.49057E+00,	1.00000E+01,	-2.85581E-03,	1.07471E+02,	9.54633E+01,	-2.21685E+02,	0.00000E+00,	0,	0
  6.71642E+00,	1.00000E+01,	-2.85581E-03,	1.10023E+02,	1.11330E+02,	-2.63968E+02,	0.00000E+00,	0,	0
  5.29412E+00,	1.00000E+01,	-2.85581E-03,	1.12959E+02,	1.29952E+02,	-3.15689E+02,	0.00000E+00,	0,	0
  4.16667E+00,	1.00000E+01,	-2.85581E-03,	1.16433E+02,	1.51887E+02,	-3.79263E+02,	0.00000E+00,	0,	0
  3.30882E+00,	1.00000E+01,	-2.85581E-03,	1.20705E+02,	1.76667E+02,	-4.53301E+02,	0.00000E+00,	0,	0
  2.61628E+00,	1.00000E+01,	-2.85581E-03,	1.24720E+02,	2.06479E+02,	-5.43932E+02,	0.00000E+00,	0,	0
  2.07373E+00,	1.00000E+01,	-2.85581E-03,	1.29499E+02,	2.40659E+02,	-6.52174E+02,	0.00000E+00,	0,	0
  1.64234E+00,	1.00000E+01,	-2.85581E-03,	1.35290E+02,	2.79635E+02,	-7.83424E+02,	0.00000E+00,	0,	0
  1.30058E+00,	1.00000E+01,	-2.85581E-03,	1.39457E+02,	3.24108E+02,	-9.42183E+02,	0.00000E+00,	0,	0
  1.03211E+00,	1.00000E+01,	-2.85581E-03,	1.43892E+02,	3.72818E+02,	-1.13493E+03,	0.00000E+00,	0,	0
  8.15217E-01,	1.00000E+01,	-2.85581E-03,	1.50856E+02,	4.27037E+02,	-1.37614E+03,	0.00000E+00,	0,	0
  6.46552E-01,	1.00000E+01,	-2.85581E-03,	1.59993E+02,	4.86918E+02,	-1.67091E+03,	0.00000E+00,	0,	0
  5.11364E-01,	1.00000E+01,	-2.85581E-03,	1.65001E+02,	5.46812E+02,	-2.04745E+03,	0.00000E+00,	0,	0
  4.07609E-01,	1.00000E+01,	-2.85581E-03,	1.71104E+02,	6.31819E+02,	-2.49675E+03,	0.00000E+00,	0,	0
  3.21429E-01,	1.00000E+01,	-2.85581E-03,	1.78239E+02,	7.43568E+02,	-3.11315E+03,	0.00000E+00,	0,	0
  2.54525E-01,	1.00000E+01,	-2.85581E-03,	1.87026E+02,	8.92010E+02,	-3.83009E+03,	0.00000E+00,	0,	0
  2.01613E-01,	1.00000E+01,	-2.85581E-03,	1.97863E+02,	1.08807E+03,	-4.71986E+03,	0.00000E+00,	0,	0
  1.59574E-01,	1.00000E+01,	-2.85581E-03,	2.11320E+02,	1.35791E+03,	-5.82163E+03,	0.00000E+00,	0,	0
  1.26689E-01,	1.00000E+01,	-2.85581E-03,	2.28221E+02,	1.72201E+03,	-7.15296E+03,	0.00000E+00,	0,	0
  1.00446E-01,	1.00000E+01,	-2.85581E-03,	2.49094E+02,	2.23221E+03,	-8.79160E+03,	0.00000E+00,	0,	0