Z60W Data File: Version 1.1
CorrTest for Windows: SN CS310H1805157  V5.2.1111.9  2.5H6.220118
Sweep Frequency: Control Voltage
  Date:4-28-2026   Time:09:38:39
  Begin Information:            Cell Information
      Surface Area:           1
      Density:                7.8
      Weight:                 28
  End Information:              Cell Information
  Freq (Hz)     Ampl(mV)       Bias(V)      Time(Sec)       Z'(Ohm.cm^2)    Z''(Ohm.cm^2)        GD       Err      Range
End Comments
  3.07200E+05,	1.00000E+01,	-1.30586E-03,	5.56066E-02,	2.30834E-01,	3.73029E+00,	0.00000E+00,	0,	0
  2.76480E+05,	1.00000E+01,	-1.30586E-03,	1.67461E+00,	7.23077E-01,	3.02854E+00,	0.00000E+00,	0,	0
  1.97486E+05,	1.00000E+01,	-1.30586E-03,	2.59217E+00,	1.42574E+00,	2.13988E+00,	0.00000E+00,	0,	0
  1.53600E+05,	1.00000E+01,	-1.30586E-03,	3.48970E+00,	1.68867E+00,	1.64291E+00,	0.00000E+00,	0,	0
  1.25673E+05,	1.00000E+01,	-1.30586E-03,	4.38361E+00,	1.83886E+00,	1.29821E+00,	0.00000E+00,	0,	0
  9.87429E+04,	1.00000E+01,	-1.30586E-03,	5.27436E+00,	1.97113E+00,	9.80251E-01,	0.00000E+00,	0,	0
  7.68000E+04,	1.00000E+01,	-1.30586E-03,	6.18338E+00,	2.05073E+00,	7.06565E-01,	0.00000E+00,	0,	0
  6.01043E+04,	1.00000E+01,	-1.30586E-03,	9.38859E+00,	2.12110E+00,	4.42868E-01,	0.00000E+00,	0,	0
  4.93714E+04,	1.00000E+01,	-1.30586E-03,	1.10142E+01,	2.14337E+00,	2.97981E-01,	0.00000E+00,	0,	0
  3.84000E+04,	1.00000E+01,	-1.30586E-03,	1.19073E+01,	2.17160E+00,	1.35556E-01,	0.00000E+00,	0,	0
  3.00522E+04,	1.00000E+01,	-1.30586E-03,	1.27847E+01,	2.19266E+00,	-1.02588E-02,	0.00000E+00,	0,	0
  2.38345E+04,	1.00000E+01,	-1.30586E-03,	1.36564E+01,	2.21851E+00,	-1.41711E-01,	0.00000E+00,	0,	0
  1.86811E+04,	1.00000E+01,	-1.30586E-03,	1.45190E+01,	2.25225E+00,	-2.78764E-01,	0.00000E+00,	0,	0
  1.47064E+04,	1.00000E+01,	-1.30586E-03,	1.54790E+01,	2.28627E+00,	-4.16842E-01,	0.00000E+00,	0,	0
  1.15200E+04,	1.00000E+01,	-1.30586E-03,	1.64453E+01,	2.33057E+00,	-5.69448E-01,	0.00000E+00,	0,	0
  9.60000E+03,	1.00000E+01,	-1.30586E-03,	1.80603E+01,	2.36758E+00,	-6.93593E-01,	0.00000E+00,	0,	0
  7.51304E+03,	1.00000E+01,	-1.30586E-03,	1.89531E+01,	2.42368E+00,	-8.83411E-01,	0.00000E+00,	0,	0
  5.76000E+03,	1.00000E+01,	-1.30586E-03,	1.98474E+01,	2.49362E+00,	-1.12197E+00,	0.00000E+00,	0,	0
  4.54737E+03,	1.00000E+01,	-1.30586E-03,	2.07078E+01,	2.56610E+00,	-1.37482E+00,	0.00000E+00,	0,	0
  3.60000E+03,	1.00000E+01,	-1.30586E-03,	2.16942E+01,	2.65169E+00,	-1.67723E+00,	0.00000E+00,	0,	0
  2.88000E+03,	1.00000E+01,	-1.30586E-03,	2.25876E+01,	2.74027E+00,	-2.02006E+00,	0.00000E+00,	0,	0
  2.27368E+03,	1.00000E+01,	-1.30586E-03,	2.48511E+01,	2.81176E+00,	-2.44962E+00,	0.00000E+00,	0,	0
  1.78144E+03,	1.00000E+01,	-1.30586E-03,	2.56298E+01,	2.94626E+00,	-3.00847E+00,	0.00000E+00,	0,	0
  1.41639E+03,	1.00000E+01,	-1.30586E-03,	2.65362E+01,	3.10055E+00,	-3.65474E+00,	0.00000E+00,	0,	0
  1.12208E+03,	1.00000E+01,	-1.30586E-03,	2.75587E+01,	3.28257E+00,	-4.45913E+00,	0.00000E+00,	0,	0
  9.00000E+02,	1.00000E+01,	-1.30586E-03,	3.25381E+01,	3.51348E+00,	-5.40308E+00,	0.00000E+00,	0,	0
  7.20000E+02,	1.00000E+01,	-1.30586E-03,	3.39354E+01,	3.78616E+00,	-6.54491E+00,	0.00000E+00,	0,	0
  5.68421E+02,	1.00000E+01,	-1.30586E-03,	3.53113E+01,	4.14733E+00,	-8.02447E+00,	0.00000E+00,	0,	0
  4.40816E+02,	1.00000E+01,	-1.30586E-03,	3.67471E+01,	4.64886E+00,	-9.98500E+00,	0.00000E+00,	0,	0
  3.54098E+02,	1.00000E+01,	-1.30586E-03,	3.91147E+01,	5.19598E+00,	-1.20478E+01,	0.00000E+00,	0,	0
  2.76923E+02,	1.00000E+01,	-1.30586E-03,	4.17656E+01,	5.99671E+00,	-1.48627E+01,	0.00000E+00,	0,	0
  2.20408E+02,	1.00000E+01,	-1.30586E-03,	4.46734E+01,	6.95113E+00,	-1.80320E+01,	0.00000E+00,	0,	0
  1.74194E+02,	1.00000E+01,	-1.30586E-03,	4.79245E+01,	8.21759E+00,	-2.19645E+01,	0.00000E+00,	0,	0
  1.37580E+02,	1.00000E+01,	-1.30586E-03,	5.15846E+01,	9.85654E+00,	-2.67008E+01,	0.00000E+00,	0,	0
  1.09091E+02,	1.00000E+01,	-1.30586E-03,	5.56408E+01,	1.19115E+01,	-3.22662E+01,	0.00000E+00,	0,	0
  8.70968E+01,	1.00000E+01,	-1.30586E-03,	6.38347E+01,	1.44605E+01,	-3.87970E+01,	0.00000E+00,	0,	0
  6.83544E+01,	1.00000E+01,	-1.30586E-03,	6.88635E+01,	1.78949E+01,	-4.71765E+01,	0.00000E+00,	0,	0
  5.45455E+01,	1.00000E+01,	-1.30586E-03,	7.43111E+01,	2.19547E+01,	-5.51594E+01,	0.00000E+00,	0,	0
  4.28571E+01,	1.00000E+01,	-1.30586E-03,	7.78195E+01,	2.70780E+01,	-6.59136E+01,	0.00000E+00,	0,	0
  3.39623E+01,	1.00000E+01,	-1.30586E-03,	8.15629E+01,	3.24307E+01,	-7.79266E+01,	0.00000E+00,	0,	0
  2.68657E+01,	1.00000E+01,	-1.30586E-03,	8.54294E+01,	3.95059E+01,	-9.23684E+01,	0.00000E+00,	0,	0
  2.13439E+01,	1.00000E+01,	-1.30586E-03,	8.92892E+01,	4.73813E+01,	-1.08770E+02,	0.00000E+00,	0,	0
  1.73077E+01,	1.00000E+01,	-1.30586E-03,	9.59906E+01,	5.55054E+01,	-1.26409E+02,	0.00000E+00,	0,	0
  1.36364E+01,	1.00000E+01,	-1.30586E-03,	1.01048E+02,	6.56808E+01,	-1.49824E+02,	0.00000E+00,	0,	0
  1.07143E+01,	1.00000E+01,	-1.30586E-03,	1.03956E+02,	7.73217E+01,	-1.78316E+02,	0.00000E+00,	0,	0
  8.49057E+00,	1.00000E+01,	-1.30586E-03,	1.08147E+02,	9.01188E+01,	-2.11637E+02,	0.00000E+00,	0,	0
  6.71642E+00,	1.00000E+01,	-1.30586E-03,	1.10665E+02,	1.04964E+02,	-2.52335E+02,	0.00000E+00,	0,	0
  5.29412E+00,	1.00000E+01,	-1.30586E-03,	1.13600E+02,	1.22636E+02,	-3.02279E+02,	0.00000E+00,	0,	0
  4.16667E+00,	1.00000E+01,	-1.30586E-03,	1.17065E+02,	1.43487E+02,	-3.63431E+02,	0.00000E+00,	0,	0
  3.30882E+00,	1.00000E+01,	-1.30586E-03,	1.21321E+02,	1.67102E+02,	-4.34534E+02,	0.00000E+00,	0,	0
  2.61628E+00,	1.00000E+01,	-1.30586E-03,	1.25285E+02,	1.95376E+02,	-5.21524E+02,	0.00000E+00,	0,	0
  2.07373E+00,	1.00000E+01,	-1.30586E-03,	1.30047E+02,	2.27555E+02,	-6.25480E+02,	0.00000E+00,	0,	0
  1.64234E+00,	1.00000E+01,	-1.30586E-03,	1.35829E+02,	2.64136E+02,	-7.51560E+02,	0.00000E+00,	0,	0
  1.30058E+00,	1.00000E+01,	-1.30586E-03,	1.39988E+02,	3.05452E+02,	-9.04797E+02,	0.00000E+00,	0,	0
  1.03211E+00,	1.00000E+01,	-1.30586E-03,	1.44405E+02,	3.51073E+02,	-1.09168E+03,	0.00000E+00,	0,	0
  8.15217E-01,	1.00000E+01,	-1.30586E-03,	1.51375E+02,	4.02448E+02,	-1.32621E+03,	0.00000E+00,	0,	0
  6.46552E-01,	1.00000E+01,	-1.30586E-03,	1.60468E+02,	4.60731E+02,	-1.61333E+03,	0.00000E+00,	0,	0
  5.11364E-01,	1.00000E+01,	-1.30586E-03,	1.65494E+02,	5.22188E+02,	-1.97984E+03,	0.00000E+00,	0,	0
  4.07609E-01,	1.00000E+01,	-1.30586E-03,	1.71534E+02,	6.10521E+02,	-2.41651E+03,	0.00000E+00,	0,	0
  3.21429E-01,	1.00000E+01,	-1.30586E-03,	1.78670E+02,	7.29920E+02,	-3.01234E+03,	0.00000E+00,	0,	0
  2.54525E-01,	1.00000E+01,	-1.30586E-03,	1.87447E+02,	8.91395E+02,	-3.70485E+03,	0.00000E+00,	0,	0
  2.01613E-01,	1.00000E+01,	-1.30586E-03,	1.98321E+02,	1.10959E+03,	-4.55956E+03,	0.00000E+00,	0,	0
  1.59574E-01,	1.00000E+01,	-1.30586E-03,	2.11778E+02,	1.41262E+03,	-5.61157E+03,	0.00000E+00,	0,	0
  1.26689E-01,	1.00000E+01,	-1.30586E-03,	2.28672E+02,	1.82976E+03,	-6.86896E+03,	0.00000E+00,	0,	0
  1.00446E-01,	1.00000E+01,	-1.30586E-03,	2.49537E+02,	2.41605E+03,	-8.39570E+03,	0.00000E+00,	0,	0