Z60W Data File: Version 1.1
CorrTest for Windows: SN CS310H1805157  V5.2.1111.9  2.5H6.220118
Sweep Frequency: Control Voltage
  Date:4-28-2026   Time:14:54:05
  Begin Information:            Cell Information
      Surface Area:           1
      Density:                7.8
      Weight:                 28
  End Information:              Cell Information
  Freq (Hz)     Ampl(mV)       Bias(V)      Time(Sec)       Z'(Ohm.cm^2)    Z''(Ohm.cm^2)        GD       Err      Range
End Comments
  3.07200E+05,	1.00000E+01,	-2.76604E-03,	9.06890E-02,	6.66246E+00,	7.22560E+00,	0.00000E+00,	0,	0
  2.76480E+05,	1.00000E+01,	-2.76604E-03,	1.69276E+00,	7.03086E+00,	6.13836E+00,	0.00000E+00,	0,	0
  1.97486E+05,	1.00000E+01,	-2.76604E-03,	2.59304E+00,	7.55894E+00,	4.38387E+00,	0.00000E+00,	0,	0
  1.53600E+05,	1.00000E+01,	-2.76604E-03,	3.49277E+00,	7.76905E+00,	3.35793E+00,	0.00000E+00,	0,	0
  1.25673E+05,	1.00000E+01,	-2.76604E-03,	4.44424E+00,	7.88295E+00,	2.69996E+00,	0.00000E+00,	0,	0
  9.87429E+04,	1.00000E+01,	-2.76604E-03,	5.34793E+00,	7.98367E+00,	2.05278E+00,	0.00000E+00,	0,	0
  7.68000E+04,	1.00000E+01,	-2.76604E-03,	6.23683E+00,	8.04296E+00,	1.51130E+00,	0.00000E+00,	0,	0
  6.01043E+04,	1.00000E+01,	-2.76604E-03,	8.32302E+00,	8.08188E+00,	1.04474E+00,	0.00000E+00,	0,	0
  4.93714E+04,	1.00000E+01,	-2.76604E-03,	9.92483E+00,	8.10694E+00,	7.65764E-01,	0.00000E+00,	0,	0
  3.84000E+04,	1.00000E+01,	-2.76604E-03,	1.08641E+01,	8.14067E+00,	4.36156E-01,	0.00000E+00,	0,	0
  3.00522E+04,	1.00000E+01,	-2.76604E-03,	1.17157E+01,	8.16253E+00,	1.65035E-01,	0.00000E+00,	0,	0
  2.38345E+04,	1.00000E+01,	-2.76604E-03,	1.26066E+01,	8.20186E+00,	-8.12305E-02,	0.00000E+00,	0,	0
  1.86811E+04,	1.00000E+01,	-2.76604E-03,	1.34504E+01,	8.23650E+00,	-3.18448E-01,	0.00000E+00,	0,	0
  1.47064E+04,	1.00000E+01,	-2.76604E-03,	1.44038E+01,	8.28682E+00,	-5.82274E-01,	0.00000E+00,	0,	0
  1.15200E+04,	1.00000E+01,	-2.76604E-03,	1.53790E+01,	8.35878E+00,	-8.60623E-01,	0.00000E+00,	0,	0
  9.60000E+03,	1.00000E+01,	-2.76604E-03,	1.69576E+01,	8.40421E+00,	-1.08573E+00,	0.00000E+00,	0,	0
  7.51304E+03,	1.00000E+01,	-2.76604E-03,	1.78826E+01,	8.51185E+00,	-1.41507E+00,	0.00000E+00,	0,	0
  5.76000E+03,	1.00000E+01,	-2.76604E-03,	1.87751E+01,	8.63321E+00,	-1.83643E+00,	0.00000E+00,	0,	0
  4.54737E+03,	1.00000E+01,	-2.76604E-03,	1.96599E+01,	8.77501E+00,	-2.26800E+00,	0.00000E+00,	0,	0
  3.60000E+03,	1.00000E+01,	-2.76604E-03,	2.06645E+01,	8.96212E+00,	-2.77052E+00,	0.00000E+00,	0,	0
  2.88000E+03,	1.00000E+01,	-2.76604E-03,	2.15620E+01,	9.14448E+00,	-3.33936E+00,	0.00000E+00,	0,	0
  2.27368E+03,	1.00000E+01,	-2.76604E-03,	2.26891E+01,	9.38896E+00,	-4.04641E+00,	0.00000E+00,	0,	0
  1.78144E+03,	1.00000E+01,	-2.76604E-03,	2.34826E+01,	9.69981E+00,	-4.91604E+00,	0.00000E+00,	0,	0
  1.41639E+03,	1.00000E+01,	-2.76604E-03,	2.44171E+01,	1.00310E+01,	-5.89755E+00,	0.00000E+00,	0,	0
  1.12208E+03,	1.00000E+01,	-2.76604E-03,	2.54597E+01,	1.04038E+01,	-7.07976E+00,	0.00000E+00,	0,	0
  9.00000E+02,	1.00000E+01,	-2.76604E-03,	3.04570E+01,	1.08548E+01,	-8.45862E+00,	0.00000E+00,	0,	0
  7.20000E+02,	1.00000E+01,	-2.76604E-03,	3.18591E+01,	1.13337E+01,	-1.01084E+01,	0.00000E+00,	0,	0
  5.68421E+02,	1.00000E+01,	-2.76604E-03,	3.32575E+01,	1.19171E+01,	-1.22375E+01,	0.00000E+00,	0,	0
  4.40816E+02,	1.00000E+01,	-2.76604E-03,	3.63387E+01,	1.26868E+01,	-1.50981E+01,	0.00000E+00,	0,	0
  3.54098E+02,	1.00000E+01,	-2.76604E-03,	3.86997E+01,	1.34197E+01,	-1.80958E+01,	0.00000E+00,	0,	0
  2.76923E+02,	1.00000E+01,	-2.76604E-03,	4.13496E+01,	1.44118E+01,	-2.22247E+01,	0.00000E+00,	0,	0
  2.20408E+02,	1.00000E+01,	-2.76604E-03,	4.42643E+01,	1.55331E+01,	-2.69742E+01,	0.00000E+00,	0,	0
  1.74194E+02,	1.00000E+01,	-2.76604E-03,	4.75172E+01,	1.69389E+01,	-3.29724E+01,	0.00000E+00,	0,	0
  1.37580E+02,	1.00000E+01,	-2.76604E-03,	5.11974E+01,	1.87039E+01,	-4.03760E+01,	0.00000E+00,	0,	0
  1.09091E+02,	1.00000E+01,	-2.76604E-03,	5.52513E+01,	2.08842E+01,	-4.93405E+01,	0.00000E+00,	0,	0
  8.70968E+01,	1.00000E+01,	-2.76604E-03,	6.09350E+01,	2.35286E+01,	-6.00198E+01,	0.00000E+00,	0,	0
  6.83544E+01,	1.00000E+01,	-2.76604E-03,	6.59458E+01,	2.72323E+01,	-7.43952E+01,	0.00000E+00,	0,	0
  5.45455E+01,	1.00000E+01,	-2.76604E-03,	7.14182E+01,	3.18826E+01,	-8.88914E+01,	0.00000E+00,	0,	0
  4.28571E+01,	1.00000E+01,	-2.76604E-03,	7.49549E+01,	3.80553E+01,	-1.08985E+02,	0.00000E+00,	0,	0
  3.39623E+01,	1.00000E+01,	-2.76604E-03,	7.86880E+01,	4.48986E+01,	-1.32253E+02,	0.00000E+00,	0,	0
  2.68657E+01,	1.00000E+01,	-2.76604E-03,	8.25483E+01,	5.51659E+01,	-1.61020E+02,	0.00000E+00,	0,	0
  2.13439E+01,	1.00000E+01,	-2.76604E-03,	8.63757E+01,	6.79528E+01,	-1.94299E+02,	0.00000E+00,	0,	0
  1.73077E+01,	1.00000E+01,	-2.76604E-03,	9.30771E+01,	8.26072E+01,	-2.30134E+02,	0.00000E+00,	0,	0
  1.36364E+01,	1.00000E+01,	-2.76604E-03,	9.81412E+01,	1.03010E+02,	-2.77154E+02,	0.00000E+00,	0,	0
  1.07143E+01,	1.00000E+01,	-2.76604E-03,	1.01057E+02,	1.28618E+02,	-3.32805E+02,	0.00000E+00,	0,	0
  8.49057E+00,	1.00000E+01,	-2.76604E-03,	1.05252E+02,	1.58686E+02,	-3.95503E+02,	0.00000E+00,	0,	0
  6.71642E+00,	1.00000E+01,	-2.76604E-03,	1.07784E+02,	1.94609E+02,	-4.68657E+02,	0.00000E+00,	0,	0
  5.29412E+00,	1.00000E+01,	-2.76604E-03,	1.10731E+02,	2.37254E+02,	-5.54681E+02,	0.00000E+00,	0,	0
  4.16667E+00,	1.00000E+01,	-2.76604E-03,	1.14257E+02,	2.86570E+02,	-6.56818E+02,	0.00000E+00,	0,	0
  3.30882E+00,	1.00000E+01,	-2.76604E-03,	1.18477E+02,	3.40346E+02,	-7.72730E+02,	0.00000E+00,	0,	0
  2.61628E+00,	1.00000E+01,	-2.76604E-03,	1.22454E+02,	4.02087E+02,	-9.12483E+02,	0.00000E+00,	0,	0
  2.07373E+00,	1.00000E+01,	-2.76604E-03,	1.27245E+02,	4.71115E+02,	-1.07892E+03,	0.00000E+00,	0,	0
  1.64234E+00,	1.00000E+01,	-2.76604E-03,	1.33024E+02,	5.49781E+02,	-1.28030E+03,	0.00000E+00,	0,	0
  1.30058E+00,	1.00000E+01,	-2.76604E-03,	1.37227E+02,	6.40561E+02,	-1.52244E+03,	0.00000E+00,	0,	0
  1.03211E+00,	1.00000E+01,	-2.76604E-03,	1.41663E+02,	7.46802E+02,	-1.81529E+03,	0.00000E+00,	0,	0
  8.15217E-01,	1.00000E+01,	-2.76604E-03,	1.48617E+02,	8.68650E+02,	-2.17003E+03,	0.00000E+00,	0,	0
  6.46552E-01,	1.00000E+01,	-2.76604E-03,	1.57758E+02,	1.00992E+03,	-2.59680E+03,	0.00000E+00,	0,	0
  5.11364E-01,	1.00000E+01,	-2.76604E-03,	1.62752E+02,	1.13967E+03,	-3.12649E+03,	0.00000E+00,	0,	0
  4.07609E-01,	1.00000E+01,	-2.76604E-03,	1.68786E+02,	1.32238E+03,	-3.73359E+03,	0.00000E+00,	0,	0
  3.21429E-01,	1.00000E+01,	-2.76604E-03,	1.75920E+02,	1.54122E+03,	-4.57155E+03,	0.00000E+00,	0,	0
  2.54525E-01,	1.00000E+01,	-2.76604E-03,	1.84682E+02,	1.77734E+03,	-5.49038E+03,	0.00000E+00,	0,	0
  2.01613E-01,	1.00000E+01,	-2.76604E-03,	1.95521E+02,	2.02344E+03,	-6.63260E+03,	0.00000E+00,	0,	0
  1.59574E-01,	1.00000E+01,	-2.76604E-03,	2.09009E+02,	2.29096E+03,	-8.05326E+03,	0.00000E+00,	0,	0
  1.26689E-01,	1.00000E+01,	-2.76604E-03,	2.25948E+02,	2.58047E+03,	-9.79809E+03,	0.00000E+00,	0,	0
  1.00446E-01,	1.00000E+01,	-2.76604E-03,	2.46887E+02,	2.90643E+03,	-1.20042E+04,	0.00000E+00,	0,	0