Z60W Data File: Version 1.1
CorrTest for Windows: SN CS310H1805157  V5.2.1111.9  2.5H6.220118
Sweep Frequency: Control Voltage
  Date:4-28-2026   Time:09:32:47
  Begin Information:            Cell Information
      Surface Area:           1
      Density:                7.8
      Weight:                 28
  End Information:              Cell Information
  Freq (Hz)     Ampl(mV)       Bias(V)      Time(Sec)       Z'(Ohm.cm^2)    Z''(Ohm.cm^2)        GD       Err      Range
End Comments
  3.07200E+05,	1.00000E+01,	-3.55251E-03,	2.66866E-02,	2.14388E-01,	3.73459E+00,	0.00000E+00,	0,	0
  2.76480E+05,	1.00000E+01,	-3.55251E-03,	1.64986E+00,	7.74623E-01,	3.01998E+00,	0.00000E+00,	0,	0
  1.97486E+05,	1.00000E+01,	-3.55251E-03,	2.55770E+00,	1.44216E+00,	2.18159E+00,	0.00000E+00,	0,	0
  1.53600E+05,	1.00000E+01,	-3.55251E-03,	3.45884E+00,	1.71545E+00,	1.64228E+00,	0.00000E+00,	0,	0
  1.25673E+05,	1.00000E+01,	-3.55251E-03,	4.38590E+00,	1.86912E+00,	1.31161E+00,	0.00000E+00,	0,	0
  9.87429E+04,	1.00000E+01,	-3.55251E-03,	5.32238E+00,	2.00199E+00,	9.85253E-01,	0.00000E+00,	0,	0
  7.68000E+04,	1.00000E+01,	-3.55251E-03,	6.22463E+00,	2.07370E+00,	7.20941E-01,	0.00000E+00,	0,	0
  6.01043E+04,	1.00000E+01,	-3.55251E-03,	9.45008E+00,	2.14461E+00,	4.42372E-01,	0.00000E+00,	0,	0
  4.93714E+04,	1.00000E+01,	-3.55251E-03,	1.10111E+01,	2.16776E+00,	2.99734E-01,	0.00000E+00,	0,	0
  3.84000E+04,	1.00000E+01,	-3.55251E-03,	1.19017E+01,	2.19108E+00,	1.37002E-01,	0.00000E+00,	0,	0
  3.00522E+04,	1.00000E+01,	-3.55251E-03,	1.27594E+01,	2.21734E+00,	-1.02437E-02,	0.00000E+00,	0,	0
  2.38345E+04,	1.00000E+01,	-3.55251E-03,	1.36360E+01,	2.24205E+00,	-1.38635E-01,	0.00000E+00,	0,	0
  1.86811E+04,	1.00000E+01,	-3.55251E-03,	1.44772E+01,	2.27469E+00,	-2.75877E-01,	0.00000E+00,	0,	0
  1.47064E+04,	1.00000E+01,	-3.55251E-03,	1.54390E+01,	2.30815E+00,	-4.17092E-01,	0.00000E+00,	0,	0
  1.15200E+04,	1.00000E+01,	-3.55251E-03,	1.64226E+01,	2.35230E+00,	-5.69680E-01,	0.00000E+00,	0,	0
  9.60000E+03,	1.00000E+01,	-3.55251E-03,	1.79969E+01,	2.38945E+00,	-6.93177E-01,	0.00000E+00,	0,	0
  7.51304E+03,	1.00000E+01,	-3.55251E-03,	1.88874E+01,	2.44603E+00,	-8.82007E-01,	0.00000E+00,	0,	0
  5.76000E+03,	1.00000E+01,	-3.55251E-03,	1.97929E+01,	2.51876E+00,	-1.12167E+00,	0.00000E+00,	0,	0
  4.54737E+03,	1.00000E+01,	-3.55251E-03,	2.06854E+01,	2.58721E+00,	-1.37722E+00,	0.00000E+00,	0,	0
  3.60000E+03,	1.00000E+01,	-3.55251E-03,	2.17132E+01,	2.67225E+00,	-1.67961E+00,	0.00000E+00,	0,	0
  2.88000E+03,	1.00000E+01,	-3.55251E-03,	2.26213E+01,	2.76134E+00,	-2.02494E+00,	0.00000E+00,	0,	0
  2.27368E+03,	1.00000E+01,	-3.55251E-03,	2.48915E+01,	2.83348E+00,	-2.45035E+00,	0.00000E+00,	0,	0
  1.78144E+03,	1.00000E+01,	-3.55251E-03,	2.56874E+01,	2.97443E+00,	-3.00104E+00,	0.00000E+00,	0,	0
  1.41639E+03,	1.00000E+01,	-3.55251E-03,	2.66185E+01,	3.11946E+00,	-3.65803E+00,	0.00000E+00,	0,	0
  1.12208E+03,	1.00000E+01,	-3.55251E-03,	2.76679E+01,	3.30703E+00,	-4.45511E+00,	0.00000E+00,	0,	0
  9.00000E+02,	1.00000E+01,	-3.55251E-03,	3.26486E+01,	3.53477E+00,	-5.40769E+00,	0.00000E+00,	0,	0
  7.20000E+02,	1.00000E+01,	-3.55251E-03,	3.40596E+01,	3.80697E+00,	-6.54950E+00,	0.00000E+00,	0,	0
  5.68421E+02,	1.00000E+01,	-3.55251E-03,	3.54258E+01,	4.16931E+00,	-8.02885E+00,	0.00000E+00,	0,	0
  4.40816E+02,	1.00000E+01,	-3.55251E-03,	3.69087E+01,	4.67045E+00,	-9.99193E+00,	0.00000E+00,	0,	0
  3.54098E+02,	1.00000E+01,	-3.55251E-03,	3.92574E+01,	5.22199E+00,	-1.20579E+01,	0.00000E+00,	0,	0
  2.76923E+02,	1.00000E+01,	-3.55251E-03,	4.18862E+01,	6.01946E+00,	-1.48725E+01,	0.00000E+00,	0,	0
  2.20408E+02,	1.00000E+01,	-3.55251E-03,	4.48183E+01,	6.97774E+00,	-1.80480E+01,	0.00000E+00,	0,	0
  1.74194E+02,	1.00000E+01,	-3.55251E-03,	4.81074E+01,	8.24565E+00,	-2.19805E+01,	0.00000E+00,	0,	0
  1.37580E+02,	1.00000E+01,	-3.55251E-03,	5.17627E+01,	9.88537E+00,	-2.67188E+01,	0.00000E+00,	0,	0
  1.09091E+02,	1.00000E+01,	-3.55251E-03,	5.58371E+01,	1.19380E+01,	-3.22866E+01,	0.00000E+00,	0,	0
  8.70968E+01,	1.00000E+01,	-3.55251E-03,	6.40077E+01,	1.44879E+01,	-3.88129E+01,	0.00000E+00,	0,	0
  6.83544E+01,	1.00000E+01,	-3.55251E-03,	6.90544E+01,	1.79200E+01,	-4.71882E+01,	0.00000E+00,	0,	0
  5.45455E+01,	1.00000E+01,	-3.55251E-03,	7.45343E+01,	2.19777E+01,	-5.51768E+01,	0.00000E+00,	0,	0
  4.28571E+01,	1.00000E+01,	-3.55251E-03,	7.81025E+01,	2.70964E+01,	-6.59340E+01,	0.00000E+00,	0,	0
  3.39623E+01,	1.00000E+01,	-3.55251E-03,	8.18307E+01,	3.24368E+01,	-7.79351E+01,	0.00000E+00,	0,	0
  2.68657E+01,	1.00000E+01,	-3.55251E-03,	8.56837E+01,	3.95030E+01,	-9.23651E+01,	0.00000E+00,	0,	0
  2.13439E+01,	1.00000E+01,	-3.55251E-03,	8.95344E+01,	4.73650E+01,	-1.08763E+02,	0.00000E+00,	0,	0
  1.73077E+01,	1.00000E+01,	-3.55251E-03,	9.62392E+01,	5.54843E+01,	-1.26415E+02,	0.00000E+00,	0,	0
  1.36364E+01,	1.00000E+01,	-3.55251E-03,	1.01321E+02,	6.56549E+01,	-1.49842E+02,	0.00000E+00,	0,	0
  1.07143E+01,	1.00000E+01,	-3.55251E-03,	1.04243E+02,	7.72875E+01,	-1.78349E+02,	0.00000E+00,	0,	0
  8.49057E+00,	1.00000E+01,	-3.55251E-03,	1.08444E+02,	9.01127E+01,	-2.11761E+02,	0.00000E+00,	0,	0
  6.71642E+00,	1.00000E+01,	-3.55251E-03,	1.10979E+02,	1.04981E+02,	-2.52367E+02,	0.00000E+00,	0,	0
  5.29412E+00,	1.00000E+01,	-3.55251E-03,	1.13920E+02,	1.22588E+02,	-3.02368E+02,	0.00000E+00,	0,	0
  4.16667E+00,	1.00000E+01,	-3.55251E-03,	1.17403E+02,	1.43510E+02,	-3.63491E+02,	0.00000E+00,	0,	0
  3.30882E+00,	1.00000E+01,	-3.55251E-03,	1.21628E+02,	1.67159E+02,	-4.34602E+02,	0.00000E+00,	0,	0
  2.61628E+00,	1.00000E+01,	-3.55251E-03,	1.25602E+02,	1.95404E+02,	-5.21474E+02,	0.00000E+00,	0,	0
  2.07373E+00,	1.00000E+01,	-3.55251E-03,	1.30410E+02,	2.27608E+02,	-6.25476E+02,	0.00000E+00,	0,	0
  1.64234E+00,	1.00000E+01,	-3.55251E-03,	1.36214E+02,	2.64150E+02,	-7.51334E+02,	0.00000E+00,	0,	0
  1.30058E+00,	1.00000E+01,	-3.55251E-03,	1.40375E+02,	3.05522E+02,	-9.04526E+02,	0.00000E+00,	0,	0
  1.03211E+00,	1.00000E+01,	-3.55251E-03,	1.44804E+02,	3.51027E+02,	-1.09135E+03,	0.00000E+00,	0,	0
  8.15217E-01,	1.00000E+01,	-3.55251E-03,	1.51759E+02,	4.02212E+02,	-1.32552E+03,	0.00000E+00,	0,	0
  6.46552E-01,	1.00000E+01,	-3.55251E-03,	1.60834E+02,	4.60646E+02,	-1.61205E+03,	0.00000E+00,	0,	0
  5.11364E-01,	1.00000E+01,	-3.55251E-03,	1.65847E+02,	5.21627E+02,	-1.97824E+03,	0.00000E+00,	0,	0
  4.07609E-01,	1.00000E+01,	-3.55251E-03,	1.71898E+02,	6.09138E+02,	-2.41466E+03,	0.00000E+00,	0,	0
  3.21429E-01,	1.00000E+01,	-3.55251E-03,	1.79020E+02,	7.28202E+02,	-3.00999E+03,	0.00000E+00,	0,	0
  2.54525E-01,	1.00000E+01,	-3.55251E-03,	1.87835E+02,	8.88728E+02,	-3.70182E+03,	0.00000E+00,	0,	0
  2.01613E-01,	1.00000E+01,	-3.55251E-03,	1.98703E+02,	1.10512E+03,	-4.55669E+03,	0.00000E+00,	0,	0
  1.59574E-01,	1.00000E+01,	-3.55251E-03,	2.12190E+02,	1.40603E+03,	-5.60747E+03,	0.00000E+00,	0,	0
  1.26689E-01,	1.00000E+01,	-3.55251E-03,	2.29129E+02,	1.81934E+03,	-6.86728E+03,	0.00000E+00,	0,	0
  1.00446E-01,	1.00000E+01,	-3.55251E-03,	2.49987E+02,	2.39918E+03,	-8.39900E+03,	0.00000E+00,	0,	0