Z60W Data File: Version 1.1
CorrTest for Windows: SN CS310H1805157  V5.2.1111.9  2.5H6.220118
Sweep Frequency: Control Voltage
  Date:4-28-2026   Time:15:18:14
  Begin Information:            Cell Information
      Surface Area:           1
      Density:                7.8
      Weight:                 28
  End Information:              Cell Information
  Freq (Hz)     Ampl(mV)       Bias(V)      Time(Sec)       Z'(Ohm.cm^2)    Z''(Ohm.cm^2)        GD       Err      Range
End Comments
  3.07200E+05,	1.00000E+01,	-2.34493E-03,	2.59571E-02,	1.00899E+01,	8.98676E+00,	0.00000E+00,	0,	0
  2.76480E+05,	1.00000E+01,	-2.34493E-03,	1.62031E+00,	1.03253E+01,	7.68510E+00,	0.00000E+00,	0,	0
  1.97486E+05,	1.00000E+01,	-2.34493E-03,	2.51974E+00,	1.07478E+01,	5.50052E+00,	0.00000E+00,	0,	0
  1.53600E+05,	1.00000E+01,	-2.34493E-03,	3.43336E+00,	1.08935E+01,	4.21296E+00,	0.00000E+00,	0,	0
  1.25673E+05,	1.00000E+01,	-2.34493E-03,	4.37459E+00,	1.09941E+01,	3.38677E+00,	0.00000E+00,	0,	0
  9.87429E+04,	1.00000E+01,	-2.34493E-03,	5.30557E+00,	1.10446E+01,	2.58803E+00,	0.00000E+00,	0,	0
  7.68000E+04,	1.00000E+01,	-2.34493E-03,	6.20610E+00,	1.11273E+01,	1.91420E+00,	0.00000E+00,	0,	0
  6.01043E+04,	1.00000E+01,	-2.34493E-03,	8.35719E+00,	1.11493E+01,	1.36195E+00,	0.00000E+00,	0,	0
  4.93714E+04,	1.00000E+01,	-2.34493E-03,	9.93964E+00,	1.11848E+01,	1.01107E+00,	0.00000E+00,	0,	0
  3.84000E+04,	1.00000E+01,	-2.34493E-03,	1.09125E+01,	1.12146E+01,	6.28039E-01,	0.00000E+00,	0,	0
  3.00522E+04,	1.00000E+01,	-2.34493E-03,	1.17796E+01,	1.12415E+01,	2.86608E-01,	0.00000E+00,	0,	0
  2.38345E+04,	1.00000E+01,	-2.34493E-03,	1.26805E+01,	1.12794E+01,	6.22274E-03,	0.00000E+00,	0,	0
  1.86811E+04,	1.00000E+01,	-2.34493E-03,	1.35209E+01,	1.13322E+01,	-2.95167E-01,	0.00000E+00,	0,	0
  1.47064E+04,	1.00000E+01,	-2.34493E-03,	1.44691E+01,	1.13721E+01,	-5.78825E-01,	0.00000E+00,	0,	0
  1.15200E+04,	1.00000E+01,	-2.34493E-03,	1.54217E+01,	1.14330E+01,	-8.89725E-01,	0.00000E+00,	0,	0
  9.60000E+03,	1.00000E+01,	-2.34493E-03,	1.69868E+01,	1.15002E+01,	-1.15622E+00,	0.00000E+00,	0,	0
  7.51304E+03,	1.00000E+01,	-2.34493E-03,	1.78509E+01,	1.15947E+01,	-1.52252E+00,	0.00000E+00,	0,	0
  5.76000E+03,	1.00000E+01,	-2.34493E-03,	1.87537E+01,	1.17179E+01,	-1.99035E+00,	0.00000E+00,	0,	0
  4.54737E+03,	1.00000E+01,	-2.34493E-03,	1.96280E+01,	1.18997E+01,	-2.47451E+00,	0.00000E+00,	0,	0
  3.60000E+03,	1.00000E+01,	-2.34493E-03,	2.06132E+01,	1.20764E+01,	-3.04803E+00,	0.00000E+00,	0,	0
  2.88000E+03,	1.00000E+01,	-2.34493E-03,	2.15005E+01,	1.22861E+01,	-3.68091E+00,	0.00000E+00,	0,	0
  2.27368E+03,	1.00000E+01,	-2.34493E-03,	2.38464E+01,	1.25843E+01,	-4.47453E+00,	0.00000E+00,	0,	0
  1.78144E+03,	1.00000E+01,	-2.34493E-03,	2.46469E+01,	1.29335E+01,	-5.43952E+00,	0.00000E+00,	0,	0
  1.41639E+03,	1.00000E+01,	-2.34493E-03,	2.55918E+01,	1.33280E+01,	-6.53326E+00,	0.00000E+00,	0,	0
  1.12208E+03,	1.00000E+01,	-2.34493E-03,	2.66222E+01,	1.37653E+01,	-7.81797E+00,	0.00000E+00,	0,	0
  9.00000E+02,	1.00000E+01,	-2.34493E-03,	3.16106E+01,	1.43159E+01,	-9.34385E+00,	0.00000E+00,	0,	0
  7.20000E+02,	1.00000E+01,	-2.34493E-03,	3.29770E+01,	1.48867E+01,	-1.11330E+01,	0.00000E+00,	0,	0
  5.68421E+02,	1.00000E+01,	-2.34493E-03,	3.43790E+01,	1.55770E+01,	-1.34228E+01,	0.00000E+00,	0,	0
  4.40816E+02,	1.00000E+01,	-2.34493E-03,	3.58183E+01,	1.64369E+01,	-1.64492E+01,	0.00000E+00,	0,	0
  3.54098E+02,	1.00000E+01,	-2.34493E-03,	3.81963E+01,	1.72943E+01,	-1.96574E+01,	0.00000E+00,	0,	0
  2.76923E+02,	1.00000E+01,	-2.34493E-03,	4.08376E+01,	1.84064E+01,	-2.40388E+01,	0.00000E+00,	0,	0
  2.20408E+02,	1.00000E+01,	-2.34493E-03,	4.37933E+01,	1.96407E+01,	-2.90814E+01,	0.00000E+00,	0,	0
  1.74194E+02,	1.00000E+01,	-2.34493E-03,	4.70567E+01,	2.11540E+01,	-3.54539E+01,	0.00000E+00,	0,	0
  1.37580E+02,	1.00000E+01,	-2.34493E-03,	5.07278E+01,	2.30101E+01,	-4.33373E+01,	0.00000E+00,	0,	0
  1.09091E+02,	1.00000E+01,	-2.34493E-03,	5.47944E+01,	2.52570E+01,	-5.28810E+01,	0.00000E+00,	0,	0
  8.70968E+01,	1.00000E+01,	-2.34493E-03,	6.05332E+01,	2.79484E+01,	-6.43165E+01,	0.00000E+00,	0,	0
  6.83544E+01,	1.00000E+01,	-2.34493E-03,	6.56015E+01,	3.16739E+01,	-7.97512E+01,	0.00000E+00,	0,	0
  5.45455E+01,	1.00000E+01,	-2.34493E-03,	7.10636E+01,	3.63061E+01,	-9.53768E+01,	0.00000E+00,	0,	0
  4.28571E+01,	1.00000E+01,	-2.34493E-03,	7.45835E+01,	4.24392E+01,	-1.17173E+02,	0.00000E+00,	0,	0
  3.39623E+01,	1.00000E+01,	-2.34493E-03,	7.83520E+01,	4.91224E+01,	-1.42586E+02,	0.00000E+00,	0,	0
  2.68657E+01,	1.00000E+01,	-2.34493E-03,	8.21872E+01,	5.93386E+01,	-1.74218E+02,	0.00000E+00,	0,	0
  2.13439E+01,	1.00000E+01,	-2.34493E-03,	8.59903E+01,	7.21059E+01,	-2.11180E+02,	0.00000E+00,	0,	0
  1.73077E+01,	1.00000E+01,	-2.34493E-03,	9.26572E+01,	8.69168E+01,	-2.51339E+02,	0.00000E+00,	0,	0
  1.36364E+01,	1.00000E+01,	-2.34493E-03,	9.76860E+01,	1.07798E+02,	-3.04537E+02,	0.00000E+00,	0,	0
  1.07143E+01,	1.00000E+01,	-2.34493E-03,	1.00638E+02,	1.34606E+02,	-3.68115E+02,	0.00000E+00,	0,	0
  8.49057E+00,	1.00000E+01,	-2.34493E-03,	1.04837E+02,	1.66905E+02,	-4.40354E+02,	0.00000E+00,	0,	0
  6.71642E+00,	1.00000E+01,	-2.34493E-03,	1.07353E+02,	2.06740E+02,	-5.24906E+02,	0.00000E+00,	0,	0
  5.29412E+00,	1.00000E+01,	-2.34493E-03,	1.10269E+02,	2.55453E+02,	-6.24335E+02,	0.00000E+00,	0,	0
  4.16667E+00,	1.00000E+01,	-2.34493E-03,	1.13753E+02,	3.13078E+02,	-7.41218E+02,	0.00000E+00,	0,	0
  3.30882E+00,	1.00000E+01,	-2.34493E-03,	1.18020E+02,	3.77348E+02,	-8.72630E+02,	0.00000E+00,	0,	0
  2.61628E+00,	1.00000E+01,	-2.34493E-03,	1.21996E+02,	4.51984E+02,	-1.02888E+03,	0.00000E+00,	0,	0
  2.07373E+00,	1.00000E+01,	-2.34493E-03,	1.26783E+02,	5.35137E+02,	-1.21278E+03,	0.00000E+00,	0,	0
  1.64234E+00,	1.00000E+01,	-2.34493E-03,	1.32573E+02,	6.29403E+02,	-1.43313E+03,	0.00000E+00,	0,	0
  1.30058E+00,	1.00000E+01,	-2.34493E-03,	1.36738E+02,	7.36693E+02,	-1.69659E+03,	0.00000E+00,	0,	0
  1.03211E+00,	1.00000E+01,	-2.34493E-03,	1.41147E+02,	8.60503E+02,	-2.01460E+03,	0.00000E+00,	0,	0
  8.15217E-01,	1.00000E+01,	-2.34493E-03,	1.48117E+02,	1.00053E+03,	-2.39968E+03,	0.00000E+00,	0,	0
  6.46552E-01,	1.00000E+01,	-2.34493E-03,	1.57246E+02,	1.16301E+03,	-2.86492E+03,	0.00000E+00,	0,	0
  5.11364E-01,	1.00000E+01,	-2.34493E-03,	1.62321E+02,	1.31530E+03,	-3.44413E+03,	0.00000E+00,	0,	0
  4.07609E-01,	1.00000E+01,	-2.34493E-03,	1.68411E+02,	1.53203E+03,	-4.10578E+03,	0.00000E+00,	0,	0
  3.21429E-01,	1.00000E+01,	-2.34493E-03,	1.75538E+02,	1.80066E+03,	-5.01733E+03,	0.00000E+00,	0,	0
  2.54525E-01,	1.00000E+01,	-2.34493E-03,	1.84352E+02,	2.09680E+03,	-6.00426E+03,	0.00000E+00,	0,	0
  2.01613E-01,	1.00000E+01,	-2.34493E-03,	1.95191E+02,	2.41230E+03,	-7.22112E+03,	0.00000E+00,	0,	0
  1.59574E-01,	1.00000E+01,	-2.34493E-03,	2.08690E+02,	2.75732E+03,	-8.70880E+03,	0.00000E+00,	0,	0
  1.26689E-01,	1.00000E+01,	-2.34493E-03,	2.25599E+02,	3.12193E+03,	-1.05245E+04,	0.00000E+00,	0,	0
  1.00446E-01,	1.00000E+01,	-2.34493E-03,	2.46463E+02,	3.51649E+03,	-1.28077E+04,	0.00000E+00,	0,	0