Z60W Data File: Version 1.1
CorrTest for Windows: SN CS310H1805157  V5.2.1111.9  2.5H6.220118
Sweep Frequency: Control Voltage
  Date:4-28-2026   Time:18:18:24
  Begin Information:            Cell Information
      Surface Area:           1
      Density:                7.8
      Weight:                 28
  End Information:              Cell Information
  Freq (Hz)     Ampl(mV)       Bias(V)      Time(Sec)       Z'(Ohm.cm^2)    Z''(Ohm.cm^2)        GD       Err      Range
End Comments
  1.02857E+03,	1.00000E+01,	-1.71568E-02,	2.16060E-02,	6.46051E+03,	-2.89619E+02,	0.00000E+00,	0,	0
  8.00000E+02,	1.00000E+01,	-1.71568E-02,	4.26096E+00,	6.62062E+03,	-2.72762E+02,	0.00000E+00,	0,	0
  6.35294E+02,	1.00000E+01,	-1.71568E-02,	5.63771E+00,	6.64261E+03,	-2.38193E+02,	0.00000E+00,	0,	0
  5.02326E+02,	1.00000E+01,	-1.71568E-02,	7.02417E+00,	6.65735E+03,	-2.15133E+02,	0.00000E+00,	0,	0
  3.92727E+02,	1.00000E+01,	-1.71568E-02,	8.40264E+00,	6.67919E+03,	-2.02106E+02,	0.00000E+00,	0,	0
  3.08571E+02,	1.00000E+01,	-1.71568E-02,	1.09075E+01,	6.69648E+03,	-1.94801E+02,	0.00000E+00,	0,	0
  2.42697E+02,	1.00000E+01,	-1.71568E-02,	1.37106E+01,	6.72357E+03,	-2.01426E+02,	0.00000E+00,	0,	0
  1.92857E+02,	1.00000E+01,	-1.71568E-02,	1.69252E+01,	6.75794E+03,	-2.22171E+02,	0.00000E+00,	0,	0
  1.52113E+02,	1.00000E+01,	-1.71568E-02,	2.03909E+01,	6.79508E+03,	-2.48683E+02,	0.00000E+00,	0,	0
  1.20000E+02,	1.00000E+01,	-1.71568E-02,	2.42917E+01,	6.83952E+03,	-2.84777E+02,	0.00000E+00,	0,	0
  9.47368E+01,	1.00000E+01,	-1.71568E-02,	2.98333E+01,	6.90194E+03,	-3.36301E+02,	0.00000E+00,	0,	0
  7.50000E+01,	1.00000E+01,	-1.71568E-02,	3.46949E+01,	6.98284E+03,	-4.03339E+02,	0.00000E+00,	0,	0
  5.93407E+01,	1.00000E+01,	-1.71568E-02,	3.99640E+01,	6.98558E+03,	-4.36701E+02,	0.00000E+00,	0,	0
  4.65517E+01,	1.00000E+01,	-1.71568E-02,	4.57365E+01,	7.05066E+03,	-5.21491E+02,	0.00000E+00,	0,	0
  3.67347E+01,	1.00000E+01,	-1.71568E-02,	5.25288E+01,	8.13351E+03,	-7.64409E+02,	0.00000E+00,	0,	0
  2.90323E+01,	1.00000E+01,	-1.71568E-02,	5.63568E+01,	8.35251E+03,	-9.13303E+02,	0.00000E+00,	0,	0
  2.28814E+01,	1.00000E+01,	-1.71568E-02,	6.02092E+01,	8.53363E+03,	-1.10479E+03,	0.00000E+00,	0,	0
  1.87500E+01,	1.00000E+01,	-1.71568E-02,	6.38905E+01,	8.67622E+03,	-1.29478E+03,	0.00000E+00,	0,	0
  1.45161E+01,	1.00000E+01,	-1.71568E-02,	6.92362E+01,	8.87152E+03,	-1.59165E+03,	0.00000E+00,	0,	0
  1.15385E+01,	1.00000E+01,	-1.71568E-02,	7.29406E+01,	9.04904E+03,	-1.90914E+03,	0.00000E+00,	0,	0
  9.00000E+00,	1.00000E+01,	-1.71568E-02,	7.70782E+01,	7.83893E+03,	-1.96330E+03,	0.00000E+00,	0,	0
  7.03125E+00,	1.00000E+01,	-1.71568E-02,	7.96230E+01,	8.02220E+03,	-2.38557E+03,	0.00000E+00,	0,	0
  5.55556E+00,	1.00000E+01,	-1.71568E-02,	8.24760E+01,	8.23997E+03,	-2.85526E+03,	0.00000E+00,	0,	0
  4.41176E+00,	1.00000E+01,	-1.71568E-02,	8.58110E+01,	8.49938E+03,	-3.40635E+03,	0.00000E+00,	0,	0
  3.46154E+00,	1.00000E+01,	-1.71568E-02,	8.98161E+01,	8.82890E+03,	-4.08679E+03,	0.00000E+00,	0,	0
  2.74390E+00,	1.00000E+01,	-1.71568E-02,	9.36468E+01,	9.19906E+03,	-4.86191E+03,	0.00000E+00,	0,	0
  2.16346E+00,	1.00000E+01,	-1.71568E-02,	9.82706E+01,	9.64326E+03,	-5.80576E+03,	0.00000E+00,	0,	0
  1.70455E+00,	1.00000E+01,	-1.71568E-02,	1.03919E+02,	1.01696E+04,	-6.93006E+03,	0.00000E+00,	0,	0
  1.34731E+00,	1.00000E+01,	-1.71568E-02,	1.08091E+02,	1.07407E+04,	-8.24613E+03,	0.00000E+00,	0,	0
  1.06132E+00,	1.00000E+01,	-1.71568E-02,	1.12398E+02,	1.14679E+04,	-9.83480E+03,	0.00000E+00,	0,	0
  8.39552E-01,	1.00000E+01,	-1.71568E-02,	1.19248E+02,	1.21934E+04,	-1.17293E+04,	0.00000E+00,	0,	0
  6.61765E-01,	1.00000E+01,	-1.71568E-02,	1.23825E+02,	1.30687E+04,	-1.40110E+04,	0.00000E+00,	0,	0
  5.23256E-01,	1.00000E+01,	-1.71568E-02,	1.28783E+02,	1.38366E+04,	-1.72707E+04,	0.00000E+00,	0,	0
  4.13603E-01,	1.00000E+01,	-1.71568E-02,	1.34754E+02,	1.50198E+04,	-2.06531E+04,	0.00000E+00,	0,	0
  3.27035E-01,	1.00000E+01,	-1.71568E-02,	1.41776E+02,	1.68326E+04,	-2.54506E+04,	0.00000E+00,	0,	0
  2.58028E-01,	1.00000E+01,	-1.71568E-02,	1.50676E+02,	1.84233E+04,	-3.05396E+04,	0.00000E+00,	0,	0
  2.03804E-01,	1.00000E+01,	-1.71568E-02,	1.61397E+02,	2.03392E+04,	-3.70715E+04,	0.00000E+00,	0,	0
  1.60944E-01,	1.00000E+01,	-1.71568E-02,	1.74757E+02,	2.26129E+04,	-4.48135E+04,	0.00000E+00,	0,	0
  1.26689E-01,	1.00000E+01,	-1.71568E-02,	1.91488E+02,	2.54503E+04,	-5.46507E+04,	0.00000E+00,	0,	0
  1.00446E-01,	1.00000E+01,	-1.71568E-02,	2.12346E+02,	2.88864E+04,	-6.64059E+04,	0.00000E+00,	0,	0