Z60W Data File: Version 1.1
CorrTest for Windows: SN CS310H1805157  V5.2.1111.9  2.5H6.220118
Sweep Frequency: Control Voltage
  Date:4-28-2026   Time:16:17:16
  Begin Information:            Cell Information
      Surface Area:           1
      Density:                7.8
      Weight:                 28
  End Information:              Cell Information
  Freq (Hz)     Ampl(mV)       Bias(V)      Time(Sec)       Z'(Ohm.cm^2)    Z''(Ohm.cm^2)        GD       Err      Range
End Comments
  3.07200E+05,	1.00000E+01,	-5.69865E-03,	4.05682E-02,	3.86397E+01,	2.20027E+01,	0.00000E+00,	0,	0
  2.76480E+05,	1.00000E+01,	-5.69865E-03,	1.63785E+00,	3.81628E+01,	1.94782E+01,	0.00000E+00,	0,	0
  1.97486E+05,	1.00000E+01,	-5.69865E-03,	2.53985E+00,	3.74983E+01,	1.38681E+01,	0.00000E+00,	0,	0
  1.53600E+05,	1.00000E+01,	-5.69865E-03,	3.43350E+00,	3.72039E+01,	1.07621E+01,	0.00000E+00,	0,	0
  1.25673E+05,	1.00000E+01,	-5.69865E-03,	4.34029E+00,	3.70481E+01,	8.69758E+00,	0.00000E+00,	0,	0
  9.87429E+04,	1.00000E+01,	-5.69865E-03,	5.25741E+00,	3.69332E+01,	6.72131E+00,	0.00000E+00,	0,	0
  7.68000E+04,	1.00000E+01,	-5.69865E-03,	6.17892E+00,	3.69242E+01,	5.10069E+00,	0.00000E+00,	0,	0
  6.01043E+04,	1.00000E+01,	-5.69865E-03,	8.28064E+00,	3.69905E+01,	3.81288E+00,	0.00000E+00,	0,	0
  4.93714E+04,	1.00000E+01,	-5.69865E-03,	9.86126E+00,	3.70448E+01,	2.97530E+00,	0.00000E+00,	0,	0
  3.84000E+04,	1.00000E+01,	-5.69865E-03,	1.07663E+01,	3.71412E+01,	2.14262E+00,	0.00000E+00,	0,	0
  3.00522E+04,	1.00000E+01,	-5.69865E-03,	1.16283E+01,	3.71333E+01,	1.46626E+00,	0.00000E+00,	0,	0
  2.38345E+04,	1.00000E+01,	-5.69865E-03,	1.25003E+01,	3.71542E+01,	8.15182E-01,	0.00000E+00,	0,	0
  1.86811E+04,	1.00000E+01,	-5.69865E-03,	1.33310E+01,	3.72874E+01,	2.41669E-01,	0.00000E+00,	0,	0
  1.47064E+04,	1.00000E+01,	-5.69865E-03,	1.42900E+01,	3.73289E+01,	-2.50952E-01,	0.00000E+00,	0,	0
  1.15200E+04,	1.00000E+01,	-5.69865E-03,	1.52793E+01,	3.74102E+01,	-7.84667E-01,	0.00000E+00,	0,	0
  9.60000E+03,	1.00000E+01,	-5.69865E-03,	1.68448E+01,	3.75502E+01,	-1.20921E+00,	0.00000E+00,	0,	0
  7.51304E+03,	1.00000E+01,	-5.69865E-03,	1.77258E+01,	3.76012E+01,	-1.85296E+00,	0.00000E+00,	0,	0
  5.76000E+03,	1.00000E+01,	-5.69865E-03,	1.86282E+01,	3.77752E+01,	-2.53129E+00,	0.00000E+00,	0,	0
  4.54737E+03,	1.00000E+01,	-5.69865E-03,	1.94880E+01,	3.80213E+01,	-3.19130E+00,	0.00000E+00,	0,	0
  3.60000E+03,	1.00000E+01,	-5.69865E-03,	2.04824E+01,	3.82498E+01,	-3.98420E+00,	0.00000E+00,	0,	0
  2.88000E+03,	1.00000E+01,	-5.69865E-03,	2.13855E+01,	3.85650E+01,	-4.93383E+00,	0.00000E+00,	0,	0
  2.27368E+03,	1.00000E+01,	-5.69865E-03,	2.36723E+01,	3.88678E+01,	-6.15759E+00,	0.00000E+00,	0,	0
  1.78144E+03,	1.00000E+01,	-5.69865E-03,	2.44675E+01,	3.93654E+01,	-7.51366E+00,	0.00000E+00,	0,	0
  1.41639E+03,	1.00000E+01,	-5.69865E-03,	2.53810E+01,	3.98178E+01,	-9.16137E+00,	0.00000E+00,	0,	0
  1.12208E+03,	1.00000E+01,	-5.69865E-03,	2.64199E+01,	4.05694E+01,	-1.10428E+01,	0.00000E+00,	0,	0
  9.00000E+02,	1.00000E+01,	-5.69865E-03,	3.14100E+01,	4.15332E+01,	-1.32241E+01,	0.00000E+00,	0,	0
  7.20000E+02,	1.00000E+01,	-5.69865E-03,	3.27653E+01,	4.24727E+01,	-1.58001E+01,	0.00000E+00,	0,	0
  5.68421E+02,	1.00000E+01,	-5.69865E-03,	3.41302E+01,	4.36748E+01,	-1.90229E+01,	0.00000E+00,	0,	0
  4.40816E+02,	1.00000E+01,	-5.69865E-03,	3.55907E+01,	4.52120E+01,	-2.31790E+01,	0.00000E+00,	0,	0
  3.54098E+02,	1.00000E+01,	-5.69865E-03,	3.79193E+01,	4.67644E+01,	-2.74690E+01,	0.00000E+00,	0,	0
  2.76923E+02,	1.00000E+01,	-5.69865E-03,	4.06005E+01,	4.88117E+01,	-3.32209E+01,	0.00000E+00,	0,	0
  2.20408E+02,	1.00000E+01,	-5.69865E-03,	4.35251E+01,	5.09981E+01,	-3.96770E+01,	0.00000E+00,	0,	0
  1.74194E+02,	1.00000E+01,	-5.69865E-03,	4.67831E+01,	5.35712E+01,	-4.77126E+01,	0.00000E+00,	0,	0
  1.37580E+02,	1.00000E+01,	-5.69865E-03,	5.04344E+01,	5.65136E+01,	-5.75297E+01,	0.00000E+00,	0,	0
  1.09091E+02,	1.00000E+01,	-5.69865E-03,	5.45162E+01,	5.98443E+01,	-6.93418E+01,	0.00000E+00,	0,	0
  8.70968E+01,	1.00000E+01,	-5.69865E-03,	6.26574E+01,	6.38056E+01,	-8.36719E+01,	0.00000E+00,	0,	0
  6.83544E+01,	1.00000E+01,	-5.69865E-03,	6.76926E+01,	6.87081E+01,	-1.02904E+02,	0.00000E+00,	0,	0
  5.45455E+01,	1.00000E+01,	-5.69865E-03,	7.31430E+01,	7.38463E+01,	-1.22170E+02,	0.00000E+00,	0,	0
  4.28571E+01,	1.00000E+01,	-5.69865E-03,	7.66630E+01,	8.06049E+01,	-1.49585E+02,	0.00000E+00,	0,	0
  3.39623E+01,	1.00000E+01,	-5.69865E-03,	8.03929E+01,	8.73416E+01,	-1.82137E+02,	0.00000E+00,	0,	0
  2.68657E+01,	1.00000E+01,	-5.69865E-03,	8.42501E+01,	9.78497E+01,	-2.23131E+02,	0.00000E+00,	0,	0
  2.13439E+01,	1.00000E+01,	-5.69865E-03,	8.80603E+01,	1.10512E+02,	-2.71930E+02,	0.00000E+00,	0,	0
  1.73077E+01,	1.00000E+01,	-5.69865E-03,	9.17386E+01,	1.24714E+02,	-3.25557E+02,	0.00000E+00,	0,	0
  1.36364E+01,	1.00000E+01,	-5.69865E-03,	9.67702E+01,	1.45178E+02,	-3.99122E+02,	0.00000E+00,	0,	0
  1.07143E+01,	1.00000E+01,	-5.69865E-03,	9.96802E+01,	1.71682E+02,	-4.89854E+02,	0.00000E+00,	0,	0
  8.49057E+00,	1.00000E+01,	-5.69865E-03,	1.03889E+02,	2.04637E+02,	-5.96389E+02,	0.00000E+00,	0,	0
  6.71642E+00,	1.00000E+01,	-5.69865E-03,	1.06400E+02,	2.47309E+02,	-7.25280E+02,	0.00000E+00,	0,	0
  5.29412E+00,	1.00000E+01,	-5.69865E-03,	1.09321E+02,	3.03478E+02,	-8.82166E+02,	0.00000E+00,	0,	0
  4.16667E+00,	1.00000E+01,	-5.69865E-03,	1.12794E+02,	3.75891E+02,	-1.07135E+03,	0.00000E+00,	0,	0
  3.30882E+00,	1.00000E+01,	-5.69865E-03,	1.19354E+02,	4.63604E+02,	-1.28555E+03,	0.00000E+00,	0,	0
  2.61628E+00,	1.00000E+01,	-5.69865E-03,	1.23309E+02,	5.76431E+02,	-1.54271E+03,	0.00000E+00,	0,	0
  2.07373E+00,	1.00000E+01,	-5.69865E-03,	1.28072E+02,	7.13689E+02,	-1.83964E+03,	0.00000E+00,	0,	0
  1.64234E+00,	1.00000E+01,	-5.69865E-03,	1.33865E+02,	8.80088E+02,	-2.18654E+03,	0.00000E+00,	0,	0
  1.30058E+00,	1.00000E+01,	-5.69865E-03,	1.38040E+02,	1.07893E+03,	-2.58696E+03,	0.00000E+00,	0,	0
  1.03211E+00,	1.00000E+01,	-5.69865E-03,	1.42442E+02,	1.31241E+03,	-3.05381E+03,	0.00000E+00,	0,	0
  8.15217E-01,	1.00000E+01,	-5.69865E-03,	1.49382E+02,	1.57572E+03,	-3.59918E+03,	0.00000E+00,	0,	0
  6.46552E-01,	1.00000E+01,	-5.69865E-03,	1.54215E+02,	1.87774E+03,	-4.23637E+03,	0.00000E+00,	0,	0
  5.11364E-01,	1.00000E+01,	-5.69865E-03,	1.59216E+02,	2.15404E+03,	-5.04653E+03,	0.00000E+00,	0,	0
  4.07609E-01,	1.00000E+01,	-5.69865E-03,	1.65276E+02,	2.52828E+03,	-5.94806E+03,	0.00000E+00,	0,	0
  3.21429E-01,	1.00000E+01,	-5.69865E-03,	1.72409E+02,	3.00649E+03,	-7.20353E+03,	0.00000E+00,	0,	0
  2.54525E-01,	1.00000E+01,	-5.69865E-03,	1.81202E+02,	3.53163E+03,	-8.54271E+03,	0.00000E+00,	0,	0
  2.01613E-01,	1.00000E+01,	-5.69865E-03,	1.92041E+02,	4.13057E+03,	-1.01841E+04,	0.00000E+00,	0,	0
  1.59574E-01,	1.00000E+01,	-5.69865E-03,	2.05500E+02,	4.83153E+03,	-1.21631E+04,	0.00000E+00,	0,	0
  1.26689E-01,	1.00000E+01,	-5.69865E-03,	2.39386E+02,	5.64076E+03,	-1.42845E+04,	0.00000E+00,	0,	0
  1.00446E-01,	1.00000E+01,	-5.69865E-03,	2.60306E+02,	6.53890E+03,	-1.77087E+04,	0.00000E+00,	0,	0