Z60W Data File: Version 1.1
CorrTest for Windows: SN CS310H1805157  V5.2.1111.9  2.5H6.220118
Sweep Frequency: Control Voltage
  Date:4-28-2026   Time:17:12:00
  Begin Information:            Cell Information
      Surface Area:           1
      Density:                7.8
      Weight:                 28
  End Information:              Cell Information
  Freq (Hz)     Ampl(mV)       Bias(V)      Time(Sec)       Z'(Ohm.cm^2)    Z''(Ohm.cm^2)        GD       Err      Range
End Comments
  3.07200E+05,	1.00000E+01,	-1.05501E-02,	5.30533E-02,	2.09326E+02,	5.01322E+01,	0.00000E+00,	0,	0
  2.76480E+05,	1.00000E+01,	-1.05501E-02,	1.66331E+00,	2.03130E+02,	4.45392E+01,	0.00000E+00,	0,	0
  1.97486E+05,	1.00000E+01,	-1.05501E-02,	2.55952E+00,	1.96418E+02,	3.33980E+01,	0.00000E+00,	0,	0
  1.53600E+05,	1.00000E+01,	-1.05501E-02,	3.44831E+00,	1.92499E+02,	2.49306E+01,	0.00000E+00,	0,	0
  1.25673E+05,	1.00000E+01,	-1.05501E-02,	4.37463E+00,	1.91565E+02,	2.11043E+01,	0.00000E+00,	0,	0
  9.87429E+04,	1.00000E+01,	-1.05501E-02,	5.27863E+00,	1.90306E+02,	1.52949E+01,	0.00000E+00,	0,	0
  7.68000E+04,	1.00000E+01,	-1.05501E-02,	6.18483E+00,	1.89360E+02,	1.12064E+01,	0.00000E+00,	0,	0
  6.01043E+04,	1.00000E+01,	-1.05501E-02,	7.16999E+00,	1.89862E+02,	8.52956E+00,	0.00000E+00,	0,	0
  4.93714E+04,	1.00000E+01,	-1.05501E-02,	8.74305E+00,	1.90348E+02,	6.46085E+00,	0.00000E+00,	0,	0
  3.84000E+04,	1.00000E+01,	-1.05501E-02,	9.63828E+00,	1.89626E+02,	3.73499E+00,	0.00000E+00,	0,	0
  3.00522E+04,	1.00000E+01,	-1.05501E-02,	1.04805E+01,	1.90054E+02,	4.08594E-01,	0.00000E+00,	0,	0
  2.38345E+04,	1.00000E+01,	-1.05501E-02,	1.13746E+01,	1.90428E+02,	1.96091E+00,	0.00000E+00,	0,	0
  1.86811E+04,	1.00000E+01,	-1.05501E-02,	1.22131E+01,	1.90104E+02,	2.10609E+00,	0.00000E+00,	0,	0
  1.47064E+04,	1.00000E+01,	-1.05501E-02,	1.31747E+01,	1.91062E+02,	-7.20219E-01,	0.00000E+00,	0,	0
  1.15200E+04,	1.00000E+01,	-1.05501E-02,	1.41172E+01,	1.90817E+02,	-6.92282E-01,	0.00000E+00,	0,	0
  9.60000E+03,	1.00000E+01,	-1.05501E-02,	1.56926E+01,	1.92116E+02,	-9.75661E-01,	0.00000E+00,	0,	0
  7.51304E+03,	1.00000E+01,	-1.05501E-02,	1.65550E+01,	1.92899E+02,	-2.10541E+00,	0.00000E+00,	0,	0
  5.76000E+03,	1.00000E+01,	-1.05501E-02,	1.74551E+01,	1.93831E+02,	-3.28315E+00,	0.00000E+00,	0,	0
  4.54737E+03,	1.00000E+01,	-1.05501E-02,	1.83177E+01,	1.92846E+02,	-4.71180E+00,	0.00000E+00,	0,	0
  3.60000E+03,	1.00000E+01,	-1.05501E-02,	1.93092E+01,	1.93220E+02,	-5.69957E+00,	0.00000E+00,	0,	0
  2.88000E+03,	1.00000E+01,	-1.05501E-02,	2.02131E+01,	1.93118E+02,	-6.51951E+00,	0.00000E+00,	0,	0
  2.27368E+03,	1.00000E+01,	-1.05501E-02,	2.25158E+01,	1.94439E+02,	-8.75773E+00,	0.00000E+00,	0,	0
  1.78144E+03,	1.00000E+01,	-1.05501E-02,	2.33070E+01,	1.95627E+02,	-1.10062E+01,	0.00000E+00,	0,	0
  1.41639E+03,	1.00000E+01,	-1.05501E-02,	2.42244E+01,	1.97598E+02,	-1.36311E+01,	0.00000E+00,	0,	0
  1.12208E+03,	1.00000E+01,	-1.05501E-02,	2.52593E+01,	1.96933E+02,	-1.64200E+01,	0.00000E+00,	0,	0
  9.00000E+02,	1.00000E+01,	-1.05501E-02,	3.02500E+01,	1.99195E+02,	-1.96296E+01,	0.00000E+00,	0,	0
  7.20000E+02,	1.00000E+01,	-1.05501E-02,	3.16493E+01,	2.00528E+02,	-2.36329E+01,	0.00000E+00,	0,	0
  5.68421E+02,	1.00000E+01,	-1.05501E-02,	3.30256E+01,	2.02358E+02,	-2.88687E+01,	0.00000E+00,	0,	0
  4.40816E+02,	1.00000E+01,	-1.05501E-02,	3.44650E+01,	2.04703E+02,	-3.56258E+01,	0.00000E+00,	0,	0
  3.54098E+02,	1.00000E+01,	-1.05501E-02,	3.68112E+01,	2.07256E+02,	-4.27050E+01,	0.00000E+00,	0,	0
  2.76923E+02,	1.00000E+01,	-1.05501E-02,	3.94577E+01,	2.10892E+02,	-5.21360E+01,	0.00000E+00,	0,	0
  2.20408E+02,	1.00000E+01,	-1.05501E-02,	4.23675E+01,	2.15012E+02,	-6.26577E+01,	0.00000E+00,	0,	0
  1.74194E+02,	1.00000E+01,	-1.05501E-02,	4.56448E+01,	2.20267E+02,	-7.55243E+01,	0.00000E+00,	0,	0
  1.37580E+02,	1.00000E+01,	-1.05501E-02,	4.93119E+01,	2.26539E+02,	-9.09475E+01,	0.00000E+00,	0,	0
  1.09091E+02,	1.00000E+01,	-1.05501E-02,	5.33848E+01,	2.33883E+02,	-1.09200E+02,	0.00000E+00,	0,	0
  8.70968E+01,	1.00000E+01,	-1.05501E-02,	5.91001E+01,	2.42761E+02,	-1.30230E+02,	0.00000E+00,	0,	0
  6.83544E+01,	1.00000E+01,	-1.05501E-02,	6.41309E+01,	2.54471E+02,	-1.58172E+02,	0.00000E+00,	0,	0
  5.45455E+01,	1.00000E+01,	-1.05501E-02,	6.96121E+01,	2.63864E+02,	-1.83634E+02,	0.00000E+00,	0,	0
  4.28571E+01,	1.00000E+01,	-1.05501E-02,	7.31361E+01,	2.77500E+02,	-2.20817E+02,	0.00000E+00,	0,	0
  3.39623E+01,	1.00000E+01,	-1.05501E-02,	7.68535E+01,	2.90295E+02,	-2.64838E+02,	0.00000E+00,	0,	0
  2.68657E+01,	1.00000E+01,	-1.05501E-02,	8.07008E+01,	3.09017E+02,	-3.18378E+02,	0.00000E+00,	0,	0
  2.13439E+01,	1.00000E+01,	-1.05501E-02,	8.45053E+01,	3.29262E+02,	-3.81674E+02,	0.00000E+00,	0,	0
  1.73077E+01,	1.00000E+01,	-1.05501E-02,	8.81720E+01,	3.49839E+02,	-4.51291E+02,	0.00000E+00,	0,	0
  1.36364E+01,	1.00000E+01,	-1.05501E-02,	9.31939E+01,	3.76926E+02,	-5.47319E+02,	0.00000E+00,	0,	0
  1.07143E+01,	1.00000E+01,	-1.05501E-02,	9.61018E+01,	4.08206E+02,	-6.67112E+02,	0.00000E+00,	0,	0
  8.49057E+00,	1.00000E+01,	-1.05501E-02,	1.00294E+02,	4.44856E+02,	-8.09561E+02,	0.00000E+00,	0,	0
  6.71642E+00,	1.00000E+01,	-1.05501E-02,	1.02817E+02,	4.89231E+02,	-9.85759E+02,	0.00000E+00,	0,	0
  5.29412E+00,	1.00000E+01,	-1.05501E-02,	1.05739E+02,	5.44944E+02,	-1.20541E+03,	0.00000E+00,	0,	0
  4.16667E+00,	1.00000E+01,	-1.05501E-02,	1.09241E+02,	6.14960E+02,	-1.47842E+03,	0.00000E+00,	0,	0
  3.30882E+00,	1.00000E+01,	-1.05501E-02,	1.15779E+02,	7.00122E+02,	-1.79855E+03,	0.00000E+00,	0,	0
  2.61628E+00,	1.00000E+01,	-1.05501E-02,	1.19759E+02,	8.10703E+02,	-2.19713E+03,	0.00000E+00,	0,	0
  2.07373E+00,	1.00000E+01,	-1.05501E-02,	1.24551E+02,	9.50165E+02,	-2.67720E+03,	0.00000E+00,	0,	0
  1.64234E+00,	1.00000E+01,	-1.05501E-02,	1.30332E+02,	1.12872E+03,	-3.26063E+03,	0.00000E+00,	0,	0
  1.30058E+00,	1.00000E+01,	-1.05501E-02,	1.34505E+02,	1.36025E+03,	-3.96221E+03,	0.00000E+00,	0,	0
  1.03211E+00,	1.00000E+01,	-1.05501E-02,	1.38913E+02,	1.65639E+03,	-4.80147E+03,	0.00000E+00,	0,	0
  8.15217E-01,	1.00000E+01,	-1.05501E-02,	1.45874E+02,	2.03432E+03,	-5.80808E+03,	0.00000E+00,	0,	0
  6.46552E-01,	1.00000E+01,	-1.05501E-02,	1.50717E+02,	2.51482E+03,	-6.99216E+03,	0.00000E+00,	0,	0
  5.11364E-01,	1.00000E+01,	-1.05501E-02,	1.55722E+02,	3.03474E+03,	-8.43350E+03,	0.00000E+00,	0,	0
  4.07609E-01,	1.00000E+01,	-1.05501E-02,	1.61784E+02,	3.75034E+03,	-1.00431E+04,	0.00000E+00,	0,	0
  3.21429E-01,	1.00000E+01,	-1.05501E-02,	1.68909E+02,	4.68647E+03,	-1.21564E+04,	0.00000E+00,	0,	0
  2.54525E-01,	1.00000E+01,	-1.05501E-02,	1.77669E+02,	5.79655E+03,	-1.44052E+04,	0.00000E+00,	0,	0
  2.01613E-01,	1.00000E+01,	-1.05501E-02,	1.88544E+02,	7.08502E+03,	-1.70636E+04,	0.00000E+00,	0,	0
  1.59574E-01,	1.00000E+01,	-1.05501E-02,	2.02010E+02,	8.59239E+03,	-2.01917E+04,	0.00000E+00,	0,	0
  1.26689E-01,	1.00000E+01,	-1.05501E-02,	2.35920E+02,	1.03316E+04,	-2.35223E+04,	0.00000E+00,	0,	0
  1.00446E-01,	1.00000E+01,	-1.05501E-02,	2.56805E+02,	1.22700E+04,	-2.87955E+04,	0.00000E+00,	0,	0