Z60W Data File: Version 1.1
CorrTest for Windows: SN CS310H1805157  V5.2.1111.9  2.5H6.220118
Sweep Frequency: Control Voltage
  Date:4-28-2026   Time:11:15:05
  Begin Information:            Cell Information
      Surface Area:           1
      Density:                7.8
      Weight:                 28
  End Information:              Cell Information
  Freq (Hz)     Ampl(mV)       Bias(V)      Time(Sec)       Z'(Ohm.cm^2)    Z''(Ohm.cm^2)        GD       Err      Range
End Comments
  3.07200E+05,	1.00000E+01,	-7.48660E-03,	2.78239E-02,	7.51786E-01,	4.04933E+00,	0.00000E+00,	0,	0
  2.76480E+05,	1.00000E+01,	-7.48660E-03,	1.62862E+00,	1.33955E+00,	3.31805E+00,	0.00000E+00,	0,	0
  1.97486E+05,	1.00000E+01,	-7.48660E-03,	2.53530E+00,	2.01286E+00,	2.35287E+00,	0.00000E+00,	0,	0
  1.53600E+05,	1.00000E+01,	-7.48660E-03,	3.43775E+00,	2.27538E+00,	1.80435E+00,	0.00000E+00,	0,	0
  1.25673E+05,	1.00000E+01,	-7.48660E-03,	4.33029E+00,	2.42765E+00,	1.43539E+00,	0.00000E+00,	0,	0
  9.87429E+04,	1.00000E+01,	-7.48660E-03,	5.22296E+00,	2.54818E+00,	1.07804E+00,	0.00000E+00,	0,	0
  7.68000E+04,	1.00000E+01,	-7.48660E-03,	6.14466E+00,	2.62524E+00,	7.79679E-01,	0.00000E+00,	0,	0
  6.01043E+04,	1.00000E+01,	-7.48660E-03,	9.38993E+00,	2.70134E+00,	4.85429E-01,	0.00000E+00,	0,	0
  4.93714E+04,	1.00000E+01,	-7.48660E-03,	1.09847E+01,	2.72526E+00,	3.26394E-01,	0.00000E+00,	0,	0
  3.84000E+04,	1.00000E+01,	-7.48660E-03,	1.18881E+01,	2.74836E+00,	1.49871E-01,	0.00000E+00,	0,	0
  3.00522E+04,	1.00000E+01,	-7.48660E-03,	1.27966E+01,	2.77224E+00,	-1.60545E-02,	0.00000E+00,	0,	0
  2.38345E+04,	1.00000E+01,	-7.48660E-03,	1.36575E+01,	2.79792E+00,	-1.63265E-01,	0.00000E+00,	0,	0
  1.86811E+04,	1.00000E+01,	-7.48660E-03,	1.44984E+01,	2.83115E+00,	-3.15028E-01,	0.00000E+00,	0,	0
  1.47064E+04,	1.00000E+01,	-7.48660E-03,	1.54828E+01,	2.87382E+00,	-4.79275E-01,	0.00000E+00,	0,	0
  1.15200E+04,	1.00000E+01,	-7.48660E-03,	1.64628E+01,	2.92524E+00,	-6.54829E-01,	0.00000E+00,	0,	0
  9.60000E+03,	1.00000E+01,	-7.48660E-03,	1.80299E+01,	2.96775E+00,	-7.98512E-01,	0.00000E+00,	0,	0
  7.51304E+03,	1.00000E+01,	-7.48660E-03,	1.88893E+01,	3.03469E+00,	-1.01126E+00,	0.00000E+00,	0,	0
  5.76000E+03,	1.00000E+01,	-7.48660E-03,	1.97806E+01,	3.11767E+00,	-1.28587E+00,	0.00000E+00,	0,	0
  4.54737E+03,	1.00000E+01,	-7.48660E-03,	2.06336E+01,	3.21226E+00,	-1.57154E+00,	0.00000E+00,	0,	0
  3.60000E+03,	1.00000E+01,	-7.48660E-03,	2.16231E+01,	3.30706E+00,	-1.91027E+00,	0.00000E+00,	0,	0
  2.88000E+03,	1.00000E+01,	-7.48660E-03,	2.25241E+01,	3.42368E+00,	-2.28767E+00,	0.00000E+00,	0,	0
  2.27368E+03,	1.00000E+01,	-7.48660E-03,	2.48164E+01,	3.53151E+00,	-2.76441E+00,	0.00000E+00,	0,	0
  1.78144E+03,	1.00000E+01,	-7.48660E-03,	2.56006E+01,	3.68554E+00,	-3.38382E+00,	0.00000E+00,	0,	0
  1.41639E+03,	1.00000E+01,	-7.48660E-03,	2.64801E+01,	3.86883E+00,	-4.09834E+00,	0.00000E+00,	0,	0
  1.12208E+03,	1.00000E+01,	-7.48660E-03,	2.75482E+01,	4.07827E+00,	-4.98526E+00,	0.00000E+00,	0,	0
  9.00000E+02,	1.00000E+01,	-7.48660E-03,	3.25904E+01,	4.32629E+00,	-6.02104E+00,	0.00000E+00,	0,	0
  7.20000E+02,	1.00000E+01,	-7.48660E-03,	3.39639E+01,	4.61869E+00,	-7.28207E+00,	0.00000E+00,	0,	0
  5.68421E+02,	1.00000E+01,	-7.48660E-03,	3.53334E+01,	5.00353E+00,	-8.91828E+00,	0.00000E+00,	0,	0
  4.40816E+02,	1.00000E+01,	-7.48660E-03,	3.83712E+01,	5.54018E+00,	-1.11272E+01,	0.00000E+00,	0,	0
  3.54098E+02,	1.00000E+01,	-7.48660E-03,	4.07143E+01,	6.10555E+00,	-1.34342E+01,	0.00000E+00,	0,	0
  2.76923E+02,	1.00000E+01,	-7.48660E-03,	4.33716E+01,	6.93126E+00,	-1.66005E+01,	0.00000E+00,	0,	0
  2.20408E+02,	1.00000E+01,	-7.48660E-03,	4.63034E+01,	7.90868E+00,	-2.01931E+01,	0.00000E+00,	0,	0
  1.74194E+02,	1.00000E+01,	-7.48660E-03,	4.95684E+01,	9.20571E+00,	-2.46770E+01,	0.00000E+00,	0,	0
  1.37580E+02,	1.00000E+01,	-7.48660E-03,	5.32324E+01,	1.08867E+01,	-3.01110E+01,	0.00000E+00,	0,	0
  1.09091E+02,	1.00000E+01,	-7.48660E-03,	5.73024E+01,	1.30206E+01,	-3.65771E+01,	0.00000E+00,	0,	0
  8.70968E+01,	1.00000E+01,	-7.48660E-03,	6.29897E+01,	1.56441E+01,	-4.41039E+01,	0.00000E+00,	0,	0
  6.83544E+01,	1.00000E+01,	-7.48660E-03,	6.80064E+01,	1.92999E+01,	-5.39817E+01,	0.00000E+00,	0,	0
  5.45455E+01,	1.00000E+01,	-7.48660E-03,	7.34858E+01,	2.37648E+01,	-6.35496E+01,	0.00000E+00,	0,	0
  4.28571E+01,	1.00000E+01,	-7.48660E-03,	7.70206E+01,	2.95451E+01,	-7.64603E+01,	0.00000E+00,	0,	0
  3.39623E+01,	1.00000E+01,	-7.48660E-03,	8.07763E+01,	3.57708E+01,	-9.08945E+01,	0.00000E+00,	0,	0
  2.68657E+01,	1.00000E+01,	-7.48660E-03,	8.46325E+01,	4.42526E+01,	-1.08210E+02,	0.00000E+00,	0,	0
  2.13439E+01,	1.00000E+01,	-7.48660E-03,	8.84462E+01,	5.39437E+01,	-1.27694E+02,	0.00000E+00,	0,	0
  1.73077E+01,	1.00000E+01,	-7.48660E-03,	9.51166E+01,	6.41262E+01,	-1.48367E+02,	0.00000E+00,	0,	0
  1.36364E+01,	1.00000E+01,	-7.48660E-03,	1.00151E+02,	7.69840E+01,	-1.75430E+02,	0.00000E+00,	0,	0
  1.07143E+01,	1.00000E+01,	-7.48660E-03,	1.03060E+02,	9.16778E+01,	-2.07910E+02,	0.00000E+00,	0,	0
  8.49057E+00,	1.00000E+01,	-7.48660E-03,	1.07256E+02,	1.07640E+02,	-2.45500E+02,	0.00000E+00,	0,	0
  6.71642E+00,	1.00000E+01,	-7.48660E-03,	1.09755E+02,	1.25858E+02,	-2.91153E+02,	0.00000E+00,	0,	0
  5.29412E+00,	1.00000E+01,	-7.48660E-03,	1.12692E+02,	1.47035E+02,	-3.46987E+02,	0.00000E+00,	0,	0
  4.16667E+00,	1.00000E+01,	-7.48660E-03,	1.16173E+02,	1.71641E+02,	-4.15471E+02,	0.00000E+00,	0,	0
  3.30882E+00,	1.00000E+01,	-7.48660E-03,	1.20441E+02,	1.99276E+02,	-4.95435E+02,	0.00000E+00,	0,	0
  2.61628E+00,	1.00000E+01,	-7.48660E-03,	1.24415E+02,	2.32399E+02,	-5.93404E+02,	0.00000E+00,	0,	0
  2.07373E+00,	1.00000E+01,	-7.48660E-03,	1.29186E+02,	2.70667E+02,	-7.10673E+02,	0.00000E+00,	0,	0
  1.64234E+00,	1.00000E+01,	-7.48660E-03,	1.34983E+02,	3.15009E+02,	-8.52121E+02,	0.00000E+00,	0,	0
  1.30058E+00,	1.00000E+01,	-7.48660E-03,	1.39157E+02,	3.66059E+02,	-1.02286E+03,	0.00000E+00,	0,	0
  1.03211E+00,	1.00000E+01,	-7.48660E-03,	1.43570E+02,	4.22951E+02,	-1.22824E+03,	0.00000E+00,	0,	0
  8.15217E-01,	1.00000E+01,	-7.48660E-03,	1.50504E+02,	4.84881E+02,	-1.48281E+03,	0.00000E+00,	0,	0
  6.46552E-01,	1.00000E+01,	-7.48660E-03,	1.59601E+02,	5.52057E+02,	-1.79193E+03,	0.00000E+00,	0,	0
  5.11364E-01,	1.00000E+01,	-7.48660E-03,	1.64613E+02,	6.12962E+02,	-2.18688E+03,	0.00000E+00,	0,	0
  4.07609E-01,	1.00000E+01,	-7.48660E-03,	1.70692E+02,	6.98821E+02,	-2.65685E+03,	0.00000E+00,	0,	0
  3.21429E-01,	1.00000E+01,	-7.48660E-03,	1.77821E+02,	8.06453E+02,	-3.30789E+03,	0.00000E+00,	0,	0
  2.54525E-01,	1.00000E+01,	-7.48660E-03,	1.86585E+02,	9.42559E+02,	-4.06180E+03,	0.00000E+00,	0,	0
  2.01613E-01,	1.00000E+01,	-7.48660E-03,	1.97413E+02,	1.11665E+03,	-5.00113E+03,	0.00000E+00,	0,	0
  1.59574E-01,	1.00000E+01,	-7.48660E-03,	2.10877E+02,	1.34845E+03,	-6.17090E+03,	0.00000E+00,	0,	0
  1.26689E-01,	1.00000E+01,	-7.48660E-03,	2.27777E+02,	1.65771E+03,	-7.59327E+03,	0.00000E+00,	0,	0
  1.00446E-01,	1.00000E+01,	-7.48660E-03,	2.48645E+02,	2.08000E+03,	-9.35295E+03,	0.00000E+00,	0,	0