Z60W Data File: Version 1.1
CorrTest for Windows: SN CS310H1805157  V5.2.1111.9  2.5H6.220118
Sweep Frequency: Control Voltage
  Date:4-28-2026   Time:16:52:25
  Begin Information:            Cell Information
      Surface Area:           1
      Density:                7.8
      Weight:                 28
  End Information:              Cell Information
  Freq (Hz)     Ampl(mV)       Bias(V)      Time(Sec)       Z'(Ohm.cm^2)    Z''(Ohm.cm^2)        GD       Err      Range
End Comments
  3.07200E+05,	1.00000E+01,	-8.71923E-03,	3.69714E-02,	1.05447E+02,	4.24165E+01,	0.00000E+00,	0,	0
  2.76480E+05,	1.00000E+01,	-8.71923E-03,	1.64126E+00,	1.03446E+02,	3.79159E+01,	0.00000E+00,	0,	0
  1.97486E+05,	1.00000E+01,	-8.71923E-03,	2.53830E+00,	9.96839E+01,	2.73473E+01,	0.00000E+00,	0,	0
  1.53600E+05,	1.00000E+01,	-8.71923E-03,	3.45470E+00,	9.83075E+01,	2.12657E+01,	0.00000E+00,	0,	0
  1.25673E+05,	1.00000E+01,	-8.71923E-03,	4.35831E+00,	9.73403E+01,	1.73412E+01,	0.00000E+00,	0,	0
  9.87429E+04,	1.00000E+01,	-8.71923E-03,	5.25222E+00,	9.68699E+01,	1.33033E+01,	0.00000E+00,	0,	0
  7.68000E+04,	1.00000E+01,	-8.71923E-03,	6.15720E+00,	9.66806E+01,	1.00626E+01,	0.00000E+00,	0,	0
  6.01043E+04,	1.00000E+01,	-8.71923E-03,	7.14546E+00,	9.67274E+01,	7.44236E+00,	0.00000E+00,	0,	0
  4.93714E+04,	1.00000E+01,	-8.71923E-03,	8.75356E+00,	9.67826E+01,	5.97418E+00,	0.00000E+00,	0,	0
  3.84000E+04,	1.00000E+01,	-8.71923E-03,	9.64671E+00,	9.56374E+01,	3.55384E+00,	0.00000E+00,	0,	0
  3.00522E+04,	1.00000E+01,	-8.71923E-03,	1.04912E+01,	9.64105E+01,	2.92153E+00,	0.00000E+00,	0,	0
  2.38345E+04,	1.00000E+01,	-8.71923E-03,	1.13917E+01,	9.70112E+01,	2.23614E+00,	0.00000E+00,	0,	0
  1.86811E+04,	1.00000E+01,	-8.71923E-03,	1.22250E+01,	9.72665E+01,	6.31603E-01,	0.00000E+00,	0,	0
  1.47064E+04,	1.00000E+01,	-8.71923E-03,	1.31771E+01,	9.72830E+01,	5.97994E-01,	0.00000E+00,	0,	0
  1.15200E+04,	1.00000E+01,	-8.71923E-03,	1.41929E+01,	9.72840E+01,	-5.34399E-01,	0.00000E+00,	0,	0
  9.60000E+03,	1.00000E+01,	-8.71923E-03,	1.57830E+01,	9.76390E+01,	-1.22070E+00,	0.00000E+00,	0,	0
  7.51304E+03,	1.00000E+01,	-8.71923E-03,	1.66614E+01,	9.77517E+01,	-1.77775E+00,	0.00000E+00,	0,	0
  5.76000E+03,	1.00000E+01,	-8.71923E-03,	1.75929E+01,	9.82276E+01,	-2.91849E+00,	0.00000E+00,	0,	0
  4.54737E+03,	1.00000E+01,	-8.71923E-03,	1.84626E+01,	9.83257E+01,	-3.75119E+00,	0.00000E+00,	0,	0
  3.60000E+03,	1.00000E+01,	-8.71923E-03,	1.94705E+01,	9.84543E+01,	-4.79123E+00,	0.00000E+00,	0,	0
  2.88000E+03,	1.00000E+01,	-8.71923E-03,	2.03700E+01,	9.87516E+01,	-6.14960E+00,	0.00000E+00,	0,	0
  2.27368E+03,	1.00000E+01,	-8.71923E-03,	2.15338E+01,	9.93580E+01,	-7.26816E+00,	0.00000E+00,	0,	0
  1.78144E+03,	1.00000E+01,	-8.71923E-03,	2.23499E+01,	9.91397E+01,	-9.62931E+00,	0.00000E+00,	0,	0
  1.41639E+03,	1.00000E+01,	-8.71923E-03,	2.32479E+01,	1.00348E+02,	-1.13823E+01,	0.00000E+00,	0,	0
  1.12208E+03,	1.00000E+01,	-8.71923E-03,	2.43074E+01,	1.01291E+02,	-1.37976E+01,	0.00000E+00,	0,	0
  9.00000E+02,	1.00000E+01,	-8.71923E-03,	2.92873E+01,	1.02697E+02,	-1.68104E+01,	0.00000E+00,	0,	0
  7.20000E+02,	1.00000E+01,	-8.71923E-03,	3.06969E+01,	1.03883E+02,	-2.02234E+01,	0.00000E+00,	0,	0
  5.68421E+02,	1.00000E+01,	-8.71923E-03,	3.20586E+01,	1.05418E+02,	-2.45336E+01,	0.00000E+00,	0,	0
  4.40816E+02,	1.00000E+01,	-8.71923E-03,	3.50655E+01,	1.07790E+02,	-3.01721E+01,	0.00000E+00,	0,	0
  3.54098E+02,	1.00000E+01,	-8.71923E-03,	3.74134E+01,	1.09981E+02,	-3.59820E+01,	0.00000E+00,	0,	0
  2.76923E+02,	1.00000E+01,	-8.71923E-03,	4.00464E+01,	1.12961E+02,	-4.36451E+01,	0.00000E+00,	0,	0
  2.20408E+02,	1.00000E+01,	-8.71923E-03,	4.30008E+01,	1.16344E+02,	-5.21795E+01,	0.00000E+00,	0,	0
  1.74194E+02,	1.00000E+01,	-8.71923E-03,	4.62549E+01,	1.20430E+02,	-6.26093E+01,	0.00000E+00,	0,	0
  1.37580E+02,	1.00000E+01,	-8.71923E-03,	4.99146E+01,	1.25205E+02,	-7.51422E+01,	0.00000E+00,	0,	0
  1.09091E+02,	1.00000E+01,	-8.71923E-03,	5.40471E+01,	1.30689E+02,	-8.99243E+01,	0.00000E+00,	0,	0
  8.70968E+01,	1.00000E+01,	-8.71923E-03,	5.97266E+01,	1.36928E+02,	-1.07338E+02,	0.00000E+00,	0,	0
  6.83544E+01,	1.00000E+01,	-8.71923E-03,	6.48100E+01,	1.45068E+02,	-1.30582E+02,	0.00000E+00,	0,	0
  5.45455E+01,	1.00000E+01,	-8.71923E-03,	7.02519E+01,	1.52211E+02,	-1.52812E+02,	0.00000E+00,	0,	0
  4.28571E+01,	1.00000E+01,	-8.71923E-03,	7.37809E+01,	1.61846E+02,	-1.84917E+02,	0.00000E+00,	0,	0
  3.39623E+01,	1.00000E+01,	-8.71923E-03,	7.75648E+01,	1.70945E+02,	-2.23048E+02,	0.00000E+00,	0,	0
  2.68657E+01,	1.00000E+01,	-8.71923E-03,	8.14350E+01,	1.84378E+02,	-2.70697E+02,	0.00000E+00,	0,	0
  2.13439E+01,	1.00000E+01,	-8.71923E-03,	8.52634E+01,	1.99488E+02,	-3.27465E+02,	0.00000E+00,	0,	0
  1.73077E+01,	1.00000E+01,	-8.71923E-03,	8.89751E+01,	2.15512E+02,	-3.90224E+02,	0.00000E+00,	0,	0
  1.36364E+01,	1.00000E+01,	-8.71923E-03,	9.40472E+01,	2.37462E+02,	-4.77014E+02,	0.00000E+00,	0,	0
  1.07143E+01,	1.00000E+01,	-8.71923E-03,	9.69931E+01,	2.64620E+02,	-5.85277E+02,	0.00000E+00,	0,	0
  8.49057E+00,	1.00000E+01,	-8.71923E-03,	1.01200E+02,	2.97245E+02,	-7.14466E+02,	0.00000E+00,	0,	0
  6.71642E+00,	1.00000E+01,	-8.71923E-03,	1.03771E+02,	3.38995E+02,	-8.72487E+02,	0.00000E+00,	0,	0
  5.29412E+00,	1.00000E+01,	-8.71923E-03,	1.06687E+02,	3.93026E+02,	-1.06891E+03,	0.00000E+00,	0,	0
  4.16667E+00,	1.00000E+01,	-8.71923E-03,	1.10177E+02,	4.62847E+02,	-1.30974E+03,	0.00000E+00,	0,	0
  3.30882E+00,	1.00000E+01,	-8.71923E-03,	1.16774E+02,	5.48753E+02,	-1.59043E+03,	0.00000E+00,	0,	0
  2.61628E+00,	1.00000E+01,	-8.71923E-03,	1.20742E+02,	6.62209E+02,	-1.93536E+03,	0.00000E+00,	0,	0
  2.07373E+00,	1.00000E+01,	-8.71923E-03,	1.25540E+02,	8.05642E+02,	-2.34608E+03,	0.00000E+00,	0,	0
  1.64234E+00,	1.00000E+01,	-8.71923E-03,	1.31332E+02,	9.89875E+02,	-2.83743E+03,	0.00000E+00,	0,	0
  1.30058E+00,	1.00000E+01,	-8.71923E-03,	1.35503E+02,	1.22513E+03,	-3.41684E+03,	0.00000E+00,	0,	0
  1.03211E+00,	1.00000E+01,	-8.71923E-03,	1.39934E+02,	1.52102E+03,	-4.09926E+03,	0.00000E+00,	0,	0
  8.15217E-01,	1.00000E+01,	-8.71923E-03,	1.46876E+02,	1.88415E+03,	-4.89730E+03,	0.00000E+00,	0,	0
  6.46552E-01,	1.00000E+01,	-8.71923E-03,	1.51701E+02,	2.32927E+03,	-5.81993E+03,	0.00000E+00,	0,	0
  5.11364E-01,	1.00000E+01,	-8.71923E-03,	1.56715E+02,	2.77439E+03,	-6.94537E+03,	0.00000E+00,	0,	0
  4.07609E-01,	1.00000E+01,	-8.71923E-03,	1.62769E+02,	3.37390E+03,	-8.18356E+03,	0.00000E+00,	0,	0
  3.21429E-01,	1.00000E+01,	-8.71923E-03,	1.69949E+02,	4.13171E+03,	-9.84045E+03,	0.00000E+00,	0,	0
  2.54525E-01,	1.00000E+01,	-8.71923E-03,	1.78795E+02,	4.97692E+03,	-1.15878E+04,	0.00000E+00,	0,	0
  2.01613E-01,	1.00000E+01,	-8.71923E-03,	1.89700E+02,	5.92487E+03,	-1.36935E+04,	0.00000E+00,	0,	0
  1.59574E-01,	1.00000E+01,	-8.71923E-03,	2.03180E+02,	7.01072E+03,	-1.62147E+04,	0.00000E+00,	0,	0
  1.26689E-01,	1.00000E+01,	-8.71923E-03,	2.37063E+02,	8.24135E+03,	-1.88818E+04,	0.00000E+00,	0,	0
  1.00446E-01,	1.00000E+01,	-8.71923E-03,	2.57920E+02,	9.65719E+03,	-2.33071E+04,	0.00000E+00,	0,	0