Z60W Data File: Version 1.1
CorrTest for Windows: SN CS310H1805157  V5.2.1111.9  2.5H6.220118
Sweep Frequency: Control Voltage
  Date:4-27-2026   Time:20:58:53
  Begin Information:            Cell Information
      Surface Area:           1
      Density:                7.8
      Weight:                 28
  End Information:              Cell Information
  Freq (Hz)     Ampl(mV)       Bias(V)      Time(Sec)       Z'(Ohm.cm^2)    Z''(Ohm.cm^2)        GD       Err      Range
End Comments
  3.07200E+05,	1.00000E+01,	-2.25350E-02,	2.33139E-02,	-3.22800E+01,	2.88017E+01,	0.00000E+00,	0,	0
  2.76480E+05,	1.00000E+01,	-2.25350E-02,	1.65915E+00,	-4.42619E+01,	4.35533E+01,	0.00000E+00,	0,	0
  1.97486E+05,	1.00000E+01,	-2.25350E-02,	2.57512E+00,	-1.09934E+02,	6.35170E+01,	0.00000E+00,	0,	0
  1.53600E+05,	1.00000E+01,	-2.25350E-02,	3.47138E+00,	-1.60594E+02,	8.74113E+01,	0.00000E+00,	0,	0
  1.25673E+05,	1.00000E+01,	-2.25350E-02,	4.36109E+00,	-3.78038E+01,	6.61707E+01,	0.00000E+00,	0,	0
  9.87429E+04,	1.00000E+01,	-2.25350E-02,	5.25335E+00,	-9.75824E+00,	-2.60221E+02,	0.00000E+00,	0,	0
  7.68000E+04,	1.00000E+01,	-2.25350E-02,	6.15552E+00,	-4.26146E+02,	4.66632E+02,	0.00000E+00,	0,	0
  6.01043E+04,	1.00000E+01,	-2.25350E-02,	7.15141E+00,	-9.65383E+02,	6.09979E+02,	0.00000E+00,	0,	0
  4.93714E+04,	1.00000E+01,	-2.25350E-02,	8.72688E+00,	-1.93267E+03,	1.62991E+03,	0.00000E+00,	0,	0
  3.84000E+04,	1.00000E+01,	-2.25350E-02,	9.62680E+00,	-2.37751E+03,	-4.10671E+02,	0.00000E+00,	0,	0
  3.00522E+04,	1.00000E+01,	-2.25350E-02,	1.04955E+01,	-8.63627E+02,	2.13379E+03,	0.00000E+00,	0,	0
  2.38345E+04,	1.00000E+01,	-2.25350E-02,	1.13682E+01,	-2.16083E+02,	9.68839E+02,	0.00000E+00,	0,	0
  1.86811E+04,	1.00000E+01,	-2.25350E-02,	1.21959E+01,	5.12678E+02,	-1.30831E+03,	0.00000E+00,	0,	0
  1.47064E+04,	1.00000E+01,	-2.25350E-02,	1.31489E+01,	9.90636E+02,	2.68299E+03,	0.00000E+00,	0,	0
  1.15200E+04,	1.00000E+01,	-2.25350E-02,	1.41476E+01,	1.23714E+03,	-1.62274E+03,	0.00000E+00,	0,	0
  9.60000E+03,	1.00000E+01,	-2.25350E-02,	1.57218E+01,	8.60804E+02,	-2.72947E+03,	0.00000E+00,	0,	0
  7.51304E+03,	1.00000E+01,	-2.25350E-02,	1.65991E+01,	-3.17398E+03,	1.05861E+03,	0.00000E+00,	0,	0
  5.76000E+03,	1.00000E+01,	-2.25350E-02,	1.74896E+01,	1.51377E+03,	-1.53900E+02,	0.00000E+00,	0,	0
  4.54737E+03,	1.00000E+01,	-2.25350E-02,	1.83538E+01,	-1.39717E+02,	-1.19884E+03,	0.00000E+00,	0,	0
  3.60000E+03,	1.00000E+01,	-2.25350E-02,	1.93767E+01,	4.09236E+02,	-2.30186E+03,	0.00000E+00,	0,	0
  2.88000E+03,	1.00000E+01,	-2.25350E-02,	2.02705E+01,	-4.05254E+02,	-2.51344E+02,	0.00000E+00,	0,	0
  2.27368E+03,	1.00000E+01,	-2.25350E-02,	2.14111E+01,	-4.14697E+02,	6.91691E+02,	0.00000E+00,	0,	0
  1.78144E+03,	1.00000E+01,	-2.25350E-02,	2.21942E+01,	-7.12315E+02,	4.33977E+01,	0.00000E+00,	0,	0
  1.41639E+03,	1.00000E+01,	-2.25350E-02,	2.30830E+01,	-2.45484E+03,	-3.01086E+03,	0.00000E+00,	0,	0
  1.12208E+03,	1.00000E+01,	-2.25350E-02,	2.41286E+01,	-1.87005E+03,	6.83920E+01,	0.00000E+00,	0,	0
  9.00000E+02,	1.00000E+01,	-2.25350E-02,	2.91050E+01,	-4.66279E+04,	-5.17341E+03,	0.00000E+00,	0,	0
  7.20000E+02,	1.00000E+01,	-2.25350E-02,	3.05039E+01,	5.30491E+03,	-2.11164E+03,	0.00000E+00,	0,	0
  5.68421E+02,	1.00000E+01,	-2.25350E-02,	3.18670E+01,	1.14149E+04,	-5.21502E+03,	0.00000E+00,	0,	0
  4.40816E+02,	1.00000E+01,	-2.25350E-02,	4.12639E+01,	2.62987E+04,	-1.31317E+04,	0.00000E+00,	0,	0
  3.54098E+02,	1.00000E+01,	-2.25350E-02,	4.36114E+01,	2.80498E+04,	-1.29365E+04,	0.00000E+00,	0,	0
  2.76923E+02,	1.00000E+01,	-2.25350E-02,	4.62513E+01,	2.98691E+04,	-1.27593E+04,	0.00000E+00,	0,	0
  2.20408E+02,	1.00000E+01,	-2.25350E-02,	4.91683E+01,	3.14719E+04,	-1.27144E+04,	0.00000E+00,	0,	0
  1.74194E+02,	1.00000E+01,	-2.25350E-02,	5.24244E+01,	3.30372E+04,	-1.28030E+04,	0.00000E+00,	0,	0
  1.37580E+02,	1.00000E+01,	-2.25350E-02,	5.60927E+01,	3.45909E+04,	-1.30465E+04,	0.00000E+00,	0,	0
  1.09091E+02,	1.00000E+01,	-2.25350E-02,	6.01951E+01,	3.61372E+04,	-1.35315E+04,	0.00000E+00,	0,	0
  8.70968E+01,	1.00000E+01,	-2.25350E-02,	6.58991E+01,	3.77554E+04,	-1.40744E+04,	0.00000E+00,	0,	0
  6.83544E+01,	1.00000E+01,	-2.25350E-02,	7.09175E+01,	3.97271E+04,	-1.50752E+04,	0.00000E+00,	0,	0
  5.45455E+01,	1.00000E+01,	-2.25350E-02,	7.63663E+01,	4.13895E+04,	-1.54940E+04,	0.00000E+00,	0,	0
  4.28571E+01,	1.00000E+01,	-2.25350E-02,	7.99103E+01,	4.35269E+04,	-1.66231E+04,	0.00000E+00,	0,	0
  3.39623E+01,	1.00000E+01,	-2.25350E-02,	8.36503E+01,	4.53220E+04,	-1.78617E+04,	0.00000E+00,	0,	0
  2.68657E+01,	1.00000E+01,	-2.25350E-02,	8.74840E+01,	4.80155E+04,	-1.91672E+04,	0.00000E+00,	0,	0
  2.13439E+01,	1.00000E+01,	-2.25350E-02,	9.12975E+01,	5.07261E+04,	-2.05142E+04,	0.00000E+00,	0,	0
  1.73077E+01,	1.00000E+01,	-2.25350E-02,	9.50081E+01,	5.33282E+04,	-2.18511E+04,	0.00000E+00,	0,	0
  1.36364E+01,	1.00000E+01,	-2.25350E-02,	1.00044E+02,	5.64847E+04,	-2.34103E+04,	0.00000E+00,	0,	0
  1.07143E+01,	1.00000E+01,	-2.25350E-02,	1.02985E+02,	5.98777E+04,	-2.51220E+04,	0.00000E+00,	0,	0
  8.49057E+00,	1.00000E+01,	-2.25350E-02,	1.07224E+02,	5.40392E+04,	-2.29690E+04,	0.00000E+00,	0,	0
  6.71642E+00,	1.00000E+01,	-2.25350E-02,	1.09729E+02,	5.72390E+04,	-2.46158E+04,	0.00000E+00,	0,	0
  5.29412E+00,	1.00000E+01,	-2.25350E-02,	1.12685E+02,	6.07055E+04,	-2.64645E+04,	0.00000E+00,	0,	0
  4.16667E+00,	1.00000E+01,	-2.25350E-02,	1.16151E+02,	6.44826E+04,	-2.85272E+04,	0.00000E+00,	0,	0
  3.30882E+00,	1.00000E+01,	-2.25350E-02,	1.20400E+02,	6.83502E+04,	-3.07026E+04,	0.00000E+00,	0,	0
  2.61628E+00,	1.00000E+01,	-2.25350E-02,	1.24400E+02,	7.25754E+04,	-3.31361E+04,	0.00000E+00,	0,	0
  2.07373E+00,	1.00000E+01,	-2.25350E-02,	1.29228E+02,	7.71615E+04,	-3.57757E+04,	0.00000E+00,	0,	0
  1.64234E+00,	1.00000E+01,	-2.25350E-02,	1.35027E+02,	8.20594E+04,	-3.86678E+04,	0.00000E+00,	0,	0
  1.30058E+00,	1.00000E+01,	-2.25350E-02,	1.39194E+02,	8.72533E+04,	-4.17296E+04,	0.00000E+00,	0,	0
  1.03211E+00,	1.00000E+01,	-2.25350E-02,	1.43586E+02,	9.32290E+04,	-4.47813E+04,	0.00000E+00,	0,	0
  8.15217E-01,	1.00000E+01,	-2.25350E-02,	1.50524E+02,	9.86881E+04,	-4.87520E+04,	0.00000E+00,	0,	0
  6.46552E-01,	1.00000E+01,	-2.25350E-02,	1.59641E+02,	1.05937E+05,	-5.30398E+04,	0.00000E+00,	0,	0
  5.11364E-01,	1.00000E+01,	-2.25350E-02,	1.64678E+02,	1.13142E+05,	-6.01126E+04,	0.00000E+00,	0,	0
  4.07609E-01,	1.00000E+01,	-2.25350E-02,	1.70737E+02,	1.20582E+05,	-6.47276E+04,	0.00000E+00,	0,	0
  3.21429E-01,	1.00000E+01,	-2.25350E-02,	1.77943E+02,	1.31550E+05,	-7.05369E+04,	0.00000E+00,	0,	0
  2.54525E-01,	1.00000E+01,	-2.25350E-02,	1.86727E+02,	1.39811E+05,	-7.65588E+04,	0.00000E+00,	0,	0
  2.01613E-01,	1.00000E+01,	-2.25350E-02,	1.97605E+02,	1.49032E+05,	-8.39307E+04,	0.00000E+00,	0,	0
  1.59574E-01,	1.00000E+01,	-2.25350E-02,	2.11053E+02,	1.59154E+05,	-9.26143E+04,	0.00000E+00,	0,	0
  1.26689E-01,	1.00000E+01,	-2.25350E-02,	2.27955E+02,	1.69880E+05,	-1.02477E+05,	0.00000E+00,	0,	0
  1.00446E-01,	1.00000E+01,	-2.25350E-02,	2.48828E+02,	1.82189E+05,	-1.14307E+05,	0.00000E+00,	0,	0