Z60W Data File: Version 1.1
CorrTest for Windows: SN CS310H1805157  V5.2.1111.9  2.5H6.220118
Sweep Frequency: Control Voltage
  Date:5-8-2026   Time:20:24:48
  Begin Information:            Cell Information
      Surface Area:           1
      Density:                7.8
      Weight:                 28
  End Information:              Cell Information
  Freq (Hz)     Ampl(mV)       Bias(V)      Time(Sec)       Z'(Ohm.cm^2)    Z''(Ohm.cm^2)        GD       Err      Range
End Comments
  3.07200E+05,	1.00000E+01,	-2.65039E-02,	3.58399E-02,	1.03584E+01,	9.10939E+00,	0.00000E+00,	0,	0
  2.76480E+05,	1.00000E+01,	-2.65039E-02,	1.64493E+00,	1.07691E+01,	7.58973E+00,	0.00000E+00,	0,	0
  1.97486E+05,	1.00000E+01,	-2.65039E-02,	2.54152E+00,	1.13137E+01,	5.23146E+00,	0.00000E+00,	0,	0
  1.53600E+05,	1.00000E+01,	-2.65039E-02,	3.43112E+00,	1.15623E+01,	3.84492E+00,	0.00000E+00,	0,	0
  1.25673E+05,	1.00000E+01,	-2.65039E-02,	4.32745E+00,	1.17383E+01,	2.97708E+00,	0.00000E+00,	0,	0
  9.87429E+04,	1.00000E+01,	-2.65039E-02,	5.21734E+00,	1.19145E+01,	2.08019E+00,	0.00000E+00,	0,	0
  7.68000E+04,	1.00000E+01,	-2.65039E-02,	6.10908E+00,	1.20440E+01,	1.33720E+00,	0.00000E+00,	0,	0
  6.01043E+04,	1.00000E+01,	-2.65039E-02,	8.23847E+00,	1.21911E+01,	7.12832E-01,	0.00000E+00,	0,	0
  4.93714E+04,	1.00000E+01,	-2.65039E-02,	9.80275E+00,	1.23014E+01,	2.84599E-01,	0.00000E+00,	0,	0
  3.84000E+04,	1.00000E+01,	-2.65039E-02,	1.06949E+01,	1.24187E+01,	-1.95728E-01,	0.00000E+00,	0,	0
  3.00522E+04,	1.00000E+01,	-2.65039E-02,	1.15616E+01,	1.25832E+01,	-6.44004E-01,	0.00000E+00,	0,	0
  2.38345E+04,	1.00000E+01,	-2.65039E-02,	1.24216E+01,	1.27547E+01,	-1.06028E+00,	0.00000E+00,	0,	0
  1.86811E+04,	1.00000E+01,	-2.65039E-02,	1.32549E+01,	1.29446E+01,	-1.49129E+00,	0.00000E+00,	0,	0
  1.47064E+04,	1.00000E+01,	-2.65039E-02,	1.42135E+01,	1.31728E+01,	-1.90735E+00,	0.00000E+00,	0,	0
  1.15200E+04,	1.00000E+01,	-2.65039E-02,	1.51708E+01,	1.34576E+01,	-2.39119E+00,	0.00000E+00,	0,	0
  9.60000E+03,	1.00000E+01,	-2.65039E-02,	1.67434E+01,	1.36851E+01,	-2.76956E+00,	0.00000E+00,	0,	0
  7.51304E+03,	1.00000E+01,	-2.65039E-02,	1.76070E+01,	1.40473E+01,	-3.29655E+00,	0.00000E+00,	0,	0
  5.76000E+03,	1.00000E+01,	-2.65039E-02,	1.85035E+01,	1.44816E+01,	-3.96761E+00,	0.00000E+00,	0,	0
  4.54737E+03,	1.00000E+01,	-2.65039E-02,	1.93829E+01,	1.49411E+01,	-4.65964E+00,	0.00000E+00,	0,	0
  3.60000E+03,	1.00000E+01,	-2.65039E-02,	2.03840E+01,	1.54310E+01,	-5.39766E+00,	0.00000E+00,	0,	0
  2.88000E+03,	1.00000E+01,	-2.65039E-02,	2.12856E+01,	1.59707E+01,	-6.20963E+00,	0.00000E+00,	0,	0
  2.27368E+03,	1.00000E+01,	-2.65039E-02,	2.35582E+01,	1.66423E+01,	-7.21666E+00,	0.00000E+00,	0,	0
  1.78144E+03,	1.00000E+01,	-2.65039E-02,	2.43511E+01,	1.73711E+01,	-8.46427E+00,	0.00000E+00,	0,	0
  1.41639E+03,	1.00000E+01,	-2.65039E-02,	2.52424E+01,	1.81489E+01,	-9.78648E+00,	0.00000E+00,	0,	0
  1.12208E+03,	1.00000E+01,	-2.65039E-02,	2.62720E+01,	1.89960E+01,	-1.13893E+01,	0.00000E+00,	0,	0
  9.00000E+02,	1.00000E+01,	-2.65039E-02,	3.12506E+01,	2.00019E+01,	-1.32305E+01,	0.00000E+00,	0,	0
  7.20000E+02,	1.00000E+01,	-2.65039E-02,	3.26018E+01,	2.09958E+01,	-1.53811E+01,	0.00000E+00,	0,	0
  5.68421E+02,	1.00000E+01,	-2.65039E-02,	3.39756E+01,	2.21671E+01,	-1.81316E+01,	0.00000E+00,	0,	0
  4.40816E+02,	1.00000E+01,	-2.65039E-02,	3.54217E+01,	2.35438E+01,	-2.17388E+01,	0.00000E+00,	0,	0
  3.54098E+02,	1.00000E+01,	-2.65039E-02,	3.77664E+01,	2.48792E+01,	-2.55505E+01,	0.00000E+00,	0,	0
  2.76923E+02,	1.00000E+01,	-2.65039E-02,	4.04044E+01,	2.65159E+01,	-3.07654E+01,	0.00000E+00,	0,	0
  2.20408E+02,	1.00000E+01,	-2.65039E-02,	4.33216E+01,	2.82142E+01,	-3.67506E+01,	0.00000E+00,	0,	0
  1.74194E+02,	1.00000E+01,	-2.65039E-02,	4.65731E+01,	3.01570E+01,	-4.43277E+01,	0.00000E+00,	0,	0
  1.37580E+02,	1.00000E+01,	-2.65039E-02,	5.02194E+01,	3.23714E+01,	-5.37404E+01,	0.00000E+00,	0,	0
  1.09091E+02,	1.00000E+01,	-2.65039E-02,	5.42942E+01,	3.48595E+01,	-6.52513E+01,	0.00000E+00,	0,	0
  8.70968E+01,	1.00000E+01,	-2.65039E-02,	6.24158E+01,	3.78114E+01,	-7.93493E+01,	0.00000E+00,	0,	0
  6.83544E+01,	1.00000E+01,	-2.65039E-02,	6.74252E+01,	4.14949E+01,	-9.84164E+01,	0.00000E+00,	0,	0
  5.45455E+01,	1.00000E+01,	-2.65039E-02,	7.28612E+01,	4.58174E+01,	-1.18010E+02,	0.00000E+00,	0,	0
  4.28571E+01,	1.00000E+01,	-2.65039E-02,	7.63954E+01,	5.12975E+01,	-1.45778E+02,	0.00000E+00,	0,	0
  3.39623E+01,	1.00000E+01,	-2.65039E-02,	8.01219E+01,	5.68366E+01,	-1.78709E+02,	0.00000E+00,	0,	0
  2.68657E+01,	1.00000E+01,	-2.65039E-02,	8.39595E+01,	6.56862E+01,	-2.20655E+02,	0.00000E+00,	0,	0
  2.13439E+01,	1.00000E+01,	-2.65039E-02,	8.77758E+01,	7.67168E+01,	-2.70843E+02,	0.00000E+00,	0,	0
  1.73077E+01,	1.00000E+01,	-2.65039E-02,	9.14442E+01,	8.93290E+01,	-3.26169E+02,	0.00000E+00,	0,	0
  1.36364E+01,	1.00000E+01,	-2.65039E-02,	9.64798E+01,	1.07887E+02,	-4.02403E+02,	0.00000E+00,	0,	0
  1.07143E+01,	1.00000E+01,	-2.65039E-02,	9.94048E+01,	1.32378E+02,	-4.96845E+02,	0.00000E+00,	0,	0
  8.49057E+00,	1.00000E+01,	-2.65039E-02,	1.03598E+02,	1.63325E+02,	-6.08067E+02,	0.00000E+00,	0,	0
  6.71642E+00,	1.00000E+01,	-2.65039E-02,	1.06109E+02,	2.04104E+02,	-7.43395E+02,	0.00000E+00,	0,	0
  5.29412E+00,	1.00000E+01,	-2.65039E-02,	1.09044E+02,	2.58494E+02,	-9.08673E+02,	0.00000E+00,	0,	0
  4.16667E+00,	1.00000E+01,	-2.65039E-02,	1.12512E+02,	3.29232E+02,	-1.10860E+03,	0.00000E+00,	0,	0
  3.30882E+00,	1.00000E+01,	-2.65039E-02,	1.19053E+02,	4.16252E+02,	-1.33626E+03,	0.00000E+00,	0,	0
  2.61628E+00,	1.00000E+01,	-2.65039E-02,	1.23022E+02,	5.28899E+02,	-1.61036E+03,	0.00000E+00,	0,	0
  2.07373E+00,	1.00000E+01,	-2.65039E-02,	1.27801E+02,	6.67446E+02,	-1.92874E+03,	0.00000E+00,	0,	0
  1.64234E+00,	1.00000E+01,	-2.65039E-02,	1.33596E+02,	8.37118E+02,	-2.30144E+03,	0.00000E+00,	0,	0
  1.30058E+00,	1.00000E+01,	-2.65039E-02,	1.37760E+02,	1.04128E+03,	-2.73382E+03,	0.00000E+00,	0,	0
  1.03211E+00,	1.00000E+01,	-2.65039E-02,	1.42164E+02,	1.28324E+03,	-3.23830E+03,	0.00000E+00,	0,	0
  8.15217E-01,	1.00000E+01,	-2.65039E-02,	1.49109E+02,	1.55866E+03,	-3.83043E+03,	0.00000E+00,	0,	0
  6.46552E-01,	1.00000E+01,	-2.65039E-02,	1.53923E+02,	1.87744E+03,	-4.52158E+03,	0.00000E+00,	0,	0
  5.11364E-01,	1.00000E+01,	-2.65039E-02,	1.58932E+02,	2.17221E+03,	-5.39264E+03,	0.00000E+00,	0,	0
  4.07609E-01,	1.00000E+01,	-2.65039E-02,	1.64993E+02,	2.57323E+03,	-6.36698E+03,	0.00000E+00,	0,	0
  3.21429E-01,	1.00000E+01,	-2.65039E-02,	1.72123E+02,	3.07890E+03,	-7.71224E+03,	0.00000E+00,	0,	0
  2.54525E-01,	1.00000E+01,	-2.65039E-02,	1.80890E+02,	3.64074E+03,	-9.14949E+03,	0.00000E+00,	0,	0
  2.01613E-01,	1.00000E+01,	-2.65039E-02,	1.91739E+02,	4.26993E+03,	-1.09079E+04,	0.00000E+00,	0,	0
  1.59574E-01,	1.00000E+01,	-2.65039E-02,	2.05192E+02,	4.99282E+03,	-1.30400E+04,	0.00000E+00,	0,	0
  1.26689E-01,	1.00000E+01,	-2.65039E-02,	2.39092E+02,	5.82635E+03,	-1.53463E+04,	0.00000E+00,	0,	0
  1.00446E-01,	1.00000E+01,	-2.65039E-02,	2.59962E+02,	6.70352E+03,	-1.90748E+04,	0.00000E+00,	0,	0