Z60W Data File: Version 1.1
CorrTest for Windows: SN CS310H1805157  V5.2.1111.9  2.5H6.220118
Sweep Frequency: Control Voltage
  Date:5-8-2026   Time:21:16:19
  Begin Information:            Cell Information
      Surface Area:           1
      Density:                7.8
      Weight:                 28
  End Information:              Cell Information
  Freq (Hz)     Ampl(mV)       Bias(V)      Time(Sec)       Z'(Ohm.cm^2)    Z''(Ohm.cm^2)        GD       Err      Range
End Comments
  3.07200E+05,	1.00000E+01,	-3.04106E-02,	2.37384E-02,	1.48354E+02,	3.07703E+01,	0.00000E+00,	0,	0
  2.76480E+05,	1.00000E+01,	-3.04106E-02,	1.63622E+00,	1.45522E+02,	2.73778E+01,	0.00000E+00,	0,	0
  1.97486E+05,	1.00000E+01,	-3.04106E-02,	2.52755E+00,	1.41198E+02,	1.97547E+01,	0.00000E+00,	0,	0
  1.53600E+05,	1.00000E+01,	-3.04106E-02,	3.41736E+00,	1.39568E+02,	1.47628E+01,	0.00000E+00,	0,	0
  1.25673E+05,	1.00000E+01,	-3.04106E-02,	4.32143E+00,	1.39256E+02,	1.14137E+01,	0.00000E+00,	0,	0
  9.87429E+04,	1.00000E+01,	-3.04106E-02,	5.20816E+00,	1.38792E+02,	7.93669E+00,	0.00000E+00,	0,	0
  7.68000E+04,	1.00000E+01,	-3.04106E-02,	6.09775E+00,	1.38503E+02,	5.15991E+00,	0.00000E+00,	0,	0
  6.01043E+04,	1.00000E+01,	-3.04106E-02,	7.08931E+00,	1.39120E+02,	2.54822E+00,	0.00000E+00,	0,	0
  4.93714E+04,	1.00000E+01,	-3.04106E-02,	8.66657E+00,	1.39516E+02,	1.02346E+00,	0.00000E+00,	0,	0
  3.84000E+04,	1.00000E+01,	-3.04106E-02,	9.57034E+00,	1.39885E+02,	-4.32541E-01,	0.00000E+00,	0,	0
  3.00522E+04,	1.00000E+01,	-3.04106E-02,	1.04169E+01,	1.39762E+02,	-1.34328E+00,	0.00000E+00,	0,	0
  2.38345E+04,	1.00000E+01,	-3.04106E-02,	1.12780E+01,	1.41520E+02,	-3.01036E+00,	0.00000E+00,	0,	0
  1.86811E+04,	1.00000E+01,	-3.04106E-02,	1.21169E+01,	1.42268E+02,	-4.14500E+00,	0.00000E+00,	0,	0
  1.47064E+04,	1.00000E+01,	-3.04106E-02,	1.30715E+01,	1.42945E+02,	-6.37742E+00,	0.00000E+00,	0,	0
  1.15200E+04,	1.00000E+01,	-3.04106E-02,	1.40430E+01,	1.44026E+02,	-7.75816E+00,	0.00000E+00,	0,	0
  9.60000E+03,	1.00000E+01,	-3.04106E-02,	1.56134E+01,	1.44766E+02,	-8.66289E+00,	0.00000E+00,	0,	0
  7.51304E+03,	1.00000E+01,	-3.04106E-02,	1.64853E+01,	1.46177E+02,	-1.06850E+01,	0.00000E+00,	0,	0
  5.76000E+03,	1.00000E+01,	-3.04106E-02,	1.73733E+01,	1.47323E+02,	-1.24782E+01,	0.00000E+00,	0,	0
  4.54737E+03,	1.00000E+01,	-3.04106E-02,	1.82254E+01,	1.49416E+02,	-1.46574E+01,	0.00000E+00,	0,	0
  3.60000E+03,	1.00000E+01,	-3.04106E-02,	1.92113E+01,	1.51439E+02,	-1.67814E+01,	0.00000E+00,	0,	0
  2.88000E+03,	1.00000E+01,	-3.04106E-02,	2.01032E+01,	1.53667E+02,	-1.90233E+01,	0.00000E+00,	0,	0
  2.27368E+03,	1.00000E+01,	-3.04106E-02,	2.23631E+01,	1.56139E+02,	-2.15246E+01,	0.00000E+00,	0,	0
  1.78144E+03,	1.00000E+01,	-3.04106E-02,	2.31399E+01,	1.59271E+02,	-2.50437E+01,	0.00000E+00,	0,	0
  1.41639E+03,	1.00000E+01,	-3.04106E-02,	2.40377E+01,	1.62440E+02,	-2.69994E+01,	0.00000E+00,	0,	0
  1.12208E+03,	1.00000E+01,	-3.04106E-02,	2.50678E+01,	1.65866E+02,	-3.17089E+01,	0.00000E+00,	0,	0
  9.00000E+02,	1.00000E+01,	-3.04106E-02,	3.00478E+01,	1.70288E+02,	-3.57192E+01,	0.00000E+00,	0,	0
  7.20000E+02,	1.00000E+01,	-3.04106E-02,	3.14056E+01,	1.74390E+02,	-4.02613E+01,	0.00000E+00,	0,	0
  5.68421E+02,	1.00000E+01,	-3.04106E-02,	3.27631E+01,	1.79166E+02,	-4.57206E+01,	0.00000E+00,	0,	0
  4.40816E+02,	1.00000E+01,	-3.04106E-02,	3.42264E+01,	1.84794E+02,	-5.25465E+01,	0.00000E+00,	0,	0
  3.54098E+02,	1.00000E+01,	-3.04106E-02,	3.65747E+01,	1.90552E+02,	-5.94923E+01,	0.00000E+00,	0,	0
  2.76923E+02,	1.00000E+01,	-3.04106E-02,	3.92376E+01,	1.97383E+02,	-6.84155E+01,	0.00000E+00,	0,	0
  2.20408E+02,	1.00000E+01,	-3.04106E-02,	4.21475E+01,	2.04615E+02,	-7.81764E+01,	0.00000E+00,	0,	0
  1.74194E+02,	1.00000E+01,	-3.04106E-02,	4.53976E+01,	2.12736E+02,	-9.00615E+01,	0.00000E+00,	0,	0
  1.37580E+02,	1.00000E+01,	-3.04106E-02,	4.90542E+01,	2.21768E+02,	-1.04016E+02,	0.00000E+00,	0,	0
  1.09091E+02,	1.00000E+01,	-3.04106E-02,	5.31076E+01,	2.31630E+02,	-1.20464E+02,	0.00000E+00,	0,	0
  8.70968E+01,	1.00000E+01,	-3.04106E-02,	5.87924E+01,	2.42631E+02,	-1.39886E+02,	0.00000E+00,	0,	0
  6.83544E+01,	1.00000E+01,	-3.04106E-02,	6.37952E+01,	2.56250E+02,	-1.65697E+02,	0.00000E+00,	0,	0
  5.45455E+01,	1.00000E+01,	-3.04106E-02,	6.92468E+01,	2.67072E+02,	-1.88977E+02,	0.00000E+00,	0,	0
  4.28571E+01,	1.00000E+01,	-3.04106E-02,	7.27618E+01,	2.81379E+02,	-2.23771E+02,	0.00000E+00,	0,	0
  3.39623E+01,	1.00000E+01,	-3.04106E-02,	7.64793E+01,	2.94364E+02,	-2.65428E+02,	0.00000E+00,	0,	0
  2.68657E+01,	1.00000E+01,	-3.04106E-02,	8.03281E+01,	3.12677E+02,	-3.16717E+02,	0.00000E+00,	0,	0
  2.13439E+01,	1.00000E+01,	-3.04106E-02,	8.41390E+01,	3.31626E+02,	-3.77875E+02,	0.00000E+00,	0,	0
  1.73077E+01,	1.00000E+01,	-3.04106E-02,	8.78143E+01,	3.50401E+02,	-4.45729E+02,	0.00000E+00,	0,	0
  1.36364E+01,	1.00000E+01,	-3.04106E-02,	9.28379E+01,	3.74290E+02,	-5.40177E+02,	0.00000E+00,	0,	0
  1.07143E+01,	1.00000E+01,	-3.04106E-02,	9.57533E+01,	4.00967E+02,	-6.58987E+02,	0.00000E+00,	0,	0
  8.49057E+00,	1.00000E+01,	-3.04106E-02,	9.99411E+01,	4.31368E+02,	-8.02048E+02,	0.00000E+00,	0,	0
  6.71642E+00,	1.00000E+01,	-3.04106E-02,	1.02446E+02,	4.66420E+02,	-9.80162E+02,	0.00000E+00,	0,	0
  5.29412E+00,	1.00000E+01,	-3.04106E-02,	1.05385E+02,	5.09669E+02,	-1.20509E+03,	0.00000E+00,	0,	0
  4.16667E+00,	1.00000E+01,	-3.04106E-02,	1.08862E+02,	5.63654E+02,	-1.48781E+03,	0.00000E+00,	0,	0
  3.30882E+00,	1.00000E+01,	-3.04106E-02,	1.15392E+02,	6.28413E+02,	-1.82304E+03,	0.00000E+00,	0,	0
  2.61628E+00,	1.00000E+01,	-3.04106E-02,	1.19360E+02,	7.12968E+02,	-2.24612E+03,	0.00000E+00,	0,	0
  2.07373E+00,	1.00000E+01,	-3.04106E-02,	1.24132E+02,	8.22243E+02,	-2.76232E+03,	0.00000E+00,	0,	0
  1.64234E+00,	1.00000E+01,	-3.04106E-02,	1.29924E+02,	9.58703E+02,	-3.40060E+03,	0.00000E+00,	0,	0
  1.30058E+00,	1.00000E+01,	-3.04106E-02,	1.34096E+02,	1.14166E+03,	-4.18084E+03,	0.00000E+00,	0,	0
  1.03211E+00,	1.00000E+01,	-3.04106E-02,	1.38543E+02,	1.37928E+03,	-5.12946E+03,	0.00000E+00,	0,	0
  8.15217E-01,	1.00000E+01,	-3.04106E-02,	1.45491E+02,	1.69175E+03,	-6.29780E+03,	0.00000E+00,	0,	0
  6.46552E-01,	1.00000E+01,	-3.04106E-02,	1.50301E+02,	2.10051E+03,	-7.69781E+03,	0.00000E+00,	0,	0
  5.11364E-01,	1.00000E+01,	-3.04106E-02,	1.55313E+02,	2.56961E+03,	-9.41779E+03,	0.00000E+00,	0,	0
  4.07609E-01,	1.00000E+01,	-3.04106E-02,	1.61391E+02,	3.23339E+03,	-1.14058E+04,	0.00000E+00,	0,	0
  3.21429E-01,	1.00000E+01,	-3.04106E-02,	1.68528E+02,	4.13025E+03,	-1.40085E+04,	0.00000E+00,	0,	0
  2.54525E-01,	1.00000E+01,	-3.04106E-02,	1.77297E+02,	5.28291E+03,	-1.69085E+04,	0.00000E+00,	0,	0
  2.01613E-01,	1.00000E+01,	-3.04106E-02,	1.88137E+02,	6.71416E+03,	-2.03503E+04,	0.00000E+00,	0,	0
  1.59574E-01,	1.00000E+01,	-3.04106E-02,	2.01587E+02,	8.49363E+03,	-2.44144E+04,	0.00000E+00,	0,	0
  1.26689E-01,	1.00000E+01,	-3.04106E-02,	2.35474E+02,	1.06668E+04,	-2.88877E+04,	0.00000E+00,	0,	0
  1.00446E-01,	1.00000E+01,	-3.04106E-02,	2.56330E+02,	1.30877E+04,	-3.52611E+04,	0.00000E+00,	0,	0