Z60W Data File: Version 1.1
CorrTest for Windows: SN CS310H1805157  V5.2.1111.9  2.5H6.220118
Sweep Frequency: Control Voltage
  Date:5-8-2026   Time:22:10:46
  Begin Information:            Cell Information
      Surface Area:           1
      Density:                7.8
      Weight:                 28
  End Information:              Cell Information
  Freq (Hz)     Ampl(mV)       Bias(V)      Time(Sec)       Z'(Ohm.cm^2)    Z''(Ohm.cm^2)        GD       Err      Range
End Comments
  3.07200E+05,	1.00000E+01,	-3.33647E-02,	2.19379E-02,	4.76130E+02,	-3.79630E+02,	0.00000E+00,	0,	0
  2.76480E+05,	1.00000E+01,	-3.33647E-02,	1.62325E+00,	4.91505E+02,	-4.11370E+02,	0.00000E+00,	0,	0
  1.97486E+05,	1.00000E+01,	-3.33647E-02,	2.52842E+00,	5.72376E+02,	-5.31234E+02,	0.00000E+00,	0,	0
  1.53600E+05,	1.00000E+01,	-3.33647E-02,	3.43676E+00,	6.54655E+02,	-6.33694E+02,	0.00000E+00,	0,	0
  1.25673E+05,	1.00000E+01,	-3.33647E-02,	4.33780E+00,	7.42068E+02,	-7.19045E+02,	0.00000E+00,	0,	0
  9.87429E+04,	1.00000E+01,	-3.33647E-02,	5.23251E+00,	8.76956E+02,	-8.08970E+02,	0.00000E+00,	0,	0
  7.68000E+04,	1.00000E+01,	-3.33647E-02,	6.11937E+00,	1.06825E+03,	-9.06294E+02,	0.00000E+00,	0,	0
  6.01043E+04,	1.00000E+01,	-3.33647E-02,	8.21901E+00,	1.26097E+03,	-9.43590E+02,	0.00000E+00,	0,	0
  4.93714E+04,	1.00000E+01,	-3.33647E-02,	9.77786E+00,	1.42810E+03,	-9.71994E+02,	0.00000E+00,	0,	0
  3.84000E+04,	1.00000E+01,	-3.33647E-02,	1.06773E+01,	1.65059E+03,	-9.49849E+02,	0.00000E+00,	0,	0
  3.00522E+04,	1.00000E+01,	-3.33647E-02,	1.15155E+01,	2.03706E+03,	-8.74190E+02,	0.00000E+00,	0,	0
  2.38345E+04,	1.00000E+01,	-3.33647E-02,	1.23857E+01,	1.98050E+03,	-8.11012E+02,	0.00000E+00,	0,	0
  1.86811E+04,	1.00000E+01,	-3.33647E-02,	1.32237E+01,	2.11286E+03,	-5.40216E+02,	0.00000E+00,	0,	0
  1.47064E+04,	1.00000E+01,	-3.33647E-02,	1.41782E+01,	2.22337E+03,	-6.24930E+02,	0.00000E+00,	0,	0
  1.15200E+04,	1.00000E+01,	-3.33647E-02,	1.51359E+01,	2.32621E+03,	-5.54835E+02,	0.00000E+00,	0,	0
  9.60000E+03,	1.00000E+01,	-3.33647E-02,	1.67145E+01,	2.37274E+03,	-4.77864E+02,	0.00000E+00,	0,	0
  7.51304E+03,	1.00000E+01,	-3.33647E-02,	1.75966E+01,	2.40696E+03,	-4.02397E+02,	0.00000E+00,	0,	0
  5.76000E+03,	1.00000E+01,	-3.33647E-02,	1.84930E+01,	2.44712E+03,	-3.51208E+02,	0.00000E+00,	0,	0
  4.54737E+03,	1.00000E+01,	-3.33647E-02,	1.93641E+01,	2.48766E+03,	-3.19520E+02,	0.00000E+00,	0,	0
  3.60000E+03,	1.00000E+01,	-3.33647E-02,	2.03469E+01,	2.51302E+03,	-2.99927E+02,	0.00000E+00,	0,	0
  2.88000E+03,	1.00000E+01,	-3.33647E-02,	2.12366E+01,	2.53290E+03,	-3.17874E+02,	0.00000E+00,	0,	0
  2.27368E+03,	1.00000E+01,	-3.33647E-02,	2.23652E+01,	2.54875E+03,	-3.13427E+02,	0.00000E+00,	0,	0
  1.78144E+03,	1.00000E+01,	-3.33647E-02,	2.31821E+01,	2.59400E+03,	-3.63002E+02,	0.00000E+00,	0,	0
  1.41639E+03,	1.00000E+01,	-3.33647E-02,	2.40722E+01,	2.61301E+03,	-3.03155E+02,	0.00000E+00,	0,	0
  1.12208E+03,	1.00000E+01,	-3.33647E-02,	2.51145E+01,	2.61732E+03,	-3.25940E+02,	0.00000E+00,	0,	0
  9.00000E+02,	1.00000E+01,	-3.33647E-02,	3.01056E+01,	2.75627E+03,	-3.61343E+02,	0.00000E+00,	0,	0
  7.20000E+02,	1.00000E+01,	-3.33647E-02,	3.14785E+01,	2.81651E+03,	-3.72884E+02,	0.00000E+00,	0,	0
  5.68421E+02,	1.00000E+01,	-3.33647E-02,	3.28529E+01,	2.88055E+03,	-3.83087E+02,	0.00000E+00,	0,	0
  4.40816E+02,	1.00000E+01,	-3.33647E-02,	3.58792E+01,	2.95196E+03,	-3.84601E+02,	0.00000E+00,	0,	0
  3.54098E+02,	1.00000E+01,	-3.33647E-02,	3.82237E+01,	3.00884E+03,	-3.88206E+02,	0.00000E+00,	0,	0
  2.76923E+02,	1.00000E+01,	-3.33647E-02,	4.08562E+01,	3.07230E+03,	-3.93580E+02,	0.00000E+00,	0,	0
  2.20408E+02,	1.00000E+01,	-3.33647E-02,	4.37687E+01,	3.12848E+03,	-4.01371E+02,	0.00000E+00,	0,	0
  1.74194E+02,	1.00000E+01,	-3.33647E-02,	4.70346E+01,	3.18917E+03,	-4.13649E+02,	0.00000E+00,	0,	0
  1.37580E+02,	1.00000E+01,	-3.33647E-02,	5.06966E+01,	3.24588E+03,	-4.37805E+02,	0.00000E+00,	0,	0
  1.09091E+02,	1.00000E+01,	-3.33647E-02,	5.47507E+01,	3.30875E+03,	-4.68936E+02,	0.00000E+00,	0,	0
  8.70968E+01,	1.00000E+01,	-3.33647E-02,	6.04287E+01,	3.38042E+03,	-5.10063E+02,	0.00000E+00,	0,	0
  6.83544E+01,	1.00000E+01,	-3.33647E-02,	6.54564E+01,	3.47344E+03,	-5.67997E+02,	0.00000E+00,	0,	0
  5.45455E+01,	1.00000E+01,	-3.33647E-02,	7.09177E+01,	3.51035E+03,	-5.91451E+02,	0.00000E+00,	0,	0
  4.28571E+01,	1.00000E+01,	-3.33647E-02,	7.44371E+01,	3.58866E+03,	-6.58873E+02,	0.00000E+00,	0,	0
  3.39623E+01,	1.00000E+01,	-3.33647E-02,	7.81539E+01,	3.65521E+03,	-7.53404E+02,	0.00000E+00,	0,	0
  2.68657E+01,	1.00000E+01,	-3.33647E-02,	8.19855E+01,	3.76069E+03,	-8.42756E+02,	0.00000E+00,	0,	0
  2.13439E+01,	1.00000E+01,	-3.33647E-02,	8.57831E+01,	3.86413E+03,	-9.48171E+02,	0.00000E+00,	0,	0
  1.73077E+01,	1.00000E+01,	-3.33647E-02,	8.94389E+01,	3.96393E+03,	-1.06198E+03,	0.00000E+00,	0,	0
  1.36364E+01,	1.00000E+01,	-3.33647E-02,	9.44579E+01,	4.08869E+03,	-1.21389E+03,	0.00000E+00,	0,	0
  1.07143E+01,	1.00000E+01,	-3.33647E-02,	9.73798E+01,	4.21723E+03,	-1.39891E+03,	0.00000E+00,	0,	0
  8.49057E+00,	1.00000E+01,	-3.33647E-02,	1.01577E+02,	4.35750E+03,	-1.61380E+03,	0.00000E+00,	0,	0
  6.71642E+00,	1.00000E+01,	-3.33647E-02,	1.04068E+02,	4.50562E+03,	-1.87144E+03,	0.00000E+00,	0,	0
  5.29412E+00,	1.00000E+01,	-3.33647E-02,	1.07003E+02,	4.66925E+03,	-2.18641E+03,	0.00000E+00,	0,	0
  4.16667E+00,	1.00000E+01,	-3.33647E-02,	1.10489E+02,	4.85212E+03,	-2.57045E+03,	0.00000E+00,	0,	0
  3.30882E+00,	1.00000E+01,	-3.33647E-02,	1.14721E+02,	5.04923E+03,	-3.02163E+03,	0.00000E+00,	0,	0
  2.61628E+00,	1.00000E+01,	-3.33647E-02,	1.18674E+02,	5.26518E+03,	-3.57920E+03,	0.00000E+00,	0,	0
  2.07373E+00,	1.00000E+01,	-3.33647E-02,	1.23445E+02,	5.50456E+03,	-4.25400E+03,	0.00000E+00,	0,	0
  1.64234E+00,	1.00000E+01,	-3.33647E-02,	1.29214E+02,	5.77217E+03,	-5.09083E+03,	0.00000E+00,	0,	0
  1.30058E+00,	1.00000E+01,	-3.33647E-02,	1.33360E+02,	6.05586E+03,	-6.10799E+03,	0.00000E+00,	0,	0
  1.03211E+00,	1.00000E+01,	-3.33647E-02,	1.37767E+02,	6.39160E+03,	-7.35715E+03,	0.00000E+00,	0,	0
  8.15217E-01,	1.00000E+01,	-3.33647E-02,	1.44722E+02,	6.75060E+03,	-8.93748E+03,	0.00000E+00,	0,	0
  6.46552E-01,	1.00000E+01,	-3.33647E-02,	1.53801E+02,	7.17135E+03,	-1.08605E+04,	0.00000E+00,	0,	0
  5.11364E-01,	1.00000E+01,	-3.33647E-02,	1.58807E+02,	7.50096E+03,	-1.34379E+04,	0.00000E+00,	0,	0
  4.07609E-01,	1.00000E+01,	-3.33647E-02,	1.64844E+02,	8.06082E+03,	-1.63269E+04,	0.00000E+00,	0,	0
  3.21429E-01,	1.00000E+01,	-3.33647E-02,	1.71964E+02,	8.90918E+03,	-2.05385E+04,	0.00000E+00,	0,	0
  2.54525E-01,	1.00000E+01,	-3.33647E-02,	1.80730E+02,	9.76429E+03,	-2.51329E+04,	0.00000E+00,	0,	0
  2.01613E-01,	1.00000E+01,	-3.33647E-02,	1.91558E+02,	1.08227E+04,	-3.08814E+04,	0.00000E+00,	0,	0
  1.59574E-01,	1.00000E+01,	-3.33647E-02,	2.04999E+02,	1.21732E+04,	-3.80307E+04,	0.00000E+00,	0,	0
  1.26689E-01,	1.00000E+01,	-3.33647E-02,	2.21891E+02,	1.38699E+04,	-4.67342E+04,	0.00000E+00,	0,	0
  1.00446E-01,	1.00000E+01,	-3.33647E-02,	2.42745E+02,	1.60588E+04,	-5.76312E+04,	0.00000E+00,	0,	0