Z60W Data File: Version 1.1
CorrTest for Windows: SN CS310H1805157  V5.2.1111.9  2.5H6.220118
Sweep Frequency: Control Voltage
  Date:5-8-2026   Time:22:33:11
  Begin Information:            Cell Information
      Surface Area:           1
      Density:                7.8
      Weight:                 28
  End Information:              Cell Information
  Freq (Hz)     Ampl(mV)       Bias(V)      Time(Sec)       Z'(Ohm.cm^2)    Z''(Ohm.cm^2)        GD       Err      Range
End Comments
  3.07200E+05,	1.00000E+01,	-3.42925E-02,	1.96174E-02,	4.79316E+02,	-5.50693E+02,	0.00000E+00,	0,	0
  2.76480E+05,	1.00000E+01,	-3.42925E-02,	1.63581E+00,	4.87783E+02,	-5.95899E+02,	0.00000E+00,	0,	0
  1.97486E+05,	1.00000E+01,	-3.42925E-02,	2.52854E+00,	5.37478E+02,	-8.06576E+02,	0.00000E+00,	0,	0
  1.53600E+05,	1.00000E+01,	-3.42925E-02,	3.42489E+00,	6.07495E+02,	-9.97902E+02,	0.00000E+00,	0,	0
  1.25673E+05,	1.00000E+01,	-3.42925E-02,	4.34044E+00,	6.90678E+02,	-1.19819E+03,	0.00000E+00,	0,	0
  9.87429E+04,	1.00000E+01,	-3.42925E-02,	5.23225E+00,	8.01584E+02,	-1.45627E+03,	0.00000E+00,	0,	0
  7.68000E+04,	1.00000E+01,	-3.42925E-02,	6.12034E+00,	9.68996E+02,	-1.77935E+03,	0.00000E+00,	0,	0
  6.01043E+04,	1.00000E+01,	-3.42925E-02,	8.21852E+00,	1.24602E+03,	-2.12018E+03,	0.00000E+00,	0,	0
  4.93714E+04,	1.00000E+01,	-3.42925E-02,	9.78702E+00,	1.48900E+03,	-2.42823E+03,	0.00000E+00,	0,	0
  3.84000E+04,	1.00000E+01,	-3.42925E-02,	1.06861E+01,	1.93991E+03,	-2.87277E+03,	0.00000E+00,	0,	0
  3.00522E+04,	1.00000E+01,	-3.42925E-02,	1.15606E+01,	3.64491E+03,	-3.92382E+03,	0.00000E+00,	0,	0
  2.38345E+04,	1.00000E+01,	-3.42925E-02,	1.24282E+01,	3.09935E+03,	-3.64492E+03,	0.00000E+00,	0,	0
  1.86811E+04,	1.00000E+01,	-3.42925E-02,	1.32665E+01,	2.44295E+03,	-5.39960E+03,	0.00000E+00,	0,	0
  1.47064E+04,	1.00000E+01,	-3.42925E-02,	1.42294E+01,	4.83140E+03,	-3.96475E+03,	0.00000E+00,	0,	0
  1.15200E+04,	1.00000E+01,	-3.42925E-02,	1.51964E+01,	5.53025E+03,	-4.09151E+03,	0.00000E+00,	0,	0
  9.60000E+03,	1.00000E+01,	-3.42925E-02,	1.67650E+01,	6.26790E+03,	-3.73073E+03,	0.00000E+00,	0,	0
  7.51304E+03,	1.00000E+01,	-3.42925E-02,	1.76462E+01,	6.99277E+03,	-3.39625E+03,	0.00000E+00,	0,	0
  5.76000E+03,	1.00000E+01,	-3.42925E-02,	1.85430E+01,	7.60181E+03,	-3.00870E+03,	0.00000E+00,	0,	0
  4.54737E+03,	1.00000E+01,	-3.42925E-02,	1.93970E+01,	8.06470E+03,	-2.78590E+03,	0.00000E+00,	0,	0
  3.60000E+03,	1.00000E+01,	-3.42925E-02,	2.03859E+01,	8.30847E+03,	-2.43855E+03,	0.00000E+00,	0,	0
  2.88000E+03,	1.00000E+01,	-3.42925E-02,	2.12761E+01,	8.63567E+03,	-2.00857E+03,	0.00000E+00,	0,	0
  2.27368E+03,	1.00000E+01,	-3.42925E-02,	2.24037E+01,	8.88184E+03,	-2.15493E+03,	0.00000E+00,	0,	0
  1.78144E+03,	1.00000E+01,	-3.42925E-02,	2.32294E+01,	8.80966E+03,	-1.14048E+03,	0.00000E+00,	0,	0
  1.41639E+03,	1.00000E+01,	-3.42925E-02,	2.41305E+01,	9.54412E+03,	-1.74201E+03,	0.00000E+00,	0,	0
  1.12208E+03,	1.00000E+01,	-3.42925E-02,	2.51966E+01,	1.00451E+04,	-1.68938E+03,	0.00000E+00,	0,	0
  9.00000E+02,	1.00000E+01,	-3.42925E-02,	3.02033E+01,	9.60976E+03,	-1.86010E+03,	0.00000E+00,	0,	0
  7.20000E+02,	1.00000E+01,	-3.42925E-02,	3.15685E+01,	9.85372E+03,	-1.91706E+03,	0.00000E+00,	0,	0
  5.68421E+02,	1.00000E+01,	-3.42925E-02,	3.29294E+01,	1.01464E+04,	-1.95193E+03,	0.00000E+00,	0,	0
  4.40816E+02,	1.00000E+01,	-3.42925E-02,	3.59785E+01,	1.05327E+04,	-2.05465E+03,	0.00000E+00,	0,	0
  3.54098E+02,	1.00000E+01,	-3.42925E-02,	3.83241E+01,	1.09080E+04,	-2.07763E+03,	0.00000E+00,	0,	0
  2.76923E+02,	1.00000E+01,	-3.42925E-02,	4.09682E+01,	1.13357E+04,	-2.06093E+03,	0.00000E+00,	0,	0
  2.20408E+02,	1.00000E+01,	-3.42925E-02,	4.38728E+01,	1.17209E+04,	-1.99788E+03,	0.00000E+00,	0,	0
  1.74194E+02,	1.00000E+01,	-3.42925E-02,	4.71256E+01,	1.20823E+04,	-1.90814E+03,	0.00000E+00,	0,	0
  1.37580E+02,	1.00000E+01,	-3.42925E-02,	5.07934E+01,	1.24264E+04,	-1.79067E+03,	0.00000E+00,	0,	0
  1.09091E+02,	1.00000E+01,	-3.42925E-02,	5.48677E+01,	1.27184E+04,	-1.69672E+03,	0.00000E+00,	0,	0
  8.70968E+01,	1.00000E+01,	-3.42925E-02,	6.30253E+01,	1.30204E+04,	-1.62384E+03,	0.00000E+00,	0,	0
  6.83544E+01,	1.00000E+01,	-3.42925E-02,	6.80448E+01,	1.33518E+04,	-1.61790E+03,	0.00000E+00,	0,	0
  5.45455E+01,	1.00000E+01,	-3.42925E-02,	7.34840E+01,	1.34308E+04,	-1.49020E+03,	0.00000E+00,	0,	0
  4.28571E+01,	1.00000E+01,	-3.42925E-02,	7.70231E+01,	1.36344E+04,	-1.50225E+03,	0.00000E+00,	0,	0
  3.39623E+01,	1.00000E+01,	-3.42925E-02,	8.07421E+01,	1.37855E+04,	-1.62190E+03,	0.00000E+00,	0,	0
  2.68657E+01,	1.00000E+01,	-3.42925E-02,	8.45692E+01,	1.40553E+04,	-1.69169E+03,	0.00000E+00,	0,	0
  2.13439E+01,	1.00000E+01,	-3.42925E-02,	8.83877E+01,	1.43018E+04,	-1.79908E+03,	0.00000E+00,	0,	0
  1.73077E+01,	1.00000E+01,	-3.42925E-02,	9.20606E+01,	1.45330E+04,	-1.93459E+03,	0.00000E+00,	0,	0
  1.36364E+01,	1.00000E+01,	-3.42925E-02,	9.70861E+01,	1.48151E+04,	-2.13556E+03,	0.00000E+00,	0,	0
  1.07143E+01,	1.00000E+01,	-3.42925E-02,	1.00006E+02,	1.50981E+04,	-2.38474E+03,	0.00000E+00,	0,	0
  8.49057E+00,	1.00000E+01,	-3.42925E-02,	1.04217E+02,	1.54105E+04,	-2.67774E+03,	0.00000E+00,	0,	0
  6.71642E+00,	1.00000E+01,	-3.42925E-02,	1.06726E+02,	1.57040E+04,	-3.02667E+03,	0.00000E+00,	0,	0
  5.29412E+00,	1.00000E+01,	-3.42925E-02,	1.09671E+02,	1.60493E+04,	-3.47341E+03,	0.00000E+00,	0,	0
  4.16667E+00,	1.00000E+01,	-3.42925E-02,	1.13156E+02,	1.64416E+04,	-3.99823E+03,	0.00000E+00,	0,	0
  3.30882E+00,	1.00000E+01,	-3.42925E-02,	1.17387E+02,	1.68674E+04,	-4.60896E+03,	0.00000E+00,	0,	0
  2.61628E+00,	1.00000E+01,	-3.42925E-02,	1.21342E+02,	1.73308E+04,	-5.35067E+03,	0.00000E+00,	0,	0
  2.07373E+00,	1.00000E+01,	-3.42925E-02,	1.26097E+02,	1.78566E+04,	-6.23702E+03,	0.00000E+00,	0,	0
  1.64234E+00,	1.00000E+01,	-3.42925E-02,	1.31876E+02,	1.84523E+04,	-7.30441E+03,	0.00000E+00,	0,	0
  1.30058E+00,	1.00000E+01,	-3.42925E-02,	1.36038E+02,	1.90281E+04,	-8.58545E+03,	0.00000E+00,	0,	0
  1.03211E+00,	1.00000E+01,	-3.42925E-02,	1.40434E+02,	1.98120E+04,	-1.00196E+04,	0.00000E+00,	0,	0
  8.15217E-01,	1.00000E+01,	-3.42925E-02,	1.47389E+02,	2.04472E+04,	-1.20233E+04,	0.00000E+00,	0,	0
  6.46552E-01,	1.00000E+01,	-3.42925E-02,	1.52229E+02,	2.12424E+04,	-1.42218E+04,	0.00000E+00,	0,	0
  5.11364E-01,	1.00000E+01,	-3.42925E-02,	1.57223E+02,	2.21500E+04,	-1.80556E+04,	0.00000E+00,	0,	0
  4.07609E-01,	1.00000E+01,	-3.42925E-02,	1.63275E+02,	2.31925E+04,	-2.13808E+04,	0.00000E+00,	0,	0
  3.21429E-01,	1.00000E+01,	-3.42925E-02,	1.70401E+02,	2.53916E+04,	-2.64173E+04,	0.00000E+00,	0,	0
  2.54525E-01,	1.00000E+01,	-3.42925E-02,	1.79175E+02,	2.66708E+04,	-3.15799E+04,	0.00000E+00,	0,	0
  2.01613E-01,	1.00000E+01,	-3.42925E-02,	1.90022E+02,	2.82510E+04,	-3.82696E+04,	0.00000E+00,	0,	0
  1.59574E-01,	1.00000E+01,	-3.42925E-02,	2.03487E+02,	3.01098E+04,	-4.65709E+04,	0.00000E+00,	0,	0
  1.26689E-01,	1.00000E+01,	-3.42925E-02,	2.20390E+02,	3.22882E+04,	-5.66695E+04,	0.00000E+00,	0,	0
  1.00446E-01,	1.00000E+01,	-3.42925E-02,	2.41260E+02,	3.50213E+04,	-6.95688E+04,	0.00000E+00,	0,	0