Z60W Data File: Version 1.1
CorrTest for Windows: SN CS310H1805157  V5.2.1111.9  2.5H6.220118
Sweep Frequency: Control Voltage
  Date:5-8-2026   Time:19:31:10
  Begin Information:            Cell Information
      Surface Area:           1
      Density:                7.8
      Weight:                 28
  End Information:              Cell Information
  Freq (Hz)     Ampl(mV)       Bias(V)      Time(Sec)       Z'(Ohm.cm^2)    Z''(Ohm.cm^2)        GD       Err      Range
End Comments
  3.07200E+05,	1.00000E+01,	-1.94535E-02,	2.49662E-02,	-1.19480E+00,	3.42692E+00,	0.00000E+00,	0,	0
  2.76480E+05,	1.00000E+01,	-1.94535E-02,	1.65280E+00,	-5.89935E-01,	2.47314E+00,	0.00000E+00,	0,	0
  1.97486E+05,	1.00000E+01,	-1.94535E-02,	2.55261E+00,	2.92784E-01,	1.72691E+00,	0.00000E+00,	0,	0
  1.53600E+05,	1.00000E+01,	-1.94535E-02,	3.45826E+00,	6.42109E-01,	1.28521E+00,	0.00000E+00,	0,	0
  1.25673E+05,	1.00000E+01,	-1.94535E-02,	4.35797E+00,	8.51055E-01,	9.77866E-01,	0.00000E+00,	0,	0
  9.87429E+04,	1.00000E+01,	-1.94535E-02,	5.32917E+00,	1.03677E+00,	6.91976E-01,	0.00000E+00,	0,	0
  7.68000E+04,	1.00000E+01,	-1.94535E-02,	6.26090E+00,	1.15001E+00,	4.85876E-01,	0.00000E+00,	0,	0
  6.01043E+04,	1.00000E+01,	-1.94535E-02,	9.47018E+00,	1.25398E+00,	2.53504E-01,	0.00000E+00,	0,	0
  4.93714E+04,	1.00000E+01,	-1.94535E-02,	1.10504E+01,	1.28540E+00,	1.22875E-01,	0.00000E+00,	0,	0
  3.84000E+04,	1.00000E+01,	-1.94535E-02,	1.19558E+01,	1.31855E+00,	-3.71045E-02,	0.00000E+00,	0,	0
  3.00522E+04,	1.00000E+01,	-1.94535E-02,	1.28221E+01,	1.35183E+00,	-1.81290E-01,	0.00000E+00,	0,	0
  2.38345E+04,	1.00000E+01,	-1.94535E-02,	1.36898E+01,	1.38671E+00,	-3.21866E-01,	0.00000E+00,	0,	0
  1.86811E+04,	1.00000E+01,	-1.94535E-02,	1.45449E+01,	1.42857E+00,	-4.73691E-01,	0.00000E+00,	0,	0
  1.47064E+04,	1.00000E+01,	-1.94535E-02,	1.55022E+01,	1.47753E+00,	-6.35205E-01,	0.00000E+00,	0,	0
  1.15200E+04,	1.00000E+01,	-1.94535E-02,	1.64716E+01,	1.53420E+00,	-8.19243E-01,	0.00000E+00,	0,	0
  9.60000E+03,	1.00000E+01,	-1.94535E-02,	1.80350E+01,	1.58279E+00,	-9.74482E-01,	0.00000E+00,	0,	0
  7.51304E+03,	1.00000E+01,	-1.94535E-02,	1.89200E+01,	1.65338E+00,	-1.21200E+00,	0.00000E+00,	0,	0
  5.76000E+03,	1.00000E+01,	-1.94535E-02,	1.98114E+01,	1.74018E+00,	-1.52573E+00,	0.00000E+00,	0,	0
  4.54737E+03,	1.00000E+01,	-1.94535E-02,	2.06644E+01,	1.82463E+00,	-1.86138E+00,	0.00000E+00,	0,	0
  3.60000E+03,	1.00000E+01,	-1.94535E-02,	2.16714E+01,	1.92238E+00,	-2.26825E+00,	0.00000E+00,	0,	0
  2.88000E+03,	1.00000E+01,	-1.94535E-02,	2.25679E+01,	2.02602E+00,	-2.74076E+00,	0.00000E+00,	0,	0
  2.27368E+03,	1.00000E+01,	-1.94535E-02,	2.48532E+01,	2.13873E+00,	-3.32705E+00,	0.00000E+00,	0,	0
  1.78144E+03,	1.00000E+01,	-1.94535E-02,	2.56480E+01,	2.28831E+00,	-4.11194E+00,	0.00000E+00,	0,	0
  1.41639E+03,	1.00000E+01,	-1.94535E-02,	2.65492E+01,	2.46386E+00,	-5.02396E+00,	0.00000E+00,	0,	0
  1.12208E+03,	1.00000E+01,	-1.94535E-02,	2.75788E+01,	2.66535E+00,	-6.16270E+00,	0.00000E+00,	0,	0
  9.00000E+02,	1.00000E+01,	-1.94535E-02,	3.25629E+01,	2.93153E+00,	-7.52028E+00,	0.00000E+00,	0,	0
  7.20000E+02,	1.00000E+01,	-1.94535E-02,	3.39278E+01,	3.22707E+00,	-9.17097E+00,	0.00000E+00,	0,	0
  5.68421E+02,	1.00000E+01,	-1.94535E-02,	3.52951E+01,	3.63005E+00,	-1.13295E+01,	0.00000E+00,	0,	0
  4.40816E+02,	1.00000E+01,	-1.94535E-02,	3.83106E+01,	4.19828E+00,	-1.42578E+01,	0.00000E+00,	0,	0
  3.54098E+02,	1.00000E+01,	-1.94535E-02,	4.06555E+01,	4.81451E+00,	-1.73328E+01,	0.00000E+00,	0,	0
  2.76923E+02,	1.00000E+01,	-1.94535E-02,	4.32794E+01,	5.71339E+00,	-2.15712E+01,	0.00000E+00,	0,	0
  2.20408E+02,	1.00000E+01,	-1.94535E-02,	4.61996E+01,	6.79645E+00,	-2.64272E+01,	0.00000E+00,	0,	0
  1.74194E+02,	1.00000E+01,	-1.94535E-02,	4.94596E+01,	8.24824E+00,	-3.25320E+01,	0.00000E+00,	0,	0
  1.37580E+02,	1.00000E+01,	-1.94535E-02,	5.31138E+01,	1.01459E+01,	-4.00180E+01,	0.00000E+00,	0,	0
  1.09091E+02,	1.00000E+01,	-1.94535E-02,	5.71882E+01,	1.25705E+01,	-4.90019E+01,	0.00000E+00,	0,	0
  8.70968E+01,	1.00000E+01,	-1.94535E-02,	6.28734E+01,	1.55871E+01,	-5.96054E+01,	0.00000E+00,	0,	0
  6.83544E+01,	1.00000E+01,	-1.94535E-02,	6.78840E+01,	1.98425E+01,	-7.36982E+01,	0.00000E+00,	0,	0
  5.45455E+01,	1.00000E+01,	-1.94535E-02,	7.33742E+01,	2.52835E+01,	-8.77482E+01,	0.00000E+00,	0,	0
  4.28571E+01,	1.00000E+01,	-1.94535E-02,	7.69101E+01,	3.24077E+01,	-1.06829E+02,	0.00000E+00,	0,	0
  3.39623E+01,	1.00000E+01,	-1.94535E-02,	8.06433E+01,	4.02986E+01,	-1.28518E+02,	0.00000E+00,	0,	0
  2.68657E+01,	1.00000E+01,	-1.94535E-02,	8.44905E+01,	5.14647E+01,	-1.54871E+02,	0.00000E+00,	0,	0
  2.13439E+01,	1.00000E+01,	-1.94535E-02,	8.83331E+01,	6.48004E+01,	-1.84889E+02,	0.00000E+00,	0,	0
  1.73077E+01,	1.00000E+01,	-1.94535E-02,	9.50057E+01,	7.93615E+01,	-2.17006E+02,	0.00000E+00,	0,	0
  1.36364E+01,	1.00000E+01,	-1.94535E-02,	1.00027E+02,	9.85944E+01,	-2.58818E+02,	0.00000E+00,	0,	0
  1.07143E+01,	1.00000E+01,	-1.94535E-02,	1.02956E+02,	1.21296E+02,	-3.08461E+02,	0.00000E+00,	0,	0
  8.49057E+00,	1.00000E+01,	-1.94535E-02,	1.07148E+02,	1.46640E+02,	-3.65429E+02,	0.00000E+00,	0,	0
  6.71642E+00,	1.00000E+01,	-1.94535E-02,	1.09667E+02,	1.75781E+02,	-4.33067E+02,	0.00000E+00,	0,	0
  5.29412E+00,	1.00000E+01,	-1.94535E-02,	1.12591E+02,	2.09622E+02,	-5.15096E+02,	0.00000E+00,	0,	0
  4.16667E+00,	1.00000E+01,	-1.94535E-02,	1.16048E+02,	2.48859E+02,	-6.14811E+02,	0.00000E+00,	0,	0
  3.30882E+00,	1.00000E+01,	-1.94535E-02,	1.20282E+02,	2.92186E+02,	-7.30334E+02,	0.00000E+00,	0,	0
  2.61628E+00,	1.00000E+01,	-1.94535E-02,	1.24247E+02,	3.42898E+02,	-8.71686E+02,	0.00000E+00,	0,	0
  2.07373E+00,	1.00000E+01,	-1.94535E-02,	1.29032E+02,	4.00102E+02,	-1.04086E+03,	0.00000E+00,	0,	0
  1.64234E+00,	1.00000E+01,	-1.94535E-02,	1.34832E+02,	4.65299E+02,	-1.24628E+03,	0.00000E+00,	0,	0
  1.30058E+00,	1.00000E+01,	-1.94535E-02,	1.38999E+02,	5.39222E+02,	-1.49450E+03,	0.00000E+00,	0,	0
  1.03211E+00,	1.00000E+01,	-1.94535E-02,	1.43414E+02,	6.21879E+02,	-1.79587E+03,	0.00000E+00,	0,	0
  8.15217E-01,	1.00000E+01,	-1.94535E-02,	1.50357E+02,	7.14238E+02,	-2.16897E+03,	0.00000E+00,	0,	0
  6.46552E-01,	1.00000E+01,	-1.94535E-02,	1.59454E+02,	8.07669E+02,	-2.61334E+03,	0.00000E+00,	0,	0
  5.11364E-01,	1.00000E+01,	-1.94535E-02,	1.64472E+02,	8.99414E+02,	-3.19046E+03,	0.00000E+00,	0,	0
  4.07609E-01,	1.00000E+01,	-1.94535E-02,	1.70521E+02,	1.01865E+03,	-3.86738E+03,	0.00000E+00,	0,	0
  3.21429E-01,	1.00000E+01,	-1.94535E-02,	1.77656E+02,	1.15206E+03,	-4.80892E+03,	0.00000E+00,	0,	0
  2.54525E-01,	1.00000E+01,	-1.94535E-02,	1.86428E+02,	1.30882E+03,	-5.89010E+03,	0.00000E+00,	0,	0
  2.01613E-01,	1.00000E+01,	-1.94535E-02,	1.97279E+02,	1.47928E+03,	-7.24790E+03,	0.00000E+00,	0,	0
  1.59574E-01,	1.00000E+01,	-1.94535E-02,	2.10743E+02,	1.68050E+03,	-8.95004E+03,	0.00000E+00,	0,	0
  1.26689E-01,	1.00000E+01,	-1.94535E-02,	2.27647E+02,	1.90437E+03,	-1.10506E+04,	0.00000E+00,	0,	0
  1.00446E-01,	1.00000E+01,	-1.94535E-02,	2.48499E+02,	2.17145E+03,	-1.36948E+04,	0.00000E+00,	0,	0