Z60W Data File: Version 1.1
CorrTest for Windows: SN CS310H1805157  V5.2.1111.9  2.5H6.220118
Sweep Frequency: Control Voltage
  Date:5-8-2026   Time:21:30:24
  Begin Information:            Cell Information
      Surface Area:           1
      Density:                7.8
      Weight:                 28
  End Information:              Cell Information
  Freq (Hz)     Ampl(mV)       Bias(V)      Time(Sec)       Z'(Ohm.cm^2)    Z''(Ohm.cm^2)        GD       Err      Range
End Comments
  3.07200E+05,	1.00000E+01,	-3.12317E-02,	7.42155E-02,	2.75389E+02,	-1.50637E+01,	0.00000E+00,	0,	0
  2.76480E+05,	1.00000E+01,	-3.12317E-02,	1.67480E+00,	2.74870E+02,	-1.57061E+01,	0.00000E+00,	0,	0
  1.97486E+05,	1.00000E+01,	-3.12317E-02,	2.57263E+00,	2.80313E+02,	-1.82726E+01,	0.00000E+00,	0,	0
  1.53600E+05,	1.00000E+01,	-3.12317E-02,	3.46800E+00,	2.83812E+02,	-1.87194E+01,	0.00000E+00,	0,	0
  1.25673E+05,	1.00000E+01,	-3.12317E-02,	4.36563E+00,	2.88091E+02,	-1.79090E+01,	0.00000E+00,	0,	0
  9.87429E+04,	1.00000E+01,	-3.12317E-02,	5.26524E+00,	2.90941E+02,	-1.81391E+01,	0.00000E+00,	0,	0
  7.68000E+04,	1.00000E+01,	-3.12317E-02,	6.17012E+00,	2.93694E+02,	-1.79597E+01,	0.00000E+00,	0,	0
  6.01043E+04,	1.00000E+01,	-3.12317E-02,	7.15719E+00,	2.96064E+02,	-1.69552E+01,	0.00000E+00,	0,	0
  4.93714E+04,	1.00000E+01,	-3.12317E-02,	8.74459E+00,	2.99319E+02,	-1.63923E+01,	0.00000E+00,	0,	0
  3.84000E+04,	1.00000E+01,	-3.12317E-02,	9.64051E+00,	2.99826E+02,	-1.35281E+01,	0.00000E+00,	0,	0
  3.00522E+04,	1.00000E+01,	-3.12317E-02,	1.04876E+01,	2.98539E+02,	-1.61856E+01,	0.00000E+00,	0,	0
  2.38345E+04,	1.00000E+01,	-3.12317E-02,	1.13551E+01,	3.05108E+02,	-1.46307E+01,	0.00000E+00,	0,	0
  1.86811E+04,	1.00000E+01,	-3.12317E-02,	1.21949E+01,	3.04748E+02,	-1.65687E+01,	0.00000E+00,	0,	0
  1.47064E+04,	1.00000E+01,	-3.12317E-02,	1.31539E+01,	3.08542E+02,	-1.58624E+01,	0.00000E+00,	0,	0
  1.15200E+04,	1.00000E+01,	-3.12317E-02,	1.41231E+01,	3.09875E+02,	-1.62479E+01,	0.00000E+00,	0,	0
  9.60000E+03,	1.00000E+01,	-3.12317E-02,	1.56944E+01,	3.11736E+02,	-1.75390E+01,	0.00000E+00,	0,	0
  7.51304E+03,	1.00000E+01,	-3.12317E-02,	1.65648E+01,	3.13217E+02,	-1.87365E+01,	0.00000E+00,	0,	0
  5.76000E+03,	1.00000E+01,	-3.12317E-02,	1.74648E+01,	3.16453E+02,	-2.20529E+01,	0.00000E+00,	0,	0
  4.54737E+03,	1.00000E+01,	-3.12317E-02,	1.83174E+01,	3.19567E+02,	-2.40438E+01,	0.00000E+00,	0,	0
  3.60000E+03,	1.00000E+01,	-3.12317E-02,	1.93052E+01,	3.22026E+02,	-2.72977E+01,	0.00000E+00,	0,	0
  2.88000E+03,	1.00000E+01,	-3.12317E-02,	2.01949E+01,	3.26581E+02,	-2.97422E+01,	0.00000E+00,	0,	0
  2.27368E+03,	1.00000E+01,	-3.12317E-02,	2.24686E+01,	3.29858E+02,	-3.38982E+01,	0.00000E+00,	0,	0
  1.78144E+03,	1.00000E+01,	-3.12317E-02,	2.32592E+01,	3.36458E+02,	-3.72010E+01,	0.00000E+00,	0,	0
  1.41639E+03,	1.00000E+01,	-3.12317E-02,	2.41563E+01,	3.38105E+02,	-4.47934E+01,	0.00000E+00,	0,	0
  1.12208E+03,	1.00000E+01,	-3.12317E-02,	2.51747E+01,	3.47549E+02,	-4.86834E+01,	0.00000E+00,	0,	0
  9.00000E+02,	1.00000E+01,	-3.12317E-02,	3.01517E+01,	3.55832E+02,	-5.40549E+01,	0.00000E+00,	0,	0
  7.20000E+02,	1.00000E+01,	-3.12317E-02,	3.15099E+01,	3.62685E+02,	-6.00537E+01,	0.00000E+00,	0,	0
  5.68421E+02,	1.00000E+01,	-3.12317E-02,	3.28671E+01,	3.70447E+02,	-6.72403E+01,	0.00000E+00,	0,	0
  4.40816E+02,	1.00000E+01,	-3.12317E-02,	3.43093E+01,	3.79606E+02,	-7.59864E+01,	0.00000E+00,	0,	0
  3.54098E+02,	1.00000E+01,	-3.12317E-02,	3.66642E+01,	3.88419E+02,	-8.49141E+01,	0.00000E+00,	0,	0
  2.76923E+02,	1.00000E+01,	-3.12317E-02,	3.92983E+01,	3.99429E+02,	-9.63601E+01,	0.00000E+00,	0,	0
  2.20408E+02,	1.00000E+01,	-3.12317E-02,	4.22104E+01,	4.10748E+02,	-1.08789E+02,	0.00000E+00,	0,	0
  1.74194E+02,	1.00000E+01,	-3.12317E-02,	4.54605E+01,	4.24046E+02,	-1.23971E+02,	0.00000E+00,	0,	0
  1.37580E+02,	1.00000E+01,	-3.12317E-02,	4.91233E+01,	4.38240E+02,	-1.41328E+02,	0.00000E+00,	0,	0
  1.09091E+02,	1.00000E+01,	-3.12317E-02,	5.31852E+01,	4.54240E+02,	-1.61862E+02,	0.00000E+00,	0,	0
  8.70968E+01,	1.00000E+01,	-3.12317E-02,	5.89006E+01,	4.72279E+02,	-1.85691E+02,	0.00000E+00,	0,	0
  6.83544E+01,	1.00000E+01,	-3.12317E-02,	6.39164E+01,	4.94751E+02,	-2.17117E+02,	0.00000E+00,	0,	0
  5.45455E+01,	1.00000E+01,	-3.12317E-02,	6.93627E+01,	5.11057E+02,	-2.43014E+02,	0.00000E+00,	0,	0
  4.28571E+01,	1.00000E+01,	-3.12317E-02,	7.28934E+01,	5.34010E+02,	-2.83259E+02,	0.00000E+00,	0,	0
  3.39623E+01,	1.00000E+01,	-3.12317E-02,	7.66166E+01,	5.54864E+02,	-3.31660E+02,	0.00000E+00,	0,	0
  2.68657E+01,	1.00000E+01,	-3.12317E-02,	8.04978E+01,	5.84311E+02,	-3.88904E+02,	0.00000E+00,	0,	0
  2.13439E+01,	1.00000E+01,	-3.12317E-02,	8.42927E+01,	6.14287E+02,	-4.56281E+02,	0.00000E+00,	0,	0
  1.73077E+01,	1.00000E+01,	-3.12317E-02,	8.79614E+01,	6.43280E+02,	-5.30186E+02,	0.00000E+00,	0,	0
  1.36364E+01,	1.00000E+01,	-3.12317E-02,	9.29856E+01,	6.79515E+02,	-6.32371E+02,	0.00000E+00,	0,	0
  1.07143E+01,	1.00000E+01,	-3.12317E-02,	9.58995E+01,	7.18411E+02,	-7.59640E+02,	0.00000E+00,	0,	0
  8.49057E+00,	1.00000E+01,	-3.12317E-02,	1.00101E+02,	7.60864E+02,	-9.11747E+02,	0.00000E+00,	0,	0
  6.71642E+00,	1.00000E+01,	-3.12317E-02,	1.02624E+02,	8.07448E+02,	-1.10100E+03,	0.00000E+00,	0,	0
  5.29412E+00,	1.00000E+01,	-3.12317E-02,	1.05559E+02,	8.60916E+02,	-1.33876E+03,	0.00000E+00,	0,	0
  4.16667E+00,	1.00000E+01,	-3.12317E-02,	1.09032E+02,	9.23231E+02,	-1.63759E+03,	0.00000E+00,	0,	0
  3.30882E+00,	1.00000E+01,	-3.12317E-02,	1.15559E+02,	9.93950E+02,	-1.99387E+03,	0.00000E+00,	0,	0
  2.61628E+00,	1.00000E+01,	-3.12317E-02,	1.19521E+02,	1.08059E+03,	-2.44561E+03,	0.00000E+00,	0,	0
  2.07373E+00,	1.00000E+01,	-3.12317E-02,	1.24275E+02,	1.18535E+03,	-3.00054E+03,	0.00000E+00,	0,	0
  1.64234E+00,	1.00000E+01,	-3.12317E-02,	1.30063E+02,	1.31535E+03,	-3.68990E+03,	0.00000E+00,	0,	0
  1.30058E+00,	1.00000E+01,	-3.12317E-02,	1.34227E+02,	1.48194E+03,	-4.54130E+03,	0.00000E+00,	0,	0
  1.03211E+00,	1.00000E+01,	-3.12317E-02,	1.38637E+02,	1.69200E+03,	-5.58570E+03,	0.00000E+00,	0,	0
  8.15217E-01,	1.00000E+01,	-3.12317E-02,	1.45574E+02,	1.96929E+03,	-6.88795E+03,	0.00000E+00,	0,	0
  6.46552E-01,	1.00000E+01,	-3.12317E-02,	1.50376E+02,	2.32681E+03,	-8.46436E+03,	0.00000E+00,	0,	0
  5.11364E-01,	1.00000E+01,	-3.12317E-02,	1.55379E+02,	2.73457E+03,	-1.04329E+04,	0.00000E+00,	0,	0
  4.07609E-01,	1.00000E+01,	-3.12317E-02,	1.61420E+02,	3.31902E+03,	-1.27402E+04,	0.00000E+00,	0,	0
  3.21429E-01,	1.00000E+01,	-3.12317E-02,	1.68550E+02,	4.11929E+03,	-1.57971E+04,	0.00000E+00,	0,	0
  2.54525E-01,	1.00000E+01,	-3.12317E-02,	1.77322E+02,	5.17683E+03,	-1.93020E+04,	0.00000E+00,	0,	0
  2.01613E-01,	1.00000E+01,	-3.12317E-02,	1.88161E+02,	6.53872E+03,	-2.35367E+04,	0.00000E+00,	0,	0
  1.59574E-01,	1.00000E+01,	-3.12317E-02,	2.01626E+02,	8.30908E+03,	-2.86359E+04,	0.00000E+00,	0,	0
  1.26689E-01,	1.00000E+01,	-3.12317E-02,	2.35509E+02,	1.05766E+04,	-3.43704E+04,	0.00000E+00,	0,	0
  1.00446E-01,	1.00000E+01,	-3.12317E-02,	2.56369E+02,	1.32288E+04,	-4.22387E+04,	0.00000E+00,	0,	0