Z60W Data File: Version 1.1
CorrTest for Windows: SN CS310H1805157  V5.2.1111.9  2.5H6.220118
Sweep Frequency: Control Voltage
  Date:5-8-2026   Time:14:32:47
  Begin Information:            Cell Information
      Surface Area:           1
      Density:                7.8
      Weight:                 28
  End Information:              Cell Information
  Freq (Hz)     Ampl(mV)       Bias(V)      Time(Sec)       Z'(Ohm.cm^2)    Z''(Ohm.cm^2)        GD       Err      Range
End Comments
  3.07200E+05,	1.00000E+01,	1.32197E-02,	3.16358E-02,	-1.92737E+00,	3.16403E+00,	0.00000E+00,	0,	0
  2.76480E+05,	1.00000E+01,	1.32197E-02,	1.65605E+00,	-1.25808E+00,	2.21522E+00,	0.00000E+00,	0,	0
  1.97486E+05,	1.00000E+01,	1.32197E-02,	2.55943E+00,	-4.14251E-01,	1.56845E+00,	0.00000E+00,	0,	0
  1.53600E+05,	1.00000E+01,	1.32197E-02,	3.48070E+00,	-3.54649E-02,	1.17772E+00,	0.00000E+00,	0,	0
  1.25673E+05,	1.00000E+01,	1.32197E-02,	4.38420E+00,	1.61774E-01,	9.17475E-01,	0.00000E+00,	0,	0
  9.87429E+04,	1.00000E+01,	1.32197E-02,	5.32216E+00,	3.58598E-01,	6.78562E-01,	0.00000E+00,	0,	0
  7.68000E+04,	1.00000E+01,	1.32197E-02,	6.23308E+00,	4.55752E-01,	4.96971E-01,	0.00000E+00,	0,	0
  6.01043E+04,	1.00000E+01,	1.32197E-02,	9.44512E+00,	5.27015E-01,	3.18038E-01,	0.00000E+00,	0,	0
  4.93714E+04,	1.00000E+01,	1.32197E-02,	1.10021E+01,	5.41863E-01,	2.16145E-01,	0.00000E+00,	0,	0
  3.84000E+04,	1.00000E+01,	1.32197E-02,	1.19223E+01,	5.56186E-01,	9.77613E-02,	0.00000E+00,	0,	0
  3.00522E+04,	1.00000E+01,	1.32197E-02,	1.27695E+01,	5.67489E-01,	-1.15309E-02,	0.00000E+00,	0,	0
  2.38345E+04,	1.00000E+01,	1.32197E-02,	1.36317E+01,	5.77592E-01,	-1.13068E-01,	0.00000E+00,	0,	0
  1.86811E+04,	1.00000E+01,	1.32197E-02,	1.44787E+01,	5.91052E-01,	-2.23127E-01,	0.00000E+00,	0,	0
  1.47064E+04,	1.00000E+01,	1.32197E-02,	1.54493E+01,	6.07842E-01,	-3.40403E-01,	0.00000E+00,	0,	0
  1.15200E+04,	1.00000E+01,	1.32197E-02,	1.64173E+01,	6.29053E-01,	-4.73626E-01,	0.00000E+00,	0,	0
  9.60000E+03,	1.00000E+01,	1.32197E-02,	1.79970E+01,	6.46779E-01,	-5.86642E-01,	0.00000E+00,	0,	0
  7.51304E+03,	1.00000E+01,	1.32197E-02,	1.88625E+01,	6.77615E-01,	-7.63236E-01,	0.00000E+00,	0,	0
  5.76000E+03,	1.00000E+01,	1.32197E-02,	1.97540E+01,	7.19283E-01,	-9.95866E-01,	0.00000E+00,	0,	0
  4.54737E+03,	1.00000E+01,	1.32197E-02,	2.06150E+01,	7.67187E-01,	-1.24835E+00,	0.00000E+00,	0,	0
  3.60000E+03,	1.00000E+01,	1.32197E-02,	2.16133E+01,	8.28474E-01,	-1.55126E+00,	0.00000E+00,	0,	0
  2.88000E+03,	1.00000E+01,	1.32197E-02,	2.25012E+01,	9.01799E-01,	-1.90121E+00,	0.00000E+00,	0,	0
  2.27368E+03,	1.00000E+01,	1.32197E-02,	2.47655E+01,	9.95781E-01,	-2.33544E+00,	0.00000E+00,	0,	0
  1.78144E+03,	1.00000E+01,	1.32197E-02,	2.55604E+01,	1.12862E+00,	-2.90246E+00,	0.00000E+00,	0,	0
  1.41639E+03,	1.00000E+01,	1.32197E-02,	2.64707E+01,	1.29179E+00,	-3.55498E+00,	0.00000E+00,	0,	0
  1.12208E+03,	1.00000E+01,	1.32197E-02,	2.75152E+01,	1.50321E+00,	-4.35372E+00,	0.00000E+00,	0,	0
  9.00000E+02,	1.00000E+01,	1.32197E-02,	3.25058E+01,	1.77310E+00,	-5.27905E+00,	0.00000E+00,	0,	0
  7.20000E+02,	1.00000E+01,	1.32197E-02,	3.38750E+01,	2.11239E+00,	-6.38177E+00,	0.00000E+00,	0,	0
  5.68421E+02,	1.00000E+01,	1.32197E-02,	3.52319E+01,	2.57615E+00,	-7.77943E+00,	0.00000E+00,	0,	0
  4.40816E+02,	1.00000E+01,	1.32197E-02,	3.66778E+01,	3.22004E+00,	-9.58885E+00,	0.00000E+00,	0,	0
  3.54098E+02,	1.00000E+01,	1.32197E-02,	3.90370E+01,	3.92097E+00,	-1.14369E+01,	0.00000E+00,	0,	0
  2.76923E+02,	1.00000E+01,	1.32197E-02,	4.16762E+01,	4.91178E+00,	-1.38895E+01,	0.00000E+00,	0,	0
  2.20408E+02,	1.00000E+01,	1.32197E-02,	4.46194E+01,	6.04374E+00,	-1.65680E+01,	0.00000E+00,	0,	0
  1.74194E+02,	1.00000E+01,	1.32197E-02,	4.78937E+01,	7.45643E+00,	-1.98042E+01,	0.00000E+00,	0,	0
  1.37580E+02,	1.00000E+01,	1.32197E-02,	5.15580E+01,	9.14398E+00,	-2.36007E+01,	0.00000E+00,	0,	0
  1.09091E+02,	1.00000E+01,	1.32197E-02,	5.56534E+01,	1.10839E+01,	-2.80073E+01,	0.00000E+00,	0,	0
  8.70968E+01,	1.00000E+01,	1.32197E-02,	6.37951E+01,	1.32929E+01,	-3.31716E+01,	0.00000E+00,	0,	0
  6.83544E+01,	1.00000E+01,	1.32197E-02,	6.88197E+01,	1.60292E+01,	-3.98515E+01,	0.00000E+00,	0,	0
  5.45455E+01,	1.00000E+01,	1.32197E-02,	7.42721E+01,	1.90456E+01,	-4.63150E+01,	0.00000E+00,	0,	0
  4.28571E+01,	1.00000E+01,	1.32197E-02,	7.77970E+01,	2.26810E+01,	-5.52852E+01,	0.00000E+00,	0,	0
  3.39623E+01,	1.00000E+01,	1.32197E-02,	8.15848E+01,	2.63198E+01,	-6.56068E+01,	0.00000E+00,	0,	0
  2.68657E+01,	1.00000E+01,	1.32197E-02,	8.54390E+01,	3.11703E+01,	-7.83684E+01,	0.00000E+00,	0,	0
  2.13439E+01,	1.00000E+01,	1.32197E-02,	8.92319E+01,	3.65443E+01,	-9.32093E+01,	0.00000E+00,	0,	0
  1.73077E+01,	1.00000E+01,	1.32197E-02,	9.59360E+01,	4.20752E+01,	-1.09437E+02,	0.00000E+00,	0,	0
  1.36364E+01,	1.00000E+01,	1.32197E-02,	1.00968E+02,	4.89082E+01,	-1.31331E+02,	0.00000E+00,	0,	0
  1.07143E+01,	1.00000E+01,	1.32197E-02,	1.03892E+02,	5.65593E+01,	-1.58330E+02,	0.00000E+00,	0,	0
  8.49057E+00,	1.00000E+01,	1.32197E-02,	1.08082E+02,	6.46219E+01,	-1.90359E+02,	0.00000E+00,	0,	0
  6.71642E+00,	1.00000E+01,	1.32197E-02,	1.10592E+02,	7.34911E+01,	-2.30066E+02,	0.00000E+00,	0,	0
  5.29412E+00,	1.00000E+01,	1.32197E-02,	1.13580E+02,	8.32808E+01,	-2.79697E+02,	0.00000E+00,	0,	0
  4.16667E+00,	1.00000E+01,	1.32197E-02,	1.17075E+02,	9.39293E+01,	-3.42137E+02,	0.00000E+00,	0,	0
  3.30882E+00,	1.00000E+01,	1.32197E-02,	1.21304E+02,	1.04952E+02,	-4.17279E+02,	0.00000E+00,	0,	0
  2.61628E+00,	1.00000E+01,	1.32197E-02,	1.25259E+02,	1.17419E+02,	-5.12538E+02,	0.00000E+00,	0,	0
  2.07373E+00,	1.00000E+01,	1.32197E-02,	1.30026E+02,	1.31240E+02,	-6.30878E+02,	0.00000E+00,	0,	0
  1.64234E+00,	1.00000E+01,	1.32197E-02,	1.35831E+02,	1.47089E+02,	-7.79605E+02,	0.00000E+00,	0,	0
  1.30058E+00,	1.00000E+01,	1.32197E-02,	1.39998E+02,	1.66564E+02,	-9.66012E+02,	0.00000E+00,	0,	0
  1.03211E+00,	1.00000E+01,	1.32197E-02,	1.44410E+02,	1.89808E+02,	-1.19718E+03,	0.00000E+00,	0,	0
  8.15217E-01,	1.00000E+01,	1.32197E-02,	1.51358E+02,	2.19524E+02,	-1.49100E+03,	0.00000E+00,	0,	0
  6.46552E-01,	1.00000E+01,	1.32197E-02,	1.60448E+02,	2.51260E+02,	-1.83933E+03,	0.00000E+00,	0,	0
  5.11364E-01,	1.00000E+01,	1.32197E-02,	1.65466E+02,	2.97456E+02,	-2.30546E+03,	0.00000E+00,	0,	0
  4.07609E-01,	1.00000E+01,	1.32197E-02,	1.71512E+02,	3.57484E+02,	-2.85421E+03,	0.00000E+00,	0,	0
  3.21429E-01,	1.00000E+01,	1.32197E-02,	1.78655E+02,	4.35080E+02,	-3.58356E+03,	0.00000E+00,	0,	0
  2.54525E-01,	1.00000E+01,	1.32197E-02,	1.87422E+02,	5.41856E+02,	-4.45985E+03,	0.00000E+00,	0,	0
  2.01613E-01,	1.00000E+01,	1.32197E-02,	1.98254E+02,	6.79059E+02,	-5.54890E+03,	0.00000E+00,	0,	0
  1.59574E-01,	1.00000E+01,	1.32197E-02,	2.11721E+02,	8.64318E+02,	-6.90389E+03,	0.00000E+00,	0,	0
  1.26689E-01,	1.00000E+01,	1.32197E-02,	2.28638E+02,	1.11035E+03,	-8.56459E+03,	0.00000E+00,	0,	0
  1.00446E-01,	1.00000E+01,	1.32197E-02,	2.49536E+02,	1.42975E+03,	-1.06274E+04,	0.00000E+00,	0,	0