Z60W Data File: Version 1.1
CorrTest for Windows: SN CS310H1805157  V5.2.1111.9  2.5H6.220118
Sweep Frequency: Control Voltage
  Date:5-8-2026   Time:20:50:42
  Begin Information:            Cell Information
      Surface Area:           1
      Density:                7.8
      Weight:                 28
  End Information:              Cell Information
  Freq (Hz)     Ampl(mV)       Bias(V)      Time(Sec)       Z'(Ohm.cm^2)    Z''(Ohm.cm^2)        GD       Err      Range
End Comments
  3.07200E+05,	1.00000E+01,	-2.85391E-02,	2.36184E-02,	5.75202E+01,	2.55787E+01,	0.00000E+00,	0,	0
  2.76480E+05,	1.00000E+01,	-2.85391E-02,	1.62545E+00,	5.69083E+01,	2.23104E+01,	0.00000E+00,	0,	0
  1.97486E+05,	1.00000E+01,	-2.85391E-02,	2.53208E+00,	5.55076E+01,	1.57396E+01,	0.00000E+00,	0,	0
  1.53600E+05,	1.00000E+01,	-2.85391E-02,	3.42825E+00,	5.48803E+01,	1.19693E+01,	0.00000E+00,	0,	0
  1.25673E+05,	1.00000E+01,	-2.85391E-02,	4.32843E+00,	5.46886E+01,	9.37918E+00,	0.00000E+00,	0,	0
  9.87429E+04,	1.00000E+01,	-2.85391E-02,	5.22862E+00,	5.45639E+01,	6.85562E+00,	0.00000E+00,	0,	0
  7.68000E+04,	1.00000E+01,	-2.85391E-02,	6.12067E+00,	5.47091E+01,	4.65107E+00,	0.00000E+00,	0,	0
  6.01043E+04,	1.00000E+01,	-2.85391E-02,	7.10814E+00,	5.48386E+01,	2.99352E+00,	0.00000E+00,	0,	0
  4.93714E+04,	1.00000E+01,	-2.85391E-02,	8.68418E+00,	5.52423E+01,	1.84679E+00,	0.00000E+00,	0,	0
  3.84000E+04,	1.00000E+01,	-2.85391E-02,	9.60032E+00,	5.52160E+01,	5.03765E-01,	0.00000E+00,	0,	0
  3.00522E+04,	1.00000E+01,	-2.85391E-02,	1.04676E+01,	5.58674E+01,	-2.88812E-01,	0.00000E+00,	0,	0
  2.38345E+04,	1.00000E+01,	-2.85391E-02,	1.13240E+01,	5.60669E+01,	-1.55082E+00,	0.00000E+00,	0,	0
  1.86811E+04,	1.00000E+01,	-2.85391E-02,	1.21693E+01,	5.64494E+01,	-2.37145E+00,	0.00000E+00,	0,	0
  1.47064E+04,	1.00000E+01,	-2.85391E-02,	1.31395E+01,	5.69325E+01,	-3.54319E+00,	0.00000E+00,	0,	0
  1.15200E+04,	1.00000E+01,	-2.85391E-02,	1.40960E+01,	5.76122E+01,	-4.48991E+00,	0.00000E+00,	0,	0
  9.60000E+03,	1.00000E+01,	-2.85391E-02,	1.56718E+01,	5.82163E+01,	-5.27837E+00,	0.00000E+00,	0,	0
  7.51304E+03,	1.00000E+01,	-2.85391E-02,	1.65467E+01,	5.89011E+01,	-6.31493E+00,	0.00000E+00,	0,	0
  5.76000E+03,	1.00000E+01,	-2.85391E-02,	1.74433E+01,	5.99321E+01,	-7.72140E+00,	0.00000E+00,	0,	0
  4.54737E+03,	1.00000E+01,	-2.85391E-02,	1.83096E+01,	6.08887E+01,	-8.97816E+00,	0.00000E+00,	0,	0
  3.60000E+03,	1.00000E+01,	-2.85391E-02,	1.93011E+01,	6.20650E+01,	-1.04151E+01,	0.00000E+00,	0,	0
  2.88000E+03,	1.00000E+01,	-2.85391E-02,	2.02203E+01,	6.32387E+01,	-1.20118E+01,	0.00000E+00,	0,	0
  2.27368E+03,	1.00000E+01,	-2.85391E-02,	2.13568E+01,	6.47104E+01,	-1.36406E+01,	0.00000E+00,	0,	0
  1.78144E+03,	1.00000E+01,	-2.85391E-02,	2.21368E+01,	6.64901E+01,	-1.58272E+01,	0.00000E+00,	0,	0
  1.41639E+03,	1.00000E+01,	-2.85391E-02,	2.30283E+01,	6.85567E+01,	-1.83353E+01,	0.00000E+00,	0,	0
  1.12208E+03,	1.00000E+01,	-2.85391E-02,	2.40682E+01,	7.01775E+01,	-2.04893E+01,	0.00000E+00,	0,	0
  9.00000E+02,	1.00000E+01,	-2.85391E-02,	2.90466E+01,	7.27249E+01,	-2.35063E+01,	0.00000E+00,	0,	0
  7.20000E+02,	1.00000E+01,	-2.85391E-02,	3.04117E+01,	7.51180E+01,	-2.67620E+01,	0.00000E+00,	0,	0
  5.68421E+02,	1.00000E+01,	-2.85391E-02,	3.17757E+01,	7.79306E+01,	-3.07603E+01,	0.00000E+00,	0,	0
  4.40816E+02,	1.00000E+01,	-2.85391E-02,	3.32307E+01,	8.12930E+01,	-3.58555E+01,	0.00000E+00,	0,	0
  3.54098E+02,	1.00000E+01,	-2.85391E-02,	3.55780E+01,	8.45677E+01,	-4.10502E+01,	0.00000E+00,	0,	0
  2.76923E+02,	1.00000E+01,	-2.85391E-02,	3.82382E+01,	8.85881E+01,	-4.78898E+01,	0.00000E+00,	0,	0
  2.20408E+02,	1.00000E+01,	-2.85391E-02,	4.11553E+01,	9.27243E+01,	-5.54914E+01,	0.00000E+00,	0,	0
  1.74194E+02,	1.00000E+01,	-2.85391E-02,	4.44110E+01,	9.74098E+01,	-6.48639E+01,	0.00000E+00,	0,	0
  1.37580E+02,	1.00000E+01,	-2.85391E-02,	4.80493E+01,	1.02551E+02,	-7.62257E+01,	0.00000E+00,	0,	0
  1.09091E+02,	1.00000E+01,	-2.85391E-02,	5.21120E+01,	1.08122E+02,	-8.98175E+01,	0.00000E+00,	0,	0
  8.70968E+01,	1.00000E+01,	-2.85391E-02,	6.02445E+01,	1.14626E+02,	-1.06281E+02,	0.00000E+00,	0,	0
  6.83544E+01,	1.00000E+01,	-2.85391E-02,	6.52709E+01,	1.22074E+02,	-1.28250E+02,	0.00000E+00,	0,	0
  5.45455E+01,	1.00000E+01,	-2.85391E-02,	7.07137E+01,	1.28792E+02,	-1.49684E+02,	0.00000E+00,	0,	0
  4.28571E+01,	1.00000E+01,	-2.85391E-02,	7.42372E+01,	1.37239E+02,	-1.80840E+02,	0.00000E+00,	0,	0
  3.39623E+01,	1.00000E+01,	-2.85391E-02,	7.79673E+01,	1.44868E+02,	-2.18129E+02,	0.00000E+00,	0,	0
  2.68657E+01,	1.00000E+01,	-2.85391E-02,	8.18165E+01,	1.56122E+02,	-2.65248E+02,	0.00000E+00,	0,	0
  2.13439E+01,	1.00000E+01,	-2.85391E-02,	8.56282E+01,	1.68571E+02,	-3.21982E+02,	0.00000E+00,	0,	0
  1.73077E+01,	1.00000E+01,	-2.85391E-02,	8.92983E+01,	1.81496E+02,	-3.85187E+02,	0.00000E+00,	0,	0
  1.36364E+01,	1.00000E+01,	-2.85391E-02,	9.43188E+01,	1.99065E+02,	-4.73353E+02,	0.00000E+00,	0,	0
  1.07143E+01,	1.00000E+01,	-2.85391E-02,	9.72242E+01,	2.20584E+02,	-5.84515E+02,	0.00000E+00,	0,	0
  8.49057E+00,	1.00000E+01,	-2.85391E-02,	1.01422E+02,	2.46632E+02,	-7.18168E+02,	0.00000E+00,	0,	0
  6.71642E+00,	1.00000E+01,	-2.85391E-02,	1.03931E+02,	2.79519E+02,	-8.83234E+02,	0.00000E+00,	0,	0
  5.29412E+00,	1.00000E+01,	-2.85391E-02,	1.06861E+02,	3.23000E+02,	-1.09078E+03,	0.00000E+00,	0,	0
  4.16667E+00,	1.00000E+01,	-2.85391E-02,	1.10332E+02,	3.79730E+02,	-1.34911E+03,	0.00000E+00,	0,	0
  3.30882E+00,	1.00000E+01,	-2.85391E-02,	1.16878E+02,	4.50669E+02,	-1.65238E+03,	0.00000E+00,	0,	0
  2.61628E+00,	1.00000E+01,	-2.85391E-02,	1.20845E+02,	5.45965E+02,	-2.03101E+03,	0.00000E+00,	0,	0
  2.07373E+00,	1.00000E+01,	-2.85391E-02,	1.25607E+02,	6.69259E+02,	-2.48742E+03,	0.00000E+00,	0,	0
  1.64234E+00,	1.00000E+01,	-2.85391E-02,	1.31410E+02,	8.30589E+02,	-3.04162E+03,	0.00000E+00,	0,	0
  1.30058E+00,	1.00000E+01,	-2.85391E-02,	1.35580E+02,	1.04385E+03,	-3.70808E+03,	0.00000E+00,	0,	0
  1.03211E+00,	1.00000E+01,	-2.85391E-02,	1.40030E+02,	1.32005E+03,	-4.50453E+03,	0.00000E+00,	0,	0
  8.15217E-01,	1.00000E+01,	-2.85391E-02,	1.46970E+02,	1.67544E+03,	-5.45537E+03,	0.00000E+00,	0,	0
  6.46552E-01,	1.00000E+01,	-2.85391E-02,	1.51777E+02,	2.12752E+03,	-6.57000E+03,	0.00000E+00,	0,	0
  5.11364E-01,	1.00000E+01,	-2.85391E-02,	1.56796E+02,	2.61668E+03,	-7.91499E+03,	0.00000E+00,	0,	0
  4.07609E-01,	1.00000E+01,	-2.85391E-02,	1.62855E+02,	3.28388E+03,	-9.42089E+03,	0.00000E+00,	0,	0
  3.21429E-01,	1.00000E+01,	-2.85391E-02,	1.69976E+02,	4.14260E+03,	-1.13902E+04,	0.00000E+00,	0,	0
  2.54525E-01,	1.00000E+01,	-2.85391E-02,	1.78742E+02,	5.15723E+03,	-1.34893E+04,	0.00000E+00,	0,	0
  2.01613E-01,	1.00000E+01,	-2.85391E-02,	1.89597E+02,	6.32138E+03,	-1.59740E+04,	0.00000E+00,	0,	0
  1.59574E-01,	1.00000E+01,	-2.85391E-02,	2.03054E+02,	7.66877E+03,	-1.89101E+04,	0.00000E+00,	0,	0
  1.26689E-01,	1.00000E+01,	-2.85391E-02,	2.36960E+02,	9.20973E+03,	-2.20004E+04,	0.00000E+00,	0,	0
  1.00446E-01,	1.00000E+01,	-2.85391E-02,	2.57818E+02,	1.08960E+04,	-2.69399E+04,	0.00000E+00,	0,	0