Z60W Data File: Version 1.1
CorrTest for Windows: SN CS310H1805157  V5.2.1111.9  2.5H6.220118
Sweep Frequency: Control Voltage
  Date:5-8-2026   Time:21:59:48
  Begin Information:            Cell Information
      Surface Area:           1
      Density:                7.8
      Weight:                 28
  End Information:              Cell Information
  Freq (Hz)     Ampl(mV)       Bias(V)      Time(Sec)       Z'(Ohm.cm^2)    Z''(Ohm.cm^2)        GD       Err      Range
End Comments
  3.07200E+05,	1.00000E+01,	-3.29662E-02,	3.53705E-02,	4.62529E+02,	-2.89812E+02,	0.00000E+00,	0,	0
  2.76480E+05,	1.00000E+01,	-3.29662E-02,	1.63475E+00,	4.74464E+02,	-3.12961E+02,	0.00000E+00,	0,	0
  1.97486E+05,	1.00000E+01,	-3.29662E-02,	2.53219E+00,	5.52891E+02,	-3.86376E+02,	0.00000E+00,	0,	0
  1.53600E+05,	1.00000E+01,	-3.29662E-02,	3.44578E+00,	6.26594E+02,	-4.32574E+02,	0.00000E+00,	0,	0
  1.25673E+05,	1.00000E+01,	-3.29662E-02,	4.34269E+00,	6.95744E+02,	-4.72734E+02,	0.00000E+00,	0,	0
  9.87429E+04,	1.00000E+01,	-3.29662E-02,	5.23477E+00,	8.05771E+02,	-5.01797E+02,	0.00000E+00,	0,	0
  7.68000E+04,	1.00000E+01,	-3.29662E-02,	6.12655E+00,	9.23697E+02,	-5.18339E+02,	0.00000E+00,	0,	0
  6.01043E+04,	1.00000E+01,	-3.29662E-02,	7.11220E+00,	1.03356E+03,	-4.96941E+02,	0.00000E+00,	0,	0
  4.93714E+04,	1.00000E+01,	-3.29662E-02,	8.68679E+00,	1.12033E+03,	-4.79200E+02,	0.00000E+00,	0,	0
  3.84000E+04,	1.00000E+01,	-3.29662E-02,	9.59061E+00,	1.22245E+03,	-4.08215E+02,	0.00000E+00,	0,	0
  3.00522E+04,	1.00000E+01,	-3.29662E-02,	1.04416E+01,	1.38176E+03,	-3.95532E+02,	0.00000E+00,	0,	0
  2.38345E+04,	1.00000E+01,	-3.29662E-02,	1.12953E+01,	1.34590E+03,	-3.33704E+02,	0.00000E+00,	0,	0
  1.86811E+04,	1.00000E+01,	-3.29662E-02,	1.21236E+01,	1.38951E+03,	-2.72825E+02,	0.00000E+00,	0,	0
  1.47064E+04,	1.00000E+01,	-3.29662E-02,	1.30772E+01,	1.41958E+03,	-2.41165E+02,	0.00000E+00,	0,	0
  1.15200E+04,	1.00000E+01,	-3.29662E-02,	1.51398E+01,	1.43103E+03,	-2.05398E+02,	0.00000E+00,	0,	0
  9.60000E+03,	1.00000E+01,	-3.29662E-02,	1.67024E+01,	1.43966E+03,	-1.84752E+02,	0.00000E+00,	0,	0
  7.51304E+03,	1.00000E+01,	-3.29662E-02,	1.75774E+01,	1.46474E+03,	-1.64737E+02,	0.00000E+00,	0,	0
  5.76000E+03,	1.00000E+01,	-3.29662E-02,	1.84792E+01,	1.47427E+03,	-1.53247E+02,	0.00000E+00,	0,	0
  4.54737E+03,	1.00000E+01,	-3.29662E-02,	1.93283E+01,	1.48477E+03,	-1.44532E+02,	0.00000E+00,	0,	0
  3.60000E+03,	1.00000E+01,	-3.29662E-02,	2.03147E+01,	1.50029E+03,	-1.40994E+02,	0.00000E+00,	0,	0
  2.88000E+03,	1.00000E+01,	-3.29662E-02,	2.12071E+01,	1.51358E+03,	-1.45300E+02,	0.00000E+00,	0,	0
  2.27368E+03,	1.00000E+01,	-3.29662E-02,	2.23259E+01,	1.52591E+03,	-1.54714E+02,	0.00000E+00,	0,	0
  1.78144E+03,	1.00000E+01,	-3.29662E-02,	2.31099E+01,	1.54276E+03,	-1.63175E+02,	0.00000E+00,	0,	0
  1.41639E+03,	1.00000E+01,	-3.29662E-02,	2.40018E+01,	1.55989E+03,	-1.78455E+02,	0.00000E+00,	0,	0
  1.12208E+03,	1.00000E+01,	-3.29662E-02,	2.50330E+01,	1.58223E+03,	-1.89026E+02,	0.00000E+00,	0,	0
  9.00000E+02,	1.00000E+01,	-3.29662E-02,	3.00356E+01,	1.63706E+03,	-1.95029E+02,	0.00000E+00,	0,	0
  7.20000E+02,	1.00000E+01,	-3.29662E-02,	3.14472E+01,	1.66758E+03,	-2.03598E+02,	0.00000E+00,	0,	0
  5.68421E+02,	1.00000E+01,	-3.29662E-02,	3.28145E+01,	1.70092E+03,	-2.11960E+02,	0.00000E+00,	0,	0
  4.40816E+02,	1.00000E+01,	-3.29662E-02,	3.58410E+01,	1.73526E+03,	-2.19751E+02,	0.00000E+00,	0,	0
  3.54098E+02,	1.00000E+01,	-3.29662E-02,	3.81767E+01,	1.76702E+03,	-2.28752E+02,	0.00000E+00,	0,	0
  2.76923E+02,	1.00000E+01,	-3.29662E-02,	4.08249E+01,	1.80149E+03,	-2.43051E+02,	0.00000E+00,	0,	0
  2.20408E+02,	1.00000E+01,	-3.29662E-02,	4.37295E+01,	1.83460E+03,	-2.58565E+02,	0.00000E+00,	0,	0
  1.74194E+02,	1.00000E+01,	-3.29662E-02,	4.69736E+01,	1.86936E+03,	-2.78893E+02,	0.00000E+00,	0,	0
  1.37580E+02,	1.00000E+01,	-3.29662E-02,	5.06080E+01,	1.90910E+03,	-3.05333E+02,	0.00000E+00,	0,	0
  1.09091E+02,	1.00000E+01,	-3.29662E-02,	5.46761E+01,	1.95179E+03,	-3.36887E+02,	0.00000E+00,	0,	0
  8.70968E+01,	1.00000E+01,	-3.29662E-02,	6.04036E+01,	2.00167E+03,	-3.75394E+02,	0.00000E+00,	0,	0
  6.83544E+01,	1.00000E+01,	-3.29662E-02,	6.54143E+01,	2.06467E+03,	-4.26195E+02,	0.00000E+00,	0,	0
  5.45455E+01,	1.00000E+01,	-3.29662E-02,	7.08542E+01,	2.09610E+03,	-4.56299E+02,	0.00000E+00,	0,	0
  4.28571E+01,	1.00000E+01,	-3.29662E-02,	7.43844E+01,	2.15347E+03,	-5.16461E+02,	0.00000E+00,	0,	0
  3.39623E+01,	1.00000E+01,	-3.29662E-02,	7.81119E+01,	2.20330E+03,	-5.93483E+02,	0.00000E+00,	0,	0
  2.68657E+01,	1.00000E+01,	-3.29662E-02,	8.19439E+01,	2.27975E+03,	-6.73519E+02,	0.00000E+00,	0,	0
  2.13439E+01,	1.00000E+01,	-3.29662E-02,	8.57515E+01,	2.35504E+03,	-7.65949E+02,	0.00000E+00,	0,	0
  1.73077E+01,	1.00000E+01,	-3.29662E-02,	8.94200E+01,	2.42751E+03,	-8.65686E+02,	0.00000E+00,	0,	0
  1.36364E+01,	1.00000E+01,	-3.29662E-02,	9.44416E+01,	2.51990E+03,	-1.00073E+03,	0.00000E+00,	0,	0
  1.07143E+01,	1.00000E+01,	-3.29662E-02,	9.73812E+01,	2.61500E+03,	-1.16380E+03,	0.00000E+00,	0,	0
  8.49057E+00,	1.00000E+01,	-3.29662E-02,	1.01569E+02,	2.71895E+03,	-1.35464E+03,	0.00000E+00,	0,	0
  6.71642E+00,	1.00000E+01,	-3.29662E-02,	1.04082E+02,	2.82783E+03,	-1.58453E+03,	0.00000E+00,	0,	0
  5.29412E+00,	1.00000E+01,	-3.29662E-02,	1.07016E+02,	2.94935E+03,	-1.87088E+03,	0.00000E+00,	0,	0
  4.16667E+00,	1.00000E+01,	-3.29662E-02,	1.10485E+02,	3.08457E+03,	-2.22204E+03,	0.00000E+00,	0,	0
  3.30882E+00,	1.00000E+01,	-3.29662E-02,	1.14719E+02,	3.22929E+03,	-2.63686E+03,	0.00000E+00,	0,	0
  2.61628E+00,	1.00000E+01,	-3.29662E-02,	1.18694E+02,	3.38958E+03,	-3.15393E+03,	0.00000E+00,	0,	0
  2.07373E+00,	1.00000E+01,	-3.29662E-02,	1.23450E+02,	3.56710E+03,	-3.78558E+03,	0.00000E+00,	0,	0
  1.64234E+00,	1.00000E+01,	-3.29662E-02,	1.29221E+02,	3.76668E+03,	-4.56865E+03,	0.00000E+00,	0,	0
  1.30058E+00,	1.00000E+01,	-3.29662E-02,	1.33388E+02,	3.98680E+03,	-5.53498E+03,	0.00000E+00,	0,	0
  1.03211E+00,	1.00000E+01,	-3.29662E-02,	1.37801E+02,	4.24408E+03,	-6.72893E+03,	0.00000E+00,	0,	0
  8.15217E-01,	1.00000E+01,	-3.29662E-02,	1.44739E+02,	4.53853E+03,	-8.22960E+03,	0.00000E+00,	0,	0
  6.46552E-01,	1.00000E+01,	-3.29662E-02,	1.49546E+02,	4.88771E+03,	-1.00634E+04,	0.00000E+00,	0,	0
  5.11364E-01,	1.00000E+01,	-3.29662E-02,	1.54550E+02,	5.21168E+03,	-1.24521E+04,	0.00000E+00,	0,	0
  4.07609E-01,	1.00000E+01,	-3.29662E-02,	1.60593E+02,	5.71479E+03,	-1.52208E+04,	0.00000E+00,	0,	0
  3.21429E-01,	1.00000E+01,	-3.29662E-02,	1.67746E+02,	6.42328E+03,	-1.91018E+04,	0.00000E+00,	0,	0
  2.54525E-01,	1.00000E+01,	-3.29662E-02,	1.76506E+02,	7.26749E+03,	-2.34813E+04,	0.00000E+00,	0,	0
  2.01613E-01,	1.00000E+01,	-3.29662E-02,	1.87337E+02,	8.33880E+03,	-2.89089E+04,	0.00000E+00,	0,	0
  1.59574E-01,	1.00000E+01,	-3.29662E-02,	2.00801E+02,	9.73169E+03,	-3.56292E+04,	0.00000E+00,	0,	0
  1.26689E-01,	1.00000E+01,	-3.29662E-02,	2.34704E+02,	1.15597E+04,	-4.33094E+04,	0.00000E+00,	0,	0
  1.00446E-01,	1.00000E+01,	-3.29662E-02,	2.55559E+02,	1.37140E+04,	-5.42986E+04,	0.00000E+00,	0,	0