Z60W Data File: Version 1.1
CorrTest for Windows: SN CS310H1805157  V5.2.1111.9  2.5H6.220118
Sweep Frequency: Control Voltage
  Date:5-8-2026   Time:19:18:03
  Begin Information:            Cell Information
      Surface Area:           1
      Density:                7.8
      Weight:                 28
  End Information:              Cell Information
  Freq (Hz)     Ampl(mV)       Bias(V)      Time(Sec)       Z'(Ohm.cm^2)    Z''(Ohm.cm^2)        GD       Err      Range
End Comments
  3.07200E+05,	1.00000E+01,	-7.32436E-03,	2.93120E-02,	-1.78575E+00,	3.20248E+00,	0.00000E+00,	0,	0
  2.76480E+05,	1.00000E+01,	-7.32436E-03,	1.62946E+00,	-1.10536E+00,	2.29453E+00,	0.00000E+00,	0,	0
  1.97486E+05,	1.00000E+01,	-7.32436E-03,	2.52571E+00,	-1.90742E-01,	1.58444E+00,	0.00000E+00,	0,	0
  1.53600E+05,	1.00000E+01,	-7.32436E-03,	3.43594E+00,	1.53107E-01,	1.18063E+00,	0.00000E+00,	0,	0
  1.25673E+05,	1.00000E+01,	-7.32436E-03,	4.33260E+00,	3.79314E-01,	9.12322E-01,	0.00000E+00,	0,	0
  9.87429E+04,	1.00000E+01,	-7.32436E-03,	5.24093E+00,	5.44459E-01,	6.64217E-01,	0.00000E+00,	0,	0
  7.68000E+04,	1.00000E+01,	-7.32436E-03,	6.13658E+00,	6.53151E-01,	4.76821E-01,	0.00000E+00,	0,	0
  6.01043E+04,	1.00000E+01,	-7.32436E-03,	9.34555E+00,	7.36561E-01,	2.76494E-01,	0.00000E+00,	0,	0
  4.93714E+04,	1.00000E+01,	-7.32436E-03,	1.09102E+01,	7.55446E-01,	1.63507E-01,	0.00000E+00,	0,	0
  3.84000E+04,	1.00000E+01,	-7.32436E-03,	1.18067E+01,	7.75022E-01,	2.81504E-02,	0.00000E+00,	0,	0
  3.00522E+04,	1.00000E+01,	-7.32436E-03,	1.26731E+01,	7.93518E-01,	-9.77414E-02,	0.00000E+00,	0,	0
  2.38345E+04,	1.00000E+01,	-7.32436E-03,	1.35497E+01,	8.13480E-01,	-2.18382E-01,	0.00000E+00,	0,	0
  1.86811E+04,	1.00000E+01,	-7.32436E-03,	1.44014E+01,	8.37461E-01,	-3.50920E-01,	0.00000E+00,	0,	0
  1.47064E+04,	1.00000E+01,	-7.32436E-03,	1.53651E+01,	8.63163E-01,	-4.92909E-01,	0.00000E+00,	0,	0
  1.15200E+04,	1.00000E+01,	-7.32436E-03,	1.63089E+01,	8.96042E-01,	-6.57192E-01,	0.00000E+00,	0,	0
  9.60000E+03,	1.00000E+01,	-7.32436E-03,	1.78843E+01,	9.23684E-01,	-7.97305E-01,	0.00000E+00,	0,	0
  7.51304E+03,	1.00000E+01,	-7.32436E-03,	1.87531E+01,	9.67009E-01,	-1.01625E+00,	0.00000E+00,	0,	0
  5.76000E+03,	1.00000E+01,	-7.32436E-03,	1.96574E+01,	1.02268E+00,	-1.30713E+00,	0.00000E+00,	0,	0
  4.54737E+03,	1.00000E+01,	-7.32436E-03,	2.05284E+01,	1.08531E+00,	-1.62451E+00,	0.00000E+00,	0,	0
  3.60000E+03,	1.00000E+01,	-7.32436E-03,	2.15205E+01,	1.15676E+00,	-2.00516E+00,	0.00000E+00,	0,	0
  2.88000E+03,	1.00000E+01,	-7.32436E-03,	2.24134E+01,	1.24158E+00,	-2.45138E+00,	0.00000E+00,	0,	0
  2.27368E+03,	1.00000E+01,	-7.32436E-03,	2.46935E+01,	1.34095E+00,	-3.00754E+00,	0.00000E+00,	0,	0
  1.78144E+03,	1.00000E+01,	-7.32436E-03,	2.54766E+01,	1.48972E+00,	-3.74555E+00,	0.00000E+00,	0,	0
  1.41639E+03,	1.00000E+01,	-7.32436E-03,	2.64327E+01,	1.65704E+00,	-4.58646E+00,	0.00000E+00,	0,	0
  1.12208E+03,	1.00000E+01,	-7.32436E-03,	2.74585E+01,	1.88391E+00,	-5.64320E+00,	0.00000E+00,	0,	0
  9.00000E+02,	1.00000E+01,	-7.32436E-03,	3.24295E+01,	2.14919E+00,	-6.88079E+00,	0.00000E+00,	0,	0
  7.20000E+02,	1.00000E+01,	-7.32436E-03,	3.37884E+01,	2.49737E+00,	-8.37590E+00,	0.00000E+00,	0,	0
  5.68421E+02,	1.00000E+01,	-7.32436E-03,	3.51648E+01,	2.96963E+00,	-1.03090E+01,	0.00000E+00,	0,	0
  4.40816E+02,	1.00000E+01,	-7.32436E-03,	3.81702E+01,	3.64712E+00,	-1.28948E+01,	0.00000E+00,	0,	0
  3.54098E+02,	1.00000E+01,	-7.32436E-03,	4.05411E+01,	4.39483E+00,	-1.55709E+01,	0.00000E+00,	0,	0
  2.76923E+02,	1.00000E+01,	-7.32436E-03,	4.31975E+01,	5.49354E+00,	-1.91984E+01,	0.00000E+00,	0,	0
  2.20408E+02,	1.00000E+01,	-7.32436E-03,	4.61200E+01,	6.80869E+00,	-2.32588E+01,	0.00000E+00,	0,	0
  1.74194E+02,	1.00000E+01,	-7.32436E-03,	4.93684E+01,	8.54834E+00,	-2.82568E+01,	0.00000E+00,	0,	0
  1.37580E+02,	1.00000E+01,	-7.32436E-03,	5.30309E+01,	1.07709E+01,	-3.42222E+01,	0.00000E+00,	0,	0
  1.09091E+02,	1.00000E+01,	-7.32436E-03,	5.71117E+01,	1.35089E+01,	-4.11750E+01,	0.00000E+00,	0,	0
  8.70968E+01,	1.00000E+01,	-7.32436E-03,	6.28026E+01,	1.67623E+01,	-4.91639E+01,	0.00000E+00,	0,	0
  6.83544E+01,	1.00000E+01,	-7.32436E-03,	6.78773E+01,	2.10699E+01,	-5.95218E+01,	0.00000E+00,	0,	0
  5.45455E+01,	1.00000E+01,	-7.32436E-03,	7.33341E+01,	2.60363E+01,	-6.94283E+01,	0.00000E+00,	0,	0
  4.28571E+01,	1.00000E+01,	-7.32436E-03,	7.68991E+01,	3.21092E+01,	-8.28469E+01,	0.00000E+00,	0,	0
  3.39623E+01,	1.00000E+01,	-7.32436E-03,	8.06228E+01,	3.82831E+01,	-9.80292E+01,	0.00000E+00,	0,	0
  2.68657E+01,	1.00000E+01,	-7.32436E-03,	8.44692E+01,	4.63863E+01,	-1.16603E+02,	0.00000E+00,	0,	0
  2.13439E+01,	1.00000E+01,	-7.32436E-03,	8.82779E+01,	5.54031E+01,	-1.38059E+02,	0.00000E+00,	0,	0
  1.73077E+01,	1.00000E+01,	-7.32436E-03,	9.50029E+01,	6.48272E+01,	-1.61435E+02,	0.00000E+00,	0,	0
  1.36364E+01,	1.00000E+01,	-7.32436E-03,	1.00042E+02,	7.68006E+01,	-1.92721E+02,	0.00000E+00,	0,	0
  1.07143E+01,	1.00000E+01,	-7.32436E-03,	1.02949E+02,	9.07073E+01,	-2.30859E+02,	0.00000E+00,	0,	0
  8.49057E+00,	1.00000E+01,	-7.32436E-03,	1.07146E+02,	1.06176E+02,	-2.75634E+02,	0.00000E+00,	0,	0
  6.71642E+00,	1.00000E+01,	-7.32436E-03,	1.09672E+02,	1.23907E+02,	-3.29758E+02,	0.00000E+00,	0,	0
  5.29412E+00,	1.00000E+01,	-7.32436E-03,	1.12616E+02,	1.44444E+02,	-3.96292E+02,	0.00000E+00,	0,	0
  4.16667E+00,	1.00000E+01,	-7.32436E-03,	1.16093E+02,	1.67656E+02,	-4.78223E+02,	0.00000E+00,	0,	0
  3.30882E+00,	1.00000E+01,	-7.32436E-03,	1.20314E+02,	1.92693E+02,	-5.74564E+02,	0.00000E+00,	0,	0
  2.61628E+00,	1.00000E+01,	-7.32436E-03,	1.24274E+02,	2.21107E+02,	-6.94106E+02,	0.00000E+00,	0,	0
  2.07373E+00,	1.00000E+01,	-7.32436E-03,	1.29098E+02,	2.52055E+02,	-8.40009E+02,	0.00000E+00,	0,	0
  1.64234E+00,	1.00000E+01,	-7.32436E-03,	1.34904E+02,	2.85890E+02,	-1.02054E+03,	0.00000E+00,	0,	0
  1.30058E+00,	1.00000E+01,	-7.32436E-03,	1.39089E+02,	3.23196E+02,	-1.24462E+03,	0.00000E+00,	0,	0
  1.03211E+00,	1.00000E+01,	-7.32436E-03,	1.43491E+02,	3.63266E+02,	-1.52134E+03,	0.00000E+00,	0,	0
  8.15217E-01,	1.00000E+01,	-7.32436E-03,	1.50447E+02,	4.08741E+02,	-1.87284E+03,	0.00000E+00,	0,	0
  6.46552E-01,	1.00000E+01,	-7.32436E-03,	1.59571E+02,	4.50385E+02,	-2.28464E+03,	0.00000E+00,	0,	0
  5.11364E-01,	1.00000E+01,	-7.32436E-03,	1.64577E+02,	5.05611E+02,	-2.84090E+03,	0.00000E+00,	0,	0
  4.07609E-01,	1.00000E+01,	-7.32436E-03,	1.70634E+02,	5.74296E+02,	-3.49985E+03,	0.00000E+00,	0,	0
  3.21429E-01,	1.00000E+01,	-7.32436E-03,	1.77766E+02,	6.55208E+02,	-4.39019E+03,	0.00000E+00,	0,	0
  2.54525E-01,	1.00000E+01,	-7.32436E-03,	1.86582E+02,	7.60604E+02,	-5.44814E+03,	0.00000E+00,	0,	0
  2.01613E-01,	1.00000E+01,	-7.32436E-03,	1.97414E+02,	8.85546E+02,	-6.76837E+03,	0.00000E+00,	0,	0
  1.59574E-01,	1.00000E+01,	-7.32436E-03,	2.10874E+02,	1.05739E+03,	-8.42395E+03,	0.00000E+00,	0,	0
  1.26689E-01,	1.00000E+01,	-7.32436E-03,	2.27777E+02,	1.24816E+03,	-1.04504E+04,	0.00000E+00,	0,	0
  1.00446E-01,	1.00000E+01,	-7.32436E-03,	2.48646E+02,	1.47220E+03,	-1.30037E+04,	0.00000E+00,	0,	0