Z60W Data File: Version 1.1
CorrTest for Windows: SN CS310H1805157  V5.2.1111.9  2.5H6.220118
Sweep Frequency: Control Voltage
  Date:5-8-2026   Time:15:16:00
  Begin Information:            Cell Information
      Surface Area:           1
      Density:                7.8
      Weight:                 28
  End Information:              Cell Information
  Freq (Hz)     Ampl(mV)       Bias(V)      Time(Sec)       Z'(Ohm.cm^2)    Z''(Ohm.cm^2)        GD       Err      Range
End Comments
  3.07200E+05,	1.00000E+01,	1.76849E-02,	2.78756E-02,	-1.95219E+00,	3.12404E+00,	0.00000E+00,	0,	0
  2.76480E+05,	1.00000E+01,	1.76849E-02,	1.63145E+00,	-1.25975E+00,	2.22943E+00,	0.00000E+00,	0,	0
  1.97486E+05,	1.00000E+01,	1.76849E-02,	2.58469E+00,	-3.89843E-01,	1.56094E+00,	0.00000E+00,	0,	0
  1.53600E+05,	1.00000E+01,	1.76849E-02,	3.48065E+00,	-2.17486E-02,	1.15781E+00,	0.00000E+00,	0,	0
  1.25673E+05,	1.00000E+01,	1.76849E-02,	4.38953E+00,	1.84737E-01,	9.09625E-01,	0.00000E+00,	0,	0
  9.87429E+04,	1.00000E+01,	1.76849E-02,	5.29706E+00,	3.51124E-01,	6.78010E-01,	0.00000E+00,	0,	0
  7.68000E+04,	1.00000E+01,	1.76849E-02,	6.22217E+00,	4.64398E-01,	4.87252E-01,	0.00000E+00,	0,	0
  6.01043E+04,	1.00000E+01,	1.76849E-02,	9.43998E+00,	5.40411E-01,	3.17021E-01,	0.00000E+00,	0,	0
  4.93714E+04,	1.00000E+01,	1.76849E-02,	1.10301E+01,	5.57346E-01,	2.13950E-01,	0.00000E+00,	0,	0
  3.84000E+04,	1.00000E+01,	1.76849E-02,	1.19423E+01,	5.70789E-01,	9.25357E-02,	0.00000E+00,	0,	0
  3.00522E+04,	1.00000E+01,	1.76849E-02,	1.28450E+01,	5.81805E-01,	-1.62551E-02,	0.00000E+00,	0,	0
  2.38345E+04,	1.00000E+01,	1.76849E-02,	1.37017E+01,	5.94447E-01,	-1.19280E-01,	0.00000E+00,	0,	0
  1.86811E+04,	1.00000E+01,	1.76849E-02,	1.45339E+01,	6.07815E-01,	-2.29923E-01,	0.00000E+00,	0,	0
  1.47064E+04,	1.00000E+01,	1.76849E-02,	1.55025E+01,	6.24861E-01,	-3.49362E-01,	0.00000E+00,	0,	0
  1.15200E+04,	1.00000E+01,	1.76849E-02,	1.64681E+01,	6.46068E-01,	-4.84285E-01,	0.00000E+00,	0,	0
  9.60000E+03,	1.00000E+01,	1.76849E-02,	1.80324E+01,	6.65032E-01,	-5.99328E-01,	0.00000E+00,	0,	0
  7.51304E+03,	1.00000E+01,	1.76849E-02,	1.89213E+01,	6.96380E-01,	-7.78526E-01,	0.00000E+00,	0,	0
  5.76000E+03,	1.00000E+01,	1.76849E-02,	1.98274E+01,	7.38273E-01,	-1.01549E+00,	0.00000E+00,	0,	0
  4.54737E+03,	1.00000E+01,	1.76849E-02,	2.06865E+01,	7.87136E-01,	-1.27284E+00,	0.00000E+00,	0,	0
  3.60000E+03,	1.00000E+01,	1.76849E-02,	2.17104E+01,	8.48726E-01,	-1.58079E+00,	0.00000E+00,	0,	0
  2.88000E+03,	1.00000E+01,	1.76849E-02,	2.26109E+01,	9.22004E-01,	-1.93868E+00,	0.00000E+00,	0,	0
  2.27368E+03,	1.00000E+01,	1.76849E-02,	2.48820E+01,	1.01684E+00,	-2.38239E+00,	0.00000E+00,	0,	0
  1.78144E+03,	1.00000E+01,	1.76849E-02,	2.56875E+01,	1.14756E+00,	-2.95741E+00,	0.00000E+00,	0,	0
  1.41639E+03,	1.00000E+01,	1.76849E-02,	2.65931E+01,	1.31519E+00,	-3.62238E+00,	0.00000E+00,	0,	0
  1.12208E+03,	1.00000E+01,	1.76849E-02,	2.76260E+01,	1.52700E+00,	-4.44298E+00,	0.00000E+00,	0,	0
  9.00000E+02,	1.00000E+01,	1.76849E-02,	3.26089E+01,	1.79851E+00,	-5.39059E+00,	0.00000E+00,	0,	0
  7.20000E+02,	1.00000E+01,	1.76849E-02,	3.39791E+01,	2.13991E+00,	-6.52129E+00,	0.00000E+00,	0,	0
  5.68421E+02,	1.00000E+01,	1.76849E-02,	3.53637E+01,	2.60602E+00,	-7.95718E+00,	0.00000E+00,	0,	0
  4.40816E+02,	1.00000E+01,	1.76849E-02,	3.68249E+01,	3.25722E+00,	-9.81561E+00,	0.00000E+00,	0,	0
  3.54098E+02,	1.00000E+01,	1.76849E-02,	3.91729E+01,	3.96886E+00,	-1.17218E+01,	0.00000E+00,	0,	0
  2.76923E+02,	1.00000E+01,	1.76849E-02,	4.18087E+01,	4.97533E+00,	-1.42423E+01,	0.00000E+00,	0,	0
  2.20408E+02,	1.00000E+01,	1.76849E-02,	4.47792E+01,	6.12948E+00,	-1.70119E+01,	0.00000E+00,	0,	0
  1.74194E+02,	1.00000E+01,	1.76849E-02,	4.80354E+01,	7.57643E+00,	-2.03430E+01,	0.00000E+00,	0,	0
  1.37580E+02,	1.00000E+01,	1.76849E-02,	5.17114E+01,	9.31330E+00,	-2.42697E+01,	0.00000E+00,	0,	0
  1.09091E+02,	1.00000E+01,	1.76849E-02,	5.57772E+01,	1.13182E+01,	-2.88152E+01,	0.00000E+00,	0,	0
  8.70968E+01,	1.00000E+01,	1.76849E-02,	6.39069E+01,	1.36021E+01,	-3.41389E+01,	0.00000E+00,	0,	0
  6.83544E+01,	1.00000E+01,	1.76849E-02,	6.89402E+01,	1.64346E+01,	-4.10105E+01,	0.00000E+00,	0,	0
  5.45455E+01,	1.00000E+01,	1.76849E-02,	7.44177E+01,	1.95603E+01,	-4.76584E+01,	0.00000E+00,	0,	0
  4.28571E+01,	1.00000E+01,	1.76849E-02,	7.79492E+01,	2.33154E+01,	-5.68760E+01,	0.00000E+00,	0,	0
  3.39623E+01,	1.00000E+01,	1.76849E-02,	8.16745E+01,	2.70781E+01,	-6.74941E+01,	0.00000E+00,	0,	0
  2.68657E+01,	1.00000E+01,	1.76849E-02,	8.55241E+01,	3.21003E+01,	-8.06112E+01,	0.00000E+00,	0,	0
  2.13439E+01,	1.00000E+01,	1.76849E-02,	8.93348E+01,	3.76806E+01,	-9.58674E+01,	0.00000E+00,	0,	0
  1.73077E+01,	1.00000E+01,	1.76849E-02,	9.60033E+01,	4.34411E+01,	-1.12561E+02,	0.00000E+00,	0,	0
  1.36364E+01,	1.00000E+01,	1.76849E-02,	1.01034E+02,	5.05895E+01,	-1.35054E+02,	0.00000E+00,	0,	0
  1.07143E+01,	1.00000E+01,	1.76849E-02,	1.03942E+02,	5.86100E+01,	-1.62728E+02,	0.00000E+00,	0,	0
  8.49057E+00,	1.00000E+01,	1.76849E-02,	1.08151E+02,	6.70968E+01,	-1.95496E+02,	0.00000E+00,	0,	0
  6.71642E+00,	1.00000E+01,	1.76849E-02,	1.10669E+02,	7.64820E+01,	-2.36087E+02,	0.00000E+00,	0,	0
  5.29412E+00,	1.00000E+01,	1.76849E-02,	1.13620E+02,	8.68345E+01,	-2.86744E+02,	0.00000E+00,	0,	0
  4.16667E+00,	1.00000E+01,	1.76849E-02,	1.17110E+02,	9.80423E+01,	-3.50469E+02,	0.00000E+00,	0,	0
  3.30882E+00,	1.00000E+01,	1.76849E-02,	1.21382E+02,	1.09729E+02,	-4.26883E+02,	0.00000E+00,	0,	0
  2.61628E+00,	1.00000E+01,	1.76849E-02,	1.25333E+02,	1.22884E+02,	-5.23818E+02,	0.00000E+00,	0,	0
  2.07373E+00,	1.00000E+01,	1.76849E-02,	1.30124E+02,	1.37223E+02,	-6.44154E+02,	0.00000E+00,	0,	0
  1.64234E+00,	1.00000E+01,	1.76849E-02,	1.35929E+02,	1.53492E+02,	-7.95426E+02,	0.00000E+00,	0,	0
  1.30058E+00,	1.00000E+01,	1.76849E-02,	1.40087E+02,	1.73279E+02,	-9.85025E+02,	0.00000E+00,	0,	0
  1.03211E+00,	1.00000E+01,	1.76849E-02,	1.44492E+02,	1.96595E+02,	-1.22023E+03,	0.00000E+00,	0,	0
  8.15217E-01,	1.00000E+01,	1.76849E-02,	1.51427E+02,	2.26111E+02,	-1.51953E+03,	0.00000E+00,	0,	0
  6.46552E-01,	1.00000E+01,	1.76849E-02,	1.60514E+02,	2.57511E+02,	-1.87686E+03,	0.00000E+00,	0,	0
  5.11364E-01,	1.00000E+01,	1.76849E-02,	1.65529E+02,	3.02060E+02,	-2.35204E+03,	0.00000E+00,	0,	0
  4.07609E-01,	1.00000E+01,	1.76849E-02,	1.71569E+02,	3.60471E+02,	-2.91271E+03,	0.00000E+00,	0,	0
  3.21429E-01,	1.00000E+01,	1.76849E-02,	1.78709E+02,	4.35251E+02,	-3.65856E+03,	0.00000E+00,	0,	0
  2.54525E-01,	1.00000E+01,	1.76849E-02,	1.87497E+02,	5.36053E+02,	-4.55432E+03,	0.00000E+00,	0,	0
  2.01613E-01,	1.00000E+01,	1.76849E-02,	1.98348E+02,	6.68003E+02,	-5.66770E+03,	0.00000E+00,	0,	0
  1.59574E-01,	1.00000E+01,	1.76849E-02,	2.11804E+02,	8.38643E+02,	-7.05663E+03,	0.00000E+00,	0,	0
  1.26689E-01,	1.00000E+01,	1.76849E-02,	2.28714E+02,	1.05769E+03,	-8.76230E+03,	0.00000E+00,	0,	0
  1.00446E-01,	1.00000E+01,	1.76849E-02,	2.49578E+02,	1.34528E+03,	-1.08814E+04,	0.00000E+00,	0,	0