Z60W Data File: Version 1.1
CorrTest for Windows: SN CS310H1805157  V5.2.1111.9  2.5H6.220118
Sweep Frequency: Control Voltage
  Date:5-8-2026   Time:15:57:30
  Begin Information:            Cell Information
      Surface Area:           1
      Density:                7.8
      Weight:                 28
  End Information:              Cell Information
  Freq (Hz)     Ampl(mV)       Bias(V)      Time(Sec)       Z'(Ohm.cm^2)    Z''(Ohm.cm^2)        GD       Err      Range
End Comments
  3.07200E+05,	1.00000E+01,	1.92084E-02,	2.38039E-02,	-1.89968E+00,	3.16073E+00,	0.00000E+00,	0,	0
  2.76480E+05,	1.00000E+01,	1.92084E-02,	1.63731E+00,	-1.28611E+00,	2.29452E+00,	0.00000E+00,	0,	0
  1.97486E+05,	1.00000E+01,	1.92084E-02,	2.54922E+00,	-3.62467E-01,	1.56479E+00,	0.00000E+00,	0,	0
  1.53600E+05,	1.00000E+01,	1.92084E-02,	3.44624E+00,	-1.93287E-02,	1.16670E+00,	0.00000E+00,	0,	0
  1.25673E+05,	1.00000E+01,	1.92084E-02,	4.33429E+00,	1.91285E-01,	8.89498E-01,	0.00000E+00,	0,	0
  9.87429E+04,	1.00000E+01,	1.92084E-02,	5.24458E+00,	3.71483E-01,	6.76430E-01,	0.00000E+00,	0,	0
  7.68000E+04,	1.00000E+01,	1.92084E-02,	6.19370E+00,	4.76186E-01,	4.83917E-01,	0.00000E+00,	0,	0
  6.01043E+04,	1.00000E+01,	1.92084E-02,	9.41783E+00,	5.55770E-01,	3.10446E-01,	0.00000E+00,	0,	0
  4.93714E+04,	1.00000E+01,	1.92084E-02,	1.09944E+01,	5.71447E-01,	2.04890E-01,	0.00000E+00,	0,	0
  3.84000E+04,	1.00000E+01,	1.92084E-02,	1.19193E+01,	5.85797E-01,	8.62289E-02,	0.00000E+00,	0,	0
  3.00522E+04,	1.00000E+01,	1.92084E-02,	1.27739E+01,	5.96888E-01,	-2.58371E-02,	0.00000E+00,	0,	0
  2.38345E+04,	1.00000E+01,	1.92084E-02,	1.36369E+01,	6.08675E-01,	-1.31371E-01,	0.00000E+00,	0,	0
  1.86811E+04,	1.00000E+01,	1.92084E-02,	1.44776E+01,	6.24368E-01,	-2.45096E-01,	0.00000E+00,	0,	0
  1.47064E+04,	1.00000E+01,	1.92084E-02,	1.54308E+01,	6.41702E-01,	-3.67231E-01,	0.00000E+00,	0,	0
  1.15200E+04,	1.00000E+01,	1.92084E-02,	1.64139E+01,	6.64555E-01,	-5.06518E-01,	0.00000E+00,	0,	0
  9.60000E+03,	1.00000E+01,	1.92084E-02,	1.79806E+01,	6.83868E-01,	-6.25062E-01,	0.00000E+00,	0,	0
  7.51304E+03,	1.00000E+01,	1.92084E-02,	1.88664E+01,	7.16304E-01,	-8.09299E-01,	0.00000E+00,	0,	0
  5.76000E+03,	1.00000E+01,	1.92084E-02,	1.98000E+01,	7.60366E-01,	-1.05300E+00,	0.00000E+00,	0,	0
  4.54737E+03,	1.00000E+01,	1.92084E-02,	2.06965E+01,	8.09233E-01,	-1.31854E+00,	0.00000E+00,	0,	0
  3.60000E+03,	1.00000E+01,	1.92084E-02,	2.16847E+01,	8.72062E-01,	-1.63888E+00,	0.00000E+00,	0,	0
  2.88000E+03,	1.00000E+01,	1.92084E-02,	2.25711E+01,	9.48381E-01,	-2.00737E+00,	0.00000E+00,	0,	0
  2.27368E+03,	1.00000E+01,	1.92084E-02,	2.48541E+01,	1.03985E+00,	-2.46981E+00,	0.00000E+00,	0,	0
  1.78144E+03,	1.00000E+01,	1.92084E-02,	2.56414E+01,	1.17877E+00,	-3.07055E+00,	0.00000E+00,	0,	0
  1.41639E+03,	1.00000E+01,	1.92084E-02,	2.65767E+01,	1.34707E+00,	-3.76541E+00,	0.00000E+00,	0,	0
  1.12208E+03,	1.00000E+01,	1.92084E-02,	2.76073E+01,	1.56497E+00,	-4.61774E+00,	0.00000E+00,	0,	0
  9.00000E+02,	1.00000E+01,	1.92084E-02,	3.25924E+01,	1.83055E+00,	-5.60162E+00,	0.00000E+00,	0,	0
  7.20000E+02,	1.00000E+01,	1.92084E-02,	3.39532E+01,	2.17738E+00,	-6.78545E+00,	0.00000E+00,	0,	0
  5.68421E+02,	1.00000E+01,	1.92084E-02,	3.53294E+01,	2.64802E+00,	-8.28966E+00,	0.00000E+00,	0,	0
  4.40816E+02,	1.00000E+01,	1.92084E-02,	3.67903E+01,	3.31138E+00,	-1.02442E+01,	0.00000E+00,	0,	0
  3.54098E+02,	1.00000E+01,	1.92084E-02,	3.91267E+01,	4.03596E+00,	-1.22489E+01,	0.00000E+00,	0,	0
  2.76923E+02,	1.00000E+01,	1.92084E-02,	4.17541E+01,	5.07002E+00,	-1.49139E+01,	0.00000E+00,	0,	0
  2.20408E+02,	1.00000E+01,	1.92084E-02,	4.46990E+01,	6.26505E+00,	-1.78423E+01,	0.00000E+00,	0,	0
  1.74194E+02,	1.00000E+01,	1.92084E-02,	4.79641E+01,	7.77421E+00,	-2.13768E+01,	0.00000E+00,	0,	0
  1.37580E+02,	1.00000E+01,	1.92084E-02,	5.16244E+01,	9.59736E+00,	-2.55299E+01,	0.00000E+00,	0,	0
  1.09091E+02,	1.00000E+01,	1.92084E-02,	5.56871E+01,	1.17167E+01,	-3.03367E+01,	0.00000E+00,	0,	0
  8.70968E+01,	1.00000E+01,	1.92084E-02,	6.38475E+01,	1.41475E+01,	-3.59546E+01,	0.00000E+00,	0,	0
  6.83544E+01,	1.00000E+01,	1.92084E-02,	6.88746E+01,	1.71695E+01,	-4.31933E+01,	0.00000E+00,	0,	0
  5.45455E+01,	1.00000E+01,	1.92084E-02,	7.43254E+01,	2.04889E+01,	-5.01716E+01,	0.00000E+00,	0,	0
  4.28571E+01,	1.00000E+01,	1.92084E-02,	7.78386E+01,	2.44918E+01,	-5.98498E+01,	0.00000E+00,	0,	0
  3.39623E+01,	1.00000E+01,	1.92084E-02,	8.15640E+01,	2.84869E+01,	-7.09822E+01,	0.00000E+00,	0,	0
  2.68657E+01,	1.00000E+01,	1.92084E-02,	8.54614E+01,	3.38228E+01,	-8.47384E+01,	0.00000E+00,	0,	0
  2.13439E+01,	1.00000E+01,	1.92084E-02,	8.92713E+01,	3.97702E+01,	-1.00743E+02,	0.00000E+00,	0,	0
  1.73077E+01,	1.00000E+01,	1.92084E-02,	9.59391E+01,	4.59379E+01,	-1.18224E+02,	0.00000E+00,	0,	0
  1.36364E+01,	1.00000E+01,	1.92084E-02,	1.00978E+02,	5.36435E+01,	-1.41741E+02,	0.00000E+00,	0,	0
  1.07143E+01,	1.00000E+01,	1.92084E-02,	1.03916E+02,	6.23571E+01,	-1.70651E+02,	0.00000E+00,	0,	0
  8.49057E+00,	1.00000E+01,	1.92084E-02,	1.08120E+02,	7.16364E+01,	-2.04686E+02,	0.00000E+00,	0,	0
  6.71642E+00,	1.00000E+01,	1.92084E-02,	1.10626E+02,	8.20127E+01,	-2.46909E+02,	0.00000E+00,	0,	0
  5.29412E+00,	1.00000E+01,	1.92084E-02,	1.13571E+02,	9.34011E+01,	-2.99233E+02,	0.00000E+00,	0,	0
  4.16667E+00,	1.00000E+01,	1.92084E-02,	1.17052E+02,	1.05889E+02,	-3.65034E+02,	0.00000E+00,	0,	0
  3.30882E+00,	1.00000E+01,	1.92084E-02,	1.21289E+02,	1.18773E+02,	-4.43569E+02,	0.00000E+00,	0,	0
  2.61628E+00,	1.00000E+01,	1.92084E-02,	1.25265E+02,	1.33169E+02,	-5.43125E+02,	0.00000E+00,	0,	0
  2.07373E+00,	1.00000E+01,	1.92084E-02,	1.30027E+02,	1.48647E+02,	-6.66484E+02,	0.00000E+00,	0,	0
  1.64234E+00,	1.00000E+01,	1.92084E-02,	1.35851E+02,	1.65913E+02,	-8.21557E+02,	0.00000E+00,	0,	0
  1.30058E+00,	1.00000E+01,	1.92084E-02,	1.39999E+02,	1.86485E+02,	-1.01589E+03,	0.00000E+00,	0,	0
  1.03211E+00,	1.00000E+01,	1.92084E-02,	1.44378E+02,	2.10563E+02,	-1.25729E+03,	0.00000E+00,	0,	0
  8.15217E-01,	1.00000E+01,	1.92084E-02,	1.51344E+02,	2.40232E+02,	-1.56457E+03,	0.00000E+00,	0,	0
  6.46552E-01,	1.00000E+01,	1.92084E-02,	1.60428E+02,	2.71625E+02,	-1.93156E+03,	0.00000E+00,	0,	0
  5.11364E-01,	1.00000E+01,	1.92084E-02,	1.65450E+02,	3.14813E+02,	-2.42019E+03,	0.00000E+00,	0,	0
  4.07609E-01,	1.00000E+01,	1.92084E-02,	1.71500E+02,	3.72749E+02,	-2.99551E+03,	0.00000E+00,	0,	0
  3.21429E-01,	1.00000E+01,	1.92084E-02,	1.78631E+02,	4.43188E+02,	-3.76405E+03,	0.00000E+00,	0,	0
  2.54525E-01,	1.00000E+01,	1.92084E-02,	1.87400E+02,	5.42911E+02,	-4.68457E+03,	0.00000E+00,	0,	0
  2.01613E-01,	1.00000E+01,	1.92084E-02,	1.98251E+02,	6.66443E+02,	-5.83263E+03,	0.00000E+00,	0,	0
  1.59574E-01,	1.00000E+01,	1.92084E-02,	2.11712E+02,	8.26125E+02,	-7.26321E+03,	0.00000E+00,	0,	0
  1.26689E-01,	1.00000E+01,	1.92084E-02,	2.28611E+02,	1.03082E+03,	-9.01348E+03,	0.00000E+00,	0,	0
  1.00446E-01,	1.00000E+01,	1.92084E-02,	2.49500E+02,	1.29468E+03,	-1.12012E+04,	0.00000E+00,	0,	0