Z60W Data File: Version 1.1
CorrTest for Windows: SN CS310H1805157  V5.2.1111.9  2.5H6.220118
Sweep Frequency: Control Voltage
  Date:5-8-2026   Time:21:46:59
  Begin Information:            Cell Information
      Surface Area:           1
      Density:                7.8
      Weight:                 28
  End Information:              Cell Information
  Freq (Hz)     Ampl(mV)       Bias(V)      Time(Sec)       Z'(Ohm.cm^2)    Z''(Ohm.cm^2)        GD       Err      Range
End Comments
  3.07200E+05,	1.00000E+01,	-3.24828E-02,	2.65230E-02,	4.06176E+02,	-1.58554E+02,	0.00000E+00,	0,	0
  2.76480E+05,	1.00000E+01,	-3.24828E-02,	1.64404E+00,	4.18526E+02,	-1.65624E+02,	0.00000E+00,	0,	0
  1.97486E+05,	1.00000E+01,	-3.24828E-02,	2.54250E+00,	4.65111E+02,	-1.88111E+02,	0.00000E+00,	0,	0
  1.53600E+05,	1.00000E+01,	-3.24828E-02,	3.43550E+00,	5.08888E+02,	-1.94659E+02,	0.00000E+00,	0,	0
  1.25673E+05,	1.00000E+01,	-3.24828E-02,	4.32083E+00,	5.39368E+02,	-1.88699E+02,	0.00000E+00,	0,	0
  9.87429E+04,	1.00000E+01,	-3.24828E-02,	5.20927E+00,	5.86126E+02,	-1.88052E+02,	0.00000E+00,	0,	0
  7.68000E+04,	1.00000E+01,	-3.24828E-02,	6.10048E+00,	6.25250E+02,	-1.73999E+02,	0.00000E+00,	0,	0
  6.01043E+04,	1.00000E+01,	-3.24828E-02,	7.08660E+00,	6.53328E+02,	-1.54711E+02,	0.00000E+00,	0,	0
  4.93714E+04,	1.00000E+01,	-3.24828E-02,	8.66343E+00,	6.76171E+02,	-1.36905E+02,	0.00000E+00,	0,	0
  3.84000E+04,	1.00000E+01,	-3.24828E-02,	9.56708E+00,	6.86925E+02,	-1.06322E+02,	0.00000E+00,	0,	0
  3.00522E+04,	1.00000E+01,	-3.24828E-02,	1.04283E+01,	6.93306E+02,	-8.88245E+01,	0.00000E+00,	0,	0
  2.38345E+04,	1.00000E+01,	-3.24828E-02,	1.12854E+01,	7.25253E+02,	-8.85941E+01,	0.00000E+00,	0,	0
  1.86811E+04,	1.00000E+01,	-3.24828E-02,	1.21123E+01,	7.46875E+02,	-7.71134E+01,	0.00000E+00,	0,	0
  1.47064E+04,	1.00000E+01,	-3.24828E-02,	1.30656E+01,	7.36598E+02,	-6.96897E+01,	0.00000E+00,	0,	0
  1.15200E+04,	1.00000E+01,	-3.24828E-02,	1.40258E+01,	7.43564E+02,	-5.90887E+01,	0.00000E+00,	0,	0
  9.60000E+03,	1.00000E+01,	-3.24828E-02,	1.55981E+01,	7.45199E+02,	-5.95456E+01,	0.00000E+00,	0,	0
  7.51304E+03,	1.00000E+01,	-3.24828E-02,	1.64553E+01,	7.52969E+02,	-5.36360E+01,	0.00000E+00,	0,	0
  5.76000E+03,	1.00000E+01,	-3.24828E-02,	1.73445E+01,	7.59515E+02,	-5.96012E+01,	0.00000E+00,	0,	0
  4.54737E+03,	1.00000E+01,	-3.24828E-02,	1.82113E+01,	7.65954E+02,	-5.96334E+01,	0.00000E+00,	0,	0
  3.60000E+03,	1.00000E+01,	-3.24828E-02,	1.91956E+01,	7.71396E+02,	-6.21215E+01,	0.00000E+00,	0,	0
  2.88000E+03,	1.00000E+01,	-3.24828E-02,	2.00856E+01,	7.77120E+02,	-6.53026E+01,	0.00000E+00,	0,	0
  2.27368E+03,	1.00000E+01,	-3.24828E-02,	2.23611E+01,	7.84657E+02,	-7.34194E+01,	0.00000E+00,	0,	0
  1.78144E+03,	1.00000E+01,	-3.24828E-02,	2.31498E+01,	7.88657E+02,	-7.83663E+01,	0.00000E+00,	0,	0
  1.41639E+03,	1.00000E+01,	-3.24828E-02,	2.40417E+01,	8.11915E+02,	-9.21823E+01,	0.00000E+00,	0,	0
  1.12208E+03,	1.00000E+01,	-3.24828E-02,	2.50700E+01,	8.20250E+02,	-9.81823E+01,	0.00000E+00,	0,	0
  9.00000E+02,	1.00000E+01,	-3.24828E-02,	3.00875E+01,	8.39613E+02,	-1.01061E+02,	0.00000E+00,	0,	0
  7.20000E+02,	1.00000E+01,	-3.24828E-02,	3.14527E+01,	8.54662E+02,	-1.08731E+02,	0.00000E+00,	0,	0
  5.68421E+02,	1.00000E+01,	-3.24828E-02,	3.28114E+01,	8.70316E+02,	-1.17581E+02,	0.00000E+00,	0,	0
  4.40816E+02,	1.00000E+01,	-3.24828E-02,	3.42581E+01,	8.87840E+02,	-1.27927E+02,	0.00000E+00,	0,	0
  3.54098E+02,	1.00000E+01,	-3.24828E-02,	3.65888E+01,	9.04505E+02,	-1.38935E+02,	0.00000E+00,	0,	0
  2.76923E+02,	1.00000E+01,	-3.24828E-02,	3.92313E+01,	9.24144E+02,	-1.53210E+02,	0.00000E+00,	0,	0
  2.20408E+02,	1.00000E+01,	-3.24828E-02,	4.21599E+01,	9.44115E+02,	-1.69258E+02,	0.00000E+00,	0,	0
  1.74194E+02,	1.00000E+01,	-3.24828E-02,	4.54061E+01,	9.66913E+02,	-1.88196E+02,	0.00000E+00,	0,	0
  1.37580E+02,	1.00000E+01,	-3.24828E-02,	4.90580E+01,	9.91552E+02,	-2.11652E+02,	0.00000E+00,	0,	0
  1.09091E+02,	1.00000E+01,	-3.24828E-02,	5.31274E+01,	1.01935E+03,	-2.38334E+02,	0.00000E+00,	0,	0
  8.70968E+01,	1.00000E+01,	-3.24828E-02,	6.12656E+01,	1.05284E+03,	-2.69777E+02,	0.00000E+00,	0,	0
  6.83544E+01,	1.00000E+01,	-3.24828E-02,	6.62890E+01,	1.09304E+03,	-3.11331E+02,	0.00000E+00,	0,	0
  5.45455E+01,	1.00000E+01,	-3.24828E-02,	7.17317E+01,	1.11770E+03,	-3.40447E+02,	0.00000E+00,	0,	0
  4.28571E+01,	1.00000E+01,	-3.24828E-02,	7.52601E+01,	1.15634E+03,	-3.90840E+02,	0.00000E+00,	0,	0
  3.39623E+01,	1.00000E+01,	-3.24828E-02,	7.89687E+01,	1.19115E+03,	-4.52276E+02,	0.00000E+00,	0,	0
  2.68657E+01,	1.00000E+01,	-3.24828E-02,	8.28094E+01,	1.24208E+03,	-5.20613E+02,	0.00000E+00,	0,	0
  2.13439E+01,	1.00000E+01,	-3.24828E-02,	8.66019E+01,	1.29296E+03,	-6.00080E+02,	0.00000E+00,	0,	0
  1.73077E+01,	1.00000E+01,	-3.24828E-02,	9.02673E+01,	1.34267E+03,	-6.85866E+02,	0.00000E+00,	0,	0
  1.36364E+01,	1.00000E+01,	-3.24828E-02,	9.52913E+01,	1.40467E+03,	-8.03089E+02,	0.00000E+00,	0,	0
  1.07143E+01,	1.00000E+01,	-3.24828E-02,	9.81916E+01,	1.46958E+03,	-9.46430E+02,	0.00000E+00,	0,	0
  8.49057E+00,	1.00000E+01,	-3.24828E-02,	1.02380E+02,	1.54008E+03,	-1.11618E+03,	0.00000E+00,	0,	0
  6.71642E+00,	1.00000E+01,	-3.24828E-02,	1.04916E+02,	1.61572E+03,	-1.32388E+03,	0.00000E+00,	0,	0
  5.29412E+00,	1.00000E+01,	-3.24828E-02,	1.07822E+02,	1.69785E+03,	-1.58162E+03,	0.00000E+00,	0,	0
  4.16667E+00,	1.00000E+01,	-3.24828E-02,	1.11277E+02,	1.79143E+03,	-1.90488E+03,	0.00000E+00,	0,	0
  3.30882E+00,	1.00000E+01,	-3.24828E-02,	1.15501E+02,	1.89238E+03,	-2.28951E+03,	0.00000E+00,	0,	0
  2.61628E+00,	1.00000E+01,	-3.24828E-02,	1.19448E+02,	2.00670E+03,	-2.77150E+03,	0.00000E+00,	0,	0
  2.07373E+00,	1.00000E+01,	-3.24828E-02,	1.24207E+02,	2.13700E+03,	-3.36602E+03,	0.00000E+00,	0,	0
  1.64234E+00,	1.00000E+01,	-3.24828E-02,	1.30002E+02,	2.28775E+03,	-4.10526E+03,	0.00000E+00,	0,	0
  1.30058E+00,	1.00000E+01,	-3.24828E-02,	1.34172E+02,	2.46586E+03,	-5.02170E+03,	0.00000E+00,	0,	0
  1.03211E+00,	1.00000E+01,	-3.24828E-02,	1.38575E+02,	2.67904E+03,	-6.15325E+03,	0.00000E+00,	0,	0
  8.15217E-01,	1.00000E+01,	-3.24828E-02,	1.45508E+02,	2.94274E+03,	-7.57590E+03,	0.00000E+00,	0,	0
  6.46552E-01,	1.00000E+01,	-3.24828E-02,	1.50318E+02,	3.26990E+03,	-9.31295E+03,	0.00000E+00,	0,	0
  5.11364E-01,	1.00000E+01,	-3.24828E-02,	1.55333E+02,	3.61928E+03,	-1.15172E+04,	0.00000E+00,	0,	0
  4.07609E-01,	1.00000E+01,	-3.24828E-02,	1.61385E+02,	4.12878E+03,	-1.41143E+04,	0.00000E+00,	0,	0
  3.21429E-01,	1.00000E+01,	-3.24828E-02,	1.68526E+02,	4.82977E+03,	-1.76355E+04,	0.00000E+00,	0,	0
  2.54525E-01,	1.00000E+01,	-3.24828E-02,	1.77296E+02,	5.74035E+03,	-2.16878E+04,	0.00000E+00,	0,	0
  2.01613E-01,	1.00000E+01,	-3.24828E-02,	1.88148E+02,	6.91118E+03,	-2.66725E+04,	0.00000E+00,	0,	0
  1.59574E-01,	1.00000E+01,	-3.24828E-02,	2.01609E+02,	8.44824E+03,	-3.27990E+04,	0.00000E+00,	0,	0
  1.26689E-01,	1.00000E+01,	-3.24828E-02,	2.35488E+02,	1.04689E+04,	-3.98603E+04,	0.00000E+00,	0,	0
  1.00446E-01,	1.00000E+01,	-3.24828E-02,	2.56368E+02,	1.28620E+04,	-4.96025E+04,	0.00000E+00,	0,	0