Z60W Data File: Version 1.1
CorrTest for Windows: SN CS310H1805157  V5.2.1111.9  2.5H6.220118
Sweep Frequency: Control Voltage
  Date:5-8-2026   Time:17:11:24
  Begin Information:            Cell Information
      Surface Area:           1
      Density:                7.8
      Weight:                 28
  End Information:              Cell Information
  Freq (Hz)     Ampl(mV)       Bias(V)      Time(Sec)       Z'(Ohm.cm^2)    Z''(Ohm.cm^2)        GD       Err      Range
End Comments
  3.07200E+05,	1.00000E+01,	1.67553E-02,	3.57733E-02,	-1.82659E+00,	3.17636E+00,	0.00000E+00,	0,	0
  2.76480E+05,	1.00000E+01,	1.67553E-02,	1.63333E+00,	-1.25403E+00,	2.27099E+00,	0.00000E+00,	0,	0
  1.97486E+05,	1.00000E+01,	1.67553E-02,	2.53646E+00,	-3.50332E-01,	1.59734E+00,	0.00000E+00,	0,	0
  1.53600E+05,	1.00000E+01,	1.67553E-02,	3.43561E+00,	1.44980E-02,	1.16210E+00,	0.00000E+00,	0,	0
  1.25673E+05,	1.00000E+01,	1.67553E-02,	4.35105E+00,	2.26191E-01,	9.09669E-01,	0.00000E+00,	0,	0
  9.87429E+04,	1.00000E+01,	1.67553E-02,	5.25346E+00,	4.03113E-01,	6.69321E-01,	0.00000E+00,	0,	0
  7.68000E+04,	1.00000E+01,	1.67553E-02,	6.14796E+00,	4.96500E-01,	4.77844E-01,	0.00000E+00,	0,	0
  6.01043E+04,	1.00000E+01,	1.67553E-02,	9.35981E+00,	5.88957E-01,	2.99631E-01,	0.00000E+00,	0,	0
  4.93714E+04,	1.00000E+01,	1.67553E-02,	1.09532E+01,	6.04209E-01,	1.93905E-01,	0.00000E+00,	0,	0
  3.84000E+04,	1.00000E+01,	1.67553E-02,	1.18582E+01,	6.18688E-01,	6.88092E-02,	0.00000E+00,	0,	0
  3.00522E+04,	1.00000E+01,	1.67553E-02,	1.27256E+01,	6.32734E-01,	-4.58243E-02,	0.00000E+00,	0,	0
  2.38345E+04,	1.00000E+01,	1.67553E-02,	1.35964E+01,	6.46755E-01,	-1.54981E-01,	0.00000E+00,	0,	0
  1.86811E+04,	1.00000E+01,	1.67553E-02,	1.44440E+01,	6.63121E-01,	-2.73741E-01,	0.00000E+00,	0,	0
  1.47064E+04,	1.00000E+01,	1.67553E-02,	1.54279E+01,	6.82750E-01,	-4.02376E-01,	0.00000E+00,	0,	0
  1.15200E+04,	1.00000E+01,	1.67553E-02,	1.63958E+01,	7.08068E-01,	-5.48434E-01,	0.00000E+00,	0,	0
  9.60000E+03,	1.00000E+01,	1.67553E-02,	1.79808E+01,	7.29519E-01,	-6.73448E-01,	0.00000E+00,	0,	0
  7.51304E+03,	1.00000E+01,	1.67553E-02,	1.88383E+01,	7.63750E-01,	-8.68093E-01,	0.00000E+00,	0,	0
  5.76000E+03,	1.00000E+01,	1.67553E-02,	1.97616E+01,	8.11081E-01,	-1.12556E+00,	0.00000E+00,	0,	0
  4.54737E+03,	1.00000E+01,	1.67553E-02,	2.06367E+01,	8.62999E-01,	-1.40664E+00,	0.00000E+00,	0,	0
  3.60000E+03,	1.00000E+01,	1.67553E-02,	2.16486E+01,	9.27868E-01,	-1.74537E+00,	0.00000E+00,	0,	0
  2.88000E+03,	1.00000E+01,	1.67553E-02,	2.25432E+01,	1.00678E+00,	-2.14073E+00,	0.00000E+00,	0,	0
  2.27368E+03,	1.00000E+01,	1.67553E-02,	2.48212E+01,	1.10219E+00,	-2.63002E+00,	0.00000E+00,	0,	0
  1.78144E+03,	1.00000E+01,	1.67553E-02,	2.56077E+01,	1.24153E+00,	-3.27120E+00,	0.00000E+00,	0,	0
  1.41639E+03,	1.00000E+01,	1.67553E-02,	2.65388E+01,	1.41114E+00,	-4.00889E+00,	0.00000E+00,	0,	0
  1.12208E+03,	1.00000E+01,	1.67553E-02,	2.75666E+01,	1.62268E+00,	-4.92386E+00,	0.00000E+00,	0,	0
  9.00000E+02,	1.00000E+01,	1.67553E-02,	3.25464E+01,	1.89879E+00,	-5.98688E+00,	0.00000E+00,	0,	0
  7.20000E+02,	1.00000E+01,	1.67553E-02,	3.39148E+01,	2.24715E+00,	-7.26614E+00,	0.00000E+00,	0,	0
  5.68421E+02,	1.00000E+01,	1.67553E-02,	3.52825E+01,	2.72533E+00,	-8.90082E+00,	0.00000E+00,	0,	0
  4.40816E+02,	1.00000E+01,	1.67553E-02,	3.83223E+01,	3.40669E+00,	-1.10611E+01,	0.00000E+00,	0,	0
  3.54098E+02,	1.00000E+01,	1.67553E-02,	4.06555E+01,	4.15282E+00,	-1.32760E+01,	0.00000E+00,	0,	0
  2.76923E+02,	1.00000E+01,	1.67553E-02,	4.32795E+01,	5.22940E+00,	-1.62230E+01,	0.00000E+00,	0,	0
  2.20408E+02,	1.00000E+01,	1.67553E-02,	4.61976E+01,	6.49199E+00,	-1.94867E+01,	0.00000E+00,	0,	0
  1.74194E+02,	1.00000E+01,	1.67553E-02,	4.94672E+01,	8.10544E+00,	-2.34328E+01,	0.00000E+00,	0,	0
  1.37580E+02,	1.00000E+01,	1.67553E-02,	5.31190E+01,	1.00925E+01,	-2.80857E+01,	0.00000E+00,	0,	0
  1.09091E+02,	1.00000E+01,	1.67553E-02,	5.71778E+01,	1.24399E+01,	-3.34670E+01,	0.00000E+00,	0,	0
  8.70968E+01,	1.00000E+01,	1.67553E-02,	6.28657E+01,	1.51151E+01,	-3.96263E+01,	0.00000E+00,	0,	0
  6.83544E+01,	1.00000E+01,	1.67553E-02,	6.78997E+01,	1.85207E+01,	-4.76483E+01,	0.00000E+00,	0,	0
  5.45455E+01,	1.00000E+01,	1.67553E-02,	7.33735E+01,	2.22857E+01,	-5.53444E+01,	0.00000E+00,	0,	0
  4.28571E+01,	1.00000E+01,	1.67553E-02,	7.69162E+01,	2.68082E+01,	-6.59629E+01,	0.00000E+00,	0,	0
  3.39623E+01,	1.00000E+01,	1.67553E-02,	8.06749E+01,	3.13229E+01,	-7.81519E+01,	0.00000E+00,	0,	0
  2.68657E+01,	1.00000E+01,	1.67553E-02,	8.45183E+01,	3.73300E+01,	-9.32052E+01,	0.00000E+00,	0,	0
  2.13439E+01,	1.00000E+01,	1.67553E-02,	8.83112E+01,	4.40368E+01,	-1.10713E+02,	0.00000E+00,	0,	0
  1.73077E+01,	1.00000E+01,	1.67553E-02,	9.49752E+01,	5.10594E+01,	-1.29861E+02,	0.00000E+00,	0,	0
  1.36364E+01,	1.00000E+01,	1.67553E-02,	1.00042E+02,	5.99087E+01,	-1.55534E+02,	0.00000E+00,	0,	0
  1.07143E+01,	1.00000E+01,	1.67553E-02,	1.02963E+02,	7.00547E+01,	-1.86996E+02,	0.00000E+00,	0,	0
  8.49057E+00,	1.00000E+01,	1.67553E-02,	1.07174E+02,	8.10406E+01,	-2.24048E+02,	0.00000E+00,	0,	0
  6.71642E+00,	1.00000E+01,	1.67553E-02,	1.09710E+02,	9.33279E+01,	-2.69324E+02,	0.00000E+00,	0,	0
  5.29412E+00,	1.00000E+01,	1.67553E-02,	1.12655E+02,	1.07244E+02,	-3.25587E+02,	0.00000E+00,	0,	0
  4.16667E+00,	1.00000E+01,	1.67553E-02,	1.16127E+02,	1.22565E+02,	-3.95675E+02,	0.00000E+00,	0,	0
  3.30882E+00,	1.00000E+01,	1.67553E-02,	1.20365E+02,	1.38621E+02,	-4.79042E+02,	0.00000E+00,	0,	0
  2.61628E+00,	1.00000E+01,	1.67553E-02,	1.24363E+02,	1.56393E+02,	-5.83903E+02,	0.00000E+00,	0,	0
  2.07373E+00,	1.00000E+01,	1.67553E-02,	1.29129E+02,	1.75461E+02,	-7.13486E+02,	0.00000E+00,	0,	0
  1.64234E+00,	1.00000E+01,	1.67553E-02,	1.34912E+02,	1.96272E+02,	-8.75683E+02,	0.00000E+00,	0,	0
  1.30058E+00,	1.00000E+01,	1.67553E-02,	1.39071E+02,	2.20165E+02,	-1.07887E+03,	0.00000E+00,	0,	0
  1.03211E+00,	1.00000E+01,	1.67553E-02,	1.43486E+02,	2.46886E+02,	-1.33111E+03,	0.00000E+00,	0,	0
  8.15217E-01,	1.00000E+01,	1.67553E-02,	1.50476E+02,	2.79009E+02,	-1.65250E+03,	0.00000E+00,	0,	0
  6.46552E-01,	1.00000E+01,	1.67553E-02,	1.59568E+02,	3.11174E+02,	-2.03637E+03,	0.00000E+00,	0,	0
  5.11364E-01,	1.00000E+01,	1.67553E-02,	1.64572E+02,	3.56136E+02,	-2.54710E+03,	0.00000E+00,	0,	0
  4.07609E-01,	1.00000E+01,	1.67553E-02,	1.70614E+02,	4.13844E+02,	-3.15140E+03,	0.00000E+00,	0,	0
  3.21429E-01,	1.00000E+01,	1.67553E-02,	1.77751E+02,	4.84952E+02,	-3.95795E+03,	0.00000E+00,	0,	0
  2.54525E-01,	1.00000E+01,	1.67553E-02,	1.86536E+02,	5.80609E+02,	-4.92880E+03,	0.00000E+00,	0,	0
  2.01613E-01,	1.00000E+01,	1.67553E-02,	1.97373E+02,	6.98659E+02,	-6.13491E+03,	0.00000E+00,	0,	0
  1.59574E-01,	1.00000E+01,	1.67553E-02,	2.10830E+02,	8.57693E+02,	-7.63718E+03,	0.00000E+00,	0,	0
  1.26689E-01,	1.00000E+01,	1.67553E-02,	2.27727E+02,	1.04741E+03,	-9.48623E+03,	0.00000E+00,	0,	0
  1.00446E-01,	1.00000E+01,	1.67553E-02,	2.48599E+02,	1.29390E+03,	-1.18014E+04,	0.00000E+00,	0,	0