Z60W Data File: Version 1.1
CorrTest for Windows: SN CS310H1805157  V5.2.1111.9  2.5H6.220118
Sweep Frequency: Control Voltage
  Date:5-8-2026   Time:16:11:26
  Begin Information:            Cell Information
      Surface Area:           1
      Density:                7.8
      Weight:                 28
  End Information:              Cell Information
  Freq (Hz)     Ampl(mV)       Bias(V)      Time(Sec)       Z'(Ohm.cm^2)    Z''(Ohm.cm^2)        GD       Err      Range
End Comments
  3.07200E+05,	1.00000E+01,	1.87070E-02,	2.64880E-02,	-1.89152E+00,	3.10327E+00,	0.00000E+00,	0,	0
  2.76480E+05,	1.00000E+01,	1.87070E-02,	1.62263E+00,	-1.27789E+00,	2.29216E+00,	0.00000E+00,	0,	0
  1.97486E+05,	1.00000E+01,	1.87070E-02,	2.54439E+00,	-3.57427E-01,	1.57463E+00,	0.00000E+00,	0,	0
  1.53600E+05,	1.00000E+01,	1.87070E-02,	3.43302E+00,	-1.70631E-02,	1.16061E+00,	0.00000E+00,	0,	0
  1.25673E+05,	1.00000E+01,	1.87070E-02,	4.36661E+00,	1.95304E-01,	8.98320E-01,	0.00000E+00,	0,	0
  9.87429E+04,	1.00000E+01,	1.87070E-02,	5.30721E+00,	3.71352E-01,	6.67383E-01,	0.00000E+00,	0,	0
  7.68000E+04,	1.00000E+01,	1.87070E-02,	6.20593E+00,	4.80099E-01,	4.89996E-01,	0.00000E+00,	0,	0
  6.01043E+04,	1.00000E+01,	1.87070E-02,	9.42326E+00,	5.55443E-01,	3.08407E-01,	0.00000E+00,	0,	0
  4.93714E+04,	1.00000E+01,	1.87070E-02,	1.09905E+01,	5.74742E-01,	2.04451E-01,	0.00000E+00,	0,	0
  3.84000E+04,	1.00000E+01,	1.87070E-02,	1.18759E+01,	5.87493E-01,	8.44826E-02,	0.00000E+00,	0,	0
  3.00522E+04,	1.00000E+01,	1.87070E-02,	1.27246E+01,	5.98847E-01,	-2.77114E-02,	0.00000E+00,	0,	0
  2.38345E+04,	1.00000E+01,	1.87070E-02,	1.35860E+01,	6.11755E-01,	-1.33723E-01,	0.00000E+00,	0,	0
  1.86811E+04,	1.00000E+01,	1.87070E-02,	1.44430E+01,	6.27076E-01,	-2.47863E-01,	0.00000E+00,	0,	0
  1.47064E+04,	1.00000E+01,	1.87070E-02,	1.54048E+01,	6.44722E-01,	-3.68918E-01,	0.00000E+00,	0,	0
  1.15200E+04,	1.00000E+01,	1.87070E-02,	1.63582E+01,	6.67364E-01,	-5.09540E-01,	0.00000E+00,	0,	0
  9.60000E+03,	1.00000E+01,	1.87070E-02,	1.79499E+01,	6.86657E-01,	-6.28651E-01,	0.00000E+00,	0,	0
  7.51304E+03,	1.00000E+01,	1.87070E-02,	1.88148E+01,	7.19299E-01,	-8.14281E-01,	0.00000E+00,	0,	0
  5.76000E+03,	1.00000E+01,	1.87070E-02,	1.97494E+01,	7.62429E-01,	-1.05959E+00,	0.00000E+00,	0,	0
  4.54737E+03,	1.00000E+01,	1.87070E-02,	2.06068E+01,	8.11961E-01,	-1.32661E+00,	0.00000E+00,	0,	0
  3.60000E+03,	1.00000E+01,	1.87070E-02,	2.16023E+01,	8.75262E-01,	-1.64669E+00,	0.00000E+00,	0,	0
  2.88000E+03,	1.00000E+01,	1.87070E-02,	2.24918E+01,	9.52301E-01,	-2.01938E+00,	0.00000E+00,	0,	0
  2.27368E+03,	1.00000E+01,	1.87070E-02,	2.47627E+01,	1.04520E+00,	-2.48237E+00,	0.00000E+00,	0,	0
  1.78144E+03,	1.00000E+01,	1.87070E-02,	2.55527E+01,	1.17745E+00,	-3.08626E+00,	0.00000E+00,	0,	0
  1.41639E+03,	1.00000E+01,	1.87070E-02,	2.64438E+01,	1.34236E+00,	-3.78621E+00,	0.00000E+00,	0,	0
  1.12208E+03,	1.00000E+01,	1.87070E-02,	2.74665E+01,	1.56208E+00,	-4.63558E+00,	0.00000E+00,	0,	0
  9.00000E+02,	1.00000E+01,	1.87070E-02,	3.24630E+01,	1.83561E+00,	-5.63514E+00,	0.00000E+00,	0,	0
  7.20000E+02,	1.00000E+01,	1.87070E-02,	3.38400E+01,	2.18261E+00,	-6.82499E+00,	0.00000E+00,	0,	0
  5.68421E+02,	1.00000E+01,	1.87070E-02,	3.52128E+01,	2.65468E+00,	-8.34036E+00,	0.00000E+00,	0,	0
  4.40816E+02,	1.00000E+01,	1.87070E-02,	3.66630E+01,	3.31877E+00,	-1.03084E+01,	0.00000E+00,	0,	0
  3.54098E+02,	1.00000E+01,	1.87070E-02,	3.90315E+01,	4.04502E+00,	-1.23299E+01,	0.00000E+00,	0,	0
  2.76923E+02,	1.00000E+01,	1.87070E-02,	4.17014E+01,	5.08373E+00,	-1.50163E+01,	0.00000E+00,	0,	0
  2.20408E+02,	1.00000E+01,	1.87070E-02,	4.46290E+01,	6.28522E+00,	-1.79757E+01,	0.00000E+00,	0,	0
  1.74194E+02,	1.00000E+01,	1.87070E-02,	4.78913E+01,	7.80383E+00,	-2.15418E+01,	0.00000E+00,	0,	0
  1.37580E+02,	1.00000E+01,	1.87070E-02,	5.15647E+01,	9.64392E+00,	-2.57402E+01,	0.00000E+00,	0,	0
  1.09091E+02,	1.00000E+01,	1.87070E-02,	5.56725E+01,	1.17835E+01,	-3.05921E+01,	0.00000E+00,	0,	0
  8.70968E+01,	1.00000E+01,	1.87070E-02,	6.38312E+01,	1.42395E+01,	-3.62669E+01,	0.00000E+00,	0,	0
  6.83544E+01,	1.00000E+01,	1.87070E-02,	6.88438E+01,	1.72962E+01,	-4.35713E+01,	0.00000E+00,	0,	0
  5.45455E+01,	1.00000E+01,	1.87070E-02,	7.43068E+01,	2.06573E+01,	-5.06172E+01,	0.00000E+00,	0,	0
  4.28571E+01,	1.00000E+01,	1.87070E-02,	7.78266E+01,	2.46959E+01,	-6.03749E+01,	0.00000E+00,	0,	0
  3.39623E+01,	1.00000E+01,	1.87070E-02,	8.15529E+01,	2.87406E+01,	-7.16049E+01,	0.00000E+00,	0,	0
  2.68657E+01,	1.00000E+01,	1.87070E-02,	8.53916E+01,	3.41350E+01,	-8.54784E+01,	0.00000E+00,	0,	0
  2.13439E+01,	1.00000E+01,	1.87070E-02,	8.91903E+01,	4.01544E+01,	-1.01630E+02,	0.00000E+00,	0,	0
  1.73077E+01,	1.00000E+01,	1.87070E-02,	9.58708E+01,	4.64037E+01,	-1.19280E+02,	0.00000E+00,	0,	0
  1.36364E+01,	1.00000E+01,	1.87070E-02,	1.00895E+02,	5.42251E+01,	-1.43013E+02,	0.00000E+00,	0,	0
  1.07143E+01,	1.00000E+01,	1.87070E-02,	1.03820E+02,	6.30697E+01,	-1.72173E+02,	0.00000E+00,	0,	0
  8.49057E+00,	1.00000E+01,	1.87070E-02,	1.08027E+02,	7.25470E+01,	-2.06660E+02,	0.00000E+00,	0,	0
  6.71642E+00,	1.00000E+01,	1.87070E-02,	1.10545E+02,	8.30206E+01,	-2.48997E+02,	0.00000E+00,	0,	0
  5.29412E+00,	1.00000E+01,	1.87070E-02,	1.13483E+02,	9.47577E+01,	-3.01919E+02,	0.00000E+00,	0,	0
  4.16667E+00,	1.00000E+01,	1.87070E-02,	1.16969E+02,	1.07396E+02,	-3.68002E+02,	0.00000E+00,	0,	0
  3.30882E+00,	1.00000E+01,	1.87070E-02,	1.21213E+02,	1.20601E+02,	-4.47048E+02,	0.00000E+00,	0,	0
  2.61628E+00,	1.00000E+01,	1.87070E-02,	1.25181E+02,	1.35236E+02,	-5.47140E+02,	0.00000E+00,	0,	0
  2.07373E+00,	1.00000E+01,	1.87070E-02,	1.29965E+02,	1.51024E+02,	-6.71368E+02,	0.00000E+00,	0,	0
  1.64234E+00,	1.00000E+01,	1.87070E-02,	1.35765E+02,	1.68652E+02,	-8.27210E+02,	0.00000E+00,	0,	0
  1.30058E+00,	1.00000E+01,	1.87070E-02,	1.39919E+02,	1.89414E+02,	-1.02267E+03,	0.00000E+00,	0,	0
  1.03211E+00,	1.00000E+01,	1.87070E-02,	1.44317E+02,	2.13546E+02,	-1.26540E+03,	0.00000E+00,	0,	0
  8.15217E-01,	1.00000E+01,	1.87070E-02,	1.51262E+02,	2.43650E+02,	-1.57445E+03,	0.00000E+00,	0,	0
  6.46552E-01,	1.00000E+01,	1.87070E-02,	1.60348E+02,	2.74672E+02,	-1.94377E+03,	0.00000E+00,	0,	0
  5.11364E-01,	1.00000E+01,	1.87070E-02,	1.65354E+02,	3.17985E+02,	-2.43569E+03,	0.00000E+00,	0,	0
  4.07609E-01,	1.00000E+01,	1.87070E-02,	1.71405E+02,	3.76347E+02,	-3.01494E+03,	0.00000E+00,	0,	0
  3.21429E-01,	1.00000E+01,	1.87070E-02,	1.78526E+02,	4.47213E+02,	-3.78716E+03,	0.00000E+00,	0,	0
  2.54525E-01,	1.00000E+01,	1.87070E-02,	1.87298E+02,	5.45536E+02,	-4.71672E+03,	0.00000E+00,	0,	0
  2.01613E-01,	1.00000E+01,	1.87070E-02,	1.98144E+02,	6.68228E+02,	-5.86926E+03,	0.00000E+00,	0,	0
  1.59574E-01,	1.00000E+01,	1.87070E-02,	2.11601E+02,	8.27576E+02,	-7.31508E+03,	0.00000E+00,	0,	0
  1.26689E-01,	1.00000E+01,	1.87070E-02,	2.28511E+02,	1.03296E+03,	-9.08364E+03,	0.00000E+00,	0,	0
  1.00446E-01,	1.00000E+01,	1.87070E-02,	2.49386E+02,	1.29717E+03,	-1.12827E+04,	0.00000E+00,	0,	0