June 12, 2026   11:55:07
A.C. Impedance
File: e:\chi_data\Data Source:  Experiment
Instrument Model:  CHI660E
Header: 
Note: 

Init E (V) = 0
High Frequency (Hz) = 1e+6
Low Frequency (Hz) = 0.1
Imp SF
Amplitude (V) = 0.005
Quiet Time (sec) = 2
Cycles (.1-1Hz) = 1

Freq/Hz, Z'/ohm, Z"/ohm, Z/ohm, Phase/deg

8.252e+5, 3.393e+0, 1.429e+1, 1.468e+1, 76.6
6.816e+5, 2.765e+0, 1.163e+1, 1.195e+1, 76.6
5.625e+5, 2.168e+0, 9.661e+0, 9.901e+0, 77.4
4.639e+5, 1.894e+0, 7.928e+0, 8.151e+0, 76.6
3.828e+5, 1.704e+0, 6.602e+0, 6.818e+0, 75.5
3.164e+5, 1.603e+0, 5.463e+0, 5.694e+0, 73.6
2.607e+5, 1.500e+0, 4.541e+0, 4.783e+0, 71.7
2.158e+5, 1.419e+0, 3.749e+0, 4.008e+0, 69.3
1.777e+5, 1.360e+0, 3.078e+0, 3.365e+0, 66.2
1.465e+5, 1.322e+0, 2.512e+0, 2.839e+0, 62.2
1.211e+5, 1.285e+0, 1.911e+0, 2.302e+0, 56.1
9.961e+4, 1.255e+0, 1.325e+0, 1.825e+0, 46.5
8.252e+4, 1.234e+0, 9.205e-1, 1.540e+0, 36.7
6.812e+4, 1.226e+0, 6.553e-1, 1.391e+0, 28.1
5.625e+4, 1.225e+0, 4.869e-1, 1.318e+0, 21.7
4.644e+4, 1.229e+0, 3.489e-1, 1.278e+0, 15.8
3.833e+4, 1.237e+0, 2.233e-1, 1.257e+0, 10.2
3.164e+4, 1.248e+0, 9.772e-2, 1.251e+0, 4.5
2.612e+4, 1.260e+0, -2.684e-2, 1.261e+0, -1.2
2.153e+4, 1.274e+0, -1.540e-1, 1.283e+0, -6.9
1.777e+4, 1.290e+0, -2.822e-1, 1.321e+0, -12.3
1.470e+4, 1.310e+0, -4.137e-1, 1.374e+0, -17.5
1.211e+4, 1.334e+0, -5.518e-1, 1.444e+0, -22.5
1.001e+4, 1.362e+0, -7.030e-1, 1.532e+0, -27.3
8.252e+3, 1.393e+0, -8.735e-1, 1.644e+0, -32.1
6.812e+3, 1.430e+0, -1.066e+0, 1.784e+0, -36.7
5.625e+3, 1.473e+0, -1.287e+0, 1.956e+0, -41.1
4.643e+3, 1.523e+0, -1.541e+0, 2.166e+0, -45.3
3.833e+3, 1.581e+0, -1.838e+0, 2.425e+0, -49.3
3.164e+3, 1.659e+0, -2.191e+0, 2.748e+0, -52.9
2.612e+3, 1.755e+0, -2.611e+0, 3.146e+0, -56.1
2.153e+3, 1.863e+0, -3.105e+0, 3.621e+0, -59.0
1.777e+3, 1.986e+0, -3.685e+0, 4.186e+0, -61.7
1.470e+3, 2.129e+0, -4.368e+0, 4.859e+0, -64.0
1.211e+3, 2.299e+0, -5.170e+0, 5.658e+0, -66.0
1.001e+3, 2.504e+0, -6.115e+0, 6.608e+0, -67.7
8.252e+2, 2.750e+0, -7.227e+0, 7.732e+0, -69.2
6.836e+2, 3.049e+0, -8.548e+0, 9.075e+0, -70.4
5.615e+2, 3.409e+0, -1.011e+1, 1.067e+1, -71.4
4.639e+2, 3.846e+0, -1.196e+1, 1.256e+1, -72.2
3.809e+2, 4.362e+0, -1.410e+1, 1.476e+1, -72.8
3.174e+2, 4.982e+0, -1.663e+1, 1.736e+1, -73.3
2.588e+2, 5.739e+0, -1.963e+1, 2.045e+1, -73.7
2.148e+2, 6.661e+0, -2.318e+1, 2.412e+1, -74.0
1.758e+2, 7.743e+0, -2.731e+1, 2.838e+1, -74.2
1.465e+2, 8.984e+0, -3.198e+1, 3.322e+1, -74.3
1.221e+2, 1.052e+1, -3.769e+1, 3.913e+1, -74.4
9.766e+1, 1.243e+1, -4.427e+1, 4.598e+1, -74.3
8.254e+1, 1.465e+1, -5.167e+1, 5.370e+1, -74.2
6.813e+1, 1.715e+1, -6.043e+1, 6.281e+1, -74.2
5.623e+1, 1.994e+1, -7.070e+1, 7.346e+1, -74.2
4.642e+1, 2.310e+1, -8.285e+1, 8.601e+1, -74.4
3.831e+1, 2.670e+1, -9.713e+1, 1.007e+2, -74.6
3.162e+1, 3.073e+1, -1.139e+2, 1.180e+2, -74.9
2.610e+1, 3.528e+1, -1.338e+2, 1.384e+2, -75.2
2.154e+1, 4.042e+1, -1.573e+2, 1.625e+2, -75.6
1.778e+1, 4.615e+1, -1.852e+2, 1.909e+2, -76.0
1.468e+1, 5.263e+1, -2.184e+2, 2.246e+2, -76.4
1.212e+1, 6.009e+1, -2.576e+2, 2.646e+2, -76.9
1.000e+1, 6.870e+1, -3.042e+2, 3.119e+2, -77.3
8.254e+0, 7.849e+1, -3.597e+2, 3.682e+2, -77.7
6.813e+0, 8.947e+1, -4.259e+2, 4.352e+2, -78.1
5.623e+0, 1.018e+2, -5.049e+2, 5.151e+2, -78.6
4.642e+0, 1.154e+2, -5.995e+2, 6.105e+2, -79.1
3.831e+0, 1.314e+2, -7.121e+2, 7.241e+2, -79.5
3.162e+0, 1.498e+2, -8.469e+2, 8.601e+2, -80.0
2.610e+0, 1.713e+2, -1.009e+3, 1.023e+3, -80.4
2.154e+0, 1.930e+2, -1.206e+3, 1.221e+3, -80.9
1.778e+0, 2.153e+2, -1.442e+3, 1.458e+3, -81.5
1.468e+0, 2.450e+2, -1.723e+3, 1.741e+3, -81.9
1.212e+0, 2.840e+2, -2.051e+3, 2.071e+3, -82.1
1.000e+0, 3.334e+2, -2.430e+3, 2.453e+3, -82.2
8.254e-1, 3.926e+2, -2.879e+3, 2.906e+3, -82.2
6.813e-1, 4.606e+2, -3.414e+3, 3.445e+3, -82.3
5.623e-1, 5.375e+2, -4.058e+3, 4.094e+3, -82.5
4.642e-1, 6.262e+2, -4.831e+3, 4.871e+3, -82.6
3.831e-1, 7.312e+2, -5.753e+3, 5.800e+3, -82.8
3.162e-1, 8.581e+2, -6.854e+3, 6.908e+3, -82.9
2.610e-1, 1.014e+3, -8.167e+3, 8.230e+3, -82.9
2.154e-1, 1.207e+3, -9.729e+3, 9.804e+3, -82.9
1.778e-1, 1.438e+3, -1.158e+4, 1.167e+4, -82.9
1.468e-1, 1.707e+3, -1.372e+4, 1.383e+4, -82.9
1.212e-1, 2.063e+3, -1.634e+4, 1.647e+4, -82.8
1.000e-1, 2.526e+3, -1.949e+4, 1.965e+4, -82.6
