June 10, 2026   22:13:28
A.C. Impedance
File: e:\chi_data\bo-r0.42-n1.02-ljjo-2_t12.0_f0.1_1000000_v0.txt
Data Source:  Experiment
Instrument Model:  CHI660E
Header: 
Note: 

Init E (V) = 0
High Frequency (Hz) = 1e+6
Low Frequency (Hz) = 0.1
Imp SF
Amplitude (V) = 0.005
Quiet Time (sec) = 2
Cycles (.1-1Hz) = 1

Freq/Hz, Z'/ohm, Z"/ohm, Z/ohm, Phase/deg

8.252e+5, 5.109e+0, 1.407e+1, 1.497e+1, 70.0
6.816e+5, 4.583e+0, 1.158e+1, 1.246e+1, 68.4
5.625e+5, 3.984e+0, 9.537e+0, 1.034e+1, 67.3
4.639e+5, 3.717e+0, 7.871e+0, 8.705e+0, 64.7
3.828e+5, 3.515e+0, 6.524e+0, 7.410e+0, 61.7
3.164e+5, 3.415e+0, 5.406e+0, 6.394e+0, 57.7
2.607e+5, 3.326e+0, 4.469e+0, 5.570e+0, 53.3
2.158e+5, 3.263e+0, 3.674e+0, 4.914e+0, 48.4
1.777e+5, 3.215e+0, 2.997e+0, 4.395e+0, 43.0
1.465e+5, 3.185e+0, 2.433e+0, 4.008e+0, 37.4
1.211e+5, 3.156e+0, 1.970e+0, 3.721e+0, 32.0
9.961e+4, 3.138e+0, 1.585e+0, 3.515e+0, 26.8
8.252e+4, 3.129e+0, 1.265e+0, 3.375e+0, 22.0
6.812e+4, 3.130e+0, 9.896e-1, 3.283e+0, 17.5
5.625e+4, 3.136e+0, 7.496e-1, 3.225e+0, 13.4
4.644e+4, 3.147e+0, 5.373e-1, 3.193e+0, 9.7
3.833e+4, 3.163e+0, 3.454e-1, 3.182e+0, 6.2
3.164e+4, 3.181e+0, 1.730e-1, 3.186e+0, 3.1
2.612e+4, 3.201e+0, 1.739e-2, 3.201e+0, 0.3
2.153e+4, 3.223e+0, -1.299e-1, 3.226e+0, -2.3
1.777e+4, 3.246e+0, -2.752e-1, 3.258e+0, -4.8
1.470e+4, 3.272e+0, -4.257e-1, 3.299e+0, -7.4
1.211e+4, 3.299e+0, -5.836e-1, 3.351e+0, -10.0
1.001e+4, 3.328e+0, -7.554e-1, 3.413e+0, -12.8
8.252e+3, 3.359e+0, -9.478e-1, 3.490e+0, -15.8
6.812e+3, 3.394e+0, -1.166e+0, 3.588e+0, -19.0
5.625e+3, 3.434e+0, -1.416e+0, 3.714e+0, -22.4
4.643e+3, 3.477e+0, -1.706e+0, 3.873e+0, -26.1
3.833e+3, 3.524e+0, -2.046e+0, 4.075e+0, -30.1
3.164e+3, 3.577e+0, -2.450e+0, 4.336e+0, -34.4
2.612e+3, 3.636e+0, -2.930e+0, 4.670e+0, -38.9
2.153e+3, 3.703e+0, -3.502e+0, 5.097e+0, -43.4
1.777e+3, 3.779e+0, -4.185e+0, 5.638e+0, -47.9
1.470e+3, 3.866e+0, -5.003e+0, 6.323e+0, -52.3
1.211e+3, 3.970e+0, -5.981e+0, 7.178e+0, -56.4
1.001e+3, 4.095e+0, -7.152e+0, 8.242e+0, -60.2
8.252e+2, 4.246e+0, -8.550e+0, 9.546e+0, -63.6
6.836e+2, 4.427e+0, -1.023e+1, 1.115e+1, -66.6
5.615e+2, 4.646e+0, -1.225e+1, 1.311e+1, -69.2
4.639e+2, 4.915e+0, -1.469e+1, 1.549e+1, -71.5
3.809e+2, 5.238e+0, -1.755e+1, 1.832e+1, -73.4
3.174e+2, 5.648e+0, -2.102e+1, 2.176e+1, -75.0
2.588e+2, 6.159e+0, -2.520e+1, 2.594e+1, -76.3
2.148e+2, 6.784e+0, -3.023e+1, 3.098e+1, -77.4
1.758e+2, 7.537e+0, -3.618e+1, 3.695e+1, -78.2
1.465e+2, 8.427e+0, -4.304e+1, 4.385e+1, -78.9
1.221e+2, 9.600e+0, -5.160e+1, 5.248e+1, -79.5
9.766e+1, 1.120e+1, -6.167e+1, 6.268e+1, -79.7
8.254e+1, 1.318e+1, -7.327e+1, 7.444e+1, -79.8
6.813e+1, 1.550e+1, -8.726e+1, 8.863e+1, -79.9
5.623e+1, 1.824e+1, -1.039e+2, 1.055e+2, -80.0
4.642e+1, 2.160e+1, -1.237e+2, 1.256e+2, -80.1
3.831e+1, 2.580e+1, -1.475e+2, 1.497e+2, -80.1
3.162e+1, 3.104e+1, -1.758e+2, 1.785e+2, -80.0
2.610e+1, 3.749e+1, -2.091e+2, 2.124e+2, -79.8
2.154e+1, 4.535e+1, -2.483e+2, 2.524e+2, -79.6
1.778e+1, 5.499e+1, -2.943e+2, 2.994e+2, -79.4
1.468e+1, 6.685e+1, -3.486e+2, 3.549e+2, -79.1
1.212e+1, 8.097e+1, -4.124e+2, 4.202e+2, -78.9
1.000e+1, 9.808e+1, -4.873e+2, 4.970e+2, -78.6
8.254e+0, 1.184e+2, -5.754e+2, 5.875e+2, -78.4
6.813e+0, 1.417e+2, -6.794e+2, 6.940e+2, -78.2
5.623e+0, 1.685e+2, -8.018e+2, 8.193e+2, -78.1
4.642e+0, 1.990e+2, -9.468e+2, 9.675e+2, -78.1
3.831e+0, 2.343e+2, -1.118e+3, 1.142e+3, -78.2
3.162e+0, 2.746e+2, -1.322e+3, 1.350e+3, -78.3
2.610e+0, 3.222e+2, -1.567e+3, 1.599e+3, -78.4
2.154e+0, 3.714e+2, -1.862e+3, 1.899e+3, -78.7
1.778e+0, 4.257e+2, -2.213e+3, 2.253e+3, -79.1
1.468e+0, 4.958e+2, -2.620e+3, 2.666e+3, -79.3
1.212e+0, 5.870e+2, -3.098e+3, 3.153e+3, -79.3
1.000e+0, 7.040e+2, -3.660e+3, 3.728e+3, -79.1
8.254e-1, 8.465e+2, -4.318e+3, 4.400e+3, -78.9
6.813e-1, 1.018e+3, -5.086e+3, 5.187e+3, -78.7
5.623e-1, 1.224e+3, -5.992e+3, 6.115e+3, -78.5
4.642e-1, 1.475e+3, -7.055e+3, 7.208e+3, -78.2
3.831e-1, 1.781e+3, -8.303e+3, 8.492e+3, -77.9
3.162e-1, 2.152e+3, -9.765e+3, 9.999e+3, -77.6
2.610e-1, 2.600e+3, -1.147e+4, 1.176e+4, -77.2
2.154e-1, 3.130e+3, -1.345e+4, 1.381e+4, -76.9
1.778e-1, 3.741e+3, -1.573e+4, 1.616e+4, -76.6
1.468e-1, 4.420e+3, -1.831e+4, 1.883e+4, -76.4
1.212e-1, 5.264e+3, -2.141e+4, 2.204e+4, -76.2
1.000e-1, 6.322e+3, -2.511e+4, 2.589e+4, -75.9
