June 11, 2026   05:57:59
A.C. Impedance
File: e:\chi_data\bo-r0.42-n1.02-ljjo-2_t-90.0_f0.1_1000000_v0.txt
Data Source:  Experiment
Instrument Model:  CHI660E
Header: 
Note: 

Init E (V) = 0
High Frequency (Hz) = 1e+6
Low Frequency (Hz) = 0.1
Imp SF
Amplitude (V) = 0.005
Quiet Time (sec) = 2
Cycles (.1-1Hz) = 1

Freq/Hz, Z'/ohm, Z"/ohm, Z/ohm, Phase/deg

8.252e+5, 5.224e+2, -4.348e+2, 6.797e+2, -39.8
6.816e+5, 6.075e+2, -4.768e+2, 7.722e+2, -38.1
5.625e+5, 7.046e+2, -5.075e+2, 8.683e+2, -35.8
4.639e+5, 7.944e+2, -5.289e+2, 9.544e+2, -33.7
3.828e+5, 8.886e+2, -5.376e+2, 1.039e+3, -31.2
3.164e+5, 9.763e+2, -5.365e+2, 1.114e+3, -28.8
2.607e+5, 1.063e+3, -5.270e+2, 1.186e+3, -26.4
2.158e+5, 1.140e+3, -5.135e+2, 1.250e+3, -24.3
1.777e+5, 1.209e+3, -5.020e+2, 1.309e+3, -22.6
1.465e+5, 1.272e+3, -4.895e+2, 1.363e+3, -21.1
1.211e+5, 1.332e+3, -4.740e+2, 1.414e+3, -19.6
9.961e+4, 1.393e+3, -4.585e+2, 1.467e+3, -18.2
8.252e+4, 1.449e+3, -4.438e+2, 1.516e+3, -17.0
6.812e+4, 1.503e+3, -4.311e+2, 1.564e+3, -16.0
5.625e+4, 1.559e+3, -4.208e+2, 1.614e+3, -15.1
4.644e+4, 1.613e+3, -4.093e+2, 1.664e+3, -14.2
3.833e+4, 1.670e+3, -3.971e+2, 1.716e+3, -13.4
3.164e+4, 1.727e+3, -3.896e+2, 1.770e+3, -12.7
2.612e+4, 1.782e+3, -3.811e+2, 1.823e+3, -12.1
2.153e+4, 1.838e+3, -3.678e+2, 1.874e+3, -11.3
1.777e+4, 1.884e+3, -3.439e+2, 1.915e+3, -10.3
1.470e+4, 1.925e+3, -3.169e+2, 1.951e+3, -9.3
1.211e+4, 1.962e+3, -2.978e+2, 1.985e+3, -8.6
1.001e+4, 1.995e+3, -2.761e+2, 2.014e+3, -7.9
8.252e+3, 2.030e+3, -2.508e+2, 2.046e+3, -7.0
6.812e+3, 2.061e+3, -2.281e+2, 2.073e+3, -6.3
5.625e+3, 2.087e+3, -2.080e+2, 2.098e+3, -5.7
4.643e+3, 2.107e+3, -1.946e+2, 2.116e+3, -5.3
3.833e+3, 2.127e+3, -1.863e+2, 2.135e+3, -5.0
3.164e+3, 2.150e+3, -1.792e+2, 2.157e+3, -4.8
2.612e+3, 2.172e+3, -1.737e+2, 2.179e+3, -4.6
2.153e+3, 2.192e+3, -1.692e+2, 2.198e+3, -4.4
1.777e+3, 2.210e+3, -1.672e+2, 2.216e+3, -4.3
1.470e+3, 2.228e+3, -1.680e+2, 2.234e+3, -4.3
1.211e+3, 2.247e+3, -1.701e+2, 2.253e+3, -4.3
1.001e+3, 2.266e+3, -1.680e+2, 2.272e+3, -4.2
8.252e+2, 2.286e+3, -1.659e+2, 2.292e+3, -4.2
6.836e+2, 2.307e+3, -1.711e+2, 2.313e+3, -4.2
5.615e+2, 2.327e+3, -1.814e+2, 2.335e+3, -4.5
4.639e+2, 2.350e+3, -1.965e+2, 2.358e+3, -4.8
3.809e+2, 2.373e+3, -2.145e+2, 2.383e+3, -5.2
3.174e+2, 2.398e+3, -2.342e+2, 2.410e+3, -5.6
2.588e+2, 2.424e+3, -2.548e+2, 2.438e+3, -6.0
2.148e+2, 2.451e+3, -2.764e+2, 2.466e+3, -6.4
1.758e+2, 2.480e+3, -3.030e+2, 2.499e+3, -7.0
1.465e+2, 2.513e+3, -3.339e+2, 2.535e+3, -7.6
1.221e+2, 2.547e+3, -3.658e+2, 2.573e+3, -8.2
9.766e+1, 2.584e+3, -3.942e+2, 2.614e+3, -8.7
8.254e+1, 2.623e+3, -4.250e+2, 2.657e+3, -9.2
6.813e+1, 2.665e+3, -4.692e+2, 2.706e+3, -10.0
5.623e+1, 2.708e+3, -5.256e+2, 2.759e+3, -11.0
4.642e+1, 2.754e+3, -5.935e+2, 2.817e+3, -12.2
3.831e+1, 2.805e+3, -6.714e+2, 2.884e+3, -13.5
3.162e+1, 2.860e+3, -7.601e+2, 2.959e+3, -14.9
2.610e+1, 2.920e+3, -8.614e+2, 3.044e+3, -16.4
2.154e+1, 2.985e+3, -9.781e+2, 3.141e+3, -18.1
1.778e+1, 3.058e+3, -1.114e+3, 3.254e+3, -20.0
1.468e+1, 3.139e+3, -1.272e+3, 3.387e+3, -22.1
1.212e+1, 3.228e+3, -1.458e+3, 3.542e+3, -24.3
1.000e+1, 3.329e+3, -1.677e+3, 3.728e+3, -26.7
8.254e+0, 3.443e+3, -1.939e+3, 3.952e+3, -29.4
6.813e+0, 3.569e+3, -2.253e+3, 4.221e+3, -32.3
5.623e+0, 3.708e+3, -2.627e+3, 4.544e+3, -35.3
4.642e+0, 3.863e+3, -3.080e+3, 4.940e+3, -38.6
3.831e+0, 4.025e+3, -3.613e+3, 5.409e+3, -41.9
3.162e+0, 4.207e+3, -4.266e+3, 5.992e+3, -45.4
2.610e+0, 4.400e+3, -5.044e+3, 6.694e+3, -48.9
2.154e+0, 4.623e+3, -6.092e+3, 7.647e+3, -52.8
1.778e+0, 4.852e+3, -7.384e+3, 8.835e+3, -56.7
1.468e+0, 5.035e+3, -8.753e+3, 1.010e+4, -60.1
1.212e+0, 5.206e+3, -1.023e+4, 1.148e+4, -63.0
1.000e+0, 5.400e+3, -1.188e+4, 1.305e+4, -65.6
8.254e-1, 5.634e+3, -1.377e+4, 1.488e+4, -67.8
6.813e-1, 5.894e+3, -1.601e+4, 1.706e+4, -69.8
5.623e-1, 6.198e+3, -1.871e+4, 1.971e+4, -71.7
4.642e-1, 6.577e+3, -2.189e+4, 2.285e+4, -73.3
3.831e-1, 7.044e+3, -2.568e+4, 2.663e+4, -74.7
3.162e-1, 7.610e+3, -3.023e+4, 3.118e+4, -75.9
2.610e-1, 8.299e+3, -3.569e+4, 3.664e+4, -76.9
2.154e-1, 9.127e+3, -4.225e+4, 4.322e+4, -77.8
1.778e-1, 1.015e+4, -5.006e+4, 5.108e+4, -78.5
1.468e-1, 1.141e+4, -5.937e+4, 6.046e+4, -79.1
1.212e-1, 1.294e+4, -7.051e+4, 7.168e+4, -79.6
1.000e-1, 1.476e+4, -8.353e+4, 8.482e+4, -80.0
