June 11, 2026   04:38:50
A.C. Impedance
File: e:\chi_data\bo-r0.42-n1.02-ljjo-2_t-72.0_f0.1_1000000_v0.txt
Data Source:  Experiment
Instrument Model:  CHI660E
Header: 
Note: 

Init E (V) = 0
High Frequency (Hz) = 1e+6
Low Frequency (Hz) = 0.1
Imp SF
Amplitude (V) = 0.005
Quiet Time (sec) = 2
Cycles (.1-1Hz) = 1

Freq/Hz, Z'/ohm, Z"/ohm, Z/ohm, Phase/deg

8.252e+5, 1.035e+2, -1.454e+1, 1.045e+2, -8.0
6.816e+5, 1.063e+2, -1.828e+1, 1.079e+2, -9.8
5.625e+5, 1.089e+2, -1.938e+1, 1.106e+2, -10.1
4.639e+5, 1.124e+2, -2.002e+1, 1.142e+2, -10.1
3.828e+5, 1.161e+2, -1.950e+1, 1.177e+2, -9.5
3.164e+5, 1.197e+2, -1.887e+1, 1.212e+2, -9.0
2.607e+5, 1.228e+2, -1.798e+1, 1.242e+2, -8.3
2.158e+5, 1.257e+2, -1.714e+1, 1.268e+2, -7.8
1.777e+5, 1.283e+2, -1.686e+1, 1.294e+2, -7.5
1.465e+5, 1.305e+2, -1.636e+1, 1.316e+2, -7.1
1.211e+5, 1.323e+2, -1.395e+1, 1.331e+2, -6.0
9.961e+4, 1.339e+2, -1.094e+1, 1.343e+2, -4.7
8.252e+4, 1.352e+2, -8.983e+0, 1.355e+2, -3.8
6.812e+4, 1.364e+2, -8.053e+0, 1.366e+2, -3.4
5.625e+4, 1.374e+2, -7.884e+0, 1.377e+2, -3.3
4.644e+4, 1.385e+2, -8.167e+0, 1.388e+2, -3.4
3.833e+4, 1.396e+2, -8.506e+0, 1.399e+2, -3.5
3.164e+4, 1.407e+2, -8.772e+0, 1.410e+2, -3.6
2.612e+4, 1.418e+2, -9.086e+0, 1.421e+2, -3.7
2.153e+4, 1.430e+2, -9.320e+0, 1.433e+2, -3.7
1.777e+4, 1.441e+2, -9.571e+0, 1.444e+2, -3.8
1.470e+4, 1.451e+2, -9.959e+0, 1.454e+2, -3.9
1.211e+4, 1.462e+2, -1.055e+1, 1.465e+2, -4.1
1.001e+4, 1.473e+2, -1.123e+1, 1.478e+2, -4.4
8.252e+3, 1.486e+2, -1.197e+1, 1.491e+2, -4.6
6.812e+3, 1.499e+2, -1.282e+1, 1.504e+2, -4.9
5.625e+3, 1.513e+2, -1.380e+1, 1.519e+2, -5.2
4.643e+3, 1.527e+2, -1.494e+1, 1.534e+2, -5.6
3.833e+3, 1.542e+2, -1.616e+1, 1.551e+2, -6.0
3.164e+3, 1.559e+2, -1.759e+1, 1.569e+2, -6.4
2.612e+3, 1.577e+2, -1.926e+1, 1.589e+2, -7.0
2.153e+3, 1.596e+2, -2.111e+1, 1.610e+2, -7.5
1.777e+3, 1.616e+2, -2.318e+1, 1.633e+2, -8.2
1.470e+3, 1.638e+2, -2.553e+1, 1.657e+2, -8.9
1.211e+3, 1.661e+2, -2.822e+1, 1.685e+2, -9.6
1.001e+3, 1.685e+2, -3.112e+1, 1.714e+2, -10.5
8.252e+2, 1.711e+2, -3.437e+1, 1.745e+2, -11.4
6.836e+2, 1.738e+2, -3.829e+1, 1.780e+2, -12.4
5.615e+2, 1.768e+2, -4.290e+1, 1.819e+2, -13.6
4.639e+2, 1.801e+2, -4.833e+1, 1.865e+2, -15.0
3.809e+2, 1.837e+2, -5.452e+1, 1.917e+2, -16.5
3.174e+2, 1.876e+2, -6.169e+1, 1.975e+2, -18.2
2.588e+2, 1.920e+2, -7.009e+1, 2.044e+2, -20.1
2.148e+2, 1.969e+2, -7.995e+1, 2.125e+2, -22.1
1.758e+2, 2.020e+2, -9.140e+1, 2.218e+2, -24.3
1.465e+2, 2.074e+2, -1.044e+2, 2.322e+2, -26.7
1.221e+2, 2.134e+2, -1.200e+2, 2.449e+2, -29.3
9.766e+1, 2.205e+2, -1.378e+2, 2.600e+2, -32.0
8.254e+1, 2.282e+2, -1.582e+2, 2.776e+2, -34.7
6.813e+1, 2.363e+2, -1.832e+2, 2.990e+2, -37.8
5.623e+1, 2.448e+2, -2.131e+2, 3.246e+2, -41.0
4.642e+1, 2.539e+2, -2.489e+2, 3.556e+2, -44.4
3.831e+1, 2.638e+2, -2.915e+2, 3.931e+2, -47.9
3.162e+1, 2.748e+2, -3.420e+2, 4.387e+2, -51.2
2.610e+1, 2.869e+2, -4.019e+2, 4.938e+2, -54.5
2.154e+1, 3.002e+2, -4.731e+2, 5.603e+2, -57.6
1.778e+1, 3.145e+2, -5.582e+2, 6.407e+2, -60.6
1.468e+1, 3.302e+2, -6.602e+2, 7.381e+2, -63.4
1.212e+1, 3.472e+2, -7.820e+2, 8.556e+2, -66.1
1.000e+1, 3.671e+2, -9.283e+2, 9.982e+2, -68.4
8.254e+0, 3.900e+2, -1.104e+3, 1.171e+3, -70.6
6.813e+0, 4.154e+2, -1.316e+3, 1.380e+3, -72.5
5.623e+0, 4.443e+2, -1.569e+3, 1.630e+3, -74.2
4.642e+0, 4.766e+2, -1.873e+3, 1.933e+3, -75.7
3.831e+0, 5.166e+2, -2.236e+3, 2.295e+3, -77.0
3.162e+0, 5.639e+2, -2.671e+3, 2.730e+3, -78.1
2.610e+0, 6.195e+2, -3.191e+3, 3.251e+3, -79.0
2.154e+0, 6.767e+2, -3.829e+3, 3.888e+3, -80.0
1.778e+0, 7.385e+2, -4.597e+3, 4.656e+3, -80.9
1.468e+0, 8.252e+2, -5.497e+3, 5.559e+3, -81.5
1.212e+0, 9.478e+2, -6.553e+3, 6.622e+3, -81.8
1.000e+0, 1.114e+3, -7.805e+3, 7.885e+3, -81.9
8.254e-1, 1.323e+3, -9.287e+3, 9.380e+3, -81.9
6.813e-1, 1.569e+3, -1.104e+4, 1.115e+4, -81.9
5.623e-1, 1.868e+3, -1.313e+4, 1.326e+4, -81.9
4.642e-1, 2.239e+3, -1.561e+4, 1.577e+4, -81.8
3.831e-1, 2.695e+3, -1.856e+4, 1.876e+4, -81.7
3.162e-1, 3.273e+3, -2.206e+4, 2.230e+4, -81.6
2.610e-1, 3.997e+3, -2.620e+4, 2.651e+4, -81.3
2.154e-1, 4.890e+3, -3.111e+4, 3.150e+4, -81.1
1.778e-1, 5.979e+3, -3.691e+4, 3.739e+4, -80.8
1.468e-1, 7.307e+3, -4.374e+4, 4.434e+4, -80.5
1.212e-1, 8.943e+3, -5.179e+4, 5.256e+4, -80.2
1.000e-1, 1.089e+4, -6.112e+4, 6.208e+4, -79.9
