EXPLAIN
TAG	EISPOT
TITLE	LABEL	Potentiostatic EIS	Test Identifier
DATE	LABEL	9/13/2020	Date
TIME	LABEL	21:36:08	Time
NOTES	NOTES	1	Notes...
	
PSTAT	PSTAT	REF3000-16137	Potentiostat
VDC	POTEN	0.00000E+000	T	DC Voltage (V)
FREQINIT	QUANT	3.00000E+005	Initial Freq. (Hz)
FREQFINAL	QUANT	1.00000E+000	Final Freq. (Hz)
PTSPERDEC	QUANT	1.00000E+001	Points/decade
VAC	QUANT	5.00000E+001	AC Voltage (mV rms)
AREA	QUANT	1.00000E+000	Sample Area (cm^2)
SPEED	SELECTOR	2	Optimize for:
ZGUESS	QUANT	1.00000E+003	Estimated Z (ohms)
EOC	QUANT	0	Open Circuit (V)
SEQUENCER	TOGGLE	TRUE	Run as Sequence
PSTATMODEL	IQUANT	5	Pstat Model
PSTATSECTION	LABEL	REF3000-16137	Pstat Section
PSTATSERIALNO	LABEL	16137	Pstat Serial Number
CTRLMODE	IQUANT	1	Control Mode
IESTAB	IQUANT	0	I/E Stability
CASPEED	IQUANT	1	Control Amp Speed
CONVENTION	IQUANT	1	Current Convention
ICHRANGE	IQUANT	2	Ich Range
ICHRANGEMODE	TOGGLE	F	Ich Auto Range
ICHOFFSETENABLE	TOGGLE	T	Ich Offset Enable
ICHOFFSET	QUANT	0	Ich Offset (V)
ICHFILTER	IQUANT	3	Ich Filter
VCHRANGE	IQUANT	2	Vch Range
VCHRANGEMODE	TOGGLE	F	Vch Auto Range
VCHOFFSETENABLE	TOGGLE	T	Vch Offset Enable
VCHOFFSET	QUANT	0	Vch Offset (V)
VCHFILTER	IQUANT	3	Vch Filter
ACHRANGE	IQUANT	2	Ach Range
ACHOFFSETENABLE	TOGGLE	F	Ach Offset Enable
ACHOFFSET	QUANT	0	Ach Offset (V)
ACHFILTER	IQUANT	3	Ach Filter
IERANGELOWERLIMIT	IQUANT	2	I/E Range Lower Limit
IERANGEMODE	TOGGLE	F	I/E AutoRange
IERANGE	IQUANT	11	I/E Range
POSFEEDENABLE	TOGGLE	F	Positive Feedback IR Comp
POSFEEDRESISTANCE	QUANT	0	Positive Feedback Resistance (ohm)
ACHSELECT	IQUANT	0	Ach Select
CABLEID	IQUANT	13	Cable ID
DCCALDATE	LABEL	7/31/2020	DC Calibration Date
ACCALDATE	LABEL	7/31/2020	AC Calibration Date
THERMOSELECT	IQUANT	1	Thermo Select
FRAMEWORKVERSION	QUANT	6.33	Framework Version
INSTRUMENTVERSION	LABEL	3.50	Instrument Version
COMPLIANCEVOLTAGE	IQUANT	0	Compliance Voltage
ZCURVE	TABLE
	Pt	Time	Freq	Zreal	Zimag	Zsig	Zmod	Zphz	Idc	Vdc	IERange
	#	s	Hz	ohm	ohm	V	ohm	°	A	V	#
	0	8	300046.9	8.341733	2.217769	1	8.631513	14.88849	-9.342084E-005	7.362833E-005	10
	1	11	238359.4	8.346411	1.752301	1	8.528372	11.85685	-4.820127E-005	0.0001503	10
	2	15	189328.1	8.344766	1.381751	1	8.458389	9.4019	-7.117155E-006	0.0003816	10
	3	17	150421.9	8.352012	1.070466	1	8.420332	7.303702	2.725122E-005	0.0004228	10
	4	20	119484.4	8.360188	0.8345141	1	8.401735	5.700383	1.870347E-005	0.000501	10
	5	22	94921.88	8.377517	0.6582937	1	8.403341	4.492991	-2.411108E-005	0.0006176	10
	6	25	75421.88	8.390672	0.4791664	1	8.404343	3.268442	8.772972E-006	0.0006124	10
	7	27	59859.37	8.408349	0.3243892	1	8.414604	2.209342	1.249144E-005	0.0005883	10
	8	30	47578.12	8.432158	0.1926621	1	8.43436	1.308895	9.288915E-006	0.0005805	10
	9	32	37828.12	8.45623	0.0747186	1	8.45656	0.5062479	-2.236591E-005	0.0006974	10
	10	35	30046.88	8.48017	-0.0375114	1	8.480253	-0.2534418	-4.641196E-006	0.0006127	10
	11	37	23859.38	8.505555	-0.1492789	1	8.506866	-1.005481	-1.991107E-005	0.000641	10
	12	40	18984.38	8.530094	-0.2657349	1	8.534232	-1.784338	1.768588E-005	0.0006094	10
	13	42	15046.87	8.558841	-0.3958569	1	8.56799	-2.648113	-1.04962E-005	0.0006532	10
	14	44	11953.13	8.586941	-0.5432475	1	8.604108	-3.619957	2.034033E-005	0.0006161	10
	15	46	9515.62	8.621821	-0.7127633	1	8.651234	-4.725878	8.78973E-006	0.0006821	10
	16	49	7546.875	8.65825	-0.9197094	1	8.70696	-6.06342	-7.744849E-006	0.0006509	10
	17	51	5928.309	8.702537	-1.180596	1	8.782252	-7.725645	-2.238197E-005	0.0006944	10
	18	53	4733.456	8.749068	-1.476963	1	8.872858	-9.58197	2.206207E-005	0.0006385	10
	19	56	3796.875	8.805608	-1.8322	1	8.994203	-11.75394	-2.395291E-005	0.0007492	10
	20	58	2987.132	8.872532	-2.309974	1	9.168304	-14.59306	2.11301E-005	0.0006543	10
	21	60	2390.625	8.949632	-2.85609	1	9.394315	-17.69941	2.681619E-006	0.0006352	10
	22	63	1884.191	9.047829	-3.578697	1	9.72987	-21.58034	1.846077E-005	0.0006548	10
	23	65	1516.544	9.159656	-4.388697	1	10.15677	-25.60064	-1.855419E-005	0.0006654	10
	24	67	1193.986	9.310038	-5.490908	1	10.80865	-30.53141	1.133331E-005	0.0006099	10
	25	70	946.5144	9.491968	-6.824512	1	11.69066	-35.71529	-1.163765E-005	0.0007158	10
	26	72	751.7689	9.71368	-8.45737	1	12.87954	-41.04499	-5.55855E-006	0.0006741	10
	27	74	597.4265	9.99627	-10.46516	1	14.47222	-46.31274	-1.791838E-005	0.0006646	10
	28	77	477.4305	10.33341	-12.87867	1	16.5118	-51.25763	-2.617185E-006	0.0006641	10
	29	79	376.6741	10.78528	-16.02861	1	19.31939	-56.0643	-2.895809E-006	0.0006616	10
	30	81	298.2954	11.34766	-19.87333	1	22.8849	-60.27365	-1.940235E-006	0.000665	10
	31	84	237.7717	12.03602	-24.47857	1	27.27757	-63.81683	-3.028733E-006	0.0006655	10
	32	86	189.0121	12.9144	-30.22504	1	32.86845	-66.8642	-2.744523E-006	0.0006654	10
	33	88	150.2404	14.02661	-37.30217	1	39.8522	-69.39241	-3.082924E-006	0.0006624	10
	34	91	119.1737	15.44	-46.05943	1	48.57844	-71.46786	1.349461E-006	6.62653E-005	9
	35	93	95.0169	17.23963	-56.63884	1	59.20441	-73.0709	1.401492E-006	6.346239E-005	9
	36	96	75.60484	19.58504	-69.73322	1	72.43131	-74.31225	7.90952E-007	0.0001178	9
	37	98	54.50582	24.18857	-93.72337	1	96.7944	-75.52862	1.165395E-006	5.814031E-005	9
	38	101	45.95588	27.3648	-109.238	1	112.6134	-75.93645	1.24654E-006	6.466582E-005	9
	39	103	37.20238	32.19652	-131.8343	1	135.7088	-76.27589	1.158949E-006	6.71148E-005	9
	40	105	30.04808	38.36744	-159.1823	1	163.7408	-76.44857	1.222647E-006	6.518102E-005	9
	41	108	23.91582	46.54384	-194.2674	1	199.7652	-76.52667	1.237869E-006	6.100968E-005	9
	42	110	18.60119	57.84389	-241.4463	1	248.2785	-76.52743	1.216464E-006	6.697844E-005	9
	43	112	15.02404	69.6153	-289.9396	1	298.18	-76.4987	1.298943E-006	6.421775E-005	9
	44	115	12.01923	84.50957	-350.6242	1	360.6649	-76.44869	1.442185E-006	6.355352E-005	9
	45	117	9.450605	103.081	-428.1629	1	440.3966	-76.46354	6.97169E-007	0.0006303	8
	46	120	7.512019	124.7828	-520.2048	1	534.9615	-76.51118	7.268192E-007	0.0006427	8
	47	122	5.978954	149.8766	-631.043	1	648.5971	-76.63944	7.109065E-007	0.0006394	8
	48	125	4.734848	180.1381	-769.5641	1	790.3662	-76.82552	7.358072E-007	0.000671	8
	49	129	3.75601	215.1617	-938.3309	1	962.683	-77.0852	6.36759E-007	0.0006296	8
	50	132	3.004808	254.5531	-1136.946	1	1165.094	-77.38006	6.934595E-007	0.0006337	8
	51	136	2.372217	305.725	-1394.341	1	1427.464	-77.63296	6.878088E-007	0.0006557	8
	52	140	1.878005	366.7033	-1714.792	1	1753.563	-77.92928	6.019839E-007	0.0006962	8
	53	145	1.512097	432.8157	-2075.923	1	2120.562	-78.22293	6.664854E-007	0.0005461	8
	54	150	1.201923	523.4921	-2546.321	1	2599.576	-78.38257	6.473676E-007	0.0006468	8
	55	156	0.956633	632.3277	-3117.649	1	3181.128	-78.53468	6.493006E-007	-1.082525E-006	8
