EXPLAIN
TAG	EISPOT
TITLE	LABEL	Potentiostatic EIS	Test Identifier
DATE	LABEL	9/13/2020	Date
TIME	LABEL	20:36:37	Time
NOTES	NOTES	1	Notes...
	
PSTAT	PSTAT	REF3000-16137	Potentiostat
VDC	POTEN	0.00000E+000	T	DC Voltage (V)
FREQINIT	QUANT	3.00000E+005	Initial Freq. (Hz)
FREQFINAL	QUANT	1.00000E+000	Final Freq. (Hz)
PTSPERDEC	QUANT	1.00000E+001	Points/decade
VAC	QUANT	5.00000E+001	AC Voltage (mV rms)
AREA	QUANT	1.00000E+000	Sample Area (cm^2)
SPEED	SELECTOR	2	Optimize for:
ZGUESS	QUANT	1.00000E+003	Estimated Z (ohms)
EOC	QUANT	0	Open Circuit (V)
SEQUENCER	TOGGLE	TRUE	Run as Sequence
PSTATMODEL	IQUANT	5	Pstat Model
PSTATSECTION	LABEL	REF3000-16137	Pstat Section
PSTATSERIALNO	LABEL	16137	Pstat Serial Number
CTRLMODE	IQUANT	1	Control Mode
IESTAB	IQUANT	0	I/E Stability
CASPEED	IQUANT	1	Control Amp Speed
CONVENTION	IQUANT	1	Current Convention
ICHRANGE	IQUANT	2	Ich Range
ICHRANGEMODE	TOGGLE	F	Ich Auto Range
ICHOFFSETENABLE	TOGGLE	T	Ich Offset Enable
ICHOFFSET	QUANT	0	Ich Offset (V)
ICHFILTER	IQUANT	3	Ich Filter
VCHRANGE	IQUANT	2	Vch Range
VCHRANGEMODE	TOGGLE	F	Vch Auto Range
VCHOFFSETENABLE	TOGGLE	T	Vch Offset Enable
VCHOFFSET	QUANT	0	Vch Offset (V)
VCHFILTER	IQUANT	3	Vch Filter
ACHRANGE	IQUANT	2	Ach Range
ACHOFFSETENABLE	TOGGLE	F	Ach Offset Enable
ACHOFFSET	QUANT	0	Ach Offset (V)
ACHFILTER	IQUANT	3	Ach Filter
IERANGELOWERLIMIT	IQUANT	2	I/E Range Lower Limit
IERANGEMODE	TOGGLE	F	I/E AutoRange
IERANGE	IQUANT	11	I/E Range
POSFEEDENABLE	TOGGLE	F	Positive Feedback IR Comp
POSFEEDRESISTANCE	QUANT	0	Positive Feedback Resistance (ohm)
ACHSELECT	IQUANT	0	Ach Select
CABLEID	IQUANT	13	Cable ID
DCCALDATE	LABEL	7/31/2020	DC Calibration Date
ACCALDATE	LABEL	7/31/2020	AC Calibration Date
THERMOSELECT	IQUANT	1	Thermo Select
FRAMEWORKVERSION	QUANT	6.33	Framework Version
INSTRUMENTVERSION	LABEL	3.50	Instrument Version
COMPLIANCEVOLTAGE	IQUANT	0	Compliance Voltage
ZCURVE	TABLE
	Pt	Time	Freq	Zreal	Zimag	Zsig	Zmod	Zphz	Idc	Vdc	IERange
	#	s	Hz	ohm	ohm	V	ohm	°	A	V	#
	0	11	300046.9	2.12837	2.24176	1	3.091188	46.48631	8.398895E-005	-0.0003678	11
	1	14	238359.4	2.076258	1.79665	1	2.745687	40.87063	-0.0001419	-0.0004024	11
	2	17	189328.1	2.122718	1.269361	1	2.473299	30.87894	4.361803E-005	0.0001062	12
	3	20	150421.9	2.075215	1.003095	1	2.304934	25.79769	3.085468E-005	0.0003172	12
	4	24	119484.4	2.013852	0.8694831	1	2.193536	23.35233	-0.0001372	0.0002218	11
	5	27	94921.88	2.007162	0.6694251	1	2.115852	18.44449	-2.467134E-005	0.0004597	11
	6	29	75421.88	2.002441	0.502186	1	2.064452	14.07867	-1.425399E-005	0.0004945	11
	7	32	59859.37	2.001168	0.3612539	1	2.033514	10.23291	2.102451E-005	0.0005825	11
	8	34	47578.12	2.000878	0.2408718	1	2.015324	6.864408	-3.958392E-005	0.0005643	11
	9	37	37828.12	2.002689	0.1340156	1	2.007168	3.828401	1.366173E-005	0.0006266	11
	10	39	30046.88	2.006396	0.0351534	1	2.006704	1.003759	1.491933E-005	0.0006455	11
	11	42	23859.38	2.01044	-0.0611906	1	2.011371	-1.743339	2.564096E-005	0.0006778	11
	12	44	18984.38	2.016928	-0.1582353	1	2.023125	-4.485873	2.801569E-005	0.0007006	11
	13	46	15046.87	2.024494	-0.2634726	1	2.041566	-7.414939	1.611053E-005	0.0006614	11
	14	49	11953.13	2.035922	-0.3793724	1	2.070966	-10.5554	-2.628459E-005	0.0006874	11
	15	51	9515.62	2.04839	-0.5110275	1	2.111173	-14.00807	-4.203335E-005	0.0006535	11
	16	53	7546.875	2.066197	-0.6675811	1	2.171367	-17.90546	1.945341E-005	0.0006859	11
	17	56	5928.309	2.089378	-0.8637652	1	2.260883	-22.46058	3.088223E-005	0.000714	11
	18	58	4733.456	2.117871	-1.08477	1	2.379517	-27.12145	-6.841198E-006	0.0006835	11
	19	60	3796.875	2.152847	-1.346817	1	2.539422	-32.03001	1.104899E-005	0.000685	11
	20	62	2987.132	2.201842	-1.693907	1	2.778026	-37.57158	-2.420293E-005	0.0006707	11
	21	65	2390.625	2.259982	-2.087733	1	3.07671	-42.73122	2.154108E-005	0.0006881	11
	22	67	1884.191	2.339789	-2.606992	1	3.503001	-48.09186	2.900136E-005	0.0007112	11
	23	69	1516.544	2.435344	-3.188644	1	4.012274	-52.62903	-1.079765E-005	0.0006598	10
	24	72	1193.986	2.567237	-3.970174	1	4.727894	-57.11205	2.639523E-005	0.0006491	10
	25	74	946.5144	2.73351	-4.90882	1	5.618593	-60.88845	-2.216161E-005	0.0006623	10
	26	76	751.7689	2.953377	-6.0456	1	6.728426	-63.96372	2.559534E-005	0.0006419	10
	27	79	597.4265	3.235717	-7.432511	1	8.106299	-66.47427	2.607817E-005	0.0006512	10
	28	81	477.4305	3.592412	-9.078803	1	9.76371	-68.41168	3.230485E-006	0.0006614	10
	29	83	376.6741	4.078079	-11.18687	1	11.90701	-69.9711	3.452683E-006	0.0006675	10
	30	86	298.2954	4.6878	-13.70621	1	14.48571	-71.11828	3.660118E-006	0.0006669	10
	31	88	237.7717	5.427726	-16.65688	1	17.5189	-71.95155	4.320077E-006	0.0006605	10
	32	91	189.0121	6.343003	-20.24801	1	21.21829	-72.60603	3.238629E-006	0.0006704	10
	33	93	150.2404	7.447929	-24.5773	1	25.68103	-73.14104	3.221685E-006	0.0006677	10
	34	95	119.1737	8.781965	-29.87276	1	31.13687	-73.61777	3.214554E-006	0.0006713	10
	35	98	95.0169	10.32745	-36.13334	1	37.58024	-74.04927	2.97565E-006	0.0006637	10
	36	100	75.60484	12.1562	-43.7473	1	45.40483	-74.47082	5.573686E-006	6.386893E-005	9
	37	103	54.50582	15.40824	-57.69388	1	59.71598	-75.04707	5.420614E-006	6.550332E-005	9
	38	105	45.95588	17.45834	-66.72121	1	68.96748	-75.33668	5.958969E-006	7.004815E-005	9
	39	108	37.20238	20.38322	-79.89217	1	82.4514	-75.68723	5.721958E-006	6.907762E-005	9
	40	110	30.04808	23.90935	-95.9992	1	98.9318	-76.01458	5.627825E-006	6.82739E-005	9
	41	112	23.91582	28.5251	-117.0623	1	120.4876	-76.30537	5.507519E-006	6.204061E-005	9
	42	115	18.60119	34.89206	-145.6864	1	149.8065	-76.5313	5.919987E-006	6.740788E-005	9
	43	117	15.02404	41.72192	-175.6316	1	180.5192	-76.63687	6.017374E-006	6.024645E-005	9
	44	119	12.01923	50.90738	-213.6805	1	219.6609	-76.59962	5.671442E-006	6.745982E-005	9
	45	122	9.450605	63.86636	-264.035	1	271.6494	-76.40214	5.710728E-006	6.074784E-005	9
	46	124	7.512019	80.54446	-323.2512	1	333.1347	-76.00853	6.003357E-006	5.190022E-005	9
	47	127	5.978954	103.0387	-394.7145	1	407.9418	-75.36965	6.04423E-006	6.38308E-005	9
	48	130	4.734848	134.5438	-481.3822	1	499.8308	-74.3846	5.266661E-006	0.0006559	8
	49	133	3.75601	177.961	-586.4697	1	612.8759	-73.11987	5.221552E-006	0.0006321	8
	50	137	3.004808	236.0083	-705.3739	1	743.8093	-71.50047	5.152091E-006	0.0006663	8
	51	140	2.372217	322.071	-852.3229	1	911.1444	-69.29971	5.193836E-006	0.0007167	8
	52	145	1.878005	437.177	-1015.749	1	1105.834	-66.71301	5.066055E-006	0.0006154	8
	53	149	1.512097	577.1085	-1178.175	1	1311.926	-63.90288	5.126647E-006	0.0006295	8
	54	155	1.201923	773.4794	-1360.645	1	1565.128	-60.38328	5.064015E-006	0.0006108	8
	55	161	0.956633	1014.397	-1533.78	1	1838.88	-56.52053	4.869181E-006	2.487372E-005	8
