EXPLAIN
TAG	EISPOT
TITLE	LABEL	Potentiostatic EIS	Test Identifier
DATE	LABEL	9/13/2020	Date
TIME	LABEL	21:19:17	Time
NOTES	NOTES	1	Notes...
	
PSTAT	PSTAT	REF3000-16137	Potentiostat
VDC	POTEN	0.00000E+000	T	DC Voltage (V)
FREQINIT	QUANT	3.00000E+005	Initial Freq. (Hz)
FREQFINAL	QUANT	1.00000E+000	Final Freq. (Hz)
PTSPERDEC	QUANT	1.00000E+001	Points/decade
VAC	QUANT	5.00000E+001	AC Voltage (mV rms)
AREA	QUANT	1.00000E+000	Sample Area (cm^2)
SPEED	SELECTOR	2	Optimize for:
ZGUESS	QUANT	1.00000E+003	Estimated Z (ohms)
EOC	QUANT	0	Open Circuit (V)
SEQUENCER	TOGGLE	TRUE	Run as Sequence
PSTATMODEL	IQUANT	5	Pstat Model
PSTATSECTION	LABEL	REF3000-16137	Pstat Section
PSTATSERIALNO	LABEL	16137	Pstat Serial Number
CTRLMODE	IQUANT	1	Control Mode
IESTAB	IQUANT	0	I/E Stability
CASPEED	IQUANT	1	Control Amp Speed
CONVENTION	IQUANT	1	Current Convention
ICHRANGE	IQUANT	2	Ich Range
ICHRANGEMODE	TOGGLE	F	Ich Auto Range
ICHOFFSETENABLE	TOGGLE	T	Ich Offset Enable
ICHOFFSET	QUANT	0	Ich Offset (V)
ICHFILTER	IQUANT	3	Ich Filter
VCHRANGE	IQUANT	2	Vch Range
VCHRANGEMODE	TOGGLE	F	Vch Auto Range
VCHOFFSETENABLE	TOGGLE	T	Vch Offset Enable
VCHOFFSET	QUANT	0	Vch Offset (V)
VCHFILTER	IQUANT	3	Vch Filter
ACHRANGE	IQUANT	2	Ach Range
ACHOFFSETENABLE	TOGGLE	F	Ach Offset Enable
ACHOFFSET	QUANT	0	Ach Offset (V)
ACHFILTER	IQUANT	3	Ach Filter
IERANGELOWERLIMIT	IQUANT	2	I/E Range Lower Limit
IERANGEMODE	TOGGLE	F	I/E AutoRange
IERANGE	IQUANT	11	I/E Range
POSFEEDENABLE	TOGGLE	F	Positive Feedback IR Comp
POSFEEDRESISTANCE	QUANT	0	Positive Feedback Resistance (ohm)
ACHSELECT	IQUANT	0	Ach Select
CABLEID	IQUANT	13	Cable ID
DCCALDATE	LABEL	7/31/2020	DC Calibration Date
ACCALDATE	LABEL	7/31/2020	AC Calibration Date
THERMOSELECT	IQUANT	1	Thermo Select
FRAMEWORKVERSION	QUANT	6.33	Framework Version
INSTRUMENTVERSION	LABEL	3.50	Instrument Version
COMPLIANCEVOLTAGE	IQUANT	0	Compliance Voltage
ZCURVE	TABLE
	Pt	Time	Freq	Zreal	Zimag	Zsig	Zmod	Zphz	Idc	Vdc	IERange
	#	s	Hz	ohm	ohm	V	ohm	°	A	V	#
	0	10	300046.9	4.190428	2.243643	1	4.753274	28.16553	7.141509E-005	-0.0002222	10
	1	14	238359.4	4.152883	1.790482	1	4.522418	23.3229	4.873208E-005	-0.0003346	10
	2	17	189328.1	4.14221	1.420145	1	4.378894	18.92414	-0.0001068	-2.45678E-005	10
	3	19	150421.9	4.140816	1.115973	1	4.28856	15.08317	-2.913502E-005	0.0002836	10
	4	22	119484.4	4.13016	0.86371	1	4.219505	11.81162	-1.222493E-005	0.0002802	10
	5	24	94921.88	4.129362	0.6718838	1	4.183665	9.241546	2.61365E-005	0.0004225	10
	6	27	75421.88	4.131449	0.4989583	1	4.16147	6.886305	-2.059719E-005	0.0004833	10
	7	29	59859.37	4.136368	0.3501087	1	4.151158	4.838073	-3.242387E-006	0.0005392	10
	8	32	47578.12	4.142286	0.2225892	1	4.148263	3.075878	-9.242365E-006	0.0006104	10
	9	34	37828.12	4.149533	0.1067319	1	4.150905	1.473404	2.225644E-005	0.0005993	10
	10	37	30046.88	4.159082	-0.0023955	1	4.159082	-0.0330003	-2.82103E-005	0.0006727	10
	11	39	23859.38	4.169796	-0.1099659	1	4.171246	-1.510655	1.646729E-005	0.0006019	10
	12	42	18984.38	4.181762	-0.2198767	1	4.187538	-3.009836	1.690639E-005	0.0006421	10
	13	44	15046.87	4.194964	-0.3409955	1	4.2088	-4.647177	1.781485E-005	0.0006123	10
	14	46	11953.13	4.210782	-0.4762226	1	4.237626	-6.452506	-1.573372E-006	0.0006343	10
	15	49	9515.62	4.230632	-0.631657	1	4.277527	-8.491851	-2.459656E-005	0.0006897	10
	16	51	7546.875	4.252582	-0.8196724	1	4.330856	-10.9098	1.616974E-006	0.0006189	10
	17	53	5928.309	4.281379	-1.055875	1	4.409657	-13.85384	-1.538166E-005	0.0006804	10
	18	56	4733.456	4.314664	-1.32463	1	4.513421	-17.06683	-2.601283E-005	0.0006703	10
	19	58	3796.875	4.35435	-1.645045	1	4.654733	-20.69624	-2.207686E-006	0.0006847	10
	20	60	2987.132	4.407377	-2.072604	1	4.870386	-25.18563	-1.553398E-005	0.0006832	10
	21	62	2390.625	4.471217	-2.561386	1	5.15291	-29.80672	-2.348961E-005	0.0006824	10
	22	65	1884.191	4.553813	-3.206586	1	5.569506	-35.15145	-1.165386E-005	0.0006492	10
	23	67	1516.544	4.650654	-3.92934	1	6.088374	-40.19448	-1.868687E-005	0.000655	10
	24	69	1193.986	4.78275	-4.909222	1	6.853842	-45.74762	1.838368E-005	0.0006305	10
	25	72	946.5144	4.945329	-6.092927	1	7.847295	-50.93546	-2.189993E-005	0.0006519	10
	26	74	751.7689	5.15231	-7.537118	1	9.129867	-55.64382	1.768012E-005	0.0006493	10
	27	76	597.4265	5.41419	-9.318498	1	10.77719	-59.84275	-2.587867E-005	0.0006878	10
	28	79	477.4305	5.737803	-11.45182	1	12.80885	-63.38737	-2.694407E-006	0.0006675	10
	29	81	376.6741	6.174634	-14.23635	1	15.51773	-66.55251	-2.975638E-006	0.0006622	10
	30	83	298.2954	6.731284	-17.62909	1	18.87048	-69.10174	-2.309932E-006	0.0006643	10
	31	86	237.7717	7.432068	-21.6836	1	22.92192	-71.08082	-2.887566E-006	0.0006635	10
	32	88	189.0121	8.350988	-26.71548	1	27.99028	-72.64128	-2.140828E-006	0.0006611	10
	33	90	150.2404	9.55172	-32.87556	1	34.23504	-73.79922	-2.486277E-006	0.0006625	10
	34	93	119.1737	11.12279	-40.4636	1	41.9645	-74.62994	-2.30503E-006	0.0006684	10
	35	95	95.0169	13.08483	-49.41824	1	51.12118	-75.16969	1.357525E-006	6.494104E-005	9
	36	98	75.60484	15.61842	-60.40514	1	62.39163	-75.50304	1.335363E-006	5.92908E-005	9
	37	100	54.50582	20.403	-80.20758	1	82.76194	-75.72794	1.212655E-006	5.911696E-005	9
	38	103	45.95588	23.53251	-92.84808	1	95.7838	-75.77777	1.478318E-006	6.897795E-005	9
	39	105	37.20238	28.09394	-111.1605	1	114.6557	-75.81647	1.478942E-006	6.721263E-005	9
	40	108	30.04808	33.55357	-133.1786	1	137.3404	-75.85896	1.39425E-006	6.753804E-005	9
	41	110	23.91582	40.44897	-161.4457	1	166.4357	-75.93452	1.373638E-006	6.416584E-005	9
	42	112	18.60119	49.39048	-199.5389	1	205.5607	-76.0974	1.321144E-006	7.314998E-005	9
	43	115	15.02404	58.35392	-239.0944	1	246.1124	-76.2844	1.617735E-006	7.166551E-005	9
	44	117	12.01923	69.22367	-288.9947	1	297.1698	-76.52959	1.404116E-006	6.522017E-005	9
	45	119	9.450605	83.13734	-355.1657	1	364.7663	-76.82539	1.383548E-006	6.713404E-005	9
	46	122	7.512019	98.1221	-431.2235	1	442.2462	-77.18098	8.551681E-007	0.0006242	8
	47	124	5.978954	116.5574	-525.7968	1	538.561	-77.50092	9.09551E-007	0.000644	8
	48	128	4.734848	139.8958	-645.4573	1	660.4438	-77.77092	8.574532E-007	0.0006566	8
	49	131	3.75601	168.2171	-791.4638	1	809.1428	-78.00095	8.232835E-007	0.000684	8
	50	134	3.004808	202.2472	-963.619	1	984.615	-78.14664	8.538778E-007	0.0006739	8
	51	138	2.372217	248.8267	-1189.294	1	1215.045	-78.18291	8.467997E-007	0.0007198	8
	52	142	1.878005	306.0811	-1463.031	1	1494.705	-78.18356	8.258606E-007	0.000617	8
	53	147	1.512097	375.3007	-1769.425	1	1808.788	-78.02486	8.6926E-007	0.000697	8
	54	152	1.201923	467.2221	-2176.188	1	2225.779	-77.88269	8.26396E-007	0.0006106	8
	55	158	0.956633	588.4723	-2665.307	1	2729.498	-77.54943	7.955618E-007	6.670431E-006	8
