EXPLAIN
TAG	EISPOT
TITLE	LABEL	Potentiostatic EIS	Test Identifier
DATE	LABEL	9/13/2020	Date
TIME	LABEL	21:02:23	Time
NOTES	NOTES	1	Notes...
	
PSTAT	PSTAT	REF3000-16137	Potentiostat
VDC	POTEN	0.00000E+000	T	DC Voltage (V)
FREQINIT	QUANT	3.00000E+005	Initial Freq. (Hz)
FREQFINAL	QUANT	1.00000E+000	Final Freq. (Hz)
PTSPERDEC	QUANT	1.00000E+001	Points/decade
VAC	QUANT	5.00000E+001	AC Voltage (mV rms)
AREA	QUANT	1.00000E+000	Sample Area (cm^2)
SPEED	SELECTOR	2	Optimize for:
ZGUESS	QUANT	1.00000E+003	Estimated Z (ohms)
EOC	QUANT	0	Open Circuit (V)
SEQUENCER	TOGGLE	TRUE	Run as Sequence
PSTATMODEL	IQUANT	5	Pstat Model
PSTATSECTION	LABEL	REF3000-16137	Pstat Section
PSTATSERIALNO	LABEL	16137	Pstat Serial Number
CTRLMODE	IQUANT	1	Control Mode
IESTAB	IQUANT	0	I/E Stability
CASPEED	IQUANT	1	Control Amp Speed
CONVENTION	IQUANT	1	Current Convention
ICHRANGE	IQUANT	2	Ich Range
ICHRANGEMODE	TOGGLE	F	Ich Auto Range
ICHOFFSETENABLE	TOGGLE	T	Ich Offset Enable
ICHOFFSET	QUANT	0	Ich Offset (V)
ICHFILTER	IQUANT	3	Ich Filter
VCHRANGE	IQUANT	2	Vch Range
VCHRANGEMODE	TOGGLE	F	Vch Auto Range
VCHOFFSETENABLE	TOGGLE	T	Vch Offset Enable
VCHOFFSET	QUANT	0	Vch Offset (V)
VCHFILTER	IQUANT	3	Vch Filter
ACHRANGE	IQUANT	2	Ach Range
ACHOFFSETENABLE	TOGGLE	F	Ach Offset Enable
ACHOFFSET	QUANT	0	Ach Offset (V)
ACHFILTER	IQUANT	3	Ach Filter
IERANGELOWERLIMIT	IQUANT	2	I/E Range Lower Limit
IERANGEMODE	TOGGLE	F	I/E AutoRange
IERANGE	IQUANT	11	I/E Range
POSFEEDENABLE	TOGGLE	F	Positive Feedback IR Comp
POSFEEDRESISTANCE	QUANT	0	Positive Feedback Resistance (ohm)
ACHSELECT	IQUANT	0	Ach Select
CABLEID	IQUANT	13	Cable ID
DCCALDATE	LABEL	7/31/2020	DC Calibration Date
ACCALDATE	LABEL	7/31/2020	AC Calibration Date
THERMOSELECT	IQUANT	1	Thermo Select
FRAMEWORKVERSION	QUANT	6.33	Framework Version
INSTRUMENTVERSION	LABEL	3.50	Instrument Version
COMPLIANCEVOLTAGE	IQUANT	0	Compliance Voltage
ZCURVE	TABLE
	Pt	Time	Freq	Zreal	Zimag	Zsig	Zmod	Zphz	Idc	Vdc	IERange
	#	s	Hz	ohm	ohm	V	ohm	°	A	V	#
	0	10	300046.9	2.822199	2.258971	1	3.614935	38.67481	6.595304E-005	-0.000351	10
	1	13	238359.4	2.783573	1.800773	1	3.315277	32.89998	2.006072E-005	-0.0005773	10
	2	16	189328.1	2.851372	1.20892	1	3.097064	22.97589	-0.0001426	-0.0002727	12
	3	20	150421.9	2.761845	1.106034	1	2.97508	21.82458	-0.0001114	0.0003665	11
	4	23	119484.4	2.74825	0.8572289	1	2.87884	17.32365	-0.0001224	0.0002981	11
	5	25	94921.88	2.740411	0.6569587	1	2.818057	13.48111	-4.215456E-005	0.0005082	11
	6	28	75421.88	2.738778	0.4890446	1	2.782098	10.12421	-3.671797E-006	0.0005543	11
	7	30	59859.37	2.739586	0.3467885	1	2.761448	7.214373	-1.3635E-005	0.0006012	11
	8	33	47578.12	2.741556	0.2248805	1	2.750764	4.689279	7.851581E-006	0.0006366	11
	9	35	37828.12	2.745689	0.1157137	1	2.748126	2.413233	-3.633743E-005	0.0006492	11
	10	38	30046.88	2.750325	0.0127849	1	2.750355	0.2663377	-2.440377E-005	0.0006442	11
	11	40	23859.38	2.757191	-0.0882049	1	2.758602	-1.832316	-2.058203E-005	0.0006648	11
	12	42	18984.38	2.764724	-0.1912429	1	2.771331	-3.95699	7.169593E-006	0.0006726	11
	13	45	15046.87	2.774315	-0.3044186	1	2.790967	-6.261871	-4.187407E-005	0.0006394	11
	14	47	11953.13	2.786482	-0.4300848	1	2.819478	-8.774185	1.921312E-005	0.0006944	11
	15	49	9515.62	2.802249	-0.5741376	1	2.860461	-11.57878	-2.826816E-005	0.000684	11
	16	52	7546.875	2.820917	-0.7468023	1	2.918097	-14.82817	-1.292413E-005	0.0006794	11
	17	54	5928.309	2.846106	-0.96439	1	3.005057	-18.71872	-3.851652E-005	0.0007346	11
	18	56	4733.456	2.874786	-1.210418	1	3.119216	-22.83335	2.24417E-005	0.0007047	11
	19	59	3796.875	2.910889	-1.502606	1	3.275836	-27.30286	-3.013205E-005	0.0006541	11
	20	61	2987.132	2.961559	-1.892278	1	3.514477	-32.57641	2.905081E-006	0.0006886	11
	21	63	2390.625	3.022882	-2.339599	1	3.822504	-37.73854	2.223993E-006	0.0006215	10
	22	66	1884.191	3.103642	-2.924909	1	4.264702	-43.30181	-1.251549E-005	0.0006765	10
	23	68	1516.544	3.197134	-3.580087	1	4.799864	-48.23411	-2.166396E-005	0.0006707	10
	24	70	1193.986	3.327469	-4.46842	1	5.571249	-53.32629	-3.301578E-006	0.0006652	10
	25	73	946.5144	3.494632	-5.533154	1	6.54433	-57.72429	-6.321508E-006	0.000652	10
	26	75	751.7689	3.698624	-6.838899	1	7.774983	-61.59452	2.102969E-005	0.0006388	10
	27	77	597.4265	3.967438	-8.441136	1	9.327023	-64.8259	2.175272E-005	0.000642	10
	28	80	477.4305	4.306389	-10.35821	1	11.21773	-67.42507	-7.952322E-007	0.0006655	10
	29	82	376.6741	4.773711	-12.84224	1	13.70078	-69.60891	-6.771831E-007	0.0006558	10
	30	84	298.2954	5.37642	-15.84523	1	16.73252	-71.25749	-9.402202E-007	0.000666	10
	31	87	237.7717	6.136641	-19.39926	1	20.34674	-72.44608	-1.045047E-006	0.0006614	10
	32	89	189.0121	7.123698	-23.7613	1	24.80618	-73.31113	-1.003223E-006	0.0006621	10
	33	91	150.2404	8.379518	-29.03887	1	30.2237	-73.90386	-9.192199E-007	0.0006583	10
	34	94	119.1737	9.96224	-35.46622	1	36.83883	-74.31029	-1.288694E-006	0.0006619	10
	35	96	95.0169	11.8483	-42.98178	1	44.58493	-74.58868	2.070924E-006	6.366312E-005	9
	36	99	75.60484	14.15633	-52.16164	1	54.04848	-74.81604	1.950547E-006	6.429837E-005	9
	37	101	54.50582	18.2482	-68.71921	1	71.10081	-75.12848	1.933203E-006	6.343327E-005	9
	38	104	45.95588	20.80384	-79.35537	1	82.03703	-75.3099	2.273957E-006	7.548573E-005	9
	39	106	37.20238	24.39989	-94.81901	1	97.9081	-75.5691	2.163652E-006	6.547441E-005	9
	40	108	30.04808	28.67596	-113.6377	1	117.2	-75.83734	1.918553E-006	6.306569E-005	9
	41	111	23.91582	34.01144	-138.0563	1	142.1841	-76.16026	1.878285E-006	6.024381E-005	9
	42	113	18.60119	40.9069	-171.1787	1	175.9986	-76.55997	2.204275E-006	6.111882E-005	9
	43	115	15.02404	47.99644	-205.8649	1	211.386	-76.8762	2.125504E-006	5.874919E-005	9
	44	118	12.01923	56.8371	-250.0339	1	256.4125	-77.19329	1.609533E-006	0.000122	9
	45	120	9.450605	68.63628	-308.7274	1	316.265	-77.46586	2.221458E-006	6.270126E-005	9
	46	123	7.512019	82.77751	-377.9091	1	386.8687	-77.64501	2.267313E-006	8.678933E-005	9
	47	125	5.978954	100.0419	-460.6269	1	471.3656	-77.74643	1.540379E-006	0.0006416	8
	48	128	4.734848	123.2201	-566.8524	1	580.0904	-77.73606	1.641293E-006	0.0006565	8
	49	132	3.75601	153.4753	-695.9246	1	712.647	-77.56338	1.511052E-006	0.0006344	8
	50	135	3.004808	191.7951	-847.9489	1	869.3691	-77.25489	1.597447E-006	0.0006104	8
	51	139	2.372217	245.9048	-1045.243	1	1073.78	-76.76129	1.50674E-006	0.0006159	8
	52	143	1.878005	318.8345	-1283.379	1	1322.391	-76.04826	1.568189E-006	0.0006475	8
	53	148	1.512097	411.1475	-1547.304	1	1600.997	-75.11931	1.522743E-006	0.0005727	8
	54	153	1.201923	543.0324	-1890.082	1	1966.544	-73.97031	1.555997E-006	0.0006659	8
	55	159	0.956633	725.5527	-2290.388	1	2402.562	-72.42276	1.463618E-006	4.398766E-006	8
