EXPLAIN
TAG	EISPOT
TITLE	LABEL	Potentiostatic EIS	Test Identifier
DATE	LABEL	9/13/2020	Date
TIME	LABEL	20:33:46	Time
NOTES	NOTES	1	Notes...
	
PSTAT	PSTAT	REF3000-16137	Potentiostat
VDC	POTEN	0.00000E+000	T	DC Voltage (V)
FREQINIT	QUANT	3.00000E+005	Initial Freq. (Hz)
FREQFINAL	QUANT	1.00000E+000	Final Freq. (Hz)
PTSPERDEC	QUANT	1.00000E+001	Points/decade
VAC	QUANT	5.00000E+001	AC Voltage (mV rms)
AREA	QUANT	1.00000E+000	Sample Area (cm^2)
SPEED	SELECTOR	2	Optimize for:
ZGUESS	QUANT	1.00000E+003	Estimated Z (ohms)
EOC	QUANT	0	Open Circuit (V)
SEQUENCER	TOGGLE	TRUE	Run as Sequence
PSTATMODEL	IQUANT	5	Pstat Model
PSTATSECTION	LABEL	REF3000-16137	Pstat Section
PSTATSERIALNO	LABEL	16137	Pstat Serial Number
CTRLMODE	IQUANT	1	Control Mode
IESTAB	IQUANT	0	I/E Stability
CASPEED	IQUANT	1	Control Amp Speed
CONVENTION	IQUANT	1	Current Convention
ICHRANGE	IQUANT	2	Ich Range
ICHRANGEMODE	TOGGLE	F	Ich Auto Range
ICHOFFSETENABLE	TOGGLE	T	Ich Offset Enable
ICHOFFSET	QUANT	0	Ich Offset (V)
ICHFILTER	IQUANT	3	Ich Filter
VCHRANGE	IQUANT	2	Vch Range
VCHRANGEMODE	TOGGLE	F	Vch Auto Range
VCHOFFSETENABLE	TOGGLE	T	Vch Offset Enable
VCHOFFSET	QUANT	0	Vch Offset (V)
VCHFILTER	IQUANT	3	Vch Filter
ACHRANGE	IQUANT	2	Ach Range
ACHOFFSETENABLE	TOGGLE	F	Ach Offset Enable
ACHOFFSET	QUANT	0	Ach Offset (V)
ACHFILTER	IQUANT	3	Ach Filter
IERANGELOWERLIMIT	IQUANT	2	I/E Range Lower Limit
IERANGEMODE	TOGGLE	F	I/E AutoRange
IERANGE	IQUANT	11	I/E Range
POSFEEDENABLE	TOGGLE	F	Positive Feedback IR Comp
POSFEEDRESISTANCE	QUANT	0	Positive Feedback Resistance (ohm)
ACHSELECT	IQUANT	0	Ach Select
CABLEID	IQUANT	13	Cable ID
DCCALDATE	LABEL	7/31/2020	DC Calibration Date
ACCALDATE	LABEL	7/31/2020	AC Calibration Date
THERMOSELECT	IQUANT	1	Thermo Select
FRAMEWORKVERSION	QUANT	6.33	Framework Version
INSTRUMENTVERSION	LABEL	3.50	Instrument Version
COMPLIANCEVOLTAGE	IQUANT	0	Compliance Voltage
ZCURVE	TABLE
	Pt	Time	Freq	Zreal	Zimag	Zsig	Zmod	Zphz	Idc	Vdc	IERange
	#	s	Hz	ohm	ohm	V	ohm	°	A	V	#
	0	10	300046.9	2.103812	2.258354	1	3.086452	47.02902	-4.422081E-005	-0.0003294	11
	1	13	238359.4	2.056139	1.784104	1	2.722266	40.94806	9.036445E-005	-0.0003254	11
	2	16	189328.1	2.112058	1.270853	1	2.464925	31.03586	-3.342264E-005	4.065922E-005	12
	3	20	150421.9	2.060602	0.998168	1	2.289633	25.84582	3.78025E-005	0.0002956	12
	4	23	119484.4	1.99822	0.869996	1	2.179398	23.52761	-0.0000957	0.0004042	11
	5	26	94921.88	1.988916	0.6698612	1	2.098691	18.61337	-1.704287E-005	0.0004613	11
	6	28	75421.88	1.984142	0.5025833	1	2.046805	14.21406	2.011432E-005	0.0005098	11
	7	31	59859.37	1.982151	0.361091	1	2.014773	10.32443	2.466081E-005	0.0005712	11
	8	33	47578.12	1.982535	0.2418029	1	1.997227	6.953821	2.582874E-005	0.0006176	11
	9	36	37828.12	1.983968	0.1352064	1	1.988569	3.898649	7.919885E-006	0.0006177	11
	10	38	30046.88	1.987274	0.0364193	1	1.987608	1.049899	-1.151608E-005	0.0006486	11
	11	41	23859.38	1.991391	-0.0596817	1	1.992285	-1.716633	2.544574E-005	0.0006675	11
	12	43	18984.38	1.99707	-0.1564766	1	2.003191	-4.480149	-1.326199E-005	0.0006583	11
	13	46	15046.87	2.004972	-0.2615986	1	2.021966	-7.433669	2.6594E-005	0.0007032	11
	14	48	11953.13	2.015591	-0.3767736	1	2.050504	-10.58808	-1.287162E-005	0.0006888	11
	15	50	9515.62	2.028087	-0.5075064	1	2.090622	-14.04913	3.500732E-005	0.0006993	11
	16	54	7546.875	2.045694	-0.6639152	1	2.150732	-17.98046	2.932004E-005	0.0006949	11
	17	57	5928.309	2.068792	-0.8585972	1	2.239886	-22.53959	-2.441017E-005	0.0006632	11
	18	59	4733.456	2.096549	-1.078137	1	2.357519	-27.21421	1.139165E-005	0.0006819	11
	19	61	3796.875	2.131376	-1.338104	1	2.516602	-32.12112	-2.864549E-005	0.0006585	11
	20	64	2987.132	2.180163	-1.68296	1	2.754173	-37.66606	-2.144764E-005	0.0006649	11
	21	66	2390.625	2.237499	-2.075861	1	3.052147	-42.85392	2.27785E-005	0.0006967	11
	22	68	1884.191	2.317888	-2.589657	1	3.475476	-48.16968	-1.185985E-006	0.0006744	11
	23	71	1516.544	2.410625	-3.163515	1	3.977303	-52.69229	2.116299E-005	0.0006805	11
	24	73	1193.986	2.544422	-3.942293	1	4.692095	-57.16112	2.742515E-005	0.0006475	10
	25	75	946.5144	2.710593	-4.873668	1	5.576733	-60.91846	1.605405E-005	0.0006651	10
	26	78	751.7689	2.930328	-6.001904	1	6.679048	-63.97684	2.65267E-005	0.0006343	10
	27	80	597.4265	3.210095	-7.37972	1	8.047669	-66.4915	2.045365E-005	0.0006449	10
	28	82	477.4305	3.566878	-9.006145	1	9.68676	-68.39399	1.048949E-007	0.0007104	10
	29	85	376.6741	4.050367	-11.09409	1	11.81034	-69.94324	3.270827E-007	0.0007104	10
	30	87	298.2954	4.657135	-13.58728	1	14.36325	-71.08049	4.84232E-006	0.0006556	10
	31	89	237.7717	5.390687	-16.50609	1	17.36406	-71.9136	4.216858E-006	0.0006538	10
	32	92	189.0121	6.29857	-20.06068	1	21.02624	-72.56897	4.135052E-006	0.0006528	10
	33	94	150.2404	7.390738	-24.34553	1	25.44264	-73.11293	4.32901E-006	0.0006579	10
	34	97	119.1737	8.708008	-29.58482	1	30.83976	-73.59872	4.894109E-006	0.000656	10
	35	99	95.0169	10.23346	-35.78209	1	37.21668	-74.03979	4.810317E-006	0.0006559	10
	36	101	75.60484	12.04029	-43.32311	1	44.9651	-74.46841	6.342295E-006	5.632202E-005	9
	37	104	54.50582	15.24495	-57.13057	1	59.12961	-75.05909	5.756623E-006	0.0001056	9
	38	107	45.95588	17.27403	-66.0727	1	68.29344	-75.34854	6.907725E-006	5.993148E-005	9
	39	109	37.20238	20.16016	-79.11845	1	81.64657	-75.70468	6.76367E-006	6.118714E-005	9
	40	111	30.04808	23.65066	-95.0741	1	97.9716	-76.03062	6.53289E-006	5.441339E-005	9
	41	114	23.91582	28.22618	-115.8696	1	119.2581	-76.30923	6.291365E-006	5.468162E-005	9
	42	116	18.60119	34.52051	-144.322	1	148.3931	-76.54811	6.749219E-006	5.826737E-005	9
	43	118	15.02404	41.33766	-173.9821	1	178.8256	-76.63451	6.666672E-006	5.873636E-005	9
	44	121	12.01923	50.45969	-211.6964	1	217.627	-76.59322	6.406538E-006	5.495983E-005	9
	45	123	9.450605	63.35438	-261.6441	1	269.2051	-76.38841	6.493771E-006	6.844289E-005	9
	46	126	7.512019	80.19023	-320.26	1	330.1469	-75.94267	6.597892E-006	5.664624E-005	9
	47	128	5.978954	102.5733	-390.8658	1	404.1007	-75.29568	6.61803E-006	6.348191E-005	9
	48	131	4.734848	133.5923	-476.4596	1	494.8339	-74.33729	5.87389E-006	0.0006079	8
	49	134	3.75601	177.3506	-580.327	1	606.8218	-73.0066	6.091459E-006	0.0006422	8
	50	138	3.004808	235.3886	-697.6729	1	736.3119	-71.35606	5.906936E-006	0.000655	8
	51	142	2.372217	320.4638	-840.7888	1	899.7904	-69.13583	5.909521E-006	0.0006429	8
	52	146	1.878005	438.055	-1000.944	1	1092.603	-66.3638	5.939187E-006	0.0006094	8
	53	151	1.512097	579.994	-1160.161	1	1297.061	-63.43837	5.877014E-006	0.0007282	8
	54	156	1.201923	773.2048	-1333.118	1	1541.119	-59.88638	5.895472E-006	0.0006107	8
	55	162	0.956633	1010.557	-1497.104	1	1806.252	-55.98034	5.524209E-006	-1.110191E-005	8
