EXPLAIN
TAG	EISPOT
TITLE	LABEL	Potentiostatic EIS	Test Identifier
DATE	LABEL	9/13/2020	Date
TIME	LABEL	20:42:18	Time
NOTES	NOTES	1	Notes...
	
PSTAT	PSTAT	REF3000-16137	Potentiostat
VDC	POTEN	0.00000E+000	T	DC Voltage (V)
FREQINIT	QUANT	3.00000E+005	Initial Freq. (Hz)
FREQFINAL	QUANT	1.00000E+000	Final Freq. (Hz)
PTSPERDEC	QUANT	1.00000E+001	Points/decade
VAC	QUANT	5.00000E+001	AC Voltage (mV rms)
AREA	QUANT	1.00000E+000	Sample Area (cm^2)
SPEED	SELECTOR	2	Optimize for:
ZGUESS	QUANT	1.00000E+003	Estimated Z (ohms)
EOC	QUANT	0	Open Circuit (V)
SEQUENCER	TOGGLE	TRUE	Run as Sequence
PSTATMODEL	IQUANT	5	Pstat Model
PSTATSECTION	LABEL	REF3000-16137	Pstat Section
PSTATSERIALNO	LABEL	16137	Pstat Serial Number
CTRLMODE	IQUANT	1	Control Mode
IESTAB	IQUANT	0	I/E Stability
CASPEED	IQUANT	1	Control Amp Speed
CONVENTION	IQUANT	1	Current Convention
ICHRANGE	IQUANT	2	Ich Range
ICHRANGEMODE	TOGGLE	F	Ich Auto Range
ICHOFFSETENABLE	TOGGLE	T	Ich Offset Enable
ICHOFFSET	QUANT	0	Ich Offset (V)
ICHFILTER	IQUANT	3	Ich Filter
VCHRANGE	IQUANT	2	Vch Range
VCHRANGEMODE	TOGGLE	F	Vch Auto Range
VCHOFFSETENABLE	TOGGLE	T	Vch Offset Enable
VCHOFFSET	QUANT	0	Vch Offset (V)
VCHFILTER	IQUANT	3	Vch Filter
ACHRANGE	IQUANT	2	Ach Range
ACHOFFSETENABLE	TOGGLE	F	Ach Offset Enable
ACHOFFSET	QUANT	0	Ach Offset (V)
ACHFILTER	IQUANT	3	Ach Filter
IERANGELOWERLIMIT	IQUANT	2	I/E Range Lower Limit
IERANGEMODE	TOGGLE	F	I/E AutoRange
IERANGE	IQUANT	11	I/E Range
POSFEEDENABLE	TOGGLE	F	Positive Feedback IR Comp
POSFEEDRESISTANCE	QUANT	0	Positive Feedback Resistance (ohm)
ACHSELECT	IQUANT	0	Ach Select
CABLEID	IQUANT	13	Cable ID
DCCALDATE	LABEL	7/31/2020	DC Calibration Date
ACCALDATE	LABEL	7/31/2020	AC Calibration Date
THERMOSELECT	IQUANT	1	Thermo Select
FRAMEWORKVERSION	QUANT	6.33	Framework Version
INSTRUMENTVERSION	LABEL	3.50	Instrument Version
COMPLIANCEVOLTAGE	IQUANT	0	Compliance Voltage
ZCURVE	TABLE
	Pt	Time	Freq	Zreal	Zimag	Zsig	Zmod	Zphz	Idc	Vdc	IERange
	#	s	Hz	ohm	ohm	V	ohm	°	A	V	#
	0	10	300046.9	2.194342	2.247499	1	3.141081	45.68565	-2.655836E-005	-0.000269	11
	1	13	238359.4	2.152618	1.783571	1	2.795513	39.64375	6.557631E-005	-0.0001571	11
	2	16	189328.1	2.205501	1.263457	1	2.541763	29.80694	-8.556314E-005	2.201943E-005	12
	3	21	150421.9	2.16099	0.999583	1	2.380975	24.82327	-6.621316E-005	0.0002472	12
	4	25	119484.4	2.128807	0.7756692	1	2.265719	20.02012	-0.0001624	0.0001135	12
	5	28	94921.88	2.092053	0.6673164	1	2.195904	17.69148	-1.89725E-005	0.0004961	11
	6	31	75421.88	2.087795	0.5002896	1	2.146899	13.47546	-9.190775E-005	0.0005574	11
	7	33	59859.37	2.086599	0.3588798	1	2.117237	9.75898	-4.134958E-005	0.0005282	11
	8	36	47578.12	2.08798	0.2386238	1	2.101571	6.519735	1.694253E-005	0.0006227	11
	9	38	37828.12	2.089946	0.1313906	1	2.094072	3.597335	-8.916207E-005	0.0006699	11
	10	41	30046.88	2.093491	0.0315741	1	2.093729	0.8640711	-8.530719E-005	0.0006912	11
	11	43	23859.38	2.098639	-0.0656419	1	2.099665	-1.791531	2.066481E-005	0.0006684	11
	12	46	18984.38	2.104913	-0.1637766	1	2.111275	-4.449039	-3.606806E-006	0.0006631	11
	13	48	15046.87	2.113267	-0.2704701	1	2.130505	-7.293446	-3.963514E-005	0.0006563	11
	14	50	11953.13	2.124799	-0.3882194	1	2.159973	-10.35423	-2.958152E-005	0.0006845	11
	15	53	9515.62	2.137825	-0.5221903	1	2.200677	-13.72643	2.372657E-005	0.0007134	11
	16	55	7546.875	2.1556	-0.6820075	1	2.260917	-17.55678	2.643737E-005	0.0007127	11
	17	57	5928.309	2.179313	-0.8815594	1	2.350862	-22.02395	2.406249E-005	0.0007031	11
	18	61	4733.456	2.208641	-1.107329	1	2.470683	-26.62745	-3.43E-005	0.0006732	11
	19	64	3796.875	2.244035	-1.373569	1	2.631042	-31.47071	2.827328E-005	0.0007	11
	20	66	2987.132	2.293752	-1.729332	1	2.87261	-37.01379	-1.625669E-005	0.0006775	11
	21	68	2390.625	2.35274	-2.134015	1	3.176382	-42.20909	-2.408258E-005	0.0006826	11
	22	71	1884.191	2.431711	-2.66432	1	3.60719	-47.61345	-6.807404E-006	0.0006769	11
	23	73	1516.544	2.528191	-3.258992	1	4.124655	-52.19717	-1.203657E-005	0.0006581	10
	24	75	1193.986	2.661362	-4.059976	1	4.854508	-56.75468	6.988397E-006	0.0006254	10
	25	78	946.5144	2.828024	-5.02145	1	5.763044	-60.61227	-2.550114E-005	0.0006604	10
	26	80	751.7689	3.043426	-6.191106	1	6.898713	-63.82217	-1.665814E-005	0.0006737	10
	27	82	597.4265	3.329317	-7.616982	1	8.312808	-66.39028	2.474783E-005	0.0006417	10
	28	85	477.4305	3.683149	-9.30872	1	10.01089	-68.41295	1.614332E-006	0.0006642	10
	29	87	376.6741	4.170263	-11.48351	1	12.21729	-70.0414	1.918981E-006	0.0006673	10
	30	89	298.2954	4.785131	-14.08644	1	14.877	-71.23749	1.723655E-006	0.0006668	10
	31	92	237.7717	5.535832	-17.13819	1	18.01008	-72.09895	1.391172E-006	0.0006613	10
	32	94	189.0121	6.473236	-20.85729	1	21.83871	-72.75783	1.193856E-006	0.0006631	10
	33	97	150.2404	7.60993	-25.33564	1	26.45384	-73.28159	2.02973E-006	0.0006592	10
	34	99	119.1737	8.988627	-30.80966	1	32.09409	-73.73555	1.365203E-006	0.0006601	10
	35	101	95.0169	10.58684	-37.27692	1	38.75113	-74.14518	1.522416E-006	0.000659	10
	36	104	75.60484	12.48015	-45.13946	1	46.83295	-74.54496	4.464946E-006	5.961079E-005	9
	37	106	54.50582	15.83627	-59.51451	1	61.58543	-75.09939	4.339453E-006	6.171489E-005	9
	38	109	45.95588	17.94456	-68.81809	1	71.11917	-75.38535	4.780079E-006	6.430618E-005	9
	39	111	37.20238	20.97827	-82.44064	1	85.06789	-75.72322	4.552815E-006	6.656807E-005	9
	40	114	30.04808	24.5681	-98.9724	1	101.9762	-76.05915	4.468151E-006	5.566987E-005	9
	41	116	23.91582	29.2962	-120.7297	1	124.2333	-76.36028	4.482293E-006	5.530642E-005	9
	42	118	18.60119	35.65723	-150.1065	1	154.2835	-76.63727	4.584162E-006	5.861856E-005	9
	43	121	15.02404	42.45428	-180.9923	1	185.9048	-76.79913	4.731543E-006	6.464779E-005	9
	44	123	12.01923	51.57379	-220.2872	1	226.2439	-76.8232	4.669309E-006	5.709542E-005	9
	45	125	9.450605	64.23841	-272.2247	1	279.7014	-76.72249	4.785608E-006	5.207612E-005	9
	46	128	7.512019	80.25999	-333.3389	1	342.8651	-76.46223	4.774349E-006	7.607957E-005	9
	47	131	5.978954	101.8857	-407.3881	1	419.9355	-75.95864	4.673601E-006	6.796559E-005	9
	48	134	4.734848	131.5642	-497.795	1	514.8874	-75.19558	4.087528E-006	0.0006253	8
	49	137	3.75601	172.6364	-608.0012	1	632.0354	-74.14859	4.089934E-006	0.0006517	8
	50	140	3.004808	227.0148	-734.1627	1	768.4598	-72.81756	4.119668E-006	0.0006186	8
	51	144	2.372217	308.3538	-891.8925	1	943.6918	-70.92821	4.015392E-006	0.0005704	8
	52	148	1.878005	417.5673	-1073.148	1	1151.525	-68.73875	4.133068E-006	0.0006372	8
	53	153	1.512097	552.5949	-1257.683	1	1373.728	-66.2805	4.043093E-006	0.0006268	8
	54	158	1.201923	746.1876	-1473.787	1	1651.922	-63.14662	4.077833E-006	0.0006595	8
	55	165	0.956633	991.347	-1690.544	1	1959.773	-59.61234	3.812361E-006	1.261972E-006	8
