EXPLAIN
TAG	EISPOT
TITLE	LABEL	Potentiostatic EIS	Test Identifier
DATE	LABEL	9/13/2020	Date
TIME	LABEL	22:06:32	Time
NOTES	NOTES	1	Notes...
	
PSTAT	PSTAT	REF3000-16137	Potentiostat
VDC	POTEN	0.00000E+000	T	DC Voltage (V)
FREQINIT	QUANT	3.00000E+005	Initial Freq. (Hz)
FREQFINAL	QUANT	1.00000E+000	Final Freq. (Hz)
PTSPERDEC	QUANT	1.00000E+001	Points/decade
VAC	QUANT	5.00000E+001	AC Voltage (mV rms)
AREA	QUANT	1.00000E+000	Sample Area (cm^2)
SPEED	SELECTOR	2	Optimize for:
ZGUESS	QUANT	1.00000E+003	Estimated Z (ohms)
EOC	QUANT	0	Open Circuit (V)
SEQUENCER	TOGGLE	TRUE	Run as Sequence
PSTATMODEL	IQUANT	5	Pstat Model
PSTATSECTION	LABEL	REF3000-16137	Pstat Section
PSTATSERIALNO	LABEL	16137	Pstat Serial Number
CTRLMODE	IQUANT	1	Control Mode
IESTAB	IQUANT	0	I/E Stability
CASPEED	IQUANT	1	Control Amp Speed
CONVENTION	IQUANT	1	Current Convention
ICHRANGE	IQUANT	2	Ich Range
ICHRANGEMODE	TOGGLE	F	Ich Auto Range
ICHOFFSETENABLE	TOGGLE	T	Ich Offset Enable
ICHOFFSET	QUANT	0	Ich Offset (V)
ICHFILTER	IQUANT	3	Ich Filter
VCHRANGE	IQUANT	2	Vch Range
VCHRANGEMODE	TOGGLE	F	Vch Auto Range
VCHOFFSETENABLE	TOGGLE	T	Vch Offset Enable
VCHOFFSET	QUANT	0	Vch Offset (V)
VCHFILTER	IQUANT	3	Vch Filter
ACHRANGE	IQUANT	2	Ach Range
ACHOFFSETENABLE	TOGGLE	F	Ach Offset Enable
ACHOFFSET	QUANT	0	Ach Offset (V)
ACHFILTER	IQUANT	3	Ach Filter
IERANGELOWERLIMIT	IQUANT	2	I/E Range Lower Limit
IERANGEMODE	TOGGLE	F	I/E AutoRange
IERANGE	IQUANT	11	I/E Range
POSFEEDENABLE	TOGGLE	F	Positive Feedback IR Comp
POSFEEDRESISTANCE	QUANT	0	Positive Feedback Resistance (ohm)
ACHSELECT	IQUANT	0	Ach Select
CABLEID	IQUANT	13	Cable ID
DCCALDATE	LABEL	7/31/2020	DC Calibration Date
ACCALDATE	LABEL	7/31/2020	AC Calibration Date
THERMOSELECT	IQUANT	1	Thermo Select
FRAMEWORKVERSION	QUANT	6.33	Framework Version
INSTRUMENTVERSION	LABEL	3.50	Instrument Version
COMPLIANCEVOLTAGE	IQUANT	0	Compliance Voltage
ZCURVE	TABLE
	Pt	Time	Freq	Zreal	Zimag	Zsig	Zmod	Zphz	Idc	Vdc	IERange
	#	s	Hz	ohm	ohm	V	ohm	°	A	V	#
	0	7	300046.9	118.9225	-0.5402862	1	118.9237	-0.2603033	2.648258E-005	0.0001847	9
	1	10	238359.4	119.9662	-0.6559142	1	119.968	-0.313261	-5.424064E-005	0.0005945	9
	2	13	189328.1	120.6215	-0.8420421	1	120.6245	-0.3999674	2.085386E-005	-0.0015824	9
	3	16	150421.9	121.5694	-0.9101017	1	121.5728	-0.4289239	7.59083E-006	0.0011197	9
	4	18	119484.4	122.4059	-0.554467	1	122.4071	-0.2595333	1.549289E-005	-0.001364	9
	5	22	94921.88	123.2338	-0.4172091	1	123.2345	-0.1939746	2.344153E-005	-0.0007449	9
	6	24	75421.88	123.9785	-0.4280562	1	123.9792	-0.1978224	-2.211324E-005	0.0009148	9
	7	27	59859.37	124.705	-0.5258033	1	124.7061	-0.2415792	1.2897E-005	0.0001304	9
	8	29	47578.12	125.4244	-0.5746	1	125.4257	-0.2624843	6.472364E-006	-0.0005713	9
	9	32	37828.12	126.1465	-0.5897762	1	126.1479	-0.2678745	2.444704E-005	-0.000493	9
	10	34	30046.88	126.9146	-0.5432177	1	126.9158	-0.2452349	2.587942E-005	-0.0007508	9
	11	37	23859.38	127.5894	-0.6425551	1	127.591	-0.2885458	-1.453882E-005	0.0001521	9
	12	39	18984.38	128.2979	-0.7061008	1	128.2998	-0.3153301	-2.068933E-005	0.0008845	9
	13	41	15046.87	129.1023	-0.7891601	1	129.1048	-0.3502259	-2.004462E-005	0.0004521	9
	14	44	11953.13	129.5929	-0.9429522	1	129.5963	-0.4168919	-1.835429E-005	0.0009035	9
	15	46	9515.62	130.3947	-1.190419	1	130.4002	-0.5230587	1.764856E-005	-2.845466E-005	9
	16	48	7546.875	130.9457	-1.471825	1	130.9539	-0.6439757	-3.297077E-006	-0.0002894	9
	17	50	5928.309	131.8083	-1.789759	1	131.8204	-0.7779431	-2.12546E-005	0.000632	9
	18	53	4733.456	132.533	-2.229046	1	132.5517	-0.963556	-1.858568E-005	0.0008853	9
	19	55	3796.875	133.2054	-2.756978	1	133.2339	-1.185693	2.172136E-005	-0.0002236	9
	20	57	2987.132	133.9851	-3.248288	1	134.0244	-1.388787	2.326881E-005	-0.0007172	9
	21	60	2390.625	134.7061	-3.96708	1	134.7645	-1.686868	-1.776184E-006	-0.000321	9
	22	62	1884.191	135.6894	-4.870348	1	135.7767	-2.055656	2.428209E-005	-0.0004473	9
	23	64	1516.544	136.5345	-5.908467	1	136.6622	-2.477903	1.923539E-005	-0.0000964	9
	24	67	1193.986	137.2689	-7.418177	1	137.4692	-3.093325	1.356377E-005	-0.0006948	9
	25	69	946.5144	138.0879	-9.15567	1	138.3911	-3.793341	-2.223038E-005	0.0007968	9
	26	71	751.7689	139.2747	-11.46588	1	139.7459	-4.706297	-1.948589E-005	0.0004504	9
	27	74	597.4265	140.2421	-14.08449	1	140.9475	-5.734977	1.40348E-005	-0.0007233	9
	28	76	477.4305	141.2608	-17.34765	1	142.322	-7.001202	1.167336E-006	6.097116E-005	9
	29	78	376.6741	142.4548	-21.64839	1	144.0903	-8.640938	1.044343E-006	5.748179E-005	9
	30	81	298.2954	143.7579	-26.93247	1	146.259	-10.61113	1.154056E-006	6.27683E-005	9
	31	83	237.7717	145.2339	-33.30479	1	149.0037	-12.91566	1.14214E-006	6.127478E-005	9
	32	85	189.0121	146.9044	-41.28257	1	152.5948	-15.69624	1.132291E-006	5.898033E-005	9
	33	88	150.2404	148.8309	-51.17186	1	157.3823	-18.97428	1.195372E-006	6.458889E-005	9
	34	90	119.1737	151.0651	-63.52399	1	163.8779	-22.80711	1.208749E-006	6.446812E-005	9
	35	93	95.0169	153.6839	-78.45331	1	172.5505	-27.04362	1.201118E-006	5.999151E-005	9
	36	95	75.60484	156.853	-97.0362	1	184.4421	-31.74277	1.152094E-006	6.491581E-005	9
	37	98	54.50582	162.1957	-131.4012	1	208.7432	-39.0123	1.206992E-006	6.343303E-005	9
	38	100	45.95588	166.0595	-153.8785	1	226.3942	-42.81963	1.157172E-006	6.800954E-005	9
	39	103	37.20238	171.7614	-187.0253	1	253.93	-47.43607	1.104755E-006	5.743726E-005	9
	40	106	30.04808	178.4197	-227.7362	1	289.3049	-51.92311	1.224853E-006	6.526584E-005	9
	41	108	23.91582	187.0455	-280.8164	1	337.4076	-56.33331	1.277918E-006	5.891593E-005	9
	42	111	18.60119	198.739	-353.538	1	405.5691	-60.65778	1.109478E-006	5.775945E-005	9
	43	113	15.02404	210.3016	-427.854	1	476.7451	-63.82466	3.887242E-008	0.0006415	8
	44	115	12.01923	226.4884	-524.4472	1	571.2634	-66.64236	1.567805E-007	0.0006451	8
	45	118	9.450605	248.1735	-652.9932	1	698.5629	-69.19044	1.485326E-007	0.0006539	8
	46	120	7.512019	274.0786	-804.5906	1	849.9913	-71.18893	1.410073E-007	0.0006653	8
	47	123	5.978954	307.0914	-990.102	1	1036.633	-72.76814	1.355463E-007	0.0006379	8
	48	126	4.734848	349.7515	-1223.47	1	1272.48	-74.04644	1.169266E-007	0.0007265	8
	49	129	3.75601	404.4401	-1508.696	1	1561.965	-74.9934	3.797819E-008	0.000671	8
	50	133	3.004808	471.8107	-1843.654	1	1903.068	-75.64547	1.193864E-007	0.0006198	8
	51	136	2.372217	562.8858	-2275.892	1	2344.467	-76.10808	1.04343E-007	0.0006118	8
	52	140	1.878005	683.4884	-2803.425	1	2885.541	-76.29832	9.064626E-008	0.0006402	8
	53	145	1.512097	822.5012	-3393.941	1	3492.183	-76.37735	1.034872E-007	0.0005321	8
	54	151	1.201923	1002.568	-4152.562	1	4271.874	-76.42663	9.773092E-008	0.0006578	8
	55	157	0.956633	1225.512	-5074.61	1	5220.493	-76.4231	-9.798452E-009	-1.945517E-005	7
