EXPLAIN
TAG	EISPOT
TITLE	LABEL	Potentiostatic EIS	Test Identifier
DATE	LABEL	9/13/2020	Date
TIME	LABEL	21:16:30	Time
NOTES	NOTES	1	Notes...
	
PSTAT	PSTAT	REF3000-16137	Potentiostat
VDC	POTEN	0.00000E+000	T	DC Voltage (V)
FREQINIT	QUANT	3.00000E+005	Initial Freq. (Hz)
FREQFINAL	QUANT	1.00000E+000	Final Freq. (Hz)
PTSPERDEC	QUANT	1.00000E+001	Points/decade
VAC	QUANT	5.00000E+001	AC Voltage (mV rms)
AREA	QUANT	1.00000E+000	Sample Area (cm^2)
SPEED	SELECTOR	2	Optimize for:
ZGUESS	QUANT	1.00000E+003	Estimated Z (ohms)
EOC	QUANT	0	Open Circuit (V)
SEQUENCER	TOGGLE	TRUE	Run as Sequence
PSTATMODEL	IQUANT	5	Pstat Model
PSTATSECTION	LABEL	REF3000-16137	Pstat Section
PSTATSERIALNO	LABEL	16137	Pstat Serial Number
CTRLMODE	IQUANT	1	Control Mode
IESTAB	IQUANT	0	I/E Stability
CASPEED	IQUANT	1	Control Amp Speed
CONVENTION	IQUANT	1	Current Convention
ICHRANGE	IQUANT	2	Ich Range
ICHRANGEMODE	TOGGLE	F	Ich Auto Range
ICHOFFSETENABLE	TOGGLE	T	Ich Offset Enable
ICHOFFSET	QUANT	0	Ich Offset (V)
ICHFILTER	IQUANT	3	Ich Filter
VCHRANGE	IQUANT	2	Vch Range
VCHRANGEMODE	TOGGLE	F	Vch Auto Range
VCHOFFSETENABLE	TOGGLE	T	Vch Offset Enable
VCHOFFSET	QUANT	0	Vch Offset (V)
VCHFILTER	IQUANT	3	Vch Filter
ACHRANGE	IQUANT	2	Ach Range
ACHOFFSETENABLE	TOGGLE	F	Ach Offset Enable
ACHOFFSET	QUANT	0	Ach Offset (V)
ACHFILTER	IQUANT	3	Ach Filter
IERANGELOWERLIMIT	IQUANT	2	I/E Range Lower Limit
IERANGEMODE	TOGGLE	F	I/E AutoRange
IERANGE	IQUANT	11	I/E Range
POSFEEDENABLE	TOGGLE	F	Positive Feedback IR Comp
POSFEEDRESISTANCE	QUANT	0	Positive Feedback Resistance (ohm)
ACHSELECT	IQUANT	0	Ach Select
CABLEID	IQUANT	13	Cable ID
DCCALDATE	LABEL	7/31/2020	DC Calibration Date
ACCALDATE	LABEL	7/31/2020	AC Calibration Date
THERMOSELECT	IQUANT	1	Thermo Select
FRAMEWORKVERSION	QUANT	6.33	Framework Version
INSTRUMENTVERSION	LABEL	3.50	Instrument Version
COMPLIANCEVOLTAGE	IQUANT	0	Compliance Voltage
ZCURVE	TABLE
	Pt	Time	Freq	Zreal	Zimag	Zsig	Zmod	Zphz	Idc	Vdc	IERange
	#	s	Hz	ohm	ohm	V	ohm	°	A	V	#
	0	10	300046.9	3.855228	2.275863	1	4.476867	30.5547	-9.044928E-005	5.874894E-005	10
	1	13	238359.4	3.834649	1.79426	1	4.233663	25.07524	2.006021E-005	-0.0003696	10
	2	16	189328.1	3.812876	1.416384	1	4.067452	20.37872	2.049424E-005	-5.110053E-005	10
	3	19	150421.9	3.795976	1.116189	1	3.956679	16.38573	1.747904E-005	0.0001647	10
	4	21	119484.4	3.79687	0.8647475	1	3.894099	12.83041	1.163684E-005	0.0003991	10
	5	24	94921.88	3.796692	0.6742222	1	3.856092	10.0697	4.05642E-005	0.0004039	10
	6	26	75421.88	3.797814	0.5004504	1	3.830646	7.506801	1.326261E-005	0.0004911	10
	7	29	59859.37	3.800797	0.3523599	1	3.817095	5.296572	8.53012E-006	0.000486	10
	8	31	47578.12	3.806042	0.2249917	1	3.812687	3.383066	2.721103E-006	0.0005913	10
	9	34	37828.12	3.812298	0.1099077	1	3.813882	1.651367	1.375275E-005	0.0005606	10
	10	36	30046.88	3.82124	0.0020676	1	3.82124	0.0310022	-1.946333E-005	0.000658	10
	11	39	23859.38	3.829936	-0.1049823	1	3.831374	-1.57014	-1.377167E-005	0.0006351	10
	12	41	18984.38	3.841404	-0.2140019	1	3.847361	-3.188612	1.425264E-005	0.0006099	10
	13	44	15046.87	3.854242	-0.3338531	1	3.868675	-4.950584	2.115838E-005	0.0006277	10
	14	46	11953.13	3.869208	-0.4676422	1	3.897366	-6.891485	-2.028747E-005	0.0006431	10
	15	48	9515.62	3.886276	-0.6207042	1	3.935533	-9.074464	1.850386E-005	0.0006397	10
	16	50	7546.875	3.909111	-0.8056596	1	3.99127	-11.64548	-2.285054E-005	0.0006868	10
	17	53	5928.309	3.936198	-1.038695	1	4.070938	-14.78241	-1.050396E-005	0.0006472	10
	18	55	4733.456	3.968535	-1.30348	1	4.17712	-18.18296	-2.446529E-005	0.0007224	10
	19	57	3796.875	4.006963	-1.617706	1	4.321195	-21.9851	1.992013E-005	0.0006454	10
	20	60	2987.132	4.060022	-2.039022	1	4.543279	-26.66669	3.858985E-006	0.0006301	10
	21	62	2390.625	4.121805	-2.521267	1	4.831776	-31.45371	-1.354197E-005	0.000698	10
	22	64	1884.191	4.203222	-3.15497	1	5.25556	-36.89217	-2.706665E-005	0.000679	10
	23	67	1516.544	4.298946	-3.864401	1	5.78053	-41.95295	2.186216E-005	0.000647	10
	24	69	1193.986	4.431773	-4.828151	1	6.553751	-47.45109	-1.194286E-005	0.0006491	10
	25	71	946.5144	4.59272	-5.990753	1	7.548656	-52.52497	1.664459E-005	0.0006664	10
	26	74	751.7689	4.798202	-7.41098	1	8.828668	-57.07916	-2.204058E-005	0.000678	10
	27	76	597.4265	5.05733	-9.156365	1	10.46019	-61.08684	-2.736367E-005	0.000673	10
	28	78	477.4305	5.384216	-11.25288	1	12.47466	-64.43007	-3.184782E-006	0.0006642	10
	29	81	376.6741	5.824266	-13.98514	1	15.14946	-67.39017	-2.52341E-006	0.0006645	10
	30	83	298.2954	6.387074	-17.31175	1	18.45241	-69.74875	-2.430568E-006	0.0006609	10
	31	85	237.7717	7.097373	-21.28143	1	22.43372	-71.55642	-2.397089E-006	0.0006602	10
	32	88	189.0121	8.030817	-26.19935	1	27.40255	-72.95827	-2.789214E-006	0.0006672	10
	33	90	150.2404	9.245724	-32.21232	1	33.51294	-73.98522	-2.233968E-006	0.0006598	10
	34	93	119.1737	10.83444	-39.60068	1	41.05605	-74.69877	-2.432458E-006	0.0006708	10
	35	95	95.0169	12.80694	-48.30065	1	49.96969	-75.14972	1.403837E-006	6.421582E-005	9
	36	97	75.60484	15.33435	-58.95601	1	60.91759	-75.42051	1.293725E-006	6.184536E-005	9
	37	100	54.50582	20.05293	-78.12774	1	80.66017	-75.60473	7.404293E-007	0.0001122	9
	38	102	45.95588	23.11426	-90.37328	1	93.28236	-75.65334	1.544482E-006	7.122805E-005	9
	39	105	37.20238	27.53797	-108.1071	1	111.5593	-75.70905	1.47982E-006	6.779851E-005	9
	40	107	30.04808	32.79682	-129.4876	1	133.5765	-75.78693	1.429143E-006	5.968002E-005	9
	41	110	23.91582	39.39034	-156.9029	1	161.7718	-75.9072	1.318801E-006	5.611908E-005	9
	42	112	18.60119	47.88364	-193.938	1	199.7618	-76.13094	1.37192E-006	5.713475E-005	9
	43	114	15.02404	56.39854	-232.3883	1	239.1341	-76.35857	1.487536E-006	6.213437E-005	9
	44	117	12.01923	66.81921	-281.2015	1	289.0313	-76.63326	1.58724E-006	6.322809E-005	9
	45	119	9.450605	79.96085	-345.7655	1	354.8909	-76.97883	1.575759E-006	6.262293E-005	9
	46	121	7.512019	94.51294	-420.3596	1	430.8536	-77.32843	9.159178E-007	0.0006507	8
	47	124	5.978954	112.5414	-512.9664	1	525.1667	-77.62574	8.857915E-007	0.0006412	8
	48	127	4.734848	135.1498	-630.3406	1	644.6664	-77.89857	9.710056E-007	0.0006465	8
	49	130	3.75601	163.3074	-773.3779	1	790.432	-78.07652	8.758358E-007	0.0006384	8
	50	134	3.004808	197.2665	-942.2946	1	962.722	-78.17606	9.515832E-007	0.000609	8
	51	138	2.372217	243.1899	-1162.118	1	1187.291	-78.1806	9.00976E-007	0.0005778	8
	52	142	1.878005	303.2652	-1430.011	1	1461.814	-78.02657	9.042853E-007	0.0006493	8
	53	146	1.512097	375.3108	-1731.797	1	1771.998	-77.77209	8.756318E-007	0.0005497	8
	54	152	1.201923	470.1777	-2126.142	1	2177.51	-77.53023	8.953905E-007	0.0006652	8
	55	158	0.956633	597.4911	-2603.265	1	2670.952	-77.07357	8.604973E-007	-3.050327E-006	8
