EXPLAIN
TAG	EISPOT
TITLE	LABEL	Potentiostatic EIS	Test Identifier
DATE	LABEL	9/13/2020	Date
TIME	LABEL	22:22:33	Time
NOTES	NOTES	1	Notes...
	
PSTAT	PSTAT	REF3000-16137	Potentiostat
VDC	POTEN	0.00000E+000	T	DC Voltage (V)
FREQINIT	QUANT	3.00000E+005	Initial Freq. (Hz)
FREQFINAL	QUANT	1.00000E+000	Final Freq. (Hz)
PTSPERDEC	QUANT	1.00000E+001	Points/decade
VAC	QUANT	5.00000E+001	AC Voltage (mV rms)
AREA	QUANT	1.00000E+000	Sample Area (cm^2)
SPEED	SELECTOR	2	Optimize for:
ZGUESS	QUANT	1.00000E+003	Estimated Z (ohms)
EOC	QUANT	0	Open Circuit (V)
SEQUENCER	TOGGLE	TRUE	Run as Sequence
PSTATMODEL	IQUANT	5	Pstat Model
PSTATSECTION	LABEL	REF3000-16137	Pstat Section
PSTATSERIALNO	LABEL	16137	Pstat Serial Number
CTRLMODE	IQUANT	1	Control Mode
IESTAB	IQUANT	0	I/E Stability
CASPEED	IQUANT	1	Control Amp Speed
CONVENTION	IQUANT	1	Current Convention
ICHRANGE	IQUANT	2	Ich Range
ICHRANGEMODE	TOGGLE	F	Ich Auto Range
ICHOFFSETENABLE	TOGGLE	T	Ich Offset Enable
ICHOFFSET	QUANT	0	Ich Offset (V)
ICHFILTER	IQUANT	3	Ich Filter
VCHRANGE	IQUANT	2	Vch Range
VCHRANGEMODE	TOGGLE	F	Vch Auto Range
VCHOFFSETENABLE	TOGGLE	T	Vch Offset Enable
VCHOFFSET	QUANT	0	Vch Offset (V)
VCHFILTER	IQUANT	3	Vch Filter
ACHRANGE	IQUANT	2	Ach Range
ACHOFFSETENABLE	TOGGLE	F	Ach Offset Enable
ACHOFFSET	QUANT	0	Ach Offset (V)
ACHFILTER	IQUANT	3	Ach Filter
IERANGELOWERLIMIT	IQUANT	2	I/E Range Lower Limit
IERANGEMODE	TOGGLE	F	I/E AutoRange
IERANGE	IQUANT	11	I/E Range
POSFEEDENABLE	TOGGLE	F	Positive Feedback IR Comp
POSFEEDRESISTANCE	QUANT	0	Positive Feedback Resistance (ohm)
ACHSELECT	IQUANT	0	Ach Select
CABLEID	IQUANT	13	Cable ID
DCCALDATE	LABEL	7/31/2020	DC Calibration Date
ACCALDATE	LABEL	7/31/2020	AC Calibration Date
THERMOSELECT	IQUANT	1	Thermo Select
FRAMEWORKVERSION	QUANT	6.33	Framework Version
INSTRUMENTVERSION	LABEL	3.50	Instrument Version
COMPLIANCEVOLTAGE	IQUANT	0	Compliance Voltage
ZCURVE	TABLE
	Pt	Time	Freq	Zreal	Zimag	Zsig	Zmod	Zphz	Idc	Vdc	IERange
	#	s	Hz	ohm	ohm	V	ohm	°	A	V	#
	0	21	300046.9	1410.437	-701.7524	1	1575.369	-26.4523	2.523809E-005	0.0009092	9
	1	34	238359.4	1613.782	-710.3963	1	1763.223	-23.75938	1.884933E-005	-0.0003875	9
	2	60	189328.1	1772.69	-658.673	1	1891.105	-20.38341	2.739364E-005	-0.0019511	9
	3	66	150421.9	1923.008	-620.1902	1	2020.543	-17.87506	2.57974E-005	0.0010571	9
	4	77	119484.4	2039.273	-470.878	1	2092.931	-13.00199	-3.015306E-005	-0.0037014	8
	5	83	94921.88	2133.469	-408.5836	1	2172.241	-10.84152	-2.301305E-005	0.0070109	8
	6	87	75421.88	2192.22	-350.7715	1	2220.106	-9.090692	2.234971E-005	-0.0079457	8
	7	90	59859.37	2248.126	-291.5007	1	2266.946	-7.387972	-1.820626E-005	0.0029013	8
	8	94	47578.12	2300.436	-252.0781	1	2314.206	-6.253429	2.319346E-005	-0.0048176	8
	9	98	37828.12	2344.518	-213.9267	1	2354.258	-5.213545	2.102433E-005	-0.0028673	8
	10	102	30046.88	2400.656	-181.2335	1	2407.488	-4.317259	2.208773E-005	-0.0078736	8
	11	108	23859.38	2462.497	-148.7089	1	2466.983	-3.455865	2.124526E-005	-0.0029687	8
	12	113	18984.38	2526.352	-133.6992	1	2529.887	-3.029372	-1.184272E-005	0.0010615	9
	13	118	15046.87	2568.347	-103.6853	1	2570.439	-2.311799	-2.154863E-005	0.005197	8
	14	123	11953.13	2629.769	-94.19924	1	2631.455	-2.051478	1.845973E-005	-0.0009216	9
	15	128	9515.62	2687.011	-83.1852	1	2688.299	-1.773211	-2.676353E-005	0.0008864	9
	16	133	7546.875	2725.899	-61.76467	1	2726.599	-1.298012	2.28453E-005	-0.0080511	8
	17	138	5928.309	2767.761	-58.00393	1	2768.369	-1.200571	-2.340972E-005	0.0071555	8
	18	143	4733.456	2829.963	-38.01555	1	2830.218	-0.7696213	-2.367438E-005	0.0071849	8
	19	149	3796.875	2890.008	-40.81945	1	2890.297	-0.809211	1.338885E-005	-0.0078895	8
	20	154	2987.132	2958.227	-60.28207	1	2958.841	-1.167399	9.826899E-006	-0.0007771	9
	21	159	2390.625	3020.33	-7.460358	1	3020.339	-0.141523	2.035742E-005	2.261267E-005	9
	22	165	1884.191	3092.232	-40.69061	1	3092.5	-0.7539104	9.94493E-006	0.0004042	9
	23	170	1516.544	3143.246	-13.00254	1	3143.272	-0.2370118	7.03708E-008	-0.0005167	9
	24	175	1193.986	3198.043	-17.40218	1	3198.09	-0.3117724	-1.495495E-005	3.511316E-005	9
	25	181	946.5144	3237.011	7.931546	1	3237.021	0.1403898	2.434211E-005	-0.0068332	8
	26	185	751.7689	3305.193	-11.30372	1	3305.212	-0.1959501	-7.075433E-007	0.0068041	8
	27	188	597.4265	3344.814	-21.75186	1	3344.885	-0.3725983	1.958614E-005	2.020496E-005	9
	28	192	477.4305	3394.12	-32.12352	1	3394.272	-0.5422576	-3.857617E-007	0.0006561	8
	29	195	376.6741	3425.803	-36.46109	1	3425.998	-0.6097803	-3.254593E-007	0.0006331	8
	30	198	298.2954	3457.134	-42.24028	1	3457.392	-0.7000219	-3.615407E-007	0.0006532	8
	31	200	237.7717	3490.606	-50.18452	1	3490.967	-0.8236859	-3.368238E-007	0.0006347	8
	32	203	189.0121	3523.432	-60.36835	1	3523.949	-0.981575	-3.702603E-007	0.0006497	8
	33	205	150.2404	3558.406	-73.19725	1	3559.159	-1.178421	-3.485462E-007	0.000644	8
	34	207	119.1737	3603.614	-87.66612	1	3604.68	-1.393575	-5.79512E-008	0.0006506	7
	35	210	95.0169	3640.005	-107.5042	1	3641.592	-1.691686	-8.962127E-008	0.000569	7
	36	212	75.60484	3676.773	-132.4033	1	3679.156	-2.062372	-6.428314E-008	0.0006476	7
	37	215	54.50582	3719.565	-179.3594	1	3723.887	-2.760695	-4.897248E-008	0.0005689	7
	38	217	45.95588	3755.016	-208.223	1	3760.785	-3.173913	-1.57743E-008	0.0006271	7
	39	220	37.20238	3796.151	-254.2708	1	3804.657	-3.832017	-9.013314E-008	0.0006462	7
	40	222	30.04808	3836.677	-309.1404	1	3849.112	-4.606656	-2.255153E-008	0.0005966	7
	41	224	23.91582	3880.181	-382.2389	1	3898.963	-5.626088	-4.968806E-008	0.00064	7
	42	227	18.60119	3934.183	-493.2481	1	3964.982	-7.14617	-3.78141E-007	0.000599	7
	43	229	15.02404	3971.526	-583.911	1	4014.221	-8.363954	3.001352E-008	0.0006595	7
	44	231	12.01923	4024.091	-713.9543	1	4086.935	-10.06073	1.182877E-007	0.000573	7
	45	234	9.450605	4083.997	-901.812	1	4182.379	-12.45201	2.099307E-008	0.0005658	7
	46	236	7.512019	4137.253	-1120.526	1	4286.309	-15.15432	3.986678E-008	0.0005686	7
	47	239	5.978954	4222.949	-1397.443	1	4448.162	-18.31022	-1.827307E-008	0.0005612	7
	48	242	4.734848	4312.744	-1734.818	1	4648.586	-21.91265	-2.40471E-008	0.0006761	7
	49	245	3.75601	4422.499	-2150.034	1	4917.433	-25.92708	-1.16255E-007	0.0006089	7
	50	249	3.004808	4549.844	-2639.48	1	5260.032	-30.11911	-7.683037E-008	0.0005795	7
	51	252	2.372217	4703.697	-3281.872	1	5735.456	-34.90432	-8.719984E-008	0.0006224	7
	52	256	1.878005	4896.57	-4076.669	1	6371.47	-39.77927	-9.196594E-008	0.0006079	7
	53	261	1.512097	5115.137	-4979.692	1	7138.764	-44.23129	-8.362169E-008	0.00052	7
	54	267	1.201923	5394.807	-6158.41	1	8187.182	-48.78143	-8.670666E-008	0.0006148	7
	55	273	0.956633	5727.867	-7598.814	1	9515.8	-52.99158	-8.519179E-008	-2.880697E-005	7
