EXPLAIN
TAG	EISPOT
TITLE	LABEL	Potentiostatic EIS	Test Identifier
DATE	LABEL	9/13/2020	Date
TIME	LABEL	21:27:41	Time
NOTES	NOTES	1	Notes...
	
PSTAT	PSTAT	REF3000-16137	Potentiostat
VDC	POTEN	0.00000E+000	T	DC Voltage (V)
FREQINIT	QUANT	3.00000E+005	Initial Freq. (Hz)
FREQFINAL	QUANT	1.00000E+000	Final Freq. (Hz)
PTSPERDEC	QUANT	1.00000E+001	Points/decade
VAC	QUANT	5.00000E+001	AC Voltage (mV rms)
AREA	QUANT	1.00000E+000	Sample Area (cm^2)
SPEED	SELECTOR	2	Optimize for:
ZGUESS	QUANT	1.00000E+003	Estimated Z (ohms)
EOC	QUANT	0	Open Circuit (V)
SEQUENCER	TOGGLE	TRUE	Run as Sequence
PSTATMODEL	IQUANT	5	Pstat Model
PSTATSECTION	LABEL	REF3000-16137	Pstat Section
PSTATSERIALNO	LABEL	16137	Pstat Serial Number
CTRLMODE	IQUANT	1	Control Mode
IESTAB	IQUANT	0	I/E Stability
CASPEED	IQUANT	1	Control Amp Speed
CONVENTION	IQUANT	1	Current Convention
ICHRANGE	IQUANT	2	Ich Range
ICHRANGEMODE	TOGGLE	F	Ich Auto Range
ICHOFFSETENABLE	TOGGLE	T	Ich Offset Enable
ICHOFFSET	QUANT	0	Ich Offset (V)
ICHFILTER	IQUANT	3	Ich Filter
VCHRANGE	IQUANT	2	Vch Range
VCHRANGEMODE	TOGGLE	F	Vch Auto Range
VCHOFFSETENABLE	TOGGLE	T	Vch Offset Enable
VCHOFFSET	QUANT	0	Vch Offset (V)
VCHFILTER	IQUANT	3	Vch Filter
ACHRANGE	IQUANT	2	Ach Range
ACHOFFSETENABLE	TOGGLE	F	Ach Offset Enable
ACHOFFSET	QUANT	0	Ach Offset (V)
ACHFILTER	IQUANT	3	Ach Filter
IERANGELOWERLIMIT	IQUANT	2	I/E Range Lower Limit
IERANGEMODE	TOGGLE	F	I/E AutoRange
IERANGE	IQUANT	11	I/E Range
POSFEEDENABLE	TOGGLE	F	Positive Feedback IR Comp
POSFEEDRESISTANCE	QUANT	0	Positive Feedback Resistance (ohm)
ACHSELECT	IQUANT	0	Ach Select
CABLEID	IQUANT	13	Cable ID
DCCALDATE	LABEL	7/31/2020	DC Calibration Date
ACCALDATE	LABEL	7/31/2020	AC Calibration Date
THERMOSELECT	IQUANT	1	Thermo Select
FRAMEWORKVERSION	QUANT	6.33	Framework Version
INSTRUMENTVERSION	LABEL	3.50	Instrument Version
COMPLIANCEVOLTAGE	IQUANT	0	Compliance Voltage
ZCURVE	TABLE
	Pt	Time	Freq	Zreal	Zimag	Zsig	Zmod	Zphz	Idc	Vdc	IERange
	#	s	Hz	ohm	ohm	V	ohm	°	A	V	#
	0	10	300046.9	5.629243	2.254368	1	6.063873	21.82484	-0.0001108	0.0001082	10
	1	13	238359.4	5.613768	1.781142	1	5.889555	17.60324	-8.227121E-006	-6.933827E-005	10
	2	16	189328.1	5.602577	1.404914	1	5.776042	14.07733	-4.905794E-006	0.0002098	10
	3	19	150421.9	5.608235	1.099862	1	5.715067	11.09577	7.149929E-007	0.0002677	10
	4	21	119484.4	5.597179	0.8519835	1	5.661651	8.654931	2.634102E-005	0.0005371	10
	5	24	94921.88	5.606455	0.6689785	1	5.646226	6.804526	1.982563E-005	0.0004776	10
	6	26	75421.88	5.610475	0.4945138	1	5.632226	5.037099	-2.964261E-005	0.000547	10
	7	29	59859.37	5.618745	0.3426802	1	5.629186	3.490075	-2.824429E-005	0.0005799	10
	8	32	47578.12	5.629081	0.2108368	1	5.633028	2.145006	3.380868E-006	0.0005798	10
	9	34	37828.12	5.6431	0.093301	1	5.643871	0.9472216	-2.972622E-005	0.0006177	10
	10	37	30046.88	5.658337	-0.0177924	1	5.658365	-0.1801633	-1.060938E-005	0.0006777	10
	11	39	23859.38	5.672292	-0.1275442	1	5.673726	-1.288106	1.570878E-005	0.000621	10
	12	41	18984.38	5.688623	-0.2403659	1	5.693699	-2.419525	1.154972E-005	0.0006314	10
	13	44	15046.87	5.708217	-0.3656699	1	5.719917	-3.665375	-1.352322E-005	0.0006965	10
	14	46	11953.13	5.728296	-0.5064889	1	5.750644	-5.052882	2.717659E-005	0.0006408	10
	15	48	9515.62	5.750841	-0.6681299	1	5.789522	-6.626886	1.826635E-005	0.0006244	10
	16	51	7546.875	5.778931	-0.8648077	1	5.843281	-8.511063	1.669777E-005	0.0006706	10
	17	53	5928.309	5.811899	-1.1127	1	5.917455	-10.83825	1.979516E-005	0.0006267	10
	18	55	4733.456	5.849467	-1.394525	1	6.013399	-13.40913	2.902804E-006	0.000617	10
	19	57	3796.875	5.894334	-1.732064	1	6.143551	-16.37555	-2.837591E-005	0.0007184	10
	20	60	2987.132	5.952218	-2.182327	1	6.339673	-20.135	1.406748E-005	0.0006545	10
	21	62	2390.625	6.019178	-2.698586	1	6.596429	-24.14818	-5.434845E-006	0.0006288	10
	22	64	1884.191	6.107849	-3.378229	1	6.979846	-28.94683	-2.389038E-005	0.0006767	10
	23	67	1516.544	6.208721	-4.142211	1	7.463654	-33.70964	-1.894861E-005	0.0006652	10
	24	69	1193.986	6.347007	-5.181206	1	8.193253	-39.22554	-2.604282E-005	0.0006871	10
	25	71	946.5144	6.518622	-6.424386	1	9.152331	-44.58284	1.702107E-005	0.000621	10
	26	74	751.7689	6.728432	-7.962824	1	10.42489	-49.80284	-2.383044E-005	0.0007295	10
	27	76	597.4265	6.994509	-9.84888	1	12.07988	-54.61827	-2.487642E-005	0.0006674	10
	28	78	477.4305	7.322512	-12.11113	1	14.15269	-58.84242	-2.273431E-006	0.0006615	10
	29	81	376.6741	7.7598	-15.06348	1	16.9447	-62.7452	-2.367184E-006	0.0006657	10
	30	83	298.2954	8.306545	-18.66593	1	20.43075	-66.0104	-2.289976E-006	0.0006647	10
	31	85	237.7717	8.985507	-22.98234	1	24.67645	-68.64577	-2.503115E-006	0.0006649	10
	32	88	189.0121	9.86729	-28.36075	1	30.02825	-70.81616	-2.67521E-006	0.0006677	10
	33	90	150.2404	11.00537	-34.97245	1	36.6632	-72.53189	-2.876098E-006	0.0006642	10
	34	93	119.1737	12.47946	-43.12094	1	44.89045	-73.85923	1.393207E-006	6.607968E-005	9
	35	95	95.0169	14.37225	-52.91606	1	54.83312	-74.80477	1.251619E-006	6.495242E-005	9
	36	97	75.60484	16.84235	-64.95763	1	67.10558	-75.46432	1.265993E-006	6.06891E-005	9
	37	100	54.50582	21.64146	-86.81539	1	89.47215	-76.00252	1.120672E-006	5.435149E-005	9
	38	103	45.95588	24.8916	-100.8613	1	103.8874	-76.13697	1.378718E-006	6.665794E-005	9
	39	106	37.20238	29.75154	-121.2009	1	124.7991	-76.20814	1.368307E-006	6.101169E-005	9
	40	108	30.04808	35.6803	-145.6262	1	149.9335	-76.233	7.886326E-007	0.0001221	9
	41	111	23.91582	43.39261	-176.9626	1	182.205	-76.22247	1.244431E-006	5.988466E-005	9
	42	113	18.60119	53.70332	-219.0787	1	225.5649	-76.22654	1.500425E-006	7.010336E-005	9
	43	115	15.02404	64.16631	-262.4038	1	270.1353	-76.25896	1.492614E-006	6.576737E-005	9
	44	119	12.01923	77.12481	-317.0952	1	326.3397	-76.3298	1.288383E-006	6.050648E-005	9
	45	122	9.450605	93.33527	-388.7842	1	399.8307	-76.5005	1.379269E-006	7.439053E-005	9
	46	124	7.512019	111.1476	-470.6989	1	483.6437	-76.71394	6.793812E-007	0.0006461	8
	47	127	5.978954	132.0441	-572.0792	1	587.1203	-77.00293	6.86402E-007	0.000643	8
	48	130	4.734848	157.4078	-699.6392	1	717.1277	-77.32048	7.018563E-007	0.0006152	8
	49	133	3.75601	187.7383	-856.0272	1	876.3722	-77.63011	7.804047E-007	0.0006613	8
	50	137	3.004808	222.8755	-1040.325	1	1063.932	-77.90794	7.225636E-007	0.0006447	8
	51	141	2.372217	270.3571	-1280.153	1	1308.39	-78.07487	6.8314E-007	0.0006075	8
	52	145	1.878005	327.3401	-1577.881	1	1611.477	-78.27992	7.508717E-007	0.0006249	8
	53	149	1.512097	390.3859	-1910.836	1	1950.307	-78.45331	7.091665E-007	0.0007058	8
	54	155	1.201923	481.7163	-2346.947	1	2395.874	-78.401	7.491388E-007	0.0006444	8
	55	161	0.956633	592.0129	-2873.126	1	2933.485	-78.35705	6.893723E-007	4.455632E-006	8
