EXPLAIN
TAG	EISPOT
TITLE	LABEL	Potentiostatic EIS	Test Identifier
DATE	LABEL	9/13/2020	Date
TIME	LABEL	21:13:42	Time
NOTES	NOTES	1	Notes...
	
PSTAT	PSTAT	REF3000-16137	Potentiostat
VDC	POTEN	0.00000E+000	T	DC Voltage (V)
FREQINIT	QUANT	3.00000E+005	Initial Freq. (Hz)
FREQFINAL	QUANT	1.00000E+000	Final Freq. (Hz)
PTSPERDEC	QUANT	1.00000E+001	Points/decade
VAC	QUANT	5.00000E+001	AC Voltage (mV rms)
AREA	QUANT	1.00000E+000	Sample Area (cm^2)
SPEED	SELECTOR	2	Optimize for:
ZGUESS	QUANT	1.00000E+003	Estimated Z (ohms)
EOC	QUANT	0	Open Circuit (V)
SEQUENCER	TOGGLE	TRUE	Run as Sequence
PSTATMODEL	IQUANT	5	Pstat Model
PSTATSECTION	LABEL	REF3000-16137	Pstat Section
PSTATSERIALNO	LABEL	16137	Pstat Serial Number
CTRLMODE	IQUANT	1	Control Mode
IESTAB	IQUANT	0	I/E Stability
CASPEED	IQUANT	1	Control Amp Speed
CONVENTION	IQUANT	1	Current Convention
ICHRANGE	IQUANT	2	Ich Range
ICHRANGEMODE	TOGGLE	F	Ich Auto Range
ICHOFFSETENABLE	TOGGLE	T	Ich Offset Enable
ICHOFFSET	QUANT	0	Ich Offset (V)
ICHFILTER	IQUANT	3	Ich Filter
VCHRANGE	IQUANT	2	Vch Range
VCHRANGEMODE	TOGGLE	F	Vch Auto Range
VCHOFFSETENABLE	TOGGLE	T	Vch Offset Enable
VCHOFFSET	QUANT	0	Vch Offset (V)
VCHFILTER	IQUANT	3	Vch Filter
ACHRANGE	IQUANT	2	Ach Range
ACHOFFSETENABLE	TOGGLE	F	Ach Offset Enable
ACHOFFSET	QUANT	0	Ach Offset (V)
ACHFILTER	IQUANT	3	Ach Filter
IERANGELOWERLIMIT	IQUANT	2	I/E Range Lower Limit
IERANGEMODE	TOGGLE	F	I/E AutoRange
IERANGE	IQUANT	11	I/E Range
POSFEEDENABLE	TOGGLE	F	Positive Feedback IR Comp
POSFEEDRESISTANCE	QUANT	0	Positive Feedback Resistance (ohm)
ACHSELECT	IQUANT	0	Ach Select
CABLEID	IQUANT	13	Cable ID
DCCALDATE	LABEL	7/31/2020	DC Calibration Date
ACCALDATE	LABEL	7/31/2020	AC Calibration Date
THERMOSELECT	IQUANT	1	Thermo Select
FRAMEWORKVERSION	QUANT	6.33	Framework Version
INSTRUMENTVERSION	LABEL	3.50	Instrument Version
COMPLIANCEVOLTAGE	IQUANT	0	Compliance Voltage
ZCURVE	TABLE
	Pt	Time	Freq	Zreal	Zimag	Zsig	Zmod	Zphz	Idc	Vdc	IERange
	#	s	Hz	ohm	ohm	V	ohm	°	A	V	#
	0	11	300046.9	3.582176	2.277784	1	4.245031	32.45089	-3.808788E-005	7.422402E-006	10
	1	14	238359.4	3.557958	1.797271	1	3.986132	26.80022	1.73658E-005	-0.0004152	10
	2	17	189328.1	3.535046	1.422464	1	3.810506	21.91932	-8.047631E-005	1.659806E-005	10
	3	19	150421.9	3.530692	1.120558	1	3.704246	17.6082	-3.925108E-005	0.0002076	10
	4	22	119484.4	3.51719	0.866532	1	3.622362	13.84036	4.215013E-005	0.0003833	10
	5	24	94921.88	3.516232	0.6756962	1	3.580566	10.87764	1.085057E-005	0.0004294	10
	6	27	75421.88	3.516215	0.5016448	1	3.551819	8.119377	1.807974E-005	0.0004106	10
	7	29	59859.37	3.518088	0.3538277	1	3.535836	5.743145	-6.744444E-006	0.0005148	10
	8	32	47578.12	3.522608	0.2266952	1	3.529894	3.682157	2.351992E-005	0.0005375	10
	9	34	37828.12	3.528802	0.1129178	1	3.530608	1.832777	1.907411E-005	0.0005573	10
	10	37	30046.88	3.536227	0.0057148	1	3.536232	0.0925947	2.040067E-005	0.0006142	10
	11	40	23859.38	3.545527	-0.1000148	1	3.546938	-1.615813	-1.536525E-005	0.0006649	10
	12	42	18984.38	3.555359	-0.2083332	1	3.561457	-3.353524	2.150521E-005	0.0006397	10
	13	44	15046.87	3.567427	-0.3271848	1	3.5824	-5.240193	-1.629605E-006	0.0006077	10
	14	46	11953.13	3.581547	-0.4590125	1	3.61084	-7.30324	-7.200213E-006	0.0006157	10
	15	49	9515.62	3.598329	-0.6102687	1	3.649712	-9.62565	5.879967E-006	0.0006262	10
	16	51	7546.875	3.619016	-0.7928599	1	3.704849	-12.35722	3.244211E-006	0.0006437	10
	17	53	5928.309	3.646455	-1.022678	1	3.78715	-15.66659	-1.093279E-005	0.0006492	10
	18	56	4733.456	3.677847	-1.283574	1	3.895398	-19.23907	-2.428872E-005	0.0007216	10
	19	58	3796.875	3.716148	-1.594037	1	4.043602	-23.21685	-1.69432E-005	0.0006974	10
	20	60	2987.132	3.767948	-2.008087	1	4.269642	-28.0549	-2.717757E-005	0.0006763	10
	21	63	2390.625	3.828653	-2.481982	1	4.562764	-32.95393	-9.685984E-006	0.0006959	10
	22	65	1884.191	3.910075	-3.10445	1	4.992624	-38.44822	-2.466916E-005	0.0007203	10
	23	67	1516.544	4.005183	-3.803696	1	5.523549	-43.52196	-2.506527E-005	0.0007213	10
	24	70	1193.986	4.135123	-4.751526	1	6.298908	-48.96784	-2.534447E-005	0.000682	10
	25	72	946.5144	4.295985	-5.893358	1	7.292953	-53.90969	1.830069E-005	0.0006344	10
	26	74	751.7689	4.502707	-7.287312	1	8.566171	-58.28878	5.212447E-006	0.0006553	10
	27	77	597.4265	4.762533	-9.004653	1	10.18653	-62.12577	-2.113057E-005	0.0006773	10
	28	79	477.4305	5.090323	-11.06231	1	12.17728	-65.29048	-2.068558E-006	0.0006625	10
	29	81	376.6741	5.534827	-13.74399	1	14.8166	-68.06492	-2.440077E-006	0.0006588	10
	30	84	298.2954	6.104555	-17.0046	1	18.06715	-70.25215	-6.469309E-006	0.0007186	10
	31	86	237.7717	6.826094	-20.89189	1	21.97878	-71.90602	-2.548858E-006	0.0006696	10
	32	88	189.0121	7.775065	-25.69693	1	26.84742	-73.16587	-2.7072E-006	0.0006702	10
	33	91	150.2404	9.008139	-31.56083	1	32.82122	-74.07011	-2.249645E-006	0.0006635	10
	34	93	119.1737	10.60947	-38.74877	1	40.17496	-74.68761	-1.750192E-006	0.0006698	10
	35	95	95.0169	12.58593	-47.19677	1	48.8461	-75.06844	1.498301E-006	6.465087E-005	9
	36	98	75.60484	15.09591	-57.52636	1	59.4741	-75.29613	1.400042E-006	6.35877E-005	9
	37	100	54.50582	19.7234	-76.09795	1	78.6124	-75.46957	1.28228E-006	6.53179E-005	9
	38	103	45.95588	22.68773	-87.9559	1	90.83487	-75.53616	1.609402E-006	7.369665E-005	9
	39	105	37.20238	26.96209	-105.1513	1	108.5529	-75.61848	1.444863E-006	7.030821E-005	9
	40	108	30.04808	31.94407	-125.8332	1	129.8246	-75.75578	1.407464E-006	6.212803E-005	9
	41	110	23.91582	38.29301	-152.5822	1	157.314	-75.91166	1.293178E-006	5.865024E-005	9
	42	112	18.60119	46.40085	-188.7206	1	194.3412	-76.18665	1.670722E-006	5.455659E-005	9
	43	115	15.02404	54.49323	-226.2567	1	232.7265	-76.4584	1.66747E-006	6.282455E-005	9
	44	117	12.01923	64.42094	-273.9396	1	281.4124	-76.7665	1.497171E-006	5.464741E-005	9
	45	119	9.450605	77.12655	-337.1955	1	345.9036	-77.11639	1.579968E-006	7.900931E-005	9
	46	122	7.512019	91.70947	-412.0083	1	422.0918	-77.45104	1.632064E-006	7.431528E-005	9
	47	125	5.978954	109.0108	-501.1203	1	512.84	-77.7274	9.37637E-007	0.0006431	8
	48	128	4.734848	131.6755	-615.715	1	629.6375	-77.92868	9.849907E-007	0.0006169	8
	49	131	3.75601	160.0054	-756.1837	1	772.9266	-78.05267	1.00259E-006	0.0006535	8
	50	134	3.004808	194.3415	-921.0145	1	941.295	-78.08492	9.971603E-007	0.0006225	8
	51	138	2.372217	242.7848	-1135.684	1	1161.345	-77.93304	9.386026E-007	0.0005769	8
	52	142	1.878005	302.0505	-1399.641	1	1431.863	-77.82201	1.011146E-006	0.0006374	8
	53	147	1.512097	371.7786	-1693.939	1	1734.257	-77.62123	9.495643E-007	0.0006875	8
	54	152	1.201923	476.5073	-2080.645	1	2134.512	-77.10062	1.000986E-006	0.0006454	8
	55	159	0.956633	611.7192	-2542.666	1	2615.215	-76.47275	9.244927E-007	3.546993E-006	8
