EXPLAIN
TAG	EISPOT
TITLE	LABEL	Potentiostatic EIS	Test Identifier
DATE	LABEL	9/13/2020	Date
TIME	LABEL	21:10:51	Time
NOTES	NOTES	1	Notes...
	
PSTAT	PSTAT	REF3000-16137	Potentiostat
VDC	POTEN	0.00000E+000	T	DC Voltage (V)
FREQINIT	QUANT	3.00000E+005	Initial Freq. (Hz)
FREQFINAL	QUANT	1.00000E+000	Final Freq. (Hz)
PTSPERDEC	QUANT	1.00000E+001	Points/decade
VAC	QUANT	5.00000E+001	AC Voltage (mV rms)
AREA	QUANT	1.00000E+000	Sample Area (cm^2)
SPEED	SELECTOR	2	Optimize for:
ZGUESS	QUANT	1.00000E+003	Estimated Z (ohms)
EOC	QUANT	0	Open Circuit (V)
SEQUENCER	TOGGLE	TRUE	Run as Sequence
PSTATMODEL	IQUANT	5	Pstat Model
PSTATSECTION	LABEL	REF3000-16137	Pstat Section
PSTATSERIALNO	LABEL	16137	Pstat Serial Number
CTRLMODE	IQUANT	1	Control Mode
IESTAB	IQUANT	0	I/E Stability
CASPEED	IQUANT	1	Control Amp Speed
CONVENTION	IQUANT	1	Current Convention
ICHRANGE	IQUANT	2	Ich Range
ICHRANGEMODE	TOGGLE	F	Ich Auto Range
ICHOFFSETENABLE	TOGGLE	T	Ich Offset Enable
ICHOFFSET	QUANT	0	Ich Offset (V)
ICHFILTER	IQUANT	3	Ich Filter
VCHRANGE	IQUANT	2	Vch Range
VCHRANGEMODE	TOGGLE	F	Vch Auto Range
VCHOFFSETENABLE	TOGGLE	T	Vch Offset Enable
VCHOFFSET	QUANT	0	Vch Offset (V)
VCHFILTER	IQUANT	3	Vch Filter
ACHRANGE	IQUANT	2	Ach Range
ACHOFFSETENABLE	TOGGLE	F	Ach Offset Enable
ACHOFFSET	QUANT	0	Ach Offset (V)
ACHFILTER	IQUANT	3	Ach Filter
IERANGELOWERLIMIT	IQUANT	2	I/E Range Lower Limit
IERANGEMODE	TOGGLE	F	I/E AutoRange
IERANGE	IQUANT	11	I/E Range
POSFEEDENABLE	TOGGLE	F	Positive Feedback IR Comp
POSFEEDRESISTANCE	QUANT	0	Positive Feedback Resistance (ohm)
ACHSELECT	IQUANT	0	Ach Select
CABLEID	IQUANT	13	Cable ID
DCCALDATE	LABEL	7/31/2020	DC Calibration Date
ACCALDATE	LABEL	7/31/2020	AC Calibration Date
THERMOSELECT	IQUANT	1	Thermo Select
FRAMEWORKVERSION	QUANT	6.33	Framework Version
INSTRUMENTVERSION	LABEL	3.50	Instrument Version
COMPLIANCEVOLTAGE	IQUANT	0	Compliance Voltage
ZCURVE	TABLE
	Pt	Time	Freq	Zreal	Zimag	Zsig	Zmod	Zphz	Idc	Vdc	IERange
	#	s	Hz	ohm	ohm	V	ohm	°	A	V	#
	0	10	300046.9	3.33528	2.276997	1	4.038416	34.32137	-0.0001018	-7.892024E-005	10
	1	13	238359.4	3.315351	1.801093	1	3.772995	28.5134	1.660562E-006	-0.0005149	10
	2	16	189328.1	3.292796	1.422648	1	3.586981	23.3667	-4.883363E-006	-0.0000976	10
	3	19	150421.9	3.28905	1.121525	1	3.475006	18.82874	-2.093962E-005	4.970718E-005	10
	4	21	119484.4	3.304505	0.7068793	1	3.379265	12.07438	-8.175962E-005	0.0003295	12
	5	25	94921.88	3.274054	0.6496186	1	3.337878	11.22254	-3.807744E-005	0.0005842	11
	6	27	75421.88	3.272398	0.4809801	1	3.307556	8.361518	1.452918E-005	0.0006059	11
	7	30	59859.37	3.273904	0.3396102	1	3.291471	5.922252	-5.03597E-005	0.0005847	11
	8	33	47578.12	3.278178	0.2170835	1	3.285358	3.788639	-4.257789E-005	0.0006233	11
	9	35	37828.12	3.282451	0.1061888	1	3.284168	1.852898	5.783774E-006	0.0006503	11
	10	38	30046.88	3.290485	0.0024313	1	3.290486	0.0423357	-3.474929E-005	0.000671	11
	11	40	23859.38	3.29723	-0.100778	1	3.29877	-1.750669	1.628601E-005	0.0006934	11
	12	42	18984.38	3.30698	-0.2062145	1	3.313403	-3.568193	1.792109E-005	0.0007085	11
	13	45	15046.87	3.31842	-0.3224823	1	3.334053	-5.550545	4.348757E-006	0.0007009	11
	14	47	11953.13	3.33145	-0.4523232	1	3.362017	-7.731977	-2.96993E-005	0.000659	11
	15	49	9515.62	3.347925	-0.601697	1	3.401564	-10.18857	1.388622E-005	0.0007121	11
	16	52	7546.875	3.367249	-0.7812234	1	3.456686	-13.0619	-3.310215E-005	0.0006535	11
	17	54	5928.309	3.394274	-1.007082	1	3.540524	-16.52564	-2.071956E-005	0.0006747	11
	18	56	4733.456	3.428082	-1.264156	1	3.653743	-20.24221	-2.341381E-005	0.0007285	10
	19	58	3796.875	3.465671	-1.569841	1	3.804639	-24.36904	-1.652369E-005	0.0006967	10
	20	61	2987.132	3.516524	-1.977153	1	4.034238	-29.34671	2.039123E-005	0.0006411	10
	21	63	2390.625	3.576499	-2.444213	1	4.33192	-34.34907	-2.75877E-005	0.0006572	10
	22	65	1884.191	3.657415	-3.05699	1	4.766746	-39.89001	4.769868E-006	0.0006604	10
	23	68	1516.544	3.752038	-3.744123	1	5.30059	-44.9395	-4.2888E-006	0.0006682	10
	24	70	1193.986	3.882555	-4.675364	1	6.077274	-50.2928	1.469436E-005	0.000654	10
	25	73	946.5144	4.049093	-5.792337	1	7.067271	-55.0448	1.313943E-005	0.0006299	10
	26	75	751.7689	4.254204	-7.168856	1	8.336111	-59.3139	3.522452E-006	0.0006236	10
	27	77	597.4265	4.515032	-8.851424	1	9.93646	-62.97428	-3.988962E-006	0.0006316	10
	28	79	477.4305	4.844329	-10.87613	1	11.9062	-65.99136	-4.141688E-007	0.0006653	10
	29	82	376.6741	5.295871	-13.50583	1	14.50702	-68.589	-9.56712E-007	0.000669	10
	30	84	298.2954	5.876843	-16.69905	1	17.70298	-70.61166	-1.636363E-006	0.0006673	10
	31	86	237.7717	6.612601	-20.49865	1	21.53883	-72.12097	-2.306687E-006	0.0006662	10
	32	89	189.0121	7.578903	-25.18546	1	26.30109	-73.25221	-2.076386E-006	0.000662	10
	33	91	150.2404	8.828819	-30.89017	1	32.1271	-74.04936	-2.08866E-006	0.0006639	10
	34	94	119.1737	10.44064	-37.86899	1	39.28189	-74.58625	-1.586526E-006	0.0006618	10
	35	96	95.0169	12.41146	-46.05287	1	47.69603	-74.91689	1.646455E-006	6.095151E-005	9
	36	100	75.60484	14.8897	-56.06812	1	58.01153	-75.12756	1.521356E-006	5.286867E-005	9
	37	103	54.50582	19.39766	-74.04504	1	76.5437	-75.32005	1.497692E-006	4.977176E-005	9
	38	106	45.95588	22.24377	-85.52821	1	88.37341	-75.42175	1.744467E-006	6.704836E-005	9
	39	108	37.20238	26.32473	-102.2043	1	105.5401	-75.55629	1.748355E-006	6.103075E-005	9
	40	110	30.04808	31.09517	-122.3085	1	126.1993	-75.73558	1.125651E-006	0.0001117	9
	41	113	23.91582	37.05276	-148.2979	1	152.8567	-75.97165	1.605495E-006	6.015018E-005	9
	42	115	18.60119	44.82595	-183.6458	1	189.0374	-76.28294	1.782045E-006	6.299387E-005	9
	43	117	15.02404	52.54259	-220.4021	1	226.5785	-76.59129	1.773319E-006	6.575415E-005	9
	44	120	12.01923	62.08345	-267.0804	1	274.2012	-76.91386	1.539356E-006	6.098838E-005	9
	45	122	9.450605	74.41322	-329.1744	1	337.4805	-77.26181	1.635589E-006	7.200719E-005	9
	46	125	7.512019	88.74966	-402.4837	1	412.1524	-77.56499	1.674028E-006	5.497308E-005	9
	47	127	5.978954	105.7469	-490.0014	1	501.2821	-77.8218	1.080104E-006	0.0006424	8
	48	130	4.734848	128.0188	-602.4327	1	615.8848	-78.00293	1.047772E-006	0.0006104	8
	49	134	3.75601	156.983	-739.7687	1	756.2416	-78.01925	1.086454E-006	0.000633	8
	50	138	3.004808	191.575	-901.0289	1	921.17	-77.99663	1.102635E-006	0.0006564	8
	51	142	2.372217	241.2426	-1111.855	1	1137.726	-77.75812	1.103743E-006	0.0007113	8
	52	146	1.878005	302.4472	-1368.916	1	1401.929	-77.54126	1.024653E-006	0.0006212	8
	53	151	1.512097	375.8188	-1655.875	1	1697.987	-77.21272	1.095782E-006	0.0005917	8
	54	156	1.201923	486.3017	-2033.301	1	2090.646	-76.54932	1.03755E-006	0.0006267	8
	55	162	0.956633	631.6588	-2482.98	1	2562.066	-75.72697	1.015085E-006	4.403587E-007	8
