EXPLAIN
TAG	EISPOT
TITLE	LABEL	Potentiostatic EIS	Test Identifier
DATE	LABEL	9/13/2020	Date
TIME	LABEL	22:37:01	Time
NOTES	NOTES	1	Notes...
	
PSTAT	PSTAT	REF3000-16137	Potentiostat
VDC	POTEN	0.00000E+000	T	DC Voltage (V)
FREQINIT	QUANT	3.00000E+005	Initial Freq. (Hz)
FREQFINAL	QUANT	1.00000E+000	Final Freq. (Hz)
PTSPERDEC	QUANT	1.00000E+001	Points/decade
VAC	QUANT	5.00000E+001	AC Voltage (mV rms)
AREA	QUANT	1.00000E+000	Sample Area (cm^2)
SPEED	SELECTOR	2	Optimize for:
ZGUESS	QUANT	1.00000E+003	Estimated Z (ohms)
EOC	QUANT	0	Open Circuit (V)
SEQUENCER	TOGGLE	TRUE	Run as Sequence
PSTATMODEL	IQUANT	5	Pstat Model
PSTATSECTION	LABEL	REF3000-16137	Pstat Section
PSTATSERIALNO	LABEL	16137	Pstat Serial Number
CTRLMODE	IQUANT	1	Control Mode
IESTAB	IQUANT	0	I/E Stability
CASPEED	IQUANT	1	Control Amp Speed
CONVENTION	IQUANT	1	Current Convention
ICHRANGE	IQUANT	2	Ich Range
ICHRANGEMODE	TOGGLE	F	Ich Auto Range
ICHOFFSETENABLE	TOGGLE	T	Ich Offset Enable
ICHOFFSET	QUANT	0	Ich Offset (V)
ICHFILTER	IQUANT	3	Ich Filter
VCHRANGE	IQUANT	2	Vch Range
VCHRANGEMODE	TOGGLE	F	Vch Auto Range
VCHOFFSETENABLE	TOGGLE	T	Vch Offset Enable
VCHOFFSET	QUANT	0	Vch Offset (V)
VCHFILTER	IQUANT	3	Vch Filter
ACHRANGE	IQUANT	2	Ach Range
ACHOFFSETENABLE	TOGGLE	F	Ach Offset Enable
ACHOFFSET	QUANT	0	Ach Offset (V)
ACHFILTER	IQUANT	3	Ach Filter
IERANGELOWERLIMIT	IQUANT	2	I/E Range Lower Limit
IERANGEMODE	TOGGLE	F	I/E AutoRange
IERANGE	IQUANT	11	I/E Range
POSFEEDENABLE	TOGGLE	F	Positive Feedback IR Comp
POSFEEDRESISTANCE	QUANT	0	Positive Feedback Resistance (ohm)
ACHSELECT	IQUANT	0	Ach Select
CABLEID	IQUANT	13	Cable ID
DCCALDATE	LABEL	7/31/2020	DC Calibration Date
ACCALDATE	LABEL	7/31/2020	AC Calibration Date
THERMOSELECT	IQUANT	1	Thermo Select
FRAMEWORKVERSION	QUANT	6.33	Framework Version
INSTRUMENTVERSION	LABEL	3.50	Instrument Version
COMPLIANCEVOLTAGE	IQUANT	0	Compliance Voltage
ZCURVE	TABLE
	Pt	Time	Freq	Zreal	Zimag	Zsig	Zmod	Zphz	Idc	Vdc	IERange
	#	s	Hz	ohm	ohm	V	ohm	°	A	V	#
	0	14	300046.9	394.875	-4180.52	1	4199.128	-84.60408	9.038634E-005	-0.0028021	9
	1	28	238359.4	580.6279	-5053.787	1	5087.032	-83.44604	2.608646E-005	0.0010432	9
	2	46	189328.1	806.2956	-6235.771	1	6287.683	-82.63244	8.280537E-005	-0.0033392	9
	3	54	150421.9	1147.145	-7827.675	1	7911.285	-81.66266	-2.147596E-005	0.0012658	9
	4	64	119484.4	2036.28	-9504.8	1	9720.48	-77.90791	-4.035156E-005	0.0223755	8
	5	71	94921.88	2604.982	-11948.17	1	12228.85	-77.70064	7.614234E-006	-0.00751	8
	6	80	75421.88	3581.921	-14654.74	1	15086.14	-76.26501	-1.958007E-005	0.0112888	8
	7	88	59859.37	4173.647	-18505.22	1	18970.04	-77.29023	-1.188605E-005	0.010157	8
	8	97	47578.12	9355.134	-22554.95	1	24418.12	-67.47276	-7.110168E-006	0.022901	7
	9	103	37828.12	9086.403	-26966.88	1	28456.55	-71.37892	-2.640517E-005	0.0076164	8
	10	112	30046.88	11954.82	-32732.3	1	34847.11	-69.93629	-1.970667E-006	0.007644	8
	11	122	23859.38	18467.18	-41288.14	1	45229.94	-65.90219	2.26774E-005	-0.0027869	8
	12	128	18984.38	25753.29	-45574.65	1	52347.69	-60.53011	7.386088E-006	-0.0236016	7
	13	134	15046.87	33990.93	-53106.45	1	63052.97	-57.37861	-5.515826E-006	0.0038327	7
	14	140	11953.13	44399.38	-59724.25	1	74419.7	-53.37265	-3.363107E-006	-0.0047165	7
	15	145	9515.62	58342.13	-68128.09	1	89695.26	-49.42459	-2.472343E-005	0.0110965	8
	16	153	7546.875	66995.83	-67135.81	1	94845.45	-45.0598	2.587437E-005	-0.0090012	8
	17	161	5928.309	70815.09	-69726.95	1	99381.2	-44.5564	2.724779E-005	-0.0074366	8
	18	169	4733.456	108195	-60062.68	1	123748.5	-29.03611	-2.056444E-005	0.0028915	8
	19	176	3796.875	122290.6	-78456.31	1	145294.2	-32.68245	-6.5946E-006	0.0118345	7
	20	183	2987.132	145362.9	-71959.49	1	162199.1	-26.33694	-6.632618E-006	0.0119841	7
	21	189	2390.625	179805.4	-87750.38	1	200075.2	-26.01376	-5.613268E-006	0.0044403	7
	22	196	1884.191	171781.1	-71556.55	1	186089	-22.61449	1.250446E-006	-0.01953	7
	23	201	1516.544	192397.2	-52660.83	1	199473.9	-15.30746	4.227929E-007	0.0018415	6
	24	205	1193.986	203985.4	-47319.37	1	209401.9	-13.06016	3.860996E-007	-0.0246085	6
	25	210	946.5144	212484	-42635.54	1	216719.3	-11.3459	7.438257E-007	-0.0217507	6
	26	212	751.7689	216935	-35830.76	1	219874.1	-9.378766	-7.257749E-009	0.0175072	6
	27	215	597.4265	226248.6	-35213.21	1	228972.5	-8.846509	2.217822E-007	0.0095719	6
	28	219	477.4305	231716.4	-26029.07	1	233173.7	-6.409258	-1.11036E-008	0.0006554	6
	29	221	376.6741	236630.9	-21878.97	1	237640.2	-5.282567	-1.10106E-008	0.0007021	6
	30	223	298.2954	242743.1	-18171.36	1	243422.3	-4.281086	-9.696573E-009	0.00061	6
	31	226	237.7717	247146.8	-15897.94	1	247657.6	-3.680531	-1.081503E-008	0.0007031	6
	32	229	189.0121	251273.6	-13241.39	1	251622.3	-3.01653	-9.962752E-009	0.0006111	6
	33	231	150.2404	256127	-11436.93	1	256382.2	-2.556751	-1.014946E-008	0.000607	6
	34	234	119.1737	257564.5	-8761.498	1	257713.5	-1.948263	-1.042452E-008	0.0006946	6
	35	237	95.0169	265041.9	-8058.211	1	265164.4	-1.741458	-1.101149E-008	0.0007012	6
	36	239	75.60484	268674.4	-7084.9	1	268767.8	-1.51053	-1.093174E-008	0.0006962	6
	37	242	54.50582	274965.3	-6137.065	1	275033.8	-1.278596	-1.014611E-008	0.0006083	6
	38	244	45.95588	277364.7	-4908.444	1	277408.1	-1.013841	-1.037708E-008	0.0006835	6
	39	246	37.20238	282090.5	-3844.927	1	282116.7	-0.7808999	-1.083392E-008	0.0006306	6
	40	249	30.04808	286462	-3924.717	1	286488.9	-0.7849405	-1.029172E-008	0.0006066	6
	41	252	23.91582	291285.9	-3435.935	1	291306.1	-0.6758153	-1.073081E-008	0.0006949	6
	42	254	18.60119	295212.7	-3479.378	1	295233.2	-0.6752569	-1.14474E-008	0.0006768	6
	43	257	15.02404	300064.2	-3057.92	1	300079.8	-0.5838746	-1.182746E-008	0.0007401	6
	44	259	12.01923	304949.6	-2935.517	1	304963.7	-0.5515257	-1.17436E-008	0.0006969	6
	45	262	9.450605	309573.3	-3022.116	1	309588.1	-0.5593151	-1.08793E-008	0.0006459	6
	46	264	7.512019	315189.6	-3128.08	1	315205.1	-0.5686098	-1.000042E-008	0.0006425	6
	47	267	5.978954	322381.5	-3392.31	1	322399.4	-0.6028816	-9.768754E-009	0.0006057	6
	48	271	4.734848	330210.3	-3905.526	1	330233.4	-0.677628	-9.601572E-009	0.0006396	6
	49	275	3.75601	339309.8	-4329.538	1	339337.4	-0.7310452	-1.120059E-008	0.0006925	6
	50	280	3.004808	352082.8	-4933.362	1	352117.4	-0.8027723	-1.200743E-008	0.0006972	6
	51	287	2.372217	363880.2	-5659.694	1	363924.2	-0.8910913	-1.107154E-008	0.0007207	6
	52	291	1.878005	374473.8	-7018.95	1	374539.6	-1.073798	-1.279275E-008	0.0006359	6
	53	295	1.512097	387547.5	-8005.635	1	387630.2	-1.1834	-3.835404E-009	0.0006536	5
	54	301	1.201923	401938.4	-9992.8	1	402062.6	-1.424167	-2.95651E-009	0.0006202	5
	55	307	0.956633	418917.5	-12166.36	1	419094.1	-1.663538	-4.639967E-009	5.935682E-006	5
