EXPLAIN
TAG	EISPOT
TITLE	LABEL	Potentiostatic EIS	Test Identifier
DATE	LABEL	9/13/2020	Date
TIME	LABEL	20:50:57	Time
NOTES	NOTES	1	Notes...
	
PSTAT	PSTAT	REF3000-16137	Potentiostat
VDC	POTEN	0.00000E+000	T	DC Voltage (V)
FREQINIT	QUANT	3.00000E+005	Initial Freq. (Hz)
FREQFINAL	QUANT	1.00000E+000	Final Freq. (Hz)
PTSPERDEC	QUANT	1.00000E+001	Points/decade
VAC	QUANT	5.00000E+001	AC Voltage (mV rms)
AREA	QUANT	1.00000E+000	Sample Area (cm^2)
SPEED	SELECTOR	2	Optimize for:
ZGUESS	QUANT	1.00000E+003	Estimated Z (ohms)
EOC	QUANT	0	Open Circuit (V)
SEQUENCER	TOGGLE	TRUE	Run as Sequence
PSTATMODEL	IQUANT	5	Pstat Model
PSTATSECTION	LABEL	REF3000-16137	Pstat Section
PSTATSERIALNO	LABEL	16137	Pstat Serial Number
CTRLMODE	IQUANT	1	Control Mode
IESTAB	IQUANT	0	I/E Stability
CASPEED	IQUANT	1	Control Amp Speed
CONVENTION	IQUANT	1	Current Convention
ICHRANGE	IQUANT	2	Ich Range
ICHRANGEMODE	TOGGLE	F	Ich Auto Range
ICHOFFSETENABLE	TOGGLE	T	Ich Offset Enable
ICHOFFSET	QUANT	0	Ich Offset (V)
ICHFILTER	IQUANT	3	Ich Filter
VCHRANGE	IQUANT	2	Vch Range
VCHRANGEMODE	TOGGLE	F	Vch Auto Range
VCHOFFSETENABLE	TOGGLE	T	Vch Offset Enable
VCHOFFSET	QUANT	0	Vch Offset (V)
VCHFILTER	IQUANT	3	Vch Filter
ACHRANGE	IQUANT	2	Ach Range
ACHOFFSETENABLE	TOGGLE	F	Ach Offset Enable
ACHOFFSET	QUANT	0	Ach Offset (V)
ACHFILTER	IQUANT	3	Ach Filter
IERANGELOWERLIMIT	IQUANT	2	I/E Range Lower Limit
IERANGEMODE	TOGGLE	F	I/E AutoRange
IERANGE	IQUANT	11	I/E Range
POSFEEDENABLE	TOGGLE	F	Positive Feedback IR Comp
POSFEEDRESISTANCE	QUANT	0	Positive Feedback Resistance (ohm)
ACHSELECT	IQUANT	0	Ach Select
CABLEID	IQUANT	13	Cable ID
DCCALDATE	LABEL	7/31/2020	DC Calibration Date
ACCALDATE	LABEL	7/31/2020	AC Calibration Date
THERMOSELECT	IQUANT	1	Thermo Select
FRAMEWORKVERSION	QUANT	6.33	Framework Version
INSTRUMENTVERSION	LABEL	3.50	Instrument Version
COMPLIANCEVOLTAGE	IQUANT	0	Compliance Voltage
ZCURVE	TABLE
	Pt	Time	Freq	Zreal	Zimag	Zsig	Zmod	Zphz	Idc	Vdc	IERange
	#	s	Hz	ohm	ohm	V	ohm	°	A	V	#
	0	10	300046.9	2.408843	2.24996	1	3.296186	43.04676	-5.974789E-005	-0.0002654	11
	1	13	238359.4	2.363474	1.778815	1	2.958072	36.96611	6.766028E-005	-8.85719E-005	11
	2	16	189328.1	2.332524	1.413471	1	2.727374	31.21517	-4.190817E-005	3.685084E-005	11
	3	19	150421.9	2.367877	0.974404	1	2.560528	22.36764	-1.002892E-006	0.0003014	12
	4	22	119484.4	2.337799	0.7633725	1	2.459277	18.08366	-8.453566E-005	0.000217	12
	5	26	94921.88	2.318382	0.5817744	1	2.390263	14.08692	-5.686989E-005	0.0004896	12
	6	29	75421.88	2.308676	0.4323968	1	2.348819	10.60815	-7.120486E-005	0.0004998	12
	7	33	59859.37	2.296922	0.3537782	1	2.324008	8.756044	1.242696E-005	0.0005936	11
	8	36	47578.12	2.299217	0.2333554	1	2.311029	5.7953	-1.459421E-005	0.0006129	11
	9	38	37828.12	2.300908	0.1251494	1	2.304309	3.113325	-4.303754E-005	0.000601	11
	10	41	30046.88	2.305366	0.0241569	1	2.305493	0.6003537	1.06301E-005	0.0006642	11
	11	43	23859.38	2.310528	-0.0744369	1	2.311727	-1.845226	-4.922065E-005	0.0006281	11
	12	45	18984.38	2.318206	-0.1746281	1	2.324774	-4.307896	-1.958241E-005	0.0006791	11
	13	48	15046.87	2.327116	-0.283933	1	2.344373	-6.956315	-2.933158E-005	0.0006829	11
	14	50	11953.13	2.337748	-0.4048112	1	2.372538	-9.82408	-4.251802E-005	0.0006555	11
	15	52	9515.62	2.352298	-0.5425774	1	2.414062	-12.98859	6.998489E-006	0.0006824	11
	16	55	7546.875	2.370322	-0.7075348	1	2.473667	-16.62023	8.110081E-006	0.0006828	11
	17	57	5928.309	2.39449	-0.9147439	1	2.563268	-20.90787	-1.982971E-005	0.0006767	11
	18	59	4733.456	2.422976	-1.148808	1	2.681524	-25.36708	-2.506154E-006	0.0006788	11
	19	62	3796.875	2.458481	-1.426276	1	2.842251	-30.11995	-4.71628E-005	0.0006625	11
	20	64	2987.132	2.508006	-1.794956	1	3.084146	-35.59093	1.826793E-005	0.0007011	11
	21	66	2390.625	2.566423	-2.216214	1	3.39089	-40.812	-1.235997E-006	0.0006774	11
	22	68	1884.191	2.647247	-2.768395	1	3.830395	-46.28149	-3.645272E-005	0.0006731	11
	23	71	1516.544	2.743481	-3.387852	1	4.359384	-50.99946	4.601538E-008	0.0006356	10
	24	73	1193.986	2.875163	-4.224021	1	5.109688	-55.75807	-7.386682E-006	0.000651	10
	25	76	946.5144	3.039278	-5.229823	1	6.048822	-59.83727	1.869527E-005	0.0006678	10
	26	78	751.7689	3.253385	-6.452311	1	7.226121	-63.24184	-2.319667E-005	0.0006648	10
	27	80	597.4265	3.528622	-7.951172	1	8.698983	-66.069	-2.183979E-005	0.0006707	10
	28	83	477.4305	3.882446	-9.73391	1	10.47962	-68.25503	3.540044E-007	0.0006631	10
	29	85	376.6741	4.365865	-12.03453	1	12.80198	-70.06033	7.558647E-007	0.0006575	10
	30	87	298.2954	4.982849	-14.79794	1	15.61435	-71.3903	5.518401E-007	0.0006622	10
	31	89	237.7717	5.747423	-18.04698	1	18.94007	-72.33488	2.679278E-007	0.0006601	10
	32	92	189.0121	6.71889	-22.01467	1	23.01715	-73.02778	6.011379E-007	0.0006625	10
	33	94	150.2404	7.916202	-26.79178	1	27.93682	-73.5391	7.415507E-008	0.000662	10
	34	97	119.1737	9.386728	-32.61846	1	33.94223	-73.94559	2.96138E-007	0.0006619	10
	35	99	95.0169	11.1033	-39.48636	1	41.01775	-74.29436	1.294472E-007	0.000659	10
	36	102	75.60484	13.13858	-47.80933	1	49.5818	-74.63377	3.069354E-006	6.032201E-005	9
	37	104	54.50582	16.73026	-63.00014	1	65.18374	-75.12785	2.964075E-006	5.515187E-005	9
	38	107	45.95588	18.97461	-72.80482	1	75.23681	-75.39236	3.519481E-006	6.375937E-005	9
	39	109	37.20238	22.16578	-87.11906	1	89.89467	-75.72507	3.203119E-006	6.88338E-005	9
	40	111	30.04808	25.9821	-104.6286	1	107.8064	-76.05402	3.143521E-006	6.320237E-005	9
	41	114	23.91582	30.73799	-127.2377	1	130.8979	-76.41874	3.142246E-006	5.730647E-005	9
	42	116	18.60119	37.25492	-158.2794	1	162.6048	-76.75513	3.173335E-006	7.002513E-005	9
	43	118	15.02404	44.03308	-190.6964	1	195.7141	-76.9979	3.359389E-006	7.492045E-005	9
	44	121	12.01923	52.89399	-232.0228	1	237.9756	-77.15781	3.322543E-006	6.894446E-005	9
	45	123	9.450605	65.01815	-286.8308	1	294.1075	-77.22816	3.281529E-006	0.000107	9
	46	126	7.512019	79.95354	-351.5699	1	360.5468	-77.18778	3.403973E-006	5.93482E-005	9
	47	128	5.978954	99.106	-428.1074	1	439.4291	-76.96574	2.789621E-006	0.0006321	8
	48	131	4.734848	125.71	-526.072	1	540.8833	-76.56064	2.766738E-006	0.0006693	8
	49	135	3.75601	161.1653	-644.833	1	664.6683	-75.96735	2.656972E-006	0.0006243	8
	50	138	3.004808	207.4207	-782.9386	1	809.9482	-75.16174	2.701777E-006	0.0006496	8
	51	142	2.372217	276.9357	-958.992	1	998.178	-73.89246	2.689117E-006	0.0006861	8
	52	146	1.878005	371.0468	-1169.766	1	1227.204	-72.40111	2.585841E-006	0.000628	8
	53	151	1.512097	488.176	-1395.62	1	1478.536	-70.72059	2.659164E-006	0.0005646	8
	54	156	1.201923	663.7465	-1671.193	1	1798.179	-68.33855	2.602171E-006	0.0006282	8
	55	162	0.956633	893.9843	-1972.994	1	2166.083	-65.62423	2.527226E-006	1.276685E-006	8
