EXPLAIN
TAG	EISPOT
TITLE	LABEL	Potentiostatic EIS	Test Identifier
DATE	LABEL	9/13/2020	Date
TIME	LABEL	21:58:15	Time
NOTES	NOTES	1	Notes...
	
PSTAT	PSTAT	REF3000-16137	Potentiostat
VDC	POTEN	0.00000E+000	T	DC Voltage (V)
FREQINIT	QUANT	3.00000E+005	Initial Freq. (Hz)
FREQFINAL	QUANT	1.00000E+000	Final Freq. (Hz)
PTSPERDEC	QUANT	1.00000E+001	Points/decade
VAC	QUANT	5.00000E+001	AC Voltage (mV rms)
AREA	QUANT	1.00000E+000	Sample Area (cm^2)
SPEED	SELECTOR	2	Optimize for:
ZGUESS	QUANT	1.00000E+003	Estimated Z (ohms)
EOC	QUANT	0	Open Circuit (V)
SEQUENCER	TOGGLE	TRUE	Run as Sequence
PSTATMODEL	IQUANT	5	Pstat Model
PSTATSECTION	LABEL	REF3000-16137	Pstat Section
PSTATSERIALNO	LABEL	16137	Pstat Serial Number
CTRLMODE	IQUANT	1	Control Mode
IESTAB	IQUANT	0	I/E Stability
CASPEED	IQUANT	1	Control Amp Speed
CONVENTION	IQUANT	1	Current Convention
ICHRANGE	IQUANT	2	Ich Range
ICHRANGEMODE	TOGGLE	F	Ich Auto Range
ICHOFFSETENABLE	TOGGLE	T	Ich Offset Enable
ICHOFFSET	QUANT	0	Ich Offset (V)
ICHFILTER	IQUANT	3	Ich Filter
VCHRANGE	IQUANT	2	Vch Range
VCHRANGEMODE	TOGGLE	F	Vch Auto Range
VCHOFFSETENABLE	TOGGLE	T	Vch Offset Enable
VCHOFFSET	QUANT	0	Vch Offset (V)
VCHFILTER	IQUANT	3	Vch Filter
ACHRANGE	IQUANT	2	Ach Range
ACHOFFSETENABLE	TOGGLE	F	Ach Offset Enable
ACHOFFSET	QUANT	0	Ach Offset (V)
ACHFILTER	IQUANT	3	Ach Filter
IERANGELOWERLIMIT	IQUANT	2	I/E Range Lower Limit
IERANGEMODE	TOGGLE	F	I/E AutoRange
IERANGE	IQUANT	11	I/E Range
POSFEEDENABLE	TOGGLE	F	Positive Feedback IR Comp
POSFEEDRESISTANCE	QUANT	0	Positive Feedback Resistance (ohm)
ACHSELECT	IQUANT	0	Ach Select
CABLEID	IQUANT	13	Cable ID
DCCALDATE	LABEL	7/31/2020	DC Calibration Date
ACCALDATE	LABEL	7/31/2020	AC Calibration Date
THERMOSELECT	IQUANT	1	Thermo Select
FRAMEWORKVERSION	QUANT	6.33	Framework Version
INSTRUMENTVERSION	LABEL	3.50	Instrument Version
COMPLIANCEVOLTAGE	IQUANT	0	Compliance Voltage
ZCURVE	TABLE
	Pt	Time	Freq	Zreal	Zimag	Zsig	Zmod	Zphz	Idc	Vdc	IERange
	#	s	Hz	ohm	ohm	V	ohm	°	A	V	#
	0	7	300046.9	45.12941	2.332508	1	45.18964	2.958693	5.523352E-005	-0.0024823	9
	1	10	238359.4	45.4651	1.766183	1	45.49939	2.224652	-5.85262E-005	0.0011068	9
	2	14	189328.1	45.7947	1.385141	1	45.81564	1.732484	1.444149E-005	-0.0011	9
	3	17	150421.9	46.04237	1.040568	1	46.05412	1.294678	-4.162815E-006	0.0004814	9
	4	20	119484.4	46.21475	0.7833812	1	46.22139	0.971122	1.002265E-005	-0.0008997	9
	5	22	94921.88	46.47227	0.7547917	1	46.4784	0.9305028	-1.236422E-005	0.0002788	9
	6	25	75421.88	46.66148	0.5354674	1	46.66455	0.6574734	-1.412682E-005	0.000543	9
	7	27	59859.37	46.85575	0.360479	1	46.85714	0.4407894	1.741457E-005	-0.0005664	9
	8	30	47578.12	47.07427	0.1849767	1	47.07463	0.2251406	-1.247026E-005	0.0006272	9
	9	32	37828.12	47.28445	0.0347844	1	47.28446	0.0421492	-1.569606E-005	0.0003755	9
	10	35	30046.88	47.5095	-0.1099833	1	47.50962	-0.132638	4.306772E-006	-0.000358	9
	11	37	23859.38	47.72993	-0.2351253	1	47.73051	-0.282246	-3.436309E-006	0.0004565	9
	12	39	18984.38	47.94053	-0.3740242	1	47.94199	-0.4470032	-1.570593E-005	0.0005447	9
	13	42	15046.87	48.15696	-0.5275736	1	48.15985	-0.627667	1.967525E-005	-0.0003529	9
	14	44	11953.13	48.3729	-0.7010309	1	48.37798	-0.8302851	1.447333E-005	-0.0005167	9
	15	46	9515.62	48.5792	-0.8923379	1	48.58739	-1.052332	1.517242E-005	-0.0005633	9
	16	49	7546.875	48.7995	-1.161395	1	48.81332	-1.363343	1.940996E-005	-0.000478	9
	17	51	5928.309	49.04455	-1.452614	1	49.06606	-1.696504	-9.430268E-006	0.0006386	9
	18	53	4733.456	49.29445	-1.803313	1	49.32743	-2.095088	9.466868E-006	-0.0004461	9
	19	56	3796.875	49.5273	-2.240798	1	49.57796	-2.590506	1.550036E-005	-0.0001582	9
	20	58	2987.132	49.80086	-2.815024	1	49.88036	-3.235236	-1.558477E-005	0.0006051	9
	21	60	2390.625	50.06713	-3.473113	1	50.18745	-3.968201	2.042223E-005	-0.0003755	9
	22	63	1884.191	50.36516	-4.351642	1	50.5528	-4.938197	1.985899E-005	-0.0003652	9
	23	65	1516.544	50.6698	-5.338702	1	50.95027	-6.014641	1.030391E-005	8.234076E-005	9
	24	67	1193.986	51.02212	-6.660115	1	51.45497	-7.436991	1.604428E-005	-0.0001156	9
	25	70	946.5144	51.40017	-8.30131	1	52.0662	-9.174253	-1.262883E-005	0.0001948	9
	26	72	751.7689	51.84362	-10.29249	1	52.85543	-11.2289	1.016698E-005	0.0001012	9
	27	74	597.4265	52.33173	-12.79085	1	53.87222	-13.73488	2.758991E-006	0.0003272	9
	28	77	477.4305	52.86031	-15.74499	1	55.15539	-16.58671	1.344751E-006	6.985133E-005	9
	29	79	376.6741	53.52238	-19.65407	1	57.0169	-20.16385	1.272447E-006	6.279405E-005	9
	30	81	298.2954	54.30063	-24.43863	1	59.54666	-24.23068	1.308296E-006	6.801086E-005	9
	31	83	237.7717	55.22061	-30.19318	1	62.93604	-28.66868	1.346089E-006	6.813926E-005	9
	32	86	189.0121	56.34205	-37.37925	1	67.61387	-33.56166	1.279446E-006	6.667541E-005	9
	33	88	150.2404	57.71241	-46.2556	1	73.96149	-38.71164	1.331233E-006	6.303918E-005	9
	34	91	119.1737	59.40536	-57.31957	1	82.55016	-43.97628	1.370943E-006	6.634348E-005	9
	35	93	95.0169	61.45947	-70.65401	1	93.6443	-48.98113	1.322763E-006	7.037094E-005	9
	36	96	75.60484	64.03013	-87.21061	1	108.1922	-53.71384	1.336377E-006	6.447031E-005	9
	37	98	54.50582	68.70957	-117.7672	1	136.3456	-59.73919	1.246344E-006	6.609919E-005	9
	38	101	45.95588	71.91631	-137.7275	1	155.3732	-62.42807	1.391763E-006	6.617344E-005	9
	39	103	37.20238	76.59155	-167.1048	1	183.8213	-65.37592	1.320264E-006	7.137285E-005	9
	40	105	30.04808	82.45042	-203.1459	1	219.2403	-67.90934	1.321533E-006	7.216735E-005	9
	41	108	23.91582	90.20654	-250.2006	1	265.9654	-70.1739	1.232088E-006	6.561903E-005	9
	42	110	18.60119	101.0525	-314.6236	1	330.4537	-72.19373	1.448513E-006	6.393144E-005	9
	43	112	15.02404	112.858	-382.0694	1	398.3892	-73.54359	1.177454E-006	6.201734E-005	9
	44	115	12.01923	128.1428	-465.7848	1	483.0901	-74.61781	4.366274E-007	0.0006488	8
	45	117	9.450605	149.9756	-578.8232	1	597.9373	-75.47386	4.490454E-007	0.0006442	8
	46	120	7.512019	176.7289	-711.5005	1	733.1208	-76.05066	3.62129E-007	0.0006538	8
	47	122	5.978954	211.1419	-871.5079	1	896.7201	-76.38125	3.108691E-007	0.0006444	8
	48	125	4.734848	256.4826	-1071.585	1	1101.852	-76.53954	3.766845E-007	0.000629	8
	49	129	3.75601	312.6293	-1312.147	1	1348.876	-76.59869	3.981431E-007	0.0006505	8
	50	132	3.004808	379.5859	-1591.1	1	1635.752	-76.58186	4.048742E-007	0.0006229	8
	51	136	2.372217	469.9978	-1949.646	1	2005.497	-76.4464	3.66931E-007	0.0005766	8
	52	140	1.878005	573.8581	-2383.907	1	2452.005	-76.46518	4.085913E-007	0.0006392	8
	53	145	1.512097	687.517	-2862.675	1	2944.077	-76.49528	3.737907E-007	0.0006756	8
	54	150	1.201923	839.962	-3489.423	1	3589.096	-76.46545	4.01631E-007	0.0006555	8
	55	156	0.956633	1017.391	-4245.029	1	4365.244	-76.52235	2.356713E-008	-2.730098E-005	7
