EXPLAIN
TAG	EISPOT
TITLE	LABEL	Potentiostatic EIS	Test Identifier
DATE	LABEL	9/13/2020	Date
TIME	LABEL	21:41:39	Time
NOTES	NOTES	1	Notes...
	
PSTAT	PSTAT	REF3000-16137	Potentiostat
VDC	POTEN	0.00000E+000	T	DC Voltage (V)
FREQINIT	QUANT	3.00000E+005	Initial Freq. (Hz)
FREQFINAL	QUANT	1.00000E+000	Final Freq. (Hz)
PTSPERDEC	QUANT	1.00000E+001	Points/decade
VAC	QUANT	5.00000E+001	AC Voltage (mV rms)
AREA	QUANT	1.00000E+000	Sample Area (cm^2)
SPEED	SELECTOR	2	Optimize for:
ZGUESS	QUANT	1.00000E+003	Estimated Z (ohms)
EOC	QUANT	0	Open Circuit (V)
SEQUENCER	TOGGLE	TRUE	Run as Sequence
PSTATMODEL	IQUANT	5	Pstat Model
PSTATSECTION	LABEL	REF3000-16137	Pstat Section
PSTATSERIALNO	LABEL	16137	Pstat Serial Number
CTRLMODE	IQUANT	1	Control Mode
IESTAB	IQUANT	0	I/E Stability
CASPEED	IQUANT	1	Control Amp Speed
CONVENTION	IQUANT	1	Current Convention
ICHRANGE	IQUANT	2	Ich Range
ICHRANGEMODE	TOGGLE	F	Ich Auto Range
ICHOFFSETENABLE	TOGGLE	T	Ich Offset Enable
ICHOFFSET	QUANT	0	Ich Offset (V)
ICHFILTER	IQUANT	3	Ich Filter
VCHRANGE	IQUANT	2	Vch Range
VCHRANGEMODE	TOGGLE	F	Vch Auto Range
VCHOFFSETENABLE	TOGGLE	T	Vch Offset Enable
VCHOFFSET	QUANT	0	Vch Offset (V)
VCHFILTER	IQUANT	3	Vch Filter
ACHRANGE	IQUANT	2	Ach Range
ACHOFFSETENABLE	TOGGLE	F	Ach Offset Enable
ACHOFFSET	QUANT	0	Ach Offset (V)
ACHFILTER	IQUANT	3	Ach Filter
IERANGELOWERLIMIT	IQUANT	2	I/E Range Lower Limit
IERANGEMODE	TOGGLE	F	I/E AutoRange
IERANGE	IQUANT	11	I/E Range
POSFEEDENABLE	TOGGLE	F	Positive Feedback IR Comp
POSFEEDRESISTANCE	QUANT	0	Positive Feedback Resistance (ohm)
ACHSELECT	IQUANT	0	Ach Select
CABLEID	IQUANT	13	Cable ID
DCCALDATE	LABEL	7/31/2020	DC Calibration Date
ACCALDATE	LABEL	7/31/2020	AC Calibration Date
THERMOSELECT	IQUANT	1	Thermo Select
FRAMEWORKVERSION	QUANT	6.33	Framework Version
INSTRUMENTVERSION	LABEL	3.50	Instrument Version
COMPLIANCEVOLTAGE	IQUANT	0	Compliance Voltage
ZCURVE	TABLE
	Pt	Time	Freq	Zreal	Zimag	Zsig	Zmod	Zphz	Idc	Vdc	IERange
	#	s	Hz	ohm	ohm	V	ohm	°	A	V	#
	0	8	300046.9	11.51036	2.175957	1	11.71423	10.70506	-0.0001036	0.0001226	10
	1	11	238359.4	11.52402	1.708702	1	11.65001	8.433972	1.650686E-005	0.0001651	10
	2	14	189328.1	11.54299	1.350015	1	11.62167	6.670748	2.118039E-005	0.000347	10
	3	17	150421.9	11.56664	1.065384	1	11.6156	5.262573	3.378472E-005	0.0006823	10
	4	19	119484.4	11.58669	0.8137197	1	11.61523	4.01722	2.584306E-006	0.0006542	10
	5	22	94921.88	11.61438	0.6375601	1	11.63187	3.142042	-9.385303E-007	0.0005593	10
	6	24	75421.88	11.64235	0.4588246	1	11.65139	2.256857	-2.736447E-005	0.0006466	10
	7	27	59859.37	11.67476	0.3046433	1	11.67873	1.494748	2.130887E-005	0.0005786	10
	8	29	47578.12	11.7107	0.1744946	1	11.712	0.8536693	1.737794E-005	0.0005796	10
	9	32	37828.12	11.74801	0.0584441	1	11.74816	0.285033	-1.126933E-005	0.0006359	10
	10	34	30046.88	11.7864	-0.0540097	1	11.78653	-0.2625488	-1.145408E-005	0.0007072	10
	11	37	23859.38	11.8229	-0.1686531	1	11.8241	-0.8172663	1.87091E-005	0.0006081	10
	12	39	18984.38	11.86184	-0.2857709	1	11.86528	-1.380082	-2.475768E-005	0.0007436	10
	13	42	15046.87	11.90201	-0.4200748	1	11.90942	-2.021384	-2.395697E-005	0.0006885	10
	14	44	11953.13	11.94332	-0.5719407	1	11.95701	-2.741681	2.361184E-005	0.0006128	10
	15	46	9515.62	11.9894	-0.7486923	1	12.01275	-3.573263	-2.466004E-005	0.0006632	10
	16	49	7546.875	12.04168	-0.960881	1	12.07995	-4.562325	-2.541542E-005	0.0007081	10
	17	51	5928.309	12.0964	-1.232941	1	12.15907	-5.819849	-2.836833E-005	0.0006889	10
	18	53	4733.456	12.15744	-1.542701	1	12.25493	-7.231816	-1.391871E-005	0.0006949	10
	19	55	3796.875	12.22391	-1.911263	1	12.37243	-8.886504	2.226974E-005	0.0006216	10
	20	58	2987.132	12.30659	-2.407607	1	12.53988	-11.06929	-2.593883E-005	0.0007312	10
	21	60	2390.625	12.39631	-2.978617	1	12.74915	-13.51104	1.142767E-005	0.0006101	10
	22	62	1884.191	12.50912	-3.729525	1	13.05326	-16.60165	-1.687474E-005	0.000661	10
	23	65	1516.544	12.63322	-4.576818	1	13.43672	-19.91466	1.207213E-005	0.0006077	10
	24	67	1193.986	12.79757	-5.728888	1	14.02134	-24.11588	-1.202851E-005	0.0006454	10
	25	69	946.5144	12.99125	-7.12237	1	14.81555	-28.73348	2.38962E-005	0.0006607	10
	26	72	751.7689	13.22896	-8.824594	1	15.90216	-33.70592	-1.14339E-005	0.0006512	10
	27	74	597.4265	13.52099	-10.9338	1	17.38865	-38.96088	-2.745039E-005	0.0006999	10
	28	76	477.4305	13.87691	-13.46094	1	19.33302	-44.12825	-2.59289E-006	0.0006664	10
	29	79	376.6741	14.34728	-16.76485	1	22.06591	-49.44325	-2.325605E-006	0.0006608	10
	30	81	298.2954	14.92903	-20.79698	1	25.60059	-54.32748	-2.565172E-006	0.0006637	10
	31	83	237.7717	15.64178	-25.63253	1	30.02818	-58.60715	-1.953957E-006	0.000667	10
	32	86	189.0121	16.54112	-31.65713	1	35.7181	-62.41254	-2.204342E-006	0.000669	10
	33	88	150.2404	17.65029	-39.03627	1	42.84114	-65.66985	1.269323E-006	6.884661E-005	9
	34	91	119.1737	19.08703	-48.27348	1	51.90995	-68.42647	1.283839E-006	7.158726E-005	9
	35	93	95.0169	20.868	-59.39724	1	62.95638	-70.64212	1.283982E-006	6.642033E-005	9
	36	95	75.60484	23.16286	-73.19492	1	76.77248	-72.43979	1.229275E-006	6.818921E-005	9
	37	98	54.50582	27.61661	-98.5904	1	102.3853	-74.35166	1.174767E-006	5.694919E-005	9
	38	101	45.95588	30.69973	-115.1052	1	119.1288	-75.06625	1.447462E-006	6.530595E-005	9
	39	103	37.20238	35.40656	-139.2524	1	143.6832	-75.73418	1.268999E-006	7.05229E-005	9
	40	105	30.04808	41.44417	-168.6302	1	173.6484	-76.19212	1.282996E-006	6.38011E-005	9
	41	108	23.91582	49.68196	-206.5184	1	212.4103	-76.47343	1.16475E-006	5.81346E-005	9
	42	110	18.60119	61.28065	-257.562	1	264.7518	-76.61669	1.410979E-006	6.299367E-005	9
	43	112	15.02404	73.76685	-310.327	1	318.9739	-76.62856	1.213467E-006	5.990794E-005	9
	44	115	12.01923	89.66025	-376.1754	1	386.713	-76.59386	1.240209E-006	6.083251E-005	9
	45	117	9.450605	110.2062	-460.066	1	473.0815	-76.52896	6.742023E-007	0.0006468	8
	46	119	7.512019	133.9937	-559.2806	1	575.1079	-76.5269	6.696752E-007	0.0006601	8
	47	122	5.978954	162.615	-678.6713	1	697.8813	-76.52551	5.945963E-007	0.0006472	8
	48	125	4.734848	196.9826	-827.7658	1	850.8809	-76.61435	6.367617E-007	0.0007068	8
	49	128	3.75601	237.599	-1007.408	1	1035.048	-76.72921	6.173127E-007	0.0006495	8
	50	132	3.004808	283.0698	-1217.694	1	1250.162	-76.91323	6.516827E-007	0.0006207	8
	51	136	2.372217	340.2655	-1492.343	1	1530.643	-77.15571	6.212578E-007	0.0005705	8
	52	140	1.878005	405.1168	-1826.394	1	1870.785	-77.49358	6.594726E-007	0.0006488	8
	53	144	1.512097	477.8911	-2200.781	1	2252.07	-77.74864	6.085951E-007	0.0006087	8
	54	150	1.201923	569.8317	-2701.083	1	2760.535	-78.08732	6.534233E-007	0.000669	8
	55	156	0.956633	682.9054	-3305.685	1	3375.487	-78.32774	6.196303E-007	3.889601E-006	8
