EXPLAIN
TAG	EISPOT
TITLE	LABEL	Potentiostatic EIS	Test Identifier
DATE	LABEL	9/13/2020	Date
TIME	LABEL	22:18:39	Time
NOTES	NOTES	1	Notes...
	
PSTAT	PSTAT	REF3000-16137	Potentiostat
VDC	POTEN	0.00000E+000	T	DC Voltage (V)
FREQINIT	QUANT	3.00000E+005	Initial Freq. (Hz)
FREQFINAL	QUANT	1.00000E+000	Final Freq. (Hz)
PTSPERDEC	QUANT	1.00000E+001	Points/decade
VAC	QUANT	5.00000E+001	AC Voltage (mV rms)
AREA	QUANT	1.00000E+000	Sample Area (cm^2)
SPEED	SELECTOR	2	Optimize for:
ZGUESS	QUANT	1.00000E+003	Estimated Z (ohms)
EOC	QUANT	0	Open Circuit (V)
SEQUENCER	TOGGLE	TRUE	Run as Sequence
PSTATMODEL	IQUANT	5	Pstat Model
PSTATSECTION	LABEL	REF3000-16137	Pstat Section
PSTATSERIALNO	LABEL	16137	Pstat Serial Number
CTRLMODE	IQUANT	1	Control Mode
IESTAB	IQUANT	0	I/E Stability
CASPEED	IQUANT	1	Control Amp Speed
CONVENTION	IQUANT	1	Current Convention
ICHRANGE	IQUANT	2	Ich Range
ICHRANGEMODE	TOGGLE	F	Ich Auto Range
ICHOFFSETENABLE	TOGGLE	T	Ich Offset Enable
ICHOFFSET	QUANT	0	Ich Offset (V)
ICHFILTER	IQUANT	3	Ich Filter
VCHRANGE	IQUANT	2	Vch Range
VCHRANGEMODE	TOGGLE	F	Vch Auto Range
VCHOFFSETENABLE	TOGGLE	T	Vch Offset Enable
VCHOFFSET	QUANT	0	Vch Offset (V)
VCHFILTER	IQUANT	3	Vch Filter
ACHRANGE	IQUANT	2	Ach Range
ACHOFFSETENABLE	TOGGLE	F	Ach Offset Enable
ACHOFFSET	QUANT	0	Ach Offset (V)
ACHFILTER	IQUANT	3	Ach Filter
IERANGELOWERLIMIT	IQUANT	2	I/E Range Lower Limit
IERANGEMODE	TOGGLE	F	I/E AutoRange
IERANGE	IQUANT	11	I/E Range
POSFEEDENABLE	TOGGLE	F	Positive Feedback IR Comp
POSFEEDRESISTANCE	QUANT	0	Positive Feedback Resistance (ohm)
ACHSELECT	IQUANT	0	Ach Select
CABLEID	IQUANT	13	Cable ID
DCCALDATE	LABEL	7/31/2020	DC Calibration Date
ACCALDATE	LABEL	7/31/2020	AC Calibration Date
THERMOSELECT	IQUANT	1	Thermo Select
FRAMEWORKVERSION	QUANT	6.33	Framework Version
INSTRUMENTVERSION	LABEL	3.50	Instrument Version
COMPLIANCEVOLTAGE	IQUANT	0	Compliance Voltage
ZCURVE	TABLE
	Pt	Time	Freq	Zreal	Zimag	Zsig	Zmod	Zphz	Idc	Vdc	IERange
	#	s	Hz	ohm	ohm	V	ohm	°	A	V	#
	0	15	300046.9	784.3682	-183.972	1	805.6545	-13.2	2.517677E-005	-0.002126	9
	1	31	238359.4	853.0522	-174.2824	1	870.6736	-11.54688	-6.410297E-005	0.0006017	9
	2	56	189328.1	907.9171	-160.1007	1	921.9249	-10.00064	-1.842672E-005	0.001222	9
	3	66	150421.9	940.5001	-137.9041	1	950.557	-8.34175	-1.975642E-005	0.0015084	9
	4	72	119484.4	976.599	-88.16775	1	980.571	-5.158702	-6.181635E-005	0.0172709	8
	5	79	94921.88	991.682	-71.68641	1	994.269	-4.13459	9.912271E-006	-0.0067227	8
	6	82	75421.88	1005.575	-62.0513	1	1007.488	-3.531088	-1.70778E-005	0.0083788	8
	7	85	59859.37	1020.998	-48.80664	1	1022.164	-2.736819	-6.864602E-006	0.0074374	8
	8	87	47578.12	1030.856	-41.1541	1	1031.677	-2.286162	-1.875878E-005	0.0046856	8
	9	90	37828.12	1038.986	-35.85961	1	1039.605	-1.976724	-1.688522E-005	0.0031453	8
	10	93	30046.88	1047.858	-27.4457	1	1048.218	-1.500359	1.065491E-005	-0.0067535	8
	11	95	23859.38	1059.847	-26.87196	1	1060.188	-1.452398	1.909937E-005	-0.0067624	8
	12	98	18984.38	1070.102	-21.54996	1	1070.319	-1.153679	1.513978E-005	-0.0003836	8
	13	101	15046.87	1079.706	-15.71532	1	1079.821	-0.8338917	-1.748783E-005	0.0084608	8
	14	104	11953.13	1090.788	-15.12869	1	1090.892	-0.7946134	-2.209749E-006	-0.003011	8
	15	106	9515.62	1099.415	-11.34278	1	1099.473	-0.5911056	-1.784723E-005	0.0086092	8
	16	109	7546.875	1110.542	-12.22696	1	1110.609	-0.6307955	1.044669E-005	-0.0067242	8
	17	112	5928.309	1119.013	-10.93659	1	1119.067	-0.5599582	-1.380798E-005	0.0014573	8
	18	115	4733.456	1136.118	-9.95624	1	1136.161	-0.5020925	-1.978341E-005	0.0077435	8
	19	118	3796.875	1145.288	-6.651617	1	1145.307	-0.3327594	-1.336768E-005	0.0085865	8
	20	121	2987.132	1158.208	-3.900936	1	1158.215	-0.192976	-1.971896E-005	0.0076761	8
	21	124	2390.625	1167.717	-12.91318	1	1167.789	-0.6335785	-1.317405E-005	0.0084974	8
	22	127	1884.191	1179.26	-9.78587	1	1179.3	-0.4754476	2.087888E-005	-0.0043859	8
	23	130	1516.544	1194.747	-12.10299	1	1194.809	-0.5803962	-1.383114E-005	0.0086694	8
	24	134	1193.986	1208.184	-9.197483	1	1208.219	-0.4361644	-1.89817E-005	0.0047792	8
	25	137	946.5144	1219.811	-7.226441	1	1219.833	-0.3394294	1.899024E-005	-0.0025809	8
	26	140	751.7689	1228.912	-13.83576	1	1228.99	-0.6450397	1.648019E-005	-0.0074567	8
	27	143	597.4265	1235.781	-27.17719	1	1236.08	-1.25984	1.937791E-005	-0.006913	8
	28	145	477.4305	1252.358	-22.63531	1	1252.563	-1.03546	-2.857689E-007	0.0006903	8
	29	147	376.6741	1262.822	-27.68262	1	1263.125	-1.255793	-3.028595E-007	0.000684	8
	30	150	298.2954	1273.104	-33.89524	1	1273.555	-1.525088	-2.430207E-007	0.0006478	8
	31	152	237.7717	1284.334	-41.50177	1	1285.005	-1.850803	-2.353998E-007	0.0006335	8
	32	154	189.0121	1295.722	-51.09824	1	1296.729	-2.258352	-2.603684E-007	0.0006389	8
	33	157	150.2404	1307.532	-63.1574	1	1309.056	-2.765395	-2.796802E-007	0.000654	8
	34	159	119.1737	1319.516	-78.00553	1	1321.82	-3.383204	-2.233987E-007	0.0006292	8
	35	162	95.0169	1332.26	-96.2336	1	1335.731	-4.131489	-2.5681E-007	0.0006508	8
	36	164	75.60484	1346.028	-118.9069	1	1351.27	-5.048349	-2.679829E-007	0.0006296	8
	37	167	54.50582	1362.138	-161.2306	1	1371.647	-6.750454	-2.434752E-007	0.0006229	8
	38	169	45.95588	1376.035	-188.7771	1	1388.924	-7.811596	-3.557496E-007	0.0006606	8
	39	172	37.20238	1391.5	-230.6641	1	1410.488	-9.412134	-3.485449E-007	0.0006608	8
	40	174	30.04808	1408.336	-280.9969	1	1436.095	-11.28371	-2.19685E-007	0.0006313	8
	41	176	23.91582	1426.538	-347.6263	1	1468.283	-13.69521	-1.464539E-007	0.0006177	8
	42	179	18.60119	1449.934	-441.5725	1	1515.683	-16.93794	-4.921369E-007	0.0006377	8
	43	181	15.02404	1470.952	-536.4772	1	1565.729	-20.03763	-3.01944E-007	0.0006423	8
	44	183	12.01923	1498.358	-658.8273	1	1636.805	-23.73507	-1.786986E-007	0.0006527	8
	45	186	9.450605	1530.684	-824.5818	1	1738.657	-28.31142	-2.067303E-007	0.0006339	8
	46	188	7.512019	1568.348	-1021.522	1	1871.689	-33.07767	-1.948044E-007	0.0006395	8
	47	191	5.978954	1615.979	-1261.156	1	2049.854	-37.96949	-2.930212E-007	0.0006505	8
	48	194	4.734848	1673.787	-1565.495	1	2291.798	-43.08527	-2.39706E-007	0.0006713	8
	49	197	3.75601	1745.104	-1936.8	1	2607.026	-47.98038	-2.683537E-007	0.0006215	8
	50	201	3.004808	1829.497	-2376.312	1	2998.986	-52.40771	-2.834747E-007	0.0006422	8
	51	204	2.372217	1938.485	-2946.634	1	3527.092	-56.66051	-2.64345E-007	0.0006541	8
	52	208	1.878005	2082.224	-3662.797	1	4213.281	-60.38267	-7.033437E-008	0.0006095	7
	53	213	1.512097	2236.313	-4465.967	1	4994.593	-63.40078	-5.836481E-008	0.000517	7
	54	219	1.201923	2442.986	-5511.914	1	6029.044	-66.09615	-6.808531E-008	0.0006186	7
	55	225	0.956633	2689.495	-6787.366	1	7300.803	-68.38404	-6.76275E-008	-2.922495E-005	7
