EXPLAIN
TAG	EISPOT
TITLE	LABEL	Potentiostatic EIS	Test Identifier
DATE	LABEL	9/13/2020	Date
TIME	LABEL	21:22:05	Time
NOTES	NOTES	1	Notes...
	
PSTAT	PSTAT	REF3000-16137	Potentiostat
VDC	POTEN	0.00000E+000	T	DC Voltage (V)
FREQINIT	QUANT	3.00000E+005	Initial Freq. (Hz)
FREQFINAL	QUANT	1.00000E+000	Final Freq. (Hz)
PTSPERDEC	QUANT	1.00000E+001	Points/decade
VAC	QUANT	5.00000E+001	AC Voltage (mV rms)
AREA	QUANT	1.00000E+000	Sample Area (cm^2)
SPEED	SELECTOR	2	Optimize for:
ZGUESS	QUANT	1.00000E+003	Estimated Z (ohms)
EOC	QUANT	0	Open Circuit (V)
SEQUENCER	TOGGLE	TRUE	Run as Sequence
PSTATMODEL	IQUANT	5	Pstat Model
PSTATSECTION	LABEL	REF3000-16137	Pstat Section
PSTATSERIALNO	LABEL	16137	Pstat Serial Number
CTRLMODE	IQUANT	1	Control Mode
IESTAB	IQUANT	0	I/E Stability
CASPEED	IQUANT	1	Control Amp Speed
CONVENTION	IQUANT	1	Current Convention
ICHRANGE	IQUANT	2	Ich Range
ICHRANGEMODE	TOGGLE	F	Ich Auto Range
ICHOFFSETENABLE	TOGGLE	T	Ich Offset Enable
ICHOFFSET	QUANT	0	Ich Offset (V)
ICHFILTER	IQUANT	3	Ich Filter
VCHRANGE	IQUANT	2	Vch Range
VCHRANGEMODE	TOGGLE	F	Vch Auto Range
VCHOFFSETENABLE	TOGGLE	T	Vch Offset Enable
VCHOFFSET	QUANT	0	Vch Offset (V)
VCHFILTER	IQUANT	3	Vch Filter
ACHRANGE	IQUANT	2	Ach Range
ACHOFFSETENABLE	TOGGLE	F	Ach Offset Enable
ACHOFFSET	QUANT	0	Ach Offset (V)
ACHFILTER	IQUANT	3	Ach Filter
IERANGELOWERLIMIT	IQUANT	2	I/E Range Lower Limit
IERANGEMODE	TOGGLE	F	I/E AutoRange
IERANGE	IQUANT	11	I/E Range
POSFEEDENABLE	TOGGLE	F	Positive Feedback IR Comp
POSFEEDRESISTANCE	QUANT	0	Positive Feedback Resistance (ohm)
ACHSELECT	IQUANT	0	Ach Select
CABLEID	IQUANT	13	Cable ID
DCCALDATE	LABEL	7/31/2020	DC Calibration Date
ACCALDATE	LABEL	7/31/2020	AC Calibration Date
THERMOSELECT	IQUANT	1	Thermo Select
FRAMEWORKVERSION	QUANT	6.33	Framework Version
INSTRUMENTVERSION	LABEL	3.50	Instrument Version
COMPLIANCEVOLTAGE	IQUANT	0	Compliance Voltage
ZCURVE	TABLE
	Pt	Time	Freq	Zreal	Zimag	Zsig	Zmod	Zphz	Idc	Vdc	IERange
	#	s	Hz	ohm	ohm	V	ohm	°	A	V	#
	0	10	300046.9	4.59029	2.25849	1	5.115813	26.19786	1.131957E-005	2.160203E-005	10
	1	13	238359.4	4.5515	1.790344	1	4.890959	21.47232	-5.223306E-006	-0.0001842	10
	2	16	189328.1	4.536967	1.41685	1	4.753055	17.34307	-0.0001034	8.952231E-006	10
	3	19	150421.9	4.53799	1.11303	1	4.672493	13.78086	-7.576319E-005	0.0003724	10
	4	21	119484.4	4.528124	0.8590224	1	4.608886	10.74183	1.402422E-005	0.0003581	10
	5	24	94921.88	4.530307	0.6725588	1	4.579958	8.444322	1.245792E-005	0.0004971	10
	6	26	75421.88	4.532752	0.4974062	1	4.559962	6.262355	6.380669E-006	0.000535	10
	7	29	59859.37	4.537951	0.3481597	1	4.551288	4.38724	-4.606698E-006	0.0005579	10
	8	31	47578.12	4.543845	0.2191285	1	4.549126	2.76097	3.787548E-006	0.0005742	10
	9	34	37828.12	4.55311	0.1024066	1	4.554262	1.288455	2.042083E-005	0.000592	10
	10	36	30046.88	4.564743	-0.0072603	1	4.564748	-0.0911304	2.274765E-005	0.0006248	10
	11	39	23859.38	4.576221	-0.1155906	1	4.577681	-1.446925	2.008184E-005	0.0006183	10
	12	41	18984.38	4.590048	-0.2259539	1	4.595606	-2.818219	-1.049836E-005	0.0006453	10
	13	43	15046.87	4.605038	-0.3485961	1	4.618214	-4.328969	-1.142573E-005	0.0006894	10
	14	46	11953.13	4.621486	-0.4855907	1	4.646927	-5.998197	1.495649E-005	0.0006237	10
	15	48	9515.62	4.64096	-0.6433826	1	4.685345	-7.892686	-1.844704E-005	0.0006597	10
	16	50	7546.875	4.665287	-0.8341061	1	4.739266	-10.1368	-6.554279E-006	0.0006314	10
	17	53	5928.309	4.69549	-1.073474	1	4.816636	-12.87754	-1.228347E-005	0.0006459	10
	18	55	4733.456	4.729467	-1.346861	1	4.917509	-15.89594	-5.833202E-006	0.0006761	10
	19	57	3796.875	4.771033	-1.672075	1	5.055551	-19.31372	-2.302711E-005	0.0006983	10
	20	60	2987.132	4.824818	-2.106658	1	5.264682	-23.58751	1.84515E-005	0.0006373	10
	21	62	2390.625	4.889279	-2.605076	1	5.539989	-28.04932	-2.280061E-005	0.0007035	10
	22	64	1884.191	4.972849	-3.261233	1	5.946837	-33.25717	2.077871E-005	0.0006556	10
	23	67	1516.544	5.07055	-3.997364	1	6.456733	-38.25045	1.786797E-005	0.0006566	10
	24	69	1193.986	5.205386	-4.99582	1	7.214864	-43.82312	-2.523302E-005	0.0007307	10
	25	71	946.5144	5.369561	-6.201695	1	8.203244	-49.11328	-2.977274E-005	0.0006732	10
	26	74	751.7689	5.581002	-7.674719	1	9.489409	-53.97561	-2.424096E-005	0.0006794	10
	27	76	597.4265	5.841795	-9.482535	1	11.13755	-58.36451	3.154883E-006	0.0006256	10
	28	78	477.4305	6.164474	-11.6611	1	13.19023	-62.13748	-2.383646E-006	0.0006697	10
	29	81	376.6741	6.599519	-14.49938	1	15.93065	-65.52693	-3.102364E-006	0.0006636	10
	30	83	298.2954	7.14969	-17.96033	1	19.3311	-68.29337	-2.558169E-006	0.0006689	10
	31	85	237.7717	7.840517	-22.10048	1	23.45005	-70.467	-3.193339E-006	0.000663	10
	32	88	189.0121	8.743019	-27.24515	1	28.61361	-72.20847	-3.310662E-006	0.0006627	10
	33	90	150.2404	9.92138	-33.56036	1	34.99616	-73.53085	-2.158844E-006	0.0006678	10
	34	93	119.1737	11.45185	-41.30603	1	42.86412	-74.50429	1.43598E-006	7.275933E-005	9
	35	95	95.0169	13.40658	-50.57225	1	52.3191	-75.15255	8.317845E-007	0.0001237	9
	36	97	75.60484	15.93031	-61.91504	1	63.93158	-75.57115	1.273104E-006	6.88296E-005	9
	37	100	54.50582	20.75485	-82.39559	1	84.96939	-75.86173	1.195276E-006	6.187075E-005	9
	38	102	45.95588	23.944	-95.4825	1	98.4389	-75.92232	1.465117E-006	6.845452E-005	9
	39	105	37.20238	28.62453	-114.4318	1	117.9577	-75.95595	9.923618E-007	0.0001174	9
	40	107	30.04808	34.28207	-137.2325	1	141.4497	-75.97399	1.369251E-006	6.277895E-005	9
	41	110	23.91582	41.48042	-166.5113	1	171.6003	-76.01151	1.333173E-006	6.919663E-005	9
	42	112	18.60119	50.89346	-205.7215	1	211.9232	-76.10458	1.617212E-006	5.885307E-005	9
	43	114	15.02404	60.36003	-246.3421	1	253.6292	-76.23234	1.452904E-006	5.915284E-005	9
	44	116	12.01923	71.91023	-297.6906	1	306.2528	-76.41977	1.26845E-006	6.330656E-005	9
	45	119	9.450605	86.31267	-365.3702	1	375.4268	-76.7085	1.333777E-006	7.665595E-005	9
	46	121	7.512019	102.3714	-443.1364	1	454.8075	-76.99198	7.346438E-007	0.0006315	8
	47	124	5.978954	121.3247	-539.8876	1	553.3519	-77.33477	8.086321E-007	0.0006453	8
	48	127	4.734848	144.6622	-661.958	1	677.5807	-77.67257	7.517242E-007	0.0006234	8
	49	130	3.75601	173.3358	-811.4544	1	829.7612	-77.94219	8.535511E-007	0.0006597	8
	50	134	3.004808	207.2303	-987.611	1	1009.118	-78.14955	7.932333E-007	0.0006594	8
	51	138	2.372217	253.1002	-1216.547	1	1242.596	-78.24738	7.475581E-007	0.0006507	8
	52	143	1.878005	311.9319	-1499.479	1	1531.58	-78.24854	8.089892E-007	0.0006258	8
	53	147	1.512097	377.7568	-1817.728	1	1856.565	-78.26	7.828826E-007	0.0007466	8
	54	153	1.201923	470.4124	-2230.818	1	2279.877	-78.0925	7.7236E-007	0.0006933	8
	55	159	0.956633	585.0275	-2730.513	1	2792.482	-77.9069	7.53149E-007	1.583524E-006	8
