EXPLAIN
TAG	EISPOT
TITLE	LABEL	Potentiostatic EIS	Test Identifier
DATE	LABEL	9/13/2020	Date
TIME	LABEL	21:44:24	Time
NOTES	NOTES	1	Notes...
	
PSTAT	PSTAT	REF3000-16137	Potentiostat
VDC	POTEN	0.00000E+000	T	DC Voltage (V)
FREQINIT	QUANT	3.00000E+005	Initial Freq. (Hz)
FREQFINAL	QUANT	1.00000E+000	Final Freq. (Hz)
PTSPERDEC	QUANT	1.00000E+001	Points/decade
VAC	QUANT	5.00000E+001	AC Voltage (mV rms)
AREA	QUANT	1.00000E+000	Sample Area (cm^2)
SPEED	SELECTOR	2	Optimize for:
ZGUESS	QUANT	1.00000E+003	Estimated Z (ohms)
EOC	QUANT	0	Open Circuit (V)
SEQUENCER	TOGGLE	TRUE	Run as Sequence
PSTATMODEL	IQUANT	5	Pstat Model
PSTATSECTION	LABEL	REF3000-16137	Pstat Section
PSTATSERIALNO	LABEL	16137	Pstat Serial Number
CTRLMODE	IQUANT	1	Control Mode
IESTAB	IQUANT	0	I/E Stability
CASPEED	IQUANT	1	Control Amp Speed
CONVENTION	IQUANT	1	Current Convention
ICHRANGE	IQUANT	2	Ich Range
ICHRANGEMODE	TOGGLE	F	Ich Auto Range
ICHOFFSETENABLE	TOGGLE	T	Ich Offset Enable
ICHOFFSET	QUANT	0	Ich Offset (V)
ICHFILTER	IQUANT	3	Ich Filter
VCHRANGE	IQUANT	2	Vch Range
VCHRANGEMODE	TOGGLE	F	Vch Auto Range
VCHOFFSETENABLE	TOGGLE	T	Vch Offset Enable
VCHOFFSET	QUANT	0	Vch Offset (V)
VCHFILTER	IQUANT	3	Vch Filter
ACHRANGE	IQUANT	2	Ach Range
ACHOFFSETENABLE	TOGGLE	F	Ach Offset Enable
ACHOFFSET	QUANT	0	Ach Offset (V)
ACHFILTER	IQUANT	3	Ach Filter
IERANGELOWERLIMIT	IQUANT	2	I/E Range Lower Limit
IERANGEMODE	TOGGLE	F	I/E AutoRange
IERANGE	IQUANT	11	I/E Range
POSFEEDENABLE	TOGGLE	F	Positive Feedback IR Comp
POSFEEDRESISTANCE	QUANT	0	Positive Feedback Resistance (ohm)
ACHSELECT	IQUANT	0	Ach Select
CABLEID	IQUANT	13	Cable ID
DCCALDATE	LABEL	7/31/2020	DC Calibration Date
ACCALDATE	LABEL	7/31/2020	AC Calibration Date
THERMOSELECT	IQUANT	1	Thermo Select
FRAMEWORKVERSION	QUANT	6.33	Framework Version
INSTRUMENTVERSION	LABEL	3.50	Instrument Version
COMPLIANCEVOLTAGE	IQUANT	0	Compliance Voltage
ZCURVE	TABLE
	Pt	Time	Freq	Zreal	Zimag	Zsig	Zmod	Zphz	Idc	Vdc	IERange
	#	s	Hz	ohm	ohm	V	ohm	°	A	V	#
	0	8	300046.9	13.84721	2.136303	1	14.01103	8.770263	-3.046045E-005	0.0001441	10
	1	11	238359.4	13.85596	1.681913	1	13.95767	6.921019	-8.824678E-005	0.0003692	10
	2	15	189328.1	13.87815	1.325296	1	13.94129	5.454927	4.957241E-005	0.0005258	10
	3	17	150421.9	13.90291	1.025589	1	13.94069	4.218951	6.160802E-005	0.0002329	10
	4	20	119484.4	13.94492	0.7977872	1	13.96772	3.274315	-2.060037E-005	0.0006414	10
	5	22	94921.88	13.97796	0.6186249	1	13.99164	2.534095	4.084536E-006	0.0005895	10
	6	25	75421.88	14.01989	0.4422445	1	14.02687	1.806743	-1.762741E-005	0.0005972	10
	7	27	59859.37	14.06529	0.2924688	1	14.06833	1.191217	-1.187358E-005	0.0006017	10
	8	30	47578.12	14.11075	0.1634072	1	14.1117	0.6634746	2.542967E-005	0.0006311	10
	9	32	37828.12	14.15671	0.0471614	1	14.15679	0.1908735	1.157181E-005	0.0005863	10
	10	35	30046.88	14.20442	-0.0649023	1	14.20457	-0.2617919	-1.589667E-005	0.0006535	10
	11	37	23859.38	14.25305	-0.1802975	1	14.25419	-0.7247385	4.817277E-006	0.0006327	10
	12	40	18984.38	14.29864	-0.2995479	1	14.30178	-1.200136	1.590153E-005	0.0006327	10
	13	42	15046.87	14.34978	-0.4361286	1	14.35641	-1.740838	-9.370624E-006	0.0007201	10
	14	44	11953.13	14.40379	-0.5906799	1	14.41589	-2.348307	-2.731294E-005	0.000713	10
	15	46	9515.62	14.45803	-0.7682982	1	14.47843	-3.041831	-1.703564E-005	0.000667	10
	16	49	7546.875	14.51719	-0.987364	1	14.55073	-3.890889	1.218387E-005	0.000597	10
	17	51	5928.309	14.58505	-1.262319	1	14.63958	-4.946555	1.872241E-005	0.0006074	10
	18	53	4733.456	14.65573	-1.577042	1	14.74034	-6.141724	-1.875113E-005	0.0006565	10
	19	56	3796.875	14.73433	-1.957109	1	14.86374	-7.566111	1.31588E-005	0.0006048	10
	20	58	2987.132	14.82659	-2.463422	1	15.02984	-9.433459	-2.15009E-005	0.0007033	10
	21	60	2390.625	14.92636	-3.044266	1	15.23364	-11.52751	-2.179798E-006	0.0007112	10
	22	63	1884.191	15.04634	-3.814258	1	15.52227	-14.22487	-1.378591E-005	0.0007006	10
	23	65	1516.544	15.18376	-4.679197	1	15.8884	-17.12779	1.955594E-005	0.0006546	10
	24	67	1193.986	15.35691	-5.86025	1	16.43707	-20.88703	-4.574666E-006	0.000681	10
	25	70	946.5144	15.5634	-7.28559	1	17.18427	-25.08539	1.317754E-005	0.0006057	10
	26	72	751.7689	15.81142	-9.034575	1	18.21056	-29.74345	-2.534335E-005	0.000728	10
	27	74	597.4265	16.11793	-11.1953	1	19.62453	-34.78332	-1.47725E-005	0.0006973	10
	28	77	477.4305	16.48441	-13.78302	1	21.48738	-39.89983	-2.259635E-006	0.0006698	10
	29	79	376.6741	16.96709	-17.17033	1	24.13923	-45.34111	-2.046983E-006	0.0006598	10
	30	81	298.2954	17.56425	-21.30952	1	27.61519	-50.50313	-2.118404E-006	0.0006704	10
	31	84	237.7717	18.29037	-26.26962	1	32.00985	-55.15222	-1.854757E-006	0.0006644	10
	32	86	189.0121	19.20692	-32.45177	1	37.70972	-59.38039	-1.906612E-006	0.000672	10
	33	88	150.2404	20.33136	-40.02565	1	44.89339	-63.07133	1.280328E-006	6.106669E-005	9
	34	91	119.1737	21.78536	-49.50563	1	54.08705	-66.24771	1.290777E-006	6.661676E-005	9
	35	93	95.0169	23.57552	-60.92176	1	65.32432	-68.84455	1.277675E-006	5.917698E-005	9
	36	96	75.60484	25.86484	-75.09087	1	79.42059	-70.99387	1.279977E-006	5.36969E-005	9
	37	98	54.50582	30.26818	-101.2064	1	105.6357	-73.34945	1.195958E-006	5.514225E-005	9
	38	101	45.95588	33.3041	-118.2271	1	122.8284	-74.26768	1.348565E-006	6.190794E-005	9
	39	103	37.20238	37.94282	-143.1704	1	148.1128	-75.15678	1.313722E-006	6.656782E-005	9
	40	106	30.04808	43.91011	-173.5994	1	179.0666	-75.80537	1.232022E-006	6.471285E-005	9
	41	108	23.91582	52.04504	-212.9691	1	219.2363	-76.2673	1.133659E-006	6.019708E-005	9
	42	110	18.60119	63.66683	-266.1197	1	273.6296	-76.54538	1.295755E-006	6.627477E-005	9
	43	113	15.02404	76.15603	-321.0532	1	329.9619	-76.65568	1.494825E-006	6.669149E-005	9
	44	115	12.01923	92.5233	-389.834	1	400.6633	-76.64845	1.300165E-006	6.352786E-005	9
	45	117	9.450605	113.7908	-477.646	1	491.0133	-76.60005	5.187949E-007	0.0006363	8
	46	120	7.512019	138.9048	-581.152	1	597.5217	-76.55757	5.438717E-007	0.000624	8
	47	122	5.978954	169.0476	-705.8067	1	725.7687	-76.53082	6.268648E-007	0.000644	8
	48	126	4.734848	205.6196	-860.8472	1	885.0634	-76.56619	5.646194E-007	0.000626	8
	49	129	3.75601	249.1673	-1047.48	1	1076.707	-76.61954	6.459976E-007	0.0006439	8
	50	132	3.004808	298.1635	-1265.404	1	1300.057	-76.7414	5.937447E-007	0.0006748	8
	51	136	2.372217	358.9463	-1548.924	1	1589.971	-76.95264	6.090148E-007	0.0007134	8
	52	140	1.878005	429.8287	-1892.149	1	1940.355	-77.20164	6.006426E-007	0.0006105	8
	53	145	1.512097	509.1214	-2279.353	1	2335.52	-77.40896	6.330216E-007	0.0007186	8
	54	150	1.201923	603.3813	-2790.751	1	2855.234	-77.80001	6.186675E-007	0.0006005	8
	55	156	0.956633	719.1022	-3412.948	1	3487.882	-78.10191	5.958009E-007	-3.805992E-006	8
