EXPLAIN
TAG	EISPOT
TITLE	LABEL	Potentiostatic EIS	Test Identifier
DATE	LABEL	9/13/2020	Date
TIME	LABEL	21:55:29	Time
NOTES	NOTES	1	Notes...
	
PSTAT	PSTAT	REF3000-16137	Potentiostat
VDC	POTEN	0.00000E+000	T	DC Voltage (V)
FREQINIT	QUANT	3.00000E+005	Initial Freq. (Hz)
FREQFINAL	QUANT	1.00000E+000	Final Freq. (Hz)
PTSPERDEC	QUANT	1.00000E+001	Points/decade
VAC	QUANT	5.00000E+001	AC Voltage (mV rms)
AREA	QUANT	1.00000E+000	Sample Area (cm^2)
SPEED	SELECTOR	2	Optimize for:
ZGUESS	QUANT	1.00000E+003	Estimated Z (ohms)
EOC	QUANT	0	Open Circuit (V)
SEQUENCER	TOGGLE	TRUE	Run as Sequence
PSTATMODEL	IQUANT	5	Pstat Model
PSTATSECTION	LABEL	REF3000-16137	Pstat Section
PSTATSERIALNO	LABEL	16137	Pstat Serial Number
CTRLMODE	IQUANT	1	Control Mode
IESTAB	IQUANT	0	I/E Stability
CASPEED	IQUANT	1	Control Amp Speed
CONVENTION	IQUANT	1	Current Convention
ICHRANGE	IQUANT	2	Ich Range
ICHRANGEMODE	TOGGLE	F	Ich Auto Range
ICHOFFSETENABLE	TOGGLE	T	Ich Offset Enable
ICHOFFSET	QUANT	0	Ich Offset (V)
ICHFILTER	IQUANT	3	Ich Filter
VCHRANGE	IQUANT	2	Vch Range
VCHRANGEMODE	TOGGLE	F	Vch Auto Range
VCHOFFSETENABLE	TOGGLE	T	Vch Offset Enable
VCHOFFSET	QUANT	0	Vch Offset (V)
VCHFILTER	IQUANT	3	Vch Filter
ACHRANGE	IQUANT	2	Ach Range
ACHOFFSETENABLE	TOGGLE	F	Ach Offset Enable
ACHOFFSET	QUANT	0	Ach Offset (V)
ACHFILTER	IQUANT	3	Ach Filter
IERANGELOWERLIMIT	IQUANT	2	I/E Range Lower Limit
IERANGEMODE	TOGGLE	F	I/E AutoRange
IERANGE	IQUANT	11	I/E Range
POSFEEDENABLE	TOGGLE	F	Positive Feedback IR Comp
POSFEEDRESISTANCE	QUANT	0	Positive Feedback Resistance (ohm)
ACHSELECT	IQUANT	0	Ach Select
CABLEID	IQUANT	13	Cable ID
DCCALDATE	LABEL	7/31/2020	DC Calibration Date
ACCALDATE	LABEL	7/31/2020	AC Calibration Date
THERMOSELECT	IQUANT	1	Thermo Select
FRAMEWORKVERSION	QUANT	6.33	Framework Version
INSTRUMENTVERSION	LABEL	3.50	Instrument Version
COMPLIANCEVOLTAGE	IQUANT	0	Compliance Voltage
ZCURVE	TABLE
	Pt	Time	Freq	Zreal	Zimag	Zsig	Zmod	Zphz	Idc	Vdc	IERange
	#	s	Hz	ohm	ohm	V	ohm	°	A	V	#
	0	7	300046.9	34.33007	1.143265	1	34.3491	1.907367	-5.217154E-005	-0.0001843	11
	1	11	238359.4	34.52072	1.275197	1	34.54427	2.115547	-2.390594E-005	0.0004248	10
	2	14	189328.1	34.67195	1.00164	1	34.68642	1.654761	-0.0000989	0.0004753	10
	3	17	150421.9	34.83367	0.7685471	1	34.84215	1.263931	4.954118E-005	0.0007688	10
	4	19	119484.4	34.99438	0.5868862	1	34.99931	0.96081	-8.955747E-005	0.0006301	10
	5	22	94921.88	35.12091	0.4360615	1	35.12362	0.7113483	2.403021E-005	0.0005659	10
	6	24	75421.88	35.2654	0.2805014	1	35.26651	0.4557218	-2.814108E-005	0.0006564	10
	7	27	59859.37	35.41301	0.1617242	1	35.41338	0.2616567	2.578116E-005	0.0006491	10
	8	29	47578.12	35.529	0.2180057	1	35.52967	0.351562	-2.225677E-006	0.0004368	9
	9	32	37828.12	35.67692	0.0716417	1	35.67699	0.1150537	-1.355269E-005	0.00046	9
	10	34	30046.88	35.82998	-0.0701005	1	35.83004	-0.1120978	1.522501E-005	-0.00013	9
	11	37	23859.38	35.99167	-0.2019252	1	35.99224	-0.3214449	-8.631459E-006	0.0004961	9
	12	39	18984.38	36.13794	-0.341565	1	36.13955	-0.5415264	8.450444E-006	5.674725E-005	9
	13	42	15046.87	36.285	-0.4993307	1	36.28843	-0.7884178	-1.25041E-005	0.0003638	9
	14	44	11953.13	36.44344	-0.6576334	1	36.44937	-1.033808	-1.099118E-005	0.0005924	9
	15	46	9515.62	36.60193	-0.8607651	1	36.61205	-1.347173	1.267908E-005	-0.0004439	9
	16	48	7546.875	36.77451	-1.101569	1	36.791	-1.715764	8.199212E-006	-0.0003827	9
	17	51	5928.309	36.94063	-1.409679	1	36.96752	-2.185385	8.754871E-006	-0.0003848	9
	18	53	4733.456	37.1103	-1.74892	1	37.15149	-2.698217	1.706756E-005	-0.0002344	9
	19	55	3796.875	37.29256	-2.170595	1	37.35567	-3.331114	8.731365E-006	-0.0003852	9
	20	58	2987.132	37.49249	-2.720964	1	37.59109	-4.150883	1.225779E-005	-0.0004292	9
	21	60	2390.625	37.70485	-3.368805	1	37.85505	-5.105633	1.718888E-005	-0.0003799	9
	22	62	1884.191	37.92392	-4.194083	1	38.15514	-6.310811	-7.633635E-006	6.724698E-005	9
	23	65	1516.544	38.17958	-5.162255	1	38.52699	-7.700256	-1.188173E-005	0.0002067	9
	24	67	1193.986	38.46376	-6.473042	1	39.00463	-9.55276	1.286236E-005	-0.0004431	9
	25	69	946.5144	38.78565	-8.055792	1	39.61341	-11.73352	1.716372E-005	-0.0002473	9
	26	72	751.7689	39.14927	-9.99698	1	40.40551	-14.32467	1.75168E-005	-0.0003987	9
	27	74	597.4265	39.56381	-12.40146	1	41.46193	-17.40385	-3.004325E-006	-0.0001041	9
	28	76	477.4305	40.03209	-15.29347	1	42.85392	-20.90837	1.38364E-006	6.637047E-005	9
	29	79	376.6741	40.6261	-19.08363	1	44.88502	-25.16124	1.283905E-006	6.64226E-005	9
	30	81	298.2954	41.33604	-23.71926	1	47.65786	-29.84787	1.38303E-006	6.329759E-005	9
	31	83	237.7717	42.18729	-29.28917	1	51.35779	-34.7709	1.373257E-006	6.006978E-005	9
	32	86	189.0121	43.23722	-36.24054	1	56.41661	-39.96904	1.30454E-006	6.867727E-005	9
	33	88	150.2404	44.53343	-44.82031	1	63.18296	-45.18395	1.35063E-006	6.745984E-005	9
	34	91	119.1737	46.15051	-55.51103	1	72.18964	-50.2607	1.371725E-006	6.23006E-005	9
	35	93	95.0169	48.11763	-68.38772	1	83.61929	-54.86976	1.296981E-006	6.586795E-005	9
	36	95	75.60484	50.59014	-84.37414	1	98.3786	-59.05339	1.27146E-006	6.574357E-005	9
	37	98	54.50582	55.14865	-113.8742	1	126.5255	-64.15934	1.331396E-006	5.917545E-005	9
	38	101	45.95588	58.3045	-133.1677	1	145.3721	-66.35487	1.383483E-006	6.843121E-005	9
	39	104	37.20238	62.87799	-161.5308	1	173.3374	-68.73087	1.326124E-006	6.966347E-005	9
	40	106	30.04808	68.6015	-196.3188	1	207.9597	-70.73858	1.404992E-006	5.782433E-005	9
	41	109	23.91582	76.32168	-241.7519	1	253.5132	-72.47896	1.348173E-006	6.205618E-005	9
	42	111	18.60119	87.24169	-303.8668	1	316.1426	-73.98096	1.251187E-006	6.24467E-005	9
	43	113	15.02404	99.1977	-368.7516	1	381.8611	-74.94334	1.253763E-006	6.735578E-005	9
	44	115	12.01923	114.8142	-449.096	1	463.5402	-75.65916	4.943558E-007	0.0006404	8
	45	118	9.450605	137.107	-557.1108	1	573.7341	-76.17406	5.099874E-007	0.0006461	8
	46	120	7.512019	164.1801	-683.1443	1	702.5961	-76.48638	4.981529E-007	0.0006595	8
	47	123	5.978954	198.7555	-835.4284	1	858.7458	-76.61763	4.038247E-007	0.0006403	8
	48	126	4.734848	243.2363	-1024.994	1	1053.459	-76.65035	4.80007E-007	0.0006462	8
	49	129	3.75601	297.9337	-1252.105	1	1287.063	-76.61558	4.083981E-007	0.0006424	8
	50	133	3.004808	362.3807	-1515.66	1	1558.379	-76.55352	4.696802E-007	0.0006053	8
	51	137	2.372217	445.054	-1854.886	1	1907.531	-76.50774	4.422837E-007	0.0005741	8
	52	141	1.878005	544.879	-2261.727	1	2326.436	-76.45483	4.586595E-007	0.000651	8
	53	145	1.512097	656.0894	-2715.008	1	2793.156	-76.41476	4.329891E-007	0.0005539	8
	54	151	1.201923	788.5599	-3307.784	1	3400.479	-76.59123	4.550141E-007	0.0006683	8
	55	157	0.956633	945.4991	-4021.148	1	4130.811	-76.7683	4.281273E-007	5.705219E-006	8
