EXPLAIN
TAG	EISPOT
TITLE	LABEL	Potentiostatic EIS	Test Identifier
DATE	LABEL	9/13/2020	Date
TIME	LABEL	22:09:18	Time
NOTES	NOTES	1	Notes...
	
PSTAT	PSTAT	REF3000-16137	Potentiostat
VDC	POTEN	0.00000E+000	T	DC Voltage (V)
FREQINIT	QUANT	3.00000E+005	Initial Freq. (Hz)
FREQFINAL	QUANT	1.00000E+000	Final Freq. (Hz)
PTSPERDEC	QUANT	1.00000E+001	Points/decade
VAC	QUANT	5.00000E+001	AC Voltage (mV rms)
AREA	QUANT	1.00000E+000	Sample Area (cm^2)
SPEED	SELECTOR	2	Optimize for:
ZGUESS	QUANT	1.00000E+003	Estimated Z (ohms)
EOC	QUANT	0	Open Circuit (V)
SEQUENCER	TOGGLE	TRUE	Run as Sequence
PSTATMODEL	IQUANT	5	Pstat Model
PSTATSECTION	LABEL	REF3000-16137	Pstat Section
PSTATSERIALNO	LABEL	16137	Pstat Serial Number
CTRLMODE	IQUANT	1	Control Mode
IESTAB	IQUANT	0	I/E Stability
CASPEED	IQUANT	1	Control Amp Speed
CONVENTION	IQUANT	1	Current Convention
ICHRANGE	IQUANT	2	Ich Range
ICHRANGEMODE	TOGGLE	F	Ich Auto Range
ICHOFFSETENABLE	TOGGLE	T	Ich Offset Enable
ICHOFFSET	QUANT	0	Ich Offset (V)
ICHFILTER	IQUANT	3	Ich Filter
VCHRANGE	IQUANT	2	Vch Range
VCHRANGEMODE	TOGGLE	F	Vch Auto Range
VCHOFFSETENABLE	TOGGLE	T	Vch Offset Enable
VCHOFFSET	QUANT	0	Vch Offset (V)
VCHFILTER	IQUANT	3	Vch Filter
ACHRANGE	IQUANT	2	Ach Range
ACHOFFSETENABLE	TOGGLE	F	Ach Offset Enable
ACHOFFSET	QUANT	0	Ach Offset (V)
ACHFILTER	IQUANT	3	Ach Filter
IERANGELOWERLIMIT	IQUANT	2	I/E Range Lower Limit
IERANGEMODE	TOGGLE	F	I/E AutoRange
IERANGE	IQUANT	11	I/E Range
POSFEEDENABLE	TOGGLE	F	Positive Feedback IR Comp
POSFEEDRESISTANCE	QUANT	0	Positive Feedback Resistance (ohm)
ACHSELECT	IQUANT	0	Ach Select
CABLEID	IQUANT	13	Cable ID
DCCALDATE	LABEL	7/31/2020	DC Calibration Date
ACCALDATE	LABEL	7/31/2020	AC Calibration Date
THERMOSELECT	IQUANT	1	Thermo Select
FRAMEWORKVERSION	QUANT	6.33	Framework Version
INSTRUMENTVERSION	LABEL	3.50	Instrument Version
COMPLIANCEVOLTAGE	IQUANT	0	Compliance Voltage
ZCURVE	TABLE
	Pt	Time	Freq	Zreal	Zimag	Zsig	Zmod	Zphz	Idc	Vdc	IERange
	#	s	Hz	ohm	ohm	V	ohm	°	A	V	#
	0	8	300046.9	173.8368	-5.217413	1	173.9151	-1.719118	1.952289E-005	-0.0017941	9
	1	11	238359.4	175.2769	-4.3727	1	175.3314	-1.429083	6.587165E-006	0.0009256	9
	2	15	189328.1	176.9888	-3.621702	1	177.0258	-1.172274	-7.254035E-006	-0.0014871	9
	3	17	150421.9	178.174	-3.257633	1	178.2038	-1.047447	1.064126E-005	-0.0016063	9
	4	20	119484.4	179.4367	-2.803074	1	179.4586	-0.8949742	-1.548096E-005	0.0011066	9
	5	23	94921.88	180.6678	-2.233611	1	180.6816	-0.7083163	-2.278655E-005	0.000621	9
	6	25	75421.88	181.916	-2.010247	1	181.9271	-0.6331162	-2.465706E-005	0.0008444	9
	7	28	59859.37	183.1022	-1.672787	1	183.1098	-0.5234289	-2.355363E-005	0.0006428	9
	8	30	47578.12	184.107	-1.312892	1	184.1117	-0.4085769	2.604484E-005	-0.0007802	9
	9	33	37828.12	185.4216	-1.210221	1	185.4256	-0.3739562	-1.423595E-005	0.0009586	9
	10	35	30046.88	186.7038	-1.245972	1	186.708	-0.3823589	-2.24488E-005	0.0006157	9
	11	38	23859.38	187.8064	-1.234793	1	187.8104	-0.3767038	1.770622E-005	-0.0009353	9
	12	40	18984.38	188.8348	-1.214884	1	188.8387	-0.3686121	1.876144E-005	-0.0008443	9
	13	42	15046.87	189.7772	-1.440262	1	189.7827	-0.4348223	-3.022021E-006	-0.0003626	9
	14	45	11953.13	190.9658	-1.047879	1	190.9687	-0.3143936	1.357936E-006	0.0005483	9
	15	47	9515.62	192.0446	-1.512829	1	192.0506	-0.4513374	8.271206E-007	0.0005641	9
	16	49	7546.875	193.1276	-1.689348	1	193.135	-0.5011714	1.647179E-005	-0.00086	9
	17	51	5928.309	194.5563	-1.816385	1	194.5648	-0.5348999	-1.457491E-005	0.0001142	9
	18	54	4733.456	195.6963	-2.316077	1	195.71	-0.6780673	-1.545468E-005	0.0001329	9
	19	56	3796.875	196.838	-2.431866	1	196.853	-0.7078336	-1.801924E-005	0.0003535	9
	20	58	2987.132	197.9186	-3.543902	1	197.9503	-1.02582	-1.546804E-005	0.0001383	9
	21	61	2390.625	199.1408	-4.204105	1	199.1852	-1.209404	2.71092E-005	-0.0006196	9
	22	63	1884.191	200.1469	-4.633618	1	200.2005	-1.326222	2.58172E-005	-0.0004718	9
	23	65	1516.544	201.8124	-6.275119	1	201.9099	-1.780971	1.92575E-005	-5.993869E-005	9
	24	68	1193.986	203.1077	-7.851166	1	203.2593	-2.213677	1.439859E-005	-0.0007406	9
	25	70	946.5144	204.4895	-9.36007	1	204.7036	-2.620762	7.886313E-006	-0.0006317	9
	26	72	751.7689	205.4943	-11.78036	1	205.8316	-3.281002	-1.802525E-005	0.0003588	9
	27	75	597.4265	207.0197	-14.88263	1	207.554	-4.111913	-2.14995E-005	0.0009837	9
	28	77	477.4305	208.8196	-18.02301	1	209.5959	-4.932918	1.086962E-006	7.062413E-005	9
	29	79	376.6741	210.487	-22.47385	1	211.6833	-6.094424	1.051027E-006	6.045892E-005	9
	30	82	298.2954	212.263	-27.95419	1	214.0958	-7.502451	1.036357E-006	6.343623E-005	9
	31	84	237.7717	214.2245	-34.5541	1	216.9934	-9.162805	6.338114E-007	0.0001168	9
	32	87	189.0121	216.3991	-42.8346	1	220.5977	-11.19654	1.118914E-006	6.210511E-005	9
	33	89	150.2404	218.8129	-53.09718	1	225.1631	-13.63976	1.117709E-006	6.281144E-005	9
	34	91	119.1737	221.5415	-65.94964	1	231.1492	-16.5775	1.080244E-006	6.221255E-005	9
	35	94	95.0169	224.6465	-81.49577	1	238.972	-19.93942	1.021559E-006	6.105202E-005	9
	36	96	75.60484	228.387	-100.882	1	249.6754	-23.83177	1.072567E-006	5.582184E-005	9
	37	99	54.50582	234.2428	-136.771	1	271.2489	-30.28004	1.177617E-006	6.377536E-005	9
	38	101	45.95588	238.5994	-160.2643	1	287.4271	-33.88879	1.135617E-006	6.422052E-005	9
	39	104	37.20238	244.4511	-194.9215	1	312.6512	-38.56831	1.174932E-006	6.155853E-005	9
	40	106	30.04808	251.5958	-237.4873	1	345.9779	-43.34765	1.086322E-006	0.0001103	9
	41	108	23.91582	260.7629	-293.0691	1	392.2841	-48.33841	1.160927E-006	5.832191E-005	9
	42	111	18.60119	271.9501	-367.6516	1	457.3014	-53.50985	-3.615989E-008	0.0006515	8
	43	113	15.02404	285.0523	-447.2384	1	530.3555	-57.48816	5.814245E-008	0.0006542	8
	44	115	12.01923	301.9843	-548.406	1	626.054	-61.16026	-6.166582E-008	0.0006445	8
	45	118	9.450605	324.4264	-683.1912	1	756.3085	-64.5984	-2.943183E-008	0.000633	8
	46	120	7.512019	351.0411	-842.0515	1	912.2941	-67.36934	-3.675156E-008	0.0006257	8
	47	123	5.978954	384.8039	-1036.344	1	1105.478	-69.62958	5.494001E-008	0.0006355	8
	48	126	4.734848	428.2527	-1282.436	1	1352.052	-71.53394	-2.026938E-008	0.0006361	8
	49	129	3.75601	482.8121	-1582.21	1	1654.236	-73.03041	2.874079E-008	0.0006382	8
	50	133	3.004808	549.4597	-1935.625	1	2012.101	-74.15251	-5.203726E-009	0.0006733	8
	51	136	2.372217	640.1246	-2397.526	1	2481.51	-75.05109	1.716768E-008	0.0007063	8
	52	140	1.878005	756.0847	-2957.202	1	3052.328	-75.6581	6.012313E-009	0.0006136	8
	53	145	1.512097	896.2394	-3584.051	1	3694.41	-75.96034	2.131892E-008	0.0007649	8
	54	151	1.201923	1079.372	-4413.994	1	4544.049	-76.25888	-4.427501E-009	0.0005843	7
	55	157	0.956633	1308.318	-5402.124	1	5558.294	-76.3859	-2.703007E-008	-2.552119E-005	7
