EXPLAIN
TAG	EISPOT
TITLE	LABEL	Potentiostatic EIS	Test Identifier
DATE	LABEL	9/13/2020	Date
TIME	LABEL	20:53:49	Time
NOTES	NOTES	1	Notes...
	
PSTAT	PSTAT	REF3000-16137	Potentiostat
VDC	POTEN	0.00000E+000	T	DC Voltage (V)
FREQINIT	QUANT	3.00000E+005	Initial Freq. (Hz)
FREQFINAL	QUANT	1.00000E+000	Final Freq. (Hz)
PTSPERDEC	QUANT	1.00000E+001	Points/decade
VAC	QUANT	5.00000E+001	AC Voltage (mV rms)
AREA	QUANT	1.00000E+000	Sample Area (cm^2)
SPEED	SELECTOR	2	Optimize for:
ZGUESS	QUANT	1.00000E+003	Estimated Z (ohms)
EOC	QUANT	0	Open Circuit (V)
SEQUENCER	TOGGLE	TRUE	Run as Sequence
PSTATMODEL	IQUANT	5	Pstat Model
PSTATSECTION	LABEL	REF3000-16137	Pstat Section
PSTATSERIALNO	LABEL	16137	Pstat Serial Number
CTRLMODE	IQUANT	1	Control Mode
IESTAB	IQUANT	0	I/E Stability
CASPEED	IQUANT	1	Control Amp Speed
CONVENTION	IQUANT	1	Current Convention
ICHRANGE	IQUANT	2	Ich Range
ICHRANGEMODE	TOGGLE	F	Ich Auto Range
ICHOFFSETENABLE	TOGGLE	T	Ich Offset Enable
ICHOFFSET	QUANT	0	Ich Offset (V)
ICHFILTER	IQUANT	3	Ich Filter
VCHRANGE	IQUANT	2	Vch Range
VCHRANGEMODE	TOGGLE	F	Vch Auto Range
VCHOFFSETENABLE	TOGGLE	T	Vch Offset Enable
VCHOFFSET	QUANT	0	Vch Offset (V)
VCHFILTER	IQUANT	3	Vch Filter
ACHRANGE	IQUANT	2	Ach Range
ACHOFFSETENABLE	TOGGLE	F	Ach Offset Enable
ACHOFFSET	QUANT	0	Ach Offset (V)
ACHFILTER	IQUANT	3	Ach Filter
IERANGELOWERLIMIT	IQUANT	2	I/E Range Lower Limit
IERANGEMODE	TOGGLE	F	I/E AutoRange
IERANGE	IQUANT	11	I/E Range
POSFEEDENABLE	TOGGLE	F	Positive Feedback IR Comp
POSFEEDRESISTANCE	QUANT	0	Positive Feedback Resistance (ohm)
ACHSELECT	IQUANT	0	Ach Select
CABLEID	IQUANT	13	Cable ID
DCCALDATE	LABEL	7/31/2020	DC Calibration Date
ACCALDATE	LABEL	7/31/2020	AC Calibration Date
THERMOSELECT	IQUANT	1	Thermo Select
FRAMEWORKVERSION	QUANT	6.33	Framework Version
INSTRUMENTVERSION	LABEL	3.50	Instrument Version
COMPLIANCEVOLTAGE	IQUANT	0	Compliance Voltage
ZCURVE	TABLE
	Pt	Time	Freq	Zreal	Zimag	Zsig	Zmod	Zphz	Idc	Vdc	IERange
	#	s	Hz	ohm	ohm	V	ohm	°	A	V	#
	0	10	300046.9	2.50633	2.237019	1	3.359456	41.75043	1.322478E-005	-0.0001625	11
	1	13	238359.4	2.453458	1.784185	1	3.033607	36.02512	-0.0001135	-0.0003379	11
	2	16	189328.1	2.420644	1.406143	1	2.799421	30.15215	6.292108E-005	0.0002197	11
	3	18	150421.9	2.459112	0.978708	1	2.646715	21.70218	-0.0001222	0.00024	12
	4	22	119484.4	2.424062	0.7577243	1	2.539729	17.35844	-0.0001596	0.0003489	12
	5	26	94921.88	2.389653	0.6617776	1	2.479595	15.47925	1.988652E-005	0.0005454	11
	6	28	75421.88	2.397203	0.4282239	1	2.435151	10.12819	-3.669216E-005	0.000499	12
	7	32	59859.37	2.391569	0.2993456	1	2.41023	7.134439	-8.120385E-005	0.0005145	12
	8	35	47578.12	2.391235	0.1874532	1	2.398571	4.482353	-4.01018E-005	0.0005956	12
	9	39	37828.12	2.394443	0.0875602	1	2.396043	2.094265	-1.667257E-006	0.0006043	12
	10	43	30046.88	2.397904	0.0217147	1	2.398002	0.5188401	-2.672611E-005	0.0006622	11
	11	45	23859.38	2.403466	-0.0776796	1	2.404721	-1.851144	-2.509806E-005	0.000675	11
	12	47	18984.38	2.410739	-0.1784439	1	2.417334	-4.233337	-3.414268E-005	0.0006726	11
	13	50	15046.87	2.418789	-0.2887489	1	2.435963	-6.80761	1.368936E-005	0.0006754	11
	14	52	11953.13	2.430646	-0.4110502	1	2.465157	-9.59856	2.244642E-005	0.0007127	11
	15	54	9515.62	2.44487	-0.5505021	1	2.506081	-12.68945	2.427206E-005	0.0007165	11
	16	57	7546.875	2.463291	-0.7174374	1	2.565642	-16.23829	-4.683337E-006	0.0006902	11
	17	59	5928.309	2.487065	-0.9265559	1	2.654053	-20.43287	1.601879E-005	0.0006923	11
	18	61	4733.456	2.51639	-1.163608	1	2.7724	-24.81636	-3.994057E-005	0.0006669	11
	19	64	3796.875	2.552665	-1.444069	1	2.93282	-29.4973	-2.85393E-005	0.0007563	11
	20	66	2987.132	2.601376	-1.818568	1	3.174011	-34.9566	-1.714485E-005	0.0006775	11
	21	68	2390.625	2.659599	-2.244575	1	3.48017	-40.16277	-3.206709E-005	0.0006519	11
	22	71	1884.191	2.740111	-2.805361	1	3.921512	-45.67413	-3.545979E-005	0.0006704	11
	23	73	1516.544	2.836625	-3.434047	1	4.454113	-50.44229	-7.515816E-007	0.0006359	10
	24	75	1193.986	2.967149	-4.282016	1	5.209571	-55.28065	2.307174E-005	0.0006387	10
	25	78	946.5144	3.130008	-5.303776	1	6.158489	-59.45314	-1.775729E-005	0.0006517	10
	26	80	751.7689	3.345509	-6.548077	1	7.353213	-62.93684	-2.145379E-005	0.0007206	10
	27	82	597.4265	3.619517	-8.0689	1	8.843532	-65.84013	2.313465E-005	0.0006437	10
	28	85	477.4305	3.967276	-9.88602	1	10.65235	-68.13432	-3.638763E-006	0.0007192	10
	29	87	376.6741	4.447791	-12.23241	1	13.01594	-70.01838	3.461743E-007	0.0006598	10
	30	89	298.2954	5.063054	-15.05444	1	15.88303	-71.41136	4.061303E-008	0.000663	10
	31	92	237.7717	5.830147	-18.37911	1	19.28166	-72.40015	-4.814549E-007	0.0006602	10
	32	94	189.0121	6.811257	-22.4399	1	23.45085	-73.11521	-9.171615E-009	0.0006596	10
	33	96	150.2404	8.027122	-27.33208	1	28.48644	-73.63309	3.15018E-007	0.0006593	10
	34	99	119.1737	9.5305	-33.29794	1	34.635	-74.02788	7.541098E-007	0.0006644	10
	35	101	95.0169	11.29578	-40.32275	1	41.87504	-74.35062	1.925488E-007	0.0006613	10
	36	104	75.60484	13.39438	-48.82688	1	50.63076	-74.65977	2.758129E-006	6.208735E-005	9
	37	106	54.50582	17.10155	-64.32368	1	66.55824	-75.11137	2.642616E-006	6.128489E-005	9
	38	109	45.95588	19.40283	-74.30405	1	76.79558	-75.36529	2.968275E-006	6.211838E-005	9
	39	111	37.20238	22.68153	-88.9025	1	91.75024	-75.68755	2.849244E-006	6.658742E-005	9
	40	113	30.04808	26.5701	-106.6366	1	109.897	-76.0088	2.611729E-006	6.508346E-005	9
	41	116	23.91582	31.53276	-129.8633	1	133.6368	-76.35186	2.778993E-006	5.615009E-005	9
	42	118	18.60119	38.0415	-161.2392	1	165.6661	-76.72485	2.722201E-006	7.131392E-005	9
	43	120	15.02404	44.85824	-194.2929	1	199.4041	-76.99939	3.082589E-006	7.344939E-005	9
	44	123	12.01923	53.61784	-236.1884	1	242.1979	-77.20988	2.900831E-006	6.432189E-005	9
	45	125	9.450605	65.53171	-291.8965	1	299.1621	-77.34671	2.926002E-006	5.938038E-005	9
	46	128	7.512019	80.25193	-357.824	1	366.7129	-77.35902	3.11951E-006	6.173734E-005	9
	47	130	5.978954	98.7275	-435.7778	1	446.8215	-77.23486	2.42456E-006	0.0006386	8
	48	133	4.734848	124.216	-535.7034	1	549.9161	-76.94527	2.429395E-006	0.0006664	8
	49	137	3.75601	157.9447	-657.1178	1	675.8331	-76.48477	2.305363E-006	0.0006303	8
	50	140	3.004808	202.092	-798.8569	1	824.0228	-75.80336	2.337773E-006	0.0006621	8
	51	144	2.372217	267.4826	-981.223	1	1017.027	-74.75159	2.339464E-006	0.0007062	8
	52	148	1.878005	354.9598	-1199.721	1	1251.13	-73.51817	2.210215E-006	0.0006811	8
	53	153	1.512097	465.2835	-1434.628	1	1508.193	-72.03091	2.327425E-006	0.0006301	8
	54	158	1.201923	630.4047	-1731.664	1	1842.843	-69.99619	2.261219E-006	0.0006139	8
	55	164	0.956633	851.1234	-2061.606	1	2230.388	-67.56697	2.176718E-006	-2.707086E-006	8
