June 13, 2026   00:39:55
A.C. Impedance
File: e:\chi_data\Data Source:  Experiment
Instrument Model:  CHI660E
Header: 
Note: 

Init E (V) = 0
High Frequency (Hz) = 1e+6
Low Frequency (Hz) = 0.1
Imp SF
Amplitude (V) = 0.005
Quiet Time (sec) = 2
Cycles (.1-1Hz) = 1

Freq/Hz, Z'/ohm, Z"/ohm, Z/ohm, Phase/deg

8.252e+5, 6.226e+0, 1.397e+1, 1.529e+1, 66.0
6.816e+5, 5.728e+0, 1.135e+1, 1.272e+1, 63.2
5.625e+5, 5.103e+0, 9.405e+0, 1.070e+1, 61.5
4.639e+5, 4.851e+0, 7.709e+0, 9.109e+0, 57.8
3.828e+5, 4.641e+0, 6.419e+0, 7.921e+0, 54.1
3.164e+5, 4.541e+0, 5.324e+0, 6.998e+0, 49.5
2.607e+5, 4.439e+0, 4.437e+0, 6.276e+0, 45.0
2.158e+5, 4.369e+0, 3.668e+0, 5.704e+0, 40.0
1.777e+5, 4.314e+0, 3.001e+0, 5.255e+0, 34.8
1.465e+5, 4.280e+0, 2.443e+0, 4.928e+0, 29.7
1.211e+5, 4.239e+0, 1.998e+0, 4.687e+0, 25.2
9.961e+4, 4.213e+0, 1.628e+0, 4.517e+0, 21.1
8.252e+4, 4.196e+0, 1.316e+0, 4.398e+0, 17.4
6.812e+4, 4.187e+0, 1.048e+0, 4.316e+0, 14.1
5.625e+4, 4.182e+0, 8.172e-1, 4.261e+0, 11.1
4.644e+4, 4.185e+0, 6.082e-1, 4.228e+0, 8.3
3.833e+4, 4.194e+0, 4.212e-1, 4.215e+0, 5.7
3.164e+4, 4.203e+0, 2.560e-1, 4.211e+0, 3.5
2.612e+4, 4.214e+0, 1.032e-1, 4.215e+0, 1.4
2.153e+4, 4.227e+0, -4.149e-2, 4.227e+0, -0.6
1.777e+4, 4.244e+0, -1.843e-1, 4.248e+0, -2.5
1.470e+4, 4.266e+0, -3.259e-1, 4.279e+0, -4.4
1.211e+4, 4.292e+0, -4.732e-1, 4.318e+0, -6.3
1.001e+4, 4.318e+0, -6.334e-1, 4.365e+0, -8.3
8.252e+3, 4.350e+0, -8.091e-1, 4.424e+0, -10.5
6.812e+3, 4.386e+0, -1.006e+0, 4.500e+0, -12.9
5.625e+3, 4.432e+0, -1.228e+0, 4.599e+0, -15.5
4.643e+3, 4.485e+0, -1.483e+0, 4.724e+0, -18.3
3.833e+3, 4.547e+0, -1.778e+0, 4.882e+0, -21.4
3.164e+3, 4.620e+0, -2.120e+0, 5.083e+0, -24.6
2.612e+3, 4.703e+0, -2.519e+0, 5.335e+0, -28.2
2.153e+3, 4.799e+0, -2.990e+0, 5.654e+0, -31.9
1.777e+3, 4.912e+0, -3.542e+0, 6.056e+0, -35.8
1.470e+3, 5.048e+0, -4.193e+0, 6.562e+0, -39.7
1.211e+3, 5.209e+0, -4.963e+0, 7.195e+0, -43.6
1.001e+3, 5.403e+0, -5.871e+0, 7.979e+0, -47.4
8.252e+2, 5.637e+0, -6.938e+0, 8.939e+0, -50.9
6.836e+2, 5.916e+0, -8.205e+0, 1.012e+1, -54.2
5.615e+2, 6.252e+0, -9.704e+0, 1.154e+1, -57.2
4.639e+2, 6.660e+0, -1.148e+1, 1.327e+1, -59.9
3.809e+2, 7.144e+0, -1.354e+1, 1.531e+1, -62.2
3.174e+2, 7.721e+0, -1.596e+1, 1.773e+1, -64.2
2.588e+2, 8.422e+0, -1.884e+1, 2.063e+1, -65.9
2.148e+2, 9.262e+0, -2.225e+1, 2.410e+1, -67.4
1.758e+2, 1.024e+1, -2.622e+1, 2.815e+1, -68.7
1.465e+2, 1.133e+1, -3.073e+1, 3.275e+1, -69.8
1.221e+2, 1.266e+1, -3.625e+1, 3.840e+1, -70.8
9.766e+1, 1.430e+1, -4.266e+1, 4.500e+1, -71.5
8.254e+1, 1.619e+1, -4.995e+1, 5.251e+1, -72.0
6.813e+1, 1.829e+1, -5.866e+1, 6.145e+1, -72.7
5.623e+1, 2.064e+1, -6.898e+1, 7.200e+1, -73.3
4.642e+1, 2.330e+1, -8.125e+1, 8.453e+1, -74.0
3.831e+1, 2.641e+1, -9.581e+1, 9.938e+1, -74.6
3.162e+1, 2.998e+1, -1.130e+2, 1.169e+2, -75.1
2.610e+1, 3.417e+1, -1.333e+2, 1.376e+2, -75.6
2.154e+1, 3.904e+1, -1.575e+2, 1.623e+2, -76.1
1.778e+1, 4.460e+1, -1.861e+2, 1.913e+2, -76.5
1.468e+1, 5.099e+1, -2.198e+2, 2.257e+2, -76.9
1.212e+1, 5.821e+1, -2.598e+2, 2.662e+2, -77.4
1.000e+1, 6.668e+1, -3.071e+2, 3.142e+2, -77.7
8.254e+0, 7.641e+1, -3.634e+2, 3.714e+2, -78.1
6.813e+0, 8.718e+1, -4.307e+2, 4.394e+2, -78.6
5.623e+0, 9.917e+1, -5.109e+2, 5.204e+2, -79.0
4.642e+0, 1.123e+2, -6.067e+2, 6.170e+2, -79.5
3.831e+0, 1.274e+2, -7.210e+2, 7.322e+2, -80.0
3.162e+0, 1.446e+2, -8.583e+2, 8.704e+2, -80.4
2.610e+0, 1.646e+2, -1.023e+3, 1.036e+3, -80.9
2.154e+0, 1.841e+2, -1.224e+3, 1.238e+3, -81.4
1.778e+0, 2.048e+2, -1.467e+3, 1.481e+3, -82.1
1.468e+0, 2.324e+2, -1.755e+3, 1.770e+3, -82.5
1.212e+0, 2.697e+2, -2.091e+3, 2.109e+3, -82.7
1.000e+0, 3.196e+2, -2.485e+3, 2.505e+3, -82.7
8.254e-1, 3.801e+2, -2.953e+3, 2.977e+3, -82.7
6.813e-1, 4.497e+2, -3.511e+3, 3.539e+3, -82.7
5.623e-1, 5.314e+2, -4.180e+3, 4.214e+3, -82.8
4.642e-1, 6.303e+2, -4.977e+3, 5.017e+3, -82.8
3.831e-1, 7.509e+2, -5.927e+3, 5.974e+3, -82.8
3.162e-1, 9.003e+2, -7.064e+3, 7.121e+3, -82.7
2.610e-1, 1.087e+3, -8.419e+3, 8.489e+3, -82.6
2.154e-1, 1.315e+3, -1.003e+4, 1.012e+4, -82.5
1.778e-1, 1.591e+3, -1.193e+4, 1.204e+4, -82.4
1.468e-1, 1.930e+3, -1.413e+4, 1.426e+4, -82.2
1.212e-1, 2.369e+3, -1.679e+4, 1.696e+4, -82.0
1.000e-1, 2.924e+3, -1.998e+4, 2.019e+4, -81.7
