EXPLAIN
TAG	EISPOT
TITLE	LABEL	Potentiostatic EIS	Test Identifier
DATE	LABEL	8/3/2020	Date
TIME	LABEL	22:21:46	Time
NOTES	NOTES	1	Notes...
	
PSTAT	PSTAT	REF3000-16137	Potentiostat
VDC	POTEN	0.00000E+000	T	DC Voltage (V)
FREQINIT	QUANT	3.00000E+005	Initial Freq. (Hz)
FREQFINAL	QUANT	1.00000E+000	Final Freq. (Hz)
PTSPERDEC	QUANT	1.00000E+001	Points/decade
VAC	QUANT	5.00000E+001	AC Voltage (mV rms)
AREA	QUANT	1.00000E+000	Sample Area (cm^2)
SPEED	SELECTOR	2	Optimize for:
ZGUESS	QUANT	1.00000E+003	Estimated Z (ohms)
EOC	QUANT	0	Open Circuit (V)
SEQUENCER	TOGGLE	TRUE	Run as Sequence
PSTATMODEL	IQUANT	5	Pstat Model
PSTATSECTION	LABEL	REF3000-16137	Pstat Section
PSTATSERIALNO	LABEL	16137	Pstat Serial Number
CTRLMODE	IQUANT	1	Control Mode
IESTAB	IQUANT	0	I/E Stability
CASPEED	IQUANT	1	Control Amp Speed
CONVENTION	IQUANT	1	Current Convention
ICHRANGE	IQUANT	2	Ich Range
ICHRANGEMODE	TOGGLE	F	Ich Auto Range
ICHOFFSETENABLE	TOGGLE	T	Ich Offset Enable
ICHOFFSET	QUANT	0	Ich Offset (V)
ICHFILTER	IQUANT	3	Ich Filter
VCHRANGE	IQUANT	2	Vch Range
VCHRANGEMODE	TOGGLE	F	Vch Auto Range
VCHOFFSETENABLE	TOGGLE	T	Vch Offset Enable
VCHOFFSET	QUANT	0	Vch Offset (V)
VCHFILTER	IQUANT	3	Vch Filter
ACHRANGE	IQUANT	2	Ach Range
ACHOFFSETENABLE	TOGGLE	F	Ach Offset Enable
ACHOFFSET	QUANT	0	Ach Offset (V)
ACHFILTER	IQUANT	3	Ach Filter
IERANGELOWERLIMIT	IQUANT	2	I/E Range Lower Limit
IERANGEMODE	TOGGLE	F	I/E AutoRange
IERANGE	IQUANT	11	I/E Range
POSFEEDENABLE	TOGGLE	F	Positive Feedback IR Comp
POSFEEDRESISTANCE	QUANT	0	Positive Feedback Resistance (ohm)
ACHSELECT	IQUANT	0	Ach Select
CABLEID	IQUANT	13	Cable ID
DCCALDATE	LABEL	7/31/2020	DC Calibration Date
ACCALDATE	LABEL	7/31/2020	AC Calibration Date
THERMOSELECT	IQUANT	1	Thermo Select
FRAMEWORKVERSION	QUANT	6.33	Framework Version
INSTRUMENTVERSION	LABEL	3.50	Instrument Version
COMPLIANCEVOLTAGE	IQUANT	0	Compliance Voltage
ZCURVE	TABLE
	Pt	Time	Freq	Zreal	Zimag	Zsig	Zmod	Zphz	Idc	Vdc	IERange
	#	s	Hz	ohm	ohm	V	ohm	°	A	V	#
	0	10	300046.9	6.419708	1.24051	1	6.538464	10.93673	-7.465442E-005	0.0002872	10
	1	13	238359.4	6.452661	0.966138	1	6.524589	8.515468	-4.623727E-006	2.364251E-005	10
	2	16	189328.1	6.488051	0.7517352	1	6.531456	6.60908	-1.891606E-006	0.000186	10
	3	19	150421.9	6.530714	0.5772734	1	6.556178	5.051453	-3.171276E-005	0.0004914	10
	4	21	119484.4	6.559286	0.4337966	1	6.573615	3.783731	-7.805233E-005	0.0005786	10
	5	24	94921.88	6.601506	0.3338503	1	6.609942	2.895086	1.083688E-005	0.0005461	10
	6	26	75421.88	6.638321	0.2214502	1	6.642014	1.910642	-2.717218E-005	0.0005652	10
	7	29	59859.37	6.680099	0.119368	1	6.681165	1.023721	-1.818533E-005	0.0006273	10
	8	31	47578.12	6.72459	0.0267444	1	6.724643	0.2278702	-2.500475E-005	0.000614	10
	9	34	37828.12	6.772566	-0.0612091	1	6.772843	-0.5178139	6.470071E-006	0.0006193	10
	10	36	30046.88	6.821842	-0.148585	1	6.82346	-1.247749	1.370538E-005	0.0006342	10
	11	39	23859.38	6.872793	-0.2411576	1	6.877023	-2.009612	2.606337E-005	0.0006593	10
	12	41	18984.38	6.92343	-0.3413227	1	6.931839	-2.822377	1.798357E-005	0.0006486	10
	13	44	15046.87	6.979117	-0.4584952	1	6.994161	-3.758663	-2.616675E-005	0.0006413	10
	14	46	11953.13	7.037896	-0.5936048	1	7.062885	-4.821149	3.637823E-006	0.0006383	10
	15	48	9515.62	7.103598	-0.7517301	1	7.143263	-6.040777	-1.431613E-005	0.0006825	10
	16	50	7546.875	7.175986	-0.9453091	1	7.237982	-7.504494	-2.179212E-005	0.0007443	10
	17	53	5928.309	7.259029	-1.190643	1	7.356028	-9.314849	-2.371852E-005	0.0006716	10
	18	55	4733.456	7.349127	-1.46718	1	7.49415	-11.2901	2.55884E-005	0.0006643	10
	19	57	3796.875	7.451658	-1.794146	1	7.664605	-13.53751	-2.179683E-005	0.0006916	10
	20	60	2987.132	7.574455	-2.229417	1	7.895738	-16.40093	-2.356154E-005	0.0007222	10
	21	62	2390.625	7.708207	-2.722399	1	8.174834	-19.4523	-1.174919E-005	0.000657	10
	22	64	1884.191	7.872712	-3.364561	1	8.561534	-23.14041	-2.318657E-005	0.000724	10
	23	67	1516.544	8.045906	-4.080256	1	9.021369	-26.89057	-2.551846E-005	0.0006759	10
	24	69	1193.986	8.265795	-5.042923	1	9.68269	-31.38717	-1.032977E-005	0.0006672	10
	25	72	946.5144	8.516526	-6.196384	1	10.53216	-36.03858	2.261663E-005	0.0006691	10
	26	74	751.7689	8.80435	-7.611519	1	11.63838	-40.84401	6.587167E-006	0.0006686	10
	27	76	597.4265	9.14587	-9.346066	1	13.07654	-45.62027	1.614681E-005	0.0006737	10
	28	78	477.4305	9.55125	-11.42546	1	14.89187	-50.10565	-9.879365E-007	0.0006785	10
	29	81	376.6741	10.07021	-14.13924	1	17.35878	-54.54088	-1.157234E-006	0.0006789	10
	30	83	298.2954	10.70736	-17.44506	1	20.46894	-58.4594	-9.836582E-007	0.0006787	10
	31	85	237.7717	11.48895	-21.40013	1	24.28912	-61.77027	-6.980137E-007	0.0006777	10
	32	88	189.0121	12.48712	-26.31091	1	29.12374	-64.61105	-2.14944E-007	0.0006827	10
	33	90	150.2404	13.75166	-32.32308	1	35.12677	-66.95296	-6.622786E-007	0.0006797	10
	34	93	119.1737	15.36309	-39.70392	1	42.57259	-68.84649	1.496322E-006	7.802297E-005	9
	35	95	95.0169	17.3898	-48.5414	1	51.56232	-70.29011	1.436143E-006	7.795448E-005	9
	36	98	75.60484	19.99177	-59.37578	1	62.65105	-71.39166	1.405192E-006	7.285312E-005	9
	37	100	54.50582	24.94151	-78.95956	1	82.80515	-72.46987	1.392425E-006	6.655834E-005	9
	38	103	45.95588	28.28197	-91.54803	1	95.8171	-72.8325	1.549953E-006	7.772777E-005	9
	39	105	37.20238	33.25581	-109.7503	1	114.6781	-73.14249	1.369382E-006	7.848189E-005	9
	40	107	30.04808	39.43597	-131.6547	1	137.4341	-73.32489	1.457392E-006	7.170457E-005	9
	41	110	23.91582	47.56924	-159.5941	1	166.5327	-73.40259	1.273491E-006	6.904062E-005	9
	42	112	18.60119	58.70259	-196.9156	1	205.4793	-73.40014	1.603152E-006	7.065001E-005	9
	43	114	15.02404	70.32644	-235.1215	1	245.4138	-73.34772	1.516441E-006	8.153525E-005	9
	44	117	12.01923	84.88504	-282.7248	1	295.1927	-73.28819	1.545095E-006	7.71083E-005	9
	45	119	9.450605	103.9293	-344.5109	1	359.8459	-73.21291	1.484888E-006	7.205598E-005	9
	46	122	7.512019	125.1762	-414.048	1	432.5562	-73.17873	6.47918E-007	0.0007018	8
	47	124	5.978954	151.1426	-499.5948	1	521.957	-73.16784	7.644035E-007	0.0006586	8
	48	127	4.734848	182.7253	-605.9215	1	632.874	-73.21848	7.121175E-007	0.0006307	8
	49	131	3.75601	221.1374	-734.6603	1	767.2206	-73.24788	8.033012E-007	0.000676	8
	50	134	3.004808	266.1025	-885.187	1	924.3195	-73.26832	7.107977E-007	0.0006732	8
	51	138	2.372217	326.903	-1080.061	1	1128.449	-73.16047	6.659622E-007	0.000638	8
	52	142	1.878005	404.6624	-1321.668	1	1382.229	-72.97669	7.368248E-007	0.0006455	8
	53	147	1.512097	495.4597	-1592.296	1	1667.599	-72.71592	6.786846E-007	0.0007267	8
	54	152	1.201923	630.7576	-1942.289	1	2042.141	-72.00881	7.071991E-007	0.0006531	8
	55	158	0.956633	807.716	-2359.151	1	2493.591	-71.10004	5.830836E-007	2.507953E-005	8
