EXPLAIN
TAG	EISPOT
TITLE	LABEL	Potentiostatic EIS	Test Identifier
DATE	LABEL	8/3/2020	Date
TIME	LABEL	22:27:20	Time
NOTES	NOTES	1	Notes...
	
PSTAT	PSTAT	REF3000-16137	Potentiostat
VDC	POTEN	0.00000E+000	T	DC Voltage (V)
FREQINIT	QUANT	3.00000E+005	Initial Freq. (Hz)
FREQFINAL	QUANT	1.00000E+000	Final Freq. (Hz)
PTSPERDEC	QUANT	1.00000E+001	Points/decade
VAC	QUANT	5.00000E+001	AC Voltage (mV rms)
AREA	QUANT	1.00000E+000	Sample Area (cm^2)
SPEED	SELECTOR	2	Optimize for:
ZGUESS	QUANT	1.00000E+003	Estimated Z (ohms)
EOC	QUANT	0	Open Circuit (V)
SEQUENCER	TOGGLE	TRUE	Run as Sequence
PSTATMODEL	IQUANT	5	Pstat Model
PSTATSECTION	LABEL	REF3000-16137	Pstat Section
PSTATSERIALNO	LABEL	16137	Pstat Serial Number
CTRLMODE	IQUANT	1	Control Mode
IESTAB	IQUANT	0	I/E Stability
CASPEED	IQUANT	1	Control Amp Speed
CONVENTION	IQUANT	1	Current Convention
ICHRANGE	IQUANT	2	Ich Range
ICHRANGEMODE	TOGGLE	F	Ich Auto Range
ICHOFFSETENABLE	TOGGLE	T	Ich Offset Enable
ICHOFFSET	QUANT	0	Ich Offset (V)
ICHFILTER	IQUANT	3	Ich Filter
VCHRANGE	IQUANT	2	Vch Range
VCHRANGEMODE	TOGGLE	F	Vch Auto Range
VCHOFFSETENABLE	TOGGLE	T	Vch Offset Enable
VCHOFFSET	QUANT	0	Vch Offset (V)
VCHFILTER	IQUANT	3	Vch Filter
ACHRANGE	IQUANT	2	Ach Range
ACHOFFSETENABLE	TOGGLE	F	Ach Offset Enable
ACHOFFSET	QUANT	0	Ach Offset (V)
ACHFILTER	IQUANT	3	Ach Filter
IERANGELOWERLIMIT	IQUANT	2	I/E Range Lower Limit
IERANGEMODE	TOGGLE	F	I/E AutoRange
IERANGE	IQUANT	11	I/E Range
POSFEEDENABLE	TOGGLE	F	Positive Feedback IR Comp
POSFEEDRESISTANCE	QUANT	0	Positive Feedback Resistance (ohm)
ACHSELECT	IQUANT	0	Ach Select
CABLEID	IQUANT	13	Cable ID
DCCALDATE	LABEL	7/31/2020	DC Calibration Date
ACCALDATE	LABEL	7/31/2020	AC Calibration Date
THERMOSELECT	IQUANT	1	Thermo Select
FRAMEWORKVERSION	QUANT	6.33	Framework Version
INSTRUMENTVERSION	LABEL	3.50	Instrument Version
COMPLIANCEVOLTAGE	IQUANT	0	Compliance Voltage
ZCURVE	TABLE
	Pt	Time	Freq	Zreal	Zimag	Zsig	Zmod	Zphz	Idc	Vdc	IERange
	#	s	Hz	ohm	ohm	V	ohm	°	A	V	#
	0	7	300046.9	16.59903	1.043127	1	16.63177	3.595888	7.873156E-005	0.0001858	10
	1	11	238359.4	16.77605	0.837332	1	16.79694	2.857395	6.146182E-005	0.0002344	10
	2	14	189328.1	16.94196	0.6412081	1	16.95409	2.167458	2.470295E-005	0.0004542	10
	3	16	150421.9	17.08485	0.5008514	1	17.09219	1.679175	-3.00625E-005	0.000494	10
	4	19	119484.4	17.24679	0.3537396	1	17.25041	1.174998	1.636253E-005	0.0005485	10
	5	21	94921.88	17.39641	0.2531673	1	17.39825	0.833758	2.3963E-005	0.0006186	10
	6	24	75421.88	17.55919	0.1412838	1	17.55976	0.4610003	-1.280258E-006	0.0006182	10
	7	27	59859.37	17.72426	0.0441657	1	17.72431	0.1427707	9.550494E-006	0.0006847	10
	8	29	47578.12	17.88903	-0.045204	1	17.88909	-0.1447812	1.557385E-005	0.0006301	10
	9	32	37828.12	18.059	-0.1353527	1	18.05951	-0.4294254	-1.567402E-005	0.0006429	10
	10	34	30046.88	18.2289	-0.2290417	1	18.23034	-0.7198696	-1.911162E-005	0.0007206	10
	11	37	23859.38	18.39871	-0.3328934	1	18.40172	-1.036557	-2.733086E-005	0.0006475	10
	12	39	18984.38	18.56676	-0.449232	1	18.57219	-1.38603	-2.479278E-005	0.0006968	10
	13	41	15046.87	18.73781	-0.5872507	1	18.74701	-1.795086	-1.828159E-005	0.0007172	10
	14	44	11953.13	18.91955	-0.7513465	1	18.93447	-2.274175	2.412278E-005	0.0006431	10
	15	46	9515.62	19.10449	-0.9415628	1	19.12768	-2.821533	6.273455E-006	0.0006374	10
	16	48	7546.875	19.30313	-1.177287	1	19.339	-3.490116	-1.018772E-005	0.0006546	10
	17	51	5928.309	19.51603	-1.475719	1	19.57174	-4.324234	2.53141E-005	0.0006719	10
	18	53	4733.456	19.74055	-1.818993	1	19.82418	-5.264652	1.616797E-005	0.0006371	10
	19	55	3796.875	19.98075	-2.228855	1	20.10468	-6.365039	-2.454202E-005	0.0006583	10
	20	57	2987.132	20.24687	-2.772395	1	20.4358	-7.796999	2.471806E-005	0.0006613	10
	21	60	2390.625	20.53559	-3.384707	1	20.81266	-9.359427	-2.008454E-005	0.0007253	10
	22	62	1884.191	20.87068	-4.192989	1	21.28771	-11.35969	-2.02806E-005	0.0006926	10
	23	64	1516.544	21.23087	-5.076293	1	21.82931	-13.44694	-1.095868E-005	0.0006582	10
	24	67	1193.986	21.66785	-6.270504	1	22.55693	-16.14002	-1.752447E-005	0.0006683	10
	25	69	946.5144	22.15652	-7.688383	1	23.45256	-19.13694	1.619067E-005	0.000643	10
	26	72	751.7689	22.70576	-9.393465	1	24.57211	-22.47508	-1.443618E-005	0.0006927	10
	27	74	597.4265	23.3373	-11.46498	1	26.00145	-26.16363	-5.361539E-006	0.000685	10
	28	76	477.4305	24.04091	-13.92491	1	27.78252	-30.08015	-2.219463E-007	0.0006823	10
	29	79	376.6741	24.87919	-17.10265	1	30.19064	-34.50572	-1.371927E-008	0.0006798	10
	30	81	298.2954	25.8306	-20.95124	1	33.2592	-39.04557	-2.212544E-007	0.0006793	10
	31	83	237.7717	26.91346	-25.54893	1	37.10906	-43.51009	-1.223735E-006	0.0006743	10
	32	86	189.0121	28.14656	-31.23011	1	42.04222	-47.97281	1.105041E-006	8.486854E-005	9
	33	88	150.2404	29.63856	-38.26668	1	48.40231	-52.24126	1.173828E-006	7.708225E-005	9
	34	90	119.1737	31.4398	-47.03109	1	56.57193	-56.23768	1.089327E-006	8.262227E-005	9
	35	93	95.0169	33.58633	-57.58507	1	66.66395	-59.74725	1.116638E-006	8.175484E-005	9
	36	95	75.60484	36.26309	-70.67589	1	79.43609	-62.8381	1.156313E-006	7.436103E-005	9
	37	98	54.50582	41.17774	-94.7205	1	103.284	-66.50402	1.145277E-006	8.267117E-005	9
	38	100	45.95588	44.58371	-110.3861	1	119.0496	-68.00677	1.132875E-006	8.625905E-005	9
	39	103	37.20238	49.64561	-133.2906	1	142.236	-69.57159	1.187169E-006	8.176299E-005	9
	40	105	30.04808	56.02565	-161.1548	1	170.6158	-70.82993	1.069276E-006	8.107977E-005	9
	41	108	23.91582	64.58492	-197.1493	1	207.4585	-71.86151	9.916391E-007	8.016533E-005	9
	42	110	18.60119	76.57043	-245.664	1	257.3205	-72.68839	9.039902E-007	8.678243E-005	9
	43	112	15.02404	89.66244	-295.884	1	309.171	-73.14149	1.204511E-006	7.299351E-005	9
	44	115	12.01923	106.4954	-358.736	1	374.2096	-73.46581	1.388804E-006	7.614461E-005	9
	45	117	9.450605	128.6789	-438.7532	1	457.2336	-73.65447	4.318492E-007	0.0006525	8
	46	119	7.512019	155.6694	-533.238	1	555.4959	-73.72577	4.741965E-007	0.000655	8
	47	122	5.978954	188.6307	-645.9008	1	672.8813	-73.71993	4.628738E-007	0.0006585	8
	48	125	4.734848	230.0394	-785.8135	1	818.7924	-73.68311	3.917274E-007	0.0006523	8
	49	128	3.75601	279.8056	-952.79	1	993.025	-73.63408	4.405947E-007	0.0006603	8
	50	132	3.004808	336.9999	-1146.065	1	1194.586	-73.61405	3.668281E-007	0.0006974	8
	51	136	2.372217	410.2178	-1392.488	1	1451.655	-73.58537	3.887135E-007	0.0006584	8
	52	140	1.878005	499.6857	-1693.841	1	1766.007	-73.56386	4.267E-007	0.0006363	8
	53	145	1.512097	595.7554	-2031.262	1	2116.826	-73.65395	3.989931E-007	0.0007547	8
	54	150	1.201923	720.6197	-2465.806	1	2568.947	-73.70925	4.120494E-007	0.0006365	8
	55	156	0.956633	866.6873	-2992.983	1	3115.942	-73.85041	3.691268E-007	7.512092E-006	8
