EXPLAIN
TAG	EISPOT
TITLE	LABEL	Potentiostatic EIS	Test Identifier
DATE	LABEL	8/3/2020	Date
TIME	LABEL	22:32:51	Time
NOTES	NOTES	1	Notes...
	
PSTAT	PSTAT	REF3000-16137	Potentiostat
VDC	POTEN	0.00000E+000	T	DC Voltage (V)
FREQINIT	QUANT	3.00000E+005	Initial Freq. (Hz)
FREQFINAL	QUANT	1.00000E+000	Final Freq. (Hz)
PTSPERDEC	QUANT	1.00000E+001	Points/decade
VAC	QUANT	5.00000E+001	AC Voltage (mV rms)
AREA	QUANT	1.00000E+000	Sample Area (cm^2)
SPEED	SELECTOR	2	Optimize for:
ZGUESS	QUANT	1.00000E+003	Estimated Z (ohms)
EOC	QUANT	0	Open Circuit (V)
SEQUENCER	TOGGLE	TRUE	Run as Sequence
PSTATMODEL	IQUANT	5	Pstat Model
PSTATSECTION	LABEL	REF3000-16137	Pstat Section
PSTATSERIALNO	LABEL	16137	Pstat Serial Number
CTRLMODE	IQUANT	1	Control Mode
IESTAB	IQUANT	0	I/E Stability
CASPEED	IQUANT	1	Control Amp Speed
CONVENTION	IQUANT	1	Current Convention
ICHRANGE	IQUANT	2	Ich Range
ICHRANGEMODE	TOGGLE	F	Ich Auto Range
ICHOFFSETENABLE	TOGGLE	T	Ich Offset Enable
ICHOFFSET	QUANT	0	Ich Offset (V)
ICHFILTER	IQUANT	3	Ich Filter
VCHRANGE	IQUANT	2	Vch Range
VCHRANGEMODE	TOGGLE	F	Vch Auto Range
VCHOFFSETENABLE	TOGGLE	T	Vch Offset Enable
VCHOFFSET	QUANT	0	Vch Offset (V)
VCHFILTER	IQUANT	3	Vch Filter
ACHRANGE	IQUANT	2	Ach Range
ACHOFFSETENABLE	TOGGLE	F	Ach Offset Enable
ACHOFFSET	QUANT	0	Ach Offset (V)
ACHFILTER	IQUANT	3	Ach Filter
IERANGELOWERLIMIT	IQUANT	2	I/E Range Lower Limit
IERANGEMODE	TOGGLE	F	I/E AutoRange
IERANGE	IQUANT	11	I/E Range
POSFEEDENABLE	TOGGLE	F	Positive Feedback IR Comp
POSFEEDRESISTANCE	QUANT	0	Positive Feedback Resistance (ohm)
ACHSELECT	IQUANT	0	Ach Select
CABLEID	IQUANT	13	Cable ID
DCCALDATE	LABEL	7/31/2020	DC Calibration Date
ACCALDATE	LABEL	7/31/2020	AC Calibration Date
THERMOSELECT	IQUANT	1	Thermo Select
FRAMEWORKVERSION	QUANT	6.33	Framework Version
INSTRUMENTVERSION	LABEL	3.50	Instrument Version
COMPLIANCEVOLTAGE	IQUANT	0	Compliance Voltage
ZCURVE	TABLE
	Pt	Time	Freq	Zreal	Zimag	Zsig	Zmod	Zphz	Idc	Vdc	IERange
	#	s	Hz	ohm	ohm	V	ohm	°	A	V	#
	0	7	300046.9	64.37678	1.027341	1	64.38497	0.9142634	-4.60117E-005	0.0004709	9
	1	10	238359.4	65.30752	0.6941642	1	65.31121	0.6089832	1.813528E-005	-0.0007226	9
	2	13	189328.1	66.33026	0.4706679	1	66.33193	0.406554	-6.871933E-005	0.0022368	9
	3	16	150421.9	67.1584	0.3164749	1	67.15915	0.2699966	-2.813086E-005	-0.0002039	9
	4	18	119484.4	68.03455	0.1777629	1	68.03477	0.1497039	1.624619E-005	-0.000392	9
	5	21	94921.88	68.96676	0.318622	1	68.96749	0.2647009	4.095837E-006	-0.0004009	9
	6	24	75421.88	69.80013	0.1506107	1	69.80029	0.1236293	2.239302E-005	-0.0004929	9
	7	26	59859.37	70.66179	-0.0209489	1	70.66179	-0.0169863	2.166597E-005	-0.0004089	9
	8	29	47578.12	71.589	-0.159392	1	71.58917	-0.1275682	1.608615E-005	-0.0001539	9
	9	31	37828.12	72.521	-0.2921763	1	72.52158	-0.2308349	2.195251E-005	-0.0005228	9
	10	34	30046.88	73.47533	-0.4028023	1	73.47644	-0.3141005	-8.863573E-006	3.902461E-005	9
	11	36	23859.38	74.4017	-0.5146539	1	74.40347	-0.3963219	9.922789E-006	0.0001311	9
	12	38	18984.38	75.27866	-0.667601	1	75.28162	-0.5081084	-1.356218E-005	0.0001718	9
	13	41	15046.87	76.18096	-0.84863	1	76.18569	-0.6382291	-1.717993E-005	0.0004504	9
	14	43	11953.13	77.10733	-1.020515	1	77.11408	-0.7582647	1.69098E-005	-0.0006108	9
	15	45	9515.62	78.06115	-1.278896	1	78.07162	-0.9386078	1.752787E-005	-0.0001477	9
	16	48	7546.875	78.99586	-1.579209	1	79.01164	-1.145249	1.153453E-005	-0.0005517	9
	17	50	5928.309	80.00047	-1.965775	1	80.02461	-1.407591	-1.63657E-005	0.0003987	9
	18	52	4733.456	81.05403	-2.401597	1	81.0896	-1.697154	-1.399058E-005	0.0002005	9
	19	55	3796.875	82.15649	-2.968175	1	82.21008	-2.0691	2.058833E-005	-0.0006068	9
	20	57	2987.132	83.22108	-3.70166	1	83.30336	-2.546828	1.778426E-005	-0.0001142	9
	21	59	2390.625	84.34898	-4.527554	1	84.47041	-3.072485	2.147325E-005	-0.0002327	9
	22	62	1884.191	85.64232	-5.586747	1	85.82435	-3.732315	2.122882E-005	-0.0006094	9
	23	64	1516.544	86.76476	-6.751058	1	87.02701	-4.44915	-1.789151E-005	0.0004474	9
	24	66	1193.986	88.21931	-8.433396	1	88.62149	-5.460643	-1.92271E-005	0.0006001	9
	25	69	946.5144	89.73823	-10.37297	1	90.33575	-6.593639	2.127507E-005	-0.0002242	9
	26	71	751.7689	91.24998	-12.7268	1	92.13322	-7.939927	-1.653544E-005	0.0007865	9
	27	73	597.4265	93.05642	-15.62755	1	94.35951	-9.53308	-1.214284E-005	0.000787	9
	28	76	477.4305	94.91451	-18.99303	1	96.7962	-11.31581	1.128104E-006	8.19259E-005	9
	29	78	376.6741	97.0919	-23.35541	1	99.8615	-13.5255	1.070988E-006	8.131815E-005	9
	30	80	298.2954	99.5402	-28.58175	1	103.5624	-16.02077	1.164557E-006	7.846213E-005	9
	31	83	237.7717	102.3186	-34.7368	1	108.0544	-18.75216	1.079755E-006	7.939978E-005	9
	32	85	189.0121	105.4803	-42.25167	1	113.6279	-21.82929	1.143033E-006	7.563056E-005	9
	33	87	150.2404	109.0704	-51.34132	1	120.55	-25.20717	1.112958E-006	7.621627E-005	9
	34	90	119.1737	113.1588	-62.43775	1	129.2416	-28.88865	1.086495E-006	8.034716E-005	9
	35	92	95.0169	117.7294	-75.59164	1	139.9082	-32.70369	1.016088E-006	8.169892E-005	9
	36	95	75.60484	122.9898	-91.70424	1	153.415	-36.70912	1.031088E-006	7.504051E-005	9
	37	97	54.50582	131.091	-120.9496	1	178.3638	-42.69582	9.850381E-007	8.174344E-005	9
	38	100	45.95588	136.6573	-140.0482	1	195.6751	-45.7021	1.054056E-006	8.045437E-005	9
	39	102	37.20238	143.8922	-167.9772	1	221.1816	-49.41606	9.726364E-007	8.337454E-005	9
	40	104	30.04808	152.3254	-202.202	1	253.1575	-53.00808	1.004957E-006	7.79088E-005	9
	41	107	23.91582	162.7089	-246.8065	1	295.614	-56.60485	1.201955E-006	7.072811E-005	9
	42	109	18.60119	176.0299	-307.8546	1	354.6279	-60.23927	1.01101E-006	8.35015E-005	9
	43	113	15.02404	190.0365	-370.6832	1	416.5572	-62.85735	4.021318E-008	0.000652	8
	44	115	12.01923	207.9739	-452.0171	1	497.5667	-65.29275	2.325028E-007	0.0006616	8
	45	117	9.450605	231.7535	-559.7856	1	605.8627	-67.51025	7.827428E-008	0.0006612	8
	46	120	7.512019	260.211	-686.6644	1	734.3145	-69.24583	1.218548E-007	0.000646	8
	47	123	5.978954	296.3912	-840.9133	1	891.6181	-70.58431	1.525392E-007	0.0006628	8
	48	126	4.734848	342.9111	-1033.621	1	1089.018	-71.64637	6.023013E-008	0.0006394	8
	49	129	3.75601	401.0989	-1267.966	1	1329.894	-72.44614	1.799558E-007	0.0006835	8
	50	132	3.004808	471.4194	-1541.494	1	1611.968	-72.99533	1.024443E-007	0.0006774	8
	51	136	2.372217	565.7806	-1891.777	1	1974.571	-73.34946	1.123831E-007	0.0006496	8
	52	140	1.878005	684.5442	-2322.075	1	2420.875	-73.57457	1.414543E-007	0.0006434	8
	53	145	1.512097	816.6524	-2801.857	1	2918.445	-73.75027	1.103434E-007	0.0007424	8
	54	150	1.201923	995.876	-3417.992	1	3560.118	-73.75584	1.288594E-007	0.0006447	8
	55	156	0.956633	1211.33	-4167.27	1	4339.753	-73.79206	-1.703691E-008	-1.245903E-005	7
