EXPLAIN
TAG	EISPOT
TITLE	LABEL	Potentiostatic EIS	Test Identifier
DATE	LABEL	8/3/2020	Date
TIME	LABEL	22:38:23	Time
NOTES	NOTES	1	Notes...
	
PSTAT	PSTAT	REF3000-16137	Potentiostat
VDC	POTEN	0.00000E+000	T	DC Voltage (V)
FREQINIT	QUANT	3.00000E+005	Initial Freq. (Hz)
FREQFINAL	QUANT	1.00000E+000	Final Freq. (Hz)
PTSPERDEC	QUANT	1.00000E+001	Points/decade
VAC	QUANT	5.00000E+001	AC Voltage (mV rms)
AREA	QUANT	1.00000E+000	Sample Area (cm^2)
SPEED	SELECTOR	2	Optimize for:
ZGUESS	QUANT	1.00000E+003	Estimated Z (ohms)
EOC	QUANT	0	Open Circuit (V)
SEQUENCER	TOGGLE	TRUE	Run as Sequence
PSTATMODEL	IQUANT	5	Pstat Model
PSTATSECTION	LABEL	REF3000-16137	Pstat Section
PSTATSERIALNO	LABEL	16137	Pstat Serial Number
CTRLMODE	IQUANT	1	Control Mode
IESTAB	IQUANT	0	I/E Stability
CASPEED	IQUANT	1	Control Amp Speed
CONVENTION	IQUANT	1	Current Convention
ICHRANGE	IQUANT	2	Ich Range
ICHRANGEMODE	TOGGLE	F	Ich Auto Range
ICHOFFSETENABLE	TOGGLE	T	Ich Offset Enable
ICHOFFSET	QUANT	0	Ich Offset (V)
ICHFILTER	IQUANT	3	Ich Filter
VCHRANGE	IQUANT	2	Vch Range
VCHRANGEMODE	TOGGLE	F	Vch Auto Range
VCHOFFSETENABLE	TOGGLE	T	Vch Offset Enable
VCHOFFSET	QUANT	0	Vch Offset (V)
VCHFILTER	IQUANT	3	Vch Filter
ACHRANGE	IQUANT	2	Ach Range
ACHOFFSETENABLE	TOGGLE	F	Ach Offset Enable
ACHOFFSET	QUANT	0	Ach Offset (V)
ACHFILTER	IQUANT	3	Ach Filter
IERANGELOWERLIMIT	IQUANT	2	I/E Range Lower Limit
IERANGEMODE	TOGGLE	F	I/E AutoRange
IERANGE	IQUANT	11	I/E Range
POSFEEDENABLE	TOGGLE	F	Positive Feedback IR Comp
POSFEEDRESISTANCE	QUANT	0	Positive Feedback Resistance (ohm)
ACHSELECT	IQUANT	0	Ach Select
CABLEID	IQUANT	13	Cable ID
DCCALDATE	LABEL	7/31/2020	DC Calibration Date
ACCALDATE	LABEL	7/31/2020	AC Calibration Date
THERMOSELECT	IQUANT	1	Thermo Select
FRAMEWORKVERSION	QUANT	6.33	Framework Version
INSTRUMENTVERSION	LABEL	3.50	Instrument Version
COMPLIANCEVOLTAGE	IQUANT	0	Compliance Voltage
ZCURVE	TABLE
	Pt	Time	Freq	Zreal	Zimag	Zsig	Zmod	Zphz	Idc	Vdc	IERange
	#	s	Hz	ohm	ohm	V	ohm	°	A	V	#
	0	15	300046.9	489.5783	-60.26468	1	493.2735	-7.017527	-8.88088E-005	0.0020494	9
	1	21	238359.4	514.5529	-54.83883	1	517.4669	-6.083375	-1.252039E-005	0.001478	9
	2	27	189328.1	548.2604	-51.34379	1	550.6593	-5.350063	-1.897867E-005	0.0011936	9
	3	36	150421.9	577.1184	-46.72348	1	579.0067	-4.628569	-1.19081E-005	0.0016757	9
	4	42	119484.4	598.8901	-20.34461	1	599.2356	-1.945619	4.486414E-005	-0.0092491	8
	5	45	94921.88	613.3936	-15.14468	1	613.5805	-1.414344	1.709578E-005	-0.0036311	8
	6	48	75421.88	624.8925	-15.65764	1	625.0886	-1.435333	1.312122E-005	-0.0056931	8
	7	50	59859.37	636.916	-12.68994	1	637.0424	-1.141413	-1.463327E-005	0.0072642	8
	8	53	47578.12	648.1373	-11.46072	1	648.2386	-1.01303	1.304879E-005	-0.0058655	8
	9	55	37828.12	662.5018	-9.403765	1	662.5685	-0.8132203	-2.579288E-006	-0.0025364	8
	10	58	30046.88	675.7714	-9.171631	1	675.8336	-0.7775759	-8.157808E-006	-0.000415	8
	11	60	23859.38	689.3635	-9.430603	1	689.428	-0.7837665	-6.131053E-006	0.0063012	8
	12	63	18984.38	701.8162	-6.972011	1	701.8508	-0.5691713	-9.640969E-006	0.007163	8
	13	65	15046.87	718.2374	-9.68796	1	718.3027	-0.7727882	1.70313E-005	-0.0060423	8
	14	68	11953.13	730.3084	-4.951497	1	730.3252	-0.3884599	8.54938E-006	-0.0057784	8
	15	70	9515.62	745.4362	-5.641407	1	745.4575	-0.433602	-1.652173E-005	0.0043772	8
	16	73	7546.875	759.0392	-6.652528	1	759.0684	-0.5021506	1.637711E-005	-0.0035574	8
	17	75	5928.309	775.9041	-7.011067	1	775.9357	-0.5177104	-1.800932E-005	0.0059232	8
	18	78	4733.456	792.7643	-4.346275	1	792.7762	-0.314117	1.775035E-005	-0.0026981	8
	19	80	3796.875	806.9956	-7.019634	1	807.0261	-0.4983736	1.452623E-005	-0.0064292	8
	20	83	2987.132	824.6976	-9.70879	1	824.7547	-0.6744863	7.458627E-006	0.0024514	8
	21	86	2390.625	841.1398	-8.059955	1	841.1785	-0.5490018	1.805455E-005	-0.0026801	8
	22	88	1884.191	857.0059	-10.68751	1	857.0725	-0.7144843	-1.309843E-005	0.0015421	8
	23	91	1516.544	880.632	-7.922651	1	880.6677	-0.5154505	-1.627292E-005	0.0030607	8
	24	93	1193.986	899.9734	-14.37537	1	900.0882	-0.9151134	-8.257758E-006	-0.0007153	8
	25	96	946.5144	920.0931	-14.76029	1	920.2115	-0.91907	-1.6357E-005	0.0080038	8
	26	99	751.7689	940.1309	-20.75439	1	940.36	-1.26466	-2.707701E-006	-0.0030291	8
	27	102	597.4265	961.905	-28.79389	1	962.336	-1.714593	-1.331588E-005	0.0013761	8
	28	104	477.4305	980.937	-30.81944	1	981.421	-1.799547	-2.641568E-007	0.0006387	8
	29	106	376.6741	1001.051	-37.94131	1	1001.77	-2.170555	-3.287004E-007	0.0006664	8
	30	109	298.2954	1021.724	-46.68618	1	1022.79	-2.616228	-2.659013E-007	0.0006353	8
	31	111	237.7717	1044.122	-57.14247	1	1045.684	-3.132547	-2.89793E-007	0.0006349	8
	32	114	189.0121	1067.532	-70.23985	1	1069.84	-3.764435	-3.603215E-007	0.0006696	8
	33	116	150.2404	1092.189	-86.31204	1	1095.594	-4.518502	-3.473566E-007	0.0006682	8
	34	118	119.1737	1118.304	-106.1249	1	1123.329	-5.421021	-2.962053E-007	0.0006693	8
	35	121	95.0169	1146.314	-129.7493	1	1153.634	-6.457728	-2.90328E-007	0.0006488	8
	36	123	75.60484	1177.552	-158.8098	1	1188.213	-7.680814	-3.135887E-007	0.0006662	8
	37	126	54.50582	1216.016	-211.2359	1	1234.227	-9.8546	-3.251386E-007	0.0006767	8
	38	128	45.95588	1249.488	-245.2492	1	1273.329	-11.10483	-2.96676E-007	0.0006664	8
	39	131	37.20238	1287.271	-294.0475	1	1320.428	-12.86714	-2.82515E-007	0.0006809	8
	40	133	30.04808	1329.962	-353.3482	1	1376.101	-14.87878	-2.535689E-007	0.0006512	8
	41	135	23.91582	1379.044	-428.4412	1	1444.065	-17.25897	-2.935357E-007	0.0006432	8
	42	138	18.60119	1435.67	-528.8477	1	1529.977	-20.22193	-2.458679E-007	0.0006375	8
	43	140	15.02404	1494.199	-631.0872	1	1622.006	-22.89716	-4.172343E-007	0.0006732	8
	44	142	12.01923	1564.726	-757.7322	1	1738.541	-25.83899	-2.219116E-007	0.0006437	8
	45	145	9.450605	1646.479	-920.2399	1	1886.196	-29.20143	-4.560855E-007	0.0006759	8
	46	147	7.512019	1738.078	-1109.841	1	2062.198	-32.56006	-4.269604E-007	0.0006782	8
	47	150	5.978954	1843.598	-1339.424	1	2278.796	-35.99943	-3.953906E-007	0.0006532	8
	48	153	4.734848	1970.558	-1621.54	1	2551.958	-39.4504	-3.990789E-007	0.0006479	8
	49	156	3.75601	2117.922	-1964.266	1	2888.587	-42.84438	-3.39058E-007	0.000689	8
	50	160	3.004808	2282.712	-2364.783	1	3286.788	-46.0117	-3.535606E-007	0.0006541	8
	51	164	2.372217	2486.931	-2882.206	1	3806.828	-49.21051	-3.623971E-007	0.0005864	8
	52	168	1.878005	2725.916	-3528.34	1	4458.677	-52.31113	-5.089483E-008	0.0006416	7
	53	172	1.512097	2992.59	-4244.03	1	5193.014	-54.81121	-7.430421E-008	0.0005698	7
	54	178	1.201923	3329.825	-5203.996	1	6178.131	-57.38647	-6.549393E-008	0.0006532	7
	55	184	0.956633	3731.729	-6366.311	1	7379.412	-59.62252	-8.974126E-008	-1.489122E-005	7
