EXPLAIN
TAG	EISPOT
TITLE	LABEL	Potentiostatic EIS	Test Identifier
DATE	LABEL	8/3/2020	Date
TIME	LABEL	22:30:05	Time
NOTES	NOTES	1	Notes...
	
PSTAT	PSTAT	REF3000-16137	Potentiostat
VDC	POTEN	0.00000E+000	T	DC Voltage (V)
FREQINIT	QUANT	3.00000E+005	Initial Freq. (Hz)
FREQFINAL	QUANT	1.00000E+000	Final Freq. (Hz)
PTSPERDEC	QUANT	1.00000E+001	Points/decade
VAC	QUANT	5.00000E+001	AC Voltage (mV rms)
AREA	QUANT	1.00000E+000	Sample Area (cm^2)
SPEED	SELECTOR	2	Optimize for:
ZGUESS	QUANT	1.00000E+003	Estimated Z (ohms)
EOC	QUANT	0	Open Circuit (V)
SEQUENCER	TOGGLE	TRUE	Run as Sequence
PSTATMODEL	IQUANT	5	Pstat Model
PSTATSECTION	LABEL	REF3000-16137	Pstat Section
PSTATSERIALNO	LABEL	16137	Pstat Serial Number
CTRLMODE	IQUANT	1	Control Mode
IESTAB	IQUANT	0	I/E Stability
CASPEED	IQUANT	1	Control Amp Speed
CONVENTION	IQUANT	1	Current Convention
ICHRANGE	IQUANT	2	Ich Range
ICHRANGEMODE	TOGGLE	F	Ich Auto Range
ICHOFFSETENABLE	TOGGLE	T	Ich Offset Enable
ICHOFFSET	QUANT	0	Ich Offset (V)
ICHFILTER	IQUANT	3	Ich Filter
VCHRANGE	IQUANT	2	Vch Range
VCHRANGEMODE	TOGGLE	F	Vch Auto Range
VCHOFFSETENABLE	TOGGLE	T	Vch Offset Enable
VCHOFFSET	QUANT	0	Vch Offset (V)
VCHFILTER	IQUANT	3	Vch Filter
ACHRANGE	IQUANT	2	Ach Range
ACHOFFSETENABLE	TOGGLE	F	Ach Offset Enable
ACHOFFSET	QUANT	0	Ach Offset (V)
ACHFILTER	IQUANT	3	Ach Filter
IERANGELOWERLIMIT	IQUANT	2	I/E Range Lower Limit
IERANGEMODE	TOGGLE	F	I/E AutoRange
IERANGE	IQUANT	11	I/E Range
POSFEEDENABLE	TOGGLE	F	Positive Feedback IR Comp
POSFEEDRESISTANCE	QUANT	0	Positive Feedback Resistance (ohm)
ACHSELECT	IQUANT	0	Ach Select
CABLEID	IQUANT	13	Cable ID
DCCALDATE	LABEL	7/31/2020	DC Calibration Date
ACCALDATE	LABEL	7/31/2020	AC Calibration Date
THERMOSELECT	IQUANT	1	Thermo Select
FRAMEWORKVERSION	QUANT	6.33	Framework Version
INSTRUMENTVERSION	LABEL	3.50	Instrument Version
COMPLIANCEVOLTAGE	IQUANT	0	Compliance Voltage
ZCURVE	TABLE
	Pt	Time	Freq	Zreal	Zimag	Zsig	Zmod	Zphz	Idc	Vdc	IERange
	#	s	Hz	ohm	ohm	V	ohm	°	A	V	#
	0	6	300046.9	30.91156	0.341193	1	30.91344	0.6323888	-2.513005E-005	-0.0002699	11
	1	11	238359.4	31.40331	0.5716381	1	31.40851	1.042847	5.210471E-006	0.0005904	10
	2	14	189328.1	31.77742	0.4167389	1	31.78016	0.7513515	7.902162E-005	0.0003459	10
	3	16	150421.9	32.17232	0.3095608	1	32.17381	0.5512807	-8.405326E-005	0.0007635	10
	4	19	119484.4	32.48463	0.2043865	1	32.48528	0.3604883	5.828768E-005	0.0007899	10
	5	21	94921.88	32.82103	0.119579	1	32.82125	0.2087485	1.646114E-005	0.0006035	10
	6	24	75421.88	33.17635	0.025775	1	33.17636	0.0445136	2.515051E-005	0.0006269	10
	7	26	59859.37	33.54219	-0.0580963	1	33.54224	-0.0992384	-1.45849E-005	0.0006621	10
	8	29	47578.12	33.90686	-0.140282	1	33.90715	-0.237047	2.718863E-005	0.0006678	10
	9	31	37828.12	34.27135	-0.2207628	1	34.27206	-0.369072	-1.946543E-005	0.0006899	10
	10	34	30046.88	34.65188	-0.3219748	1	34.65337	-0.5323598	-2.364135E-005	0.000645	10
	11	37	23859.38	35.02341	-0.4244924	1	35.02598	-0.694405	-2.597026E-005	0.0007035	10
	12	39	18984.38	35.37999	-0.5495104	1	35.38425	-0.8898278	-1.996879E-005	0.0007169	10
	13	41	15046.87	35.70247	-0.6687655	1	35.70873	-1.073118	-1.438083E-005	0.0005106	9
	14	43	11953.13	36.08064	-0.8373241	1	36.09035	-1.329426	-1.195493E-005	0.0003581	9
	15	46	9515.62	36.47218	-1.06215	1	36.48764	-1.668107	-1.053379E-005	0.0005624	9
	16	48	7546.875	36.87938	-1.324474	1	36.90316	-2.056818	-5.396094E-007	-8.3274E-005	9
	17	50	5928.309	37.29207	-1.670638	1	37.32947	-2.565065	1.699084E-005	-0.0003835	9
	18	53	4733.456	37.72248	-2.0745	1	37.77948	-3.147738	-7.894711E-006	0.0000961	9
	19	55	3796.875	38.1734	-2.540628	1	38.25786	-3.807701	2.864731E-006	-0.0002389	9
	20	57	2987.132	38.67723	-3.14118	1	38.80457	-4.643099	2.710762E-006	0.0002681	9
	21	60	2390.625	39.18912	-3.860688	1	39.37883	-5.626298	8.863535E-006	-0.0003724	9
	22	62	1884.191	39.76464	-4.767797	1	40.04945	-6.837149	-1.493109E-005	0.000491	9
	23	64	1516.544	40.36366	-5.814063	1	40.78025	-8.196621	8.813939E-006	7.83018E-005	9
	24	67	1193.986	41.06004	-7.191866	1	41.68513	-9.93485	-1.317637E-005	0.0003682	9
	25	69	946.5144	41.85068	-8.828082	1	42.77165	-11.91148	-2.435773E-006	0.0004508	9
	26	71	751.7689	42.70496	-10.81329	1	44.05271	-14.20918	-8.119916E-006	0.0001028	9
	27	74	597.4265	43.6627	-13.20302	1	45.61525	-16.82462	-3.133216E-006	-7.838369E-005	9
	28	76	477.4305	44.7462	-16.03152	1	47.53138	-19.71142	1.153535E-006	8.228185E-005	9
	29	78	376.6741	46.02688	-19.65874	1	50.04937	-23.12802	1.163341E-006	7.292407E-005	9
	30	81	298.2954	47.48013	-24.01194	1	53.20654	-26.82692	1.112478E-006	8.124895E-005	9
	31	83	237.7717	49.11635	-29.15609	1	57.11824	-30.69391	1.090528E-006	8.033727E-005	9
	32	85	189.0121	50.99038	-35.49218	1	62.12659	-34.8401	1.07917E-006	7.444868E-005	9
	33	88	150.2404	53.11624	-43.23016	1	68.4849	-39.1414	1.12474E-006	7.514839E-005	9
	34	90	119.1737	55.56409	-52.80633	1	76.65427	-43.54228	1.210998E-006	7.412648E-005	9
	35	93	95.0169	58.33225	-64.3002	1	86.81686	-47.78612	1.092645E-006	7.125823E-005	9
	36	95	75.60484	61.59402	-78.54991	1	99.8194	-51.89864	1.063976E-006	7.524368E-005	9
	37	98	54.50582	67.06462	-104.7857	1	124.4094	-57.38007	1.059835E-006	7.477092E-005	9
	38	100	45.95588	70.82671	-121.9916	1	141.0616	-59.86112	1.170139E-006	8.607175E-005	9
	39	103	37.20238	76.15132	-147.2664	1	165.7903	-62.65656	1.039527E-006	8.695835E-005	9
	40	105	30.04808	82.71794	-178.2471	1	196.5052	-65.10571	1.230983E-006	7.508343E-005	9
	41	107	23.91582	91.36569	-218.5558	1	236.8846	-67.31298	9.966375E-007	7.410318E-005	9
	42	110	18.60119	103.3266	-273.4569	1	292.3269	-69.30077	1.094752E-006	8.127453E-005	9
	43	112	15.02404	116.3482	-330.5415	1	350.4206	-70.6083	9.701147E-007	8.520732E-005	9
	44	114	12.01923	132.8866	-400.9836	1	422.4295	-71.66473	2.945285E-007	0.0006507	8
	45	117	9.450605	156.1072	-495.4052	1	519.4187	-72.50983	1.704054E-007	0.0006627	8
	46	119	7.512019	184.462	-605.2242	1	632.7105	-73.04967	1.921878E-007	0.0006476	8
	47	122	5.978954	219.306	-737.5897	1	769.5022	-73.44132	2.737847E-007	0.0006557	8
	48	125	4.734848	264.1533	-901.4251	1	939.3318	-73.66732	2.255367E-007	0.0006252	8
	49	128	3.75601	319.7424	-1098.748	1	1144.326	-73.77468	3.608742E-007	0.0006739	8
	50	132	3.004808	385.4047	-1327.367	1	1382.186	-73.80919	2.472933E-007	0.0007181	8
	51	135	2.372217	472.6219	-1618.288	1	1685.891	-73.71953	2.833448E-007	0.000619	8
	52	140	1.878005	576.5434	-1973.874	1	2056.351	-73.71759	3.350879E-007	0.0006398	8
	53	144	1.512097	688.3535	-2366.66	1	2464.733	-73.78269	2.865235E-007	0.0007155	8
	54	150	1.201923	840.8917	-2876.443	1	2996.836	-73.70439	3.190807E-007	0.0006607	8
	55	156	0.956633	1017.12	-3485.49	1	3630.865	-73.73193	2.669509E-007	9.272819E-006	8
