EXPLAIN
TAG	EISPOT
TITLE	LABEL	Potentiostatic EIS	Test Identifier
DATE	LABEL	10/12/2021	Date
TIME	LABEL	15:48:22	Time
NOTES	NOTES	1	Notes...
	
PSTAT	PSTAT	REF3000-16137	Potentiostat
VDC	POTEN	0.00000E+000	T	DC Voltage (V)
FREQINIT	QUANT	3.00000E+005	Initial Freq. (Hz)
FREQFINAL	QUANT	1.00000E+000	Final Freq. (Hz)
PTSPERDEC	QUANT	1.00000E+001	Points/decade
VAC	QUANT	5.00000E+001	AC Voltage (mV rms)
AREA	QUANT	1.00000E+000	Sample Area (cm^2)
SPEED	SELECTOR	2	Optimize for:
ZGUESS	QUANT	1.00000E+003	Estimated Z (ohms)
EOC	QUANT	0	Open Circuit (V)
SEQUENCER	TOGGLE	TRUE	Run as Sequence
PSTATMODEL	IQUANT	5	Pstat Model
PSTATSECTION	LABEL	REF3000-16137	Pstat Section
PSTATSERIALNO	LABEL	16137	Pstat Serial Number
CTRLMODE	IQUANT	1	Control Mode
IESTAB	IQUANT	0	I/E Stability
CASPEED	IQUANT	1	Control Amp Speed
CONVENTION	IQUANT	1	Current Convention
ICHRANGE	IQUANT	2	Ich Range
ICHRANGEMODE	TOGGLE	F	Ich Auto Range
ICHOFFSETENABLE	TOGGLE	T	Ich Offset Enable
ICHOFFSET	QUANT	0	Ich Offset (V)
ICHFILTER	IQUANT	3	Ich Filter
VCHRANGE	IQUANT	2	Vch Range
VCHRANGEMODE	TOGGLE	F	Vch Auto Range
VCHOFFSETENABLE	TOGGLE	T	Vch Offset Enable
VCHOFFSET	QUANT	0	Vch Offset (V)
VCHFILTER	IQUANT	3	Vch Filter
ACHRANGE	IQUANT	2	Ach Range
ACHOFFSETENABLE	TOGGLE	F	Ach Offset Enable
ACHOFFSET	QUANT	0	Ach Offset (V)
ACHFILTER	IQUANT	3	Ach Filter
IERANGELOWERLIMIT	IQUANT	2	I/E Range Lower Limit
IERANGEMODE	TOGGLE	F	I/E AutoRange
IERANGE	IQUANT	11	I/E Range
POSFEEDENABLE	TOGGLE	F	Positive Feedback IR Comp
POSFEEDRESISTANCE	QUANT	0	Positive Feedback Resistance (ohm)
ACHSELECT	IQUANT	0	Ach Select
CABLEID	IQUANT	13	Cable ID
DCCALDATE	LABEL	9/10/2021	DC Calibration Date
ACCALDATE	LABEL	9/10/2021	AC Calibration Date
THERMOSELECT	IQUANT	1	Thermo Select
FRAMEWORKVERSION	QUANT	6.33	Framework Version
INSTRUMENTVERSION	LABEL	3.50	Instrument Version
COMPLIANCEVOLTAGE	IQUANT	0	Compliance Voltage
ZCURVE	TABLE
	Pt	Time	Freq	Zreal	Zimag	Zsig	Zmod	Zphz	Idc	Vdc	IERange
	#	s	Hz	ohm	ohm	V	ohm	°	A	V	#
	0	11	300046.9	3.060418	2.379708	1	3.876747	37.86778	6.911044E-005	-0.0010985	10
	1	14	238359.4	3.023304	1.903926	1	3.572856	32.20068	-0.0001081	-0.0013651	10
	2	17	189328.1	3.008731	1.491148	1	3.357974	26.36333	7.843944E-005	-0.0011871	10
	3	20	150421.9	3.054612	0.980851	1	3.208227	17.80208	-8.588751E-005	-0.0007535	12
	4	23	119484.4	2.992599	0.8780934	1	3.118766	16.35283	-6.108441E-005	0.0001684	11
	5	26	94921.88	2.989889	0.6557147	1	3.060947	12.36974	-3.692635E-005	0.0002461	11
	6	28	75421.88	2.988888	0.4713882	1	3.025831	8.962501	-4.507773E-005	0.000239	11
	7	31	59859.37	2.993631	0.3135682	1	3.010009	5.979648	-1.896455E-005	0.0003353	11
	8	33	47578.12	2.999441	0.1739583	1	3.004482	3.31926	-6.300121E-005	0.0003334	11
	9	36	37828.12	3.005222	0.0441629	1	3.005546	0.8419236	-2.421496E-005	0.0003468	11
	10	38	30046.88	3.01472	-0.0811864	1	3.015813	-1.542602	-1.099253E-005	0.0003801	11
	11	41	23859.38	3.025405	-0.2089217	1	3.03261	-3.950333	-3.788566E-005	0.0003453	11
	12	43	18984.38	3.039146	-0.3441477	1	3.058569	-6.460556	-2.998712E-005	0.0003904	11
	13	45	15046.87	3.055327	-0.4962348	1	3.095363	-9.225211	-7.231574E-005	0.0003745	11
	14	48	11953.13	3.072649	-0.6692795	1	3.144695	-12.28814	-3.530632E-005	0.0003661	11
	15	50	9515.62	3.095718	-0.870967	1	3.215906	-15.71372	-4.552033E-005	0.0003797	11
	16	52	7546.875	3.123626	-1.117437	1	3.317485	-19.68401	-6.17464E-005	0.0003791	11
	17	55	5928.309	3.1589	-1.428259	1	3.466781	-24.32954	-3.745401E-005	0.0003845	11
	18	57	4733.456	3.200111	-1.78309	1	3.663348	-29.12639	-4.320893E-005	0.0003787	11
	19	59	3796.875	3.252704	-2.208205	1	3.931444	-34.17191	-2.512807E-005	-0.0001229	10
	20	62	2987.132	3.320333	-2.775512	1	4.327595	-39.89272	-2.485687E-005	-0.0001115	10
	21	64	2390.625	3.397207	-3.425609	1	4.824502	-45.23851	-1.888858E-005	-0.0001379	10
	22	66	1884.191	3.501323	-4.282207	1	5.531415	-50.72904	-2.347233E-005	-0.0001116	10
	23	69	1516.544	3.619433	-5.243061	1	6.371027	-55.38159	7.487675E-006	-0.0001268	10
	24	71	1193.986	3.783163	-6.547453	1	7.561842	-59.98039	1.407968E-005	-0.0001502	10
	25	73	946.5144	3.989645	-8.12136	1	9.048411	-63.83727	2.92004E-006	-0.0001276	10
	26	76	751.7689	4.22254	-10.06359	1	10.91355	-67.23776	-1.981E-005	-0.000108	10
	27	78	597.4265	4.536034	-12.44655	1	13.24735	-69.97618	-8.093639E-007	-0.0001397	10
	28	80	477.4305	4.917216	-15.33183	1	16.10106	-72.21794	-3.394481E-007	-0.0001123	10
	29	83	376.6741	5.425187	-19.08505	1	19.84117	-74.13148	-9.010404E-007	-0.0001108	10
	30	85	298.2954	6.061759	-23.67869	1	24.44228	-75.64063	-1.269943E-006	-0.0001084	10
	31	87	237.7717	6.852084	-29.19408	1	29.98742	-76.79131	-9.226301E-007	-0.0001171	10
	32	90	189.0121	7.886843	-36.08595	1	36.93776	-77.67146	-8.607343E-007	-0.0001101	10
	33	92	150.2404	9.20526	-44.52181	1	45.46348	-78.31822	7.240328E-008	-0.0001241	9
	34	95	119.1737	10.98112	-55.09709	1	56.18073	-78.72836	1.561828E-007	-0.0001273	9
	35	97	95.0169	13.2211	-67.78712	1	69.06441	-78.96366	1.86173E-007	-0.0001301	9
	36	99	75.60484	16.20858	-83.5041	1	85.06264	-79.01519	1.029117E-008	-0.0001332	9
	37	102	54.50582	22.22511	-112.3419	1	114.5193	-78.80942	5.27504E-008	-0.0001302	9
	38	105	45.95588	26.56216	-131.0137	1	133.6793	-78.53902	2.287723E-007	-0.0001252	9
	39	107	37.20238	33.30576	-158.352	1	161.8167	-78.12226	1.533269E-007	-0.0001268	9
	40	109	30.04808	42.05273	-191.57	1	196.1313	-77.61902	1.096801E-007	-0.0001209	9
	41	112	23.91582	54.79458	-234.2845	1	240.6069	-76.83625	-1.441292E-008	-0.0001272	9
	42	114	18.60119	74.30913	-291.4054	1	300.7307	-75.69431	6.897638E-008	-0.0001257	9
	43	116	15.02404	95.8328	-350.2979	1	363.1702	-74.69967	4.730836E-007	-0.0001152	9
	44	119	12.01923	125.7901	-421.3821	1	439.7568	-73.37869	7.058896E-007	-0.0001163	8
	45	121	9.450605	169.7784	-514.0778	1	541.3878	-71.72377	9.028715E-007	-0.0001008	8
	46	124	7.512019	228.1052	-617.1954	1	657.9986	-69.71652	9.266496E-007	-0.0001063	8
	47	127	5.978954	305.4768	-733.8795	1	794.9184	-67.40051	1.00447E-006	-0.000112	8
	48	131	4.734848	411.0095	-866.4232	1	958.967	-64.62151	1.177568E-006	-0.0001015	8
	49	136	3.75601	547.2356	-1005.846	1	1145.073	-61.45137	1.184201E-006	-0.0001154	8
	50	142	3.004808	711.397	-1142.533	1	1345.908	-58.09159	1.233439E-006	-8.290906E-005	8
	51	148	2.372217	922.8962	-1283.357	1	1580.741	-54.27909	1.338244E-006	-5.336931E-005	8
	52	156	1.878005	1166.384	-1411.424	1	1831.003	-50.43008	1.410826E-006	-0.0001406	8
	53	165	1.512097	1424.32	-1506.885	1	2073.497	-46.61346	1.436815E-006	-2.74726E-005	8
	54	175	1.201923	1722.498	-1590.528	1	2344.521	-42.71891	1.450235E-006	-0.0001427	8
	55	188	0.956633	2033.096	-1643.98	1	2614.603	-38.95932	1.290947E-006	-0.0006641	8
