EXPLAIN
TAG	EISPOT
TITLE	LABEL	Potentiostatic EIS	Test Identifier
DATE	LABEL	10/12/2021	Date
TIME	LABEL	16:01:22	Time
NOTES	NOTES	1	Notes...
	
PSTAT	PSTAT	REF3000-16137	Potentiostat
VDC	POTEN	0.00000E+000	T	DC Voltage (V)
FREQINIT	QUANT	3.00000E+005	Initial Freq. (Hz)
FREQFINAL	QUANT	1.00000E+000	Final Freq. (Hz)
PTSPERDEC	QUANT	1.00000E+001	Points/decade
VAC	QUANT	5.00000E+001	AC Voltage (mV rms)
AREA	QUANT	1.00000E+000	Sample Area (cm^2)
SPEED	SELECTOR	2	Optimize for:
ZGUESS	QUANT	1.00000E+003	Estimated Z (ohms)
EOC	QUANT	0	Open Circuit (V)
SEQUENCER	TOGGLE	TRUE	Run as Sequence
PSTATMODEL	IQUANT	5	Pstat Model
PSTATSECTION	LABEL	REF3000-16137	Pstat Section
PSTATSERIALNO	LABEL	16137	Pstat Serial Number
CTRLMODE	IQUANT	1	Control Mode
IESTAB	IQUANT	0	I/E Stability
CASPEED	IQUANT	1	Control Amp Speed
CONVENTION	IQUANT	1	Current Convention
ICHRANGE	IQUANT	2	Ich Range
ICHRANGEMODE	TOGGLE	F	Ich Auto Range
ICHOFFSETENABLE	TOGGLE	T	Ich Offset Enable
ICHOFFSET	QUANT	0	Ich Offset (V)
ICHFILTER	IQUANT	3	Ich Filter
VCHRANGE	IQUANT	2	Vch Range
VCHRANGEMODE	TOGGLE	F	Vch Auto Range
VCHOFFSETENABLE	TOGGLE	T	Vch Offset Enable
VCHOFFSET	QUANT	0	Vch Offset (V)
VCHFILTER	IQUANT	3	Vch Filter
ACHRANGE	IQUANT	2	Ach Range
ACHOFFSETENABLE	TOGGLE	F	Ach Offset Enable
ACHOFFSET	QUANT	0	Ach Offset (V)
ACHFILTER	IQUANT	3	Ach Filter
IERANGELOWERLIMIT	IQUANT	2	I/E Range Lower Limit
IERANGEMODE	TOGGLE	F	I/E AutoRange
IERANGE	IQUANT	11	I/E Range
POSFEEDENABLE	TOGGLE	F	Positive Feedback IR Comp
POSFEEDRESISTANCE	QUANT	0	Positive Feedback Resistance (ohm)
ACHSELECT	IQUANT	0	Ach Select
CABLEID	IQUANT	13	Cable ID
DCCALDATE	LABEL	9/10/2021	DC Calibration Date
ACCALDATE	LABEL	9/10/2021	AC Calibration Date
THERMOSELECT	IQUANT	1	Thermo Select
FRAMEWORKVERSION	QUANT	6.33	Framework Version
INSTRUMENTVERSION	LABEL	3.50	Instrument Version
COMPLIANCEVOLTAGE	IQUANT	0	Compliance Voltage
ZCURVE	TABLE
	Pt	Time	Freq	Zreal	Zimag	Zsig	Zmod	Zphz	Idc	Vdc	IERange
	#	s	Hz	ohm	ohm	V	ohm	°	A	V	#
	0	10	300046.9	4.702984	2.361811	1	5.262719	26.66553	2.125031E-005	-0.0007025	10
	1	13	238359.4	4.694803	1.882285	1	5.05808	21.8473	-9.253422E-005	-0.0009468	10
	2	16	189328.1	4.681542	1.47905	1	4.909626	17.53301	-7.041993E-006	-0.0008122	10
	3	19	150421.9	4.669601	1.138329	1	4.806346	13.70004	2.952854E-006	-0.0005177	10
	4	21	119484.4	4.674156	0.8797292	1	4.756223	10.65902	2.509914E-005	-0.0002888	10
	5	24	94921.88	4.682783	0.666779	1	4.730016	8.103841	-2.566584E-006	-0.0002949	10
	6	26	75421.88	4.688327	0.4766896	1	4.712499	5.805645	-9.154318E-006	-0.0002293	10
	7	29	59859.37	4.697064	0.3105815	1	4.707322	3.783032	-6.952871E-006	-0.0002456	10
	8	31	47578.12	4.70796	0.1635089	1	4.710798	1.9891	-8.533156E-006	-0.0001543	10
	9	34	37828.12	4.720774	0.0263249	1	4.720847	0.3195002	-1.964134E-005	-0.0001752	10
	10	37	30046.88	4.737499	-0.1069826	1	4.738707	-1.293638	4.385273E-006	-0.0001822	10
	11	39	23859.38	4.755414	-0.2425245	1	4.761595	-2.919535	1.110036E-005	-0.0001271	10
	12	41	18984.38	4.774295	-0.3859244	1	4.789868	-4.621387	2.250494E-005	-0.0001473	10
	13	44	15046.87	4.795728	-0.5478091	1	4.826914	-6.516569	2.254476E-005	-0.0001507	10
	14	46	11953.13	4.821404	-0.7327527	1	4.876768	-8.641633	7.417147E-006	-0.0001454	10
	15	48	9515.62	4.85016	-0.9498311	1	4.94229	-11.08029	-2.908691E-005	-0.0001223	10
	16	51	7546.875	4.885509	-1.212872	1	5.033812	-13.94232	-1.93963E-005	-8.799206E-005	10
	17	53	5928.309	4.926942	-1.548105	1	5.164435	-17.44336	1.615471E-005	-0.0001269	10
	18	55	4733.456	4.974746	-1.931364	1	5.336503	-21.21789	1.972483E-005	-0.0001311	10
	19	58	3796.875	5.032612	-2.387025	1	5.570016	-25.37551	1.91617E-005	-0.0001453	10
	20	60	2987.132	5.10685	-3.002655	1	5.924175	-30.45409	-2.383634E-005	-0.0001076	10
	21	62	2390.625	5.192507	-3.706495	1	6.379673	-35.51986	-9.63125E-006	-8.57654E-005	10
	22	65	1884.191	5.304962	-4.634312	1	7.044109	-41.13983	-2.419181E-005	-0.0001068	10
	23	67	1516.544	5.432009	-5.677401	1	7.857455	-46.26538	2.268957E-005	-0.0001335	10
	24	69	1193.986	5.605538	-7.09365	1	9.041124	-51.68353	1.266566E-005	-0.0001448	10
	25	72	946.5144	5.821329	-8.806665	1	10.55676	-56.53474	-1.916102E-005	-8.948422E-005	10
	26	74	751.7689	6.068479	-10.91116	1	12.48518	-60.91842	-4.38591E-006	-0.0001232	10
	27	76	597.4265	6.393889	-13.50836	1	14.94516	-64.67049	1.660092E-005	-0.0001315	10
	28	79	477.4305	6.787813	-16.63405	1	17.96569	-67.80123	-1.333287E-006	-0.0001097	10
	29	81	376.6741	7.301371	-20.71297	1	21.96218	-70.58233	-7.014086E-007	-0.0001198	10
	30	83	298.2954	7.931164	-25.70707	1	26.90273	-72.85392	-9.913281E-007	-0.0001139	10
	31	86	237.7717	8.698571	-31.7028	1	32.8745	-74.65685	-1.417242E-006	-0.0001168	10
	32	88	189.0121	9.67035	-39.2187	1	40.39334	-76.1486	-1.869141E-006	-0.0001165	10
	33	91	150.2404	10.87757	-48.42612	1	49.63276	-77.34023	-6.615005E-009	-0.0001232	9
	34	93	119.1737	12.44524	-60.02201	1	61.29866	-78.28602	1.014974E-007	-0.0001276	9
	35	95	95.0169	14.38695	-73.96967	1	75.3558	-78.99351	3.662835E-008	-0.0001225	9
	36	98	75.60484	16.90108	-91.35127	1	92.90157	-79.51812	1.457999E-008	-0.0001196	9
	37	100	54.50582	21.81525	-123.4695	1	125.3819	-79.98009	4.610165E-009	-0.0001271	9
	38	103	45.95588	25.24159	-144.4974	1	146.6855	-80.09125	1.36043E-007	-0.0001257	9
	39	105	37.20238	30.48396	-175.3255	1	177.9559	-80.13655	7.423147E-008	-0.0001179	9
	40	108	30.04808	37.14961	-213.1078	1	216.3216	-80.1114	3.481554E-008	-0.0001181	9
	41	110	23.91582	46.60241	-262.2755	1	266.3836	-79.92456	-3.519231E-008	-0.0001227	9
	42	112	18.60119	60.21358	-329.1652	1	334.6272	-79.63361	-1.375133E-008	-0.0001207	9
	43	115	15.02404	74.88253	-398.7454	1	405.7158	-79.364	1.268478E-007	-0.0001238	9
	44	117	12.01923	94.60802	-485.2223	1	494.3595	-78.96696	3.584054E-007	-0.000119	8
	45	122	9.450605	122.6451	-601.4204	1	613.7983	-78.47395	5.132579E-007	-0.0001141	8
	46	124	7.512019	158.4768	-737.3907	1	754.2281	-77.87074	5.394469E-007	-0.000101	8
	47	127	5.978954	204.3349	-901.6969	1	924.5594	-77.23177	5.588391E-007	-0.0001163	8
	48	130	4.734848	268.0542	-1106.249	1	1138.262	-76.37924	6.291384E-007	-8.34679E-005	8
	49	133	3.75601	354.3201	-1352.012	1	1397.669	-75.31481	5.856636E-007	-0.0001193	8
	50	136	3.004808	464.359	-1635.325	1	1699.976	-74.14783	6.494696E-007	-0.0000953	8
	51	141	2.372217	630.306	-1991.294	1	2088.669	-72.43581	6.374497E-007	-5.231022E-005	8
	52	145	1.878005	846.8005	-2409.97	1	2554.413	-70.63985	6.23153E-007	-0.0001263	8
	53	150	1.512097	1107.94	-2855.222	1	3062.65	-68.79175	6.863233E-007	-0.0001171	8
	54	161	1.201923	1487.482	-3405.299	1	3716.001	-66.40362	6.664246E-007	-0.0001397	8
	55	174	0.956633	1984.537	-4001.563	1	4466.642	-63.62132	1.257569E-007	-0.0006536	7
