EXPLAIN
TAG	EISPOT
TITLE	LABEL	Potentiostatic EIS	Test Identifier
DATE	LABEL	10/12/2021	Date
TIME	LABEL	15:54:58	Time
NOTES	NOTES	1	Notes...
	
PSTAT	PSTAT	REF3000-16137	Potentiostat
VDC	POTEN	0.00000E+000	T	DC Voltage (V)
FREQINIT	QUANT	3.00000E+005	Initial Freq. (Hz)
FREQFINAL	QUANT	1.00000E+000	Final Freq. (Hz)
PTSPERDEC	QUANT	1.00000E+001	Points/decade
VAC	QUANT	5.00000E+001	AC Voltage (mV rms)
AREA	QUANT	1.00000E+000	Sample Area (cm^2)
SPEED	SELECTOR	2	Optimize for:
ZGUESS	QUANT	1.00000E+003	Estimated Z (ohms)
EOC	QUANT	0	Open Circuit (V)
SEQUENCER	TOGGLE	TRUE	Run as Sequence
PSTATMODEL	IQUANT	5	Pstat Model
PSTATSECTION	LABEL	REF3000-16137	Pstat Section
PSTATSERIALNO	LABEL	16137	Pstat Serial Number
CTRLMODE	IQUANT	1	Control Mode
IESTAB	IQUANT	0	I/E Stability
CASPEED	IQUANT	1	Control Amp Speed
CONVENTION	IQUANT	1	Current Convention
ICHRANGE	IQUANT	2	Ich Range
ICHRANGEMODE	TOGGLE	F	Ich Auto Range
ICHOFFSETENABLE	TOGGLE	T	Ich Offset Enable
ICHOFFSET	QUANT	0	Ich Offset (V)
ICHFILTER	IQUANT	3	Ich Filter
VCHRANGE	IQUANT	2	Vch Range
VCHRANGEMODE	TOGGLE	F	Vch Auto Range
VCHOFFSETENABLE	TOGGLE	T	Vch Offset Enable
VCHOFFSET	QUANT	0	Vch Offset (V)
VCHFILTER	IQUANT	3	Vch Filter
ACHRANGE	IQUANT	2	Ach Range
ACHOFFSETENABLE	TOGGLE	F	Ach Offset Enable
ACHOFFSET	QUANT	0	Ach Offset (V)
ACHFILTER	IQUANT	3	Ach Filter
IERANGELOWERLIMIT	IQUANT	2	I/E Range Lower Limit
IERANGEMODE	TOGGLE	F	I/E AutoRange
IERANGE	IQUANT	11	I/E Range
POSFEEDENABLE	TOGGLE	F	Positive Feedback IR Comp
POSFEEDRESISTANCE	QUANT	0	Positive Feedback Resistance (ohm)
ACHSELECT	IQUANT	0	Ach Select
CABLEID	IQUANT	13	Cable ID
DCCALDATE	LABEL	9/10/2021	DC Calibration Date
ACCALDATE	LABEL	9/10/2021	AC Calibration Date
THERMOSELECT	IQUANT	1	Thermo Select
FRAMEWORKVERSION	QUANT	6.33	Framework Version
INSTRUMENTVERSION	LABEL	3.50	Instrument Version
COMPLIANCEVOLTAGE	IQUANT	0	Compliance Voltage
ZCURVE	TABLE
	Pt	Time	Freq	Zreal	Zimag	Zsig	Zmod	Zphz	Idc	Vdc	IERange
	#	s	Hz	ohm	ohm	V	ohm	°	A	V	#
	0	10	300046.9	3.728823	2.383494	1	4.425513	32.58705	3.313686E-005	-0.0008732	10
	1	13	238359.4	3.683505	1.890733	1	4.14042	27.17131	7.973687E-007	-0.0011748	10
	2	16	189328.1	3.670182	1.489746	1	3.961007	22.09249	-2.692663E-005	-0.000899	10
	3	19	150421.9	3.662834	1.166022	1	3.843951	17.65829	3.232928E-005	-0.0005405	10
	4	22	119484.4	3.661324	0.8908027	1	3.768132	13.67442	-5.753095E-005	-0.0004279	10
	5	24	94921.88	3.664214	0.6747405	1	3.725821	10.43375	1.011866E-006	-0.0003797	10
	6	27	75421.88	3.667916	0.4845698	1	3.699786	7.525787	3.483958E-005	-0.0003154	10
	7	29	59859.37	3.67388	0.3206183	1	3.687843	4.987549	-1.048479E-005	-0.0002275	10
	8	32	47578.12	3.680749	0.1753151	1	3.684922	2.726953	-2.256739E-005	-0.0002181	10
	9	34	37828.12	3.690914	0.041376	1	3.691146	0.6422716	1.725683E-006	-0.0001923	10
	10	37	30046.88	3.702986	-0.0889267	1	3.704054	-1.375685	-8.757882E-006	-0.0001348	10
	11	39	23859.38	3.716843	-0.2216632	1	3.723447	-3.412934	-7.763089E-006	-0.0001449	10
	12	42	18984.38	3.73224	-0.3619189	1	3.749747	-5.538708	1.834966E-005	-0.0001303	10
	13	44	15046.87	3.750197	-0.519622	1	3.786025	-7.888595	1.190641E-005	-0.0001171	10
	14	46	11953.13	3.771152	-0.6990988	1	3.835405	-10.50231	-2.676078E-005	-0.000122	10
	15	49	9515.62	3.796422	-0.9084795	1	3.903608	-13.45775	2.208686E-005	-0.0001232	10
	16	51	7546.875	3.826019	-1.162269	1	3.998661	-16.89774	2.162136E-005	-0.0001432	10
	17	53	5928.309	3.864499	-1.485472	1	4.140166	-21.02623	2.255559E-005	-0.0001389	10
	18	55	4733.456	3.908594	-1.854313	1	4.326151	-25.38058	1.308452E-005	-0.0001511	10
	19	58	3796.875	3.961568	-2.295223	1	4.578435	-30.08682	-9.046411E-006	-9.27107E-005	10
	20	60	2987.132	4.031493	-2.884561	1	4.957179	-35.58398	-2.573328E-005	-0.0001062	10
	21	62	2390.625	4.112872	-3.560204	1	5.43974	-40.88027	-1.638463E-005	-8.656213E-005	10
	22	65	1884.191	4.219231	-4.450584	1	6.132668	-46.52857	1.975463E-005	-0.0001378	10
	23	67	1516.544	4.34059	-5.451828	1	6.968727	-51.4742	-2.720409E-005	-0.0001072	10
	24	69	1193.986	4.508628	-6.809402	1	8.166742	-56.49073	5.568139E-006	-0.0001483	10
	25	72	946.5144	4.714557	-8.454515	1	9.68018	-60.85431	-2.178266E-005	-0.0000968	10
	26	74	751.7689	4.962122	-10.46741	1	11.58401	-64.63651	-2.835674E-006	-0.0001481	10
	27	76	597.4265	5.27172	-12.96073	1	13.99184	-67.86618	1.998035E-005	-0.0001374	10
	28	79	477.4305	5.656366	-15.95681	1	16.92969	-70.48161	-8.897553E-007	-0.0001134	10
	29	81	376.6741	6.16008	-19.86687	1	20.79998	-72.77301	2.016252E-006	-0.0001611	10
	30	83	298.2954	6.786822	-24.65544	1	25.57248	-74.60954	-1.547693E-006	-0.0001105	10
	31	86	237.7717	7.550902	-30.40318	1	31.32681	-76.05228	-2.135879E-006	-0.0001152	10
	32	88	189.0121	8.537319	-37.60479	1	38.56172	-77.2091	-1.976664E-006	-0.000116	10
	33	91	150.2404	9.77477	-46.41886	1	47.43687	-78.10853	-3.500863E-008	-0.0001259	9
	34	93	119.1737	11.41616	-57.51045	1	58.63259	-78.77241	-4.153037E-009	-0.0001248	9
	35	95	95.0169	13.45944	-70.82989	1	72.09736	-79.24065	-4.879475E-008	-0.0001272	9
	36	98	75.60484	16.15246	-87.39187	1	88.87205	-79.52831	-6.970561E-008	-0.0001241	9
	37	100	54.50582	21.47397	-117.8877	1	119.8276	-79.67641	-3.982166E-008	-0.0001238	9
	38	103	45.95588	25.28731	-137.7895	1	140.0907	-79.60072	-8.239155E-009	-0.0001204	9
	39	105	37.20238	31.10123	-166.8726	1	169.7462	-79.44251	3.665916E-007	-0.0001731	9
	40	108	30.04808	38.44675	-202.2828	1	205.9041	-79.23847	6.172009E-009	-0.0001273	9
	41	110	23.91582	49.16222	-248.3826	1	253.2012	-78.80418	-1.711184E-007	-0.0001287	9
	42	112	18.60119	65.15809	-311.0767	1	317.8275	-78.16986	-4.628748E-008	-0.0001222	9
	43	115	15.02404	82.51275	-376.0397	1	384.986	-77.62398	5.863841E-008	-0.0001278	9
	44	117	12.01923	105.9203	-455.7278	1	467.875	-76.91561	4.657791E-007	-0.0001186	8
	45	119	9.450605	140.6056	-562.032	1	579.353	-75.95439	6.286107E-007	-0.000129	8
	46	122	7.512019	185.8179	-685.1225	1	709.874	-74.82537	7.055214E-007	-0.0001315	8
	47	125	5.978954	243.5854	-832.2631	1	867.1769	-73.68639	7.228402E-007	-0.0001132	8
	48	129	4.734848	327.4436	-1010.71	1	1062.429	-72.04903	7.310292E-007	-0.0001218	8
	49	134	3.75601	441.0355	-1217.04	1	1294.487	-70.0803	7.807484E-007	-0.0001019	8
	50	139	3.004808	587.5764	-1443.764	1	1558.75	-67.85488	8.481815E-007	-0.0001721	8
	51	146	2.372217	796.5036	-1711.454	1	1887.722	-65.04293	8.393527E-007	-0.0002135	8
	52	150	1.878005	1059.312	-1999.479	1	2262.755	-62.08563	8.906505E-007	-0.0001032	8
	53	159	1.512097	1370.488	-2274.482	1	2655.467	-58.92895	8.801827E-007	-0.0001913	8
	54	170	1.201923	1773.852	-2576.917	1	3128.427	-55.45796	9.370526E-007	-8.425953E-005	8
	55	182	0.956633	2247.196	-2851.314	1	3630.41	-51.75742	8.818614E-007	-0.0006593	8
