EXPLAIN
TAG	EISPOT
TITLE	LABEL	Potentiostatic EIS	Test Identifier
DATE	LABEL	10/12/2021	Date
TIME	LABEL	16:40:53	Time
NOTES	NOTES	1	Notes...
	
PSTAT	PSTAT	REF3000-16137	Potentiostat
VDC	POTEN	0.00000E+000	T	DC Voltage (V)
FREQINIT	QUANT	3.00000E+005	Initial Freq. (Hz)
FREQFINAL	QUANT	1.00000E+000	Final Freq. (Hz)
PTSPERDEC	QUANT	1.00000E+001	Points/decade
VAC	QUANT	5.00000E+001	AC Voltage (mV rms)
AREA	QUANT	1.00000E+000	Sample Area (cm^2)
SPEED	SELECTOR	2	Optimize for:
ZGUESS	QUANT	1.00000E+003	Estimated Z (ohms)
EOC	QUANT	0	Open Circuit (V)
SEQUENCER	TOGGLE	TRUE	Run as Sequence
PSTATMODEL	IQUANT	5	Pstat Model
PSTATSECTION	LABEL	REF3000-16137	Pstat Section
PSTATSERIALNO	LABEL	16137	Pstat Serial Number
CTRLMODE	IQUANT	1	Control Mode
IESTAB	IQUANT	0	I/E Stability
CASPEED	IQUANT	1	Control Amp Speed
CONVENTION	IQUANT	1	Current Convention
ICHRANGE	IQUANT	2	Ich Range
ICHRANGEMODE	TOGGLE	F	Ich Auto Range
ICHOFFSETENABLE	TOGGLE	T	Ich Offset Enable
ICHOFFSET	QUANT	0	Ich Offset (V)
ICHFILTER	IQUANT	3	Ich Filter
VCHRANGE	IQUANT	2	Vch Range
VCHRANGEMODE	TOGGLE	F	Vch Auto Range
VCHOFFSETENABLE	TOGGLE	T	Vch Offset Enable
VCHOFFSET	QUANT	0	Vch Offset (V)
VCHFILTER	IQUANT	3	Vch Filter
ACHRANGE	IQUANT	2	Ach Range
ACHOFFSETENABLE	TOGGLE	F	Ach Offset Enable
ACHOFFSET	QUANT	0	Ach Offset (V)
ACHFILTER	IQUANT	3	Ach Filter
IERANGELOWERLIMIT	IQUANT	2	I/E Range Lower Limit
IERANGEMODE	TOGGLE	F	I/E AutoRange
IERANGE	IQUANT	11	I/E Range
POSFEEDENABLE	TOGGLE	F	Positive Feedback IR Comp
POSFEEDRESISTANCE	QUANT	0	Positive Feedback Resistance (ohm)
ACHSELECT	IQUANT	0	Ach Select
CABLEID	IQUANT	13	Cable ID
DCCALDATE	LABEL	9/10/2021	DC Calibration Date
ACCALDATE	LABEL	9/10/2021	AC Calibration Date
THERMOSELECT	IQUANT	1	Thermo Select
FRAMEWORKVERSION	QUANT	6.33	Framework Version
INSTRUMENTVERSION	LABEL	3.50	Instrument Version
COMPLIANCEVOLTAGE	IQUANT	0	Compliance Voltage
ZCURVE	TABLE
	Pt	Time	Freq	Zreal	Zimag	Zsig	Zmod	Zphz	Idc	Vdc	IERange
	#	s	Hz	ohm	ohm	V	ohm	°	A	V	#
	0	9	300046.9	290.7469	-26.84342	1	291.9834	-5.274921	-1.861562E-005	0.000828	9
	1	13	238359.4	296.8215	-23.65792	1	297.7628	-4.557079	8.687937E-005	-0.0031173	9
	2	19	189328.1	304.0832	-21.01694	1	304.8086	-3.953753	-0.0000992	0.0033261	9
	3	25	150421.9	310.6255	-21.72356	1	311.3842	-4.000461	-2.096193E-005	-0.0001217	10
	4	31	119484.4	316.7181	-19.84658	1	317.3393	-3.58565	-5.93787E-005	-3.956096E-005	10
	5	39	94921.88	323.3662	-16.19507	1	323.7715	-2.867136	-2.055005E-005	0.0001132	9
	6	43	75421.88	326.2406	-15.26206	1	326.5974	-2.678436	2.144285E-005	-0.0010468	9
	7	45	59859.37	329.9861	-13.80462	1	330.2747	-2.395513	-2.431723E-005	0.0003129	9
	8	48	47578.12	333.3524	-13.50172	1	333.6258	-2.319373	1.020105E-006	0.0003702	9
	9	50	37828.12	337.1045	-13.53962	1	337.3763	-2.300018	2.450413E-005	-0.0005193	9
	10	53	30046.88	341.0544	-12.7236	1	341.2917	-2.136523	2.822668E-005	-0.0008968	9
	11	55	23859.38	344.3144	-13.18058	1	344.5666	-2.192249	-1.133727E-005	-0.0002817	9
	12	58	18984.38	347.8773	-13.87328	1	348.1538	-2.283734	-9.888669E-006	0.0006643	9
	13	60	15046.87	352.0063	-14.04006	1	352.2862	-2.284079	-1.784889E-005	-4.662979E-005	9
	14	63	11953.13	355.0864	-13.5008	1	355.343	-2.177404	-2.070197E-005	0.0001216	9
	15	65	9515.62	360.3842	-14.48419	1	360.6751	-2.301534	-2.588395E-005	0.0006795	9
	16	68	7546.875	364.9026	-15.13926	1	365.2165	-2.375754	7.506676E-006	-0.0008903	9
	17	70	5928.309	367.323	-15.382	1	367.6449	-2.397915	-1.254616E-005	0.0021744	8
	18	72	4733.456	373.5815	-16.41077	1	373.9417	-2.515284	-2.302642E-005	0.0008185	9
	19	75	3796.875	377.8342	-16.34113	1	378.1874	-2.476469	4.329809E-008	0.00039	9
	20	77	2987.132	380.9083	-18.14302	1	381.3402	-2.726991	1.440539E-005	-0.003843	8
	21	80	2390.625	386.4191	-20.72686	1	386.9746	-3.070305	1.200237E-005	-0.0040329	8
	22	82	1884.191	390.3708	-20.05301	1	390.8855	-2.94065	-7.573899E-006	-0.000537	8
	23	84	1516.544	394.6428	-22.73927	1	395.2974	-3.297729	-1.352337E-005	0.0041048	8
	24	87	1193.986	400.2592	-24.82173	1	401.0281	-3.548604	6.755371E-006	-0.0050282	8
	25	89	946.5144	405.3566	-27.00666	1	406.2552	-3.811667	6.800602E-006	0.0007112	8
	26	91	751.7689	409.4641	-32.10674	1	410.7209	-4.483481	-7.635244E-006	-0.0004631	8
	27	94	597.4265	416.1829	-35.64791	1	417.7068	-4.895688	-1.122629E-005	0.0052773	8
	28	96	477.4305	421.1685	-39.92032	1	423.0562	-5.414587	-1.722955E-008	-0.0001165	8
	29	98	376.6741	426.786	-46.06786	1	429.2652	-6.16073	1.196076E-008	-0.000133	8
	30	101	298.2954	432.5995	-53.59239	1	435.9065	-7.06208	1.01207E-008	-0.00012	8
	31	103	237.7717	438.7406	-62.64909	1	443.1909	-8.126501	1.4738E-008	-0.0001275	8
	32	106	189.0121	445.2657	-73.93077	1	451.3616	-9.427239	7.436828E-009	-0.000128	8
	33	108	150.2404	452.2091	-87.84291	1	460.662	-10.99296	2.377052E-008	-0.0001602	8
	34	110	119.1737	459.6345	-105.1496	1	471.5085	-12.8857	-6.848332E-009	-0.0001147	8
	35	113	95.0169	467.4937	-126.0128	1	484.1793	-15.08553	-1.995284E-009	-0.0001105	8
	36	115	75.60484	476.2355	-151.9284	1	499.8825	-17.69369	-8.588277E-009	-0.0001107	8
	37	118	54.50582	488.7605	-199.8103	1	528.0255	-22.23525	-3.044848E-008	-0.0001177	8
	38	120	45.95588	497.4673	-231.2223	1	548.5776	-24.92896	-3.288945E-008	-0.0001079	8
	39	123	37.20238	508.3507	-277.5663	1	579.1921	-28.63513	-2.932525E-008	-0.0001115	8
	40	125	30.04808	520.6724	-334.5725	1	618.901	-32.7239	-2.203735E-008	-0.0001136	8
	41	128	23.91582	535.3562	-409.2574	1	673.8679	-37.3964	-6.203576E-008	-0.0001164	8
	42	130	18.60119	553.5911	-512.0638	1	754.1038	-42.76838	2.968307E-008	-0.0001311	8
	43	132	15.02404	572.1318	-620.2717	1	843.8434	-47.3119	1.714499E-008	-0.0001075	8
	44	135	12.01923	594.9008	-758.6337	1	964.071	-51.89738	-3.089862E-008	-0.0001188	8
	45	137	9.450605	623.8516	-943.5787	1	1131.164	-56.52913	1.478017E-008	-0.000108	8
	46	140	7.512019	657.6063	-1163.044	1	1336.083	-60.51539	1.832143E-008	-0.0001027	8
	47	142	5.978954	697.7864	-1432.558	1	1593.464	-64.0297	-4.046574E-009	-0.0001078	8
	48	145	4.734848	749.5038	-1774.619	1	1926.403	-67.10342	-4.111377E-008	-0.000099	8
	49	149	3.75601	810.5716	-2195.331	1	2340.193	-69.73458	1.868435E-008	-0.00011	8
	50	152	3.004808	882.6852	-2692.252	1	2833.259	-71.84769	-2.178239E-009	-0.0001113	8
	51	156	2.372217	980.228	-3342.084	1	3482.868	-73.65367	-3.648784E-008	-0.0001409	8
	52	160	1.878005	1099.661	-4153.788	1	4296.884	-75.17187	-8.147206E-009	-0.0001267	8
	53	165	1.512097	1231.037	-5073.756	1	5220.963	-76.36196	-2.112634E-008	-6.852196E-005	7
	54	170	1.201923	1419.048	-6286.869	1	6445.03	-77.28056	-2.529945E-009	-9.498485E-005	7
	55	176	0.956633	1645.215	-7756.874	1	7929.427	-78.02516	-2.109222E-008	-0.0006548	7
