EXPLAIN
TAG	EISPOT
TITLE	LABEL	Potentiostatic EIS	Test Identifier
DATE	LABEL	10/12/2021	Date
TIME	LABEL	15:11:25	Time
NOTES	NOTES	1	Notes...
	
PSTAT	PSTAT	REF3000-16137	Potentiostat
VDC	POTEN	0.00000E+000	T	DC Voltage (V)
FREQINIT	QUANT	3.00000E+005	Initial Freq. (Hz)
FREQFINAL	QUANT	1.00000E+000	Final Freq. (Hz)
PTSPERDEC	QUANT	1.00000E+001	Points/decade
VAC	QUANT	5.00000E+001	AC Voltage (mV rms)
AREA	QUANT	1.00000E+000	Sample Area (cm^2)
SPEED	SELECTOR	2	Optimize for:
ZGUESS	QUANT	1.00000E+003	Estimated Z (ohms)
EOC	QUANT	0	Open Circuit (V)
SEQUENCER	TOGGLE	TRUE	Run as Sequence
PSTATMODEL	IQUANT	5	Pstat Model
PSTATSECTION	LABEL	REF3000-16137	Pstat Section
PSTATSERIALNO	LABEL	16137	Pstat Serial Number
CTRLMODE	IQUANT	1	Control Mode
IESTAB	IQUANT	0	I/E Stability
CASPEED	IQUANT	1	Control Amp Speed
CONVENTION	IQUANT	1	Current Convention
ICHRANGE	IQUANT	2	Ich Range
ICHRANGEMODE	TOGGLE	F	Ich Auto Range
ICHOFFSETENABLE	TOGGLE	T	Ich Offset Enable
ICHOFFSET	QUANT	0	Ich Offset (V)
ICHFILTER	IQUANT	3	Ich Filter
VCHRANGE	IQUANT	2	Vch Range
VCHRANGEMODE	TOGGLE	F	Vch Auto Range
VCHOFFSETENABLE	TOGGLE	T	Vch Offset Enable
VCHOFFSET	QUANT	0	Vch Offset (V)
VCHFILTER	IQUANT	3	Vch Filter
ACHRANGE	IQUANT	2	Ach Range
ACHOFFSETENABLE	TOGGLE	F	Ach Offset Enable
ACHOFFSET	QUANT	0	Ach Offset (V)
ACHFILTER	IQUANT	3	Ach Filter
IERANGELOWERLIMIT	IQUANT	2	I/E Range Lower Limit
IERANGEMODE	TOGGLE	F	I/E AutoRange
IERANGE	IQUANT	11	I/E Range
POSFEEDENABLE	TOGGLE	F	Positive Feedback IR Comp
POSFEEDRESISTANCE	QUANT	0	Positive Feedback Resistance (ohm)
ACHSELECT	IQUANT	0	Ach Select
CABLEID	IQUANT	13	Cable ID
DCCALDATE	LABEL	9/10/2021	DC Calibration Date
ACCALDATE	LABEL	9/10/2021	AC Calibration Date
THERMOSELECT	IQUANT	1	Thermo Select
FRAMEWORKVERSION	QUANT	6.33	Framework Version
INSTRUMENTVERSION	LABEL	3.50	Instrument Version
COMPLIANCEVOLTAGE	IQUANT	0	Compliance Voltage
ZCURVE	TABLE
	Pt	Time	Freq	Zreal	Zimag	Zsig	Zmod	Zphz	Idc	Vdc	IERange
	#	s	Hz	ohm	ohm	V	ohm	°	A	V	#
	0	10	300046.9	1.775399	2.392618	1	2.979373	53.42341	-0.0001623	-0.0006555	11
	1	14	238359.4	1.884157	1.735032	1	2.561324	42.64053	-0.0001278	-0.0010263	12
	2	18	189328.1	1.791057	1.368676	1	2.254142	37.38606	-0.0001318	-0.0008312	12
	3	22	150421.9	1.683237	1.166492	1	2.047923	34.72216	-8.808422E-005	-0.0001693	11
	4	24	119484.4	1.673213	0.9052176	1	1.902383	28.41364	-2.5061E-005	3.404161E-005	11
	5	27	94921.88	1.665796	0.6886109	1	1.802516	22.45934	-2.304097E-005	0.0001372	11
	6	29	75421.88	1.661439	0.5061135	1	1.736816	16.94197	-0.0000979	0.0001117	11
	7	32	59859.37	1.661038	0.3507245	1	1.697662	11.92275	-9.223468E-005	0.000176	11
	8	34	47578.12	1.663205	0.215842	1	1.677151	7.394222	-2.517371E-005	0.0002795	11
	9	37	37828.12	1.665695	0.0935121	1	1.668318	3.213211	-3.067339E-005	0.0002771	11
	10	39	30046.88	1.670715	-0.0227657	1	1.670871	-0.7806836	-9.303923E-005	0.0002963	11
	11	42	23859.38	1.677506	-0.1389222	1	1.683249	-4.734131	-0.0000953	0.0003124	11
	12	44	18984.38	1.686372	-0.2592026	1	1.706176	-8.738222	-8.833653E-005	0.000324	11
	13	46	15046.87	1.69866	-0.3927227	1	1.743467	-13.01781	-6.486192E-005	0.0003724	11
	14	49	11953.13	1.712636	-0.5423754	1	1.796467	-17.5725	-4.983954E-005	0.0003818	11
	15	51	9515.62	1.731595	-0.7143759	1	1.873167	-22.41878	-7.730607E-005	0.0003868	11
	16	53	7546.875	1.754612	-0.921821	1	1.982024	-27.7161	-6.954905E-005	0.0003821	11
	17	56	5928.309	1.78648	-1.182346	1	2.142301	-33.49779	-3.981702E-005	0.0003916	11
	18	58	4733.456	1.824598	-1.478032	1	2.348134	-39.00951	-3.595015E-005	0.0003891	11
	19	60	3796.875	1.871863	-1.828315	1	2.616602	-44.3257	-1.454564E-005	0.0003932	11
	20	63	2987.132	1.937998	-2.298635	1	3.006585	-49.86549	-7.759573E-005	0.000368	11
	21	65	2390.625	2.016046	-2.832584	1	3.476776	-54.55925	-8.466576E-005	0.0003388	11
	22	67	1884.191	2.127189	-3.536141	1	4.126648	-58.97071	-5.132693E-005	0.0003767	11
	23	70	1516.544	2.258863	-4.326787	1	4.880938	-62.43253	2.465715E-005	-0.0001352	10
	24	72	1193.986	2.44518	-5.393852	1	5.922208	-65.61391	-1.359086E-005	-0.0001091	10
	25	74	946.5144	2.692821	-6.670101	1	7.193159	-68.01532	2.337856E-005	-0.0001341	10
	26	77	751.7689	3.010025	-8.23521	1	8.768064	-69.9223	1.97363E-005	-0.0001392	10
	27	79	597.4265	3.435014	-10.13911	1	10.70518	-71.28421	1.626113E-005	-0.0001345	10
	28	81	477.4305	4.005102	-12.42081	1	13.05057	-72.12804	-9.774218E-007	-0.0001122	10
	29	84	376.6741	4.817194	-15.3448	1	16.08316	-72.57136	-1.644905E-006	-0.0001137	10
	30	86	298.2954	5.917717	-18.85197	1	19.75895	-72.57269	-1.207429E-006	-0.0001051	10
	31	88	237.7717	7.38341	-22.95629	1	24.11444	-72.1707	-9.616124E-007	-0.0001128	10
	32	91	189.0121	9.412635	-27.91564	1	29.45982	-71.36685	-8.3575E-007	-0.0001132	10
	33	93	150.2404	12.18767	-33.75958	1	35.89218	-70.14973	-1.12781E-006	-0.0001166	10
	34	96	119.1737	15.98353	-40.56766	1	43.60284	-68.49571	1.457941E-006	-0.0001336	9
	35	98	95.0169	20.99209	-48.17176	1	52.547	-66.45359	1.214216E-006	-0.0001297	9
	36	101	75.60484	27.67136	-56.64203	1	63.03986	-63.96308	1.433854E-006	-0.0001354	9
	37	104	54.50582	40.7588	-69.56602	1	80.62698	-59.63392	2.665389E-006	-0.0001324	9
	38	107	45.95588	49.45712	-76.37199	1	90.9873	-57.07364	3.937311E-006	-0.000133	9
	39	109	37.20238	61.94311	-84.2221	1	104.5481	-53.66651	5.325568E-006	-0.0001317	9
	40	112	30.04808	76.5887	-91.25423	1	119.1351	-49.99362	5.353522E-006	-0.000128	9
	41	115	23.91582	93.83132	-97.0002	1	134.9569	-45.95135	7.040223E-006	-0.0001339	9
	42	118	18.60119	114.011	-100.9587	1	152.2864	-41.52543	1.030397E-005	-0.0001765	9
	43	120	15.02404	131.5418	-102.3474	1	166.668	-37.88505	8.122439E-006	-0.0001324	9
	44	122	12.01923	149.6098	-102.0031	1	181.0738	-34.28593	7.811331E-006	-0.0001479	9
	45	125	9.450605	168.2647	-99.8137	1	195.642	-30.6762	8.5698E-006	-0.0001842	9
	46	128	7.512019	184.8546	-96.6096	1	208.5777	-27.59267	7.561046E-006	-0.0001536	9
	47	131	5.978954	199.8326	-92.89001	1	220.367	-24.93085	7.150812E-006	-0.000131	9
	48	135	4.734848	214.5902	-89.18253	1	232.3843	-22.56751	4.766209E-006	-0.0001635	9
	49	140	3.75601	227.9353	-85.64361	1	243.494	-20.59303	3.757013E-006	-0.0001425	9
	50	146	3.004808	239.8452	-82.81337	1	253.7396	-19.04869	4.374187E-006	-0.000156	9
	51	152	2.372217	252.5031	-80.58714	1	265.0511	-17.70065	2.598355E-006	-0.0001547	9
	52	160	1.878005	266.1649	-80.1811	1	277.9798	-16.76472	2.401257E-006	-0.0001244	9
	53	169	1.512097	276.9925	-79.41816	1	288.1529	-15.99844	1.881191E-006	-0.0002169	9
	54	179	1.201923	289.418	-79.93069	1	300.2527	-15.43895	9.134386E-007	-0.0001317	9
	55	192	0.956633	302.496	-81.4952	1	313.2815	-15.07802	-3.293663E-007	-0.0006777	9
