EXPLAIN
TAG	EISPOT
TITLE	LABEL	Potentiostatic EIS	Test Identifier
DATE	LABEL	10/12/2021	Date
TIME	LABEL	16:18:33	Time
NOTES	NOTES	1	Notes...
	
PSTAT	PSTAT	REF3000-16137	Potentiostat
VDC	POTEN	0.00000E+000	T	DC Voltage (V)
FREQINIT	QUANT	3.00000E+005	Initial Freq. (Hz)
FREQFINAL	QUANT	1.00000E+000	Final Freq. (Hz)
PTSPERDEC	QUANT	1.00000E+001	Points/decade
VAC	QUANT	5.00000E+001	AC Voltage (mV rms)
AREA	QUANT	1.00000E+000	Sample Area (cm^2)
SPEED	SELECTOR	2	Optimize for:
ZGUESS	QUANT	1.00000E+003	Estimated Z (ohms)
EOC	QUANT	0	Open Circuit (V)
SEQUENCER	TOGGLE	TRUE	Run as Sequence
PSTATMODEL	IQUANT	5	Pstat Model
PSTATSECTION	LABEL	REF3000-16137	Pstat Section
PSTATSERIALNO	LABEL	16137	Pstat Serial Number
CTRLMODE	IQUANT	1	Control Mode
IESTAB	IQUANT	0	I/E Stability
CASPEED	IQUANT	1	Control Amp Speed
CONVENTION	IQUANT	1	Current Convention
ICHRANGE	IQUANT	2	Ich Range
ICHRANGEMODE	TOGGLE	F	Ich Auto Range
ICHOFFSETENABLE	TOGGLE	T	Ich Offset Enable
ICHOFFSET	QUANT	0	Ich Offset (V)
ICHFILTER	IQUANT	3	Ich Filter
VCHRANGE	IQUANT	2	Vch Range
VCHRANGEMODE	TOGGLE	F	Vch Auto Range
VCHOFFSETENABLE	TOGGLE	T	Vch Offset Enable
VCHOFFSET	QUANT	0	Vch Offset (V)
VCHFILTER	IQUANT	3	Vch Filter
ACHRANGE	IQUANT	2	Ach Range
ACHOFFSETENABLE	TOGGLE	F	Ach Offset Enable
ACHOFFSET	QUANT	0	Ach Offset (V)
ACHFILTER	IQUANT	3	Ach Filter
IERANGELOWERLIMIT	IQUANT	2	I/E Range Lower Limit
IERANGEMODE	TOGGLE	F	I/E AutoRange
IERANGE	IQUANT	11	I/E Range
POSFEEDENABLE	TOGGLE	F	Positive Feedback IR Comp
POSFEEDRESISTANCE	QUANT	0	Positive Feedback Resistance (ohm)
ACHSELECT	IQUANT	0	Ach Select
CABLEID	IQUANT	13	Cable ID
DCCALDATE	LABEL	9/10/2021	DC Calibration Date
ACCALDATE	LABEL	9/10/2021	AC Calibration Date
THERMOSELECT	IQUANT	1	Thermo Select
FRAMEWORKVERSION	QUANT	6.33	Framework Version
INSTRUMENTVERSION	LABEL	3.50	Instrument Version
COMPLIANCEVOLTAGE	IQUANT	0	Compliance Voltage
ZCURVE	TABLE
	Pt	Time	Freq	Zreal	Zimag	Zsig	Zmod	Zphz	Idc	Vdc	IERange
	#	s	Hz	ohm	ohm	V	ohm	°	A	V	#
	0	8	300046.9	16.46511	2.092441	1	16.59753	7.242517	7.877751E-005	-0.0008173	10
	1	11	238359.4	16.54869	1.647392	1	16.63049	5.684959	7.385715E-005	-0.00075	10
	2	14	189328.1	16.62966	1.249782	1	16.67656	4.297915	-2.54064E-005	-0.000356	10
	3	17	150421.9	16.72979	0.9417672	1	16.75628	3.221941	-8.69646E-005	-8.528171E-005	10
	4	19	119484.4	16.80492	0.6743682	1	16.81844	2.298002	1.508507E-005	-0.0002179	10
	5	22	94921.88	16.90202	0.4324321	1	16.90755	1.465572	-1.685147E-005	-0.0002073	10
	6	24	75421.88	17.00355	0.2274063	1	17.00507	0.7662308	8.425029E-006	-0.0001274	10
	7	27	59859.37	17.11207	0.0459479	1	17.11213	0.1538454	-2.29522E-006	-0.0001	10
	8	29	47578.12	17.22674	-0.1239904	1	17.22719	-0.4123824	-8.215017E-007	-0.0000962	10
	9	32	37828.12	17.34362	-0.2896939	1	17.34604	-0.956934	-2.632178E-005	-0.0001352	10
	10	34	30046.88	17.47173	-0.458196	1	17.47774	-1.502237	-1.4902E-005	-0.0001165	10
	11	37	23859.38	17.60626	-0.6369359	1	17.61778	-2.071867	-9.742312E-007	-0.0001538	10
	12	39	18984.38	17.74597	-0.8298743	1	17.76536	-2.677435	-1.13359E-005	-6.524236E-005	10
	13	41	15046.87	17.89748	-1.045007	1	17.92796	-3.341621	-2.313807E-005	-8.688255E-005	10
	14	44	11953.13	18.0634	-1.293232	1	18.10964	-4.095049	-3.18821E-007	-0.0001545	10
	15	46	9515.62	18.24992	-1.578093	1	18.31802	-4.942142	-2.021814E-006	-7.932805E-005	10
	16	49	7546.875	18.45124	-1.916817	1	18.55054	-5.930928	-1.699716E-005	-0.0001745	10
	17	51	5928.309	18.67105	-2.323047	1	18.81501	-7.092278	-2.236638E-006	-0.0001468	10
	18	53	4733.456	18.90434	-2.784305	1	19.10828	-8.378509	6.407974E-006	-0.0001611	10
	19	55	3796.875	19.15502	-3.317227	1	19.44013	-9.82492	1.86265E-005	-0.0000961	10
	20	58	2987.132	19.43453	-4.013061	1	19.84454	-11.6671	1.459949E-005	-0.0001724	10
	21	60	2390.625	19.72141	-4.799622	1	20.29706	-13.67822	-1.750261E-005	-0.000129	10
	22	62	1884.191	20.04811	-5.843679	1	20.88242	-16.25049	2.666176E-005	-0.0001493	10
	23	65	1516.544	20.38301	-7.000264	1	21.55158	-18.95433	2.234099E-005	-0.0001365	10
	24	67	1193.986	20.76946	-8.567355	1	22.46708	-22.41604	2.491283E-005	-0.0001377	10
	25	70	946.5144	21.19013	-10.46358	1	23.63277	-26.27993	2.635004E-005	-0.0001156	10
	26	72	751.7689	21.65307	-12.7938	1	25.15029	-30.57688	-2.054849E-005	-0.0001583	10
	27	74	597.4265	22.16838	-15.68587	1	27.15665	-35.2824	8.180842E-006	-0.0001197	10
	28	77	477.4305	22.75389	-19.15639	1	29.74402	-40.09386	-1.278149E-006	-0.0001104	10
	29	79	376.6741	23.44918	-23.71273	1	33.34903	-45.32019	-1.44419E-006	-0.0001135	10
	30	81	298.2954	24.25652	-29.30522	1	38.04175	-50.38476	-1.171638E-006	-0.0001064	10
	31	84	237.7717	25.16916	-36.00525	1	43.93023	-55.04485	3.640156E-007	-0.0001245	9
	32	86	189.0121	26.31019	-44.44323	1	51.64714	-59.37466	3.429831E-007	-0.0001242	9
	33	89	150.2404	27.69291	-54.89532	1	61.48491	-63.23053	3.005767E-007	-0.0001272	9
	34	91	119.1737	29.39505	-67.97651	1	74.05994	-66.61492	2.913252E-007	-0.0001207	9
	35	93	95.0169	31.43995	-83.7933	1	89.49742	-69.43349	3.29737E-007	-0.0001237	9
	36	96	75.60484	33.97838	-103.5084	1	108.9427	-71.82671	3.249354E-007	-0.0001324	9
	37	98	54.50582	38.6525	-140.0957	1	145.3301	-74.57579	2.886676E-007	-0.0001285	9
	38	101	45.95588	41.78648	-164.1048	1	169.3413	-75.7142	3.218889E-007	-0.0001223	9
	39	103	37.20238	46.43412	-199.56	1	204.8909	-76.90134	2.601548E-007	-0.0001224	9
	40	106	30.04808	52.27111	-243.2308	1	248.784	-77.87141	3.994357E-007	-0.0001372	9
	41	108	23.91582	60.03543	-300.4368	1	306.3764	-78.69958	3.389151E-007	-0.0001317	9
	42	111	18.60119	71.05123	-379.0682	1	385.6695	-79.38386	1.93223E-007	-0.0001216	9
	43	113	15.02404	82.61591	-459.7429	1	467.107	-79.81266	3.882721E-007	-0.0001153	8
	44	115	12.01923	98.5899	-564.6794	1	573.2214	-80.09631	3.885741E-007	-0.0001144	8
	45	118	9.450605	120.6258	-704.3176	1	714.5725	-80.28146	4.824007E-007	-0.0001484	8
	46	120	7.512019	147.4647	-868.6358	1	881.0641	-80.365	4.573694E-007	-9.418364E-005	8
	47	123	5.978954	182.0765	-1069.396	1	1084.785	-80.33741	4.454013E-007	-0.0001183	8
	48	126	4.734848	226.5266	-1322.157	1	1341.422	-80.27785	4.910981E-007	-9.364553E-005	8
	49	129	3.75601	283.8464	-1630.001	1	1654.531	-80.12164	4.362682E-007	-0.0001284	8
	50	133	3.004808	353.7297	-1991.648	1	2022.816	-79.92891	4.761128E-007	-0.0001223	8
	51	136	2.372217	453.2603	-2463.595	1	2504.944	-79.57512	4.838354E-007	-5.114275E-005	8
	52	141	1.878005	574.1007	-3040.951	1	3094.668	-79.30897	4.614681E-007	-0.0001429	8
	53	145	1.512097	723.6826	-3683.787	1	3754.198	-78.88573	4.931254E-007	-6.49496E-005	8
	54	151	1.201923	927.467	-4542.22	1	4635.942	-78.45953	6.372411E-008	-0.000136	7
	55	157	0.956633	1193.697	-5565.036	1	5691.62	-77.89353	4.245934E-008	-0.0006504	7
