EXPLAIN
TAG	EISPOT
TITLE	LABEL	Potentiostatic EIS	Test Identifier
DATE	LABEL	10/12/2021	Date
TIME	LABEL	16:10:13	Time
NOTES	NOTES	1	Notes...
	
PSTAT	PSTAT	REF3000-16137	Potentiostat
VDC	POTEN	0.00000E+000	T	DC Voltage (V)
FREQINIT	QUANT	3.00000E+005	Initial Freq. (Hz)
FREQFINAL	QUANT	1.00000E+000	Final Freq. (Hz)
PTSPERDEC	QUANT	1.00000E+001	Points/decade
VAC	QUANT	5.00000E+001	AC Voltage (mV rms)
AREA	QUANT	1.00000E+000	Sample Area (cm^2)
SPEED	SELECTOR	2	Optimize for:
ZGUESS	QUANT	1.00000E+003	Estimated Z (ohms)
EOC	QUANT	0	Open Circuit (V)
SEQUENCER	TOGGLE	TRUE	Run as Sequence
PSTATMODEL	IQUANT	5	Pstat Model
PSTATSECTION	LABEL	REF3000-16137	Pstat Section
PSTATSERIALNO	LABEL	16137	Pstat Serial Number
CTRLMODE	IQUANT	1	Control Mode
IESTAB	IQUANT	0	I/E Stability
CASPEED	IQUANT	1	Control Amp Speed
CONVENTION	IQUANT	1	Current Convention
ICHRANGE	IQUANT	2	Ich Range
ICHRANGEMODE	TOGGLE	F	Ich Auto Range
ICHOFFSETENABLE	TOGGLE	T	Ich Offset Enable
ICHOFFSET	QUANT	0	Ich Offset (V)
ICHFILTER	IQUANT	3	Ich Filter
VCHRANGE	IQUANT	2	Vch Range
VCHRANGEMODE	TOGGLE	F	Vch Auto Range
VCHOFFSETENABLE	TOGGLE	T	Vch Offset Enable
VCHOFFSET	QUANT	0	Vch Offset (V)
VCHFILTER	IQUANT	3	Vch Filter
ACHRANGE	IQUANT	2	Ach Range
ACHOFFSETENABLE	TOGGLE	F	Ach Offset Enable
ACHOFFSET	QUANT	0	Ach Offset (V)
ACHFILTER	IQUANT	3	Ach Filter
IERANGELOWERLIMIT	IQUANT	2	I/E Range Lower Limit
IERANGEMODE	TOGGLE	F	I/E AutoRange
IERANGE	IQUANT	11	I/E Range
POSFEEDENABLE	TOGGLE	F	Positive Feedback IR Comp
POSFEEDRESISTANCE	QUANT	0	Positive Feedback Resistance (ohm)
ACHSELECT	IQUANT	0	Ach Select
CABLEID	IQUANT	13	Cable ID
DCCALDATE	LABEL	9/10/2021	DC Calibration Date
ACCALDATE	LABEL	9/10/2021	AC Calibration Date
THERMOSELECT	IQUANT	1	Thermo Select
FRAMEWORKVERSION	QUANT	6.33	Framework Version
INSTRUMENTVERSION	LABEL	3.50	Instrument Version
COMPLIANCEVOLTAGE	IQUANT	0	Compliance Voltage
ZCURVE	TABLE
	Pt	Time	Freq	Zreal	Zimag	Zsig	Zmod	Zphz	Idc	Vdc	IERange
	#	s	Hz	ohm	ohm	V	ohm	°	A	V	#
	0	8	300046.9	7.168617	2.320971	1	7.534983	17.94031	5.363089E-005	-0.0007646	10
	1	11	238359.4	7.163107	1.84578	1	7.397095	14.44957	7.092972E-005	-0.0009987	10
	2	14	189328.1	7.161189	1.454449	1	7.307396	11.4807	-2.71785E-005	-0.0005865	10
	3	17	150421.9	7.159901	1.119519	1	7.246896	8.88679	-2.543449E-005	-0.0004238	10
	4	19	119484.4	7.179238	0.8606133	1	7.230637	6.835731	-9.222754E-005	-0.0002725	10
	5	22	94921.88	7.197192	0.6505392	1	7.226532	5.164812	-7.040087E-006	-0.0002222	10
	6	24	75421.88	7.21035	0.4576826	1	7.224861	3.632022	-1.071784E-005	-0.0002264	10
	7	27	59859.37	7.228676	0.2875132	1	7.234391	2.277681	-8.556359E-006	-0.0001354	10
	8	29	47578.12	7.251154	0.1366704	1	7.252442	1.079788	-2.191581E-005	-0.000122	10
	9	32	37828.12	7.275766	-0.0029084	1	7.275766	-0.0229036	-1.602449E-005	-0.0001	10
	10	34	30046.88	7.301649	-0.1390722	1	7.302973	-1.091163	1.929255E-005	-0.0001707	10
	11	37	23859.38	7.328707	-0.2785815	1	7.334	-2.1769	4.458975E-006	-0.0001733	10
	12	39	18984.38	7.358526	-0.4273115	1	7.370923	-3.323448	-9.86796E-006	-9.035158E-005	10
	13	42	15046.87	7.389371	-0.5972073	1	7.413465	-4.620589	7.663431E-006	-0.0001626	10
	14	44	11953.13	7.425884	-0.7917828	1	7.467976	-6.086152	-1.308184E-005	-0.0001155	10
	15	46	9515.62	7.464504	-1.019932	1	7.533863	-7.780578	1.411444E-005	-0.0001554	10
	16	49	7546.875	7.511063	-1.298873	1	7.622541	-9.81102	-2.474018E-005	-8.272636E-005	10
	17	51	5928.309	7.563484	-1.652312	1	7.741862	-12.32318	2.438395E-005	-0.0001437	10
	18	53	4733.456	7.623764	-2.057774	1	7.896595	-15.10508	2.415818E-005	-0.0001424	10
	19	56	3796.875	7.691994	-2.543187	1	8.101517	-18.29532	-1.764858E-005	-0.0001784	10
	20	58	2987.132	7.778352	-3.193125	1	8.408258	-22.31885	1.64416E-005	-0.0001326	10
	21	60	2390.625	7.875006	-3.942339	1	8.806688	-26.59319	8.779707E-006	-0.000154	10
	22	63	1884.191	8.002394	-4.927312	1	9.397696	-31.62184	-1.674867E-005	-0.0001247	10
	23	65	1516.544	8.140765	-6.039577	1	10.1365	-36.57146	-1.37083E-005	-0.0001107	10
	24	67	1193.986	8.328636	-7.550268	1	11.24156	-42.19366	-1.378138E-005	-0.0001083	10
	25	70	946.5144	8.555202	-9.378067	1	12.69408	-47.62717	2.307618E-005	-0.0001157	10
	26	72	751.7689	8.838699	-11.61403	1	14.5948	-52.72754	1.859227E-005	-0.0001554	10
	27	74	597.4265	9.18033	-14.37847	1	17.05928	-57.44269	-1.562226E-005	-0.0001535	10
	28	77	477.4305	9.60064	-17.71651	1	20.15061	-61.54657	-1.139746E-006	-0.00011	10
	29	79	376.6741	10.1455	-22.06611	1	24.28671	-65.30809	-5.651392E-007	-0.0001161	10
	30	81	298.2954	10.81135	-27.39079	1	29.44726	-68.46047	-1.906663E-006	-0.0001165	10
	31	84	237.7717	11.61413	-33.78302	1	35.72367	-71.02774	-2.140555E-006	-0.0001156	10
	32	86	189.0121	12.60265	-41.73237	1	43.59378	-73.19635	2.141918E-007	-0.0001263	9
	33	89	150.2404	13.84976	-51.60028	1	53.42663	-74.97565	1.20644E-007	-0.0001278	9
	34	91	119.1737	15.41888	-63.94861	1	65.7812	-76.44395	1.721958E-007	-0.0001231	9
	35	93	95.0169	17.33817	-78.84438	1	80.72823	-77.59785	1.396317E-007	-0.0001255	9
	36	96	75.60484	19.76883	-97.4148	1	99.4005	-78.52849	1.740971E-007	-0.0001299	9
	37	98	54.50582	24.3912	-131.812	1	134.0498	-79.51627	1.268659E-007	-0.0001272	9
	38	101	45.95588	27.53162	-154.377	1	156.8128	-79.88817	2.467378E-007	-0.0001201	9
	39	103	37.20238	32.2967	-187.6127	1	190.3723	-80.23251	1.854546E-007	-0.0001248	9
	40	106	30.04808	38.35455	-228.3916	1	231.5897	-80.46709	1.723681E-007	-0.0001275	9
	41	108	23.91582	46.65329	-281.8282	1	285.6635	-80.60061	5.103889E-007	-0.0001733	9
	42	111	18.60119	58.55598	-354.8035	1	359.603	-80.62851	1.742011E-007	-0.0001221	9
	43	113	15.02404	71.20771	-429.1926	1	435.0596	-80.57982	4.571856E-007	-0.0001081	8
	44	115	12.01923	88.38042	-525.8269	1	533.2026	-80.45897	4.055253E-007	-0.0001136	8
	45	118	9.450605	112.0016	-653.4901	1	663.0186	-80.27457	5.038054E-007	-0.0001104	8
	46	120	7.512019	140.9635	-804.0411	1	816.3044	-80.05604	5.35573E-007	-0.0001101	8
	47	123	5.978954	177.4165	-986.616	1	1002.441	-79.80583	5.507623E-007	-0.0001116	8
	48	126	4.734848	225.9396	-1216.566	1	1237.369	-79.47895	5.260063E-007	-0.0001432	8
	49	129	3.75601	288.6923	-1496.792	1	1524.378	-79.08318	5.644966E-007	-0.0001023	8
	50	133	3.004808	368.4327	-1825.478	1	1862.287	-78.58939	5.60252E-007	-0.0001438	8
	51	136	2.372217	478.1044	-2254.401	1	2304.541	-78.02634	5.558804E-007	-0.0001784	8
	52	141	1.878005	628.7958	-2769.613	1	2840.095	-77.20875	5.523564E-007	-0.0001008	8
	53	145	1.512097	807.6185	-3351.969	1	3447.89	-76.45343	5.644257E-007	-0.0002482	8
	54	151	1.201923	1068.666	-4094.151	1	4231.327	-75.37091	5.520511E-007	-0.0001121	8
	55	157	0.956633	1422.389	-4982.691	1	5181.737	-74.06776	6.980457E-008	-0.000649	7
