EXPLAIN
TAG	EISPOT
TITLE	LABEL	Potentiostatic EIS	Test Identifier
DATE	LABEL	10/12/2021	Date
TIME	LABEL	15:41:43	Time
NOTES	NOTES	1	Notes...
	
PSTAT	PSTAT	REF3000-16137	Potentiostat
VDC	POTEN	0.00000E+000	T	DC Voltage (V)
FREQINIT	QUANT	3.00000E+005	Initial Freq. (Hz)
FREQFINAL	QUANT	1.00000E+000	Final Freq. (Hz)
PTSPERDEC	QUANT	1.00000E+001	Points/decade
VAC	QUANT	5.00000E+001	AC Voltage (mV rms)
AREA	QUANT	1.00000E+000	Sample Area (cm^2)
SPEED	SELECTOR	2	Optimize for:
ZGUESS	QUANT	1.00000E+003	Estimated Z (ohms)
EOC	QUANT	0	Open Circuit (V)
SEQUENCER	TOGGLE	TRUE	Run as Sequence
PSTATMODEL	IQUANT	5	Pstat Model
PSTATSECTION	LABEL	REF3000-16137	Pstat Section
PSTATSERIALNO	LABEL	16137	Pstat Serial Number
CTRLMODE	IQUANT	1	Control Mode
IESTAB	IQUANT	0	I/E Stability
CASPEED	IQUANT	1	Control Amp Speed
CONVENTION	IQUANT	1	Current Convention
ICHRANGE	IQUANT	2	Ich Range
ICHRANGEMODE	TOGGLE	F	Ich Auto Range
ICHOFFSETENABLE	TOGGLE	T	Ich Offset Enable
ICHOFFSET	QUANT	0	Ich Offset (V)
ICHFILTER	IQUANT	3	Ich Filter
VCHRANGE	IQUANT	2	Vch Range
VCHRANGEMODE	TOGGLE	F	Vch Auto Range
VCHOFFSETENABLE	TOGGLE	T	Vch Offset Enable
VCHOFFSET	QUANT	0	Vch Offset (V)
VCHFILTER	IQUANT	3	Vch Filter
ACHRANGE	IQUANT	2	Ach Range
ACHOFFSETENABLE	TOGGLE	F	Ach Offset Enable
ACHOFFSET	QUANT	0	Ach Offset (V)
ACHFILTER	IQUANT	3	Ach Filter
IERANGELOWERLIMIT	IQUANT	2	I/E Range Lower Limit
IERANGEMODE	TOGGLE	F	I/E AutoRange
IERANGE	IQUANT	11	I/E Range
POSFEEDENABLE	TOGGLE	F	Positive Feedback IR Comp
POSFEEDRESISTANCE	QUANT	0	Positive Feedback Resistance (ohm)
ACHSELECT	IQUANT	0	Ach Select
CABLEID	IQUANT	13	Cable ID
DCCALDATE	LABEL	9/10/2021	DC Calibration Date
ACCALDATE	LABEL	9/10/2021	AC Calibration Date
THERMOSELECT	IQUANT	1	Thermo Select
FRAMEWORKVERSION	QUANT	6.33	Framework Version
INSTRUMENTVERSION	LABEL	3.50	Instrument Version
COMPLIANCEVOLTAGE	IQUANT	0	Compliance Voltage
ZCURVE	TABLE
	Pt	Time	Freq	Zreal	Zimag	Zsig	Zmod	Zphz	Idc	Vdc	IERange
	#	s	Hz	ohm	ohm	V	ohm	°	A	V	#
	0	11	300046.9	2.617552	2.400307	1	3.551486	42.52097	2.479012E-005	-0.0010329	10
	1	14	238359.4	2.582283	1.900108	1	3.206025	36.34656	1.91542E-005	-0.001427	10
	2	17	189328.1	2.647849	1.29235	1	2.9464	26.01586	-1.189941E-005	-0.0009615	12
	3	21	150421.9	2.553533	1.156535	1	2.803231	24.36651	-0.0001477	3.072802E-005	11
	4	23	119484.4	2.540743	0.8855631	1	2.69065	19.21574	4.243308E-005	0.0001406	11
	5	27	94921.88	2.536942	0.664688	1	2.622573	14.68169	-7.529004E-005	0.0002047	11
	6	29	75421.88	2.546154	0.4102584	1	2.578995	9.153316	-0.0001217	-0.0002429	12
	7	33	59859.37	2.538196	0.3230081	1	2.558667	7.252415	-3.216109E-005	0.0003177	11
	8	35	47578.12	2.542182	0.1840331	1	2.548835	4.140522	-1.87665E-005	0.0003492	11
	9	38	37828.12	2.547268	0.0559678	1	2.547883	1.258684	-5.964918E-005	0.0002943	11
	10	40	30046.88	2.555695	-0.0677016	1	2.556592	-1.517438	-6.378038E-005	0.0003411	11
	11	43	23859.38	2.565021	-0.193167	1	2.572284	-4.306711	-9.203758E-005	0.0003313	11
	12	45	18984.38	2.576295	-0.3249018	1	2.596701	-7.187742	-2.693414E-005	0.0003805	11
	13	48	15046.87	2.590574	-0.4738992	1	2.633563	-10.36662	-1.622098E-005	0.0004027	11
	14	50	11953.13	2.607618	-0.6423444	1	2.685568	-13.83837	-5.547331E-005	0.0003695	11
	15	52	9515.62	2.628494	-0.8382304	1	2.758915	-17.68756	-3.263612E-005	0.0003831	11
	16	54	7546.875	2.654381	-1.075749	1	2.864083	-22.06139	-7.386245E-005	0.0003036	11
	17	57	5928.309	2.688741	-1.376339	1	3.020536	-27.10743	-6.709124E-005	0.0003196	11
	18	59	4733.456	2.727804	-1.71897	1	3.224248	-32.21774	-5.864981E-005	0.0003574	11
	19	61	3796.875	2.775648	-2.125806	1	3.49618	-37.44768	-2.823982E-005	0.0003616	11
	20	64	2987.132	2.844342	-2.674962	1	3.904574	-43.24221	1.962611E-005	-0.0001537	10
	21	66	2390.625	2.920272	-3.300189	1	4.406727	-48.49502	-7.236433E-006	-0.0001389	10
	22	68	1884.191	3.022426	-4.124989	1	5.113765	-53.76934	2.113873E-005	-0.0001431	10
	23	71	1516.544	3.139068	-5.050478	1	5.946518	-58.13744	1.906638E-005	-0.0001493	10
	24	73	1193.986	3.300527	-6.309297	1	7.120442	-62.38498	-6.444287E-007	-0.0001416	10
	25	76	946.5144	3.491309	-7.832122	1	8.575044	-65.97421	2.457686E-005	-0.0001331	10
	26	78	751.7689	3.743543	-9.68946	1	10.38748	-68.87585	2.149743E-005	-0.0001382	10
	27	80	597.4265	4.061055	-11.98312	1	12.65256	-71.27859	-6.959644E-006	-0.0001342	10
	28	83	477.4305	4.448068	-14.75509	1	15.41097	-73.22405	-5.312722E-007	-0.0001185	10
	29	85	376.6741	4.975692	-18.3605	1	19.02276	-74.83705	-4.462126E-007	-0.0001249	10
	30	87	298.2954	5.647386	-22.76766	1	23.45761	-76.06927	-3.568273E-007	-0.0001157	10
	31	89	237.7717	6.493721	-28.04819	1	28.79009	-76.96455	-4.594429E-007	-0.0001224	10
	32	92	189.0121	7.620341	-34.63876	1	35.46707	-77.59287	-1.118138E-006	-0.0001144	10
	33	94	150.2404	9.079847	-42.68508	1	43.64012	-77.9912	1.324947E-007	-0.0001316	9
	34	97	119.1737	11.06289	-52.731	1	53.879	-78.15127	2.725852E-007	-0.0001329	9
	35	99	95.0169	13.61187	-64.75632	1	66.17148	-78.12917	1.680389E-007	-0.0001314	9
	36	102	75.60484	17.05105	-79.58093	1	81.38712	-77.90662	1.822304E-007	-0.0001352	9
	37	104	54.50582	24.112	-106.61	1	109.3027	-77.25582	2.109389E-007	-0.0001371	9
	38	107	45.95588	29.25083	-123.9755	1	127.3795	-76.7244	5.361678E-007	-0.0001299	9
	39	109	37.20238	37.39532	-149.172	1	153.7878	-75.92677	3.892461E-007	-0.0001352	9
	40	111	30.04808	48.07802	-179.4018	1	185.7323	-74.99778	3.274999E-007	-0.0001313	9
	41	114	23.91582	64.03632	-217.9848	1	227.196	-73.62905	3.330586E-007	-0.0001368	9
	42	116	18.60119	87.75042	-268.2276	1	282.2166	-71.88454	6.995392E-007	-0.0001357	9
	43	119	15.02404	115.2383	-318.3602	1	338.5751	-70.10103	8.036365E-007	-0.0001421	9
	44	121	12.01923	153.6761	-377.709	1	407.775	-67.86037	7.712877E-007	-0.0001365	9
	45	124	9.450605	207.7047	-446.8328	1	492.7482	-65.06922	1.399526E-006	-0.000118	8
	46	126	7.512019	276.3951	-519.0536	1	588.0569	-61.96478	1.607732E-006	-0.0001232	8
	47	129	5.978954	362.2558	-592.1343	1	694.1558	-58.54255	1.892339E-006	-0.0001195	8
	48	134	4.734848	470.0454	-664.26	1	813.7469	-54.71591	2.063419E-006	-0.000123	8
	49	139	3.75601	595.0947	-727.4598	1	939.8593	-50.71529	2.05604E-006	-0.0001345	8
	50	144	3.004808	730.572	-777.1717	1	1066.645	-46.77028	2.173776E-006	-0.0001233	8
	51	151	2.372217	886.7366	-813.8685	1	1203.613	-42.54647	2.266359E-006	-4.776361E-005	8
	52	158	1.878005	1047.834	-842.5952	1	1344.59	-38.80383	2.255387E-006	-0.0001449	8
	53	167	1.512097	1200.625	-848.1251	1	1469.971	-35.2375	2.199409E-006	-0.0001055	8
	54	178	1.201923	1366.499	-842.7812	1	1605.49	-31.664	2.147548E-006	-0.0001511	8
	55	191	0.956633	1525.253	-827.2171	1	1735.132	-28.47309	1.833984E-006	-0.0006642	8
