EXPLAIN
TAG	EISPOT
TITLE	LABEL	Potentiostatic EIS	Test Identifier
DATE	LABEL	10/12/2021	Date
TIME	LABEL	16:04:26	Time
NOTES	NOTES	1	Notes...
	
PSTAT	PSTAT	REF3000-16137	Potentiostat
VDC	POTEN	0.00000E+000	T	DC Voltage (V)
FREQINIT	QUANT	3.00000E+005	Initial Freq. (Hz)
FREQFINAL	QUANT	1.00000E+000	Final Freq. (Hz)
PTSPERDEC	QUANT	1.00000E+001	Points/decade
VAC	QUANT	5.00000E+001	AC Voltage (mV rms)
AREA	QUANT	1.00000E+000	Sample Area (cm^2)
SPEED	SELECTOR	2	Optimize for:
ZGUESS	QUANT	1.00000E+003	Estimated Z (ohms)
EOC	QUANT	0	Open Circuit (V)
SEQUENCER	TOGGLE	TRUE	Run as Sequence
PSTATMODEL	IQUANT	5	Pstat Model
PSTATSECTION	LABEL	REF3000-16137	Pstat Section
PSTATSERIALNO	LABEL	16137	Pstat Serial Number
CTRLMODE	IQUANT	1	Control Mode
IESTAB	IQUANT	0	I/E Stability
CASPEED	IQUANT	1	Control Amp Speed
CONVENTION	IQUANT	1	Current Convention
ICHRANGE	IQUANT	2	Ich Range
ICHRANGEMODE	TOGGLE	F	Ich Auto Range
ICHOFFSETENABLE	TOGGLE	T	Ich Offset Enable
ICHOFFSET	QUANT	0	Ich Offset (V)
ICHFILTER	IQUANT	3	Ich Filter
VCHRANGE	IQUANT	2	Vch Range
VCHRANGEMODE	TOGGLE	F	Vch Auto Range
VCHOFFSETENABLE	TOGGLE	T	Vch Offset Enable
VCHOFFSET	QUANT	0	Vch Offset (V)
VCHFILTER	IQUANT	3	Vch Filter
ACHRANGE	IQUANT	2	Ach Range
ACHOFFSETENABLE	TOGGLE	F	Ach Offset Enable
ACHOFFSET	QUANT	0	Ach Offset (V)
ACHFILTER	IQUANT	3	Ach Filter
IERANGELOWERLIMIT	IQUANT	2	I/E Range Lower Limit
IERANGEMODE	TOGGLE	F	I/E AutoRange
IERANGE	IQUANT	11	I/E Range
POSFEEDENABLE	TOGGLE	F	Positive Feedback IR Comp
POSFEEDRESISTANCE	QUANT	0	Positive Feedback Resistance (ohm)
ACHSELECT	IQUANT	0	Ach Select
CABLEID	IQUANT	13	Cable ID
DCCALDATE	LABEL	9/10/2021	DC Calibration Date
ACCALDATE	LABEL	9/10/2021	AC Calibration Date
THERMOSELECT	IQUANT	1	Thermo Select
FRAMEWORKVERSION	QUANT	6.33	Framework Version
INSTRUMENTVERSION	LABEL	3.50	Instrument Version
COMPLIANCEVOLTAGE	IQUANT	0	Compliance Voltage
ZCURVE	TABLE
	Pt	Time	Freq	Zreal	Zimag	Zsig	Zmod	Zphz	Idc	Vdc	IERange
	#	s	Hz	ohm	ohm	V	ohm	°	A	V	#
	0	10	300046.9	5.384765	2.346112	1	5.873665	23.54249	7.094293E-005	-0.0009085	10
	1	13	238359.4	5.369154	1.867921	1	5.6848	19.18271	2.014703E-005	-0.0009475	10
	2	17	189328.1	5.351797	1.464976	1	5.548684	15.30887	7.03E-005	-0.0008948	10
	3	19	150421.9	5.346135	1.146677	1	5.467726	12.10579	2.004742E-005	-0.0004947	10
	4	22	119484.4	5.355177	0.8745527	1	5.426119	9.275083	-2.629614E-005	-0.000389	10
	5	24	94921.88	5.365881	0.6621546	1	5.406582	7.034786	2.355293E-005	-0.0003066	10
	6	27	75421.88	5.374107	0.4721861	1	5.394811	5.021295	-2.878736E-005	-0.0002589	10
	7	29	59859.37	5.385576	0.3045952	1	5.394183	3.237063	6.346474E-006	-0.0002416	10
	8	32	47578.12	5.399666	0.1552119	1	5.401896	1.646498	7.799579E-006	-0.0002109	10
	9	34	37828.12	5.416252	0.0172576	1	5.416279	0.1825585	2.513564E-005	-0.0001826	10
	10	37	30046.88	5.43516	-0.1171815	1	5.436423	-1.2351	1.23258E-005	-0.0001888	10
	11	39	23859.38	5.45504	-0.2539782	1	5.46095	-2.665678	-1.768227E-005	-0.000151	10
	12	42	18984.38	5.476997	-0.3985559	1	5.491479	-4.162024	1.965306E-005	-0.0001692	10
	13	44	15046.87	5.502393	-0.5634117	1	5.531163	-5.846365	-1.25623E-005	-0.0001536	10
	14	46	11953.13	5.52879	-0.7518419	1	5.579677	-7.743962	5.294053E-006	-0.0001498	10
	15	49	9515.62	5.561516	-0.972241	1	5.645858	-9.91601	-3.189273E-005	-0.0001313	10
	16	51	7546.875	5.599647	-1.239819	1	5.735259	-12.48447	-1.120927E-005	-0.0001136	10
	17	53	5928.309	5.644658	-1.581731	1	5.862085	-15.65379	-1.548862E-005	-0.0001295	10
	18	56	4733.456	5.695553	-1.971594	1	6.027147	-19.094	-1.529879E-005	-0.0001635	10
	19	58	3796.875	5.755909	-2.437102	1	6.250597	-22.94822	-8.233832E-007	-0.0001355	10
	20	60	2987.132	5.833131	-3.06331	1	6.588572	-27.70653	1.333404E-005	-0.0001603	10
	21	63	2390.625	5.923638	-3.778949	1	7.026375	-32.53559	7.714183E-006	-0.0001502	10
	22	65	1884.191	6.037855	-4.72839	1	7.668987	-38.06535	5.830773E-006	-0.0001524	10
	23	67	1516.544	6.169908	-5.795566	1	8.465007	-43.20808	-1.512539E-005	-0.0001576	10
	24	70	1193.986	6.346146	-7.2447	1	9.63116	-48.78259	1.587117E-005	-0.0001391	10
	25	72	946.5144	6.56796	-8.983917	1	11.12874	-53.83022	1.859218E-005	-0.0001628	10
	26	75	751.7689	6.822533	-11.14464	1	13.06713	-58.52583	-2.085592E-005	-0.0001056	10
	27	77	597.4265	7.150533	-13.79611	1	15.53907	-62.60226	-4.498938E-006	-0.0001265	10
	28	79	477.4305	7.553704	-16.9875	1	18.59122	-66.02708	-1.486059E-006	-0.0001149	10
	29	82	376.6741	8.075466	-21.15431	1	22.64328	-69.10609	-1.118904E-006	-0.0001159	10
	30	84	298.2954	8.713921	-26.25494	1	27.66323	-71.63918	-1.084207E-006	-0.0001142	10
	31	86	237.7717	9.489195	-32.38377	1	33.74542	-73.6682	-1.463612E-006	-0.0001147	10
	32	89	189.0121	10.46425	-40.06001	1	41.40417	-75.36063	-1.389303E-006	-0.0001141	10
	33	91	150.2404	11.67312	-49.46889	1	50.82748	-76.72285	8.334317E-008	-0.0001348	9
	34	94	119.1737	13.22678	-61.31958	1	62.72988	-77.82766	1.566732E-007	-0.0001272	9
	35	96	95.0169	15.14626	-75.58595	1	77.08855	-78.66888	7.758359E-008	-0.0001292	9
	36	98	75.60484	17.60937	-93.3718	1	95.0178	-79.3198	2.028246E-008	-0.0001234	9
	37	101	54.50582	22.37762	-126.2638	1	128.2314	-79.94987	7.872228E-008	-0.0001302	9
	38	104	45.95588	25.68892	-147.8763	1	150.091	-80.14498	1.454963E-007	-0.0001212	9
	39	106	37.20238	30.71092	-179.5311	1	182.1388	-80.29283	7.296309E-008	-0.0001338	9
	40	108	30.04808	37.09459	-218.1926	1	221.3233	-80.35148	1.726296E-007	-0.0001326	9
	41	111	23.91582	45.97694	-268.858	1	272.7609	-80.29581	-8.006538E-009	-0.00013	9
	42	113	18.60119	58.94809	-337.9875	1	343.0895	-80.10661	4.57744E-008	-0.000123	9
	43	115	15.02404	72.98657	-409.9746	1	416.4207	-79.90556	2.10357E-007	-0.0001208	9
	44	118	12.01923	91.38354	-499.2863	1	507.5803	-79.62805	3.621949E-007	-0.0001281	8
	45	120	9.450605	117.1903	-619.2653	1	630.2563	-79.28401	5.125158E-007	-0.0001256	8
	46	123	7.512019	149.9568	-760.5623	1	775.2045	-78.8463	5.281913E-007	-0.0001206	8
	47	125	5.978954	191.2521	-931.4257	1	950.858	-78.39658	5.642933E-007	-0.0001154	8
	48	129	4.734848	249.1114	-1145.465	1	1172.24	-77.73058	5.517052E-007	-0.0001467	8
	49	132	3.75601	324.5918	-1405.565	1	1442.558	-76.99646	5.728766E-007	-0.0001081	8
	50	135	3.004808	421.4217	-1707.985	1	1759.207	-76.13989	6.218406E-007	-0.000149	8
	51	139	2.372217	561.8387	-2092.144	1	2166.271	-74.96806	6.043817E-007	-0.0001447	8
	52	143	1.878005	755.6022	-2552.921	1	2662.394	-73.51254	5.943508E-007	-0.0001155	8
	53	148	1.512097	990.471	-3059.043	1	3215.397	-72.05885	6.180557E-007	-0.0002131	8
	54	153	1.201923	1323.857	-3689.677	1	3919.989	-70.262	6.151636E-007	-0.0001129	8
	55	166	0.956633	1776.058	-4413.579	1	4757.527	-68.07977	1.0012E-007	-0.0006502	7
