EXPLAIN
TAG	EISPOT
TITLE	LABEL	Potentiostatic EIS	Test Identifier
DATE	LABEL	10/12/2021	Date
TIME	LABEL	15:08:01	Time
NOTES	NOTES	1	Notes...
	
PSTAT	PSTAT	REF3000-16137	Potentiostat
VDC	POTEN	0.00000E+000	T	DC Voltage (V)
FREQINIT	QUANT	3.00000E+005	Initial Freq. (Hz)
FREQFINAL	QUANT	1.00000E+000	Final Freq. (Hz)
PTSPERDEC	QUANT	1.00000E+001	Points/decade
VAC	QUANT	5.00000E+001	AC Voltage (mV rms)
AREA	QUANT	1.00000E+000	Sample Area (cm^2)
SPEED	SELECTOR	2	Optimize for:
ZGUESS	QUANT	1.00000E+003	Estimated Z (ohms)
EOC	QUANT	0	Open Circuit (V)
SEQUENCER	TOGGLE	TRUE	Run as Sequence
PSTATMODEL	IQUANT	5	Pstat Model
PSTATSECTION	LABEL	REF3000-16137	Pstat Section
PSTATSERIALNO	LABEL	16137	Pstat Serial Number
CTRLMODE	IQUANT	1	Control Mode
IESTAB	IQUANT	0	I/E Stability
CASPEED	IQUANT	1	Control Amp Speed
CONVENTION	IQUANT	1	Current Convention
ICHRANGE	IQUANT	2	Ich Range
ICHRANGEMODE	TOGGLE	F	Ich Auto Range
ICHOFFSETENABLE	TOGGLE	T	Ich Offset Enable
ICHOFFSET	QUANT	0	Ich Offset (V)
ICHFILTER	IQUANT	3	Ich Filter
VCHRANGE	IQUANT	2	Vch Range
VCHRANGEMODE	TOGGLE	F	Vch Auto Range
VCHOFFSETENABLE	TOGGLE	T	Vch Offset Enable
VCHOFFSET	QUANT	0	Vch Offset (V)
VCHFILTER	IQUANT	3	Vch Filter
ACHRANGE	IQUANT	2	Ach Range
ACHOFFSETENABLE	TOGGLE	F	Ach Offset Enable
ACHOFFSET	QUANT	0	Ach Offset (V)
ACHFILTER	IQUANT	3	Ach Filter
IERANGELOWERLIMIT	IQUANT	2	I/E Range Lower Limit
IERANGEMODE	TOGGLE	F	I/E AutoRange
IERANGE	IQUANT	11	I/E Range
POSFEEDENABLE	TOGGLE	F	Positive Feedback IR Comp
POSFEEDRESISTANCE	QUANT	0	Positive Feedback Resistance (ohm)
ACHSELECT	IQUANT	0	Ach Select
CABLEID	IQUANT	13	Cable ID
DCCALDATE	LABEL	9/10/2021	DC Calibration Date
ACCALDATE	LABEL	9/10/2021	AC Calibration Date
THERMOSELECT	IQUANT	1	Thermo Select
FRAMEWORKVERSION	QUANT	6.33	Framework Version
INSTRUMENTVERSION	LABEL	3.50	Instrument Version
COMPLIANCEVOLTAGE	IQUANT	0	Compliance Voltage
ZCURVE	TABLE
	Pt	Time	Freq	Zreal	Zimag	Zsig	Zmod	Zphz	Idc	Vdc	IERange
	#	s	Hz	ohm	ohm	V	ohm	°	A	V	#
	0	10	300046.9	1.742032	2.384257	1	2.952855	53.84666	-3.296406E-005	-0.0007064	11
	1	14	238359.4	1.826656	1.739507	1	2.522411	43.60011	-4.993799E-005	-0.0011273	12
	2	18	189328.1	1.750207	1.375275	1	2.225894	38.15949	-0.0000976	-0.000825	12
	3	22	150421.9	1.646778	1.177408	1	2.024393	35.5639	-8.312731E-005	-0.0001136	11
	4	24	119484.4	1.630663	0.9095758	1	1.867188	29.15256	-0.0001503	-6.158694E-006	11
	5	27	94921.88	1.622227	0.6904561	1	1.763052	23.05569	-2.110382E-005	0.0001177	11
	6	29	75421.88	1.617818	0.5085656	1	1.69587	17.45068	-0.0000977	0.0001149	11
	7	32	59859.37	1.617856	0.3529027	1	1.655898	12.30517	-2.430287E-005	0.0002259	11
	8	34	47578.12	1.619272	0.2192607	1	1.634049	7.71135	-2.142391E-005	0.0002754	11
	9	37	37828.12	1.622413	0.0975494	1	1.625343	3.44083	-3.99186E-005	0.0002969	11
	10	39	30046.88	1.627347	-0.0182669	1	1.62745	-0.643114	-5.801495E-005	0.0003332	11
	11	42	23859.38	1.63343	-0.1336152	1	1.638885	-4.676407	-2.53027E-005	0.0003663	11
	12	44	18984.38	1.641846	-0.2527271	1	1.661183	-8.75078	-8.082933E-005	0.0003266	11
	13	46	15046.87	1.65367	-0.3847703	1	1.697843	-13.09833	-2.131077E-005	0.0003926	11
	14	49	11953.13	1.668476	-0.5320109	1	1.751242	-17.68542	-3.959051E-005	0.0003794	11
	15	51	9515.62	1.686923	-0.7021169	1	1.827205	-22.59764	-5.282371E-005	0.0003781	11
	16	53	7546.875	1.710255	-0.9063368	1	1.935567	-27.92102	-5.955755E-005	0.0003785	11
	17	56	5928.309	1.742467	-1.162919	1	2.094892	-33.71906	-6.615865E-005	0.0003696	11
	18	58	4733.456	1.780904	-1.45367	1	2.298864	-39.22318	-2.527132E-005	0.0003999	11
	19	60	3796.875	1.827983	-1.799662	1	2.565211	-44.55268	-7.484547E-005	0.0003567	11
	20	63	2987.132	1.895726	-2.259548	1	2.949464	-50.00387	-1.577809E-005	0.0003952	11
	21	65	2390.625	1.976395	-2.785924	1	3.415774	-54.64729	-3.871555E-005	0.0003663	11
	22	67	1884.191	2.089484	-3.474038	1	4.053996	-58.97491	-1.492289E-005	0.0003962	11
	23	70	1516.544	2.225225	-4.250647	1	4.797877	-62.36782	-2.067594E-005	-0.0001163	10
	24	72	1193.986	2.420031	-5.294668	1	5.821517	-65.43631	-6.986787E-006	-0.0001288	10
	25	74	946.5144	2.670109	-6.549713	1	7.073063	-67.82084	-1.252636E-005	-0.0000963	10
	26	77	751.7689	3.005747	-8.070204	1	8.611777	-69.57215	-1.26925E-005	-0.0001688	10
	27	79	597.4265	3.460663	-9.93107	1	10.51676	-70.78817	1.528073E-005	-0.0001535	10
	28	81	477.4305	4.056509	-12.14596	1	12.80545	-71.5317	-3.212124E-007	-0.0001158	10
	29	84	376.6741	4.916655	-14.97968	1	15.76592	-71.82905	-3.932653E-007	-0.0001169	10
	30	86	298.2954	6.085947	-18.36096	1	19.34331	-71.66164	4.269752E-007	-0.000112	10
	31	88	237.7717	7.644283	-22.29254	1	23.56677	-71.07277	-1.168218E-007	-0.0001121	10
	32	91	189.0121	9.79643	-26.99735	1	28.7198	-70.05586	1.06863E-006	-0.0001098	10
	33	93	150.2404	12.73164	-32.49131	1	34.8967	-68.60239	1.915521E-007	-0.0001173	10
	34	96	119.1737	16.71851	-38.78095	1	42.23116	-66.67908	2.396826E-006	-0.0001349	9
	35	98	95.0169	21.92513	-45.65515	1	50.64686	-64.34812	2.724964E-006	-0.0001284	9
	36	101	75.60484	28.75816	-53.10555	1	60.39231	-61.5632	3.169846E-006	-0.0001305	9
	37	104	54.50582	41.76811	-63.94016	1	76.37355	-56.84592	4.367241E-006	-0.000133	9
	38	107	45.95588	50.1464	-69.34061	1	85.57325	-54.12594	5.73619E-006	-0.0001222	9
	39	109	37.20238	61.94254	-75.22926	1	97.4491	-50.53252	7.358512E-006	-0.000127	9
	40	112	30.04808	75.12724	-80.06544	1	109.7933	-46.82253	7.245302E-006	-0.0001269	9
	41	115	23.91582	90.29014	-83.51978	1	122.9954	-42.7693	9.103077E-006	-0.0001307	9
	42	118	18.60119	107.4219	-85.30336	1	137.1719	-38.45298	1.141182E-005	-0.0001318	9
	43	120	15.02404	121.8761	-85.32156	1	148.7735	-34.99464	1.136104E-005	-0.0001355	9
	44	123	12.01923	136.5296	-83.85258	1	160.2236	-31.55706	1.239598E-005	-0.0001268	9
	45	125	9.450605	151.061	-81.14626	1	171.4764	-28.2436	1.1698E-005	-0.0001336	9
	46	128	7.512019	163.7448	-78.17052	1	181.4469	-25.51945	1.202429E-005	-0.0001625	9
	47	131	5.978954	175.7224	-75.29423	1	191.1742	-23.19436	9.099826E-006	-0.0001292	9
	48	135	4.734848	187.1707	-72.27998	1	200.6421	-21.11514	5.890491E-006	-0.0001517	9
	49	140	3.75601	197.313	-69.72514	1	209.2702	-19.46205	6.571444E-006	-0.0001172	9
	50	146	3.004808	207.0144	-68.02657	1	217.905	-18.19093	6.288371E-006	-0.0001507	9
	51	152	2.372217	217.0664	-66.73316	1	227.0928	-17.0891	4.542631E-006	-0.0002004	9
	52	160	1.878005	228.2556	-67.11694	1	237.9187	-16.3856	5.182693E-006	-0.0001279	9
	53	169	1.512097	237.473	-67.14415	1	246.7828	-15.78795	2.625924E-006	-9.221869E-005	9
	54	181	1.201923	248.0063	-68.29422	1	257.2377	-15.39611	2.100574E-006	-0.0001596	9
	55	194	0.956633	259.6071	-70.60406	1	269.0368	-15.21446	-1.607293E-006	-0.0006762	9
