EXPLAIN
TAG	EISPOT
TITLE	LABEL	Potentiostatic EIS	Test Identifier
DATE	LABEL	10/12/2021	Date
TIME	LABEL	16:21:19	Time
NOTES	NOTES	1	Notes...
	
PSTAT	PSTAT	REF3000-16137	Potentiostat
VDC	POTEN	0.00000E+000	T	DC Voltage (V)
FREQINIT	QUANT	3.00000E+005	Initial Freq. (Hz)
FREQFINAL	QUANT	1.00000E+000	Final Freq. (Hz)
PTSPERDEC	QUANT	1.00000E+001	Points/decade
VAC	QUANT	5.00000E+001	AC Voltage (mV rms)
AREA	QUANT	1.00000E+000	Sample Area (cm^2)
SPEED	SELECTOR	2	Optimize for:
ZGUESS	QUANT	1.00000E+003	Estimated Z (ohms)
EOC	QUANT	0	Open Circuit (V)
SEQUENCER	TOGGLE	TRUE	Run as Sequence
PSTATMODEL	IQUANT	5	Pstat Model
PSTATSECTION	LABEL	REF3000-16137	Pstat Section
PSTATSERIALNO	LABEL	16137	Pstat Serial Number
CTRLMODE	IQUANT	1	Control Mode
IESTAB	IQUANT	0	I/E Stability
CASPEED	IQUANT	1	Control Amp Speed
CONVENTION	IQUANT	1	Current Convention
ICHRANGE	IQUANT	2	Ich Range
ICHRANGEMODE	TOGGLE	F	Ich Auto Range
ICHOFFSETENABLE	TOGGLE	T	Ich Offset Enable
ICHOFFSET	QUANT	0	Ich Offset (V)
ICHFILTER	IQUANT	3	Ich Filter
VCHRANGE	IQUANT	2	Vch Range
VCHRANGEMODE	TOGGLE	F	Vch Auto Range
VCHOFFSETENABLE	TOGGLE	T	Vch Offset Enable
VCHOFFSET	QUANT	0	Vch Offset (V)
VCHFILTER	IQUANT	3	Vch Filter
ACHRANGE	IQUANT	2	Ach Range
ACHOFFSETENABLE	TOGGLE	F	Ach Offset Enable
ACHOFFSET	QUANT	0	Ach Offset (V)
ACHFILTER	IQUANT	3	Ach Filter
IERANGELOWERLIMIT	IQUANT	2	I/E Range Lower Limit
IERANGEMODE	TOGGLE	F	I/E AutoRange
IERANGE	IQUANT	11	I/E Range
POSFEEDENABLE	TOGGLE	F	Positive Feedback IR Comp
POSFEEDRESISTANCE	QUANT	0	Positive Feedback Resistance (ohm)
ACHSELECT	IQUANT	0	Ach Select
CABLEID	IQUANT	13	Cable ID
DCCALDATE	LABEL	9/10/2021	DC Calibration Date
ACCALDATE	LABEL	9/10/2021	AC Calibration Date
THERMOSELECT	IQUANT	1	Thermo Select
FRAMEWORKVERSION	QUANT	6.33	Framework Version
INSTRUMENTVERSION	LABEL	3.50	Instrument Version
COMPLIANCEVOLTAGE	IQUANT	0	Compliance Voltage
ZCURVE	TABLE
	Pt	Time	Freq	Zreal	Zimag	Zsig	Zmod	Zphz	Idc	Vdc	IERange
	#	s	Hz	ohm	ohm	V	ohm	°	A	V	#
	0	9	300046.9	22.47477	1.896313	1	22.55463	4.822919	-0.0001039	-0.000549	10
	1	12	238359.4	22.62084	1.400583	1	22.66416	3.542981	1.837807E-005	-0.0005393	10
	2	15	189328.1	22.76662	1.025938	1	22.78972	2.580189	-2.624489E-005	-0.0003214	10
	3	18	150421.9	22.915	0.7043094	1	22.92582	1.760473	7.459446E-005	-0.0002725	10
	4	20	119484.4	23.04547	0.4153206	1	23.04922	1.032461	-0.0000973	-0.0001415	10
	5	23	94921.88	23.20282	0.1528253	1	23.20332	0.377373	1.724999E-005	-0.000195	10
	6	26	75421.88	23.36849	-0.0642174	1	23.36858	-0.1574502	-4.471261E-006	-0.0001772	10
	7	28	59859.37	23.54788	-0.2617521	1	23.54934	-0.6368585	2.292062E-005	-0.0001869	10
	8	31	47578.12	23.73531	-0.4514571	1	23.7396	-1.089662	-1.66246E-005	-0.0001496	10
	9	33	37828.12	23.93442	-0.6427058	1	23.94305	-1.538182	-1.358103E-005	-0.0001422	10
	10	36	30046.88	24.14285	-0.8270191	1	24.15701	-1.961913	2.436918E-005	-0.0001763	10
	11	38	23859.38	24.36438	-1.036865	1	24.38643	-2.436843	2.793768E-005	-0.0001279	10
	12	41	18984.38	24.59284	-1.254426	1	24.62481	-2.919999	2.203511E-005	-0.0001668	10
	13	43	15046.87	24.84911	-1.505154	1	24.89465	-3.46627	-2.926329E-005	-0.0001326	10
	14	45	11953.13	25.11255	-1.771829	1	25.17498	-4.035844	2.63071E-005	-0.00017	10
	15	47	9515.62	25.3925	-2.080846	1	25.47762	-4.684765	-1.206782E-005	-0.0001368	10
	16	50	7546.875	25.70831	-2.429188	1	25.82282	-5.397874	1.701481E-005	-0.0001802	10
	17	52	5928.309	26.04818	-2.879128	1	26.20681	-6.307349	2.639116E-005	-0.0001353	10
	18	54	4733.456	26.39221	-3.35772	1	26.60494	-7.250442	-2.043588E-005	-8.063282E-005	10
	19	57	3796.875	26.7508	-3.914515	1	27.03569	-8.325156	2.199847E-005	-0.0001843	10
	20	59	2987.132	27.1644	-4.633049	1	27.55667	-9.679	-2.531354E-005	-0.0001033	10
	21	62	2390.625	27.57535	-5.44761	1	28.1083	-11.17509	-2.453407E-005	-8.952309E-005	10
	22	64	1884.191	28.04492	-6.525599	1	28.79411	-13.09872	-2.066994E-005	-0.0001583	10
	23	66	1516.544	28.48087	-7.696936	1	29.50259	-15.12289	-3.342682E-006	-0.0001539	10
	24	68	1193.986	28.99829	-9.296154	1	30.45192	-17.7746	-2.97852E-006	-0.0001502	10
	25	71	946.5144	29.54212	-11.23183	1	31.60523	-20.81667	2.086177E-005	-0.000162	10
	26	73	751.7689	30.12115	-13.60254	1	33.05015	-24.30367	-2.780658E-005	-0.0000972	10
	27	76	597.4265	30.76929	-16.53811	1	34.93219	-28.25748	2.566068E-005	-0.0001553	10
	28	78	477.4305	31.48015	-20.09521	1	37.34726	-32.55194	-1.700938E-006	-0.0001112	10
	29	80	376.6741	32.25671	-24.71257	1	40.63504	-37.4565	3.535022E-007	-0.0001267	9
	30	83	298.2954	33.17961	-30.41295	1	45.00926	-42.50886	3.866534E-007	-0.0001256	9
	31	85	237.7717	34.23057	-37.29293	1	50.62109	-47.45169	3.035838E-007	-0.0001299	9
	32	88	189.0121	35.47683	-45.91892	1	58.02717	-52.31043	3.562649E-007	-0.000137	9
	33	90	150.2404	36.96219	-56.61163	1	67.60976	-56.85915	3.18794E-007	-0.000127	9
	34	92	119.1737	38.76077	-70.00716	1	80.02125	-61.02808	3.379005E-007	-0.0001268	9
	35	95	95.0169	40.90137	-86.2192	1	95.4289	-64.62089	3.864811E-007	-0.0001255	9
	36	97	75.60484	43.54166	-106.4388	1	115.0004	-67.75166	3.511033E-007	-0.0001285	9
	37	100	54.50582	48.31841	-143.982	1	151.8733	-71.44894	2.886682E-007	-0.0001296	9
	38	102	45.95588	51.53183	-168.6156	1	176.3144	-73.00595	3.931325E-007	-0.0001227	9
	39	105	37.20238	56.26268	-205.0298	1	212.6093	-74.65506	3.405189E-007	-0.0001206	9
	40	107	30.04808	62.10859	-249.8674	1	257.4708	-76.0411	3.062126E-007	-0.0001206	9
	41	110	23.91582	69.88589	-308.7247	1	316.5359	-77.24495	3.665535E-007	-0.0001338	9
	42	112	18.60119	80.70668	-389.4844	1	397.7583	-78.29318	3.35359E-007	-0.0001209	9
	43	114	15.02404	92.17266	-472.6123	1	481.5166	-78.96424	3.907591E-007	-0.0001206	8
	44	117	12.01923	107.5501	-580.7142	1	590.5896	-79.50753	4.284666E-007	-0.0001208	8
	45	119	9.450605	128.9762	-724.993	1	736.376	-79.91262	3.745285E-007	-0.0001085	8
	46	122	7.512019	155.1028	-895.0532	1	908.3926	-80.16891	4.156606E-007	-0.0001308	8
	47	124	5.978954	188.7173	-1103.116	1	1119.142	-80.29202	4.589047E-007	-0.0001448	8
	48	127	4.734848	232.9178	-1364.989	1	1384.718	-80.31648	4.304346E-007	-0.0001427	8
	49	131	3.75601	288.4501	-1684.93	1	1709.442	-80.28547	4.526745E-007	-0.000096	8
	50	134	3.004808	356.6278	-2061.014	1	2091.641	-80.18303	4.2294E-007	-0.0001193	8
	51	138	2.372217	452.4193	-2552.338	1	2592.125	-79.94834	4.244446E-007	-0.0001735	8
	52	142	1.878005	567.8295	-3153.981	1	3204.688	-79.79404	4.557472E-007	-0.0001075	8
	53	147	1.512097	709.6379	-3823.368	1	3888.667	-79.48524	4.292739E-007	-0.0001653	8
	54	152	1.201923	900.761	-4721.871	1	4807.019	-79.19981	6.015369E-008	-6.717953E-005	7
	55	158	0.956633	1149.332	-5793.979	1	5906.874	-78.78008	4.166608E-008	-0.0006517	7
