EXPLAIN
TAG	EISPOT
TITLE	LABEL	Potentiostatic EIS	Test Identifier
DATE	LABEL	10/12/2021	Date
TIME	LABEL	15:21:31	Time
NOTES	NOTES	1	Notes...
	
PSTAT	PSTAT	REF3000-16137	Potentiostat
VDC	POTEN	0.00000E+000	T	DC Voltage (V)
FREQINIT	QUANT	3.00000E+005	Initial Freq. (Hz)
FREQFINAL	QUANT	1.00000E+000	Final Freq. (Hz)
PTSPERDEC	QUANT	1.00000E+001	Points/decade
VAC	QUANT	5.00000E+001	AC Voltage (mV rms)
AREA	QUANT	1.00000E+000	Sample Area (cm^2)
SPEED	SELECTOR	2	Optimize for:
ZGUESS	QUANT	1.00000E+003	Estimated Z (ohms)
EOC	QUANT	0	Open Circuit (V)
SEQUENCER	TOGGLE	TRUE	Run as Sequence
PSTATMODEL	IQUANT	5	Pstat Model
PSTATSECTION	LABEL	REF3000-16137	Pstat Section
PSTATSERIALNO	LABEL	16137	Pstat Serial Number
CTRLMODE	IQUANT	1	Control Mode
IESTAB	IQUANT	0	I/E Stability
CASPEED	IQUANT	1	Control Amp Speed
CONVENTION	IQUANT	1	Current Convention
ICHRANGE	IQUANT	2	Ich Range
ICHRANGEMODE	TOGGLE	F	Ich Auto Range
ICHOFFSETENABLE	TOGGLE	T	Ich Offset Enable
ICHOFFSET	QUANT	0	Ich Offset (V)
ICHFILTER	IQUANT	3	Ich Filter
VCHRANGE	IQUANT	2	Vch Range
VCHRANGEMODE	TOGGLE	F	Vch Auto Range
VCHOFFSETENABLE	TOGGLE	T	Vch Offset Enable
VCHOFFSET	QUANT	0	Vch Offset (V)
VCHFILTER	IQUANT	3	Vch Filter
ACHRANGE	IQUANT	2	Ach Range
ACHOFFSETENABLE	TOGGLE	F	Ach Offset Enable
ACHOFFSET	QUANT	0	Ach Offset (V)
ACHFILTER	IQUANT	3	Ach Filter
IERANGELOWERLIMIT	IQUANT	2	I/E Range Lower Limit
IERANGEMODE	TOGGLE	F	I/E AutoRange
IERANGE	IQUANT	11	I/E Range
POSFEEDENABLE	TOGGLE	F	Positive Feedback IR Comp
POSFEEDRESISTANCE	QUANT	0	Positive Feedback Resistance (ohm)
ACHSELECT	IQUANT	0	Ach Select
CABLEID	IQUANT	13	Cable ID
DCCALDATE	LABEL	9/10/2021	DC Calibration Date
ACCALDATE	LABEL	9/10/2021	AC Calibration Date
THERMOSELECT	IQUANT	1	Thermo Select
FRAMEWORKVERSION	QUANT	6.33	Framework Version
INSTRUMENTVERSION	LABEL	3.50	Instrument Version
COMPLIANCEVOLTAGE	IQUANT	0	Compliance Voltage
ZCURVE	TABLE
	Pt	Time	Freq	Zreal	Zimag	Zsig	Zmod	Zphz	Idc	Vdc	IERange
	#	s	Hz	ohm	ohm	V	ohm	°	A	V	#
	0	10	300046.9	1.950793	2.38452	1	3.080832	50.71315	-3.317337E-005	-0.0005392	11
	1	14	238359.4	1.892542	1.892768	1	2.676618	45.00342	-7.057975E-005	-0.0006292	11
	2	17	189328.1	1.957325	1.353881	1	2.37994	34.67159	-7.427606E-005	-0.0007572	12
	3	20	150421.9	1.903103	1.060476	1	2.178626	29.12808	-0.00016	-0.0007666	12
	4	24	119484.4	1.840382	0.9018267	1	2.049462	26.10585	-3.051858E-006	0.0001548	11
	5	27	94921.88	1.832388	0.6804117	1	1.954637	20.37123	-3.2712E-005	0.00011	11
	6	29	75421.88	1.830777	0.4991245	1	1.897595	15.24993	-3.523914E-005	0.0001801	11
	7	32	59859.37	1.830345	0.3438554	1	1.862364	10.63978	-5.335512E-005	0.0002312	11
	8	34	47578.12	1.832084	0.2075799	1	1.843806	6.464194	-4.66213E-005	0.0002736	11
	9	37	37828.12	1.834989	0.0833478	1	1.836881	2.600668	-9.445316E-005	0.0002708	11
	10	39	30046.88	1.841327	-0.0351835	1	1.841663	-1.094655	-5.422228E-005	0.0003444	11
	11	42	23859.38	1.848623	-0.1541416	1	1.855038	-4.766402	-7.257215E-005	0.0003512	11
	12	44	18984.38	1.857374	-0.2781093	1	1.87808	-8.515775	-4.221517E-005	0.0003722	11
	13	46	15046.87	1.869053	-0.416003	1	1.914789	-12.54802	-9.30237E-005	0.0003439	11
	14	49	11953.13	1.88466	-0.5710072	1	1.969262	-16.85556	-6.161995E-005	0.0003712	11
	15	51	9515.62	1.90267	-0.7504726	1	2.045327	-21.52583	-1.967034E-005	0.0004101	11
	16	53	7546.875	1.927396	-0.966651	1	2.156216	-26.63522	-7.18222E-005	0.0003748	11
	17	56	5928.309	1.958738	-1.239225	1	2.317829	-32.3201	-8.065738E-005	0.0003656	11
	18	58	4733.456	1.995952	-1.548502	1	2.526199	-37.80507	-3.833278E-005	0.0003801	11
	19	60	3796.875	2.042555	-1.915738	1	2.800372	-43.16496	-2.284551E-005	0.0003761	11
	20	63	2987.132	2.106096	-2.40813	1	3.199176	-48.8278	-1.368232E-005	0.0003933	11
	21	65	2390.625	2.180411	-2.971414	1	3.685579	-53.72894	-5.291829E-005	0.0003697	11
	22	67	1884.191	2.287474	-3.712849	1	4.360939	-58.36292	1.41126E-005	-0.0001493	10
	23	69	1516.544	2.408326	-4.54329	1	5.142132	-62.07265	-8.11045E-006	-0.0001301	10
	24	72	1193.986	2.577792	-5.670588	1	6.229011	-65.55394	-2.21097E-005	-0.0001182	10
	25	74	946.5144	2.789143	-7.027483	1	7.560744	-68.35233	2.27747E-005	-0.0001228	10
	26	77	751.7689	3.077607	-8.684603	1	9.213794	-70.48694	2.265793E-005	-0.0001357	10
	27	79	597.4265	3.442842	-10.72404	1	11.26313	-72.20131	-2.470823E-005	-0.0001148	10
	28	81	477.4305	3.923386	-13.16924	1	13.74124	-73.41013	-4.722355E-007	-0.0001214	10
	29	84	376.6741	4.598793	-16.33426	1	16.96929	-74.27581	-3.325002E-007	-0.0001187	10
	30	86	298.2954	5.499349	-20.16954	1	20.90582	-74.74867	-5.70334E-007	-0.0001117	10
	31	88	237.7717	6.684989	-24.72068	1	25.60862	-74.86795	-7.233575E-007	-0.000118	10
	32	91	189.0121	8.316557	-30.31769	1	31.43768	-74.66032	-9.34857E-007	-0.0001195	10
	33	93	150.2404	10.54221	-37.07998	1	38.54949	-74.12901	-1.085812E-006	-0.0001206	10
	34	95	119.1737	13.61074	-45.22335	1	47.22715	-73.24994	3.374221E-007	-0.0001284	9
	35	98	95.0169	17.72067	-54.73712	1	57.53412	-72.06109	1.686559E-007	-0.0001315	9
	36	100	75.60484	23.367	-65.99458	1	70.0093	-70.50224	3.757367E-007	-0.0001258	9
	37	103	54.50582	35.07303	-85.07207	1	92.01834	-67.5949	8.066291E-007	-0.0001356	9
	38	106	45.95588	43.41953	-96.3536	1	105.6848	-65.74239	1.597294E-006	-0.0001246	9
	39	109	37.20238	56.30368	-111.1963	1	124.6384	-63.14487	2.210585E-006	-0.0001292	9
	40	111	30.04808	72.84135	-126.912	1	146.3301	-60.14626	2.135228E-006	-0.0001272	9
	41	114	23.91582	94.37703	-143.3273	1	171.6093	-56.63622	2.925921E-006	-0.0001368	9
	42	117	18.60119	123.2339	-159.6996	1	201.719	-52.34404	4.963647E-006	-0.0001309	9
	43	119	15.02404	151.3192	-171.2196	1	228.5031	-48.53062	6.002493E-006	-0.0001199	9
	44	122	12.01923	183.1459	-179.821	1	256.6671	-44.47518	6.783028E-006	-0.0001307	9
	45	124	9.450605	218.8909	-185.3666	1	286.8344	-40.25941	6.423391E-006	-0.0001678	9
	46	127	7.512019	253.5749	-186.9249	1	315.0256	-36.3961	6.034647E-006	-0.0001228	9
	47	130	5.978954	287.2381	-184.8578	1	341.5818	-32.76411	4.999169E-006	-0.0001345	9
	48	134	4.734848	319.7446	-180.066	1	366.961	-29.38629	5.430471E-006	-0.0001021	9
	49	139	3.75601	349.0339	-172.7151	1	389.4293	-26.32794	5.221358E-006	-0.0001177	8
	50	145	3.004808	376.6692	-165.8436	1	411.5627	-23.7634	3.834079E-006	-8.610557E-005	8
	51	151	2.372217	403.5822	-157.9439	1	433.3877	-21.37314	3.962227E-006	-6.514899E-005	8
	52	159	1.878005	430.7551	-153.1108	1	457.1574	-19.56763	3.529953E-006	-0.0001412	8
	53	168	1.512097	452.2037	-146.7504	1	475.4197	-17.97943	2.698175E-006	-1.565002E-005	8
	54	178	1.201923	475.093	-142.3643	1	495.9646	-16.68114	2.61891E-006	-0.0001363	8
	55	191	0.956633	499.0647	-140.2406	1	518.3947	-15.69573	3.396721E-007	-0.0006635	8
