EXPLAIN
TAG	EISPOT
TITLE	LABEL	Potentiostatic EIS	Test Identifier
DATE	LABEL	10/12/2021	Date
TIME	LABEL	15:58:11	Time
NOTES	NOTES	1	Notes...
	
PSTAT	PSTAT	REF3000-16137	Potentiostat
VDC	POTEN	0.00000E+000	T	DC Voltage (V)
FREQINIT	QUANT	3.00000E+005	Initial Freq. (Hz)
FREQFINAL	QUANT	1.00000E+000	Final Freq. (Hz)
PTSPERDEC	QUANT	1.00000E+001	Points/decade
VAC	QUANT	5.00000E+001	AC Voltage (mV rms)
AREA	QUANT	1.00000E+000	Sample Area (cm^2)
SPEED	SELECTOR	2	Optimize for:
ZGUESS	QUANT	1.00000E+003	Estimated Z (ohms)
EOC	QUANT	0	Open Circuit (V)
SEQUENCER	TOGGLE	TRUE	Run as Sequence
PSTATMODEL	IQUANT	5	Pstat Model
PSTATSECTION	LABEL	REF3000-16137	Pstat Section
PSTATSERIALNO	LABEL	16137	Pstat Serial Number
CTRLMODE	IQUANT	1	Control Mode
IESTAB	IQUANT	0	I/E Stability
CASPEED	IQUANT	1	Control Amp Speed
CONVENTION	IQUANT	1	Current Convention
ICHRANGE	IQUANT	2	Ich Range
ICHRANGEMODE	TOGGLE	F	Ich Auto Range
ICHOFFSETENABLE	TOGGLE	T	Ich Offset Enable
ICHOFFSET	QUANT	0	Ich Offset (V)
ICHFILTER	IQUANT	3	Ich Filter
VCHRANGE	IQUANT	2	Vch Range
VCHRANGEMODE	TOGGLE	F	Vch Auto Range
VCHOFFSETENABLE	TOGGLE	T	Vch Offset Enable
VCHOFFSET	QUANT	0	Vch Offset (V)
VCHFILTER	IQUANT	3	Vch Filter
ACHRANGE	IQUANT	2	Ach Range
ACHOFFSETENABLE	TOGGLE	F	Ach Offset Enable
ACHOFFSET	QUANT	0	Ach Offset (V)
ACHFILTER	IQUANT	3	Ach Filter
IERANGELOWERLIMIT	IQUANT	2	I/E Range Lower Limit
IERANGEMODE	TOGGLE	F	I/E AutoRange
IERANGE	IQUANT	11	I/E Range
POSFEEDENABLE	TOGGLE	F	Positive Feedback IR Comp
POSFEEDRESISTANCE	QUANT	0	Positive Feedback Resistance (ohm)
ACHSELECT	IQUANT	0	Ach Select
CABLEID	IQUANT	13	Cable ID
DCCALDATE	LABEL	9/10/2021	DC Calibration Date
ACCALDATE	LABEL	9/10/2021	AC Calibration Date
THERMOSELECT	IQUANT	1	Thermo Select
FRAMEWORKVERSION	QUANT	6.33	Framework Version
INSTRUMENTVERSION	LABEL	3.50	Instrument Version
COMPLIANCEVOLTAGE	IQUANT	0	Compliance Voltage
ZCURVE	TABLE
	Pt	Time	Freq	Zreal	Zimag	Zsig	Zmod	Zphz	Idc	Vdc	IERange
	#	s	Hz	ohm	ohm	V	ohm	°	A	V	#
	0	10	300046.9	4.163739	2.364482	1	4.788266	29.59114	6.733942E-005	-0.0009977	10
	1	13	238359.4	4.136528	1.878695	1	4.543166	24.42622	2.136023E-005	-0.001132	10
	2	16	189328.1	4.124403	1.480296	1	4.382006	19.74365	-2.072046E-005	-0.0008475	10
	3	19	150421.9	4.108815	1.146716	1	4.265831	15.59372	-2.697644E-005	-0.0006062	10
	4	21	119484.4	4.112003	0.8845304	1	4.206063	12.13987	-2.455249E-005	-0.0004624	10
	5	24	94921.88	4.119448	0.6710148	1	4.17374	9.251628	1.574513E-005	-0.0003204	10
	6	27	75421.88	4.123509	0.4805159	1	4.151412	6.646747	3.487364E-005	-0.0002919	10
	7	29	59859.37	4.129851	0.3156721	1	4.141898	4.370999	-2.137515E-005	-0.0002429	10
	8	32	47578.12	4.139359	0.1698815	1	4.142844	2.350131	-1.654595E-005	-0.0002233	10
	9	34	37828.12	4.150863	0.034036	1	4.151002	0.4698005	7.355625E-006	-0.0001976	10
	10	37	30046.88	4.163802	-0.0975844	1	4.164945	-1.342559	-1.8259E-005	-0.0001619	10
	11	39	23859.38	4.179774	-0.2317218	1	4.186193	-3.173163	-2.936126E-005	-0.0001425	10
	12	42	18984.38	4.197154	-0.3735317	1	4.213742	-5.085722	1.253533E-005	-0.0001629	10
	13	44	15046.87	4.217268	-0.5336299	1	4.250895	-7.211568	4.746862E-006	-0.0001579	10
	14	46	11953.13	4.239441	-0.7153824	1	4.299376	-9.57812	4.666476E-006	-0.000146	10
	15	49	9515.62	4.266154	-0.9277972	1	4.365877	-12.26955	2.328915E-005	-0.0001419	10
	16	51	7546.875	4.299132	-1.187834	1	4.460212	-15.44527	2.106127E-005	-0.000123	10
	17	53	5928.309	4.338655	-1.516383	1	4.596014	-19.26479	1.568751E-005	-0.0001322	10
	18	55	4733.456	4.384494	-1.891898	1	4.775255	-23.34007	2.245572E-005	-0.0001372	10
	19	58	3796.875	4.439425	-2.339492	1	5.018138	-27.78838	2.33807E-005	-0.000144	10
	20	60	2987.132	4.511118	-2.941844	1	5.385595	-33.10965	2.237938E-005	-0.0001362	10
	21	62	2390.625	4.594681	-3.632197	1	5.856957	-38.32715	-9.092224E-006	-8.778887E-005	10
	22	65	1884.191	4.704435	-4.540682	1	6.53831	-43.98526	-2.597684E-005	-0.0001058	10
	23	67	1516.544	4.829316	-5.561436	1	7.365586	-49.03033	6.154138E-006	-0.0001431	10
	24	69	1193.986	4.998568	-6.949762	1	8.560658	-54.27469	-1.014715E-005	-0.0001217	10
	25	72	946.5144	5.19769	-8.632182	1	10.07624	-58.94662	3.894957E-006	-0.0001471	10
	26	74	751.7689	5.456019	-10.68746	1	11.99958	-62.95538	6.926548E-006	-0.0001271	10
	27	77	597.4265	5.771378	-13.22545	1	14.42988	-66.4243	-2.365441E-005	-0.0001072	10
	28	79	477.4305	6.161975	-16.28878	1	17.41535	-69.27859	-1.186608E-006	-0.0001092	10
	29	81	376.6741	6.669225	-20.28263	1	21.35096	-71.79838	-1.477386E-006	-0.0001141	10
	30	84	298.2954	7.296459	-25.17211	1	26.20827	-73.83509	-1.790728E-006	-0.0001071	10
	31	86	237.7717	8.060436	-31.04162	1	32.07106	-75.44374	-2.228556E-006	-0.0001094	10
	32	89	189.0121	9.036534	-38.39776	1	39.44676	-76.75698	-1.88985E-006	-0.000109	10
	33	91	150.2404	10.25437	-47.40716	1	48.50352	-77.79472	-6.365696E-009	-0.0001253	9
	34	93	119.1737	11.85266	-58.74966	1	59.93336	-78.59377	-5.519155E-009	-0.0001306	9
	35	96	95.0169	13.83761	-72.38048	1	73.69134	-79.17686	3.545843E-008	-0.000123	9
	36	98	75.60484	16.43239	-89.35487	1	90.85326	-79.57972	-7.697003E-008	-0.0001245	9
	37	101	54.50582	21.51493	-120.67	1	122.573	-79.89065	1.152252E-010	-0.000133	9
	38	103	45.95588	25.13281	-141.1645	1	143.3844	-79.90488	7.628348E-008	-0.0001231	9
	39	106	37.20238	30.63389	-171.174	1	173.8936	-79.85356	1.055769E-007	-0.000121	9
	40	108	30.04808	37.55403	-207.6121	1	210.9812	-79.74689	9.386007E-008	-0.0001279	9
	41	111	23.91582	47.51215	-255.5217	1	259.9014	-79.46662	-2.066248E-008	-0.0001261	9
	42	113	18.60119	62.1349	-320.0944	1	326.0693	-79.01469	-7.292628E-008	-0.0001685	9
	43	115	15.02404	77.92221	-387.46	1	395.2178	-78.62891	1.270038E-007	-0.0001214	9
	44	117	12.01923	99.369	-470.5045	1	480.8833	-78.07456	5.205663E-007	-0.0001149	8
	45	120	9.450605	130.2978	-582.0889	1	596.4939	-77.38261	5.066474E-007	-0.0001221	8
	46	122	7.512019	170.7916	-711.8557	1	732.0576	-76.50835	4.606315E-007	-0.0001244	8
	47	125	5.978954	222.0905	-868.416	1	896.3652	-75.65453	5.523972E-007	-0.0001159	8
	48	128	4.734848	295.3587	-1061.342	1	1101.673	-74.44876	6.617116E-007	-0.000097	8
	49	132	3.75601	391.6731	-1290.665	1	1348.786	-73.11874	6.571512E-007	-0.0001274	8
	50	137	3.004808	519.1726	-1550.042	1	1634.677	-71.48219	7.231234E-007	-0.0001153	8
	51	143	2.372217	708.0667	-1865.001	1	1994.89	-69.21022	7.222413E-007	-9.321432E-005	8
	52	148	1.878005	951.649	-2231.502	1	2425.951	-66.90363	7.149512E-007	-0.000121	8
	53	157	1.512097	1243.454	-2604.504	1	2886.108	-64.47906	7.595696E-007	-0.0001663	8
	54	167	1.201923	1654.194	-3036.045	1	3457.446	-61.41618	7.523128E-007	-0.0001283	8
	55	180	0.956633	2159.297	-3469.234	1	4086.337	-58.10133	7.173307E-007	-0.0006626	8
