EXPLAIN
TAG	EISPOT
TITLE	LABEL	Potentiostatic EIS	Test Identifier
DATE	LABEL	10/12/2021	Date
TIME	LABEL	15:34:57	Time
NOTES	NOTES	1	Notes...
	
PSTAT	PSTAT	REF3000-16137	Potentiostat
VDC	POTEN	0.00000E+000	T	DC Voltage (V)
FREQINIT	QUANT	3.00000E+005	Initial Freq. (Hz)
FREQFINAL	QUANT	1.00000E+000	Final Freq. (Hz)
PTSPERDEC	QUANT	1.00000E+001	Points/decade
VAC	QUANT	5.00000E+001	AC Voltage (mV rms)
AREA	QUANT	1.00000E+000	Sample Area (cm^2)
SPEED	SELECTOR	2	Optimize for:
ZGUESS	QUANT	1.00000E+003	Estimated Z (ohms)
EOC	QUANT	0	Open Circuit (V)
SEQUENCER	TOGGLE	TRUE	Run as Sequence
PSTATMODEL	IQUANT	5	Pstat Model
PSTATSECTION	LABEL	REF3000-16137	Pstat Section
PSTATSERIALNO	LABEL	16137	Pstat Serial Number
CTRLMODE	IQUANT	1	Control Mode
IESTAB	IQUANT	0	I/E Stability
CASPEED	IQUANT	1	Control Amp Speed
CONVENTION	IQUANT	1	Current Convention
ICHRANGE	IQUANT	2	Ich Range
ICHRANGEMODE	TOGGLE	F	Ich Auto Range
ICHOFFSETENABLE	TOGGLE	T	Ich Offset Enable
ICHOFFSET	QUANT	0	Ich Offset (V)
ICHFILTER	IQUANT	3	Ich Filter
VCHRANGE	IQUANT	2	Vch Range
VCHRANGEMODE	TOGGLE	F	Vch Auto Range
VCHOFFSETENABLE	TOGGLE	T	Vch Offset Enable
VCHOFFSET	QUANT	0	Vch Offset (V)
VCHFILTER	IQUANT	3	Vch Filter
ACHRANGE	IQUANT	2	Ach Range
ACHOFFSETENABLE	TOGGLE	F	Ach Offset Enable
ACHOFFSET	QUANT	0	Ach Offset (V)
ACHFILTER	IQUANT	3	Ach Filter
IERANGELOWERLIMIT	IQUANT	2	I/E Range Lower Limit
IERANGEMODE	TOGGLE	F	I/E AutoRange
IERANGE	IQUANT	11	I/E Range
POSFEEDENABLE	TOGGLE	F	Positive Feedback IR Comp
POSFEEDRESISTANCE	QUANT	0	Positive Feedback Resistance (ohm)
ACHSELECT	IQUANT	0	Ach Select
CABLEID	IQUANT	13	Cable ID
DCCALDATE	LABEL	9/10/2021	DC Calibration Date
ACCALDATE	LABEL	9/10/2021	AC Calibration Date
THERMOSELECT	IQUANT	1	Thermo Select
FRAMEWORKVERSION	QUANT	6.33	Framework Version
INSTRUMENTVERSION	LABEL	3.50	Instrument Version
COMPLIANCEVOLTAGE	IQUANT	0	Compliance Voltage
ZCURVE	TABLE
	Pt	Time	Freq	Zreal	Zimag	Zsig	Zmod	Zphz	Idc	Vdc	IERange
	#	s	Hz	ohm	ohm	V	ohm	°	A	V	#
	0	10	300046.9	2.319204	2.360216	1	3.308976	45.50215	1.157955E-005	-0.0004593	11
	1	13	238359.4	2.27953	1.882636	1	2.956446	39.55288	-0.0001692	-0.0006493	11
	2	16	189328.1	2.25246	1.48002	1	2.695188	33.30764	-6.442187E-005	-8.484934E-005	11
	3	20	150421.9	2.289721	1.029961	1	2.510705	24.21913	-8.473178E-005	-0.0004919	12
	4	24	119484.4	2.255197	0.7950794	1	2.391248	19.42032	-5.10385E-005	-0.0003477	12
	5	27	94921.88	2.237569	0.5940133	1	2.315074	14.86753	-1.449786E-006	-0.0002843	12
	6	31	75421.88	2.216961	0.4885004	1	2.270143	12.42637	-3.709073E-005	0.0002417	11
	7	33	59859.37	2.217395	0.3310439	1	2.24197	8.491205	-3.154037E-005	0.0002024	11
	8	36	47578.12	2.221443	0.1931082	1	2.22982	4.968185	-7.077154E-005	0.0003002	11
	9	38	37828.12	2.225276	0.0664872	1	2.226269	1.711384	-4.084047E-005	0.0002624	11
	10	41	30046.88	2.232183	-0.0556438	1	2.232877	-1.427972	-1.679141E-005	0.0003741	11
	11	43	23859.38	2.240877	-0.1787055	1	2.247992	-4.559574	-5.470643E-005	0.0003652	11
	12	46	18984.38	2.250982	-0.3079436	1	2.271948	-7.789943	-1.648303E-005	0.0003938	11
	13	48	15046.87	2.263412	-0.4526855	1	2.308237	-11.31001	-8.948485E-005	0.0003267	11
	14	50	11953.13	2.2801	-0.6166001	1	2.362002	-15.13236	-1.414719E-005	0.0003983	11
	15	53	9515.62	2.299652	-0.8063219	1	2.436914	-19.32209	-8.212421E-005	0.0003474	11
	16	55	7546.875	2.325269	-1.035752	1	2.545517	-24.00979	-4.23205E-005	0.0003899	11
	17	57	5928.309	2.35732	-1.326894	1	2.705107	-29.3744	-4.346804E-005	0.0003545	11
	18	60	4733.456	2.395849	-1.657317	1	2.91321	-34.67337	-2.031841E-005	0.0003861	11
	19	62	3796.875	2.443656	-2.049881	1	3.189588	-39.99188	-2.21769E-005	0.0004001	11
	20	64	2987.132	2.507236	-2.57734	1	3.59568	-45.78992	-1.278017E-005	0.0004059	11
	21	67	2390.625	2.58409	-3.183448	1	4.100227	-50.93284	9.739455E-006	-0.0001469	10
	22	69	1884.191	2.685396	-3.977689	1	4.799308	-55.97614	7.830348E-006	-0.0001228	10
	23	71	1516.544	2.802643	-4.869678	1	5.618592	-60.07831	-4.007537E-007	-0.0001404	10
	24	74	1193.986	2.962972	-6.0809	1	6.764358	-64.02193	1.093725E-006	-0.0001389	10
	25	76	946.5144	3.156593	-7.543719	1	8.177516	-67.29362	-1.70385E-005	-0.0001355	10
	26	78	751.7689	3.413276	-9.335505	1	9.93992	-69.91642	-1.813739E-005	-0.0001069	10
	27	81	597.4265	3.739546	-11.5401	1	12.13088	-72.0452	-1.211705E-005	-0.0001628	10
	28	83	477.4305	4.149446	-14.20058	1	14.7944	-73.7115	3.063375E-007	-0.0001098	10
	29	85	376.6741	4.71088	-17.65736	1	18.27497	-75.06177	3.697085E-007	-0.0001126	10
	30	88	298.2954	5.438739	-21.87667	1	22.54259	-76.03879	8.932048E-008	-0.0001095	10
	31	90	237.7717	6.367363	-26.92204	1	27.66477	-76.69343	-3.422442E-007	-0.0001143	10
	32	92	189.0121	7.625416	-33.19836	1	34.06286	-77.06397	-6.449415E-007	-0.0001132	10
	33	95	150.2404	9.296344	-40.88555	1	41.92911	-77.19017	-8.0959E-007	-0.0001123	10
	34	97	119.1737	11.56229	-50.32513	1	51.63628	-77.06075	4.651461E-007	-0.0001273	9
	35	100	95.0169	14.54734	-61.62651	1	63.32023	-76.71809	3.148542E-007	-0.0001294	9
	36	102	75.60484	18.62756	-75.44968	1	77.71512	-76.13174	2.811304E-007	-0.0001305	9
	37	105	54.50582	27.14496	-100.3196	1	103.9273	-74.8592	6.045681E-007	-0.0001287	9
	38	107	45.95588	33.35364	-116.0767	1	120.7736	-73.96845	7.104484E-007	-0.000122	9
	39	110	37.20238	43.33982	-138.6118	1	145.2294	-72.63708	8.983831E-007	-0.0001272	9
	40	112	30.04808	56.51776	-164.9589	1	174.3723	-71.08766	8.778788E-007	-0.0001273	9
	41	115	23.91582	75.5694	-197.2699	1	211.249	-69.03934	1.092214E-006	-0.0001306	9
	42	118	18.60119	104.6188	-237.5959	1	259.6091	-66.23503	1.320714E-006	-0.0001247	9
	43	120	15.02404	136.886	-275.0541	1	307.2337	-63.54188	1.892624E-006	-0.0001319	9
	44	122	12.01923	179.7237	-315.659	1	363.2371	-60.34453	2.372011E-006	-0.0001283	9
	45	125	9.450605	235.9317	-357.0536	1	427.9614	-56.54432	3.026556E-006	-0.0001123	8
	46	128	7.512019	301.4264	-394.4918	1	496.4692	-52.61699	3.107684E-006	-0.0001366	8
	47	131	5.978954	375.6556	-425.6112	1	567.6812	-48.56753	3.456199E-006	-0.0001552	8
	48	135	4.734848	459.2523	-449.428	1	642.5715	-44.38057	3.618737E-006	-0.000123	8
	49	140	3.75601	546.4606	-463.4654	1	716.5328	-40.30202	3.361438E-006	-0.000143	8
	50	145	3.004808	632.1049	-468.0253	1	786.514	-36.51712	3.346628E-006	-0.0001037	8
	51	152	2.372217	722.905	-463.5519	1	858.7619	-32.66941	3.420714E-006	-4.5823E-005	8
	52	159	1.878005	811.3934	-458.8963	1	932.1722	-29.49101	3.138774E-006	-0.0001381	8
	53	168	1.512097	888.0048	-442.9215	1	992.337	-26.50923	2.895944E-006	-9.252805E-005	8
	54	179	1.201923	967.779	-424.5684	1	1056.814	-23.68724	2.772196E-006	-0.0001513	8
	55	192	0.956633	1042.278	-406.7451	1	1118.832	-21.31804	2.152449E-006	-0.0006679	8
