EXPLAIN
TAG	EISPOT
TITLE	LABEL	Potentiostatic EIS	Test Identifier
DATE	LABEL	10/12/2021	Date
TIME	LABEL	16:43:59	Time
NOTES	NOTES	1	Notes...
	
PSTAT	PSTAT	REF3000-16137	Potentiostat
VDC	POTEN	0.00000E+000	T	DC Voltage (V)
FREQINIT	QUANT	3.00000E+005	Initial Freq. (Hz)
FREQFINAL	QUANT	1.00000E+000	Final Freq. (Hz)
PTSPERDEC	QUANT	1.00000E+001	Points/decade
VAC	QUANT	5.00000E+001	AC Voltage (mV rms)
AREA	QUANT	1.00000E+000	Sample Area (cm^2)
SPEED	SELECTOR	2	Optimize for:
ZGUESS	QUANT	1.00000E+003	Estimated Z (ohms)
EOC	QUANT	0	Open Circuit (V)
SEQUENCER	TOGGLE	TRUE	Run as Sequence
PSTATMODEL	IQUANT	5	Pstat Model
PSTATSECTION	LABEL	REF3000-16137	Pstat Section
PSTATSERIALNO	LABEL	16137	Pstat Serial Number
CTRLMODE	IQUANT	1	Control Mode
IESTAB	IQUANT	0	I/E Stability
CASPEED	IQUANT	1	Control Amp Speed
CONVENTION	IQUANT	1	Current Convention
ICHRANGE	IQUANT	2	Ich Range
ICHRANGEMODE	TOGGLE	F	Ich Auto Range
ICHOFFSETENABLE	TOGGLE	T	Ich Offset Enable
ICHOFFSET	QUANT	0	Ich Offset (V)
ICHFILTER	IQUANT	3	Ich Filter
VCHRANGE	IQUANT	2	Vch Range
VCHRANGEMODE	TOGGLE	F	Vch Auto Range
VCHOFFSETENABLE	TOGGLE	T	Vch Offset Enable
VCHOFFSET	QUANT	0	Vch Offset (V)
VCHFILTER	IQUANT	3	Vch Filter
ACHRANGE	IQUANT	2	Ach Range
ACHOFFSETENABLE	TOGGLE	F	Ach Offset Enable
ACHOFFSET	QUANT	0	Ach Offset (V)
ACHFILTER	IQUANT	3	Ach Filter
IERANGELOWERLIMIT	IQUANT	2	I/E Range Lower Limit
IERANGEMODE	TOGGLE	F	I/E AutoRange
IERANGE	IQUANT	11	I/E Range
POSFEEDENABLE	TOGGLE	F	Positive Feedback IR Comp
POSFEEDRESISTANCE	QUANT	0	Positive Feedback Resistance (ohm)
ACHSELECT	IQUANT	0	Ach Select
CABLEID	IQUANT	13	Cable ID
DCCALDATE	LABEL	9/10/2021	DC Calibration Date
ACCALDATE	LABEL	9/10/2021	AC Calibration Date
THERMOSELECT	IQUANT	1	Thermo Select
FRAMEWORKVERSION	QUANT	6.33	Framework Version
INSTRUMENTVERSION	LABEL	3.50	Instrument Version
COMPLIANCEVOLTAGE	IQUANT	0	Compliance Voltage
ZCURVE	TABLE
	Pt	Time	Freq	Zreal	Zimag	Zsig	Zmod	Zphz	Idc	Vdc	IERange
	#	s	Hz	ohm	ohm	V	ohm	°	A	V	#
	0	18	300046.9	487.9891	-78.17938	1	494.2119	-9.101854	1.430281E-005	-0.0009576	9
	1	28	238359.4	507.0052	-70.72192	1	511.9139	-7.940924	-9.368043E-005	0.0020032	9
	2	35	189328.1	523.2503	-62.57373	1	526.9785	-6.819424	2.318783E-005	-0.0017335	9
	3	44	150421.9	543.8018	-58.47589	1	546.9368	-6.137525	-9.160932E-005	0.0021718	9
	4	51	119484.4	557.2122	-48.84631	1	559.3491	-5.009853	7.80469E-005	-0.0034614	9
	5	59	94921.88	567.9294	-43.52534	1	569.5948	-4.382504	7.315925E-006	-0.000933	9
	6	61	75421.88	575.6109	-25.05709	1	576.156	-2.492586	-1.486425E-005	0.0024861	8
	7	64	59859.37	581.0813	-23.06498	1	581.5389	-2.27306	-1.022176E-005	0.006308	8
	8	66	47578.12	587.6356	-22.38095	1	588.0616	-2.181138	-3.370612E-006	-0.0029235	8
	9	69	37828.12	592.786	-21.10936	1	593.1617	-2.039465	-8.910066E-006	-0.0007958	8
	10	71	30046.88	599.1727	-20.81809	1	599.5342	-1.989926	1.771956E-005	-0.0059699	8
	11	74	23859.38	605.9426	-21.40414	1	606.3206	-2.023058	8.252447E-006	-0.0060828	8
	12	76	18984.38	612.0402	-21.69428	1	612.4245	-2.030047	-3.458449E-006	-0.0031058	8
	13	79	15046.87	616.1224	-20.46589	1	616.4622	-1.902509	-8.582412E-006	-0.0007884	8
	14	81	11953.13	628.2796	-22.18092	1	628.671	-2.021943	-1.420117E-005	0.0066341	8
	15	83	9515.62	633.4027	-22.07476	1	633.7872	-1.996011	-1.250217E-005	0.001035	8
	16	86	7546.875	642.4459	-17.77909	1	642.6919	-1.585202	8.007318E-006	0.0012692	8
	17	88	5928.309	647.7944	-22.42968	1	648.1826	-1.983056	1.633844E-005	-0.006675	8
	18	90	4733.456	655.5308	-24.49502	1	655.9883	-2.139959	8.746087E-006	-0.006304	8
	19	93	3796.875	665.4991	-25.53849	1	665.989	-2.197644	-3.332635E-006	-0.0030416	8
	20	96	2987.132	673.5449	-27.22199	1	674.0948	-2.314407	-1.716828E-005	0.0050639	8
	21	98	2390.625	680.6188	-28.85602	1	681.2302	-2.427701	-1.052423E-005	0.0065547	8
	22	101	1884.191	693.2474	-29.21464	1	693.8627	-2.413115	-3.262953E-006	-0.0030951	8
	23	103	1516.544	698.3596	-33.14804	1	699.1458	-2.717538	-1.677362E-005	0.0062088	8
	24	106	1193.986	708.4326	-36.47867	1	709.3711	-2.947676	1.68759E-005	-0.0068814	8
	25	108	946.5144	718.6241	-40.8545	1	719.7845	-3.25382	-1.55029E-005	0.0024558	8
	26	111	751.7689	727.6938	-41.65176	1	728.8849	-3.275923	1.868778E-005	-0.0048652	8
	27	113	597.4265	736.4114	-47.93829	1	737.97	-3.724538	-1.328185E-005	0.0011031	8
	28	116	477.4305	746.9368	-52.69339	1	748.7932	-4.035301	-4.276724E-008	-0.0001606	8
	29	118	376.6741	756.6976	-59.23914	1	759.0129	-4.476351	-4.071501E-008	-0.0001331	8
	30	121	298.2954	766.7446	-67.27748	1	769.6905	-5.014536	-6.884591E-008	-0.0001086	8
	31	123	237.7717	777.2164	-76.96321	1	781.0178	-5.655231	-7.621264E-008	-0.0001104	8
	32	125	189.0121	788.0837	-89.02734	1	793.0964	-6.4452	-6.066119E-008	-0.000119	8
	33	128	150.2404	799.4391	-103.9613	1	806.1705	-7.409326	-8.557464E-008	-0.0001081	8
	34	130	119.1737	811.3166	-122.5743	1	820.5237	-8.591314	-5.25467E-008	-0.0001303	8
	35	133	95.0169	823.814	-144.957	1	836.47	-9.97952	-8.219403E-008	-0.0001246	8
	36	135	75.60484	837.4226	-172.7881	1	855.0628	-11.65842	-4.703759E-008	-0.0001319	8
	37	138	54.50582	855.8311	-224.0828	1	884.6807	-14.67242	-5.420679E-008	-0.0001203	8
	38	140	45.95588	869.1038	-257.8	1	906.5331	-16.5218	-8.505035E-008	-0.0001317	8
	39	143	37.20238	884.902	-307.3458	1	936.7567	-19.15323	-7.149121E-008	-0.0001107	8
	40	145	30.04808	902.5364	-368.3096	1	974.794	-22.19953	-7.068719E-008	-0.0001217	8
	41	147	23.91582	922.7658	-447.9934	1	1025.766	-25.8961	-4.116382E-008	-0.0001104	8
	42	150	18.60119	946.899	-558.0822	1	1099.124	-30.51419	-1.641314E-007	-0.0001164	8
	43	152	15.02404	971.101	-672.9763	1	1181.497	-34.72208	-6.203016E-008	-0.0001251	8
	44	154	12.01923	1000.112	-820.7155	1	1293.754	-39.3731	-8.357794E-008	-0.000138	8
	45	157	9.450605	1035.975	-1017.223	1	1451.891	-44.47673	-4.148482E-008	-0.0001162	8
	46	159	7.512019	1076.788	-1250.636	1	1650.322	-49.27179	-1.591413E-008	-0.0001537	8
	47	162	5.978954	1125.5	-1537.555	1	1905.473	-53.79563	-7.774872E-008	-0.0001115	8
	48	165	4.734848	1184.815	-1902.072	1	2240.907	-58.08091	-1.020921E-007	-0.0001367	8
	49	169	3.75601	1258.03	-2347.494	1	2663.338	-61.813	-4.388871E-008	-0.0001149	8
	50	172	3.004808	1343.088	-2876.973	1	3175.037	-64.97491	-5.615787E-008	-0.0001289	8
	51	176	2.372217	1457.142	-3573.421	1	3859.093	-67.81573	-8.96015E-008	-0.0001933	8
	52	180	1.878005	1590.621	-4437.948	1	4714.389	-70.28162	-1.461158E-008	-9.475921E-005	7
	53	185	1.512097	1750.935	-5405.016	1	5681.546	-72.05046	-2.934372E-008	-0.0002233	7
	54	190	1.201923	1945.527	-6692.103	1	6969.169	-73.7898	-2.356888E-008	-7.676329E-005	7
	55	196	0.956633	2189.929	-8260.47	1	8545.826	-75.15191	-2.930568E-008	-0.0006519	7
