EXPLAIN
TAG	EISPOT
TITLE	LABEL	Potentiostatic EIS	Test Identifier
DATE	LABEL	10/12/2021	Date
TIME	LABEL	16:15:46	Time
NOTES	NOTES	1	Notes...
	
PSTAT	PSTAT	REF3000-16137	Potentiostat
VDC	POTEN	0.00000E+000	T	DC Voltage (V)
FREQINIT	QUANT	3.00000E+005	Initial Freq. (Hz)
FREQFINAL	QUANT	1.00000E+000	Final Freq. (Hz)
PTSPERDEC	QUANT	1.00000E+001	Points/decade
VAC	QUANT	5.00000E+001	AC Voltage (mV rms)
AREA	QUANT	1.00000E+000	Sample Area (cm^2)
SPEED	SELECTOR	2	Optimize for:
ZGUESS	QUANT	1.00000E+003	Estimated Z (ohms)
EOC	QUANT	0	Open Circuit (V)
SEQUENCER	TOGGLE	TRUE	Run as Sequence
PSTATMODEL	IQUANT	5	Pstat Model
PSTATSECTION	LABEL	REF3000-16137	Pstat Section
PSTATSERIALNO	LABEL	16137	Pstat Serial Number
CTRLMODE	IQUANT	1	Control Mode
IESTAB	IQUANT	0	I/E Stability
CASPEED	IQUANT	1	Control Amp Speed
CONVENTION	IQUANT	1	Current Convention
ICHRANGE	IQUANT	2	Ich Range
ICHRANGEMODE	TOGGLE	F	Ich Auto Range
ICHOFFSETENABLE	TOGGLE	T	Ich Offset Enable
ICHOFFSET	QUANT	0	Ich Offset (V)
ICHFILTER	IQUANT	3	Ich Filter
VCHRANGE	IQUANT	2	Vch Range
VCHRANGEMODE	TOGGLE	F	Vch Auto Range
VCHOFFSETENABLE	TOGGLE	T	Vch Offset Enable
VCHOFFSET	QUANT	0	Vch Offset (V)
VCHFILTER	IQUANT	3	Vch Filter
ACHRANGE	IQUANT	2	Ach Range
ACHOFFSETENABLE	TOGGLE	F	Ach Offset Enable
ACHOFFSET	QUANT	0	Ach Offset (V)
ACHFILTER	IQUANT	3	Ach Filter
IERANGELOWERLIMIT	IQUANT	2	I/E Range Lower Limit
IERANGEMODE	TOGGLE	F	I/E AutoRange
IERANGE	IQUANT	11	I/E Range
POSFEEDENABLE	TOGGLE	F	Positive Feedback IR Comp
POSFEEDRESISTANCE	QUANT	0	Positive Feedback Resistance (ohm)
ACHSELECT	IQUANT	0	Ach Select
CABLEID	IQUANT	13	Cable ID
DCCALDATE	LABEL	9/10/2021	DC Calibration Date
ACCALDATE	LABEL	9/10/2021	AC Calibration Date
THERMOSELECT	IQUANT	1	Thermo Select
FRAMEWORKVERSION	QUANT	6.33	Framework Version
INSTRUMENTVERSION	LABEL	3.50	Instrument Version
COMPLIANCEVOLTAGE	IQUANT	0	Compliance Voltage
ZCURVE	TABLE
	Pt	Time	Freq	Zreal	Zimag	Zsig	Zmod	Zphz	Idc	Vdc	IERange
	#	s	Hz	ohm	ohm	V	ohm	°	A	V	#
	0	8	300046.9	11.69549	2.277619	1	11.9152	11.02004	-0.0001066	-0.0006687	10
	1	11	238359.4	11.75996	1.774762	1	11.89312	8.582071	2.56997E-005	-0.0006136	10
	2	15	189328.1	11.82454	1.389923	1	11.90595	6.704105	-1.762574E-005	-0.0004256	10
	3	17	150421.9	11.90393	1.07657	1	11.95251	5.16767	9.74675E-006	-0.0001772	10
	4	20	119484.4	11.96281	0.8017809	1	11.98965	3.834388	-1.533619E-005	-0.0002204	10
	5	22	94921.88	12.03979	0.5814401	1	12.05382	2.764848	2.817694E-005	-0.0001897	10
	6	25	75421.88	12.11776	0.383615	1	12.12383	1.813222	2.029163E-005	-0.000158	10
	7	27	59859.37	12.20285	0.2084663	1	12.20463	0.978712	2.148686E-005	-0.0001429	10
	8	30	47578.12	12.29219	0.0537969	1	12.2923	0.2507539	-2.416177E-005	-0.0001046	10
	9	32	37828.12	12.38182	-0.0922312	1	12.38216	-0.4267837	-3.005621E-005	-0.0001388	10
	10	35	30046.88	12.4782	-0.240116	1	12.48051	-1.102397	-2.105458E-005	-8.178105E-005	10
	11	37	23859.38	12.57074	-0.3937565	1	12.5769	-1.794104	1.459329E-005	-0.0001672	10
	12	40	18984.38	12.66665	-0.557973	1	12.67893	-2.522281	5.237789E-006	-0.0001634	10
	13	42	15046.87	12.77048	-0.7477509	1	12.79235	-3.351018	1.950225E-005	-0.0001051	10
	14	44	11953.13	12.87794	-0.961377	1	12.91377	-4.269383	2.277699E-005	-0.0001613	10
	15	47	9515.62	12.9989	-1.209398	1	13.05504	-5.315413	-2.337359E-006	-0.0001366	10
	16	49	7546.875	13.12717	-1.512725	1	13.21405	-6.573551	-2.268805E-005	-0.0001276	10
	17	51	5928.309	13.27106	-1.888942	1	13.40482	-8.100802	-2.084913E-005	-8.923424E-005	10
	18	54	4733.456	13.42088	-2.311307	1	13.61844	-9.77147	-1.66284E-005	-0.0001205	10
	19	56	3796.875	13.58204	-2.814238	1	13.87054	-11.7062	-2.525973E-005	-7.147668E-005	10
	20	58	2987.132	13.7645	-3.485704	1	14.199	-14.21076	-2.764468E-005	-0.0000958	10
	21	61	2390.625	13.95823	-4.244644	1	14.58935	-16.91432	-1.52957E-005	-0.0001359	10
	22	63	1884.191	14.1773	-5.261194	1	15.12203	-20.35989	-4.040372E-006	-0.0001156	10
	23	65	1516.544	14.4104	-6.385054	1	15.76161	-23.89749	2.590485E-005	-0.0001457	10
	24	68	1193.986	14.69058	-7.926485	1	16.69258	-28.34964	2.087331E-005	-0.000134	10
	25	70	946.5144	15.00508	-9.79118	1	17.91702	-33.12543	-1.824549E-005	-0.0001261	10
	26	72	751.7689	15.37096	-12.06419	1	19.53999	-38.12728	1.392246E-005	-0.0001668	10
	27	75	597.4265	15.78892	-14.89792	1	21.70801	-43.33687	-3.075692E-006	-0.0001375	10
	28	77	477.4305	16.28955	-18.31953	1	24.51438	-48.35681	-1.189223E-006	-0.0001052	10
	29	79	376.6741	16.90502	-22.78766	1	28.37353	-53.43013	-1.271207E-006	-0.0001147	10
	30	82	298.2954	17.63987	-28.26314	1	33.31621	-58.03048	-8.625507E-007	-0.0001575	10
	31	84	237.7717	18.51414	-34.85319	1	39.4654	-62.0226	-1.610355E-006	-0.0001117	10
	32	87	189.0121	19.56897	-43.04888	1	47.28796	-65.55462	2.849802E-007	-0.0001278	9
	33	89	150.2404	20.89253	-53.23581	1	57.18871	-68.57235	2.556522E-007	-0.0001328	9
	34	92	119.1737	22.53617	-65.98042	1	69.72298	-71.14196	2.760917E-007	-0.0001179	9
	35	94	95.0169	24.52515	-81.372	1	84.98756	-73.22743	2.876113E-007	-0.0001245	9
	36	96	75.60484	27.01533	-100.5588	1	104.1245	-74.96244	3.562675E-007	-0.0001352	9
	37	99	54.50582	31.65061	-136.1443	1	139.7749	-76.91244	2.938441E-007	-0.0001305	9
	38	101	45.95588	34.7825	-159.5138	1	163.2619	-77.69901	2.729856E-007	-0.0001262	9
	39	104	37.20238	39.48067	-194.018	1	197.9942	-78.49794	2.983354E-007	-0.0001245	9
	40	106	30.04808	45.42196	-236.423	1	240.7467	-79.12476	6.603498E-007	-0.0001673	9
	41	109	23.91582	53.40517	-291.9881	1	296.8319	-79.63506	3.408532E-007	-0.0001373	9
	42	111	18.60119	64.78288	-368.0601	1	373.7178	-80.01752	3.661389E-007	-0.0001301	9
	43	113	15.02404	77.04726	-446.1866	1	452.79	-80.20281	4.098069E-007	-0.0001203	8
	44	116	12.01923	93.58079	-547.3434	1	555.2857	-80.2978	5.15348E-007	-0.0001149	8
	45	118	9.450605	116.4511	-681.6804	1	691.5555	-80.30577	4.134901E-007	-0.0001078	8
	46	121	7.512019	144.4984	-839.7196	1	852.0615	-80.2362	4.752916E-007	-9.426792E-005	8
	47	123	5.978954	180.2774	-1032.247	1	1047.871	-80.09346	4.652409E-007	-0.000119	8
	48	126	4.734848	226.4783	-1274.971	1	1294.93	-79.92739	5.185854E-007	-0.000105	8
	49	130	3.75601	285.6139	-1569.664	1	1595.438	-79.68737	4.728684E-007	-0.0001304	8
	50	133	3.004808	359.6237	-1916.092	1	1949.548	-79.37005	5.020794E-007	-0.0001001	8
	51	137	2.372217	463.4359	-2368.964	1	2413.869	-78.93113	5.097647E-007	-4.040381E-005	8
	52	141	1.878005	593.0658	-2918.596	1	2978.243	-78.51375	4.873592E-007	-0.0001724	8
	53	146	1.512097	753.5325	-3530.27	1	3609.794	-77.95109	5.204992E-007	-6.804335E-005	8
	54	151	1.201923	974.732	-4346.261	1	4454.221	-77.35948	6.150453E-008	-0.0001299	7
	55	157	0.956633	1269.288	-5311.654	1	5461.205	-76.56046	4.725279E-008	-0.000648	7
