EXPLAIN
TAG	EISPOT
TITLE	LABEL	Potentiostatic EIS	Test Identifier
DATE	LABEL	8/28/2020	Date
TIME	LABEL	10:07:12	Time
NOTES	NOTES	1	Notes...
	
PSTAT	PSTAT	REF3000-16137	Potentiostat
VDC	POTEN	0.00000E+000	T	DC Voltage (V)
FREQINIT	QUANT	3.00000E+005	Initial Freq. (Hz)
FREQFINAL	QUANT	1.00000E+000	Final Freq. (Hz)
PTSPERDEC	QUANT	1.00000E+001	Points/decade
VAC	QUANT	5.00000E+001	AC Voltage (mV rms)
AREA	QUANT	1.00000E+000	Sample Area (cm^2)
SPEED	SELECTOR	2	Optimize for:
ZGUESS	QUANT	1.00000E+003	Estimated Z (ohms)
EOC	QUANT	0	Open Circuit (V)
SEQUENCER	TOGGLE	TRUE	Run as Sequence
PSTATMODEL	IQUANT	5	Pstat Model
PSTATSECTION	LABEL	REF3000-16137	Pstat Section
PSTATSERIALNO	LABEL	16137	Pstat Serial Number
CTRLMODE	IQUANT	1	Control Mode
IESTAB	IQUANT	0	I/E Stability
CASPEED	IQUANT	1	Control Amp Speed
CONVENTION	IQUANT	1	Current Convention
ICHRANGE	IQUANT	2	Ich Range
ICHRANGEMODE	TOGGLE	F	Ich Auto Range
ICHOFFSETENABLE	TOGGLE	T	Ich Offset Enable
ICHOFFSET	QUANT	0	Ich Offset (V)
ICHFILTER	IQUANT	3	Ich Filter
VCHRANGE	IQUANT	2	Vch Range
VCHRANGEMODE	TOGGLE	F	Vch Auto Range
VCHOFFSETENABLE	TOGGLE	T	Vch Offset Enable
VCHOFFSET	QUANT	0	Vch Offset (V)
VCHFILTER	IQUANT	3	Vch Filter
ACHRANGE	IQUANT	2	Ach Range
ACHOFFSETENABLE	TOGGLE	F	Ach Offset Enable
ACHOFFSET	QUANT	0	Ach Offset (V)
ACHFILTER	IQUANT	3	Ach Filter
IERANGELOWERLIMIT	IQUANT	2	I/E Range Lower Limit
IERANGEMODE	TOGGLE	F	I/E AutoRange
IERANGE	IQUANT	11	I/E Range
POSFEEDENABLE	TOGGLE	F	Positive Feedback IR Comp
POSFEEDRESISTANCE	QUANT	0	Positive Feedback Resistance (ohm)
ACHSELECT	IQUANT	0	Ach Select
CABLEID	IQUANT	13	Cable ID
DCCALDATE	LABEL	7/31/2020	DC Calibration Date
ACCALDATE	LABEL	7/31/2020	AC Calibration Date
THERMOSELECT	IQUANT	1	Thermo Select
FRAMEWORKVERSION	QUANT	6.33	Framework Version
INSTRUMENTVERSION	LABEL	3.50	Instrument Version
COMPLIANCEVOLTAGE	IQUANT	0	Compliance Voltage
ZCURVE	TABLE
	Pt	Time	Freq	Zreal	Zimag	Zsig	Zmod	Zphz	Idc	Vdc	IERange
	#	s	Hz	ohm	ohm	V	ohm	°	A	V	#
	0	10	300046.9	4.934601	1.190797	1	5.076247	13.567	1.248902E-005	8.268312E-005	10
	1	13	238359.4	4.915693	0.9433646	1	5.005395	10.86348	-4.244964E-005	-0.0001322	10
	2	16	189328.1	4.911423	0.7331985	1	4.965849	8.49066	9.127432E-006	5.486138E-005	10
	3	19	150421.9	4.903828	0.5617967	1	4.935904	6.535478	-5.22111E-005	0.0003287	10
	4	21	119484.4	4.913071	0.4183377	1	4.930849	4.866877	5.035634E-005	0.0003472	10
	5	24	94921.88	4.922213	0.3157811	1	4.932332	3.67074	-4.862202E-006	0.0005303	10
	6	27	75421.88	4.926019	0.2051399	1	4.930288	2.384657	3.005489E-006	0.000557	10
	7	29	59859.37	4.931921	0.1050011	1	4.933039	1.219649	-4.879461E-007	0.0005525	10
	8	32	47578.12	4.940173	0.0119978	1	4.940187	0.1391497	-2.690262E-005	0.0005859	10
	9	34	37828.12	4.950613	-0.0785935	1	4.951236	-0.9095234	-5.390291E-006	0.0005733	10
	10	37	30046.88	4.962773	-0.1713815	1	4.965732	-1.977833	-3.097414E-005	0.0006257	10
	11	39	23859.38	4.975756	-0.2701713	1	4.983086	-3.107968	9.032762E-006	0.0006151	10
	12	41	18984.38	4.990952	-0.3791695	1	5.005335	-4.344493	-1.161164E-005	0.0006405	10
	13	44	15046.87	5.00849	-0.5070094	1	5.034087	-5.780361	-2.226858E-005	0.0006768	10
	14	46	11953.13	5.028075	-0.6569086	1	5.070806	-7.443427	-1.946258E-005	0.0006461	10
	15	48	9515.62	5.051573	-0.8349149	1	5.120105	-9.384901	-2.136242E-005	0.0006846	10
	16	51	7546.875	5.079441	-1.055794	1	5.188007	-11.7421	-3.132572E-005	0.0006509	10
	17	53	5928.309	5.115093	-1.33723	1	5.287	-14.65084	-2.156472E-005	0.0006725	10
	18	55	4733.456	5.155369	-1.660778	1	5.416273	-17.8561	1.461123E-005	0.0006209	10
	19	58	3796.875	5.204019	-2.050116	1	5.593281	-21.50189	-3.588079E-006	0.0006901	10
	20	60	2987.132	5.269019	-2.571567	1	5.863064	-26.01489	-2.468876E-005	0.0006648	10
	21	62	2390.625	5.344143	-3.170674	1	6.21394	-30.68061	1.029984E-005	0.0006383	10
	22	65	1884.191	5.445866	-3.963294	1	6.735365	-36.0457	3.205859E-006	0.0006205	10
	23	67	1516.544	5.563506	-4.855991	1	7.384663	-41.11541	-2.275063E-005	0.0007059	10
	24	69	1193.986	5.730412	-6.067734	1	8.345958	-46.63771	1.997989E-005	0.0006432	10
	25	72	946.5144	5.945098	-7.523512	1	9.58892	-51.68412	-1.446154E-005	0.0006663	10
	26	74	751.7689	6.205048	-9.318563	1	11.19546	-56.34114	-2.1743E-005	0.0006752	10
	27	76	597.4265	6.549879	-11.5119	1	13.2448	-60.3616	-2.626224E-005	0.0006743	10
	28	79	477.4305	6.98969	-14.13457	1	15.76838	-63.68713	-3.421801E-006	0.0006662	10
	29	81	376.6741	7.585089	-17.53811	1	19.10808	-66.61191	-3.066798E-006	0.0006587	10
	30	83	298.2954	8.3395	-21.6546	1	23.20493	-68.93758	-2.983535E-006	0.0006563	10
	31	86	237.7717	9.269749	-26.53947	1	28.11177	-70.74663	-3.26309E-006	0.0006534	10
	32	88	189.0121	10.44931	-32.56241	1	34.19794	-72.2085	-3.147718E-006	0.0006614	10
	33	90	150.2404	11.90987	-39.8991	1	41.63873	-73.37965	-3.430621E-006	0.0006549	10
	34	93	119.1737	13.7028	-48.87048	1	50.7552	-74.33702	1.221636E-006	6.154866E-005	9
	35	95	95.0169	15.85666	-59.63742	1	61.70944	-75.11044	1.152852E-006	6.263117E-005	9
	36	98	75.60484	18.4999	-72.88884	1	75.19993	-75.7585	1.138814E-006	5.287697E-005	9
	37	100	54.50582	23.33742	-97.1742	1	99.9373	-76.49557	9.958726E-007	5.139229E-005	9
	38	103	45.95588	26.49459	-112.916	1	115.9827	-76.79501	1.213884E-006	5.630617E-005	9
	39	105	37.20238	31.17496	-135.9988	1	139.5262	-77.08916	1.07048E-006	6.255433E-005	9
	40	108	30.04808	36.94776	-164.0703	1	168.179	-77.309	1.199279E-006	5.12559E-005	9
	41	110	23.91582	44.71422	-200.6828	1	205.6039	-77.43908	1.125065E-006	5.793148E-005	9
	42	112	18.60119	55.44519	-250.0599	1	256.133	-77.4982	1.009452E-006	6.45565E-005	9
	43	115	15.02404	67.08787	-301.6863	1	309.0556	-77.46278	1.131756E-006	5.515569E-005	9
	44	117	12.01923	82.27297	-366.6672	1	375.7841	-77.3534	1.395966E-006	6.303294E-005	9
	45	119	9.450605	102.6373	-450.2559	1	461.806	-77.15866	3.339561E-007	0.0006326	8
	46	122	7.512019	127.8869	-549.4855	1	564.1714	-76.89826	4.55597E-007	0.000627	8
	47	125	5.978954	159.9576	-668.7899	1	687.6528	-76.54899	4.499591E-007	0.0006416	8
	48	128	4.734848	201.4312	-817.1829	1	841.6427	-76.15294	3.377103E-007	0.0006224	8
	49	131	3.75601	254.4542	-994.475	1	1026.513	-75.64777	4.798157E-007	0.0006541	8
	50	134	3.004808	319.0122	-1199.516	1	1241.212	-75.10688	3.467735E-007	0.0006713	8
	51	138	2.372217	405.0728	-1459.24	1	1514.419	-74.48579	3.840668E-007	0.0006611	8
	52	142	1.878005	517.4063	-1771.48	1	1845.494	-73.71819	4.001623E-007	0.0006214	8
	53	147	1.512097	645.0713	-2115.837	1	2211.986	-73.04471	3.785586E-007	0.0007392	8
	54	152	1.201923	818.2218	-2548.752	1	2676.868	-72.2019	4.267303E-007	0.0006218	8
	55	159	0.956633	1033.347	-3057.471	1	3227.373	-71.32607	3.106838E-007	-2.356336E-006	8
