EXPLAIN
TAG	EISPOT
TITLE	LABEL	Potentiostatic EIS	Test Identifier
DATE	LABEL	8/28/2020	Date
TIME	LABEL	11:41:23	Time
NOTES	NOTES	1	Notes...
	
PSTAT	PSTAT	REF3000-16137	Potentiostat
VDC	POTEN	0.00000E+000	T	DC Voltage (V)
FREQINIT	QUANT	3.00000E+005	Initial Freq. (Hz)
FREQFINAL	QUANT	1.00000E+000	Final Freq. (Hz)
PTSPERDEC	QUANT	1.00000E+001	Points/decade
VAC	QUANT	5.00000E+001	AC Voltage (mV rms)
AREA	QUANT	1.00000E+000	Sample Area (cm^2)
SPEED	SELECTOR	2	Optimize for:
ZGUESS	QUANT	1.00000E+003	Estimated Z (ohms)
EOC	QUANT	0	Open Circuit (V)
SEQUENCER	TOGGLE	TRUE	Run as Sequence
PSTATMODEL	IQUANT	5	Pstat Model
PSTATSECTION	LABEL	REF3000-16137	Pstat Section
PSTATSERIALNO	LABEL	16137	Pstat Serial Number
CTRLMODE	IQUANT	1	Control Mode
IESTAB	IQUANT	0	I/E Stability
CASPEED	IQUANT	1	Control Amp Speed
CONVENTION	IQUANT	1	Current Convention
ICHRANGE	IQUANT	2	Ich Range
ICHRANGEMODE	TOGGLE	F	Ich Auto Range
ICHOFFSETENABLE	TOGGLE	T	Ich Offset Enable
ICHOFFSET	QUANT	0	Ich Offset (V)
ICHFILTER	IQUANT	3	Ich Filter
VCHRANGE	IQUANT	2	Vch Range
VCHRANGEMODE	TOGGLE	F	Vch Auto Range
VCHOFFSETENABLE	TOGGLE	T	Vch Offset Enable
VCHOFFSET	QUANT	0	Vch Offset (V)
VCHFILTER	IQUANT	3	Vch Filter
ACHRANGE	IQUANT	2	Ach Range
ACHOFFSETENABLE	TOGGLE	F	Ach Offset Enable
ACHOFFSET	QUANT	0	Ach Offset (V)
ACHFILTER	IQUANT	3	Ach Filter
IERANGELOWERLIMIT	IQUANT	2	I/E Range Lower Limit
IERANGEMODE	TOGGLE	F	I/E AutoRange
IERANGE	IQUANT	11	I/E Range
POSFEEDENABLE	TOGGLE	F	Positive Feedback IR Comp
POSFEEDRESISTANCE	QUANT	0	Positive Feedback Resistance (ohm)
ACHSELECT	IQUANT	0	Ach Select
CABLEID	IQUANT	13	Cable ID
DCCALDATE	LABEL	7/31/2020	DC Calibration Date
ACCALDATE	LABEL	7/31/2020	AC Calibration Date
THERMOSELECT	IQUANT	1	Thermo Select
FRAMEWORKVERSION	QUANT	6.33	Framework Version
INSTRUMENTVERSION	LABEL	3.50	Instrument Version
COMPLIANCEVOLTAGE	IQUANT	0	Compliance Voltage
ZCURVE	TABLE
	Pt	Time	Freq	Zreal	Zimag	Zsig	Zmod	Zphz	Idc	Vdc	IERange
	#	s	Hz	ohm	ohm	V	ohm	°	A	V	#
	0	14	300046.9	174.2263	-4274.897	1	4278.446	-87.66616	7.902082E-005	-0.0016932	9
	1	28	238359.4	346.8658	-5303.349	1	5314.68	-86.2579	-1.625626E-005	0.0017107	9
	2	47	189328.1	497.0266	-6620.427	1	6639.058	-85.70659	1.045698E-006	0.0016577	9
	3	54	150421.9	551.8704	-8087.908	1	8106.714	-86.09653	2.103039E-005	-0.0008553	9
	4	62	119484.4	1255.569	-10035.43	1	10113.67	-82.86858	-1.064835E-005	0.0178556	8
	5	69	94921.88	1724.025	-12520.68	1	12638.81	-82.16	-1.188858E-005	0.0102484	8
	6	78	75421.88	2110.131	-15725.38	1	15866.33	-82.35735	8.091301E-006	-0.0076855	8
	7	86	59859.37	3093.469	-19554.27	1	19797.45	-81.01035	8.092041E-006	-0.0076594	8
	8	95	47578.12	6700.987	-25085.66	1	25965.24	-75.04411	-6.421836E-006	0.0253364	7
	9	101	37828.12	8265.823	-30775.19	1	31865.91	-74.9659	4.848365E-006	-0.0006594	7
	10	109	30046.88	10250.31	-37693.3	1	39062.18	-74.78688	-7.217392E-006	0.0185521	7
	11	116	23859.38	11036.17	-44835.56	1	46173.86	-76.17168	-9.487765E-006	-0.0021596	8
	12	123	18984.38	16854.23	-56811.8	1	59259.14	-73.47607	1.325635E-006	-0.0195786	7
	13	128	15046.87	21716.71	-68895.85	1	72237.48	-72.50459	-9.784676E-007	-0.0130305	7
	14	133	11953.13	31100.63	-84681.55	1	90212.05	-69.83345	4.80695E-006	-0.0007929	7
	15	139	9515.62	41366.76	-102878.8	1	110884	-68.09533	-9.074037E-007	-0.0132568	7
	16	145	7546.875	58454.59	-119628.3	1	133146	-63.95823	-6.449686E-006	0.025448	7
	17	150	5928.309	75963.23	-141700.1	1	160777.3	-61.80493	-3.670174E-006	0.0249298	7
	18	157	4733.456	129740.5	-162051.7	1	207589.4	-51.31884	7.579085E-007	-0.0225096	6
	19	162	3796.875	161480	-179317	1	241309.7	-47.99607	-7.340681E-007	0.0225343	6
	20	167	2987.132	202198.3	-192127.7	1	278921.5	-43.53706	4.233743E-007	0.0018723	6
	21	172	2390.625	200303.1	-203531.6	1	285563.4	-45.45805	-3.753504E-006	0.0248645	7
	22	178	1884.191	191559	-191911.3	1	271154.6	-45.05262	-9.460764E-006	-0.0021342	8
	23	186	1516.544	359631.8	-193824	1	408537.3	-28.3225	8.342734E-006	0.0041494	8
	24	195	1193.986	323423.7	-183839.7	1	372021.4	-29.61465	4.871192E-006	-0.0008005	7
	25	201	946.5144	416657.9	-186839.4	1	456632	-24.15261	-1.019402E-006	-0.013072	7
	26	206	751.7689	469521.3	-174480.3	1	500892.8	-20.38573	1.762121E-007	-0.0205808	6
	27	210	597.4265	489289.1	-146774	1	510829.1	-16.69788	7.178629E-007	-0.0155822	6
	28	214	477.4305	526851.9	-130134.9	1	542685.9	-13.87461	-8.627221E-009	0.0006883	6
	29	217	376.6741	578923.9	-55852.3	1	581611.8	-5.510617	-1.189897E-009	0.000579	5
	30	219	298.2954	583949.8	-46193.1	1	585774	-4.522939	-1.128808E-009	0.0006285	5
	31	222	237.7717	592610.3	-37718.98	1	593809.4	-3.641899	-1.279415E-009	0.0006335	5
	32	224	189.0121	600148.4	-31515.06	1	600975.3	-3.005962	-1.02059E-009	0.0005931	5
	33	226	150.2404	608058.9	-24745.9	1	608562.2	-2.330455	-1.239654E-009	0.0006305	5
	34	229	119.1737	625723.8	-36701.38	1	626799.2	-3.356797	-1.142376E-009	0.0005941	5
	35	232	95.0169	627925.7	-18232.48	1	628190.3	-1.663176	-1.2271E-009	0.000578	5
	36	234	75.60484	638692.9	-16361.24	1	638902.4	-1.467411	-1.20408E-009	0.0006287	5
	37	237	54.50582	643193.2	-9288.893	1	643260.3	-0.8273989	-1.233843E-009	0.0005758	5
	38	239	45.95588	658469.6	-10941.89	1	658560.4	-0.952005	-1.091863E-009	0.0006079	5
	39	242	37.20238	666586.3	-10210.96	1	666664.4	-0.877605	-1.217887E-009	0.0006807	5
	40	244	30.04808	676870.9	-8682.938	1	676926.6	-0.7349532	-1.233788E-009	0.0006312	5
	41	247	23.91582	687716	-7975.022	1	687762.3	-0.6643943	-1.30842E-009	0.0006659	5
	42	250	18.60119	696510.8	-4407.212	1	696524.8	-0.3625375	-1.067204E-009	0.0006743	5
	43	252	15.02404	708581.1	-5891.193	1	708605.6	-0.4763502	-1.133955E-009	0.0006873	5
	44	255	12.01923	719588.3	-5525.789	1	719609.5	-0.4399712	-1.039412E-009	0.0006881	5
	45	257	9.450605	730605.1	-5149.718	1	730623.3	-0.4038464	-1.069013E-009	0.0006277	5
	46	260	7.512019	742550	-5272.493	1	742568.7	-0.4068231	-1.175022E-009	0.0005989	5
	47	263	5.978954	759106.2	-5925.637	1	759129.3	-0.4472458	-1.086081E-009	0.0005975	5
	48	267	4.734848	777267.9	-5977.785	1	777290.9	-0.4406397	-1.274654E-009	0.0005859	5
	49	270	3.75601	799078.8	-6685.648	1	799106.7	-0.4793651	-1.603641E-009	0.0006641	5
	50	276	3.004808	828405.1	-7543.077	1	828439.4	-0.5216947	-1.515418E-009	0.0006846	5
	51	282	2.372217	855350.8	-8319.1	1	855391.3	-0.5572383	-1.330934E-009	0.0006972	5
	52	287	1.878005	879248.9	-10249.25	1	879308.6	-0.6678564	-1.813073E-009	0.0006123	5
	53	291	1.512097	907499	-12138.79	1	907580.2	-0.7663478	-1.830689E-009	0.0006	5
	54	297	1.201923	940275.9	-14832.94	1	940392.9	-0.903771	-1.644807E-009	0.0006106	5
	55	303	0.956633	978552	-17830.28	1	978714	-1.043876	-2.289013E-009	-8.224948E-006	5
