EXPLAIN
TAG	EISPOT
TITLE	LABEL	Potentiostatic EIS	Test Identifier
DATE	LABEL	8/28/2020	Date
TIME	LABEL	11:18:14	Time
NOTES	NOTES	1	Notes...
	
PSTAT	PSTAT	REF3000-16137	Potentiostat
VDC	POTEN	0.00000E+000	T	DC Voltage (V)
FREQINIT	QUANT	3.00000E+005	Initial Freq. (Hz)
FREQFINAL	QUANT	1.00000E+000	Final Freq. (Hz)
PTSPERDEC	QUANT	1.00000E+001	Points/decade
VAC	QUANT	5.00000E+001	AC Voltage (mV rms)
AREA	QUANT	1.00000E+000	Sample Area (cm^2)
SPEED	SELECTOR	2	Optimize for:
ZGUESS	QUANT	1.00000E+003	Estimated Z (ohms)
EOC	QUANT	0	Open Circuit (V)
SEQUENCER	TOGGLE	TRUE	Run as Sequence
PSTATMODEL	IQUANT	5	Pstat Model
PSTATSECTION	LABEL	REF3000-16137	Pstat Section
PSTATSERIALNO	LABEL	16137	Pstat Serial Number
CTRLMODE	IQUANT	1	Control Mode
IESTAB	IQUANT	0	I/E Stability
CASPEED	IQUANT	1	Control Amp Speed
CONVENTION	IQUANT	1	Current Convention
ICHRANGE	IQUANT	2	Ich Range
ICHRANGEMODE	TOGGLE	F	Ich Auto Range
ICHOFFSETENABLE	TOGGLE	T	Ich Offset Enable
ICHOFFSET	QUANT	0	Ich Offset (V)
ICHFILTER	IQUANT	3	Ich Filter
VCHRANGE	IQUANT	2	Vch Range
VCHRANGEMODE	TOGGLE	F	Vch Auto Range
VCHOFFSETENABLE	TOGGLE	T	Vch Offset Enable
VCHOFFSET	QUANT	0	Vch Offset (V)
VCHFILTER	IQUANT	3	Vch Filter
ACHRANGE	IQUANT	2	Ach Range
ACHOFFSETENABLE	TOGGLE	F	Ach Offset Enable
ACHOFFSET	QUANT	0	Ach Offset (V)
ACHFILTER	IQUANT	3	Ach Filter
IERANGELOWERLIMIT	IQUANT	2	I/E Range Lower Limit
IERANGEMODE	TOGGLE	F	I/E AutoRange
IERANGE	IQUANT	11	I/E Range
POSFEEDENABLE	TOGGLE	F	Positive Feedback IR Comp
POSFEEDRESISTANCE	QUANT	0	Positive Feedback Resistance (ohm)
ACHSELECT	IQUANT	0	Ach Select
CABLEID	IQUANT	13	Cable ID
DCCALDATE	LABEL	7/31/2020	DC Calibration Date
ACCALDATE	LABEL	7/31/2020	AC Calibration Date
THERMOSELECT	IQUANT	1	Thermo Select
FRAMEWORKVERSION	QUANT	6.33	Framework Version
INSTRUMENTVERSION	LABEL	3.50	Instrument Version
COMPLIANCEVOLTAGE	IQUANT	0	Compliance Voltage
ZCURVE	TABLE
	Pt	Time	Freq	Zreal	Zimag	Zsig	Zmod	Zphz	Idc	Vdc	IERange
	#	s	Hz	ohm	ohm	V	ohm	°	A	V	#
	0	33	300046.9	992.766	-294.8741	1	1035.633	-16.54261	-1.277485E-005	0.0015615	9
	1	46	238359.4	1085.782	-282.3914	1	1121.903	-14.57857	4.800729E-005	5.883513E-005	9
	2	71	189328.1	1140.786	-249.5128	1	1167.754	-12.33745	8.04559E-005	-0.0033357	9
	3	77	150421.9	1186.962	-216.8592	1	1206.61	-10.35381	-2.799239E-005	-0.000999	9
	4	85	119484.4	1233.531	-142.319	1	1241.714	-6.581418	-4.770752E-005	0.0064545	8
	5	92	94921.88	1253.904	-117.988	1	1259.443	-5.375505	-1.666569E-005	0.0026209	8
	6	95	75421.88	1266.683	-97.0323	1	1270.394	-4.380499	2.076499E-005	-0.0043806	8
	7	97	59859.37	1286.381	-81.8877	1	1288.985	-3.642386	-8.443245E-006	0.0080849	8
	8	101	47578.12	1297.823	-64.89985	1	1299.444	-2.862789	-2.051668E-005	0.0078991	8
	9	104	37828.12	1309.993	-55.12402	1	1311.153	-2.409563	1.996951E-005	-0.0029039	8
	10	106	30046.88	1319.874	-44.85087	1	1320.636	-1.946229	-1.939236E-005	0.0047485	8
	11	110	23859.38	1336.194	-37.81763	1	1336.729	-1.621181	1.680641E-005	-0.0073783	8
	12	113	18984.38	1347.412	-31.4691	1	1347.78	-1.337912	-1.971951E-005	0.0049061	8
	13	115	15046.87	1358.45	-23.20073	1	1358.648	-0.97845	-1.442558E-005	0.0089633	8
	14	118	11953.13	1368.654	-19.60179	1	1368.795	-0.820531	-1.701293E-005	0.0028403	8
	15	121	9515.62	1383.879	-18.86951	1	1384.007	-0.7811931	-5.644428E-008	0.005855	8
	16	125	7546.875	1398.525	-16.77435	1	1398.625	-0.6871908	5.517884E-006	-0.0057969	8
	17	128	5928.309	1414.603	-16.95592	1	1414.705	-0.6867338	-2.326476E-006	-0.0035175	8
	18	132	4733.456	1425.303	-12.58979	1	1425.359	-0.5060841	-8.157659E-006	0.0079867	8
	19	136	3796.875	1443.232	-11.61718	1	1443.279	-0.4611876	8.441403E-006	0.0028485	8
	20	139	2987.132	1456.79	-11.84114	1	1456.838	-0.4657035	2.073561E-005	-0.007289	8
	21	143	2390.625	1471.53	-16.476	1	1471.622	-0.641486	1.726384E-005	-0.0074526	8
	22	146	1884.191	1484.917	-11.75306	1	1484.964	-0.4534843	5.199893E-006	-0.0057736	8
	23	150	1516.544	1508.646	-16.25734	1	1508.734	-0.6174021	-1.470629E-005	0.0090901	8
	24	154	1193.986	1524.054	-15.83513	1	1524.136	-0.5952896	-1.992655E-005	0.0048758	8
	25	159	946.5144	1533.9	-16.22014	1	1533.986	-0.6058483	-9.116886E-006	-0.0010988	8
	26	161	751.7689	1548.548	-22.49125	1	1548.712	-0.8321104	-2.002398E-005	0.0049127	8
	27	164	597.4265	1568.494	-12.30505	1	1568.543	-0.4494838	-4.529372E-007	0.0060426	8
	28	166	477.4305	1574.673	-28.61238	1	1574.933	-1.040971	-1.95377E-007	0.0006115	8
	29	169	376.6741	1586.313	-34.76216	1	1586.694	-1.255368	-1.897959E-007	0.00062	8
	30	171	298.2954	1598.044	-42.47298	1	1598.609	-1.522455	-1.925474E-007	0.0006298	8
	31	173	237.7717	1610.512	-51.79602	1	1611.345	-1.842067	-2.404105E-007	0.0006378	8
	32	176	189.0121	1623.341	-63.52789	1	1624.583	-2.241072	-1.842126E-007	0.0006179	8
	33	178	150.2404	1636.698	-78.08132	1	1638.559	-2.731317	-2.123744E-007	0.0006229	8
	34	181	119.1737	1650.755	-96.401	1	1653.567	-3.342172	-2.304003E-007	0.0006361	8
	35	183	95.0169	1665.066	-118.2047	1	1669.256	-4.060674	-2.366273E-007	0.0006237	8
	36	186	75.60484	1681.214	-145.5889	1	1687.506	-4.949323	-1.945203E-007	0.0006256	8
	37	188	54.50582	1700.54	-196.1254	1	1711.813	-6.578928	-2.222176E-007	0.0006206	8
	38	191	45.95588	1717.076	-228.9237	1	1732.269	-7.593997	-1.494538E-007	0.000631	8
	39	193	37.20238	1734.932	-278.4645	1	1757.137	-9.118464	-2.637472E-007	0.0006283	8
	40	195	30.04808	1755.504	-338.0969	1	1787.765	-10.90126	-2.280635E-007	0.0006148	8
	41	198	23.91582	1777.434	-416.465	1	1825.573	-13.18691	-3.270645E-007	0.0006393	8
	42	200	18.60119	1803.195	-526.1505	1	1878.39	-16.26661	-4.268117E-008	0.0006315	8
	43	203	15.02404	1834.351	-638.1596	1	1942.188	-19.18247	-1.191597E-007	0.0006331	8
	44	205	12.01923	1865.936	-780.9435	1	2022.768	-22.7106	-2.723374E-007	0.0006083	8
	45	207	9.450605	1905.711	-974.637	1	2140.479	-27.08654	-1.910488E-007	0.0006272	8
	46	210	7.512019	1953.106	-1202.072	1	2293.382	-31.61092	-1.764991E-007	0.0006445	8
	47	213	5.978954	2011.892	-1481.883	1	2498.737	-36.37395	-1.891433E-007	0.0006361	8
	48	216	4.734848	2083.658	-1834.658	1	2776.256	-41.36387	-2.013616E-007	0.0006864	8
	49	219	3.75601	2173.65	-2263.99	1	3138.535	-46.16626	-2.223076E-007	0.0006093	8
	50	222	3.004808	2280.097	-2772.66	1	3589.775	-50.56783	-2.078325E-007	0.0006397	8
	51	226	2.372217	2431.399	-3441.652	1	4213.867	-54.76022	-4.249819E-008	0.0006911	7
	52	230	1.878005	2601.893	-4254.139	1	4986.737	-58.54943	-6.097819E-008	0.0005832	7
	53	235	1.512097	2809.594	-5159.041	1	5874.48	-61.42746	-4.519026E-008	0.0006743	7
	54	240	1.201923	3078.154	-6357.801	1	7063.757	-64.16588	-5.28582E-008	0.0005812	7
	55	247	0.956633	3414.752	-7798.892	1	8513.71	-66.35374	-6.398724E-008	-3.619458E-005	7
