EXPLAIN
TAG	EISPOT
TITLE	LABEL	Potentiostatic EIS	Test Identifier
DATE	LABEL	8/28/2020	Date
TIME	LABEL	10:54:31	Time
NOTES	NOTES	1	Notes...
	
PSTAT	PSTAT	REF3000-16137	Potentiostat
VDC	POTEN	0.00000E+000	T	DC Voltage (V)
FREQINIT	QUANT	3.00000E+005	Initial Freq. (Hz)
FREQFINAL	QUANT	1.00000E+000	Final Freq. (Hz)
PTSPERDEC	QUANT	1.00000E+001	Points/decade
VAC	QUANT	5.00000E+001	AC Voltage (mV rms)
AREA	QUANT	1.00000E+000	Sample Area (cm^2)
SPEED	SELECTOR	2	Optimize for:
ZGUESS	QUANT	1.00000E+003	Estimated Z (ohms)
EOC	QUANT	0	Open Circuit (V)
SEQUENCER	TOGGLE	TRUE	Run as Sequence
PSTATMODEL	IQUANT	5	Pstat Model
PSTATSECTION	LABEL	REF3000-16137	Pstat Section
PSTATSERIALNO	LABEL	16137	Pstat Serial Number
CTRLMODE	IQUANT	1	Control Mode
IESTAB	IQUANT	0	I/E Stability
CASPEED	IQUANT	1	Control Amp Speed
CONVENTION	IQUANT	1	Current Convention
ICHRANGE	IQUANT	2	Ich Range
ICHRANGEMODE	TOGGLE	F	Ich Auto Range
ICHOFFSETENABLE	TOGGLE	T	Ich Offset Enable
ICHOFFSET	QUANT	0	Ich Offset (V)
ICHFILTER	IQUANT	3	Ich Filter
VCHRANGE	IQUANT	2	Vch Range
VCHRANGEMODE	TOGGLE	F	Vch Auto Range
VCHOFFSETENABLE	TOGGLE	T	Vch Offset Enable
VCHOFFSET	QUANT	0	Vch Offset (V)
VCHFILTER	IQUANT	3	Vch Filter
ACHRANGE	IQUANT	2	Ach Range
ACHOFFSETENABLE	TOGGLE	F	Ach Offset Enable
ACHOFFSET	QUANT	0	Ach Offset (V)
ACHFILTER	IQUANT	3	Ach Filter
IERANGELOWERLIMIT	IQUANT	2	I/E Range Lower Limit
IERANGEMODE	TOGGLE	F	I/E AutoRange
IERANGE	IQUANT	11	I/E Range
POSFEEDENABLE	TOGGLE	F	Positive Feedback IR Comp
POSFEEDRESISTANCE	QUANT	0	Positive Feedback Resistance (ohm)
ACHSELECT	IQUANT	0	Ach Select
CABLEID	IQUANT	13	Cable ID
DCCALDATE	LABEL	7/31/2020	DC Calibration Date
ACCALDATE	LABEL	7/31/2020	AC Calibration Date
THERMOSELECT	IQUANT	1	Thermo Select
FRAMEWORKVERSION	QUANT	6.33	Framework Version
INSTRUMENTVERSION	LABEL	3.50	Instrument Version
COMPLIANCEVOLTAGE	IQUANT	0	Compliance Voltage
ZCURVE	TABLE
	Pt	Time	Freq	Zreal	Zimag	Zsig	Zmod	Zphz	Idc	Vdc	IERange
	#	s	Hz	ohm	ohm	V	ohm	°	A	V	#
	0	7	300046.9	59.67075	0.8309921	1	59.67654	0.797866	1.793228E-005	-0.0009094	9
	1	10	238359.4	60.04146	0.6762064	1	60.04527	0.6452563	-4.509783E-005	0.0003972	9
	2	13	189328.1	60.31504	0.4719417	1	60.31688	0.448308	6.703597E-006	-0.0013317	9
	3	16	150421.9	60.52111	0.2903956	1	60.5218	0.2749176	3.406282E-005	-0.0002816	9
	4	18	119484.4	60.85196	0.2086738	1	60.85232	0.1964781	-1.013263E-005	-0.0007592	9
	5	21	94921.88	61.15502	0.3348698	1	61.15593	0.3137344	1.087627E-005	-0.0005976	9
	6	23	75421.88	61.35777	0.1700063	1	61.35801	0.1587512	-4.679505E-006	0.0005154	9
	7	26	59859.37	61.56882	0.0271313	1	61.56883	0.0252483	1.525696E-005	-0.0006136	9
	8	28	47578.12	61.81955	-0.1064144	1	61.81964	-0.0986272	-4.060413E-006	0.0005801	9
	9	31	37828.12	62.07078	-0.2356856	1	62.07122	-0.2175537	-1.736941E-005	0.0005714	9
	10	33	30046.88	62.32402	-0.3496696	1	62.325	-0.3214552	4.097751E-006	-0.0004159	9
	11	36	23859.38	62.56809	-0.4660902	1	62.56983	-0.4268071	-1.39355E-005	0.0001835	9
	12	38	18984.38	62.80226	-0.6124107	1	62.80524	-0.558697	1.880495E-005	-0.0005588	9
	13	40	15046.87	63.04303	-0.7873392	1	63.04794	-0.7155251	3.350821E-006	0.0003099	9
	14	43	11953.13	63.27864	-0.949039	1	63.28576	-0.8592451	-1.348906E-005	0.0007558	9
	15	45	9515.62	63.53482	-1.190845	1	63.54598	-1.07378	4.391358E-006	-0.0004056	9
	16	47	7546.875	63.82309	-1.490732	1	63.84049	-1.338029	1.24086E-005	6.235638E-005	9
	17	50	5928.309	64.05238	-1.84547	1	64.07896	-1.650343	-1.493988E-005	0.0003614	9
	18	52	4733.456	64.32423	-2.282124	1	64.36471	-2.031913	-1.009191E-005	0.0006744	9
	19	54	3796.875	64.6267	-2.784505	1	64.68666	-2.467119	1.975441E-005	-0.0006126	9
	20	57	2987.132	64.90857	-3.475942	1	65.00157	-3.065339	3.064594E-006	0.0003685	9
	21	59	2390.625	65.25396	-4.301908	1	65.39561	-3.771802	-1.425439E-005	0.0007511	9
	22	61	1884.191	65.58036	-5.289281	1	65.79331	-4.61112	-1.699597E-005	0.0006639	9
	23	64	1516.544	65.99339	-6.530418	1	66.31572	-5.651342	1.698393E-005	-0.0001263	9
	24	66	1193.986	66.42958	-8.144608	1	66.927	-6.989873	2.142697E-005	-0.0005162	9
	25	68	946.5144	66.89044	-10.10618	1	67.64958	-8.591582	1.014996E-005	0.0001001	9
	26	71	751.7689	67.3893	-12.47673	1	68.53456	-10.4892	1.043884E-005	0.0001279	9
	27	73	597.4265	68.03033	-15.46779	1	69.7666	-12.80935	1.649171E-005	-0.0001165	9
	28	75	477.4305	68.70461	-18.98727	1	71.28001	-15.44872	1.301353E-006	6.161368E-005	9
	29	78	376.6741	69.5375	-23.63186	1	73.44337	-18.76999	1.237293E-006	5.494715E-005	9
	30	80	298.2954	70.51479	-29.31056	1	76.36389	-22.57097	1.374005E-006	5.495585E-005	9
	31	82	237.7717	71.66832	-36.13307	1	80.26174	-26.7559	1.371531E-006	5.642054E-005	9
	32	85	189.0121	73.07864	-44.65091	1	85.6399	-31.42485	1.106512E-006	9.367677E-005	9
	33	87	150.2404	74.7901	-55.15786	1	92.92981	-36.40886	1.313331E-006	5.436769E-005	9
	34	90	119.1737	76.92702	-68.25645	1	102.8431	-41.58227	1.349753E-006	6.189998E-005	9
	35	92	95.0169	79.54588	-84.03359	1	115.7117	-46.57148	1.300107E-006	5.523163E-005	9
	36	94	75.60484	82.85957	-103.6051	1	132.664	-51.34847	1.321848E-006	5.437673E-005	9
	37	97	54.50582	89.05938	-139.6271	1	165.6119	-57.46875	1.263921E-006	5.300385E-005	9
	38	100	45.95588	93.36966	-163.0738	1	187.9121	-60.20623	1.256696E-006	5.969683E-005	9
	39	102	37.20238	99.796	-197.4144	1	221.2051	-63.18271	1.285892E-006	6.688046E-005	9
	40	104	30.04808	107.8872	-239.2652	1	262.4643	-65.72888	1.411631E-006	5.363193E-005	9
	41	107	23.91582	118.7454	-293.5237	1	316.6332	-67.97413	1.321977E-006	5.122846E-005	9
	42	109	18.60119	133.6956	-366.9472	1	390.5442	-69.98101	1.243451E-006	6.275931E-005	9
	43	111	15.02404	149.1701	-441.1494	1	465.6872	-71.31757	2.702863E-007	0.0006456	8
	44	114	12.01923	169.5138	-536.6522	1	562.7881	-72.47009	2.161632E-007	0.0006339	8
	45	116	9.450605	196.0701	-662.1265	1	690.5468	-73.50483	2.559457E-007	0.0006517	8
	46	119	7.512019	226.9852	-808.8536	1	840.0991	-74.32451	2.96249E-007	0.0006625	8
	47	121	5.978954	264.3258	-986.916	1	1021.7	-75.00636	2.698548E-007	0.0006404	8
	48	124	4.734848	310.1531	-1210.371	1	1249.477	-75.62742	3.314382E-007	0.0006629	8
	49	128	3.75601	366.3165	-1482.085	1	1526.684	-76.11684	2.634012E-007	0.0006216	8
	50	131	3.004808	432.2274	-1800.736	1	1851.883	-76.50274	3.161209E-007	0.0006349	8
	51	135	2.372217	521.7173	-2213.289	1	2273.948	-76.73634	3.219212E-007	0.0006773	8
	52	139	1.878005	627.9489	-2723.09	1	2794.555	-77.0145	2.765185E-007	0.0006254	8
	53	144	1.512097	745.8148	-3287.514	1	3371.051	-77.21806	3.152751E-007	0.0006043	8
	54	149	1.201923	912.1671	-4031.061	1	4132.977	-77.24958	2.936968E-007	0.0006195	8
	55	155	0.956633	1116.525	-4931.513	1	5056.327	-77.24296	9.763163E-009	-2.444833E-005	7
