EXPLAIN
TAG	EISPOT
TITLE	LABEL	Potentiostatic EIS	Test Identifier
DATE	LABEL	8/28/2020	Date
TIME	LABEL	10:18:24	Time
NOTES	NOTES	1	Notes...
	
PSTAT	PSTAT	REF3000-16137	Potentiostat
VDC	POTEN	0.00000E+000	T	DC Voltage (V)
FREQINIT	QUANT	3.00000E+005	Initial Freq. (Hz)
FREQFINAL	QUANT	1.00000E+000	Final Freq. (Hz)
PTSPERDEC	QUANT	1.00000E+001	Points/decade
VAC	QUANT	5.00000E+001	AC Voltage (mV rms)
AREA	QUANT	1.00000E+000	Sample Area (cm^2)
SPEED	SELECTOR	2	Optimize for:
ZGUESS	QUANT	1.00000E+003	Estimated Z (ohms)
EOC	QUANT	0	Open Circuit (V)
SEQUENCER	TOGGLE	TRUE	Run as Sequence
PSTATMODEL	IQUANT	5	Pstat Model
PSTATSECTION	LABEL	REF3000-16137	Pstat Section
PSTATSERIALNO	LABEL	16137	Pstat Serial Number
CTRLMODE	IQUANT	1	Control Mode
IESTAB	IQUANT	0	I/E Stability
CASPEED	IQUANT	1	Control Amp Speed
CONVENTION	IQUANT	1	Current Convention
ICHRANGE	IQUANT	2	Ich Range
ICHRANGEMODE	TOGGLE	F	Ich Auto Range
ICHOFFSETENABLE	TOGGLE	T	Ich Offset Enable
ICHOFFSET	QUANT	0	Ich Offset (V)
ICHFILTER	IQUANT	3	Ich Filter
VCHRANGE	IQUANT	2	Vch Range
VCHRANGEMODE	TOGGLE	F	Vch Auto Range
VCHOFFSETENABLE	TOGGLE	T	Vch Offset Enable
VCHOFFSET	QUANT	0	Vch Offset (V)
VCHFILTER	IQUANT	3	Vch Filter
ACHRANGE	IQUANT	2	Ach Range
ACHOFFSETENABLE	TOGGLE	F	Ach Offset Enable
ACHOFFSET	QUANT	0	Ach Offset (V)
ACHFILTER	IQUANT	3	Ach Filter
IERANGELOWERLIMIT	IQUANT	2	I/E Range Lower Limit
IERANGEMODE	TOGGLE	F	I/E AutoRange
IERANGE	IQUANT	11	I/E Range
POSFEEDENABLE	TOGGLE	F	Positive Feedback IR Comp
POSFEEDRESISTANCE	QUANT	0	Positive Feedback Resistance (ohm)
ACHSELECT	IQUANT	0	Ach Select
CABLEID	IQUANT	13	Cable ID
DCCALDATE	LABEL	7/31/2020	DC Calibration Date
ACCALDATE	LABEL	7/31/2020	AC Calibration Date
THERMOSELECT	IQUANT	1	Thermo Select
FRAMEWORKVERSION	QUANT	6.33	Framework Version
INSTRUMENTVERSION	LABEL	3.50	Instrument Version
COMPLIANCEVOLTAGE	IQUANT	0	Compliance Voltage
ZCURVE	TABLE
	Pt	Time	Freq	Zreal	Zimag	Zsig	Zmod	Zphz	Idc	Vdc	IERange
	#	s	Hz	ohm	ohm	V	ohm	°	A	V	#
	0	10	300046.9	7.102942	1.174944	1	7.199464	9.392616	1.392256E-005	0.0001674	10
	1	13	238359.4	7.090976	0.9209389	1	7.150529	7.399857	-9.15615E-006	-7.955678E-005	10
	2	17	189328.1	7.093797	0.7143214	1	7.129671	5.750109	2.042163E-005	0.0002159	10
	3	19	150421.9	7.093781	0.5390121	1	7.11423	4.345198	-1.629848E-005	0.0004263	10
	4	22	119484.4	7.11035	0.4050796	1	7.121879	3.26064	-2.446269E-006	0.0005811	10
	5	24	94921.88	7.125098	0.3082457	1	7.131763	2.477184	-1.340488E-005	0.0006025	10
	6	27	75421.88	7.13355	0.1942541	1	7.136194	1.559839	-1.860682E-005	0.0005472	10
	7	29	59859.37	7.145879	0.0901387	1	7.146447	0.7226951	1.390892E-005	0.0005512	10
	8	32	47578.12	7.161113	-0.0051862	1	7.161115	-0.0414944	-1.773582E-005	0.0006126	10
	9	34	37828.12	7.178895	-0.097631	1	7.179559	-0.7791588	1.143844E-005	0.000586	10
	10	37	30046.88	7.197932	-0.1913637	1	7.200475	-1.522903	-9.198584E-006	0.0006382	10
	11	39	23859.38	7.217659	-0.293198	1	7.223611	-2.326208	-3.039219E-005	0.0006386	10
	12	42	18984.38	7.238553	-0.4058719	1	7.249923	-3.209263	-1.202885E-005	0.0006512	10
	13	44	15046.87	7.262332	-0.5399422	1	7.282376	-4.252022	-1.87244E-005	0.0007107	10
	14	46	11953.13	7.28894	-0.6959852	1	7.322093	-5.454357	-1.713779E-005	0.0006993	10
	15	49	9515.62	7.318436	-0.8827175	1	7.371478	-6.877542	2.222306E-005	0.0006273	10
	16	51	7546.875	7.354209	-1.113923	1	7.438092	-8.612977	-1.411075E-005	0.0006275	10
	17	53	5928.309	7.397393	-1.408921	1	7.53037	-10.7835	-2.690108E-005	0.0006691	10
	18	56	4733.456	7.445661	-1.747791	1	7.648048	-13.21041	-2.479268E-005	0.0006633	10
	19	58	3796.875	7.501487	-2.153861	1	7.804577	-16.02007	1.801009E-005	0.0006291	10
	20	60	2987.132	7.575527	-2.7004	1	8.042436	-19.6193	-2.354745E-005	0.0007035	10
	21	63	2390.625	7.657918	-3.331432	1	8.351176	-23.51053	2.441031E-006	0.0006059	10
	22	65	1884.191	7.766189	-4.159946	1	8.810156	-28.17566	2.175196E-005	0.0006306	10
	23	67	1516.544	7.891369	-5.096685	1	9.394142	-32.85662	-1.614031E-005	0.0006862	10
	24	69	1193.986	8.06329	-6.370396	1	10.27612	-38.31047	-2.566538E-005	0.0006828	10
	25	72	946.5144	8.28	-7.895627	1	11.44112	-43.63877	4.756326E-006	0.0006184	10
	26	74	751.7689	8.545529	-9.78589	1	12.99191	-48.87092	2.138372E-005	0.0006394	10
	27	77	597.4265	8.890202	-12.10024	1	15.01504	-53.6948	-4.406169E-006	0.0006276	10
	28	79	477.4305	9.32149	-14.88308	1	17.56122	-57.94049	-2.753443E-006	0.0006577	10
	29	81	376.6741	9.91175	-18.49878	1	20.98685	-61.81733	-3.104154E-006	0.0006617	10
	30	84	298.2954	10.66474	-22.88883	1	25.25144	-65.01747	-2.796919E-006	0.0006608	10
	31	86	237.7717	11.60804	-28.11776	1	30.41965	-67.56737	-2.907128E-006	0.0006533	10
	32	88	189.0121	12.81921	-34.57014	1	36.8704	-69.65434	-2.881433E-006	0.0006529	10
	33	91	150.2404	14.32988	-42.39167	1	44.74817	-71.32294	1.253183E-006	5.430264E-005	9
	34	93	119.1737	16.2531	-52.06709	1	54.54489	-72.66389	1.368792E-006	6.031799E-005	9
	35	96	95.0169	18.56822	-63.58574	1	66.24142	-73.72121	1.244924E-006	5.606867E-005	9
	36	98	75.60484	21.41721	-77.73484	1	80.63127	-74.59625	1.201309E-006	4.933005E-005	9
	37	101	54.50582	26.59092	-103.5626	1	106.9219	-75.59971	1.164026E-006	5.405867E-005	9
	38	103	45.95588	29.93781	-120.3016	1	123.9708	-76.02545	1.321221E-006	5.669694E-005	9
	39	106	37.20238	34.8422	-144.8516	1	148.9831	-76.47517	1.228963E-006	5.035737E-005	9
	40	108	30.04808	40.83549	-174.8037	1	179.5101	-76.85107	1.305846E-006	4.80265E-005	9
	41	110	23.91582	48.73858	-213.7196	1	219.2066	-77.15343	1.380513E-006	5.36971E-005	9
	42	113	18.60119	59.53569	-266.5164	1	273.0851	-77.40774	1.184827E-006	6.010311E-005	9
	43	115	15.02404	71.17894	-321.5681	1	329.3516	-77.51885	1.504577E-006	5.876198E-005	9
	44	117	12.01923	86.29901	-391.288	1	400.6917	-77.56246	1.24401E-006	5.83326E-005	9
	45	120	9.450605	106.3667	-480.9983	1	492.6187	-77.53044	4.581067E-007	0.0006161	8
	46	122	7.512019	131.3321	-588.1356	1	602.6206	-77.41222	4.793392E-007	0.0006301	8
	47	125	5.978954	162.4245	-717.0852	1	735.2502	-77.23749	4.96412E-007	0.0006329	8
	48	128	4.734848	203.5155	-878.1603	1	901.4344	-76.95193	4.508831E-007	0.0006509	8
	49	131	3.75601	254.653	-1071.879	1	1101.714	-76.63565	4.253708E-007	0.0006274	8
	50	135	3.004808	316.6715	-1296.823	1	1334.927	-76.27747	4.054228E-007	0.0006684	8
	51	138	2.372217	401.0287	-1585.973	1	1635.89	-75.80965	4.328517E-007	0.0007117	8
	52	143	1.878005	504.4157	-1931.324	1	1996.108	-75.36269	3.921757E-007	0.0006119	8
	53	147	1.512097	626.0322	-2310.847	1	2394.145	-74.84183	4.34641E-007	0.0006769	8
	54	153	1.201923	787.7154	-2804.9	1	2913.41	-74.31337	4.206472E-007	0.000598	8
	55	159	0.956633	989.919	-3389.068	1	3530.683	-73.71735	3.820556E-007	-4.969663E-006	8
