EXPLAIN
TAG	EISPOT
TITLE	LABEL	Potentiostatic EIS	Test Identifier
DATE	LABEL	8/28/2020	Date
TIME	LABEL	10:43:26	Time
NOTES	NOTES	1	Notes...
	
PSTAT	PSTAT	REF3000-16137	Potentiostat
VDC	POTEN	0.00000E+000	T	DC Voltage (V)
FREQINIT	QUANT	3.00000E+005	Initial Freq. (Hz)
FREQFINAL	QUANT	1.00000E+000	Final Freq. (Hz)
PTSPERDEC	QUANT	1.00000E+001	Points/decade
VAC	QUANT	5.00000E+001	AC Voltage (mV rms)
AREA	QUANT	1.00000E+000	Sample Area (cm^2)
SPEED	SELECTOR	2	Optimize for:
ZGUESS	QUANT	1.00000E+003	Estimated Z (ohms)
EOC	QUANT	0	Open Circuit (V)
SEQUENCER	TOGGLE	TRUE	Run as Sequence
PSTATMODEL	IQUANT	5	Pstat Model
PSTATSECTION	LABEL	REF3000-16137	Pstat Section
PSTATSERIALNO	LABEL	16137	Pstat Serial Number
CTRLMODE	IQUANT	1	Control Mode
IESTAB	IQUANT	0	I/E Stability
CASPEED	IQUANT	1	Control Amp Speed
CONVENTION	IQUANT	1	Current Convention
ICHRANGE	IQUANT	2	Ich Range
ICHRANGEMODE	TOGGLE	F	Ich Auto Range
ICHOFFSETENABLE	TOGGLE	T	Ich Offset Enable
ICHOFFSET	QUANT	0	Ich Offset (V)
ICHFILTER	IQUANT	3	Ich Filter
VCHRANGE	IQUANT	2	Vch Range
VCHRANGEMODE	TOGGLE	F	Vch Auto Range
VCHOFFSETENABLE	TOGGLE	T	Vch Offset Enable
VCHOFFSET	QUANT	0	Vch Offset (V)
VCHFILTER	IQUANT	3	Vch Filter
ACHRANGE	IQUANT	2	Ach Range
ACHOFFSETENABLE	TOGGLE	F	Ach Offset Enable
ACHOFFSET	QUANT	0	Ach Offset (V)
ACHFILTER	IQUANT	3	Ach Filter
IERANGELOWERLIMIT	IQUANT	2	I/E Range Lower Limit
IERANGEMODE	TOGGLE	F	I/E AutoRange
IERANGE	IQUANT	11	I/E Range
POSFEEDENABLE	TOGGLE	F	Positive Feedback IR Comp
POSFEEDRESISTANCE	QUANT	0	Positive Feedback Resistance (ohm)
ACHSELECT	IQUANT	0	Ach Select
CABLEID	IQUANT	13	Cable ID
DCCALDATE	LABEL	7/31/2020	DC Calibration Date
ACCALDATE	LABEL	7/31/2020	AC Calibration Date
THERMOSELECT	IQUANT	1	Thermo Select
FRAMEWORKVERSION	QUANT	6.33	Framework Version
INSTRUMENTVERSION	LABEL	3.50	Instrument Version
COMPLIANCEVOLTAGE	IQUANT	0	Compliance Voltage
ZCURVE	TABLE
	Pt	Time	Freq	Zreal	Zimag	Zsig	Zmod	Zphz	Idc	Vdc	IERange
	#	s	Hz	ohm	ohm	V	ohm	°	A	V	#
	0	7	300046.9	25.41299	0.4844209	1	25.41761	1.092036	-4.58275E-005	-0.0003846	11
	1	11	238359.4	25.57055	0.6346874	1	25.57842	1.421848	7.458242E-005	6.55544E-005	10
	2	14	189328.1	25.68831	0.4805003	1	25.6928	1.071594	-7.397352E-006	0.0003823	10
	3	18	150421.9	25.82332	0.3624398	1	25.82586	0.8041144	3.072055E-006	0.000808	10
	4	21	119484.4	25.92282	0.2500898	1	25.92402	0.5527427	-8.309675E-006	0.0008265	10
	5	25	94921.88	25.99787	0.1600005	1	25.99836	0.3526151	6.163808E-006	0.0005688	10
	6	28	75421.88	26.08365	0.0661484	1	26.08373	0.1453023	-2.744233E-005	0.0006311	10
	7	30	59859.37	26.16638	-0.020305	1	26.16639	-0.0444612	-2.591384E-005	0.0006261	10
	8	33	47578.12	26.24677	-0.1043343	1	26.24697	-0.227757	2.066482E-005	0.0006155	10
	9	35	37828.12	26.33518	-0.1929991	1	26.33589	-0.4198883	-2.497842E-005	0.0006541	10
	10	38	30046.88	26.41972	-0.2886008	1	26.4213	-0.6258563	6.209504E-006	0.0005857	10
	11	40	23859.38	26.50646	-0.400024	1	26.50948	-0.8646175	2.754922E-005	0.0006081	10
	12	43	18984.38	26.5885	-0.5189609	1	26.59356	-1.118171	-2.64242E-005	0.0006944	10
	13	45	15046.87	26.67797	-0.6764039	1	26.68654	-1.452389	-1.719948E-005	0.0006542	10
	14	47	11953.13	26.77024	-0.8480461	1	26.78367	-1.814448	-1.103896E-005	0.0006229	10
	15	49	9515.62	26.86242	-1.058983	1	26.88328	-2.257572	2.23823E-005	0.0006128	10
	16	52	7546.875	26.97017	-1.322221	1	27.00257	-2.806695	2.144651E-005	0.0006776	10
	17	54	5928.309	27.07934	-1.664122	1	27.13043	-3.516607	1.494626E-005	0.0006559	10
	18	56	4733.456	27.19704	-2.055718	1	27.27462	-4.322546	-2.189933E-005	0.0007038	10
	19	59	3796.875	27.32753	-2.521559	1	27.44361	-5.271854	-2.61693E-005	0.0007248	10
	20	61	2987.132	27.47951	-3.162383	1	27.66087	-6.564805	1.608062E-005	0.0006628	10
	21	63	2390.625	27.63073	-3.889516	1	27.90314	-8.01275	1.345646E-005	0.0006309	10
	22	66	1884.191	27.81533	-4.852957	1	28.23551	-9.89681	-1.573358E-005	0.0007015	10
	23	68	1516.544	28.02722	-5.930423	1	28.64778	-11.94728	1.587197E-005	0.0006573	10
	24	70	1193.986	28.28214	-7.404741	1	29.23542	-14.67168	-2.308204E-005	0.0007008	10
	25	73	946.5144	28.57934	-9.189871	1	30.02053	-17.82553	-2.938873E-005	0.0006481	10
	26	75	751.7689	28.92634	-11.35307	1	31.07451	-21.42912	1.961094E-005	0.0006002	10
	27	77	597.4265	29.33806	-14.06188	1	32.53396	-25.60864	-2.85024E-005	0.0006986	10
	28	80	477.4305	29.83991	-17.2908	1	34.48756	-30.09024	-2.73763E-006	0.0006602	10
	29	82	376.6741	30.48235	-21.52406	1	37.31567	-35.22651	-2.286367E-006	0.0006597	10
	30	84	298.2954	31.2328	-26.66312	1	41.06592	-40.48705	1.255262E-006	6.042451E-005	9
	31	87	237.7717	32.19866	-32.86206	1	46.00727	-45.5842	1.240791E-006	5.479648E-005	9
	32	89	189.0121	33.4274	-40.58653	1	52.58001	-50.52485	1.220664E-006	6.060131E-005	9
	33	92	150.2404	34.98802	-50.09972	1	61.10764	-55.0708	1.259297E-006	6.612524E-005	9
	34	94	119.1737	36.99624	-61.91584	1	72.12693	-59.14064	1.204356E-006	6.275948E-005	9
	35	96	95.0169	39.50471	-76.09097	1	85.73482	-62.56268	1.290452E-006	5.29718E-005	9
	36	99	75.60484	42.73484	-93.57727	1	102.8736	-65.45478	1.273805E-006	5.425171E-005	9
	37	102	54.50582	48.88243	-125.5358	1	134.7172	-68.72454	1.345752E-006	6.381412E-005	9
	38	104	45.95588	53.03254	-146.1707	1	155.4938	-70.0586	1.422073E-006	6.172826E-005	9
	39	106	37.20238	59.17959	-176.2728	1	185.9417	-71.44169	1.271634E-006	6.736878E-005	9
	40	109	30.04808	66.74182	-212.8142	1	223.0345	-72.58777	1.377649E-006	6.031803E-005	9
	41	111	23.91582	76.57986	-259.966	1	271.0107	-73.58627	1.399419E-006	5.836883E-005	9
	42	114	18.60119	89.76311	-323.7967	1	336.0085	-74.50553	1.474137E-006	6.190023E-005	9
	43	116	15.02404	103.4734	-390.1836	1	403.6707	-75.14752	1.464579E-006	6.134032E-005	9
	44	118	12.01923	120.2114	-472.4746	1	487.5275	-75.72516	2.998806E-007	0.000655	8
	45	121	9.450605	142.7249	-583.1425	1	600.3545	-76.24714	3.862863E-007	0.0006506	8
	46	123	7.512019	169.1387	-713.4097	1	733.1857	-76.6623	3.834358E-007	0.0006582	8
	47	126	5.978954	201.9482	-871.2853	1	894.3831	-76.95031	3.681334E-007	0.0006469	8
	48	129	4.734848	243.7409	-1070.291	1	1097.694	-77.17065	4.297661E-007	0.0006417	8
	49	132	3.75601	294.5601	-1311.308	1	1343.984	-77.33975	3.785029E-007	0.0006332	8
	50	136	3.004808	355.9833	-1593.646	1	1632.922	-77.40818	4.520489E-007	0.0006283	8
	51	139	2.372217	437.4624	-1957.384	1	2005.673	-77.4018	4.341684E-007	0.0006158	8
	52	144	1.878005	543.02	-2403.741	1	2464.313	-77.27021	4.044354E-007	0.000637	8
	53	148	1.512097	658.0993	-2902.474	1	2976.147	-77.22491	4.481917E-007	0.0005431	8
	54	154	1.201923	818.2629	-3544.447	1	3637.672	-77.00057	4.185735E-007	0.0006374	8
	55	160	0.956633	1013.841	-4321.876	1	4439.199	-76.79807	1.66441E-008	-2.667874E-005	7
