EXPLAIN
TAG	EISPOT
TITLE	LABEL	Potentiostatic EIS	Test Identifier
DATE	LABEL	8/28/2020	Date
TIME	LABEL	9:58:44	Time
NOTES	NOTES	1	Notes...
	
PSTAT	PSTAT	REF3000-16137	Potentiostat
VDC	POTEN	0.00000E+000	T	DC Voltage (V)
FREQINIT	QUANT	3.00000E+005	Initial Freq. (Hz)
FREQFINAL	QUANT	1.00000E+000	Final Freq. (Hz)
PTSPERDEC	QUANT	1.00000E+001	Points/decade
VAC	QUANT	5.00000E+001	AC Voltage (mV rms)
AREA	QUANT	1.00000E+000	Sample Area (cm^2)
SPEED	SELECTOR	2	Optimize for:
ZGUESS	QUANT	1.00000E+003	Estimated Z (ohms)
EOC	QUANT	0	Open Circuit (V)
SEQUENCER	TOGGLE	TRUE	Run as Sequence
PSTATMODEL	IQUANT	5	Pstat Model
PSTATSECTION	LABEL	REF3000-16137	Pstat Section
PSTATSERIALNO	LABEL	16137	Pstat Serial Number
CTRLMODE	IQUANT	1	Control Mode
IESTAB	IQUANT	0	I/E Stability
CASPEED	IQUANT	1	Control Amp Speed
CONVENTION	IQUANT	1	Current Convention
ICHRANGE	IQUANT	2	Ich Range
ICHRANGEMODE	TOGGLE	F	Ich Auto Range
ICHOFFSETENABLE	TOGGLE	T	Ich Offset Enable
ICHOFFSET	QUANT	0	Ich Offset (V)
ICHFILTER	IQUANT	3	Ich Filter
VCHRANGE	IQUANT	2	Vch Range
VCHRANGEMODE	TOGGLE	F	Vch Auto Range
VCHOFFSETENABLE	TOGGLE	T	Vch Offset Enable
VCHOFFSET	QUANT	0	Vch Offset (V)
VCHFILTER	IQUANT	3	Vch Filter
ACHRANGE	IQUANT	2	Ach Range
ACHOFFSETENABLE	TOGGLE	F	Ach Offset Enable
ACHOFFSET	QUANT	0	Ach Offset (V)
ACHFILTER	IQUANT	3	Ach Filter
IERANGELOWERLIMIT	IQUANT	2	I/E Range Lower Limit
IERANGEMODE	TOGGLE	F	I/E AutoRange
IERANGE	IQUANT	11	I/E Range
POSFEEDENABLE	TOGGLE	F	Positive Feedback IR Comp
POSFEEDRESISTANCE	QUANT	0	Positive Feedback Resistance (ohm)
ACHSELECT	IQUANT	0	Ach Select
CABLEID	IQUANT	13	Cable ID
DCCALDATE	LABEL	7/31/2020	DC Calibration Date
ACCALDATE	LABEL	7/31/2020	AC Calibration Date
THERMOSELECT	IQUANT	1	Thermo Select
FRAMEWORKVERSION	QUANT	6.33	Framework Version
INSTRUMENTVERSION	LABEL	3.50	Instrument Version
COMPLIANCEVOLTAGE	IQUANT	0	Compliance Voltage
ZCURVE	TABLE
	Pt	Time	Freq	Zreal	Zimag	Zsig	Zmod	Zphz	Idc	Vdc	IERange
	#	s	Hz	ohm	ohm	V	ohm	°	A	V	#
	0	11	300046.9	4.294157	1.214079	1	4.462485	15.7871	-9.152984E-005	2.28127E-005	10
	1	14	238359.4	4.286917	0.9498659	1	4.390888	12.49337	1.546763E-005	-0.0002339	10
	2	17	189328.1	4.278778	0.7391346	1	4.342149	9.8008	5.479424E-005	-2.587977E-005	10
	3	20	150421.9	4.269528	0.5746059	1	4.308021	7.664982	5.679949E-005	5.847506E-005	10
	4	22	119484.4	4.268805	0.4232306	1	4.289734	5.662085	4.689744E-005	0.0003246	10
	5	25	94921.88	4.271049	0.3181478	1	4.282882	4.26006	-1.788919E-005	0.0004593	10
	6	27	75421.88	4.270302	0.2081783	1	4.275373	2.790974	2.547252E-005	0.0004629	10
	7	30	59859.37	4.271027	0.1098521	1	4.272439	1.473339	-1.541365E-005	0.0005348	10
	8	33	47578.12	4.27353	0.0189099	1	4.273572	0.2535257	2.291014E-005	0.0005794	10
	9	35	37828.12	4.277454	-0.0700878	1	4.278028	-0.93873	1.542951E-005	0.000588	10
	10	38	30046.88	4.283803	-0.1612292	1	4.286836	-2.15542	-2.832311E-005	0.0006247	10
	11	40	23859.38	4.291986	-0.2582277	1	4.299747	-3.443055	-1.933912E-005	0.0006808	10
	12	42	18984.38	4.301171	-0.365136	1	4.316642	-4.852333	-1.857667E-005	0.0006719	10
	13	45	15046.87	4.312749	-0.4902574	1	4.340525	-6.485332	-2.975863E-005	0.0006433	10
	14	47	11953.13	4.327054	-0.6367405	1	4.373652	-8.371188	1.509554E-005	0.0006613	10
	15	49	9515.62	4.344566	-0.8095583	1	4.419349	-10.55533	1.172395E-005	0.0006212	10
	16	52	7546.875	4.367025	-1.024399	1	4.485566	-13.20152	-6.900289E-006	0.000622	10
	17	54	5928.309	4.39646	-1.298478	1	4.584202	-16.45431	-2.518475E-005	0.0006755	10
	18	56	4733.456	4.431431	-1.613336	1	4.715976	-20.00488	-2.326773E-005	0.0006656	10
	19	59	3796.875	4.473565	-1.991185	1	4.896692	-23.99386	1.551031E-005	0.0006643	10
	20	61	2987.132	4.532267	-2.498497	1	5.175319	-28.86657	-2.460437E-005	0.0006807	10
	21	63	2390.625	4.602948	-3.078816	1	5.537711	-33.77774	2.067479E-005	0.0006388	10
	22	66	1884.191	4.699152	-3.850339	1	6.075125	-39.33012	1.985921E-005	0.0006435	10
	23	68	1516.544	4.811388	-4.715387	1	6.736789	-44.42265	2.102866E-005	0.000648	10
	24	70	1193.986	4.972749	-5.891196	1	7.709373	-49.83234	1.737378E-005	0.0006507	10
	25	73	946.5144	5.184074	-7.298219	1	8.952019	-54.61304	1.111218E-005	0.0006262	10
	26	75	751.7689	5.441607	-9.033623	1	10.54597	-58.93639	1.30424E-005	0.0006514	10
	27	77	597.4265	5.778974	-11.15243	1	12.56079	-62.60769	-2.563728E-005	0.0006765	10
	28	80	477.4305	6.218518	-13.68059	1	15.02759	-65.5558	-2.749967E-006	0.0006587	10
	29	82	376.6741	6.807455	-16.95469	1	18.27028	-68.12411	-3.673514E-006	0.0006607	10
	30	84	298.2954	7.55034	-20.90786	1	22.2294	-70.14411	-2.675399E-006	0.0006572	10
	31	87	237.7717	8.458648	-25.59386	1	26.95542	-71.71152	-3.316671E-006	0.0006582	10
	32	89	189.0121	9.60078	-31.36713	1	32.80353	-72.98181	-2.543857E-006	0.000662	10
	33	92	150.2404	11.00583	-38.40429	1	39.9502	-74.00886	-3.359271E-006	0.000658	10
	34	94	119.1737	12.72374	-47.01703	1	48.70826	-74.85733	1.194492E-006	5.708585E-005	9
	35	96	95.0169	14.78729	-57.36617	1	59.24138	-75.54552	1.149722E-006	5.513706E-005	9
	36	99	75.60484	17.33063	-70.11578	1	72.22585	-76.11639	1.038897E-006	6.452508E-005	9
	37	101	54.50582	22.02615	-93.48698	1	96.0467	-76.74252	9.562309E-007	5.606053E-005	9
	38	104	45.95588	25.12201	-108.6308	1	111.4979	-76.97867	1.160062E-006	6.096267E-005	9
	39	106	37.20238	29.74333	-130.8016	1	134.1407	-77.1892	1.187952E-006	5.381434E-005	9
	40	109	30.04808	35.46207	-157.8097	1	161.745	-77.33521	1.050136E-006	5.362573E-005	9
	41	111	23.91582	43.10503	-192.6848	1	197.4474	-77.39012	1.209277E-006	6.055641E-005	9
	42	114	18.60119	53.93826	-240.178	1	246.1601	-77.34273	1.268414E-006	5.982943E-005	9
	43	116	15.02404	65.57939	-289.5189	1	296.8532	-77.23721	1.119868E-006	6.429586E-005	9
	44	118	12.01923	80.9964	-351.6082	1	360.8168	-77.02766	1.274946E-006	6.097566E-005	9
	45	121	9.450605	101.7508	-431.2091	1	443.0514	-76.723	3.847531E-007	0.0006308	8
	46	123	7.512019	128.032	-525.3306	1	540.7073	-76.30307	4.576283E-007	0.0006418	8
	47	126	5.978954	160.7519	-638.3835	1	658.312	-75.86615	4.274027E-007	0.0006352	8
	48	129	4.734848	204.3463	-777.5644	1	803.9675	-75.27545	4.48116E-007	0.0006641	8
	49	132	3.75601	259.3073	-944.3428	1	979.297	-74.64558	3.475067E-007	0.0006328	8
	50	135	3.004808	326.33	-1135.392	1	1181.358	-73.9645	2.741258E-007	0.0006795	8
	51	139	2.372217	418.2883	-1377.863	1	1439.955	-73.11288	3.09122E-007	0.0007176	8
	52	143	1.878005	532.982	-1663.441	1	1746.741	-72.23405	2.745254E-007	0.0006079	8
	53	148	1.512097	668.7087	-1972.635	1	2082.897	-71.27371	3.100187E-007	0.0007044	8
	54	155	1.201923	850.3683	-2365.137	1	2513.364	-70.22431	3.093964E-007	0.0006635	8
	55	161	0.956633	1078.043	-2818.224	1	3017.377	-69.06687	2.608152E-007	-5.320289E-006	8
