EXPLAIN
TAG	EISPOT
TITLE	LABEL	Potentiostatic EIS	Test Identifier
DATE	LABEL	8/28/2020	Date
TIME	LABEL	10:04:23	Time
NOTES	NOTES	1	Notes...
	
PSTAT	PSTAT	REF3000-16137	Potentiostat
VDC	POTEN	0.00000E+000	T	DC Voltage (V)
FREQINIT	QUANT	3.00000E+005	Initial Freq. (Hz)
FREQFINAL	QUANT	1.00000E+000	Final Freq. (Hz)
PTSPERDEC	QUANT	1.00000E+001	Points/decade
VAC	QUANT	5.00000E+001	AC Voltage (mV rms)
AREA	QUANT	1.00000E+000	Sample Area (cm^2)
SPEED	SELECTOR	2	Optimize for:
ZGUESS	QUANT	1.00000E+003	Estimated Z (ohms)
EOC	QUANT	0	Open Circuit (V)
SEQUENCER	TOGGLE	TRUE	Run as Sequence
PSTATMODEL	IQUANT	5	Pstat Model
PSTATSECTION	LABEL	REF3000-16137	Pstat Section
PSTATSERIALNO	LABEL	16137	Pstat Serial Number
CTRLMODE	IQUANT	1	Control Mode
IESTAB	IQUANT	0	I/E Stability
CASPEED	IQUANT	1	Control Amp Speed
CONVENTION	IQUANT	1	Current Convention
ICHRANGE	IQUANT	2	Ich Range
ICHRANGEMODE	TOGGLE	F	Ich Auto Range
ICHOFFSETENABLE	TOGGLE	T	Ich Offset Enable
ICHOFFSET	QUANT	0	Ich Offset (V)
ICHFILTER	IQUANT	3	Ich Filter
VCHRANGE	IQUANT	2	Vch Range
VCHRANGEMODE	TOGGLE	F	Vch Auto Range
VCHOFFSETENABLE	TOGGLE	T	Vch Offset Enable
VCHOFFSET	QUANT	0	Vch Offset (V)
VCHFILTER	IQUANT	3	Vch Filter
ACHRANGE	IQUANT	2	Ach Range
ACHOFFSETENABLE	TOGGLE	F	Ach Offset Enable
ACHOFFSET	QUANT	0	Ach Offset (V)
ACHFILTER	IQUANT	3	Ach Filter
IERANGELOWERLIMIT	IQUANT	2	I/E Range Lower Limit
IERANGEMODE	TOGGLE	F	I/E AutoRange
IERANGE	IQUANT	11	I/E Range
POSFEEDENABLE	TOGGLE	F	Positive Feedback IR Comp
POSFEEDRESISTANCE	QUANT	0	Positive Feedback Resistance (ohm)
ACHSELECT	IQUANT	0	Ach Select
CABLEID	IQUANT	13	Cable ID
DCCALDATE	LABEL	7/31/2020	DC Calibration Date
ACCALDATE	LABEL	7/31/2020	AC Calibration Date
THERMOSELECT	IQUANT	1	Thermo Select
FRAMEWORKVERSION	QUANT	6.33	Framework Version
INSTRUMENTVERSION	LABEL	3.50	Instrument Version
COMPLIANCEVOLTAGE	IQUANT	0	Compliance Voltage
ZCURVE	TABLE
	Pt	Time	Freq	Zreal	Zimag	Zsig	Zmod	Zphz	Idc	Vdc	IERange
	#	s	Hz	ohm	ohm	V	ohm	°	A	V	#
	0	10	300046.9	4.584104	1.193375	1	4.736892	14.59187	2.426143E-005	0.0001326	10
	1	13	238359.4	4.585584	0.9471304	1	4.682375	11.67006	-4.253049E-005	-0.0001924	10
	2	16	189328.1	4.579298	0.7393642	1	4.638603	9.171708	-0.0001068	-1.427166E-005	10
	3	19	150421.9	4.570888	0.5630073	1	4.605431	7.021891	-8.674143E-005	0.0003052	10
	4	21	119484.4	4.579631	0.4219735	1	4.59903	5.264447	-8.79522E-005	0.0004412	10
	5	24	94921.88	4.585763	0.3166599	1	4.596683	3.950166	-4.603243E-006	0.0005104	10
	6	26	75421.88	4.587985	0.2057778	1	4.592597	2.568078	2.554784E-005	0.0004831	10
	7	29	59859.37	4.592721	0.1070414	1	4.593968	1.335137	-1.145027E-005	0.0005504	10
	8	33	47578.12	4.601594	0.0152003	1	4.60162	0.1892623	1.654435E-005	0.0005472	10
	9	35	37828.12	4.610331	-0.0747243	1	4.610936	-0.9285694	-3.079095E-005	0.0005955	10
	10	38	30046.88	4.620542	-0.1668579	1	4.623554	-2.068177	2.004588E-005	0.0005975	10
	11	40	23859.38	4.63305	-0.2651941	1	4.640634	-3.276014	-2.799781E-005	0.0006703	10
	12	42	18984.38	4.64632	-0.3733009	1	4.661293	-4.593467	-3.139676E-005	0.000631	10
	13	45	15046.87	4.662504	-0.4995573	1	4.689189	-6.115544	-1.438798E-005	0.0006909	10
	14	47	11953.13	4.680256	-0.6479725	1	4.724898	-7.882384	1.987331E-005	0.0006117	10
	15	49	9515.62	4.702066	-0.8247906	1	4.773857	-9.94905	-2.481763E-005	0.0006524	10
	16	52	7546.875	4.728555	-1.042073	1	4.842019	-12.42811	9.82336E-006	0.0006289	10
	17	54	5928.309	4.762793	-1.321002	1	4.942595	-15.50182	-2.274275E-005	0.000698	10
	18	56	4733.456	4.801673	-1.64139	1	5.074468	-18.87233	1.996314E-005	0.0006375	10
	19	59	3796.875	4.849225	-2.024327	1	5.254796	-22.65828	-1.930323E-005	0.0007141	10
	20	61	2987.132	4.911515	-2.541377	1	5.530061	-27.35851	1.879758E-005	0.0006208	10
	21	63	2390.625	4.985912	-3.13472	1	5.889464	-32.15821	-1.724637E-005	0.0006935	10
	22	66	1884.191	5.086411	-3.918216	1	6.420591	-37.60814	-2.175771E-005	0.0006922	10
	23	68	1516.544	5.2031	-4.79994	1	7.078959	-42.69201	-2.438644E-005	0.000661	10
	24	70	1193.986	5.368655	-5.998121	1	8.049839	-48.16967	-2.635791E-005	0.0006668	10
	25	73	946.5144	5.577973	-7.437215	1	9.296556	-53.1298	-2.266008E-005	0.0006902	10
	26	75	751.7689	5.84066	-9.203596	1	10.90044	-57.60053	4.092571E-006	0.0006453	10
	27	77	597.4265	6.196737	-11.3708	1	12.94969	-61.41097	-1.724109E-005	0.000651	10
	28	80	477.4305	6.626214	-13.95548	1	15.44869	-64.60112	-3.191754E-006	0.0006583	10
	29	82	376.6741	7.220762	-17.30837	1	18.75418	-67.35493	-3.771608E-006	0.0006594	10
	30	84	298.2954	7.972278	-21.35993	1	22.79921	-69.53265	-3.219634E-006	0.000658	10
	31	87	237.7717	8.893691	-26.166	1	27.63616	-71.22736	-3.195579E-006	0.0006498	10
	32	89	189.0121	10.0611	-32.0905	1	33.63073	-72.59261	-3.128688E-006	0.0006599	10
	33	91	150.2404	11.49994	-39.30856	1	40.95621	-73.69287	-3.359725E-006	0.0006559	10
	34	94	119.1737	13.26436	-48.13913	1	49.93315	-74.59488	1.18717E-006	5.995681E-005	9
	35	96	95.0169	15.38251	-58.74006	1	60.72081	-75.32524	1.156147E-006	5.76369E-005	9
	36	99	75.60484	17.98275	-71.79974	1	74.01744	-75.93912	1.030699E-006	5.603287E-005	9
	37	101	54.50582	22.75401	-95.7233	1	98.3905	-76.62861	1.018238E-006	5.425358E-005	9
	38	104	45.95588	25.88331	-111.2251	1	114.1971	-76.8998	1.208027E-006	6.656412E-005	9
	39	106	37.20238	30.53654	-133.9632	1	137.3995	-77.159	1.142154E-006	5.976146E-005	9
	40	108	30.04808	36.33439	-161.7409	1	165.7719	-77.33894	1.131575E-006	5.913989E-005	9
	41	111	23.91582	44.01123	-197.5899	1	202.4321	-77.44291	1.050072E-006	5.593149E-005	9
	42	113	18.60119	54.75779	-246.3158	1	252.3289	-77.46655	1.171547E-006	4.982981E-005	9
	43	116	15.02404	66.38078	-297.0363	1	304.3633	-77.4027	1.138449E-006	6.822805E-005	9
	44	118	12.01923	81.66698	-360.8427	1	369.9689	-77.24749	1.147392E-006	5.242106E-005	9
	45	120	9.450605	102.2173	-443.1457	1	454.7818	-77.01116	2.372156E-007	0.0006362	8
	46	123	7.512019	127.7586	-540.1817	1	555.0842	-76.69347	2.802528E-007	0.0006223	8
	47	126	5.978954	159.8942	-657.452	1	676.616	-76.33088	2.932613E-007	0.0006423	8
	48	129	4.734848	202.5177	-802.7173	1	827.8698	-75.84032	4.225537E-007	0.0006408	8
	49	132	3.75601	256.1103	-976.028	1	1009.07	-75.29702	3.839769E-007	0.0006376	8
	50	135	3.004808	321.3734	-1175.923	1	1219.047	-74.71463	4.673641E-007	0.0006039	8
	51	139	2.372217	408.4884	-1430.544	1	1487.723	-74.06344	3.651505E-007	0.0005829	8
	52	143	1.878005	522.1918	-1732.69	1	1809.668	-73.22843	3.498647E-007	0.0006452	8
	53	148	1.512097	654.0705	-2064.028	1	2165.183	-72.41709	3.845731E-007	0.0005349	8
	54	153	1.201923	827.8886	-2483.552	1	2617.906	-71.56426	3.538784E-007	0.0006559	8
	55	160	0.956633	1047.756	-2972.843	1	3152.077	-70.58537	3.231378E-007	-4.923007E-006	8
