EXPLAIN
TAG	EISPOT
TITLE	LABEL	Potentiostatic EIS	Test Identifier
DATE	LABEL	8/28/2020	Date
TIME	LABEL	11:08:23	Time
NOTES	NOTES	1	Notes...
	
PSTAT	PSTAT	REF3000-16137	Potentiostat
VDC	POTEN	0.00000E+000	T	DC Voltage (V)
FREQINIT	QUANT	3.00000E+005	Initial Freq. (Hz)
FREQFINAL	QUANT	1.00000E+000	Final Freq. (Hz)
PTSPERDEC	QUANT	1.00000E+001	Points/decade
VAC	QUANT	5.00000E+001	AC Voltage (mV rms)
AREA	QUANT	1.00000E+000	Sample Area (cm^2)
SPEED	SELECTOR	2	Optimize for:
ZGUESS	QUANT	1.00000E+003	Estimated Z (ohms)
EOC	QUANT	0	Open Circuit (V)
SEQUENCER	TOGGLE	TRUE	Run as Sequence
PSTATMODEL	IQUANT	5	Pstat Model
PSTATSECTION	LABEL	REF3000-16137	Pstat Section
PSTATSERIALNO	LABEL	16137	Pstat Serial Number
CTRLMODE	IQUANT	1	Control Mode
IESTAB	IQUANT	0	I/E Stability
CASPEED	IQUANT	1	Control Amp Speed
CONVENTION	IQUANT	1	Current Convention
ICHRANGE	IQUANT	2	Ich Range
ICHRANGEMODE	TOGGLE	F	Ich Auto Range
ICHOFFSETENABLE	TOGGLE	T	Ich Offset Enable
ICHOFFSET	QUANT	0	Ich Offset (V)
ICHFILTER	IQUANT	3	Ich Filter
VCHRANGE	IQUANT	2	Vch Range
VCHRANGEMODE	TOGGLE	F	Vch Auto Range
VCHOFFSETENABLE	TOGGLE	T	Vch Offset Enable
VCHOFFSET	QUANT	0	Vch Offset (V)
VCHFILTER	IQUANT	3	Vch Filter
ACHRANGE	IQUANT	2	Ach Range
ACHOFFSETENABLE	TOGGLE	F	Ach Offset Enable
ACHOFFSET	QUANT	0	Ach Offset (V)
ACHFILTER	IQUANT	3	Ach Filter
IERANGELOWERLIMIT	IQUANT	2	I/E Range Lower Limit
IERANGEMODE	TOGGLE	F	I/E AutoRange
IERANGE	IQUANT	11	I/E Range
POSFEEDENABLE	TOGGLE	F	Positive Feedback IR Comp
POSFEEDRESISTANCE	QUANT	0	Positive Feedback Resistance (ohm)
ACHSELECT	IQUANT	0	Ach Select
CABLEID	IQUANT	13	Cable ID
DCCALDATE	LABEL	7/31/2020	DC Calibration Date
ACCALDATE	LABEL	7/31/2020	AC Calibration Date
THERMOSELECT	IQUANT	1	Thermo Select
FRAMEWORKVERSION	QUANT	6.33	Framework Version
INSTRUMENTVERSION	LABEL	3.50	Instrument Version
COMPLIANCEVOLTAGE	IQUANT	0	Compliance Voltage
ZCURVE	TABLE
	Pt	Time	Freq	Zreal	Zimag	Zsig	Zmod	Zphz	Idc	Vdc	IERange
	#	s	Hz	ohm	ohm	V	ohm	°	A	V	#
	0	8	300046.9	253.9389	-14.8829	1	254.3747	-3.354164	-6.168836E-005	0.0006216	9
	1	12	238359.4	257.849	-12.89147	1	258.171	-2.862189	-1.565304E-005	0.0013299	9
	2	21	189328.1	262.5518	-10.66096	1	262.7682	-2.325226	-1.180774E-005	0.0015843	9
	3	26	150421.9	266.288	-9.79612	1	266.4681	-2.106828	-5.772089E-005	0.0007398	9
	4	34	119484.4	269.5819	-9.87881	1	269.7628	-2.098661	-3.131209E-006	0.0007332	10
	5	38	94921.88	271.3767	-6.438239	1	271.4531	-1.359051	-1.173619E-006	-0.0004271	9
	6	40	75421.88	273.7767	-5.37054	1	273.8294	-1.123798	2.250563E-005	-0.0002676	9
	7	44	59859.37	275.4138	-4.538562	1	275.4512	-0.9440954	2.81353E-005	-0.0006749	9
	8	47	47578.12	276.9978	-3.536444	1	277.0204	-0.7314582	2.038681E-005	-0.0001136	9
	9	49	37828.12	279.1639	-3.340287	1	279.1839	-0.6855301	-1.780582E-005	0.000315	9
	10	53	30046.88	281.6186	-2.91567	1	281.6337	-0.5931768	1.98651E-005	-4.576295E-005	9
	11	57	23859.38	284.138	-2.822709	1	284.152	-0.569174	-8.280967E-006	0.0008823	9
	12	60	18984.38	285.6016	-2.430311	1	285.6119	-0.4875436	-2.192296E-005	0.0009289	9
	13	63	15046.87	287.7245	-2.338897	1	287.7339	-0.465744	-1.359975E-005	0.0008736	9
	14	67	11953.13	288.9986	-2.167888	1	289.0067	-0.4297892	-2.390928E-005	0.0008664	9
	15	69	9515.62	291.6098	-2.596305	1	291.6213	-0.5101112	1.91354E-005	1.038844E-005	9
	16	73	7546.875	293.0655	-2.629376	1	293.0773	-0.5140426	6.626577E-006	0.0003679	9
	17	75	5928.309	294.625	-2.973187	1	294.64	-0.5781766	8.355519E-006	-0.0006838	9
	18	77	4733.456	296.4637	-3.146076	1	296.4804	-0.6080007	2.24162E-005	-0.0008593	9
	19	80	3796.875	298.7226	-3.707484	1	298.7456	-0.7110687	8.107328E-006	-0.0006772	9
	20	82	2987.132	299.4788	-4.932403	1	299.5194	-0.9435736	-1.006831E-006	-0.0004302	9
	21	84	2390.625	301.1654	-5.438869	1	301.2145	-1.034615	-2.427204E-005	0.0008704	9
	22	87	1884.191	301.3024	-6.013152	1	301.3624	-1.143312	-9.112525E-007	-0.000427	9
	23	89	1516.544	304.5343	-8.112942	1	304.6424	-1.526026	2.698137E-005	-0.0004858	9
	24	91	1193.986	307.0172	-9.97287	1	307.1791	-1.86049	1.045087E-005	0.0003095	9
	25	95	946.5144	308.7567	-12.23881	1	308.9992	-2.26996	-1.846429E-005	0.0002949	9
	26	97	751.7689	310.6612	-14.70151	1	311.0088	-2.709404	1.663507E-005	-0.0008344	9
	27	100	597.4265	313.6811	-18.16304	1	314.2065	-3.31389	-1.812879E-005	0.0002986	9
	28	102	477.4305	315.051	-22.52349	1	315.8551	-4.089207	1.064985E-006	5.413984E-005	9
	29	104	376.6741	317.3451	-27.96853	1	318.5752	-5.036628	1.136439E-006	5.139679E-005	9
	30	107	298.2954	319.7964	-34.62517	1	321.6654	-6.179488	1.091312E-006	5.926981E-005	9
	31	109	237.7717	322.5029	-42.64584	1	325.3103	-7.532746	1.12196E-006	5.036004E-005	9
	32	112	189.0121	325.4897	-52.66039	1	329.7221	-9.190146	1.180274E-006	5.125545E-005	9
	33	114	150.2404	328.7769	-65.03018	1	335.1465	-11.18836	1.109784E-006	6.180929E-005	9
	34	116	119.1737	332.4941	-80.50045	1	342.1004	-13.61004	1.185576E-006	5.528885E-005	9
	35	119	95.0169	336.67	-99.1397	1	350.9635	-16.4082	1.020797E-006	5.357993E-005	9
	36	121	75.60484	340.1553	-121.8264	1	361.3133	-19.70495	-5.176824E-008	0.0006195	8
	37	124	54.50582	347.8605	-164.56	1	384.8207	-25.31711	-5.515329E-008	0.0006274	8
	38	126	45.95588	353.5455	-192.5133	1	402.5616	-28.56926	-6.922019E-008	0.000639	8
	39	129	37.20238	361.1482	-233.7009	1	430.1676	-32.90711	-4.878605E-008	0.0006231	8
	40	131	30.04808	370.4098	-284.3088	1	466.9421	-37.50812	-6.986231E-008	0.0006328	8
	41	134	23.91582	382.3131	-350.3296	1	518.55	-42.50034	-7.391449E-008	0.0006161	8
	42	136	18.60119	398.3135	-440.7423	1	594.0601	-47.89483	-4.170644E-008	0.0006399	8
	43	138	15.02404	415.8052	-535.4997	1	677.9778	-52.17135	-1.051125E-007	0.0006293	8
	44	141	12.01923	438.4196	-655.5462	1	788.6396	-56.22598	-6.002459E-008	0.0006245	8
	45	143	9.450605	469.1315	-815.0142	1	940.3895	-60.07478	-6.487748E-008	0.0006401	8
	46	146	7.512019	506.6996	-1002.091	1	1122.912	-63.17691	-6.227552E-008	0.0006274	8
	47	148	5.978954	553.3522	-1228.657	1	1347.515	-65.75455	-4.410359E-008	0.0006174	8
	48	151	4.734848	613.7704	-1513.28	1	1633.012	-67.92304	8.133047E-009	0.0006259	8
	49	155	3.75601	688.1176	-1856.476	1	1979.901	-69.66238	-7.279294E-008	0.000625	8
	50	158	3.004808	776.41	-2256.682	1	2386.509	-71.01425	-4.214789E-009	0.0006099	8
	51	162	2.372217	891.2345	-2771.458	1	2911.233	-72.17345	-3.006571E-008	0.000636	8
	52	166	1.878005	1034.128	-3403.913	1	3557.533	-73.10093	-4.794246E-008	0.0006334	8
	53	171	1.512097	1187.346	-4118.48	1	4286.219	-73.91788	-9.051975E-009	0.000522	7
	54	176	1.201923	1393.319	-5037.495	1	5226.633	-74.53911	-2.844058E-008	0.0006058	7
	55	182	0.956633	1631.279	-6147.09	1	6359.857	-75.13774	-2.640174E-008	-3.44382E-005	7
