EXPLAIN
TAG	EISPOT
TITLE	LABEL	Potentiostatic EIS	Test Identifier
DATE	LABEL	8/28/2020	Date
TIME	LABEL	10:10:00	Time
NOTES	NOTES	1	Notes...
	
PSTAT	PSTAT	REF3000-16137	Potentiostat
VDC	POTEN	0.00000E+000	T	DC Voltage (V)
FREQINIT	QUANT	3.00000E+005	Initial Freq. (Hz)
FREQFINAL	QUANT	1.00000E+000	Final Freq. (Hz)
PTSPERDEC	QUANT	1.00000E+001	Points/decade
VAC	QUANT	5.00000E+001	AC Voltage (mV rms)
AREA	QUANT	1.00000E+000	Sample Area (cm^2)
SPEED	SELECTOR	2	Optimize for:
ZGUESS	QUANT	1.00000E+003	Estimated Z (ohms)
EOC	QUANT	0	Open Circuit (V)
SEQUENCER	TOGGLE	TRUE	Run as Sequence
PSTATMODEL	IQUANT	5	Pstat Model
PSTATSECTION	LABEL	REF3000-16137	Pstat Section
PSTATSERIALNO	LABEL	16137	Pstat Serial Number
CTRLMODE	IQUANT	1	Control Mode
IESTAB	IQUANT	0	I/E Stability
CASPEED	IQUANT	1	Control Amp Speed
CONVENTION	IQUANT	1	Current Convention
ICHRANGE	IQUANT	2	Ich Range
ICHRANGEMODE	TOGGLE	F	Ich Auto Range
ICHOFFSETENABLE	TOGGLE	T	Ich Offset Enable
ICHOFFSET	QUANT	0	Ich Offset (V)
ICHFILTER	IQUANT	3	Ich Filter
VCHRANGE	IQUANT	2	Vch Range
VCHRANGEMODE	TOGGLE	F	Vch Auto Range
VCHOFFSETENABLE	TOGGLE	T	Vch Offset Enable
VCHOFFSET	QUANT	0	Vch Offset (V)
VCHFILTER	IQUANT	3	Vch Filter
ACHRANGE	IQUANT	2	Ach Range
ACHOFFSETENABLE	TOGGLE	F	Ach Offset Enable
ACHOFFSET	QUANT	0	Ach Offset (V)
ACHFILTER	IQUANT	3	Ach Filter
IERANGELOWERLIMIT	IQUANT	2	I/E Range Lower Limit
IERANGEMODE	TOGGLE	F	I/E AutoRange
IERANGE	IQUANT	11	I/E Range
POSFEEDENABLE	TOGGLE	F	Positive Feedback IR Comp
POSFEEDRESISTANCE	QUANT	0	Positive Feedback Resistance (ohm)
ACHSELECT	IQUANT	0	Ach Select
CABLEID	IQUANT	13	Cable ID
DCCALDATE	LABEL	7/31/2020	DC Calibration Date
ACCALDATE	LABEL	7/31/2020	AC Calibration Date
THERMOSELECT	IQUANT	1	Thermo Select
FRAMEWORKVERSION	QUANT	6.33	Framework Version
INSTRUMENTVERSION	LABEL	3.50	Instrument Version
COMPLIANCEVOLTAGE	IQUANT	0	Compliance Voltage
ZCURVE	TABLE
	Pt	Time	Freq	Zreal	Zimag	Zsig	Zmod	Zphz	Idc	Vdc	IERange
	#	s	Hz	ohm	ohm	V	ohm	°	A	V	#
	0	10	300046.9	5.344199	1.185461	1	5.474101	12.50696	1.062356E-005	0.0001131	10
	1	13	238359.4	5.326412	0.9368877	1	5.408181	9.97598	1.658525E-005	-0.0001739	10
	2	16	189328.1	5.326731	0.7306156	1	5.376603	7.809969	9.627478E-006	0.0001917	10
	3	19	150421.9	5.335499	0.5632346	1	5.365146	6.026032	-0.000105	0.0003181	10
	4	21	119484.4	5.33053	0.4155054	1	5.346699	4.457093	3.45646E-005	0.0004724	10
	5	24	94921.88	5.341743	0.3149479	1	5.351019	3.374239	-1.68854E-005	0.0005472	10
	6	27	75421.88	5.345905	0.2033108	1	5.34977	2.177974	2.572238E-005	0.0005319	10
	7	29	59859.37	5.353552	0.1023643	1	5.354531	1.095409	-2.438365E-005	0.0006167	10
	8	32	47578.12	5.362689	0.0083197	1	5.362696	0.0888894	-2.943209E-005	0.0006045	10
	9	34	37828.12	5.374878	-0.0829789	1	5.375519	-0.8844788	-1.420595E-005	0.0005988	10
	10	37	30046.88	5.388677	-0.1759441	1	5.391548	-1.870084	-1.999025E-005	0.0007001	10
	11	39	23859.38	5.403273	-0.275695	1	5.410302	-2.92091	-2.870792E-005	0.0006238	10
	12	41	18984.38	5.41919	-0.3858375	1	5.432909	-4.072494	-1.90478E-005	0.000642	10
	13	44	15046.87	5.438184	-0.5147352	1	5.46249	-5.407053	-2.313258E-005	0.0006886	10
	14	46	11953.13	5.459022	-0.6668355	1	5.499599	-6.964345	5.647885E-006	0.0006125	10
	15	48	9515.62	5.484524	-0.8463421	1	5.549441	-8.772381	-2.031639E-005	0.0006877	10
	16	51	7546.875	5.514049	-1.069253	1	5.616764	-10.97427	-1.023679E-005	0.0006958	10
	17	53	5928.309	5.550778	-1.354171	1	5.713573	-13.71011	1.589393E-005	0.0006245	10
	18	55	4733.456	5.593135	-1.68184	1	5.840526	-16.73588	-2.158507E-005	0.0007062	10
	19	58	3796.875	5.642929	-2.075797	1	6.012619	-20.19645	2.083884E-005	0.0006604	10
	20	60	2987.132	5.709507	-2.602674	1	6.274741	-24.50583	1.873976E-005	0.0006456	10
	21	62	2390.625	5.786114	-3.211139	1	6.617442	-29.02911	8.415592E-006	0.0006156	10
	22	65	1884.191	5.889387	-4.012919	1	7.126598	-34.26979	-2.121401E-005	0.0006747	10
	23	67	1516.544	6.009307	-4.91328	1	7.762222	-39.26984	2.816769E-006	0.0006207	10
	24	69	1193.986	6.176204	-6.140985	1	8.709604	-44.83617	-2.146466E-005	0.0006962	10
	25	72	946.5144	6.386319	-7.620453	1	9.94265	-50.03532	-1.771832E-005	0.0007012	10
	26	74	751.7689	6.651114	-9.433177	1	11.54219	-54.81323	-6.449086E-006	0.0006699	10
	27	76	597.4265	6.999597	-11.66104	1	13.60052	-59.02551	-2.822065E-005	0.0006832	10
	28	79	477.4305	7.436278	-14.31946	1	16.13522	-62.55658	-3.289837E-006	0.000664	10
	29	81	376.6741	8.031439	-17.775	1	19.50525	-65.68469	-2.672749E-006	0.0006559	10
	30	83	298.2954	8.787715	-21.95837	1	23.65151	-68.18877	-2.349043E-006	0.0006624	10
	31	86	237.7717	9.72511	-26.93001	1	28.63221	-70.14406	-2.321123E-006	0.0006564	10
	32	88	189.0121	10.91503	-33.05092	1	34.80663	-71.72425	-2.722168E-006	0.0006576	10
	33	90	150.2404	12.39642	-40.51035	1	42.3646	-72.98556	-2.559794E-006	0.0006565	10
	34	93	119.1737	14.22064	-49.63403	1	51.63103	-74.01247	1.368111E-006	6.312088E-005	9
	35	95	95.0169	16.4142	-60.57278	1	62.75737	-74.83794	1.1851E-006	6.022034E-005	9
	36	98	75.60484	19.10671	-74.03286	1	76.45869	-75.52865	1.124672E-006	5.631394E-005	9
	37	100	54.50582	24.01368	-98.6769	1	101.5568	-76.32256	1.059448E-006	5.378508E-005	9
	38	103	45.95588	27.20036	-114.6228	1	117.806	-76.65046	1.265912E-006	5.891567E-005	9
	39	105	37.20238	31.92638	-138.0337	1	141.6778	-76.97684	1.204845E-006	6.384322E-005	9
	40	108	30.04808	37.7918	-166.6317	1	170.8635	-77.22158	1.207936E-006	5.093026E-005	9
	41	110	23.91582	45.46683	-203.5537	1	208.5697	-77.4088	1.066633E-006	5.205648E-005	9
	42	112	18.60119	56.27914	-253.9309	1	260.0928	-77.50344	1.344579E-006	6.361851E-005	9
	43	115	15.02404	67.90107	-306.4399	1	313.8725	-77.50624	1.187689E-006	6.020724E-005	9
	44	117	12.01923	83.07655	-372.4896	1	381.6415	-77.42707	1.367296E-006	5.678316E-005	9
	45	119	9.450605	103.4226	-457.6282	1	469.1693	-77.26525	3.061269E-007	0.0006416	8
	46	122	7.512019	128.5287	-558.4279	1	573.0283	-77.03844	3.273069E-007	0.0006258	8
	47	125	5.978954	160.208	-680.3321	1	698.9409	-76.74912	3.761953E-007	0.0006405	8
	48	128	4.734848	201.4257	-831.3224	1	855.3767	-76.37997	3.352475E-007	0.0006102	8
	49	131	3.75601	254.0394	-1012.532	1	1043.914	-75.91549	4.91729E-007	0.0006562	8
	50	134	3.004808	317.4712	-1222.428	1	1262.98	-75.4416	3.939653E-007	0.0006582	8
	51	138	2.372217	404.6191	-1487.837	1	1541.874	-74.78628	3.965666E-007	0.0006095	8
	52	142	1.878005	513.4264	-1810.738	1	1882.12	-74.16956	4.606303E-007	0.0006325	8
	53	147	1.512097	635.5912	-2161.052	1	2252.581	-73.61076	4.048422E-007	0.0006723	8
	54	152	1.201923	808.7301	-2611.927	1	2734.266	-72.79593	4.425878E-007	0.0006426	8
	55	159	0.956633	1021.878	-3138.74	1	3300.897	-71.96633	3.375391E-007	-4.181647E-006	8
