EXPLAIN
TAG	EISPOT
TITLE	LABEL	Potentiostatic EIS	Test Identifier
DATE	LABEL	8/28/2020	Date
TIME	LABEL	10:37:53	Time
NOTES	NOTES	1	Notes...
	
PSTAT	PSTAT	REF3000-16137	Potentiostat
VDC	POTEN	0.00000E+000	T	DC Voltage (V)
FREQINIT	QUANT	3.00000E+005	Initial Freq. (Hz)
FREQFINAL	QUANT	1.00000E+000	Final Freq. (Hz)
PTSPERDEC	QUANT	1.00000E+001	Points/decade
VAC	QUANT	5.00000E+001	AC Voltage (mV rms)
AREA	QUANT	1.00000E+000	Sample Area (cm^2)
SPEED	SELECTOR	2	Optimize for:
ZGUESS	QUANT	1.00000E+003	Estimated Z (ohms)
EOC	QUANT	0	Open Circuit (V)
SEQUENCER	TOGGLE	TRUE	Run as Sequence
PSTATMODEL	IQUANT	5	Pstat Model
PSTATSECTION	LABEL	REF3000-16137	Pstat Section
PSTATSERIALNO	LABEL	16137	Pstat Serial Number
CTRLMODE	IQUANT	1	Control Mode
IESTAB	IQUANT	0	I/E Stability
CASPEED	IQUANT	1	Control Amp Speed
CONVENTION	IQUANT	1	Current Convention
ICHRANGE	IQUANT	2	Ich Range
ICHRANGEMODE	TOGGLE	F	Ich Auto Range
ICHOFFSETENABLE	TOGGLE	T	Ich Offset Enable
ICHOFFSET	QUANT	0	Ich Offset (V)
ICHFILTER	IQUANT	3	Ich Filter
VCHRANGE	IQUANT	2	Vch Range
VCHRANGEMODE	TOGGLE	F	Vch Auto Range
VCHOFFSETENABLE	TOGGLE	T	Vch Offset Enable
VCHOFFSET	QUANT	0	Vch Offset (V)
VCHFILTER	IQUANT	3	Vch Filter
ACHRANGE	IQUANT	2	Ach Range
ACHOFFSETENABLE	TOGGLE	F	Ach Offset Enable
ACHOFFSET	QUANT	0	Ach Offset (V)
ACHFILTER	IQUANT	3	Ach Filter
IERANGELOWERLIMIT	IQUANT	2	I/E Range Lower Limit
IERANGEMODE	TOGGLE	F	I/E AutoRange
IERANGE	IQUANT	11	I/E Range
POSFEEDENABLE	TOGGLE	F	Positive Feedback IR Comp
POSFEEDRESISTANCE	QUANT	0	Positive Feedback Resistance (ohm)
ACHSELECT	IQUANT	0	Ach Select
CABLEID	IQUANT	13	Cable ID
DCCALDATE	LABEL	7/31/2020	DC Calibration Date
ACCALDATE	LABEL	7/31/2020	AC Calibration Date
THERMOSELECT	IQUANT	1	Thermo Select
FRAMEWORKVERSION	QUANT	6.33	Framework Version
INSTRUMENTVERSION	LABEL	3.50	Instrument Version
COMPLIANCEVOLTAGE	IQUANT	0	Compliance Voltage
ZCURVE	TABLE
	Pt	Time	Freq	Zreal	Zimag	Zsig	Zmod	Zphz	Idc	Vdc	IERange
	#	s	Hz	ohm	ohm	V	ohm	°	A	V	#
	0	8	300046.9	17.94946	0.961543	1	17.9752	3.066374	7.410339E-005	-3.474995E-005	10
	1	11	238359.4	18.00468	0.7711715	1	18.02119	2.452577	-0.0000997	0.0003299	10
	2	14	189328.1	18.05152	0.5966234	1	18.06138	1.893002	-3.040482E-005	0.0003772	10
	3	17	150421.9	18.09015	0.4391001	1	18.09548	1.39046	4.591955E-005	0.0006227	10
	4	19	119484.4	18.14467	0.3227563	1	18.14754	1.019066	-0.0000993	0.0006152	10
	5	22	94921.88	18.19025	0.2262932	1	18.19166	0.7127432	-1.193056E-005	0.0006939	10
	6	25	75421.88	18.25896	0.1203372	1	18.25936	0.3776073	4.413429E-006	0.0005649	10
	7	28	59859.37	18.31129	0.0246274	1	18.3113	0.0770588	2.434462E-005	0.0006292	10
	8	31	47578.12	18.36492	-0.0650068	1	18.36503	-0.2028105	2.138782E-005	0.0006538	10
	9	33	37828.12	18.41811	-0.1554894	1	18.41877	-0.4836911	-3.864031E-006	0.0005998	10
	10	36	30046.88	18.4746	-0.2516877	1	18.47632	-0.7805175	2.428097E-005	0.0006558	10
	11	38	23859.38	18.52909	-0.3584657	1	18.53255	-1.108312	2.523284E-005	0.0006068	10
	12	40	18984.38	18.58596	-0.4824681	1	18.59222	-1.486992	1.220656E-005	0.000585	10
	13	43	15046.87	18.64337	-0.6279601	1	18.65394	-1.92915	1.310961E-005	0.0005736	10
	14	45	11953.13	18.70729	-0.794993	1	18.72417	-2.433402	-2.701058E-005	0.0006584	10
	15	47	9515.62	18.77422	-1.005315	1	18.80112	-3.065127	2.365797E-005	0.0006068	10
	16	50	7546.875	18.84654	-1.260597	1	18.88866	-3.826669	-1.723246E-005	0.000658	10
	17	52	5928.309	18.92953	-1.590128	1	18.99619	-4.801718	6.343755E-006	0.0006629	10
	18	54	4733.456	19.01884	-1.968506	1	19.12044	-5.90924	-2.89651E-005	0.000681	10
	19	57	3796.875	19.11381	-2.418237	1	19.26618	-7.210625	1.784908E-005	0.0005869	10
	20	59	2987.132	19.23069	-3.028813	1	19.46775	-8.9505	2.056214E-005	0.0006467	10
	21	61	2390.625	19.35872	-3.7286	1	19.71453	-10.90199	-4.09367E-006	0.0006092	10
	22	64	1884.191	19.50697	-4.655155	1	20.05473	-13.42206	1.941301E-005	0.0006009	10
	23	66	1516.544	19.67909	-5.689846	1	20.48514	-16.12625	1.813422E-005	0.0005935	10
	24	68	1193.986	19.9003	-7.104725	1	21.13053	-19.64738	2.265627E-005	0.0006138	10
	25	71	946.5144	20.16618	-8.806762	1	22.00531	-23.59135	1.251519E-005	0.0005814	10
	26	73	751.7689	20.47119	-10.92184	1	23.20251	-28.08092	-2.247372E-005	0.0006975	10
	27	75	597.4265	20.84216	-13.50031	1	24.83252	-32.93276	-2.739876E-005	0.0006956	10
	28	78	477.4305	21.31207	-16.61395	1	27.02273	-37.9384	-2.493369E-006	0.0006534	10
	29	80	376.6741	21.91937	-20.68189	1	30.13635	-43.33615	-2.618105E-006	0.0006517	10
	30	82	298.2954	22.67703	-25.64749	1	34.23509	-48.51749	-2.469247E-006	0.000657	10
	31	85	237.7717	23.61793	-31.59842	1	39.44955	-53.22408	-2.711566E-006	0.0006578	10
	32	87	189.0121	24.80117	-38.95658	1	46.18131	-57.5177	1.274274E-006	6.130438E-005	9
	33	89	150.2404	26.35038	-48.04731	1	54.7986	-61.2585	1.260207E-006	6.45433E-005	9
	34	92	119.1737	28.35803	-59.30902	1	65.73993	-64.44566	1.280814E-006	5.794492E-005	9
	35	94	95.0169	30.86223	-72.77985	1	79.05304	-67.02067	1.259263E-006	5.692247E-005	9
	36	97	75.60484	34.06413	-89.34906	1	95.6223	-69.13076	1.285443E-006	6.026732E-005	9
	37	99	54.50582	40.08769	-119.5287	1	126.0719	-71.4595	1.228183E-006	5.425333E-005	9
	38	102	45.95588	44.09087	-138.9888	1	145.8146	-72.39962	1.266381E-006	6.401727E-005	9
	39	104	37.20238	49.91972	-167.3396	1	174.6268	-73.38943	1.354831E-006	6.059158E-005	9
	40	106	30.04808	57.02895	-201.7755	1	209.6799	-74.21782	9.500802E-007	0.0001037	9
	41	109	23.91582	66.14314	-246.3553	1	255.08	-74.97126	1.236619E-006	5.999402E-005	9
	42	111	18.60119	78.42959	-306.9908	1	316.851	-75.6687	1.475894E-006	5.143168E-005	9
	43	114	15.02404	91.26427	-370.2614	1	381.3432	-76.1534	1.310048E-006	5.445238E-005	9
	44	116	12.01923	107.0963	-448.3882	1	461.0006	-76.56673	5.086525E-007	0.0006596	8
	45	118	9.450605	128.5918	-553.8486	1	568.5808	-76.92874	3.738566E-007	0.0006381	8
	46	121	7.512019	153.9676	-677.6959	1	694.9661	-77.20009	4.255027E-007	0.0006254	8
	47	124	5.978954	185.8162	-827.877	1	848.4739	-77.34966	4.652207E-007	0.0006416	8
	48	127	4.734848	226.7551	-1016.772	1	1041.75	-77.42793	4.422603E-007	0.0006446	8
	49	130	3.75601	277.4972	-1244.994	1	1275.545	-77.43472	4.431168E-007	0.0006375	8
	50	133	3.004808	338.4626	-1512.271	1	1549.684	-77.38449	4.185333E-007	0.0006783	8
	51	137	2.372217	419.0381	-1858.195	1	1904.857	-77.29191	4.373971E-007	0.000703	8
	52	141	1.878005	522.5134	-2274.922	1	2334.158	-77.06443	4.250466E-007	0.0006109	8
	53	146	1.512097	643.2079	-2740.873	1	2815.333	-76.79323	4.465988E-007	0.0007314	8
	54	151	1.201923	796.9459	-3343.04	1	3436.719	-76.59155	4.601167E-007	0.0006081	8
	55	158	0.956633	988.05	-4065.231	1	4183.581	-76.33921	4.186664E-007	7.402955E-007	8
