EXPLAIN
TAG	EISPOT
TITLE	LABEL	Potentiostatic EIS	Test Identifier
DATE	LABEL	8/28/2020	Date
TIME	LABEL	11:05:35	Time
NOTES	NOTES	1	Notes...
	
PSTAT	PSTAT	REF3000-16137	Potentiostat
VDC	POTEN	0.00000E+000	T	DC Voltage (V)
FREQINIT	QUANT	3.00000E+005	Initial Freq. (Hz)
FREQFINAL	QUANT	1.00000E+000	Final Freq. (Hz)
PTSPERDEC	QUANT	1.00000E+001	Points/decade
VAC	QUANT	5.00000E+001	AC Voltage (mV rms)
AREA	QUANT	1.00000E+000	Sample Area (cm^2)
SPEED	SELECTOR	2	Optimize for:
ZGUESS	QUANT	1.00000E+003	Estimated Z (ohms)
EOC	QUANT	0	Open Circuit (V)
SEQUENCER	TOGGLE	TRUE	Run as Sequence
PSTATMODEL	IQUANT	5	Pstat Model
PSTATSECTION	LABEL	REF3000-16137	Pstat Section
PSTATSERIALNO	LABEL	16137	Pstat Serial Number
CTRLMODE	IQUANT	1	Control Mode
IESTAB	IQUANT	0	I/E Stability
CASPEED	IQUANT	1	Control Amp Speed
CONVENTION	IQUANT	1	Current Convention
ICHRANGE	IQUANT	2	Ich Range
ICHRANGEMODE	TOGGLE	F	Ich Auto Range
ICHOFFSETENABLE	TOGGLE	T	Ich Offset Enable
ICHOFFSET	QUANT	0	Ich Offset (V)
ICHFILTER	IQUANT	3	Ich Filter
VCHRANGE	IQUANT	2	Vch Range
VCHRANGEMODE	TOGGLE	F	Vch Auto Range
VCHOFFSETENABLE	TOGGLE	T	Vch Offset Enable
VCHOFFSET	QUANT	0	Vch Offset (V)
VCHFILTER	IQUANT	3	Vch Filter
ACHRANGE	IQUANT	2	Ach Range
ACHOFFSETENABLE	TOGGLE	F	Ach Offset Enable
ACHOFFSET	QUANT	0	Ach Offset (V)
ACHFILTER	IQUANT	3	Ach Filter
IERANGELOWERLIMIT	IQUANT	2	I/E Range Lower Limit
IERANGEMODE	TOGGLE	F	I/E AutoRange
IERANGE	IQUANT	11	I/E Range
POSFEEDENABLE	TOGGLE	F	Positive Feedback IR Comp
POSFEEDRESISTANCE	QUANT	0	Positive Feedback Resistance (ohm)
ACHSELECT	IQUANT	0	Ach Select
CABLEID	IQUANT	13	Cable ID
DCCALDATE	LABEL	7/31/2020	DC Calibration Date
ACCALDATE	LABEL	7/31/2020	AC Calibration Date
THERMOSELECT	IQUANT	1	Thermo Select
FRAMEWORKVERSION	QUANT	6.33	Framework Version
INSTRUMENTVERSION	LABEL	3.50	Instrument Version
COMPLIANCEVOLTAGE	IQUANT	0	Compliance Voltage
ZCURVE	TABLE
	Pt	Time	Freq	Zreal	Zimag	Zsig	Zmod	Zphz	Idc	Vdc	IERange
	#	s	Hz	ohm	ohm	V	ohm	°	A	V	#
	0	8	300046.9	182.07	-6.237137	1	182.1768	-1.962003	-7.296575E-005	0.0030949	9
	1	13	238359.4	184.0656	-5.388962	1	184.1444	-1.676993	-8.82609E-005	0.0030267	9
	2	16	189328.1	185.1891	-4.406813	1	185.2415	-1.36317	-7.868056E-005	0.0019922	9
	3	18	150421.9	186.5101	-4.188426	1	186.5571	-1.286466	-7.85114E-005	0.0020258	9
	4	21	119484.4	187.732	-3.429138	1	187.7633	-1.046456	1.587993E-005	-0.0008051	9
	5	24	94921.88	188.7336	-2.749055	1	188.7536	-0.8344994	-1.459467E-005	0.0001029	9
	6	26	75421.88	189.7506	-2.36167	1	189.7653	-0.7130768	-2.25147E-005	0.0006529	9
	7	29	59859.37	190.7044	-2.07751	1	190.7157	-0.6241484	2.575877E-005	-0.0005149	9
	8	31	47578.12	191.7394	-1.765397	1	191.7475	-0.5275232	1.967676E-005	-8.81568E-005	9
	9	34	37828.12	192.7488	-1.653913	1	192.7559	-0.4916238	-8.501574E-006	0.0007798	9
	10	36	30046.88	193.837	-1.576337	1	193.8434	-0.4659349	1.455569E-005	0.0001808	9
	11	39	23859.38	194.8028	-1.445971	1	194.8082	-0.4252839	1.43047E-005	-0.0007377	9
	12	41	18984.38	195.6512	-1.426827	1	195.6564	-0.4178339	1.037439E-005	0.0002284	9
	13	43	15046.87	196.7148	-1.460843	1	196.7202	-0.4254819	7.420882E-006	-0.0006314	9
	14	46	11953.13	197.8409	-1.826751	1	197.8493	-0.5290219	2.60482E-005	-0.000661	9
	15	48	9515.62	198.5933	-1.786098	1	198.6013	-0.5152898	-1.46642E-005	0.000113	9
	16	50	7546.875	199.4226	-2.176155	1	199.4344	-0.6252027	2.541778E-005	-0.000757	9
	17	53	5928.309	200.4139	-2.726088	1	200.4325	-0.7793055	7.234569E-006	-0.0006256	9
	18	55	4733.456	201.6256	-2.936348	1	201.6469	-0.8343607	-8.714916E-006	0.0008491	9
	19	57	3796.875	202.5765	-3.33535	1	202.6039	-0.9432694	-9.194176E-006	-0.0001014	9
	20	60	2987.132	203.4048	-4.1436	1	203.4471	-1.167022	9.375011E-007	0.000596	9
	21	62	2390.625	204.2716	-4.571348	1	204.3227	-1.281995	-1.892268E-006	0.0005692	9
	22	64	1884.191	205.3695	-6.108915	1	205.4604	-1.703816	1.919359E-005	-7.891493E-005	9
	23	67	1516.544	206.8028	-7.547114	1	206.9405	-2.090039	1.910564E-005	-6.621969E-005	9
	24	69	1193.986	208.0012	-9.410722	1	208.214	-2.590501	2.568574E-005	-0.0004705	9
	25	71	946.5144	209.301	-11.34476	1	209.6082	-3.102571	2.537364E-005	-0.0007581	9
	26	74	751.7689	210.4628	-14.2823	1	210.9469	-3.882219	1.022252E-006	0.0005968	9
	27	76	597.4265	211.7787	-17.60112	1	212.5088	-4.750985	2.578064E-005	-0.0004699	9
	28	78	477.4305	213.3482	-21.52246	1	214.431	-5.760483	1.137043E-006	5.582381E-005	9
	29	81	376.6741	215.0077	-26.75297	1	216.6658	-7.092741	1.166903E-006	4.807211E-005	9
	30	83	298.2954	216.8051	-33.15558	1	219.3257	-8.694767	1.143553E-006	5.881858E-005	9
	31	85	237.7717	218.8242	-40.85259	1	222.6049	-10.57489	1.13974E-006	5.034882E-005	9
	32	88	189.0121	221.1103	-50.4648	1	226.796	-12.85661	1.055442E-006	5.689071E-005	9
	33	90	150.2404	223.7164	-62.35169	1	232.2429	-15.57361	1.175972E-006	5.807835E-005	9
	34	93	119.1737	226.721	-77.18252	1	239.4985	-18.80009	1.166078E-006	6.173403E-005	9
	35	95	95.0169	230.2422	-95.094	1	249.1071	-22.44147	1.11675E-006	6.157644E-005	9
	36	98	75.60484	234.4169	-117.3417	1	262.1457	-26.59109	1.159092E-006	5.330647E-005	9
	37	100	54.50582	241.3898	-158.471	1	288.7596	-33.28467	1.091248E-006	5.239835E-005	9
	38	103	45.95588	246.3996	-185.3671	1	308.3402	-36.95424	1.088457E-006	5.977501E-005	9
	39	105	37.20238	253.4128	-224.9719	1	338.8663	-41.59767	1.179072E-006	5.774995E-005	9
	40	107	30.04808	262.0609	-273.5699	1	378.8356	-46.23092	1.1072E-006	5.294205E-005	9
	41	110	23.91582	272.2665	-335.456	1	432.0414	-50.93615	-4.037098E-008	0.0006341	8
	42	112	18.60119	287.8445	-421.6901	1	510.5653	-55.68267	1.168741E-008	0.000632	8
	43	114	15.02404	304.9562	-511.7763	1	595.746	-59.21022	8.101807E-008	0.0006475	8
	44	117	12.01923	327.1538	-625.7693	1	706.1281	-62.39932	2.341877E-008	0.0006295	8
	45	119	9.450605	357.4386	-776.4765	1	854.7971	-65.28178	-8.856695E-009	0.0006351	8
	46	122	7.512019	394.0542	-952.991	1	1031.247	-67.53529	9.658439E-009	0.0006445	8
	47	124	5.978954	439.5868	-1165.906	1	1246.023	-69.34183	1.261908E-008	0.000644	8
	48	127	4.734848	496.7471	-1431.955	1	1515.669	-70.86827	8.867569E-008	0.0006553	8
	49	131	3.75601	567.618	-1753.481	1	1843.064	-72.06275	8.678606E-009	0.0006127	8
	50	134	3.004808	651.239	-2129.156	1	2226.526	-72.99285	3.9089E-008	0.0006632	8
	51	138	2.372217	758.5713	-2617.813	1	2725.504	-73.83984	3.476304E-008	0.000708	8
	52	142	1.878005	884.6749	-3208.526	1	3328.256	-74.58508	2.150564E-008	0.0006017	8
	53	147	1.512097	1030.133	-3867.851	1	4002.68	-75.08648	4.48003E-008	0.0006853	8
	54	152	1.201923	1214.109	-4750.566	1	4903.258	-75.66371	-6.395708E-009	0.0005741	7
	55	158	0.956633	1437.303	-5806.309	1	5981.561	-76.09641	-2.114935E-008	-3.342574E-005	7
