EXPLAIN
TAG	EISPOT
TITLE	LABEL	Potentiostatic EIS	Test Identifier
DATE	LABEL	8/28/2020	Date
TIME	LABEL	11:00:01	Time
NOTES	NOTES	1	Notes...
	
PSTAT	PSTAT	REF3000-16137	Potentiostat
VDC	POTEN	0.00000E+000	T	DC Voltage (V)
FREQINIT	QUANT	3.00000E+005	Initial Freq. (Hz)
FREQFINAL	QUANT	1.00000E+000	Final Freq. (Hz)
PTSPERDEC	QUANT	1.00000E+001	Points/decade
VAC	QUANT	5.00000E+001	AC Voltage (mV rms)
AREA	QUANT	1.00000E+000	Sample Area (cm^2)
SPEED	SELECTOR	2	Optimize for:
ZGUESS	QUANT	1.00000E+003	Estimated Z (ohms)
EOC	QUANT	0	Open Circuit (V)
SEQUENCER	TOGGLE	TRUE	Run as Sequence
PSTATMODEL	IQUANT	5	Pstat Model
PSTATSECTION	LABEL	REF3000-16137	Pstat Section
PSTATSERIALNO	LABEL	16137	Pstat Serial Number
CTRLMODE	IQUANT	1	Control Mode
IESTAB	IQUANT	0	I/E Stability
CASPEED	IQUANT	1	Control Amp Speed
CONVENTION	IQUANT	1	Current Convention
ICHRANGE	IQUANT	2	Ich Range
ICHRANGEMODE	TOGGLE	F	Ich Auto Range
ICHOFFSETENABLE	TOGGLE	T	Ich Offset Enable
ICHOFFSET	QUANT	0	Ich Offset (V)
ICHFILTER	IQUANT	3	Ich Filter
VCHRANGE	IQUANT	2	Vch Range
VCHRANGEMODE	TOGGLE	F	Vch Auto Range
VCHOFFSETENABLE	TOGGLE	T	Vch Offset Enable
VCHOFFSET	QUANT	0	Vch Offset (V)
VCHFILTER	IQUANT	3	Vch Filter
ACHRANGE	IQUANT	2	Ach Range
ACHOFFSETENABLE	TOGGLE	F	Ach Offset Enable
ACHOFFSET	QUANT	0	Ach Offset (V)
ACHFILTER	IQUANT	3	Ach Filter
IERANGELOWERLIMIT	IQUANT	2	I/E Range Lower Limit
IERANGEMODE	TOGGLE	F	I/E AutoRange
IERANGE	IQUANT	11	I/E Range
POSFEEDENABLE	TOGGLE	F	Positive Feedback IR Comp
POSFEEDRESISTANCE	QUANT	0	Positive Feedback Resistance (ohm)
ACHSELECT	IQUANT	0	Ach Select
CABLEID	IQUANT	13	Cable ID
DCCALDATE	LABEL	7/31/2020	DC Calibration Date
ACCALDATE	LABEL	7/31/2020	AC Calibration Date
THERMOSELECT	IQUANT	1	Thermo Select
FRAMEWORKVERSION	QUANT	6.33	Framework Version
INSTRUMENTVERSION	LABEL	3.50	Instrument Version
COMPLIANCEVOLTAGE	IQUANT	0	Compliance Voltage
ZCURVE	TABLE
	Pt	Time	Freq	Zreal	Zimag	Zsig	Zmod	Zphz	Idc	Vdc	IERange
	#	s	Hz	ohm	ohm	V	ohm	°	A	V	#
	0	7	300046.9	100.1081	-0.5160984	1	100.1094	-0.2953808	4.778432E-005	-0.0006645	9
	1	10	238359.4	100.8579	-0.4162703	1	100.8588	-0.2364752	6.863708E-005	-0.0024372	9
	2	13	189328.1	101.4346	-0.6641268	1	101.4368	-0.3751296	1.66936E-005	-0.0005888	9
	3	15	150421.9	101.8997	-0.6425089	1	101.9017	-0.3612628	4.520389E-005	-0.000331	9
	4	18	119484.4	102.388	-0.5506045	1	102.3895	-0.3081122	2.884654E-005	0.0004329	9
	5	20	94921.88	102.932	-0.2749151	1	102.9323	-0.1530277	-1.448296E-005	0.0001926	9
	6	23	75421.88	103.3795	-0.3532124	1	103.3801	-0.1957594	-1.718415E-006	-0.0003255	9
	7	26	59859.37	103.8792	-0.3850366	1	103.8799	-0.2123705	-1.710673E-005	0.0007325	9
	8	28	47578.12	104.2609	-0.4921951	1	104.2621	-0.27048	-2.092775E-005	0.0006333	9
	9	31	37828.12	104.8091	-0.5283815	1	104.8104	-0.2888469	1.288356E-005	-0.0006872	9
	10	33	30046.88	105.2987	-0.6228062	1	105.3005	-0.3388812	5.896829E-006	-0.0005363	9
	11	36	23859.38	105.7473	-0.6541173	1	105.7493	-0.3544081	1.02376E-005	0.0001547	9
	12	38	18984.38	106.1773	-0.7882697	1	106.1802	-0.4253613	-1.641601E-005	0.0003129	9
	13	40	15046.87	106.6035	-0.9071861	1	106.6074	-0.4875701	-1.319471E-005	0.0007708	9
	14	43	11953.13	107.0599	-1.124696	1	107.0658	-0.6018869	1.872074E-005	-0.000149	9
	15	45	9515.62	107.5552	-1.348932	1	107.5636	-0.7185527	2.254301E-005	-0.0004242	9
	16	47	7546.875	107.8639	-1.724074	1	107.8777	-0.9157258	1.273873E-005	-0.0006602	9
	17	50	5928.309	108.5105	-2.056713	1	108.53	-1.085857	-1.379169E-005	0.0008409	9
	18	52	4733.456	109.0053	-2.498303	1	109.0339	-1.312938	5.979125E-006	-0.0005192	9
	19	54	3796.875	109.469	-3.023945	1	109.5107	-1.582323	2.150184E-005	-0.00029	9
	20	58	2987.132	110.1705	-3.767243	1	110.2349	-1.958447	-9.573597E-006	-4.032175E-005	9
	21	60	2390.625	110.761	-4.565783	1	110.8551	-2.360506	2.167464E-005	-0.0002317	9
	22	62	1884.191	111.5559	-5.629342	1	111.6979	-2.888812	-1.481364E-005	0.0001626	9
	23	64	1516.544	111.8992	-6.989767	1	112.1173	-3.574328	-2.111164E-005	0.0006351	9
	24	67	1193.986	112.5642	-8.657681	1	112.8967	-4.398145	1.114257E-005	0.0001793	9
	25	69	946.5144	113.3779	-10.74922	1	113.8864	-5.41595	1.040009E-005	0.000165	9
	26	72	751.7689	114.0865	-13.25197	1	114.8536	-6.625626	1.101224E-005	0.0001824	9
	27	74	597.4265	114.916	-16.31459	1	116.0683	-8.080266	-1.354257E-005	0.0008456	9
	28	76	477.4305	115.8569	-20.10462	1	117.5883	-9.84449	1.14798E-006	5.467802E-005	9
	29	79	376.6741	116.9525	-25.01809	1	119.5984	-12.07454	1.126019E-006	5.270774E-005	9
	30	81	298.2954	118.1837	-31.02565	1	122.1883	-14.7094	1.299619E-006	5.779406E-005	9
	31	83	237.7717	119.6008	-38.24258	1	125.5661	-17.73178	1.185049E-006	5.712872E-005	9
	32	86	189.0121	121.2744	-47.25769	1	130.1567	-21.28965	1.245467E-006	5.795487E-005	9
	33	88	150.2404	123.2606	-58.39098	1	136.3917	-25.34784	1.212038E-006	5.024007E-005	9
	34	91	119.1737	125.6567	-72.2793	1	144.9617	-29.90806	1.184242E-006	6.090384E-005	9
	35	93	95.0169	128.5193	-89.02057	1	156.339	-34.70891	1.237222E-006	4.873618E-005	9
	36	97	75.60484	132.264	-109.8377	1	171.9246	-39.70769	1.234275E-006	4.980672E-005	9
	37	99	54.50582	138.6372	-148.2243	1	202.955	-46.91414	1.180042E-006	5.72907E-005	9
	38	102	45.95588	143.1176	-173.2962	1	224.7537	-50.44821	1.19467E-006	7.57436E-005	9
	39	104	37.20238	149.656	-210.0906	1	257.9437	-54.53619	1.255719E-006	5.463453E-005	9
	40	106	30.04808	157.9165	-255.2102	1	300.1164	-58.25201	1.327071E-006	5.869044E-005	9
	41	109	23.91582	168.9458	-313.7461	1	356.3415	-61.69846	1.196096E-006	4.607232E-005	9
	42	111	18.60119	183.5724	-391.7226	1	432.6031	-64.89087	2.003838E-007	0.0006367	8
	43	113	15.02404	200.2374	-474.1229	1	514.6723	-67.1041	1.925455E-007	0.000633	8
	44	116	12.01923	221.8781	-578.3527	1	619.4528	-69.01128	9.696757E-008	0.0006385	8
	45	118	9.450605	250.9449	-715.0738	1	757.8284	-70.66221	2.328423E-007	0.0006327	8
	46	121	7.512019	285.3939	-874.6205	1	920.0059	-71.92819	2.238856E-007	0.0006435	8
	47	123	5.978954	326.6479	-1067.534	1	1116.391	-72.98675	1.742105E-007	0.000646	8
	48	126	4.734848	377.9904	-1308.187	1	1361.701	-73.88376	2.182314E-007	0.0006626	8
	49	130	3.75601	440.6791	-1600.593	1	1660.15	-74.60658	1.594089E-007	0.0006295	8
	50	133	3.004808	513.0602	-1943.479	1	2010.06	-75.21182	1.636536E-007	0.0006691	8
	51	137	2.372217	607.9066	-2391.268	1	2467.329	-75.73646	1.856245E-007	0.000712	8
	52	141	1.878005	720.4842	-2933.906	1	3021.076	-76.2028	1.794076E-007	0.0006067	8
	53	146	1.512097	853.9543	-3543.486	1	3644.932	-76.45049	1.930783E-007	0.0007073	8
	54	151	1.201923	1022.456	-4351.807	1	4470.307	-76.77817	1.885124E-008	0.0005776	7
	55	157	0.956633	1229.107	-5321.308	1	5461.412	-76.994	-6.005878E-009	-3.030981E-005	7
