EXPLAIN
TAG	EISPOT
TITLE	LABEL	Potentiostatic EIS	Test Identifier
DATE	LABEL	8/28/2020	Date
TIME	LABEL	10:21:12	Time
NOTES	NOTES	1	Notes...
	
PSTAT	PSTAT	REF3000-16137	Potentiostat
VDC	POTEN	0.00000E+000	T	DC Voltage (V)
FREQINIT	QUANT	3.00000E+005	Initial Freq. (Hz)
FREQFINAL	QUANT	1.00000E+000	Final Freq. (Hz)
PTSPERDEC	QUANT	1.00000E+001	Points/decade
VAC	QUANT	5.00000E+001	AC Voltage (mV rms)
AREA	QUANT	1.00000E+000	Sample Area (cm^2)
SPEED	SELECTOR	2	Optimize for:
ZGUESS	QUANT	1.00000E+003	Estimated Z (ohms)
EOC	QUANT	0	Open Circuit (V)
SEQUENCER	TOGGLE	TRUE	Run as Sequence
PSTATMODEL	IQUANT	5	Pstat Model
PSTATSECTION	LABEL	REF3000-16137	Pstat Section
PSTATSERIALNO	LABEL	16137	Pstat Serial Number
CTRLMODE	IQUANT	1	Control Mode
IESTAB	IQUANT	0	I/E Stability
CASPEED	IQUANT	1	Control Amp Speed
CONVENTION	IQUANT	1	Current Convention
ICHRANGE	IQUANT	2	Ich Range
ICHRANGEMODE	TOGGLE	F	Ich Auto Range
ICHOFFSETENABLE	TOGGLE	T	Ich Offset Enable
ICHOFFSET	QUANT	0	Ich Offset (V)
ICHFILTER	IQUANT	3	Ich Filter
VCHRANGE	IQUANT	2	Vch Range
VCHRANGEMODE	TOGGLE	F	Vch Auto Range
VCHOFFSETENABLE	TOGGLE	T	Vch Offset Enable
VCHOFFSET	QUANT	0	Vch Offset (V)
VCHFILTER	IQUANT	3	Vch Filter
ACHRANGE	IQUANT	2	Ach Range
ACHOFFSETENABLE	TOGGLE	F	Ach Offset Enable
ACHOFFSET	QUANT	0	Ach Offset (V)
ACHFILTER	IQUANT	3	Ach Filter
IERANGELOWERLIMIT	IQUANT	2	I/E Range Lower Limit
IERANGEMODE	TOGGLE	F	I/E AutoRange
IERANGE	IQUANT	11	I/E Range
POSFEEDENABLE	TOGGLE	F	Positive Feedback IR Comp
POSFEEDRESISTANCE	QUANT	0	Positive Feedback Resistance (ohm)
ACHSELECT	IQUANT	0	Ach Select
CABLEID	IQUANT	13	Cable ID
DCCALDATE	LABEL	7/31/2020	DC Calibration Date
ACCALDATE	LABEL	7/31/2020	AC Calibration Date
THERMOSELECT	IQUANT	1	Thermo Select
FRAMEWORKVERSION	QUANT	6.33	Framework Version
INSTRUMENTVERSION	LABEL	3.50	Instrument Version
COMPLIANCEVOLTAGE	IQUANT	0	Compliance Voltage
ZCURVE	TABLE
	Pt	Time	Freq	Zreal	Zimag	Zsig	Zmod	Zphz	Idc	Vdc	IERange
	#	s	Hz	ohm	ohm	V	ohm	°	A	V	#
	0	8	300046.9	7.909797	1.153784	1	7.993504	8.29907	1.589421E-005	-6.777605E-007	10
	1	11	238359.4	7.897639	0.9118214	1	7.950102	6.58592	7.021059E-006	0.0001999	10
	2	15	189328.1	7.903677	0.7083018	1	7.935352	5.120981	2.48634E-005	0.0003812	10
	3	17	150421.9	7.910766	0.5484019	1	7.929752	3.965599	3.321185E-005	0.000399	10
	4	20	119484.4	7.927981	0.3999062	1	7.938061	2.887687	-5.035722E-005	0.0005765	10
	5	22	94921.88	7.943289	0.3036799	1	7.949092	2.189408	9.570966E-006	0.0005901	10
	6	25	75421.88	7.954278	0.1891995	1	7.956528	1.362574	4.010864E-006	0.0005295	10
	7	27	59859.37	7.968791	0.084307	1	7.969237	0.6061466	1.986192E-005	0.0005719	10
	8	30	47578.12	7.98825	-0.0111469	1	7.988257	-0.0799514	-1.354946E-005	0.0005915	10
	9	32	37828.12	8.008384	-0.1033362	1	8.00905	-0.7392754	-2.461963E-005	0.0006641	10
	10	35	30046.88	8.0294	-0.1971651	1	8.03182	-1.406638	-2.357797E-005	0.000687	10
	11	37	23859.38	8.051285	-0.2998581	1	8.056867	-2.13291	-2.558636E-005	0.000641	10
	12	40	18984.38	8.074797	-0.414147	1	8.08541	-2.936062	-1.407875E-006	0.0006917	10
	13	42	15046.87	8.100516	-0.5493646	1	8.119123	-3.879771	3.387804E-006	0.0006048	10
	14	44	11953.13	8.129795	-0.7084895	1	8.160608	-4.980588	2.302296E-005	0.0006395	10
	15	47	9515.62	8.162948	-0.8969076	1	8.212074	-6.270247	-2.63066E-005	0.0006526	10
	16	49	7546.875	8.200027	-1.129016	1	8.277387	-7.839447	1.773434E-005	0.000627	10
	17	51	5928.309	8.246849	-1.429447	1	8.369817	-9.83352	1.863423E-005	0.0006383	10
	18	56	4733.456	8.308314	-1.773824	1	8.49556	-12.0517	-2.089536E-005	0.0006791	10
	19	58	3796.875	8.368087	-2.185989	1	8.648897	-14.64017	-2.13914E-005	0.0006668	10
	20	60	2987.132	8.44414	-2.738809	1	8.877194	-17.97018	-2.675896E-005	0.0006724	10
	21	62	2390.625	8.530436	-3.375991	1	9.174184	-21.5916	8.221006E-006	0.0006823	10
	22	65	1884.191	8.642194	-4.216555	1	9.61597	-26.0079	-2.697851E-005	0.0006772	10
	23	67	1516.544	8.77099	-5.163402	1	10.17797	-30.48493	2.050592E-005	0.0006159	10
	24	69	1193.986	8.94419	-6.452727	1	11.02888	-35.80832	-2.689495E-005	0.0006762	10
	25	72	946.5144	9.16166	-8.004193	1	12.16565	-41.14248	-2.379291E-005	0.0006999	10
	26	74	751.7689	9.429484	-9.92033	1	13.68679	-46.45311	1.419421E-005	0.0006488	10
	27	77	597.4265	9.77115	-12.27124	1	15.68626	-51.47093	-1.548106E-005	0.0006838	10
	28	79	477.4305	10.20701	-15.0883	1	18.21647	-55.92224	-2.937473E-006	0.0006591	10
	29	81	376.6741	10.79584	-18.76105	1	21.64549	-60.08219	-3.006962E-006	0.000648	10
	30	83	298.2954	11.54735	-23.22341	1	25.93585	-63.56211	-2.691027E-006	0.0006557	10
	31	86	237.7717	12.48943	-28.54566	1	31.15832	-66.36945	-2.941557E-006	0.0006574	10
	32	88	189.0121	13.70413	-35.11948	1	37.69855	-68.68355	-2.679695E-006	0.0006561	10
	33	91	150.2404	15.22329	-43.09525	1	45.70502	-70.54436	9.936934E-007	0.0001038	9
	34	93	119.1737	17.17087	-52.96107	1	55.67508	-72.03643	1.308449E-006	5.999608E-005	9
	35	95	95.0169	19.52915	-64.70882	1	67.59157	-73.20616	1.280801E-006	5.895934E-005	9
	36	98	75.60484	22.44117	-79.12611	1	82.24687	-74.16599	1.245834E-006	5.567316E-005	9
	37	101	54.50582	27.7318	-105.4302	1	109.0164	-75.26304	1.0406E-006	5.11481E-005	9
	38	103	45.95588	31.14346	-122.4603	1	126.3584	-75.73132	1.330674E-006	5.775932E-005	9
	39	105	37.20238	36.12432	-147.3871	1	151.7496	-76.22839	1.27232E-006	5.806241E-005	9
	40	108	30.04808	42.19109	-177.8158	1	182.7527	-76.65203	1.306234E-006	5.132071E-005	9
	41	110	23.91582	50.13396	-217.2928	1	223.0013	-77.00802	1.288177E-006	5.824388E-005	9
	42	113	18.60119	61.10147	-271.0922	1	277.8927	-77.29835	1.116864E-006	6.537692E-005	9
	43	115	15.02404	72.85486	-327.2023	1	335.2151	-77.4473	1.42108E-006	7.011618E-005	9
	44	117	12.01923	88.06762	-398.1428	1	407.7665	-77.52723	1.207022E-006	5.294172E-005	9
	45	120	9.450605	108.1519	-489.7088	1	501.5093	-77.54617	3.139575E-007	0.0006382	8
	46	122	7.512019	133.0078	-598.5707	1	613.1705	-77.47192	3.553453E-007	0.0006303	8
	47	125	5.978954	164.0541	-730.3781	1	748.5759	-77.3406	4.102582E-007	0.0006342	8
	48	128	4.734848	204.1868	-894.5322	1	917.5402	-77.14191	3.695442E-007	0.000609	8
	49	131	3.75601	255.2599	-1092.568	1	1121.99	-76.84969	4.650732E-007	0.0006541	8
	50	134	3.004808	316.5811	-1322.7	1	1360.058	-76.53977	4.29461E-007	0.0006394	8
	51	138	2.372217	401.2989	-1616.717	1	1665.777	-76.05987	4.074589E-007	0.0005929	8
	52	142	1.878005	503.9309	-1974.778	1	2038.062	-75.68458	4.732512E-007	0.0006346	8
	53	147	1.512097	620.1987	-2365.417	1	2445.372	-75.30808	4.297655E-007	0.0006596	8
	54	153	1.201923	783.0524	-2874.705	1	2979.446	-74.76265	4.668873E-007	0.0006541	8
	55	159	0.956633	983.22	-3474.601	1	3611.035	-74.19989	3.805537E-007	2.890162E-006	8
