EXPLAIN
TAG	EISPOT
TITLE	LABEL	Potentiostatic EIS	Test Identifier
DATE	LABEL	8/28/2020	Date
TIME	LABEL	10:57:16	Time
NOTES	NOTES	1	Notes...
	
PSTAT	PSTAT	REF3000-16137	Potentiostat
VDC	POTEN	0.00000E+000	T	DC Voltage (V)
FREQINIT	QUANT	3.00000E+005	Initial Freq. (Hz)
FREQFINAL	QUANT	1.00000E+000	Final Freq. (Hz)
PTSPERDEC	QUANT	1.00000E+001	Points/decade
VAC	QUANT	5.00000E+001	AC Voltage (mV rms)
AREA	QUANT	1.00000E+000	Sample Area (cm^2)
SPEED	SELECTOR	2	Optimize for:
ZGUESS	QUANT	1.00000E+003	Estimated Z (ohms)
EOC	QUANT	0	Open Circuit (V)
SEQUENCER	TOGGLE	TRUE	Run as Sequence
PSTATMODEL	IQUANT	5	Pstat Model
PSTATSECTION	LABEL	REF3000-16137	Pstat Section
PSTATSERIALNO	LABEL	16137	Pstat Serial Number
CTRLMODE	IQUANT	1	Control Mode
IESTAB	IQUANT	0	I/E Stability
CASPEED	IQUANT	1	Control Amp Speed
CONVENTION	IQUANT	1	Current Convention
ICHRANGE	IQUANT	2	Ich Range
ICHRANGEMODE	TOGGLE	F	Ich Auto Range
ICHOFFSETENABLE	TOGGLE	T	Ich Offset Enable
ICHOFFSET	QUANT	0	Ich Offset (V)
ICHFILTER	IQUANT	3	Ich Filter
VCHRANGE	IQUANT	2	Vch Range
VCHRANGEMODE	TOGGLE	F	Vch Auto Range
VCHOFFSETENABLE	TOGGLE	T	Vch Offset Enable
VCHOFFSET	QUANT	0	Vch Offset (V)
VCHFILTER	IQUANT	3	Vch Filter
ACHRANGE	IQUANT	2	Ach Range
ACHOFFSETENABLE	TOGGLE	F	Ach Offset Enable
ACHOFFSET	QUANT	0	Ach Offset (V)
ACHFILTER	IQUANT	3	Ach Filter
IERANGELOWERLIMIT	IQUANT	2	I/E Range Lower Limit
IERANGEMODE	TOGGLE	F	I/E AutoRange
IERANGE	IQUANT	11	I/E Range
POSFEEDENABLE	TOGGLE	F	Positive Feedback IR Comp
POSFEEDRESISTANCE	QUANT	0	Positive Feedback Resistance (ohm)
ACHSELECT	IQUANT	0	Ach Select
CABLEID	IQUANT	13	Cable ID
DCCALDATE	LABEL	7/31/2020	DC Calibration Date
ACCALDATE	LABEL	7/31/2020	AC Calibration Date
THERMOSELECT	IQUANT	1	Thermo Select
FRAMEWORKVERSION	QUANT	6.33	Framework Version
INSTRUMENTVERSION	LABEL	3.50	Instrument Version
COMPLIANCEVOLTAGE	IQUANT	0	Compliance Voltage
ZCURVE	TABLE
	Pt	Time	Freq	Zreal	Zimag	Zsig	Zmod	Zphz	Idc	Vdc	IERange
	#	s	Hz	ohm	ohm	V	ohm	°	A	V	#
	0	7	300046.9	76.45637	0.4212798	1	76.45753	0.3157005	4.535406E-005	-0.0007852	9
	1	10	238359.4	77.02167	0.2737094	1	77.02216	0.2036093	4.370682E-005	-0.0007171	9
	2	13	189328.1	77.45947	0.1236508	1	77.45957	0.0914628	-2.994673E-005	-0.0004029	9
	3	15	150421.9	77.81178	0.0298546	1	77.81179	0.0219831	-2.837727E-005	-0.0003142	9
	4	18	119484.4	78.16087	-0.0525112	1	78.16088	-0.0384933	1.922182E-005	-0.0004978	9
	5	20	94921.88	78.54008	0.1463054	1	78.54022	0.1067311	2.095545E-005	-0.0006802	9
	6	23	75421.88	78.8503	0.0050616	1	78.8503	0.003678	-1.744561E-005	0.0004212	9
	7	26	59859.37	79.16342	-0.1202973	1	79.16351	-0.087067	-1.357136E-005	0.0001425	9
	8	28	47578.12	79.49136	-0.2581211	1	79.49178	-0.1860479	-8.873575E-006	-1.961457E-005	9
	9	31	37828.12	79.83282	-0.3499612	1	79.83359	-0.2511645	2.283455E-005	-0.000487	9
	10	33	30046.88	80.19121	-0.4463904	1	80.19245	-0.318938	-1.681246E-005	0.00034	9
	11	36	23859.38	80.5006	-0.5347021	1	80.50238	-0.3805651	-1.054953E-005	0.0007463	9
	12	38	18984.38	80.82699	-0.6783594	1	80.82983	-0.480857	-1.614853E-005	0.0007215	9
	13	40	15046.87	81.13264	-0.8118861	1	81.1367	-0.5733339	5.674927E-006	-0.0004903	9
	14	43	11953.13	81.45474	-1.006442	1	81.46096	-0.7079014	-1.85131E-005	0.0007295	9
	15	45	9515.62	81.80982	-1.257372	1	81.81948	-0.880535	1.533875E-005	-0.0006109	9
	16	47	7546.875	82.18182	-1.532634	1	82.19611	-1.068402	2.247388E-005	-0.0005694	9
	17	50	5928.309	82.52396	-1.93544	1	82.54665	-1.343516	-5.114664E-006	0.0006348	9
	18	52	4733.456	82.92776	-2.378032	1	82.96185	-1.642561	2.259012E-005	-0.0004245	9
	19	54	3796.875	83.20822	-2.875054	1	83.25787	-1.978926	2.162996E-005	-0.0006015	9
	20	57	2987.132	83.64702	-3.643995	1	83.72636	-2.494453	-1.866958E-005	0.000716	9
	21	59	2390.625	84.07465	-4.418206	1	84.19067	-3.008183	-1.406964E-005	0.0001636	9
	22	61	1884.191	84.42833	-5.517415	1	84.60842	-3.738978	-1.390418E-005	0.0001771	9
	23	64	1516.544	84.98203	-6.729633	1	85.24807	-4.527741	-1.222791E-005	0.0007698	9
	24	66	1193.986	85.79163	-8.417853	1	86.20362	-5.603909	-2.648843E-006	-0.000242	9
	25	68	946.5144	86.37453	-10.40855	1	86.99941	-6.871288	-1.24493E-005	0.0007391	9
	26	71	751.7689	87.01346	-12.84383	1	87.95628	-8.396651	-5.221513E-006	0.0006448	9
	27	73	597.4265	87.67883	-15.88161	1	89.10558	-10.26689	-1.925758E-005	0.0007368	9
	28	75	477.4305	88.49569	-19.51932	1	90.6228	-12.43846	1.290414E-006	6.437398E-005	9
	29	78	376.6741	89.43105	-24.28845	1	92.6706	-15.19438	1.245455E-006	5.960846E-005	9
	30	80	298.2954	90.51239	-30.12518	1	95.394	-18.40896	1.203703E-006	5.96342E-005	9
	31	82	237.7717	91.77128	-37.13639	1	99.0004	-22.03133	1.253906E-006	5.580098E-005	9
	32	85	189.0121	93.28593	-45.89048	1	103.9625	-26.19412	1.244781E-006	5.732938E-005	9
	33	87	150.2404	95.1084	-56.6958	1	110.725	-30.79992	1.269325E-006	5.445242E-005	9
	34	90	119.1737	97.3456	-70.17429	1	120.0025	-35.78699	1.294192E-006	5.449777E-005	9
	35	92	95.0169	100.0517	-86.41535	1	132.2042	-40.8174	1.244477E-006	5.536534E-005	9
	36	94	75.60484	103.4517	-106.5766	1	148.5289	-45.85242	1.28396E-006	5.327529E-005	9
	37	97	54.50582	109.7005	-143.7433	1	180.8212	-52.65024	1.289895E-006	5.153897E-005	9
	38	100	45.95588	114.0659	-167.9573	1	203.0288	-55.81814	1.306144E-006	6.272837E-005	9
	39	102	37.20238	120.5232	-203.5079	1	236.5192	-59.36477	1.290287E-006	6.051328E-005	9
	40	104	30.04808	128.6926	-246.9761	1	278.4941	-62.4772	1.290726E-006	5.451085E-005	9
	41	107	23.91582	139.6075	-303.2795	1	333.8693	-65.28214	1.334647E-006	5.313462E-005	9
	42	109	18.60119	154.9334	-379.6733	1	410.0685	-67.80109	1.437107E-006	5.5767E-005	9
	43	111	15.02404	170.5191	-457.1213	1	487.89	-69.54307	1.674172E-007	0.0006371	8
	44	114	12.01923	191.6089	-556.5838	1	588.6421	-71.00352	2.352631E-007	0.0006355	8
	45	116	9.450605	219.6557	-687.3833	1	721.6262	-72.27854	2.168865E-007	0.0006331	8
	46	119	7.512019	252.306	-839.7979	1	876.8802	-73.27782	2.084956E-007	0.0006182	8
	47	121	5.978954	291.5552	-1024.766	1	1065.435	-74.11848	2.605143E-007	0.0006374	8
	48	124	4.734848	339.7682	-1255.912	1	1301.06	-74.86185	2.107777E-007	0.0006082	8
	49	128	3.75601	398.4918	-1537.23	1	1588.04	-75.46726	2.924856E-007	0.0006524	8
	50	131	3.004808	467.1123	-1867.006	1	1924.553	-75.95334	2.437007E-007	0.0006375	8
	51	135	2.372217	559.6523	-2294.675	1	2361.936	-76.29362	2.312994E-007	0.0005848	8
	52	139	1.878005	667.4055	-2822.398	1	2900.235	-76.69579	2.780538E-007	0.0006367	8
	53	144	1.512097	788.5477	-3406.313	1	3496.395	-76.96586	2.466661E-007	0.0006549	8
	54	149	1.201923	957.007	-4178.876	1	4287.058	-77.10109	2.720343E-007	0.0006556	8
	55	155	0.956633	1164.554	-5116.132	1	5246.999	-77.17661	3.500481E-009	-2.725426E-005	7
