EXPLAIN
TAG	EISPOT
TITLE	LABEL	Potentiostatic EIS	Test Identifier
DATE	LABEL	8/28/2020	Date
TIME	LABEL	11:11:35	Time
NOTES	NOTES	1	Notes...
	
PSTAT	PSTAT	REF3000-16137	Potentiostat
VDC	POTEN	0.00000E+000	T	DC Voltage (V)
FREQINIT	QUANT	3.00000E+005	Initial Freq. (Hz)
FREQFINAL	QUANT	1.00000E+000	Final Freq. (Hz)
PTSPERDEC	QUANT	1.00000E+001	Points/decade
VAC	QUANT	5.00000E+001	AC Voltage (mV rms)
AREA	QUANT	1.00000E+000	Sample Area (cm^2)
SPEED	SELECTOR	2	Optimize for:
ZGUESS	QUANT	1.00000E+003	Estimated Z (ohms)
EOC	QUANT	0	Open Circuit (V)
SEQUENCER	TOGGLE	TRUE	Run as Sequence
PSTATMODEL	IQUANT	5	Pstat Model
PSTATSECTION	LABEL	REF3000-16137	Pstat Section
PSTATSERIALNO	LABEL	16137	Pstat Serial Number
CTRLMODE	IQUANT	1	Control Mode
IESTAB	IQUANT	0	I/E Stability
CASPEED	IQUANT	1	Control Amp Speed
CONVENTION	IQUANT	1	Current Convention
ICHRANGE	IQUANT	2	Ich Range
ICHRANGEMODE	TOGGLE	F	Ich Auto Range
ICHOFFSETENABLE	TOGGLE	T	Ich Offset Enable
ICHOFFSET	QUANT	0	Ich Offset (V)
ICHFILTER	IQUANT	3	Ich Filter
VCHRANGE	IQUANT	2	Vch Range
VCHRANGEMODE	TOGGLE	F	Vch Auto Range
VCHOFFSETENABLE	TOGGLE	T	Vch Offset Enable
VCHOFFSET	QUANT	0	Vch Offset (V)
VCHFILTER	IQUANT	3	Vch Filter
ACHRANGE	IQUANT	2	Ach Range
ACHOFFSETENABLE	TOGGLE	F	Ach Offset Enable
ACHOFFSET	QUANT	0	Ach Offset (V)
ACHFILTER	IQUANT	3	Ach Filter
IERANGELOWERLIMIT	IQUANT	2	I/E Range Lower Limit
IERANGEMODE	TOGGLE	F	I/E AutoRange
IERANGE	IQUANT	11	I/E Range
POSFEEDENABLE	TOGGLE	F	Positive Feedback IR Comp
POSFEEDRESISTANCE	QUANT	0	Positive Feedback Resistance (ohm)
ACHSELECT	IQUANT	0	Ach Select
CABLEID	IQUANT	13	Cable ID
DCCALDATE	LABEL	7/31/2020	DC Calibration Date
ACCALDATE	LABEL	7/31/2020	AC Calibration Date
THERMOSELECT	IQUANT	1	Thermo Select
FRAMEWORKVERSION	QUANT	6.33	Framework Version
INSTRUMENTVERSION	LABEL	3.50	Instrument Version
COMPLIANCEVOLTAGE	IQUANT	0	Compliance Voltage
ZCURVE	TABLE
	Pt	Time	Freq	Zreal	Zimag	Zsig	Zmod	Zphz	Idc	Vdc	IERange
	#	s	Hz	ohm	ohm	V	ohm	°	A	V	#
	0	16	300046.9	387.5379	-38.56857	1	389.4524	-5.683478	-7.096816E-006	-0.0018914	9
	1	20	238359.4	394.4151	-32.66742	1	395.7656	-4.734715	-8.479146E-005	0.0036673	9
	2	28	189328.1	403.2623	-27.76848	1	404.2173	-3.939147	7.618855E-005	-0.0015227	9
	3	37	150421.9	410.0238	-23.75469	1	410.7114	-3.315718	4.974987E-005	-3.376709E-005	9
	4	41	119484.4	414.8442	-20.35261	1	415.3431	-2.808728	-1.134037E-005	0.0016139	9
	5	46	94921.88	418.8068	-4.141676	1	418.8273	-0.5665926	-1.387345E-005	0.0055346	8
	6	48	75421.88	420.666	-3.68354	1	420.6822	-0.5016946	-2.316587E-006	-0.0019957	8
	7	51	59859.37	423.1411	-3.66506	1	423.157	-0.4962581	7.471908E-006	-0.0045545	8
	8	54	47578.12	426.6137	-3.661375	1	426.6295	-0.4917239	-2.904696E-006	-0.0017848	8
	9	57	37828.12	429.0575	-2.831403	1	429.0668	-0.3780964	-4.555271E-006	0.0053349	8
	10	60	30046.88	431.4953	-2.872415	1	431.5049	-0.3814059	-1.100244E-005	0.0064257	8
	11	62	23859.38	434.1053	-2.902938	1	434.115	-0.3831412	-7.400879E-006	-0.0001831	8
	12	64	18984.38	436.5399	-2.765148	1	436.5486	-0.3629203	1.528333E-005	-0.004216	8
	13	67	15046.87	437.6076	-3.65998	1	437.6229	-0.4791885	-2.284774E-006	-0.0016211	8
	14	69	11953.13	440.1746	-3.553175	1	440.1889	-0.4624927	-1.823179E-007	0.0040608	8
	15	71	9515.62	443.8965	-3.069172	1	443.9071	-0.396146	-1.421919E-005	0.0048765	8
	16	74	7546.875	446.7043	-1.139309	1	446.7058	-0.1461312	-9.357096E-006	0.0062348	8
	17	76	5928.309	449.6246	-2.065426	1	449.6294	-0.2631959	2.892764E-006	-0.0035853	8
	18	78	4733.456	452.9226	-2.941786	1	452.9322	-0.3721377	1.412252E-005	-0.0049535	8
	19	81	3796.875	454.5155	-4.121611	1	454.5342	-0.519552	6.515112E-006	0.0020181	8
	20	83	2987.132	456.6448	-5.550137	1	456.6785	-0.6963482	-1.436984E-005	0.0059111	8
	21	85	2390.625	458.6393	-5.243811	1	458.6693	-0.6550575	6.909035E-006	-0.0044732	8
	22	88	1884.191	462.2525	-8.055428	1	462.3227	-0.998362	-2.267096E-006	-0.0021109	8
	23	90	1516.544	463.6552	-9.062628	1	463.7438	-1.119764	1.566587E-005	-0.0043769	8
	24	92	1193.986	467.4755	-10.49571	1	467.5933	-1.286183	-7.370304E-006	-0.0001803	8
	25	95	946.5144	469.5592	-11.74853	1	469.7061	-1.433261	1.156404E-005	-0.000341	8
	26	97	751.7689	473.3037	-16.79797	1	473.6017	-2.032625	-1.483066E-005	0.0049852	8
	27	99	597.4265	476.0178	-19.02497	1	476.3978	-2.288719	-5.068449E-006	0.0056329	8
	28	102	477.4305	479.2899	-23.57936	1	479.8695	-2.816478	-5.796832E-008	0.0006207	8
	29	104	376.6741	482.6658	-29.241	1	483.5507	-3.466872	-5.450524E-008	0.0006213	8
	30	106	298.2954	486.2094	-36.17472	1	487.5533	-4.255053	-6.751628E-008	0.0006244	8
	31	109	237.7717	490.0315	-44.51811	1	492.0495	-5.190926	-5.466871E-008	0.0006269	8
	32	111	189.0121	494.1508	-54.93285	1	497.1948	-6.343307	-6.042611E-008	0.0006287	8
	33	113	150.2404	498.6338	-67.81498	1	503.2241	-7.744799	-8.691766E-008	0.0006296	8
	34	116	119.1737	503.5215	-83.91498	1	510.4661	-9.461738	-8.861726E-008	0.0006527	8
	35	118	95.0169	508.9348	-103.3194	1	519.3165	-11.47572	-7.803173E-008	0.000625	8
	36	121	75.60484	515.1642	-127.471	1	530.7006	-13.89798	-5.338484E-008	0.0006278	8
	37	123	54.50582	524.2499	-172.155	1	551.7928	-18.17933	-6.797382E-008	0.0006233	8
	38	126	45.95588	531.1829	-201.4276	1	568.0918	-20.76701	-3.832395E-008	0.0006225	8
	39	128	37.20238	539.9713	-244.557	1	592.7708	-24.36612	-5.366824E-008	0.0006362	8
	40	131	30.04808	550.4647	-297.526	1	625.726	-28.39121	-9.206655E-008	0.0006297	8
	41	133	23.91582	563.522	-366.7312	1	672.3458	-33.05544	-1.462995E-007	0.0006267	8
	42	135	18.60119	580.6698	-461.6798	1	741.8394	-38.48756	-8.53744E-008	0.0006286	8
	43	138	15.02404	599.0402	-561.139	1	820.8082	-43.12891	-6.731566E-008	0.0006611	8
	44	140	12.01923	622.5759	-687.88	1	927.7821	-47.85287	-1.588185E-007	0.0006212	8
	45	142	9.450605	653.9747	-856.0758	1	1077.288	-52.62301	-5.509181E-008	0.0006215	8
	46	145	7.512019	692.0135	-1053.991	1	1260.865	-56.71251	-7.709768E-009	0.0006295	8
	47	148	5.978954	739.9636	-1295.387	1	1491.836	-60.26371	-6.428642E-008	0.0006357	8
	48	151	4.734848	802.3302	-1599.071	1	1789.067	-63.3549	-1.021165E-007	0.0006334	8
	49	154	3.75601	880.204	-1966.252	1	2154.276	-65.88405	-3.874835E-008	0.000627	8
	50	157	3.004808	973.106	-2395.974	1	2586.044	-67.89586	-7.933252E-008	0.0006528	8
	51	161	2.372217	1094.748	-2949.946	1	3146.53	-69.63972	-9.68826E-008	0.0006515	8
	52	165	1.878005	1251.066	-3624.984	1	3834.798	-70.95926	-8.073216E-008	0.0006063	8
	53	170	1.512097	1426.875	-4391.255	1	4617.26	-71.99918	-2.003328E-008	0.0007035	7
	54	176	1.201923	1648.812	-5369.008	1	5616.478	-72.92838	-1.274355E-008	0.0005813	7
	55	182	0.956633	1910.27	-6551.823	1	6824.625	-73.74526	-3.806118E-008	-3.800515E-005	7
