EXPLAIN
TAG	EISPOT
TITLE	LABEL	Potentiostatic EIS	Test Identifier
DATE	LABEL	10/5/2021	Date
TIME	LABEL	18:34:19	Time
NOTES	NOTES	1	Notes...
	
PSTAT	PSTAT	REF3000-16137	Potentiostat
VDC	POTEN	0.00000E+000	T	DC Voltage (V)
FREQINIT	QUANT	3.00000E+005	Initial Freq. (Hz)
FREQFINAL	QUANT	1.00000E+000	Final Freq. (Hz)
PTSPERDEC	QUANT	1.00000E+001	Points/decade
VAC	QUANT	5.00000E+001	AC Voltage (mV rms)
AREA	QUANT	1.00000E+000	Sample Area (cm^2)
SPEED	SELECTOR	2	Optimize for:
ZGUESS	QUANT	1.00000E+003	Estimated Z (ohms)
EOC	QUANT	0	Open Circuit (V)
SEQUENCER	TOGGLE	TRUE	Run as Sequence
PSTATMODEL	IQUANT	5	Pstat Model
PSTATSECTION	LABEL	REF3000-16137	Pstat Section
PSTATSERIALNO	LABEL	16137	Pstat Serial Number
CTRLMODE	IQUANT	1	Control Mode
IESTAB	IQUANT	0	I/E Stability
CASPEED	IQUANT	1	Control Amp Speed
CONVENTION	IQUANT	1	Current Convention
ICHRANGE	IQUANT	2	Ich Range
ICHRANGEMODE	TOGGLE	F	Ich Auto Range
ICHOFFSETENABLE	TOGGLE	T	Ich Offset Enable
ICHOFFSET	QUANT	0	Ich Offset (V)
ICHFILTER	IQUANT	3	Ich Filter
VCHRANGE	IQUANT	2	Vch Range
VCHRANGEMODE	TOGGLE	F	Vch Auto Range
VCHOFFSETENABLE	TOGGLE	T	Vch Offset Enable
VCHOFFSET	QUANT	0	Vch Offset (V)
VCHFILTER	IQUANT	3	Vch Filter
ACHRANGE	IQUANT	2	Ach Range
ACHOFFSETENABLE	TOGGLE	F	Ach Offset Enable
ACHOFFSET	QUANT	0	Ach Offset (V)
ACHFILTER	IQUANT	3	Ach Filter
IERANGELOWERLIMIT	IQUANT	2	I/E Range Lower Limit
IERANGEMODE	TOGGLE	F	I/E AutoRange
IERANGE	IQUANT	11	I/E Range
POSFEEDENABLE	TOGGLE	F	Positive Feedback IR Comp
POSFEEDRESISTANCE	QUANT	0	Positive Feedback Resistance (ohm)
ACHSELECT	IQUANT	0	Ach Select
CABLEID	IQUANT	13	Cable ID
DCCALDATE	LABEL	9/10/2021	DC Calibration Date
ACCALDATE	LABEL	9/10/2021	AC Calibration Date
THERMOSELECT	IQUANT	1	Thermo Select
FRAMEWORKVERSION	QUANT	6.33	Framework Version
INSTRUMENTVERSION	LABEL	3.50	Instrument Version
COMPLIANCEVOLTAGE	IQUANT	0	Compliance Voltage
ZCURVE	TABLE
	Pt	Time	Freq	Zreal	Zimag	Zsig	Zmod	Zphz	Idc	Vdc	IERange
	#	s	Hz	ohm	ohm	V	ohm	°	A	V	#
	0	7	300046.9	24.37127	1.357577	1	24.40906	3.188308	-0.0001705	-0.0010353	11
	1	12	238359.4	24.58014	1.302225	1	24.61461	3.032623	1.638499E-005	-0.0004363	10
	2	16	189328.1	24.72745	0.790319	1	24.74007	1.830619	-3.683141E-005	0.0002641	11
	3	19	150421.9	24.92991	0.7444658	1	24.94102	1.710479	6.936859E-005	-0.0002957	10
	4	23	119484.4	25.06598	0.4081837	1	25.0693	0.9329432	-9.293707E-005	0.0001237	11
	5	27	94921.88	25.22206	0.3388554	1	25.22433	0.7697158	-1.103361E-005	-0.0001584	10
	6	30	75421.88	25.34117	0.1876465	1	25.34187	0.4242565	-1.39663E-005	-8.891759E-005	10
	7	32	59859.37	25.46816	0.0497043	1	25.4682	0.1118197	-2.445947E-006	-0.0000979	10
	8	35	47578.12	25.59642	-0.0822318	1	25.59655	-0.1840694	-1.857734E-005	-7.569927E-005	10
	9	37	37828.12	25.72266	-0.2174896	1	25.72358	-0.4844343	2.211405E-005	-0.000176	10
	10	40	30046.88	25.85201	-0.3547462	1	25.85445	-0.7861741	-2.484164E-006	-0.000169	10
	11	42	23859.38	25.98651	-0.5070654	1	25.99146	-1.11785	2.742873E-005	-0.0001351	10
	12	44	18984.38	26.12197	-0.6782582	1	26.13077	-1.487354	-2.862054E-005	-0.0001349	10
	13	47	15046.87	26.25605	-0.8835502	1	26.27091	-1.92735	-2.66357E-005	-9.080442E-005	10
	14	49	11953.13	26.4057	-1.116519	1	26.42929	-2.421211	2.66202E-005	-0.0001763	10
	15	51	9515.62	26.56218	-1.406738	1	26.59941	-3.031563	2.822633E-005	-0.0001334	10
	16	54	7546.875	26.73183	-1.756671	1	26.78949	-3.759763	-1.81535E-005	-0.0001506	10
	17	56	5928.309	26.92267	-2.190425	1	27.01163	-4.651332	-1.084965E-005	-0.0001453	10
	18	58	4733.456	27.13924	-2.687234	1	27.27196	-5.654798	-2.750079E-005	-0.0001109	10
	19	61	3796.875	27.37769	-3.286736	1	27.57427	-6.845689	-2.719433E-005	-0.0001278	10
	20	63	2987.132	27.66473	-4.07225	1	27.96284	-8.373806	-1.375643E-005	-0.0001006	10
	21	65	2390.625	27.99678	-4.954269	1	28.43175	-10.03509	-2.746087E-005	-7.371104E-005	10
	22	68	1884.191	28.41387	-6.093643	1	29.05995	-12.10431	-3.330412E-006	-0.0001221	10
	23	70	1516.544	28.87016	-7.339711	1	29.78855	-14.26421	-1.766971E-005	-0.0001435	10
	24	72	1193.986	29.47012	-8.986348	1	30.80977	-16.95808	1.749812E-005	-0.000136	10
	25	75	946.5144	30.16945	-10.88829	1	32.07414	-19.84475	-1.957552E-006	-8.305426E-005	10
	26	77	751.7689	30.97544	-13.14754	1	33.6502	-22.99882	-1.405708E-005	-0.0001057	10
	27	79	597.4265	31.9032	-15.83331	1	35.61612	-26.39484	2.178934E-005	-0.000145	10
	28	82	477.4305	32.92562	-18.94975	1	37.98933	-29.9218	7.17968E-007	-0.000133	9
	29	84	376.6741	34.15493	-22.92823	1	41.13712	-33.87349	7.294313E-007	-0.0001391	9
	30	86	298.2954	35.51689	-27.69356	1	45.03757	-37.94459	7.799464E-007	-0.000139	9
	31	89	237.7717	37.00137	-33.33645	1	49.80382	-42.01732	1.102897E-006	-0.0001767	9
	32	91	189.0121	38.66986	-40.31831	1	55.86523	-46.19557	8.164805E-007	-0.0001357	9
	33	94	150.2404	40.54099	-48.90585	1	63.52444	-50.34264	6.560144E-007	-0.0001385	9
	34	96	119.1737	42.68053	-59.61963	1	73.32207	-54.40186	7.80347E-007	-0.0001336	9
	35	98	95.0169	45.10262	-72.569	1	85.44299	-58.13849	7.240133E-007	-0.0001366	9
	36	101	75.60484	47.98991	-88.72048	1	100.868	-61.59055	7.507703E-007	-0.000135	9
	37	104	54.50582	53.14244	-118.6982	1	130.0514	-65.88143	7.48691E-007	-0.0001434	9
	38	106	45.95588	56.60152	-138.3626	1	149.4923	-67.75146	8.060682E-007	-0.0001343	9
	39	108	37.20238	61.71527	-167.347	1	178.3642	-69.75671	7.011351E-007	-0.0001341	9
	40	111	30.04808	68.1557	-202.9511	1	214.0896	-71.43675	7.759657E-007	-0.0001389	9
	41	113	23.91582	76.90265	-249.3812	1	260.9694	-72.8616	8.373928E-007	-0.0001385	9
	42	116	18.60119	89.42681	-312.7998	1	325.332	-74.04522	7.64896E-007	-0.0001387	9
	43	118	15.02404	103.2549	-378.9606	1	392.7756	-74.75867	8.249559E-007	-0.000139	9
	44	120	12.01923	121.4931	-461.0402	1	476.7794	-75.23705	5.833223E-007	-0.0001156	8
	45	123	9.450605	147.9117	-571.2166	1	590.0561	-75.4826	3.535836E-007	-0.0001178	8
	46	125	7.512019	180.9408	-699.4728	1	722.4969	-75.49656	4.414993E-007	-0.0001423	8
	47	128	5.978954	224.5476	-854.1066	1	883.1307	-75.27007	3.854996E-007	-0.0001205	8
	48	131	4.734848	283.8125	-1045.726	1	1083.556	-74.81557	4.560816E-007	-0.0001298	8
	49	134	3.75601	360.4458	-1273.361	1	1323.393	-74.19496	4.743052E-007	-0.0001139	8
	50	138	3.004808	455.4569	-1533.831	1	1600.024	-73.46169	5.151317E-007	-0.0001451	8
	51	142	2.372217	585.2794	-1858.755	1	1948.723	-72.52198	4.73865E-007	-0.000116	8
	52	146	1.878005	753.1428	-2245.03	1	2367.991	-71.45488	4.397164E-007	-0.000119	8
	53	150	1.512097	941.7324	-2662.896	1	2824.513	-70.52387	4.791694E-007	-0.0002187	8
	54	156	1.201923	1197.88	-3181.631	1	3399.66	-69.36871	4.427172E-007	-0.0001196	8
	55	162	0.956633	1509.437	-3784.581	1	4074.488	-68.25597	4.303207E-007	-0.000686	8
