EXPLAIN
TAG	EISPOT
TITLE	LABEL	Potentiostatic EIS	Test Identifier
DATE	LABEL	10/5/2021	Date
TIME	LABEL	19:15:40	Time
NOTES	NOTES	1	Notes...
	
PSTAT	PSTAT	REF3000-16137	Potentiostat
VDC	POTEN	0.00000E+000	T	DC Voltage (V)
FREQINIT	QUANT	3.00000E+005	Initial Freq. (Hz)
FREQFINAL	QUANT	1.00000E+000	Final Freq. (Hz)
PTSPERDEC	QUANT	1.00000E+001	Points/decade
VAC	QUANT	5.00000E+001	AC Voltage (mV rms)
AREA	QUANT	1.00000E+000	Sample Area (cm^2)
SPEED	SELECTOR	2	Optimize for:
ZGUESS	QUANT	1.00000E+003	Estimated Z (ohms)
EOC	QUANT	0	Open Circuit (V)
SEQUENCER	TOGGLE	TRUE	Run as Sequence
PSTATMODEL	IQUANT	5	Pstat Model
PSTATSECTION	LABEL	REF3000-16137	Pstat Section
PSTATSERIALNO	LABEL	16137	Pstat Serial Number
CTRLMODE	IQUANT	1	Control Mode
IESTAB	IQUANT	0	I/E Stability
CASPEED	IQUANT	1	Control Amp Speed
CONVENTION	IQUANT	1	Current Convention
ICHRANGE	IQUANT	2	Ich Range
ICHRANGEMODE	TOGGLE	F	Ich Auto Range
ICHOFFSETENABLE	TOGGLE	T	Ich Offset Enable
ICHOFFSET	QUANT	0	Ich Offset (V)
ICHFILTER	IQUANT	3	Ich Filter
VCHRANGE	IQUANT	2	Vch Range
VCHRANGEMODE	TOGGLE	F	Vch Auto Range
VCHOFFSETENABLE	TOGGLE	T	Vch Offset Enable
VCHOFFSET	QUANT	0	Vch Offset (V)
VCHFILTER	IQUANT	3	Vch Filter
ACHRANGE	IQUANT	2	Ach Range
ACHOFFSETENABLE	TOGGLE	F	Ach Offset Enable
ACHOFFSET	QUANT	0	Ach Offset (V)
ACHFILTER	IQUANT	3	Ach Filter
IERANGELOWERLIMIT	IQUANT	2	I/E Range Lower Limit
IERANGEMODE	TOGGLE	F	I/E AutoRange
IERANGE	IQUANT	11	I/E Range
POSFEEDENABLE	TOGGLE	F	Positive Feedback IR Comp
POSFEEDRESISTANCE	QUANT	0	Positive Feedback Resistance (ohm)
ACHSELECT	IQUANT	0	Ach Select
CABLEID	IQUANT	13	Cable ID
DCCALDATE	LABEL	9/10/2021	DC Calibration Date
ACCALDATE	LABEL	9/10/2021	AC Calibration Date
THERMOSELECT	IQUANT	1	Thermo Select
FRAMEWORKVERSION	QUANT	6.33	Framework Version
INSTRUMENTVERSION	LABEL	3.50	Instrument Version
COMPLIANCEVOLTAGE	IQUANT	0	Compliance Voltage
ZCURVE	TABLE
	Pt	Time	Freq	Zreal	Zimag	Zsig	Zmod	Zphz	Idc	Vdc	IERange
	#	s	Hz	ohm	ohm	V	ohm	°	A	V	#
	0	27	300046.9	336.0669	-3585.216	1	3600.933	-84.64492	-0.0000987	0.0020335	9
	1	43	238359.4	540.5167	-4453.027	1	4485.711	-83.07919	1.837685E-005	-0.0023311	9
	2	61	189328.1	938.2388	-5681.022	1	5757.978	-80.62207	-4.712606E-006	-0.001974	9
	3	70	150421.9	1889.235	-6825.825	1	7082.45	-74.52911	1.515071E-005	-0.0021974	9
	4	79	119484.4	1421.379	-8382.48	1	8502.135	-80.37615	8.683523E-006	-0.0189515	8
	5	86	94921.88	2021.585	-10310.7	1	10507.01	-78.90692	-1.745003E-005	0.0003759	8
	6	94	75421.88	2627.816	-12784.97	1	13052.24	-78.38522	2.007563E-005	-0.0002178	9
	7	103	59859.37	3678.043	-15710.32	1	16135.12	-76.82344	2.571104E-005	-0.0101223	8
	8	111	47578.12	7282.058	-19709.13	1	21011.38	-69.72192	5.061698E-006	-0.0031635	7
	9	119	37828.12	9195.084	-24039.51	1	25738.06	-69.06821	-7.239041E-006	0.01894	7
	10	125	30046.88	8854.201	-29346.31	1	30652.94	-73.21069	1.848544E-005	-0.0009814	8
	11	134	23859.38	11811.63	-35533.7	1	37445.41	-71.61286	6.301359E-006	-0.0083329	8
	12	141	18984.38	18829.37	-41866.29	1	45905.68	-65.78416	6.430998E-006	-0.0273712	7
	13	147	15046.87	25158.57	-50115.84	1	56076.3	-63.34297	-5.041974E-006	0.0252501	7
	14	152	11953.13	31943.53	-59670.64	1	67682.89	-61.83848	-5.553912E-006	0.004372	7
	15	157	9515.62	41828.88	-67595.73	1	79491.13	-58.25039	-1.345573E-006	0.0197704	7
	16	163	7546.875	54874.49	-77813.09	1	95216	-54.80816	7.231831E-006	-0.0197033	7
	17	169	5928.309	72316.61	-86890.33	1	113047	-50.23025	5.114894E-006	-0.0032076	7
	18	176	4733.456	82725.32	-80814.88	1	115648.3	-44.33071	9.866118E-006	0.0028242	8
	19	183	3796.875	114259.3	-104986	1	155168.5	-42.57801	6.152229E-007	-0.0188683	7
	20	190	2987.132	145087.6	-96826	1	174429.6	-33.71765	-5.128131E-007	0.0018996	6
	21	194	2390.625	165255.8	-98703	1	192488.4	-30.84877	2.806006E-008	0.0149423	6
	22	198	1884.191	187688.5	-94408.98	1	210095.3	-26.70281	-1.749613E-007	0.0202444	6
	23	202	1516.544	209980.3	-90781.6	1	228764.1	-23.38047	4.473083E-007	-0.0004448	6
	24	207	1193.986	225252.5	-85076.34	1	240783.5	-20.69121	5.410126E-007	-0.0275149	6
	25	211	946.5144	241076.8	-86955.27	1	256279.6	-19.83414	-1.758623E-007	0.0202627	6
	26	215	751.7689	164303.1	-146659.1	1	220237.1	-41.75251	-2.524755E-005	0.0050243	8
	27	221	597.4265	217041.8	2568.034	1	217057	0.677891	2.576034E-005	-0.0101612	8
	28	226	477.4305	296350.8	-65293.41	1	303458.5	-12.42516	-6.283369E-007	-0.0001253	8
	29	232	376.6741	310523.3	-52526.99	1	314934.6	-9.60106	-1.366573E-008	-0.0000995	6
	30	235	298.2954	319195.4	-43460.95	1	322140.6	-7.753588	-1.330794E-008	-0.0001366	6
	31	237	237.7717	328276.6	-38723.44	1	330552.6	-6.72751	-1.363373E-008	-0.0001032	6
	32	240	189.0121	335980.9	-32909.93	1	337588.9	-5.594377	-1.332032E-008	-0.0000995	6
	33	242	150.2404	343825.9	-27906.87	1	344956.6	-4.640279	-1.323232E-008	-0.0001801	6
	34	245	119.1737	352077.1	-18807.92	1	352579.1	-3.057828	-1.341671E-008	-0.0001767	6
	35	247	95.0169	358839.6	-20017.25	1	359397.5	-3.192838	-1.317237E-008	-0.0001824	6
	36	250	75.60484	365312.6	-16202.4	1	365671.7	-2.539526	-1.298985E-008	-0.0001947	6
	37	253	54.50582	370542.3	-8992.978	1	370651.5	-1.390283	-1.319991E-008	-0.0001129	6
	38	255	45.95588	379682.7	-12780.14	1	379897.7	-1.927851	-1.36609E-008	-0.0001013	6
	39	258	37.20238	385544.3	-6195.538	1	385594.1	-0.9206404	-2.032049E-009	-9.407374E-005	5
	40	260	30.04808	393535.7	-5681.9	1	393576.7	-0.8271837	-2.057589E-009	-0.0001097	5
	41	263	23.91582	400743.9	-5645.484	1	400783.6	-0.8071016	-1.55692E-009	-0.0001113	5
	42	266	18.60119	409065.8	-6705.451	1	409120.8	-0.9391146	-1.909683E-009	-0.0001038	5
	43	268	15.02404	414576.4	-4517.547	1	414601	-0.6243148	-1.264325E-009	-0.0001077	5
	44	270	12.01923	421654.7	-4608.032	1	421679.9	-0.626129	-1.744496E-009	-2.33713E-005	5
	45	273	9.450605	429321.3	-4839.236	1	429348.5	-0.6458009	-2.043631E-009	-8.589016E-005	5
	46	276	7.512019	437357.1	-4996.332	1	437385.6	-0.6545138	-2.386339E-009	-6.11897E-005	5
	47	279	5.978954	448024.2	-5615.372	1	448059.4	-0.7180868	-2.123529E-009	-2.619312E-005	5
	48	283	4.734848	460224.2	-6161.293	1	460265.4	-0.7670067	-2.098899E-009	-4.801961E-005	5
	49	287	3.75601	474754.4	-6983.168	1	474805.8	-0.8427035	-1.975206E-009	-1.892901E-005	5
	50	292	3.004808	494433.1	-8088.323	1	494499.3	-0.9372054	-2.599259E-009	-6.497758E-005	5
	51	298	2.372217	512656.7	-9289.829	1	512740.8	-1.038141	-1.581604E-009	-5.157314E-006	5
	52	303	1.878005	528809.9	-11177.66	1	528928	-1.210903	-1.995131E-009	-8.89828E-005	5
	53	307	1.512097	547578	-13383.35	1	547741.5	-1.400087	-2.466968E-009	3.967449E-005	5
	54	313	1.201923	570547.6	-16311.56	1	570780.8	-1.637601	-1.418868E-009	-8.400803E-005	5
	55	319	0.956633	596978.4	-19820.15	1	597307.4	-1.901566	-4.620715E-009	-0.0006049	5
