EXPLAIN
TAG	EISPOT
TITLE	LABEL	Potentiostatic EIS	Test Identifier
DATE	LABEL	10/5/2021	Date
TIME	LABEL	18:57:18	Time
NOTES	NOTES	1	Notes...
	
PSTAT	PSTAT	REF3000-16137	Potentiostat
VDC	POTEN	0.00000E+000	T	DC Voltage (V)
FREQINIT	QUANT	3.00000E+005	Initial Freq. (Hz)
FREQFINAL	QUANT	1.00000E+000	Final Freq. (Hz)
PTSPERDEC	QUANT	1.00000E+001	Points/decade
VAC	QUANT	5.00000E+001	AC Voltage (mV rms)
AREA	QUANT	1.00000E+000	Sample Area (cm^2)
SPEED	SELECTOR	2	Optimize for:
ZGUESS	QUANT	1.00000E+003	Estimated Z (ohms)
EOC	QUANT	0	Open Circuit (V)
SEQUENCER	TOGGLE	TRUE	Run as Sequence
PSTATMODEL	IQUANT	5	Pstat Model
PSTATSECTION	LABEL	REF3000-16137	Pstat Section
PSTATSERIALNO	LABEL	16137	Pstat Serial Number
CTRLMODE	IQUANT	1	Control Mode
IESTAB	IQUANT	0	I/E Stability
CASPEED	IQUANT	1	Control Amp Speed
CONVENTION	IQUANT	1	Current Convention
ICHRANGE	IQUANT	2	Ich Range
ICHRANGEMODE	TOGGLE	F	Ich Auto Range
ICHOFFSETENABLE	TOGGLE	T	Ich Offset Enable
ICHOFFSET	QUANT	0	Ich Offset (V)
ICHFILTER	IQUANT	3	Ich Filter
VCHRANGE	IQUANT	2	Vch Range
VCHRANGEMODE	TOGGLE	F	Vch Auto Range
VCHOFFSETENABLE	TOGGLE	T	Vch Offset Enable
VCHOFFSET	QUANT	0	Vch Offset (V)
VCHFILTER	IQUANT	3	Vch Filter
ACHRANGE	IQUANT	2	Ach Range
ACHOFFSETENABLE	TOGGLE	F	Ach Offset Enable
ACHOFFSET	QUANT	0	Ach Offset (V)
ACHFILTER	IQUANT	3	Ach Filter
IERANGELOWERLIMIT	IQUANT	2	I/E Range Lower Limit
IERANGEMODE	TOGGLE	F	I/E AutoRange
IERANGE	IQUANT	11	I/E Range
POSFEEDENABLE	TOGGLE	F	Positive Feedback IR Comp
POSFEEDRESISTANCE	QUANT	0	Positive Feedback Resistance (ohm)
ACHSELECT	IQUANT	0	Ach Select
CABLEID	IQUANT	13	Cable ID
DCCALDATE	LABEL	9/10/2021	DC Calibration Date
ACCALDATE	LABEL	9/10/2021	AC Calibration Date
THERMOSELECT	IQUANT	1	Thermo Select
FRAMEWORKVERSION	QUANT	6.33	Framework Version
INSTRUMENTVERSION	LABEL	3.50	Instrument Version
COMPLIANCEVOLTAGE	IQUANT	0	Compliance Voltage
ZCURVE	TABLE
	Pt	Time	Freq	Zreal	Zimag	Zsig	Zmod	Zphz	Idc	Vdc	IERange
	#	s	Hz	ohm	ohm	V	ohm	°	A	V	#
	0	17	300046.9	635.8379	-177.1737	1	660.0609	-15.57028	8.610773E-005	-0.0021267	9
	1	26	238359.4	675.3445	-161.5464	1	694.3972	-13.45271	8.202179E-005	-0.0020709	9
	2	36	189328.1	719.3591	-148.0522	1	734.4365	-11.62972	-0.0001051	0.00363	9
	3	45	150421.9	753.702	-128.2309	1	764.5325	-9.65555	-5.149999E-006	-0.0017683	9
	4	53	119484.4	778.5516	-90.41733	1	783.7844	-6.624387	8.76507E-006	-0.009655	8
	5	58	94921.88	797.6626	-75.07098	1	801.1874	-5.376481	-1.100837E-005	0.0070962	8
	6	61	75421.88	810.4055	-62.17437	1	812.787	-4.387143	-9.826272E-006	-0.000934	8
	7	64	59859.37	821.3773	-54.22876	1	823.1655	-3.777285	-1.423141E-005	0.0011888	8
	8	67	47578.12	832.0577	-45.654	1	833.3093	-3.1406	9.113452E-006	0.0011588	8
	9	70	37828.12	842.66	-38.28613	1	843.5293	-2.601436	1.766956E-005	-0.0073974	8
	10	72	30046.88	853.6442	-34.29433	1	854.3328	-2.300566	2.557016E-006	-0.0053472	8
	11	75	23859.38	861.6779	-28.82945	1	862.16	-1.91625	-1.128162E-005	0.007122	8
	12	78	18984.38	870.8101	-23.5684	1	871.129	-1.550327	-1.011703E-005	-0.0009275	8
	13	81	15046.87	879.5187	-20.77618	1	879.764	-1.353201	-1.016838E-005	-0.0009081	8
	14	83	11953.13	891.7353	-16.66182	1	891.8909	-1.070431	-1.693205E-005	0.0026292	8
	15	86	9515.62	896.3537	-15.20599	1	896.4827	-0.971888	1.889078E-005	-0.0038492	8
	16	88	7546.875	906.2661	-13.61314	1	906.3683	-0.8605828	1.392763E-005	-0.0074541	8
	17	91	5928.309	915.8424	-13.43684	1	915.941	-0.8405584	9.164782E-006	0.0011994	8
	18	95	4733.456	928.8052	-10.27983	1	928.8621	-0.6341123	1.536674E-005	-0.001673	8
	19	98	3796.875	937.6087	-10.57708	1	937.6683	-0.6463214	-1.142712E-005	0.0071926	8
	20	101	2987.132	949.325	-8.978175	1	949.3675	-0.5418547	-1.016054E-005	-0.0009733	8
	21	104	2390.625	959.331	-11.87847	1	959.404	-0.7094024	-5.438774E-006	0.0061091	8
	22	107	1884.191	959.833	-12.2205	1	959.91	-0.7294451	1.817502E-006	0.0040205	8
	23	110	1516.544	981.098	-16.2514	1	981.233	-0.9489894	1.543302E-005	-0.0016516	8
	24	114	1193.986	992.407	-16.25665	1	992.54	-0.9384806	9.281439E-006	0.0012504	8
	25	117	946.5144	1007.56	-22.04929	1	1007.801	-1.253652	1.463458E-005	-0.0077891	8
	26	120	751.7689	1015.448	-25.35774	1	1015.764	-1.430492	-1.213637E-005	0.0074652	8
	27	122	597.4265	1028.364	-24.77722	1	1028.662	-1.380207	-1.216736E-005	0.0074827	8
	28	125	477.4305	1034.852	-34.85414	1	1035.438	-1.929012	-2.967631E-007	-0.0001646	8
	29	127	376.6741	1044.575	-42.41978	1	1045.436	-2.325482	-3.259274E-007	-0.0001285	8
	30	130	298.2954	1054.68	-51.8609	1	1055.954	-2.815091	-3.0303E-007	-0.0001318	8
	31	132	237.7717	1065.748	-63.19061	1	1067.62	-3.393223	-3.228124E-007	-0.0001283	8
	32	134	189.0121	1077.557	-77.39967	1	1080.333	-4.108436	-3.204371E-007	-0.0001215	8
	33	137	150.2404	1090.247	-94.78226	1	1094.359	-4.968602	-3.329331E-007	-0.0001182	8
	34	139	119.1737	1103.903	-116.3889	1	1110.022	-6.018687	-2.764758E-007	-0.0001471	8
	35	142	95.0169	1119.081	-142.2095	1	1128.081	-7.242161	-3.154921E-007	-0.0001226	8
	36	144	75.60484	1136.537	-173.7752	1	1149.745	-8.69313	-2.922774E-007	-0.0001482	8
	37	147	54.50582	1161.178	-230.897	1	1183.912	-11.24641	-3.220874E-007	-0.000138	8
	38	149	45.95588	1180.668	-267.444	1	1210.58	-12.7632	-2.755366E-007	-0.0001567	8
	39	152	37.20238	1204.795	-320.253	1	1246.633	-14.88587	-3.214038E-007	-0.0001274	8
	40	154	30.04808	1233.253	-383.2773	1	1291.439	-17.26449	-3.680015E-007	-0.0001109	8
	41	156	23.91582	1266.768	-463.0483	1	1348.746	-20.07914	-2.377271E-007	-0.0001292	8
	42	159	18.60119	1308.378	-569.4802	1	1426.941	-23.5214	-2.951757E-007	-0.000122	8
	43	161	15.02404	1351.579	-678.3681	1	1512.267	-26.65243	-2.2315E-007	-0.0001312	8
	44	163	12.01923	1401.224	-810.3544	1	1618.673	-30.04161	-2.323031E-007	-0.0001288	8
	45	166	9.450605	1459.505	-986.445	1	1761.599	-34.05383	-3.21609E-007	-0.0001507	8
	46	168	7.512019	1524.878	-1189.106	1	1933.708	-37.94725	-3.404649E-007	-0.0001271	8
	47	171	5.978954	1598.302	-1434.214	1	2147.449	-41.90277	-3.165827E-007	-0.0001273	8
	48	174	4.734848	1681.924	-1741.625	1	2421.182	-45.99905	-3.687331E-007	-0.0001593	8
	49	177	3.75601	1778.592	-2117.339	1	2765.233	-49.96931	-2.867176E-007	-0.0001241	8
	50	181	3.004808	1884.539	-2560.073	1	3178.908	-53.64221	-3.315998E-007	-0.0001186	8
	51	185	2.372217	2018.161	-3138.903	1	3731.713	-57.26097	-3.568959E-007	-0.0002055	8
	52	189	1.878005	2175.181	-3868.816	1	4438.373	-60.65381	-4.66609E-008	-0.000108	7
	53	194	1.512097	2346.512	-4676.76	1	5232.419	-63.3553	-7.085942E-008	-0.0001407	7
	54	199	1.201923	2571.863	-5761.804	1	6309.743	-65.94573	-5.516053E-008	-8.977684E-005	7
	55	205	0.956633	2848.987	-7075.418	1	7627.468	-68.06733	-7.574941E-008	-0.0006557	7
