EXPLAIN
TAG	EISPOT
TITLE	LABEL	Potentiostatic EIS	Test Identifier
DATE	LABEL	10/5/2021	Date
TIME	LABEL	18:31:33	Time
NOTES	NOTES	1	Notes...
	
PSTAT	PSTAT	REF3000-16137	Potentiostat
VDC	POTEN	0.00000E+000	T	DC Voltage (V)
FREQINIT	QUANT	3.00000E+005	Initial Freq. (Hz)
FREQFINAL	QUANT	1.00000E+000	Final Freq. (Hz)
PTSPERDEC	QUANT	1.00000E+001	Points/decade
VAC	QUANT	5.00000E+001	AC Voltage (mV rms)
AREA	QUANT	1.00000E+000	Sample Area (cm^2)
SPEED	SELECTOR	2	Optimize for:
ZGUESS	QUANT	1.00000E+003	Estimated Z (ohms)
EOC	QUANT	0	Open Circuit (V)
SEQUENCER	TOGGLE	TRUE	Run as Sequence
PSTATMODEL	IQUANT	5	Pstat Model
PSTATSECTION	LABEL	REF3000-16137	Pstat Section
PSTATSERIALNO	LABEL	16137	Pstat Serial Number
CTRLMODE	IQUANT	1	Control Mode
IESTAB	IQUANT	0	I/E Stability
CASPEED	IQUANT	1	Control Amp Speed
CONVENTION	IQUANT	1	Current Convention
ICHRANGE	IQUANT	2	Ich Range
ICHRANGEMODE	TOGGLE	F	Ich Auto Range
ICHOFFSETENABLE	TOGGLE	T	Ich Offset Enable
ICHOFFSET	QUANT	0	Ich Offset (V)
ICHFILTER	IQUANT	3	Ich Filter
VCHRANGE	IQUANT	2	Vch Range
VCHRANGEMODE	TOGGLE	F	Vch Auto Range
VCHOFFSETENABLE	TOGGLE	T	Vch Offset Enable
VCHOFFSET	QUANT	0	Vch Offset (V)
VCHFILTER	IQUANT	3	Vch Filter
ACHRANGE	IQUANT	2	Ach Range
ACHOFFSETENABLE	TOGGLE	F	Ach Offset Enable
ACHOFFSET	QUANT	0	Ach Offset (V)
ACHFILTER	IQUANT	3	Ach Filter
IERANGELOWERLIMIT	IQUANT	2	I/E Range Lower Limit
IERANGEMODE	TOGGLE	F	I/E AutoRange
IERANGE	IQUANT	11	I/E Range
POSFEEDENABLE	TOGGLE	F	Positive Feedback IR Comp
POSFEEDRESISTANCE	QUANT	0	Positive Feedback Resistance (ohm)
ACHSELECT	IQUANT	0	Ach Select
CABLEID	IQUANT	13	Cable ID
DCCALDATE	LABEL	9/10/2021	DC Calibration Date
ACCALDATE	LABEL	9/10/2021	AC Calibration Date
THERMOSELECT	IQUANT	1	Thermo Select
FRAMEWORKVERSION	QUANT	6.33	Framework Version
INSTRUMENTVERSION	LABEL	3.50	Instrument Version
COMPLIANCEVOLTAGE	IQUANT	0	Compliance Voltage
ZCURVE	TABLE
	Pt	Time	Freq	Zreal	Zimag	Zsig	Zmod	Zphz	Idc	Vdc	IERange
	#	s	Hz	ohm	ohm	V	ohm	°	A	V	#
	0	8	300046.9	18.56958	1.893963	1	18.66592	5.823615	-5.46661E-005	-0.0004183	10
	1	11	238359.4	18.63157	1.470546	1	18.68952	4.512865	-1.31711E-005	-0.0005092	10
	2	14	189328.1	18.71065	1.135144	1	18.74505	3.471785	8.068827E-005	-0.0005831	10
	3	17	150421.9	18.78303	0.855565	1	18.80251	2.608014	6.84595E-006	-0.0003117	10
	4	19	119484.4	18.86529	0.6378325	1	18.87607	1.936424	-3.056604E-005	-0.0002476	10
	5	22	94921.88	18.94064	0.4319115	1	18.94556	1.306314	-1.669444E-005	-0.0001779	10
	6	24	75421.88	19.02678	0.2631933	1	19.0286	0.7925096	-1.080235E-005	-0.0001077	10
	7	27	59859.37	19.11173	0.1119108	1	19.11206	0.3354977	6.496643E-006	-0.0001897	10
	8	29	47578.12	19.20196	-0.0251615	1	19.20198	-0.0750782	-2.564606E-005	-0.0001044	10
	9	32	37828.12	19.29304	-0.1649192	1	19.29375	-0.4897591	-1.522349E-005	-0.0001521	10
	10	34	30046.88	19.38795	-0.305933	1	19.39037	-0.9040261	2.635829E-005	-0.0001631	10
	11	37	23859.38	19.48322	-0.4608302	1	19.48866	-1.354946	-1.644506E-006	-0.0001655	10
	12	39	18984.38	19.58138	-0.6326886	1	19.5916	-1.850624	2.398387E-005	-0.0001182	10
	13	41	15046.87	19.68729	-0.8271106	1	19.70466	-2.405719	-1.77604E-005	-0.000149	10
	14	44	11953.13	19.79826	-1.062189	1	19.82673	-3.07101	1.007562E-005	-0.0001844	10
	15	46	9515.62	19.92295	-1.33536	1	19.96765	-3.834585	-2.684248E-005	-8.121874E-005	10
	16	48	7546.875	20.05852	-1.670698	1	20.12798	-4.761244	2.779918E-005	-0.0001745	10
	17	51	5928.309	20.22071	-2.094709	1	20.32891	-5.914304	-2.646204E-005	-0.0001047	10
	18	53	4733.456	20.40248	-2.575488	1	20.5644	-7.194624	-1.603711E-005	-0.0001719	10
	19	55	3796.875	20.61249	-3.140385	1	20.85035	-8.662598	-1.137421E-005	-0.0001474	10
	20	58	2987.132	20.86756	-3.882698	1	21.2257	-10.54014	2.428148E-005	-0.0001526	10
	21	60	2390.625	21.17288	-4.715207	1	21.69156	-12.55491	-2.436676E-006	-0.0001628	10
	22	62	1884.191	21.5518	-5.772426	1	22.31145	-14.99414	-1.644336E-005	-0.00017	10
	23	65	1516.544	21.9772	-6.936386	1	23.04584	-17.5166	-2.814396E-005	-0.0001011	10
	24	67	1193.986	22.52023	-8.446189	1	24.052	-20.55851	-1.363655E-005	-0.0001088	10
	25	70	946.5144	23.13966	-10.21947	1	25.29587	-23.82831	-2.257697E-005	-0.0001275	10
	26	72	751.7689	23.85333	-12.29631	1	26.83618	-27.27094	2.619642E-005	-0.0001583	10
	27	74	597.4265	24.65002	-14.78305	1	28.74303	-30.95185	4.842438E-006	-0.00018	10
	28	77	477.4305	25.55899	-17.73205	1	31.10767	-34.75174	-1.302883E-006	-0.0001162	10
	29	79	376.6741	26.59858	-21.48537	1	34.19219	-38.93002	-1.803449E-006	-0.0001262	10
	30	81	298.2954	27.74205	-26.01526	1	38.03176	-43.16018	-1.492185E-006	-0.0001203	10
	31	84	237.7717	28.95173	-31.37983	1	42.6954	-47.30468	1.150328E-006	-0.0001801	9
	32	86	189.0121	30.36108	-38.09987	1	48.71751	-51.44931	7.874839E-007	-0.0001374	9
	33	88	150.2404	31.96885	-46.40389	1	56.35005	-55.43604	7.062689E-007	-0.0001388	9
	34	91	119.1737	33.85565	-56.79269	1	66.11819	-59.1997	7.168806E-007	-0.0001398	9
	35	93	95.0169	36.05409	-69.3632	1	78.17385	-62.53518	7.247455E-007	-0.0001376	9
	36	96	75.60484	38.7533	-85.04316	1	93.45671	-65.50173	6.849199E-007	-0.0001412	9
	37	98	54.50582	43.74163	-114.0883	1	122.1862	-69.02309	7.877522E-007	-0.0001439	9
	38	101	45.95588	47.13154	-133.0945	1	141.1932	-70.49988	7.519313E-007	-0.0001355	9
	39	103	37.20238	52.24031	-161.0765	1	169.336	-72.03109	8.605934E-007	-0.0001325	9
	40	106	30.04808	58.74564	-195.3661	1	204.0072	-73.26422	7.44784E-007	-0.0001426	9
	41	108	23.91582	67.63227	-239.9945	1	249.3421	-74.26176	6.714699E-007	-0.0001416	9
	42	110	18.60119	80.54272	-300.8736	1	311.4676	-75.01353	7.083394E-007	-0.0001385	9
	43	113	15.02404	94.87345	-364.1709	1	376.3262	-75.39793	6.372362E-007	-0.0001351	9
	44	115	12.01923	113.9675	-442.29	1	456.7374	-75.55058	4.704143E-007	-0.0001254	8
	45	118	9.450605	141.6702	-546.7419	1	564.7984	-75.47318	4.955745E-007	-0.0001161	8
	46	120	7.512019	176.8072	-668.2828	1	691.2762	-75.18083	5.900613E-007	-0.0001258	8
	47	123	5.978954	222.5565	-812.8751	1	842.7914	-74.68826	5.933902E-007	-0.0001243	8
	48	126	4.734848	283.5956	-990.775	1	1030.564	-74.02696	4.600404E-007	-0.0001422	8
	49	129	3.75601	363.3813	-1199.995	1	1253.807	-73.15269	5.96672E-007	-0.0001075	8
	50	133	3.004808	461.3639	-1438.002	1	1510.201	-72.21185	5.733434E-007	-0.0001461	8
	51	136	2.372217	593.52	-1736.992	1	1835.594	-71.135	5.295357E-007	-0.000196	8
	52	141	1.878005	757.2504	-2082.522	1	2215.925	-70.01763	5.593967E-007	-0.0001105	8
	53	145	1.512097	947.9063	-2454.409	1	2631.093	-68.88317	5.599097E-007	-0.0002038	8
	54	151	1.201923	1199.566	-2926.32	1	3162.642	-67.71015	5.271663E-007	-9.444352E-005	8
	55	157	0.956633	1513.902	-3468.594	1	3784.58	-66.42066	4.72771E-007	-0.0006762	8
