EXPLAIN
TAG	EISPOT
TITLE	LABEL	Potentiostatic EIS	Test Identifier
DATE	LABEL	10/5/2021	Date
TIME	LABEL	18:12:01	Time
NOTES	NOTES	1	Notes...
	
PSTAT	PSTAT	REF3000-16137	Potentiostat
VDC	POTEN	0.00000E+000	T	DC Voltage (V)
FREQINIT	QUANT	3.00000E+005	Initial Freq. (Hz)
FREQFINAL	QUANT	1.00000E+000	Final Freq. (Hz)
PTSPERDEC	QUANT	1.00000E+001	Points/decade
VAC	QUANT	5.00000E+001	AC Voltage (mV rms)
AREA	QUANT	1.00000E+000	Sample Area (cm^2)
SPEED	SELECTOR	2	Optimize for:
ZGUESS	QUANT	1.00000E+003	Estimated Z (ohms)
EOC	QUANT	0	Open Circuit (V)
SEQUENCER	TOGGLE	TRUE	Run as Sequence
PSTATMODEL	IQUANT	5	Pstat Model
PSTATSECTION	LABEL	REF3000-16137	Pstat Section
PSTATSERIALNO	LABEL	16137	Pstat Serial Number
CTRLMODE	IQUANT	1	Control Mode
IESTAB	IQUANT	0	I/E Stability
CASPEED	IQUANT	1	Control Amp Speed
CONVENTION	IQUANT	1	Current Convention
ICHRANGE	IQUANT	2	Ich Range
ICHRANGEMODE	TOGGLE	F	Ich Auto Range
ICHOFFSETENABLE	TOGGLE	T	Ich Offset Enable
ICHOFFSET	QUANT	0	Ich Offset (V)
ICHFILTER	IQUANT	3	Ich Filter
VCHRANGE	IQUANT	2	Vch Range
VCHRANGEMODE	TOGGLE	F	Vch Auto Range
VCHOFFSETENABLE	TOGGLE	T	Vch Offset Enable
VCHOFFSET	QUANT	0	Vch Offset (V)
VCHFILTER	IQUANT	3	Vch Filter
ACHRANGE	IQUANT	2	Ach Range
ACHOFFSETENABLE	TOGGLE	F	Ach Offset Enable
ACHOFFSET	QUANT	0	Ach Offset (V)
ACHFILTER	IQUANT	3	Ach Filter
IERANGELOWERLIMIT	IQUANT	2	I/E Range Lower Limit
IERANGEMODE	TOGGLE	F	I/E AutoRange
IERANGE	IQUANT	11	I/E Range
POSFEEDENABLE	TOGGLE	F	Positive Feedback IR Comp
POSFEEDRESISTANCE	QUANT	0	Positive Feedback Resistance (ohm)
ACHSELECT	IQUANT	0	Ach Select
CABLEID	IQUANT	13	Cable ID
DCCALDATE	LABEL	9/10/2021	DC Calibration Date
ACCALDATE	LABEL	9/10/2021	AC Calibration Date
THERMOSELECT	IQUANT	1	Thermo Select
FRAMEWORKVERSION	QUANT	6.33	Framework Version
INSTRUMENTVERSION	LABEL	3.50	Instrument Version
COMPLIANCEVOLTAGE	IQUANT	0	Compliance Voltage
ZCURVE	TABLE
	Pt	Time	Freq	Zreal	Zimag	Zsig	Zmod	Zphz	Idc	Vdc	IERange
	#	s	Hz	ohm	ohm	V	ohm	°	A	V	#
	0	11	300046.9	4.697437	2.182849	1	5.179841	24.92379	6.940981E-005	-0.0009347	10
	1	14	238359.4	4.673314	1.732991	1	4.984288	20.34614	7.356529E-005	-0.0012373	10
	2	17	189328.1	4.66563	1.361039	1	4.860096	16.26281	-0.0000988	-0.0007099	10
	3	20	150421.9	4.668151	1.06176	1	4.787376	12.8138	-1.970874E-005	-0.0005	10
	4	22	119484.4	4.664533	0.7986234	1	4.732406	9.71552	6.133623E-005	-0.0004136	10
	5	25	94921.88	4.675826	0.5968261	1	4.713762	7.273945	3.418978E-005	-0.000325	10
	6	27	75421.88	4.685031	0.4126027	1	4.703165	5.032957	6.625644E-006	-0.0002889	10
	7	30	59859.37	4.696421	0.2509656	1	4.703121	3.058841	2.143345E-005	-0.00025	10
	8	32	47578.12	4.713082	0.1056519	1	4.714266	1.284169	2.379035E-005	-0.0002194	10
	9	35	37828.12	4.734223	-0.0318889	1	4.734331	-0.3859283	1.22448E-005	-0.0002078	10
	10	37	30046.88	4.759009	-0.1675855	1	4.761959	-2.016801	-2.861679E-005	-0.0001623	10
	11	40	23859.38	4.789332	-0.3066889	1	4.799141	-3.663981	-2.162508E-005	-0.0001113	10
	12	42	18984.38	4.822843	-0.4542989	1	4.844193	-5.38123	2.985444E-006	-0.0001708	10
	13	44	15046.87	4.865962	-0.6200289	1	4.905305	-7.261591	2.068793E-005	-0.0001659	10
	14	47	11953.13	4.91864	-0.8062345	1	4.984279	-9.308806	-8.374531E-006	-0.0001555	10
	15	49	9515.62	4.983981	-1.017762	1	5.086837	-11.5415	-2.129768E-005	-0.0000966	10
	16	51	7546.875	5.062846	-1.265942	1	5.218718	-14.0387	6.662102E-007	-0.0001415	10
	17	54	5928.309	5.161928	-1.571163	1	5.395744	-16.92895	-2.544565E-005	-0.0001162	10
	18	56	4733.456	5.272214	-1.904492	1	5.605652	-19.86134	-1.067415E-005	-0.0001365	10
	19	58	3796.875	5.396811	-2.291224	1	5.863044	-23.00372	1.854226E-005	-0.0001622	10
	20	61	2987.132	5.551166	-2.78806	1	6.211982	-26.66798	2.206927E-005	-0.0001457	10
	21	63	2390.625	5.713788	-3.34452	1	6.620664	-30.34224	-3.23396E-005	-0.0001391	10
	22	65	1884.191	5.907619	-4.059323	1	7.167849	-34.49427	2.302936E-005	-0.0001507	10
	23	68	1516.544	6.105986	-4.853848	1	7.800186	-38.48233	-2.404493E-005	-0.0001166	10
	24	70	1193.986	6.345551	-5.922893	1	8.680246	-43.02689	-1.385514E-005	-0.0001171	10
	25	72	946.5144	6.606022	-7.206657	1	9.77627	-47.4899	-9.901605E-006	-0.0000981	10
	26	75	751.7689	6.900236	-8.778306	1	11.16566	-51.83069	-1.55282E-005	-0.0001622	10
	27	77	597.4265	7.243741	-10.72806	1	12.94461	-55.9722	1.207084E-005	-0.0001609	10
	28	79	477.4305	7.637637	-13.08444	1	15.15044	-59.72707	-1.091123E-006	-0.0001156	10
	29	82	376.6741	8.1416	-16.16265	1	18.09743	-63.26426	-1.468693E-006	-0.0001224	10
	30	84	298.2954	8.759356	-19.9363	1	21.77573	-66.28089	-1.686568E-006	-0.0001177	10
	31	86	237.7717	9.51762	-24.46962	1	26.25542	-68.74612	-1.964325E-006	-0.0001168	10
	32	89	189.0121	10.49837	-30.1329	1	31.90936	-70.79155	-1.905973E-006	-0.0001159	10
	33	91	150.2404	11.76237	-37.10224	1	38.92209	-72.41003	-1.731404E-006	-0.0001165	10
	34	94	119.1737	13.407	-45.70734	1	47.63306	-73.65239	8.233202E-007	-0.000131	9
	35	96	95.0169	15.52515	-56.07347	1	58.18303	-74.52411	7.906978E-007	-0.0001313	9
	36	99	75.60484	18.33117	-68.8561	1	71.25443	-75.09225	6.92192E-007	-0.0001351	9
	37	101	54.50582	23.96716	-92.16479	1	95.2301	-75.42327	6.680439E-007	-0.000134	9
	38	104	45.95588	27.93767	-107.1584	1	110.7404	-75.38748	6.693591E-007	-0.0001252	9
	39	106	37.20238	34.16566	-128.9164	1	133.3669	-75.15661	8.445815E-007	-0.0001375	9
	40	108	30.04808	42.312	-155.0499	1	160.7195	-74.73605	7.910062E-007	-0.0001375	9
	41	111	23.91582	53.6487	-188.2829	1	195.777	-74.09581	7.125601E-007	-0.0001386	9
	42	113	18.60119	69.97964	-231.9955	1	242.3201	-73.21447	6.742813E-007	-0.0001358	9
	43	115	15.02404	88.15134	-276.1704	1	289.8978	-72.29734	9.842925E-007	-0.0001187	9
	44	118	12.01923	112.1348	-329.933	1	348.4681	-71.22858	6.264045E-007	-0.0001351	9
	45	120	9.450605	145.1913	-397.9565	1	423.6153	-69.9559	5.512199E-007	-0.0001207	9
	46	123	7.512019	184.5963	-471.8462	1	506.6702	-68.6335	5.020206E-007	-0.0001068	8
	47	125	5.978954	235.0249	-558.5267	1	605.9611	-67.17892	6.022635E-007	-0.0001213	8
	48	128	4.734848	300.1752	-660.8358	1	725.8162	-65.57076	8.069709E-007	-9.495179E-005	8
	49	132	3.75601	382.8206	-775.151	1	864.5292	-63.71681	3.601137E-007	-0.0001286	8
	50	135	3.004808	482.7039	-897.6513	1	1019.206	-61.73125	4.180997E-007	-0.0000986	8
	51	139	2.372217	616.1208	-1036.693	1	1205.959	-59.27641	5.081067E-007	-5.214409E-005	8
	52	143	1.878005	776.1627	-1183.271	1	1415.118	-56.73727	3.662644E-007	-0.0001319	8
	53	148	1.512097	949.5938	-1317.043	1	1623.678	-54.20823	4.493722E-007	-0.0001056	8
	54	153	1.201923	1166.139	-1457.615	1	1866.687	-51.33905	5.689802E-007	-0.0001482	8
	55	160	0.956633	1404.539	-1592.37	1	2123.292	-48.58632	3.442262E-007	-0.0006758	8
