EXPLAIN
TAG	EISPOT
TITLE	LABEL	Potentiostatic EIS	Test Identifier
DATE	LABEL	10/5/2021	Date
TIME	LABEL	18:20:26	Time
NOTES	NOTES	1	Notes...
	
PSTAT	PSTAT	REF3000-16137	Potentiostat
VDC	POTEN	0.00000E+000	T	DC Voltage (V)
FREQINIT	QUANT	3.00000E+005	Initial Freq. (Hz)
FREQFINAL	QUANT	1.00000E+000	Final Freq. (Hz)
PTSPERDEC	QUANT	1.00000E+001	Points/decade
VAC	QUANT	5.00000E+001	AC Voltage (mV rms)
AREA	QUANT	1.00000E+000	Sample Area (cm^2)
SPEED	SELECTOR	2	Optimize for:
ZGUESS	QUANT	1.00000E+003	Estimated Z (ohms)
EOC	QUANT	0	Open Circuit (V)
SEQUENCER	TOGGLE	TRUE	Run as Sequence
PSTATMODEL	IQUANT	5	Pstat Model
PSTATSECTION	LABEL	REF3000-16137	Pstat Section
PSTATSERIALNO	LABEL	16137	Pstat Serial Number
CTRLMODE	IQUANT	1	Control Mode
IESTAB	IQUANT	0	I/E Stability
CASPEED	IQUANT	1	Control Amp Speed
CONVENTION	IQUANT	1	Current Convention
ICHRANGE	IQUANT	2	Ich Range
ICHRANGEMODE	TOGGLE	F	Ich Auto Range
ICHOFFSETENABLE	TOGGLE	T	Ich Offset Enable
ICHOFFSET	QUANT	0	Ich Offset (V)
ICHFILTER	IQUANT	3	Ich Filter
VCHRANGE	IQUANT	2	Vch Range
VCHRANGEMODE	TOGGLE	F	Vch Auto Range
VCHOFFSETENABLE	TOGGLE	T	Vch Offset Enable
VCHOFFSET	QUANT	0	Vch Offset (V)
VCHFILTER	IQUANT	3	Vch Filter
ACHRANGE	IQUANT	2	Ach Range
ACHOFFSETENABLE	TOGGLE	F	Ach Offset Enable
ACHOFFSET	QUANT	0	Ach Offset (V)
ACHFILTER	IQUANT	3	Ach Filter
IERANGELOWERLIMIT	IQUANT	2	I/E Range Lower Limit
IERANGEMODE	TOGGLE	F	I/E AutoRange
IERANGE	IQUANT	11	I/E Range
POSFEEDENABLE	TOGGLE	F	Positive Feedback IR Comp
POSFEEDRESISTANCE	QUANT	0	Positive Feedback Resistance (ohm)
ACHSELECT	IQUANT	0	Ach Select
CABLEID	IQUANT	13	Cable ID
DCCALDATE	LABEL	9/10/2021	DC Calibration Date
ACCALDATE	LABEL	9/10/2021	AC Calibration Date
THERMOSELECT	IQUANT	1	Thermo Select
FRAMEWORKVERSION	QUANT	6.33	Framework Version
INSTRUMENTVERSION	LABEL	3.50	Instrument Version
COMPLIANCEVOLTAGE	IQUANT	0	Compliance Voltage
ZCURVE	TABLE
	Pt	Time	Freq	Zreal	Zimag	Zsig	Zmod	Zphz	Idc	Vdc	IERange
	#	s	Hz	ohm	ohm	V	ohm	°	A	V	#
	0	8	300046.9	7.63369	2.156654	1	7.932489	15.77594	-6.484716E-006	-0.000888	10
	1	12	238359.4	7.617689	1.693504	1	7.803662	12.53371	6.466086E-005	-0.0008025	10
	2	15	189328.1	7.617749	1.320967	1	7.731432	9.83763	7.570495E-005	-0.0007677	10
	3	17	150421.9	7.627834	1.010104	1	7.694424	7.543413	4.960383E-005	-0.0003526	10
	4	20	119484.4	7.650702	0.7702489	1	7.689378	5.74899	4.40473E-005	-0.0002506	10
	5	22	94921.88	7.676862	0.5727906	1	7.698201	4.26708	2.574514E-005	-0.000235	10
	6	25	75421.88	7.696591	0.3867596	1	7.706303	2.876737	1.978936E-005	-0.0002449	10
	7	27	59859.37	7.722034	0.2202731	1	7.725175	1.633934	2.41781E-005	-0.0002001	10
	8	30	47578.12	7.752216	0.0700208	1	7.752532	0.5175019	7.207987E-006	-0.0001994	10
	9	32	37828.12	7.784894	-0.069985	1	7.785209	-0.5150664	1.792975E-005	-0.000191	10
	10	35	30046.88	7.823048	-0.2095011	1	7.825852	-1.534013	-9.917198E-006	-0.000149	10
	11	38	23859.38	7.862757	-0.3557918	1	7.870802	-2.590882	-2.484958E-005	-0.0001545	10
	12	40	18984.38	7.906542	-0.5141659	1	7.923243	-3.720731	-8.919609E-006	-0.0001625	10
	13	42	15046.87	7.959724	-0.6960036	1	7.990096	-4.997271	4.492573E-006	-0.0001738	10
	14	44	11953.13	8.021657	-0.9008965	1	8.072087	-6.407925	1.225677E-005	-0.0001687	10
	15	47	9515.62	8.095103	-1.140876	1	8.175102	-8.022092	1.222008E-005	-0.0001698	10
	16	49	7546.875	8.186706	-1.425408	1	8.30987	-9.8769	-2.18256E-005	-8.3711E-005	10
	17	51	5928.309	8.301727	-1.780339	1	8.490482	-12.10398	-1.3263E-005	-0.0001144	10
	18	54	4733.456	8.434712	-2.171315	1	8.709706	-14.43599	7.399363E-006	-0.0001401	10
	19	56	3796.875	8.590187	-2.623907	1	8.981993	-16.9855	-9.831273E-006	-8.804664E-005	10
	20	58	2987.132	8.789173	-3.204535	1	9.355138	-20.03187	-1.70791E-005	-0.0001322	10
	21	61	2390.625	9.006043	-3.843782	1	9.79201	-23.1128	6.147892E-006	-0.0001602	10
	22	63	1884.191	9.272017	-4.667613	1	10.3806	-26.72108	2.51065E-005	-0.0001531	10
	23	65	1516.544	9.54977	-5.563351	1	11.0521	-30.22354	-1.496211E-005	-0.0001156	10
	24	68	1193.986	9.89302	-6.747996	1	11.97528	-34.29778	-2.511815E-005	-0.0001189	10
	25	70	946.5144	10.26593	-8.15822	1	13.11281	-38.47379	1.008037E-005	-0.0001143	10
	26	72	751.7689	10.67735	-9.85858	1	14.53264	-42.7168	-2.556649E-005	-0.0001191	10
	27	75	597.4265	11.125	-11.94552	1	16.32364	-47.0369	-2.48176E-005	-0.0001067	10
	28	77	477.4305	11.63753	-14.4571	1	18.55909	-51.16698	-1.548555E-006	-0.0001195	10
	29	79	376.6741	12.24008	-17.73413	1	21.54806	-55.38659	-1.986887E-006	-0.0001239	10
	30	82	298.2954	12.93686	-21.75615	1	25.3119	-59.26302	-1.154502E-006	-0.0001297	10
	31	84	237.7717	13.75242	-26.60375	1	29.94809	-62.66396	-1.790705E-006	-0.0001245	10
	32	87	189.0121	14.76161	-32.6703	1	35.85043	-65.68484	-1.912999E-006	-0.000126	10
	33	89	150.2404	16.00134	-40.12562	1	43.19848	-68.25882	7.026932E-007	-0.0001424	9
	34	91	119.1737	17.6131	-49.47695	1	52.51847	-70.40498	8.219493E-007	-0.0001404	9
	35	94	95.0169	19.63004	-60.7358	1	63.82927	-72.08897	7.841211E-007	-0.0001423	9
	36	96	75.60484	22.25163	-74.69099	1	77.93509	-73.41037	6.842999E-007	-0.0001406	9
	37	99	54.50582	27.41789	-100.3368	1	104.0155	-74.71656	7.734017E-007	-0.0001458	9
	38	101	45.95588	31.02658	-116.9816	1	121.0262	-75.14566	8.340326E-007	-0.0001398	9
	39	104	37.20238	36.63652	-141.3325	1	146.0038	-75.46754	8.41552E-007	-0.0001448	9
	40	106	30.04808	43.93584	-170.861	1	176.4195	-75.57918	7.160729E-007	-0.0001499	9
	41	109	23.91582	54.191	-208.8366	1	215.7531	-75.45316	8.825462E-007	-0.0001363	9
	42	111	18.60119	69.33755	-259.9281	1	269.0173	-75.06377	8.57079E-007	-0.0001382	9
	43	113	15.02404	86.30042	-312.114	1	323.8254	-74.54372	1.006816E-006	-0.0001393	9
	44	116	12.01923	109.2567	-376.6515	1	392.1777	-73.82395	8.517898E-007	-0.000138	9
	45	118	9.450605	140.8698	-457.3489	1	478.5523	-72.88045	5.591025E-007	-0.0001314	8
	46	121	7.512019	180.415	-550.5091	1	579.3184	-71.8548	4.330691E-007	-0.0001315	8
	47	123	5.978954	229.9961	-658.9682	1	697.9522	-70.75976	4.543175E-007	-0.0001259	8
	48	126	4.734848	294.5292	-789.826	1	842.9547	-69.54932	6.654956E-007	-0.000116	8
	49	130	3.75601	375.5765	-940.7552	1	1012.955	-68.23669	4.783993E-007	-0.0001361	8
	50	133	3.004808	473.9707	-1108.224	1	1205.325	-66.84434	6.246882E-007	-0.0001351	8
	51	137	2.372217	608.0942	-1311.314	1	1445.449	-65.12148	5.560252E-007	-8.705306E-005	8
	52	141	1.878005	776.138	-1543.345	1	1727.513	-63.30247	4.736986E-007	-0.0001448	8
	53	146	1.512097	970.491	-1774.264	1	2022.342	-61.32211	5.408972E-007	-8.064239E-005	8
	54	151	1.201923	1229.062	-2045.867	1	2386.664	-59.00449	5.984691E-007	-0.0001578	8
	55	157	0.956633	1539.233	-2327.439	1	2790.378	-56.52167	4.193088E-007	-0.0006746	8
