EXPLAIN
TAG	EISPOT
TITLE	LABEL	Potentiostatic EIS	Test Identifier
DATE	LABEL	10/5/2021	Date
TIME	LABEL	17:46:30	Time
NOTES	NOTES	1	Notes...
	
PSTAT	PSTAT	REF3000-16137	Potentiostat
VDC	POTEN	0.00000E+000	T	DC Voltage (V)
FREQINIT	QUANT	3.00000E+005	Initial Freq. (Hz)
FREQFINAL	QUANT	1.00000E+000	Final Freq. (Hz)
PTSPERDEC	QUANT	1.00000E+001	Points/decade
VAC	QUANT	5.00000E+001	AC Voltage (mV rms)
AREA	QUANT	1.00000E+000	Sample Area (cm^2)
SPEED	SELECTOR	2	Optimize for:
ZGUESS	QUANT	1.00000E+003	Estimated Z (ohms)
EOC	QUANT	0	Open Circuit (V)
SEQUENCER	TOGGLE	TRUE	Run as Sequence
PSTATMODEL	IQUANT	5	Pstat Model
PSTATSECTION	LABEL	REF3000-16137	Pstat Section
PSTATSERIALNO	LABEL	16137	Pstat Serial Number
CTRLMODE	IQUANT	1	Control Mode
IESTAB	IQUANT	0	I/E Stability
CASPEED	IQUANT	1	Control Amp Speed
CONVENTION	IQUANT	1	Current Convention
ICHRANGE	IQUANT	2	Ich Range
ICHRANGEMODE	TOGGLE	F	Ich Auto Range
ICHOFFSETENABLE	TOGGLE	T	Ich Offset Enable
ICHOFFSET	QUANT	0	Ich Offset (V)
ICHFILTER	IQUANT	3	Ich Filter
VCHRANGE	IQUANT	2	Vch Range
VCHRANGEMODE	TOGGLE	F	Vch Auto Range
VCHOFFSETENABLE	TOGGLE	T	Vch Offset Enable
VCHOFFSET	QUANT	0	Vch Offset (V)
VCHFILTER	IQUANT	3	Vch Filter
ACHRANGE	IQUANT	2	Ach Range
ACHOFFSETENABLE	TOGGLE	F	Ach Offset Enable
ACHOFFSET	QUANT	0	Ach Offset (V)
ACHFILTER	IQUANT	3	Ach Filter
IERANGELOWERLIMIT	IQUANT	2	I/E Range Lower Limit
IERANGEMODE	TOGGLE	F	I/E AutoRange
IERANGE	IQUANT	11	I/E Range
POSFEEDENABLE	TOGGLE	F	Positive Feedback IR Comp
POSFEEDRESISTANCE	QUANT	0	Positive Feedback Resistance (ohm)
ACHSELECT	IQUANT	0	Ach Select
CABLEID	IQUANT	13	Cable ID
DCCALDATE	LABEL	9/10/2021	DC Calibration Date
ACCALDATE	LABEL	9/10/2021	AC Calibration Date
THERMOSELECT	IQUANT	1	Thermo Select
FRAMEWORKVERSION	QUANT	6.33	Framework Version
INSTRUMENTVERSION	LABEL	3.50	Instrument Version
COMPLIANCEVOLTAGE	IQUANT	0	Compliance Voltage
ZCURVE	TABLE
	Pt	Time	Freq	Zreal	Zimag	Zsig	Zmod	Zphz	Idc	Vdc	IERange
	#	s	Hz	ohm	ohm	V	ohm	°	A	V	#
	0	10	300046.9	2.113914	2.205933	1	3.055286	46.2203	-1.991871E-005	-0.0006029	11
	1	13	238359.4	2.063145	1.744079	1	2.701551	40.20949	8.620691E-007	-0.0004598	11
	2	16	189328.1	2.119922	1.2278	1	2.449809	30.07825	-0.0001822	-0.0008441	12
	3	20	150421.9	2.069448	0.95712	1	2.280064	24.82055	-8.830836E-005	-0.0005961	12
	4	23	119484.4	2.014317	0.8188295	1	2.174386	22.12198	-0.0001837	-0.0000993	11
	5	26	94921.88	2.012618	0.6092257	1	2.102805	16.84123	-3.848126E-005	0.0001372	11
	6	28	75421.88	2.014143	0.4333289	1	2.06023	12.14172	-1.908453E-005	0.0001943	11
	7	31	59859.37	2.019454	0.2833723	1	2.039238	7.987664	-2.722427E-005	0.0002519	11
	8	34	47578.12	2.028416	0.1507258	1	2.034009	4.249676	-1.861163E-005	0.0002986	11
	9	36	37828.12	2.040336	0.0290879	1	2.040544	0.8167776	-2.410746E-005	0.0003123	11
	10	39	30046.88	2.057393	-0.086511	1	2.059211	-2.407802	-2.16231E-005	0.0003533	11
	11	41	23859.38	2.078498	-0.2009199	1	2.088186	-5.521395	-0.0000973	0.0003102	11
	12	43	18984.38	2.104684	-0.3174224	1	2.128486	-8.576548	-5.673756E-005	0.0003515	11
	13	46	15046.87	2.135583	-0.4437315	1	2.181195	-11.7379	-6.53227E-005	0.0003545	11
	14	48	11953.13	2.170217	-0.580984	1	2.246639	-14.98709	-2.267767E-005	0.0003539	11
	15	50	9515.62	2.211049	-0.7342962	1	2.329791	-18.37149	-1.178809E-005	0.0003805	11
	16	53	7546.875	2.25754	-0.9145883	1	2.435766	-22.05415	-1.506116E-005	0.0003817	11
	17	55	5928.309	2.312287	-1.138009	1	2.577156	-26.20446	-7.86058E-005	0.0003476	11
	18	57	4733.456	2.368179	-1.387277	1	2.744596	-30.36174	-7.875971E-005	0.0003485	11
	19	60	3796.875	2.428679	-1.681871	1	2.954179	-34.70278	-4.140887E-005	0.0003645	11
	20	62	2987.132	2.50198	-2.072978	1	3.249176	-39.64294	-4.714051E-005	0.0003487	11
	21	64	2390.625	2.580148	-2.51967	1	3.60637	-44.32057	-1.740716E-005	0.0003663	11
	22	67	1884.191	2.679977	-3.117357	1	4.110984	-49.31451	-1.327897E-005	-0.0001736	10
	23	69	1516.544	2.785254	-3.785642	1	4.699865	-53.65654	-1.332887E-005	-0.000126	10
	24	71	1193.986	2.928428	-4.69683	1	5.534971	-58.05685	7.235105E-006	-0.0001403	10
	25	74	946.5144	3.103091	-5.797912	1	6.576089	-61.84394	-3.034834E-005	-0.000136	10
	26	76	751.7689	3.329285	-7.146208	1	7.883681	-65.02007	6.463079E-006	-0.0001593	10
	27	78	597.4265	3.611523	-8.807932	1	9.5196	-67.70486	-2.503159E-005	-0.0001342	10
	28	81	477.4305	3.981344	-10.80247	1	11.51279	-69.76819	-5.790158E-007	-0.0001292	10
	29	83	376.6741	4.484982	-13.387	1	14.11832	-71.47785	-5.416886E-007	-0.0001274	10
	30	85	298.2954	5.140064	-16.52135	1	17.30247	-72.71822	-8.506823E-007	-0.0001264	10
	31	88	237.7717	5.980091	-20.24528	1	21.11002	-73.54381	-6.563977E-007	-0.0001254	10
	32	90	189.0121	7.104323	-24.83529	1	25.83144	-74.03642	-8.023249E-007	-0.0001282	10
	33	92	150.2404	8.594175	-30.41066	1	31.60171	-74.2195	-1.568459E-006	-0.0001269	10
	34	95	119.1737	10.58905	-37.21659	1	38.6937	-74.11763	-1.729902E-006	-0.0001215	10
	35	97	95.0169	13.15043	-45.15817	1	47.03397	-73.76401	5.266567E-007	-0.0001845	9
	36	100	75.60484	16.55706	-54.77237	1	57.22018	-73.18053	4.248284E-008	-0.0001406	9
	37	102	54.50582	23.30497	-71.70173	1	75.39403	-71.99446	-6.429275E-010	-0.0001451	9
	38	105	45.95588	27.963	-82.26194	1	86.88473	-71.22575	2.078509E-007	-0.0001365	9
	39	107	37.20238	35.0451	-97.1341	1	103.2628	-70.16102	-6.324955E-008	-0.0001353	9
	40	110	30.04808	43.98566	-114.4148	1	122.5784	-68.97122	-2.96973E-008	-0.0001334	9
	41	112	23.91582	56.07336	-135.7196	1	146.8469	-67.55173	-3.407929E-007	-0.0001366	9
	42	114	18.60119	73.10863	-162.7076	1	178.3778	-65.80441	6.606105E-007	-0.0001376	9
	43	117	15.02404	91.57626	-188.9792	1	209.9984	-64.14592	-2.695211E-007	-0.0001451	9
	44	119	12.01923	115.7262	-219.2856	1	247.949	-62.17752	3.550356E-007	-0.0001399	9
	45	121	9.450605	148.986	-254.8706	1	295.2217	-59.69134	-4.696223E-007	-0.0001331	9
	46	124	7.512019	188.1277	-290.4405	1	346.0458	-57.06757	-1.833543E-007	-0.0001396	9
	47	127	5.978954	235.4133	-325.64	1	401.8219	-54.13588	1.606808E-007	-0.0001405	9
	48	130	4.734848	291.0971	-358.6187	1	461.8927	-50.93315	4.860087E-007	-0.0001231	8
	49	133	3.75601	354.3917	-388.4603	1	525.8278	-47.62586	-5.499761E-008	-0.000135	8
	50	136	3.004808	420.8411	-411.9221	1	588.8862	-44.38638	5.046805E-007	-0.0001553	8
	51	140	2.372217	495.1271	-430.9948	1	656.4354	-41.03869	1.081508E-007	-0.0001146	8
	52	144	1.878005	571.9995	-443.6759	1	723.9003	-37.79923	-6.77281E-009	-0.0001394	8
	53	149	1.512097	641.8546	-451.3179	1	784.6433	-35.11284	1.608277E-007	-0.0001918	8
	54	154	1.201923	715.6855	-454.6833	1	847.9048	-32.42827	1.118439E-007	-0.000142	8
	55	161	0.956633	787.168	-455.3808	1	909.3982	-30.04961	-2.486285E-007	-0.000675	8
