EXPLAIN
TAG	EISPOT
TITLE	LABEL	Potentiostatic EIS	Test Identifier
DATE	LABEL	10/5/2021	Date
TIME	LABEL	17:49:20	Time
NOTES	NOTES	1	Notes...
	
PSTAT	PSTAT	REF3000-16137	Potentiostat
VDC	POTEN	0.00000E+000	T	DC Voltage (V)
FREQINIT	QUANT	3.00000E+005	Initial Freq. (Hz)
FREQFINAL	QUANT	1.00000E+000	Final Freq. (Hz)
PTSPERDEC	QUANT	1.00000E+001	Points/decade
VAC	QUANT	5.00000E+001	AC Voltage (mV rms)
AREA	QUANT	1.00000E+000	Sample Area (cm^2)
SPEED	SELECTOR	2	Optimize for:
ZGUESS	QUANT	1.00000E+003	Estimated Z (ohms)
EOC	QUANT	0	Open Circuit (V)
SEQUENCER	TOGGLE	TRUE	Run as Sequence
PSTATMODEL	IQUANT	5	Pstat Model
PSTATSECTION	LABEL	REF3000-16137	Pstat Section
PSTATSERIALNO	LABEL	16137	Pstat Serial Number
CTRLMODE	IQUANT	1	Control Mode
IESTAB	IQUANT	0	I/E Stability
CASPEED	IQUANT	1	Control Amp Speed
CONVENTION	IQUANT	1	Current Convention
ICHRANGE	IQUANT	2	Ich Range
ICHRANGEMODE	TOGGLE	F	Ich Auto Range
ICHOFFSETENABLE	TOGGLE	T	Ich Offset Enable
ICHOFFSET	QUANT	0	Ich Offset (V)
ICHFILTER	IQUANT	3	Ich Filter
VCHRANGE	IQUANT	2	Vch Range
VCHRANGEMODE	TOGGLE	F	Vch Auto Range
VCHOFFSETENABLE	TOGGLE	T	Vch Offset Enable
VCHOFFSET	QUANT	0	Vch Offset (V)
VCHFILTER	IQUANT	3	Vch Filter
ACHRANGE	IQUANT	2	Ach Range
ACHOFFSETENABLE	TOGGLE	F	Ach Offset Enable
ACHOFFSET	QUANT	0	Ach Offset (V)
ACHFILTER	IQUANT	3	Ach Filter
IERANGELOWERLIMIT	IQUANT	2	I/E Range Lower Limit
IERANGEMODE	TOGGLE	F	I/E AutoRange
IERANGE	IQUANT	11	I/E Range
POSFEEDENABLE	TOGGLE	F	Positive Feedback IR Comp
POSFEEDRESISTANCE	QUANT	0	Positive Feedback Resistance (ohm)
ACHSELECT	IQUANT	0	Ach Select
CABLEID	IQUANT	13	Cable ID
DCCALDATE	LABEL	9/10/2021	DC Calibration Date
ACCALDATE	LABEL	9/10/2021	AC Calibration Date
THERMOSELECT	IQUANT	1	Thermo Select
FRAMEWORKVERSION	QUANT	6.33	Framework Version
INSTRUMENTVERSION	LABEL	3.50	Instrument Version
COMPLIANCEVOLTAGE	IQUANT	0	Compliance Voltage
ZCURVE	TABLE
	Pt	Time	Freq	Zreal	Zimag	Zsig	Zmod	Zphz	Idc	Vdc	IERange
	#	s	Hz	ohm	ohm	V	ohm	°	A	V	#
	0	10	300046.9	2.238753	2.196419	1	3.136283	44.45313	-3.020965E-005	-0.0006458	11
	1	13	238359.4	2.189497	1.740703	1	2.797131	38.48554	-2.644773E-005	-0.0004691	11
	2	17	189328.1	2.235073	1.213962	1	2.543473	28.50824	-5.895378E-005	-0.0008494	12
	3	20	150421.9	2.197855	0.9424922	1	2.391413	23.2108	-0.0001454	-0.0005736	12
	4	24	119484.4	2.168059	0.7217761	1	2.285047	18.4133	-0.0001604	-0.0004256	12
	5	27	94921.88	2.136964	0.6053928	1	2.221062	15.8172	-2.443932E-005	0.0001984	11
	6	30	75421.88	2.138941	0.4302327	1	2.181781	11.37288	-5.855778E-005	0.0001995	11
	7	32	59859.37	2.144037	0.2789122	1	2.162102	7.411838	-1.890081E-005	0.0002758	11
	8	35	47578.12	2.152494	0.1449176	1	2.157367	3.851651	-2.854445E-005	0.0002867	11
	9	37	37828.12	2.165492	0.0227028	1	2.165611	0.6006605	-9.246122E-005	0.0002691	11
	10	40	30046.88	2.18289	-0.0947599	1	2.184946	-2.485667	-2.270906E-005	0.000344	11
	11	43	23859.38	2.204404	-0.2114815	1	2.214525	-5.479953	-8.631323E-005	0.0003015	11
	12	45	18984.38	2.23143	-0.3308678	1	2.255826	-8.434144	-1.37488E-005	0.0003842	11
	13	47	15046.87	2.263634	-0.4603513	1	2.30997	-11.49538	-1.053031E-005	0.0003961	11
	14	49	11953.13	2.301009	-0.6014162	1	2.378307	-14.64775	-9.226589E-005	0.0003335	11
	15	52	9515.62	2.343853	-0.7589276	1	2.463659	-17.94169	-5.29782E-005	0.0003274	11
	16	54	7546.875	2.393941	-0.9445897	1	2.573559	-21.53296	-3.331887E-005	0.0003722	11
	17	56	5928.309	2.451659	-1.172006	1	2.717394	-25.54996	-1.333687E-005	0.000393	11
	18	59	4733.456	2.511611	-1.426194	1	2.88829	-29.58965	-1.04778E-005	0.0003927	11
	19	61	3796.875	2.576622	-1.726599	1	3.101632	-33.8261	-8.230087E-005	0.0003406	11
	20	63	2987.132	2.655279	-2.123859	1	3.400188	-38.65501	-2.91093E-005	0.0003713	11
	21	66	2390.625	2.736763	-2.578816	1	3.760341	-43.29801	-6.333922E-005	0.0003291	11
	22	68	1884.191	2.841577	-3.18391	1	4.267533	-48.25172	-2.259072E-005	-0.0001315	10
	23	70	1516.544	2.950943	-3.862171	1	4.860497	-52.61789	-2.131413E-005	-0.0001304	10
	24	73	1193.986	3.096601	-4.787235	1	5.701452	-57.10337	-2.652772E-005	-0.0001279	10
	25	75	946.5144	3.270094	-5.907399	1	6.752102	-61.03288	2.102715E-005	-0.0001496	10
	26	77	751.7689	3.496523	-7.278154	1	8.074478	-64.33974	-2.301981E-005	-0.0001237	10
	27	80	597.4265	3.784507	-8.970896	1	9.7365	-67.12682	-2.241933E-005	-0.0001267	10
	28	82	477.4305	4.145742	-10.99971	1	11.75503	-69.3488	1.240481E-007	-0.0001238	10
	29	84	376.6741	4.643933	-13.63467	1	14.40383	-71.1913	-1.042171E-007	-0.0001258	10
	30	87	298.2954	5.290733	-16.83466	1	17.64647	-72.55331	-4.045384E-007	-0.0001227	10
	31	89	237.7717	6.118104	-20.64223	1	21.52982	-73.49083	-8.031434E-007	-0.000124	10
	32	91	189.0121	7.222424	-25.34124	1	26.35037	-74.09209	-1.133349E-006	-0.0001249	10
	33	94	150.2404	8.687685	-31.06131	1	32.25338	-74.37397	-1.569768E-006	-0.0001244	10
	34	96	119.1737	10.65028	-38.05958	1	39.52164	-74.36669	-1.818269E-006	-0.0001295	10
	35	99	95.0169	13.17109	-46.245	1	48.08407	-74.10246	1.875147E-007	-0.0001422	9
	36	101	75.60484	16.53206	-56.18071	1	58.56262	-73.60265	7.232325E-008	-0.0001386	9
	37	104	54.50582	23.22989	-73.75658	1	77.32827	-72.51801	1.053034E-007	-0.0001488	9
	38	106	45.95588	27.84596	-84.74474	1	89.2024	-71.81019	5.171211E-007	-0.0001397	9
	39	109	37.20238	34.93322	-100.2878	1	106.1978	-70.79525	2.658372E-008	-0.0001395	9
	40	111	30.04808	43.91932	-118.4292	1	126.3107	-69.65277	2.244463E-007	-0.0001416	9
	41	113	23.91582	56.03133	-140.7355	1	151.4793	-68.29091	4.75079E-007	-0.0001433	9
	42	116	18.60119	73.03949	-169.2503	1	184.3378	-66.65752	9.492589E-007	-0.0001435	9
	43	118	15.02404	91.52414	-197.0092	1	217.231	-65.08194	6.024115E-007	-0.0001299	9
	44	120	12.01923	115.7086	-229.4695	1	256.9917	-63.24075	3.253505E-007	-0.0001366	9
	45	123	9.450605	148.8289	-268.1912	1	306.719	-60.97254	2.502204E-007	-0.0001298	9
	46	125	7.512019	188.548	-307.7486	1	360.9149	-58.50549	7.520969E-007	-0.0001261	9
	47	128	5.978954	236.1393	-346.4824	1	419.2992	-55.72427	4.660519E-007	-0.0001387	8
	48	131	4.734848	294.7669	-386.6585	1	486.2019	-52.68012	8.664167E-007	-0.0001056	8
	49	134	3.75601	361.8407	-422.9063	1	556.5774	-49.44954	-8.55622E-008	-0.0001422	8
	50	138	3.004808	433.6682	-453.3411	1	627.3646	-46.27055	2.365514E-007	-0.0001219	8
	51	142	2.372217	515.7133	-478.8442	1	703.7414	-42.87697	4.170901E-007	-5.663079E-005	8
	52	146	1.878005	600.0853	-498.9734	1	780.4337	-39.74366	1.172649E-007	-0.0001493	8
	53	150	1.512097	678.718	-511.9662	1	850.1573	-37.02775	1.787143E-007	-0.0001435	8
	54	156	1.201923	763.8385	-520.6763	1	924.4203	-34.28059	4.06746E-007	-0.0001603	8
	55	162	0.956633	847.8069	-526.1854	1	997.821	-31.82551	-1.808439E-007	-0.0006719	8
