EXPLAIN
TAG	EISPOT
TITLE	LABEL	Potentiostatic EIS	Test Identifier
DATE	LABEL	10/5/2021	Date
TIME	LABEL	17:55:04	Time
NOTES	NOTES	1	Notes...
	
PSTAT	PSTAT	REF3000-16137	Potentiostat
VDC	POTEN	0.00000E+000	T	DC Voltage (V)
FREQINIT	QUANT	3.00000E+005	Initial Freq. (Hz)
FREQFINAL	QUANT	1.00000E+000	Final Freq. (Hz)
PTSPERDEC	QUANT	1.00000E+001	Points/decade
VAC	QUANT	5.00000E+001	AC Voltage (mV rms)
AREA	QUANT	1.00000E+000	Sample Area (cm^2)
SPEED	SELECTOR	2	Optimize for:
ZGUESS	QUANT	1.00000E+003	Estimated Z (ohms)
EOC	QUANT	0	Open Circuit (V)
SEQUENCER	TOGGLE	TRUE	Run as Sequence
PSTATMODEL	IQUANT	5	Pstat Model
PSTATSECTION	LABEL	REF3000-16137	Pstat Section
PSTATSERIALNO	LABEL	16137	Pstat Serial Number
CTRLMODE	IQUANT	1	Control Mode
IESTAB	IQUANT	0	I/E Stability
CASPEED	IQUANT	1	Control Amp Speed
CONVENTION	IQUANT	1	Current Convention
ICHRANGE	IQUANT	2	Ich Range
ICHRANGEMODE	TOGGLE	F	Ich Auto Range
ICHOFFSETENABLE	TOGGLE	T	Ich Offset Enable
ICHOFFSET	QUANT	0	Ich Offset (V)
ICHFILTER	IQUANT	3	Ich Filter
VCHRANGE	IQUANT	2	Vch Range
VCHRANGEMODE	TOGGLE	F	Vch Auto Range
VCHOFFSETENABLE	TOGGLE	T	Vch Offset Enable
VCHOFFSET	QUANT	0	Vch Offset (V)
VCHFILTER	IQUANT	3	Vch Filter
ACHRANGE	IQUANT	2	Ach Range
ACHOFFSETENABLE	TOGGLE	F	Ach Offset Enable
ACHOFFSET	QUANT	0	Ach Offset (V)
ACHFILTER	IQUANT	3	Ach Filter
IERANGELOWERLIMIT	IQUANT	2	I/E Range Lower Limit
IERANGEMODE	TOGGLE	F	I/E AutoRange
IERANGE	IQUANT	11	I/E Range
POSFEEDENABLE	TOGGLE	F	Positive Feedback IR Comp
POSFEEDRESISTANCE	QUANT	0	Positive Feedback Resistance (ohm)
ACHSELECT	IQUANT	0	Ach Select
CABLEID	IQUANT	13	Cable ID
DCCALDATE	LABEL	9/10/2021	DC Calibration Date
ACCALDATE	LABEL	9/10/2021	AC Calibration Date
THERMOSELECT	IQUANT	1	Thermo Select
FRAMEWORKVERSION	QUANT	6.33	Framework Version
INSTRUMENTVERSION	LABEL	3.50	Instrument Version
COMPLIANCEVOLTAGE	IQUANT	0	Compliance Voltage
ZCURVE	TABLE
	Pt	Time	Freq	Zreal	Zimag	Zsig	Zmod	Zphz	Idc	Vdc	IERange
	#	s	Hz	ohm	ohm	V	ohm	°	A	V	#
	0	10	300046.9	2.550311	2.182487	1	3.356685	40.55603	3.07011E-005	-0.000586	11
	1	14	238359.4	2.500082	1.740016	1	3.045992	34.83729	-8.754864E-005	-0.0005716	11
	2	17	189328.1	2.480699	1.361012	1	2.829526	28.75096	-4.419705E-005	-0.0001745	11
	3	19	150421.9	2.508413	0.9260292	1	2.673886	20.2626	-5.67241E-005	-0.0004395	12
	4	23	119484.4	2.458638	0.8081732	1	2.588058	18.19609	-2.762319E-005	0.0000973	11
	5	25	94921.88	2.47237	0.5113308	1	2.524693	11.68506	-0.000133	-0.0002931	12
	6	29	75421.88	2.468294	0.3533012	1	2.493451	8.145747	-0.0000968	-0.0002975	12
	7	33	59859.37	2.472311	0.2144572	1	2.481595	4.957633	-9.229802E-005	-0.0001808	12
	8	36	47578.12	2.478988	0.1338169	1	2.482597	3.089853	-5.394059E-005	0.0003128	11
	9	39	37828.12	2.492133	0.0084591	1	2.492147	0.1944797	-2.095067E-005	0.0003388	11
	10	41	30046.88	2.5103	-0.1124486	1	2.512818	-2.564842	-1.905192E-005	0.0003555	11
	11	44	23859.38	2.532835	-0.2339353	1	2.543615	-5.276927	-5.319771E-005	0.0003148	11
	12	46	18984.38	2.562361	-0.3591683	1	2.587411	-7.97921	-7.364527E-005	0.0003541	11
	13	49	15046.87	2.596216	-0.495871	1	2.643147	-10.81312	-1.279156E-005	0.000373	11
	14	51	11953.13	2.638465	-0.6459939	1	2.716396	-13.75749	-4.013777E-005	0.0003609	11
	15	53	9515.62	2.686332	-0.8129957	1	2.806661	-16.83799	-3.852941E-005	0.0003652	11
	16	55	7546.875	2.742204	-1.008988	1	2.921941	-20.20097	-1.437119E-005	0.0003726	11
	17	58	5928.309	2.809006	-1.25007	1	3.074604	-23.99013	-5.856217E-005	0.0003431	11
	18	60	4733.456	2.879303	-1.517087	1	3.254526	-27.78448	-6.949182E-005	0.0003463	11
	19	62	3796.875	2.954232	-1.830817	1	3.475539	-31.78761	-7.940362E-005	0.0003355	11
	20	65	2987.132	3.045757	-2.243423	1	3.782801	-36.37437	-6.216442E-005	0.0003587	11
	21	67	2390.625	3.142771	-2.717524	1	4.15475	-40.84965	6.917633E-007	-0.0001242	10
	22	69	1884.191	3.256155	-3.338314	1	4.663356	-45.7138	-4.085883E-006	-0.000138	10
	23	72	1516.544	3.375571	-4.037567	1	5.262739	-50.10299	-2.226946E-005	-0.0001269	10
	24	74	1193.986	3.529832	-4.990325	1	6.112533	-54.72689	-2.485988E-005	-0.0001269	10
	25	77	946.5144	3.713046	-6.145719	1	7.18029	-58.86098	-8.121277E-006	-0.0001149	10
	26	79	751.7689	3.940053	-7.560524	1	8.525581	-62.47441	7.088006E-006	-0.0001601	10
	27	81	597.4265	4.22895	-9.31401	1	10.22911	-65.57996	1.253486E-005	-0.0001654	10
	28	84	477.4305	4.583876	-11.42324	1	12.30863	-68.13557	-7.499844E-007	-0.000126	10
	29	86	376.6741	5.072052	-14.16408	1	15.04483	-70.29793	4.274966E-009	-0.0001287	10
	30	88	298.2954	5.701704	-17.50026	1	18.40566	-71.95403	-5.642539E-007	-0.0001241	10
	31	90	237.7717	6.503222	-21.47945	1	22.44234	-73.15553	3.033495E-007	-0.0001335	10
	32	93	189.0121	7.570195	-26.40595	1	27.46966	-74.00319	-7.03702E-007	-0.0001209	10
	33	95	150.2404	8.980823	-32.42409	1	33.64486	-74.51833	-1.453241E-006	-0.0001254	10
	34	98	119.1737	10.86782	-39.81836	1	41.27483	-74.73381	-1.283451E-006	-0.0001227	10
	35	100	95.0169	13.29651	-48.51317	1	50.30234	-74.67274	4.178625E-007	-0.0001395	9
	36	103	75.60484	16.54676	-59.13055	1	61.4021	-74.36655	2.909792E-007	-0.0001388	9
	37	105	54.50582	23.06474	-78.04966	1	81.38631	-73.53687	4.023456E-007	-0.0001422	9
	38	108	45.95588	27.60748	-89.98227	1	94.12216	-72.94345	4.24548E-007	-0.0001389	9
	39	110	37.20238	34.60339	-106.9247	1	112.3846	-72.06718	3.380778E-007	-0.0001388	9
	40	112	30.04808	43.54752	-126.8477	1	134.1146	-71.05237	6.246763E-007	-0.0001449	9
	41	115	23.91582	55.52164	-151.3899	1	161.25	-69.8597	5.844448E-007	-0.0001427	9
	42	117	18.60119	72.7807	-183.2871	1	197.2085	-68.34267	6.445957E-007	-0.0001435	9
	43	120	15.02404	91.19362	-214.5099	1	233.0896	-66.96841	1.051205E-006	-0.0001335	9
	44	122	12.01923	115.5189	-251.4991	1	276.7606	-65.32967	4.875782E-007	-0.000137	9
	45	124	9.450605	148.8468	-296.6601	1	331.9075	-63.35516	9.992422E-007	-0.0001446	9
	46	127	7.512019	189.2727	-344.5819	1	393.1423	-61.22079	1.0285E-006	-0.0001393	9
	47	130	5.978954	237.9995	-393.6517	1	460.0059	-58.84309	8.978923E-007	-0.0001273	8
	48	133	4.734848	300.8772	-447.5754	1	539.3059	-56.0895	4.043978E-007	-0.0001611	8
	49	136	3.75601	374.4772	-499.6925	1	624.4404	-53.15155	9.920882E-007	-0.000118	8
	50	139	3.004808	456.5086	-546.6519	1	712.1997	-50.13476	4.033204E-007	-0.0000971	8
	51	143	2.372217	552.8745	-591.5986	1	809.7278	-46.93791	8.781437E-007	-0.000118	8
	52	147	1.878005	657.5291	-628.4586	1	909.5629	-43.70502	8.576874E-007	-0.0001439	8
	53	152	1.512097	757.6166	-657.1415	1	1002.905	-40.93772	6.693141E-007	-4.787917E-005	8
	54	157	1.201923	867.8722	-682.4307	1	1104.044	-38.1789	9.258565E-007	-0.0001684	8
	55	164	0.956633	979.197	-702.428	1	1205.086	-35.65379	-9.036381E-009	-0.0006699	8
