EXPLAIN
TAG	EISPOT
TITLE	LABEL	Potentiostatic EIS	Test Identifier
DATE	LABEL	10/5/2021	Date
TIME	LABEL	17:52:11	Time
NOTES	NOTES	1	Notes...
	
PSTAT	PSTAT	REF3000-16137	Potentiostat
VDC	POTEN	0.00000E+000	T	DC Voltage (V)
FREQINIT	QUANT	3.00000E+005	Initial Freq. (Hz)
FREQFINAL	QUANT	1.00000E+000	Final Freq. (Hz)
PTSPERDEC	QUANT	1.00000E+001	Points/decade
VAC	QUANT	5.00000E+001	AC Voltage (mV rms)
AREA	QUANT	1.00000E+000	Sample Area (cm^2)
SPEED	SELECTOR	2	Optimize for:
ZGUESS	QUANT	1.00000E+003	Estimated Z (ohms)
EOC	QUANT	0	Open Circuit (V)
SEQUENCER	TOGGLE	TRUE	Run as Sequence
PSTATMODEL	IQUANT	5	Pstat Model
PSTATSECTION	LABEL	REF3000-16137	Pstat Section
PSTATSERIALNO	LABEL	16137	Pstat Serial Number
CTRLMODE	IQUANT	1	Control Mode
IESTAB	IQUANT	0	I/E Stability
CASPEED	IQUANT	1	Control Amp Speed
CONVENTION	IQUANT	1	Current Convention
ICHRANGE	IQUANT	2	Ich Range
ICHRANGEMODE	TOGGLE	F	Ich Auto Range
ICHOFFSETENABLE	TOGGLE	T	Ich Offset Enable
ICHOFFSET	QUANT	0	Ich Offset (V)
ICHFILTER	IQUANT	3	Ich Filter
VCHRANGE	IQUANT	2	Vch Range
VCHRANGEMODE	TOGGLE	F	Vch Auto Range
VCHOFFSETENABLE	TOGGLE	T	Vch Offset Enable
VCHOFFSET	QUANT	0	Vch Offset (V)
VCHFILTER	IQUANT	3	Vch Filter
ACHRANGE	IQUANT	2	Ach Range
ACHOFFSETENABLE	TOGGLE	F	Ach Offset Enable
ACHOFFSET	QUANT	0	Ach Offset (V)
ACHFILTER	IQUANT	3	Ach Filter
IERANGELOWERLIMIT	IQUANT	2	I/E Range Lower Limit
IERANGEMODE	TOGGLE	F	I/E AutoRange
IERANGE	IQUANT	11	I/E Range
POSFEEDENABLE	TOGGLE	F	Positive Feedback IR Comp
POSFEEDRESISTANCE	QUANT	0	Positive Feedback Resistance (ohm)
ACHSELECT	IQUANT	0	Ach Select
CABLEID	IQUANT	13	Cable ID
DCCALDATE	LABEL	9/10/2021	DC Calibration Date
ACCALDATE	LABEL	9/10/2021	AC Calibration Date
THERMOSELECT	IQUANT	1	Thermo Select
FRAMEWORKVERSION	QUANT	6.33	Framework Version
INSTRUMENTVERSION	LABEL	3.50	Instrument Version
COMPLIANCEVOLTAGE	IQUANT	0	Compliance Voltage
ZCURVE	TABLE
	Pt	Time	Freq	Zreal	Zimag	Zsig	Zmod	Zphz	Idc	Vdc	IERange
	#	s	Hz	ohm	ohm	V	ohm	°	A	V	#
	0	10	300046.9	2.37382	2.204558	1	3.239614	42.88275	-7.773652E-005	-0.0005903	11
	1	13	238359.4	2.333064	1.741961	1	2.911635	36.74652	-0.0001211	-0.0004861	11
	2	16	189328.1	2.383905	1.204952	1	2.671126	26.81446	-0.0000963	-0.0006975	12
	3	20	150421.9	2.343687	0.9372799	1	2.524155	21.7973	-0.0001448	-0.0005084	12
	4	23	119484.4	2.311038	0.7105829	1	2.417814	17.09127	-3.422783E-005	-0.0004476	12
	5	27	94921.88	2.299792	0.5222687	1	2.358348	12.79452	-0.0001125	-0.0003049	12
	6	30	75421.88	2.294752	0.3628739	1	2.323266	8.985894	-0.0001206	-0.0002426	12
	7	34	59859.37	2.291065	0.2735109	1	2.307334	6.807839	-2.639227E-005	0.000271	11
	8	37	47578.12	2.30115	0.1398915	1	2.305398	3.478843	-6.224484E-005	0.0002802	11
	9	39	37828.12	2.314057	0.0156033	1	2.31411	0.3863303	-1.566664E-005	0.0003319	11
	10	42	30046.88	2.332628	-0.1032267	1	2.334911	-2.53388	-6.862315E-005	0.0003345	11
	11	44	23859.38	2.353787	-0.2224906	1	2.36428	-5.399812	-6.433068E-005	0.0003038	11
	12	47	18984.38	2.381438	-0.344614	1	2.406244	-8.234019	-2.778796E-005	0.0003392	11
	13	49	15046.87	2.415617	-0.4777944	1	2.462416	-11.18834	-8.014239E-005	0.000297	11
	14	51	11953.13	2.455793	-0.623105	1	2.53361	-14.23713	-5.601308E-005	0.0003621	11
	15	53	9515.62	2.500592	-0.785675	1	2.621116	-17.44249	-6.906835E-005	0.0003454	11
	16	56	7546.875	2.554054	-0.975791	1	2.734111	-20.90963	-7.222898E-005	0.0003579	11
	17	58	5928.309	2.615606	-1.209381	1	2.881666	-24.81446	-4.881763E-005	0.0003586	11
	18	60	4733.456	2.679838	-1.4696	1	3.056347	-28.73998	-2.854749E-005	0.0003492	11
	19	63	3796.875	2.750623	-1.774076	1	3.273113	-32.8209	-2.135205E-005	0.0003708	11
	20	65	2987.132	2.834435	-2.18083	1	3.576316	-37.57489	-6.825068E-005	0.0003468	11
	21	67	2390.625	2.925379	-2.643837	1	3.943059	-42.10598	2.616386E-005	-0.0001539	10
	22	70	1884.191	3.031154	-3.256853	1	4.449155	-47.05566	7.628764E-006	-0.0001463	10
	23	72	1516.544	3.144951	-3.946043	1	5.045986	-51.44555	-2.507081E-005	-0.0001292	10
	24	74	1193.986	3.294088	-4.884162	1	5.891184	-56.00259	-2.450318E-005	-0.0001258	10
	25	77	946.5144	3.47128	-6.022581	1	6.95135	-60.04182	-1.932658E-005	-0.0001809	10
	26	79	751.7689	3.696927	-7.415823	1	8.286235	-63.50288	-2.375843E-005	-0.0001264	10
	27	81	597.4265	3.980599	-9.133677	1	9.96339	-66.45168	1.661579E-005	-0.0001459	10
	28	84	477.4305	4.343824	-11.20658	1	12.019	-68.81299	-6.753622E-007	-0.0001233	10
	29	86	376.6741	4.836872	-13.89393	1	14.71179	-70.80554	-7.161362E-007	-0.0001259	10
	30	88	298.2954	5.474816	-17.16101	1	18.01316	-72.30595	-8.428782E-007	-0.0001264	10
	31	91	237.7717	6.288657	-21.0534	1	21.97255	-73.3691	-9.978819E-007	-0.0001273	10
	32	93	189.0121	7.375627	-25.86544	1	26.89648	-74.0843	-1.267127E-006	-0.0001268	10
	33	96	150.2404	8.81299	-31.73324	1	32.93428	-74.4789	-1.197526E-006	-0.0001283	10
	34	98	119.1737	10.73931	-38.92804	1	40.38224	-74.5771	-1.301519E-006	-0.0001291	10
	35	100	95.0169	13.215	-47.36519	1	49.17415	-74.41077	3.56035E-007	-0.0001406	9
	36	103	75.60484	16.52787	-57.63847	1	59.96135	-73.99972	3.241009E-007	-0.0001433	9
	37	105	54.50582	23.14758	-75.88307	1	79.33506	-73.03605	1.530537E-007	-0.0001441	9
	38	108	45.95588	27.73203	-87.32811	1	91.62567	-72.38216	7.443675E-007	-0.0001403	9
	39	110	37.20238	34.74334	-103.5036	1	109.1792	-71.4445	2.502944E-007	-0.0001377	9
	40	113	30.04808	43.70954	-122.5209	1	130.0842	-70.36605	1.44832E-007	-0.0001415	9
	41	115	23.91582	55.9253	-146.0952	1	156.4335	-69.05313	-9.659443E-008	-0.0001415	9
	42	118	18.60119	72.94118	-176.0929	1	190.602	-67.49969	4.840624E-007	-0.0001436	9
	43	120	15.02404	91.4034	-205.6137	1	225.0146	-66.03297	-1.135455E-007	-0.0001472	9
	44	122	12.01923	115.6233	-240.2734	1	266.6459	-64.30241	6.525386E-007	-0.0001381	9
	45	125	9.450605	148.851	-282.2023	1	319.0529	-62.19006	2.226556E-007	-0.0001707	9
	46	127	7.512019	189.2095	-325.6522	1	376.6292	-59.84267	9.647978E-008	-0.0001776	9
	47	130	5.978954	237.3244	-369.4831	1	439.1363	-57.28677	-5.21065E-008	-0.0001279	8
	48	133	4.734848	298.4872	-415.9297	1	511.9493	-54.33532	2.404748E-007	-0.0001408	8
	49	136	3.75601	368.961	-460.4108	1	590.0088	-51.29224	1.208778E-007	-0.0001436	8
	50	140	3.004808	445.7875	-498.3288	1	668.624	-48.1853	6.140282E-007	-0.000152	8
	51	143	2.372217	534.4911	-533.0339	1	754.8549	-44.92179	2.565728E-007	-0.000121	8
	52	147	1.878005	629.5417	-560.6942	1	843.0308	-41.6895	1.799082E-007	-0.0001289	8
	53	152	1.512097	718.2385	-581.2842	1	923.9902	-38.98391	3.318611E-007	-0.0001847	8
	54	158	1.201923	815.0843	-596.8343	1	1010.234	-36.21294	3.401209E-007	-0.0001512	8
	55	164	0.956633	911.8765	-608.0704	1	1096.024	-33.69671	2.839612E-008	-0.0006752	8
