EXPLAIN
TAG	EISPOT
TITLE	LABEL	Potentiostatic EIS	Test Identifier
DATE	LABEL	10/5/2021	Date
TIME	LABEL	17:37:58	Time
NOTES	NOTES	1	Notes...
	
PSTAT	PSTAT	REF3000-16137	Potentiostat
VDC	POTEN	0.00000E+000	T	DC Voltage (V)
FREQINIT	QUANT	3.00000E+005	Initial Freq. (Hz)
FREQFINAL	QUANT	1.00000E+000	Final Freq. (Hz)
PTSPERDEC	QUANT	1.00000E+001	Points/decade
VAC	QUANT	5.00000E+001	AC Voltage (mV rms)
AREA	QUANT	1.00000E+000	Sample Area (cm^2)
SPEED	SELECTOR	2	Optimize for:
ZGUESS	QUANT	1.00000E+003	Estimated Z (ohms)
EOC	QUANT	0	Open Circuit (V)
SEQUENCER	TOGGLE	TRUE	Run as Sequence
PSTATMODEL	IQUANT	5	Pstat Model
PSTATSECTION	LABEL	REF3000-16137	Pstat Section
PSTATSERIALNO	LABEL	16137	Pstat Serial Number
CTRLMODE	IQUANT	1	Control Mode
IESTAB	IQUANT	0	I/E Stability
CASPEED	IQUANT	1	Control Amp Speed
CONVENTION	IQUANT	1	Current Convention
ICHRANGE	IQUANT	2	Ich Range
ICHRANGEMODE	TOGGLE	F	Ich Auto Range
ICHOFFSETENABLE	TOGGLE	T	Ich Offset Enable
ICHOFFSET	QUANT	0	Ich Offset (V)
ICHFILTER	IQUANT	3	Ich Filter
VCHRANGE	IQUANT	2	Vch Range
VCHRANGEMODE	TOGGLE	F	Vch Auto Range
VCHOFFSETENABLE	TOGGLE	T	Vch Offset Enable
VCHOFFSET	QUANT	0	Vch Offset (V)
VCHFILTER	IQUANT	3	Vch Filter
ACHRANGE	IQUANT	2	Ach Range
ACHOFFSETENABLE	TOGGLE	F	Ach Offset Enable
ACHOFFSET	QUANT	0	Ach Offset (V)
ACHFILTER	IQUANT	3	Ach Filter
IERANGELOWERLIMIT	IQUANT	2	I/E Range Lower Limit
IERANGEMODE	TOGGLE	F	I/E AutoRange
IERANGE	IQUANT	11	I/E Range
POSFEEDENABLE	TOGGLE	F	Positive Feedback IR Comp
POSFEEDRESISTANCE	QUANT	0	Positive Feedback Resistance (ohm)
ACHSELECT	IQUANT	0	Ach Select
CABLEID	IQUANT	13	Cable ID
DCCALDATE	LABEL	9/10/2021	DC Calibration Date
ACCALDATE	LABEL	9/10/2021	AC Calibration Date
THERMOSELECT	IQUANT	1	Thermo Select
FRAMEWORKVERSION	QUANT	6.33	Framework Version
INSTRUMENTVERSION	LABEL	3.50	Instrument Version
COMPLIANCEVOLTAGE	IQUANT	0	Compliance Voltage
ZCURVE	TABLE
	Pt	Time	Freq	Zreal	Zimag	Zsig	Zmod	Zphz	Idc	Vdc	IERange
	#	s	Hz	ohm	ohm	V	ohm	°	A	V	#
	0	10	300046.9	1.831257	2.212991	1	2.872426	50.39214	-9.429432E-005	-0.0007675	11
	1	13	238359.4	1.929566	1.594694	1	2.503253	39.57211	-0.0001527	-0.0011624	12
	2	18	189328.1	1.852431	1.252284	1	2.236005	34.05955	-0.0001738	-0.0007971	12
	3	21	150421.9	1.750481	1.071604	1	2.052442	31.474	-0.0001648	-0.0002921	11
	4	24	119484.4	1.744803	0.8259488	1	1.930422	25.33177	1.96185E-005	-3.670667E-005	11
	5	26	94921.88	1.741445	0.6170497	1	1.847534	19.51086	-3.691886E-005	0.0001101	11
	6	29	75421.88	1.741777	0.4443997	1	1.797576	14.31316	-3.8833E-005	0.000152	11
	7	31	59859.37	1.746643	0.2952679	1	1.771425	9.59507	-4.414093E-005	0.0002189	11
	8	34	47578.12	1.75529	0.1654649	1	1.763072	5.385152	-7.372453E-005	0.0002602	11
	9	36	37828.12	1.766101	0.0473185	1	1.766735	1.534737	-5.972555E-005	0.0002667	11
	10	39	30046.88	1.78171	-0.0634504	1	1.782839	-2.039561	-9.123088E-005	0.0002912	11
	11	41	23859.38	1.801832	-0.1719384	1	1.810017	-5.4509	-2.926325E-005	0.0003148	11
	12	44	18984.38	1.824228	-0.2817625	1	1.84586	-8.78028	-1.713137E-005	0.0003817	11
	13	46	15046.87	1.85113	-0.3997912	1	1.89381	-12.18707	-7.336112E-005	0.0003556	11
	14	48	11953.13	1.881807	-0.528119	1	1.954509	-15.67649	-2.353702E-005	0.0003923	11
	15	51	9515.62	1.915756	-0.6716093	1	2.030069	-19.31921	-7.129871E-005	0.0003474	11
	16	53	7546.875	1.954098	-0.8407146	1	2.127276	-23.2789	-9.372681E-005	0.0003284	11
	17	55	5928.309	1.999187	-1.050928	1	2.258583	-27.72991	-7.300964E-005	0.0003489	11
	18	58	4733.456	2.045608	-1.287061	1	2.416824	-32.17739	-4.31293E-005	0.000374	11
	19	60	3796.875	2.096823	-1.566571	1	2.617406	-36.76402	-1.572032E-005	0.0003874	11
	20	62	2987.132	2.160212	-1.942631	1	2.905225	-41.96435	-8.414757E-005	0.0003595	11
	21	65	2390.625	2.230203	-2.370308	1	3.254561	-46.74436	-1.947023E-005	0.0003891	11
	22	67	1884.191	2.318717	-2.94007	1	3.74439	-51.73856	-1.723452E-005	0.0003912	11
	23	69	1516.544	2.422227	-3.582572	1	4.324582	-55.93683	-1.379862E-006	-0.0001487	10
	24	72	1193.986	2.562778	-4.451839	1	5.136799	-60.07237	1.851406E-005	-0.0001488	10
	25	74	946.5144	2.736744	-5.502172	1	6.145215	-63.55456	-3.067173E-005	-0.0001355	10
	26	76	751.7689	2.964724	-6.781608	1	7.401337	-66.38644	5.15415E-006	-0.0001552	10
	27	79	597.4265	3.258986	-8.355017	1	8.968126	-68.69107	1.885936E-005	-0.0001516	10
	28	81	477.4305	3.635138	-10.24243	1	10.86837	-70.45973	-1.754258E-006	-0.0001203	10
	29	83	376.6741	4.158185	-12.67591	1	13.34051	-71.83852	-1.794187E-006	-0.0001204	10
	30	86	298.2954	4.842492	-15.61596	1	16.34955	-72.77139	-1.74818E-006	-0.0001185	10
	31	88	237.7717	5.722017	-19.09281	1	19.9318	-73.3168	-1.786324E-006	-0.0001242	10
	32	90	189.0121	6.898686	-23.3564	1	24.35392	-73.54465	-1.852031E-006	-0.0001225	10
	33	93	150.2404	8.457947	-28.5028	1	29.73124	-73.47222	-2.144786E-006	-0.0001262	10
	34	95	119.1737	10.5364	-34.73868	1	36.3014	-73.12721	-2.184465E-006	-0.000119	10
	35	98	95.0169	13.18581	-41.95444	1	43.97773	-72.55265	-4.98203E-007	-0.0001386	9
	36	100	75.60484	16.67769	-50.61503	1	53.2919	-71.76292	-7.034711E-007	-0.000141	9
	37	103	54.50582	23.51254	-65.70307	1	69.78347	-70.30972	-7.321227E-007	-0.0001468	9
	38	105	45.95588	28.16909	-75.02764	1	80.1414	-69.42138	5.427315E-008	-0.0001341	9
	39	108	37.20238	35.19266	-88.0557	1	94.8279	-68.21521	-7.269579E-007	-0.0001328	9
	40	110	30.04808	44.05453	-103.1395	1	112.1541	-66.87095	-7.363883E-008	-0.0001855	9
	41	112	23.91582	55.89653	-121.3838	1	133.6355	-65.27421	-2.314268E-007	-0.000143	9
	42	115	18.60119	72.87666	-144.4541	1	161.7962	-63.2292	5.696022E-007	-0.0001384	9
	43	117	15.02404	91.22358	-166.0841	1	189.4879	-61.22171	6.235474E-009	-0.0001272	9
	44	119	12.01923	115.05	-190.2638	1	222.3439	-58.83921	2.118184E-007	-0.0001739	9
	45	122	9.450605	147.0421	-217.0352	1	262.1558	-55.88222	-5.536469E-007	-0.0001408	9
	46	124	7.512019	183.7505	-242.0353	1	303.8838	-52.79464	-1.032171E-007	-0.0001479	9
	47	127	5.978954	226.4598	-264.3558	1	348.092	-49.41506	1.954943E-007	-0.0001427	9
	48	130	4.734848	274.8888	-283.4206	1	394.8304	-45.8755	-3.327933E-007	-0.0001625	9
	49	133	3.75601	325.46	-296.366	1	440.1784	-42.32119	4.70156E-007	-0.0001087	8
	50	137	3.004808	376.8896	-305.4597	1	485.1303	-39.02391	6.854823E-007	-0.000148	8
	51	141	2.372217	432.3569	-309.3209	1	531.6126	-35.58105	6.163116E-009	-0.0002013	8
	52	145	1.878005	485.247	-308.9875	1	575.272	-32.48749	3.066235E-007	-0.0001171	8
	53	149	1.512097	532.0179	-306.3954	1	613.9391	-29.93815	4.700885E-007	-0.0002112	8
	54	155	1.201923	580.0699	-301.5945	1	653.7892	-27.47118	5.277108E-008	-0.0001083	8
	55	161	0.956633	625.1973	-296.3889	1	691.8946	-25.36435	-9.045105E-007	-0.000673	8
