EXPLAIN
TAG	EISPOT
TITLE	LABEL	Potentiostatic EIS	Test Identifier
DATE	LABEL	10/5/2021	Date
TIME	LABEL	18:23:13	Time
NOTES	NOTES	1	Notes...
	
PSTAT	PSTAT	REF3000-16137	Potentiostat
VDC	POTEN	0.00000E+000	T	DC Voltage (V)
FREQINIT	QUANT	3.00000E+005	Initial Freq. (Hz)
FREQFINAL	QUANT	1.00000E+000	Final Freq. (Hz)
PTSPERDEC	QUANT	1.00000E+001	Points/decade
VAC	QUANT	5.00000E+001	AC Voltage (mV rms)
AREA	QUANT	1.00000E+000	Sample Area (cm^2)
SPEED	SELECTOR	2	Optimize for:
ZGUESS	QUANT	1.00000E+003	Estimated Z (ohms)
EOC	QUANT	0	Open Circuit (V)
SEQUENCER	TOGGLE	TRUE	Run as Sequence
PSTATMODEL	IQUANT	5	Pstat Model
PSTATSECTION	LABEL	REF3000-16137	Pstat Section
PSTATSERIALNO	LABEL	16137	Pstat Serial Number
CTRLMODE	IQUANT	1	Control Mode
IESTAB	IQUANT	0	I/E Stability
CASPEED	IQUANT	1	Control Amp Speed
CONVENTION	IQUANT	1	Current Convention
ICHRANGE	IQUANT	2	Ich Range
ICHRANGEMODE	TOGGLE	F	Ich Auto Range
ICHOFFSETENABLE	TOGGLE	T	Ich Offset Enable
ICHOFFSET	QUANT	0	Ich Offset (V)
ICHFILTER	IQUANT	3	Ich Filter
VCHRANGE	IQUANT	2	Vch Range
VCHRANGEMODE	TOGGLE	F	Vch Auto Range
VCHOFFSETENABLE	TOGGLE	T	Vch Offset Enable
VCHOFFSET	QUANT	0	Vch Offset (V)
VCHFILTER	IQUANT	3	Vch Filter
ACHRANGE	IQUANT	2	Ach Range
ACHOFFSETENABLE	TOGGLE	F	Ach Offset Enable
ACHOFFSET	QUANT	0	Ach Offset (V)
ACHFILTER	IQUANT	3	Ach Filter
IERANGELOWERLIMIT	IQUANT	2	I/E Range Lower Limit
IERANGEMODE	TOGGLE	F	I/E AutoRange
IERANGE	IQUANT	11	I/E Range
POSFEEDENABLE	TOGGLE	F	Positive Feedback IR Comp
POSFEEDRESISTANCE	QUANT	0	Positive Feedback Resistance (ohm)
ACHSELECT	IQUANT	0	Ach Select
CABLEID	IQUANT	13	Cable ID
DCCALDATE	LABEL	9/10/2021	DC Calibration Date
ACCALDATE	LABEL	9/10/2021	AC Calibration Date
THERMOSELECT	IQUANT	1	Thermo Select
FRAMEWORKVERSION	QUANT	6.33	Framework Version
INSTRUMENTVERSION	LABEL	3.50	Instrument Version
COMPLIANCEVOLTAGE	IQUANT	0	Compliance Voltage
ZCURVE	TABLE
	Pt	Time	Freq	Zreal	Zimag	Zsig	Zmod	Zphz	Idc	Vdc	IERange
	#	s	Hz	ohm	ohm	V	ohm	°	A	V	#
	0	8	300046.9	9.26558	2.12543	1	9.50623	12.91956	-1.128042E-005	-0.0008292	10
	1	11	238359.4	9.258252	1.668906	1	9.40747	10.21848	-1.622311E-005	-0.0006445	10
	2	14	189328.1	9.272191	1.301096	1	9.363032	7.987724	-7.24393E-006	-0.000553	10
	3	17	150421.9	9.28612	0.990626	1	9.33881	6.089178	6.142084E-005	-0.0004116	10
	4	19	119484.4	9.316129	0.7547016	1	9.346648	4.631429	-8.726455E-005	-0.0001592	10
	5	22	94921.88	9.346445	0.5566424	1	9.363007	3.408315	-2.611043E-005	-0.000214	10
	6	24	75421.88	9.37288	0.3698812	1	9.380176	2.259886	5.784276E-006	-0.0002323	10
	7	27	59859.37	9.408382	0.2031017	1	9.410574	1.23667	-3.578249E-006	-0.0001975	10
	8	29	47578.12	9.447564	0.0548492	1	9.447723	0.3326351	-2.354657E-005	-0.0001119	10
	9	32	37828.12	9.48883	-0.0859825	1	9.489219	-0.5191686	1.108852E-005	-0.0001321	10
	10	34	30046.88	9.53251	-0.2267645	1	9.53521	-1.362725	-2.949648E-005	-0.000156	10
	11	37	23859.38	9.5803	-0.3753768	1	9.58765	-2.243824	7.491536E-006	-0.0001765	10
	12	39	18984.38	9.63184	-0.5372041	1	9.64681	-3.192293	2.605568E-005	-0.0001512	10
	13	42	15046.87	9.69257	-0.7239048	1	9.71957	-4.271294	-3.203964E-005	-0.0001415	10
	14	44	11953.13	9.75846	-0.9350753	1	9.80316	-5.473485	-1.404733E-005	-0.0001539	10
	15	46	9515.62	9.8389	-1.18297	1	9.90976	-6.855988	-1.00961E-005	-0.0001317	10
	16	49	7546.875	9.9358	-1.483247	1	10.0459	-8.490591	-5.062122E-006	-0.0001592	10
	17	51	5928.309	10.05722	-1.854551	1	10.22678	-10.44797	-2.830946E-005	-0.000114	10
	18	53	4733.456	10.19731	-2.267479	1	10.44637	-12.53635	-1.699553E-005	-0.0001427	10
	19	56	3796.875	10.3619	-2.74569	1	10.7195	-14.84113	1.861875E-005	-0.000177	10
	20	58	2987.132	10.57714	-3.364141	1	11.09925	-17.64367	1.200444E-005	-0.0001791	10
	21	60	2390.625	10.81428	-4.050871	1	11.54808	-20.53522	-3.06546E-005	-0.0001395	10
	22	63	1884.191	11.1105	-4.916883	1	12.14986	-23.87148	-2.511364E-005	-0.0001214	10
	23	65	1516.544	11.42005	-5.86116	1	12.83631	-27.16844	-2.653149E-005	-0.0001122	10
	24	67	1193.986	11.80749	-7.106111	1	13.78092	-31.04081	7.68909E-006	-0.000142	10
	25	70	946.5144	12.23367	-8.575524	1	14.93996	-35.02958	9.967089E-006	-0.0001104	10
	26	72	751.7689	12.70232	-10.34361	1	16.38107	-39.15624	-1.352235E-005	-0.0001217	10
	27	74	597.4265	13.21925	-12.50075	1	18.19388	-43.39983	6.539986E-006	-0.0001428	10
	28	77	477.4305	13.79489	-15.07835	1	20.43662	-47.54521	-2.064146E-006	-0.0001209	10
	29	79	376.6741	14.46484	-18.43778	1	23.43466	-51.88504	-2.068484E-006	-0.0001219	10
	30	81	298.2954	15.22282	-22.55115	1	27.20825	-55.97926	-1.479131E-006	-0.0001249	10
	31	84	237.7717	16.09149	-27.51268	1	31.87293	-59.67768	-1.769444E-006	-0.0001255	10
	32	86	189.0121	17.14147	-33.72462	1	37.83094	-63.05678	-1.577671E-006	-0.0001237	10
	33	89	150.2404	18.40638	-41.36574	1	45.27604	-66.01252	7.956454E-007	-0.0001432	9
	34	91	119.1737	20.03145	-50.96258	1	54.75805	-68.5421	8.395322E-007	-0.0001425	9
	35	94	95.0169	22.04203	-62.53614	1	66.30701	-70.58405	8.268571E-007	-0.0001459	9
	36	96	75.60484	24.63232	-76.90429	1	80.75284	-72.23982	8.849845E-007	-0.0001527	9
	37	99	54.50582	29.68426	-103.3639	1	107.5419	-73.97689	7.264264E-007	-0.0001464	9
	38	101	45.95588	33.19152	-120.5698	1	125.055	-74.60836	7.250586E-007	-0.0001409	9
	39	103	37.20238	38.6258	-145.7737	1	150.8042	-75.15932	8.329589E-007	-0.0001446	9
	40	106	30.04808	45.6884	-176.4987	1	182.3163	-75.487	7.184191E-007	-0.0001471	9
	41	108	23.91582	55.50864	-216.1035	1	223.1187	-75.59436	7.267773E-007	-0.0001461	9
	42	111	18.60119	70.06371	-269.6507	1	278.6044	-75.43483	7.109982E-007	-0.000139	9
	43	113	15.02404	86.48303	-324.697	1	336.017	-75.08553	7.433353E-007	-0.0001505	9
	44	115	12.01923	108.7066	-393.1068	1	407.8604	-74.54217	9.684331E-007	-0.0001395	9
	45	118	9.450605	139.6398	-479.2498	1	499.1789	-73.75537	4.30177E-007	-0.0001233	8
	46	120	7.512019	178.697	-579.0544	1	606.0005	-72.8497	4.634573E-007	-0.0001247	8
	47	123	5.978954	228.0253	-695.7612	1	732.1743	-71.85422	5.317634E-007	-0.0001447	8
	48	126	4.734848	292.5633	-836.1415	1	885.8475	-70.71522	7.11297E-007	-0.0000995	8
	49	129	3.75601	373.6027	-1000.209	1	1067.707	-69.51811	5.376908E-007	-0.0001361	8
	50	133	3.004808	471.6646	-1183.865	1	1274.364	-68.27713	4.743706E-007	-8.949857E-005	8
	51	136	2.372217	603.5591	-1411.337	1	1534.978	-66.846	6.068394E-007	-5.71153E-005	8
	52	141	1.878005	770.7432	-1668.533	1	1837.946	-65.20643	5.786335E-007	-0.0001496	8
	53	145	1.512097	966.973	-1938.495	1	2166.288	-63.48876	5.524505E-007	-2.573944E-005	8
	54	151	1.201923	1227.471	-2259.206	1	2571.127	-61.48389	6.401831E-007	-0.0001598	8
	55	157	0.956633	1548.588	-2605.963	1	3031.364	-59.27919	4.123242E-007	-0.0006755	8
