EXPLAIN
TAG	EISPOT
TITLE	LABEL	Potentiostatic EIS	Test Identifier
DATE	LABEL	10/5/2021	Date
TIME	LABEL	18:37:10	Time
NOTES	NOTES	1	Notes...
	
PSTAT	PSTAT	REF3000-16137	Potentiostat
VDC	POTEN	0.00000E+000	T	DC Voltage (V)
FREQINIT	QUANT	3.00000E+005	Initial Freq. (Hz)
FREQFINAL	QUANT	1.00000E+000	Final Freq. (Hz)
PTSPERDEC	QUANT	1.00000E+001	Points/decade
VAC	QUANT	5.00000E+001	AC Voltage (mV rms)
AREA	QUANT	1.00000E+000	Sample Area (cm^2)
SPEED	SELECTOR	2	Optimize for:
ZGUESS	QUANT	1.00000E+003	Estimated Z (ohms)
EOC	QUANT	0	Open Circuit (V)
SEQUENCER	TOGGLE	TRUE	Run as Sequence
PSTATMODEL	IQUANT	5	Pstat Model
PSTATSECTION	LABEL	REF3000-16137	Pstat Section
PSTATSERIALNO	LABEL	16137	Pstat Serial Number
CTRLMODE	IQUANT	1	Control Mode
IESTAB	IQUANT	0	I/E Stability
CASPEED	IQUANT	1	Control Amp Speed
CONVENTION	IQUANT	1	Current Convention
ICHRANGE	IQUANT	2	Ich Range
ICHRANGEMODE	TOGGLE	F	Ich Auto Range
ICHOFFSETENABLE	TOGGLE	T	Ich Offset Enable
ICHOFFSET	QUANT	0	Ich Offset (V)
ICHFILTER	IQUANT	3	Ich Filter
VCHRANGE	IQUANT	2	Vch Range
VCHRANGEMODE	TOGGLE	F	Vch Auto Range
VCHOFFSETENABLE	TOGGLE	T	Vch Offset Enable
VCHOFFSET	QUANT	0	Vch Offset (V)
VCHFILTER	IQUANT	3	Vch Filter
ACHRANGE	IQUANT	2	Ach Range
ACHOFFSETENABLE	TOGGLE	F	Ach Offset Enable
ACHOFFSET	QUANT	0	Ach Offset (V)
ACHFILTER	IQUANT	3	Ach Filter
IERANGELOWERLIMIT	IQUANT	2	I/E Range Lower Limit
IERANGEMODE	TOGGLE	F	I/E AutoRange
IERANGE	IQUANT	11	I/E Range
POSFEEDENABLE	TOGGLE	F	Positive Feedback IR Comp
POSFEEDRESISTANCE	QUANT	0	Positive Feedback Resistance (ohm)
ACHSELECT	IQUANT	0	Ach Select
CABLEID	IQUANT	13	Cable ID
DCCALDATE	LABEL	9/10/2021	DC Calibration Date
ACCALDATE	LABEL	9/10/2021	AC Calibration Date
THERMOSELECT	IQUANT	1	Thermo Select
FRAMEWORKVERSION	QUANT	6.33	Framework Version
INSTRUMENTVERSION	LABEL	3.50	Instrument Version
COMPLIANCEVOLTAGE	IQUANT	0	Compliance Voltage
ZCURVE	TABLE
	Pt	Time	Freq	Zreal	Zimag	Zsig	Zmod	Zphz	Idc	Vdc	IERange
	#	s	Hz	ohm	ohm	V	ohm	°	A	V	#
	0	7	300046.9	33.11251	0.8650444	1	33.12381	1.496477	-0.0000982	-0.0005306	11
	1	12	238359.4	33.34397	1.016484	1	33.35946	1.746108	7.722827E-005	-0.0004617	10
	2	15	189328.1	33.53844	0.7624342	1	33.54711	1.302289	-2.5912E-005	-0.0003503	10
	3	17	150421.9	33.74159	0.5257801	1	33.74569	0.8927423	2.308495E-005	-0.0002754	10
	4	20	119484.4	33.91677	0.3824413	1	33.91893	0.6460326	-1.434841E-005	-8.457349E-005	10
	5	22	94921.88	34.09016	0.189397	1	34.09068	0.3183187	-3.218981E-006	-0.0001812	10
	6	25	75421.88	34.27879	0.0609846	1	34.27884	0.1019334	-2.163794E-005	-0.0001441	10
	7	27	59859.37	34.46079	-0.0576742	1	34.46084	-0.0958911	-1.958437E-005	-7.086709E-005	10
	8	30	47578.12	34.64011	-0.1758163	1	34.64055	-0.290803	-2.793881E-005	-0.0001491	10
	9	32	37828.12	34.83429	-0.2960272	1	34.83555	-0.4868967	-2.373391E-005	-9.445252E-005	10
	10	35	30046.88	35.00719	-0.4186423	1	35.00969	-0.6851534	2.378208E-005	-0.0001783	10
	11	38	23859.38	35.19535	-0.5770273	1	35.20008	-0.9392794	2.589581E-005	-0.0001808	10
	12	40	18984.38	35.38456	-0.7470507	1	35.39244	-1.209468	-2.84904E-005	-0.0001382	10
	13	42	15046.87	35.52759	-0.9238462	1	35.5396	-1.489563	-9.042588E-006	-0.0001194	9
	14	45	11953.13	35.73454	-1.152721	1	35.75313	-1.847601	-8.343352E-006	-0.0001004	9
	15	47	9515.62	35.94395	-1.459846	1	35.97358	-2.325763	-3.131429E-006	0.0001682	9
	16	49	7546.875	36.16097	-1.800987	1	36.2058	-2.851244	-8.808077E-006	0.000339	9
	17	52	5928.309	36.40843	-2.277974	1	36.47962	-3.580171	1.715067E-005	-0.0006285	9
	18	54	4733.456	36.66384	-2.800711	1	36.77066	-4.368279	1.65876E-005	-0.0004508	9
	19	56	3796.875	36.96878	-3.415048	1	37.12617	-5.277808	-1.436762E-005	0.0002194	9
	20	59	2987.132	37.28674	-4.242907	1	37.52737	-6.491838	1.213749E-005	-0.0006451	9
	21	61	2390.625	37.66798	-5.19077	1	38.02396	-7.846127	-1.215023E-005	0.0003162	9
	22	63	1884.191	38.13761	-6.393568	1	38.66982	-9.51684	-1.510046E-005	0.0002158	9
	23	66	1516.544	38.63629	-7.731571	1	39.40229	-11.31608	-9.032662E-006	-0.0000983	9
	24	68	1193.986	39.29374	-9.50149	1	40.42619	-13.59357	-1.3271E-005	7.233063E-005	9
	25	70	946.5144	40.06674	-11.57121	1	41.70415	-16.10863	3.63631E-006	5.937234E-005	9
	26	73	751.7689	40.97586	-14.01434	1	43.30616	-18.88144	2.887446E-006	4.543884E-005	9
	27	75	597.4265	42.02987	-16.92309	1	45.30895	-21.93191	3.159947E-006	2.805242E-005	9
	28	77	477.4305	43.26273	-20.32354	1	47.79864	-25.16273	7.044318E-007	-0.0001346	9
	29	80	376.6741	44.71013	-24.59882	1	51.03036	-28.8189	7.302964E-007	-0.0001358	9
	30	82	298.2954	46.33298	-29.68103	1	55.02462	-32.64374	7.534705E-007	-0.0001302	9
	31	84	237.7717	48.11781	-35.65208	1	59.88651	-36.53597	8.270825E-007	-0.0001376	9
	32	87	189.0121	50.12888	-42.98373	1	66.03413	-40.61191	7.153155E-007	-0.0001365	9
	33	89	150.2404	52.36677	-51.93924	1	73.75611	-44.76516	7.417477E-007	-0.0001347	9
	34	92	119.1737	54.88708	-63.04744	1	83.59169	-48.95822	8.563148E-007	-0.0001403	9
	35	94	95.0169	57.67222	-76.42674	1	95.7451	-52.96151	7.337746E-007	-0.0001349	9
	36	97	75.60484	60.90763	-93.08531	1	111.2412	-56.80245	7.374789E-007	-0.0001263	9
	37	99	54.50582	66.42375	-123.9979	1	140.6684	-61.82274	6.947882E-007	-0.0001348	9
	38	102	45.95588	70.05295	-144.3134	1	160.4174	-64.10702	6.560015E-007	-0.0001324	9
	39	104	37.20238	75.30768	-174.2808	1	189.8553	-66.63057	6.257512E-007	-0.0001356	9
	40	106	30.04808	81.81314	-211.1468	1	226.4429	-68.82013	6.932246E-007	-0.0001337	9
	41	109	23.91582	90.53881	-259.3987	1	274.7452	-70.75931	8.414564E-007	-0.0001417	9
	42	111	18.60119	102.8031	-325.4452	1	341.2961	-72.46947	6.048697E-007	-0.0001345	9
	43	113	15.02404	116.2985	-394.6003	1	411.3814	-73.57845	8.079514E-007	-0.0001248	9
	44	116	12.01923	133.8364	-480.3708	1	498.6665	-74.4316	2.829816E-007	-0.0001212	8
	45	118	9.450605	159.1784	-595.9495	1	616.8416	-75.04538	4.63106E-007	-0.0001256	8
	46	121	7.512019	190.5593	-731.2676	1	755.6885	-75.39426	3.84544E-007	-0.0001349	8
	47	124	5.978954	231.9521	-895.0604	1	924.6268	-75.47158	3.308527E-007	-0.0001195	8
	48	127	4.734848	288.1555	-1099.361	1	1136.498	-75.31251	3.911735E-007	-0.000129	8
	49	130	3.75601	360.8396	-1344.648	1	1392.223	-74.97845	3.861711E-007	-0.0001259	8
	50	133	3.004808	452.5695	-1627.005	1	1688.776	-74.4555	4.274902E-007	-0.0001589	8
	51	137	2.372217	577.9585	-1986.06	1	2068.446	-73.7746	3.927921E-007	-0.0001728	8
	52	141	1.878005	744.8989	-2409.048	1	2521.584	-72.81793	3.799287E-007	-0.0001159	8
	53	146	1.512097	934.7165	-2872.649	1	3020.896	-71.9759	4.087726E-007	-0.0002195	8
	54	151	1.201923	1193.58	-3449.401	1	3650.068	-70.91309	3.712618E-007	-0.0001188	8
	55	158	0.956633	1512.838	-4128.015	1	4396.497	-69.87308	9.422461E-009	-0.0006563	7
