EXPLAIN
TAG	EISPOT
TITLE	LABEL	Potentiostatic EIS	Test Identifier
DATE	LABEL	10/5/2021	Date
TIME	LABEL	18:48:13	Time
NOTES	NOTES	1	Notes...
	
PSTAT	PSTAT	REF3000-16137	Potentiostat
VDC	POTEN	0.00000E+000	T	DC Voltage (V)
FREQINIT	QUANT	3.00000E+005	Initial Freq. (Hz)
FREQFINAL	QUANT	1.00000E+000	Final Freq. (Hz)
PTSPERDEC	QUANT	1.00000E+001	Points/decade
VAC	QUANT	5.00000E+001	AC Voltage (mV rms)
AREA	QUANT	1.00000E+000	Sample Area (cm^2)
SPEED	SELECTOR	2	Optimize for:
ZGUESS	QUANT	1.00000E+003	Estimated Z (ohms)
EOC	QUANT	0	Open Circuit (V)
SEQUENCER	TOGGLE	TRUE	Run as Sequence
PSTATMODEL	IQUANT	5	Pstat Model
PSTATSECTION	LABEL	REF3000-16137	Pstat Section
PSTATSERIALNO	LABEL	16137	Pstat Serial Number
CTRLMODE	IQUANT	1	Control Mode
IESTAB	IQUANT	0	I/E Stability
CASPEED	IQUANT	1	Control Amp Speed
CONVENTION	IQUANT	1	Current Convention
ICHRANGE	IQUANT	2	Ich Range
ICHRANGEMODE	TOGGLE	F	Ich Auto Range
ICHOFFSETENABLE	TOGGLE	T	Ich Offset Enable
ICHOFFSET	QUANT	0	Ich Offset (V)
ICHFILTER	IQUANT	3	Ich Filter
VCHRANGE	IQUANT	2	Vch Range
VCHRANGEMODE	TOGGLE	F	Vch Auto Range
VCHOFFSETENABLE	TOGGLE	T	Vch Offset Enable
VCHOFFSET	QUANT	0	Vch Offset (V)
VCHFILTER	IQUANT	3	Vch Filter
ACHRANGE	IQUANT	2	Ach Range
ACHOFFSETENABLE	TOGGLE	F	Ach Offset Enable
ACHOFFSET	QUANT	0	Ach Offset (V)
ACHFILTER	IQUANT	3	Ach Filter
IERANGELOWERLIMIT	IQUANT	2	I/E Range Lower Limit
IERANGEMODE	TOGGLE	F	I/E AutoRange
IERANGE	IQUANT	11	I/E Range
POSFEEDENABLE	TOGGLE	F	Positive Feedback IR Comp
POSFEEDRESISTANCE	QUANT	0	Positive Feedback Resistance (ohm)
ACHSELECT	IQUANT	0	Ach Select
CABLEID	IQUANT	13	Cable ID
DCCALDATE	LABEL	9/10/2021	DC Calibration Date
ACCALDATE	LABEL	9/10/2021	AC Calibration Date
THERMOSELECT	IQUANT	1	Thermo Select
FRAMEWORKVERSION	QUANT	6.33	Framework Version
INSTRUMENTVERSION	LABEL	3.50	Instrument Version
COMPLIANCEVOLTAGE	IQUANT	0	Compliance Voltage
ZCURVE	TABLE
	Pt	Time	Freq	Zreal	Zimag	Zsig	Zmod	Zphz	Idc	Vdc	IERange
	#	s	Hz	ohm	ohm	V	ohm	°	A	V	#
	0	7	300046.9	140.1434	-6.014349	1	140.2724	-2.457379	2.063102E-005	-0.0017812	9
	1	10	238359.4	141.7085	-5.157977	1	141.8023	-2.084561	2.961284E-005	-6.046951E-005	9
	2	14	189328.1	143.0384	-4.423209	1	143.1068	-1.771206	-1.362684E-005	0.0008588	9
	3	16	150421.9	144.3051	-3.502239	1	144.3476	-1.390277	6.84466E-005	-0.0029917	9
	4	19	119484.4	145.6723	-3.145521	1	145.7063	-1.237003	6.741624E-005	-0.0028415	9
	5	21	94921.88	146.711	-2.84263	1	146.7386	-1.110007	1.37458E-005	-0.0009722	9
	6	24	75421.88	147.7905	-2.521514	1	147.812	-0.977452	2.389243E-005	-0.0010332	9
	7	26	59859.37	148.9405	-2.24521	1	148.9574	-0.8636423	1.15011E-005	-8.751185E-005	9
	8	29	47578.12	149.9759	-1.914533	1	149.9881	-0.7313755	2.355433E-006	0.0003169	9
	9	31	37828.12	151.0405	-1.857386	1	151.052	-0.7045461	2.023039E-006	0.0002318	9
	10	34	30046.88	152.1833	-1.908044	1	152.1952	-0.7183254	-1.470463E-005	-4.887211E-005	9
	11	36	23859.38	153.2316	-1.790337	1	153.242	-0.6694059	4.854137E-006	-0.0007544	9
	12	39	18984.38	154.1808	-1.741696	1	154.1907	-0.6472114	4.691493E-006	-0.0007471	9
	13	41	15046.87	155.2188	-1.589627	1	155.2269	-0.5867572	-2.297501E-005	0.0006115	9
	14	43	11953.13	156.3422	-1.897605	1	156.3537	-0.6953942	-2.234623E-005	0.0003067	9
	15	46	9515.62	157.2089	-2.231557	1	157.2248	-0.8132503	2.53977E-005	-0.0006886	9
	16	48	7546.875	158.1148	-2.657472	1	158.1372	-0.962893	1.164249E-005	2.152156E-005	9
	17	50	5928.309	159.2414	-3.263604	1	159.2748	-1.174095	-1.838374E-005	8.415349E-005	9
	18	53	4733.456	160.599	-3.68378	1	160.6413	-1.314006	4.776644E-006	-0.0007492	9
	19	55	3796.875	161.5667	-4.190753	1	161.621	-1.485817	-2.11582E-005	0.0003133	9
	20	57	2987.132	162.4465	-5.399121	1	162.5362	-1.903599	-1.144798E-005	-0.0002132	9
	21	60	2390.625	163.9298	-6.51642	1	164.0593	-2.276382	2.407421E-005	-0.0009561	9
	22	62	1884.191	165.347	-8.158714	1	165.5482	-2.824854	-1.999751E-005	0.0007132	9
	23	64	1516.544	166.5304	-9.58603	1	166.8061	-3.294495	5.780702E-006	-0.000785	9
	24	67	1193.986	168.0578	-11.95167	1	168.4822	-4.067821	-2.046891E-005	0.0007292	9
	25	69	946.5144	169.5923	-14.66327	1	170.225	-4.941611	-2.35277E-005	0.0004736	9
	26	72	751.7689	171.4085	-18.03115	1	172.3543	-6.005087	-2.216708E-005	0.0003184	9
	27	74	597.4265	173.3765	-22.15377	1	174.7862	-7.281702	-2.315109E-005	0.0006497	9
	28	76	477.4305	175.5198	-26.71155	1	177.5407	-8.653185	4.999907E-007	-0.0001301	9
	29	78	376.6741	178.0846	-32.82898	1	181.0853	-10.44492	5.022463E-007	-0.0001378	9
	30	81	298.2954	181.0733	-40.15562	1	185.4724	-12.50381	4.75166E-007	-0.0001306	9
	31	83	237.7717	184.58	-48.72545	1	190.903	-14.78761	5.896891E-007	-0.0001397	9
	32	86	189.0121	188.7245	-59.11579	1	197.7666	-17.39257	4.870901E-007	-0.0001378	9
	33	88	150.2404	193.58	-71.51326	1	206.3671	-20.27548	4.790496E-007	-0.0001346	9
	34	90	119.1737	199.2581	-86.47337	1	217.2129	-23.45971	4.301601E-007	-0.0001335	9
	35	93	95.0169	205.6874	-103.9352	1	230.4557	-26.80778	4.806031E-007	-0.0001358	9
	36	95	75.60484	213.0956	-125.0328	1	247.0687	-30.40208	5.040606E-007	-0.0001356	9
	37	98	54.50582	224.7977	-162.8515	1	277.5871	-35.92091	4.586605E-007	-0.0001399	9
	38	100	45.95588	232.2677	-187.1863	1	298.3069	-38.86561	3.89193E-007	-0.0001323	9
	39	103	37.20238	242.0191	-222.6181	1	328.8344	-42.60899	4.371977E-007	-0.0001353	9
	40	105	30.04808	252.9465	-265.8405	1	366.9511	-46.42374	4.170785E-007	-0.0001498	9
	41	108	23.91582	264.7911	-320.7533	1	415.9291	-50.45934	-6.367905E-008	-0.0001332	8
	42	110	18.60119	280.7609	-397.5932	1	486.731	-54.77213	-2.67982E-008	-0.0001265	8
	43	112	15.02404	296.7986	-478.4062	1	562.9937	-58.18493	-4.079275E-008	-0.0001316	8
	44	115	12.01923	316.3533	-581.9462	1	662.3751	-61.47094	7.266159E-008	-0.0001274	8
	45	117	9.450605	341.7883	-720.2637	1	797.2447	-64.61416	-6.362002E-008	-0.0001139	8
	46	120	7.512019	371.9467	-884.251	1	959.294	-67.18668	-6.030998E-008	-0.0001187	8
	47	122	5.978954	409.0061	-1084.96	1	1159.493	-69.34466	-5.124706E-008	-0.0001199	8
	48	125	4.734848	457.771	-1339.468	1	1415.531	-71.13184	7.536858E-009	-0.0001341	8
	49	129	3.75601	518.8159	-1650.012	1	1729.656	-72.5452	-7.40413E-009	-0.0001303	8
	50	132	3.004808	594.2007	-2015.842	1	2101.594	-73.5763	1.248855E-008	-0.0001604	8
	51	136	2.372217	695.6281	-2492.803	1	2588.042	-74.408	-1.304898E-008	-0.0001852	8
	52	140	1.878005	831.637	-3072.53	1	3183.09	-74.85474	-1.211778E-008	-0.0001176	8
	53	145	1.512097	995.173	-3725.057	1	3855.699	-75.04239	-2.084154E-008	-0.0002234	8
	54	150	1.201923	1215.262	-4581.867	1	4740.292	-75.14529	-1.510689E-008	-8.678134E-005	7
	55	156	0.956633	1497.29	-5603.735	1	5800.321	-75.04033	-2.632964E-008	-0.0006635	7
