EXPLAIN
TAG	EISPOT
TITLE	LABEL	Potentiostatic EIS	Test Identifier
DATE	LABEL	10/5/2021	Date
TIME	LABEL	18:09:13	Time
NOTES	NOTES	1	Notes...
	
PSTAT	PSTAT	REF3000-16137	Potentiostat
VDC	POTEN	0.00000E+000	T	DC Voltage (V)
FREQINIT	QUANT	3.00000E+005	Initial Freq. (Hz)
FREQFINAL	QUANT	1.00000E+000	Final Freq. (Hz)
PTSPERDEC	QUANT	1.00000E+001	Points/decade
VAC	QUANT	5.00000E+001	AC Voltage (mV rms)
AREA	QUANT	1.00000E+000	Sample Area (cm^2)
SPEED	SELECTOR	2	Optimize for:
ZGUESS	QUANT	1.00000E+003	Estimated Z (ohms)
EOC	QUANT	0	Open Circuit (V)
SEQUENCER	TOGGLE	TRUE	Run as Sequence
PSTATMODEL	IQUANT	5	Pstat Model
PSTATSECTION	LABEL	REF3000-16137	Pstat Section
PSTATSERIALNO	LABEL	16137	Pstat Serial Number
CTRLMODE	IQUANT	1	Control Mode
IESTAB	IQUANT	0	I/E Stability
CASPEED	IQUANT	1	Control Amp Speed
CONVENTION	IQUANT	1	Current Convention
ICHRANGE	IQUANT	2	Ich Range
ICHRANGEMODE	TOGGLE	F	Ich Auto Range
ICHOFFSETENABLE	TOGGLE	T	Ich Offset Enable
ICHOFFSET	QUANT	0	Ich Offset (V)
ICHFILTER	IQUANT	3	Ich Filter
VCHRANGE	IQUANT	2	Vch Range
VCHRANGEMODE	TOGGLE	F	Vch Auto Range
VCHOFFSETENABLE	TOGGLE	T	Vch Offset Enable
VCHOFFSET	QUANT	0	Vch Offset (V)
VCHFILTER	IQUANT	3	Vch Filter
ACHRANGE	IQUANT	2	Ach Range
ACHOFFSETENABLE	TOGGLE	F	Ach Offset Enable
ACHOFFSET	QUANT	0	Ach Offset (V)
ACHFILTER	IQUANT	3	Ach Filter
IERANGELOWERLIMIT	IQUANT	2	I/E Range Lower Limit
IERANGEMODE	TOGGLE	F	I/E AutoRange
IERANGE	IQUANT	11	I/E Range
POSFEEDENABLE	TOGGLE	F	Positive Feedback IR Comp
POSFEEDRESISTANCE	QUANT	0	Positive Feedback Resistance (ohm)
ACHSELECT	IQUANT	0	Ach Select
CABLEID	IQUANT	13	Cable ID
DCCALDATE	LABEL	9/10/2021	DC Calibration Date
ACCALDATE	LABEL	9/10/2021	AC Calibration Date
THERMOSELECT	IQUANT	1	Thermo Select
FRAMEWORKVERSION	QUANT	6.33	Framework Version
INSTRUMENTVERSION	LABEL	3.50	Instrument Version
COMPLIANCEVOLTAGE	IQUANT	0	Compliance Voltage
ZCURVE	TABLE
	Pt	Time	Freq	Zreal	Zimag	Zsig	Zmod	Zphz	Idc	Vdc	IERange
	#	s	Hz	ohm	ohm	V	ohm	°	A	V	#
	0	10	300046.9	4.123491	2.197376	1	4.672434	28.0528	3.241795E-005	-0.0008843	10
	1	13	238359.4	4.085095	1.749423	1	4.443926	23.18281	-2.661335E-005	-0.0011646	10
	2	17	189328.1	4.076294	1.366508	1	4.299246	18.53284	1.547182E-005	-0.0007784	10
	3	19	150421.9	4.063733	1.05702	1	4.198955	14.58015	-9.029918E-005	-0.0005164	10
	4	22	119484.4	4.072012	0.8043583	1	4.150695	11.17398	6.19643E-005	-0.0005979	10
	5	24	94921.88	4.078525	0.6002358	1	4.122457	8.372111	1.894875E-005	-0.000373	10
	6	27	75421.88	4.087125	0.4184279	1	4.108488	5.845409	-7.899686E-006	-0.0003201	10
	7	29	59859.37	4.097416	0.2572049	1	4.105481	3.591885	8.992588E-006	-0.000276	10
	8	32	47578.12	4.112519	0.1137277	1	4.114091	1.584055	2.598801E-005	-0.0002251	10
	9	34	37828.12	4.130255	-0.0217965	1	4.130312	-0.302363	-2.910421E-005	-0.0001909	10
	10	37	30046.88	4.15369	-0.1556206	1	4.156604	-2.145619	1.125767E-005	-0.0001525	10
	11	39	23859.38	4.180571	-0.2926271	1	4.1908	-4.003998	2.205645E-005	-0.0001699	10
	12	42	18984.38	4.213932	-0.4366076	1	4.23649	-5.915337	2.244317E-005	-0.0001605	10
	13	44	15046.87	4.256074	-0.5976103	1	4.297825	-7.992846	2.332902E-005	-0.0001343	10
	14	46	11953.13	4.306054	-0.7764706	1	4.375501	-10.22177	1.330248E-005	-0.000157	10
	15	49	9515.62	4.368537	-0.979422	1	4.476984	-12.6367	9.981696E-006	-0.0001179	10
	16	51	7546.875	4.443401	-1.217473	1	4.607174	-15.32274	-3.198442E-005	-0.0001382	10
	17	53	5928.309	4.53723	-1.507418	1	4.781085	-18.37819	-1.042206E-005	-0.0001304	10
	18	56	4733.456	4.639669	-1.826481	1	4.986238	-21.48788	-5.184952E-006	-0.0001268	10
	19	58	3796.875	4.754194	-2.194746	1	5.236341	-24.78013	-3.127887E-005	-0.0001275	10
	20	60	2987.132	4.895815	-2.672355	1	5.577678	-28.62768	-2.555188E-005	-0.0001165	10
	21	63	2390.625	5.042538	-3.208647	1	5.976839	-32.46924	3.462989E-006	-0.0001584	10
	22	65	1884.191	5.216961	-3.899896	1	6.513515	-36.77965	2.217629E-005	-0.00014	10
	23	67	1516.544	5.395035	-4.670704	1	7.135957	-40.88409	-2.970105E-006	-0.0001406	10
	24	70	1193.986	5.612136	-5.712831	1	8.008278	-45.50943	2.127045E-005	-0.0001482	10
	25	72	946.5144	5.84738	-6.974565	1	9.101451	-50.02399	2.295745E-005	-0.0001395	10
	26	74	751.7689	6.120304	-8.512163	1	10.48404	-54.28361	2.260237E-005	-0.000143	10
	27	77	597.4265	6.436443	-10.4251	1	12.25196	-58.30887	4.972982E-006	-0.0001375	10
	28	79	477.4305	6.820261	-12.73718	1	14.44824	-61.83269	-1.972999E-006	-0.0001156	10
	29	81	376.6741	7.311698	-15.75581	1	17.3697	-65.1057	-1.835854E-006	-0.0001204	10
	30	84	298.2954	7.922493	-19.45113	1	21.00267	-67.83881	-1.644898E-006	-0.0001176	10
	31	86	237.7717	8.680584	-23.88817	1	25.41647	-70.02966	-1.643484E-006	-0.000122	10
	32	88	189.0121	9.66805	-29.42092	1	30.96872	-71.80889	-1.932237E-006	-0.0001213	10
	33	91	150.2404	10.95012	-36.22116	1	37.84016	-73.17927	-2.251083E-006	-0.0001255	10
	34	93	119.1737	12.62689	-44.6053	1	46.35807	-74.19421	7.448134E-007	-0.0001349	9
	35	96	95.0169	14.79693	-54.68693	1	56.65342	-74.85971	6.848545E-007	-0.0001385	9
	36	98	75.60484	17.6805	-67.09705	1	69.38742	-75.23776	6.356332E-007	-0.0001384	9
	37	101	54.50582	23.48422	-89.63385	1	92.65925	-75.31841	4.808511E-007	-0.0001361	9
	38	103	45.95588	27.58757	-104.1084	1	107.7015	-75.15836	5.874926E-007	-0.0001275	9
	39	106	37.20238	33.96592	-124.9686	1	129.5022	-74.79457	5.238041E-007	-0.0001285	9
	40	108	30.04808	42.35299	-150.0041	1	155.8686	-74.23321	7.249927E-007	-0.0001406	9
	41	110	23.91582	53.89855	-181.5824	1	189.4129	-73.4677	5.413235E-007	-0.0001408	9
	42	113	18.60119	70.52775	-223.1297	1	234.0107	-72.45908	5.176535E-007	-0.0001471	9
	43	115	15.02404	88.81014	-264.7835	1	279.2804	-71.45821	1.018654E-006	-0.0001295	9
	44	117	12.01923	112.9985	-315.4336	1	335.0627	-70.29084	9.248706E-007	-0.0001365	9
	45	120	9.450605	146.2431	-379.0662	1	406.2982	-68.90347	4.852402E-007	-0.0001251	9
	46	122	7.512019	185.7535	-447.8969	1	484.8876	-67.47505	4.878025E-007	-0.000115	8
	47	125	5.978954	236.324	-527.9046	1	578.3876	-65.88365	4.344277E-007	-0.0001316	8
	48	128	4.734848	301.6404	-621.515	1	690.8457	-64.11127	8.18242E-007	-0.0000984	8
	49	131	3.75601	384.0088	-724.5878	1	820.055	-62.07782	3.013569E-007	-0.000145	8
	50	135	3.004808	483.1418	-832.1783	1	962.261	-59.86163	4.952258E-007	-0.0001222	8
	51	139	2.372217	613.422	-951.102	1	1131.76	-57.17964	5.385934E-007	-5.547643E-005	8
	52	143	1.878005	765.8376	-1072.483	1	1317.849	-54.47017	3.654849E-007	-0.0001449	8
	53	147	1.512097	927.5475	-1179.791	1	1500.75	-51.82569	4.45717E-007	-0.0001018	8
	54	153	1.201923	1124.39	-1289.583	1	1710.929	-48.91478	5.898424E-007	-0.0001516	8
	55	159	0.956633	1336.315	-1393.578	1	1930.75	-46.20167	3.061234E-007	-0.0006714	8
