EXPLAIN
TAG	EISPOT
TITLE	LABEL	Potentiostatic EIS	Test Identifier
DATE	LABEL	10/5/2021	Date
TIME	LABEL	18:00:46	Time
NOTES	NOTES	1	Notes...
	
PSTAT	PSTAT	REF3000-16137	Potentiostat
VDC	POTEN	0.00000E+000	T	DC Voltage (V)
FREQINIT	QUANT	3.00000E+005	Initial Freq. (Hz)
FREQFINAL	QUANT	1.00000E+000	Final Freq. (Hz)
PTSPERDEC	QUANT	1.00000E+001	Points/decade
VAC	QUANT	5.00000E+001	AC Voltage (mV rms)
AREA	QUANT	1.00000E+000	Sample Area (cm^2)
SPEED	SELECTOR	2	Optimize for:
ZGUESS	QUANT	1.00000E+003	Estimated Z (ohms)
EOC	QUANT	0	Open Circuit (V)
SEQUENCER	TOGGLE	TRUE	Run as Sequence
PSTATMODEL	IQUANT	5	Pstat Model
PSTATSECTION	LABEL	REF3000-16137	Pstat Section
PSTATSERIALNO	LABEL	16137	Pstat Serial Number
CTRLMODE	IQUANT	1	Control Mode
IESTAB	IQUANT	0	I/E Stability
CASPEED	IQUANT	1	Control Amp Speed
CONVENTION	IQUANT	1	Current Convention
ICHRANGE	IQUANT	2	Ich Range
ICHRANGEMODE	TOGGLE	F	Ich Auto Range
ICHOFFSETENABLE	TOGGLE	T	Ich Offset Enable
ICHOFFSET	QUANT	0	Ich Offset (V)
ICHFILTER	IQUANT	3	Ich Filter
VCHRANGE	IQUANT	2	Vch Range
VCHRANGEMODE	TOGGLE	F	Vch Auto Range
VCHOFFSETENABLE	TOGGLE	T	Vch Offset Enable
VCHOFFSET	QUANT	0	Vch Offset (V)
VCHFILTER	IQUANT	3	Vch Filter
ACHRANGE	IQUANT	2	Ach Range
ACHOFFSETENABLE	TOGGLE	F	Ach Offset Enable
ACHOFFSET	QUANT	0	Ach Offset (V)
ACHFILTER	IQUANT	3	Ach Filter
IERANGELOWERLIMIT	IQUANT	2	I/E Range Lower Limit
IERANGEMODE	TOGGLE	F	I/E AutoRange
IERANGE	IQUANT	11	I/E Range
POSFEEDENABLE	TOGGLE	F	Positive Feedback IR Comp
POSFEEDRESISTANCE	QUANT	0	Positive Feedback Resistance (ohm)
ACHSELECT	IQUANT	0	Ach Select
CABLEID	IQUANT	13	Cable ID
DCCALDATE	LABEL	9/10/2021	DC Calibration Date
ACCALDATE	LABEL	9/10/2021	AC Calibration Date
THERMOSELECT	IQUANT	1	Thermo Select
FRAMEWORKVERSION	QUANT	6.33	Framework Version
INSTRUMENTVERSION	LABEL	3.50	Instrument Version
COMPLIANCEVOLTAGE	IQUANT	0	Compliance Voltage
ZCURVE	TABLE
	Pt	Time	Freq	Zreal	Zimag	Zsig	Zmod	Zphz	Idc	Vdc	IERange
	#	s	Hz	ohm	ohm	V	ohm	°	A	V	#
	0	10	300046.9	2.960562	2.22576	1	3.703907	36.93596	-1.798569E-005	-0.0010144	10
	1	13	238359.4	2.943146	1.760071	1	3.42928	30.88042	-5.747152E-006	-0.001349	10
	2	16	189328.1	3.007913	1.151299	1	3.220719	20.94469	-0.0002574	-0.0012633	12
	3	20	150421.9	2.931586	1.048279	1	3.113372	19.67607	-2.458506E-005	0.0001382	11
	4	23	119484.4	2.919944	0.7992209	1	3.027347	15.30757	-2.979411E-005	0.0001228	11
	5	25	94921.88	2.918338	0.5884276	1	2.977069	11.39977	-9.466383E-005	0.0001733	11
	6	28	75421.88	2.922173	0.4114238	1	2.950993	8.014214	-4.24396E-005	0.0002238	11
	7	30	59859.37	2.931052	0.2584923	1	2.942429	5.03993	-5.717793E-005	0.0002944	11
	8	33	47578.12	2.941864	0.1212376	1	2.944362	2.35989	-2.279432E-005	0.0003493	11
	9	35	37828.12	2.956525	-0.0066638	1	2.956532	-0.1291402	-4.073505E-005	0.0003432	11
	10	38	30046.88	2.975777	-0.131515	1	2.978682	-2.53055	-1.598282E-005	0.0003852	11
	11	40	23859.38	2.999862	-0.2580158	1	3.010938	-4.915866	-6.00441E-005	0.0003475	11
	12	43	18984.38	3.030238	-0.3898505	1	3.055213	-7.331028	-6.34375E-005	0.0003652	11
	13	45	15046.87	3.067373	-0.5347362	1	3.113635	-9.88901	-4.138386E-005	0.0003714	11
	14	47	11953.13	3.111707	-0.6947788	1	3.188329	-12.58649	-3.690851E-005	0.0003429	11
	15	50	9515.62	3.165901	-0.8737337	1	3.284256	-15.42858	-4.145354E-005	0.0003752	11
	16	52	7546.875	3.229432	-1.083543	1	3.406361	-18.54769	-3.069121E-005	0.0003752	11
	17	54	5928.309	3.306288	-1.340852	1	3.567832	-22.07482	-6.945206E-005	0.0003138	11
	18	57	4733.456	3.391342	-1.624931	1	3.760532	-25.60099	-1.49508E-005	-0.0001355	10
	19	59	3796.875	3.480131	-1.956127	1	3.99221	-29.33966	2.191503E-005	-0.0001441	10
	20	61	2987.132	3.587795	-2.388854	1	4.310324	-33.65678	2.209937E-005	-0.0001497	10
	21	64	2390.625	3.698236	-2.881187	1	4.68809	-37.9211	-1.944556E-005	-0.0001792	10
	22	66	1884.191	3.829745	-3.523196	1	5.203832	-42.61269	2.22613E-005	-0.0001444	10
	23	68	1516.544	3.966459	-4.246249	1	5.81063	-46.9512	-2.346684E-006	-0.0001432	10
	24	70	1193.986	4.135997	-5.228874	1	6.666903	-51.65629	2.389092E-005	-0.0001412	10
	25	73	946.5144	4.333949	-6.42148	1	7.747162	-55.98402	-2.134128E-005	-0.0000974	10
	26	75	751.7689	4.567193	-7.883843	1	9.111215	-59.91584	5.258292E-006	-0.0001546	10
	27	78	597.4265	4.853264	-9.69791	1	10.84452	-63.41458	1.460189E-005	-0.0001368	10
	28	80	477.4305	5.216778	-11.88734	1	12.98167	-66.30566	-7.942603E-007	-0.0001175	10
	29	82	376.6741	5.699153	-14.73577	1	15.79947	-68.85571	-1.110212E-006	-0.0001149	10
	30	85	298.2954	6.314367	-18.2106	1	19.27426	-70.87646	-1.244762E-006	-0.0001169	10
	31	87	237.7717	7.093882	-22.3676	1	23.46556	-72.40358	-1.250662E-006	-0.0001192	10
	32	89	189.0121	8.123035	-27.52522	1	28.6988	-73.55801	-1.444854E-006	-0.0001182	10
	33	92	150.2404	9.47952	-33.8486	1	35.15094	-74.35475	-1.721117E-006	-0.0001214	10
	34	94	119.1737	11.27436	-41.59869	1	43.09944	-74.8356	7.947106E-007	-0.0001348	9
	35	97	95.0169	13.61029	-50.86145	1	52.65099	-75.01891	5.706929E-007	-0.0001381	9
	36	99	75.60484	16.7294	-62.17562	1	64.38696	-74.94027	4.101084E-007	-0.0001327	9
	37	102	54.50582	23.00621	-82.50245	1	85.6501	-74.41861	5.135666E-007	-0.000141	9
	38	104	45.95588	27.39872	-95.3864	1	99.2434	-73.97385	5.224283E-007	-0.0001315	9
	39	107	37.20238	34.20539	-113.8099	1	118.839	-73.27193	7.507377E-007	-0.0001352	9
	40	109	30.04808	43.03167	-135.6627	1	142.3239	-72.40118	8.189954E-007	-0.0001379	9
	41	111	23.91582	55.06791	-162.9709	1	172.0232	-71.32987	7.191206E-007	-0.0001307	9
	42	114	18.60119	72.06679	-198.2469	1	210.9394	-70.02276	7.926315E-007	-0.0001354	9
	43	116	15.02404	90.62165	-233.2916	1	250.2744	-68.77145	7.667203E-007	-0.0001209	9
	44	118	12.01923	114.9221	-275.335	1	298.3562	-67.34483	6.186191E-007	-0.000133	9
	45	121	9.450605	148.2903	-327.2958	1	359.3223	-65.6258	2.212975E-007	-0.0001237	9
	46	123	7.512019	188.0487	-382.1175	1	425.8827	-63.79716	1.339046E-007	-0.0001112	8
	47	126	5.978954	238.486	-443.8937	1	503.9019	-61.75267	3.609312E-007	-0.0001473	8
	48	129	4.734848	303.2979	-512.9304	1	595.8919	-59.404	6.900777E-007	-0.0001083	8
	49	132	3.75601	381.9532	-583.5003	1	697.3958	-56.79166	1.562833E-007	-0.0001341	8
	50	136	3.004808	472.9839	-651.631	1	805.1935	-54.02612	5.509249E-007	-0.0001312	8
	51	140	2.372217	583.9612	-720.6638	1	927.5597	-50.9818	3.468447E-007	-0.0001095	8
	52	144	1.878005	709.2605	-783.958	1	1057.185	-47.8638	2.812611E-007	-0.0001274	8
	53	148	1.512097	833.2205	-836.1273	1	1180.409	-45.09977	4.787832E-007	-0.0002046	8
	54	154	1.201923	973.046	-884.7284	1	1315.128	-42.27825	4.314974E-007	-0.0001268	8
	55	160	0.956633	1118.055	-926.8201	1	1452.254	-39.6573	2.795431E-007	-0.0006666	8
