EXPLAIN
TAG	EISPOT
TITLE	LABEL	Potentiostatic EIS	Test Identifier
DATE	LABEL	10/5/2021	Date
TIME	LABEL	18:17:38	Time
NOTES	NOTES	1	Notes...
	
PSTAT	PSTAT	REF3000-16137	Potentiostat
VDC	POTEN	0.00000E+000	T	DC Voltage (V)
FREQINIT	QUANT	3.00000E+005	Initial Freq. (Hz)
FREQFINAL	QUANT	1.00000E+000	Final Freq. (Hz)
PTSPERDEC	QUANT	1.00000E+001	Points/decade
VAC	QUANT	5.00000E+001	AC Voltage (mV rms)
AREA	QUANT	1.00000E+000	Sample Area (cm^2)
SPEED	SELECTOR	2	Optimize for:
ZGUESS	QUANT	1.00000E+003	Estimated Z (ohms)
EOC	QUANT	0	Open Circuit (V)
SEQUENCER	TOGGLE	TRUE	Run as Sequence
PSTATMODEL	IQUANT	5	Pstat Model
PSTATSECTION	LABEL	REF3000-16137	Pstat Section
PSTATSERIALNO	LABEL	16137	Pstat Serial Number
CTRLMODE	IQUANT	1	Control Mode
IESTAB	IQUANT	0	I/E Stability
CASPEED	IQUANT	1	Control Amp Speed
CONVENTION	IQUANT	1	Current Convention
ICHRANGE	IQUANT	2	Ich Range
ICHRANGEMODE	TOGGLE	F	Ich Auto Range
ICHOFFSETENABLE	TOGGLE	T	Ich Offset Enable
ICHOFFSET	QUANT	0	Ich Offset (V)
ICHFILTER	IQUANT	3	Ich Filter
VCHRANGE	IQUANT	2	Vch Range
VCHRANGEMODE	TOGGLE	F	Vch Auto Range
VCHOFFSETENABLE	TOGGLE	T	Vch Offset Enable
VCHOFFSET	QUANT	0	Vch Offset (V)
VCHFILTER	IQUANT	3	Vch Filter
ACHRANGE	IQUANT	2	Ach Range
ACHOFFSETENABLE	TOGGLE	F	Ach Offset Enable
ACHOFFSET	QUANT	0	Ach Offset (V)
ACHFILTER	IQUANT	3	Ach Filter
IERANGELOWERLIMIT	IQUANT	2	I/E Range Lower Limit
IERANGEMODE	TOGGLE	F	I/E AutoRange
IERANGE	IQUANT	11	I/E Range
POSFEEDENABLE	TOGGLE	F	Positive Feedback IR Comp
POSFEEDRESISTANCE	QUANT	0	Positive Feedback Resistance (ohm)
ACHSELECT	IQUANT	0	Ach Select
CABLEID	IQUANT	13	Cable ID
DCCALDATE	LABEL	9/10/2021	DC Calibration Date
ACCALDATE	LABEL	9/10/2021	AC Calibration Date
THERMOSELECT	IQUANT	1	Thermo Select
FRAMEWORKVERSION	QUANT	6.33	Framework Version
INSTRUMENTVERSION	LABEL	3.50	Instrument Version
COMPLIANCEVOLTAGE	IQUANT	0	Compliance Voltage
ZCURVE	TABLE
	Pt	Time	Freq	Zreal	Zimag	Zsig	Zmod	Zphz	Idc	Vdc	IERange
	#	s	Hz	ohm	ohm	V	ohm	°	A	V	#
	0	10	300046.9	6.401199	2.18526	1	6.763927	18.84903	-3.474129E-005	-0.0007117	10
	1	14	238359.4	6.37711	1.710544	1	6.602537	15.01511	6.652899E-005	-0.0010758	10
	2	17	189328.1	6.38159	1.339261	1	6.520607	11.85227	6.596494E-005	-0.0007885	10
	3	19	150421.9	6.396261	1.040384	1	6.480321	9.238541	-0.0000988	-0.0003837	10
	4	22	119484.4	6.397366	0.7838811	1	6.445212	6.985735	-7.714768E-005	-0.0002317	10
	5	24	94921.88	6.41545	0.5848184	1	6.44205	5.208563	-6.61513E-006	-0.0002746	10
	6	27	75421.88	6.431254	0.3992094	1	6.443632	3.551983	2.735476E-005	-0.0002337	10
	7	29	59859.37	6.45059	0.2337665	1	6.454824	2.075465	4.349625E-006	-0.0002275	10
	8	32	47578.12	6.474197	0.0844557	1	6.474748	0.7473796	1.956081E-005	-0.0002102	10
	9	34	37828.12	6.502545	-0.0556522	1	6.502783	-0.4903557	-4.354003E-006	-0.0001866	10
	10	37	30046.88	6.533615	-0.1946294	1	6.536513	-1.706276	1.415823E-005	-0.0001827	10
	11	40	23859.38	6.569043	-0.3381398	1	6.57774	-2.946685	2.104904E-005	-0.0001682	10
	12	42	18984.38	6.610076	-0.4924704	1	6.628397	-4.260835	-2.023744E-005	-0.0000981	10
	13	44	15046.87	6.656735	-0.6682674	1	6.690195	-5.732697	2.169036E-005	-0.0001626	10
	14	46	11953.13	6.71433	-0.8684965	1	6.770267	-7.370268	1.912659E-005	-0.0001606	10
	15	49	9515.62	6.785452	-1.098804	1	6.873844	-9.19836	4.658987E-006	-0.0001645	10
	16	51	7546.875	6.872098	-1.370714	1	7.007467	-11.28022	-3.561462E-006	-0.0001428	10
	17	53	5928.309	6.981699	-1.708061	1	7.1876	-13.74729	4.803493E-006	-0.0001576	10
	18	56	4733.456	7.10689	-2.078482	1	7.404591	-16.3021	2.178725E-005	-0.000154	10
	19	58	3796.875	7.252368	-2.503117	1	7.672186	-19.04185	-2.528754E-006	-0.0001407	10
	20	60	2987.132	7.436202	-3.056637	1	8.039908	-22.34502	-3.814565E-006	-0.0001263	10
	21	63	2390.625	7.635548	-3.660992	1	8.467849	-25.61617	6.212747E-006	-0.0001545	10
	22	65	1884.191	7.87549	-4.444509	1	9.043063	-29.43808	7.354062E-006	-0.0001348	10
	23	67	1516.544	8.122477	-5.29684	1	9.69697	-33.10923	-1.087648E-005	-0.0001322	10
	24	70	1193.986	8.425964	-6.437466	1	10.60367	-37.37995	7.393546E-006	-0.0001369	10
	25	72	946.5144	8.75498	-7.795129	1	11.72236	-41.68076	-9.999742E-007	-0.0001069	10
	26	74	751.7689	9.115531	-9.441027	1	13.12349	-46.00491	1.274464E-005	-0.000168	10
	27	77	597.4265	9.52045	-11.48394	1	14.9171	-50.3405	-5.142618E-006	-0.0001285	10
	28	79	477.4305	9.97951	-13.93296	1	17.13821	-54.38779	-1.686559E-006	-0.0001151	10
	29	81	376.6741	10.53585	-17.1396	1	20.11889	-58.42062	-1.429644E-006	-0.0001241	10
	30	84	298.2954	11.19289	-21.07479	1	23.86268	-62.02708	-1.427913E-006	-0.0001221	10
	31	86	237.7717	11.97701	-25.8174	1	28.46027	-65.11283	-2.429722E-006	-0.0001293	10
	32	89	189.0121	12.96461	-31.74556	1	34.29084	-67.78532	-2.165709E-006	-0.0001242	10
	33	91	150.2404	14.216	-39.06729	1	41.5734	-70.00431	-2.136306E-006	-0.0001215	10
	34	93	119.1737	15.81262	-48.13397	1	50.66476	-71.81399	8.219526E-007	-0.0001357	9
	35	96	95.0169	17.85208	-59.08895	1	61.72682	-73.18927	7.601138E-007	-0.0001356	9
	36	98	75.60484	20.52308	-72.64809	1	75.49134	-74.22502	7.526514E-007	-0.0001377	9
	37	101	54.50582	25.83135	-97.51	1	100.8734	-75.1626	7.362956E-007	-0.0001386	9
	38	103	45.95588	29.55322	-113.6121	1	117.3929	-75.41914	7.872408E-007	-0.0001343	9
	39	106	37.20238	35.34056	-137.0567	1	141.5397	-75.54103	7.091417E-007	-0.0001415	9
	40	108	30.04808	42.94526	-165.4553	1	170.9378	-75.4495	7.878122E-007	-0.0001469	9
	41	110	23.91582	53.65002	-201.9131	1	208.9192	-75.11986	8.811388E-007	-0.0001416	9
	42	113	18.60119	69.23686	-250.4506	1	259.8447	-74.54659	1.011365E-006	-0.0001401	9
	43	115	15.02404	86.72162	-299.916	1	312.2023	-73.87261	6.899028E-007	-0.0001416	9
	44	117	12.01923	110.1555	-360.7884	1	377.2301	-73.02158	8.908615E-007	-0.0001339	9
	45	120	9.450605	142.2673	-436.4326	1	459.0353	-71.94518	4.057449E-007	-0.0001325	8
	46	122	7.512019	181.7602	-523.1782	1	553.8521	-70.84198	4.761452E-007	-0.0001416	8
	47	125	5.978954	231.7732	-624.236	1	665.8749	-69.63049	5.506771E-007	-0.0001235	8
	48	128	4.734848	296.4557	-744.5802	1	801.4272	-68.28996	4.594033E-007	-0.0001598	8
	49	131	3.75601	378.0853	-883.1812	1	960.707	-66.82449	8.085765E-007	-0.0001073	8
	50	135	3.004808	477.4471	-1035.94	1	1140.67	-65.25583	7.048275E-007	-0.0001244	8
	51	139	2.372217	612.654	-1217.549	1	1363.001	-63.28909	6.759177E-007	-0.0001748	8
	52	143	1.878005	780.6345	-1420.519	1	1620.884	-61.20937	8.29506E-007	-0.0001521	8
	53	147	1.512097	970.42	-1619.678	1	1888.14	-59.07234	7.384317E-007	-8.54339E-005	8
	54	153	1.201923	1220.738	-1841.341	1	2209.239	-56.45716	7.633075E-007	-0.0001133	8
	55	159	0.956633	1510.692	-2063.301	1	2557.226	-53.78944	3.894189E-007	-0.0006675	8
