EXPLAIN
TAG	EISPOT
TITLE	LABEL	Potentiostatic EIS	Test Identifier
DATE	LABEL	10/5/2021	Date
TIME	LABEL	17:35:08	Time
NOTES	NOTES	1	Notes...
	
PSTAT	PSTAT	REF3000-16137	Potentiostat
VDC	POTEN	0.00000E+000	T	DC Voltage (V)
FREQINIT	QUANT	3.00000E+005	Initial Freq. (Hz)
FREQFINAL	QUANT	1.00000E+000	Final Freq. (Hz)
PTSPERDEC	QUANT	1.00000E+001	Points/decade
VAC	QUANT	5.00000E+001	AC Voltage (mV rms)
AREA	QUANT	1.00000E+000	Sample Area (cm^2)
SPEED	SELECTOR	2	Optimize for:
ZGUESS	QUANT	1.00000E+003	Estimated Z (ohms)
EOC	QUANT	0	Open Circuit (V)
SEQUENCER	TOGGLE	TRUE	Run as Sequence
PSTATMODEL	IQUANT	5	Pstat Model
PSTATSECTION	LABEL	REF3000-16137	Pstat Section
PSTATSERIALNO	LABEL	16137	Pstat Serial Number
CTRLMODE	IQUANT	1	Control Mode
IESTAB	IQUANT	0	I/E Stability
CASPEED	IQUANT	1	Control Amp Speed
CONVENTION	IQUANT	1	Current Convention
ICHRANGE	IQUANT	2	Ich Range
ICHRANGEMODE	TOGGLE	F	Ich Auto Range
ICHOFFSETENABLE	TOGGLE	T	Ich Offset Enable
ICHOFFSET	QUANT	0	Ich Offset (V)
ICHFILTER	IQUANT	3	Ich Filter
VCHRANGE	IQUANT	2	Vch Range
VCHRANGEMODE	TOGGLE	F	Vch Auto Range
VCHOFFSETENABLE	TOGGLE	T	Vch Offset Enable
VCHOFFSET	QUANT	0	Vch Offset (V)
VCHFILTER	IQUANT	3	Vch Filter
ACHRANGE	IQUANT	2	Ach Range
ACHOFFSETENABLE	TOGGLE	F	Ach Offset Enable
ACHOFFSET	QUANT	0	Ach Offset (V)
ACHFILTER	IQUANT	3	Ach Filter
IERANGELOWERLIMIT	IQUANT	2	I/E Range Lower Limit
IERANGEMODE	TOGGLE	F	I/E AutoRange
IERANGE	IQUANT	11	I/E Range
POSFEEDENABLE	TOGGLE	F	Positive Feedback IR Comp
POSFEEDRESISTANCE	QUANT	0	Positive Feedback Resistance (ohm)
ACHSELECT	IQUANT	0	Ach Select
CABLEID	IQUANT	13	Cable ID
DCCALDATE	LABEL	9/10/2021	DC Calibration Date
ACCALDATE	LABEL	9/10/2021	AC Calibration Date
THERMOSELECT	IQUANT	1	Thermo Select
FRAMEWORKVERSION	QUANT	6.33	Framework Version
INSTRUMENTVERSION	LABEL	3.50	Instrument Version
COMPLIANCEVOLTAGE	IQUANT	0	Compliance Voltage
ZCURVE	TABLE
	Pt	Time	Freq	Zreal	Zimag	Zsig	Zmod	Zphz	Idc	Vdc	IERange
	#	s	Hz	ohm	ohm	V	ohm	°	A	V	#
	0	10	300046.9	1.769655	2.21999	1	2.83902	51.44005	-0.0001696	-0.0008223	11
	1	13	238359.4	1.865462	1.593603	1	2.453471	40.50619	-0.0001588	-0.0010508	12
	2	17	189328.1	1.783035	1.256181	1	2.181101	35.16539	-7.127435E-005	-0.0008726	12
	3	21	150421.9	1.690848	1.083318	1	2.00812	32.64751	-0.0001618	-0.0002429	11
	4	23	119484.4	1.677058	0.8256953	1	1.869304	26.21321	-1.285691E-005	3.815299E-005	11
	5	26	94921.88	1.674282	0.6206193	1	1.785606	20.33863	-5.576108E-005	2.72392E-005	11
	6	28	75421.88	1.676489	0.4475853	1	1.735208	14.94806	-6.402598E-005	0.0001302	11
	7	31	59859.37	1.68011	0.2979379	1	1.706322	10.05586	-3.841481E-005	0.0001782	11
	8	33	47578.12	1.689294	0.1696261	1	1.697789	5.733985	-5.172616E-005	0.0002594	11
	9	36	37828.12	1.700176	0.0531489	1	1.701006	1.790531	-9.227762E-005	0.0002683	11
	10	39	30046.88	1.715195	-0.056427	1	1.716123	-1.884253	-0.0000959	0.0002828	11
	11	41	23859.38	1.734318	-0.1632601	1	1.741985	-5.377692	-5.462047E-005	0.0003497	11
	12	43	18984.38	1.75592	-0.2710427	1	1.776716	-8.774885	-7.032223E-005	0.0003425	11
	13	46	15046.87	1.782054	-0.3865407	1	1.823494	-12.2383	-5.789367E-005	0.0003561	11
	14	48	11953.13	1.810732	-0.5124795	1	1.881857	-15.80276	-4.144965E-005	0.0003677	11
	15	50	9515.62	1.842913	-0.653287	1	1.955278	-19.51871	-7.222059E-005	0.0003567	11
	16	53	7546.875	1.879577	-0.8188536	1	2.050202	-23.54076	-2.583388E-005	0.0003835	11
	17	55	5928.309	1.922045	-1.02599	1	2.178741	-28.09335	-3.184111E-005	0.000319	11
	18	57	4733.456	1.965733	-1.258557	1	2.33411	-32.62932	-2.566965E-005	0.0003918	11
	19	60	3796.875	2.013931	-1.535452	1	2.532495	-37.32246	-9.060973E-005	0.0003448	11
	20	62	2987.132	2.075396	-1.904998	1	2.817141	-42.5487	-6.693805E-005	0.0003488	11
	21	64	2390.625	2.144015	-2.327316	1	3.164364	-47.34752	-1.619377E-005	0.0003802	11
	22	67	1884.191	2.231249	-2.889078	1	3.650376	-52.32092	-7.154806E-005	0.000365	11
	23	69	1516.544	2.334181	-3.521553	1	4.224895	-56.46251	6.007013E-006	-0.0001585	10
	24	71	1193.986	2.474144	-4.377882	1	5.028641	-60.5272	2.18883E-005	-0.0001469	10
	25	74	946.5144	2.647554	-5.412254	1	6.025117	-63.93316	2.099671E-005	-0.0001376	10
	26	76	751.7689	2.879123	-6.670165	1	7.265016	-66.65295	1.215012E-005	-0.00016	10
	27	78	597.4265	3.169985	-8.2134	1	8.803905	-68.89576	-1.332082E-005	-0.000125	10
	28	81	477.4305	3.555979	-10.06414	1	10.67388	-70.54007	-1.134545E-006	-0.0001264	10
	29	83	376.6741	4.086341	-12.44797	1	13.10154	-71.82636	-1.558953E-006	-0.0001274	10
	30	85	298.2954	4.779393	-15.32408	1	16.05211	-72.67794	-1.350652E-006	-0.0001226	10
	31	88	237.7717	5.672183	-18.71955	1	19.56004	-73.14275	-1.70038E-006	-0.0001284	10
	32	90	189.0121	6.865424	-22.87486	1	23.88291	-73.29394	-2.025844E-006	-0.0001255	10
	33	92	150.2404	8.444227	-27.87988	1	29.13061	-73.14954	-2.879943E-006	-0.0001291	10
	34	95	119.1737	10.54342	-33.92812	1	35.5286	-72.73697	-2.039646E-006	-0.0001237	10
	35	97	95.0169	13.21247	-40.90853	1	42.98927	-72.10078	-7.435415E-007	-0.0001358	9
	36	100	75.60484	16.7144	-49.26039	1	52.01881	-71.25756	-6.621486E-007	-0.0001429	9
	37	102	54.50582	23.54046	-63.76574	1	67.97221	-69.73731	-8.090733E-007	-0.0001419	9
	38	105	45.95588	28.16724	-72.69923	1	77.96519	-68.82119	-7.83079E-007	-0.0001379	9
	39	107	37.20238	35.16107	-85.1989	1	92.16915	-67.57436	-1.019512E-006	-0.0001335	9
	40	110	30.04808	43.9501	-99.5599	1	108.8291	-66.18123	-6.862859E-007	-0.0001402	9
	41	112	23.91582	55.87254	-117.0607	1	129.7111	-64.48508	-1.225096E-006	-0.0001429	9
	42	114	18.60119	72.67961	-138.6884	1	156.5784	-62.34322	2.415042E-007	-0.0001398	9
	43	117	15.02404	90.89962	-158.9477	1	183.1041	-60.23546	-8.407004E-007	-0.0001334	9
	44	119	12.01923	114.6283	-181.1123	1	214.3393	-57.66975	-9.306667E-007	-0.0001421	9
	45	121	9.450605	146.062	-205.2556	1	251.9205	-54.56395	-8.801831E-007	-0.000131	9
	46	124	7.512019	181.8439	-226.7919	1	290.6919	-51.27703	-9.821684E-007	-0.0001402	9
	47	127	5.978954	222.1942	-245.7489	1	331.3047	-47.88164	-8.142611E-007	-0.0001397	9
	48	130	4.734848	268.1755	-260.8592	1	374.1198	-44.20768	-1.8691E-009	-0.0001424	9
	49	133	3.75601	314.7316	-270.1962	1	414.8035	-40.646	-5.283947E-007	-0.0001319	8
	50	136	3.004808	361.2745	-275.4317	1	454.2927	-37.3215	1.798506E-007	-0.0001521	8
	51	140	2.372217	410.5613	-276.7134	1	495.107	-33.9795	-5.568682E-007	-0.0001353	8
	52	144	1.878005	457.8544	-273.2928	1	533.2163	-30.83294	-5.69085E-007	-0.0001494	8
	53	149	1.512097	498.6609	-269.0764	1	566.6258	-28.35121	-2.463036E-007	-0.000232	8
	54	154	1.201923	539.7864	-263.292	1	600.5764	-26.00176	-5.502215E-007	-0.0001097	8
	55	161	0.956633	578.1277	-257.6031	1	632.9226	-24.01688	-1.241413E-006	-0.0006782	8
