EXPLAIN
TAG	EISPOT
TITLE	LABEL	Potentiostatic EIS	Test Identifier
DATE	LABEL	10/5/2021	Date
TIME	LABEL	18:45:28	Time
NOTES	NOTES	1	Notes...
	
PSTAT	PSTAT	REF3000-16137	Potentiostat
VDC	POTEN	0.00000E+000	T	DC Voltage (V)
FREQINIT	QUANT	3.00000E+005	Initial Freq. (Hz)
FREQFINAL	QUANT	1.00000E+000	Final Freq. (Hz)
PTSPERDEC	QUANT	1.00000E+001	Points/decade
VAC	QUANT	5.00000E+001	AC Voltage (mV rms)
AREA	QUANT	1.00000E+000	Sample Area (cm^2)
SPEED	SELECTOR	2	Optimize for:
ZGUESS	QUANT	1.00000E+003	Estimated Z (ohms)
EOC	QUANT	0	Open Circuit (V)
SEQUENCER	TOGGLE	TRUE	Run as Sequence
PSTATMODEL	IQUANT	5	Pstat Model
PSTATSECTION	LABEL	REF3000-16137	Pstat Section
PSTATSERIALNO	LABEL	16137	Pstat Serial Number
CTRLMODE	IQUANT	1	Control Mode
IESTAB	IQUANT	0	I/E Stability
CASPEED	IQUANT	1	Control Amp Speed
CONVENTION	IQUANT	1	Current Convention
ICHRANGE	IQUANT	2	Ich Range
ICHRANGEMODE	TOGGLE	F	Ich Auto Range
ICHOFFSETENABLE	TOGGLE	T	Ich Offset Enable
ICHOFFSET	QUANT	0	Ich Offset (V)
ICHFILTER	IQUANT	3	Ich Filter
VCHRANGE	IQUANT	2	Vch Range
VCHRANGEMODE	TOGGLE	F	Vch Auto Range
VCHOFFSETENABLE	TOGGLE	T	Vch Offset Enable
VCHOFFSET	QUANT	0	Vch Offset (V)
VCHFILTER	IQUANT	3	Vch Filter
ACHRANGE	IQUANT	2	Ach Range
ACHOFFSETENABLE	TOGGLE	F	Ach Offset Enable
ACHOFFSET	QUANT	0	Ach Offset (V)
ACHFILTER	IQUANT	3	Ach Filter
IERANGELOWERLIMIT	IQUANT	2	I/E Range Lower Limit
IERANGEMODE	TOGGLE	F	I/E AutoRange
IERANGE	IQUANT	11	I/E Range
POSFEEDENABLE	TOGGLE	F	Positive Feedback IR Comp
POSFEEDRESISTANCE	QUANT	0	Positive Feedback Resistance (ohm)
ACHSELECT	IQUANT	0	Ach Select
CABLEID	IQUANT	13	Cable ID
DCCALDATE	LABEL	9/10/2021	DC Calibration Date
ACCALDATE	LABEL	9/10/2021	AC Calibration Date
THERMOSELECT	IQUANT	1	Thermo Select
FRAMEWORKVERSION	QUANT	6.33	Framework Version
INSTRUMENTVERSION	LABEL	3.50	Instrument Version
COMPLIANCEVOLTAGE	IQUANT	0	Compliance Voltage
ZCURVE	TABLE
	Pt	Time	Freq	Zreal	Zimag	Zsig	Zmod	Zphz	Idc	Vdc	IERange
	#	s	Hz	ohm	ohm	V	ohm	°	A	V	#
	0	7	300046.9	93.72495	-0.987685	1	93.73016	-0.6037676	9.076203E-006	0.0002683	9
	1	10	238359.4	94.65175	-1.099139	1	94.65813	-0.6653146	1.400927E-005	-0.0010724	9
	2	13	189328.1	95.448	-1.063713	1	95.4539	-0.6385021	-1.083988E-005	0.0007711	9
	3	16	150421.9	96.1625	-0.7268609	1	96.1653	-0.4330717	6.763498E-005	-0.0025653	9
	4	18	119484.4	96.9062	-0.8355995	1	96.9098	-0.4940359	6.432483E-005	-0.0017289	9
	5	21	94921.88	97.5691	-0.8349371	1	97.5727	-0.4902903	-1.967828E-005	0.0002568	9
	6	23	75421.88	98.1106	-0.7582321	1	98.1135	-0.4427925	2.228342E-005	-0.000545	9
	7	26	59859.37	98.8692	-0.8656694	1	98.873	-0.5016521	-5.779569E-006	0.0003899	9
	8	28	47578.12	99.5069	-0.8943576	1	99.5109	-0.5149546	-1.816813E-005	0.0005746	9
	9	31	37828.12	100.2083	-0.9171491	1	100.2125	-0.524381	4.716449E-006	-0.0007041	9
	10	33	30046.88	100.8442	-0.984845	1	100.849	-0.5595332	2.148677E-005	-0.0005313	9
	11	36	23859.38	101.4831	-1.050506	1	101.4885	-0.5930783	3.644313E-006	0.00023	9
	12	38	18984.38	102.1029	-1.211381	1	102.1101	-0.6797432	2.401141E-005	-0.0006775	9
	13	41	15046.87	102.6676	-1.410804	1	102.6773	-0.7872784	-2.103962E-005	0.000554	9
	14	43	11953.13	103.2903	-1.751911	1	103.3052	-0.971703	2.202938E-005	-0.0007089	9
	15	45	9515.62	104.0167	-1.879411	1	104.0336	-1.035129	1.842624E-005	-0.000378	9
	16	48	7546.875	104.5961	-2.244394	1	104.6202	-1.229249	1.819055E-005	-0.0003902	9
	17	50	5928.309	105.3293	-2.759873	1	105.3655	-1.500939	2.210906E-005	-0.000519	9
	18	52	4733.456	105.9703	-3.282337	1	106.0211	-1.77412	2.148341E-005	-0.000904	9
	19	55	3796.875	106.8029	-4.06462	1	106.8802	-2.179465	-2.057403E-005	0.000541	9
	20	57	2987.132	107.492	-5.004635	1	107.6084	-2.665665	-6.305114E-006	0.0004875	9
	21	59	2390.625	108.3728	-6.056381	1	108.5419	-3.198631	-1.807377E-005	0.0005924	9
	22	62	1884.191	109.392	-7.470511	1	109.6468	-3.906732	-2.004962E-005	0.0002845	9
	23	64	1516.544	110.1376	-9.056723	1	110.5093	-4.700913	1.233556E-005	-0.0008764	9
	24	66	1193.986	111.288	-11.25091	1	111.8552	-5.772831	2.188685E-005	-0.0005078	9
	25	69	946.5144	112.449	-13.79657	1	113.2922	-6.994762	-2.156114E-005	0.0004864	9
	26	71	751.7689	113.8394	-16.88301	1	115.0846	-8.435786	2.204122E-005	-0.0009221	9
	27	73	597.4265	115.3674	-20.70804	1	117.2112	-10.17602	1.90033E-005	-0.0003621	9
	28	76	477.4305	117.2556	-25.04946	1	119.9014	-12.0589	5.523305E-007	-0.0001389	9
	29	78	376.6741	119.4476	-30.65656	1	123.3189	-14.39443	4.749049E-007	-0.0001382	9
	30	80	298.2954	122.0266	-37.31098	1	127.6033	-17.0016	5.494625E-007	-0.0001383	9
	31	83	237.7717	125.0328	-45.04943	1	132.9009	-19.81415	5.026981E-007	-0.0001378	9
	32	85	189.0121	128.5611	-54.38676	1	139.5918	-22.93042	5.97531E-007	-0.0001405	9
	33	88	150.2404	132.6089	-65.53611	1	147.9192	-26.29886	5.638735E-007	-0.0001434	9
	34	90	119.1737	137.2675	-79.02639	1	158.3904	-29.92951	5.0662E-007	-0.0001371	9
	35	92	95.0169	142.4533	-94.89351	1	171.1658	-33.66908	6.016322E-007	-0.0001436	9
	36	95	75.60484	148.3307	-114.2257	1	187.2152	-37.59895	6.536588E-007	-0.0001437	9
	37	98	54.50582	157.5623	-149.2919	1	217.0575	-43.45613	5.586638E-007	-0.000142	9
	38	100	45.95588	163.3634	-172.0827	1	237.2763	-46.48896	6.280351E-007	-0.0001326	9
	39	102	37.20238	171.022	-205.5771	1	267.4144	-50.24253	5.107277E-007	-0.000141	9
	40	105	30.04808	179.7422	-246.6792	1	305.2178	-53.92114	5.464381E-007	-0.0001351	9
	41	107	23.91582	190.3422	-300.5104	1	355.7199	-57.64997	5.607877E-007	-0.0001426	9
	42	110	18.60119	203.2265	-373.0347	1	424.801	-61.41879	1.47288E-007	-0.0001213	8
	43	112	15.02404	217.292	-450.7405	1	500.3827	-64.26231	1.468082E-007	-0.0001201	8
	44	114	12.01923	235.2717	-550.1333	1	598.3305	-66.8454	5.602291E-008	-0.0001277	8
	45	117	9.450605	259.4878	-682.7075	1	730.3585	-69.18889	1.649162E-007	-0.0001578	8
	46	119	7.512019	288.5275	-839.4064	1	887.6098	-71.03072	1.063953E-007	-0.0001431	8
	47	122	5.978954	325.795	-1030.732	1	1080.995	-72.45924	1.05046E-007	-0.0001238	8
	48	125	4.734848	374.4927	-1271.451	1	1325.455	-73.5882	8.559694E-008	-0.0001596	8
	49	128	3.75601	436.9182	-1565.572	1	1625.396	-74.4067	1.429566E-007	-0.0001067	8
	50	132	3.004808	515.5382	-1910.39	1	1978.73	-74.8979	1.095966E-007	-0.0001441	8
	51	136	2.372217	624.0959	-2360.954	1	2442.048	-75.19308	7.899742E-008	-0.0002005	8
	52	140	1.878005	763.686	-2902.597	1	3001.381	-75.25931	1.105421E-007	-0.0001115	8
	53	144	1.512097	935.2969	-3504.503	1	3627.164	-75.05694	9.075841E-008	-0.0002141	8
	54	150	1.201923	1169.339	-4300.284	1	4456.434	-74.78786	1.716979E-008	-8.077564E-005	7
	55	156	0.956633	1473.02	-5236.647	1	5439.877	-74.2892	-1.615091E-008	-0.0006586	7
