EXPLAIN
TAG	EISPOT
TITLE	LABEL	Potentiostatic EIS	Test Identifier
DATE	LABEL	10/5/2021	Date
TIME	LABEL	18:14:50	Time
NOTES	NOTES	1	Notes...
	
PSTAT	PSTAT	REF3000-16137	Potentiostat
VDC	POTEN	0.00000E+000	T	DC Voltage (V)
FREQINIT	QUANT	3.00000E+005	Initial Freq. (Hz)
FREQFINAL	QUANT	1.00000E+000	Final Freq. (Hz)
PTSPERDEC	QUANT	1.00000E+001	Points/decade
VAC	QUANT	5.00000E+001	AC Voltage (mV rms)
AREA	QUANT	1.00000E+000	Sample Area (cm^2)
SPEED	SELECTOR	2	Optimize for:
ZGUESS	QUANT	1.00000E+003	Estimated Z (ohms)
EOC	QUANT	0	Open Circuit (V)
SEQUENCER	TOGGLE	TRUE	Run as Sequence
PSTATMODEL	IQUANT	5	Pstat Model
PSTATSECTION	LABEL	REF3000-16137	Pstat Section
PSTATSERIALNO	LABEL	16137	Pstat Serial Number
CTRLMODE	IQUANT	1	Control Mode
IESTAB	IQUANT	0	I/E Stability
CASPEED	IQUANT	1	Control Amp Speed
CONVENTION	IQUANT	1	Current Convention
ICHRANGE	IQUANT	2	Ich Range
ICHRANGEMODE	TOGGLE	F	Ich Auto Range
ICHOFFSETENABLE	TOGGLE	T	Ich Offset Enable
ICHOFFSET	QUANT	0	Ich Offset (V)
ICHFILTER	IQUANT	3	Ich Filter
VCHRANGE	IQUANT	2	Vch Range
VCHRANGEMODE	TOGGLE	F	Vch Auto Range
VCHOFFSETENABLE	TOGGLE	T	Vch Offset Enable
VCHOFFSET	QUANT	0	Vch Offset (V)
VCHFILTER	IQUANT	3	Vch Filter
ACHRANGE	IQUANT	2	Ach Range
ACHOFFSETENABLE	TOGGLE	F	Ach Offset Enable
ACHOFFSET	QUANT	0	Ach Offset (V)
ACHFILTER	IQUANT	3	Ach Filter
IERANGELOWERLIMIT	IQUANT	2	I/E Range Lower Limit
IERANGEMODE	TOGGLE	F	I/E AutoRange
IERANGE	IQUANT	11	I/E Range
POSFEEDENABLE	TOGGLE	F	Positive Feedback IR Comp
POSFEEDRESISTANCE	QUANT	0	Positive Feedback Resistance (ohm)
ACHSELECT	IQUANT	0	Ach Select
CABLEID	IQUANT	13	Cable ID
DCCALDATE	LABEL	9/10/2021	DC Calibration Date
ACCALDATE	LABEL	9/10/2021	AC Calibration Date
THERMOSELECT	IQUANT	1	Thermo Select
FRAMEWORKVERSION	QUANT	6.33	Framework Version
INSTRUMENTVERSION	LABEL	3.50	Instrument Version
COMPLIANCEVOLTAGE	IQUANT	0	Compliance Voltage
ZCURVE	TABLE
	Pt	Time	Freq	Zreal	Zimag	Zsig	Zmod	Zphz	Idc	Vdc	IERange
	#	s	Hz	ohm	ohm	V	ohm	°	A	V	#
	0	10	300046.9	5.450364	2.193358	1	5.875142	21.92104	9.616927E-006	-0.0007366	10
	1	13	238359.4	5.422426	1.727921	1	5.691082	17.67511	-8.071062E-005	-0.0008305	10
	2	16	189328.1	5.411021	1.353758	1	5.577796	14.04623	-2.201553E-005	-0.0007043	10
	3	19	150421.9	5.408159	1.050005	1	5.509146	10.9874	2.054151E-005	-0.0004954	10
	4	21	119484.4	5.418863	0.7906948	1	5.476246	8.301742	2.691476E-005	-0.0002915	10
	5	24	94921.88	5.435696	0.5926282	1	5.467906	6.222113	-2.529895E-005	-0.0002846	10
	6	26	75421.88	5.44668	0.4065449	1	5.461831	4.268691	2.528677E-005	-0.0002784	10
	7	29	59859.37	5.463241	0.2444209	1	5.468706	2.561658	-8.042589E-006	-0.000172	10
	8	32	47578.12	5.481851	0.0964596	1	5.482699	1.008083	-2.36807E-005	-0.0001869	10
	9	34	37828.12	5.505795	-0.0427513	1	5.505961	-0.4448804	-2.640227E-005	-0.0001736	10
	10	37	30046.88	5.533864	-0.180399	1	5.536804	-1.86713	-4.366133E-006	-0.0001744	10
	11	39	23859.38	5.565761	-0.3222263	1	5.575081	-3.313405	1.803599E-005	-0.0001738	10
	12	41	18984.38	5.602075	-0.4731066	1	5.622017	-4.82729	-2.492225E-005	-0.0001419	10
	13	44	15046.87	5.64712	-0.6439813	1	5.68372	-6.505742	3.097394E-006	-0.0001623	10
	14	46	11953.13	5.702121	-0.8365064	1	5.763152	-8.345813	2.240592E-005	-0.000159	10
	15	48	9515.62	5.769587	-1.057944	1	5.86578	-10.39065	1.0985E-005	-0.0001647	10
	16	51	7546.875	5.852284	-1.318813	1	5.999042	-12.69948	2.315822E-005	-0.0001286	10
	17	53	5928.309	5.956619	-1.637781	1	6.177673	-15.37367	2.213173E-005	-0.0001478	10
	18	55	4733.456	6.074321	-1.990062	1	6.392004	-18.13977	-2.104675E-005	-0.0001081	10
	19	58	3796.875	6.20926	-2.392127	1	6.65411	-21.06926	2.278016E-005	-0.0001633	10
	20	60	2987.132	6.378892	-2.916157	1	7.01386	-24.56786	-2.628619E-005	-0.0001124	10
	21	62	2390.625	6.558963	-3.498357	1	7.433606	-28.07414	-6.827979E-007	-0.0001596	10
	22	65	1884.191	6.775759	-4.238691	1	7.992334	-32.02874	-2.774799E-006	-0.0001464	10
	23	67	1516.544	6.995001	-5.062218	1	8.634586	-35.89291	-1.428873E-005	-0.0001129	10
	24	69	1193.986	7.262512	-6.161967	1	9.52439	-40.31334	-5.118452E-006	-0.0001263	10
	25	72	946.5144	7.556103	-7.48069	1	10.63275	-44.71265	-6.687343E-007	-0.0001092	10
	26	74	751.7689	7.877726	-9.088334	1	12.02732	-49.08141	-2.392683E-005	-0.0001168	10
	27	76	597.4265	8.243166	-11.07799	1	13.80839	-53.34696	-2.720804E-005	-0.0001132	10
	28	79	477.4305	8.668566	-13.47843	1	16.02536	-57.25316	-1.794166E-006	-0.0001205	10
	29	81	376.6741	9.192427	-16.61947	1	18.9923	-61.0525	-1.69958E-006	-0.000123	10
	30	83	298.2954	9.8235	-20.47169	1	22.70664	-64.36561	-1.764689E-006	-0.0001222	10
	31	86	237.7717	10.58992	-25.10753	1	27.24948	-67.13084	-1.690931E-006	-0.0001206	10
	32	88	189.0121	11.57082	-30.90219	1	32.99742	-69.4724	-1.994729E-006	-0.0001148	10
	33	91	150.2404	12.82345	-38.04434	1	40.14738	-71.37279	-1.725931E-006	-0.0001194	10
	34	93	119.1737	14.43981	-46.87798	1	49.05154	-72.87962	7.817202E-007	-0.0001306	9
	35	95	95.0169	16.5147	-57.53366	1	59.85698	-73.98418	8.346141E-007	-0.0001344	9
	36	98	75.60484	19.24689	-70.7018	1	73.27473	-74.7716	7.238304E-007	-0.0001322	9
	37	100	54.50582	24.71656	-94.77453	1	97.9445	-75.38322	7.138394E-007	-0.000135	9
	38	103	45.95588	28.55406	-110.3175	1	113.953	-75.4883	7.297451E-007	-0.000134	9
	39	105	37.20238	34.57445	-132.9309	1	137.3536	-75.42077	6.486006E-007	-0.0001283	9
	40	108	30.04808	42.43964	-160.1507	1	165.6785	-75.15788	8.503081E-007	-0.0001359	9
	41	110	23.91582	53.4369	-194.9376	1	202.1291	-74.67046	7.66774E-007	-0.0001354	9
	42	113	18.60119	69.51012	-241.1148	1	250.9342	-73.91844	1.0223E-006	-0.0001357	9
	43	115	15.02404	87.36156	-287.931	1	300.8925	-73.1216	5.745998E-007	-0.0001313	9
	44	117	12.01923	111.1385	-345.0616	1	362.518	-72.14713	9.58643E-007	-0.0001255	9
	45	120	9.450605	143.4383	-415.9174	1	439.9566	-70.97211	3.594486E-007	-0.0001141	8
	46	122	7.512019	183.4786	-496.8831	1	529.6765	-69.73288	3.432512E-007	-0.0001184	8
	47	125	5.978954	233.4164	-590.5743	1	635.0285	-68.43427	3.797167E-007	-0.0001158	8
	48	128	4.734848	299.0994	-701.8669	1	762.9401	-66.91881	5.514012E-007	-0.0001311	8
	49	131	3.75601	380.7858	-828.8519	1	912.1367	-65.32531	4.542141E-007	-0.0001225	8
	50	135	3.004808	480.6193	-965.972	1	1078.933	-63.54737	6.769327E-007	-0.0001371	8
	51	138	2.372217	614.0286	-1126.507	1	1282.984	-61.40638	5.055491E-007	-0.0001412	8
	52	142	1.878005	782.0577	-1299.839	1	1516.969	-58.96647	4.440054E-007	-0.0001239	8
	53	147	1.512097	967.641	-1465.627	1	1756.244	-56.5663	5.958213E-007	-0.0002312	8
	54	153	1.201923	1200.757	-1643.321	1	2035.27	-53.8448	4.920317E-007	-0.0001196	8
	55	159	0.956633	1464.262	-1815.556	1	2332.447	-51.11351	4.364261E-007	-0.0006794	8
