EXPLAIN
TAG	EISPOT
TITLE	LABEL	Potentiostatic EIS	Test Identifier
DATE	LABEL	10/5/2021	Date
TIME	LABEL	17:20:58	Time
NOTES	NOTES	1	Notes...
	
PSTAT	PSTAT	REF3000-16137	Potentiostat
VDC	POTEN	0.00000E+000	T	DC Voltage (V)
FREQINIT	QUANT	3.00000E+005	Initial Freq. (Hz)
FREQFINAL	QUANT	1.00000E+000	Final Freq. (Hz)
PTSPERDEC	QUANT	1.00000E+001	Points/decade
VAC	QUANT	5.00000E+001	AC Voltage (mV rms)
AREA	QUANT	1.00000E+000	Sample Area (cm^2)
SPEED	SELECTOR	2	Optimize for:
ZGUESS	QUANT	1.00000E+003	Estimated Z (ohms)
EOC	QUANT	0	Open Circuit (V)
SEQUENCER	TOGGLE	TRUE	Run as Sequence
PSTATMODEL	IQUANT	5	Pstat Model
PSTATSECTION	LABEL	REF3000-16137	Pstat Section
PSTATSERIALNO	LABEL	16137	Pstat Serial Number
CTRLMODE	IQUANT	1	Control Mode
IESTAB	IQUANT	0	I/E Stability
CASPEED	IQUANT	1	Control Amp Speed
CONVENTION	IQUANT	1	Current Convention
ICHRANGE	IQUANT	2	Ich Range
ICHRANGEMODE	TOGGLE	F	Ich Auto Range
ICHOFFSETENABLE	TOGGLE	T	Ich Offset Enable
ICHOFFSET	QUANT	0	Ich Offset (V)
ICHFILTER	IQUANT	3	Ich Filter
VCHRANGE	IQUANT	2	Vch Range
VCHRANGEMODE	TOGGLE	F	Vch Auto Range
VCHOFFSETENABLE	TOGGLE	T	Vch Offset Enable
VCHOFFSET	QUANT	0	Vch Offset (V)
VCHFILTER	IQUANT	3	Vch Filter
ACHRANGE	IQUANT	2	Ach Range
ACHOFFSETENABLE	TOGGLE	F	Ach Offset Enable
ACHOFFSET	QUANT	0	Ach Offset (V)
ACHFILTER	IQUANT	3	Ach Filter
IERANGELOWERLIMIT	IQUANT	2	I/E Range Lower Limit
IERANGEMODE	TOGGLE	F	I/E AutoRange
IERANGE	IQUANT	11	I/E Range
POSFEEDENABLE	TOGGLE	F	Positive Feedback IR Comp
POSFEEDRESISTANCE	QUANT	0	Positive Feedback Resistance (ohm)
ACHSELECT	IQUANT	0	Ach Select
CABLEID	IQUANT	13	Cable ID
DCCALDATE	LABEL	9/10/2021	DC Calibration Date
ACCALDATE	LABEL	9/10/2021	AC Calibration Date
THERMOSELECT	IQUANT	1	Thermo Select
FRAMEWORKVERSION	QUANT	6.33	Framework Version
INSTRUMENTVERSION	LABEL	3.50	Instrument Version
COMPLIANCEVOLTAGE	IQUANT	0	Compliance Voltage
ZCURVE	TABLE
	Pt	Time	Freq	Zreal	Zimag	Zsig	Zmod	Zphz	Idc	Vdc	IERange
	#	s	Hz	ohm	ohm	V	ohm	°	A	V	#
	0	10	300046.9	1.608005	2.23263	1	2.751421	54.23747	-0.0001288	-0.0007796	11
	1	13	238359.4	1.686634	1.615127	1	2.335245	43.75934	-9.427378E-005	-0.0011035	12
	2	18	189328.1	1.52842	1.384112	1	2.061997	42.16348	3.182471E-005	-0.0004186	11
	3	20	150421.9	1.510426	1.083695	1	1.858973	35.65854	-4.444129E-005	-0.0001311	11
	4	23	119484.4	1.501585	0.8358665	1	1.718555	29.10276	-0.000169	-5.450258E-005	11
	5	25	94921.88	1.498958	0.6297431	1	1.62587	22.78827	-7.130272E-005	5.788303E-005	11
	6	28	75421.88	1.497478	0.4579768	1	1.565944	17.00531	-5.819841E-005	0.0001007	11
	7	30	59859.37	1.501454	0.3119835	1	1.533525	11.73832	-2.440811E-005	0.0001886	11
	8	33	47578.12	1.507707	0.1862116	1	1.519162	7.040749	-5.573764E-005	0.0001865	11
	9	35	37828.12	1.517846	0.0740025	1	1.519649	2.79124	-3.299724E-005	0.000282	11
	10	38	30046.88	1.530347	-0.0300959	1	1.530643	-1.126635	-7.806016E-005	0.0003039	11
	11	40	23859.38	1.546053	-0.130701	1	1.551568	-4.832211	-1.510032E-005	0.0003533	11
	12	43	18984.38	1.56401	-0.2309209	1	1.580965	-8.398856	-6.116673E-005	0.0003401	11
	13	45	15046.87	1.585602	-0.3379332	1	1.621213	-12.03122	-7.829053E-005	0.0003596	11
	14	47	11953.13	1.608595	-0.4538614	1	1.671397	-15.75629	-2.304513E-005	0.0003821	11
	15	50	9515.62	1.635062	-0.5838945	1	1.736192	-19.65207	-4.933953E-005	0.000377	11
	16	52	7546.875	1.664658	-0.7380431	1	1.820932	-23.9106	-7.346262E-005	0.0003659	11
	17	54	5928.309	1.698897	-0.929426	1	1.936513	-28.68202	-6.950212E-005	0.0003596	11
	18	57	4733.456	1.735242	-1.145845	1	2.079429	-33.43826	-8.395402E-005	0.0003431	11
	19	59	3796.875	1.77703	-1.402148	1	2.263593	-38.27487	-2.65759E-005	0.0003598	11
	20	61	2987.132	1.831632	-1.746928	1	2.531133	-43.64407	-7.305647E-005	0.0003489	11
	21	63	2390.625	1.8937	-2.141501	1	2.858693	-48.51411	-4.830751E-005	0.000369	11
	22	66	1884.191	1.978524	-2.659072	1	3.314396	-53.34834	-4.957481E-005	0.0003434	11
	23	68	1516.544	2.076612	-3.23987	1	3.848256	-57.34194	-2.016229E-005	0.0003726	11
	24	70	1193.986	2.217958	-4.030269	1	4.600262	-61.17491	-1.152965E-005	-0.0001426	10
	25	73	946.5144	2.393165	-4.975952	1	5.521533	-64.31495	-3.648618E-005	-0.0001415	10
	26	75	751.7689	2.623283	-6.124636	1	6.662791	-66.81375	1.222475E-005	-0.0001449	10
	27	78	597.4265	2.928827	-7.529071	1	8.078672	-68.74384	9.485902E-006	-0.0001636	10
	28	80	477.4305	3.315359	-9.204286	1	9.78317	-70.19112	-4.362663E-006	-0.0001246	10
	29	82	376.6741	3.856211	-11.35129	1	11.98842	-71.23658	-1.707387E-006	-0.0001676	10
	30	84	298.2954	4.5637	-13.92626	1	14.65496	-71.85578	-3.839163E-006	-0.0001249	10
	31	87	237.7717	5.471552	-16.94592	1	17.80737	-72.10561	-3.959683E-006	-0.0001314	10
	32	89	189.0121	6.680085	-20.61274	1	21.66814	-72.04375	-4.572504E-006	-0.0001274	10
	33	92	150.2404	8.264723	-24.98626	1	26.31765	-71.6973	-4.92243E-006	-0.0001273	10
	34	94	119.1737	10.35524	-30.23173	1	31.95604	-71.09219	-4.901819E-006	-0.0001231	10
	35	96	95.0169	12.99396	-36.26132	1	38.51917	-70.28526	-4.767299E-006	-0.0001204	10
	36	99	75.60484	16.3797	-43.31811	1	46.31148	-69.2871	-3.573079E-006	-0.000136	9
	37	101	54.50582	22.91858	-55.52391	1	60.06801	-67.57065	-3.477407E-006	-0.0001383	9
	38	104	45.95588	27.31163	-62.96167	1	68.63014	-66.54967	-2.715736E-006	-0.0001346	9
	39	106	37.20238	33.94226	-73.28027	1	80.75936	-65.14717	-2.743684E-006	-0.0001352	9
	40	109	30.04808	42.42373	-85.06965	1	95.0611	-63.49484	-3.467883E-006	-0.0001311	9
	41	111	23.91582	53.66759	-98.9099	1	112.5316	-61.51615	-3.600841E-006	-0.0001356	9
	42	114	18.60119	69.81738	-115.5958	1	135.0439	-58.86892	-3.15119E-006	-0.0001281	9
	43	116	15.02404	86.91193	-130.2196	1	156.5593	-56.27982	-2.625711E-006	-0.0001384	9
	44	118	12.01923	108.4891	-145.1727	1	181.2319	-53.22886	-2.736639E-006	-0.0001358	9
	45	121	9.450605	135.8651	-159.6757	1	209.656	-49.60615	-1.437071E-006	-0.0001384	9
	46	123	7.512019	165.4744	-170.9317	1	237.9064	-45.92938	-1.407255E-006	-0.0001363	9
	47	126	5.978954	197.1619	-178.8013	1	266.163	-42.20411	-1.372832E-006	-0.0001361	9
	48	129	4.734848	230.9541	-182.9488	1	294.6355	-38.38428	-2.153756E-006	-0.0001431	9
	49	132	3.75601	263.8878	-183.476	1	321.4035	-34.81013	-1.102608E-006	-0.0001322	9
	50	136	3.004808	294.5299	-180.538	1	345.4588	-31.50705	-1.909992E-006	-0.0001178	9
	51	139	2.372217	324.8677	-175.4743	1	369.2292	-28.3753	-1.272626E-006	-0.0001291	9
	52	143	1.878005	350.9559	-167.2191	1	388.7573	-25.47628	-1.780619E-006	-0.0001417	8
	53	148	1.512097	373.7649	-160.7813	1	406.8793	-23.27578	-2.13342E-006	-3.353497E-005	8
	54	154	1.201923	396.0989	-154.1997	1	425.0552	-21.27076	-1.926942E-006	-0.0001396	8
	55	160	0.956633	416.4275	-148.2407	1	442.0262	-19.59481	-4.700012E-006	-0.000669	8
