EXPLAIN
TAG	EISPOT
TITLE	LABEL	Potentiostatic EIS	Test Identifier
DATE	LABEL	10/5/2021	Date
TIME	LABEL	17:23:47	Time
NOTES	NOTES	1	Notes...
	
PSTAT	PSTAT	REF3000-16137	Potentiostat
VDC	POTEN	0.00000E+000	T	DC Voltage (V)
FREQINIT	QUANT	3.00000E+005	Initial Freq. (Hz)
FREQFINAL	QUANT	1.00000E+000	Final Freq. (Hz)
PTSPERDEC	QUANT	1.00000E+001	Points/decade
VAC	QUANT	5.00000E+001	AC Voltage (mV rms)
AREA	QUANT	1.00000E+000	Sample Area (cm^2)
SPEED	SELECTOR	2	Optimize for:
ZGUESS	QUANT	1.00000E+003	Estimated Z (ohms)
EOC	QUANT	0	Open Circuit (V)
SEQUENCER	TOGGLE	TRUE	Run as Sequence
PSTATMODEL	IQUANT	5	Pstat Model
PSTATSECTION	LABEL	REF3000-16137	Pstat Section
PSTATSERIALNO	LABEL	16137	Pstat Serial Number
CTRLMODE	IQUANT	1	Control Mode
IESTAB	IQUANT	0	I/E Stability
CASPEED	IQUANT	1	Control Amp Speed
CONVENTION	IQUANT	1	Current Convention
ICHRANGE	IQUANT	2	Ich Range
ICHRANGEMODE	TOGGLE	F	Ich Auto Range
ICHOFFSETENABLE	TOGGLE	T	Ich Offset Enable
ICHOFFSET	QUANT	0	Ich Offset (V)
ICHFILTER	IQUANT	3	Ich Filter
VCHRANGE	IQUANT	2	Vch Range
VCHRANGEMODE	TOGGLE	F	Vch Auto Range
VCHOFFSETENABLE	TOGGLE	T	Vch Offset Enable
VCHOFFSET	QUANT	0	Vch Offset (V)
VCHFILTER	IQUANT	3	Vch Filter
ACHRANGE	IQUANT	2	Ach Range
ACHOFFSETENABLE	TOGGLE	F	Ach Offset Enable
ACHOFFSET	QUANT	0	Ach Offset (V)
ACHFILTER	IQUANT	3	Ach Filter
IERANGELOWERLIMIT	IQUANT	2	I/E Range Lower Limit
IERANGEMODE	TOGGLE	F	I/E AutoRange
IERANGE	IQUANT	11	I/E Range
POSFEEDENABLE	TOGGLE	F	Positive Feedback IR Comp
POSFEEDRESISTANCE	QUANT	0	Positive Feedback Resistance (ohm)
ACHSELECT	IQUANT	0	Ach Select
CABLEID	IQUANT	13	Cable ID
DCCALDATE	LABEL	9/10/2021	DC Calibration Date
ACCALDATE	LABEL	9/10/2021	AC Calibration Date
THERMOSELECT	IQUANT	1	Thermo Select
FRAMEWORKVERSION	QUANT	6.33	Framework Version
INSTRUMENTVERSION	LABEL	3.50	Instrument Version
COMPLIANCEVOLTAGE	IQUANT	0	Compliance Voltage
ZCURVE	TABLE
	Pt	Time	Freq	Zreal	Zimag	Zsig	Zmod	Zphz	Idc	Vdc	IERange
	#	s	Hz	ohm	ohm	V	ohm	°	A	V	#
	0	10	300046.9	1.597368	2.229145	1	2.742385	54.37524	-0.000208	-0.0008956	11
	1	13	238359.4	1.692487	1.61021	1	2.336084	43.57294	-9.461851E-005	-0.0012231	12
	2	18	189328.1	1.531418	1.385725	1	2.065302	42.14081	-3.008892E-005	-0.0002671	11
	3	20	150421.9	1.514727	1.077734	1	1.859007	35.43199	6.329017E-006	-0.000119	11
	4	23	119484.4	1.501652	0.8355492	1	1.718459	29.09245	-0.0001788	-6.428896E-005	11
	5	25	94921.88	1.499833	0.6289248	1	1.62636	22.74976	-6.044417E-005	5.101584E-005	11
	6	28	75421.88	1.498951	0.4573669	1	1.567176	16.96824	-3.68525E-005	0.0001268	11
	7	30	59859.37	1.503006	0.3102325	1	1.534689	11.66253	-2.205306E-005	0.0001884	11
	8	33	47578.12	1.510535	0.185061	1	1.521829	6.984701	-6.366261E-005	0.0002286	11
	9	35	37828.12	1.52047	0.072395	1	1.522192	2.725997	-9.107459E-005	0.000239	11
	10	38	30046.88	1.534373	-0.0321278	1	1.53471	-1.199525	-2.39549E-005	0.0003385	11
	11	41	23859.38	1.550587	-0.1333756	1	1.556313	-4.916265	-2.458398E-005	0.0003546	11
	12	43	18984.38	1.569753	-0.2342191	1	1.58713	-8.486359	-8.106359E-005	0.0003458	11
	13	45	15046.87	1.591003	-0.3425114	1	1.627453	-12.14922	-5.86592E-005	0.0003594	11
	14	47	11953.13	1.615314	-0.4597691	1	1.679472	-15.88802	-5.887018E-005	0.0003656	11
	15	50	9515.62	1.641737	-0.5907957	1	1.744804	-19.79178	-2.042801E-005	0.0003764	11
	16	52	7546.875	1.672531	-0.7470469	1	1.831786	-24.06824	-6.930679E-005	0.0003731	11
	17	54	5928.309	1.707595	-0.9407564	1	1.94959	-28.85146	-7.411106E-005	0.0003747	11
	18	57	4733.456	1.745008	-1.159881	1	2.095323	-33.61139	-4.323867E-005	0.0003773	11
	19	59	3796.875	1.787934	-1.421193	1	2.283965	-38.48047	-7.775924E-005	0.0003608	11
	20	61	2987.132	1.842953	-1.769354	1	2.554817	-43.83278	-3.722349E-005	0.0003201	11
	21	64	2390.625	1.90584	-2.168397	1	2.886896	-48.68723	-0.0001038	0.0003274	11
	22	66	1884.191	1.991701	-2.694628	1	3.350805	-53.53049	-4.999894E-005	0.0003693	11
	23	68	1516.544	2.089852	-3.284094	1	3.892654	-57.52913	-2.384168E-005	0.0003834	11
	24	71	1193.986	2.231747	-4.087605	1	4.657168	-61.36639	1.357253E-005	-0.0001423	10
	25	73	946.5144	2.413692	-5.045341	1	5.592975	-64.43354	7.368098E-006	-0.0001566	10
	26	76	751.7689	2.640067	-6.216682	1	6.754042	-66.9903	1.352326E-005	-0.0001426	10
	27	78	597.4265	2.944898	-7.648355	1	8.195717	-68.94146	1.150996E-005	-0.0001564	10
	28	80	477.4305	3.335547	-9.352341	1	9.92936	-70.37103	-3.693422E-006	-0.0001212	10
	29	82	376.6741	3.880065	-11.5398	1	12.17464	-71.41564	-4.433745E-006	-0.000121	10
	30	85	298.2954	4.592957	-14.16586	1	14.89184	-72.03589	-3.300122E-006	-0.000127	10
	31	87	237.7717	5.508892	-17.24763	1	18.10604	-72.28652	-4.142713E-006	-0.0001207	10
	32	90	189.0121	6.728749	-20.99327	1	22.04526	-72.22834	-3.479816E-006	-0.000124	10
	33	92	150.2404	8.330339	-25.46454	1	26.79249	-71.88528	-4.203727E-006	-0.0001289	10
	34	95	119.1737	10.44457	-30.83257	1	32.55359	-71.28613	-4.633283E-006	-0.0001229	10
	35	97	95.0169	13.11698	-37.00791	1	39.26373	-70.48379	-4.705861E-006	-0.0001248	10
	36	99	75.60484	16.55293	-44.24826	1	47.24307	-69.48957	-2.619177E-006	-0.0001418	9
	37	102	54.50582	23.20063	-56.77845	1	61.33564	-67.77425	-2.875501E-006	-0.0001411	9
	38	105	45.95588	27.67332	-64.43025	1	70.12183	-66.75608	-1.928765E-006	-0.0001343	9
	39	107	37.20238	34.46226	-75.04774	1	82.58215	-65.3352	-2.541359E-006	-0.000132	9
	40	109	30.04808	43.01509	-87.14111	1	97.1796	-63.72787	-2.866239E-006	-0.0001341	9
	41	112	23.91582	54.53687	-101.466	1	115.1938	-61.74244	-2.64701E-006	-0.0001824	9
	42	114	18.60119	71.00149	-118.7088	1	138.3221	-59.11573	-2.753565E-006	-0.0001349	9
	43	116	15.02404	88.49315	-134.0047	1	160.5874	-56.56029	-2.804343E-006	-0.0001367	9
	44	119	12.01923	110.6928	-149.5466	1	186.0567	-53.49156	-9.966769E-007	-0.0001372	9
	45	121	9.450605	138.879	-164.8182	1	215.5283	-49.88186	-9.985328E-007	-0.0001452	9
	46	124	7.512019	169.2372	-176.7576	1	244.713	-46.24516	-5.430022E-007	-0.0001293	9
	47	126	5.978954	202.0644	-185.3297	1	274.1844	-42.52647	-7.323727E-007	-0.0001352	9
	48	129	4.734848	237.1858	-190.0519	1	303.9356	-38.70446	-1.145795E-006	-0.0001284	9
	49	133	3.75601	271.7923	-191.0766	1	332.2368	-35.10815	-1.150125E-006	-0.0001326	9
	50	136	3.004808	303.7251	-188.5989	1	357.5171	-31.83832	-1.959949E-006	-0.0000991	9
	51	140	2.372217	334.5521	-183.167	1	381.4122	-28.70067	-1.165135E-006	-9.441507E-005	8
	52	144	1.878005	363.4518	-175.8474	1	403.7568	-25.8189	-1.463401E-006	-0.0001493	8
	53	149	1.512097	387.6043	-169.5478	1	423.0645	-23.62577	-2.107312E-006	-3.029207E-005	8
	54	154	1.201923	412.0493	-163.2779	1	443.2204	-21.61635	-1.459882E-006	-0.0001557	8
	55	160	0.956633	434.2263	-157.6299	1	461.9521	-19.95156	-3.974078E-006	-0.0006716	8
