EXPLAIN
TAG	EISPOT
TITLE	LABEL	Potentiostatic EIS	Test Identifier
DATE	LABEL	8/3/2020	Date
TIME	LABEL	1:20:27	Time
NOTES	NOTES	1	Notes...
	
PSTAT	PSTAT	REF3000-16137	Potentiostat
VDC	POTEN	0.00000E+000	T	DC Voltage (V)
FREQINIT	QUANT	3.00000E+005	Initial Freq. (Hz)
FREQFINAL	QUANT	1.00000E+000	Final Freq. (Hz)
PTSPERDEC	QUANT	1.00000E+001	Points/decade
VAC	QUANT	5.00000E+001	AC Voltage (mV rms)
AREA	QUANT	1.00000E+000	Sample Area (cm^2)
SPEED	SELECTOR	2	Optimize for:
ZGUESS	QUANT	1.00000E+003	Estimated Z (ohms)
EOC	QUANT	0	Open Circuit (V)
SEQUENCER	TOGGLE	TRUE	Run as Sequence
PSTATMODEL	IQUANT	5	Pstat Model
PSTATSECTION	LABEL	REF3000-16137	Pstat Section
PSTATSERIALNO	LABEL	16137	Pstat Serial Number
CTRLMODE	IQUANT	1	Control Mode
IESTAB	IQUANT	0	I/E Stability
CASPEED	IQUANT	1	Control Amp Speed
CONVENTION	IQUANT	1	Current Convention
ICHRANGE	IQUANT	2	Ich Range
ICHRANGEMODE	TOGGLE	F	Ich Auto Range
ICHOFFSETENABLE	TOGGLE	T	Ich Offset Enable
ICHOFFSET	QUANT	0	Ich Offset (V)
ICHFILTER	IQUANT	3	Ich Filter
VCHRANGE	IQUANT	2	Vch Range
VCHRANGEMODE	TOGGLE	F	Vch Auto Range
VCHOFFSETENABLE	TOGGLE	T	Vch Offset Enable
VCHOFFSET	QUANT	0	Vch Offset (V)
VCHFILTER	IQUANT	3	Vch Filter
ACHRANGE	IQUANT	2	Ach Range
ACHOFFSETENABLE	TOGGLE	F	Ach Offset Enable
ACHOFFSET	QUANT	0	Ach Offset (V)
ACHFILTER	IQUANT	3	Ach Filter
IERANGELOWERLIMIT	IQUANT	2	I/E Range Lower Limit
IERANGEMODE	TOGGLE	F	I/E AutoRange
IERANGE	IQUANT	11	I/E Range
POSFEEDENABLE	TOGGLE	F	Positive Feedback IR Comp
POSFEEDRESISTANCE	QUANT	0	Positive Feedback Resistance (ohm)
ACHSELECT	IQUANT	0	Ach Select
CABLEID	IQUANT	13	Cable ID
DCCALDATE	LABEL	7/31/2020	DC Calibration Date
ACCALDATE	LABEL	7/31/2020	AC Calibration Date
THERMOSELECT	IQUANT	1	Thermo Select
FRAMEWORKVERSION	QUANT	6.33	Framework Version
INSTRUMENTVERSION	LABEL	3.50	Instrument Version
COMPLIANCEVOLTAGE	IQUANT	0	Compliance Voltage
ZCURVE	TABLE
	Pt	Time	Freq	Zreal	Zimag	Zsig	Zmod	Zphz	Idc	Vdc	IERange
	#	s	Hz	ohm	ohm	V	ohm	°	A	V	#
	0	9	300046.9	419.8031	-47.19362	1	422.4475	-6.414173	8.566967E-005	-0.0026854	9
	1	14	238359.4	440.7531	-43.4488	1	442.8895	-5.629945	4.281364E-006	0.0012517	9
	2	20	189328.1	467.4225	-40.50975	1	469.1746	-4.953234	-1.751397E-005	0.0010871	9
	3	26	150421.9	495.9904	-36.36038	1	497.3214	-4.192775	1.487366E-005	-0.001778	9
	4	33	119484.4	515.1741	-15.87773	1	515.4188	-1.765304	-4.803639E-005	0.0234247	8
	5	36	94921.88	530.5414	-12.22611	1	530.6823	-1.320124	1.568799E-005	-0.0023241	8
	6	39	75421.88	544.1566	-11.31621	1	544.2743	-1.191344	-1.604145E-005	0.0065115	8
	7	41	59859.37	557.1051	-10.35664	1	557.2014	-1.065011	-1.384008E-005	0.0027561	8
	8	44	47578.12	570.1662	-9.197161	1	570.2404	-0.924139	1.2327E-005	-0.0004828	8
	9	46	37828.12	585.6131	-7.663474	1	585.6633	-0.7497435	-8.37426E-006	-0.0002449	8
	10	49	30046.88	600.123	-7.921372	1	600.1754	-0.7562363	1.650843E-005	-0.0026381	8
	11	51	23859.38	614.7576	-7.20953	1	614.7999	-0.6719017	-1.454236E-005	0.0029488	8
	12	54	18984.38	629.4024	-7.158999	1	629.4431	-0.6516702	-1.406775E-005	0.0027874	8
	13	56	15046.87	646.3265	-6.335801	1	646.3575	-0.5616403	2.553596E-006	0.0042675	8
	14	59	11953.13	664.6848	-8.283521	1	664.7364	-0.714002	-1.703768E-005	0.005635	8
	15	61	9515.62	679.5341	-6.257168	1	679.5629	-0.5275662	9.374405E-006	-0.0058383	8
	16	64	7546.875	696.1145	-10.14961	1	696.1885	-0.835335	1.386585E-005	-0.0004686	8
	17	66	5928.309	715.2404	-8.143762	1	715.2867	-0.6523443	6.078117E-007	0.00473	8
	18	68	4733.456	729.7516	-10.07649	1	729.8212	-0.791096	-1.294782E-005	0.0016097	8
	19	71	3796.875	748.989	-9.364763	1	749.0475	-0.7163436	-5.892546E-006	0.0065227	8
	20	73	2987.132	770.3973	-11.14844	1	770.478	-0.8290709	-8.536871E-006	-0.0004188	8
	21	76	2390.625	792.4341	-12.18968	1	792.5278	-0.8812877	1.890324E-005	-0.0053906	8
	22	78	1884.191	817.4553	-17.28235	1	817.6379	-1.211147	7.385791E-006	0.0024186	8
	23	81	1516.544	837.9676	-18.41719	1	838.17	-1.259067	3.629109E-006	-0.0047222	8
	24	83	1193.986	864.5556	-20.28876	1	864.7936	-1.344329	1.423094E-005	-0.0004273	8
	25	86	946.5144	888.3964	-24.57286	1	888.7361	-1.584385	-1.657476E-005	0.0080319	8
	26	89	751.7689	915.9633	-34.3041	1	916.6055	-2.144804	-2.981336E-006	-0.0028106	8
	27	92	597.4265	942.8917	-38.19279	1	943.6649	-2.319556	4.093912E-006	-0.0050012	8
	28	94	477.4305	969.384	-48.27288	1	970.585	-2.850832	-2.741214E-007	0.0006508	8
	29	96	376.6741	996.302	-59.5375	1	998.08	-3.419841	-3.164359E-007	0.0006735	8
	30	99	298.2954	1024.346	-73.28612	1	1026.964	-4.092215	-2.656755E-007	0.0006477	8
	31	101	237.7717	1054.755	-89.78757	1	1058.569	-4.865658	-2.856023E-007	0.000655	8
	32	104	189.0121	1086.764	-110.337	1	1092.351	-5.797261	-3.185373E-007	0.0006574	8
	33	106	150.2404	1120.934	-135.6009	1	1129.106	-6.897633	-2.800184E-007	0.0006532	8
	34	108	119.1737	1157.47	-167.0339	1	1169.461	-8.211633	-2.867432E-007	0.0006559	8
	35	111	95.0169	1196.24	-204.6823	1	1213.625	-9.70955	-3.146678E-007	0.0006529	8
	36	113	75.60484	1239.513	-251.2944	1	1264.73	-11.4606	-3.110966E-007	0.0006701	8
	37	116	54.50582	1293.181	-335.7221	1	1336.049	-14.55326	-3.224727E-007	0.0006399	8
	38	118	45.95588	1339.834	-391.7949	1	1395.944	-16.3	-3.149638E-007	0.0006659	8
	39	121	37.20238	1391.828	-473.0962	1	1470.036	-18.7734	-3.179126E-007	0.0006543	8
	40	123	30.04808	1450.867	-572.0449	1	1559.568	-21.51822	-3.216495E-007	0.0006426	8
	41	125	23.91582	1518.277	-699.9843	1	1671.868	-24.75153	-3.245021E-007	0.0006671	8
	42	128	18.60119	1596.648	-872.3499	1	1819.417	-28.65058	-2.734438E-007	0.0006475	8
	43	130	15.02404	1676.914	-1052.029	1	1979.597	-32.10253	-3.584633E-007	0.0006769	8
	44	132	12.01923	1774.087	-1279.096	1	2187.115	-35.79116	-3.193262E-007	0.0006534	8
	45	135	9.450605	1888.192	-1574.485	1	2458.51	-39.82333	-3.934152E-007	0.000653	8
	46	137	7.512019	2018.808	-1924.995	1	2789.479	-43.63734	-3.917843E-007	0.00066	8
	47	140	5.978954	2176.335	-2349.578	1	3202.648	-47.19209	-3.397956E-007	0.0006566	8
	48	143	4.734848	2364.815	-2880.184	1	3726.635	-50.61182	-3.568674E-007	0.0006539	8
	49	146	3.75601	2591.499	-3538.93	1	4386.33	-53.78531	-7.448188E-008	0.0006749	7
	50	150	3.004808	2842.123	-4309.583	1	5162.379	-56.59558	-5.90569E-008	0.0005638	7
	51	154	2.372217	3152.935	-5314.965	1	6179.794	-59.3228	-7.621934E-008	0.0005712	7
	52	158	1.878005	3525.975	-6548.901	1	7437.782	-61.70166	-7.561748E-008	0.0006402	7
	53	163	1.512097	3966.056	-7968.31	1	8900.762	-63.53915	-7.837573E-008	0.0005201	7
	54	168	1.201923	4506.734	-9840.69	1	10823.58	-65.39368	-8.012522E-008	0.0006429	7
	55	174	0.956633	5162.925	-12144.38	1	13196.27	-66.96825	-8.43175E-008	-1.353352E-005	7
