EXPLAIN
TAG	EISPOT
TITLE	LABEL	Potentiostatic EIS	Test Identifier
DATE	LABEL	8/3/2020	Date
TIME	LABEL	1:14:57	Time
NOTES	NOTES	1	Notes...
	
PSTAT	PSTAT	REF3000-16137	Potentiostat
VDC	POTEN	0.00000E+000	T	DC Voltage (V)
FREQINIT	QUANT	3.00000E+005	Initial Freq. (Hz)
FREQFINAL	QUANT	1.00000E+000	Final Freq. (Hz)
PTSPERDEC	QUANT	1.00000E+001	Points/decade
VAC	QUANT	5.00000E+001	AC Voltage (mV rms)
AREA	QUANT	1.00000E+000	Sample Area (cm^2)
SPEED	SELECTOR	2	Optimize for:
ZGUESS	QUANT	1.00000E+003	Estimated Z (ohms)
EOC	QUANT	0	Open Circuit (V)
SEQUENCER	TOGGLE	TRUE	Run as Sequence
PSTATMODEL	IQUANT	5	Pstat Model
PSTATSECTION	LABEL	REF3000-16137	Pstat Section
PSTATSERIALNO	LABEL	16137	Pstat Serial Number
CTRLMODE	IQUANT	1	Control Mode
IESTAB	IQUANT	0	I/E Stability
CASPEED	IQUANT	1	Control Amp Speed
CONVENTION	IQUANT	1	Current Convention
ICHRANGE	IQUANT	2	Ich Range
ICHRANGEMODE	TOGGLE	F	Ich Auto Range
ICHOFFSETENABLE	TOGGLE	T	Ich Offset Enable
ICHOFFSET	QUANT	0	Ich Offset (V)
ICHFILTER	IQUANT	3	Ich Filter
VCHRANGE	IQUANT	2	Vch Range
VCHRANGEMODE	TOGGLE	F	Vch Auto Range
VCHOFFSETENABLE	TOGGLE	T	Vch Offset Enable
VCHOFFSET	QUANT	0	Vch Offset (V)
VCHFILTER	IQUANT	3	Vch Filter
ACHRANGE	IQUANT	2	Ach Range
ACHOFFSETENABLE	TOGGLE	F	Ach Offset Enable
ACHOFFSET	QUANT	0	Ach Offset (V)
ACHFILTER	IQUANT	3	Ach Filter
IERANGELOWERLIMIT	IQUANT	2	I/E Range Lower Limit
IERANGEMODE	TOGGLE	F	I/E AutoRange
IERANGE	IQUANT	11	I/E Range
POSFEEDENABLE	TOGGLE	F	Positive Feedback IR Comp
POSFEEDRESISTANCE	QUANT	0	Positive Feedback Resistance (ohm)
ACHSELECT	IQUANT	0	Ach Select
CABLEID	IQUANT	13	Cable ID
DCCALDATE	LABEL	7/31/2020	DC Calibration Date
ACCALDATE	LABEL	7/31/2020	AC Calibration Date
THERMOSELECT	IQUANT	1	Thermo Select
FRAMEWORKVERSION	QUANT	6.33	Framework Version
INSTRUMENTVERSION	LABEL	3.50	Instrument Version
COMPLIANCEVOLTAGE	IQUANT	0	Compliance Voltage
ZCURVE	TABLE
	Pt	Time	Freq	Zreal	Zimag	Zsig	Zmod	Zphz	Idc	Vdc	IERange
	#	s	Hz	ohm	ohm	V	ohm	°	A	V	#
	0	7	300046.9	68.17984	0.8471489	1	68.1851	0.7118755	5.46867E-005	-0.0022478	9
	1	10	238359.4	69.15603	0.3888763	1	69.15712	0.3221807	-2.694504E-006	0.0006295	9
	2	13	189328.1	70.14116	0.27777	1	70.14171	0.2268991	-6.311953E-005	0.0022826	9
	3	16	150421.9	70.9843	0.1139184	1	70.98439	0.0919504	5.55923E-005	-0.0014633	9
	4	18	119484.4	71.79102	-0.0359855	1	71.79102	-0.0287197	1.336132E-005	-0.0009856	9
	5	21	94921.88	72.66845	0.0961247	1	72.66851	0.07579	1.148465E-005	7.122762E-005	9
	6	23	75421.88	73.46988	-0.0854342	1	73.46993	-0.0666262	-8.726051E-006	-5.697389E-006	9
	7	26	59859.37	74.30973	-0.2573803	1	74.31017	-0.1984497	-1.178459E-005	0.0006725	9
	8	28	47578.12	75.15879	-0.4255677	1	75.16	-0.3244194	1.980484E-005	-0.0005744	9
	9	31	37828.12	76.03534	-0.5650213	1	76.03744	-0.4257592	4.471979E-006	-0.0004006	9
	10	33	30046.88	76.94973	-0.6877689	1	76.9528	-0.5120902	-1.620192E-005	0.0003695	9
	11	36	23859.38	77.80361	-0.8508143	1	77.80827	-0.6265278	1.70401E-005	-0.0006249	9
	12	38	18984.38	78.63328	-1.02255	1	78.63992	-0.7450346	9.948176E-006	0.0001048	9
	13	40	15046.87	79.49056	-1.330327	1	79.50169	-0.958793	2.078691E-005	-0.0005882	9
	14	43	11953.13	80.41687	-1.544469	1	80.4317	-1.100275	1.150063E-005	-0.0005608	9
	15	45	9515.62	81.27061	-1.895478	1	81.29271	-1.336069	1.063874E-005	0.0001189	9
	16	47	7546.875	82.19937	-2.350497	1	82.23297	-1.637931	-1.382458E-005	0.0006201	9
	17	50	5928.309	83.15865	-2.908898	1	83.20951	-2.003395	1.134111E-005	-0.0005578	9
	18	52	4733.456	84.1632	-3.563486	1	84.23861	-2.424466	-1.91843E-005	0.0007357	9
	19	54	3796.875	85.14586	-4.338604	1	85.25632	-2.916982	2.136001E-006	0.0003918	9
	20	57	2987.132	86.15864	-5.39907	1	86.32764	-3.585711	-5.787419E-006	0.0006455	9
	21	59	2390.625	87.26437	-6.571366	1	87.51145	-4.30648	4.954049E-006	-0.0004249	9
	22	61	1884.191	88.42805	-8.178409	1	88.80544	-5.284059	-1.679825E-005	0.0003867	9
	23	64	1516.544	89.55216	-10.02106	1	90.11111	-6.384948	-5.532832E-006	0.0006493	9
	24	66	1193.986	90.91191	-12.4801	1	91.76453	-7.816528	-5.809138E-006	0.0006568	9
	25	68	946.5144	92.29569	-15.40253	1	93.57207	-9.474353	-9.151599E-006	3.418472E-005	9
	26	71	751.7689	93.78033	-19.07552	1	95.7007	-11.49747	-5.908E-006	0.0006642	9
	27	73	597.4265	95.3752	-23.49077	1	98.2255	-13.83646	-2.704079E-006	-0.0002141	9
	28	75	477.4305	97.1461	-28.94491	1	101.3665	-16.59155	1.007453E-006	8.139632E-005	9
	29	78	376.6741	99.1826	-36.01034	1	105.5175	-19.9545	1.015438E-006	7.031127E-005	9
	30	80	298.2954	101.474	-44.62743	1	110.8539	-23.73949	6.026257E-007	0.0001137	9
	31	82	237.7717	104.118	-54.96816	1	117.7372	-27.83141	1.003701E-006	7.670459E-005	9
	32	85	189.0121	107.2065	-67.83987	1	126.868	-32.32547	9.978303E-007	8.259303E-005	9
	33	87	150.2404	110.8236	-83.66541	1	138.8588	-37.0507	9.708463E-007	8.499283E-005	9
	34	90	119.1737	115.1301	-103.3288	1	154.699	-41.90782	9.363114E-007	7.725116E-005	9
	35	92	95.0169	120.1601	-126.9162	1	174.7747	-46.56632	9.100717E-007	7.725696E-005	9
	36	95	75.60484	126.2239	-156.1196	1	200.763	-51.0442	9.225814E-007	7.913438E-005	9
	37	97	54.50582	136.462	-209.6507	1	250.1505	-56.93983	9.866963E-007	7.452683E-005	9
	38	100	45.95588	143.5804	-244.7411	1	283.749	-59.60145	1.002886E-006	8.090761E-005	9
	39	102	37.20238	153.3559	-296.0969	1	333.4538	-62.61924	9.703784E-007	7.755424E-005	9
	40	104	30.04808	165.0972	-358.9208	1	395.0712	-65.29841	1.037368E-006	7.554552E-005	9
	41	107	23.91582	179.1635	-439.0597	1	474.2077	-67.8015	4.751247E-008	0.0007007	8
	42	109	18.60119	198.4921	-550.4134	1	585.1102	-70.16949	6.820638E-008	0.0006627	8
	43	111	15.02404	218.5326	-667.3126	1	702.1841	-71.86732	1.020454E-007	0.0006673	8
	44	114	12.01923	243.5432	-816.3121	1	851.8678	-73.38775	1.40376E-007	0.0006489	8
	45	116	9.450605	275.533	-1014.461	1	1051.213	-74.80473	1.107441E-007	0.0006532	8
	46	119	7.512019	313.0257	-1249.42	1	1288.036	-75.93481	1.28315E-007	0.0006606	8
	47	121	5.978954	357.6207	-1536.819	1	1577.88	-76.90029	9.520988E-008	0.0006697	8
	48	124	4.734848	412.4853	-1902.171	1	1946.381	-77.76486	3.431335E-008	0.0006905	8
	49	128	3.75601	479.3435	-2349.735	1	2398.129	-78.46992	1.038365E-007	0.0006736	8
	50	131	3.004808	557.0141	-2882.012	1	2935.347	-79.06116	9.551459E-008	0.0006766	8
	51	135	2.372217	657.5057	-3578.049	1	3637.959	-79.58744	8.883326E-008	0.000679	8
	52	139	1.878005	787.831	-4455.377	1	4524.496	-79.97221	1.31252E-008	0.0006701	7
	53	144	1.512097	919.9597	-5444.203	1	5521.383	-80.40878	1.244881E-009	0.0007044	7
	54	149	1.201923	1110.276	-6750.466	1	6841.163	-80.65996	1.468783E-008	0.000634	7
	55	155	0.956633	1334.759	-8347.537	1	8453.576	-80.91539	-2.68736E-009	-5.869864E-006	7
