EXPLAIN
TAG	EISPOT
TITLE	LABEL	Potentiostatic EIS	Test Identifier
DATE	LABEL	8/3/2020	Date
TIME	LABEL	0:52:41	Time
NOTES	NOTES	1	Notes...
	
PSTAT	PSTAT	REF3000-16137	Potentiostat
VDC	POTEN	0.00000E+000	T	DC Voltage (V)
FREQINIT	QUANT	3.00000E+005	Initial Freq. (Hz)
FREQFINAL	QUANT	1.00000E+000	Final Freq. (Hz)
PTSPERDEC	QUANT	1.00000E+001	Points/decade
VAC	QUANT	5.00000E+001	AC Voltage (mV rms)
AREA	QUANT	1.00000E+000	Sample Area (cm^2)
SPEED	SELECTOR	2	Optimize for:
ZGUESS	QUANT	1.00000E+003	Estimated Z (ohms)
EOC	QUANT	0	Open Circuit (V)
SEQUENCER	TOGGLE	TRUE	Run as Sequence
PSTATMODEL	IQUANT	5	Pstat Model
PSTATSECTION	LABEL	REF3000-16137	Pstat Section
PSTATSERIALNO	LABEL	16137	Pstat Serial Number
CTRLMODE	IQUANT	1	Control Mode
IESTAB	IQUANT	0	I/E Stability
CASPEED	IQUANT	1	Control Amp Speed
CONVENTION	IQUANT	1	Current Convention
ICHRANGE	IQUANT	2	Ich Range
ICHRANGEMODE	TOGGLE	F	Ich Auto Range
ICHOFFSETENABLE	TOGGLE	T	Ich Offset Enable
ICHOFFSET	QUANT	0	Ich Offset (V)
ICHFILTER	IQUANT	3	Ich Filter
VCHRANGE	IQUANT	2	Vch Range
VCHRANGEMODE	TOGGLE	F	Vch Auto Range
VCHOFFSETENABLE	TOGGLE	T	Vch Offset Enable
VCHOFFSET	QUANT	0	Vch Offset (V)
VCHFILTER	IQUANT	3	Vch Filter
ACHRANGE	IQUANT	2	Ach Range
ACHOFFSETENABLE	TOGGLE	F	Ach Offset Enable
ACHOFFSET	QUANT	0	Ach Offset (V)
ACHFILTER	IQUANT	3	Ach Filter
IERANGELOWERLIMIT	IQUANT	2	I/E Range Lower Limit
IERANGEMODE	TOGGLE	F	I/E AutoRange
IERANGE	IQUANT	11	I/E Range
POSFEEDENABLE	TOGGLE	F	Positive Feedback IR Comp
POSFEEDRESISTANCE	QUANT	0	Positive Feedback Resistance (ohm)
ACHSELECT	IQUANT	0	Ach Select
CABLEID	IQUANT	13	Cable ID
DCCALDATE	LABEL	7/31/2020	DC Calibration Date
ACCALDATE	LABEL	7/31/2020	AC Calibration Date
THERMOSELECT	IQUANT	1	Thermo Select
FRAMEWORKVERSION	QUANT	6.33	Framework Version
INSTRUMENTVERSION	LABEL	3.50	Instrument Version
COMPLIANCEVOLTAGE	IQUANT	0	Compliance Voltage
ZCURVE	TABLE
	Pt	Time	Freq	Zreal	Zimag	Zsig	Zmod	Zphz	Idc	Vdc	IERange
	#	s	Hz	ohm	ohm	V	ohm	°	A	V	#
	0	10	300046.9	4.015536	1.255186	1	4.207139	17.35832	-4.39408E-005	4.794452E-005	10
	1	14	238359.4	4.004728	0.971123	1	4.120792	13.63077	2.698323E-005	-0.00033	10
	2	17	189328.1	4.002887	0.755739	1	4.073603	10.69151	-0.0001037	-0.0001213	10
	3	19	150421.9	3.999561	0.5755309	1	4.040758	8.188566	3.217677E-005	0.0002234	10
	4	22	119484.4	4.009784	0.4213739	1	4.031863	5.998991	-9.227727E-005	0.0003444	10
	5	24	94921.88	4.019263	0.3058654	1	4.030885	4.351814	3.518414E-005	0.0004599	10
	6	27	75421.88	4.026398	0.1889073	1	4.030827	2.686187	-5.650367E-006	0.0005242	10
	7	29	59859.37	4.0347	0.0822003	1	4.035538	1.167145	2.880544E-005	0.0005568	10
	8	32	47578.12	4.045988	-0.0168905	1	4.046023	-0.2391866	-2.436835E-005	0.0005782	10
	9	35	37828.12	4.059134	-0.1150377	1	4.060764	-1.623354	-1.998157E-005	0.0006429	10
	10	37	30046.88	4.073854	-0.2178029	1	4.079672	-3.060324	-2.364698E-005	0.0006232	10
	11	40	23859.38	4.09148	-0.3283992	1	4.104639	-4.58896	1.032328E-005	0.0006582	10
	12	42	18984.38	4.110805	-0.450905	1	4.13546	-6.259623	2.286839E-005	0.0006548	10
	13	44	15046.87	4.134298	-0.594957	1	4.176888	-8.189078	-1.782202E-005	0.0006833	10
	14	47	11953.13	4.160242	-0.7644354	1	4.22989	-10.41183	2.343629E-005	0.0006753	10
	15	49	9515.62	4.190785	-0.965609	1	4.300591	-12.9752	2.133102E-005	0.0006701	10
	16	51	7546.875	4.228098	-1.213267	1	4.39873	-16.01102	-8.943897E-006	0.0006577	10
	17	53	5928.309	4.275094	-1.530579	1	4.540826	-19.6985	5.566624E-006	0.0006581	10
	18	56	4733.456	4.329249	-1.894053	1	4.725446	-23.62944	-2.526521E-005	0.000668	10
	19	58	3796.875	4.393717	-2.329849	1	4.973223	-27.93559	1.209502E-005	0.0006493	10
	20	60	2987.132	4.481574	-2.910396	1	5.343679	-33.00025	6.336109E-006	0.000662	10
	21	63	2390.625	4.584765	-3.573984	1	5.813212	-37.93766	6.14685E-007	0.0006668	10
	22	65	1884.191	4.718407	-4.451931	1	6.487145	-43.33554	-6.242554E-006	0.0006777	10
	23	67	1516.544	4.872383	-5.429387	1	7.295091	-48.0949	1.991779E-005	0.0006798	10
	24	70	1193.986	5.082639	-6.751999	1	8.451196	-53.02901	-2.555981E-005	0.0006756	10
	25	72	946.5144	5.341884	-8.328266	1	9.89423	-57.32323	1.877245E-005	0.0006662	10
	26	75	751.7689	5.643603	-10.26361	1	11.7129	-61.19514	-1.939922E-006	0.0006651	10
	27	77	597.4265	6.015361	-12.63628	1	13.995	-64.54373	2.200026E-005	0.000667	10
	28	79	477.4305	6.462636	-15.476	1	16.77117	-67.33503	-1.355123E-006	0.0006753	10
	29	81	376.6741	7.037528	-19.17274	1	20.42353	-69.84388	-1.734455E-006	0.0006771	10
	30	84	298.2954	7.734479	-23.67744	1	24.9087	-71.90984	-1.132132E-006	0.0006809	10
	31	86	237.7717	8.566568	-29.07681	1	30.31249	-73.58405	-8.685601E-007	0.0006759	10
	32	89	189.0121	9.59899	-35.79588	1	37.06057	-74.98878	-9.664603E-007	0.0006805	10
	33	91	150.2404	10.86362	-44.02139	1	45.34204	-76.1375	8.412349E-007	8.013526E-005	9
	34	93	119.1737	12.4673	-54.30637	1	55.71907	-77.07045	5.838984E-007	0.0001228	9
	35	96	95.0169	14.40976	-66.67445	1	68.21381	-77.80473	7.679506E-007	7.837295E-005	9
	36	98	75.60484	16.84681	-81.99693	1	83.70969	-78.38977	7.800106E-007	7.939988E-005	9
	37	101	54.50582	21.32896	-110.1441	1	112.1902	-79.04055	6.972682E-007	8.111828E-005	9
	38	103	45.95588	24.36649	-128.5112	1	130.8008	-79.26382	1.003591E-006	8.247003E-005	9
	39	106	37.20238	28.82771	-155.4937	1	158.1434	-79.49692	8.202067E-007	8.987822E-005	9
	40	108	30.04808	34.24995	-188.4163	1	191.504	-79.69738	7.953403E-007	8.620994E-005	9
	41	110	23.91582	41.47768	-231.5586	1	235.2441	-79.84466	7.81188E-007	7.782162E-005	9
	42	113	18.60119	51.31683	-290.1115	1	294.6151	-79.9689	8.039979E-007	7.939953E-005	9
	43	115	15.02404	61.65056	-351.611	1	356.9749	-80.055	1.035018E-006	8.826683E-005	9
	44	117	12.01923	74.58617	-427.9659	1	434.4167	-80.11375	2.540377E-007	0.000664	8
	45	120	9.450605	92.26958	-531.4006	1	539.3517	-80.14967	3.307438E-007	0.000676	8
	46	122	7.512019	113.5443	-653.4033	1	663.1954	-80.14194	3.773229E-007	0.0006839	8
	47	125	5.978954	139.9859	-802.7211	1	814.8358	-80.10771	3.655278E-007	0.000663	8
	48	128	4.734848	174.1881	-991.86	1	1007.039	-80.03942	3.098641E-007	0.0006585	8
	49	131	3.75601	218.6159	-1222.207	1	1241.605	-79.85876	3.620619E-007	0.0006656	8
	50	135	3.004808	274.3098	-1494.12	1	1519.092	-79.59676	3.174115E-007	0.0006986	8
	51	139	2.372217	351.515	-1847.06	1	1880.211	-79.22486	2.863071E-007	0.0007116	8
	52	143	1.878005	459.1154	-2280.647	1	2326.4	-78.61796	3.101046E-007	0.000641	8
	53	148	1.512097	589.0377	-2769.314	1	2831.266	-77.99205	3.054245E-007	0.0007611	8
	54	153	1.201923	775.4093	-3395.417	1	3482.832	-77.136	3.349017E-007	0.0006397	8
	55	159	0.956633	1023.677	-4144.647	1	4269.193	-76.12631	2.779385E-007	8.271822E-005	8
