EXPLAIN
TAG	EISPOT
TITLE	LABEL	Potentiostatic EIS	Test Identifier
DATE	LABEL	9/15/2020	Date
TIME	LABEL	2:51:07	Time
NOTES	NOTES	1	Notes...
	
PSTAT	PSTAT	REF3000-16137	Potentiostat
VDC	POTEN	0.00000E+000	T	DC Voltage (V)
FREQINIT	QUANT	3.00000E+005	Initial Freq. (Hz)
FREQFINAL	QUANT	1.00000E+000	Final Freq. (Hz)
PTSPERDEC	QUANT	1.00000E+001	Points/decade
VAC	QUANT	5.00000E+001	AC Voltage (mV rms)
AREA	QUANT	1.00000E+000	Sample Area (cm^2)
SPEED	SELECTOR	2	Optimize for:
ZGUESS	QUANT	1.00000E+003	Estimated Z (ohms)
EOC	QUANT	0	Open Circuit (V)
SEQUENCER	TOGGLE	TRUE	Run as Sequence
PSTATMODEL	IQUANT	5	Pstat Model
PSTATSECTION	LABEL	REF3000-16137	Pstat Section
PSTATSERIALNO	LABEL	16137	Pstat Serial Number
CTRLMODE	IQUANT	1	Control Mode
IESTAB	IQUANT	0	I/E Stability
CASPEED	IQUANT	1	Control Amp Speed
CONVENTION	IQUANT	1	Current Convention
ICHRANGE	IQUANT	2	Ich Range
ICHRANGEMODE	TOGGLE	F	Ich Auto Range
ICHOFFSETENABLE	TOGGLE	T	Ich Offset Enable
ICHOFFSET	QUANT	0	Ich Offset (V)
ICHFILTER	IQUANT	3	Ich Filter
VCHRANGE	IQUANT	2	Vch Range
VCHRANGEMODE	TOGGLE	F	Vch Auto Range
VCHOFFSETENABLE	TOGGLE	T	Vch Offset Enable
VCHOFFSET	QUANT	0	Vch Offset (V)
VCHFILTER	IQUANT	3	Vch Filter
ACHRANGE	IQUANT	2	Ach Range
ACHOFFSETENABLE	TOGGLE	F	Ach Offset Enable
ACHOFFSET	QUANT	0	Ach Offset (V)
ACHFILTER	IQUANT	3	Ach Filter
IERANGELOWERLIMIT	IQUANT	2	I/E Range Lower Limit
IERANGEMODE	TOGGLE	F	I/E AutoRange
IERANGE	IQUANT	11	I/E Range
POSFEEDENABLE	TOGGLE	F	Positive Feedback IR Comp
POSFEEDRESISTANCE	QUANT	0	Positive Feedback Resistance (ohm)
ACHSELECT	IQUANT	0	Ach Select
CABLEID	IQUANT	13	Cable ID
DCCALDATE	LABEL	7/31/2020	DC Calibration Date
ACCALDATE	LABEL	7/31/2020	AC Calibration Date
THERMOSELECT	IQUANT	1	Thermo Select
FRAMEWORKVERSION	QUANT	6.33	Framework Version
INSTRUMENTVERSION	LABEL	3.50	Instrument Version
COMPLIANCEVOLTAGE	IQUANT	0	Compliance Voltage
ZCURVE	TABLE
	Pt	Time	Freq	Zreal	Zimag	Zsig	Zmod	Zphz	Idc	Vdc	IERange
	#	s	Hz	ohm	ohm	V	ohm	°	A	V	#
	0	7	300046.9	127.3593	-6.66042	1	127.5334	-2.99363	-8.332247E-005	0.0027894	9
	1	11	238359.4	128.4229	-8.137677	1	128.6805	-3.62577	7.757283E-005	-0.0025511	9
	2	14	189328.1	129.5106	-10.13756	1	129.9067	-4.475752	-8.68089E-005	0.0030377	9
	3	16	150421.9	130.4759	-11.50462	1	130.9821	-5.038984	-9.510109E-006	0.0011399	9
	4	19	119484.4	132.2253	-13.52333	1	132.9151	-5.839617	-1.082014E-005	0.0011216	9
	5	22	94921.88	133.831	-15.3627	1	134.7099	-6.548421	2.475018E-005	-0.0005165	9
	6	25	75421.88	135.6896	-17.71983	1	136.8418	-7.440201	-1.425326E-005	0.000114	9
	7	27	59859.37	137.8069	-20.39473	1	139.3079	-8.418378	-1.497632E-005	0.0009202	9
	8	30	47578.12	140.2132	-23.09951	1	142.1032	-9.355195	5.55197E-006	-0.0005416	9
	9	32	37828.12	142.7042	-26.29708	1	145.1069	-10.44115	-9.511806E-006	-4.848152E-005	9
	10	35	30046.88	145.4864	-29.8764	1	148.5224	-11.60466	-1.752174E-005	0.0008462	9
	11	37	23859.38	148.2383	-34.01772	1	152.0915	-12.92446	-2.094588E-005	0.0004983	9
	12	40	18984.38	151.0807	-38.8655	1	155.9996	-14.42653	-1.807845E-005	0.0009141	9
	13	42	15046.87	153.7229	-45.04016	1	160.1854	-16.33036	1.256069E-006	0.0004944	9
	14	44	11953.13	156.7673	-52.34825	1	165.2765	-18.46537	-1.596589E-006	0.0006279	9
	15	46	9515.62	159.6678	-61.19493	1	170.993	-20.97004	2.453324E-005	-0.0004769	9
	16	49	7546.875	162.7052	-72.39427	1	178.084	-23.98627	1.953536E-005	-0.0006983	9
	17	51	5928.309	166.0729	-87.50817	1	187.7176	-27.78593	6.616493E-006	-0.0005559	9
	18	53	4733.456	168.9445	-105.3271	1	199.088	-31.94115	-2.094018E-005	0.0008202	9
	19	56	3796.875	172.6995	-126.6486	1	214.1611	-36.25434	1.921867E-005	-0.000742	9
	20	58	2987.132	176.6084	-156.3282	1	235.8581	-41.51424	-6.965683E-006	0.0007977	9
	21	60	2390.625	181.3489	-189.5091	1	262.2997	-46.2605	-1.266922E-005	9.414493E-005	9
	22	63	1884.191	187.6917	-235.0307	1	300.7784	-51.38971	-2.090758E-005	0.0008015	9
	23	65	1516.544	194.2118	-286.5374	1	346.153	-55.87103	-6.7266E-006	0.0008025	9
	24	67	1193.986	204.0559	-356.4519	1	410.7271	-60.21041	5.644157E-006	-0.0005291	9
	25	70	946.5144	213.4403	-437.9901	1	487.229	-64.01921	-6.329747E-006	0.0031666	8
	26	72	751.7689	227.3041	-539.6357	1	585.5543	-67.15831	-1.276121E-006	-0.0004503	8
	27	74	597.4265	242.8643	-668.5709	1	711.3158	-70.036	-7.191632E-006	0.002618	8
	28	77	477.4305	261.8497	-819.9255	1	860.7224	-72.2887	1.876033E-007	0.0006492	8
	29	79	376.6741	286.8317	-1019.548	1	1059.127	-74.287	1.887844E-007	0.0006502	8
	30	81	298.2954	317.1906	-1263.707	1	1302.906	-75.90984	1.816153E-007	0.0006593	8
	31	84	237.7717	353.4234	-1557.076	1	1596.682	-77.21174	1.867425E-007	0.0006499	8
	32	86	189.0121	398.4974	-1923.769	1	1964.608	-78.29703	1.895754E-007	0.0006587	8
	33	89	150.2404	453.8116	-2377.239	1	2420.168	-79.19235	2.063086E-007	0.0006374	8
	34	91	119.1737	522.97	-2944.9	1	2990.976	-79.93011	2.059444E-007	0.0006523	8
	35	93	95.0169	605.9289	-3629.256	1	3679.491	-80.52151	2.141984E-007	0.0006406	8
	36	96	75.60484	712.1967	-4491.962	1	4548.071	-80.9908	1.499084E-008	0.0006137	7
	37	98	54.50582	906.4798	-6077.562	1	6144.792	-81.51676	1.308034E-008	0.0006105	7
	38	101	45.95588	1032.116	-7118.691	1	7193.124	-81.75036	1.934778E-008	0.0006175	7
	39	103	37.20238	1223.591	-8656.313	1	8742.364	-81.95441	1.646725E-008	0.0006308	7
	40	106	30.04808	1457.393	-10546.04	1	10646.26	-82.13194	1.265733E-008	0.0006227	7
	41	108	23.91582	1764.833	-13009.49	1	13128.65	-82.27457	1.187504E-008	0.0006219	7
	42	111	18.60119	2194.067	-16416.71	1	16562.67	-82.38762	1.431107E-008	0.0006246	7
	43	113	15.02404	2655.011	-19992.45	1	20167.97	-82.43534	1.964849E-008	0.00062	7
	44	115	12.01923	3261.167	-24561.51	1	24777.06	-82.43676	1.488008E-008	0.0006265	7
	45	118	9.450605	4067.598	-30676.84	1	30945.34	-82.44692	1.556917E-008	0.0006192	7
	46	120	7.512019	5020.148	-37866.96	1	38198.28	-82.44814	1.956092E-008	0.0006393	7
	47	123	5.978954	6226.473	-46742.97	1	47155.85	-82.41249	2.928218E-009	0.0006581	6
	48	126	4.734848	7728.374	-57973.88	1	58486.74	-82.40679	1.892561E-009	0.0006441	6
	49	129	3.75601	9683.56	-71731.98	1	72382.65	-82.31176	2.417437E-009	0.0006873	6
	50	135	3.004808	12051.33	-88036.2	1	88857.23	-82.20519	1.973949E-009	0.0006589	6
	51	141	2.372217	15432.23	-109362.4	1	110445.8	-81.96796	1.630669E-009	0.0006197	6
	52	145	1.878005	19495.47	-135717	1	137110.1	-81.82549	2.375854E-009	0.0006625	6
	53	150	1.512097	24263.3	-164975.7	1	166750.4	-81.63338	1.565049E-009	0.0006872	6
	54	155	1.201923	31141.6	-203804.5	1	206170	-81.31232	2.121897E-009	0.0006886	6
	55	162	0.956633	39765.29	-250453.5	1	253590.7	-80.97828	1.472997E-009	2.934606E-005	6
