EXPLAIN
TAG	EISPOT
TITLE	LABEL	Potentiostatic EIS	Test Identifier
DATE	LABEL	9/15/2020	Date
TIME	LABEL	9:54:05	Time
NOTES	NOTES	1	Notes...
	
PSTAT	PSTAT	REF3000-16137	Potentiostat
VDC	POTEN	0.00000E+000	T	DC Voltage (V)
FREQINIT	QUANT	3.00000E+005	Initial Freq. (Hz)
FREQFINAL	QUANT	1.00000E+000	Final Freq. (Hz)
PTSPERDEC	QUANT	1.00000E+001	Points/decade
VAC	QUANT	5.00000E+001	AC Voltage (mV rms)
AREA	QUANT	1.00000E+000	Sample Area (cm^2)
SPEED	SELECTOR	2	Optimize for:
ZGUESS	QUANT	1.00000E+003	Estimated Z (ohms)
EOC	QUANT	0	Open Circuit (V)
SEQUENCER	TOGGLE	TRUE	Run as Sequence
PSTATMODEL	IQUANT	5	Pstat Model
PSTATSECTION	LABEL	REF3000-16137	Pstat Section
PSTATSERIALNO	LABEL	16137	Pstat Serial Number
CTRLMODE	IQUANT	1	Control Mode
IESTAB	IQUANT	0	I/E Stability
CASPEED	IQUANT	1	Control Amp Speed
CONVENTION	IQUANT	1	Current Convention
ICHRANGE	IQUANT	2	Ich Range
ICHRANGEMODE	TOGGLE	F	Ich Auto Range
ICHOFFSETENABLE	TOGGLE	T	Ich Offset Enable
ICHOFFSET	QUANT	0	Ich Offset (V)
ICHFILTER	IQUANT	3	Ich Filter
VCHRANGE	IQUANT	2	Vch Range
VCHRANGEMODE	TOGGLE	F	Vch Auto Range
VCHOFFSETENABLE	TOGGLE	T	Vch Offset Enable
VCHOFFSET	QUANT	0	Vch Offset (V)
VCHFILTER	IQUANT	3	Vch Filter
ACHRANGE	IQUANT	2	Ach Range
ACHOFFSETENABLE	TOGGLE	F	Ach Offset Enable
ACHOFFSET	QUANT	0	Ach Offset (V)
ACHFILTER	IQUANT	3	Ach Filter
IERANGELOWERLIMIT	IQUANT	2	I/E Range Lower Limit
IERANGEMODE	TOGGLE	F	I/E AutoRange
IERANGE	IQUANT	11	I/E Range
POSFEEDENABLE	TOGGLE	F	Positive Feedback IR Comp
POSFEEDRESISTANCE	QUANT	0	Positive Feedback Resistance (ohm)
ACHSELECT	IQUANT	0	Ach Select
CABLEID	IQUANT	13	Cable ID
DCCALDATE	LABEL	7/31/2020	DC Calibration Date
ACCALDATE	LABEL	7/31/2020	AC Calibration Date
THERMOSELECT	IQUANT	1	Thermo Select
FRAMEWORKVERSION	QUANT	6.33	Framework Version
INSTRUMENTVERSION	LABEL	3.50	Instrument Version
COMPLIANCEVOLTAGE	IQUANT	0	Compliance Voltage
ZCURVE	TABLE
	Pt	Time	Freq	Zreal	Zimag	Zsig	Zmod	Zphz	Idc	Vdc	IERange
	#	s	Hz	ohm	ohm	V	ohm	°	A	V	#
	0	7	300046.9	46.51426	-1.517686	1	46.53901	-1.868807	5.738516E-005	-0.0023657	9
	1	10	238359.4	46.95908	-2.722531	1	47.03793	-3.318104	-5.9521E-005	0.0017214	9
	2	13	189328.1	47.55563	-3.880657	1	47.7137	-4.665141	4.140008E-005	-0.0008199	9
	3	16	150421.9	48.17182	-5.037668	1	48.43452	-5.970124	3.973415E-005	-0.0006632	9
	4	18	119484.4	48.84732	-6.090892	1	49.2256	-7.107666	5.694479E-005	-0.0019654	9
	5	21	94921.88	49.70707	-7.19498	1	50.2251	-8.236224	-1.236539E-005	0.0005565	9
	6	23	75421.88	50.50002	-8.491555	1	51.20897	-9.54497	9.551691E-006	-0.000509	9
	7	26	59859.37	51.33256	-9.97325	1	52.29242	-10.99485	-1.490514E-005	0.0003777	9
	8	28	47578.12	52.24162	-11.63291	1	53.52113	-12.55353	1.114748E-005	7.366511E-005	9
	9	31	37828.12	53.16038	-13.54988	1	54.86005	-14.29946	-8.744999E-006	8.496941E-005	9
	10	33	30046.88	54.11615	-15.83723	1	56.38595	-16.31225	3.290871E-006	-0.0002861	9
	11	36	23859.38	55.05215	-18.5677	1	58.09904	-18.63795	-1.638187E-005	0.0005616	9
	12	38	18984.38	56.02453	-22.06408	1	60.21272	-21.49595	3.127401E-006	-0.0002964	9
	13	40	15046.87	57.03424	-26.33156	1	62.81923	-24.78182	-1.580559E-005	0.0005761	9
	14	43	11953.13	58.16153	-31.74229	1	66.25962	-28.62399	3.324258E-006	0.0003066	9
	15	45	9515.62	59.28101	-38.31127	1	70.58322	-32.87319	-1.194302E-005	0.0002342	9
	16	47	7546.875	60.6598	-46.7404	1	76.57856	-37.61545	1.450742E-005	-0.0005765	9
	17	50	5928.309	62.28637	-57.68336	1	84.89383	-42.80275	-1.453452E-005	0.0006223	9
	18	52	4733.456	64.13906	-70.4519	1	95.2748	-47.68542	1.145329E-005	5.292706E-005	9
	19	54	3796.875	66.2772	-85.74101	1	108.3706	-52.29623	3.170289E-006	-0.0002957	9
	20	57	2987.132	69.2501	-106.2648	1	126.8376	-56.90873	-1.219823E-005	0.0002217	9
	21	59	2390.625	72.56794	-129.8831	1	148.7808	-60.80716	-7.011929E-006	0.0006206	9
	22	61	1884.191	76.76553	-161.2458	1	178.5865	-64.54192	-1.600776E-005	0.0005596	9
	23	64	1516.544	81.47972	-196.5277	1	212.7489	-67.48127	-8.133869E-006	0.0006139	9
	24	66	1193.986	87.73276	-244.136	1	259.4214	-70.23359	2.055113E-005	-0.0004001	9
	25	68	946.5144	95.7653	-301.5445	1	316.386	-72.38106	2.02193E-005	-0.0004201	9
	26	71	751.7689	104.0007	-373.6985	1	387.9004	-74.44805	1.728775E-005	-0.0001603	9
	27	73	597.4265	115.7597	-457.9981	1	472.4008	-75.81548	-2.09717E-008	0.0002508	8
	28	75	477.4305	128.8311	-562.3892	1	576.9567	-77.09741	4.470785E-007	0.0006497	8
	29	78	376.6741	146.2684	-699.0657	1	714.2039	-78.18226	4.426692E-007	0.0006471	8
	30	80	298.2954	167.44	-866.2543	1	882.2883	-79.0601	4.428517E-007	0.000652	8
	31	82	237.7717	192.8939	-1067.139	1	1084.433	-79.75397	4.526256E-007	0.0006472	8
	32	85	189.0121	224.8678	-1318.22	1	1337.262	-80.31941	4.389405E-007	0.0006512	8
	33	87	150.2404	264.5756	-1628.55	1	1649.902	-80.7723	4.444412E-007	0.0006507	8
	34	90	119.1737	315.6284	-2016.139	1	2040.695	-81.10251	4.512731E-007	0.0006458	8
	35	92	95.0169	376.567	-2484.089	1	2512.469	-81.38007	4.469553E-007	0.0006436	8
	36	95	75.60484	455.0066	-3066.552	1	3100.125	-81.56019	4.532521E-007	0.0006444	8
	37	97	54.50582	600.917	-4144.703	1	4188.038	-81.75049	4.523182E-007	0.0006451	8
	38	100	45.95588	711.0345	-4859.629	1	4911.371	-81.67586	5.778764E-008	0.0006234	7
	39	102	37.20238	864.1786	-5900.033	1	5962.985	-81.66713	5.51864E-008	0.0006313	7
	40	104	30.04808	1056.135	-7176.285	1	7253.584	-81.62787	4.773009E-008	0.0006242	7
	41	107	23.91582	1309.456	-8824.734	1	8921.357	-81.55977	4.302293E-008	0.0006112	7
	42	109	18.60119	1683.171	-11091.37	1	11218.36	-81.37092	5.700017E-008	0.0006255	7
	43	112	15.02404	2072.759	-13492.61	1	13650.9	-81.2664	5.828862E-008	0.0006181	7
	44	114	12.01923	2596.136	-16526.28	1	16728.95	-81.07229	5.200844E-008	0.0006146	7
	45	117	9.450605	3338.323	-20566.45	1	20835.62	-80.78022	5.382327E-008	0.0006188	7
	46	119	7.512019	4227.294	-25333.55	1	25683.83	-80.5266	5.872179E-008	0.0006118	7
	47	122	5.978954	5447.573	-31131.74	1	31604.77	-80.07462	5.793961E-008	0.0006201	7
	48	126	4.734848	7092.39	-38422.79	1	39071.89	-79.5416	6.012083E-008	0.0005952	7
	49	130	3.75601	9329.026	-47269.8	1	48181.58	-78.83575	1.133414E-008	0.0006785	6
	50	135	3.004808	12185.28	-57628.23	1	58902.41	-78.06087	1.150356E-008	0.0006299	6
	51	142	2.372217	16270.44	-70926.52	1	72768.8	-77.07997	1.058698E-008	0.0006132	6
	52	146	1.878005	22052.2	-86786.57	1	89544.45	-75.74304	1.029648E-008	0.0006712	6
	53	151	1.512097	29266.6	-104163.7	1	108197.1	-74.30637	1.047218E-008	0.0005568	6
	54	156	1.201923	39509.82	-125860.7	1	131916.4	-72.57204	9.992839E-009	0.0006861	6
	55	162	0.956633	53316.59	-150624.9	1	159782.7	-70.50761	8.86295E-009	2.260299E-005	6
