EXPLAIN
TAG	EISPOT
TITLE	LABEL	Potentiostatic EIS	Test Identifier
DATE	LABEL	9/15/2020	Date
TIME	LABEL	4:23:31	Time
NOTES	NOTES	1	Notes...
	
PSTAT	PSTAT	REF3000-16137	Potentiostat
VDC	POTEN	0.00000E+000	T	DC Voltage (V)
FREQINIT	QUANT	3.00000E+005	Initial Freq. (Hz)
FREQFINAL	QUANT	1.00000E+000	Final Freq. (Hz)
PTSPERDEC	QUANT	1.00000E+001	Points/decade
VAC	QUANT	5.00000E+001	AC Voltage (mV rms)
AREA	QUANT	1.00000E+000	Sample Area (cm^2)
SPEED	SELECTOR	2	Optimize for:
ZGUESS	QUANT	1.00000E+003	Estimated Z (ohms)
EOC	QUANT	0	Open Circuit (V)
SEQUENCER	TOGGLE	TRUE	Run as Sequence
PSTATMODEL	IQUANT	5	Pstat Model
PSTATSECTION	LABEL	REF3000-16137	Pstat Section
PSTATSERIALNO	LABEL	16137	Pstat Serial Number
CTRLMODE	IQUANT	1	Control Mode
IESTAB	IQUANT	0	I/E Stability
CASPEED	IQUANT	1	Control Amp Speed
CONVENTION	IQUANT	1	Current Convention
ICHRANGE	IQUANT	2	Ich Range
ICHRANGEMODE	TOGGLE	F	Ich Auto Range
ICHOFFSETENABLE	TOGGLE	T	Ich Offset Enable
ICHOFFSET	QUANT	0	Ich Offset (V)
ICHFILTER	IQUANT	3	Ich Filter
VCHRANGE	IQUANT	2	Vch Range
VCHRANGEMODE	TOGGLE	F	Vch Auto Range
VCHOFFSETENABLE	TOGGLE	T	Vch Offset Enable
VCHOFFSET	QUANT	0	Vch Offset (V)
VCHFILTER	IQUANT	3	Vch Filter
ACHRANGE	IQUANT	2	Ach Range
ACHOFFSETENABLE	TOGGLE	F	Ach Offset Enable
ACHOFFSET	QUANT	0	Ach Offset (V)
ACHFILTER	IQUANT	3	Ach Filter
IERANGELOWERLIMIT	IQUANT	2	I/E Range Lower Limit
IERANGEMODE	TOGGLE	F	I/E AutoRange
IERANGE	IQUANT	11	I/E Range
POSFEEDENABLE	TOGGLE	F	Positive Feedback IR Comp
POSFEEDRESISTANCE	QUANT	0	Positive Feedback Resistance (ohm)
ACHSELECT	IQUANT	0	Ach Select
CABLEID	IQUANT	13	Cable ID
DCCALDATE	LABEL	7/31/2020	DC Calibration Date
ACCALDATE	LABEL	7/31/2020	AC Calibration Date
THERMOSELECT	IQUANT	1	Thermo Select
FRAMEWORKVERSION	QUANT	6.33	Framework Version
INSTRUMENTVERSION	LABEL	3.50	Instrument Version
COMPLIANCEVOLTAGE	IQUANT	0	Compliance Voltage
ZCURVE	TABLE
	Pt	Time	Freq	Zreal	Zimag	Zsig	Zmod	Zphz	Idc	Vdc	IERange
	#	s	Hz	ohm	ohm	V	ohm	°	A	V	#
	0	31	300046.9	521.9784	-61.51286	1	525.5904	-6.721057	-1.154146E-005	0.0015005	9
	1	38	238359.4	527.047	-56.03016	1	530.0169	-6.068299	-5.761592E-005	0.0006095	9
	2	46	189328.1	533.3198	-55.25412	1	536.1744	-5.914974	-1.835799E-005	0.0014518	9
	3	56	150421.9	534.0389	-50.66433	1	536.4368	-5.419437	-2.327229E-006	-0.0016226	9
	4	65	119484.4	544.8701	-33.52794	1	545.9007	-3.521188	-2.072455E-005	-0.0018574	8
	5	72	94921.88	548.9131	-35.20024	1	550.0406	-3.669192	-1.528733E-005	0.0040464	8
	6	74	75421.88	551.7974	-38.11568	1	553.1122	-3.951458	-9.902741E-006	0.0005638	8
	7	77	59859.37	555.9236	-46.2283	1	557.8423	-4.753543	-1.070106E-005	0.0070037	8
	8	79	47578.12	560.4933	-51.02921	1	562.8114	-5.202061	1.701095E-005	-0.0047276	8
	9	82	37828.12	567.4352	-60.25819	1	570.6257	-6.061748	8.731477E-006	-0.0052116	8
	10	84	30046.88	574.5539	-67.84798	1	578.546	-6.73476	-7.501329E-006	0.0057461	8
	11	87	23859.38	582.72	-77.32316	1	587.8278	-7.558621	-5.511635E-006	0.0060094	8
	12	89	18984.38	591.8562	-88.5046	1	598.437	-8.504839	1.60693E-005	-0.0025351	8
	13	91	15046.87	602.2754	-102.2518	1	610.8937	-9.63556	-1.097192E-005	0.0069113	8
	14	94	11953.13	612.8274	-114.6927	1	623.4676	-10.60047	1.615345E-005	-0.0023691	8
	15	96	9515.62	626.4662	-127.5232	1	639.3137	-11.5059	3.474886E-006	-0.0039934	8
	16	99	7546.875	637.8705	-145.3275	1	654.2162	-12.83475	1.254489E-005	-0.0051923	8
	17	102	5928.309	653.5474	-165.213	1	674.1064	-14.18683	-7.478941E-006	-0.0002757	8
	18	104	4733.456	664.164	-188.8022	1	690.4781	-15.86889	6.424075E-006	0.0022319	8
	19	107	3796.875	675.624	-220.5892	1	710.7231	-18.08171	-1.525207E-005	0.0042144	8
	20	109	2987.132	692.2721	-256.6899	1	738.3295	-20.34445	1.579E-005	-0.0055581	8
	21	111	2390.625	702.8574	-302.2209	1	765.0791	-23.26717	-1.07312E-005	0.0070485	8
	22	114	1884.191	716.2703	-362.3758	1	802.7199	-26.83578	8.157819E-006	-0.0049807	8
	23	116	1516.544	730.859	-430.2719	1	848.1089	-30.48621	1.639907E-005	-0.0045239	8
	24	119	1193.986	744.8342	-523.8931	1	910.6272	-35.12136	-5.562657E-006	0.0059756	8
	25	122	946.5144	763.1259	-642.2169	1	997.398	-40.08265	8.76301E-006	-0.0051321	8
	26	124	751.7689	784.8293	-783.0485	1	1108.658	-44.93492	-1.357582E-005	0.0026805	8
	27	127	597.4265	806.7234	-962.839	1	1256.129	-50.04172	-7.281322E-006	-0.0004507	8
	28	129	477.4305	835.3372	-1179.523	1	1445.359	-54.69391	-9.219944E-008	0.0006331	8
	29	132	376.6741	871.3737	-1463.382	1	1703.167	-59.22823	-1.065126E-007	0.0006221	8
	30	134	298.2954	914.6386	-1811.44	1	2029.256	-63.20972	-1.02095E-007	0.0006259	8
	31	136	237.7717	966.033	-2230.505	1	2430.715	-66.58253	-9.132191E-008	0.0006305	8
	32	139	189.0121	1030.214	-2755.419	1	2941.713	-69.49992	-1.280893E-007	0.0006631	8
	33	141	150.2404	1109.406	-3405.021	1	3581.194	-71.95363	-1.05638E-007	0.0006354	8
	34	144	119.1737	1210.439	-4226.06	1	4395.992	-74.01709	-2.537006E-008	0.0005923	7
	35	146	95.0169	1330.01	-5209.676	1	5376.77	-75.67852	-2.81059E-008	0.0006021	7
	36	149	75.60484	1478.812	-6435.476	1	6603.198	-77.05863	-3.132991E-008	0.0006308	7
	37	151	54.50582	1754.098	-8711.429	1	8886.273	-78.61539	-2.576966E-008	0.0005944	7
	38	154	45.95588	1939.074	-10200.58	1	10383.25	-79.23681	-2.729054E-008	0.0006199	7
	39	156	37.20238	2210.108	-12400.14	1	12595.55	-79.89415	-3.13713E-008	0.0006338	7
	40	158	30.04808	2544.054	-15105.04	1	15317.79	-80.43973	-3.469206E-008	0.000668	7
	41	161	23.91582	2985.7	-18658.71	1	18896.08	-80.90881	-2.713424E-008	0.0005949	7
	42	163	18.60119	3593.704	-23527.85	1	23800.72	-81.31562	-2.754208E-008	0.0006062	7
	43	165	15.02404	4229.24	-28644.37	1	28954.9	-81.60116	-3.09612E-008	0.0006436	7
	44	168	12.01923	5077.561	-35207.7	1	35571.95	-81.79353	-3.267963E-008	0.0006267	7
	45	170	9.450605	6175.34	-43950.31	1	44382.03	-82.00188	-3.576048E-009	0.0007192	6
	46	173	7.512019	7494.427	-54336.23	1	54850.63	-82.14692	-2.804036E-009	0.0006562	6
	47	175	5.978954	9128.769	-67022.81	1	67641.64	-82.24382	-3.381754E-009	0.000677	6
	48	178	4.734848	11178.43	-83143.3	1	83891.4	-82.34264	-2.19193E-009	0.0006658	6
	49	182	3.75601	13752.48	-102877.3	1	103792.4	-82.38593	-3.497666E-009	0.0006685	6
	50	187	3.004808	16791.99	-126230.4	1	127342.4	-82.42263	-3.013116E-009	0.000652	6
	51	194	2.372217	20847.01	-156667.8	1	158048.7	-82.42046	-2.905323E-009	0.0006533	6
	52	198	1.878005	25916.7	-194580.4	1	196298.8	-82.41327	-3.429471E-009	0.0006626	6
	53	203	1.512097	31245.19	-237455.6	1	239502.5	-82.5039	-3.194719E-009	0.0005619	6
	54	208	1.201923	38748.2	-293693.7	1	296238.8	-82.48415	-3.432117E-009	0.0006633	6
	55	214	0.956633	47610.04	-362327.3	1	365441.8	-82.51418	-3.443681E-009	1.612158E-005	6
