EXPLAIN
TAG	EISPOT
TITLE	LABEL	Potentiostatic EIS	Test Identifier
DATE	LABEL	9/15/2020	Date
TIME	LABEL	2:05:41	Time
NOTES	NOTES	1	Notes...
	
PSTAT	PSTAT	REF3000-16137	Potentiostat
VDC	POTEN	0.00000E+000	T	DC Voltage (V)
FREQINIT	QUANT	3.00000E+005	Initial Freq. (Hz)
FREQFINAL	QUANT	1.00000E+000	Final Freq. (Hz)
PTSPERDEC	QUANT	1.00000E+001	Points/decade
VAC	QUANT	5.00000E+001	AC Voltage (mV rms)
AREA	QUANT	1.00000E+000	Sample Area (cm^2)
SPEED	SELECTOR	2	Optimize for:
ZGUESS	QUANT	1.00000E+003	Estimated Z (ohms)
EOC	QUANT	0	Open Circuit (V)
SEQUENCER	TOGGLE	TRUE	Run as Sequence
PSTATMODEL	IQUANT	5	Pstat Model
PSTATSECTION	LABEL	REF3000-16137	Pstat Section
PSTATSERIALNO	LABEL	16137	Pstat Serial Number
CTRLMODE	IQUANT	1	Control Mode
IESTAB	IQUANT	0	I/E Stability
CASPEED	IQUANT	1	Control Amp Speed
CONVENTION	IQUANT	1	Current Convention
ICHRANGE	IQUANT	2	Ich Range
ICHRANGEMODE	TOGGLE	F	Ich Auto Range
ICHOFFSETENABLE	TOGGLE	T	Ich Offset Enable
ICHOFFSET	QUANT	0	Ich Offset (V)
ICHFILTER	IQUANT	3	Ich Filter
VCHRANGE	IQUANT	2	Vch Range
VCHRANGEMODE	TOGGLE	F	Vch Auto Range
VCHOFFSETENABLE	TOGGLE	T	Vch Offset Enable
VCHOFFSET	QUANT	0	Vch Offset (V)
VCHFILTER	IQUANT	3	Vch Filter
ACHRANGE	IQUANT	2	Ach Range
ACHOFFSETENABLE	TOGGLE	F	Ach Offset Enable
ACHOFFSET	QUANT	0	Ach Offset (V)
ACHFILTER	IQUANT	3	Ach Filter
IERANGELOWERLIMIT	IQUANT	2	I/E Range Lower Limit
IERANGEMODE	TOGGLE	F	I/E AutoRange
IERANGE	IQUANT	11	I/E Range
POSFEEDENABLE	TOGGLE	F	Positive Feedback IR Comp
POSFEEDRESISTANCE	QUANT	0	Positive Feedback Resistance (ohm)
ACHSELECT	IQUANT	0	Ach Select
CABLEID	IQUANT	13	Cable ID
DCCALDATE	LABEL	7/31/2020	DC Calibration Date
ACCALDATE	LABEL	7/31/2020	AC Calibration Date
THERMOSELECT	IQUANT	1	Thermo Select
FRAMEWORKVERSION	QUANT	6.33	Framework Version
INSTRUMENTVERSION	LABEL	3.50	Instrument Version
COMPLIANCEVOLTAGE	IQUANT	0	Compliance Voltage
ZCURVE	TABLE
	Pt	Time	Freq	Zreal	Zimag	Zsig	Zmod	Zphz	Idc	Vdc	IERange
	#	s	Hz	ohm	ohm	V	ohm	°	A	V	#
	0	7	300046.9	82.69164	-3.780203	1	82.778	-2.617423	7.005209E-007	-0.0015794	9
	1	10	238359.4	83.29381	-5.212022	1	83.45672	-3.580555	4.861968E-006	-0.0015529	9
	2	13	189328.1	84.06893	-6.624935	1	84.32956	-4.505802	5.385249E-006	-0.0013608	9
	3	16	150421.9	85.27637	-8.20236	1	85.66994	-5.494128	-5.059906E-005	0.0009191	9
	4	19	119484.4	86.18097	-9.77895	1	86.734	-6.47366	-7.861631E-005	0.0027591	9
	5	21	94921.88	87.52859	-11.16434	1	88.23773	-7.268874	-1.983257E-005	0.0005742	9
	6	24	75421.88	88.84975	-12.97388	1	89.79198	-8.307643	-1.995972E-006	0.0005294	9
	7	26	59859.37	90.35367	-15.13801	1	91.61301	-9.5111	2.193513E-005	-0.0006736	9
	8	29	47578.12	92.01029	-17.36139	1	93.63393	-10.68549	-9.366858E-006	-1.738036E-005	9
	9	31	37828.12	93.70898	-19.87574	1	95.7936	-11.97501	-1.110566E-005	0.000797	9
	10	34	30046.88	95.4817	-22.77008	1	98.1592	-13.41314	1.163449E-005	-0.0006079	9
	11	36	23859.38	97.3299	-26.27497	1	100.8141	-15.10732	1.113269E-005	0.0001124	9
	12	39	18984.38	99.1171	-30.42071	1	103.6804	-17.06214	2.658682E-005	-0.0006993	9
	13	41	15046.87	100.9907	-35.84462	1	107.1633	-19.54129	-1.430009E-005	0.0001894	9
	14	43	11953.13	102.6305	-42.07385	1	110.9199	-22.29141	-1.678848E-005	0.0003915	9
	15	45	9515.62	104.6289	-50.18962	1	116.044	-25.62665	2.277424E-005	-0.0002837	9
	16	48	7546.875	106.6591	-60.35118	1	122.5497	-29.50259	1.817227E-005	-0.0006661	9
	17	50	5928.309	108.9402	-73.80293	1	131.5859	-34.11618	1.890581E-005	-0.0001205	9
	18	52	4733.456	111.5427	-89.58982	1	143.0668	-38.77102	-1.068796E-005	0.000759	9
	19	55	3796.875	114.3206	-108.3719	1	157.5235	-43.46984	-3.661968E-006	-0.0001999	9
	20	57	2987.132	118.0552	-134.3252	1	178.8303	-48.68853	2.391188E-005	-0.0004674	9
	21	59	2390.625	122.257	-163.7647	1	204.3665	-53.25718	-1.371662E-005	0.0001915	9
	22	62	1884.191	127.2704	-203.0194	1	239.6135	-57.9169	2.337458E-005	-0.000435	9
	23	64	1516.544	133.1313	-247.5409	1	281.0702	-61.72795	1.246547E-005	0.0001332	9
	24	66	1193.986	141.2752	-308.0027	1	338.8574	-65.35994	-1.809167E-005	0.0004813	9
	25	69	946.5144	151.6561	-380.0116	1	409.1557	-68.2439	-1.339816E-005	0.0001887	9
	26	71	751.7689	161.0921	-468.5955	1	495.5122	-71.02823	1.112439E-006	-0.000666	8
	27	74	597.4265	174.3647	-577.7048	1	603.4451	-73.20496	4.767149E-006	3.719057E-005	8
	28	76	477.4305	191.4862	-710.1969	1	735.5587	-74.91051	3.025851E-007	0.0006381	8
	29	78	376.6741	213.0429	-883.1823	1	908.5143	-76.43809	2.944525E-007	0.0006403	8
	30	81	298.2954	239.1722	-1094.824	1	1120.644	-77.67693	3.052601E-007	0.000638	8
	31	83	237.7717	270.446	-1349.117	1	1375.957	-78.66465	3.008127E-007	0.0006342	8
	32	85	189.0121	309.3599	-1667.076	1	1695.537	-79.48719	3.142142E-007	0.0006307	8
	33	88	150.2404	357.3426	-2060.179	1	2090.94	-80.15983	3.144055E-007	0.0006336	8
	34	90	119.1737	417.3263	-2551.191	1	2585.099	-80.70978	3.066066E-007	0.0006446	8
	35	93	95.0169	490.0129	-3145.846	1	3183.781	-81.14646	3.175261E-007	0.0006337	8
	36	95	75.60484	580.9734	-3885.938	1	3929.128	-81.49689	3.240446E-007	0.000637	8
	37	98	54.50582	754.6473	-5268.559	1	5322.331	-81.84863	1.953963E-008	0.0006632	7
	38	100	45.95588	865.3409	-6169.208	1	6229.603	-82.01534	3.22248E-008	0.0006155	7
	39	103	37.20238	1033.778	-7502.846	1	7573.73	-82.15491	3.001363E-008	0.0006238	7
	40	105	30.04808	1244.796	-9142.949	1	9227.299	-82.24696	2.808226E-008	0.0006062	7
	41	107	23.91582	1514.437	-11260.64	1	11362.03	-82.34029	2.680372E-008	0.0006078	7
	42	110	18.60119	1900.939	-14229.01	1	14355.43	-82.39057	3.367898E-008	0.0006098	7
	43	112	15.02404	2315.816	-17309.31	1	17463.54	-82.37964	3.341334E-008	0.0006123	7
	44	114	12.01923	2848.38	-21259.02	1	21448.99	-82.3687	3.233256E-008	0.0006121	7
	45	117	9.450605	3567.295	-26547.73	1	26786.34	-82.34685	2.963585E-008	0.0006177	7
	46	119	7.512019	4436.783	-32789.69	1	33088.5	-82.29409	3.192256E-008	0.0006011	7
	47	122	5.978954	5558.19	-40455.71	1	40835.75	-82.17714	3.176034E-008	0.000618	7
	48	126	4.734848	7074.692	-50213.05	1	50709	-81.98019	3.466152E-009	0.0006624	6
	49	130	3.75601	8975.053	-62078.32	1	62723.76	-81.77339	4.499075E-009	0.0006714	6
	50	135	3.004808	11341.16	-76118.53	1	76958.77	-81.52565	3.363771E-009	0.0007431	6
	51	142	2.372217	14630.93	-94313.18	1	95441.3	-81.18192	3.431837E-009	0.0006852	6
	52	146	1.878005	19076.8	-116786	1	118333.8	-80.72276	4.089168E-009	0.0006408	6
	53	151	1.512097	24218.95	-142027.3	1	144077.4	-80.32282	3.664454E-009	0.0007609	6
	54	156	1.201923	31563.43	-174613.5	1	177443.3	-79.75376	4.059594E-009	0.0006442	6
	55	162	0.956633	40930.3	-213873	1	217754.3	-79.16592	2.955434E-009	2.274108E-005	6
