EXPLAIN
TAG	EISPOT
TITLE	LABEL	Potentiostatic EIS	Test Identifier
DATE	LABEL	9/15/2020	Date
TIME	LABEL	1:08:34	Time
NOTES	NOTES	1	Notes...
	
PSTAT	PSTAT	REF3000-16137	Potentiostat
VDC	POTEN	0.00000E+000	T	DC Voltage (V)
FREQINIT	QUANT	3.00000E+005	Initial Freq. (Hz)
FREQFINAL	QUANT	1.00000E+000	Final Freq. (Hz)
PTSPERDEC	QUANT	1.00000E+001	Points/decade
VAC	QUANT	5.00000E+001	AC Voltage (mV rms)
AREA	QUANT	1.00000E+000	Sample Area (cm^2)
SPEED	SELECTOR	2	Optimize for:
ZGUESS	QUANT	1.00000E+003	Estimated Z (ohms)
EOC	QUANT	0	Open Circuit (V)
SEQUENCER	TOGGLE	TRUE	Run as Sequence
PSTATMODEL	IQUANT	5	Pstat Model
PSTATSECTION	LABEL	REF3000-16137	Pstat Section
PSTATSERIALNO	LABEL	16137	Pstat Serial Number
CTRLMODE	IQUANT	1	Control Mode
IESTAB	IQUANT	0	I/E Stability
CASPEED	IQUANT	1	Control Amp Speed
CONVENTION	IQUANT	1	Current Convention
ICHRANGE	IQUANT	2	Ich Range
ICHRANGEMODE	TOGGLE	F	Ich Auto Range
ICHOFFSETENABLE	TOGGLE	T	Ich Offset Enable
ICHOFFSET	QUANT	0	Ich Offset (V)
ICHFILTER	IQUANT	3	Ich Filter
VCHRANGE	IQUANT	2	Vch Range
VCHRANGEMODE	TOGGLE	F	Vch Auto Range
VCHOFFSETENABLE	TOGGLE	T	Vch Offset Enable
VCHOFFSET	QUANT	0	Vch Offset (V)
VCHFILTER	IQUANT	3	Vch Filter
ACHRANGE	IQUANT	2	Ach Range
ACHOFFSETENABLE	TOGGLE	F	Ach Offset Enable
ACHOFFSET	QUANT	0	Ach Offset (V)
ACHFILTER	IQUANT	3	Ach Filter
IERANGELOWERLIMIT	IQUANT	2	I/E Range Lower Limit
IERANGEMODE	TOGGLE	F	I/E AutoRange
IERANGE	IQUANT	11	I/E Range
POSFEEDENABLE	TOGGLE	F	Positive Feedback IR Comp
POSFEEDRESISTANCE	QUANT	0	Positive Feedback Resistance (ohm)
ACHSELECT	IQUANT	0	Ach Select
CABLEID	IQUANT	13	Cable ID
DCCALDATE	LABEL	7/31/2020	DC Calibration Date
ACCALDATE	LABEL	7/31/2020	AC Calibration Date
THERMOSELECT	IQUANT	1	Thermo Select
FRAMEWORKVERSION	QUANT	6.33	Framework Version
INSTRUMENTVERSION	LABEL	3.50	Instrument Version
COMPLIANCEVOLTAGE	IQUANT	0	Compliance Voltage
ZCURVE	TABLE
	Pt	Time	Freq	Zreal	Zimag	Zsig	Zmod	Zphz	Idc	Vdc	IERange
	#	s	Hz	ohm	ohm	V	ohm	°	A	V	#
	0	7	300046.9	55.2056	-2.165583	1	55.24805	-2.246424	1.18773E-005	-0.0009023	9
	1	10	238359.4	55.70613	-3.338628	1	55.80609	-3.429798	7.984231E-006	-0.0010876	9
	2	13	189328.1	56.41054	-4.46641	1	56.58708	-4.527056	5.732683E-005	-0.0022746	9
	3	16	150421.9	57.08562	-5.901204	1	57.38983	-5.901965	1.160371E-005	0.0004826	9
	4	18	119484.4	57.883	-7.078503	1	58.31421	-6.972075	-6.555661E-005	0.0023652	9
	5	21	94921.88	58.95247	-8.229002	1	59.52403	-7.946404	1.377805E-005	-0.000134	9
	6	23	75421.88	59.88429	-9.69974	1	60.66476	-9.200559	1.509381E-005	-0.0006086	9
	7	26	59859.37	60.93621	-11.32798	1	61.9802	-10.53101	-1.608096E-005	0.000306	9
	8	28	47578.12	62.00695	-13.18493	1	63.39325	-12.00438	2.078663E-005	-0.0005069	9
	9	31	37828.12	63.14944	-15.22947	1	64.9599	-13.55886	-1.528005E-005	0.000636	9
	10	33	30046.88	64.30239	-17.7045	1	66.69518	-15.39393	2.04142E-005	-0.0002556	9
	11	36	23859.38	65.4845	-20.67416	1	68.67052	-17.52147	-5.052171E-006	0.000617	9
	12	38	18984.38	66.69038	-24.29573	1	70.9781	-20.017	1.998306E-005	-0.0002976	9
	13	41	15046.87	67.88506	-28.82821	1	73.7526	-23.00909	-8.468221E-006	0.0006915	9
	14	43	11953.13	69.14233	-34.52968	1	77.28493	-26.53754	3.819765E-006	-0.0003402	9
	15	45	9515.62	70.48736	-41.58908	1	81.84204	-30.54154	-1.297551E-005	0.0007397	9
	16	48	7546.875	72.03737	-50.54581	1	88.00149	-35.05584	-1.334704E-005	0.0007572	9
	17	50	5928.309	73.8346	-62.30319	1	96.6087	-40.15838	-3.39246E-006	0.0005539	9
	18	52	4733.456	75.79381	-75.91544	1	107.2747	-45.04594	-1.358163E-005	0.0002423	9
	19	54	3796.875	78.23694	-92.35576	1	121.0397	-49.7312	1.236173E-005	-0.0004475	9
	20	57	2987.132	81.31798	-114.6714	1	140.5779	-54.65805	-9.613594E-006	0.0006835	9
	21	59	2390.625	84.73114	-140.0904	1	163.7213	-58.83311	1.861958E-005	-0.0001348	9
	22	61	1884.191	89.22144	-173.9953	1	195.5373	-62.85212	-1.484325E-005	0.0003941	9
	23	64	1516.544	94.20387	-211.7967	1	231.8021	-66.02125	-1.379849E-005	0.0007237	9
	24	66	1193.986	101.3109	-263.4889	1	282.2947	-68.96835	-1.561581E-005	0.0006605	9
	25	68	946.5144	110.3052	-325.5654	1	343.7442	-71.28304	1.895411E-005	-0.0005645	9
	26	71	751.7689	118.4903	-402.558	1	419.6343	-73.59856	-2.865243E-006	0.0005578	9
	27	73	597.4265	131.2431	-494.3761	1	511.5002	-75.1325	3.423658E-006	-0.0006706	8
	28	76	477.4305	145.6487	-607.0762	1	624.3037	-76.5087	4.101284E-007	0.0006482	8
	29	78	376.6741	164.5491	-754.6683	1	772.3992	-77.69965	4.079239E-007	0.0006482	8
	30	80	298.2954	187.5745	-935.1799	1	953.806	-78.65835	4.008935E-007	0.0006554	8
	31	83	237.7717	215.1391	-1152.018	1	1171.935	-79.42188	4.084382E-007	0.0006451	8
	32	85	189.0121	249.6915	-1423.004	1	1444.744	-80.04774	4.032208E-007	0.0006553	8
	33	87	150.2404	292.4491	-1757.903	1	1782.063	-80.55463	4.015344E-007	0.0006513	8
	34	90	119.1737	345.6493	-2175.877	1	2203.16	-80.97369	4.043526E-007	0.0006511	8
	35	92	95.0169	411.7088	-2681.113	1	2712.54	-81.26991	4.049218E-007	0.0006486	8
	36	95	75.60484	494.1195	-3310.628	1	3347.299	-81.51112	4.223149E-007	0.0006402	8
	37	97	54.50582	650.0229	-4473.491	1	4520.471	-81.73247	4.12499E-007	0.0006434	8
	38	100	45.95588	759.3954	-5252.149	1	5306.765	-81.77276	4.553551E-008	0.0006298	7
	39	102	37.20238	917.5013	-6383.366	1	6448.967	-81.82072	4.587061E-008	0.0006172	7
	40	104	30.04808	1121.983	-7768.681	1	7849.283	-81.78195	4.01367E-008	0.000615	7
	41	107	23.91582	1396.326	-9588.42	1	9689.56	-81.71448	3.689932E-008	0.0006131	7
	42	109	18.60119	1807.894	-12084.24	1	12218.73	-81.49123	4.128473E-008	0.0006788	7
	43	112	15.02404	2240.857	-14682	1	14852.03	-81.32214	4.716905E-008	0.0006195	7
	44	114	12.01923	2845.343	-17986.53	1	18210.2	-81.0107	4.208618E-008	0.0006209	7
	45	117	9.450605	3689.94	-22380.61	1	22682.76	-80.63775	4.642261E-008	0.0006101	7
	46	119	7.512019	4769.84	-27478.93	1	27889.84	-80.15262	4.785829E-008	0.0006374	7
	47	122	5.978954	6135.758	-33676.99	1	34231.38	-79.67429	4.575856E-008	0.0006232	7
	48	126	4.734848	7949.839	-41359.31	1	42116.41	-79.11965	4.934096E-008	0.0006537	7
	49	130	3.75601	10349.65	-50648.8	1	51695.42	-78.45109	5.632173E-009	0.0006582	6
	50	135	3.004808	13172.78	-61367.8	1	62765.67	-77.88513	5.504682E-009	0.0006907	6
	51	142	2.372217	16985.88	-75263.54	1	77156.47	-77.28224	5.13031E-009	0.0007413	6
	52	146	1.878005	21716.15	-91825.89	1	94358.81	-76.69443	4.313905E-009	0.0006389	6
	53	150	1.512097	27364.79	-110120.4	1	113469.5	-76.04473	5.075351E-009	0.0007165	6
	54	156	1.201923	34839.76	-134004.1	1	138459	-75.42631	4.65214E-009	0.0006302	6
	55	162	0.956633	44570.77	-162350.8	1	168357.7	-74.64859	3.602977E-009	5.741085E-005	6
