EXPLAIN
TAG	EISPOT
TITLE	LABEL	Potentiostatic EIS	Test Identifier
DATE	LABEL	9/15/2020	Date
TIME	LABEL	9:33:11	Time
NOTES	NOTES	1	Notes...
	
PSTAT	PSTAT	REF3000-16137	Potentiostat
VDC	POTEN	0.00000E+000	T	DC Voltage (V)
FREQINIT	QUANT	3.00000E+005	Initial Freq. (Hz)
FREQFINAL	QUANT	1.00000E+000	Final Freq. (Hz)
PTSPERDEC	QUANT	1.00000E+001	Points/decade
VAC	QUANT	5.00000E+001	AC Voltage (mV rms)
AREA	QUANT	1.00000E+000	Sample Area (cm^2)
SPEED	SELECTOR	2	Optimize for:
ZGUESS	QUANT	1.00000E+003	Estimated Z (ohms)
EOC	QUANT	0	Open Circuit (V)
SEQUENCER	TOGGLE	TRUE	Run as Sequence
PSTATMODEL	IQUANT	5	Pstat Model
PSTATSECTION	LABEL	REF3000-16137	Pstat Section
PSTATSERIALNO	LABEL	16137	Pstat Serial Number
CTRLMODE	IQUANT	1	Control Mode
IESTAB	IQUANT	0	I/E Stability
CASPEED	IQUANT	1	Control Amp Speed
CONVENTION	IQUANT	1	Current Convention
ICHRANGE	IQUANT	2	Ich Range
ICHRANGEMODE	TOGGLE	F	Ich Auto Range
ICHOFFSETENABLE	TOGGLE	T	Ich Offset Enable
ICHOFFSET	QUANT	0	Ich Offset (V)
ICHFILTER	IQUANT	3	Ich Filter
VCHRANGE	IQUANT	2	Vch Range
VCHRANGEMODE	TOGGLE	F	Vch Auto Range
VCHOFFSETENABLE	TOGGLE	T	Vch Offset Enable
VCHOFFSET	QUANT	0	Vch Offset (V)
VCHFILTER	IQUANT	3	Vch Filter
ACHRANGE	IQUANT	2	Ach Range
ACHOFFSETENABLE	TOGGLE	F	Ach Offset Enable
ACHOFFSET	QUANT	0	Ach Offset (V)
ACHFILTER	IQUANT	3	Ach Filter
IERANGELOWERLIMIT	IQUANT	2	I/E Range Lower Limit
IERANGEMODE	TOGGLE	F	I/E AutoRange
IERANGE	IQUANT	11	I/E Range
POSFEEDENABLE	TOGGLE	F	Positive Feedback IR Comp
POSFEEDRESISTANCE	QUANT	0	Positive Feedback Resistance (ohm)
ACHSELECT	IQUANT	0	Ach Select
CABLEID	IQUANT	13	Cable ID
DCCALDATE	LABEL	7/31/2020	DC Calibration Date
ACCALDATE	LABEL	7/31/2020	AC Calibration Date
THERMOSELECT	IQUANT	1	Thermo Select
FRAMEWORKVERSION	QUANT	6.33	Framework Version
INSTRUMENTVERSION	LABEL	3.50	Instrument Version
COMPLIANCEVOLTAGE	IQUANT	0	Compliance Voltage
ZCURVE	TABLE
	Pt	Time	Freq	Zreal	Zimag	Zsig	Zmod	Zphz	Idc	Vdc	IERange
	#	s	Hz	ohm	ohm	V	ohm	°	A	V	#
	0	16	300046.9	-77.86802	-4890.251	1	4890.872	-90.91225	1.969935E-005	-0.001062	9
	1	38	238359.4	40.00235	-6097.832	1	6097.963	-89.62414	1.983372E-005	-0.0009787	9
	2	63	189328.1	264.4634	-7272.562	1	7277.369	-87.91738	2.925629E-005	-0.0019548	9
	3	78	150421.9	-241.2176	-8595.731	1	8599.115	-91.60744	7.716757E-005	-0.0014616	9
	4	85	119484.4	139.5732	-11762.69	1	11763.52	-89.32018	1.99218E-005	-0.0020129	9
	5	99	94921.88	917.8107	-14813.87	1	14842.28	-86.4547	-2.033356E-005	0.0027636	8
	6	108	75421.88	1127.67	-18255.29	1	18290.09	-86.4652	-1.997789E-005	0.0113287	8
	7	115	59859.37	1762.408	-23087.52	1	23154.69	-85.63474	2.261121E-005	-0.0096542	8
	8	124	47578.12	6806.216	-29930.23	1	30694.35	-77.18865	6.028589E-007	0.0161954	7
	9	131	37828.12	9263.743	-36299.2	1	37462.63	-75.68341	3.583641E-006	-0.0248367	7
	10	139	30046.88	14339.94	-43322.2	1	45633.84	-71.6851	-5.449874E-006	0.026862	7
	11	146	23859.38	17622.08	-48506.48	1	51608.3	-70.03426	-1.957385E-005	0.0112774	8
	12	153	18984.38	33210.98	-49613.66	1	59703.3	-56.20197	1.734676E-005	0.0002297	8
	13	159	15046.87	47115.39	-48977.72	1	67960.85	-46.11028	7.57604E-006	-0.0181715	7
	14	164	11953.13	56058.75	-39259.84	1	68439.16	-35.00485	-1.908116E-006	0.0221621	7
	15	170	9515.62	57653.42	-27080.36	1	63696.64	-25.15989	7.545973E-006	-0.018205	7
	16	175	7546.875	54483.08	-17690.47	1	57283.15	-17.98844	-6.636298E-006	0.0116503	7
	17	180	5928.309	49248.94	-10466.61	1	50348.86	-11.99825	5.381307E-006	-0.0265655	7
	18	186	4733.456	43475.02	-7161.351	1	44060.89	-9.353954	-5.37566E-006	0.0264106	7
	19	191	3796.875	37000.72	-4634.306	1	37289.81	-7.139067	-5.409582E-006	0.02644	7
	20	197	2987.132	32028.19	-3450.171	1	32213.48	-6.148362	6.420814E-006	-0.0093379	7
	21	202	2390.625	27954.9	-2502.221	1	28066.67	-5.114868	-1.984078E-006	0.0223797	7
	22	207	1884.191	23737.08	-3584.826	1	24006.24	-8.588037	-2.016008E-005	0.0028051	8
	23	214	1516.544	19681.01	-1774.385	1	19760.83	-5.151701	2.290074E-005	-0.0027874	8
	24	220	1193.986	17359.92	-2307.027	1	17512.54	-7.569904	2.284631E-005	-0.0027937	8
	25	227	946.5144	16446.79	-2738.058	1	16673.15	-9.451902	2.557357E-005	-0.0087816	8
	26	231	751.7689	14447.32	-2126.135	1	14602.93	-8.371819	2.224374E-006	0.0096693	7
	27	234	597.4265	13939.97	-2317.78	1	14131.34	-9.440134	-6.820529E-006	0.0165151	7
	28	237	477.4305	13326.02	-2678.086	1	13592.46	-11.36318	-8.446692E-008	0.0006265	7
	29	239	376.6741	12840.39	-2975.781	1	13180.71	-13.04804	-7.597095E-008	0.0005899	7
	30	242	298.2954	12369.37	-3362.237	1	12818.18	-15.20671	-7.707255E-008	0.000606	7
	31	244	237.7717	11873.95	-3852.249	1	12483.21	-17.97454	-9.014204E-008	0.0006883	7
	32	246	189.0121	11412.08	-4504.01	1	12268.73	-21.53768	-8.549538E-008	0.0006613	7
	33	249	150.2404	10976.58	-5342.897	1	12207.86	-25.9547	-7.528018E-008	0.0005813	7
	34	251	119.1737	10599.05	-6421	1	12392.3	-31.20786	-7.843653E-008	0.0006338	7
	35	254	95.0169	10252.08	-7747.834	1	12850.45	-37.07954	-8.217244E-008	0.0006234	7
	36	256	75.60484	9951.31	-9409.613	1	13695.6	-43.39734	-8.009169E-008	0.0006606	7
	37	259	54.50582	9855.06	-12548.97	1	15956.16	-51.85645	-7.874709E-008	0.0006557	7
	38	261	45.95588	9670.76	-14542.08	1	17464.13	-56.37534	-8.094325E-008	0.0006264	7
	39	264	37.20238	9647.68	-17517.74	1	19998.72	-61.15677	-7.246267E-008	0.0006084	7
	40	266	30.04808	9716.47	-21162.87	1	23286.84	-65.33881	-7.96996E-008	0.0006639	7
	41	268	23.91582	9950.08	-25918.5	1	27762.8	-68.99827	-7.731268E-008	0.0006169	7
	42	271	18.60119	10433.06	-32465.73	1	34100.91	-72.18487	-6.934649E-008	0.0005673	7
	43	273	15.02404	10989.46	-39242.8	1	40752.49	-74.35576	-6.934961E-008	0.0005899	7
	44	275	12.01923	11808.91	-47926.18	1	49359.59	-76.15816	-8.400239E-009	0.0006508	6
	45	278	9.450605	12972.03	-59373.2	1	60773.77	-77.67551	-7.973493E-009	0.0006222	6
	46	280	7.512019	14467.82	-72764.92	1	74189.3	-78.75456	-8.232544E-009	0.0006208	6
	47	283	5.978954	16273.8	-88908.28	1	90385.39	-79.62739	-7.484742E-009	0.0006191	6
	48	287	4.734848	18642.67	-109003.4	1	110586.1	-80.2947	-7.489944E-009	0.0007307	6
	49	290	3.75601	21600.68	-132974.2	1	134717.2	-80.77332	-7.073826E-009	0.000623	6
	50	296	3.004808	24916.73	-160154.4	1	162081	-81.15685	-7.019548E-009	0.000652	6
	51	302	2.372217	29649.32	-195445.4	1	197681.6	-81.37392	-7.134702E-009	0.0006631	6
	52	306	1.878005	35705.07	-239406.2	1	242054.1	-81.51743	-7.474943E-009	0.0006671	6
	53	311	1.512097	42243.75	-287544.7	1	290631.2	-81.64235	-7.122567E-009	0.000549	6
	54	316	1.201923	50884.25	-348934.9	1	352625.6	-81.70319	-7.033195E-009	0.0006747	6
	55	322	0.956633	60846.13	-421886.9	1	426252	-81.79317	-6.872833E-009	1.944551E-005	6
