EXPLAIN
TAG	EISPOT
TITLE	LABEL	Potentiostatic EIS	Test Identifier
DATE	LABEL	9/15/2020	Date
TIME	LABEL	4:49:58	Time
NOTES	NOTES	1	Notes...
	
PSTAT	PSTAT	REF3000-16137	Potentiostat
VDC	POTEN	0.00000E+000	T	DC Voltage (V)
FREQINIT	QUANT	3.00000E+005	Initial Freq. (Hz)
FREQFINAL	QUANT	1.00000E+000	Final Freq. (Hz)
PTSPERDEC	QUANT	1.00000E+001	Points/decade
VAC	QUANT	5.00000E+001	AC Voltage (mV rms)
AREA	QUANT	1.00000E+000	Sample Area (cm^2)
SPEED	SELECTOR	2	Optimize for:
ZGUESS	QUANT	1.00000E+003	Estimated Z (ohms)
EOC	QUANT	0	Open Circuit (V)
SEQUENCER	TOGGLE	TRUE	Run as Sequence
PSTATMODEL	IQUANT	5	Pstat Model
PSTATSECTION	LABEL	REF3000-16137	Pstat Section
PSTATSERIALNO	LABEL	16137	Pstat Serial Number
CTRLMODE	IQUANT	1	Control Mode
IESTAB	IQUANT	0	I/E Stability
CASPEED	IQUANT	1	Control Amp Speed
CONVENTION	IQUANT	1	Current Convention
ICHRANGE	IQUANT	2	Ich Range
ICHRANGEMODE	TOGGLE	F	Ich Auto Range
ICHOFFSETENABLE	TOGGLE	T	Ich Offset Enable
ICHOFFSET	QUANT	0	Ich Offset (V)
ICHFILTER	IQUANT	3	Ich Filter
VCHRANGE	IQUANT	2	Vch Range
VCHRANGEMODE	TOGGLE	F	Vch Auto Range
VCHOFFSETENABLE	TOGGLE	T	Vch Offset Enable
VCHOFFSET	QUANT	0	Vch Offset (V)
VCHFILTER	IQUANT	3	Vch Filter
ACHRANGE	IQUANT	2	Ach Range
ACHOFFSETENABLE	TOGGLE	F	Ach Offset Enable
ACHOFFSET	QUANT	0	Ach Offset (V)
ACHFILTER	IQUANT	3	Ach Filter
IERANGELOWERLIMIT	IQUANT	2	I/E Range Lower Limit
IERANGEMODE	TOGGLE	F	I/E AutoRange
IERANGE	IQUANT	11	I/E Range
POSFEEDENABLE	TOGGLE	F	Positive Feedback IR Comp
POSFEEDRESISTANCE	QUANT	0	Positive Feedback Resistance (ohm)
ACHSELECT	IQUANT	0	Ach Select
CABLEID	IQUANT	13	Cable ID
DCCALDATE	LABEL	7/31/2020	DC Calibration Date
ACCALDATE	LABEL	7/31/2020	AC Calibration Date
THERMOSELECT	IQUANT	1	Thermo Select
FRAMEWORKVERSION	QUANT	6.33	Framework Version
INSTRUMENTVERSION	LABEL	3.50	Instrument Version
COMPLIANCEVOLTAGE	IQUANT	0	Compliance Voltage
ZCURVE	TABLE
	Pt	Time	Freq	Zreal	Zimag	Zsig	Zmod	Zphz	Idc	Vdc	IERange
	#	s	Hz	ohm	ohm	V	ohm	°	A	V	#
	0	19	300046.9	938.1481	-192.9041	1	957.776	-11.61933	-9.129677E-005	0.0039223	9
	1	35	238359.4	951.898	-166.6076	1	966.368	-9.92773	-8.413893E-005	0.003912	9
	2	48	189328.1	974.762	-146.3451	1	985.687	-8.538282	-8.993759E-005	0.002225	9
	3	61	150421.9	986.054	-133.0707	1	994.992	-7.68579	7.586797E-005	-0.0015671	9
	4	68	119484.4	995.784	-120.2491	1	1003.018	-6.885597	2.573353E-005	0.0010619	9
	5	81	94921.88	1007.237	-81.08001	1	1010.495	-4.60224	-1.755447E-005	0.0083464	8
	6	83	75421.88	1016.501	-80.81116	1	1019.708	-4.545418	-1.965028E-005	0.0073869	8
	7	86	59859.37	1017.541	-83.93696	1	1020.997	-4.715653	-1.580779E-005	0.0027825	8
	8	89	47578.12	1029.174	-87.58819	1	1032.894	-4.864454	7.597408E-006	0.0026689	8
	9	91	37828.12	1036.26	-91.70044	1	1040.309	-5.057031	-1.953521E-005	0.0060563	8
	10	94	30046.88	1051.089	-106.3676	1	1056.457	-5.778519	-1.803579E-005	0.0044719	8
	11	96	23859.38	1058.933	-117.0464	1	1065.382	-6.307437	-1.937564E-005	0.0075472	8
	12	99	18984.38	1073.073	-129.1148	1	1080.813	-6.860982	7.875476E-006	0.0028132	8
	13	101	15046.87	1088.093	-145.3629	1	1097.76	-7.609328	1.622442E-005	-0.0071238	8
	14	104	11953.13	1104.932	-162.8598	1	1116.87	-8.384651	1.410025E-005	-0.0002174	8
	15	108	9515.62	1125.603	-183.114	1	1140.4	-9.239982	-8.83794E-006	-0.000821	8
	16	111	7546.875	1149.012	-206.9826	1	1167.506	-10.21172	-1.839002E-005	0.0045878	8
	17	114	5928.309	1171.985	-235.0903	1	1195.331	-11.34252	-1.350509E-005	0.0083971	8
	18	117	4733.456	1193.795	-258.1578	1	1221.39	-12.2023	-1.748317E-005	0.0083655	8
	19	120	3796.875	1219.383	-296.6429	1	1254.947	-13.67291	1.444082E-005	-0.0001737	8
	20	123	2987.132	1249.77	-338.7743	1	1294.872	-15.16666	1.59691E-005	-0.0070117	8
	21	126	2390.625	1274.936	-388.0755	1	1332.691	-16.92963	1.427492E-005	-8.807287E-005	8
	22	130	1884.191	1301.766	-455.7417	1	1379.237	-19.29489	-1.343728E-005	0.0013546	8
	23	133	1516.544	1318.031	-530.8401	1	1420.914	-21.93723	1.856135E-005	-0.0026036	8
	24	137	1193.986	1344.287	-628.6251	1	1484.007	-25.06207	1.868928E-005	-0.0026458	8
	25	142	946.5144	1363.602	-757.4676	1	1559.861	-29.05175	-7.182143E-006	0.0074548	8
	26	144	751.7689	1398.364	-922.6033	1	1675.297	-33.41576	-1.351195E-005	0.0013474	8
	27	147	597.4265	1432.629	-1106.32	1	1810.074	-37.67644	-1.85511E-005	0.0047488	8
	28	149	477.4305	1466.639	-1353.859	1	1995.987	-42.71019	-1.947351E-007	0.0006254	8
	29	152	376.6741	1510.091	-1670.993	1	2252.242	-47.8956	-1.914025E-007	0.0006206	8
	30	154	298.2954	1561.375	-2061.421	1	2585.991	-52.85875	-1.942494E-007	0.0006262	8
	31	156	237.7717	1621.883	-2532.592	1	3007.412	-57.36433	-2.305314E-007	0.0006496	8
	32	159	189.0121	1695.761	-3122.925	1	3553.627	-61.49786	-2.378901E-007	0.0006538	8
	33	161	150.2404	1791.778	-3861.792	1	4257.218	-65.10983	-4.587088E-008	0.0005992	7
	34	164	119.1737	1903.708	-4778.011	1	5143.296	-68.27612	-5.1088E-008	0.0006623	7
	35	166	95.0169	2039.112	-5888.055	1	6231.145	-70.89835	-4.365061E-008	0.0005998	7
	36	168	75.60484	2206.805	-7271.418	1	7598.915	-73.11747	-4.726176E-008	0.0005989	7
	37	171	54.50582	2517.859	-9835.98	1	10153.13	-75.64149	-4.466484E-008	0.0005843	7
	38	174	45.95588	2721.211	-11521.71	1	11838.7	-76.71133	-5.241798E-008	0.0006676	7
	39	176	37.20238	3024.131	-14009.74	1	14332.41	-77.81907	-4.961709E-008	0.0006536	7
	40	178	30.04808	3398.976	-17072.87	1	17407.93	-78.74041	-4.622245E-008	0.000621	7
	41	181	23.91582	3897.411	-21082.43	1	21439.65	-79.52625	-4.92835E-008	0.0006128	7
	42	183	18.60119	4596.589	-26578.56	1	26973.1	-80.18812	-4.488647E-008	0.0006081	7
	43	185	15.02404	5310.097	-32400.19	1	32832.45	-80.69249	-4.466497E-008	0.0006113	7
	44	188	12.01923	6243.988	-39839.46	1	40325.79	-81.09257	-4.381649E-008	0.0005891	7
	45	190	9.450605	7513.186	-49712.13	1	50276.67	-81.40571	-4.557694E-009	0.0006476	6
	46	193	7.512019	9025.229	-61417.82	1	62077.4	-81.64033	-4.54992E-009	0.0006521	6
	47	195	5.978954	10891.75	-75787.73	1	76566.38	-81.8218	-4.634262E-009	0.0006341	6
	48	198	4.734848	13253.75	-93959.92	1	94890.09	-81.97098	-4.457518E-009	0.0006791	6
	49	202	3.75601	16202.75	-116332.5	1	117455.4	-82.07087	-5.372684E-009	0.000681	6
	50	207	3.004808	19732.7	-142767.2	1	144124.5	-82.13067	-5.446705E-009	0.0007043	6
	51	214	2.372217	24454.76	-177514.9	1	179191.5	-82.1562	-5.639952E-009	0.0007879	6
	52	218	1.878005	30026.68	-220012.6	1	222052.2	-82.22845	-5.444574E-009	0.000637	6
	53	223	1.512097	36853.31	-267872.5	1	270395.8	-82.16655	-5.118126E-009	0.0007262	6
	54	228	1.201923	44997.39	-331394.6	1	334435.5	-82.26756	-5.298101E-009	0.0006263	6
	55	234	0.956633	55137.61	-408703.7	1	412406.2	-82.3167	-5.496282E-009	2.383246E-005	6
