EXPLAIN
TAG	EISPOT
TITLE	LABEL	Potentiostatic EIS	Test Identifier
DATE	LABEL	9/15/2020	Date
TIME	LABEL	1:20:00	Time
NOTES	NOTES	1	Notes...
	
PSTAT	PSTAT	REF3000-16137	Potentiostat
VDC	POTEN	0.00000E+000	T	DC Voltage (V)
FREQINIT	QUANT	3.00000E+005	Initial Freq. (Hz)
FREQFINAL	QUANT	1.00000E+000	Final Freq. (Hz)
PTSPERDEC	QUANT	1.00000E+001	Points/decade
VAC	QUANT	5.00000E+001	AC Voltage (mV rms)
AREA	QUANT	1.00000E+000	Sample Area (cm^2)
SPEED	SELECTOR	2	Optimize for:
ZGUESS	QUANT	1.00000E+003	Estimated Z (ohms)
EOC	QUANT	0	Open Circuit (V)
SEQUENCER	TOGGLE	TRUE	Run as Sequence
PSTATMODEL	IQUANT	5	Pstat Model
PSTATSECTION	LABEL	REF3000-16137	Pstat Section
PSTATSERIALNO	LABEL	16137	Pstat Serial Number
CTRLMODE	IQUANT	1	Control Mode
IESTAB	IQUANT	0	I/E Stability
CASPEED	IQUANT	1	Control Amp Speed
CONVENTION	IQUANT	1	Current Convention
ICHRANGE	IQUANT	2	Ich Range
ICHRANGEMODE	TOGGLE	F	Ich Auto Range
ICHOFFSETENABLE	TOGGLE	T	Ich Offset Enable
ICHOFFSET	QUANT	0	Ich Offset (V)
ICHFILTER	IQUANT	3	Ich Filter
VCHRANGE	IQUANT	2	Vch Range
VCHRANGEMODE	TOGGLE	F	Vch Auto Range
VCHOFFSETENABLE	TOGGLE	T	Vch Offset Enable
VCHOFFSET	QUANT	0	Vch Offset (V)
VCHFILTER	IQUANT	3	Vch Filter
ACHRANGE	IQUANT	2	Ach Range
ACHOFFSETENABLE	TOGGLE	F	Ach Offset Enable
ACHOFFSET	QUANT	0	Ach Offset (V)
ACHFILTER	IQUANT	3	Ach Filter
IERANGELOWERLIMIT	IQUANT	2	I/E Range Lower Limit
IERANGEMODE	TOGGLE	F	I/E AutoRange
IERANGE	IQUANT	11	I/E Range
POSFEEDENABLE	TOGGLE	F	Positive Feedback IR Comp
POSFEEDRESISTANCE	QUANT	0	Positive Feedback Resistance (ohm)
ACHSELECT	IQUANT	0	Ach Select
CABLEID	IQUANT	13	Cable ID
DCCALDATE	LABEL	7/31/2020	DC Calibration Date
ACCALDATE	LABEL	7/31/2020	AC Calibration Date
THERMOSELECT	IQUANT	1	Thermo Select
FRAMEWORKVERSION	QUANT	6.33	Framework Version
INSTRUMENTVERSION	LABEL	3.50	Instrument Version
COMPLIANCEVOLTAGE	IQUANT	0	Compliance Voltage
ZCURVE	TABLE
	Pt	Time	Freq	Zreal	Zimag	Zsig	Zmod	Zphz	Idc	Vdc	IERange
	#	s	Hz	ohm	ohm	V	ohm	°	A	V	#
	0	6	300046.9	59.2067	-2.154576	1	59.24589	-2.084117	-7.179618E-005	0.0020254	9
	1	10	238359.4	59.7728	-3.648722	1	59.88406	-3.493182	-9.301821E-006	-0.0011422	9
	2	13	189328.1	60.49251	-4.931955	1	60.69323	-4.661016	4.38314E-005	-0.0007527	9
	3	15	150421.9	61.18632	-6.216482	1	61.5013	-5.8013	-5.615505E-006	0.0007362	9
	4	18	119484.4	62.08852	-7.513813	1	62.54152	-6.900251	-6.193746E-005	0.0018143	9
	5	20	94921.88	63.17974	-8.67722	1	63.77283	-7.820181	1.908095E-005	-0.0006363	9
	6	23	75421.88	64.16127	-10.2244	1	64.97082	-9.054227	-9.134761E-006	3.652856E-005	9
	7	25	59859.37	65.27281	-11.9384	1	66.3556	-10.36484	4.329649E-006	-0.0003907	9
	8	28	47578.12	66.47242	-13.83219	1	67.89633	-11.75488	-3.240987E-006	-0.0001576	9
	9	31	37828.12	67.70222	-15.97145	1	69.56061	-13.2738	1.58425E-005	-0.0005993	9
	10	33	30046.88	68.95714	-18.49914	1	71.39542	-15.01715	-1.693148E-005	0.0006049	9
	11	36	23859.38	70.23594	-21.58488	1	73.47785	-17.08322	1.754975E-005	-0.0001771	9
	12	38	18984.38	71.50394	-25.29533	1	75.84634	-19.48181	-1.233814E-005	0.0007071	9
	13	40	15046.87	72.76651	-30.02521	1	78.71771	-22.42222	-1.719196E-005	0.0006752	9
	14	42	11953.13	74.07124	-35.72019	1	82.23431	-25.74527	-1.459046E-005	0.0005039	9
	15	45	9515.62	75.53767	-43.08143	1	86.95947	-29.69742	1.804002E-005	-0.0001242	9
	16	47	7546.875	77.10365	-52.17277	1	93.09657	-34.08455	-2.883281E-006	-0.0001623	9
	17	49	5928.309	79.00275	-64.37255	1	101.9081	-39.17363	-4.021939E-006	0.0005844	9
	18	52	4733.456	81.1373	-78.27321	1	112.7384	-43.97069	1.02137E-005	-0.0005177	9
	19	54	3796.875	83.51473	-95.3781	1	126.7742	-48.79403	3.219503E-006	0.0003377	9
	20	56	2987.132	86.7504	-118.0594	1	146.5048	-53.69144	-1.601479E-005	0.0004207	9
	21	59	2390.625	90.23988	-144.4399	1	170.3118	-58.00461	1.720883E-005	-0.0001675	9
	22	61	1884.191	95.1672	-179.1391	1	202.8488	-62.02064	-1.311214E-005	0.000211	9
	23	63	1516.544	100.3935	-218.1858	1	240.1747	-65.2915	-1.38106E-005	0.0002363	9
	24	66	1193.986	107.2324	-271.5414	1	291.9478	-68.45082	-1.61084E-005	0.0006736	9
	25	68	946.5144	114.9515	-336.8077	1	355.8838	-71.15538	-1.745001E-005	0.000461	9
	26	70	751.7689	124.7071	-414.6002	1	432.9494	-73.25931	1.837184E-005	-0.0001545	9
	27	73	597.4265	137.8814	-509.3447	1	527.6772	-74.85286	3.652646E-006	-0.0007764	8
	28	75	477.4305	152.4671	-626.0405	1	644.3392	-76.31254	3.870481E-007	0.0006444	8
	29	77	376.6741	171.781	-778.3339	1	797.0648	-77.55414	3.917361E-007	0.0006417	8
	30	80	298.2954	195.2205	-964.64	1	984.196	-78.5592	3.818415E-007	0.0006413	8
	31	82	237.7717	223.3172	-1188.448	1	1209.248	-79.35784	3.826422E-007	0.0006533	8
	32	84	189.0121	258.344	-1468.277	1	1490.831	-80.02092	3.95204E-007	0.0006469	8
	33	87	150.2404	301.7454	-1814.067	1	1838.992	-80.55609	3.968408E-007	0.0006442	8
	34	89	119.1737	355.9371	-2246.747	1	2274.766	-80.99783	3.896857E-007	0.0006455	8
	35	92	95.0169	422.2879	-2767.874	1	2799.903	-81.32542	3.884667E-007	0.0006482	8
	36	94	75.60484	505.6416	-3418.365	1	3455.56	-81.58587	3.952483E-007	0.0006481	8
	37	97	54.50582	664.965	-4623.869	1	4671.439	-81.81632	3.963911E-007	0.000644	8
	38	99	45.95588	770.4882	-5423.898	1	5478.351	-81.91498	4.497522E-008	0.0006313	7
	39	101	37.20238	927.0917	-6587.146	1	6652.066	-81.98867	4.195249E-008	0.0006252	7
	40	104	30.04808	1125.876	-8028.467	1	8107.026	-82.01716	3.705199E-008	0.0006214	7
	41	106	23.91582	1389.83	-9914.13	1	10011.08	-82.0199	3.496799E-008	0.0006122	7
	42	109	18.60119	1740.245	-12465.93	1	12586.82	-82.05286	4.017139E-008	0.0006257	7
	43	111	15.02404	2162.79	-15189.45	1	15342.65	-81.89626	4.544371E-008	0.0006292	7
	44	113	12.01923	2709.279	-18655.28	1	18850.99	-81.73679	3.796688E-008	0.000622	7
	45	116	9.450605	3498.253	-23290.92	1	23552.17	-81.45813	4.328087E-008	0.0006277	7
	46	118	7.512019	4450.367	-28688.42	1	29031.55	-81.18213	4.63014E-008	0.0006342	7
	47	121	5.978954	5723.554	-35304.29	1	35765.23	-80.79129	4.393076E-008	0.0006262	7
	48	126	4.734848	7529.728	-43614.5	1	44259.7	-80.20486	6.256645E-009	0.0006984	6
	49	129	3.75601	9772.83	-53694.31	1	54576.44	-79.68459	5.597573E-009	0.0006611	6
	50	134	3.004808	12660.89	-65447.54	1	66660.92	-79.05132	5.698137E-009	0.0006976	6
	51	141	2.372217	16792.78	-80569.99	1	82301.41	-78.22669	5.420621E-009	0.0007434	6
	52	145	1.878005	21970.04	-98740.6	1	101155.3	-77.45588	4.384517E-009	0.0006485	6
	53	150	1.512097	28160.6	-118581	1	121878.9	-76.64087	5.262565E-009	0.0006543	6
	54	155	1.201923	36931.21	-144277.1	1	148928.8	-75.64205	4.594271E-009	0.0006399	6
	55	161	0.956633	48017.55	-174307	1	180800	-74.59835	4.138083E-009	2.971865E-005	6
