EXPLAIN
TAG	EISPOT
TITLE	LABEL	Potentiostatic EIS	Test Identifier
DATE	LABEL	9/15/2020	Date
TIME	LABEL	7:59:43	Time
NOTES	NOTES	1	Notes...
	
PSTAT	PSTAT	REF3000-16137	Potentiostat
VDC	POTEN	0.00000E+000	T	DC Voltage (V)
FREQINIT	QUANT	3.00000E+005	Initial Freq. (Hz)
FREQFINAL	QUANT	1.00000E+000	Final Freq. (Hz)
PTSPERDEC	QUANT	1.00000E+001	Points/decade
VAC	QUANT	5.00000E+001	AC Voltage (mV rms)
AREA	QUANT	1.00000E+000	Sample Area (cm^2)
SPEED	SELECTOR	2	Optimize for:
ZGUESS	QUANT	1.00000E+003	Estimated Z (ohms)
EOC	QUANT	0	Open Circuit (V)
SEQUENCER	TOGGLE	TRUE	Run as Sequence
PSTATMODEL	IQUANT	5	Pstat Model
PSTATSECTION	LABEL	REF3000-16137	Pstat Section
PSTATSERIALNO	LABEL	16137	Pstat Serial Number
CTRLMODE	IQUANT	1	Control Mode
IESTAB	IQUANT	0	I/E Stability
CASPEED	IQUANT	1	Control Amp Speed
CONVENTION	IQUANT	1	Current Convention
ICHRANGE	IQUANT	2	Ich Range
ICHRANGEMODE	TOGGLE	F	Ich Auto Range
ICHOFFSETENABLE	TOGGLE	T	Ich Offset Enable
ICHOFFSET	QUANT	0	Ich Offset (V)
ICHFILTER	IQUANT	3	Ich Filter
VCHRANGE	IQUANT	2	Vch Range
VCHRANGEMODE	TOGGLE	F	Vch Auto Range
VCHOFFSETENABLE	TOGGLE	T	Vch Offset Enable
VCHOFFSET	QUANT	0	Vch Offset (V)
VCHFILTER	IQUANT	3	Vch Filter
ACHRANGE	IQUANT	2	Ach Range
ACHOFFSETENABLE	TOGGLE	F	Ach Offset Enable
ACHOFFSET	QUANT	0	Ach Offset (V)
ACHFILTER	IQUANT	3	Ach Filter
IERANGELOWERLIMIT	IQUANT	2	I/E Range Lower Limit
IERANGEMODE	TOGGLE	F	I/E AutoRange
IERANGE	IQUANT	11	I/E Range
POSFEEDENABLE	TOGGLE	F	Positive Feedback IR Comp
POSFEEDRESISTANCE	QUANT	0	Positive Feedback Resistance (ohm)
ACHSELECT	IQUANT	0	Ach Select
CABLEID	IQUANT	13	Cable ID
DCCALDATE	LABEL	7/31/2020	DC Calibration Date
ACCALDATE	LABEL	7/31/2020	AC Calibration Date
THERMOSELECT	IQUANT	1	Thermo Select
FRAMEWORKVERSION	QUANT	6.33	Framework Version
INSTRUMENTVERSION	LABEL	3.50	Instrument Version
COMPLIANCEVOLTAGE	IQUANT	0	Compliance Voltage
ZCURVE	TABLE
	Pt	Time	Freq	Zreal	Zimag	Zsig	Zmod	Zphz	Idc	Vdc	IERange
	#	s	Hz	ohm	ohm	V	ohm	°	A	V	#
	0	15	300046.9	-27.11913	-4922.055	1	4922.129	-90.31568	1.908747E-005	-0.002321	9
	1	28	238359.4	-17.67253	-6093.104	1	6093.129	-90.16618	-1.701734E-005	0.0018081	9
	2	54	189328.1	175.6751	-7686.721	1	7688.729	-88.69077	1.502439E-006	-0.0019472	9
	3	64	150421.9	716.8091	-8633.72	1	8663.425	-85.25394	1.861138E-005	-0.0020097	9
	4	73	119484.4	305.2937	-11859.79	1	11863.72	-88.52542	2.248891E-005	-0.0184249	8
	5	80	94921.88	639.8481	-14788.23	1	14802.06	-87.52251	-9.410883E-006	-0.0021712	8
	6	89	75421.88	768.533	-18792.23	1	18807.94	-87.65812	-2.027586E-005	0.002748	8
	7	97	59859.37	983.794	-23386.41	1	23407.09	-87.59116	-2.689664E-005	0.0096226	8
	8	106	47578.12	1046.068	-29422.12	1	29440.71	-87.96378	-2.029426E-005	0.0027277	8
	9	113	37828.12	849.3861	-36070.13	1	36080.13	-88.65104	-2.490496E-005	0.0110693	8
	10	122	30046.88	2146.993	-46275.17	1	46324.95	-87.3436	-2.036697E-005	0.0027802	8
	11	131	23859.38	-378.3825	-57872.54	1	57873.78	-90.3746	-2.488835E-005	0.0110196	8
	12	137	18984.38	4982.364	-69917.95	1	70095.25	-85.92398	-1.559695E-005	0.000508	8
	13	143	15046.87	5669.432	-90371.27	1	90548.93	-86.41026	-6.708882E-006	0.0118597	7
	14	149	11953.13	5954.309	-114861.1	1	115015.3	-87.03249	6.56248E-006	-0.0099437	7
	15	155	9515.62	6098.976	-145604.6	1	145732.3	-87.60144	-6.685076E-006	0.0258978	7
	16	162	7546.875	29521.68	-172529.3	1	175036.9	-80.29009	-8.604429E-007	-0.0052507	8
	17	169	5928.309	-14736.9	-249221.6	1	249656.9	-93.38406	4.924776E-006	-0.0005387	7
	18	176	4733.456	46383.45	-297024	1	300623.8	-81.12434	4.462804E-007	0.0164261	7
	19	182	3796.875	104.735	-393076.2	1	393076.2	-89.98473	6.494482E-006	-0.0097465	7
	20	189	2987.132	-66215.91	-457397.6	1	462165.7	-98.2373	3.519616E-006	-0.0246856	7
	21	195	2390.625	-33441.93	-592316.3	1	593259.6	-93.23147	7.604533E-006	-0.0184412	7
	22	202	1884.191	126272	-643536.7	1	655808	-78.8987	6.890787E-006	-0.0271209	7
	23	208	1516.544	-53979.73	-788208.1	1	790054.3	-93.91773	4.936366E-006	-0.0005708	7
	24	214	1193.986	902163.4	-677689.3	1	1128345	-36.91323	-1.812673E-006	0.0221545	7
	25	221	946.5144	-12471.84	-1558192	1	1558242	-90.45859	-7.245478E-010	0.0177899	6
	26	226	751.7689	115659.1	-2098533	1	2101718	-86.84538	-6.537844E-007	0.0102097	6
	27	230	597.4265	-39902.81	-2352310	1	2352649	-90.97183	-6.769516E-007	0.0259824	6
	28	235	477.4305	122748.2	-2855093	1	2857730	-87.53822	-9.478732E-009	0.0006529	6
	29	239	376.6741	529424.7	-3722863	1	3760319	-81.9063	-1.01872E-009	0.0006392	5
	30	243	298.2954	593267.4	-4597850	1	4635967	-82.64767	-9.970987E-010	0.000684	5
	31	247	237.7717	757957.4	-5778226	1	5827726	-82.52691	-1.017015E-009	0.0006721	5
	32	250	189.0121	726515.2	-7182167	1	7218819	-84.22387	-9.943473E-010	0.0006403	5
	33	253	150.2404	615529.2	-9170035	1	9190670	-86.15984	-9.913681E-010	0.0006845	5
	34	256	119.1737	-2588242	-1.254694E+007	1	1.281112E+007	-101.6557	-1.020435E-009	0.0005962	5
	35	259	95.0169	1202996	-1.374135E+007	1	1.37939E+007	-84.99676	-9.505452E-010	0.0006174	5
	36	261	75.60484	2303069	-1.657276E+007	1	1.673202E+007	-82.08844	-9.238238E-010	0.000671	5
	37	264	54.50582	4011693	-2.361531E+007	1	2.395363E+007	-80.35882	-9.880704E-010	0.0006663	5
	38	267	45.95588	5494794	-2.67292E+007	1	2.728815E+007	-78.38339	-9.849589E-010	0.0006571	5
	39	271	37.20238	1117338	-3.573904E+007	1	3.57565E+007	-88.2093	-9.836519E-010	0.0006014	5
	40	275	30.04808	8168924	-4.302186E+007	1	4.379054E+007	-79.24876	-9.524352E-010	0.0006575	5
	41	279	23.91582	1.761698E+007	-4.679072E+007	1	4.999729E+007	-69.36835	-1.627565E-010	0.0006274	4
	42	283	18.60119	7232241	-6.504842E+007	1	6.544924E+007	-83.65577	-5.550949E-011	0.0006001	4
	43	286	15.02404	2.606262E+007	-8.029418E+007	1	8.44181E+007	-72.01713	-7.76499E-011	0.0005915	4
	44	290	12.01923	3.86029E+007	-9.307E+007	1	1.007582E+008	-67.47266	-8.89626E-011	0.0007376	4
	45	294	9.450605	6.75431E+007	-1.186146E+008	1	1.364972E+008	-60.34137	-6.892056E-011	0.000696	4
	46	298	7.512019	8.243238E+007	-1.302781E+008	1	1.541671E+008	-57.67676	-9.392107E-011	0.0006448	4
	47	302	5.978954	9.532046E+007	-1.542745E+008	1	1.813467E+008	-58.28963	-1.064017E-010	0.000649	4
	48	308	4.734848	1.675366E+008	-1.485922E+008	1	2.239379E+008	-41.57059	-8.1698E-012	0.0007219	3
	49	313	3.75601	1.99002E+008	-1.495796E+008	1	2.489495E+008	-36.93031	-7.892545E-012	0.0007595	3
	50	318	3.004808	1.857049E+008	-1.613682E+008	1	2.460203E+008	-40.98899	-9.404E-010	0.0006607	5
	51	327	2.372217	2.62403E+008	-1.396901E+008	1	2.972686E+008	-28.02859	-7.513577E-012	0.0006413	3
	52	333	1.878005	2.891837E+008	-1.280756E+008	1	3.162761E+008	-23.88791	-6.668042E-012	0.0007308	3
	53	342	1.512097	3.109667E+008	-1.165765E+008	1	3.321E+008	-20.55023	-6.235492E-012	0.0006545	3
	54	347	1.201923	3.310362E+008	-1.040642E+008	1	3.470076E+008	-17.451	-6.495424E-012	0.0007457	3
	55	358	0.956633	3.490288E+008	-9.317088E+007	1	3.612505E+008	-14.94621	-9.234333E-012	7.985895E-005	3
