EXPLAIN
TAG	EISPOT
TITLE	LABEL	Potentiostatic EIS	Test Identifier
DATE	LABEL	9/15/2020	Date
TIME	LABEL	0:45:43	Time
NOTES	NOTES	1	Notes...
	
PSTAT	PSTAT	REF3000-16137	Potentiostat
VDC	POTEN	0.00000E+000	T	DC Voltage (V)
FREQINIT	QUANT	3.00000E+005	Initial Freq. (Hz)
FREQFINAL	QUANT	1.00000E+000	Final Freq. (Hz)
PTSPERDEC	QUANT	1.00000E+001	Points/decade
VAC	QUANT	5.00000E+001	AC Voltage (mV rms)
AREA	QUANT	1.00000E+000	Sample Area (cm^2)
SPEED	SELECTOR	2	Optimize for:
ZGUESS	QUANT	1.00000E+003	Estimated Z (ohms)
EOC	QUANT	0	Open Circuit (V)
SEQUENCER	TOGGLE	TRUE	Run as Sequence
PSTATMODEL	IQUANT	5	Pstat Model
PSTATSECTION	LABEL	REF3000-16137	Pstat Section
PSTATSERIALNO	LABEL	16137	Pstat Serial Number
CTRLMODE	IQUANT	1	Control Mode
IESTAB	IQUANT	0	I/E Stability
CASPEED	IQUANT	1	Control Amp Speed
CONVENTION	IQUANT	1	Current Convention
ICHRANGE	IQUANT	2	Ich Range
ICHRANGEMODE	TOGGLE	F	Ich Auto Range
ICHOFFSETENABLE	TOGGLE	T	Ich Offset Enable
ICHOFFSET	QUANT	0	Ich Offset (V)
ICHFILTER	IQUANT	3	Ich Filter
VCHRANGE	IQUANT	2	Vch Range
VCHRANGEMODE	TOGGLE	F	Vch Auto Range
VCHOFFSETENABLE	TOGGLE	T	Vch Offset Enable
VCHOFFSET	QUANT	0	Vch Offset (V)
VCHFILTER	IQUANT	3	Vch Filter
ACHRANGE	IQUANT	2	Ach Range
ACHOFFSETENABLE	TOGGLE	F	Ach Offset Enable
ACHOFFSET	QUANT	0	Ach Offset (V)
ACHFILTER	IQUANT	3	Ach Filter
IERANGELOWERLIMIT	IQUANT	2	I/E Range Lower Limit
IERANGEMODE	TOGGLE	F	I/E AutoRange
IERANGE	IQUANT	11	I/E Range
POSFEEDENABLE	TOGGLE	F	Positive Feedback IR Comp
POSFEEDRESISTANCE	QUANT	0	Positive Feedback Resistance (ohm)
ACHSELECT	IQUANT	0	Ach Select
CABLEID	IQUANT	13	Cable ID
DCCALDATE	LABEL	7/31/2020	DC Calibration Date
ACCALDATE	LABEL	7/31/2020	AC Calibration Date
THERMOSELECT	IQUANT	1	Thermo Select
FRAMEWORKVERSION	QUANT	6.33	Framework Version
INSTRUMENTVERSION	LABEL	3.50	Instrument Version
COMPLIANCEVOLTAGE	IQUANT	0	Compliance Voltage
ZCURVE	TABLE
	Pt	Time	Freq	Zreal	Zimag	Zsig	Zmod	Zphz	Idc	Vdc	IERange
	#	s	Hz	ohm	ohm	V	ohm	°	A	V	#
	0	7	300046.9	48.6323	-1.707315	1	48.66226	-2.010635	6.591359E-006	-0.0014013	9
	1	10	238359.4	49.05222	-2.845474	1	49.13468	-3.319956	1.052052E-006	-0.0013458	9
	2	13	189328.1	49.63601	-4.046382	1	49.80067	-4.660509	1.412754E-005	-0.0006384	9
	3	16	150421.9	50.27108	-5.220372	1	50.5414	-5.928598	-4.126098E-005	0.0007444	9
	4	19	119484.4	51.06393	-6.380032	1	51.46096	-7.121747	-5.623007E-005	0.0016662	9
	5	21	94921.88	51.96888	-7.462348	1	52.50191	-8.171396	-1.300342E-005	0.0005805	9
	6	24	75421.88	52.82158	-8.797967	1	53.54926	-9.456381	2.001042E-005	-0.0005556	9
	7	26	59859.37	53.70571	-10.3103	1	54.68643	-10.86729	-1.583619E-005	0.0004614	9
	8	29	47578.12	54.68452	-12.02451	1	55.99095	-12.40133	3.525573E-006	0.000281	9
	9	31	37828.12	55.68131	-13.98527	1	57.41077	-14.09912	3.393511E-006	-0.0003311	9
	10	34	30046.88	56.70771	-16.30278	1	59.00462	-16.0393	1.904943E-005	-0.0002887	9
	11	36	23859.38	57.73244	-19.13373	1	60.82051	-18.33627	-3.43199E-006	-0.0001176	9
	12	39	18984.38	58.7507	-22.54145	1	62.92664	-20.99079	-1.578707E-005	0.0005922	9
	13	41	15046.87	59.84745	-26.95119	1	65.636	-24.24354	-8.695777E-006	0.0005994	9
	14	43	11953.13	60.94439	-32.35489	1	69.00041	-27.96348	9.455247E-006	-0.000452	9
	15	45	9515.62	62.16955	-39.0849	1	73.43488	-32.15685	1.615744E-005	-0.0001159	9
	16	48	7546.875	63.55281	-47.54292	1	79.36806	-36.79962	-1.412518E-005	0.0004288	9
	17	50	5928.309	65.23524	-58.75269	1	87.79245	-42.00709	-8.667811E-006	0.0006401	9
	18	52	4733.456	67.21204	-71.61068	1	98.2117	-46.81483	-1.51358E-005	0.0004358	9
	19	55	3796.875	69.36041	-87.25744	1	111.4663	-51.51902	-3.301685E-006	-0.0001176	9
	20	57	2987.132	72.38141	-108.1736	1	130.156	-56.21262	-1.305183E-005	0.0006926	9
	21	59	2390.625	75.57574	-132.3966	1	152.4485	-60.28105	-2.986242E-006	-0.0001305	9
	22	62	1884.191	80.19436	-164.3994	1	182.916	-63.99678	-1.481676E-005	0.0004117	9
	23	64	1516.544	84.8417	-200.2109	1	217.4455	-67.03464	-2.172323E-006	0.0004959	9
	24	66	1193.986	91.62743	-248.7735	1	265.111	-69.78041	-1.515139E-005	0.0006395	9
	25	69	946.5144	98.512	-307.8857	1	323.2619	-72.25726	-1.501162E-005	0.0003993	9
	26	71	751.7689	109.0747	-381.4655	1	396.7534	-74.04287	-1.552984E-005	0.000551	9
	27	73	597.4265	120.3987	-466.7188	1	481.9982	-75.53487	4.659894E-006	-0.0003526	8
	28	76	477.4305	134.5778	-572.7807	1	588.3782	-76.77788	4.268019E-007	0.0006615	8
	29	78	376.6741	153.0715	-711.8506	1	728.1224	-77.8643	4.239987E-007	0.0006548	8
	30	80	298.2954	175.7556	-881.9006	1	899.2434	-78.72909	4.236523E-007	0.000655	8
	31	83	237.7717	203.2463	-1086.146	1	1104.998	-79.40103	4.327056E-007	0.000647	8
	32	85	189.0121	238.0664	-1341.257	1	1362.221	-79.93511	4.271837E-007	0.0006478	8
	33	88	150.2404	282.0561	-1656.232	1	1680.078	-80.33526	4.389535E-007	0.0006422	8
	34	90	119.1737	339.0996	-2048.424	1	2076.302	-80.6004	3.997634E-007	0.0007016	8
	35	92	95.0169	408.7976	-2521.754	1	2554.674	-80.79197	4.305893E-007	0.000647	8
	36	95	75.60484	498.8236	-3109.222	1	3148.981	-80.88551	4.450356E-007	0.0006454	8
	37	97	54.50582	674.0357	-4189.162	1	4243.042	-80.85946	4.526716E-007	0.000644	8
	38	100	45.95588	795.5561	-4899.966	1	4964.129	-80.77795	5.335074E-008	0.0006237	7
	39	102	37.20238	971.579	-5926.128	1	6005.245	-80.68929	5.083761E-008	0.0006303	7
	40	105	30.04808	1192.055	-7189.173	1	7287.332	-80.5853	4.221425E-008	0.0006243	7
	41	107	23.91582	1471.49	-8805.879	1	8927.978	-80.51335	3.808836E-008	0.000623	7
	42	109	18.60119	1860.067	-11020.17	1	11176.05	-80.41949	5.016006E-008	0.0006252	7
	43	112	15.02404	2261.465	-13347.82	1	13538.04	-80.38393	5.50932E-008	0.0006389	7
	44	114	12.01923	2774.873	-16290.95	1	16525.59	-80.33346	4.711046E-008	0.000622	7
	45	117	9.450605	3458.703	-20200.28	1	20494.24	-80.284	4.787967E-008	0.0006178	7
	46	119	7.512019	4281.652	-24826.61	1	25193.12	-80.2149	5.303234E-008	0.0006078	7
	47	122	5.978954	5311.649	-30469.29	1	30928.81	-80.11112	5.290292E-008	0.0006279	7
	48	127	4.734848	6635.514	-37605.04	1	38185.98	-79.99301	5.426762E-008	0.0006032	7
	49	130	3.75601	8419.256	-46285.16	1	47044.66	-79.69064	8.239485E-009	0.0006827	6
	50	135	3.004808	10577.33	-56494.64	1	57476.29	-79.39545	6.765486E-009	0.0007298	6
	51	142	2.372217	13660.85	-69721.5	1	71047.21	-78.91422	6.636109E-009	0.0006471	6
	52	146	1.878005	17683.18	-86021.56	1	87820.3	-78.38371	7.828949E-009	0.0006652	6
	53	151	1.512097	22433.39	-104085.1	1	106475.2	-77.83714	6.853176E-009	0.0007329	6
	54	156	1.201923	29647.34	-127438.1	1	130841.3	-76.9036	7.577529E-009	0.000674	6
	55	162	0.956633	39032.52	-155190.6	1	160023.9	-75.88217	5.827615E-009	2.387633E-005	6
