EXPLAIN
TAG	EISPOT
TITLE	LABEL	Potentiostatic EIS	Test Identifier
DATE	LABEL	9/15/2020	Date
TIME	LABEL	9:48:22	Time
NOTES	NOTES	1	Notes...
	
PSTAT	PSTAT	REF3000-16137	Potentiostat
VDC	POTEN	0.00000E+000	T	DC Voltage (V)
FREQINIT	QUANT	3.00000E+005	Initial Freq. (Hz)
FREQFINAL	QUANT	1.00000E+000	Final Freq. (Hz)
PTSPERDEC	QUANT	1.00000E+001	Points/decade
VAC	QUANT	5.00000E+001	AC Voltage (mV rms)
AREA	QUANT	1.00000E+000	Sample Area (cm^2)
SPEED	SELECTOR	2	Optimize for:
ZGUESS	QUANT	1.00000E+003	Estimated Z (ohms)
EOC	QUANT	0	Open Circuit (V)
SEQUENCER	TOGGLE	TRUE	Run as Sequence
PSTATMODEL	IQUANT	5	Pstat Model
PSTATSECTION	LABEL	REF3000-16137	Pstat Section
PSTATSERIALNO	LABEL	16137	Pstat Serial Number
CTRLMODE	IQUANT	1	Control Mode
IESTAB	IQUANT	0	I/E Stability
CASPEED	IQUANT	1	Control Amp Speed
CONVENTION	IQUANT	1	Current Convention
ICHRANGE	IQUANT	2	Ich Range
ICHRANGEMODE	TOGGLE	F	Ich Auto Range
ICHOFFSETENABLE	TOGGLE	T	Ich Offset Enable
ICHOFFSET	QUANT	0	Ich Offset (V)
ICHFILTER	IQUANT	3	Ich Filter
VCHRANGE	IQUANT	2	Vch Range
VCHRANGEMODE	TOGGLE	F	Vch Auto Range
VCHOFFSETENABLE	TOGGLE	T	Vch Offset Enable
VCHOFFSET	QUANT	0	Vch Offset (V)
VCHFILTER	IQUANT	3	Vch Filter
ACHRANGE	IQUANT	2	Ach Range
ACHOFFSETENABLE	TOGGLE	F	Ach Offset Enable
ACHOFFSET	QUANT	0	Ach Offset (V)
ACHFILTER	IQUANT	3	Ach Filter
IERANGELOWERLIMIT	IQUANT	2	I/E Range Lower Limit
IERANGEMODE	TOGGLE	F	I/E AutoRange
IERANGE	IQUANT	11	I/E Range
POSFEEDENABLE	TOGGLE	F	Positive Feedback IR Comp
POSFEEDRESISTANCE	QUANT	0	Positive Feedback Resistance (ohm)
ACHSELECT	IQUANT	0	Ach Select
CABLEID	IQUANT	13	Cable ID
DCCALDATE	LABEL	7/31/2020	DC Calibration Date
ACCALDATE	LABEL	7/31/2020	AC Calibration Date
THERMOSELECT	IQUANT	1	Thermo Select
FRAMEWORKVERSION	QUANT	6.33	Framework Version
INSTRUMENTVERSION	LABEL	3.50	Instrument Version
COMPLIANCEVOLTAGE	IQUANT	0	Compliance Voltage
ZCURVE	TABLE
	Pt	Time	Freq	Zreal	Zimag	Zsig	Zmod	Zphz	Idc	Vdc	IERange
	#	s	Hz	ohm	ohm	V	ohm	°	A	V	#
	0	6	300046.9	50.69775	-1.795807	1	50.72954	-2.028674	2.823109E-005	-0.0004361	9
	1	10	238359.4	51.18093	-2.959028	1	51.2664	-3.308876	-3.027815E-005	-0.0004403	9
	2	13	189328.1	51.64849	-4.173957	1	51.81688	-4.6203	2.835611E-005	-0.0002101	9
	3	15	150421.9	52.30248	-5.293547	1	52.56968	-5.77924	-3.556893E-006	0.0007145	9
	4	18	119484.4	52.91506	-6.557559	1	53.31984	-7.064427	8.07186E-007	0.0007149	9
	5	20	94921.88	53.71075	-7.595059	1	54.24509	-8.048644	3.582505E-006	-0.0003877	9
	6	23	75421.88	54.49773	-8.966473	1	55.23043	-9.343128	1.997762E-005	-0.0004645	9
	7	25	59859.37	55.3149	-10.4866	1	56.30014	-10.73474	1.983814E-005	-0.0005324	9
	8	28	47578.12	56.19894	-12.19154	1	57.50613	-12.23983	1.69526E-005	-0.0001915	9
	9	30	37828.12	57.10409	-14.16613	1	58.83499	-13.93242	2.031026E-005	-0.0004863	9
	10	33	30046.88	58.03503	-16.47519	1	60.32824	-15.84838	-1.580134E-005	0.0005947	9
	11	36	23859.38	58.99411	-19.33277	1	62.08109	-18.14432	-1.726164E-005	0.0005657	9
	12	38	18984.38	59.94109	-22.79221	1	64.12815	-20.81898	-2.844929E-006	-0.0001634	9
	13	40	15046.87	60.94284	-27.21929	1	66.74519	-24.06727	-1.720477E-005	0.0005695	9
	14	42	11953.13	61.98751	-32.63496	1	70.0535	-27.76574	9.989189E-006	-0.0005219	9
	15	45	9515.62	63.13231	-39.31034	1	74.37063	-31.90912	4.239499E-006	-0.0003439	9
	16	47	7546.875	64.435	-47.91971	1	80.30048	-36.63784	1.556537E-005	-7.761E-005	9
	17	49	5928.309	66.0903	-59.0767	1	88.64527	-41.79284	1.112777E-005	7.963704E-005	9
	18	52	4733.456	67.95626	-71.99955	1	99.005	-46.6548	-1.453773E-005	0.0004061	9
	19	54	3796.875	70.10988	-87.60334	1	112.204	-51.32934	1.851881E-005	-0.0005239	9
	20	56	2987.132	73.01102	-108.6184	1	130.8761	-56.09182	2.0426E-005	-0.0004993	9
	21	59	2390.625	76.34376	-132.6413	1	153.0428	-60.07676	1.79255E-005	-0.0005402	9
	22	61	1884.191	80.38811	-164.4506	1	183.0471	-63.94931	2.868828E-006	-0.0003053	9
	23	63	1516.544	85.23601	-200.3658	1	217.7421	-66.955	9.185425E-006	-0.0004417	9
	24	66	1193.986	91.89489	-249.08	1	265.4911	-69.7491	2.920707E-006	-0.0002924	9
	25	68	946.5144	98.7539	-308.4021	1	323.8274	-72.24433	-8.742116E-006	0.0005902	9
	26	70	751.7689	107.0356	-379.7306	1	394.5275	-74.25832	1.68817E-005	-0.0001465	9
	27	73	597.4265	119.1154	-467.1455	1	482.0928	-75.69522	7.13461E-007	0.0012308	8
	28	75	477.4305	133.0287	-572.9504	1	588.1912	-76.92856	4.199012E-007	0.0006537	8
	29	77	376.6741	150.6408	-711.9853	1	727.747	-78.05362	4.287294E-007	0.0006577	8
	30	80	298.2954	172.0722	-881.9907	1	898.6191	-78.96053	4.364548E-007	0.0006533	8
	31	82	237.7717	197.8037	-1086.142	1	1104.007	-79.67864	4.340947E-007	0.000649	8
	32	84	189.0121	230.1021	-1341.316	1	1360.91	-80.26569	4.278771E-007	0.0006475	8
	33	87	150.2404	270.2188	-1656.506	1	1678.402	-80.73519	4.288503E-007	0.0006499	8
	34	89	119.1737	319.9061	-2050.262	1	2075.07	-81.13155	4.385787E-007	0.0006465	8
	35	92	95.0169	382.7214	-2525.447	1	2554.282	-81.38262	4.289935E-007	0.0006453	8
	36	94	75.60484	461.851	-3116.733	1	3150.767	-81.571	4.417969E-007	0.0006496	8
	37	97	54.50582	608.7512	-4210.567	1	4254.345	-81.77335	4.38162E-007	0.0006434	8
	38	99	45.95588	719.7797	-4938.648	1	4990.824	-81.70786	5.504298E-008	0.000627	7
	39	102	37.20238	873.8932	-5996.833	1	6060.173	-81.70889	5.359651E-008	0.0006187	7
	40	104	30.04808	1070.245	-7293.48	1	7371.585	-81.65199	4.608355E-008	0.0006296	7
	41	106	23.91582	1332.138	-8959.194	1	9057.69	-81.54268	4.364484E-008	0.0006181	7
	42	109	18.60119	1693.684	-11282.76	1	11409.18	-81.46293	5.690055E-008	0.0006173	7
	43	111	15.02404	2089.254	-13687.24	1	13845.77	-81.32122	5.890324E-008	0.0006242	7
	44	114	12.01923	2614.892	-16763.93	1	16966.65	-81.13426	5.320964E-008	0.0006211	7
	45	116	9.450605	3342.329	-20856.75	1	21122.86	-80.89566	5.418266E-008	0.0006249	7
	46	119	7.512019	4220.853	-25655.95	1	26000.83	-80.65753	5.705288E-008	0.0006394	7
	47	122	5.978954	5361.793	-31546.63	1	31999.04	-80.35396	5.747991E-008	0.0006239	7
	48	126	4.734848	6957.799	-38962.41	1	39578.79	-79.87501	5.734244E-008	0.0006314	7
	49	129	3.75601	9118.303	-47940.62	1	48800.06	-79.23098	1.172811E-008	0.0006658	6
	50	135	3.004808	11821.13	-58432.55	1	59616.3	-78.56319	1.045019E-008	0.0007041	6
	51	141	2.372217	15804.84	-71951.07	1	73666.48	-77.61111	1.015059E-008	0.00075	6
	52	145	1.878005	21454.69	-88252.26	1	90822.71	-76.3361	1.133992E-008	0.0006493	6
	53	150	1.512097	28299.29	-106122	1	109830.5	-75.06854	1.052515E-008	0.00075	6
	54	156	1.201923	38682.4	-128427.6	1	134126.7	-73.2377	1.118843E-008	0.0006656	6
	55	162	0.956633	52345.36	-154072.3	1	162721.5	-71.23504	8.650368E-009	3.06912E-005	6
