EXPLAIN
TAG	EISPOT
TITLE	LABEL	Potentiostatic EIS	Test Identifier
DATE	LABEL	9/15/2020	Date
TIME	LABEL	1:45:42	Time
NOTES	NOTES	1	Notes...
	
PSTAT	PSTAT	REF3000-16137	Potentiostat
VDC	POTEN	0.00000E+000	T	DC Voltage (V)
FREQINIT	QUANT	3.00000E+005	Initial Freq. (Hz)
FREQFINAL	QUANT	1.00000E+000	Final Freq. (Hz)
PTSPERDEC	QUANT	1.00000E+001	Points/decade
VAC	QUANT	5.00000E+001	AC Voltage (mV rms)
AREA	QUANT	1.00000E+000	Sample Area (cm^2)
SPEED	SELECTOR	2	Optimize for:
ZGUESS	QUANT	1.00000E+003	Estimated Z (ohms)
EOC	QUANT	0	Open Circuit (V)
SEQUENCER	TOGGLE	TRUE	Run as Sequence
PSTATMODEL	IQUANT	5	Pstat Model
PSTATSECTION	LABEL	REF3000-16137	Pstat Section
PSTATSERIALNO	LABEL	16137	Pstat Serial Number
CTRLMODE	IQUANT	1	Control Mode
IESTAB	IQUANT	0	I/E Stability
CASPEED	IQUANT	1	Control Amp Speed
CONVENTION	IQUANT	1	Current Convention
ICHRANGE	IQUANT	2	Ich Range
ICHRANGEMODE	TOGGLE	F	Ich Auto Range
ICHOFFSETENABLE	TOGGLE	T	Ich Offset Enable
ICHOFFSET	QUANT	0	Ich Offset (V)
ICHFILTER	IQUANT	3	Ich Filter
VCHRANGE	IQUANT	2	Vch Range
VCHRANGEMODE	TOGGLE	F	Vch Auto Range
VCHOFFSETENABLE	TOGGLE	T	Vch Offset Enable
VCHOFFSET	QUANT	0	Vch Offset (V)
VCHFILTER	IQUANT	3	Vch Filter
ACHRANGE	IQUANT	2	Ach Range
ACHOFFSETENABLE	TOGGLE	F	Ach Offset Enable
ACHOFFSET	QUANT	0	Ach Offset (V)
ACHFILTER	IQUANT	3	Ach Filter
IERANGELOWERLIMIT	IQUANT	2	I/E Range Lower Limit
IERANGEMODE	TOGGLE	F	I/E AutoRange
IERANGE	IQUANT	11	I/E Range
POSFEEDENABLE	TOGGLE	F	Positive Feedback IR Comp
POSFEEDRESISTANCE	QUANT	0	Positive Feedback Resistance (ohm)
ACHSELECT	IQUANT	0	Ach Select
CABLEID	IQUANT	13	Cable ID
DCCALDATE	LABEL	7/31/2020	DC Calibration Date
ACCALDATE	LABEL	7/31/2020	AC Calibration Date
THERMOSELECT	IQUANT	1	Thermo Select
FRAMEWORKVERSION	QUANT	6.33	Framework Version
INSTRUMENTVERSION	LABEL	3.50	Instrument Version
COMPLIANCEVOLTAGE	IQUANT	0	Compliance Voltage
ZCURVE	TABLE
	Pt	Time	Freq	Zreal	Zimag	Zsig	Zmod	Zphz	Idc	Vdc	IERange
	#	s	Hz	ohm	ohm	V	ohm	°	A	V	#
	0	7	300046.9	70.7289	-2.878549	1	70.78745	-2.330557	-5.12209E-005	0.0006103	9
	1	10	238359.4	71.17071	-4.431323	1	71.30853	-3.562825	-3.134986E-005	-0.0003891	9
	2	13	189328.1	72.03316	-5.812675	1	72.26731	-4.613453	1.575087E-005	-0.0005417	9
	3	16	150421.9	72.90154	-7.085969	1	73.24511	-5.551662	8.245186E-006	-0.0007053	9
	4	18	119484.4	73.91623	-8.650909	1	74.42075	-6.675339	1.356666E-005	0.000712	9
	5	21	94921.88	75.11501	-9.92632	1	75.76804	-7.527919	-1.799947E-005	0.0004754	9
	6	23	75421.88	76.27608	-11.6545	1	77.16132	-8.687245	-4.033615E-006	0.0006117	9
	7	26	59859.37	77.5833	-13.57735	1	78.76238	-9.92644	-1.626567E-005	0.0003664	9
	8	28	47578.12	78.97799	-15.64472	1	80.5126	-11.20464	1.672728E-005	-0.0006334	9
	9	31	37828.12	80.46294	-17.97688	1	82.44667	-12.59409	-1.603003E-005	0.0003837	9
	10	33	30046.88	81.99355	-20.72262	1	84.57168	-14.18362	-2.24849E-006	-0.000218	9
	11	36	23859.38	83.53374	-23.92823	1	86.8933	-15.98435	-1.832328E-005	0.0005574	9
	12	38	18984.38	85.03193	-27.88682	1	89.48801	-18.15727	-1.715782E-005	0.00073	9
	13	40	15046.87	86.58447	-33.00658	1	92.66231	-20.86718	1.897713E-005	-0.0007359	9
	14	43	11953.13	88.10921	-39.02311	1	96.3641	-23.8883	-1.093888E-005	0.0007895	9
	15	45	9515.62	89.82439	-46.72337	1	101.2497	-27.4818	3.90898E-006	0.0004108	9
	16	47	7546.875	91.66122	-56.44078	1	107.6445	-31.62286	-2.641739E-006	-0.0001961	9
	17	50	5928.309	93.75004	-69.28329	1	116.5729	-36.46519	1.78441E-005	-0.0001356	9
	18	52	4733.456	96.0382	-84.09954	1	127.6561	-41.20825	-8.981304E-006	1.655253E-005	9
	19	54	3796.875	98.7042	-102.3764	1	142.2092	-46.04626	1.905947E-005	-0.0005329	9
	20	57	2987.132	101.8888	-126.8621	1	162.7124	-51.23044	1.100348E-005	0.0001457	9
	21	59	2390.625	105.8125	-154.8374	1	187.5391	-55.65214	1.230228E-005	0.0001408	9
	22	61	1884.191	110.8265	-191.5924	1	221.3372	-59.95279	2.164996E-005	-0.0005271	9
	23	64	1516.544	116.5068	-234.0164	1	261.4145	-63.53323	2.070222E-005	-0.000609	9
	24	66	1193.986	124.1092	-290.8756	1	316.2463	-66.8933	-3.119264E-006	-0.0002011	9
	25	68	946.5144	133.6826	-359.0852	1	383.1621	-69.58038	1.601513E-005	-0.000612	9
	26	71	751.7689	142.3002	-442.8523	1	465.1532	-72.18641	-3.468634E-006	0.0023185	8
	27	73	597.4265	155.9185	-546.7917	1	568.5875	-74.08442	-4.508107E-006	0.0021074	8
	28	75	477.4305	171.7953	-671.1902	1	692.8275	-75.64302	3.364625E-007	0.0006431	8
	29	78	376.6741	192.2596	-834.6379	1	856.4953	-77.02814	3.499428E-007	0.0006434	8
	30	80	298.2954	217.0775	-1034.583	1	1057.112	-78.15003	3.376531E-007	0.0006536	8
	31	82	237.7717	246.8083	-1274.819	1	1298.491	-79.04294	3.4269E-007	0.0006472	8
	32	85	189.0121	283.8082	-1575.152	1	1600.516	-79.78613	3.53879E-007	0.0006483	8
	33	87	150.2404	329.5245	-1946.514	1	1974.209	-80.39152	3.469229E-007	0.000644	8
	34	90	119.1737	386.373	-2410.813	1	2441.578	-80.89483	3.503237E-007	0.0006482	8
	35	92	95.0169	455.8403	-2971.684	1	3006.442	-81.27911	3.490141E-007	0.0006498	8
	36	95	75.60484	542.4191	-3669.977	1	3709.845	-81.59261	3.522456E-007	0.000644	8
	37	97	54.50582	708.4943	-4978.966	1	5029.122	-81.90132	3.004889E-008	0.000613	7
	38	100	45.95588	816.8508	-5827.426	1	5884.398	-82.02064	3.927108E-008	0.0006195	7
	39	102	37.20238	978.062	-7083.198	1	7150.405	-82.1382	3.65949E-008	0.0006167	7
	40	104	30.04808	1177.075	-8621.157	1	8701.142	-82.22529	3.013898E-008	0.0006212	7
	41	107	23.91582	1437.336	-10634.71	1	10731.4	-82.30282	2.951006E-008	0.000622	7
	42	109	18.60119	1827.084	-13423.95	1	13547.72	-82.24931	3.619078E-008	0.0006305	7
	43	111	15.02404	2213.483	-16339.63	1	16488.88	-82.28527	4.074694E-008	0.0006306	7
	44	114	12.01923	2736.293	-20068.13	1	20253.82	-82.23559	3.377793E-008	0.0006189	7
	45	116	9.450605	3473.548	-25039.46	1	25279.24	-82.10217	3.292308E-008	0.0006244	7
	46	119	7.512019	4353.084	-30955.45	1	31260.02	-81.99532	4.004585E-008	0.0006146	7
	47	122	5.978954	5514.843	-38163.23	1	38559.64	-81.7773	3.720169E-008	0.0006298	7
	48	126	4.734848	7085.057	-47298.01	1	47825.72	-81.48066	5.778357E-009	0.000682	6
	49	129	3.75601	9095.236	-58411	1	59114.87	-81.14949	4.393348E-009	0.0006425	6
	50	135	3.004808	11609.54	-71496.33	1	72432.77	-80.77684	5.184237E-009	0.0006557	6
	51	141	2.372217	15263.68	-88434.55	1	89742.13	-80.20731	4.664347E-009	0.0006959	6
	52	145	1.878005	19966.68	-109305.2	1	111113.9	-79.64797	3.682972E-009	0.000665	6
	53	150	1.512097	25500.11	-132470.3	1	134902.3	-79.10403	4.557695E-009	0.0005779	6
	54	156	1.201923	33723.67	-162305.3	1	165771.9	-78.26215	3.658011E-009	0.0007226	6
	55	162	0.956633	44123.54	-197772.6	1	202634.9	-77.42315	3.772197E-009	2.600171E-005	6
