EXPLAIN
TAG	EISPOT
TITLE	LABEL	Potentiostatic EIS	Test Identifier
DATE	LABEL	9/15/2020	Date
TIME	LABEL	3:05:24	Time
NOTES	NOTES	1	Notes...
	
PSTAT	PSTAT	REF3000-16137	Potentiostat
VDC	POTEN	0.00000E+000	T	DC Voltage (V)
FREQINIT	QUANT	3.00000E+005	Initial Freq. (Hz)
FREQFINAL	QUANT	1.00000E+000	Final Freq. (Hz)
PTSPERDEC	QUANT	1.00000E+001	Points/decade
VAC	QUANT	5.00000E+001	AC Voltage (mV rms)
AREA	QUANT	1.00000E+000	Sample Area (cm^2)
SPEED	SELECTOR	2	Optimize for:
ZGUESS	QUANT	1.00000E+003	Estimated Z (ohms)
EOC	QUANT	0	Open Circuit (V)
SEQUENCER	TOGGLE	TRUE	Run as Sequence
PSTATMODEL	IQUANT	5	Pstat Model
PSTATSECTION	LABEL	REF3000-16137	Pstat Section
PSTATSERIALNO	LABEL	16137	Pstat Serial Number
CTRLMODE	IQUANT	1	Control Mode
IESTAB	IQUANT	0	I/E Stability
CASPEED	IQUANT	1	Control Amp Speed
CONVENTION	IQUANT	1	Current Convention
ICHRANGE	IQUANT	2	Ich Range
ICHRANGEMODE	TOGGLE	F	Ich Auto Range
ICHOFFSETENABLE	TOGGLE	T	Ich Offset Enable
ICHOFFSET	QUANT	0	Ich Offset (V)
ICHFILTER	IQUANT	3	Ich Filter
VCHRANGE	IQUANT	2	Vch Range
VCHRANGEMODE	TOGGLE	F	Vch Auto Range
VCHOFFSETENABLE	TOGGLE	T	Vch Offset Enable
VCHOFFSET	QUANT	0	Vch Offset (V)
VCHFILTER	IQUANT	3	Vch Filter
ACHRANGE	IQUANT	2	Ach Range
ACHOFFSETENABLE	TOGGLE	F	Ach Offset Enable
ACHOFFSET	QUANT	0	Ach Offset (V)
ACHFILTER	IQUANT	3	Ach Filter
IERANGELOWERLIMIT	IQUANT	2	I/E Range Lower Limit
IERANGEMODE	TOGGLE	F	I/E AutoRange
IERANGE	IQUANT	11	I/E Range
POSFEEDENABLE	TOGGLE	F	Positive Feedback IR Comp
POSFEEDRESISTANCE	QUANT	0	Positive Feedback Resistance (ohm)
ACHSELECT	IQUANT	0	Ach Select
CABLEID	IQUANT	13	Cable ID
DCCALDATE	LABEL	7/31/2020	DC Calibration Date
ACCALDATE	LABEL	7/31/2020	AC Calibration Date
THERMOSELECT	IQUANT	1	Thermo Select
FRAMEWORKVERSION	QUANT	6.33	Framework Version
INSTRUMENTVERSION	LABEL	3.50	Instrument Version
COMPLIANCEVOLTAGE	IQUANT	0	Compliance Voltage
ZCURVE	TABLE
	Pt	Time	Freq	Zreal	Zimag	Zsig	Zmod	Zphz	Idc	Vdc	IERange
	#	s	Hz	ohm	ohm	V	ohm	°	A	V	#
	0	7	300046.9	150.1226	-8.137614	1	150.343	-3.102765	-7.901064E-005	0.0019704	9
	1	11	238359.4	151.3951	-10.34366	1	151.7481	-3.908504	7.761602E-005	-0.0025609	9
	2	14	189328.1	152.4401	-11.52952	1	152.8755	-4.325222	5.746708E-006	0.001112	9
	3	17	150421.9	153.3229	-13.45977	1	153.9125	-5.016971	7.159378E-005	-0.0016532	9
	4	19	119484.4	155.3249	-15.24392	1	156.0712	-5.605178	1.684109E-005	-0.0008879	9
	5	22	94921.88	157.1831	-17.33111	1	158.1357	-6.292055	1.43384E-005	-0.0007511	9
	6	24	75421.88	159.2881	-19.82275	1	160.5168	-7.093752	2.654905E-005	-0.0006773	9
	7	27	59859.37	161.7389	-22.66791	1	163.3196	-7.978111	-2.250868E-005	0.0008563	9
	8	29	47578.12	164.231	-25.76726	1	166.2401	-8.916813	-2.103618E-005	0.0004684	9
	9	32	37828.12	167.2179	-29.13633	1	169.7373	-9.88409	2.531372E-005	-0.000763	9
	10	34	30046.88	170.3572	-33.19059	1	173.5604	-11.02479	-1.485223E-005	0.0002761	9
	11	37	23859.38	173.7013	-37.61541	1	177.7275	-12.21886	2.419256E-006	0.0005935	9
	12	39	18984.38	176.9932	-42.74842	1	182.0825	-13.57836	5.886553E-006	-0.0005663	9
	13	41	15046.87	180.5808	-48.97158	1	187.1033	-15.17306	-2.166801E-005	0.0008621	9
	14	44	11953.13	183.5902	-56.91573	1	192.2102	-17.22422	-2.253223E-005	0.0008172	9
	15	46	9515.62	187.0536	-65.97954	1	198.3491	-19.4293	2.655253E-006	0.0005023	9
	16	48	7546.875	190.9758	-77.80296	1	206.216	-22.16583	-1.485614E-005	0.0008831	9
	17	51	5928.309	194.1628	-93.64581	1	215.5661	-25.74828	-2.244997E-005	0.0006689	9
	18	53	4733.456	198.6125	-111.4762	1	227.7584	-29.3044	-1.031174E-005	-4.152485E-005	9
	19	55	3796.875	201.8672	-134.3849	1	242.507	-33.65209	1.249953E-005	0.0001663	9
	20	58	2987.132	206.571	-164.8313	1	264.2744	-38.58776	7.329242E-006	-0.0005999	9
	21	60	2390.625	211.9937	-200.5501	1	291.8247	-43.41108	2.373621E-005	-0.0002801	9
	22	62	1884.191	216.7493	-248.2446	1	329.5537	-48.87488	1.969725E-005	-0.0007539	9
	23	65	1516.544	224.9569	-301.3411	1	376.0479	-53.25795	-1.73092E-005	0.0003617	9
	24	67	1193.986	234.3777	-374.5541	1	441.8412	-57.96368	-7.823847E-006	0.0008389	9
	25	70	946.5144	245.8787	-459.6216	1	521.2566	-61.85505	1.350362E-006	0.0022195	8
	26	72	751.7689	259.3054	-567.3594	1	623.8076	-65.43774	6.833835E-006	-0.0001142	8
	27	74	597.4265	276.0442	-699.6121	1	752.102	-68.46742	-7.527247E-006	0.002023	8
	28	77	477.4305	295.622	-861.1661	1	910.494	-71.05362	1.355765E-007	0.0006415	8
	29	79	376.6741	321.7932	-1070.953	1	1118.254	-73.27586	1.546559E-007	0.0006488	8
	30	81	298.2954	353.691	-1327.561	1	1373.869	-75.0817	1.548728E-007	0.0006468	8
	31	84	237.7717	391.809	-1635.811	1	1682.079	-76.53028	1.5256E-007	0.0006446	8
	32	86	189.0121	439.178	-2021.181	1	2068.344	-77.74088	1.370502E-007	0.0006451	8
	33	88	150.2404	497.8459	-2497.464	1	2546.601	-78.7264	1.050212E-007	0.0007007	8
	34	91	119.1737	570.6252	-3093.68	1	3145.865	-79.54932	1.573585E-007	0.0006462	8
	35	93	95.0169	658.0139	-3812.567	1	3868.934	-80.20775	1.435847E-007	0.0006545	8
	36	96	75.60484	769.7292	-4718.123	1	4780.498	-80.73421	8.066198E-009	0.0006242	7
	37	98	54.50582	973.913	-6384.45	1	6458.306	-81.32671	5.34668E-009	0.0006239	7
	38	101	45.95588	1104.974	-7474.083	1	7555.322	-81.59027	1.089046E-008	0.0006288	7
	39	103	37.20238	1302.779	-9086.221	1	9179.142	-81.84056	5.564504E-009	0.0006747	7
	40	105	30.04808	1548.109	-11069.77	1	11177.5	-82.03881	7.916971E-009	0.0006195	7
	41	108	23.91582	1870.53	-13666.36	1	13793.77	-82.20629	9.542125E-009	0.0006148	7
	42	110	18.60119	2328.92	-17255.32	1	17411.78	-82.31334	9.306962E-009	0.0006325	7
	43	112	15.02404	2800.346	-21008.05	1	21193.87	-82.4073	9.998398E-009	0.0006214	7
	44	115	12.01923	3417.991	-25796.26	1	26021.71	-82.4523	9.191068E-009	0.0006248	7
	45	117	9.450605	4236.179	-32200.65	1	32478.1	-82.50545	8.817842E-009	0.0006223	7
	46	120	7.512019	5231.054	-39786.5	1	40128.91	-82.50982	1.043116E-008	0.0006119	7
	47	122	5.978954	6494.932	-49111.51	1	49539.13	-82.46642	1.567173E-009	0.0006672	6
	48	126	4.734848	8092.006	-60895.68	1	61430.97	-82.4307	1.419136E-009	0.0006528	6
	49	129	3.75601	10054.65	-75395.86	1	76063.34	-82.40396	1.305689E-009	0.0006785	6
	50	134	3.004808	12472.01	-92585.66	1	93421.92	-82.328	1.731842E-009	0.0006242	6
	51	141	2.372217	15706.72	-115156.2	1	116222.4	-82.23308	1.304061E-009	0.000594	6
	52	145	1.878005	20002.65	-142704.6	1	144099.7	-82.02094	1.233245E-009	0.0006797	6
	53	150	1.512097	25221.63	-173895.3	1	175714.8	-81.74741	1.078923E-009	0.0005731	6
	54	155	1.201923	31894.88	-214621.8	1	216978.8	-81.54716	1.125692E-009	0.0006936	6
	55	161	0.956633	40484.96	-263984.7	1	267071	-81.28099	8.468432E-010	2.799341E-005	6
