EXPLAIN
TAG	EISPOT
TITLE	LABEL	Potentiostatic EIS	Test Identifier
DATE	LABEL	9/15/2020	Date
TIME	LABEL	1:57:07	Time
NOTES	NOTES	1	Notes...
	
PSTAT	PSTAT	REF3000-16137	Potentiostat
VDC	POTEN	0.00000E+000	T	DC Voltage (V)
FREQINIT	QUANT	3.00000E+005	Initial Freq. (Hz)
FREQFINAL	QUANT	1.00000E+000	Final Freq. (Hz)
PTSPERDEC	QUANT	1.00000E+001	Points/decade
VAC	QUANT	5.00000E+001	AC Voltage (mV rms)
AREA	QUANT	1.00000E+000	Sample Area (cm^2)
SPEED	SELECTOR	2	Optimize for:
ZGUESS	QUANT	1.00000E+003	Estimated Z (ohms)
EOC	QUANT	0	Open Circuit (V)
SEQUENCER	TOGGLE	TRUE	Run as Sequence
PSTATMODEL	IQUANT	5	Pstat Model
PSTATSECTION	LABEL	REF3000-16137	Pstat Section
PSTATSERIALNO	LABEL	16137	Pstat Serial Number
CTRLMODE	IQUANT	1	Control Mode
IESTAB	IQUANT	0	I/E Stability
CASPEED	IQUANT	1	Control Amp Speed
CONVENTION	IQUANT	1	Current Convention
ICHRANGE	IQUANT	2	Ich Range
ICHRANGEMODE	TOGGLE	F	Ich Auto Range
ICHOFFSETENABLE	TOGGLE	T	Ich Offset Enable
ICHOFFSET	QUANT	0	Ich Offset (V)
ICHFILTER	IQUANT	3	Ich Filter
VCHRANGE	IQUANT	2	Vch Range
VCHRANGEMODE	TOGGLE	F	Vch Auto Range
VCHOFFSETENABLE	TOGGLE	T	Vch Offset Enable
VCHOFFSET	QUANT	0	Vch Offset (V)
VCHFILTER	IQUANT	3	Vch Filter
ACHRANGE	IQUANT	2	Ach Range
ACHOFFSETENABLE	TOGGLE	F	Ach Offset Enable
ACHOFFSET	QUANT	0	Ach Offset (V)
ACHFILTER	IQUANT	3	Ach Filter
IERANGELOWERLIMIT	IQUANT	2	I/E Range Lower Limit
IERANGEMODE	TOGGLE	F	I/E AutoRange
IERANGE	IQUANT	11	I/E Range
POSFEEDENABLE	TOGGLE	F	Positive Feedback IR Comp
POSFEEDRESISTANCE	QUANT	0	Positive Feedback Resistance (ohm)
ACHSELECT	IQUANT	0	Ach Select
CABLEID	IQUANT	13	Cable ID
DCCALDATE	LABEL	7/31/2020	DC Calibration Date
ACCALDATE	LABEL	7/31/2020	AC Calibration Date
THERMOSELECT	IQUANT	1	Thermo Select
FRAMEWORKVERSION	QUANT	6.33	Framework Version
INSTRUMENTVERSION	LABEL	3.50	Instrument Version
COMPLIANCEVOLTAGE	IQUANT	0	Compliance Voltage
ZCURVE	TABLE
	Pt	Time	Freq	Zreal	Zimag	Zsig	Zmod	Zphz	Idc	Vdc	IERange
	#	s	Hz	ohm	ohm	V	ohm	°	A	V	#
	0	7	300046.9	77.00468	-3.466159	1	77.08265	-2.577276	6.619373E-005	-0.001897	9
	1	10	238359.4	77.7757	-4.811866	1	77.92441	-3.540292	8.966688E-006	-0.0011085	9
	2	14	189328.1	78.55532	-6.271013	1	78.80523	-4.564201	-7.415872E-005	0.0025711	9
	3	16	150421.9	79.42321	-7.385659	1	79.76587	-5.312725	-5.146844E-008	-0.0011593	9
	4	19	119484.4	80.56076	-9.233824	1	81.08822	-6.538672	4.133319E-006	-0.0011283	9
	5	21	94921.88	81.81225	-10.59616	1	82.49559	-7.379753	1.718907E-005	-0.0007045	9
	6	24	75421.88	83.04359	-12.43381	1	83.96927	-8.51543	1.761794E-005	-0.0006806	9
	7	26	59859.37	84.46172	-14.39753	1	85.68005	-9.67378	-1.750549E-005	0.00048	9
	8	29	47578.12	86.01534	-16.54445	1	87.59199	-10.88748	-1.903123E-005	0.0006419	9
	9	31	37828.12	87.62506	-19.04051	1	89.66991	-12.25952	3.133377E-006	0.000378	9
	10	34	30046.88	89.26354	-21.84409	1	91.89747	-13.75087	2.237994E-005	-0.0004611	9
	11	36	23859.38	90.94989	-25.19707	1	94.37571	-15.48504	2.424952E-005	-0.0007337	9
	12	39	18984.38	92.62816	-29.30633	1	97.1537	-17.55669	-1.820446E-005	0.0004637	9
	13	41	15046.87	94.31477	-34.48424	1	100.4213	-20.08389	1.092403E-005	-0.0005508	9
	14	43	11953.13	96.0353	-40.80022	1	104.3428	-23.01803	2.374995E-005	-0.0005633	9
	15	46	9515.62	97.8163	-48.64734	1	109.2456	-26.4427	1.16821E-005	-0.0005818	9
	16	48	7546.875	99.838	-58.64974	1	115.7904	-30.43208	2.143178E-005	-0.0002976	9
	17	50	5928.309	101.9495	-71.86436	1	124.7324	-35.18008	1.218362E-005	0.0001172	9
	18	53	4733.456	104.3736	-87.24274	1	136.0336	-39.89122	2.257075E-005	-0.0005459	9
	19	55	3796.875	106.9647	-105.6881	1	150.371	-44.65607	2.326069E-005	-0.0004697	9
	20	57	2987.132	110.5441	-131.0979	1	171.4837	-49.86182	3.819533E-006	0.0003932	9
	21	60	2390.625	114.749	-159.7821	1	196.7171	-54.31564	-1.517439E-005	0.0008046	9
	22	62	1884.191	119.3419	-198.508	1	231.6202	-58.98595	-1.543265E-005	0.0008023	9
	23	64	1516.544	125.2887	-241.6853	1	272.2297	-62.59795	1.673137E-005	-0.0006278	9
	24	67	1193.986	132.8985	-300.4388	1	328.5201	-66.13789	2.170051E-005	-0.0006515	9
	25	69	946.5144	141.2097	-371.4287	1	397.3657	-69.1842	1.280927E-005	0.00014	9
	26	71	751.7689	152.6879	-456.9299	1	481.7661	-71.52242	-4.260099E-006	0.0023134	8
	27	74	597.4265	166.3427	-564.3049	1	588.311	-73.57582	5.330026E-006	-0.0012354	8
	28	76	477.4305	182.4574	-692.9418	1	716.5606	-75.24837	3.298137E-007	0.0006434	8
	29	78	376.6741	203.5275	-861.706	1	885.4155	-76.71078	3.15527E-007	0.0006416	8
	30	81	298.2954	229.0502	-1068.134	1	1092.416	-77.89681	3.277496E-007	0.00064	8
	31	83	237.7717	259.6277	-1316.245	1	1341.606	-78.84172	3.289186E-007	0.0006427	8
	32	85	189.0121	297.685	-1626.426	1	1653.445	-79.62795	3.162843E-007	0.0006451	8
	33	88	150.2404	344.6666	-2009.986	1	2039.323	-80.26972	3.246262E-007	0.0006403	8
	34	90	119.1737	403.6801	-2489.682	1	2522.196	-80.79014	3.341336E-007	0.0006449	8
	35	93	95.0169	474.8207	-3068.914	1	3105.429	-81.20496	3.249183E-007	0.0006415	8
	36	95	75.60484	563.5287	-3789.967	1	3831.633	-81.54268	3.370796E-007	0.0006365	8
	37	98	54.50582	734.2405	-5138.911	1	5191.1	-81.86869	2.780657E-008	0.0006117	7
	38	100	45.95588	843.4176	-6017.583	1	6076.402	-82.02146	3.505614E-008	0.0006248	7
	39	103	37.20238	1009.453	-7315.21	1	7384.531	-82.14317	3.236917E-008	0.0006229	7
	40	105	30.04808	1212.346	-8902.671	1	8984.839	-82.24529	2.760567E-008	0.0006185	7
	41	107	23.91582	1483.822	-10997.16	1	11096.81	-82.31562	2.932571E-008	0.0006146	7
	42	110	18.60119	1864.661	-13862.13	1	13986.98	-82.33886	3.147578E-008	0.0006152	7
	43	112	15.02404	2269.344	-16879.9	1	17031.76	-82.34303	3.426363E-008	0.000615	7
	44	114	12.01923	2792.938	-20726.49	1	20913.82	-82.3255	3.261513E-008	0.0006203	7
	45	117	9.450605	3502.615	-25881.55	1	26117.48	-82.29284	3.227169E-008	0.0006214	7
	46	119	7.512019	4375.648	-31977.18	1	32275.17	-82.20823	3.712447E-008	0.0006206	7
	47	122	5.978954	5490.156	-39438.71	1	39819.02	-82.07494	3.466252E-008	0.0006199	7
	48	127	4.734848	7022.293	-48893.38	1	49395.09	-81.82681	5.380378E-009	0.0006751	6
	49	130	3.75601	8948.435	-60453.82	1	61112.52	-81.58016	3.578901E-009	0.0006975	6
	50	135	3.004808	11360.09	-74046.41	1	74912.77	-81.27777	4.780103E-009	0.0006573	6
	51	142	2.372217	14857.14	-91779.02	1	92973.77	-80.80476	4.30183E-009	0.000709	6
	52	146	1.878005	19176.94	-113594.9	1	115202.3	-80.41776	3.379583E-009	0.0006429	6
	53	151	1.512097	24514.94	-137648.9	1	139814.9	-79.90164	4.3444E-009	0.0006771	6
	54	156	1.201923	31986.37	-169463	1	172455.4	-79.3111	3.733239E-009	0.0006299	6
	55	162	0.956633	41867.89	-207363.7	1	211548.2	-78.58512	3.334622E-009	2.2326E-005	6
