EXPLAIN
TAG	EISPOT
TITLE	LABEL	Potentiostatic EIS	Test Identifier
DATE	LABEL	9/15/2020	Date
TIME	LABEL	0:57:08	Time
NOTES	NOTES	1	Notes...
	
PSTAT	PSTAT	REF3000-16137	Potentiostat
VDC	POTEN	0.00000E+000	T	DC Voltage (V)
FREQINIT	QUANT	3.00000E+005	Initial Freq. (Hz)
FREQFINAL	QUANT	1.00000E+000	Final Freq. (Hz)
PTSPERDEC	QUANT	1.00000E+001	Points/decade
VAC	QUANT	5.00000E+001	AC Voltage (mV rms)
AREA	QUANT	1.00000E+000	Sample Area (cm^2)
SPEED	SELECTOR	2	Optimize for:
ZGUESS	QUANT	1.00000E+003	Estimated Z (ohms)
EOC	QUANT	0	Open Circuit (V)
SEQUENCER	TOGGLE	TRUE	Run as Sequence
PSTATMODEL	IQUANT	5	Pstat Model
PSTATSECTION	LABEL	REF3000-16137	Pstat Section
PSTATSERIALNO	LABEL	16137	Pstat Serial Number
CTRLMODE	IQUANT	1	Control Mode
IESTAB	IQUANT	0	I/E Stability
CASPEED	IQUANT	1	Control Amp Speed
CONVENTION	IQUANT	1	Current Convention
ICHRANGE	IQUANT	2	Ich Range
ICHRANGEMODE	TOGGLE	F	Ich Auto Range
ICHOFFSETENABLE	TOGGLE	T	Ich Offset Enable
ICHOFFSET	QUANT	0	Ich Offset (V)
ICHFILTER	IQUANT	3	Ich Filter
VCHRANGE	IQUANT	2	Vch Range
VCHRANGEMODE	TOGGLE	F	Vch Auto Range
VCHOFFSETENABLE	TOGGLE	T	Vch Offset Enable
VCHOFFSET	QUANT	0	Vch Offset (V)
VCHFILTER	IQUANT	3	Vch Filter
ACHRANGE	IQUANT	2	Ach Range
ACHOFFSETENABLE	TOGGLE	F	Ach Offset Enable
ACHOFFSET	QUANT	0	Ach Offset (V)
ACHFILTER	IQUANT	3	Ach Filter
IERANGELOWERLIMIT	IQUANT	2	I/E Range Lower Limit
IERANGEMODE	TOGGLE	F	I/E AutoRange
IERANGE	IQUANT	11	I/E Range
POSFEEDENABLE	TOGGLE	F	Positive Feedback IR Comp
POSFEEDRESISTANCE	QUANT	0	Positive Feedback Resistance (ohm)
ACHSELECT	IQUANT	0	Ach Select
CABLEID	IQUANT	13	Cable ID
DCCALDATE	LABEL	7/31/2020	DC Calibration Date
ACCALDATE	LABEL	7/31/2020	AC Calibration Date
THERMOSELECT	IQUANT	1	Thermo Select
FRAMEWORKVERSION	QUANT	6.33	Framework Version
INSTRUMENTVERSION	LABEL	3.50	Instrument Version
COMPLIANCEVOLTAGE	IQUANT	0	Compliance Voltage
ZCURVE	TABLE
	Pt	Time	Freq	Zreal	Zimag	Zsig	Zmod	Zphz	Idc	Vdc	IERange
	#	s	Hz	ohm	ohm	V	ohm	°	A	V	#
	0	6	300046.9	51.73447	-1.747015	1	51.76395	-1.93408	-4.520393E-005	0.0004361	9
	1	10	238359.4	52.15602	-3.099859	1	52.24806	-3.401335	-6.431533E-005	0.0018744	9
	2	13	189328.1	52.78837	-4.312346	1	52.96421	-4.670192	-4.142851E-005	0.000695	9
	3	15	150421.9	53.53516	-5.521505	1	53.81914	-5.888547	-1.1538E-005	-0.0006881	9
	4	18	119484.4	54.30275	-6.755785	1	54.72138	-7.091708	8.704534E-006	-0.0009754	9
	5	20	94921.88	55.2126	-7.805568	1	55.76162	-8.046747	1.799442E-005	-0.0001946	9
	6	23	75421.88	56.13102	-9.249659	1	56.88802	-9.357501	1.109014E-005	-9.837768E-006	9
	7	25	59859.37	57.07981	-10.82109	1	58.09648	-10.73465	1.916052E-005	-0.0005865	9
	8	28	47578.12	58.10209	-12.57553	1	59.44743	-12.21263	2.154707E-005	-0.0004197	9
	9	30	37828.12	59.16775	-14.60351	1	60.94329	-13.86438	-1.518728E-005	0.000537	9
	10	33	30046.88	60.28111	-16.95795	1	62.62095	-15.71206	3.614901E-006	-0.0003451	9
	11	35	23859.38	61.35429	-19.86291	1	64.48941	-17.93891	-1.554085E-005	0.0006864	9
	12	38	18984.38	62.48152	-23.41491	1	66.72479	-20.54345	3.708451E-006	0.0002967	9
	13	40	15046.87	63.61266	-27.90495	1	69.46407	-23.6856	1.48395E-005	-0.0005252	9
	14	42	11953.13	64.7859	-33.45316	1	72.91315	-27.31024	-1.424525E-005	0.0004248	9
	15	45	9515.62	66.07796	-40.36781	1	77.43291	-31.42125	2.105485E-005	-0.0002847	9
	16	47	7546.875	67.56039	-49.0532	1	83.49025	-35.98207	-5.708052E-006	-3.292337E-005	9
	17	49	5928.309	69.30534	-60.50006	1	91.99722	-41.11931	1.021659E-005	-0.0004768	9
	18	52	4733.456	71.29425	-73.75625	1	102.581	-45.97241	-1.698659E-005	0.0005969	9
	19	54	3796.875	73.52421	-89.79954	1	116.0593	-50.69078	2.04974E-005	-0.0002561	9
	20	56	2987.132	76.5263	-111.4414	1	135.1868	-55.5228	2.033381E-005	-0.0002786	9
	21	59	2390.625	79.76359	-136.0854	1	157.7386	-59.6242	1.488488E-005	-0.0004377	9
	22	61	1884.191	84.43899	-168.7723	1	188.7168	-63.4206	-2.688531E-006	-0.0001452	9
	23	63	1516.544	89.2858	-205.7767	1	224.3123	-66.54414	-3.580959E-006	-0.000125	9
	24	66	1193.986	95.9332	-256.3965	1	273.756	-69.48619	4.076084E-006	0.0003273	9
	25	68	946.5144	103.7534	-316.5906	1	333.1582	-71.85495	2.058737E-005	-0.0002492	9
	26	70	751.7689	114.8243	-390.0667	1	406.616	-73.59711	-1.358456E-005	0.0002571	9
	27	73	597.4265	125.7705	-480.0808	1	496.282	-75.31969	-3.304576E-006	0.0013582	8
	28	75	477.4305	140.0012	-589.9697	1	606.3535	-76.6505	4.488921E-007	0.0006441	8
	29	78	376.6741	158.7634	-733.278	1	750.2682	-77.78335	4.364368E-007	0.0006437	8
	30	80	298.2954	181.6558	-908.5289	1	926.5115	-78.6931	4.415066E-007	0.0006432	8
	31	82	237.7717	209.2906	-1119.057	1	1138.459	-79.40668	4.509514E-007	0.0006431	8
	32	85	189.0121	244.1177	-1382.177	1	1403.57	-79.98382	4.505608E-007	0.000645	8
	33	87	150.2404	287.785	-1707.264	1	1731.349	-80.43188	4.460946E-007	0.0006476	8
	34	89	119.1737	342.805	-2112.711	1	2140.342	-80.7836	4.4848E-007	0.000649	8
	35	92	95.0169	412.3665	-2602.13	1	2634.602	-80.99507	4.580146E-007	0.0006411	8
	36	94	75.60484	501.0155	-3210.578	1	3249.435	-81.13044	4.482042E-007	0.0007025	8
	37	97	54.50582	673.7637	-4336.192	1	4388.225	-81.16793	4.666754E-007	0.0006508	8
	38	99	45.95588	794.5397	-5075.728	1	5137.539	-81.10329	5.317101E-008	0.0006242	7
	39	102	37.20238	972.237	-6147.446	1	6223.853	-81.01293	5.027507E-008	0.0006369	7
	40	104	30.04808	1196.925	-7465.98	1	7561.315	-80.89201	4.32833E-008	0.0006272	7
	41	107	23.91582	1493.427	-9150.141	1	9271.213	-80.73029	4.055878E-008	0.0006208	7
	42	109	18.60119	1900.337	-11465.75	1	11622.17	-80.58933	4.939442E-008	0.0006284	7
	43	111	15.02404	2319.406	-13883.04	1	14075.46	-80.51533	5.455083E-008	0.0006341	7
	44	114	12.01923	2854.546	-16942.35	1	17181.14	-80.43629	4.753755E-008	0.0006277	7
	45	116	9.450605	3565.551	-21000.57	1	21301.11	-80.36401	4.840511E-008	0.0006379	7
	46	119	7.512019	4404.748	-25802.63	1	26175.9	-80.31246	5.38735E-008	0.0006169	7
	47	122	5.978954	5422.671	-31658.53	1	32119.58	-80.28034	5.300638E-008	0.0006182	7
	48	126	4.734848	6783.253	-39023.82	1	39608.97	-80.13918	5.432303E-008	0.0005906	7
	49	129	3.75601	8564.799	-48029.84	1	48787.52	-79.88915	6.995166E-009	0.000689	6
	50	135	3.004808	10661.81	-58624.59	1	59586.21	-79.69251	6.631601E-009	0.000651	6
	51	141	2.372217	13671.7	-72550	1	73826.95	-79.32803	6.20896E-009	0.0005903	6
	52	145	1.878005	17429.59	-89399.52	1	91082.74	-78.96784	7.072676E-009	0.0006749	6
	53	150	1.512097	22166.23	-108085.6	1	110335.1	-78.41045	5.892539E-009	0.0006154	6
	54	155	1.201923	28792.84	-132726.1	1	135813.3	-77.76024	6.581626E-009	0.0006927	6
	55	162	0.956633	37727.96	-162050.8	1	166384.7	-76.89412	5.65483E-009	2.64629E-005	6
