EXPLAIN
TAG	EISPOT
TITLE	LABEL	Potentiostatic EIS	Test Identifier
DATE	LABEL	9/15/2020	Date
TIME	LABEL	4:45:53	Time
NOTES	NOTES	1	Notes...
	
PSTAT	PSTAT	REF3000-16137	Potentiostat
VDC	POTEN	0.00000E+000	T	DC Voltage (V)
FREQINIT	QUANT	3.00000E+005	Initial Freq. (Hz)
FREQFINAL	QUANT	1.00000E+000	Final Freq. (Hz)
PTSPERDEC	QUANT	1.00000E+001	Points/decade
VAC	QUANT	5.00000E+001	AC Voltage (mV rms)
AREA	QUANT	1.00000E+000	Sample Area (cm^2)
SPEED	SELECTOR	2	Optimize for:
ZGUESS	QUANT	1.00000E+003	Estimated Z (ohms)
EOC	QUANT	0	Open Circuit (V)
SEQUENCER	TOGGLE	TRUE	Run as Sequence
PSTATMODEL	IQUANT	5	Pstat Model
PSTATSECTION	LABEL	REF3000-16137	Pstat Section
PSTATSERIALNO	LABEL	16137	Pstat Serial Number
CTRLMODE	IQUANT	1	Control Mode
IESTAB	IQUANT	0	I/E Stability
CASPEED	IQUANT	1	Control Amp Speed
CONVENTION	IQUANT	1	Current Convention
ICHRANGE	IQUANT	2	Ich Range
ICHRANGEMODE	TOGGLE	F	Ich Auto Range
ICHOFFSETENABLE	TOGGLE	T	Ich Offset Enable
ICHOFFSET	QUANT	0	Ich Offset (V)
ICHFILTER	IQUANT	3	Ich Filter
VCHRANGE	IQUANT	2	Vch Range
VCHRANGEMODE	TOGGLE	F	Vch Auto Range
VCHOFFSETENABLE	TOGGLE	T	Vch Offset Enable
VCHOFFSET	QUANT	0	Vch Offset (V)
VCHFILTER	IQUANT	3	Vch Filter
ACHRANGE	IQUANT	2	Ach Range
ACHOFFSETENABLE	TOGGLE	F	Ach Offset Enable
ACHOFFSET	QUANT	0	Ach Offset (V)
ACHFILTER	IQUANT	3	Ach Filter
IERANGELOWERLIMIT	IQUANT	2	I/E Range Lower Limit
IERANGEMODE	TOGGLE	F	I/E AutoRange
IERANGE	IQUANT	11	I/E Range
POSFEEDENABLE	TOGGLE	F	Positive Feedback IR Comp
POSFEEDRESISTANCE	QUANT	0	Positive Feedback Resistance (ohm)
ACHSELECT	IQUANT	0	Ach Select
CABLEID	IQUANT	13	Cable ID
DCCALDATE	LABEL	7/31/2020	DC Calibration Date
ACCALDATE	LABEL	7/31/2020	AC Calibration Date
THERMOSELECT	IQUANT	1	Thermo Select
FRAMEWORKVERSION	QUANT	6.33	Framework Version
INSTRUMENTVERSION	LABEL	3.50	Instrument Version
COMPLIANCEVOLTAGE	IQUANT	0	Compliance Voltage
ZCURVE	TABLE
	Pt	Time	Freq	Zreal	Zimag	Zsig	Zmod	Zphz	Idc	Vdc	IERange
	#	s	Hz	ohm	ohm	V	ohm	°	A	V	#
	0	21	300046.9	853.8723	-158.3808	1	868.4367	-10.50811	-1.946449E-005	0.0010964	9
	1	39	238359.4	868.4515	-139.8272	1	879.636	-9.14655	2.99336E-005	-0.0019873	9
	2	56	189328.1	880.5862	-121.1671	1	888.8833	-7.8346	2.488854E-005	-0.0018223	9
	3	65	150421.9	892.2003	-111.8447	1	899.1833	-7.145229	2.059871E-005	-0.0008381	9
	4	74	119484.4	905.073	-71.9212	1	907.9261	-4.543435	-2.435433E-005	-0.0029952	8
	5	80	94921.88	909.2198	-69.29146	1	911.8564	-4.358076	1.475775E-005	-0.0066482	8
	6	83	75421.88	915.986	-69.15916	1	918.5931	-4.317778	-1.308024E-005	0.0080914	8
	7	86	59859.37	922.7608	-74.24773	1	925.743	-4.600257	-1.349709E-005	0.0013737	8
	8	89	47578.12	929.3037	-81.44125	1	932.8655	-5.008426	2.018778E-005	-0.005637	8
	9	92	37828.12	939.8452	-89.1473	1	944.0637	-5.418475	1.825173E-005	-0.0064921	8
	10	96	30046.88	948.2231	-95.883	1	953.059	-5.774046	-1.57122E-005	0.0027718	8
	11	99	23859.38	958.276	-105.5271	1	964.069	-6.284194	-1.905747E-005	0.007519	8
	12	101	18984.38	972.937	-122.2896	1	980.593	-7.164001	1.829607E-005	-0.0025656	8
	13	104	15046.87	988.154	-135.1846	1	997.359	-7.79	7.640228E-006	0.0028284	8
	14	107	11953.13	1004.625	-152.9564	1	1016.203	-8.656924	1.096764E-005	-0.0064533	8
	15	109	9515.62	1021.348	-171.6819	1	1035.677	-9.54184	-7.035424E-006	0.0072852	8
	16	112	7546.875	1040.421	-195.9318	1	1058.71	-10.66502	1.688486E-007	0.0051894	8
	17	115	5928.309	1062.358	-219.2249	1	1084.742	-11.65971	1.854033E-005	-0.0065126	8
	18	118	4733.456	1086.779	-249.8208	1	1115.123	-12.94583	-1.301088E-005	0.0081625	8
	19	122	3796.875	1108.902	-281.3189	1	1144.029	-14.23513	1.39823E-005	-0.000171	8
	20	125	2987.132	1133.525	-321.3899	1	1178.207	-15.82969	-2.175536E-006	-0.003104	8
	21	128	2390.625	1152.239	-367.8227	1	1209.524	-17.70434	1.978721E-005	-0.0043231	8
	22	131	1884.191	1178.432	-434.0869	1	1255.84	-20.22177	-1.8927E-005	0.0073531	8
	23	135	1516.544	1195.313	-507.9192	1	1298.751	-23.02188	1.824007E-005	-0.0025541	8
	24	139	1193.986	1219.033	-608.0453	1	1362.263	-26.50971	-2.103368E-006	-0.0031652	8
	25	143	946.5144	1245.913	-723.6427	1	1440.818	-30.14859	1.596229E-005	-0.0069004	8
	26	146	751.7689	1256.919	-884.2109	1	1536.774	-35.12542	-1.29632E-005	0.0011966	8
	27	148	597.4265	1304.318	-1081.527	1	1694.387	-39.66518	1.919251E-005	-0.00662	8
	28	151	477.4305	1334.387	-1323.209	1	1879.22	-44.75902	-1.843279E-007	0.0006383	8
	29	153	376.6741	1376.216	-1635.178	1	2137.236	-49.915	-1.905865E-007	0.0006443	8
	30	155	298.2954	1425.978	-2018.833	1	2471.659	-54.76498	-2.19881E-007	0.0006669	8
	31	158	237.7717	1484.808	-2481.544	1	2891.836	-59.1062	-1.729675E-007	0.0006276	8
	32	160	189.0121	1557.003	-3061.185	1	3434.401	-63.04086	-1.699609E-007	0.0006337	8
	33	163	150.2404	1645.366	-3779.126	1	4121.774	-66.47252	-2.143304E-007	0.0006502	8
	34	165	119.1737	1759.289	-4686.958	1	5006.264	-69.42596	-4.323214E-008	0.0006293	7
	35	167	95.0169	1892.573	-5775.182	1	6077.381	-71.85561	-4.299046E-008	0.0005994	7
	36	170	75.60484	2056.823	-7132.451	1	7423.098	-73.91375	-4.058571E-008	0.0005837	7
	37	173	54.50582	2362.446	-9654.3	1	9939.14	-76.24969	-4.108464E-008	0.0005779	7
	38	175	45.95588	2561.903	-11301.61	1	11588.35	-77.22778	-4.616932E-008	0.0006193	7
	39	177	37.20238	2860.678	-13744.99	1	14039.53	-78.24315	-4.806136E-008	0.0006413	7
	40	180	30.04808	3231.05	-16748.78	1	17057.59	-79.08105	-4.795232E-008	0.0006352	7
	41	182	23.91582	3715.146	-20675.1	1	21006.24	-79.81313	-4.760532E-008	0.000629	7
	42	185	18.60119	4397.764	-26107.52	1	26475.33	-80.43839	-4.879676E-008	0.0006223	7
	43	187	15.02404	5106.634	-31794.74	1	32202.23	-80.8755	-4.268769E-008	0.0005986	7
	44	189	12.01923	6029.242	-39041.09	1	39503.91	-81.22098	-4.492918E-008	0.0006	7
	45	192	9.450605	7273.723	-48743.88	1	49283.6	-81.51276	-4.658919E-009	0.0006572	6
	46	194	7.512019	8745.836	-60235.05	1	60866.66	-81.73866	-4.529228E-009	0.000683	6
	47	197	5.978954	10565.34	-74329.77	1	75076.9	-81.91009	-4.164406E-009	0.00065	6
	48	200	4.734848	12909.51	-92145.38	1	93045.29	-82.0248	-4.48155E-009	0.0006946	6
	49	203	3.75601	15760.57	-114068.3	1	115152	-82.13337	-4.404828E-009	0.0006261	6
	50	209	3.004808	19229.79	-140008.3	1	141322.7	-82.1795	-4.393577E-009	0.0006815	6
	51	215	2.372217	23860.71	-174107.2	1	175734.6	-82.19645	-4.92166E-009	0.0007333	6
	52	219	1.878005	29313.61	-215756.3	1	217738.6	-82.26292	-5.145201E-009	0.0006335	6
	53	224	1.512097	35844.7	-262551.3	1	264986.8	-82.22578	-4.751415E-009	0.0006998	6
	54	229	1.201923	43923.57	-325047.1	1	328001.4	-82.30424	-4.968336E-009	0.0006267	6
	55	236	0.956633	53902.09	-400929.7	1	404536.9	-82.34291	-5.147158E-009	2.524047E-005	6
