EXPLAIN
TAG	EISPOT
TITLE	LABEL	Potentiostatic EIS	Test Identifier
DATE	LABEL	9/15/2020	Date
TIME	LABEL	2:34:07	Time
NOTES	NOTES	1	Notes...
	
PSTAT	PSTAT	REF3000-16137	Potentiostat
VDC	POTEN	0.00000E+000	T	DC Voltage (V)
FREQINIT	QUANT	3.00000E+005	Initial Freq. (Hz)
FREQFINAL	QUANT	1.00000E+000	Final Freq. (Hz)
PTSPERDEC	QUANT	1.00000E+001	Points/decade
VAC	QUANT	5.00000E+001	AC Voltage (mV rms)
AREA	QUANT	1.00000E+000	Sample Area (cm^2)
SPEED	SELECTOR	2	Optimize for:
ZGUESS	QUANT	1.00000E+003	Estimated Z (ohms)
EOC	QUANT	0	Open Circuit (V)
SEQUENCER	TOGGLE	TRUE	Run as Sequence
PSTATMODEL	IQUANT	5	Pstat Model
PSTATSECTION	LABEL	REF3000-16137	Pstat Section
PSTATSERIALNO	LABEL	16137	Pstat Serial Number
CTRLMODE	IQUANT	1	Control Mode
IESTAB	IQUANT	0	I/E Stability
CASPEED	IQUANT	1	Control Amp Speed
CONVENTION	IQUANT	1	Current Convention
ICHRANGE	IQUANT	2	Ich Range
ICHRANGEMODE	TOGGLE	F	Ich Auto Range
ICHOFFSETENABLE	TOGGLE	T	Ich Offset Enable
ICHOFFSET	QUANT	0	Ich Offset (V)
ICHFILTER	IQUANT	3	Ich Filter
VCHRANGE	IQUANT	2	Vch Range
VCHRANGEMODE	TOGGLE	F	Vch Auto Range
VCHOFFSETENABLE	TOGGLE	T	Vch Offset Enable
VCHOFFSET	QUANT	0	Vch Offset (V)
VCHFILTER	IQUANT	3	Vch Filter
ACHRANGE	IQUANT	2	Ach Range
ACHOFFSETENABLE	TOGGLE	F	Ach Offset Enable
ACHOFFSET	QUANT	0	Ach Offset (V)
ACHFILTER	IQUANT	3	Ach Filter
IERANGELOWERLIMIT	IQUANT	2	I/E Range Lower Limit
IERANGEMODE	TOGGLE	F	I/E AutoRange
IERANGE	IQUANT	11	I/E Range
POSFEEDENABLE	TOGGLE	F	Positive Feedback IR Comp
POSFEEDRESISTANCE	QUANT	0	Positive Feedback Resistance (ohm)
ACHSELECT	IQUANT	0	Ach Select
CABLEID	IQUANT	13	Cable ID
DCCALDATE	LABEL	7/31/2020	DC Calibration Date
ACCALDATE	LABEL	7/31/2020	AC Calibration Date
THERMOSELECT	IQUANT	1	Thermo Select
FRAMEWORKVERSION	QUANT	6.33	Framework Version
INSTRUMENTVERSION	LABEL	3.50	Instrument Version
COMPLIANCEVOLTAGE	IQUANT	0	Compliance Voltage
ZCURVE	TABLE
	Pt	Time	Freq	Zreal	Zimag	Zsig	Zmod	Zphz	Idc	Vdc	IERange
	#	s	Hz	ohm	ohm	V	ohm	°	A	V	#
	0	7	300046.9	106.5972	-5.158852	1	106.722	-2.77071	-1.119808E-005	0.0009021	9
	1	10	238359.4	107.5541	-6.672086	1	107.7608	-3.549778	6.872902E-005	-0.0028286	9
	2	14	189328.1	108.7819	-8.379214	1	109.1041	-4.404664	1.636494E-005	-0.0005808	9
	3	16	150421.9	109.7732	-9.87748	1	110.2167	-5.141674	6.834968E-005	-0.001643	9
	4	19	119484.4	111.0894	-11.78314	1	111.7125	-6.054666	-7.583212E-005	0.0020784	9
	5	21	94921.88	112.5684	-13.48317	1	113.373	-6.830207	-2.779384E-006	-0.0002857	9
	6	24	75421.88	114.1363	-15.64636	1	115.2038	-7.805729	2.261273E-005	-0.0007061	9
	7	26	59859.37	116.0933	-18.06113	1	117.4898	-8.842862	2.433654E-005	-0.0006426	9
	8	29	47578.12	118.0821	-20.62763	1	119.8703	-9.90895	-2.092806E-005	0.000774	9
	9	31	37828.12	120.2492	-23.49039	1	122.5221	-11.0534	2.475354E-005	-0.0005864	9
	10	34	30046.88	122.578	-26.75099	1	125.463	-12.31101	2.383107E-005	-0.0004828	9
	11	36	23859.38	124.8967	-30.56481	1	128.5822	-13.75121	1.864786E-005	-0.0007209	9
	12	39	18984.38	127.2816	-35.14309	1	132.0441	-15.4351	2.412421E-005	-0.0004672	9
	13	41	15046.87	129.6532	-40.85293	1	135.9371	-17.48932	-1.574973E-005	0.0001946	9
	14	43	11953.13	132.109	-47.84922	1	140.5075	-19.91013	-8.82686E-006	-3.444666E-005	9
	15	46	9515.62	134.4743	-56.33971	1	145.7995	-22.73186	-1.364881E-005	0.0008252	9
	16	48	7546.875	137.0944	-67.46725	1	152.7963	-26.20284	-1.477403E-005	0.0008273	9
	17	50	5928.309	139.8057	-81.68339	1	161.9192	-30.29619	-2.034819E-005	0.0005222	9
	18	53	4733.456	142.6249	-98.6344	1	173.4088	-34.66638	-5.477602E-006	0.0007118	9
	19	55	3796.875	145.8491	-119.4369	1	188.513	-39.3143	1.301371E-005	-0.0006494	9
	20	57	2987.132	149.8752	-146.8915	1	209.8563	-44.42397	-3.008505E-006	-0.0002573	9
	21	60	2390.625	154.0062	-179.3956	1	236.4333	-49.35481	-1.102606E-005	8.695749E-005	9
	22	62	1884.191	160.1448	-222.5937	1	274.2158	-54.26691	1.366566E-005	-0.000692	9
	23	64	1516.544	166.7822	-270.3982	1	317.6972	-58.33363	-1.0361E-005	6.25584E-006	9
	24	66	1193.986	174.7717	-336.5264	1	379.2033	-62.55533	1.158534E-005	0.0001832	9
	25	69	946.5144	185.029	-413.1317	1	452.6737	-65.87386	1.406914E-006	-0.0010266	8
	26	71	751.7689	196.8757	-511.4729	1	548.0552	-68.94733	-6.191212E-006	0.0023136	8
	27	74	597.4265	211.8193	-630.406	1	665.0407	-71.42742	-3.32456E-006	0.0028275	8
	28	76	477.4305	230.2134	-774.9824	1	808.4528	-73.45561	2.616336E-007	0.0006442	8
	29	78	376.6741	253.7563	-963.686	1	996.535	-75.24783	2.59907E-007	0.0006365	8
	30	81	298.2954	282.2904	-1194.533	1	1227.436	-76.70388	2.644126E-007	0.0006414	8
	31	83	237.7717	316.3258	-1471.896	1	1505.504	-77.87103	2.720091E-007	0.0006369	8
	32	85	189.0121	358.6602	-1818.718	1	1853.745	-78.84414	2.560645E-007	0.0006424	8
	33	88	150.2404	410.7684	-2247.662	1	2284.889	-79.64328	2.540002E-007	0.0006441	8
	34	90	119.1737	475.8839	-2783.257	1	2823.648	-80.29734	2.645984E-007	0.0006424	8
	35	93	95.0169	554.413	-3432.418	1	3476.905	-80.82468	2.536602E-007	0.0006989	8
	36	95	75.60484	652.4354	-4240.261	1	4290.162	-81.25269	2.507834E-007	0.0006528	8
	37	98	54.50582	838.9131	-5748.366	1	5809.259	-81.69691	1.830702E-008	0.000617	7
	38	100	45.95588	960.365	-6734.981	1	6803.107	-81.8847	2.746758E-008	0.0006135	7
	39	103	37.20238	1140.715	-8186.336	1	8265.43	-82.06727	2.324578E-008	0.0006245	7
	40	105	30.04808	1368.016	-9977.42	1	10070.77	-82.19279	2.09701E-008	0.000614	7
	41	107	23.91582	1658.762	-12317.02	1	12428.21	-82.32999	2.233168E-008	0.000611	7
	42	110	18.60119	2078.275	-15529.28	1	15667.73	-82.37743	2.409268E-008	0.0006174	7
	43	112	15.02404	2510.238	-18902.07	1	19068.03	-82.43526	2.448592E-008	0.000623	7
	44	114	12.01923	3087.713	-23212	1	23416.47	-82.42287	2.208217E-008	0.0006167	7
	45	117	9.450605	3859.614	-28975.63	1	29231.55	-82.41274	2.121072E-008	0.0006199	7
	46	119	7.512019	4762.522	-35819.34	1	36134.56	-82.4264	2.539564E-008	0.0006006	7
	47	122	5.978954	5938.221	-44197.28	1	44594.41	-82.34772	2.456859E-009	0.0006623	6
	48	125	4.734848	7443.529	-54791.87	1	55295.16	-82.26367	2.736265E-009	0.0006376	6
	49	128	3.75601	9333.546	-67845.88	1	68484.88	-82.167	2.703559E-009	0.0006826	6
	50	134	3.004808	11682.94	-83266.78	1	84082.39	-82.01311	3.158878E-009	0.0006247	6
	51	140	2.372217	14948.52	-103470.5	1	104544.7	-81.77928	2.532876E-009	0.0005798	6
	52	144	1.878005	19089.56	-128044.6	1	129459.7	-81.5205	2.833229E-009	0.0006727	6
	53	149	1.512097	24192.06	-155587.1	1	157456.6	-81.16192	2.21801E-009	0.0005958	6
	54	155	1.201923	30829.16	-191981.9	1	194441.4	-80.87711	2.48059E-009	0.0006856	6
	55	161	0.956633	39439.14	-235858.4	1	239133	-80.5071	2.10709E-009	2.062497E-005	6
