EXPLAIN
TAG	EISPOT
TITLE	LABEL	Potentiostatic EIS	Test Identifier
DATE	LABEL	9/15/2020	Date
TIME	LABEL	2:45:27	Time
NOTES	NOTES	1	Notes...
	
PSTAT	PSTAT	REF3000-16137	Potentiostat
VDC	POTEN	0.00000E+000	T	DC Voltage (V)
FREQINIT	QUANT	3.00000E+005	Initial Freq. (Hz)
FREQFINAL	QUANT	1.00000E+000	Final Freq. (Hz)
PTSPERDEC	QUANT	1.00000E+001	Points/decade
VAC	QUANT	5.00000E+001	AC Voltage (mV rms)
AREA	QUANT	1.00000E+000	Sample Area (cm^2)
SPEED	SELECTOR	2	Optimize for:
ZGUESS	QUANT	1.00000E+003	Estimated Z (ohms)
EOC	QUANT	0	Open Circuit (V)
SEQUENCER	TOGGLE	TRUE	Run as Sequence
PSTATMODEL	IQUANT	5	Pstat Model
PSTATSECTION	LABEL	REF3000-16137	Pstat Section
PSTATSERIALNO	LABEL	16137	Pstat Serial Number
CTRLMODE	IQUANT	1	Control Mode
IESTAB	IQUANT	0	I/E Stability
CASPEED	IQUANT	1	Control Amp Speed
CONVENTION	IQUANT	1	Current Convention
ICHRANGE	IQUANT	2	Ich Range
ICHRANGEMODE	TOGGLE	F	Ich Auto Range
ICHOFFSETENABLE	TOGGLE	T	Ich Offset Enable
ICHOFFSET	QUANT	0	Ich Offset (V)
ICHFILTER	IQUANT	3	Ich Filter
VCHRANGE	IQUANT	2	Vch Range
VCHRANGEMODE	TOGGLE	F	Vch Auto Range
VCHOFFSETENABLE	TOGGLE	T	Vch Offset Enable
VCHOFFSET	QUANT	0	Vch Offset (V)
VCHFILTER	IQUANT	3	Vch Filter
ACHRANGE	IQUANT	2	Ach Range
ACHOFFSETENABLE	TOGGLE	F	Ach Offset Enable
ACHOFFSET	QUANT	0	Ach Offset (V)
ACHFILTER	IQUANT	3	Ach Filter
IERANGELOWERLIMIT	IQUANT	2	I/E Range Lower Limit
IERANGEMODE	TOGGLE	F	I/E AutoRange
IERANGE	IQUANT	11	I/E Range
POSFEEDENABLE	TOGGLE	F	Positive Feedback IR Comp
POSFEEDRESISTANCE	QUANT	0	Positive Feedback Resistance (ohm)
ACHSELECT	IQUANT	0	Ach Select
CABLEID	IQUANT	13	Cable ID
DCCALDATE	LABEL	7/31/2020	DC Calibration Date
ACCALDATE	LABEL	7/31/2020	AC Calibration Date
THERMOSELECT	IQUANT	1	Thermo Select
FRAMEWORKVERSION	QUANT	6.33	Framework Version
INSTRUMENTVERSION	LABEL	3.50	Instrument Version
COMPLIANCEVOLTAGE	IQUANT	0	Compliance Voltage
ZCURVE	TABLE
	Pt	Time	Freq	Zreal	Zimag	Zsig	Zmod	Zphz	Idc	Vdc	IERange
	#	s	Hz	ohm	ohm	V	ohm	°	A	V	#
	0	7	300046.9	119.7786	-6.104476	1	119.934	-2.917537	7.128002E-005	-0.0025847	9
	1	10	238359.4	120.5293	-7.80584	1	120.7818	-3.705473	1.14324E-005	-0.0016372	9
	2	14	189328.1	121.8592	-9.315802	1	122.2148	-4.371603	8.040576E-006	-0.0015512	9
	3	16	150421.9	123.0243	-10.83557	1	123.5006	-5.03343	7.122447E-005	-0.0022287	9
	4	19	119484.4	124.6145	-12.85962	1	125.2763	-5.891792	2.894174E-005	0.0004969	9
	5	21	94921.88	126.0835	-14.60986	1	126.9272	-6.609641	1.953783E-005	-0.0007963	9
	6	24	75421.88	127.8417	-16.98851	1	128.9656	-7.569517	-2.027788E-005	0.0005298	9
	7	26	59859.37	129.8645	-19.5389	1	131.3262	-8.556319	2.32658E-005	-0.000273	9
	8	29	47578.12	132.2451	-22.24679	1	134.1033	-9.54911	1.345465E-005	-0.0006368	9
	9	31	37828.12	134.5048	-25.24773	1	136.8539	-10.63121	1.365678E-005	-0.000706	9
	10	34	30046.88	137.0854	-28.76265	1	140.0704	-11.84965	2.289462E-005	-0.000313	9
	11	36	23859.38	139.7085	-32.81223	1	143.51	-13.21706	-1.038197E-005	-7.0801E-006	9
	12	39	18984.38	142.3686	-37.52393	1	147.2306	-14.76559	-1.719642E-005	0.0003861	9
	13	41	15046.87	145.0173	-43.25265	1	151.3301	-16.60766	-1.764677E-005	0.0008935	9
	14	43	11953.13	147.7822	-50.57272	1	156.196	-18.89152	-1.454726E-005	0.0001769	9
	15	46	9515.62	150.4615	-59.40549	1	161.7642	-21.54519	2.317608E-005	-0.0003052	9
	16	48	7546.875	153.4388	-70.8822	1	169.02	-24.79493	2.202844E-005	-0.0006986	9
	17	50	5928.309	156.1483	-85.63668	1	178.0896	-28.74177	-2.07141E-005	0.0007971	9
	18	52	4733.456	159.3343	-103.0977	1	189.7803	-32.90499	-6.458929E-006	0.0007604	9
	19	55	3796.875	162.5621	-124.1893	1	204.5713	-37.37803	3.657672E-006	0.0005237	9
	20	57	2987.132	166.8381	-152.6803	1	226.1553	-42.4629	-2.098696E-005	0.0006471	9
	21	59	2390.625	171.9779	-186.9048	1	253.9878	-47.38171	-1.759802E-005	0.0002413	9
	22	62	1884.191	178.2973	-229.4455	1	290.5773	-52.14996	-1.691755E-005	0.0003798	9
	23	64	1516.544	184.8066	-280.073	1	335.5509	-56.58111	2.284146E-005	-0.0002511	9
	24	66	1193.986	193.3371	-349.0932	1	399.0555	-61.02115	-2.064432E-005	0.0005282	9
	25	69	946.5144	202.7528	-430.2094	1	475.5931	-64.76604	5.284814E-006	-0.0018887	8
	26	71	751.7689	216.0696	-529.2347	1	571.6428	-67.79137	8.220611E-007	0.002037	8
	27	73	597.4265	231.2241	-654.5563	1	694.1963	-70.54407	7.690681E-006	-0.000972	8
	28	76	477.4305	250.4095	-804.3933	1	842.4687	-72.70851	2.199962E-007	0.0006477	8
	29	78	376.6741	274.9492	-1000.269	1	1037.37	-74.63039	1.82934E-007	0.0006919	8
	30	80	298.2954	304.6598	-1239.739	1	1276.624	-76.19343	2.169945E-007	0.000647	8
	31	83	237.7717	340.1724	-1527.54	1	1564.959	-77.4455	2.031758E-007	0.000645	8
	32	85	189.0121	384.2158	-1887.252	1	1925.965	-78.49271	2.22561E-007	0.0006317	8
	33	88	150.2404	438.5514	-2332.187	1	2373.063	-79.3503	2.213399E-007	0.0006386	8
	34	90	119.1737	505.9539	-2888.249	1	2932.23	-80.06393	2.017455E-007	0.0006473	8
	35	92	95.0169	587.7386	-3560.875	1	3609.054	-80.62757	2.224127E-007	0.0006388	8
	36	95	75.60484	692.231	-4407.666	1	4461.693	-81.07451	1.884488E-008	0.0006162	7
	37	97	54.50582	880.9159	-5963.924	1	6028.632	-81.59774	1.617227E-008	0.0006144	7
	38	100	45.95588	1007.663	-6985.151	1	7057.458	-81.79126	2.15627E-008	0.0006178	7
	39	102	37.20238	1192.582	-8492.851	1	8576.174	-82.00668	2.071742E-008	0.0006176	7
	40	105	30.04808	1425.135	-10342.17	1	10439.9	-82.15414	1.830207E-008	0.0006147	7
	41	107	23.91582	1735.356	-12790.02	1	12907.21	-82.27326	1.769088E-008	0.0006148	7
	42	110	18.60119	2159.276	-16098.39	1	16242.56	-82.36052	1.493999E-008	0.0006703	7
	43	112	15.02404	2603.804	-19617.71	1	19789.75	-82.43948	2.242854E-008	0.0006186	7
	44	114	12.01923	3192.577	-24088.51	1	24299.15	-82.45029	2.015241E-008	0.0006137	7
	45	117	9.450605	3995.842	-30103.23	1	30367.27	-82.43887	1.890894E-008	0.0006753	7
	46	119	7.512019	4920.174	-37179.57	1	37503.71	-82.46154	2.166796E-008	0.0006353	7
	47	122	5.978954	6125.42	-45856.7	1	46264	-82.39162	3.251107E-009	0.0006651	6
	48	125	4.734848	7666.799	-56881.25	1	57395.62	-82.32359	2.364382E-009	0.0007407	6
	49	128	3.75601	9541.5	-70412	1	71055.54	-82.28288	3.204583E-009	0.0006679	6
	50	134	3.004808	11905.87	-86434.24	1	87250.38	-82.15716	2.447547E-009	0.0007045	6
	51	140	2.372217	15082.55	-107395.9	1	108449.8	-82.00573	2.203608E-009	0.0007307	6
	52	144	1.878005	19358.91	-133014.7	1	134416	-81.71933	2.199026E-009	0.0006378	6
	53	149	1.512097	24488.79	-161964.6	1	163805.5	-81.40209	2.461929E-009	0.0007543	6
	54	154	1.201923	31117.72	-199671.2	1	202081.4	-81.14201	2.361236E-009	0.0006315	6
	55	161	0.956633	39565.39	-245393.7	1	248562.9	-80.8409	1.706921E-009	2.176065E-005	6
