EXPLAIN
TAG	EISPOT
TITLE	LABEL	Potentiostatic EIS	Test Identifier
DATE	LABEL	9/15/2020	Date
TIME	LABEL	3:19:45	Time
NOTES	NOTES	1	Notes...
	
PSTAT	PSTAT	REF3000-16137	Potentiostat
VDC	POTEN	0.00000E+000	T	DC Voltage (V)
FREQINIT	QUANT	3.00000E+005	Initial Freq. (Hz)
FREQFINAL	QUANT	1.00000E+000	Final Freq. (Hz)
PTSPERDEC	QUANT	1.00000E+001	Points/decade
VAC	QUANT	5.00000E+001	AC Voltage (mV rms)
AREA	QUANT	1.00000E+000	Sample Area (cm^2)
SPEED	SELECTOR	2	Optimize for:
ZGUESS	QUANT	1.00000E+003	Estimated Z (ohms)
EOC	QUANT	0	Open Circuit (V)
SEQUENCER	TOGGLE	TRUE	Run as Sequence
PSTATMODEL	IQUANT	5	Pstat Model
PSTATSECTION	LABEL	REF3000-16137	Pstat Section
PSTATSERIALNO	LABEL	16137	Pstat Serial Number
CTRLMODE	IQUANT	1	Control Mode
IESTAB	IQUANT	0	I/E Stability
CASPEED	IQUANT	1	Control Amp Speed
CONVENTION	IQUANT	1	Current Convention
ICHRANGE	IQUANT	2	Ich Range
ICHRANGEMODE	TOGGLE	F	Ich Auto Range
ICHOFFSETENABLE	TOGGLE	T	Ich Offset Enable
ICHOFFSET	QUANT	0	Ich Offset (V)
ICHFILTER	IQUANT	3	Ich Filter
VCHRANGE	IQUANT	2	Vch Range
VCHRANGEMODE	TOGGLE	F	Vch Auto Range
VCHOFFSETENABLE	TOGGLE	T	Vch Offset Enable
VCHOFFSET	QUANT	0	Vch Offset (V)
VCHFILTER	IQUANT	3	Vch Filter
ACHRANGE	IQUANT	2	Ach Range
ACHOFFSETENABLE	TOGGLE	F	Ach Offset Enable
ACHOFFSET	QUANT	0	Ach Offset (V)
ACHFILTER	IQUANT	3	Ach Filter
IERANGELOWERLIMIT	IQUANT	2	I/E Range Lower Limit
IERANGEMODE	TOGGLE	F	I/E AutoRange
IERANGE	IQUANT	11	I/E Range
POSFEEDENABLE	TOGGLE	F	Positive Feedback IR Comp
POSFEEDRESISTANCE	QUANT	0	Positive Feedback Resistance (ohm)
ACHSELECT	IQUANT	0	Ach Select
CABLEID	IQUANT	13	Cable ID
DCCALDATE	LABEL	7/31/2020	DC Calibration Date
ACCALDATE	LABEL	7/31/2020	AC Calibration Date
THERMOSELECT	IQUANT	1	Thermo Select
FRAMEWORKVERSION	QUANT	6.33	Framework Version
INSTRUMENTVERSION	LABEL	3.50	Instrument Version
COMPLIANCEVOLTAGE	IQUANT	0	Compliance Voltage
ZCURVE	TABLE
	Pt	Time	Freq	Zreal	Zimag	Zsig	Zmod	Zphz	Idc	Vdc	IERange
	#	s	Hz	ohm	ohm	V	ohm	°	A	V	#
	0	11	300046.9	179.722	-10.62586	1	180.0358	-3.383609	-2.625609E-006	0.0012678	9
	1	14	238359.4	181.3183	-12.32043	1	181.7364	-3.887227	-1.560231E-005	0.0008306	9
	2	17	189328.1	182.162	-13.95473	1	182.6957	-4.380653	2.269054E-005	-0.0006629	9
	3	20	150421.9	184.6534	-15.44715	1	185.2984	-4.781934	7.028834E-005	-0.0015646	9
	4	22	119484.4	186.0299	-17.43181	1	186.8448	-5.353233	6.842455E-005	-0.0014869	9
	5	25	94921.88	188.1408	-19.77931	1	189.1777	-6.001481	-1.423646E-005	9.197715E-005	9
	6	28	75421.88	190.4123	-22.52103	1	191.7395	-6.745326	1.62943E-005	-0.0008214	9
	7	30	59859.37	193.1506	-25.57656	1	194.8366	-7.543095	-2.244462E-005	0.0006376	9
	8	33	47578.12	195.9968	-28.99626	1	198.1301	-8.415441	-9.791235E-006	-6.824327E-005	9
	9	35	37828.12	199.4154	-32.79373	1	202.0939	-9.338666	2.597886E-005	-0.0005164	9
	10	38	30046.88	203.1352	-37.11128	1	206.4974	-10.35333	7.347605E-006	-0.0005452	9
	11	40	23859.38	206.8956	-41.93871	1	211.1034	-11.45886	-9.675231E-006	-7.608683E-005	9
	12	43	18984.38	210.9101	-47.54071	1	216.2017	-12.70261	2.655378E-005	-0.0005197	9
	13	45	15046.87	214.5895	-54.59258	1	221.4249	-14.27352	2.344747E-005	-0.0002115	9
	14	47	11953.13	219.5554	-62.13628	1	228.1786	-15.80202	1.508635E-005	-0.0007423	9
	15	50	9515.62	223.4567	-72.32023	1	234.8683	-17.93382	-2.100829E-005	0.0004798	9
	16	52	7546.875	227.7119	-84.24129	1	242.7947	-20.3018	2.668119E-005	-0.000602	9
	17	54	5928.309	232.0477	-100.6087	1	252.9195	-23.44007	-1.901236E-005	0.0003903	9
	18	58	4733.456	236.0174	-120.2482	1	264.8846	-26.99832	2.470424E-005	-0.0007354	9
	19	61	3796.875	241.2923	-142.9774	1	280.472	-30.64881	2.601929E-005	-0.0004392	9
	20	63	2987.132	246.0787	-175.4095	1	302.1973	-35.48198	1.209265E-005	0.0002394	9
	21	66	2390.625	250.3997	-211.8784	1	328.0129	-40.2366	6.688793E-008	0.0005447	9
	22	68	1884.191	259.0864	-263.1343	1	369.2769	-45.44411	-1.588326E-005	0.0009667	9
	23	70	1516.544	266.5981	-317.4205	1	414.5242	-49.97345	-2.327552E-005	0.0007167	9
	24	73	1193.986	275.1773	-392.8962	1	479.6769	-54.99331	4.773144E-006	0.0011206	8
	25	76	946.5144	286.0747	-484.3156	1	562.4948	-59.43058	9.339986E-006	-0.0013042	8
	26	78	751.7689	301.2166	-599.5565	1	670.969	-63.32509	-2.472266E-006	0.0035248	8
	27	80	597.4265	317.9629	-737.1827	1	802.8317	-66.66841	-8.582989E-006	0.0023331	8
	28	82	477.4305	339.7282	-906.7368	1	968.291	-69.46047	9.610042E-008	0.0006471	8
	29	85	376.6741	367.1802	-1127.688	1	1185.96	-71.96452	1.036181E-007	0.0006537	8
	30	87	298.2954	400.5555	-1398.018	1	1454.269	-74.01211	1.071421E-007	0.0006536	8
	31	89	237.7717	440.6456	-1722.837	1	1778.296	-75.65317	9.30334E-008	0.0006596	8
	32	92	189.0121	490.5946	-2129.01	1	2184.804	-77.02367	9.494399E-008	0.0006527	8
	33	94	150.2404	552.1498	-2630.994	1	2688.307	-78.14771	8.729474E-008	0.0006497	8
	34	97	119.1737	628.7806	-3258.958	1	3319.062	-79.07959	1.254011E-007	0.0006528	8
	35	99	95.0169	721.8914	-4016.142	1	4080.505	-79.81004	1.430826E-007	0.0006508	8
	36	102	75.60484	839.6985	-4969.879	1	5040.317	-80.41002	7.431054E-009	0.0006162	7
	37	104	54.50582	1054.197	-6724.992	1	6807.117	-81.09092	2.899319E-009	0.0006305	7
	38	107	45.95588	1193.104	-7871.972	1	7961.874	-81.38164	7.714529E-009	0.0006415	7
	39	109	37.20238	1400.901	-9568.9	1	9670.91	-81.67099	5.845804E-009	0.0006249	7
	40	111	30.04808	1658.104	-11659.99	1	11777.3	-81.90655	7.155205E-009	0.0006223	7
	41	114	23.91582	1997.478	-14383.53	1	14521.57	-82.09375	7.142039E-009	0.0006204	7
	42	116	18.60119	2470.158	-18151.93	1	18319.23	-82.25066	8.291313E-009	0.000623	7
	43	119	15.02404	2973.205	-22119.17	1	22318.1	-82.34433	9.415047E-009	0.0006278	7
	44	121	12.01923	3615.027	-27181.64	1	27420.98	-82.42439	8.133736E-009	0.0006124	7
	45	123	9.450605	4481.229	-33942.89	1	34237.43	-82.47916	7.069922E-009	0.0006218	7
	46	126	7.512019	5513.316	-41933.26	1	42294.15	-82.50981	8.663528E-009	0.0006254	7
	47	129	5.978954	6815.845	-51735.43	1	52182.47	-82.49483	9.656259E-010	0.0006657	6
	48	132	4.734848	8427.421	-64170.39	1	64721.41	-82.51823	1.746236E-009	0.0006879	6
	49	135	3.75601	10445.22	-79414.6	1	80098.57	-82.50703	7.349303E-010	0.0006605	6
	50	140	3.004808	12852.37	-97513.9	1	98357.2	-82.49167	1.274366E-009	0.0006556	6
	51	147	2.372217	16162.39	-121167.8	1	122241	-82.40225	1.060558E-009	0.0006481	6
	52	151	1.878005	20562.97	-150556.7	1	151954.5	-82.22269	5.525423E-010	0.0006718	6
	53	156	1.512097	25312.35	-183630.5	1	185366.8	-82.15158	8.672916E-010	0.0005756	6
	54	161	1.201923	32438.76	-226917.8	1	229224.7	-81.86447	4.856726E-010	0.0006591	6
	55	167	0.956633	41207.31	-279200.7	1	282225.2	-81.60431	4.647404E-010	2.43903E-005	6
