EXPLAIN
TAG	EISPOT
TITLE	LABEL	Potentiostatic EIS	Test Identifier
DATE	LABEL	9/15/2020	Date
TIME	LABEL	3:22:42	Time
NOTES	NOTES	1	Notes...
	
PSTAT	PSTAT	REF3000-16137	Potentiostat
VDC	POTEN	0.00000E+000	T	DC Voltage (V)
FREQINIT	QUANT	3.00000E+005	Initial Freq. (Hz)
FREQFINAL	QUANT	1.00000E+000	Final Freq. (Hz)
PTSPERDEC	QUANT	1.00000E+001	Points/decade
VAC	QUANT	5.00000E+001	AC Voltage (mV rms)
AREA	QUANT	1.00000E+000	Sample Area (cm^2)
SPEED	SELECTOR	2	Optimize for:
ZGUESS	QUANT	1.00000E+003	Estimated Z (ohms)
EOC	QUANT	0	Open Circuit (V)
SEQUENCER	TOGGLE	TRUE	Run as Sequence
PSTATMODEL	IQUANT	5	Pstat Model
PSTATSECTION	LABEL	REF3000-16137	Pstat Section
PSTATSERIALNO	LABEL	16137	Pstat Serial Number
CTRLMODE	IQUANT	1	Control Mode
IESTAB	IQUANT	0	I/E Stability
CASPEED	IQUANT	1	Control Amp Speed
CONVENTION	IQUANT	1	Current Convention
ICHRANGE	IQUANT	2	Ich Range
ICHRANGEMODE	TOGGLE	F	Ich Auto Range
ICHOFFSETENABLE	TOGGLE	T	Ich Offset Enable
ICHOFFSET	QUANT	0	Ich Offset (V)
ICHFILTER	IQUANT	3	Ich Filter
VCHRANGE	IQUANT	2	Vch Range
VCHRANGEMODE	TOGGLE	F	Vch Auto Range
VCHOFFSETENABLE	TOGGLE	T	Vch Offset Enable
VCHOFFSET	QUANT	0	Vch Offset (V)
VCHFILTER	IQUANT	3	Vch Filter
ACHRANGE	IQUANT	2	Ach Range
ACHOFFSETENABLE	TOGGLE	F	Ach Offset Enable
ACHOFFSET	QUANT	0	Ach Offset (V)
ACHFILTER	IQUANT	3	Ach Filter
IERANGELOWERLIMIT	IQUANT	2	I/E Range Lower Limit
IERANGEMODE	TOGGLE	F	I/E AutoRange
IERANGE	IQUANT	11	I/E Range
POSFEEDENABLE	TOGGLE	F	Positive Feedback IR Comp
POSFEEDRESISTANCE	QUANT	0	Positive Feedback Resistance (ohm)
ACHSELECT	IQUANT	0	Ach Select
CABLEID	IQUANT	13	Cable ID
DCCALDATE	LABEL	7/31/2020	DC Calibration Date
ACCALDATE	LABEL	7/31/2020	AC Calibration Date
THERMOSELECT	IQUANT	1	Thermo Select
FRAMEWORKVERSION	QUANT	6.33	Framework Version
INSTRUMENTVERSION	LABEL	3.50	Instrument Version
COMPLIANCEVOLTAGE	IQUANT	0	Compliance Voltage
ZCURVE	TABLE
	Pt	Time	Freq	Zreal	Zimag	Zsig	Zmod	Zphz	Idc	Vdc	IERange
	#	s	Hz	ohm	ohm	V	ohm	°	A	V	#
	0	7	300046.9	187.2637	-11.15781	1	187.5958	-3.409845	8.320562E-005	-0.0026635	9
	1	11	238359.4	188.2488	-13.14478	1	188.7071	-3.994289	-1.951886E-005	0.0009121	9
	2	14	189328.1	190.0477	-14.1005	1	190.5701	-4.243258	2.133301E-005	-0.0005662	9
	3	17	150421.9	191.6402	-16.4028	1	192.3409	-4.892117	1.184583E-005	-0.0016506	9
	4	20	119484.4	193.675	-18.02309	1	194.5118	-5.316543	7.740079E-005	-0.0023032	9
	5	23	94921.88	195.399	-20.30836	1	196.4515	-5.933607	-8.646016E-006	0.0008017	9
	6	25	75421.88	197.822	-23.17915	1	199.1754	-6.682974	-7.545832E-006	0.0007676	9
	7	28	59859.37	200.3321	-26.27997	1	202.0485	-7.4735	2.049427E-005	2.950923E-006	9
	8	30	47578.12	203.6013	-29.57897	1	205.7387	-8.266037	1.960536E-005	-5.045036E-005	9
	9	33	37828.12	207.0608	-33.66114	1	209.7791	-9.233596	-1.487246E-005	0.0001235	9
	10	35	30046.88	210.7563	-38.01254	1	214.1568	-10.2241	-2.267304E-005	0.0008715	9
	11	38	23859.38	214.7488	-42.9258	1	218.997	-11.30378	-8.449625E-006	-0.0001112	9
	12	40	18984.38	218.9525	-48.65787	1	224.294	-12.52925	1.985784E-005	-4.304811E-005	9
	13	42	15046.87	223.2076	-55.75986	1	230.0669	-14.02609	-2.280354E-005	0.0008788	9
	14	45	11953.13	227.6125	-64.55109	1	236.5889	-15.83338	2.306453E-006	-0.0004929	9
	15	47	9515.62	231.7822	-73.64046	1	243.1993	-17.62578	-1.817344E-005	0.0003673	9
	16	50	7546.875	236.0148	-86.24448	1	251.2789	-20.07331	-1.570411E-005	0.0009821	9
	17	54	5928.309	240.9113	-102.5623	1	261.8344	-23.06075	-1.044788E-005	-4.865768E-005	9
	18	56	4733.456	244.9753	-121.4447	1	273.4258	-26.36958	-2.212457E-005	0.0006695	9
	19	58	3796.875	248.8959	-145.7748	1	288.4431	-30.3569	-1.529836E-005	0.0001108	9
	20	61	2987.132	255.6274	-177.231	1	311.0566	-34.73426	2.513313E-005	-0.0007731	9
	21	63	2390.625	261.2302	-214.5599	1	338.049	-39.39777	1.697112E-005	-0.0006872	9
	22	66	1884.191	266.0384	-265.0771	1	375.556	-44.89631	1.564042E-005	-0.0007734	9
	23	68	1516.544	275.7898	-321.0781	1	423.2625	-49.3391	2.41466E-005	-0.0002541	9
	24	70	1193.986	284.0369	-396.7585	1	487.9491	-54.40136	-9.142779E-006	0.0030436	8
	25	73	946.5144	296.4555	-490.6865	1	573.288	-58.86111	7.715155E-006	-0.0002661	8
	26	75	751.7689	312.4859	-604.0082	1	680.0539	-62.64505	-9.258023E-006	0.0034809	8
	27	78	597.4265	330.7389	-745.0151	1	815.1293	-66.06185	-7.387686E-006	0.0042346	8
	28	80	477.4305	350.1238	-916.4258	1	981.032	-69.09046	7.787288E-008	0.0006417	8
	29	82	376.6741	377.8309	-1139.719	1	1200.715	-71.659	7.252715E-008	0.0006454	8
	30	85	298.2954	411.5735	-1412.926	1	1471.649	-73.7596	9.86446E-008	0.0006386	8
	31	87	237.7717	451.9519	-1741.298	1	1798.994	-75.45	9.238605E-008	0.0006374	8
	32	89	189.0121	502.2704	-2151.769	1	2209.612	-76.86116	8.309905E-008	0.0006477	8
	33	92	150.2404	564.8113	-2659.211	1	2718.531	-78.00869	7.816795E-008	0.0006484	8
	34	94	119.1737	642.1071	-3293.738	1	3355.743	-78.96867	1.087647E-007	0.0006424	8
	35	96	95.0169	736.2668	-4059.376	1	4125.606	-79.71977	8.339365E-008	0.0006484	8
	36	99	75.60484	855.4784	-5023.331	1	5095.654	-80.33519	-4.325151E-010	0.0006298	7
	37	102	54.50582	1072.497	-6797.774	1	6881.859	-81.03425	8.259717E-010	0.0006257	7
	38	104	45.95588	1212.781	-7955.599	1	8047.509	-81.33235	2.793295E-009	0.0006223	7
	39	106	37.20238	1421.691	-9670.64	1	9774.58	-81.6368	5.535236E-009	0.0006173	7
	40	109	30.04808	1684.497	-11787.1	1	11906.85	-81.86691	8.170771E-010	0.0006269	7
	41	111	23.91582	2030.222	-14562.77	1	14703.61	-82.06345	2.30906E-009	0.0006223	7
	42	114	18.60119	2499.004	-18351.42	1	18520.79	-82.24545	4.779449E-009	0.0006137	7
	43	116	15.02404	2994.289	-22355.7	1	22555.33	-82.37129	3.86926E-009	0.000618	7
	44	118	12.01923	3652.613	-27467.29	1	27709.09	-82.42522	3.551539E-009	0.0006187	7
	45	121	9.450605	4545.253	-34301.17	1	34601	-82.45171	2.015538E-009	0.0006184	7
	46	123	7.512019	5585.481	-42368.73	1	42735.32	-82.48999	3.254139E-009	0.0006858	7
	47	126	5.978954	6890.006	-52297.18	1	52749.09	-82.49467	1.225961E-009	0.0006563	6
	48	129	4.734848	8549.262	-64846.66	1	65407.79	-82.48955	8.079646E-010	0.0007009	6
	49	132	3.75601	10568.73	-80307.23	1	80999.69	-82.50275	1.033391E-009	0.0006507	6
	50	138	3.004808	12971.55	-98615.7	1	99465.2	-82.50654	6.560359E-010	0.0006881	6
	51	144	2.372217	16260.91	-122511.1	1	123585.6	-82.43932	1.170969E-010	0.0006953	6
	52	148	1.878005	20682.97	-152178.2	1	153577.3	-82.26019	5.53639E-010	0.0006406	6
	53	153	1.512097	25802.13	-185749.5	1	187533	-82.09175	4.842462E-010	0.0007686	6
	54	158	1.201923	32691.42	-229404.5	1	231722.2	-81.88964	5.497878E-010	0.0006374	6
	55	165	0.956633	41367.47	-282471.9	1	285484.9	-81.66837	-3.509348E-011	2.113805E-005	6
