EXPLAIN
TAG	EISPOT
TITLE	LABEL	Potentiostatic EIS	Test Identifier
DATE	LABEL	9/15/2020	Date
TIME	LABEL	10:05:31	Time
NOTES	NOTES	1	Notes...
	
PSTAT	PSTAT	REF3000-16137	Potentiostat
VDC	POTEN	0.00000E+000	T	DC Voltage (V)
FREQINIT	QUANT	3.00000E+005	Initial Freq. (Hz)
FREQFINAL	QUANT	1.00000E+000	Final Freq. (Hz)
PTSPERDEC	QUANT	1.00000E+001	Points/decade
VAC	QUANT	5.00000E+001	AC Voltage (mV rms)
AREA	QUANT	1.00000E+000	Sample Area (cm^2)
SPEED	SELECTOR	2	Optimize for:
ZGUESS	QUANT	1.00000E+003	Estimated Z (ohms)
EOC	QUANT	0	Open Circuit (V)
SEQUENCER	TOGGLE	TRUE	Run as Sequence
PSTATMODEL	IQUANT	5	Pstat Model
PSTATSECTION	LABEL	REF3000-16137	Pstat Section
PSTATSERIALNO	LABEL	16137	Pstat Serial Number
CTRLMODE	IQUANT	1	Control Mode
IESTAB	IQUANT	0	I/E Stability
CASPEED	IQUANT	1	Control Amp Speed
CONVENTION	IQUANT	1	Current Convention
ICHRANGE	IQUANT	2	Ich Range
ICHRANGEMODE	TOGGLE	F	Ich Auto Range
ICHOFFSETENABLE	TOGGLE	T	Ich Offset Enable
ICHOFFSET	QUANT	0	Ich Offset (V)
ICHFILTER	IQUANT	3	Ich Filter
VCHRANGE	IQUANT	2	Vch Range
VCHRANGEMODE	TOGGLE	F	Vch Auto Range
VCHOFFSETENABLE	TOGGLE	T	Vch Offset Enable
VCHOFFSET	QUANT	0	Vch Offset (V)
VCHFILTER	IQUANT	3	Vch Filter
ACHRANGE	IQUANT	2	Ach Range
ACHOFFSETENABLE	TOGGLE	F	Ach Offset Enable
ACHOFFSET	QUANT	0	Ach Offset (V)
ACHFILTER	IQUANT	3	Ach Filter
IERANGELOWERLIMIT	IQUANT	2	I/E Range Lower Limit
IERANGEMODE	TOGGLE	F	I/E AutoRange
IERANGE	IQUANT	11	I/E Range
POSFEEDENABLE	TOGGLE	F	Positive Feedback IR Comp
POSFEEDRESISTANCE	QUANT	0	Positive Feedback Resistance (ohm)
ACHSELECT	IQUANT	0	Ach Select
CABLEID	IQUANT	13	Cable ID
DCCALDATE	LABEL	7/31/2020	DC Calibration Date
ACCALDATE	LABEL	7/31/2020	AC Calibration Date
THERMOSELECT	IQUANT	1	Thermo Select
FRAMEWORKVERSION	QUANT	6.33	Framework Version
INSTRUMENTVERSION	LABEL	3.50	Instrument Version
COMPLIANCEVOLTAGE	IQUANT	0	Compliance Voltage
ZCURVE	TABLE
	Pt	Time	Freq	Zreal	Zimag	Zsig	Zmod	Zphz	Idc	Vdc	IERange
	#	s	Hz	ohm	ohm	V	ohm	°	A	V	#
	0	7	300046.9	46.16063	-1.410731	1	46.18219	-1.750491	-4.065009E-005	0.0004298	9
	1	10	238359.4	46.57049	-2.679849	1	46.64753	-3.293393	-5.957813E-005	0.00175	9
	2	14	189328.1	47.13424	-3.730138	1	47.2816	-4.524878	5.673416E-005	-0.0021302	9
	3	16	150421.9	47.80676	-4.942326	1	48.06155	-5.902345	-8.847393E-006	0.0007858	9
	4	19	119484.4	48.4576	-6.140384	1	48.8451	-7.221838	-2.815093E-005	1.792644E-005	9
	5	21	94921.88	49.30883	-7.13025	1	49.8217	-8.228159	1.750902E-005	-0.0003163	9
	6	24	75421.88	50.08881	-8.462415	1	50.79864	-9.58946	-1.309502E-005	0.0003377	9
	7	26	59859.37	50.94899	-9.9546	1	51.91236	-11.05538	-1.494545E-005	0.0005704	9
	8	29	47578.12	51.83973	-11.60207	1	53.12217	-12.61528	-1.584361E-005	0.0005785	9
	9	31	37828.12	52.77148	-13.52953	1	54.47823	-14.37975	-2.359269E-006	0.0004432	9
	10	34	30046.88	53.69679	-15.80343	1	55.97404	-16.39961	-1.536179E-005	0.0005787	9
	11	36	23859.38	54.61199	-18.57058	1	57.68306	-18.78039	-1.300285E-005	0.0004288	9
	12	39	18984.38	55.6185	-22.02266	1	59.81985	-21.60155	-1.484043E-005	0.000402	9
	13	41	15046.87	56.62853	-26.28757	1	62.43258	-24.90123	-2.300983E-006	-0.0001174	9
	14	43	11953.13	57.67933	-31.63241	1	65.78385	-28.74118	-3.179743E-006	-0.0000957	9
	15	46	9515.62	58.86353	-38.32409	1	70.23996	-33.06681	1.997345E-005	-0.0004546	9
	16	48	7546.875	60.23275	-46.73721	1	76.23878	-37.80944	8.795616E-006	-0.0004254	9
	17	50	5928.309	61.90618	-57.65501	1	84.59595	-42.96363	9.021687E-006	-0.0004343	9
	18	52	4733.456	63.75804	-70.34116	1	94.93664	-47.81047	1.977597E-005	-0.0004795	9
	19	55	3796.875	65.85522	-85.66994	1	108.0567	-52.45021	1.652569E-005	-0.00011	9
	20	57	2987.132	68.80598	-106.2796	1	126.6081	-57.08076	-1.478075E-005	0.0006316	9
	21	59	2390.625	72.37682	-129.6654	1	148.4975	-60.83055	-1.261562E-005	0.0002804	9
	22	62	1884.191	76.23982	-161.3763	1	178.4792	-64.71231	-1.475583E-005	0.0006297	9
	23	64	1516.544	81.16886	-196.5831	1	212.6812	-67.56434	1.113605E-005	6.41611E-005	9
	24	66	1193.986	87.7086	-243.906	1	259.1967	-70.22142	-3.171418E-006	-0.0001146	9
	25	69	946.5144	95.368	-300.9744	1	315.7224	-72.41846	1.929628E-005	-0.0004772	9
	26	71	751.7689	104.2497	-372.3514	1	386.6698	-74.35899	1.997964E-005	-0.0003776	9
	27	74	597.4265	114.8964	-458.2426	1	472.4272	-75.92426	4.243069E-006	-0.0001508	8
	28	76	477.4305	128.2769	-562.1254	1	576.576	-77.14523	4.409068E-007	0.0006491	8
	29	78	376.6741	145.5878	-698.7732	1	713.7785	-78.23093	4.41228E-007	0.000646	8
	30	80	298.2954	166.6608	-865.9843	1	881.8756	-79.10648	4.483725E-007	0.0006417	8
	31	83	237.7717	191.9204	-1066.929	1	1084.053	-79.80263	4.422021E-007	0.0006482	8
	32	85	189.0121	223.5751	-1318.133	1	1336.959	-80.3734	4.531093E-007	0.0006494	8
	33	88	150.2404	262.9512	-1628.702	1	1649.792	-80.82883	4.482105E-007	0.000644	8
	34	90	119.1737	311.9163	-2016.157	1	2040.142	-81.20559	4.45668E-007	0.000654	8
	35	93	95.0169	373.4454	-2484.957	1	2512.862	-81.45341	4.467545E-007	0.000651	8
	36	95	75.60484	451.269	-3068.027	1	3101.038	-81.63249	4.595877E-007	0.0006534	8
	37	98	54.50582	597.248	-4145.353	1	4188.156	-81.80145	4.481407E-007	0.0006444	8
	38	100	45.95588	703.252	-4866.491	1	4917.042	-81.77716	5.730482E-008	0.0006309	7
	39	103	37.20238	854.9214	-5910.577	1	5972.086	-81.76967	5.68642E-008	0.0006204	7
	40	105	30.04808	1048.136	-7190.876	1	7266.862	-81.70702	4.803609E-008	0.0006228	7
	41	107	23.91582	1297.176	-8842.032	1	8936.677	-81.65392	4.09932E-008	0.0006245	7
	42	110	18.60119	1665.626	-11133.04	1	11256.94	-81.49103	5.059366E-008	0.0006788	7
	43	112	15.02404	2052.552	-13531	1	13685.79	-81.37441	5.863955E-008	0.0006266	7
	44	114	12.01923	2574.588	-16588.02	1	16786.63	-81.17765	5.088857E-008	0.000626	7
	45	117	9.450605	3310.255	-20637.96	1	20901.75	-80.88757	5.344826E-008	0.0006293	7
	46	120	7.512019	4212.074	-25419.53	1	25766.14	-80.59145	5.868683E-008	0.0006094	7
	47	123	5.978954	5421.745	-31255.12	1	31721.88	-80.15898	5.770496E-008	0.0006315	7
	48	127	4.734848	7036.1	-38583.97	1	39220.27	-79.66521	6.106094E-008	0.0006487	7
	49	130	3.75601	9277.366	-47499.49	1	48397.01	-78.9484	9.800458E-009	0.000659	6
	50	136	3.004808	12130.92	-57890.63	1	59147.99	-78.16498	1.110296E-008	0.0006555	6
	51	142	2.372217	16301.43	-71149.98	1	72993.54	-77.09548	1.048497E-008	0.0006877	6
	52	146	1.878005	21981.83	-87274.8	1	90000.51	-75.86301	9.215385E-009	0.0006661	6
	53	151	1.512097	28930.76	-104808.7	1	108728.3	-74.56868	1.022793E-008	0.0005811	6
	54	156	1.201923	39350.19	-126714	1	132683.3	-72.74816	9.340093E-009	0.0006769	6
	55	163	0.956633	53106.61	-151638.4	1	160669	-70.69879	8.646793E-009	2.714425E-005	6
