EXPLAIN
TAG	EISPOT
TITLE	LABEL	Potentiostatic EIS	Test Identifier
DATE	LABEL	9/15/2020	Date
TIME	LABEL	9:42:38	Time
NOTES	NOTES	1	Notes...
	
PSTAT	PSTAT	REF3000-16137	Potentiostat
VDC	POTEN	0.00000E+000	T	DC Voltage (V)
FREQINIT	QUANT	3.00000E+005	Initial Freq. (Hz)
FREQFINAL	QUANT	1.00000E+000	Final Freq. (Hz)
PTSPERDEC	QUANT	1.00000E+001	Points/decade
VAC	QUANT	5.00000E+001	AC Voltage (mV rms)
AREA	QUANT	1.00000E+000	Sample Area (cm^2)
SPEED	SELECTOR	2	Optimize for:
ZGUESS	QUANT	1.00000E+003	Estimated Z (ohms)
EOC	QUANT	0	Open Circuit (V)
SEQUENCER	TOGGLE	TRUE	Run as Sequence
PSTATMODEL	IQUANT	5	Pstat Model
PSTATSECTION	LABEL	REF3000-16137	Pstat Section
PSTATSERIALNO	LABEL	16137	Pstat Serial Number
CTRLMODE	IQUANT	1	Control Mode
IESTAB	IQUANT	0	I/E Stability
CASPEED	IQUANT	1	Control Amp Speed
CONVENTION	IQUANT	1	Current Convention
ICHRANGE	IQUANT	2	Ich Range
ICHRANGEMODE	TOGGLE	F	Ich Auto Range
ICHOFFSETENABLE	TOGGLE	T	Ich Offset Enable
ICHOFFSET	QUANT	0	Ich Offset (V)
ICHFILTER	IQUANT	3	Ich Filter
VCHRANGE	IQUANT	2	Vch Range
VCHRANGEMODE	TOGGLE	F	Vch Auto Range
VCHOFFSETENABLE	TOGGLE	T	Vch Offset Enable
VCHOFFSET	QUANT	0	Vch Offset (V)
VCHFILTER	IQUANT	3	Vch Filter
ACHRANGE	IQUANT	2	Ach Range
ACHOFFSETENABLE	TOGGLE	F	Ach Offset Enable
ACHOFFSET	QUANT	0	Ach Offset (V)
ACHFILTER	IQUANT	3	Ach Filter
IERANGELOWERLIMIT	IQUANT	2	I/E Range Lower Limit
IERANGEMODE	TOGGLE	F	I/E AutoRange
IERANGE	IQUANT	11	I/E Range
POSFEEDENABLE	TOGGLE	F	Positive Feedback IR Comp
POSFEEDRESISTANCE	QUANT	0	Positive Feedback Resistance (ohm)
ACHSELECT	IQUANT	0	Ach Select
CABLEID	IQUANT	13	Cable ID
DCCALDATE	LABEL	7/31/2020	DC Calibration Date
ACCALDATE	LABEL	7/31/2020	AC Calibration Date
THERMOSELECT	IQUANT	1	Thermo Select
FRAMEWORKVERSION	QUANT	6.33	Framework Version
INSTRUMENTVERSION	LABEL	3.50	Instrument Version
COMPLIANCEVOLTAGE	IQUANT	0	Compliance Voltage
ZCURVE	TABLE
	Pt	Time	Freq	Zreal	Zimag	Zsig	Zmod	Zphz	Idc	Vdc	IERange
	#	s	Hz	ohm	ohm	V	ohm	°	A	V	#
	0	7	300046.9	148.8188	-7.836141	1	149.0249	-3.01416	-3.291805E-005	-0.0007029	9
	1	10	238359.4	147.0033	-8.953863	1	147.2758	-3.485537	-1.497277E-005	0.0011158	9
	2	13	189328.1	145.2833	-10.53652	1	145.6649	-4.148055	9.652122E-006	0.001009	9
	3	16	150421.9	144.2912	-11.61672	1	144.7581	-4.602891	4.748952E-005	-0.0002449	9
	4	19	119484.4	143.1867	-13.90333	1	143.8601	-5.545993	1.263676E-005	-0.0008242	9
	5	21	94921.88	142.7016	-15.4189	1	143.5322	-6.166883	1.413022E-005	-0.0007368	9
	6	24	75421.88	142.3893	-17.6078	1	143.4739	-7.049382	2.318331E-005	-0.0002549	9
	7	26	59859.37	142.5768	-19.96966	1	143.9685	-7.973119	-1.422955E-005	0.0008505	9
	8	29	47578.12	142.7614	-22.52904	1	144.5281	-8.967837	1.797861E-006	0.0005004	9
	9	31	37828.12	143.2056	-25.33598	1	145.4296	-10.03296	1.971121E-005	-0.0001745	9
	10	34	30046.88	143.7154	-28.44401	1	146.5031	-11.19524	2.417702E-005	-0.0007187	9
	11	36	23859.38	144.4607	-32.17996	1	148.0015	-12.55812	-1.730211E-005	0.0003963	9
	12	39	18984.38	145.2254	-36.58696	1	149.7632	-14.14039	6.843429E-006	-0.0005616	9
	13	41	15046.87	145.9532	-42.07758	1	151.8975	-16.08201	2.620177E-006	0.000531	9
	14	43	11953.13	146.7895	-48.72948	1	154.6665	-18.36454	2.306469E-005	-0.0003141	9
	15	46	9515.62	147.5531	-56.81908	1	158.1149	-21.06048	-1.399105E-005	0.0008406	9
	16	48	7546.875	148.3614	-67.31339	1	162.9178	-24.40438	1.207621E-005	0.0001973	9
	17	50	5928.309	149.1273	-81.22149	1	169.8113	-28.57471	2.459199E-005	-0.0004601	9
	18	53	4733.456	150.175	-97.3806	1	178.9846	-32.9613	2.487313E-005	-0.0004681	9
	19	55	3796.875	151.5729	-117.2794	1	191.6476	-37.73087	2.317874E-005	-0.000261	9
	20	57	2987.132	153.8089	-143.8259	1	210.578	-43.07895	2.313804E-005	-0.0007001	9
	21	59	2390.625	156.4248	-175.0299	1	234.7428	-48.21274	4.499556E-006	-0.0004839	9
	22	62	1884.191	160.5748	-214.8636	1	268.2361	-53.228	-9.926537E-006	8.729789E-007	9
	23	64	1516.544	165.5542	-261.876	1	309.8181	-57.69953	2.447559E-005	-0.0005933	9
	24	66	1193.986	171.669	-323.7109	1	366.4137	-62.06228	-2.545126E-006	-0.0002695	9
	25	69	946.5144	178.6976	-397.382	1	435.7124	-65.78716	5.649167E-006	-1.683985E-005	8
	26	71	751.7689	189.6528	-488.6347	1	524.1489	-68.78738	-4.67386E-006	0.0029305	8
	27	74	597.4265	202.1086	-601.3049	1	634.3623	-71.42165	-3.280509E-006	0.0028341	8
	28	76	477.4305	218.1843	-735.3132	1	767.0005	-73.47317	2.375818E-007	0.0006526	8
	29	78	376.6741	239.1257	-910.7587	1	941.6276	-75.28866	2.103969E-007	0.0006957	8
	30	81	298.2954	264.7633	-1124.439	1	1155.189	-76.75034	2.613139E-007	0.0006451	8
	31	83	237.7717	295.5578	-1379.933	1	1411.23	-77.91089	2.732704E-007	0.0006458	8
	32	85	189.0121	334.0782	-1698.115	1	1730.666	-78.87007	2.567967E-007	0.0006505	8
	33	88	150.2404	382.0228	-2090.087	1	2124.713	-79.64191	2.643119E-007	0.000645	8
	34	90	119.1737	441.6197	-2577.505	1	2615.064	-80.27757	2.822824E-007	0.0006438	8
	35	93	95.0169	515.5088	-3165.995	1	3207.69	-80.75188	2.90324E-007	0.0006477	8
	36	95	75.60484	607.4758	-3892.779	1	3939.892	-81.13042	2.967953E-007	0.0006423	8
	37	98	54.50582	784.4252	-5258.826	1	5317.008	-81.51611	2.596069E-008	0.0006201	7
	38	100	45.95588	903.5681	-6132.932	1	6199.136	-81.61887	3.432329E-008	0.0006221	7
	39	103	37.20238	1077.466	-7423.047	1	7500.837	-81.74111	3.343364E-008	0.0006156	7
	40	105	30.04808	1296.491	-9009.458	1	9102.265	-81.81116	2.838308E-008	0.0006196	7
	41	107	23.91582	1589.583	-11064.76	1	11178.35	-81.82472	2.963041E-008	0.0006114	7
	42	110	18.60119	2014.252	-13888.21	1	14033.52	-81.74775	3.651111E-008	0.00062	7
	43	112	15.02404	2445.67	-16823.88	1	17000.71	-81.72891	3.661006E-008	0.0006276	7
	44	114	12.01923	3032.116	-20553.97	1	20776.42	-81.60827	3.53841E-008	0.0006185	7
	45	117	9.450605	3848.681	-25506.4	1	25795.13	-81.41933	3.524737E-008	0.0006244	7
	46	120	7.512019	4800.375	-31319.63	1	31685.37	-81.28606	3.846119E-008	0.0006154	7
	47	123	5.978954	6065.556	-38328.98	1	38805.95	-81.00752	4.044623E-008	0.0006155	7
	48	127	4.734848	7815.69	-47174.82	1	47817.87	-80.59296	1.091044E-008	0.0006572	6
	49	130	3.75601	10045.55	-57847.09	1	58712.85	-80.14844	1.196404E-008	0.0006699	6
	50	136	3.004808	12969.74	-70138.42	1	71327.5	-79.52341	1.218207E-008	0.0007012	6
	51	142	2.372217	17196.19	-86102.64	1	87803.04	-78.70564	1.236606E-008	0.0007319	6
	52	146	1.878005	23128.5	-105281.3	1	107791.8	-77.60991	1.278226E-008	0.0006352	6
	53	151	1.512097	30446.35	-126457.8	1	130071.4	-76.46294	1.28967E-008	0.0007572	6
	54	156	1.201923	41315.54	-152898.6	1	158382.3	-74.87893	1.345427E-008	0.0006531	6
	55	163	0.956633	55904.34	-183406.6	1	191737.5	-73.0482	1.160062E-008	3.629693E-005	6
