EXPLAIN
TAG	EISPOT
TITLE	LABEL	Potentiostatic EIS	Test Identifier
DATE	LABEL	9/15/2020	Date
TIME	LABEL	3:53:57	Time
NOTES	NOTES	1	Notes...
	
PSTAT	PSTAT	REF3000-16137	Potentiostat
VDC	POTEN	0.00000E+000	T	DC Voltage (V)
FREQINIT	QUANT	3.00000E+005	Initial Freq. (Hz)
FREQFINAL	QUANT	1.00000E+000	Final Freq. (Hz)
PTSPERDEC	QUANT	1.00000E+001	Points/decade
VAC	QUANT	5.00000E+001	AC Voltage (mV rms)
AREA	QUANT	1.00000E+000	Sample Area (cm^2)
SPEED	SELECTOR	2	Optimize for:
ZGUESS	QUANT	1.00000E+003	Estimated Z (ohms)
EOC	QUANT	0	Open Circuit (V)
SEQUENCER	TOGGLE	TRUE	Run as Sequence
PSTATMODEL	IQUANT	5	Pstat Model
PSTATSECTION	LABEL	REF3000-16137	Pstat Section
PSTATSERIALNO	LABEL	16137	Pstat Serial Number
CTRLMODE	IQUANT	1	Control Mode
IESTAB	IQUANT	0	I/E Stability
CASPEED	IQUANT	1	Control Amp Speed
CONVENTION	IQUANT	1	Current Convention
ICHRANGE	IQUANT	2	Ich Range
ICHRANGEMODE	TOGGLE	F	Ich Auto Range
ICHOFFSETENABLE	TOGGLE	T	Ich Offset Enable
ICHOFFSET	QUANT	0	Ich Offset (V)
ICHFILTER	IQUANT	3	Ich Filter
VCHRANGE	IQUANT	2	Vch Range
VCHRANGEMODE	TOGGLE	F	Vch Auto Range
VCHOFFSETENABLE	TOGGLE	T	Vch Offset Enable
VCHOFFSET	QUANT	0	Vch Offset (V)
VCHFILTER	IQUANT	3	Vch Filter
ACHRANGE	IQUANT	2	Ach Range
ACHOFFSETENABLE	TOGGLE	F	Ach Offset Enable
ACHOFFSET	QUANT	0	Ach Offset (V)
ACHFILTER	IQUANT	3	Ach Filter
IERANGELOWERLIMIT	IQUANT	2	I/E Range Lower Limit
IERANGEMODE	TOGGLE	F	I/E AutoRange
IERANGE	IQUANT	11	I/E Range
POSFEEDENABLE	TOGGLE	F	Positive Feedback IR Comp
POSFEEDRESISTANCE	QUANT	0	Positive Feedback Resistance (ohm)
ACHSELECT	IQUANT	0	Ach Select
CABLEID	IQUANT	13	Cable ID
DCCALDATE	LABEL	7/31/2020	DC Calibration Date
ACCALDATE	LABEL	7/31/2020	AC Calibration Date
THERMOSELECT	IQUANT	1	Thermo Select
FRAMEWORKVERSION	QUANT	6.33	Framework Version
INSTRUMENTVERSION	LABEL	3.50	Instrument Version
COMPLIANCEVOLTAGE	IQUANT	0	Compliance Voltage
ZCURVE	TABLE
	Pt	Time	Freq	Zreal	Zimag	Zsig	Zmod	Zphz	Idc	Vdc	IERange
	#	s	Hz	ohm	ohm	V	ohm	°	A	V	#
	0	11	300046.9	299.796	-23.4372	1	300.7107	-4.47013	-1.829992E-005	0.0012111	9
	1	16	238359.4	302.4027	-23.99905	1	303.3535	-4.537553	7.502887E-005	-0.0032078	9
	2	25	189328.1	304.6263	-24.40195	1	305.6021	-4.579872	-0.0000956	0.0034584	9
	3	30	150421.9	306.8858	-25.4343	1	307.938	-4.737772	2.368269E-005	-0.0016925	9
	4	35	119484.4	308.995	-26.92942	1	310.1662	-4.980837	7.365645E-005	-0.0015606	9
	5	40	94921.88	312.4905	-29.45243	1	313.8754	-5.384259	2.737985E-005	-0.0004672	9
	6	43	75421.88	315.5987	-33.13133	1	317.3329	-5.992921	-2.149942E-006	-0.0004695	9
	7	47	59859.37	319.4345	-36.56391	1	321.5204	-6.529912	2.245558E-005	-0.0008573	9
	8	49	47578.12	322.8582	-40.36712	1	325.372	-7.126737	-1.933243E-005	0.0003991	9
	9	52	37828.12	328.1441	-45.62364	1	331.3006	-7.915396	1.885387E-005	-0.0007694	9
	10	55	30046.88	333.5304	-51.56374	1	337.4928	-8.788341	-2.166519E-005	0.0005101	9
	11	57	23859.38	339.6971	-57.76088	1	344.5728	-9.65007	-2.171133E-005	0.001039	9
	12	60	18984.38	345.5135	-64.81733	1	351.5407	-10.62503	8.964297E-006	-0.0007147	9
	13	62	15046.87	352.6425	-73.72755	1	360.2672	-11.80883	-2.211121E-005	0.0008629	9
	14	64	11953.13	360.0919	-83.74716	1	369.7022	-13.09263	-1.745867E-005	0.0010763	9
	15	67	9515.62	366.653	-94.12579	1	378.5421	-14.39785	7.722579E-006	-0.0006733	9
	16	69	7546.875	372.9931	-106.8616	1	387.999	-15.98688	5.671221E-006	0.0015798	8
	17	71	5928.309	380.175	-125.0442	1	400.2113	-18.20667	-1.098332E-005	0.0025882	8
	18	74	4733.456	387.4106	-145.9411	1	413.9877	-20.64185	-1.154442E-005	0.0033829	8
	19	76	3796.875	391.9728	-170.6998	1	427.529	-23.53259	-1.155949E-005	0.0018366	8
	20	78	2987.132	401.6835	-206.5375	1	451.6717	-27.2113	1.747605E-006	-0.0026893	8
	21	81	2390.625	409.3293	-247.418	1	478.295	-31.15075	1.321852E-005	-0.0027166	8
	22	83	1884.191	418.4916	-301.6352	1	515.8673	-35.78284	6.639352E-006	-0.0038558	8
	23	85	1516.544	426.9665	-367.0182	1	563.03	-40.68218	1.326891E-005	-0.0037383	8
	24	87	1193.986	440.2166	-450.8979	1	630.1584	-45.68673	1.290363E-005	-0.0035563	8
	25	90	946.5144	455.4941	-555.7402	1	718.5556	-50.66137	9.440071E-006	-0.0040202	8
	26	92	751.7689	469.8702	-683.2521	1	829.2234	-55.48383	-1.217899E-005	0.0035808	8
	27	95	597.4265	488.3498	-841.3016	1	972.766	-59.86615	1.38766E-006	0.0032519	8
	28	97	477.4305	513.9418	-1034.934	1	1155.52	-63.5913	-4.304539E-008	0.0006801	8
	29	99	376.6741	545.0037	-1286.348	1	1397.04	-67.03845	-2.47576E-009	0.0006402	8
	30	102	298.2954	582.5864	-1594.358	1	1697.464	-69.92744	-6.737785E-009	0.0006501	8
	31	104	237.7717	627.83	-1964.808	1	2062.678	-72.27937	-8.880878E-010	0.0006356	8
	32	107	189.0121	684.2305	-2428.352	1	2522.908	-74.26389	-2.650146E-008	0.0006453	8
	33	109	150.2404	754.0643	-3002.136	1	3095.389	-75.90036	-1.562636E-008	0.000641	8
	34	111	119.1737	841.6609	-3718.382	1	3812.448	-77.24594	-3.450848E-009	0.0006379	8
	35	114	95.0169	950.09	-4593.665	1	4690.887	-78.3145	-1.482009E-008	0.0006266	7
	36	116	75.60484	1082.122	-5673.78	1	5776.052	-79.20204	-1.286673E-008	0.0006209	7
	37	119	54.50582	1327.159	-7674.26	1	7788.171	-80.18851	-1.165396E-008	0.0005964	7
	38	121	45.95588	1488.378	-8987.302	1	9109.713	-80.59665	-1.017514E-008	0.0006035	7
	39	124	37.20238	1726.221	-10925.68	1	11061.2	-81.02168	-1.466657E-008	0.0006291	7
	40	126	30.04808	2019.469	-13306.78	1	13459.14	-81.3705	-1.033893E-008	0.0006043	7
	41	129	23.91582	2398.791	-16424.72	1	16598.97	-81.69083	-1.408217E-008	0.0006161	7
	42	131	18.60119	2930.325	-20728.88	1	20934.98	-81.95374	-1.242433E-008	0.0006134	7
	43	133	15.02404	3491.949	-25238.04	1	25478.47	-82.12254	-1.346733E-008	0.000631	7
	44	136	12.01923	4224.586	-31020.32	1	31306.67	-82.24473	-1.264297E-008	0.0006141	7
	45	138	9.450605	5195.252	-38715.76	1	39062.78	-82.35716	-9.888709E-009	0.0006275	7
	46	140	7.512019	6376.24	-47897.48	1	48320.03	-82.41721	-1.180617E-009	0.0006922	6
	47	143	5.978954	7812.749	-59081.73	1	59596.06	-82.46712	-1.316367E-009	0.0006522	6
	48	146	4.734848	9649.6	-73282.03	1	73914.62	-82.49859	-2.668771E-010	0.0006656	6
	49	149	3.75601	11890.39	-90661.03	1	91437.43	-82.52818	-1.480052E-009	0.000662	6
	50	155	3.004808	14528.77	-111307.5	1	112251.7	-82.56332	-1.007892E-009	0.0006573	6
	51	161	2.372217	18026.27	-138202.1	1	139372.8	-82.56863	-9.199249E-010	0.0006376	6
	52	166	1.878005	22557.14	-171772.1	1	173246.9	-82.51871	-1.526242E-009	0.0006661	6
	53	170	1.512097	27386.84	-209796	1	211576	-82.56264	-1.18425E-009	0.0005647	6
	54	176	1.201923	34472.27	-259648.8	1	261927.1	-82.43736	-1.544236E-009	0.000676	6
	55	182	0.956633	43152.35	-320347.3	1	323240.7	-82.32816	-1.484688E-009	2.302863E-005	6
