EXPLAIN
TAG	EISPOT
TITLE	LABEL	Potentiostatic EIS	Test Identifier
DATE	LABEL	9/15/2020	Date
TIME	LABEL	3:57:08	Time
NOTES	NOTES	1	Notes...
	
PSTAT	PSTAT	REF3000-16137	Potentiostat
VDC	POTEN	0.00000E+000	T	DC Voltage (V)
FREQINIT	QUANT	3.00000E+005	Initial Freq. (Hz)
FREQFINAL	QUANT	1.00000E+000	Final Freq. (Hz)
PTSPERDEC	QUANT	1.00000E+001	Points/decade
VAC	QUANT	5.00000E+001	AC Voltage (mV rms)
AREA	QUANT	1.00000E+000	Sample Area (cm^2)
SPEED	SELECTOR	2	Optimize for:
ZGUESS	QUANT	1.00000E+003	Estimated Z (ohms)
EOC	QUANT	0	Open Circuit (V)
SEQUENCER	TOGGLE	TRUE	Run as Sequence
PSTATMODEL	IQUANT	5	Pstat Model
PSTATSECTION	LABEL	REF3000-16137	Pstat Section
PSTATSERIALNO	LABEL	16137	Pstat Serial Number
CTRLMODE	IQUANT	1	Control Mode
IESTAB	IQUANT	0	I/E Stability
CASPEED	IQUANT	1	Control Amp Speed
CONVENTION	IQUANT	1	Current Convention
ICHRANGE	IQUANT	2	Ich Range
ICHRANGEMODE	TOGGLE	F	Ich Auto Range
ICHOFFSETENABLE	TOGGLE	T	Ich Offset Enable
ICHOFFSET	QUANT	0	Ich Offset (V)
ICHFILTER	IQUANT	3	Ich Filter
VCHRANGE	IQUANT	2	Vch Range
VCHRANGEMODE	TOGGLE	F	Vch Auto Range
VCHOFFSETENABLE	TOGGLE	T	Vch Offset Enable
VCHOFFSET	QUANT	0	Vch Offset (V)
VCHFILTER	IQUANT	3	Vch Filter
ACHRANGE	IQUANT	2	Ach Range
ACHOFFSETENABLE	TOGGLE	F	Ach Offset Enable
ACHOFFSET	QUANT	0	Ach Offset (V)
ACHFILTER	IQUANT	3	Ach Filter
IERANGELOWERLIMIT	IQUANT	2	I/E Range Lower Limit
IERANGEMODE	TOGGLE	F	I/E AutoRange
IERANGE	IQUANT	11	I/E Range
POSFEEDENABLE	TOGGLE	F	Positive Feedback IR Comp
POSFEEDRESISTANCE	QUANT	0	Positive Feedback Resistance (ohm)
ACHSELECT	IQUANT	0	Ach Select
CABLEID	IQUANT	13	Cable ID
DCCALDATE	LABEL	7/31/2020	DC Calibration Date
ACCALDATE	LABEL	7/31/2020	AC Calibration Date
THERMOSELECT	IQUANT	1	Thermo Select
FRAMEWORKVERSION	QUANT	6.33	Framework Version
INSTRUMENTVERSION	LABEL	3.50	Instrument Version
COMPLIANCEVOLTAGE	IQUANT	0	Compliance Voltage
ZCURVE	TABLE
	Pt	Time	Freq	Zreal	Zimag	Zsig	Zmod	Zphz	Idc	Vdc	IERange
	#	s	Hz	ohm	ohm	V	ohm	°	A	V	#
	0	11	300046.9	316.6741	-25.86153	1	317.7284	-4.668759	1.839771E-005	-0.0019895	9
	1	16	238359.4	318.6541	-25.61184	1	319.6817	-4.595273	-7.948885E-005	0.0036336	9
	2	22	189328.1	319.1156	-31.06902	1	320.6245	-5.560777	8.420333E-005	0.0001861	10
	3	27	150421.9	323.6832	-26.24244	1	324.7452	-4.635087	7.740122E-005	-0.0030324	9
	4	31	119484.4	326.5887	-30.77623	1	328.0356	-5.383396	1.757978E-005	0.0006099	10
	5	36	94921.88	329.1635	-31.34973	1	330.653	-5.440474	3.927782E-007	0.0006316	9
	6	39	75421.88	332.6108	-34.02826	1	334.3469	-5.84141	-3.645547E-007	-0.0004621	9
	7	41	59859.37	336.0911	-37.11236	1	338.1339	-6.301273	-1.181045E-005	-0.0000996	9
	8	44	47578.12	340.8473	-42.16418	1	343.4454	-7.051893	2.825202E-005	-0.0006486	9
	9	46	37828.12	345.6267	-47.29641	1	348.8477	-7.792098	-2.451042E-005	0.0008527	9
	10	49	30046.88	350.9822	-52.84759	1	354.9386	-8.562735	1.635446E-005	-0.0008524	9
	11	51	23859.38	357.4804	-59.42073	1	362.3852	-9.437472	-1.687021E-005	0.0010561	9
	12	54	18984.38	363.7384	-67.33772	1	369.9189	-10.48824	-9.75933E-006	0.000916	9
	13	56	15046.87	369.6862	-73.65411	1	376.952	-11.26773	5.968634E-006	-0.003699	8
	14	58	11953.13	377.1213	-83.96536	1	386.3556	-12.55206	-2.546564E-006	-0.0013951	8
	15	61	9515.62	384.5317	-95.4145	1	396.1926	-13.93545	1.362509E-005	-0.0036098	8
	16	63	7546.875	391.8404	-110.3421	1	407.0802	-15.7272	1.382439E-005	-0.0038124	8
	17	65	5928.309	400.2897	-128.713	1	420.4745	-17.82518	1.002553E-005	-0.000319	8
	18	67	4733.456	405.8154	-150.2065	1	432.7218	-20.31127	-6.215661E-006	-4.703492E-005	8
	19	70	3796.875	414.1338	-175.4888	1	449.7812	-22.96475	1.360961E-005	-0.0037533	8
	20	72	2987.132	421.6553	-211.7594	1	471.8424	-26.66626	5.980569E-006	-0.003676	8
	21	74	2390.625	429.5329	-251.8867	1	497.9412	-30.38821	-3.62073E-006	0.0046747	8
	22	77	1884.191	441.95	-307.3687	1	538.3264	-34.81796	-1.269753E-005	0.0037554	8
	23	79	1516.544	447.8244	-371.5549	1	581.8933	-39.68211	-3.446027E-006	0.0046667	8
	24	81	1193.986	461.9072	-457.7772	1	650.3216	-44.7427	1.259115E-005	-0.001861	8
	25	84	946.5144	474.0648	-564.2695	1	736.9786	-49.96507	-9.447186E-006	0.0015286	8
	26	86	751.7689	493.5111	-693.1219	1	850.865	-54.54868	-6.217612E-006	-5.737758E-005	8
	27	89	597.4265	513.633	-853.4858	1	996.121	-58.96021	-7.977591E-006	0.0055811	8
	28	91	477.4305	536.9549	-1048.112	1	1177.65	-62.87364	-2.001756E-008	0.0006561	8
	29	94	376.6741	568.4512	-1302.681	1	1421.307	-66.42498	-1.404596E-008	0.0006333	8
	30	96	298.2954	606.5674	-1614.388	1	1724.579	-69.4075	-3.808935E-008	0.0006547	8
	31	98	237.7717	652.2465	-1989.386	1	2093.582	-71.84759	-9.598143E-009	0.0006312	8
	32	101	189.0121	709.2971	-2458.649	1	2558.917	-73.90765	-2.494888E-008	0.0006463	8
	33	103	150.2404	779.9885	-3039.623	1	3138.103	-75.60802	-8.932248E-009	0.000654	8
	34	106	119.1737	867.4277	-3765.455	1	3864.075	-77.02739	4.677577E-010	0.0006395	8
	35	108	95.0169	978.436	-4651.478	1	4753.271	-78.12104	-1.480227E-008	0.0006276	7
	36	111	75.60484	1112.085	-5745.059	1	5851.703	-79.04461	-1.343704E-008	0.0006127	7
	37	113	54.50582	1359.405	-7771.825	1	7889.819	-80.07851	-1.227802E-008	0.0006079	7
	38	116	45.95588	1523.203	-9099.952	1	9226.553	-80.49759	-1.005716E-008	0.0006156	7
	39	118	37.20238	1763.75	-11059.59	1	11199.34	-80.93894	-1.447223E-008	0.0006266	7
	40	120	30.04808	2060.91	-13473.86	1	13630.57	-81.30366	-1.383973E-008	0.0006223	7
	41	123	23.91582	2451.265	-16645.06	1	16824.59	-81.62245	-1.278058E-008	0.0006046	7
	42	125	18.60119	2989.53	-20985.89	1	21197.75	-81.89252	-1.396344E-008	0.0006336	7
	43	128	15.02404	3551.152	-25557.7	1	25803.23	-82.0896	-1.172767E-008	0.0006278	7
	44	130	12.01923	4297.841	-31410.47	1	31703.14	-82.2087	-1.384521E-008	0.0006447	7
	45	132	9.450605	5293.846	-39212.48	1	39568.21	-82.31132	-9.825427E-009	0.0005981	7
	46	135	7.512019	6487.136	-48498.38	1	48930.31	-82.38135	-9.208534E-010	0.000668	6
	47	138	5.978954	7938.573	-59824.38	1	60348.79	-82.44112	-6.227657E-010	0.0006464	6
	48	141	4.734848	9794.3	-74235.84	1	74879.16	-82.48409	-1.68046E-009	0.0006722	6
	49	144	3.75601	12053.54	-91781.73	1	92569.84	-82.51826	-1.204067E-009	0.0006912	6
	50	149	3.004808	14781.14	-112628.4	1	113594.1	-82.52333	-1.575668E-009	0.0006799	6
	51	156	2.372217	18529.74	-140059.2	1	141279.6	-82.46357	-1.639541E-009	0.0005988	6
	52	160	1.878005	22736.76	-173886.5	1	175366.7	-82.55048	-1.173371E-009	0.0006653	6
	53	165	1.512097	27885.45	-211808.6	1	213636.4	-82.49992	-1.811907E-009	0.0006367	6
	54	170	1.201923	34632.8	-262666.8	1	264940.1	-82.48884	-1.37196E-009	0.0006892	6
	55	176	0.956633	43438.43	-324383.8	1	327279.3	-82.37286	-1.683529E-009	1.644754E-005	6
