EXPLAIN
TAG	EISPOT
TITLE	LABEL	Potentiostatic EIS	Test Identifier
DATE	LABEL	9/15/2020	Date
TIME	LABEL	0:51:26	Time
NOTES	NOTES	1	Notes...
	
PSTAT	PSTAT	REF3000-16137	Potentiostat
VDC	POTEN	0.00000E+000	T	DC Voltage (V)
FREQINIT	QUANT	3.00000E+005	Initial Freq. (Hz)
FREQFINAL	QUANT	1.00000E+000	Final Freq. (Hz)
PTSPERDEC	QUANT	1.00000E+001	Points/decade
VAC	QUANT	5.00000E+001	AC Voltage (mV rms)
AREA	QUANT	1.00000E+000	Sample Area (cm^2)
SPEED	SELECTOR	2	Optimize for:
ZGUESS	QUANT	1.00000E+003	Estimated Z (ohms)
EOC	QUANT	0	Open Circuit (V)
SEQUENCER	TOGGLE	TRUE	Run as Sequence
PSTATMODEL	IQUANT	5	Pstat Model
PSTATSECTION	LABEL	REF3000-16137	Pstat Section
PSTATSERIALNO	LABEL	16137	Pstat Serial Number
CTRLMODE	IQUANT	1	Control Mode
IESTAB	IQUANT	0	I/E Stability
CASPEED	IQUANT	1	Control Amp Speed
CONVENTION	IQUANT	1	Current Convention
ICHRANGE	IQUANT	2	Ich Range
ICHRANGEMODE	TOGGLE	F	Ich Auto Range
ICHOFFSETENABLE	TOGGLE	T	Ich Offset Enable
ICHOFFSET	QUANT	0	Ich Offset (V)
ICHFILTER	IQUANT	3	Ich Filter
VCHRANGE	IQUANT	2	Vch Range
VCHRANGEMODE	TOGGLE	F	Vch Auto Range
VCHOFFSETENABLE	TOGGLE	T	Vch Offset Enable
VCHOFFSET	QUANT	0	Vch Offset (V)
VCHFILTER	IQUANT	3	Vch Filter
ACHRANGE	IQUANT	2	Ach Range
ACHOFFSETENABLE	TOGGLE	F	Ach Offset Enable
ACHOFFSET	QUANT	0	Ach Offset (V)
ACHFILTER	IQUANT	3	Ach Filter
IERANGELOWERLIMIT	IQUANT	2	I/E Range Lower Limit
IERANGEMODE	TOGGLE	F	I/E AutoRange
IERANGE	IQUANT	11	I/E Range
POSFEEDENABLE	TOGGLE	F	Positive Feedback IR Comp
POSFEEDRESISTANCE	QUANT	0	Positive Feedback Resistance (ohm)
ACHSELECT	IQUANT	0	Ach Select
CABLEID	IQUANT	13	Cable ID
DCCALDATE	LABEL	7/31/2020	DC Calibration Date
ACCALDATE	LABEL	7/31/2020	AC Calibration Date
THERMOSELECT	IQUANT	1	Thermo Select
FRAMEWORKVERSION	QUANT	6.33	Framework Version
INSTRUMENTVERSION	LABEL	3.50	Instrument Version
COMPLIANCEVOLTAGE	IQUANT	0	Compliance Voltage
ZCURVE	TABLE
	Pt	Time	Freq	Zreal	Zimag	Zsig	Zmod	Zphz	Idc	Vdc	IERange
	#	s	Hz	ohm	ohm	V	ohm	°	A	V	#
	0	7	300046.9	50.14478	-1.754117	1	50.17545	-2.003449	3.293634E-006	-0.0014091	9
	1	10	238359.4	50.5658	-3.002779	1	50.65488	-3.398438	1.355762E-005	-0.0008408	9
	2	13	189328.1	51.14016	-4.158986	1	51.30899	-4.649361	-5.553746E-006	0.0006145	9
	3	16	150421.9	51.89933	-5.333223	1	52.17263	-5.867173	1.359572E-005	0.0004807	9
	4	18	119484.4	52.65831	-6.588721	1	53.0689	-7.131907	-4.08322E-006	0.0005251	9
	5	21	94921.88	53.55092	-7.631058	1	54.09191	-8.110102	3.252101E-006	0.0002688	9
	6	23	75421.88	54.41912	-9.026603	1	55.16267	-9.418011	3.682455E-006	0.0002423	9
	7	26	59859.37	55.3455	-10.54827	1	56.34173	-10.79056	2.682233E-006	-0.0003236	9
	8	28	47578.12	56.33726	-12.28325	1	57.66078	-12.29975	-9.328615E-006	9.325846E-005	9
	9	31	37828.12	57.37592	-14.25079	1	59.11922	-13.94862	-8.729722E-006	8.845783E-005	9
	10	33	30046.88	58.44123	-16.62728	1	60.76055	-15.88173	1.850737E-005	-0.0005657	9
	11	36	23859.38	59.49468	-19.48297	1	62.60354	-18.13228	-2.800868E-006	0.000568	9
	12	38	18984.38	60.5598	-22.95666	1	64.76494	-20.76043	-9.220575E-006	0.0001174	9
	13	40	15046.87	61.68142	-27.40108	1	67.49382	-23.95249	-1.475279E-005	0.0006663	9
	14	43	11953.13	62.79403	-32.95943	1	70.91836	-27.69416	-1.543523E-005	0.0006128	9
	15	45	9515.62	64.01717	-39.74489	1	75.35154	-31.83397	-1.647679E-005	0.0004656	9
	16	47	7546.875	65.4754	-48.36988	1	81.40437	-36.45509	9.88154E-006	7.877033E-005	9
	17	50	5928.309	67.21696	-59.58506	1	89.82483	-41.55566	1.772286E-005	-0.0001556	9
	18	52	4733.456	69.12637	-72.69885	1	100.3174	-46.44294	1.961856E-005	-0.0004592	9
	19	54	3796.875	71.41029	-88.67912	1	113.857	-51.15668	1.806173E-005	-0.0001451	9
	20	57	2987.132	74.42855	-109.7395	1	132.5986	-55.85374	2.007899E-005	-0.0004918	9
	21	59	2390.625	77.59328	-134.4253	1	155.2123	-60.00549	1.955349E-005	-0.0001895	9
	22	61	1884.191	82.08701	-166.5553	1	185.6851	-63.76355	-1.279576E-005	0.0006883	9
	23	64	1516.544	86.89228	-202.9307	1	220.7513	-66.82001	4.0792E-006	0.0003183	9
	24	66	1193.986	93.5899	-252.7679	1	269.5379	-69.68241	-3.13288E-006	0.0005386	9
	25	68	946.5144	101.4594	-312.3638	1	328.4283	-72.0056	1.465792E-005	-0.0005285	9
	26	71	751.7689	111.3586	-385.982	1	401.7249	-73.90676	-1.60215E-005	0.0005541	9
	27	73	597.4265	122.5234	-473.6986	1	489.2876	-75.49812	7.920253E-007	0.0012427	8
	28	75	477.4305	137.1963	-581.3358	1	597.3057	-76.72106	4.546124E-007	0.0006459	8
	29	78	376.6741	155.8236	-722.5148	1	739.1269	-77.82952	4.4424E-007	0.0006417	8
	30	80	298.2954	178.6021	-895.1895	1	912.8323	-78.71689	4.578506E-007	0.000651	8
	31	82	237.7717	206.1465	-1102.599	1	1121.704	-79.41	4.554323E-007	0.0006443	8
	32	85	189.0121	241.0315	-1361.767	1	1382.934	-79.96266	4.594565E-007	0.0006425	8
	33	87	150.2404	284.8662	-1681.812	1	1705.766	-80.38645	4.501178E-007	0.0006462	8
	34	90	119.1737	340.0621	-2081.024	1	2108.626	-80.71927	4.730679E-007	0.0006479	8
	35	92	95.0169	410.79	-2562.441	1	2595.16	-80.8923	4.720761E-007	0.0006418	8
	36	94	75.60484	500.8503	-3160.329	1	3199.771	-80.99464	4.608102E-007	0.0006469	8
	37	97	54.50582	676.9713	-4260.052	1	4313.506	-80.97054	4.603204E-007	0.000645	8
	38	100	45.95588	796.1175	-4987.939	1	5051.073	-80.93159	5.491562E-008	0.0006236	7
	39	102	37.20238	972.34	-6036.807	1	6114.612	-80.85004	5.05192E-008	0.000625	7
	40	104	30.04808	1193.211	-7321.099	1	7417.698	-80.74319	4.516297E-008	0.0006272	7
	41	107	23.91582	1490.862	-8995.731	1	9118.435	-80.5899	4.319797E-008	0.0006255	7
	42	109	18.60119	1874.176	-11257.39	1	11412.33	-80.54786	5.736738E-008	0.0006176	7
	43	111	15.02404	2286.258	-13609.16	1	13799.86	-80.46369	5.344274E-008	0.0006218	7
	44	114	12.01923	2801.909	-16606.77	1	16841.48	-80.4232	5.022842E-008	0.0006244	7
	45	116	9.450605	3469.501	-20604.05	1	20894.12	-80.44167	5.04589E-008	0.000618	7
	46	119	7.512019	4312.138	-25302.41	1	25667.22	-80.32835	5.457123E-008	0.000612	7
	47	122	5.978954	5336.323	-31063.54	1	31518.56	-80.25245	5.432986E-008	0.000626	7
	48	126	4.734848	6676.63	-38315.03	1	38892.4	-80.11511	5.584118E-008	0.0006007	7
	49	129	3.75601	8446.59	-47181.66	1	47931.76	-79.85027	7.914918E-009	0.0006845	6
	50	135	3.004808	10549.72	-57618.57	1	58576.42	-79.62431	6.986588E-009	0.0006836	6
	51	141	2.372217	13646.52	-71166.57	1	72463.15	-79.14503	6.623559E-009	0.0006189	6
	52	146	1.878005	17532.93	-87825.41	1	89558.4	-78.71024	7.812529E-009	0.0006586	6
	53	150	1.512097	22161.14	-106318.1	1	108603.2	-78.22576	6.746401E-009	0.0007237	6
	54	156	1.201923	29190.09	-130366.3	1	133594.3	-77.37917	7.528198E-009	0.0006733	6
	55	162	0.956633	38354.8	-158965.9	1	163527.5	-76.43511	5.889668E-009	2.951011E-005	6
