EXPLAIN
TAG	EISPOT
TITLE	LABEL	Potentiostatic EIS	Test Identifier
DATE	LABEL	9/15/2020	Date
TIME	LABEL	8:05:50	Time
NOTES	NOTES	1	Notes...
	
PSTAT	PSTAT	REF3000-16137	Potentiostat
VDC	POTEN	0.00000E+000	T	DC Voltage (V)
FREQINIT	QUANT	3.00000E+005	Initial Freq. (Hz)
FREQFINAL	QUANT	1.00000E+000	Final Freq. (Hz)
PTSPERDEC	QUANT	1.00000E+001	Points/decade
VAC	QUANT	5.00000E+001	AC Voltage (mV rms)
AREA	QUANT	1.00000E+000	Sample Area (cm^2)
SPEED	SELECTOR	2	Optimize for:
ZGUESS	QUANT	1.00000E+003	Estimated Z (ohms)
EOC	QUANT	0	Open Circuit (V)
SEQUENCER	TOGGLE	TRUE	Run as Sequence
PSTATMODEL	IQUANT	5	Pstat Model
PSTATSECTION	LABEL	REF3000-16137	Pstat Section
PSTATSERIALNO	LABEL	16137	Pstat Serial Number
CTRLMODE	IQUANT	1	Control Mode
IESTAB	IQUANT	0	I/E Stability
CASPEED	IQUANT	1	Control Amp Speed
CONVENTION	IQUANT	1	Current Convention
ICHRANGE	IQUANT	2	Ich Range
ICHRANGEMODE	TOGGLE	F	Ich Auto Range
ICHOFFSETENABLE	TOGGLE	T	Ich Offset Enable
ICHOFFSET	QUANT	0	Ich Offset (V)
ICHFILTER	IQUANT	3	Ich Filter
VCHRANGE	IQUANT	2	Vch Range
VCHRANGEMODE	TOGGLE	F	Vch Auto Range
VCHOFFSETENABLE	TOGGLE	T	Vch Offset Enable
VCHOFFSET	QUANT	0	Vch Offset (V)
VCHFILTER	IQUANT	3	Vch Filter
ACHRANGE	IQUANT	2	Ach Range
ACHOFFSETENABLE	TOGGLE	F	Ach Offset Enable
ACHOFFSET	QUANT	0	Ach Offset (V)
ACHFILTER	IQUANT	3	Ach Filter
IERANGELOWERLIMIT	IQUANT	2	I/E Range Lower Limit
IERANGEMODE	TOGGLE	F	I/E AutoRange
IERANGE	IQUANT	11	I/E Range
POSFEEDENABLE	TOGGLE	F	Positive Feedback IR Comp
POSFEEDRESISTANCE	QUANT	0	Positive Feedback Resistance (ohm)
ACHSELECT	IQUANT	0	Ach Select
CABLEID	IQUANT	13	Cable ID
DCCALDATE	LABEL	7/31/2020	DC Calibration Date
ACCALDATE	LABEL	7/31/2020	AC Calibration Date
THERMOSELECT	IQUANT	1	Thermo Select
FRAMEWORKVERSION	QUANT	6.33	Framework Version
INSTRUMENTVERSION	LABEL	3.50	Instrument Version
COMPLIANCEVOLTAGE	IQUANT	0	Compliance Voltage
ZCURVE	TABLE
	Pt	Time	Freq	Zreal	Zimag	Zsig	Zmod	Zphz	Idc	Vdc	IERange
	#	s	Hz	ohm	ohm	V	ohm	°	A	V	#
	0	14	300046.9	-47.0003	-4915.736	1	4915.96	-90.5478	-6.629862E-007	0.0015185	9
	1	38	238359.4	-31.85954	-6018.524	1	6018.609	-90.3033	-2.053651E-005	0.0011994	9
	2	64	189328.1	-551.3147	-7658.966	1	7678.783	-94.11722	-1.438945E-005	0.0017273	9
	3	72	150421.9	-173.2335	-9445.302	1	9446.891	-91.05073	-1.511913E-005	0.0018783	9
	4	83	119484.4	670.5769	-12094.76	1	12113.34	-86.82657	2.328084E-005	-0.0143833	8
	5	91	94921.88	614.3842	-14927.7	1	14940.34	-87.64319	-1.996676E-005	0.0113431	8
	6	98	75421.88	651.9436	-18725.46	1	18736.81	-88.006	-2.0248E-005	0.0027085	8
	7	107	59859.37	884.5919	-23548.43	1	23565.04	-87.84871	-9.034703E-007	-0.0051445	8
	8	114	47578.12	1228.727	-29544.48	1	29570.02	-87.61849	-9.207896E-006	-0.0022492	8
	9	122	37828.12	4011.085	-38062.01	1	38272.77	-83.98421	7.531088E-006	-0.0183696	7
	10	129	30046.88	4384.812	-47249.5	1	47452.52	-84.69807	-1.728705E-006	0.0223459	7
	11	137	23859.38	4886.369	-59255.63	1	59456.76	-85.28591	-7.303631E-006	0.0236469	7
	12	142	18984.38	4284.684	-73397.27	1	73522.23	-86.65906	2.730251E-006	0.0086553	7
	13	147	15046.87	6976.451	-92596.47	1	92858.91	-85.69133	-7.38575E-006	0.0191444	7
	14	154	11953.13	8584.142	-109433.3	1	109769.5	-85.5148	-2.037289E-005	0.0027361	8
	15	161	9515.62	3712.929	-139316.9	1	139366.4	-88.47337	8.251859E-006	-0.0077275	8
	16	169	7546.875	9710.24	-186221.8	1	186474.8	-87.01511	-3.853151E-006	0.0256445	7
	17	175	5928.309	22322.38	-211103.7	1	212280.7	-83.9639	-7.37367E-006	0.0187946	7
	18	181	4733.456	-395986.9	-602560.8	1	721030.6	-123.3119	-2.385338E-005	0.0051898	8
	19	189	3796.875	79980.98	-475330.4	1	482012.4	-80.44865	-2.381604E-005	0.0051815	8
	20	198	2987.132	-275964.3	-840441.9	1	884589.7	-108.1779	1.629485E-005	-0.0092337	8
	21	206	2390.625	58372.84	-577083.9	1	580028.7	-84.2241	-6.581965E-006	0.0259907	7
	22	214	1884.191	23065.25	-664835.8	1	665235.8	-88.01302	6.605029E-006	-0.0099444	7
	23	222	1516.544	-26663.9	-855582.8	1	855998.2	-91.78503	4.924275E-006	-0.0004665	7
	24	229	1193.986	-437763.4	-360084.3	1	566831.1	-140.5608	2.296205E-005	-0.0027044	8
	25	238	946.5144	-642829.1	-800302.4	1	1026505	-128.7726	-7.310401E-006	0.0237649	7
	26	244	751.7689	52563.66	235253.8	1	241054.6	77.40506	-1.218975E-005	0.010274	8
	27	251	597.4265	-76153.18	-279346.9	1	289541.1	-105.2489	1.636635E-005	-0.0093319	8
	28	257	477.4305	70883.75	-2852525	1	2853406	-88.57652	-9.236772E-008	0.0006637	7
	29	263	376.6741	502674	-3723904	1	3757678	-82.31236	-1.096084E-009	0.0007106	5
	30	267	298.2954	559690.6	-4655626	1	4689149	-83.14491	-8.866851E-010	0.0006102	5
	31	271	237.7717	674720.5	-5790140	1	5829320	-83.35334	-9.437348E-010	0.0006847	5
	32	274	189.0121	629900.6	-7217653	1	7245088	-85.01231	-9.568416E-010	0.0006884	5
	33	276	150.2404	727113.4	-8755964	1	8786103	-85.25293	-9.236276E-010	0.0005998	5
	34	279	119.1737	-2025732	-9.751019E+006	1	9.959215E+006	-101.736	-9.340332E-010	0.0006148	5
	35	282	95.0169	1135400	-1.39367E+007	1	1.398287E+007	-85.34249	-1.067357E-009	0.000676	5
	36	285	75.60484	2558718	-1.784201E+007	1	1.802455E+007	-81.83887	-9.219372E-010	0.0005945	5
	37	288	54.50582	2016640	-2.595756E+007	1	2.603578E+007	-85.55762	-1.021212E-009	0.000658	5
	38	291	45.95588	3017237	-3.240757E+007	1	3.254772E+007	-84.68093	-8.685873E-010	0.0005919	5
	39	295	37.20238	5280758	-3.995736E+007	1	4.03048E+007	-82.47143	-9.082096E-010	0.0006898	5
	40	298	30.04808	6605770	-4.516274E+007	1	4.564328E+007	-81.67859	-8.066037E-011	0.0005963	4
	41	303	23.91582	1.252904E+007	-5.402354E+007	1	5.545737E+007	-76.9429	-8.353526E-011	0.000676	4
	42	306	18.60119	-4.03735E+007	-1.416731E+008	1	1.473136E+008	-105.9063	-3.521687E-010	0.0006924	4
	43	310	15.02404	1.47925E+007	-8.543757E+007	1	8.670869E+007	-80.1773	-9.820296E-011	0.0006925	4
	44	313	12.01923	1.819251E+007	-1.056401E+008	1	1.071952E+008	-80.22882	-8.351132E-011	0.0006456	4
	45	317	9.450605	4.279938E+007	-1.261456E+008	1	1.332085E+008	-71.25867	-6.261702E-011	0.0006785	4
	46	321	7.512019	4.363843E+007	-1.671575E+008	1	1.727598E+008	-75.36882	-9.713979E-011	0.0006824	4
	47	326	5.978954	7.851071E+007	-1.834118E+008	1	1.99509E+008	-66.82632	-1.169067E-010	0.0006644	4
	48	331	4.734848	1.282177E+008	-2.545598E+008	1	2.850272E+008	-63.26634	-1.015603E-011	0.0007481	3
	49	336	3.75601	9.828174E+007	-2.705186E+008	1	2.878187E+008	-70.03348	-1.005436E-009	0.0007117	5
	50	344	3.004808	1.86198E+008	-3.097407E+008	1	3.613986E+008	-58.98818	-1.024454E-009	0.0007488	5
	51	353	2.372217	2.832385E+008	-3.810915E+008	1	4.748208E+008	-53.37917	-7.618951E-012	0.0006587	3
	52	360	1.878005	3.669879E+008	-4.166576E+008	1	5.55233E+008	-48.62671	-7.511725E-012	0.000729	3
	53	369	1.512097	4.543367E+008	-4.381426E+008	1	6.311821E+008	-43.96048	-7.336701E-012	0.0006111	3
	54	376	1.201923	5.533714E+008	-4.482749E+008	1	7.121588E+008	-39.01023	-7.319336E-012	0.0007304	3
	55	389	0.956633	6.511482E+008	-4.433668E+008	1	7.877615E+008	-34.25095	-7.993523E-012	7.733777E-005	3
