EXPLAIN
TAG	EISPOT
TITLE	LABEL	Potentiostatic EIS	Test Identifier
DATE	LABEL	9/15/2020	Date
TIME	LABEL	7:41:48	Time
NOTES	NOTES	1	Notes...
	
PSTAT	PSTAT	REF3000-16137	Potentiostat
VDC	POTEN	0.00000E+000	T	DC Voltage (V)
FREQINIT	QUANT	3.00000E+005	Initial Freq. (Hz)
FREQFINAL	QUANT	1.00000E+000	Final Freq. (Hz)
PTSPERDEC	QUANT	1.00000E+001	Points/decade
VAC	QUANT	5.00000E+001	AC Voltage (mV rms)
AREA	QUANT	1.00000E+000	Sample Area (cm^2)
SPEED	SELECTOR	2	Optimize for:
ZGUESS	QUANT	1.00000E+003	Estimated Z (ohms)
EOC	QUANT	0	Open Circuit (V)
SEQUENCER	TOGGLE	TRUE	Run as Sequence
PSTATMODEL	IQUANT	5	Pstat Model
PSTATSECTION	LABEL	REF3000-16137	Pstat Section
PSTATSERIALNO	LABEL	16137	Pstat Serial Number
CTRLMODE	IQUANT	1	Control Mode
IESTAB	IQUANT	0	I/E Stability
CASPEED	IQUANT	1	Control Amp Speed
CONVENTION	IQUANT	1	Current Convention
ICHRANGE	IQUANT	2	Ich Range
ICHRANGEMODE	TOGGLE	F	Ich Auto Range
ICHOFFSETENABLE	TOGGLE	T	Ich Offset Enable
ICHOFFSET	QUANT	0	Ich Offset (V)
ICHFILTER	IQUANT	3	Ich Filter
VCHRANGE	IQUANT	2	Vch Range
VCHRANGEMODE	TOGGLE	F	Vch Auto Range
VCHOFFSETENABLE	TOGGLE	T	Vch Offset Enable
VCHOFFSET	QUANT	0	Vch Offset (V)
VCHFILTER	IQUANT	3	Vch Filter
ACHRANGE	IQUANT	2	Ach Range
ACHOFFSETENABLE	TOGGLE	F	Ach Offset Enable
ACHOFFSET	QUANT	0	Ach Offset (V)
ACHFILTER	IQUANT	3	Ach Filter
IERANGELOWERLIMIT	IQUANT	2	I/E Range Lower Limit
IERANGEMODE	TOGGLE	F	I/E AutoRange
IERANGE	IQUANT	11	I/E Range
POSFEEDENABLE	TOGGLE	F	Positive Feedback IR Comp
POSFEEDRESISTANCE	QUANT	0	Positive Feedback Resistance (ohm)
ACHSELECT	IQUANT	0	Ach Select
CABLEID	IQUANT	13	Cable ID
DCCALDATE	LABEL	7/31/2020	DC Calibration Date
ACCALDATE	LABEL	7/31/2020	AC Calibration Date
THERMOSELECT	IQUANT	1	Thermo Select
FRAMEWORKVERSION	QUANT	6.33	Framework Version
INSTRUMENTVERSION	LABEL	3.50	Instrument Version
COMPLIANCEVOLTAGE	IQUANT	0	Compliance Voltage
ZCURVE	TABLE
	Pt	Time	Freq	Zreal	Zimag	Zsig	Zmod	Zphz	Idc	Vdc	IERange
	#	s	Hz	ohm	ohm	V	ohm	°	A	V	#
	0	21	300046.9	-50.79615	-4906.669	1	4906.932	-90.59313	-1.690518E-005	0.001764	9
	1	44	238359.4	34.05398	-6052.824	1	6052.92	-89.67765	-1.488481E-005	0.0017581	9
	2	58	189328.1	263.5131	-7562.501	1	7567.091	-88.00436	-6.110904E-005	0.0005193	9
	3	65	150421.9	-825.4133	-9074.521	1	9111.983	-95.1973	-2.065506E-005	0.0016332	9
	4	74	119484.4	977.62	-11508.51	1	11549.96	-85.14452	-7.884316E-005	0.0361962	8
	5	82	94921.88	578.6666	-14750.68	1	14762.03	-87.75345	2.254172E-005	-0.0096888	8
	6	90	75421.88	463.6869	-18456.19	1	18462.02	-88.56082	-1.200488E-005	0.0102927	8
	7	99	59859.37	380.93	-23195.67	1	23198.8	-89.05915	-9.211099E-007	-0.005132	8
	8	107	47578.12	4147.723	-30544.27	1	30824.6	-82.26688	-1.86314E-006	0.0222709	7
	9	114	37828.12	1146.803	-36743.18	1	36761.07	-88.2123	-2.487236E-005	0.011034	8
	10	122	30046.88	2259.856	-45396.47	1	45452.68	-87.15015	8.390433E-006	0.0041772	8
	11	131	23859.38	1129.668	-57819.36	1	57830.4	-88.88071	2.71202E-005	-0.0073485	8
	12	137	18984.38	1174.762	-71201.1	1	71210.79	-89.05475	1.639665E-005	-0.0092813	8
	13	145	15046.87	4601.283	-92671.35	1	92785.52	-87.15751	-5.322367E-006	0.0265051	7
	14	151	11953.13	1552.858	-116428.5	1	116438.8	-89.23586	-5.271625E-006	0.026628	7
	15	157	9515.62	6791.922	-145188.4	1	145347.2	-87.32166	-7.352632E-006	0.0234897	7
	16	163	7546.875	5336.25	-175546.4	1	175627.5	-88.25887	6.639247E-006	-0.0101219	7
	17	170	5928.309	16398.06	-242927.1	1	243480	-86.13828	-3.341123E-006	-0.0053644	7
	18	176	4733.456	159322.8	-157636.5	1	224127.2	-44.69516	-1.565352E-005	0.0005165	8
	19	184	3796.875	221.7109	-374659.3	1	374659.3	-89.96609	-1.90813E-006	0.0223392	7
	20	191	2987.132	92306.31	-450684.6	1	460040.3	-78.42513	1.310892E-006	-0.0201722	7
	21	199	2390.625	53222.36	-578267.6	1	580711.7	-84.74145	-7.550843E-007	0.0232626	6
	22	204	1884.191	78819.44	-728594.5	1	732845.4	-83.82574	-2.182798E-007	0.0226187	6
	23	210	1516.544	69186.99	-905824	1	908462.4	-85.63222	-2.812988E-007	-0.0074251	6
	24	215	1193.986	102566.5	-1159860	1	1164386	-84.94648	-3.967571E-009	0.0175474	6
	25	222	946.5144	100658.4	-1419105	1	1422670	-85.94276	-6.485146E-007	0.0102161	6
	26	225	751.7689	70393.49	-1652707	1	1654205	-87.56108	-2.786238E-007	-0.0074236	6
	27	230	597.4265	808670.8	-1876873	1	2043673	-66.69069	7.387954E-007	-0.0158167	6
	28	235	477.4305	364411.2	-2809616	1	2833149	-82.60991	-9.817142E-009	0.0006986	6
	29	240	376.6741	919105.8	-3585398	1	3701329	-75.62201	-1.009042E-009	0.000665	5
	30	244	298.2954	1190679	-4416048	1	4573751	-74.91043	-1.026931E-009	0.0006897	5
	31	248	237.7717	1517098	-5360158	1	5570717	-74.19677	-9.017307E-010	0.000581	5
	32	251	189.0121	2153996	-6637307	1	6978075	-72.02027	-8.799676E-010	0.0005999	5
	33	253	150.2404	2881353	-8217755	1	8708254	-70.67805	-9.603487E-010	0.000617	5
	34	256	119.1737	4140499	-7218592	1	8321767	-60.16193	-1.026079E-009	0.0006075	5
	35	259	95.0169	6096065	-1.128064E+007	1	1.282244E+007	-61.61319	-9.916955E-010	0.0005844	5
	36	262	75.60484	7112978	-1.232442E+007	1	1.422975E+007	-60.00881	-9.178964E-010	0.0006057	5
	37	265	54.50582	1.165598E+007	-1.460402E+007	1	1.868527E+007	-51.40541	-9.053682E-010	0.0006036	5
	38	268	45.95588	1.856822E+007	-1.446349E+007	1	2.35366E+007	-37.91638	-7.326879E-011	0.0006992	4
	39	270	37.20238	2.099407E+007	-1.393298E+007	1	2.519681E+007	-33.57074	-1.149689E-010	0.0007018	4
	40	273	30.04808	2.067584E+007	-1.406632E+007	1	2.500703E+007	-34.22849	-9.52123E-010	0.0006139	5
	41	277	23.91582	2.224342E+007	-1.17984E+007	1	2.51788E+007	-27.94247	-1.005074E-009	0.0006029	5
	42	281	18.60119	3.643806E+007	-6079668	1	3.694177E+007	-9.472508	-1.373125E-009	0.0006848	5
	43	285	15.02404	2.782022E+007	-1.053807E+007	1	2.974921E+007	-20.74628	-9.476202E-010	0.000592	5
	44	288	12.01923	2.94448E+007	-9396835	1	3.090788E+007	-17.69965	-9.568493E-010	0.0006381	5
	45	292	9.450605	3.093574E+007	-8805908	1	3.216464E+007	-15.88909	-9.516455E-010	0.0006809	5
	46	296	7.512019	3.149128E+007	-6662851	1	3.218842E+007	-11.94632	-9.715405E-010	0.0006661	5
	47	300	5.978954	3.165443E+007	-6195547	1	3.225504E+007	-11.07419	-1.021858E-009	0.0006365	5
	48	306	4.734848	3.294882E+007	-5710103	1	3.343995E+007	-9.83183	-1.034892E-009	0.0006566	5
	49	312	3.75601	3.423464E+007	-5141737	1	3.461861E+007	-8.541471	-1.067113E-009	0.0006632	5
	50	319	3.004808	3.418798E+007	-4924144	1	3.454077E+007	-8.196029	-9.178084E-010	0.0006324	5
	51	327	2.372217	3.5354E+007	-4358290	1	3.562162E+007	-7.027722	-9.059303E-011	0.0007208	4
	52	331	1.878005	3.613128E+007	-4423312	1	3.640104E+007	-6.979609	-1.047832E-010	0.0006289	4
	53	340	1.512097	3.698219E+007	-4612095	1	3.726867E+007	-7.108726	-1.181458E-010	0.0007036	4
	54	345	1.201923	3.870805E+007	-3439009	1	3.886052E+007	-5.077102	-1.203199E-011	0.0006863	3
	55	352	0.956633	3.960553E+007	-4067076	1	3.98138E+007	-5.863129	-5.201625E-011	8.485992E-005	3
