EXPLAIN
TAG	EISPOT
TITLE	LABEL	Potentiostatic EIS	Test Identifier
DATE	LABEL	9/15/2020	Date
TIME	LABEL	1:05:43	Time
NOTES	NOTES	1	Notes...
	
PSTAT	PSTAT	REF3000-16137	Potentiostat
VDC	POTEN	0.00000E+000	T	DC Voltage (V)
FREQINIT	QUANT	3.00000E+005	Initial Freq. (Hz)
FREQFINAL	QUANT	1.00000E+000	Final Freq. (Hz)
PTSPERDEC	QUANT	1.00000E+001	Points/decade
VAC	QUANT	5.00000E+001	AC Voltage (mV rms)
AREA	QUANT	1.00000E+000	Sample Area (cm^2)
SPEED	SELECTOR	2	Optimize for:
ZGUESS	QUANT	1.00000E+003	Estimated Z (ohms)
EOC	QUANT	0	Open Circuit (V)
SEQUENCER	TOGGLE	TRUE	Run as Sequence
PSTATMODEL	IQUANT	5	Pstat Model
PSTATSECTION	LABEL	REF3000-16137	Pstat Section
PSTATSERIALNO	LABEL	16137	Pstat Serial Number
CTRLMODE	IQUANT	1	Control Mode
IESTAB	IQUANT	0	I/E Stability
CASPEED	IQUANT	1	Control Amp Speed
CONVENTION	IQUANT	1	Current Convention
ICHRANGE	IQUANT	2	Ich Range
ICHRANGEMODE	TOGGLE	F	Ich Auto Range
ICHOFFSETENABLE	TOGGLE	T	Ich Offset Enable
ICHOFFSET	QUANT	0	Ich Offset (V)
ICHFILTER	IQUANT	3	Ich Filter
VCHRANGE	IQUANT	2	Vch Range
VCHRANGEMODE	TOGGLE	F	Vch Auto Range
VCHOFFSETENABLE	TOGGLE	T	Vch Offset Enable
VCHOFFSET	QUANT	0	Vch Offset (V)
VCHFILTER	IQUANT	3	Vch Filter
ACHRANGE	IQUANT	2	Ach Range
ACHOFFSETENABLE	TOGGLE	F	Ach Offset Enable
ACHOFFSET	QUANT	0	Ach Offset (V)
ACHFILTER	IQUANT	3	Ach Filter
IERANGELOWERLIMIT	IQUANT	2	I/E Range Lower Limit
IERANGEMODE	TOGGLE	F	I/E AutoRange
IERANGE	IQUANT	11	I/E Range
POSFEEDENABLE	TOGGLE	F	Positive Feedback IR Comp
POSFEEDRESISTANCE	QUANT	0	Positive Feedback Resistance (ohm)
ACHSELECT	IQUANT	0	Ach Select
CABLEID	IQUANT	13	Cable ID
DCCALDATE	LABEL	7/31/2020	DC Calibration Date
ACCALDATE	LABEL	7/31/2020	AC Calibration Date
THERMOSELECT	IQUANT	1	Thermo Select
FRAMEWORKVERSION	QUANT	6.33	Framework Version
INSTRUMENTVERSION	LABEL	3.50	Instrument Version
COMPLIANCEVOLTAGE	IQUANT	0	Compliance Voltage
ZCURVE	TABLE
	Pt	Time	Freq	Zreal	Zimag	Zsig	Zmod	Zphz	Idc	Vdc	IERange
	#	s	Hz	ohm	ohm	V	ohm	°	A	V	#
	0	7	300046.9	54.13328	-2.051257	1	54.17213	-2.170054	2.82232E-005	-0.0003877	9
	1	10	238359.4	54.74879	-3.308839	1	54.84869	-3.458564	-6.356983E-005	0.0014304	9
	2	13	189328.1	55.34773	-4.508443	1	55.53105	-4.656844	3.00518E-006	-0.0013	9
	3	15	150421.9	56.04133	-5.757531	1	56.33631	-5.865829	-2.867772E-005	-0.0001151	9
	4	18	119484.4	57.03015	-7.004417	1	57.45868	-7.001975	5.336621E-005	-0.0016916	9
	5	20	94921.88	57.95031	-8.124805	1	58.5171	-7.981015	2.924925E-006	-0.0003805	9
	6	23	75421.88	58.8936	-9.60646	1	59.67194	-9.26424	-1.628396E-005	0.0005991	9
	7	25	59859.37	59.89933	-11.18181	1	60.93409	-10.57408	-1.316858E-005	0.0002482	9
	8	28	47578.12	60.98478	-13.02095	1	62.35935	-12.05234	1.892456E-005	-0.0005726	9
	9	31	37828.12	62.11615	-15.08242	1	63.92101	-13.64786	2.011899E-005	-0.0003247	9
	10	33	30046.88	63.25302	-17.5029	1	65.63	-15.46743	-1.62952E-005	0.0004949	9
	11	36	23859.38	64.42564	-20.4856	1	67.60416	-17.63925	-1.573489E-005	0.0004172	9
	12	38	18984.38	65.57045	-24.06506	1	69.84705	-20.15368	-1.538016E-005	0.0003974	9
	13	40	15046.87	66.73858	-28.62778	1	72.61947	-23.2171	9.060825E-006	0.0002497	9
	14	43	11953.13	68.01125	-34.25688	1	76.15159	-26.73414	-2.626192E-006	0.0005266	9
	15	45	9515.62	69.33722	-41.25205	1	80.68074	-30.75045	-1.588699E-005	0.0006827	9
	16	47	7546.875	70.87415	-50.15981	1	86.82829	-35.28821	2.15263E-005	-0.0004326	9
	17	49	5928.309	72.60445	-61.78839	1	95.3374	-40.3987	-1.635047E-005	0.0004716	9
	18	52	4733.456	74.62529	-75.33414	1	106.0385	-45.27083	2.171206E-005	-0.0004284	9
	19	54	3796.875	76.97543	-91.64232	1	119.681	-49.97125	2.007243E-005	-0.0004039	9
	20	56	2987.132	80.04811	-113.6267	1	138.9919	-54.83595	-1.356819E-005	0.0002401	9
	21	59	2390.625	83.729	-138.8898	1	162.1756	-58.91655	-1.6144E-005	0.0004971	9
	22	61	1884.191	88.07763	-172.5878	1	193.7633	-62.96318	2.138545E-005	-0.0003977	9
	23	63	1516.544	93.09581	-210.1776	1	229.8727	-66.10959	1.889737E-005	-0.0005687	9
	24	66	1193.986	99.4359	-261.5887	1	279.8502	-69.18704	-3.103369E-006	0.0005451	9
	25	68	946.5144	107.8832	-323.6224	1	341.1308	-71.5636	2.015083E-005	-0.0002827	9
	26	71	751.7689	117.6533	-398.9089	1	415.8973	-73.56721	1.490045E-005	-0.0005554	9
	27	73	597.4265	129.4292	-490.6094	1	507.3948	-75.22134	-1.899462E-006	0.0018918	8
	28	75	477.4305	144.0892	-602.5012	1	619.4912	-76.55022	4.061267E-007	0.0006491	8
	29	77	376.6741	162.9423	-748.9485	1	766.4685	-77.72592	4.03523E-007	0.0006537	8
	30	80	298.2954	185.8538	-928.0192	1	946.4467	-78.67523	4.201716E-007	0.0006535	8
	31	82	237.7717	213.4055	-1143.147	1	1162.896	-79.42561	4.069877E-007	0.0006513	8
	32	85	189.0121	247.8701	-1412.04	1	1433.63	-80.04371	4.113844E-007	0.0006499	8
	33	87	150.2404	290.6765	-1744.127	1	1768.183	-80.53804	4.17907E-007	0.0006461	8
	34	89	119.1737	344.1098	-2159.446	1	2186.691	-80.94598	4.08239E-007	0.0006505	8
	35	92	95.0169	409.9848	-2659.618	1	2691.032	-81.23673	4.244181E-007	0.0006468	8
	36	94	75.60484	492.8507	-3284.043	1	3320.819	-81.46507	4.228118E-007	0.0006506	8
	37	97	54.50582	647.7604	-4438.964	1	4485.978	-81.69765	4.250557E-007	0.0006433	8
	38	99	45.95588	759.5298	-5209.709	1	5264.785	-81.70522	4.874735E-008	0.0006299	7
	39	102	37.20238	919.0053	-6328.746	1	6395.123	-81.73775	4.557275E-008	0.0006229	7
	40	104	30.04808	1127.851	-7708.521	1	7790.594	-81.67599	3.910279E-008	0.0006278	7
	41	107	23.91582	1400.625	-9493.644	1	9596.41	-81.60752	3.772275E-008	0.0006204	7
	42	109	18.60119	1803.757	-11983.17	1	12118.17	-81.43987	3.787055E-008	0.0006305	7
	43	111	15.02404	2266.341	-14539.14	1	14714.71	-81.14011	4.910533E-008	0.0006362	7
	44	113	12.01923	2879.555	-17805.13	1	18036.48	-80.81332	4.210962E-008	0.0006274	7
	45	116	9.450605	3709.012	-22120.27	1	22429.07	-80.48149	4.416667E-008	0.0006152	7
	46	119	7.512019	4810.611	-27143.96	1	27566.95	-79.95006	4.84779E-008	0.0006289	7
	47	122	5.978954	6151.776	-33224.17	1	33788.9	-79.50993	4.874491E-008	0.0006236	7
	48	126	4.734848	7932.938	-40800.42	1	41564.48	-78.9971	4.798516E-008	0.0006088	7
	49	129	3.75601	10248.41	-49874.64	1	50916.69	-78.3883	5.921098E-009	0.0006957	6
	50	135	3.004808	12955.01	-60456.18	1	61828.65	-77.90514	4.789588E-009	0.0006945	6
	51	141	2.372217	16607.08	-73975.08	1	75816.27	-77.34712	4.367046E-009	0.0006663	6
	52	145	1.878005	21248.94	-90532.35	1	92992.6	-76.79115	5.067065E-009	0.0007101	6
	53	150	1.512097	26475.38	-108910.1	1	112081.9	-76.33677	4.528124E-009	0.0007533	6
	54	155	1.201923	33952.62	-132491	1	136772.2	-75.62649	5.232458E-009	0.0006625	6
	55	162	0.956633	43438.75	-160608.5	1	166379.1	-74.86567	3.531708E-009	2.825484E-005	6
