EXPLAIN
TAG	EISPOT
TITLE	LABEL	Potentiostatic EIS	Test Identifier
DATE	LABEL	9/15/2020	Date
TIME	LABEL	3:47:21	Time
NOTES	NOTES	1	Notes...
	
PSTAT	PSTAT	REF3000-16137	Potentiostat
VDC	POTEN	0.00000E+000	T	DC Voltage (V)
FREQINIT	QUANT	3.00000E+005	Initial Freq. (Hz)
FREQFINAL	QUANT	1.00000E+000	Final Freq. (Hz)
PTSPERDEC	QUANT	1.00000E+001	Points/decade
VAC	QUANT	5.00000E+001	AC Voltage (mV rms)
AREA	QUANT	1.00000E+000	Sample Area (cm^2)
SPEED	SELECTOR	2	Optimize for:
ZGUESS	QUANT	1.00000E+003	Estimated Z (ohms)
EOC	QUANT	0	Open Circuit (V)
SEQUENCER	TOGGLE	TRUE	Run as Sequence
PSTATMODEL	IQUANT	5	Pstat Model
PSTATSECTION	LABEL	REF3000-16137	Pstat Section
PSTATSERIALNO	LABEL	16137	Pstat Serial Number
CTRLMODE	IQUANT	1	Control Mode
IESTAB	IQUANT	0	I/E Stability
CASPEED	IQUANT	1	Control Amp Speed
CONVENTION	IQUANT	1	Current Convention
ICHRANGE	IQUANT	2	Ich Range
ICHRANGEMODE	TOGGLE	F	Ich Auto Range
ICHOFFSETENABLE	TOGGLE	T	Ich Offset Enable
ICHOFFSET	QUANT	0	Ich Offset (V)
ICHFILTER	IQUANT	3	Ich Filter
VCHRANGE	IQUANT	2	Vch Range
VCHRANGEMODE	TOGGLE	F	Vch Auto Range
VCHOFFSETENABLE	TOGGLE	T	Vch Offset Enable
VCHOFFSET	QUANT	0	Vch Offset (V)
VCHFILTER	IQUANT	3	Vch Filter
ACHRANGE	IQUANT	2	Ach Range
ACHOFFSETENABLE	TOGGLE	F	Ach Offset Enable
ACHOFFSET	QUANT	0	Ach Offset (V)
ACHFILTER	IQUANT	3	Ach Filter
IERANGELOWERLIMIT	IQUANT	2	I/E Range Lower Limit
IERANGEMODE	TOGGLE	F	I/E AutoRange
IERANGE	IQUANT	11	I/E Range
POSFEEDENABLE	TOGGLE	F	Positive Feedback IR Comp
POSFEEDRESISTANCE	QUANT	0	Positive Feedback Resistance (ohm)
ACHSELECT	IQUANT	0	Ach Select
CABLEID	IQUANT	13	Cable ID
DCCALDATE	LABEL	7/31/2020	DC Calibration Date
ACCALDATE	LABEL	7/31/2020	AC Calibration Date
THERMOSELECT	IQUANT	1	Thermo Select
FRAMEWORKVERSION	QUANT	6.33	Framework Version
INSTRUMENTVERSION	LABEL	3.50	Instrument Version
COMPLIANCEVOLTAGE	IQUANT	0	Compliance Voltage
ZCURVE	TABLE
	Pt	Time	Freq	Zreal	Zimag	Zsig	Zmod	Zphz	Idc	Vdc	IERange
	#	s	Hz	ohm	ohm	V	ohm	°	A	V	#
	0	17	300046.9	269.5706	-19.89128	1	270.3035	-4.220137	-1.16774E-005	0.0009508	9
	1	24	238359.4	271.5043	-20.91223	1	272.3085	-4.404428	-2.785843E-005	-0.0008375	9
	2	30	189328.1	273.5251	-21.32266	1	274.3549	-4.45748	1.93595E-005	-0.0013001	9
	3	36	150421.9	276.1522	-25.9299	1	277.3669	-5.364181	-5.681044E-005	0.0006747	10
	4	41	119484.4	278.4642	-27.43852	1	279.8128	-5.627484	-2.152798E-005	0.000612	10
	5	45	94921.88	281.0761	-26.96662	1	282.3668	-5.480221	-2.192392E-005	0.0004547	9
	6	49	75421.88	284.6008	-30.14557	1	286.1929	-6.046356	-1.554748E-005	0.0001025	9
	7	52	59859.37	287.7615	-33.55724	1	289.7115	-6.65149	-9.45845E-006	0.0009325	9
	8	56	47578.12	292.0233	-37.92734	1	294.476	-7.400024	1.096575E-005	0.0003328	9
	9	60	37828.12	295.9981	-42.30774	1	299.0064	-8.13433	-2.05299E-005	0.0006284	9
	10	62	30046.88	301.4064	-47.51903	1	305.1293	-8.959373	-9.171241E-006	0.0008216	9
	11	65	23859.38	306.247	-54.16249	1	310.9997	-10.02955	2.367737E-005	-0.0003471	9
	12	68	18984.38	312.3427	-60.83401	1	318.2118	-11.02134	-1.670487E-006	-0.0004075	9
	13	70	15046.87	318.4464	-68.95177	1	325.8258	-12.2174	1.313833E-006	0.0006692	9
	14	72	11953.13	324.536	-77.87322	1	333.7482	-13.49316	1.086686E-005	0.0003444	9
	15	75	9515.62	331.1209	-89.2851	1	342.9474	-15.09062	2.243197E-005	-0.0008373	9
	16	77	7546.875	337.6739	-102.5418	1	352.9001	-16.89202	1.686837E-005	-0.0008212	9
	17	79	5928.309	344.0827	-119.7458	1	364.324	-19.18864	-1.895097E-005	0.0003787	9
	18	82	4733.456	350.7435	-141.4551	1	378.1938	-21.96425	-2.293078E-005	0.0006695	9
	19	84	3796.875	357.7316	-166.4841	1	394.5743	-24.95672	-1.643589E-005	0.000966	9
	20	86	2987.132	362.5316	-199.2151	1	413.6615	-28.78928	-2.515036E-006	-0.0012691	8
	21	89	2390.625	369.6334	-239.9065	1	440.6631	-32.98514	-6.907129E-006	0.0050565	8
	22	91	1884.191	378.8955	-293.3513	1	479.1835	-37.74802	1.252802E-005	-0.002497	8
	23	93	1516.544	386.692	-354.9858	1	524.9244	-42.55214	1.142816E-005	-0.0039091	8
	24	96	1193.986	398.2016	-438.6836	1	592.4591	-47.76937	8.75671E-006	-0.0038212	8
	25	98	946.5144	411.6174	-539.8378	1	678.8621	-52.67508	5.471726E-006	0.0015186	8
	26	101	751.7689	428.1331	-664.9011	1	790.817	-57.22231	-9.752202E-006	0.0051682	8
	27	103	597.4265	446.5524	-822.3488	1	935.7706	-61.49712	9.62571E-006	-0.000254	8
	28	106	477.4305	470.6201	-1008.326	1	1112.747	-64.97994	-1.593821E-008	0.0006546	8
	29	108	376.6741	500.8604	-1253.647	1	1349.997	-68.22217	2.379827E-008	0.000635	8
	30	110	298.2954	537.7043	-1554.094	1	1644.486	-70.91479	2.184513E-008	0.0006524	8
	31	113	237.7717	581.7066	-1915.267	1	2001.657	-73.10537	-8.398457E-009	0.0006522	8
	32	115	189.0121	636.7675	-2367.091	1	2451.243	-74.94339	2.767388E-008	0.0006423	8
	33	117	150.2404	705.1073	-2926.574	1	3010.317	-76.45375	1.630733E-008	0.0006559	8
	34	120	119.1737	789.7258	-3625.229	1	3710.25	-77.71059	2.408302E-008	0.000651	8
	35	122	95.0169	896.3625	-4477.616	1	4566.455	-78.67974	-1.416994E-008	0.0006748	7
	36	125	75.60484	1025.209	-5530.362	1	5624.585	-79.49783	-1.192141E-008	0.0006259	7
	37	127	54.50582	1264.561	-7479.743	1	7585.886	-80.40405	-1.261203E-008	0.0006229	7
	38	130	45.95588	1421.234	-8759.828	1	8874.373	-80.78438	-5.397652E-009	0.0006125	7
	39	132	37.20238	1651.888	-10647.58	1	10774.96	-81.18132	-7.488577E-009	0.000627	7
	40	134	30.04808	1938.565	-12969.57	1	13113.64	-81.49892	-7.805645E-009	0.0006243	7
	41	137	23.91582	2315.171	-16025.75	1	16192.11	-81.77959	-9.992969E-009	0.0006144	7
	42	139	18.60119	2823.357	-20194.43	1	20390.84	-82.04114	-6.615515E-009	0.0006097	7
	43	142	15.02404	3369.085	-24604.71	1	24834.3	-82.20306	-5.829011E-009	0.0006264	7
	44	144	12.01923	4087.792	-30244.7	1	30519.7	-82.3027	-1.017242E-008	0.0006217	7
	45	146	9.450605	5035.672	-37763.97	1	38098.24	-82.40465	-1.048453E-008	0.0006781	7
	46	149	7.512019	6208.463	-46670.73	1	47081.86	-82.42261	-1.113788E-009	0.0006646	6
	47	151	5.978954	7602.31	-57576.74	1	58076.47	-82.47829	-1.28815E-009	0.000683	6
	48	155	4.734848	9370.056	-71428.4	1	72040.37	-82.52655	2.36304E-010	0.0006653	6
	49	158	3.75601	11578.47	-88329.86	1	89085.49	-82.53213	-9.956558E-010	0.0006651	6
	50	163	3.004808	14171.7	-108407.9	1	109330.3	-82.55221	-1.903202E-010	0.0006573	6
	51	170	2.372217	17827.58	-134865.2	1	136038.3	-82.46983	-7.561671E-010	0.0007327	6
	52	174	1.878005	21971.38	-167490.4	1	168925.4	-82.52662	-1.307324E-009	0.0006509	6
	53	179	1.512097	26860.14	-204036.3	1	205796.7	-82.50048	-6.545078E-010	0.0006505	6
	54	184	1.201923	33804.81	-252953.2	1	255202	-82.38806	-1.124551E-009	0.0006354	6
	55	190	0.956633	42683.12	-312208.9	1	315113	-82.21516	-1.183507E-009	2.643852E-005	6
