EXPLAIN
TAG	EISPOT
TITLE	LABEL	Potentiostatic EIS	Test Identifier
DATE	LABEL	9/15/2020	Date
TIME	LABEL	4:27:15	Time
NOTES	NOTES	1	Notes...
	
PSTAT	PSTAT	REF3000-16137	Potentiostat
VDC	POTEN	0.00000E+000	T	DC Voltage (V)
FREQINIT	QUANT	3.00000E+005	Initial Freq. (Hz)
FREQFINAL	QUANT	1.00000E+000	Final Freq. (Hz)
PTSPERDEC	QUANT	1.00000E+001	Points/decade
VAC	QUANT	5.00000E+001	AC Voltage (mV rms)
AREA	QUANT	1.00000E+000	Sample Area (cm^2)
SPEED	SELECTOR	2	Optimize for:
ZGUESS	QUANT	1.00000E+003	Estimated Z (ohms)
EOC	QUANT	0	Open Circuit (V)
SEQUENCER	TOGGLE	TRUE	Run as Sequence
PSTATMODEL	IQUANT	5	Pstat Model
PSTATSECTION	LABEL	REF3000-16137	Pstat Section
PSTATSERIALNO	LABEL	16137	Pstat Serial Number
CTRLMODE	IQUANT	1	Control Mode
IESTAB	IQUANT	0	I/E Stability
CASPEED	IQUANT	1	Control Amp Speed
CONVENTION	IQUANT	1	Current Convention
ICHRANGE	IQUANT	2	Ich Range
ICHRANGEMODE	TOGGLE	F	Ich Auto Range
ICHOFFSETENABLE	TOGGLE	T	Ich Offset Enable
ICHOFFSET	QUANT	0	Ich Offset (V)
ICHFILTER	IQUANT	3	Ich Filter
VCHRANGE	IQUANT	2	Vch Range
VCHRANGEMODE	TOGGLE	F	Vch Auto Range
VCHOFFSETENABLE	TOGGLE	T	Vch Offset Enable
VCHOFFSET	QUANT	0	Vch Offset (V)
VCHFILTER	IQUANT	3	Vch Filter
ACHRANGE	IQUANT	2	Ach Range
ACHOFFSETENABLE	TOGGLE	F	Ach Offset Enable
ACHOFFSET	QUANT	0	Ach Offset (V)
ACHFILTER	IQUANT	3	Ach Filter
IERANGELOWERLIMIT	IQUANT	2	I/E Range Lower Limit
IERANGEMODE	TOGGLE	F	I/E AutoRange
IERANGE	IQUANT	11	I/E Range
POSFEEDENABLE	TOGGLE	F	Positive Feedback IR Comp
POSFEEDRESISTANCE	QUANT	0	Positive Feedback Resistance (ohm)
ACHSELECT	IQUANT	0	Ach Select
CABLEID	IQUANT	13	Cable ID
DCCALDATE	LABEL	7/31/2020	DC Calibration Date
ACCALDATE	LABEL	7/31/2020	AC Calibration Date
THERMOSELECT	IQUANT	1	Thermo Select
FRAMEWORKVERSION	QUANT	6.33	Framework Version
INSTRUMENTVERSION	LABEL	3.50	Instrument Version
COMPLIANCEVOLTAGE	IQUANT	0	Compliance Voltage
ZCURVE	TABLE
	Pt	Time	Freq	Zreal	Zimag	Zsig	Zmod	Zphz	Idc	Vdc	IERange
	#	s	Hz	ohm	ohm	V	ohm	°	A	V	#
	0	14	300046.9	561.7081	-71.67059	1	566.262	-7.271308	5.520166E-005	-0.0001386	9
	1	28	238359.4	568.2967	-63.97448	1	571.8862	-6.422879	8.420311E-005	-0.0033404	9
	2	36	189328.1	574.0604	-60.16923	1	577.2051	-5.983518	7.592422E-005	-0.0015919	9
	3	45	150421.9	578.1581	-57.94855	1	581.055	-5.723617	4.989322E-005	8.203921E-006	9
	4	51	119484.4	583.8203	-36.05676	1	584.9327	-3.534101	6.185241E-006	-0.0043571	8
	5	55	94921.88	589.741	-36.88668	1	590.8935	-3.579031	-1.15795E-005	0.001389	8
	6	58	75421.88	593.154	-43.02835	1	594.7126	-4.149061	-1.406118E-005	0.0027972	8
	7	60	59859.37	597.8842	-49.05081	1	599.8929	-4.69008	-8.458916E-007	0.0045361	8
	8	63	47578.12	603.1319	-55.12212	1	605.6456	-5.221934	-1.13846E-005	0.0014392	8
	9	65	37828.12	609.8766	-63.67881	1	613.1921	-5.960803	1.598532E-005	-0.0023129	8
	10	68	30046.88	616.9587	-71.99966	1	621.1458	-6.656363	2.624801E-007	0.0045386	8
	11	70	23859.38	625.0931	-79.6812	1	630.1512	-7.264369	-1.160913E-005	0.0075835	8
	12	73	18984.38	635.1253	-91.89429	1	641.7388	-8.232815	1.522097E-005	-0.0012358	8
	13	75	15046.87	646.2513	-104.1213	1	654.5854	-9.152597	-1.175948E-005	0.0015255	8
	14	78	11953.13	658.8466	-117.4845	1	669.2394	-10.11063	-2.30711E-006	-0.002418	8
	15	81	9515.62	671.8168	-133.2889	1	684.9114	-11.2218	3.250342E-006	-0.0040883	8
	16	83	7546.875	684.9223	-150.9108	1	701.3506	-12.4256	4.545714E-006	-0.004483	8
	17	85	5928.309	700.1066	-172.0081	1	720.9272	-13.80351	1.355757E-005	-0.005902	8
	18	88	4733.456	710.6552	-195.0359	1	736.9327	-15.34669	1.287639E-005	-0.000313	8
	19	90	3796.875	725.9566	-223.8714	1	759.6917	-17.13878	-1.151608E-005	0.0073909	8
	20	93	2987.132	741.0775	-263.3686	1	786.4852	-19.5645	1.398161E-007	0.004702	8
	21	96	2390.625	752.8049	-307.5396	1	813.2009	-22.22124	-1.102253E-005	0.0070735	8
	22	99	1884.191	770.1206	-368.9547	1	853.9399	-25.59847	-1.443186E-005	0.0028384	8
	23	101	1516.544	784.4087	-440.7777	1	899.7678	-29.33266	-1.421772E-005	0.002761	8
	24	104	1193.986	798.7518	-535.0294	1	961.385	-33.81544	6.65238E-006	0.002365	8
	25	107	946.5144	813.7879	-653.1282	1	1043.469	-38.74976	-6.300148E-006	0.006308	8
	26	110	751.7689	836.1062	-804.1981	1	1160.09	-43.88559	9.319795E-006	-0.0054322	8
	27	112	597.4265	864.6814	-979.273	1	1306.388	-48.55605	-1.42413E-005	0.0027462	8
	28	115	477.4305	892.1062	-1199.118	1	1494.569	-53.35191	-1.483929E-007	0.000645	8
	29	117	376.6741	928.77	-1487.036	1	1753.251	-58.012	-1.132917E-007	0.0006344	8
	30	120	298.2954	972.821	-1840.229	1	2081.543	-62.13722	-1.144118E-007	0.0006344	8
	31	122	237.7717	1025.259	-2265.568	1	2486.755	-65.65137	-1.41022E-007	0.0006463	8
	32	124	189.0121	1090.502	-2798.562	1	3003.522	-68.71087	-1.367049E-007	0.0006419	8
	33	127	150.2404	1170.347	-3457.662	1	3650.361	-71.3001	-1.370046E-007	0.0006478	8
	34	129	119.1737	1275.037	-4291.114	1	4476.536	-73.45152	-2.65889E-008	0.0006105	7
	35	131	95.0169	1394.97	-5289.678	1	5470.524	-75.22656	-3.267029E-008	0.0006311	7
	36	134	75.60484	1545.588	-6534.702	1	6714.996	-76.69294	-3.010643E-008	0.0005966	7
	37	137	54.50582	1828.086	-8845.098	1	9032.035	-78.32265	-3.386569E-008	0.0006318	7
	38	139	45.95588	2011.271	-10357.21	1	10550.68	-79.01048	-3.352981E-008	0.0006291	7
	39	141	37.20238	2285.781	-12588.98	1	12794.81	-79.70892	-2.853329E-008	0.0005989	7
	40	144	30.04808	2625.006	-15339.61	1	15562.59	-80.28926	-2.816773E-008	0.0006109	7
	41	146	23.91582	3074.364	-18943.95	1	19191.79	-80.78198	-2.900149E-008	0.0006156	7
	42	149	18.60119	3699.133	-23875.89	1	24160.74	-81.19308	-2.921401E-008	0.0005937	7
	43	151	15.02404	4337.988	-29090.38	1	29412.04	-81.51849	-3.095132E-008	0.0006279	7
	44	153	12.01923	5184.754	-35747.18	1	36121.22	-81.7474	-2.831462E-008	0.0006119	7
	45	156	9.450605	6336.495	-44651.45	1	45098.82	-81.92308	-3.283223E-009	0.0006948	6
	46	158	7.512019	7655.737	-55149.88	1	55678.72	-82.09689	-3.044415E-009	0.0006939	6
	47	161	5.978954	9307.486	-68063.23	1	68696.67	-82.21323	-2.885095E-009	0.0006621	6
	48	164	4.734848	11475.13	-84395.1	1	85171.66	-82.25703	-3.399555E-009	0.0007015	6
	49	167	3.75601	14066.32	-104495.8	1	105438.3	-82.33342	-2.996777E-009	0.0006667	6
	50	173	3.004808	17161.07	-128256.8	1	129399.8	-82.37895	-3.639208E-009	0.0007069	6
	51	179	2.372217	21154.16	-159274.4	1	160673	-82.43449	-3.684747E-009	0.0007014	6
	52	183	1.878005	26380.65	-197516.1	1	199270	-82.39248	-3.486635E-009	0.0006294	6
	53	188	1.512097	32221.01	-240996.1	1	243140.6	-82.38476	-3.442581E-009	0.0007523	6
	54	193	1.201923	39502.78	-297929.6	1	300537	-82.44715	-3.347336E-009	0.0006277	6
	55	200	0.956633	48394.24	-367746.7	1	370917.2	-82.50314	-3.709195E-009	1.62106E-005	6
