EXPLAIN
TAG	EISPOT
TITLE	LABEL	Potentiostatic EIS	Test Identifier
DATE	LABEL	9/15/2020	Date
TIME	LABEL	1:17:08	Time
NOTES	NOTES	1	Notes...
	
PSTAT	PSTAT	REF3000-16137	Potentiostat
VDC	POTEN	0.00000E+000	T	DC Voltage (V)
FREQINIT	QUANT	3.00000E+005	Initial Freq. (Hz)
FREQFINAL	QUANT	1.00000E+000	Final Freq. (Hz)
PTSPERDEC	QUANT	1.00000E+001	Points/decade
VAC	QUANT	5.00000E+001	AC Voltage (mV rms)
AREA	QUANT	1.00000E+000	Sample Area (cm^2)
SPEED	SELECTOR	2	Optimize for:
ZGUESS	QUANT	1.00000E+003	Estimated Z (ohms)
EOC	QUANT	0	Open Circuit (V)
SEQUENCER	TOGGLE	TRUE	Run as Sequence
PSTATMODEL	IQUANT	5	Pstat Model
PSTATSECTION	LABEL	REF3000-16137	Pstat Section
PSTATSERIALNO	LABEL	16137	Pstat Serial Number
CTRLMODE	IQUANT	1	Control Mode
IESTAB	IQUANT	0	I/E Stability
CASPEED	IQUANT	1	Control Amp Speed
CONVENTION	IQUANT	1	Current Convention
ICHRANGE	IQUANT	2	Ich Range
ICHRANGEMODE	TOGGLE	F	Ich Auto Range
ICHOFFSETENABLE	TOGGLE	T	Ich Offset Enable
ICHOFFSET	QUANT	0	Ich Offset (V)
ICHFILTER	IQUANT	3	Ich Filter
VCHRANGE	IQUANT	2	Vch Range
VCHRANGEMODE	TOGGLE	F	Vch Auto Range
VCHOFFSETENABLE	TOGGLE	T	Vch Offset Enable
VCHOFFSET	QUANT	0	Vch Offset (V)
VCHFILTER	IQUANT	3	Vch Filter
ACHRANGE	IQUANT	2	Ach Range
ACHOFFSETENABLE	TOGGLE	F	Ach Offset Enable
ACHOFFSET	QUANT	0	Ach Offset (V)
ACHFILTER	IQUANT	3	Ach Filter
IERANGELOWERLIMIT	IQUANT	2	I/E Range Lower Limit
IERANGEMODE	TOGGLE	F	I/E AutoRange
IERANGE	IQUANT	11	I/E Range
POSFEEDENABLE	TOGGLE	F	Positive Feedback IR Comp
POSFEEDRESISTANCE	QUANT	0	Positive Feedback Resistance (ohm)
ACHSELECT	IQUANT	0	Ach Select
CABLEID	IQUANT	13	Cable ID
DCCALDATE	LABEL	7/31/2020	DC Calibration Date
ACCALDATE	LABEL	7/31/2020	AC Calibration Date
THERMOSELECT	IQUANT	1	Thermo Select
FRAMEWORKVERSION	QUANT	6.33	Framework Version
INSTRUMENTVERSION	LABEL	3.50	Instrument Version
COMPLIANCEVOLTAGE	IQUANT	0	Compliance Voltage
ZCURVE	TABLE
	Pt	Time	Freq	Zreal	Zimag	Zsig	Zmod	Zphz	Idc	Vdc	IERange
	#	s	Hz	ohm	ohm	V	ohm	°	A	V	#
	0	7	300046.9	58.22644	-2.283708	1	58.27121	-2.246055	2.378987E-006	-0.0014623	9
	1	10	238359.4	58.6846	-3.569529	1	58.79306	-3.480764	-6.013194E-005	0.0020771	9
	2	13	189328.1	59.36357	-4.820452	1	59.55896	-4.642357	-3.629255E-006	0.00069	9
	3	16	150421.9	60.14677	-5.952364	1	60.44058	-5.651816	5.851154E-005	-0.0021333	9
	4	18	119484.4	61.05465	-7.409127	1	61.50256	-6.919147	-4.729943E-005	0.0009945	9
	5	21	94921.88	62.07667	-8.554813	1	62.66337	-7.846533	1.994842E-005	-0.00051	9
	6	23	75421.88	63.04676	-10.1033	1	63.85116	-9.104298	2.090682E-005	-0.0005785	9
	7	26	59859.37	64.12199	-11.79201	1	65.19724	-10.42024	-1.378627E-005	0.0007189	9
	8	28	47578.12	65.27859	-13.65654	1	66.6918	-11.81609	3.784105E-006	-0.000374	9
	9	31	37828.12	66.49191	-15.77539	1	68.33766	-13.34681	1.041118E-005	-0.0005306	9
	10	34	30046.88	67.73088	-18.29964	1	70.15945	-15.11928	1.555104E-005	-0.0005854	9
	11	36	23859.38	68.97076	-21.33689	1	72.19577	-17.19005	1.991533E-005	-0.0005767	9
	12	38	18984.38	70.22415	-25.04985	1	74.55821	-19.63197	-1.691378E-005	0.0006667	9
	13	41	15046.87	71.52985	-29.74058	1	77.46626	-22.57649	1.584379E-005	-0.0005785	9
	14	43	11953.13	72.81064	-35.53347	1	81.01862	-26.01357	-1.141595E-005	8.124689E-005	9
	15	45	9515.62	74.22177	-42.65376	1	85.60499	-29.88512	-1.739741E-005	0.0006284	9
	16	48	7546.875	75.76836	-51.91278	1	91.84651	-34.41703	4.299417E-006	-0.0003738	9
	17	50	5928.309	77.65582	-63.8382	1	100.5273	-39.42245	1.898877E-005	-0.0005734	9
	18	52	4733.456	79.69439	-77.64455	1	111.2649	-44.25359	-2.732826E-006	-0.000169	9
	19	55	3796.875	82.04034	-94.66982	1	125.2717	-49.08798	2.18158E-005	-0.0002277	9
	20	57	2987.132	85.2544	-117.152	1	144.8893	-53.95569	2.08637E-005	-0.0005055	9
	21	59	2390.625	88.74198	-143.3427	1	168.5891	-58.23878	2.135826E-005	-0.0003942	9
	22	61	1884.191	93.47374	-177.8871	1	200.9507	-62.27957	-1.529391E-005	0.000412	9
	23	64	1516.544	98.6635	-216.8273	1	238.2196	-65.53292	-9.821467E-006	0.0006837	9
	24	66	1193.986	105.963	-269.3213	1	289.4169	-68.52312	-3.585051E-006	-0.0001511	9
	25	69	946.5144	115.4361	-333.5842	1	352.9928	-70.91193	9.703869E-006	-0.0004897	9
	26	71	751.7689	122.5933	-411.075	1	428.9659	-73.39404	-9.960791E-006	0.000698	9
	27	73	597.4265	136.2152	-506.2699	1	524.2745	-74.94083	5.026075E-006	-0.000776	8
	28	76	477.4305	150.6824	-621.4304	1	639.438	-76.37017	3.444476E-007	0.0007025	8
	29	78	376.6741	169.8891	-772.5727	1	791.0315	-77.59802	3.862155E-007	0.0006429	8
	30	80	298.2954	193.1691	-957.427	1	976.72	-78.59322	3.958249E-007	0.0006441	8
	31	83	237.7717	221.1242	-1179.571	1	1200.119	-79.38248	3.907553E-007	0.0006481	8
	32	85	189.0121	255.959	-1457.31	1	1479.617	-80.03829	3.918837E-007	0.0006407	8
	33	87	150.2404	299.1718	-1800.372	1	1825.059	-80.56525	3.909104E-007	0.0006458	8
	34	90	119.1737	353.7773	-2229.506	1	2257.4	-80.9835	3.958376E-007	0.0006412	8
	35	92	95.0169	419.3301	-2746.996	1	2778.817	-81.32078	4.035548E-007	0.0006414	8
	36	95	75.60484	502.8252	-3392.103	1	3429.168	-81.56821	3.915713E-007	0.0006429	8
	37	97	54.50582	661.3557	-4586.882	1	4634.315	-81.7954	4.012373E-007	0.0006435	8
	38	100	45.95588	766.3547	-5381.164	1	5435.46	-81.89477	4.718939E-008	0.0006249	7
	39	102	37.20238	922.929	-6534.503	1	6599.358	-81.96075	4.206184E-008	0.0006285	7
	40	105	30.04808	1119.624	-7958.893	1	8037.259	-81.99242	3.553173E-008	0.0006235	7
	41	107	23.91582	1376.198	-9808.15	1	9904.22	-82.01287	3.301479E-008	0.000621	7
	42	109	18.60119	1739.851	-12390.25	1	12511.81	-82.00674	3.645642E-008	0.0006281	7
	43	112	15.02404	2163.265	-15073.6	1	15228.04	-81.83305	4.261552E-008	0.000614	7
	44	114	12.01923	2718.761	-18501.96	1	18700.65	-81.64053	4.232448E-008	0.000612	7
	45	117	9.450605	3483.675	-23045.07	1	23306.89	-81.4038	4.45534E-008	0.0006265	7
	46	119	7.512019	4474.277	-28444.73	1	28794.47	-81.06078	4.619157E-008	0.0006321	7
	47	122	5.978954	5762.844	-34989.25	1	35460.66	-80.64716	4.363147E-008	0.0006198	7
	48	126	4.734848	7516.2	-43175.73	1	43825.07	-80.12469	4.86182E-008	0.000648	7
	49	130	3.75601	9912.25	-53111.52	1	54028.56	-79.42846	5.483367E-009	0.0006441	6
	50	135	3.004808	12826.72	-64657.71	1	65917.71	-78.77941	5.940484E-009	0.0006738	6
	51	142	2.372217	17014.1	-79574.16	1	81372.76	-77.93106	5.546345E-009	0.0007401	6
	52	146	1.878005	22244.54	-97377	1	99885.4	-77.1323	4.365617E-009	0.0006428	6
	53	151	1.512097	28519.64	-116775.2	1	120207.4	-76.27549	5.371744E-009	0.0006729	6
	54	156	1.201923	37236.68	-141945.4	1	146748.3	-75.30075	4.751653E-009	0.0006431	6
	55	162	0.956633	48317.36	-171339.9	1	178022.3	-74.2517	4.161935E-009	2.519251E-005	6
