EXPLAIN
TAG	EISPOT
TITLE	LABEL	Potentiostatic EIS	Test Identifier
DATE	LABEL	9/15/2020	Date
TIME	LABEL	5:58:46	Time
NOTES	NOTES	1	Notes...
	
PSTAT	PSTAT	REF3000-16137	Potentiostat
VDC	POTEN	0.00000E+000	T	DC Voltage (V)
FREQINIT	QUANT	3.00000E+005	Initial Freq. (Hz)
FREQFINAL	QUANT	1.00000E+000	Final Freq. (Hz)
PTSPERDEC	QUANT	1.00000E+001	Points/decade
VAC	QUANT	5.00000E+001	AC Voltage (mV rms)
AREA	QUANT	1.00000E+000	Sample Area (cm^2)
SPEED	SELECTOR	2	Optimize for:
ZGUESS	QUANT	1.00000E+003	Estimated Z (ohms)
EOC	QUANT	0	Open Circuit (V)
SEQUENCER	TOGGLE	TRUE	Run as Sequence
PSTATMODEL	IQUANT	5	Pstat Model
PSTATSECTION	LABEL	REF3000-16137	Pstat Section
PSTATSERIALNO	LABEL	16137	Pstat Serial Number
CTRLMODE	IQUANT	1	Control Mode
IESTAB	IQUANT	0	I/E Stability
CASPEED	IQUANT	1	Control Amp Speed
CONVENTION	IQUANT	1	Current Convention
ICHRANGE	IQUANT	2	Ich Range
ICHRANGEMODE	TOGGLE	F	Ich Auto Range
ICHOFFSETENABLE	TOGGLE	T	Ich Offset Enable
ICHOFFSET	QUANT	0	Ich Offset (V)
ICHFILTER	IQUANT	3	Ich Filter
VCHRANGE	IQUANT	2	Vch Range
VCHRANGEMODE	TOGGLE	F	Vch Auto Range
VCHOFFSETENABLE	TOGGLE	T	Vch Offset Enable
VCHOFFSET	QUANT	0	Vch Offset (V)
VCHFILTER	IQUANT	3	Vch Filter
ACHRANGE	IQUANT	2	Ach Range
ACHOFFSETENABLE	TOGGLE	F	Ach Offset Enable
ACHOFFSET	QUANT	0	Ach Offset (V)
ACHFILTER	IQUANT	3	Ach Filter
IERANGELOWERLIMIT	IQUANT	2	I/E Range Lower Limit
IERANGEMODE	TOGGLE	F	I/E AutoRange
IERANGE	IQUANT	11	I/E Range
POSFEEDENABLE	TOGGLE	F	Positive Feedback IR Comp
POSFEEDRESISTANCE	QUANT	0	Positive Feedback Resistance (ohm)
ACHSELECT	IQUANT	0	Ach Select
CABLEID	IQUANT	13	Cable ID
DCCALDATE	LABEL	7/31/2020	DC Calibration Date
ACCALDATE	LABEL	7/31/2020	AC Calibration Date
THERMOSELECT	IQUANT	1	Thermo Select
FRAMEWORKVERSION	QUANT	6.33	Framework Version
INSTRUMENTVERSION	LABEL	3.50	Instrument Version
COMPLIANCEVOLTAGE	IQUANT	0	Compliance Voltage
ZCURVE	TABLE
	Pt	Time	Freq	Zreal	Zimag	Zsig	Zmod	Zphz	Idc	Vdc	IERange
	#	s	Hz	ohm	ohm	V	ohm	°	A	V	#
	0	17	300046.9	1871.431	-4033.553	1	4446.55	-65.11031	-2.556565E-007	0.00152	9
	1	37	238359.4	2597.548	-4503.931	1	5199.293	-60.0267	2.882801E-005	-0.0020502	9
	2	59	189328.1	3529.038	-5023.314	1	6139.039	-54.91074	-2.144313E-005	0.0011164	9
	3	66	150421.9	4937.082	-4852.623	1	6922.624	-44.5057	1.452493E-006	-0.0018983	9
	4	73	119484.4	6073.683	-5092.188	1	7925.907	-39.97654	2.502219E-005	0.0079101	8
	5	81	94921.88	7027.605	-4957.581	1	8600.281	-35.20082	2.183615E-005	-0.0093989	8
	6	90	75421.88	7906.871	-4839.605	1	9270.404	-31.4698	-1.987053E-005	0.0011424	9
	7	98	59859.37	8910.33	-4151.775	1	9830.12	-24.9832	-2.402368E-005	0.010732	8
	8	107	47578.12	9557.97	-3667.004	1	10237.27	-20.98978	8.224505E-006	0.0040596	8
	9	115	37828.12	10709.05	-2312.067	1	10955.79	-12.18307	-6.9049E-006	0.0167757	7
	10	119	30046.88	10917.8	-1969.379	1	11094	-10.22519	6.647027E-006	-0.0252315	7
	11	125	23859.38	11044.7	-1680.363	1	11171.79	-8.650756	3.751744E-006	-0.0238715	7
	12	129	18984.38	11160.08	-1469.744	1	11256.44	-7.502485	6.672743E-006	-0.0250914	7
	13	133	15046.87	11248.82	-1333.41	1	11327.57	-6.76017	-6.879887E-006	0.0214178	7
	14	137	11953.13	11388.53	-1166.973	1	11448.16	-5.850631	5.994104E-006	-0.0079319	7
	15	142	9515.62	11589.63	-1148.114	1	11646.36	-5.657482	7.11892E-006	-0.0162632	7
	16	146	7546.875	11615.62	-1107.312	1	11668.28	-5.445528	-6.902731E-006	0.0216156	7
	17	150	5928.309	11670.01	-1168.204	1	11728.34	-5.716441	-4.721904E-006	0.001893	7
	18	154	4733.456	11887.31	-1090.977	1	11937.26	-5.243725	7.067774E-006	-0.0161945	7
	19	159	3796.875	11992.15	-1218.747	1	12053.92	-5.802976	-6.678958E-007	-0.0135823	7
	20	163	2987.132	12122.81	-1370.24	1	12200.01	-6.448766	6.677533E-006	-0.0252012	7
	21	167	2390.625	12540.71	-1422.022	1	12621.08	-6.469277	3.500711E-006	-0.0231755	7
	22	171	1884.191	12575.54	-1690.287	1	12688.63	-7.655284	-2.100552E-006	0.0217911	7
	23	176	1516.544	12755.14	-1814.977	1	12883.62	-8.098467	-6.883364E-006	0.0167918	7
	24	180	1193.986	13020.15	-2107.194	1	13189.56	-9.193099	-5.354271E-006	0.025361	7
	25	185	946.5144	13227.66	-2164.953	1	13403.65	-9.295113	-3.826139E-006	0.0241621	7
	26	187	751.7689	13544.24	-2600.792	1	13791.68	-10.86974	-4.677598E-006	0.0018944	7
	27	190	597.4265	13658	-2618.882	1	13906.82	-10.85455	6.585556E-006	-0.0249381	7
	28	192	477.4305	14079.05	-3187.229	1	14435.31	-12.75567	-8.771703E-008	0.0006439	7
	29	195	376.6741	14395.17	-3612.837	1	14841.62	-14.08884	-7.889638E-008	0.0005887	7
	30	197	298.2954	14703.48	-4121.218	1	15270.13	-15.65757	-8.771877E-008	0.0006222	7
	31	199	237.7717	14996.76	-4729.521	1	15724.86	-17.50369	-8.473503E-008	0.0005982	7
	32	202	189.0121	15284.63	-5497.796	1	16243.32	-19.78338	-8.442505E-008	0.0006028	7
	33	204	150.2404	15575.49	-6469.81	1	16865.77	-22.55722	-7.762856E-008	0.0005749	7
	34	207	119.1737	15878.27	-7699.348	1	17646.52	-25.86867	-7.768651E-008	0.0005928	7
	35	209	95.0169	16174.38	-9245.251	1	18630.22	-29.75222	-8.450347E-008	0.000599	7
	36	212	75.60484	16504.1	-11189.43	1	19939.62	-34.13646	-7.963542E-008	0.0005684	7
	37	214	54.50582	17042.08	-14857.16	1	22609.02	-41.08169	-8.736657E-008	0.0006352	7
	38	217	45.95588	17384.25	-17269.8	1	24504.25	-44.81078	-8.704116E-008	0.0006268	7
	39	219	37.20238	17862.28	-20871.49	1	27471.44	-49.44237	-7.703973E-008	0.0005886	7
	40	221	30.04808	18439.39	-25329.04	1	31330.04	-53.9456	-7.963165E-008	0.0006171	7
	41	224	23.91582	19172.02	-31183.84	1	36605.98	-58.41653	-7.955077E-008	0.0005656	7
	42	226	18.60119	20185.63	-39312.83	1	44192.29	-62.82124	-9.254113E-009	0.0006113	6
	43	228	15.02404	21261.01	-47863.73	1	52373.34	-66.04926	-8.70672E-009	0.0006287	6
	44	231	12.01923	22587	-58816.7	1	63004.58	-68.99203	-9.070348E-009	0.0006088	6
	45	233	9.450605	24341.23	-73414.7	1	77344.77	-71.65665	-8.406873E-009	0.0006605	6
	46	236	7.512019	26433.49	-90807.84	1	94576.92	-73.77011	-8.402859E-009	0.000637	6
	47	239	5.978954	29061.31	-112190.6	1	115893.4	-75.47758	-9.296503E-009	0.0007149	6
	48	243	4.734848	32477.9	-139329.4	1	143064.7	-76.87858	-9.225375E-009	0.0007247	6
	49	246	3.75601	36523.11	-172619.1	1	176440.6	-78.05343	-9.283865E-009	0.0006846	6
	50	252	3.004808	41556.3	-212217.9	1	216248.4	-78.92059	-9.18105E-009	0.0007269	6
	51	258	2.372217	48197.96	-264365.1	1	268722.8	-79.66755	-9.035429E-009	0.0007356	6
	52	263	1.878005	56348.55	-328134.1	1	332937.2	-80.25597	-9.11389E-009	0.0006363	6
	53	267	1.512097	66305.06	-400748.2	1	406196.3	-80.60534	-8.935474E-009	0.0007589	6
	54	273	1.201923	78956.19	-496728.6	1	502964.6	-80.96826	-8.82265E-010	0.000631	5
	55	279	0.956633	94180.7	-612819.8	1	620014.6	-81.26291	-1.070897E-009	1.406145E-005	5
