EXPLAIN
TAG	EISPOT
TITLE	LABEL	Potentiostatic EIS	Test Identifier
DATE	LABEL	9/15/2020	Date
TIME	LABEL	1:59:59	Time
NOTES	NOTES	1	Notes...
	
PSTAT	PSTAT	REF3000-16137	Potentiostat
VDC	POTEN	0.00000E+000	T	DC Voltage (V)
FREQINIT	QUANT	3.00000E+005	Initial Freq. (Hz)
FREQFINAL	QUANT	1.00000E+000	Final Freq. (Hz)
PTSPERDEC	QUANT	1.00000E+001	Points/decade
VAC	QUANT	5.00000E+001	AC Voltage (mV rms)
AREA	QUANT	1.00000E+000	Sample Area (cm^2)
SPEED	SELECTOR	2	Optimize for:
ZGUESS	QUANT	1.00000E+003	Estimated Z (ohms)
EOC	QUANT	0	Open Circuit (V)
SEQUENCER	TOGGLE	TRUE	Run as Sequence
PSTATMODEL	IQUANT	5	Pstat Model
PSTATSECTION	LABEL	REF3000-16137	Pstat Section
PSTATSERIALNO	LABEL	16137	Pstat Serial Number
CTRLMODE	IQUANT	1	Control Mode
IESTAB	IQUANT	0	I/E Stability
CASPEED	IQUANT	1	Control Amp Speed
CONVENTION	IQUANT	1	Current Convention
ICHRANGE	IQUANT	2	Ich Range
ICHRANGEMODE	TOGGLE	F	Ich Auto Range
ICHOFFSETENABLE	TOGGLE	T	Ich Offset Enable
ICHOFFSET	QUANT	0	Ich Offset (V)
ICHFILTER	IQUANT	3	Ich Filter
VCHRANGE	IQUANT	2	Vch Range
VCHRANGEMODE	TOGGLE	F	Vch Auto Range
VCHOFFSETENABLE	TOGGLE	T	Vch Offset Enable
VCHOFFSET	QUANT	0	Vch Offset (V)
VCHFILTER	IQUANT	3	Vch Filter
ACHRANGE	IQUANT	2	Ach Range
ACHOFFSETENABLE	TOGGLE	F	Ach Offset Enable
ACHOFFSET	QUANT	0	Ach Offset (V)
ACHFILTER	IQUANT	3	Ach Filter
IERANGELOWERLIMIT	IQUANT	2	I/E Range Lower Limit
IERANGEMODE	TOGGLE	F	I/E AutoRange
IERANGE	IQUANT	11	I/E Range
POSFEEDENABLE	TOGGLE	F	Positive Feedback IR Comp
POSFEEDRESISTANCE	QUANT	0	Positive Feedback Resistance (ohm)
ACHSELECT	IQUANT	0	Ach Select
CABLEID	IQUANT	13	Cable ID
DCCALDATE	LABEL	7/31/2020	DC Calibration Date
ACCALDATE	LABEL	7/31/2020	AC Calibration Date
THERMOSELECT	IQUANT	1	Thermo Select
FRAMEWORKVERSION	QUANT	6.33	Framework Version
INSTRUMENTVERSION	LABEL	3.50	Instrument Version
COMPLIANCEVOLTAGE	IQUANT	0	Compliance Voltage
ZCURVE	TABLE
	Pt	Time	Freq	Zreal	Zimag	Zsig	Zmod	Zphz	Idc	Vdc	IERange
	#	s	Hz	ohm	ohm	V	ohm	°	A	V	#
	0	7	300046.9	78.83115	-3.641918	1	78.91523	-2.645125	2.084121E-005	-0.0008274	9
	1	10	238359.4	79.52865	-4.985884	1	79.68478	-3.587345	3.284157E-006	-0.0015104	9
	2	13	189328.1	80.38194	-6.50264	1	80.64453	-4.624973	2.822255E-005	7.934729E-005	9
	3	16	150421.9	81.48231	-8.022858	1	81.87633	-5.623294	-4.121154E-005	0.0007494	9
	4	18	119484.4	82.37243	-9.349478	1	82.90133	-6.475502	-6.287457E-005	0.0027034	9
	5	21	94921.88	83.61431	-10.77585	1	84.30582	-7.343555	4.121854E-006	0.000397	9
	6	23	75421.88	84.91095	-12.62395	1	85.84424	-8.456385	1.846799E-005	-0.0001484	9
	7	26	59859.37	86.35346	-14.64385	1	87.58632	-9.62467	-2.489251E-006	-0.0002534	9
	8	28	47578.12	87.91808	-16.85833	1	89.51979	-10.85473	1.054582E-005	0.0001571	9
	9	31	37828.12	89.55965	-19.2882	1	91.61314	-12.15398	2.280604E-005	-0.0004764	9
	10	33	30046.88	91.24493	-22.14993	1	93.89493	-13.64475	-3.012254E-006	-0.0002252	9
	11	36	23859.38	92.9846	-25.5696	1	96.4362	-15.37559	-1.866356E-005	0.0004572	9
	12	38	18984.38	94.69881	-29.68284	1	99.2418	-17.40332	-1.657779E-005	0.0003839	9
	13	40	15046.87	96.4542	-34.83367	1	102.5514	-19.85678	1.165561E-005	-0.0006059	9
	14	43	11953.13	98.3688	-41.14863	1	106.6284	-22.70004	1.472763E-005	-0.000536	9
	15	45	9515.62	99.9866	-49.0645	1	111.3761	-26.13768	-1.912618E-005	0.0006614	9
	16	47	7546.875	101.9113	-59.26034	1	117.8885	-30.17754	-1.935437E-005	0.0006009	9
	17	50	5928.309	104.162	-72.37996	1	126.8408	-34.79461	-1.336985E-005	0.0001796	9
	18	52	4733.456	106.6818	-87.87014	1	138.2106	-39.47712	-1.910805E-005	0.0007602	9
	19	54	3796.875	109.3184	-107.0195	1	152.9826	-44.39119	1.148672E-005	0.0001043	9
	20	57	2987.132	112.7366	-132.0676	1	173.6416	-49.515	2.295985E-005	-0.000431	9
	21	59	2390.625	116.6957	-161.4908	1	199.2415	-54.14757	-1.641765E-005	0.0007701	9
	22	61	1884.191	121.677	-199.9504	1	234.0629	-58.67799	1.695097E-005	-0.0006414	9
	23	64	1516.544	127.6575	-243.792	1	275.1927	-62.36197	-1.906126E-005	0.0007495	9
	24	66	1193.986	135.2588	-303.3308	1	332.1212	-65.96735	1.922001E-005	-0.00015	9
	25	68	946.5144	143.8639	-375.0308	1	401.6776	-69.01291	-1.825281E-005	0.000699	9
	26	71	751.7689	155.1663	-460.8595	1	486.2798	-71.39219	6.132192E-006	-0.0008162	8
	27	73	597.4265	169.3779	-568.8016	1	593.4847	-73.4175	5.881935E-006	-0.0011415	8
	28	75	477.4305	185.3574	-698.6182	1	722.7896	-75.14064	3.176792E-007	0.0006428	8
	29	78	376.6741	206.5689	-868.76	1	892.9808	-76.62489	3.157526E-007	0.0006451	8
	30	80	298.2954	232.282	-1076.861	1	1101.628	-77.82764	3.137317E-007	0.0006414	8
	31	82	237.7717	263.0924	-1327.047	1	1352.876	-78.78629	3.219832E-007	0.0006295	8
	32	85	189.0121	301.4357	-1639.854	1	1667.329	-79.58424	3.27387E-007	0.0006348	8
	33	87	150.2404	348.7183	-2026.459	1	2056.245	-80.23602	2.773774E-007	0.0006957	8
	34	90	119.1737	408.1198	-2509.431	1	2542.401	-80.76261	3.186369E-007	0.0006387	8
	35	92	95.0169	479.8183	-3094.388	1	3131.367	-81.18587	3.178515E-007	0.0006442	8
	36	94	75.60484	569.4008	-3821.366	1	3863.554	-81.52502	3.322627E-007	0.0006396	8
	37	97	54.50582	740.551	-5181.3	1	5233.956	-81.86594	2.68651E-008	0.0006029	7
	38	100	45.95588	851.4259	-6069.345	1	6128.774	-82.01449	3.563427E-008	0.000615	7
	39	102	37.20238	1017.699	-7378.493	1	7448.347	-82.14687	3.232812E-008	0.0006134	7
	40	104	30.04808	1225.655	-8990.636	1	9073.795	-82.23696	2.274937E-008	0.0006718	7
	41	107	23.91582	1499.192	-11088.12	1	11189.01	-82.2999	2.764905E-008	0.0006185	7
	42	109	18.60119	1872.489	-13978.69	1	14103.54	-82.37047	3.211641E-008	0.0006166	7
	43	111	15.02404	2284.19	-17018.56	1	17171.17	-82.35558	3.428447E-008	0.000631	7
	44	114	12.01923	2814.384	-20906.61	1	21095.19	-82.33311	3.096663E-008	0.0006155	7
	45	116	9.450605	3522.968	-26081.18	1	26318.04	-82.30722	3.169061E-008	0.000631	7
	46	119	7.512019	4394.145	-32251.51	1	32549.47	-82.24144	3.638764E-008	0.0006216	7
	47	122	5.978954	5508.137	-39776.31	1	40155.88	-82.11594	3.496554E-008	0.0006185	7
	48	126	4.734848	7074.149	-49350.58	1	49855.02	-81.84252	4.857677E-009	0.0006607	6
	49	129	3.75601	8972.255	-61007.05	1	61663.29	-81.63354	3.904551E-009	0.0006615	6
	50	135	3.004808	11368.42	-74780.96	1	75640.16	-81.35592	4.364815E-009	0.0006305	6
	51	141	2.372217	14640.25	-92682.27	1	93831.45	-81.02363	4.03795E-009	0.0006219	6
	52	145	1.878005	19166.58	-114638.8	1	116229.9	-80.50845	3.553559E-009	0.0006651	6
	53	150	1.512097	24447.87	-139366.1	1	141494.2	-80.0503	3.889985E-009	0.0005564	6
	54	156	1.201923	31929.64	-171231.9	1	174183.4	-79.43736	3.549399E-009	0.000667	6
	55	162	0.956633	41545.29	-209530.2	1	213609.3	-78.78495	3.342801E-009	2.094338E-005	6
