EXPLAIN
TAG	EISPOT
TITLE	LABEL	Potentiostatic EIS	Test Identifier
DATE	LABEL	9/15/2020	Date
TIME	LABEL	5:16:03	Time
NOTES	NOTES	1	Notes...
	
PSTAT	PSTAT	REF3000-16137	Potentiostat
VDC	POTEN	0.00000E+000	T	DC Voltage (V)
FREQINIT	QUANT	3.00000E+005	Initial Freq. (Hz)
FREQFINAL	QUANT	1.00000E+000	Final Freq. (Hz)
PTSPERDEC	QUANT	1.00000E+001	Points/decade
VAC	QUANT	5.00000E+001	AC Voltage (mV rms)
AREA	QUANT	1.00000E+000	Sample Area (cm^2)
SPEED	SELECTOR	2	Optimize for:
ZGUESS	QUANT	1.00000E+003	Estimated Z (ohms)
EOC	QUANT	0	Open Circuit (V)
SEQUENCER	TOGGLE	TRUE	Run as Sequence
PSTATMODEL	IQUANT	5	Pstat Model
PSTATSECTION	LABEL	REF3000-16137	Pstat Section
PSTATSERIALNO	LABEL	16137	Pstat Serial Number
CTRLMODE	IQUANT	1	Control Mode
IESTAB	IQUANT	0	I/E Stability
CASPEED	IQUANT	1	Control Amp Speed
CONVENTION	IQUANT	1	Current Convention
ICHRANGE	IQUANT	2	Ich Range
ICHRANGEMODE	TOGGLE	F	Ich Auto Range
ICHOFFSETENABLE	TOGGLE	T	Ich Offset Enable
ICHOFFSET	QUANT	0	Ich Offset (V)
ICHFILTER	IQUANT	3	Ich Filter
VCHRANGE	IQUANT	2	Vch Range
VCHRANGEMODE	TOGGLE	F	Vch Auto Range
VCHOFFSETENABLE	TOGGLE	T	Vch Offset Enable
VCHOFFSET	QUANT	0	Vch Offset (V)
VCHFILTER	IQUANT	3	Vch Filter
ACHRANGE	IQUANT	2	Ach Range
ACHOFFSETENABLE	TOGGLE	F	Ach Offset Enable
ACHOFFSET	QUANT	0	Ach Offset (V)
ACHFILTER	IQUANT	3	Ach Filter
IERANGELOWERLIMIT	IQUANT	2	I/E Range Lower Limit
IERANGEMODE	TOGGLE	F	I/E AutoRange
IERANGE	IQUANT	11	I/E Range
POSFEEDENABLE	TOGGLE	F	Positive Feedback IR Comp
POSFEEDRESISTANCE	QUANT	0	Positive Feedback Resistance (ohm)
ACHSELECT	IQUANT	0	Ach Select
CABLEID	IQUANT	13	Cable ID
DCCALDATE	LABEL	7/31/2020	DC Calibration Date
ACCALDATE	LABEL	7/31/2020	AC Calibration Date
THERMOSELECT	IQUANT	1	Thermo Select
FRAMEWORKVERSION	QUANT	6.33	Framework Version
INSTRUMENTVERSION	LABEL	3.50	Instrument Version
COMPLIANCEVOLTAGE	IQUANT	0	Compliance Voltage
ZCURVE	TABLE
	Pt	Time	Freq	Zreal	Zimag	Zsig	Zmod	Zphz	Idc	Vdc	IERange
	#	s	Hz	ohm	ohm	V	ohm	°	A	V	#
	0	14	300046.9	1741.506	-729.9938	1	1888.315	-22.74216	-8.627847E-005	0.004111	9
	1	31	238359.4	1856.014	-629.735	1	1959.937	-18.74178	3.187114E-005	-0.0020321	9
	2	51	189328.1	1906.135	-562.0425	1	1987.27	-16.42866	7.655185E-005	-0.0015923	9
	3	58	150421.9	1966.638	-478.6157	1	2024.04	-13.67803	1.833029E-005	-0.0020056	9
	4	67	119484.4	2044.073	-341.4674	1	2072.398	-9.483829	-7.970116E-005	0.0287986	8
	5	74	94921.88	2065.804	-292.0209	1	2086.342	-8.045987	-1.775699E-006	-0.0040537	8
	6	77	75421.88	2092.21	-261.863	1	2108.534	-7.134097	-1.613059E-005	0.0095685	8
	7	83	59859.37	2113.412	-242.6359	1	2127.294	-6.549322	8.00173E-006	0.0033857	8
	8	87	47578.12	2127.834	-220.047	1	2139.181	-5.904177	-1.768676E-006	-0.0040694	8
	9	91	37828.12	2155.16	-210.9941	1	2165.464	-5.591542	-2.253465E-005	0.0067694	8
	10	95	30046.88	2171.382	-212.5676	1	2181.761	-5.59116	-1.677401E-006	-0.0040706	8
	11	101	23859.38	2195.439	-218.0338	1	2206.239	-5.671572	7.725147E-006	0.0034469	8
	12	105	18984.38	2217.909	-226.0378	1	2229.398	-5.819198	-1.59028E-005	0.0095571	8
	13	110	15046.87	2247.675	-242.2041	1	2260.687	-6.150325	-1.62756E-005	0.0097272	8
	14	113	11953.13	2275.58	-265.0065	1	2290.959	-6.642555	7.89285E-006	0.0033766	8
	15	117	9515.62	2301.385	-287.9793	1	2319.333	-7.132521	-2.08545E-005	0.0048199	8
	16	121	7546.875	2332.303	-323.8434	1	2354.679	-7.905052	2.243417E-005	-0.0077085	8
	17	125	5928.309	2377.684	-360.4798	1	2404.855	-8.620939	-2.087868E-005	0.0049476	8
	18	130	4733.456	2424.942	-398.0152	1	2457.388	-9.321071	2.233075E-005	-0.0077478	8
	19	135	3796.875	2465.926	-447.525	1	2506.207	-10.28629	-2.091864E-005	0.0096575	8
	20	139	2987.132	2525.401	-507.3316	1	2575.856	-11.35904	-9.860306E-007	0.0065569	8
	21	145	2390.625	2579.619	-531.7009	1	2633.845	-11.64648	-1.655545E-005	0.0098982	8
	22	150	1884.191	2635.288	-666.9186	1	2718.368	-14.2018	2.080844E-005	-0.0026835	8
	23	156	1516.544	2702.597	-709.8904	1	2794.276	-14.7174	-1.642099E-005	0.0097768	8
	24	161	1193.986	2766.657	-855.2308	1	2895.826	-17.17746	2.443195E-005	-0.000176	9
	25	167	946.5144	2836.321	-946.6916	1	2990.141	-18.4577	-2.248102E-005	0.0067415	8
	26	170	751.7689	2896.499	-1140.735	1	3113.034	-21.49612	-1.822345E-005	0.0027859	8
	27	174	597.4265	2941.901	-1406.769	1	3260.948	-25.55636	1.042802E-005	-0.0007904	9
	28	178	477.4305	2983.871	-1630.083	1	3400.096	-28.64769	-2.486894E-007	0.0006368	8
	29	181	376.6741	3046.736	-1981.576	1	3634.452	-33.0397	-2.48054E-007	0.0006428	8
	30	183	298.2954	3125.999	-2421.393	1	3954.114	-37.7613	-5.573051E-008	0.0005929	7
	31	186	237.7717	3203.235	-2952.925	1	4356.659	-42.67164	-5.873514E-008	0.0006185	7
	32	188	189.0121	3294.231	-3621.683	1	4895.769	-47.7108	-6.335107E-008	0.0006601	7
	33	191	150.2404	3402.996	-4452.592	1	5604.102	-52.61029	-5.655511E-008	0.0005834	7
	34	193	119.1737	3535.906	-5492.94	1	6532.612	-57.22988	-6.226622E-008	0.0006493	7
	35	195	95.0169	3696.009	-6757.75	1	7702.446	-61.32448	-5.554165E-008	0.0005777	7
	36	198	75.60484	3892.775	-8333.878	1	9198.218	-64.96261	-5.775112E-008	0.0006248	7
	37	201	54.50582	4249.455	-11257.75	1	12033.08	-69.32003	-6.201405E-008	0.0006615	7
	38	203	45.95588	4486.094	-13180.01	1	13922.57	-71.20292	-6.274727E-008	0.0006641	7
	39	205	37.20238	4831.252	-16015.82	1	16728.65	-73.21381	-6.40776E-008	0.0006499	7
	40	208	30.04808	5259.179	-19512.74	1	20209.05	-74.91577	-6.357597E-008	0.0006281	7
	41	210	23.91582	5814.833	-24089.15	1	24781.03	-76.42909	-5.673535E-008	0.0005786	7
	42	213	18.60119	6579.98	-30419.42	1	31122.94	-77.79448	-5.657884E-008	0.0005813	7
	43	215	15.02404	7397.444	-37059.98	1	37791.06	-78.7117	-6.362752E-008	0.0006623	7
	44	217	12.01923	8487.167	-45575.69	1	46359.2	-79.45113	-6.472541E-009	0.0006352	6
	45	220	9.450605	9915.04	-56938.38	1	57795.22	-80.12177	-6.218984E-009	0.0006245	6
	46	222	7.512019	11613.41	-70349.59	1	71301.73	-80.62608	-6.203858E-009	0.0006369	6
	47	225	5.978954	13762.49	-86832.53	1	87916.41	-80.99384	-6.358865E-009	0.0006238	6
	48	228	4.734848	16506.51	-107725.5	1	108982.8	-81.28847	-6.814343E-009	0.0006781	6
	49	231	3.75601	19856.49	-133332.1	1	134802.5	-81.52948	-6.3786E-009	0.0006342	6
	50	237	3.004808	23839.86	-163702	1	165428.8	-81.71429	-6.271121E-009	0.0006583	6
	51	243	2.372217	29044.8	-203202.7	1	205268	-81.86552	-6.899981E-009	0.0006893	6
	52	248	1.878005	35879.6	-252241.4	1	254780.5	-81.90438	-6.624753E-009	0.0006329	6
	53	252	1.512097	43423.16	-307891.7	1	310938.7	-81.9723	-6.658949E-009	0.0007615	6
	54	258	1.201923	53396.76	-380346.3	1	384076.2	-82.00848	-6.556048E-009	0.0006422	6
	55	264	0.956633	65551.7	-469127.7	1	473685.4	-82.0455	-8.42964E-010	6.329461E-006	5
