EXPLAIN
TAG	EISPOT
TITLE	LABEL	Potentiostatic EIS	Test Identifier
DATE	LABEL	9/15/2020	Date
TIME	LABEL	2:14:15	Time
NOTES	NOTES	1	Notes...
	
PSTAT	PSTAT	REF3000-16137	Potentiostat
VDC	POTEN	0.00000E+000	T	DC Voltage (V)
FREQINIT	QUANT	3.00000E+005	Initial Freq. (Hz)
FREQFINAL	QUANT	1.00000E+000	Final Freq. (Hz)
PTSPERDEC	QUANT	1.00000E+001	Points/decade
VAC	QUANT	5.00000E+001	AC Voltage (mV rms)
AREA	QUANT	1.00000E+000	Sample Area (cm^2)
SPEED	SELECTOR	2	Optimize for:
ZGUESS	QUANT	1.00000E+003	Estimated Z (ohms)
EOC	QUANT	0	Open Circuit (V)
SEQUENCER	TOGGLE	TRUE	Run as Sequence
PSTATMODEL	IQUANT	5	Pstat Model
PSTATSECTION	LABEL	REF3000-16137	Pstat Section
PSTATSERIALNO	LABEL	16137	Pstat Serial Number
CTRLMODE	IQUANT	1	Control Mode
IESTAB	IQUANT	0	I/E Stability
CASPEED	IQUANT	1	Control Amp Speed
CONVENTION	IQUANT	1	Current Convention
ICHRANGE	IQUANT	2	Ich Range
ICHRANGEMODE	TOGGLE	F	Ich Auto Range
ICHOFFSETENABLE	TOGGLE	T	Ich Offset Enable
ICHOFFSET	QUANT	0	Ich Offset (V)
ICHFILTER	IQUANT	3	Ich Filter
VCHRANGE	IQUANT	2	Vch Range
VCHRANGEMODE	TOGGLE	F	Vch Auto Range
VCHOFFSETENABLE	TOGGLE	T	Vch Offset Enable
VCHOFFSET	QUANT	0	Vch Offset (V)
VCHFILTER	IQUANT	3	Vch Filter
ACHRANGE	IQUANT	2	Ach Range
ACHOFFSETENABLE	TOGGLE	F	Ach Offset Enable
ACHOFFSET	QUANT	0	Ach Offset (V)
ACHFILTER	IQUANT	3	Ach Filter
IERANGELOWERLIMIT	IQUANT	2	I/E Range Lower Limit
IERANGEMODE	TOGGLE	F	I/E AutoRange
IERANGE	IQUANT	11	I/E Range
POSFEEDENABLE	TOGGLE	F	Positive Feedback IR Comp
POSFEEDRESISTANCE	QUANT	0	Positive Feedback Resistance (ohm)
ACHSELECT	IQUANT	0	Ach Select
CABLEID	IQUANT	13	Cable ID
DCCALDATE	LABEL	7/31/2020	DC Calibration Date
ACCALDATE	LABEL	7/31/2020	AC Calibration Date
THERMOSELECT	IQUANT	1	Thermo Select
FRAMEWORKVERSION	QUANT	6.33	Framework Version
INSTRUMENTVERSION	LABEL	3.50	Instrument Version
COMPLIANCEVOLTAGE	IQUANT	0	Compliance Voltage
ZCURVE	TABLE
	Pt	Time	Freq	Zreal	Zimag	Zsig	Zmod	Zphz	Idc	Vdc	IERange
	#	s	Hz	ohm	ohm	V	ohm	°	A	V	#
	0	7	300046.9	88.89018	-4.228413	1	88.9907	-2.723447	1.445646E-005	-0.0014956	9
	1	10	238359.4	89.58036	-5.40958	1	89.74355	-3.455782	6.538512E-005	-0.002774	9
	2	13	189328.1	90.51099	-7.162438	1	90.79395	-4.524578	-4.413681E-006	0.000937	9
	3	15	150421.9	91.45116	-8.577425	1	91.85253	-5.358234	6.403034E-005	-0.0024349	9
	4	18	119484.4	92.71163	-10.141	1	93.2646	-6.24232	6.317753E-005	-0.0023564	9
	5	21	94921.88	94.00491	-11.77499	1	94.7395	-7.139643	-1.138408E-005	0.0007941	9
	6	23	75421.88	95.4126	-13.73825	1	96.3966	-8.193578	1.77773E-005	-0.0007123	9
	7	26	59859.37	97.0304	-15.8976	1	98.3241	-9.304753	2.190615E-005	-0.0007052	9
	8	28	47578.12	98.7511	-18.26851	1	100.4267	-10.48097	-4.88816E-006	0.000703	9
	9	31	37828.12	100.566	-20.83229	1	102.7011	-11.70331	1.2354E-005	0.000165	9
	10	33	30046.88	102.5088	-23.85127	1	105.247	-13.09826	1.426966E-005	-0.000707	9
	11	36	23859.38	104.4602	-27.38507	1	107.9902	-14.68997	-2.078198E-005	0.0006664	9
	12	38	18984.38	106.4388	-31.70528	1	111.0605	-16.58739	1.808267E-005	-0.0001639	9
	13	40	15046.87	108.3326	-36.98482	1	114.4719	-18.84994	-1.664482E-005	0.0004102	9
	14	43	11953.13	110.363	-43.59142	1	118.66	-21.55314	-2.338716E-006	-0.0002497	9
	15	45	9515.62	112.3457	-51.77719	1	123.703	-24.74374	-1.849616E-006	-0.0002516	9
	16	47	7546.875	114.3948	-62.33536	1	130.2761	-28.5866	1.833226E-005	-0.0006949	9
	17	50	5928.309	116.9953	-76.02917	1	139.529	-33.01775	-4.29676E-006	0.0006503	9
	18	52	4733.456	119.4957	-91.95557	1	150.7814	-37.57938	-2.103423E-006	-0.0002505	9
	19	54	3796.875	122.5194	-111.718	1	165.8068	-42.35979	1.250601E-005	-0.000697	9
	20	57	2987.132	126.2369	-138.1099	1	187.1099	-47.57167	2.118437E-005	-0.0006425	9
	21	59	2390.625	130.3442	-168.2035	1	212.7957	-52.2272	2.411234E-005	-0.000626	9
	22	61	1884.191	135.6885	-208.1988	1	248.5118	-56.90667	-1.925937E-005	0.0005124	9
	23	64	1516.544	141.8414	-253.7116	1	290.6691	-60.79195	-2.236207E-006	-0.0002516	9
	24	66	1193.986	149.4707	-316.2751	1	349.8163	-64.70473	1.168761E-005	0.0001703	9
	25	68	946.5144	158.4405	-391.5875	1	422.4265	-67.97121	-2.058469E-005	0.000642	9
	26	71	751.7689	170.4088	-479.9838	1	509.3365	-70.4536	-3.914788E-006	0.0025792	8
	27	73	597.4265	184.3067	-592.7067	1	620.7014	-72.72652	4.89246E-006	0.0001095	8
	28	76	477.4305	201.5589	-728.4873	1	755.8569	-74.53423	2.722137E-007	0.0006486	8
	29	78	376.6741	223.6506	-905.9562	1	933.1539	-76.13284	2.850435E-007	0.0006443	8
	30	80	298.2954	250.3773	-1123.025	1	1150.597	-77.43152	2.727714E-007	0.0006533	8
	31	82	237.7717	282.3951	-1383.976	1	1412.493	-78.46732	2.836936E-007	0.0006461	8
	32	85	189.0121	322.1433	-1710.235	1	1740.311	-79.33264	2.927705E-007	0.0006435	8
	33	87	150.2404	371.264	-2113.575	1	2145.935	-80.03724	2.952599E-007	0.0006459	8
	34	90	119.1737	432.1963	-2617.807	1	2653.245	-80.62511	3.005915E-007	0.0006432	8
	35	92	95.0169	507.1145	-3227.686	1	3267.281	-81.07103	2.888024E-007	0.0006518	8
	36	95	75.60484	599.966	-3986.917	1	4031.806	-81.44213	3.002364E-007	0.0006454	8
	37	97	54.50582	777.4317	-5405.899	1	5461.515	-81.81631	2.402894E-008	0.0006195	7
	38	100	45.95588	891.324	-6331.264	1	6393.697	-81.98649	2.964347E-008	0.0006258	7
	39	102	37.20238	1062.511	-7694.932	1	7767.941	-82.13835	2.945502E-008	0.0006195	7
	40	104	30.04808	1273.401	-9369.652	1	9455.788	-82.26052	2.493763E-008	0.0006208	7
	41	107	23.91582	1562.487	-11584.58	1	11689.48	-82.3185	2.325827E-008	0.0006315	7
	42	109	18.60119	1955.695	-14603.01	1	14733.39	-82.3721	2.934286E-008	0.0006231	7
	43	112	15.02404	2364.195	-17764.86	1	17921.48	-82.41946	2.920224E-008	0.0006223	7
	44	114	12.01923	2909.538	-21824.87	1	22017.96	-82.4065	2.382573E-008	0.0006716	7
	45	116	9.450605	3645.979	-27252.63	1	27495.44	-82.37996	2.664158E-008	0.0006294	7
	46	119	7.512019	4512.998	-33664.75	1	33965.91	-82.36462	3.054596E-008	0.000634	7
	47	122	5.978954	5631.434	-41523.04	1	41903.17	-82.27656	2.958115E-008	0.0006205	7
	48	125	4.734848	7160.306	-51546.32	1	52041.26	-82.09164	2.990638E-009	0.0006578	6
	49	129	3.75601	9039.307	-63734.48	1	64372.3	-81.92772	4.264881E-009	0.0006695	6
	50	134	3.004808	11380.6	-78174.25	1	78998.3	-81.71707	3.294661E-009	0.0006953	6
	51	141	2.372217	14644.05	-96867.6	1	97968.2	-81.40335	3.089892E-009	0.0006655	6
	52	145	1.878005	18986.78	-120046	1	121538.2	-81.01241	3.781531E-009	0.0006479	6
	53	150	1.512097	23944.55	-146059.6	1	148009.3	-80.68993	3.252806E-009	0.0007602	6
	54	155	1.201923	31119.94	-179716.8	1	182391.3	-80.17602	3.735666E-009	0.0006461	6
	55	161	0.956633	40140.12	-220370	1	223995.9	-79.67682	2.49032E-009	5.811201E-005	6
