EXPLAIN
TAG	EISPOT
TITLE	LABEL	Potentiostatic EIS	Test Identifier
DATE	LABEL	9/15/2020	Date
TIME	LABEL	4:00:14	Time
NOTES	NOTES	1	Notes...
	
PSTAT	PSTAT	REF3000-16137	Potentiostat
VDC	POTEN	0.00000E+000	T	DC Voltage (V)
FREQINIT	QUANT	3.00000E+005	Initial Freq. (Hz)
FREQFINAL	QUANT	1.00000E+000	Final Freq. (Hz)
PTSPERDEC	QUANT	1.00000E+001	Points/decade
VAC	QUANT	5.00000E+001	AC Voltage (mV rms)
AREA	QUANT	1.00000E+000	Sample Area (cm^2)
SPEED	SELECTOR	2	Optimize for:
ZGUESS	QUANT	1.00000E+003	Estimated Z (ohms)
EOC	QUANT	0	Open Circuit (V)
SEQUENCER	TOGGLE	TRUE	Run as Sequence
PSTATMODEL	IQUANT	5	Pstat Model
PSTATSECTION	LABEL	REF3000-16137	Pstat Section
PSTATSERIALNO	LABEL	16137	Pstat Serial Number
CTRLMODE	IQUANT	1	Control Mode
IESTAB	IQUANT	0	I/E Stability
CASPEED	IQUANT	1	Control Amp Speed
CONVENTION	IQUANT	1	Current Convention
ICHRANGE	IQUANT	2	Ich Range
ICHRANGEMODE	TOGGLE	F	Ich Auto Range
ICHOFFSETENABLE	TOGGLE	T	Ich Offset Enable
ICHOFFSET	QUANT	0	Ich Offset (V)
ICHFILTER	IQUANT	3	Ich Filter
VCHRANGE	IQUANT	2	Vch Range
VCHRANGEMODE	TOGGLE	F	Vch Auto Range
VCHOFFSETENABLE	TOGGLE	T	Vch Offset Enable
VCHOFFSET	QUANT	0	Vch Offset (V)
VCHFILTER	IQUANT	3	Vch Filter
ACHRANGE	IQUANT	2	Ach Range
ACHOFFSETENABLE	TOGGLE	F	Ach Offset Enable
ACHOFFSET	QUANT	0	Ach Offset (V)
ACHFILTER	IQUANT	3	Ach Filter
IERANGELOWERLIMIT	IQUANT	2	I/E Range Lower Limit
IERANGEMODE	TOGGLE	F	I/E AutoRange
IERANGE	IQUANT	11	I/E Range
POSFEEDENABLE	TOGGLE	F	Positive Feedback IR Comp
POSFEEDRESISTANCE	QUANT	0	Positive Feedback Resistance (ohm)
ACHSELECT	IQUANT	0	Ach Select
CABLEID	IQUANT	13	Cable ID
DCCALDATE	LABEL	7/31/2020	DC Calibration Date
ACCALDATE	LABEL	7/31/2020	AC Calibration Date
THERMOSELECT	IQUANT	1	Thermo Select
FRAMEWORKVERSION	QUANT	6.33	Framework Version
INSTRUMENTVERSION	LABEL	3.50	Instrument Version
COMPLIANCEVOLTAGE	IQUANT	0	Compliance Voltage
ZCURVE	TABLE
	Pt	Time	Freq	Zreal	Zimag	Zsig	Zmod	Zphz	Idc	Vdc	IERange
	#	s	Hz	ohm	ohm	V	ohm	°	A	V	#
	0	11	300046.9	333.4274	-35.84837	1	335.349	-6.13657	2.305064E-005	0.0003163	10
	1	17	238359.4	335.6911	-33.67568	1	337.376	-5.728601	-1.750324E-005	0.0005663	10
	2	27	189328.1	339.85	-27.94221	1	340.9968	-4.700243	5.138723E-005	-0.0001041	9
	3	32	150421.9	342.2668	-31.99306	1	343.7588	-5.340152	1.729917E-005	0.0006058	10
	4	37	119484.4	344.9251	-30.23477	1	346.2477	-5.009518	1.429083E-005	-0.0017083	9
	5	44	94921.88	348.1089	-32.17437	1	349.5926	-5.280627	-9.177428E-006	0.0009292	9
	6	47	75421.88	351.5287	-35.4239	1	353.3091	-5.754327	-2.203879E-005	0.0004403	9
	7	49	59859.37	355.4623	-39.29612	1	357.6278	-6.308394	-2.245461E-005	0.0010316	9
	8	52	47578.12	360.3025	-43.72902	1	362.9464	-6.920002	2.447113E-005	-0.0002198	9
	9	54	37828.12	365.0036	-48.76379	1	368.2466	-7.609548	-2.245658E-005	0.0009766	9
	10	57	30046.88	370.4994	-54.82325	1	374.5336	-8.417049	-2.593668E-005	0.0008281	9
	11	59	23859.38	375.9444	-61.76369	1	380.9842	-9.329747	-1.882983E-005	0.0003134	9
	12	62	18984.38	383.6902	-69.6886	1	389.9675	-10.29426	-1.524284E-005	8.284835E-005	9
	13	64	15046.87	389.8543	-77.49963	1	397.4828	-11.24333	1.251337E-005	-0.004448	8
	14	66	11953.13	397.458	-86.65563	1	406.7948	-12.29942	-1.163497E-005	0.002551	8
	15	69	9515.62	405.5191	-98.5735	1	417.3278	-13.66247	5.577019E-007	0.0036871	8
	16	71	7546.875	413.8134	-113.618	1	429.1277	-15.35299	1.383636E-005	-0.0044155	8
	17	73	5928.309	421.3018	-132.134	1	441.5367	-17.41312	-1.251058E-005	0.00437	8
	18	76	4733.456	430.0154	-152.5388	1	456.2689	-19.53106	-1.101782E-005	0.0057339	8
	19	78	3796.875	437.2948	-178.5753	1	472.3514	-22.21332	6.200381E-006	0.0015659	8
	20	80	2987.132	445.8079	-214.653	1	494.7935	-25.71044	-1.131836E-005	0.0025971	8
	21	83	2390.625	453.4451	-256.8075	1	521.1166	-29.52493	-9.9327E-006	0.0016241	8
	22	85	1884.191	466.1628	-313.2014	1	561.6074	-33.89602	-1.190453E-005	0.0026794	8
	23	87	1516.544	474.5808	-375.451	1	605.1367	-38.34827	-7.640752E-006	0.0055287	8
	24	89	1193.986	484.2717	-465.8868	1	671.9893	-43.89151	1.287414E-005	-0.0018593	8
	25	92	946.5144	499.4753	-570.482	1	758.2383	-48.79681	6.040349E-007	0.0036712	8
	26	95	751.7689	515.7253	-701.5408	1	870.7078	-53.67919	2.607539E-006	-0.003124	8
	27	97	597.4265	536.5972	-864.0751	1	1017.134	-58.15941	8.614139E-007	0.0036238	8
	28	100	477.4305	562.9836	-1062.304	1	1202.265	-62.078	-2.046025E-008	0.0006331	8
	29	102	376.6741	594.926	-1320.099	1	1447.964	-65.74046	-1.91151E-008	0.000635	8
	30	104	298.2954	633.6332	-1635.903	1	1754.328	-68.82715	-4.861803E-008	0.0006483	8
	31	107	237.7717	679.9469	-2015.826	1	2127.412	-71.36053	-2.655553E-008	0.0006456	8
	32	109	189.0121	737.7487	-2491.339	1	2598.277	-73.50464	-2.752676E-008	0.0006426	8
	33	111	150.2404	809.0757	-3079.875	1	3184.373	-75.28111	-4.714079E-008	0.0006452	8
	34	114	119.1737	899.0514	-3814.579	1	3919.095	-76.73808	-1.400379E-008	0.0006303	8
	35	116	95.0169	1010.001	-4712.981	1	4819.989	-77.90436	-1.235904E-008	0.0006076	7
	36	119	75.60484	1145.62	-5821.646	1	5933.297	-78.86723	-1.362069E-008	0.000613	7
	37	121	54.50582	1396.792	-7875.432	1	7998.341	-79.94257	-1.739735E-008	0.0006174	7
	38	124	45.95588	1563.206	-9223.311	1	9354.842	-80.38068	-1.703711E-008	0.000622	7
	39	126	37.20238	1808.284	-11211.46	1	11356.35	-80.83773	-1.970289E-008	0.000664	7
	40	129	30.04808	2106.927	-13652.31	1	13813.93	-81.2269	-1.822336E-008	0.0006407	7
	41	131	23.91582	2504.789	-16854.66	1	17039.77	-81.54708	-1.442439E-008	0.0006065	7
	42	133	18.60119	3041.385	-21267.1	1	21483.47	-81.86137	-1.685417E-008	0.0006368	7
	43	136	15.02404	3616.997	-25903.77	1	26155.08	-82.05107	-1.402854E-008	0.0006034	7
	44	138	12.01923	4360.263	-31839.61	1	32136.78	-82.20216	-1.744978E-008	0.0006368	7
	45	140	9.450605	5358.247	-39740.78	1	40100.37	-82.32112	-1.260004E-008	0.0006006	7
	46	143	7.512019	6578.001	-49143.42	1	49581.71	-82.3761	-1.104226E-009	0.0006538	6
	47	146	5.978954	8050.033	-60625.59	1	61157.71	-82.43636	-1.082529E-009	0.0006723	6
	48	149	4.734848	9908.45	-75186.51	1	75836.59	-82.49255	-1.442643E-009	0.0006349	6
	49	152	3.75601	12230.25	-93041.39	1	93841.78	-82.51143	-1.175526E-009	0.0006717	6
	50	158	3.004808	14982.21	-114216.3	1	115194.8	-82.52695	-1.635844E-009	0.0007046	6
	51	164	2.372217	18488.81	-141814.8	1	143015	-82.57207	-1.858335E-009	0.0006976	6
	52	168	1.878005	23128.57	-176141.7	1	177653.7	-82.51949	-1.473224E-009	0.0006379	6
	53	173	1.512097	28131.38	-215173.7	1	217004.8	-82.55151	-1.642826E-009	0.0007619	6
	54	178	1.201923	35175.61	-266193.1	1	268507.2	-82.47237	-1.450793E-009	0.0006423	6
	55	185	0.956633	43774.98	-328647.9	1	331550.4	-82.41302	-1.937422E-009	2.458502E-005	6
