EXPLAIN
TAG	EISPOT
TITLE	LABEL	Potentiostatic EIS	Test Identifier
DATE	LABEL	9/15/2020	Date
TIME	LABEL	5:02:30	Time
NOTES	NOTES	1	Notes...
	
PSTAT	PSTAT	REF3000-16137	Potentiostat
VDC	POTEN	0.00000E+000	T	DC Voltage (V)
FREQINIT	QUANT	3.00000E+005	Initial Freq. (Hz)
FREQFINAL	QUANT	1.00000E+000	Final Freq. (Hz)
PTSPERDEC	QUANT	1.00000E+001	Points/decade
VAC	QUANT	5.00000E+001	AC Voltage (mV rms)
AREA	QUANT	1.00000E+000	Sample Area (cm^2)
SPEED	SELECTOR	2	Optimize for:
ZGUESS	QUANT	1.00000E+003	Estimated Z (ohms)
EOC	QUANT	0	Open Circuit (V)
SEQUENCER	TOGGLE	TRUE	Run as Sequence
PSTATMODEL	IQUANT	5	Pstat Model
PSTATSECTION	LABEL	REF3000-16137	Pstat Section
PSTATSERIALNO	LABEL	16137	Pstat Serial Number
CTRLMODE	IQUANT	1	Control Mode
IESTAB	IQUANT	0	I/E Stability
CASPEED	IQUANT	1	Control Amp Speed
CONVENTION	IQUANT	1	Current Convention
ICHRANGE	IQUANT	2	Ich Range
ICHRANGEMODE	TOGGLE	F	Ich Auto Range
ICHOFFSETENABLE	TOGGLE	T	Ich Offset Enable
ICHOFFSET	QUANT	0	Ich Offset (V)
ICHFILTER	IQUANT	3	Ich Filter
VCHRANGE	IQUANT	2	Vch Range
VCHRANGEMODE	TOGGLE	F	Vch Auto Range
VCHOFFSETENABLE	TOGGLE	T	Vch Offset Enable
VCHOFFSET	QUANT	0	Vch Offset (V)
VCHFILTER	IQUANT	3	Vch Filter
ACHRANGE	IQUANT	2	Ach Range
ACHOFFSETENABLE	TOGGLE	F	Ach Offset Enable
ACHOFFSET	QUANT	0	Ach Offset (V)
ACHFILTER	IQUANT	3	Ach Filter
IERANGELOWERLIMIT	IQUANT	2	I/E Range Lower Limit
IERANGEMODE	TOGGLE	F	I/E AutoRange
IERANGE	IQUANT	11	I/E Range
POSFEEDENABLE	TOGGLE	F	Positive Feedback IR Comp
POSFEEDRESISTANCE	QUANT	0	Positive Feedback Resistance (ohm)
ACHSELECT	IQUANT	0	Ach Select
CABLEID	IQUANT	13	Cable ID
DCCALDATE	LABEL	7/31/2020	DC Calibration Date
ACCALDATE	LABEL	7/31/2020	AC Calibration Date
THERMOSELECT	IQUANT	1	Thermo Select
FRAMEWORKVERSION	QUANT	6.33	Framework Version
INSTRUMENTVERSION	LABEL	3.50	Instrument Version
COMPLIANCEVOLTAGE	IQUANT	0	Compliance Voltage
ZCURVE	TABLE
	Pt	Time	Freq	Zreal	Zimag	Zsig	Zmod	Zphz	Idc	Vdc	IERange
	#	s	Hz	ohm	ohm	V	ohm	°	A	V	#
	0	22	300046.9	1281.321	-360.9033	1	1331.178	-15.73067	-0.0000955	0.0040444	9
	1	47	238359.4	1312.901	-312.9071	1	1349.674	-13.40536	8.183425E-005	-0.0016378	9
	2	63	189328.1	1349.293	-267.5847	1	1375.571	-11.21705	8.008962E-005	-0.0032814	9
	3	71	150421.9	1377.59	-224.2421	1	1395.721	-9.245439	1.63521E-006	0.0015979	9
	4	79	119484.4	1395.614	-165.3046	1	1405.37	-6.75497	1.449648E-005	-0.0104848	8
	5	85	94921.88	1408.756	-141.3716	1	1415.831	-5.730565	-2.122183E-005	0.0080537	8
	6	89	75421.88	1423.202	-132.7733	1	1429.382	-5.329807	-2.120858E-005	0.0064559	8
	7	91	59859.37	1426.44	-130.3629	1	1432.385	-5.221775	2.221714E-005	-0.0061715	8
	8	94	47578.12	1437.661	-133.2545	1	1443.823	-5.295524	2.196499E-005	-0.0061073	8
	9	97	37828.12	1452.808	-131.3581	1	1458.734	-5.166447	-1.900967E-005	0.0089111	8
	10	103	30046.88	1462.925	-138.6867	1	1469.484	-5.415509	-1.737976E-005	0.0029191	8
	11	106	23859.38	1479.078	-150.7231	1	1486.738	-5.818551	-2.121783E-005	0.0080472	8
	12	109	18984.38	1496.837	-165.7519	1	1505.986	-6.318893	5.648362E-006	-0.0059231	8
	13	113	15046.87	1516.492	-177.7844	1	1526.878	-6.686491	-2.119603E-005	0.006481	8
	14	116	11953.13	1540.214	-201.4945	1	1553.338	-7.453244	-1.962037E-005	0.0047079	8
	15	119	9515.62	1561.644	-225.4149	1	1577.829	-8.213609	1.524476E-005	-0.0001741	8
	16	122	7546.875	1587.415	-250.8228	1	1607.109	-8.978907	1.51203E-005	-4.830217E-005	8
	17	125	5928.309	1622.37	-288.8842	1	1647.889	-10.09645	1.217767E-005	-0.0071586	8
	18	129	4733.456	1651.381	-311.6942	1	1680.539	-10.68869	-9.006357E-006	-0.0010796	8
	19	133	3796.875	1687.323	-355.2476	1	1724.314	-11.88936	1.513277E-005	-0.0001702	8
	20	137	2987.132	1727.065	-409.3481	1	1774.914	-13.33415	2.146243E-005	-0.0043998	8
	21	141	2390.625	1750.729	-458.3992	1	1809.747	-14.67256	8.013379E-006	0.002997	8
	22	145	1884.191	1798.264	-522.8806	1	1872.74	-16.21283	-1.909701E-005	0.0089943	8
	23	149	1516.544	1832.772	-606.4767	1	1930.509	-18.30973	-1.493737E-005	0.0091334	8
	24	153	1193.986	1874.23	-715.822	1	2006.275	-20.90329	2.209576E-005	-0.0060803	8
	25	158	946.5144	1918.659	-834.5549	1	2092.303	-23.50749	2.118282E-005	-0.0042138	8
	26	160	751.7689	1938.819	-1002.698	1	2182.755	-27.34662	-2.109221E-005	0.0079665	8
	27	163	597.4265	1998.374	-1241.325	1	2352.528	-31.84721	-1.696509E-005	0.0027624	8
	28	166	477.4305	2023.848	-1466.926	1	2499.566	-35.93535	-2.572566E-007	0.0006567	8
	29	168	376.6741	2074.225	-1801.221	1	2747.145	-40.97048	-2.366062E-007	0.000642	8
	30	170	298.2954	2131.736	-2213.592	1	3073.156	-46.07919	-2.52933E-007	0.000687	8
	31	173	237.7717	2198.385	-2712.246	1	3491.3	-50.97384	-2.74563E-007	0.0006691	8
	32	175	189.0121	2279.587	-3338.366	1	4042.426	-55.67297	-2.257866E-007	0.0006394	8
	33	178	150.2404	2384.438	-4122.741	1	4762.619	-59.95653	-5.756797E-008	0.0006552	7
	34	180	119.1737	2505.395	-5095.628	1	5678.242	-63.81779	-6.154161E-008	0.0006739	7
	35	182	95.0169	2650.639	-6276.167	1	6812.94	-67.104	-5.262245E-008	0.0006069	7
	36	185	75.60484	2830.468	-7746.995	1	8247.877	-69.92955	-5.249472E-008	0.0006104	7
	37	187	54.50582	3161.355	-10473.84	1	10940.54	-73.20443	-5.395707E-008	0.0005846	7
	38	190	45.95588	3381.712	-12268.2	1	12725.75	-74.58921	-6.045892E-008	0.0006765	7
	39	192	37.20238	3700.848	-14912.01	1	15364.38	-76.06199	-5.150095E-008	0.0005881	7
	40	195	30.04808	4097.875	-18171.62	1	18627.95	-77.29183	-5.673586E-008	0.000602	7
	41	197	23.91582	4622.22	-22446.28	1	22917.25	-78.3641	-5.985265E-008	0.0006274	7
	42	200	18.60119	5349.521	-28312.71	1	28813.66	-79.30043	-5.341413E-008	0.0005923	7
	43	202	15.02404	6120.904	-34528.06	1	35066.4	-79.94743	-5.947581E-008	0.0006492	7
	44	204	12.01923	7095.481	-42426.86	1	43016.09	-80.5057	-5.878423E-008	0.0006446	7
	45	207	9.450605	8479.577	-52970.75	1	53645.16	-80.90524	-5.998485E-009	0.0006624	6
	46	209	7.512019	10098.91	-65476.47	1	66250.7	-81.23195	-6.592858E-009	0.0007312	6
	47	212	5.978954	12061.82	-80771.58	1	81667.23	-81.50665	-6.172228E-009	0.0006764	6
	48	215	4.734848	14555.64	-100154.8	1	101206.9	-81.73101	-6.300402E-009	0.0006151	6
	49	218	3.75601	17691.18	-123949.6	1	125205.7	-81.8771	-6.281704E-009	0.0007108	6
	50	224	3.004808	21407.14	-152194.4	1	153692.5	-81.9935	-5.772577E-009	0.0006838	6
	51	230	2.372217	26346.8	-188827.2	1	190656.5	-82.05688	-6.530929E-009	0.0006753	6
	52	234	1.878005	32595.5	-234576.5	1	236830.3	-82.08914	-6.081466E-009	0.0006536	6
	53	239	1.512097	39088.07	-285935.9	1	288595.2	-82.21579	-6.41399E-009	0.000735	6
	54	245	1.201923	48651.68	-353574.6	1	356906.1	-82.16533	-6.122237E-009	0.000669	6
	55	251	0.956633	59719.22	-435678.7	1	439752.5	-82.19501	-6.515851E-009	3.370136E-005	6
