EXPLAIN
TAG	EISPOT
TITLE	LABEL	Potentiostatic EIS	Test Identifier
DATE	LABEL	9/15/2020	Date
TIME	LABEL	0:54:17	Time
NOTES	NOTES	1	Notes...
	
PSTAT	PSTAT	REF3000-16137	Potentiostat
VDC	POTEN	0.00000E+000	T	DC Voltage (V)
FREQINIT	QUANT	3.00000E+005	Initial Freq. (Hz)
FREQFINAL	QUANT	1.00000E+000	Final Freq. (Hz)
PTSPERDEC	QUANT	1.00000E+001	Points/decade
VAC	QUANT	5.00000E+001	AC Voltage (mV rms)
AREA	QUANT	1.00000E+000	Sample Area (cm^2)
SPEED	SELECTOR	2	Optimize for:
ZGUESS	QUANT	1.00000E+003	Estimated Z (ohms)
EOC	QUANT	0	Open Circuit (V)
SEQUENCER	TOGGLE	TRUE	Run as Sequence
PSTATMODEL	IQUANT	5	Pstat Model
PSTATSECTION	LABEL	REF3000-16137	Pstat Section
PSTATSERIALNO	LABEL	16137	Pstat Serial Number
CTRLMODE	IQUANT	1	Control Mode
IESTAB	IQUANT	0	I/E Stability
CASPEED	IQUANT	1	Control Amp Speed
CONVENTION	IQUANT	1	Current Convention
ICHRANGE	IQUANT	2	Ich Range
ICHRANGEMODE	TOGGLE	F	Ich Auto Range
ICHOFFSETENABLE	TOGGLE	T	Ich Offset Enable
ICHOFFSET	QUANT	0	Ich Offset (V)
ICHFILTER	IQUANT	3	Ich Filter
VCHRANGE	IQUANT	2	Vch Range
VCHRANGEMODE	TOGGLE	F	Vch Auto Range
VCHOFFSETENABLE	TOGGLE	T	Vch Offset Enable
VCHOFFSET	QUANT	0	Vch Offset (V)
VCHFILTER	IQUANT	3	Vch Filter
ACHRANGE	IQUANT	2	Ach Range
ACHOFFSETENABLE	TOGGLE	F	Ach Offset Enable
ACHOFFSET	QUANT	0	Ach Offset (V)
ACHFILTER	IQUANT	3	Ach Filter
IERANGELOWERLIMIT	IQUANT	2	I/E Range Lower Limit
IERANGEMODE	TOGGLE	F	I/E AutoRange
IERANGE	IQUANT	11	I/E Range
POSFEEDENABLE	TOGGLE	F	Positive Feedback IR Comp
POSFEEDRESISTANCE	QUANT	0	Positive Feedback Resistance (ohm)
ACHSELECT	IQUANT	0	Ach Select
CABLEID	IQUANT	13	Cable ID
DCCALDATE	LABEL	7/31/2020	DC Calibration Date
ACCALDATE	LABEL	7/31/2020	AC Calibration Date
THERMOSELECT	IQUANT	1	Thermo Select
FRAMEWORKVERSION	QUANT	6.33	Framework Version
INSTRUMENTVERSION	LABEL	3.50	Instrument Version
COMPLIANCEVOLTAGE	IQUANT	0	Compliance Voltage
ZCURVE	TABLE
	Pt	Time	Freq	Zreal	Zimag	Zsig	Zmod	Zphz	Idc	Vdc	IERange
	#	s	Hz	ohm	ohm	V	ohm	°	A	V	#
	0	7	300046.9	50.77886	-1.696215	1	50.80718	-1.913195	-5.985835E-005	0.0018526	9
	1	10	238359.4	51.33653	-3.053412	1	51.42726	-3.403848	-4.378796E-006	0.000159	9
	2	13	189328.1	51.94181	-4.109832	1	52.10415	-4.524033	4.796649E-005	-0.0013738	9
	3	16	150421.9	52.70439	-5.481429	1	52.98867	-5.937602	-1.309716E-005	0.0007496	9
	4	18	119484.4	53.49199	-6.568888	1	53.89381	-7.000948	5.758192E-005	-0.0020003	9
	5	21	94921.88	54.3692	-7.714964	1	54.91385	-8.076325	-1.435717E-005	0.0003604	9
	6	23	75421.88	55.25702	-9.119198	1	56.00444	-9.371192	1.842809E-005	-0.0006051	9
	7	26	59859.37	56.19823	-10.69607	1	57.20705	-10.77608	2.124835E-005	-0.0004279	9
	8	29	47578.12	57.20955	-12.44573	1	58.54766	-12.27326	-1.24072E-005	0.000175	9
	9	31	37828.12	58.26261	-14.41992	1	60.02054	-13.90128	-1.622978E-005	0.0005935	9
	10	34	30046.88	59.34907	-16.82038	1	61.6866	-15.8235	-9.276198E-006	0.0006206	9
	11	36	23859.38	60.39756	-19.69612	1	63.52797	-18.06155	1.292192E-005	0.0001197	9
	12	38	18984.38	61.50219	-23.19049	1	65.72913	-20.65984	2.001025E-005	-0.0004935	9
	13	41	15046.87	62.6187	-27.66019	1	68.45573	-23.8322	-3.643221E-006	0.0005151	9
	14	43	11953.13	63.78151	-33.22338	1	71.91574	-27.51472	1.018425E-005	-0.0004682	9
	15	45	9515.62	65.02803	-40.04216	1	76.36766	-31.62342	1.08135E-005	5.261455E-005	9
	16	48	7546.875	66.4877	-48.67477	1	82.40054	-36.20737	-1.000434E-005	0.0007683	9
	17	50	5928.309	68.26734	-60.01364	1	90.89591	-41.31862	-1.265639E-005	0.0002313	9
	18	52	4733.456	70.23835	-73.24292	1	101.4788	-46.19963	1.537523E-005	-0.0005464	9
	19	55	3796.875	72.57313	-89.01942	1	114.8535	-50.81134	-8.735305E-006	0.0000958	9
	20	57	2987.132	75.54237	-110.4717	1	133.8307	-55.63504	1.009707E-005	-0.0004656	9
	21	59	2390.625	78.66982	-135.3459	1	156.5486	-59.83271	-1.619798E-005	0.0006382	9
	22	62	1884.191	83.13689	-167.7478	1	187.2193	-63.63669	-8.381506E-006	0.0006247	9
	23	64	1516.544	88.14213	-204.3573	1	222.5555	-66.66879	1.884144E-005	-0.0005554	9
	24	66	1193.986	95.1488	-254.1359	1	271.3639	-69.47404	-9.475072E-006	8.959978E-005	9
	25	69	946.5144	103.2341	-314.6326	1	331.1359	-71.83482	-2.426356E-006	0.0005615	9
	26	71	751.7689	112.8606	-388.6007	1	404.658	-73.80521	1.906601E-005	-0.0005658	9
	27	73	597.4265	124.5881	-476.6538	1	492.6672	-75.35172	1.206937E-006	-0.000147	8
	28	76	477.4305	138.5984	-585.6732	1	601.8494	-76.686	4.390665E-007	0.0006487	8
	29	78	376.6741	157.284	-727.9605	1	744.7582	-77.80802	4.369143E-007	0.0006574	8
	30	80	298.2954	180.1618	-901.9437	1	919.7612	-78.70393	4.474E-007	0.0006499	8
	31	83	237.7717	207.798	-1110.9	1	1130.167	-79.40504	4.487588E-007	0.0006519	8
	32	85	189.0121	242.6806	-1372.159	1	1393.454	-79.97036	4.424168E-007	0.0006582	8
	33	87	150.2404	286.5141	-1694.578	1	1718.629	-80.40336	4.531319E-007	0.0006448	8
	34	90	119.1737	341.8175	-2097.003	1	2124.679	-80.74204	4.55706E-007	0.0006476	8
	35	92	95.0169	412.3275	-2582.221	1	2614.934	-80.92764	4.604978E-007	0.0006435	8
	36	95	75.60484	501.7128	-3185.105	1	3224.377	-81.04841	4.636468E-007	0.0006429	8
	37	97	54.50582	672.628	-4295.911	1	4348.25	-81.10122	4.483244E-007	0.0006452	8
	38	100	45.95588	798.0211	-5030.799	1	5093.7	-80.98643	5.432963E-008	0.0006262	7
	39	102	37.20238	975.125	-6093.45	1	6170.98	-80.90813	4.593701E-008	0.0006804	7
	40	105	30.04808	1191.94	-7380.221	1	7475.854	-80.82568	4.533414E-008	0.0006241	7
	41	107	23.91582	1491.115	-9057.778	1	9179.693	-80.65166	4.404018E-008	0.000618	7
	42	109	18.60119	1905.437	-11360.01	1	11518.7	-80.4783	4.628881E-008	0.0006288	7
	43	112	15.02404	2291.151	-13739.74	1	13929.46	-80.53283	5.375652E-008	0.0006175	7
	44	114	12.01923	2821.654	-16769.29	1	17005.03	-80.4487	4.813525E-008	0.0006233	7
	45	117	9.450605	3521.857	-20804.51	1	21100.5	-80.39187	5.361525E-008	0.000624	7
	46	119	7.512019	4352.921	-25562.19	1	25930.16	-80.33595	5.305359E-008	0.0006311	7
	47	122	5.978954	5403.164	-31350.45	1	31812.65	-80.2213	5.357879E-008	0.0006273	7
	48	126	4.734848	6729.913	-38709.51	1	39290.18	-80.13732	5.546647E-008	0.0006228	7
	49	130	3.75601	8496.914	-47635.18	1	48387.06	-79.88625	7.806934E-009	0.0006721	6
	50	135	3.004808	10620.89	-58193.7	1	59154.97	-79.65682	7.011994E-009	0.0007047	6
	51	142	2.372217	13538.81	-71846.77	1	73111.27	-79.32832	6.483918E-009	0.00069	6
	52	146	1.878005	17524.24	-88595.89	1	90312.41	-78.81133	7.301439E-009	0.0006464	6
	53	151	1.512097	22171.78	-107393.3	1	109658.1	-78.33495	6.603917E-009	0.0007585	6
	54	156	1.201923	29073.14	-131601.2	1	134774.4	-77.5424	6.893742E-009	0.0007121	6
	55	162	0.956633	38022.37	-160581.4	1	165021.5	-76.67887	5.636185E-009	3.432468E-005	6
