EXPLAIN
TAG	EISPOT
TITLE	LABEL	Potentiostatic EIS	Test Identifier
DATE	LABEL	9/15/2020	Date
TIME	LABEL	9:01:43	Time
NOTES	NOTES	1	Notes...
	
PSTAT	PSTAT	REF3000-16137	Potentiostat
VDC	POTEN	0.00000E+000	T	DC Voltage (V)
FREQINIT	QUANT	3.00000E+005	Initial Freq. (Hz)
FREQFINAL	QUANT	1.00000E+000	Final Freq. (Hz)
PTSPERDEC	QUANT	1.00000E+001	Points/decade
VAC	QUANT	5.00000E+001	AC Voltage (mV rms)
AREA	QUANT	1.00000E+000	Sample Area (cm^2)
SPEED	SELECTOR	2	Optimize for:
ZGUESS	QUANT	1.00000E+003	Estimated Z (ohms)
EOC	QUANT	0	Open Circuit (V)
SEQUENCER	TOGGLE	TRUE	Run as Sequence
PSTATMODEL	IQUANT	5	Pstat Model
PSTATSECTION	LABEL	REF3000-16137	Pstat Section
PSTATSERIALNO	LABEL	16137	Pstat Serial Number
CTRLMODE	IQUANT	1	Control Mode
IESTAB	IQUANT	0	I/E Stability
CASPEED	IQUANT	1	Control Amp Speed
CONVENTION	IQUANT	1	Current Convention
ICHRANGE	IQUANT	2	Ich Range
ICHRANGEMODE	TOGGLE	F	Ich Auto Range
ICHOFFSETENABLE	TOGGLE	T	Ich Offset Enable
ICHOFFSET	QUANT	0	Ich Offset (V)
ICHFILTER	IQUANT	3	Ich Filter
VCHRANGE	IQUANT	2	Vch Range
VCHRANGEMODE	TOGGLE	F	Vch Auto Range
VCHOFFSETENABLE	TOGGLE	T	Vch Offset Enable
VCHOFFSET	QUANT	0	Vch Offset (V)
VCHFILTER	IQUANT	3	Vch Filter
ACHRANGE	IQUANT	2	Ach Range
ACHOFFSETENABLE	TOGGLE	F	Ach Offset Enable
ACHOFFSET	QUANT	0	Ach Offset (V)
ACHFILTER	IQUANT	3	Ach Filter
IERANGELOWERLIMIT	IQUANT	2	I/E Range Lower Limit
IERANGEMODE	TOGGLE	F	I/E AutoRange
IERANGE	IQUANT	11	I/E Range
POSFEEDENABLE	TOGGLE	F	Positive Feedback IR Comp
POSFEEDRESISTANCE	QUANT	0	Positive Feedback Resistance (ohm)
ACHSELECT	IQUANT	0	Ach Select
CABLEID	IQUANT	13	Cable ID
DCCALDATE	LABEL	7/31/2020	DC Calibration Date
ACCALDATE	LABEL	7/31/2020	AC Calibration Date
THERMOSELECT	IQUANT	1	Thermo Select
FRAMEWORKVERSION	QUANT	6.33	Framework Version
INSTRUMENTVERSION	LABEL	3.50	Instrument Version
COMPLIANCEVOLTAGE	IQUANT	0	Compliance Voltage
ZCURVE	TABLE
	Pt	Time	Freq	Zreal	Zimag	Zsig	Zmod	Zphz	Idc	Vdc	IERange
	#	s	Hz	ohm	ohm	V	ohm	°	A	V	#
	0	14	300046.9	-54.64003	-4990.421	1	4990.72	-90.6273	2.670227E-005	-0.0004632	9
	1	33	238359.4	-11.13028	-6121.719	1	6121.729	-90.10417	5.000066E-005	5.024196E-006	9
	2	47	189328.1	304.003	-7964.734	1	7970.534	-87.81416	4.914863E-005	0.0001995	9
	3	55	150421.9	-587.9493	-9460.104	1	9478.357	-93.55638	2.780898E-005	-0.001891	9
	4	64	119484.4	181.3014	-11833.65	1	11835.03	-89.12225	-2.130525E-005	0.0016938	9
	5	75	94921.88	502.3606	-14871.48	1	14879.96	-88.06528	-9.973058E-007	-0.0051394	8
	6	84	75421.88	524.3516	-18701.55	1	18708.9	-88.39397	-1.982293E-005	0.0112312	8
	7	93	59859.37	688.9081	-23343.17	1	23353.34	-88.30957	-2.348528E-006	0.0078456	8
	8	100	47578.12	4195.084	-30606.39	1	30892.55	-82.19535	-1.012704E-006	-0.0135457	7
	9	106	37828.12	4240.75	-38204.27	1	38438.91	-83.66599	6.930853E-006	-0.0270128	7
	10	114	30046.88	4727.035	-47365.23	1	47600.52	-84.30077	-7.313827E-006	0.0186006	7
	11	121	23859.38	-46.21473	-57063.61	1	57063.63	-90.0464	-2.384397E-005	0.0051982	8
	12	128	18984.38	2182.798	-70617.13	1	70650.85	-88.22953	-2.527464E-005	0.0111612	8
	13	134	15046.87	-4775.041	-90362.52	1	90488.6	-93.02488	1.730522E-005	0.0003981	8
	14	141	11953.13	5434.993	-114604.4	1	114733.2	-87.28484	3.569209E-006	-0.0247599	7
	15	147	9515.62	2460.849	-149517	1	149537.2	-89.05708	-1.602558E-006	0.0215853	7
	16	152	7546.875	3135.996	-180179.8	1	180207	-89.00288	7.615748E-006	-0.018549	7
	17	158	5928.309	7384.52	-218652.5	1	218777.1	-88.06569	-3.397778E-006	-0.0052558	7
	18	163	4733.456	-16885.07	-305434.2	1	305900.6	-93.16422	-5.358812E-006	0.0034309	7
	19	169	3796.875	-3896.96	-399630.4	1	399649.4	-90.5587	8.127296E-006	-0.0076855	8
	20	176	2987.132	12651.47	-504878.1	1	505036.6	-88.56455	-6.741708E-006	0.0118939	7
	21	183	2390.625	72645.54	-485347.1	1	490753.7	-81.4873	1.657648E-005	-0.0093188	8
	22	190	1884.191	103893.3	-800073.6	1	806790.9	-82.60128	-1.053032E-006	-0.0135439	7
	23	198	1516.544	-81035.64	-1654524	1	1656508	-92.804	-1.081375E-006	-0.013495	7
	24	205	1193.986	159083.5	-1171634	1	1182384	-82.26771	-4.066266E-007	0.0256677	6
	25	211	946.5144	62957.91	-1531594	1	1532888	-87.64612	-6.384882E-007	0.0092825	6
	26	216	751.7689	-170689.8	-1895990	1	1903658	-95.1443	7.845086E-007	-0.0229629	6
	27	219	597.4265	42404.12	-1775561	1	1776068	-88.63192	-6.629674E-007	0.0100493	6
	28	224	477.4305	81777.95	-2871874	1	2873038	-88.36892	-1.025052E-008	0.0007416	6
	29	229	376.6741	483979.1	-3755556	1	3786612	-82.65675	-1.089571E-009	0.000661	5
	30	233	298.2954	481346.9	-4680318	1	4705005	-84.12807	-9.685188E-010	0.0006218	5
	31	237	237.7717	469151.1	-5702106	1	5721374	-85.29648	-9.911825E-010	0.0006815	5
	32	241	189.0121	593170.1	-7265909	1	7290081	-85.33287	-9.429274E-010	0.0006432	5
	33	244	150.2404	604466.1	-8925053	1	8945499	-86.12545	-9.769439E-010	0.0006426	5
	34	247	119.1737	-187494.7	-8749894	1	8751903	-91.22756	-1.060807E-009	0.0006984	5
	35	250	95.0169	776446.8	-1.400266E+007	1	1.402417E+007	-86.8262	-9.8558E-010	0.0006787	5
	36	253	75.60484	2010743	-1.680109E+007	1	1.692098E+007	-83.17534	-9.533959E-010	0.0006971	5
	37	256	54.50582	1928829	-2.400339E+007	1	2.408076E+007	-85.40578	-9.333394E-010	0.0005945	5
	38	259	45.95588	2434308	-3.154204E+007	1	3.163584E+007	-85.58685	-9.087351E-010	0.000611	5
	39	262	37.20238	-2507942	-3.940924E+007	1	3.948896E+007	-93.6413	-9.384094E-010	0.0006843	5
	40	266	30.04808	3877206	-4.625252E+007	1	4.641474E+007	-85.20827	-7.991976E-011	0.0006991	4
	41	270	23.91582	-3425460	-5.649185E+007	1	5.659561E+007	-93.46996	-1.658832E-010	0.0006095	4
	42	274	18.60119	1.039265E+007	-4.40882E+007	1	4.529654E+007	-76.73615	-3.683473E-010	0.0007076	4
	43	278	15.02404	6512195	-9.023189E+007	1	9.046658E+007	-85.87202	-9.160386E-011	0.0006268	4
	44	281	12.01923	6845036	-1.150301E+008	1	1.152335E+008	-86.59454	-1.045429E-010	0.0006357	4
	45	285	9.450605	9219470	-1.352736E+008	1	1.355874E+008	-86.10108	-9.571889E-011	0.0006113	4
	46	289	7.512019	8261517	-1.896654E+008	1	1.898452E+008	-87.50587	-7.12292E-011	0.0006063	4
	47	293	5.978954	1.326712E+007	-2.148993E+008	1	2.153084E+008	-86.46725	-8.194188E-011	0.0006158	4
	48	299	4.734848	4.63192E+007	-2.973383E+008	1	3.009245E+008	-81.14566	-5.999263E-012	0.0007693	3
	49	304	3.75601	5.683428E+007	-3.561917E+008	1	3.606975E+008	-80.93426	-9.660024E-010	0.0006721	5
	50	312	3.004808	6707103	-4.18803E+008	1	4.188567E+008	-89.08249	-9.478048E-010	0.0006378	5
	51	321	2.372217	5.408245E+007	-5.648706E+008	1	5.674537E+008	-84.531	-6.390112E-012	0.0008022	3
	52	328	1.878005	5.330759E+007	-7.04625E+008	1	7.066386E+008	-85.6736	-7.353139E-012	0.0007016	3
	53	337	1.512097	5.878718E+007	-8.710669E+008	1	8.730484E+008	-86.13904	-6.668097E-012	0.0007465	3
	54	343	1.201923	4.484708E+007	-1.093511E+009	1	1.09443E+009	-87.6515	-6.90638E-012	0.0006916	3
	55	356	0.956633	3.644138E+007	-1.353726E+009	1	1.354217E+009	-88.45801	-6.735271E-012	8.895004E-005	3
