EXPLAIN
TAG	EISPOT
TITLE	LABEL	Potentiostatic EIS	Test Identifier
DATE	LABEL	9/15/2020	Date
TIME	LABEL	2:08:33	Time
NOTES	NOTES	1	Notes...
	
PSTAT	PSTAT	REF3000-16137	Potentiostat
VDC	POTEN	0.00000E+000	T	DC Voltage (V)
FREQINIT	QUANT	3.00000E+005	Initial Freq. (Hz)
FREQFINAL	QUANT	1.00000E+000	Final Freq. (Hz)
PTSPERDEC	QUANT	1.00000E+001	Points/decade
VAC	QUANT	5.00000E+001	AC Voltage (mV rms)
AREA	QUANT	1.00000E+000	Sample Area (cm^2)
SPEED	SELECTOR	2	Optimize for:
ZGUESS	QUANT	1.00000E+003	Estimated Z (ohms)
EOC	QUANT	0	Open Circuit (V)
SEQUENCER	TOGGLE	TRUE	Run as Sequence
PSTATMODEL	IQUANT	5	Pstat Model
PSTATSECTION	LABEL	REF3000-16137	Pstat Section
PSTATSERIALNO	LABEL	16137	Pstat Serial Number
CTRLMODE	IQUANT	1	Control Mode
IESTAB	IQUANT	0	I/E Stability
CASPEED	IQUANT	1	Control Amp Speed
CONVENTION	IQUANT	1	Current Convention
ICHRANGE	IQUANT	2	Ich Range
ICHRANGEMODE	TOGGLE	F	Ich Auto Range
ICHOFFSETENABLE	TOGGLE	T	Ich Offset Enable
ICHOFFSET	QUANT	0	Ich Offset (V)
ICHFILTER	IQUANT	3	Ich Filter
VCHRANGE	IQUANT	2	Vch Range
VCHRANGEMODE	TOGGLE	F	Vch Auto Range
VCHOFFSETENABLE	TOGGLE	T	Vch Offset Enable
VCHOFFSET	QUANT	0	Vch Offset (V)
VCHFILTER	IQUANT	3	Vch Filter
ACHRANGE	IQUANT	2	Ach Range
ACHOFFSETENABLE	TOGGLE	F	Ach Offset Enable
ACHOFFSET	QUANT	0	Ach Offset (V)
ACHFILTER	IQUANT	3	Ach Filter
IERANGELOWERLIMIT	IQUANT	2	I/E Range Lower Limit
IERANGEMODE	TOGGLE	F	I/E AutoRange
IERANGE	IQUANT	11	I/E Range
POSFEEDENABLE	TOGGLE	F	Positive Feedback IR Comp
POSFEEDRESISTANCE	QUANT	0	Positive Feedback Resistance (ohm)
ACHSELECT	IQUANT	0	Ach Select
CABLEID	IQUANT	13	Cable ID
DCCALDATE	LABEL	7/31/2020	DC Calibration Date
ACCALDATE	LABEL	7/31/2020	AC Calibration Date
THERMOSELECT	IQUANT	1	Thermo Select
FRAMEWORKVERSION	QUANT	6.33	Framework Version
INSTRUMENTVERSION	LABEL	3.50	Instrument Version
COMPLIANCEVOLTAGE	IQUANT	0	Compliance Voltage
ZCURVE	TABLE
	Pt	Time	Freq	Zreal	Zimag	Zsig	Zmod	Zphz	Idc	Vdc	IERange
	#	s	Hz	ohm	ohm	V	ohm	°	A	V	#
	0	6	300046.9	84.73089	-3.911823	1	84.82114	-2.643332	-9.597547E-006	-0.0013311	9
	1	10	238359.4	85.3185	-5.282011	1	85.48185	-3.542622	-3.17856E-005	-0.0004899	9
	2	13	189328.1	86.16196	-6.886925	1	86.43675	-4.569936	-6.991789E-005	0.0018175	9
	3	15	150421.9	87.18154	-8.243689	1	87.57043	-5.401698	1.284541E-005	0.000769	9
	4	18	119484.4	88.24972	-9.97321	1	88.81147	-6.447708	1.083751E-005	-0.0007553	9
	5	20	94921.88	89.6263	-11.37384	1	90.3451	-7.232345	-5.135053E-006	0.0005959	9
	6	23	75421.88	90.94286	-13.28476	1	91.90805	-8.310879	-2.676577E-006	-0.0002751	9
	7	25	59859.37	92.52647	-15.38612	1	93.79702	-9.441258	-5.054745E-006	0.0006106	9
	8	28	47578.12	94.10709	-17.61833	1	95.7421	-10.60392	-1.371463E-005	0.0001496	9
	9	30	37828.12	95.9709	-20.19802	1	98.0734	-11.885	3.011079E-006	0.000397	9
	10	33	30046.88	97.7626	-23.10812	1	100.4566	-13.2989	2.328998E-005	-0.0005992	9
	11	36	23859.38	99.6954	-26.65803	1	103.198	-14.97036	8.66578E-006	-0.0004737	9
	12	38	18984.38	101.436	-30.87234	1	106.03	-16.92779	1.196489E-005	-0.0006046	9
	13	40	15046.87	103.2895	-36.1371	1	109.4286	-19.28301	3.733212E-006	0.0004611	9
	14	42	11953.13	105.1731	-42.63894	1	113.4877	-22.06845	2.878672E-006	0.0003998	9
	15	45	9515.62	107.144	-50.71558	1	118.5408	-25.33008	2.194978E-005	-0.0002471	9
	16	47	7546.875	109.1618	-60.98171	1	125.0403	-29.1893	-9.969738E-006	7.89644E-006	9
	17	49	5928.309	111.4959	-74.41015	1	134.0456	-33.71835	-1.963926E-005	0.0006297	9
	18	52	4733.456	113.9664	-90.37313	1	145.4498	-38.41374	3.94679E-006	0.0004255	9
	19	54	3796.875	116.9323	-109.4729	1	160.1795	-43.11297	4.897179E-006	-0.0004533	9
	20	56	2987.132	120.3845	-135.6378	1	181.3561	-48.40953	2.218312E-005	-0.0002724	9
	21	59	2390.625	124.6896	-165.426	1	207.1552	-52.9929	2.230084E-005	-0.000321	9
	22	61	1884.191	129.5404	-205.1038	1	242.5867	-57.72412	-1.180842E-005	0.0007807	9
	23	63	1516.544	136.0099	-249.9683	1	284.5748	-61.449	-4.612209E-006	0.0006755	9
	24	66	1193.986	143.8474	-310.5147	1	342.2156	-65.14384	4.254824E-006	-0.0004336	9
	25	68	946.5144	151.9453	-384.6517	1	413.575	-68.44496	-1.177125E-005	0.0007488	9
	26	71	751.7689	164.1231	-471.8315	1	499.5612	-70.82014	3.018119E-006	-0.0011169	8
	27	73	597.4265	178.3324	-583.8424	1	610.4706	-73.01492	6.163225E-006	-0.0012562	8
	28	75	477.4305	194.7367	-716.168	1	742.1718	-74.78822	2.975421E-007	0.0006376	8
	29	78	376.6741	216.4564	-890.6158	1	916.5424	-76.33961	2.650451E-007	0.0006846	8
	30	80	298.2954	242.8375	-1104.007	1	1130.399	-77.59476	3.082287E-007	0.0006454	8
	31	82	237.7717	274.2956	-1360.461	1	1387.837	-78.60087	2.984078E-007	0.0006471	8
	32	85	189.0121	313.4907	-1681.125	1	1710.104	-79.43699	3.07906E-007	0.000642	8
	33	87	150.2404	361.8265	-2077.601	1	2108.873	-80.12069	2.846881E-007	0.0006511	8
	34	90	119.1737	421.9992	-2573.453	1	2607.823	-80.68742	3.108543E-007	0.0006474	8
	35	92	95.0169	495.3661	-3172.356	1	3210.799	-81.12489	3.058212E-007	0.0006382	8
	36	95	75.60484	586.6655	-3918.552	1	3962.225	-81.48521	2.950361E-007	0.0006983	8
	37	97	54.50582	761.6805	-5315.358	1	5369.655	-81.84514	2.267838E-008	0.0006173	7
	38	100	45.95588	873.7031	-6222.967	1	6284.001	-82.00793	3.132165E-008	0.0006228	7
	39	102	37.20238	1042.004	-7560.65	1	7632.117	-82.15297	2.802329E-008	0.0006225	7
	40	104	30.04808	1252.914	-9207.528	1	9292.383	-82.25108	2.578403E-008	0.0006143	7
	41	107	23.91582	1528.21	-11373.39	1	11475.6	-82.34717	2.47224E-008	0.0006105	7
	42	109	18.60119	1914.704	-14348.72	1	14475.91	-82.39931	2.800298E-008	0.0006174	7
	43	111	15.02404	2333.657	-17455.01	1	17610.31	-82.38496	3.329614E-008	0.0006183	7
	44	114	12.01923	2865.358	-21443.59	1	21634.18	-82.38905	2.935068E-008	0.000622	7
	45	116	9.450605	3599.047	-26764.31	1	27005.21	-82.34127	3.034484E-008	0.0006149	7
	46	119	7.512019	4463.383	-33080.02	1	33379.77	-82.31567	3.066058E-008	0.0006098	7
	47	121	5.978954	5573.76	-40806.52	1	41185.42	-82.22211	3.187544E-008	0.0006256	7
	48	126	4.734848	7087.4	-50626.87	1	51120.56	-82.03079	5.033574E-009	0.0006879	6
	49	129	3.75601	9006.527	-62602.04	1	63246.6	-81.81306	3.56448E-009	0.0006507	6
	50	135	3.004808	11398.99	-76741.57	1	77583.54	-81.55122	4.181734E-009	0.0006854	6
	51	141	2.372217	14816.43	-95201.2	1	96347.2	-81.15386	3.783474E-009	0.0007155	6
	52	145	1.878005	18993.38	-117871.9	1	119392.3	-80.84628	2.937777E-009	0.0006473	6
	53	150	1.512097	24174.21	-142956	1	144985.5	-80.40194	3.806307E-009	0.0006947	6
	54	155	1.201923	31302.94	-176184.1	1	178943.4	-79.92529	3.356197E-009	0.0006294	6
	55	162	0.956633	40667.85	-216015.7	1	219810.5	-79.3381	2.934787E-009	2.165783E-005	6
