EXPLAIN
TAG	EISPOT
TITLE	LABEL	Potentiostatic EIS	Test Identifier
DATE	LABEL	9/15/2020	Date
TIME	LABEL	3:25:36	Time
NOTES	NOTES	1	Notes...
	
PSTAT	PSTAT	REF3000-16137	Potentiostat
VDC	POTEN	0.00000E+000	T	DC Voltage (V)
FREQINIT	QUANT	3.00000E+005	Initial Freq. (Hz)
FREQFINAL	QUANT	1.00000E+000	Final Freq. (Hz)
PTSPERDEC	QUANT	1.00000E+001	Points/decade
VAC	QUANT	5.00000E+001	AC Voltage (mV rms)
AREA	QUANT	1.00000E+000	Sample Area (cm^2)
SPEED	SELECTOR	2	Optimize for:
ZGUESS	QUANT	1.00000E+003	Estimated Z (ohms)
EOC	QUANT	0	Open Circuit (V)
SEQUENCER	TOGGLE	TRUE	Run as Sequence
PSTATMODEL	IQUANT	5	Pstat Model
PSTATSECTION	LABEL	REF3000-16137	Pstat Section
PSTATSERIALNO	LABEL	16137	Pstat Serial Number
CTRLMODE	IQUANT	1	Control Mode
IESTAB	IQUANT	0	I/E Stability
CASPEED	IQUANT	1	Control Amp Speed
CONVENTION	IQUANT	1	Current Convention
ICHRANGE	IQUANT	2	Ich Range
ICHRANGEMODE	TOGGLE	F	Ich Auto Range
ICHOFFSETENABLE	TOGGLE	T	Ich Offset Enable
ICHOFFSET	QUANT	0	Ich Offset (V)
ICHFILTER	IQUANT	3	Ich Filter
VCHRANGE	IQUANT	2	Vch Range
VCHRANGEMODE	TOGGLE	F	Vch Auto Range
VCHOFFSETENABLE	TOGGLE	T	Vch Offset Enable
VCHOFFSET	QUANT	0	Vch Offset (V)
VCHFILTER	IQUANT	3	Vch Filter
ACHRANGE	IQUANT	2	Ach Range
ACHOFFSETENABLE	TOGGLE	F	Ach Offset Enable
ACHOFFSET	QUANT	0	Ach Offset (V)
ACHFILTER	IQUANT	3	Ach Filter
IERANGELOWERLIMIT	IQUANT	2	I/E Range Lower Limit
IERANGEMODE	TOGGLE	F	I/E AutoRange
IERANGE	IQUANT	11	I/E Range
POSFEEDENABLE	TOGGLE	F	Positive Feedback IR Comp
POSFEEDRESISTANCE	QUANT	0	Positive Feedback Resistance (ohm)
ACHSELECT	IQUANT	0	Ach Select
CABLEID	IQUANT	13	Cable ID
DCCALDATE	LABEL	7/31/2020	DC Calibration Date
ACCALDATE	LABEL	7/31/2020	AC Calibration Date
THERMOSELECT	IQUANT	1	Thermo Select
FRAMEWORKVERSION	QUANT	6.33	Framework Version
INSTRUMENTVERSION	LABEL	3.50	Instrument Version
COMPLIANCEVOLTAGE	IQUANT	0	Compliance Voltage
ZCURVE	TABLE
	Pt	Time	Freq	Zreal	Zimag	Zsig	Zmod	Zphz	Idc	Vdc	IERange
	#	s	Hz	ohm	ohm	V	ohm	°	A	V	#
	0	13	300046.9	194.9381	-12.34755	1	195.3288	-3.624322	2.142093E-005	-0.0015951	9
	1	16	238359.4	196.1805	-13.24894	1	196.6274	-3.863572	1.994963E-005	-0.001573	9
	2	21	189328.1	198.0249	-14.5226	1	198.5567	-4.194406	7.187113E-005	-0.0017488	9
	3	23	150421.9	199.5887	-16.67459	1	200.284	-4.775671	1.591881E-005	-0.000914	9
	4	26	119484.4	201.076	-18.69946	1	201.9436	-5.313052	-7.696068E-005	0.0034016	9
	5	28	94921.88	203.299	-21.09595	1	204.3907	-5.924271	2.289154E-005	-0.0005877	9
	6	31	75421.88	205.8779	-23.82665	1	207.252	-6.601583	1.461682E-005	-0.0007842	9
	7	34	59859.37	208.6347	-26.98297	1	210.3724	-7.369223	-2.279846E-005	0.000678	9
	8	36	47578.12	211.8302	-30.55356	1	214.0223	-8.207517	2.698613E-005	-0.00063	9
	9	39	37828.12	215.4223	-34.64061	1	218.1897	-9.135144	1.201777E-005	0.0002138	9
	10	41	30046.88	219.1881	-39.07948	1	222.6447	-10.10915	1.178838E-005	0.0002693	9
	11	44	23859.38	223.2493	-43.99094	1	227.5422	-11.14724	-1.057922E-005	-8.954878E-006	9
	12	46	18984.38	227.6822	-49.88681	1	233.0834	-12.35862	3.631189E-006	0.000623	9
	13	48	15046.87	232.3315	-56.71556	1	239.1539	-13.71844	-2.119929E-005	0.0005185	9
	14	51	11953.13	237.1811	-65.21944	1	245.9847	-15.37505	-2.005392E-005	0.0003824	9
	15	54	9515.62	241.2016	-75.18577	1	252.6482	-17.31296	-1.603424E-005	0.0009328	9
	16	57	7546.875	245.9358	-87.94633	1	261.1876	-19.67699	-9.589625E-006	-6.954771E-005	9
	17	60	5928.309	250.4826	-104.3598	1	271.3531	-22.61832	-2.289612E-005	0.0008616	9
	18	62	4733.456	255.2145	-123.7921	1	283.6528	-25.87576	1.921219E-005	-5.835264E-005	9
	19	66	3796.875	260.254	-147.347	1	299.0707	-29.51707	2.670532E-005	-0.0004442	9
	20	68	2987.132	265.7632	-180.0385	1	321.0046	-34.11527	2.665002E-005	-0.0006429	9
	21	70	2390.625	270.992	-217.5913	1	347.5379	-38.7625	1.515447E-005	-0.0007664	9
	22	73	1884.191	278.5551	-267.7203	1	386.351	-43.86375	-2.154123E-005	0.0004889	9
	23	75	1516.544	286.9573	-324.7356	1	433.3563	-48.53411	1.525542E-005	-0.0007845	9
	24	78	1193.986	295.4469	-401.3759	1	498.3889	-53.64376	4.348559E-006	-0.0025574	8
	25	80	946.5144	306.9593	-495.0405	1	582.4853	-58.19823	-2.50797E-006	0.0035917	8
	26	82	751.7689	320.6514	-613.0545	1	691.8477	-62.38868	9.188591E-007	0.0027052	8
	27	85	597.4265	339.7977	-753.7856	1	826.8345	-65.73471	-5.439788E-006	0.000485	8
	28	87	477.4305	361.5609	-926.666	1	994.704	-68.68556	7.91749E-008	0.0006522	8
	29	89	376.6741	389.5549	-1152.458	1	1216.517	-71.32368	9.196984E-008	0.0006356	8
	30	92	298.2954	423.5684	-1428.745	1	1490.209	-73.48692	8.757769E-008	0.0006408	8
	31	94	237.7717	464.4135	-1760.803	1	1821.018	-75.22466	4.300946E-008	0.0006963	8
	32	97	189.0121	515.3492	-2175.979	1	2236.173	-76.67583	9.161418E-008	0.0006441	8
	33	99	150.2404	578.4529	-2689.088	1	2750.601	-77.86003	7.482844E-008	0.0006462	8
	34	101	119.1737	657.0781	-3330.266	1	3394.469	-78.83862	6.437961E-008	0.0006599	8
	35	104	95.0169	751.9832	-4105.425	1	4173.727	-79.6203	8.909745E-008	0.0006475	8
	36	106	75.60484	872.468	-5080.282	1	5154.655	-80.2553	1.221677E-010	0.0006197	7
	37	109	54.50582	1091.831	-6873.828	1	6960	-80.9746	3.572226E-010	0.000611	7
	38	111	45.95588	1234.205	-8046.883	1	8140.982	-81.28011	3.287074E-009	0.0006073	7
	39	114	37.20238	1446.196	-9779.4	1	9885.75	-81.58796	-2.902564E-009	0.0006683	7
	40	116	30.04808	1707.002	-11911.05	1	12032.75	-81.84434	1.883521E-009	0.0006151	7
	41	119	23.91582	2056.003	-14724.92	1	14867.76	-82.05132	-2.504045E-010	0.0006217	7
	42	121	18.60119	2537.608	-18556.77	1	18729.47	-82.2132	1.658237E-009	0.0006132	7
	43	123	15.02404	3045.086	-22611.85	1	22815.96	-82.33025	4.030718E-009	0.0006097	7
	44	125	12.01923	3696.727	-27787.37	1	28032.19	-82.42208	-8.792979E-011	0.0006312	7
	45	128	9.450605	4602.364	-34676.31	1	34980.4	-82.43968	2.264866E-009	0.0006041	7
	46	130	7.512019	5655.356	-42867.54	1	43238.97	-82.48458	1.111305E-010	0.0006548	6
	47	133	5.978954	6957.229	-52892.39	1	53347.99	-82.50658	2.501016E-010	0.0007112	6
	48	136	4.734848	8628.05	-65572.77	1	66137.97	-82.5041	6.989845E-010	0.0006364	6
	49	139	3.75601	10668.29	-81176.88	1	81874.89	-82.51308	6.771099E-010	0.0006859	6
	50	145	3.004808	13145.41	-99655	1	100518.3	-82.48555	-1.526682E-011	0.0006954	6
	51	151	2.372217	16536.29	-124101.5	1	125198.3	-82.41015	2.137092E-010	0.0005884	6
	52	156	1.878005	20754.47	-153905.2	1	155298.3	-82.31986	3.603749E-010	0.0006741	6
	53	160	1.512097	26026.77	-187551.5	1	189348.7	-82.09944	-5.500588E-011	0.0005918	6
	54	166	1.201923	32722.62	-232018.3	1	234314.4	-81.97225	2.366853E-010	0.0006978	6
	55	172	0.956633	41523.28	-285921.8	1	288921.2	-81.73693	-1.409323E-010	6.094191E-005	6
