EXPLAIN
TAG	EISPOT
TITLE	LABEL	Potentiostatic EIS	Test Identifier
DATE	LABEL	9/15/2020	Date
TIME	LABEL	9:26:42	Time
NOTES	NOTES	1	Notes...
	
PSTAT	PSTAT	REF3000-16137	Potentiostat
VDC	POTEN	0.00000E+000	T	DC Voltage (V)
FREQINIT	QUANT	3.00000E+005	Initial Freq. (Hz)
FREQFINAL	QUANT	1.00000E+000	Final Freq. (Hz)
PTSPERDEC	QUANT	1.00000E+001	Points/decade
VAC	QUANT	5.00000E+001	AC Voltage (mV rms)
AREA	QUANT	1.00000E+000	Sample Area (cm^2)
SPEED	SELECTOR	2	Optimize for:
ZGUESS	QUANT	1.00000E+003	Estimated Z (ohms)
EOC	QUANT	0	Open Circuit (V)
SEQUENCER	TOGGLE	TRUE	Run as Sequence
PSTATMODEL	IQUANT	5	Pstat Model
PSTATSECTION	LABEL	REF3000-16137	Pstat Section
PSTATSERIALNO	LABEL	16137	Pstat Serial Number
CTRLMODE	IQUANT	1	Control Mode
IESTAB	IQUANT	0	I/E Stability
CASPEED	IQUANT	1	Control Amp Speed
CONVENTION	IQUANT	1	Current Convention
ICHRANGE	IQUANT	2	Ich Range
ICHRANGEMODE	TOGGLE	F	Ich Auto Range
ICHOFFSETENABLE	TOGGLE	T	Ich Offset Enable
ICHOFFSET	QUANT	0	Ich Offset (V)
ICHFILTER	IQUANT	3	Ich Filter
VCHRANGE	IQUANT	2	Vch Range
VCHRANGEMODE	TOGGLE	F	Vch Auto Range
VCHOFFSETENABLE	TOGGLE	T	Vch Offset Enable
VCHOFFSET	QUANT	0	Vch Offset (V)
VCHFILTER	IQUANT	3	Vch Filter
ACHRANGE	IQUANT	2	Ach Range
ACHOFFSETENABLE	TOGGLE	F	Ach Offset Enable
ACHOFFSET	QUANT	0	Ach Offset (V)
ACHFILTER	IQUANT	3	Ach Filter
IERANGELOWERLIMIT	IQUANT	2	I/E Range Lower Limit
IERANGEMODE	TOGGLE	F	I/E AutoRange
IERANGE	IQUANT	11	I/E Range
POSFEEDENABLE	TOGGLE	F	Positive Feedback IR Comp
POSFEEDRESISTANCE	QUANT	0	Positive Feedback Resistance (ohm)
ACHSELECT	IQUANT	0	Ach Select
CABLEID	IQUANT	13	Cable ID
DCCALDATE	LABEL	7/31/2020	DC Calibration Date
ACCALDATE	LABEL	7/31/2020	AC Calibration Date
THERMOSELECT	IQUANT	1	Thermo Select
FRAMEWORKVERSION	QUANT	6.33	Framework Version
INSTRUMENTVERSION	LABEL	3.50	Instrument Version
COMPLIANCEVOLTAGE	IQUANT	0	Compliance Voltage
ZCURVE	TABLE
	Pt	Time	Freq	Zreal	Zimag	Zsig	Zmod	Zphz	Idc	Vdc	IERange
	#	s	Hz	ohm	ohm	V	ohm	°	A	V	#
	0	21	300046.9	-90.05779	-4921.984	1	4922.808	-91.04823	-2.035991E-005	0.0011305	9
	1	45	238359.4	85.54302	-6204.741	1	6205.331	-89.21013	2.465376E-005	-0.0015593	9
	2	62	189328.1	-2.963511	-8044.265	1	8044.266	-90.02111	2.441569E-005	0.0009959	9
	3	69	150421.9	2.912786	-9323.131	1	9323.131	-89.9821	2.455994E-005	0.0010706	9
	4	81	119484.4	-143.0651	-11538.82	1	11539.7	-90.71035	1.898559E-005	-0.0002801	9
	5	90	94921.88	582.1642	-14778.13	1	14789.59	-87.74408	2.71455E-005	-0.0073782	8
	6	97	75421.88	817.5213	-18617.45	1	18635.39	-87.48566	-2.474757E-005	0.0110564	8
	7	106	59859.37	712.3651	-23658.64	1	23669.37	-88.27534	1.633388E-005	-0.0092693	8
	8	115	47578.12	752.0668	-29362.18	1	29371.81	-88.53278	-8.910447E-006	-0.0001972	9
	9	125	37828.12	4076.211	-37802.05	1	38021.18	-83.84555	5.428052E-006	-0.0268091	7
	10	132	30046.88	4409.867	-47398.75	1	47603.45	-84.68464	-3.85466E-006	0.0257614	7
	11	140	23859.38	5153.816	-59011.12	1	59235.75	-85.00866	-6.66383E-006	0.0261367	7
	12	145	18984.38	5583.839	-73643.09	1	73854.48	-85.66396	-3.837741E-006	0.0256316	7
	13	151	15046.87	4905.16	-93304.23	1	93433.07	-86.99064	-3.359837E-006	-0.0053694	7
	14	156	11953.13	5619.524	-103764.6	1	103916.6	-86.90009	8.619321E-006	-0.0078568	8
	15	163	9515.62	8629.253	-146852.9	1	147106.2	-86.6371	7.92713E-006	0.0043238	8
	16	171	7546.875	6817.402	-183813.8	1	183940.1	-87.87595	-1.018182E-006	-0.0134643	7
	17	177	5928.309	-32770.09	-255015.6	1	257112.5	-97.3225	4.907396E-006	-0.0005123	7
	18	183	4733.456	-8037.412	-273268.7	1	273386.9	-91.68471	-3.37672E-006	-0.0052833	7
	19	190	3796.875	13840.67	-350902.1	1	351175	-87.74125	-5.291314E-006	0.0035137	7
	20	197	2987.132	-240376.8	-883456.6	1	915574.4	-105.2209	-2.626283E-005	0.0075406	8
	21	204	2390.625	97405.1	-980182	1	985010	-84.32489	2.605119E-005	-0.0050749	8
	22	214	1884.191	-492812.3	-165536.5	1	519871.5	-161.4327	-2.020771E-005	0.002742	8
	23	224	1516.544	-217429	-575666.3	1	615359.3	-110.6915	1.634524E-005	-0.0092357	8
	24	231	1193.986	474265.5	-1469749	1	1544374	-72.11591	-3.376716E-006	-0.0052705	7
	25	239	946.5144	226217.1	-1449302	1	1466851	-81.12846	-6.79198E-007	0.026113	6
	26	244	751.7689	95271.2	-1794501	1	1797028	-86.96098	-7.310532E-007	0.0175529	6
	27	248	597.4265	194666.3	-2047123	1	2056358	-84.56793	-4.840115E-007	0.001349	6
	28	251	477.4305	89360.75	-2871996	1	2873386	-88.21784	-8.453837E-009	0.0006161	6
	29	255	376.6741	480297.3	-3748313	1	3778960	-82.69808	-1.004722E-009	0.0006022	5
	30	259	298.2954	509919.5	-4665852	1	4693633	-83.76304	-1.036149E-009	0.0007314	5
	31	263	237.7717	627305.1	-5792413	1	5826281	-83.81908	-9.683637E-010	0.0006452	5
	32	266	189.0121	549902.3	-7252799	1	7273616	-85.66417	-1.018984E-009	0.0006871	5
	33	269	150.2404	453757.9	-8906746	1	8918297	-87.08356	-9.945695E-010	0.0006912	5
	34	271	119.1737	4427594	-1.098779E+007	1	1.184632E+007	-68.05275	-9.512119E-010	0.0007009	5
	35	274	95.0169	422536.6	-1.386555E+007	1	1.387199E+007	-88.25452	-8.57773E-010	0.0006035	5
	36	277	75.60484	2072429	-1.70976E+007	1	1.722274E+007	-83.0888	-9.091766E-010	0.0005944	5
	37	280	54.50582	1258351	-2.491255E+007	1	2.494431E+007	-87.10841	-9.002659E-010	0.0006153	5
	38	283	45.95588	-1239448	-3.062469E+007	1	3.064976E+007	-92.31762	-8.857506E-010	0.0005974	5
	39	287	37.20238	-1348588	-3.391731E+007	1	3.394411E+007	-92.27694	-8.85315E-010	0.0006256	5
	40	291	30.04808	-220942.7	-4.302782E+007	1	4.302838E+007	-90.2942	-9.884495E-010	0.0006873	5
	41	295	23.91582	9.618856E+006	-6.162036E+007	1	6.236659E+007	-81.12781	-1.342487E-010	0.000603	4
	42	298	18.60119	2343829	-4.591471E+007	1	4.597449E+007	-87.07774	-3.300979E-010	0.0006102	4
	43	302	15.02404	8799440	-9.188198E+007	1	9.230237E+007	-84.52953	-1.011952E-010	0.0006028	4
	44	306	12.01923	8082570	-1.064144E+008	1	1.067209E+008	-85.65651	-7.473249E-011	0.0006527	4
	45	309	9.450605	1.123145E+007	-1.562563E+008	1	1.566594E+008	-85.88874	-1.212832E-010	0.0006762	4
	46	313	7.512019	2321946	-1.677418E+008	1	1.677579E+008	-89.20694	-7.562896E-011	0.0006097	4
	47	318	5.978954	1.514239E+007	-2.12853E+008	1	2.133909E+008	-85.93082	-9.060808E-011	0.0006198	4
	48	323	4.734848	4.928509E+007	-2.937601E+008	1	2.978657E+008	-80.476	-8.493198E-012	0.0007014	3
	49	328	3.75601	-6685357	-4.065457E+008	1	4.066007E+008	-90.9421	-9.314006E-010	0.0006086	5
	50	336	3.004808	1.080205E+008	-4.315812E+008	1	4.44894E+008	-75.94811	-8.047706E-011	0.0006637	4
	51	346	2.372217	1.246676E+008	-5.411969E+008	1	5.553702E+008	-77.0279	-1.151928E-011	0.000731	3
	52	351	1.878005	2.372009E+008	-6.306956E+008	1	6.738258E+008	-69.38902	-1.399125E-011	0.0007042	3
	53	360	1.512097	4.232103E+008	-5.910279E+008	1	7.269257E+008	-54.39514	-1.819619E-011	0.0008165	3
	54	366	1.201923	4.990213E+008	-2.858798E+008	1	5.751083E+008	-29.80757	-2.589279E-011	0.0007165	3
	55	379	0.956633	3.383094E+008	-8.371176E+007	1	3.485124E+008	-13.89819	-4.400049E-011	8.844116E-005	3
