EXPLAIN
TAG	EISPOT
TITLE	LABEL	Potentiostatic EIS	Test Identifier
DATE	LABEL	9/15/2020	Date
TIME	LABEL	7:47:49	Time
NOTES	NOTES	1	Notes...
	
PSTAT	PSTAT	REF3000-16137	Potentiostat
VDC	POTEN	0.00000E+000	T	DC Voltage (V)
FREQINIT	QUANT	3.00000E+005	Initial Freq. (Hz)
FREQFINAL	QUANT	1.00000E+000	Final Freq. (Hz)
PTSPERDEC	QUANT	1.00000E+001	Points/decade
VAC	QUANT	5.00000E+001	AC Voltage (mV rms)
AREA	QUANT	1.00000E+000	Sample Area (cm^2)
SPEED	SELECTOR	2	Optimize for:
ZGUESS	QUANT	1.00000E+003	Estimated Z (ohms)
EOC	QUANT	0	Open Circuit (V)
SEQUENCER	TOGGLE	TRUE	Run as Sequence
PSTATMODEL	IQUANT	5	Pstat Model
PSTATSECTION	LABEL	REF3000-16137	Pstat Section
PSTATSERIALNO	LABEL	16137	Pstat Serial Number
CTRLMODE	IQUANT	1	Control Mode
IESTAB	IQUANT	0	I/E Stability
CASPEED	IQUANT	1	Control Amp Speed
CONVENTION	IQUANT	1	Current Convention
ICHRANGE	IQUANT	2	Ich Range
ICHRANGEMODE	TOGGLE	F	Ich Auto Range
ICHOFFSETENABLE	TOGGLE	T	Ich Offset Enable
ICHOFFSET	QUANT	0	Ich Offset (V)
ICHFILTER	IQUANT	3	Ich Filter
VCHRANGE	IQUANT	2	Vch Range
VCHRANGEMODE	TOGGLE	F	Vch Auto Range
VCHOFFSETENABLE	TOGGLE	T	Vch Offset Enable
VCHOFFSET	QUANT	0	Vch Offset (V)
VCHFILTER	IQUANT	3	Vch Filter
ACHRANGE	IQUANT	2	Ach Range
ACHOFFSETENABLE	TOGGLE	F	Ach Offset Enable
ACHOFFSET	QUANT	0	Ach Offset (V)
ACHFILTER	IQUANT	3	Ach Filter
IERANGELOWERLIMIT	IQUANT	2	I/E Range Lower Limit
IERANGEMODE	TOGGLE	F	I/E AutoRange
IERANGE	IQUANT	11	I/E Range
POSFEEDENABLE	TOGGLE	F	Positive Feedback IR Comp
POSFEEDRESISTANCE	QUANT	0	Positive Feedback Resistance (ohm)
ACHSELECT	IQUANT	0	Ach Select
CABLEID	IQUANT	13	Cable ID
DCCALDATE	LABEL	7/31/2020	DC Calibration Date
ACCALDATE	LABEL	7/31/2020	AC Calibration Date
THERMOSELECT	IQUANT	1	Thermo Select
FRAMEWORKVERSION	QUANT	6.33	Framework Version
INSTRUMENTVERSION	LABEL	3.50	Instrument Version
COMPLIANCEVOLTAGE	IQUANT	0	Compliance Voltage
ZCURVE	TABLE
	Pt	Time	Freq	Zreal	Zimag	Zsig	Zmod	Zphz	Idc	Vdc	IERange
	#	s	Hz	ohm	ohm	V	ohm	°	A	V	#
	0	15	300046.9	-85.78641	-4920.66	1	4921.408	-90.99879	8.125098E-005	-0.001713	9
	1	31	238359.4	-12.60695	-6059.013	1	6059.026	-90.11922	7.640918E-005	-0.0016544	9
	2	46	189328.1	457.9984	-7348.436	1	7362.695	-86.4336	2.462905E-005	0.0010042	9
	3	55	150421.9	681.9953	-9202.147	1	9227.385	-85.76141	2.612154E-005	-0.0014541	9
	4	65	119484.4	377.4637	-11577.61	1	11583.76	-88.13265	6.905727E-005	-0.013507	8
	5	73	94921.88	553.6142	-14741.13	1	14751.52	-87.84923	-1.223665E-005	0.0102561	8
	6	81	75421.88	684.1098	-18260.41	1	18273.22	-87.85447	1.743325E-005	0.0003193	8
	7	90	59859.37	1145.706	-23367.67	1	23395.74	-87.19306	-2.02064E-005	0.0027494	8
	8	98	47578.12	290.3195	-29042.2	1	29043.65	-89.42726	2.615132E-005	-0.0089698	8
	9	108	37828.12	1191.277	-37383.87	1	37402.84	-88.17483	2.253955E-005	-0.0096475	8
	10	118	30046.88	0.962506	-45162.39	1	45162.39	-89.99878	1.641552E-005	-0.0092734	8
	11	127	23859.38	4757.155	-58833.91	1	59025.92	-85.37727	7.611291E-006	-0.0185405	7
	12	134	18984.38	3797.456	-73417.66	1	73515.8	-87.03907	-7.346057E-006	0.0233484	7
	13	140	15046.87	4655.7	-91573.41	1	91691.68	-87.08952	7.595325E-006	-0.0184157	7
	14	146	11953.13	3994.783	-116611.7	1	116680.1	-88.03798	-6.58431E-006	0.0259132	7
	15	153	9515.62	-6243.598	-152416.7	1	152544.6	-92.34575	-1.290971E-006	-0.0050491	8
	16	160	7546.875	2644.981	-181467	1	181486.3	-89.16494	7.604203E-006	-0.0184385	7
	17	165	5928.309	5903.583	-219669.7	1	219749	-88.46056	-5.399155E-006	0.0269158	7
	18	172	4733.456	37786.34	-182100.9	1	185980	-78.27736	-2.628422E-005	0.0075418	8
	19	181	3796.875	67012.84	-350585.7	1	356932.9	-79.1787	-2.632088E-005	0.0075526	8
	20	188	2987.132	49272.8	-394243.8	1	397311	-82.87608	2.709237E-005	-0.0073009	8
	21	196	2390.625	-45015.54	-511379.8	1	513357.3	-95.0306	-2.62507E-005	0.0075086	8
	22	204	1884.191	470926.7	-852786.1	1	974175	-61.09158	-7.397551E-006	0.0189281	7
	23	213	1516.544	-32220.94	-1080587	1	1081067	-91.70794	1.292997E-006	-0.0200442	7
	24	221	1193.986	-8642.513	-1221375	1	1221406	-90.40542	-5.674764E-007	0.0267422	6
	25	227	946.5144	98621.4	-1425543	1	1428950	-86.04249	5.98306E-007	-0.0281181	6
	26	231	751.7689	123877	-1737183	1	1741594	-85.9212	5.906151E-007	-0.0280064	6
	27	235	597.4265	294802	-2626151	1	2642646	-83.595	5.860236E-007	-0.0275497	6
	28	238	477.4305	213847.9	-2834634	1	2842689	-85.68571	-8.445325E-009	0.0006287	6
	29	243	376.6741	703188.4	-3681421	1	3747977	-79.18619	-8.522552E-010	0.0005839	5
	30	247	298.2954	842814.8	-4542271	1	4619801	-79.48836	-9.79296E-010	0.0006905	5
	31	251	237.7717	1017632	-5770666	1	5859707	-79.99896	-9.658304E-010	0.0006787	5
	32	254	189.0121	1377766	-7044517	1	7177984	-78.93378	-9.417231E-010	0.0006866	5
	33	257	150.2404	1812380	-8518122	1	8708796	-77.98843	-9.760015E-010	0.0006178	5
	34	260	119.1737	257384.1	-9192123	1	9195726	-88.39611	-9.833855E-010	0.0006025	5
	35	262	95.0169	3815348	-1.280652E+007	1	1.336278E+007	-73.41003	-1.034841E-009	0.0007199	5
	36	265	75.60484	4022955	-1.651835E+007	1	1.700118E+007	-76.31239	-1.058698E-009	0.0006875	5
	37	268	54.50582	9.575872E+006	-2.158667E+007	1	2.361529E+007	-66.07787	-9.597357E-010	0.0006663	5
	38	271	45.95588	1.210953E+007	-2.676142E+007	1	2.93737E+007	-65.65328	-9.487784E-010	0.0006665	5
	39	275	37.20238	1.844822E+007	-2.537123E+007	1	3.136935E+007	-53.97791	-8.763714E-010	0.0006344	5
	40	279	30.04808	2.125453E+007	-3.013974E+007	1	3.688034E+007	-54.80853	-9.76569E-010	0.0006089	5
	41	283	23.91582	3.085935E+007	-2.592305E+007	1	4.030266E+007	-40.03156	-1.589351E-010	0.0006168	4
	42	287	18.60119	2.061579E+007	-4.274418E+007	1	4.745604E+007	-64.25169	-3.775937E-010	0.0006868	4
	43	290	15.02404	4.350146E+007	-2.893373E+007	1	5.224498E+007	-33.62871	-1.054609E-010	0.000695	4
	44	294	12.01923	4.90451E+007	-2.728197E+007	1	5.612243E+007	-29.08556	-7.656849E-011	0.0006014	4
	45	297	9.450605	5.450928E+007	-2.229562E+007	1	5.889276E+007	-22.24575	-7.160875E-011	0.0007251	4
	46	302	7.512019	5.722318E+007	-2.284203E+007	1	6.161372E+007	-21.76062	-1.070473E-010	0.0006146	4
	47	306	5.978954	6.085552E+007	-1.846257E+007	1	6.35945E+007	-16.87694	-7.991671E-011	0.0006313	4
	48	311	4.734848	6.562802E+007	-1.6756E+007	1	6.77333E+007	-14.32265	-8.519754E-011	0.0006011	4
	49	319	3.75601	7.212492E+007	-8088052	1	7.2577E+007	-6.398388	-1.078681E-011	0.0007624	3
	50	325	3.004808	7.146816E+007	-1.355282E+007	1	7.274185E+007	-10.73775	-9.331137E-010	0.0005693	5
	51	334	2.372217	7.437213E+007	-7060349	1	7.47065E+007	-5.422993	-9.564333E-012	0.0006491	3
	52	338	1.878005	7.528111E+007	-6908016	1	7.55974E+007	-5.242946	-2.535633E-012	0.0007219	3
	53	343	1.512097	7.63678E+007	-6896728	1	7.667858E+007	-5.160347	-1.234686E-013	0.0007339	3
	54	348	1.201923	7.76541E+007	-7232505	1	7.799018E+007	-5.321032	-3.419997E-012	0.0007447	3
	55	354	0.956633	7.93032E+007	-7588669	1	7.966546E+007	-5.466094	-2.323823E-011	8.111473E-005	3
