EXPLAIN
TAG	EISPOT
TITLE	LABEL	Potentiostatic EIS	Test Identifier
DATE	LABEL	9/15/2020	Date
TIME	LABEL	3:08:15	Time
NOTES	NOTES	1	Notes...
	
PSTAT	PSTAT	REF3000-16137	Potentiostat
VDC	POTEN	0.00000E+000	T	DC Voltage (V)
FREQINIT	QUANT	3.00000E+005	Initial Freq. (Hz)
FREQFINAL	QUANT	1.00000E+000	Final Freq. (Hz)
PTSPERDEC	QUANT	1.00000E+001	Points/decade
VAC	QUANT	5.00000E+001	AC Voltage (mV rms)
AREA	QUANT	1.00000E+000	Sample Area (cm^2)
SPEED	SELECTOR	2	Optimize for:
ZGUESS	QUANT	1.00000E+003	Estimated Z (ohms)
EOC	QUANT	0	Open Circuit (V)
SEQUENCER	TOGGLE	TRUE	Run as Sequence
PSTATMODEL	IQUANT	5	Pstat Model
PSTATSECTION	LABEL	REF3000-16137	Pstat Section
PSTATSERIALNO	LABEL	16137	Pstat Serial Number
CTRLMODE	IQUANT	1	Control Mode
IESTAB	IQUANT	0	I/E Stability
CASPEED	IQUANT	1	Control Amp Speed
CONVENTION	IQUANT	1	Current Convention
ICHRANGE	IQUANT	2	Ich Range
ICHRANGEMODE	TOGGLE	F	Ich Auto Range
ICHOFFSETENABLE	TOGGLE	T	Ich Offset Enable
ICHOFFSET	QUANT	0	Ich Offset (V)
ICHFILTER	IQUANT	3	Ich Filter
VCHRANGE	IQUANT	2	Vch Range
VCHRANGEMODE	TOGGLE	F	Vch Auto Range
VCHOFFSETENABLE	TOGGLE	T	Vch Offset Enable
VCHOFFSET	QUANT	0	Vch Offset (V)
VCHFILTER	IQUANT	3	Vch Filter
ACHRANGE	IQUANT	2	Ach Range
ACHOFFSETENABLE	TOGGLE	F	Ach Offset Enable
ACHOFFSET	QUANT	0	Ach Offset (V)
ACHFILTER	IQUANT	3	Ach Filter
IERANGELOWERLIMIT	IQUANT	2	I/E Range Lower Limit
IERANGEMODE	TOGGLE	F	I/E AutoRange
IERANGE	IQUANT	11	I/E Range
POSFEEDENABLE	TOGGLE	F	Positive Feedback IR Comp
POSFEEDRESISTANCE	QUANT	0	Positive Feedback Resistance (ohm)
ACHSELECT	IQUANT	0	Ach Select
CABLEID	IQUANT	13	Cable ID
DCCALDATE	LABEL	7/31/2020	DC Calibration Date
ACCALDATE	LABEL	7/31/2020	AC Calibration Date
THERMOSELECT	IQUANT	1	Thermo Select
FRAMEWORKVERSION	QUANT	6.33	Framework Version
INSTRUMENTVERSION	LABEL	3.50	Instrument Version
COMPLIANCEVOLTAGE	IQUANT	0	Compliance Voltage
ZCURVE	TABLE
	Pt	Time	Freq	Zreal	Zimag	Zsig	Zmod	Zphz	Idc	Vdc	IERange
	#	s	Hz	ohm	ohm	V	ohm	°	A	V	#
	0	7	300046.9	155.5889	-8.742796	1	155.8343	-3.216162	-3.392192E-005	-0.0007095	9
	1	10	238359.4	156.3909	-10.12843	1	156.7185	-3.705503	7.151262E-005	-0.00186	9
	2	13	189328.1	157.5854	-11.15978	1	157.9801	-4.050771	6.775978E-005	-0.0027609	9
	3	15	150421.9	158.7677	-13.38486	1	159.3309	-4.818905	-8.060014E-006	0.0014563	9
	4	18	119484.4	160.8371	-15.56025	1	161.5881	-5.525906	-1.446715E-005	0.0011266	9
	5	20	94921.88	162.5503	-17.63962	1	163.5046	-6.193385	-2.036842E-005	0.0004813	9
	6	23	75421.88	164.7696	-20.36921	1	166.0239	-7.047287	2.556589E-005	-0.0005259	9
	7	25	59859.37	167.1749	-23.16965	1	168.7729	-7.890659	-2.188357E-005	0.000677	9
	8	28	47578.12	169.873	-26.24628	1	171.8887	-8.783051	-1.521404E-005	0.0001538	9
	9	31	37828.12	172.8858	-29.94114	1	175.4593	-9.82528	6.713477E-006	-0.0005873	9
	10	33	30046.88	176.0964	-33.88725	1	179.3273	-10.8926	2.395864E-005	-0.0002625	9
	11	36	23859.38	179.4429	-38.33515	1	183.4921	-12.05906	1.451702E-005	-0.0007526	9
	12	38	18984.38	182.9041	-43.6665	1	188.0443	-13.42744	2.560987E-005	-0.0004397	9
	13	40	15046.87	186.429	-49.96518	1	193.0085	-15.00335	1.499183E-005	-0.0007513	9
	14	43	11953.13	190.1497	-57.77779	1	198.734	-16.90162	-2.151161E-005	0.0008514	9
	15	45	9515.62	193.517	-67.12242	1	204.8274	-19.12938	2.615912E-005	-0.0004622	9
	16	47	7546.875	197.1234	-79.02725	1	212.3745	-21.84597	-2.125429E-005	0.0004835	9
	17	49	5928.309	200.8211	-94.78776	1	222.0672	-25.26735	-1.284741E-006	-0.0003419	9
	18	52	4733.456	204.5455	-113.444	1	233.8983	-29.0134	2.66997E-005	-0.0004961	9
	19	54	3796.875	208.3958	-136.0237	1	248.8599	-33.13321	2.272331E-005	-0.0003486	9
	20	56	2987.132	213.7095	-166.6925	1	271.0316	-37.95409	2.45206E-005	-0.0007328	9
	21	59	2390.625	218.3677	-202.7746	1	297.9966	-42.87955	2.476359E-005	-0.0007297	9
	22	61	1884.191	225.0136	-251.0126	1	337.103	-48.1262	2.385973E-005	-0.0002808	9
	23	63	1516.544	232.3472	-303.3545	1	382.1115	-52.55055	-1.578527E-006	-0.0003317	9
	24	66	1193.986	240.7871	-376.2327	1	446.6872	-57.38095	-1.388644E-006	-0.0006907	8
	25	68	946.5144	252.5281	-463.9774	1	528.2476	-61.44196	7.16181E-006	-0.0001719	8
	26	71	751.7689	266.8729	-573.8943	1	632.9106	-65.06059	1.099808E-006	-0.0014323	8
	27	73	597.4265	283.629	-708.1561	1	762.8437	-68.17303	4.149684E-006	-0.0021277	8
	28	75	477.4305	303.3793	-869.767	1	921.1588	-70.77096	1.412618E-007	0.0006544	8
	29	78	376.6741	329.81	-1081.69	1	1130.853	-73.0434	1.307951E-007	0.000658	8
	30	80	298.2954	361.9588	-1340.83	1	1388.827	-74.89303	1.406464E-007	0.0006499	8
	31	82	237.7717	400.4848	-1652.238	1	1700.082	-76.37489	1.526882E-007	0.0006371	8
	32	85	189.0121	448.3857	-2041.501	1	2090.162	-77.61251	1.269827E-007	0.0006438	8
	33	87	150.2404	507.3995	-2522.663	1	2573.185	-78.62747	1.365877E-007	0.0006419	8
	34	90	119.1737	580.7245	-3124.696	1	3178.202	-79.4717	1.471191E-007	0.0006393	8
	35	92	95.0169	669.461	-3850.726	1	3908.486	-80.13752	1.488205E-007	0.0006361	8
	36	95	75.60484	782.5537	-4765.711	1	4829.533	-80.67496	5.752109E-009	0.000626	7
	37	97	54.50582	988.852	-6448.91	1	6524.283	-81.28238	4.037028E-009	0.0006218	7
	38	100	45.95588	1121.995	-7551.189	1	7634.09	-81.54853	8.343464E-009	0.0006228	7
	39	102	37.20238	1321.385	-9175.871	1	9270.526	-81.80537	8.558784E-009	0.0006121	7
	40	104	30.04808	1569.86	-11186.75	1	11296.37	-82.01173	5.174646E-009	0.00063	7
	41	107	23.91582	1890.797	-13796.64	1	13925.61	-82.19637	6.137317E-009	0.0006279	7
	42	109	18.60119	2343.359	-17426.18	1	17583.04	-82.34119	2.310619E-009	0.0006681	7
	43	111	15.02404	2838.806	-21212.93	1	21402.04	-82.37772	1.107527E-008	0.0006305	7
	44	114	12.01923	3462.298	-26061.4	1	26290.38	-82.43248	8.727509E-009	0.0006159	7
	45	116	9.450605	4303.24	-32539.96	1	32823.27	-82.46664	8.063219E-009	0.0006337	7
	46	119	7.512019	5306.633	-40185.19	1	40534.06	-82.47736	9.677677E-009	0.0006309	7
	47	121	5.978954	6549.537	-49605.87	1	50036.38	-82.47866	1.6841E-009	0.00071	6
	48	124	4.734848	8116.521	-61538.84	1	62071.78	-82.48647	1.089832E-009	0.0006452	6
	49	128	3.75601	10106.62	-76169.54	1	76837.12	-82.44181	1.888841E-009	0.0006678	6
	50	133	3.004808	12501.78	-93534.78	1	94366.57	-82.38702	1.107614E-009	0.0007025	6
	51	140	2.372217	15734.5	-116181.3	1	117241.9	-82.28732	8.220626E-010	0.0007013	6
	52	144	1.878005	20126.84	-144207.4	1	145605.1	-82.05463	1.235707E-009	0.0006437	6
	53	149	1.512097	25251.17	-175846.2	1	177650	-81.8283	1.173989E-009	0.0007645	6
	54	154	1.201923	32055.45	-216991.4	1	219346.3	-81.59666	1.271126E-009	0.0006477	6
	55	160	0.956633	40609.55	-266885.4	1	269957.3	-81.34818	6.952339E-010	2.68635E-005	6
