EXPLAIN
TAG	EISPOT
TITLE	LABEL	Potentiostatic EIS	Test Identifier
DATE	LABEL	9/15/2020	Date
TIME	LABEL	6:12:56	Time
NOTES	NOTES	1	Notes...
	
PSTAT	PSTAT	REF3000-16137	Potentiostat
VDC	POTEN	0.00000E+000	T	DC Voltage (V)
FREQINIT	QUANT	3.00000E+005	Initial Freq. (Hz)
FREQFINAL	QUANT	1.00000E+000	Final Freq. (Hz)
PTSPERDEC	QUANT	1.00000E+001	Points/decade
VAC	QUANT	5.00000E+001	AC Voltage (mV rms)
AREA	QUANT	1.00000E+000	Sample Area (cm^2)
SPEED	SELECTOR	2	Optimize for:
ZGUESS	QUANT	1.00000E+003	Estimated Z (ohms)
EOC	QUANT	0	Open Circuit (V)
SEQUENCER	TOGGLE	TRUE	Run as Sequence
PSTATMODEL	IQUANT	5	Pstat Model
PSTATSECTION	LABEL	REF3000-16137	Pstat Section
PSTATSERIALNO	LABEL	16137	Pstat Serial Number
CTRLMODE	IQUANT	1	Control Mode
IESTAB	IQUANT	0	I/E Stability
CASPEED	IQUANT	1	Control Amp Speed
CONVENTION	IQUANT	1	Current Convention
ICHRANGE	IQUANT	2	Ich Range
ICHRANGEMODE	TOGGLE	F	Ich Auto Range
ICHOFFSETENABLE	TOGGLE	T	Ich Offset Enable
ICHOFFSET	QUANT	0	Ich Offset (V)
ICHFILTER	IQUANT	3	Ich Filter
VCHRANGE	IQUANT	2	Vch Range
VCHRANGEMODE	TOGGLE	F	Vch Auto Range
VCHOFFSETENABLE	TOGGLE	T	Vch Offset Enable
VCHOFFSET	QUANT	0	Vch Offset (V)
VCHFILTER	IQUANT	3	Vch Filter
ACHRANGE	IQUANT	2	Ach Range
ACHOFFSETENABLE	TOGGLE	F	Ach Offset Enable
ACHOFFSET	QUANT	0	Ach Offset (V)
ACHFILTER	IQUANT	3	Ach Filter
IERANGELOWERLIMIT	IQUANT	2	I/E Range Lower Limit
IERANGEMODE	TOGGLE	F	I/E AutoRange
IERANGE	IQUANT	11	I/E Range
POSFEEDENABLE	TOGGLE	F	Positive Feedback IR Comp
POSFEEDRESISTANCE	QUANT	0	Positive Feedback Resistance (ohm)
ACHSELECT	IQUANT	0	Ach Select
CABLEID	IQUANT	13	Cable ID
DCCALDATE	LABEL	7/31/2020	DC Calibration Date
ACCALDATE	LABEL	7/31/2020	AC Calibration Date
THERMOSELECT	IQUANT	1	Thermo Select
FRAMEWORKVERSION	QUANT	6.33	Framework Version
INSTRUMENTVERSION	LABEL	3.50	Instrument Version
COMPLIANCEVOLTAGE	IQUANT	0	Compliance Voltage
ZCURVE	TABLE
	Pt	Time	Freq	Zreal	Zimag	Zsig	Zmod	Zphz	Idc	Vdc	IERange
	#	s	Hz	ohm	ohm	V	ohm	°	A	V	#
	0	17	300046.9	1031.067	-4660.218	1	4772.917	-77.52437	2.4881E-005	0.0008893	9
	1	32	238359.4	1611.734	-5532.868	1	5762.839	-73.75906	-9.464601E-005	0.0021188	9
	2	56	189328.1	2127.247	-6694.716	1	7024.558	-72.37234	-0.0001057	0.0037789	9
	3	64	150421.9	3313.62	-7472.896	1	8174.61	-66.08662	-1.991399E-005	0.0015633	9
	4	71	119484.4	5335	-8478.818	1	10017.61	-57.82128	-1.760637E-005	0.0168867	8
	5	78	94921.88	7137.567	-9695.95	1	12039.78	-53.64177	-1.06466E-006	-0.005038	8
	6	87	75421.88	9316.495	-10450.81	1	14000.59	-48.28423	8.100468E-006	-0.0075992	8
	7	95	59859.37	11796.01	-10465.22	1	15769.17	-41.5789	-1.986275E-005	0.0027455	8
	8	103	47578.12	15775.84	-9216.825	1	18270.93	-30.29504	-3.029751E-006	-0.0059394	7
	9	111	37828.12	17442.87	-8370.045	1	19347.13	-25.63424	-3.883245E-006	0.025128	7
	10	117	30046.88	18775.23	-7388.587	1	20176.73	-21.48105	-4.995017E-006	0.0026403	7
	11	123	23859.38	19882.71	-6400.026	1	20887.38	-17.8428	-5.005911E-006	0.0025864	7
	12	128	18984.38	20741.07	-5565.82	1	21474.88	-15.02131	3.75833E-006	-0.0244371	7
	13	132	15046.87	21369.77	-4765.519	1	21894.69	-12.57142	-6.418584E-006	0.0108668	7
	14	136	11953.13	21845.76	-4090.303	1	22225.38	-10.60502	7.483496E-006	-0.0232848	7
	15	140	9515.62	22196.55	-3610.506	1	22488.28	-9.238855	5.421552E-006	-0.0261884	7
	16	144	7546.875	22372.48	-3159.601	1	22594.49	-8.038555	2.431904E-006	0.0091994	7
	17	149	5928.309	22624.09	-2693.871	1	22783.91	-6.79029	-7.08559E-006	0.0224943	7
	18	153	4733.456	23216.75	-2761.506	1	23380.4	-6.783152	-6.435337E-006	0.0109189	7
	19	157	3796.875	23315.75	-2607.81	1	23461.14	-6.381868	2.476875E-006	0.0091185	7
	20	162	2987.132	23675.03	-2511.905	1	23807.92	-6.056386	7.342042E-006	-0.0172817	7
	21	166	2390.625	23656.32	-3105.664	1	23859.31	-7.479168	2.571704E-005	-0.0050806	8
	22	172	1884.191	24053.92	-3870.26	1	24363.29	-9.140511	-2.364585E-005	0.0052164	8
	23	180	1516.544	24168.6	-2542.999	1	24302.02	-6.006512	-2.440648E-005	0.0109168	8
	24	187	1193.986	24460.64	-2495.286	1	24587.58	-5.824725	-2.016157E-006	0.0076395	8
	25	194	946.5144	24041.47	-5508.585	1	24664.49	-12.90533	1.598307E-005	-0.0090558	8
	26	199	751.7689	25594.01	-3966.076	1	25899.48	-8.808556	-1.955661E-005	0.0111967	8
	27	205	597.4265	25559.04	346.4894	1	25561.38	0.7766789	2.980181E-005	-0.0006754	9
	28	210	477.4305	26990.28	-4740.476	1	27403.42	-9.96162	-3.184734E-007	0.0006362	8
	29	213	376.6741	27660.07	-5297.562	1	28162.8	-10.84221	-6.916655E-008	0.0005755	7
	30	215	298.2954	28276.71	-5952.297	1	28896.4	-11.88731	-6.890559E-008	0.0005861	7
	31	218	237.7717	28903.52	-6650.062	1	29658.67	-12.95701	-7.770043E-008	0.0006175	7
	32	220	189.0121	29541.84	-7508.544	1	30481.11	-14.2607	-7.167305E-008	0.0005677	7
	33	222	150.2404	30180.25	-8540.862	1	31365.49	-15.80125	-7.122346E-008	0.0005672	7
	34	225	119.1737	30732.25	-9810.1	1	32260.03	-17.70369	-7.808305E-008	0.0006649	7
	35	227	95.0169	31396.16	-11394.44	1	33399.88	-19.94708	-7.812206E-008	0.0006588	7
	36	230	75.60484	31989.6	-13416.91	1	34689.31	-22.7539	-7.215878E-008	0.0005676	7
	37	232	54.50582	32849.85	-17262.72	1	37109.49	-27.7221	-7.352497E-008	0.0005751	7
	38	235	45.95588	33426.99	-19785.94	1	38843.88	-30.62193	-8.167923E-009	0.0006116	6
	39	237	37.20238	34073	-23646.5	1	41474.41	-34.76047	-7.974953E-009	0.0006121	6
	40	240	30.04808	34788.66	-28447.84	1	44939.19	-39.27401	-8.055997E-009	0.0006423	6
	41	242	23.91582	35634.92	-34770.82	1	49788.12	-44.29683	-7.134918E-009	0.000617	6
	42	244	18.60119	36817.88	-43593.45	1	57060.89	-49.81644	-8.620439E-009	0.0007441	6
	43	247	15.02404	37974.25	-52929.69	1	65142.88	-54.34256	-8.619264E-009	0.0006994	6
	44	249	12.01923	39465.62	-64910.34	1	75966.36	-58.70031	-8.15504E-009	0.0006099	6
	45	252	9.450605	41433.2	-80938.44	1	90927.12	-62.89164	-8.119613E-009	0.0006231	6
	46	254	7.512019	43739.53	-100058	1	109200.5	-66.38786	-8.063574E-009	0.0006485	6
	47	257	5.978954	46570.04	-123470.8	1	131961.4	-69.33481	-7.576909E-009	0.0006334	6
	48	261	4.734848	50232.82	-153275.7	1	161297.2	-71.85455	-7.769605E-009	0.0006479	6
	49	265	3.75601	54626.15	-189997.8	1	197694.6	-73.95956	-7.703363E-009	0.0005916	6
	50	270	3.004808	60051.86	-233580.4	1	241176.3	-75.58191	-7.497789E-009	0.0006651	6
	51	277	2.372217	67361.85	-291182.5	1	298872.7	-76.9744	-8.122507E-009	0.0007339	6
	52	281	1.878005	75841.55	-361722.2	1	369587.4	-78.15844	-8.291362E-009	0.0006323	6
	53	286	1.512097	86867.12	-442027	1	450481.7	-78.88192	-7.569997E-010	0.0007078	5
	54	291	1.201923	99595.1	-547900.1	1	556878.6	-79.69749	-8.916471E-010	0.0006117	5
	55	297	0.956633	116065.2	-677015.8	1	686892.6	-80.27198	-9.632415E-010	5.450648E-006	5
