EXPLAIN
TAG	EISPOT
TITLE	LABEL	Potentiostatic EIS	Test Identifier
DATE	LABEL	9/15/2020	Date
TIME	LABEL	2:11:24	Time
NOTES	NOTES	1	Notes...
	
PSTAT	PSTAT	REF3000-16137	Potentiostat
VDC	POTEN	0.00000E+000	T	DC Voltage (V)
FREQINIT	QUANT	3.00000E+005	Initial Freq. (Hz)
FREQFINAL	QUANT	1.00000E+000	Final Freq. (Hz)
PTSPERDEC	QUANT	1.00000E+001	Points/decade
VAC	QUANT	5.00000E+001	AC Voltage (mV rms)
AREA	QUANT	1.00000E+000	Sample Area (cm^2)
SPEED	SELECTOR	2	Optimize for:
ZGUESS	QUANT	1.00000E+003	Estimated Z (ohms)
EOC	QUANT	0	Open Circuit (V)
SEQUENCER	TOGGLE	TRUE	Run as Sequence
PSTATMODEL	IQUANT	5	Pstat Model
PSTATSECTION	LABEL	REF3000-16137	Pstat Section
PSTATSERIALNO	LABEL	16137	Pstat Serial Number
CTRLMODE	IQUANT	1	Control Mode
IESTAB	IQUANT	0	I/E Stability
CASPEED	IQUANT	1	Control Amp Speed
CONVENTION	IQUANT	1	Current Convention
ICHRANGE	IQUANT	2	Ich Range
ICHRANGEMODE	TOGGLE	F	Ich Auto Range
ICHOFFSETENABLE	TOGGLE	T	Ich Offset Enable
ICHOFFSET	QUANT	0	Ich Offset (V)
ICHFILTER	IQUANT	3	Ich Filter
VCHRANGE	IQUANT	2	Vch Range
VCHRANGEMODE	TOGGLE	F	Vch Auto Range
VCHOFFSETENABLE	TOGGLE	T	Vch Offset Enable
VCHOFFSET	QUANT	0	Vch Offset (V)
VCHFILTER	IQUANT	3	Vch Filter
ACHRANGE	IQUANT	2	Ach Range
ACHOFFSETENABLE	TOGGLE	F	Ach Offset Enable
ACHOFFSET	QUANT	0	Ach Offset (V)
ACHFILTER	IQUANT	3	Ach Filter
IERANGELOWERLIMIT	IQUANT	2	I/E Range Lower Limit
IERANGEMODE	TOGGLE	F	I/E AutoRange
IERANGE	IQUANT	11	I/E Range
POSFEEDENABLE	TOGGLE	F	Positive Feedback IR Comp
POSFEEDRESISTANCE	QUANT	0	Positive Feedback Resistance (ohm)
ACHSELECT	IQUANT	0	Ach Select
CABLEID	IQUANT	13	Cable ID
DCCALDATE	LABEL	7/31/2020	DC Calibration Date
ACCALDATE	LABEL	7/31/2020	AC Calibration Date
THERMOSELECT	IQUANT	1	Thermo Select
FRAMEWORKVERSION	QUANT	6.33	Framework Version
INSTRUMENTVERSION	LABEL	3.50	Instrument Version
COMPLIANCEVOLTAGE	IQUANT	0	Compliance Voltage
ZCURVE	TABLE
	Pt	Time	Freq	Zreal	Zimag	Zsig	Zmod	Zphz	Idc	Vdc	IERange
	#	s	Hz	ohm	ohm	V	ohm	°	A	V	#
	0	7	300046.9	86.74327	-4.013172	1	86.83606	-2.648897	1.102343E-005	-0.0016659	9
	1	10	238359.4	87.35132	-5.493763	1	87.52391	-3.598748	-9.387491E-006	0.0007007	9
	2	13	189328.1	88.28584	-6.592025	1	88.53159	-4.270171	-1.202424E-005	-0.0010761	9
	3	16	150421.9	89.40404	-8.372646	1	89.79523	-5.350119	6.324828E-005	-0.0015112	9
	4	18	119484.4	90.46008	-10.05549	1	91.01724	-6.342925	5.891371E-006	-0.0010959	9
	5	21	94921.88	91.78164	-11.55021	1	92.50555	-7.172649	-1.633461E-005	0.0008293	9
	6	23	75421.88	93.15424	-13.51381	1	94.12936	-8.254269	-1.454163E-005	0.0001578	9
	7	26	59859.37	94.71012	-15.61497	1	95.9887	-9.362199	2.521393E-005	-0.0007195	9
	8	28	47578.12	96.4402	-17.87008	1	98.0818	-10.49767	1.291669E-005	0.0001062	9
	9	31	37828.12	98.2216	-20.4595	1	100.3299	-11.76642	-1.681262E-005	0.0004107	9
	10	33	30046.88	100.1251	-23.52006	1	102.8505	-13.21949	-5.462368E-006	0.0006418	9
	11	36	23859.38	101.9694	-27.03372	1	105.4921	-14.84844	2.258902E-005	-0.0002631	9
	12	38	18984.38	103.8398	-31.2502	1	108.4402	-16.74898	2.396008E-005	-0.0005632	9
	13	41	15046.87	105.9218	-36.59147	1	112.0641	-19.05785	-1.970778E-005	0.000742	9
	14	43	11953.13	107.7886	-43.10486	1	116.0879	-21.79657	2.20279E-005	-0.0006605	9
	15	45	9515.62	109.7028	-51.29602	1	121.1032	-25.06035	-1.707869E-005	0.0007917	9
	16	47	7546.875	111.6963	-61.77981	1	127.6432	-28.94722	2.19747E-005	-0.0006582	9
	17	50	5928.309	114.188	-75.19807	1	136.7247	-33.36675	1.752373E-005	-0.0006716	9
	18	52	4733.456	116.7219	-91.30733	1	148.1926	-38.03479	-2.019422E-005	0.0006522	9
	19	54	3796.875	119.6911	-110.827	1	163.1214	-42.79789	4.596814E-006	0.0004086	9
	20	57	2987.132	123.3053	-136.6412	1	184.0516	-47.93684	5.056933E-006	-0.0004512	9
	21	59	2390.625	127.7941	-166.7797	1	210.1114	-52.53905	-2.223679E-005	0.0007007	9
	22	61	1884.191	132.7792	-206.3701	1	245.3954	-57.24264	2.157426E-005	-0.00066	9
	23	64	1516.544	138.6238	-251.5132	1	287.1855	-61.13824	5.341537E-006	-0.0004598	9
	24	66	1193.986	146.7542	-313.132	1	345.8156	-64.88913	1.214169E-005	-0.0006279	9
	25	69	946.5144	155.5312	-387.7998	1	417.8261	-68.14622	-1.942826E-005	0.0007405	9
	26	71	751.7689	166.5478	-476.4392	1	504.7103	-70.73202	-1.053256E-006	0.0021464	8
	27	73	597.4265	181.4762	-587.4549	1	614.847	-72.83307	4.66165E-006	-0.0013931	8
	28	76	477.4305	198.117	-722.2481	1	748.9277	-74.66072	2.797311E-007	0.0006585	8
	29	78	376.6741	220.002	-898.1245	1	924.6775	-76.23602	2.885328E-007	0.0006392	8
	30	80	298.2954	246.5553	-1113.354	1	1140.327	-77.51321	3.047045E-007	0.0006423	8
	31	83	237.7717	278.3286	-1372.024	1	1399.97	-78.5326	2.936983E-007	0.0006419	8
	32	85	189.0121	317.8342	-1695.371	1	1724.907	-79.38191	2.935907E-007	0.000644	8
	33	88	150.2404	366.5717	-2095.168	1	2126.994	-80.07594	2.770063E-007	0.0006485	8
	34	90	119.1737	427.892	-2595.026	1	2630.066	-80.63679	2.875652E-007	0.0006497	8
	35	92	95.0169	501.1256	-3199.401	1	3238.409	-81.09803	3.059812E-007	0.0006452	8
	36	95	75.60484	593.0845	-3951.695	1	3995.954	-81.46455	2.931105E-007	0.0006473	8
	37	97	54.50582	767.1392	-5360.534	1	5415.147	-81.85577	2.197419E-008	0.0006117	7
	38	100	45.95588	882.7676	-6275.319	1	6337.105	-81.99258	3.299746E-008	0.0006128	7
	39	102	37.20238	1053.795	-7630.654	1	7703.075	-82.13718	2.986325E-008	0.000614	7
	40	105	30.04808	1266.485	-9296.341	1	9382.214	-82.24208	2.451121E-008	0.0006218	7
	41	107	23.91582	1550.661	-11481.92	1	11586.15	-82.3086	2.36661E-008	0.0006098	7
	42	109	18.60119	1937.828	-14471.27	1	14600.44	-82.37297	2.733109E-008	0.000617	7
	43	112	15.02404	2347.06	-17612.55	1	17768.24	-82.40945	3.118016E-008	0.0006058	7
	44	114	12.01923	2878.953	-21626.54	1	21817.32	-82.41729	2.983246E-008	0.0006237	7
	45	117	9.450605	3617.24	-27009.33	1	27250.47	-82.37202	2.696192E-008	0.0006129	7
	46	119	7.512019	4494.284	-33342.94	1	33644.46	-82.32339	3.050234E-008	0.0006084	7
	47	122	5.978954	5617.232	-41157.41	1	41538.97	-82.2282	2.934646E-008	0.0006231	7
	48	126	4.734848	7140.369	-51076.81	1	51573.5	-82.04182	3.835848E-009	0.0006659	6
	49	129	3.75601	9031.195	-63181.93	1	63824.12	-81.86527	4.175995E-009	0.0006577	6
	50	134	3.004808	11354.57	-77463.15	1	78290.91	-81.66095	3.342314E-009	0.0006882	6
	51	141	2.372217	14700.16	-95977.6	1	97096.8	-81.29211	3.167866E-009	0.0006476	6
	52	145	1.878005	18987.66	-118957.9	1	120463.8	-80.93114	4.035647E-009	0.0006544	6
	53	150	1.512097	23865.55	-144456.2	1	146414.4	-80.61893	3.155332E-009	0.0007088	6
	54	155	1.201923	31151.85	-177975.5	1	180681.3	-80.07184	3.845027E-009	0.0006678	6
	55	161	0.956633	40413.95	-218148.3	1	221860.2	-79.50443	2.787234E-009	2.390817E-005	6
