EXPLAIN
TAG	EISPOT
TITLE	LABEL	Potentiostatic EIS	Test Identifier
DATE	LABEL	9/15/2020	Date
TIME	LABEL	4:10:01	Time
NOTES	NOTES	1	Notes...
	
PSTAT	PSTAT	REF3000-16137	Potentiostat
VDC	POTEN	0.00000E+000	T	DC Voltage (V)
FREQINIT	QUANT	3.00000E+005	Initial Freq. (Hz)
FREQFINAL	QUANT	1.00000E+000	Final Freq. (Hz)
PTSPERDEC	QUANT	1.00000E+001	Points/decade
VAC	QUANT	5.00000E+001	AC Voltage (mV rms)
AREA	QUANT	1.00000E+000	Sample Area (cm^2)
SPEED	SELECTOR	2	Optimize for:
ZGUESS	QUANT	1.00000E+003	Estimated Z (ohms)
EOC	QUANT	0	Open Circuit (V)
SEQUENCER	TOGGLE	TRUE	Run as Sequence
PSTATMODEL	IQUANT	5	Pstat Model
PSTATSECTION	LABEL	REF3000-16137	Pstat Section
PSTATSERIALNO	LABEL	16137	Pstat Serial Number
CTRLMODE	IQUANT	1	Control Mode
IESTAB	IQUANT	0	I/E Stability
CASPEED	IQUANT	1	Control Amp Speed
CONVENTION	IQUANT	1	Current Convention
ICHRANGE	IQUANT	2	Ich Range
ICHRANGEMODE	TOGGLE	F	Ich Auto Range
ICHOFFSETENABLE	TOGGLE	T	Ich Offset Enable
ICHOFFSET	QUANT	0	Ich Offset (V)
ICHFILTER	IQUANT	3	Ich Filter
VCHRANGE	IQUANT	2	Vch Range
VCHRANGEMODE	TOGGLE	F	Vch Auto Range
VCHOFFSETENABLE	TOGGLE	T	Vch Offset Enable
VCHOFFSET	QUANT	0	Vch Offset (V)
VCHFILTER	IQUANT	3	Vch Filter
ACHRANGE	IQUANT	2	Ach Range
ACHOFFSETENABLE	TOGGLE	F	Ach Offset Enable
ACHOFFSET	QUANT	0	Ach Offset (V)
ACHFILTER	IQUANT	3	Ach Filter
IERANGELOWERLIMIT	IQUANT	2	I/E Range Lower Limit
IERANGEMODE	TOGGLE	F	I/E AutoRange
IERANGE	IQUANT	11	I/E Range
POSFEEDENABLE	TOGGLE	F	Positive Feedback IR Comp
POSFEEDRESISTANCE	QUANT	0	Positive Feedback Resistance (ohm)
ACHSELECT	IQUANT	0	Ach Select
CABLEID	IQUANT	13	Cable ID
DCCALDATE	LABEL	7/31/2020	DC Calibration Date
ACCALDATE	LABEL	7/31/2020	AC Calibration Date
THERMOSELECT	IQUANT	1	Thermo Select
FRAMEWORKVERSION	QUANT	6.33	Framework Version
INSTRUMENTVERSION	LABEL	3.50	Instrument Version
COMPLIANCEVOLTAGE	IQUANT	0	Compliance Voltage
ZCURVE	TABLE
	Pt	Time	Freq	Zreal	Zimag	Zsig	Zmod	Zphz	Idc	Vdc	IERange
	#	s	Hz	ohm	ohm	V	ohm	°	A	V	#
	0	15	300046.9	400.0929	-38.9854	1	401.9878	-5.565381	1.28257E-005	-0.0021309	9
	1	21	238359.4	403.0406	-36.65363	1	404.7039	-5.196342	1.248356E-005	-0.0019788	9
	2	28	189328.1	405.5093	-34.48261	1	406.9728	-4.860471	7.399629E-005	-0.0015467	9
	3	37	150421.9	409.9954	-34.97286	1	411.4843	-4.875563	-8.238051E-005	0.0038107	9
	4	44	119484.4	411.6717	-36.81439	1	413.3145	-5.110172	-1.798312E-005	0.0014833	9
	5	50	94921.88	417.7775	-26.18197	1	418.5971	-3.586017	-1.361135E-005	0.0047998	8
	6	52	75421.88	420.1377	-31.47921	1	421.3154	-4.284933	1.100414E-005	-0.0047507	8
	7	55	59859.37	423.8531	-36.61538	1	425.4317	-4.937351	1.518509E-005	-0.0042655	8
	8	57	47578.12	427.7333	-43.24439	1	429.9138	-5.77306	1.161871E-005	-0.000397	8
	9	60	37828.12	433.4496	-49.42343	1	436.2582	-6.50497	1.067049E-005	-0.000212	8
	10	62	30046.88	440.1204	-57.36356	1	443.8429	-7.425846	-1.378515E-005	0.004716	8
	11	65	23859.38	446.4794	-65.1405	1	451.2063	-8.300779	-2.505155E-006	-0.0019847	8
	12	67	18984.38	454.8339	-75.092	1	460.9909	-9.374831	1.366777E-005	-0.0025217	8
	13	69	15046.87	464.0427	-84.42915	1	471.6608	-10.31175	-1.579749E-005	0.005022	8
	14	72	11953.13	471.6326	-94.74599	1	481.0552	-11.35892	-1.057051E-005	0.001549	8
	15	74	9515.62	481.4919	-109.4512	1	493.7753	-12.80666	-1.387607E-005	0.0039457	8
	16	76	7546.875	490.5856	-123.4535	1	505.8804	-14.12492	1.55451E-005	-0.0032396	8
	17	79	5928.309	501.5121	-142.8056	1	521.4478	-15.89431	-2.845964E-006	-0.0017809	8
	18	81	4733.456	508.7028	-166.293	1	535.1933	-18.10237	1.074533E-005	-0.0047803	8
	19	83	3796.875	520.7894	-194.3778	1	555.8815	-20.46743	6.437609E-006	0.0018979	8
	20	86	2987.132	529.3973	-230.0634	1	577.2267	-23.48862	1.46962E-005	-0.0021846	8
	21	88	2390.625	540.4802	-273.3917	1	605.6913	-26.83171	-1.3441E-005	0.0055588	8
	22	90	1884.191	549.5079	-328.7992	1	640.3654	-30.89428	1.41192E-005	-0.0021268	8
	23	93	1516.544	561.1506	-397.3716	1	687.6003	-35.30373	2.909228E-006	-0.0034226	8
	24	95	1193.986	575.0693	-486.4474	1	753.217	-40.22766	-6.726786E-006	-0.0002176	8
	25	98	946.5144	590.1288	-596.1058	1	838.8052	-45.28868	1.53576E-005	-0.003185	8
	26	100	751.7689	608.6207	-735.0701	1	954.331	-50.37605	-1.43362E-005	0.0049123	8
	27	103	597.4265	629.4553	-902.9239	1	1100.675	-55.11849	1.155775E-005	-0.0003769	8
	28	106	477.4305	656.5209	-1108.063	1	1287.953	-59.3535	-7.233984E-008	0.0006478	8
	29	108	376.6741	690.0088	-1376.252	1	1539.54	-63.37228	-9.493377E-008	0.0006801	8
	30	110	298.2954	730.3365	-1704.908	1	1854.752	-66.81102	-8.141956E-008	0.0006449	8
	31	112	237.7717	778.6548	-2100.353	1	2240.042	-69.65897	-4.474644E-008	0.0006313	8
	32	115	189.0121	838.8215	-2595.327	1	2727.516	-72.08893	-6.465261E-008	0.0006447	8
	33	117	150.2404	913.3109	-3208.132	1	3335.603	-74.10908	-6.735331E-008	0.0006332	8
	34	120	119.1737	1005.255	-3974.373	1	4099.534	-75.80563	-6.784418E-008	0.0006468	8
	35	122	95.0169	1121.719	-4909.55	1	5036.063	-77.13014	-1.698092E-008	0.0005947	7
	36	125	75.60484	1262.725	-6064.669	1	6194.73	-78.23849	-2.195381E-008	0.000609	7
	37	127	54.50582	1523.47	-8205.699	1	8345.925	-79.48222	-2.396885E-008	0.0006273	7
	38	130	45.95588	1697.63	-9608.84	1	9757.65	-79.98074	-2.170757E-008	0.0006414	7
	39	132	37.20238	1954.225	-11681.39	1	11843.73	-80.50272	-1.814131E-008	0.0006206	7
	40	134	30.04808	2266.179	-14224.66	1	14404.05	-80.94808	-2.297482E-008	0.0006219	7
	41	137	23.91582	2681.428	-17570.66	1	17774.09	-81.32314	-2.081369E-008	0.000609	7
	42	139	18.60119	3247.642	-22151.47	1	22388.28	-81.65925	-2.36513E-008	0.0006327	7
	43	142	15.02404	3845.998	-26985.3	1	27258	-81.88872	-1.929177E-008	0.0006253	7
	44	144	12.01923	4626.546	-33167.96	1	33489.08	-82.05914	-2.315455E-008	0.0006215	7
	45	146	9.450605	5654.562	-41416.86	1	41801.08	-82.22559	-2.343324E-008	0.000632	7
	46	149	7.512019	6909.816	-51181.75	1	51646.07	-82.31124	-2.005538E-009	0.0006784	6
	47	152	5.978954	8446.684	-63150.58	1	63712.96	-82.38164	-2.628501E-009	0.00067	6
	48	155	4.734848	10403.37	-78341.13	1	79028.88	-82.43562	-1.760239E-009	0.0006803	6
	49	158	3.75601	12813.01	-96908.1	1	97751.5	-82.46815	-2.272537E-009	0.0006547	6
	50	163	3.004808	15682.47	-118885.1	1	119915	-82.48534	-1.698361E-009	0.0006388	6
	51	170	2.372217	19645.1	-147653.3	1	148954.4	-82.42137	-1.960446E-009	0.0006946	6
	52	174	1.878005	24128.01	-183456.6	1	185036.5	-82.50753	-2.553284E-009	0.0006449	6
	53	179	1.512097	29048.21	-223823.7	1	225700.8	-82.60539	-2.088649E-009	0.0005702	6
	54	184	1.201923	36371.26	-277090.3	1	279467.2	-82.52203	-2.548143E-009	0.000659	6
	55	190	0.956633	45098.05	-342029.7	1	344990.1	-82.48864	-2.482145E-009	1.825364E-005	6
