EXPLAIN
TAG	EISPOT
TITLE	LABEL	Potentiostatic EIS	Test Identifier
DATE	LABEL	9/15/2020	Date
TIME	LABEL	1:14:17	Time
NOTES	NOTES	1	Notes...
	
PSTAT	PSTAT	REF3000-16137	Potentiostat
VDC	POTEN	0.00000E+000	T	DC Voltage (V)
FREQINIT	QUANT	3.00000E+005	Initial Freq. (Hz)
FREQFINAL	QUANT	1.00000E+000	Final Freq. (Hz)
PTSPERDEC	QUANT	1.00000E+001	Points/decade
VAC	QUANT	5.00000E+001	AC Voltage (mV rms)
AREA	QUANT	1.00000E+000	Sample Area (cm^2)
SPEED	SELECTOR	2	Optimize for:
ZGUESS	QUANT	1.00000E+003	Estimated Z (ohms)
EOC	QUANT	0	Open Circuit (V)
SEQUENCER	TOGGLE	TRUE	Run as Sequence
PSTATMODEL	IQUANT	5	Pstat Model
PSTATSECTION	LABEL	REF3000-16137	Pstat Section
PSTATSERIALNO	LABEL	16137	Pstat Serial Number
CTRLMODE	IQUANT	1	Control Mode
IESTAB	IQUANT	0	I/E Stability
CASPEED	IQUANT	1	Control Amp Speed
CONVENTION	IQUANT	1	Current Convention
ICHRANGE	IQUANT	2	Ich Range
ICHRANGEMODE	TOGGLE	F	Ich Auto Range
ICHOFFSETENABLE	TOGGLE	T	Ich Offset Enable
ICHOFFSET	QUANT	0	Ich Offset (V)
ICHFILTER	IQUANT	3	Ich Filter
VCHRANGE	IQUANT	2	Vch Range
VCHRANGEMODE	TOGGLE	F	Vch Auto Range
VCHOFFSETENABLE	TOGGLE	T	Vch Offset Enable
VCHOFFSET	QUANT	0	Vch Offset (V)
VCHFILTER	IQUANT	3	Vch Filter
ACHRANGE	IQUANT	2	Ach Range
ACHOFFSETENABLE	TOGGLE	F	Ach Offset Enable
ACHOFFSET	QUANT	0	Ach Offset (V)
ACHFILTER	IQUANT	3	Ach Filter
IERANGELOWERLIMIT	IQUANT	2	I/E Range Lower Limit
IERANGEMODE	TOGGLE	F	I/E AutoRange
IERANGE	IQUANT	11	I/E Range
POSFEEDENABLE	TOGGLE	F	Positive Feedback IR Comp
POSFEEDRESISTANCE	QUANT	0	Positive Feedback Resistance (ohm)
ACHSELECT	IQUANT	0	Ach Select
CABLEID	IQUANT	13	Cable ID
DCCALDATE	LABEL	7/31/2020	DC Calibration Date
ACCALDATE	LABEL	7/31/2020	AC Calibration Date
THERMOSELECT	IQUANT	1	Thermo Select
FRAMEWORKVERSION	QUANT	6.33	Framework Version
INSTRUMENTVERSION	LABEL	3.50	Instrument Version
COMPLIANCEVOLTAGE	IQUANT	0	Compliance Voltage
ZCURVE	TABLE
	Pt	Time	Freq	Zreal	Zimag	Zsig	Zmod	Zphz	Idc	Vdc	IERange
	#	s	Hz	ohm	ohm	V	ohm	°	A	V	#
	0	7	300046.9	56.98573	-2.213864	1	57.02871	-2.224791	1.202167E-005	0.0001	9
	1	10	238359.4	57.68049	-3.513892	1	57.78742	-3.486147	1.690848E-006	0.0004381	9
	2	13	189328.1	58.32052	-4.772374	1	58.51545	-4.678096	-3.21906E-006	0.000615	9
	3	15	150421.9	59.10162	-5.949473	1	59.40031	-5.748323	1.492838E-005	-0.000463	9
	4	18	119484.4	59.98505	-7.254646	1	60.42215	-6.895911	6.009827E-005	-0.0021013	9
	5	21	94921.88	60.974	-8.468044	1	61.55921	-7.906641	-1.313581E-005	0.0001525	9
	6	23	75421.88	61.95094	-9.96214	1	62.74682	-9.135348	-1.75981E-005	0.0006218	9
	7	26	59859.37	63.03412	-11.66086	1	64.10363	-10.48082	4.250594E-006	0.000281	9
	8	28	47578.12	64.14666	-13.48954	1	65.54969	-11.87581	-1.350906E-005	0.0007434	9
	9	31	37828.12	65.34563	-15.61417	1	67.18523	-13.4387	1.002723E-005	-0.0005169	9
	10	33	30046.88	66.56076	-18.11664	1	68.98222	-15.22603	1.788183E-005	-0.0001302	9
	11	36	23859.38	67.79147	-21.11508	1	71.00374	-17.3003	2.008126E-005	-0.0005145	9
	12	38	18984.38	69.01026	-24.77551	1	73.32286	-19.74874	4.518774E-006	0.0003732	9
	13	40	15046.87	70.28269	-29.40376	1	76.18555	-22.70269	1.063921E-005	-0.0005076	9
	14	43	11953.13	71.5489	-35.23603	1	79.75477	-26.21909	-1.463186E-005	0.0007014	9
	15	45	9515.62	72.92627	-42.38123	1	84.34695	-30.16309	-9.465793E-006	6.598157E-005	9
	16	47	7546.875	74.51887	-51.42189	1	90.53879	-34.60769	3.813909E-006	-0.0003625	9
	17	50	5928.309	76.37606	-63.28898	1	99.1907	-39.64682	2.168956E-005	-0.0004157	9
	18	52	4733.456	78.40887	-77.14429	1	109.9963	-44.53422	-3.53518E-006	-0.0001433	9
	19	54	3796.875	80.68772	-93.97003	1	123.8583	-49.34884	-4.509868E-006	0.0005088	9
	20	56	2987.132	83.93204	-116.3715	1	143.4814	-54.19926	2.103337E-005	-0.0002973	9
	21	59	2390.625	87.69445	-142.0951	1	166.9771	-58.31906	-3.530417E-006	-0.0001295	9
	22	61	1884.191	92.37548	-176.4313	1	199.1513	-62.36445	-1.436071E-005	0.0007322	9
	23	63	1516.544	97.0054	-215.4056	1	236.2406	-65.75613	4.878118E-006	0.0003197	9
	24	66	1193.986	104.3413	-267.2922	1	286.9359	-68.6761	-8.846893E-006	5.335478E-005	9
	25	68	946.5144	111.648	-331.9866	1	350.2576	-71.41206	-3.150243E-006	-0.0001714	9
	26	71	751.7689	123.4031	-408.6411	1	426.8675	-73.19652	-3.402262E-006	-0.0001537	9
	27	73	597.4265	134.4444	-502.1051	1	519.7931	-75.01003	-2.473847E-007	0.0001581	8
	28	75	477.4305	148.9262	-616.9193	1	634.6403	-76.42828	3.947128E-007	0.000647	8
	29	78	376.6741	168.0209	-766.9592	1	785.148	-77.64319	3.956766E-007	0.000643	8
	30	80	298.2954	191.2546	-950.457	1	969.509	-78.62267	4.003558E-007	0.0006494	8
	31	82	237.7717	219.0405	-1170.943	1	1191.254	-79.40451	4.014803E-007	0.0006445	8
	32	85	189.0121	253.8095	-1446.542	1	1468.639	-80.04821	3.972154E-007	0.0006512	8
	33	87	150.2404	296.8944	-1787.129	1	1811.623	-80.56764	3.941392E-007	0.0006487	8
	34	90	119.1737	351.5733	-2212.741	1	2240.497	-80.97198	4.028488E-007	0.0006455	8
	35	92	95.0169	416.9078	-2726.404	1	2758.095	-81.30597	4.019477E-007	0.0006486	8
	36	94	75.60484	499.4915	-3366.308	1	3403.163	-81.56005	4.055069E-007	0.0006559	8
	37	97	54.50582	653.514	-4551.915	1	4598.588	-81.82993	3.99008E-007	0.0006457	8
	38	100	45.95588	764.4514	-5341.497	1	5395.922	-81.85538	4.654955E-008	0.0006234	7
	39	102	37.20238	918.9153	-6486.672	1	6551.436	-81.93701	4.229922E-008	0.0006234	7
	40	104	30.04808	1118.006	-7907.273	1	7985.919	-81.95232	3.829223E-008	0.0006162	7
	41	107	23.91582	1389.857	-9768.16	1	9866.54	-81.90205	3.67868E-008	0.000617	7
	42	109	18.60119	1757.796	-12281.17	1	12406.32	-81.85461	4.565209E-008	0.0006207	7
	43	111	15.02404	2180.631	-14954.94	1	15113.08	-81.70397	4.407648E-008	0.0006275	7
	44	114	12.01923	2751.095	-18351.34	1	18556.4	-81.47414	4.273464E-008	0.0006226	7
	45	116	9.450605	3536.68	-22870.69	1	23142.53	-81.20952	4.283556E-008	0.000632	7
	46	119	7.512019	4579.605	-28172.53	1	28542.32	-80.76701	4.576036E-008	0.000613	7
	47	122	5.978954	5913.947	-34625.69	1	35127.1	-80.3076	4.672625E-008	0.0006156	7
	48	126	4.734848	7696.242	-42690.22	1	43378.42	-79.78043	4.70494E-008	0.0005958	7
	49	129	3.75601	10151.04	-52450.09	1	53423.36	-79.04656	5.791329E-009	0.0006781	6
	50	135	3.004808	13109.25	-63746.62	1	65080.59	-78.37935	5.641343E-009	0.0006494	6
	51	141	2.372217	17354.87	-78285.87	1	80186.46	-77.50048	5.163617E-009	0.0005984	6
	52	145	1.878005	22604.39	-95722.1	1	98354.8	-76.71323	6.257255E-009	0.000666	6
	53	150	1.512097	28815.56	-114675.7	1	118240.7	-75.89483	5.187638E-009	0.0006693	6
	54	155	1.201923	37545.37	-139222	1	144195.7	-74.90752	5.783759E-009	0.0006827	6
	55	162	0.956633	48554.52	-167944.9	1	174822.8	-73.87489	4.251997E-009	2.08193E-005	6
