EXPLAIN
TAG	EISPOT
TITLE	LABEL	Potentiostatic EIS	Test Identifier
DATE	LABEL	9/15/2020	Date
TIME	LABEL	4:16:44	Time
NOTES	NOTES	1	Notes...
	
PSTAT	PSTAT	REF3000-16137	Potentiostat
VDC	POTEN	0.00000E+000	T	DC Voltage (V)
FREQINIT	QUANT	3.00000E+005	Initial Freq. (Hz)
FREQFINAL	QUANT	1.00000E+000	Final Freq. (Hz)
PTSPERDEC	QUANT	1.00000E+001	Points/decade
VAC	QUANT	5.00000E+001	AC Voltage (mV rms)
AREA	QUANT	1.00000E+000	Sample Area (cm^2)
SPEED	SELECTOR	2	Optimize for:
ZGUESS	QUANT	1.00000E+003	Estimated Z (ohms)
EOC	QUANT	0	Open Circuit (V)
SEQUENCER	TOGGLE	TRUE	Run as Sequence
PSTATMODEL	IQUANT	5	Pstat Model
PSTATSECTION	LABEL	REF3000-16137	Pstat Section
PSTATSERIALNO	LABEL	16137	Pstat Serial Number
CTRLMODE	IQUANT	1	Control Mode
IESTAB	IQUANT	0	I/E Stability
CASPEED	IQUANT	1	Control Amp Speed
CONVENTION	IQUANT	1	Current Convention
ICHRANGE	IQUANT	2	Ich Range
ICHRANGEMODE	TOGGLE	F	Ich Auto Range
ICHOFFSETENABLE	TOGGLE	T	Ich Offset Enable
ICHOFFSET	QUANT	0	Ich Offset (V)
ICHFILTER	IQUANT	3	Ich Filter
VCHRANGE	IQUANT	2	Vch Range
VCHRANGEMODE	TOGGLE	F	Vch Auto Range
VCHOFFSETENABLE	TOGGLE	T	Vch Offset Enable
VCHOFFSET	QUANT	0	Vch Offset (V)
VCHFILTER	IQUANT	3	Vch Filter
ACHRANGE	IQUANT	2	Ach Range
ACHOFFSETENABLE	TOGGLE	F	Ach Offset Enable
ACHOFFSET	QUANT	0	Ach Offset (V)
ACHFILTER	IQUANT	3	Ach Filter
IERANGELOWERLIMIT	IQUANT	2	I/E Range Lower Limit
IERANGEMODE	TOGGLE	F	I/E AutoRange
IERANGE	IQUANT	11	I/E Range
POSFEEDENABLE	TOGGLE	F	Positive Feedback IR Comp
POSFEEDRESISTANCE	QUANT	0	Positive Feedback Resistance (ohm)
ACHSELECT	IQUANT	0	Ach Select
CABLEID	IQUANT	13	Cable ID
DCCALDATE	LABEL	7/31/2020	DC Calibration Date
ACCALDATE	LABEL	7/31/2020	AC Calibration Date
THERMOSELECT	IQUANT	1	Thermo Select
FRAMEWORKVERSION	QUANT	6.33	Framework Version
INSTRUMENTVERSION	LABEL	3.50	Instrument Version
COMPLIANCEVOLTAGE	IQUANT	0	Compliance Voltage
ZCURVE	TABLE
	Pt	Time	Freq	Zreal	Zimag	Zsig	Zmod	Zphz	Idc	Vdc	IERange
	#	s	Hz	ohm	ohm	V	ohm	°	A	V	#
	0	14	300046.9	453.0377	-48.79593	1	455.658	-6.147533	-0.0000982	0.0034691	9
	1	21	238359.4	457.6534	-45.48064	1	459.9078	-5.675301	-9.155983E-005	0.0021677	9
	2	27	189328.1	460.2774	-42.46755	1	462.2324	-5.271478	-1.985952E-005	0.001104	9
	3	33	150421.9	464.304	-41.51527	1	466.1564	-5.109456	-6.015898E-005	0.0007297	9
	4	41	119484.4	469.0167	-41.70589	1	470.8673	-5.081489	-2.927186E-005	-0.0007357	9
	5	47	94921.88	474.8885	-30.17179	1	475.846	-3.635371	-2.168899E-006	-0.0021697	8
	6	50	75421.88	477.4966	-34.20034	1	478.7198	-4.096772	6.257755E-006	0.0021028	8
	7	52	59859.37	481.0514	-41.49208	1	482.8375	-4.929726	-7.497512E-006	-0.0002343	8
	8	55	47578.12	484.9197	-46.98771	1	487.1909	-5.534563	1.606073E-005	-0.0045787	8
	9	57	37828.12	491.8897	-54.78495	1	494.9312	-6.355212	-1.272349E-005	0.0065101	8
	10	60	30046.88	498.1603	-62.3302	1	502.0445	-7.13183	-1.424569E-005	0.0039812	8
	11	62	23859.38	505.7533	-70.66912	1	510.6667	-7.954462	-2.610109E-006	-0.0018928	8
	12	65	18984.38	514.4412	-80.61554	1	520.7194	-8.906109	1.455448E-005	-0.0050883	8
	13	67	15046.87	523.3572	-93.23406	1	531.597	-10.10106	1.654917E-005	-0.0030795	8
	14	70	11953.13	534.3534	-106.0318	1	544.7718	-11.22342	1.490084E-005	-0.002275	8
	15	72	9515.62	545.1183	-116.3572	1	557.3984	-12.04913	-1.287062E-005	0.0065298	8
	16	74	7546.875	556.6238	-133.6014	1	572.4329	-13.49687	1.29948E-005	-0.005106	8
	17	77	5928.309	566.4666	-156.0986	1	587.5808	-15.40637	-5.054507E-006	0.0057371	8
	18	79	4733.456	576.3135	-175.9362	1	602.5701	-16.97631	1.571186E-005	-0.0044365	8
	19	81	3796.875	587.4936	-204.3226	1	622.01	-19.17701	1.518958E-005	-0.002236	8
	20	84	2987.132	600.122	-241.8301	1	647.0148	-21.94787	-1.468875E-005	0.005967	8
	21	86	2390.625	611.7682	-285.3224	1	675.0328	-25.00386	-9.758574E-006	0.0065157	8
	22	89	1884.191	621.494	-344.8398	1	710.7526	-29.02397	-4.723068E-006	0.0056196	8
	23	91	1516.544	633.9302	-414.0753	1	757.1829	-33.15207	-1.428195E-005	0.0040417	8
	24	94	1193.986	650.3698	-503.6776	1	822.6007	-37.75592	1.174185E-005	-0.0004197	8
	25	96	946.5144	662.7671	-614.3876	1	903.7325	-42.83064	-1.418554E-005	0.0039166	8
	26	99	751.7689	683.5168	-756.5809	1	1019.613	-47.90444	-1.069229E-005	0.0014949	8
	27	101	597.4265	707.6421	-933.1828	1	1171.148	-52.82658	1.150204E-005	-0.0002686	8
	28	104	477.4305	734.3928	-1141.327	1	1357.188	-57.24054	-1.062955E-007	0.000655	8
	29	106	376.6741	769.0054	-1416.88	1	1612.116	-61.5093	-1.050372E-007	0.0006472	8
	30	109	298.2954	810.6958	-1754.618	1	1932.85	-65.20139	-7.313886E-008	0.000639	8
	31	111	237.7717	860.4489	-2161.383	1	2326.36	-68.29245	-1.248962E-007	0.0006901	8
	32	113	189.0121	922.3314	-2670.099	1	2824.912	-70.94357	-7.240585E-008	0.0006395	8
	33	116	150.2404	999.031	-3300.523	1	3448.407	-73.15953	-1.043386E-007	0.0006422	8
	34	118	119.1737	1094.237	-4087.903	1	4231.821	-75.01456	-6.017291E-008	0.0006282	8
	35	121	95.0169	1213.152	-5050.417	1	5194.078	-76.49299	-2.328872E-008	0.0006025	7
	36	123	75.60484	1357.614	-6239.063	1	6385.063	-77.72386	-2.139049E-008	0.0006003	7
	37	126	54.50582	1627.896	-8442.324	1	8597.842	-79.08586	-2.752072E-008	0.0006227	7
	38	128	45.95588	1803.683	-9886.83	1	10050.01	-79.66106	-2.102784E-008	0.0006107	7
	39	130	37.20238	2067.078	-12017.59	1	12194.07	-80.24038	-2.683403E-008	0.0006216	7
	40	133	30.04808	2389.867	-14637.11	1	14830.93	-80.72688	-2.716964E-008	0.0006192	7
	41	135	23.91582	2812.99	-18068.35	1	18286.01	-81.15089	-2.614827E-008	0.0006256	7
	42	138	18.60119	3398.964	-22797.29	1	23049.29	-81.51995	-2.267861E-008	0.000597	7
	43	140	15.02404	4018.647	-27766	1	28055.31	-81.76462	-2.250022E-008	0.000591	7
	44	142	12.01923	4814.509	-34114.25	1	34452.3	-81.96696	-2.555763E-008	0.000621	7
	45	145	9.450605	5870.331	-42587.55	1	42990.23	-82.15173	-2.594417E-008	0.0006122	7
	46	147	7.512019	7192.22	-52643	1	53132.04	-82.22028	-1.98973E-009	0.0006857	6
	47	150	5.978954	8762.99	-64971.74	1	65560.02	-82.31865	-2.208893E-009	0.0006878	6
	48	153	4.734848	10764.06	-80551.08	1	81267.1	-82.38864	-2.943034E-009	0.0006573	6
	49	156	3.75601	13258.2	-99694.7	1	100572.4	-82.4248	-2.512308E-009	0.0006817	6
	50	162	3.004808	16182.24	-122347.9	1	123413.4	-82.46556	-2.965063E-009	0.0006931	6
	51	168	2.372217	20260.98	-151851.5	1	153197.2	-82.40012	-3.023952E-009	0.0006306	6
	52	172	1.878005	24903.41	-188666.3	1	190302.8	-82.48059	-2.469129E-009	0.0006569	6
	53	177	1.512097	29928.92	-229932.4	1	231872	-82.58385	-2.941165E-009	0.0007245	6
	54	182	1.201923	37366.84	-284843.2	1	287283.7	-82.52639	-2.542754E-009	0.0006629	6
	55	189	0.956633	46170.33	-351562.2	1	354581	-82.51822	-2.97322E-009	1.824726E-005	6
