EXPLAIN
TAG	EISPOT
TITLE	LABEL	Potentiostatic EIS	Test Identifier
DATE	LABEL	9/15/2020	Date
TIME	LABEL	5:35:27	Time
NOTES	NOTES	1	Notes...
	
PSTAT	PSTAT	REF3000-16137	Potentiostat
VDC	POTEN	0.00000E+000	T	DC Voltage (V)
FREQINIT	QUANT	3.00000E+005	Initial Freq. (Hz)
FREQFINAL	QUANT	1.00000E+000	Final Freq. (Hz)
PTSPERDEC	QUANT	1.00000E+001	Points/decade
VAC	QUANT	5.00000E+001	AC Voltage (mV rms)
AREA	QUANT	1.00000E+000	Sample Area (cm^2)
SPEED	SELECTOR	2	Optimize for:
ZGUESS	QUANT	1.00000E+003	Estimated Z (ohms)
EOC	QUANT	0	Open Circuit (V)
SEQUENCER	TOGGLE	TRUE	Run as Sequence
PSTATMODEL	IQUANT	5	Pstat Model
PSTATSECTION	LABEL	REF3000-16137	Pstat Section
PSTATSERIALNO	LABEL	16137	Pstat Serial Number
CTRLMODE	IQUANT	1	Control Mode
IESTAB	IQUANT	0	I/E Stability
CASPEED	IQUANT	1	Control Amp Speed
CONVENTION	IQUANT	1	Current Convention
ICHRANGE	IQUANT	2	Ich Range
ICHRANGEMODE	TOGGLE	F	Ich Auto Range
ICHOFFSETENABLE	TOGGLE	T	Ich Offset Enable
ICHOFFSET	QUANT	0	Ich Offset (V)
ICHFILTER	IQUANT	3	Ich Filter
VCHRANGE	IQUANT	2	Vch Range
VCHRANGEMODE	TOGGLE	F	Vch Auto Range
VCHOFFSETENABLE	TOGGLE	T	Vch Offset Enable
VCHOFFSET	QUANT	0	Vch Offset (V)
VCHFILTER	IQUANT	3	Vch Filter
ACHRANGE	IQUANT	2	Ach Range
ACHOFFSETENABLE	TOGGLE	F	Ach Offset Enable
ACHOFFSET	QUANT	0	Ach Offset (V)
ACHFILTER	IQUANT	3	Ach Filter
IERANGELOWERLIMIT	IQUANT	2	I/E Range Lower Limit
IERANGEMODE	TOGGLE	F	I/E AutoRange
IERANGE	IQUANT	11	I/E Range
POSFEEDENABLE	TOGGLE	F	Positive Feedback IR Comp
POSFEEDRESISTANCE	QUANT	0	Positive Feedback Resistance (ohm)
ACHSELECT	IQUANT	0	Ach Select
CABLEID	IQUANT	13	Cable ID
DCCALDATE	LABEL	7/31/2020	DC Calibration Date
ACCALDATE	LABEL	7/31/2020	AC Calibration Date
THERMOSELECT	IQUANT	1	Thermo Select
FRAMEWORKVERSION	QUANT	6.33	Framework Version
INSTRUMENTVERSION	LABEL	3.50	Instrument Version
COMPLIANCEVOLTAGE	IQUANT	0	Compliance Voltage
ZCURVE	TABLE
	Pt	Time	Freq	Zreal	Zimag	Zsig	Zmod	Zphz	Idc	Vdc	IERange
	#	s	Hz	ohm	ohm	V	ohm	°	A	V	#
	0	18	300046.9	2418.157	-1969.132	1	3118.488	-39.1563	2.552053E-005	-0.0016846	9
	1	32	238359.4	2777.788	-1885.306	1	3357.154	-34.16504	-0.0001093	0.0038059	9
	2	66	189328.1	3139.506	-1729.914	1	3584.564	-28.85541	2.844471E-005	-0.0019354	9
	3	77	150421.9	3389.082	-1579.234	1	3738.964	-24.98443	1.875921E-005	-0.0002641	9
	4	84	119484.4	3653.084	-1354.692	1	3896.18	-20.34654	7.726628E-005	-0.0015037	9
	5	91	94921.88	3857.813	-1035.863	1	3994.463	-15.02999	-2.464785E-005	0.0090182	8
	6	99	75421.88	3967.763	-885.8134	1	4065.441	-12.58505	-1.815125E-005	0.0105618	8
	7	106	59859.37	4065.833	-780.7883	1	4140.124	-10.87054	2.524733E-005	-0.0069877	8
	8	114	47578.12	4145.111	-669.3539	1	4198.807	-9.172957	-1.61715E-006	0.0070821	8
	9	121	37828.12	4401.389	-212.0991	1	4406.497	-2.758899	5.306634E-006	-0.0056946	7
	10	124	30046.88	4243.711	-536.6583	1	4277.51	-7.207347	-1.518859E-006	-0.0045968	8
	11	131	23859.38	4390.042	-229.0954	1	4396.016	-2.987284	-6.11169E-007	0.0166525	7
	12	134	18984.38	4417.813	-260.7945	1	4425.504	-3.378392	-6.017045E-006	0.0133406	7
	13	138	15046.87	4372.369	-470.1683	1	4397.576	-6.137529	2.052285E-005	-0.008888	8
	14	144	11953.13	4436.223	-473.7118	1	4461.443	-6.0951	-2.467448E-005	0.0089406	8
	15	149	9515.62	4484.302	-490.2156	1	4511.017	-6.238696	2.414702E-005	-0.0083094	8
	16	154	7546.875	4530.272	-534.7068	1	4561.719	-6.731462	-1.475655E-006	-0.0045515	8
	17	160	5928.309	4639.034	-493.9229	1	4665.254	-6.077446	-4.928561E-009	-0.0139752	7
	18	163	4733.456	4694.369	-569.2448	1	4728.757	-6.913998	-5.145235E-006	0.0229361	7
	19	167	3796.875	4754.202	-681.3146	1	4802.772	-8.155411	8.171372E-006	0.0037564	8
	20	172	2987.132	4794.152	-746.8997	1	4851.985	-8.855148	-1.3508E-006	-0.0046126	8
	21	178	2390.625	4965.365	-803.2751	1	5029.921	-9.189446	2.013667E-006	-0.0190154	7
	22	181	1884.191	5055.668	-918.5152	1	5138.429	-10.2972	-5.272143E-006	0.0074217	7
	23	185	1516.544	5125.579	-1092.381	1	5240.692	-12.03107	-9.43326E-006	-0.0017154	8
	24	191	1193.986	5211.284	-1166.234	1	5340.186	-12.61439	-1.821935E-005	0.0105951	8
	25	196	946.5144	5537.344	-1360.335	1	5701.99	-13.80227	-1.843567E-005	0.0107252	8
	26	200	751.7689	5352.41	-1678.375	1	5609.388	-17.41005	2.590511E-005	-0.007175	8
	27	204	597.4265	5585.805	-1795.219	1	5867.199	-17.81686	2.220385E-005	-0.0029083	8
	28	207	477.4305	5732.53	-2039.591	1	6084.557	-19.58518	-3.707538E-007	0.0006528	8
	29	211	376.6741	5866.828	-2411.271	1	6343.02	-22.34271	-7.87543E-008	0.0006218	7
	30	213	298.2954	5977.417	-2876.868	1	6633.692	-25.70102	-8.273444E-008	0.0006602	7
	31	215	237.7717	6089.334	-3447.985	1	6997.756	-29.51999	-7.639559E-008	0.0005901	7
	32	218	189.0121	6212.421	-4172.897	1	7483.799	-33.88935	-7.362109E-008	0.0006432	7
	33	220	150.2404	6351.444	-5082.682	1	8134.771	-38.66821	-8.234832E-008	0.0006891	7
	34	223	119.1737	6512.957	-6228.335	1	9011.701	-43.72031	-7.007405E-008	0.0006021	7
	35	225	95.0169	6702.905	-7629.961	1	10156.04	-48.70076	-8.326966E-008	0.0006797	7
	36	228	75.60484	6932.087	-9380.975	1	11664.33	-53.53739	-7.189448E-008	0.0005697	7
	37	230	54.50582	7334.325	-12639.73	1	14613.52	-59.87513	-7.812404E-008	0.0006646	7
	38	233	45.95588	7608.112	-14779.78	1	16623.04	-62.76218	-7.058429E-008	0.0005896	7
	39	235	37.20238	7999.385	-17943.62	1	19645.96	-65.97237	-7.679683E-008	0.0006696	7
	40	237	30.04808	8478.955	-21848.02	1	23435.63	-68.78937	-7.473003E-008	0.0006574	7
	41	240	23.91582	9113.521	-26970.96	1	28469.09	-71.32983	-6.926551E-008	0.0005852	7
	42	242	18.60119	9966.93	-34008.98	1	35439.39	-73.66586	-7.397556E-008	0.0005861	7
	43	244	15.02404	10890.46	-41460.54	1	42866.98	-75.28256	-6.969662E-008	0.0005994	7
	44	247	12.01923	12069.34	-50988.36	1	52397.34	-76.68276	-8.316294E-009	0.0006151	6
	45	249	9.450605	13604.19	-63688.46	1	65125.22	-77.94252	-7.49082E-009	0.0006283	6
	46	252	7.512019	15507.38	-78779.26	1	80291.04	-78.86393	-8.573847E-009	0.0007062	6
	47	254	5.978954	17814.29	-97262.6	1	98880.6	-79.62094	-8.019535E-009	0.0006298	6
	48	258	4.734848	20819.61	-120749.7	1	122531.4	-80.21727	-7.612106E-009	0.000657	6
	49	262	3.75601	24478.21	-149524.9	1	151515.3	-80.70277	-8.208821E-009	0.0006879	6
	50	267	3.004808	28911.96	-183628.5	1	185890.7	-81.05235	-8.350107E-009	0.000667	6
	51	274	2.372217	35056.37	-228022.5	1	230701.6	-81.25974	-8.080359E-009	0.0006861	6
	52	278	1.878005	42380.71	-283418	1	286569.2	-81.49533	-8.541539E-009	0.0006532	6
	53	283	1.512097	50649.28	-344942.1	1	348640.8	-81.64671	-8.10835E-009	0.0006631	6
	54	288	1.201923	61789.66	-427360.6	1	431804.4	-81.77293	-8.351495E-009	0.0006367	6
	55	294	0.956633	75792.72	-527526.2	1	532943.2	-81.82394	-1.001946E-009	4.859249E-006	5
