EXPLAIN
TAG	EISPOT
TITLE	LABEL	Potentiostatic EIS	Test Identifier
DATE	LABEL	9/15/2020	Date
TIME	LABEL	5:20:36	Time
NOTES	NOTES	1	Notes...
	
PSTAT	PSTAT	REF3000-16137	Potentiostat
VDC	POTEN	0.00000E+000	T	DC Voltage (V)
FREQINIT	QUANT	3.00000E+005	Initial Freq. (Hz)
FREQFINAL	QUANT	1.00000E+000	Final Freq. (Hz)
PTSPERDEC	QUANT	1.00000E+001	Points/decade
VAC	QUANT	5.00000E+001	AC Voltage (mV rms)
AREA	QUANT	1.00000E+000	Sample Area (cm^2)
SPEED	SELECTOR	2	Optimize for:
ZGUESS	QUANT	1.00000E+003	Estimated Z (ohms)
EOC	QUANT	0	Open Circuit (V)
SEQUENCER	TOGGLE	TRUE	Run as Sequence
PSTATMODEL	IQUANT	5	Pstat Model
PSTATSECTION	LABEL	REF3000-16137	Pstat Section
PSTATSERIALNO	LABEL	16137	Pstat Serial Number
CTRLMODE	IQUANT	1	Control Mode
IESTAB	IQUANT	0	I/E Stability
CASPEED	IQUANT	1	Control Amp Speed
CONVENTION	IQUANT	1	Current Convention
ICHRANGE	IQUANT	2	Ich Range
ICHRANGEMODE	TOGGLE	F	Ich Auto Range
ICHOFFSETENABLE	TOGGLE	T	Ich Offset Enable
ICHOFFSET	QUANT	0	Ich Offset (V)
ICHFILTER	IQUANT	3	Ich Filter
VCHRANGE	IQUANT	2	Vch Range
VCHRANGEMODE	TOGGLE	F	Vch Auto Range
VCHOFFSETENABLE	TOGGLE	T	Vch Offset Enable
VCHOFFSET	QUANT	0	Vch Offset (V)
VCHFILTER	IQUANT	3	Vch Filter
ACHRANGE	IQUANT	2	Ach Range
ACHOFFSETENABLE	TOGGLE	F	Ach Offset Enable
ACHOFFSET	QUANT	0	Ach Offset (V)
ACHFILTER	IQUANT	3	Ach Filter
IERANGELOWERLIMIT	IQUANT	2	I/E Range Lower Limit
IERANGEMODE	TOGGLE	F	I/E AutoRange
IERANGE	IQUANT	11	I/E Range
POSFEEDENABLE	TOGGLE	F	Positive Feedback IR Comp
POSFEEDRESISTANCE	QUANT	0	Positive Feedback Resistance (ohm)
ACHSELECT	IQUANT	0	Ach Select
CABLEID	IQUANT	13	Cable ID
DCCALDATE	LABEL	7/31/2020	DC Calibration Date
ACCALDATE	LABEL	7/31/2020	AC Calibration Date
THERMOSELECT	IQUANT	1	Thermo Select
FRAMEWORKVERSION	QUANT	6.33	Framework Version
INSTRUMENTVERSION	LABEL	3.50	Instrument Version
COMPLIANCEVOLTAGE	IQUANT	0	Compliance Voltage
ZCURVE	TABLE
	Pt	Time	Freq	Zreal	Zimag	Zsig	Zmod	Zphz	Idc	Vdc	IERange
	#	s	Hz	ohm	ohm	V	ohm	°	A	V	#
	0	15	300046.9	1920.103	-930.6503	1	2133.754	-25.8589	-1.803601E-005	0.0011257	9
	1	27	238359.4	2055.408	-815.3243	1	2211.212	-21.63688	2.175944E-006	0.001576	9
	2	40	189328.1	2142.191	-715.8895	1	2258.646	-18.47889	-2.118761E-005	0.001652	9
	3	55	150421.9	2269.082	-600.9305	1	2347.307	-14.83335	-6.092291E-005	0.000669	9
	4	61	119484.4	2335.573	-458.3006	1	2380.114	-11.10188	-1.307711E-005	0.0144274	8
	5	67	94921.88	2366.693	-443.3661	1	2407.864	-10.61056	1.006889E-005	-0.0007962	9
	6	75	75421.88	2402.452	-390.975	1	2434.058	-9.243283	2.822281E-005	-0.0004472	9
	7	80	59859.37	2440.917	-300.8615	1	2459.389	-7.026699	-9.11377E-006	-0.0014738	8
	8	85	47578.12	2461.005	-274.6832	1	2476.286	-6.368667	-9.131633E-006	-0.0014918	8
	9	90	37828.12	2485.355	-283.4181	1	2501.462	-6.505637	-1.89989E-005	0.0002951	9
	10	98	30046.88	2516.894	-250.9004	1	2529.369	-5.692809	2.267356E-005	-0.0078682	8
	11	102	23859.38	2537.986	-253.9556	1	2550.66	-5.714101	2.119478E-005	-0.0028054	8
	12	107	18984.38	2575.334	-275.9504	1	2590.076	-6.115982	2.827503E-005	-0.0004349	9
	13	113	15046.87	2597.857	-273.8879	1	2612.255	-6.018371	-2.307584E-005	0.006822	8
	14	118	11953.13	2623.894	-296.6615	1	2640.612	-6.450556	2.341604E-005	-0.0047	8
	15	123	9515.62	2656.386	-315.7005	1	2675.08	-6.777578	-1.189109E-006	0.0068348	8
	16	128	7546.875	2708.564	-353.4291	1	2731.526	-7.434281	1.380712E-005	-0.0079267	8
	17	134	5928.309	2745.632	-401.369	1	2774.814	-8.316848	1.38013E-005	-0.0079712	8
	18	139	4733.456	2787.434	-434.349	1	2821.072	-8.856829	-2.323033E-005	0.0086395	8
	19	144	3796.875	2860.306	-492.603	1	2902.414	-9.77164	1.38364E-005	-0.0079838	8
	20	150	2987.132	2946.632	-552.2663	1	2997.938	-10.61539	2.447067E-005	-0.0001831	9
	21	155	2390.625	2992.831	-629.3309	1	3058.282	-11.87512	2.341856E-005	-0.0047056	8
	22	160	1884.191	3070.665	-725.4805	1	3155.203	-13.29304	-9.870046E-006	0.0089436	8
	23	166	1516.544	3141.303	-789.0883	1	3238.896	-14.10081	-9.049804E-006	-0.0001705	9
	24	171	1193.986	3213.878	-906.3219	1	3339.226	-15.74859	-1.993044E-005	0.0011215	9
	25	177	946.5144	3240.737	-1079.501	1	3415.802	-18.4231	-8.135889E-007	0.0066643	8
	26	180	751.7689	3319.932	-1202.115	1	3530.868	-19.90484	-1.668187E-005	0.0099225	8
	27	184	597.4265	3390.439	-1405.327	1	3670.153	-22.51386	1.363045E-005	-0.0078631	8
	28	188	477.4305	3452.512	-1703.151	1	3849.749	-26.25748	-2.624208E-007	0.0006389	8
	29	191	376.6741	3535.411	-2062.066	1	4092.829	-30.25334	-6.9659E-008	0.0006396	7
	30	194	298.2954	3608.15	-2506.367	1	4393.248	-34.7854	-6.603742E-008	0.0006376	7
	31	196	237.7717	3690.301	-3048.251	1	4786.456	-39.55729	-5.796903E-008	0.0005953	7
	32	199	189.0121	3786.984	-3731.937	1	5316.823	-44.58054	-6.660423E-008	0.0006302	7
	33	201	150.2404	3901.851	-4583.321	1	6019.242	-49.59174	-5.917495E-008	0.0005794	7
	34	203	119.1737	4038.785	-5651.741	1	6946.507	-54.45006	-5.892621E-008	0.0005988	7
	35	206	95.0169	4204.916	-6943.914	1	8117.836	-58.80283	-6.703311E-008	0.000653	7
	36	208	75.60484	4407.899	-8559.266	1	9627.6	-62.75218	-5.848552E-008	0.0005833	7
	37	211	54.50582	4780.419	-11557.2	1	12506.85	-67.52847	-6.26957E-008	0.0005847	7
	38	213	45.95588	5019.753	-13529.64	1	14430.84	-69.64419	-5.824711E-008	0.0005987	7
	39	216	37.20238	5375.833	-16438.51	1	17295.21	-71.89086	-5.837915E-008	0.0005938	7
	40	218	30.04808	5812.242	-20022.14	1	20848.7	-73.81247	-6.06937E-008	0.0005799	7
	41	220	23.91582	6386.588	-24727.37	1	25538.82	-75.51813	-5.903388E-008	0.0005911	7
	42	223	18.60119	7186.917	-31223.83	1	32040.28	-77.03777	-5.808553E-008	0.0005987	7
	43	225	15.02404	8015.462	-38037.09	1	38872.46	-78.1003	-6.272098E-008	0.0006724	7
	44	227	12.01923	9121.26	-46770.84	1	47651.96	-78.96468	-7.472045E-009	0.0006987	6
	45	230	9.450605	10583	-58395.14	1	59346.37	-79.72774	-6.79185E-009	0.0006983	6
	46	232	7.512019	12344.15	-72208.89	1	73256.41	-80.29903	-6.662095E-009	0.0006514	6
	47	235	5.978954	14499.29	-89133.46	1	90305.05	-80.76066	-6.58415E-009	0.0006216	6
	48	239	4.734848	17297.88	-110525.3	1	111870.7	-81.10502	-6.305482E-009	0.0006483	6
	49	242	3.75601	20773.27	-136858.3	1	138425.9	-81.36914	-7.26614E-009	0.0006704	6
	50	247	3.004808	24904.34	-167935.4	1	169772	-81.56467	-7.067077E-009	0.0006801	6
	51	254	2.372217	30625.31	-208809.8	1	211043.6	-81.65614	-6.900976E-009	0.0007273	6
	52	258	1.878005	37096.62	-259093.1	1	261735.3	-81.85184	-7.287895E-009	0.0006444	6
	53	263	1.512097	45021.64	-315348.5	1	318546.2	-81.87491	-6.854867E-009	0.000701	6
	54	268	1.201923	54969.12	-390416	1	394266.7	-81.98565	-7.094207E-009	0.0006352	6
	55	274	0.956633	67741.7	-481810.9	1	486549.8	-81.99678	-8.723303E-010	7.211982E-006	5
