EXPLAIN
TAG	EISPOT
TITLE	LABEL	Potentiostatic EIS	Test Identifier
DATE	LABEL	9/15/2020	Date
TIME	LABEL	5:49:20	Time
NOTES	NOTES	1	Notes...
	
PSTAT	PSTAT	REF3000-16137	Potentiostat
VDC	POTEN	0.00000E+000	T	DC Voltage (V)
FREQINIT	QUANT	3.00000E+005	Initial Freq. (Hz)
FREQFINAL	QUANT	1.00000E+000	Final Freq. (Hz)
PTSPERDEC	QUANT	1.00000E+001	Points/decade
VAC	QUANT	5.00000E+001	AC Voltage (mV rms)
AREA	QUANT	1.00000E+000	Sample Area (cm^2)
SPEED	SELECTOR	2	Optimize for:
ZGUESS	QUANT	1.00000E+003	Estimated Z (ohms)
EOC	QUANT	0	Open Circuit (V)
SEQUENCER	TOGGLE	TRUE	Run as Sequence
PSTATMODEL	IQUANT	5	Pstat Model
PSTATSECTION	LABEL	REF3000-16137	Pstat Section
PSTATSERIALNO	LABEL	16137	Pstat Serial Number
CTRLMODE	IQUANT	1	Control Mode
IESTAB	IQUANT	0	I/E Stability
CASPEED	IQUANT	1	Control Amp Speed
CONVENTION	IQUANT	1	Current Convention
ICHRANGE	IQUANT	2	Ich Range
ICHRANGEMODE	TOGGLE	F	Ich Auto Range
ICHOFFSETENABLE	TOGGLE	T	Ich Offset Enable
ICHOFFSET	QUANT	0	Ich Offset (V)
ICHFILTER	IQUANT	3	Ich Filter
VCHRANGE	IQUANT	2	Vch Range
VCHRANGEMODE	TOGGLE	F	Vch Auto Range
VCHOFFSETENABLE	TOGGLE	T	Vch Offset Enable
VCHOFFSET	QUANT	0	Vch Offset (V)
VCHFILTER	IQUANT	3	Vch Filter
ACHRANGE	IQUANT	2	Ach Range
ACHOFFSETENABLE	TOGGLE	F	Ach Offset Enable
ACHOFFSET	QUANT	0	Ach Offset (V)
ACHFILTER	IQUANT	3	Ach Filter
IERANGELOWERLIMIT	IQUANT	2	I/E Range Lower Limit
IERANGEMODE	TOGGLE	F	I/E AutoRange
IERANGE	IQUANT	11	I/E Range
POSFEEDENABLE	TOGGLE	F	Positive Feedback IR Comp
POSFEEDRESISTANCE	QUANT	0	Positive Feedback Resistance (ohm)
ACHSELECT	IQUANT	0	Ach Select
CABLEID	IQUANT	13	Cable ID
DCCALDATE	LABEL	7/31/2020	DC Calibration Date
ACCALDATE	LABEL	7/31/2020	AC Calibration Date
THERMOSELECT	IQUANT	1	Thermo Select
FRAMEWORKVERSION	QUANT	6.33	Framework Version
INSTRUMENTVERSION	LABEL	3.50	Instrument Version
COMPLIANCEVOLTAGE	IQUANT	0	Compliance Voltage
ZCURVE	TABLE
	Pt	Time	Freq	Zreal	Zimag	Zsig	Zmod	Zphz	Idc	Vdc	IERange
	#	s	Hz	ohm	ohm	V	ohm	°	A	V	#
	0	14	300046.9	2283.046	-3248.671	1	3970.663	-54.90187	-0.0001061	0.0037979	9
	1	36	238359.4	2977.588	-3487.635	1	4585.808	-49.51077	-1.753508E-007	0.0016492	9
	2	52	189328.1	3691.295	-3327.917	1	4969.979	-42.0365	-2.047584E-005	0.0011053	9
	3	59	150421.9	4299.59	-3385.484	1	5472.475	-38.21679	-2.035869E-005	0.0012705	9
	4	67	119484.4	5206.441	-2990.304	1	6004.077	-29.87078	-9.433004E-006	0.0169593	8
	5	74	94921.88	5777.996	-2660.97	1	6361.29	-24.72773	-1.344265E-006	-0.0047923	8
	6	82	75421.88	6197.614	-2351.782	1	6628.823	-20.78004	-2.516504E-005	0.0073278	8
	7	89	59859.37	6529.494	-2034.296	1	6839.053	-17.30468	2.505932E-005	-0.0049586	8
	8	96	47578.12	6786.821	-1738.522	1	7005.955	-14.36802	2.242653E-005	-0.00281	8
	9	104	37828.12	6963.337	-1481.03	1	7119.095	-12.0073	1.697399E-005	0.0002288	8
	10	111	30046.88	7161.619	-1381.167	1	7293.586	-10.91586	2.895583E-007	-0.000513	9
	11	120	23859.38	7439.01	-703.4751	1	7472.198	-5.40215	3.748154E-006	-0.0234184	7
	12	123	18984.38	7484.443	-645.3879	1	7512.218	-4.928457	6.692665E-006	-0.0147027	7
	13	128	15046.87	7557.032	-637.3607	1	7583.862	-4.820921	-5.281692E-006	0.0244228	7
	14	131	11953.13	7600.65	-628.6281	1	7626.602	-4.72801	7.125165E-006	-0.021332	7
	15	135	9515.62	7656.64	-630.5457	1	7682.56	-4.707844	3.991317E-006	0.0016512	7
	16	138	7546.875	7714.533	-698.1233	1	7746.057	-5.170872	-6.555075E-006	0.0158162	7
	17	142	5928.309	7795.268	-734.5582	1	7829.801	-5.38316	-6.678103E-006	0.0203751	7
	18	146	4733.456	7900.082	-823.2769	1	7942.863	-5.949387	1.959069E-006	0.009949	7
	19	151	3796.875	7997.969	-873.6949	1	8045.548	-6.234248	-3.135982E-007	-0.0140218	7
	20	154	2987.132	8111.277	-961.401	1	8168.054	-6.759528	6.787704E-006	-0.0151721	7
	21	159	2390.625	8248.914	-1093.438	1	8321.069	-7.550844	-4.391028E-006	0.0010709	7
	22	162	1884.191	8399.283	-1262.098	1	8493.577	-8.545476	-5.265875E-006	0.0244793	7
	23	167	1516.544	8563.075	-1383.974	1	8674.194	-9.180821	5.737418E-006	-0.0070895	7
	24	171	1193.986	8715.524	-1616.314	1	8864.132	-10.50627	-6.221233E-006	0.0231465	7
	25	175	946.5144	8845.792	-1848.684	1	9036.906	-11.80436	-1.630715E-007	0.0166195	7
	26	178	751.7689	9138.691	-1886.096	1	9331.294	-11.6613	-6.594077E-006	0.0156614	7
	27	181	597.4265	9317.271	-2351.967	1	9609.54	-14.16725	-4.443777E-006	0.0014909	7
	28	183	477.4305	9515.12	-2568.711	1	9855.74	-15.1075	-7.607348E-008	0.0005737	7
	29	186	376.6741	9716.34	-2960.147	1	10157.25	-16.94371	-8.286626E-008	0.000667	7
	30	188	298.2954	9908.53	-3443.243	1	10489.75	-19.16249	-8.535677E-008	0.0006664	7
	31	190	237.7717	10093.35	-4032.532	1	10869.09	-21.77787	-8.894282E-008	0.0006786	7
	32	193	189.0121	10281.3	-4787.4	1	11341.26	-24.96865	-8.507251E-008	0.0006567	7
	33	195	150.2404	10475.43	-5737.54	1	11943.78	-28.71014	-7.687463E-008	0.0005724	7
	34	198	119.1737	10684.2	-6955.85	1	12748.96	-33.06577	-8.449631E-008	0.0006467	7
	35	200	95.0169	10922.29	-8432.598	1	13798.74	-37.67007	-8.517758E-008	0.0006424	7
	36	202	75.60484	11191.66	-10301.29	1	15210.84	-42.62782	-8.183706E-008	0.0005979	7
	37	205	54.50582	11655.58	-13810.45	1	18071.55	-49.83671	-8.479125E-008	0.0006394	7
	38	208	45.95588	11950.84	-16108.24	1	20057.37	-53.42796	-7.597747E-008	0.0005944	7
	39	210	37.20238	12385.53	-19525.69	1	23122.59	-57.61224	-8.286835E-008	0.0006297	7
	40	212	30.04808	12907.87	-23743.37	1	27025.19	-61.46968	-8.833535E-008	0.0006865	7
	41	215	23.91582	13596	-29288.81	1	32290.64	-65.09905	-7.987079E-008	0.0006625	7
	42	217	18.60119	14528.09	-36942.12	1	39696.17	-68.53196	-8.3506E-008	0.000626	7
	43	219	15.02404	15550.55	-45030.4	1	47639.86	-70.94844	-8.835951E-009	0.0006673	6
	44	222	12.01923	16791.28	-55313.09	1	57805.58	-73.1134	-8.266191E-009	0.0006405	6
	45	224	9.450605	18464.7	-69097.81	1	71522.39	-75.0387	-8.060654E-009	0.0006112	6
	46	227	7.512019	20460.91	-85481.7	1	87896.36	-76.53894	-9.486938E-009	0.0007282	6
	47	230	5.978954	22949.89	-105558.7	1	108024.7	-77.73401	-8.940288E-009	0.0007083	6
	48	234	4.734848	26022.68	-131103	1	133660.7	-78.77326	-9.426163E-009	0.0006706	6
	49	237	3.75601	30068.8	-162351.8	1	165112.8	-79.50728	-8.025292E-009	0.0006592	6
	50	243	3.004808	34891.39	-199535.6	1	202563.3	-80.08138	-9.070912E-009	0.0006512	6
	51	249	2.372217	41458.44	-248351.9	1	251788.6	-80.52276	-8.947942E-009	0.0005894	6
	52	253	1.878005	49077.28	-308429.6	1	312309.8	-80.9589	-8.628455E-009	0.0006587	6
	53	258	1.512097	58038.53	-375607.7	1	380065.2	-81.21618	-8.990183E-009	0.0006462	6
	54	263	1.201923	70307.62	-466159.6	1	471431.8	-81.42312	-8.763059E-010	0.0006643	5
	55	270	0.956633	85193.23	-574812.1	1	581091.1	-81.56953	-1.036444E-009	4.912994E-006	5
