EXPLAIN
TAG	EISPOT
TITLE	LABEL	Potentiostatic EIS	Test Identifier
DATE	LABEL	9/15/2020	Date
TIME	LABEL	2:48:17	Time
NOTES	NOTES	1	Notes...
	
PSTAT	PSTAT	REF3000-16137	Potentiostat
VDC	POTEN	0.00000E+000	T	DC Voltage (V)
FREQINIT	QUANT	3.00000E+005	Initial Freq. (Hz)
FREQFINAL	QUANT	1.00000E+000	Final Freq. (Hz)
PTSPERDEC	QUANT	1.00000E+001	Points/decade
VAC	QUANT	5.00000E+001	AC Voltage (mV rms)
AREA	QUANT	1.00000E+000	Sample Area (cm^2)
SPEED	SELECTOR	2	Optimize for:
ZGUESS	QUANT	1.00000E+003	Estimated Z (ohms)
EOC	QUANT	0	Open Circuit (V)
SEQUENCER	TOGGLE	TRUE	Run as Sequence
PSTATMODEL	IQUANT	5	Pstat Model
PSTATSECTION	LABEL	REF3000-16137	Pstat Section
PSTATSERIALNO	LABEL	16137	Pstat Serial Number
CTRLMODE	IQUANT	1	Control Mode
IESTAB	IQUANT	0	I/E Stability
CASPEED	IQUANT	1	Control Amp Speed
CONVENTION	IQUANT	1	Current Convention
ICHRANGE	IQUANT	2	Ich Range
ICHRANGEMODE	TOGGLE	F	Ich Auto Range
ICHOFFSETENABLE	TOGGLE	T	Ich Offset Enable
ICHOFFSET	QUANT	0	Ich Offset (V)
ICHFILTER	IQUANT	3	Ich Filter
VCHRANGE	IQUANT	2	Vch Range
VCHRANGEMODE	TOGGLE	F	Vch Auto Range
VCHOFFSETENABLE	TOGGLE	T	Vch Offset Enable
VCHOFFSET	QUANT	0	Vch Offset (V)
VCHFILTER	IQUANT	3	Vch Filter
ACHRANGE	IQUANT	2	Ach Range
ACHOFFSETENABLE	TOGGLE	F	Ach Offset Enable
ACHOFFSET	QUANT	0	Ach Offset (V)
ACHFILTER	IQUANT	3	Ach Filter
IERANGELOWERLIMIT	IQUANT	2	I/E Range Lower Limit
IERANGEMODE	TOGGLE	F	I/E AutoRange
IERANGE	IQUANT	11	I/E Range
POSFEEDENABLE	TOGGLE	F	Positive Feedback IR Comp
POSFEEDRESISTANCE	QUANT	0	Positive Feedback Resistance (ohm)
ACHSELECT	IQUANT	0	Ach Select
CABLEID	IQUANT	13	Cable ID
DCCALDATE	LABEL	7/31/2020	DC Calibration Date
ACCALDATE	LABEL	7/31/2020	AC Calibration Date
THERMOSELECT	IQUANT	1	Thermo Select
FRAMEWORKVERSION	QUANT	6.33	Framework Version
INSTRUMENTVERSION	LABEL	3.50	Instrument Version
COMPLIANCEVOLTAGE	IQUANT	0	Compliance Voltage
ZCURVE	TABLE
	Pt	Time	Freq	Zreal	Zimag	Zsig	Zmod	Zphz	Idc	Vdc	IERange
	#	s	Hz	ohm	ohm	V	ohm	°	A	V	#
	0	7	300046.9	123.4787	-6.25805	1	123.6372	-2.901338	-7.94817E-005	0.0019115	9
	1	10	238359.4	124.3431	-7.907764	1	124.5943	-3.638899	-6.971671E-005	0.0028291	9
	2	13	189328.1	125.6816	-9.239231	1	126.0207	-4.204422	-5.689325E-005	0.0009034	9
	3	16	150421.9	126.9894	-11.65912	1	127.5235	-5.24572	-1.187302E-005	0.0011704	9
	4	19	119484.4	128.3051	-13.15676	1	128.9779	-5.854803	2.802132E-006	-0.0012381	9
	5	21	94921.88	129.8927	-14.99056	1	130.7548	-6.583228	-2.107208E-005	0.0007467	9
	6	24	75421.88	131.6629	-17.32094	1	132.7973	-7.494519	1.353136E-005	-0.0007287	9
	7	27	59859.37	133.7397	-19.95291	1	135.2199	-8.485494	1.474794E-005	-0.0007369	9
	8	29	47578.12	136.0083	-22.70762	1	137.8909	-9.478544	-1.474524E-005	0.0001453	9
	9	32	37828.12	138.7798	-25.844	1	141.1657	-10.54896	-2.102556E-005	0.0009753	9
	10	34	30046.88	141.1781	-29.23566	1	144.1734	-11.69964	2.39832E-006	0.0004719	9
	11	37	23859.38	143.8359	-33.30933	1	147.6424	-13.03864	-2.046724E-005	0.0006706	9
	12	39	18984.38	146.6079	-38.22828	1	151.51	-14.61455	-1.956005E-005	0.0008851	9
	13	41	15046.87	149.4272	-44.16456	1	155.8172	-16.46552	-1.078701E-005	0.0007515	9
	14	44	11953.13	152.1535	-51.37575	1	160.5931	-18.65763	-1.847436E-005	0.000847	9
	15	46	9515.62	154.9823	-60.25638	1	166.2839	-21.24585	6.70547E-006	-0.0005719	9
	16	48	7546.875	157.7491	-71.59804	1	173.237	-24.41201	-1.422283E-005	0.0001733	9
	17	50	5928.309	160.8505	-86.65661	1	182.7081	-28.31313	1.874895E-005	-7.677427E-005	9
	18	53	4733.456	164.2615	-103.951	1	194.3904	-32.32721	-1.555233E-005	0.0001911	9
	19	55	3796.875	167.4699	-125.7037	1	209.3982	-36.89206	2.249122E-005	-0.0006876	9
	20	57	2987.132	171.8719	-154.4656	1	231.0835	-41.94682	6.960449E-006	-0.0005547	9
	21	60	2390.625	176.6539	-188.1248	1	258.065	-46.80115	-1.377732E-005	0.0009253	9
	22	62	1884.191	183.2828	-232.3321	1	295.9236	-51.7307	-1.700346E-005	0.0003864	9
	23	64	1516.544	189.0141	-283.808	1	340.9887	-56.33667	-2.030713E-005	0.0004934	9
	24	67	1193.986	198.7026	-352.5313	1	404.674	-60.59242	-2.211109E-005	0.0006944	9
	25	69	946.5144	207.8135	-433.9687	1	481.1604	-64.41175	1.034069E-006	0.0019491	8
	26	72	751.7689	221.3262	-536.9125	1	580.7411	-67.59755	3.471762E-006	0.0011165	8
	27	74	597.4265	236.6141	-661.7173	1	702.749	-70.32418	6.470536E-006	-0.0001464	8
	28	76	477.4305	256.0067	-812.061	1	851.459	-72.50225	2.263674E-007	0.0006437	8
	29	78	376.6741	280.7711	-1009.796	1	1048.103	-74.46156	2.216465E-007	0.0006489	8
	30	81	298.2954	310.7951	-1251.605	1	1289.616	-76.05454	2.111358E-007	0.0006487	8
	31	83	237.7717	346.6804	-1542.166	1	1580.653	-77.33047	2.069307E-007	0.0006499	8
	32	86	189.0121	391.1998	-1905.309	1	1945.055	-78.39723	2.323845E-007	0.0006455	8
	33	88	150.2404	446.1689	-2354.414	1	2396.316	-79.26951	2.202332E-007	0.0006384	8
	34	90	119.1737	514.7697	-2916.299	1	2961.383	-79.98957	2.170949E-007	0.0006527	8
	35	93	95.0169	596.9243	-3594.595	1	3643.821	-80.57141	2.267923E-007	0.000639	8
	36	95	75.60484	701.9748	-4449.254	1	4504.291	-81.03415	1.507589E-008	0.0006225	7
	37	98	54.50582	893.681	-6022.688	1	6088.631	-81.55971	1.393974E-008	0.0006145	7
	38	100	45.95588	1019.573	-7050.159	1	7123.501	-81.7711	1.889853E-008	0.0006237	7
	39	103	37.20238	1205.874	-8567.858	1	8652.302	-81.98859	1.972225E-008	0.000608	7
	40	105	30.04808	1442.226	-10444.47	1	10543.57	-82.13802	1.529543E-008	0.0006169	7
	41	108	23.91582	1754.792	-12902.83	1	13021.6	-82.25526	1.440169E-008	0.0006081	7
	42	110	18.60119	2175.931	-16266.96	1	16411.85	-82.38112	1.410794E-008	0.0006332	7
	43	112	15.02404	2634.225	-19805.24	1	19979.65	-82.42376	1.773827E-008	0.0006201	7
	44	115	12.01923	3226.951	-24323.83	1	24536.95	-82.44292	1.802864E-008	0.0006267	7
	45	117	9.450605	4023.804	-30350.81	1	30616.38	-82.44797	1.546232E-008	0.0006666	7
	46	120	7.512019	4972.411	-37501.02	1	37829.24	-82.44698	1.952108E-008	0.0006044	7
	47	122	5.978954	6168.43	-46295.98	1	46705.11	-82.41067	1.8757E-009	0.0006593	6
	48	125	4.734848	7683.907	-57438.07	1	57949.76	-82.38037	2.978552E-009	0.0006708	6
	49	129	3.75601	9594.6	-71084.18	1	71728.77	-82.31295	2.080633E-009	0.0006632	6
	50	134	3.004808	11967.37	-87264.24	1	88081.02	-82.1912	2.654388E-009	0.0006268	6
	51	141	2.372217	15131	-108349	1	109400.4	-82.05003	2.360533E-009	0.0006319	6
	52	145	1.878005	19466.22	-134342.5	1	135745.5	-81.75523	1.950591E-009	0.0006781	6
	53	149	1.512097	24500.54	-163679.8	1	165503.3	-81.48684	2.006432E-009	0.0005599	6
	54	155	1.201923	31216.04	-201724.8	1	204125.8	-81.20349	1.879048E-009	0.0006868	6
	55	161	0.956633	39651.55	-247880.9	1	251032.2	-80.91183	1.695846E-009	2.640583E-005	6
