EXPLAIN
TAG	EISPOT
TITLE	LABEL	Potentiostatic EIS	Test Identifier
DATE	LABEL	9/15/2020	Date
TIME	LABEL	4:13:21	Time
NOTES	NOTES	1	Notes...
	
PSTAT	PSTAT	REF3000-16137	Potentiostat
VDC	POTEN	0.00000E+000	T	DC Voltage (V)
FREQINIT	QUANT	3.00000E+005	Initial Freq. (Hz)
FREQFINAL	QUANT	1.00000E+000	Final Freq. (Hz)
PTSPERDEC	QUANT	1.00000E+001	Points/decade
VAC	QUANT	5.00000E+001	AC Voltage (mV rms)
AREA	QUANT	1.00000E+000	Sample Area (cm^2)
SPEED	SELECTOR	2	Optimize for:
ZGUESS	QUANT	1.00000E+003	Estimated Z (ohms)
EOC	QUANT	0	Open Circuit (V)
SEQUENCER	TOGGLE	TRUE	Run as Sequence
PSTATMODEL	IQUANT	5	Pstat Model
PSTATSECTION	LABEL	REF3000-16137	Pstat Section
PSTATSERIALNO	LABEL	16137	Pstat Serial Number
CTRLMODE	IQUANT	1	Control Mode
IESTAB	IQUANT	0	I/E Stability
CASPEED	IQUANT	1	Control Amp Speed
CONVENTION	IQUANT	1	Current Convention
ICHRANGE	IQUANT	2	Ich Range
ICHRANGEMODE	TOGGLE	F	Ich Auto Range
ICHOFFSETENABLE	TOGGLE	T	Ich Offset Enable
ICHOFFSET	QUANT	0	Ich Offset (V)
ICHFILTER	IQUANT	3	Ich Filter
VCHRANGE	IQUANT	2	Vch Range
VCHRANGEMODE	TOGGLE	F	Vch Auto Range
VCHOFFSETENABLE	TOGGLE	T	Vch Offset Enable
VCHOFFSET	QUANT	0	Vch Offset (V)
VCHFILTER	IQUANT	3	Vch Filter
ACHRANGE	IQUANT	2	Ach Range
ACHOFFSETENABLE	TOGGLE	F	Ach Offset Enable
ACHOFFSET	QUANT	0	Ach Offset (V)
ACHFILTER	IQUANT	3	Ach Filter
IERANGELOWERLIMIT	IQUANT	2	I/E Range Lower Limit
IERANGEMODE	TOGGLE	F	I/E AutoRange
IERANGE	IQUANT	11	I/E Range
POSFEEDENABLE	TOGGLE	F	Positive Feedback IR Comp
POSFEEDRESISTANCE	QUANT	0	Positive Feedback Resistance (ohm)
ACHSELECT	IQUANT	0	Ach Select
CABLEID	IQUANT	13	Cable ID
DCCALDATE	LABEL	7/31/2020	DC Calibration Date
ACCALDATE	LABEL	7/31/2020	AC Calibration Date
THERMOSELECT	IQUANT	1	Thermo Select
FRAMEWORKVERSION	QUANT	6.33	Framework Version
INSTRUMENTVERSION	LABEL	3.50	Instrument Version
COMPLIANCEVOLTAGE	IQUANT	0	Compliance Voltage
ZCURVE	TABLE
	Pt	Time	Freq	Zreal	Zimag	Zsig	Zmod	Zphz	Idc	Vdc	IERange
	#	s	Hz	ohm	ohm	V	ohm	°	A	V	#
	0	15	300046.9	424.6205	-43.13811	1	426.8061	-5.800899	-2.031275E-005	0.0012726	9
	1	20	238359.4	428.4337	-39.47253	1	430.2482	-5.263924	-9.11446E-005	0.0021401	9
	2	32	189328.1	430.6736	-39.52387	1	432.4834	-5.243473	8.106665E-005	-0.0031735	9
	3	41	150421.9	436.0775	-38.99125	1	437.8172	-5.109434	-8.655938E-005	0.0022626	9
	4	47	119484.4	440.2067	-38.26973	1	441.8671	-4.968563	8.203272E-005	-0.002407	9
	5	52	94921.88	443.0859	-40.97156	1	444.9762	-5.283041	2.019012E-005	-1.06735E-005	9
	6	55	75421.88	447.6933	-32.89031	1	448.8998	-4.201753	-2.501123E-006	-0.0020052	8
	7	57	59859.37	451.6648	-38.8622	1	453.3336	-4.917739	-1.079625E-005	0.0015951	8
	8	60	47578.12	456.7458	-44.54	1	458.9123	-5.569643	-5.778229E-006	-0.0009595	8
	9	63	37828.12	462.3636	-52.47606	1	465.332	-6.47509	7.475274E-006	-0.0045769	8
	10	65	30046.88	468.3492	-59.73713	1	472.1435	-7.26873	-2.422724E-006	-0.001969	8
	11	68	23859.38	475.2127	-68.93184	1	480.1862	-8.253456	1.570245E-005	-0.0033441	8
	12	70	18984.38	483.763	-78.18462	1	490.0403	-9.180622	-1.294665E-005	0.0028522	8
	13	72	15046.87	492.569	-87.92617	1	500.3551	-10.121	-5.807835E-007	-0.0022404	8
	14	75	11953.13	503.168	-98.78	1	512.7724	-11.10683	-9.229124E-006	0.0063169	8
	15	77	9515.62	512.3068	-113.2356	1	524.6719	-12.46374	1.437E-005	-0.0050288	8
	16	79	7546.875	521.5093	-128.0363	1	536.9965	-13.79392	-9.030164E-006	0.0062116	8
	17	82	5928.309	533.1511	-148.2112	1	553.3684	-15.53546	1.551885E-005	-0.0031559	8
	18	84	4733.456	544.2681	-169.9181	1	570.1754	-17.33813	1.20694E-005	-0.000509	8
	19	86	3796.875	553.8393	-198.3111	1	588.2731	-19.70073	-1.273552E-005	0.0026852	8
	20	89	2987.132	564.4421	-236.6988	1	612.0631	-22.75074	1.524134E-005	-0.0030842	8
	21	91	2390.625	574.2598	-277.3353	1	637.7219	-25.77794	-1.44221E-005	0.0059028	8
	22	93	1884.191	584.7612	-336.4897	1	674.6636	-29.91746	-1.322168E-005	0.0028882	8
	23	96	1516.544	597.4753	-404.0063	1	721.2474	-34.06612	-7.688022E-006	3.37843E-005	8
	24	98	1193.986	610.4795	-494.8249	1	785.8351	-39.02654	1.453768E-005	-0.0021713	8
	25	101	946.5144	624.4271	-609.3528	1	872.4792	-44.3	-1.376711E-005	0.0038501	8
	26	103	751.7689	643.6725	-745.2014	1	984.703	-49.18098	1.161497E-005	-0.0050423	8
	27	106	597.4265	667.7813	-921.0614	1	1137.667	-54.05741	4.629813E-007	0.0040801	8
	28	109	477.4305	694.2266	-1124.612	1	1321.629	-58.31284	-9.274613E-008	0.000652	8
	29	111	376.6741	728.2389	-1396.52	1	1574.992	-62.45945	-6.208906E-008	0.000635	8
	30	113	298.2954	769.3309	-1729.675	1	1893.052	-66.02129	-6.668977E-008	0.0006381	8
	31	115	237.7717	818.3988	-2130.858	1	2282.615	-68.98971	-8.323651E-008	0.0006392	8
	32	118	189.0121	879.2876	-2632.521	1	2775.485	-71.53018	-6.022917E-008	0.0006378	8
	33	120	150.2404	954.519	-3254.348	1	3391.443	-73.65328	-9.345659E-008	0.0006576	8
	34	123	119.1737	1048.702	-4030.42	1	4164.621	-75.41522	-5.856854E-008	0.0006374	8
	35	125	95.0169	1166.305	-4979.891	1	5114.644	-76.81874	-2.046488E-008	0.0006186	7
	36	128	75.60484	1308.656	-6151.819	1	6289.472	-77.99067	-2.845244E-008	0.000673	7
	37	130	54.50582	1572.928	-8325.449	1	8472.733	-79.30121	-2.579705E-008	0.0006295	7
	38	133	45.95588	1749.906	-9748.34	1	9904.16	-79.82333	-1.879964E-008	0.0006154	7
	39	135	37.20238	2006.838	-11848.44	1	12017.2	-80.38673	-2.485152E-008	0.0006296	7
	40	137	30.04808	2328.197	-14431.17	1	14617.77	-80.83537	-2.451395E-008	0.000626	7
	41	140	23.91582	2751.936	-17822.71	1	18033.92	-81.2225	-2.407788E-008	0.000622	7
	42	142	18.60119	3320.865	-22462.8	1	22706.95	-81.59039	-1.98699E-008	0.0006045	7
	43	145	15.02404	3937.187	-27372.63	1	27654.34	-81.81491	-2.455629E-008	0.0006161	7
	44	147	12.01923	4721.376	-33636.32	1	33966.06	-82.00986	-2.240373E-008	0.0006328	7
	45	149	9.450605	5794.17	-42010.37	1	42408.06	-82.14717	-2.383961E-008	0.0006154	7
	46	152	7.512019	7043.543	-51900.98	1	52376.75	-82.27154	-2.230234E-009	0.0006353	6
	47	155	5.978954	8622.647	-64062.28	1	64639.97	-82.33418	-2.015408E-009	0.0006433	6
	48	158	4.734848	10560.03	-79453.38	1	80152.06	-82.42928	-2.727167E-009	0.0006362	6
	49	161	3.75601	13027	-98313.7	1	99173	-82.45203	-2.504538E-009	0.0007317	6
	50	166	3.004808	15935.19	-120585.6	1	121634	-82.47208	-2.562986E-009	0.000668	6
	51	173	2.372217	20007.21	-149868.3	1	151197.8	-82.39605	-2.707784E-009	0.0006086	6
	52	177	1.878005	24475.2	-185993.4	1	187596.8	-82.50342	-2.592814E-009	0.000715	6
	53	182	1.512097	29904.23	-226483.9	1	228449.6	-82.47836	-2.701293E-009	0.0006185	6
	54	187	1.201923	36726.38	-280785.8	1	283177.5	-82.5481	-2.389252E-009	0.0006853	6
	55	193	0.956633	45599.5	-346787.4	1	349772.5	-82.50909	-2.720051E-009	2.81347E-005	6
