EXPLAIN
TAG	EISPOT
TITLE	LABEL	Potentiostatic EIS	Test Identifier
DATE	LABEL	9/15/2020	Date
TIME	LABEL	0:42:52	Time
NOTES	NOTES	1	Notes...
	
PSTAT	PSTAT	REF3000-16137	Potentiostat
VDC	POTEN	0.00000E+000	T	DC Voltage (V)
FREQINIT	QUANT	3.00000E+005	Initial Freq. (Hz)
FREQFINAL	QUANT	1.00000E+000	Final Freq. (Hz)
PTSPERDEC	QUANT	1.00000E+001	Points/decade
VAC	QUANT	5.00000E+001	AC Voltage (mV rms)
AREA	QUANT	1.00000E+000	Sample Area (cm^2)
SPEED	SELECTOR	2	Optimize for:
ZGUESS	QUANT	1.00000E+003	Estimated Z (ohms)
EOC	QUANT	0	Open Circuit (V)
SEQUENCER	TOGGLE	TRUE	Run as Sequence
PSTATMODEL	IQUANT	5	Pstat Model
PSTATSECTION	LABEL	REF3000-16137	Pstat Section
PSTATSERIALNO	LABEL	16137	Pstat Serial Number
CTRLMODE	IQUANT	1	Control Mode
IESTAB	IQUANT	0	I/E Stability
CASPEED	IQUANT	1	Control Amp Speed
CONVENTION	IQUANT	1	Current Convention
ICHRANGE	IQUANT	2	Ich Range
ICHRANGEMODE	TOGGLE	F	Ich Auto Range
ICHOFFSETENABLE	TOGGLE	T	Ich Offset Enable
ICHOFFSET	QUANT	0	Ich Offset (V)
ICHFILTER	IQUANT	3	Ich Filter
VCHRANGE	IQUANT	2	Vch Range
VCHRANGEMODE	TOGGLE	F	Vch Auto Range
VCHOFFSETENABLE	TOGGLE	T	Vch Offset Enable
VCHOFFSET	QUANT	0	Vch Offset (V)
VCHFILTER	IQUANT	3	Vch Filter
ACHRANGE	IQUANT	2	Ach Range
ACHOFFSETENABLE	TOGGLE	F	Ach Offset Enable
ACHOFFSET	QUANT	0	Ach Offset (V)
ACHFILTER	IQUANT	3	Ach Filter
IERANGELOWERLIMIT	IQUANT	2	I/E Range Lower Limit
IERANGEMODE	TOGGLE	F	I/E AutoRange
IERANGE	IQUANT	11	I/E Range
POSFEEDENABLE	TOGGLE	F	Positive Feedback IR Comp
POSFEEDRESISTANCE	QUANT	0	Positive Feedback Resistance (ohm)
ACHSELECT	IQUANT	0	Ach Select
CABLEID	IQUANT	13	Cable ID
DCCALDATE	LABEL	7/31/2020	DC Calibration Date
ACCALDATE	LABEL	7/31/2020	AC Calibration Date
THERMOSELECT	IQUANT	1	Thermo Select
FRAMEWORKVERSION	QUANT	6.33	Framework Version
INSTRUMENTVERSION	LABEL	3.50	Instrument Version
COMPLIANCEVOLTAGE	IQUANT	0	Compliance Voltage
ZCURVE	TABLE
	Pt	Time	Freq	Zreal	Zimag	Zsig	Zmod	Zphz	Idc	Vdc	IERange
	#	s	Hz	ohm	ohm	V	ohm	°	A	V	#
	0	7	300046.9	47.94505	-1.60653	1	47.97196	-1.919134	3.705888E-006	-0.0014169	9
	1	10	238359.4	48.38372	-2.684553	1	48.45814	-3.175779	5.62375E-005	-0.002371	9
	2	13	189328.1	48.93576	-3.907465	1	49.09152	-4.565317	5.624474E-005	-0.0020254	9
	3	16	150421.9	49.53557	-5.105489	1	49.79798	-5.884533	-3.672901E-007	-0.0009554	9
	4	18	119484.4	50.31186	-6.342073	1	50.71001	-7.184539	2.653924E-006	-0.0007899	9
	5	21	94921.88	51.20668	-7.349023	1	51.73135	-8.167143	1.816952E-005	-0.0002154	9
	6	23	75421.88	52.06404	-8.716819	1	52.78871	-9.50459	-1.292573E-005	0.0005788	9
	7	26	59859.37	52.94636	-10.19773	1	53.91948	-10.90195	-1.398861E-005	0.0003992	9
	8	28	47578.12	53.9077	-11.89383	1	55.2042	-12.44202	2.032845E-005	-0.0005386	9
	9	31	37828.12	54.88443	-13.84189	1	56.60299	-14.15485	-1.607866E-005	0.000428	9
	10	33	30046.88	55.88929	-16.15195	1	58.17645	-16.11924	-1.457935E-005	0.0003877	9
	11	36	23859.38	56.89454	-18.94394	1	59.9655	-18.416	3.544556E-006	0.0002935	9
	12	38	18984.38	57.8959	-22.36797	1	62.06659	-21.12395	1.403269E-005	-2.062672E-005	9
	13	41	15046.87	58.96169	-26.71455	1	64.73135	-24.37448	4.48979E-006	-0.0003512	9
	14	43	11953.13	60.05348	-32.1015	1	68.09499	-28.12667	3.626425E-006	0.0002997	9
	15	45	9515.62	61.2622	-38.79453	1	72.51257	-32.34419	8.883576E-006	-0.0004208	9
	16	48	7546.875	62.65712	-47.21912	1	78.45737	-37.00209	1.767481E-005	-0.0005264	9
	17	50	5928.309	64.33765	-58.27845	1	86.80847	-42.17097	1.837272E-005	-0.0005277	9
	18	52	4733.456	66.24865	-71.0564	1	97.1488	-47.0054	-3.637985E-006	-0.0001068	9
	19	54	3796.875	68.45808	-86.66579	1	110.4421	-51.69448	-1.374568E-005	0.0002492	9
	20	57	2987.132	71.44761	-107.4366	1	129.0248	-56.37527	-1.512533E-005	0.0004286	9
	21	59	2390.625	74.66567	-131.4555	1	151.1804	-60.40376	1.96991E-005	-0.0002445	9
	22	61	1884.191	79.2584	-163.272	1	181.4928	-64.10631	1.999494E-005	-0.0002626	9
	23	64	1516.544	83.8408	-198.7063	1	215.6699	-67.1235	1.971668E-005	-0.0004738	9
	24	66	1193.986	90.81361	-246.6472	1	262.8344	-69.78667	-2.51635E-006	-0.000127	9
	25	68	946.5144	97.664	-305.0139	1	320.2682	-72.24519	1.491666E-005	-0.0005247	9
	26	71	751.7689	108.2119	-376.3327	1	391.5816	-73.95776	-8.865863E-006	0.0000992	9
	27	73	597.4265	119.2496	-462.9849	1	478.0957	-75.55643	4.645607E-006	-0.0003484	8
	28	75	477.4305	133.3616	-568.4655	1	583.8992	-76.79721	4.403426E-007	0.0006546	8
	29	78	376.6741	151.8349	-706.4775	1	722.6093	-77.8706	4.315326E-007	0.0006459	8
	30	80	298.2954	174.512	-875.2059	1	892.4348	-78.72338	4.432165E-007	0.0006515	8
	31	82	237.7717	201.9878	-1077.836	1	1096.599	-79.38581	4.265839E-007	0.0006584	8
	32	85	189.0121	236.8786	-1330.873	1	1351.789	-79.90776	4.380422E-007	0.0006494	8
	33	87	150.2404	280.9341	-1643.224	1	1667.066	-80.29822	4.479696E-007	0.0006492	8
	34	90	119.1737	338.1331	-2033.304	1	2061.228	-80.55827	4.347605E-007	0.0006572	8
	35	92	95.0169	408.4257	-2501.11	1	2534.238	-80.72559	4.452366E-007	0.0006544	8
	36	95	75.60484	499.4698	-3081.677	1	3121.891	-80.79371	4.49644E-007	0.0006568	8
	37	97	54.50582	670.8323	-4149.641	1	4203.515	-80.81699	4.490274E-007	0.0006585	8
	38	100	45.95588	797.0206	-4853.812	1	4918.813	-80.67496	5.281166E-008	0.0006349	7
	39	102	37.20238	972.084	-5874.662	1	5954.544	-80.60437	5.296657E-008	0.0006241	7
	40	104	30.04808	1185.696	-7103.844	1	7202.116	-80.52416	4.289331E-008	0.0006286	7
	41	107	23.91582	1467.691	-8702.103	1	8825.005	-80.42663	3.921967E-008	0.0006235	7
	42	109	18.60119	1848.104	-10922.97	1	11078.21	-80.39683	5.298634E-008	0.0006307	7
	43	111	15.02404	2249.727	-13209.51	1	13399.72	-80.33463	5.528005E-008	0.0006422	7
	44	114	12.01923	2759.661	-16128.41	1	16362.81	-80.29041	4.836378E-008	0.0006253	7
	45	116	9.450605	3455.648	-20012.91	1	20309.06	-80.20329	5.095499E-008	0.0006212	7
	46	119	7.512019	4248.326	-24589.49	1	24953.78	-80.19778	5.205442E-008	0.0006194	7
	47	122	5.978954	5273.745	-30173.85	1	30631.25	-80.08606	5.223835E-008	0.0006249	7
	48	126	4.734848	6638.14	-37240.22	1	37827.22	-79.89307	5.557695E-008	0.0006237	7
	49	129	3.75601	8435.326	-45822.03	1	46591.98	-79.56927	8.29761E-009	0.0006814	6
	50	135	3.004808	10614	-55942.22	1	56940.22	-79.25688	7.410027E-009	0.0007075	6
	51	141	2.372217	13641.07	-69042.38	1	70377.05	-78.82371	6.742184E-009	0.0007591	6
	52	146	1.878005	17828.23	-85023.13	1	86872.2	-78.15741	7.777511E-009	0.0006492	6
	53	150	1.512097	22782.82	-102929.8	1	105421.1	-77.51919	7.308223E-009	0.0007727	6
	54	156	1.201923	30020.64	-125777.7	1	129310.7	-76.57579	7.727973E-009	0.0006504	6
	55	162	0.956633	39490.77	-153050	1	158062.7	-75.53181	5.924095E-009	3.020752E-005	6
