EXPLAIN
TAG	EISPOT
TITLE	LABEL	Potentiostatic EIS	Test Identifier
DATE	LABEL	9/15/2020	Date
TIME	LABEL	3:37:40	Time
NOTES	NOTES	1	Notes...
	
PSTAT	PSTAT	REF3000-16137	Potentiostat
VDC	POTEN	0.00000E+000	T	DC Voltage (V)
FREQINIT	QUANT	3.00000E+005	Initial Freq. (Hz)
FREQFINAL	QUANT	1.00000E+000	Final Freq. (Hz)
PTSPERDEC	QUANT	1.00000E+001	Points/decade
VAC	QUANT	5.00000E+001	AC Voltage (mV rms)
AREA	QUANT	1.00000E+000	Sample Area (cm^2)
SPEED	SELECTOR	2	Optimize for:
ZGUESS	QUANT	1.00000E+003	Estimated Z (ohms)
EOC	QUANT	0	Open Circuit (V)
SEQUENCER	TOGGLE	TRUE	Run as Sequence
PSTATMODEL	IQUANT	5	Pstat Model
PSTATSECTION	LABEL	REF3000-16137	Pstat Section
PSTATSERIALNO	LABEL	16137	Pstat Serial Number
CTRLMODE	IQUANT	1	Control Mode
IESTAB	IQUANT	0	I/E Stability
CASPEED	IQUANT	1	Control Amp Speed
CONVENTION	IQUANT	1	Current Convention
ICHRANGE	IQUANT	2	Ich Range
ICHRANGEMODE	TOGGLE	F	Ich Auto Range
ICHOFFSETENABLE	TOGGLE	T	Ich Offset Enable
ICHOFFSET	QUANT	0	Ich Offset (V)
ICHFILTER	IQUANT	3	Ich Filter
VCHRANGE	IQUANT	2	Vch Range
VCHRANGEMODE	TOGGLE	F	Vch Auto Range
VCHOFFSETENABLE	TOGGLE	T	Vch Offset Enable
VCHOFFSET	QUANT	0	Vch Offset (V)
VCHFILTER	IQUANT	3	Vch Filter
ACHRANGE	IQUANT	2	Ach Range
ACHOFFSETENABLE	TOGGLE	F	Ach Offset Enable
ACHOFFSET	QUANT	0	Ach Offset (V)
ACHFILTER	IQUANT	3	Ach Filter
IERANGELOWERLIMIT	IQUANT	2	I/E Range Lower Limit
IERANGEMODE	TOGGLE	F	I/E AutoRange
IERANGE	IQUANT	11	I/E Range
POSFEEDENABLE	TOGGLE	F	Positive Feedback IR Comp
POSFEEDRESISTANCE	QUANT	0	Positive Feedback Resistance (ohm)
ACHSELECT	IQUANT	0	Ach Select
CABLEID	IQUANT	13	Cable ID
DCCALDATE	LABEL	7/31/2020	DC Calibration Date
ACCALDATE	LABEL	7/31/2020	AC Calibration Date
THERMOSELECT	IQUANT	1	Thermo Select
FRAMEWORKVERSION	QUANT	6.33	Framework Version
INSTRUMENTVERSION	LABEL	3.50	Instrument Version
COMPLIANCEVOLTAGE	IQUANT	0	Compliance Voltage
ZCURVE	TABLE
	Pt	Time	Freq	Zreal	Zimag	Zsig	Zmod	Zphz	Idc	Vdc	IERange
	#	s	Hz	ohm	ohm	V	ohm	°	A	V	#
	0	16	300046.9	232.3667	-16.22799	1	232.9326	-3.994928	1.184524E-005	-0.0019916	9
	1	19	238359.4	233.5183	-16.80369	1	234.1221	-4.11584	1.904613E-005	-0.0005569	9
	2	23	189328.1	235.3797	-18.59302	1	236.1129	-4.516507	-3.103164E-005	-0.0006969	9
	3	25	150421.9	237.0028	-22.23194	1	238.0432	-5.358923	-5.618673E-005	0.0006575	10
	4	33	119484.4	239.457	-23.69345	1	240.6263	-5.650828	-1.460985E-005	0.0007604	10
	5	40	94921.88	241.9597	-23.84958	1	243.1323	-5.629369	-1.595952E-005	0.0010021	9
	6	44	75421.88	244.8336	-26.96638	1	246.3141	-6.285318	-9.259598E-006	-0.0001151	9
	7	47	59859.37	247.9557	-30.54935	1	249.8305	-7.023723	8.713198E-006	-0.0007386	9
	8	51	47578.12	251.6504	-34.35224	1	253.9842	-7.773275	-2.591626E-006	-0.0003669	9
	9	54	37828.12	255.1735	-38.75165	1	258.0992	-8.635181	2.400707E-005	-0.0004886	9
	10	58	30046.88	260.2767	-43.53947	1	263.8933	-9.496593	-8.79409E-006	0.0009008	9
	11	62	23859.38	265.1135	-49.18012	1	269.6365	-10.50924	-1.550176E-005	0.0001208	9
	12	65	18984.38	270.2557	-55.46822	1	275.8892	-11.59851	-1.287895E-005	1.143925E-005	9
	13	67	15046.87	275.7208	-63.27763	1	282.8887	-12.9255	7.677441E-006	-0.0006561	9
	14	69	11953.13	280.4916	-71.35542	1	289.4256	-14.27295	-9.307133E-006	-0.0001029	9
	15	72	9515.62	286.3179	-82.29425	1	297.9099	-16.03585	-2.381032E-005	0.0008393	9
	16	74	7546.875	292.2408	-95.9011	1	307.5739	-18.16766	2.736867E-005	-0.0006816	9
	17	76	5928.309	297.6207	-112.471	1	318.1631	-20.7016	-2.191413E-005	0.0009865	9
	18	79	4733.456	302.2947	-133.1685	1	330.327	-23.77471	2.235842E-005	-0.0008705	9
	19	81	3796.875	307.7672	-156.6437	1	345.3374	-26.97464	-1.827115E-005	0.0003714	9
	20	83	2987.132	314.8225	-189.9169	1	367.6706	-31.10052	2.243484E-005	-0.0008408	9
	21	86	2390.625	320.8243	-230.2487	1	394.8958	-35.66619	1.087502E-005	0.0002568	9
	22	88	1884.191	327.4498	-282.5482	1	432.5007	-40.79008	-2.700842E-006	0.0038497	8
	23	90	1516.544	336.0172	-340.5943	1	478.4475	-45.38759	-5.49311E-006	0.0001936	8
	24	93	1193.986	347.602	-421.8466	1	546.6093	-50.51144	1.053371E-005	-0.0035646	8
	25	95	946.5144	359.4977	-517.5092	1	630.1225	-55.21348	-1.038742E-005	0.0039373	8
	26	97	751.7689	374.4314	-640.4449	1	741.8682	-59.68763	5.328679E-006	-0.003022	8
	27	100	597.4265	394.9433	-790.6415	1	883.7953	-63.45683	5.609676E-006	-0.0032065	8
	28	102	477.4305	416.1399	-970.724	1	1056.162	-66.79567	1.221031E-008	0.0006799	8
	29	104	376.6741	445.3027	-1207.051	1	1286.572	-69.75008	3.106326E-008	0.0006493	8
	30	107	298.2954	480.8009	-1496.409	1	1571.754	-72.18763	5.370027E-008	0.0006382	8
	31	109	237.7717	523.4072	-1844.335	1	1917.166	-74.15649	2.291051E-008	0.0006415	8
	32	112	189.0121	576.6014	-2279.5	1	2351.295	-75.80474	3.715555E-008	0.0006476	8
	33	114	150.2404	642.2156	-2816.741	1	2889.026	-77.15614	-3.596284E-009	0.0006956	8
	34	116	119.1737	725.1916	-3489.74	1	3564.293	-78.26063	6.367069E-008	0.0006358	8
	35	119	95.0169	827.1118	-4310.555	1	4389.191	-79.13808	-2.660532E-009	0.0006066	7
	36	121	75.60484	950.802	-5323.433	1	5407.676	-79.87336	-7.436065E-009	0.0006211	7
	37	124	54.50582	1181.493	-7199.996	1	7296.291	-80.68103	-7.194833E-009	0.000619	7
	38	126	45.95588	1330.886	-8432.446	1	8536.826	-81.03104	-2.124045E-009	0.0006227	7
	39	129	37.20238	1551.729	-10246.67	1	10363.5	-81.38871	-6.976899E-009	0.0006289	7
	40	131	30.04808	1827.099	-12490.05	1	12622.98	-81.67755	-6.080315E-009	0.0006254	7
	41	133	23.91582	2185.021	-15405.24	1	15559.42	-81.92723	-6.697532E-009	0.0006148	7
	42	136	18.60119	2681.814	-19446.68	1	19630.73	-82.14809	-4.646683E-009	0.0006251	7
	43	138	15.02404	3221.146	-23694.56	1	23912.51	-82.25841	-1.198645E-009	0.0006246	7
	44	140	12.01923	3902.922	-29120.83	1	29381.21	-82.36642	-7.721682E-009	0.0006199	7
	45	143	9.450605	4827.864	-36344.7	1	36663.95	-82.43339	-2.109124E-009	0.0006188	7
	46	145	7.512019	5926.074	-44926.39	1	45315.55	-82.4857	2.717239E-010	0.0006638	6
	47	148	5.978954	7293.191	-55428.24	1	55906	-82.50414	-4.32292E-010	0.0006601	6
	48	151	4.734848	9015.806	-68702.33	1	69291.38	-82.5238	3.667266E-010	0.000686	6
	49	154	3.75601	11153.19	-85070.66	1	85798.66	-82.53084	-3.793822E-010	0.0006966	6
	50	160	3.004808	13694.22	-104394.5	1	105288.9	-82.52675	2.7671E-010	0.000678	6
	51	166	2.372217	17236.06	-129857.8	1	130996.7	-82.43931	-2.031119E-010	0.0007258	6
	52	171	1.878005	21349.6	-161338.1	1	162744.6	-82.46194	-1.026488E-009	0.0006921	6
	53	175	1.512097	26379.65	-196456.6	1	198219.8	-82.35223	-1.401333E-010	0.0006803	6
	54	181	1.201923	33206.9	-243489.7	1	245743.6	-82.23396	-5.169534E-010	0.0006228	6
	55	187	0.956633	42106.57	-300325.2	1	303262.6	-82.01897	-6.652695E-010	2.728632E-005	6
