EXPLAIN
TAG	EISPOT
TITLE	LABEL	Potentiostatic EIS	Test Identifier
DATE	LABEL	9/15/2020	Date
TIME	LABEL	6:08:05	Time
NOTES	NOTES	1	Notes...
	
PSTAT	PSTAT	REF3000-16137	Potentiostat
VDC	POTEN	0.00000E+000	T	DC Voltage (V)
FREQINIT	QUANT	3.00000E+005	Initial Freq. (Hz)
FREQFINAL	QUANT	1.00000E+000	Final Freq. (Hz)
PTSPERDEC	QUANT	1.00000E+001	Points/decade
VAC	QUANT	5.00000E+001	AC Voltage (mV rms)
AREA	QUANT	1.00000E+000	Sample Area (cm^2)
SPEED	SELECTOR	2	Optimize for:
ZGUESS	QUANT	1.00000E+003	Estimated Z (ohms)
EOC	QUANT	0	Open Circuit (V)
SEQUENCER	TOGGLE	TRUE	Run as Sequence
PSTATMODEL	IQUANT	5	Pstat Model
PSTATSECTION	LABEL	REF3000-16137	Pstat Section
PSTATSERIALNO	LABEL	16137	Pstat Serial Number
CTRLMODE	IQUANT	1	Control Mode
IESTAB	IQUANT	0	I/E Stability
CASPEED	IQUANT	1	Control Amp Speed
CONVENTION	IQUANT	1	Current Convention
ICHRANGE	IQUANT	2	Ich Range
ICHRANGEMODE	TOGGLE	F	Ich Auto Range
ICHOFFSETENABLE	TOGGLE	T	Ich Offset Enable
ICHOFFSET	QUANT	0	Ich Offset (V)
ICHFILTER	IQUANT	3	Ich Filter
VCHRANGE	IQUANT	2	Vch Range
VCHRANGEMODE	TOGGLE	F	Vch Auto Range
VCHOFFSETENABLE	TOGGLE	T	Vch Offset Enable
VCHOFFSET	QUANT	0	Vch Offset (V)
VCHFILTER	IQUANT	3	Vch Filter
ACHRANGE	IQUANT	2	Ach Range
ACHOFFSETENABLE	TOGGLE	F	Ach Offset Enable
ACHOFFSET	QUANT	0	Ach Offset (V)
ACHFILTER	IQUANT	3	Ach Filter
IERANGELOWERLIMIT	IQUANT	2	I/E Range Lower Limit
IERANGEMODE	TOGGLE	F	I/E AutoRange
IERANGE	IQUANT	11	I/E Range
POSFEEDENABLE	TOGGLE	F	Positive Feedback IR Comp
POSFEEDRESISTANCE	QUANT	0	Positive Feedback Resistance (ohm)
ACHSELECT	IQUANT	0	Ach Select
CABLEID	IQUANT	13	Cable ID
DCCALDATE	LABEL	7/31/2020	DC Calibration Date
ACCALDATE	LABEL	7/31/2020	AC Calibration Date
THERMOSELECT	IQUANT	1	Thermo Select
FRAMEWORKVERSION	QUANT	6.33	Framework Version
INSTRUMENTVERSION	LABEL	3.50	Instrument Version
COMPLIANCEVOLTAGE	IQUANT	0	Compliance Voltage
ZCURVE	TABLE
	Pt	Time	Freq	Zreal	Zimag	Zsig	Zmod	Zphz	Idc	Vdc	IERange
	#	s	Hz	ohm	ohm	V	ohm	°	A	V	#
	0	15	300046.9	1334.635	-4473.625	1	4668.466	-73.38837	-0.0000978	0.0041904	9
	1	30	238359.4	2003.177	-5313.175	1	5678.252	-69.34251	7.652579E-005	-0.0016565	9
	2	47	189328.1	2860.138	-6143.457	1	6776.61	-65.03527	-8.58805E-007	0.0017192	9
	3	60	150421.9	4017.48	-7037.81	1	8103.759	-60.28045	2.000058E-005	-0.0020607	9
	4	67	119484.4	5480.924	-7902.9	1	9617.5	-55.2574	-2.048602E-005	0.0015839	9
	5	77	94921.88	7144.671	-8112.146	1	10809.87	-48.62842	1.039539E-005	-0.0007971	9
	6	86	75421.88	9223.802	-8110.121	1	12282.21	-41.32388	2.566602E-005	-0.008804	8
	7	94	59859.37	11176.06	-7771.262	1	13612.38	-34.81278	2.562161E-005	-0.0050289	8
	8	103	47578.12	12653.08	-7321.749	1	14618.77	-30.05597	-2.350386E-005	0.0052012	8
	9	111	37828.12	13901.68	-6679.512	1	15423.11	-25.66347	2.208507E-005	-0.0094953	8
	10	120	30046.88	15065.87	-5794.642	1	16141.82	-21.03776	-1.794679E-006	0.0075649	8
	11	128	23859.38	16584.53	-4158.22	1	17097.87	-14.07554	4.612308E-006	0.0005482	7
	12	132	18984.38	16806.33	-3488.222	1	17164.51	-11.72549	-4.924104E-006	0.0024661	7
	13	136	15046.87	17193.77	-3019.186	1	17456.84	-9.95947	-2.002277E-006	0.0217469	7
	14	140	11953.13	17399.84	-2540.726	1	17584.36	-8.307624	-4.926032E-006	0.0024098	7
	15	145	9515.62	17627.36	-2341.234	1	17782.16	-7.565641	-5.395099E-006	0.0258824	7
	16	149	7546.875	17861.13	-2114.723	1	17985.88	-6.752277	-3.874758E-006	0.0250145	7
	17	153	5928.309	18242.63	-1987.638	1	18350.6	-6.218171	2.415029E-006	0.0092097	7
	18	157	4733.456	18130.29	-2108.741	1	18252.52	-6.634285	6.756718E-006	-0.0259004	7
	19	162	3796.875	18519.27	-1844.446	1	18610.89	-5.687677	6.290524E-006	-0.0090072	7
	20	166	2987.132	18775.6	-2006.462	1	18882.51	-6.099786	-7.03682E-006	0.0221535	7
	21	170	2390.625	18945.49	-2099.445	1	19061.46	-6.323435	4.557034E-006	0.0004228	7
	22	174	1884.191	19184.53	-1974.167	1	19285.84	-5.875292	7.451702E-006	-0.0230548	7
	23	179	1516.544	19420.88	-2489.588	1	19579.81	-7.304978	-3.871105E-006	0.0249883	7
	24	183	1193.986	19520.11	-2795.952	1	19719.33	-8.151288	1.556379E-006	-0.0199761	7
	25	187	946.5144	20189.92	-2806.014	1	20383.98	-7.912336	7.374601E-006	-0.0227644	7
	26	190	751.7689	20544.61	-3337.58	1	20813.95	-9.227388	3.608468E-006	-0.0237986	7
	27	193	597.4265	20712.46	-3727.676	1	21045.23	-10.20246	1.549955E-006	-0.0198656	7
	28	195	477.4305	21283.24	-4075.292	1	21669.89	-10.83973	-7.912816E-008	0.0006387	7
	29	198	376.6741	21766.45	-4585.577	1	22244.23	-11.89664	-7.917071E-008	0.000662	7
	30	200	298.2954	22254.01	-5149.597	1	22842.05	-13.02897	-7.958392E-008	0.0006195	7
	31	202	237.7717	22732.08	-5813.777	1	23463.75	-14.34601	-7.897088E-008	0.000661	7
	32	205	189.0121	23214.24	-6621.775	1	24140.19	-15.9206	-6.883461E-008	0.0005917	7
	33	207	150.2404	23685.59	-7623.449	1	24882.2	-17.8413	-7.763082E-008	0.0006391	7
	34	210	119.1737	24140.62	-8913.969	1	25733.8	-20.26676	-7.075991E-008	0.0006176	7
	35	212	95.0169	24613.63	-10448.75	1	26739.62	-23.00174	-7.894395E-008	0.0006634	7
	36	214	75.60484	25081.25	-12431.91	1	27993.24	-26.36603	-6.927878E-008	0.0005856	7
	37	217	54.50582	25773.51	-16198.01	1	30440.91	-32.14834	-7.130585E-008	0.0006107	7
	38	220	45.95588	26185.21	-18743.08	1	32201.99	-35.59466	-7.017051E-008	0.0005707	7
	39	222	37.20238	26745.27	-22511.07	1	34957.94	-40.08678	-7.66993E-008	0.0006207	7
	40	224	30.04808	27396.41	-27188.37	1	38597.54	-44.78163	-7.809811E-008	0.0006469	7
	41	227	23.91582	28279.95	-33400.34	1	43764.57	-49.74553	-7.924063E-009	0.0006298	6
	42	229	18.60119	29331.97	-41963.93	1	51198.98	-55.0472	-7.983251E-009	0.0006282	6
	43	231	15.02404	30470.63	-51013.79	1	59421.09	-59.15005	-8.533245E-009	0.000741	6
	44	234	12.01923	31885.01	-62585.36	1	70239.45	-63.00277	-7.992103E-009	0.0006447	6
	45	236	9.450605	33764.99	-78101.88	1	85088.05	-66.62022	-8.755528E-009	0.0007013	6
	46	239	7.512019	35967.61	-96590	1	103069.4	-69.57598	-7.794892E-009	0.0007181	6
	47	242	5.978954	38749.54	-119296.5	1	125432	-72.00532	-7.620152E-009	0.0006486	6
	48	246	4.734848	42199.21	-148192.1	1	154083.3	-74.10515	-8.117588E-009	0.0006948	6
	49	249	3.75601	46513.62	-183630	1	189429.4	-75.7859	-7.545951E-009	0.0006003	6
	50	255	3.004808	51659.59	-225679.8	1	231516.9	-77.10675	-7.449213E-009	0.0006376	6
	51	261	2.372217	58827.94	-280696	1	286794.3	-78.16334	-8.114863E-009	0.0006876	6
	52	265	1.878005	67242.31	-349561.2	1	355969.9	-79.11147	-8.314723E-009	0.0006484	6
	53	270	1.512097	76511.93	-426275.1	1	433087.2	-79.82436	-8.040708E-009	0.0006314	6
	54	275	1.201923	90314.38	-529304	1	536953.8	-80.31696	-9.69823E-010	0.0006215	5
	55	282	0.956633	106647.9	-653518.5	1	662163.3	-80.73158	-9.693407E-010	3.35635E-005	5
