EXPLAIN
TAG	EISPOT
TITLE	LABEL	Potentiostatic EIS	Test Identifier
DATE	LABEL	9/15/2020	Date
TIME	LABEL	8:55:37	Time
NOTES	NOTES	1	Notes...
	
PSTAT	PSTAT	REF3000-16137	Potentiostat
VDC	POTEN	0.00000E+000	T	DC Voltage (V)
FREQINIT	QUANT	3.00000E+005	Initial Freq. (Hz)
FREQFINAL	QUANT	1.00000E+000	Final Freq. (Hz)
PTSPERDEC	QUANT	1.00000E+001	Points/decade
VAC	QUANT	5.00000E+001	AC Voltage (mV rms)
AREA	QUANT	1.00000E+000	Sample Area (cm^2)
SPEED	SELECTOR	2	Optimize for:
ZGUESS	QUANT	1.00000E+003	Estimated Z (ohms)
EOC	QUANT	0	Open Circuit (V)
SEQUENCER	TOGGLE	TRUE	Run as Sequence
PSTATMODEL	IQUANT	5	Pstat Model
PSTATSECTION	LABEL	REF3000-16137	Pstat Section
PSTATSERIALNO	LABEL	16137	Pstat Serial Number
CTRLMODE	IQUANT	1	Control Mode
IESTAB	IQUANT	0	I/E Stability
CASPEED	IQUANT	1	Control Amp Speed
CONVENTION	IQUANT	1	Current Convention
ICHRANGE	IQUANT	2	Ich Range
ICHRANGEMODE	TOGGLE	F	Ich Auto Range
ICHOFFSETENABLE	TOGGLE	T	Ich Offset Enable
ICHOFFSET	QUANT	0	Ich Offset (V)
ICHFILTER	IQUANT	3	Ich Filter
VCHRANGE	IQUANT	2	Vch Range
VCHRANGEMODE	TOGGLE	F	Vch Auto Range
VCHOFFSETENABLE	TOGGLE	T	Vch Offset Enable
VCHOFFSET	QUANT	0	Vch Offset (V)
VCHFILTER	IQUANT	3	Vch Filter
ACHRANGE	IQUANT	2	Ach Range
ACHOFFSETENABLE	TOGGLE	F	Ach Offset Enable
ACHOFFSET	QUANT	0	Ach Offset (V)
ACHFILTER	IQUANT	3	Ach Filter
IERANGELOWERLIMIT	IQUANT	2	I/E Range Lower Limit
IERANGEMODE	TOGGLE	F	I/E AutoRange
IERANGE	IQUANT	11	I/E Range
POSFEEDENABLE	TOGGLE	F	Positive Feedback IR Comp
POSFEEDRESISTANCE	QUANT	0	Positive Feedback Resistance (ohm)
ACHSELECT	IQUANT	0	Ach Select
CABLEID	IQUANT	13	Cable ID
DCCALDATE	LABEL	7/31/2020	DC Calibration Date
ACCALDATE	LABEL	7/31/2020	AC Calibration Date
THERMOSELECT	IQUANT	1	Thermo Select
FRAMEWORKVERSION	QUANT	6.33	Framework Version
INSTRUMENTVERSION	LABEL	3.50	Instrument Version
COMPLIANCEVOLTAGE	IQUANT	0	Compliance Voltage
ZCURVE	TABLE
	Pt	Time	Freq	Zreal	Zimag	Zsig	Zmod	Zphz	Idc	Vdc	IERange
	#	s	Hz	ohm	ohm	V	ohm	°	A	V	#
	0	22	300046.9	-86.99323	-4952.645	1	4953.409	-91.00629	-1.840192E-007	0.0015229	9
	1	36	238359.4	194.8561	-6138.016	1	6141.108	-88.18171	1.996919E-005	-0.0004589	9
	2	50	189328.1	197.6465	-7329.535	1	7332.199	-88.45535	1.949357E-005	-0.0021633	9
	3	58	150421.9	311.4435	-9441.635	1	9446.771	-88.11072	-2.105102E-005	0.0012573	9
	4	65	119484.4	525.1927	-11933.91	1	11945.46	-87.48013	6.88177E-005	-0.0132988	8
	5	72	94921.88	658.1788	-14680	1	14694.75	-87.43286	2.616064E-005	-0.0088733	8
	6	81	75421.88	784.5679	-18734.47	1	18750.89	-87.60195	1.7172E-005	0.0003897	8
	7	90	59859.37	694.4187	-23307.85	1	23318.2	-88.29347	2.591175E-005	-0.0088235	8
	8	98	47578.12	4177.301	-30634.04	1	30917.54	-82.23496	-7.387843E-006	0.0188724	7
	9	106	37828.12	4353.441	-37908.12	1	38157.29	-83.44875	2.773102E-006	0.0086494	7
	10	113	30046.88	4387.75	-47061.86	1	47265.96	-84.6735	6.628455E-006	-0.010015	7
	11	121	23859.38	980.166	-57287.54	1	57295.93	-89.01979	-2.712047E-005	0.009717	8
	12	127	18984.38	293.2327	-71230.41	1	71231.01	-89.76413	2.580203E-005	-0.0050767	8
	13	133	15046.87	2750.747	-96244.3	1	96283.6	-88.36288	-2.446627E-005	0.0109705	8
	14	142	11953.13	2565.297	-110576.2	1	110605.9	-88.67101	-9.311393E-006	-0.0021709	8
	15	150	9515.62	5285.534	-146170.9	1	146266.4	-87.92909	-5.321877E-006	0.0034561	7
	16	156	7546.875	6127.612	-186493.8	1	186594.5	-88.11812	-1.044755E-006	-0.0134756	7
	17	162	5928.309	34204.55	-240604.3	1	243023.4	-81.90899	2.786511E-006	0.0086414	7
	18	168	4733.456	-23438.48	-305750.7	1	306647.8	-94.38365	-7.309035E-006	0.0236129	7
	19	174	3796.875	146196	-284997.8	1	320307.7	-62.84343	-1.141786E-006	-0.0050635	8
	20	183	2987.132	42608.99	-465720.8	1	467665.9	-84.77254	-4.933164E-008	-0.0152291	6
	21	188	2390.625	50413.9	-570197.9	1	572422.3	-84.94735	-6.416192E-007	0.0095186	6
	22	194	1884.191	32836.08	-716885.1	1	717636.7	-87.37746	-4.064372E-007	0.0256591	6
	23	199	1516.544	52600.19	-950779	1	952233	-86.83344	-7.397186E-007	0.0176565	6
	24	205	1193.986	55210.83	-1147669	1	1148996	-87.2458	7.766438E-007	-0.0230083	6
	25	211	946.5144	23842.61	-1800028	1	1800186	-89.24112	-3.021154E-007	-0.0070087	6
	26	216	751.7689	-128319.8	-1936054	1	1940302	-93.79196	-4.928688E-007	0.0018349	6
	27	221	597.4265	352786.6	-2796016	1	2818185	-82.80872	-3.95475E-008	-0.0151367	6
	28	226	477.4305	449745	-3017814	1	3051142	-81.52359	-8.825422E-010	0.0006944	5
	29	229	376.6741	487008.7	-3748186	1	3779693	-82.59693	-8.458982E-010	0.000676	5
	30	233	298.2954	497544.2	-4642800	1	4669383	-83.88326	-9.355698E-010	0.0006147	5
	31	237	237.7717	550892.9	-5915855	1	5941449	-84.67988	-8.4896E-010	0.0006152	5
	32	240	189.0121	560910.6	-7201245	1	7223056	-85.54618	-1.013794E-009	0.000724	5
	33	243	150.2404	513056.3	-9213643	1	9227917	-86.81281	-9.821592E-010	0.0006931	5
	34	246	119.1737	-1940888	-9.738503E+006	1	9.930029E+006	-101.2714	-1.073511E-009	0.0006851	5
	35	248	95.0169	470500.4	-1.405948E+007	1	1.406735E+007	-88.08331	-9.394669E-010	0.0005933	5
	36	251	75.60484	676928.8	-1.64789E+007	1	1.64928E+007	-87.6477	-9.424994E-010	0.0006898	5
	37	254	54.50582	-311043.3	-2.406865E+007	1	2.407066E+007	-90.7404	-8.919899E-010	0.0006249	5
	38	257	45.95588	-1193949	-2.79995E+007	1	2.802494E+007	-92.44172	-9.431355E-010	0.0006793	5
	39	261	37.20238	-3265901	-3.425556E+007	1	3.44109E+007	-95.4461	-1.006095E-009	0.0006054	5
	40	265	30.04808	87886.47	-4.514476E+007	1	4.514484E+007	-89.88846	-9.927924E-010	0.0006627	5
	41	269	23.91582	1.032113E+007	-5.178548E+007	1	5.2804E+007	-78.72833	-1.522699E-010	0.00069	4
	42	273	18.60119	-2.305969E+007	-6.469242E+007	1	6.867938E+007	-109.6187	8.618849E-011	0.0006202	4
	43	276	15.02404	5468593	-8.959834E+007	1	8.976507E+007	-86.50731	-8.681218E-011	0.0006027	4
	44	280	12.01923	5082313	-1.137152E+008	1	1.138287E+008	-87.44096	-9.381945E-011	0.000621	4
	45	284	9.450605	1.579391E+007	-1.41819E+008	1	1.426958E+008	-83.64535	-8.270336E-011	0.0007264	4
	46	288	7.512019	1084912	-1.817737E+008	1	1.817769E+008	-89.65804	-7.542567E-011	0.0006118	4
	47	292	5.978954	2.19432E+007	-2.285667E+008	1	2.296176E+008	-84.51621	-7.337948E-011	0.0006057	4
	48	298	4.734848	4.761166E+007	-2.935455E+008	1	2.973817E+008	-80.78713	-7.548342E-012	0.000698	3
	49	302	3.75601	-4.211394E+007	-3.488456E+008	1	3.513785E+008	-96.8836	-8.980472E-010	0.0006357	5
	50	311	3.004808	1.621605E+007	-4.266405E+008	1	4.269486E+008	-87.82331	-1.017033E-009	0.000761	5
	51	320	2.372217	5.220996E+007	-5.628865E+008	1	5.653026E+008	-84.70075	-7.096953E-012	0.0006521	3
	52	327	1.878005	6.149214E+007	-7.001444E+008	1	7.028396E+008	-84.98072	-6.966058E-012	0.0007327	3
	53	336	1.512097	6.000099E+007	-8.772291E+008	1	8.792787E+008	-86.08716	-7.520446E-012	0.0006228	3
	54	343	1.201923	1.054218E+007	-1.075469E+009	1	1.075521E+009	-89.43839	-6.80944E-012	0.0007442	3
	55	356	0.956633	6.916872E+007	-1.368302E+009	1	1.370049E+009	-87.10612	-6.579987E-012	8.131529E-005	3
