EXPLAIN
TAG	EISPOT
TITLE	LABEL	Potentiostatic EIS	Test Identifier
DATE	LABEL	9/15/2020	Date
TIME	LABEL	1:28:33	Time
NOTES	NOTES	1	Notes...
	
PSTAT	PSTAT	REF3000-16137	Potentiostat
VDC	POTEN	0.00000E+000	T	DC Voltage (V)
FREQINIT	QUANT	3.00000E+005	Initial Freq. (Hz)
FREQFINAL	QUANT	1.00000E+000	Final Freq. (Hz)
PTSPERDEC	QUANT	1.00000E+001	Points/decade
VAC	QUANT	5.00000E+001	AC Voltage (mV rms)
AREA	QUANT	1.00000E+000	Sample Area (cm^2)
SPEED	SELECTOR	2	Optimize for:
ZGUESS	QUANT	1.00000E+003	Estimated Z (ohms)
EOC	QUANT	0	Open Circuit (V)
SEQUENCER	TOGGLE	TRUE	Run as Sequence
PSTATMODEL	IQUANT	5	Pstat Model
PSTATSECTION	LABEL	REF3000-16137	Pstat Section
PSTATSERIALNO	LABEL	16137	Pstat Serial Number
CTRLMODE	IQUANT	1	Control Mode
IESTAB	IQUANT	0	I/E Stability
CASPEED	IQUANT	1	Control Amp Speed
CONVENTION	IQUANT	1	Current Convention
ICHRANGE	IQUANT	2	Ich Range
ICHRANGEMODE	TOGGLE	F	Ich Auto Range
ICHOFFSETENABLE	TOGGLE	T	Ich Offset Enable
ICHOFFSET	QUANT	0	Ich Offset (V)
ICHFILTER	IQUANT	3	Ich Filter
VCHRANGE	IQUANT	2	Vch Range
VCHRANGEMODE	TOGGLE	F	Vch Auto Range
VCHOFFSETENABLE	TOGGLE	T	Vch Offset Enable
VCHOFFSET	QUANT	0	Vch Offset (V)
VCHFILTER	IQUANT	3	Vch Filter
ACHRANGE	IQUANT	2	Ach Range
ACHOFFSETENABLE	TOGGLE	F	Ach Offset Enable
ACHOFFSET	QUANT	0	Ach Offset (V)
ACHFILTER	IQUANT	3	Ach Filter
IERANGELOWERLIMIT	IQUANT	2	I/E Range Lower Limit
IERANGEMODE	TOGGLE	F	I/E AutoRange
IERANGE	IQUANT	11	I/E Range
POSFEEDENABLE	TOGGLE	F	Positive Feedback IR Comp
POSFEEDRESISTANCE	QUANT	0	Positive Feedback Resistance (ohm)
ACHSELECT	IQUANT	0	Ach Select
CABLEID	IQUANT	13	Cable ID
DCCALDATE	LABEL	7/31/2020	DC Calibration Date
ACCALDATE	LABEL	7/31/2020	AC Calibration Date
THERMOSELECT	IQUANT	1	Thermo Select
FRAMEWORKVERSION	QUANT	6.33	Framework Version
INSTRUMENTVERSION	LABEL	3.50	Instrument Version
COMPLIANCEVOLTAGE	IQUANT	0	Compliance Voltage
ZCURVE	TABLE
	Pt	Time	Freq	Zreal	Zimag	Zsig	Zmod	Zphz	Idc	Vdc	IERange
	#	s	Hz	ohm	ohm	V	ohm	°	A	V	#
	0	7	300046.9	62.54239	-2.579148	1	62.59554	-2.361449	4.74029E-005	-0.0009646	9
	1	10	238359.4	63.24004	-3.86759	1	63.3582	-3.499696	1.500868E-005	-0.000811	9
	2	13	189328.1	63.94165	-5.145288	1	64.14833	-4.600593	9.571209E-006	-0.0011412	9
	3	16	150421.9	64.78625	-6.795383	1	65.14166	-5.987818	1.431461E-005	0.0004362	9
	4	19	119484.4	65.60677	-7.897294	1	66.08038	-6.863849	-6.944522E-005	0.0024768	9
	5	21	94921.88	66.71309	-9.052359	1	67.32445	-7.727321	-8.621057E-006	0.000655	9
	6	24	75421.88	67.78494	-10.6637	1	68.61861	-8.940307	-1.280337E-005	0.0001857	9
	7	26	59859.37	68.96342	-12.46071	1	70.08011	-10.24203	-3.715364E-006	0.0005058	9
	8	29	47578.12	70.21183	-14.3836	1	71.67	-11.57743	1.488957E-005	-0.0005873	9
	9	31	37828.12	71.50908	-16.60303	1	73.41123	-13.07138	-1.622111E-005	0.0004067	9
	10	34	30046.88	72.83593	-19.19645	1	75.32314	-14.76497	1.258558E-005	0.0001186	9
	11	36	23859.38	74.17948	-22.28112	1	77.45349	-16.71857	-1.748319E-005	0.0006082	9
	12	39	18984.38	75.5145	-26.0596	1	79.88455	-19.03925	-3.018035E-006	-0.000144	9
	13	41	15046.87	76.88389	-30.96512	1	82.88529	-21.9372	1.769099E-005	-0.0006416	9
	14	43	11953.13	78.35472	-36.79181	1	86.56269	-25.15261	-2.294578E-006	-0.0001893	9
	15	46	9515.62	79.80113	-44.2318	1	91.23965	-28.99853	1.139954E-005	8.443439E-005	9
	16	48	7546.875	81.33028	-53.60972	1	97.4095	-33.3913	1.104363E-005	0.0001589	9
	17	50	5928.309	83.39447	-65.91856	1	106.301	-38.32435	2.110743E-005	-0.0005062	9
	18	52	4733.456	85.56622	-80.08563	1	117.1976	-43.10506	1.637242E-005	-0.000618	9
	19	55	3796.875	87.95305	-97.502	1	131.3102	-47.94751	2.150677E-005	-0.0002588	9
	20	57	2987.132	91.29638	-120.8255	1	151.4392	-52.92512	4.599E-006	-0.0003861	9
	21	59	2390.625	95.1063	-147.3836	1	175.4057	-57.16594	-1.032361E-005	9.475466E-005	9
	22	62	1884.191	99.7143	-183.562	1	208.897	-61.48837	2.027023E-005	-0.0002473	9
	23	64	1516.544	104.8061	-223.4272	1	246.7875	-64.86949	-1.606323E-005	0.0004217	9
	24	66	1193.986	112.2895	-277.411	1	299.2755	-67.96305	3.592465E-006	-0.0003648	9
	25	69	946.5144	119.8788	-343.5287	1	363.8446	-70.76291	1.606096E-005	-0.000574	9
	26	71	751.7689	130.6823	-423.9026	1	443.5891	-72.86632	1.632674E-005	-0.0006077	9
	27	74	597.4265	143.3457	-521.219	1	540.5712	-74.62268	-6.577585E-007	0.0017487	8
	28	76	477.4305	158.2788	-640.453	1	659.7213	-76.11832	3.692461E-007	0.0006545	8
	29	78	376.6741	177.9476	-796.327	1	815.967	-77.4036	3.582057E-007	0.00065	8
	30	80	298.2954	201.7786	-986.963	1	1007.378	-78.44545	3.692386E-007	0.0006567	8
	31	83	237.7717	230.3534	-1216.059	1	1237.685	-79.27377	3.708686E-007	0.0006483	8
	32	85	189.0121	265.8913	-1502.457	1	1525.803	-79.96422	3.680673E-007	0.0006581	8
	33	88	150.2404	309.9914	-1856.388	1	1882.093	-80.51986	3.630416E-007	0.0006541	8
	34	90	119.1737	365.4153	-2298.516	1	2327.381	-80.96678	3.760443E-007	0.0006536	8
	35	92	95.0169	432.0637	-2833.033	1	2865.791	-81.32868	3.723464E-007	0.0006583	8
	36	95	75.60484	516.0495	-3499.05	1	3536.899	-81.61034	3.835891E-007	0.0006463	8
	37	97	54.50582	675.4816	-4732.991	1	4780.95	-81.87773	3.879005E-007	0.0006524	8
	38	100	45.95588	782.5706	-5552.811	1	5607.685	-81.978	3.796874E-008	0.0006825	7
	39	102	37.20238	940.9778	-6750.135	1	6815.406	-82.06403	4.039484E-008	0.0006293	7
	40	105	30.04808	1140.427	-8221.472	1	8300.191	-82.10271	3.667958E-008	0.0006242	7
	41	107	23.91582	1400.159	-10139.09	1	10235.31	-82.13747	3.400705E-008	0.0006213	7
	42	109	18.60119	1756.591	-12774.23	1	12894.44	-82.17033	3.969874E-008	0.0006269	7
	43	112	15.02404	2166.982	-15559.25	1	15709.43	-82.07125	4.210244E-008	0.0006192	7
	44	114	12.01923	2692.012	-19103.49	1	19292.23	-81.97885	3.752481E-008	0.0006173	7
	45	117	9.450605	3424.684	-23819.61	1	24064.54	-81.81832	4.190095E-008	0.0006176	7
	46	119	7.512019	4353.599	-29441.43	1	29761.58	-81.58845	4.288725E-008	0.0006349	7
	47	122	5.978954	5560.628	-36257.11	1	36681.04	-81.28069	4.396083E-008	0.0006236	7
	48	126	4.734848	7228.102	-44854.9	1	45433.55	-80.84582	4.695888E-009	0.0006418	6
	49	130	3.75601	9349.295	-55340.81	1	56124.99	-80.41097	6.067029E-009	0.0006896	6
	50	135	3.004808	12045.66	-67621.1	1	68685.6	-79.89958	5.140598E-009	0.0006879	6
	51	142	2.372217	15885.65	-83388.86	1	84888.49	-79.21434	4.829597E-009	0.0006657	6
	52	146	1.878005	21029.58	-102689.8	1	104821	-78.42657	5.68813E-009	0.0006476	6
	53	151	1.512097	27018.39	-124005.7	1	126915	-77.70848	4.961364E-009	0.0007537	6
	54	156	1.201923	35680.98	-151138.7	1	155293.4	-76.71677	5.563412E-009	0.0006664	6
	55	162	0.956633	46596.36	-183178.7	1	189012.4	-75.728	3.967711E-009	2.173642E-005	6
