EXPLAIN
TAG	EISPOT
TITLE	LABEL	Potentiostatic EIS	Test Identifier
DATE	LABEL	9/15/2020	Date
TIME	LABEL	5:44:50	Time
NOTES	NOTES	1	Notes...
	
PSTAT	PSTAT	REF3000-16137	Potentiostat
VDC	POTEN	0.00000E+000	T	DC Voltage (V)
FREQINIT	QUANT	3.00000E+005	Initial Freq. (Hz)
FREQFINAL	QUANT	1.00000E+000	Final Freq. (Hz)
PTSPERDEC	QUANT	1.00000E+001	Points/decade
VAC	QUANT	5.00000E+001	AC Voltage (mV rms)
AREA	QUANT	1.00000E+000	Sample Area (cm^2)
SPEED	SELECTOR	2	Optimize for:
ZGUESS	QUANT	1.00000E+003	Estimated Z (ohms)
EOC	QUANT	0	Open Circuit (V)
SEQUENCER	TOGGLE	TRUE	Run as Sequence
PSTATMODEL	IQUANT	5	Pstat Model
PSTATSECTION	LABEL	REF3000-16137	Pstat Section
PSTATSERIALNO	LABEL	16137	Pstat Serial Number
CTRLMODE	IQUANT	1	Control Mode
IESTAB	IQUANT	0	I/E Stability
CASPEED	IQUANT	1	Control Amp Speed
CONVENTION	IQUANT	1	Current Convention
ICHRANGE	IQUANT	2	Ich Range
ICHRANGEMODE	TOGGLE	F	Ich Auto Range
ICHOFFSETENABLE	TOGGLE	T	Ich Offset Enable
ICHOFFSET	QUANT	0	Ich Offset (V)
ICHFILTER	IQUANT	3	Ich Filter
VCHRANGE	IQUANT	2	Vch Range
VCHRANGEMODE	TOGGLE	F	Vch Auto Range
VCHOFFSETENABLE	TOGGLE	T	Vch Offset Enable
VCHOFFSET	QUANT	0	Vch Offset (V)
VCHFILTER	IQUANT	3	Vch Filter
ACHRANGE	IQUANT	2	Ach Range
ACHOFFSETENABLE	TOGGLE	F	Ach Offset Enable
ACHOFFSET	QUANT	0	Ach Offset (V)
ACHFILTER	IQUANT	3	Ach Filter
IERANGELOWERLIMIT	IQUANT	2	I/E Range Lower Limit
IERANGEMODE	TOGGLE	F	I/E AutoRange
IERANGE	IQUANT	11	I/E Range
POSFEEDENABLE	TOGGLE	F	Positive Feedback IR Comp
POSFEEDRESISTANCE	QUANT	0	Positive Feedback Resistance (ohm)
ACHSELECT	IQUANT	0	Ach Select
CABLEID	IQUANT	13	Cable ID
DCCALDATE	LABEL	7/31/2020	DC Calibration Date
ACCALDATE	LABEL	7/31/2020	AC Calibration Date
THERMOSELECT	IQUANT	1	Thermo Select
FRAMEWORKVERSION	QUANT	6.33	Framework Version
INSTRUMENTVERSION	LABEL	3.50	Instrument Version
COMPLIANCEVOLTAGE	IQUANT	0	Compliance Voltage
ZCURVE	TABLE
	Pt	Time	Freq	Zreal	Zimag	Zsig	Zmod	Zphz	Idc	Vdc	IERange
	#	s	Hz	ohm	ohm	V	ohm	°	A	V	#
	0	14	300046.9	2431.727	-2856.417	1	3751.322	-49.59156	3.075344E-005	-0.0021602	9
	1	35	238359.4	3001.261	-2926.974	1	4192.224	-44.28206	2.649121E-005	-0.0015948	9
	2	50	189328.1	3551.731	-2715.801	1	4471.059	-37.40303	-3.041345E-005	-0.0010423	9
	3	57	150421.9	4189.826	-2543.589	1	4901.478	-31.26139	-2.051231E-005	0.0011826	9
	4	65	119484.4	4755.048	-2205.307	1	5241.551	-24.88103	6.341957E-005	-0.024918	8
	5	72	94921.88	5088.198	-1944.107	1	5446.955	-20.91094	2.091563E-005	-0.0090727	8
	6	80	75421.88	5386.235	-1676.316	1	5641.061	-17.2873	-9.380845E-006	-0.0018491	8
	7	87	59859.37	5579.041	-1440.84	1	5762.093	-14.48077	-2.277138E-005	0.0050858	8
	8	95	47578.12	5745.284	-1237.348	1	5877.016	-12.15401	-1.368196E-006	-0.0047444	8
	9	102	37828.12	6192.861	-550.436	1	6217.275	-5.079236	1.77897E-006	0.0100542	7
	10	106	30046.88	6206.577	-490.4482	1	6225.925	-4.518165	1.881415E-006	0.0100412	7
	11	112	23859.38	6188.208	-480.5384	1	6206.838	-4.440329	6.44613E-006	-0.0236593	7
	12	115	18984.38	6240.976	-452.3574	1	6257.349	-4.145653	-2.218223E-006	0.020934	7
	13	119	15046.87	6236.67	-467.3276	1	6254.155	-4.285292	5.331177E-006	-0.0242554	7
	14	122	11953.13	6293.188	-470.6325	1	6310.761	-4.276872	5.619302E-006	-0.0067693	7
	15	126	9515.62	6354.353	-519.5746	1	6375.56	-4.674489	1.98033E-006	-0.0195553	7
	16	129	7546.875	6444.958	-556.3423	1	6468.926	-4.933661	-4.439041E-006	0.000901	7
	17	133	5928.309	6498.457	-616.6201	1	6527.646	-5.420405	-3.974968E-006	0.0236424	7
	18	137	4733.456	6573.4	-717.8461	1	6612.48	-6.232271	1.859761E-006	-0.0194068	7
	19	141	3796.875	6646.514	-783.7043	1	6692.558	-6.724814	6.887733E-006	-0.0205274	7
	20	145	2987.132	6795.777	-892.929	1	6854.189	-7.485479	-2.361308E-006	-0.0070376	7
	21	149	2390.625	6869.583	-978.119	1	6938.867	-8.103536	6.942542E-006	-0.0205419	7
	22	153	1884.191	7047.047	-1104.444	1	7133.069	-8.90719	1.792946E-006	0.0102544	7
	23	157	1516.544	7146.368	-1248.749	1	7254.65	-9.91174	3.84207E-006	0.0021267	7
	24	161	1193.986	7312.622	-1425.37	1	7450.243	-11.02975	1.852453E-006	-0.0194773	7
	25	166	946.5144	7398.182	-1642.03	1	7578.216	-12.51397	5.244021E-006	-0.0243418	7
	26	168	751.7689	7743.94	-1806.065	1	7951.759	-13.12803	5.661981E-006	-0.0070048	7
	27	171	597.4265	7816.244	-2015.82	1	8072	-14.46153	6.761324E-006	-0.0150214	7
	28	173	477.4305	7951.638	-2349.682	1	8291.535	-16.46223	-7.410036E-008	0.0005916	7
	29	176	376.6741	8111.527	-2732.117	1	8559.284	-18.61451	-8.080201E-008	0.0006172	7
	30	178	298.2954	8269.637	-3209.095	1	8870.467	-21.20912	-7.484257E-008	0.00058	7
	31	180	237.7717	8422.587	-3793.525	1	9237.468	-24.24676	-8.428875E-008	0.0006338	7
	32	183	189.0121	8581.791	-4538.209	1	9707.86	-27.87071	-7.872082E-008	0.0006345	7
	33	185	150.2404	8749.503	-5475.931	1	10321.8	-32.04065	-8.318091E-008	0.0006611	7
	34	188	119.1737	8932.247	-6664.598	1	11144.59	-36.72764	-7.36844E-008	0.0005867	7
	35	190	95.0169	9150.705	-8123.872	1	12236.53	-41.59824	-7.911206E-008	0.0005996	7
	36	193	75.60484	9400.88	-9951.97	1	13690.08	-46.63112	-7.526021E-008	0.0006174	7
	37	195	54.50582	9848.59	-13366.1	1	16602.63	-53.61599	-7.962701E-008	0.0006541	7
	38	198	45.95588	10129.48	-15620.09	1	18617.03	-57.03697	-7.58298E-008	0.0005731	7
	39	200	37.20238	10546.82	-18947.97	1	21685.51	-60.89882	-8.014364E-008	0.0005987	7
	40	202	30.04808	11055.95	-23055.98	1	25569.75	-64.38107	-8.272186E-008	0.0006421	7
	41	205	23.91582	11720	-28453.21	1	30772.45	-67.61302	-7.259959E-008	0.0005703	7
	42	207	18.60119	12620.34	-35883.75	1	38038.36	-70.6232	-8.236064E-008	0.0006356	7
	43	209	15.02404	13620.83	-43771.84	1	45842.13	-72.71501	-8.202282E-009	0.0006261	6
	44	212	12.01923	14829.66	-53776.26	1	55783.56	-74.58295	-8.110537E-009	0.0006722	6
	45	214	9.450605	16474.06	-67154.35	1	69145.51	-76.2166	-8.772706E-009	0.0006507	6
	46	217	7.512019	18410.2	-83076.81	1	85092.26	-77.50492	-8.991786E-009	0.0006704	6
	47	220	5.978954	20831.47	-102575.7	1	104669.6	-78.52027	-7.957722E-009	0.0006218	6
	48	224	4.734848	23890.69	-127342.2	1	129563.8	-79.37424	-7.608222E-009	0.0006357	6
	49	227	3.75601	27758.32	-157784.5	1	160207.5	-80.02231	-8.194351E-009	0.0006071	6
	50	233	3.004808	32381.64	-193867.1	1	196552.8	-80.51742	-8.230068E-009	0.0006753	6
	51	239	2.372217	38526.17	-240887.8	1	243949.2	-80.91341	-8.477335E-009	0.0006532	6
	52	243	1.878005	46537.65	-299445.5	1	303040.2	-81.16618	-8.755347E-009	0.0006614	6
	53	248	1.512097	54786.8	-365290.5	1	369376.2	-81.47028	-8.535205E-009	0.0005833	6
	54	254	1.201923	67295.08	-452583.2	1	457558.9	-81.54259	-1.071265E-009	0.000646	5
	55	260	0.956633	81605.84	-557719.8	1	563658.4	-81.67552	-1.010845E-009	8.009636E-006	5
