EXPLAIN
TAG	EISPOT
TITLE	LABEL	Potentiostatic EIS	Test Identifier
DATE	LABEL	9/15/2020	Date
TIME	LABEL	4:20:02	Time
NOTES	NOTES	1	Notes...
	
PSTAT	PSTAT	REF3000-16137	Potentiostat
VDC	POTEN	0.00000E+000	T	DC Voltage (V)
FREQINIT	QUANT	3.00000E+005	Initial Freq. (Hz)
FREQFINAL	QUANT	1.00000E+000	Final Freq. (Hz)
PTSPERDEC	QUANT	1.00000E+001	Points/decade
VAC	QUANT	5.00000E+001	AC Voltage (mV rms)
AREA	QUANT	1.00000E+000	Sample Area (cm^2)
SPEED	SELECTOR	2	Optimize for:
ZGUESS	QUANT	1.00000E+003	Estimated Z (ohms)
EOC	QUANT	0	Open Circuit (V)
SEQUENCER	TOGGLE	TRUE	Run as Sequence
PSTATMODEL	IQUANT	5	Pstat Model
PSTATSECTION	LABEL	REF3000-16137	Pstat Section
PSTATSERIALNO	LABEL	16137	Pstat Serial Number
CTRLMODE	IQUANT	1	Control Mode
IESTAB	IQUANT	0	I/E Stability
CASPEED	IQUANT	1	Control Amp Speed
CONVENTION	IQUANT	1	Current Convention
ICHRANGE	IQUANT	2	Ich Range
ICHRANGEMODE	TOGGLE	F	Ich Auto Range
ICHOFFSETENABLE	TOGGLE	T	Ich Offset Enable
ICHOFFSET	QUANT	0	Ich Offset (V)
ICHFILTER	IQUANT	3	Ich Filter
VCHRANGE	IQUANT	2	Vch Range
VCHRANGEMODE	TOGGLE	F	Vch Auto Range
VCHOFFSETENABLE	TOGGLE	T	Vch Offset Enable
VCHOFFSET	QUANT	0	Vch Offset (V)
VCHFILTER	IQUANT	3	Vch Filter
ACHRANGE	IQUANT	2	Ach Range
ACHOFFSETENABLE	TOGGLE	F	Ach Offset Enable
ACHOFFSET	QUANT	0	Ach Offset (V)
ACHFILTER	IQUANT	3	Ach Filter
IERANGELOWERLIMIT	IQUANT	2	I/E Range Lower Limit
IERANGEMODE	TOGGLE	F	I/E AutoRange
IERANGE	IQUANT	11	I/E Range
POSFEEDENABLE	TOGGLE	F	Positive Feedback IR Comp
POSFEEDRESISTANCE	QUANT	0	Positive Feedback Resistance (ohm)
ACHSELECT	IQUANT	0	Ach Select
CABLEID	IQUANT	13	Cable ID
DCCALDATE	LABEL	7/31/2020	DC Calibration Date
ACCALDATE	LABEL	7/31/2020	AC Calibration Date
THERMOSELECT	IQUANT	1	Thermo Select
FRAMEWORKVERSION	QUANT	6.33	Framework Version
INSTRUMENTVERSION	LABEL	3.50	Instrument Version
COMPLIANCEVOLTAGE	IQUANT	0	Compliance Voltage
ZCURVE	TABLE
	Pt	Time	Freq	Zreal	Zimag	Zsig	Zmod	Zphz	Idc	Vdc	IERange
	#	s	Hz	ohm	ohm	V	ohm	°	A	V	#
	0	16	300046.9	486.1037	-53.92674	1	489.0858	-6.330321	-5.696865E-005	0.0005358	9
	1	30	238359.4	489.2941	-50.37331	1	491.8802	-5.877949	-1.612236E-005	0.0014759	9
	2	37	189328.1	494.6367	-47.37784	1	496.9005	-5.471276	2.502629E-005	-0.0014156	9
	3	46	150421.9	497.2014	-45.82239	1	499.3084	-5.265541	1.590341E-005	-0.0018393	9
	4	54	119484.4	503.9877	-30.00896	1	504.8803	-3.407541	-2.358842E-005	0.0144971	8
	5	57	94921.88	507.5438	-32.27987	1	508.5693	-3.639119	-4.60185E-006	0.0055058	8
	6	60	75421.88	509.8599	-38.674	1	511.3246	-4.337705	7.341117E-006	-0.0042749	8
	7	63	59859.37	515.3611	-43.10965	1	517.1611	-4.781625	1.226209E-005	-0.0053332	8
	8	65	47578.12	520.5359	-49.68237	1	522.9015	-5.45206	6.159963E-007	0.0042825	8
	9	68	37828.12	525.9735	-57.41235	1	529.0977	-6.229427	-1.331667E-005	0.0066484	8
	10	70	30046.88	532.9543	-64.45131	1	536.8373	-6.895418	-1.339182E-005	0.0027206	8
	11	73	23859.38	541.126	-75.15897	1	546.3206	-7.907431	1.705749E-005	-0.0052287	8
	12	75	18984.38	550.4087	-84.08958	1	556.7951	-8.68629	-7.667304E-006	-0.0001747	8
	13	78	15046.87	561.3935	-93.42386	1	569.114	-9.448248	-9.54213E-006	0.0065424	8
	14	80	11953.13	569.7777	-107.9624	1	579.916	-10.7293	1.604121E-005	-0.0033856	8
	15	82	9515.62	582.2487	-121.0994	1	594.7088	-11.7492	-1.473717E-005	0.0060531	8
	16	85	7546.875	594.3218	-138.0067	1	610.1346	-13.0729	-1.261242E-005	0.0022372	8
	17	87	5928.309	605.9648	-158.6464	1	626.3881	-14.6712	1.457734E-005	-0.0051678	8
	18	90	4733.456	617.4609	-182.2056	1	643.7832	-16.44072	1.448373E-005	-0.0050864	8
	19	92	3796.875	628.3273	-210.091	1	662.5206	-18.48816	-1.304326E-005	0.0066734	8
	20	95	2987.132	640.9805	-247.9412	1	687.2632	-21.14725	1.533498E-005	-0.0052772	8
	21	97	2390.625	652.9564	-291.1247	1	714.9165	-24.03	8.258299E-006	-0.0051128	8
	22	99	1884.191	669.4933	-351.3745	1	756.0987	-27.69213	1.622035E-005	-0.0046014	8
	23	102	1516.544	678.6567	-420.9161	1	798.5895	-31.808	6.96713E-006	0.0019095	8
	24	104	1193.986	693.5524	-513.3533	1	862.8711	-36.50809	7.88223E-006	-0.0048367	8
	25	107	946.5144	711.0157	-632.5762	1	951.681	-41.65884	-7.443228E-006	-0.0001923	8
	26	110	751.7689	727.1544	-767.8434	1	1057.515	-46.55902	-9.769537E-006	0.0064832	8
	27	112	597.4265	752.5473	-946.0296	1	1208.842	-51.49847	-5.382041E-006	0.0058121	8
	28	115	477.4305	780.7042	-1159.436	1	1397.781	-56.04571	-7.982197E-008	0.0006263	8
	29	117	376.6741	815.9401	-1438.964	1	1654.2	-60.44534	-9.007308E-008	0.0006252	8
	30	120	298.2954	858.3779	-1781.698	1	1977.691	-64.27639	-1.095249E-007	0.0006408	8
	31	122	237.7717	909.0934	-2194.457	1	2375.309	-67.49733	-9.718632E-008	0.0006366	8
	32	124	189.0121	971.883	-2711.234	1	2880.164	-70.279	-8.108335E-008	0.0006419	8
	33	127	150.2404	1049.702	-3350.269	1	3510.866	-72.60324	-1.085915E-007	0.00064	8
	34	129	119.1737	1150.594	-4157.981	1	4314.241	-74.53221	-2.30184E-008	0.0006105	7
	35	132	95.0169	1267.016	-5126.476	1	5280.728	-76.11747	-2.48808E-008	0.0006203	7
	36	134	75.60484	1413.553	-6332.604	1	6488.452	-77.41682	-2.394996E-008	0.0006104	7
	37	137	54.50582	1687.818	-8569.825	1	8734.451	-78.85825	-3.009307E-008	0.0006201	7
	38	139	45.95588	1865.756	-10036.1	1	10208.05	-79.46868	-2.336543E-008	0.0005929	7
	39	142	37.20238	2133.25	-12199.45	1	12384.56	-80.0813	-2.457124E-008	0.0005981	7
	40	144	30.04808	2463.298	-14867.74	1	15070.42	-80.59265	-2.479715E-008	0.0005982	7
	41	146	23.91582	2897.025	-18340.81	1	18568.2	-81.02399	-2.947807E-008	0.000623	7
	42	149	18.60119	3499.715	-23127.92	1	23391.21	-81.39529	-2.666704E-008	0.00061	7
	43	151	15.02404	4118.626	-28172.8	1	28472.26	-81.68275	-2.437919E-008	0.0006265	7
	44	153	12.01923	4953.426	-34641.52	1	34993.87	-81.86238	-3.023918E-008	0.0006312	7
	45	156	9.450605	6029.982	-43266.19	1	43684.37	-82.06583	-2.355034E-008	0.0005904	7
	46	158	7.512019	7335.071	-53461.92	1	53962.77	-82.18769	-2.256263E-009	0.0006593	6
	47	161	5.978954	8930.813	-65951.77	1	66553.7	-82.28824	-2.128744E-009	0.0006353	6
	48	164	4.734848	10995.02	-81767.32	1	82503.24	-82.34154	-2.870606E-009	0.0007266	6
	49	167	3.75601	13531.33	-101199.6	1	102100.2	-82.38419	-3.007978E-009	0.0006674	6
	50	173	3.004808	16570.77	-124179.7	1	125280.4	-82.39925	-2.848076E-009	0.0006965	6
	51	179	2.372217	20677.98	-154398.2	1	155776.7	-82.37198	-2.789559E-009	0.0007346	6
	52	183	1.878005	25332.66	-191477.5	1	193146	-82.46348	-3.230578E-009	0.0006406	6
	53	188	1.512097	30554.64	-233138.5	1	235132.2	-82.53349	-2.668339E-009	0.0006321	6
	54	193	1.201923	37856.83	-288963.6	1	291432.8	-82.53625	-3.175433E-009	0.0006425	6
	55	200	0.956633	46833.07	-356691.1	1	359752.5	-82.51993	-3.156613E-009	1.698827E-005	6
