EXPLAIN
TAG	EISPOT
TITLE	LABEL	Potentiostatic EIS	Test Identifier
DATE	LABEL	9/15/2020	Date
TIME	LABEL	1:37:08	Time
NOTES	NOTES	1	Notes...
	
PSTAT	PSTAT	REF3000-16137	Potentiostat
VDC	POTEN	0.00000E+000	T	DC Voltage (V)
FREQINIT	QUANT	3.00000E+005	Initial Freq. (Hz)
FREQFINAL	QUANT	1.00000E+000	Final Freq. (Hz)
PTSPERDEC	QUANT	1.00000E+001	Points/decade
VAC	QUANT	5.00000E+001	AC Voltage (mV rms)
AREA	QUANT	1.00000E+000	Sample Area (cm^2)
SPEED	SELECTOR	2	Optimize for:
ZGUESS	QUANT	1.00000E+003	Estimated Z (ohms)
EOC	QUANT	0	Open Circuit (V)
SEQUENCER	TOGGLE	TRUE	Run as Sequence
PSTATMODEL	IQUANT	5	Pstat Model
PSTATSECTION	LABEL	REF3000-16137	Pstat Section
PSTATSERIALNO	LABEL	16137	Pstat Serial Number
CTRLMODE	IQUANT	1	Control Mode
IESTAB	IQUANT	0	I/E Stability
CASPEED	IQUANT	1	Control Amp Speed
CONVENTION	IQUANT	1	Current Convention
ICHRANGE	IQUANT	2	Ich Range
ICHRANGEMODE	TOGGLE	F	Ich Auto Range
ICHOFFSETENABLE	TOGGLE	T	Ich Offset Enable
ICHOFFSET	QUANT	0	Ich Offset (V)
ICHFILTER	IQUANT	3	Ich Filter
VCHRANGE	IQUANT	2	Vch Range
VCHRANGEMODE	TOGGLE	F	Vch Auto Range
VCHOFFSETENABLE	TOGGLE	T	Vch Offset Enable
VCHOFFSET	QUANT	0	Vch Offset (V)
VCHFILTER	IQUANT	3	Vch Filter
ACHRANGE	IQUANT	2	Ach Range
ACHOFFSETENABLE	TOGGLE	F	Ach Offset Enable
ACHOFFSET	QUANT	0	Ach Offset (V)
ACHFILTER	IQUANT	3	Ach Filter
IERANGELOWERLIMIT	IQUANT	2	I/E Range Lower Limit
IERANGEMODE	TOGGLE	F	I/E AutoRange
IERANGE	IQUANT	11	I/E Range
POSFEEDENABLE	TOGGLE	F	Positive Feedback IR Comp
POSFEEDRESISTANCE	QUANT	0	Positive Feedback Resistance (ohm)
ACHSELECT	IQUANT	0	Ach Select
CABLEID	IQUANT	13	Cable ID
DCCALDATE	LABEL	7/31/2020	DC Calibration Date
ACCALDATE	LABEL	7/31/2020	AC Calibration Date
THERMOSELECT	IQUANT	1	Thermo Select
FRAMEWORKVERSION	QUANT	6.33	Framework Version
INSTRUMENTVERSION	LABEL	3.50	Instrument Version
COMPLIANCEVOLTAGE	IQUANT	0	Compliance Voltage
ZCURVE	TABLE
	Pt	Time	Freq	Zreal	Zimag	Zsig	Zmod	Zphz	Idc	Vdc	IERange
	#	s	Hz	ohm	ohm	V	ohm	°	A	V	#
	0	6	300046.9	66.50968	-2.72949	1	66.56567	-2.350042	-3.233189E-005	-0.0004754	9
	1	10	238359.4	67.05978	-4.105168	1	67.18531	-3.503078	1.044546E-005	-0.0010382	9
	2	13	189328.1	67.81226	-5.488669	1	68.03403	-4.627387	8.32764E-006	-0.0008763	9
	3	15	150421.9	68.60535	-6.792106	1	68.94075	-5.654004	5.883262E-005	-0.0022086	9
	4	18	119484.4	69.51709	-8.243311	1	70.00413	-6.762534	-5.153543E-006	-0.0006831	9
	5	20	94921.88	70.70779	-9.479076	1	71.34034	-7.63554	2.204887E-005	-0.0004911	9
	6	23	75421.88	71.80621	-11.15151	1	72.66696	-8.827519	2.147911E-005	-0.0002989	9
	7	25	59859.37	73.0416	-13.00347	1	74.19006	-10.09451	-1.733082E-005	0.0004246	9
	8	28	47578.12	74.34753	-14.97952	1	75.84155	-11.39143	-3.246766E-006	-0.0002074	9
	9	30	37828.12	75.75593	-17.25215	1	77.69554	-12.82936	-1.763853E-005	0.0004547	9
	10	33	30046.88	77.17184	-19.8685	1	79.68846	-14.4377	-1.714587E-005	0.0007336	9
	11	35	23859.38	78.61824	-23.09062	1	81.93903	-16.36781	1.827703E-005	-0.0001195	9
	12	38	18984.38	80.05801	-26.9722	1	84.47949	-18.61909	1.757701E-005	-0.0001626	9
	13	40	15046.87	81.47952	-31.87887	1	87.49386	-21.36793	2.021437E-005	-0.000594	9
	14	42	11953.13	82.99303	-37.9097	1	91.24138	-24.55005	4.371442E-006	0.0004013	9
	15	45	9515.62	84.55751	-45.42762	1	95.9877	-28.24644	1.975847E-005	-0.0006163	9
	16	47	7546.875	86.22704	-55.08565	1	102.3207	-32.57224	-1.777902E-005	0.0004564	9
	17	49	5928.309	88.26956	-67.55711	1	111.1552	-37.42863	-9.599609E-006	0.0007058	9
	18	52	4733.456	90.41771	-82.08337	1	122.119	-42.23392	2.239185E-005	-0.0005378	9
	19	54	3796.875	92.99189	-99.683	1	136.3239	-46.98894	-1.602557E-005	0.000439	9
	20	56	2987.132	96.4777	-123.7533	1	156.9166	-52.06013	1.104535E-005	-0.0005292	9
	21	59	2390.625	99.9747	-151.2859	1	181.335	-56.54197	1.06807E-005	-0.0005292	9
	22	61	1884.191	105.2394	-187.4709	1	214.9899	-60.69172	2.143795E-005	-0.0005259	9
	23	63	1516.544	110.478	-228.5867	1	253.8844	-64.20511	-1.568654E-005	0.0003911	9
	24	66	1193.986	117.3473	-284.4099	1	307.6677	-67.579	2.170212E-005	-0.0002921	9
	25	68	946.5144	127.2904	-351.1828	1	373.5401	-70.07635	-9.135179E-006	0.0007398	9
	26	70	751.7689	135.9906	-431.9042	1	452.8076	-72.52272	7.488139E-007	0.00145	8
	27	73	597.4265	149.4546	-533.9318	1	554.4545	-74.36236	-6.838108E-007	0.0018386	8
	28	75	477.4305	164.7163	-655.6075	1	675.9828	-75.89679	3.607227E-007	0.0006644	8
	29	77	376.6741	184.7471	-815.2155	1	835.8875	-77.2311	3.690729E-007	0.0006485	8
	30	80	298.2954	209.0762	-1010.445	1	1031.849	-78.30962	3.565835E-007	0.0006565	8
	31	82	237.7717	238.2024	-1245.016	1	1267.598	-79.16879	3.531357E-007	0.0006498	8
	32	85	189.0121	274.353	-1538.266	1	1562.541	-79.88751	3.294864E-007	0.0007051	8
	33	87	150.2404	319.3228	-1900.878	1	1927.512	-80.46409	3.635102E-007	0.0006493	8
	34	89	119.1737	375.5811	-2353.429	1	2383.21	-80.93269	3.705272E-007	0.0006575	8
	35	92	95.0169	443.3675	-2901.902	1	2935.576	-81.31323	3.810467E-007	0.0006533	8
	36	94	75.60484	528.7391	-3583.225	1	3622.026	-81.60603	3.845406E-007	0.0006447	8
	37	97	54.50582	693.8681	-4859.567	1	4908.854	-81.87401	3.039949E-008	0.0006236	7
	38	99	45.95588	798.5988	-5690.53	1	5746.293	-82.01138	4.116101E-008	0.000628	7
	39	102	37.20238	957.27	-6914.426	1	6980.376	-82.11777	3.293169E-008	0.000685	7
	40	104	30.04808	1158.003	-8420.879	1	8500.128	-82.17004	3.30434E-008	0.0006248	7
	41	107	23.91582	1416.768	-10373.09	1	10469.4	-82.2226	3.435082E-008	0.0006239	7
	42	109	18.60119	1798.318	-13095.77	1	13218.66	-82.18102	3.831196E-008	0.0006322	7
	43	111	15.02404	2187.237	-15949.05	1	16098.33	-82.19122	4.002034E-008	0.0006284	7
	44	114	12.01923	2709.732	-19585.67	1	19772.23	-82.12297	3.666344E-008	0.0006214	7
	45	116	9.450605	3428.177	-24438.87	1	24678.15	-82.0149	3.681483E-008	0.0006188	7
	46	118	7.512019	4346.353	-30198.67	1	30509.84	-81.80993	4.231986E-008	0.0006371	7
	47	122	5.978954	5502.112	-37220.76	1	37625.23	-81.59122	4.074038E-008	0.0006231	7
	48	126	4.734848	7169.935	-46093.8	1	46648.11	-81.15844	5.30776E-009	0.0006714	6
	49	129	3.75601	9206.431	-56911.86	1	57651.69	-80.81107	5.458902E-009	0.0007282	6
	50	135	3.004808	11814.58	-69598.77	1	70594.43	-80.36573	4.812954E-009	0.0006908	6
	51	141	2.372217	15557.81	-85942.79	1	87339.62	-79.73914	4.655981E-009	0.0006535	6
	52	145	1.878005	20467.19	-106062.5	1	108019.2	-79.07772	5.663516E-009	0.0006534	6
	53	150	1.512097	26202.92	-128159.1	1	130810.4	-78.44478	4.696891E-009	0.00071	6
	54	155	1.201923	34711	-156834.5	1	160629.7	-77.52032	5.35879E-009	0.0006719	6
	55	162	0.956633	45527.61	-190617.1	1	195978.7	-76.56695	3.910926E-009	3.385192E-005	6
