EXPLAIN
TAG	EISPOT
TITLE	LABEL	Potentiostatic EIS	Test Identifier
DATE	LABEL	9/15/2020	Date
TIME	LABEL	1:54:16	Time
NOTES	NOTES	1	Notes...
	
PSTAT	PSTAT	REF3000-16137	Potentiostat
VDC	POTEN	0.00000E+000	T	DC Voltage (V)
FREQINIT	QUANT	3.00000E+005	Initial Freq. (Hz)
FREQFINAL	QUANT	1.00000E+000	Final Freq. (Hz)
PTSPERDEC	QUANT	1.00000E+001	Points/decade
VAC	QUANT	5.00000E+001	AC Voltage (mV rms)
AREA	QUANT	1.00000E+000	Sample Area (cm^2)
SPEED	SELECTOR	2	Optimize for:
ZGUESS	QUANT	1.00000E+003	Estimated Z (ohms)
EOC	QUANT	0	Open Circuit (V)
SEQUENCER	TOGGLE	TRUE	Run as Sequence
PSTATMODEL	IQUANT	5	Pstat Model
PSTATSECTION	LABEL	REF3000-16137	Pstat Section
PSTATSERIALNO	LABEL	16137	Pstat Serial Number
CTRLMODE	IQUANT	1	Control Mode
IESTAB	IQUANT	0	I/E Stability
CASPEED	IQUANT	1	Control Amp Speed
CONVENTION	IQUANT	1	Current Convention
ICHRANGE	IQUANT	2	Ich Range
ICHRANGEMODE	TOGGLE	F	Ich Auto Range
ICHOFFSETENABLE	TOGGLE	T	Ich Offset Enable
ICHOFFSET	QUANT	0	Ich Offset (V)
ICHFILTER	IQUANT	3	Ich Filter
VCHRANGE	IQUANT	2	Vch Range
VCHRANGEMODE	TOGGLE	F	Vch Auto Range
VCHOFFSETENABLE	TOGGLE	T	Vch Offset Enable
VCHOFFSET	QUANT	0	Vch Offset (V)
VCHFILTER	IQUANT	3	Vch Filter
ACHRANGE	IQUANT	2	Ach Range
ACHOFFSETENABLE	TOGGLE	F	Ach Offset Enable
ACHOFFSET	QUANT	0	Ach Offset (V)
ACHFILTER	IQUANT	3	Ach Filter
IERANGELOWERLIMIT	IQUANT	2	I/E Range Lower Limit
IERANGEMODE	TOGGLE	F	I/E AutoRange
IERANGE	IQUANT	11	I/E Range
POSFEEDENABLE	TOGGLE	F	Positive Feedback IR Comp
POSFEEDRESISTANCE	QUANT	0	Positive Feedback Resistance (ohm)
ACHSELECT	IQUANT	0	Ach Select
CABLEID	IQUANT	13	Cable ID
DCCALDATE	LABEL	7/31/2020	DC Calibration Date
ACCALDATE	LABEL	7/31/2020	AC Calibration Date
THERMOSELECT	IQUANT	1	Thermo Select
FRAMEWORKVERSION	QUANT	6.33	Framework Version
INSTRUMENTVERSION	LABEL	3.50	Instrument Version
COMPLIANCEVOLTAGE	IQUANT	0	Compliance Voltage
ZCURVE	TABLE
	Pt	Time	Freq	Zreal	Zimag	Zsig	Zmod	Zphz	Idc	Vdc	IERange
	#	s	Hz	ohm	ohm	V	ohm	°	A	V	#
	0	7	300046.9	75.34486	-3.265244	1	75.41558	-2.481493	6.662133E-005	-0.0023985	9
	1	10	238359.4	76.04682	-4.726988	1	76.1936	-3.556867	-5.171739E-005	0.000591	9
	2	13	189328.1	76.87342	-6.151451	1	77.11915	-4.575089	-6.287998E-005	0.0025389	9
	3	16	150421.9	77.82475	-7.610353	1	78.19597	-5.585101	1.403404E-005	-0.0011004	9
	4	18	119484.4	78.85725	-9.092264	1	79.37969	-6.577177	1.726351E-005	-0.0004191	9
	5	21	94921.88	80.06424	-10.41218	1	80.73844	-7.40961	1.689749E-005	-0.0006955	9
	6	23	75421.88	81.25485	-12.23619	1	82.17101	-8.563836	2.067719E-005	-0.0006467	9
	7	26	59859.37	82.6431	-14.21497	1	83.85671	-9.75962	1.924152E-005	-0.0002146	9
	8	28	47578.12	84.10788	-16.29808	1	85.67242	-10.96662	2.209957E-005	-0.0006295	9
	9	31	37828.12	85.72716	-18.75405	1	87.75455	-12.33988	2.048615E-005	-0.0003038	9
	10	33	30046.88	87.34537	-21.53883	1	89.96185	-13.85242	-1.425345E-005	0.0001922	9
	11	36	23859.38	88.98703	-24.83004	1	92.38627	-15.59069	-2.188963E-006	0.0005346	9
	12	38	18984.38	90.61612	-28.92373	1	95.1203	-17.70255	-1.104269E-005	0.0007845	9
	13	41	15046.87	92.27001	-34.05411	1	98.3536	-20.2576	-1.399464E-005	0.000186	9
	14	43	11953.13	93.95075	-40.2965	1	102.2279	-23.21502	-1.483278E-005	0.0007544	9
	15	45	9515.62	95.6667	-48.18799	1	107.1177	-26.73472	-5.383078E-006	0.0006179	9
	16	48	7546.875	97.6119	-58.00322	1	113.5449	-30.71976	-3.125449E-006	-0.0001913	9
	17	50	5928.309	99.7927	-71.1133	1	122.5385	-35.47406	-1.85467E-005	0.0007362	9
	18	52	4733.456	102.0886	-86.38824	1	133.7348	-40.23818	1.731414E-005	-0.000661	9
	19	55	3796.875	104.7583	-104.9771	1	148.3054	-45.05978	2.251012E-005	-0.0004624	9
	20	57	2987.132	108.416	-129.6949	1	169.0408	-50.1067	-2.313797E-006	-0.0002381	9
	21	59	2390.625	111.752	-158.9698	1	194.3191	-54.89369	-1.913352E-005	0.0006579	9
	22	62	1884.191	117.1951	-197.3006	1	229.4825	-59.29002	1.098379E-005	0.0001495	9
	23	64	1516.544	122.4072	-239.7572	1	269.1971	-62.95357	3.725713E-006	0.0004223	9
	24	66	1193.986	130.3546	-298.4177	1	325.6462	-66.40337	-1.479202E-005	0.0007772	9
	25	69	946.5144	141.0031	-368.7719	1	394.8096	-69.07521	5.147553E-006	-0.0004336	9
	26	71	751.7689	150.9713	-453.4162	1	477.8897	-71.5841	-4.826372E-006	0.0016539	8
	27	73	597.4265	162.7388	-559.9105	1	583.0812	-73.79341	2.754054E-006	0.00081	8
	28	76	477.4305	179.6371	-687.3864	1	710.4714	-75.35424	3.367834E-007	0.0006423	8
	29	78	376.6741	200.5723	-854.7737	1	877.9905	-76.79448	3.253874E-007	0.0006425	8
	30	80	298.2954	225.9113	-1059.586	1	1083.401	-77.96433	3.333047E-007	0.000649	8
	31	83	237.7717	256.2836	-1305.636	1	1330.551	-78.89459	3.223457E-007	0.0006477	8
	32	85	189.0121	294.1179	-1613.335	1	1639.925	-79.66819	3.270549E-007	0.000647	8
	33	87	150.2404	340.7566	-1993.834	1	2022.743	-80.30155	3.343065E-007	0.0006501	8
	34	90	119.1737	399.2739	-2468.681	1	2500.761	-80.81278	3.312726E-007	0.000651	8
	35	92	95.0169	469.8846	-3044.191	1	3080.242	-81.22539	3.436825E-007	0.000643	8
	36	95	75.60484	558.3793	-3759.142	1	3800.386	-81.55112	3.453507E-007	0.0006419	8
	37	97	54.50582	727.5372	-5096.414	1	5148.082	-81.87565	2.699696E-008	0.0006138	7
	38	100	45.95588	836.834	-5970.773	1	6029.131	-82.02168	3.659603E-008	0.0006205	7
	39	102	37.20238	1001.12	-7258.051	1	7326.769	-82.14661	3.354987E-008	0.0006221	7
	40	105	30.04808	1204.473	-8832.76	1	8914.505	-82.23479	3.112792E-008	0.0006161	7
	41	107	23.91582	1471.053	-10897	1	10995.84	-82.31177	2.953818E-008	0.0006174	7
	42	109	18.60119	1840.195	-13745.35	1	13867.98	-82.37472	2.983117E-008	0.0006247	7
	43	112	15.02404	2251.641	-16733.51	1	16884.32	-82.33638	3.52819E-008	0.0006186	7
	44	114	12.01923	2777.639	-20549.03	1	20735.91	-82.30192	3.326358E-008	0.0006169	7
	45	116	9.450605	3482.99	-25655.06	1	25890.41	-82.26866	3.365161E-008	0.000612	7
	46	119	7.512019	4358.243	-31709.58	1	32007.69	-82.17416	3.610468E-008	0.0006125	7
	47	122	5.978954	5464.561	-39102.9	1	39482.89	-82.04454	3.583277E-008	0.0006303	7
	48	126	4.734848	7030.266	-48456.67	1	48964	-81.74493	3.889317E-009	0.0006304	6
	49	130	3.75601	8969.006	-59912.61	1	60580.22	-81.48596	4.71006E-009	0.0006799	6
	50	135	3.004808	11370.82	-73396.07	1	74271.66	-81.19351	4.163552E-009	0.0006707	6
	51	142	2.372217	14905.47	-91009.77	1	92222.3	-80.69875	3.894768E-009	0.0006042	6
	52	146	1.878005	19242.71	-112541.2	1	114174.5	-80.29719	4.8702E-009	0.0006642	6
	53	150	1.512097	24520.57	-136363.6	1	138550.6	-79.80615	3.853254E-009	0.0006804	6
	54	156	1.201923	32212.7	-167818.9	1	170882.5	-79.13428	4.528092E-009	0.0006819	6
	55	162	0.956633	42219.26	-205202.7	1	209500.8	-78.37395	3.209992E-009	6.832926E-005	6
