EXPLAIN
TAG	EISPOT
TITLE	LABEL	Potentiostatic EIS	Test Identifier
DATE	LABEL	9/15/2020	Date
TIME	LABEL	4:30:44	Time
NOTES	NOTES	1	Notes...
	
PSTAT	PSTAT	REF3000-16137	Potentiostat
VDC	POTEN	0.00000E+000	T	DC Voltage (V)
FREQINIT	QUANT	3.00000E+005	Initial Freq. (Hz)
FREQFINAL	QUANT	1.00000E+000	Final Freq. (Hz)
PTSPERDEC	QUANT	1.00000E+001	Points/decade
VAC	QUANT	5.00000E+001	AC Voltage (mV rms)
AREA	QUANT	1.00000E+000	Sample Area (cm^2)
SPEED	SELECTOR	2	Optimize for:
ZGUESS	QUANT	1.00000E+003	Estimated Z (ohms)
EOC	QUANT	0	Open Circuit (V)
SEQUENCER	TOGGLE	TRUE	Run as Sequence
PSTATMODEL	IQUANT	5	Pstat Model
PSTATSECTION	LABEL	REF3000-16137	Pstat Section
PSTATSERIALNO	LABEL	16137	Pstat Serial Number
CTRLMODE	IQUANT	1	Control Mode
IESTAB	IQUANT	0	I/E Stability
CASPEED	IQUANT	1	Control Amp Speed
CONVENTION	IQUANT	1	Current Convention
ICHRANGE	IQUANT	2	Ich Range
ICHRANGEMODE	TOGGLE	F	Ich Auto Range
ICHOFFSETENABLE	TOGGLE	T	Ich Offset Enable
ICHOFFSET	QUANT	0	Ich Offset (V)
ICHFILTER	IQUANT	3	Ich Filter
VCHRANGE	IQUANT	2	Vch Range
VCHRANGEMODE	TOGGLE	F	Vch Auto Range
VCHOFFSETENABLE	TOGGLE	T	Vch Offset Enable
VCHOFFSET	QUANT	0	Vch Offset (V)
VCHFILTER	IQUANT	3	Vch Filter
ACHRANGE	IQUANT	2	Ach Range
ACHOFFSETENABLE	TOGGLE	F	Ach Offset Enable
ACHOFFSET	QUANT	0	Ach Offset (V)
ACHFILTER	IQUANT	3	Ach Filter
IERANGELOWERLIMIT	IQUANT	2	I/E Range Lower Limit
IERANGEMODE	TOGGLE	F	I/E AutoRange
IERANGE	IQUANT	11	I/E Range
POSFEEDENABLE	TOGGLE	F	Positive Feedback IR Comp
POSFEEDRESISTANCE	QUANT	0	Positive Feedback Resistance (ohm)
ACHSELECT	IQUANT	0	Ach Select
CABLEID	IQUANT	13	Cable ID
DCCALDATE	LABEL	7/31/2020	DC Calibration Date
ACCALDATE	LABEL	7/31/2020	AC Calibration Date
THERMOSELECT	IQUANT	1	Thermo Select
FRAMEWORKVERSION	QUANT	6.33	Framework Version
INSTRUMENTVERSION	LABEL	3.50	Instrument Version
COMPLIANCEVOLTAGE	IQUANT	0	Compliance Voltage
ZCURVE	TABLE
	Pt	Time	Freq	Zreal	Zimag	Zsig	Zmod	Zphz	Idc	Vdc	IERange
	#	s	Hz	ohm	ohm	V	ohm	°	A	V	#
	0	14	300046.9	605.1942	-81.44973	1	610.6506	-7.665063	-1.730306E-006	-0.0019817	9
	1	25	238359.4	609.2455	-72.64273	1	613.561	-6.799499	2.75276E-005	0.0008738	9
	2	41	189328.1	619.6136	-65.81731	1	623.0994	-6.063401	4.991592E-005	8.151475E-005	9
	3	50	150421.9	624.8557	-62.91769	1	628.0154	-5.749821	-0.0001001	0.0036748	9
	4	57	119484.4	630.3972	-61.55585	1	633.3954	-5.577031	-2.429153E-006	-0.0016137	9
	5	65	94921.88	636.9123	-41.37635	1	638.2549	-3.716938	-1.477475E-005	0.0073178	8
	6	67	75421.88	640.8489	-46.3145	1	642.5203	-4.133611	1.64154E-005	-0.0024069	8
	7	70	59859.37	645.5146	-52.81495	1	647.6716	-4.677428	3.792813E-006	-0.0044434	8
	8	72	47578.12	650.4252	-58.06304	1	653.0117	-5.101235	-1.648605E-007	0.0049881	8
	9	75	37828.12	658.8796	-65.88481	1	662.1655	-5.710322	-1.508549E-005	0.0073534	8
	10	77	30046.88	665.7057	-75.93271	1	670.0223	-6.507232	1.615183E-005	-0.0060811	8
	11	80	23859.38	675.5963	-86.65434	1	681.1309	-7.30905	1.349014E-005	-0.005901	8
	12	82	18984.38	685.5121	-96.9414	1	692.3326	-8.049089	1.659803E-005	-0.0023742	8
	13	85	15046.87	696.4342	-109.0313	1	704.9173	-8.897802	-7.326484E-006	-0.0006386	8
	14	87	11953.13	709.5349	-123.7257	1	720.2415	-9.89154	7.120621E-006	0.0023214	8
	15	90	9515.62	723.9244	-138.9639	1	737.1414	-10.86627	-2.314965E-006	-0.0025711	8
	16	92	7546.875	738.4645	-159.7868	1	755.5539	-12.20927	1.67037E-005	-0.0024182	8
	17	95	5928.309	755.0023	-178.3161	1	775.7739	-13.28858	-1.695042E-005	0.0056174	8
	18	97	4733.456	768.3086	-205.669	1	795.3602	-14.98618	-1.424985E-005	0.0072021	8
	19	100	3796.875	784.44	-230.0082	1	817.4655	-16.34184	-2.593874E-006	-0.002461	8
	20	103	2987.132	799.5292	-273.0034	1	844.8538	-18.85274	-5.79608E-006	0.0063236	8
	21	106	2390.625	813.1319	-319.1005	1	873.5037	-21.42673	1.732856E-005	-0.0025462	8
	22	108	1884.191	830.2522	-377.5894	1	912.0814	-24.45551	-8.280442E-006	-0.0002821	8
	23	111	1516.544	844.3782	-449.8636	1	956.74	-28.04757	-1.469984E-005	0.0029471	8
	24	114	1193.986	864.5308	-549.4788	1	1024.373	-32.43924	1.671125E-005	-0.0024706	8
	25	116	946.5144	882.3983	-666.3342	1	1105.725	-37.05791	7.455916E-006	0.0022373	8
	26	119	751.7689	905.5866	-810.6246	1	1215.401	-41.83292	-1.671712E-005	0.0067481	8
	27	122	597.4265	927.8629	-993.965	1	1359.741	-46.96994	1.648165E-005	-0.0058602	8
	28	124	477.4305	957.449	-1220.308	1	1551.084	-51.88242	-1.293667E-007	0.0006312	8
	29	127	376.6741	995.018	-1512.649	1	1810.571	-56.66315	-1.740855E-007	0.000693	8
	30	129	298.2954	1040.08	-1871.186	1	2140.818	-60.93293	-1.179534E-007	0.0006339	8
	31	131	237.7717	1093.466	-2303.362	1	2549.734	-64.60509	-1.240646E-007	0.0006329	8
	32	134	189.0121	1159.866	-2844.619	1	3071.994	-67.8173	-1.363103E-007	0.0006396	8
	33	136	150.2404	1241.087	-3514.795	1	3727.477	-70.55169	-1.467773E-007	0.0006381	8
	34	139	119.1737	1346.623	-4359.677	1	4562.913	-72.83505	-2.928921E-008	0.0006094	7
	35	141	95.0169	1469.552	-5375.445	1	5572.701	-74.70995	-3.3273E-008	0.0006027	7
	36	143	75.60484	1622.865	-6640.375	1	6835.809	-76.26648	-3.682699E-008	0.0006205	7
	37	146	54.50582	1906.736	-8989.484	1	9189.477	-78.02463	-3.257754E-008	0.0005938	7
	38	149	45.95588	2095.758	-10525.5	1	10732.12	-78.73898	-3.797139E-008	0.0006677	7
	39	151	37.20238	2373.862	-12794.86	1	13013.21	-79.48929	-3.107539E-008	0.0005908	7
	40	153	30.04808	2720.479	-15585.9	1	15821.55	-80.09892	-3.673772E-008	0.0006347	7
	41	156	23.91582	3178.122	-19252.93	1	19513.47	-80.62659	-3.236724E-008	0.0005985	7
	42	158	18.60119	3780.733	-24278.7	1	24571.3	-81.14886	-3.285867E-008	0.0006175	7
	43	160	15.02404	4471.514	-29568.23	1	29904.42	-81.40049	-3.472034E-008	0.0006651	7
	44	163	12.01923	5331.903	-36339.22	1	36728.3	-81.65279	-3.535135E-008	0.0006716	7
	45	165	9.450605	6491.771	-45354.05	1	45816.29	-81.85427	-3.207877E-009	0.0006586	6
	46	168	7.512019	7824.555	-56058.55	1	56601.98	-82.05409	-3.97416E-009	0.000675	6
	47	170	5.978954	9526.81	-69177.81	1	69830.73	-82.15884	-3.973539E-009	0.0007085	6
	48	173	4.734848	11651.01	-85754.34	1	86542.2	-82.26289	-3.603231E-009	0.0006098	6
	49	177	3.75601	14353.64	-106138.8	1	107105	-82.29836	-3.439017E-009	0.0006564	6
	50	182	3.004808	17548.49	-130248.5	1	131425.4	-82.3267	-3.996225E-009	0.0006536	6
	51	189	2.372217	21823.27	-162011.2	1	163474.5	-82.32831	-3.861296E-009	0.0005853	6
	52	193	1.878005	26837.79	-200741.5	1	202527.5	-82.38509	-3.614097E-009	0.0006672	6
	53	198	1.512097	32885.9	-244441.7	1	246643.9	-82.33773	-4.090307E-009	0.000591	6
	54	203	1.201923	40149.51	-302649.5	1	305301	-82.44326	-3.810483E-009	0.0007358	6
	55	209	0.956633	49331.79	-373529.8	1	376773.3	-82.47653	-3.931601E-009	1.129107E-005	6
