EXPLAIN
TAG	EISPOT
TITLE	LABEL	Potentiostatic EIS	Test Identifier
DATE	LABEL	9/15/2020	Date
TIME	LABEL	3:34:38	Time
NOTES	NOTES	1	Notes...
	
PSTAT	PSTAT	REF3000-16137	Potentiostat
VDC	POTEN	0.00000E+000	T	DC Voltage (V)
FREQINIT	QUANT	3.00000E+005	Initial Freq. (Hz)
FREQFINAL	QUANT	1.00000E+000	Final Freq. (Hz)
PTSPERDEC	QUANT	1.00000E+001	Points/decade
VAC	QUANT	5.00000E+001	AC Voltage (mV rms)
AREA	QUANT	1.00000E+000	Sample Area (cm^2)
SPEED	SELECTOR	2	Optimize for:
ZGUESS	QUANT	1.00000E+003	Estimated Z (ohms)
EOC	QUANT	0	Open Circuit (V)
SEQUENCER	TOGGLE	TRUE	Run as Sequence
PSTATMODEL	IQUANT	5	Pstat Model
PSTATSECTION	LABEL	REF3000-16137	Pstat Section
PSTATSERIALNO	LABEL	16137	Pstat Serial Number
CTRLMODE	IQUANT	1	Control Mode
IESTAB	IQUANT	0	I/E Stability
CASPEED	IQUANT	1	Control Amp Speed
CONVENTION	IQUANT	1	Current Convention
ICHRANGE	IQUANT	2	Ich Range
ICHRANGEMODE	TOGGLE	F	Ich Auto Range
ICHOFFSETENABLE	TOGGLE	T	Ich Offset Enable
ICHOFFSET	QUANT	0	Ich Offset (V)
ICHFILTER	IQUANT	3	Ich Filter
VCHRANGE	IQUANT	2	Vch Range
VCHRANGEMODE	TOGGLE	F	Vch Auto Range
VCHOFFSETENABLE	TOGGLE	T	Vch Offset Enable
VCHOFFSET	QUANT	0	Vch Offset (V)
VCHFILTER	IQUANT	3	Vch Filter
ACHRANGE	IQUANT	2	Ach Range
ACHOFFSETENABLE	TOGGLE	F	Ach Offset Enable
ACHOFFSET	QUANT	0	Ach Offset (V)
ACHFILTER	IQUANT	3	Ach Filter
IERANGELOWERLIMIT	IQUANT	2	I/E Range Lower Limit
IERANGEMODE	TOGGLE	F	I/E AutoRange
IERANGE	IQUANT	11	I/E Range
POSFEEDENABLE	TOGGLE	F	Positive Feedback IR Comp
POSFEEDRESISTANCE	QUANT	0	Positive Feedback Resistance (ohm)
ACHSELECT	IQUANT	0	Ach Select
CABLEID	IQUANT	13	Cable ID
DCCALDATE	LABEL	7/31/2020	DC Calibration Date
ACCALDATE	LABEL	7/31/2020	AC Calibration Date
THERMOSELECT	IQUANT	1	Thermo Select
FRAMEWORKVERSION	QUANT	6.33	Framework Version
INSTRUMENTVERSION	LABEL	3.50	Instrument Version
COMPLIANCEVOLTAGE	IQUANT	0	Compliance Voltage
ZCURVE	TABLE
	Pt	Time	Freq	Zreal	Zimag	Zsig	Zmod	Zphz	Idc	Vdc	IERange
	#	s	Hz	ohm	ohm	V	ohm	°	A	V	#
	0	10	300046.9	221.7444	-14.26774	1	222.203	-3.681517	-1.730924E-005	0.0008427	9
	1	13	238359.4	223.0612	-15.68387	1	223.6119	-4.02196	-9.355073E-005	0.0032604	9
	2	16	189328.1	223.9855	-17.19046	1	224.6442	-4.388738	1.350299E-005	-0.0017635	9
	3	19	150421.9	225.7159	-18.90699	1	226.5064	-4.788176	-7.654059E-005	0.003445	9
	4	22	119484.4	228.5872	-20.53576	1	229.5078	-5.133545	2.948543E-005	0.000725	9
	5	25	94921.88	230.7822	-23.09067	1	231.9345	-5.713652	-1.627649E-005	0.0009324	9
	6	28	75421.88	233.2168	-25.99282	1	234.6608	-6.359569	7.513335E-006	-0.000651	9
	7	30	59859.37	236.4822	-29.31408	1	238.2921	-7.066278	-2.101548E-005	0.0009891	9
	8	33	47578.12	240.3168	-34.22564	1	242.7417	-8.10549	2.31291E-005	0.0006413	10
	9	36	37828.12	243.8869	-37.50364	1	246.7536	-8.742164	1.53982E-005	-0.0008008	9
	10	40	30046.88	248.2216	-42.34735	1	251.8079	-9.68162	2.374127E-005	-0.0002735	9
	11	44	23859.38	252.9465	-47.64637	1	257.3949	-10.66755	1.65221E-006	0.0005573	9
	12	47	18984.38	257.66	-54.03138	1	263.2642	-11.84333	2.002991E-005	-4.25715E-005	9
	13	49	15046.87	263.1877	-61.41729	1	270.2589	-13.13543	2.580528E-005	-0.000757	9
	14	52	11953.13	268.1714	-70.53745	1	277.2931	-14.73677	-2.095322E-005	0.000938	9
	15	55	9515.62	273.0983	-80.26394	1	284.6489	-16.37813	2.765486E-005	-0.0007178	9
	16	59	7546.875	278.5811	-93.44494	1	293.8356	-18.54309	2.578392E-005	-0.0007783	9
	17	62	5928.309	284.2042	-110.2348	1	304.834	-21.19988	1.595488E-005	-0.0008154	9
	18	65	4733.456	289.6766	-130.418	1	317.6813	-24.2382	2.689599E-005	-0.0006471	9
	19	67	3796.875	294.7098	-155.4922	1	333.2141	-27.81663	-1.39983E-006	-0.0003892	9
	20	69	2987.132	300.4864	-188.2757	1	354.5981	-32.07001	-1.582562E-005	0.0001347	9
	21	72	2390.625	307.1035	-226.7345	1	381.7343	-36.43845	2.684442E-005	-0.0004583	9
	22	74	1884.191	313.9126	-277.3724	1	418.8993	-41.46373	-8.875731E-006	0.0008676	9
	23	76	1516.544	321.433	-335.056	1	464.3077	-46.18879	-1.686462E-006	-0.0011943	8
	24	79	1193.986	331.7885	-416.2759	1	532.3244	-51.44375	-8.511E-006	0.0016809	8
	25	81	946.5144	344.0605	-513.2076	1	617.8671	-56.16162	-9.764878E-006	0.0037407	8
	26	84	751.7689	362.5786	-629.9862	1	726.8741	-60.0781	-3.07786E-006	0.0039182	8
	27	86	597.4265	377.5644	-781.7946	1	868.1921	-64.22198	1.110166E-005	-0.001635	8
	28	88	477.4305	400.2914	-958.67	1	1038.885	-67.3371	6.036608E-008	0.0006345	8
	29	91	376.6741	429.1642	-1192.165	1	1267.059	-70.20177	5.791861E-008	0.0006423	8
	30	93	298.2954	464.2691	-1477.974	1	1549.178	-72.56118	3.22262E-008	0.0006431	8
	31	95	237.7717	506.4045	-1821.624	1	1890.703	-74.46427	5.960969E-008	0.0006429	8
	32	98	189.0121	558.9805	-2251.291	1	2319.648	-76.05582	4.245786E-008	0.0006415	8
	33	100	150.2404	623.9855	-2782.15	1	2851.266	-77.35879	5.818252E-008	0.0006323	8
	34	103	119.1737	704.7394	-3446.429	1	3517.745	-78.44325	6.834512E-008	0.0006434	8
	35	105	95.0169	806.3105	-4256.833	1	4332.524	-79.27435	-3.672886E-009	0.000614	7
	36	107	75.60484	928.7283	-5257.093	1	5338.498	-79.98138	-5.201543E-009	0.0006155	7
	37	110	54.50582	1156.609	-7110.596	1	7204.049	-80.76119	-3.823568E-009	0.0006139	7
	38	113	45.95588	1303.398	-8326.002	1	8427.405	-81.10281	-1.006857E-009	0.0006242	7
	39	115	37.20238	1521.835	-10121.82	1	10235.58	-81.44951	-2.784372E-009	0.0006141	7
	40	117	30.04808	1792.519	-12328.25	1	12457.89	-81.7272	-2.976021E-009	0.0006102	7
	41	120	23.91582	2149.64	-15218.39	1	15369.46	-81.96	-8.844482E-009	0.0006721	7
	42	122	18.60119	2643.106	-19197.88	1	19378.98	-82.16097	-1.877044E-009	0.0006111	7
	43	124	15.02404	3172.406	-23394.65	1	23608.77	-82.27757	3.352677E-010	0.000621	7
	44	127	12.01923	3846.192	-28757.3	1	29013.37	-82.3821	-5.583816E-009	0.0006227	7
	45	129	9.450605	4765.212	-35880.7	1	36195.75	-82.43498	-4.463701E-010	0.0006186	7
	46	132	7.512019	5861.183	-44355.93	1	44741.5	-82.47256	6.099002E-010	0.0006813	6
	47	134	5.978954	7211.517	-54732.41	1	55205.46	-82.49397	8.394715E-011	0.0007002	6
	48	137	4.734848	8921.396	-67873.77	1	68457.58	-82.51191	5.661691E-011	0.0006801	6
	49	141	3.75601	11007.75	-84026.87	1	84744.82	-82.53659	4.526969E-010	0.0006514	6
	50	146	3.004808	13546.08	-103178.9	1	104064.3	-82.52057	-3.278603E-010	0.0007424	6
	51	153	2.372217	16809.47	-128344.4	1	129440.5	-82.53835	-3.375117E-010	0.0007155	6
	52	157	1.878005	21204.89	-159260.5	1	160666	-82.41591	-2.845943E-010	0.0006329	6
	53	161	1.512097	26473	-194376.4	1	196170.8	-82.24435	-1.507809E-010	0.000754	6
	54	167	1.201923	33207.46	-240357.5	1	242640.6	-82.13389	-1.268017E-010	0.0006246	6
	55	173	0.956633	41966.81	-296464.2	1	299419.8	-81.94287	-5.340035E-010	3.225842E-005	6
