EXPLAIN
TAG	EISPOT
TITLE	LABEL	Potentiostatic EIS	Test Identifier
DATE	LABEL	9/15/2020	Date
TIME	LABEL	0:34:18	Time
NOTES	NOTES	1	Notes...
	
PSTAT	PSTAT	REF3000-16137	Potentiostat
VDC	POTEN	0.00000E+000	T	DC Voltage (V)
FREQINIT	QUANT	3.00000E+005	Initial Freq. (Hz)
FREQFINAL	QUANT	1.00000E+000	Final Freq. (Hz)
PTSPERDEC	QUANT	1.00000E+001	Points/decade
VAC	QUANT	5.00000E+001	AC Voltage (mV rms)
AREA	QUANT	1.00000E+000	Sample Area (cm^2)
SPEED	SELECTOR	2	Optimize for:
ZGUESS	QUANT	1.00000E+003	Estimated Z (ohms)
EOC	QUANT	0	Open Circuit (V)
SEQUENCER	TOGGLE	TRUE	Run as Sequence
PSTATMODEL	IQUANT	5	Pstat Model
PSTATSECTION	LABEL	REF3000-16137	Pstat Section
PSTATSERIALNO	LABEL	16137	Pstat Serial Number
CTRLMODE	IQUANT	1	Control Mode
IESTAB	IQUANT	0	I/E Stability
CASPEED	IQUANT	1	Control Amp Speed
CONVENTION	IQUANT	1	Current Convention
ICHRANGE	IQUANT	2	Ich Range
ICHRANGEMODE	TOGGLE	F	Ich Auto Range
ICHOFFSETENABLE	TOGGLE	T	Ich Offset Enable
ICHOFFSET	QUANT	0	Ich Offset (V)
ICHFILTER	IQUANT	3	Ich Filter
VCHRANGE	IQUANT	2	Vch Range
VCHRANGEMODE	TOGGLE	F	Vch Auto Range
VCHOFFSETENABLE	TOGGLE	T	Vch Offset Enable
VCHOFFSET	QUANT	0	Vch Offset (V)
VCHFILTER	IQUANT	3	Vch Filter
ACHRANGE	IQUANT	2	Ach Range
ACHOFFSETENABLE	TOGGLE	F	Ach Offset Enable
ACHOFFSET	QUANT	0	Ach Offset (V)
ACHFILTER	IQUANT	3	Ach Filter
IERANGELOWERLIMIT	IQUANT	2	I/E Range Lower Limit
IERANGEMODE	TOGGLE	F	I/E AutoRange
IERANGE	IQUANT	11	I/E Range
POSFEEDENABLE	TOGGLE	F	Positive Feedback IR Comp
POSFEEDRESISTANCE	QUANT	0	Positive Feedback Resistance (ohm)
ACHSELECT	IQUANT	0	Ach Select
CABLEID	IQUANT	13	Cable ID
DCCALDATE	LABEL	7/31/2020	DC Calibration Date
ACCALDATE	LABEL	7/31/2020	AC Calibration Date
THERMOSELECT	IQUANT	1	Thermo Select
FRAMEWORKVERSION	QUANT	6.33	Framework Version
INSTRUMENTVERSION	LABEL	3.50	Instrument Version
COMPLIANCEVOLTAGE	IQUANT	0	Compliance Voltage
ZCURVE	TABLE
	Pt	Time	Freq	Zreal	Zimag	Zsig	Zmod	Zphz	Idc	Vdc	IERange
	#	s	Hz	ohm	ohm	V	ohm	°	A	V	#
	0	7	300046.9	46.36084	-1.550875	1	46.38677	-1.91596	1.128653E-005	-0.0014053	9
	1	10	238359.4	46.77913	-2.647085	1	46.85397	-3.238735	5.562065E-005	-0.0022669	9
	2	13	189328.1	47.25967	-3.839194	1	47.41536	-4.644289	-2.602995E-005	-0.0004272	9
	3	16	150421.9	48.02455	-5.037814	1	48.28806	-5.988472	2.686726E-007	-0.0007874	9
	4	18	119484.4	48.68014	-6.149599	1	49.06703	-7.199845	1.314206E-005	0.0004266	9
	5	21	94921.88	49.49417	-7.152767	1	50.00835	-8.223302	-1.095687E-005	0.0000959	9
	6	23	75421.88	50.31658	-8.471911	1	51.02481	-9.55737	-1.315044E-005	0.000589	9
	7	26	59859.37	51.17301	-9.90508	1	52.12281	-10.95473	1.431709E-005	-0.0005566	9
	8	28	47578.12	52.0672	-11.55292	1	53.33351	-12.51039	-5.284477E-006	2.936093E-005	9
	9	31	37828.12	52.99974	-13.45853	1	54.68185	-14.24828	1.675383E-005	-0.0000979	9
	10	33	30046.88	53.96644	-15.73262	1	56.21291	-16.25277	-1.21528E-005	0.0002062	9
	11	36	23859.38	54.94275	-18.47304	1	57.96515	-18.58385	-3.194895E-006	0.0004814	9
	12	38	18984.38	55.89355	-21.81858	1	60.00116	-21.32366	-1.136634E-005	0.0006662	9
	13	40	15046.87	56.92324	-26.04863	1	62.60021	-24.58929	1.126807E-005	-0.000444	9
	14	43	11953.13	57.9734	-31.36925	1	65.91619	-28.4177	-3.33457E-006	-0.0000974	9
	15	45	9515.62	59.14143	-37.96866	1	70.28035	-32.70037	-1.636508E-005	0.0005436	9
	16	47	7546.875	60.50728	-46.2813	1	76.17802	-37.41195	-1.461288E-005	0.0003893	9
	17	50	5928.309	62.14501	-57.0945	1	84.39066	-42.57463	2.040529E-005	-0.0004923	9
	18	52	4733.456	64.0658	-69.64175	1	94.6277	-47.388	4.3648E-006	0.0002943	9
	19	54	3796.875	66.10026	-84.85876	1	107.5651	-52.08339	-1.24486E-005	0.0002203	9
	20	57	2987.132	69.08105	-105.2169	1	125.8682	-56.71276	-1.41533E-005	0.0004161	9
	21	59	2390.625	72.3959	-128.5384	1	147.5239	-60.61075	-1.112956E-005	0.0007275	9
	22	61	1884.191	76.50093	-159.5073	1	176.9039	-64.37727	1.180193E-005	4.963019E-005	9
	23	63	1516.544	81.65563	-194.1796	1	210.6498	-67.19247	-1.390629E-005	0.0003961	9
	24	66	1193.986	88.06387	-241.7514	1	257.2916	-69.9846	2.065243E-005	-0.000399	9
	25	68	946.5144	95.4682	-298.9203	1	313.7953	-72.28773	8.648893E-006	-0.0004137	9
	26	71	751.7689	104.5503	-368.7459	1	383.281	-74.17041	2.046873E-005	-0.0003749	9
	27	73	597.4265	117.6445	-454.4252	1	469.4065	-75.48556	-1.303145E-005	0.0002634	9
	28	75	477.4305	130.6271	-556.1844	1	571.3183	-76.78289	4.340063E-007	0.0006576	8
	29	78	376.6741	149.1693	-691.0547	1	706.9711	-77.81918	4.43867E-007	0.0006461	8
	30	80	298.2954	171.9921	-855.8976	1	873.0074	-78.63777	4.403001E-007	0.0006503	8
	31	82	237.7717	199.9033	-1053.575	1	1072.372	-79.25652	4.380229E-007	0.0006488	8
	32	85	189.0121	235.4494	-1300.313	1	1321.457	-79.73658	4.454733E-007	0.0006504	8
	33	87	150.2404	280.5077	-1604.323	1	1628.661	-80.08238	4.497272E-007	0.000651	8
	34	90	119.1737	339.0829	-1983.748	1	2012.519	-80.30015	4.475624E-007	0.0006548	8
	35	92	95.0169	410.6743	-2437.17	1	2471.528	-80.43525	4.48233E-007	0.0006511	8
	36	94	75.60484	503.1711	-2999.605	1	3041.515	-80.47753	4.604431E-007	0.000644	8
	37	97	54.50582	676.9955	-4025.946	1	4082.47	-80.45455	4.605939E-007	0.0006524	8
	38	100	45.95588	801.0626	-4710.795	1	4778.42	-80.34927	5.712903E-008	0.000636	7
	39	102	37.20238	971.298	-5689.689	1	5772	-80.31231	5.54774E-008	0.0006225	7
	40	104	30.04808	1181.413	-6881.732	1	6982.405	-80.25877	4.112824E-008	0.0006858	7
	41	107	23.91582	1448.475	-8427.804	1	8551.371	-80.24793	4.106662E-008	0.0006242	7
	42	109	18.60119	1821.438	-10562.52	1	10718.42	-80.21594	5.15839E-008	0.0006372	7
	43	111	15.02404	2201.118	-12789.1	1	12977.13	-80.23455	5.652228E-008	0.0006333	7
	44	114	12.01923	2697.764	-15622.65	1	15853.86	-80.20262	5.116139E-008	0.000628	7
	45	116	9.450605	3369.969	-19376.43	1	19667.3	-80.13375	5.669349E-008	0.0006227	7
	46	119	7.512019	4191.077	-23827.51	1	24193.29	-80.02415	5.81104E-008	0.0006487	7
	47	122	5.978954	5249.915	-29243.93	1	29711.43	-79.82258	5.617825E-008	0.000626	7
	48	126	4.734848	6618.814	-36056.73	1	36659.2	-79.59821	5.915905E-008	0.0006513	7
	49	129	3.75601	8470.331	-44346.32	1	45148.01	-79.18652	8.552736E-009	0.0006543	6
	50	135	3.004808	10734.15	-54056.64	1	55112.09	-78.76875	9.664514E-009	0.0006734	6
	51	141	2.372217	14016.19	-66709.06	1	68165.63	-78.13423	9.084281E-009	0.0007458	6
	52	146	1.878005	18173.21	-81971.4	1	83961.75	-77.49961	7.846828E-009	0.0006477	6
	53	150	1.512097	23289.84	-98781.8	1	101490.2	-76.73361	8.790049E-009	0.0006582	6
	54	156	1.201923	30838.27	-120672.9	1	124551	-75.66473	7.853887E-009	0.0006463	6
	55	162	0.956633	40916.45	-146280.3	1	151895	-74.37302	7.09867E-009	3.033704E-005	6
