EXPLAIN
TAG	EISPOT
TITLE	LABEL	Potentiostatic EIS	Test Identifier
DATE	LABEL	9/15/2020	Date
TIME	LABEL	4:38:09	Time
NOTES	NOTES	1	Notes...
	
PSTAT	PSTAT	REF3000-16137	Potentiostat
VDC	POTEN	0.00000E+000	T	DC Voltage (V)
FREQINIT	QUANT	3.00000E+005	Initial Freq. (Hz)
FREQFINAL	QUANT	1.00000E+000	Final Freq. (Hz)
PTSPERDEC	QUANT	1.00000E+001	Points/decade
VAC	QUANT	5.00000E+001	AC Voltage (mV rms)
AREA	QUANT	1.00000E+000	Sample Area (cm^2)
SPEED	SELECTOR	2	Optimize for:
ZGUESS	QUANT	1.00000E+003	Estimated Z (ohms)
EOC	QUANT	0	Open Circuit (V)
SEQUENCER	TOGGLE	TRUE	Run as Sequence
PSTATMODEL	IQUANT	5	Pstat Model
PSTATSECTION	LABEL	REF3000-16137	Pstat Section
PSTATSERIALNO	LABEL	16137	Pstat Serial Number
CTRLMODE	IQUANT	1	Control Mode
IESTAB	IQUANT	0	I/E Stability
CASPEED	IQUANT	1	Control Amp Speed
CONVENTION	IQUANT	1	Current Convention
ICHRANGE	IQUANT	2	Ich Range
ICHRANGEMODE	TOGGLE	F	Ich Auto Range
ICHOFFSETENABLE	TOGGLE	T	Ich Offset Enable
ICHOFFSET	QUANT	0	Ich Offset (V)
ICHFILTER	IQUANT	3	Ich Filter
VCHRANGE	IQUANT	2	Vch Range
VCHRANGEMODE	TOGGLE	F	Vch Auto Range
VCHOFFSETENABLE	TOGGLE	T	Vch Offset Enable
VCHOFFSET	QUANT	0	Vch Offset (V)
VCHFILTER	IQUANT	3	Vch Filter
ACHRANGE	IQUANT	2	Ach Range
ACHOFFSETENABLE	TOGGLE	F	Ach Offset Enable
ACHOFFSET	QUANT	0	Ach Offset (V)
ACHFILTER	IQUANT	3	Ach Filter
IERANGELOWERLIMIT	IQUANT	2	I/E Range Lower Limit
IERANGEMODE	TOGGLE	F	I/E AutoRange
IERANGE	IQUANT	11	I/E Range
POSFEEDENABLE	TOGGLE	F	Positive Feedback IR Comp
POSFEEDRESISTANCE	QUANT	0	Positive Feedback Resistance (ohm)
ACHSELECT	IQUANT	0	Ach Select
CABLEID	IQUANT	13	Cable ID
DCCALDATE	LABEL	7/31/2020	DC Calibration Date
ACCALDATE	LABEL	7/31/2020	AC Calibration Date
THERMOSELECT	IQUANT	1	Thermo Select
FRAMEWORKVERSION	QUANT	6.33	Framework Version
INSTRUMENTVERSION	LABEL	3.50	Instrument Version
COMPLIANCEVOLTAGE	IQUANT	0	Compliance Voltage
ZCURVE	TABLE
	Pt	Time	Freq	Zreal	Zimag	Zsig	Zmod	Zphz	Idc	Vdc	IERange
	#	s	Hz	ohm	ohm	V	ohm	°	A	V	#
	0	18	300046.9	714.2089	-111.6451	1	722.8824	-8.884575	-8.869282E-005	0.0038582	9
	1	32	238359.4	721.3369	-99.5806	1	728.178	-7.860004	-2.703981E-005	-0.0009755	9
	2	49	189328.1	730.6379	-89.73383	1	736.1277	-7.001759	2.504027E-005	-0.0014517	9
	3	59	150421.9	743.2121	-81.48328	1	747.6655	-6.256728	2.465526E-005	-0.001392	9
	4	67	119484.4	751.178	-51.06015	1	752.9114	-3.888609	-7.347121E-006	-0.0081963	8
	5	71	94921.88	755.3166	-52.87952	1	757.1653	-4.004728	-1.252968E-005	0.0013663	8
	6	74	75421.88	758.6953	-56.44863	1	760.7923	-4.255095	-1.686705E-005	0.0043135	8
	7	77	59859.37	765.3207	-62.33606	1	767.8552	-4.656513	4.37333E-006	-0.0048083	8
	8	79	47578.12	769.9998	-68.46964	1	773.038	-5.081469	1.876164E-005	-0.0052885	8
	9	82	37828.12	778.9062	-75.47822	1	782.5547	-5.534842	-1.758092E-005	0.0068669	8
	10	84	30046.88	788.3152	-87.07833	1	793.11	-6.303412	9.80448E-006	-0.0058986	8
	11	87	23859.38	796.5496	-95.5913	1	802.2648	-6.843156	1.73071E-005	-0.0060271	8
	12	89	18984.38	808.1572	-107.1977	1	815.2358	-7.555866	-8.308562E-006	-0.0005978	8
	13	92	15046.87	821.8504	-121.8135	1	830.8289	-8.430917	1.873602E-005	-0.0039661	8
	14	94	11953.13	836.357	-136.5736	1	847.4346	-9.274302	-6.461991E-006	0.0068218	8
	15	97	9515.62	851.6086	-155.0103	1	865.6012	-10.31607	-2.130167E-006	-0.0028846	8
	16	99	7546.875	866.4782	-173.7536	1	883.7278	-11.33905	1.352771E-005	-0.0003337	8
	17	101	5928.309	887.884	-196.8659	1	909.4472	-12.50164	1.381295E-005	-0.000402	8
	18	104	4733.456	904.3311	-224.1008	1	931.6844	-13.918	-1.299267E-005	0.0015282	8
	19	107	3796.875	923.7847	-254.7415	1	958.265	-15.41665	7.291193E-006	0.0025189	8
	20	110	2987.132	942.2378	-294.4435	1	987.172	-17.3537	7.498101E-006	0.0025057	8
	21	112	2390.625	958.974	-340.7776	1	1017.723	-19.56299	-8.27232E-006	-0.000596	8
	22	115	1884.191	975.99	-400.6979	1	1055.043	-22.32086	-1.534132E-005	0.0028186	8
	23	118	1516.544	993.107	-477.0423	1	1101.74	-25.65747	-1.511963E-005	0.0027918	8
	24	121	1193.986	1013.123	-575.1547	1	1164.999	-29.58377	-2.370978E-006	-0.0027879	8
	25	124	946.5144	1040.636	-696.6973	1	1252.322	-33.80198	-1.57184E-005	0.0030189	8
	26	127	751.7689	1060.114	-857.5753	1	1363.553	-38.97101	9.897538E-006	-0.006041	8
	27	130	597.4265	1090.838	-1043.472	1	1509.556	-43.72867	1.771936E-005	-0.0062738	8
	28	132	477.4305	1117.643	-1267.494	1	1689.872	-48.595	-1.459194E-007	0.0006363	8
	29	135	376.6741	1157.136	-1569.078	1	1949.608	-53.59262	-1.603628E-007	0.0006452	8
	30	137	298.2954	1204.254	-1939.517	1	2282.97	-58.1637	-1.612747E-007	0.0006367	8
	31	139	237.7717	1260.049	-2385.76	1	2698.069	-62.15904	-1.543803E-007	0.0006213	8
	32	142	189.0121	1329.158	-2945.521	1	3231.525	-65.71286	-1.60492E-007	0.0006461	8
	33	144	150.2404	1414.128	-3638.042	1	3903.218	-68.7586	-1.853959E-007	0.0006439	8
	34	147	119.1737	1523.36	-4513.558	1	4763.7	-71.35007	-4.053181E-008	0.0006354	7
	35	149	95.0169	1650.62	-5562.286	1	5802.032	-73.47163	-3.511119E-008	0.0005904	7
	36	151	75.60484	1808.733	-6870.233	1	7104.338	-75.25038	-4.189905E-008	0.0006177	7
	37	154	54.50582	2101.779	-9298.945	1	9533.51	-77.26382	-4.251344E-008	0.0006282	7
	38	157	45.95588	2296.841	-10889.14	1	11128.74	-78.08923	-4.080271E-008	0.0006465	7
	39	159	37.20238	2584.231	-13237.34	1	13487.23	-78.95349	-3.595056E-008	0.0005991	7
	40	161	30.04808	2943.244	-16135.64	1	16401.88	-79.66254	-3.629434E-008	0.0005948	7
	41	164	23.91582	3416.322	-19918.13	1	20208.99	-80.26743	-4.19051E-008	0.0006303	7
	42	166	18.60119	4052.494	-25126.18	1	25450.88	-80.83791	-3.715181E-008	0.0005989	7
	43	168	15.02404	4748.182	-30607.95	1	30974.05	-81.18204	-4.082161E-008	0.0006426	7
	44	171	12.01923	5632.066	-37586.62	1	38006.24	-81.47807	-3.888039E-008	0.0006178	7
	45	173	9.450605	6832.884	-46934.98	1	47429.74	-81.71696	-4.31826E-009	0.0006848	6
	46	176	7.512019	8250.05	-57999.59	1	58583.41	-81.90437	-3.897701E-009	0.0006287	6
	47	178	5.978954	9998.18	-71580.05	1	72274.94	-82.04847	-3.805154E-009	0.0006494	6
	48	181	4.734848	12254.57	-88755.51	1	89597.52	-82.13881	-4.280176E-009	0.0006663	6
	49	185	3.75601	15004.52	-109876.9	1	110896.7	-82.22393	-4.770413E-009	0.0007189	6
	50	190	3.004808	18322.35	-134873.5	1	136112.3	-82.26382	-3.845874E-009	0.0005996	6
	51	197	2.372217	22719.49	-167686.2	1	169218.3	-82.28409	-4.320701E-009	0.0005846	6
	52	201	1.878005	27995.35	-207736.6	1	209614.5	-82.32485	-4.51479E-009	0.000714	6
	53	206	1.512097	34352.48	-253000.4	1	255322	-82.26765	-4.622925E-009	0.0005861	6
	54	211	1.201923	41881.57	-313070.2	1	315859.2	-82.38039	-4.333223E-009	0.0006832	6
	55	217	0.956633	51313.28	-386259.7	1	389653.2	-82.43276	-4.577444E-009	2.155492E-005	6
