EXPLAIN
TAG	EISPOT
TITLE	LABEL	Potentiostatic EIS	Test Identifier
DATE	LABEL	9/15/2020	Date
TIME	LABEL	5:25:20	Time
NOTES	NOTES	1	Notes...
	
PSTAT	PSTAT	REF3000-16137	Potentiostat
VDC	POTEN	0.00000E+000	T	DC Voltage (V)
FREQINIT	QUANT	3.00000E+005	Initial Freq. (Hz)
FREQFINAL	QUANT	1.00000E+000	Final Freq. (Hz)
PTSPERDEC	QUANT	1.00000E+001	Points/decade
VAC	QUANT	5.00000E+001	AC Voltage (mV rms)
AREA	QUANT	1.00000E+000	Sample Area (cm^2)
SPEED	SELECTOR	2	Optimize for:
ZGUESS	QUANT	1.00000E+003	Estimated Z (ohms)
EOC	QUANT	0	Open Circuit (V)
SEQUENCER	TOGGLE	TRUE	Run as Sequence
PSTATMODEL	IQUANT	5	Pstat Model
PSTATSECTION	LABEL	REF3000-16137	Pstat Section
PSTATSERIALNO	LABEL	16137	Pstat Serial Number
CTRLMODE	IQUANT	1	Control Mode
IESTAB	IQUANT	0	I/E Stability
CASPEED	IQUANT	1	Control Amp Speed
CONVENTION	IQUANT	1	Current Convention
ICHRANGE	IQUANT	2	Ich Range
ICHRANGEMODE	TOGGLE	F	Ich Auto Range
ICHOFFSETENABLE	TOGGLE	T	Ich Offset Enable
ICHOFFSET	QUANT	0	Ich Offset (V)
ICHFILTER	IQUANT	3	Ich Filter
VCHRANGE	IQUANT	2	Vch Range
VCHRANGEMODE	TOGGLE	F	Vch Auto Range
VCHOFFSETENABLE	TOGGLE	T	Vch Offset Enable
VCHOFFSET	QUANT	0	Vch Offset (V)
VCHFILTER	IQUANT	3	Vch Filter
ACHRANGE	IQUANT	2	Ach Range
ACHOFFSETENABLE	TOGGLE	F	Ach Offset Enable
ACHOFFSET	QUANT	0	Ach Offset (V)
ACHFILTER	IQUANT	3	Ach Filter
IERANGELOWERLIMIT	IQUANT	2	I/E Range Lower Limit
IERANGEMODE	TOGGLE	F	I/E AutoRange
IERANGE	IQUANT	11	I/E Range
POSFEEDENABLE	TOGGLE	F	Positive Feedback IR Comp
POSFEEDRESISTANCE	QUANT	0	Positive Feedback Resistance (ohm)
ACHSELECT	IQUANT	0	Ach Select
CABLEID	IQUANT	13	Cable ID
DCCALDATE	LABEL	7/31/2020	DC Calibration Date
ACCALDATE	LABEL	7/31/2020	AC Calibration Date
THERMOSELECT	IQUANT	1	Thermo Select
FRAMEWORKVERSION	QUANT	6.33	Framework Version
INSTRUMENTVERSION	LABEL	3.50	Instrument Version
COMPLIANCEVOLTAGE	IQUANT	0	Compliance Voltage
ZCURVE	TABLE
	Pt	Time	Freq	Zreal	Zimag	Zsig	Zmod	Zphz	Idc	Vdc	IERange
	#	s	Hz	ohm	ohm	V	ohm	°	A	V	#
	0	26	300046.9	2112.098	-1207.06	1	2432.684	-29.74789	-9.041635E-005	0.0020823	9
	1	40	238359.4	2305.096	-1080.31	1	2545.69	-25.11067	-1.495122E-005	0.0016892	9
	2	63	189328.1	2467.786	-990.007	1	2658.962	-21.85928	5.051361E-005	0.000173	9
	3	72	150421.9	2623.937	-849.0449	1	2757.883	-17.93038	7.770128E-005	-0.0015259	9
	4	81	119484.4	2680.817	-704.3165	1	2771.793	-14.72034	7.514808E-005	-0.0013923	9
	5	88	94921.88	2794.791	-528.8532	1	2844.387	-10.71528	-1.734893E-005	0.0101857	8
	6	96	75421.88	2835.649	-463.3366	1	2873.253	-9.279954	1.38366E-005	-0.0080826	8
	7	103	59859.37	2876.625	-412.0142	1	2905.981	-8.150944	2.367226E-005	-0.0047943	8
	8	109	47578.12	2918.382	-363.2193	1	2940.898	-7.094502	-1.017754E-005	0.009086	8
	9	114	37828.12	2958.324	-369.0982	1	2981.26	-7.111814	-8.691336E-006	-0.0001933	9
	10	121	30046.88	2982.148	-327.0337	1	3000.027	-6.258265	-1.174723E-006	0.0069016	8
	11	128	23859.38	3020.104	-332.4445	1	3038.347	-6.281667	-1.518883E-005	5.193864E-005	9
	12	134	18984.38	3042.686	-309.6614	1	3058.402	-5.811121	-1.495648E-005	0.0009444	8
	13	139	15046.87	3065.313	-324.4658	1	3082.438	-6.042303	2.459038E-005	-0.0067009	8
	14	144	11953.13	3112.61	-338.0454	1	3130.913	-6.198322	-9.239237E-006	-0.0015683	8
	15	150	9515.62	3151.664	-365.1612	1	3172.748	-6.608992	2.339646E-005	-0.0081126	8
	16	155	7546.875	3203.941	-398.7759	1	3228.663	-7.094787	2.378156E-005	-0.0047944	8
	17	160	5928.309	3260.809	-442.6207	1	3290.712	-7.730058	2.932609E-005	-0.0006617	9
	18	166	4733.456	3337.447	-509.3672	1	3376.093	-8.677624	-1.522771E-005	5.702459E-005	9
	19	171	3796.875	3367.273	-538.8247	1	3410.111	-9.09129	-1.726918E-006	-0.0043026	8
	20	176	2987.132	3444.685	-592.1776	1	3495.215	-9.7544	2.813203E-005	-0.000451	9
	21	182	2390.625	3530.142	-704.7343	1	3599.799	-11.28974	2.495554E-005	-0.006895	8
	22	187	1884.191	3587.017	-757.7758	1	3666.185	-11.92864	1.637357E-005	4.728056E-005	8
	23	192	1516.544	3680.873	-854.0635	1	3778.657	-13.06304	-1.661595E-006	-0.0043444	8
	24	198	1193.986	3773.163	-996.112	1	3902.435	-14.78863	1.988843E-005	-0.0086011	8
	25	203	946.5144	3851.452	-1180.346	1	4028.263	-17.03862	7.088011E-006	-0.006909	8
	26	207	751.7689	3926.256	-1287.465	1	4131.955	-18.15492	-2.170017E-005	0.0100506	8
	27	211	597.4265	3979.715	-1539.331	1	4267.045	-21.14618	6.245274E-006	-0.0066367	8
	28	214	477.4305	4076.25	-1797.189	1	4454.851	-23.79233	-3.19485E-007	0.0006575	8
	29	217	376.6741	4169.399	-2160.237	1	4695.797	-27.38944	-6.909221E-008	0.0006323	7
	30	219	298.2954	4253.497	-2614.203	1	4992.624	-31.57493	-6.339942E-008	0.0005883	7
	31	221	237.7717	4342.722	-3166.599	1	5374.624	-36.09855	-7.222023E-008	0.0006553	7
	32	224	189.0121	4445.072	-3864.739	1	5890.235	-41.00512	-6.78944E-008	0.0006063	7
	33	226	150.2404	4565.367	-4736.116	1	6578.25	-46.05167	-6.760106E-008	0.0006039	7
	34	229	119.1737	4707.698	-5831.058	1	7494.242	-51.08437	-6.140584E-008	0.0006027	7
	35	231	95.0169	4881.96	-7161.171	1	8666.943	-55.71671	-6.983957E-008	0.00063	7
	36	234	75.60484	5093.154	-8822.285	1	10186.9	-60.00192	-6.268093E-008	0.0005744	7
	37	236	54.50582	5477.173	-11903.53	1	13103.19	-65.29142	-6.223573E-008	0.0005986	7
	38	239	45.95588	5725.807	-13933.06	1	15063.7	-67.65973	-6.375591E-008	0.0005799	7
	39	241	37.20238	6095.004	-16925.33	1	17989.32	-70.19547	-6.78883E-008	0.0006042	7
	40	243	30.04808	6545.043	-20616	1	21630	-72.38671	-7.102675E-008	0.0006435	7
	41	246	23.91582	7131.383	-25453.32	1	26433.46	-74.34846	-7.420945E-008	0.0006809	7
	42	248	18.60119	7959.811	-32137.68	1	33108.75	-76.08902	-6.857226E-008	0.0006678	7
	43	251	15.02404	8805.281	-39133.49	1	40111.88	-77.31927	-6.465906E-008	0.0005746	7
	44	253	12.01923	9943.16	-48133.44	1	49149.71	-78.3283	-6.96396E-009	0.0006606	6
	45	255	9.450605	11432.12	-60102.04	1	61179.64	-79.23032	-7.430205E-009	0.0006531	6
	46	258	7.512019	13243.23	-74326.65	1	75497.24	-79.89728	-7.123065E-009	0.0006211	6
	47	261	5.978954	15452.78	-91766.3	1	93058.28	-80.44148	-7.061887E-009	0.000626	6
	48	264	4.734848	18264.33	-113906.7	1	115361.7	-80.89047	-7.686269E-009	0.0007496	6
	49	268	3.75601	21816.04	-140967.9	1	142646	-81.20276	-7.384264E-009	0.0006235	6
	50	273	3.004808	26025.84	-173052.6	1	174998.7	-81.44724	-6.620362E-009	0.0006281	6
	51	280	2.372217	31753.64	-214822.1	1	217156.3	-81.59179	-7.242359E-009	0.0006669	6
	52	284	1.878005	38839.47	-266905.7	1	269716.8	-81.72057	-7.643456E-009	0.0006581	6
	53	289	1.512097	46290.01	-325619.2	1	328893	-81.90905	-7.383181E-009	0.0005595	6
	54	294	1.201923	57185.77	-402625.3	1	406666.2	-81.91622	-7.61371E-009	0.0006513	6
	55	300	0.956633	70258.22	-496618.7	1	501563.9	-81.94762	-9.059764E-010	5.945197E-006	5
