EXPLAIN
TAG	EISPOT
TITLE	LABEL	Potentiostatic EIS	Test Identifier
DATE	LABEL	9/15/2020	Date
TIME	LABEL	2:53:58	Time
NOTES	NOTES	1	Notes...
	
PSTAT	PSTAT	REF3000-16137	Potentiostat
VDC	POTEN	0.00000E+000	T	DC Voltage (V)
FREQINIT	QUANT	3.00000E+005	Initial Freq. (Hz)
FREQFINAL	QUANT	1.00000E+000	Final Freq. (Hz)
PTSPERDEC	QUANT	1.00000E+001	Points/decade
VAC	QUANT	5.00000E+001	AC Voltage (mV rms)
AREA	QUANT	1.00000E+000	Sample Area (cm^2)
SPEED	SELECTOR	2	Optimize for:
ZGUESS	QUANT	1.00000E+003	Estimated Z (ohms)
EOC	QUANT	0	Open Circuit (V)
SEQUENCER	TOGGLE	TRUE	Run as Sequence
PSTATMODEL	IQUANT	5	Pstat Model
PSTATSECTION	LABEL	REF3000-16137	Pstat Section
PSTATSERIALNO	LABEL	16137	Pstat Serial Number
CTRLMODE	IQUANT	1	Control Mode
IESTAB	IQUANT	0	I/E Stability
CASPEED	IQUANT	1	Control Amp Speed
CONVENTION	IQUANT	1	Current Convention
ICHRANGE	IQUANT	2	Ich Range
ICHRANGEMODE	TOGGLE	F	Ich Auto Range
ICHOFFSETENABLE	TOGGLE	T	Ich Offset Enable
ICHOFFSET	QUANT	0	Ich Offset (V)
ICHFILTER	IQUANT	3	Ich Filter
VCHRANGE	IQUANT	2	Vch Range
VCHRANGEMODE	TOGGLE	F	Vch Auto Range
VCHOFFSETENABLE	TOGGLE	T	Vch Offset Enable
VCHOFFSET	QUANT	0	Vch Offset (V)
VCHFILTER	IQUANT	3	Vch Filter
ACHRANGE	IQUANT	2	Ach Range
ACHOFFSETENABLE	TOGGLE	F	Ach Offset Enable
ACHOFFSET	QUANT	0	Ach Offset (V)
ACHFILTER	IQUANT	3	Ach Filter
IERANGELOWERLIMIT	IQUANT	2	I/E Range Lower Limit
IERANGEMODE	TOGGLE	F	I/E AutoRange
IERANGE	IQUANT	11	I/E Range
POSFEEDENABLE	TOGGLE	F	Positive Feedback IR Comp
POSFEEDRESISTANCE	QUANT	0	Positive Feedback Resistance (ohm)
ACHSELECT	IQUANT	0	Ach Select
CABLEID	IQUANT	13	Cable ID
DCCALDATE	LABEL	7/31/2020	DC Calibration Date
ACCALDATE	LABEL	7/31/2020	AC Calibration Date
THERMOSELECT	IQUANT	1	Thermo Select
FRAMEWORKVERSION	QUANT	6.33	Framework Version
INSTRUMENTVERSION	LABEL	3.50	Instrument Version
COMPLIANCEVOLTAGE	IQUANT	0	Compliance Voltage
ZCURVE	TABLE
	Pt	Time	Freq	Zreal	Zimag	Zsig	Zmod	Zphz	Idc	Vdc	IERange
	#	s	Hz	ohm	ohm	V	ohm	°	A	V	#
	0	7	300046.9	131.2921	-7.104223	1	131.4841	-3.097258	5.516609E-005	-0.0005967	9
	1	10	238359.4	132.3469	-8.521449	1	132.6209	-3.684031	1.643332E-005	-0.0014761	9
	2	13	189328.1	133.7062	-10.14719	1	134.0907	-4.339957	-3.296673E-005	-0.0005011	9
	3	16	150421.9	135.0858	-11.93285	1	135.6118	-5.048141	-6.545084E-006	-0.0012099	9
	4	18	119484.4	136.3179	-13.55254	1	136.9899	-5.677612	-7.629214E-006	-0.0011533	9
	5	21	94921.88	138.0066	-15.67376	1	138.8938	-6.479461	2.544535E-005	-0.0004785	9
	6	23	75421.88	139.9096	-18.07367	1	141.0721	-7.360765	6.034158E-006	-0.0005628	9
	7	26	59859.37	142.0728	-20.79895	1	143.5872	-8.328731	1.849107E-006	0.0004898	9
	8	28	47578.12	144.5007	-23.60261	1	146.4156	-9.276718	1.981683E-005	-0.0007919	9
	9	31	37828.12	147.058	-26.83763	1	149.4868	-10.34249	-2.023351E-006	-0.0003229	9
	10	33	30046.88	149.7978	-30.43011	1	152.8574	-11.48288	2.100993E-005	-0.0008315	9
	11	36	23859.38	152.7789	-34.71276	1	156.6728	-12.8008	-6.836085E-006	0.0008235	9
	12	38	18984.38	155.6897	-39.59498	1	160.6457	-14.26895	7.040911E-006	-0.0005811	9
	13	41	15046.87	158.8471	-45.60411	1	165.2638	-16.01848	-2.27837E-005	0.0008207	9
	14	43	11953.13	161.3953	-53.07656	1	169.8987	-18.204	2.73884E-006	0.0005543	9
	15	45	9515.62	164.5998	-62.05037	1	175.9072	-20.65529	2.586649E-005	-0.0006546	9
	16	48	7546.875	167.5019	-73.61892	1	182.9662	-23.72602	-2.082503E-005	0.0005021	9
	17	50	5928.309	170.8708	-88.991	1	192.6557	-27.51089	-6.204809E-006	0.0007626	9
	18	52	4733.456	174.0218	-106.5602	1	204.0555	-31.48072	-2.105673E-005	0.0006565	9
	19	54	3796.875	177.7902	-128.2892	1	219.2429	-35.81332	-1.800854E-005	0.0009276	9
	20	57	2987.132	182.3019	-157.8053	1	241.1151	-40.88031	-1.857239E-005	0.0009099	9
	21	59	2390.625	187.1691	-192.4533	1	268.4596	-45.79749	2.115843E-006	0.0004936	9
	22	63	1884.191	193.7414	-237.9398	1	306.8405	-50.84594	-6.991656E-006	0.0008019	9
	23	65	1516.544	199.8977	-288.9123	1	351.3252	-55.32074	-1.027243E-005	-4.306612E-006	9
	24	67	1193.986	209.2185	-358.8702	1	415.4036	-59.75815	-9.465004E-006	-2.469506E-005	9
	25	70	946.5144	218.9377	-443.0453	1	494.189	-63.70301	-6.873664E-006	0.0032147	8
	26	72	751.7689	232.4407	-545.1966	1	592.6786	-66.90937	1.163074E-006	-0.001267	8
	27	75	597.4265	248.4243	-673.5698	1	717.9213	-69.75514	-3.840854E-006	0.000518	8
	28	77	477.4305	267.9581	-827.9099	1	870.1933	-72.06551	1.916134E-007	0.0006456	8
	29	79	376.6741	293.2096	-1029.528	1	1070.467	-74.10304	1.831777E-007	0.000651	8
	30	82	298.2954	323.9091	-1276.111	1	1316.578	-75.75768	1.48519E-007	0.0006964	8
	31	84	237.7717	360.4604	-1572.369	1	1613.157	-77.08823	1.752369E-007	0.0006506	8
	32	86	189.0121	405.8987	-1942.671	1	1984.622	-78.19849	1.890091E-007	0.0006447	8
	33	89	150.2404	462.0364	-2400.603	1	2444.662	-79.10568	1.939463E-007	0.0006433	8
	34	91	119.1737	531.2606	-2973.19	1	3020.281	-79.86909	1.978758E-007	0.000651	8
	35	93	95.0169	615.6192	-3664.497	1	3715.848	-80.46362	1.948852E-007	0.0006415	8
	36	96	75.60484	722.8815	-4535.634	1	4592.878	-80.94446	1.087266E-008	0.0006337	7
	37	99	54.50582	917.187	-6136.541	1	6204.705	-81.49931	8.883894E-009	0.0006254	7
	38	101	45.95588	1046.173	-7187.232	1	7262.973	-81.71819	1.642969E-008	0.0006127	7
	39	103	37.20238	1237.021	-8734.776	1	8821.936	-81.93936	1.436269E-008	0.000622	7
	40	106	30.04808	1476.446	-10650.68	1	10752.53	-82.10769	1.308052E-008	0.0006224	7
	41	108	23.91582	1783.849	-13133.34	1	13253.93	-82.26508	1.116876E-008	0.0006131	7
	42	111	18.60119	2231.278	-16585.31	1	16734.73	-82.33781	1.329151E-008	0.0006175	7
	43	113	15.02404	2686.592	-20183.28	1	20361.3	-82.41795	1.583715E-008	0.0006295	7
	44	115	12.01923	3287.779	-24801.27	1	25018.24	-82.44862	1.458059E-008	0.0006198	7
	45	118	9.450605	4111.774	-30985.15	1	31256.78	-82.44093	1.311732E-008	0.0006327	7
	46	120	7.512019	5049.853	-38227.53	1	38559.63	-82.4748	1.760675E-008	0.0005985	7
	47	123	5.978954	6269.49	-47202.05	1	47616.59	-82.43412	1.744229E-009	0.0006694	6
	48	126	4.734848	7812.803	-58512.44	1	59031.73	-82.39464	1.527854E-009	0.0006448	6
	49	129	3.75601	9762.63	-72462.5	1	73117.19	-82.32693	1.483035E-009	0.0007347	6
	50	135	3.004808	12154.06	-88932.51	1	89759.19	-82.21782	1.821499E-009	0.0006418	6
	51	141	2.372217	15461.88	-110619.2	1	111694.5	-82.04299	1.663095E-009	0.0005897	6
	52	145	1.878005	19587.58	-137017.3	1	138410.3	-81.86429	1.966689E-009	0.0006824	6
	53	150	1.512097	24792.42	-166769.9	1	168602.6	-81.5442	1.461535E-009	0.0005824	6
	54	155	1.201923	31422.53	-205814.4	1	208199.3	-81.31945	1.596457E-009	0.0006941	6
	55	162	0.956633	39912.23	-253028.2	1	256156.7	-81.03612	1.385578E-009	2.236041E-005	6
