EXPLAIN
TAG	EISPOT
TITLE	LABEL	Potentiostatic EIS	Test Identifier
DATE	LABEL	9/15/2020	Date
TIME	LABEL	2:56:49	Time
NOTES	NOTES	1	Notes...
	
PSTAT	PSTAT	REF3000-16137	Potentiostat
VDC	POTEN	0.00000E+000	T	DC Voltage (V)
FREQINIT	QUANT	3.00000E+005	Initial Freq. (Hz)
FREQFINAL	QUANT	1.00000E+000	Final Freq. (Hz)
PTSPERDEC	QUANT	1.00000E+001	Points/decade
VAC	QUANT	5.00000E+001	AC Voltage (mV rms)
AREA	QUANT	1.00000E+000	Sample Area (cm^2)
SPEED	SELECTOR	2	Optimize for:
ZGUESS	QUANT	1.00000E+003	Estimated Z (ohms)
EOC	QUANT	0	Open Circuit (V)
SEQUENCER	TOGGLE	TRUE	Run as Sequence
PSTATMODEL	IQUANT	5	Pstat Model
PSTATSECTION	LABEL	REF3000-16137	Pstat Section
PSTATSERIALNO	LABEL	16137	Pstat Serial Number
CTRLMODE	IQUANT	1	Control Mode
IESTAB	IQUANT	0	I/E Stability
CASPEED	IQUANT	1	Control Amp Speed
CONVENTION	IQUANT	1	Current Convention
ICHRANGE	IQUANT	2	Ich Range
ICHRANGEMODE	TOGGLE	F	Ich Auto Range
ICHOFFSETENABLE	TOGGLE	T	Ich Offset Enable
ICHOFFSET	QUANT	0	Ich Offset (V)
ICHFILTER	IQUANT	3	Ich Filter
VCHRANGE	IQUANT	2	Vch Range
VCHRANGEMODE	TOGGLE	F	Vch Auto Range
VCHOFFSETENABLE	TOGGLE	T	Vch Offset Enable
VCHOFFSET	QUANT	0	Vch Offset (V)
VCHFILTER	IQUANT	3	Vch Filter
ACHRANGE	IQUANT	2	Ach Range
ACHOFFSETENABLE	TOGGLE	F	Ach Offset Enable
ACHOFFSET	QUANT	0	Ach Offset (V)
ACHFILTER	IQUANT	3	Ach Filter
IERANGELOWERLIMIT	IQUANT	2	I/E Range Lower Limit
IERANGEMODE	TOGGLE	F	I/E AutoRange
IERANGE	IQUANT	11	I/E Range
POSFEEDENABLE	TOGGLE	F	Positive Feedback IR Comp
POSFEEDRESISTANCE	QUANT	0	Positive Feedback Resistance (ohm)
ACHSELECT	IQUANT	0	Ach Select
CABLEID	IQUANT	13	Cable ID
DCCALDATE	LABEL	7/31/2020	DC Calibration Date
ACCALDATE	LABEL	7/31/2020	AC Calibration Date
THERMOSELECT	IQUANT	1	Thermo Select
FRAMEWORKVERSION	QUANT	6.33	Framework Version
INSTRUMENTVERSION	LABEL	3.50	Instrument Version
COMPLIANCEVOLTAGE	IQUANT	0	Compliance Voltage
ZCURVE	TABLE
	Pt	Time	Freq	Zreal	Zimag	Zsig	Zmod	Zphz	Idc	Vdc	IERange
	#	s	Hz	ohm	ohm	V	ohm	°	A	V	#
	0	7	300046.9	135.8224	-6.933169	1	135.9992	-2.922176	-8.71591E-005	0.0029025	9
	1	10	238359.4	136.6029	-8.920971	1	136.8938	-3.736446	-9.713871E-006	0.0009541	9
	2	13	189328.1	137.9439	-10.34533	1	138.3313	-4.288962	-9.866269E-006	0.0011058	9
	3	16	150421.9	139.0135	-12.27297	1	139.5542	-5.045344	-7.746861E-005	0.0021472	9
	4	19	119484.4	140.595	-14.20629	1	141.3109	-5.769814	1.937134E-005	-0.0014519	9
	5	22	94921.88	142.5483	-16.03522	1	143.4473	-6.418208	-1.086259E-005	0.0007534	9
	6	24	75421.88	144.4263	-18.52376	1	145.6093	-7.308715	-9.342445E-006	-0.0000984	9
	7	27	59859.37	146.6448	-21.19696	1	148.1688	-8.224927	2.519608E-005	-0.0006452	9
	8	29	47578.12	149.0638	-24.16238	1	151.0094	-9.207231	1.407679E-005	-0.0007287	9
	9	32	37828.12	151.7245	-27.38908	1	154.1768	-10.23275	-2.109446E-005	0.0005002	9
	10	34	30046.88	154.6128	-31.15834	1	157.7211	-11.39392	-2.09315E-005	0.0004759	9
	11	37	23859.38	157.5926	-35.29604	1	161.4968	-12.62421	2.480423E-005	-0.0004887	9
	12	39	18984.38	160.5888	-40.41109	1	165.5953	-14.12483	-2.082737E-005	0.0004939	9
	13	42	15046.87	163.9292	-46.4238	1	170.3759	-15.81182	2.411757E-005	-0.0007148	9
	14	44	11953.13	166.7708	-53.89181	1	175.2621	-17.90819	-1.465545E-005	0.0001727	9
	15	46	9515.62	169.821	-63.08651	1	181.1604	-20.37944	2.360855E-005	-0.0002915	9
	16	48	7546.875	173.0146	-74.66045	1	188.4363	-23.3415	1.195059E-005	0.0001896	9
	17	51	5928.309	176.2286	-89.72777	1	197.7564	-26.98317	-1.404839E-005	0.0008846	9
	18	53	4733.456	179.6228	-108.0027	1	209.5923	-31.01744	-1.980113E-005	0.0009395	9
	19	55	3796.875	183.3707	-129.826	1	224.6767	-35.2984	2.553332E-005	-0.0004813	9
	20	58	2987.132	188.0269	-159.5187	1	246.5772	-40.31068	2.452949E-005	-0.0004404	9
	21	60	2390.625	192.6784	-194.3095	1	273.6442	-45.24149	2.371932E-005	-0.0007477	9
	22	64	1884.191	199.9385	-240.5233	1	312.7729	-50.26445	1.962424E-005	-0.0007602	9
	23	66	1516.544	206.2644	-292.0065	1	357.5091	-54.7638	-9.204336E-006	-4.152464E-005	9
	24	68	1193.986	215.8583	-362.5357	1	421.9323	-59.2299	-1.797158E-005	0.0003861	9
	25	71	946.5144	226.361	-446.2031	1	500.3364	-63.1011	-4.173069E-006	0.0005755	8
	26	73	751.7689	238.7084	-550.5693	1	600.0901	-66.56006	6.461504E-006	-9.090989E-005	8
	27	75	597.4265	254.1824	-679.9621	1	725.9182	-69.50333	3.842778E-006	0.0011334	8
	28	78	477.4305	274.4155	-836.027	1	879.912	-71.82822	1.712677E-007	0.0006528	8
	29	80	376.6741	299.8944	-1039.662	1	1082.051	-73.9096	1.628321E-007	0.0006451	8
	30	82	298.2954	330.7991	-1288.643	1	1330.424	-75.60284	1.713907E-007	0.0006511	8
	31	85	237.7717	367.8211	-1587.854	1	1629.9	-76.95766	1.613149E-007	0.0006493	8
	32	87	189.0121	413.7839	-1961.796	1	2004.959	-78.08969	1.823298E-007	0.0006461	8
	33	89	150.2404	470.3818	-2424.176	1	2469.39	-79.01891	1.908216E-007	0.0006382	8
	34	92	119.1737	540.5943	-3002.813	1	3051.087	-79.7944	1.922648E-007	0.0006498	8
	35	94	95.0169	625.7531	-3700.337	1	3752.874	-80.40169	1.891872E-007	0.0006404	8
	36	97	75.60484	734.2949	-4580.425	1	4638.91	-80.89232	9.312416E-009	0.0006249	7
	37	99	54.50582	930.4185	-6195.659	1	6265.131	-81.45956	8.574345E-009	0.0006221	7
	38	102	45.95588	1060.846	-7256.959	1	7334.088	-81.68322	1.632344E-008	0.0006162	7
	39	104	37.20238	1254.621	-8824.589	1	8913.329	-81.9083	1.172389E-008	0.0006403	7
	40	107	30.04808	1490.774	-10743.29	1	10846.23	-82.09989	8.838195E-009	0.0006237	7
	41	109	23.91582	1805.535	-13256.26	1	13378.65	-82.2439	1.085469E-008	0.0006215	7
	42	111	18.60119	2248.575	-16735.88	1	16886.26	-82.34776	1.546736E-008	0.0006213	7
	43	114	15.02404	2717.082	-20387.41	1	20567.67	-82.40878	1.63541E-008	0.0006287	7
	44	116	12.01923	3325.042	-25045.02	1	25264.77	-82.43748	1.221853E-008	0.000611	7
	45	119	9.450605	4152.262	-31250.27	1	31524.92	-82.43137	1.391159E-008	0.0006336	7
	46	121	7.512019	5095.591	-38606.48	1	38941.31	-82.48111	1.692118E-008	0.0006343	7
	47	124	5.978954	6332.451	-47662.72	1	48081.55	-82.43203	2.662842E-009	0.0006573	6
	48	127	4.734848	7899.569	-59116.09	1	59641.55	-82.38876	1.930372E-009	0.0006925	6
	49	130	3.75601	9825.31	-73189.13	1	73845.69	-82.35401	2.070262E-009	0.0006703	6
	50	136	3.004808	12212.47	-89861.33	1	90687.39	-82.26072	1.995365E-009	0.0007025	6
	51	142	2.372217	15412.88	-111690.3	1	112748.8	-82.143	1.195205E-009	0.0007743	6
	52	146	1.878005	19718.57	-138395.9	1	139793.6	-81.89111	1.502636E-009	0.0006396	6
	53	151	1.512097	24897.86	-168586.1	1	170414.7	-81.59892	1.776507E-009	0.0007561	6
	54	156	1.201923	31556.38	-207969.2	1	210349.7	-81.37199	1.778363E-009	0.0006334	6
	55	163	0.956633	40042.85	-255688.8	1	258805.3	-81.09933	1.192129E-009	2.662517E-005	6
