EXPLAIN
TAG	EISPOT
TITLE	LABEL	Potentiostatic EIS	Test Identifier
DATE	LABEL	9/15/2020	Date
TIME	LABEL	6:03:34	Time
NOTES	NOTES	1	Notes...
	
PSTAT	PSTAT	REF3000-16137	Potentiostat
VDC	POTEN	0.00000E+000	T	DC Voltage (V)
FREQINIT	QUANT	3.00000E+005	Initial Freq. (Hz)
FREQFINAL	QUANT	1.00000E+000	Final Freq. (Hz)
PTSPERDEC	QUANT	1.00000E+001	Points/decade
VAC	QUANT	5.00000E+001	AC Voltage (mV rms)
AREA	QUANT	1.00000E+000	Sample Area (cm^2)
SPEED	SELECTOR	2	Optimize for:
ZGUESS	QUANT	1.00000E+003	Estimated Z (ohms)
EOC	QUANT	0	Open Circuit (V)
SEQUENCER	TOGGLE	TRUE	Run as Sequence
PSTATMODEL	IQUANT	5	Pstat Model
PSTATSECTION	LABEL	REF3000-16137	Pstat Section
PSTATSERIALNO	LABEL	16137	Pstat Serial Number
CTRLMODE	IQUANT	1	Control Mode
IESTAB	IQUANT	0	I/E Stability
CASPEED	IQUANT	1	Control Amp Speed
CONVENTION	IQUANT	1	Current Convention
ICHRANGE	IQUANT	2	Ich Range
ICHRANGEMODE	TOGGLE	F	Ich Auto Range
ICHOFFSETENABLE	TOGGLE	T	Ich Offset Enable
ICHOFFSET	QUANT	0	Ich Offset (V)
ICHFILTER	IQUANT	3	Ich Filter
VCHRANGE	IQUANT	2	Vch Range
VCHRANGEMODE	TOGGLE	F	Vch Auto Range
VCHOFFSETENABLE	TOGGLE	T	Vch Offset Enable
VCHOFFSET	QUANT	0	Vch Offset (V)
VCHFILTER	IQUANT	3	Vch Filter
ACHRANGE	IQUANT	2	Ach Range
ACHOFFSETENABLE	TOGGLE	F	Ach Offset Enable
ACHOFFSET	QUANT	0	Ach Offset (V)
ACHFILTER	IQUANT	3	Ach Filter
IERANGELOWERLIMIT	IQUANT	2	I/E Range Lower Limit
IERANGEMODE	TOGGLE	F	I/E AutoRange
IERANGE	IQUANT	11	I/E Range
POSFEEDENABLE	TOGGLE	F	Positive Feedback IR Comp
POSFEEDRESISTANCE	QUANT	0	Positive Feedback Resistance (ohm)
ACHSELECT	IQUANT	0	Ach Select
CABLEID	IQUANT	13	Cable ID
DCCALDATE	LABEL	7/31/2020	DC Calibration Date
ACCALDATE	LABEL	7/31/2020	AC Calibration Date
THERMOSELECT	IQUANT	1	Thermo Select
FRAMEWORKVERSION	QUANT	6.33	Framework Version
INSTRUMENTVERSION	LABEL	3.50	Instrument Version
COMPLIANCEVOLTAGE	IQUANT	0	Compliance Voltage
ZCURVE	TABLE
	Pt	Time	Freq	Zreal	Zimag	Zsig	Zmod	Zphz	Idc	Vdc	IERange
	#	s	Hz	ohm	ohm	V	ohm	°	A	V	#
	0	15	300046.9	1569.982	-4275.357	1	4554.506	-69.83593	-1.675934E-005	0.0010341	9
	1	31	238359.4	2276.337	-4966.565	1	5463.376	-65.37648	-1.483772E-005	0.001664	9
	2	44	189328.1	3321.052	-5733.558	1	6625.94	-59.91926	2.794145E-005	-0.0015743	9
	3	52	150421.9	4448.83	-6174.692	1	7610.448	-54.22747	8.246223E-005	-0.0033177	9
	4	59	119484.4	5991.489	-6403.471	1	8769.4	-46.90369	3.917033E-005	-0.0178244	8
	5	68	94921.88	7424.263	-6400.011	1	9802.03	-40.76265	1.685379E-005	0.000393	8
	6	77	75421.88	8841.742	-6251.731	1	10828.69	-35.26299	1.577364E-005	-0.009029	8
	7	84	59859.37	10231.58	-5847.489	1	11784.66	-29.74857	-9.470205E-006	-0.0019427	8
	8	93	47578.12	12195.42	-4180.693	1	12892.11	-18.92215	-6.967296E-006	0.0170631	7
	9	97	37828.12	12726.41	-3539.467	1	13209.45	-15.5423	-5.347327E-006	0.0254908	7
	10	103	30046.88	13070.01	-3056.715	1	13422.7	-13.16331	7.143896E-006	-0.0165188	7
	11	108	23859.38	13457.4	-2603.982	1	13707.01	-10.95129	2.437611E-006	0.0098228	7
	12	112	18984.38	13584.19	-2198.296	1	13760.91	-9.192346	-2.798724E-006	-0.0063965	7
	13	116	15046.87	13805.77	-1919.976	1	13938.63	-7.917377	-2.100572E-006	0.021771	7
	14	121	11953.13	13935.29	-1713.551	1	14040.24	-7.010178	-6.987746E-006	0.0219301	7
	15	125	9515.62	14107.66	-1609.954	1	14199.23	-6.510381	-6.429402E-006	0.0241433	7
	16	129	7546.875	14237	-1526.961	1	14318.65	-6.121745	-5.878763E-007	-0.0139202	7
	17	133	5928.309	14444.05	-1478.329	1	14519.5	-5.843798	-6.228373E-006	0.0102917	7
	18	137	4733.456	14510.82	-1406.036	1	14578.78	-5.534438	7.176699E-006	-0.0166493	7
	19	142	3796.875	14706.41	-1488.534	1	14781.55	-5.779604	7.145524E-006	-0.0164386	7
	20	146	2987.132	14789.13	-1509.603	1	14865.98	-5.82829	-6.389127E-006	0.0244017	7
	21	150	2390.625	15392.61	-1692.41	1	15485.37	-6.274442	1.613316E-006	-0.0197391	7
	22	155	1884.191	15285.49	-1767.965	1	15387.4	-6.597683	3.647583E-006	-0.0239048	7
	23	159	1516.544	15472.93	-2114.223	1	15616.7	-7.780718	-6.975862E-006	0.021928	7
	24	163	1193.986	15752.37	-2178.797	1	15902.33	-7.874931	-2.041585E-006	0.0218843	7
	25	168	946.5144	16061.01	-2440.906	1	16245.43	-8.641522	6.079988E-006	-0.0082055	7
	26	170	751.7689	16462.79	-3198.313	1	16770.59	-10.9942	2.250586E-008	0.0168148	7
	27	173	597.4265	16801.29	-3189.028	1	17101.26	-10.74738	-5.323074E-006	0.0253274	7
	28	175	477.4305	17116.85	-3576.676	1	17486.54	-11.8025	-7.60786E-008	0.0006621	7
	29	178	376.6741	17505.77	-4033.186	1	17964.37	-12.97408	-7.774273E-008	0.0006178	7
	30	180	298.2954	17893.33	-4561.303	1	18465.55	-14.30106	-7.871151E-008	0.0006657	7
	31	182	237.7717	18260.91	-5190.738	1	18984.32	-15.86802	-7.902779E-008	0.0006538	7
	32	185	189.0121	18631.75	-5969.065	1	19564.56	-17.76393	-6.902601E-008	0.0005999	7
	33	187	150.2404	18989.42	-6952.936	1	20222.3	-20.1101	-7.644623E-008	0.0006642	7
	34	190	119.1737	19340.3	-8216.843	1	21013.42	-23.0185	-7.161206E-008	0.0005799	7
	35	192	95.0169	19723.79	-9758.45	1	22005.8	-26.32414	-7.467273E-008	0.0006607	7
	36	195	75.60484	20103.01	-11720.24	1	23270.04	-30.24259	-7.132808E-008	0.0005665	7
	37	197	54.50582	20681.21	-15449.56	1	25814.75	-36.76096	-6.977803E-008	0.0005754	7
	38	200	45.95588	21072.9	-17922.06	1	27663.46	-40.38047	-6.899271E-008	0.0005822	7
	39	202	37.20238	21567.53	-21606.17	1	30528.43	-45.05129	-7.435226E-008	0.0005996	7
	40	204	30.04808	22191.37	-26182.16	1	34321.46	-49.71619	-7.651707E-008	0.0006552	7
	41	207	23.91582	22968.12	-32192.29	1	39545.9	-54.49342	-7.168266E-008	0.0005708	7
	42	209	18.60119	24047.85	-40636.38	1	47218.8	-59.38375	-6.366081E-009	0.0006297	6
	43	212	15.02404	25099.44	-49321.88	1	55341.02	-63.02889	-8.074488E-009	0.0006203	6
	44	214	12.01923	26483.8	-60573.26	1	66109.84	-66.38412	-8.590763E-009	0.0006329	6
	45	216	9.450605	28280.78	-75628.93	1	80743.66	-69.49715	-7.592137E-009	0.0006257	6
	46	219	7.512019	30430.64	-93532.77	1	98358.5	-71.97784	-7.579634E-009	0.0006315	6
	47	222	5.978954	33118.32	-115535.5	1	120188.5	-74.00502	-8.234438E-009	0.000659	6
	48	226	4.734848	36514.33	-143572.1	1	148142.7	-75.73064	-7.125954E-009	0.0006416	6
	49	230	3.75601	40706.81	-177792.4	1	182392.9	-77.104	-7.632943E-009	0.0006281	6
	50	235	3.004808	45749.6	-218487	1	223225.5	-78.17355	-7.627779E-009	0.00062	6
	51	241	2.372217	52920.65	-271960.9	1	277061.9	-78.98846	-8.043433E-009	0.0007143	6
	52	246	1.878005	60916.09	-338304.8	1	343745.4	-79.79254	-8.295865E-009	0.0006466	6
	53	250	1.512097	70261.36	-412286.2	1	418230.3	-80.32863	-7.974479E-009	0.0006472	6
	54	256	1.201923	83562.44	-512001	1	518775.2	-80.73062	-9.479494E-010	0.0006128	5
	55	262	0.956633	99595.7	-631962.1	1	639762	-81.04398	-9.584343E-010	1.655518E-006	5
