EXPLAIN
TAG	EISPOT
TITLE	LABEL	Potentiostatic EIS	Test Identifier
DATE	LABEL	9/15/2020	Date
TIME	LABEL	4:06:46	Time
NOTES	NOTES	1	Notes...
	
PSTAT	PSTAT	REF3000-16137	Potentiostat
VDC	POTEN	0.00000E+000	T	DC Voltage (V)
FREQINIT	QUANT	3.00000E+005	Initial Freq. (Hz)
FREQFINAL	QUANT	1.00000E+000	Final Freq. (Hz)
PTSPERDEC	QUANT	1.00000E+001	Points/decade
VAC	QUANT	5.00000E+001	AC Voltage (mV rms)
AREA	QUANT	1.00000E+000	Sample Area (cm^2)
SPEED	SELECTOR	2	Optimize for:
ZGUESS	QUANT	1.00000E+003	Estimated Z (ohms)
EOC	QUANT	0	Open Circuit (V)
SEQUENCER	TOGGLE	TRUE	Run as Sequence
PSTATMODEL	IQUANT	5	Pstat Model
PSTATSECTION	LABEL	REF3000-16137	Pstat Section
PSTATSERIALNO	LABEL	16137	Pstat Serial Number
CTRLMODE	IQUANT	1	Control Mode
IESTAB	IQUANT	0	I/E Stability
CASPEED	IQUANT	1	Control Amp Speed
CONVENTION	IQUANT	1	Current Convention
ICHRANGE	IQUANT	2	Ich Range
ICHRANGEMODE	TOGGLE	F	Ich Auto Range
ICHOFFSETENABLE	TOGGLE	T	Ich Offset Enable
ICHOFFSET	QUANT	0	Ich Offset (V)
ICHFILTER	IQUANT	3	Ich Filter
VCHRANGE	IQUANT	2	Vch Range
VCHRANGEMODE	TOGGLE	F	Vch Auto Range
VCHOFFSETENABLE	TOGGLE	T	Vch Offset Enable
VCHOFFSET	QUANT	0	Vch Offset (V)
VCHFILTER	IQUANT	3	Vch Filter
ACHRANGE	IQUANT	2	Ach Range
ACHOFFSETENABLE	TOGGLE	F	Ach Offset Enable
ACHOFFSET	QUANT	0	Ach Offset (V)
ACHFILTER	IQUANT	3	Ach Filter
IERANGELOWERLIMIT	IQUANT	2	I/E Range Lower Limit
IERANGEMODE	TOGGLE	F	I/E AutoRange
IERANGE	IQUANT	11	I/E Range
POSFEEDENABLE	TOGGLE	F	Positive Feedback IR Comp
POSFEEDRESISTANCE	QUANT	0	Positive Feedback Resistance (ohm)
ACHSELECT	IQUANT	0	Ach Select
CABLEID	IQUANT	13	Cable ID
DCCALDATE	LABEL	7/31/2020	DC Calibration Date
ACCALDATE	LABEL	7/31/2020	AC Calibration Date
THERMOSELECT	IQUANT	1	Thermo Select
FRAMEWORKVERSION	QUANT	6.33	Framework Version
INSTRUMENTVERSION	LABEL	3.50	Instrument Version
COMPLIANCEVOLTAGE	IQUANT	0	Compliance Voltage
ZCURVE	TABLE
	Pt	Time	Freq	Zreal	Zimag	Zsig	Zmod	Zphz	Idc	Vdc	IERange
	#	s	Hz	ohm	ohm	V	ohm	°	A	V	#
	0	13	300046.9	375.3709	-34.57191	1	376.9596	-5.262134	6.141393E-006	0.0012978	9
	1	18	238359.4	378.4005	-33.04347	1	379.8405	-4.990641	8.325517E-005	-0.0026815	9
	2	23	189328.1	381.1898	-32.70838	1	382.5905	-4.90431	-1.574746E-005	0.0010751	9
	3	31	150421.9	384.0527	-34.6377	1	385.6115	-5.153561	2.801371E-005	0.0008353	9
	4	38	119484.4	387.4246	-34.20667	1	388.9317	-5.045702	4.436735E-006	0.0015021	9
	5	45	94921.88	392.7964	-24.59865	1	393.5659	-3.583436	-1.356386E-005	0.0047659	8
	6	48	75421.88	394.538	-30.33199	1	395.7022	-4.396239	-1.023385E-005	0.0010448	8
	7	50	59859.37	399.1005	-35.51323	1	400.6774	-5.084969	-8.300082E-006	0.0060848	8
	8	53	47578.12	403.1211	-41.41446	1	405.2429	-5.865676	-1.030002E-005	0.0015554	8
	9	55	37828.12	408.7469	-48.39399	1	411.6018	-6.752158	2.00161E-006	-0.0031309	8
	10	58	30046.88	414.1875	-54.20765	1	417.7197	-7.456325	-2.574679E-006	-0.0014656	8
	11	61	23859.38	421.0658	-63.08521	1	425.7654	-8.520828	1.068391E-005	-0.0003	8
	12	63	18984.38	428.2467	-72.15685	1	434.2831	-9.56414	7.017097E-006	-0.0042031	8
	13	65	15046.87	436.1592	-81.13532	1	443.6415	-10.53784	1.466897E-005	-0.0040555	8
	14	67	11953.13	444.5191	-93.61073	1	454.2688	-11.89209	1.319462E-005	-0.0045249	8
	15	70	9515.62	453.3085	-105.8555	1	465.504	-13.14403	7.991885E-006	-0.0045385	8
	16	72	7546.875	462.7126	-120.6584	1	478.1855	-14.61517	-8.405791E-006	0.005917	8
	17	74	5928.309	471.9248	-138.5248	1	491.8355	-16.35863	-4.028681E-006	0.0050691	8
	18	77	4733.456	482.2876	-160.9246	1	508.4271	-18.45227	1.083843E-005	-0.0003079	8
	19	79	3796.875	491.2556	-187.8512	1	525.9469	-20.92635	9.403973E-006	-0.0051328	8
	20	81	2987.132	499.5945	-222.1052	1	546.7407	-23.96854	-3.86204E-006	0.0050594	8
	21	84	2390.625	508.7685	-267.3707	1	574.7455	-27.72306	-1.292776E-005	0.0055146	8
	22	86	1884.191	516.259	-323.6516	1	609.3223	-32.0843	-1.329084E-005	0.0037484	8
	23	88	1516.544	528.8091	-388.4518	1	656.1508	-36.30021	-1.075773E-005	0.0016782	8
	24	91	1193.986	543.5815	-478.9376	1	724.4737	-41.38256	1.12805E-005	-0.0004329	8
	25	93	946.5144	554.9025	-589.3372	1	809.4659	-46.72373	-1.147916E-005	0.006009	8
	26	96	751.7689	574.012	-722.2454	1	922.5661	-51.52372	2.49051E-006	-0.0032527	8
	27	99	597.4265	597.8063	-886.8683	1	1069.536	-56.01749	-1.023552E-005	0.0016427	8
	28	101	477.4305	622.501	-1092.188	1	1257.133	-60.3187	-6.589069E-008	0.0006485	8
	29	103	376.6741	655.3823	-1356.839	1	1506.83	-64.21846	-3.66398E-008	0.0006281	8
	30	106	298.2954	695.1973	-1681.05	1	1819.128	-67.53248	-4.492919E-008	0.0006507	8
	31	108	237.7717	742.8276	-2071.178	1	2200.357	-70.26964	-3.387127E-008	0.0006423	8
	32	111	189.0121	801.9542	-2559.427	1	2682.126	-72.60248	-4.052368E-008	0.0006491	8
	33	113	150.2404	875.391	-3164.025	1	3282.889	-74.53483	-2.500053E-008	0.0006362	8
	34	115	119.1737	967.579	-3919.332	1	4037	-76.13248	-6.215026E-008	0.0006509	8
	35	118	95.0169	1081.476	-4841.666	1	4960.979	-77.40862	-1.845131E-008	0.0006223	7
	36	120	75.60484	1220.406	-5980.962	1	6104.204	-78.46721	-1.594578E-008	0.0006066	7
	37	123	54.50582	1477.082	-8092.051	1	8225.756	-79.6554	-1.67264E-008	0.0006102	7
	38	125	45.95588	1648.943	-9475.484	1	9617.89	-80.12814	-1.870668E-008	0.000623	7
	39	128	37.20238	1899.852	-11516.75	1	11672.4	-80.63261	-1.969409E-008	0.0006478	7
	40	130	30.04808	2209.124	-14024.93	1	14197.85	-81.04865	-1.583134E-008	0.0006052	7
	41	133	23.91582	2614.804	-17307.29	1	17503.7	-81.40866	-1.90105E-008	0.0005988	7
	42	135	18.60119	3170.836	-21845.78	1	22074.7	-81.74139	-1.763154E-008	0.0006175	7
	43	137	15.02404	3770.506	-26611.17	1	26876.96	-81.93551	-1.585544E-008	0.0006013	7
	44	140	12.01923	4532.422	-32704.18	1	33016.76	-82.10973	-1.924867E-008	0.0006235	7
	45	142	9.450605	5565.99	-40837.64	1	41215.2	-82.23866	-1.612936E-008	0.0006006	7
	46	145	7.512019	6807.374	-50467.07	1	50924.11	-82.31789	-1.053205E-009	0.0006795	6
	47	147	5.978954	8306.18	-62283.87	1	62835.29	-82.40385	-1.722887E-009	0.0006804	6
	48	150	4.734848	10280.55	-77228.1	1	77909.37	-82.4174	-1.762645E-009	0.0007085	6
	49	154	3.75601	12640.15	-95559.4	1	96391.8	-82.46493	-2.031794E-009	0.0006569	6
	50	159	3.004808	15504.86	-117267	1	118287.6	-82.46813	-1.470771E-009	0.0006882	6
	51	165	2.372217	19204.25	-145889.2	1	147147.7	-82.50094	-2.018642E-009	0.0007301	6
	52	170	1.878005	23707.64	-180885.2	1	182432.2	-82.53311	-2.226434E-009	0.0006364	6
	53	174	1.512097	29152.08	-220433.2	1	222352.5	-82.46641	-1.767386E-009	0.0007121	6
	54	180	1.201923	35880.17	-273131.1	1	275477.7	-82.51613	-2.042718E-009	0.0006283	6
	55	186	0.956633	44559.93	-337434.7	1	340364.2	-82.47733	-2.275619E-009	2.035915E-005	6
