EXPLAIN
TAG	EISPOT
TITLE	LABEL	Potentiostatic EIS	Test Identifier
DATE	LABEL	9/15/2020	Date
TIME	LABEL	1:02:51	Time
NOTES	NOTES	1	Notes...
	
PSTAT	PSTAT	REF3000-16137	Potentiostat
VDC	POTEN	0.00000E+000	T	DC Voltage (V)
FREQINIT	QUANT	3.00000E+005	Initial Freq. (Hz)
FREQFINAL	QUANT	1.00000E+000	Final Freq. (Hz)
PTSPERDEC	QUANT	1.00000E+001	Points/decade
VAC	QUANT	5.00000E+001	AC Voltage (mV rms)
AREA	QUANT	1.00000E+000	Sample Area (cm^2)
SPEED	SELECTOR	2	Optimize for:
ZGUESS	QUANT	1.00000E+003	Estimated Z (ohms)
EOC	QUANT	0	Open Circuit (V)
SEQUENCER	TOGGLE	TRUE	Run as Sequence
PSTATMODEL	IQUANT	5	Pstat Model
PSTATSECTION	LABEL	REF3000-16137	Pstat Section
PSTATSERIALNO	LABEL	16137	Pstat Serial Number
CTRLMODE	IQUANT	1	Control Mode
IESTAB	IQUANT	0	I/E Stability
CASPEED	IQUANT	1	Control Amp Speed
CONVENTION	IQUANT	1	Current Convention
ICHRANGE	IQUANT	2	Ich Range
ICHRANGEMODE	TOGGLE	F	Ich Auto Range
ICHOFFSETENABLE	TOGGLE	T	Ich Offset Enable
ICHOFFSET	QUANT	0	Ich Offset (V)
ICHFILTER	IQUANT	3	Ich Filter
VCHRANGE	IQUANT	2	Vch Range
VCHRANGEMODE	TOGGLE	F	Vch Auto Range
VCHOFFSETENABLE	TOGGLE	T	Vch Offset Enable
VCHOFFSET	QUANT	0	Vch Offset (V)
VCHFILTER	IQUANT	3	Vch Filter
ACHRANGE	IQUANT	2	Ach Range
ACHOFFSETENABLE	TOGGLE	F	Ach Offset Enable
ACHOFFSET	QUANT	0	Ach Offset (V)
ACHFILTER	IQUANT	3	Ach Filter
IERANGELOWERLIMIT	IQUANT	2	I/E Range Lower Limit
IERANGEMODE	TOGGLE	F	I/E AutoRange
IERANGE	IQUANT	11	I/E Range
POSFEEDENABLE	TOGGLE	F	Positive Feedback IR Comp
POSFEEDRESISTANCE	QUANT	0	Positive Feedback Resistance (ohm)
ACHSELECT	IQUANT	0	Ach Select
CABLEID	IQUANT	13	Cable ID
DCCALDATE	LABEL	7/31/2020	DC Calibration Date
ACCALDATE	LABEL	7/31/2020	AC Calibration Date
THERMOSELECT	IQUANT	1	Thermo Select
FRAMEWORKVERSION	QUANT	6.33	Framework Version
INSTRUMENTVERSION	LABEL	3.50	Instrument Version
COMPLIANCEVOLTAGE	IQUANT	0	Compliance Voltage
ZCURVE	TABLE
	Pt	Time	Freq	Zreal	Zimag	Zsig	Zmod	Zphz	Idc	Vdc	IERange
	#	s	Hz	ohm	ohm	V	ohm	°	A	V	#
	0	6	300046.9	53.39971	-2.039227	1	53.43863	-2.186947	8.020503E-006	-0.0012297	9
	1	10	238359.4	53.85977	-3.150927	1	53.95186	-3.348126	5.837801E-005	-0.0018803	9
	2	13	189328.1	54.49936	-4.408022	1	54.67734	-4.624136	7.929417E-006	-0.0012477	9
	3	15	150421.9	55.33397	-5.736144	1	55.63049	-5.918373	8.896604E-006	-0.0009511	9
	4	18	119484.4	56.06861	-6.900275	1	56.49162	-7.016021	-4.327291E-005	0.0009405	9
	5	20	94921.88	57.01249	-8.00649	1	57.57193	-7.993996	1.800666E-005	-0.0001937	9
	6	23	75421.88	57.91269	-9.475247	1	58.68271	-9.291984	2.03997E-005	-0.0002087	9
	7	25	59859.37	58.92481	-11.07984	1	59.95745	-10.64918	2.072976E-005	-0.0002841	9
	8	28	47578.12	60.00356	-12.86699	1	61.36763	-12.10305	-1.319182E-005	0.0006354	9
	9	30	37828.12	61.10921	-14.90111	1	62.89975	-13.70379	1.494117E-005	-0.0005553	9
	10	33	30046.88	62.22345	-17.31278	1	64.58707	-15.54846	-1.646679E-005	0.0006028	9
	11	35	23859.38	63.36997	-20.27533	1	66.53452	-17.74216	-8.84061E-006	5.81065E-005	9
	12	38	18984.38	64.50939	-23.81248	1	68.76406	-20.26071	-1.647811E-005	0.0004868	9
	13	40	15046.87	65.66574	-28.34075	1	71.52054	-23.3446	-1.259405E-005	0.0002492	9
	14	42	11953.13	66.89658	-33.97472	1	75.02955	-26.92462	1.975855E-005	-0.0002785	9
	15	45	9515.62	68.20747	-40.97809	1	79.5705	-30.99686	-1.6365E-005	0.0006473	9
	16	47	7546.875	69.67954	-49.8869	1	85.6968	-35.60068	1.995174E-005	-0.0003857	9
	17	49	5928.309	71.52667	-61.3872	1	94.25738	-40.63758	-1.37581E-005	0.0007138	9
	18	52	4733.456	73.51232	-74.86756	1	104.9248	-45.5233	2.057747E-005	-0.0002851	9
	19	54	3796.875	75.81748	-91.08031	1	118.507	-50.22517	1.954747E-005	-0.000552	9
	20	56	2987.132	78.79179	-112.9461	1	137.7133	-55.10016	1.201738E-005	8.279365E-005	9
	21	59	2390.625	82.14898	-138.2521	1	160.817	-59.28134	-9.061374E-006	0.0006254	9
	22	61	1884.191	86.88282	-171.1947	1	191.9798	-63.0918	-8.758898E-006	6.179394E-005	9
	23	63	1516.544	92.06202	-208.507	1	227.9267	-66.17712	1.469068E-005	-0.0005427	9
	24	65	1193.986	98.7238	-259.5431	1	277.6851	-69.17442	3.963549E-006	-0.0003307	9
	25	68	946.5144	105.5722	-321.2023	1	338.1071	-71.80544	3.656056E-006	-0.0003486	9
	26	70	751.7689	116.3568	-396.5331	1	413.2522	-73.64645	1.168199E-005	7.598472E-005	9
	27	73	597.4265	128.0258	-487.2257	1	503.7654	-75.2775	-3.248908E-006	0.0018994	8
	28	75	477.4305	142.5904	-598.1263	1	614.8879	-76.59124	4.323398E-007	0.0006531	8
	29	77	376.6741	161.3633	-743.465	1	760.7748	-77.75433	4.26125E-007	0.0006492	8
	30	80	298.2954	184.262	-921.2318	1	939.4788	-78.68913	4.248239E-007	0.0006545	8
	31	82	237.7717	211.7802	-1134.72	1	1154.314	-79.42815	4.212161E-007	0.0006596	8
	32	84	189.0121	246.1962	-1401.508	1	1422.968	-80.03678	4.214223E-007	0.0006498	8
	33	87	150.2404	288.9907	-1730.986	1	1754.944	-80.5218	4.191439E-007	0.0006545	8
	34	89	119.1737	342.4146	-2142.061	1	2169.256	-80.91795	4.283547E-007	0.0006582	8
	35	91	95.0169	408.7302	-2639.412	1	2670.872	-81.1973	4.285527E-007	0.0006492	8
	36	94	75.60484	492.1431	-3258.571	1	3295.525	-81.41151	4.232867E-007	0.0006489	8
	37	97	54.50582	652.1793	-4406.132	1	4454.137	-81.58042	4.305807E-007	0.000649	8
	38	99	45.95588	760.7775	-5167.535	1	5223.236	-81.62493	4.912631E-008	0.0006287	7
	39	101	37.20238	924.8361	-6279.461	1	6347.201	-81.62173	4.774764E-008	0.0006279	7
	40	104	30.04808	1136.535	-7637.064	1	7721.169	-81.53546	4.037112E-008	0.0006252	7
	41	106	23.91582	1421.193	-9401.067	1	9507.88	-81.40349	3.774307E-008	0.0006227	7
	42	109	18.60119	1819.878	-11842.22	1	11981.24	-81.2633	4.23121E-008	0.0006344	7
	43	111	15.02404	2301.678	-14381.23	1	14564.26	-80.90707	4.875071E-008	0.0006192	7
	44	113	12.01923	2922.345	-17582.33	1	17823.53	-80.56318	4.703886E-008	0.0006283	7
	45	116	9.450605	3771.058	-21808.91	1	22132.54	-80.18978	4.764921E-008	0.0006282	7
	46	118	7.512019	4847.148	-26755.34	1	27190.87	-79.73135	4.522476E-008	0.0006816	7
	47	121	5.978954	6192.475	-32687.34	1	33268.74	-79.27269	4.77949E-008	0.0006259	7
	48	126	4.734848	7924.043	-40110.42	1	40885.65	-78.82479	5.128682E-008	0.0006473	7
	49	129	3.75601	10114.32	-49053.96	1	50085.83	-78.34959	5.217293E-009	0.0006534	6
	50	134	3.004808	12708.79	-59482.86	1	60825.36	-77.93982	5.447746E-009	0.0006919	6
	51	141	2.372217	16206.67	-73033.32	1	74809.91	-77.48836	5.05683E-009	0.0007485	6
	52	145	1.878005	20561.43	-89293.45	1	91630.19	-77.03265	4.351066E-009	0.0006459	6
	53	150	1.512097	25811.24	-107366.6	1	110425.6	-76.48244	4.970503E-009	0.0007243	6
	54	155	1.201923	32898.96	-131030.4	1	135097.4	-75.90559	4.73602E-009	0.0006352	6
	55	161	0.956633	42212.31	-159207.5	1	164708.5	-75.15026	3.576534E-009	2.866646E-005	6
