EXPLAIN
TAG	EISPOT
TITLE	LABEL	Potentiostatic EIS	Test Identifier
DATE	LABEL	9/15/2020	Date
TIME	LABEL	8:49:17	Time
NOTES	NOTES	1	Notes...
	
PSTAT	PSTAT	REF3000-16137	Potentiostat
VDC	POTEN	0.00000E+000	T	DC Voltage (V)
FREQINIT	QUANT	3.00000E+005	Initial Freq. (Hz)
FREQFINAL	QUANT	1.00000E+000	Final Freq. (Hz)
PTSPERDEC	QUANT	1.00000E+001	Points/decade
VAC	QUANT	5.00000E+001	AC Voltage (mV rms)
AREA	QUANT	1.00000E+000	Sample Area (cm^2)
SPEED	SELECTOR	2	Optimize for:
ZGUESS	QUANT	1.00000E+003	Estimated Z (ohms)
EOC	QUANT	0	Open Circuit (V)
SEQUENCER	TOGGLE	TRUE	Run as Sequence
PSTATMODEL	IQUANT	5	Pstat Model
PSTATSECTION	LABEL	REF3000-16137	Pstat Section
PSTATSERIALNO	LABEL	16137	Pstat Serial Number
CTRLMODE	IQUANT	1	Control Mode
IESTAB	IQUANT	0	I/E Stability
CASPEED	IQUANT	1	Control Amp Speed
CONVENTION	IQUANT	1	Current Convention
ICHRANGE	IQUANT	2	Ich Range
ICHRANGEMODE	TOGGLE	F	Ich Auto Range
ICHOFFSETENABLE	TOGGLE	T	Ich Offset Enable
ICHOFFSET	QUANT	0	Ich Offset (V)
ICHFILTER	IQUANT	3	Ich Filter
VCHRANGE	IQUANT	2	Vch Range
VCHRANGEMODE	TOGGLE	F	Vch Auto Range
VCHOFFSETENABLE	TOGGLE	T	Vch Offset Enable
VCHOFFSET	QUANT	0	Vch Offset (V)
VCHFILTER	IQUANT	3	Vch Filter
ACHRANGE	IQUANT	2	Ach Range
ACHOFFSETENABLE	TOGGLE	F	Ach Offset Enable
ACHOFFSET	QUANT	0	Ach Offset (V)
ACHFILTER	IQUANT	3	Ach Filter
IERANGELOWERLIMIT	IQUANT	2	I/E Range Lower Limit
IERANGEMODE	TOGGLE	F	I/E AutoRange
IERANGE	IQUANT	11	I/E Range
POSFEEDENABLE	TOGGLE	F	Positive Feedback IR Comp
POSFEEDRESISTANCE	QUANT	0	Positive Feedback Resistance (ohm)
ACHSELECT	IQUANT	0	Ach Select
CABLEID	IQUANT	13	Cable ID
DCCALDATE	LABEL	7/31/2020	DC Calibration Date
ACCALDATE	LABEL	7/31/2020	AC Calibration Date
THERMOSELECT	IQUANT	1	Thermo Select
FRAMEWORKVERSION	QUANT	6.33	Framework Version
INSTRUMENTVERSION	LABEL	3.50	Instrument Version
COMPLIANCEVOLTAGE	IQUANT	0	Compliance Voltage
ZCURVE	TABLE
	Pt	Time	Freq	Zreal	Zimag	Zsig	Zmod	Zphz	Idc	Vdc	IERange
	#	s	Hz	ohm	ohm	V	ohm	°	A	V	#
	0	14	300046.9	-81.12241	-4928.948	1	4929.616	-90.94291	2.53119E-005	-0.0023016	9
	1	29	238359.4	-13.99601	-6026.149	1	6026.165	-90.13307	4.999815E-005	6.510787E-005	9
	2	43	189328.1	179.2701	-7197.142	1	7199.375	-88.57314	-8.817641E-007	-0.0018603	9
	3	51	150421.9	-957.112	-9968.01	1	10013.85	-95.4846	1.985241E-005	-0.0020394	9
	4	62	119484.4	-259.8026	-11984.02	1	11986.84	-91.24193	6.290549E-007	-0.0018058	9
	5	70	94921.88	432.6891	-14857.91	1	14864.21	-88.33192	8.191638E-006	-0.0077207	8
	6	79	75421.88	417.9159	-18641.02	1	18645.7	-88.71569	2.715545E-005	-0.0073615	8
	7	87	59859.37	829.6453	-23110.45	1	23125.34	-87.94402	-7.994334E-007	-0.0052039	8
	8	96	47578.12	4079.272	-30705.94	1	30975.72	-82.43259	7.70088E-006	-0.0244219	7
	9	102	37828.12	-71.26682	-37131.39	1	37131.46	-90.10997	2.882589E-005	-0.0008747	9
	10	111	30046.88	384.8271	-45209.39	1	45211.03	-89.51231	2.222722E-005	-0.0095603	8
	11	120	23859.38	2211.249	-57020.92	1	57063.78	-87.77921	1.639504E-005	-0.0092527	8
	12	128	18984.38	4026.541	-73396.31	1	73506.68	-86.85989	-6.4158E-006	0.0255261	7
	13	133	15046.87	3220.522	-93420.29	1	93475.78	-88.0256	-3.852252E-006	0.0256456	7
	14	140	11953.13	-5121.452	-123280	1	123386.3	-92.37888	8.745994E-006	0.004062	8
	15	147	9515.62	4922.845	-149060.4	1	149141.7	-88.10844	-4.979271E-006	0.0264362	7
	16	153	7546.875	1854.976	-183321.9	1	183331.3	-89.42027	-1.006964E-006	-0.0135438	7
	17	159	5928.309	2031.122	-237897.4	1	237906	-89.51083	-5.361849E-006	0.0034975	7
	18	165	4733.456	-9314.031	-244978.4	1	245155.4	-92.17732	-7.299012E-006	0.0235705	7
	19	171	3796.875	-51282.64	-382398.8	1	385822.2	-97.6382	5.083559E-006	-0.0003743	7
	20	178	2987.132	91217.97	-451312.2	1	460438.3	-78.57347	-3.356374E-006	-0.0053958	7
	21	184	2390.625	39055.02	-603142.8	1	604405.9	-86.29513	-3.8388E-006	0.0256603	7
	22	191	1884.191	107054.3	-583214.1	1	592958.1	-79.59863	5.409884E-006	-0.0268652	7
	23	197	1516.544	-62955.94	-906775.8	1	908958.6	-93.97158	-7.259591E-006	0.023425	7
	24	204	1193.986	705266.9	-746644.5	1	1027073	-46.63241	2.596324E-005	-0.0050946	8
	25	214	946.5144	-37956.59	213208.2	1	216560.5	100.0944	2.29102E-005	-0.0098046	8
	26	219	751.7689	120079.1	-239524.7	1	267938.5	-63.37437	-1.987714E-005	0.0026249	8
	27	228	597.4265	-299933.2	-455390.2	1	545289	-123.3701	2.553604E-005	-0.0009597	9
	28	235	477.4305	27792.4	-2877794	1	2877929	-89.44668	-9.407091E-008	0.0006882	7
	29	241	376.6741	482801.9	-3745107	1	3776099	-82.65421	-1.022041E-009	0.0006412	5
	30	245	298.2954	500596.4	-4646377	1	4673266	-83.85072	-9.557624E-010	0.000646	5
	31	248	237.7717	640220.9	-5819398	1	5854509	-83.72186	-8.366231E-010	0.0005987	5
	32	252	189.0121	563332.6	-7247176	1	7269037	-85.55526	-1.004722E-009	0.000682	5
	33	255	150.2404	736037.7	-9264426	1	9293618	-85.45752	-9.188081E-010	0.000593	5
	34	258	119.1737	-2154949	-9.809046E+006	1	1.004297E+007	-102.3905	-8.921551E-010	0.0006981	5
	35	261	95.0169	827342.4	-1.446326E+007	1	1.44869E+007	-86.72607	-8.578567E-010	0.0006462	5
	36	263	75.60484	1569837	-1.707375E+007	1	1.714576E+007	-84.74673	-8.167763E-010	0.0006331	5
	37	266	54.50582	1310420	-2.403581E+007	1	2.407151E+007	-86.87935	-9.681909E-010	0.0006786	5
	38	269	45.95588	3397317	-2.867855E+007	1	2.887907E+007	-83.24412	-1.034937E-009	0.0006796	5
	39	273	37.20238	375107.3	-3.244602E+007	1	3.244819E+007	-89.33764	-1.066357E-009	0.0007335	5
	40	277	30.04808	1920748	-4.522135E+007	1	4.526212E+007	-87.56786	-9.109259E-010	0.0005905	5
	41	281	23.91582	5015869	-6.370759E+007	1	6.390474E+007	-85.49824	-1.43951E-010	0.000694	4
	42	285	18.60119	-9481505	-1.397401E+008	1	1.400614E+008	-93.88163	-2.983551E-010	0.0006972	4
	43	288	15.02404	4883738	-8.712184E+007	1	8.725862E+007	-86.79156	-9.500568E-011	0.0006322	4
	44	292	12.01923	1.140266E+007	-1.087181E+008	1	1.093145E+008	-84.01255	-1.097585E-010	0.0006951	4
	45	296	9.450605	-3153062	-1.495988E+008	1	1.49632E+008	-91.20744	-6.572485E-011	0.0006141	4
	46	300	7.512019	1.825917E+007	-1.894012E+008	1	1.902793E+008	-84.49343	-1.025202E-010	0.0006109	4
	47	304	5.978954	1.862117E+007	-2.512529E+008	1	2.51942E+008	-85.76138	-7.264382E-011	0.0006996	4
	48	310	4.734848	-2610049	-2.784249E+008	1	2.784372E+008	-90.53709	-9.280334E-010	0.0006175	5
	49	317	3.75601	-4.576078E+007	-3.416826E+008	1	3.447333E+008	-97.6281	-9.060554E-010	0.0006109	5
	50	325	3.004808	8795767	-3.875014E+008	1	3.876012E+008	-88.69968	-9.856552E-010	0.0006958	5
	51	335	2.372217	5.420745E+007	-5.640294E+008	1	5.666284E+008	-84.51031	-7.054499E-012	0.0006514	3
	52	341	1.878005	5.525092E+007	-7.06106E+008	1	7.082643E+008	-85.52587	-6.755315E-012	0.0007208	3
	53	350	1.512097	5.868103E+007	-8.692193E+008	1	8.711978E+008	-86.13782	-6.879979E-012	0.0007066	3
	54	357	1.201923	6.061684E+007	-1.091983E+009	1	1.093665E+009	-86.82273	-6.722156E-012	0.0007394	3
	55	370	0.956633	6.662188E+007	-1.367629E+009	1	1.369251E+009	-87.21113	-6.667704E-012	8.01437E-005	3
