EXPLAIN
TAG	EISPOT
TITLE	LABEL	Potentiostatic EIS	Test Identifier
DATE	LABEL	9/15/2020	Date
TIME	LABEL	1:51:24	Time
NOTES	NOTES	1	Notes...
	
PSTAT	PSTAT	REF3000-16137	Potentiostat
VDC	POTEN	0.00000E+000	T	DC Voltage (V)
FREQINIT	QUANT	3.00000E+005	Initial Freq. (Hz)
FREQFINAL	QUANT	1.00000E+000	Final Freq. (Hz)
PTSPERDEC	QUANT	1.00000E+001	Points/decade
VAC	QUANT	5.00000E+001	AC Voltage (mV rms)
AREA	QUANT	1.00000E+000	Sample Area (cm^2)
SPEED	SELECTOR	2	Optimize for:
ZGUESS	QUANT	1.00000E+003	Estimated Z (ohms)
EOC	QUANT	0	Open Circuit (V)
SEQUENCER	TOGGLE	TRUE	Run as Sequence
PSTATMODEL	IQUANT	5	Pstat Model
PSTATSECTION	LABEL	REF3000-16137	Pstat Section
PSTATSERIALNO	LABEL	16137	Pstat Serial Number
CTRLMODE	IQUANT	1	Control Mode
IESTAB	IQUANT	0	I/E Stability
CASPEED	IQUANT	1	Control Amp Speed
CONVENTION	IQUANT	1	Current Convention
ICHRANGE	IQUANT	2	Ich Range
ICHRANGEMODE	TOGGLE	F	Ich Auto Range
ICHOFFSETENABLE	TOGGLE	T	Ich Offset Enable
ICHOFFSET	QUANT	0	Ich Offset (V)
ICHFILTER	IQUANT	3	Ich Filter
VCHRANGE	IQUANT	2	Vch Range
VCHRANGEMODE	TOGGLE	F	Vch Auto Range
VCHOFFSETENABLE	TOGGLE	T	Vch Offset Enable
VCHOFFSET	QUANT	0	Vch Offset (V)
VCHFILTER	IQUANT	3	Vch Filter
ACHRANGE	IQUANT	2	Ach Range
ACHOFFSETENABLE	TOGGLE	F	Ach Offset Enable
ACHOFFSET	QUANT	0	Ach Offset (V)
ACHFILTER	IQUANT	3	Ach Filter
IERANGELOWERLIMIT	IQUANT	2	I/E Range Lower Limit
IERANGEMODE	TOGGLE	F	I/E AutoRange
IERANGE	IQUANT	11	I/E Range
POSFEEDENABLE	TOGGLE	F	Positive Feedback IR Comp
POSFEEDRESISTANCE	QUANT	0	Positive Feedback Resistance (ohm)
ACHSELECT	IQUANT	0	Ach Select
CABLEID	IQUANT	13	Cable ID
DCCALDATE	LABEL	7/31/2020	DC Calibration Date
ACCALDATE	LABEL	7/31/2020	AC Calibration Date
THERMOSELECT	IQUANT	1	Thermo Select
FRAMEWORKVERSION	QUANT	6.33	Framework Version
INSTRUMENTVERSION	LABEL	3.50	Instrument Version
COMPLIANCEVOLTAGE	IQUANT	0	Compliance Voltage
ZCURVE	TABLE
	Pt	Time	Freq	Zreal	Zimag	Zsig	Zmod	Zphz	Idc	Vdc	IERange
	#	s	Hz	ohm	ohm	V	ohm	°	A	V	#
	0	7	300046.9	73.61242	-3.104888	1	73.67787	-2.415239	-6.546763E-005	0.0023618	9
	1	10	238359.4	74.39491	-4.774554	1	74.54797	-3.672121	-9.231557E-006	-0.0012208	9
	2	14	189328.1	75.20496	-6.063565	1	75.44901	-4.609626	-4.821043E-005	0.0007867	9
	3	16	150421.9	76.04008	-7.522849	1	76.4113	-5.650039	-7.926329E-006	0.0007059	9
	4	19	119484.4	77.19353	-8.917698	1	77.70693	-6.58982	6.539661E-005	-0.0020619	9
	5	21	94921.88	78.35105	-10.26285	1	79.02033	-7.462432	3.171153E-006	0.0003255	9
	6	24	75421.88	79.54242	-12.04678	1	80.44949	-8.612056	-1.951236E-005	0.0005677	9
	7	26	59859.37	80.89294	-13.99132	1	82.09399	-9.81285	2.334978E-005	-0.0005647	9
	8	29	47578.12	82.36916	-16.09433	1	83.92679	-11.05588	-1.431743E-005	0.0001994	9
	9	31	37828.12	83.94574	-18.49258	1	85.9585	-12.42338	-4.544122E-006	0.0005843	9
	10	34	30046.88	85.49052	-21.22043	1	88.08482	-13.9402	1.184954E-005	-0.0006003	9
	11	36	23859.38	87.07321	-24.54654	1	90.467	-15.74351	2.927123E-007	0.0005485	9
	12	39	18984.38	88.69731	-28.58064	1	93.18833	-17.86032	2.246044E-005	-0.0005654	9
	13	41	15046.87	90.24204	-33.66586	1	96.3173	-20.45862	1.684449E-005	-0.0006355	9
	14	43	11953.13	91.9714	-39.85688	1	100.2363	-23.43006	1.693003E-005	-0.0006281	9
	15	46	9515.62	93.68224	-47.61493	1	105.0883	-26.9424	1.647249E-005	-0.0006326	9
	16	48	7546.875	95.5099	-57.40718	1	111.4349	-31.00838	-1.864169E-005	0.0006532	9
	17	50	5928.309	97.7268	-70.5074	1	120.5065	-35.8095	2.22171E-005	-0.0005365	9
	18	53	4733.456	99.9511	-85.51294	1	131.5397	-40.54856	-1.850576E-005	0.0005018	9
	19	55	3796.875	102.6494	-104.0576	1	146.1673	-45.39033	1.890346E-005	-0.0001079	9
	20	57	2987.132	106.0553	-128.8194	1	166.8597	-50.53581	2.104548E-005	-0.0006215	9
	21	60	2390.625	110.1488	-157.1393	1	191.8997	-54.97097	-1.794401E-005	0.0007602	9
	22	62	1884.191	115.5947	-195.2963	1	226.9422	-59.37896	2.23342E-005	-0.0004262	9
	23	64	1516.544	121.0026	-237.3649	1	266.4277	-62.98867	-1.389918E-005	0.000196	9
	24	67	1193.986	128.2426	-295.4343	1	322.0677	-66.53522	1.694403E-005	-0.0006453	9
	25	69	946.5144	138.2756	-365.0439	1	390.3552	-69.25373	-1.540824E-005	0.0004324	9
	26	72	751.7689	147.1526	-449.7639	1	473.2245	-71.88307	5.517536E-006	-0.0004315	8
	27	74	597.4265	160.5332	-555.0963	1	577.8433	-73.87019	-8.087856E-007	0.0019735	8
	28	76	477.4305	176.942	-681.909	1	704.4916	-75.45367	3.344314E-007	0.0006545	8
	29	78	376.6741	197.709	-847.9574	1	870.7012	-76.87544	3.213078E-007	0.0006527	8
	30	81	298.2954	222.8766	-1051.099	1	1074.469	-78.02824	3.417415E-007	0.0006528	8
	31	83	237.7717	253.0247	-1295.226	1	1319.709	-78.94637	3.310336E-007	0.0006516	8
	32	86	189.0121	290.563	-1600.427	1	1626.589	-79.70984	3.408721E-007	0.000646	8
	33	88	150.2404	336.9825	-1977.751	1	2006.254	-80.33042	3.336686E-007	0.0006524	8
	34	91	119.1737	395.3985	-2449.513	1	2481.22	-80.83045	3.458319E-007	0.0006428	8
	35	93	95.0169	465.2441	-3019.569	1	3055.2	-81.24095	3.316422E-007	0.0006999	8
	36	95	75.60484	552.8538	-3729.038	1	3769.797	-81.56696	3.452157E-007	0.0006426	8
	37	98	54.50582	720.1287	-5058.235	1	5109.239	-81.89738	2.233961E-008	0.0006706	7
	38	100	45.95588	830.3712	-5921.283	1	5979.223	-82.01718	3.784922E-008	0.0006269	7
	39	103	37.20238	993.688	-7193.937	1	7262.241	-82.13558	3.442001E-008	0.0006191	7
	40	105	30.04808	1199.268	-8771.587	1	8853.19	-82.21468	2.960573E-008	0.0006162	7
	41	108	23.91582	1465.803	-10826.48	1	10925.26	-82.28958	2.817251E-008	0.0006177	7
	42	110	18.60119	1835.022	-13630.71	1	13753.68	-82.3327	3.524936E-008	0.0006202	7
	43	112	15.02404	2244.283	-16595.36	1	16746.43	-82.29829	3.630018E-008	0.0006191	7
	44	115	12.01923	2761.29	-20392.93	1	20579.03	-82.28881	3.376751E-008	0.0006227	7
	45	117	9.450605	3490.764	-25430.56	1	25669.02	-82.18405	3.437039E-008	0.0006244	7
	46	120	7.512019	4336.324	-31441.79	1	31739.41	-82.14754	3.680568E-008	0.0006466	7
	47	123	5.978954	5476.809	-38765.71	1	39150.68	-81.95849	3.561224E-008	0.0006237	7
	48	127	4.734848	7050.462	-48063.29	1	48577.66	-81.65473	4.912344E-009	0.0006828	6
	49	130	3.75601	8964.102	-59401.08	1	60073.65	-81.41836	4.496374E-009	0.0006458	6
	50	136	3.004808	11420.75	-72785.09	1	73675.66	-81.08241	4.633893E-009	0.0006938	6
	51	142	2.372217	14815.42	-90297.99	1	91505.32	-80.68235	4.23308E-009	0.000742	6
	52	146	1.878005	19336.52	-111465.1	1	113129.9	-80.1585	4.031036E-009	0.0006414	6
	53	151	1.512097	24972.2	-135273.9	1	137559.6	-79.54069	4.360541E-009	0.0007541	6
	54	156	1.201923	32549.26	-166097.6	1	169256.8	-78.91255	4.377265E-009	0.0006368	6
	55	163	0.956633	42549.8	-203058.2	1	207468.3	-78.1652	3.428968E-009	3.341971E-005	6
