EXPLAIN
TAG	EISPOT
TITLE	LABEL	Potentiostatic EIS	Test Identifier
DATE	LABEL	9/15/2020	Date
TIME	LABEL	7:01:34	Time
NOTES	NOTES	1	Notes...
	
PSTAT	PSTAT	REF3000-16137	Potentiostat
VDC	POTEN	0.00000E+000	T	DC Voltage (V)
FREQINIT	QUANT	3.00000E+005	Initial Freq. (Hz)
FREQFINAL	QUANT	1.00000E+000	Final Freq. (Hz)
PTSPERDEC	QUANT	1.00000E+001	Points/decade
VAC	QUANT	5.00000E+001	AC Voltage (mV rms)
AREA	QUANT	1.00000E+000	Sample Area (cm^2)
SPEED	SELECTOR	2	Optimize for:
ZGUESS	QUANT	1.00000E+003	Estimated Z (ohms)
EOC	QUANT	0	Open Circuit (V)
SEQUENCER	TOGGLE	TRUE	Run as Sequence
PSTATMODEL	IQUANT	5	Pstat Model
PSTATSECTION	LABEL	REF3000-16137	Pstat Section
PSTATSERIALNO	LABEL	16137	Pstat Serial Number
CTRLMODE	IQUANT	1	Control Mode
IESTAB	IQUANT	0	I/E Stability
CASPEED	IQUANT	1	Control Amp Speed
CONVENTION	IQUANT	1	Current Convention
ICHRANGE	IQUANT	2	Ich Range
ICHRANGEMODE	TOGGLE	F	Ich Auto Range
ICHOFFSETENABLE	TOGGLE	T	Ich Offset Enable
ICHOFFSET	QUANT	0	Ich Offset (V)
ICHFILTER	IQUANT	3	Ich Filter
VCHRANGE	IQUANT	2	Vch Range
VCHRANGEMODE	TOGGLE	F	Vch Auto Range
VCHOFFSETENABLE	TOGGLE	T	Vch Offset Enable
VCHOFFSET	QUANT	0	Vch Offset (V)
VCHFILTER	IQUANT	3	Vch Filter
ACHRANGE	IQUANT	2	Ach Range
ACHOFFSETENABLE	TOGGLE	F	Ach Offset Enable
ACHOFFSET	QUANT	0	Ach Offset (V)
ACHFILTER	IQUANT	3	Ach Filter
IERANGELOWERLIMIT	IQUANT	2	I/E Range Lower Limit
IERANGEMODE	TOGGLE	F	I/E AutoRange
IERANGE	IQUANT	11	I/E Range
POSFEEDENABLE	TOGGLE	F	Positive Feedback IR Comp
POSFEEDRESISTANCE	QUANT	0	Positive Feedback Resistance (ohm)
ACHSELECT	IQUANT	0	Ach Select
CABLEID	IQUANT	13	Cable ID
DCCALDATE	LABEL	7/31/2020	DC Calibration Date
ACCALDATE	LABEL	7/31/2020	AC Calibration Date
THERMOSELECT	IQUANT	1	Thermo Select
FRAMEWORKVERSION	QUANT	6.33	Framework Version
INSTRUMENTVERSION	LABEL	3.50	Instrument Version
COMPLIANCEVOLTAGE	IQUANT	0	Compliance Voltage
ZCURVE	TABLE
	Pt	Time	Freq	Zreal	Zimag	Zsig	Zmod	Zphz	Idc	Vdc	IERange
	#	s	Hz	ohm	ohm	V	ohm	°	A	V	#
	0	24	300046.9	-5.614254	-4871.462	1	4871.466	-90.06603	2.073527E-005	0.0009829	9
	1	44	238359.4	113.0711	-6023.61	1	6024.671	-88.92461	-1.872391E-005	0.0015972	9
	2	64	189328.1	24.42137	-7476.715	1	7476.755	-89.81285	2.75882E-005	-0.0014629	9
	3	72	150421.9	-92.42951	-9680.05	1	9680.49	-90.54707	2.74523E-005	-0.0014314	9
	4	83	119484.4	602.971	-11841.2	1	11856.54	-87.08494	2.233278E-005	-0.0183776	8
	5	91	94921.88	1097.349	-14680.49	1	14721.45	-85.72516	-1.204407E-005	0.0101999	8
	6	99	75421.88	1312.979	-18461.07	1	18507.7	-85.93189	-2.034542E-005	0.0027601	8
	7	108	59859.37	1528.682	-22626.6	1	22678.18	-86.1349	-1.196747E-005	0.0101677	8
	8	115	47578.12	5869.003	-30025.67	1	30593.89	-78.94006	-7.393736E-006	0.0188385	7
	9	122	37828.12	7180.452	-36875.92	1	37568.5	-78.98129	5.314226E-006	-0.0267577	7
	10	129	30046.88	4962.89	-44938.62	1	45211.83	-83.69796	-2.489999E-005	0.011097	8
	11	138	23859.38	7963.201	-58565.02	1	59103.93	-82.25687	8.421094E-006	-0.0077663	8
	12	145	18984.38	10510.28	-70685.18	1	71462.3	-81.54257	-2.676968E-005	0.0096649	8
	13	152	15046.87	13181.3	-88663.27	1	89637.73	-81.54395	2.578891E-007	-0.000517	9
	14	160	11953.13	25557.39	-106430.4	1	109455.9	-76.49709	-3.341919E-006	-0.0052858	7
	15	166	9515.62	41204.4	-135258.9	1	141395.8	-73.0575	-3.26175E-006	-0.005509	7
	16	173	7546.875	56623.09	-167502.9	1	176814.6	-71.32257	3.719216E-007	0.0166113	7
	17	179	5928.309	90208.07	-216970.5	1	234976	-67.42432	6.586336E-006	-0.0099581	7
	18	185	4733.456	113080.7	-218428	1	245963.5	-62.62928	-5.350982E-006	0.0266542	7
	19	191	3796.875	179862	-231244.9	1	292958.3	-52.12426	-3.391717E-006	-0.0051289	7
	20	198	2987.132	208341.5	-255878.2	1	329969.4	-50.84679	-1.783734E-006	0.0220513	7
	21	204	2390.625	336445.2	-130090.9	1	360720.2	-21.13965	-6.53662E-006	0.0110687	7
	22	212	1884.191	353640.7	-170601.9	1	392640.8	-25.7534	7.714303E-006	-0.024353	7
	23	218	1516.544	230278.4	-226581.3	1	323059.2	-44.53635	-2.640403E-005	0.0075736	8
	24	226	1193.986	162805.6	-201338.5	1	258926.3	-51.04043	-1.993713E-005	0.0113666	8
	25	235	946.5144	441139.6	96615.2	1	451595.7	12.35345	-2.302483E-005	0.0049412	8
	26	241	751.7689	193018.2	152747	1	246145.6	38.3567	-9.832053E-006	-0.0021108	8
	27	248	597.4265	624394.8	32845.46	1	625258.1	3.011193	-1.153719E-006	-0.0128353	7
	28	252	477.4305	569874.1	-127321.6	1	583924	-12.59422	-8.281038E-009	0.0007094	6
	29	256	376.6741	614934.9	-52232.97	1	617149.3	-4.855087	-8.629794E-010	0.000595	5
	30	258	298.2954	613948.8	-50288.59	1	616004.9	-4.682648	-8.405249E-010	0.0006893	5
	31	260	237.7717	616713.3	-45445.2	1	618385.4	-4.214471	-9.126032E-010	0.0005926	5
	32	263	189.0121	619198.1	-46062.07	1	620909	-4.25439	-1.122749E-009	0.0006928	5
	33	266	150.2404	624157.8	-48447.72	1	626035.2	-4.438454	-9.256454E-010	0.0005931	5
	34	268	119.1737	634174.2	-69013.04	1	637918.3	-6.210686	-7.294312E-010	0.0006304	5
	35	271	95.0169	635636	-56975.64	1	638184.4	-5.122056	-7.71593E-010	0.0005937	5
	36	274	75.60484	643560.9	-65085.38	1	646843.6	-5.774871	-8.244707E-010	0.0005886	5
	37	276	54.50582	664187.6	-72591.78	1	668142.8	-6.237333	-6.576698E-010	0.00059	5
	38	279	45.95588	661242.3	-80824.87	1	666163.7	-6.9688	-4.691399E-010	0.0005954	5
	39	281	37.20238	671042	-87871.6	1	676770.9	-7.460319	-1.26514E-009	0.0007211	5
	40	283	30.04808	683880.6	-100374.4	1	691207.4	-8.349789	-1.097907E-009	0.0006859	5
	41	286	23.91582	696734.7	-114189.9	1	706030.1	-9.307628	-6.411884E-010	0.0005902	5
	42	289	18.60119	718629.3	-134275.7	1	731066.4	-10.58366	-1.556226E-009	0.0007312	5
	43	291	15.02404	730523.9	-144324.9	1	744644.1	-11.17564	-1.687811E-009	0.0005948	5
	44	294	12.01923	746745.1	-162558.2	1	764233.8	-12.28106	-9.094812E-010	0.0006854	5
	45	296	9.450605	765405.6	-184506	1	787329.8	-13.55296	-7.348145E-010	0.0006799	5
	46	299	7.512019	783374.1	-208165	1	810560.1	-14.88124	-9.980098E-010	0.0006586	5
	47	302	5.978954	801999.6	-238418	1	836687.8	-16.55613	-9.443745E-010	0.0006285	5
	48	306	4.734848	821175.8	-275954.7	1	866302.8	-18.57483	-7.504024E-010	0.0006174	5
	49	310	3.75601	841188.7	-323215.2	1	901147.3	-21.01859	-8.883647E-010	0.0006098	5
	50	315	3.004808	860606.4	-381431.5	1	941346.6	-23.90352	-8.373857E-010	0.0005889	5
	51	322	2.372217	883802.8	-457388.4	1	995144	-27.36261	-1.071243E-009	0.0005633	5
	52	326	1.878005	903632.6	-554289.1	1	1060089	-31.52499	-9.503186E-010	0.0006508	5
	53	331	1.512097	926176.6	-665134.4	1	1140266	-35.68405	-9.76024E-010	0.0005254	5
	54	336	1.201923	952419	-814413.5	1	1253145	-40.53375	-9.401642E-010	0.0006652	5
	55	342	0.956633	983563	-998648	1	1401675	-45.43602	-9.803552E-010	-2.976012E-007	5
