EXPLAIN
TAG	EISPOT
TITLE	LABEL	Potentiostatic EIS	Test Identifier
DATE	LABEL	9/15/2020	Date
TIME	LABEL	9:20:19	Time
NOTES	NOTES	1	Notes...
	
PSTAT	PSTAT	REF3000-16137	Potentiostat
VDC	POTEN	0.00000E+000	T	DC Voltage (V)
FREQINIT	QUANT	3.00000E+005	Initial Freq. (Hz)
FREQFINAL	QUANT	1.00000E+000	Final Freq. (Hz)
PTSPERDEC	QUANT	1.00000E+001	Points/decade
VAC	QUANT	5.00000E+001	AC Voltage (mV rms)
AREA	QUANT	1.00000E+000	Sample Area (cm^2)
SPEED	SELECTOR	2	Optimize for:
ZGUESS	QUANT	1.00000E+003	Estimated Z (ohms)
EOC	QUANT	0	Open Circuit (V)
SEQUENCER	TOGGLE	TRUE	Run as Sequence
PSTATMODEL	IQUANT	5	Pstat Model
PSTATSECTION	LABEL	REF3000-16137	Pstat Section
PSTATSERIALNO	LABEL	16137	Pstat Serial Number
CTRLMODE	IQUANT	1	Control Mode
IESTAB	IQUANT	0	I/E Stability
CASPEED	IQUANT	1	Control Amp Speed
CONVENTION	IQUANT	1	Current Convention
ICHRANGE	IQUANT	2	Ich Range
ICHRANGEMODE	TOGGLE	F	Ich Auto Range
ICHOFFSETENABLE	TOGGLE	T	Ich Offset Enable
ICHOFFSET	QUANT	0	Ich Offset (V)
ICHFILTER	IQUANT	3	Ich Filter
VCHRANGE	IQUANT	2	Vch Range
VCHRANGEMODE	TOGGLE	F	Vch Auto Range
VCHOFFSETENABLE	TOGGLE	T	Vch Offset Enable
VCHOFFSET	QUANT	0	Vch Offset (V)
VCHFILTER	IQUANT	3	Vch Filter
ACHRANGE	IQUANT	2	Ach Range
ACHOFFSETENABLE	TOGGLE	F	Ach Offset Enable
ACHOFFSET	QUANT	0	Ach Offset (V)
ACHFILTER	IQUANT	3	Ach Filter
IERANGELOWERLIMIT	IQUANT	2	I/E Range Lower Limit
IERANGEMODE	TOGGLE	F	I/E AutoRange
IERANGE	IQUANT	11	I/E Range
POSFEEDENABLE	TOGGLE	F	Positive Feedback IR Comp
POSFEEDRESISTANCE	QUANT	0	Positive Feedback Resistance (ohm)
ACHSELECT	IQUANT	0	Ach Select
CABLEID	IQUANT	13	Cable ID
DCCALDATE	LABEL	7/31/2020	DC Calibration Date
ACCALDATE	LABEL	7/31/2020	AC Calibration Date
THERMOSELECT	IQUANT	1	Thermo Select
FRAMEWORKVERSION	QUANT	6.33	Framework Version
INSTRUMENTVERSION	LABEL	3.50	Instrument Version
COMPLIANCEVOLTAGE	IQUANT	0	Compliance Voltage
ZCURVE	TABLE
	Pt	Time	Freq	Zreal	Zimag	Zsig	Zmod	Zphz	Idc	Vdc	IERange
	#	s	Hz	ohm	ohm	V	ohm	°	A	V	#
	0	18	300046.9	-69.74566	-4929.385	1	4929.878	-90.81062	8.650618E-005	-0.0036533	9
	1	38	238359.4	31.67775	-6037.956	1	6038.039	-89.6994	3.164616E-005	-0.0020263	9
	2	54	189328.1	-91.26247	-7709.664	1	7710.204	-90.6782	8.679336E-005	-0.0025561	9
	3	61	150421.9	232.7241	-9690.87	1	9693.67	-88.62432	2.828899E-005	-0.0018799	9
	4	70	119484.4	226.9972	-11760.63	1	11762.82	-88.89425	6.570903E-005	-0.0255982	8
	5	78	94921.88	662.6376	-14895.28	1	14910.01	-87.4528	-1.589668E-005	0.0005758	8
	6	86	75421.88	589.5721	-18651.71	1	18661.03	-88.18951	2.304741E-005	-0.0027192	8
	7	95	59859.37	903.472	-23481.11	1	23498.49	-87.79655	2.725792E-005	-0.0073635	8
	8	103	47578.12	702.771	-29614.59	1	29622.93	-88.64059	8.151627E-006	-0.0076784	8
	9	113	37828.12	677.7916	-36778.41	1	36784.66	-88.94421	-1.218904E-005	0.0102458	8
	10	122	30046.88	4626.486	-47476.55	1	47701.44	-84.43423	-7.29699E-006	0.0235592	7
	11	129	23859.38	6278.747	-59655.91	1	59985.42	-83.99178	4.228195E-007	0.0164976	7
	12	135	18984.38	4197.751	-74238.92	1	74357.51	-86.76373	1.349318E-006	-0.0201567	7
	13	140	15046.87	4581.232	-94012.64	1	94124.2	-87.21018	6.735934E-006	-0.0102645	7
	14	145	11953.13	10736.91	-108635.1	1	109164.4	-84.35552	2.610352E-005	-0.0089424	8
	15	153	9515.62	7087.89	-145020.8	1	145193.9	-87.2019	-2.477223E-005	0.0110651	8
	16	160	7546.875	6159.977	-178533.1	1	178639.3	-88.0239	6.619709E-006	-0.0100164	7
	17	167	5928.309	9892.83	-223822.5	1	224041.1	-87.46921	7.718676E-006	-0.0244618	7
	18	173	4733.456	-46458.46	-289340.1	1	293046.2	-99.1219	6.880155E-006	-0.0270145	7
	19	179	3796.875	1374.453	-381485.3	1	381487.7	-89.79357	-6.720644E-006	0.0119154	7
	20	185	2987.132	275681.6	-964699	1	1003316	-74.05167	8.081597E-006	0.004238	8
	21	193	2390.625	68250.63	-580111.2	1	584112.3	-83.28995	-5.421175E-006	0.0269004	7
	22	201	1884.191	269220.3	-545051.3	1	607914.8	-63.71359	4.908563E-006	-0.0005312	7
	23	208	1516.544	-264522.4	-823981.4	1	865400.2	-107.7982	-6.547836E-006	0.0258967	7
	24	214	1193.986	-420500.1	-937180.6	1	1027194	-114.1651	2.783908E-006	0.0086166	7
	25	222	946.5144	-28202.45	-122241.6	1	125452.7	-102.9914	-1.946748E-005	0.0010795	9
	26	229	751.7689	208807	-1016911	1	1038127	-78.39648	6.477714E-006	-0.0097396	7
	27	234	597.4265	-136137.8	192964.6	1	236154.2	125.2032	1.74214E-005	0.0004293	8
	28	241	477.4305	61670.44	-2882632	1	2883291	-88.77441	-9.10407E-008	0.000677	7
	29	247	376.6741	479438.2	-3761008	1	3791443	-82.73534	-1.005448E-009	0.0006991	5
	30	251	298.2954	514713.6	-4687562	1	4715737	-83.73379	-9.912944E-010	0.0006943	5
	31	255	237.7717	449833.3	-5733292	1	5750912	-85.51377	-9.17101E-010	0.0006366	5
	32	258	189.0121	536657.3	-7282760	1	7302506	-85.78556	-9.103177E-010	0.0006525	5
	33	261	150.2404	464673	-9281339	1	9292964	-87.13387	-9.7873E-010	0.0006823	5
	34	263	119.1737	-3367855	-1.180512E+007	1	1.227613E+007	-105.9228	-1.052285E-009	0.0006973	5
	35	266	95.0169	726384.1	-1.452456E+007	1	1.454272E+007	-87.13698	-9.307362E-010	0.0006857	5
	36	269	75.60484	1823612	-1.907212E+007	1	1.91591E+007	-84.53817	-9.097738E-010	0.0006059	5
	37	272	54.50582	1472890	-2.538547E+007	1	2.542817E+007	-86.67937	-1.008962E-009	0.0007301	5
	38	275	45.95588	-1979352	-3.021419E+007	1	3.027895E+007	-93.74813	-1.039156E-009	0.0007009	5
	39	279	37.20238	-2355356	-3.717154E+007	1	3.724608E+007	-93.62567	-9.747153E-010	0.0006283	5
	40	283	30.04808	4621713	-4.629848E+007	1	4.652859E+007	-84.29938	-9.554571E-011	0.0006078	4
	41	287	23.91582	2117139	-5.206581E+007	1	5.210884E+007	-87.67148	-1.387493E-010	0.0007004	4
	42	290	18.60119	1.606957E+007	-4.296032E+007	1	4.586742E+007	-69.49138	2.104473E-010	0.0006382	4
	43	294	15.02404	5258358	-8.836984E+007	1	8.852615E+007	-86.59469	-9.675111E-011	0.0007089	4
	44	298	12.01923	3426716	-1.127971E+008	1	1.128491E+008	-88.25992	-9.485462E-011	0.0006075	4
	45	301	9.450605	-3160020	-1.30213E+008	1	1.302513E+008	-91.39018	-1.118488E-010	0.0006055	4
	46	305	7.512019	9299717	-1.663887E+008	1	1.666484E+008	-86.80098	-1.03294E-010	0.00071	4
	47	310	5.978954	1.702674E+007	-2.209693E+008	1	2.216243E+008	-85.5938	-8.463458E-011	0.0006991	4
	48	315	4.734848	4.239537E+007	-2.972396E+008	1	3.002478E+008	-81.88264	-6.063537E-012	0.000794	3
	49	320	3.75601	3238549	-3.506489E+008	1	3.506638E+008	-89.47084	-1.00715E-009	0.0007014	5
	50	328	3.004808	3.232095E+007	-5.259849E+008	1	5.26977E+008	-86.48369	-9.429587E-010	0.0006272	5
	51	338	2.372217	5.337684E+007	-5.641775E+008	1	5.666969E+008	-84.59534	-6.928551E-012	0.0006856	3
	52	344	1.878005	5.674954E+007	-7.099494E+008	1	7.122139E+008	-85.4298	-6.806544E-012	0.000723	3
	53	353	1.512097	5.88443E+007	-8.706694E+008	1	8.726557E+008	-86.13354	-6.686306E-012	0.0007499	3
	54	360	1.201923	5.738582E+007	-1.096399E+009	1	1.0979E+009	-87.00386	-6.52758E-012	0.0007445	3
	55	373	0.956633	6.581598E+007	-1.366497E+009	1	1.368081E+009	-87.24254	-6.456926E-012	8.789165E-005	3
