EXPLAIN
TAG	EISPOT
TITLE	LABEL	Potentiostatic EIS	Test Identifier
DATE	LABEL	9/15/2020	Date
TIME	LABEL	1:25:42	Time
NOTES	NOTES	1	Notes...
	
PSTAT	PSTAT	REF3000-16137	Potentiostat
VDC	POTEN	0.00000E+000	T	DC Voltage (V)
FREQINIT	QUANT	3.00000E+005	Initial Freq. (Hz)
FREQFINAL	QUANT	1.00000E+000	Final Freq. (Hz)
PTSPERDEC	QUANT	1.00000E+001	Points/decade
VAC	QUANT	5.00000E+001	AC Voltage (mV rms)
AREA	QUANT	1.00000E+000	Sample Area (cm^2)
SPEED	SELECTOR	2	Optimize for:
ZGUESS	QUANT	1.00000E+003	Estimated Z (ohms)
EOC	QUANT	0	Open Circuit (V)
SEQUENCER	TOGGLE	TRUE	Run as Sequence
PSTATMODEL	IQUANT	5	Pstat Model
PSTATSECTION	LABEL	REF3000-16137	Pstat Section
PSTATSERIALNO	LABEL	16137	Pstat Serial Number
CTRLMODE	IQUANT	1	Control Mode
IESTAB	IQUANT	0	I/E Stability
CASPEED	IQUANT	1	Control Amp Speed
CONVENTION	IQUANT	1	Current Convention
ICHRANGE	IQUANT	2	Ich Range
ICHRANGEMODE	TOGGLE	F	Ich Auto Range
ICHOFFSETENABLE	TOGGLE	T	Ich Offset Enable
ICHOFFSET	QUANT	0	Ich Offset (V)
ICHFILTER	IQUANT	3	Ich Filter
VCHRANGE	IQUANT	2	Vch Range
VCHRANGEMODE	TOGGLE	F	Vch Auto Range
VCHOFFSETENABLE	TOGGLE	T	Vch Offset Enable
VCHOFFSET	QUANT	0	Vch Offset (V)
VCHFILTER	IQUANT	3	Vch Filter
ACHRANGE	IQUANT	2	Ach Range
ACHOFFSETENABLE	TOGGLE	F	Ach Offset Enable
ACHOFFSET	QUANT	0	Ach Offset (V)
ACHFILTER	IQUANT	3	Ach Filter
IERANGELOWERLIMIT	IQUANT	2	I/E Range Lower Limit
IERANGEMODE	TOGGLE	F	I/E AutoRange
IERANGE	IQUANT	11	I/E Range
POSFEEDENABLE	TOGGLE	F	Positive Feedback IR Comp
POSFEEDRESISTANCE	QUANT	0	Positive Feedback Resistance (ohm)
ACHSELECT	IQUANT	0	Ach Select
CABLEID	IQUANT	13	Cable ID
DCCALDATE	LABEL	7/31/2020	DC Calibration Date
ACCALDATE	LABEL	7/31/2020	AC Calibration Date
THERMOSELECT	IQUANT	1	Thermo Select
FRAMEWORKVERSION	QUANT	6.33	Framework Version
INSTRUMENTVERSION	LABEL	3.50	Instrument Version
COMPLIANCEVOLTAGE	IQUANT	0	Compliance Voltage
ZCURVE	TABLE
	Pt	Time	Freq	Zreal	Zimag	Zsig	Zmod	Zphz	Idc	Vdc	IERange
	#	s	Hz	ohm	ohm	V	ohm	°	A	V	#
	0	7	300046.9	61.52222	-2.38802	1	61.56855	-2.222852	-4.936224E-005	0.0005936	9
	1	10	238359.4	62.06773	-3.823158	1	62.18536	-3.524769	3.144391E-005	-0.0002043	9
	2	13	189328.1	62.71141	-5.105957	1	62.91893	-4.654749	-6.835077E-006	0.0006189	9
	3	16	150421.9	63.58742	-6.378579	1	63.90654	-5.72829	-6.193388E-005	0.0017672	9
	4	18	119484.4	64.45924	-7.734497	1	64.92162	-6.842237	5.860568E-005	-0.0020989	9
	5	21	94921.88	65.47522	-8.923002	1	66.08044	-7.760495	2.217347E-005	-0.0004666	9
	6	23	75421.88	66.54611	-10.54209	1	67.37596	-9.001862	-4.558621E-006	0.0005243	9
	7	26	59859.37	67.68484	-12.25553	1	68.78543	-10.26321	1.013282E-005	-0.0005406	9
	8	28	47578.12	68.91238	-14.22873	1	70.36599	-11.66624	-1.729735E-005	0.0005482	9
	9	31	37828.12	70.19829	-16.4195	1	72.09299	-13.1649	1.151118E-006	0.0004255	9
	10	33	30046.88	71.50931	-18.95859	1	73.97979	-14.84868	1.985589E-005	-0.0005897	9
	11	36	23859.38	72.81956	-22.05093	1	76.08504	-16.84715	1.851287E-005	-0.0001388	9
	12	38	18984.38	74.12669	-25.82219	1	78.49554	-19.20589	2.181073E-005	-0.000282	9
	13	41	15046.87	75.48847	-30.59333	1	81.4522	-22.06131	-1.387755E-005	0.0002187	9
	14	43	11953.13	76.91936	-36.44925	1	85.11837	-25.35455	-4.412141E-006	-0.00011	9
	15	45	9515.62	78.3201	-43.7547	1	89.7135	-29.19057	-1.57638E-005	0.0007032	9
	16	47	7546.875	79.95577	-53.22046	1	96.0486	-33.64868	1.75049E-005	-0.0001558	9
	17	50	5928.309	81.85814	-65.27641	1	104.6984	-38.57003	-2.850549E-006	-0.0001579	9
	18	52	4733.456	84.01269	-79.52692	1	115.6835	-43.42881	2.221257E-005	-0.0005429	9
	19	54	3796.875	86.57809	-96.5781	1	129.7039	-48.12516	1.300269E-005	-0.0005268	9
	20	57	2987.132	89.64396	-119.9145	1	149.7182	-53.21947	-8.836313E-006	3.879427E-005	9
	21	59	2390.625	93.57072	-146.2749	1	173.6428	-57.39333	-9.169489E-006	7.455157E-005	9
	22	61	1884.191	97.8842	-182.1804	1	206.8115	-61.75118	1.772544E-005	-0.0001435	9
	23	64	1516.544	103.3374	-221.6109	1	244.52	-65.00032	2.223499E-005	-0.0005385	9
	24	66	1193.986	110.0547	-275.5235	1	296.6905	-68.22632	-3.011863E-006	0.000572	9
	25	68	946.5144	118.6383	-341.082	1	361.126	-70.82083	2.003459E-005	-0.0002852	9
	26	71	751.7689	129.1919	-420.6957	1	440.0857	-72.92874	2.109619E-005	-0.0002789	9
	27	73	597.4265	141.3092	-517.2635	1	536.2181	-74.72041	-3.571797E-006	0.0020836	8
	28	76	477.4305	156.2781	-635.5541	1	654.4859	-76.18546	3.773616E-007	0.0006558	8
	29	78	376.6741	175.8239	-790.2111	1	809.5354	-77.45589	3.655315E-007	0.0006477	8
	30	80	298.2954	199.5391	-979.409	1	999.528	-78.48449	3.774497E-007	0.0006506	8
	31	83	237.7717	227.9797	-1206.653	1	1228.001	-79.3009	3.765098E-007	0.0006404	8
	32	85	189.0121	263.3679	-1490.769	1	1513.854	-79.98117	3.788379E-007	0.0006454	8
	33	87	150.2404	307.1902	-1841.992	1	1867.431	-80.53188	3.663615E-007	0.0006452	8
	34	90	119.1737	362.3567	-2281.323	1	2309.921	-80.97475	3.887191E-007	0.0006474	8
	35	92	95.0169	428.8185	-2810.914	1	2843.435	-81.32613	3.691713E-007	0.0006483	8
	36	95	75.60484	512.334	-3472.085	1	3509.681	-81.60612	3.830852E-007	0.0006482	8
	37	97	54.50582	672.2013	-4695.437	1	4743.309	-81.85286	3.932164E-007	0.0006454	8
	38	100	45.95588	778.8742	-5511.62	1	5566.381	-81.95651	4.325258E-008	0.0006223	7
	39	102	37.20238	936.5906	-6696.587	1	6761.767	-82.03821	4.031086E-008	0.0006217	7
	40	104	30.04808	1130.956	-8152.706	1	8230.776	-82.10225	3.578374E-008	0.0006223	7
	41	107	23.91582	1390.416	-10049.05	1	10144.78	-82.1224	3.232573E-008	0.0006214	7
	42	109	18.60119	1779.294	-12683.68	1	12807.87	-82.01453	3.628846E-008	0.0006281	7
	43	111	15.02404	2158.021	-15432.42	1	15582.58	-82.03956	4.211159E-008	0.0006234	7
	44	114	12.01923	2691.707	-18952.82	1	19143.01	-81.91683	4.101063E-008	0.0006221	7
	45	116	9.450605	3428.85	-23618.03	1	23865.63	-81.73955	3.866061E-008	0.0006297	7
	46	119	7.512019	4348.615	-29187.21	1	29509.39	-81.52582	4.377402E-008	0.000635	7
	47	122	5.978954	5560.542	-35945.39	1	36372.94	-81.20638	4.230612E-008	0.0006388	7
	48	126	4.734848	7264.884	-44444.73	1	45034.57	-80.7166	6.676104E-009	0.0006925	6
	49	130	3.75601	9399.741	-54817.79	1	55617.85	-80.26998	4.694296E-009	0.0006552	6
	50	135	3.004808	12137.88	-66964.64	1	68055.8	-79.72622	5.736588E-009	0.0006497	6
	51	141	2.372217	16031.19	-82511.98	1	84054.89	-79.00503	5.255499E-009	0.0006806	6
	52	146	1.878005	21206.58	-101541.4	1	103732.3	-78.20353	4.322318E-009	0.0006715	6
	53	150	1.512097	27349.29	-122536.3	1	125551.3	-77.41817	4.974361E-009	0.0005573	6
	54	156	1.201923	35982.07	-149186.5	1	153464.4	-76.4399	4.124319E-009	0.000731	6
	55	162	0.956633	46912.75	-180654.4	1	186646.2	-75.44283	4.229136E-009	3.817374E-005	6
