EXPLAIN
TAG	EISPOT
TITLE	LABEL	Potentiostatic EIS	Test Identifier
DATE	LABEL	9/15/2020	Date
TIME	LABEL	8:24:48	Time
NOTES	NOTES	1	Notes...
	
PSTAT	PSTAT	REF3000-16137	Potentiostat
VDC	POTEN	0.00000E+000	T	DC Voltage (V)
FREQINIT	QUANT	3.00000E+005	Initial Freq. (Hz)
FREQFINAL	QUANT	1.00000E+000	Final Freq. (Hz)
PTSPERDEC	QUANT	1.00000E+001	Points/decade
VAC	QUANT	5.00000E+001	AC Voltage (mV rms)
AREA	QUANT	1.00000E+000	Sample Area (cm^2)
SPEED	SELECTOR	2	Optimize for:
ZGUESS	QUANT	1.00000E+003	Estimated Z (ohms)
EOC	QUANT	0	Open Circuit (V)
SEQUENCER	TOGGLE	TRUE	Run as Sequence
PSTATMODEL	IQUANT	5	Pstat Model
PSTATSECTION	LABEL	REF3000-16137	Pstat Section
PSTATSERIALNO	LABEL	16137	Pstat Serial Number
CTRLMODE	IQUANT	1	Control Mode
IESTAB	IQUANT	0	I/E Stability
CASPEED	IQUANT	1	Control Amp Speed
CONVENTION	IQUANT	1	Current Convention
ICHRANGE	IQUANT	2	Ich Range
ICHRANGEMODE	TOGGLE	F	Ich Auto Range
ICHOFFSETENABLE	TOGGLE	T	Ich Offset Enable
ICHOFFSET	QUANT	0	Ich Offset (V)
ICHFILTER	IQUANT	3	Ich Filter
VCHRANGE	IQUANT	2	Vch Range
VCHRANGEMODE	TOGGLE	F	Vch Auto Range
VCHOFFSETENABLE	TOGGLE	T	Vch Offset Enable
VCHOFFSET	QUANT	0	Vch Offset (V)
VCHFILTER	IQUANT	3	Vch Filter
ACHRANGE	IQUANT	2	Ach Range
ACHOFFSETENABLE	TOGGLE	F	Ach Offset Enable
ACHOFFSET	QUANT	0	Ach Offset (V)
ACHFILTER	IQUANT	3	Ach Filter
IERANGELOWERLIMIT	IQUANT	2	I/E Range Lower Limit
IERANGEMODE	TOGGLE	F	I/E AutoRange
IERANGE	IQUANT	11	I/E Range
POSFEEDENABLE	TOGGLE	F	Positive Feedback IR Comp
POSFEEDRESISTANCE	QUANT	0	Positive Feedback Resistance (ohm)
ACHSELECT	IQUANT	0	Ach Select
CABLEID	IQUANT	13	Cable ID
DCCALDATE	LABEL	7/31/2020	DC Calibration Date
ACCALDATE	LABEL	7/31/2020	AC Calibration Date
THERMOSELECT	IQUANT	1	Thermo Select
FRAMEWORKVERSION	QUANT	6.33	Framework Version
INSTRUMENTVERSION	LABEL	3.50	Instrument Version
COMPLIANCEVOLTAGE	IQUANT	0	Compliance Voltage
ZCURVE	TABLE
	Pt	Time	Freq	Zreal	Zimag	Zsig	Zmod	Zphz	Idc	Vdc	IERange
	#	s	Hz	ohm	ohm	V	ohm	°	A	V	#
	0	14	300046.9	-51.60122	-4900.766	1	4901.038	-90.60326	1.60845E-006	0.00153	9
	1	28	238359.4	25.80491	-6228.279	1	6228.333	-89.76261	-2.458169E-005	-0.0011635	9
	2	45	189328.1	-217.2147	-7513.994	1	7517.133	-91.65585	-2.748523E-005	-0.0011259	9
	3	52	150421.9	-6.377062	-8998.564	1	8998.566	-90.0406	8.793054E-005	-0.0024514	9
	4	61	119484.4	-181.3012	-11960.36	1	11961.73	-90.86845	-2.900534E-007	0.0017098	9
	5	69	94921.88	616.982	-14811.73	1	14824.58	-87.61472	2.259313E-005	-0.009632	8
	6	78	75421.88	466.6538	-18195.36	1	18201.34	-88.53087	2.28115E-005	-0.0026677	8
	7	86	59859.37	595.3784	-23180.63	1	23188.28	-88.52872	2.312382E-005	-0.002721	8
	8	95	47578.12	387.9762	-29359.78	1	29362.34	-89.2429	-2.048018E-006	0.0077407	8
	9	105	37828.12	1858.61	-35237.5	1	35286.48	-86.98072	2.318852E-005	-0.002767	8
	10	113	30046.88	747.9667	-46608	1	46614	-89.0806	-1.218767E-005	0.0102491	8
	11	122	23859.38	5362.93	-57721.27	1	57969.87	-84.69184	-1.222318E-006	-0.0135736	7
	12	127	18984.38	3947.922	-73037.69	1	73144.31	-86.90599	-1.847148E-006	0.0221878	7
	13	132	15046.87	4670.558	-92802.75	1	92920.2	-87.11886	3.573159E-006	-0.0247014	7
	14	138	11953.13	5404.689	-114360.8	1	114488.5	-87.29422	3.586145E-006	-0.0247872	7
	15	144	9515.62	8464.119	-145553.7	1	145799.6	-86.67193	-5.434537E-006	0.0268746	7
	16	149	7546.875	7693.711	-188721.1	1	188877.9	-87.66548	6.619092E-006	-0.0099972	7
	17	155	5928.309	10951.06	-205828.7	1	206119.8	-86.95447	4.294236E-007	0.0164276	7
	18	161	4733.456	40055.77	-309937.8	1	312515.4	-82.63602	-5.828182E-011	0.0175036	6
	19	166	3796.875	1264.441	-354230.6	1	354232.8	-89.79548	2.747884E-006	0.0086523	7
	20	172	2987.132	-41904.28	-457313.4	1	459229.3	-95.2355	-5.391661E-006	0.0268956	7
	21	178	2390.625	313621.6	-400036.4	1	508318.5	-51.90417	1.752149E-005	0.0003547	8
	22	186	1884.191	653961.2	-807017.3	1	1038721	-50.98064	7.578529E-006	-0.0184224	7
	23	194	1516.544	34459.95	-901962.3	1	902620.4	-87.81205	1.353591E-006	-0.0200572	7
	24	201	1193.986	42285.95	-1146000	1	1146780	-87.88682	6.151201E-007	-0.0072412	6
	25	208	946.5144	-558219.4	-452416	1	718532.6	-140.9765	7.504491E-006	-0.0182442	7
	26	214	751.7689	1278745	-2223466	1	2564954	-60.09621	-6.63206E-006	0.0258949	7
	27	219	597.4265	1027411	675764.3	1	1229728	33.33432	-9.447626E-006	-0.0019932	8
	28	227	477.4305	57868.82	-2880971	1	2881552	-88.84928	-8.119514E-008	0.0005851	7
	29	234	376.6741	485625.6	-3742291	1	3773668	-82.60622	-9.451004E-010	0.0006759	5
	30	238	298.2954	519526.5	-4629438	1	4658498	-83.59692	-8.526862E-010	0.0006776	5
	31	242	237.7717	634786.1	-5724788	1	5759874	-83.67268	-8.469906E-010	0.0006705	5
	32	246	189.0121	561557.4	-7242337	1	7264076	-85.56626	-9.128407E-010	0.0006257	5
	33	249	150.2404	518778	-8886723	1	8901852	-86.65905	-9.264194E-010	0.0006806	5
	34	252	119.1737	1059671	-1.65157E+007	1	1.654966E+007	-86.32885	-8.62808E-010	0.0006919	5
	35	254	95.0169	869658.7	-1.437447E+007	1	1.440075E+007	-86.53781	-8.625323E-010	0.0005911	5
	36	257	75.60484	272991.1	-1.904927E+007	1	1.905123E+007	-89.17896	-9.717027E-010	0.0005926	5
	37	260	54.50582	1572285	-2.547611E+007	1	2.552458E+007	-86.46841	-9.205213E-010	0.0005916	5
	38	263	45.95588	-1872365	-2.731998E+007	1	2.738407E+007	-93.92062	-8.692328E-010	0.0006347	5
	39	267	37.20238	5296892	-3.722527E+007	1	3.760024E+007	-81.90158	-9.028969E-010	0.0006549	5
	40	271	30.04808	5765593	-4.514191E+007	1	4.550861E+007	-82.7215	-9.215371E-011	0.0006868	4
	41	275	23.91582	2031301	-6.093187E+007	1	6.096572E+007	-88.09062	-5.30977E-011	0.000596	4
	42	279	18.60119	-8978028	-7.069403E+007	1	7.126185E+007	-97.2377	-9.086171E-011	0.0005966	4
	43	282	15.02404	5957098	-8.588566E+007	1	8.6092E+007	-86.03227	-9.662549E-011	0.0005978	4
	44	286	12.01923	3196188	-1.121115E+008	1	1.12157E+008	-88.367	-7.555933E-011	0.0006031	4
	45	290	9.450605	1.025628E+007	-1.397184E+008	1	1.400943E+008	-85.80163	-9.47983E-011	0.0006733	4
	46	294	7.512019	1.025868E+007	-1.771132E+008	1	1.774101E+008	-86.68504	-9.419619E-011	0.0006869	4
	47	298	5.978954	1331579	-2.647531E+008	1	2.647564E+008	-89.71183	-5.787932E-011	0.000623	4
	48	303	4.734848	1.303577E+007	-2.81621E+008	1	2.819226E+008	-87.34977	-9.847846E-010	0.0006399	5
	49	311	3.75601	-5.564267E+007	-3.573374E+008	1	3.616436E+008	-98.8507	-9.992265E-010	0.0006835	5
	50	319	3.004808	6.294468E+007	-5.091405E+008	1	5.130167E+008	-82.95232	-9.305541E-010	0.0006049	5
	51	328	2.372217	6.97095E+007	-5.585149E+008	1	5.628484E+008	-82.88557	-7.565363E-012	0.0006869	3
	52	334	1.878005	8.124266E+007	-7.01374E+008	1	7.060637E+008	-83.39267	-7.428138E-012	0.0007129	3
	53	343	1.512097	9.855464E+007	-8.648952E+008	1	8.704922E+008	-83.4992	-7.286435E-012	0.0008059	3
	54	350	1.201923	1.183678E+008	-1.083196E+009	1	1.089644E+009	-83.76366	-7.257099E-012	0.0007222	3
	55	361	0.956633	1.446596E+008	-1.355407E+009	1	1.363105E+009	-83.908	-7.186519E-012	8.365841E-005	3
