EXPLAIN
TAG	EISPOT
TITLE	LABEL	Potentiostatic EIS	Test Identifier
DATE	LABEL	9/15/2020	Date
TIME	LABEL	0:48:35	Time
NOTES	NOTES	1	Notes...
	
PSTAT	PSTAT	REF3000-16137	Potentiostat
VDC	POTEN	0.00000E+000	T	DC Voltage (V)
FREQINIT	QUANT	3.00000E+005	Initial Freq. (Hz)
FREQFINAL	QUANT	1.00000E+000	Final Freq. (Hz)
PTSPERDEC	QUANT	1.00000E+001	Points/decade
VAC	QUANT	5.00000E+001	AC Voltage (mV rms)
AREA	QUANT	1.00000E+000	Sample Area (cm^2)
SPEED	SELECTOR	2	Optimize for:
ZGUESS	QUANT	1.00000E+003	Estimated Z (ohms)
EOC	QUANT	0	Open Circuit (V)
SEQUENCER	TOGGLE	TRUE	Run as Sequence
PSTATMODEL	IQUANT	5	Pstat Model
PSTATSECTION	LABEL	REF3000-16137	Pstat Section
PSTATSERIALNO	LABEL	16137	Pstat Serial Number
CTRLMODE	IQUANT	1	Control Mode
IESTAB	IQUANT	0	I/E Stability
CASPEED	IQUANT	1	Control Amp Speed
CONVENTION	IQUANT	1	Current Convention
ICHRANGE	IQUANT	2	Ich Range
ICHRANGEMODE	TOGGLE	F	Ich Auto Range
ICHOFFSETENABLE	TOGGLE	T	Ich Offset Enable
ICHOFFSET	QUANT	0	Ich Offset (V)
ICHFILTER	IQUANT	3	Ich Filter
VCHRANGE	IQUANT	2	Vch Range
VCHRANGEMODE	TOGGLE	F	Vch Auto Range
VCHOFFSETENABLE	TOGGLE	T	Vch Offset Enable
VCHOFFSET	QUANT	0	Vch Offset (V)
VCHFILTER	IQUANT	3	Vch Filter
ACHRANGE	IQUANT	2	Ach Range
ACHOFFSETENABLE	TOGGLE	F	Ach Offset Enable
ACHOFFSET	QUANT	0	Ach Offset (V)
ACHFILTER	IQUANT	3	Ach Filter
IERANGELOWERLIMIT	IQUANT	2	I/E Range Lower Limit
IERANGEMODE	TOGGLE	F	I/E AutoRange
IERANGE	IQUANT	11	I/E Range
POSFEEDENABLE	TOGGLE	F	Positive Feedback IR Comp
POSFEEDRESISTANCE	QUANT	0	Positive Feedback Resistance (ohm)
ACHSELECT	IQUANT	0	Ach Select
CABLEID	IQUANT	13	Cable ID
DCCALDATE	LABEL	7/31/2020	DC Calibration Date
ACCALDATE	LABEL	7/31/2020	AC Calibration Date
THERMOSELECT	IQUANT	1	Thermo Select
FRAMEWORKVERSION	QUANT	6.33	Framework Version
INSTRUMENTVERSION	LABEL	3.50	Instrument Version
COMPLIANCEVOLTAGE	IQUANT	0	Compliance Voltage
ZCURVE	TABLE
	Pt	Time	Freq	Zreal	Zimag	Zsig	Zmod	Zphz	Idc	Vdc	IERange
	#	s	Hz	ohm	ohm	V	ohm	°	A	V	#
	0	6	300046.9	49.19093	-1.652949	1	49.2187	-1.924569	-9.55144E-006	0.0002648	9
	1	10	238359.4	49.82943	-2.820075	1	49.90916	-3.239174	5.701758E-005	-0.0023978	9
	2	13	189328.1	50.39703	-4.115345	1	50.56478	-4.668328	9.947773E-006	-0.0005791	9
	3	15	150421.9	50.98518	-5.352519	1	51.26537	-5.993064	-4.051172E-006	0.000748	9
	4	18	119484.4	51.84584	-6.481589	1	52.24943	-7.125951	-9.232197E-007	-0.0008304	9
	5	20	94921.88	52.73398	-7.526476	1	53.26838	-8.122703	2.060042E-005	-0.0005416	9
	6	23	75421.88	53.60358	-8.907754	1	54.33868	-9.435097	1.747083E-005	-0.0005888	9
	7	26	59859.37	54.52805	-10.45096	1	55.52054	-10.84985	1.115603E-005	-9.333591E-006	9
	8	28	47578.12	55.51186	-12.16392	1	56.82893	-12.35947	2.050802E-005	-0.0005518	9
	9	31	37828.12	56.56963	-14.14447	1	58.31114	-14.03821	-5.818549E-006	0.0005208	9
	10	33	30046.88	57.56226	-16.47915	1	59.87468	-15.97557	-1.570189E-005	0.0006151	9
	11	36	23859.38	58.57769	-19.29745	1	61.67444	-18.23362	-1.577848E-005	0.0004883	9
	12	38	18984.38	59.63979	-22.79453	1	63.84744	-20.91702	1.035166E-005	-0.0004687	9
	13	40	15046.87	60.70615	-27.19227	1	66.51809	-24.12917	1.907439E-005	-0.000201	9
	14	43	11953.13	61.86014	-32.59251	1	69.92101	-27.78359	-1.558107E-005	0.000494	9
	15	45	9515.62	63.10763	-39.3595	1	74.37569	-31.95131	1.00377E-005	-0.0004618	9
	16	47	7546.875	64.48305	-47.87674	1	80.31342	-36.59278	-1.420533E-005	0.0004342	9
	17	50	5928.309	66.23796	-59.22571	1	88.85467	-41.80103	-7.954588E-006	0.0006203	9
	18	52	4733.456	68.13824	-72.19818	1	99.2744	-46.65711	-3.104592E-006	0.0005309	9
	19	54	3796.875	70.49892	-87.69648	1	112.5201	-51.20431	-8.782334E-006	0.0000979	9
	20	56	2987.132	73.24556	-108.9539	1	131.2854	-56.08856	1.649655E-005	-0.0001281	9
	21	59	2390.625	76.92488	-133.1503	1	153.7739	-59.98369	-1.520064E-005	0.0004522	9
	22	61	1884.191	81.00356	-165.6394	1	184.3854	-63.93972	1.774051E-005	-0.0005197	9
	23	63	1516.544	86.23701	-201.3029	1	218.997	-66.80998	-8.865061E-006	7.994202E-005	9
	24	66	1193.986	92.49815	-250.7586	1	267.2747	-69.75233	-8.086079E-006	0.0006285	9
	25	68	946.5144	99.4841	-310.0525	1	325.6219	-72.21053	-1.330335E-005	0.0006498	9
	26	71	751.7689	109.7925	-382.3942	1	397.8438	-73.98025	2.105788E-005	-0.0004033	9
	27	73	597.4265	121.455	-469.796	1	485.2418	-75.50486	-5.077454E-007	0.001534	8
	28	75	477.4305	135.8494	-577.0567	1	592.8318	-76.75276	4.363758E-007	0.0006507	8
	29	77	376.6741	154.3947	-717.2018	1	733.6322	-77.85113	4.411329E-007	0.0006493	8
	30	80	298.2954	177.1289	-888.5781	1	906.0605	-78.72645	4.326443E-007	0.0006528	8
	31	82	237.7717	204.6512	-1094.385	1	1113.356	-79.40797	4.232193E-007	0.0006556	8
	32	85	189.0121	239.4721	-1351.503	1	1372.555	-79.95208	4.274084E-007	0.0006542	8
	33	87	150.2404	283.3193	-1669.042	1	1692.918	-80.3659	4.304775E-007	0.0006543	8
	34	89	119.1737	338.6395	-2065.401	1	2092.978	-80.68873	4.298196E-007	0.0006529	8
	35	92	95.0169	409.404	-2542.246	1	2575	-80.85162	4.348078E-007	0.0006434	8
	36	94	75.60484	499.8461	-3134.129	1	3173.738	-80.93851	4.308236E-007	0.0006459	8
	37	97	54.50582	671.2444	-4226.686	1	4279.654	-80.97616	4.353566E-007	0.0006453	8
	38	99	45.95588	796.5357	-4944.293	1	5008.044	-80.84817	5.283276E-008	0.0006258	7
	39	102	37.20238	973.447	-5985.436	1	6064.078	-80.76253	4.946449E-008	0.0006273	7
	40	104	30.04808	1188.777	-7244.904	1	7341.787	-80.68169	4.176241E-008	0.0006231	7
	41	106	23.91582	1471.949	-8900	1	9020.899	-80.609	3.973687E-008	0.0006206	7
	42	109	18.60119	1874.907	-11131.75	1	11288.54	-80.43947	5.181051E-008	0.0006324	7
	43	111	15.02404	2269.083	-13479.37	1	13669.02	-80.44456	5.22975E-008	0.0006182	7
	44	114	12.01923	2793.25	-16453.8	1	16689.21	-80.36514	4.779277E-008	0.0006283	7
	45	116	9.450605	3481.517	-20409.74	1	20704.55	-80.3196	4.926352E-008	0.0006427	7
	46	119	7.512019	4295.719	-25075.5	1	25440.79	-80.27895	5.1784E-008	0.0006184	7
	47	122	5.978954	5296.526	-30785.41	1	31237.71	-80.23802	5.161841E-008	0.0006257	7
	48	126	4.734848	6640.444	-37960.3	1	38536.73	-80.07758	5.357067E-008	0.0005943	7
	49	129	3.75601	8429.201	-46737.84	1	47491.87	-79.77657	7.534654E-009	0.0006839	6
	50	135	3.004808	10531.43	-57073.48	1	58037	-79.54515	6.82104E-009	0.0006823	6
	51	141	2.372217	13554.44	-70468.33	1	71760.07	-79.11224	6.388067E-009	0.0006597	6
	52	145	1.878005	17574.78	-86973.34	1	88731.25	-78.57602	7.474265E-009	0.0006471	6
	53	150	1.512097	22314.52	-105391.9	1	107728.3	-78.04537	6.765825E-009	0.0007643	6
	54	155	1.201923	29377.85	-129033.5	1	132335.6	-77.17376	7.399353E-009	0.0006614	6
	55	162	0.956633	38560.25	-157287.2	1	161944.9	-76.22514	5.623887E-009	2.917914E-005	6
