May 16, 2026   00:56:24
A.C. Impedance
File: e:\chi_data\bo-r0.64-n0.58-7ffv-2_t3.0_f0.1_1000000_v0.txt
Data Source:  Experiment
Instrument Model:  CHI660E
Header: 
Note: 

Init E (V) = 0
High Frequency (Hz) = 1e+6
Low Frequency (Hz) = 0.1
Imp SF
Amplitude (V) = 0.005
Quiet Time (sec) = 2
Cycles (.1-1Hz) = 1

Freq/Hz, Z'/ohm, Z"/ohm, Z/ohm, Phase/deg

8.252e+5, 8.870e+0, 1.156e+1, 1.457e+1, 52.5
6.816e+5, 8.324e+0, 9.275e+0, 1.246e+1, 48.1
5.625e+5, 7.794e+0, 7.730e+0, 1.098e+1, 44.8
4.639e+5, 7.586e+0, 6.303e+0, 9.863e+0, 39.7
3.828e+5, 7.449e+0, 5.268e+0, 9.123e+0, 35.3
3.164e+5, 7.390e+0, 4.344e+0, 8.573e+0, 30.4
2.607e+5, 7.313e+0, 3.606e+0, 8.154e+0, 26.2
2.158e+5, 7.248e+0, 2.956e+0, 7.828e+0, 22.2
1.777e+5, 7.207e+0, 2.388e+0, 7.593e+0, 18.3
1.465e+5, 7.183e+0, 1.900e+0, 7.430e+0, 14.8
1.211e+5, 7.149e+0, 1.523e+0, 7.309e+0, 12.0
9.961e+4, 7.128e+0, 1.215e+0, 7.230e+0, 9.7
8.252e+4, 7.117e+0, 9.521e-1, 7.181e+0, 7.6
6.812e+4, 7.113e+0, 7.135e-1, 7.149e+0, 5.7
5.625e+4, 7.112e+0, 4.954e-1, 7.130e+0, 4.0
4.644e+4, 7.124e+0, 2.899e-1, 7.130e+0, 2.3
3.833e+4, 7.146e+0, 9.275e-2, 7.147e+0, 0.7
3.164e+4, 7.169e+0, -9.432e-2, 7.170e+0, -0.8
2.612e+4, 7.193e+0, -2.707e-1, 7.198e+0, -2.2
2.153e+4, 7.221e+0, -4.457e-1, 7.235e+0, -3.5
1.777e+4, 7.253e+0, -6.308e-1, 7.281e+0, -5.0
1.470e+4, 7.282e+0, -8.384e-1, 7.330e+0, -6.6
1.211e+4, 7.313e+0, -1.068e+0, 7.391e+0, -8.3
1.001e+4, 7.352e+0, -1.327e+0, 7.471e+0, -10.2
8.252e+3, 7.396e+0, -1.625e+0, 7.572e+0, -12.4
6.812e+3, 7.447e+0, -1.966e+0, 7.702e+0, -14.8
5.625e+3, 7.508e+0, -2.366e+0, 7.872e+0, -17.5
4.643e+3, 7.577e+0, -2.837e+0, 8.091e+0, -20.5
3.833e+3, 7.656e+0, -3.394e+0, 8.374e+0, -23.9
3.164e+3, 7.745e+0, -4.052e+0, 8.741e+0, -27.6
2.612e+3, 7.851e+0, -4.837e+0, 9.222e+0, -31.6
2.153e+3, 7.974e+0, -5.776e+0, 9.846e+0, -35.9
1.777e+3, 8.116e+0, -6.890e+0, 1.065e+1, -40.3
1.470e+3, 8.282e+0, -8.219e+0, 1.167e+1, -44.8
1.211e+3, 8.476e+0, -9.804e+0, 1.296e+1, -49.2
1.001e+3, 8.702e+0, -1.168e+1, 1.457e+1, -53.3
8.252e+2, 8.965e+0, -1.391e+1, 1.655e+1, -57.2
6.836e+2, 9.271e+0, -1.658e+1, 1.900e+1, -60.8
5.615e+2, 9.657e+0, -1.982e+1, 2.205e+1, -64.0
4.639e+2, 1.014e+1, -2.374e+1, 2.582e+1, -66.9
3.809e+2, 1.068e+1, -2.837e+1, 3.032e+1, -69.4
3.174e+2, 1.132e+1, -3.393e+1, 3.577e+1, -71.6
2.588e+2, 1.207e+1, -4.061e+1, 4.237e+1, -73.4
2.148e+2, 1.296e+1, -4.863e+1, 5.033e+1, -75.1
1.758e+2, 1.402e+1, -5.814e+1, 5.981e+1, -76.4
1.465e+2, 1.524e+1, -6.917e+1, 7.083e+1, -77.6
1.221e+2, 1.678e+1, -8.303e+1, 8.471e+1, -78.6
9.766e+1, 1.891e+1, -9.935e+1, 1.011e+2, -79.2
8.254e+1, 2.155e+1, -1.181e+2, 1.201e+2, -79.7
6.813e+1, 2.453e+1, -1.409e+2, 1.430e+2, -80.1
5.623e+1, 2.788e+1, -1.683e+2, 1.706e+2, -80.6
4.642e+1, 3.177e+1, -2.012e+2, 2.037e+2, -81.0
3.831e+1, 3.643e+1, -2.405e+2, 2.433e+2, -81.4
3.162e+1, 4.209e+1, -2.876e+2, 2.906e+2, -81.7
2.610e+1, 4.889e+1, -3.436e+2, 3.470e+2, -81.9
2.154e+1, 5.700e+1, -4.102e+2, 4.142e+2, -82.1
1.778e+1, 6.687e+1, -4.898e+2, 4.944e+2, -82.2
1.468e+1, 7.854e+1, -5.848e+2, 5.901e+2, -82.4
1.212e+1, 9.253e+1, -6.982e+2, 7.044e+2, -82.5
1.000e+1, 1.099e+2, -8.341e+2, 8.413e+2, -82.5
8.254e+0, 1.307e+2, -9.968e+2, 1.005e+3, -82.5
6.813e+0, 1.553e+2, -1.191e+3, 1.201e+3, -82.6
5.623e+0, 1.844e+2, -1.423e+3, 1.435e+3, -82.6
4.642e+0, 2.189e+2, -1.700e+3, 1.714e+3, -82.7
3.831e+0, 2.617e+2, -2.030e+3, 2.047e+3, -82.7
3.162e+0, 3.135e+2, -2.426e+3, 2.446e+3, -82.6
2.610e+0, 3.753e+2, -2.899e+3, 2.923e+3, -82.6
2.154e+0, 4.416e+2, -3.470e+3, 3.498e+3, -82.7
1.778e+0, 5.179e+2, -4.156e+3, 4.189e+3, -82.9
1.468e+0, 6.204e+2, -4.968e+3, 5.006e+3, -82.9
1.212e+0, 7.575e+2, -5.931e+3, 5.979e+3, -82.7
1.000e+0, 9.373e+2, -7.064e+3, 7.126e+3, -82.4
8.254e-1, 1.162e+3, -8.394e+3, 8.474e+3, -82.1
6.813e-1, 1.432e+3, -9.965e+3, 1.007e+4, -81.8
5.623e-1, 1.761e+3, -1.183e+4, 1.196e+4, -81.5
4.642e-1, 2.166e+3, -1.404e+4, 1.420e+4, -81.2
3.831e-1, 2.661e+3, -1.665e+4, 1.686e+4, -80.9
3.162e-1, 3.280e+3, -1.972e+4, 2.000e+4, -80.6
2.610e-1, 4.054e+3, -2.334e+4, 2.369e+4, -80.1
2.154e-1, 4.999e+3, -2.762e+4, 2.807e+4, -79.7
1.778e-1, 6.150e+3, -3.265e+4, 3.323e+4, -79.3
1.468e-1, 7.544e+3, -3.851e+4, 3.924e+4, -78.9
1.212e-1, 9.242e+3, -4.535e+4, 4.628e+4, -78.5
1.000e-1, 1.126e+4, -5.321e+4, 5.439e+4, -78.0
