EXPLAIN
TAG	EISPOT
TITLE	LABEL	Potentiostatic EIS	Test Identifier
DATE	LABEL	8/4/2020	Date
TIME	LABEL	0:37:56	Time
NOTES	NOTES	1	Notes...
	
PSTAT	PSTAT	REF3000-16137	Potentiostat
VDC	POTEN	0.00000E+000	T	DC Voltage (V)
FREQINIT	QUANT	3.00000E+005	Initial Freq. (Hz)
FREQFINAL	QUANT	1.00000E+000	Final Freq. (Hz)
PTSPERDEC	QUANT	1.00000E+001	Points/decade
VAC	QUANT	5.00000E+001	AC Voltage (mV rms)
AREA	QUANT	1.00000E+000	Sample Area (cm^2)
SPEED	SELECTOR	2	Optimize for:
ZGUESS	QUANT	1.00000E+003	Estimated Z (ohms)
EOC	QUANT	0	Open Circuit (V)
SEQUENCER	TOGGLE	TRUE	Run as Sequence
PSTATMODEL	IQUANT	5	Pstat Model
PSTATSECTION	LABEL	REF3000-16137	Pstat Section
PSTATSERIALNO	LABEL	16137	Pstat Serial Number
CTRLMODE	IQUANT	1	Control Mode
IESTAB	IQUANT	0	I/E Stability
CASPEED	IQUANT	1	Control Amp Speed
CONVENTION	IQUANT	1	Current Convention
ICHRANGE	IQUANT	2	Ich Range
ICHRANGEMODE	TOGGLE	F	Ich Auto Range
ICHOFFSETENABLE	TOGGLE	T	Ich Offset Enable
ICHOFFSET	QUANT	0	Ich Offset (V)
ICHFILTER	IQUANT	3	Ich Filter
VCHRANGE	IQUANT	2	Vch Range
VCHRANGEMODE	TOGGLE	F	Vch Auto Range
VCHOFFSETENABLE	TOGGLE	T	Vch Offset Enable
VCHOFFSET	QUANT	0	Vch Offset (V)
VCHFILTER	IQUANT	3	Vch Filter
ACHRANGE	IQUANT	2	Ach Range
ACHOFFSETENABLE	TOGGLE	F	Ach Offset Enable
ACHOFFSET	QUANT	0	Ach Offset (V)
ACHFILTER	IQUANT	3	Ach Filter
IERANGELOWERLIMIT	IQUANT	2	I/E Range Lower Limit
IERANGEMODE	TOGGLE	F	I/E AutoRange
IERANGE	IQUANT	11	I/E Range
POSFEEDENABLE	TOGGLE	F	Positive Feedback IR Comp
POSFEEDRESISTANCE	QUANT	0	Positive Feedback Resistance (ohm)
ACHSELECT	IQUANT	0	Ach Select
CABLEID	IQUANT	13	Cable ID
DCCALDATE	LABEL	7/31/2020	DC Calibration Date
ACCALDATE	LABEL	7/31/2020	AC Calibration Date
THERMOSELECT	IQUANT	1	Thermo Select
FRAMEWORKVERSION	QUANT	6.33	Framework Version
INSTRUMENTVERSION	LABEL	3.50	Instrument Version
COMPLIANCEVOLTAGE	IQUANT	0	Compliance Voltage
ZCURVE	TABLE
	Pt	Time	Freq	Zreal	Zimag	Zsig	Zmod	Zphz	Idc	Vdc	IERange
	#	s	Hz	ohm	ohm	V	ohm	°	A	V	#
	0	8	300046.9	218.9954	-10.60272	1	219.2519	-2.771827	8.06188E-005	-0.0025322	9
	1	12	238359.4	224.5291	-8.111795	1	224.6755	-2.069084	6.491743E-005	-0.0031436	9
	2	15	189328.1	229.3818	-7.517796	1	229.5049	-1.877149	-6.588808E-005	0.0033573	9
	3	18	150421.9	233.9451	-6.385996	1	234.0323	-1.563614	-7.020718E-005	0.0016821	9
	4	20	119484.4	238.3444	-4.896159	1	238.3946	-1.176826	-4.969977E-005	0.0003009	9
	5	23	94921.88	244.0963	-4.308454	1	244.1344	-1.011202	-1.729192E-005	0.0001727	9
	6	27	75421.88	250.204	-5.208113	1	250.2582	-1.192466	2.606639E-005	0.0006001	10
	7	30	59859.37	257.0764	-3.069267	1	257.0947	-0.6840289	1.081549E-005	0.0003665	9
	8	34	47578.12	264.0182	-2.367393	1	264.0288	-0.5137448	-2.330389E-005	0.0006046	9
	9	38	37828.12	271.3832	-2.083466	1	271.3912	-0.439863	1.874879E-005	-6.04773E-005	9
	10	41	30046.88	278.519	-1.720609	1	278.5243	-0.3539522	1.678906E-005	-0.0008127	9
	11	45	23859.38	283.326	-1.62033	1	283.3306	-0.3276688	-1.685069E-005	0.0009358	9
	12	48	18984.38	290.5402	-1.359486	1	290.5434	-0.2680946	-9.51618E-006	0.0009111	9
	13	51	15046.87	294.6912	-1.465476	1	294.6948	-0.2849251	-2.472262E-005	0.0008166	9
	14	54	11953.13	299.6827	-1.081617	1	299.6847	-0.2067914	-2.074452E-005	0.0003413	9
	15	56	9515.62	305.1187	-1.623645	1	305.123	-0.3048883	1.79493E-005	-0.0008719	9
	16	58	7546.875	309.2604	-2.160292	1	309.268	-0.4002246	2.373321E-005	-0.0008187	9
	17	60	5928.309	315.3923	-2.089195	1	315.3993	-0.3795282	-2.518842E-005	0.0006993	9
	18	63	4733.456	320.5982	-3.589881	1	320.6183	-0.6415396	-2.136372E-005	0.0003459	9
	19	65	3796.875	327.2971	-2.670045	1	327.308	-0.4674008	-2.651834E-005	0.0009186	9
	20	67	2987.132	332.8826	-4.755205	1	332.9165	-0.8184107	7.049796E-006	0.000457	9
	21	70	2390.625	337.6397	-5.396954	1	337.6828	-0.9157583	-2.253996E-005	0.0005661	9
	22	72	1884.191	343.8387	-6.153441	1	343.8937	-1.025273	-3.002246E-006	0.0007494	9
	23	74	1516.544	350.6354	-7.799294	1	350.7222	-1.274238	-2.385066E-005	0.0008094	9
	24	77	1193.986	356.2069	-9.66804	1	356.338	-1.55472	2.769122E-005	-0.0004484	9
	25	79	946.5144	363.8054	-11.41818	1	363.9845	-1.797662	7.873377E-006	0.000405	9
	26	82	751.7689	369.9201	-13.50298	1	370.1665	-2.090506	9.775173E-006	0.000339	8
	27	84	597.4265	376.34	-18.09553	1	376.7748	-2.752828	9.693789E-006	0.0004362	8
	28	86	477.4305	384.1098	-22.30288	1	384.7567	-3.323081	-1.423372E-007	0.0006472	8
	29	89	376.6741	391.8022	-27.69522	1	392.7798	-4.043327	-1.470582E-007	0.0006446	8
	30	91	298.2954	399.8365	-34.23045	1	401.2991	-4.893225	-1.408959E-007	0.0006527	8
	31	93	237.7717	408.6098	-42.02079	1	410.7648	-5.871567	-1.295181E-007	0.0006465	8
	32	96	189.0121	417.9174	-51.67359	1	421.0999	-7.048589	-1.679567E-007	0.0006466	8
	33	98	150.2404	427.7922	-63.50676	1	432.4804	-8.444023	-1.597311E-007	0.000649	8
	34	101	119.1737	438.3701	-78.14567	1	445.2809	-10.10761	-1.629858E-007	0.0006749	8
	35	103	95.0169	449.6401	-95.7421	1	459.7203	-12.0205	-1.449683E-007	0.0006388	8
	36	106	75.60484	462.2774	-117.4665	1	476.9684	-14.25733	-1.584239E-007	0.0006464	8
	37	108	54.50582	478.3755	-157.2522	1	503.5587	-18.19679	-1.675457E-007	0.0006503	8
	38	111	45.95588	491.867	-183.2865	1	524.9068	-20.43712	-2.10638E-007	0.0006484	8
	39	113	37.20238	507.2264	-221.4886	1	553.4761	-23.58926	-1.269244E-007	0.0006366	8
	40	115	30.04808	524.6678	-268.2	1	589.2432	-27.07523	-1.884849E-007	0.0006495	8
	41	118	23.91582	544.942	-329.1628	1	636.6395	-31.13335	-2.943187E-007	0.000696	8
	42	120	18.60119	569.0924	-412.4054	1	702.8118	-35.92979	-1.361908E-007	0.0006476	8
	43	122	15.02404	594.7375	-499.3578	1	776.5764	-40.01774	-1.831006E-007	0.0006636	8
	44	125	12.01923	626.0685	-610.0966	1	874.1737	-44.25975	-3.065671E-007	0.0006536	8
	45	127	9.450605	665.5822	-757.6641	1	1008.491	-48.70179	-1.928253E-007	0.0006693	8
	46	130	7.512019	713.0563	-930.9178	1	1172.628	-52.54892	-2.383682E-007	0.0006594	8
	47	132	5.978954	771.237	-1141.737	1	1377.813	-55.96119	-1.875268E-007	0.0006397	8
	48	135	4.734848	844.6882	-1407.13	1	1641.193	-59.02397	-1.146587E-007	0.0006712	8
	49	139	3.75601	937.4706	-1728.387	1	1966.258	-61.52476	-2.509393E-007	0.0006413	8
	50	142	3.004808	1049.708	-2105	1	2352.215	-63.49577	-2.114611E-007	0.0006533	8
	51	146	2.372217	1200.586	-2589.244	1	2854.048	-65.12369	-2.236228E-007	0.0007044	8
	52	150	1.878005	1385.363	-3184.941	1	3473.195	-66.49226	-2.600568E-007	0.0006395	8
	53	155	1.512097	1596.656	-3844.563	1	4162.929	-67.44677	-2.341155E-007	0.0005968	8
	54	160	1.201923	1893.33	-4712.669	1	5078.774	-68.11205	-6.820081E-008	0.0006009	7
	55	166	0.956633	2246.755	-5740.271	1	6164.302	-68.62452	-7.1127E-008	-1.705982E-005	7
