EXPLAIN
TAG	EISPOT
TITLE	LABEL	Potentiostatic EIS	Test Identifier
DATE	LABEL	8/4/2020	Date
TIME	LABEL	0:21:17	Time
NOTES	NOTES	1	Notes...
	
PSTAT	PSTAT	REF3000-16137	Potentiostat
VDC	POTEN	0.00000E+000	T	DC Voltage (V)
FREQINIT	QUANT	3.00000E+005	Initial Freq. (Hz)
FREQFINAL	QUANT	1.00000E+000	Final Freq. (Hz)
PTSPERDEC	QUANT	1.00000E+001	Points/decade
VAC	QUANT	5.00000E+001	AC Voltage (mV rms)
AREA	QUANT	1.00000E+000	Sample Area (cm^2)
SPEED	SELECTOR	2	Optimize for:
ZGUESS	QUANT	1.00000E+003	Estimated Z (ohms)
EOC	QUANT	0	Open Circuit (V)
SEQUENCER	TOGGLE	TRUE	Run as Sequence
PSTATMODEL	IQUANT	5	Pstat Model
PSTATSECTION	LABEL	REF3000-16137	Pstat Section
PSTATSERIALNO	LABEL	16137	Pstat Serial Number
CTRLMODE	IQUANT	1	Control Mode
IESTAB	IQUANT	0	I/E Stability
CASPEED	IQUANT	1	Control Amp Speed
CONVENTION	IQUANT	1	Current Convention
ICHRANGE	IQUANT	2	Ich Range
ICHRANGEMODE	TOGGLE	F	Ich Auto Range
ICHOFFSETENABLE	TOGGLE	T	Ich Offset Enable
ICHOFFSET	QUANT	0	Ich Offset (V)
ICHFILTER	IQUANT	3	Ich Filter
VCHRANGE	IQUANT	2	Vch Range
VCHRANGEMODE	TOGGLE	F	Vch Auto Range
VCHOFFSETENABLE	TOGGLE	T	Vch Offset Enable
VCHOFFSET	QUANT	0	Vch Offset (V)
VCHFILTER	IQUANT	3	Vch Filter
ACHRANGE	IQUANT	2	Ach Range
ACHOFFSETENABLE	TOGGLE	F	Ach Offset Enable
ACHOFFSET	QUANT	0	Ach Offset (V)
ACHFILTER	IQUANT	3	Ach Filter
IERANGELOWERLIMIT	IQUANT	2	I/E Range Lower Limit
IERANGEMODE	TOGGLE	F	I/E AutoRange
IERANGE	IQUANT	11	I/E Range
POSFEEDENABLE	TOGGLE	F	Positive Feedback IR Comp
POSFEEDRESISTANCE	QUANT	0	Positive Feedback Resistance (ohm)
ACHSELECT	IQUANT	0	Ach Select
CABLEID	IQUANT	13	Cable ID
DCCALDATE	LABEL	7/31/2020	DC Calibration Date
ACCALDATE	LABEL	7/31/2020	AC Calibration Date
THERMOSELECT	IQUANT	1	Thermo Select
FRAMEWORKVERSION	QUANT	6.33	Framework Version
INSTRUMENTVERSION	LABEL	3.50	Instrument Version
COMPLIANCEVOLTAGE	IQUANT	0	Compliance Voltage
ZCURVE	TABLE
	Pt	Time	Freq	Zreal	Zimag	Zsig	Zmod	Zphz	Idc	Vdc	IERange
	#	s	Hz	ohm	ohm	V	ohm	°	A	V	#
	0	8	300046.9	12.75549	-2.382781	1	12.97614	-10.58115	-0.0005981	0.0025253	10
	1	11	238359.4	13.36846	-2.811503	1	13.6609	-11.87672	-0.0003919	0.0025776	10
	2	14	189328.1	14.16466	-3.181137	1	14.51748	-12.65762	0.0004414	-0.0017778	10
	3	17	150421.9	14.95536	-3.394938	1	15.33586	-12.78966	-0.0005795	0.0027296	10
	4	19	119484.4	15.81857	-3.514589	1	16.2043	-12.52657	-0.0004238	0.0010618	10
	5	22	94921.88	16.63853	-3.499049	1	17.00247	-11.87613	0.0002196	0.0002601	10
	6	24	75421.88	17.38374	-3.395068	1	17.71217	-11.05084	-0.0001136	0.0013632	10
	7	27	59859.37	18.16146	-3.229687	1	18.44639	-10.08361	-0.0002	0.0010346	10
	8	29	47578.12	18.828	-3.011879	1	19.06738	-9.088497	-5.053092E-005	0.00032	10
	9	32	37828.12	19.41242	-2.783945	1	19.61103	-8.161171	-0.0001801	0.0014664	10
	10	34	30046.88	19.95403	-2.554449	1	20.11687	-7.295137	-0.0000979	0.0014098	10
	11	37	23859.38	20.41989	-2.341518	1	20.5537	-6.54145	2.237918E-005	0.000125	10
	12	39	18984.38	20.75666	-2.144295	1	20.86712	-5.898095	-0.0001738	0.0008314	10
	13	42	15046.87	21.17958	-1.982406	1	21.27216	-5.347299	-0.0002214	0.0010685	10
	14	44	11953.13	21.49428	-1.878911	1	21.57625	-4.995781	1.434003E-005	0.0010372	10
	15	46	9515.62	21.78732	-1.873713	1	21.86774	-4.915352	0.0001176	0.0007144	10
	16	49	7546.875	22.02127	-1.8776	1	22.10118	-4.873423	-0.0001998	0.00148	10
	17	51	5928.309	22.45722	-1.995936	1	22.54574	-5.078947	0.0002302	5.671334E-005	10
	18	53	4733.456	22.82222	-2.189111	1	22.92697	-5.479055	1.701247E-005	0.0001361	10
	19	55	3796.875	23.26189	-2.43028	1	23.38849	-5.964325	0.0002388	-2.613745E-006	10
	20	58	2987.132	23.53223	-2.785112	1	23.69647	-6.749732	-0.0001807	0.0008718	10
	21	60	2390.625	24.01579	-3.238463	1	24.23315	-7.679852	0.0002332	8.766593E-005	10
	22	64	1884.191	24.32799	-3.799204	1	24.62285	-8.875961	-0.0002343	0.0012887	10
	23	67	1516.544	24.64703	-4.623257	1	25.07689	-10.62401	-0.0001535	0.0014629	10
	24	70	1193.986	25.00561	-5.588771	1	25.62255	-12.59859	-0.0001907	0.0014546	10
	25	73	946.5144	25.48154	-6.826847	1	26.38019	-14.99809	0.0001585	-0.0001136	10
	26	76	751.7689	25.9805	-8.316595	1	27.27915	-17.75035	3.986551E-005	0.0010553	10
	27	79	597.4265	26.5302	-10.1227	1	28.39579	-20.88455	-0.0001177	0.0005628	10
	28	81	477.4305	27.21214	-12.33501	1	29.8773	-24.38435	2.396425E-007	0.0006164	10
	29	83	376.6741	28.1255	-15.18136	1	31.96119	-28.35894	-6.060282E-007	0.0006781	10
	30	85	298.2954	29.19479	-18.61474	1	34.62433	-32.52178	2.477971E-007	0.0006761	10
	31	88	237.7717	30.35271	-22.67149	1	37.88514	-36.75733	-3.196778E-007	0.0006679	10
	32	90	189.0121	31.74263	-27.60615	1	42.06773	-41.01305	1.473376E-006	6.927284E-005	9
	33	93	150.2404	33.36244	-33.60298	1	47.35201	-45.20581	1.18541E-006	7.434121E-005	9
	34	95	119.1737	35.37904	-40.89574	1	54.07529	-49.13681	1.383049E-006	7.906766E-005	9
	35	97	95.0169	37.75064	-49.45853	1	62.21943	-52.64628	1.280462E-006	8.253058E-005	9
	36	100	75.60484	40.72443	-59.80169	1	72.35137	-55.74548	1.372934E-006	7.609516E-005	9
	37	103	54.50582	46.35089	-78.20031	1	90.90486	-59.34393	1.397504E-006	7.00348E-005	9
	38	105	45.95588	49.84042	-89.90147	1	102.7927	-60.99648	1.551827E-006	7.661916E-005	9
	39	107	37.20238	54.90279	-106.7003	1	119.997	-62.77186	1.801963E-006	1.44301E-005	9
	40	110	30.04808	60.86184	-126.8132	1	140.6618	-64.36211	1.406162E-006	8.137274E-005	9
	41	112	23.91582	68.55127	-152.4101	1	167.1171	-65.78265	1.326143E-006	6.78532E-005	9
	42	115	18.60119	78.33527	-186.5621	1	202.3409	-67.22303	1.294974E-006	7.932174E-005	9
	43	117	15.02404	88.14289	-221.6769	1	238.5578	-68.31631	1.453294E-006	8.309766E-005	9
	44	119	12.01923	99.9113	-265.743	1	283.9042	-69.39526	1.12496E-006	8.187352E-005	9
	45	122	9.450605	114.6619	-323.5803	1	343.2951	-70.48803	1.305419E-006	0.000097	9
	46	124	7.512019	131.1683	-391.3787	1	412.774	-71.47172	1.491485E-006	8.440589E-005	9
	47	127	5.978954	149.4704	-471.668	1	494.7849	-72.41672	6.370585E-007	0.000654	8
	48	130	4.734848	172.4356	-575.2183	1	600.5082	-73.31263	7.967874E-007	0.0006721	8
	49	133	3.75601	200.1688	-701.5941	1	729.5902	-74.07625	6.052082E-007	0.000643	8
	50	137	3.004808	232.4742	-851.5171	1	882.6809	-74.72971	7.358047E-007	0.0006302	8
	51	140	2.372217	275.5124	-1046.954	1	1082.599	-75.25653	7.121291E-007	0.0006199	8
	52	144	1.878005	332.1495	-1288.412	1	1330.537	-75.54404	6.488558E-007	0.0006554	8
	53	149	1.512097	396.878	-1562.648	1	1612.26	-75.74945	6.788115E-007	0.0005471	8
	54	155	1.201923	489.9079	-1918.556	1	1980.118	-75.67549	6.882067E-007	0.0005973	8
	55	161	0.956633	610.6469	-2349.613	1	2427.668	-75.43156	6.208952E-007	9.041469E-006	8
