EXPLAIN
TAG	EISPOT
TITLE	LABEL	Potentiostatic EIS	Test Identifier
DATE	LABEL	8/4/2020	Date
TIME	LABEL	0:10:00	Time
NOTES	NOTES	1	Notes...
	
PSTAT	PSTAT	REF3000-16137	Potentiostat
VDC	POTEN	0.00000E+000	T	DC Voltage (V)
FREQINIT	QUANT	3.00000E+005	Initial Freq. (Hz)
FREQFINAL	QUANT	1.00000E+000	Final Freq. (Hz)
PTSPERDEC	QUANT	1.00000E+001	Points/decade
VAC	QUANT	5.00000E+001	AC Voltage (mV rms)
AREA	QUANT	1.00000E+000	Sample Area (cm^2)
SPEED	SELECTOR	2	Optimize for:
ZGUESS	QUANT	1.00000E+003	Estimated Z (ohms)
EOC	QUANT	0	Open Circuit (V)
SEQUENCER	TOGGLE	TRUE	Run as Sequence
PSTATMODEL	IQUANT	5	Pstat Model
PSTATSECTION	LABEL	REF3000-16137	Pstat Section
PSTATSERIALNO	LABEL	16137	Pstat Serial Number
CTRLMODE	IQUANT	1	Control Mode
IESTAB	IQUANT	0	I/E Stability
CASPEED	IQUANT	1	Control Amp Speed
CONVENTION	IQUANT	1	Current Convention
ICHRANGE	IQUANT	2	Ich Range
ICHRANGEMODE	TOGGLE	F	Ich Auto Range
ICHOFFSETENABLE	TOGGLE	T	Ich Offset Enable
ICHOFFSET	QUANT	0	Ich Offset (V)
ICHFILTER	IQUANT	3	Ich Filter
VCHRANGE	IQUANT	2	Vch Range
VCHRANGEMODE	TOGGLE	F	Vch Auto Range
VCHOFFSETENABLE	TOGGLE	T	Vch Offset Enable
VCHOFFSET	QUANT	0	Vch Offset (V)
VCHFILTER	IQUANT	3	Vch Filter
ACHRANGE	IQUANT	2	Ach Range
ACHOFFSETENABLE	TOGGLE	F	Ach Offset Enable
ACHOFFSET	QUANT	0	Ach Offset (V)
ACHFILTER	IQUANT	3	Ach Filter
IERANGELOWERLIMIT	IQUANT	2	I/E Range Lower Limit
IERANGEMODE	TOGGLE	F	I/E AutoRange
IERANGE	IQUANT	11	I/E Range
POSFEEDENABLE	TOGGLE	F	Positive Feedback IR Comp
POSFEEDRESISTANCE	QUANT	0	Positive Feedback Resistance (ohm)
ACHSELECT	IQUANT	0	Ach Select
CABLEID	IQUANT	13	Cable ID
DCCALDATE	LABEL	7/31/2020	DC Calibration Date
ACCALDATE	LABEL	7/31/2020	AC Calibration Date
THERMOSELECT	IQUANT	1	Thermo Select
FRAMEWORKVERSION	QUANT	6.33	Framework Version
INSTRUMENTVERSION	LABEL	3.50	Instrument Version
COMPLIANCEVOLTAGE	IQUANT	0	Compliance Voltage
ZCURVE	TABLE
	Pt	Time	Freq	Zreal	Zimag	Zsig	Zmod	Zphz	Idc	Vdc	IERange
	#	s	Hz	ohm	ohm	V	ohm	°	A	V	#
	0	9	300046.9	2.393815	0.987977	1	2.589681	22.42695	-0.0006114	0.0005862	12
	1	13	238359.4	2.358753	0.7818266	1	2.484949	18.33817	-0.0002821	-0.0003939	12
	2	18	189328.1	2.364633	0.6056352	1	2.44096	14.36591	-0.0004618	-0.0002416	12
	3	21	150421.9	2.367847	0.4636448	1	2.412813	11.07884	8.997746E-005	0.0003793	12
	4	25	119484.4	2.314821	0.3489587	1	2.340976	8.572771	-0.0004949	0.0001063	12
	5	28	94921.88	2.302447	0.3272047	1	2.325581	8.088241	8.178438E-005	0.0005864	11
	6	31	75421.88	2.306424	0.2235917	1	2.317237	5.537123	0.0001235	0.0005774	11
	7	33	59859.37	2.314219	0.132126	1	2.317987	3.267648	0.000238	0.0007348	11
	8	36	47578.12	2.322981	0.0491145	1	2.3235	1.211216	4.284636E-005	0.0006692	11
	9	38	37828.12	2.333032	-0.0296141	1	2.33322	-0.7272401	0.0001631	0.0007262	11
	10	41	30046.88	2.343817	-0.1087044	1	2.346337	-2.655431	0.0002322	0.0007839	11
	11	43	23859.38	2.355376	-0.1915437	1	2.363152	-4.649172	0.0002305	0.0008043	11
	12	46	18984.38	2.368323	-0.2811335	1	2.384951	-6.769658	0.0002305	0.0008054	11
	13	48	15046.87	2.384102	-0.3844151	1	2.414895	-9.159595	0.0002146	0.0008004	11
	14	50	11953.13	2.403356	-0.5038214	1	2.455597	-11.83961	0.0001079	0.0007621	11
	15	53	9515.62	2.425611	-0.6426577	1	2.509302	-14.83937	0.000202	0.0007727	11
	16	55	7546.875	2.453084	-0.8118094	1	2.583922	-18.31115	0.0001532	0.0007787	11
	17	57	5928.309	2.488843	-1.027907	1	2.692756	-22.44093	0.0002027	0.0008035	11
	18	60	4733.456	2.529514	-1.274132	1	2.832288	-26.73468	-0.0001224	0.0006538	11
	19	62	3796.875	2.581001	-1.565435	1	3.018634	-31.23774	8.958081E-005	0.0007411	11
	20	64	2987.132	2.649668	-1.956741	1	3.29387	-36.44532	-0.0001732	0.0006087	11
	21	67	2390.625	2.732705	-2.401773	1	3.638158	-41.31222	-6.981482E-005	0.0006698	11
	22	69	1884.191	2.85	-2.98264	1	4.125366	-46.30273	-0.0001322	0.0007832	10
	23	71	1516.544	2.984812	-3.629046	1	4.698838	-50.56344	0.0001554	0.000563	10
	24	73	1193.986	3.168182	-4.499881	1	5.5033	-54.85219	8.761077E-005	0.0006414	10
	25	76	946.5144	3.401373	-5.524848	1	6.487934	-58.38147	1.791717E-005	0.0006238	10
	26	78	751.7689	3.695609	-6.775099	1	7.71748	-61.38888	0.0001601	0.0005765	10
	27	81	597.4265	4.061096	-8.274025	1	9.216941	-63.85705	8.299541E-005	0.0006372	10
	28	83	477.4305	4.520163	-10.03855	1	11.00929	-65.7589	2.029197E-006	0.0006772	10
	29	85	376.6741	5.127736	-12.2969	1	13.32319	-67.36415	7.775561E-007	0.0006796	10
	30	88	298.2954	5.878512	-14.98723	1	16.09888	-68.58317	1.333032E-006	0.0006897	10
	31	90	237.7717	6.785249	-18.1361	1	19.36383	-69.4877	2.287856E-006	0.0006795	10
	32	92	189.0121	7.911789	-21.94914	1	23.33155	-70.17779	1.452616E-006	0.0006838	10
	33	95	150.2404	9.279393	-26.52099	1	28.09751	-70.71564	1.322749E-006	0.0006818	10
	34	97	119.1737	10.9518	-32.07195	1	33.89029	-71.14619	1.518802E-006	0.0006819	10
	35	99	95.0169	12.91185	-38.58829	1	40.69118	-71.49948	1.655606E-006	0.0006789	10
	36	102	75.60484	15.2315	-46.39513	1	48.83141	-71.82502	2.364728E-006	8.020429E-005	9
	37	105	54.50582	19.35938	-60.52202	1	63.5429	-72.26191	2.260716E-006	7.019086E-005	9
	38	107	45.95588	21.95791	-69.55078	1	72.93463	-72.47855	2.611976E-006	7.414985E-005	9
	39	109	37.20238	25.64959	-82.6618	1	86.54984	-72.76112	2.464018E-006	8.119682E-005	9
	40	112	30.04808	30.01749	-98.4789	1	102.9521	-73.04818	2.349511E-006	8.304558E-005	9
	41	114	23.91582	35.45261	-118.8581	1	124.0328	-73.39137	2.318563E-006	7.658749E-005	9
	42	117	18.60119	42.59127	-146.3766	1	152.4471	-73.77656	2.615178E-006	7.998569E-005	9
	43	119	15.02404	49.8895	-174.9999	1	181.9723	-74.08804	2.797326E-006	8.684775E-005	9
	44	121	12.01923	59.09575	-211.2776	1	219.3867	-74.37334	2.787691E-006	8.373544E-005	9
	45	124	9.450605	71.40376	-259.3135	1	268.9647	-74.60474	2.69818E-006	7.77395E-005	9
	46	126	7.512019	86.12878	-315.7924	1	327.3271	-74.74428	2.815095E-006	7.755109E-005	9
	47	129	5.978954	104.99	-383.9601	1	398.0556	-74.70688	2.752982E-006	7.803541E-005	9
	48	132	4.734848	129.9281	-467.5574	1	485.2744	-74.47008	2.289791E-006	0.0006801	8
	49	135	3.75601	163.3502	-570.39	1	593.3195	-74.01917	2.131487E-006	0.0006423	8
	50	138	3.004808	206.4801	-689.2577	1	719.5208	-73.32343	2.125147E-006	0.0006673	8
	51	142	2.372217	270.4969	-839.2574	1	881.7718	-72.13561	2.101724E-006	0.0007031	8
	52	146	1.878005	355.5978	-1017.185	1	1077.55	-70.73087	1.949394E-006	0.0006409	8
	53	151	1.512097	458.5139	-1205.013	1	1289.299	-69.16792	2.055168E-006	0.0005966	8
	54	156	1.201923	608.4225	-1435.677	1	1559.277	-67.03335	1.966338E-006	0.0006294	8
	55	163	0.956633	794.4172	-1701.835	1	1878.122	-64.97681	1.804468E-006	-4.320494E-006	8
