EXPLAIN
TAG	EISPOT
TITLE	LABEL	Potentiostatic EIS	Test Identifier
DATE	LABEL	8/4/2020	Date
TIME	LABEL	0:32:25	Time
NOTES	NOTES	1	Notes...
	
PSTAT	PSTAT	REF3000-16137	Potentiostat
VDC	POTEN	0.00000E+000	T	DC Voltage (V)
FREQINIT	QUANT	3.00000E+005	Initial Freq. (Hz)
FREQFINAL	QUANT	1.00000E+000	Final Freq. (Hz)
PTSPERDEC	QUANT	1.00000E+001	Points/decade
VAC	QUANT	5.00000E+001	AC Voltage (mV rms)
AREA	QUANT	1.00000E+000	Sample Area (cm^2)
SPEED	SELECTOR	2	Optimize for:
ZGUESS	QUANT	1.00000E+003	Estimated Z (ohms)
EOC	QUANT	0	Open Circuit (V)
SEQUENCER	TOGGLE	TRUE	Run as Sequence
PSTATMODEL	IQUANT	5	Pstat Model
PSTATSECTION	LABEL	REF3000-16137	Pstat Section
PSTATSERIALNO	LABEL	16137	Pstat Serial Number
CTRLMODE	IQUANT	1	Control Mode
IESTAB	IQUANT	0	I/E Stability
CASPEED	IQUANT	1	Control Amp Speed
CONVENTION	IQUANT	1	Current Convention
ICHRANGE	IQUANT	2	Ich Range
ICHRANGEMODE	TOGGLE	F	Ich Auto Range
ICHOFFSETENABLE	TOGGLE	T	Ich Offset Enable
ICHOFFSET	QUANT	0	Ich Offset (V)
ICHFILTER	IQUANT	3	Ich Filter
VCHRANGE	IQUANT	2	Vch Range
VCHRANGEMODE	TOGGLE	F	Vch Auto Range
VCHOFFSETENABLE	TOGGLE	T	Vch Offset Enable
VCHOFFSET	QUANT	0	Vch Offset (V)
VCHFILTER	IQUANT	3	Vch Filter
ACHRANGE	IQUANT	2	Ach Range
ACHOFFSETENABLE	TOGGLE	F	Ach Offset Enable
ACHOFFSET	QUANT	0	Ach Offset (V)
ACHFILTER	IQUANT	3	Ach Filter
IERANGELOWERLIMIT	IQUANT	2	I/E Range Lower Limit
IERANGEMODE	TOGGLE	F	I/E AutoRange
IERANGE	IQUANT	11	I/E Range
POSFEEDENABLE	TOGGLE	F	Positive Feedback IR Comp
POSFEEDRESISTANCE	QUANT	0	Positive Feedback Resistance (ohm)
ACHSELECT	IQUANT	0	Ach Select
CABLEID	IQUANT	13	Cable ID
DCCALDATE	LABEL	7/31/2020	DC Calibration Date
ACCALDATE	LABEL	7/31/2020	AC Calibration Date
THERMOSELECT	IQUANT	1	Thermo Select
FRAMEWORKVERSION	QUANT	6.33	Framework Version
INSTRUMENTVERSION	LABEL	3.50	Instrument Version
COMPLIANCEVOLTAGE	IQUANT	0	Compliance Voltage
ZCURVE	TABLE
	Pt	Time	Freq	Zreal	Zimag	Zsig	Zmod	Zphz	Idc	Vdc	IERange
	#	s	Hz	ohm	ohm	V	ohm	°	A	V	#
	0	7	300046.9	35.27076	0.6500328	1	35.27675	1.05583	-5.450763E-005	-0.0001273	10
	1	11	238359.4	35.71917	0.5778527	1	35.72385	0.9268308	7.527269E-005	0.0003309	10
	2	15	189328.1	36.08295	0.4886749	1	36.08626	0.7759149	-8.131978E-005	0.0005654	10
	3	17	150421.9	36.49304	0.3776271	1	36.495	0.592871	-5.186922E-005	0.0005708	10
	4	20	119484.4	37.11737	0.8668745	1	37.12749	1.337897	-7.845429E-005	0.0019047	9
	5	22	94921.88	37.45755	0.8178712	1	37.46647	1.250833	2.05527E-005	-0.0010504	9
	6	25	75421.88	37.81411	0.6144495	1	37.8191	0.9309294	-2.407399E-005	0.0002588	9
	7	27	59859.37	38.19804	0.4257928	1	38.20042	0.6386485	3.777583E-005	-0.0011767	9
	8	30	47578.12	38.61317	0.236608	1	38.6139	0.3510842	-1.654315E-005	0.0010331	9
	9	32	37828.12	39.02466	0.0786996	1	39.02474	0.1155462	-3.700473E-005	0.0011284	9
	10	35	30046.88	39.48607	-0.0938359	1	39.48618	-0.1361592	-8.197459E-006	0.0008194	9
	11	37	23859.38	39.9217	-0.249218	1	39.92247	-0.357674	3.65152E-005	-0.0011242	9
	12	40	18984.38	40.3602	-0.4298095	1	40.36248	-0.6101393	3.478705E-005	-0.0011366	9
	13	42	15046.87	40.82621	-0.6028521	1	40.83066	-0.8459853	-1.367816E-006	-0.0004496	9
	14	44	11953.13	41.27508	-0.8132212	1	41.28309	-1.128723	-3.544661E-005	0.0009582	9
	15	47	9515.62	41.77024	-1.040694	1	41.7832	-1.427214	-8.108591E-006	0.0008928	9
	16	49	7546.875	42.2711	-1.322017	1	42.29176	-1.791326	3.842255E-005	-0.0008837	9
	17	51	5928.309	42.77921	-1.684836	1	42.81238	-2.255398	-3.066676E-005	0.0006254	9
	18	54	4733.456	43.31547	-2.101213	1	43.36641	-2.777214	3.135687E-005	-0.0004564	9
	19	56	3796.875	43.85829	-2.58271	1	43.93427	-3.37012	3.88215E-005	-0.0010667	9
	20	58	2987.132	44.42627	-3.234553	1	44.54387	-4.164199	-8.41888E-006	0.0008548	9
	21	60	2390.625	45.05172	-3.960434	1	45.22546	-5.023879	3.060943E-005	-0.0004881	9
	22	63	1884.191	45.6523	-4.926739	1	45.91737	-6.159451	-7.639406E-006	0.000823	9
	23	65	1516.544	46.38106	-5.98596	1	46.76574	-7.353967	3.838771E-005	-0.001048	9
	24	67	1193.986	47.14112	-7.409877	1	47.71993	-8.932947	-1.40111E-005	-5.834053E-005	9
	25	70	946.5144	47.99448	-9.153084	1	48.85948	-10.79729	3.919265E-005	-0.0010918	9
	26	72	751.7689	48.87709	-11.28181	1	50.16223	-12.99737	-2.597019E-005	0.0011665	9
	27	74	597.4265	49.80433	-13.79821	1	51.68038	-15.4853	-1.870303E-005	0.0010743	9
	28	77	477.4305	50.87436	-16.8999	1	53.60791	-18.37592	1.347616E-006	6.267254E-005	9
	29	79	376.6741	52.10088	-20.91321	1	56.14146	-21.87045	1.26646E-006	5.884446E-005	9
	30	81	298.2954	53.48685	-25.7979	1	59.38328	-25.74905	1.206309E-006	6.519015E-005	9
	31	84	237.7717	55.06794	-31.64793	1	63.51432	-29.88628	1.260489E-006	6.323906E-005	9
	32	86	189.0121	56.91736	-38.92707	1	68.9558	-34.36911	9.775172E-007	0.0001056	9
	33	88	150.2404	59.08695	-47.88349	1	76.05325	-39.02097	1.222648E-006	6.485559E-005	9
	34	91	119.1737	61.70358	-59.0177	1	85.38396	-43.72546	1.238727E-006	6.338462E-005	9
	35	93	95.0169	64.82315	-72.39111	1	97.1726	-48.15691	1.283701E-006	6.499158E-005	9
	36	96	75.60484	68.69473	-88.93382	1	112.3752	-52.31659	1.205685E-006	7.586084E-005	9
	37	98	54.50582	75.59315	-119.1972	1	141.1464	-57.61773	1.2565E-006	5.865782E-005	9
	38	101	45.95588	80.49103	-138.8903	1	160.5283	-59.90644	1.225995E-006	7.289991E-005	9
	39	103	37.20238	87.60623	-167.5835	1	189.1007	-62.40116	1.335302E-006	7.301311E-005	9
	40	105	30.04808	96.5442	-202.4574	1	224.2984	-64.5053	1.20201E-006	7.20366E-005	9
	41	108	23.91582	108.4738	-247.3269	1	270.0688	-66.31847	1.216152E-006	6.179111E-005	9
	42	110	18.60119	125.1314	-307.7617	1	332.2275	-67.87406	1.509641E-006	7.928262E-005	9
	43	113	15.02404	143.1578	-369.7977	1	396.5406	-68.83735	1.203637E-006	6.814987E-005	9
	44	115	12.01923	166.0348	-445.185	1	475.1392	-69.54665	1.221087E-007	0.000648	8
	45	117	9.450605	197.2541	-545.1703	1	579.7585	-70.10881	1.182027E-007	0.0006634	8
	46	120	7.512019	233.9799	-659.4235	1	699.7042	-70.46405	1.170894E-007	0.0006351	8
	47	122	5.978954	278.6846	-796.1732	1	843.5383	-70.70841	1.918553E-007	0.0006502	8
	48	126	4.734848	333.6953	-963.53	1	1019.678	-70.89772	1.501199E-007	0.0006242	8
	49	129	3.75601	400.2289	-1163.519	1	1230.43	-71.01773	2.740224E-007	0.0006609	8
	50	132	3.004808	475.2628	-1394.048	1	1472.836	-71.17458	2.606933E-007	0.0006265	8
	51	136	2.372217	571.7181	-1688.086	1	1782.273	-71.28988	2.217759E-007	0.0005751	8
	52	140	1.878005	679.5385	-2044.204	1	2154.192	-71.61206	2.651977E-007	0.0006529	8
	53	145	1.512097	795.9717	-2437.199	1	2563.886	-71.91334	2.145441E-007	0.0006523	8
	54	150	1.201923	945.7059	-2955.601	1	3103.214	-72.25685	2.453922E-007	0.0007082	8
	55	157	0.956633	1116.643	-3575.344	1	3745.661	-72.65549	1.988084E-007	7.274673E-006	8
