EXPLAIN
TAG	EISPOT
TITLE	LABEL	Potentiostatic EIS	Test Identifier
DATE	LABEL	8/4/2020	Date
TIME	LABEL	0:18:31	Time
NOTES	NOTES	1	Notes...
	
PSTAT	PSTAT	REF3000-16137	Potentiostat
VDC	POTEN	0.00000E+000	T	DC Voltage (V)
FREQINIT	QUANT	3.00000E+005	Initial Freq. (Hz)
FREQFINAL	QUANT	1.00000E+000	Final Freq. (Hz)
PTSPERDEC	QUANT	1.00000E+001	Points/decade
VAC	QUANT	5.00000E+001	AC Voltage (mV rms)
AREA	QUANT	1.00000E+000	Sample Area (cm^2)
SPEED	SELECTOR	2	Optimize for:
ZGUESS	QUANT	1.00000E+003	Estimated Z (ohms)
EOC	QUANT	0	Open Circuit (V)
SEQUENCER	TOGGLE	TRUE	Run as Sequence
PSTATMODEL	IQUANT	5	Pstat Model
PSTATSECTION	LABEL	REF3000-16137	Pstat Section
PSTATSERIALNO	LABEL	16137	Pstat Serial Number
CTRLMODE	IQUANT	1	Control Mode
IESTAB	IQUANT	0	I/E Stability
CASPEED	IQUANT	1	Control Amp Speed
CONVENTION	IQUANT	1	Current Convention
ICHRANGE	IQUANT	2	Ich Range
ICHRANGEMODE	TOGGLE	F	Ich Auto Range
ICHOFFSETENABLE	TOGGLE	T	Ich Offset Enable
ICHOFFSET	QUANT	0	Ich Offset (V)
ICHFILTER	IQUANT	3	Ich Filter
VCHRANGE	IQUANT	2	Vch Range
VCHRANGEMODE	TOGGLE	F	Vch Auto Range
VCHOFFSETENABLE	TOGGLE	T	Vch Offset Enable
VCHOFFSET	QUANT	0	Vch Offset (V)
VCHFILTER	IQUANT	3	Vch Filter
ACHRANGE	IQUANT	2	Ach Range
ACHOFFSETENABLE	TOGGLE	F	Ach Offset Enable
ACHOFFSET	QUANT	0	Ach Offset (V)
ACHFILTER	IQUANT	3	Ach Filter
IERANGELOWERLIMIT	IQUANT	2	I/E Range Lower Limit
IERANGEMODE	TOGGLE	F	I/E AutoRange
IERANGE	IQUANT	11	I/E Range
POSFEEDENABLE	TOGGLE	F	Positive Feedback IR Comp
POSFEEDRESISTANCE	QUANT	0	Positive Feedback Resistance (ohm)
ACHSELECT	IQUANT	0	Ach Select
CABLEID	IQUANT	13	Cable ID
DCCALDATE	LABEL	7/31/2020	DC Calibration Date
ACCALDATE	LABEL	7/31/2020	AC Calibration Date
THERMOSELECT	IQUANT	1	Thermo Select
FRAMEWORKVERSION	QUANT	6.33	Framework Version
INSTRUMENTVERSION	LABEL	3.50	Instrument Version
COMPLIANCEVOLTAGE	IQUANT	0	Compliance Voltage
ZCURVE	TABLE
	Pt	Time	Freq	Zreal	Zimag	Zsig	Zmod	Zphz	Idc	Vdc	IERange
	#	s	Hz	ohm	ohm	V	ohm	°	A	V	#
	0	8	300046.9	10.61585	-2.149608	1	10.8313	-11.44707	-0.0004696	0.000773	10
	1	11	238359.4	11.19805	-2.497938	1	11.47327	-12.57504	-0.0002814	0.0002081	10
	2	14	189328.1	11.85441	-2.754832	1	12.1703	-13.08268	-0.000624	0.0026927	10
	3	17	150421.9	12.57268	-2.944602	1	12.9129	-13.18146	0.0001989	0.000917	10
	4	19	119484.4	13.28611	-2.968493	1	13.61369	-12.59464	0.0005669	-0.0015022	10
	5	22	94921.88	13.91975	-2.858771	1	14.21028	-11.60575	0.0002076	0.0004082	10
	6	25	75421.88	14.48985	-2.720207	1	14.74297	-10.63249	0.0002178	0.0001578	10
	7	27	59859.37	15.01515	-2.545786	1	15.22943	-9.62286	0.0001029	0.0007206	10
	8	30	47578.12	15.43845	-2.32324	1	15.61227	-8.557886	-4.568291E-005	0.0011628	10
	9	32	37828.12	15.79758	-2.100676	1	15.93664	-7.574443	0.0001537	0.0004571	10
	10	35	30046.88	16.02502	-1.873403	1	16.13416	-6.667887	-0.000177	0.000887	10
	11	37	23859.38	16.22888	-1.695081	1	16.31716	-5.962834	-0.0002013	0.0015314	10
	12	40	18984.38	16.41851	-1.565344	1	16.49297	-5.44613	0.000102	-5.879267E-005	10
	13	42	15046.87	16.59542	-1.482109	1	16.66147	-5.103452	-2.912916E-005	0.0002298	10
	14	44	11953.13	16.72088	-1.458072	1	16.78433	-4.983622	3.42446E-005	0.0010743	10
	15	46	9515.62	16.82669	-1.448924	1	16.88896	-4.921523	0.0002459	4.693192E-005	10
	16	49	7546.875	16.92711	-1.513276	1	16.99462	-5.108638	-0.0001861	0.0009798	10
	17	51	5928.309	17.01981	-1.641658	1	17.0988	-5.509459	-0.0002213	0.0013419	10
	18	53	4733.456	17.13535	-1.842819	1	17.23416	-6.138276	-0.0002112	0.0010952	10
	19	56	3796.875	17.22116	-2.085483	1	17.34697	-6.9049	-0.0001764	0.0008706	10
	20	58	2987.132	17.32905	-2.468992	1	17.50406	-8.108758	-3.331243E-005	0.0012183	10
	21	60	2390.625	17.42008	-2.903281	1	17.66036	-9.46211	-0.0002105	0.0015114	10
	22	63	1884.191	17.63629	-3.530641	1	17.98622	-11.3205	-0.0001219	0.000616	10
	23	65	1516.544	17.78316	-4.224563	1	18.27807	-13.36346	-0.0001048	0.0013937	10
	24	67	1193.986	18.01906	-5.170899	1	18.74633	-16.0118	-0.0001794	0.000872	10
	25	70	946.5144	18.32818	-6.318093	1	19.3866	-19.02011	-3.883226E-005	0.0012927	10
	26	72	751.7689	18.67114	-7.750293	1	20.2158	-22.54308	3.538698E-005	0.0010494	10
	27	74	597.4265	19.0903	-9.458061	1	21.3048	-26.35557	-0.0002114	0.0014857	10
	28	77	477.4305	19.62759	-11.50921	1	22.75312	-30.38648	-2.684876E-007	0.0006778	10
	29	79	376.6741	20.29275	-14.14344	1	24.73525	-34.87535	-9.446388E-007	0.0006754	10
	30	81	298.2954	21.1762	-17.30651	1	27.34861	-39.25784	-1.812352E-007	0.0006777	10
	31	84	237.7717	22.24292	-21.02338	1	30.60604	-43.38544	2.166117E-007	0.0006785	10
	32	86	189.0121	23.55666	-25.5528	1	34.75431	-47.32761	-4.592734E-008	0.0006833	10
	33	88	150.2404	25.20388	-30.9991	1	39.95222	-50.8871	-5.212192E-007	0.0006798	10
	34	91	119.1737	27.21172	-37.55659	1	46.3786	-54.0747	1.674437E-006	8.303254E-005	9
	35	93	95.0169	29.65821	-45.27979	1	54.12826	-56.77525	1.649413E-006	7.62861E-005	9
	36	96	75.60484	32.6116	-54.59784	1	63.59591	-59.14989	1.466207E-006	8.294653E-005	9
	37	98	54.50582	37.82114	-71.19874	1	80.62071	-62.02253	1.497496E-006	7.745644E-005	9
	38	101	45.95588	41.14665	-81.75924	1	91.52934	-63.28544	1.569638E-006	7.952482E-005	9
	39	103	37.20238	45.89545	-96.9583	1	107.2721	-64.66934	1.677951E-006	7.635311E-005	9
	40	106	30.04808	51.47529	-115.186	1	126.1646	-65.92068	1.578674E-006	7.982924E-005	9
	41	108	23.91582	58.39751	-138.5245	1	150.3306	-67.14126	1.275055E-006	8.158742E-005	9
	42	110	18.60119	67.15929	-169.798	1	182.5972	-68.41998	1.465272E-006	8.682166E-005	9
	43	113	15.02404	75.93356	-202.1165	1	215.9096	-69.40919	1.63544E-006	6.844958E-005	9
	44	115	12.01923	86.5348	-242.9526	1	257.9035	-70.39513	1.742073E-006	8.201719E-005	9
	45	118	9.450605	99.9275	-296.7674	1	313.1395	-71.39059	1.736283E-006	6.69001E-005	9
	46	120	7.512019	115.0985	-360.0768	1	378.0251	-72.27353	1.596339E-006	8.985552E-005	9
	47	123	5.978954	132.3744	-435.5257	1	455.1984	-73.09379	9.016633E-007	0.0006618	8
	48	126	4.734848	154.4918	-532.9438	1	554.8845	-73.83398	1.033895E-006	0.00067	8
	49	129	3.75601	182.1274	-651.5709	1	676.5464	-74.38323	8.444773E-007	0.0006434	8
	50	132	3.004808	215.8646	-791.9294	1	820.8226	-74.75271	9.345388E-007	0.0006504	8
	51	136	2.372217	263.9055	-974.156	1	1009.27	-74.842	9.818957E-007	0.0006433	8
	52	140	1.878005	325.4444	-1199.665	1	1243.025	-74.82213	8.811792E-007	0.0005901	8
	53	145	1.512097	399.0086	-1450.966	1	1504.829	-74.624	9.192851E-007	0.0005838	8
	54	150	1.201923	510.0388	-1776.277	1	1848.053	-73.97915	8.534365E-007	0.0006427	8
	55	157	0.956633	656.4634	-2162.337	1	2259.789	-73.11225	8.081356E-007	1.537418E-005	8
