EXPLAIN
TAG	EISPOT
TITLE	LABEL	Potentiostatic EIS	Test Identifier
DATE	LABEL	8/4/2020	Date
TIME	LABEL	0:35:11	Time
NOTES	NOTES	1	Notes...
	
PSTAT	PSTAT	REF3000-16137	Potentiostat
VDC	POTEN	0.00000E+000	T	DC Voltage (V)
FREQINIT	QUANT	3.00000E+005	Initial Freq. (Hz)
FREQFINAL	QUANT	1.00000E+000	Final Freq. (Hz)
PTSPERDEC	QUANT	1.00000E+001	Points/decade
VAC	QUANT	5.00000E+001	AC Voltage (mV rms)
AREA	QUANT	1.00000E+000	Sample Area (cm^2)
SPEED	SELECTOR	2	Optimize for:
ZGUESS	QUANT	1.00000E+003	Estimated Z (ohms)
EOC	QUANT	0	Open Circuit (V)
SEQUENCER	TOGGLE	TRUE	Run as Sequence
PSTATMODEL	IQUANT	5	Pstat Model
PSTATSECTION	LABEL	REF3000-16137	Pstat Section
PSTATSERIALNO	LABEL	16137	Pstat Serial Number
CTRLMODE	IQUANT	1	Control Mode
IESTAB	IQUANT	0	I/E Stability
CASPEED	IQUANT	1	Control Amp Speed
CONVENTION	IQUANT	1	Current Convention
ICHRANGE	IQUANT	2	Ich Range
ICHRANGEMODE	TOGGLE	F	Ich Auto Range
ICHOFFSETENABLE	TOGGLE	T	Ich Offset Enable
ICHOFFSET	QUANT	0	Ich Offset (V)
ICHFILTER	IQUANT	3	Ich Filter
VCHRANGE	IQUANT	2	Vch Range
VCHRANGEMODE	TOGGLE	F	Vch Auto Range
VCHOFFSETENABLE	TOGGLE	T	Vch Offset Enable
VCHOFFSET	QUANT	0	Vch Offset (V)
VCHFILTER	IQUANT	3	Vch Filter
ACHRANGE	IQUANT	2	Ach Range
ACHOFFSETENABLE	TOGGLE	F	Ach Offset Enable
ACHOFFSET	QUANT	0	Ach Offset (V)
ACHFILTER	IQUANT	3	Ach Filter
IERANGELOWERLIMIT	IQUANT	2	I/E Range Lower Limit
IERANGEMODE	TOGGLE	F	I/E AutoRange
IERANGE	IQUANT	11	I/E Range
POSFEEDENABLE	TOGGLE	F	Positive Feedback IR Comp
POSFEEDRESISTANCE	QUANT	0	Positive Feedback Resistance (ohm)
ACHSELECT	IQUANT	0	Ach Select
CABLEID	IQUANT	13	Cable ID
DCCALDATE	LABEL	7/31/2020	DC Calibration Date
ACCALDATE	LABEL	7/31/2020	AC Calibration Date
THERMOSELECT	IQUANT	1	Thermo Select
FRAMEWORKVERSION	QUANT	6.33	Framework Version
INSTRUMENTVERSION	LABEL	3.50	Instrument Version
COMPLIANCEVOLTAGE	IQUANT	0	Compliance Voltage
ZCURVE	TABLE
	Pt	Time	Freq	Zreal	Zimag	Zsig	Zmod	Zphz	Idc	Vdc	IERange
	#	s	Hz	ohm	ohm	V	ohm	°	A	V	#
	0	7	300046.9	79.98544	0.632632	1	79.98794	0.4531623	-7.892793E-005	0.0029724	9
	1	10	238359.4	81.23964	0.4898771	1	81.24112	0.3454908	-3.033803E-005	-0.0005448	9
	2	13	189328.1	82.4979	0.4308298	1	82.49902	0.2992137	4.690809E-005	-0.0003022	9
	3	16	150421.9	83.61755	0.4764498	1	83.6189	0.3264658	8.242763E-005	-0.0029948	9
	4	18	119484.4	84.71493	0.5021803	1	84.71642	0.3396388	6.646018E-005	-0.0030341	9
	5	21	94921.88	85.76158	0.6501208	1	85.76405	0.4343258	3.25968E-005	-0.0009534	9
	6	23	75421.88	86.8315	0.4838791	1	86.83285	0.3192844	1.405577E-005	-0.0008125	9
	7	26	59859.37	87.97719	0.320708	1	87.97778	0.2088625	-5.658252E-006	0.0007143	9
	8	28	47578.12	89.1595	0.214929	1	89.15976	0.1381176	1.490226E-005	-0.0008384	9
	9	31	37828.12	90.40802	0.0302967	1	90.40803	0.0192004	1.780336E-005	-0.000841	9
	10	33	30046.88	91.65286	-0.0614916	1	91.65289	-0.0384408	-3.269305E-006	-0.0003724	9
	11	36	23859.38	92.87743	-0.2560806	1	92.87778	-0.1579749	-2.029288E-005	0.0010083	9
	12	38	18984.38	94.09014	-0.4440132	1	94.09119	-0.2703779	2.868993E-005	-0.0009579	9
	13	41	15046.87	95.3353	-0.5951865	1	95.3371	-0.357698	2.346254E-005	-0.0009526	9
	14	43	11953.13	96.6201	-0.8988609	1	96.6242	-0.5330099	-2.805086E-006	-0.0004024	9
	15	45	9515.62	97.9747	-1.167852	1	97.9816	-0.6829301	-2.458246E-005	0.0009792	9
	16	48	7546.875	99.2602	-1.522541	1	99.2719	-0.8787841	-1.193551E-005	-8.33209E-005	9
	17	50	5928.309	100.7666	-1.936256	1	100.7852	-1.100817	-2.83723E-005	0.0009549	9
	18	52	4733.456	102.0953	-2.341164	1	102.1222	-1.313628	-2.600883E-005	0.0005436	9
	19	54	3796.875	103.7087	-2.850599	1	103.7478	-1.57447	-6.601963E-006	0.0008324	9
	20	57	2987.132	105.1409	-3.710525	1	105.2063	-2.021186	-2.102696E-005	0.0009605	9
	21	59	2390.625	106.9215	-4.538482	1	107.0177	-2.430568	9.576801E-006	-0.0006058	9
	22	61	1884.191	108.5447	-5.664637	1	108.6924	-2.987392	1.899182E-005	-1.342354E-005	9
	23	64	1516.544	110.1048	-6.725739	1	110.31	-3.495564	9.993406E-006	0.0003385	9
	24	66	1193.986	111.8824	-8.440961	1	112.2004	-4.314502	-2.410531E-005	0.0009164	9
	25	69	946.5144	113.7977	-10.47451	1	114.2787	-5.258972	-2.065871E-005	0.0010015	9
	26	71	751.7689	115.783	-12.74078	1	116.4819	-6.279575	-8.113551E-006	0.0008483	9
	27	73	597.4265	117.9672	-15.69446	1	119.0066	-7.578178	2.49393E-005	-0.0009162	9
	28	75	477.4305	120.1382	-19.17351	1	121.6586	-9.067677	1.148676E-006	6.795025E-005	9
	29	78	376.6741	122.5869	-23.70941	1	124.8586	-10.94637	1.090521E-006	6.792425E-005	9
	30	80	298.2954	125.2213	-29.22206	1	128.5858	-13.13565	1.132703E-006	6.731668E-005	9
	31	82	237.7717	128.1541	-35.8127	1	133.064	-15.61304	1.068147E-006	6.312795E-005	9
	32	85	189.0121	131.3873	-43.99036	1	138.556	-18.51129	1.018335E-006	7.146039E-005	9
	33	87	150.2404	134.9746	-54.05092	1	145.3948	-21.82376	1.047533E-006	6.615119E-005	9
	34	90	119.1737	139.0165	-66.54251	1	154.1217	-25.57887	1.04597E-006	7.589387E-005	9
	35	92	95.0169	143.5579	-81.57239	1	165.1149	-29.60608	1.184659E-006	6.548259E-005	9
	36	94	75.60484	148.8849	-100.1909	1	179.4573	-33.93828	6.951003E-007	0.0001172	9
	37	97	54.50582	157.172	-134.4118	1	206.808	-40.53672	1.172717E-006	7.177333E-005	9
	38	100	45.95588	163.3696	-156.8245	1	226.4587	-43.82898	1.065148E-006	7.414223E-005	9
	39	102	37.20238	171.6055	-189.6568	1	255.7697	-47.86054	1.172425E-006	7.072822E-005	9
	40	104	30.04808	181.7047	-229.8973	1	293.0348	-51.67809	1.131638E-006	6.750584E-005	9
	41	107	23.91582	194.62	-282.0708	1	342.6965	-55.39555	1.200596E-006	6.494684E-005	9
	42	109	18.60119	212.1302	-353.0092	1	411.843	-58.99751	1.152169E-006	6.115815E-005	9
	43	111	15.02404	230.0874	-425.0354	1	483.317	-61.57167	1.260921E-007	0.0006976	8
	44	114	12.01923	254.6945	-517.54	1	576.8162	-63.79704	-2.10438E-008	0.000643	8
	45	116	9.450605	288.0734	-639.2867	1	701.1945	-65.74287	-4.881494E-008	0.0006549	8
	46	119	7.512019	328.8688	-780.2779	1	846.7516	-67.14572	-8.523739E-008	0.0006566	8
	47	121	5.978954	379.147	-949.9648	1	1022.832	-68.24223	-2.700467E-008	0.0006629	8
	48	124	4.734848	444.7419	-1159.099	1	1241.494	-69.00839	9.044755E-009	0.0006209	8
	49	128	3.75601	525.2371	-1409.884	1	1504.542	-69.56767	9.908641E-008	0.0006593	8
	50	131	3.004808	620.3949	-1698.875	1	1808.609	-69.93883	5.51275E-008	0.0006494	8
	51	135	2.372217	745.6018	-2065.046	1	2195.527	-70.14747	2.65194E-008	0.0006011	8
	52	139	1.878005	893.3708	-2509.819	1	2664.076	-70.4068	5.806101E-008	0.000657	8
	53	144	1.512097	1054.99	-2998.479	1	3178.66	-70.616	2.052207E-008	0.0006772	8
	54	149	1.201923	1270.568	-3633	1	3848.77	-70.72375	3.990124E-008	0.0006586	8
	55	155	0.956633	1523.731	-4396.699	1	4653.248	-70.8856	-2.847209E-008	-2.315164E-005	7
