EXPLAIN
TAG	EISPOT
TITLE	LABEL	Potentiostatic EIS	Test Identifier
DATE	LABEL	8/4/2020	Date
TIME	LABEL	0:29:39	Time
NOTES	NOTES	1	Notes...
	
PSTAT	PSTAT	REF3000-16137	Potentiostat
VDC	POTEN	0.00000E+000	T	DC Voltage (V)
FREQINIT	QUANT	3.00000E+005	Initial Freq. (Hz)
FREQFINAL	QUANT	1.00000E+000	Final Freq. (Hz)
PTSPERDEC	QUANT	1.00000E+001	Points/decade
VAC	QUANT	5.00000E+001	AC Voltage (mV rms)
AREA	QUANT	1.00000E+000	Sample Area (cm^2)
SPEED	SELECTOR	2	Optimize for:
ZGUESS	QUANT	1.00000E+003	Estimated Z (ohms)
EOC	QUANT	0	Open Circuit (V)
SEQUENCER	TOGGLE	TRUE	Run as Sequence
PSTATMODEL	IQUANT	5	Pstat Model
PSTATSECTION	LABEL	REF3000-16137	Pstat Section
PSTATSERIALNO	LABEL	16137	Pstat Serial Number
CTRLMODE	IQUANT	1	Control Mode
IESTAB	IQUANT	0	I/E Stability
CASPEED	IQUANT	1	Control Amp Speed
CONVENTION	IQUANT	1	Current Convention
ICHRANGE	IQUANT	2	Ich Range
ICHRANGEMODE	TOGGLE	F	Ich Auto Range
ICHOFFSETENABLE	TOGGLE	T	Ich Offset Enable
ICHOFFSET	QUANT	0	Ich Offset (V)
ICHFILTER	IQUANT	3	Ich Filter
VCHRANGE	IQUANT	2	Vch Range
VCHRANGEMODE	TOGGLE	F	Vch Auto Range
VCHOFFSETENABLE	TOGGLE	T	Vch Offset Enable
VCHOFFSET	QUANT	0	Vch Offset (V)
VCHFILTER	IQUANT	3	Vch Filter
ACHRANGE	IQUANT	2	Ach Range
ACHOFFSETENABLE	TOGGLE	F	Ach Offset Enable
ACHOFFSET	QUANT	0	Ach Offset (V)
ACHFILTER	IQUANT	3	Ach Filter
IERANGELOWERLIMIT	IQUANT	2	I/E Range Lower Limit
IERANGEMODE	TOGGLE	F	I/E AutoRange
IERANGE	IQUANT	11	I/E Range
POSFEEDENABLE	TOGGLE	F	Positive Feedback IR Comp
POSFEEDRESISTANCE	QUANT	0	Positive Feedback Resistance (ohm)
ACHSELECT	IQUANT	0	Ach Select
CABLEID	IQUANT	13	Cable ID
DCCALDATE	LABEL	7/31/2020	DC Calibration Date
ACCALDATE	LABEL	7/31/2020	AC Calibration Date
THERMOSELECT	IQUANT	1	Thermo Select
FRAMEWORKVERSION	QUANT	6.33	Framework Version
INSTRUMENTVERSION	LABEL	3.50	Instrument Version
COMPLIANCEVOLTAGE	IQUANT	0	Compliance Voltage
ZCURVE	TABLE
	Pt	Time	Freq	Zreal	Zimag	Zsig	Zmod	Zphz	Idc	Vdc	IERange
	#	s	Hz	ohm	ohm	V	ohm	°	A	V	#
	0	8	300046.9	18.36367	1.138117	1	18.3989	3.54646	-0.0001862	0.0007045	10
	1	11	238359.4	18.50821	0.9464832	1	18.53239	2.927474	0.0001069	0.0002813	10
	2	15	189328.1	18.66351	0.7028821	1	18.67674	2.156784	0.000179	-0.0001668	10
	3	17	150421.9	18.8328	0.5292206	1	18.84023	1.609645	-0.0002337	0.0011368	10
	4	20	119484.4	18.97786	0.3962644	1	18.98199	1.196182	-0.0002118	0.0007353	10
	5	22	94921.88	19.13923	0.2775278	1	19.14125	0.8307573	7.616581E-005	0.0006186	10
	6	25	75421.88	19.31338	0.1600007	1	19.31404	0.4746532	5.949529E-005	0.0004819	10
	7	27	59859.37	19.49981	0.0511207	1	19.49987	0.1502062	5.277825E-005	0.0006851	10
	8	30	47578.12	19.67868	-0.0423314	1	19.67872	-0.1232506	-5.226046E-005	0.0006322	10
	9	32	37828.12	19.86732	-0.141262	1	19.86782	-0.4073815	9.072557E-005	0.0004908	10
	10	35	30046.88	20.06068	-0.2402427	1	20.06211	-0.6861302	0.0001015	0.0005616	10
	11	37	23859.38	20.25074	-0.3544929	1	20.25384	-1.002871	-8.814855E-005	0.0008268	10
	12	40	18984.38	20.43601	-0.4744547	1	20.44151	-1.329975	-7.559331E-005	0.0006967	10
	13	42	15046.87	20.61684	-0.6102273	1	20.62587	-1.695373	5.550773E-005	0.0005257	10
	14	44	11953.13	20.83127	-0.7794548	1	20.84585	-2.142868	7.987764E-005	0.000535	10
	15	47	9515.62	21.03718	-0.992847	1	21.0606	-2.702063	7.678182E-005	0.000512	10
	16	49	7546.875	21.26148	-1.242285	1	21.29774	-3.343928	-9.243176E-005	0.0007648	10
	17	51	5928.309	21.48559	-1.557141	1	21.54195	-4.145191	-8.639344E-006	0.000754	10
	18	54	4733.456	21.72406	-1.924385	1	21.80913	-5.062225	3.263542E-005	0.0005533	10
	19	56	3796.875	21.98733	-2.346193	1	22.11215	-6.090789	4.349446E-006	0.0005586	10
	20	58	2987.132	22.26668	-2.916668	1	22.45689	-7.462574	-3.950324E-005	0.0007903	10
	21	61	2390.625	22.56748	-3.573325	1	22.84863	-8.997493	3.244091E-005	0.0005385	10
	22	63	1884.191	22.91526	-4.43024	1	23.33958	-10.94208	9.384687E-005	0.0005539	10
	23	65	1516.544	23.26063	-5.39405	1	23.87787	-13.0559	7.046885E-006	0.0005734	10
	24	68	1193.986	23.69207	-6.691771	1	24.61897	-15.77221	7.339858E-005	0.0005485	10
	25	70	946.5144	24.15903	-8.236947	1	25.52462	-18.82665	-8.115484E-005	0.000758	10
	26	72	751.7689	24.6466	-10.14898	1	26.65439	-22.38088	8.443007E-005	0.000553	10
	27	75	597.4265	25.26736	-12.47514	1	28.17922	-26.27673	-8.351364E-005	0.0007504	10
	28	77	477.4305	25.93816	-15.28302	1	30.10579	-30.50701	-3.219366E-007	0.0006785	10
	29	79	376.6741	26.76814	-18.93262	1	32.78685	-35.27108	-9.883001E-007	0.0006716	10
	30	82	298.2954	27.75396	-23.37762	1	36.28768	-40.10798	-5.522198E-007	0.0006759	10
	31	84	237.7717	28.89538	-28.66212	1	40.69963	-44.7678	1.186167E-006	7.471771E-005	9
	32	86	189.0121	30.34796	-35.26238	1	46.52348	-49.28363	1.110033E-006	7.911681E-005	9
	33	89	150.2404	32.14653	-43.36258	1	53.97882	-53.44888	1.198757E-006	7.632706E-005	9
	34	91	119.1737	34.41444	-53.3873	1	63.51817	-57.19342	1.203964E-006	7.19193E-005	9
	35	94	95.0169	37.21033	-65.36709	1	75.21613	-60.34923	1.211162E-006	6.801055E-005	9
	36	96	75.60484	40.77605	-80.09689	1	89.87879	-63.02008	1.190059E-006	6.977496E-005	9
	37	99	54.50582	47.48354	-106.8235	1	116.9014	-66.03462	1.139225E-006	6.61091E-005	9
	38	101	45.95588	52.12381	-124.054	1	134.5596	-67.2093	1.110614E-006	8.035282E-005	9
	39	103	37.20238	59.03073	-148.9947	1	160.2624	-68.38685	1.299465E-006	7.326717E-005	9
	40	106	30.04808	67.67036	-178.9805	1	191.3461	-69.28901	1.201816E-006	6.718642E-005	9
	41	108	23.91582	79.13965	-217.2776	1	231.2416	-69.98672	1.235526E-006	7.357179E-005	9
	42	111	18.60119	94.91506	-268.22	1	284.5186	-70.51265	1.424261E-006	7.182171E-005	9
	43	113	15.02404	111.5788	-320.2636	1	339.1439	-70.79183	9.800359E-007	6.628794E-005	9
	44	115	12.01923	132.4538	-384.5128	1	406.6867	-70.99262	1.362282E-006	7.225132E-005	9
	45	118	9.450605	158.8597	-465.6786	1	492.0294	-71.16364	2.674685E-007	0.0006484	8
	46	120	7.512019	189.473	-560.9142	1	592.0514	-71.33538	3.101995E-007	0.0006367	8
	47	123	5.978954	225.961	-674.3539	1	711.2043	-71.47515	4.185218E-007	0.0006565	8
	48	126	4.734848	269.5323	-814.8575	1	858.2776	-71.69721	3.059116E-007	0.000638	8
	49	129	3.75601	320.4066	-982.752	1	1033.665	-71.94248	4.183871E-007	0.0006662	8
	50	133	3.004808	376.8315	-1177.562	1	1236.387	-72.25481	3.433769E-007	0.0006812	8
	51	136	2.372217	446.2294	-1427.018	1	1495.16	-72.63551	3.751622E-007	0.0006314	8
	52	141	1.878005	527.3464	-1734.905	1	1813.281	-73.09268	4.002461E-007	0.0006418	8
	53	145	1.512097	610.5117	-2080.822	1	2168.535	-73.64835	3.570289E-007	0.0007342	8
	54	151	1.201923	718.4943	-2531.99	1	2631.959	-74.15783	3.829601E-007	0.0006486	8
	55	157	0.956633	840.8746	-3080.667	1	3193.365	-74.73289	3.423638E-007	7.153717E-006	8
