EXPLAIN
TAG	EISPOT
TITLE	LABEL	Potentiostatic EIS	Test Identifier
DATE	LABEL	8/21/2020	Date
TIME	LABEL	19:03:02	Time
NOTES	NOTES	1	Notes...
	
PSTAT	PSTAT	REF3000-16137	Potentiostat
VDC	POTEN	0.00000E+000	T	DC Voltage (V)
FREQINIT	QUANT	3.00000E+005	Initial Freq. (Hz)
FREQFINAL	QUANT	1.00000E+000	Final Freq. (Hz)
PTSPERDEC	QUANT	1.00000E+001	Points/decade
VAC	QUANT	5.00000E+001	AC Voltage (mV rms)
AREA	QUANT	1.00000E+000	Sample Area (cm^2)
SPEED	SELECTOR	2	Optimize for:
ZGUESS	QUANT	1.00000E+003	Estimated Z (ohms)
EOC	QUANT	0	Open Circuit (V)
SEQUENCER	TOGGLE	TRUE	Run as Sequence
PSTATMODEL	IQUANT	5	Pstat Model
PSTATSECTION	LABEL	REF3000-16137	Pstat Section
PSTATSERIALNO	LABEL	16137	Pstat Serial Number
CTRLMODE	IQUANT	1	Control Mode
IESTAB	IQUANT	0	I/E Stability
CASPEED	IQUANT	1	Control Amp Speed
CONVENTION	IQUANT	1	Current Convention
ICHRANGE	IQUANT	2	Ich Range
ICHRANGEMODE	TOGGLE	F	Ich Auto Range
ICHOFFSETENABLE	TOGGLE	T	Ich Offset Enable
ICHOFFSET	QUANT	0	Ich Offset (V)
ICHFILTER	IQUANT	3	Ich Filter
VCHRANGE	IQUANT	2	Vch Range
VCHRANGEMODE	TOGGLE	F	Vch Auto Range
VCHOFFSETENABLE	TOGGLE	T	Vch Offset Enable
VCHOFFSET	QUANT	0	Vch Offset (V)
VCHFILTER	IQUANT	3	Vch Filter
ACHRANGE	IQUANT	2	Ach Range
ACHOFFSETENABLE	TOGGLE	F	Ach Offset Enable
ACHOFFSET	QUANT	0	Ach Offset (V)
ACHFILTER	IQUANT	3	Ach Filter
IERANGELOWERLIMIT	IQUANT	2	I/E Range Lower Limit
IERANGEMODE	TOGGLE	F	I/E AutoRange
IERANGE	IQUANT	11	I/E Range
POSFEEDENABLE	TOGGLE	F	Positive Feedback IR Comp
POSFEEDRESISTANCE	QUANT	0	Positive Feedback Resistance (ohm)
ACHSELECT	IQUANT	0	Ach Select
CABLEID	IQUANT	13	Cable ID
DCCALDATE	LABEL	7/31/2020	DC Calibration Date
ACCALDATE	LABEL	7/31/2020	AC Calibration Date
THERMOSELECT	IQUANT	1	Thermo Select
FRAMEWORKVERSION	QUANT	6.33	Framework Version
INSTRUMENTVERSION	LABEL	3.50	Instrument Version
COMPLIANCEVOLTAGE	IQUANT	0	Compliance Voltage
ZCURVE	TABLE
	Pt	Time	Freq	Zreal	Zimag	Zsig	Zmod	Zphz	Idc	Vdc	IERange
	#	s	Hz	ohm	ohm	V	ohm	°	A	V	#
	0	6	300046.9	50.68257	-1.611845	1	50.70819	-1.82155	-5.371841E-005	0.0018309	9
	1	10	238359.4	50.98015	-2.767055	1	51.05519	-3.1068	-4.048638E-005	0.0004554	9
	2	13	189328.1	51.30256	-3.982888	1	51.45694	-4.439268	8.767947E-006	-0.0011955	9
	3	15	150421.9	51.75246	-5.147334	1	52.00781	-5.679995	4.174983E-005	-0.0005994	9
	4	18	119484.4	52.26437	-6.616312	1	52.68149	-7.214876	-4.441069E-006	0.0006643	9
	5	20	94921.88	53.01766	-8.025367	1	53.62162	-8.607607	-1.706105E-005	0.000492	9
	6	23	75421.88	53.79098	-9.78395	1	54.67353	-10.30874	1.87881E-005	-0.000583	9
	7	25	59859.37	54.80513	-11.77025	1	56.05481	-12.12104	1.45838E-005	-0.000537	9
	8	28	47578.12	55.97903	-14.0015	1	57.7035	-14.04274	1.996682E-005	-0.0003249	9
	9	30	37828.12	57.34928	-16.45834	1	59.6642	-16.01265	3.250207E-006	0.000285	9
	10	33	30046.88	58.87991	-19.27094	1	61.95331	-18.12288	1.474846E-005	-0.000524	9
	11	36	23859.38	60.56257	-22.48027	1	64.60021	-20.36446	-2.224196E-006	-0.0001564	9
	12	38	18984.38	62.38898	-26.20089	1	67.66736	-22.78046	-5.424792E-006	-6.994253E-006	9
	13	40	15046.87	64.32227	-30.65115	1	71.25201	-25.47895	1.523673E-005	-0.0005401	9
	14	43	11953.13	66.37209	-35.89087	1	75.45468	-28.40241	-8.667109E-006	8.623875E-005	9
	15	45	9515.62	68.44167	-42.18925	1	80.40022	-31.65078	-5.025684E-006	-4.83215E-005	9
	16	47	7546.875	70.46115	-50.18898	1	86.50842	-35.462	1.937663E-005	-0.0001994	9
	17	49	5928.309	72.54054	-60.44621	1	94.42391	-39.80359	1.10523E-005	7.774688E-005	9
	18	52	4733.456	74.4047	-72.56707	1	103.9329	-44.28365	-1.286888E-005	0.0002323	9
	19	54	3796.875	76.08719	-87.53276	1	115.9795	-49.00145	-9.214797E-006	0.0006312	9
	20	56	2987.132	78.1443	-107.9283	1	133.2481	-54.09399	1.717861E-005	-0.0001526	9
	21	59	2390.625	79.99862	-132.0861	1	154.4232	-58.79859	-1.615674E-005	0.0006271	9
	22	61	1884.191	82.59481	-164.1584	1	183.7658	-63.29116	-1.284013E-005	0.0002354	9
	23	63	1516.544	85.38656	-201.431	1	218.7814	-67.02792	-1.47249E-005	0.0004001	9
	24	66	1193.986	89.26324	-252.5866	1	267.8954	-70.53677	1.755611E-005	-0.0001547	9
	25	68	946.5144	95.9501	-314.8075	1	329.1051	-73.04932	9.865857E-006	-0.0004636	9
	26	70	751.7689	100.6706	-394.4216	1	407.0663	-75.68176	2.044391E-005	-0.0003909	9
	27	73	597.4265	109.6217	-487.256	1	499.435	-77.32083	3.357499E-006	0.0002481	8
	28	75	477.4305	121.7202	-603.2561	1	615.4135	-78.59248	3.340317E-007	0.0006511	8
	29	77	376.6741	139.1104	-756.3304	1	769.0172	-79.57818	3.562438E-007	0.0006416	8
	30	80	298.2954	162.8993	-944.2603	1	958.209	-80.21194	3.397443E-007	0.0006452	8
	31	82	237.7717	194.7585	-1170.449	1	1186.542	-80.55275	3.485881E-007	0.0006425	8
	32	85	189.0121	239.3863	-1453.049	1	1472.636	-80.64469	3.464579E-007	0.0006447	8
	33	87	150.2404	301.2694	-1801.25	1	1826.271	-80.50484	3.397687E-007	0.0006509	8
	34	89	119.1737	388.022	-2233.466	1	2266.921	-80.14433	3.402562E-007	0.000648	8
	35	92	95.0169	506.3262	-2750.64	1	2796.853	-79.56999	3.47432E-007	0.0006496	8
	36	94	75.60484	671.3479	-3385.345	1	3451.271	-78.7832	3.487762E-007	0.0006426	8
	37	97	54.50582	1024.849	-4530.912	1	4645.372	-77.25471	3.471391E-007	0.0006457	8
	38	99	45.95588	1287.948	-5270.883	1	5425.958	-76.26876	3.330135E-008	0.0006239	7
	39	102	37.20238	1708.834	-6308.229	1	6535.584	-74.84293	3.596696E-008	0.0006232	7
	40	104	30.04808	2269.684	-7521.331	1	7856.327	-73.20796	2.281772E-008	0.0006211	7
	41	106	23.91582	3071.624	-9010.73	1	9519.88	-71.17652	2.854429E-008	0.0006213	7
	42	109	18.60119	4263.513	-10907.17	1	11710.85	-68.64993	1.708071E-008	0.0006382	7
	43	111	15.02404	5599.024	-12672.54	1	13854.32	-66.16303	4.052688E-008	0.0006335	7
	44	113	12.01923	7333.057	-14643.04	1	16376.58	-63.39884	2.850821E-008	0.0006258	7
	45	116	9.450605	9673.19	-16851.35	1	19430.35	-60.14286	1.739809E-008	0.0006233	7
	46	118	7.512019	12385.09	-18941.45	1	22631.15	-56.82087	1.898571E-008	0.0006074	7
	47	121	5.978954	15562.84	-20874.88	1	26037.71	-53.29437	2.404077E-008	0.0006251	7
	48	124	4.734848	19248.55	-22539.6	1	29640.18	-49.50307	1.968035E-008	0.0005931	7
	49	127	3.75601	23266.06	-23611.62	1	33148.43	-45.42236	3.000837E-008	0.0006362	7
	50	131	3.004808	27258.4	-24189.93	1	36444.11	-41.58682	3.427856E-008	0.0005946	7
	51	134	2.372217	31609.06	-24460.77	1	39968.27	-37.73461	-1.740596E-008	0.0006084	6
	52	139	1.878005	35219.64	-23047.4	1	42090.45	-33.20036	-1.397202E-008	0.0006721	6
	53	148	1.512097	38047.97	-21669.85	1	43786.19	-29.66325	-1.139367E-008	0.0005649	6
	54	158	1.201923	40993.58	-20551.1	1	45856.53	-26.62575	-1.578344E-008	0.0006897	6
	55	171	0.956633	43634.9	-19374.19	1	47742.68	-23.94155	-3.139483E-008	2.656185E-005	6
