EXPLAIN
TAG	EISPOT
TITLE	LABEL	Potentiostatic EIS	Test Identifier
DATE	LABEL	8/21/2020	Date
TIME	LABEL	18:17:33	Time
NOTES	NOTES	1	Notes...
	
PSTAT	PSTAT	REF3000-16137	Potentiostat
VDC	POTEN	0.00000E+000	T	DC Voltage (V)
FREQINIT	QUANT	3.00000E+005	Initial Freq. (Hz)
FREQFINAL	QUANT	1.00000E+000	Final Freq. (Hz)
PTSPERDEC	QUANT	1.00000E+001	Points/decade
VAC	QUANT	5.00000E+001	AC Voltage (mV rms)
AREA	QUANT	1.00000E+000	Sample Area (cm^2)
SPEED	SELECTOR	2	Optimize for:
ZGUESS	QUANT	1.00000E+003	Estimated Z (ohms)
EOC	QUANT	0	Open Circuit (V)
SEQUENCER	TOGGLE	TRUE	Run as Sequence
PSTATMODEL	IQUANT	5	Pstat Model
PSTATSECTION	LABEL	REF3000-16137	Pstat Section
PSTATSERIALNO	LABEL	16137	Pstat Serial Number
CTRLMODE	IQUANT	1	Control Mode
IESTAB	IQUANT	0	I/E Stability
CASPEED	IQUANT	1	Control Amp Speed
CONVENTION	IQUANT	1	Current Convention
ICHRANGE	IQUANT	2	Ich Range
ICHRANGEMODE	TOGGLE	F	Ich Auto Range
ICHOFFSETENABLE	TOGGLE	T	Ich Offset Enable
ICHOFFSET	QUANT	0	Ich Offset (V)
ICHFILTER	IQUANT	3	Ich Filter
VCHRANGE	IQUANT	2	Vch Range
VCHRANGEMODE	TOGGLE	F	Vch Auto Range
VCHOFFSETENABLE	TOGGLE	T	Vch Offset Enable
VCHOFFSET	QUANT	0	Vch Offset (V)
VCHFILTER	IQUANT	3	Vch Filter
ACHRANGE	IQUANT	2	Ach Range
ACHOFFSETENABLE	TOGGLE	F	Ach Offset Enable
ACHOFFSET	QUANT	0	Ach Offset (V)
ACHFILTER	IQUANT	3	Ach Filter
IERANGELOWERLIMIT	IQUANT	2	I/E Range Lower Limit
IERANGEMODE	TOGGLE	F	I/E AutoRange
IERANGE	IQUANT	11	I/E Range
POSFEEDENABLE	TOGGLE	F	Positive Feedback IR Comp
POSFEEDRESISTANCE	QUANT	0	Positive Feedback Resistance (ohm)
ACHSELECT	IQUANT	0	Ach Select
CABLEID	IQUANT	13	Cable ID
DCCALDATE	LABEL	7/31/2020	DC Calibration Date
ACCALDATE	LABEL	7/31/2020	AC Calibration Date
THERMOSELECT	IQUANT	1	Thermo Select
FRAMEWORKVERSION	QUANT	6.33	Framework Version
INSTRUMENTVERSION	LABEL	3.50	Instrument Version
COMPLIANCEVOLTAGE	IQUANT	0	Compliance Voltage
ZCURVE	TABLE
	Pt	Time	Freq	Zreal	Zimag	Zsig	Zmod	Zphz	Idc	Vdc	IERange
	#	s	Hz	ohm	ohm	V	ohm	°	A	V	#
	0	29	300046.9	2302.696	-2765.001	1	3598.283	-50.21243	2.283909E-005	0.0009735	9
	1	43	238359.4	2734.695	-2099.855	1	3447.891	-37.51912	8.553145E-005	-0.0036098	9
	2	57	189328.1	2784.277	-1480.887	1	3153.605	-28.0074	2.469229E-005	-0.0015462	9
	3	65	150421.9	2675.697	-966.139	1	2844.781	-19.8536	1.536131E-006	-0.001888	9
	4	74	119484.4	2515.591	-687.6234	1	2607.877	-15.28804	3.47425E-007	-0.0018422	9
	5	82	94921.88	2354.345	-433.3403	1	2393.893	-10.42912	-1.860464E-006	-0.0042386	8
	6	87	75421.88	2229.991	-325.4478	1	2253.614	-8.303202	-2.278084E-005	0.006881	8
	7	91	59859.37	2130.788	-264.2293	1	2147.108	-7.068904	5.979754E-006	-0.0064293	8
	8	95	47578.12	1993.893	-211.6893	1	2005.099	-6.060324	2.185269E-005	-0.0076425	8
	9	101	37828.12	1823.196	-169.6105	1	1831.068	-5.314885	-2.078691E-006	-0.0039536	8
	10	107	30046.88	1683.468	-142.6466	1	1689.5	-4.84332	-8.952731E-006	0.0083141	8
	11	113	23859.38	1589.243	-135.3073	1	1594.993	-4.866396	5.809175E-006	-0.0060291	8
	12	116	18984.38	1517.022	-131.7892	1	1522.735	-4.965026	5.779392E-006	-0.0060158	8
	13	119	15046.87	1459.178	-133.7844	1	1465.298	-5.238505	2.067735E-005	-0.0072819	8
	14	123	11953.13	1400.081	-140.7599	1	1407.139	-5.741056	1.188795E-005	-0.0071174	8
	15	126	9515.62	1352.979	-155.3692	1	1361.87	-6.55086	2.158874E-005	-0.0060085	8
	16	129	7546.875	1309.176	-171.9128	1	1320.415	-7.480923	1.458219E-005	-9.084783E-006	8
	17	132	5928.309	1273.871	-195.139	1	1288.731	-8.709195	-2.298263E-006	-0.0034212	8
	18	135	4733.456	1239.452	-217.655	1	1258.417	-9.95993	-1.9037E-005	0.0047165	8
	19	139	3796.875	1209.495	-247.1036	1	1234.479	-11.5468	-7.804389E-006	0.0075946	8
	20	142	2987.132	1187.417	-287.3639	1	1221.694	-13.60444	-2.411635E-007	0.0056106	8
	21	145	2390.625	1174.294	-322.122	1	1217.674	-15.33955	1.123992E-005	-0.0066469	8
	22	148	1884.191	1159.505	-376.317	1	1219.044	-17.98082	1.841267E-005	-0.0025833	8
	23	151	1516.544	1146.81	-420.1796	1	1221.362	-20.12232	1.070331E-005	-0.0064205	8
	24	155	1193.986	1131.859	-478.0933	1	1228.69	-22.89902	-1.317302E-005	0.0013962	8
	25	158	946.5144	1130.247	-557.1173	1	1260.094	-26.23945	-1.861852E-005	0.005931	8
	26	161	751.7689	1134.756	-641.8773	1	1303.717	-29.49478	-1.636025E-005	0.0079126	8
	27	164	597.4265	1139.071	-732.3655	1	1354.194	-32.73898	-6.863922E-006	0.0069648	8
	28	166	477.4305	1144.744	-860.8046	1	1432.279	-36.94181	-2.198542E-007	0.0006539	8
	29	168	376.6741	1150.661	-1026.013	1	1541.663	-41.72253	-2.105322E-007	0.0006494	8
	30	171	298.2954	1152.688	-1233.768	1	1688.453	-46.94587	-1.709605E-007	0.00063	8
	31	173	237.7717	1151.669	-1490.709	1	1883.761	-52.31159	-1.68112E-007	0.000629	8
	32	176	189.0121	1156.343	-1820.645	1	2156.821	-57.57922	-1.906875E-007	0.000651	8
	33	178	150.2404	1165.582	-2237.773	1	2523.135	-62.48648	-1.910943E-007	0.0006499	8
	34	180	119.1737	1187.505	-2767.513	1	3011.527	-66.77644	-1.756656E-007	0.000636	8
	35	183	95.0169	1223.913	-3413.604	1	3626.383	-70.27522	-1.498973E-007	0.0006358	8
	36	185	75.60484	1282.915	-4232.927	1	4423.069	-73.13899	-3.472431E-008	0.0006185	7
	37	188	54.50582	1432.277	-5754.755	1	5930.314	-76.02386	-3.76667E-008	0.0006208	7
	38	190	45.95588	1533.213	-6747.248	1	6919.255	-77.19777	-3.504727E-008	0.0006177	7
	39	193	37.20238	1717.802	-8219.766	1	8397.344	-78.19597	-3.506298E-008	0.0006214	7
	40	195	30.04808	1977.902	-10028.32	1	10221.52	-78.84267	-2.848292E-008	0.000595	7
	41	198	23.91582	2370.998	-12382.28	1	12607.24	-79.16003	-2.926555E-008	0.0005942	7
	42	200	18.60119	3000.331	-15604.97	1	15890.79	-79.11668	-3.215553E-008	0.0006204	7
	43	202	15.02404	3767.216	-18942.51	1	19313.48	-78.75198	-2.418387E-008	0.0006075	7
	44	204	12.01923	4871.017	-23126.42	1	23633.83	-78.10589	-2.9214E-008	0.0005925	7
	45	207	9.450605	6556.034	-28557.23	1	29300.12	-77.07035	-2.721025E-008	0.0006068	7
	46	209	7.512019	8784.909	-34745.37	1	35838.74	-75.81088	-2.780797E-008	0.0006569	7
	47	212	5.978954	11888.9	-41924.32	1	43577.46	-74.16772	-4.38745E-009	0.0006719	6
	48	215	4.734848	16196	-50375.75	1	52915.28	-72.1772	-2.786988E-009	0.0006892	6
	49	218	3.75601	22029.21	-59786.16	1	63715.54	-69.77284	-6.714737E-009	0.000634	6
	50	222	3.004808	29363.33	-69632.72	1	75570.63	-67.1354	-8.521581E-009	0.0006961	6
	51	226	2.372217	39670.02	-80435.12	1	89685.66	-63.74782	-8.03354E-009	0.0007335	6
	52	230	1.878005	52596.77	-90386.46	1	104576	-59.80445	-1.11057E-008	0.0006325	6
	53	235	1.512097	67692.89	-94669.7	1	116381.6	-54.43361	-1.407538E-008	0.0007285	6
	54	245	1.201923	84606.53	-89266.48	1	122990.9	-46.53521	-2.135858E-008	0.0006548	6
	55	258	0.956633	97946.3	-80267.27	1	126634.5	-39.33472	-3.700491E-008	2.694984E-005	6
