EXPLAIN
TAG	EISPOT
TITLE	LABEL	Potentiostatic EIS	Test Identifier
DATE	LABEL	8/21/2020	Date
TIME	LABEL	16:23:38	Time
NOTES	NOTES	1	Notes...
	
PSTAT	PSTAT	REF3000-16137	Potentiostat
VDC	POTEN	0.00000E+000	T	DC Voltage (V)
FREQINIT	QUANT	3.00000E+005	Initial Freq. (Hz)
FREQFINAL	QUANT	1.00000E+000	Final Freq. (Hz)
PTSPERDEC	QUANT	1.00000E+001	Points/decade
VAC	QUANT	5.00000E+001	AC Voltage (mV rms)
AREA	QUANT	1.00000E+000	Sample Area (cm^2)
SPEED	SELECTOR	2	Optimize for:
ZGUESS	QUANT	1.00000E+003	Estimated Z (ohms)
EOC	QUANT	0	Open Circuit (V)
SEQUENCER	TOGGLE	TRUE	Run as Sequence
PSTATMODEL	IQUANT	5	Pstat Model
PSTATSECTION	LABEL	REF3000-16137	Pstat Section
PSTATSERIALNO	LABEL	16137	Pstat Serial Number
CTRLMODE	IQUANT	1	Control Mode
IESTAB	IQUANT	0	I/E Stability
CASPEED	IQUANT	1	Control Amp Speed
CONVENTION	IQUANT	1	Current Convention
ICHRANGE	IQUANT	2	Ich Range
ICHRANGEMODE	TOGGLE	F	Ich Auto Range
ICHOFFSETENABLE	TOGGLE	T	Ich Offset Enable
ICHOFFSET	QUANT	0	Ich Offset (V)
ICHFILTER	IQUANT	3	Ich Filter
VCHRANGE	IQUANT	2	Vch Range
VCHRANGEMODE	TOGGLE	F	Vch Auto Range
VCHOFFSETENABLE	TOGGLE	T	Vch Offset Enable
VCHOFFSET	QUANT	0	Vch Offset (V)
VCHFILTER	IQUANT	3	Vch Filter
ACHRANGE	IQUANT	2	Ach Range
ACHOFFSETENABLE	TOGGLE	F	Ach Offset Enable
ACHOFFSET	QUANT	0	Ach Offset (V)
ACHFILTER	IQUANT	3	Ach Filter
IERANGELOWERLIMIT	IQUANT	2	I/E Range Lower Limit
IERANGEMODE	TOGGLE	F	I/E AutoRange
IERANGE	IQUANT	11	I/E Range
POSFEEDENABLE	TOGGLE	F	Positive Feedback IR Comp
POSFEEDRESISTANCE	QUANT	0	Positive Feedback Resistance (ohm)
ACHSELECT	IQUANT	0	Ach Select
CABLEID	IQUANT	13	Cable ID
DCCALDATE	LABEL	7/31/2020	DC Calibration Date
ACCALDATE	LABEL	7/31/2020	AC Calibration Date
THERMOSELECT	IQUANT	1	Thermo Select
FRAMEWORKVERSION	QUANT	6.33	Framework Version
INSTRUMENTVERSION	LABEL	3.50	Instrument Version
COMPLIANCEVOLTAGE	IQUANT	0	Compliance Voltage
ZCURVE	TABLE
	Pt	Time	Freq	Zreal	Zimag	Zsig	Zmod	Zphz	Idc	Vdc	IERange
	#	s	Hz	ohm	ohm	V	ohm	°	A	V	#
	0	14	300046.9	706.1735	-103.1805	1	713.6716	-8.312781	-3.528517E-005	-0.0011181	9
	1	24	238359.4	723.4745	-91.80791	1	729.2764	-7.2321	2.21561E-005	-0.0010076	9
	2	41	189328.1	740.8687	-79.41179	1	745.1125	-6.118027	2.044234E-005	-0.0009105	9
	3	52	150421.9	755.8089	-70.7939	1	759.1172	-5.351077	-3.004784E-005	-0.0009066	9
	4	60	119484.4	767.2872	-39.61332	1	768.3091	-2.955429	9.399814E-006	-0.0104757	8
	5	66	94921.88	770.7802	-34.61128	1	771.5569	-2.571095	1.708028E-005	-0.0024058	8
	6	68	75421.88	773.6398	-35.83148	1	774.4692	-2.651785	-1.809263E-005	0.0057438	8
	7	71	59859.37	777.9922	-38.01317	1	778.9203	-2.797282	-1.704285E-005	0.0058822	8
	8	74	47578.12	784.1198	-41.57644	1	785.2213	-3.035156	-2.524706E-006	-0.0027937	8
	9	76	37828.12	788.5792	-46.5069	1	789.9493	-3.375141	-1.222007E-005	0.0078674	8
	10	79	30046.88	795.1838	-53.22702	1	796.9632	-3.829481	1.390323E-005	-0.0004035	8
	11	82	23859.38	801.2456	-61.66755	1	803.6152	-4.401071	1.910913E-005	-0.0043603	8
	12	85	18984.38	809.1586	-69.04945	1	812.0994	-4.877512	2.163472E-007	0.0051471	8
	13	87	15046.87	815.5739	-80.48601	1	819.5357	-5.636062	-7.192819E-006	0.007028	8
	14	90	11953.13	826.2366	-98.5834	1	832.0972	-6.804146	5.816874E-006	-0.0053868	8
	15	92	9515.62	837.0727	-116.0127	1	845.0737	-7.890551	-1.560129E-005	0.0028251	8
	16	95	7546.875	851.0049	-137.1969	1	861.9932	-9.158283	1.799751E-005	-0.003472	8
	17	98	5928.309	867.4237	-163.3822	1	882.6764	-10.66688	-8.591576E-006	-0.0006576	8
	18	101	4733.456	885.5788	-192.7749	1	906.3178	-12.2807	-1.635915E-005	0.0078452	8
	19	104	3796.875	908.3682	-222.2821	1	935.1696	-13.75035	1.872721E-005	-0.0028594	8
	20	107	2987.132	933.5135	-258.9316	1	968.758	-15.50259	-1.57075E-005	0.0029555	8
	21	110	2390.625	954.855	-305.4056	1	1002.507	-17.73662	-1.27947E-005	0.0015504	8
	22	114	1884.191	993.123	-352.6182	1	1053.866	-19.54791	1.355192E-005	-0.0001387	8
	23	117	1516.544	1027.146	-410.417	1	1106.106	-21.78018	-8.40285E-006	-0.0007251	8
	24	120	1193.986	1066.062	-477.6989	1	1168.197	-24.137	4.442429E-006	-0.0050263	8
	25	123	946.5144	1105.274	-555.7221	1	1237.116	-26.69286	4.055752E-006	-0.0048216	8
	26	126	751.7689	1146.397	-652.3247	1	1318.997	-29.64082	1.400445E-005	-0.0002625	8
	27	129	597.4265	1196.016	-774.9113	1	1425.111	-32.93962	1.031396E-005	-0.0061118	8
	28	131	477.4305	1232.904	-910.9277	1	1532.919	-36.45874	-2.520738E-007	0.0006506	8
	29	134	376.6741	1276.462	-1091.846	1	1679.727	-40.54267	-2.096641E-007	0.0006195	8
	30	136	298.2954	1317.962	-1315.964	1	1862.467	-44.95655	-2.099335E-007	0.0006191	8
	31	138	237.7717	1358.244	-1590.812	1	2091.771	-49.50912	-2.255685E-007	0.0006376	8
	32	141	189.0121	1399.487	-1941.825	1	2393.585	-54.21944	-2.256066E-007	0.0006411	8
	33	143	150.2404	1444.091	-2384.822	1	2787.97	-58.80367	-2.413524E-007	0.0006422	8
	34	146	119.1737	1494.29	-2949.496	1	3306.422	-63.13206	-2.468416E-007	0.0006471	8
	35	148	95.0169	1552.262	-3641.424	1	3958.47	-66.91248	-2.541009E-007	0.0006522	8
	36	150	75.60484	1628.517	-4523.932	1	4808.121	-70.20223	-5.021948E-008	0.000636	7
	37	153	54.50582	1763.549	-6170.763	1	6417.82	-74.05054	-4.4123E-008	0.0005951	7
	38	155	45.95588	1857.652	-7260.73	1	7494.603	-75.64877	-4.566636E-008	0.0006167	7
	39	158	37.20238	2000.617	-8881.826	1	9104.356	-77.30607	-4.945803E-008	0.000607	7
	40	160	30.04808	2189.119	-10891.66	1	11109.48	-78.63551	-4.459345E-008	0.0005848	7
	41	163	23.91582	2448.323	-13541.51	1	13761.06	-79.75156	-4.941631E-008	0.0006017	7
	42	165	18.60119	2832.916	-17206.41	1	17438.06	-80.65053	-5.292972E-008	0.000632	7
	43	167	15.02404	3275.81	-21075.55	1	21328.61	-81.16511	-5.057548E-008	0.0006118	7
	44	169	12.01923	3890.648	-26043.36	1	26332.37	-81.50335	-5.210417E-008	0.0006387	7
	45	172	9.450605	4778.688	-32695.83	1	33043.2	-81.68476	-4.567521E-008	0.0006274	7
	46	174	7.512019	5957.54	-40599.29	1	41034.07	-81.65199	-5.137204E-008	0.0006199	7
	47	177	5.978954	7520.746	-50235.05	1	50794.9	-81.48542	-6.156355E-009	0.0006525	6
	48	180	4.734848	9729	-62464.56	1	63217.68	-81.14718	-4.173695E-009	0.000638	6
	49	183	3.75601	12701.37	-77309.41	1	78345.84	-80.67007	-5.317055E-009	0.0006476	6
	50	187	3.004808	16557.13	-94726.44	1	96162.6	-80.08549	-4.04278E-009	0.0006249	6
	51	191	2.372217	22096.96	-117231.8	1	119296.1	-79.32558	-5.35512E-009	0.0005894	6
	52	195	1.878005	29740.29	-144242.4	1	147276.4	-78.34985	-5.367617E-009	0.0006633	6
	53	199	1.512097	39049.07	-174081.2	1	178407.1	-77.35696	-5.281428E-009	0.0005654	6
	54	205	1.201923	51729.41	-212079.4	1	218297.1	-76.29234	-5.649322E-009	0.0006853	6
	55	211	0.956633	67898.38	-256792.9	1	265617.8	-75.18941	-6.047257E-009	1.39934E-005	6
