EXPLAIN
TAG	EISPOT
TITLE	LABEL	Potentiostatic EIS	Test Identifier
DATE	LABEL	8/21/2020	Date
TIME	LABEL	19:09:06	Time
NOTES	NOTES	1	Notes...
	
PSTAT	PSTAT	REF3000-16137	Potentiostat
VDC	POTEN	0.00000E+000	T	DC Voltage (V)
FREQINIT	QUANT	3.00000E+005	Initial Freq. (Hz)
FREQFINAL	QUANT	1.00000E+000	Final Freq. (Hz)
PTSPERDEC	QUANT	1.00000E+001	Points/decade
VAC	QUANT	5.00000E+001	AC Voltage (mV rms)
AREA	QUANT	1.00000E+000	Sample Area (cm^2)
SPEED	SELECTOR	2	Optimize for:
ZGUESS	QUANT	1.00000E+003	Estimated Z (ohms)
EOC	QUANT	0	Open Circuit (V)
SEQUENCER	TOGGLE	TRUE	Run as Sequence
PSTATMODEL	IQUANT	5	Pstat Model
PSTATSECTION	LABEL	REF3000-16137	Pstat Section
PSTATSERIALNO	LABEL	16137	Pstat Serial Number
CTRLMODE	IQUANT	1	Control Mode
IESTAB	IQUANT	0	I/E Stability
CASPEED	IQUANT	1	Control Amp Speed
CONVENTION	IQUANT	1	Current Convention
ICHRANGE	IQUANT	2	Ich Range
ICHRANGEMODE	TOGGLE	F	Ich Auto Range
ICHOFFSETENABLE	TOGGLE	T	Ich Offset Enable
ICHOFFSET	QUANT	0	Ich Offset (V)
ICHFILTER	IQUANT	3	Ich Filter
VCHRANGE	IQUANT	2	Vch Range
VCHRANGEMODE	TOGGLE	F	Vch Auto Range
VCHOFFSETENABLE	TOGGLE	T	Vch Offset Enable
VCHOFFSET	QUANT	0	Vch Offset (V)
VCHFILTER	IQUANT	3	Vch Filter
ACHRANGE	IQUANT	2	Ach Range
ACHOFFSETENABLE	TOGGLE	F	Ach Offset Enable
ACHOFFSET	QUANT	0	Ach Offset (V)
ACHFILTER	IQUANT	3	Ach Filter
IERANGELOWERLIMIT	IQUANT	2	I/E Range Lower Limit
IERANGEMODE	TOGGLE	F	I/E AutoRange
IERANGE	IQUANT	11	I/E Range
POSFEEDENABLE	TOGGLE	F	Positive Feedback IR Comp
POSFEEDRESISTANCE	QUANT	0	Positive Feedback Resistance (ohm)
ACHSELECT	IQUANT	0	Ach Select
CABLEID	IQUANT	13	Cable ID
DCCALDATE	LABEL	7/31/2020	DC Calibration Date
ACCALDATE	LABEL	7/31/2020	AC Calibration Date
THERMOSELECT	IQUANT	1	Thermo Select
FRAMEWORKVERSION	QUANT	6.33	Framework Version
INSTRUMENTVERSION	LABEL	3.50	Instrument Version
COMPLIANCEVOLTAGE	IQUANT	0	Compliance Voltage
ZCURVE	TABLE
	Pt	Time	Freq	Zreal	Zimag	Zsig	Zmod	Zphz	Idc	Vdc	IERange
	#	s	Hz	ohm	ohm	V	ohm	°	A	V	#
	0	7	300046.9	50.71314	-1.675529	1	50.74081	-1.892326	5.727066E-005	-0.0022936	9
	1	10	238359.4	50.96195	-2.78228	1	51.03784	-3.124974	-1.03537E-007	-0.0013545	9
	2	13	189328.1	51.24675	-3.952937	1	51.39898	-4.410796	-5.919691E-005	0.0014301	9
	3	16	150421.9	51.71712	-5.36085	1	51.99422	-5.917982	2.826921E-005	-5.389325E-005	9
	4	18	119484.4	52.23888	-6.614096	1	52.65593	-7.215967	2.582516E-005	0.000151	9
	5	21	94921.88	52.99314	-8.028885	1	53.59791	-8.615249	-2.904236E-006	-0.0002063	9
	6	23	75421.88	53.80392	-9.80219	1	54.68953	-10.32511	-1.465218E-006	0.0004946	9
	7	26	59859.37	54.80437	-11.80639	1	56.06166	-12.15731	-2.827554E-006	0.0005284	9
	8	28	47578.12	55.99355	-14.0349	1	57.72569	-14.0714	-3.279303E-006	-0.0001439	9
	9	31	37828.12	57.35601	-16.49806	1	59.68164	-16.04751	1.019237E-005	-0.0004748	9
	10	33	30046.88	58.90866	-19.27923	1	61.98322	-18.12188	1.928082E-005	-0.0004756	9
	11	36	23859.38	60.58841	-22.49051	1	64.628	-20.365	6.590714E-006	-0.0004097	9
	12	38	18984.38	62.41369	-26.21754	1	67.69659	-22.78537	2.238779E-005	-0.000351	9
	13	41	15046.87	64.39063	-30.68403	1	71.32786	-25.47917	8.581879E-006	0.0001228	9
	14	43	11953.13	66.35635	-36.00073	1	75.49316	-28.48144	1.149891E-005	0.0001145	9
	15	45	9515.62	68.42287	-42.27617	1	80.42987	-31.71051	-2.674941E-006	-0.0001251	9
	16	48	7546.875	70.45901	-50.30158	1	86.57205	-35.52352	2.140592E-005	-0.0003906	9
	17	50	5928.309	72.60357	-60.57082	1	94.55212	-39.83716	-3.113183E-006	-0.000126	9
	18	52	4733.456	74.44057	-72.67998	1	104.0374	-44.31437	4.048812E-006	-0.0003268	9
	19	54	3796.875	76.07027	-87.66493	1	116.0682	-49.05055	1.842397E-005	-0.0001559	9
	20	57	2987.132	78.15151	-108.1209	1	133.4083	-54.13998	9.448685E-006	-0.0004584	9
	21	59	2390.625	80.30174	-132.0004	1	154.5072	-58.68598	-1.541289E-005	0.0004724	9
	22	61	1884.191	82.36877	-164.9564	1	184.3779	-63.46536	-3.308716E-006	0.000527	9
	23	64	1516.544	85.49992	-201.8415	1	219.2036	-67.04252	2.065129E-005	-0.0003961	9
	24	66	1193.986	89.63764	-252.8861	1	268.3026	-70.48269	-8.814709E-006	8.344989E-005	9
	25	69	946.5144	94.17023	-316.7668	1	330.4682	-73.44354	2.082258E-005	-0.0004825	9
	26	71	751.7689	100.4986	-393.611	1	406.2383	-75.67698	1.729384E-005	-0.0001461	9
	27	73	597.4265	109.4046	-488.3448	1	500.4498	-77.37245	4.412024E-006	-0.0005483	8
	28	76	477.4305	121.5399	-604.9102	1	616.9995	-78.63927	3.382675E-007	0.0006488	8
	29	78	376.6741	138.8406	-758.4733	1	771.0762	-79.6267	3.445347E-007	0.0006463	8
	30	80	298.2954	162.5291	-947.0298	1	960.875	-80.26177	3.47825E-007	0.0006501	8
	31	83	237.7717	194.241	-1173.942	1	1189.903	-80.60493	3.478236E-007	0.0006429	8
	32	85	189.0121	238.6767	-1457.571	1	1476.984	-80.70037	3.411164E-007	0.0006429	8
	33	87	150.2404	300.2921	-1807.02	1	1831.802	-80.56477	3.399769E-007	0.0006457	8
	34	90	119.1737	386.6852	-2241.456	1	2274.566	-80.21195	3.527942E-007	0.0006467	8
	35	92	95.0169	504.4328	-2760.427	1	2806.137	-79.64419	3.460371E-007	0.0006398	8
	36	95	75.60484	668.8669	-3398.317	1	3463.516	-78.8652	3.49781E-007	0.0006447	8
	37	97	54.50582	1020.996	-4550.163	1	4663.305	-77.35307	3.539599E-007	0.0006379	8
	38	100	45.95588	1283.736	-5291.948	1	5445.428	-76.36443	4.099072E-008	0.0006225	7
	39	102	37.20238	1702.277	-6338.258	1	6562.87	-74.96673	2.932706E-008	0.0006294	7
	40	104	30.04808	2267.654	-7567.229	1	7899.697	-73.31823	2.512182E-008	0.0006226	7
	41	107	23.91582	3075.956	-9070.138	1	9577.52	-71.26666	2.323162E-008	0.0006157	7
	42	109	18.60119	4262.184	-10970.98	1	11769.82	-68.76904	2.049099E-008	0.0006305	7
	43	112	15.02404	5594.742	-12758.32	1	13931.11	-66.32172	3.376623E-008	0.0006362	7
	44	114	12.01923	7333.249	-14758.31	1	16479.81	-63.5777	2.022924E-008	0.0006199	7
	45	116	9.450605	9710.22	-16986.7	1	19566.2	-60.24614	3.650231E-008	0.0006328	7
	46	119	7.512019	12448.68	-19095.96	1	22795.29	-56.8996	3.804112E-008	0.0006203	7
	47	122	5.978954	15632.29	-21017.98	1	26193.96	-53.35968	3.493989E-008	0.0006234	7
	48	125	4.734848	19370.25	-22775.68	1	29898.8	-49.61951	2.873879E-008	0.0006157	7
	49	128	3.75601	23411.03	-24010.45	1	33534.73	-45.72419	3.309316E-008	0.0006559	7
	50	131	3.004808	27483.95	-24740.67	1	36979.3	-41.9931	1.973703E-008	0.0006538	7
	51	135	2.372217	31813.47	-24803.61	1	40340.01	-37.94203	-5.782027E-009	0.0006934	6
	52	139	1.878005	35587.7	-23484.29	1	42637.96	-33.42079	-9.618406E-009	0.0006454	6
	53	148	1.512097	38621.45	-22360.42	1	44627.4	-30.06929	-1.073627E-008	0.0007403	6
	54	159	1.201923	41500.67	-20982.19	1	46503.31	-26.82056	-9.84027E-009	0.0006656	6
	55	172	0.956633	44507.45	-20030.34	1	48807.04	-24.22987	-3.749602E-008	2.492329E-005	6
