EXPLAIN
TAG	EISPOT
TITLE	LABEL	Potentiostatic EIS	Test Identifier
DATE	LABEL	8/21/2020	Date
TIME	LABEL	18:28:37	Time
NOTES	NOTES	1	Notes...
	
PSTAT	PSTAT	REF3000-16137	Potentiostat
VDC	POTEN	0.00000E+000	T	DC Voltage (V)
FREQINIT	QUANT	3.00000E+005	Initial Freq. (Hz)
FREQFINAL	QUANT	1.00000E+000	Final Freq. (Hz)
PTSPERDEC	QUANT	1.00000E+001	Points/decade
VAC	QUANT	5.00000E+001	AC Voltage (mV rms)
AREA	QUANT	1.00000E+000	Sample Area (cm^2)
SPEED	SELECTOR	2	Optimize for:
ZGUESS	QUANT	1.00000E+003	Estimated Z (ohms)
EOC	QUANT	0	Open Circuit (V)
SEQUENCER	TOGGLE	TRUE	Run as Sequence
PSTATMODEL	IQUANT	5	Pstat Model
PSTATSECTION	LABEL	REF3000-16137	Pstat Section
PSTATSERIALNO	LABEL	16137	Pstat Serial Number
CTRLMODE	IQUANT	1	Control Mode
IESTAB	IQUANT	0	I/E Stability
CASPEED	IQUANT	1	Control Amp Speed
CONVENTION	IQUANT	1	Current Convention
ICHRANGE	IQUANT	2	Ich Range
ICHRANGEMODE	TOGGLE	F	Ich Auto Range
ICHOFFSETENABLE	TOGGLE	T	Ich Offset Enable
ICHOFFSET	QUANT	0	Ich Offset (V)
ICHFILTER	IQUANT	3	Ich Filter
VCHRANGE	IQUANT	2	Vch Range
VCHRANGEMODE	TOGGLE	F	Vch Auto Range
VCHOFFSETENABLE	TOGGLE	T	Vch Offset Enable
VCHOFFSET	QUANT	0	Vch Offset (V)
VCHFILTER	IQUANT	3	Vch Filter
ACHRANGE	IQUANT	2	Ach Range
ACHOFFSETENABLE	TOGGLE	F	Ach Offset Enable
ACHOFFSET	QUANT	0	Ach Offset (V)
ACHFILTER	IQUANT	3	Ach Filter
IERANGELOWERLIMIT	IQUANT	2	I/E Range Lower Limit
IERANGEMODE	TOGGLE	F	I/E AutoRange
IERANGE	IQUANT	11	I/E Range
POSFEEDENABLE	TOGGLE	F	Positive Feedback IR Comp
POSFEEDRESISTANCE	QUANT	0	Positive Feedback Resistance (ohm)
ACHSELECT	IQUANT	0	Ach Select
CABLEID	IQUANT	13	Cable ID
DCCALDATE	LABEL	7/31/2020	DC Calibration Date
ACCALDATE	LABEL	7/31/2020	AC Calibration Date
THERMOSELECT	IQUANT	1	Thermo Select
FRAMEWORKVERSION	QUANT	6.33	Framework Version
INSTRUMENTVERSION	LABEL	3.50	Instrument Version
COMPLIANCEVOLTAGE	IQUANT	0	Compliance Voltage
ZCURVE	TABLE
	Pt	Time	Freq	Zreal	Zimag	Zsig	Zmod	Zphz	Idc	Vdc	IERange
	#	s	Hz	ohm	ohm	V	ohm	°	A	V	#
	0	7	300046.9	54.75938	-1.66112	1	54.78456	-1.737529	-6.067922E-005	0.0013783	9
	1	10	238359.4	54.84959	-2.858955	1	54.92405	-2.983759	-3.760183E-006	0.0003532	9
	2	13	189328.1	55.09167	-3.987894	1	55.23582	-4.140221	7.545912E-006	-0.0008753	9
	3	16	150421.9	55.40894	-5.289911	1	55.66088	-5.453519	-4.743131E-007	-0.0003806	9
	4	18	119484.4	55.89256	-6.640861	1	56.28569	-6.775819	-1.018224E-005	-0.0006876	9
	5	21	94921.88	56.56275	-8.030721	1	57.13	-8.080787	-1.534278E-005	0.0006091	9
	6	23	75421.88	57.29037	-9.84848	1	58.13071	-9.75407	1.202233E-005	-2.369659E-005	9
	7	26	59859.37	58.19501	-11.88494	1	59.39622	-11.54256	-1.631953E-005	0.0005664	9
	8	28	47578.12	59.31729	-14.14136	1	60.97966	-13.40913	-8.675273E-006	0.0006714	9
	9	31	37828.12	60.65259	-16.66464	1	62.9003	-15.36324	-1.69207E-005	0.0004255	9
	10	33	30046.88	62.15564	-19.4887	1	65.13934	-17.40864	2.13137E-005	-0.00051	9
	11	36	23859.38	63.85809	-22.71583	1	67.77805	-19.58167	1.956958E-005	-0.000182	9
	12	38	18984.38	65.65711	-26.41576	1	70.77181	-21.91636	9.957001E-006	-0.0005311	9
	13	40	15046.87	67.63108	-30.8607	1	74.33939	-24.52766	-1.29013E-005	0.0007207	9
	14	43	11953.13	69.70045	-36.17119	1	78.52711	-27.42715	-1.390223E-005	0.0006525	9
	15	45	9515.62	71.80148	-42.45808	1	83.41547	-30.59693	1.743671E-005	-0.0004434	9
	16	47	7546.875	73.95639	-50.28842	1	89.43418	-34.21468	3.522839E-006	0.0003053	9
	17	50	5928.309	76.0767	-60.39408	1	97.1345	-38.44458	1.00666E-005	-0.0004949	9
	18	52	4733.456	77.91469	-72.3114	1	106.2998	-42.86391	-1.64978E-005	0.0004644	9
	19	54	3796.875	79.91261	-86.76346	1	117.9573	-47.35369	-1.457788E-005	0.0004076	9
	20	57	2987.132	81.83189	-107.0223	1	134.7228	-52.59759	1.897236E-005	-0.0005619	9
	21	59	2390.625	83.9158	-130.5707	1	155.2114	-57.27177	2.331154E-005	-0.0003578	9
	22	61	1884.191	86.9466	-162.4981	1	184.2969	-61.85044	1.010566E-005	-0.0004937	9
	23	64	1516.544	89.25317	-198.6574	1	217.7863	-65.80648	4.08248E-006	-0.0003576	9
	24	66	1193.986	93.46618	-249.319	1	266.2628	-69.44969	-1.277428E-005	0.0002063	9
	25	68	946.5144	97.6244	-311.0749	1	326.0339	-72.57662	2.117307E-005	-0.0004978	9
	26	71	751.7689	104.5786	-387.2946	1	401.1655	-74.88918	1.784186E-005	-0.0001631	9
	27	73	597.4265	113.6761	-479.6129	1	492.9004	-76.66602	1.976376E-006	0.0008112	8
	28	75	477.4305	126.2392	-593.8574	1	607.1268	-77.99899	3.219579E-007	0.0006394	8
	29	78	376.6741	144.0657	-744.088	1	757.9062	-79.04233	3.253433E-007	0.0006355	8
	30	80	298.2954	168.4524	-928.3698	1	943.5289	-79.71559	3.291807E-007	0.0006453	8
	31	82	237.7717	201.2544	-1149.833	1	1167.313	-80.07213	3.371661E-007	0.0006364	8
	32	85	189.0121	247.0731	-1426.265	1	1447.507	-80.17213	3.35863E-007	0.0006358	8
	33	87	150.2404	310.57	-1766.099	1	1793.198	-80.02646	3.287996E-007	0.0006371	8
	34	90	119.1737	399.5574	-2187.63	1	2223.819	-79.64936	3.285872E-007	0.0006443	8
	35	92	95.0169	520.4051	-2689.76	1	2739.64	-79.04991	3.423097E-007	0.0006429	8
	36	95	75.60484	688.4211	-3305.703	1	3376.625	-78.23615	3.497769E-007	0.0006359	8
	37	97	54.50582	1046.065	-4413.58	1	4535.85	-76.66633	3.537782E-007	0.0006347	8
	38	100	45.95588	1310.901	-5124.72	1	5289.728	-75.65145	2.556131E-008	0.0006437	7
	39	102	37.20238	1732.906	-6123.325	1	6363.81	-74.19844	2.876547E-008	0.0006139	7
	40	104	30.04808	2301.1	-7289.722	1	7644.286	-72.48099	2.113273E-008	0.0006095	7
	41	107	23.91582	3099.862	-8703.606	1	9239.15	-70.39622	2.334723E-008	0.0006084	7
	42	109	18.60119	4264.516	-10484.41	1	11318.52	-67.86604	2.589354E-008	0.0006251	7
	43	111	15.02404	5565.271	-12145.65	1	13359.98	-65.38222	2.83272E-008	0.0006201	7
	44	114	12.01923	7265.133	-13995.21	1	15768.58	-62.56546	6.551665E-009	0.000609	7
	45	116	9.450605	9547.62	-15998.26	1	18630.66	-59.17161	1.074843E-008	0.000625	7
	46	119	7.512019	12211.74	-17846.45	1	21624.57	-55.61745	9.507498E-009	0.0006138	7
	47	121	5.978954	15302.44	-19333.2	1	24656.38	-51.63799	5.943837E-009	0.0006271	7
	48	124	4.734848	18815.9	-19969.75	1	27437.74	-46.70401	1.095132E-008	0.0006418	7
	49	129	3.75601	22361.61	-20190.41	1	30127.96	-42.07904	2.945159E-009	0.0006151	7
	50	135	3.004808	25648.89	-20029.74	1	32543.15	-37.987	-3.98845E-009	0.0006541	7
	51	141	2.372217	28896.9	-19355.52	1	34780.27	-33.81469	3.27404E-010	0.0006768	7
	52	149	1.878005	31623.82	-18088.33	1	36431.49	-29.76888	-8.409589E-009	0.0005892	7
	53	158	1.512097	33956.48	-17149.86	1	38041.56	-26.79625	-4.528748E-008	0.0007632	6
	54	168	1.201923	35964.85	-15888.63	1	39318.18	-23.83499	-4.660437E-008	0.0006382	6
	55	181	0.956633	38149.64	-14931.4	1	40967.57	-21.37489	-7.921125E-008	2.877508E-005	6
