EXPLAIN
TAG	EISPOT
TITLE	LABEL	Potentiostatic EIS	Test Identifier
DATE	LABEL	8/21/2020	Date
TIME	LABEL	16:35:26	Time
NOTES	NOTES	1	Notes...
	
PSTAT	PSTAT	REF3000-16137	Potentiostat
VDC	POTEN	0.00000E+000	T	DC Voltage (V)
FREQINIT	QUANT	3.00000E+005	Initial Freq. (Hz)
FREQFINAL	QUANT	1.00000E+000	Final Freq. (Hz)
PTSPERDEC	QUANT	1.00000E+001	Points/decade
VAC	QUANT	5.00000E+001	AC Voltage (mV rms)
AREA	QUANT	1.00000E+000	Sample Area (cm^2)
SPEED	SELECTOR	2	Optimize for:
ZGUESS	QUANT	1.00000E+003	Estimated Z (ohms)
EOC	QUANT	0	Open Circuit (V)
SEQUENCER	TOGGLE	TRUE	Run as Sequence
PSTATMODEL	IQUANT	5	Pstat Model
PSTATSECTION	LABEL	REF3000-16137	Pstat Section
PSTATSERIALNO	LABEL	16137	Pstat Serial Number
CTRLMODE	IQUANT	1	Control Mode
IESTAB	IQUANT	0	I/E Stability
CASPEED	IQUANT	1	Control Amp Speed
CONVENTION	IQUANT	1	Current Convention
ICHRANGE	IQUANT	2	Ich Range
ICHRANGEMODE	TOGGLE	F	Ich Auto Range
ICHOFFSETENABLE	TOGGLE	T	Ich Offset Enable
ICHOFFSET	QUANT	0	Ich Offset (V)
ICHFILTER	IQUANT	3	Ich Filter
VCHRANGE	IQUANT	2	Vch Range
VCHRANGEMODE	TOGGLE	F	Vch Auto Range
VCHOFFSETENABLE	TOGGLE	T	Vch Offset Enable
VCHOFFSET	QUANT	0	Vch Offset (V)
VCHFILTER	IQUANT	3	Vch Filter
ACHRANGE	IQUANT	2	Ach Range
ACHOFFSETENABLE	TOGGLE	F	Ach Offset Enable
ACHOFFSET	QUANT	0	Ach Offset (V)
ACHFILTER	IQUANT	3	Ach Filter
IERANGELOWERLIMIT	IQUANT	2	I/E Range Lower Limit
IERANGEMODE	TOGGLE	F	I/E AutoRange
IERANGE	IQUANT	11	I/E Range
POSFEEDENABLE	TOGGLE	F	Positive Feedback IR Comp
POSFEEDRESISTANCE	QUANT	0	Positive Feedback Resistance (ohm)
ACHSELECT	IQUANT	0	Ach Select
CABLEID	IQUANT	13	Cable ID
DCCALDATE	LABEL	7/31/2020	DC Calibration Date
ACCALDATE	LABEL	7/31/2020	AC Calibration Date
THERMOSELECT	IQUANT	1	Thermo Select
FRAMEWORKVERSION	QUANT	6.33	Framework Version
INSTRUMENTVERSION	LABEL	3.50	Instrument Version
COMPLIANCEVOLTAGE	IQUANT	0	Compliance Voltage
ZCURVE	TABLE
	Pt	Time	Freq	Zreal	Zimag	Zsig	Zmod	Zphz	Idc	Vdc	IERange
	#	s	Hz	ohm	ohm	V	ohm	°	A	V	#
	0	15	300046.9	1812.142	-830.4642	1	1993.372	-24.62093	7.693216E-005	-0.0018094	9
	1	32	238359.4	1997.129	-714.1776	1	2120.984	-19.67716	8.28565E-005	-0.0035684	9
	2	45	189328.1	2080.413	-663.6702	1	2183.707	-17.69314	7.723974E-005	-0.0015333	9
	3	53	150421.9	2172.739	-568.6893	1	2245.93	-14.66748	-2.907063E-005	-0.0009908	9
	4	61	119484.4	2291.06	-417.4913	1	2328.788	-10.32748	6.963644E-005	-0.0210778	8
	5	68	94921.88	2337.56	-349.1313	1	2363.488	-8.49474	1.890391E-005	-0.0083232	8
	6	74	75421.88	2386.552	-347.1298	1	2411.665	-8.275776	1.902388E-005	-0.00095	9
	7	79	59859.37	2423.455	-303.1231	1	2442.339	-7.129466	2.018932E-005	2.303686E-005	9
	8	84	47578.12	2465.462	-263.8709	1	2479.542	-6.108939	2.894326E-005	-0.0008886	9
	9	89	37828.12	2499.043	-200.0805	1	2507.04	-4.5775	-1.758225E-005	0.0102208	8
	10	95	30046.88	2537.109	-208.9909	1	2545.702	-4.709031	-1.524802E-005	1.659061E-005	9
	11	103	23859.38	2569.764	-186.5212	1	2576.524	-4.15142	2.34768E-005	-0.0048041	8
	12	108	18984.38	2615.576	-192.849	1	2622.676	-4.216845	2.897952E-005	-0.0008418	9
	13	113	15046.87	2640.006	-194.594	1	2647.168	-4.21563	-1.993879E-005	0.0002903	9
	14	118	11953.13	2691.819	-198.094	1	2699.098	-4.208875	2.524439E-005	-0.0009721	9
	15	124	9515.62	2715.429	-206.0761	1	2723.237	-4.339905	2.447401E-005	-0.0066809	8
	16	129	7546.875	2751.431	-234.0079	1	2761.364	-4.861281	1.38469E-005	-0.0080973	8
	17	134	5928.309	2800.228	-272.865	1	2813.491	-5.565551	1.613084E-005	6.16682E-005	8
	18	140	4733.456	2858.104	-311.1613	1	2874.993	-6.213311	1.410709E-005	-0.0082051	8
	19	145	3796.875	2899.738	-351.8361	1	2921.004	-6.918096	2.513304E-005	-0.0069333	8
	20	151	2987.132	2974.291	-409.7787	1	3002.386	-7.84446	-1.021727E-005	0.0091539	8
	21	156	2390.625	2990.688	-518.503	1	3035.302	-9.83574	7.577752E-006	0.0037422	8
	22	161	1884.191	3120.994	-565.2031	1	3171.759	-10.26485	-1.018023E-005	0.0091154	8
	23	167	1516.544	3199.516	-668.892	1	3268.688	-11.80821	-1.72961E-005	0.0101736	8
	24	172	1193.986	3289.333	-790.3804	1	3382.959	-13.51122	-2.58482E-005	0.0006824	9
	25	178	946.5144	3402.685	-931.2339	1	3527.813	-15.30571	-9.972049E-006	0.0091145	8
	26	181	751.7689	3507.402	-1065.917	1	3665.794	-16.90429	1.640633E-005	-1.773127E-005	8
	27	185	597.4265	3636.396	-1219.403	1	3835.403	-18.53799	-2.37926E-005	0.0088709	8
	28	189	477.4305	3749.927	-1436.37	1	4015.609	-20.95881	-3.518927E-007	0.0006151	8
	29	192	376.6741	3904.391	-1678.487	1	4249.893	-23.26274	-8.04398E-008	0.0006462	7
	30	195	298.2954	4054.167	-1962.342	1	4504.115	-25.82841	-8.121333E-008	0.0005998	7
	31	197	237.7717	4210.138	-2289.963	1	4792.619	-28.54249	-7.594788E-008	0.0005638	7
	32	199	189.0121	4375.344	-2687.834	1	5134.987	-31.56298	-8.255105E-008	0.0006391	7
	33	202	150.2404	4545.302	-3170.36	1	5541.747	-34.89588	-7.918877E-008	0.0006523	7
	34	204	119.1737	4718.87	-3768.052	1	6038.704	-38.60762	-7.455671E-008	0.0005713	7
	35	207	95.0169	4887.112	-4496.551	1	6640.997	-42.61664	-7.543025E-008	0.0005676	7
	36	209	75.60484	5056.782	-5415.701	1	7409.511	-46.96291	-7.433304E-008	0.0005639	7
	37	212	54.50582	5295.991	-7158.188	1	8904.335	-53.50409	-8.210479E-008	0.0006401	7
	38	214	45.95588	5441.081	-8322.368	1	9943.2	-56.82375	-8.190278E-008	0.0006244	7
	39	217	37.20238	5629.964	-10068.51	1	11535.66	-60.78758	-7.3242E-008	0.0005869	7
	40	219	30.04808	5848.153	-12250.25	1	13574.59	-64.48063	-8.168731E-008	0.0006488	7
	41	221	23.91582	6127.945	-15139.12	1	16332.32	-67.9631	-8.072684E-008	0.0006484	7
	42	224	18.60119	6503.556	-19168.57	1	20241.79	-71.25883	-7.336407E-008	0.0005702	7
	43	226	15.02404	6913.219	-23443.66	1	24441.73	-73.56992	-8.065473E-008	0.0006535	7
	44	228	12.01923	7446.528	-28967.76	1	29909.56	-75.58354	-7.427073E-008	0.0006228	7
	45	231	9.450605	8197.429	-36388.7	1	37300.6	-77.30467	-7.700136E-008	0.0006204	7
	46	233	7.512019	9165.191	-45294.46	1	46212.44	-78.56084	-9.032343E-009	0.0006453	6
	47	236	5.978954	10387.16	-56185.13	1	57137.22	-79.52577	-8.566587E-009	0.0006122	6
	48	239	4.734848	12031.26	-70068.36	1	71093.78	-80.2569	-8.219377E-009	0.0007034	6
	49	242	3.75601	14238.34	-87190.21	1	88345.14	-80.72534	-9.489968E-009	0.0006926	6
	50	246	3.004808	17037.37	-107490	1	108831.9	-80.99344	-8.170936E-009	0.0006266	6
	51	250	2.372217	21279.61	-134159.9	1	135837	-80.98718	-8.282265E-009	0.0007167	6
	52	254	1.878005	26515.04	-167081.9	1	169172.7	-80.98265	-9.080052E-009	0.0006359	6
	53	258	1.512097	33055.71	-203766.3	1	206430.1	-80.78555	-8.425825E-009	0.0006334	6
	54	264	1.201923	42786.5	-252581.1	1	256179.4	-80.38553	-8.844244E-009	0.0006322	6
	55	270	0.956633	55630.55	-311094.1	1	316028.9	-79.8614	-8.994827E-009	1.100669E-005	6
