EXPLAIN
TAG	EISPOT
TITLE	LABEL	Potentiostatic EIS	Test Identifier
DATE	LABEL	8/21/2020	Date
TIME	LABEL	15:42:30	Time
NOTES	NOTES	1	Notes...
	
PSTAT	PSTAT	REF3000-16137	Potentiostat
VDC	POTEN	0.00000E+000	T	DC Voltage (V)
FREQINIT	QUANT	3.00000E+005	Initial Freq. (Hz)
FREQFINAL	QUANT	1.00000E+000	Final Freq. (Hz)
PTSPERDEC	QUANT	1.00000E+001	Points/decade
VAC	QUANT	5.00000E+001	AC Voltage (mV rms)
AREA	QUANT	1.00000E+000	Sample Area (cm^2)
SPEED	SELECTOR	2	Optimize for:
ZGUESS	QUANT	1.00000E+003	Estimated Z (ohms)
EOC	QUANT	0	Open Circuit (V)
SEQUENCER	TOGGLE	TRUE	Run as Sequence
PSTATMODEL	IQUANT	5	Pstat Model
PSTATSECTION	LABEL	REF3000-16137	Pstat Section
PSTATSERIALNO	LABEL	16137	Pstat Serial Number
CTRLMODE	IQUANT	1	Control Mode
IESTAB	IQUANT	0	I/E Stability
CASPEED	IQUANT	1	Control Amp Speed
CONVENTION	IQUANT	1	Current Convention
ICHRANGE	IQUANT	2	Ich Range
ICHRANGEMODE	TOGGLE	F	Ich Auto Range
ICHOFFSETENABLE	TOGGLE	T	Ich Offset Enable
ICHOFFSET	QUANT	0	Ich Offset (V)
ICHFILTER	IQUANT	3	Ich Filter
VCHRANGE	IQUANT	2	Vch Range
VCHRANGEMODE	TOGGLE	F	Vch Auto Range
VCHOFFSETENABLE	TOGGLE	T	Vch Offset Enable
VCHOFFSET	QUANT	0	Vch Offset (V)
VCHFILTER	IQUANT	3	Vch Filter
ACHRANGE	IQUANT	2	Ach Range
ACHOFFSETENABLE	TOGGLE	F	Ach Offset Enable
ACHOFFSET	QUANT	0	Ach Offset (V)
ACHFILTER	IQUANT	3	Ach Filter
IERANGELOWERLIMIT	IQUANT	2	I/E Range Lower Limit
IERANGEMODE	TOGGLE	F	I/E AutoRange
IERANGE	IQUANT	11	I/E Range
POSFEEDENABLE	TOGGLE	F	Positive Feedback IR Comp
POSFEEDRESISTANCE	QUANT	0	Positive Feedback Resistance (ohm)
ACHSELECT	IQUANT	0	Ach Select
CABLEID	IQUANT	13	Cable ID
DCCALDATE	LABEL	7/31/2020	DC Calibration Date
ACCALDATE	LABEL	7/31/2020	AC Calibration Date
THERMOSELECT	IQUANT	1	Thermo Select
FRAMEWORKVERSION	QUANT	6.33	Framework Version
INSTRUMENTVERSION	LABEL	3.50	Instrument Version
COMPLIANCEVOLTAGE	IQUANT	0	Compliance Voltage
ZCURVE	TABLE
	Pt	Time	Freq	Zreal	Zimag	Zsig	Zmod	Zphz	Idc	Vdc	IERange
	#	s	Hz	ohm	ohm	V	ohm	°	A	V	#
	0	7	300046.9	77.14149	-2.60287	1	77.18539	-1.932512	-1.098837E-005	-0.0013366	9
	1	10	238359.4	77.41124	-3.453459	1	77.48824	-2.554377	-9.398508E-006	-0.0012962	9
	2	13	189328.1	77.94946	-4.86539	1	78.10115	-3.571611	2.932299E-005	9.070125E-006	9
	3	16	150421.9	78.56987	-6.385669	1	78.82893	-4.646431	-1.69787E-005	0.0009938	9
	4	18	119484.4	79.15511	-7.690349	1	79.52781	-5.549181	6.28351E-005	-0.0021232	9
	5	21	94921.88	80.03883	-9.29061	1	80.57623	-6.621051	2.266261E-005	-0.000452	9
	6	23	75421.88	81.00793	-11.40152	1	81.80636	-8.011511	1.09363E-005	5.698943E-005	9
	7	26	59859.37	82.22967	-13.79233	1	83.37833	-9.52155	2.312265E-005	-0.0004011	9
	8	29	47578.12	83.67648	-16.52696	1	85.29298	-11.1727	-1.693331E-005	0.000407	9
	9	31	37828.12	85.45958	-19.57092	1	87.67189	-12.89876	8.53747E-006	0.0002337	9
	10	34	30046.88	87.53514	-22.9229	1	90.48679	-14.67457	1.757306E-005	-0.0001536	9
	11	36	23859.38	89.88961	-26.75986	1	93.78823	-16.57811	1.794518E-005	-0.0001739	9
	12	38	18984.38	92.4522	-31.15104	1	97.5592	-18.62084	-1.914805E-005	0.0005781	9
	13	41	15046.87	95.3008	-36.2405	1	101.9589	-20.82054	2.177432E-005	-0.0006712	9
	14	43	11953.13	98.4102	-42.23779	1	107.0915	-23.22908	-2.174878E-005	0.0008646	9
	15	45	9515.62	101.5929	-49.18819	1	112.8743	-25.83485	1.145414E-005	-0.0005776	9
	16	48	7546.875	104.9954	-57.71246	1	119.8114	-28.79613	5.295975E-006	-0.0004568	9
	17	50	5928.309	108.6677	-68.45696	1	128.4329	-32.20954	-1.519994E-005	0.000767	9
	18	52	4733.456	112.0244	-80.82926	1	138.1406	-35.81168	-1.649639E-005	0.0008044	9
	19	55	3796.875	115.1758	-95.7755	1	149.7945	-39.74554	2.2919E-005	-0.0004347	9
	20	57	2987.132	118.6529	-116.1641	1	166.05	-44.39277	1.812407E-005	-0.0001382	9
	21	59	2390.625	121.7001	-140.1077	1	185.5831	-49.02181	2.287533E-005	-0.0004773	9
	22	62	1884.191	124.8776	-172.5914	1	213.031	-54.11259	-1.662896E-005	0.0003743	9
	23	64	1516.544	128.2375	-210.1082	1	246.151	-58.6026	-1.145829E-005	0.0007565	9
	24	66	1193.986	132.802	-261.6738	1	293.4443	-63.09177	-9.518492E-006	2.488307E-005	9
	25	69	946.5144	136.6508	-325.5207	1	353.0399	-67.22775	-1.169809E-005	0.0007422	9
	26	71	751.7689	143.5632	-404.4259	1	429.1511	-70.45615	1.114722E-005	0.0001571	9
	27	73	597.4265	151.6221	-501.3616	1	523.7869	-73.17361	5.746189E-006	-0.0010975	8
	28	76	477.4305	161.7209	-620.782	1	641.5013	-75.39833	2.770225E-007	0.0006349	8
	29	78	376.6741	176.4829	-778.5783	1	798.3298	-77.22839	2.844874E-007	0.0006376	8
	30	80	298.2954	196.0923	-972.871	1	992.436	-78.60413	2.795232E-007	0.0006428	8
	31	83	237.7717	221.9514	-1207.373	1	1227.604	-79.58361	2.666974E-007	0.0006448	8
	32	85	189.0121	257.0515	-1501.593	1	1523.436	-80.28593	2.915891E-007	0.0006419	8
	33	88	150.2404	304.765	-1865.562	1	1890.292	-80.72191	2.846036E-007	0.000632	8
	34	90	119.1737	370.4874	-2320.364	1	2349.755	-80.92828	2.908949E-007	0.0006351	8
	35	92	95.0169	456.0662	-2868.586	1	2904.614	-80.96635	2.888931E-007	0.0006375	8
	36	95	75.60484	573.5718	-3549.542	1	3595.585	-80.8209	2.829206E-007	0.0006762	8
	37	97	54.50582	821.3926	-4811.908	1	4881.511	-80.31298	3.336539E-008	0.0006055	7
	38	100	45.95588	1000.552	-5627.343	1	5715.601	-79.91806	4.434087E-008	0.0006131	7
	39	102	37.20238	1285.89	-6814.023	1	6934.293	-79.31326	4.179917E-008	0.0006123	7
	40	105	30.04808	1677.549	-8265.176	1	8433.7	-78.52676	3.921677E-008	0.0006122	7
	41	107	23.91582	2232.741	-10110.85	1	10354.44	-77.54744	3.509925E-008	0.0006085	7
	42	109	18.60119	3089.144	-12576.37	1	12950.21	-76.1996	3.589393E-008	0.0006187	7
	43	112	15.02404	4080.177	-15078.86	1	15621.14	-74.85896	4.990486E-008	0.000626	7
	44	114	12.01923	5450.465	-18114.98	1	18917.19	-73.25443	3.242762E-008	0.0006169	7
	45	117	9.450605	7414.473	-21904.55	1	23125.39	-71.29955	4.129839E-008	0.0006278	7
	46	119	7.512019	9884.08	-26056.98	1	27868.64	-69.22697	4.356604E-008	0.0006403	7
	47	122	5.978954	13058.63	-30683.56	1	33346.8	-66.94587	4.434449E-008	0.0006049	7
	48	125	4.734848	17178.63	-35834.71	1	39739.55	-64.38763	4.519575E-008	0.0006382	7
	49	128	3.75601	22297.64	-41354.5	1	46982.76	-61.66721	1.159957E-008	0.0006453	6
	50	131	3.004808	28254.91	-46863.59	1	54722.36	-58.91346	8.084982E-009	0.0007136	6
	51	135	2.372217	35877.39	-52656.87	1	63717.61	-55.73171	1.126737E-008	0.0007351	6
	52	139	1.878005	44759.86	-57814.41	1	73116.02	-52.253	8.512826E-009	0.0006264	6
	53	144	1.512097	54146.96	-61480.23	1	81925.04	-48.62893	7.641503E-009	0.0007405	6
	54	155	1.201923	64924.39	-64720.87	1	91673.15	-44.91006	6.723972E-009	0.0006216	6
	55	168	0.956633	76448.46	-67568.67	1	102028.9	-41.47173	-1.468796E-009	1.850037E-005	6
