EXPLAIN
TAG	EISPOT
TITLE	LABEL	Potentiostatic EIS	Test Identifier
DATE	LABEL	8/21/2020	Date
TIME	LABEL	16:27:18	Time
NOTES	NOTES	1	Notes...
	
PSTAT	PSTAT	REF3000-16137	Potentiostat
VDC	POTEN	0.00000E+000	T	DC Voltage (V)
FREQINIT	QUANT	3.00000E+005	Initial Freq. (Hz)
FREQFINAL	QUANT	1.00000E+000	Final Freq. (Hz)
PTSPERDEC	QUANT	1.00000E+001	Points/decade
VAC	QUANT	5.00000E+001	AC Voltage (mV rms)
AREA	QUANT	1.00000E+000	Sample Area (cm^2)
SPEED	SELECTOR	2	Optimize for:
ZGUESS	QUANT	1.00000E+003	Estimated Z (ohms)
EOC	QUANT	0	Open Circuit (V)
SEQUENCER	TOGGLE	TRUE	Run as Sequence
PSTATMODEL	IQUANT	5	Pstat Model
PSTATSECTION	LABEL	REF3000-16137	Pstat Section
PSTATSERIALNO	LABEL	16137	Pstat Serial Number
CTRLMODE	IQUANT	1	Control Mode
IESTAB	IQUANT	0	I/E Stability
CASPEED	IQUANT	1	Control Amp Speed
CONVENTION	IQUANT	1	Current Convention
ICHRANGE	IQUANT	2	Ich Range
ICHRANGEMODE	TOGGLE	F	Ich Auto Range
ICHOFFSETENABLE	TOGGLE	T	Ich Offset Enable
ICHOFFSET	QUANT	0	Ich Offset (V)
ICHFILTER	IQUANT	3	Ich Filter
VCHRANGE	IQUANT	2	Vch Range
VCHRANGEMODE	TOGGLE	F	Vch Auto Range
VCHOFFSETENABLE	TOGGLE	T	Vch Offset Enable
VCHOFFSET	QUANT	0	Vch Offset (V)
VCHFILTER	IQUANT	3	Vch Filter
ACHRANGE	IQUANT	2	Ach Range
ACHOFFSETENABLE	TOGGLE	F	Ach Offset Enable
ACHOFFSET	QUANT	0	Ach Offset (V)
ACHFILTER	IQUANT	3	Ach Filter
IERANGELOWERLIMIT	IQUANT	2	I/E Range Lower Limit
IERANGEMODE	TOGGLE	F	I/E AutoRange
IERANGE	IQUANT	11	I/E Range
POSFEEDENABLE	TOGGLE	F	Positive Feedback IR Comp
POSFEEDRESISTANCE	QUANT	0	Positive Feedback Resistance (ohm)
ACHSELECT	IQUANT	0	Ach Select
CABLEID	IQUANT	13	Cable ID
DCCALDATE	LABEL	7/31/2020	DC Calibration Date
ACCALDATE	LABEL	7/31/2020	AC Calibration Date
THERMOSELECT	IQUANT	1	Thermo Select
FRAMEWORKVERSION	QUANT	6.33	Framework Version
INSTRUMENTVERSION	LABEL	3.50	Instrument Version
COMPLIANCEVOLTAGE	IQUANT	0	Compliance Voltage
ZCURVE	TABLE
	Pt	Time	Freq	Zreal	Zimag	Zsig	Zmod	Zphz	Idc	Vdc	IERange
	#	s	Hz	ohm	ohm	V	ohm	°	A	V	#
	0	16	300046.9	953.045	-194.7208	1	972.734	-11.54742	4.987796E-005	-7.089544E-005	9
	1	34	238359.4	1002.367	-184.8073	1	1019.262	-10.44635	-0.0001054	0.00371	9
	2	55	189328.1	1027.634	-146.4792	1	1038.021	-8.112312	-2.737488E-005	-0.0009898	9
	3	65	150421.9	1048.278	-121.2223	1	1055.263	-6.596355	-8.773415E-005	0.0040737	9
	4	75	119484.4	1070.797	-80.80881	1	1073.842	-4.315703	-8.084816E-006	0.0117781	8
	5	81	94921.88	1082.162	-68.90959	1	1084.354	-3.643543	-1.356707E-005	0.0013835	8
	6	84	75421.88	1089.357	-63.46343	1	1091.204	-3.334152	-1.785838E-005	0.0085123	8
	7	86	59859.37	1092.283	-62.94597	1	1094.095	-3.298187	7.95775E-006	0.0027568	8
	8	89	47578.12	1099.386	-62.16158	1	1101.142	-3.236178	1.496521E-005	-0.0003371	8
	9	91	37828.12	1108.268	-63.83985	1	1110.105	-3.29678	-8.941617E-006	0.0079285	8
	10	95	30046.88	1115.107	-69.35522	1	1117.261	-3.558986	2.022349E-005	-0.0071327	8
	11	97	23859.38	1125.211	-77.98344	1	1127.91	-3.964581	2.087729E-005	-0.0042688	8
	12	100	18984.38	1134.119	-84.21992	1	1137.242	-4.247002	-1.680501E-005	0.0028553	8
	13	103	15046.87	1145.224	-97.3305	1	1149.352	-4.857789	1.450459E-005	-0.0001447	8
	14	107	11953.13	1159.504	-113.576	1	1165.053	-5.594403	5.21583E-006	-0.0056134	8
	15	110	9515.62	1172.246	-131.2477	1	1179.571	-6.388381	2.031945E-005	-0.0040897	8
	16	113	7546.875	1183.818	-152.2335	1	1193.566	-7.327755	-1.905155E-005	0.0048615	8
	17	115	5928.309	1207.024	-183.8799	1	1220.95	-8.661931	-1.674579E-005	0.0028758	8
	18	119	4733.456	1229.42	-216.9753	1	1248.42	-10.00883	-5.344219E-007	0.005819	8
	19	123	3796.875	1254.979	-251.7588	1	1279.982	-11.34342	1.693138E-005	-0.007301	8
	20	126	2987.132	1289.586	-298.8505	1	1323.761	-13.04749	-1.908681E-005	0.0047024	8
	21	129	2390.625	1322.683	-348.5933	1	1367.848	-14.76458	1.214228E-005	-0.0069383	8
	22	132	1884.191	1366.252	-404.8971	1	1424.986	-16.50751	5.108232E-006	-0.0055946	8
	23	137	1516.544	1405.581	-466.952	1	1481.115	-18.37715	-8.194546E-006	0.0078407	8
	24	141	1193.986	1456.736	-550.1617	1	1557.163	-20.68992	-1.926191E-005	0.0047439	8
	25	145	946.5144	1525.768	-639.0374	1	1654.188	-22.7254	1.455425E-005	-5.50502E-005	8
	26	148	751.7689	1576.359	-739.4202	1	1741.163	-25.12979	1.993595E-005	-0.0070102	8
	27	151	597.4265	1621.803	-874.0966	1	1842.36	-28.32316	7.479664E-006	0.0030795	8
	28	153	477.4305	1690.621	-1022.244	1	1975.647	-31.1595	-2.516577E-007	0.0006247	8
	29	155	376.6741	1755.835	-1211.863	1	2133.44	-34.61313	-2.78548E-007	0.0006452	8
	30	158	298.2954	1819.981	-1442.517	1	2322.323	-38.40034	-2.913337E-007	0.0006478	8
	31	160	237.7717	1881.513	-1721.683	1	2550.35	-42.46014	-2.911551E-007	0.0006471	8
	32	163	189.0121	1942.844	-2076.41	1	2843.611	-46.90332	-2.721041E-007	0.0006321	8
	33	165	150.2404	2003.88	-2522.63	1	3221.676	-51.53773	-2.795915E-007	0.0006284	8
	34	167	119.1737	2068.405	-3092.998	1	3720.878	-56.22786	-2.937782E-007	0.000647	8
	35	170	95.0169	2143.102	-3802.379	1	4364.742	-60.59346	-5.655985E-008	0.0005782	7
	36	172	75.60484	2223.735	-4693.586	1	5193.722	-64.64926	-5.956208E-008	0.0006433	7
	37	175	54.50582	2364.436	-6374.913	1	6799.27	-69.65034	-6.000737E-008	0.0005983	7
	38	177	45.95588	2461.795	-7489.803	1	7884.008	-71.80502	-6.097395E-008	0.0006324	7
	39	180	37.20238	2605.018	-9152.173	1	9515.69	-74.11185	-6.290872E-008	0.0006431	7
	40	182	30.04808	2788.327	-11216.37	1	11557.76	-76.03958	-5.545911E-008	0.0006081	7
	41	185	23.91582	3040.047	-13939.39	1	14267.04	-77.69699	-5.668845E-008	0.0005773	7
	42	187	18.60119	3411.946	-17718.16	1	18043.68	-79.10011	-5.710956E-008	0.0005753	7
	43	189	15.02404	3816.742	-21706.8	1	22039.8	-80.02753	-5.970733E-008	0.0006578	7
	44	192	12.01923	4391.215	-26848.18	1	27204.92	-80.71111	-6.103812E-008	0.0006312	7
	45	194	9.450605	5203.958	-33743.46	1	34142.38	-81.23284	-5.855859E-008	0.000586	7
	46	197	7.512019	6293.984	-41920.65	1	42390.51	-81.46136	-5.940652E-008	0.0006566	7
	47	199	5.978954	7711.22	-51953.18	1	52522.34	-81.55743	-5.078159E-009	0.0006213	6
	48	202	4.734848	9712.5	-64714.52	1	65439.3	-81.46463	-6.020913E-009	0.0006547	6
	49	206	3.75601	12363.74	-80294.5	1	81240.8	-81.24635	-5.612315E-009	0.0006606	6
	50	209	3.004808	15823.52	-98670.4	1	99931.1	-80.88919	-7.167339E-009	0.0007186	6
	51	213	2.372217	20858.31	-122363.4	1	124128.5	-80.32623	-6.747352E-009	0.0006968	6
	52	217	1.878005	27818.66	-151569.3	1	154101.1	-79.59982	-5.9376E-009	0.0006343	6
	53	222	1.512097	35990.09	-183923.3	1	187411.5	-78.92827	-6.685322E-009	0.0007713	6
	54	227	1.201923	48188.12	-225281.2	1	230377.4	-77.92626	-6.07612E-009	0.0006418	6
	55	233	0.956633	63641.18	-274225.3	1	281513.3	-76.9343	-7.247484E-009	6.72561E-006	6
