EXPLAIN
TAG	EISPOT
TITLE	LABEL	Potentiostatic EIS	Test Identifier
DATE	LABEL	8/21/2020	Date
TIME	LABEL	15:23:30	Time
NOTES	NOTES	1	Notes...
	
PSTAT	PSTAT	REF3000-16137	Potentiostat
VDC	POTEN	0.00000E+000	T	DC Voltage (V)
FREQINIT	QUANT	3.00000E+005	Initial Freq. (Hz)
FREQFINAL	QUANT	1.00000E+000	Final Freq. (Hz)
PTSPERDEC	QUANT	1.00000E+001	Points/decade
VAC	QUANT	5.00000E+001	AC Voltage (mV rms)
AREA	QUANT	1.00000E+000	Sample Area (cm^2)
SPEED	SELECTOR	2	Optimize for:
ZGUESS	QUANT	1.00000E+003	Estimated Z (ohms)
EOC	QUANT	0	Open Circuit (V)
SEQUENCER	TOGGLE	TRUE	Run as Sequence
PSTATMODEL	IQUANT	5	Pstat Model
PSTATSECTION	LABEL	REF3000-16137	Pstat Section
PSTATSERIALNO	LABEL	16137	Pstat Serial Number
CTRLMODE	IQUANT	1	Control Mode
IESTAB	IQUANT	0	I/E Stability
CASPEED	IQUANT	1	Control Amp Speed
CONVENTION	IQUANT	1	Current Convention
ICHRANGE	IQUANT	2	Ich Range
ICHRANGEMODE	TOGGLE	F	Ich Auto Range
ICHOFFSETENABLE	TOGGLE	T	Ich Offset Enable
ICHOFFSET	QUANT	0	Ich Offset (V)
ICHFILTER	IQUANT	3	Ich Filter
VCHRANGE	IQUANT	2	Vch Range
VCHRANGEMODE	TOGGLE	F	Vch Auto Range
VCHOFFSETENABLE	TOGGLE	T	Vch Offset Enable
VCHOFFSET	QUANT	0	Vch Offset (V)
VCHFILTER	IQUANT	3	Vch Filter
ACHRANGE	IQUANT	2	Ach Range
ACHOFFSETENABLE	TOGGLE	F	Ach Offset Enable
ACHOFFSET	QUANT	0	Ach Offset (V)
ACHFILTER	IQUANT	0	Ach Filter
IERANGELOWERLIMIT	IQUANT	2	I/E Range Lower Limit
IERANGEMODE	TOGGLE	F	I/E AutoRange
IERANGE	IQUANT	11	I/E Range
POSFEEDENABLE	TOGGLE	F	Positive Feedback IR Comp
POSFEEDRESISTANCE	QUANT	0	Positive Feedback Resistance (ohm)
ACHSELECT	IQUANT	0	Ach Select
CABLEID	IQUANT	13	Cable ID
DCCALDATE	LABEL	7/31/2020	DC Calibration Date
ACCALDATE	LABEL	7/31/2020	AC Calibration Date
THERMOSELECT	IQUANT	1	Thermo Select
FRAMEWORKVERSION	QUANT	6.33	Framework Version
INSTRUMENTVERSION	LABEL	3.50	Instrument Version
COMPLIANCEVOLTAGE	IQUANT	0	Compliance Voltage
ZCURVE	TABLE
	Pt	Time	Freq	Zreal	Zimag	Zsig	Zmod	Zphz	Idc	Vdc	IERange
	#	s	Hz	ohm	ohm	V	ohm	°	A	V	#
	0	6	300046.9	49.96906	-1.738247	1	49.99928	-1.992315	-1.241267E-005	-0.0011039	9
	1	10	238359.4	50.23173	-2.718903	1	50.30526	-3.098237	5.363558E-005	-0.0021047	9
	2	13	189328.1	50.50545	-3.918869	1	50.65726	-4.436861	4.139951E-005	-0.0007498	9
	3	15	150421.9	50.83288	-5.152049	1	51.0933	-5.787318	-5.983358E-005	0.0015285	9
	4	18	119484.4	51.39724	-6.559254	1	51.81409	-7.272706	1.592859E-005	-0.0004122	9
	5	20	94921.88	52.15239	-7.870218	1	52.74289	-8.581643	-2.184612E-006	-0.0002169	9
	6	23	75421.88	52.95721	-9.55811	1	53.81285	-10.23102	-2.051339E-006	-0.0002062	9
	7	25	59859.37	53.94421	-11.51751	1	55.16005	-12.05213	1.984915E-005	-0.0003427	9
	8	28	47578.12	55.094	-13.6394	1	56.75722	-13.90491	-1.379724E-005	0.0003696	9
	9	30	37828.12	56.46585	-16.04249	1	58.70054	-15.86036	1.619205E-005	-0.0001868	9
	10	33	30046.88	57.99165	-18.75225	1	60.94816	-17.91919	-1.221276E-005	0.0001532	9
	11	35	23859.38	59.64492	-21.84205	1	63.51844	-20.1128	1.723899E-005	-0.0001314	9
	12	38	18984.38	61.44995	-25.36305	1	66.47842	-22.42806	8.927008E-006	-0.0004667	9
	13	40	15046.87	63.39693	-29.65797	1	69.99118	-25.07085	4.401129E-006	0.0003324	9
	14	42	11953.13	65.41947	-34.68378	1	74.04507	-27.93142	-2.88992E-006	-0.0001389	9
	15	45	9515.62	67.45625	-40.78975	1	78.82987	-31.1607	1.527352E-005	-0.0005597	9
	16	47	7546.875	69.52765	-48.32067	1	84.66984	-34.79872	-1.226627E-005	0.0006813	9
	17	49	5928.309	71.65477	-58.08863	1	92.24259	-39.03077	1.447335E-005	-0.0005415	9
	18	51	4733.456	73.49777	-69.59455	1	101.2192	-43.43749	1.84492E-005	-0.0005521	9
	19	54	3796.875	75.36615	-83.74679	1	112.6658	-48.01504	2.058286E-005	-0.000365	9
	20	56	2987.132	77.51305	-103.0823	1	128.9738	-53.05856	3.73993E-006	-0.0003305	9
	21	58	2390.625	79.59428	-125.968	1	149.0074	-57.71281	1.094192E-005	0.0001028	9
	22	61	1884.191	82.25053	-156.5873	1	176.8749	-62.28843	3.812502E-006	-0.0003416	9
	23	63	1516.544	85.51099	-191.7524	1	209.955	-65.96577	-1.581661E-005	0.0006447	9
	24	65	1193.986	89.80868	-240.1476	1	256.3912	-69.49557	2.021305E-005	-0.0003967	9
	25	68	946.5144	94.43982	-299.3865	1	313.9286	-72.49241	-2.959118E-006	0.000467	9
	26	70	751.7689	102.7561	-371.5307	1	385.4788	-74.53988	1.003472E-005	-0.0004854	9
	27	72	597.4265	112.4117	-460.0721	1	473.6061	-76.26965	-2.60792E-006	0.0010192	8
	28	75	477.4305	125.351	-568.9854	1	582.6296	-77.57585	3.309853E-007	0.0006288	8
	29	77	376.6741	143.9646	-711.4672	1	725.8867	-78.56072	3.259944E-007	0.0006325	8
	30	79	298.2954	168.8585	-885.7018	1	901.6545	-79.20612	3.311334E-007	0.0006371	8
	31	82	237.7717	201.5227	-1094.446	1	1112.844	-79.56686	3.361394E-007	0.0006339	8
	32	84	189.0121	246.1115	-1354.387	1	1376.566	-79.70091	3.29506E-007	0.0006373	8
	33	87	150.2404	306.3336	-1673.26	1	1701.071	-79.62541	3.477431E-007	0.0006331	8
	34	89	119.1737	388.1494	-2068.402	1	2104.506	-79.37167	3.320149E-007	0.0006396	8
	35	91	95.0169	496.8389	-2539.855	1	2587.994	-78.93174	3.33421E-007	0.0006347	8
	36	94	75.60484	645.5499	-3118.139	1	3184.262	-78.30327	3.49234E-007	0.0006349	8
	37	96	54.50582	953.596	-4162.24	1	4270.08	-77.09587	3.463521E-007	0.0006325	8
	38	99	45.95588	1177.866	-4836.445	1	4977.808	-76.31266	3.794543E-008	0.0006096	7
	39	101	37.20238	1532.937	-5794.276	1	5993.624	-75.1813	3.437993E-008	0.0006098	7
	40	104	30.04808	2002.346	-6914.222	1	7198.323	-73.84908	2.650208E-008	0.0006099	7
	41	106	23.91582	2664.542	-8311.653	1	8728.309	-72.22523	2.018926E-008	0.0006049	7
	42	108	18.60119	3650.368	-10111.36	1	10750.1	-70.14957	3.439775E-008	0.0005948	7
	43	111	15.02404	4745.641	-11825.72	1	12742.4	-68.13449	3.665173E-008	0.0006031	7
	44	113	12.01923	6213.869	-13776.95	1	15113.46	-65.72302	2.098449E-008	0.0006035	7
	45	115	9.450605	8206.623	-16001.76	1	17983.46	-62.84864	2.442571E-008	0.000616	7
	46	118	7.512019	10593.4	-18235.01	1	21088.76	-59.8461	1.485079E-008	0.0006056	7
	47	121	5.978954	13573.62	-19761.99	1	23974.56	-55.51658	1.835229E-009	0.0006104	7
	48	125	4.734848	17056.6	-20971.85	1	27032.32	-50.87823	-1.022949E-009	0.0006349	7
	49	130	3.75601	20770.92	-21854.52	1	30150.47	-46.45623	-8.673149E-009	0.0006156	7
	50	135	3.004808	24352.48	-22152.08	1	32920.48	-42.29102	-2.081096E-008	0.0006449	7
	51	142	2.372217	27964.9	-21475.37	1	35259.42	-37.5221	-2.148949E-008	0.0006865	7
	52	149	1.878005	30751.22	-19646.12	1	36491.2	-32.57341	-7.05052E-008	0.0006392	6
	53	158	1.512097	32735.77	-17954.08	1	37336.04	-28.74276	-7.361168E-008	0.000748	6
	54	169	1.201923	33826.19	-15594.27	1	37247.72	-24.75026	-7.740253E-008	0.0006312	6
	55	182	0.956633	35183.72	-13883.22	1	37823.78	-21.5338	-1.196376E-007	2.656824E-005	6
