EXPLAIN
TAG	EISPOT
TITLE	LABEL	Potentiostatic EIS	Test Identifier
DATE	LABEL	8/21/2020	Date
TIME	LABEL	17:53:16	Time
NOTES	NOTES	1	Notes...
	
PSTAT	PSTAT	REF3000-16137	Potentiostat
VDC	POTEN	0.00000E+000	T	DC Voltage (V)
FREQINIT	QUANT	3.00000E+005	Initial Freq. (Hz)
FREQFINAL	QUANT	1.00000E+000	Final Freq. (Hz)
PTSPERDEC	QUANT	1.00000E+001	Points/decade
VAC	QUANT	5.00000E+001	AC Voltage (mV rms)
AREA	QUANT	1.00000E+000	Sample Area (cm^2)
SPEED	SELECTOR	2	Optimize for:
ZGUESS	QUANT	1.00000E+003	Estimated Z (ohms)
EOC	QUANT	0	Open Circuit (V)
SEQUENCER	TOGGLE	TRUE	Run as Sequence
PSTATMODEL	IQUANT	5	Pstat Model
PSTATSECTION	LABEL	REF3000-16137	Pstat Section
PSTATSERIALNO	LABEL	16137	Pstat Serial Number
CTRLMODE	IQUANT	1	Control Mode
IESTAB	IQUANT	0	I/E Stability
CASPEED	IQUANT	1	Control Amp Speed
CONVENTION	IQUANT	1	Current Convention
ICHRANGE	IQUANT	2	Ich Range
ICHRANGEMODE	TOGGLE	F	Ich Auto Range
ICHOFFSETENABLE	TOGGLE	T	Ich Offset Enable
ICHOFFSET	QUANT	0	Ich Offset (V)
ICHFILTER	IQUANT	3	Ich Filter
VCHRANGE	IQUANT	2	Vch Range
VCHRANGEMODE	TOGGLE	F	Vch Auto Range
VCHOFFSETENABLE	TOGGLE	T	Vch Offset Enable
VCHOFFSET	QUANT	0	Vch Offset (V)
VCHFILTER	IQUANT	3	Vch Filter
ACHRANGE	IQUANT	2	Ach Range
ACHOFFSETENABLE	TOGGLE	F	Ach Offset Enable
ACHOFFSET	QUANT	0	Ach Offset (V)
ACHFILTER	IQUANT	3	Ach Filter
IERANGELOWERLIMIT	IQUANT	2	I/E Range Lower Limit
IERANGEMODE	TOGGLE	F	I/E AutoRange
IERANGE	IQUANT	11	I/E Range
POSFEEDENABLE	TOGGLE	F	Positive Feedback IR Comp
POSFEEDRESISTANCE	QUANT	0	Positive Feedback Resistance (ohm)
ACHSELECT	IQUANT	0	Ach Select
CABLEID	IQUANT	13	Cable ID
DCCALDATE	LABEL	7/31/2020	DC Calibration Date
ACCALDATE	LABEL	7/31/2020	AC Calibration Date
THERMOSELECT	IQUANT	1	Thermo Select
FRAMEWORKVERSION	QUANT	6.33	Framework Version
INSTRUMENTVERSION	LABEL	3.50	Instrument Version
COMPLIANCEVOLTAGE	IQUANT	0	Compliance Voltage
ZCURVE	TABLE
	Pt	Time	Freq	Zreal	Zimag	Zsig	Zmod	Zphz	Idc	Vdc	IERange
	#	s	Hz	ohm	ohm	V	ohm	°	A	V	#
	0	16	300046.9	-108.4682	-4875.07	1	4876.276	-91.2746	1.892883E-005	-0.001032	9
	1	39	238359.4	303.4495	-6014.448	1	6022.098	-87.11168	2.448677E-005	0.0010077	9
	2	53	189328.1	-29.80777	-7385.654	1	7385.714	-90.23124	1.984875E-005	-0.0004197	9
	3	61	150421.9	265.0811	-9149	1	9152.84	-88.34039	1.994527E-005	-0.000295	9
	4	72	119484.4	502.8901	-11419.25	1	11430.32	-87.47839	-4.118952E-005	0.0225802	8
	5	79	94921.88	687.6478	-14741.57	1	14757.6	-87.32927	1.70267E-005	0.0003655	8
	6	88	75421.88	925.9039	-18046.07	1	18069.8	-87.06286	2.234658E-005	-0.0096948	8
	7	97	59859.37	423.6981	-23027.48	1	23031.38	-88.94589	-2.465375E-006	0.0078358	8
	8	105	47578.12	4026.868	-30173.95	1	30441.47	-82.3985	3.587611E-006	-0.0247193	7
	9	112	37828.12	851.1407	-36546.34	1	36556.25	-88.66586	-2.512713E-005	0.0111395	8
	10	120	30046.88	1136.023	-46124.27	1	46138.26	-88.58911	-2.705383E-005	0.0096855	8
	11	129	23859.38	-2455.796	-59413	1	59463.73	-92.36694	-1.162324E-006	-0.0051513	8
	12	135	18984.38	5542.773	-72362.41	1	72574.38	-85.61984	-5.502788E-006	0.0270517	7
	13	141	15046.87	4307.788	-91369.18	1	91470.67	-87.30067	2.727691E-006	0.0087555	7
	14	146	11953.13	4529.398	-112125.3	1	112216.7	-87.68674	-1.027289E-006	-0.0136804	7
	15	152	9515.62	1772.47	-147235	1	147245.6	-89.31029	2.725169E-005	-0.0073434	8
	16	160	7546.875	22031.53	-213489.4	1	214623.1	-84.10809	8.155964E-006	0.0042179	8
	17	169	5928.309	14471.49	-234984.3	1	235429.5	-86.4759	-3.388226E-006	-0.0054144	7
	18	175	4733.456	35811.11	-304000.9	1	306102.9	-83.28156	7.804453E-007	-0.0231667	6
	19	181	3796.875	-3250.554	-349960.8	1	349975.9	-90.53217	-8.892706E-006	-0.0022743	8
	20	188	2987.132	15368.03	-484144.4	1	484388.3	-88.18189	-1.082042E-006	-0.0135505	7
	21	195	2390.625	-623.9272	-562327.9	1	562328.3	-90.06358	7.30271E-007	-0.0157601	6
	22	200	1884.191	49611.12	-712677.2	1	714401.9	-86.01793	-6.255873E-009	0.0176711	6
	23	205	1516.544	49982.93	-903293.8	1	904675.6	-86.83282	7.367954E-007	-0.0160021	6
	24	211	1193.986	72528.99	-1173519	1	1175758	-86.46335	-6.548757E-007	0.0099509	6
	25	218	946.5144	-1119142	-1008365	1	1506413	-137.9806	-3.445055E-006	-0.0053259	7
	26	223	751.7689	-4186164	-3073855	1	5193511	-143.7106	-6.626586E-006	0.0261331	7
	27	228	597.4265	844023.9	-803185.1	1	1165111	-43.57977	-1.108466E-006	-0.0135705	7
	28	234	477.4305	84185.81	-2831555	1	2832806	-88.29702	-9.691306E-009	0.0006	6
	29	239	376.6741	474761.1	-3694965	1	3725341	-82.67826	-1.029038E-009	0.0006823	5
	30	243	298.2954	500997.1	-4614382	1	4641500	-83.8035	-1.071104E-009	0.0006566	5
	31	246	237.7717	593504.2	-5806499	1	5836752	-84.16385	-9.943165E-010	0.0005925	5
	32	249	189.0121	574330.9	-7147540	1	7170577	-85.40594	-1.062154E-009	0.0006928	5
	33	251	150.2404	776188.6	-9453969	1	9485779	-85.30643	-1.081859E-009	0.0006576	5
	34	254	119.1737	-1597882	-1.547924E+007	1	1.55615E+007	-95.8936	-1.053765E-009	0.0006075	5
	35	257	95.0169	718121.9	-1.408134E+007	1	1.409964E+007	-87.08055	-1.056773E-009	0.0006892	5
	36	260	75.60484	-13670.62	-1.738738E+007	1	1.738738E+007	-90.04505	-1.124028E-009	0.0006809	5
	37	263	54.50582	225715.9	-2.476996E+007	1	2.477098E+007	-89.47791	-9.720066E-010	0.0006063	5
	38	266	45.95588	-842645.5	-2.860094E+007	1	2.861335E+007	-91.68757	-1.038737E-009	0.000642	5
	39	269	37.20238	2064910	-3.684345E+007	1	3.690127E+007	-86.79218	-1.092918E-009	0.0006921	5
	40	273	30.04808	4596355	-4.397982E+007	1	4.421936E+007	-84.03365	-9.876051E-011	0.0007186	4
	41	277	23.91582	5834035	-5.377788E+007	1	5.40934E+007	-83.80854	-9.667601E-011	0.0006868	4
	42	281	18.60119	-1.304768E+007	-6.701865E+007	1	6.827694E+007	-101.0169	-2.127076E-010	0.0006016	4
	43	285	15.02404	5107593	-8.773858E+007	1	8.788712E+007	-86.66836	-1.046223E-010	0.0006462	4
	44	288	12.01923	6884349	-1.086929E+008	1	1.089107E+008	-86.37586	-9.091951E-011	0.0005926	4
	45	292	9.450605	4866745	-1.477549E+008	1	1.47835E+008	-88.11348	-8.208668E-011	0.0006259	4
	46	296	7.512019	1.349469E+007	-1.738059E+008	1	1.74329E+008	-85.56033	-1.077916E-010	0.0006782	4
	47	301	5.978954	1.392065E+007	-2.206575E+008	1	2.210962E+008	-86.39016	-9.697118E-011	0.0006643	4
	48	306	4.734848	4.899377E+007	-2.884241E+008	1	2.925557E+008	-80.35935	-9.971646E-012	0.0007898	3
	49	311	3.75601	-1.156793E+007	-3.485188E+008	1	3.487108E+008	-91.90105	-9.876558E-010	0.0006266	5
	50	319	3.004808	4.004782E+007	-4.480769E+008	1	4.49863E+008	-84.89264	-1.105546E-009	0.0006326	5
	51	328	2.372217	5.91793E+007	-5.476703E+008	1	5.508584E+008	-83.83275	-9.062819E-012	0.0007085	3
	52	334	1.878005	6.623628E+007	-6.878841E+008	1	6.910657E+008	-84.49995	-8.873219E-012	0.0007001	3
	53	343	1.512097	7.191099E+007	-8.478264E+008	1	8.508706E+008	-85.15189	-8.810517E-012	0.0007717	3
	54	350	1.201923	8.524622E+007	-1.062808E+009	1	1.066221E+009	-85.41421	-8.722832E-012	0.0007169	3
	55	363	0.956633	1.022784E+008	-1.333643E+009	1	1.337559E+009	-85.61451	-8.690821E-012	9.025657E-005	3
