EXPLAIN
TAG	EISPOT
TITLE	LABEL	Potentiostatic EIS	Test Identifier
DATE	LABEL	8/21/2020	Date
TIME	LABEL	16:31:22	Time
NOTES	NOTES	1	Notes...
	
PSTAT	PSTAT	REF3000-16137	Potentiostat
VDC	POTEN	0.00000E+000	T	DC Voltage (V)
FREQINIT	QUANT	3.00000E+005	Initial Freq. (Hz)
FREQFINAL	QUANT	1.00000E+000	Final Freq. (Hz)
PTSPERDEC	QUANT	1.00000E+001	Points/decade
VAC	QUANT	5.00000E+001	AC Voltage (mV rms)
AREA	QUANT	1.00000E+000	Sample Area (cm^2)
SPEED	SELECTOR	2	Optimize for:
ZGUESS	QUANT	1.00000E+003	Estimated Z (ohms)
EOC	QUANT	0	Open Circuit (V)
SEQUENCER	TOGGLE	TRUE	Run as Sequence
PSTATMODEL	IQUANT	5	Pstat Model
PSTATSECTION	LABEL	REF3000-16137	Pstat Section
PSTATSERIALNO	LABEL	16137	Pstat Serial Number
CTRLMODE	IQUANT	1	Control Mode
IESTAB	IQUANT	0	I/E Stability
CASPEED	IQUANT	1	Control Amp Speed
CONVENTION	IQUANT	1	Current Convention
ICHRANGE	IQUANT	2	Ich Range
ICHRANGEMODE	TOGGLE	F	Ich Auto Range
ICHOFFSETENABLE	TOGGLE	T	Ich Offset Enable
ICHOFFSET	QUANT	0	Ich Offset (V)
ICHFILTER	IQUANT	3	Ich Filter
VCHRANGE	IQUANT	2	Vch Range
VCHRANGEMODE	TOGGLE	F	Vch Auto Range
VCHOFFSETENABLE	TOGGLE	T	Vch Offset Enable
VCHOFFSET	QUANT	0	Vch Offset (V)
VCHFILTER	IQUANT	3	Vch Filter
ACHRANGE	IQUANT	2	Ach Range
ACHOFFSETENABLE	TOGGLE	F	Ach Offset Enable
ACHOFFSET	QUANT	0	Ach Offset (V)
ACHFILTER	IQUANT	3	Ach Filter
IERANGELOWERLIMIT	IQUANT	2	I/E Range Lower Limit
IERANGEMODE	TOGGLE	F	I/E AutoRange
IERANGE	IQUANT	11	I/E Range
POSFEEDENABLE	TOGGLE	F	Positive Feedback IR Comp
POSFEEDRESISTANCE	QUANT	0	Positive Feedback Resistance (ohm)
ACHSELECT	IQUANT	0	Ach Select
CABLEID	IQUANT	13	Cable ID
DCCALDATE	LABEL	7/31/2020	DC Calibration Date
ACCALDATE	LABEL	7/31/2020	AC Calibration Date
THERMOSELECT	IQUANT	1	Thermo Select
FRAMEWORKVERSION	QUANT	6.33	Framework Version
INSTRUMENTVERSION	LABEL	3.50	Instrument Version
COMPLIANCEVOLTAGE	IQUANT	0	Compliance Voltage
ZCURVE	TABLE
	Pt	Time	Freq	Zreal	Zimag	Zsig	Zmod	Zphz	Idc	Vdc	IERange
	#	s	Hz	ohm	ohm	V	ohm	°	A	V	#
	0	21	300046.9	1339.827	-402.719	1	1399.042	-16.72949	1.808911E-005	-0.0005352	9
	1	37	238359.4	1402.254	-345.7956	1	1444.261	-13.85275	1.814663E-005	-0.0021403	9
	2	51	189328.1	1448.885	-305.241	1	1480.689	-11.89671	2.593056E-005	-0.0015556	9
	3	57	150421.9	1481.498	-267.8999	1	1505.526	-10.25005	1.85775E-005	-0.0020305	9
	4	64	119484.4	1534.955	-173.1459	1	1544.689	-6.435872	-7.733964E-005	0.0279248	8
	5	70	94921.88	1554.076	-140.3892	1	1560.404	-5.161869	7.506155E-006	0.0032935	8
	6	73	75421.88	1564.726	-129.7162	1	1570.094	-4.738997	1.777713E-005	-0.0079404	8
	7	76	59859.37	1582.597	-114.637	1	1586.744	-4.143041	-9.06716E-006	-0.0012624	8
	8	80	47578.12	1596.345	-109.4649	1	1600.094	-3.922755	1.557406E-005	-0.0002393	8
	9	85	37828.12	1616.35	-101.6472	1	1619.543	-3.598412	1.30012E-005	-0.0075515	8
	10	88	30046.88	1624.643	-99.8755	1	1627.71	-3.517849	-8.978122E-006	-0.0012728	8
	11	92	23859.38	1634.708	-103.0872	1	1637.956	-3.608382	1.259464E-005	-0.0074701	8
	12	95	18984.38	1650.572	-112.1772	1	1654.379	-3.887995	2.209338E-005	-0.0045099	8
	13	97	15046.87	1664.172	-117.7168	1	1668.331	-4.04613	5.611849E-006	-0.0060581	8
	14	101	11953.13	1687.644	-137.1842	1	1693.211	-4.647208	1.29025E-005	-0.007527	8
	15	104	9515.62	1706.343	-157.4584	1	1713.592	-5.272225	1.778387E-005	-0.0079506	8
	16	108	7546.875	1726.444	-181.9345	1	1736.004	-6.015687	2.134362E-005	-0.0074644	8
	17	112	5928.309	1757.628	-209.7786	1	1770.103	-6.806239	2.216818E-005	-0.0045374	8
	18	116	4733.456	1785.502	-250.5053	1	1802.989	-7.98645	-1.433308E-005	0.0010854	8
	19	121	3796.875	1817.277	-291.5437	1	1840.514	-9.114234	-2.23711E-005	0.0066874	8
	20	124	2987.132	1859.183	-348.5891	1	1891.58	-10.61943	2.220782E-005	-0.0045425	8
	21	128	2390.625	1900.626	-404.9888	1	1943.295	-12.02879	-1.798194E-005	0.0029272	8
	22	132	1884.191	1950.984	-482.9732	1	2009.876	-13.90425	2.235054E-005	-0.0045829	8
	23	136	1516.544	2009.361	-550.1552	1	2083.316	-15.3121	2.035576E-005	-0.0027203	8
	24	140	1193.986	2077.517	-642.1453	1	2174.495	-17.17599	-2.221596E-005	0.0067302	8
	25	145	946.5144	2135.849	-732.2142	1	2257.873	-18.9228	-2.25243E-006	-0.0039075	8
	26	148	751.7689	2198.921	-865.469	1	2363.11	-21.48401	2.190479E-005	-0.007633	8
	27	150	597.4265	2311.945	-1022.31	1	2527.886	-23.85435	-9.617413E-006	0.0086406	8
	28	154	477.4305	2400.565	-1180.636	1	2675.185	-26.18868	-3.37441E-007	0.0006384	8
	29	157	376.6741	2496.111	-1388.47	1	2856.294	-29.08514	-3.183253E-007	0.0006613	8
	30	160	298.2954	2593.462	-1635.225	1	3065.943	-32.23218	-3.513739E-007	0.0006566	8
	31	162	237.7717	2690.565	-1927.525	1	3309.757	-35.61787	-3.494962E-007	0.0006505	8
	32	165	189.0121	2788.385	-2291.687	1	3609.282	-39.41572	-3.093648E-007	0.0006377	8
	33	167	150.2404	2893.19	-2750.862	1	3992.216	-43.55545	-7.041329E-008	0.00064	7
	34	169	119.1737	2988.594	-3328.285	1	4473.162	-48.07813	-6.299548E-008	0.0005967	7
	35	172	95.0169	3085.85	-4041.86	1	5085.185	-52.63925	-7.135516E-008	0.0006361	7
	36	174	75.60484	3189.177	-4946.539	1	5885.499	-57.18895	-6.676717E-008	0.0005811	7
	37	177	54.50582	3354.25	-6661.027	1	7457.9	-63.27185	-7.139447E-008	0.0006144	7
	38	179	45.95588	3461.303	-7803.422	1	8536.628	-66.07973	-7.042897E-008	0.000646	7
	39	182	37.20238	3614.681	-9508.86	1	10172.72	-69.18629	-6.835713E-008	0.0006332	7
	40	184	30.04808	3804.519	-11627.79	1	12234.37	-71.88232	-7.001564E-008	0.0006123	7
	41	187	23.91582	4058.794	-14435.76	1	14995.5	-74.29601	-6.651383E-008	0.0005699	7
	42	189	18.60119	4421.157	-18324.12	1	18849.94	-76.4352	-6.97077E-008	0.0006065	7
	43	191	15.02404	4818.259	-22464.84	1	22975.74	-77.8946	-6.691724E-008	0.0005707	7
	44	193	12.01923	5354.723	-27773.96	1	28285.44	-79.08747	-6.453043E-008	0.0005775	7
	45	196	9.450605	6138.458	-34915.93	1	35451.41	-80.02891	-6.293191E-008	0.0005666	7
	46	198	7.512019	7129.804	-43410.62	1	43992.22	-80.67295	-6.669878E-008	0.0005734	7
	47	201	5.978954	8455.021	-53871.76	1	54531.22	-81.08035	-7.197483E-009	0.0006825	6
	48	204	4.734848	10258.81	-67175.8	1	67954.63	-81.31712	-7.500438E-009	0.0006137	6
	49	207	3.75601	12677.45	-83469.52	1	84426.77	-81.36385	-6.848299E-009	0.0007091	6
	50	211	3.004808	15805.59	-102751.5	1	103960	-81.25511	-7.201297E-009	0.0006584	6
	51	215	2.372217	20454.93	-127798.7	1	129425.3	-80.9066	-7.707643E-009	0.0006284	6
	52	219	1.878005	26664.41	-158799.2	1	161022.3	-80.46823	-7.017869E-009	0.0006352	6
	53	223	1.512097	34111.64	-193385	1	196370.4	-79.99636	-7.586257E-009	0.0007476	6
	54	229	1.201923	45222.65	-238066.1	1	242323.2	-79.24433	-7.123715E-009	0.0006557	6
	55	235	0.956633	59536.4	-291531.1	1	297548.3	-78.45779	-8.155016E-009	1.655325E-005	6
