EXPLAIN
TAG	EISPOT
TITLE	LABEL	Potentiostatic EIS	Test Identifier
DATE	LABEL	8/21/2020	Date
TIME	LABEL	17:40:56	Time
NOTES	NOTES	1	Notes...
	
PSTAT	PSTAT	REF3000-16137	Potentiostat
VDC	POTEN	0.00000E+000	T	DC Voltage (V)
FREQINIT	QUANT	3.00000E+005	Initial Freq. (Hz)
FREQFINAL	QUANT	1.00000E+000	Final Freq. (Hz)
PTSPERDEC	QUANT	1.00000E+001	Points/decade
VAC	QUANT	5.00000E+001	AC Voltage (mV rms)
AREA	QUANT	1.00000E+000	Sample Area (cm^2)
SPEED	SELECTOR	2	Optimize for:
ZGUESS	QUANT	1.00000E+003	Estimated Z (ohms)
EOC	QUANT	0	Open Circuit (V)
SEQUENCER	TOGGLE	TRUE	Run as Sequence
PSTATMODEL	IQUANT	5	Pstat Model
PSTATSECTION	LABEL	REF3000-16137	Pstat Section
PSTATSERIALNO	LABEL	16137	Pstat Serial Number
CTRLMODE	IQUANT	1	Control Mode
IESTAB	IQUANT	0	I/E Stability
CASPEED	IQUANT	1	Control Amp Speed
CONVENTION	IQUANT	1	Current Convention
ICHRANGE	IQUANT	2	Ich Range
ICHRANGEMODE	TOGGLE	F	Ich Auto Range
ICHOFFSETENABLE	TOGGLE	T	Ich Offset Enable
ICHOFFSET	QUANT	0	Ich Offset (V)
ICHFILTER	IQUANT	3	Ich Filter
VCHRANGE	IQUANT	2	Vch Range
VCHRANGEMODE	TOGGLE	F	Vch Auto Range
VCHOFFSETENABLE	TOGGLE	T	Vch Offset Enable
VCHOFFSET	QUANT	0	Vch Offset (V)
VCHFILTER	IQUANT	3	Vch Filter
ACHRANGE	IQUANT	2	Ach Range
ACHOFFSETENABLE	TOGGLE	F	Ach Offset Enable
ACHOFFSET	QUANT	0	Ach Offset (V)
ACHFILTER	IQUANT	3	Ach Filter
IERANGELOWERLIMIT	IQUANT	2	I/E Range Lower Limit
IERANGEMODE	TOGGLE	F	I/E AutoRange
IERANGE	IQUANT	11	I/E Range
POSFEEDENABLE	TOGGLE	F	Positive Feedback IR Comp
POSFEEDRESISTANCE	QUANT	0	Positive Feedback Resistance (ohm)
ACHSELECT	IQUANT	0	Ach Select
CABLEID	IQUANT	13	Cable ID
DCCALDATE	LABEL	7/31/2020	DC Calibration Date
ACCALDATE	LABEL	7/31/2020	AC Calibration Date
THERMOSELECT	IQUANT	1	Thermo Select
FRAMEWORKVERSION	QUANT	6.33	Framework Version
INSTRUMENTVERSION	LABEL	3.50	Instrument Version
COMPLIANCEVOLTAGE	IQUANT	0	Compliance Voltage
ZCURVE	TABLE
	Pt	Time	Freq	Zreal	Zimag	Zsig	Zmod	Zphz	Idc	Vdc	IERange
	#	s	Hz	ohm	ohm	V	ohm	°	A	V	#
	0	14	300046.9	-113.1542	-4847.471	1	4848.792	-91.33721	1.946958E-005	-0.0010442	9
	1	28	238359.4	-20.5736	-5899.916	1	5899.952	-90.1998	7.928082E-005	-0.001609	9
	2	49	189328.1	198.6797	-7734.513	1	7737.064	-88.52854	-3.615748E-007	-0.0020053	9
	3	57	150421.9	459.7079	-9054.708	1	9066.37	-87.09359	-1.545567E-005	0.0017918	9
	4	64	119484.4	643.7773	-11569.17	1	11587.07	-86.81501	-4.170484E-005	0.0227945	8
	5	72	94921.88	577.3333	-14487.81	1	14499.31	-87.71799	-2.009392E-005	0.0113469	8
	6	80	75421.88	597.6816	-18223.77	1	18233.56	-88.12155	-1.242121E-005	0.0103474	8
	7	89	59859.37	585.6923	-22746.46	1	22753.99	-88.52503	2.257394E-005	-0.009708	8
	8	98	47578.12	3918.914	-30363.7	1	30615.56	-82.64574	6.513717E-006	-0.0094178	7
	9	105	37828.12	362.78	-35669.84	1	35671.69	-89.4173	-2.526651E-005	0.0011047	9
	10	114	30046.88	527.8391	-46511.49	1	46514.48	-89.3498	-2.011192E-005	0.0114761	8
	11	124	23859.38	-1121.604	-60197.5	1	60207.95	-91.06741	-1.163249E-006	-0.0052693	8
	12	131	18984.38	5213.591	-72833.82	1	73020.18	-85.90564	7.019622E-006	-0.0274146	7
	13	137	15046.87	4987.878	-90543.88	1	90681.16	-86.84688	7.687549E-006	-0.0186409	7
	14	142	11953.13	6500.013	-117261.2	1	117441.3	-86.82723	3.374623E-006	-0.0242639	7
	15	147	9515.62	4315.534	-143082.6	1	143147.7	-88.27242	-3.251537E-006	-0.0055795	7
	16	153	7546.875	2610.096	-185723.6	1	185742	-89.19484	7.803868E-006	-0.0247776	7
	17	158	5928.309	5052.724	-225466.4	1	225523	-88.71621	7.639924E-006	-0.0185389	7
	18	165	4733.456	1783.452	-289032	1	289037.5	-89.64646	-6.616454E-006	0.0260661	7
	19	170	3796.875	5797.25	-372225.3	1	372270.4	-89.10771	6.991653E-006	-0.0274208	7
	20	176	2987.132	63211.25	-480157	1	484299.9	-82.50031	-3.820268E-006	0.0257224	7
	21	183	2390.625	209776.1	-538790.6	1	578187.9	-68.72674	1.246065E-006	-0.0200085	7
	22	189	1884.191	15987.78	-713685.9	1	713864.9	-88.71669	-5.197669E-009	0.0176392	6
	23	195	1516.544	53950.73	-917158.1	1	918743.5	-86.63352	5.973404E-007	-0.0279229	6
	24	201	1193.986	51314.01	-1130564	1	1131728	-87.40125	-5.71887E-007	0.0269759	6
	25	208	946.5144	-23682.81	-1385853	1	1386056	-90.97903	4.020013E-007	-0.0255299	6
	26	212	751.7689	-109166.6	-1720133	1	1723594	-93.63136	-6.533313E-007	0.0100309	6
	27	217	597.4265	224094.3	-2140015	1	2151716	-84.02199	-7.566533E-007	0.0233268	6
	28	221	477.4305	80924.57	-2821140	1	2822300	-88.35692	-1.028166E-008	0.0007019	6
	29	226	376.6741	489608.2	-3684998	1	3717382	-82.43171	-1.053483E-009	0.0006852	5
	30	230	298.2954	494057.3	-4596384	1	4622861	-83.86493	-9.98495E-010	0.0006375	5
	31	233	237.7717	514625.6	-5598558	1	5622160	-84.74807	-1.060762E-009	0.0006361	5
	32	236	189.0121	553497.5	-7143849	1	7165259	-85.56964	-9.803252E-010	0.0005846	5
	33	238	150.2404	655213.3	-9169874	1	9193253	-85.913	-1.023216E-009	0.0005999	5
	34	241	119.1737	1663725	-8426577	1	8589248	-78.83129	-1.043142E-009	0.0006734	5
	35	244	95.0169	711024.5	-1.421635E+007	1	1.423412E+007	-87.13676	-1.097081E-009	0.0006864	5
	36	247	75.60484	1438065	-1.717054E+007	1	1.723065E+007	-85.21254	-1.072812E-009	0.0006765	5
	37	250	54.50582	1349786	-2.400403E+007	1	2.404195E+007	-86.78156	-1.019174E-009	0.0006675	5
	38	253	45.95588	1681210	-2.764316E+007	1	2.769423E+007	-86.51965	-1.036127E-009	0.0006231	5
	39	257	37.20238	1573456	-3.284351E+007	1	3.288118E+007	-87.25719	-1.024369E-009	0.0006967	5
	40	260	30.04808	2421288	-4.373357E+007	1	4.380054E+007	-86.83109	-1.095774E-009	0.0006862	5
	41	264	23.91582	8680948	-5.272169E+007	1	5.34316E+007	-80.6498	-1.414753E-010	0.0006642	4
	42	268	18.60119	-3650035	-6.683732E+007	1	6.693691E+007	-93.12586	-4.927879E-011	0.0006098	4
	43	272	15.02404	5529971	-8.69085E+007	1	8.708426E+007	-86.35919	-8.895338E-011	0.0006207	4
	44	275	12.01923	6703980	-1.089871E+008	1	1.091931E+008	-86.48007	-1.023468E-010	0.0006826	4
	45	279	9.450605	5010941	-1.398357E+008	1	1.399254E+008	-87.94772	-8.989022E-011	0.0006894	4
	46	283	7.512019	1.085034E+007	-1.74145E+008	1	1.744827E+008	-86.43472	-1.061179E-010	0.0006924	4
	47	288	5.978954	2092229	-2.36304E+008	1	2.363133E+008	-89.49272	-7.972697E-011	0.0006015	4
	48	293	4.734848	1.18436E+007	-2.759771E+008	1	2.762311E+008	-87.54265	-1.058011E-009	0.0006989	5
	49	301	3.75601	-1.751333E+007	-3.301561E+008	1	3.306203E+008	-93.03645	-1.030538E-009	0.000626	5
	50	309	3.004808	1618730	-4.734154E+008	1	4.734181E+008	-89.80409	-1.031737E-009	0.0006563	5
	51	318	2.372217	6.00536E+007	-5.477166E+008	1	5.50999E+008	-83.74288	-9.144138E-012	0.0006419	3
	52	324	1.878005	6.443703E+007	-6.859601E+008	1	6.889799E+008	-84.63355	-8.885195E-012	0.0007244	3
	53	333	1.512097	7.414063E+007	-8.456307E+008	1	8.488746E+008	-84.98941	-8.959005E-012	0.0006252	3
	54	340	1.201923	8.281205E+007	-1.059859E+009	1	1.06309E+009	-85.53227	-8.761233E-012	0.0007427	3
	55	352	0.956633	1.018318E+008	-1.324301E+009	1	1.32821E+009	-85.60291	-8.674571E-012	7.258356E-005	3
