EXPLAIN
TAG	EISPOT
TITLE	LABEL	Potentiostatic EIS	Test Identifier
DATE	LABEL	8/21/2020	Date
TIME	LABEL	18:34:59	Time
NOTES	NOTES	1	Notes...
	
PSTAT	PSTAT	REF3000-16137	Potentiostat
VDC	POTEN	0.00000E+000	T	DC Voltage (V)
FREQINIT	QUANT	3.00000E+005	Initial Freq. (Hz)
FREQFINAL	QUANT	1.00000E+000	Final Freq. (Hz)
PTSPERDEC	QUANT	1.00000E+001	Points/decade
VAC	QUANT	5.00000E+001	AC Voltage (mV rms)
AREA	QUANT	1.00000E+000	Sample Area (cm^2)
SPEED	SELECTOR	2	Optimize for:
ZGUESS	QUANT	1.00000E+003	Estimated Z (ohms)
EOC	QUANT	0	Open Circuit (V)
SEQUENCER	TOGGLE	TRUE	Run as Sequence
PSTATMODEL	IQUANT	5	Pstat Model
PSTATSECTION	LABEL	REF3000-16137	Pstat Section
PSTATSERIALNO	LABEL	16137	Pstat Serial Number
CTRLMODE	IQUANT	1	Control Mode
IESTAB	IQUANT	0	I/E Stability
CASPEED	IQUANT	1	Control Amp Speed
CONVENTION	IQUANT	1	Current Convention
ICHRANGE	IQUANT	2	Ich Range
ICHRANGEMODE	TOGGLE	F	Ich Auto Range
ICHOFFSETENABLE	TOGGLE	T	Ich Offset Enable
ICHOFFSET	QUANT	0	Ich Offset (V)
ICHFILTER	IQUANT	3	Ich Filter
VCHRANGE	IQUANT	2	Vch Range
VCHRANGEMODE	TOGGLE	F	Vch Auto Range
VCHOFFSETENABLE	TOGGLE	T	Vch Offset Enable
VCHOFFSET	QUANT	0	Vch Offset (V)
VCHFILTER	IQUANT	3	Vch Filter
ACHRANGE	IQUANT	2	Ach Range
ACHOFFSETENABLE	TOGGLE	F	Ach Offset Enable
ACHOFFSET	QUANT	0	Ach Offset (V)
ACHFILTER	IQUANT	3	Ach Filter
IERANGELOWERLIMIT	IQUANT	2	I/E Range Lower Limit
IERANGEMODE	TOGGLE	F	I/E AutoRange
IERANGE	IQUANT	11	I/E Range
POSFEEDENABLE	TOGGLE	F	Positive Feedback IR Comp
POSFEEDRESISTANCE	QUANT	0	Positive Feedback Resistance (ohm)
ACHSELECT	IQUANT	0	Ach Select
CABLEID	IQUANT	13	Cable ID
DCCALDATE	LABEL	7/31/2020	DC Calibration Date
ACCALDATE	LABEL	7/31/2020	AC Calibration Date
THERMOSELECT	IQUANT	1	Thermo Select
FRAMEWORKVERSION	QUANT	6.33	Framework Version
INSTRUMENTVERSION	LABEL	3.50	Instrument Version
COMPLIANCEVOLTAGE	IQUANT	0	Compliance Voltage
ZCURVE	TABLE
	Pt	Time	Freq	Zreal	Zimag	Zsig	Zmod	Zphz	Idc	Vdc	IERange
	#	s	Hz	ohm	ohm	V	ohm	°	A	V	#
	0	7	300046.9	51.00528	-1.572276	1	51.0295	-1.765626	6.330357E-005	-0.0025123	9
	1	10	238359.4	51.27502	-2.773312	1	51.34997	-3.09594	1.168723E-005	9.029609E-005	9
	2	13	189328.1	51.61661	-3.911281	1	51.76458	-4.333343	-6.222825E-005	0.0020328	9
	3	16	150421.9	51.95368	-5.172761	1	52.21056	-5.685907	-5.887129E-005	0.0016125	9
	4	18	119484.4	52.55887	-6.526074	1	52.96248	-7.078016	5.629333E-005	-0.0017557	9
	5	21	94921.88	53.27985	-7.893181	1	53.86134	-8.426833	2.066373E-005	-0.0004863	9
	6	23	75421.88	54.0641	-9.68232	1	54.92426	-10.15344	4.261703E-006	0.0002125	9
	7	26	59859.37	55.02533	-11.67914	1	56.25112	-11.98321	-1.281284E-005	0.0001689	9
	8	28	47578.12	56.20288	-13.86299	1	57.88736	-13.85598	1.535266E-005	-0.0005752	9
	9	31	37828.12	57.53452	-16.32647	1	59.80614	-15.84226	1.1794E-005	8.553185E-005	9
	10	33	30046.88	59.0678	-19.10705	1	62.08128	-17.92518	1.787687E-005	-0.0001513	9
	11	36	23859.38	60.79638	-22.24392	1	64.73787	-20.09634	-1.35571E-005	0.0002305	9
	12	38	18984.38	62.55887	-25.91523	1	67.71419	-22.50195	-2.937497E-006	-0.0001164	9
	13	40	15046.87	64.53773	-30.31681	1	71.30376	-25.16195	-7.105592E-006	4.781784E-005	9
	14	43	11953.13	66.54899	-35.58664	1	75.4664	-28.13536	2.030163E-005	-0.0003126	9
	15	45	9515.62	68.58524	-41.88334	1	80.36262	-31.4114	-1.590941E-005	0.0004237	9
	16	47	7546.875	70.66295	-49.6746	1	86.37603	-35.10643	-1.261702E-005	0.0001936	9
	17	50	5928.309	72.76001	-59.81065	1	94.18775	-39.42111	1.134205E-005	6.494226E-005	9
	18	52	4733.456	74.61485	-71.67426	1	103.4629	-43.84844	1.473209E-005	-0.0005431	9
	19	54	3796.875	76.40347	-86.16703	1	115.1618	-48.4369	-1.57834E-005	0.000507	9
	20	57	2987.132	78.42102	-106.397	1	132.1748	-53.60754	3.832735E-006	-0.0003308	9
	21	59	2390.625	80.20483	-130.3092	1	153.0141	-58.38786	-1.557389E-005	0.0005987	9
	22	61	1884.191	82.77899	-162.2613	1	182.1568	-62.97121	1.112316E-005	6.661403E-005	9
	23	64	1516.544	85.86578	-198.4979	1	216.2738	-66.60777	-1.66906E-005	0.0005722	9
	24	66	1193.986	89.74931	-248.6181	1	264.3215	-70.15079	-1.330467E-005	0.0006811	9
	25	68	946.5144	94.80358	-310.3184	1	324.4768	-73.01186	2.048149E-005	-0.0004705	9
	26	71	751.7689	102.6704	-386.922	1	400.3122	-75.13894	-7.948152E-006	0.0006219	9
	27	73	597.4265	110.7617	-479.1743	1	491.8091	-76.98461	-2.714709E-006	0.001899	8
	28	75	477.4305	123.2113	-593.4562	1	606.1116	-78.27108	3.37E-007	0.0006555	8
	29	78	376.6741	141.1664	-743.6586	1	756.9386	-79.25161	3.334073E-007	0.0006482	8
	30	80	298.2954	165.5626	-927.951	1	942.605	-79.88388	3.370706E-007	0.0006486	8
	31	82	237.7717	198.3885	-1149.419	1	1166.414	-80.20729	3.418867E-007	0.0006427	8
	32	85	189.0121	244.206	-1425.882	1	1446.643	-80.28143	3.419953E-007	0.0006444	8
	33	87	150.2404	307.6389	-1765.938	1	1792.534	-80.11784	3.41891E-007	0.0006432	8
	34	90	119.1737	396.3895	-2187.986	1	2223.603	-79.73131	3.559874E-007	0.0006431	8
	35	92	95.0169	516.7997	-2690.718	1	2739.898	-79.12774	3.398879E-007	0.0006429	8
	36	95	75.60484	684.0936	-3308.259	1	3378.248	-78.31684	3.516541E-007	0.0006436	8
	37	97	54.50582	1040.853	-4418.371	1	4539.314	-76.74429	3.49637E-007	0.0006425	8
	38	100	45.95588	1305.597	-5131.783	1	5295.26	-75.72598	3.339757E-008	0.0006301	7
	39	102	37.20238	1725.865	-6132.651	1	6370.873	-74.28221	3.604116E-008	0.0006219	7
	40	104	30.04808	2292.448	-7302.268	1	7653.655	-72.57103	1.992956E-008	0.0006222	7
	41	107	23.91582	3078.508	-8722.419	1	9249.746	-70.55992	2.082523E-008	0.0006216	7
	42	109	18.60119	4255.851	-10524.46	1	11352.38	-67.98272	3.070231E-008	0.0006254	7
	43	111	15.02404	5548.324	-12198.2	1	13400.75	-65.54169	2.276581E-008	0.000629	7
	44	114	12.01923	7254.838	-14057.99	1	15819.6	-62.70332	1.821616E-008	0.0006277	7
	45	116	9.450605	9519.31	-16114.51	1	18716.16	-59.42841	1.005894E-008	0.0006684	7
	46	119	7.512019	12158.14	-18022.99	1	21740.48	-55.99677	1.524404E-008	0.0006085	7
	47	121	5.978954	15256.58	-19663.08	1	24887.75	-52.19213	1.622657E-008	0.0006246	7
	48	125	4.734848	18772.31	-21009.39	1	28174.35	-48.21858	1.004759E-008	0.0005883	7
	49	128	3.75601	22511.01	-21189.74	1	30915.22	-43.26822	1.639223E-008	0.000637	7
	50	133	3.004808	25975.32	-21001.35	1	33403.2	-38.95594	1.595267E-008	0.0005841	7
	51	140	2.372217	29542.8	-20636.79	1	36036.84	-34.93579	5.413714E-009	0.0005468	7
	52	147	1.878005	32542.18	-19411.11	1	37891.75	-30.81569	-3.124791E-008	0.0006704	6
	53	156	1.512097	34952.7	-18295.52	1	39451.45	-27.62921	-3.209952E-008	0.0005546	6
	54	167	1.201923	37442.92	-17291.66	1	41242.86	-24.78815	-3.783818E-008	0.0006844	6
	55	180	0.956633	39565.89	-16157.35	1	42737.8	-22.21342	-5.615187E-008	2.620849E-005	6
