EXPLAIN
TAG	EISPOT
TITLE	LABEL	Potentiostatic EIS	Test Identifier
DATE	LABEL	8/21/2020	Date
TIME	LABEL	16:02:03	Time
NOTES	NOTES	1	Notes...
	
PSTAT	PSTAT	REF3000-16137	Potentiostat
VDC	POTEN	0.00000E+000	T	DC Voltage (V)
FREQINIT	QUANT	3.00000E+005	Initial Freq. (Hz)
FREQFINAL	QUANT	1.00000E+000	Final Freq. (Hz)
PTSPERDEC	QUANT	1.00000E+001	Points/decade
VAC	QUANT	5.00000E+001	AC Voltage (mV rms)
AREA	QUANT	1.00000E+000	Sample Area (cm^2)
SPEED	SELECTOR	2	Optimize for:
ZGUESS	QUANT	1.00000E+003	Estimated Z (ohms)
EOC	QUANT	0	Open Circuit (V)
SEQUENCER	TOGGLE	TRUE	Run as Sequence
PSTATMODEL	IQUANT	5	Pstat Model
PSTATSECTION	LABEL	REF3000-16137	Pstat Section
PSTATSERIALNO	LABEL	16137	Pstat Serial Number
CTRLMODE	IQUANT	1	Control Mode
IESTAB	IQUANT	0	I/E Stability
CASPEED	IQUANT	1	Control Amp Speed
CONVENTION	IQUANT	1	Current Convention
ICHRANGE	IQUANT	2	Ich Range
ICHRANGEMODE	TOGGLE	F	Ich Auto Range
ICHOFFSETENABLE	TOGGLE	T	Ich Offset Enable
ICHOFFSET	QUANT	0	Ich Offset (V)
ICHFILTER	IQUANT	3	Ich Filter
VCHRANGE	IQUANT	2	Vch Range
VCHRANGEMODE	TOGGLE	F	Vch Auto Range
VCHOFFSETENABLE	TOGGLE	T	Vch Offset Enable
VCHOFFSET	QUANT	0	Vch Offset (V)
VCHFILTER	IQUANT	3	Vch Filter
ACHRANGE	IQUANT	2	Ach Range
ACHOFFSETENABLE	TOGGLE	F	Ach Offset Enable
ACHOFFSET	QUANT	0	Ach Offset (V)
ACHFILTER	IQUANT	3	Ach Filter
IERANGELOWERLIMIT	IQUANT	2	I/E Range Lower Limit
IERANGEMODE	TOGGLE	F	I/E AutoRange
IERANGE	IQUANT	11	I/E Range
POSFEEDENABLE	TOGGLE	F	Positive Feedback IR Comp
POSFEEDRESISTANCE	QUANT	0	Positive Feedback Resistance (ohm)
ACHSELECT	IQUANT	0	Ach Select
CABLEID	IQUANT	13	Cable ID
DCCALDATE	LABEL	7/31/2020	DC Calibration Date
ACCALDATE	LABEL	7/31/2020	AC Calibration Date
THERMOSELECT	IQUANT	1	Thermo Select
FRAMEWORKVERSION	QUANT	6.33	Framework Version
INSTRUMENTVERSION	LABEL	3.50	Instrument Version
COMPLIANCEVOLTAGE	IQUANT	0	Compliance Voltage
ZCURVE	TABLE
	Pt	Time	Freq	Zreal	Zimag	Zsig	Zmod	Zphz	Idc	Vdc	IERange
	#	s	Hz	ohm	ohm	V	ohm	°	A	V	#
	0	7	300046.9	175.3703	-7.418594	1	175.5271	-2.422308	1.970468E-005	-0.0006555	9
	1	10	238359.4	177.01	-7.641136	1	177.1749	-2.471799	-1.287824E-005	0.0006736	9
	2	14	189328.1	177.4989	-8.38112	1	177.6966	-2.703377	-7.97591E-005	0.0021117	9
	3	16	150421.9	178.2905	-9.80176	1	178.5598	-3.146744	-5.397453E-005	0.0008547	9
	4	20	119484.4	179.4991	-11.81967	1	179.8878	-3.767378	1.465891E-005	-0.0007491	9
	5	22	94921.88	180.5878	-13.10756	1	181.0629	-4.151404	1.329673E-005	0.0001822	9
	6	25	75421.88	181.907	-15.55067	1	182.5705	-4.886162	-8.134572E-006	-0.0002004	9
	7	27	59859.37	183.4898	-18.59063	1	184.4291	-5.785295	5.726881E-007	0.0005679	9
	8	30	47578.12	185.3095	-22.20844	1	186.6355	-6.834026	2.389513E-005	-0.0002463	9
	9	32	37828.12	187.744	-26.13371	1	189.5542	-7.924575	-1.753834E-005	0.0003753	9
	10	35	30046.88	190.5126	-31.10505	1	193.0352	-9.272882	3.056732E-005	-0.0007616	9
	11	37	23859.38	193.7713	-36.79873	1	197.2345	-10.75288	-2.139451E-005	0.0005189	9
	12	40	18984.38	197.7543	-43.19659	1	202.4172	-12.3219	2.019633E-005	-0.0001715	9
	13	42	15046.87	201.9039	-51.10633	1	208.2715	-14.20448	-2.556831E-005	0.0008045	9
	14	44	11953.13	207.8452	-59.26023	1	216.1283	-15.91376	-2.074754E-006	-0.0003524	9
	15	47	9515.62	213.3136	-68.6274	1	224.0813	-17.83405	-5.68783E-007	0.000697	9
	16	49	7546.875	220.6012	-80.01412	1	234.6639	-19.93619	1.340711E-005	0.0001932	9
	17	51	5928.309	227.6205	-93.52187	1	246.0842	-22.33617	2.602945E-005	-0.0004741	9
	18	53	4733.456	235.5258	-108.7231	1	259.4092	-24.77893	-1.822524E-005	0.0003595	9
	19	57	3796.875	243.3853	-126.3219	1	274.2145	-27.43023	5.274259E-006	0.0004387	9
	20	60	2987.132	252.1793	-149.0382	1	292.9279	-30.58313	-1.82133E-005	0.0003481	9
	21	63	2390.625	260.8457	-175.9064	1	314.6165	-33.99452	-1.58557E-005	0.0002485	9
	22	65	1884.191	269.0299	-209.4621	1	340.9567	-37.90371	-2.060975E-005	0.0004742	9
	23	67	1516.544	276.2682	-249.0121	1	371.929	-42.02966	1.181539E-005	0.0002543	9
	24	70	1193.986	283.8951	-300.2361	1	413.2047	-46.60242	1.000272E-005	-0.0018786	8
	25	72	946.5144	290.9481	-366.9251	1	468.2786	-51.58783	-7.146806E-006	0.0014984	8
	26	75	751.7689	299.4994	-450.351	1	540.8474	-56.37468	9.816295E-006	-0.001385	8
	27	77	597.4265	308.4611	-554.7429	1	634.7345	-60.92404	8.076549E-007	0.0026317	8
	28	79	477.4305	317.6826	-683.8611	1	754.0479	-65.08313	6.773394E-008	0.0006416	8
	29	82	376.6741	330.2488	-854.9351	1	916.5034	-68.87919	5.265745E-008	0.0006422	8
	30	84	298.2954	345.9409	-1067.114	1	1121.787	-72.03815	7.131187E-008	0.0006442	8
	31	86	237.7717	365.7101	-1325.16	1	1374.698	-74.57187	7.520046E-008	0.0006426	8
	32	89	189.0121	391.8199	-1650.78	1	1696.643	-76.64768	5.415688E-008	0.0006448	8
	33	91	150.2404	426.3898	-2056.72	1	2100.454	-78.28762	6.047427E-008	0.0006395	8
	34	94	119.1737	473.0383	-2567.517	1	2610.73	-79.56091	7.053186E-008	0.0006406	8
	35	96	95.0169	533.8802	-3189.211	1	3233.589	-80.49669	9.145445E-008	0.0006333	8
	36	99	75.60484	615.6263	-3966.61	1	4014.099	-81.17796	7.359372E-008	0.0006426	8
	37	101	54.50582	787.8329	-5424.988	1	5481.895	-81.7371	-4.778595E-010	0.0006142	7
	38	104	45.95588	910.2651	-6378.514	1	6443.138	-81.87827	1.59708E-009	0.0006278	7
	39	106	37.20238	1106.156	-7787.425	1	7865.594	-81.91557	2.038938E-009	0.000612	7
	40	108	30.04808	1366.966	-9517.65	1	9615.32	-81.82683	1.033765E-009	0.0006121	7
	41	111	23.91582	1750.727	-11791.17	1	11920.44	-81.55455	2.805954E-009	0.0006122	7
	42	113	18.60119	2325.797	-14871.3	1	15052.07	-81.11123	6.04903E-009	0.0006259	7
	43	115	15.02404	2998.667	-18111.07	1	18357.64	-80.59877	9.524878E-010	0.0006207	7
	44	118	12.01923	3955.116	-22192.77	1	22542.44	-79.89504	1.67257E-009	0.000615	7
	45	120	9.450605	5381.213	-27557.09	1	28077.59	-78.95061	1.390637E-009	0.0006114	7
	46	123	7.512019	7231.009	-33766.7	1	34532.27	-77.91289	3.885201E-009	0.0005972	7
	47	125	5.978954	9734.4	-41160.92	1	42296.33	-76.69424	2.362358E-009	0.0006199	7
	48	128	4.734848	13151.78	-50137.95	1	51834.19	-75.30177	7.713941E-010	0.0006216	6
	49	132	3.75601	17665.8	-60628.73	1	63150	-73.7551	4.437652E-009	0.0006762	6
	50	135	3.004808	23308.95	-72348.4	1	76010.51	-72.14228	2.095067E-009	0.0006833	6
	51	139	2.372217	31003.11	-86505.02	1	91892.93	-70.28249	2.670706E-009	0.0006475	6
	52	143	1.878005	40815.46	-102824.4	1	110628.9	-68.34973	3.438152E-009	0.000643	6
	53	148	1.512097	51894.38	-119793.9	1	130551.2	-66.57788	2.098387E-009	0.0007645	6
	54	153	1.201923	66477.73	-139899.1	1	154890.5	-64.58372	2.721625E-009	0.0006424	6
	55	159	0.956633	83955.12	-162141	1	182587.4	-62.62529	-5.611598E-010	2.382887E-005	6
