EXPLAIN
TAG	EISPOT
TITLE	LABEL	Potentiostatic EIS	Test Identifier
DATE	LABEL	8/21/2020	Date
TIME	LABEL	15:50:59	Time
NOTES	NOTES	1	Notes...
	
PSTAT	PSTAT	REF3000-16137	Potentiostat
VDC	POTEN	0.00000E+000	T	DC Voltage (V)
FREQINIT	QUANT	3.00000E+005	Initial Freq. (Hz)
FREQFINAL	QUANT	1.00000E+000	Final Freq. (Hz)
PTSPERDEC	QUANT	1.00000E+001	Points/decade
VAC	QUANT	5.00000E+001	AC Voltage (mV rms)
AREA	QUANT	1.00000E+000	Sample Area (cm^2)
SPEED	SELECTOR	2	Optimize for:
ZGUESS	QUANT	1.00000E+003	Estimated Z (ohms)
EOC	QUANT	0	Open Circuit (V)
SEQUENCER	TOGGLE	TRUE	Run as Sequence
PSTATMODEL	IQUANT	5	Pstat Model
PSTATSECTION	LABEL	REF3000-16137	Pstat Section
PSTATSERIALNO	LABEL	16137	Pstat Serial Number
CTRLMODE	IQUANT	1	Control Mode
IESTAB	IQUANT	0	I/E Stability
CASPEED	IQUANT	1	Control Amp Speed
CONVENTION	IQUANT	1	Current Convention
ICHRANGE	IQUANT	2	Ich Range
ICHRANGEMODE	TOGGLE	F	Ich Auto Range
ICHOFFSETENABLE	TOGGLE	T	Ich Offset Enable
ICHOFFSET	QUANT	0	Ich Offset (V)
ICHFILTER	IQUANT	3	Ich Filter
VCHRANGE	IQUANT	2	Vch Range
VCHRANGEMODE	TOGGLE	F	Vch Auto Range
VCHOFFSETENABLE	TOGGLE	T	Vch Offset Enable
VCHOFFSET	QUANT	0	Vch Offset (V)
VCHFILTER	IQUANT	3	Vch Filter
ACHRANGE	IQUANT	2	Ach Range
ACHOFFSETENABLE	TOGGLE	F	Ach Offset Enable
ACHOFFSET	QUANT	0	Ach Offset (V)
ACHFILTER	IQUANT	3	Ach Filter
IERANGELOWERLIMIT	IQUANT	2	I/E Range Lower Limit
IERANGEMODE	TOGGLE	F	I/E AutoRange
IERANGE	IQUANT	11	I/E Range
POSFEEDENABLE	TOGGLE	F	Positive Feedback IR Comp
POSFEEDRESISTANCE	QUANT	0	Positive Feedback Resistance (ohm)
ACHSELECT	IQUANT	0	Ach Select
CABLEID	IQUANT	13	Cable ID
DCCALDATE	LABEL	7/31/2020	DC Calibration Date
ACCALDATE	LABEL	7/31/2020	AC Calibration Date
THERMOSELECT	IQUANT	1	Thermo Select
FRAMEWORKVERSION	QUANT	6.33	Framework Version
INSTRUMENTVERSION	LABEL	3.50	Instrument Version
COMPLIANCEVOLTAGE	IQUANT	0	Compliance Voltage
ZCURVE	TABLE
	Pt	Time	Freq	Zreal	Zimag	Zsig	Zmod	Zphz	Idc	Vdc	IERange
	#	s	Hz	ohm	ohm	V	ohm	°	A	V	#
	0	7	300046.9	106.1399	-3.488862	1	106.1972	-1.882658	4.746408E-005	-0.000704	9
	1	10	238359.4	106.8018	-4.32122	1	106.8892	-2.316933	5.146694E-006	-0.0017401	9
	2	13	189328.1	107.3262	-5.856871	1	107.4859	-3.123576	1.620511E-005	-0.0003071	9
	3	16	150421.9	108.2293	-6.982991	1	108.4543	-3.691628	2.592091E-005	-0.0006621	9
	4	18	119484.4	108.7828	-8.746357	1	109.1339	-4.596807	-7.024294E-005	0.0019588	9
	5	21	94921.88	109.6253	-10.39258	1	110.1168	-5.415508	6.757575E-006	-0.0005818	9
	6	23	75421.88	110.763	-12.73299	1	111.4924	-6.557768	1.493144E-005	0.000107	9
	7	26	59859.37	112.0053	-15.43747	1	113.0641	-7.847522	2.316855E-005	-0.0002799	9
	8	28	47578.12	113.7275	-18.46764	1	115.2171	-9.223472	-1.83457E-005	0.0007982	9
	9	31	37828.12	115.6587	-21.91484	1	117.7166	-10.72913	2.183799E-005	-0.0002968	9
	10	33	30046.88	117.9722	-25.93918	1	120.7903	-12.4006	5.288125E-006	-0.0005068	9
	11	36	23859.38	120.7328	-30.43917	1	124.5109	-14.15052	2.232397E-005	-0.0002453	9
	12	38	18984.38	123.7955	-35.44902	1	128.7709	-15.97915	-1.666951E-005	0.0003744	9
	13	40	15046.87	127.4702	-41.38834	1	134.021	-17.98812	-1.938186E-005	0.000474	9
	14	43	11953.13	131.3443	-48.13904	1	139.8881	-20.12841	2.81977E-006	0.0005163	9
	15	45	9515.62	135.3884	-55.99708	1	146.5117	-22.47015	-1.772981E-005	0.0003581	9
	16	47	7546.875	140.0261	-65.27528	1	154.4933	-24.99328	1.184552E-005	0.0001826	9
	17	50	5928.309	144.9295	-76.98901	1	164.1093	-27.97799	-1.998736E-005	0.0007677	9
	18	52	4733.456	149.7416	-89.91707	1	174.6643	-30.98404	1.938514E-005	-0.000752	9
	19	54	3796.875	154.2227	-105.6911	1	186.9632	-34.4234	-1.595776E-005	0.0001799	9
	20	57	2987.132	159.3708	-126.7015	1	203.5984	-38.48508	1.888698E-005	-0.0001104	9
	21	59	2390.625	163.8297	-151.2859	1	222.9969	-42.72043	-2.071152E-005	0.0007594	9
	22	61	1884.191	168.5203	-183.9928	1	249.5044	-47.51322	1.169249E-005	0.0001889	9
	23	64	1516.544	172.7181	-222.3772	1	281.5727	-52.16389	1.93892E-005	-0.0007284	9
	24	66	1193.986	177.171	-275.1541	1	327.2604	-57.22263	1.933178E-005	-0.0001215	9
	25	68	946.5144	182.3372	-340.681	1	386.407	-61.84369	1.3576E-005	-0.0006806	9
	26	71	751.7689	188.475	-419.804	1	460.172	-65.82185	7.249073E-006	-0.0011578	8
	27	73	597.4265	196.1408	-521.5927	1	557.2523	-69.39162	6.325221E-006	-0.0017665	8
	28	76	477.4305	205.1684	-645.9858	1	677.7845	-72.37988	1.815789E-007	0.0006422	8
	29	78	376.6741	218.316	-810.1628	1	839.0623	-74.91864	1.770921E-007	0.0006417	8
	30	80	298.2954	235.5394	-1012.858	1	1039.884	-76.90858	1.961451E-007	0.0006439	8
	31	82	237.7717	257.8495	-1258.308	1	1284.455	-78.4194	1.943312E-007	0.0006357	8
	32	85	189.0121	288.1155	-1567.046	1	1593.312	-79.582	2.032367E-007	0.0006299	8
	33	87	150.2404	328.742	-1950.604	1	1978.112	-80.43364	1.873914E-007	0.0006377	8
	34	90	119.1737	384.0669	-2431.826	1	2461.968	-81.02521	1.935785E-007	0.0006403	8
	35	92	95.0169	457.4516	-3014.022	1	3048.539	-81.36983	2.006058E-007	0.0006385	8
	36	95	75.60484	556.8583	-3739.829	1	3781.059	-81.53091	2.165939E-007	0.0006316	8
	37	97	54.50582	766.3215	-5093.172	1	5150.5	-81.44343	1.821635E-008	0.0006004	7
	38	100	45.95588	916.3333	-5974.04	1	6043.907	-81.2796	2.658393E-008	0.0006108	7
	39	102	37.20238	1157.237	-7269.779	1	7361.311	-80.95528	2.642464E-008	0.0006049	7
	40	104	30.04808	1480.718	-8848.324	1	8971.363	-80.4999	2.337115E-008	0.0006029	7
	41	107	23.91582	1948.644	-10887.94	1	11060.95	-79.85306	1.830654E-008	0.0006084	7
	42	109	18.60119	2675.49	-13672.86	1	13932.17	-78.92832	2.954211E-008	0.0006059	7
	43	111	15.02404	3516.521	-16532.79	1	16902.63	-77.99214	2.41604E-008	0.0006031	7
	44	114	12.01923	4700.621	-20091.31	1	20633.87	-76.83177	2.8753E-008	0.0006227	7
	45	116	9.450605	6435.472	-24655.93	1	25481.96	-75.37154	2.494621E-008	0.0006143	7
	46	119	7.512019	8672.687	-29820.03	1	31055.59	-73.78376	2.838826E-008	0.0006186	7
	47	121	5.978954	11586.1	-35793.82	1	37622.27	-72.06375	2.588767E-008	0.0006493	7
	48	124	4.734848	15533.8	-42823.79	1	45554.1	-70.06239	7.86984E-009	0.0006556	6
	49	128	3.75601	20506.19	-50705.08	1	54694.69	-67.98057	1.072908E-008	0.0006677	6
	50	131	3.004808	26557.88	-59135.24	1	64825.13	-65.81496	6.850977E-009	0.0006838	6
	51	135	2.372217	34496.01	-68922.95	1	77073.65	-63.41199	8.602064E-009	0.0007067	6
	52	139	1.878005	44406.49	-79319.84	1	90904.2	-60.75811	8.427347E-009	0.0006339	6
	53	144	1.512097	55274.62	-89528.82	1	105217.4	-58.30904	6.990252E-009	0.0007577	6
	54	149	1.201923	69030.98	-100605.1	1	122010.9	-55.54373	7.818997E-009	0.0006392	6
	55	155	0.956633	85080.48	-111597.7	1	140330.8	-52.67863	1.985621E-009	1.526298E-005	6
