EXPLAIN
TAG	EISPOT
TITLE	LABEL	Potentiostatic EIS	Test Identifier
DATE	LABEL	8/21/2020	Date
TIME	LABEL	16:10:48	Time
NOTES	NOTES	1	Notes...
	
PSTAT	PSTAT	REF3000-16137	Potentiostat
VDC	POTEN	0.00000E+000	T	DC Voltage (V)
FREQINIT	QUANT	3.00000E+005	Initial Freq. (Hz)
FREQFINAL	QUANT	1.00000E+000	Final Freq. (Hz)
PTSPERDEC	QUANT	1.00000E+001	Points/decade
VAC	QUANT	5.00000E+001	AC Voltage (mV rms)
AREA	QUANT	1.00000E+000	Sample Area (cm^2)
SPEED	SELECTOR	2	Optimize for:
ZGUESS	QUANT	1.00000E+003	Estimated Z (ohms)
EOC	QUANT	0	Open Circuit (V)
SEQUENCER	TOGGLE	TRUE	Run as Sequence
PSTATMODEL	IQUANT	5	Pstat Model
PSTATSECTION	LABEL	REF3000-16137	Pstat Section
PSTATSERIALNO	LABEL	16137	Pstat Serial Number
CTRLMODE	IQUANT	1	Control Mode
IESTAB	IQUANT	0	I/E Stability
CASPEED	IQUANT	1	Control Amp Speed
CONVENTION	IQUANT	1	Current Convention
ICHRANGE	IQUANT	2	Ich Range
ICHRANGEMODE	TOGGLE	F	Ich Auto Range
ICHOFFSETENABLE	TOGGLE	T	Ich Offset Enable
ICHOFFSET	QUANT	0	Ich Offset (V)
ICHFILTER	IQUANT	3	Ich Filter
VCHRANGE	IQUANT	2	Vch Range
VCHRANGEMODE	TOGGLE	F	Vch Auto Range
VCHOFFSETENABLE	TOGGLE	T	Vch Offset Enable
VCHOFFSET	QUANT	0	Vch Offset (V)
VCHFILTER	IQUANT	3	Vch Filter
ACHRANGE	IQUANT	2	Ach Range
ACHOFFSETENABLE	TOGGLE	F	Ach Offset Enable
ACHOFFSET	QUANT	0	Ach Offset (V)
ACHFILTER	IQUANT	3	Ach Filter
IERANGELOWERLIMIT	IQUANT	2	I/E Range Lower Limit
IERANGEMODE	TOGGLE	F	I/E AutoRange
IERANGE	IQUANT	11	I/E Range
POSFEEDENABLE	TOGGLE	F	Positive Feedback IR Comp
POSFEEDRESISTANCE	QUANT	0	Positive Feedback Resistance (ohm)
ACHSELECT	IQUANT	0	Ach Select
CABLEID	IQUANT	13	Cable ID
DCCALDATE	LABEL	7/31/2020	DC Calibration Date
ACCALDATE	LABEL	7/31/2020	AC Calibration Date
THERMOSELECT	IQUANT	1	Thermo Select
FRAMEWORKVERSION	QUANT	6.33	Framework Version
INSTRUMENTVERSION	LABEL	3.50	Instrument Version
COMPLIANCEVOLTAGE	IQUANT	0	Compliance Voltage
ZCURVE	TABLE
	Pt	Time	Freq	Zreal	Zimag	Zsig	Zmod	Zphz	Idc	Vdc	IERange
	#	s	Hz	ohm	ohm	V	ohm	°	A	V	#
	0	12	300046.9	286.9645	-17.53006	1	287.4995	-3.495734	1.498997E-005	-0.0011845	9
	1	17	238359.4	285.051	-19.8612	1	285.7421	-3.985695	1.85609E-005	0.0003236	10
	2	22	189328.1	290.5975	-19.81038	1	291.2719	-3.899889	1.683006E-005	0.0005126	10
	3	26	150421.9	293.1921	-16.80071	1	293.6731	-3.279618	-3.041392E-005	-0.0006887	9
	4	31	119484.4	294.5871	-17.10826	1	295.0835	-3.323741	-3.639153E-006	-0.0015145	9
	5	35	94921.88	296.4374	-18.30986	1	297.0024	-3.534461	6.568053E-006	-0.0006013	9
	6	37	75421.88	298.5375	-20.6466	1	299.2506	-3.956228	1.21776E-005	-0.0007346	9
	7	41	59859.37	301.0347	-23.47072	1	301.9482	-4.458152	1.138503E-005	0.0003275	9
	8	44	47578.12	303.226	-27.41485	1	304.4627	-5.166103	-2.221415E-005	0.0004405	9
	9	46	37828.12	306.1199	-31.6033	1	307.7469	-5.894237	-9.275393E-006	-0.0001394	9
	10	49	30046.88	309.3827	-37.3628	1	311.6306	-6.886016	-4.025136E-006	-0.0003949	9
	11	51	23859.38	313.5841	-43.93866	1	316.6474	-7.97622	1.180014E-005	-0.000756	9
	12	54	18984.38	318.1252	-51.84782	1	322.3226	-9.256639	2.688602E-005	-0.0004475	9
	13	56	15046.87	323.6661	-59.56685	1	329.1017	-10.42791	2.684893E-005	-0.0004819	9
	14	58	11953.13	330.2421	-71.44585	1	337.8822	-12.20746	2.286293E-005	-0.0008814	9
	15	61	9515.62	338.2995	-83.74798	1	348.5115	-13.90436	-1.768978E-005	0.0010946	9
	16	63	7546.875	347.1755	-97.5617	1	360.6232	-15.69619	-9.467815E-006	-0.0001058	9
	17	65	5928.309	357.4747	-115.129	1	375.5567	-17.85178	2.344931E-005	-0.0008787	9
	18	68	4733.456	368.2597	-132.4777	1	391.3637	-19.78568	2.233407E-005	-0.0008467	9
	19	70	3796.875	378.6474	-152.1808	1	408.0844	-21.89552	-6.017309E-006	-1.335554E-005	8
	20	72	2987.132	392.532	-178.7696	1	431.3235	-24.48579	-7.631258E-006	0.0053511	8
	21	75	2390.625	405.7755	-207.8371	1	455.9057	-27.1214	2.757789E-007	0.0035458	8
	22	77	1884.191	420.7014	-243.4169	1	486.0467	-30.05358	-1.195451E-005	0.0042077	8
	23	79	1516.544	434.8096	-286.961	1	520.9664	-33.42359	-1.177335E-005	0.0050802	8
	24	82	1193.986	450.0702	-342.2238	1	565.4028	-37.24858	-1.133908E-005	0.0025754	8
	25	84	946.5144	463.7147	-408.8329	1	618.2036	-41.40093	-6.201611E-006	9.488489E-005	8
	26	87	751.7689	478.3333	-493.3058	1	687.1342	-45.88283	9.408406E-007	0.0033394	8
	27	89	597.4265	491.2852	-599.0482	1	774.7386	-50.64449	1.220946E-005	-0.0041219	8
	28	92	477.4305	504.5663	-730.6829	1	887.9666	-55.37334	-5.577106E-008	0.0006468	8
	29	94	376.6741	519.7828	-905.6125	1	1044.178	-60.14602	-5.954646E-008	0.000637	8
	30	96	298.2954	536.9717	-1123.724	1	1245.429	-64.45918	-5.720213E-008	0.0006432	8
	31	98	237.7717	557.1257	-1390.234	1	1497.712	-68.16193	-5.062109E-008	0.0006339	8
	32	101	189.0121	582.5262	-1727.962	1	1823.51	-71.37013	-4.734871E-008	0.0006466	8
	33	103	150.2404	615.0544	-2150.334	1	2236.567	-74.03802	-6.434667E-008	0.0006589	8
	34	106	119.1737	657.2277	-2683.581	1	2762.889	-76.23872	-5.579593E-008	0.000653	8
	35	108	95.0169	712.4747	-3333.901	1	3409.181	-77.937	-5.733004E-008	0.0006423	8
	36	111	75.60484	785.556	-4149.583	1	4223.286	-79.28022	-4.674274E-008	0.0006821	8
	37	113	54.50582	935.9375	-5684.655	1	5761.188	-80.65054	-1.538268E-008	0.0005946	7
	38	116	45.95588	1042.26	-6691.465	1	6772.15	-81.14677	-1.53887E-008	0.0006201	7
	39	118	37.20238	1209.685	-8181.96	1	8270.901	-81.58987	-1.393625E-008	0.00061	7
	40	120	30.04808	1433.548	-10021.62	1	10123.64	-81.85932	-1.381901E-008	0.0006077	7
	41	123	23.91582	1754.203	-12431.74	1	12554.9	-81.9682	-1.920423E-008	0.0006164	7
	42	125	18.60119	2246.575	-15757.24	1	15916.58	-81.88579	-1.565098E-008	0.0006249	7
	43	127	15.02404	2805.091	-19244.37	1	19447.74	-81.70688	-1.426813E-008	0.0005991	7
	44	130	12.01923	3605.149	-23689.31	1	23962.06	-81.34686	-1.51601E-008	0.0006216	7
	45	132	9.450605	4787.172	-29593.22	1	29977.92	-80.8111	-1.416426E-008	0.0005919	7
	46	135	7.512019	6327.273	-36510.12	1	37054.33	-80.16818	-1.475077E-008	0.0005847	7
	47	137	5.978954	8448.692	-44850.57	1	45639.39	-79.33196	-1.569483E-009	0.0006452	6
	48	140	4.734848	11425.11	-55212.32	1	56382.03	-78.30877	-5.913294E-010	0.0006334	6
	49	144	3.75601	15368.63	-67566.62	1	69292.45	-77.18559	-9.800514E-010	0.0006493	6
	50	147	3.004808	20428.21	-81640	1	84157	-75.95173	1.269496E-010	0.0006323	6
	51	151	2.372217	27517.05	-99373.5	1	103113	-74.52232	-1.29801E-009	0.0005847	6
	52	155	1.878005	36685.27	-119818.4	1	125308.7	-72.97678	-5.195634E-010	0.0006689	6
	53	160	1.512097	47371.78	-141579.5	1	149294.4	-71.50002	-7.229929E-010	0.0006024	6
	54	165	1.201923	61663.81	-168796.3	1	179707	-69.93199	-8.62792E-010	0.0006835	6
	55	171	0.956633	79293.99	-199620.6	1	214792.8	-68.33586	-2.410164E-009	1.43617E-005	6
