EXPLAIN
TAG	EISPOT
TITLE	LABEL	Potentiostatic EIS	Test Identifier
DATE	LABEL	8/21/2020	Date
TIME	LABEL	17:04:52	Time
NOTES	NOTES	1	Notes...
	
PSTAT	PSTAT	REF3000-16137	Potentiostat
VDC	POTEN	0.00000E+000	T	DC Voltage (V)
FREQINIT	QUANT	3.00000E+005	Initial Freq. (Hz)
FREQFINAL	QUANT	1.00000E+000	Final Freq. (Hz)
PTSPERDEC	QUANT	1.00000E+001	Points/decade
VAC	QUANT	5.00000E+001	AC Voltage (mV rms)
AREA	QUANT	1.00000E+000	Sample Area (cm^2)
SPEED	SELECTOR	2	Optimize for:
ZGUESS	QUANT	1.00000E+003	Estimated Z (ohms)
EOC	QUANT	0	Open Circuit (V)
SEQUENCER	TOGGLE	TRUE	Run as Sequence
PSTATMODEL	IQUANT	5	Pstat Model
PSTATSECTION	LABEL	REF3000-16137	Pstat Section
PSTATSERIALNO	LABEL	16137	Pstat Serial Number
CTRLMODE	IQUANT	1	Control Mode
IESTAB	IQUANT	0	I/E Stability
CASPEED	IQUANT	1	Control Amp Speed
CONVENTION	IQUANT	1	Current Convention
ICHRANGE	IQUANT	2	Ich Range
ICHRANGEMODE	TOGGLE	F	Ich Auto Range
ICHOFFSETENABLE	TOGGLE	T	Ich Offset Enable
ICHOFFSET	QUANT	0	Ich Offset (V)
ICHFILTER	IQUANT	3	Ich Filter
VCHRANGE	IQUANT	2	Vch Range
VCHRANGEMODE	TOGGLE	F	Vch Auto Range
VCHOFFSETENABLE	TOGGLE	T	Vch Offset Enable
VCHOFFSET	QUANT	0	Vch Offset (V)
VCHFILTER	IQUANT	3	Vch Filter
ACHRANGE	IQUANT	2	Ach Range
ACHOFFSETENABLE	TOGGLE	F	Ach Offset Enable
ACHOFFSET	QUANT	0	Ach Offset (V)
ACHFILTER	IQUANT	3	Ach Filter
IERANGELOWERLIMIT	IQUANT	2	I/E Range Lower Limit
IERANGEMODE	TOGGLE	F	I/E AutoRange
IERANGE	IQUANT	11	I/E Range
POSFEEDENABLE	TOGGLE	F	Positive Feedback IR Comp
POSFEEDRESISTANCE	QUANT	0	Positive Feedback Resistance (ohm)
ACHSELECT	IQUANT	0	Ach Select
CABLEID	IQUANT	13	Cable ID
DCCALDATE	LABEL	7/31/2020	DC Calibration Date
ACCALDATE	LABEL	7/31/2020	AC Calibration Date
THERMOSELECT	IQUANT	1	Thermo Select
FRAMEWORKVERSION	QUANT	6.33	Framework Version
INSTRUMENTVERSION	LABEL	3.50	Instrument Version
COMPLIANCEVOLTAGE	IQUANT	0	Compliance Voltage
ZCURVE	TABLE
	Pt	Time	Freq	Zreal	Zimag	Zsig	Zmod	Zphz	Idc	Vdc	IERange
	#	s	Hz	ohm	ohm	V	ohm	°	A	V	#
	0	17	300046.9	88.68556	-4774.972	1	4775.795	-88.93597	-9.071423E-005	0.0021139	9
	1	32	238359.4	383.9144	-5986.842	1	5999.139	-86.33086	-2.15991E-005	0.0010609	9
	2	50	189328.1	501.5532	-7591.852	1	7608.401	-86.22027	-6.253095E-005	0.0005288	9
	3	57	150421.9	252.857	-9095.577	1	9099.091	-88.40759	-2.765791E-005	-0.001046	9
	4	65	119484.4	857.6818	-11630.6	1	11662.18	-85.78244	2.264325E-005	-0.0184441	8
	5	72	94921.88	1225.629	-14497.86	1	14549.58	-85.16779	-9.569284E-006	-0.0021962	8
	6	81	75421.88	1518.942	-17961.93	1	18026.04	-85.16631	1.637671E-005	-0.0093546	8
	7	89	59859.37	1898.777	-22777.81	1	22856.81	-85.23479	8.206167E-006	0.0042668	8
	8	98	47578.12	6162.877	-29336.16	1	29976.51	-78.13595	-1.632097E-006	0.0220421	7
	9	104	37828.12	7521.774	-36287.23	1	37058.6	-78.28932	4.08836E-007	0.0165653	7
	10	112	30046.88	8697.219	-44625.24	1	45464.86	-78.97161	7.653065E-006	-0.0185994	7
	11	119	23859.38	11439.72	-55870.11	1	57029.26	-78.42831	-3.391086E-006	-0.0052259	7
	12	125	18984.38	15817.46	-68284.22	1	70092.27	-76.95795	-3.374243E-006	-0.0055366	7
	13	130	15046.87	20661.49	-83172.16	1	85700.09	-76.04908	-9.999411E-007	-0.0137202	7
	14	135	11953.13	29988.77	-104948.6	1	109149.1	-74.05285	-1.819448E-006	0.0223944	7
	15	141	9515.62	42025.05	-127856.4	1	134585.9	-71.80486	3.590624E-006	-0.0248882	7
	16	147	7546.875	59603.28	-159220	1	170010.5	-69.47684	3.582701E-007	0.0166899	7
	17	154	5928.309	89011.31	-186463.4	1	206619.5	-64.48177	-1.839152E-006	0.0223351	7
	18	159	4733.456	111962.6	-223759.6	1	250207.8	-63.418	4.965932E-006	-0.0006073	7
	19	164	3796.875	157749.9	-257580.1	1	302047.3	-58.51543	7.642135E-006	-0.0185659	7
	20	172	2987.132	233178.5	-253119.5	1	344153.6	-47.34814	-5.454227E-006	0.027003	7
	21	178	2390.625	502043.1	2911.093	1	502051.6	0.3322254	-2.529691E-005	0.0112129	8
	22	186	1884.191	157063.1	-324478.8	1	360493.2	-64.17081	-2.653403E-005	0.0076008	8
	23	194	1516.544	286998.9	13831.86	1	287332.1	2.759225	-1.22927E-005	0.0103697	8
	24	202	1193.986	535864.1	-401745.8	1	669738.8	-36.85948	6.908527E-006	-0.0272182	7
	25	209	946.5144	210695.9	-681216	1	713055.4	-72.81348	-3.372557E-006	-0.0055021	7
	26	214	751.7689	91729.34	-179127	1	201248	-62.88342	2.585838E-005	-0.0088878	8
	27	222	597.4265	75120.44	-443234.1	1	449554.8	-80.38078	8.3669E-006	0.0042492	8
	28	230	477.4305	681360.1	-189940.2	1	707339.3	-15.57668	-9.513499E-008	0.0006572	7
	29	236	376.6741	751381.3	-82451.79	1	755891.6	-6.262218	-1.162582E-009	0.0006775	5
	30	238	298.2954	761074.6	-67022.63	1	764020.1	-5.032664	-9.261943E-010	0.000615	5
	31	241	237.7717	765084.1	-60454.38	1	767468.8	-4.517933	-1.099696E-009	0.0005889	5
	32	243	189.0121	774693.9	-54026.2	1	776575.4	-3.989279	-1.070673E-009	0.0006814	5
	33	246	150.2404	784047.1	-48636.05	1	785554.2	-3.549627	-1.122478E-009	0.0006238	5
	34	249	119.1737	770785.4	-40872.94	1	771868.3	-3.035418	-9.694701E-010	0.0006253	5
	35	251	95.0169	807487.7	-49512.91	1	809004.3	-3.508826	-1.008374E-009	0.0005958	5
	36	254	75.60484	819216.9	-52555.61	1	820900.9	-3.670693	-1.238655E-009	0.0006377	5
	37	256	54.50582	838157.1	-48539.95	1	839561.5	-3.314451	-1.269582E-009	0.000671	5
	38	259	45.95588	844954.9	-61250.93	1	847172.1	-4.146129	-9.900892E-010	0.0006228	5
	39	261	37.20238	858304.8	-67926.4	1	860988.4	-4.524968	-9.001295E-010	0.0006874	5
	40	264	30.04808	872353.5	-75553.87	1	875619.2	-4.949991	-1.291934E-009	0.0005915	5
	41	266	23.91582	888719.6	-87179.63	1	892985.3	-5.602549	-9.283257E-010	0.0006139	5
	42	269	18.60119	911770.2	-105109.5	1	917808.8	-6.576066	-1.665409E-009	0.0005974	5
	43	271	15.02404	925232.4	-119290.6	1	932890.8	-7.346639	-1.546213E-009	0.0006014	5
	44	274	12.01923	945202.8	-137747.8	1	955187	-8.291549	-4.08675E-010	0.0006411	5
	45	277	9.450605	969239	-163576.7	1	982945	-9.57944	-2.839194E-010	0.0006858	5
	46	279	7.512019	997591	-192827.5	1	1016056	-10.93997	-5.931367E-010	0.0006928	5
	47	282	5.978954	1033495	-226461.4	1	1058016	-12.35942	-7.231529E-010	0.0006258	5
	48	286	4.734848	1075539	-265964.1	1	1107936	-13.88972	-1.188687E-009	0.0006716	5
	49	290	3.75601	1124644	-311473.2	1	1166978	-15.48022	-1.208625E-009	0.0006708	5
	50	296	3.004808	1183640	-362422.3	1	1237883	-17.02423	-9.454322E-010	0.0006598	5
	51	302	2.372217	1251140	-424187.3	1	1321092	-18.72875	-1.547599E-009	0.0006	5
	52	306	1.878005	1315585	-495141.3	1	1405678	-20.62462	-1.323743E-009	0.0006484	5
	53	311	1.512097	1385962	-572795.3	1	1499662	-22.4545	-1.151135E-009	0.0005332	5
	54	316	1.201923	1473402	-671930	1	1619384	-24.51488	-1.325365E-009	0.0006542	5
	55	322	0.956633	1570241	-789922.6	1	1757736	-26.70505	-1.420462E-009	-7.778924E-006	5
