EXPLAIN
TAG	EISPOT
TITLE	LABEL	Potentiostatic EIS	Test Identifier
DATE	LABEL	8/21/2020	Date
TIME	LABEL	18:41:20	Time
NOTES	NOTES	1	Notes...
	
PSTAT	PSTAT	REF3000-16137	Potentiostat
VDC	POTEN	0.00000E+000	T	DC Voltage (V)
FREQINIT	QUANT	3.00000E+005	Initial Freq. (Hz)
FREQFINAL	QUANT	1.00000E+000	Final Freq. (Hz)
PTSPERDEC	QUANT	1.00000E+001	Points/decade
VAC	QUANT	5.00000E+001	AC Voltage (mV rms)
AREA	QUANT	1.00000E+000	Sample Area (cm^2)
SPEED	SELECTOR	2	Optimize for:
ZGUESS	QUANT	1.00000E+003	Estimated Z (ohms)
EOC	QUANT	0	Open Circuit (V)
SEQUENCER	TOGGLE	TRUE	Run as Sequence
PSTATMODEL	IQUANT	5	Pstat Model
PSTATSECTION	LABEL	REF3000-16137	Pstat Section
PSTATSERIALNO	LABEL	16137	Pstat Serial Number
CTRLMODE	IQUANT	1	Control Mode
IESTAB	IQUANT	0	I/E Stability
CASPEED	IQUANT	1	Control Amp Speed
CONVENTION	IQUANT	1	Current Convention
ICHRANGE	IQUANT	2	Ich Range
ICHRANGEMODE	TOGGLE	F	Ich Auto Range
ICHOFFSETENABLE	TOGGLE	T	Ich Offset Enable
ICHOFFSET	QUANT	0	Ich Offset (V)
ICHFILTER	IQUANT	3	Ich Filter
VCHRANGE	IQUANT	2	Vch Range
VCHRANGEMODE	TOGGLE	F	Vch Auto Range
VCHOFFSETENABLE	TOGGLE	T	Vch Offset Enable
VCHOFFSET	QUANT	0	Vch Offset (V)
VCHFILTER	IQUANT	3	Vch Filter
ACHRANGE	IQUANT	2	Ach Range
ACHOFFSETENABLE	TOGGLE	F	Ach Offset Enable
ACHOFFSET	QUANT	0	Ach Offset (V)
ACHFILTER	IQUANT	3	Ach Filter
IERANGELOWERLIMIT	IQUANT	2	I/E Range Lower Limit
IERANGEMODE	TOGGLE	F	I/E AutoRange
IERANGE	IQUANT	11	I/E Range
POSFEEDENABLE	TOGGLE	F	Positive Feedback IR Comp
POSFEEDRESISTANCE	QUANT	0	Positive Feedback Resistance (ohm)
ACHSELECT	IQUANT	0	Ach Select
CABLEID	IQUANT	13	Cable ID
DCCALDATE	LABEL	7/31/2020	DC Calibration Date
ACCALDATE	LABEL	7/31/2020	AC Calibration Date
THERMOSELECT	IQUANT	1	Thermo Select
FRAMEWORKVERSION	QUANT	6.33	Framework Version
INSTRUMENTVERSION	LABEL	3.50	Instrument Version
COMPLIANCEVOLTAGE	IQUANT	0	Compliance Voltage
ZCURVE	TABLE
	Pt	Time	Freq	Zreal	Zimag	Zsig	Zmod	Zphz	Idc	Vdc	IERange
	#	s	Hz	ohm	ohm	V	ohm	°	A	V	#
	0	7	300046.9	50.80096	-1.596292	1	50.82604	-1.799783	6.055017E-005	-0.0025409	9
	1	10	238359.4	51.06168	-2.787012	1	51.13768	-3.124177	1.406761E-005	-0.0008855	9
	2	13	189328.1	51.4111	-3.964871	1	51.56376	-4.409974	-6.187412E-005	0.0019304	9
	3	15	150421.9	51.81422	-5.072791	1	52.06195	-5.591634	5.84847E-005	-0.0018888	9
	4	18	119484.4	52.29958	-6.548621	1	52.70797	-7.137069	-5.142423E-005	0.0015784	9
	5	20	94921.88	53.07829	-7.907884	1	53.66414	-8.473897	1.053514E-005	-0.0005565	9
	6	23	75421.88	53.83715	-9.69515	1	54.70315	-10.20857	-2.031653E-006	0.000471	9
	7	26	59859.37	54.8256	-11.69423	1	56.05891	-12.04068	4.746865E-006	0.000312	9
	8	28	47578.12	56.00315	-13.90078	1	57.70256	-13.93991	4.270703E-006	-0.0003627	9
	9	31	37828.12	57.36087	-16.33587	1	59.64169	-15.89649	-1.254648E-005	0.0006937	9
	10	33	30046.88	58.89601	-19.0916	1	61.91307	-17.9605	-8.351198E-006	6.404775E-005	9
	11	36	23859.38	60.57405	-22.29535	1	64.54687	-20.20703	4.818435E-006	0.0003377	9
	12	38	18984.38	62.39863	-25.96749	1	67.58624	-22.59487	6.108331E-006	-0.0003942	9
	13	40	15046.87	64.40057	-30.43626	1	71.23061	-25.29582	-8.783192E-006	0.000582	9
	14	43	11953.13	66.35532	-35.63327	1	75.31771	-28.23611	2.052575E-005	-0.0004315	9
	15	45	9515.62	68.42196	-41.96458	1	80.26575	-31.52164	-1.738499E-005	0.0005626	9
	16	47	7546.875	70.49215	-49.71527	1	86.25979	-35.19378	1.700088E-005	-0.0001814	9
	17	49	5928.309	72.58288	-59.93721	1	94.13152	-39.54908	-8.652188E-006	8.1286E-005	9
	18	52	4733.456	74.35313	-71.91049	1	103.4384	-44.04324	3.985928E-006	0.000323	9
	19	54	3796.875	76.27438	-86.44422	1	115.2839	-48.57631	-1.558389E-005	0.000479	9
	20	56	2987.132	78.15003	-106.7656	1	132.3115	-53.79671	1.521384E-005	-0.0005469	9
	21	59	2390.625	80.34302	-130.4985	1	153.2477	-58.38096	1.927671E-005	-0.0004712	9
	22	61	1884.191	82.74731	-162.7518	1	182.5794	-63.05001	-1.562748E-005	0.0006416	9
	23	63	1516.544	85.43449	-199.3448	1	216.8811	-66.80117	-1.328267E-005	0.0006843	9
	24	66	1193.986	89.35164	-249.632	1	265.1412	-70.30602	1.853315E-005	-0.0005389	9
	25	68	946.5144	95.4422	-311.0003	1	325.3159	-72.93939	-1.489977E-005	0.0006732	9
	26	71	751.7689	100.3284	-388.3724	1	401.122	-75.51543	-1.2925E-005	0.0006724	9
	27	73	597.4265	110.0467	-481.322	1	493.742	-77.12157	3.284669E-006	-0.0006	8
	28	75	477.4305	122.3767	-596.2296	1	608.659	-78.40108	3.269839E-007	0.0006422	8
	29	78	376.6741	140.062	-747.2885	1	760.3009	-79.38439	3.397176E-007	0.0006477	8
	30	80	298.2954	164.1489	-932.6879	1	947.0225	-80.01842	3.404559E-007	0.0006429	8
	31	82	237.7717	196.4757	-1155.718	1	1172.3	-80.35178	3.509148E-007	0.0006453	8
	32	85	189.0121	241.6937	-1434.078	1	1454.302	-80.43349	3.503246E-007	0.0006469	8
	33	87	150.2404	304.4244	-1776.761	1	1802.652	-80.27753	3.455428E-007	0.0006512	8
	34	89	119.1737	392.1776	-2201.824	1	2236.478	-79.90068	3.433614E-007	0.0006403	8
	35	92	95.0169	511.9745	-2709.431	1	2757.378	-79.29955	3.500323E-007	0.0006399	8
	36	94	75.60484	677.9186	-3332.844	1	3401.091	-78.50258	3.5978E-007	0.0006352	8
	37	97	54.50582	1033.345	-4454.798	1	4573.077	-76.94051	3.399005E-007	0.0006353	8
	38	99	45.95588	1296.965	-5176.983	1	5336.972	-75.93543	3.439989E-008	0.0006139	7
	39	102	37.20238	1717.505	-6192.81	1	6426.563	-74.49926	2.916195E-008	0.0006155	7
	40	104	30.04808	2281.36	-7376.451	1	7721.181	-72.81441	2.007803E-008	0.000615	7
	41	107	23.91582	3081.869	-8837.528	1	9359.478	-70.77505	2.476602E-008	0.0006196	7
	42	109	18.60119	4253.991	-10651.39	1	11469.46	-68.22904	2.391689E-008	0.0006125	7
	43	111	15.02404	5567.586	-12357.12	1	13553.46	-65.74571	3.717912E-008	0.0006226	7
	44	114	12.01923	7276.761	-14270.75	1	16018.91	-62.98263	1.130705E-008	0.0006163	7
	45	116	9.450605	9589.86	-16361.68	1	18964.97	-59.62469	2.718848E-008	0.0006216	7
	46	119	7.512019	12229.81	-18354.31	1	22055.59	-56.32376	1.812434E-008	0.0006227	7
	47	121	5.978954	15347.05	-20078.58	1	25272.15	-52.60753	2.368166E-008	0.0006221	7
	48	124	4.734848	18948.65	-21490.88	1	28651.52	-48.59717	2.659372E-008	0.0006475	7
	49	128	3.75601	22802.45	-22168.93	1	31802.73	-44.19292	1.04972E-008	0.0006016	7
	50	133	3.004808	26485.98	-22200.19	1	34559.45	-39.96928	1.271174E-008	0.0006188	7
	51	139	2.372217	30215.38	-21802.27	1	37260.01	-35.81278	1.137394E-008	0.0006435	7
	52	147	1.878005	33577.69	-20742.71	1	39467.98	-31.7058	-3.071791E-008	0.0006722	6
	53	156	1.512097	36270.14	-19795.5	1	41320.51	-28.62481	-2.969908E-008	0.0006557	6
	54	167	1.201923	38821.13	-18552.47	1	43026.43	-25.54296	-3.100738E-008	0.0006396	6
	55	180	0.956633	41264.44	-17471.49	1	44810.79	-22.94795	-5.013051E-008	2.85791E-005	6
