EXPLAIN
TAG	EISPOT
TITLE	LABEL	Potentiostatic EIS	Test Identifier
DATE	LABEL	8/21/2020	Date
TIME	LABEL	18:31:49	Time
NOTES	NOTES	1	Notes...
	
PSTAT	PSTAT	REF3000-16137	Potentiostat
VDC	POTEN	0.00000E+000	T	DC Voltage (V)
FREQINIT	QUANT	3.00000E+005	Initial Freq. (Hz)
FREQFINAL	QUANT	1.00000E+000	Final Freq. (Hz)
PTSPERDEC	QUANT	1.00000E+001	Points/decade
VAC	QUANT	5.00000E+001	AC Voltage (mV rms)
AREA	QUANT	1.00000E+000	Sample Area (cm^2)
SPEED	SELECTOR	2	Optimize for:
ZGUESS	QUANT	1.00000E+003	Estimated Z (ohms)
EOC	QUANT	0	Open Circuit (V)
SEQUENCER	TOGGLE	TRUE	Run as Sequence
PSTATMODEL	IQUANT	5	Pstat Model
PSTATSECTION	LABEL	REF3000-16137	Pstat Section
PSTATSERIALNO	LABEL	16137	Pstat Serial Number
CTRLMODE	IQUANT	1	Control Mode
IESTAB	IQUANT	0	I/E Stability
CASPEED	IQUANT	1	Control Amp Speed
CONVENTION	IQUANT	1	Current Convention
ICHRANGE	IQUANT	2	Ich Range
ICHRANGEMODE	TOGGLE	F	Ich Auto Range
ICHOFFSETENABLE	TOGGLE	T	Ich Offset Enable
ICHOFFSET	QUANT	0	Ich Offset (V)
ICHFILTER	IQUANT	3	Ich Filter
VCHRANGE	IQUANT	2	Vch Range
VCHRANGEMODE	TOGGLE	F	Vch Auto Range
VCHOFFSETENABLE	TOGGLE	T	Vch Offset Enable
VCHOFFSET	QUANT	0	Vch Offset (V)
VCHFILTER	IQUANT	3	Vch Filter
ACHRANGE	IQUANT	2	Ach Range
ACHOFFSETENABLE	TOGGLE	F	Ach Offset Enable
ACHOFFSET	QUANT	0	Ach Offset (V)
ACHFILTER	IQUANT	3	Ach Filter
IERANGELOWERLIMIT	IQUANT	2	I/E Range Lower Limit
IERANGEMODE	TOGGLE	F	I/E AutoRange
IERANGE	IQUANT	11	I/E Range
POSFEEDENABLE	TOGGLE	F	Positive Feedback IR Comp
POSFEEDRESISTANCE	QUANT	0	Positive Feedback Resistance (ohm)
ACHSELECT	IQUANT	0	Ach Select
CABLEID	IQUANT	13	Cable ID
DCCALDATE	LABEL	7/31/2020	DC Calibration Date
ACCALDATE	LABEL	7/31/2020	AC Calibration Date
THERMOSELECT	IQUANT	1	Thermo Select
FRAMEWORKVERSION	QUANT	6.33	Framework Version
INSTRUMENTVERSION	LABEL	3.50	Instrument Version
COMPLIANCEVOLTAGE	IQUANT	0	Compliance Voltage
ZCURVE	TABLE
	Pt	Time	Freq	Zreal	Zimag	Zsig	Zmod	Zphz	Idc	Vdc	IERange
	#	s	Hz	ohm	ohm	V	ohm	°	A	V	#
	0	6	300046.9	51.79498	-1.603693	1	51.81981	-1.773444	-2.917404E-005	-0.0005342	9
	1	10	238359.4	51.97576	-2.768359	1	52.04943	-3.048836	5.675666E-005	-0.0018534	9
	2	13	189328.1	52.22571	-3.929591	1	52.37334	-4.302967	-4.976677E-006	0.0005678	9
	3	15	150421.9	52.79621	-5.198698	1	53.05154	-5.62363	-1.817183E-005	-0.0004385	9
	4	18	119484.4	53.13828	-6.533802	1	53.53847	-7.009816	-6.210506E-006	0.0006997	9
	5	20	94921.88	53.86068	-7.899512	1	54.43689	-8.343835	4.133755E-006	-0.0004033	9
	6	23	75421.88	54.63377	-9.71496	1	55.4908	-10.08292	-1.664687E-005	0.0004782	9
	7	26	59859.37	55.58735	-11.68697	1	56.80262	-11.87323	-1.27912E-005	0.0006801	9
	8	28	47578.12	56.75134	-13.9079	1	58.43068	-13.76994	1.181404E-005	8.300492E-005	9
	9	31	37828.12	58.09578	-16.34222	1	60.35054	-15.71118	-8.14547E-006	4.103651E-005	9
	10	33	30046.88	59.64808	-19.15284	1	62.64762	-17.80169	-1.341594E-005	0.0006385	9
	11	36	23859.38	61.31618	-22.3455	1	65.26098	-20.0233	2.132343E-005	-0.0003863	9
	12	38	18984.38	63.1314	-26.02444	1	68.28503	-22.40276	-1.603463E-005	0.0003788	9
	13	40	15046.87	65.09274	-30.47853	1	71.87492	-25.09052	2.054802E-005	-0.0004826	9
	14	43	11953.13	67.11195	-35.68674	1	76.01024	-28.00179	1.564271E-005	-0.0005594	9
	15	45	9515.62	69.15788	-41.93288	1	80.87756	-31.22992	2.278002E-005	-0.0003432	9
	16	47	7546.875	71.23934	-49.70948	1	86.86816	-34.90661	-2.034913E-006	0.000527	9
	17	49	5928.309	73.32975	-59.81415	1	94.63078	-39.20369	-1.686816E-005	0.0005687	9
	18	52	4733.456	75.24487	-71.69888	1	103.9352	-43.61763	-1.595823E-005	0.0004524	9
	19	54	3796.875	77.06989	-86.20979	1	115.6369	-48.2039	-4.816783E-007	-0.0001785	9
	20	56	2987.132	78.95903	-106.3445	1	132.4526	-53.40672	2.074456E-005	-0.0005079	9
	21	59	2390.625	81.44302	-129.6779	1	153.1317	-57.8695	-6.44486E-008	-0.0002346	9
	22	61	1884.191	84.00476	-161.958	1	182.4478	-62.58503	1.90297E-005	-0.0005612	9
	23	63	1516.544	86.62733	-198.2984	1	216.3945	-66.40173	-8.73765E-006	0.0006254	9
	24	66	1193.986	90.43137	-248.7982	1	264.7232	-70.02518	-1.291915E-005	0.0006761	9
	25	68	946.5144	97.3773	-308.6752	1	323.6707	-72.49115	-2.713481E-006	-0.0001317	9
	26	71	751.7689	102.7257	-386.1964	1	399.6251	-75.10461	1.987666E-005	-0.0002654	9
	27	73	597.4265	111.7103	-478.7682	1	491.6281	-76.86624	-2.682165E-006	0.0010403	8
	28	75	477.4305	124.0251	-592.5248	1	605.3659	-78.17774	3.554099E-007	0.0006482	8
	29	77	376.6741	142.0744	-742.419	1	755.8909	-79.16647	3.545339E-007	0.0006387	8
	30	80	298.2954	166.6031	-926.2861	1	941.1496	-79.80372	3.48146E-007	0.0006497	8
	31	82	237.7717	199.581	-1147.215	1	1164.446	-80.13102	3.372608E-007	0.000643	8
	32	85	189.0121	245.6297	-1422.991	1	1444.035	-80.2064	3.500807E-007	0.0006449	8
	33	87	150.2404	309.3694	-1762.193	1	1789.143	-80.04266	3.406214E-007	0.0006513	8
	34	89	119.1737	398.7471	-2182.192	1	2218.324	-79.64471	3.617681E-007	0.0006445	8
	35	92	95.0169	520.1509	-2683.468	1	2733.415	-79.03009	3.540218E-007	0.0006428	8
	36	94	75.60484	688.1249	-3298.123	1	3369.144	-78.2148	3.510808E-007	0.0006383	8
	37	97	54.50582	1047.701	-4401.394	1	4524.373	-76.61058	3.519659E-007	0.0006381	8
	38	99	45.95588	1311.129	-5110.771	1	5276.271	-75.6115	3.283506E-008	0.0006222	7
	39	102	37.20238	1733.041	-6104.85	1	6346.072	-74.15185	2.962974E-008	0.0006215	7
	40	104	30.04808	2299.562	-7264.628	1	7619.896	-72.43522	2.775146E-008	0.0006097	7
	41	107	23.91582	3085.967	-8670.593	1	9203.389	-70.40875	2.658014E-008	0.0006132	7
	42	109	18.60119	4263.766	-10455.71	1	11291.66	-67.81471	3.499933E-008	0.0006265	7
	43	111	15.02404	5557.169	-12107.19	1	13321.64	-65.345	3.859975E-008	0.0006154	7
	44	113	12.01923	7251.957	-13950.7	1	15723	-62.53334	1.269641E-008	0.0006167	7
	45	116	9.450605	9543.36	-15936.67	1	18575.6	-59.08554	2.766411E-008	0.0006233	7
	46	118	7.512019	12132.04	-17820.54	1	21558.25	-55.75338	2.525872E-008	0.0006358	7
	47	121	5.978954	15225.33	-19360.14	1	24629.77	-51.81755	1.390143E-008	0.0006187	7
	48	124	4.734848	18731.4	-20559.6	1	27813	-47.66404	2.118809E-008	0.0006332	7
	49	127	3.75601	22372.08	-20815.95	1	30558.36	-42.93644	5.703588E-009	0.0006094	7
	50	133	3.004808	25719.74	-20481.84	1	32878.73	-38.53196	7.648927E-009	0.0006014	7
	51	139	2.372217	29100.79	-19955.33	1	35285.56	-34.43967	3.544854E-009	0.0006263	7
	52	147	1.878005	32058.01	-18754.7	1	37141.01	-30.32864	-4.122077E-008	0.0006606	6
	53	156	1.512097	34400.84	-17785.29	1	38726.4	-27.33905	-4.020767E-008	0.0006033	6
	54	167	1.201923	36634.55	-16584.48	1	40213.62	-24.35629	-4.361562E-008	0.000648	6
	55	180	0.956633	38660.27	-15489.75	1	41647.91	-21.83417	-6.234848E-008	2.522476E-005	6
