EXPLAIN
TAG	EISPOT
TITLE	LABEL	Potentiostatic EIS	Test Identifier
DATE	LABEL	8/21/2020	Date
TIME	LABEL	18:38:09	Time
NOTES	NOTES	1	Notes...
	
PSTAT	PSTAT	REF3000-16137	Potentiostat
VDC	POTEN	0.00000E+000	T	DC Voltage (V)
FREQINIT	QUANT	3.00000E+005	Initial Freq. (Hz)
FREQFINAL	QUANT	1.00000E+000	Final Freq. (Hz)
PTSPERDEC	QUANT	1.00000E+001	Points/decade
VAC	QUANT	5.00000E+001	AC Voltage (mV rms)
AREA	QUANT	1.00000E+000	Sample Area (cm^2)
SPEED	SELECTOR	2	Optimize for:
ZGUESS	QUANT	1.00000E+003	Estimated Z (ohms)
EOC	QUANT	0	Open Circuit (V)
SEQUENCER	TOGGLE	TRUE	Run as Sequence
PSTATMODEL	IQUANT	5	Pstat Model
PSTATSECTION	LABEL	REF3000-16137	Pstat Section
PSTATSERIALNO	LABEL	16137	Pstat Serial Number
CTRLMODE	IQUANT	1	Control Mode
IESTAB	IQUANT	0	I/E Stability
CASPEED	IQUANT	1	Control Amp Speed
CONVENTION	IQUANT	1	Current Convention
ICHRANGE	IQUANT	2	Ich Range
ICHRANGEMODE	TOGGLE	F	Ich Auto Range
ICHOFFSETENABLE	TOGGLE	T	Ich Offset Enable
ICHOFFSET	QUANT	0	Ich Offset (V)
ICHFILTER	IQUANT	3	Ich Filter
VCHRANGE	IQUANT	2	Vch Range
VCHRANGEMODE	TOGGLE	F	Vch Auto Range
VCHOFFSETENABLE	TOGGLE	T	Vch Offset Enable
VCHOFFSET	QUANT	0	Vch Offset (V)
VCHFILTER	IQUANT	3	Vch Filter
ACHRANGE	IQUANT	2	Ach Range
ACHOFFSETENABLE	TOGGLE	F	Ach Offset Enable
ACHOFFSET	QUANT	0	Ach Offset (V)
ACHFILTER	IQUANT	3	Ach Filter
IERANGELOWERLIMIT	IQUANT	2	I/E Range Lower Limit
IERANGEMODE	TOGGLE	F	I/E AutoRange
IERANGE	IQUANT	11	I/E Range
POSFEEDENABLE	TOGGLE	F	Positive Feedback IR Comp
POSFEEDRESISTANCE	QUANT	0	Positive Feedback Resistance (ohm)
ACHSELECT	IQUANT	0	Ach Select
CABLEID	IQUANT	13	Cable ID
DCCALDATE	LABEL	7/31/2020	DC Calibration Date
ACCALDATE	LABEL	7/31/2020	AC Calibration Date
THERMOSELECT	IQUANT	1	Thermo Select
FRAMEWORKVERSION	QUANT	6.33	Framework Version
INSTRUMENTVERSION	LABEL	3.50	Instrument Version
COMPLIANCEVOLTAGE	IQUANT	0	Compliance Voltage
ZCURVE	TABLE
	Pt	Time	Freq	Zreal	Zimag	Zsig	Zmod	Zphz	Idc	Vdc	IERange
	#	s	Hz	ohm	ohm	V	ohm	°	A	V	#
	0	7	300046.9	50.88055	-1.571961	1	50.90483	-1.769597	-6.578644E-005	0.0018293	9
	1	10	238359.4	51.1419	-2.738445	1	51.21516	-3.065034	1.03563E-005	-0.0010695	9
	2	13	189328.1	51.48429	-3.793347	1	51.62384	-4.213922	6.231647E-005	-0.001824	9
	3	16	150421.9	51.78283	-5.260906	1	52.04939	-5.801093	-6.787355E-006	0.0006522	9
	4	19	119484.4	52.36744	-6.606117	1	52.78247	-7.189845	-5.588013E-005	0.0021461	9
	5	21	94921.88	53.1187	-7.906729	1	53.70394	-8.466325	-1.794715E-005	0.0005903	9
	6	24	75421.88	53.89352	-9.67959	1	54.75587	-10.18209	-1.394733E-005	0.0003571	9
	7	26	59859.37	54.88427	-11.66504	1	56.11021	-11.99903	1.43755E-005	-0.0005579	9
	8	29	47578.12	56.05475	-13.88664	1	57.74923	-13.91396	1.169256E-005	-0.0005786	9
	9	31	37828.12	57.39843	-16.31846	1	59.67305	-15.87053	-1.305668E-005	0.0007103	9
	10	34	30046.88	58.93248	-19.10428	1	61.95168	-17.96126	1.870676E-005	-0.0005372	9
	11	36	23859.38	60.62526	-22.27758	1	64.5888	-20.17654	4.81406E-006	0.0003453	9
	12	39	18984.38	62.43431	-25.99587	1	67.63008	-22.60545	-1.616166E-005	0.000425	9
	13	41	15046.87	64.35759	-30.34546	1	71.15298	-25.2445	-1.519837E-005	0.0006686	9
	14	43	11953.13	66.36488	-35.64414	1	75.33128	-28.23995	-2.500421E-006	-0.0001536	9
	15	45	9515.62	68.44209	-41.88572	1	80.24171	-31.46612	2.333834E-005	-0.0004929	9
	16	48	7546.875	70.51524	-49.62463	1	86.22646	-35.13572	-1.251836E-005	0.0002253	9
	17	50	5928.309	72.5886	-59.81923	1	94.06086	-39.49145	1.498909E-005	-0.0005362	9
	18	52	4733.456	74.44693	-71.76887	1	103.4075	-43.9507	2.044631E-005	-0.0004894	9
	19	55	3796.875	76.2132	-86.56328	1	115.3328	-48.63823	-1.61326E-005	0.0004451	9
	20	57	2987.132	78.33201	-106.6198	1	132.3015	-53.69582	3.550414E-006	-0.0003252	9
	21	59	2390.625	80.28521	-130.4976	1	153.2166	-58.39919	1.089247E-005	6.380964E-005	9
	22	62	1884.191	82.95689	-162.0351	1	182.0363	-62.88898	1.980644E-005	-0.0002709	9
	23	64	1516.544	85.75029	-198.7491	1	216.4586	-66.66222	9.781156E-006	-0.0004693	9
	24	66	1193.986	89.78292	-249.2017	1	264.8819	-70.18681	3.581419E-006	-0.0003241	9
	25	69	946.5144	95.6677	-310.6142	1	325.0131	-72.88142	1.479418E-005	-0.0005452	9
	26	71	751.7689	101.9802	-386.5891	1	399.8138	-75.22232	-1.403595E-005	0.0003773	9
	27	74	597.4265	110.6014	-480.3709	1	492.939	-77.03409	-2.65251E-006	0.0018665	8
	28	76	477.4305	122.7689	-594.7012	1	607.241	-78.33583	3.37851E-007	0.0006406	8
	29	78	376.6741	140.5797	-745.3187	1	758.4606	-79.31853	3.309248E-007	0.0006401	8
	30	81	298.2954	164.8571	-930.0953	1	944.5925	-79.94885	3.329389E-007	0.0006421	8
	31	83	237.7717	197.4188	-1152.276	1	1169.066	-80.27795	3.30989E-007	0.0006512	8
	32	85	189.0121	243.0062	-1429.693	1	1450.198	-80.35357	3.297794E-007	0.0006572	8
	33	88	150.2404	306.0154	-1771.023	1	1797.266	-80.19665	3.406084E-007	0.0006417	8
	34	90	119.1737	394.4742	-2194.353	1	2229.528	-79.80891	3.548937E-007	0.0006456	8
	35	92	95.0169	514.3232	-2699.646	1	2748.203	-79.21355	3.547696E-007	0.000638	8
	36	95	75.60484	682.6325	-3319.269	1	3388.737	-78.37873	3.456781E-007	0.000642	8
	37	98	54.50582	1039.512	-4434.03	1	4554.251	-76.80588	3.572838E-007	0.0006365	8
	38	100	45.95588	1302.008	-5151.495	1	5313.485	-75.8159	3.590392E-008	0.0006218	7
	39	102	37.20238	1720.388	-6158.176	1	6393.971	-74.39142	2.81932E-008	0.0006192	7
	40	105	30.04808	2290.442	-7339.117	1	7688.223	-72.66754	2.185997E-008	0.0006145	7
	41	107	23.91582	3086.335	-8783.349	1	9309.816	-70.6393	1.598756E-008	0.0006499	7
	42	110	18.60119	4261.127	-10581.21	1	11406.98	-68.06502	3.644474E-008	0.0006197	7
	43	112	15.02404	5558.589	-12267.68	1	13468.25	-65.62431	2.589093E-008	0.0006259	7
	44	114	12.01923	7271.781	-14134.13	1	15895.04	-62.77491	2.748344E-008	0.0006184	7
	45	117	9.450605	9550.39	-16218	1	18821.09	-59.50721	1.507086E-008	0.0006139	7
	46	119	7.512019	12212.21	-18138.11	1	21866.16	-56.04801	2.783304E-008	0.0006093	7
	47	122	5.978954	15322.58	-19771.88	1	25014.17	-52.22545	2.449921E-008	0.0006125	7
	48	125	4.734848	18889.63	-21176.4	1	28377.07	-48.26662	1.812054E-008	0.0006191	7
	49	128	3.75601	22654.87	-21648.61	1	31335.37	-43.69887	1.890548E-008	0.0006227	7
	50	134	3.004808	26220.36	-21615.12	1	33981.18	-39.50093	1.101081E-008	0.0006457	7
	51	140	2.372217	29824.12	-21132.2	1	36551.99	-35.31989	1.495432E-008	0.0006353	7
	52	148	1.878005	33044.44	-20023.41	1	38637.7	-31.21393	-2.562678E-008	0.000642	6
	53	157	1.512097	35714.38	-19154.09	1	40526.48	-28.20525	-2.780586E-008	0.0007462	6
	54	167	1.201923	38168.04	-17927	1	42168.43	-25.1588	-2.905971E-008	0.0006557	6
	55	180	0.956633	40739.7	-17020.88	1	44152.39	-22.67497	-6.005428E-008	3.141777E-005	6
