EXPLAIN
TAG	EISPOT
TITLE	LABEL	Potentiostatic EIS	Test Identifier
DATE	LABEL	8/21/2020	Date
TIME	LABEL	15:39:28	Time
NOTES	NOTES	1	Notes...
	
PSTAT	PSTAT	REF3000-16137	Potentiostat
VDC	POTEN	0.00000E+000	T	DC Voltage (V)
FREQINIT	QUANT	3.00000E+005	Initial Freq. (Hz)
FREQFINAL	QUANT	1.00000E+000	Final Freq. (Hz)
PTSPERDEC	QUANT	1.00000E+001	Points/decade
VAC	QUANT	5.00000E+001	AC Voltage (mV rms)
AREA	QUANT	1.00000E+000	Sample Area (cm^2)
SPEED	SELECTOR	2	Optimize for:
ZGUESS	QUANT	1.00000E+003	Estimated Z (ohms)
EOC	QUANT	0	Open Circuit (V)
SEQUENCER	TOGGLE	TRUE	Run as Sequence
PSTATMODEL	IQUANT	5	Pstat Model
PSTATSECTION	LABEL	REF3000-16137	Pstat Section
PSTATSERIALNO	LABEL	16137	Pstat Serial Number
CTRLMODE	IQUANT	1	Control Mode
IESTAB	IQUANT	0	I/E Stability
CASPEED	IQUANT	1	Control Amp Speed
CONVENTION	IQUANT	1	Current Convention
ICHRANGE	IQUANT	2	Ich Range
ICHRANGEMODE	TOGGLE	F	Ich Auto Range
ICHOFFSETENABLE	TOGGLE	T	Ich Offset Enable
ICHOFFSET	QUANT	0	Ich Offset (V)
ICHFILTER	IQUANT	3	Ich Filter
VCHRANGE	IQUANT	2	Vch Range
VCHRANGEMODE	TOGGLE	F	Vch Auto Range
VCHOFFSETENABLE	TOGGLE	T	Vch Offset Enable
VCHOFFSET	QUANT	0	Vch Offset (V)
VCHFILTER	IQUANT	3	Vch Filter
ACHRANGE	IQUANT	2	Ach Range
ACHOFFSETENABLE	TOGGLE	F	Ach Offset Enable
ACHOFFSET	QUANT	0	Ach Offset (V)
ACHFILTER	IQUANT	3	Ach Filter
IERANGELOWERLIMIT	IQUANT	2	I/E Range Lower Limit
IERANGEMODE	TOGGLE	F	I/E AutoRange
IERANGE	IQUANT	11	I/E Range
POSFEEDENABLE	TOGGLE	F	Positive Feedback IR Comp
POSFEEDRESISTANCE	QUANT	0	Positive Feedback Resistance (ohm)
ACHSELECT	IQUANT	0	Ach Select
CABLEID	IQUANT	13	Cable ID
DCCALDATE	LABEL	7/31/2020	DC Calibration Date
ACCALDATE	LABEL	7/31/2020	AC Calibration Date
THERMOSELECT	IQUANT	1	Thermo Select
FRAMEWORKVERSION	QUANT	6.33	Framework Version
INSTRUMENTVERSION	LABEL	3.50	Instrument Version
COMPLIANCEVOLTAGE	IQUANT	0	Compliance Voltage
ZCURVE	TABLE
	Pt	Time	Freq	Zreal	Zimag	Zsig	Zmod	Zphz	Idc	Vdc	IERange
	#	s	Hz	ohm	ohm	V	ohm	°	A	V	#
	0	7	300046.9	69.3313	-2.300511	1	69.36945	-1.900458	-2.877807E-006	0.0006101	9
	1	10	238359.4	69.80052	-3.449142	1	69.88569	-2.828928	-3.20428E-006	0.000701	9
	2	13	189328.1	70.26133	-4.691099	1	70.41776	-3.819766	-3.133577E-006	-0.001043	9
	3	16	150421.9	71.01089	-5.742426	1	71.2427	-4.623268	-1.758961E-005	-0.0006794	9
	4	18	119484.4	71.5246	-7.501895	1	71.91695	-5.987605	3.100249E-005	-6.559265E-005	9
	5	21	94921.88	72.34286	-8.931295	1	72.89209	-7.038002	4.048302E-006	0.0003699	9
	6	23	75421.88	73.3014	-10.94765	1	74.11441	-8.494403	2.085045E-005	-0.0003681	9
	7	26	59859.37	74.43244	-13.27999	1	75.60785	-10.11608	2.124855E-005	-0.0006575	9
	8	29	47578.12	75.88196	-15.81677	1	77.51285	-11.7741	-9.062585E-006	2.048611E-005	9
	9	31	37828.12	77.56485	-18.69351	1	79.78567	-13.55016	-1.751557E-005	0.0004381	9
	10	34	30046.88	79.53538	-21.90388	1	82.4964	-15.39745	1.853306E-005	-0.0002202	9
	11	36	23859.38	81.74972	-25.58612	1	85.66018	-17.37914	-1.113878E-005	0.0006823	9
	12	38	18984.38	84.12177	-29.71356	1	89.21529	-19.45428	1.975496E-005	-0.0006302	9
	13	41	15046.87	86.80417	-34.65755	1	93.46716	-21.76492	2.175917E-006	0.0003781	9
	14	43	11953.13	89.51475	-40.31951	1	98.1761	-24.2479	1.979542E-005	-0.0006332	9
	15	45	9515.62	92.52462	-47.0634	1	103.8064	-26.96053	-1.464654E-005	0.0002357	9
	16	48	7546.875	95.6462	-55.25801	1	110.461	-30.01647	-3.543852E-006	0.0006169	9
	17	50	5928.309	98.8767	-65.92421	1	118.8386	-33.69263	-1.43211E-005	0.0007312	9
	18	52	4733.456	101.9477	-78.11198	1	128.4321	-37.45922	4.466904E-006	-0.0004211	9
	19	55	3796.875	104.5385	-92.95381	1	139.8882	-41.64294	5.088962E-006	-0.0004952	9
	20	57	2987.132	107.6812	-112.9225	1	156.0344	-46.36103	-1.510268E-005	0.0003557	9
	21	59	2390.625	110.716	-137.0862	1	176.2119	-51.07435	1.869184E-005	-0.0006228	9
	22	62	1884.191	113.5186	-168.8942	1	203.4987	-56.09383	-1.052251E-005	0.0007347	9
	23	64	1516.544	116.936	-205.9594	1	236.8402	-60.41371	1.193973E-005	-0.0005838	9
	24	66	1193.986	120.8138	-256.9724	1	283.9556	-64.81976	-1.731782E-005	0.000688	9
	25	69	946.5144	125.2257	-320.0216	1	343.65	-68.62939	-3.26396E-006	-0.0002003	9
	26	71	751.7689	132.4184	-397.9485	1	419.4016	-71.59501	-1.391345E-005	0.0001942	9
	27	73	597.4265	141.0206	-492.8045	1	512.5847	-74.03103	-4.432423E-006	0.001791	8
	28	76	477.4305	151.6602	-610.3519	1	628.9119	-76.04576	2.859627E-007	0.0006678	8
	29	78	376.6741	167.3942	-765.1483	1	783.2449	-77.65963	2.998854E-007	0.0006361	8
	30	80	298.2954	188.4217	-955.485	1	973.886	-78.84441	3.038444E-007	0.0006425	8
	31	83	237.7717	216.0938	-1184.841	1	1204.386	-79.66389	3.152984E-007	0.0006285	8
	32	85	189.0121	253.8311	-1472.063	1	1493.787	-80.21658	3.089804E-007	0.0006387	8
	33	87	150.2404	304.9218	-1826.835	1	1852.108	-80.52396	3.012688E-007	0.0006369	8
	34	90	119.1737	374.9917	-2269.573	1	2300.344	-80.61803	3.065968E-007	0.0006413	8
	35	92	95.0169	467.3427	-2802.095	1	2840.8	-80.53117	3.165696E-007	0.0006353	8
	36	95	75.60484	593.0298	-3463.036	1	3513.446	-80.28261	3.01866E-007	0.0006389	8
	37	97	54.50582	855.8332	-4673.213	1	4750.934	-79.62209	3.040918E-007	0.0006338	8
	38	100	45.95588	1049.423	-5468.186	1	5567.975	-79.13622	5.056059E-008	0.0006111	7
	39	102	37.20238	1356.579	-6615.684	1	6753.338	-78.41185	4.727201E-008	0.0006263	7
	40	104	30.04808	1770.528	-8010.441	1	8203.776	-77.53644	4.11225E-008	0.0006115	7
	41	107	23.91582	2364.26	-9757.59	1	10039.94	-76.37976	4.761223E-008	0.0005975	7
	42	109	18.60119	3282.628	-12087.68	1	12525.48	-74.80672	4.680057E-008	0.0006166	7
	43	111	15.02404	4321.71	-14425.04	1	15058.52	-73.3219	4.389291E-008	0.000618	7
	44	114	12.01923	5755.368	-17236.85	1	18172.32	-71.53589	4.265065E-008	0.0006129	7
	45	116	9.450605	7799.224	-20701.47	1	22121.91	-69.35624	4.492743E-008	0.0006221	7
	46	119	7.512019	10323.08	-24404.58	1	26498.1	-67.07176	4.860725E-008	0.0006314	7
	47	122	5.978954	13534.47	-28445.14	1	31500.92	-64.55445	4.449333E-008	0.0006086	7
	48	125	4.734848	17640.58	-32764.47	1	37211.56	-61.70172	4.723251E-008	0.0006418	7
	49	128	3.75601	22665.19	-37284.23	1	43632.84	-58.70446	9.142608E-009	0.0006385	6
	50	131	3.004808	28411.61	-41590.64	1	50368.65	-55.66203	7.467783E-009	0.0006666	6
	51	135	2.372217	35555.37	-45661.53	1	57871.92	-52.09309	7.458635E-009	0.0007094	6
	52	139	1.878005	43763.76	-48154.72	1	65070.3	-47.73495	3.886843E-009	0.0006358	6
	53	148	1.512097	51577.04	-50059.59	1	71875.96	-44.14463	3.941433E-009	0.000659	6
	54	159	1.201923	60412.06	-51416.55	1	79330.19	-40.40102	2.810893E-009	0.0006166	6
	55	172	0.956633	69547.88	-52265.1	1	86997.4	-36.92479	-6.168409E-009	1.400872E-005	6
