EXPLAIN
TAG	EISPOT
TITLE	LABEL	Potentiostatic EIS	Test Identifier
DATE	LABEL	8/21/2020	Date
TIME	LABEL	16:07:42	Time
NOTES	NOTES	1	Notes...
	
PSTAT	PSTAT	REF3000-16137	Potentiostat
VDC	POTEN	0.00000E+000	T	DC Voltage (V)
FREQINIT	QUANT	3.00000E+005	Initial Freq. (Hz)
FREQFINAL	QUANT	1.00000E+000	Final Freq. (Hz)
PTSPERDEC	QUANT	1.00000E+001	Points/decade
VAC	QUANT	5.00000E+001	AC Voltage (mV rms)
AREA	QUANT	1.00000E+000	Sample Area (cm^2)
SPEED	SELECTOR	2	Optimize for:
ZGUESS	QUANT	1.00000E+003	Estimated Z (ohms)
EOC	QUANT	0	Open Circuit (V)
SEQUENCER	TOGGLE	TRUE	Run as Sequence
PSTATMODEL	IQUANT	5	Pstat Model
PSTATSECTION	LABEL	REF3000-16137	Pstat Section
PSTATSERIALNO	LABEL	16137	Pstat Serial Number
CTRLMODE	IQUANT	1	Control Mode
IESTAB	IQUANT	0	I/E Stability
CASPEED	IQUANT	1	Control Amp Speed
CONVENTION	IQUANT	1	Current Convention
ICHRANGE	IQUANT	2	Ich Range
ICHRANGEMODE	TOGGLE	F	Ich Auto Range
ICHOFFSETENABLE	TOGGLE	T	Ich Offset Enable
ICHOFFSET	QUANT	0	Ich Offset (V)
ICHFILTER	IQUANT	3	Ich Filter
VCHRANGE	IQUANT	2	Vch Range
VCHRANGEMODE	TOGGLE	F	Vch Auto Range
VCHOFFSETENABLE	TOGGLE	T	Vch Offset Enable
VCHOFFSET	QUANT	0	Vch Offset (V)
VCHFILTER	IQUANT	3	Vch Filter
ACHRANGE	IQUANT	2	Ach Range
ACHOFFSETENABLE	TOGGLE	F	Ach Offset Enable
ACHOFFSET	QUANT	0	Ach Offset (V)
ACHFILTER	IQUANT	3	Ach Filter
IERANGELOWERLIMIT	IQUANT	2	I/E Range Lower Limit
IERANGEMODE	TOGGLE	F	I/E AutoRange
IERANGE	IQUANT	11	I/E Range
POSFEEDENABLE	TOGGLE	F	Positive Feedback IR Comp
POSFEEDRESISTANCE	QUANT	0	Positive Feedback Resistance (ohm)
ACHSELECT	IQUANT	0	Ach Select
CABLEID	IQUANT	13	Cable ID
DCCALDATE	LABEL	7/31/2020	DC Calibration Date
ACCALDATE	LABEL	7/31/2020	AC Calibration Date
THERMOSELECT	IQUANT	1	Thermo Select
FRAMEWORKVERSION	QUANT	6.33	Framework Version
INSTRUMENTVERSION	LABEL	3.50	Instrument Version
COMPLIANCEVOLTAGE	IQUANT	0	Compliance Voltage
ZCURVE	TABLE
	Pt	Time	Freq	Zreal	Zimag	Zsig	Zmod	Zphz	Idc	Vdc	IERange
	#	s	Hz	ohm	ohm	V	ohm	°	A	V	#
	0	8	300046.9	238.693	-12.46048	1	239.018	-2.988297	-7.175889E-006	-0.0017708	9
	1	13	238359.4	239.5233	-16.8261	1	240.1136	-4.018328	2.674341E-005	0.0003705	10
	2	17	189328.1	241.6584	-15.9558	1	242.1846	-3.777543	-6.004379E-005	0.0006135	10
	3	21	150421.9	242.5905	-15.71162	1	243.0987	-3.705645	1.892754E-006	0.0003976	10
	4	25	119484.4	244.7043	-16.82335	1	245.2819	-3.932881	-9.043481E-005	0.0008796	10
	5	30	94921.88	246.4369	-16.10086	1	246.9623	-3.738086	7.852174E-006	-0.0006462	9
	6	33	75421.88	248.3132	-18.3514	1	248.9904	-4.226718	-1.541558E-005	7.971554E-005	9
	7	37	59859.37	250.3716	-21.47703	1	251.291	-4.902867	2.375819E-005	-0.0002037	9
	8	41	47578.12	252.7686	-25.18816	1	254.0204	-5.690686	-1.454331E-005	0.0001434	9
	9	44	37828.12	255.7383	-29.5058	1	257.4348	-6.581399	1.082349E-005	0.0002459	9
	10	48	30046.88	258.8583	-34.79348	1	261.1862	-7.655318	1.542019E-005	-0.0008066	9
	11	51	23859.38	262.9423	-41.09496	1	266.1343	-8.882834	-1.639882E-005	0.0009341	9
	12	54	18984.38	267.4538	-48.76102	1	271.8624	-10.33244	7.864126E-006	-0.0006544	9
	13	58	15046.87	272.2207	-57.23357	1	278.1722	-11.87333	-2.432422E-005	0.0008585	9
	14	60	11953.13	278.9984	-67.08776	1	286.951	-13.52061	2.958853E-005	-0.0006285	9
	15	64	9515.62	286.5353	-78.17482	1	297.0081	-15.26048	9.310649E-006	-0.0006942	9
	16	67	7546.875	293.6348	-91.04697	1	307.4264	-17.22703	2.792905E-005	-0.0007022	9
	17	69	5928.309	304.1598	-106.6224	1	322.3066	-19.31797	8.091133E-006	-0.0006492	9
	18	72	4733.456	313.9366	-123.3271	1	337.2918	-21.44692	-2.343965E-005	0.0008587	9
	19	74	3796.875	323.3497	-143.5073	1	353.7646	-23.93234	-2.363934E-005	0.0006637	9
	20	77	2987.132	335.5975	-167.8664	1	375.2397	-26.5743	2.354132E-005	-0.0002271	9
	21	79	2390.625	347.3791	-196.1107	1	398.9131	-29.44662	1.053328E-005	0.0002869	9
	22	81	1884.191	357.9076	-230.9109	1	425.9316	-32.82886	-6.041886E-006	0.0002239	8
	23	84	1516.544	369.9966	-270.5841	1	458.3811	-36.17857	-9.497578E-006	0.0049813	8
	24	86	1193.986	381.7157	-325.3219	1	501.5389	-40.4397	1.988405E-006	-0.0024219	8
	25	88	946.5144	392.0768	-391.5489	1	554.1072	-44.9614	5.472132E-006	0.0014111	8
	26	91	751.7689	404.291	-475.8783	1	624.4288	-49.64984	-1.713603E-006	-0.0013907	8
	27	93	597.4265	414.2669	-581.8715	1	714.2769	-54.5508	1.190251E-005	-0.0031508	8
	28	95	477.4305	426.7646	-711.7833	1	829.9177	-59.05432	2.453083E-009	0.0006346	8
	29	98	376.6741	440.5175	-885.6762	1	989.18	-63.55517	-2.054802E-008	0.0006542	8
	30	100	298.2954	456.7344	-1101.991	1	1192.891	-67.4878	-6.772124E-009	0.0006505	8
	31	102	237.7717	476.3774	-1365.81	1	1446.504	-70.77187	-1.593102E-008	0.0006461	8
	32	105	189.0121	501.6477	-1699.652	1	1772.137	-73.55618	-1.939204E-008	0.0006409	8
	33	107	150.2404	534.5261	-2116.654	1	2183.104	-75.82722	4.33257E-009	0.0006327	8
	34	110	119.1737	577.6855	-2642.095	1	2704.512	-77.66656	8.03681E-009	0.0006446	8
	35	112	95.0169	634.3408	-3283.174	1	3343.893	-79.06465	1.364476E-008	0.000646	8
	36	115	75.60484	709.9323	-4085.854	1	4147.072	-80.14305	-1.052217E-008	0.000643	8
	37	117	54.50582	866.2563	-5595.406	1	5662.064	-81.19958	-1.285034E-008	0.0006159	7
	38	120	45.95588	977.651	-6584.38	1	6656.565	-81.55441	-6.572757E-009	0.0006058	7
	39	122	37.20238	1153.704	-8047.987	1	8130.26	-81.84205	-1.063047E-008	0.0006174	7
	40	124	30.04808	1390.205	-9852.98	1	9950.57	-81.96887	-1.138205E-008	0.0006198	7
	41	127	23.91582	1728.937	-12220.98	1	12342.67	-81.94764	-1.305869E-008	0.0006294	7
	42	129	18.60119	2239.495	-15461.44	1	15622.79	-81.75838	-6.943652E-009	0.0006213	7
	43	131	15.02404	2842.845	-18864.51	1	19077.51	-81.43012	-1.030053E-008	0.0006323	7
	44	134	12.01923	3685.887	-23198.53	1	23489.52	-80.97205	-8.329108E-009	0.0006317	7
	45	136	9.450605	4954.226	-28930.06	1	29351.19	-80.28245	-9.497448E-009	0.0006011	7
	46	139	7.512019	6594.326	-35608.59	1	36214.05	-79.5083	-1.067224E-008	0.0006192	7
	47	141	5.978954	8834.87	-43641.37	1	44526.66	-78.55556	-1.547113E-009	0.000666	6
	48	144	4.734848	11987.55	-53548.03	1	54873.42	-77.38151	-1.753415E-010	0.000627	6
	49	148	3.75601	16123.38	-65312.57	1	67273.29	-76.13295	-8.505148E-011	0.0006876	6
	50	151	3.004808	21398.63	-78609.66	1	81470.11	-74.77227	1.356344E-009	0.0006502	6
	51	155	2.372217	28809.44	-95203.7	1	99467.3	-73.16375	-8.215734E-011	0.0005788	6
	52	159	1.878005	38111.36	-114269.7	1	120457.6	-71.55537	4.652859E-010	0.0006628	6
	53	164	1.512097	48954.54	-134341.1	1	142982.8	-69.97802	2.324337E-010	0.0006046	6
	54	169	1.201923	63464.43	-159272.7	1	171451.2	-68.2745	-2.770343E-010	0.0007115	6
	55	175	0.956633	81127.7	-187273.1	1	204090.5	-66.57748	-1.638361E-009	2.001886E-005	6
