EXPLAIN
TAG	EISPOT
TITLE	LABEL	Potentiostatic EIS	Test Identifier
DATE	LABEL	8/21/2020	Date
TIME	LABEL	15:33:06	Time
NOTES	NOTES	1	Notes...
	
PSTAT	PSTAT	REF3000-16137	Potentiostat
VDC	POTEN	0.00000E+000	T	DC Voltage (V)
FREQINIT	QUANT	3.00000E+005	Initial Freq. (Hz)
FREQFINAL	QUANT	1.00000E+000	Final Freq. (Hz)
PTSPERDEC	QUANT	1.00000E+001	Points/decade
VAC	QUANT	5.00000E+001	AC Voltage (mV rms)
AREA	QUANT	1.00000E+000	Sample Area (cm^2)
SPEED	SELECTOR	2	Optimize for:
ZGUESS	QUANT	1.00000E+003	Estimated Z (ohms)
EOC	QUANT	0	Open Circuit (V)
SEQUENCER	TOGGLE	TRUE	Run as Sequence
PSTATMODEL	IQUANT	5	Pstat Model
PSTATSECTION	LABEL	REF3000-16137	Pstat Section
PSTATSERIALNO	LABEL	16137	Pstat Serial Number
CTRLMODE	IQUANT	1	Control Mode
IESTAB	IQUANT	0	I/E Stability
CASPEED	IQUANT	1	Control Amp Speed
CONVENTION	IQUANT	1	Current Convention
ICHRANGE	IQUANT	2	Ich Range
ICHRANGEMODE	TOGGLE	F	Ich Auto Range
ICHOFFSETENABLE	TOGGLE	T	Ich Offset Enable
ICHOFFSET	QUANT	0	Ich Offset (V)
ICHFILTER	IQUANT	3	Ich Filter
VCHRANGE	IQUANT	2	Vch Range
VCHRANGEMODE	TOGGLE	F	Vch Auto Range
VCHOFFSETENABLE	TOGGLE	T	Vch Offset Enable
VCHOFFSET	QUANT	0	Vch Offset (V)
VCHFILTER	IQUANT	3	Vch Filter
ACHRANGE	IQUANT	2	Ach Range
ACHOFFSETENABLE	TOGGLE	F	Ach Offset Enable
ACHOFFSET	QUANT	0	Ach Offset (V)
ACHFILTER	IQUANT	3	Ach Filter
IERANGELOWERLIMIT	IQUANT	2	I/E Range Lower Limit
IERANGEMODE	TOGGLE	F	I/E AutoRange
IERANGE	IQUANT	11	I/E Range
POSFEEDENABLE	TOGGLE	F	Positive Feedback IR Comp
POSFEEDRESISTANCE	QUANT	0	Positive Feedback Resistance (ohm)
ACHSELECT	IQUANT	0	Ach Select
CABLEID	IQUANT	13	Cable ID
DCCALDATE	LABEL	7/31/2020	DC Calibration Date
ACCALDATE	LABEL	7/31/2020	AC Calibration Date
THERMOSELECT	IQUANT	1	Thermo Select
FRAMEWORKVERSION	QUANT	6.33	Framework Version
INSTRUMENTVERSION	LABEL	3.50	Instrument Version
COMPLIANCEVOLTAGE	IQUANT	0	Compliance Voltage
ZCURVE	TABLE
	Pt	Time	Freq	Zreal	Zimag	Zsig	Zmod	Zphz	Idc	Vdc	IERange
	#	s	Hz	ohm	ohm	V	ohm	°	A	V	#
	0	7	300046.9	57.39913	-2.033719	1	57.43515	-2.029208	6.705458E-006	-0.0011561	9
	1	10	238359.4	57.67833	-3.006711	1	57.75665	-2.984068	1.524146E-005	-0.0007828	9
	2	14	189328.1	58.06553	-4.217513	1	58.21849	-4.154308	-8.322664E-007	0.0005513	9
	3	16	150421.9	58.51358	-5.413646	1	58.76348	-5.285927	8.78081E-006	-0.0007807	9
	4	19	119484.4	59.20921	-6.845989	1	59.60367	-6.595465	5.557271E-005	-0.0014268	9
	5	21	94921.88	60.04082	-8.273542	1	60.60818	-7.845869	2.141908E-005	-0.0005852	9
	6	24	75421.88	60.88111	-10.16777	1	61.72433	-9.481474	1.580817E-005	-0.0006194	9
	7	26	59859.37	61.98104	-12.26033	1	63.182	-11.18911	6.009784E-006	0.0003322	9
	8	29	47578.12	63.30697	-14.63301	1	64.97613	-13.01498	-1.658026E-005	0.0004127	9
	9	31	37828.12	64.82778	-17.17517	1	67.06435	-14.83876	-9.081411E-006	4.408326E-005	9
	10	34	30046.88	66.56915	-20.12622	1	69.54506	-16.82193	1.867457E-005	-0.0001698	9
	11	36	23859.38	68.50507	-23.49135	1	72.42091	-18.92756	-1.477567E-005	0.0006993	9
	12	39	18984.38	70.56912	-27.2446	1	75.64568	-21.11007	-1.698557E-005	0.0006069	9
	13	41	15046.87	72.88731	-31.91006	1	79.5664	-23.6438	1.404979E-005	-2.69233E-005	9
	14	43	11953.13	75.23638	-37.20679	1	83.93365	-26.31386	3.814613E-006	0.000303	9
	15	46	9515.62	77.7186	-43.5323	1	89.07997	-29.25438	1.050094E-005	-0.0005171	9
	16	48	7546.875	80.27831	-51.44235	1	95.3463	-32.65175	1.952474E-005	-0.0004508	9
	17	50	5928.309	82.86481	-61.59978	1	103.2526	-36.62626	-1.436352E-005	0.0007153	9
	18	53	4733.456	85.2087	-73.43789	1	112.4884	-40.7567	-1.728524E-005	0.000567	9
	19	55	3796.875	87.44791	-87.99791	1	124.0595	-45.17962	-1.406971E-005	0.0003426	9
	20	57	2987.132	89.9061	-107.7679	1	140.3461	-50.16323	-9.434857E-006	0.0006748	9
	21	60	2390.625	92.16967	-131.2666	1	160.3938	-54.92514	-1.379974E-005	0.000205	9
	22	62	1884.191	95.0991	-162.7157	1	188.4681	-59.69587	-1.28363E-005	0.0001976	9
	23	64	1516.544	98.3432	-198.6035	1	221.6185	-63.65661	3.728368E-006	-0.0003571	9
	24	66	1193.986	102.354	-249.1183	1	269.3256	-67.66395	1.797326E-005	-0.0001649	9
	25	69	946.5144	109.4348	-309.572	1	328.3455	-70.53132	-8.603511E-006	4.859101E-005	9
	26	71	751.7689	114.9513	-386.7269	1	403.4495	-73.44586	2.031033E-005	-0.0002737	9
	27	74	597.4265	123.5504	-477.9975	1	493.7067	-75.50766	-3.138058E-006	0.0011217	8
	28	76	477.4305	135.5241	-591.7025	1	607.0244	-77.09943	3.411667E-007	0.0006348	8
	29	78	376.6741	152.8294	-741.1996	1	756.7917	-78.34935	3.456285E-007	0.0006372	8
	30	81	298.2954	176.067	-924.5978	1	941.2123	-79.21851	3.433547E-007	0.0006395	8
	31	83	237.7717	206.7315	-1145.104	1	1163.616	-79.76633	3.470482E-007	0.0006412	8
	32	85	189.0121	248.9888	-1420.439	1	1442.096	-80.05763	3.507836E-007	0.0006369	8
	33	88	150.2404	306.1659	-1759.335	1	1785.776	-80.12804	3.49247E-007	0.0006336	8
	34	90	119.1737	385.2635	-2180.72	1	2214.49	-79.98105	3.481071E-007	0.0006383	8
	35	93	95.0169	489.1076	-2685.027	1	2729.212	-79.67613	3.464221E-007	0.0006345	8
	36	95	75.60484	633.1425	-3306.468	1	3366.541	-79.15987	3.432837E-007	0.0006384	8
	37	98	54.50582	932.1946	-4436.483	1	4533.362	-78.13363	3.417479E-007	0.0006298	8
	38	100	45.95588	1152.39	-5171.843	1	5298.675	-77.43855	5.845787E-008	0.0006138	7
	39	103	37.20238	1499.693	-6216.917	1	6395.243	-76.43777	5.701848E-008	0.0006201	7
	40	105	30.04808	1966.53	-7464.112	1	7718.821	-75.24	4.275723E-008	0.000614	7
	41	107	23.91582	2646.451	-9039.069	1	9418.518	-73.68107	4.819346E-008	0.0006216	7
	42	110	18.60119	3627.669	-11060.24	1	11639.97	-71.84093	4.174566E-008	0.0006166	7
	43	112	15.02404	4754.311	-13040.73	1	13880.35	-69.96945	4.776413E-008	0.000611	7
	44	114	12.01923	6268.149	-15348.91	1	16579.47	-67.786	4.34033E-008	0.0006051	7
	45	117	9.450605	8372.767	-18080.92	1	19925.44	-65.15247	4.45407E-008	0.0006033	7
	46	119	7.512019	10910.89	-20913.31	1	23588.43	-62.44806	3.981592E-008	0.0005986	7
	47	122	5.978954	14098.3	-23648.12	1	27531.72	-59.19787	4.364417E-008	0.0006192	7
	48	125	4.734848	18103.97	-26221.1	1	31863.77	-55.37743	3.405358E-008	0.0006094	7
	49	130	3.75601	22632.12	-28279.14	1	36220.48	-51.32931	3.397508E-008	0.0006295	7
	50	135	3.004808	27430.66	-29986.22	1	40640.06	-47.54849	-2.445362E-009	0.0006567	6
	51	142	2.372217	32852.27	-31084.54	1	45227.43	-43.41628	-6.925191E-009	0.0006077	6
	52	149	1.878005	38293.86	-31025.64	1	49284.98	-39.01435	-8.088443E-009	0.0006438	6
	53	158	1.512097	43083.45	-30852.96	1	52991.41	-35.60725	-1.092421E-008	0.0007039	6
	54	169	1.201923	47958.25	-29872.49	1	56500.97	-31.91817	-1.257313E-008	0.0006664	6
	55	182	0.956633	52875.5	-28859.35	1	60238.53	-28.62563	-3.427373E-008	1.523989E-005	6
