EXPLAIN
TAG	EISPOT
TITLE	LABEL	Potentiostatic EIS	Test Identifier
DATE	LABEL	8/21/2020	Date
TIME	LABEL	18:22:01	Time
NOTES	NOTES	1	Notes...
	
PSTAT	PSTAT	REF3000-16137	Potentiostat
VDC	POTEN	0.00000E+000	T	DC Voltage (V)
FREQINIT	QUANT	3.00000E+005	Initial Freq. (Hz)
FREQFINAL	QUANT	1.00000E+000	Final Freq. (Hz)
PTSPERDEC	QUANT	1.00000E+001	Points/decade
VAC	QUANT	5.00000E+001	AC Voltage (mV rms)
AREA	QUANT	1.00000E+000	Sample Area (cm^2)
SPEED	SELECTOR	2	Optimize for:
ZGUESS	QUANT	1.00000E+003	Estimated Z (ohms)
EOC	QUANT	0	Open Circuit (V)
SEQUENCER	TOGGLE	TRUE	Run as Sequence
PSTATMODEL	IQUANT	5	Pstat Model
PSTATSECTION	LABEL	REF3000-16137	Pstat Section
PSTATSERIALNO	LABEL	16137	Pstat Serial Number
CTRLMODE	IQUANT	1	Control Mode
IESTAB	IQUANT	0	I/E Stability
CASPEED	IQUANT	1	Control Amp Speed
CONVENTION	IQUANT	1	Current Convention
ICHRANGE	IQUANT	2	Ich Range
ICHRANGEMODE	TOGGLE	F	Ich Auto Range
ICHOFFSETENABLE	TOGGLE	T	Ich Offset Enable
ICHOFFSET	QUANT	0	Ich Offset (V)
ICHFILTER	IQUANT	3	Ich Filter
VCHRANGE	IQUANT	2	Vch Range
VCHRANGEMODE	TOGGLE	F	Vch Auto Range
VCHOFFSETENABLE	TOGGLE	T	Vch Offset Enable
VCHOFFSET	QUANT	0	Vch Offset (V)
VCHFILTER	IQUANT	3	Vch Filter
ACHRANGE	IQUANT	2	Ach Range
ACHOFFSETENABLE	TOGGLE	F	Ach Offset Enable
ACHOFFSET	QUANT	0	Ach Offset (V)
ACHFILTER	IQUANT	3	Ach Filter
IERANGELOWERLIMIT	IQUANT	2	I/E Range Lower Limit
IERANGEMODE	TOGGLE	F	I/E AutoRange
IERANGE	IQUANT	11	I/E Range
POSFEEDENABLE	TOGGLE	F	Positive Feedback IR Comp
POSFEEDRESISTANCE	QUANT	0	Positive Feedback Resistance (ohm)
ACHSELECT	IQUANT	0	Ach Select
CABLEID	IQUANT	13	Cable ID
DCCALDATE	LABEL	7/31/2020	DC Calibration Date
ACCALDATE	LABEL	7/31/2020	AC Calibration Date
THERMOSELECT	IQUANT	1	Thermo Select
FRAMEWORKVERSION	QUANT	6.33	Framework Version
INSTRUMENTVERSION	LABEL	3.50	Instrument Version
COMPLIANCEVOLTAGE	IQUANT	0	Compliance Voltage
ZCURVE	TABLE
	Pt	Time	Freq	Zreal	Zimag	Zsig	Zmod	Zphz	Idc	Vdc	IERange
	#	s	Hz	ohm	ohm	V	ohm	°	A	V	#
	0	9	300046.9	235.4035	-18.38833	1	236.1206	-4.466538	-2.603879E-005	0.0004618	10
	1	13	238359.4	228.2378	-15.69603	1	228.7769	-3.934065	1.954836E-006	0.0002415	10
	2	18	189328.1	222.838	-12.12449	1	223.1676	-3.114361	-7.786567E-005	0.0034973	9
	3	21	150421.9	218.541	-12.04602	1	218.8727	-3.154962	2.375339E-005	-0.001417	9
	4	23	119484.4	213.7505	-13.26287	1	214.1616	-3.550557	1.725628E-005	-0.00082	9
	5	27	94921.88	208.8644	-14.61215	1	209.375	-4.00189	-8.615863E-006	0.0008045	9
	6	30	75421.88	205.6873	-16.88416	1	206.3791	-4.692692	-1.684199E-005	0.0009179	9
	7	32	59859.37	203.0257	-19.38939	1	203.9495	-5.455324	2.721962E-005	-0.0006871	9
	8	35	47578.12	200.6573	-22.68822	1	201.9359	-6.451008	-8.541376E-006	0.0008229	9
	9	37	37828.12	198.4728	-26.72921	1	200.2645	-7.670127	-1.803951E-005	0.0003588	9
	10	40	30046.88	197.1562	-31.21656	1	199.6123	-8.997189	2.016102E-005	-7.539552E-005	9
	11	42	23859.38	196.6154	-36.5018	1	199.9749	-10.51727	1.511768E-005	-0.0007741	9
	12	45	18984.38	196.8232	-42.39497	1	201.3373	-12.15558	-8.789676E-006	-0.0000968	9
	13	47	15046.87	198.0851	-49.4616	1	204.1669	-14.02	-2.072269E-005	0.0004962	9
	14	49	11953.13	199.5583	-57.18445	1	207.59	-15.98992	-2.023297E-005	0.0009714	9
	15	52	9515.62	201.6085	-65.856	1	212.092	-18.08978	2.098306E-005	-0.0008168	9
	16	54	7546.875	204.3285	-75.83665	1	217.948	-20.36243	7.424396E-006	-0.0006227	9
	17	56	5928.309	207.7739	-88.33566	1	225.7724	-23.0329	7.447207E-006	-0.0006073	9
	18	59	4733.456	210.7557	-101.8387	1	234.0707	-25.79018	2.615233E-005	-0.0006251	9
	19	61	3796.875	214.4185	-117.49	1	244.4978	-28.72042	-1.436641E-005	0.000128	9
	20	63	2987.132	216.6081	-138.3389	1	257.015	-32.56473	1.472865E-005	-0.0007361	9
	21	67	2390.625	217.3374	-162.7357	1	271.5114	-36.82476	-7.798742E-006	0.0007871	9
	22	71	1884.191	220.1376	-194.2186	1	293.5668	-41.42067	-1.96743E-005	0.0009256	9
	23	73	1516.544	222.4099	-232.0658	1	321.4354	-46.21714	-7.107827E-006	0.0008003	9
	24	75	1193.986	224.9143	-283.4341	1	361.8305	-51.56684	2.069645E-005	-0.0007822	9
	25	78	946.5144	227.3391	-346.2842	1	414.2412	-56.71469	1.411586E-005	-0.000727	9
	26	80	751.7689	229.3671	-425.6283	1	483.4964	-61.68019	6.588657E-006	-0.0001006	8
	27	83	597.4265	234.4685	-526.8738	1	576.6901	-66.01006	8.547229E-006	-0.0015357	8
	28	85	477.4305	241.6097	-650.4891	1	693.9102	-69.6236	1.25264E-007	0.0006392	8
	29	87	376.6741	252.8834	-813.684	1	852.075	-72.73537	1.090939E-007	0.0006351	8
	30	90	298.2954	269.1972	-1015.204	1	1050.289	-75.14891	1.051977E-007	0.0006459	8
	31	92	237.7717	292.0523	-1258.744	1	1292.181	-76.93742	1.251684E-007	0.0006324	8
	32	94	189.0121	325.5107	-1564.319	1	1597.827	-78.24538	1.06516E-007	0.0006377	8
	33	97	150.2404	373.6304	-1942.676	1	1978.279	-79.11337	1.330991E-007	0.0006338	8
	34	99	119.1737	443.7658	-2415.323	1	2455.751	-79.58919	1.314644E-007	0.0006391	8
	35	102	95.0169	541.0062	-2984.164	1	3032.808	-79.72432	1.239089E-007	0.0006807	8
	36	104	75.60484	680.8867	-3686.123	1	3748.48	-79.5345	1.258722E-007	0.00068	8
	37	107	54.50582	993.141	-4982.674	1	5080.686	-78.72759	-5.003035E-008	0.000624	7
	38	109	45.95588	1228.071	-5804.511	1	5933.001	-78.05399	-4.647971E-008	0.0006258	7
	39	112	37.20238	1619.905	-6996.498	1	7181.579	-76.96396	-5.289476E-008	0.0006537	7
	40	114	30.04808	2172.135	-8410.275	1	8686.248	-75.51859	-5.971786E-008	0.0006228	7
	41	116	23.91582	2975.76	-10167.87	1	10594.37	-73.68719	-6.846394E-008	0.0006209	7
	42	119	18.60119	4223.044	-12409.79	1	13108.66	-71.20659	-5.994562E-008	0.0006195	7
	43	121	15.02404	5696.638	-14536.5	1	15612.86	-68.60052	-6.465672E-008	0.0006303	7
	44	123	12.01923	7695.877	-16905.08	1	18574.4	-65.52305	-8.501816E-008	0.0006169	7
	45	126	9.450605	10534.4	-19467	1	22134.53	-61.58034	-8.652962E-008	0.0006241	7
	46	128	7.512019	14000.08	-21569.67	1	25714.83	-57.01388	-9.483669E-008	0.0006387	7
	47	131	5.978954	18036.11	-22898.89	1	29148.93	-51.77457	-1.023999E-007	0.0006155	7
	48	136	4.734848	22426.93	-23479.96	1	32469.61	-46.31404	-1.078977E-007	0.0006242	7
	49	140	3.75601	26651.46	-23220	1	35347.82	-41.0639	-1.122046E-007	0.000639	7
	50	146	3.004808	30414.13	-22395.48	1	37770.05	-36.36611	-1.136257E-007	0.0005927	7
	51	152	2.372217	33926.26	-21085.56	1	39944.86	-31.86143	-1.459492E-007	0.0006012	6
	52	160	1.878005	36380.64	-18954.45	1	41022.21	-27.51968	-1.48419E-007	0.000682	6
	53	169	1.512097	38246.04	-17426.65	1	42029.12	-24.49619	-1.497613E-007	0.000652	6
	54	180	1.201923	39965.55	-15969.31	1	43037.94	-21.78051	-1.523892E-007	0.0007067	6
	55	193	0.956633	41520.32	-14593.18	1	44010.2	-19.36509	-1.749294E-007	3.877072E-005	6
