EXPLAIN
TAG	EISPOT
TITLE	LABEL	Potentiostatic EIS	Test Identifier
DATE	LABEL	2/27/2021	Date
TIME	LABEL	15:28:53	Time
NOTES	NOTES	1	Notes...
	
PSTAT	PSTAT	REF3000-16137	Potentiostat
VDC	POTEN	0.00000E+000	T	DC Voltage (V)
FREQINIT	QUANT	3.00000E+005	Initial Freq. (Hz)
FREQFINAL	QUANT	1.00000E+000	Final Freq. (Hz)
PTSPERDEC	QUANT	1.00000E+001	Points/decade
VAC	QUANT	5.00000E+001	AC Voltage (mV rms)
AREA	QUANT	1.00000E+000	Sample Area (cm^2)
SPEED	SELECTOR	2	Optimize for:
ZGUESS	QUANT	1.00000E+003	Estimated Z (ohms)
EOC	QUANT	0	Open Circuit (V)
SEQUENCER	TOGGLE	TRUE	Run as Sequence
PSTATMODEL	IQUANT	5	Pstat Model
PSTATSECTION	LABEL	REF3000-16137	Pstat Section
PSTATSERIALNO	LABEL	16137	Pstat Serial Number
CTRLMODE	IQUANT	1	Control Mode
IESTAB	IQUANT	0	I/E Stability
CASPEED	IQUANT	1	Control Amp Speed
CONVENTION	IQUANT	1	Current Convention
ICHRANGE	IQUANT	2	Ich Range
ICHRANGEMODE	TOGGLE	F	Ich Auto Range
ICHOFFSETENABLE	TOGGLE	T	Ich Offset Enable
ICHOFFSET	QUANT	0	Ich Offset (V)
ICHFILTER	IQUANT	3	Ich Filter
VCHRANGE	IQUANT	2	Vch Range
VCHRANGEMODE	TOGGLE	F	Vch Auto Range
VCHOFFSETENABLE	TOGGLE	T	Vch Offset Enable
VCHOFFSET	QUANT	0	Vch Offset (V)
VCHFILTER	IQUANT	3	Vch Filter
ACHRANGE	IQUANT	2	Ach Range
ACHOFFSETENABLE	TOGGLE	F	Ach Offset Enable
ACHOFFSET	QUANT	0	Ach Offset (V)
ACHFILTER	IQUANT	3	Ach Filter
IERANGELOWERLIMIT	IQUANT	2	I/E Range Lower Limit
IERANGEMODE	TOGGLE	F	I/E AutoRange
IERANGE	IQUANT	11	I/E Range
POSFEEDENABLE	TOGGLE	F	Positive Feedback IR Comp
POSFEEDRESISTANCE	QUANT	0	Positive Feedback Resistance (ohm)
ACHSELECT	IQUANT	0	Ach Select
CABLEID	IQUANT	13	Cable ID
DCCALDATE	LABEL	7/31/2020	DC Calibration Date
ACCALDATE	LABEL	7/31/2020	AC Calibration Date
THERMOSELECT	IQUANT	1	Thermo Select
FRAMEWORKVERSION	QUANT	6.33	Framework Version
INSTRUMENTVERSION	LABEL	3.50	Instrument Version
COMPLIANCEVOLTAGE	IQUANT	0	Compliance Voltage
ZCURVE	TABLE
	Pt	Time	Freq	Zreal	Zimag	Zsig	Zmod	Zphz	Idc	Vdc	IERange
	#	s	Hz	ohm	ohm	V	ohm	°	A	V	#
	0	22	300046.9	666.4188	-171.4876	1	688.1294	-14.43067	-1.24079E-005	0.0016222	9
	1	29	238359.4	707.8691	-156.1748	1	724.8926	-12.44166	-5.681669E-005	0.0005441	9
	2	44	189328.1	751.3339	-146.4697	1	765.4776	-11.03124	-1.996368E-005	0.0011083	9
	3	55	150421.9	782.1691	-129.281	1	792.7812	-9.385293	-2.997146E-005	-0.0008105	9
	4	61	119484.4	813.4444	-86.14284	1	817.9929	-6.045028	5.050944E-005	-0.0106303	8
	5	68	94921.88	825.019	-72.10181	1	828.1637	-4.994624	8.115217E-006	0.0022976	8
	6	70	75421.88	841.7187	-60.03039	1	843.8566	-4.07936	-1.367931E-005	0.0018088	8
	7	73	59859.37	849.3267	-53.88653	1	851.0344	-3.630332	1.916031E-005	-0.0041678	8
	8	75	47578.12	861.7105	-43.57393	1	862.8115	-2.894797	1.194369E-006	0.004817	8
	9	79	37828.12	874.2745	-37.63136	1	875.084	-2.464659	-1.324103E-005	0.001568	8
	10	82	30046.88	881.5312	-31.3365	1	882.0881	-2.035882	-1.814335E-005	0.0074078	8
	11	84	23859.38	891.687	-26.24455	1	892.0731	-1.685869	9.023395E-007	0.0049565	8
	12	87	18984.38	899.023	-22.87936	1	899.3141	-1.457814	1.492484E-005	-0.0066566	8
	13	89	15046.87	908.9377	-19.27919	1	909.1422	-1.2151	-1.80941E-005	0.0059778	8
	14	92	11953.13	912.8442	-15.94857	1	912.9835	-1.00093	2.021133E-005	-0.005776	8
	15	94	9515.62	920.9371	-12.70259	1	921.0247	-0.7902373	-1.636077E-005	0.0032577	8
	16	97	7546.875	927.5961	-11.5176	1	927.6676	-0.7113831	-1.854089E-005	0.0060913	8
	17	99	5928.309	937.0173	-7.144265	1	937.0445	-0.4368418	-1.82592E-005	0.0073755	8
	18	102	4733.456	943.615	-10.23529	1	943.6705	-0.6214568	1.998311E-005	-0.0056774	8
	19	105	3796.875	952.902	-8.441997	1	952.939	-0.5075844	-1.866383E-005	0.0062339	8
	20	108	2987.132	962.499	-10.48534	1	962.556	-0.6241482	1.995125E-005	-0.0056478	8
	21	111	2390.625	970.311	-10.05543	1	970.363	-0.5937406	2.00191E-005	-0.0042784	8
	22	113	1884.191	983.258	-5.119054	1	983.272	-0.2982915	1.849155E-005	-0.0065351	8
	23	116	1516.544	986.169	-10.34287	1	986.223	-0.6008924	1.99828E-005	-0.00426	8
	24	119	1193.986	997.361	-12.25389	1	997.436	-0.7039186	-1.633031E-005	0.0081618	8
	25	123	946.5144	1008.561	-15.3576	1	1008.677	-0.8723894	1.034207E-005	-0.0062631	8
	26	125	751.7689	1015.53	-18.01325	1	1015.69	-1.016193	-9.094832E-006	-0.0005167	8
	27	128	597.4265	1020.854	-21.79499	1	1021.087	-1.223065	1.876179E-005	-0.0066515	8
	28	130	477.4305	1031.738	-24.61044	1	1032.032	-1.366439	-3.919181E-008	0.0006446	8
	29	133	376.6741	1039.838	-30.15441	1	1040.275	-1.661063	-7.646329E-008	0.0006539	8
	30	135	298.2954	1048.001	-37.06966	1	1048.657	-2.025809	-8.153231E-008	0.0006653	8
	31	137	237.7717	1056.658	-45.53149	1	1057.639	-2.467353	-9.08415E-008	0.0006657	8
	32	140	189.0121	1065.571	-56.17207	1	1067.05	-3.017581	-4.192907E-008	0.0006513	8
	33	142	150.2404	1074.841	-69.37527	1	1077.078	-3.693015	-9.742907E-008	0.0006713	8
	34	144	119.1737	1084.568	-86.00057	1	1087.972	-4.533769	-3.091393E-008	0.0006465	8
	35	147	95.0169	1094.659	-106.1101	1	1099.79	-5.536633	-5.267414E-008	0.0006498	8
	36	149	75.60484	1105.75	-131.3628	1	1113.526	-6.774969	-3.379859E-008	0.0006487	8
	37	152	54.50582	1119.367	-178.3779	1	1133.491	-9.054296	-9.369214E-008	0.0006744	8
	38	154	45.95588	1130.883	-209.1198	1	1150.056	-10.47663	-9.824003E-009	0.0006587	8
	39	157	37.20238	1143.859	-255.1225	1	1171.965	-12.57327	-4.366688E-008	0.0006726	8
	40	159	30.04808	1158.799	-311.5347	1	1199.946	-15.04775	-8.164228E-008	0.000666	8
	41	162	23.91582	1175.578	-385.8694	1	1237.286	-18.17181	-1.684126E-009	0.0006602	8
	42	164	18.60119	1195.944	-487.7669	1	1291.588	-22.18813	-7.092065E-008	0.0006795	8
	43	166	15.02404	1218.394	-595.1375	1	1355.976	-26.0337	-1.733866E-007	0.0006619	8
	44	168	12.01923	1243.727	-731.3333	1	1442.812	-30.45627	-1.339939E-008	0.0006577	8
	45	171	9.450605	1277.354	-914.3483	1	1570.881	-35.59562	-3.237914E-008	0.0006552	8
	46	173	7.512019	1315.678	-1131.294	1	1735.176	-40.69079	-1.209118E-008	0.0006633	8
	47	176	5.978954	1364.262	-1395.152	1	1951.323	-45.64137	-9.017759E-008	0.0006826	8
	48	179	4.734848	1423.491	-1730.167	1	2240.492	-50.55423	-5.290666E-008	0.0006815	8
	49	182	3.75601	1496.695	-2139.382	1	2610.948	-55.02365	-8.111141E-008	0.0006489	8
	50	186	3.004808	1583.158	-2623.542	1	3064.206	-58.89141	-5.981339E-008	0.0006477	8
	51	189	2.372217	1694.728	-3252.74	1	3667.754	-62.47978	-7.704639E-008	0.0006666	8
	52	194	1.878005	1843.157	-4041.791	1	4442.218	-65.48583	-3.775905E-008	0.0006362	7
	53	198	1.512097	2005.353	-4928.352	1	5320.723	-67.85853	-3.030582E-008	0.0005288	7
	54	204	1.201923	2219.25	-6081.587	1	6473.854	-69.95232	-3.670052E-008	0.0006513	7
	55	210	0.956633	2477.49	-7488.448	1	7887.637	-71.69364	-3.668538E-008	-4.547357E-006	7
