EXPLAIN
TAG	EISPOT
TITLE	LABEL	Potentiostatic EIS	Test Identifier
DATE	LABEL	2/27/2021	Date
TIME	LABEL	13:50:31	Time
NOTES	NOTES	1	Notes...
	
PSTAT	PSTAT	REF3000-16137	Potentiostat
VDC	POTEN	0.00000E+000	T	DC Voltage (V)
FREQINIT	QUANT	3.00000E+005	Initial Freq. (Hz)
FREQFINAL	QUANT	1.00000E+000	Final Freq. (Hz)
PTSPERDEC	QUANT	1.00000E+001	Points/decade
VAC	QUANT	5.00000E+001	AC Voltage (mV rms)
AREA	QUANT	1.00000E+000	Sample Area (cm^2)
SPEED	SELECTOR	2	Optimize for:
ZGUESS	QUANT	1.00000E+003	Estimated Z (ohms)
EOC	QUANT	0	Open Circuit (V)
SEQUENCER	TOGGLE	TRUE	Run as Sequence
PSTATMODEL	IQUANT	5	Pstat Model
PSTATSECTION	LABEL	REF3000-16137	Pstat Section
PSTATSERIALNO	LABEL	16137	Pstat Serial Number
CTRLMODE	IQUANT	1	Control Mode
IESTAB	IQUANT	0	I/E Stability
CASPEED	IQUANT	1	Control Amp Speed
CONVENTION	IQUANT	1	Current Convention
ICHRANGE	IQUANT	2	Ich Range
ICHRANGEMODE	TOGGLE	F	Ich Auto Range
ICHOFFSETENABLE	TOGGLE	T	Ich Offset Enable
ICHOFFSET	QUANT	0	Ich Offset (V)
ICHFILTER	IQUANT	3	Ich Filter
VCHRANGE	IQUANT	2	Vch Range
VCHRANGEMODE	TOGGLE	F	Vch Auto Range
VCHOFFSETENABLE	TOGGLE	T	Vch Offset Enable
VCHOFFSET	QUANT	0	Vch Offset (V)
VCHFILTER	IQUANT	3	Vch Filter
ACHRANGE	IQUANT	2	Ach Range
ACHOFFSETENABLE	TOGGLE	F	Ach Offset Enable
ACHOFFSET	QUANT	0	Ach Offset (V)
ACHFILTER	IQUANT	3	Ach Filter
IERANGELOWERLIMIT	IQUANT	2	I/E Range Lower Limit
IERANGEMODE	TOGGLE	F	I/E AutoRange
IERANGE	IQUANT	11	I/E Range
POSFEEDENABLE	TOGGLE	F	Positive Feedback IR Comp
POSFEEDRESISTANCE	QUANT	0	Positive Feedback Resistance (ohm)
ACHSELECT	IQUANT	0	Ach Select
CABLEID	IQUANT	13	Cable ID
DCCALDATE	LABEL	7/31/2020	DC Calibration Date
ACCALDATE	LABEL	7/31/2020	AC Calibration Date
THERMOSELECT	IQUANT	1	Thermo Select
FRAMEWORKVERSION	QUANT	6.33	Framework Version
INSTRUMENTVERSION	LABEL	3.50	Instrument Version
COMPLIANCEVOLTAGE	IQUANT	0	Compliance Voltage
ZCURVE	TABLE
	Pt	Time	Freq	Zreal	Zimag	Zsig	Zmod	Zphz	Idc	Vdc	IERange
	#	s	Hz	ohm	ohm	V	ohm	°	A	V	#
	0	10	300046.9	2.329597	2.22261	1	3.219786	43.65368	-0.0001411	-0.0002494	11
	1	13	238359.4	2.293011	1.757773	1	2.889233	37.47299	5.067656E-006	-0.0001194	11
	2	17	189328.1	2.339386	1.233958	1	2.644878	27.81034	-0.0001517	-0.0001575	12
	3	20	150421.9	2.294756	0.961839	1	2.488179	22.74082	-1.111132E-005	0.000354	12
	4	24	119484.4	2.263757	0.7519776	1	2.385386	18.37552	-0.0001142	0.0004684	12
	5	27	94921.88	2.243691	0.5725316	1	2.315587	14.31491	-8.666057E-005	0.0004751	12
	6	31	75421.88	2.222477	0.4827988	1	2.274313	12.2562	2.090703E-005	0.0005858	11
	7	34	59859.37	2.221655	0.3431779	1	2.248004	8.78105	-1.446664E-006	0.000599	11
	8	36	47578.12	2.222747	0.2220005	1	2.233806	5.703595	1.223569E-005	0.0006576	11
	9	39	37828.12	2.224129	0.1131565	1	2.227006	2.912513	-3.340513E-005	0.0006191	11
	10	41	30046.88	2.227887	0.0108758	1	2.227914	0.2796977	2.38635E-005	0.0006949	11
	11	44	23859.38	2.232268	-0.0896445	1	2.234068	-2.299675	-2.80266E-006	0.0006799	11
	12	46	18984.38	2.238618	-0.1926025	1	2.246888	-4.91741	-3.937764E-005	0.0006586	11
	13	48	15046.87	2.247725	-0.3059101	1	2.268446	-7.750205	-2.829264E-005	0.0007058	11
	14	51	11953.13	2.257029	-0.4324621	1	2.298086	-10.8468	-4.356476E-005	0.000681	11
	15	53	9515.62	2.2704	-0.5769219	1	2.342553	-14.25744	1.007924E-005	0.0007185	11
	16	55	7546.875	2.286972	-0.7516754	1	2.407334	-18.19451	-4.03932E-005	0.0006862	11
	17	57	5928.309	2.310814	-0.970818	1	2.506461	-22.78823	-2.951643E-005	0.0007351	11
	18	60	4733.456	2.33832	-1.219181	1	2.63707	-27.53717	2.324479E-005	0.0007298	11
	19	62	3796.875	2.372889	-1.515262	1	2.815425	-32.56118	-5.375525E-006	0.0007073	11
	20	64	2987.132	2.421758	-1.908427	1	3.083344	-38.23931	2.600319E-005	0.0007311	11
	21	67	2390.625	2.479957	-2.358866	1	3.422636	-43.56649	3.208013E-005	0.0007442	11
	22	69	1884.191	2.560741	-2.948681	1	3.905395	-49.02777	1.488379E-005	0.0007175	11
	23	71	1516.544	2.658308	-3.611763	1	4.484577	-53.64641	1.845388E-005	0.000656	10
	24	74	1193.986	2.790377	-4.505752	1	5.299812	-58.23039	-9.983349E-006	0.000677	10
	25	76	946.5144	2.958636	-5.574533	1	6.311018	-62.04325	2.879833E-005	0.000672	10
	26	78	751.7689	3.162849	-6.882796	1	7.574727	-65.31982	1.194195E-005	0.0006565	10
	27	81	597.4265	3.42153	-8.488234	1	9.151884	-68.04608	-1.859713E-005	0.0006942	10
	28	83	477.4305	3.743976	-10.40038	1	11.05375	-70.2019	3.741757E-006	0.0006919	10
	29	85	376.6741	4.171567	-12.88493	1	13.54339	-72.06035	3.679223E-006	0.0006985	10
	30	88	298.2954	4.705579	-15.89806	1	16.57983	-73.51206	4.103646E-006	0.0006831	10
	31	90	237.7717	5.359739	-19.48525	1	20.20895	-74.6202	4.214008E-006	0.0006822	10
	32	92	189.0121	6.19318	-23.92887	1	24.71733	-75.48933	3.485663E-006	0.0006811	10
	33	95	150.2404	7.242151	-29.36122	1	30.2412	-76.14417	3.33349E-006	0.0006819	10
	34	97	119.1737	8.570204	-36.06569	1	37.06997	-76.63286	3.732476E-006	0.0006832	10
	35	100	95.0169	10.17649	-44.00368	1	45.16508	-76.97844	6.287647E-006	8.131949E-005	9
	36	102	75.60484	12.19841	-53.81762	1	55.18276	-77.22902	6.046227E-006	7.773584E-005	9
	37	105	54.50582	15.9538	-71.74142	1	73.49391	-77.46262	5.856715E-006	7.475149E-005	9
	38	107	45.95588	18.43615	-83.3615	1	85.37582	-77.52925	6.19606E-006	8.252486E-005	9
	39	109	37.20238	22.11138	-100.3227	1	102.7305	-77.57058	6.055426E-006	8.631374E-005	9
	40	112	30.04808	26.69996	-121.0103	1	123.9209	-77.5575	5.860358E-006	8.72839E-005	9
	41	114	23.91582	32.96289	-147.9975	1	151.6239	-77.44369	5.714535E-006	8.675917E-005	9
	42	117	18.60119	41.8428	-184.6529	1	189.3344	-77.23226	6.116066E-006	8.576683E-005	9
	43	119	15.02404	51.82801	-222.9403	1	228.8853	-76.91264	5.947199E-006	8.936087E-005	9
	44	121	12.01923	65.54654	-271.3022	1	279.1079	-76.41763	5.734977E-006	8.622256E-005	9
	45	124	9.450605	85.81456	-334.9579	1	345.7759	-75.63018	5.832991E-006	0.0001003	9
	46	126	7.512019	112.5967	-409.2458	1	424.4527	-74.6167	5.877065E-006	9.113154E-005	9
	47	129	5.978954	148.7708	-494.978	1	516.852	-73.2713	5.132317E-006	0.0006657	8
	48	132	4.734848	201.0473	-600.897	1	633.6381	-71.50086	5.151985E-006	0.000638	8
	49	135	3.75601	273.3006	-722.6928	1	772.6436	-69.2849	5.438996E-006	0.000683	8
	50	138	3.004808	367.9466	-854.2238	1	930.0983	-66.69662	5.361495E-006	0.0006836	8
	51	142	2.372217	502.543	-1003.137	1	1121.978	-63.39045	5.360358E-006	0.0006723	8
	52	146	1.878005	678.853	-1154.368	1	1339.181	-59.54134	5.349655E-006	0.0006425	8
	53	151	1.512097	878.6704	-1287.061	1	1558.392	-55.67883	5.191167E-006	0.0007657	8
	54	156	1.201923	1129.697	-1406.863	1	1804.295	-51.2359	5.149115E-006	0.0006444	8
	55	163	0.956633	1410.163	-1491.94	1	2052.911	-46.61407	4.581669E-006	1.33233E-005	8
