EXPLAIN
TAG	EISPOT
TITLE	LABEL	Potentiostatic EIS	Test Identifier
DATE	LABEL	2/27/2021	Date
TIME	LABEL	14:04:53	Time
NOTES	NOTES	1	Notes...
	
PSTAT	PSTAT	REF3000-16137	Potentiostat
VDC	POTEN	0.00000E+000	T	DC Voltage (V)
FREQINIT	QUANT	3.00000E+005	Initial Freq. (Hz)
FREQFINAL	QUANT	1.00000E+000	Final Freq. (Hz)
PTSPERDEC	QUANT	1.00000E+001	Points/decade
VAC	QUANT	5.00000E+001	AC Voltage (mV rms)
AREA	QUANT	1.00000E+000	Sample Area (cm^2)
SPEED	SELECTOR	2	Optimize for:
ZGUESS	QUANT	1.00000E+003	Estimated Z (ohms)
EOC	QUANT	0	Open Circuit (V)
SEQUENCER	TOGGLE	TRUE	Run as Sequence
PSTATMODEL	IQUANT	5	Pstat Model
PSTATSECTION	LABEL	REF3000-16137	Pstat Section
PSTATSERIALNO	LABEL	16137	Pstat Serial Number
CTRLMODE	IQUANT	1	Control Mode
IESTAB	IQUANT	0	I/E Stability
CASPEED	IQUANT	1	Control Amp Speed
CONVENTION	IQUANT	1	Current Convention
ICHRANGE	IQUANT	2	Ich Range
ICHRANGEMODE	TOGGLE	F	Ich Auto Range
ICHOFFSETENABLE	TOGGLE	T	Ich Offset Enable
ICHOFFSET	QUANT	0	Ich Offset (V)
ICHFILTER	IQUANT	3	Ich Filter
VCHRANGE	IQUANT	2	Vch Range
VCHRANGEMODE	TOGGLE	F	Vch Auto Range
VCHOFFSETENABLE	TOGGLE	T	Vch Offset Enable
VCHOFFSET	QUANT	0	Vch Offset (V)
VCHFILTER	IQUANT	3	Vch Filter
ACHRANGE	IQUANT	2	Ach Range
ACHOFFSETENABLE	TOGGLE	F	Ach Offset Enable
ACHOFFSET	QUANT	0	Ach Offset (V)
ACHFILTER	IQUANT	3	Ach Filter
IERANGELOWERLIMIT	IQUANT	2	I/E Range Lower Limit
IERANGEMODE	TOGGLE	F	I/E AutoRange
IERANGE	IQUANT	11	I/E Range
POSFEEDENABLE	TOGGLE	F	Positive Feedback IR Comp
POSFEEDRESISTANCE	QUANT	0	Positive Feedback Resistance (ohm)
ACHSELECT	IQUANT	0	Ach Select
CABLEID	IQUANT	13	Cable ID
DCCALDATE	LABEL	7/31/2020	DC Calibration Date
ACCALDATE	LABEL	7/31/2020	AC Calibration Date
THERMOSELECT	IQUANT	1	Thermo Select
FRAMEWORKVERSION	QUANT	6.33	Framework Version
INSTRUMENTVERSION	LABEL	3.50	Instrument Version
COMPLIANCEVOLTAGE	IQUANT	0	Compliance Voltage
ZCURVE	TABLE
	Pt	Time	Freq	Zreal	Zimag	Zsig	Zmod	Zphz	Idc	Vdc	IERange
	#	s	Hz	ohm	ohm	V	ohm	°	A	V	#
	0	10	300046.9	2.717025	2.233686	1	3.517326	39.42387	2.169962E-005	-0.0000975	10
	1	13	238359.4	2.689752	1.786884	1	3.229198	33.5973	-2.37797E-005	-0.0006062	10
	2	16	189328.1	2.756052	1.191132	1	3.002435	23.37341	-0.0000997	-0.0003487	12
	3	20	150421.9	2.673374	1.083608	1	2.884638	22.06437	1.106515E-005	0.0004543	11
	4	22	119484.4	2.657473	0.8421155	1	2.787709	17.58267	3.872801E-006	0.0005334	11
	5	25	94921.88	2.650547	0.642762	1	2.727369	13.63118	1.664734E-005	0.0005844	11
	6	27	75421.88	2.647567	0.4752048	1	2.689876	10.17552	1.168358E-005	0.0005906	11
	7	30	59859.37	2.64876	0.3347364	1	2.669827	7.20256	-1.427338E-007	0.0006337	11
	8	32	47578.12	2.650824	0.2122841	1	2.65931	4.578609	8.472221E-006	0.0006709	11
	9	35	37828.12	2.653802	0.1021492	1	2.655767	2.204319	-4.890324E-005	0.0006391	11
	10	37	30046.88	2.658322	-0.0021742	1	2.658323	-0.0468616	-5.157457E-005	0.0006478	11
	11	40	23859.38	2.664754	-0.1057095	1	2.66685	-2.271705	1.139491E-006	0.0007223	11
	12	42	18984.38	2.671715	-0.212296	1	2.680136	-4.543211	1.815699E-005	0.0007368	11
	13	44	15046.87	2.680364	-0.3298901	1	2.700589	-7.016483	2.005448E-005	0.0007232	11
	14	47	11953.13	2.691877	-0.4623217	1	2.73129	-9.7453	2.535167E-005	0.0007477	11
	15	49	9515.62	2.705768	-0.6146271	1	2.774698	-12.79782	1.131217E-005	0.0007416	11
	16	51	7546.875	2.723112	-0.7985374	1	2.837781	-16.34348	-4.906646E-005	0.0006707	11
	17	54	5928.309	2.746896	-1.030321	1	2.933769	-20.56035	-3.21616E-005	0.0006925	11
	18	56	4733.456	2.775433	-1.294113	1	3.062312	-24.99844	-2.961961E-005	0.0006944	11
	19	58	3796.875	2.811733	-1.607102	1	3.238613	-29.75099	-1.009463E-005	0.0007164	11
	20	61	2987.132	2.860432	-2.027316	1	3.506006	-35.3269	-8.0057E-006	0.0007057	11
	21	63	2390.625	2.922603	-2.508982	1	3.851831	-40.64527	-2.818291E-005	0.000685	10
	22	65	1884.191	3.004954	-3.141334	1	4.347151	-46.27113	-2.167175E-005	0.0006985	10
	23	67	1516.544	3.100242	-3.8485	1	4.941908	-51.14608	6.485334E-006	0.0006933	10
	24	70	1193.986	3.236223	-4.805934	1	5.793975	-56.04444	-1.192643E-008	0.0006695	10
	25	72	946.5144	3.407589	-5.956905	1	6.86268	-60.22871	-1.502699E-005	0.0007051	10
	26	75	751.7689	3.61988	-7.361672	1	8.203521	-63.81574	1.984577E-005	0.0006653	10
	27	77	597.4265	3.892984	-9.086588	1	9.88541	-66.80817	2.169643E-005	0.0006682	10
	28	79	477.4305	4.22691	-11.14597	1	11.92055	-69.23167	2.515357E-007	0.0006878	10
	29	82	376.6741	4.675793	-13.8201	1	14.58966	-71.30764	4.676714E-007	0.0006847	10
	30	84	298.2954	5.234616	-17.06392	1	17.84876	-72.94581	-4.637099E-007	0.000686	10
	31	86	237.7717	5.918235	-20.92768	1	21.74841	-74.20938	2.790255E-007	0.0006885	10
	32	89	189.0121	6.785646	-25.71295	1	26.59325	-75.21668	-8.196394E-007	0.0006943	10
	33	91	150.2404	7.875467	-31.57229	1	32.5397	-75.99383	-3.656225E-007	0.0006893	10
	34	93	119.1737	9.248491	-38.8099	1	39.89666	-76.59628	-7.39573E-008	0.0006885	10
	35	96	95.0169	10.90423	-47.39177	1	48.63005	-77.0425	2.740052E-006	0.0001119	9
	36	98	75.60484	12.98089	-58.00728	1	59.44197	-77.38615	2.717986E-006	8.40014E-005	9
	37	101	54.50582	16.82298	-77.41137	1	79.21826	-77.73917	2.565867E-006	8.550356E-005	9
	38	103	45.95588	19.336	-89.99738	1	92.05112	-77.8743	2.918278E-006	9.088376E-005	9
	39	106	37.20238	23.05472	-108.4333	1	110.8571	-77.99671	2.772098E-006	0.0000975	9
	40	108	30.04808	27.60179	-130.8838	1	133.7626	-78.09151	2.796154E-006	8.448436E-005	9
	41	111	23.91582	33.62737	-159.9715	1	163.4677	-78.12878	2.643223E-006	9.182148E-005	9
	42	113	18.60119	42.03287	-199.7244	1	204.0995	-78.11529	2.743683E-006	8.936084E-005	9
	43	115	15.02404	51.08812	-241.304	1	246.6528	-78.04604	2.975436E-006	0.0001014	9
	44	117	12.01923	63.04882	-293.9861	1	300.6709	-77.89559	2.926832E-006	9.423016E-005	9
	45	120	9.450605	79.84421	-363.5818	1	372.2456	-77.6142	2.898727E-006	8.269076E-005	9
	46	122	7.512019	100.8528	-443.7993	1	455.1144	-77.19704	2.272457E-006	0.0006796	8
	47	125	5.978954	128.9642	-542.8223	1	557.9317	-76.63539	2.209318E-006	0.0006692	8
	48	128	4.734848	168.137	-666.4843	1	687.3655	-75.84116	2.265979E-006	0.0007002	8
	49	131	3.75601	222.4211	-815.2258	1	845.0232	-74.7392	2.126582E-006	0.0006549	8
	50	135	3.004808	294.2228	-985.97	1	1028.934	-73.3844	2.193362E-006	0.0006524	8
	51	138	2.372217	401.3536	-1198.276	1	1263.705	-71.48211	2.143401E-006	0.0006733	8
	52	143	1.878005	550.4478	-1445.963	1	1547.192	-69.15923	2.071449E-006	0.0006626	8
	53	147	1.512097	733.3847	-1702.434	1	1853.681	-66.6943	2.126789E-006	0.0005682	8
	54	153	1.201923	997.576	-1995.292	1	2230.773	-63.43656	2.075237E-006	0.0006726	8
	55	159	0.956633	1333.313	-2293.036	1	2652.496	-59.82362	1.96748E-006	2.902943E-005	8
