EXPLAIN
TAG	EISPOT
TITLE	LABEL	Potentiostatic EIS	Test Identifier
DATE	LABEL	2/27/2021	Date
TIME	LABEL	14:13:18	Time
NOTES	NOTES	1	Notes...
	
PSTAT	PSTAT	REF3000-16137	Potentiostat
VDC	POTEN	0.00000E+000	T	DC Voltage (V)
FREQINIT	QUANT	3.00000E+005	Initial Freq. (Hz)
FREQFINAL	QUANT	1.00000E+000	Final Freq. (Hz)
PTSPERDEC	QUANT	1.00000E+001	Points/decade
VAC	QUANT	5.00000E+001	AC Voltage (mV rms)
AREA	QUANT	1.00000E+000	Sample Area (cm^2)
SPEED	SELECTOR	2	Optimize for:
ZGUESS	QUANT	1.00000E+003	Estimated Z (ohms)
EOC	QUANT	0	Open Circuit (V)
SEQUENCER	TOGGLE	TRUE	Run as Sequence
PSTATMODEL	IQUANT	5	Pstat Model
PSTATSECTION	LABEL	REF3000-16137	Pstat Section
PSTATSERIALNO	LABEL	16137	Pstat Serial Number
CTRLMODE	IQUANT	1	Control Mode
IESTAB	IQUANT	0	I/E Stability
CASPEED	IQUANT	1	Control Amp Speed
CONVENTION	IQUANT	1	Current Convention
ICHRANGE	IQUANT	2	Ich Range
ICHRANGEMODE	TOGGLE	F	Ich Auto Range
ICHOFFSETENABLE	TOGGLE	T	Ich Offset Enable
ICHOFFSET	QUANT	0	Ich Offset (V)
ICHFILTER	IQUANT	3	Ich Filter
VCHRANGE	IQUANT	2	Vch Range
VCHRANGEMODE	TOGGLE	F	Vch Auto Range
VCHOFFSETENABLE	TOGGLE	T	Vch Offset Enable
VCHOFFSET	QUANT	0	Vch Offset (V)
VCHFILTER	IQUANT	3	Vch Filter
ACHRANGE	IQUANT	2	Ach Range
ACHOFFSETENABLE	TOGGLE	F	Ach Offset Enable
ACHOFFSET	QUANT	0	Ach Offset (V)
ACHFILTER	IQUANT	3	Ach Filter
IERANGELOWERLIMIT	IQUANT	2	I/E Range Lower Limit
IERANGEMODE	TOGGLE	F	I/E AutoRange
IERANGE	IQUANT	11	I/E Range
POSFEEDENABLE	TOGGLE	F	Positive Feedback IR Comp
POSFEEDRESISTANCE	QUANT	0	Positive Feedback Resistance (ohm)
ACHSELECT	IQUANT	0	Ach Select
CABLEID	IQUANT	13	Cable ID
DCCALDATE	LABEL	7/31/2020	DC Calibration Date
ACCALDATE	LABEL	7/31/2020	AC Calibration Date
THERMOSELECT	IQUANT	1	Thermo Select
FRAMEWORKVERSION	QUANT	6.33	Framework Version
INSTRUMENTVERSION	LABEL	3.50	Instrument Version
COMPLIANCEVOLTAGE	IQUANT	0	Compliance Voltage
ZCURVE	TABLE
	Pt	Time	Freq	Zreal	Zimag	Zsig	Zmod	Zphz	Idc	Vdc	IERange
	#	s	Hz	ohm	ohm	V	ohm	°	A	V	#
	0	10	300046.9	3.18276	2.249414	1	3.897413	35.25074	-5.661248E-006	-0.0001548	10
	1	13	238359.4	3.14218	1.771457	1	3.607126	29.41286	1.347811E-005	-0.0004711	10
	2	17	189328.1	3.119722	1.401364	1	3.420013	24.18939	2.135509E-005	-7.154559E-005	10
	3	19	150421.9	3.159194	0.9048696	1	3.286228	15.98299	-0.0001508	2.189515E-005	12
	4	23	119484.4	3.110031	0.8337465	1	3.219849	15.00715	2.202592E-005	0.000593	11
	5	25	94921.88	3.105399	0.6346967	1	3.169597	11.5513	1.320858E-006	0.0005823	11
	6	28	75421.88	3.104916	0.4692418	1	3.140174	8.593998	-6.088025E-006	0.0006199	11
	7	30	59859.37	3.105769	0.3265004	1	3.122884	6.001295	1.566192E-005	0.0006637	11
	8	33	47578.12	3.10931	0.2039238	1	3.11599	3.752364	1.738793E-005	0.0006831	11
	9	35	37828.12	3.114876	0.0933481	1	3.116274	1.716553	-7.970169E-006	0.0006928	11
	10	38	30046.88	3.120038	-0.0123443	1	3.120062	-0.2266865	-2.970002E-005	0.0006481	11
	11	40	23859.38	3.128651	-0.1171303	1	3.130843	-2.144036	-3.294747E-005	0.0006946	11
	12	43	18984.38	3.136861	-0.2259405	1	3.144988	-4.119761	-2.694411E-005	0.0007106	11
	13	45	15046.87	3.145659	-0.3465104	1	3.164687	-6.286078	1.73578E-005	0.0007177	11
	14	47	11953.13	3.158741	-0.4826942	1	3.195409	-8.688283	-9.464164E-006	0.0007039	11
	15	50	9515.62	3.174196	-0.6395729	1	3.237989	-11.39207	-9.177533E-006	0.0007169	11
	16	52	7546.875	3.191926	-0.8289201	1	3.297802	-14.55772	5.518946E-006	0.0007036	11
	17	54	5928.309	3.217452	-1.069164	1	3.390444	-18.38172	-2.243114E-005	0.0006997	11
	18	56	4733.456	3.24687	-1.342449	1	3.51345	-22.46311	2.771808E-007	0.0007201	11
	19	59	3796.875	3.287015	-1.66842	1	3.686203	-26.9114	1.833204E-005	0.0006532	10
	20	61	2987.132	3.337223	-2.105581	1	3.945951	-32.24938	1.829997E-005	0.0006656	10
	21	63	2390.625	3.396924	-2.604657	1	4.280575	-37.47988	2.223943E-006	0.0006744	10
	22	66	1884.191	3.480108	-3.263705	1	4.771051	-43.16206	-2.421454E-005	0.0006925	10
	23	68	1516.544	3.576045	-4.002707	1	5.367472	-48.22218	-1.82494E-005	0.0007055	10
	24	70	1193.986	3.712677	-5.001591	1	6.228955	-53.41353	1.829914E-005	0.0006596	10
	25	73	946.5144	3.881336	-6.208495	1	7.321897	-57.9878	-8.666633E-006	0.0007095	10
	26	75	751.7689	4.098003	-7.679172	1	8.704212	-61.91331	-1.373832E-005	0.0006975	10
	27	77	597.4265	4.378308	-9.482056	1	10.44409	-65.21503	1.843571E-005	0.0006655	10
	28	80	477.4305	4.713872	-11.64009	1	12.55836	-67.9536	-6.554777E-007	0.0006907	10
	29	82	376.6741	5.169537	-14.44565	1	15.34278	-70.30969	-3.326197E-007	0.0006824	10
	30	84	298.2954	5.73746	-17.85098	1	18.75036	-72.18214	-8.482351E-007	0.0006879	10
	31	87	237.7717	6.433931	-21.91197	1	22.83703	-73.63638	-2.90819E-006	0.0007265	10
	32	89	189.0121	7.315209	-26.94443	1	27.91979	-74.81075	-5.628378E-007	0.0006863	10
	33	91	150.2404	8.424039	-33.11385	1	34.16857	-75.72693	-6.463298E-007	0.0006854	10
	34	94	119.1737	9.82412	-40.74116	1	41.90889	-76.44279	-1.402759E-006	0.0006844	10
	35	96	95.0169	11.51634	-49.79337	1	51.10778	-76.97746	2.316037E-006	8.095136E-005	9
	36	99	75.60484	13.64609	-61.0055	1	62.5131	-77.39128	2.196231E-006	8.277493E-005	9
	37	101	54.50582	17.5926	-81.4994	1	83.37656	-77.81894	2.025771E-006	8.589378E-005	9
	38	104	45.95588	20.17035	-94.76647	1	96.8893	-77.98431	2.312001E-006	8.892294E-005	9
	39	106	37.20238	23.96189	-114.1973	1	116.6842	-78.14961	2.331901E-006	8.553265E-005	9
	40	108	30.04808	28.62364	-137.9271	1	140.8659	-78.27598	2.240404E-006	8.83906E-005	9
	41	111	23.91582	34.59067	-168.534	1	172.0472	-78.40144	2.170761E-006	8.463417E-005	9
	42	113	18.60119	43.01034	-210.5485	1	214.8967	-78.45461	2.20779E-006	9.463393E-005	9
	43	115	15.02404	51.82795	-254.3281	1	259.5552	-78.48176	2.441886E-006	9.210785E-005	9
	44	118	12.01923	63.28932	-309.8109	1	316.2094	-78.45427	2.279982E-006	8.343589E-005	9
	45	120	9.450605	79.08142	-383.4109	1	391.4815	-78.34574	2.234025E-006	7.332575E-005	9
	46	123	7.512019	97.9432	-468.1973	1	478.3321	-78.18456	1.666457E-006	0.0006703	8
	47	125	5.978954	122.4611	-573.1195	1	586.0569	-77.93872	1.676789E-006	0.0006572	8
	48	128	4.734848	156.3017	-705.2828	1	722.3947	-77.50431	1.632994E-006	0.0006763	8
	49	132	3.75601	200.7878	-865.6668	1	888.6477	-76.94139	1.619632E-006	0.0006526	8
	50	135	3.004808	258.9446	-1052.856	1	1084.231	-76.18263	1.610503E-006	0.0006812	8
	51	139	2.372217	345.7853	-1293.754	1	1339.167	-75.03616	1.59567E-006	0.0007239	8
	52	143	1.878005	462.5619	-1583.433	1	1649.613	-73.71555	1.520632E-006	0.0006464	8
	53	148	1.512097	609.2524	-1896.358	1	1991.823	-72.18909	1.569077E-006	0.0006173	8
	54	153	1.201923	832.8737	-2289.194	1	2435.998	-70.00718	1.513691E-006	0.0006473	8
	55	159	0.956633	1132.572	-2727.308	1	2953.122	-67.44831	1.461014E-006	2.983705E-005	8
