EXPLAIN
TAG	EISPOT
TITLE	LABEL	Potentiostatic EIS	Test Identifier
DATE	LABEL	2/27/2021	Date
TIME	LABEL	14:07:41	Time
NOTES	NOTES	1	Notes...
	
PSTAT	PSTAT	REF3000-16137	Potentiostat
VDC	POTEN	0.00000E+000	T	DC Voltage (V)
FREQINIT	QUANT	3.00000E+005	Initial Freq. (Hz)
FREQFINAL	QUANT	1.00000E+000	Final Freq. (Hz)
PTSPERDEC	QUANT	1.00000E+001	Points/decade
VAC	QUANT	5.00000E+001	AC Voltage (mV rms)
AREA	QUANT	1.00000E+000	Sample Area (cm^2)
SPEED	SELECTOR	2	Optimize for:
ZGUESS	QUANT	1.00000E+003	Estimated Z (ohms)
EOC	QUANT	0	Open Circuit (V)
SEQUENCER	TOGGLE	TRUE	Run as Sequence
PSTATMODEL	IQUANT	5	Pstat Model
PSTATSECTION	LABEL	REF3000-16137	Pstat Section
PSTATSERIALNO	LABEL	16137	Pstat Serial Number
CTRLMODE	IQUANT	1	Control Mode
IESTAB	IQUANT	0	I/E Stability
CASPEED	IQUANT	1	Control Amp Speed
CONVENTION	IQUANT	1	Current Convention
ICHRANGE	IQUANT	2	Ich Range
ICHRANGEMODE	TOGGLE	F	Ich Auto Range
ICHOFFSETENABLE	TOGGLE	T	Ich Offset Enable
ICHOFFSET	QUANT	0	Ich Offset (V)
ICHFILTER	IQUANT	3	Ich Filter
VCHRANGE	IQUANT	2	Vch Range
VCHRANGEMODE	TOGGLE	F	Vch Auto Range
VCHOFFSETENABLE	TOGGLE	T	Vch Offset Enable
VCHOFFSET	QUANT	0	Vch Offset (V)
VCHFILTER	IQUANT	3	Vch Filter
ACHRANGE	IQUANT	2	Ach Range
ACHOFFSETENABLE	TOGGLE	F	Ach Offset Enable
ACHOFFSET	QUANT	0	Ach Offset (V)
ACHFILTER	IQUANT	3	Ach Filter
IERANGELOWERLIMIT	IQUANT	2	I/E Range Lower Limit
IERANGEMODE	TOGGLE	F	I/E AutoRange
IERANGE	IQUANT	11	I/E Range
POSFEEDENABLE	TOGGLE	F	Positive Feedback IR Comp
POSFEEDRESISTANCE	QUANT	0	Positive Feedback Resistance (ohm)
ACHSELECT	IQUANT	0	Ach Select
CABLEID	IQUANT	13	Cable ID
DCCALDATE	LABEL	7/31/2020	DC Calibration Date
ACCALDATE	LABEL	7/31/2020	AC Calibration Date
THERMOSELECT	IQUANT	1	Thermo Select
FRAMEWORKVERSION	QUANT	6.33	Framework Version
INSTRUMENTVERSION	LABEL	3.50	Instrument Version
COMPLIANCEVOLTAGE	IQUANT	0	Compliance Voltage
ZCURVE	TABLE
	Pt	Time	Freq	Zreal	Zimag	Zsig	Zmod	Zphz	Idc	Vdc	IERange
	#	s	Hz	ohm	ohm	V	ohm	°	A	V	#
	0	10	300046.9	2.845753	2.253638	1	3.630041	38.37677	-8.332053E-005	-3.979958E-005	10
	1	14	238359.4	2.812523	1.779926	1	3.328427	32.32798	2.52875E-005	-0.0004716	10
	2	17	189328.1	2.880022	1.180856	1	3.112708	22.29442	-5.692403E-006	-0.0003215	12
	3	20	150421.9	2.799718	1.083843	1	3.002188	21.1627	-2.281345E-005	0.0003957	11
	4	23	119484.4	2.783506	0.8406588	1	2.907682	16.80507	-9.048957E-005	0.0004812	11
	5	25	94921.88	2.778271	0.6410213	1	2.851262	12.9923	-2.302517E-005	0.0005632	11
	6	28	75421.88	2.775647	0.4742075	1	2.815864	9.69514	-4.989025E-005	0.0005404	11
	7	30	59859.37	2.777503	0.3324764	1	2.797332	6.826016	1.52629E-006	0.000637	11
	8	33	47578.12	2.780201	0.2099713	1	2.788118	4.318995	1.988025E-005	0.0006905	11
	9	35	37828.12	2.78453	0.0995256	1	2.786309	2.047012	-1.891853E-005	0.000681	11
	10	38	30046.88	2.789962	-0.0051582	1	2.789966	-0.1059299	-3.423205E-005	0.0006866	11
	11	40	23859.38	2.795644	-0.1092062	1	2.797776	-2.237008	-1.916416E-005	0.0006905	11
	12	43	18984.38	2.802797	-0.2164322	1	2.811141	-4.415622	2.695861E-005	0.0007291	11
	13	45	15046.87	2.813251	-0.335309	1	2.833163	-6.79697	-2.527394E-005	0.0007102	11
	14	47	11953.13	2.824776	-0.4685496	1	2.863372	-9.417985	-2.282716E-005	0.0007575	11
	15	50	9515.62	2.839157	-0.6223045	1	2.906557	-12.36295	-3.079843E-005	0.0007151	11
	16	52	7546.875	2.856056	-0.8081472	1	2.968191	-15.79935	-3.898763E-005	0.0006726	11
	17	54	5928.309	2.88073	-1.042876	1	3.063689	-19.90117	-3.231162E-005	0.0006867	11
	18	57	4733.456	2.909844	-1.309508	1	3.190926	-24.22903	-1.469976E-005	0.0007085	11
	19	59	3796.875	2.945679	-1.626131	1	3.364718	-28.90043	2.3869E-005	0.0007294	11
	20	61	2987.132	2.995529	-2.052469	1	3.631229	-34.41807	-3.217096E-005	0.0006962	11
	21	63	2390.625	3.059091	-2.53951	1	3.97582	-39.69783	-9.170371E-006	0.0006934	10
	22	66	1884.191	3.14002	-3.180381	1	4.46929	-45.36588	-2.12663E-005	0.0006901	10
	23	68	1516.544	3.236208	-3.898474	1	5.06667	-50.30319	-2.215607E-005	0.0006967	10
	24	70	1193.986	3.372222	-4.868744	1	5.922546	-55.29249	1.844059E-005	0.0006622	10
	25	73	946.5144	3.541769	-6.040219	1	7.002027	-59.61417	-1.794951E-005	0.0007122	10
	26	75	751.7689	3.757333	-7.46597	1	8.358125	-63.28566	2.298179E-005	0.0006781	10
	27	77	597.4265	4.032594	-9.21429	1	10.05808	-66.36362	-8.933888E-006	0.0006742	10
	28	80	477.4305	4.368212	-11.30509	1	12.11967	-68.8738	4.225567E-007	0.000685	10
	29	82	376.6741	4.819157	-14.02098	1	14.82606	-71.03162	2.463283E-007	0.0006892	10
	30	84	298.2954	5.381981	-17.31704	1	18.1341	-72.73522	2.402313E-007	0.0006903	10
	31	87	237.7717	6.069764	-21.24238	1	22.09255	-74.05332	-2.097673E-007	0.0006891	10
	32	89	189.0121	6.943543	-26.10781	1	27.01538	-75.10658	-4.046458E-007	0.0006896	10
	33	91	150.2404	8.037819	-32.06458	1	33.05667	-75.92731	-3.521457E-007	0.0007139	10
	34	94	119.1737	9.420222	-39.42467	1	40.5345	-76.56158	-3.25796E-007	0.0006863	10
	35	96	95.0169	11.08497	-48.15289	1	49.41232	-77.03615	2.793843E-006	8.795447E-005	9
	36	99	75.60484	13.17893	-58.95586	1	60.4109	-77.39932	2.663462E-006	8.829785E-005	9
	37	101	54.50582	17.04741	-78.70208	1	80.52721	-77.77814	2.539894E-006	8.059125E-005	9
	38	104	45.95588	19.57936	-91.51444	1	93.58549	-77.92373	2.840706E-006	9.49776E-005	9
	39	106	37.20238	23.30386	-110.2297	1	112.6661	-78.06277	2.799147E-006	9.29543E-005	9
	40	108	30.04808	27.87303	-133.076	1	135.9637	-78.1703	2.711263E-006	8.875503E-005	9
	41	111	23.91582	33.80724	-162.6373	1	166.1138	-78.25722	2.664473E-006	8.439943E-005	9
	42	113	18.60119	42.22975	-203.2038	1	207.5455	-78.25992	2.803445E-006	8.861884E-005	9
	43	116	15.02404	51.15057	-245.3964	1	250.6707	-78.22582	2.785868E-006	8.139193E-005	9
	44	118	12.01923	62.94728	-299.0313	1	305.5848	-78.11256	2.777312E-006	8.44907E-005	9
	45	120	9.450605	79.35645	-369.8687	1	378.2859	-77.8906	2.751619E-006	0.0000955	9
	46	123	7.512019	99.2001	-451.6987	1	462.4633	-77.61358	2.127722E-006	0.0006851	8
	47	125	5.978954	126.0581	-552.7142	1	566.9071	-77.15224	2.04461E-006	0.0006769	8
	48	128	4.734848	163.6571	-679.4615	1	698.8931	-76.45753	2.11924E-006	0.0006529	8
	49	132	3.75601	214.4376	-832.1487	1	859.334	-75.54975	2.090735E-006	0.0006726	8
	50	135	3.004808	281.6447	-1008.602	1	1047.188	-74.398	2.105571E-006	0.0006453	8
	51	139	2.372217	382.6089	-1232.514	1	1290.535	-72.75411	2.057557E-006	0.0005801	8
	52	143	1.878005	519.4207	-1494.893	1	1582.562	-70.83952	2.101462E-006	0.0006646	8
	53	148	1.512097	690.5137	-1769.649	1	1899.597	-68.68436	2.039573E-006	0.0006799	8
	54	153	1.201923	944.4942	-2100.945	1	2303.484	-65.79337	2.056686E-006	0.0006844	8
	55	159	0.956633	1274.966	-2447.901	1	2760.028	-62.48766	1.865449E-006	1.754753E-005	8
