EXPLAIN
TAG	EISPOT
TITLE	LABEL	Potentiostatic EIS	Test Identifier
DATE	LABEL	2/27/2021	Date
TIME	LABEL	14:38:27	Time
NOTES	NOTES	1	Notes...
	
PSTAT	PSTAT	REF3000-16137	Potentiostat
VDC	POTEN	0.00000E+000	T	DC Voltage (V)
FREQINIT	QUANT	3.00000E+005	Initial Freq. (Hz)
FREQFINAL	QUANT	1.00000E+000	Final Freq. (Hz)
PTSPERDEC	QUANT	1.00000E+001	Points/decade
VAC	QUANT	5.00000E+001	AC Voltage (mV rms)
AREA	QUANT	1.00000E+000	Sample Area (cm^2)
SPEED	SELECTOR	2	Optimize for:
ZGUESS	QUANT	1.00000E+003	Estimated Z (ohms)
EOC	QUANT	0	Open Circuit (V)
SEQUENCER	TOGGLE	TRUE	Run as Sequence
PSTATMODEL	IQUANT	5	Pstat Model
PSTATSECTION	LABEL	REF3000-16137	Pstat Section
PSTATSERIALNO	LABEL	16137	Pstat Serial Number
CTRLMODE	IQUANT	1	Control Mode
IESTAB	IQUANT	0	I/E Stability
CASPEED	IQUANT	1	Control Amp Speed
CONVENTION	IQUANT	1	Current Convention
ICHRANGE	IQUANT	2	Ich Range
ICHRANGEMODE	TOGGLE	F	Ich Auto Range
ICHOFFSETENABLE	TOGGLE	T	Ich Offset Enable
ICHOFFSET	QUANT	0	Ich Offset (V)
ICHFILTER	IQUANT	3	Ich Filter
VCHRANGE	IQUANT	2	Vch Range
VCHRANGEMODE	TOGGLE	F	Vch Auto Range
VCHOFFSETENABLE	TOGGLE	T	Vch Offset Enable
VCHOFFSET	QUANT	0	Vch Offset (V)
VCHFILTER	IQUANT	3	Vch Filter
ACHRANGE	IQUANT	2	Ach Range
ACHOFFSETENABLE	TOGGLE	F	Ach Offset Enable
ACHOFFSET	QUANT	0	Ach Offset (V)
ACHFILTER	IQUANT	3	Ach Filter
IERANGELOWERLIMIT	IQUANT	2	I/E Range Lower Limit
IERANGEMODE	TOGGLE	F	I/E AutoRange
IERANGE	IQUANT	11	I/E Range
POSFEEDENABLE	TOGGLE	F	Positive Feedback IR Comp
POSFEEDRESISTANCE	QUANT	0	Positive Feedback Resistance (ohm)
ACHSELECT	IQUANT	0	Ach Select
CABLEID	IQUANT	13	Cable ID
DCCALDATE	LABEL	7/31/2020	DC Calibration Date
ACCALDATE	LABEL	7/31/2020	AC Calibration Date
THERMOSELECT	IQUANT	1	Thermo Select
FRAMEWORKVERSION	QUANT	6.33	Framework Version
INSTRUMENTVERSION	LABEL	3.50	Instrument Version
COMPLIANCEVOLTAGE	IQUANT	0	Compliance Voltage
ZCURVE	TABLE
	Pt	Time	Freq	Zreal	Zimag	Zsig	Zmod	Zphz	Idc	Vdc	IERange
	#	s	Hz	ohm	ohm	V	ohm	°	A	V	#
	0	10	300046.9	6.68291	2.202575	1	7.036521	18.24135	-7.558674E-006	0.0001529	10
	1	13	238359.4	6.650517	1.740779	1	6.874568	14.66814	2.397359E-005	9.171171E-005	10
	2	16	189328.1	6.64867	1.369324	1	6.788215	11.6376	7.52811E-005	6.596309E-005	10
	3	19	150421.9	6.657107	1.067344	1	6.742129	9.108796	1.009606E-005	0.0003757	10
	4	21	119484.4	6.651302	0.8277932	1	6.702616	7.094315	-4.841414E-006	0.0005703	10
	5	24	94921.88	6.661119	0.6478251	1	6.692546	5.554814	1.374364E-005	0.0005343	10
	6	26	75421.88	6.668448	0.4721866	1	6.685144	4.050301	1.68657E-005	0.0006113	10
	7	29	59859.37	6.677917	0.3183818	1	6.685502	2.729613	2.160553E-005	0.0005984	10
	8	31	47578.12	6.693048	0.1863972	1	6.695643	1.595239	-2.390093E-005	0.0006706	10
	9	34	37828.12	6.708606	0.0664668	1	6.708935	0.5676501	1.262462E-005	0.0006212	10
	10	36	30046.88	6.725826	-0.0470063	1	6.72599	-0.4004295	-2.476609E-005	0.0006647	10
	11	39	23859.38	6.743203	-0.1606933	1	6.745117	-1.365124	2.009278E-005	0.0006565	10
	12	41	18984.38	6.762684	-0.2795006	1	6.768457	-2.366678	1.738049E-005	0.0007075	10
	13	43	15046.87	6.782532	-0.4128571	1	6.795086	-3.483333	-1.036411E-005	0.0006867	10
	14	46	11953.13	6.80408	-0.5638036	1	6.8274	-4.736854	1.009593E-005	0.000667	10
	15	48	9515.62	6.830156	-0.7401513	1	6.870142	-6.184735	-4.85284E-006	0.000659	10
	16	50	7546.875	6.859169	-0.95201	1	6.924921	-7.901815	-2.71398E-006	0.0006739	10
	17	53	5928.309	6.893936	-1.22397	1	7.001747	-10.06756	-2.067888E-005	0.0007265	10
	18	55	4733.456	6.932544	-1.534028	1	7.10024	-12.47731	-4.43726E-006	0.0006686	10
	19	57	3796.875	6.977459	-1.905347	1	7.23293	-15.27349	-9.986044E-006	0.0006703	10
	20	59	2987.132	7.036809	-2.403155	1	7.435848	-18.85565	2.125125E-005	0.0006784	10
	21	62	2390.625	7.105548	-2.97726	1	7.704082	-22.73392	1.778205E-005	0.0006594	10
	22	64	1884.191	7.195938	-3.733462	1	8.106803	-27.4216	2.205355E-005	0.0006788	10
	23	66	1516.544	7.298831	-4.583383	1	8.618604	-32.12723	1.164263E-005	0.0006527	10
	24	69	1193.986	7.441746	-5.742679	1	9.399891	-37.65681	2.190894E-005	0.0006716	10
	25	71	946.5144	7.620667	-7.136953	1	10.44082	-43.12268	-2.116337E-005	0.0007501	10
	26	73	751.7689	7.838715	-8.856504	1	11.82722	-48.4886	-2.297294E-005	0.0007347	10
	27	76	597.4265	8.11727	-10.97801	1	13.65309	-53.52034	-2.220241E-005	0.0007131	10
	28	78	477.4305	8.467912	-13.51589	1	15.94944	-57.93222	-2.537314E-006	0.0006957	10
	29	80	376.6741	8.936945	-16.83241	1	19.05778	-62.03452	-2.467032E-006	0.0006936	10
	30	83	298.2954	9.52805	-20.87538	1	22.94701	-65.46684	-2.525245E-006	0.0006943	10
	31	85	237.7717	10.2584	-25.71099	1	27.68194	-68.24854	-2.606898E-006	0.0006899	10
	32	87	189.0121	11.19526	-31.72895	1	33.6461	-70.56509	-1.945573E-006	0.0006954	10
	33	90	150.2404	12.37556	-39.11724	1	41.0282	-72.44415	-2.236516E-006	0.0006873	10
	34	92	119.1737	13.85987	-48.22629	1	50.17839	-73.96575	1.383249E-006	8.987831E-005	9
	35	95	95.0169	15.69576	-59.20362	1	61.24889	-75.15162	1.363769E-006	8.588406E-005	9
	36	97	75.60484	18.01043	-72.76844	1	74.96413	-76.09847	1.264194E-006	8.746216E-005	9
	37	100	54.50582	22.3469	-97.6491	1	100.1735	-77.10988	1.238143E-006	8.789578E-005	9
	38	102	45.95588	25.21387	-113.8118	1	116.5713	-77.50845	1.530892E-006	8.973564E-005	9
	39	104	37.20238	29.46333	-137.4855	1	140.6071	-77.90439	1.371725E-006	9.397973E-005	9
	40	107	30.04808	34.7607	-166.3977	1	169.9897	-78.20052	1.337809E-006	9.055195E-005	9
	41	109	23.91582	41.64605	-203.8817	1	208.0916	-78.45525	1.376295E-006	8.561836E-005	9
	42	112	18.60119	50.96916	-254.785	1	259.8331	-78.68744	1.501207E-006	9.260268E-005	9
	43	114	15.02404	60.77342	-308.0171	1	313.9554	-78.8386	1.391317E-006	8.52072E-005	9
	44	116	12.01923	73.15884	-375.4319	1	382.4935	-78.9732	1.378805E-006	8.837083E-005	9
	45	119	9.450605	89.05128	-462.544	1	471.0383	-79.10247	7.304379E-007	0.0006833	8
	46	121	7.512019	108.1568	-567.3196	1	577.5374	-79.20636	7.315974E-007	0.0006814	8
	47	124	5.978954	131.3698	-694.5121	1	706.8275	-79.28883	7.067133E-007	0.0006683	8
	48	127	4.734848	160.9537	-855.222	1	870.2361	-79.34155	8.125986E-007	0.000646	8
	49	130	3.75601	196.9876	-1050.892	1	1069.195	-79.38322	7.286224E-007	0.0006812	8
	50	133	3.004808	240.2856	-1281.009	1	1303.35	-79.37617	7.557291E-007	0.0006416	8
	51	137	2.372217	299.1512	-1582.204	1	1610.237	-79.29333	7.221171E-007	0.0005926	8
	52	141	1.878005	369.1564	-1950.697	1	1985.32	-79.28388	7.554967E-007	0.0006743	8
	53	146	1.512097	450.6492	-2362.923	1	2405.513	-79.2024	7.121761E-007	0.0006845	8
	54	151	1.201923	567.1628	-2911.95	1	2966.669	-78.97844	7.578232E-007	0.0006823	8
	55	158	0.956633	715.7349	-3571.91	1	3642.913	-78.6692	7.116203E-007	2.047355E-005	8
