EXPLAIN
TAG	EISPOT
TITLE	LABEL	Potentiostatic EIS	Test Identifier
DATE	LABEL	2/27/2021	Date
TIME	LABEL	15:19:53	Time
NOTES	NOTES	1	Notes...
	
PSTAT	PSTAT	REF3000-16137	Potentiostat
VDC	POTEN	0.00000E+000	T	DC Voltage (V)
FREQINIT	QUANT	3.00000E+005	Initial Freq. (Hz)
FREQFINAL	QUANT	1.00000E+000	Final Freq. (Hz)
PTSPERDEC	QUANT	1.00000E+001	Points/decade
VAC	QUANT	5.00000E+001	AC Voltage (mV rms)
AREA	QUANT	1.00000E+000	Sample Area (cm^2)
SPEED	SELECTOR	2	Optimize for:
ZGUESS	QUANT	1.00000E+003	Estimated Z (ohms)
EOC	QUANT	0	Open Circuit (V)
SEQUENCER	TOGGLE	TRUE	Run as Sequence
PSTATMODEL	IQUANT	5	Pstat Model
PSTATSECTION	LABEL	REF3000-16137	Pstat Section
PSTATSERIALNO	LABEL	16137	Pstat Serial Number
CTRLMODE	IQUANT	1	Control Mode
IESTAB	IQUANT	0	I/E Stability
CASPEED	IQUANT	1	Control Amp Speed
CONVENTION	IQUANT	1	Current Convention
ICHRANGE	IQUANT	2	Ich Range
ICHRANGEMODE	TOGGLE	F	Ich Auto Range
ICHOFFSETENABLE	TOGGLE	T	Ich Offset Enable
ICHOFFSET	QUANT	0	Ich Offset (V)
ICHFILTER	IQUANT	3	Ich Filter
VCHRANGE	IQUANT	2	Vch Range
VCHRANGEMODE	TOGGLE	F	Vch Auto Range
VCHOFFSETENABLE	TOGGLE	T	Vch Offset Enable
VCHOFFSET	QUANT	0	Vch Offset (V)
VCHFILTER	IQUANT	3	Vch Filter
ACHRANGE	IQUANT	2	Ach Range
ACHOFFSETENABLE	TOGGLE	F	Ach Offset Enable
ACHOFFSET	QUANT	0	Ach Offset (V)
ACHFILTER	IQUANT	3	Ach Filter
IERANGELOWERLIMIT	IQUANT	2	I/E Range Lower Limit
IERANGEMODE	TOGGLE	F	I/E AutoRange
IERANGE	IQUANT	11	I/E Range
POSFEEDENABLE	TOGGLE	F	Positive Feedback IR Comp
POSFEEDRESISTANCE	QUANT	0	Positive Feedback Resistance (ohm)
ACHSELECT	IQUANT	0	Ach Select
CABLEID	IQUANT	13	Cable ID
DCCALDATE	LABEL	7/31/2020	DC Calibration Date
ACCALDATE	LABEL	7/31/2020	AC Calibration Date
THERMOSELECT	IQUANT	1	Thermo Select
FRAMEWORKVERSION	QUANT	6.33	Framework Version
INSTRUMENTVERSION	LABEL	3.50	Instrument Version
COMPLIANCEVOLTAGE	IQUANT	0	Compliance Voltage
ZCURVE	TABLE
	Pt	Time	Freq	Zreal	Zimag	Zsig	Zmod	Zphz	Idc	Vdc	IERange
	#	s	Hz	ohm	ohm	V	ohm	°	A	V	#
	0	8	300046.9	178.2211	-9.052806	1	178.4509	-2.90786	-3.38367E-005	-0.0006439	9
	1	11	238359.4	179.9742	-8.09486	1	180.1561	-2.575308	-8.058141E-005	0.0019621	9
	2	14	189328.1	181.6831	-6.598109	1	181.8029	-2.079872	-1.279E-005	0.0011639	9
	3	17	150421.9	183.7225	-5.77681	1	183.8133	-1.800965	-1.322343E-005	0.0013202	9
	4	19	119484.4	184.4681	-5.04962	1	184.5372	-1.56802	-7.233931E-005	0.0031438	9
	5	22	94921.88	186.0986	-3.991903	1	186.1415	-1.228833	-9.260147E-006	-7.743063E-005	9
	6	24	75421.88	187.4048	-3.403129	1	187.4357	-1.040333	1.93264E-005	-2.954842E-005	9
	7	27	59859.37	188.6486	-2.910247	1	188.6711	-0.8838212	-1.067605E-005	-2.958753E-005	9
	8	30	47578.12	189.7526	-2.509047	1	189.7692	-0.7575623	-9.664409E-006	-5.971598E-005	9
	9	32	37828.12	191.1381	-2.094804	1	191.1496	-0.6279156	1.608813E-006	0.000608	9
	10	35	30046.88	192.3578	-1.626428	1	192.3647	-0.4844371	2.233436E-005	-0.0008631	9
	11	37	23859.38	193.259	-1.789805	1	193.2673	-0.5306107	-1.589527E-005	0.0001761	9
	12	39	18984.38	194.3857	-1.738778	1	194.3935	-0.5124965	1.91011E-005	2.349666E-006	9
	13	42	15046.87	195.1113	-1.649595	1	195.1183	-0.4844035	1.96495E-005	-2.16733E-005	9
	14	44	11953.13	196.1255	-1.537578	1	196.1315	-0.4491762	1.209331E-005	-0.0006012	9
	15	46	9515.62	197.7003	-1.795893	1	197.7085	-0.5204555	2.576892E-005	-0.0007216	9
	16	49	7546.875	198.7702	-1.880762	1	198.7791	-0.542116	-2.505187E-005	0.0006546	9
	17	51	5928.309	199.733	-2.21633	1	199.7453	-0.6357545	-9.58797E-006	-3.512633E-005	9
	18	53	4733.456	201.0161	-2.869954	1	201.0366	-0.8179698	2.344169E-005	-0.0002199	9
	19	56	3796.875	201.8497	-3.09138	1	201.8734	-0.877431	2.644558E-005	-0.0005856	9
	20	58	2987.132	203.2377	-3.671391	1	203.2709	-1.034908	-1.337938E-006	-0.0003347	9
	21	60	2390.625	204.2262	-4.6604	1	204.2794	-1.307251	8.124342E-007	-0.0004286	9
	22	62	1884.191	205.5048	-5.806623	1	205.5868	-1.618485	1.518884E-005	-0.0007424	9
	23	65	1516.544	206.8759	-7.00955	1	206.9946	-1.940603	2.400797E-005	-0.0002362	9
	24	67	1193.986	208.31	-8.565738	1	208.486	-2.354685	-1.557345E-005	0.000964	9
	25	70	946.5144	209.7404	-10.45837	1	210.001	-2.854599	-1.537156E-005	0.0001602	9
	26	72	751.7689	211.0586	-13.0968	1	211.4646	-3.550817	2.193297E-005	-0.0007982	9
	27	74	597.4265	212.3422	-16.39396	1	212.9741	-4.414784	1.034447E-006	0.0006028	9
	28	76	477.4305	213.9473	-19.97663	1	214.8779	-5.33434	1.272797E-006	8.545863E-005	9
	29	79	376.6741	215.6074	-24.92293	1	217.0431	-6.593785	1.416361E-006	8.064114E-005	9
	30	81	298.2954	217.3746	-31.01187	1	219.5757	-8.119343	1.264898E-006	8.208193E-005	9
	31	83	237.7717	219.3297	-38.38211	1	222.6628	-9.9261	1.310876E-006	8.263079E-005	9
	32	86	189.0121	221.508	-47.61902	1	226.5687	-12.13259	1.299855E-006	9.314969E-005	9
	33	88	150.2404	223.9367	-59.08227	1	231.5996	-14.77982	1.220565E-006	9.080621E-005	9
	34	91	119.1737	226.7457	-73.44163	1	238.3428	-17.94684	1.348973E-006	8.81888E-005	9
	35	93	95.0169	230.0076	-90.83671	1	247.2949	-21.55051	1.360034E-006	8.546517E-005	9
	36	96	75.60484	233.8641	-112.5023	1	259.5172	-25.69028	1.326054E-006	8.750903E-005	9
	37	98	54.50582	240.1355	-152.6064	1	284.5238	-32.436	1.315155E-006	7.598184E-005	9
	38	101	45.95588	244.7575	-178.8865	1	303.161	-36.16204	1.29626E-006	8.461077E-005	9
	39	103	37.20238	251.0508	-217.5628	1	332.2048	-40.91248	1.266379E-006	8.484907E-005	9
	40	105	30.04808	258.7459	-265.1238	1	370.4593	-45.69751	1.275715E-006	7.949082E-005	9
	41	108	23.91582	267.4869	-325.8797	1	421.6003	-50.62034	1.295528E-007	0.0006496	8
	42	110	18.60119	280.7683	-410.6551	1	497.462	-55.63926	1.744089E-007	0.0006781	8
	43	112	15.02404	295.0511	-499.6758	1	580.2853	-59.43878	4.441952E-008	0.0006532	8
	44	115	12.01923	313.2367	-613.1573	1	688.5341	-62.93939	5.763484E-008	0.000659	8
	45	117	9.450605	337.6514	-763.9169	1	835.2111	-66.15456	1.074425E-007	0.0006704	8
	46	120	7.512019	367.3979	-941.7594	1	1010.887	-68.68832	6.547436E-008	0.0006657	8
	47	122	5.978954	403.8076	-1159.267	1	1227.583	-70.79524	8.398867E-008	0.0006666	8
	48	125	4.734848	450.1487	-1433.05	1	1502.088	-72.56149	6.032937E-008	0.0006415	8
	49	128	3.75601	508.5128	-1767.086	1	1838.798	-73.94582	1.32894E-007	0.0006762	8
	50	132	3.004808	577.5282	-2160.367	1	2236.23	-75.03317	9.298964E-008	0.0006808	8
	51	136	2.372217	669.3854	-2669.756	1	2752.394	-75.92445	1.033008E-007	0.0006645	8
	52	140	1.878005	785.1336	-3301.255	1	3393.335	-76.62195	1.238534E-007	0.0006449	8
	53	145	1.512097	912.0874	-4012.227	1	4114.592	-77.19278	1.135921E-007	0.0007669	8
	54	150	1.201923	1086.889	-4944.354	1	5062.406	-77.60218	1.58277E-008	0.000615	7
	55	156	0.956633	1290.943	-6068.125	1	6203.924	-77.98985	-1.058775E-008	-5.690152E-006	7
