EXPLAIN
TAG	EISPOT
TITLE	LABEL	Potentiostatic EIS	Test Identifier
DATE	LABEL	2/27/2021	Date
TIME	LABEL	14:55:02	Time
NOTES	NOTES	1	Notes...
	
PSTAT	PSTAT	REF3000-16137	Potentiostat
VDC	POTEN	0.00000E+000	T	DC Voltage (V)
FREQINIT	QUANT	3.00000E+005	Initial Freq. (Hz)
FREQFINAL	QUANT	1.00000E+000	Final Freq. (Hz)
PTSPERDEC	QUANT	1.00000E+001	Points/decade
VAC	QUANT	5.00000E+001	AC Voltage (mV rms)
AREA	QUANT	1.00000E+000	Sample Area (cm^2)
SPEED	SELECTOR	2	Optimize for:
ZGUESS	QUANT	1.00000E+003	Estimated Z (ohms)
EOC	QUANT	0	Open Circuit (V)
SEQUENCER	TOGGLE	TRUE	Run as Sequence
PSTATMODEL	IQUANT	5	Pstat Model
PSTATSECTION	LABEL	REF3000-16137	Pstat Section
PSTATSERIALNO	LABEL	16137	Pstat Serial Number
CTRLMODE	IQUANT	1	Control Mode
IESTAB	IQUANT	0	I/E Stability
CASPEED	IQUANT	1	Control Amp Speed
CONVENTION	IQUANT	1	Current Convention
ICHRANGE	IQUANT	2	Ich Range
ICHRANGEMODE	TOGGLE	F	Ich Auto Range
ICHOFFSETENABLE	TOGGLE	T	Ich Offset Enable
ICHOFFSET	QUANT	0	Ich Offset (V)
ICHFILTER	IQUANT	3	Ich Filter
VCHRANGE	IQUANT	2	Vch Range
VCHRANGEMODE	TOGGLE	F	Vch Auto Range
VCHOFFSETENABLE	TOGGLE	T	Vch Offset Enable
VCHOFFSET	QUANT	0	Vch Offset (V)
VCHFILTER	IQUANT	3	Vch Filter
ACHRANGE	IQUANT	2	Ach Range
ACHOFFSETENABLE	TOGGLE	F	Ach Offset Enable
ACHOFFSET	QUANT	0	Ach Offset (V)
ACHFILTER	IQUANT	3	Ach Filter
IERANGELOWERLIMIT	IQUANT	2	I/E Range Lower Limit
IERANGEMODE	TOGGLE	F	I/E AutoRange
IERANGE	IQUANT	11	I/E Range
POSFEEDENABLE	TOGGLE	F	Positive Feedback IR Comp
POSFEEDRESISTANCE	QUANT	0	Positive Feedback Resistance (ohm)
ACHSELECT	IQUANT	0	Ach Select
CABLEID	IQUANT	13	Cable ID
DCCALDATE	LABEL	7/31/2020	DC Calibration Date
ACCALDATE	LABEL	7/31/2020	AC Calibration Date
THERMOSELECT	IQUANT	1	Thermo Select
FRAMEWORKVERSION	QUANT	6.33	Framework Version
INSTRUMENTVERSION	LABEL	3.50	Instrument Version
COMPLIANCEVOLTAGE	IQUANT	0	Compliance Voltage
ZCURVE	TABLE
	Pt	Time	Freq	Zreal	Zimag	Zsig	Zmod	Zphz	Idc	Vdc	IERange
	#	s	Hz	ohm	ohm	V	ohm	°	A	V	#
	0	8	300046.9	16.06073	2.008855	1	16.18588	7.129453	2.00203E-005	0.0002283	10
	1	11	238359.4	16.07623	1.602894	1	16.15594	5.693906	-1.242284E-005	0.0004068	10
	2	14	189328.1	16.11065	1.261055	1	16.15993	4.475677	-3.015261E-005	0.0003852	10
	3	17	150421.9	16.14603	0.9452823	1	16.17368	3.350603	6.151797E-005	0.0002942	10
	4	19	119484.4	16.18842	0.7462086	1	16.2056	2.639194	6.212878E-005	0.0004044	10
	5	22	94921.88	16.22707	0.5736629	1	16.23721	2.024689	1.432706E-005	0.0006269	10
	6	24	75421.88	16.27687	0.4021915	1	16.28184	1.415456	2.233501E-005	0.0006026	10
	7	27	59859.37	16.32838	0.256582	1	16.3304	0.9002641	-2.397453E-005	0.0006661	10
	8	29	47578.12	16.38057	0.1286322	1	16.38108	0.4499191	-1.197823E-005	0.0006518	10
	9	32	37828.12	16.43366	0.0115352	1	16.43367	0.0402173	-2.346947E-005	0.0007014	10
	10	34	30046.88	16.48778	-0.1034678	1	16.48811	-0.3595505	-2.844218E-006	0.0006532	10
	11	37	23859.38	16.53886	-0.2227662	1	16.54036	-0.7716851	1.310803E-005	0.0006523	10
	12	39	18984.38	16.59454	-0.3480466	1	16.59819	-1.20152	-2.810347E-005	0.0007313	10
	13	42	15046.87	16.64826	-0.4896335	1	16.65546	-1.684611	-1.102205E-005	0.0006809	10
	14	44	11953.13	16.70894	-0.6605619	1	16.72199	-2.263921	1.562346E-005	0.0006308	10
	15	46	9515.62	16.76687	-0.8506301	1	16.78843	-2.904285	-1.865112E-005	0.0006668	10
	16	48	7546.875	16.83387	-1.085347	1	16.86883	-3.688982	2.4968E-005	0.0007049	10
	17	51	5928.309	16.90292	-1.388188	1	16.95983	-4.695002	-1.582712E-005	0.0007097	10
	18	53	4733.456	16.9783	-1.733209	1	17.06654	-5.828779	-3.122673E-006	0.0006557	10
	19	55	3796.875	17.0615	-2.146869	1	17.19604	-7.171903	-2.554194E-005	0.0007272	10
	20	58	2987.132	17.1587	-2.704119	1	17.37047	-8.955849	-2.363352E-005	0.0007415	10
	21	60	2390.625	17.26559	-3.34394	1	17.58643	-10.96114	-2.43108E-005	0.0007223	10
	22	62	1884.191	17.39895	-4.198268	1	17.89829	-13.56584	2.378686E-005	0.0006738	10
	23	65	1516.544	17.53316	-5.156798	1	18.27579	-16.3895	-2.847921E-005	0.0007134	10
	24	67	1193.986	17.71136	-6.463771	1	18.85398	-20.04959	-2.607721E-005	0.0007257	10
	25	69	946.5144	17.92333	-8.053874	1	19.6497	-24.19683	-2.597706E-005	0.0006837	10
	26	72	751.7689	18.1877	-9.99626	1	20.75374	-28.79393	-1.507071E-005	0.000719	10
	27	74	597.4265	18.51097	-12.39644	1	22.27842	-33.80947	-2.190545E-005	0.000712	10
	28	76	477.4305	18.89294	-15.28827	1	24.30379	-38.97997	-2.486184E-006	0.0006912	10
	29	79	376.6741	19.4035	-19.07442	1	27.209	-44.51	-1.488506E-006	0.0006873	10
	30	81	298.2954	20.03246	-23.69988	1	31.03198	-49.79364	-1.788487E-006	0.0006901	10
	31	83	237.7717	20.80252	-29.252	1	35.89463	-54.58152	-1.721903E-006	0.0006894	10
	32	86	189.0121	21.75496	-36.13605	1	42.17929	-58.95082	1.336379E-006	0.0001014	9
	33	88	150.2404	22.98914	-44.67043	1	50.23891	-62.76789	1.331102E-006	0.0000997	9
	34	90	119.1737	24.5615	-55.29846	1	60.50774	-66.05101	1.326121E-006	0.0000967	9
	35	93	95.0169	26.50544	-68.08366	1	73.0611	-68.72869	1.293022E-006	0.0000969	9
	36	95	75.60484	28.97491	-83.92617	1	88.78709	-70.95313	1.297708E-006	0.0000981	9
	37	98	54.50582	33.63175	-113.0802	1	117.9755	-73.43673	1.294581E-006	9.482957E-005	9
	38	100	45.95588	36.74346	-132.0546	1	137.0712	-74.45107	1.330518E-006	0.0001022	9
	39	103	37.20238	41.37029	-159.9005	1	165.1656	-75.49422	1.334129E-006	0.0001037	9
	40	105	30.04808	47.12112	-193.9589	1	199.6007	-76.34489	1.347247E-006	0.0000968	9
	41	107	23.91582	54.68332	-238.2518	1	244.4467	-77.07342	1.424571E-006	8.889974E-005	9
	42	110	18.60119	65.17689	-298.7111	1	305.739	-77.69133	1.489018E-006	8.943868E-005	9
	43	112	15.02404	76.25695	-361.8429	1	369.791	-78.09929	1.373363E-006	8.520698E-005	9
	44	114	12.01923	90.16933	-439.9744	1	449.1191	-78.41805	5.50381E-007	0.0006843	8
	45	117	9.450605	109.274	-545.2711	1	556.1128	-78.66786	6.059072E-007	0.0006788	8
	46	119	7.512019	131.479	-669.1346	1	681.9295	-78.88351	6.092116E-007	0.0006844	8
	47	122	5.978954	158.8898	-819.4985	1	834.7597	-79.02726	5.711325E-007	0.0006712	8
	48	125	4.734848	193.6636	-1008.745	1	1027.167	-79.13232	6.294675E-007	0.0006572	8
	49	128	3.75601	234.9884	-1238.952	1	1261.04	-79.26044	6.060122E-007	0.0006876	8
	50	132	3.004808	283.5298	-1509.269	1	1535.669	-79.36047	6.055119E-007	0.0006571	8
	51	135	2.372217	348.9077	-1862.551	1	1894.949	-79.38987	5.901633E-007	0.0006029	8
	52	140	1.878005	423.2018	-2295.822	1	2334.501	-79.5556	6.412369E-007	0.000664	8
	53	144	1.512097	506.1892	-2779.161	1	2824.883	-79.67744	6.091299E-007	0.0006847	8
	54	150	1.201923	621.5221	-3422.26	1	3478.24	-79.70661	6.369653E-007	0.0006788	8
	55	156	0.956633	759.6447	-4196.198	1	4264.403	-79.73878	5.978665E-007	2.212444E-005	8
