EXPLAIN
TAG	EISPOT
TITLE	LABEL	Potentiostatic EIS	Test Identifier
DATE	LABEL	2/27/2021	Date
TIME	LABEL	15:17:08	Time
NOTES	NOTES	1	Notes...
	
PSTAT	PSTAT	REF3000-16137	Potentiostat
VDC	POTEN	0.00000E+000	T	DC Voltage (V)
FREQINIT	QUANT	3.00000E+005	Initial Freq. (Hz)
FREQFINAL	QUANT	1.00000E+000	Final Freq. (Hz)
PTSPERDEC	QUANT	1.00000E+001	Points/decade
VAC	QUANT	5.00000E+001	AC Voltage (mV rms)
AREA	QUANT	1.00000E+000	Sample Area (cm^2)
SPEED	SELECTOR	2	Optimize for:
ZGUESS	QUANT	1.00000E+003	Estimated Z (ohms)
EOC	QUANT	0	Open Circuit (V)
SEQUENCER	TOGGLE	TRUE	Run as Sequence
PSTATMODEL	IQUANT	5	Pstat Model
PSTATSECTION	LABEL	REF3000-16137	Pstat Section
PSTATSERIALNO	LABEL	16137	Pstat Serial Number
CTRLMODE	IQUANT	1	Control Mode
IESTAB	IQUANT	0	I/E Stability
CASPEED	IQUANT	1	Control Amp Speed
CONVENTION	IQUANT	1	Current Convention
ICHRANGE	IQUANT	2	Ich Range
ICHRANGEMODE	TOGGLE	F	Ich Auto Range
ICHOFFSETENABLE	TOGGLE	T	Ich Offset Enable
ICHOFFSET	QUANT	0	Ich Offset (V)
ICHFILTER	IQUANT	3	Ich Filter
VCHRANGE	IQUANT	2	Vch Range
VCHRANGEMODE	TOGGLE	F	Vch Auto Range
VCHOFFSETENABLE	TOGGLE	T	Vch Offset Enable
VCHOFFSET	QUANT	0	Vch Offset (V)
VCHFILTER	IQUANT	3	Vch Filter
ACHRANGE	IQUANT	2	Ach Range
ACHOFFSETENABLE	TOGGLE	F	Ach Offset Enable
ACHOFFSET	QUANT	0	Ach Offset (V)
ACHFILTER	IQUANT	3	Ach Filter
IERANGELOWERLIMIT	IQUANT	2	I/E Range Lower Limit
IERANGEMODE	TOGGLE	F	I/E AutoRange
IERANGE	IQUANT	11	I/E Range
POSFEEDENABLE	TOGGLE	F	Positive Feedback IR Comp
POSFEEDRESISTANCE	QUANT	0	Positive Feedback Resistance (ohm)
ACHSELECT	IQUANT	0	Ach Select
CABLEID	IQUANT	13	Cable ID
DCCALDATE	LABEL	7/31/2020	DC Calibration Date
ACCALDATE	LABEL	7/31/2020	AC Calibration Date
THERMOSELECT	IQUANT	1	Thermo Select
FRAMEWORKVERSION	QUANT	6.33	Framework Version
INSTRUMENTVERSION	LABEL	3.50	Instrument Version
COMPLIANCEVOLTAGE	IQUANT	0	Compliance Voltage
ZCURVE	TABLE
	Pt	Time	Freq	Zreal	Zimag	Zsig	Zmod	Zphz	Idc	Vdc	IERange
	#	s	Hz	ohm	ohm	V	ohm	°	A	V	#
	0	6	300046.9	124.9227	-2.74245	1	124.9528	-1.257622	7.411098E-005	-0.0028762	9
	1	9	238359.4	126.4102	-2.530305	1	126.4355	-1.146714	4.145185E-006	-0.001591	9
	2	13	189328.1	127.3008	-2.203722	1	127.3198	-0.991757	4.789778E-005	-0.0003528	9
	3	15	150421.9	128.0093	-1.883671	1	128.0232	-0.8430525	7.417469E-005	-0.0023054	9
	4	18	119484.4	128.9704	-1.876695	1	128.9841	-0.8336727	1.475655E-005	-0.0010239	9
	5	20	94921.88	129.7021	-1.344911	1	129.7091	-0.5940917	2.306762E-005	-0.0002509	9
	6	23	75421.88	130.5783	-1.24368	1	130.5842	-0.5456912	-1.473111E-005	0.0001445	9
	7	25	59859.37	131.3372	-1.132924	1	131.342	-0.4942252	-2.121281E-005	0.0006295	9
	8	28	47578.12	132.0519	-1.058775	1	132.0562	-0.4593801	-2.162326E-006	-0.0002831	9
	9	30	37828.12	132.8212	-1.014583	1	132.825	-0.4376575	2.090027E-006	0.0004778	9
	10	33	30046.88	133.5716	-0.9258419	1	133.5748	-0.3971352	-1.491223E-005	0.0001996	9
	11	35	23859.38	134.2951	-0.973916	1	134.2987	-0.4155052	6.429946E-006	-0.000519	9
	12	38	18984.38	135.0189	-0.971907	1	135.0224	-0.4124252	-1.139478E-005	0.0001019	9
	13	40	15046.87	135.9154	-1.091429	1	135.9198	-0.4600869	-6.194262E-006	0.0008084	9
	14	42	11953.13	136.3311	-1.280985	1	136.3371	-0.538343	2.010329E-005	-0.0006506	9
	15	44	9515.62	137.0998	-1.401339	1	137.1069	-0.5856172	-1.77727E-005	0.0004007	9
	16	47	7546.875	138.0316	-1.659955	1	138.0416	-0.6890001	-9.54571E-006	-7.446889E-006	9
	17	49	5928.309	138.4852	-2.037446	1	138.5001	-0.8428964	-2.168792E-005	0.0006785	9
	18	51	4733.456	139.3509	-2.517927	1	139.3736	-1.035163	-1.767669E-006	-0.00028	9
	19	54	3796.875	139.9295	-2.838931	1	139.9583	-1.162274	1.029541E-005	0.0002379	9
	20	56	2987.132	140.695	-3.525876	1	140.7392	-1.435556	-1.894948E-005	0.0009155	9
	21	58	2390.625	141.8301	-4.55174	1	141.9031	-1.838158	-1.674856E-005	0.000961	9
	22	61	1884.191	142.5475	-5.272798	1	142.645	-2.118392	1.404558E-005	-0.0006663	9
	23	63	1516.544	143.1914	-6.526399	1	143.34	-2.60963	1.982886E-005	-0.0007195	9
	24	65	1193.986	144.1073	-8.129214	1	144.3365	-3.22868	1.408994E-005	-0.0006738	9
	25	68	946.5144	145.129	-10.2972	1	145.4938	-4.058454	-6.984043E-006	0.0007525	9
	26	70	751.7689	146.0213	-12.59069	1	146.5631	-4.928144	-1.86942E-005	0.0009052	9
	27	72	597.4265	147.0884	-15.43166	1	147.8957	-5.989229	1.962887E-006	0.0005511	9
	28	75	477.4305	148.1415	-19.21571	1	149.3825	-7.390678	1.384246E-006	8.743809E-005	9
	29	77	376.6741	149.3614	-24.00081	1	151.2775	-9.128792	1.291286E-006	8.713413E-005	9
	30	79	298.2954	150.6954	-29.87925	1	153.629	-11.21491	1.282171E-006	8.573665E-005	9
	31	82	237.7717	152.2078	-36.98722	1	156.6374	-13.6584	1.191801E-006	9.132504E-005	9
	32	84	189.0121	153.94	-45.89171	1	160.6349	-16.60007	1.284426E-006	9.395059E-005	9
	33	86	150.2404	155.9388	-56.9371	1	166.0083	-20.05838	1.233E-006	8.955567E-005	9
	34	89	119.1737	158.3035	-70.74271	1	173.3913	-24.07892	1.257966E-006	9.124549E-005	9
	35	91	95.0169	161.083	-87.43218	1	183.2815	-28.4921	1.270255E-006	8.628E-005	9
	36	94	75.60484	164.4819	-108.1982	1	196.8785	-33.3374	1.277084E-006	8.300901E-005	9
	37	96	54.50582	170.2624	-146.5951	1	224.6762	-40.72828	1.329248E-006	8.202664E-005	9
	38	99	45.95588	174.4025	-171.7133	1	244.7482	-44.55483	1.172797E-006	0.0000975	9
	39	101	37.20238	180.228	-208.7765	1	275.8075	-49.19733	1.296075E-006	8.57964E-005	9
	40	104	30.04808	187.3912	-254.2561	1	315.8506	-53.60914	1.338497E-006	8.132694E-005	9
	41	106	23.91582	196.6896	-313.6748	1	370.2414	-57.91025	1.378831E-006	8.229045E-005	9
	42	108	18.60119	208.5377	-393.4031	1	445.2572	-62.07253	1.908917E-007	0.0006653	8
	43	111	15.02404	222.1873	-478.4388	1	527.5139	-65.08982	1.042456E-007	0.0006623	8
	44	113	12.01923	239.7203	-586.6709	1	633.7575	-67.77452	1.61767E-007	0.0006642	8
	45	115	9.450605	263.4807	-730.2171	1	776.2983	-70.15928	1.710506E-007	0.0006875	8
	46	118	7.512019	292.2145	-899.9187	1	946.1728	-72.01076	1.677829E-007	0.0006639	8
	47	120	5.978954	327.2118	-1106.289	1	1153.665	-73.52314	1.626603E-007	0.0006635	8
	48	123	4.734848	372.3651	-1365.788	1	1415.638	-74.74966	1.634396E-007	0.0006448	8
	49	127	3.75601	428.0723	-1683.143	1	1736.726	-75.73055	2.142515E-007	0.0006805	8
	50	130	3.004808	494.0424	-2056.003	1	2114.527	-76.48841	2.032608E-007	0.0006588	8
	51	134	2.372217	583.9176	-2540.273	1	2606.52	-77.05463	1.824135E-007	0.0006182	8
	52	138	1.878005	690.405	-3140.381	1	3215.377	-77.60091	2.069895E-007	0.0006515	8
	53	143	1.512097	807.3136	-3811.257	1	3895.822	-78.04019	1.845042E-007	0.0007343	8
	54	148	1.201923	975.678	-4699.255	1	4799.473	-78.27068	3.014508E-008	0.0006378	7
	55	154	0.956633	1171.605	-5761.943	1	5879.851	-78.50645	5.917061E-010	-4.631342E-006	7
