EXPLAIN
TAG	EISPOT
TITLE	LABEL	Potentiostatic EIS	Test Identifier
DATE	LABEL	2/27/2021	Date
TIME	LABEL	15:03:24	Time
NOTES	NOTES	1	Notes...
	
PSTAT	PSTAT	REF3000-16137	Potentiostat
VDC	POTEN	0.00000E+000	T	DC Voltage (V)
FREQINIT	QUANT	3.00000E+005	Initial Freq. (Hz)
FREQFINAL	QUANT	1.00000E+000	Final Freq. (Hz)
PTSPERDEC	QUANT	1.00000E+001	Points/decade
VAC	QUANT	5.00000E+001	AC Voltage (mV rms)
AREA	QUANT	1.00000E+000	Sample Area (cm^2)
SPEED	SELECTOR	2	Optimize for:
ZGUESS	QUANT	1.00000E+003	Estimated Z (ohms)
EOC	QUANT	0	Open Circuit (V)
SEQUENCER	TOGGLE	TRUE	Run as Sequence
PSTATMODEL	IQUANT	5	Pstat Model
PSTATSECTION	LABEL	REF3000-16137	Pstat Section
PSTATSERIALNO	LABEL	16137	Pstat Serial Number
CTRLMODE	IQUANT	1	Control Mode
IESTAB	IQUANT	0	I/E Stability
CASPEED	IQUANT	1	Control Amp Speed
CONVENTION	IQUANT	1	Current Convention
ICHRANGE	IQUANT	2	Ich Range
ICHRANGEMODE	TOGGLE	F	Ich Auto Range
ICHOFFSETENABLE	TOGGLE	T	Ich Offset Enable
ICHOFFSET	QUANT	0	Ich Offset (V)
ICHFILTER	IQUANT	3	Ich Filter
VCHRANGE	IQUANT	2	Vch Range
VCHRANGEMODE	TOGGLE	F	Vch Auto Range
VCHOFFSETENABLE	TOGGLE	T	Vch Offset Enable
VCHOFFSET	QUANT	0	Vch Offset (V)
VCHFILTER	IQUANT	3	Vch Filter
ACHRANGE	IQUANT	2	Ach Range
ACHOFFSETENABLE	TOGGLE	F	Ach Offset Enable
ACHOFFSET	QUANT	0	Ach Offset (V)
ACHFILTER	IQUANT	3	Ach Filter
IERANGELOWERLIMIT	IQUANT	2	I/E Range Lower Limit
IERANGEMODE	TOGGLE	F	I/E AutoRange
IERANGE	IQUANT	11	I/E Range
POSFEEDENABLE	TOGGLE	F	Positive Feedback IR Comp
POSFEEDRESISTANCE	QUANT	0	Positive Feedback Resistance (ohm)
ACHSELECT	IQUANT	0	Ach Select
CABLEID	IQUANT	13	Cable ID
DCCALDATE	LABEL	7/31/2020	DC Calibration Date
ACCALDATE	LABEL	7/31/2020	AC Calibration Date
THERMOSELECT	IQUANT	1	Thermo Select
FRAMEWORKVERSION	QUANT	6.33	Framework Version
INSTRUMENTVERSION	LABEL	3.50	Instrument Version
COMPLIANCEVOLTAGE	IQUANT	0	Compliance Voltage
ZCURVE	TABLE
	Pt	Time	Freq	Zreal	Zimag	Zsig	Zmod	Zphz	Idc	Vdc	IERange
	#	s	Hz	ohm	ohm	V	ohm	°	A	V	#
	0	7	300046.9	30.24229	1.197473	1	30.26599	2.267498	-7.220035E-005	-0.000118	11
	1	11	238359.4	30.36993	1.262878	1	30.39618	2.381167	3.71817E-007	0.0002958	10
	2	15	189328.1	30.48708	1.014747	1	30.50396	1.906357	-4.658215E-006	0.0007044	10
	3	17	150421.9	30.62824	0.7484065	1	30.63738	1.399754	-1.889498E-005	0.0006723	10
	4	20	119484.4	30.73132	0.5664704	1	30.73654	1.056013	3.216057E-005	0.0006673	10
	5	22	94921.88	30.84117	0.4208323	1	30.84404	0.7817609	-1.728015E-005	0.0006697	10
	6	25	75421.88	30.96648	0.2733973	1	30.96769	0.5058405	1.750591E-005	0.0006312	10
	7	27	59859.37	31.08326	0.1510429	1	31.08363	0.2784151	2.143605E-005	0.0006322	10
	8	30	47578.12	31.20448	0.0341675	1	31.2045	0.0627363	2.522305E-005	0.0006914	10
	9	32	37828.12	31.32803	-0.0711235	1	31.32811	-0.1300774	6.641897E-006	0.0006144	10
	10	35	30046.88	31.45143	-0.1830087	1	31.45196	-0.3333874	-2.931854E-006	0.0006528	10
	11	37	23859.38	31.5735	-0.2921894	1	31.57485	-0.5302151	2.211482E-005	0.0006452	10
	12	40	18984.38	31.69197	-0.4229614	1	31.69479	-0.7646248	-2.594525E-005	0.0006696	10
	13	42	15046.87	31.80499	-0.565708	1	31.81003	-1.018999	-2.401089E-005	0.0007107	10
	14	44	11953.13	31.93582	-0.7428551	1	31.94445	-1.33251	-2.439687E-005	0.0007109	10
	15	46	9515.62	32.06324	-0.9436858	1	32.07712	-1.685844	-1.165744E-005	0.0006581	10
	16	49	7546.875	32.19131	-1.192183	1	32.21338	-2.120941	5.963628E-006	0.0006365	10
	17	51	5928.309	32.33505	-1.516761	1	32.37061	-2.685641	6.272662E-006	0.0007013	10
	18	53	4733.456	32.48679	-1.878771	1	32.54107	-3.309833	-1.739401E-005	0.0006781	10
	19	56	3796.875	32.63351	-2.322554	1	32.71605	-4.070925	6.981437E-006	0.0006269	10
	20	58	2987.132	32.79512	-2.923353	1	32.92516	-5.093876	-1.097476E-005	0.0006753	10
	21	60	2390.625	32.96408	-3.611828	1	33.16137	-6.252874	-1.801332E-005	0.000672	10
	22	63	1884.191	33.16195	-4.524901	1	33.46924	-7.769944	-1.74868E-005	0.0006825	10
	23	65	1516.544	33.37449	-5.550416	1	33.83288	-9.442279	-2.226235E-005	0.0007338	10
	24	67	1193.986	33.63272	-6.963722	1	34.34608	-11.69791	2.396384E-005	0.0006909	10
	25	70	946.5144	33.91632	-8.657902	1	35.00395	-14.32021	-2.163835E-005	0.0007668	10
	26	72	751.7689	34.24604	-10.77042	1	35.89977	-17.45841	2.100309E-005	0.0006422	10
	27	74	597.4265	34.59517	-13.34289	1	37.07909	-21.09096	-1.343457E-005	0.0004121	9
	28	77	477.4305	35.05032	-16.48169	1	38.73204	-25.18428	1.338064E-006	9.196041E-005	9
	29	79	376.6741	35.63322	-20.58409	1	41.15132	-30.01355	1.3234E-006	8.89396E-005	9
	30	81	298.2954	36.34079	-25.60161	1	44.45329	-35.16419	1.214038E-006	0.0000972	9
	31	83	237.7717	37.19741	-31.63021	1	48.82743	-40.37563	1.234314E-006	9.443875E-005	9
	32	86	189.0121	38.26756	-39.15635	1	54.75058	-45.6577	1.274566E-006	8.971236E-005	9
	33	88	150.2404	39.5979	-48.44742	1	62.57113	-50.73958	1.237359E-006	9.070158E-005	9
	34	91	119.1737	41.26927	-60.03369	1	72.85051	-55.494	1.343116E-006	8.893088E-005	9
	35	93	95.0169	43.32144	-73.99895	1	85.74725	-59.65388	1.287384E-006	0.0000956	9
	36	96	75.60484	45.91778	-91.34272	1	102.2347	-63.31143	1.379967E-006	8.835307E-005	9
	37	98	54.50582	50.76402	-123.3317	1	133.3705	-67.62766	1.304151E-006	8.833507E-005	9
	38	101	45.95588	54.05737	-144.2004	1	153.9999	-69.45015	1.325674E-006	9.392288E-005	9
	39	103	37.20238	58.95536	-174.881	1	184.551	-71.37016	1.300441E-006	0.0001067	9
	40	105	30.04808	65.05415	-212.4196	1	222.1579	-72.97263	1.296145E-006	9.082539E-005	9
	41	108	23.91582	73.11745	-261.2657	1	271.3041	-74.36526	1.386295E-006	9.171208E-005	9
	42	110	18.60119	84.26463	-328.0564	1	338.7057	-75.59442	1.184629E-006	0.0000987	9
	43	112	15.02404	96.1615	-397.7375	1	409.1969	-76.40835	1.36986E-006	0.0000981	9
	44	115	12.01923	111.0171	-484.3656	1	496.9254	-77.09072	5.576205E-007	0.0006669	8
	45	117	9.450605	131.2644	-601.2958	1	615.4568	-77.68539	5.229165E-007	0.0006698	8
	46	120	7.512019	155.4213	-738.5815	1	754.7572	-78.11651	5.378894E-007	0.0006892	8
	47	122	5.978954	185.4092	-906.1236	1	924.8981	-78.43588	4.807247E-007	0.0006728	8
	48	125	4.734848	223.11	-1116.986	1	1139.051	-78.70424	5.18418E-007	0.0006911	8
	49	129	3.75601	269.6001	-1372.959	1	1399.178	-78.8905	4.809066E-007	0.0006633	8
	50	132	3.004808	324.2893	-1673.836	1	1704.961	-79.03535	5.236145E-007	0.000636	8
	51	136	2.372217	394.1644	-2064.864	1	2102.149	-79.19276	5.108707E-007	0.0006132	8
	52	140	1.878005	482.7866	-2542.252	1	2587.687	-79.24728	4.998655E-007	0.0006795	8
	53	145	1.512097	583.1642	-3079.942	1	3134.665	-79.27839	4.909019E-007	0.0005765	8
	54	150	1.201923	704.7504	-3785.529	1	3850.571	-79.454	5.041901E-007	0.0006954	8
	55	156	0.956633	856.9623	-4651.864	1	4730.14	-79.56205	4.799335E-008	-3.470127E-006	7
