EXPLAIN
TAG	EISPOT
TITLE	LABEL	Potentiostatic EIS	Test Identifier
DATE	LABEL	2/27/2021	Date
TIME	LABEL	14:27:17	Time
NOTES	NOTES	1	Notes...
	
PSTAT	PSTAT	REF3000-16137	Potentiostat
VDC	POTEN	0.00000E+000	T	DC Voltage (V)
FREQINIT	QUANT	3.00000E+005	Initial Freq. (Hz)
FREQFINAL	QUANT	1.00000E+000	Final Freq. (Hz)
PTSPERDEC	QUANT	1.00000E+001	Points/decade
VAC	QUANT	5.00000E+001	AC Voltage (mV rms)
AREA	QUANT	1.00000E+000	Sample Area (cm^2)
SPEED	SELECTOR	2	Optimize for:
ZGUESS	QUANT	1.00000E+003	Estimated Z (ohms)
EOC	QUANT	0	Open Circuit (V)
SEQUENCER	TOGGLE	TRUE	Run as Sequence
PSTATMODEL	IQUANT	5	Pstat Model
PSTATSECTION	LABEL	REF3000-16137	Pstat Section
PSTATSERIALNO	LABEL	16137	Pstat Serial Number
CTRLMODE	IQUANT	1	Control Mode
IESTAB	IQUANT	0	I/E Stability
CASPEED	IQUANT	1	Control Amp Speed
CONVENTION	IQUANT	1	Current Convention
ICHRANGE	IQUANT	2	Ich Range
ICHRANGEMODE	TOGGLE	F	Ich Auto Range
ICHOFFSETENABLE	TOGGLE	T	Ich Offset Enable
ICHOFFSET	QUANT	0	Ich Offset (V)
ICHFILTER	IQUANT	3	Ich Filter
VCHRANGE	IQUANT	2	Vch Range
VCHRANGEMODE	TOGGLE	F	Vch Auto Range
VCHOFFSETENABLE	TOGGLE	T	Vch Offset Enable
VCHOFFSET	QUANT	0	Vch Offset (V)
VCHFILTER	IQUANT	3	Vch Filter
ACHRANGE	IQUANT	2	Ach Range
ACHOFFSETENABLE	TOGGLE	F	Ach Offset Enable
ACHOFFSET	QUANT	0	Ach Offset (V)
ACHFILTER	IQUANT	3	Ach Filter
IERANGELOWERLIMIT	IQUANT	2	I/E Range Lower Limit
IERANGEMODE	TOGGLE	F	I/E AutoRange
IERANGE	IQUANT	11	I/E Range
POSFEEDENABLE	TOGGLE	F	Positive Feedback IR Comp
POSFEEDRESISTANCE	QUANT	0	Positive Feedback Resistance (ohm)
ACHSELECT	IQUANT	0	Ach Select
CABLEID	IQUANT	13	Cable ID
DCCALDATE	LABEL	7/31/2020	DC Calibration Date
ACCALDATE	LABEL	7/31/2020	AC Calibration Date
THERMOSELECT	IQUANT	1	Thermo Select
FRAMEWORKVERSION	QUANT	6.33	Framework Version
INSTRUMENTVERSION	LABEL	3.50	Instrument Version
COMPLIANCEVOLTAGE	IQUANT	0	Compliance Voltage
ZCURVE	TABLE
	Pt	Time	Freq	Zreal	Zimag	Zsig	Zmod	Zphz	Idc	Vdc	IERange
	#	s	Hz	ohm	ohm	V	ohm	°	A	V	#
	0	10	300046.9	4.511429	2.209228	1	5.023314	26.0908	2.573475E-005	5.539422E-005	10
	1	14	238359.4	4.482666	1.758226	1	4.815149	21.41648	1.030663E-005	-0.0002275	10
	2	17	189328.1	4.462019	1.38607	1	4.672345	17.25674	2.801192E-005	5.764754E-005	10
	3	19	150421.9	4.45933	1.078023	1	4.587783	13.59026	7.117655E-005	8.944819E-005	10
	4	22	119484.4	4.456416	0.842741	1	4.5354	10.7086	8.766519E-006	0.0003806	10
	5	24	94921.88	4.458603	0.6543303	1	4.506361	8.348946	1.065643E-005	0.0004792	10
	6	27	75421.88	4.459793	0.4802023	1	4.485571	6.145571	2.90748E-005	0.0005094	10
	7	29	59859.37	4.465054	0.3327674	1	4.477437	4.262207	2.629113E-005	0.0005776	10
	8	32	47578.12	4.470973	0.2036366	1	4.475607	2.607813	-1.739712E-005	0.0006058	10
	9	34	37828.12	4.481009	0.0865357	1	4.481844	1.106338	-1.841571E-005	0.0006712	10
	10	37	30046.88	4.490346	-0.0253707	1	4.490417	-0.3237208	-2.738452E-005	0.0006441	10
	11	39	23859.38	4.502263	-0.1361472	1	4.504321	-1.732081	2.159031E-005	0.0006756	10
	12	42	18984.38	4.51411	-0.2506574	1	4.521064	-3.17823	-6.515114E-006	0.0006471	10
	13	44	15046.87	4.527784	-0.3785684	1	4.543582	-4.779389	-1.375132E-005	0.000658	10
	14	46	11953.13	4.543795	-0.5221112	1	4.573694	-6.554904	3.730047E-006	0.0006474	10
	15	49	9515.62	4.561728	-0.6883355	1	4.613368	-8.580832	-2.946485E-005	0.000677	10
	16	51	7546.875	4.584596	-0.8901107	1	4.670205	-10.98742	-1.982732E-005	0.0007094	10
	17	53	5928.309	4.611994	-1.146034	1	4.75225	-13.95478	-2.472074E-005	0.0006891	10
	18	55	4733.456	4.644285	-1.438066	1	4.861832	-17.20472	-2.407158E-005	0.0006885	10
	19	58	3796.875	4.68318	-1.788094	1	5.012929	-20.89745	-2.800093E-005	0.0006756	10
	20	60	2987.132	4.735543	-2.255469	1	5.245236	-25.46777	-6.145665E-006	0.0006886	10
	21	62	2390.625	4.79858	-2.789843	1	5.550639	-30.17326	1.759144E-005	0.0006552	10
	22	65	1884.191	4.881701	-3.501545	1	6.007647	-35.65111	-2.62339E-005	0.0006964	10
	23	67	1516.544	4.979988	-4.296798	1	6.577443	-40.78805	2.174809E-005	0.0006705	10
	24	69	1193.986	5.116436	-5.378775	1	7.423553	-46.43187	-2.363151E-005	0.0006965	10
	25	72	946.5144	5.285122	-6.68533	1	8.522099	-51.67169	2.14504E-005	0.0006915	10
	26	74	751.7689	5.501185	-8.282371	1	9.94287	-56.40772	-2.189654E-005	0.0007045	10
	27	76	597.4265	5.784329	-10.24641	1	11.76636	-60.55428	-1.128535E-005	0.0006754	10
	28	79	477.4305	6.126374	-12.60083	1	14.01119	-64.07153	-2.569411E-006	0.0006874	10
	29	81	376.6741	6.59022	-15.66717	1	16.9968	-67.18649	-2.048645E-006	0.0006986	10
	30	83	298.2954	7.171271	-19.39765	1	20.68081	-69.71075	-1.529635E-006	0.0007116	10
	31	86	237.7717	7.887934	-23.85094	1	25.12144	-71.70003	-1.820689E-006	0.0006917	10
	32	88	189.0121	8.800953	-29.38328	1	30.67302	-73.32586	-1.872816E-006	0.0006922	10
	33	90	150.2404	9.94946	-36.16169	1	37.50546	-74.61639	-1.986853E-006	0.0007101	10
	34	93	119.1737	11.38588	-44.51505	1	45.9481	-75.65271	1.572685E-006	9.212428E-005	9
	35	95	95.0169	13.15963	-54.5668	1	56.1312	-76.44114	1.541275E-006	8.94947E-005	9
	36	98	75.60484	15.38902	-66.96953	1	68.71491	-77.05859	1.482539E-006	9.06572E-005	9
	37	100	54.50582	19.56101	-89.68069	1	91.78922	-77.69546	1.37524E-006	9.297392E-005	9
	38	103	45.95588	22.31044	-104.4052	1	106.7623	-77.93783	1.650491E-006	8.90558E-005	9
	39	105	37.20238	26.34648	-125.9036	1	128.6307	-78.18088	1.594264E-006	0.000098	9
	40	107	30.04808	31.3031	-152.1271	1	155.3143	-78.37257	1.46397E-006	0.0000961	9
	41	110	23.91582	37.68409	-186.0515	1	189.8295	-78.54984	1.418947E-006	8.549364E-005	9
	42	112	18.60119	46.46234	-232.4975	1	237.0946	-78.69888	1.661742E-006	9.283681E-005	9
	43	114	15.02404	55.56613	-280.8242	1	286.2688	-78.80757	1.733842E-006	9.014195E-005	9
	44	117	12.01923	67.19621	-342.2311	1	348.7657	-78.89143	1.583516E-006	8.191317E-005	9
	45	119	9.450605	82.5809	-423.5787	1	431.5536	-78.968	1.555925E-006	0.0000991	9
	46	122	7.512019	100.5334	-516.8773	1	526.5635	-78.99331	9.256186E-007	0.0006478	8
	47	124	5.978954	122.9338	-632.9541	1	644.7819	-79.00873	9.403517E-007	0.0006678	8
	48	127	4.734848	151.8509	-778.9658	1	793.6286	-78.96915	9.649252E-007	0.0006411	8
	49	131	3.75601	188.243	-957.637	1	975.963	-78.87914	9.845585E-007	0.0006931	8
	50	134	3.004808	232.5977	-1168.002	1	1190.937	-78.73737	9.514542E-007	0.0006785	8
	51	138	2.372217	295.8778	-1440.65	1	1470.72	-78.3941	9.013082E-007	0.0006546	8
	52	142	1.878005	378.3422	-1778.577	1	1818.373	-77.99094	9.565247E-007	0.0006555	8
	53	147	1.512097	477.3196	-2157.69	1	2209.855	-77.52604	9.292252E-007	0.0007728	8
	54	152	1.201923	623.7802	-2646.879	1	2719.388	-76.73927	9.578239E-007	0.0006565	8
	55	158	0.956633	817.5499	-3235.639	1	3337.326	-75.81985	8.881897E-007	-2.091128E-007	8
