EXPLAIN
TAG	EISPOT
TITLE	LABEL	Potentiostatic EIS	Test Identifier
DATE	LABEL	2/27/2021	Date
TIME	LABEL	15:00:33	Time
NOTES	NOTES	1	Notes...
	
PSTAT	PSTAT	REF3000-16137	Potentiostat
VDC	POTEN	0.00000E+000	T	DC Voltage (V)
FREQINIT	QUANT	3.00000E+005	Initial Freq. (Hz)
FREQFINAL	QUANT	1.00000E+000	Final Freq. (Hz)
PTSPERDEC	QUANT	1.00000E+001	Points/decade
VAC	QUANT	5.00000E+001	AC Voltage (mV rms)
AREA	QUANT	1.00000E+000	Sample Area (cm^2)
SPEED	SELECTOR	2	Optimize for:
ZGUESS	QUANT	1.00000E+003	Estimated Z (ohms)
EOC	QUANT	0	Open Circuit (V)
SEQUENCER	TOGGLE	TRUE	Run as Sequence
PSTATMODEL	IQUANT	5	Pstat Model
PSTATSECTION	LABEL	REF3000-16137	Pstat Section
PSTATSERIALNO	LABEL	16137	Pstat Serial Number
CTRLMODE	IQUANT	1	Control Mode
IESTAB	IQUANT	0	I/E Stability
CASPEED	IQUANT	1	Control Amp Speed
CONVENTION	IQUANT	1	Current Convention
ICHRANGE	IQUANT	2	Ich Range
ICHRANGEMODE	TOGGLE	F	Ich Auto Range
ICHOFFSETENABLE	TOGGLE	T	Ich Offset Enable
ICHOFFSET	QUANT	0	Ich Offset (V)
ICHFILTER	IQUANT	3	Ich Filter
VCHRANGE	IQUANT	2	Vch Range
VCHRANGEMODE	TOGGLE	F	Vch Auto Range
VCHOFFSETENABLE	TOGGLE	T	Vch Offset Enable
VCHOFFSET	QUANT	0	Vch Offset (V)
VCHFILTER	IQUANT	3	Vch Filter
ACHRANGE	IQUANT	2	Ach Range
ACHOFFSETENABLE	TOGGLE	F	Ach Offset Enable
ACHOFFSET	QUANT	0	Ach Offset (V)
ACHFILTER	IQUANT	3	Ach Filter
IERANGELOWERLIMIT	IQUANT	2	I/E Range Lower Limit
IERANGEMODE	TOGGLE	F	I/E AutoRange
IERANGE	IQUANT	11	I/E Range
POSFEEDENABLE	TOGGLE	F	Positive Feedback IR Comp
POSFEEDRESISTANCE	QUANT	0	Positive Feedback Resistance (ohm)
ACHSELECT	IQUANT	0	Ach Select
CABLEID	IQUANT	13	Cable ID
DCCALDATE	LABEL	7/31/2020	DC Calibration Date
ACCALDATE	LABEL	7/31/2020	AC Calibration Date
THERMOSELECT	IQUANT	1	Thermo Select
FRAMEWORKVERSION	QUANT	6.33	Framework Version
INSTRUMENTVERSION	LABEL	3.50	Instrument Version
COMPLIANCEVOLTAGE	IQUANT	0	Compliance Voltage
ZCURVE	TABLE
	Pt	Time	Freq	Zreal	Zimag	Zsig	Zmod	Zphz	Idc	Vdc	IERange
	#	s	Hz	ohm	ohm	V	ohm	°	A	V	#
	0	7	300046.9	23.90669	1.486197	1	23.95284	3.557305	-4.3717E-005	-0.0003567	11
	1	12	238359.4	24.07951	1.420751	1	24.12139	3.376678	1.609948E-005	0.0004469	10
	2	16	189328.1	24.17759	0.9206096	1	24.19511	2.180597	-5.474419E-006	0.0006176	11
	3	19	150421.9	24.33547	0.8805842	1	24.3514	2.072356	2.789394E-005	0.0008614	10
	4	23	119484.4	24.403	0.5186046	1	24.40851	1.217448	7.112666E-005	0.000629	11
	5	27	94921.88	24.50666	0.4932943	1	24.51163	1.15315	-2.387714E-005	0.0007041	10
	6	29	75421.88	24.62593	0.3348173	1	24.62821	0.7789527	-2.305693E-005	0.0006638	10
	7	33	59859.37	24.71963	0.2008073	1	24.72044	0.4654262	2.445834E-005	0.0006932	10
	8	35	47578.12	24.81183	0.0784285	1	24.81195	0.1811075	1.685201E-005	0.0006206	10
	9	38	37828.12	24.90011	-0.0313375	1	24.90013	-0.0721083	6.153935E-006	0.0006251	10
	10	40	30046.88	24.99239	-0.1479421	1	24.99282	-0.3391576	2.010439E-005	0.0006187	10
	11	43	23859.38	25.08439	-0.2634954	1	25.08577	-0.6018332	-1.074188E-005	0.0006749	10
	12	45	18984.38	25.17236	-0.3915813	1	25.17541	-0.8912213	-1.624128E-005	0.0006818	10
	13	47	15046.87	25.26205	-0.533905	1	25.26769	-1.210747	-2.564529E-005	0.0007176	10
	14	50	11953.13	25.36178	-0.7101161	1	25.37172	-1.603832	2.378883E-005	0.0006579	10
	15	52	9515.62	25.45754	-0.9077902	1	25.47372	-2.042244	-2.823172E-005	0.0006844	10
	16	54	7546.875	25.55549	-1.153029	1	25.58149	-2.583356	-2.222892E-005	0.0007509	10
	17	57	5928.309	25.66883	-1.469512	1	25.71086	-3.276543	-2.078528E-005	0.0007268	10
	18	59	4733.456	25.7854	-1.825921	1	25.84997	-4.050478	2.514886E-005	0.0006732	10
	19	61	3796.875	25.907	-2.259964	1	26.00539	-4.985503	-1.691319E-005	0.0006929	10
	20	64	2987.132	26.03562	-2.843888	1	26.19048	-6.23374	5.922779E-006	0.0006381	10
	21	66	2390.625	26.18347	-3.517575	1	26.41869	-7.651495	-2.112604E-005	0.0006883	10
	22	68	1884.191	26.35095	-4.403887	1	26.71641	-9.487838	-2.190027E-005	0.0007259	10
	23	71	1516.544	26.5259	-5.414615	1	27.0729	-11.53704	-1.429855E-005	0.0007214	10
	24	73	1193.986	26.74901	-6.782384	1	27.59548	-14.22787	2.411908E-005	0.0006578	10
	25	75	946.5144	27.00113	-8.45258	1	28.29323	-17.38249	6.038389E-006	0.0006428	10
	26	78	751.7689	27.2949	-10.49053	1	29.24146	-21.02378	1.934169E-005	0.0006459	10
	27	80	597.4265	27.65347	-13.02692	1	30.5682	-25.22405	2.386757E-005	0.0006904	10
	28	82	477.4305	28.08211	-16.07569	1	32.35788	-29.78911	-2.564379E-006	0.0006936	10
	29	85	376.6741	28.63486	-20.06771	1	34.96667	-35.0233	-2.48123E-006	0.0007133	10
	30	87	298.2954	29.27285	-24.91802	1	38.44226	-40.40553	1.350917E-006	8.997269E-005	9
	31	89	237.7717	30.09189	-30.77356	1	43.04107	-45.64167	1.239735E-006	9.212842E-005	9
	32	92	189.0121	31.12282	-38.08286	1	49.18266	-50.74295	1.250255E-006	8.827633E-005	9
	33	94	150.2404	32.40822	-47.1052	1	57.17685	-55.47216	1.300442E-006	9.415187E-005	9
	34	96	119.1737	34.03587	-58.35222	1	67.55311	-59.74571	1.319775E-006	9.216341E-005	9
	35	99	95.0169	36.04092	-71.90086	1	80.42812	-63.37729	1.331245E-006	8.683274E-005	9
	36	101	75.60484	38.58155	-88.72083	1	96.7467	-66.49748	1.09788E-006	0.0001237	9
	37	104	54.50582	43.36153	-119.7112	1	127.3224	-70.08871	1.268511E-006	8.655777E-005	9
	38	106	45.95588	46.59416	-139.9147	1	147.4692	-71.58131	1.367936E-006	0.0000953	9
	39	109	37.20238	51.38334	-169.5767	1	177.1906	-73.1427	1.216661E-006	9.388205E-005	9
	40	111	30.04808	57.36298	-205.8612	1	213.7039	-74.42957	1.307669E-006	0.0000952	9
	41	114	23.91582	65.24931	-253.098	1	261.3734	-75.54378	1.280053E-006	8.833728E-005	9
	42	116	18.60119	76.1548	-317.6568	1	326.6579	-76.51839	1.422851E-006	9.24856E-005	9
	43	118	15.02404	87.78648	-385.0234	1	394.9044	-77.15595	1.399519E-006	8.131366E-005	9
	44	120	12.01923	102.177	-468.6143	1	479.6243	-77.6997	4.856734E-007	0.0006623	8
	45	123	9.450605	122.1383	-581.3831	1	594.0741	-78.1357	5.454044E-007	0.0006715	8
	46	125	7.512019	145.5899	-714.2177	1	728.9055	-78.47839	5.419975E-007	0.0006748	8
	47	128	5.978954	174.7968	-875.3904	1	892.6714	-78.70777	5.079935E-007	0.0006635	8
	48	131	4.734848	211.9457	-1078.396	1	1099.026	-78.88093	5.377739E-007	0.000665	8
	49	134	3.75601	256.7187	-1324.977	1	1349.618	-79.03462	5.40246E-007	0.0006705	8
	50	138	3.004808	309.2353	-1614.44	1	1643.79	-79.15672	5.525744E-007	0.0006368	8
	51	141	2.372217	379.5506	-1992.169	1	2028.003	-79.21321	5.368124E-007	0.0005911	8
	52	146	1.878005	459.5839	-2454.211	1	2496.872	-79.39344	5.669174E-007	0.0006619	8
	53	150	1.512097	550.0017	-2969.331	1	3019.839	-79.50618	5.288784E-007	0.0006683	8
	54	156	1.201923	671.1851	-3655.872	1	3716.973	-79.59686	5.645938E-007	0.0006868	8
	55	162	0.956633	819.7817	-4491	1	4565.208	-79.65519	5.407791E-008	-8.226665E-006	7
