EXPLAIN
TAG	EISPOT
TITLE	LABEL	Potentiostatic EIS	Test Identifier
DATE	LABEL	2/27/2021	Date
TIME	LABEL	15:11:39	Time
NOTES	NOTES	1	Notes...
	
PSTAT	PSTAT	REF3000-16137	Potentiostat
VDC	POTEN	0.00000E+000	T	DC Voltage (V)
FREQINIT	QUANT	3.00000E+005	Initial Freq. (Hz)
FREQFINAL	QUANT	1.00000E+000	Final Freq. (Hz)
PTSPERDEC	QUANT	1.00000E+001	Points/decade
VAC	QUANT	5.00000E+001	AC Voltage (mV rms)
AREA	QUANT	1.00000E+000	Sample Area (cm^2)
SPEED	SELECTOR	2	Optimize for:
ZGUESS	QUANT	1.00000E+003	Estimated Z (ohms)
EOC	QUANT	0	Open Circuit (V)
SEQUENCER	TOGGLE	TRUE	Run as Sequence
PSTATMODEL	IQUANT	5	Pstat Model
PSTATSECTION	LABEL	REF3000-16137	Pstat Section
PSTATSERIALNO	LABEL	16137	Pstat Serial Number
CTRLMODE	IQUANT	1	Control Mode
IESTAB	IQUANT	0	I/E Stability
CASPEED	IQUANT	1	Control Amp Speed
CONVENTION	IQUANT	1	Current Convention
ICHRANGE	IQUANT	2	Ich Range
ICHRANGEMODE	TOGGLE	F	Ich Auto Range
ICHOFFSETENABLE	TOGGLE	T	Ich Offset Enable
ICHOFFSET	QUANT	0	Ich Offset (V)
ICHFILTER	IQUANT	3	Ich Filter
VCHRANGE	IQUANT	2	Vch Range
VCHRANGEMODE	TOGGLE	F	Vch Auto Range
VCHOFFSETENABLE	TOGGLE	T	Vch Offset Enable
VCHOFFSET	QUANT	0	Vch Offset (V)
VCHFILTER	IQUANT	3	Vch Filter
ACHRANGE	IQUANT	2	Ach Range
ACHOFFSETENABLE	TOGGLE	F	Ach Offset Enable
ACHOFFSET	QUANT	0	Ach Offset (V)
ACHFILTER	IQUANT	3	Ach Filter
IERANGELOWERLIMIT	IQUANT	2	I/E Range Lower Limit
IERANGEMODE	TOGGLE	F	I/E AutoRange
IERANGE	IQUANT	11	I/E Range
POSFEEDENABLE	TOGGLE	F	Positive Feedback IR Comp
POSFEEDRESISTANCE	QUANT	0	Positive Feedback Resistance (ohm)
ACHSELECT	IQUANT	0	Ach Select
CABLEID	IQUANT	13	Cable ID
DCCALDATE	LABEL	7/31/2020	DC Calibration Date
ACCALDATE	LABEL	7/31/2020	AC Calibration Date
THERMOSELECT	IQUANT	1	Thermo Select
FRAMEWORKVERSION	QUANT	6.33	Framework Version
INSTRUMENTVERSION	LABEL	3.50	Instrument Version
COMPLIANCEVOLTAGE	IQUANT	0	Compliance Voltage
ZCURVE	TABLE
	Pt	Time	Freq	Zreal	Zimag	Zsig	Zmod	Zphz	Idc	Vdc	IERange
	#	s	Hz	ohm	ohm	V	ohm	°	A	V	#
	0	7	300046.9	66.38782	1.258251	1	66.39974	1.0858	6.096292E-005	-0.0026154	9
	1	10	238359.4	66.9006	0.8665456	1	66.90622	0.7420954	-4.765211E-005	0.0004382	9
	2	13	189328.1	67.25237	0.5715427	1	67.2548	0.4869151	-5.810479E-006	0.0006646	9
	3	16	150421.9	67.60129	0.3715767	1	67.60231	0.3149283	-4.445145E-005	0.0007499	9
	4	18	119484.4	67.9632	0.2816556	1	67.96378	0.237446	-6.852404E-005	0.0024221	9
	5	21	94921.88	68.38452	0.4001804	1	68.38569	0.3352862	-1.060215E-005	0.0000956	9
	6	23	75421.88	68.66622	0.2173015	1	68.66656	0.1813179	-2.092679E-006	-0.0002404	9
	7	26	59859.37	68.97397	0.0637473	1	68.974	0.0529541	-1.817743E-005	0.000531	9
	8	28	47578.12	69.34602	-0.092565	1	69.34608	-0.07648	-1.78496E-005	0.0006422	9
	9	31	37828.12	69.66085	-0.2001905	1	69.66114	-0.1646555	2.021195E-005	-0.0005707	9
	10	33	30046.88	70.00544	-0.2982068	1	70.00607	-0.2440652	-6.629499E-006	0.0005889	9
	11	36	23859.38	70.31779	-0.4331695	1	70.31913	-0.3529472	-1.211934E-006	-0.00023	9
	12	38	18984.38	70.6422	-0.5433502	1	70.64429	-0.4406864	2.124663E-005	-0.0003968	9
	13	40	15046.87	70.88449	-0.7108375	1	70.88805	-0.5745491	-1.701221E-005	0.0006973	9
	14	43	11953.13	71.36238	-0.8558968	1	71.36752	-0.6871536	-1.052524E-005	0.0006605	9
	15	45	9515.62	71.60615	-1.074306	1	71.6142	-0.8595436	1.739694E-005	-0.000115	9
	16	47	7546.875	71.87125	-1.375664	1	71.88441	-1.096546	-1.33247E-005	0.0003398	9
	17	50	5928.309	72.28757	-1.707005	1	72.30772	-1.352736	-2.546119E-006	-0.0001718	9
	18	52	4733.456	72.63013	-2.113505	1	72.66087	-1.666812	1.113972E-005	-0.0005172	9
	19	54	3796.875	72.99466	-2.547453	1	73.0391	-1.998764	2.148825E-005	-0.0002253	9
	20	56	2987.132	73.35916	-3.219285	1	73.42976	-2.512749	-2.401756E-006	-0.000179	9
	21	59	2390.625	73.75428	-3.963709	1	73.86071	-3.076235	1.620384E-005	-0.000599	9
	22	61	1884.191	74.13222	-4.968992	1	74.29856	-3.83473	-1.572091E-005	0.0003993	9
	23	63	1516.544	74.57797	-6.055318	1	74.82339	-4.641917	1.060789E-005	0.0001616	9
	24	66	1193.986	75.04015	-7.577272	1	75.42174	-5.765968	-1.101236E-005	0.0007487	9
	25	68	946.5144	75.56295	-9.416953	1	76.14748	-7.103801	-9.057466E-006	5.678626E-005	9
	26	70	751.7689	76.09023	-11.69592	1	76.98388	-8.73861	-2.59143E-006	-0.0001679	9
	27	73	597.4265	76.71172	-14.55027	1	78.07943	-10.73998	-1.800674E-005	0.0004967	9
	28	75	477.4305	77.39175	-17.96303	1	79.44906	-13.06727	1.353432E-006	8.967749E-005	9
	29	77	376.6741	78.18703	-22.45063	1	81.34644	-16.02089	1.314721E-006	7.844488E-005	9
	30	80	298.2954	79.10732	-27.95865	1	83.90264	-19.46478	1.351435E-006	8.584935E-005	9
	31	82	237.7717	80.19264	-34.59357	1	87.33599	-23.33444	1.386652E-006	8.090617E-005	9
	32	85	189.0121	81.49221	-42.89306	1	92.09123	-27.75987	1.321337E-006	8.912601E-005	9
	33	87	150.2404	83.06717	-53.1536	1	98.6177	-32.61465	1.330844E-006	0.0001047	9
	34	89	119.1737	84.9994	-65.95988	1	107.59	-37.81161	1.380318E-006	0.0001075	9
	35	92	95.0169	87.33225	-81.40285	1	119.3874	-42.98744	1.360817E-006	9.488516E-005	9
	36	94	75.60484	90.23716	-100.6001	1	135.1411	-48.10825	1.248648E-006	9.168875E-005	9
	37	97	54.50582	95.4592	-136.0664	1	166.2123	-54.9479	1.382662E-006	9.400897E-005	9
	38	99	45.95588	99.0789	-159.2633	1	187.5671	-58.11393	1.294895E-006	8.95171E-005	9
	39	102	37.20238	104.3372	-193.4284	1	219.7744	-61.65712	1.103192E-006	0.0001197	9
	40	104	30.04808	110.9125	-235.3316	1	260.1587	-64.76534	1.397439E-006	9.497887E-005	9
	41	106	23.91582	119.598	-290.0291	1	313.7205	-67.59044	1.381644E-006	8.063406E-005	9
	42	109	18.60119	131.5973	-364.8346	1	387.8429	-70.16542	1.41875E-006	8.904813E-005	9
	43	111	15.02404	143.8526	-441.1347	1	463.9972	-71.93902	3.480665E-007	0.0006661	8
	44	113	12.01923	160.4927	-540.2771	1	563.6109	-73.45562	2.44234E-007	0.0006713	8
	45	116	9.450605	182.7015	-671.5709	1	695.9794	-74.78095	2.974856E-007	0.0006766	8
	46	118	7.512019	209.5603	-826.0182	1	852.1864	-75.76444	2.764849E-007	0.0006611	8
	47	121	5.978954	242.039	-1014.526	1	1042.999	-76.58158	3.09316E-007	0.0006708	8
	48	124	4.734848	283.0941	-1251.521	1	1283.139	-77.25419	3.064492E-007	0.000634	8
	49	127	3.75601	334.4367	-1540.808	1	1576.686	-77.75375	3.767303E-007	0.0006788	8
	50	131	3.004808	395.3562	-1881.366	1	1922.458	-78.13236	3.106652E-007	0.0007023	8
	51	134	2.372217	474.4924	-2322.742	1	2370.711	-78.45441	3.179947E-007	0.0007035	8
	52	138	1.878005	576.6935	-2864.669	1	2922.141	-78.61778	3.425562E-007	0.0006409	8
	53	143	1.512097	691.262	-3475.254	1	3543.337	-78.75014	3.438809E-007	0.0007708	8
	54	149	1.201923	837.0346	-4276.86	1	4358	-78.92648	4.205697E-008	0.0006114	7
	55	155	0.956633	1010.819	-5243.538	1	5340.079	-79.0887	1.932889E-008	-1.330252E-006	7
