EXPLAIN
TAG	EISPOT
TITLE	LABEL	Potentiostatic EIS	Test Identifier
DATE	LABEL	2/27/2021	Date
TIME	LABEL	15:36:46	Time
NOTES	NOTES	1	Notes...
	
PSTAT	PSTAT	REF3000-16137	Potentiostat
VDC	POTEN	0.00000E+000	T	DC Voltage (V)
FREQINIT	QUANT	3.00000E+005	Initial Freq. (Hz)
FREQFINAL	QUANT	1.00000E+000	Final Freq. (Hz)
PTSPERDEC	QUANT	1.00000E+001	Points/decade
VAC	QUANT	5.00000E+001	AC Voltage (mV rms)
AREA	QUANT	1.00000E+000	Sample Area (cm^2)
SPEED	SELECTOR	2	Optimize for:
ZGUESS	QUANT	1.00000E+003	Estimated Z (ohms)
EOC	QUANT	0	Open Circuit (V)
SEQUENCER	TOGGLE	TRUE	Run as Sequence
PSTATMODEL	IQUANT	5	Pstat Model
PSTATSECTION	LABEL	REF3000-16137	Pstat Section
PSTATSERIALNO	LABEL	16137	Pstat Serial Number
CTRLMODE	IQUANT	1	Control Mode
IESTAB	IQUANT	0	I/E Stability
CASPEED	IQUANT	1	Control Amp Speed
CONVENTION	IQUANT	1	Current Convention
ICHRANGE	IQUANT	2	Ich Range
ICHRANGEMODE	TOGGLE	F	Ich Auto Range
ICHOFFSETENABLE	TOGGLE	T	Ich Offset Enable
ICHOFFSET	QUANT	0	Ich Offset (V)
ICHFILTER	IQUANT	3	Ich Filter
VCHRANGE	IQUANT	2	Vch Range
VCHRANGEMODE	TOGGLE	F	Vch Auto Range
VCHOFFSETENABLE	TOGGLE	T	Vch Offset Enable
VCHOFFSET	QUANT	0	Vch Offset (V)
VCHFILTER	IQUANT	3	Vch Filter
ACHRANGE	IQUANT	2	Ach Range
ACHOFFSETENABLE	TOGGLE	F	Ach Offset Enable
ACHOFFSET	QUANT	0	Ach Offset (V)
ACHFILTER	IQUANT	3	Ach Filter
IERANGELOWERLIMIT	IQUANT	2	I/E Range Lower Limit
IERANGEMODE	TOGGLE	F	I/E AutoRange
IERANGE	IQUANT	11	I/E Range
POSFEEDENABLE	TOGGLE	F	Positive Feedback IR Comp
POSFEEDRESISTANCE	QUANT	0	Positive Feedback Resistance (ohm)
ACHSELECT	IQUANT	0	Ach Select
CABLEID	IQUANT	13	Cable ID
DCCALDATE	LABEL	7/31/2020	DC Calibration Date
ACCALDATE	LABEL	7/31/2020	AC Calibration Date
THERMOSELECT	IQUANT	1	Thermo Select
FRAMEWORKVERSION	QUANT	6.33	Framework Version
INSTRUMENTVERSION	LABEL	3.50	Instrument Version
COMPLIANCEVOLTAGE	IQUANT	0	Compliance Voltage
ZCURVE	TABLE
	Pt	Time	Freq	Zreal	Zimag	Zsig	Zmod	Zphz	Idc	Vdc	IERange
	#	s	Hz	ohm	ohm	V	ohm	°	A	V	#
	0	18	300046.9	1605.603	-1407.75	1	2135.351	-41.24343	-3.134418E-005	-0.0011325	9
	1	30	238359.4	1933.928	-1541.429	1	2473.071	-38.55645	5.15272E-005	3.725671E-005	9
	2	58	189328.1	2250.953	-1582.334	1	2751.467	-35.10576	-2.138211E-005	0.0014801	9
	3	65	150421.9	2644.747	-1568.149	1	3074.699	-30.66496	-9.050943E-005	0.0022493	9
	4	73	119484.4	2985.302	-1443.069	1	3315.791	-25.79872	7.915854E-006	-0.0156248	8
	5	80	94921.88	3275.913	-1367.026	1	3549.7	-22.65059	-1.672766E-005	0.0102558	8
	6	87	75421.88	3539.61	-1293.547	1	3768.567	-20.07478	-2.039338E-006	-0.0042618	8
	7	95	59859.37	3834.797	-1191.677	1	4015.689	-17.26281	-1.582267E-005	0.0011873	8
	8	102	47578.12	4097.833	-1089.642	1	4240.23	-14.89077	-2.177205E-005	0.0101836	8
	9	110	37828.12	4333.515	-976.653	1	4442.207	-12.70067	-2.244051E-005	0.0053348	8
	10	117	30046.88	4572.127	-881.967	1	4656.417	-10.91829	6.24711E-006	-0.0067036	8
	11	124	23859.38	4756.669	-788.1175	1	4821.517	-9.407691	-9.751397E-006	-0.0015006	8
	12	130	18984.38	4932.302	-686.3388	1	4979.826	-7.921942	-2.252641E-005	0.0053596	8
	13	135	15046.87	5109.041	-618.541	1	5146.347	-6.903085	-1.707342E-005	0.0103248	8
	14	140	11953.13	5239.319	-494.5171	1	5262.605	-5.391932	-1.720786E-005	0.0103903	8
	15	146	9515.62	5378.792	-440.339	1	5396.786	-4.680127	2.418E-005	-0.0083809	8
	16	151	7546.875	5527.501	-364.459	1	5539.503	-3.77237	2.499942E-005	-0.0050149	8
	17	157	5928.309	5754.75	-320.3746	1	5763.661	-3.186444	1.74017E-005	-0.0001075	8
	18	162	4733.456	5832.105	-261.8465	1	5837.98	-2.570707	2.492578E-005	-0.0050903	8
	19	167	3796.875	5948.389	-229.3367	1	5952.808	-2.207912	-1.00314E-005	-0.0014147	8
	20	174	2987.132	6078.13	-192.0073	1	6081.163	-1.809364	-2.453182E-005	0.0092491	8
	21	179	2390.625	6120.41	-209.4823	1	6123.994	-1.960288	1.709909E-005	-0.0001021	8
	22	184	1884.191	6309.961	-125.9407	1	6311.218	-1.143416	-9.927848E-006	-0.0014809	8
	23	190	1516.544	6462.354	-66.77213	1	6462.698	-0.5919863	-9.936965E-006	-0.0014963	8
	24	195	1193.986	6631.036	-157.9438	1	6632.917	-1.364463	2.067634E-005	-0.0089892	8
	25	201	946.5144	6841.078	-228.4193	1	6844.89	-1.91236	-2.469641E-005	0.0075053	8
	26	204	751.7689	6965.027	-191.53	1	6967.66	-1.575169	-9.874258E-006	-0.0015285	8
	27	208	597.4265	6914.647	-13.48436	1	6914.66	-0.1117333	3.30599E-006	-0.0210155	7
	28	211	477.4305	7026.885	-64.76061	1	7027.184	-0.5280298	-5.191906E-008	0.0006095	7
	29	213	376.6741	7092.52	-65.55279	1	7092.823	-0.5295426	-6.435526E-008	0.0006649	7
	30	215	298.2954	7161.017	-70.08327	1	7161.36	-0.5607231	-5.620389E-008	0.0006215	7
	31	218	237.7717	7229.485	-76.07738	1	7229.885	-0.6029133	-5.964949E-008	0.000621	7
	32	220	189.0121	7300.846	-86.25542	1	7301.355	-0.6768862	-6.81209E-008	0.0005954	7
	33	223	150.2404	7374.251	-98.7755	1	7374.913	-0.7674105	-5.295659E-008	0.0006749	7
	34	225	119.1737	7447.709	-117.2356	1	7448.632	-0.9018279	-5.25305E-008	0.0006653	7
	35	227	95.0169	7522.403	-141.2748	1	7523.73	-1.075919	-5.352093E-008	0.0005965	7
	36	230	75.60484	7601.565	-170.384	1	7603.475	-1.284031	-6.064739E-008	0.0006033	7
	37	232	54.50582	7688.502	-225.0543	1	7691.795	-1.676657	-6.00054E-008	0.0006723	7
	38	235	45.95588	7764.192	-262.3905	1	7768.625	-1.935572	-4.239747E-008	0.0005922	7
	39	237	37.20238	7840.481	-319.0551	1	7846.971	-2.330269	-1.261523E-007	0.0006208	7
	40	240	30.04808	7926.651	-380.8974	1	7935.798	-2.751104	-1.10449E-007	0.000623	7
	41	242	23.91582	8006.083	-476.5557	1	8020.253	-3.406466	2.658632E-008	0.0006725	7
	42	244	18.60119	8116.391	-597.2971	1	8138.339	-4.208893	-1.947867E-007	0.0006626	7
	43	247	15.02404	8197.147	-733.1363	1	8229.867	-5.11082	-1.223452E-007	0.000632	7
	44	249	12.01923	8292.889	-873.7253	1	8338.789	-6.014402	6.486093E-008	0.0006773	7
	45	251	9.450605	8394.458	-1107.308	1	8467.175	-7.514466	5.603553E-009	0.0005963	7
	46	254	7.512019	8479.245	-1402.934	1	8594.522	-9.394766	7.061187E-008	0.0006519	7
	47	257	5.978954	8639.77	-1733.077	1	8811.877	-11.3426	4.024838E-009	0.0006729	7
	48	260	4.734848	8791.457	-2149.37	1	9050.387	-13.7384	-2.076601E-009	0.0006847	7
	49	263	3.75601	8976.571	-2660.887	1	9362.646	-16.51118	-8.962197E-008	0.0005856	7
	50	266	3.004808	9202.671	-3266.622	1	9765.24	-19.54306	-7.941949E-008	0.0006851	7
	51	270	2.372217	9443.123	-4055.798	1	10277.26	-23.2434	-6.460911E-008	0.0007023	7
	52	274	1.878005	9751.81	-5052.725	1	10983.07	-27.39013	-7.516928E-008	0.0006154	7
	53	279	1.512097	10097.86	-6169.307	1	11833.3	-31.42294	-6.592821E-008	0.0005918	7
	54	284	1.201923	10532.15	-7636.135	1	13009.1	-35.94328	-6.538239E-008	0.0006124	7
	55	291	0.956633	11047.57	-9423.396	1	14520.65	-40.46364	-6.495763E-008	-1.239353E-005	7
