EXPLAIN
TAG	EISPOT
TITLE	LABEL	Potentiostatic EIS	Test Identifier
DATE	LABEL	2/27/2021	Date
TIME	LABEL	14:43:59	Time
NOTES	NOTES	1	Notes...
	
PSTAT	PSTAT	REF3000-16137	Potentiostat
VDC	POTEN	0.00000E+000	T	DC Voltage (V)
FREQINIT	QUANT	3.00000E+005	Initial Freq. (Hz)
FREQFINAL	QUANT	1.00000E+000	Final Freq. (Hz)
PTSPERDEC	QUANT	1.00000E+001	Points/decade
VAC	QUANT	5.00000E+001	AC Voltage (mV rms)
AREA	QUANT	1.00000E+000	Sample Area (cm^2)
SPEED	SELECTOR	2	Optimize for:
ZGUESS	QUANT	1.00000E+003	Estimated Z (ohms)
EOC	QUANT	0	Open Circuit (V)
SEQUENCER	TOGGLE	TRUE	Run as Sequence
PSTATMODEL	IQUANT	5	Pstat Model
PSTATSECTION	LABEL	REF3000-16137	Pstat Section
PSTATSERIALNO	LABEL	16137	Pstat Serial Number
CTRLMODE	IQUANT	1	Control Mode
IESTAB	IQUANT	0	I/E Stability
CASPEED	IQUANT	1	Control Amp Speed
CONVENTION	IQUANT	1	Current Convention
ICHRANGE	IQUANT	2	Ich Range
ICHRANGEMODE	TOGGLE	F	Ich Auto Range
ICHOFFSETENABLE	TOGGLE	T	Ich Offset Enable
ICHOFFSET	QUANT	0	Ich Offset (V)
ICHFILTER	IQUANT	3	Ich Filter
VCHRANGE	IQUANT	2	Vch Range
VCHRANGEMODE	TOGGLE	F	Vch Auto Range
VCHOFFSETENABLE	TOGGLE	T	Vch Offset Enable
VCHOFFSET	QUANT	0	Vch Offset (V)
VCHFILTER	IQUANT	3	Vch Filter
ACHRANGE	IQUANT	2	Ach Range
ACHOFFSETENABLE	TOGGLE	F	Ach Offset Enable
ACHOFFSET	QUANT	0	Ach Offset (V)
ACHFILTER	IQUANT	3	Ach Filter
IERANGELOWERLIMIT	IQUANT	2	I/E Range Lower Limit
IERANGEMODE	TOGGLE	F	I/E AutoRange
IERANGE	IQUANT	11	I/E Range
POSFEEDENABLE	TOGGLE	F	Positive Feedback IR Comp
POSFEEDRESISTANCE	QUANT	0	Positive Feedback Resistance (ohm)
ACHSELECT	IQUANT	0	Ach Select
CABLEID	IQUANT	13	Cable ID
DCCALDATE	LABEL	7/31/2020	DC Calibration Date
ACCALDATE	LABEL	7/31/2020	AC Calibration Date
THERMOSELECT	IQUANT	1	Thermo Select
FRAMEWORKVERSION	QUANT	6.33	Framework Version
INSTRUMENTVERSION	LABEL	3.50	Instrument Version
COMPLIANCEVOLTAGE	IQUANT	0	Compliance Voltage
ZCURVE	TABLE
	Pt	Time	Freq	Zreal	Zimag	Zsig	Zmod	Zphz	Idc	Vdc	IERange
	#	s	Hz	ohm	ohm	V	ohm	°	A	V	#
	0	8	300046.9	8.553988	2.181684	1	8.827824	14.30818	-2.912625E-005	2.050655E-005	10
	1	11	238359.4	8.532787	1.714588	1	8.703348	11.36177	1.854194E-005	0.0001048	10
	2	14	189328.1	8.529215	1.353085	1	8.635876	9.01435	4.016963E-005	0.0003722	10
	3	17	150421.9	8.546446	1.049	1	8.610583	6.997543	1.793172E-005	0.000422	10
	4	20	119484.4	8.548038	0.8140517	1	8.586712	5.440019	-3.137839E-006	0.0006033	10
	5	22	94921.88	8.565671	0.6394625	1	8.589507	4.269445	-2.139649E-005	0.0006519	10
	6	25	75421.88	8.578089	0.460097	1	8.590419	3.070192	-4.036905E-006	0.0006015	10
	7	27	59859.37	8.596321	0.3055868	1	8.601751	2.035925	-1.079742E-006	0.0006276	10
	8	30	47578.12	8.618929	0.173171	1	8.620668	1.151028	-1.333618E-005	0.0007073	10
	9	32	37828.12	8.639421	0.0536128	1	8.639587	0.35555	1.313314E-005	0.0006418	10
	10	35	30046.88	8.664182	-0.0607068	1	8.664394	-0.4014441	2.341589E-005	0.0006827	10
	11	37	23859.38	8.686893	-0.1759367	1	8.688674	-1.160259	1.377212E-005	0.0006585	10
	12	39	18984.38	8.712498	-0.2974899	1	8.717575	-1.955615	2.539699E-005	0.0006609	10
	13	42	15046.87	8.738142	-0.4348455	1	8.748955	-2.848921	-2.001341E-005	0.0006662	10
	14	44	11953.13	8.768259	-0.5899846	1	8.788086	-3.849424	-1.117583E-005	0.0007321	10
	15	46	9515.62	8.79903	-0.7707399	1	8.832722	-5.005974	-3.082737E-005	0.000679	10
	16	49	7546.875	8.833705	-0.989554	1	8.888957	-6.39164	2.152462E-005	0.0006501	10
	17	51	5928.309	8.876047	-1.270308	1	8.966487	-8.144661	-1.143911E-005	0.0006742	10
	18	53	4733.456	8.924471	-1.590725	1	9.06513	-10.10644	-1.420296E-005	0.0007063	10
	19	56	3796.875	8.974757	-1.974892	1	9.189476	-12.41013	-8.027699E-006	0.0006669	10
	20	58	2987.132	9.041348	-2.489336	1	9.37778	-15.39372	1.693748E-005	0.00065	10
	21	60	2390.625	9.115363	-3.081768	1	9.62222	-18.67962	1.818268E-005	0.0006576	10
	22	62	1884.191	9.21294	-3.868383	1	9.99213	-22.77685	2.136444E-005	0.0006607	10
	23	65	1516.544	9.321944	-4.749194	1	10.462	-26.9972	-1.134856E-005	0.0006765	10
	24	67	1193.986	9.470864	-5.955019	1	11.18747	-32.16055	-1.466027E-005	0.0007068	10
	25	70	946.5144	9.6549	-7.399636	1	12.16436	-37.467	1.258068E-005	0.0006467	10
	26	72	751.7689	9.88022	-9.19387	1	13.49615	-42.9392	-2.801679E-005	0.0007055	10
	27	74	597.4265	10.17071	-11.38966	1	15.26983	-48.23588	1.095896E-005	0.0006464	10
	28	76	477.4305	10.51975	-14.03531	1	17.5401	-53.14769	-2.213567E-006	0.0006902	10
	29	79	376.6741	10.99247	-17.49006	1	20.65761	-57.85071	-2.108569E-006	0.0006869	10
	30	81	298.2954	11.58833	-21.70824	1	24.60766	-61.90574	-2.854214E-006	0.0006916	10
	31	83	237.7717	12.32665	-26.7658	1	29.46786	-65.27217	-2.374636E-006	0.00069	10
	32	86	189.0121	13.27079	-33.05559	1	35.62002	-68.12608	-1.994979E-006	0.0006926	10
	33	88	150.2404	14.44793	-40.74352	1	43.22936	-70.47514	1.391443E-006	8.88201E-005	9
	34	91	119.1737	15.97033	-50.33929	1	52.81189	-72.39818	1.430116E-006	8.982937E-005	9
	35	93	95.0169	17.84196	-61.854	1	64.37588	-73.90965	1.365839E-006	8.729038E-005	9
	36	96	75.60484	20.20433	-76.09187	1	78.72857	-75.12965	1.348017E-006	8.300899E-005	9
	37	98	54.50582	24.64469	-102.2436	1	105.1718	-76.44799	1.344289E-006	8.477091E-005	9
	38	101	45.95588	27.57255	-119.2267	1	122.3734	-76.9786	1.426995E-006	9.078259E-005	9
	39	103	37.20238	31.94722	-144.1601	1	147.6576	-77.50466	1.446036E-006	8.753445E-005	9
	40	105	30.04808	37.33842	-174.5289	1	178.4783	-77.92428	1.429597E-006	8.343631E-005	9
	41	108	23.91582	44.42746	-214.0087	1	218.5715	-78.27218	1.297239E-006	8.875898E-005	9
	42	110	18.60119	54.2174	-267.7271	1	273.1618	-78.55186	1.443399E-006	8.932123E-005	9
	43	112	15.02404	64.49768	-323.7934	1	330.1547	-78.73448	1.4635E-006	8.369666E-005	9
	44	115	12.01923	77.54102	-394.8221	1	402.3644	-78.88882	1.403543E-006	8.686031E-005	9
	45	117	9.450605	94.23222	-486.7355	1	495.7733	-79.04306	6.08212E-007	0.0006726	8
	46	120	7.512019	114.0671	-596.6046	1	607.4111	-79.17603	6.595654E-007	0.000648	8
	47	122	5.978954	138.4898	-730.4755	1	743.4876	-79.26479	7.179399E-007	0.0006698	8
	48	125	4.734848	168.5917	-899.4357	1	915.0999	-79.38358	6.549658E-007	0.0006492	8
	49	129	3.75601	205.4633	-1104.823	1	1123.765	-79.46508	7.309809E-007	0.0006764	8
	50	132	3.004808	249.3033	-1347.139	1	1370.013	-79.51539	6.783289E-007	0.0006952	8
	51	136	2.372217	306.1655	-1662.119	1	1690.082	-79.563	6.675173E-007	0.0007058	8
	52	140	1.878005	379.7368	-2049.08	1	2083.969	-79.50101	7.014518E-007	0.0006416	8
	53	145	1.512097	463.845	-2486.451	1	2529.346	-79.43299	7.041614E-007	0.0007633	8
	54	150	1.201923	571.4054	-3057.757	1	3110.689	-79.41518	7.065795E-007	0.0006399	8
	55	156	0.956633	707.2823	-3753.085	1	3819.148	-79.32758	6.795624E-007	2.442151E-005	8
