EXPLAIN
TAG	EISPOT
TITLE	LABEL	Potentiostatic EIS	Test Identifier
DATE	LABEL	2/27/2021	Date
TIME	LABEL	14:02:03	Time
NOTES	NOTES	1	Notes...
	
PSTAT	PSTAT	REF3000-16137	Potentiostat
VDC	POTEN	0.00000E+000	T	DC Voltage (V)
FREQINIT	QUANT	3.00000E+005	Initial Freq. (Hz)
FREQFINAL	QUANT	1.00000E+000	Final Freq. (Hz)
PTSPERDEC	QUANT	1.00000E+001	Points/decade
VAC	QUANT	5.00000E+001	AC Voltage (mV rms)
AREA	QUANT	1.00000E+000	Sample Area (cm^2)
SPEED	SELECTOR	2	Optimize for:
ZGUESS	QUANT	1.00000E+003	Estimated Z (ohms)
EOC	QUANT	0	Open Circuit (V)
SEQUENCER	TOGGLE	TRUE	Run as Sequence
PSTATMODEL	IQUANT	5	Pstat Model
PSTATSECTION	LABEL	REF3000-16137	Pstat Section
PSTATSERIALNO	LABEL	16137	Pstat Serial Number
CTRLMODE	IQUANT	1	Control Mode
IESTAB	IQUANT	0	I/E Stability
CASPEED	IQUANT	1	Control Amp Speed
CONVENTION	IQUANT	1	Current Convention
ICHRANGE	IQUANT	2	Ich Range
ICHRANGEMODE	TOGGLE	F	Ich Auto Range
ICHOFFSETENABLE	TOGGLE	T	Ich Offset Enable
ICHOFFSET	QUANT	0	Ich Offset (V)
ICHFILTER	IQUANT	3	Ich Filter
VCHRANGE	IQUANT	2	Vch Range
VCHRANGEMODE	TOGGLE	F	Vch Auto Range
VCHOFFSETENABLE	TOGGLE	T	Vch Offset Enable
VCHOFFSET	QUANT	0	Vch Offset (V)
VCHFILTER	IQUANT	3	Vch Filter
ACHRANGE	IQUANT	2	Ach Range
ACHOFFSETENABLE	TOGGLE	F	Ach Offset Enable
ACHOFFSET	QUANT	0	Ach Offset (V)
ACHFILTER	IQUANT	3	Ach Filter
IERANGELOWERLIMIT	IQUANT	2	I/E Range Lower Limit
IERANGEMODE	TOGGLE	F	I/E AutoRange
IERANGE	IQUANT	11	I/E Range
POSFEEDENABLE	TOGGLE	F	Positive Feedback IR Comp
POSFEEDRESISTANCE	QUANT	0	Positive Feedback Resistance (ohm)
ACHSELECT	IQUANT	0	Ach Select
CABLEID	IQUANT	13	Cable ID
DCCALDATE	LABEL	7/31/2020	DC Calibration Date
ACCALDATE	LABEL	7/31/2020	AC Calibration Date
THERMOSELECT	IQUANT	1	Thermo Select
FRAMEWORKVERSION	QUANT	6.33	Framework Version
INSTRUMENTVERSION	LABEL	3.50	Instrument Version
COMPLIANCEVOLTAGE	IQUANT	0	Compliance Voltage
ZCURVE	TABLE
	Pt	Time	Freq	Zreal	Zimag	Zsig	Zmod	Zphz	Idc	Vdc	IERange
	#	s	Hz	ohm	ohm	V	ohm	°	A	V	#
	0	10	300046.9	2.638711	2.21012	1	3.442009	39.94872	-0.0001422	-0.0004302	11
	1	13	238359.4	2.605164	1.747298	1	3.136866	33.84998	1.383649E-005	-7.019956E-005	11
	2	16	189328.1	2.577089	1.384464	1	2.925428	28.24557	-1.367151E-005	0.0001558	11
	3	19	150421.9	2.566301	1.085711	1	2.786516	22.9315	6.576437E-006	0.0004026	11
	4	21	119484.4	2.580151	0.7325476	1	2.682127	15.85013	-0.0001399	0.0004005	12
	5	25	94921.88	2.543616	0.644896	1	2.624095	14.22672	-3.170237E-005	0.0005494	11
	6	27	75421.88	2.550364	0.4070818	1	2.582648	9.068888	-0.0001192	0.000497	12
	7	31	59859.37	2.542862	0.3361622	1	2.564986	7.530742	-4.418086E-006	0.0006397	11
	8	34	47578.12	2.544622	0.2144935	1	2.553647	4.818235	-1.572616E-005	0.0006629	11
	9	36	37828.12	2.54777	0.104461	1	2.549911	2.347865	-2.388951E-005	0.0006744	11
	10	39	30046.88	2.551976	0.0005269	1	2.551976	0.0118294	1.097467E-005	0.0007064	11
	11	41	23859.38	2.557291	-0.1022737	1	2.559335	-2.290208	1.509464E-005	0.0007169	11
	12	43	18984.38	2.564757	-0.2081581	1	2.573191	-4.640008	-2.990949E-005	0.0007106	11
	13	46	15046.87	2.572334	-0.3250391	1	2.592788	-7.201706	1.836323E-005	0.0007218	11
	14	48	11953.13	2.58301	-0.4561448	1	2.622977	-10.01485	6.177854E-007	0.0007069	11
	15	50	9515.62	2.597305	-0.6066095	1	2.667203	-13.14598	1.376973E-005	0.0007364	11
	16	53	7546.875	2.615456	-0.7886622	1	2.731776	-16.78011	-2.996105E-005	0.0007226	11
	17	55	5928.309	2.638385	-1.018272	1	2.828065	-21.10386	-2.137336E-005	0.0007059	11
	18	57	4733.456	2.667147	-1.278852	1	2.957894	-25.61694	-3.813907E-006	0.0007138	11
	19	60	3796.875	2.703227	-1.58922	1	3.13577	-30.45115	-3.041172E-005	0.0007184	11
	20	62	2987.132	2.751834	-2.003853	1	3.404118	-36.06167	-3.36365E-005	0.0006909	11
	21	64	2390.625	2.810572	-2.478311	1	3.747177	-41.40525	-2.446765E-005	0.0007037	11
	22	66	1884.191	2.896071	-3.102565	1	4.244188	-46.97153	-7.190969E-006	0.0006843	10
	23	69	1516.544	2.991741	-3.80134	1	4.837427	-51.79645	-2.071094E-005	0.0006933	10
	24	71	1193.986	3.125626	-4.745977	1	5.682766	-56.63173	-2.04381E-006	0.0006922	10
	25	74	946.5144	3.292337	-5.883542	1	6.742073	-60.76932	1.24809E-005	0.0006575	10
	26	76	751.7689	3.506225	-7.266925	1	8.06857	-64.24312	6.23669E-006	0.0006896	10
	27	78	597.4265	3.779424	-8.966945	1	9.73089	-67.14536	1.997081E-005	0.0006781	10
	28	81	477.4305	4.112984	-10.99404	1	11.73821	-69.48866	4.277512E-007	0.0006932	10
	29	83	376.6741	4.559008	-13.62841	1	14.37074	-71.50375	3.878106E-007	0.0006867	10
	30	85	298.2954	5.115088	-16.82367	1	17.58408	-73.08857	4.902128E-007	0.0006876	10
	31	87	237.7717	5.795013	-20.62976	1	21.42823	-74.30965	6.590773E-008	0.0007016	10
	32	90	189.0121	6.657668	-25.34029	1	26.20028	-75.27934	4.439271E-007	0.0006896	10
	33	92	150.2404	7.742506	-31.10827	1	32.0573	-76.02368	2.238454E-007	0.000692	10
	34	95	119.1737	9.109763	-38.22689	1	39.29737	-76.59598	8.559856E-008	0.0006924	10
	35	97	95.0169	10.75679	-46.66559	1	47.88931	-77.0196	3.200512E-006	9.344541E-005	9
	36	100	75.60484	12.82428	-57.10448	1	58.52678	-77.34276	3.036004E-006	0.0000953	9
	37	102	54.50582	16.64851	-76.19225	1	77.98994	-77.67422	2.963198E-006	8.967321E-005	9
	38	105	45.95588	19.14155	-88.54979	1	90.59505	-77.80222	3.334573E-006	0.0000972	9
	39	107	37.20238	22.85764	-106.6765	1	109.0979	-77.90607	3.181733E-006	0.000099	9
	40	109	30.04808	27.41493	-128.7827	1	131.6684	-77.98241	3.042813E-006	9.410691E-005	9
	41	112	23.91582	33.41627	-157.4018	1	160.9099	-78.01411	2.94273E-006	9.105595E-005	9
	42	114	18.60119	41.91116	-196.472	1	200.8925	-77.95822	3.256922E-006	8.5767E-005	9
	43	116	15.02404	51.08467	-237.2701	1	242.7071	-77.84959	3.20862E-006	7.831875E-005	9
	44	119	12.01923	63.37352	-289.0812	1	295.9462	-77.635	3.210272E-006	9.184748E-005	9
	45	121	9.450605	80.72803	-357.6485	1	366.6462	-77.28042	3.289418E-006	9.200718E-005	9
	46	124	7.512019	102.703	-436.1815	1	448.1096	-76.7505	2.633333E-006	0.0006813	8
	47	126	5.978954	132.3281	-533.0687	1	549.2476	-76.05879	2.564353E-006	0.0006498	8
	48	129	4.734848	173.9833	-653.8221	1	676.5748	-75.09879	2.636358E-006	0.0006887	8
	49	133	3.75601	232.2012	-797.7767	1	830.8821	-73.77181	2.477573E-006	0.0006596	8
	50	136	3.004808	309.7567	-961.839	1	1010.487	-72.14903	2.59221E-006	0.0006192	8
	51	140	2.372217	423.6706	-1164.957	1	1239.606	-70.01472	2.471957E-006	0.0006022	8
	52	144	1.878005	580.6283	-1392.132	1	1508.364	-67.36003	2.490679E-006	0.0006746	8
	53	149	1.512097	774.1672	-1620.857	1	1796.249	-64.46954	2.453159E-006	0.0005832	8
	54	154	1.201923	1041.929	-1880.209	1	2149.605	-61.00672	2.415435E-006	0.0006953	8
	55	160	0.956633	1379.024	-2130.011	1	2537.45	-57.07994	2.2197E-006	2.500113E-005	8
