EXPLAIN
TAG	EISPOT
TITLE	LABEL	Potentiostatic EIS	Test Identifier
DATE	LABEL	2/27/2021	Date
TIME	LABEL	14:32:52	Time
NOTES	NOTES	1	Notes...
	
PSTAT	PSTAT	REF3000-16137	Potentiostat
VDC	POTEN	0.00000E+000	T	DC Voltage (V)
FREQINIT	QUANT	3.00000E+005	Initial Freq. (Hz)
FREQFINAL	QUANT	1.00000E+000	Final Freq. (Hz)
PTSPERDEC	QUANT	1.00000E+001	Points/decade
VAC	QUANT	5.00000E+001	AC Voltage (mV rms)
AREA	QUANT	1.00000E+000	Sample Area (cm^2)
SPEED	SELECTOR	2	Optimize for:
ZGUESS	QUANT	1.00000E+003	Estimated Z (ohms)
EOC	QUANT	0	Open Circuit (V)
SEQUENCER	TOGGLE	TRUE	Run as Sequence
PSTATMODEL	IQUANT	5	Pstat Model
PSTATSECTION	LABEL	REF3000-16137	Pstat Section
PSTATSERIALNO	LABEL	16137	Pstat Serial Number
CTRLMODE	IQUANT	1	Control Mode
IESTAB	IQUANT	0	I/E Stability
CASPEED	IQUANT	1	Control Amp Speed
CONVENTION	IQUANT	1	Current Convention
ICHRANGE	IQUANT	2	Ich Range
ICHRANGEMODE	TOGGLE	F	Ich Auto Range
ICHOFFSETENABLE	TOGGLE	T	Ich Offset Enable
ICHOFFSET	QUANT	0	Ich Offset (V)
ICHFILTER	IQUANT	3	Ich Filter
VCHRANGE	IQUANT	2	Vch Range
VCHRANGEMODE	TOGGLE	F	Vch Auto Range
VCHOFFSETENABLE	TOGGLE	T	Vch Offset Enable
VCHOFFSET	QUANT	0	Vch Offset (V)
VCHFILTER	IQUANT	3	Vch Filter
ACHRANGE	IQUANT	2	Ach Range
ACHOFFSETENABLE	TOGGLE	F	Ach Offset Enable
ACHOFFSET	QUANT	0	Ach Offset (V)
ACHFILTER	IQUANT	3	Ach Filter
IERANGELOWERLIMIT	IQUANT	2	I/E Range Lower Limit
IERANGEMODE	TOGGLE	F	I/E AutoRange
IERANGE	IQUANT	11	I/E Range
POSFEEDENABLE	TOGGLE	F	Positive Feedback IR Comp
POSFEEDRESISTANCE	QUANT	0	Positive Feedback Resistance (ohm)
ACHSELECT	IQUANT	0	Ach Select
CABLEID	IQUANT	13	Cable ID
DCCALDATE	LABEL	7/31/2020	DC Calibration Date
ACCALDATE	LABEL	7/31/2020	AC Calibration Date
THERMOSELECT	IQUANT	1	Thermo Select
FRAMEWORKVERSION	QUANT	6.33	Framework Version
INSTRUMENTVERSION	LABEL	3.50	Instrument Version
COMPLIANCEVOLTAGE	IQUANT	0	Compliance Voltage
ZCURVE	TABLE
	Pt	Time	Freq	Zreal	Zimag	Zsig	Zmod	Zphz	Idc	Vdc	IERange
	#	s	Hz	ohm	ohm	V	ohm	°	A	V	#
	0	10	300046.9	5.406956	2.219793	1	5.844882	22.3203	-4.26736E-006	9.463701E-005	10
	1	13	238359.4	5.371017	1.755576	1	5.650653	18.10055	2.221514E-006	-7.202515E-005	10
	2	16	189328.1	5.361789	1.385765	1	5.537971	14.49111	-2.452031E-005	0.0001351	10
	3	19	150421.9	5.367039	1.076469	1	5.473928	11.34135	1.459636E-005	0.0003455	10
	4	21	119484.4	5.359485	0.8351183	1	5.424159	8.856642	1.418317E-005	0.0004483	10
	5	24	94921.88	5.364947	0.6520862	1	5.404431	6.930061	1.726295E-005	0.0005114	10
	6	26	75421.88	5.369305	0.4785905	1	5.390592	5.093572	-1.961257E-005	0.0006074	10
	7	29	59859.37	5.375638	0.3278019	1	5.385623	3.489527	4.474151E-006	0.0005765	10
	8	31	47578.12	5.384974	0.1964887	1	5.388558	2.0897	-2.681199E-005	0.0006361	10
	9	34	37828.12	5.395719	0.0772013	1	5.396271	0.8197253	2.13758E-006	0.0006355	10
	10	37	30046.88	5.410422	-0.0352149	1	5.410536	-0.3729165	-2.144486E-005	0.0006867	10
	11	39	23859.38	5.423759	-0.1480071	1	5.425777	-1.563137	1.727195E-005	0.0006586	10
	12	41	18984.38	5.438289	-0.2641916	1	5.444702	-2.781238	2.272696E-005	0.0006703	10
	13	44	15046.87	5.454168	-0.3943464	1	5.468406	-4.135395	-9.93368E-006	0.0006774	10
	14	46	11953.13	5.472191	-0.541485	1	5.498916	-5.651144	5.045739E-007	0.0006812	10
	15	48	9515.62	5.494109	-0.7124336	1	5.540108	-7.388445	1.908506E-005	0.0007162	10
	16	51	7546.875	5.519465	-0.9195659	1	5.595542	-9.458838	-1.5402E-005	0.0007334	10
	17	53	5928.309	5.548975	-1.182645	1	5.673604	-12.03135	-2.118355E-005	0.0007086	10
	18	55	4733.456	5.58358	-1.483511	1	5.777297	-14.87925	-4.888747E-006	0.0006966	10
	19	57	3796.875	5.625402	-1.843585	1	5.919794	-18.14527	-2.827437E-005	0.0006819	10
	20	60	2987.132	5.679963	-2.325553	1	6.137603	-22.26572	-5.85751E-006	0.0006951	10
	21	62	2390.625	5.744504	-2.880329	1	6.426167	-26.62947	-1.38443E-005	0.0006717	10
	22	64	1884.191	5.831739	-3.611057	1	6.859221	-31.76611	-2.550511E-005	0.000702	10
	23	67	1516.544	5.931912	-4.434331	1	7.406137	-36.77952	-2.699559E-005	0.0007033	10
	24	69	1193.986	6.069828	-5.551727	1	8.225842	-42.44739	-2.490099E-005	0.0006945	10
	25	71	946.5144	6.23945	-6.903219	1	9.305116	-47.89126	-2.562468E-005	0.000686	10
	26	74	751.7689	6.463022	-8.557202	1	10.72364	-52.93724	2.234631E-005	0.0006702	10
	27	76	597.4265	6.739673	-10.59164	1	12.55412	-57.53057	2.163932E-005	0.0006768	10
	28	78	477.4305	7.086673	-13.03728	1	14.83886	-61.47283	-2.689191E-006	0.0006845	10
	29	81	376.6741	7.55447	-16.2235	1	17.89614	-65.03096	-2.294293E-006	0.0006879	10
	30	83	298.2954	8.142705	-20.1023	1	21.68885	-67.94894	-2.33949E-006	0.000685	10
	31	85	237.7717	8.868683	-24.73748	1	26.2792	-70.27663	-2.254799E-006	0.0006839	10
	32	88	189.0121	9.79712	-30.49817	1	32.03313	-72.19109	-2.383132E-006	0.0006912	10
	33	90	150.2404	10.96299	-37.56406	1	39.13114	-73.73022	-2.589219E-006	0.0006908	10
	34	93	119.1737	12.42572	-46.26812	1	47.90759	-74.9674	1.497982E-006	8.789603E-005	9
	35	95	95.0169	14.23104	-56.75146	1	58.50855	-75.92274	1.431572E-006	8.516449E-005	9
	36	97	75.60484	16.49954	-69.69396	1	71.62041	-76.68085	1.347547E-006	8.19782E-005	9
	37	100	54.50582	20.74717	-93.41433	1	95.6906	-77.47796	1.330517E-006	8.701688E-005	9
	38	102	45.95588	23.5473	-108.8019	1	111.3209	-77.78819	1.481912E-006	8.871996E-005	9
	39	105	37.20238	27.6926	-131.3268	1	134.2148	-78.09261	1.465175E-006	8.283716E-005	9
	40	107	30.04808	32.79325	-158.822	1	162.1722	-78.33363	1.171937E-006	0.0001212	9
	41	110	23.91582	39.36411	-194.3842	1	198.3299	-78.55203	1.35864E-006	8.722779E-005	9
	42	112	18.60119	48.35606	-242.913	1	247.6793	-78.74146	1.320363E-006	9.018104E-005	9
	43	114	15.02404	57.70401	-293.5664	1	299.1839	-78.8796	1.603488E-006	9.348833E-005	9
	44	116	12.01923	69.65402	-357.7156	1	364.434	-78.9813	1.577422E-006	8.743344E-005	9
	45	119	9.450605	85.07202	-440.8576	1	448.9907	-79.07792	7.937048E-007	0.0006569	8
	46	121	7.512019	103.525	-540.6995	1	550.5209	-79.16105	8.630968E-007	0.0006656	8
	47	124	5.978954	126.1379	-661.9844	1	673.8947	-79.21189	8.695403E-007	0.0006664	8
	48	127	4.734848	155.2439	-814.6933	1	829.3527	-79.21134	8.776107E-007	0.0006949	8
	49	130	3.75601	190.6915	-1001.317	1	1019.313	-79.21767	8.207845E-007	0.0006486	8
	50	134	3.004808	233.6785	-1221.057	1	1243.215	-79.16607	8.641004E-007	0.0006703	8
	51	137	2.372217	293.7416	-1506.558	1	1534.927	-78.96716	8.571577E-007	0.0007023	8
	52	142	1.878005	368.589	-1860.72	1	1896.875	-78.79536	8.04605E-007	0.0006557	8
	53	146	1.512097	455.2971	-2257.162	1	2302.624	-78.59577	8.418426E-007	0.0005844	8
	54	152	1.201923	585.226	-2775.724	1	2836.747	-78.09428	7.877956E-007	0.0006655	8
	55	158	0.956633	752.2537	-3401.049	1	3483.248	-77.52795	7.93216E-007	8.23437E-006	8
