EXPLAIN
TAG	EISPOT
TITLE	LABEL	Potentiostatic EIS	Test Identifier
DATE	LABEL	2/27/2021	Date
TIME	LABEL	14:30:05	Time
NOTES	NOTES	1	Notes...
	
PSTAT	PSTAT	REF3000-16137	Potentiostat
VDC	POTEN	0.00000E+000	T	DC Voltage (V)
FREQINIT	QUANT	3.00000E+005	Initial Freq. (Hz)
FREQFINAL	QUANT	1.00000E+000	Final Freq. (Hz)
PTSPERDEC	QUANT	1.00000E+001	Points/decade
VAC	QUANT	5.00000E+001	AC Voltage (mV rms)
AREA	QUANT	1.00000E+000	Sample Area (cm^2)
SPEED	SELECTOR	2	Optimize for:
ZGUESS	QUANT	1.00000E+003	Estimated Z (ohms)
EOC	QUANT	0	Open Circuit (V)
SEQUENCER	TOGGLE	TRUE	Run as Sequence
PSTATMODEL	IQUANT	5	Pstat Model
PSTATSECTION	LABEL	REF3000-16137	Pstat Section
PSTATSERIALNO	LABEL	16137	Pstat Serial Number
CTRLMODE	IQUANT	1	Control Mode
IESTAB	IQUANT	0	I/E Stability
CASPEED	IQUANT	1	Control Amp Speed
CONVENTION	IQUANT	1	Current Convention
ICHRANGE	IQUANT	2	Ich Range
ICHRANGEMODE	TOGGLE	F	Ich Auto Range
ICHOFFSETENABLE	TOGGLE	T	Ich Offset Enable
ICHOFFSET	QUANT	0	Ich Offset (V)
ICHFILTER	IQUANT	3	Ich Filter
VCHRANGE	IQUANT	2	Vch Range
VCHRANGEMODE	TOGGLE	F	Vch Auto Range
VCHOFFSETENABLE	TOGGLE	T	Vch Offset Enable
VCHOFFSET	QUANT	0	Vch Offset (V)
VCHFILTER	IQUANT	3	Vch Filter
ACHRANGE	IQUANT	2	Ach Range
ACHOFFSETENABLE	TOGGLE	F	Ach Offset Enable
ACHOFFSET	QUANT	0	Ach Offset (V)
ACHFILTER	IQUANT	3	Ach Filter
IERANGELOWERLIMIT	IQUANT	2	I/E Range Lower Limit
IERANGEMODE	TOGGLE	F	I/E AutoRange
IERANGE	IQUANT	11	I/E Range
POSFEEDENABLE	TOGGLE	F	Positive Feedback IR Comp
POSFEEDRESISTANCE	QUANT	0	Positive Feedback Resistance (ohm)
ACHSELECT	IQUANT	0	Ach Select
CABLEID	IQUANT	13	Cable ID
DCCALDATE	LABEL	7/31/2020	DC Calibration Date
ACCALDATE	LABEL	7/31/2020	AC Calibration Date
THERMOSELECT	IQUANT	1	Thermo Select
FRAMEWORKVERSION	QUANT	6.33	Framework Version
INSTRUMENTVERSION	LABEL	3.50	Instrument Version
COMPLIANCEVOLTAGE	IQUANT	0	Compliance Voltage
ZCURVE	TABLE
	Pt	Time	Freq	Zreal	Zimag	Zsig	Zmod	Zphz	Idc	Vdc	IERange
	#	s	Hz	ohm	ohm	V	ohm	°	A	V	#
	0	10	300046.9	4.925757	2.21232	1	5.399764	24.18642	1.87514E-005	9.455322E-005	10
	1	13	238359.4	4.88442	1.756066	1	5.190504	19.77472	5.306511E-005	-0.0002028	10
	2	16	189328.1	4.877503	1.384715	1	5.070254	15.84915	5.684268E-005	0.0000974	10
	3	19	150421.9	4.863373	1.078433	1	4.981507	12.5028	-2.234712E-005	0.0002945	10
	4	21	119484.4	4.868464	0.8378314	1	4.940031	9.76459	2.860174E-005	0.0004523	10
	5	24	94921.88	4.872869	0.654498	1	4.916626	7.649883	1.184618E-005	0.0004908	10
	6	26	75421.88	4.876036	0.4790737	1	4.899514	5.611339	4.334336E-006	0.0005374	10
	7	29	59859.37	4.880991	0.3307159	1	4.892183	3.876202	-2.340096E-005	0.000634	10
	8	31	47578.12	4.889419	0.2004911	1	4.893528	2.348104	1.807814E-005	0.0006417	10
	9	34	37828.12	4.899283	0.0820417	1	4.89997	0.959366	1.896007E-005	0.0006636	10
	10	36	30046.88	4.910621	-0.0303746	1	4.910715	-0.3543974	2.051661E-005	0.0006468	10
	11	39	23859.38	4.92363	-0.1417834	1	4.925671	-1.649463	-1.832519E-005	0.0007343	10
	12	41	18984.38	4.936155	-0.2571651	1	4.942849	-2.982315	1.098889E-005	0.0006466	10
	13	43	15046.87	4.951447	-0.3859814	1	4.966468	-4.457378	2.049823E-005	0.0006736	10
	14	46	11953.13	4.968235	-0.5311046	1	4.996542	-6.101749	7.052462E-006	0.0007089	10
	15	48	9515.62	4.987681	-0.7000689	1	5.036572	-7.989817	2.121614E-005	0.0006769	10
	16	50	7546.875	5.011065	-0.9037872	1	5.091915	-10.22386	-8.340815E-006	0.0006935	10
	17	52	5928.309	5.039756	-1.163855	1	5.172398	-13.00362	-1.748773E-005	0.0006907	10
	18	55	4733.456	5.07345	-1.45973	1	5.279271	-16.05156	-1.711977E-005	0.0006958	10
	19	57	3796.875	5.112761	-1.814673	1	5.425252	-19.54131	-2.034378E-005	0.0006743	10
	20	59	2987.132	5.167201	-2.289239	1	5.6516	-23.89491	-1.791818E-005	0.0006932	10
	21	62	2390.625	5.230575	-2.83441	1	5.949184	-28.45294	-1.604175E-005	0.0007402	10
	22	64	1884.191	5.315994	-3.554966	1	6.395121	-33.77184	-2.639328E-005	0.0007037	10
	23	66	1516.544	5.414026	-4.362247	1	6.952761	-38.85946	-1.217807E-005	0.0006911	10
	24	69	1193.986	5.552757	-5.462522	1	7.789239	-44.53065	-1.190251E-005	0.0006906	10
	25	71	946.5144	5.724678	-6.791355	1	8.882255	-49.87125	-1.095943E-005	0.0007313	10
	26	73	751.7689	5.94142	-8.411601	1	10.29833	-54.76505	2.21068E-005	0.0006826	10
	27	76	597.4265	6.217271	-10.41497	1	12.12955	-59.16468	-6.3592E-006	0.0007053	10
	28	78	477.4305	6.567317	-12.8123	1	14.39738	-62.86127	-2.445272E-006	0.0007036	10
	29	80	376.6741	7.03415	-15.93546	1	17.4189	-66.18262	-2.202265E-006	0.0006951	10
	30	83	298.2954	7.620594	-19.73602	1	21.15618	-68.88712	-2.263947E-006	0.0006985	10
	31	85	237.7717	8.340454	-24.27579	1	25.66861	-71.03877	-5.102224E-006	0.0007325	10
	32	87	189.0121	9.264115	-29.91482	1	31.31646	-72.79313	-2.365065E-006	0.0006993	10
	33	90	150.2404	10.42159	-36.8297	1	38.27579	-74.20024	-2.364161E-006	0.0007	10
	34	92	119.1737	11.87081	-45.34728	1	46.87528	-75.33054	1.498371E-006	0.0000968	9
	35	95	95.0169	13.66017	-55.59993	1	57.2534	-76.19658	1.442672E-006	9.388602E-005	9
	36	97	75.60484	15.9088	-68.25681	1	70.08624	-76.88013	1.407932E-006	9.36339E-005	9
	37	100	54.50582	20.11229	-91.44091	1	93.62662	-77.5954	1.305714E-006	9.092295E-005	9
	38	102	45.95588	22.87838	-106.4649	1	108.8954	-77.87208	1.547686E-006	0.0001008	9
	39	104	37.20238	26.96519	-128.4686	1	131.2681	-78.14587	1.485877E-006	0.0000983	9
	40	107	30.04808	31.94179	-155.2403	1	158.4924	-78.37325	1.424781E-006	9.448419E-005	9
	41	109	23.91582	38.45024	-190.0095	1	193.8609	-78.56013	1.463476E-006	9.125895E-005	9
	42	112	18.60119	47.29927	-237.448	1	242.1132	-78.73424	1.475818E-006	9.107914E-005	9
	43	114	15.02404	56.47738	-286.9029	1	292.4089	-78.86361	1.576108E-006	9.09099E-005	9
	44	116	12.01923	68.19499	-349.5388	1	356.1292	-78.96027	1.561486E-006	0.0000992	9
	45	119	9.450605	83.50297	-430.8908	1	438.9073	-79.03252	9.31985E-007	0.0006775	8
	46	121	7.512019	101.6353	-528.3309	1	538.0179	-79.111	8.969815E-007	0.0006883	8
	47	124	5.978954	124.187	-646.7841	1	658.5985	-79.1311	8.917623E-007	0.0006668	8
	48	127	4.734848	153.2384	-796.1631	1	810.776	-79.10545	9.07712E-007	0.0006588	8
	49	130	3.75601	188.9567	-978.675	1	996.75	-79.07214	9.049995E-007	0.000693	8
	50	133	3.004808	232.4033	-1193.262	1	1215.683	-78.97887	8.938237E-007	0.0006659	8
	51	137	2.372217	294.2803	-1472.996	1	1502.105	-78.702	8.530422E-007	0.0006237	8
	52	141	1.878005	370.8038	-1818.346	1	1855.769	-78.47407	9.033367E-007	0.00067	8
	53	146	1.512097	461.2883	-2203.874	1	2251.632	-78.1782	8.549449E-007	0.0007241	8
	54	151	1.201923	598.6949	-2710.75	1	2776.077	-77.54562	8.978659E-007	0.00068	8
	55	158	0.956633	778.2125	-3318.542	1	3408.568	-76.80237	8.465877E-007	3.38408E-005	8
