EXPLAIN
TAG	EISPOT
TITLE	LABEL	Potentiostatic EIS	Test Identifier
DATE	LABEL	2/27/2021	Date
TIME	LABEL	14:57:47	Time
NOTES	NOTES	1	Notes...
	
PSTAT	PSTAT	REF3000-16137	Potentiostat
VDC	POTEN	0.00000E+000	T	DC Voltage (V)
FREQINIT	QUANT	3.00000E+005	Initial Freq. (Hz)
FREQFINAL	QUANT	1.00000E+000	Final Freq. (Hz)
PTSPERDEC	QUANT	1.00000E+001	Points/decade
VAC	QUANT	5.00000E+001	AC Voltage (mV rms)
AREA	QUANT	1.00000E+000	Sample Area (cm^2)
SPEED	SELECTOR	2	Optimize for:
ZGUESS	QUANT	1.00000E+003	Estimated Z (ohms)
EOC	QUANT	0	Open Circuit (V)
SEQUENCER	TOGGLE	TRUE	Run as Sequence
PSTATMODEL	IQUANT	5	Pstat Model
PSTATSECTION	LABEL	REF3000-16137	Pstat Section
PSTATSERIALNO	LABEL	16137	Pstat Serial Number
CTRLMODE	IQUANT	1	Control Mode
IESTAB	IQUANT	0	I/E Stability
CASPEED	IQUANT	1	Control Amp Speed
CONVENTION	IQUANT	1	Current Convention
ICHRANGE	IQUANT	2	Ich Range
ICHRANGEMODE	TOGGLE	F	Ich Auto Range
ICHOFFSETENABLE	TOGGLE	T	Ich Offset Enable
ICHOFFSET	QUANT	0	Ich Offset (V)
ICHFILTER	IQUANT	3	Ich Filter
VCHRANGE	IQUANT	2	Vch Range
VCHRANGEMODE	TOGGLE	F	Vch Auto Range
VCHOFFSETENABLE	TOGGLE	T	Vch Offset Enable
VCHOFFSET	QUANT	0	Vch Offset (V)
VCHFILTER	IQUANT	3	Vch Filter
ACHRANGE	IQUANT	2	Ach Range
ACHOFFSETENABLE	TOGGLE	F	Ach Offset Enable
ACHOFFSET	QUANT	0	Ach Offset (V)
ACHFILTER	IQUANT	3	Ach Filter
IERANGELOWERLIMIT	IQUANT	2	I/E Range Lower Limit
IERANGEMODE	TOGGLE	F	I/E AutoRange
IERANGE	IQUANT	11	I/E Range
POSFEEDENABLE	TOGGLE	F	Positive Feedback IR Comp
POSFEEDRESISTANCE	QUANT	0	Positive Feedback Resistance (ohm)
ACHSELECT	IQUANT	0	Ach Select
CABLEID	IQUANT	13	Cable ID
DCCALDATE	LABEL	7/31/2020	DC Calibration Date
ACCALDATE	LABEL	7/31/2020	AC Calibration Date
THERMOSELECT	IQUANT	1	Thermo Select
FRAMEWORKVERSION	QUANT	6.33	Framework Version
INSTRUMENTVERSION	LABEL	3.50	Instrument Version
COMPLIANCEVOLTAGE	IQUANT	0	Compliance Voltage
ZCURVE	TABLE
	Pt	Time	Freq	Zreal	Zimag	Zsig	Zmod	Zphz	Idc	Vdc	IERange
	#	s	Hz	ohm	ohm	V	ohm	°	A	V	#
	0	8	300046.9	19.46499	1.958155	1	19.56324	5.744561	-3.54538E-005	0.0002388	10
	1	11	238359.4	19.48358	1.532844	1	19.54379	4.498401	3.396672E-005	0.0003834	10
	2	14	189328.1	19.54499	1.204551	1	19.58207	3.52666	7.224383E-005	0.0002525	10
	3	17	150421.9	19.59163	0.9494681	1	19.61462	2.774552	1.444032E-005	0.0005219	10
	4	19	119484.4	19.65625	0.7140104	1	19.66922	2.080346	2.30661E-005	0.0006173	10
	5	22	94921.88	19.71122	0.5430052	1	19.7187	1.577986	-2.96666E-005	0.0006519	10
	6	26	75421.88	19.80106	0.3752591	1	19.80462	1.085709	-2.486037E-005	0.0006954	10
	7	28	59859.37	19.86817	0.2340973	1	19.86955	0.6750579	-2.173911E-005	0.0006678	10
	8	31	47578.12	19.93264	0.1099997	1	19.93294	0.3161878	2.109958E-005	0.0006351	10
	9	33	37828.12	20.00167	-0.0059869	1	20.00167	-0.0171498	-2.626335E-005	0.000659	10
	10	36	30046.88	20.07089	-0.1214852	1	20.07126	-0.3467959	-1.778825E-005	0.0006562	10
	11	38	23859.38	20.14098	-0.243233	1	20.14245	-0.6919002	-3.286711E-005	0.00068	10
	12	40	18984.38	20.20716	-0.3683661	1	20.21051	-1.044357	1.757801E-005	0.0006258	10
	13	43	15046.87	20.2781	-0.5114827	1	20.28455	-1.444888	1.651795E-005	0.0007238	10
	14	45	11953.13	20.34949	-0.6823013	1	20.36092	-1.92036	2.537348E-005	0.0006908	10
	15	47	9515.62	20.42537	-0.8752336	1	20.44411	-2.453641	-1.805113E-005	0.0006915	10
	16	50	7546.875	20.50655	-1.118794	1	20.53705	-3.122839	2.054418E-005	0.0006539	10
	17	52	5928.309	20.59485	-1.42313	1	20.64396	-3.952925	5.503221E-006	0.0006376	10
	18	54	4733.456	20.68659	-1.773541	1	20.76248	-4.900206	1.307057E-005	0.0006368	10
	19	57	3796.875	20.78558	-2.203703	1	20.90208	-6.051934	-2.879007E-005	0.0006801	10
	20	59	2987.132	20.89676	-2.768011	1	21.07928	-7.545545	1.356116E-005	0.0006347	10
	21	61	2390.625	21.01692	-3.427896	1	21.29463	-9.263474	-2.539072E-006	0.0006487	10
	22	63	1884.191	21.15337	-4.300344	1	21.58606	-11.49127	2.333853E-005	0.0006798	10
	23	66	1516.544	21.3167	-5.27487	1	21.95964	-13.89879	-2.556141E-005	0.0006874	10
	24	68	1193.986	21.51413	-6.618135	1	22.50905	-17.09885	-2.196465E-005	0.0007232	10
	25	71	946.5144	21.74616	-8.239133	1	23.25465	-20.75058	1.907637E-005	0.000655	10
	26	73	751.7689	22.01552	-10.23358	1	24.27775	-24.93065	2.310938E-005	0.0006804	10
	27	75	597.4265	22.35057	-12.69885	1	25.7062	-29.60378	4.886687E-006	0.0007019	10
	28	77	477.4305	22.76244	-15.66389	1	27.63125	-34.53366	-1.893238E-006	0.0006933	10
	29	80	376.6741	23.2884	-19.54685	1	30.40442	-40.00804	-2.21901E-006	0.0006889	10
	30	82	298.2954	23.9368	-24.29169	1	34.10362	-45.4216	-2.879115E-006	0.0006903	10
	31	84	237.7717	24.72855	-29.99118	1	38.87122	-50.49348	-2.303332E-006	0.0006865	10
	32	87	189.0121	25.69706	-37.05895	1	45.09662	-55.26216	1.294E-006	9.286639E-005	9
	33	89	150.2404	26.95172	-45.82767	1	53.1655	-59.53978	1.106452E-006	0.0001219	9
	34	92	119.1737	28.54985	-56.74704	1	63.52418	-63.29269	1.341651E-006	8.965355E-005	9
	35	94	95.0169	30.5184	-69.8964	1	76.26847	-66.4128	1.346418E-006	8.367987E-005	9
	36	97	75.60484	33.02015	-86.20267	1	92.31051	-69.04053	1.273176E-006	8.345468E-005	9
	37	99	54.50582	37.73751	-116.2248	1	122.1979	-72.0117	1.205043E-006	8.602107E-005	9
	38	102	45.95588	40.90283	-135.7843	1	141.8112	-73.23592	1.342391E-006	8.589991E-005	9
	39	104	37.20238	45.60846	-164.4837	1	170.6898	-74.50224	1.356199E-006	9.344251E-005	9
	40	106	30.04808	51.46465	-199.5944	1	206.1226	-75.54144	1.33351E-006	9.324699E-005	9
	41	109	23.91582	59.2057	-245.3497	1	252.3921	-76.43324	1.248962E-006	8.935279E-005	9
	42	111	18.60119	69.84991	-307.6567	1	315.4864	-77.2085	1.463941E-006	0.0000967	9
	43	113	15.02404	81.22788	-372.8514	1	381.5969	-77.70981	1.308095E-006	8.790226E-005	9
	44	116	12.01923	95.3978	-453.6051	1	463.5281	-78.1232	4.785768E-007	0.0006632	8
	45	118	9.450605	114.7373	-562.4539	1	574.0375	-78.47019	5.329254E-007	0.0006834	8
	46	121	7.512019	138.0038	-690.3698	1	704.0281	-78.69566	5.106909E-007	0.0006598	8
	47	123	5.978954	165.9845	-846.0795	1	862.2072	-78.90063	5.588097E-007	0.0006681	8
	48	126	4.734848	200.9158	-1041.521	1	1060.723	-79.08141	5.340087E-007	0.0006455	8
	49	129	3.75601	244.1275	-1279.623	1	1302.702	-79.19886	6.154827E-007	0.0006796	8
	50	133	3.004808	294.315	-1559.964	1	1587.485	-79.31572	5.548453E-007	0.0006972	8
	51	137	2.372217	358.6805	-1923.601	1	1956.756	-79.43775	5.592006E-007	0.0007155	8
	52	141	1.878005	440.7788	-2369.893	1	2410.535	-79.46389	5.923622E-007	0.0006422	8
	53	146	1.512097	532.4573	-2874.151	1	2923.056	-79.50453	5.925015E-007	0.0007678	8
	54	151	1.201923	646.3259	-3530.928	1	3589.595	-79.62701	5.933066E-007	0.0006363	8
	55	157	0.956633	787.3983	-4339.742	1	4410.596	-79.71619	5.979764E-008	-3.63592E-006	7
