May 16, 2026   20:34:44
A.C. Impedance
File: e:\chi_data\bo-r0.20-n1.10-746i-2_t-54.0_f0.1_1000000_v0.txt
Data Source:  Experiment
Instrument Model:  CHI660E
Header: 
Note: 

Init E (V) = 0
High Frequency (Hz) = 1e+6
Low Frequency (Hz) = 0.1
Imp SF
Amplitude (V) = 0.005
Quiet Time (sec) = 2
Cycles (.1-1Hz) = 1

Freq/Hz, Z'/ohm, Z"/ohm, Z/ohm, Phase/deg

8.252e+5, 8.402e+0, 1.140e+1, 1.416e+1, 53.6
6.816e+5, 7.892e+0, 9.101e+0, 1.205e+1, 49.1
5.625e+5, 7.401e+0, 7.494e+0, 1.053e+1, 45.4
4.639e+5, 7.208e+0, 6.061e+0, 9.418e+0, 40.1
3.828e+5, 7.077e+0, 4.988e+0, 8.658e+0, 35.2
3.164e+5, 7.010e+0, 4.038e+0, 8.090e+0, 29.9
2.607e+5, 6.945e+0, 3.244e+0, 7.665e+0, 25.0
2.158e+5, 6.901e+0, 2.536e+0, 7.352e+0, 20.2
1.777e+5, 6.883e+0, 1.895e+0, 7.139e+0, 15.4
1.465e+5, 6.878e+0, 1.325e+0, 7.005e+0, 10.9
1.211e+5, 6.869e+0, 8.390e-1, 6.920e+0, 7.0
9.961e+4, 6.884e+0, 3.944e-1, 6.895e+0, 3.3
8.252e+4, 6.919e+0, -1.627e-2, 6.919e+0, -0.1
6.812e+4, 6.968e+0, -4.237e-1, 6.981e+0, -3.5
5.625e+4, 7.023e+0, -8.434e-1, 7.074e+0, -6.8
4.644e+4, 7.100e+0, -1.287e+0, 7.216e+0, -10.3
3.833e+4, 7.203e+0, -1.753e+0, 7.413e+0, -13.7
3.164e+4, 7.326e+0, -2.249e+0, 7.663e+0, -17.1
2.612e+4, 7.468e+0, -2.788e+0, 7.971e+0, -20.5
2.153e+4, 7.625e+0, -3.394e+0, 8.346e+0, -24.0
1.777e+4, 7.811e+0, -4.083e+0, 8.814e+0, -27.6
1.470e+4, 8.032e+0, -4.872e+0, 9.394e+0, -31.2
1.211e+4, 8.279e+0, -5.784e+0, 1.010e+1, -34.9
1.001e+4, 8.554e+0, -6.845e+0, 1.096e+1, -38.7
8.252e+3, 8.871e+0, -8.074e+0, 1.199e+1, -42.3
6.812e+3, 9.238e+0, -9.501e+0, 1.325e+1, -45.8
5.625e+3, 9.656e+0, -1.117e+1, 1.477e+1, -49.2
4.643e+3, 1.013e+1, -1.313e+1, 1.658e+1, -52.3
3.833e+3, 1.067e+1, -1.543e+1, 1.876e+1, -55.3
3.164e+3, 1.128e+1, -1.815e+1, 2.137e+1, -58.1
2.612e+3, 1.199e+1, -2.135e+1, 2.449e+1, -60.7
2.153e+3, 1.283e+1, -2.516e+1, 2.824e+1, -63.0
1.777e+3, 1.383e+1, -2.966e+1, 3.273e+1, -65.0
1.470e+3, 1.499e+1, -3.503e+1, 3.810e+1, -66.8
1.211e+3, 1.634e+1, -4.139e+1, 4.450e+1, -68.5
1.001e+3, 1.797e+1, -4.892e+1, 5.212e+1, -69.8
8.252e+2, 1.993e+1, -5.778e+1, 6.112e+1, -71.0
6.836e+2, 2.226e+1, -6.833e+1, 7.187e+1, -72.0
5.615e+2, 2.506e+1, -8.094e+1, 8.473e+1, -72.8
4.639e+2, 2.845e+1, -9.594e+1, 1.001e+2, -73.5
3.809e+2, 3.255e+1, -1.134e+2, 1.180e+2, -74.0
3.174e+2, 3.760e+1, -1.342e+2, 1.394e+2, -74.3
2.588e+2, 4.383e+1, -1.587e+2, 1.646e+2, -74.6
2.148e+2, 5.158e+1, -1.875e+2, 1.944e+2, -74.6
1.758e+2, 6.118e+1, -2.212e+2, 2.295e+2, -74.5
1.465e+2, 7.269e+1, -2.597e+2, 2.697e+2, -74.4
1.221e+2, 8.787e+1, -3.065e+2, 3.189e+2, -74.0
9.766e+1, 1.075e+2, -3.602e+2, 3.759e+2, -73.4
8.254e+1, 1.310e+2, -4.202e+2, 4.401e+2, -72.7
6.813e+1, 1.590e+2, -4.904e+2, 5.155e+2, -72.0
5.623e+1, 1.925e+2, -5.713e+2, 6.029e+2, -71.4
4.642e+1, 2.332e+2, -6.647e+2, 7.044e+2, -70.7
3.831e+1, 2.827e+2, -7.718e+2, 8.220e+2, -69.9
3.162e+1, 3.428e+2, -8.934e+2, 9.569e+2, -69.0
2.610e+1, 4.144e+2, -1.031e+3, 1.111e+3, -68.1
2.154e+1, 4.992e+2, -1.187e+3, 1.287e+3, -67.2
1.778e+1, 5.996e+2, -1.361e+3, 1.487e+3, -66.2
1.468e+1, 7.181e+2, -1.557e+3, 1.715e+3, -65.2
1.212e+1, 8.587e+2, -1.776e+3, 1.973e+3, -64.2
1.000e+1, 1.024e+3, -2.020e+3, 2.264e+3, -63.1
8.254e+0, 1.216e+3, -2.292e+3, 2.595e+3, -62.1
6.813e+0, 1.436e+3, -2.597e+3, 2.967e+3, -61.1
5.623e+0, 1.690e+3, -2.935e+3, 3.387e+3, -60.1
4.642e+0, 1.984e+3, -3.311e+3, 3.860e+3, -59.1
3.831e+0, 2.323e+3, -3.718e+3, 4.384e+3, -58.0
3.162e+0, 2.712e+3, -4.166e+3, 4.971e+3, -56.9
2.610e+0, 3.155e+3, -4.649e+3, 5.618e+3, -55.8
2.154e+0, 3.657e+3, -5.211e+3, 6.366e+3, -54.9
1.778e+0, 4.214e+3, -5.840e+3, 7.201e+3, -54.2
1.468e+0, 4.815e+3, -6.481e+3, 8.074e+3, -53.4
1.212e+0, 5.451e+3, -7.138e+3, 8.981e+3, -52.6
1.000e+0, 6.104e+3, -7.813e+3, 9.915e+3, -52.0
8.254e-1, 6.750e+3, -8.530e+3, 1.088e+4, -51.6
6.813e-1, 7.372e+3, -9.329e+3, 1.189e+4, -51.7
5.623e-1, 7.979e+3, -1.027e+4, 1.301e+4, -52.2
4.642e-1, 8.580e+3, -1.139e+4, 1.426e+4, -53.0
3.831e-1, 9.180e+3, -1.275e+4, 1.571e+4, -54.2
3.162e-1, 9.784e+3, -1.436e+4, 1.738e+4, -55.7
2.610e-1, 1.041e+4, -1.630e+4, 1.933e+4, -57.4
2.154e-1, 1.108e+4, -1.868e+4, 2.172e+4, -59.3
1.778e-1, 1.179e+4, -2.148e+4, 2.450e+4, -61.3
1.468e-1, 1.254e+4, -2.469e+4, 2.769e+4, -63.1
1.212e-1, 1.344e+4, -2.854e+4, 3.155e+4, -64.8
1.000e-1, 1.452e+4, -3.305e+4, 3.610e+4, -66.3
