EXPLAIN
TAG	EISPOT
TITLE	LABEL	Potentiostatic EIS	Test Identifier
DATE	LABEL	9/12/2020	Date
TIME	LABEL	14:36:29	Time
NOTES	NOTES	1	Notes...
	
PSTAT	PSTAT	REF3000-16137	Potentiostat
VDC	POTEN	0.00000E+000	T	DC Voltage (V)
FREQINIT	QUANT	3.00000E+005	Initial Freq. (Hz)
FREQFINAL	QUANT	1.00000E+000	Final Freq. (Hz)
PTSPERDEC	QUANT	1.00000E+001	Points/decade
VAC	QUANT	5.00000E+001	AC Voltage (mV rms)
AREA	QUANT	1.00000E+000	Sample Area (cm^2)
SPEED	SELECTOR	2	Optimize for:
ZGUESS	QUANT	1.00000E+003	Estimated Z (ohms)
EOC	QUANT	0	Open Circuit (V)
SEQUENCER	TOGGLE	TRUE	Run as Sequence
PSTATMODEL	IQUANT	5	Pstat Model
PSTATSECTION	LABEL	REF3000-16137	Pstat Section
PSTATSERIALNO	LABEL	16137	Pstat Serial Number
CTRLMODE	IQUANT	1	Control Mode
IESTAB	IQUANT	0	I/E Stability
CASPEED	IQUANT	1	Control Amp Speed
CONVENTION	IQUANT	1	Current Convention
ICHRANGE	IQUANT	2	Ich Range
ICHRANGEMODE	TOGGLE	F	Ich Auto Range
ICHOFFSETENABLE	TOGGLE	T	Ich Offset Enable
ICHOFFSET	QUANT	0	Ich Offset (V)
ICHFILTER	IQUANT	3	Ich Filter
VCHRANGE	IQUANT	2	Vch Range
VCHRANGEMODE	TOGGLE	F	Vch Auto Range
VCHOFFSETENABLE	TOGGLE	T	Vch Offset Enable
VCHOFFSET	QUANT	0	Vch Offset (V)
VCHFILTER	IQUANT	3	Vch Filter
ACHRANGE	IQUANT	2	Ach Range
ACHOFFSETENABLE	TOGGLE	F	Ach Offset Enable
ACHOFFSET	QUANT	0	Ach Offset (V)
ACHFILTER	IQUANT	3	Ach Filter
IERANGELOWERLIMIT	IQUANT	2	I/E Range Lower Limit
IERANGEMODE	TOGGLE	F	I/E AutoRange
IERANGE	IQUANT	11	I/E Range
POSFEEDENABLE	TOGGLE	F	Positive Feedback IR Comp
POSFEEDRESISTANCE	QUANT	0	Positive Feedback Resistance (ohm)
ACHSELECT	IQUANT	0	Ach Select
CABLEID	IQUANT	13	Cable ID
DCCALDATE	LABEL	7/31/2020	DC Calibration Date
ACCALDATE	LABEL	7/31/2020	AC Calibration Date
THERMOSELECT	IQUANT	1	Thermo Select
FRAMEWORKVERSION	QUANT	6.33	Framework Version
INSTRUMENTVERSION	LABEL	3.50	Instrument Version
COMPLIANCEVOLTAGE	IQUANT	0	Compliance Voltage
ZCURVE	TABLE
	Pt	Time	Freq	Zreal	Zimag	Zsig	Zmod	Zphz	Idc	Vdc	IERange
	#	s	Hz	ohm	ohm	V	ohm	°	A	V	#
	0	7	300046.9	51.30134	2.27347	1	51.35169	2.537459	-6.759094E-005	0.0018206	9
	1	10	238359.4	51.6216	1.688941	1	51.64922	1.873919	-6.182944E-005	0.0017416	9
	2	13	189328.1	51.85336	1.383598	1	51.87181	1.528455	6.121609E-005	-0.002335	9
	3	16	150421.9	52.18006	0.8998132	1	52.18782	0.987933	4.710768E-007	0.0006186	9
	4	18	119484.4	52.44678	0.733822	1	52.45192	0.8016157	3.741061E-005	-0.0004025	9
	5	21	94921.88	52.77009	0.7334113	1	52.77519	0.796259	-1.328871E-005	0.0005422	9
	6	23	75421.88	52.99017	0.5211274	1	52.99273	0.5634524	1.6661E-005	-0.0001783	9
	7	26	59859.37	53.24121	0.3159088	1	53.24215	0.3399628	-1.673335E-005	0.0004571	9
	8	28	47578.12	53.50498	0.1435865	1	53.50518	0.1537592	1.047586E-005	7.512557E-005	9
	9	31	37828.12	53.78422	-0.0266706	1	53.78423	-0.0284119	-1.597403E-005	0.0003464	9
	10	33	30046.88	54.05862	-0.1490717	1	54.05883	-0.157998	-1.34974E-005	0.000697	9
	11	36	23859.38	54.33684	-0.2956307	1	54.33764	-0.3117263	-1.426291E-005	0.0006367	9
	12	38	18984.38	54.58701	-0.4224362	1	54.58865	-0.4433899	-3.676653E-006	0.0005618	9
	13	40	15046.87	54.87278	-0.5793475	1	54.87584	-0.6049071	9.847558E-006	-0.0004962	9
	14	43	11953.13	55.12462	-0.7451068	1	55.12965	-0.7744067	1.018816E-005	-0.0005084	9
	15	45	9515.62	55.3952	-0.979769	1	55.40386	-1.013279	-2.63361E-006	-0.0001744	9
	16	47	7546.875	55.66104	-1.229927	1	55.67463	-1.265843	-5.004905E-006	0.0005253	9
	17	49	5928.309	55.97019	-1.544539	1	55.9915	-1.580718	-1.687691E-005	0.0005491	9
	18	52	4733.456	56.24519	-1.899879	1	56.27727	-1.934631	2.920307E-006	0.0003579	9
	19	54	3796.875	56.57904	-2.370445	1	56.62867	-2.399071	-2.377071E-006	0.0005183	9
	20	56	2987.132	56.88371	-2.981594	1	56.9618	-3.000448	2.106743E-005	-0.000513	9
	21	59	2390.625	57.2179	-3.670809	1	57.33553	-3.670775	1.902517E-005	-0.0005688	9
	22	61	1884.191	57.54879	-4.598833	1	57.73225	-4.568905	-1.341227E-005	0.0002051	9
	23	63	1516.544	57.9365	-5.640295	1	58.21041	-5.560396	-1.449671E-005	0.0003603	9
	24	66	1193.986	58.38229	-7.023456	1	58.80324	-6.859782	2.070381E-005	-0.0004054	9
	25	68	946.5144	58.84286	-8.751287	1	59.49006	-8.459197	1.076264E-005	-0.0005093	9
	26	70	751.7689	59.31801	-10.84261	1	60.30082	-10.35861	-1.663882E-005	0.000446	9
	27	73	597.4265	59.89525	-13.44599	1	61.38596	-12.65266	1.669161E-005	-0.0001263	9
	28	75	477.4305	60.55045	-16.55713	1	62.77336	-15.29331	1.358465E-006	5.531167E-005	9
	29	77	376.6741	61.32021	-20.64554	1	64.70245	-18.60756	1.35543E-006	5.314979E-005	9
	30	80	298.2954	62.22185	-25.64736	1	67.30041	-22.40107	1.384504E-006	5.664856E-005	9
	31	82	237.7717	63.2871	-31.65305	1	70.76138	-26.57193	1.393683E-006	5.446685E-005	9
	32	84	189.0121	64.57706	-39.1412	1	75.51311	-31.22073	1.308742E-006	5.832594E-005	9
	33	87	150.2404	66.13859	-48.36861	1	81.938	-36.17883	9.439607E-007	0.0001077	9
	34	89	119.1737	68.05623	-59.85965	1	90.63569	-41.33362	1.325146E-006	5.590404E-005	9
	35	92	95.0169	70.36115	-73.67516	1	101.876	-46.31804	1.307919E-006	5.299944E-005	9
	36	94	75.60484	73.22131	-90.80322	1	116.6473	-51.11821	1.300597E-006	5.390766E-005	9
	37	97	54.50582	78.34138	-122.3474	1	145.2799	-57.36778	1.34829E-006	5.628511E-005	9
	38	99	45.95588	81.82304	-142.9317	1	164.6951	-60.21047	1.28185E-006	5.948602E-005	9
	39	101	37.20238	86.87055	-173.2065	1	193.7704	-63.36425	1.397115E-006	4.993748E-005	9
	40	104	30.04808	93.04803	-210.2944	1	229.9601	-66.13226	1.326157E-006	4.669839E-005	9
	41	106	23.91582	101.2063	-258.6997	1	277.7917	-68.634	9.416426E-007	0.0001153	9
	42	109	18.60119	112.4868	-324.9988	1	343.915	-70.90852	1.337272E-006	5.928292E-005	9
	43	111	15.02404	124.4914	-394.4321	1	413.6119	-72.48316	1.476231E-006	6.292849E-005	9
	44	113	12.01923	139.7337	-480.7075	1	500.6048	-73.79173	3.228735E-007	0.0006273	8
	45	116	9.450605	161.4217	-597.4416	1	618.8646	-74.88037	2.764908E-007	0.000631	8
	46	118	7.512019	187.5062	-734.751	1	758.2992	-75.68385	3.173408E-007	0.0006198	8
	47	121	5.978954	221.4158	-901.7599	1	928.545	-76.20466	3.914327E-007	0.000642	8
	48	124	4.734848	265.244	-1111.59	1	1142.797	-76.57922	3.084281E-007	0.0006179	8
	49	127	3.75601	321.9391	-1365.498	1	1402.936	-76.73383	4.065295E-007	0.0006517	8
	50	131	3.004808	391.8736	-1662.178	1	1707.747	-76.73424	3.226074E-007	0.0006706	8
	51	134	2.372217	485.7555	-2042.77	1	2099.731	-76.62392	3.209714E-007	0.00073	8
	52	138	1.878005	608.8784	-2502.296	1	2575.31	-76.32412	3.648545E-007	0.000611	8
	53	143	1.512097	750.2448	-3012.117	1	3104.145	-76.01362	3.640172E-007	0.0007301	8
	54	149	1.201923	930.5323	-3663.939	1	3780.257	-75.74985	3.722528E-007	0.0006115	8
	55	155	0.956633	1150.7	-4449.75	1	4596.127	-75.50101	9.008224E-009	1.698178E-005	7
