EXPLAIN
TAG	EISPOT
TITLE	LABEL	Potentiostatic EIS	Test Identifier
DATE	LABEL	9/12/2020	Date
TIME	LABEL	13:12:15	Time
NOTES	NOTES	1	Notes...
	
PSTAT	PSTAT	REF3000-16137	Potentiostat
VDC	POTEN	0.00000E+000	T	DC Voltage (V)
FREQINIT	QUANT	3.00000E+005	Initial Freq. (Hz)
FREQFINAL	QUANT	1.00000E+000	Final Freq. (Hz)
PTSPERDEC	QUANT	1.00000E+001	Points/decade
VAC	QUANT	5.00000E+001	AC Voltage (mV rms)
AREA	QUANT	1.00000E+000	Sample Area (cm^2)
SPEED	SELECTOR	2	Optimize for:
ZGUESS	QUANT	1.00000E+003	Estimated Z (ohms)
EOC	QUANT	0	Open Circuit (V)
SEQUENCER	TOGGLE	TRUE	Run as Sequence
PSTATMODEL	IQUANT	5	Pstat Model
PSTATSECTION	LABEL	REF3000-16137	Pstat Section
PSTATSERIALNO	LABEL	16137	Pstat Serial Number
CTRLMODE	IQUANT	1	Control Mode
IESTAB	IQUANT	0	I/E Stability
CASPEED	IQUANT	1	Control Amp Speed
CONVENTION	IQUANT	1	Current Convention
ICHRANGE	IQUANT	2	Ich Range
ICHRANGEMODE	TOGGLE	F	Ich Auto Range
ICHOFFSETENABLE	TOGGLE	T	Ich Offset Enable
ICHOFFSET	QUANT	0	Ich Offset (V)
ICHFILTER	IQUANT	3	Ich Filter
VCHRANGE	IQUANT	2	Vch Range
VCHRANGEMODE	TOGGLE	F	Vch Auto Range
VCHOFFSETENABLE	TOGGLE	T	Vch Offset Enable
VCHOFFSET	QUANT	0	Vch Offset (V)
VCHFILTER	IQUANT	3	Vch Filter
ACHRANGE	IQUANT	2	Ach Range
ACHOFFSETENABLE	TOGGLE	F	Ach Offset Enable
ACHOFFSET	QUANT	0	Ach Offset (V)
ACHFILTER	IQUANT	3	Ach Filter
IERANGELOWERLIMIT	IQUANT	2	I/E Range Lower Limit
IERANGEMODE	TOGGLE	F	I/E AutoRange
IERANGE	IQUANT	11	I/E Range
POSFEEDENABLE	TOGGLE	F	Positive Feedback IR Comp
POSFEEDRESISTANCE	QUANT	0	Positive Feedback Resistance (ohm)
ACHSELECT	IQUANT	0	Ach Select
CABLEID	IQUANT	13	Cable ID
DCCALDATE	LABEL	7/31/2020	DC Calibration Date
ACCALDATE	LABEL	7/31/2020	AC Calibration Date
THERMOSELECT	IQUANT	1	Thermo Select
FRAMEWORKVERSION	QUANT	6.33	Framework Version
INSTRUMENTVERSION	LABEL	3.50	Instrument Version
COMPLIANCEVOLTAGE	IQUANT	0	Compliance Voltage
ZCURVE	TABLE
	Pt	Time	Freq	Zreal	Zimag	Zsig	Zmod	Zphz	Idc	Vdc	IERange
	#	s	Hz	ohm	ohm	V	ohm	°	A	V	#
	0	10	300046.9	1.915836	2.24464	1	2.951074	49.51871	4.592894E-005	-0.0002065	11
	1	13	238359.4	2.009547	1.623984	1	2.583719	38.94285	-0.0002226	-0.0003228	12
	2	17	189328.1	1.923825	1.291938	1	2.317371	33.8832	-0.0001571	-2.695113E-005	12
	3	21	150421.9	1.822547	1.111295	1	2.134632	31.37267	3.211707E-005	0.000327	11
	4	23	119484.4	1.807887	0.871003	1	2.006764	25.72382	-4.214336E-005	0.0002768	11
	5	26	94921.88	1.800971	0.671666	1	1.922142	20.45283	-1.899563E-005	0.0004096	11
	6	28	75421.88	1.79771	0.5030566	1	1.86677	15.63331	2.423528E-005	0.000484	11
	7	31	59859.37	1.795944	0.3626587	1	1.832194	11.41634	4.791545E-006	0.0005143	11
	8	33	47578.12	1.796666	0.2434478	1	1.813084	7.716568	-5.048911E-005	0.0005424	11
	9	36	37828.12	1.799215	0.1372114	1	1.804439	4.36104	1.325952E-005	0.0006322	11
	10	38	30046.88	1.802436	0.0387359	1	1.802852	1.231146	-5.321971E-005	0.0006043	11
	11	41	23859.38	1.807293	-0.0567128	1	1.808183	-1.797349	3.3776E-006	0.0006499	11
	12	43	18984.38	1.814541	-0.1524003	1	1.82093	-4.80091	1.990725E-005	0.000688	11
	13	46	15046.87	1.82343	-0.2557789	1	1.841282	-7.984976	2.248517E-005	0.0006946	11
	14	48	11953.13	1.834565	-0.3691203	1	1.871331	-11.3762	-9.894969E-006	0.0006629	11
	15	50	9515.62	1.849285	-0.4970871	1	1.914928	-15.04545	-2.951058E-005	0.0006822	11
	16	52	7546.875	1.867098	-0.6494292	1	1.976819	-19.17911	2.112574E-005	0.0007046	11
	17	55	5928.309	1.891498	-0.8386313	1	2.069074	-23.91101	-1.480108E-005	0.0006676	11
	18	57	4733.456	1.920306	-1.051918	1	2.189544	-28.71334	-1.883245E-005	0.0006647	11
	19	59	3796.875	1.955868	-1.30323	1	2.350282	-33.67623	-2.050427E-005	0.0006794	11
	20	62	2987.132	2.003362	-1.637954	1	2.587731	-39.26952	-2.862081E-005	0.0006757	11
	21	64	2390.625	2.059619	-2.01928	1	2.884358	-44.43338	1.105991E-005	0.0006912	11
	22	66	1884.191	2.135949	-2.517517	1	3.30154	-49.68757	1.858975E-005	0.000693	11
	23	69	1516.544	2.223724	-3.075282	1	3.795037	-54.12946	-1.816979E-005	0.0006714	11
	24	71	1193.986	2.351178	-3.831516	1	4.495392	-58.46499	-5.656268E-007	0.0006239	10
	25	74	946.5144	2.508291	-4.73678	1	5.359908	-62.09721	-2.133975E-005	0.0006687	10
	26	76	751.7689	2.705875	-5.837656	1	6.434282	-65.13129	6.992727E-006	0.0006223	10
	27	78	597.4265	2.962317	-7.184365	1	7.771128	-67.59226	-7.091011E-006	0.0006261	10
	28	80	477.4305	3.287327	-8.790523	1	9.385084	-69.49608	-5.405949E-006	0.0006536	10
	29	83	376.6741	3.731795	-10.86089	1	11.48413	-71.0373	-5.336525E-006	0.0006537	10
	30	85	298.2954	4.300548	-13.35289	1	14.02834	-72.14787	-5.530107E-006	0.0006578	10
	31	87	237.7717	5.011861	-16.28802	1	17.04167	-72.89675	-5.213756E-006	0.0006521	10
	32	90	189.0121	5.930913	-19.87416	1	20.74025	-73.38367	-5.455961E-006	0.0006526	10
	33	92	150.2404	7.094088	-24.18696	1	25.20585	-73.65347	-5.629151E-006	0.0006532	10
	34	95	119.1737	8.563438	-29.42179	1	30.64269	-73.77196	-6.387693E-006	0.0007111	10
	35	97	95.0169	10.32248	-35.53789	1	37.00669	-73.80332	-5.841381E-006	0.0006596	10
	36	100	75.60484	12.4465	-42.86494	1	44.6354	-73.80853	-3.344261E-006	5.609551E-005	9
	37	102	54.50582	16.19105	-56.00294	1	58.29648	-73.87486	-3.510301E-006	5.279886E-005	9
	38	105	45.95588	18.49642	-64.38295	1	66.98717	-73.9713	-3.375349E-006	0.0001077	9
	39	107	37.20238	21.6617	-76.4846	1	79.49292	-74.187	-3.162182E-006	5.513258E-005	9
	40	109	30.04808	25.30964	-91.1907	1	94.63785	-74.4882	-3.329259E-006	4.835845E-005	9
	41	112	23.91582	29.67299	-110.2504	1	114.1737	-74.93626	-3.384098E-006	5.594694E-005	9
	42	114	18.60119	35.12994	-136.2525	1	140.7084	-75.54232	-3.092951E-006	5.787659E-005	9
	43	116	15.02404	40.63775	-163.6867	1	168.6557	-76.05733	-2.951946E-006	6.169188E-005	9
	44	119	12.01923	47.57782	-198.8743	1	204.4862	-76.54568	-3.039179E-006	5.583227E-005	9
	45	121	9.450605	57.04287	-245.9675	1	252.4954	-76.94322	-3.083087E-006	5.70469E-005	9
	46	124	7.512019	68.77618	-301.9707	1	309.7039	-77.16931	-2.852277E-006	7.613819E-005	9
	47	126	5.978954	84.09201	-370.6668	1	380.086	-77.21785	-2.985696E-006	6.202271E-005	9
	48	129	4.734848	105.5664	-455.6657	1	467.7344	-76.95612	-3.530606E-006	0.0006544	8
	49	133	3.75601	135.7348	-560.7477	1	576.9418	-76.3927	-3.69416E-006	0.0006361	8
	50	136	3.004808	175.9361	-683.2697	1	705.5572	-75.56049	-3.538959E-006	0.0006092	8
	51	140	2.372217	235.9298	-839.3185	1	871.8477	-74.29949	-3.586875E-006	0.0006239	8
	52	144	1.878005	320.3514	-1026.229	1	1075.068	-72.66353	-3.617363E-006	0.0006426	8
	53	149	1.512097	434.2061	-1224.097	1	1298.826	-70.46961	-3.586873E-006	0.0005303	8
	54	154	1.201923	591.8337	-1466.338	1	1581.27	-68.02033	-3.56139E-006	0.0006557	8
	55	160	0.956633	805.9509	-1726.934	1	1905.744	-64.9818	-3.641643E-006	-6.475457E-006	8
