EXPLAIN
TAG	EISPOT
TITLE	LABEL	Potentiostatic EIS	Test Identifier
DATE	LABEL	9/12/2020	Date
TIME	LABEL	13:09:26	Time
NOTES	NOTES	1	Notes...
	
PSTAT	PSTAT	REF3000-16137	Potentiostat
VDC	POTEN	0.00000E+000	T	DC Voltage (V)
FREQINIT	QUANT	3.00000E+005	Initial Freq. (Hz)
FREQFINAL	QUANT	1.00000E+000	Final Freq. (Hz)
PTSPERDEC	QUANT	1.00000E+001	Points/decade
VAC	QUANT	5.00000E+001	AC Voltage (mV rms)
AREA	QUANT	1.00000E+000	Sample Area (cm^2)
SPEED	SELECTOR	2	Optimize for:
ZGUESS	QUANT	1.00000E+003	Estimated Z (ohms)
EOC	QUANT	0	Open Circuit (V)
SEQUENCER	TOGGLE	TRUE	Run as Sequence
PSTATMODEL	IQUANT	5	Pstat Model
PSTATSECTION	LABEL	REF3000-16137	Pstat Section
PSTATSERIALNO	LABEL	16137	Pstat Serial Number
CTRLMODE	IQUANT	1	Control Mode
IESTAB	IQUANT	0	I/E Stability
CASPEED	IQUANT	1	Control Amp Speed
CONVENTION	IQUANT	1	Current Convention
ICHRANGE	IQUANT	2	Ich Range
ICHRANGEMODE	TOGGLE	F	Ich Auto Range
ICHOFFSETENABLE	TOGGLE	T	Ich Offset Enable
ICHOFFSET	QUANT	0	Ich Offset (V)
ICHFILTER	IQUANT	3	Ich Filter
VCHRANGE	IQUANT	2	Vch Range
VCHRANGEMODE	TOGGLE	F	Vch Auto Range
VCHOFFSETENABLE	TOGGLE	T	Vch Offset Enable
VCHOFFSET	QUANT	0	Vch Offset (V)
VCHFILTER	IQUANT	3	Vch Filter
ACHRANGE	IQUANT	2	Ach Range
ACHOFFSETENABLE	TOGGLE	F	Ach Offset Enable
ACHOFFSET	QUANT	0	Ach Offset (V)
ACHFILTER	IQUANT	3	Ach Filter
IERANGELOWERLIMIT	IQUANT	2	I/E Range Lower Limit
IERANGEMODE	TOGGLE	F	I/E AutoRange
IERANGE	IQUANT	11	I/E Range
POSFEEDENABLE	TOGGLE	F	Positive Feedback IR Comp
POSFEEDRESISTANCE	QUANT	0	Positive Feedback Resistance (ohm)
ACHSELECT	IQUANT	0	Ach Select
CABLEID	IQUANT	13	Cable ID
DCCALDATE	LABEL	7/31/2020	DC Calibration Date
ACCALDATE	LABEL	7/31/2020	AC Calibration Date
THERMOSELECT	IQUANT	1	Thermo Select
FRAMEWORKVERSION	QUANT	6.33	Framework Version
INSTRUMENTVERSION	LABEL	3.50	Instrument Version
COMPLIANCEVOLTAGE	IQUANT	0	Compliance Voltage
ZCURVE	TABLE
	Pt	Time	Freq	Zreal	Zimag	Zsig	Zmod	Zphz	Idc	Vdc	IERange
	#	s	Hz	ohm	ohm	V	ohm	°	A	V	#
	0	10	300046.9	1.894071	2.266429	1	2.953676	50.11426	-8.315894E-005	-0.0003767	11
	1	13	238359.4	1.980465	1.626768	1	2.562932	39.39993	-3.630317E-005	-0.0004699	12
	2	17	189328.1	1.900626	1.290974	1	2.297606	34.18576	-0.0001301	-0.0002121	12
	3	21	150421.9	1.796286	1.112755	1	2.113024	31.77718	-1.26708E-005	0.0001904	11
	4	23	119484.4	1.786784	0.8725606	1	1.988456	26.02817	-5.047601E-005	0.0002892	11
	5	26	94921.88	1.775788	0.6705099	1	1.898159	20.68575	8.502127E-006	0.0004168	11
	6	28	75421.88	1.771763	0.5047624	1	1.842262	15.90187	-4.925848E-005	0.0004336	11
	7	31	59859.37	1.770996	0.3638966	1	1.807996	11.61128	1.590389E-005	0.0005338	11
	8	33	47578.12	1.77159	0.2449909	1	1.78845	7.873422	1.555603E-005	0.0005919	11
	9	36	37828.12	1.773372	0.1391387	1	1.778822	4.486235	-2.951809E-005	0.0005888	11
	10	38	30046.88	1.776613	0.0408506	1	1.777083	1.317199	1.864569E-005	0.0006463	11
	11	41	23859.38	1.781756	-0.0536091	1	1.782563	-1.723385	1.754048E-005	0.0006824	11
	12	43	18984.38	1.78778	-0.1487	1	1.793953	-4.754678	-2.71591E-005	0.0006383	11
	13	46	15046.87	1.797169	-0.2510445	1	1.814618	-7.952127	-2.28549E-005	0.0006728	11
	14	48	11953.13	1.807848	-0.3633741	1	1.844005	-11.36491	-1.570704E-005	0.0006642	11
	15	50	9515.62	1.822407	-0.4897982	1	1.88708	-15.04357	-2.079249E-005	0.0006802	11
	16	53	7546.875	1.839562	-0.6399729	1	1.947705	-19.18249	-4.689995E-005	0.0006399	11
	17	55	5928.309	1.863649	-0.8268149	1	2.038825	-23.92465	9.048405E-006	0.0006839	11
	18	57	4733.456	1.891843	-1.037239	1	2.15753	-28.7346	-3.560337E-006	0.0006704	11
	19	59	3796.875	1.927129	-1.285395	1	2.316477	-33.7033	-7.447643E-005	0.0007464	11
	20	62	2987.132	1.97339	-1.614969	1	2.549979	-39.29597	-2.057451E-005	0.0006698	11
	21	64	2390.625	2.029959	-1.988934	1	2.841934	-44.41513	1.573999E-005	0.0006824	11
	22	66	1884.191	2.104057	-2.482446	1	3.254166	-49.71625	-4.093905E-005	0.000663	11
	23	69	1516.544	2.190267	-3.031804	1	3.740201	-54.15451	3.662821E-006	0.0006742	11
	24	71	1193.986	2.315113	-3.777857	1	4.430795	-58.49957	-1.477495E-005	0.0006369	10
	25	73	946.5144	2.470194	-4.66757	1	5.280915	-62.1111	-3.762292E-006	0.0006258	10
	26	76	751.7689	2.665303	-5.757941	1	6.344897	-65.16097	-2.546819E-005	0.0006548	10
	27	78	597.4265	2.919393	-7.083774	1	7.661769	-67.60227	-6.990233E-006	0.0006257	10
	28	80	477.4305	3.238632	-8.666504	1	9.251866	-69.50952	-6.063034E-006	0.0006528	10
	29	83	376.6741	3.677886	-10.70721	1	11.32128	-71.0426	-6.405011E-006	0.0006537	10
	30	85	298.2954	4.239166	-13.16236	1	13.82816	-72.14794	-5.810447E-006	0.0006537	10
	31	87	237.7717	4.941975	-16.05185	1	16.79539	-72.88767	-6.499333E-006	0.0006537	10
	32	90	189.0121	5.849064	-19.58116	1	20.43608	-73.36865	-5.791853E-006	0.000655	10
	33	92	150.2404	6.995346	-23.82535	1	24.83108	-73.63727	-6.117395E-006	0.0006531	10
	34	95	119.1737	8.43762	-28.97357	1	30.17716	-73.7635	-5.76909E-006	0.0006547	10
	35	97	95.0169	10.16081	-34.98757	1	36.43312	-73.80607	-6.529324E-006	0.0006504	10
	36	99	75.60484	12.23378	-42.19159	1	43.92944	-73.83007	-3.96741E-006	5.444676E-005	9
	37	102	54.50582	15.87667	-55.13331	1	57.37378	-73.93526	-4.06973E-006	5.555206E-005	9
	38	105	45.95588	18.10186	-63.37093	1	65.90563	-74.05805	-3.531512E-006	5.936858E-005	9
	39	107	37.20238	21.17711	-75.32142	1	78.24184	-74.29633	-3.649546E-006	5.382395E-005	9
	40	109	30.04808	24.671	-89.80669	1	93.13377	-74.63908	-3.934809E-006	5.604757E-005	9
	41	112	23.91582	28.89135	-108.6754	1	112.4502	-75.11227	-3.939055E-006	5.405646E-005	9
	42	114	18.60119	34.31842	-134.4839	1	138.7936	-75.68444	-3.676889E-006	5.389215E-005	9
	43	116	15.02404	39.75799	-161.6521	1	166.4695	-76.18247	-3.465577E-006	6.341053E-005	9
	44	119	12.01923	46.6238	-196.5016	1	201.9571	-76.6523	-3.889111E-006	5.131432E-005	9
	45	121	9.450605	55.80099	-243.0645	1	249.3874	-77.07048	-3.739774E-006	6.470273E-005	9
	46	124	7.512019	67.82464	-298.692	1	306.2958	-77.20667	-3.562147E-006	5.250555E-005	9
	47	126	5.978954	83.42262	-366.3342	1	375.7128	-77.17122	-3.582074E-006	0.0001091	9
	48	129	4.734848	104.7945	-449.9938	1	462.035	-76.89063	-4.297843E-006	0.0006163	8
	49	133	3.75601	135.2206	-553.3757	1	569.6572	-76.26852	-4.130162E-006	0.0006567	8
	50	136	3.004808	175.5924	-673.9922	1	696.4899	-75.39757	-4.165644E-006	0.0006466	8
	51	140	2.372217	236.1241	-827.2448	1	860.284	-74.06943	-4.181999E-006	0.0006129	8
	52	144	1.878005	322.2802	-1010.161	1	1060.325	-72.30532	-4.057303E-006	0.0006348	8
	53	149	1.512097	432.8282	-1203.783	1	1279.232	-70.22362	-4.112893E-006	0.0007228	8
	54	154	1.201923	593.1025	-1438.769	1	1556.222	-67.59711	-4.010142E-006	0.000639	8
	55	160	0.956633	810.1052	-1686.452	1	1870.933	-64.3422	-4.302296E-006	5.865537E-006	8
