EXPLAIN
TAG	EISPOT
TITLE	LABEL	Potentiostatic EIS	Test Identifier
DATE	LABEL	9/12/2020	Date
TIME	LABEL	13:15:05	Time
NOTES	NOTES	1	Notes...
	
PSTAT	PSTAT	REF3000-16137	Potentiostat
VDC	POTEN	0.00000E+000	T	DC Voltage (V)
FREQINIT	QUANT	3.00000E+005	Initial Freq. (Hz)
FREQFINAL	QUANT	1.00000E+000	Final Freq. (Hz)
PTSPERDEC	QUANT	1.00000E+001	Points/decade
VAC	QUANT	5.00000E+001	AC Voltage (mV rms)
AREA	QUANT	1.00000E+000	Sample Area (cm^2)
SPEED	SELECTOR	2	Optimize for:
ZGUESS	QUANT	1.00000E+003	Estimated Z (ohms)
EOC	QUANT	0	Open Circuit (V)
SEQUENCER	TOGGLE	TRUE	Run as Sequence
PSTATMODEL	IQUANT	5	Pstat Model
PSTATSECTION	LABEL	REF3000-16137	Pstat Section
PSTATSERIALNO	LABEL	16137	Pstat Serial Number
CTRLMODE	IQUANT	1	Control Mode
IESTAB	IQUANT	0	I/E Stability
CASPEED	IQUANT	1	Control Amp Speed
CONVENTION	IQUANT	1	Current Convention
ICHRANGE	IQUANT	2	Ich Range
ICHRANGEMODE	TOGGLE	F	Ich Auto Range
ICHOFFSETENABLE	TOGGLE	T	Ich Offset Enable
ICHOFFSET	QUANT	0	Ich Offset (V)
ICHFILTER	IQUANT	3	Ich Filter
VCHRANGE	IQUANT	2	Vch Range
VCHRANGEMODE	TOGGLE	F	Vch Auto Range
VCHOFFSETENABLE	TOGGLE	T	Vch Offset Enable
VCHOFFSET	QUANT	0	Vch Offset (V)
VCHFILTER	IQUANT	3	Vch Filter
ACHRANGE	IQUANT	2	Ach Range
ACHOFFSETENABLE	TOGGLE	F	Ach Offset Enable
ACHOFFSET	QUANT	0	Ach Offset (V)
ACHFILTER	IQUANT	3	Ach Filter
IERANGELOWERLIMIT	IQUANT	2	I/E Range Lower Limit
IERANGEMODE	TOGGLE	F	I/E AutoRange
IERANGE	IQUANT	11	I/E Range
POSFEEDENABLE	TOGGLE	F	Positive Feedback IR Comp
POSFEEDRESISTANCE	QUANT	0	Positive Feedback Resistance (ohm)
ACHSELECT	IQUANT	0	Ach Select
CABLEID	IQUANT	13	Cable ID
DCCALDATE	LABEL	7/31/2020	DC Calibration Date
ACCALDATE	LABEL	7/31/2020	AC Calibration Date
THERMOSELECT	IQUANT	1	Thermo Select
FRAMEWORKVERSION	QUANT	6.33	Framework Version
INSTRUMENTVERSION	LABEL	3.50	Instrument Version
COMPLIANCEVOLTAGE	IQUANT	0	Compliance Voltage
ZCURVE	TABLE
	Pt	Time	Freq	Zreal	Zimag	Zsig	Zmod	Zphz	Idc	Vdc	IERange
	#	s	Hz	ohm	ohm	V	ohm	°	A	V	#
	0	10	300046.9	1.945827	2.255992	1	2.979218	49.22174	-0.0001162	-0.000522	11
	1	13	238359.4	1.907786	1.795503	1	2.619824	43.26333	-0.000102	-0.0002628	11
	2	17	189328.1	1.962398	1.289419	1	2.348107	33.30742	-0.0001504	-3.640656E-005	12
	3	21	150421.9	1.861063	1.121513	1	2.172866	31.07398	-2.527054E-005	0.0002428	11
	4	23	119484.4	1.849579	0.869257	1	2.043661	25.17237	1.038103E-005	0.0003966	11
	5	26	94921.88	1.840098	0.6702614	1	1.95837	20.01431	-9.156483E-006	0.0004242	11
	6	28	75421.88	1.837331	0.5022845	1	1.904751	15.28978	-7.445844E-006	0.0004665	11
	7	31	59859.37	1.835071	0.3610497	1	1.870252	11.13075	-1.743227E-006	0.000514	11
	8	33	47578.12	1.836559	0.2415576	1	1.852377	7.492948	1.39781E-005	0.0005979	11
	9	36	37828.12	1.838603	0.1349032	1	1.843546	4.196424	-4.092747E-005	0.0005937	11
	10	39	30046.88	1.842679	0.0358814	1	1.843028	1.115546	9.216817E-006	0.0006393	11
	11	41	23859.38	1.848093	-0.0600524	1	1.849069	-1.861127	-1.00981E-005	0.0006466	11
	12	43	18984.38	1.854709	-0.1567771	1	1.861323	-4.831683	1.446228E-005	0.0006902	11
	13	46	15046.87	1.863714	-0.2614155	1	1.881959	-7.98455	-1.590235E-005	0.000654	11
	14	48	11953.13	1.87562	-0.3758353	1	1.912904	-11.33082	-2.180028E-005	0.0006772	11
	15	50	9515.62	1.889462	-0.5057605	1	1.955981	-14.98531	-5.461018E-005	0.0006472	11
	16	53	7546.875	1.908739	-0.6601096	1	2.019661	-19.0772	-8.270182E-005	0.0007492	11
	17	55	5928.309	1.933197	-0.8526686	1	2.112888	-23.80067	-8.748288E-005	0.0007295	11
	18	57	4733.456	1.962215	-1.068946	1	2.234487	-28.57999	-1.77622E-005	0.0006676	11
	19	60	3796.875	1.998227	-1.324441	1	2.397302	-33.53673	-2.385551E-005	0.0006812	11
	20	62	2987.132	2.046869	-1.664601	1	2.638289	-39.11948	6.981289E-006	0.0006841	11
	21	64	2390.625	2.103187	-2.052089	1	2.938446	-44.29546	-1.28851E-005	0.0006682	11
	22	66	1884.191	2.181043	-2.558033	1	3.361619	-49.54826	-4.245855E-006	0.0006748	11
	23	69	1516.544	2.269883	-3.124778	1	3.862202	-54.00482	1.692975E-005	0.0006995	11
	24	71	1193.986	2.397448	-3.894132	1	4.572967	-58.3812	6.617355E-006	0.0006206	10
	25	74	946.5144	2.555951	-4.81365	1	5.450148	-62.0326	9.036659E-006	0.0006373	10
	26	76	751.7689	2.755839	-5.935437	1	6.544009	-65.09444	-6.586924E-006	0.0006237	10
	27	78	597.4265	3.014155	-7.309535	1	7.906606	-67.59074	1.085055E-005	0.0006405	10
	28	81	477.4305	3.340398	-8.941274	1	9.54488	-69.51466	-5.792204E-006	0.0006484	10
	29	83	376.6741	3.787324	-11.05096	1	11.68193	-71.08267	-5.397286E-006	0.0006557	10
	30	85	298.2954	4.359456	-13.59244	1	14.27443	-72.21758	-5.731468E-006	0.0006527	10
	31	87	237.7717	5.076206	-16.58844	1	17.34774	-72.98544	-5.618856E-006	0.0006512	10
	32	90	189.0121	6.00479	-20.25127	1	21.12277	-73.48416	-4.928667E-006	0.0006492	10
	33	92	150.2404	7.183022	-24.66228	1	25.68704	-73.76151	-5.85895E-006	0.0006586	10
	34	95	119.1737	8.675119	-30.01873	1	31.24711	-73.88123	-5.267763E-006	0.0006537	10
	35	97	95.0169	10.46828	-36.27516	1	37.75542	-73.90293	-5.71963E-006	0.0006533	10
	36	100	75.60484	12.64167	-43.77072	1	45.55972	-73.89046	-2.827346E-006	5.376733E-005	9
	37	102	54.50582	16.50108	-57.21297	1	59.54502	-73.91164	-2.939448E-006	5.441966E-005	9
	38	105	45.95588	18.87623	-65.75225	1	68.40812	-73.98223	-2.441362E-006	5.597047E-005	9
	39	107	37.20238	22.16855	-78.09708	1	81.1825	-74.15293	-2.628731E-006	5.009385E-005	9
	40	109	30.04808	25.95424	-93.10918	1	96.6589	-74.42416	-3.329001E-006	0.0001164	9
	41	112	23.91582	30.4118	-112.3363	1	116.3801	-74.85192	-2.786179E-006	5.299404E-005	9
	42	114	18.60119	36.10748	-138.8592	1	143.4769	-75.4242	-2.583226E-006	6.350191E-005	9
	43	116	15.02404	41.74728	-166.6662	1	171.8152	-75.93764	-2.424776E-006	5.328036E-005	9
	44	119	12.01923	48.77885	-202.3337	1	208.1305	-76.4457	-2.562917E-006	5.264231E-005	9
	45	121	9.450605	58.16481	-250.2188	1	256.8902	-76.91367	-2.519755E-006	5.04842E-005	9
	46	124	7.512019	69.75172	-306.837	1	314.6653	-77.19289	-2.350598E-006	7.190618E-005	9
	47	126	5.978954	85.13913	-376.5487	1	386.0539	-77.25943	-2.349136E-006	5.426613E-005	9
	48	129	4.734848	105.9072	-462.8845	1	474.8456	-77.11264	-3.066928E-006	0.0006515	8
	49	133	3.75601	134.8459	-569.934	1	585.669	-76.68865	-3.046134E-006	0.0006289	8
	50	136	3.004808	173.5229	-695.5399	1	716.8583	-75.99183	-3.06357E-006	0.0006678	8
	51	140	2.372217	232.6742	-856.895	1	887.9224	-74.80865	-3.039099E-006	0.0007152	8
	52	144	1.878005	315.5512	-1047.604	1	1094.097	-73.23706	-3.110416E-006	0.0006586	8
	53	149	1.512097	422.407	-1252.845	1	1322.138	-71.36804	-2.999109E-006	0.0006976	8
	54	154	1.201923	578.7776	-1507.869	1	1615.132	-69.0013	-2.990761E-006	0.0005975	8
	55	160	0.956633	787.5026	-1789.859	1	1955.442	-66.25145	-3.131582E-006	-3.217217E-006	8
