EXPLAIN
TAG	EISPOT
TITLE	LABEL	Potentiostatic EIS	Test Identifier
DATE	LABEL	9/12/2020	Date
TIME	LABEL	13:43:35	Time
NOTES	NOTES	1	Notes...
	
PSTAT	PSTAT	REF3000-16137	Potentiostat
VDC	POTEN	0.00000E+000	T	DC Voltage (V)
FREQINIT	QUANT	3.00000E+005	Initial Freq. (Hz)
FREQFINAL	QUANT	1.00000E+000	Final Freq. (Hz)
PTSPERDEC	QUANT	1.00000E+001	Points/decade
VAC	QUANT	5.00000E+001	AC Voltage (mV rms)
AREA	QUANT	1.00000E+000	Sample Area (cm^2)
SPEED	SELECTOR	2	Optimize for:
ZGUESS	QUANT	1.00000E+003	Estimated Z (ohms)
EOC	QUANT	0	Open Circuit (V)
SEQUENCER	TOGGLE	TRUE	Run as Sequence
PSTATMODEL	IQUANT	5	Pstat Model
PSTATSECTION	LABEL	REF3000-16137	Pstat Section
PSTATSERIALNO	LABEL	16137	Pstat Serial Number
CTRLMODE	IQUANT	1	Control Mode
IESTAB	IQUANT	0	I/E Stability
CASPEED	IQUANT	1	Control Amp Speed
CONVENTION	IQUANT	1	Current Convention
ICHRANGE	IQUANT	2	Ich Range
ICHRANGEMODE	TOGGLE	F	Ich Auto Range
ICHOFFSETENABLE	TOGGLE	T	Ich Offset Enable
ICHOFFSET	QUANT	0	Ich Offset (V)
ICHFILTER	IQUANT	3	Ich Filter
VCHRANGE	IQUANT	2	Vch Range
VCHRANGEMODE	TOGGLE	F	Vch Auto Range
VCHOFFSETENABLE	TOGGLE	T	Vch Offset Enable
VCHOFFSET	QUANT	0	Vch Offset (V)
VCHFILTER	IQUANT	3	Vch Filter
ACHRANGE	IQUANT	2	Ach Range
ACHOFFSETENABLE	TOGGLE	F	Ach Offset Enable
ACHOFFSET	QUANT	0	Ach Offset (V)
ACHFILTER	IQUANT	3	Ach Filter
IERANGELOWERLIMIT	IQUANT	2	I/E Range Lower Limit
IERANGEMODE	TOGGLE	F	I/E AutoRange
IERANGE	IQUANT	11	I/E Range
POSFEEDENABLE	TOGGLE	F	Positive Feedback IR Comp
POSFEEDRESISTANCE	QUANT	0	Positive Feedback Resistance (ohm)
ACHSELECT	IQUANT	0	Ach Select
CABLEID	IQUANT	13	Cable ID
DCCALDATE	LABEL	7/31/2020	DC Calibration Date
ACCALDATE	LABEL	7/31/2020	AC Calibration Date
THERMOSELECT	IQUANT	1	Thermo Select
FRAMEWORKVERSION	QUANT	6.33	Framework Version
INSTRUMENTVERSION	LABEL	3.50	Instrument Version
COMPLIANCEVOLTAGE	IQUANT	0	Compliance Voltage
ZCURVE	TABLE
	Pt	Time	Freq	Zreal	Zimag	Zsig	Zmod	Zphz	Idc	Vdc	IERange
	#	s	Hz	ohm	ohm	V	ohm	°	A	V	#
	0	10	300046.9	2.73937	2.281073	1	3.564749	39.78414	-0.0001112	-0.0002455	10
	1	13	238359.4	2.713928	1.799535	1	3.256337	33.54733	7.20198E-005	-0.0008189	10
	2	16	189328.1	2.78484	1.212774	1	3.037459	23.53271	-3.539573E-005	-0.0002885	12
	3	20	150421.9	2.687096	1.102359	1	2.904424	22.30548	7.558967E-005	0.0002788	11
	4	22	119484.4	2.680282	0.8559156	1	2.813628	17.71025	-6.260172E-005	0.0003799	11
	5	25	94921.88	2.674185	0.65343	1	2.752859	13.73102	2.251744E-005	0.0005453	11
	6	27	75421.88	2.672692	0.4852381	1	2.716383	10.2902	6.199002E-006	0.0005637	11
	7	30	59859.37	2.67276	0.3414872	1	2.694486	7.280992	1.717178E-005	0.0006021	11
	8	33	47578.12	2.675949	0.2192026	1	2.684912	4.682975	-4.969355E-005	0.0005885	11
	9	35	37828.12	2.681166	0.1084418	1	2.683358	2.316108	-2.595899E-005	0.0006426	11
	10	38	30046.88	2.686452	0.0040515	1	2.686455	0.0864082	9.343205E-006	0.0006513	11
	11	40	23859.38	2.69379	-0.0987238	1	2.695599	-2.098875	-1.710741E-005	0.0006455	11
	12	42	18984.38	2.702225	-0.2037672	1	2.709897	-4.312351	2.297605E-005	0.0006897	11
	13	45	15046.87	2.714395	-0.3193765	1	2.73312	-6.710583	-2.589962E-005	0.0006807	11
	14	47	11953.13	2.727169	-0.4480317	1	2.763727	-9.329473	-4.546675E-005	0.0006384	11
	15	49	9515.62	2.744983	-0.5951823	1	2.808767	-12.23382	-3.353736E-005	0.0006836	11
	16	52	7546.875	2.765668	-0.7721926	1	2.871446	-15.60008	-4.646978E-005	0.000708	11
	17	54	5928.309	2.793168	-0.993687	1	2.964658	-19.58333	2.873369E-007	0.0006785	11
	18	56	4733.456	2.826379	-1.244465	1	3.088222	-23.76406	-3.652838E-005	0.0006672	11
	19	59	3796.875	2.866582	-1.541891	1	3.254953	-28.27514	-3.371851E-005	0.0006825	11
	20	61	2987.132	2.920171	-1.93754	1	3.504492	-33.56435	-2.165387E-005	0.0006738	11
	21	63	2390.625	2.985151	-2.389636	1	3.823805	-38.67754	1.680229E-006	0.0006375	10
	22	66	1884.191	3.070067	-2.983376	1	4.280869	-44.17953	-1.008517E-005	0.0006479	10
	23	68	1516.544	3.166165	-3.648019	1	4.830388	-49.04485	-2.461765E-005	0.0007149	10
	24	70	1193.986	3.297229	-4.54629	1	5.616091	-54.04824	-4.275917E-006	0.0006559	10
	25	73	946.5144	3.46063	-5.628696	1	6.607434	-58.416	-1.606911E-005	0.0006879	10
	26	75	751.7689	3.665334	-6.951111	1	7.858284	-62.19723	-2.257088E-005	0.0006599	10
	27	77	597.4265	3.924416	-8.57571	1	9.431005	-65.41022	-2.460913E-005	0.0006597	10
	28	80	477.4305	4.249927	-10.52441	1	11.35011	-68.01035	-2.611923E-006	0.0006626	10
	29	82	376.6741	4.691643	-13.05847	1	13.87571	-70.23767	-2.77165E-006	0.0006563	10
	30	84	298.2954	5.25572	-16.13499	1	16.9694	-71.95779	-2.166696E-006	0.0006605	10
	31	87	237.7717	5.96575	-19.7982	1	20.67749	-73.23098	-2.690002E-006	0.0006597	10
	32	89	189.0121	6.896614	-24.32774	1	25.2864	-74.17262	-3.158324E-006	0.0006578	10
	33	91	150.2404	8.102921	-29.8518	1	30.93198	-74.81364	-2.972904E-006	0.0006531	10
	34	94	119.1737	9.68121	-36.63188	1	37.88958	-75.19612	-2.349354E-006	0.0006574	10
	35	96	95.0169	11.64914	-44.59808	1	46.09437	-75.36126	4.516288E-007	5.291023E-005	9
	36	99	75.60484	14.18827	-54.32791	1	56.15005	-75.36356	3.496589E-007	5.227539E-005	9
	37	101	54.50582	18.98751	-71.73162	1	74.2021	-75.17372	3.410439E-007	5.485944E-005	9
	38	104	45.95588	22.11861	-82.77441	1	85.67868	-75.03922	6.512757E-007	6.016584E-005	9
	39	106	37.20238	26.66495	-98.6129	1	102.1544	-74.86906	4.793166E-007	6.030814E-005	9
	40	108	30.04808	32.11072	-117.6013	1	121.9064	-74.72781	4.533093E-007	4.861239E-005	9
	41	111	23.91582	38.85391	-141.6472	1	146.8793	-74.661	3.510658E-007	4.283801E-005	9
	42	113	18.60119	47.59864	-173.9521	1	180.3468	-74.69672	3.856719E-007	4.322824E-005	9
	43	115	15.02404	56.01443	-207.0709	1	214.5134	-74.86328	6.228915E-007	5.738179E-005	9
	44	118	12.01923	65.81242	-248.8364	1	257.3923	-75.18558	5.229011E-007	4.949115E-005	9
	45	120	9.450605	77.65776	-304.1566	1	313.914	-75.67715	5.741808E-007	6.336484E-005	9
	46	123	7.512019	90.36462	-369.5987	1	380.4852	-76.26106	6.598011E-007	6.150259E-005	9
	47	125	5.978954	104.5277	-448.0591	1	460.0902	-76.86833	-9.573107E-008	0.0006342	8
	48	129	4.734848	121.833	-550.2918	1	563.6172	-77.51625	1.806962E-008	0.000643	8
	49	132	3.75601	143.1222	-676.1031	1	691.0857	-78.04768	-7.949469E-008	0.0006318	8
	50	135	3.004808	168.7616	-825.7126	1	842.7822	-78.44881	-2.521195E-009	0.0006019	8
	51	139	2.372217	203.5263	-1022.488	1	1042.547	-78.74241	-3.381821E-008	0.0005755	8
	52	143	1.878005	250.8236	-1264.71	1	1289.342	-78.78237	-4.897315E-008	0.0006413	8
	53	148	1.512097	309.3442	-1538.434	1	1569.226	-78.63072	-7.906459E-008	0.0005612	8
	54	153	1.201923	389.7968	-1901.978	1	1941.51	-78.41801	-2.861116E-008	0.0006639	8
	55	159	0.956633	502.6509	-2343.172	1	2396.479	-77.89256	-1.08103E-007	3.933155E-005	8
