EXPLAIN
TAG	EISPOT
TITLE	LABEL	Potentiostatic EIS	Test Identifier
DATE	LABEL	9/12/2020	Date
TIME	LABEL	14:17:09	Time
NOTES	NOTES	1	Notes...
	
PSTAT	PSTAT	REF3000-16137	Potentiostat
VDC	POTEN	0.00000E+000	T	DC Voltage (V)
FREQINIT	QUANT	3.00000E+005	Initial Freq. (Hz)
FREQFINAL	QUANT	1.00000E+000	Final Freq. (Hz)
PTSPERDEC	QUANT	1.00000E+001	Points/decade
VAC	QUANT	5.00000E+001	AC Voltage (mV rms)
AREA	QUANT	1.00000E+000	Sample Area (cm^2)
SPEED	SELECTOR	2	Optimize for:
ZGUESS	QUANT	1.00000E+003	Estimated Z (ohms)
EOC	QUANT	0	Open Circuit (V)
SEQUENCER	TOGGLE	TRUE	Run as Sequence
PSTATMODEL	IQUANT	5	Pstat Model
PSTATSECTION	LABEL	REF3000-16137	Pstat Section
PSTATSERIALNO	LABEL	16137	Pstat Serial Number
CTRLMODE	IQUANT	1	Control Mode
IESTAB	IQUANT	0	I/E Stability
CASPEED	IQUANT	1	Control Amp Speed
CONVENTION	IQUANT	1	Current Convention
ICHRANGE	IQUANT	2	Ich Range
ICHRANGEMODE	TOGGLE	F	Ich Auto Range
ICHOFFSETENABLE	TOGGLE	T	Ich Offset Enable
ICHOFFSET	QUANT	0	Ich Offset (V)
ICHFILTER	IQUANT	3	Ich Filter
VCHRANGE	IQUANT	2	Vch Range
VCHRANGEMODE	TOGGLE	F	Vch Auto Range
VCHOFFSETENABLE	TOGGLE	T	Vch Offset Enable
VCHOFFSET	QUANT	0	Vch Offset (V)
VCHFILTER	IQUANT	3	Vch Filter
ACHRANGE	IQUANT	2	Ach Range
ACHOFFSETENABLE	TOGGLE	F	Ach Offset Enable
ACHOFFSET	QUANT	0	Ach Offset (V)
ACHFILTER	IQUANT	3	Ach Filter
IERANGELOWERLIMIT	IQUANT	2	I/E Range Lower Limit
IERANGEMODE	TOGGLE	F	I/E AutoRange
IERANGE	IQUANT	11	I/E Range
POSFEEDENABLE	TOGGLE	F	Positive Feedback IR Comp
POSFEEDRESISTANCE	QUANT	0	Positive Feedback Resistance (ohm)
ACHSELECT	IQUANT	0	Ach Select
CABLEID	IQUANT	13	Cable ID
DCCALDATE	LABEL	7/31/2020	DC Calibration Date
ACCALDATE	LABEL	7/31/2020	AC Calibration Date
THERMOSELECT	IQUANT	1	Thermo Select
FRAMEWORKVERSION	QUANT	6.33	Framework Version
INSTRUMENTVERSION	LABEL	3.50	Instrument Version
COMPLIANCEVOLTAGE	IQUANT	0	Compliance Voltage
ZCURVE	TABLE
	Pt	Time	Freq	Zreal	Zimag	Zsig	Zmod	Zphz	Idc	Vdc	IERange
	#	s	Hz	ohm	ohm	V	ohm	°	A	V	#
	0	8	300046.9	9.57795	2.200933	1	9.82757	12.94143	-2.968761E-005	2.965151E-005	10
	1	11	238359.4	9.56834	1.734081	1	9.72421	10.27228	-8.195511E-005	0.0002803	10
	2	15	189328.1	9.57413	1.36859	1	9.67145	8.135131	-2.487084E-005	0.0003064	10
	3	17	150421.9	9.6004	1.068118	1	9.65963	6.348488	-8.11999E-005	0.0005977	10
	4	20	119484.4	9.60534	0.8221485	1	9.64046	4.892186	5.691701E-005	0.0004628	10
	5	22	94921.88	9.62755	0.6443875	1	9.64909	3.82919	2.165666E-005	0.0005466	10
	6	25	75421.88	9.64963	0.4649823	1	9.66082	2.758753	-7.764029E-006	0.0005809	10
	7	27	59859.37	9.6774	0.3085348	1	9.68232	1.826085	2.219175E-005	0.0005667	10
	8	30	47578.12	9.70954	0.1763158	1	9.71114	1.040321	-2.406935E-005	0.000679	10
	9	32	37828.12	9.74108	0.057002	1	9.74125	0.3352747	-2.407716E-005	0.0006772	10
	10	35	30046.88	9.77317	-0.058214	1	9.77334	-0.341279	-2.677187E-005	0.0006324	10
	11	37	23859.38	9.80535	-0.1735695	1	9.80688	-1.014116	-3.226057E-008	0.0005932	10
	12	40	18984.38	9.8376	-0.2942554	1	9.842	-1.71328	2.014736E-005	0.0006014	10
	13	42	15046.87	9.87413	-0.4291686	1	9.88345	-2.488734	4.394738E-006	0.0006065	10
	14	44	11953.13	9.91202	-0.5851663	1	9.92927	-3.378595	1.991377E-005	0.0005998	10
	15	46	9515.62	9.95542	-0.7633014	1	9.98464	-4.384399	1.706714E-005	0.0006722	10
	16	49	7546.875	10.00141	-0.980257	1	10.04933	-5.597788	1.286122E-005	0.000625	10
	17	51	5928.309	10.05557	-1.254624	1	10.13354	-7.111987	-2.72691E-005	0.0006717	10
	18	53	4733.456	10.11433	-1.56813	1	10.23517	-8.812993	-1.479749E-005	0.0006849	10
	19	56	3796.875	10.18165	-1.940926	1	10.365	-10.79279	-1.830268E-005	0.0007192	10
	20	58	2987.132	10.26322	-2.441548	1	10.54963	-13.38154	7.212424E-006	0.0006546	10
	21	60	2390.625	10.35772	-3.011728	1	10.7867	-16.21292	-2.291018E-005	0.0006944	10
	22	63	1884.191	10.47244	-3.769741	1	11.13027	-19.79724	2.243927E-005	0.0006426	10
	23	65	1516.544	10.60491	-4.615068	1	11.5656	-23.51781	-2.508502E-005	0.0006705	10
	24	67	1193.986	10.77827	-5.765754	1	12.22355	-28.14421	-1.776979E-005	0.0006522	10
	25	70	946.5144	10.99134	-7.143888	1	13.10895	-33.0221	-1.041978E-005	0.000649	10
	26	72	751.7689	11.24589	-8.846755	1	14.30857	-38.19092	2.136636E-005	0.000637	10
	27	74	597.4265	11.55883	-10.93085	1	15.9088	-43.40052	-1.785899E-005	0.0006575	10
	28	77	477.4305	11.93847	-13.43002	1	17.96921	-48.36484	-2.419294E-006	0.0006603	10
	29	79	376.6741	12.43469	-16.68738	1	20.81082	-53.30818	-2.364621E-006	0.000657	10
	30	81	298.2954	13.04384	-20.65765	1	24.43113	-57.73049	-2.140734E-006	0.0006572	10
	31	84	237.7717	13.78165	-25.41768	1	28.91353	-61.53312	-1.961277E-006	0.0006531	10
	32	86	189.0121	14.70667	-31.34298	1	34.62179	-64.86322	-2.334024E-006	0.0006511	10
	33	88	150.2404	15.86607	-38.64146	1	41.77193	-67.67709	-2.052091E-006	0.000651	10
	34	91	119.1737	17.31453	-47.67279	1	50.7197	-70.03922	1.289313E-006	5.706605E-005	9
	35	93	95.0169	19.13028	-58.59126	1	61.63524	-71.91793	1.295586E-006	5.513681E-005	9
	36	96	75.60484	21.45852	-72.122	1	75.2466	-73.43063	1.225529E-006	5.661116E-005	9
	37	98	54.50582	25.95208	-97.0118	1	100.4231	-75.02324	1.250641E-006	5.241786E-005	9
	38	101	45.95588	29.03718	-113.2016	1	116.8665	-75.61333	1.303568E-006	5.940805E-005	9
	39	103	37.20238	33.75514	-136.8905	1	140.9909	-76.14806	1.337353E-006	5.433187E-005	9
	40	105	30.04808	39.78466	-165.7439	1	170.4519	-76.50227	1.236905E-006	5.403548E-005	9
	41	108	23.91582	48.08453	-203.1155	1	208.7296	-76.68128	1.390826E-006	4.725963E-005	9
	42	110	18.60119	59.94553	-253.35	1	260.3453	-76.68798	1.426993E-006	5.447854E-005	9
	43	112	15.02404	72.85867	-305.26	1	313.8344	-76.57594	1.241876E-006	5.311113E-005	9
	44	115	12.01923	90.02615	-370.0053	1	380.8	-76.32506	1.557593E-006	5.598891E-005	9
	45	117	9.450605	112.41	-452.1089	1	465.8739	-76.03741	7.33875E-007	0.0006249	8
	46	120	7.512019	139.5615	-548.1533	1	565.6407	-75.71581	7.415312E-007	0.0006406	8
	47	122	5.978954	171.5145	-662.7349	1	684.5691	-75.49031	6.526548E-007	0.0006761	8
	48	125	4.734848	211.5186	-803.7611	1	831.127	-75.25627	6.485814E-007	0.0006491	8
	49	129	3.75601	257.3579	-972.603	1	1006.076	-75.17879	6.549809E-007	0.0006273	8
	50	132	3.004808	308.6276	-1167.888	1	1207.979	-75.19733	6.176324E-007	0.0006703	8
	51	136	2.372217	369.8746	-1418.84	1	1466.259	-75.38887	6.132423E-007	0.0006805	8
	52	140	1.878005	441.5625	-1723.078	1	1778.757	-75.62648	6.341296E-007	0.0006102	8
	53	145	1.512097	516.7975	-2065.673	1	2129.339	-75.95386	6.46848E-007	0.0007212	8
	54	150	1.201923	602.445	-2515.898	1	2587.022	-76.53378	6.319897E-007	0.0006053	8
	55	156	0.956633	701.2538	-3067.051	1	3146.198	-77.12121	6.135732E-007	2.975777E-005	8
