EXPLAIN
TAG	EISPOT
TITLE	LABEL	Potentiostatic EIS	Test Identifier
DATE	LABEL	9/12/2020	Date
TIME	LABEL	13:37:50	Time
NOTES	NOTES	1	Notes...
	
PSTAT	PSTAT	REF3000-16137	Potentiostat
VDC	POTEN	0.00000E+000	T	DC Voltage (V)
FREQINIT	QUANT	3.00000E+005	Initial Freq. (Hz)
FREQFINAL	QUANT	1.00000E+000	Final Freq. (Hz)
PTSPERDEC	QUANT	1.00000E+001	Points/decade
VAC	QUANT	5.00000E+001	AC Voltage (mV rms)
AREA	QUANT	1.00000E+000	Sample Area (cm^2)
SPEED	SELECTOR	2	Optimize for:
ZGUESS	QUANT	1.00000E+003	Estimated Z (ohms)
EOC	QUANT	0	Open Circuit (V)
SEQUENCER	TOGGLE	TRUE	Run as Sequence
PSTATMODEL	IQUANT	5	Pstat Model
PSTATSECTION	LABEL	REF3000-16137	Pstat Section
PSTATSERIALNO	LABEL	16137	Pstat Serial Number
CTRLMODE	IQUANT	1	Control Mode
IESTAB	IQUANT	0	I/E Stability
CASPEED	IQUANT	1	Control Amp Speed
CONVENTION	IQUANT	1	Current Convention
ICHRANGE	IQUANT	2	Ich Range
ICHRANGEMODE	TOGGLE	F	Ich Auto Range
ICHOFFSETENABLE	TOGGLE	T	Ich Offset Enable
ICHOFFSET	QUANT	0	Ich Offset (V)
ICHFILTER	IQUANT	3	Ich Filter
VCHRANGE	IQUANT	2	Vch Range
VCHRANGEMODE	TOGGLE	F	Vch Auto Range
VCHOFFSETENABLE	TOGGLE	T	Vch Offset Enable
VCHOFFSET	QUANT	0	Vch Offset (V)
VCHFILTER	IQUANT	3	Vch Filter
ACHRANGE	IQUANT	2	Ach Range
ACHOFFSETENABLE	TOGGLE	F	Ach Offset Enable
ACHOFFSET	QUANT	0	Ach Offset (V)
ACHFILTER	IQUANT	3	Ach Filter
IERANGELOWERLIMIT	IQUANT	2	I/E Range Lower Limit
IERANGEMODE	TOGGLE	F	I/E AutoRange
IERANGE	IQUANT	11	I/E Range
POSFEEDENABLE	TOGGLE	F	Positive Feedback IR Comp
POSFEEDRESISTANCE	QUANT	0	Positive Feedback Resistance (ohm)
ACHSELECT	IQUANT	0	Ach Select
CABLEID	IQUANT	13	Cable ID
DCCALDATE	LABEL	7/31/2020	DC Calibration Date
ACCALDATE	LABEL	7/31/2020	AC Calibration Date
THERMOSELECT	IQUANT	1	Thermo Select
FRAMEWORKVERSION	QUANT	6.33	Framework Version
INSTRUMENTVERSION	LABEL	3.50	Instrument Version
COMPLIANCEVOLTAGE	IQUANT	0	Compliance Voltage
ZCURVE	TABLE
	Pt	Time	Freq	Zreal	Zimag	Zsig	Zmod	Zphz	Idc	Vdc	IERange
	#	s	Hz	ohm	ohm	V	ohm	°	A	V	#
	0	10	300046.9	2.504488	2.237024	1	3.358086	41.77142	-3.604632E-005	-0.0002864	11
	1	13	238359.4	2.470233	1.784802	1	3.047551	35.849	-0.0001363	-0.0004132	11
	2	17	189328.1	2.43797	1.405784	1	2.814236	29.96864	9.096559E-006	0.0001098	11
	3	19	150421.9	2.470835	0.968459	1	2.653854	21.40301	-0.0001211	0.0002016	12
	4	23	119484.4	2.416256	0.8583894	1	2.564201	19.55789	4.333461E-005	0.0006346	11
	5	26	94921.88	2.427379	0.5743218	1	2.494396	13.31149	-8.586375E-005	0.0004383	12
	6	30	75421.88	2.417757	0.4230176	1	2.454484	9.92418	-0.0001405	0.000537	12
	7	34	59859.37	2.414209	0.2929686	1	2.43192	6.919114	-3.817999E-005	0.0005655	12
	8	37	47578.12	2.414835	0.1811522	1	2.42162	4.290085	3.597916E-006	0.0005786	12
	9	41	37828.12	2.415411	0.114184	1	2.418108	2.706535	1.940796E-005	0.0006378	11
	10	43	30046.88	2.421155	0.0112603	1	2.421181	0.266468	1.703591E-005	0.000668	11
	11	46	23859.38	2.42717	-0.0899557	1	2.428836	-2.122522	-1.6773E-005	0.0006255	11
	12	48	18984.38	2.435547	-0.1932841	1	2.443205	-4.53746	2.546886E-005	0.0006811	11
	13	51	15046.87	2.445821	-0.3064849	1	2.464949	-7.142482	-8.98456E-006	0.0006477	11
	14	53	11953.13	2.459291	-0.4322352	1	2.496987	-9.96827	-4.665495E-005	0.0007093	11
	15	55	9515.62	2.476005	-0.5757374	1	2.542061	-13.09019	-3.685019E-005	0.0006742	11
	16	58	7546.875	2.496632	-0.7475308	1	2.606142	-16.66853	-2.738393E-005	0.0006771	11
	17	60	5928.309	2.523014	-0.962753	1	2.700461	-20.88628	-2.071026E-005	0.0006696	11
	18	62	4733.456	2.554696	-1.205919	1	2.825016	-25.26919	-1.288977E-005	0.0006695	11
	19	64	3796.875	2.592521	-1.494452	1	2.992416	-29.96119	-4.989773E-005	0.0006354	11
	20	67	2987.132	2.645893	-1.877958	1	3.244607	-35.36573	-3.336315E-005	0.0007286	11
	21	69	2390.625	2.706308	-2.315792	1	3.561881	-40.55365	-4.306845E-005	0.0007102	11
	22	71	1884.191	2.791094	-2.8907	1	4.018252	-46.00433	4.721426E-006	0.0006436	10
	23	74	1516.544	2.885968	-3.533314	1	4.56214	-50.75847	1.12576E-005	0.0006137	10
	24	76	1193.986	3.015241	-4.404954	1	5.338099	-55.60792	-2.476032E-005	0.0006601	10
	25	79	946.5144	3.17943	-5.447678	1	6.307611	-59.73087	-1.097706E-006	0.0006307	10
	26	81	751.7689	3.380179	-6.730555	1	7.531665	-63.33356	4.899955E-006	0.0006209	10
	27	83	597.4265	3.636353	-8.304434	1	9.065687	-66.3523	-2.458101E-005	0.0006598	10
	28	85	477.4305	3.963457	-10.18571	1	10.92967	-68.73801	-2.665729E-006	0.0006493	10
	29	88	376.6741	4.407463	-12.63036	1	13.37729	-70.76318	-2.419255E-006	0.000645	10
	30	90	298.2954	4.977245	-15.59443	1	16.36946	-72.29857	-2.612827E-006	0.0006525	10
	31	92	237.7717	5.694624	-19.11629	1	19.94646	-73.41154	-3.217292E-006	0.0006487	10
	32	95	189.0121	6.635984	-23.46148	1	24.38191	-74.20667	-6.078987E-006	0.0006985	10
	33	97	150.2404	7.855105	-28.74543	1	29.79937	-74.71624	-2.377499E-006	0.0006523	10
	34	100	119.1737	9.441099	-35.20836	1	36.4522	-74.9893	-2.655089E-006	0.0006478	10
	35	102	95.0169	11.40574	-42.77745	1	44.2719	-75.07056	1.76085E-007	4.772637E-005	9
	36	105	75.60484	13.91448	-51.99352	1	53.82322	-75.01762	4.450611E-009	4.830679E-005	9
	37	107	54.50582	18.57994	-68.43999	1	70.91718	-74.81153	-9.055742E-008	4.445907E-005	9
	38	110	45.95588	21.57415	-78.84103	1	81.73953	-74.69616	2.88261E-007	5.119713E-005	9
	39	112	37.20238	25.89687	-93.82575	1	97.3341	-74.56995	2.073678E-007	4.892174E-005	9
	40	114	30.04808	31.00381	-111.7303	1	115.9521	-74.4913	4.129823E-009	5.442638E-005	9
	41	117	23.91582	37.22492	-134.4928	1	139.5493	-74.52898	-6.311953E-008	5.410327E-005	9
	42	119	18.60119	45.11461	-165.1615	1	171.2123	-74.7221	1.388167E-007	5.295482E-005	9
	43	121	15.02404	52.66679	-196.8283	1	203.7527	-75.01988	2.791699E-007	5.384022E-005	9
	44	124	12.01923	61.47204	-236.903	1	244.7485	-75.45359	1.14472E-007	5.516856E-005	9
	45	126	9.450605	72.28454	-290.4084	1	299.2693	-76.02274	1.600246E-007	5.153865E-005	9
	46	129	7.512019	83.90008	-353.852	1	363.6626	-76.66121	2.801115E-007	3.76101E-005	9
	47	131	5.978954	97.2485	-430.2073	1	441.0619	-77.26235	-4.474137E-007	0.0006367	8
	48	134	4.734848	114.5445	-529.0859	1	541.3431	-77.78426	-4.025848E-007	0.0006074	8
	49	138	3.75601	136.2122	-651.3419	1	665.4322	-78.18822	-4.021803E-007	0.0006408	8
	50	141	3.004808	163.125	-796.2721	1	812.8093	-78.42252	-3.66444E-007	0.0005982	8
	51	145	2.372217	200.5202	-987.687	1	1007.836	-78.52378	-3.981302E-007	0.0005618	8
	52	149	1.878005	251.6951	-1221.269	1	1246.936	-78.35479	-3.794918E-007	0.0006464	8
	53	154	1.512097	316.7205	-1484.872	1	1518.275	-77.95936	-4.127816E-007	0.0005588	8
	54	159	1.201923	408.6795	-1833.878	1	1878.863	-77.43693	-3.608412E-007	0.0006596	8
	55	165	0.956633	540.1816	-2253.638	1	2317.473	-76.52089	-4.184573E-007	-4.921827E-006	8
