EXPLAIN
TAG	EISPOT
TITLE	LABEL	Potentiostatic EIS	Test Identifier
DATE	LABEL	9/12/2020	Date
TIME	LABEL	14:25:26	Time
NOTES	NOTES	1	Notes...
	
PSTAT	PSTAT	REF3000-16137	Potentiostat
VDC	POTEN	0.00000E+000	T	DC Voltage (V)
FREQINIT	QUANT	3.00000E+005	Initial Freq. (Hz)
FREQFINAL	QUANT	1.00000E+000	Final Freq. (Hz)
PTSPERDEC	QUANT	1.00000E+001	Points/decade
VAC	QUANT	5.00000E+001	AC Voltage (mV rms)
AREA	QUANT	1.00000E+000	Sample Area (cm^2)
SPEED	SELECTOR	2	Optimize for:
ZGUESS	QUANT	1.00000E+003	Estimated Z (ohms)
EOC	QUANT	0	Open Circuit (V)
SEQUENCER	TOGGLE	TRUE	Run as Sequence
PSTATMODEL	IQUANT	5	Pstat Model
PSTATSECTION	LABEL	REF3000-16137	Pstat Section
PSTATSERIALNO	LABEL	16137	Pstat Serial Number
CTRLMODE	IQUANT	1	Control Mode
IESTAB	IQUANT	0	I/E Stability
CASPEED	IQUANT	1	Control Amp Speed
CONVENTION	IQUANT	1	Current Convention
ICHRANGE	IQUANT	2	Ich Range
ICHRANGEMODE	TOGGLE	F	Ich Auto Range
ICHOFFSETENABLE	TOGGLE	T	Ich Offset Enable
ICHOFFSET	QUANT	0	Ich Offset (V)
ICHFILTER	IQUANT	3	Ich Filter
VCHRANGE	IQUANT	2	Vch Range
VCHRANGEMODE	TOGGLE	F	Vch Auto Range
VCHOFFSETENABLE	TOGGLE	T	Vch Offset Enable
VCHOFFSET	QUANT	0	Vch Offset (V)
VCHFILTER	IQUANT	3	Vch Filter
ACHRANGE	IQUANT	2	Ach Range
ACHOFFSETENABLE	TOGGLE	F	Ach Offset Enable
ACHOFFSET	QUANT	0	Ach Offset (V)
ACHFILTER	IQUANT	3	Ach Filter
IERANGELOWERLIMIT	IQUANT	2	I/E Range Lower Limit
IERANGEMODE	TOGGLE	F	I/E AutoRange
IERANGE	IQUANT	11	I/E Range
POSFEEDENABLE	TOGGLE	F	Positive Feedback IR Comp
POSFEEDRESISTANCE	QUANT	0	Positive Feedback Resistance (ohm)
ACHSELECT	IQUANT	0	Ach Select
CABLEID	IQUANT	13	Cable ID
DCCALDATE	LABEL	7/31/2020	DC Calibration Date
ACCALDATE	LABEL	7/31/2020	AC Calibration Date
THERMOSELECT	IQUANT	1	Thermo Select
FRAMEWORKVERSION	QUANT	6.33	Framework Version
INSTRUMENTVERSION	LABEL	3.50	Instrument Version
COMPLIANCEVOLTAGE	IQUANT	0	Compliance Voltage
ZCURVE	TABLE
	Pt	Time	Freq	Zreal	Zimag	Zsig	Zmod	Zphz	Idc	Vdc	IERange
	#	s	Hz	ohm	ohm	V	ohm	°	A	V	#
	0	8	300046.9	17.39795	2.040661	1	17.51722	6.689836	3.310205E-005	0.0005059	10
	1	11	238359.4	17.47561	1.624062	1	17.55091	5.309424	-3.118314E-005	0.0002192	10
	2	14	189328.1	17.53887	1.281499	1	17.58562	4.178962	-1.667145E-005	0.0003503	10
	3	17	150421.9	17.56782	0.982116	1	17.59525	3.199749	7.033969E-005	0.0002287	10
	4	19	119484.4	17.63376	0.7643378	1	17.65032	2.48194	4.467163E-005	0.0006781	10
	5	22	94921.88	17.68977	0.582238	1	17.69934	1.885143	1.422902E-005	0.0005613	10
	6	24	75421.88	17.75497	0.4095426	1	17.7597	1.321371	2.465515E-005	0.0005892	10
	7	27	59859.37	17.82185	0.2635818	1	17.8238	0.8473321	2.481449E-005	0.0006457	10
	8	29	47578.12	17.8899	0.1365773	1	17.89042	0.437406	1.248972E-005	0.0005716	10
	9	32	37828.12	17.95879	0.0179274	1	17.9588	0.0571956	6.417945E-006	0.0005859	10
	10	34	30046.88	18.02871	-0.0974541	1	18.02897	-0.3097091	2.320137E-005	0.0005919	10
	11	37	23859.38	18.10095	-0.2158115	1	18.10224	-0.6830857	2.262914E-005	0.00067	10
	12	39	18984.38	18.16919	-0.3416376	1	18.17241	-1.077213	2.550313E-005	0.0006464	10
	13	41	15046.87	18.2425	-0.4851371	1	18.24895	-1.523352	8.847443E-006	0.0006929	10
	14	44	11953.13	18.31763	-0.6458835	1	18.32902	-2.019424	-2.146978E-006	0.0006133	10
	15	46	9515.62	18.39309	-0.8358639	1	18.41207	-2.601985	-3.229686E-006	0.0006058	10
	16	48	7546.875	18.47663	-1.063931	1	18.50724	-3.295597	2.490082E-005	0.0006089	10
	17	51	5928.309	18.56937	-1.357314	1	18.61891	-4.180558	2.318066E-005	0.0006373	10
	18	53	4733.456	18.6664	-1.696209	1	18.74331	-5.192188	-2.601534E-005	0.0007138	10
	19	55	3796.875	18.76638	-2.098492	1	18.88334	-6.380416	-1.906669E-005	0.0006607	10
	20	57	2987.132	18.88807	-2.636143	1	19.07114	-7.945253	-2.71176E-005	0.0006773	10
	21	60	2390.625	19.01925	-3.254467	1	19.29568	-9.71009	5.600074E-006	0.0005965	10
	22	62	1884.191	19.17349	-4.067378	1	19.60016	-11.97692	2.027387E-005	0.0006502	10
	23	64	1516.544	19.3435	-4.988353	1	19.97635	-14.46053	-2.838388E-005	0.0006765	10
	24	67	1193.986	19.55625	-6.236754	1	20.52666	-17.68819	1.903371E-005	0.0005954	10
	25	69	946.5144	19.80832	-7.75043	1	21.27061	-21.36898	4.372073E-006	0.0006322	10
	26	72	751.7689	20.10436	-9.58621	1	22.27287	-25.49286	-2.556942E-006	0.0006093	10
	27	74	597.4265	20.47103	-11.87533	1	23.66615	-30.1182	-2.693394E-005	0.00069	10
	28	76	477.4305	20.90447	-14.60324	1	25.50003	-34.937	-2.450665E-006	0.000657	10
	29	78	376.6741	21.46213	-18.16509	1	28.1175	-40.24387	-2.034729E-006	0.0006562	10
	30	81	298.2954	22.14268	-22.50573	1	31.57224	-45.46589	-2.2079E-006	0.0006632	10
	31	83	237.7717	22.96048	-27.70251	1	35.98072	-50.34727	-2.237262E-006	0.0006573	10
	32	86	189.0121	23.95172	-34.13189	1	41.69737	-54.94112	1.331587E-006	5.898005E-005	9
	33	88	150.2404	25.21003	-42.08922	1	49.06167	-59.07981	1.248623E-006	6.356627E-005	9
	34	90	119.1737	26.78275	-51.98844	1	58.48174	-62.74395	1.345163E-006	6.240777E-005	9
	35	93	95.0169	28.69048	-63.90377	1	70.04881	-65.82165	1.420577E-006	5.006434E-005	9
	36	95	75.60484	31.08854	-78.6874	1	84.60617	-68.44156	1.270211E-006	5.377501E-005	9
	37	98	54.50582	35.58387	-105.9592	1	111.7746	-71.4366	1.292628E-006	5.38922E-005	9
	38	100	45.95588	38.63168	-123.7477	1	129.6376	-72.66263	1.308643E-006	6.340006E-005	9
	39	103	37.20238	43.22732	-149.9057	1	156.0138	-73.91437	1.209628E-006	6.730007E-005	9
	40	105	30.04808	49.04647	-181.9059	1	188.402	-74.91042	1.227141E-006	6.422435E-005	9
	41	107	23.91582	56.9566	-223.5886	1	230.7291	-75.70852	1.355047E-006	5.427528E-005	9
	42	110	18.60119	68.22348	-280.1352	1	288.323	-76.31277	1.114129E-006	6.447831E-005	9
	43	112	15.02404	80.70029	-339.3047	1	348.7696	-76.62133	1.486986E-006	7.127514E-005	9
	44	114	12.01923	97.3747	-413.6464	1	424.9531	-76.75343	1.258736E-006	5.611897E-005	9
	45	117	9.450605	119.8485	-509.0918	1	523.0087	-76.75285	5.333937E-007	0.0006505	8
	46	119	7.512019	148.0789	-622.0707	1	639.4523	-76.6104	5.137177E-007	0.000653	8
	47	122	5.978954	183.622	-756.8892	1	778.8442	-76.36345	5.093243E-007	0.0006411	8
	48	125	4.734848	229.5935	-923.5552	1	951.666	-76.03941	5.715247E-007	0.0006229	8
	49	128	3.75601	285.1934	-1122.531	1	1158.193	-75.74488	5.916417E-007	0.0006462	8
	50	132	3.004808	350.0882	-1350.94	1	1395.565	-75.47173	6.036306E-007	0.000611	8
	51	135	2.372217	433.9588	-1643.386	1	1699.717	-75.20791	5.772296E-007	0.0005587	8
	52	140	1.878005	528.3365	-1992.363	1	2061.225	-75.14809	6.214102E-007	0.0006422	8
	53	144	1.512097	630.0215	-2376.024	1	2458.133	-75.14932	5.662673E-007	0.0006184	8
	54	150	1.201923	756.5366	-2881.915	1	2979.561	-75.29106	6.056189E-007	0.000661	8
	55	156	0.956633	898.9775	-3484.298	1	3598.402	-75.53273	5.692877E-007	4.479955E-005	8
