EXPLAIN
TAG	EISPOT
TITLE	LABEL	Potentiostatic EIS	Test Identifier
DATE	LABEL	9/12/2020	Date
TIME	LABEL	13:46:24	Time
NOTES	NOTES	1	Notes...
	
PSTAT	PSTAT	REF3000-16137	Potentiostat
VDC	POTEN	0.00000E+000	T	DC Voltage (V)
FREQINIT	QUANT	3.00000E+005	Initial Freq. (Hz)
FREQFINAL	QUANT	1.00000E+000	Final Freq. (Hz)
PTSPERDEC	QUANT	1.00000E+001	Points/decade
VAC	QUANT	5.00000E+001	AC Voltage (mV rms)
AREA	QUANT	1.00000E+000	Sample Area (cm^2)
SPEED	SELECTOR	2	Optimize for:
ZGUESS	QUANT	1.00000E+003	Estimated Z (ohms)
EOC	QUANT	0	Open Circuit (V)
SEQUENCER	TOGGLE	TRUE	Run as Sequence
PSTATMODEL	IQUANT	5	Pstat Model
PSTATSECTION	LABEL	REF3000-16137	Pstat Section
PSTATSERIALNO	LABEL	16137	Pstat Serial Number
CTRLMODE	IQUANT	1	Control Mode
IESTAB	IQUANT	0	I/E Stability
CASPEED	IQUANT	1	Control Amp Speed
CONVENTION	IQUANT	1	Current Convention
ICHRANGE	IQUANT	2	Ich Range
ICHRANGEMODE	TOGGLE	F	Ich Auto Range
ICHOFFSETENABLE	TOGGLE	T	Ich Offset Enable
ICHOFFSET	QUANT	0	Ich Offset (V)
ICHFILTER	IQUANT	3	Ich Filter
VCHRANGE	IQUANT	2	Vch Range
VCHRANGEMODE	TOGGLE	F	Vch Auto Range
VCHOFFSETENABLE	TOGGLE	T	Vch Offset Enable
VCHOFFSET	QUANT	0	Vch Offset (V)
VCHFILTER	IQUANT	3	Vch Filter
ACHRANGE	IQUANT	2	Ach Range
ACHOFFSETENABLE	TOGGLE	F	Ach Offset Enable
ACHOFFSET	QUANT	0	Ach Offset (V)
ACHFILTER	IQUANT	3	Ach Filter
IERANGELOWERLIMIT	IQUANT	2	I/E Range Lower Limit
IERANGEMODE	TOGGLE	F	I/E AutoRange
IERANGE	IQUANT	11	I/E Range
POSFEEDENABLE	TOGGLE	F	Positive Feedback IR Comp
POSFEEDRESISTANCE	QUANT	0	Positive Feedback Resistance (ohm)
ACHSELECT	IQUANT	0	Ach Select
CABLEID	IQUANT	13	Cable ID
DCCALDATE	LABEL	7/31/2020	DC Calibration Date
ACCALDATE	LABEL	7/31/2020	AC Calibration Date
THERMOSELECT	IQUANT	1	Thermo Select
FRAMEWORKVERSION	QUANT	6.33	Framework Version
INSTRUMENTVERSION	LABEL	3.50	Instrument Version
COMPLIANCEVOLTAGE	IQUANT	0	Compliance Voltage
ZCURVE	TABLE
	Pt	Time	Freq	Zreal	Zimag	Zsig	Zmod	Zphz	Idc	Vdc	IERange
	#	s	Hz	ohm	ohm	V	ohm	°	A	V	#
	0	10	300046.9	2.904448	2.281866	1	3.693607	38.15479	-0.0001091	-0.0001924	10
	1	13	238359.4	2.88086	1.797835	1	3.395816	31.96672	7.441075E-005	-0.0007692	10
	2	16	189328.1	2.941675	1.199481	1	3.176823	22.1834	-0.0001413	-0.0003177	12
	3	20	150421.9	2.859665	1.097667	1	3.063096	20.99903	9.581163E-006	0.0004159	11
	4	22	119484.4	2.844995	0.8524085	1	2.969949	16.6791	-0.0001069	0.0004573	11
	5	25	94921.88	2.83787	0.6516044	1	2.911717	12.93156	-3.468208E-005	0.0005112	11
	6	27	75421.88	2.837774	0.4828952	1	2.878567	9.65734	-2.951527E-005	0.0005647	11
	7	30	59859.37	2.838476	0.3397697	1	2.858739	6.825909	-9.606357E-006	0.0005923	11
	8	33	47578.12	2.84188	0.2161932	1	2.850091	4.35034	1.223638E-005	0.000653	11
	9	35	37828.12	2.847121	0.1051648	1	2.849063	2.115386	-3.136758E-005	0.0007135	11
	10	38	30046.88	2.852243	0.0002532	1	2.852243	0.0050855	-4.604479E-005	0.0006175	11
	11	40	23859.38	2.860672	-0.1032063	1	2.862533	-2.066201	-2.774785E-005	0.0006491	11
	12	42	18984.38	2.870115	-0.2093756	1	2.877742	-4.17235	2.28605E-005	0.0006985	11
	13	45	15046.87	2.881665	-0.3263192	1	2.900083	-6.460639	-1.126092E-005	0.0006544	11
	14	47	11953.13	2.895452	-0.4564215	1	2.931205	-8.958047	-5.415041E-005	0.000636	11
	15	49	9515.62	2.912883	-0.6057269	1	2.975196	-11.7471	-1.049229E-005	0.0006596	11
	16	52	7546.875	2.935191	-0.7844659	1	3.038212	-14.96328	-2.681282E-005	0.0007464	11
	17	54	5928.309	2.963416	-1.009706	1	3.130709	-18.8152	-3.667532E-005	0.0006661	11
	18	56	4733.456	2.996049	-1.264501	1	3.251965	-22.88247	-7.020706E-006	0.0006729	11
	19	59	3796.875	3.036204	-1.567313	1	3.41687	-27.30314	-3.384506E-005	0.0006546	11
	20	61	2987.132	3.091132	-1.968343	1	3.664625	-32.4878	2.167622E-005	0.0006995	11
	21	63	2390.625	3.159069	-2.427644	1	3.984115	-37.54113	9.771835E-006	0.0006209	10
	22	66	1884.191	3.242825	-3.032612	1	4.439893	-43.08144	-1.402787E-005	0.0006736	10
	23	68	1516.544	3.341145	-3.706692	1	4.990272	-47.96907	1.528614E-005	0.0006206	10
	24	70	1193.986	3.47493	-4.620824	1	5.781622	-53.05628	9.664417E-006	0.0006178	10
	25	73	946.5144	3.64038	-5.719121	1	6.779433	-57.52211	-1.762837E-005	0.0006732	10
	26	75	751.7689	3.843991	-7.065603	1	8.04357	-61.45192	-2.350482E-005	0.0006572	10
	27	77	597.4265	4.1055	-8.718925	1	9.63716	-64.78555	-1.052593E-005	0.0006439	10
	28	80	477.4305	4.429068	-10.70189	1	11.58219	-67.51737	-1.87152E-006	0.0006605	10
	29	82	376.6741	4.869047	-13.28174	1	14.14611	-69.86722	-1.858531E-006	0.0006528	10
	30	84	298.2954	5.430496	-16.4169	1	17.29176	-71.69646	-2.163204E-006	0.0006497	10
	31	87	237.7717	6.136136	-20.15347	1	21.06691	-73.06606	-2.700041E-006	0.000651	10
	32	89	189.0121	7.058758	-24.77646	1	25.76235	-74.09786	-2.829246E-006	0.0006499	10
	33	91	150.2404	8.258902	-30.42642	1	31.5274	-74.81364	-2.328076E-006	0.0006516	10
	34	94	119.1737	9.82538	-37.36812	1	38.63825	-75.26839	-1.935817E-006	0.0006559	10
	35	96	95.0169	11.78815	-45.54304	1	47.0439	-75.48831	6.579112E-007	5.012026E-005	9
	36	99	75.60484	14.33042	-55.54147	1	57.3604	-75.53248	5.830819E-007	5.075148E-005	9
	37	101	54.50582	19.17367	-73.47505	1	75.93559	-75.37455	3.895777E-007	5.070862E-005	9
	38	104	45.95588	22.36538	-84.85676	1	87.75465	-75.23456	8.282124E-007	5.287691E-005	9
	39	106	37.20238	27.03699	-101.216	1	104.7648	-75.04424	6.744183E-007	5.35897E-005	9
	40	108	30.04808	32.60246	-120.7093	1	125.0346	-74.88558	5.645647E-007	5.728451E-005	9
	41	111	23.91582	39.62929	-145.5793	1	150.8768	-74.77205	5.824536E-007	4.963478E-005	9
	42	113	18.60119	48.77035	-178.771	1	185.3041	-74.74052	6.383859E-007	6.272036E-005	9
	43	115	15.02404	57.6152	-212.843	1	220.5032	-74.8534	8.926628E-007	6.343667E-005	9
	44	118	12.01923	68.05615	-255.5648	1	264.4712	-75.08836	7.081717E-007	5.154899E-005	9
	45	120	9.450605	80.69189	-312.0157	1	322.2809	-75.50014	8.188186E-007	5.476182E-005	9
	46	123	7.512019	93.96979	-378.4563	1	389.9481	-76.0556	8.905697E-007	7.538273E-005	9
	47	125	5.978954	108.7621	-458.2723	1	471.0018	-76.64896	7.146974E-008	0.0006369	8
	48	128	4.734848	126.5985	-561.9086	1	575.9935	-77.30321	1.661E-007	0.0006534	8
	49	132	3.75601	148.1905	-689.2852	1	705.035	-77.86658	5.756976E-008	0.0006153	8
	50	135	3.004808	173.7181	-840.9337	1	858.6893	-78.32816	1.273877E-007	0.0006255	8
	51	139	2.372217	209.0723	-1039.562	1	1060.377	-78.62861	1.220522E-007	0.000636	8
	52	143	1.878005	254.6837	-1287.943	1	1312.883	-78.81438	4.888927E-008	0.0006252	8
	53	148	1.512097	307.3889	-1568.899	1	1598.729	-78.91467	9.323132E-008	0.0005282	8
	54	153	1.201923	387.3215	-1936.636	1	1974.988	-78.69023	6.542495E-008	0.0006368	8
	55	159	0.956633	492.9377	-2384.269	1	2434.692	-78.31891	5.468537E-008	-1.078995E-005	8
