EXPLAIN
TAG	EISPOT
TITLE	LABEL	Potentiostatic EIS	Test Identifier
DATE	LABEL	9/12/2020	Date
TIME	LABEL	14:11:37	Time
NOTES	NOTES	1	Notes...
	
PSTAT	PSTAT	REF3000-16137	Potentiostat
VDC	POTEN	0.00000E+000	T	DC Voltage (V)
FREQINIT	QUANT	3.00000E+005	Initial Freq. (Hz)
FREQFINAL	QUANT	1.00000E+000	Final Freq. (Hz)
PTSPERDEC	QUANT	1.00000E+001	Points/decade
VAC	QUANT	5.00000E+001	AC Voltage (mV rms)
AREA	QUANT	1.00000E+000	Sample Area (cm^2)
SPEED	SELECTOR	2	Optimize for:
ZGUESS	QUANT	1.00000E+003	Estimated Z (ohms)
EOC	QUANT	0	Open Circuit (V)
SEQUENCER	TOGGLE	TRUE	Run as Sequence
PSTATMODEL	IQUANT	5	Pstat Model
PSTATSECTION	LABEL	REF3000-16137	Pstat Section
PSTATSERIALNO	LABEL	16137	Pstat Serial Number
CTRLMODE	IQUANT	1	Control Mode
IESTAB	IQUANT	0	I/E Stability
CASPEED	IQUANT	1	Control Amp Speed
CONVENTION	IQUANT	1	Current Convention
ICHRANGE	IQUANT	2	Ich Range
ICHRANGEMODE	TOGGLE	F	Ich Auto Range
ICHOFFSETENABLE	TOGGLE	T	Ich Offset Enable
ICHOFFSET	QUANT	0	Ich Offset (V)
ICHFILTER	IQUANT	3	Ich Filter
VCHRANGE	IQUANT	2	Vch Range
VCHRANGEMODE	TOGGLE	F	Vch Auto Range
VCHOFFSETENABLE	TOGGLE	T	Vch Offset Enable
VCHOFFSET	QUANT	0	Vch Offset (V)
VCHFILTER	IQUANT	3	Vch Filter
ACHRANGE	IQUANT	2	Ach Range
ACHOFFSETENABLE	TOGGLE	F	Ach Offset Enable
ACHOFFSET	QUANT	0	Ach Offset (V)
ACHFILTER	IQUANT	3	Ach Filter
IERANGELOWERLIMIT	IQUANT	2	I/E Range Lower Limit
IERANGEMODE	TOGGLE	F	I/E AutoRange
IERANGE	IQUANT	11	I/E Range
POSFEEDENABLE	TOGGLE	F	Positive Feedback IR Comp
POSFEEDRESISTANCE	QUANT	0	Positive Feedback Resistance (ohm)
ACHSELECT	IQUANT	0	Ach Select
CABLEID	IQUANT	13	Cable ID
DCCALDATE	LABEL	7/31/2020	DC Calibration Date
ACCALDATE	LABEL	7/31/2020	AC Calibration Date
THERMOSELECT	IQUANT	1	Thermo Select
FRAMEWORKVERSION	QUANT	6.33	Framework Version
INSTRUMENTVERSION	LABEL	3.50	Instrument Version
COMPLIANCEVOLTAGE	IQUANT	0	Compliance Voltage
ZCURVE	TABLE
	Pt	Time	Freq	Zreal	Zimag	Zsig	Zmod	Zphz	Idc	Vdc	IERange
	#	s	Hz	ohm	ohm	V	ohm	°	A	V	#
	0	9	300046.9	6.978955	2.216072	1	7.322349	17.61654	2.45077E-005	0.000171	10
	1	12	238359.4	6.95097	1.76072	1	7.170504	14.21436	-6.730227E-006	-7.363068E-005	10
	2	16	189328.1	6.941303	1.390302	1	7.079168	11.32613	2.365551E-005	0.0003183	10
	3	18	150421.9	6.957257	1.084952	1	7.041346	8.863622	-1.045815E-006	0.000312	10
	4	21	119484.4	6.954951	0.8402639	1	7.005525	6.888814	-6.612514E-006	0.0005535	10
	5	23	94921.88	6.967474	0.6610261	1	6.99876	5.419609	-2.806076E-005	0.0005422	10
	6	26	75421.88	6.978878	0.4812254	1	6.99545	3.944561	-1.273299E-005	0.0005337	10
	7	28	59859.37	6.992386	0.325884	1	6.999976	2.668371	1.768515E-005	0.0005644	10
	8	31	47578.12	7.011649	0.193155	1	7.014309	1.577969	-2.978129E-005	0.0006045	10
	9	33	37828.12	7.031521	0.0722597	1	7.031893	0.5887812	1.247929E-005	0.0005968	10
	10	36	30046.88	7.054586	-0.0409247	1	7.054705	-0.3323775	9.445986E-006	0.0006486	10
	11	38	23859.38	7.075589	-0.1544088	1	7.077274	-1.250153	1.693209E-005	0.0005915	10
	12	41	18984.38	7.099227	-0.2726579	1	7.104461	-2.199461	2.25426E-005	0.0006355	10
	13	43	15046.87	7.124668	-0.4048623	1	7.136162	-3.252359	-4.915364E-006	0.0006392	10
	14	45	11953.13	7.152521	-0.5530391	1	7.17387	-4.421362	-2.99063E-005	0.0006495	10
	15	48	9515.62	7.184263	-0.7247682	1	7.220729	-5.760666	1.111301E-005	0.0006029	10
	16	50	7546.875	7.220489	-0.9344979	1	7.280711	-7.374404	-2.569726E-005	0.0006428	10
	17	52	5928.309	7.263771	-1.197462	1	7.361812	-9.361244	-2.77893E-005	0.0006745	10
	18	54	4733.456	7.311444	-1.497287	1	7.463182	-11.5734	5.260319E-006	0.0006519	10
	19	57	3796.875	7.367558	-1.854732	1	7.59743	-14.1302	1.05904E-005	0.000607	10
	20	59	2987.132	7.438615	-2.331383	1	7.795405	-17.40184	1.959512E-005	0.0006188	10
	21	61	2390.625	7.520427	-2.880342	1	8.053148	-20.95696	2.637909E-006	0.0006068	10
	22	64	1884.191	7.626236	-3.598968	1	8.432796	-25.26353	-5.694225E-006	0.0006622	10
	23	66	1516.544	7.744113	-4.406775	1	8.91016	-29.64197	6.22899E-006	0.0006522	10
	24	68	1193.986	7.906998	-5.499438	1	9.63143	-34.8192	-3.976126E-006	0.000619	10
	25	71	946.5144	8.104121	-6.809941	1	10.58547	-40.04053	4.007201E-006	0.000612	10
	26	73	751.7689	8.339828	-8.428287	1	11.85701	-45.30225	2.063724E-005	0.0006118	10
	27	75	597.4265	8.635609	-10.41233	1	13.52739	-50.32891	-2.540995E-005	0.0006773	10
	28	78	477.4305	8.99296	-12.78226	1	15.6288	-54.8717	-2.670978E-006	0.0006542	10
	29	80	376.6741	9.463269	-15.87826	1	18.48439	-59.20552	-2.931397E-006	0.0006507	10
	30	82	298.2954	10.04195	-19.65242	1	22.0694	-62.93399	-3.082491E-006	0.0006528	10
	31	85	237.7717	10.74814	-24.17462	1	26.45628	-66.02988	-2.702308E-006	0.0006558	10
	32	87	189.0121	11.64644	-29.8129	1	32.007	-68.66185	-2.998022E-006	0.0006551	10
	33	89	150.2404	12.78103	-36.75197	1	38.91095	-70.82414	-2.766412E-006	0.0006525	10
	34	92	119.1737	14.22142	-45.32921	1	47.50775	-72.58147	1.287363E-006	5.741796E-005	9
	35	94	95.0169	16.04201	-55.6828	1	57.94757	-73.9285	1.279516E-006	5.595719E-005	9
	36	97	75.60484	18.398	-68.49054	1	70.91855	-74.9641	1.240294E-006	5.732987E-005	9
	37	99	54.50582	23.00205	-91.96216	1	94.79521	-75.95701	1.188928E-006	4.732022E-005	9
	38	102	45.95588	26.1775	-107.1778	1	110.3284	-76.2746	1.299585E-006	5.897828E-005	9
	39	104	37.20238	31.03791	-129.3541	1	133.0257	-76.50723	1.361177E-006	5.686116E-005	9
	40	107	30.04808	37.24487	-156.2062	1	160.585	-76.58913	1.241984E-006	5.583251E-005	9
	41	109	23.91582	45.72551	-190.7115	1	196.1166	-76.51712	9.324245E-007	0.0001105	9
	42	111	18.60119	57.72985	-236.9917	1	243.9217	-76.3097	1.578154E-006	5.252482E-005	9
	43	114	15.02404	70.60606	-284.4909	1	293.1217	-76.06174	1.21145E-006	4.759034E-005	9
	44	116	12.01923	87.02072	-343.2632	1	354.1217	-75.77462	1.413529E-006	5.614502E-005	9
	45	118	9.450605	108.1061	-417.7589	1	431.5199	-75.49147	6.755496E-007	0.0006363	8
	46	121	7.512019	132.5764	-504.8925	1	522.0085	-75.28723	6.658083E-007	0.0006536	8
	47	124	5.978954	161.2699	-609.1861	1	630.1711	-75.17222	5.881257E-007	0.000634	8
	48	127	4.734848	195.3168	-738.398	1	763.7933	-75.18378	6.67686E-007	0.0006438	8
	49	130	3.75601	234.1895	-893.2034	1	923.3943	-75.30828	5.837737E-007	0.0006331	8
	50	133	3.004808	276.5329	-1074.056	1	1109.083	-75.56186	6.455972E-007	0.0006016	8
	51	137	2.372217	326.513	-1308.852	1	1348.964	-75.9926	6.122349E-007	0.0005735	8
	52	141	1.878005	384.2637	-1595.992	1	1641.6	-76.46268	6.105847E-007	0.0006412	8
	53	146	1.512097	446.3689	-1921.597	1	1972.76	-76.92265	5.791908E-007	0.0005447	8
	54	151	1.201923	518.7799	-2353.87	1	2410.36	-77.57102	6.134965E-007	0.0006599	8
	55	158	0.956633	607.4952	-2884.101	1	2947.387	-78.10533	5.961804E-007	-7.680783E-006	8
