EXPLAIN
TAG	EISPOT
TITLE	LABEL	Potentiostatic EIS	Test Identifier
DATE	LABEL	9/12/2020	Date
TIME	LABEL	14:44:42	Time
NOTES	NOTES	1	Notes...
	
PSTAT	PSTAT	REF3000-16137	Potentiostat
VDC	POTEN	0.00000E+000	T	DC Voltage (V)
FREQINIT	QUANT	3.00000E+005	Initial Freq. (Hz)
FREQFINAL	QUANT	1.00000E+000	Final Freq. (Hz)
PTSPERDEC	QUANT	1.00000E+001	Points/decade
VAC	QUANT	5.00000E+001	AC Voltage (mV rms)
AREA	QUANT	1.00000E+000	Sample Area (cm^2)
SPEED	SELECTOR	2	Optimize for:
ZGUESS	QUANT	1.00000E+003	Estimated Z (ohms)
EOC	QUANT	0	Open Circuit (V)
SEQUENCER	TOGGLE	TRUE	Run as Sequence
PSTATMODEL	IQUANT	5	Pstat Model
PSTATSECTION	LABEL	REF3000-16137	Pstat Section
PSTATSERIALNO	LABEL	16137	Pstat Serial Number
CTRLMODE	IQUANT	1	Control Mode
IESTAB	IQUANT	0	I/E Stability
CASPEED	IQUANT	1	Control Amp Speed
CONVENTION	IQUANT	1	Current Convention
ICHRANGE	IQUANT	2	Ich Range
ICHRANGEMODE	TOGGLE	F	Ich Auto Range
ICHOFFSETENABLE	TOGGLE	T	Ich Offset Enable
ICHOFFSET	QUANT	0	Ich Offset (V)
ICHFILTER	IQUANT	3	Ich Filter
VCHRANGE	IQUANT	2	Vch Range
VCHRANGEMODE	TOGGLE	F	Vch Auto Range
VCHOFFSETENABLE	TOGGLE	T	Vch Offset Enable
VCHOFFSET	QUANT	0	Vch Offset (V)
VCHFILTER	IQUANT	3	Vch Filter
ACHRANGE	IQUANT	2	Ach Range
ACHOFFSETENABLE	TOGGLE	F	Ach Offset Enable
ACHOFFSET	QUANT	0	Ach Offset (V)
ACHFILTER	IQUANT	3	Ach Filter
IERANGELOWERLIMIT	IQUANT	2	I/E Range Lower Limit
IERANGEMODE	TOGGLE	F	I/E AutoRange
IERANGE	IQUANT	11	I/E Range
POSFEEDENABLE	TOGGLE	F	Positive Feedback IR Comp
POSFEEDRESISTANCE	QUANT	0	Positive Feedback Resistance (ohm)
ACHSELECT	IQUANT	0	Ach Select
CABLEID	IQUANT	13	Cable ID
DCCALDATE	LABEL	7/31/2020	DC Calibration Date
ACCALDATE	LABEL	7/31/2020	AC Calibration Date
THERMOSELECT	IQUANT	1	Thermo Select
FRAMEWORKVERSION	QUANT	6.33	Framework Version
INSTRUMENTVERSION	LABEL	3.50	Instrument Version
COMPLIANCEVOLTAGE	IQUANT	0	Compliance Voltage
ZCURVE	TABLE
	Pt	Time	Freq	Zreal	Zimag	Zsig	Zmod	Zphz	Idc	Vdc	IERange
	#	s	Hz	ohm	ohm	V	ohm	°	A	V	#
	0	7	300046.9	148.7874	-2.928287	1	148.8162	-1.127494	1.12885E-005	-0.0018788	9
	1	10	238359.4	150.1641	-2.433886	1	150.1838	-0.9285787	-8.802772E-005	0.002937	9
	2	13	189328.1	151.3641	-2.066813	1	151.3782	-0.7823009	1.637564E-005	-0.0009208	9
	3	15	150421.9	152.3217	-1.824966	1	152.3327	-0.6864275	1.870333E-005	-0.0013049	9
	4	18	119484.4	153.4747	-1.680444	1	153.4839	-0.6273249	6.910661E-005	-0.0015536	9
	5	20	94921.88	154.2549	-1.277386	1	154.2602	-0.4744559	-1.75763E-006	-0.000381	9
	6	23	75421.88	155.352	-1.190243	1	155.3565	-0.438968	-2.030479E-005	0.0004632	9
	7	25	59859.37	156.3336	-1.176311	1	156.3381	-0.4311062	1.444465E-005	-0.0007513	9
	8	28	47578.12	157.4298	-1.032552	1	157.4332	-0.3757869	-1.932632E-005	0.000851	9
	9	30	37828.12	158.4262	-0.9428911	1	158.429	-0.3409981	-1.446855E-005	0.0009195	9
	10	33	30046.88	159.4229	-0.8765209	1	159.4253	-0.3150141	-1.709845E-005	0.0003665	9
	11	36	23859.38	160.479	-0.931857	1	160.4817	-0.3326969	2.040381E-005	-0.0007847	9
	12	38	18984.38	161.4431	-1.021758	1	161.4463	-0.3626147	2.456175E-005	-0.0004776	9
	13	40	15046.87	162.2156	-1.180605	1	162.2199	-0.4169913	2.340481E-005	-0.0002352	9
	14	42	11953.13	163.2341	-1.411992	1	163.2402	-0.4956023	-1.817915E-005	0.0003386	9
	15	45	9515.62	164.2955	-1.396455	1	164.3015	-0.4869826	2.553597E-005	-0.0006013	9
	16	47	7546.875	165.3891	-1.673084	1	165.3976	-0.5795872	1.847663E-006	0.0005869	9
	17	49	5928.309	166.3689	-1.988456	1	166.3807	-0.6847719	2.51742E-005	-0.0004755	9
	18	52	4733.456	167.2406	-2.47753	1	167.2589	-0.8487275	2.149536E-005	-0.0008213	9
	19	54	3796.875	168.1142	-2.741059	1	168.1365	-0.9341105	2.078144E-005	-8.323502E-005	9
	20	56	2987.132	169.3095	-3.452177	1	169.3447	-1.168084	1.511252E-005	-0.0007795	9
	21	59	2390.625	170.5784	-4.361629	1	170.6341	-1.464714	2.54441E-005	-0.0004975	9
	22	61	1884.191	171.6171	-5.16745	1	171.6949	-1.724675	1.866723E-006	0.0005526	9
	23	63	1516.544	172.8275	-6.38674	1	172.9455	-2.116369	-2.008548E-005	0.0009146	9
	24	66	1193.986	173.8491	-8.035215	1	174.0347	-2.646297	-9.684994E-006	-7.251542E-005	9
	25	68	946.5144	175.4	-9.94515	1	175.6817	-3.245186	1.510572E-005	-0.0007624	9
	26	70	751.7689	176.2973	-12.06292	1	176.7096	-3.914289	1.466125E-005	-0.0007665	9
	27	73	597.4265	177.5508	-15.0041	1	178.1836	-4.830359	-2.067066E-005	0.0009318	9
	28	75	477.4305	179.2517	-18.50076	1	180.2039	-5.892693	1.155099E-006	5.715178E-005	9
	29	77	376.6741	180.8034	-23.06519	1	182.2687	-7.269983	1.24832E-006	4.918335E-005	9
	30	80	298.2954	182.4848	-28.66922	1	184.7231	-8.928455	1.296318E-006	5.099753E-005	9
	31	82	237.7717	184.3575	-35.4293	1	187.7309	-10.87832	1.227289E-006	5.370275E-005	9
	32	84	189.0121	186.448	-43.88226	1	191.5424	-13.24406	1.159827E-006	6.189044E-005	9
	33	87	150.2404	188.8163	-54.3523	1	196.4835	-16.05889	1.136783E-006	5.735568E-005	9
	34	89	119.1737	191.546	-67.4427	1	203.0723	-19.397	1.194591E-006	5.465425E-005	9
	35	92	95.0169	194.7081	-83.23748	1	211.7539	-23.14665	1.226731E-006	5.443908E-005	9
	36	94	75.60484	198.489	-102.8838	1	223.5687	-27.39928	1.250523E-006	5.125954E-005	9
	37	97	54.50582	204.6879	-139.1596	1	247.5127	-34.21031	1.15856E-006	5.251545E-005	9
	38	99	45.95588	209.2586	-162.8864	1	265.1813	-37.8971	1.220001E-006	0.0001052	9
	39	101	37.20238	215.454	-197.7564	1	292.4517	-42.54754	1.216286E-006	5.947825E-005	9
	40	104	30.04808	222.9783	-240.4822	1	327.9496	-47.16291	1.24409E-006	6.126198E-005	9
	41	106	23.91582	232.7139	-296.2173	1	376.6967	-51.84615	1.241936E-006	5.771274E-005	9
	42	109	18.60119	244.6599	-370.8271	1	444.2648	-56.58445	8.843838E-008	0.0006376	8
	43	111	15.02404	258.5079	-450.2284	1	519.1647	-60.13682	-3.84536E-009	0.0006288	8
	44	113	12.01923	275.8885	-551.3799	1	616.5503	-63.41845	2.10883E-008	0.0006236	8
	45	116	9.450605	299.0307	-685.5902	1	747.9661	-66.43484	2.96652E-008	0.0006485	8
	46	118	7.512019	326.9755	-844.2255	1	905.334	-68.8282	9.11083E-009	0.0006392	8
	47	121	5.978954	360.9483	-1037.567	1	1098.557	-70.81826	2.465169E-008	0.0006355	8
	48	124	4.734848	405.3672	-1281.512	1	1344.097	-72.44682	5.754342E-008	0.0006063	8
	49	127	3.75601	460.1376	-1579.942	1	1645.583	-73.76248	7.686013E-008	0.0006519	8
	50	130	3.004808	526.4368	-1931.487	1	2001.943	-74.75406	6.412263E-008	0.0006369	8
	51	134	2.372217	618.6154	-2387.14	1	2465.993	-75.47168	5.717169E-008	0.0006062	8
	52	138	1.878005	733.8773	-2952.137	1	3041.988	-76.03972	8.88383E-008	0.0006218	8
	53	143	1.512097	864.4027	-3583.272	1	3686.059	-76.4375	5.452905E-008	0.0007126	8
	54	148	1.201923	1056.062	-4412.678	1	4537.289	-76.54087	2.043448E-008	0.0006017	7
	55	155	0.956633	1287.039	-5401.686	1	5552.898	-76.59824	-2.568282E-008	-3.479759E-005	7
