EXPLAIN
TAG	EISPOT
TITLE	LABEL	Potentiostatic EIS	Test Identifier
DATE	LABEL	9/12/2020	Date
TIME	LABEL	14:22:40	Time
NOTES	NOTES	1	Notes...
	
PSTAT	PSTAT	REF3000-16137	Potentiostat
VDC	POTEN	0.00000E+000	T	DC Voltage (V)
FREQINIT	QUANT	3.00000E+005	Initial Freq. (Hz)
FREQFINAL	QUANT	1.00000E+000	Final Freq. (Hz)
PTSPERDEC	QUANT	1.00000E+001	Points/decade
VAC	QUANT	5.00000E+001	AC Voltage (mV rms)
AREA	QUANT	1.00000E+000	Sample Area (cm^2)
SPEED	SELECTOR	2	Optimize for:
ZGUESS	QUANT	1.00000E+003	Estimated Z (ohms)
EOC	QUANT	0	Open Circuit (V)
SEQUENCER	TOGGLE	TRUE	Run as Sequence
PSTATMODEL	IQUANT	5	Pstat Model
PSTATSECTION	LABEL	REF3000-16137	Pstat Section
PSTATSERIALNO	LABEL	16137	Pstat Serial Number
CTRLMODE	IQUANT	1	Control Mode
IESTAB	IQUANT	0	I/E Stability
CASPEED	IQUANT	1	Control Amp Speed
CONVENTION	IQUANT	1	Current Convention
ICHRANGE	IQUANT	2	Ich Range
ICHRANGEMODE	TOGGLE	F	Ich Auto Range
ICHOFFSETENABLE	TOGGLE	T	Ich Offset Enable
ICHOFFSET	QUANT	0	Ich Offset (V)
ICHFILTER	IQUANT	3	Ich Filter
VCHRANGE	IQUANT	2	Vch Range
VCHRANGEMODE	TOGGLE	F	Vch Auto Range
VCHOFFSETENABLE	TOGGLE	T	Vch Offset Enable
VCHOFFSET	QUANT	0	Vch Offset (V)
VCHFILTER	IQUANT	3	Vch Filter
ACHRANGE	IQUANT	2	Ach Range
ACHOFFSETENABLE	TOGGLE	F	Ach Offset Enable
ACHOFFSET	QUANT	0	Ach Offset (V)
ACHFILTER	IQUANT	3	Ach Filter
IERANGELOWERLIMIT	IQUANT	2	I/E Range Lower Limit
IERANGEMODE	TOGGLE	F	I/E AutoRange
IERANGE	IQUANT	11	I/E Range
POSFEEDENABLE	TOGGLE	F	Positive Feedback IR Comp
POSFEEDRESISTANCE	QUANT	0	Positive Feedback Resistance (ohm)
ACHSELECT	IQUANT	0	Ach Select
CABLEID	IQUANT	13	Cable ID
DCCALDATE	LABEL	7/31/2020	DC Calibration Date
ACCALDATE	LABEL	7/31/2020	AC Calibration Date
THERMOSELECT	IQUANT	1	Thermo Select
FRAMEWORKVERSION	QUANT	6.33	Framework Version
INSTRUMENTVERSION	LABEL	3.50	Instrument Version
COMPLIANCEVOLTAGE	IQUANT	0	Compliance Voltage
ZCURVE	TABLE
	Pt	Time	Freq	Zreal	Zimag	Zsig	Zmod	Zphz	Idc	Vdc	IERange
	#	s	Hz	ohm	ohm	V	ohm	°	A	V	#
	0	8	300046.9	14.02282	2.133973	1	14.18426	8.652805	-4.807564E-005	0.0003318	10
	1	11	238359.4	14.04335	1.673657	1	14.14273	6.796337	-8.387508E-005	0.0004087	10
	2	15	189328.1	14.07164	1.319364	1	14.13336	5.356419	7.674644E-005	0.0000957	10
	3	17	150421.9	14.10667	1.01878	1	14.14341	4.130717	1.88144E-005	0.0004834	10
	4	20	119484.4	14.14725	0.7895885	1	14.16927	3.194486	2.246923E-005	0.0006	10
	5	22	94921.88	14.18616	0.6108153	1	14.1993	2.46547	4.61847E-006	0.0005534	10
	6	25	75421.88	14.2331	0.4340454	1	14.23972	1.746722	-2.584626E-005	0.0006698	10
	7	27	59859.37	14.28093	0.2822497	1	14.28371	1.132253	1.415673E-005	0.0005979	10
	8	30	47578.12	14.33396	0.1538294	1	14.33479	0.6148638	-2.209072E-005	0.00067	10
	9	32	37828.12	14.38349	0.0341467	1	14.38353	0.1360211	1.982426E-005	0.0006057	10
	10	35	30046.88	14.43764	-0.0813659	1	14.43787	-0.322897	2.208932E-005	0.0006147	10
	11	37	23859.38	14.49006	-0.1979719	1	14.49141	-0.7827609	3.173658E-006	0.0006195	10
	12	40	18984.38	14.54476	-0.3222385	1	14.54833	-1.269178	-1.729969E-005	0.0006651	10
	13	42	15046.87	14.60057	-0.4630896	1	14.60791	-1.816654	-2.561072E-005	0.0006401	10
	14	44	11953.13	14.65895	-0.6234975	1	14.67221	-2.435526	-2.360699E-005	0.0006557	10
	15	46	9515.62	14.72165	-0.8075082	1	14.74378	-3.139628	-2.230552E-005	0.0006951	10
	16	49	7546.875	14.78802	-1.0324	1	14.82402	-3.993526	-2.407412E-005	0.0007452	10
	17	51	5928.309	14.86052	-1.319111	1	14.91895	-5.07263	2.093395E-005	0.000643	10
	18	53	4733.456	14.93921	-1.648188	1	15.02985	-6.295772	-1.066974E-005	0.0006377	10
	19	56	3796.875	15.03015	-2.039947	1	15.16795	-7.729165	2.217212E-005	0.000624	10
	20	58	2987.132	15.13105	-2.56551	1	15.34701	-9.62313	4.946172E-006	0.0006602	10
	21	60	2390.625	15.2435	-3.166743	1	15.56896	-11.73592	1.448211E-005	0.0006849	10
	22	63	1884.191	15.38263	-3.961249	1	15.88448	-14.44074	1.915048E-005	0.0006015	10
	23	65	1516.544	15.53528	-4.855859	1	16.27649	-17.35767	-1.740357E-005	0.0006576	10
	24	67	1193.986	15.73172	-6.072148	1	16.86292	-21.10565	-2.242605E-005	0.0006984	10
	25	70	946.5144	15.96803	-7.533257	1	17.65582	-25.25659	-2.390301E-005	0.0007146	10
	26	72	751.7689	16.24567	-9.328018	1	18.73322	-29.8638	5.385936E-006	0.0006025	10
	27	74	597.4265	16.58673	-11.53044	1	20.20075	-34.8055	-3.364823E-006	0.0006185	10
	28	77	477.4305	16.99674	-14.18234	1	22.13657	-39.84214	-2.18672E-006	0.0006573	10
	29	79	376.6741	17.52911	-17.63283	1	24.86335	-45.16901	-6.273206E-006	0.0007047	10
	30	81	298.2954	18.18549	-21.84197	1	28.42153	-50.21945	-2.480007E-006	0.0006543	10
	31	84	237.7717	18.9716	-26.87755	1	32.8987	-54.78352	-2.167111E-006	0.0006589	10
	32	86	189.0121	19.95303	-33.147	1	38.6891	-58.95392	-2.192624E-006	0.0006626	10
	33	88	150.2404	21.14246	-40.8206	1	45.97092	-62.61873	1.360266E-006	5.519451E-005	9
	34	91	119.1737	22.66578	-50.42229	1	55.28241	-65.79517	1.320754E-006	5.544512E-005	9
	35	93	95.0169	24.52508	-61.97759	1	66.65359	-68.41086	1.298544E-006	5.726287E-005	9
	36	96	75.60484	26.88086	-76.31616	1	80.91191	-70.5962	1.287865E-006	5.726739E-005	9
	37	98	54.50582	31.34438	-102.7499	1	107.4244	-73.0354	1.313723E-006	5.232026E-005	9
	38	101	45.95588	34.39239	-119.9759	1	124.808	-74.00447	8.995369E-007	0.0001138	9
	39	103	37.20238	38.97943	-145.2676	1	150.4063	-74.97972	1.283647E-006	5.972255E-005	9
	40	105	30.04808	44.84921	-176.2027	1	181.821	-75.71964	1.339697E-006	5.367749E-005	9
	41	108	23.91582	52.86147	-216.3214	1	222.6865	-76.26801	1.250993E-006	5.680645E-005	9
	42	110	18.60119	64.35627	-270.856	1	278.3966	-76.63418	1.557453E-006	5.838453E-005	9
	43	112	15.02404	77.10307	-327.5302	1	336.4832	-76.75333	1.286418E-006	5.226516E-005	9
	44	115	12.01923	93.93324	-398.6394	1	409.5569	-76.741	1.551825E-006	5.963466E-005	9
	45	117	9.450605	116.8585	-489.5162	1	503.2713	-76.5735	5.194983E-007	0.0006331	8
	46	120	7.512019	144.7878	-596.3866	1	613.7104	-76.35403	5.829507E-007	0.0006223	8
	47	122	5.978954	179.9241	-724.0085	1	746.0302	-76.04408	6.22284E-007	0.0006342	8
	48	126	4.734848	223.4359	-880.9114	1	908.8061	-75.76754	5.446271E-007	0.0006118	8
	49	129	3.75601	276.2714	-1068.417	1	1103.559	-75.50202	6.686213E-007	0.000655	8
	50	132	3.004808	336.6913	-1284.111	1	1327.517	-75.30788	5.945258E-007	0.0006556	8
	51	136	2.372217	412.298	-1558.025	1	1611.655	-75.17766	5.985848E-007	0.0006382	8
	52	140	1.878005	501.3525	-1891.796	1	1957.101	-75.15702	6.411652E-007	0.0006197	8
	53	145	1.512097	591.4154	-2262.876	1	2338.884	-75.35305	5.773633E-007	0.0007863	8
	54	150	1.201923	704.9918	-2740.753	1	2829.972	-75.57478	6.373459E-007	0.0006269	8
	55	156	0.956633	828.1862	-3320.738	1	3422.455	-75.99622	5.912914E-007	-3.608093E-007	8
