EXPLAIN
TAG	EISPOT
TITLE	LABEL	Potentiostatic EIS	Test Identifier
DATE	LABEL	9/12/2020	Date
TIME	LABEL	15:01:54	Time
NOTES	NOTES	1	Notes...
	
PSTAT	PSTAT	REF3000-16137	Potentiostat
VDC	POTEN	0.00000E+000	T	DC Voltage (V)
FREQINIT	QUANT	3.00000E+005	Initial Freq. (Hz)
FREQFINAL	QUANT	1.00000E+000	Final Freq. (Hz)
PTSPERDEC	QUANT	1.00000E+001	Points/decade
VAC	QUANT	5.00000E+001	AC Voltage (mV rms)
AREA	QUANT	1.00000E+000	Sample Area (cm^2)
SPEED	SELECTOR	2	Optimize for:
ZGUESS	QUANT	1.00000E+003	Estimated Z (ohms)
EOC	QUANT	0	Open Circuit (V)
SEQUENCER	TOGGLE	TRUE	Run as Sequence
PSTATMODEL	IQUANT	5	Pstat Model
PSTATSECTION	LABEL	REF3000-16137	Pstat Section
PSTATSERIALNO	LABEL	16137	Pstat Serial Number
CTRLMODE	IQUANT	1	Control Mode
IESTAB	IQUANT	0	I/E Stability
CASPEED	IQUANT	1	Control Amp Speed
CONVENTION	IQUANT	1	Current Convention
ICHRANGE	IQUANT	2	Ich Range
ICHRANGEMODE	TOGGLE	F	Ich Auto Range
ICHOFFSETENABLE	TOGGLE	T	Ich Offset Enable
ICHOFFSET	QUANT	0	Ich Offset (V)
ICHFILTER	IQUANT	3	Ich Filter
VCHRANGE	IQUANT	2	Vch Range
VCHRANGEMODE	TOGGLE	F	Vch Auto Range
VCHOFFSETENABLE	TOGGLE	T	Vch Offset Enable
VCHOFFSET	QUANT	0	Vch Offset (V)
VCHFILTER	IQUANT	3	Vch Filter
ACHRANGE	IQUANT	2	Ach Range
ACHOFFSETENABLE	TOGGLE	F	Ach Offset Enable
ACHOFFSET	QUANT	0	Ach Offset (V)
ACHFILTER	IQUANT	3	Ach Filter
IERANGELOWERLIMIT	IQUANT	2	I/E Range Lower Limit
IERANGEMODE	TOGGLE	F	I/E AutoRange
IERANGE	IQUANT	11	I/E Range
POSFEEDENABLE	TOGGLE	F	Positive Feedback IR Comp
POSFEEDRESISTANCE	QUANT	0	Positive Feedback Resistance (ohm)
ACHSELECT	IQUANT	0	Ach Select
CABLEID	IQUANT	13	Cable ID
DCCALDATE	LABEL	7/31/2020	DC Calibration Date
ACCALDATE	LABEL	7/31/2020	AC Calibration Date
THERMOSELECT	IQUANT	1	Thermo Select
FRAMEWORKVERSION	QUANT	6.33	Framework Version
INSTRUMENTVERSION	LABEL	3.50	Instrument Version
COMPLIANCEVOLTAGE	IQUANT	0	Compliance Voltage
ZCURVE	TABLE
	Pt	Time	Freq	Zreal	Zimag	Zsig	Zmod	Zphz	Idc	Vdc	IERange
	#	s	Hz	ohm	ohm	V	ohm	°	A	V	#
	0	23	300046.9	1828.492	-1915.498	1	2648.116	-46.33125	2.151002E-005	-0.0010701	9
	1	41	238359.4	2189.015	-2073.28	1	3015.009	-43.44463	5.189461E-005	0.0001056	9
	2	60	189328.1	2685.078	-2124.07	1	3423.641	-38.34626	7.754611E-005	-0.0015505	9
	3	68	150421.9	3187.91	-2143.704	1	3841.645	-33.91878	2.616145E-005	-0.0014612	9
	4	76	119484.4	3638.943	-2099.817	1	4201.326	-29.98668	8.131719E-005	-0.0033011	9
	5	83	94921.88	4100.523	-1832.468	1	4491.351	-24.07921	-1.038646E-005	0.0094196	8
	6	91	75421.88	4522.002	-1707.416	1	4833.608	-20.68551	-2.502332E-005	0.0093546	8
	7	98	59859.37	4842.707	-1565.856	1	5089.569	-17.91826	2.472195E-005	-0.0050663	8
	8	105	47578.12	5206.088	-1375.844	1	5384.821	-14.80346	-2.309435E-005	0.0053891	8
	9	112	37828.12	5505.13	-1249.291	1	5645.103	-12.78571	8.897036E-006	0.0036267	8
	10	120	30046.88	5794.523	-1104.065	1	5898.768	-10.7876	2.244695E-005	-0.0029111	8
	11	127	23859.38	6032.392	-957.083	1	6107.844	-9.015247	6.979878E-006	-0.007123	8
	12	133	18984.38	6340.932	-502.679	1	6360.826	-4.532658	-1.568062E-007	0.0154502	7
	13	136	15046.87	6432.289	-415.3101	1	6445.683	-3.694257	-6.334833E-006	0.0194912	7
	14	139	11953.13	6555.263	-356.2023	1	6564.934	-3.1103	4.969121E-006	-0.0224798	7
	15	143	9515.62	6654.774	-303.9179	1	6661.71	-2.614833	3.867675E-006	0.001074	7
	16	146	7546.875	6774.72	-242.2002	1	6779.048	-2.047486	-1.823917E-006	0.0195073	7
	17	150	5928.309	6902.409	-226.0615	1	6906.11	-1.87583	-5.608566E-006	0.008994	7
	18	154	4733.456	7038.002	-161.4444	1	7039.854	-1.314075	-1.955051E-006	0.0198836	7
	19	159	3796.875	7174.027	-140.6243	1	7175.405	-1.12296	3.722089E-006	0.0019263	7
	20	162	2987.132	7275.457	-112.2404	1	7276.323	-0.8838469	1.917959E-006	0.0090661	7
	21	166	2390.625	7430.327	-119.7182	1	7431.291	-0.923076	-6.337564E-006	0.015483	7
	22	170	1884.191	7540.13	-83.03371	1	7540.587	-0.6309294	6.52274E-006	-0.0148607	7
	23	174	1516.544	7684.791	-100.4881	1	7685.447	-0.7491704	3.964996E-006	0.0009688	7
	24	178	1193.986	7827.149	-84.83619	1	7827.609	-0.620988	-6.393411E-006	0.020026	7
	25	183	946.5144	7906.286	-90.00646	1	7906.798	-0.6522365	5.470288E-006	-0.0068741	7
	26	185	751.7689	8101.875	-98.0961	1	8102.468	-0.6936933	-6.476859E-006	0.0160458	7
	27	188	597.4265	8184.07	-31.90949	1	8184.132	-0.2233937	-4.333879E-006	0.0019943	7
	28	191	477.4305	8228.461	-62.15891	1	8228.695	-0.4328118	-9.339451E-008	0.0006495	7
	29	193	376.6741	8313.197	-63.1669	1	8313.438	-0.4353472	-9.409158E-008	0.0006639	7
	30	195	298.2954	8401.546	-68.35198	1	8401.824	-0.4661278	-9.120521E-008	0.0006077	7
	31	197	237.7717	8492.696	-73.77242	1	8493.017	-0.4976914	-9.671889E-008	0.0006302	7
	32	200	189.0121	8586.904	-83.25233	1	8587.308	-0.5554805	-9.70643E-008	0.0005647	7
	33	202	150.2404	8680.108	-96.3786	1	8680.644	-0.6361508	-8.411789E-008	0.0005857	7
	34	205	119.1737	8780.915	-112.2752	1	8781.633	-0.7325597	-8.852985E-008	0.0006414	7
	35	207	95.0169	8872.893	-133.8705	1	8873.902	-0.8643893	-9.161656E-008	0.0006056	7
	36	210	75.60484	8978.738	-161.2898	1	8980.187	-1.029124	-8.215362E-008	0.0005813	7
	37	212	54.50582	9082.517	-211.0798	1	9084.969	-1.331328	-9.703015E-008	0.0006213	7
	38	215	45.95588	9192.604	-245.1648	1	9195.873	-1.527704	-4.441313E-008	0.0005585	7
	39	217	37.20238	9288.871	-297.1703	1	9293.623	-1.832386	-1.017325E-007	0.0006424	7
	40	219	30.04808	9398.9	-356.1937	1	9405.647	-2.170321	-1.241591E-007	0.0005636	7
	41	222	23.91582	9499.69	-442.6776	1	9510	-2.668005	-1.006182E-008	0.0005657	7
	42	224	18.60119	9619.4	-552.2001	1	9635.23	-3.28545	-8.292704E-008	0.0005632	7
	43	226	15.02404	9749.72	-665.1899	1	9772.38	-3.903047	-2.153356E-007	0.0005877	7
	44	229	12.01923	9846	-827.0535	1	9880.68	-4.801511	-7.276129E-008	0.0005525	7
	45	231	9.450605	9959.83	-1012.722	1	10011.19	-5.805916	4.031974E-008	0.000637	7
	46	234	7.512019	10106.61	-1299.501	1	10189.81	-7.326849	8.967036E-009	0.0005685	7
	47	236	5.978954	10293.6	-1586.114	1	10415.08	-8.759665	-6.526898E-008	0.0005825	7
	48	239	4.734848	10483.19	-1989.802	1	10670.36	-10.7474	-2.513727E-008	0.0006728	7
	49	243	3.75601	10696.13	-2464.321	1	10976.34	-12.97419	-1.43986E-007	0.0006065	7
	50	246	3.004808	10943.88	-2997.34	1	11346.91	-15.31672	-8.03366E-008	0.0005493	7
	51	250	2.372217	11253.32	-3740.968	1	11858.84	-18.38848	-1.177473E-007	0.0006073	7
	52	254	1.878005	11595.88	-4638.27	1	12489.11	-21.80106	-1.092514E-007	0.0006029	7
	53	259	1.512097	11989.35	-5660.722	1	13258.52	-25.27414	-1.017754E-007	0.0005566	7
	54	264	1.201923	12478.74	-7031.336	1	14323.36	-29.39975	-9.617311E-008	0.0006049	7
	55	270	0.956633	13057.9	-8690.902	1	15685.68	-33.6464	-9.60429E-008	-3.966534E-005	7
