EXPLAIN
TAG	EISPOT
TITLE	LABEL	Potentiostatic EIS	Test Identifier
DATE	LABEL	9/12/2020	Date
TIME	LABEL	14:08:50	Time
NOTES	NOTES	1	Notes...
	
PSTAT	PSTAT	REF3000-16137	Potentiostat
VDC	POTEN	0.00000E+000	T	DC Voltage (V)
FREQINIT	QUANT	3.00000E+005	Initial Freq. (Hz)
FREQFINAL	QUANT	1.00000E+000	Final Freq. (Hz)
PTSPERDEC	QUANT	1.00000E+001	Points/decade
VAC	QUANT	5.00000E+001	AC Voltage (mV rms)
AREA	QUANT	1.00000E+000	Sample Area (cm^2)
SPEED	SELECTOR	2	Optimize for:
ZGUESS	QUANT	1.00000E+003	Estimated Z (ohms)
EOC	QUANT	0	Open Circuit (V)
SEQUENCER	TOGGLE	TRUE	Run as Sequence
PSTATMODEL	IQUANT	5	Pstat Model
PSTATSECTION	LABEL	REF3000-16137	Pstat Section
PSTATSERIALNO	LABEL	16137	Pstat Serial Number
CTRLMODE	IQUANT	1	Control Mode
IESTAB	IQUANT	0	I/E Stability
CASPEED	IQUANT	1	Control Amp Speed
CONVENTION	IQUANT	1	Current Convention
ICHRANGE	IQUANT	2	Ich Range
ICHRANGEMODE	TOGGLE	F	Ich Auto Range
ICHOFFSETENABLE	TOGGLE	T	Ich Offset Enable
ICHOFFSET	QUANT	0	Ich Offset (V)
ICHFILTER	IQUANT	3	Ich Filter
VCHRANGE	IQUANT	2	Vch Range
VCHRANGEMODE	TOGGLE	F	Vch Auto Range
VCHOFFSETENABLE	TOGGLE	T	Vch Offset Enable
VCHOFFSET	QUANT	0	Vch Offset (V)
VCHFILTER	IQUANT	3	Vch Filter
ACHRANGE	IQUANT	2	Ach Range
ACHOFFSETENABLE	TOGGLE	F	Ach Offset Enable
ACHOFFSET	QUANT	0	Ach Offset (V)
ACHFILTER	IQUANT	3	Ach Filter
IERANGELOWERLIMIT	IQUANT	2	I/E Range Lower Limit
IERANGEMODE	TOGGLE	F	I/E AutoRange
IERANGE	IQUANT	11	I/E Range
POSFEEDENABLE	TOGGLE	F	Positive Feedback IR Comp
POSFEEDRESISTANCE	QUANT	0	Positive Feedback Resistance (ohm)
ACHSELECT	IQUANT	0	Ach Select
CABLEID	IQUANT	13	Cable ID
DCCALDATE	LABEL	7/31/2020	DC Calibration Date
ACCALDATE	LABEL	7/31/2020	AC Calibration Date
THERMOSELECT	IQUANT	1	Thermo Select
FRAMEWORKVERSION	QUANT	6.33	Framework Version
INSTRUMENTVERSION	LABEL	3.50	Instrument Version
COMPLIANCEVOLTAGE	IQUANT	0	Compliance Voltage
ZCURVE	TABLE
	Pt	Time	Freq	Zreal	Zimag	Zsig	Zmod	Zphz	Idc	Vdc	IERange
	#	s	Hz	ohm	ohm	V	ohm	°	A	V	#
	0	10	300046.9	6.078347	2.239212	1	6.477683	20.22338	8.292172E-006	0.0001027	10
	1	13	238359.4	6.042635	1.770756	1	6.296746	16.33289	4.441847E-005	1.243571E-005	10
	2	16	189328.1	6.037535	1.396518	1	6.196942	13.02381	2.165999E-005	0.0001811	10
	3	19	150421.9	6.028304	1.098114	1	6.127503	10.32378	-9.323841E-006	0.0002645	10
	4	21	119484.4	6.039694	0.8459427	1	6.098649	7.973197	1.970832E-005	0.0004311	10
	5	24	94921.88	6.048399	0.6632741	1	6.084659	6.258112	2.092163E-005	0.0004876	10
	6	26	75421.88	6.057277	0.4862524	1	6.076763	4.589619	-1.201552E-005	0.0005611	10
	7	29	59859.37	6.067752	0.3327483	1	6.076869	3.138888	8.299608E-006	0.0005946	10
	8	31	47578.12	6.08075	0.1992864	1	6.084015	1.877102	-7.892055E-006	0.0005904	10
	9	34	37828.12	6.098384	0.0797341	1	6.098906	0.7490779	-6.989743E-006	0.0005815	10
	10	36	30046.88	6.116592	-0.0340868	1	6.116687	-0.3192972	2.805931E-006	0.0005802	10
	11	39	23859.38	6.135283	-0.1462537	1	6.137025	-1.365566	-4.670826E-006	0.0005988	10
	12	41	18984.38	6.155215	-0.2632216	1	6.160841	-2.448704	2.345499E-005	0.0006386	10
	13	43	15046.87	6.176004	-0.3930537	1	6.188499	-3.641511	2.524E-005	0.0006176	10
	14	46	11953.13	6.201464	-0.5396044	1	6.224895	-4.972919	-2.934699E-005	0.0006472	10
	15	48	9515.62	6.229879	-0.7089841	1	6.270092	-6.492547	-2.085155E-005	0.0006404	10
	16	50	7546.875	6.262952	-0.9126716	1	6.329103	-8.291093	-8.542396E-006	0.0006511	10
	17	53	5928.309	6.302338	-1.171455	1	6.410286	-10.52975	-2.661514E-005	0.0006701	10
	18	55	4733.456	6.346795	-1.464687	1	6.51361	-12.99498	-1.089222E-005	0.0006382	10
	19	57	3796.875	6.399373	-1.815434	1	6.6519	-15.83807	1.569233E-005	0.0006179	10
	20	60	2987.132	6.46708	-2.282983	1	6.858216	-19.44385	-1.572075E-005	0.0006749	10
	21	62	2390.625	6.546032	-2.81618	1	7.126107	-23.27795	-2.173898E-005	0.0006933	10
	22	64	1884.191	6.646227	-3.521798	1	7.521662	-27.91886	-2.150543E-005	0.0006852	10
	23	66	1516.544	6.760834	-4.309654	1	8.017606	-32.51524	2.039738E-005	0.0006357	10
	24	69	1193.986	6.916272	-5.379165	1	8.761863	-37.87417	1.414486E-005	0.0006513	10
	25	71	946.5144	7.109699	-6.65972	1	9.74165	-43.12827	-9.625233E-006	0.0006541	10
	26	74	751.7689	7.340435	-8.236106	1	11.03247	-48.29096	-1.784837E-005	0.0006523	10
	27	76	597.4265	7.622317	-10.17342	1	12.71212	-53.15803	-1.529518E-005	0.000679	10
	28	78	477.4305	7.9758	-12.48998	1	14.81935	-57.43868	-2.446151E-006	0.0006623	10
	29	81	376.6741	8.436246	-15.51364	1	17.65908	-61.46286	-2.17363E-006	0.0006555	10
	30	83	298.2954	9.005721	-19.20086	1	21.20792	-64.87215	-2.787348E-006	0.0006562	10
	31	85	237.7717	9.7023	-23.6192	1	25.53432	-67.66811	-1.968552E-006	0.0006507	10
	32	88	189.0121	10.59338	-29.1256	1	30.99226	-70.01299	-2.475899E-006	0.0006558	10
	33	90	150.2404	11.72481	-35.89816	1	37.76439	-71.91228	-2.319375E-006	0.0006497	10
	34	92	119.1737	13.17015	-44.26439	1	46.18213	-73.43048	1.264112E-006	5.877509E-005	9
	35	95	95.0169	15.00291	-54.35534	1	56.38786	-74.56968	1.27567E-006	4.989196E-005	9
	36	97	75.60484	17.385	-66.81788	1	69.0425	-75.41586	1.124522E-006	5.583E-005	9
	37	100	54.50582	22.05278	-89.62187	1	92.2952	-76.17616	1.160511E-006	5.29258E-005	9
	38	102	45.95588	25.2631	-104.3418	1	107.3566	-76.38953	1.023431E-006	0.0001082	9
	39	105	37.20238	30.19274	-125.8132	1	129.3853	-76.50531	1.263725E-006	5.412663E-005	9
	40	107	30.04808	36.47538	-151.7037	1	156.0271	-76.48053	1.239052E-006	5.227802E-005	9
	41	110	23.91582	44.96336	-184.9095	1	190.2978	-76.33298	1.014917E-006	4.840026E-005	9
	42	112	18.60119	56.86423	-229.2181	1	236.1662	-76.06738	1.196152E-006	5.326726E-005	9
	43	114	15.02404	69.44873	-274.6428	1	283.2875	-75.80914	1.285664E-006	4.570232E-005	9
	44	116	12.01923	85.30981	-330.8654	1	341.6865	-75.54185	1.234169E-006	5.412675E-005	9
	45	119	9.450605	105.9461	-403.6249	1	417.298	-75.29242	1.371712E-006	6.004428E-005	9
	46	121	7.512019	128.5754	-485.732	1	502.4612	-75.1736	5.558427E-007	0.0006415	8
	47	124	5.978954	155.2326	-585.57	1	605.7965	-75.1526	5.459999E-007	0.0006399	8
	48	127	4.734848	187.076	-709.2749	1	733.5314	-75.22436	5.88621E-007	0.0006162	8
	49	130	3.75601	222.4819	-859.0513	1	887.3936	-75.48024	6.067597E-007	0.0006496	8
	50	134	3.004808	260.8696	-1034.022	1	1066.421	-75.84053	6.023687E-007	0.0006172	8
	51	137	2.372217	308.3546	-1262.351	1	1299.466	-76.27316	5.578077E-007	0.0005764	8
	52	142	1.878005	358.782	-1545.55	1	1586.647	-76.93091	6.16146E-007	0.0006238	8
	53	146	1.512097	411.6358	-1865.364	1	1910.242	-77.55579	5.729961E-007	0.0006895	8
	54	152	1.201923	485.7611	-2290.646	1	2341.585	-78.02706	6.158963E-007	0.0006374	8
	55	158	0.956633	572.6641	-2808.819	1	2866.602	-78.47643	5.662244E-007	-6.016932E-006	8
