EXPLAIN
TAG	EISPOT
TITLE	LABEL	Potentiostatic EIS	Test Identifier
DATE	LABEL	9/12/2020	Date
TIME	LABEL	15:16:21	Time
NOTES	NOTES	1	Notes...
	
PSTAT	PSTAT	REF3000-16137	Potentiostat
VDC	POTEN	0.00000E+000	T	DC Voltage (V)
FREQINIT	QUANT	3.00000E+005	Initial Freq. (Hz)
FREQFINAL	QUANT	1.00000E+000	Final Freq. (Hz)
PTSPERDEC	QUANT	1.00000E+001	Points/decade
VAC	QUANT	5.00000E+001	AC Voltage (mV rms)
AREA	QUANT	1.00000E+000	Sample Area (cm^2)
SPEED	SELECTOR	2	Optimize for:
ZGUESS	QUANT	1.00000E+003	Estimated Z (ohms)
EOC	QUANT	0	Open Circuit (V)
SEQUENCER	TOGGLE	TRUE	Run as Sequence
PSTATMODEL	IQUANT	5	Pstat Model
PSTATSECTION	LABEL	REF3000-16137	Pstat Section
PSTATSERIALNO	LABEL	16137	Pstat Serial Number
CTRLMODE	IQUANT	1	Control Mode
IESTAB	IQUANT	0	I/E Stability
CASPEED	IQUANT	1	Control Amp Speed
CONVENTION	IQUANT	1	Current Convention
ICHRANGE	IQUANT	2	Ich Range
ICHRANGEMODE	TOGGLE	F	Ich Auto Range
ICHOFFSETENABLE	TOGGLE	T	Ich Offset Enable
ICHOFFSET	QUANT	0	Ich Offset (V)
ICHFILTER	IQUANT	3	Ich Filter
VCHRANGE	IQUANT	2	Vch Range
VCHRANGEMODE	TOGGLE	F	Vch Auto Range
VCHOFFSETENABLE	TOGGLE	T	Vch Offset Enable
VCHOFFSET	QUANT	0	Vch Offset (V)
VCHFILTER	IQUANT	3	Vch Filter
ACHRANGE	IQUANT	2	Ach Range
ACHOFFSETENABLE	TOGGLE	F	Ach Offset Enable
ACHOFFSET	QUANT	0	Ach Offset (V)
ACHFILTER	IQUANT	3	Ach Filter
IERANGELOWERLIMIT	IQUANT	2	I/E Range Lower Limit
IERANGEMODE	TOGGLE	F	I/E AutoRange
IERANGE	IQUANT	11	I/E Range
POSFEEDENABLE	TOGGLE	F	Positive Feedback IR Comp
POSFEEDRESISTANCE	QUANT	0	Positive Feedback Resistance (ohm)
ACHSELECT	IQUANT	0	Ach Select
CABLEID	IQUANT	13	Cable ID
DCCALDATE	LABEL	7/31/2020	DC Calibration Date
ACCALDATE	LABEL	7/31/2020	AC Calibration Date
THERMOSELECT	IQUANT	1	Thermo Select
FRAMEWORKVERSION	QUANT	6.33	Framework Version
INSTRUMENTVERSION	LABEL	3.50	Instrument Version
COMPLIANCEVOLTAGE	IQUANT	0	Compliance Voltage
ZCURVE	TABLE
	Pt	Time	Freq	Zreal	Zimag	Zsig	Zmod	Zphz	Idc	Vdc	IERange
	#	s	Hz	ohm	ohm	V	ohm	°	A	V	#
	0	17	300046.9	118.036	-4322.374	1	4323.985	-88.43575	2.590525E-005	-0.0011192	9
	1	33	238359.4	349.1635	-5470.703	1	5481.834	-86.34809	-2.15634E-005	0.0015934	9
	2	48	189328.1	468.2648	-6703.179	1	6719.515	-86.00397	-2.762222E-005	-0.0010913	9
	3	55	150421.9	608.1594	-8196.909	1	8219.439	-85.75678	-1.465998E-005	0.0017835	9
	4	63	119484.4	1379.198	-10255.6	1	10347.92	-82.34068	6.541234E-005	-0.0256831	8
	5	70	94921.88	1401.313	-12722.13	1	12799.07	-83.71434	2.606868E-005	-0.0051539	8
	6	79	75421.88	1491.655	-15757.21	1	15827.66	-84.59222	-2.225496E-006	0.007693	8
	7	87	59859.37	1882.331	-20149.7	1	20237.43	-84.66307	1.595442E-005	-0.0092394	8
	8	96	47578.12	5937.853	-25725.95	1	26402.32	-77.00307	3.214519E-006	-0.0235368	7
	9	102	37828.12	7188.214	-31290.49	1	32105.54	-77.06219	2.840268E-006	0.0084226	7
	10	110	30046.88	8651.265	-38918.15	1	39868.12	-77.46729	4.853595E-006	-0.00074	7
	11	117	23859.38	10876.95	-47722.77	1	48946.62	-77.1605	1.31486E-006	-0.0197225	7
	12	122	18984.38	13206.42	-59522.62	1	60970.09	-77.4903	7.546882E-006	-0.0241956	7
	13	128	15046.87	18118.79	-72495.3	1	74725.22	-75.9675	-5.285776E-006	0.0036914	7
	14	133	11953.13	25170.78	-88364.27	1	91879.34	-74.10027	1.147629E-006	-0.0200907	7
	15	139	9515.62	29493.62	-112300.6	1	116109	-75.28467	4.588548E-007	0.0159072	7
	16	145	7546.875	46433.9	-133313.3	1	141168.5	-70.79643	-1.773252E-006	0.0214784	7
	17	151	5928.309	61550.89	-166527.2	1	177538.3	-69.71495	2.752171E-006	0.0082311	7
	18	158	4733.456	81505.29	-193720	1	210167.9	-67.18167	-7.076719E-006	0.023112	7
	19	163	3796.875	112726.8	-223547	1	250360.9	-63.23981	-3.417154E-006	0.0239534	7
	20	169	2987.132	149255.3	-250238.6	1	291370	-59.18596	-1.58198E-005	0.0005506	8
	21	177	2390.625	492882.2	-322473.1	1	589000.7	-33.19512	-1.251932E-006	-0.0050977	8
	22	186	1884.191	283634.9	-359501.8	1	457919.6	-51.72774	2.223344E-007	0.0100607	6
	23	191	1516.544	367833.3	-391947.8	1	537516.9	-46.81788	-7.362749E-007	0.0227886	6
	24	196	1193.986	441198.1	-421206.7	1	609976.1	-43.67206	1.757468E-007	-0.0207415	6
	25	202	946.5144	521616	-515679.3	1	733490.6	-44.67208	4.362368E-007	0.0019816	6
	26	206	751.7689	668207.8	-459019	1	810678.7	-34.48675	3.964418E-007	-0.0248215	6
	27	209	597.4265	603012	-888298.8	1	1073638	-55.8298	-6.59118E-006	0.0261933	7
	28	215	477.4305	825696.3	-437418.8	1	934403.3	-27.91274	-9.609649E-008	0.0006114	7
	29	221	376.6741	990876	-305754	1	1036977	-17.14862	-1.129436E-009	0.0006455	5
	30	224	298.2954	1040983	-276669.8	1	1077122	-14.88384	-1.240065E-009	0.0006814	5
	31	226	237.7717	1092526	-246748.1	1	1120044	-12.72679	-1.070399E-009	0.0005941	5
	32	229	189.0121	1135286	-216765	1	1155794	-10.80963	-1.186651E-009	0.0006752	5
	33	232	150.2404	1176274	-188772.7	1	1191325	-9.117292	-1.155866E-009	0.0006116	5
	34	235	119.1737	1158935	-179441.5	1	1172744	-8.801397	-1.041601E-009	0.0005829	5
	35	237	95.0169	1250043	-148340.5	1	1258814	-6.767541	-1.080539E-009	0.0006207	5
	36	240	75.60484	1278718	-131384.5	1	1285450	-5.866387	-1.100383E-009	0.000584	5
	37	243	54.50582	1335582	-106877.4	1	1339852	-4.575234	-1.184617E-009	0.0006265	5
	38	246	45.95588	1352309	-99938.5	1	1355997	-4.226597	-1.177123E-009	0.00068	5
	39	248	37.20238	1381214	-80647.13	1	1383566	-3.341626	-1.154414E-009	0.0006763	5
	40	251	30.04808	1417316	-75254.81	1	1419312	-3.039363	-1.195827E-009	0.0006464	5
	41	254	23.91582	1449236	-72001.19	1	1451024	-2.84424	-1.025853E-009	0.0006652	5
	42	256	18.60119	1478867	-33172.84	1	1479239	-1.285001	-1.549271E-009	0.0006721	5
	43	259	15.02404	1507566	-48554.23	1	1508347	-1.84469	-1.209527E-009	0.0006436	5
	44	261	12.01923	1539564	-44549.93	1	1540208	-1.65749	-1.264575E-009	0.000674	5
	45	264	9.450605	1572829	-37704.3	1	1573281	-1.373247	-1.168544E-009	0.0006382	5
	46	267	7.512019	1606138	-34612.02	1	1606511	-1.234524	-1.123273E-009	0.0006861	5
	47	270	5.978954	1649586	-31042.49	1	1649878	-1.078085	-1.044738E-009	0.0005869	5
	48	274	4.734848	1699406	-28649.62	1	1699648	-0.965836	-1.048888E-009	0.0006112	5
	49	277	3.75601	1758155	-25607.04	1	1758341	-0.8344382	-1.072014E-009	0.0005915	5
	50	283	3.004808	1837978	-25678.22	1	1838157	-0.8004223	-9.560319E-010	0.0005473	5
	51	289	2.372217	1909369	-24139.53	1	1909521	-0.7243333	-1.111964E-009	0.0005785	5
	52	294	1.878005	1973088	-23590.81	1	1973229	-0.6850124	-1.015109E-009	0.0006431	5
	53	298	1.512097	2048081	-24582.94	1	2048229	-0.6876831	-1.022752E-009	0.0005843	5
	54	304	1.201923	2140501	-25962.55	1	2140658	-0.6949175	-1.003397E-009	0.0006587	5
	55	310	0.956633	2243109	-29198.52	1	2243299	-0.7457764	-1.326917E-009	2.737843E-007	5
