EXPLAIN
TAG	EISPOT
TITLE	LABEL	Potentiostatic EIS	Test Identifier
DATE	LABEL	9/12/2020	Date
TIME	LABEL	13:20:45	Time
NOTES	NOTES	1	Notes...
	
PSTAT	PSTAT	REF3000-16137	Potentiostat
VDC	POTEN	0.00000E+000	T	DC Voltage (V)
FREQINIT	QUANT	3.00000E+005	Initial Freq. (Hz)
FREQFINAL	QUANT	1.00000E+000	Final Freq. (Hz)
PTSPERDEC	QUANT	1.00000E+001	Points/decade
VAC	QUANT	5.00000E+001	AC Voltage (mV rms)
AREA	QUANT	1.00000E+000	Sample Area (cm^2)
SPEED	SELECTOR	2	Optimize for:
ZGUESS	QUANT	1.00000E+003	Estimated Z (ohms)
EOC	QUANT	0	Open Circuit (V)
SEQUENCER	TOGGLE	TRUE	Run as Sequence
PSTATMODEL	IQUANT	5	Pstat Model
PSTATSECTION	LABEL	REF3000-16137	Pstat Section
PSTATSERIALNO	LABEL	16137	Pstat Serial Number
CTRLMODE	IQUANT	1	Control Mode
IESTAB	IQUANT	0	I/E Stability
CASPEED	IQUANT	1	Control Amp Speed
CONVENTION	IQUANT	1	Current Convention
ICHRANGE	IQUANT	2	Ich Range
ICHRANGEMODE	TOGGLE	F	Ich Auto Range
ICHOFFSETENABLE	TOGGLE	T	Ich Offset Enable
ICHOFFSET	QUANT	0	Ich Offset (V)
ICHFILTER	IQUANT	3	Ich Filter
VCHRANGE	IQUANT	2	Vch Range
VCHRANGEMODE	TOGGLE	F	Vch Auto Range
VCHOFFSETENABLE	TOGGLE	T	Vch Offset Enable
VCHOFFSET	QUANT	0	Vch Offset (V)
VCHFILTER	IQUANT	3	Vch Filter
ACHRANGE	IQUANT	2	Ach Range
ACHOFFSETENABLE	TOGGLE	F	Ach Offset Enable
ACHOFFSET	QUANT	0	Ach Offset (V)
ACHFILTER	IQUANT	3	Ach Filter
IERANGELOWERLIMIT	IQUANT	2	I/E Range Lower Limit
IERANGEMODE	TOGGLE	F	I/E AutoRange
IERANGE	IQUANT	11	I/E Range
POSFEEDENABLE	TOGGLE	F	Positive Feedback IR Comp
POSFEEDRESISTANCE	QUANT	0	Positive Feedback Resistance (ohm)
ACHSELECT	IQUANT	0	Ach Select
CABLEID	IQUANT	13	Cable ID
DCCALDATE	LABEL	7/31/2020	DC Calibration Date
ACCALDATE	LABEL	7/31/2020	AC Calibration Date
THERMOSELECT	IQUANT	1	Thermo Select
FRAMEWORKVERSION	QUANT	6.33	Framework Version
INSTRUMENTVERSION	LABEL	3.50	Instrument Version
COMPLIANCEVOLTAGE	IQUANT	0	Compliance Voltage
ZCURVE	TABLE
	Pt	Time	Freq	Zreal	Zimag	Zsig	Zmod	Zphz	Idc	Vdc	IERange
	#	s	Hz	ohm	ohm	V	ohm	°	A	V	#
	0	10	300046.9	2.042908	2.252683	1	3.041061	47.79582	-5.331294E-005	-0.0003719	11
	1	13	238359.4	2.00926	1.797105	1	2.695684	41.80981	-0.0001396	-0.0002701	11
	2	16	189328.1	2.06057	1.272667	1	2.421907	31.70067	-3.058872E-005	1.288303E-005	12
	3	20	150421.9	2.007409	1.003948	1	2.244461	26.57062	-0.000127	0.0001593	12
	4	24	119484.4	1.946767	0.8651003	1	2.130329	23.9593	5.867617E-005	0.0004345	11
	5	26	94921.88	1.940223	0.6673273	1	2.051777	18.98033	1.797396E-005	0.0004688	11
	6	29	75421.88	1.93671	0.4985465	1	1.999848	14.43563	1.505995E-005	0.0004954	11
	7	31	59859.37	1.935298	0.3581863	1	1.968165	10.48569	-5.217686E-005	0.0005096	11
	8	34	47578.12	1.936828	0.2375568	1	1.951342	6.992548	-1.260952E-005	0.0005716	11
	9	36	37828.12	1.939365	0.1299707	1	1.943715	3.834065	1.385687E-005	0.0006417	11
	10	39	30046.88	1.943282	0.029917	1	1.943513	0.8820046	-1.694929E-005	0.0006202	11
	11	41	23859.38	1.948671	-0.0674736	1	1.949839	-1.983099	5.728675E-006	0.0006523	11
	12	44	18984.38	1.955452	-0.1656729	1	1.962458	-4.842737	-4.725928E-005	0.0006324	11
	13	46	15046.87	1.964507	-0.2724291	1	1.983307	-7.89517	-1.174648E-005	0.0006422	11
	14	48	11953.13	1.977257	-0.3898849	1	2.015331	-11.15475	-2.421433E-005	0.0006791	11
	15	51	9515.62	1.991361	-0.5231543	1	2.058934	-14.71966	-3.637751E-005	0.0006647	11
	16	53	7546.875	2.010763	-0.6819927	1	2.123271	-18.73545	-6.145727E-006	0.0006965	11
	17	55	5928.309	2.035622	-0.879909	1	2.217656	-23.37669	-3.79325E-005	0.0006761	11
	18	58	4733.456	2.065046	-1.103051	1	2.341183	-28.10905	-1.466094E-005	0.000676	11
	19	60	3796.875	2.102054	-1.366665	1	2.50727	-33.03019	-2.416794E-005	0.0006927	11
	20	62	2987.132	2.151291	-1.717534	1	2.752812	-38.60295	-1.676286E-005	0.0006744	11
	21	65	2390.625	2.20864	-2.117749	1	3.059894	-43.79648	2.336821E-005	0.0007132	11
	22	67	1884.191	2.287298	-2.640985	1	3.493785	-49.1049	-3.56832E-005	0.0006656	11
	23	69	1516.544	2.379579	-3.228743	1	4.010882	-53.60984	1.877341E-005	0.0006465	10
	24	71	1193.986	2.506011	-4.022261	1	4.739058	-58.07564	9.501673E-006	0.0006473	10
	25	74	946.5144	2.666833	-4.972975	1	5.642914	-61.79689	-2.086089E-005	0.000724	10
	26	76	751.7689	2.866729	-6.133811	1	6.770655	-64.95026	-1.736471E-005	0.0006488	10
	27	79	597.4265	3.127217	-7.559569	1	8.180866	-67.52627	-2.540904E-005	0.0006564	10
	28	81	477.4305	3.454607	-9.251402	1	9.87536	-69.52364	-2.591938E-006	0.0006558	10
	29	83	376.6741	3.903064	-11.44338	1	12.09069	-71.16671	-3.564981E-006	0.0006573	10
	30	86	298.2954	4.478383	-14.08778	1	14.78247	-72.36499	-4.305374E-006	0.0006579	10
	31	88	237.7717	5.200201	-17.21151	1	17.97993	-73.18859	-8.278806E-006	0.0007102	10
	32	90	189.0121	6.140018	-21.03936	1	21.91699	-73.73092	-4.003958E-006	0.0006583	10
	33	93	150.2404	7.33751	-25.65675	1	26.68535	-74.04013	-4.120806E-006	0.0006556	10
	34	95	119.1737	8.867712	-31.27456	1	32.50745	-74.16964	-3.737906E-006	0.0006589	10
	35	97	95.0169	10.72466	-37.84445	1	39.33473	-74.17791	-4.092363E-006	0.0006509	10
	36	100	75.60484	12.9959	-45.72066	1	47.5318	-74.13243	-1.835398E-006	5.182999E-005	9
	37	103	54.50582	17.0661	-59.82146	1	62.20819	-74.07741	-1.90145E-006	4.881399E-005	9
	38	105	45.95588	19.61088	-68.78272	1	71.52377	-74.08643	-1.503472E-006	5.977509E-005	9
	39	107	37.20238	23.1643	-81.71284	1	84.93275	-74.17281	-1.587116E-006	5.511345E-005	9
	40	110	30.04808	27.23324	-97.2919	1	101.0315	-74.3624	-1.754843E-006	4.78572E-005	9
	41	112	23.91582	32.04713	-117.2701	1	121.5702	-74.71561	-1.880315E-006	5.332233E-005	9
	42	115	18.60119	38.15676	-144.6968	1	149.6432	-75.22731	-1.621585E-006	5.549379E-005	9
	43	117	15.02404	44.09542	-173.3549	1	178.8752	-75.72861	-1.423294E-006	6.895725E-005	9
	44	119	12.01923	51.31852	-210.0475	1	216.2256	-76.27053	-1.713896E-006	5.648317E-005	9
	45	122	9.450605	60.63472	-259.1639	1	266.1625	-76.83178	-1.653222E-006	5.722242E-005	9
	46	124	7.512019	72.05686	-317.8292	1	325.8951	-77.22609	-1.437398E-006	3.631452E-005	9
	47	127	5.978954	86.70214	-389.6468	1	399.1765	-77.45522	-1.501629E-006	5.808273E-005	9
	48	130	4.734848	106.036	-479.0966	1	490.6905	-77.5202	-2.072889E-006	0.0006411	8
	49	133	3.75601	132.9721	-590.3342	1	605.1248	-77.30605	-2.15776E-006	0.0006457	8
	50	137	3.004808	167.885	-721.2679	1	740.549	-76.89693	-2.045641E-006	0.0006032	8
	51	140	2.372217	220.7359	-891.6814	1	918.5968	-76.09594	-2.115144E-006	0.0005664	8
	52	144	1.878005	295.0418	-1095.435	1	1134.473	-74.92581	-2.07596E-006	0.000646	8
	53	149	1.512097	391.1861	-1318.806	1	1375.6	-73.47852	-2.095966E-006	0.0005629	8
	54	155	1.201923	534.6458	-1602.443	1	1689.28	-71.54902	-2.036814E-006	0.000666	8
	55	161	0.956633	733.5842	-1923.328	1	2058.479	-69.12245	-2.166875E-006	-3.682484E-006	8
