EXPLAIN
TAG	EISPOT
TITLE	LABEL	Potentiostatic EIS	Test Identifier
DATE	LABEL	9/12/2020	Date
TIME	LABEL	14:47:26	Time
NOTES	NOTES	1	Notes...
	
PSTAT	PSTAT	REF3000-16137	Potentiostat
VDC	POTEN	0.00000E+000	T	DC Voltage (V)
FREQINIT	QUANT	3.00000E+005	Initial Freq. (Hz)
FREQFINAL	QUANT	1.00000E+000	Final Freq. (Hz)
PTSPERDEC	QUANT	1.00000E+001	Points/decade
VAC	QUANT	5.00000E+001	AC Voltage (mV rms)
AREA	QUANT	1.00000E+000	Sample Area (cm^2)
SPEED	SELECTOR	2	Optimize for:
ZGUESS	QUANT	1.00000E+003	Estimated Z (ohms)
EOC	QUANT	0	Open Circuit (V)
SEQUENCER	TOGGLE	TRUE	Run as Sequence
PSTATMODEL	IQUANT	5	Pstat Model
PSTATSECTION	LABEL	REF3000-16137	Pstat Section
PSTATSERIALNO	LABEL	16137	Pstat Serial Number
CTRLMODE	IQUANT	1	Control Mode
IESTAB	IQUANT	0	I/E Stability
CASPEED	IQUANT	1	Control Amp Speed
CONVENTION	IQUANT	1	Current Convention
ICHRANGE	IQUANT	2	Ich Range
ICHRANGEMODE	TOGGLE	F	Ich Auto Range
ICHOFFSETENABLE	TOGGLE	T	Ich Offset Enable
ICHOFFSET	QUANT	0	Ich Offset (V)
ICHFILTER	IQUANT	3	Ich Filter
VCHRANGE	IQUANT	2	Vch Range
VCHRANGEMODE	TOGGLE	F	Vch Auto Range
VCHOFFSETENABLE	TOGGLE	T	Vch Offset Enable
VCHOFFSET	QUANT	0	Vch Offset (V)
VCHFILTER	IQUANT	3	Vch Filter
ACHRANGE	IQUANT	2	Ach Range
ACHOFFSETENABLE	TOGGLE	F	Ach Offset Enable
ACHOFFSET	QUANT	0	Ach Offset (V)
ACHFILTER	IQUANT	3	Ach Filter
IERANGELOWERLIMIT	IQUANT	2	I/E Range Lower Limit
IERANGEMODE	TOGGLE	F	I/E AutoRange
IERANGE	IQUANT	11	I/E Range
POSFEEDENABLE	TOGGLE	F	Positive Feedback IR Comp
POSFEEDRESISTANCE	QUANT	0	Positive Feedback Resistance (ohm)
ACHSELECT	IQUANT	0	Ach Select
CABLEID	IQUANT	13	Cable ID
DCCALDATE	LABEL	7/31/2020	DC Calibration Date
ACCALDATE	LABEL	7/31/2020	AC Calibration Date
THERMOSELECT	IQUANT	1	Thermo Select
FRAMEWORKVERSION	QUANT	6.33	Framework Version
INSTRUMENTVERSION	LABEL	3.50	Instrument Version
COMPLIANCEVOLTAGE	IQUANT	0	Compliance Voltage
ZCURVE	TABLE
	Pt	Time	Freq	Zreal	Zimag	Zsig	Zmod	Zphz	Idc	Vdc	IERange
	#	s	Hz	ohm	ohm	V	ohm	°	A	V	#
	0	9	300046.9	225.5921	-10.93656	1	225.857	-2.775489	8.649364E-005	-0.002751	9
	1	12	238359.4	228.2965	-9.87507	1	228.51	-2.476811	4.072731E-006	0.0010229	9
	2	17	189328.1	231.793	-8.444883	1	231.9468	-2.086526	-7.91344E-005	0.0033122	9
	3	20	150421.9	233.9514	-6.521986	1	234.0423	-1.596851	7.612061E-005	-0.0029304	9
	4	23	119484.4	235.7287	-6.208148	1	235.8105	-1.508592	-9.250455E-005	0.0034224	9
	5	26	94921.88	238.5551	-4.695313	1	238.6013	-1.127567	2.247923E-005	-0.0004757	9
	6	30	75421.88	240.933	-3.920597	1	240.9649	-0.932267	1.594437E-005	7.502038E-005	9
	7	34	59859.37	243.6249	-3.38428	1	243.6484	-0.7958648	-2.197435E-005	0.0004535	9
	8	37	47578.12	246.1755	-2.87015	1	246.1922	-0.6679789	-2.20318E-005	0.0009301	9
	9	41	37828.12	248.6	-2.644607	1	248.6141	-0.6094894	2.804143E-005	-0.0006756	9
	10	44	30046.88	251.0338	-2.309358	1	251.0444	-0.5270714	-8.349318E-007	-0.0004132	9
	11	48	23859.38	253.3546	-1.937019	1	253.362	-0.4380455	1.132439E-005	0.0003086	9
	12	51	18984.38	256.2305	-1.810661	1	256.2369	-0.4048758	-2.586149E-005	0.0009335	9
	13	55	15046.87	257.6528	-2.053281	1	257.661	-0.4565906	-1.949423E-005	0.0009354	9
	14	57	11953.13	260.4053	-1.49288	1	260.4095	-0.3284679	-1.703104E-005	0.0002859	9
	15	61	9515.62	261.9424	-1.913523	1	261.9494	-0.4185455	-1.602952E-005	0.0010053	9
	16	63	7546.875	264.874	-2.420433	1	264.885	-0.5235574	-2.449043E-005	0.0008413	9
	17	67	5928.309	267.0101	-2.082557	1	267.0182	-0.4468718	1.387153E-006	0.0005992	9
	18	70	4733.456	269.5572	-2.702947	1	269.5707	-0.5745062	1.058561E-005	0.0003125	9
	19	73	3796.875	270.8194	-2.912695	1	270.8351	-0.6161992	-1.012268E-005	-0.0001032	9
	20	75	2987.132	273.2067	-4.052494	1	273.2368	-0.84981	-8.975833E-006	0.0008983	9
	21	79	2390.625	275.1997	-4.61285	1	275.2383	-0.960292	-2.29602E-005	0.000688	9
	22	81	1884.191	277.8846	-5.780222	1	277.9447	-1.191626	-2.129182E-005	0.0009709	9
	23	83	1516.544	279.9301	-6.919101	1	280.0156	-1.415905	-2.227374E-005	0.0009913	9
	24	87	1193.986	283.4549	-8.509472	1	283.5826	-1.719535	-8.818832E-006	-0.0001272	9
	25	91	946.5144	286.194	-10.18965	1	286.3754	-2.039097	2.583306E-005	-0.0008157	9
	26	94	751.7689	288.4229	-12.96638	1	288.7143	-2.574064	-9.31673E-007	-0.0004306	9
	27	97	597.4265	290.5338	-15.95153	1	290.9713	-3.142624	-2.139602E-005	0.000454	9
	28	99	477.4305	292.7515	-19.47743	1	293.3987	-3.80641	1.104271E-006	5.862743E-005	9
	29	101	376.6741	295.1611	-24.2423	1	296.1549	-4.695304	1.162417E-006	5.405296E-005	9
	30	103	298.2954	297.6863	-30.10594	1	299.2048	-5.774864	1.173111E-006	5.537231E-005	9
	31	106	237.7717	300.461	-37.1868	1	302.7535	-7.055379	1.104686E-006	6.189451E-005	9
	32	108	189.0121	303.4354	-46.04235	1	306.9087	-8.628068	1.084911E-006	6.171455E-005	9
	33	111	150.2404	306.6982	-57.03906	1	311.9571	-10.53538	1.180834E-006	6.419184E-005	9
	34	113	119.1737	310.3184	-70.80061	1	318.2927	-12.85231	1.095602E-006	5.682208E-005	9
	35	115	95.0169	314.3601	-87.43907	1	326.2942	-15.54387	1.169351E-006	5.750849E-005	9
	36	118	75.60484	319.0709	-108.1812	1	336.9116	-18.72927	1.137836E-006	5.545491E-005	9
	37	120	54.50582	326.1861	-146.5653	1	357.6014	-24.19583	1.127739E-006	5.29547E-005	9
	38	123	45.95588	330.2407	-170.99	1	371.8823	-27.37394	-4.982305E-008	0.0006421	8
	39	125	37.20238	337.2953	-207.8708	1	396.205	-31.645	-2.222554E-008	0.0006346	8
	40	128	30.04808	345.8381	-253.1244	1	428.5743	-36.20098	-5.922462E-008	0.0006264	8
	41	130	23.91582	356.5367	-312.1733	1	473.8889	-41.20446	-2.898088E-008	0.0006327	8
	42	132	18.60119	370.6021	-392.9986	1	540.1794	-46.68	5.023913E-008	0.000637	8
	43	135	15.02404	385.6544	-477.5656	1	613.839	-51.07766	-8.193748E-008	0.0006195	8
	44	137	12.01923	404.7867	-585.0619	1	711.442	-55.3218	-9.667023E-010	0.0006288	8
	45	139	9.450605	429.8055	-728.0692	1	845.4689	-59.44511	-2.103359E-008	0.0006389	8
	46	142	7.512019	459.7494	-896.4542	1	1007.472	-62.84883	1.330366E-008	0.0006365	8
	47	145	5.978954	495.9529	-1102.416	1	1208.838	-65.77805	-3.519529E-008	0.00063	8
	48	148	4.734848	542.1729	-1361.647	1	1465.618	-68.28883	-2.470954E-008	0.0006665	8
	49	151	3.75601	599.4619	-1679.22	1	1783.013	-70.35403	-5.144501E-008	0.0006088	8
	50	154	3.004808	667.3588	-2054.103	1	2159.793	-72.00151	-2.158588E-008	0.0006213	8
	51	158	2.372217	760.713	-2540.202	1	2651.662	-73.32864	-4.096185E-008	0.0006661	8
	52	162	1.878005	876.2738	-3145.001	1	3264.796	-74.43087	-7.14563E-008	0.000629	8
	53	167	1.512097	1004.513	-3822.201	1	3951.995	-75.27508	-4.795521E-008	0.0005575	8
	54	172	1.201923	1194.346	-4718.226	1	4867.044	-75.79485	-3.669928E-008	0.0006558	7
	55	179	0.956633	1421.707	-5790.223	1	5962.208	-76.20474	-3.165948E-008	-3.320592E-005	7
