EXPLAIN
TAG	EISPOT
TITLE	LABEL	Potentiostatic EIS	Test Identifier
DATE	LABEL	9/12/2020	Date
TIME	LABEL	14:03:14	Time
NOTES	NOTES	1	Notes...
	
PSTAT	PSTAT	REF3000-16137	Potentiostat
VDC	POTEN	0.00000E+000	T	DC Voltage (V)
FREQINIT	QUANT	3.00000E+005	Initial Freq. (Hz)
FREQFINAL	QUANT	1.00000E+000	Final Freq. (Hz)
PTSPERDEC	QUANT	1.00000E+001	Points/decade
VAC	QUANT	5.00000E+001	AC Voltage (mV rms)
AREA	QUANT	1.00000E+000	Sample Area (cm^2)
SPEED	SELECTOR	2	Optimize for:
ZGUESS	QUANT	1.00000E+003	Estimated Z (ohms)
EOC	QUANT	0	Open Circuit (V)
SEQUENCER	TOGGLE	TRUE	Run as Sequence
PSTATMODEL	IQUANT	5	Pstat Model
PSTATSECTION	LABEL	REF3000-16137	Pstat Section
PSTATSERIALNO	LABEL	16137	Pstat Serial Number
CTRLMODE	IQUANT	1	Control Mode
IESTAB	IQUANT	0	I/E Stability
CASPEED	IQUANT	1	Control Amp Speed
CONVENTION	IQUANT	1	Current Convention
ICHRANGE	IQUANT	2	Ich Range
ICHRANGEMODE	TOGGLE	F	Ich Auto Range
ICHOFFSETENABLE	TOGGLE	T	Ich Offset Enable
ICHOFFSET	QUANT	0	Ich Offset (V)
ICHFILTER	IQUANT	3	Ich Filter
VCHRANGE	IQUANT	2	Vch Range
VCHRANGEMODE	TOGGLE	F	Vch Auto Range
VCHOFFSETENABLE	TOGGLE	T	Vch Offset Enable
VCHOFFSET	QUANT	0	Vch Offset (V)
VCHFILTER	IQUANT	3	Vch Filter
ACHRANGE	IQUANT	2	Ach Range
ACHOFFSETENABLE	TOGGLE	F	Ach Offset Enable
ACHOFFSET	QUANT	0	Ach Offset (V)
ACHFILTER	IQUANT	3	Ach Filter
IERANGELOWERLIMIT	IQUANT	2	I/E Range Lower Limit
IERANGEMODE	TOGGLE	F	I/E AutoRange
IERANGE	IQUANT	11	I/E Range
POSFEEDENABLE	TOGGLE	F	Positive Feedback IR Comp
POSFEEDRESISTANCE	QUANT	0	Positive Feedback Resistance (ohm)
ACHSELECT	IQUANT	0	Ach Select
CABLEID	IQUANT	13	Cable ID
DCCALDATE	LABEL	7/31/2020	DC Calibration Date
ACCALDATE	LABEL	7/31/2020	AC Calibration Date
THERMOSELECT	IQUANT	1	Thermo Select
FRAMEWORKVERSION	QUANT	6.33	Framework Version
INSTRUMENTVERSION	LABEL	3.50	Instrument Version
COMPLIANCEVOLTAGE	IQUANT	0	Compliance Voltage
ZCURVE	TABLE
	Pt	Time	Freq	Zreal	Zimag	Zsig	Zmod	Zphz	Idc	Vdc	IERange
	#	s	Hz	ohm	ohm	V	ohm	°	A	V	#
	0	10	300046.9	4.767807	2.232977	1	5.264804	25.09579	5.861276E-005	-0.0001365	10
	1	14	238359.4	4.742	1.781218	1	5.065501	20.58748	9.043909E-006	-0.0002322	10
	2	17	189328.1	4.728407	1.413723	1	4.935225	16.64588	-0.0001011	0.0001591	10
	3	19	150421.9	4.717407	1.110976	1	4.846462	13.252	5.873425E-005	0.000243	10
	4	22	119484.4	4.719824	0.8560707	1	4.796832	10.28041	-1.041115E-005	0.0003164	10
	5	24	94921.88	4.722941	0.6655577	1	4.769606	8.021314	3.052906E-005	0.0004449	10
	6	27	75421.88	4.727526	0.4913312	1	4.75299	5.933441	-7.452166E-006	0.0004838	10
	7	29	59859.37	4.733503	0.3398938	1	4.74569	4.107131	2.173526E-005	0.000534	10
	8	32	47578.12	4.743548	0.2097214	1	4.748182	2.531508	-1.245958E-005	0.0006006	10
	9	34	37828.12	4.753803	0.0910008	1	4.754673	1.096664	-1.777604E-005	0.000608	10
	10	37	30046.88	4.766726	-0.0212993	1	4.766773	-0.2560143	1.26688E-005	0.0006021	10
	11	39	23859.38	4.781983	-0.1319941	1	4.783805	-1.581098	2.471981E-005	0.0006241	10
	12	42	18984.38	4.796861	-0.2460409	1	4.803166	-2.936245	1.729302E-005	0.0006072	10
	13	44	15046.87	4.813951	-0.3722347	1	4.828321	-4.421549	2.107008E-005	0.0006227	10
	14	46	11953.13	4.834951	-0.513909	1	4.862186	-6.067212	5.96348E-006	0.0006204	10
	15	49	9515.62	4.859034	-0.6772983	1	4.906011	-7.935301	-1.751586E-005	0.0006709	10
	16	51	7546.875	4.88574	-0.8743057	1	4.963353	-10.14572	2.07248E-005	0.0006241	10
	17	53	5928.309	4.920937	-1.123492	1	5.047559	-12.86068	3.209047E-006	0.0006172	10
	18	56	4733.456	4.96068	-1.406373	1	5.156184	-15.82825	-2.200224E-005	0.000681	10
	19	58	3796.875	5.007541	-1.742941	1	5.302198	-19.19113	-9.87353E-006	0.0006231	10
	20	60	2987.132	5.070733	-2.190886	1	5.523795	-23.36748	-2.421532E-005	0.0006712	10
	21	63	2390.625	5.142576	-2.704478	1	5.81036	-27.73986	-2.065466E-005	0.0006483	10
	22	65	1884.191	5.237936	-3.377703	1	6.232564	-32.8161	-1.522541E-005	0.0006822	10
	23	67	1516.544	5.348004	-4.132441	1	6.758566	-37.69352	-1.678E-005	0.0006573	10
	24	69	1193.986	5.494642	-5.154504	1	7.533924	-43.17057	2.034442E-005	0.0006332	10
	25	72	946.5144	5.671795	-6.389071	1	8.543388	-48.40345	8.5124E-006	0.0006155	10
	26	74	751.7689	5.898805	-7.889072	1	9.85055	-53.21386	1.573582E-005	0.0006217	10
	27	77	597.4265	6.171006	-9.74055	1	11.53081	-57.64419	1.732638E-005	0.0006457	10
	28	79	477.4305	6.509593	-11.95952	1	13.61635	-61.44045	-2.334191E-006	0.000658	10
	29	81	376.6741	6.956484	-14.85406	1	16.40232	-64.90528	-2.254348E-006	0.000656	10
	30	83	298.2954	7.513462	-18.38248	1	19.85869	-67.76871	-2.01569E-006	0.0006572	10
	31	86	237.7717	8.20218	-22.60806	1	24.04995	-70.05928	-2.359155E-006	0.0006576	10
	32	88	189.0121	9.090562	-27.8705	1	29.31558	-71.93515	-2.286744E-006	0.0006594	10
	33	91	150.2404	10.2284	-34.33295	1	35.82417	-73.41026	-2.273021E-006	0.0006563	10
	34	93	119.1737	11.69863	-42.30036	1	43.88825	-74.54063	1.271343E-006	5.630462E-005	9
	35	95	95.0169	13.57069	-51.88366	1	53.62908	-75.34209	1.151738E-006	5.809989E-005	9
	36	98	75.60484	16.01	-63.68635	1	65.66788	-75.88892	9.858576E-007	5.154044E-005	9
	37	100	54.50582	20.7985	-85.16507	1	87.66793	-76.27619	1.075851E-006	5.33262E-005	9
	38	103	45.95588	24.08228	-98.9718	1	101.8596	-76.3243	1.176859E-006	5.852503E-005	9
	39	105	37.20238	29.08084	-118.9787	1	122.4811	-76.26502	1.166175E-006	5.82674E-005	9
	40	108	30.04808	35.38131	-143.0816	1	147.3913	-76.1105	1.132684E-006	5.6392E-005	9
	41	110	23.91582	43.72174	-173.6624	1	179.0816	-75.86873	1.127096E-006	5.483774E-005	9
	42	112	18.60119	55.17482	-214.5088	1	221.4911	-75.57536	1.107099E-006	6.674323E-005	9
	43	115	15.02404	66.94982	-256.2649	1	264.866	-75.35859	1.373743E-006	7.542846E-005	9
	44	117	12.01923	81.61143	-308.021	1	318.6492	-75.16022	1.101979E-006	5.971259E-005	9
	45	119	9.450605	100.0581	-375.1946	1	388.3074	-75.0677	1.163272E-006	6.485904E-005	9
	46	122	7.512019	119.9204	-451.0829	1	466.7512	-75.11227	5.258975E-007	0.0006312	8
	47	125	5.978954	143.1019	-543.9873	1	562.4948	-75.26162	5.841362E-007	0.0006394	8
	48	128	4.734848	169.9397	-660.3987	1	681.9135	-75.56922	5.282655E-007	0.0006437	8
	49	131	3.75601	199.5644	-801.595	1	826.0632	-76.0199	5.617969E-007	0.0006351	8
	50	134	3.004808	231.8917	-968.636	1	996.007	-76.53676	5.372314E-007	0.0006721	8
	51	138	2.372217	271.6178	-1189.114	1	1219.741	-77.13322	5.302608E-007	0.0007122	8
	52	142	1.878005	317.1443	-1459.976	1	1494.025	-77.74429	5.075462E-007	0.0006088	8
	53	147	1.512097	370.2494	-1766.893	1	1805.269	-78.16502	5.587351E-007	0.0006945	8
	54	152	1.201923	436.5588	-2178.132	1	2221.451	-78.66649	5.24285E-007	0.0006032	8
	55	159	0.956633	523.2088	-2679.08	1	2729.691	-78.94955	5.001513E-007	1.255797E-006	8
