EXPLAIN
TAG	EISPOT
TITLE	LABEL	Potentiostatic EIS	Test Identifier
DATE	LABEL	9/12/2020	Date
TIME	LABEL	14:39:13	Time
NOTES	NOTES	1	Notes...
	
PSTAT	PSTAT	REF3000-16137	Potentiostat
VDC	POTEN	0.00000E+000	T	DC Voltage (V)
FREQINIT	QUANT	3.00000E+005	Initial Freq. (Hz)
FREQFINAL	QUANT	1.00000E+000	Final Freq. (Hz)
PTSPERDEC	QUANT	1.00000E+001	Points/decade
VAC	QUANT	5.00000E+001	AC Voltage (mV rms)
AREA	QUANT	1.00000E+000	Sample Area (cm^2)
SPEED	SELECTOR	2	Optimize for:
ZGUESS	QUANT	1.00000E+003	Estimated Z (ohms)
EOC	QUANT	0	Open Circuit (V)
SEQUENCER	TOGGLE	TRUE	Run as Sequence
PSTATMODEL	IQUANT	5	Pstat Model
PSTATSECTION	LABEL	REF3000-16137	Pstat Section
PSTATSERIALNO	LABEL	16137	Pstat Serial Number
CTRLMODE	IQUANT	1	Control Mode
IESTAB	IQUANT	0	I/E Stability
CASPEED	IQUANT	1	Control Amp Speed
CONVENTION	IQUANT	1	Current Convention
ICHRANGE	IQUANT	2	Ich Range
ICHRANGEMODE	TOGGLE	F	Ich Auto Range
ICHOFFSETENABLE	TOGGLE	T	Ich Offset Enable
ICHOFFSET	QUANT	0	Ich Offset (V)
ICHFILTER	IQUANT	3	Ich Filter
VCHRANGE	IQUANT	2	Vch Range
VCHRANGEMODE	TOGGLE	F	Vch Auto Range
VCHOFFSETENABLE	TOGGLE	T	Vch Offset Enable
VCHOFFSET	QUANT	0	Vch Offset (V)
VCHFILTER	IQUANT	3	Vch Filter
ACHRANGE	IQUANT	2	Ach Range
ACHOFFSETENABLE	TOGGLE	F	Ach Offset Enable
ACHOFFSET	QUANT	0	Ach Offset (V)
ACHFILTER	IQUANT	3	Ach Filter
IERANGELOWERLIMIT	IQUANT	2	I/E Range Lower Limit
IERANGEMODE	TOGGLE	F	I/E AutoRange
IERANGE	IQUANT	11	I/E Range
POSFEEDENABLE	TOGGLE	F	Positive Feedback IR Comp
POSFEEDRESISTANCE	QUANT	0	Positive Feedback Resistance (ohm)
ACHSELECT	IQUANT	0	Ach Select
CABLEID	IQUANT	13	Cable ID
DCCALDATE	LABEL	7/31/2020	DC Calibration Date
ACCALDATE	LABEL	7/31/2020	AC Calibration Date
THERMOSELECT	IQUANT	1	Thermo Select
FRAMEWORKVERSION	QUANT	6.33	Framework Version
INSTRUMENTVERSION	LABEL	3.50	Instrument Version
COMPLIANCEVOLTAGE	IQUANT	0	Compliance Voltage
ZCURVE	TABLE
	Pt	Time	Freq	Zreal	Zimag	Zsig	Zmod	Zphz	Idc	Vdc	IERange
	#	s	Hz	ohm	ohm	V	ohm	°	A	V	#
	0	7	300046.9	70.86326	1.692314	1	70.88346	1.368043	1.54737E-005	0.000385	9
	1	10	238359.4	71.52611	1.222195	1	71.53655	0.97894	1.116587E-005	0.0003088	9
	2	13	189328.1	71.96254	0.9226267	1	71.96845	0.734545	4.482092E-005	-0.0006595	9
	3	16	150421.9	72.36482	0.7030285	1	72.36824	0.5566143	4.283175E-005	-0.0004454	9
	4	18	119484.4	72.82396	0.4679797	1	72.82546	0.3681878	5.293683E-007	-0.0010999	9
	5	21	94921.88	73.22406	0.5649517	1	73.22624	0.4420501	2.041787E-005	-0.0006946	9
	6	23	75421.88	73.59173	0.3274252	1	73.59245	0.2549194	-1.49814E-005	0.0003256	9
	7	26	59859.37	73.978	0.1491156	1	73.97816	0.1154895	-1.789472E-005	0.0004013	9
	8	28	47578.12	74.3824	-0.0140447	1	74.3824	-0.0108185	-1.105051E-005	0.0007944	9
	9	31	37828.12	74.8094	-0.1389711	1	74.80953	-0.1064365	-2.557682E-006	-0.0002399	9
	10	33	30046.88	75.22574	-0.2639279	1	75.2262	-0.2010202	3.266138E-006	0.0004108	9
	11	36	23859.38	75.61287	-0.3528334	1	75.61369	-0.2673582	2.802193E-006	0.0004437	9
	12	38	18984.38	76.02115	-0.5089877	1	76.02285	-0.3836092	-1.595237E-005	0.0007929	9
	13	41	15046.87	76.41933	-0.6593015	1	76.42218	-0.4943023	1.744811E-005	-0.0001607	9
	14	43	11953.13	76.70155	-0.8741785	1	76.70654	-0.6529799	1.404933E-005	-0.0006718	9
	15	45	9515.62	77.19131	-1.008416	1	77.19789	-0.7484611	3.896088E-006	0.0004207	9
	16	47	7546.875	77.62691	-1.296002	1	77.63773	-0.95648	-2.630176E-006	-0.0002417	9
	17	50	5928.309	78.0165	-1.60741	1	78.03306	-1.180325	1.016488E-005	0.0001488	9
	18	52	4733.456	78.45939	-2.004569	1	78.48499	-1.463539	4.547601E-006	-0.0004432	9
	19	54	3796.875	78.93327	-2.497354	1	78.97276	-1.812165	1.827648E-005	-0.0001022	9
	20	57	2987.132	79.35094	-3.110164	1	79.41187	-2.244562	3.333555E-006	0.000392	9
	21	59	2390.625	79.82881	-3.811377	1	79.91975	-2.733475	-1.621087E-005	0.0007385	9
	22	61	1884.191	80.3207	-4.684379	1	80.45718	-3.337763	2.072246E-005	-0.0002694	9
	23	64	1516.544	80.86284	-5.838938	1	81.07337	-4.130042	-9.265809E-006	1.873294E-006	9
	24	66	1193.986	81.39413	-7.270383	1	81.71819	-5.104295	-8.843826E-006	3.637872E-006	9
	25	68	946.5144	82.0395	-9.027365	1	82.53468	-6.279382	-1.853967E-005	0.0007512	9
	26	71	751.7689	82.62195	-11.20922	1	83.37885	-7.72608	-2.201444E-006	-0.0002346	9
	27	73	597.4265	83.37952	-13.93894	1	84.53661	-9.490639	2.133241E-005	-0.0006486	9
	28	75	477.4305	84.16046	-17.13763	1	85.88761	-11.5098	1.29571E-006	6.306311E-005	9
	29	78	376.6741	85.07276	-21.37789	1	87.71767	-14.10576	1.370615E-006	5.4461E-005	9
	30	80	298.2954	86.11316	-26.56682	1	90.1181	-17.14555	1.427817E-006	6.296759E-005	9
	31	82	237.7717	87.32481	-32.80909	1	93.28482	-20.59187	1.320472E-006	6.350705E-005	9
	32	85	189.0121	88.75862	-40.60651	1	97.6063	-24.5838	1.302687E-006	6.004467E-005	9
	33	87	150.2404	90.47142	-50.22743	1	103.4789	-29.03792	9.207207E-007	0.0001106	9
	34	90	119.1737	92.55635	-62.21387	1	111.5224	-33.90792	1.401019E-006	5.610922E-005	9
	35	92	95.0169	95.037	-76.64236	1	122.0905	-38.88435	1.324379E-006	6.341767E-005	9
	36	94	75.60484	98.1005	-94.53029	1	136.2339	-43.9382	1.339581E-006	5.767365E-005	9
	37	97	54.50582	103.4943	-127.4878	1	164.2079	-50.9304	1.269681E-006	5.375584E-005	9
	38	99	45.95588	107.2277	-148.9934	1	183.5669	-54.25816	1.292943E-006	6.117377E-005	9
	39	102	37.20238	112.5445	-180.6064	1	212.8026	-58.07098	1.360495E-006	5.457592E-005	9
	40	104	30.04808	119.1033	-219.3518	1	249.6013	-61.49899	1.320428E-006	5.875568E-005	9
	41	107	23.91582	127.635	-269.895	1	298.5531	-64.69025	1.238874E-006	5.660323E-005	9
	42	109	18.60119	139.2422	-339.0107	1	366.4924	-67.67052	1.371996E-006	5.275934E-005	9
	43	111	15.02404	151.0774	-409.7652	1	436.7286	-69.76144	2.105775E-007	0.0006237	8
	44	113	12.01923	166.9837	-501.525	1	528.5933	-71.58472	2.62787E-007	0.0006375	8
	45	116	9.450605	188.7272	-623.6598	1	651.59	-73.16354	3.107946E-007	0.0006392	8
	46	118	7.512019	214.9637	-767.3084	1	796.851	-74.34963	2.830009E-007	0.0006558	8
	47	121	5.978954	248.2429	-942.743	1	974.879	-75.24776	2.43872E-007	0.0006377	8
	48	124	4.734848	291.5179	-1163.9	1	1199.853	-75.93861	2.996292E-007	0.0006567	8
	49	127	3.75601	346.8053	-1431.689	1	1473.095	-76.38324	2.192626E-007	0.0006206	8
	50	131	3.004808	415.11	-1746.295	1	1794.954	-76.62845	2.925239E-007	0.0006151	8
	51	135	2.372217	508.4294	-2150.773	1	2210.051	-76.69979	2.41686E-007	0.0006751	8
	52	139	1.878005	630.5068	-2646.38	1	2720.453	-76.59898	2.437062E-007	0.0006422	8
	53	143	1.512097	769.7873	-3198.414	1	3289.745	-76.46755	2.738354E-007	0.0005322	8
	54	149	1.201923	958.796	-3903.569	1	4019.594	-76.20017	2.40882E-007	0.0006989	8
	55	155	0.956633	1190.414	-4754.454	1	4901.216	-75.94334	5.097781E-009	-2.789006E-005	7
