EXPLAIN
TAG	EISPOT
TITLE	LABEL	Potentiostatic EIS	Test Identifier
DATE	LABEL	9/12/2020	Date
TIME	LABEL	13:17:55	Time
NOTES	NOTES	1	Notes...
	
PSTAT	PSTAT	REF3000-16137	Potentiostat
VDC	POTEN	0.00000E+000	T	DC Voltage (V)
FREQINIT	QUANT	3.00000E+005	Initial Freq. (Hz)
FREQFINAL	QUANT	1.00000E+000	Final Freq. (Hz)
PTSPERDEC	QUANT	1.00000E+001	Points/decade
VAC	QUANT	5.00000E+001	AC Voltage (mV rms)
AREA	QUANT	1.00000E+000	Sample Area (cm^2)
SPEED	SELECTOR	2	Optimize for:
ZGUESS	QUANT	1.00000E+003	Estimated Z (ohms)
EOC	QUANT	0	Open Circuit (V)
SEQUENCER	TOGGLE	TRUE	Run as Sequence
PSTATMODEL	IQUANT	5	Pstat Model
PSTATSECTION	LABEL	REF3000-16137	Pstat Section
PSTATSERIALNO	LABEL	16137	Pstat Serial Number
CTRLMODE	IQUANT	1	Control Mode
IESTAB	IQUANT	0	I/E Stability
CASPEED	IQUANT	1	Control Amp Speed
CONVENTION	IQUANT	1	Current Convention
ICHRANGE	IQUANT	2	Ich Range
ICHRANGEMODE	TOGGLE	F	Ich Auto Range
ICHOFFSETENABLE	TOGGLE	T	Ich Offset Enable
ICHOFFSET	QUANT	0	Ich Offset (V)
ICHFILTER	IQUANT	3	Ich Filter
VCHRANGE	IQUANT	2	Vch Range
VCHRANGEMODE	TOGGLE	F	Vch Auto Range
VCHOFFSETENABLE	TOGGLE	T	Vch Offset Enable
VCHOFFSET	QUANT	0	Vch Offset (V)
VCHFILTER	IQUANT	3	Vch Filter
ACHRANGE	IQUANT	2	Ach Range
ACHOFFSETENABLE	TOGGLE	F	Ach Offset Enable
ACHOFFSET	QUANT	0	Ach Offset (V)
ACHFILTER	IQUANT	3	Ach Filter
IERANGELOWERLIMIT	IQUANT	2	I/E Range Lower Limit
IERANGEMODE	TOGGLE	F	I/E AutoRange
IERANGE	IQUANT	11	I/E Range
POSFEEDENABLE	TOGGLE	F	Positive Feedback IR Comp
POSFEEDRESISTANCE	QUANT	0	Positive Feedback Resistance (ohm)
ACHSELECT	IQUANT	0	Ach Select
CABLEID	IQUANT	13	Cable ID
DCCALDATE	LABEL	7/31/2020	DC Calibration Date
ACCALDATE	LABEL	7/31/2020	AC Calibration Date
THERMOSELECT	IQUANT	1	Thermo Select
FRAMEWORKVERSION	QUANT	6.33	Framework Version
INSTRUMENTVERSION	LABEL	3.50	Instrument Version
COMPLIANCEVOLTAGE	IQUANT	0	Compliance Voltage
ZCURVE	TABLE
	Pt	Time	Freq	Zreal	Zimag	Zsig	Zmod	Zphz	Idc	Vdc	IERange
	#	s	Hz	ohm	ohm	V	ohm	°	A	V	#
	0	10	300046.9	2.0106	2.253378	1	3.019971	48.25874	1.70728E-006	-0.0002786	11
	1	13	238359.4	1.957928	1.785511	1	2.649817	42.36291	7.005502E-005	-0.0003578	11
	2	16	189328.1	2.004278	1.282955	1	2.379727	32.62365	-0.0001471	-0.0000992	12
	3	20	150421.9	1.963788	1.011772	1	2.209105	27.25819	-0.0001653	0.0001588	12
	4	23	119484.4	1.893755	0.8671932	1	2.082867	24.60411	4.534909E-006	0.0003814	11
	5	26	94921.88	1.887249	0.6690856	1	2.002345	19.52092	-4.021285E-005	0.0004204	11
	6	29	75421.88	1.883805	0.5013649	1	1.949381	14.9035	-0.0000965	0.0005231	11
	7	31	59859.37	1.883903	0.360405	1	1.918067	10.83026	-3.019008E-005	0.0005426	11
	8	34	47578.12	1.884746	0.2398328	1	1.899944	7.251879	-3.310398E-005	0.000582	11
	9	36	37828.12	1.886658	0.1323678	1	1.891296	4.01329	1.514981E-005	0.0006334	11
	10	39	30046.88	1.890475	0.0329217	1	1.890761	0.997678	-2.574909E-005	0.0006133	11
	11	41	23859.38	1.895321	-0.0638014	1	1.896394	-1.927996	-6.246794E-006	0.0006156	11
	12	44	18984.38	1.903173	-0.161186	1	1.909987	-4.841016	-2.592488E-005	0.0006646	11
	13	46	15046.87	1.911929	-0.2667842	1	1.930452	-7.943574	5.775527E-006	0.0006675	11
	14	48	11953.13	1.924102	-0.3829801	1	1.961846	-11.25723	-3.48307E-005	0.0006742	11
	15	50	9515.62	1.938702	-0.5143379	1	2.005769	-14.85829	-8.024107E-005	0.0007414	11
	16	53	7546.875	1.956557	-0.6709798	1	2.068412	-18.92885	-4.641583E-005	0.0006432	11
	17	55	5928.309	1.981707	-0.8663871	1	2.16282	-23.61458	-3.662783E-005	0.0006651	11
	18	57	4733.456	2.011292	-1.086208	1	2.285857	-28.37146	-3.608894E-005	0.0006717	11
	19	60	3796.875	2.047352	-1.345275	1	2.449778	-33.30814	1.739895E-005	0.0006879	11
	20	62	2987.132	2.096776	-1.691333	1	2.693896	-38.89087	-1.175079E-005	0.000674	11
	21	64	2390.625	2.154799	-2.08479	1	2.99825	-44.05395	-2.876821E-005	0.0006827	11
	22	67	1884.191	2.23185	-2.600143	1	3.426645	-49.35863	-2.549884E-005	0.0006639	11
	23	69	1516.544	2.322351	-3.176219	1	3.934677	-53.8269	-1.41365E-005	0.0006667	11
	24	71	1193.986	2.450394	-3.958032	1	4.655153	-58.23859	1.842584E-005	0.0006421	10
	25	74	946.5144	2.607011	-4.895798	1	5.546651	-61.96471	-3.20975E-005	0.0007011	10
	26	76	751.7689	2.808518	-6.035778	1	6.657206	-65.04688	-2.775101E-005	0.0006545	10
	27	78	597.4265	3.07302	-7.433424	1	8.043584	-67.53952	7.567962E-007	0.000613	10
	28	81	477.4305	3.396602	-9.096852	1	9.71028	-69.52527	-4.450294E-006	0.0006575	10
	29	83	376.6741	3.844723	-11.24773	1	11.88669	-71.12844	-4.299295E-006	0.0006523	10
	30	85	298.2954	4.418824	-13.8407	1	14.52897	-72.29363	-8.359742E-006	0.0007105	10
	31	88	237.7717	5.138882	-16.89994	1	17.66398	-73.08669	-4.862223E-006	0.0006554	10
	32	90	189.0121	6.074075	-20.64543	1	21.52041	-73.60563	-5.375916E-006	0.0006534	10
	33	92	150.2404	7.262763	-25.15725	1	26.18463	-73.89686	-4.724286E-006	0.0006491	10
	34	95	119.1737	8.775423	-30.64373	1	31.87548	-74.01991	-4.664586E-006	0.0006521	10
	35	97	95.0169	10.60129	-37.05554	1	38.54219	-74.03461	-4.695884E-006	0.0006549	10
	36	100	75.60484	12.82599	-44.73737	1	46.53964	-74.00266	-2.255764E-006	5.62123E-005	9
	37	102	54.50582	16.79118	-58.5066	1	60.86843	-73.98672	-2.492125E-006	5.496671E-005	9
	38	105	45.95588	19.25374	-67.25641	1	69.95807	-74.02498	-1.909379E-006	5.666577E-005	9
	39	107	37.20238	22.68551	-79.89729	1	83.05547	-74.14898	-2.102016E-006	5.663652E-005	9
	40	109	30.04808	26.53345	-95.0897	1	98.7222	-74.40899	-2.2024E-006	5.076068E-005	9
	41	112	23.91582	31.30078	-114.9526	1	119.1379	-74.76805	-2.353089E-006	5.61657E-005	9
	42	114	18.60119	37.14217	-141.7303	1	146.5162	-75.31516	-2.027804E-006	4.900968E-005	9
	43	117	15.02404	42.8756	-169.9678	1	175.2923	-75.8421	-1.929375E-006	5.55201E-005	9
	44	119	12.01923	50.01127	-206.1795	1	212.1583	-76.36556	-2.244583E-006	5.137965E-005	9
	45	121	9.450605	59.32199	-254.5631	1	261.3838	-76.88222	-2.115003E-006	6.515189E-005	9
	46	124	7.512019	71.02071	-312.5901	1	320.5566	-77.19965	-1.88169E-006	6.154197E-005	9
	47	127	5.978954	85.59821	-383.1601	1	392.6051	-77.40687	-1.881166E-006	5.705074E-005	9
	48	130	4.734848	105.9643	-471.0785	1	482.8492	-77.3229	-2.516935E-006	0.0006267	8
	49	133	3.75601	133.6583	-580.183	1	595.3796	-77.02696	-2.566967E-006	0.0006379	8
	50	136	3.004808	171.0893	-708.3218	1	728.6915	-76.42077	-2.475934E-006	0.0006007	8
	51	140	2.372217	228.0195	-874.045	1	903.2982	-75.37865	-2.557007E-006	0.0005567	8
	52	144	1.878005	305.4455	-1071.903	1	1114.573	-74.09476	-2.458763E-006	0.0006426	8
	53	149	1.512097	407.1905	-1285.232	1	1348.193	-72.42062	-2.504397E-006	0.0006061	8
	54	154	1.201923	556.8313	-1556.66	1	1653.255	-70.31741	-2.43444E-006	0.00066	8
	55	160	0.956633	763.8536	-1856.365	1	2007.378	-67.63391	-2.59372E-006	-5.005062E-006	8
