EXPLAIN
TAG	EISPOT
TITLE	LABEL	Potentiostatic EIS	Test Identifier
DATE	LABEL	9/12/2020	Date
TIME	LABEL	13:32:05	Time
NOTES	NOTES	1	Notes...
	
PSTAT	PSTAT	REF3000-16137	Potentiostat
VDC	POTEN	0.00000E+000	T	DC Voltage (V)
FREQINIT	QUANT	3.00000E+005	Initial Freq. (Hz)
FREQFINAL	QUANT	1.00000E+000	Final Freq. (Hz)
PTSPERDEC	QUANT	1.00000E+001	Points/decade
VAC	QUANT	5.00000E+001	AC Voltage (mV rms)
AREA	QUANT	1.00000E+000	Sample Area (cm^2)
SPEED	SELECTOR	2	Optimize for:
ZGUESS	QUANT	1.00000E+003	Estimated Z (ohms)
EOC	QUANT	0	Open Circuit (V)
SEQUENCER	TOGGLE	TRUE	Run as Sequence
PSTATMODEL	IQUANT	5	Pstat Model
PSTATSECTION	LABEL	REF3000-16137	Pstat Section
PSTATSERIALNO	LABEL	16137	Pstat Serial Number
CTRLMODE	IQUANT	1	Control Mode
IESTAB	IQUANT	0	I/E Stability
CASPEED	IQUANT	1	Control Amp Speed
CONVENTION	IQUANT	1	Current Convention
ICHRANGE	IQUANT	2	Ich Range
ICHRANGEMODE	TOGGLE	F	Ich Auto Range
ICHOFFSETENABLE	TOGGLE	T	Ich Offset Enable
ICHOFFSET	QUANT	0	Ich Offset (V)
ICHFILTER	IQUANT	3	Ich Filter
VCHRANGE	IQUANT	2	Vch Range
VCHRANGEMODE	TOGGLE	F	Vch Auto Range
VCHOFFSETENABLE	TOGGLE	T	Vch Offset Enable
VCHOFFSET	QUANT	0	Vch Offset (V)
VCHFILTER	IQUANT	3	Vch Filter
ACHRANGE	IQUANT	2	Ach Range
ACHOFFSETENABLE	TOGGLE	F	Ach Offset Enable
ACHOFFSET	QUANT	0	Ach Offset (V)
ACHFILTER	IQUANT	3	Ach Filter
IERANGELOWERLIMIT	IQUANT	2	I/E Range Lower Limit
IERANGEMODE	TOGGLE	F	I/E AutoRange
IERANGE	IQUANT	11	I/E Range
POSFEEDENABLE	TOGGLE	F	Positive Feedback IR Comp
POSFEEDRESISTANCE	QUANT	0	Positive Feedback Resistance (ohm)
ACHSELECT	IQUANT	0	Ach Select
CABLEID	IQUANT	13	Cable ID
DCCALDATE	LABEL	7/31/2020	DC Calibration Date
ACCALDATE	LABEL	7/31/2020	AC Calibration Date
THERMOSELECT	IQUANT	1	Thermo Select
FRAMEWORKVERSION	QUANT	6.33	Framework Version
INSTRUMENTVERSION	LABEL	3.50	Instrument Version
COMPLIANCEVOLTAGE	IQUANT	0	Compliance Voltage
ZCURVE	TABLE
	Pt	Time	Freq	Zreal	Zimag	Zsig	Zmod	Zphz	Idc	Vdc	IERange
	#	s	Hz	ohm	ohm	V	ohm	°	A	V	#
	0	11	300046.9	2.315205	2.233413	1	3.216879	43.96983	3.272722E-005	-0.0001245	11
	1	14	238359.4	2.277494	1.778503	1	2.889646	37.9864	9.806756E-006	-0.00016	11
	2	17	189328.1	2.327019	1.249425	1	2.641227	28.23228	-1.072244E-005	-5.849412E-005	12
	3	20	150421.9	2.274762	0.985251	1	2.478964	23.41854	-0.0001792	0.0002827	12
	4	24	119484.4	2.247129	0.7665465	1	2.374275	18.83567	-0.0001046	0.0003646	12
	5	28	94921.88	2.229239	0.5832368	1	2.304272	14.66168	-5.591304E-005	0.0004595	12
	6	31	75421.88	2.209167	0.4933924	1	2.263593	12.58975	-2.891319E-005	0.0005333	11
	7	34	59859.37	2.20871	0.3515138	1	2.236506	9.042726	-2.998739E-005	0.0005689	11
	8	36	47578.12	2.209673	0.2289209	1	2.2215	5.914709	1.313804E-005	0.000601	11
	9	39	37828.12	2.212848	0.1202923	1	2.216115	3.111584	1.59738E-005	0.000639	11
	10	41	30046.88	2.217082	0.0179962	1	2.217155	0.4650642	1.807888E-005	0.0006543	11
	11	44	23859.38	2.223677	-0.0817342	1	2.225178	-2.105036	2.634544E-006	0.0006638	11
	12	46	18984.38	2.231046	-0.1832872	1	2.238562	-4.696475	-3.091754E-005	0.0006415	11
	13	49	15046.87	2.240987	-0.2942837	1	2.260227	-7.481204	2.562489E-005	0.0006961	11
	14	51	11953.13	2.253052	-0.4167229	1	2.291267	-10.47896	1.946133E-005	0.000685	11
	15	53	9515.62	2.268783	-0.5563065	1	2.33599	-13.77713	1.935973E-005	0.0006852	11
	16	56	7546.875	2.289165	-0.7234991	1	2.400777	-17.53933	-1.470779E-005	0.0006767	11
	17	58	5928.309	2.315386	-0.93278	1	2.496215	-21.94261	-5.658251E-006	0.0006678	11
	18	60	4733.456	2.345944	-1.168893	1	2.621024	-26.4853	1.413465E-005	0.0006846	11
	19	63	3796.875	2.38441	-1.447732	1	2.789505	-31.26469	-8.875211E-006	0.0006703	11
	20	65	2987.132	2.435383	-1.820094	1	3.040367	-36.77276	-2.311863E-005	0.000671	11
	21	67	2390.625	2.496045	-2.243545	1	3.356149	-41.95047	-3.401144E-005	0.0006746	11
	22	69	1884.191	2.576401	-2.799095	1	3.804311	-47.37227	-5.91996E-006	0.0006678	11
	23	72	1516.544	2.670875	-3.423341	1	4.341986	-52.03881	1.695878E-005	0.0006256	10
	24	74	1193.986	2.799497	-4.266037	1	5.102573	-56.72596	1.448211E-005	0.0006172	10
	25	77	946.5144	2.958181	-5.280082	1	6.052281	-60.74015	-2.924848E-005	0.0006555	10
	26	79	751.7689	3.163106	-6.51841	1	7.245337	-64.11469	-2.354911E-005	0.0007127	10
	27	81	597.4265	3.419847	-8.038454	1	8.73568	-66.95336	3.571399E-006	0.000637	10
	28	83	477.4305	3.748116	-9.85082	1	10.53978	-69.1688	-2.927861E-006	0.0006534	10
	29	86	376.6741	4.195203	-12.20475	1	12.90564	-71.03035	-7.224413E-006	0.0007018	10
	30	88	298.2954	4.768891	-15.05401	1	15.79131	-72.42255	-3.052018E-006	0.0006479	10
	31	90	237.7717	5.491736	-18.43279	1	19.23349	-73.40947	-2.693325E-006	0.0006453	10
	32	93	189.0121	6.436986	-22.58976	1	23.48898	-74.09502	-3.403422E-006	0.0006468	10
	33	95	150.2404	7.655012	-27.62783	1	28.66873	-74.51321	-3.479597E-006	0.0006521	10
	34	98	119.1737	9.232633	-33.78586	1	35.02465	-74.71599	-3.279644E-006	0.0006496	10
	35	100	95.0169	11.16602	-40.96756	1	42.462	-74.75393	-3.776479E-007	4.834025E-005	9
	36	103	75.60484	13.61075	-49.69785	1	51.52795	-74.68396	-5.062944E-007	5.219699E-005	9
	37	105	54.50582	18.08464	-65.25333	1	67.71301	-74.50954	-5.967693E-007	4.551344E-005	9
	38	108	45.95588	20.9231	-75.09427	1	77.95464	-74.43086	-1.385833E-007	5.556409E-005	9
	39	110	37.20238	24.97572	-89.27869	1	92.70637	-74.37103	-1.696539E-007	5.211499E-005	9
	40	112	30.04808	29.65611	-106.1889	1	110.2523	-74.39618	-3.799567E-007	4.948459E-005	9
	41	115	23.91582	35.46514	-128.0288	1	132.8501	-74.51678	-4.249641E-007	4.729094E-005	9
	42	117	18.60119	42.56231	-157.2435	1	162.902	-74.85424	-2.29512E-007	5.369728E-005	9
	43	119	15.02404	49.35567	-187.7393	1	194.1186	-75.27054	-2.283406E-007	4.204366E-005	9
	44	122	12.01923	57.36668	-226.4444	1	233.5979	-75.78397	-1.662348E-007	4.704355E-005	9
	45	124	9.450605	67.20898	-278.2638	1	286.2652	-76.42142	-2.479665E-007	4.289623E-005	9
	46	127	7.512019	78.48363	-339.9551	1	348.8971	-77.00019	-6.905244E-008	6.649619E-005	9
	47	129	5.978954	91.75394	-414.332	1	424.3699	-77.51334	-8.195347E-007	0.0006283	8
	48	132	4.734848	109.6018	-510.543	1	522.175	-77.88381	-8.401795E-007	0.0006505	8
	49	136	3.75601	132.2685	-629.296	1	643.0461	-78.13007	-8.245519E-007	0.0006216	8
	50	139	3.004808	161.1536	-769.8759	1	786.5617	-78.17731	-8.436735E-007	0.0006661	8
	51	143	2.372217	203.9975	-954.143	1	975.707	-77.93176	-8.343864E-007	0.0007028	8
	52	147	1.878005	260.4906	-1179.913	1	1208.325	-77.55045	-8.999768E-007	0.0006081	8
	53	152	1.512097	334.2752	-1431.111	1	1469.632	-76.85271	-8.125006E-007	0.000648	8
	54	157	1.201923	447.4099	-1761.376	1	1817.312	-75.74764	-8.497124E-007	0.0006011	8
	55	163	0.956633	598.8373	-2153.88	1	2235.577	-74.46262	-9.069548E-007	-4.713687E-006	8
