EXPLAIN
TAG	EISPOT
TITLE	LABEL	Potentiostatic EIS	Test Identifier
DATE	LABEL	9/12/2020	Date
TIME	LABEL	15:11:21	Time
NOTES	NOTES	1	Notes...
	
PSTAT	PSTAT	REF3000-16137	Potentiostat
VDC	POTEN	0.00000E+000	T	DC Voltage (V)
FREQINIT	QUANT	3.00000E+005	Initial Freq. (Hz)
FREQFINAL	QUANT	1.00000E+000	Final Freq. (Hz)
PTSPERDEC	QUANT	1.00000E+001	Points/decade
VAC	QUANT	5.00000E+001	AC Voltage (mV rms)
AREA	QUANT	1.00000E+000	Sample Area (cm^2)
SPEED	SELECTOR	2	Optimize for:
ZGUESS	QUANT	1.00000E+003	Estimated Z (ohms)
EOC	QUANT	0	Open Circuit (V)
SEQUENCER	TOGGLE	TRUE	Run as Sequence
PSTATMODEL	IQUANT	5	Pstat Model
PSTATSECTION	LABEL	REF3000-16137	Pstat Section
PSTATSERIALNO	LABEL	16137	Pstat Serial Number
CTRLMODE	IQUANT	1	Control Mode
IESTAB	IQUANT	0	I/E Stability
CASPEED	IQUANT	1	Control Amp Speed
CONVENTION	IQUANT	1	Current Convention
ICHRANGE	IQUANT	2	Ich Range
ICHRANGEMODE	TOGGLE	F	Ich Auto Range
ICHOFFSETENABLE	TOGGLE	T	Ich Offset Enable
ICHOFFSET	QUANT	0	Ich Offset (V)
ICHFILTER	IQUANT	3	Ich Filter
VCHRANGE	IQUANT	2	Vch Range
VCHRANGEMODE	TOGGLE	F	Vch Auto Range
VCHOFFSETENABLE	TOGGLE	T	Vch Offset Enable
VCHOFFSET	QUANT	0	Vch Offset (V)
VCHFILTER	IQUANT	3	Vch Filter
ACHRANGE	IQUANT	2	Ach Range
ACHOFFSETENABLE	TOGGLE	F	Ach Offset Enable
ACHOFFSET	QUANT	0	Ach Offset (V)
ACHFILTER	IQUANT	3	Ach Filter
IERANGELOWERLIMIT	IQUANT	2	I/E Range Lower Limit
IERANGEMODE	TOGGLE	F	I/E AutoRange
IERANGE	IQUANT	11	I/E Range
POSFEEDENABLE	TOGGLE	F	Positive Feedback IR Comp
POSFEEDRESISTANCE	QUANT	0	Positive Feedback Resistance (ohm)
ACHSELECT	IQUANT	0	Ach Select
CABLEID	IQUANT	13	Cable ID
DCCALDATE	LABEL	7/31/2020	DC Calibration Date
ACCALDATE	LABEL	7/31/2020	AC Calibration Date
THERMOSELECT	IQUANT	1	Thermo Select
FRAMEWORKVERSION	QUANT	6.33	Framework Version
INSTRUMENTVERSION	LABEL	3.50	Instrument Version
COMPLIANCEVOLTAGE	IQUANT	0	Compliance Voltage
ZCURVE	TABLE
	Pt	Time	Freq	Zreal	Zimag	Zsig	Zmod	Zphz	Idc	Vdc	IERange
	#	s	Hz	ohm	ohm	V	ohm	°	A	V	#
	0	15	300046.9	489.0266	-4078.536	1	4107.749	-83.16273	2.689222E-005	0.0009732	9
	1	28	238359.4	773.127	-4883.235	1	4944.058	-81.00345	2.707105E-005	-0.0016986	9
	2	42	189328.1	1143.917	-6217.231	1	6321.59	-79.57467	-1.578097E-005	0.0018255	9
	3	50	150421.9	1400.523	-7710.702	1	7836.861	-79.70539	1.564062E-006	0.0016183	9
	4	57	119484.4	2251.634	-9164.976	1	9437.512	-76.19705	-8.956966E-005	0.002219	9
	5	67	94921.88	3160.716	-11341.07	1	11773.28	-74.42703	-2.460572E-005	0.0109936	8
	6	76	75421.88	4206.349	-13802.5	1	14429.22	-73.05125	8.404176E-006	0.0040673	8
	7	84	59859.37	5935.07	-16857.46	1	17871.73	-70.60416	2.594675E-005	-0.0089388	8
	8	93	47578.12	7867.236	-20423.35	1	21886.22	-68.93292	7.77868E-006	-0.007651	8
	9	101	37828.12	13441.93	-24359.08	1	27821.75	-61.10903	-6.249554E-006	0.024861	7
	10	107	30046.88	14171.27	-28759.65	1	32061.54	-63.7683	-2.639754E-005	0.0076191	8
	11	116	23859.38	20374.82	-34283.14	1	39880.66	-59.27655	-1.184011E-005	0.0101499	8
	12	123	18984.38	28272.81	-37333.22	1	46830.77	-52.863	-3.299722E-006	-0.0049274	7
	13	129	15046.87	36016.63	-41110.54	1	54655.96	-48.77865	-5.192829E-006	0.0035673	7
	14	134	11953.13	45018.56	-44410.2	1	63237.14	-44.61024	2.635258E-006	0.008365	7
	15	139	9515.62	54632.55	-47671.88	1	72507.41	-41.10767	-5.206211E-006	0.0036065	7
	16	145	7546.875	66426.84	-48146.15	1	82040.09	-35.93459	1.212878E-006	-0.0197423	7
	17	151	5928.309	78430.99	-46447.07	1	91152.35	-30.63415	7.341821E-006	-0.0179008	7
	18	156	4733.456	88056.47	-48554.75	1	100556	-28.87255	-1.609915E-005	0.000658	8
	19	164	3796.875	98061.6	-45965.72	1	108300.1	-25.11453	-5.226353E-006	0.0259276	7
	20	170	2987.132	113591.9	-42461.42	1	121268.7	-20.49609	-3.330475E-006	-0.0050287	7
	21	177	2390.625	121648.2	-30188.63	1	125338.1	-13.93716	-1.497717E-008	0.0171676	6
	22	182	1884.191	126492.8	-26485.05	1	129235.8	-11.82574	2.129999E-007	0.0101926	6
	23	186	1516.544	132436.7	-24390.13	1	134663.9	-10.43492	7.063434E-007	-0.0154996	6
	24	191	1193.986	137427.4	-20318.16	1	138921.3	-8.410055	3.874163E-007	-0.0244716	6
	25	195	946.5144	140034	-17363.16	1	141106.3	-7.068169	4.210267E-007	0.0022761	6
	26	198	751.7689	146232.5	-16062.39	1	147112	-6.268322	-6.476321E-007	0.0251842	6
	27	200	597.4265	148869.7	-11370.81	1	149303.3	-4.367827	-7.038399E-007	0.0163182	6
	28	203	477.4305	151407.8	-10962.9	1	151804.2	-4.141355	-1.132545E-008	0.0006725	6
	29	205	376.6741	154078.7	-9200.785	1	154353.2	-3.41735	-1.204619E-008	0.0007244	6
	30	208	298.2954	156760	-7735.665	1	156950.7	-2.825094	-1.069824E-008	0.0006262	6
	31	210	237.7717	159277.1	-6700.395	1	159418	-2.408872	-1.068617E-008	0.000598	6
	32	212	189.0121	161815.2	-5661.492	1	161914.2	-2.003812	-1.02382E-008	0.0006345	6
	33	215	150.2404	164539.8	-4814.203	1	164610.2	-1.675915	-1.047051E-008	0.0005911	6
	34	218	119.1737	166039.1	-4150.982	1	166091	-1.432098	-1.123068E-008	0.0006685	6
	35	220	95.0169	169780.9	-3550.292	1	169818	-1.197939	-1.076041E-008	0.0006077	6
	36	223	75.60484	172871.9	-3096.846	1	172899.7	-1.026293	-1.169963E-008	0.0006877	6
	37	225	54.50582	174790.2	-2127.176	1	174803.1	-0.6972484	-1.044679E-008	0.0005881	6
	38	228	45.95588	178159.3	-2540.886	1	178177.4	-0.81709	-1.175E-008	0.0006443	6
	39	230	37.20238	180517.6	-2356.366	1	180533	-0.7478615	-1.127714E-008	0.000599	6
	40	232	30.04808	183622.2	-2030.051	1	183633.4	-0.6334126	-1.203543E-008	0.0006842	6
	41	235	23.91582	186403.8	-2348.921	1	186418.6	-0.7219601	-1.300032E-008	0.0007246	6
	42	237	18.60119	188913.9	-2057.373	1	188925.1	-0.6239568	-1.123439E-008	0.0006937	6
	43	240	15.02404	191881.8	-1943.656	1	191891.7	-0.5803544	-1.010845E-008	0.000702	6
	44	242	12.01923	194955.5	-1957.368	1	194965.4	-0.5752346	-8.813906E-009	0.000614	6
	45	245	9.450605	197987.9	-2251.019	1	198000.7	-0.6513952	-1.161324E-008	0.0006907	6
	46	247	7.512019	201393.8	-2466.936	1	201408.9	-0.701799	-1.16917E-008	0.0006176	6
	47	250	5.978954	206023.8	-2796.475	1	206042.8	-0.7776594	-1.17795E-008	0.000693	6
	48	255	4.734848	210821.7	-3154.992	1	210845.3	-0.8573795	-1.146377E-008	0.0006956	6
	49	258	3.75601	216781.4	-3829.216	1	216815.2	-1.011965	-1.234503E-008	0.0006721	6
	50	263	3.004808	224925.7	-4558.153	1	224971.9	-1.160949	-9.713789E-009	0.000681	6
	51	270	2.372217	232489.5	-5408.382	1	232552.4	-1.332626	-1.242123E-008	0.0007347	6
	52	274	1.878005	239264.6	-6674.757	1	239357.7	-1.597964	-1.427649E-008	0.0006325	6
	53	279	1.512097	247129.4	-7940.59	1	247256.9	-1.840355	-1.397358E-008	0.0006109	6
	54	284	1.201923	256231.7	-9898.24	1	256422.8	-2.212237	-1.263899E-008	0.0006783	6
	55	290	0.956633	267249	-12029.74	1	267519.7	-2.577327	-1.610654E-008	6.9262E-006	6
