EXPLAIN
TAG	EISPOT
TITLE	LABEL	Potentiostatic EIS	Test Identifier
DATE	LABEL	9/12/2020	Date
TIME	LABEL	14:28:11	Time
NOTES	NOTES	1	Notes...
	
PSTAT	PSTAT	REF3000-16137	Potentiostat
VDC	POTEN	0.00000E+000	T	DC Voltage (V)
FREQINIT	QUANT	3.00000E+005	Initial Freq. (Hz)
FREQFINAL	QUANT	1.00000E+000	Final Freq. (Hz)
PTSPERDEC	QUANT	1.00000E+001	Points/decade
VAC	QUANT	5.00000E+001	AC Voltage (mV rms)
AREA	QUANT	1.00000E+000	Sample Area (cm^2)
SPEED	SELECTOR	2	Optimize for:
ZGUESS	QUANT	1.00000E+003	Estimated Z (ohms)
EOC	QUANT	0	Open Circuit (V)
SEQUENCER	TOGGLE	TRUE	Run as Sequence
PSTATMODEL	IQUANT	5	Pstat Model
PSTATSECTION	LABEL	REF3000-16137	Pstat Section
PSTATSERIALNO	LABEL	16137	Pstat Serial Number
CTRLMODE	IQUANT	1	Control Mode
IESTAB	IQUANT	0	I/E Stability
CASPEED	IQUANT	1	Control Amp Speed
CONVENTION	IQUANT	1	Current Convention
ICHRANGE	IQUANT	2	Ich Range
ICHRANGEMODE	TOGGLE	F	Ich Auto Range
ICHOFFSETENABLE	TOGGLE	T	Ich Offset Enable
ICHOFFSET	QUANT	0	Ich Offset (V)
ICHFILTER	IQUANT	3	Ich Filter
VCHRANGE	IQUANT	2	Vch Range
VCHRANGEMODE	TOGGLE	F	Vch Auto Range
VCHOFFSETENABLE	TOGGLE	T	Vch Offset Enable
VCHOFFSET	QUANT	0	Vch Offset (V)
VCHFILTER	IQUANT	3	Vch Filter
ACHRANGE	IQUANT	2	Ach Range
ACHOFFSETENABLE	TOGGLE	F	Ach Offset Enable
ACHOFFSET	QUANT	0	Ach Offset (V)
ACHFILTER	IQUANT	3	Ach Filter
IERANGELOWERLIMIT	IQUANT	2	I/E Range Lower Limit
IERANGEMODE	TOGGLE	F	I/E AutoRange
IERANGE	IQUANT	11	I/E Range
POSFEEDENABLE	TOGGLE	F	Positive Feedback IR Comp
POSFEEDRESISTANCE	QUANT	0	Positive Feedback Resistance (ohm)
ACHSELECT	IQUANT	0	Ach Select
CABLEID	IQUANT	13	Cable ID
DCCALDATE	LABEL	7/31/2020	DC Calibration Date
ACCALDATE	LABEL	7/31/2020	AC Calibration Date
THERMOSELECT	IQUANT	1	Thermo Select
FRAMEWORKVERSION	QUANT	6.33	Framework Version
INSTRUMENTVERSION	LABEL	3.50	Instrument Version
COMPLIANCEVOLTAGE	IQUANT	0	Compliance Voltage
ZCURVE	TABLE
	Pt	Time	Freq	Zreal	Zimag	Zsig	Zmod	Zphz	Idc	Vdc	IERange
	#	s	Hz	ohm	ohm	V	ohm	°	A	V	#
	0	9	300046.9	22.14319	1.976994	1	22.23127	5.10197	-0.0001098	0.0003457	10
	1	13	238359.4	22.24175	1.540415	1	22.29503	3.961852	-5.016009E-005	0.0004568	10
	2	16	189328.1	22.30024	1.212511	1	22.33318	3.112229	-4.924369E-005	0.0005923	10
	3	18	150421.9	22.39348	0.956832	1	22.41391	2.446654	6.705641E-005	0.0005203	10
	4	21	119484.4	22.46617	0.7206606	1	22.47772	1.837281	-5.462424E-006	0.0004584	10
	5	23	94921.88	22.54618	0.5434538	1	22.55273	1.380792	1.559814E-005	0.0005939	10
	6	26	75421.88	22.63641	0.3772883	1	22.63955	0.954879	-2.707927E-005	0.0006842	10
	7	28	59859.37	22.73134	0.2373215	1	22.73257	0.5981622	-1.129967E-005	0.0007085	10
	8	31	47578.12	22.82475	0.1137251	1	22.82504	0.2854758	-2.128129E-005	0.0006724	10
	9	33	37828.12	22.91759	-0.0045716	1	22.91759	-0.0114295	2.515089E-005	0.0006134	10
	10	36	30046.88	23.01151	-0.1175385	1	23.0118	-0.2926536	2.313737E-005	0.000611	10
	11	39	23859.38	23.10793	-0.239622	1	23.10917	-0.5941179	2.471732E-005	0.0006127	10
	12	41	18984.38	23.19872	-0.3618533	1	23.20154	-0.8936265	1.719294E-005	0.0006769	10
	13	43	15046.87	23.29616	-0.5047693	1	23.30163	-1.241261	-2.10438E-005	0.0007331	10
	14	45	11953.13	23.39821	-0.6685748	1	23.40776	-1.63671	2.516807E-005	0.0005947	10
	15	48	9515.62	23.49673	-0.8668191	1	23.51271	-2.112744	-1.893928E-005	0.0006372	10
	16	50	7546.875	23.60481	-1.105523	1	23.63069	-2.681469	-6.345001E-006	0.000641	10
	17	52	5928.309	23.7244	-1.401669	1	23.76577	-3.38118	-2.607642E-005	0.000692	10
	18	55	4733.456	23.84338	-1.748615	1	23.90742	-4.194421	-2.628992E-005	0.0006688	10
	19	57	3796.875	23.97514	-2.162255	1	24.07244	-5.153415	2.283055E-005	0.0006008	10
	20	59	2987.132	24.1173	-2.713811	1	24.26951	-6.42023	-2.832538E-005	0.0006754	10
	21	62	2390.625	24.27452	-3.350808	1	24.5047	-7.859331	-2.143501E-005	0.0007093	10
	22	64	1884.191	24.45309	-4.18953	1	24.80939	-9.72205	-1.804817E-005	0.0006489	10
	23	66	1516.544	24.64889	-5.132025	1	25.17747	-11.76125	-2.051468E-005	0.0007132	10
	24	68	1193.986	24.88855	-6.419707	1	25.70316	-14.46351	2.123117E-005	0.0006503	10
	25	71	946.5144	25.16597	-7.982675	1	26.40169	-17.59908	-2.741203E-006	0.0006092	10
	26	73	751.7689	25.48982	-9.88511	1	27.33946	-21.19661	-1.158827E-005	0.0006391	10
	27	76	597.4265	25.87463	-12.22542	1	28.61743	-25.29012	-3.033135E-006	0.0006108	10
	28	78	477.4305	26.33767	-15.0533	1	30.33603	-29.75013	-2.311871E-006	0.0006592	10
	29	80	376.6741	26.92616	-18.73671	1	32.8037	-34.83232	-2.612025E-006	0.0006528	10
	30	83	298.2954	27.63914	-23.22661	1	36.1026	-40.04208	-2.488697E-006	0.000662	10
	31	85	237.7717	28.46425	-28.56916	1	40.32878	-45.10539	1.273491E-006	5.742464E-005	9
	32	87	189.0121	29.53029	-35.25368	1	45.98761	-50.04873	1.322994E-006	6.464445E-005	9
	33	90	150.2404	30.84248	-43.48386	1	53.31139	-54.65247	1.346402E-006	5.958883E-005	9
	34	92	119.1737	32.47679	-53.72155	1	62.77537	-58.84539	1.390475E-006	5.88435E-005	9
	35	94	95.0169	34.45516	-66.0373	1	74.48546	-62.44656	1.326002E-006	5.648182E-005	9
	36	97	75.60484	36.92539	-81.3156	1	89.30684	-65.57721	1.339346E-006	5.776756E-005	9
	37	99	54.50582	41.49839	-109.4929	1	117.0931	-69.24303	1.237947E-006	5.459521E-005	9
	38	102	45.95588	44.58486	-127.89	1	135.4388	-70.78048	1.295208E-006	6.102518E-005	9
	39	104	37.20238	49.19396	-154.9481	1	162.5698	-72.38605	1.377388E-006	5.813054E-005	9
	40	107	30.04808	54.99025	-188.0835	1	195.9574	-73.70258	1.248752E-006	6.124889E-005	9
	41	109	23.91582	62.80267	-231.2273	1	239.6044	-74.80471	1.233963E-006	5.894696E-005	9
	42	112	18.60119	73.99729	-290.2552	1	299.5391	-75.69775	1.278137E-006	5.721254E-005	9
	43	115	15.02404	86.18889	-351.7594	1	362.1646	-76.2325	1.242983E-006	5.794186E-005	9
	44	117	12.01923	102.1329	-427.8626	1	439.8835	-76.57445	6.748108E-007	0.0006351	8
	45	120	9.450605	124.6493	-529.8086	1	544.2744	-76.76066	6.056731E-007	0.0006225	8
	46	122	7.512019	152.849	-648.7883	1	666.5502	-76.74334	6.431083E-007	0.0006447	8
	47	125	5.978954	188.0288	-791.6917	1	813.7141	-76.63964	5.589909E-007	0.0006877	8
	48	128	4.734848	234.3843	-968.33	1	996.293	-76.39326	6.132076E-007	0.0006665	8
	49	131	3.75601	291.9969	-1180.083	1	1215.671	-76.10201	5.108653E-007	0.0006269	8
	50	134	3.004808	359.9724	-1423.722	1	1468.525	-75.81078	5.396162E-007	0.0006485	8
	51	138	2.372217	450.3553	-1733.52	1	1791.064	-75.43693	5.618607E-007	0.0006967	8
	52	142	1.878005	553.9072	-2107.528	1	2179.102	-75.27438	5.15687E-007	0.0006255	8
	53	147	1.512097	664.2729	-2516.662	1	2602.853	-75.214	5.62047E-007	0.000589	8
	54	152	1.201923	809.6981	-3048.289	1	3153.994	-75.12438	5.415991E-007	0.0006256	8
	55	159	0.956633	971.576	-3679.999	1	3806.094	-75.2105	5.340386E-007	-3.920467E-006	8
