EXPLAIN
TAG	EISPOT
TITLE	LABEL	Potentiostatic EIS	Test Identifier
DATE	LABEL	2/27/2021	Date
TIME	LABEL	21:26:35	Time
NOTES	NOTES	1	Notes...
	
PSTAT	PSTAT	REF3000-16137	Potentiostat
VDC	POTEN	0.00000E+000	T	DC Voltage (V)
FREQINIT	QUANT	3.00000E+005	Initial Freq. (Hz)
FREQFINAL	QUANT	1.00000E+000	Final Freq. (Hz)
PTSPERDEC	QUANT	1.00000E+001	Points/decade
VAC	QUANT	5.00000E+001	AC Voltage (mV rms)
AREA	QUANT	1.00000E+000	Sample Area (cm^2)
SPEED	SELECTOR	2	Optimize for:
ZGUESS	QUANT	1.00000E+003	Estimated Z (ohms)
EOC	QUANT	0	Open Circuit (V)
SEQUENCER	TOGGLE	TRUE	Run as Sequence
PSTATMODEL	IQUANT	5	Pstat Model
PSTATSECTION	LABEL	REF3000-16137	Pstat Section
PSTATSERIALNO	LABEL	16137	Pstat Serial Number
CTRLMODE	IQUANT	1	Control Mode
IESTAB	IQUANT	0	I/E Stability
CASPEED	IQUANT	1	Control Amp Speed
CONVENTION	IQUANT	1	Current Convention
ICHRANGE	IQUANT	2	Ich Range
ICHRANGEMODE	TOGGLE	F	Ich Auto Range
ICHOFFSETENABLE	TOGGLE	T	Ich Offset Enable
ICHOFFSET	QUANT	0	Ich Offset (V)
ICHFILTER	IQUANT	3	Ich Filter
VCHRANGE	IQUANT	2	Vch Range
VCHRANGEMODE	TOGGLE	F	Vch Auto Range
VCHOFFSETENABLE	TOGGLE	T	Vch Offset Enable
VCHOFFSET	QUANT	0	Vch Offset (V)
VCHFILTER	IQUANT	3	Vch Filter
ACHRANGE	IQUANT	2	Ach Range
ACHOFFSETENABLE	TOGGLE	F	Ach Offset Enable
ACHOFFSET	QUANT	0	Ach Offset (V)
ACHFILTER	IQUANT	3	Ach Filter
IERANGELOWERLIMIT	IQUANT	2	I/E Range Lower Limit
IERANGEMODE	TOGGLE	F	I/E AutoRange
IERANGE	IQUANT	11	I/E Range
POSFEEDENABLE	TOGGLE	F	Positive Feedback IR Comp
POSFEEDRESISTANCE	QUANT	0	Positive Feedback Resistance (ohm)
ACHSELECT	IQUANT	0	Ach Select
CABLEID	IQUANT	13	Cable ID
DCCALDATE	LABEL	7/31/2020	DC Calibration Date
ACCALDATE	LABEL	7/31/2020	AC Calibration Date
THERMOSELECT	IQUANT	1	Thermo Select
FRAMEWORKVERSION	QUANT	6.33	Framework Version
INSTRUMENTVERSION	LABEL	3.50	Instrument Version
COMPLIANCEVOLTAGE	IQUANT	0	Compliance Voltage
ZCURVE	TABLE
	Pt	Time	Freq	Zreal	Zimag	Zsig	Zmod	Zphz	Idc	Vdc	IERange
	#	s	Hz	ohm	ohm	V	ohm	°	A	V	#
	0	7	300046.9	31.33821	-5.62418	1	31.83889	-10.1744	6.536119E-005	5.97494E-006	11
	1	11	238359.4	32.21699	-6.714353	1	32.90922	-11.77252	3.029015E-005	0.0005026	10
	2	14	189328.1	32.96179	-8.34832	1	34.00256	-14.21259	-6.031576E-006	0.0003764	10
	3	17	150421.9	33.83409	-10.08408	1	35.30487	-16.59642	2.261483E-005	0.0005835	10
	4	19	119484.4	34.84768	-11.7329	1	36.76985	-18.60792	5.004506E-005	-0.0014259	9
	5	22	94921.88	35.9783	-13.98116	1	38.59937	-21.23611	9.869233E-006	-2.211884E-005	9
	6	25	75421.88	37.00255	-16.63698	1	40.57065	-24.2095	-3.750438E-006	0.0004644	9
	7	27	59859.37	38.15467	-19.83124	1	43.00067	-27.46357	-5.958461E-006	0.000543	9
	8	30	47578.12	39.4097	-23.67215	1	45.97277	-30.9919	-1.244007E-005	0.0005242	9
	9	32	37828.12	40.76684	-28.27238	1	49.61111	-34.74185	1.619484E-005	-0.0001268	9
	10	35	30046.88	42.356	-33.97824	1	54.30057	-38.7368	-1.109792E-006	0.0003376	9
	11	37	23859.38	44.14136	-40.85316	1	60.14516	-42.78449	2.045224E-005	-0.0002863	9
	12	40	18984.38	46.33869	-49.23683	1	67.61316	-46.73685	1.798463E-005	-0.0003145	9
	13	42	15046.87	48.82595	-59.65255	1	77.08697	-50.69948	1.18231E-005	-2.081418E-005	9
	14	44	11953.13	51.8485	-72.2496	1	88.92847	-54.33563	1.723766E-005	-0.000364	9
	15	47	9515.62	55.61869	-87.2431	1	103.464	-57.48192	-1.181966E-005	0.0004266	9
	16	49	7546.875	59.89158	-106.3073	1	122.0174	-60.6039	1.69555E-005	-0.0002212	9
	17	51	5928.309	65.36139	-130.5079	1	145.9603	-63.39722	1.052868E-005	3.298968E-005	9
	18	54	4733.456	71.47774	-157.7777	1	173.2134	-65.62814	1.739976E-005	-0.0002424	9
	19	56	3796.875	79.00937	-190.1699	1	205.9297	-67.43871	-1.984991E-007	0.0004071	9
	20	58	2987.132	88.48479	-233.3007	1	249.5171	-69.22959	-1.317448E-005	0.0004499	9
	21	60	2390.625	101.1498	-281.2751	1	298.9097	-70.22082	-2.951657E-006	-5.041094E-006	9
	22	63	1884.191	115.3608	-346.5767	1	365.2718	-71.58957	1.137736E-005	-0.0003694	9
	23	65	1516.544	128.0569	-416.6458	1	435.881	-72.91509	1.784197E-005	-0.0003361	9
	24	67	1193.986	148.3479	-508.7282	1	529.9164	-73.74303	-2.196485E-006	0.0013092	8
	25	70	946.5144	172.1086	-620.687	1	644.1069	-74.50198	-2.009135E-006	0.0013782	8
	26	72	751.7689	199.1284	-757.6087	1	783.3409	-75.27358	3.517904E-006	-0.0001643	8
	27	75	597.4265	231.0604	-922.7933	1	951.281	-75.9426	-1.798314E-006	0.0010143	8
	28	77	477.4305	269.0001	-1121.802	1	1153.603	-76.51549	5.583127E-007	0.000661	8
	29	79	376.6741	316.1161	-1380.074	1	1415.816	-77.09854	5.668969E-007	0.0006659	8
	30	82	298.2954	371.7462	-1695.452	1	1735.728	-77.63298	5.699779E-007	0.0006673	8
	31	84	237.7717	437.9062	-2071.2	1	2116.987	-78.06197	5.761358E-007	0.0006633	8
	32	86	189.0121	519.6801	-2539.117	1	2591.753	-78.43304	5.680504E-007	0.000664	8
	33	89	150.2404	620.2641	-3116.123	1	3177.255	-78.74242	5.78807E-007	0.0006658	8
	34	91	119.1737	746.826	-3832.015	1	3904.111	-78.97179	5.730078E-007	0.000665	8
	35	94	95.0169	901.669	-4699.391	1	4785.111	-79.13869	6.421858E-008	0.0006367	7
	36	96	75.60484	1094.062	-5764.497	1	5867.401	-79.25347	6.20993E-008	0.0006371	7
	37	99	54.50582	1470.285	-7725.521	1	7864.185	-79.2246	6.46467E-008	0.0006374	7
	38	101	45.95588	1715.803	-8994.73	1	9156.919	-79.20021	6.59324E-008	0.0006456	7
	39	104	37.20238	2099.102	-10860.37	1	11061.37	-79.06071	6.29584E-008	0.0006417	7
	40	106	30.04808	2572.111	-13126.3	1	13375.93	-78.91331	5.928148E-008	0.0006438	7
	41	108	23.91582	3238.46	-16111.91	1	16434.15	-78.6351	6.085966E-008	0.0006379	7
	42	111	18.60119	4176.537	-20111.51	1	20540.6	-78.2682	6.166699E-008	0.0006498	7
	43	113	15.02404	5189.28	-24256.76	1	24805.63	-77.92466	6.621337E-008	0.0006488	7
	44	116	12.01923	6611.734	-29522.83	1	30254.14	-77.37672	6.09566E-008	0.0006453	7
	45	118	9.450605	8602.731	-36469.1	1	37470.02	-76.72708	6.126645E-008	0.0006439	7
	46	121	7.512019	11078.05	-44395.5	1	45756.79	-75.98905	1.184342E-008	0.0006725	6
	47	124	5.978954	14384.74	-53924.02	1	55809.68	-75.06362	1.218233E-008	0.0006812	6
	48	128	4.734848	18887.17	-65593.56	1	68258.63	-73.93665	1.13961E-008	0.0006634	6
	49	133	3.75601	24756.3	-79462.78	1	83229.85	-72.69579	1.133208E-008	0.000686	6
	50	138	3.004808	32024.61	-95189.4	1	100432	-71.40549	1.231741E-008	0.0006591	6
	51	145	2.372217	42364.7	-114485.6	1	122072.6	-69.69331	1.086344E-008	0.0006545	6
	52	149	1.878005	55785.05	-136656.5	1	147604.1	-67.79405	1.091025E-008	0.0006885	6
	53	158	1.512097	69505.42	-162717	1	176940.2	-66.87	1.036063E-008	0.0005936	6
	54	169	1.201923	90585.84	-191272	1	211638.3	-64.65791	1.028513E-008	0.0006889	6
	55	182	0.956633	117105.4	-220989.6	1	250100.1	-62.08026	9.033032E-009	4.148364E-005	6
