EXPLAIN
TAG	EISPOT
TITLE	LABEL	Potentiostatic EIS	Test Identifier
DATE	LABEL	2/27/2021	Date
TIME	LABEL	19:32:35	Time
NOTES	NOTES	1	Notes...
	
PSTAT	PSTAT	REF3000-16137	Potentiostat
VDC	POTEN	0.00000E+000	T	DC Voltage (V)
FREQINIT	QUANT	3.00000E+005	Initial Freq. (Hz)
FREQFINAL	QUANT	1.00000E+000	Final Freq. (Hz)
PTSPERDEC	QUANT	1.00000E+001	Points/decade
VAC	QUANT	5.00000E+001	AC Voltage (mV rms)
AREA	QUANT	1.00000E+000	Sample Area (cm^2)
SPEED	SELECTOR	2	Optimize for:
ZGUESS	QUANT	1.00000E+003	Estimated Z (ohms)
EOC	QUANT	0	Open Circuit (V)
SEQUENCER	TOGGLE	TRUE	Run as Sequence
PSTATMODEL	IQUANT	5	Pstat Model
PSTATSECTION	LABEL	REF3000-16137	Pstat Section
PSTATSERIALNO	LABEL	16137	Pstat Serial Number
CTRLMODE	IQUANT	1	Control Mode
IESTAB	IQUANT	0	I/E Stability
CASPEED	IQUANT	1	Control Amp Speed
CONVENTION	IQUANT	1	Current Convention
ICHRANGE	IQUANT	2	Ich Range
ICHRANGEMODE	TOGGLE	F	Ich Auto Range
ICHOFFSETENABLE	TOGGLE	T	Ich Offset Enable
ICHOFFSET	QUANT	0	Ich Offset (V)
ICHFILTER	IQUANT	3	Ich Filter
VCHRANGE	IQUANT	2	Vch Range
VCHRANGEMODE	TOGGLE	F	Vch Auto Range
VCHOFFSETENABLE	TOGGLE	T	Vch Offset Enable
VCHOFFSET	QUANT	0	Vch Offset (V)
VCHFILTER	IQUANT	3	Vch Filter
ACHRANGE	IQUANT	2	Ach Range
ACHOFFSETENABLE	TOGGLE	F	Ach Offset Enable
ACHOFFSET	QUANT	0	Ach Offset (V)
ACHFILTER	IQUANT	3	Ach Filter
IERANGELOWERLIMIT	IQUANT	2	I/E Range Lower Limit
IERANGEMODE	TOGGLE	F	I/E AutoRange
IERANGE	IQUANT	11	I/E Range
POSFEEDENABLE	TOGGLE	F	Positive Feedback IR Comp
POSFEEDRESISTANCE	QUANT	0	Positive Feedback Resistance (ohm)
ACHSELECT	IQUANT	0	Ach Select
CABLEID	IQUANT	13	Cable ID
DCCALDATE	LABEL	7/31/2020	DC Calibration Date
ACCALDATE	LABEL	7/31/2020	AC Calibration Date
THERMOSELECT	IQUANT	1	Thermo Select
FRAMEWORKVERSION	QUANT	6.33	Framework Version
INSTRUMENTVERSION	LABEL	3.50	Instrument Version
COMPLIANCEVOLTAGE	IQUANT	0	Compliance Voltage
ZCURVE	TABLE
	Pt	Time	Freq	Zreal	Zimag	Zsig	Zmod	Zphz	Idc	Vdc	IERange
	#	s	Hz	ohm	ohm	V	ohm	°	A	V	#
	0	18	300046.9	429.8505	-43.14209	1	432.01	-5.731318	1.468256E-005	-0.0020586	9
	1	24	238359.4	434.9153	-43.52438	1	437.0877	-5.714878	-1.784066E-005	0.0013579	9
	2	33	189328.1	442.8461	-44.31975	1	445.0583	-5.715095	2.604123E-005	0.0008931	9
	3	39	150421.9	448.9015	-46.11452	1	451.2639	-5.865277	2.162655E-005	-0.0013204	9
	4	49	119484.4	457.0432	-32.79788	1	458.2185	-4.104566	4.032553E-005	-0.0081502	8
	5	51	94921.88	460.3339	-38.55002	1	461.9452	-4.786986	-1.319163E-005	0.0038597	8
	6	54	75421.88	464.2279	-47.68752	1	466.6708	-5.8651	-1.415805E-005	0.0058128	8
	7	56	59859.37	470.2032	-57.78163	1	473.7402	-7.005755	1.485412E-006	-0.0033903	8
	8	59	47578.12	475.2916	-69.78181	1	480.3869	-8.352433	4.508383E-007	0.00411	8
	9	61	37828.12	483.2128	-82.87238	1	490.2677	-9.73171	-9.169018E-006	0.0061995	8
	10	64	30046.88	492.3443	-99.617	1	502.3211	-11.43835	-4.794975E-006	0.0055529	8
	11	67	23859.38	501.8471	-117.7361	1	515.4729	-13.20313	-1.423163E-005	0.00595	8
	12	69	18984.38	514.0652	-140.065	1	532.8051	-15.24115	1.602254E-005	-0.0032669	8
	13	71	15046.87	529.8412	-163.0862	1	554.3724	-17.10848	-2.053874E-006	-0.0021568	8
	14	73	11953.13	543.225	-196.4712	1	577.6628	-19.88382	6.215534E-006	0.0022946	8
	15	76	9515.62	562.3491	-226.1423	1	606.1161	-21.90696	-1.366157E-005	0.0030651	8
	16	78	7546.875	586.8714	-264.4817	1	643.7147	-24.25937	1.136663E-005	-0.0048802	8
	17	80	5928.309	606.808	-314.1855	1	683.3216	-27.37365	-1.308984E-005	0.0027293	8
	18	83	4733.456	630.0165	-367.7052	1	729.471	-30.26971	-1.256903E-005	0.0065178	8
	19	85	3796.875	652.4553	-432.3763	1	782.7178	-33.53208	1.480209E-005	-0.0051169	8
	20	88	2987.132	680.3629	-516.4462	1	854.1723	-37.20121	-1.458153E-005	0.0049529	8
	21	90	2390.625	709.2427	-618.0674	1	940.7617	-41.07042	1.518941E-005	-0.0022496	8
	22	94	1884.191	744.6367	-737.4443	1	1048.002	-44.72195	1.220048E-005	-0.0052389	8
	23	96	1516.544	771.4393	-886.944	1	1175.495	-48.98416	1.637838E-005	-0.0044934	8
	24	99	1193.986	810.1804	-1084.059	1	1353.357	-53.2271	1.484586E-005	-0.0051195	8
	25	103	946.5144	861.8974	-1323.831	1	1579.682	-56.93334	-9.675196E-006	0.0065606	8
	26	106	751.7689	909.9696	-1619.669	1	1857.787	-60.67166	-1.289062E-005	0.0066596	8
	27	108	597.4265	974.927	-1976.559	1	2203.921	-63.74544	7.264867E-007	0.0041749	8
	28	111	477.4305	1039.463	-2415.285	1	2629.465	-66.71447	-5.731591E-009	0.0006547	8
	29	113	376.6741	1128.481	-2988.811	1	3194.755	-69.31504	2.028803E-008	0.0006516	8
	30	115	298.2954	1236.751	-3691.151	1	3892.833	-71.47614	-1.089344E-008	0.0006664	8
	31	118	237.7717	1373.883	-4543.767	1	4746.933	-73.17644	-1.489486E-008	0.0006491	7
	32	120	189.0121	1541.272	-5601.301	1	5809.483	-74.61506	-1.065103E-008	0.000624	7
	33	123	150.2404	1755.166	-6907.583	1	7127.083	-75.74328	-1.57293E-008	0.0006433	7
	34	125	119.1737	2031.643	-8537.028	1	8775.444	-76.61374	-1.308661E-008	0.0006444	7
	35	127	95.0169	2386.592	-10498.3	1	10766.15	-77.19254	-1.03785E-008	0.0006109	7
	36	130	75.60484	2856.849	-12934.71	1	13246.44	-77.54521	-1.11977E-008	0.0006265	7
	37	132	54.50582	3798.916	-17406.5	1	17816.22	-77.68842	-1.491073E-008	0.0006466	7
	38	135	45.95588	4494.896	-20314.42	1	20805.76	-77.5234	-1.081409E-008	0.0006146	7
	39	137	37.20238	5594.343	-24563.22	1	25192.23	-77.16958	-1.388141E-008	0.0006349	7
	40	140	30.04808	7058.974	-29692.65	1	30520.2	-76.62705	-1.528212E-008	0.000622	7
	41	142	23.91582	9203.7	-36273.05	1	37422.48	-75.76259	-1.403942E-008	0.0006332	7
	42	145	18.60119	12468.8	-44960.09	1	46657.05	-74.49969	-5.486824E-009	0.0006971	6
	43	147	15.02404	16178.12	-53619.37	1	56006.86	-73.2103	-2.138649E-009	0.0007006	6
	44	149	12.01923	21271.9	-64019.16	1	67460.7	-71.6197	-3.057037E-009	0.000665	6
	45	152	9.450605	28221.17	-76676.19	1	81704.79	-69.79353	-3.236572E-009	0.0006537	6
	46	154	7.512019	36600.23	-90218.86	1	97360.3	-67.91846	-2.527376E-009	0.0006809	6
	47	157	5.978954	46323.3	-105045.3	1	114805.8	-66.20329	-2.015402E-009	0.0006871	6
	48	162	4.734848	57527.36	-121677.7	1	134591.5	-64.69594	-1.601574E-009	0.0007006	6
	49	165	3.75601	69315.87	-140185.8	1	156386.5	-63.68957	-1.619978E-009	0.0006461	6
	50	171	3.004808	81021.44	-160817.5	1	180074.3	-63.26059	-1.585908E-009	0.0006784	6
	51	177	2.372217	93383.32	-186799.8	1	208841.1	-63.43901	-1.80411E-009	0.0006497	6
	52	181	1.878005	105923.1	-218506.3	1	242826.5	-64.13776	-2.002723E-009	0.0006725	6
	53	186	1.512097	117256	-255166.6	1	280818.4	-65.31994	-1.83141E-009	0.0005688	6
	54	191	1.201923	130212.3	-303444.4	1	330202.6	-66.77514	-1.916604E-009	0.000692	6
	55	197	0.956633	143660.5	-363426.5	1	390790.4	-68.43137	-2.004715E-009	3.416726E-005	6
