EXPLAIN
TAG	EISPOT
TITLE	LABEL	Potentiostatic EIS	Test Identifier
DATE	LABEL	2/27/2021	Date
TIME	LABEL	18:45:54	Time
NOTES	NOTES	1	Notes...
	
PSTAT	PSTAT	REF3000-16137	Potentiostat
VDC	POTEN	0.00000E+000	T	DC Voltage (V)
FREQINIT	QUANT	3.00000E+005	Initial Freq. (Hz)
FREQFINAL	QUANT	1.00000E+000	Final Freq. (Hz)
PTSPERDEC	QUANT	1.00000E+001	Points/decade
VAC	QUANT	5.00000E+001	AC Voltage (mV rms)
AREA	QUANT	1.00000E+000	Sample Area (cm^2)
SPEED	SELECTOR	2	Optimize for:
ZGUESS	QUANT	1.00000E+003	Estimated Z (ohms)
EOC	QUANT	0	Open Circuit (V)
SEQUENCER	TOGGLE	TRUE	Run as Sequence
PSTATMODEL	IQUANT	5	Pstat Model
PSTATSECTION	LABEL	REF3000-16137	Pstat Section
PSTATSERIALNO	LABEL	16137	Pstat Serial Number
CTRLMODE	IQUANT	1	Control Mode
IESTAB	IQUANT	0	I/E Stability
CASPEED	IQUANT	1	Control Amp Speed
CONVENTION	IQUANT	1	Current Convention
ICHRANGE	IQUANT	2	Ich Range
ICHRANGEMODE	TOGGLE	F	Ich Auto Range
ICHOFFSETENABLE	TOGGLE	T	Ich Offset Enable
ICHOFFSET	QUANT	0	Ich Offset (V)
ICHFILTER	IQUANT	3	Ich Filter
VCHRANGE	IQUANT	2	Vch Range
VCHRANGEMODE	TOGGLE	F	Vch Auto Range
VCHOFFSETENABLE	TOGGLE	T	Vch Offset Enable
VCHOFFSET	QUANT	0	Vch Offset (V)
VCHFILTER	IQUANT	3	Vch Filter
ACHRANGE	IQUANT	2	Ach Range
ACHOFFSETENABLE	TOGGLE	F	Ach Offset Enable
ACHOFFSET	QUANT	0	Ach Offset (V)
ACHFILTER	IQUANT	3	Ach Filter
IERANGELOWERLIMIT	IQUANT	2	I/E Range Lower Limit
IERANGEMODE	TOGGLE	F	I/E AutoRange
IERANGE	IQUANT	11	I/E Range
POSFEEDENABLE	TOGGLE	F	Positive Feedback IR Comp
POSFEEDRESISTANCE	QUANT	0	Positive Feedback Resistance (ohm)
ACHSELECT	IQUANT	0	Ach Select
CABLEID	IQUANT	13	Cable ID
DCCALDATE	LABEL	7/31/2020	DC Calibration Date
ACCALDATE	LABEL	7/31/2020	AC Calibration Date
THERMOSELECT	IQUANT	1	Thermo Select
FRAMEWORKVERSION	QUANT	6.33	Framework Version
INSTRUMENTVERSION	LABEL	3.50	Instrument Version
COMPLIANCEVOLTAGE	IQUANT	0	Compliance Voltage
ZCURVE	TABLE
	Pt	Time	Freq	Zreal	Zimag	Zsig	Zmod	Zphz	Idc	Vdc	IERange
	#	s	Hz	ohm	ohm	V	ohm	°	A	V	#
	0	7	300046.9	37.51987	-5.278636	1	37.88937	-8.008329	-2.294501E-006	-7.772922E-005	9
	1	10	238359.4	38.32549	-7.286911	1	39.01208	-10.76528	-3.349124E-006	-2.806616E-005	9
	2	13	189328.1	39.25726	-9.314025	1	40.34704	-13.34699	-1.0847E-006	0.0002259	9
	3	15	150421.9	40.27958	-11.39206	1	41.85957	-15.79221	1.582722E-005	0.0001886	9
	4	18	119484.4	41.32443	-13.79783	1	43.56706	-18.46367	-1.283778E-005	-0.0003866	9
	5	21	94921.88	42.61386	-16.33093	1	45.63596	-20.96836	3.943082E-007	0.0003928	9
	6	23	75421.88	43.85367	-19.55556	1	48.01629	-24.03341	-1.353272E-005	0.0004036	9
	7	26	59859.37	45.15993	-23.28421	1	50.80919	-27.27538	-1.182032E-005	0.0002844	9
	8	28	47578.12	46.5416	-27.85934	1	54.24264	-30.90433	-9.686843E-006	0.0006218	9
	9	31	37828.12	48.04971	-33.47466	1	58.56046	-34.86367	-1.330701E-005	0.0005663	9
	10	33	30046.88	49.79662	-40.31104	1	64.0678	-38.99064	-3.809761E-006	-3.165378E-005	9
	11	36	23859.38	51.84473	-48.60215	1	71.06367	-43.15105	1.721626E-005	-0.00029	9
	12	38	18984.38	54.08901	-58.97208	1	80.02079	-47.47305	-1.130181E-005	0.0005825	9
	13	40	15046.87	56.83184	-71.80479	1	91.57394	-51.63919	-1.445398E-005	0.0004342	9
	14	43	11953.13	60.02905	-87.23859	1	105.8965	-55.46806	-1.477247E-005	0.0005217	9
	15	45	9515.62	63.92757	-106.1676	1	123.9286	-58.94625	-1.42371E-006	0.0003841	9
	16	47	7546.875	68.68893	-129.7506	1	146.8108	-62.10362	-9.324253E-007	0.0004684	9
	17	50	5928.309	74.72948	-160.0346	1	176.6227	-64.96938	-1.446195E-005	0.0004764	9
	18	52	4733.456	81.50919	-194.2339	1	210.6432	-67.23491	7.973882E-006	-0.0003499	9
	19	54	3796.875	90.32433	-236.1255	1	252.8116	-69.0668	1.31562E-005	-0.000409	9
	20	57	2987.132	100.3101	-290.3504	1	307.1896	-70.94102	1.908331E-006	-0.0002016	9
	21	59	2390.625	112.5894	-353.5004	1	370.9972	-72.33339	1.725309E-005	-0.0004126	9
	22	61	1884.191	128.1467	-437.4596	1	455.8426	-73.6729	2.473558E-006	-0.000213	9
	23	64	1516.544	144.57	-526.5727	1	546.058	-74.64777	3.452513E-006	-0.0003314	8
	24	66	1193.986	167.188	-649.2087	1	670.3908	-75.55865	2.917651E-006	-0.0002825	8
	25	68	946.5144	193.4216	-798.253	1	821.3524	-76.37939	2.093685E-006	0.0006454	8
	26	71	751.7689	225.5556	-976.969	1	1002.668	-76.99975	2.020187E-006	-0.0001053	8
	27	73	597.4265	265.4797	-1198.328	1	1227.383	-77.50835	3.877517E-006	-8.891687E-005	8
	28	75	477.4305	311.1144	-1458.455	1	1491.269	-77.95828	5.192098E-007	0.0006719	8
	29	78	376.6741	368.94	-1799.439	1	1836.872	-78.41319	5.343558E-007	0.0006608	8
	30	80	298.2954	437.4246	-2214.24	1	2257.033	-78.82507	5.347024E-007	0.0006623	8
	31	82	237.7717	516.5493	-2710.642	1	2759.421	-79.21088	5.346381E-007	0.0006632	8
	32	85	189.0121	612.7429	-3329.547	1	3385.46	-79.57243	5.275514E-007	0.0006652	8
	33	87	150.2404	728.1922	-4092.899	1	4157.173	-79.91173	5.267357E-007	0.0006931	8
	34	90	119.1737	872.869	-5054.676	1	5129.488	-80.20248	5.536035E-008	0.0006514	7
	35	92	95.0169	1041.494	-6206.735	1	6293.51	-80.47447	5.518735E-008	0.000634	7
	36	94	75.60484	1239.414	-7594.056	1	7694.532	-80.73058	5.524051E-008	0.0006361	7
	37	97	54.50582	1618.516	-10223.13	1	10350.46	-81.00366	5.556254E-008	0.0006432	7
	38	99	45.95588	1868.043	-11946.05	1	12091.23	-81.11245	5.620013E-008	0.0006449	7
	39	102	37.20238	2246.491	-14496.89	1	14669.92	-81.1913	5.399222E-008	0.0006566	7
	40	104	30.04808	2709.159	-17630.78	1	17837.71	-81.26421	5.402803E-008	0.0006391	7
	41	107	23.91582	3328.381	-21725.6	1	21979.08	-81.28996	5.689233E-008	0.0006294	7
	42	109	18.60119	4207.964	-27365.96	1	27687.6	-81.25831	5.535555E-008	0.0006326	7
	43	111	15.02404	5148.372	-33244.62	1	33640.91	-81.19691	5.671093E-008	0.000645	7
	44	114	12.01923	6402.208	-40760.1	1	41259.84	-81.07346	5.457805E-008	0.0006339	7
	45	116	9.450605	8149.982	-50747.43	1	51397.71	-80.87627	7.142782E-009	0.0006727	6
	46	119	7.512019	10278.98	-62531.98	1	63371.17	-80.66522	6.789904E-009	0.0006622	6
	47	122	5.978954	13049.81	-76928.09	1	78027.11	-80.3722	7.170192E-009	0.0006776	6
	48	126	4.734848	16849.83	-95102	1	96583.2	-79.95281	7.243651E-009	0.0006697	6
	49	129	3.75601	21682.26	-117215.9	1	119204.4	-79.52005	6.932599E-009	0.0006772	6
	50	135	3.004808	27860.2	-143193.4	1	145878.5	-78.98989	7.472488E-009	0.0006503	6
	51	141	2.372217	36659.1	-176554	1	180319.7	-78.26997	6.861252E-009	0.0006704	6
	52	145	1.878005	48729.07	-217310.3	1	222706.8	-77.36122	6.414241E-009	0.0006837	6
	53	150	1.512097	63248.11	-262416.8	1	269931.3	-76.44894	6.759839E-009	0.0005709	6
	54	156	1.201923	84085.22	-319907.6	1	330773.7	-75.27335	6.464036E-009	0.000683	6
	55	162	0.956633	111420.6	-387150.2	1	402864.5	-73.94434	6.199985E-009	3.277089E-005	6
