EXPLAIN
TAG	EISPOT
TITLE	LABEL	Potentiostatic EIS	Test Identifier
DATE	LABEL	2/27/2021	Date
TIME	LABEL	21:23:19	Time
NOTES	NOTES	1	Notes...
	
PSTAT	PSTAT	REF3000-16137	Potentiostat
VDC	POTEN	0.00000E+000	T	DC Voltage (V)
FREQINIT	QUANT	3.00000E+005	Initial Freq. (Hz)
FREQFINAL	QUANT	1.00000E+000	Final Freq. (Hz)
PTSPERDEC	QUANT	1.00000E+001	Points/decade
VAC	QUANT	5.00000E+001	AC Voltage (mV rms)
AREA	QUANT	1.00000E+000	Sample Area (cm^2)
SPEED	SELECTOR	2	Optimize for:
ZGUESS	QUANT	1.00000E+003	Estimated Z (ohms)
EOC	QUANT	0	Open Circuit (V)
SEQUENCER	TOGGLE	TRUE	Run as Sequence
PSTATMODEL	IQUANT	5	Pstat Model
PSTATSECTION	LABEL	REF3000-16137	Pstat Section
PSTATSERIALNO	LABEL	16137	Pstat Serial Number
CTRLMODE	IQUANT	1	Control Mode
IESTAB	IQUANT	0	I/E Stability
CASPEED	IQUANT	1	Control Amp Speed
CONVENTION	IQUANT	1	Current Convention
ICHRANGE	IQUANT	2	Ich Range
ICHRANGEMODE	TOGGLE	F	Ich Auto Range
ICHOFFSETENABLE	TOGGLE	T	Ich Offset Enable
ICHOFFSET	QUANT	0	Ich Offset (V)
ICHFILTER	IQUANT	3	Ich Filter
VCHRANGE	IQUANT	2	Vch Range
VCHRANGEMODE	TOGGLE	F	Vch Auto Range
VCHOFFSETENABLE	TOGGLE	T	Vch Offset Enable
VCHOFFSET	QUANT	0	Vch Offset (V)
VCHFILTER	IQUANT	3	Vch Filter
ACHRANGE	IQUANT	2	Ach Range
ACHOFFSETENABLE	TOGGLE	F	Ach Offset Enable
ACHOFFSET	QUANT	0	Ach Offset (V)
ACHFILTER	IQUANT	3	Ach Filter
IERANGELOWERLIMIT	IQUANT	2	I/E Range Lower Limit
IERANGEMODE	TOGGLE	F	I/E AutoRange
IERANGE	IQUANT	11	I/E Range
POSFEEDENABLE	TOGGLE	F	Positive Feedback IR Comp
POSFEEDRESISTANCE	QUANT	0	Positive Feedback Resistance (ohm)
ACHSELECT	IQUANT	0	Ach Select
CABLEID	IQUANT	13	Cable ID
DCCALDATE	LABEL	7/31/2020	DC Calibration Date
ACCALDATE	LABEL	7/31/2020	AC Calibration Date
THERMOSELECT	IQUANT	1	Thermo Select
FRAMEWORKVERSION	QUANT	6.33	Framework Version
INSTRUMENTVERSION	LABEL	3.50	Instrument Version
COMPLIANCEVOLTAGE	IQUANT	0	Compliance Voltage
ZCURVE	TABLE
	Pt	Time	Freq	Zreal	Zimag	Zsig	Zmod	Zphz	Idc	Vdc	IERange
	#	s	Hz	ohm	ohm	V	ohm	°	A	V	#
	0	7	300046.9	38.59758	-5.522156	1	38.99061	-8.142054	1.106317E-005	-0.0009067	9
	1	10	238359.4	39.02948	-7.365645	1	39.71842	-10.68717	5.188422E-006	5.462385E-005	9
	2	14	189328.1	39.66451	-9.279668	1	40.73555	-13.16774	2.807561E-005	-0.000352	9
	3	16	150421.9	40.39639	-11.29562	1	41.94591	-15.62204	4.72688E-005	-0.0013641	9
	4	19	119484.4	41.21529	-13.70137	1	43.43303	-18.38857	1.247379E-005	0.0002777	9
	5	21	94921.88	42.19847	-16.07591	1	45.1569	-20.85481	2.008693E-005	-0.0003056	9
	6	24	75421.88	43.20785	-19.06996	1	47.22903	-23.81446	-3.124471E-006	-4.904006E-005	9
	7	26	59859.37	44.28902	-22.64073	1	49.74052	-27.07631	7.608767E-006	-0.0003492	9
	8	29	47578.12	45.4659	-26.91886	1	52.83723	-30.62837	1.559336E-005	-0.0004205	9
	9	31	37828.12	46.70401	-32.11673	1	56.68112	-34.51496	2.299856E-006	-0.0002106	9
	10	34	30046.88	48.21903	-38.40895	1	61.64676	-38.53913	-5.537719E-006	0.0005703	9
	11	36	23859.38	49.94587	-46.221	1	68.05123	-42.78185	-1.419088E-005	0.00044	9
	12	39	18984.38	52.09566	-55.51514	1	76.13073	-46.82004	-1.398496E-005	0.0004745	9
	13	41	15046.87	54.57793	-67.33495	1	86.6761	-50.97372	1.304152E-005	-0.0004063	9
	14	43	11953.13	57.56845	-81.62125	1	99.8807	-54.80422	1.033893E-005	3.07711E-005	9
	15	46	9515.62	61.40244	-98.4569	1	116.0346	-58.05037	-1.339797E-005	0.0004864	9
	16	48	7546.875	65.84808	-119.8982	1	136.7902	-61.22442	3.987488E-006	0.0002804	9
	17	50	5928.309	71.60813	-147.067	1	163.5739	-64.03816	1.595964E-005	-0.0001531	9
	18	53	4733.456	78.44303	-177.8624	1	194.3923	-66.20098	-8.625706E-006	0.0001612	9
	19	55	3796.875	86.51058	-213.9642	1	230.7916	-67.9854	-5.974514E-006	0.0005832	9
	20	57	2987.132	96.9414	-262.3503	1	279.6879	-69.72015	-8.405879E-006	0.0001521	9
	21	60	2390.625	106.9435	-318.4506	1	335.9282	-71.43668	-1.418056E-005	0.0005027	9
	22	62	1884.191	125.2499	-389.7784	1	409.4077	-72.18591	-5.329073E-007	0.0003936	9
	23	64	1516.544	140.8287	-465.8297	1	486.6519	-73.17899	-2.34691E-006	0.0013627	8
	24	67	1193.986	163.9804	-571.9058	1	594.9503	-74.00101	3.810324E-006	-0.0001177	8
	25	69	946.5144	191.9628	-698.4528	1	724.3521	-74.63226	-1.713095E-006	0.0014901	8
	26	71	751.7689	226.2118	-850.5921	1	880.1583	-75.10712	-9.480999E-007	0.0014066	8
	27	74	597.4265	271.2993	-1035.98	1	1070.915	-75.3251	1.112765E-006	0.0001575	8
	28	76	477.4305	325.8215	-1255.803	1	1297.383	-75.45516	5.432617E-007	0.0006631	8
	29	78	376.6741	401.6008	-1539.085	1	1590.618	-75.37563	5.436261E-007	0.0006695	8
	30	81	298.2954	500.043	-1878.201	1	1943.626	-75.09167	5.510992E-007	0.000664	8
	31	83	237.7717	626.3816	-2274.318	1	2358.999	-74.60164	5.409208E-007	0.0006683	8
	32	86	189.0121	795.0734	-2752.844	1	2865.36	-73.89028	5.622411E-007	0.0006653	8
	33	88	150.2404	1017.481	-3317.394	1	3469.924	-72.94865	5.650211E-007	0.000671	8
	34	90	119.1737	1310.332	-3982.792	1	4192.803	-71.78888	5.62324E-007	0.0006695	8
	35	93	95.0169	1679.598	-4738.432	1	5027.304	-70.48248	6.476932E-008	0.0006418	7
	36	95	75.60484	2134.801	-5590.104	1	5983.864	-69.09868	6.281814E-008	0.0006414	7
	37	98	54.50582	2939.028	-6994.503	1	7586.894	-67.20828	6.733529E-008	0.0006334	7
	38	100	45.95588	3417.884	-7814.245	1	8529.029	-66.37585	6.46315E-008	0.0006517	7
	39	103	37.20238	4048.236	-8942.17	1	9815.83	-65.64312	6.461071E-008	0.0006407	7
	40	106	30.04808	4732.155	-10257.75	1	11296.67	-65.23495	6.362342E-008	0.0006431	7
	41	108	23.91582	5460.567	-11892.51	1	13086.24	-65.3373	6.263527E-008	0.0006422	7
	42	111	18.60119	6305.397	-14124.53	1	15468.04	-65.94331	6.29522E-008	0.0006459	7
	43	114	15.02404	7055.98	-16447.52	1	17897.14	-66.78068	6.575375E-008	0.0006392	7
	44	116	12.01923	7914.578	-19417.58	1	20968.62	-67.82426	6.004258E-008	0.0006409	7
	45	119	9.450605	8963.519	-23408.26	1	25065.74	-69.0471	6.087235E-008	0.0006372	7
	46	121	7.512019	10147.39	-28152.63	1	29925.57	-70.1787	6.397995E-008	0.0006304	7
	47	124	5.978954	11612.85	-33916.16	1	35849.18	-71.09886	6.451057E-008	0.0006439	7
	48	129	4.734848	13553.12	-41113.09	1	43289.42	-71.75496	6.627863E-008	0.0006256	7
	49	134	3.75601	15965.66	-49793.58	1	52290.56	-72.22223	1.294825E-008	0.0006669	6
	50	139	3.004808	18998.85	-59831.58	1	62775.59	-72.38334	1.379283E-008	0.0006936	6
	51	146	2.372217	23370.1	-72565.59	1	76235.99	-72.14859	1.434453E-008	0.0007374	6
	52	153	1.878005	29104.16	-87438.75	1	92155.23	-71.58988	1.324345E-008	0.0006623	6
	53	162	1.512097	35967.02	-103496.3	1	109567.8	-70.83664	1.504912E-008	0.0007178	6
	54	173	1.201923	45746.38	-123652.1	1	131843	-69.69753	1.520575E-008	0.0006424	6
	55	186	0.956633	58348.53	-146106.3	1	157326.4	-68.23037	1.344495E-008	-1.098983E-006	6
