EXPLAIN
TAG	EISPOT
TITLE	LABEL	Potentiostatic EIS	Test Identifier
DATE	LABEL	2/27/2021	Date
TIME	LABEL	20:12:33	Time
NOTES	NOTES	1	Notes...
	
PSTAT	PSTAT	REF3000-16137	Potentiostat
VDC	POTEN	0.00000E+000	T	DC Voltage (V)
FREQINIT	QUANT	3.00000E+005	Initial Freq. (Hz)
FREQFINAL	QUANT	1.00000E+000	Final Freq. (Hz)
PTSPERDEC	QUANT	1.00000E+001	Points/decade
VAC	QUANT	5.00000E+001	AC Voltage (mV rms)
AREA	QUANT	1.00000E+000	Sample Area (cm^2)
SPEED	SELECTOR	2	Optimize for:
ZGUESS	QUANT	1.00000E+003	Estimated Z (ohms)
EOC	QUANT	0	Open Circuit (V)
SEQUENCER	TOGGLE	TRUE	Run as Sequence
PSTATMODEL	IQUANT	5	Pstat Model
PSTATSECTION	LABEL	REF3000-16137	Pstat Section
PSTATSERIALNO	LABEL	16137	Pstat Serial Number
CTRLMODE	IQUANT	1	Control Mode
IESTAB	IQUANT	0	I/E Stability
CASPEED	IQUANT	1	Control Amp Speed
CONVENTION	IQUANT	1	Current Convention
ICHRANGE	IQUANT	2	Ich Range
ICHRANGEMODE	TOGGLE	F	Ich Auto Range
ICHOFFSETENABLE	TOGGLE	T	Ich Offset Enable
ICHOFFSET	QUANT	0	Ich Offset (V)
ICHFILTER	IQUANT	3	Ich Filter
VCHRANGE	IQUANT	2	Vch Range
VCHRANGEMODE	TOGGLE	F	Vch Auto Range
VCHOFFSETENABLE	TOGGLE	T	Vch Offset Enable
VCHOFFSET	QUANT	0	Vch Offset (V)
VCHFILTER	IQUANT	3	Vch Filter
ACHRANGE	IQUANT	2	Ach Range
ACHOFFSETENABLE	TOGGLE	F	Ach Offset Enable
ACHOFFSET	QUANT	0	Ach Offset (V)
ACHFILTER	IQUANT	3	Ach Filter
IERANGELOWERLIMIT	IQUANT	2	I/E Range Lower Limit
IERANGEMODE	TOGGLE	F	I/E AutoRange
IERANGE	IQUANT	11	I/E Range
POSFEEDENABLE	TOGGLE	F	Positive Feedback IR Comp
POSFEEDRESISTANCE	QUANT	0	Positive Feedback Resistance (ohm)
ACHSELECT	IQUANT	0	Ach Select
CABLEID	IQUANT	13	Cable ID
DCCALDATE	LABEL	7/31/2020	DC Calibration Date
ACCALDATE	LABEL	7/31/2020	AC Calibration Date
THERMOSELECT	IQUANT	1	Thermo Select
FRAMEWORKVERSION	QUANT	6.33	Framework Version
INSTRUMENTVERSION	LABEL	3.50	Instrument Version
COMPLIANCEVOLTAGE	IQUANT	0	Compliance Voltage
ZCURVE	TABLE
	Pt	Time	Freq	Zreal	Zimag	Zsig	Zmod	Zphz	Idc	Vdc	IERange
	#	s	Hz	ohm	ohm	V	ohm	°	A	V	#
	0	17	300046.9	170.458	-4756.255	1	4759.309	-87.94747	-1.422385E-005	0.0017635	9
	1	31	238359.4	356.7263	-5955.732	1	5966.406	-86.57229	2.55915E-005	0.0009875	9
	2	45	189328.1	100.0639	-7561.869	1	7562.531	-89.24187	-2.883632E-005	-0.0010038	9
	3	53	150421.9	1246.675	-8335.354	1	8428.067	-81.49362	2.630178E-005	-0.0013875	9
	4	61	119484.4	1847.5	-11336.6	1	11486.16	-80.744	3.672631E-006	0.0153119	8
	5	68	94921.88	2313.79	-14476.66	1	14660.4	-80.91927	8.259937E-006	-0.0076475	8
	6	77	75421.88	3585.393	-17511.19	1	17874.47	-78.4287	-2.616208E-005	0.0075523	8
	7	85	59859.37	5093.916	-21845.72	1	22431.75	-76.87448	-2.612584E-005	0.0075419	8
	8	94	47578.12	10457.36	-27457.99	1	29381.92	-69.15069	-7.364024E-006	0.0189844	7
	9	101	37828.12	13599.58	-32536.36	1	35264.19	-67.31601	5.001181E-006	-0.000606	7
	10	109	30046.88	18280.88	-39652.57	1	43663.68	-65.24905	-1.676412E-006	0.0219878	7
	11	116	23859.38	24589.78	-47650.65	1	53621.28	-62.70433	1.159437E-006	-0.0196114	7
	12	122	18984.38	33378.92	-54438.44	1	63856.84	-58.48546	-5.395628E-006	0.0268181	7
	13	127	15046.87	43111.91	-62602.57	1	76011.3	-55.44636	6.620949E-006	-0.0099581	7
	14	132	11953.13	58307.24	-66936.48	1	88770.64	-48.94143	7.669631E-006	-0.0239882	7
	15	138	9515.62	69882.64	-73395.19	1	101343.2	-46.40436	-2.579837E-005	0.0006821	9
	16	145	7546.875	105049.1	-73760.21	1	128358.4	-35.07461	8.313012E-006	0.0041013	8
	17	153	5928.309	81179.16	-76061.23	1	111244.6	-43.13577	2.266923E-005	-0.0096238	8
	18	160	4733.456	117990.8	-29735.15	1	121679.9	-14.14472	2.338321E-005	-0.0027936	8
	19	168	3796.875	144526.5	-61256.39	1	156972.1	-22.96927	-1.56978E-005	0.0006056	8
	20	176	2987.132	152584.5	-46815.31	1	159604.8	-17.05684	-5.342511E-006	0.0266523	7
	21	182	2390.625	159676.3	-52714.13	1	168152.6	-18.26967	1.37576E-006	-0.019964	7
	22	189	1884.191	169922.6	-34933.2	1	173476.2	-11.61718	-2.117989E-007	0.022411	6
	23	194	1516.544	175075.8	-31618.68	1	177908.1	-10.23727	-2.126201E-007	0.0224569	6
	24	198	1193.986	179849.5	-26864.75	1	181844.8	-8.495658	1.860422E-007	-0.0211655	6
	25	203	946.5144	184087.7	-22368.38	1	185441.7	-6.928012	3.984248E-007	-0.0254889	6
	26	206	751.7689	187851.5	-17430.19	1	188658.5	-5.301127	-2.731798E-007	-0.0074624	6
	27	208	597.4265	191946.1	-17083.29	1	192704.8	-5.085952	4.452857E-007	0.0018564	6
	28	211	477.4305	192595	-19861.17	1	193616.4	-5.887759	-5.83389E-009	0.0006289	6
	29	213	376.6741	195135.8	-20079.75	1	196166.1	-5.875139	-7.044664E-009	0.0007065	6
	30	215	298.2954	197448.9	-21135.25	1	198576.9	-6.109767	-7.313282E-009	0.0007159	6
	31	218	237.7717	200941.7	-22954.82	1	202248.6	-6.517004	-7.167817E-009	0.000723	6
	32	220	189.0121	204085.2	-25605.64	1	205685.2	-7.151273	-7.031392E-009	0.0007199	6
	33	223	150.2404	207711.3	-29372.63	1	209777.9	-8.048876	-6.804711E-009	0.0006512	6
	34	225	119.1737	211054.2	-33702.71	1	213728.3	-9.072813	-6.218902E-009	0.0006632	6
	35	228	95.0169	216599.4	-39280.73	1	220132.4	-10.27899	-6.726968E-009	0.0007114	6
	36	230	75.60484	221793.5	-46595.55	1	226635.1	-11.86446	-7.090426E-009	0.0007232	6
	37	233	54.50582	230437	-56535.58	1	237270.9	-13.78472	-7.306552E-009	0.0007189	6
	38	235	45.95588	236592.9	-65489.19	1	245489.4	-15.47215	-6.328381E-009	0.0006472	6
	39	239	37.20238	243806.7	-76179.88	1	255431.2	-17.35195	-6.521715E-009	0.0007147	6
	40	241	30.04808	251833.3	-88322.95	1	266872.5	-19.32679	-6.185392E-009	0.0006434	6
	41	244	23.91582	261429.5	-103642.9	1	281224.5	-21.62569	-6.815573E-009	0.0007058	6
	42	247	18.60119	273442	-123301.8	1	299956.4	-24.27179	-7.588009E-009	0.0007188	6
	43	249	15.02404	283955.8	-143831.4	1	318305.5	-26.86346	-6.373493E-009	0.0006505	6
	44	251	12.01923	296261.1	-168342.2	1	340748.8	-29.6062	-7.013984E-009	0.0006945	6
	45	254	9.450605	309838.4	-200734.2	1	369180.2	-32.93788	-6.164351E-009	0.0006273	6
	46	256	7.512019	325609.9	-238106.7	1	403381.5	-36.17665	-7.414495E-010	0.000684	5
	47	259	5.978954	341213.1	-284304.1	1	444134.2	-39.80159	-7.098385E-010	0.0006194	5
	48	264	4.734848	359098.1	-343515	1	496944.7	-43.72946	-8.499063E-010	0.0006305	5
	49	267	3.75601	378743.8	-416041	1	562616.2	-47.68677	-7.3159E-010	0.0006272	5
	50	273	3.004808	401644.6	-503378.8	1	643978.8	-51.41373	-6.712578E-010	0.0005938	5
	51	279	2.372217	427155.5	-617069.1	1	750490.5	-55.30775	-7.565353E-010	0.0006422	5
	52	283	1.878005	455510.3	-758315.5	1	884608.4	-59.00731	-8.00718E-010	0.0006682	5
	53	288	1.512097	485753.2	-920231.6	1	1040568	-62.17223	-7.844003E-010	0.00056	5
	54	294	1.201923	523667	-1132566	1	1247771	-65.18549	-8.072092E-010	0.0006729	5
	55	300	0.956633	566571.8	-1394874	1	1505549	-67.89394	-8.01424E-010	1.632495E-005	5
