EXPLAIN
TAG	EISPOT
TITLE	LABEL	Potentiostatic EIS	Test Identifier
DATE	LABEL	2/27/2021	Date
TIME	LABEL	20:07:44	Time
NOTES	NOTES	1	Notes...
	
PSTAT	PSTAT	REF3000-16137	Potentiostat
VDC	POTEN	0.00000E+000	T	DC Voltage (V)
FREQINIT	QUANT	3.00000E+005	Initial Freq. (Hz)
FREQFINAL	QUANT	1.00000E+000	Final Freq. (Hz)
PTSPERDEC	QUANT	1.00000E+001	Points/decade
VAC	QUANT	5.00000E+001	AC Voltage (mV rms)
AREA	QUANT	1.00000E+000	Sample Area (cm^2)
SPEED	SELECTOR	2	Optimize for:
ZGUESS	QUANT	1.00000E+003	Estimated Z (ohms)
EOC	QUANT	0	Open Circuit (V)
SEQUENCER	TOGGLE	TRUE	Run as Sequence
PSTATMODEL	IQUANT	5	Pstat Model
PSTATSECTION	LABEL	REF3000-16137	Pstat Section
PSTATSERIALNO	LABEL	16137	Pstat Serial Number
CTRLMODE	IQUANT	1	Control Mode
IESTAB	IQUANT	0	I/E Stability
CASPEED	IQUANT	1	Control Amp Speed
CONVENTION	IQUANT	1	Current Convention
ICHRANGE	IQUANT	2	Ich Range
ICHRANGEMODE	TOGGLE	F	Ich Auto Range
ICHOFFSETENABLE	TOGGLE	T	Ich Offset Enable
ICHOFFSET	QUANT	0	Ich Offset (V)
ICHFILTER	IQUANT	3	Ich Filter
VCHRANGE	IQUANT	2	Vch Range
VCHRANGEMODE	TOGGLE	F	Vch Auto Range
VCHOFFSETENABLE	TOGGLE	T	Vch Offset Enable
VCHOFFSET	QUANT	0	Vch Offset (V)
VCHFILTER	IQUANT	3	Vch Filter
ACHRANGE	IQUANT	2	Ach Range
ACHOFFSETENABLE	TOGGLE	F	Ach Offset Enable
ACHOFFSET	QUANT	0	Ach Offset (V)
ACHFILTER	IQUANT	3	Ach Filter
IERANGELOWERLIMIT	IQUANT	2	I/E Range Lower Limit
IERANGEMODE	TOGGLE	F	I/E AutoRange
IERANGE	IQUANT	11	I/E Range
POSFEEDENABLE	TOGGLE	F	Positive Feedback IR Comp
POSFEEDRESISTANCE	QUANT	0	Positive Feedback Resistance (ohm)
ACHSELECT	IQUANT	0	Ach Select
CABLEID	IQUANT	13	Cable ID
DCCALDATE	LABEL	7/31/2020	DC Calibration Date
ACCALDATE	LABEL	7/31/2020	AC Calibration Date
THERMOSELECT	IQUANT	1	Thermo Select
FRAMEWORKVERSION	QUANT	6.33	Framework Version
INSTRUMENTVERSION	LABEL	3.50	Instrument Version
COMPLIANCEVOLTAGE	IQUANT	0	Compliance Voltage
ZCURVE	TABLE
	Pt	Time	Freq	Zreal	Zimag	Zsig	Zmod	Zphz	Idc	Vdc	IERange
	#	s	Hz	ohm	ohm	V	ohm	°	A	V	#
	0	16	300046.9	589.6147	-4740.988	1	4777.511	-82.91079	-1.759819E-005	0.0017513	9
	1	30	238359.4	882.5556	-5870.227	1	5936.2	-81.44994	-6.074796E-005	0.0003582	9
	2	43	189328.1	1951.051	-6773.085	1	7048.495	-73.93046	1.420497E-006	-0.0019004	9
	3	51	150421.9	2271.347	-8513.79	1	8811.562	-75.06228	2.077165E-005	-0.0003319	9
	4	58	119484.4	3582.765	-10537.02	1	11129.47	-71.2211	-5.940155E-005	0.0066004	8
	5	66	94921.88	5119.026	-12858.53	1	13840.03	-68.29233	1.640604E-005	-0.0091657	8
	6	74	75421.88	7204.866	-15191.71	1	16813.63	-64.62675	-2.614345E-005	0.0076113	8
	7	83	59859.37	9844.87	-17548.22	1	20121.18	-60.70678	8.101153E-006	-0.0075569	8
	8	92	47578.12	16436.81	-19302.83	1	25352.87	-49.58483	4.805605E-006	-0.0004008	7
	9	98	37828.12	19682.86	-20130.83	1	28154.31	-45.64464	-2.593302E-005	0.0074892	8
	10	107	30046.88	22425.21	-23784.56	1	32689.38	-46.68499	-1.163457E-005	0.0102219	8
	11	115	23859.38	29622.34	-21787.43	1	36771.94	-36.33474	-7.294111E-006	0.0186795	7
	12	120	18984.38	34410.33	-21352.05	1	40496.68	-31.82014	3.586953E-006	-0.0243322	7
	13	126	15046.87	39030.5	-20228.82	1	43961.18	-27.39691	7.418759E-006	-0.0177581	7
	14	131	11953.13	40948.41	-20313.32	1	45709.99	-26.38468	-2.559859E-005	0.0073793	8
	15	137	9515.62	46099.91	-16078.46	1	48823.34	-19.22746	-6.30391E-006	0.0253815	7
	16	144	7546.875	48787.81	-14527.98	1	50904.94	-16.58242	-5.320514E-006	0.0033371	7
	17	149	5928.309	49627.16	-12859.71	1	51266.24	-14.52732	-9.494831E-007	-0.0134266	7
	18	155	4733.456	53435.66	-10256.14	1	54411.01	-10.8649	4.201939E-007	0.0162952	7
	19	160	3796.875	57555.21	-4280.879	1	57714.19	-4.25375	2.008923E-007	-0.0215118	6
	20	163	2987.132	57888.53	-4054.591	1	58030.35	-4.006531	-6.83498E-007	0.0260718	6
	21	168	2390.625	58199.1	-3816.316	1	58324.09	-3.751712	-4.799461E-007	0.0011576	6
	22	171	1884.191	58444.3	-3983.937	1	58579.93	-3.899613	4.230546E-007	0.0022838	6
	23	175	1516.544	59404.04	-3768.169	1	59523.43	-3.629574	-4.05651E-007	0.0253946	6
	24	179	1193.986	60600.16	-4651.675	1	60778.43	-4.389423	-6.846212E-009	0.0173704	6
	25	184	946.5144	61158.05	-4827.079	1	61348.25	-4.512882	-2.294061E-007	0.0227004	6
	26	186	751.7689	62633.73	-6324.786	1	62952.26	-5.766211	-2.786454E-007	-0.0071557	6
	27	189	597.4265	63356.27	-7549.318	1	63804.46	-6.795132	7.227088E-007	-0.0153564	6
	28	192	477.4305	64198.36	-8347.095	1	64738.73	-7.408061	-6.920497E-009	0.0007001	6
	29	194	376.6741	65360.04	-9940.52	1	66111.64	-8.647769	-6.885008E-009	0.0006346	6
	30	196	298.2954	66710.14	-11840.72	1	67752.83	-10.0649	-6.49978E-009	0.000707	6
	31	199	237.7717	68119.97	-13991.14	1	69541.95	-11.60655	-7.152304E-009	0.0007247	6
	32	201	189.0121	69897.85	-16602.74	1	71842.61	-13.36177	-6.6999E-009	0.0006351	6
	33	203	150.2404	71911.53	-19572.86	1	74527.62	-15.22591	-6.278956E-009	0.000653	6
	34	206	119.1737	74182.24	-23182.84	1	77720.33	-17.35465	-7.425031E-009	0.000732	6
	35	209	95.0169	76721.72	-27121.03	1	81374.27	-19.46844	-6.861598E-009	0.0007261	6
	36	211	75.60484	79584.45	-31952.56	1	85759.26	-21.8751	-7.296482E-009	0.0007288	6
	37	214	54.50582	83855.2	-39888.48	1	92858.95	-25.43963	-6.362769E-009	0.0006313	6
	38	216	45.95588	86604.52	-45367.09	1	97767.7	-27.64744	-6.547949E-009	0.0006419	6
	39	219	37.20238	89993.2	-52700.68	1	104288.7	-30.35355	-6.524112E-009	0.0006581	6
	40	221	30.04808	93711.9	-61698.76	1	112199.2	-33.36041	-7.361328E-009	0.0007218	6
	41	224	23.91582	97867.5	-73138.08	1	122177	-36.7714	-7.409946E-009	0.0007152	6
	42	226	18.60119	102614.9	-89193.88	1	135960.9	-40.99749	-6.527463E-009	0.0007007	6
	43	228	15.02404	106716.4	-105768.5	1	150251	-44.74439	-6.380014E-009	0.0006268	6
	44	231	12.01923	111598.6	-127283.8	1	169279.1	-48.75669	-7.541289E-009	0.0007208	6
	45	233	9.450605	117325.6	-156034.6	1	195223.2	-53.05975	-6.361604E-009	0.0006252	6
	46	236	7.512019	123697.7	-190471.5	1	227113.4	-56.99913	-7.19212E-009	0.0007131	6
	47	239	5.978954	131058.1	-232833.3	1	267184.6	-60.62554	-6.318726E-009	0.0006243	6
	48	243	4.734848	140026	-287243.4	1	319556.1	-64.0116	-6.213423E-009	0.0006235	6
	49	247	3.75601	150565.1	-354123.8	1	384803.3	-66.96594	-6.038211E-009	0.0006395	6
	50	252	3.004808	163706.2	-434392.6	1	464216.2	-69.35047	-7.588148E-010	0.0007084	5
	51	259	2.372217	179080.1	-540010.6	1	568929.8	-71.65327	-7.557083E-010	0.0007395	5
	52	263	1.878005	196983.1	-669950.9	1	698309.8	-73.61528	-7.904607E-010	0.0006333	5
	53	268	1.512097	218917.6	-817884.8	1	846676.1	-75.0153	-6.950043E-010	0.0007394	5
	54	273	1.201923	245578.5	-1014796	1	1044088	-76.39608	-7.61226E-010	0.0006309	5
	55	279	0.956633	280263.6	-1256636	1	1287510	-77.42727	-8.20638E-010	1.888566E-005	5
