EXPLAIN
TAG	EISPOT
TITLE	LABEL	Potentiostatic EIS	Test Identifier
DATE	LABEL	2/27/2021	Date
TIME	LABEL	20:35:09	Time
NOTES	NOTES	1	Notes...
	
PSTAT	PSTAT	REF3000-16137	Potentiostat
VDC	POTEN	0.00000E+000	T	DC Voltage (V)
FREQINIT	QUANT	3.00000E+005	Initial Freq. (Hz)
FREQFINAL	QUANT	1.00000E+000	Final Freq. (Hz)
PTSPERDEC	QUANT	1.00000E+001	Points/decade
VAC	QUANT	5.00000E+001	AC Voltage (mV rms)
AREA	QUANT	1.00000E+000	Sample Area (cm^2)
SPEED	SELECTOR	2	Optimize for:
ZGUESS	QUANT	1.00000E+003	Estimated Z (ohms)
EOC	QUANT	0	Open Circuit (V)
SEQUENCER	TOGGLE	TRUE	Run as Sequence
PSTATMODEL	IQUANT	5	Pstat Model
PSTATSECTION	LABEL	REF3000-16137	Pstat Section
PSTATSERIALNO	LABEL	16137	Pstat Serial Number
CTRLMODE	IQUANT	1	Control Mode
IESTAB	IQUANT	0	I/E Stability
CASPEED	IQUANT	1	Control Amp Speed
CONVENTION	IQUANT	1	Current Convention
ICHRANGE	IQUANT	2	Ich Range
ICHRANGEMODE	TOGGLE	F	Ich Auto Range
ICHOFFSETENABLE	TOGGLE	T	Ich Offset Enable
ICHOFFSET	QUANT	0	Ich Offset (V)
ICHFILTER	IQUANT	3	Ich Filter
VCHRANGE	IQUANT	2	Vch Range
VCHRANGEMODE	TOGGLE	F	Vch Auto Range
VCHOFFSETENABLE	TOGGLE	T	Vch Offset Enable
VCHOFFSET	QUANT	0	Vch Offset (V)
VCHFILTER	IQUANT	3	Vch Filter
ACHRANGE	IQUANT	2	Ach Range
ACHOFFSETENABLE	TOGGLE	F	Ach Offset Enable
ACHOFFSET	QUANT	0	Ach Offset (V)
ACHFILTER	IQUANT	3	Ach Filter
IERANGELOWERLIMIT	IQUANT	2	I/E Range Lower Limit
IERANGEMODE	TOGGLE	F	I/E AutoRange
IERANGE	IQUANT	11	I/E Range
POSFEEDENABLE	TOGGLE	F	Positive Feedback IR Comp
POSFEEDRESISTANCE	QUANT	0	Positive Feedback Resistance (ohm)
ACHSELECT	IQUANT	0	Ach Select
CABLEID	IQUANT	13	Cable ID
DCCALDATE	LABEL	7/31/2020	DC Calibration Date
ACCALDATE	LABEL	7/31/2020	AC Calibration Date
THERMOSELECT	IQUANT	1	Thermo Select
FRAMEWORKVERSION	QUANT	6.33	Framework Version
INSTRUMENTVERSION	LABEL	3.50	Instrument Version
COMPLIANCEVOLTAGE	IQUANT	0	Compliance Voltage
ZCURVE	TABLE
	Pt	Time	Freq	Zreal	Zimag	Zsig	Zmod	Zphz	Idc	Vdc	IERange
	#	s	Hz	ohm	ohm	V	ohm	°	A	V	#
	0	15	300046.9	-32.67801	-4872.233	1	4872.342	-90.38428	7.590564E-005	-0.001795	9
	1	31	238359.4	75.07253	-5956.275	1	5956.748	-89.27789	7.686913E-005	-0.0016702	9
	2	45	189328.1	211.0999	-7483.139	1	7486.116	-88.38411	-7.400395E-007	0.0015725	9
	3	53	150421.9	1494.666	-8905.737	1	9030.293	-80.47274	4.723745E-007	0.0017181	9
	4	60	119484.4	322.3055	-11884.02	1	11888.39	-88.44646	-9.259267E-005	0.0329289	8
	5	68	94921.88	816.1248	-14455.65	1	14478.67	-86.76868	1.74106E-005	0.0003845	8
	6	76	75421.88	802.1863	-18424.68	1	18442.13	-87.50699	2.614616E-005	-0.005056	8
	7	85	59859.37	437.8801	-22741.96	1	22746.17	-88.89695	-2.648576E-005	0.0096152	8
	8	93	47578.12	3995.247	-30174.79	1	30438.13	-82.45771	-3.675303E-006	0.0254227	7
	9	101	37828.12	4227.586	-37296.47	1	37535.3	-83.53307	-6.767343E-006	0.0121812	7
	10	108	30046.88	4445.075	-46469.79	1	46681.9	-84.53599	-7.31017E-006	0.0236858	7
	11	116	23859.38	4649.526	-57830.73	1	58017.34	-85.40337	-5.38698E-006	0.0269063	7
	12	121	18984.38	5404.184	-72035.16	1	72237.59	-85.70963	-7.385931E-006	0.0190374	7
	13	126	15046.87	4983.7	-88007.82	1	88148.81	-86.75892	5.4589E-006	-0.0268654	7
	14	133	11953.13	5050.224	-114097.6	1	114209.3	-87.46561	-7.463104E-006	0.0191265	7
	15	138	9515.62	-3619.103	-141960.1	1	142006.3	-91.46037	-2.111582E-006	0.0077756	8
	16	146	7546.875	4946.34	-176630.8	1	176700	-88.39592	-1.021283E-006	-0.0133782	7
	17	152	5928.309	42220.97	-241878.7	1	245535.9	-80.09853	-7.398736E-006	0.0191172	7
	18	159	4733.456	86499.8	-464281.7	1	472270.8	-79.44629	-2.379546E-005	0.0052318	8
	19	167	3796.875	43401.32	-400926.4	1	403268.7	-83.82164	1.690399E-005	-0.0092959	8
	20	175	2987.132	58885.9	-420174.6	1	424280.8	-82.02217	5.423812E-006	-0.0269298	7
	21	182	2390.625	-5861.02	-578079.4	1	578109.1	-90.58089	6.934958E-006	-0.027193	7
	22	189	1884.191	88778.09	-669933.9	1	675790.6	-82.45128	3.542135E-006	-0.0246633	7
	23	195	1516.544	273.3773	-719633.4	1	719633.5	-89.97823	-3.747466E-006	0.0255008	7
	24	202	1193.986	-158972.2	-973248	1	986145	-99.2769	-5.343581E-006	0.0266877	7
	25	209	946.5144	4215936	718699.5	1	4276756	9.67433	-1.757483E-006	0.0219039	7
	26	213	751.7689	-202904.5	-1755380	1	1767068	-96.5936	-4.062994E-007	0.0256879	6
	27	219	597.4265	774343.3	-1935081	1	2084262	-68.19066	1.821206E-007	-0.0211937	6
	28	223	477.4305	100707	-2827619	1	2829411	-87.96024	-6.619715E-009	0.0006425	6
	29	226	376.6741	123835.6	-3567261	1	3569410	-88.0118	-6.452046E-009	0.0006244	6
	30	230	298.2954	529533.6	-4573592	1	4604145	-83.39566	-6.639748E-010	0.0006204	5
	31	234	237.7717	608813	-5738600	1	5770805	-83.94409	-7.721938E-010	0.0007095	5
	32	238	189.0121	656013.9	-7124004	1	7154145	-84.73875	-7.125949E-010	0.0006851	5
	33	242	150.2404	1002503	-8886355	1	8942724	-83.56346	-7.285471E-010	0.000614	5
	34	245	119.1737	2350207	-1.112844E+007	1	1.13739E+007	-78.07497	-5.629884E-010	0.0006153	5
	35	247	95.0169	644138.5	-1.376249E+007	1	1.377756E+007	-87.32029	-7.455125E-010	0.0006603	5
	36	250	75.60484	2651931	-1.603471E+007	1	1.625253E+007	-80.60903	-6.492767E-010	0.0006285	5
	37	253	54.50582	3208614	-2.472463E+007	1	2.493196E+007	-82.60582	-7.709395E-010	0.0006943	5
	38	256	45.95588	-460742.5	-3.163234E+007	1	3.163569E+007	-90.83449	-6.072599E-010	0.0006251	5
	39	260	37.20238	-1051809	-3.420165E+007	1	3.421782E+007	-91.76147	-7.111376E-010	0.0006226	5
	40	264	30.04808	7143446	-4.483013E+007	1	4.53957E+007	-80.94633	-7.857581E-010	0.0007176	5
	41	268	23.91582	5506398	-6.655456E+007	1	6.678196E+007	-85.2704	-1.706125E-010	0.0006788	4
	42	272	18.60119	3.271196E+007	-9.296352E+007	1	9.855094E+007	-70.61407	-9.643607E-011	0.0006267	4
	43	275	15.02404	2.002113E+007	-8.276694E+007	1	8.515406E+007	-76.4015	-7.526448E-011	0.0007025	4
	44	279	12.01923	3.042105E+007	-1.079063E+008	1	1.121125E+008	-74.25574	-5.424195E-011	0.0006337	4
	45	282	9.450605	2.567901E+007	-1.33544E+008	1	1.359905E+008	-79.11552	-2.885834E-011	0.0006313	4
	46	286	7.512019	6.033471E+007	-1.491581E+008	1	1.608988E+008	-67.97658	-6.711259E-011	0.0006366	4
	47	291	5.978954	8.269329E+007	-1.77358E+008	1	1.956886E+008	-65.00268	-6.107161E-011	0.0006662	4
	48	296	4.734848	1.494957E+008	-2.11792E+008	1	2.592389E+008	-54.78324	-6.262335E-012	0.0007239	3
	49	301	3.75601	1.124667E+008	-2.27555E+008	1	2.538308E+008	-63.69959	-7.706863E-010	0.0007096	5
	50	309	3.004808	2.087541E+008	-2.88672E+008	1	3.56244E+008	-54.12731	-6.791341E-010	0.0005811	5
	51	319	2.372217	2.968585E+008	-3.025815E+008	1	4.238874E+008	-45.547	-5.839785E-012	0.0008012	3
	52	326	1.878005	3.661732E+008	-3.247815E+008	1	4.894547E+008	-41.57178	-6.039992E-012	0.0007113	3
	53	335	1.512097	4.392812E+008	-3.429786E+008	1	5.573171E+008	-37.98174	-5.812659E-012	0.0008365	3
	54	341	1.201923	5.243348E+008	-3.607681E+008	1	6.364594E+008	-34.52988	-5.88051E-012	0.000706	3
	55	354	0.956633	6.197306E+008	-3.739304E+008	1	7.238024E+008	-31.10576	-6.931471E-012	9.125671E-005	3
