EXPLAIN
TAG	EISPOT
TITLE	LABEL	Potentiostatic EIS	Test Identifier
DATE	LABEL	2/27/2021	Date
TIME	LABEL	20:02:45	Time
NOTES	NOTES	1	Notes...
	
PSTAT	PSTAT	REF3000-16137	Potentiostat
VDC	POTEN	0.00000E+000	T	DC Voltage (V)
FREQINIT	QUANT	3.00000E+005	Initial Freq. (Hz)
FREQFINAL	QUANT	1.00000E+000	Final Freq. (Hz)
PTSPERDEC	QUANT	1.00000E+001	Points/decade
VAC	QUANT	5.00000E+001	AC Voltage (mV rms)
AREA	QUANT	1.00000E+000	Sample Area (cm^2)
SPEED	SELECTOR	2	Optimize for:
ZGUESS	QUANT	1.00000E+003	Estimated Z (ohms)
EOC	QUANT	0	Open Circuit (V)
SEQUENCER	TOGGLE	TRUE	Run as Sequence
PSTATMODEL	IQUANT	5	Pstat Model
PSTATSECTION	LABEL	REF3000-16137	Pstat Section
PSTATSERIALNO	LABEL	16137	Pstat Serial Number
CTRLMODE	IQUANT	1	Control Mode
IESTAB	IQUANT	0	I/E Stability
CASPEED	IQUANT	1	Control Amp Speed
CONVENTION	IQUANT	1	Current Convention
ICHRANGE	IQUANT	2	Ich Range
ICHRANGEMODE	TOGGLE	F	Ich Auto Range
ICHOFFSETENABLE	TOGGLE	T	Ich Offset Enable
ICHOFFSET	QUANT	0	Ich Offset (V)
ICHFILTER	IQUANT	3	Ich Filter
VCHRANGE	IQUANT	2	Vch Range
VCHRANGEMODE	TOGGLE	F	Vch Auto Range
VCHOFFSETENABLE	TOGGLE	T	Vch Offset Enable
VCHOFFSET	QUANT	0	Vch Offset (V)
VCHFILTER	IQUANT	3	Vch Filter
ACHRANGE	IQUANT	2	Ach Range
ACHOFFSETENABLE	TOGGLE	F	Ach Offset Enable
ACHOFFSET	QUANT	0	Ach Offset (V)
ACHFILTER	IQUANT	3	Ach Filter
IERANGELOWERLIMIT	IQUANT	2	I/E Range Lower Limit
IERANGEMODE	TOGGLE	F	I/E AutoRange
IERANGE	IQUANT	11	I/E Range
POSFEEDENABLE	TOGGLE	F	Positive Feedback IR Comp
POSFEEDRESISTANCE	QUANT	0	Positive Feedback Resistance (ohm)
ACHSELECT	IQUANT	0	Ach Select
CABLEID	IQUANT	13	Cable ID
DCCALDATE	LABEL	7/31/2020	DC Calibration Date
ACCALDATE	LABEL	7/31/2020	AC Calibration Date
THERMOSELECT	IQUANT	1	Thermo Select
FRAMEWORKVERSION	QUANT	6.33	Framework Version
INSTRUMENTVERSION	LABEL	3.50	Instrument Version
COMPLIANCEVOLTAGE	IQUANT	0	Compliance Voltage
ZCURVE	TABLE
	Pt	Time	Freq	Zreal	Zimag	Zsig	Zmod	Zphz	Idc	Vdc	IERange
	#	s	Hz	ohm	ohm	V	ohm	°	A	V	#
	0	14	300046.9	1348.871	-4395.851	1	4598.147	-72.94131	-9.02363E-005	0.0042209	9
	1	30	238359.4	2003.674	-5188.998	1	5562.411	-68.88648	-2.059344E-005	0.0010932	9
	2	51	189328.1	2715.757	-6066.406	1	6646.55	-65.8833	7.966944E-005	-0.0015454	9
	3	60	150421.9	3893.474	-6871.167	1	7897.599	-60.4624	4.945833E-005	0.0002347	9
	4	68	119484.4	5809.554	-7604.623	1	9569.81	-52.62197	-3.019185E-005	-0.0061116	8
	5	75	94921.88	7310.56	-8088.247	1	10902.48	-47.89116	1.736162E-005	0.0003324	8
	6	84	75421.88	9155.834	-8359.104	1	12397.74	-42.39549	2.701423E-005	-0.0072772	8
	7	91	59859.37	11152.38	-8483.542	1	14012.36	-37.26	2.712923E-005	-0.0072401	8
	8	100	47578.12	13053.7	-8149.356	1	15388.67	-31.97631	2.70365E-005	-0.0072453	8
	9	109	37828.12	15926.85	-6554.349	1	17222.78	-22.36855	-1.977896E-006	0.0218183	7
	10	116	30046.88	17094.08	-5841.651	1	18064.67	-18.86711	1.970152E-007	0.016622	7
	11	122	23859.38	17957.1	-5078.676	1	18661.47	-15.79211	-6.484463E-006	0.0250614	7
	12	127	18984.38	18780.16	-4390.059	1	19286.45	-13.15723	-5.074898E-006	0.0256676	7
	13	131	15046.87	19299.98	-3831.826	1	19676.69	-11.2295	-6.403817E-006	0.0110072	7
	14	135	11953.13	19969.46	-3216.541	1	20226.85	-9.15021	-1.913478E-006	0.0216925	7
	15	139	9515.62	20155.16	-2895.367	1	20362.06	-8.174835	6.310579E-006	-0.0091105	7
	16	144	7546.875	20793.63	-2538.357	1	20947.99	-6.959877	2.437347E-006	0.009019	7
	17	148	5928.309	20950.48	-2595.619	1	21110.66	-7.062562	-1.907644E-006	0.0218387	7
	18	152	4733.456	21138.6	-2048.868	1	21237.66	-5.536128	-6.430064E-006	0.0110746	7
	19	156	3796.875	21775	-2322.244	1	21898.48	-6.087428	-6.437746E-006	0.0112362	7
	20	161	2987.132	22186.14	-2263.728	1	22301.33	-5.825921	-7.080362E-006	0.022573	7
	21	165	2390.625	22382.13	-2212.212	1	22491.19	-5.644687	5.328421E-006	-0.0261491	7
	22	169	1884.191	22698.96	-2548.724	1	22841.6	-6.406552	-6.430452E-006	0.0250698	7
	23	173	1516.544	23402.64	-3318.993	1	23636.82	-8.071934	2.557605E-006	0.0089565	7
	24	178	1193.986	24259.55	-3056.953	1	24451.39	-7.182005	2.237344E-005	-0.0094914	8
	25	184	946.5144	23805.55	-3509.493	1	24062.85	-8.386328	-9.487569E-006	-0.0021074	8
	26	190	751.7689	24339.81	-6938.88	1	25309.57	-15.91198	-2.625469E-005	0.0096894	8
	27	195	597.4265	26278.56	-6038.602	1	26963.45	-12.94144	-1.850845E-006	0.0075196	8
	28	201	477.4305	26913.34	-6569.624	1	27703.57	-13.7178	-5.683136E-008	0.0005946	7
	29	205	376.6741	27678.15	-7748.084	1	28742.18	-15.63879	-6.1708E-008	0.0006148	7
	30	207	298.2954	28519.35	-9118.474	1	29941.61	-17.7306	-6.136468E-008	0.0006839	7
	31	209	237.7717	29474.91	-10671.09	1	31347.13	-19.90226	-5.831959E-008	0.0005846	7
	32	212	189.0121	30546.04	-12528.33	1	33015.45	-22.30079	-6.616864E-008	0.0006561	7
	33	214	150.2404	31713.59	-14694.23	1	34952.43	-24.86026	-5.595792E-008	0.0005862	7
	34	216	119.1737	33023.05	-17319.85	1	37289.39	-27.676	-6.002338E-008	0.0005936	7
	35	219	95.0169	34521.6	-20283.19	1	40039.34	-30.4364	-7.642071E-009	0.0007191	6
	36	221	75.60484	35949.19	-23981.25	1	43213.94	-33.70675	-7.155851E-009	0.0007131	6
	37	224	54.50582	38057.5	-30704	1	48898.96	-38.89587	-7.503901E-009	0.000716	6
	38	226	45.95588	39300.64	-35203.53	1	52762	-41.85238	-6.512653E-009	0.000705	6
	39	229	37.20238	40918.66	-41802.5	1	58496.04	-45.61216	-7.474519E-009	0.0007189	6
	40	231	30.04808	42683.48	-49930.96	1	65688.51	-49.47453	-6.328275E-009	0.000632	6
	41	234	23.91582	44712.54	-60684.3	1	75377.68	-53.617	-7.881898E-009	0.0006952	6
	42	236	18.60119	47253.54	-75537.34	1	89099.87	-57.97133	-6.241797E-009	0.0006913	6
	43	239	15.02404	49797.61	-91057.83	1	103785	-61.32668	-6.31819E-009	0.0007261	6
	44	241	12.01923	52874.62	-111169.6	1	123103.2	-64.56325	-7.147081E-009	0.0007129	6
	45	244	9.450605	56678.33	-138126.2	1	149302.7	-67.68983	-6.872805E-009	0.0007195	6
	46	246	7.512019	61182	-170333	1	180987.7	-70.24219	-6.596965E-009	0.0006669	6
	47	249	5.978954	66616.13	-209980.7	1	220294.3	-72.39843	-6.076126E-009	0.0006519	6
	48	253	4.734848	73419.16	-260580.7	1	270726.2	-74.26471	-7.028046E-009	0.0006909	6
	49	257	3.75601	82143.83	-323220.4	1	333495.2	-75.74062	-6.507682E-009	0.0007025	6
	50	263	3.004808	92888.16	-397824.5	1	408524.8	-76.85744	-5.981545E-009	0.0006076	6
	51	269	2.372217	107277.8	-496191.3	1	507655.8	-77.80029	-7.195419E-010	0.0006087	5
	52	273	1.878005	126088.5	-617144.3	1	629893.1	-78.45284	-7.711139E-010	0.0006707	5
	53	278	1.512097	148750.8	-754909.4	1	769425.1	-78.85298	-7.657153E-010	0.0005612	5
	54	283	1.201923	179094.3	-935857.2	1	952840	-79.16634	-7.855808E-010	0.0006796	5
	55	290	0.956633	219376.6	-1157917	1	1178515	-79.27201	-8.436969E-010	2.138881E-005	5
