EXPLAIN
TAG	EISPOT
TITLE	LABEL	Potentiostatic EIS	Test Identifier
DATE	LABEL	2/27/2021	Date
TIME	LABEL	19:39:39	Time
NOTES	NOTES	1	Notes...
	
PSTAT	PSTAT	REF3000-16137	Potentiostat
VDC	POTEN	0.00000E+000	T	DC Voltage (V)
FREQINIT	QUANT	3.00000E+005	Initial Freq. (Hz)
FREQFINAL	QUANT	1.00000E+000	Final Freq. (Hz)
PTSPERDEC	QUANT	1.00000E+001	Points/decade
VAC	QUANT	5.00000E+001	AC Voltage (mV rms)
AREA	QUANT	1.00000E+000	Sample Area (cm^2)
SPEED	SELECTOR	2	Optimize for:
ZGUESS	QUANT	1.00000E+003	Estimated Z (ohms)
EOC	QUANT	0	Open Circuit (V)
SEQUENCER	TOGGLE	TRUE	Run as Sequence
PSTATMODEL	IQUANT	5	Pstat Model
PSTATSECTION	LABEL	REF3000-16137	Pstat Section
PSTATSERIALNO	LABEL	16137	Pstat Serial Number
CTRLMODE	IQUANT	1	Control Mode
IESTAB	IQUANT	0	I/E Stability
CASPEED	IQUANT	1	Control Amp Speed
CONVENTION	IQUANT	1	Current Convention
ICHRANGE	IQUANT	2	Ich Range
ICHRANGEMODE	TOGGLE	F	Ich Auto Range
ICHOFFSETENABLE	TOGGLE	T	Ich Offset Enable
ICHOFFSET	QUANT	0	Ich Offset (V)
ICHFILTER	IQUANT	3	Ich Filter
VCHRANGE	IQUANT	2	Vch Range
VCHRANGEMODE	TOGGLE	F	Vch Auto Range
VCHOFFSETENABLE	TOGGLE	T	Vch Offset Enable
VCHOFFSET	QUANT	0	Vch Offset (V)
VCHFILTER	IQUANT	3	Vch Filter
ACHRANGE	IQUANT	2	Ach Range
ACHOFFSETENABLE	TOGGLE	F	Ach Offset Enable
ACHOFFSET	QUANT	0	Ach Offset (V)
ACHFILTER	IQUANT	3	Ach Filter
IERANGELOWERLIMIT	IQUANT	2	I/E Range Lower Limit
IERANGEMODE	TOGGLE	F	I/E AutoRange
IERANGE	IQUANT	11	I/E Range
POSFEEDENABLE	TOGGLE	F	Positive Feedback IR Comp
POSFEEDRESISTANCE	QUANT	0	Positive Feedback Resistance (ohm)
ACHSELECT	IQUANT	0	Ach Select
CABLEID	IQUANT	13	Cable ID
DCCALDATE	LABEL	7/31/2020	DC Calibration Date
ACCALDATE	LABEL	7/31/2020	AC Calibration Date
THERMOSELECT	IQUANT	1	Thermo Select
FRAMEWORKVERSION	QUANT	6.33	Framework Version
INSTRUMENTVERSION	LABEL	3.50	Instrument Version
COMPLIANCEVOLTAGE	IQUANT	0	Compliance Voltage
ZCURVE	TABLE
	Pt	Time	Freq	Zreal	Zimag	Zsig	Zmod	Zphz	Idc	Vdc	IERange
	#	s	Hz	ohm	ohm	V	ohm	°	A	V	#
	0	26	300046.9	811.1977	-141.3216	1	823.4158	-9.88252	-9.190978E-005	0.0021383	9
	1	44	238359.4	827.1532	-126.5245	1	836.7741	-8.696769	-8.794652E-005	0.0021142	9
	2	52	189328.1	850.4482	-109.8312	1	857.5109	-7.358739	-2.074625E-005	0.0012287	9
	3	62	150421.9	865.5077	-106.8103	1	872.0734	-7.03517	2.495606E-005	0.0009403	9
	4	74	119484.4	889.2323	-73.04754	1	892.2275	-4.696117	8.834437E-006	-0.0107422	8
	5	80	94921.88	898.5349	-71.14764	1	901.3472	-4.527339	-9.110478E-006	-0.0005532	8
	6	83	75421.88	905.4415	-75.96431	1	908.6226	-4.795743	-8.410242E-006	-0.0006534	8
	7	87	59859.37	910.4686	-84.62569	1	914.393	-5.310237	1.860188E-005	-0.0027124	8
	8	90	47578.12	923.8086	-93.64114	1	928.5424	-5.787973	-1.301647E-005	0.0081403	8
	9	92	37828.12	931.6541	-109.4964	1	938.0665	-6.703164	1.389841E-005	-0.0002458	8
	10	95	30046.88	941.7378	-126.6113	1	950.211	-7.657179	2.599187E-007	0.0053106	8
	11	97	23859.38	957.996	-149.7388	1	969.628	-8.883688	5.504782E-008	0.0053463	8
	12	102	18984.38	973.909	-176.3225	1	989.742	-10.26202	-1.547183E-005	0.0028126	8
	13	105	15046.87	995.761	-206.5194	1	1016.951	-11.71695	-6.992157E-006	0.0071915	8
	14	109	11953.13	1022.919	-241.311	1	1050.997	-13.27364	-1.271626E-005	0.0081517	8
	15	112	9515.62	1044.204	-286.8747	1	1082.894	-15.36189	-1.801541E-005	0.0045561	8
	16	114	7546.875	1075.597	-337.0176	1	1127.16	-17.39737	-1.924054E-005	0.0061807	8
	17	118	5928.309	1110.867	-396.3766	1	1179.466	-19.63728	4.632308E-006	-0.005099	8
	18	122	4733.456	1151.25	-469.6185	1	1243.349	-22.19156	1.599774E-005	-0.0069152	8
	19	125	3796.875	1190.289	-543.1963	1	1308.377	-24.52989	1.884016E-005	-0.0026883	8
	20	128	2987.132	1238.724	-640.361	1	1394.453	-27.33679	-2.239913E-006	-0.0030852	8
	21	132	2390.625	1289.851	-755.9655	1	1495.059	-30.37403	-8.659036E-006	-0.0007004	8
	22	135	1884.191	1355.907	-897.9073	1	1626.26	-33.51328	-1.712938E-005	0.0082732	8
	23	139	1516.544	1409.376	-1053.36	1	1759.519	-36.77423	-1.711252E-005	0.008275	8
	24	144	1193.986	1466.747	-1264.6	1	1936.636	-40.76727	2.059933E-005	-0.0056562	8
	25	148	946.5144	1527.927	-1536.474	1	2166.867	-45.15979	1.155879E-005	-0.0066601	8
	26	151	751.7689	1583.343	-1827.288	1	2417.841	-49.09109	1.891845E-005	-0.0065727	8
	27	153	597.4265	1683.994	-2255.02	1	2814.419	-53.24852	-1.370132E-005	0.0084574	8
	28	157	477.4305	1770.197	-2713.317	1	3239.705	-56.87915	-6.642976E-008	0.0006644	8
	29	161	376.6741	1874.69	-3337.36	1	3827.85	-60.67583	-5.882356E-008	0.0006457	8
	30	163	298.2954	2003.674	-4109.266	1	4571.737	-64.00619	-2.518603E-008	0.0006086	7
	31	165	237.7717	2144.052	-5034.108	1	5471.673	-66.9306	-3.143365E-008	0.0006502	7
	32	168	189.0121	2315.543	-6192.846	1	6611.586	-69.49892	-3.13842E-008	0.0006729	7
	33	170	150.2404	2526.494	-7628.819	1	8036.296	-71.67628	-3.046877E-008	0.0006336	7
	34	173	119.1737	2789.764	-9425.272	1	9829.47	-73.5119	-2.816914E-008	0.0006519	7
	35	175	95.0169	3118.708	-11599.44	1	12011.38	-74.95094	-3.418684E-008	0.0006648	7
	36	177	75.60484	3538.322	-14303.83	1	14734.97	-76.10574	-3.279071E-008	0.0006692	7
	37	180	54.50582	4340.159	-19315.93	1	19797.53	-77.33635	-2.699418E-008	0.0006128	7
	38	183	45.95588	4923.261	-22595.71	1	23125.85	-77.70823	-2.766941E-008	0.0006174	7
	39	185	37.20238	5802.202	-27416.39	1	28023.64	-78.05066	-3.278446E-008	0.000666	7
	40	187	30.04808	6976.279	-33360.34	1	34081.97	-78.18858	-2.72722E-008	0.0006296	7
	41	190	23.91582	8628.21	-41075.22	1	41971.66	-78.13699	-3.029892E-008	0.0006626	7
	42	192	18.60119	11183.54	-51526.7	1	52726.39	-77.75425	-4.125002E-009	0.0006661	6
	43	194	15.02404	14102.91	-62442.89	1	64015.68	-77.27311	-3.062244E-009	0.0006476	6
	44	197	12.01923	18222.12	-76119.31	1	78270.02	-76.53738	-4.553369E-009	0.0006478	6
	45	199	9.450605	24457.05	-93763.8	1	96901	-75.38088	-2.344826E-009	0.0006543	6
	46	202	7.512019	32353.5	-113874.1	1	118381	-74.13928	-2.640622E-009	0.0006759	6
	47	205	5.978954	42914.6	-137079.5	1	143640	-72.61655	-2.918102E-009	0.0006538	6
	48	209	4.734848	56986.83	-164255.8	1	173860.5	-70.86632	-4.020979E-009	0.0006246	6
	49	212	3.75601	74934.82	-194783.1	1	208700	-68.95782	-3.251629E-009	0.0007043	6
	50	218	3.004808	95502.8	-227303	1	246551.1	-67.20998	-3.655277E-009	0.0006846	6
	51	224	2.372217	120668.6	-265393.1	1	291538	-65.54971	-3.831053E-009	0.000625	6
	52	229	1.878005	148220.4	-306306.2	1	340283.3	-64.17783	-3.621782E-009	0.0006899	6
	53	233	1.512097	174733.8	-349252.8	1	390524.5	-63.42085	-3.712278E-009	0.0005919	6
	54	239	1.201923	203103.8	-403690.4	1	451903.8	-63.29222	-4.047948E-010	0.0007048	5
	55	245	0.956633	231026.5	-469065.4	1	522872.5	-63.77859	-5.64754E-010	2.744483E-005	5
