EXPLAIN
TAG	EISPOT
TITLE	LABEL	Potentiostatic EIS	Test Identifier
DATE	LABEL	2/27/2021	Date
TIME	LABEL	19:11:35	Time
NOTES	NOTES	1	Notes...
	
PSTAT	PSTAT	REF3000-16137	Potentiostat
VDC	POTEN	0.00000E+000	T	DC Voltage (V)
FREQINIT	QUANT	3.00000E+005	Initial Freq. (Hz)
FREQFINAL	QUANT	1.00000E+000	Final Freq. (Hz)
PTSPERDEC	QUANT	1.00000E+001	Points/decade
VAC	QUANT	5.00000E+001	AC Voltage (mV rms)
AREA	QUANT	1.00000E+000	Sample Area (cm^2)
SPEED	SELECTOR	2	Optimize for:
ZGUESS	QUANT	1.00000E+003	Estimated Z (ohms)
EOC	QUANT	0	Open Circuit (V)
SEQUENCER	TOGGLE	TRUE	Run as Sequence
PSTATMODEL	IQUANT	5	Pstat Model
PSTATSECTION	LABEL	REF3000-16137	Pstat Section
PSTATSERIALNO	LABEL	16137	Pstat Serial Number
CTRLMODE	IQUANT	1	Control Mode
IESTAB	IQUANT	0	I/E Stability
CASPEED	IQUANT	1	Control Amp Speed
CONVENTION	IQUANT	1	Current Convention
ICHRANGE	IQUANT	2	Ich Range
ICHRANGEMODE	TOGGLE	F	Ich Auto Range
ICHOFFSETENABLE	TOGGLE	T	Ich Offset Enable
ICHOFFSET	QUANT	0	Ich Offset (V)
ICHFILTER	IQUANT	3	Ich Filter
VCHRANGE	IQUANT	2	Vch Range
VCHRANGEMODE	TOGGLE	F	Vch Auto Range
VCHOFFSETENABLE	TOGGLE	T	Vch Offset Enable
VCHOFFSET	QUANT	0	Vch Offset (V)
VCHFILTER	IQUANT	3	Vch Filter
ACHRANGE	IQUANT	2	Ach Range
ACHOFFSETENABLE	TOGGLE	F	Ach Offset Enable
ACHOFFSET	QUANT	0	Ach Offset (V)
ACHFILTER	IQUANT	3	Ach Filter
IERANGELOWERLIMIT	IQUANT	2	I/E Range Lower Limit
IERANGEMODE	TOGGLE	F	I/E AutoRange
IERANGE	IQUANT	11	I/E Range
POSFEEDENABLE	TOGGLE	F	Positive Feedback IR Comp
POSFEEDRESISTANCE	QUANT	0	Positive Feedback Resistance (ohm)
ACHSELECT	IQUANT	0	Ach Select
CABLEID	IQUANT	13	Cable ID
DCCALDATE	LABEL	7/31/2020	DC Calibration Date
ACCALDATE	LABEL	7/31/2020	AC Calibration Date
THERMOSELECT	IQUANT	1	Thermo Select
FRAMEWORKVERSION	QUANT	6.33	Framework Version
INSTRUMENTVERSION	LABEL	3.50	Instrument Version
COMPLIANCEVOLTAGE	IQUANT	0	Compliance Voltage
ZCURVE	TABLE
	Pt	Time	Freq	Zreal	Zimag	Zsig	Zmod	Zphz	Idc	Vdc	IERange
	#	s	Hz	ohm	ohm	V	ohm	°	A	V	#
	0	7	300046.9	70.36062	-7.906022	1	70.80341	-6.411108	6.888466E-005	-0.0024003	9
	1	10	238359.4	71.90337	-10.46367	1	72.66074	-8.279793	5.890557E-005	-0.00186	9
	2	13	189328.1	73.51061	-13.25002	1	74.69521	-10.21765	-6.50143E-005	0.0025718	9
	3	15	150421.9	75.4539	-16.17661	1	77.16847	-12.10051	-6.978976E-005	0.0025456	9
	4	18	119484.4	77.50002	-19.48532	1	79.91202	-14.11297	1.538012E-005	0.0007053	9
	5	21	94921.88	79.92753	-23.02571	1	83.17808	-16.07076	1.688238E-005	-0.0006299	9
	6	23	75421.88	82.47073	-27.33039	1	86.88137	-18.33494	2.317889E-005	-0.0005632	9
	7	26	59859.37	85.38075	-32.41953	1	91.32852	-20.79204	3.708448E-006	0.0003525	9
	8	28	47578.12	88.48581	-38.09208	1	96.3366	-23.2913	-1.583434E-005	0.0004435	9
	9	31	37828.12	91.77525	-44.90707	1	102.1731	-26.07323	2.065875E-005	-0.0005796	9
	10	33	30046.88	95.381	-53.04637	1	109.1396	-29.08073	-1.409241E-005	0.0002251	9
	11	36	23859.38	99.2084	-62.7217	1	117.3725	-32.30198	-1.603354E-005	0.0004537	9
	12	38	18984.38	103.1693	-74.6703	1	127.3561	-35.89569	1.087498E-005	-0.0005429	9
	13	40	15046.87	107.4431	-89.9212	1	140.1065	-39.92662	-1.874902E-005	0.000496	9
	14	43	11953.13	112.1628	-107.7537	1	155.5357	-43.85144	4.374565E-006	0.0004265	9
	15	45	9515.62	117.3752	-130.3644	1	175.419	-48.00131	2.443911E-005	-0.0004414	9
	16	47	7546.875	123.5899	-158.1903	1	200.7452	-52.00044	-1.568162E-005	0.0008609	9
	17	50	5928.309	131.3314	-195.3475	1	235.3902	-56.0872	2.366276E-005	-0.0004516	9
	18	52	4733.456	139.1904	-237.9436	1	275.6649	-59.67355	3.765398E-006	0.0004211	9
	19	54	3796.875	149.7808	-287.1487	1	323.8652	-62.45282	-1.831937E-005	0.0005378	9
	20	57	2987.132	161.8111	-355.4745	1	390.57	-65.52509	-1.572682E-005	0.0003903	9
	21	59	2390.625	175.7712	-431.2819	1	465.7248	-67.82639	4.191253E-006	-0.0011788	8
	22	61	1884.191	193.446	-533.6457	1	567.6259	-70.07447	4.836355E-006	5.02685E-005	8
	23	64	1516.544	214.7246	-649.0149	1	683.6132	-71.69336	4.667884E-006	9.458017E-005	8
	24	66	1193.986	241.9354	-803.5174	1	839.1501	-73.24319	3.223679E-006	0.000728	8
	25	68	946.5144	277.1944	-989.107	1	1027.214	-74.34462	3.227712E-006	0.0007897	8
	26	71	751.7689	323.0333	-1216.032	1	1258.207	-75.12323	6.168769E-006	-0.0008561	8
	27	73	597.4265	380.4022	-1491.058	1	1538.818	-75.68787	-3.497896E-006	0.0024917	8
	28	75	477.4305	450.7453	-1820.996	1	1875.953	-76.09721	3.604115E-007	0.0006634	8
	29	78	376.6741	546.3087	-2244.931	1	2310.447	-76.3228	3.683616E-007	0.000661	8
	30	80	298.2954	666.387	-2753.785	1	2833.267	-76.39653	3.537448E-007	0.0006589	8
	31	82	237.7717	814.4484	-3354.38	1	3451.838	-76.35259	3.664196E-007	0.0006538	8
	32	85	189.0121	1000.334	-4085.468	1	4206.153	-76.24171	3.506613E-007	0.0006616	8
	33	87	150.2404	1232.964	-4976.668	1	5127.126	-76.08521	3.315346E-008	0.0006317	7
	34	90	119.1737	1512.811	-6047.434	1	6233.783	-75.95526	3.48536E-008	0.0006322	7
	35	92	95.0169	1836.288	-7314.104	1	7541.092	-75.90655	3.221443E-008	0.0006324	7
	36	94	75.60484	2220.707	-8861.909	1	9135.917	-75.93194	3.356558E-008	0.0006285	7
	37	97	54.50582	2881.329	-11667.61	1	12018.12	-76.12829	3.262031E-008	0.0006299	7
	38	100	45.95588	3305.938	-13487.08	1	13886.35	-76.22727	3.377039E-008	0.0006324	7
	39	102	37.20238	3916.11	-16155.8	1	16623.65	-76.3745	3.126189E-008	0.0006486	7
	40	104	30.04808	4624.447	-19386.34	1	19930.27	-76.58331	3.189375E-008	0.0006274	7
	41	107	23.91582	5536.848	-23604.29	1	24244.98	-76.79882	3.203984E-008	0.0006276	7
	42	109	18.60119	6787.229	-29323.49	1	30098.73	-76.96779	2.974547E-008	0.0006353	7
	43	111	15.02404	8058.356	-35315.24	1	36222.96	-77.14612	3.473459E-008	0.0006402	7
	44	114	12.01923	9726.97	-42912.84	1	44001.43	-77.22868	2.340949E-009	0.0006804	6
	45	116	9.450605	11932.85	-52884.93	1	54214.46	-77.28483	3.460325E-009	0.0006944	6
	46	119	7.512019	14578.99	-64657.32	1	66280.58	-77.2934	3.211419E-009	0.0006761	6
	47	122	5.978954	17867.31	-78870.83	1	80869.33	-77.23572	3.583135E-009	0.0006774	6
	48	126	4.734848	22164.33	-96705.8	1	99213.3	-77.09114	3.764074E-009	0.0006689	6
	49	129	3.75601	27421.01	-118181.9	1	121321.4	-76.93716	3.301123E-009	0.0006712	6
	50	135	3.004808	33835.18	-143177.2	1	147120.8	-76.70397	3.712242E-009	0.0006406	6
	51	141	2.372217	41946.43	-175087.5	1	180042	-76.52734	3.106925E-009	0.0006351	6
	52	145	1.878005	52651.79	-213639	1	220031.4	-76.15524	2.804916E-009	0.0006771	6
	53	150	1.512097	64764.99	-256898.3	1	264936.3	-75.85038	2.97182E-009	0.0005674	6
	54	155	1.201923	80706.31	-312546	1	322798	-75.52124	2.887743E-009	0.0006962	6
	55	162	0.956633	100211.5	-378879.4	1	391908.1	-75.18484	2.639675E-009	3.526298E-005	6
