EXPLAIN
TAG	EISPOT
TITLE	LABEL	Potentiostatic EIS	Test Identifier
DATE	LABEL	2/27/2021	Date
TIME	LABEL	19:05:52	Time
NOTES	NOTES	1	Notes...
	
PSTAT	PSTAT	REF3000-16137	Potentiostat
VDC	POTEN	0.00000E+000	T	DC Voltage (V)
FREQINIT	QUANT	3.00000E+005	Initial Freq. (Hz)
FREQFINAL	QUANT	1.00000E+000	Final Freq. (Hz)
PTSPERDEC	QUANT	1.00000E+001	Points/decade
VAC	QUANT	5.00000E+001	AC Voltage (mV rms)
AREA	QUANT	1.00000E+000	Sample Area (cm^2)
SPEED	SELECTOR	2	Optimize for:
ZGUESS	QUANT	1.00000E+003	Estimated Z (ohms)
EOC	QUANT	0	Open Circuit (V)
SEQUENCER	TOGGLE	TRUE	Run as Sequence
PSTATMODEL	IQUANT	5	Pstat Model
PSTATSECTION	LABEL	REF3000-16137	Pstat Section
PSTATSERIALNO	LABEL	16137	Pstat Serial Number
CTRLMODE	IQUANT	1	Control Mode
IESTAB	IQUANT	0	I/E Stability
CASPEED	IQUANT	1	Control Amp Speed
CONVENTION	IQUANT	1	Current Convention
ICHRANGE	IQUANT	2	Ich Range
ICHRANGEMODE	TOGGLE	F	Ich Auto Range
ICHOFFSETENABLE	TOGGLE	T	Ich Offset Enable
ICHOFFSET	QUANT	0	Ich Offset (V)
ICHFILTER	IQUANT	3	Ich Filter
VCHRANGE	IQUANT	2	Vch Range
VCHRANGEMODE	TOGGLE	F	Vch Auto Range
VCHOFFSETENABLE	TOGGLE	T	Vch Offset Enable
VCHOFFSET	QUANT	0	Vch Offset (V)
VCHFILTER	IQUANT	3	Vch Filter
ACHRANGE	IQUANT	2	Ach Range
ACHOFFSETENABLE	TOGGLE	F	Ach Offset Enable
ACHOFFSET	QUANT	0	Ach Offset (V)
ACHFILTER	IQUANT	3	Ach Filter
IERANGELOWERLIMIT	IQUANT	2	I/E Range Lower Limit
IERANGEMODE	TOGGLE	F	I/E AutoRange
IERANGE	IQUANT	11	I/E Range
POSFEEDENABLE	TOGGLE	F	Positive Feedback IR Comp
POSFEEDRESISTANCE	QUANT	0	Positive Feedback Resistance (ohm)
ACHSELECT	IQUANT	0	Ach Select
CABLEID	IQUANT	13	Cable ID
DCCALDATE	LABEL	7/31/2020	DC Calibration Date
ACCALDATE	LABEL	7/31/2020	AC Calibration Date
THERMOSELECT	IQUANT	1	Thermo Select
FRAMEWORKVERSION	QUANT	6.33	Framework Version
INSTRUMENTVERSION	LABEL	3.50	Instrument Version
COMPLIANCEVOLTAGE	IQUANT	0	Compliance Voltage
ZCURVE	TABLE
	Pt	Time	Freq	Zreal	Zimag	Zsig	Zmod	Zphz	Idc	Vdc	IERange
	#	s	Hz	ohm	ohm	V	ohm	°	A	V	#
	0	7	300046.9	54.77885	-7.089814	1	55.23575	-7.374575	6.513313E-006	-0.001401	9
	1	10	238359.4	55.65881	-9.351408	1	56.43893	-9.53736	-6.150648E-005	0.0014423	9
	2	13	189328.1	56.86258	-11.8568	1	58.0856	-11.77836	-6.965544E-007	0.0006215	9
	3	16	150421.9	58.14019	-14.4096	1	59.89924	-13.91983	6.946324E-006	-0.0006776	9
	4	18	119484.4	59.55589	-17.42422	1	62.05246	-16.30785	-6.473309E-005	0.0023116	9
	5	21	94921.88	61.3287	-20.44468	1	64.64669	-18.43644	-1.640328E-005	0.0005031	9
	6	23	75421.88	62.98616	-24.32912	1	67.52158	-21.11962	1.646581E-005	-0.0001051	9
	7	26	59859.37	64.82588	-28.89756	1	70.9751	-24.02597	2.03567E-005	-0.0005267	9
	8	29	47578.12	66.67072	-34.36234	1	75.00504	-27.26675	3.26036E-006	-0.0003093	9
	9	31	37828.12	68.74041	-40.87708	1	79.97612	-30.7382	-1.523009E-005	0.000414	9
	10	34	30046.88	70.88823	-48.86199	1	86.09666	-34.5778	1.862372E-005	-0.0001334	9
	11	36	23859.38	73.24693	-58.80718	1	93.93294	-38.75966	1.819446E-005	-0.0001144	9
	12	38	18984.38	75.9084	-71.06186	1	103.9802	-43.11128	1.989362E-005	-0.000283	9
	13	41	15046.87	78.91632	-86.51958	1	117.1043	-47.6314	-8.986615E-006	0.000634	9
	14	43	11953.13	82.67092	-105.1497	1	133.757	-51.82482	-1.565349E-005	0.0006654	9
	15	45	9515.62	86.83503	-128.0913	1	154.7504	-55.86606	2.97093E-006	-0.0003221	9
	16	48	7546.875	91.65664	-157.3	1	182.0556	-59.77121	2.125296E-005	-0.0004814	9
	17	50	5928.309	97.5621	-194.5463	1	217.6388	-63.36691	1.771801E-005	-0.0001511	9
	18	52	4733.456	104.8833	-237.736	1	259.844	-66.1941	-1.562638E-005	0.0006847	9
	19	55	3796.875	112.1099	-289.673	1	310.6108	-68.84246	-1.343818E-005	0.0002399	9
	20	57	2987.132	124.1244	-358.5811	1	379.4566	-70.90648	1.903264E-005	-0.0005392	9
	21	59	2390.625	134.472	-439.2277	1	459.3514	-72.97775	-1.342614E-005	0.0006713	9
	22	62	1884.191	152.7148	-540.0981	1	561.2733	-74.21155	-3.518529E-006	0.0018749	8
	23	64	1516.544	171.3474	-656.6195	1	678.6082	-75.3746	-4.691408E-007	0.000262	8
	24	66	1193.986	195.8374	-815.5241	1	838.7084	-76.49685	-2.457649E-006	0.0019492	8
	25	69	946.5144	223.2113	-1008.037	1	1032.454	-77.51436	5.061729E-006	-0.0005297	8
	26	71	751.7689	258.8792	-1241.206	1	1267.916	-78.21867	-3.517664E-007	0.0016086	8
	27	73	597.4265	306.1502	-1525.581	1	1555.997	-78.65273	-3.06522E-006	0.0012098	8
	28	76	477.4305	358.9525	-1866.176	1	1900.385	-79.11233	4.464286E-007	0.000662	8
	29	78	376.6741	428.4745	-2311.559	1	2350.935	-79.49875	4.362642E-007	0.0006636	8
	30	80	298.2954	512.1129	-2853.038	1	2898.635	-79.82392	4.363771E-007	0.0006628	8
	31	83	237.7717	611.3699	-3501.344	1	3554.319	-80.09544	4.574412E-007	0.0006593	8
	32	85	189.0121	732.9336	-4307.284	1	4369.197	-80.34296	4.576547E-007	0.0006624	8
	33	87	150.2404	882.9421	-5310.193	1	5383.097	-80.55962	4.540183E-008	0.0006297	7
	34	90	119.1737	1062.428	-6549.101	1	6634.718	-80.78547	4.455709E-008	0.0006373	7
	35	92	95.0169	1274.574	-8044.628	1	8144.973	-80.99702	4.587402E-008	0.0006292	7
	36	95	75.60484	1534.481	-9903.63	1	10021.8	-81.19256	4.640515E-008	0.0006343	7
	37	97	54.50582	2011.752	-13353	1	13503.69	-81.4323	4.427899E-008	0.0006321	7
	38	100	45.95588	2321.112	-15598.65	1	15770.39	-81.53637	4.615209E-008	0.0006356	7
	39	102	37.20238	2773.595	-18931.53	1	19133.63	-81.66508	4.380727E-008	0.0006314	7
	40	105	30.04808	3324.814	-23008.74	1	23247.72	-81.77755	4.500165E-008	0.0006285	7
	41	107	23.91582	4054.436	-28319.63	1	28608.38	-81.8525	4.571534E-008	0.0006299	7
	42	109	18.60119	5055.692	-35699.94	1	36056.15	-81.93958	4.305301E-008	0.0006589	7
	43	112	15.02404	6165.319	-43463.36	1	43898.46	-81.92641	5.539376E-009	0.0006782	6
	44	114	12.01923	7557.494	-53375.77	1	53908.15	-81.94104	4.935704E-009	0.000672	6
	45	117	9.450605	9487.497	-66568.38	1	67241.07	-81.88869	4.833661E-009	0.0006847	6
	46	119	7.512019	11779.91	-82242.1	1	83081.46	-81.84871	5.17048E-009	0.0006656	6
	47	122	5.978954	14700.71	-101444.8	1	102504.4	-81.75447	5.508481E-009	0.0006786	6
	48	126	4.734848	18640.26	-125809.1	1	127182.5	-81.5722	5.497398E-009	0.0006528	6
	49	130	3.75601	23635.44	-155630.4	1	157414.9	-81.36453	5.316402E-009	0.000694	6
	50	135	3.004808	30026.94	-190979	1	193325.1	-81.06474	5.453388E-009	0.0006454	6
	51	142	2.372217	38925.09	-237383.8	1	240554	-80.68777	5.053578E-009	0.0006014	6
	52	146	1.878005	50720.33	-293576.8	1	297925.9	-80.19795	5.256024E-009	0.0006846	6
	53	151	1.512097	65448.81	-356496.7	1	362454.8	-79.59698	4.984317E-009	0.0006319	6
	54	156	1.201923	86149.14	-439753.5	1	448112.5	-78.91595	8.075821E-010	0.0006826	5
	55	162	0.956633	114132.5	-539480.2	1	551421	-78.05463	4.007573E-010	2.243166E-005	5
