EXPLAIN
TAG	EISPOT
TITLE	LABEL	Potentiostatic EIS	Test Identifier
DATE	LABEL	2/27/2021	Date
TIME	LABEL	20:47:31	Time
NOTES	NOTES	1	Notes...
	
PSTAT	PSTAT	REF3000-16137	Potentiostat
VDC	POTEN	0.00000E+000	T	DC Voltage (V)
FREQINIT	QUANT	3.00000E+005	Initial Freq. (Hz)
FREQFINAL	QUANT	1.00000E+000	Final Freq. (Hz)
PTSPERDEC	QUANT	1.00000E+001	Points/decade
VAC	QUANT	5.00000E+001	AC Voltage (mV rms)
AREA	QUANT	1.00000E+000	Sample Area (cm^2)
SPEED	SELECTOR	2	Optimize for:
ZGUESS	QUANT	1.00000E+003	Estimated Z (ohms)
EOC	QUANT	0	Open Circuit (V)
SEQUENCER	TOGGLE	TRUE	Run as Sequence
PSTATMODEL	IQUANT	5	Pstat Model
PSTATSECTION	LABEL	REF3000-16137	Pstat Section
PSTATSERIALNO	LABEL	16137	Pstat Serial Number
CTRLMODE	IQUANT	1	Control Mode
IESTAB	IQUANT	0	I/E Stability
CASPEED	IQUANT	1	Control Amp Speed
CONVENTION	IQUANT	1	Current Convention
ICHRANGE	IQUANT	2	Ich Range
ICHRANGEMODE	TOGGLE	F	Ich Auto Range
ICHOFFSETENABLE	TOGGLE	T	Ich Offset Enable
ICHOFFSET	QUANT	0	Ich Offset (V)
ICHFILTER	IQUANT	3	Ich Filter
VCHRANGE	IQUANT	2	Vch Range
VCHRANGEMODE	TOGGLE	F	Vch Auto Range
VCHOFFSETENABLE	TOGGLE	T	Vch Offset Enable
VCHOFFSET	QUANT	0	Vch Offset (V)
VCHFILTER	IQUANT	3	Vch Filter
ACHRANGE	IQUANT	2	Ach Range
ACHOFFSETENABLE	TOGGLE	F	Ach Offset Enable
ACHOFFSET	QUANT	0	Ach Offset (V)
ACHFILTER	IQUANT	3	Ach Filter
IERANGELOWERLIMIT	IQUANT	2	I/E Range Lower Limit
IERANGEMODE	TOGGLE	F	I/E AutoRange
IERANGE	IQUANT	11	I/E Range
POSFEEDENABLE	TOGGLE	F	Positive Feedback IR Comp
POSFEEDRESISTANCE	QUANT	0	Positive Feedback Resistance (ohm)
ACHSELECT	IQUANT	0	Ach Select
CABLEID	IQUANT	13	Cable ID
DCCALDATE	LABEL	7/31/2020	DC Calibration Date
ACCALDATE	LABEL	7/31/2020	AC Calibration Date
THERMOSELECT	IQUANT	1	Thermo Select
FRAMEWORKVERSION	QUANT	6.33	Framework Version
INSTRUMENTVERSION	LABEL	3.50	Instrument Version
COMPLIANCEVOLTAGE	IQUANT	0	Compliance Voltage
ZCURVE	TABLE
	Pt	Time	Freq	Zreal	Zimag	Zsig	Zmod	Zphz	Idc	Vdc	IERange
	#	s	Hz	ohm	ohm	V	ohm	°	A	V	#
	0	14	300046.9	-64.7123	-4841.42	1	4841.853	-90.76579	-2.060397E-005	0.0011288	9
	1	28	238359.4	-44.57585	-5982.345	1	5982.511	-90.42692	2.537595E-005	0.0009332	9
	2	42	189328.1	-802.0602	-6948.896	1	6995.03	-96.5841	-1.514414E-005	0.0018067	9
	3	50	150421.9	-318.8914	-8769.063	1	8774.859	-92.08267	2.459331E-005	0.0011306	9
	4	57	119484.4	421.2567	-11575.97	1	11583.63	-87.91589	-4.882193E-006	-0.0150848	8
	5	65	94921.88	385.2167	-14599.15	1	14604.23	-88.48853	2.628295E-005	-0.0050414	8
	6	73	75421.88	110.1938	-17491.94	1	17492.28	-89.63906	1.752842E-005	0.0002958	8
	7	82	59859.37	647.5834	-22910.6	1	22919.75	-88.38093	-2.455333E-005	0.0109927	8
	8	91	47578.12	1092.333	-29923.67	1	29943.6	-87.9094	-8.138818E-007	-0.005149	8
	9	98	37828.12	-2994.997	-37043.03	1	37163.91	-94.62241	-2.061676E-006	0.0077073	8
	10	107	30046.88	4615.703	-46733.46	1	46960.85	-84.35939	-7.258278E-006	0.0236398	7
	11	114	23859.38	4260.03	-58397.05	1	58552.22	-85.8277	2.808864E-006	0.008424	7
	12	120	18984.38	4683.214	-72162.57	1	72314.38	-86.28682	-3.806713E-006	0.0255823	7
	13	125	15046.87	4437.293	-90755.1	1	90863.52	-87.20087	9.437447E-007	-0.01969	7
	14	130	11953.13	2810.663	-118984.1	1	119017.3	-88.6468	7.756134E-006	-0.0186799	7
	15	137	9515.62	3419.204	-144200.5	1	144241	-88.64169	6.949255E-006	-0.0272749	7
	16	142	7546.875	284.2835	-182324.7	1	182324.9	-89.91066	-9.941617E-007	-0.0133625	7
	17	149	5928.309	10992.8	-230668.4	1	230930.2	-87.27156	5.423305E-006	-0.0268736	7
	18	154	4733.456	-281501.2	-508078.2	1	580849.7	-118.9887	-1.904117E-005	0.0002909	9
	19	163	3796.875	17943.72	-334827.5	1	335308	-86.9324	3.236761E-006	-0.0239709	7
	20	170	2987.132	22828.1	-508975.5	1	509487.2	-87.43195	1.327257E-006	-0.0200305	7
	21	177	2390.625	41427.58	-567978	1	569486.8	-85.82831	-6.367456E-007	0.0099634	6
	22	182	1884.191	30079.15	-792364.1	1	792934.8	-87.82603	5.96182E-007	-0.0277517	6
	23	187	1516.544	87601.45	-903845.8	1	908081.1	-84.46414	-4.930561E-007	0.0015624	6
	24	193	1193.986	125990.7	-1122323	1	1129373	-83.59486	2.342507E-009	0.0173232	6
	25	199	946.5144	278451.2	-1615026	1	1638855	-80.21765	-6.560124E-007	0.0103806	6
	26	202	751.7689	347990	-1823640	1	1856545	-79.1966	5.914499E-007	-0.0275806	6
	27	206	597.4265	145087.4	-2475932	1	2480179	-86.64635	-4.888878E-007	0.0012603	6
	28	211	477.4305	81788.5	-2840398	1	2841575	-88.35064	-6.461581E-009	0.0006652	6
	29	216	376.6741	79455.71	-3592895	1	3593774	-88.73313	-6.642727E-009	0.0006978	6
	30	220	298.2954	501776.7	-4632064	1	4659163	-83.81744	-6.698306E-010	0.0006521	5
	31	224	237.7717	539175.1	-5780226	1	5805319	-84.67091	-7.343435E-010	0.0006884	5
	32	227	189.0121	536229.6	-7168334	1	7188363	-85.72194	-7.476571E-010	0.0007097	5
	33	231	150.2404	307889.2	-8991112	1	8996382	-88.03874	-7.38587E-010	0.0007041	5
	34	234	119.1737	988322	-1.02441E+007	1	1.029167E+007	-84.48933	-6.960925E-010	0.0007033	5
	35	237	95.0169	840343.3	-1.458502E+007	1	1.460921E+007	-86.70244	-7.829246E-010	0.0006418	5
	36	240	75.60484	-248976.7	-1.598584E+007	1	1.598778E+007	-90.8923	-6.195057E-010	0.0006082	5
	37	243	54.50582	2103814	-2.424818E+007	1	2.433927E+007	-85.04134	-7.626409E-010	0.0006981	5
	38	246	45.95588	3355920	-2.597035E+007	1	2.618628E+007	-82.63697	-6.824455E-010	0.0007027	5
	39	250	37.20238	6928159	-3.899511E+007	1	3.960578E+007	-79.92553	-6.272847E-010	0.0007077	5
	40	254	30.04808	3914753	-4.580136E+007	1	4.596836E+007	-85.11466	-5.660335E-011	0.0006977	4
	41	258	23.91582	1.602012E+007	-6.100075E+007	1	6.306929E+007	-75.28517	2.869698E-011	0.0006373	4
	42	262	18.60119	-1.22526E+007	-6.301035E+007	1	6.419058E+007	-101.0041	-3.555217E-011	0.0006903	4
	43	265	15.02404	9355724	-9.27933E+007	1	9.326375E+007	-84.24271	-4.0547E-011	0.0006363	4
	44	269	12.01923	1.254271E+007	-1.132144E+008	1	1.139071E+008	-83.67814	-8.367934E-011	0.0006393	4
	45	272	9.450605	1095406	-1.334571E+008	1	1.334616E+008	-89.52973	-8.769992E-011	0.0006958	4
	46	276	7.512019	1.327489E+007	-2.033839E+008	1	2.038167E+008	-86.26559	-4.328106E-011	0.000723	4
	47	281	5.978954	2327912	-2.387446E+008	1	2.387559E+008	-89.44135	-7.607328E-011	0.0006225	4
	48	286	4.734848	5567237	-2.788651E+008	1	2.789206E+008	-88.8563	-7.796507E-010	0.0006648	5
	49	294	3.75601	3454684	-3.411971E+008	1	3.412146E+008	-89.41989	-7.260653E-010	0.0006726	5
	50	302	3.004808	1.535521E+007	-3.691065E+008	1	3.694257E+008	-87.61781	-6.948068E-010	0.0006498	5
	51	311	2.372217	5.611913E+007	-5.620637E+008	1	5.648584E+008	-84.29821	-6.088453E-012	0.0008112	3
	52	318	1.878005	5.997692E+007	-7.032263E+008	1	7.057793E+008	-85.12514	-5.989538E-012	0.00071	3
	53	327	1.512097	6.599733E+007	-8.692794E+008	1	8.717811E+008	-85.65833	-5.825984E-012	0.0007885	3
	54	334	1.201923	6.924365E+007	-1.08953E+009	1	1.091729E+009	-86.36353	-5.829568E-012	0.0007069	3
	55	346	0.956633	7.760459E+007	-1.368327E+009	1	1.370526E+009	-86.75395	-5.766454E-012	9.181265E-005	3
