EXPLAIN
TAG	EISPOT
TITLE	LABEL	Potentiostatic EIS	Test Identifier
DATE	LABEL	2/27/2021	Date
TIME	LABEL	18:28:19	Time
NOTES	NOTES	1	Notes...
	
PSTAT	PSTAT	REF3000-16137	Potentiostat
VDC	POTEN	0.00000E+000	T	DC Voltage (V)
FREQINIT	QUANT	3.00000E+005	Initial Freq. (Hz)
FREQFINAL	QUANT	1.00000E+000	Final Freq. (Hz)
PTSPERDEC	QUANT	1.00000E+001	Points/decade
VAC	QUANT	5.00000E+001	AC Voltage (mV rms)
AREA	QUANT	1.00000E+000	Sample Area (cm^2)
SPEED	SELECTOR	2	Optimize for:
ZGUESS	QUANT	1.00000E+003	Estimated Z (ohms)
EOC	QUANT	0	Open Circuit (V)
SEQUENCER	TOGGLE	TRUE	Run as Sequence
PSTATMODEL	IQUANT	5	Pstat Model
PSTATSECTION	LABEL	REF3000-16137	Pstat Section
PSTATSERIALNO	LABEL	16137	Pstat Serial Number
CTRLMODE	IQUANT	1	Control Mode
IESTAB	IQUANT	0	I/E Stability
CASPEED	IQUANT	1	Control Amp Speed
CONVENTION	IQUANT	1	Current Convention
ICHRANGE	IQUANT	2	Ich Range
ICHRANGEMODE	TOGGLE	F	Ich Auto Range
ICHOFFSETENABLE	TOGGLE	T	Ich Offset Enable
ICHOFFSET	QUANT	0	Ich Offset (V)
ICHFILTER	IQUANT	3	Ich Filter
VCHRANGE	IQUANT	2	Vch Range
VCHRANGEMODE	TOGGLE	F	Vch Auto Range
VCHOFFSETENABLE	TOGGLE	T	Vch Offset Enable
VCHOFFSET	QUANT	0	Vch Offset (V)
VCHFILTER	IQUANT	3	Vch Filter
ACHRANGE	IQUANT	2	Ach Range
ACHOFFSETENABLE	TOGGLE	F	Ach Offset Enable
ACHOFFSET	QUANT	0	Ach Offset (V)
ACHFILTER	IQUANT	3	Ach Filter
IERANGELOWERLIMIT	IQUANT	2	I/E Range Lower Limit
IERANGEMODE	TOGGLE	F	I/E AutoRange
IERANGE	IQUANT	11	I/E Range
POSFEEDENABLE	TOGGLE	F	Positive Feedback IR Comp
POSFEEDRESISTANCE	QUANT	0	Positive Feedback Resistance (ohm)
ACHSELECT	IQUANT	0	Ach Select
CABLEID	IQUANT	13	Cable ID
DCCALDATE	LABEL	7/31/2020	DC Calibration Date
ACCALDATE	LABEL	7/31/2020	AC Calibration Date
THERMOSELECT	IQUANT	1	Thermo Select
FRAMEWORKVERSION	QUANT	6.33	Framework Version
INSTRUMENTVERSION	LABEL	3.50	Instrument Version
COMPLIANCEVOLTAGE	IQUANT	0	Compliance Voltage
ZCURVE	TABLE
	Pt	Time	Freq	Zreal	Zimag	Zsig	Zmod	Zphz	Idc	Vdc	IERange
	#	s	Hz	ohm	ohm	V	ohm	°	A	V	#
	0	7	300046.9	30.75656	-5.428484	1	31.23194	-10.00953	-0.0001197	-0.0005315	11
	1	11	238359.4	31.57112	-6.555753	1	32.24459	-11.73078	-2.570629E-005	0.00036	10
	2	14	189328.1	32.33717	-8.235667	1	33.36943	-14.2884	-2.242547E-005	0.0005179	10
	3	17	150421.9	33.21124	-9.996	1	34.68295	-16.75086	-2.155836E-005	0.0005804	10
	4	19	119484.4	34.23404	-11.94071	1	36.25673	-19.22858	2.090114E-005	0.00063	10
	5	22	94921.88	35.34973	-13.82638	1	37.9575	-21.36201	1.61812E-005	-0.0004036	9
	6	25	75421.88	36.41302	-16.5534	1	39.99903	-24.4466	-1.251169E-005	0.0003733	9
	7	27	59859.37	37.536	-19.7263	1	42.40375	-27.72328	1.841445E-005	-0.0002494	9
	8	30	47578.12	38.79306	-23.54311	1	45.37818	-31.25313	1.911376E-006	-0.0001426	9
	9	32	37828.12	40.10901	-28.24912	1	49.05859	-35.15736	5.28054E-009	0.0004051	9
	10	35	30046.88	41.65437	-34.05025	1	53.80062	-39.26419	-6.196065E-006	0.0004777	9
	11	37	23859.38	43.40412	-41.07801	1	59.76053	-43.42283	2.095613E-006	-0.0001537	9
	12	40	18984.38	45.49402	-49.57806	1	67.28812	-47.45976	2.639657E-007	0.0004117	9
	13	42	15046.87	47.94176	-60.32634	1	77.05634	-51.52559	-1.257999E-005	0.0003989	9
	14	44	11953.13	50.98447	-73.05856	1	89.08968	-55.09045	6.931231E-006	-0.0002746	9
	15	46	9515.62	54.26285	-88.89227	1	104.1455	-58.5987	-1.586199E-006	0.0003574	9
	16	49	7546.875	58.37002	-108.3636	1	123.0842	-61.69089	-1.255148E-005	0.0005321	9
	17	51	5928.309	63.7756	-133.1995	1	147.6802	-64.41501	-1.08335E-006	0.0003857	9
	18	53	4733.456	69.74565	-161.4399	1	175.8616	-66.63457	-1.287474E-005	0.0004404	9
	19	56	3796.875	76.9788	-195.4132	1	210.0287	-68.49911	-4.739225E-006	0.0005258	9
	20	58	2987.132	85.71108	-240.4688	1	255.2873	-70.38224	2.220131E-006	-0.0001692	9
	21	60	2390.625	95.6134	-291.7741	1	307.0408	-71.85621	-1.848119E-007	0.0004098	9
	22	63	1884.191	107.4937	-358.7164	1	374.4761	-73.31852	1.130387E-005	-0.0003443	9
	23	65	1516.544	121.6062	-433.1687	1	449.9146	-74.31864	1.172855E-006	0.0001889	8
	24	67	1193.986	139.7588	-534.4678	1	552.4386	-75.34576	2.718315E-006	-0.0001016	8
	25	70	946.5144	160.2978	-655.8339	1	675.1396	-76.26514	-7.114805E-007	0.0013454	8
	26	72	751.7689	186.6933	-804.2924	1	825.6758	-76.93185	2.737012E-006	-0.0001249	8
	27	74	597.4265	217.7404	-987.246	1	1010.973	-77.56235	-7.798488E-007	0.000735	8
	28	77	477.4305	253.805	-1205.792	1	1232.214	-78.11343	5.724869E-007	0.0006697	8
	29	79	376.6741	300.8351	-1490.198	1	1520.261	-78.58676	5.524536E-007	0.0006851	8
	30	81	298.2954	357.6526	-1836.35	1	1870.855	-78.97888	5.595535E-007	0.0006748	8
	31	84	237.7717	424.9418	-2250.452	1	2290.221	-79.30702	5.543852E-007	0.0006807	8
	32	86	189.0121	508.0025	-2765.262	1	2811.537	-79.59034	5.714974E-007	0.000669	8
	33	88	150.2404	610.1755	-3400.355	1	3454.667	-79.82685	5.758691E-007	0.0006622	8
	34	91	119.1737	736.9452	-4189.185	1	4253.511	-80.02283	5.787455E-007	0.0006645	8
	35	93	95.0169	892.7617	-5149.408	1	5226.225	-80.1643	6.104929E-008	0.000636	7
	36	96	75.60484	1083.825	-6329.038	1	6421.168	-80.28256	5.907657E-008	0.0006393	7
	37	98	54.50582	1437.332	-8501.062	1	8621.715	-80.40337	6.29846E-008	0.0006382	7
	38	101	45.95588	1676.177	-9926.68	1	10067.2	-80.41568	6.376438E-008	0.0006454	7
	39	103	37.20238	2025.007	-12000.05	1	12169.71	-80.42159	6.025418E-008	0.0006428	7
	40	105	30.04808	2482.348	-14581.65	1	14791.43	-80.33871	5.909006E-008	0.0006516	7
	41	108	23.91582	3065.739	-17883.12	1	18144	-80.27223	5.859553E-008	0.0006477	7
	42	110	18.60119	3903.86	-22441.25	1	22778.28	-80.13163	5.900413E-008	0.0006457	7
	43	113	15.02404	4820.973	-27200.21	1	27624.15	-79.94926	6.198341E-008	0.0006475	7
	44	115	12.01923	6054.766	-33249.02	1	33795.82	-79.67932	5.954594E-008	0.0006414	7
	45	117	9.450605	7772.181	-41282.18	1	42007.44	-79.33775	6.023461E-008	0.0006564	7
	46	120	7.512019	9918.38	-50598.99	1	51561.93	-78.90954	9.76023E-009	0.0007117	6
	47	123	5.978954	12687.29	-61988.66	1	63273.7	-78.43296	9.354292E-009	0.0006952	6
	48	127	4.734848	16467.02	-76188.29	1	77947.54	-77.80392	9.665157E-009	0.0007113	6
	49	131	3.75601	21372.65	-93370.3	1	95785.2	-77.10699	9.896692E-009	0.0007027	6
	50	136	3.004808	27666.41	-113340.8	1	116668.6	-76.28239	9.4773E-009	0.0007306	6
	51	142	2.372217	36522.02	-138748.4	1	143474.7	-75.25285	9.368751E-009	0.0007428	6
	52	147	1.878005	48692.23	-168875.8	1	175755.5	-73.91606	9.37606E-009	0.0006708	6
	53	151	1.512097	63251.21	-202092.2	1	211759.3	-72.62083	9.303381E-009	0.0007908	6
	54	162	1.201923	83753.85	-243526.1	1	257526	-71.02081	9.597342E-009	0.0006733	6
	55	175	0.956633	110410.8	-291008.4	1	311249.8	-69.22288	8.133138E-009	5.171416E-005	6
