EXPLAIN
TAG	EISPOT
TITLE	LABEL	Potentiostatic EIS	Test Identifier
DATE	LABEL	2/27/2021	Date
TIME	LABEL	18:37:18	Time
NOTES	NOTES	1	Notes...
	
PSTAT	PSTAT	REF3000-16137	Potentiostat
VDC	POTEN	0.00000E+000	T	DC Voltage (V)
FREQINIT	QUANT	3.00000E+005	Initial Freq. (Hz)
FREQFINAL	QUANT	1.00000E+000	Final Freq. (Hz)
PTSPERDEC	QUANT	1.00000E+001	Points/decade
VAC	QUANT	5.00000E+001	AC Voltage (mV rms)
AREA	QUANT	1.00000E+000	Sample Area (cm^2)
SPEED	SELECTOR	2	Optimize for:
ZGUESS	QUANT	1.00000E+003	Estimated Z (ohms)
EOC	QUANT	0	Open Circuit (V)
SEQUENCER	TOGGLE	TRUE	Run as Sequence
PSTATMODEL	IQUANT	5	Pstat Model
PSTATSECTION	LABEL	REF3000-16137	Pstat Section
PSTATSERIALNO	LABEL	16137	Pstat Serial Number
CTRLMODE	IQUANT	1	Control Mode
IESTAB	IQUANT	0	I/E Stability
CASPEED	IQUANT	1	Control Amp Speed
CONVENTION	IQUANT	1	Current Convention
ICHRANGE	IQUANT	2	Ich Range
ICHRANGEMODE	TOGGLE	F	Ich Auto Range
ICHOFFSETENABLE	TOGGLE	T	Ich Offset Enable
ICHOFFSET	QUANT	0	Ich Offset (V)
ICHFILTER	IQUANT	3	Ich Filter
VCHRANGE	IQUANT	2	Vch Range
VCHRANGEMODE	TOGGLE	F	Vch Auto Range
VCHOFFSETENABLE	TOGGLE	T	Vch Offset Enable
VCHOFFSET	QUANT	0	Vch Offset (V)
VCHFILTER	IQUANT	3	Vch Filter
ACHRANGE	IQUANT	2	Ach Range
ACHOFFSETENABLE	TOGGLE	F	Ach Offset Enable
ACHOFFSET	QUANT	0	Ach Offset (V)
ACHFILTER	IQUANT	3	Ach Filter
IERANGELOWERLIMIT	IQUANT	2	I/E Range Lower Limit
IERANGEMODE	TOGGLE	F	I/E AutoRange
IERANGE	IQUANT	11	I/E Range
POSFEEDENABLE	TOGGLE	F	Positive Feedback IR Comp
POSFEEDRESISTANCE	QUANT	0	Positive Feedback Resistance (ohm)
ACHSELECT	IQUANT	0	Ach Select
CABLEID	IQUANT	13	Cable ID
DCCALDATE	LABEL	7/31/2020	DC Calibration Date
ACCALDATE	LABEL	7/31/2020	AC Calibration Date
THERMOSELECT	IQUANT	1	Thermo Select
FRAMEWORKVERSION	QUANT	6.33	Framework Version
INSTRUMENTVERSION	LABEL	3.50	Instrument Version
COMPLIANCEVOLTAGE	IQUANT	0	Compliance Voltage
ZCURVE	TABLE
	Pt	Time	Freq	Zreal	Zimag	Zsig	Zmod	Zphz	Idc	Vdc	IERange
	#	s	Hz	ohm	ohm	V	ohm	°	A	V	#
	0	7	300046.9	33.50642	-6.060613	1	34.05013	-10.25276	2.058161E-005	0.0001566	11
	1	11	238359.4	34.37276	-7.203307	1	35.11943	-11.83587	-5.53366E-005	0.0006088	10
	2	14	189328.1	35.19389	-8.941516	1	36.31199	-14.25521	7.642168E-007	0.0003852	10
	3	17	150421.9	36.2628	-10.53438	1	37.76194	-16.19864	4.428105E-005	-0.0011939	9
	4	19	119484.4	37.26784	-12.69938	1	39.37215	-18.81704	4.363863E-006	0.0003899	9
	5	22	94921.88	38.43283	-15.05668	1	41.27694	-21.39356	-1.267733E-005	0.0004395	9
	6	24	75421.88	39.57003	-17.89747	1	43.42933	-24.33717	-9.253815E-006	0.0005747	9
	7	27	59859.37	40.81298	-21.37854	1	46.07322	-27.64632	-8.101879E-006	0.0001683	9
	8	29	47578.12	42.14533	-25.56742	1	49.29424	-31.24304	7.301651E-006	-0.0002956	9
	9	32	37828.12	43.56274	-30.67815	1	53.28096	-35.15433	1.313369E-005	-0.0003727	9
	10	34	30046.88	45.2354	-36.95923	1	58.41426	-39.25027	4.323437E-006	0.000212	9
	11	37	23859.38	47.09932	-44.59945	1	64.86491	-43.4384	7.598364E-006	-0.0002963	9
	12	39	18984.38	49.35273	-53.83458	1	73.03324	-47.48703	-1.164804E-005	0.0006029	9
	13	42	15046.87	51.85925	-65.57508	1	83.60307	-51.66172	-1.145009E-005	0.0005558	9
	14	44	11953.13	55.1733	-79.63587	1	96.8812	-55.28502	1.509002E-005	-0.0001467	9
	15	46	9515.62	58.98758	-96.5172	1	113.1154	-58.56834	-1.3324E-005	0.0005743	9
	16	48	7546.875	63.612	-117.7614	1	133.844	-61.62309	-9.085981E-006	0.0006116	9
	17	51	5928.309	69.1383	-145.2554	1	160.8703	-64.54661	-1.017886E-006	0.000421	9
	18	53	4733.456	75.5177	-176.4111	1	191.8953	-66.8253	-9.655152E-006	0.0005744	9
	19	55	3796.875	84.07034	-212.5429	1	228.5657	-68.41895	-1.194747E-005	0.0003356	9
	20	58	2987.132	93.14594	-263.1087	1	279.1099	-70.50498	1.833031E-005	-0.000244	9
	21	60	2390.625	104.1687	-319.4347	1	335.9905	-71.93867	1.189448E-005	6.234102E-005	9
	22	62	1884.191	119.5934	-393.7253	1	411.4878	-73.10393	-1.195088E-005	0.0005697	9
	23	65	1516.544	133.7761	-472.7698	1	491.3322	-74.20048	-2.315741E-006	0.0014615	8
	24	67	1193.986	154.4989	-582.8081	1	602.9388	-75.15275	-2.425183E-006	0.0014047	8
	25	69	946.5144	178.3118	-714.8652	1	736.7681	-75.99428	7.308958E-007	0.0009863	8
	26	72	751.7689	208.2568	-875.3622	1	899.7944	-76.61758	9.479385E-008	0.0004671	8
	27	74	597.4265	239.1675	-1072.517	1	1098.861	-77.42893	2.829284E-006	0.0003175	8
	28	76	477.4305	280.7408	-1308.478	1	1338.256	-77.89047	5.507786E-007	0.0006804	8
	29	79	376.6741	331.3073	-1615.614	1	1649.234	-78.41125	5.562032E-007	0.0006723	8
	30	81	298.2954	391.1475	-1989.677	1	2027.76	-78.87814	5.500053E-007	0.0006784	8
	31	83	237.7717	461.4334	-2438.039	1	2481.321	-79.28273	5.552055E-007	0.000675	8
	32	86	189.0121	547.4197	-2997.231	1	3046.812	-79.64948	5.520611E-007	0.0006796	8
	33	88	150.2404	652.0026	-3686.777	1	3743.986	-79.971	5.636975E-007	0.0006683	8
	34	91	119.1737	784.7004	-4555.37	1	4622.461	-80.22624	5.892599E-008	0.0006503	7
	35	93	95.0169	939.6556	-5593.744	1	5672.118	-80.46429	5.731132E-008	0.0006535	7
	36	96	75.60484	1132.926	-6882.825	1	6975.443	-80.65282	5.742728E-008	0.0006462	7
	37	98	54.50582	1494.061	-9267.907	1	9387.563	-80.84225	5.856065E-008	0.0006553	7
	38	101	45.95588	1731.519	-10820.91	1	10958.57	-80.90883	5.930806E-008	0.000665	7
	39	103	37.20238	2089.222	-13109.42	1	13274.86	-80.94504	5.627943E-008	0.0006629	7
	40	105	30.04808	2542.541	-15954.24	1	16155.57	-80.94523	5.48894E-008	0.0006626	7
	41	108	23.91582	3132.627	-19602.14	1	19850.87	-80.92031	5.785174E-008	0.0006532	7
	42	110	18.60119	3970.038	-24634.57	1	24952.42	-80.84509	5.728922E-008	0.0006583	7
	43	112	15.02404	4876.568	-29911.22	1	30306.14	-80.74026	6.101254E-008	0.0006531	7
	44	115	12.01923	6121.03	-36642.39	1	37150.12	-80.51643	5.953552E-008	0.0006496	7
	45	117	9.450605	7798.899	-45553.91	1	46216.68	-80.28506	8.081863E-009	0.0006811	6
	46	120	7.512019	9875.79	-56028.8	1	56892.51	-80.00356	7.617098E-009	0.00068	6
	47	123	5.978954	12566.85	-68791.3	1	69929.73	-79.64732	8.206014E-009	0.0006992	6
	48	127	4.734848	16244.25	-84882.26	1	86422.64	-79.16608	8.284829E-009	0.0006806	6
	49	130	3.75601	20993.32	-104315.9	1	106407.4	-78.62136	8.192682E-009	0.0007075	6
	50	136	3.004808	27089.25	-127131.8	1	129985.9	-77.97131	8.249731E-009	0.0006665	6
	51	142	2.372217	35722.55	-156663.9	1	160685	-77.15501	7.676544E-009	0.0006211	6
	52	147	1.878005	47326.73	-191752.6	1	197506.7	-76.13583	7.617808E-009	0.0007014	6
	53	151	1.512097	61714.23	-230589	1	238704.7	-75.01667	7.636058E-009	0.0005957	6
	54	157	1.201923	81703.69	-280068.3	1	291742.6	-73.73657	7.528651E-009	0.0007119	6
	55	163	0.956633	108132.1	-337373.7	1	354278.9	-72.22876	7.085373E-009	4.607294E-005	6
