EXPLAIN
TAG	EISPOT
TITLE	LABEL	Potentiostatic EIS	Test Identifier
DATE	LABEL	2/27/2021	Date
TIME	LABEL	19:00:10	Time
NOTES	NOTES	1	Notes...
	
PSTAT	PSTAT	REF3000-16137	Potentiostat
VDC	POTEN	0.00000E+000	T	DC Voltage (V)
FREQINIT	QUANT	3.00000E+005	Initial Freq. (Hz)
FREQFINAL	QUANT	1.00000E+000	Final Freq. (Hz)
PTSPERDEC	QUANT	1.00000E+001	Points/decade
VAC	QUANT	5.00000E+001	AC Voltage (mV rms)
AREA	QUANT	1.00000E+000	Sample Area (cm^2)
SPEED	SELECTOR	2	Optimize for:
ZGUESS	QUANT	1.00000E+003	Estimated Z (ohms)
EOC	QUANT	0	Open Circuit (V)
SEQUENCER	TOGGLE	TRUE	Run as Sequence
PSTATMODEL	IQUANT	5	Pstat Model
PSTATSECTION	LABEL	REF3000-16137	Pstat Section
PSTATSERIALNO	LABEL	16137	Pstat Serial Number
CTRLMODE	IQUANT	1	Control Mode
IESTAB	IQUANT	0	I/E Stability
CASPEED	IQUANT	1	Control Amp Speed
CONVENTION	IQUANT	1	Current Convention
ICHRANGE	IQUANT	2	Ich Range
ICHRANGEMODE	TOGGLE	F	Ich Auto Range
ICHOFFSETENABLE	TOGGLE	T	Ich Offset Enable
ICHOFFSET	QUANT	0	Ich Offset (V)
ICHFILTER	IQUANT	3	Ich Filter
VCHRANGE	IQUANT	2	Vch Range
VCHRANGEMODE	TOGGLE	F	Vch Auto Range
VCHOFFSETENABLE	TOGGLE	T	Vch Offset Enable
VCHOFFSET	QUANT	0	Vch Offset (V)
VCHFILTER	IQUANT	3	Vch Filter
ACHRANGE	IQUANT	2	Ach Range
ACHOFFSETENABLE	TOGGLE	F	Ach Offset Enable
ACHOFFSET	QUANT	0	Ach Offset (V)
ACHFILTER	IQUANT	3	Ach Filter
IERANGELOWERLIMIT	IQUANT	2	I/E Range Lower Limit
IERANGEMODE	TOGGLE	F	I/E AutoRange
IERANGE	IQUANT	11	I/E Range
POSFEEDENABLE	TOGGLE	F	Positive Feedback IR Comp
POSFEEDRESISTANCE	QUANT	0	Positive Feedback Resistance (ohm)
ACHSELECT	IQUANT	0	Ach Select
CABLEID	IQUANT	13	Cable ID
DCCALDATE	LABEL	7/31/2020	DC Calibration Date
ACCALDATE	LABEL	7/31/2020	AC Calibration Date
THERMOSELECT	IQUANT	1	Thermo Select
FRAMEWORKVERSION	QUANT	6.33	Framework Version
INSTRUMENTVERSION	LABEL	3.50	Instrument Version
COMPLIANCEVOLTAGE	IQUANT	0	Compliance Voltage
ZCURVE	TABLE
	Pt	Time	Freq	Zreal	Zimag	Zsig	Zmod	Zphz	Idc	Vdc	IERange
	#	s	Hz	ohm	ohm	V	ohm	°	A	V	#
	0	6	300046.9	48.15829	-6.441838	1	48.58722	-7.618878	-2.735455E-005	-0.0003909	9
	1	9	238359.4	48.99081	-8.610065	1	49.74166	-9.96785	-2.836872E-005	-0.0003289	9
	2	13	189328.1	50.07307	-11.11779	1	51.29247	-12.51838	-5.758072E-006	0.0005745	9
	3	15	150421.9	51.20124	-13.44343	1	52.93669	-14.71156	7.779827E-006	-0.0006508	9
	4	18	119484.4	52.6778	-16.16144	1	55.1012	-17.0559	5.747053E-005	-0.0019514	9
	5	20	94921.88	54.15104	-19.06594	1	57.40945	-19.39656	2.077053E-005	-0.0003141	9
	6	23	75421.88	55.68371	-22.67954	1	60.12518	-22.16068	-9.166833E-006	0.0001026	9
	7	25	59859.37	57.25095	-27.04575	1	63.31781	-25.28638	-1.550811E-005	0.0004334	9
	8	28	47578.12	59.02176	-32.17236	1	67.22074	-28.5945	2.020914E-005	-0.0004195	9
	9	30	37828.12	60.82745	-38.3442	1	71.9045	-32.22637	-1.522884E-005	0.000504	9
	10	33	30046.88	62.79983	-46.12899	1	77.92113	-36.29877	-1.630664E-005	0.0004785	9
	11	35	23859.38	65.07021	-55.54067	1	85.55056	-40.48241	1.756326E-005	-0.000509	9
	12	38	18984.38	67.51169	-67.12151	1	95.2004	-44.83395	-9.851155E-006	0.0006794	9
	13	40	15046.87	70.51566	-81.77747	1	107.9815	-49.22923	-1.752045E-005	0.0006865	9
	14	42	11953.13	74.00836	-99.5362	1	124.0351	-53.36802	-6.250977E-006	3.359907E-005	9
	15	45	9515.62	77.827	-121.4596	1	144.2549	-57.34969	-1.451913E-006	0.0005309	9
	16	47	7546.875	82.35869	-148.9889	1	170.237	-61.06688	9.57719E-006	-0.0004292	9
	17	49	5928.309	89.0251	-184.0686	1	204.4669	-64.18919	1.4269E-005	-0.0005069	9
	18	52	4733.456	95.6876	-224.8139	1	244.3305	-66.94394	1.981151E-005	-0.0002716	9
	19	54	3796.875	104.5389	-272.8271	1	292.1695	-69.03471	-1.558251E-005	0.000625	9
	20	56	2987.132	114.9839	-337.868	1	356.8979	-71.20543	-1.43827E-005	0.0004257	9
	21	59	2390.625	125.0911	-414.3057	1	432.7782	-73.19939	-8.614494E-006	0.0006065	9
	22	61	1884.191	142.5305	-509.4465	1	529.0092	-74.36969	2.235596E-006	-0.0003558	8
	23	63	1516.544	161.0816	-618.5842	1	639.2134	-75.40412	3.89918E-006	-0.0005629	8
	24	65	1193.986	185.6899	-766.658	1	788.8252	-76.38477	2.151963E-006	-0.0003417	8
	25	68	946.5144	217.6454	-944.6643	1	969.412	-77.02577	-1.5496E-006	0.0007651	8
	26	70	751.7689	252.1629	-1162.422	1	1189.459	-77.76054	-3.205435E-006	0.0016305	8
	27	73	597.4265	298.0193	-1427.204	1	1457.987	-78.20535	-2.821708E-006	0.0011953	8
	28	75	477.4305	346.3417	-1746.004	1	1780.023	-78.78031	4.718261E-007	0.0006655	8
	29	77	376.6741	414.0113	-2159.553	1	2198.88	-79.14742	4.649771E-007	0.0006611	8
	30	80	298.2954	495.2292	-2662.053	1	2707.726	-79.46158	4.768079E-007	0.0006597	8
	31	82	237.7717	590.8737	-3262.353	1	3315.43	-79.73394	4.766518E-007	0.0006632	8
	32	84	189.0121	707.4063	-4008.555	1	4070.496	-79.99182	4.711409E-007	0.0006621	8
	33	87	150.2404	850.7022	-4937.739	1	5010.485	-80.22472	4.704789E-008	0.0006378	7
	34	89	119.1737	1022.094	-6085.679	1	6170.913	-80.46611	4.743218E-008	0.0006413	7
	35	92	95.0169	1223.523	-7468.804	1	7568.358	-80.69656	4.737792E-008	0.0006376	7
	36	94	75.60484	1469.354	-9187.896	1	9304.646	-80.91404	4.902316E-008	0.0006326	7
	37	97	54.50582	1918.587	-12369.1	1	12517.01	-81.18304	5.001258E-008	0.0006337	7
	38	99	45.95588	2213.666	-14457.43	1	14625.92	-81.2947	4.849358E-008	0.0006457	7
	39	102	37.20238	2646.284	-17526.71	1	17725.37	-81.41401	4.640601E-008	0.0006372	7
	40	104	30.04808	3163.68	-21310.85	1	21544.4	-81.55589	4.724522E-008	0.0006367	7
	41	106	23.91582	3843.124	-26218.9	1	26499.06	-81.66106	5.095929E-008	0.0006367	7
	42	109	18.60119	4815.367	-33064.3	1	33413.11	-81.71391	4.873252E-008	0.0006294	7
	43	111	15.02404	5806.067	-40193.43	1	40610.61	-81.7803	4.973907E-008	0.0006432	7
	44	113	12.01923	7155.984	-49372.62	1	49888.52	-81.75307	5.237173E-009	0.0006795	6
	45	116	9.450605	8995.356	-61548.84	1	62202.7	-81.6851	5.474655E-009	0.0006862	6
	46	118	7.512019	11195.45	-76025.99	1	76845.88	-81.62293	6.058237E-009	0.0006954	6
	47	121	5.978954	14078.34	-93768.92	1	94819.88	-81.46146	5.789313E-009	0.0006826	6
	48	126	4.734848	17921.48	-116132.6	1	117507.3	-81.22736	6.350906E-009	0.0007116	6
	49	129	3.75601	22907.3	-143647	1	145462	-80.93937	5.711178E-009	0.0006701	6
	50	134	3.004808	29268.2	-176048.8	1	178465.2	-80.56088	6.002257E-009	0.0006968	6
	51	141	2.372217	38403.43	-218532.7	1	221881.4	-80.033	5.591247E-009	0.0007593	6
	52	145	1.878005	50222.88	-269945.5	1	274577.7	-79.46072	5.368973E-009	0.0006516	6
	53	150	1.512097	65312.78	-327407.9	1	333858.8	-78.71848	5.487443E-009	0.0007351	6
	54	155	1.201923	86289.1	-402183.5	1	411336.1	-77.89068	5.577904E-009	0.0006451	6
	55	161	0.956633	114746.9	-491745.3	1	504955.8	-76.86528	3.924512E-010	1.648482E-005	5
