EXPLAIN
TAG	EISPOT
TITLE	LABEL	Potentiostatic EIS	Test Identifier
DATE	LABEL	2/27/2021	Date
TIME	LABEL	18:25:15	Time
NOTES	NOTES	1	Notes...
	
PSTAT	PSTAT	REF3000-16137	Potentiostat
VDC	POTEN	0.00000E+000	T	DC Voltage (V)
FREQINIT	QUANT	3.00000E+005	Initial Freq. (Hz)
FREQFINAL	QUANT	1.00000E+000	Final Freq. (Hz)
PTSPERDEC	QUANT	1.00000E+001	Points/decade
VAC	QUANT	5.00000E+001	AC Voltage (mV rms)
AREA	QUANT	1.00000E+000	Sample Area (cm^2)
SPEED	SELECTOR	2	Optimize for:
ZGUESS	QUANT	1.00000E+003	Estimated Z (ohms)
EOC	QUANT	0	Open Circuit (V)
SEQUENCER	TOGGLE	TRUE	Run as Sequence
PSTATMODEL	IQUANT	5	Pstat Model
PSTATSECTION	LABEL	REF3000-16137	Pstat Section
PSTATSERIALNO	LABEL	16137	Pstat Serial Number
CTRLMODE	IQUANT	1	Control Mode
IESTAB	IQUANT	0	I/E Stability
CASPEED	IQUANT	1	Control Amp Speed
CONVENTION	IQUANT	1	Current Convention
ICHRANGE	IQUANT	2	Ich Range
ICHRANGEMODE	TOGGLE	F	Ich Auto Range
ICHOFFSETENABLE	TOGGLE	T	Ich Offset Enable
ICHOFFSET	QUANT	0	Ich Offset (V)
ICHFILTER	IQUANT	3	Ich Filter
VCHRANGE	IQUANT	2	Vch Range
VCHRANGEMODE	TOGGLE	F	Vch Auto Range
VCHOFFSETENABLE	TOGGLE	T	Vch Offset Enable
VCHOFFSET	QUANT	0	Vch Offset (V)
VCHFILTER	IQUANT	3	Vch Filter
ACHRANGE	IQUANT	2	Ach Range
ACHOFFSETENABLE	TOGGLE	F	Ach Offset Enable
ACHOFFSET	QUANT	0	Ach Offset (V)
ACHFILTER	IQUANT	3	Ach Filter
IERANGELOWERLIMIT	IQUANT	2	I/E Range Lower Limit
IERANGEMODE	TOGGLE	F	I/E AutoRange
IERANGE	IQUANT	11	I/E Range
POSFEEDENABLE	TOGGLE	F	Positive Feedback IR Comp
POSFEEDRESISTANCE	QUANT	0	Positive Feedback Resistance (ohm)
ACHSELECT	IQUANT	0	Ach Select
CABLEID	IQUANT	13	Cable ID
DCCALDATE	LABEL	7/31/2020	DC Calibration Date
ACCALDATE	LABEL	7/31/2020	AC Calibration Date
THERMOSELECT	IQUANT	1	Thermo Select
FRAMEWORKVERSION	QUANT	6.33	Framework Version
INSTRUMENTVERSION	LABEL	3.50	Instrument Version
COMPLIANCEVOLTAGE	IQUANT	0	Compliance Voltage
ZCURVE	TABLE
	Pt	Time	Freq	Zreal	Zimag	Zsig	Zmod	Zphz	Idc	Vdc	IERange
	#	s	Hz	ohm	ohm	V	ohm	°	A	V	#
	0	6	300046.9	30.40554	-5.430113	1	30.88662	-10.12568	7.031136E-005	-0.000117	11
	1	11	238359.4	31.21245	-6.498603	1	31.8818	-11.76127	-0.0001049	0.0004088	10
	2	14	189328.1	31.98875	-8.152587	1	33.01129	-14.29791	-1.043666E-005	0.0005568	10
	3	16	150421.9	32.83346	-9.85514	1	34.28061	-16.70741	-0.0001037	0.0005655	10
	4	19	119484.4	33.81675	-11.7833	1	35.81087	-19.21067	-1.214152E-005	0.0007793	10
	5	21	94921.88	34.94942	-13.64624	1	37.51909	-21.3285	1.02926E-006	0.0003947	9
	6	24	75421.88	36.00531	-16.34339	1	39.54098	-24.41406	-5.125285E-006	0.0004078	9
	7	26	59859.37	37.09232	-19.46419	1	41.88907	-27.68823	-7.653793E-006	0.0005389	9
	8	29	47578.12	38.29816	-23.30311	1	44.83061	-31.31907	-1.328528E-005	0.000481	9
	9	31	37828.12	39.64052	-27.86517	1	48.4545	-35.10518	-3.952124E-006	3.04313E-005	9
	10	34	30046.88	41.14911	-33.57649	1	53.1096	-39.21346	1.291347E-005	-0.0001351	9
	11	36	23859.38	42.85128	-40.514	1	58.97132	-43.39405	2.12834E-006	-0.0001474	9
	12	39	18984.38	44.92453	-48.83317	1	66.35429	-47.38721	-1.103191E-005	0.0005889	9
	13	41	15046.87	47.39226	-59.34491	1	75.94633	-51.38948	1.710931E-005	-0.0002477	9
	14	43	11953.13	50.31025	-71.92526	1	87.77451	-55.028	-3.135527E-006	1.981826E-005	9
	15	46	9515.62	53.51633	-87.49886	1	102.5673	-58.54908	-1.374771E-005	0.0004432	9
	16	48	7546.875	58.02967	-106.2416	1	121.0567	-61.35643	-3.768756E-006	2.65836E-005	9
	17	50	5928.309	62.88012	-130.8187	1	145.1463	-64.32799	-1.149196E-005	0.0003042	9
	18	53	4733.456	68.77988	-158.6293	1	172.8986	-66.55898	-1.158359E-005	0.0002954	9
	19	55	3796.875	76.06059	-191.9758	1	206.4944	-68.38659	1.062335E-005	-0.0003334	9
	20	57	2987.132	84.38814	-236.2763	1	250.8941	-70.34537	-3.214896E-006	6.45878E-006	9
	21	59	2390.625	95.4026	-286.1393	1	301.6245	-71.56093	2.522422E-006	-0.0001463	9
	22	62	1884.191	105.8109	-353.2379	1	368.7451	-73.32464	7.180137E-006	-0.0002822	9
	23	64	1516.544	119.2495	-425.3345	1	441.7351	-74.33829	-1.491938E-006	0.0014378	8
	24	66	1193.986	136.8106	-524.9063	1	542.4424	-75.39154	2.658515E-006	-8.386996E-005	8
	25	69	946.5144	158.7682	-643.407	1	662.7065	-76.13852	-2.196979E-006	0.0012248	8
	26	71	751.7689	183.1379	-789.949	1	810.9	-76.94741	-2.236356E-006	0.0012066	8
	27	73	597.4265	212.7678	-968.409	1	991.507	-77.60851	-2.107836E-006	0.0013743	8
	28	76	477.4305	248.6979	-1183.114	1	1208.971	-78.12891	5.730336E-007	0.0006741	8
	29	78	376.6741	294.9851	-1461.72	1	1491.188	-78.59055	5.702474E-007	0.0006842	8
	30	80	298.2954	350.958	-1800.423	1	1834.31	-78.9696	5.858709E-007	0.0006721	8
	31	83	237.7717	417.1178	-2205.352	1	2244.452	-79.28966	5.717723E-007	0.0006688	8
	32	85	189.0121	499.1894	-2708.796	1	2754.409	-79.55842	5.802077E-007	0.0006659	8
	33	87	150.2404	599.4753	-3328.887	1	3382.434	-79.79143	5.74784E-007	0.0006636	8
	34	90	119.1737	724.9676	-4099.726	1	4163.332	-79.97187	5.768394E-007	0.0006723	8
	35	92	95.0169	878.589	-5036.327	1	5112.388	-80.10432	6.121451E-008	0.0006557	7
	36	95	75.60484	1066.869	-6187.105	1	6278.414	-80.21645	6.065868E-008	0.0006501	7
	37	97	54.50582	1422.501	-8306.569	1	8427.491	-80.28236	6.569858E-008	0.0006414	7
	38	100	45.95588	1653.792	-9691.47	1	9831.56	-80.31609	6.563629E-008	0.0006487	7
	39	102	37.20238	2008.818	-11729.95	1	11900.72	-80.28206	6.161654E-008	0.0006493	7
	40	105	30.04808	2456.129	-14216.8	1	14427.4	-80.1982	6.109016E-008	0.0006414	7
	41	107	23.91582	3048.036	-17474.8	1	17738.63	-80.10574	6.047528E-008	0.000658	7
	42	109	18.60119	3877.514	-21856.22	1	22197.51	-79.93983	6.162923E-008	0.00065	7
	43	112	15.02404	4795.987	-26459.08	1	26890.23	-79.72608	6.57739E-008	0.0006577	7
	44	114	12.01923	6051.516	-32324.44	1	32886.02	-79.3963	6.398412E-008	0.0006498	7
	45	116	9.450605	7774.425	-40116.43	1	40862.82	-79.03223	6.235979E-008	0.0006382	7
	46	119	7.512019	9932.85	-49083.71	1	50078.66	-78.55981	1.172905E-008	0.0007076	6
	47	122	5.978954	12729.55	-60044.88	1	61379.39	-78.03048	1.103141E-008	0.0006943	6
	48	126	4.734848	16532.06	-73669.88	1	75502.05	-77.35194	1.210219E-008	0.0007113	6
	49	129	3.75601	21552.46	-90104.26	1	92646.02	-76.5479	1.066235E-008	0.0006746	6
	50	135	3.004808	28016.29	-109049.9	1	112591.3	-75.59161	1.169486E-008	0.0006533	6
	51	141	2.372217	37084.54	-133234.3	1	138299.1	-74.44595	1.0731E-008	0.0006206	6
	52	145	1.878005	49393.51	-161460.5	1	168846.7	-72.99023	1.088874E-008	0.0006975	6
	53	150	1.512097	64309.47	-191886.3	1	202376.1	-71.47176	1.084878E-008	0.0006107	6
	54	161	1.201923	84840.43	-230329.4	1	245457.8	-69.77904	1.093638E-008	0.0007103	6
	55	174	0.956633	111844.1	-273490.4	1	295476.1	-67.75786	9.701981E-009	4.280655E-005	6
