EXPLAIN
TAG	EISPOT
TITLE	LABEL	Potentiostatic EIS	Test Identifier
DATE	LABEL	2/27/2021	Date
TIME	LABEL	20:28:58	Time
NOTES	NOTES	1	Notes...
	
PSTAT	PSTAT	REF3000-16137	Potentiostat
VDC	POTEN	0.00000E+000	T	DC Voltage (V)
FREQINIT	QUANT	3.00000E+005	Initial Freq. (Hz)
FREQFINAL	QUANT	1.00000E+000	Final Freq. (Hz)
PTSPERDEC	QUANT	1.00000E+001	Points/decade
VAC	QUANT	5.00000E+001	AC Voltage (mV rms)
AREA	QUANT	1.00000E+000	Sample Area (cm^2)
SPEED	SELECTOR	2	Optimize for:
ZGUESS	QUANT	1.00000E+003	Estimated Z (ohms)
EOC	QUANT	0	Open Circuit (V)
SEQUENCER	TOGGLE	TRUE	Run as Sequence
PSTATMODEL	IQUANT	5	Pstat Model
PSTATSECTION	LABEL	REF3000-16137	Pstat Section
PSTATSERIALNO	LABEL	16137	Pstat Serial Number
CTRLMODE	IQUANT	1	Control Mode
IESTAB	IQUANT	0	I/E Stability
CASPEED	IQUANT	1	Control Amp Speed
CONVENTION	IQUANT	1	Current Convention
ICHRANGE	IQUANT	2	Ich Range
ICHRANGEMODE	TOGGLE	F	Ich Auto Range
ICHOFFSETENABLE	TOGGLE	T	Ich Offset Enable
ICHOFFSET	QUANT	0	Ich Offset (V)
ICHFILTER	IQUANT	3	Ich Filter
VCHRANGE	IQUANT	2	Vch Range
VCHRANGEMODE	TOGGLE	F	Vch Auto Range
VCHOFFSETENABLE	TOGGLE	T	Vch Offset Enable
VCHOFFSET	QUANT	0	Vch Offset (V)
VCHFILTER	IQUANT	3	Vch Filter
ACHRANGE	IQUANT	2	Ach Range
ACHOFFSETENABLE	TOGGLE	F	Ach Offset Enable
ACHOFFSET	QUANT	0	Ach Offset (V)
ACHFILTER	IQUANT	3	Ach Filter
IERANGELOWERLIMIT	IQUANT	2	I/E Range Lower Limit
IERANGEMODE	TOGGLE	F	I/E AutoRange
IERANGE	IQUANT	11	I/E Range
POSFEEDENABLE	TOGGLE	F	Positive Feedback IR Comp
POSFEEDRESISTANCE	QUANT	0	Positive Feedback Resistance (ohm)
ACHSELECT	IQUANT	0	Ach Select
CABLEID	IQUANT	13	Cable ID
DCCALDATE	LABEL	7/31/2020	DC Calibration Date
ACCALDATE	LABEL	7/31/2020	AC Calibration Date
THERMOSELECT	IQUANT	1	Thermo Select
FRAMEWORKVERSION	QUANT	6.33	Framework Version
INSTRUMENTVERSION	LABEL	3.50	Instrument Version
COMPLIANCEVOLTAGE	IQUANT	0	Compliance Voltage
ZCURVE	TABLE
	Pt	Time	Freq	Zreal	Zimag	Zsig	Zmod	Zphz	Idc	Vdc	IERange
	#	s	Hz	ohm	ohm	V	ohm	°	A	V	#
	0	16	300046.9	10.71111	-4850.75	1	4850.761	-89.87348	2.960028E-005	-0.0005059	9
	1	33	238359.4	22.02538	-5954.588	1	5954.629	-89.78807	-2.212261E-005	0.0014875	9
	2	55	189328.1	349.0513	-7644.511	1	7652.476	-87.38567	-9.119912E-005	0.0042688	9
	3	63	150421.9	691.6291	-8929.302	1	8956.047	-85.57093	-2.871276E-005	-0.0009869	9
	4	73	119484.4	-175.085	-11381.31	1	11382.66	-90.88134	2.107812E-005	-0.0002463	9
	5	81	94921.88	468.0471	-14659.54	1	14667.01	-88.1713	-2.460314E-005	0.0110439	8
	6	90	75421.88	1034.499	-17787.83	1	17817.89	-86.67156	-1.949496E-006	0.0077759	8
	7	99	59859.37	714.0082	-22809.27	1	22820.45	-88.20703	-2.619498E-005	0.0075491	8
	8	106	47578.12	111.9198	-28156.32	1	28156.54	-89.77225	-2.62006E-005	0.007631	8
	9	116	37828.12	285.3957	-36471.66	1	36472.78	-89.55166	8.547744E-006	0.0041291	8
	10	125	30046.88	4233.179	-46198.2	1	46391.73	-84.76456	-7.358037E-006	0.0238181	7
	11	132	23859.38	4497.926	-58147.19	1	58320.89	-85.57674	2.747619E-006	0.0086652	7
	12	138	18984.38	4863.845	-71981.63	1	72145.77	-86.13436	7.640456E-006	-0.0185783	7
	13	143	15046.87	7496.853	-92627.67	1	92930.55	-85.37283	-1.798032E-006	0.0221377	7
	14	149	11953.13	6100.352	-115912.6	1	116073	-86.98737	1.33822E-006	-0.020114	7
	15	155	9515.62	8364.425	-141181.2	1	141428.8	-86.60942	-6.552077E-006	0.0260291	7
	16	161	7546.875	6261.739	-181761.2	1	181869	-88.02692	4.668885E-007	0.0162397	7
	17	166	5928.309	19083.04	-204581.8	1	205469.9	-84.67097	6.90694E-006	-0.0271341	7
	18	173	4733.456	-8838.397	-273724.9	1	273867.6	-91.8494	6.919229E-006	-0.027167	7
	19	178	3796.875	11648.78	-361349	1	361536.7	-88.1536	-3.805985E-006	0.0258418	7
	20	186	2987.132	-156005.6	-853544.7	1	867684.4	-100.3578	-2.65893E-005	0.0096255	8
	21	193	2390.625	-1723.809	-701252.4	1	701254.6	-90.14085	2.74981E-005	-0.0073624	8
	22	202	1884.191	52751.56	-663842.6	1	665935.2	-85.4566	1.653556E-005	-0.0092324	8
	23	210	1516.544	64789.88	-699271.9	1	702267	-84.70647	-1.040368E-006	-0.0133555	7
	24	218	1193.986	113472.2	-1111919	1	1117694	-84.17309	-5.646041E-007	0.02678	6
	25	224	946.5144	102079.6	-895948	1	901744.4	-83.50005	-5.333703E-006	0.0037336	7
	26	230	751.7689	169901.7	-216168.5	1	274946.2	-51.83376	-2.637926E-005	0.0095543	8
	27	237	597.4265	1898739	2554986	1	3183263	53.3821	2.744571E-005	-0.0072506	8
	28	244	477.4305	286614.9	-2795403	1	2810058	-84.14587	-6.37348E-008	0.0006619	7
	29	252	376.6741	846730.3	-3578317	1	3677132	-76.68708	-7.556408E-010	0.0007054	5
	30	256	298.2954	1081875	-4434153	1	4564227	-76.28848	-6.529166E-010	0.0006125	5
	31	260	237.7717	1406362	-5513827	1	5690355	-75.69117	-6.803449E-010	0.00061	5
	32	264	189.0121	1880207	-6735428	1	6992937	-74.40282	-6.216973E-010	0.0006122	5
	33	268	150.2404	2417670	-8148085	1	8499201	-73.47352	-7.396272E-010	0.0006838	5
	34	271	119.1737	3843541	-8916769	1	9.70987E+006	-66.68172	-5.574973E-010	0.0006291	5
	35	274	95.0169	4796140	-1.188885E+007	1	1.281982E+007	-68.03012	-6.771475E-010	0.0007047	5
	36	276	75.60484	8198413	-1.269149E+007	1	1.51092E+007	-57.13846	-7.471918E-010	0.0007049	5
	37	279	54.50582	1.150687E+007	-1.633092E+007	1	1.997766E+007	-54.83124	-7.547236E-010	0.0006696	5
	38	283	45.95588	1.505187E+007	-1.759666E+007	1	2.315602E+007	-49.45691	-6.739609E-011	0.0006368	4
	39	285	37.20238	2.321873E+007	-1.738703E+007	1	2.900721E+007	-36.8272	-2.019768E-011	0.0007186	4
	40	288	30.04808	2.13319E+007	-2.064447E+007	1	2.968576E+007	-44.06177	-7.813998E-010	0.0006738	5
	41	292	23.91582	2.477215E+007	-1.708781E+007	1	3.009406E+007	-34.59788	-8.308802E-010	0.0007029	5
	42	296	18.60119	4.000794E+007	-2254157	1	4.007139E+007	-3.224792	-3.156048E-010	0.0006762	5
	43	299	15.02404	3.6328E+007	-1.583734E+007	1	3.96301E+007	-23.55499	-6.022382E-011	0.0007002	4
	44	303	12.01923	3.890634E+007	-1.433019E+007	1	4.146152E+007	-20.22002	-7.558671E-011	0.0006705	4
	45	307	9.450605	3.988416E+007	-1.38394E+007	1	4.2217E+007	-19.13626	-3.048728E-011	0.0006828	4
	46	311	7.512019	4.364883E+007	-1.25274E+007	1	4.541097E+007	-16.01371	-9.826429E-011	0.0007166	4
	47	315	5.978954	4.527681E+007	-9.880272E+006	1	4.634231E+007	-12.31006	-6.343299E-011	0.0007165	4
	48	321	4.734848	4.889489E+007	-9487333	1	4.980683E+007	-10.98095	-6.89439E-011	0.0006302	4
	49	327	3.75601	5.146543E+007	-8281394	1	5.212746E+007	-9.141206	-6.306286E-011	0.0006213	4
	50	334	3.004808	5.538721E+007	-9.58217E+006	1	5.620997E+007	-9.81521	-4.148534E-011	0.0006059	4
	51	341	2.372217	5.983199E+007	-3924838	1	5.996058E+007	-3.753091	-1.753922E-011	0.0007098	3
	52	346	1.878005	6.15093E+007	-4207145	1	6.165301E+007	-3.912853	-1.630082E-011	0.000736	3
	53	350	1.512097	6.344901E+007	-4649347	1	6.361913E+007	-4.190967	-8.026632E-012	0.000627	3
	54	356	1.201923	6.600386E+007	-5286683	1	6.621524E+007	-4.579419	-1.508831E-011	0.0007473	3
	55	362	0.956633	6.897022E+007	-6045733	1	6.923469E+007	-5.00958	-2.438993E-011	9.058621E-005	3
