EXPLAIN
TAG	EISPOT
TITLE	LABEL	Potentiostatic EIS	Test Identifier
DATE	LABEL	2/27/2021	Date
TIME	LABEL	20:17:42	Time
NOTES	NOTES	1	Notes...
	
PSTAT	PSTAT	REF3000-16137	Potentiostat
VDC	POTEN	0.00000E+000	T	DC Voltage (V)
FREQINIT	QUANT	3.00000E+005	Initial Freq. (Hz)
FREQFINAL	QUANT	1.00000E+000	Final Freq. (Hz)
PTSPERDEC	QUANT	1.00000E+001	Points/decade
VAC	QUANT	5.00000E+001	AC Voltage (mV rms)
AREA	QUANT	1.00000E+000	Sample Area (cm^2)
SPEED	SELECTOR	2	Optimize for:
ZGUESS	QUANT	1.00000E+003	Estimated Z (ohms)
EOC	QUANT	0	Open Circuit (V)
SEQUENCER	TOGGLE	TRUE	Run as Sequence
PSTATMODEL	IQUANT	5	Pstat Model
PSTATSECTION	LABEL	REF3000-16137	Pstat Section
PSTATSERIALNO	LABEL	16137	Pstat Serial Number
CTRLMODE	IQUANT	1	Control Mode
IESTAB	IQUANT	0	I/E Stability
CASPEED	IQUANT	1	Control Amp Speed
CONVENTION	IQUANT	1	Current Convention
ICHRANGE	IQUANT	2	Ich Range
ICHRANGEMODE	TOGGLE	F	Ich Auto Range
ICHOFFSETENABLE	TOGGLE	T	Ich Offset Enable
ICHOFFSET	QUANT	0	Ich Offset (V)
ICHFILTER	IQUANT	3	Ich Filter
VCHRANGE	IQUANT	2	Vch Range
VCHRANGEMODE	TOGGLE	F	Vch Auto Range
VCHOFFSETENABLE	TOGGLE	T	Vch Offset Enable
VCHOFFSET	QUANT	0	Vch Offset (V)
VCHFILTER	IQUANT	3	Vch Filter
ACHRANGE	IQUANT	2	Ach Range
ACHOFFSETENABLE	TOGGLE	F	Ach Offset Enable
ACHOFFSET	QUANT	0	Ach Offset (V)
ACHFILTER	IQUANT	3	Ach Filter
IERANGELOWERLIMIT	IQUANT	2	I/E Range Lower Limit
IERANGEMODE	TOGGLE	F	I/E AutoRange
IERANGE	IQUANT	11	I/E Range
POSFEEDENABLE	TOGGLE	F	Positive Feedback IR Comp
POSFEEDRESISTANCE	QUANT	0	Positive Feedback Resistance (ohm)
ACHSELECT	IQUANT	0	Ach Select
CABLEID	IQUANT	13	Cable ID
DCCALDATE	LABEL	7/31/2020	DC Calibration Date
ACCALDATE	LABEL	7/31/2020	AC Calibration Date
THERMOSELECT	IQUANT	1	Thermo Select
FRAMEWORKVERSION	QUANT	6.33	Framework Version
INSTRUMENTVERSION	LABEL	3.50	Instrument Version
COMPLIANCEVOLTAGE	IQUANT	0	Compliance Voltage
ZCURVE	TABLE
	Pt	Time	Freq	Zreal	Zimag	Zsig	Zmod	Zphz	Idc	Vdc	IERange
	#	s	Hz	ohm	ohm	V	ohm	°	A	V	#
	0	14	300046.9	-6.266341	-4788.533	1	4788.537	-90.07498	-2.229617E-005	0.0010241	9
	1	28	238359.4	135.03	-5948.819	1	5950.351	-88.69969	2.794372E-005	-0.0019447	9
	2	44	189328.1	578.5731	-7441.411	1	7463.87	-85.55417	-2.095415E-005	0.0015998	9
	3	52	150421.9	425.6932	-9253.265	1	9263.052	-87.36598	-5.979634E-005	0.0004949	9
	4	59	119484.4	867.8461	-11656.7	1	11688.96	-85.74216	2.577086E-005	-0.0013807	9
	5	68	94921.88	913.9697	-14378.55	1	14407.57	-86.3629	2.339782E-005	-0.002832	8
	6	76	75421.88	1092.753	-17903.04	1	17936.35	-86.50715	-1.045285E-006	-0.0050335	8
	7	85	59859.37	1739.582	-22741.87	1	22808.3	-85.62582	-1.99696E-006	0.0077332	8
	8	94	47578.12	5992.516	-29491.59	1	30094.26	-78.51421	-1.652112E-006	0.0218903	7
	9	100	37828.12	3431.807	-36346.26	1	36507.91	-84.60613	1.651045E-005	-0.0092646	8
	10	109	30046.88	4681.111	-44694.45	1	44938.93	-84.02087	1.75232E-005	0.0003013	8
	11	120	23859.38	11208.4	-56568.32	1	57668.04	-78.79263	5.413224E-006	-0.0268832	7
	12	126	18984.38	15107.72	-69336.45	1	70963.28	-77.70795	-5.383791E-006	0.0037675	7
	13	131	15046.87	20831.45	-86882.23	1	89344.67	-76.51692	7.578244E-006	-0.0180495	7
	14	137	11953.13	31404.83	-107704.5	1	112189.7	-73.7442	2.818641E-006	0.0084072	7
	15	144	9515.62	38526.82	-131708.6	1	137227.8	-73.69498	6.951119E-006	-0.0271316	7
	16	150	7546.875	60179.87	-160266	1	171192.3	-69.41885	-7.361259E-006	0.0193076	7
	17	157	5928.309	95346.7	-211033.5	1	231573.2	-65.68615	-1.740691E-006	0.0220617	7
	18	162	4733.456	123898	-195372	1	231345.9	-57.61858	-1.043923E-006	-0.0133274	7
	19	168	3796.875	191265	-252752.8	1	316964.2	-52.8842	-4.050697E-007	0.0255808	6
	20	172	2987.132	270102.3	-386113.8	1	471210.3	-55.02565	-1.186696E-005	0.0102557	8
	21	179	2390.625	275860.7	-328660.8	1	429088.7	-49.99166	4.551022E-007	0.0162575	7
	22	187	1884.191	359600.2	-346863.9	1	499626.7	-43.96717	-3.357205E-006	-0.0051755	7
	23	193	1516.544	410912.9	-451928.5	1	610809.9	-47.72153	5.414818E-006	-0.0268703	7
	24	200	1193.986	591530.6	-312702.6	1	669097.4	-27.86241	1.361577E-006	-0.0201372	7
	25	207	946.5144	555891.8	-252825.1	1	610685	-24.45652	4.418131E-007	0.0013916	6
	26	210	751.7689	587141.7	-257500.1	1	641125.3	-23.6806	4.294145E-007	0.0023483	6
	27	214	597.4265	666729.1	-197280.7	1	695303.8	-16.48313	1.80934E-007	-0.0214154	6
	28	218	477.4305	686325.3	-179939	1	709521.3	-14.69101	-6.92845E-009	0.0007362	6
	29	221	376.6741	751567.2	-85532.77	1	756418.6	-6.492663	-6.87125E-010	0.0006102	5
	30	224	298.2954	760256.3	-74185.96	1	763867.2	-5.573289	-8.146975E-010	0.000657	5
	31	226	237.7717	766989.9	-67474.42	1	769952.2	-5.02754	-8.21351E-010	0.0007051	5
	32	229	189.0121	774487.4	-63668.53	1	777100	-4.699564	-9.066284E-010	0.0006842	5
	33	231	150.2404	786834.4	-63218.06	1	789369.9	-4.593551	-7.074502E-010	0.0006463	5
	34	234	119.1737	805450.5	-62365.72	1	807861.4	-4.427556	-5.753221E-010	0.0006135	5
	35	237	95.0169	807347.3	-69786.93	1	810357.8	-4.940355	-7.652985E-010	0.0006187	5
	36	239	75.60484	824008.9	-71079.5	1	827068.9	-4.930164	-5.33025E-010	0.0006407	5
	37	242	54.50582	834923.5	-103972.6	1	841372.4	-7.098475	-6.246993E-010	0.0006239	5
	38	245	45.95588	846606	-98269.6	1	852290.3	-6.620967	-1.057724E-009	0.0006691	5
	39	247	37.20238	866519.4	-112404.5	1	873779.6	-7.391109	-9.549296E-010	0.0006479	5
	40	249	30.04808	882433.6	-134135	1	892570.1	-8.643126	-7.949556E-010	0.0006596	5
	41	252	23.91582	905420.6	-157088	1	918946.8	-9.84268	-9.84149E-010	0.0006869	5
	42	255	18.60119	929968.8	-174443.7	1	946188.4	-10.62409	-1.686201E-009	0.0006111	5
	43	257	15.02404	952258	-221194.9	1	977611	-13.07703	-1.001517E-009	0.000687	5
	44	260	12.01923	982127	-258741.9	1	1015638	-14.75925	-7.165339E-010	0.0007092	5
	45	262	9.450605	1016829	-307257.6	1	1062238	-16.81336	-7.005846E-010	0.0006936	5
	46	265	7.512019	1054989	-361283.1	1	1115136	-18.90387	-6.552149E-010	0.0007032	5
	47	268	5.978954	1102296	-424078	1	1181058	-21.04286	-7.901672E-010	0.0006146	5
	48	272	4.734848	1156047	-503822.3	1	1261064	-23.54828	-5.929534E-010	0.0006997	5
	49	276	3.75601	1215950	-594042.9	1	1353300	-26.03747	-7.008381E-010	0.0007169	5
	50	282	3.004808	1288927	-699510.9	1	1466509	-28.48904	-7.263847E-010	0.0006476	5
	51	288	2.372217	1367519	-833674.8	1	1601600	-31.36757	-6.357121E-010	0.0006883	5
	52	292	1.878005	1444209	-992636	1	1752446	-34.50159	-6.647691E-010	0.0006458	5
	53	297	1.512097	1525396	-1173369	1	1924481	-37.56828	-7.340888E-010	0.000751	5
	54	302	1.201923	1618952	-1410213	1	2147023	-41.05798	-7.221007E-010	0.0006642	5
	55	309	0.956633	1721702	-1699472	1	2419186	-44.6277	-8.250171E-010	1.881505E-005	5
