EXPLAIN
TAG	EISPOT
TITLE	LABEL	Potentiostatic EIS	Test Identifier
DATE	LABEL	2/27/2021	Date
TIME	LABEL	21:20:18	Time
NOTES	NOTES	1	Notes...
	
PSTAT	PSTAT	REF3000-16137	Potentiostat
VDC	POTEN	0.00000E+000	T	DC Voltage (V)
FREQINIT	QUANT	3.00000E+005	Initial Freq. (Hz)
FREQFINAL	QUANT	1.00000E+000	Final Freq. (Hz)
PTSPERDEC	QUANT	1.00000E+001	Points/decade
VAC	QUANT	5.00000E+001	AC Voltage (mV rms)
AREA	QUANT	1.00000E+000	Sample Area (cm^2)
SPEED	SELECTOR	2	Optimize for:
ZGUESS	QUANT	1.00000E+003	Estimated Z (ohms)
EOC	QUANT	0	Open Circuit (V)
SEQUENCER	TOGGLE	TRUE	Run as Sequence
PSTATMODEL	IQUANT	5	Pstat Model
PSTATSECTION	LABEL	REF3000-16137	Pstat Section
PSTATSERIALNO	LABEL	16137	Pstat Serial Number
CTRLMODE	IQUANT	1	Control Mode
IESTAB	IQUANT	0	I/E Stability
CASPEED	IQUANT	1	Control Amp Speed
CONVENTION	IQUANT	1	Current Convention
ICHRANGE	IQUANT	2	Ich Range
ICHRANGEMODE	TOGGLE	F	Ich Auto Range
ICHOFFSETENABLE	TOGGLE	T	Ich Offset Enable
ICHOFFSET	QUANT	0	Ich Offset (V)
ICHFILTER	IQUANT	3	Ich Filter
VCHRANGE	IQUANT	2	Vch Range
VCHRANGEMODE	TOGGLE	F	Vch Auto Range
VCHOFFSETENABLE	TOGGLE	T	Vch Offset Enable
VCHOFFSET	QUANT	0	Vch Offset (V)
VCHFILTER	IQUANT	3	Vch Filter
ACHRANGE	IQUANT	2	Ach Range
ACHOFFSETENABLE	TOGGLE	F	Ach Offset Enable
ACHOFFSET	QUANT	0	Ach Offset (V)
ACHFILTER	IQUANT	3	Ach Filter
IERANGELOWERLIMIT	IQUANT	2	I/E Range Lower Limit
IERANGEMODE	TOGGLE	F	I/E AutoRange
IERANGE	IQUANT	11	I/E Range
POSFEEDENABLE	TOGGLE	F	Positive Feedback IR Comp
POSFEEDRESISTANCE	QUANT	0	Positive Feedback Resistance (ohm)
ACHSELECT	IQUANT	0	Ach Select
CABLEID	IQUANT	13	Cable ID
DCCALDATE	LABEL	7/31/2020	DC Calibration Date
ACCALDATE	LABEL	7/31/2020	AC Calibration Date
THERMOSELECT	IQUANT	1	Thermo Select
FRAMEWORKVERSION	QUANT	6.33	Framework Version
INSTRUMENTVERSION	LABEL	3.50	Instrument Version
COMPLIANCEVOLTAGE	IQUANT	0	Compliance Voltage
ZCURVE	TABLE
	Pt	Time	Freq	Zreal	Zimag	Zsig	Zmod	Zphz	Idc	Vdc	IERange
	#	s	Hz	ohm	ohm	V	ohm	°	A	V	#
	0	7	300046.9	106.1957	-10.29261	1	106.6933	-5.535883	1.112726E-005	-0.0016723	9
	1	10	238359.4	104.5579	-12.75236	1	105.3327	-6.953711	-5.389806E-005	0.0006671	9
	2	14	189328.1	103.7969	-15.76412	1	104.9872	-8.635782	6.367633E-005	-0.001635	9
	3	16	150421.9	103.313	-19.0245	1	105.05	-10.43381	-7.528588E-005	0.0020832	9
	4	19	119484.4	103.7724	-22.77239	1	106.2417	-12.37711	1.19349E-005	-0.000698	9
	5	21	94921.88	104.1956	-26.68505	1	107.5585	-14.36499	-1.658483E-005	0.0003505	9
	6	24	75421.88	104.9836	-31.32543	1	109.5575	-16.61426	-1.022632E-005	2.232984E-005	9
	7	26	59859.37	106.2333	-36.50266	1	112.3297	-18.96315	1.177396E-005	-0.0005888	9
	8	29	47578.12	107.7782	-42.65704	1	115.9128	-21.59294	5.441157E-006	-0.0004305	9
	9	31	37828.12	109.526	-49.34667	1	120.1292	-24.25383	-1.460217E-005	0.0002457	9
	10	34	30046.88	111.6194	-57.53038	1	125.5733	-27.26728	-1.721067E-005	0.0008133	9
	11	36	23859.38	113.9001	-67.08708	1	132.1889	-30.49807	1.223541E-005	0.0002002	9
	12	39	18984.38	116.3974	-78.7188	1	140.5169	-34.07024	2.322311E-005	-0.0004497	9
	13	41	15046.87	119.1816	-93.14819	1	151.2642	-38.00994	-1.833601E-005	0.0005339	9
	14	43	11953.13	121.9581	-111.209	1	165.0492	-42.36051	2.39072E-005	-0.0004135	9
	15	46	9515.62	125.3232	-133.2115	1	182.8968	-46.74764	-1.920446E-005	0.0006246	9
	16	48	7546.875	130.0007	-160.571	1	206.5992	-51.00586	2.360082E-005	-0.0005291	9
	17	50	5928.309	135.1561	-196.2993	1	238.3287	-55.4518	-9.513054E-006	5.952854E-005	9
	18	53	4733.456	141.731	-238.1162	1	277.1047	-59.23815	-3.787651E-006	0.0006434	9
	19	55	3796.875	149.0683	-287.2957	1	323.6668	-62.57668	2.216529E-005	-0.0002343	9
	20	57	2987.132	159.7405	-354.5143	1	388.8411	-65.74416	1.884098E-005	-0.0001193	9
	21	60	2390.625	171.7472	-428.659	1	461.7853	-68.16592	2.675117E-006	-0.0008384	8
	22	62	1884.191	187.8999	-528.0139	1	560.4508	-70.4113	-4.397919E-006	0.0021597	8
	23	64	1516.544	208.5671	-641.1567	1	674.2271	-71.98039	4.586133E-006	6.569E-005	8
	24	67	1193.986	237.5333	-792.6099	1	827.4374	-73.31731	5.738888E-006	-0.0007371	8
	25	69	946.5144	273.6057	-975.737	1	1013.372	-74.33601	5.627496E-006	-0.0005134	8
	26	72	751.7689	323.0633	-1196.003	1	1238.868	-74.88406	-4.379486E-007	0.0018104	8
	27	74	597.4265	391.0639	-1468.903	1	1520.068	-75.09202	9.32061E-007	-0.0003116	8
	28	76	477.4305	471.7775	-1783.433	1	1844.778	-75.18275	3.994795E-007	0.0006745	8
	29	79	376.6741	590.9201	-2191.381	1	2269.656	-74.90878	3.998E-007	0.0006647	8
	30	81	298.2954	748.375	-2674.086	1	2776.833	-74.36509	4.186354E-007	0.0006653	8
	31	83	237.7717	951.786	-3228.643	1	3366.011	-73.57478	4.205017E-007	0.0006615	8
	32	86	189.0121	1222.644	-3884.698	1	4072.559	-72.52948	4.086342E-007	0.0006723	8
	33	88	150.2404	1576.843	-4648.926	1	4909.068	-71.26387	4.232379E-008	0.000642	7
	34	91	119.1737	2018.374	-5520.507	1	5877.911	-69.91689	4.411954E-008	0.0006526	7
	35	93	95.0169	2543.106	-6479.341	1	6960.549	-68.57026	4.390234E-008	0.0006434	7
	36	95	75.60484	3158.966	-7559.633	1	8193.114	-67.32127	4.451827E-008	0.0006388	7
	37	98	54.50582	4170.058	-9355.479	1	10242.77	-65.97583	4.445567E-008	0.0006369	7
	38	101	45.95588	4724.064	-10421.48	1	11442.2	-65.61518	4.62482E-008	0.0006498	7
	39	103	37.20238	5434.931	-11940.4	1	13119.13	-65.52632	4.418327E-008	0.0006441	7
	40	105	30.04808	6180.808	-13762.34	1	15086.56	-65.81466	4.584545E-008	0.0006407	7
	41	108	23.91582	6969.577	-16078.56	1	17524.13	-66.5647	4.713415E-008	0.0006374	7
	42	110	18.60119	7836.383	-19150.07	1	20691.4	-67.74517	4.638256E-008	0.000643	7
	43	112	15.02404	8687.716	-22414.28	1	24039.06	-68.8138	4.917302E-008	0.0006603	7
	44	115	12.01923	9620.71	-26707.36	1	28387.34	-70.18962	4.696345E-008	0.0006382	7
	45	117	9.450605	10723.1	-32387.6	1	34116.59	-71.68098	4.82236E-008	0.0006469	7
	46	120	7.512019	11993.03	-39279.77	1	41069.86	-73.02134	4.966851E-008	0.0006521	7
	47	123	5.978954	13635.06	-47661.12	1	49573.14	-74.03505	6.704781E-009	0.0006879	6
	48	127	4.734848	22612.32	-62575.93	1	66536.19	-70.13226	1.018918E-008	0.000716	6
	49	132	3.75601	35439.54	-119057.9	1	124220.5	-73.42349	6.775423E-009	0.000699	6
	50	137	3.004808	43220.41	-143497.8	1	149865.4	-73.23811	7.539303E-009	0.0007121	6
	51	144	2.372217	56958.76	-168185	1	177568.3	-71.29044	7.82039E-009	0.0007115	6
	52	148	1.878005	74358.24	-193617.4	1	207405	-68.99085	8.277465E-009	0.0006596	6
	53	153	1.512097	90759.83	-209212.6	1	228051	-66.54802	8.743495E-009	0.0007733	6
	54	158	1.201923	66936.27	-189088.6	1	200586.5	-70.50633	8.097049E-009	0.0006792	6
	55	171	0.956633	59673.37	-213877.4	1	222046	-74.41051	7.470828E-009	3.934766E-005	6
