EXPLAIN
TAG	EISPOT
TITLE	LABEL	Potentiostatic EIS	Test Identifier
DATE	LABEL	2/27/2021	Date
TIME	LABEL	21:16:48	Time
NOTES	NOTES	1	Notes...
	
PSTAT	PSTAT	REF3000-16137	Potentiostat
VDC	POTEN	0.00000E+000	T	DC Voltage (V)
FREQINIT	QUANT	3.00000E+005	Initial Freq. (Hz)
FREQFINAL	QUANT	1.00000E+000	Final Freq. (Hz)
PTSPERDEC	QUANT	1.00000E+001	Points/decade
VAC	QUANT	5.00000E+001	AC Voltage (mV rms)
AREA	QUANT	1.00000E+000	Sample Area (cm^2)
SPEED	SELECTOR	2	Optimize for:
ZGUESS	QUANT	1.00000E+003	Estimated Z (ohms)
EOC	QUANT	0	Open Circuit (V)
SEQUENCER	TOGGLE	TRUE	Run as Sequence
PSTATMODEL	IQUANT	5	Pstat Model
PSTATSECTION	LABEL	REF3000-16137	Pstat Section
PSTATSERIALNO	LABEL	16137	Pstat Serial Number
CTRLMODE	IQUANT	1	Control Mode
IESTAB	IQUANT	0	I/E Stability
CASPEED	IQUANT	1	Control Amp Speed
CONVENTION	IQUANT	1	Current Convention
ICHRANGE	IQUANT	2	Ich Range
ICHRANGEMODE	TOGGLE	F	Ich Auto Range
ICHOFFSETENABLE	TOGGLE	T	Ich Offset Enable
ICHOFFSET	QUANT	0	Ich Offset (V)
ICHFILTER	IQUANT	3	Ich Filter
VCHRANGE	IQUANT	2	Vch Range
VCHRANGEMODE	TOGGLE	F	Vch Auto Range
VCHOFFSETENABLE	TOGGLE	T	Vch Offset Enable
VCHOFFSET	QUANT	0	Vch Offset (V)
VCHFILTER	IQUANT	3	Vch Filter
ACHRANGE	IQUANT	2	Ach Range
ACHOFFSETENABLE	TOGGLE	F	Ach Offset Enable
ACHOFFSET	QUANT	0	Ach Offset (V)
ACHFILTER	IQUANT	3	Ach Filter
IERANGELOWERLIMIT	IQUANT	2	I/E Range Lower Limit
IERANGEMODE	TOGGLE	F	I/E AutoRange
IERANGE	IQUANT	11	I/E Range
POSFEEDENABLE	TOGGLE	F	Positive Feedback IR Comp
POSFEEDRESISTANCE	QUANT	0	Positive Feedback Resistance (ohm)
ACHSELECT	IQUANT	0	Ach Select
CABLEID	IQUANT	13	Cable ID
DCCALDATE	LABEL	7/31/2020	DC Calibration Date
ACCALDATE	LABEL	7/31/2020	AC Calibration Date
THERMOSELECT	IQUANT	1	Thermo Select
FRAMEWORKVERSION	QUANT	6.33	Framework Version
INSTRUMENTVERSION	LABEL	3.50	Instrument Version
COMPLIANCEVOLTAGE	IQUANT	0	Compliance Voltage
ZCURVE	TABLE
	Pt	Time	Freq	Zreal	Zimag	Zsig	Zmod	Zphz	Idc	Vdc	IERange
	#	s	Hz	ohm	ohm	V	ohm	°	A	V	#
	0	14	300046.9	775.0282	-130.6583	1	785.9645	-9.56924	1.972119E-005	-0.0010584	9
	1	30	238359.4	676.3732	-86.30576	1	681.8574	-7.27169	2.413315E-005	-0.0018633	9
	2	37	189328.1	588.6136	-58.86107	1	591.5493	-5.710565	1.518701E-005	-0.0018557	9
	3	49	150421.9	540.2325	-53.71787	1	542.8967	-5.678524	-2.919126E-005	-0.0007839	9
	4	55	119484.4	515.0814	-36.85885	1	516.3986	-4.093067	-5.523491E-005	0.0203985	8
	5	58	94921.88	499.3125	-39.39991	1	500.8645	-4.511765	1.62956E-005	-0.0044736	8
	6	61	75421.88	486.1406	-48.30235	1	488.5343	-5.674217	8.135526E-006	-0.0048149	8
	7	63	59859.37	474.3572	-57.70203	1	477.8538	-6.935531	1.527519E-005	-0.0024184	8
	8	66	47578.12	465.1073	-69.56574	1	470.281	-8.506625	-9.243102E-006	0.0062871	8
	9	69	37828.12	457.8948	-82.88996	1	465.3369	-10.26079	1.173814E-005	-0.0002774	8
	10	71	30046.88	452.4604	-96.7605	1	462.691	-12.0711	-1.392071E-005	0.0058417	8
	11	74	23859.38	448.6518	-114.2201	1	462.9629	-14.28324	-1.361634E-005	0.0039676	8
	12	76	18984.38	448.017	-132.9473	1	467.3266	-16.52805	1.073138E-005	-0.0001415	8
	13	78	15046.87	450.2156	-156.75	1	476.7228	-19.19641	2.435831E-006	-0.0031651	8
	14	81	11953.13	452.8239	-180.0304	1	487.2991	-21.68142	1.494001E-005	-0.0029557	8
	15	83	9515.62	457.344	-209.0849	1	502.8718	-24.56856	-1.153738E-005	0.0060323	8
	16	85	7546.875	462.8714	-244.8803	1	523.6566	-27.8809	1.236862E-005	-0.0034536	8
	17	88	5928.309	470.1686	-286.4202	1	550.5406	-31.3492	-3.89478E-006	0.0049391	8
	18	90	4733.456	477.5814	-333.9262	1	582.7441	-34.96135	8.276918E-007	0.0035921	8
	19	92	3796.875	485.0633	-390.5981	1	622.7787	-38.84282	-2.237108E-006	-0.0015284	8
	20	95	2987.132	496.6156	-465.0294	1	680.3524	-43.11874	9.873201E-006	-0.0041887	8
	21	97	2390.625	505.6917	-552.1611	1	748.7362	-47.51527	1.250734E-005	-0.00202	8
	22	100	1884.191	515.9998	-670.7166	1	846.2367	-52.42797	-7.112818E-006	0.0052573	8
	23	102	1516.544	530.6056	-798.6512	1	958.846	-56.40084	1.268405E-005	-0.0018828	8
	24	105	1193.986	553.1486	-975.196	1	1121.151	-60.43731	-1.103638E-005	0.0048834	8
	25	107	946.5144	576.0369	-1190.484	1	1322.524	-64.17915	2.066021E-006	-0.0025467	8
	26	110	751.7689	609.0651	-1449.947	1	1572.675	-67.21465	-6.053343E-006	0.0002812	8
	27	113	597.4265	654.793	-1770.938	1	1888.114	-69.70844	1.231383E-005	-0.0024434	8
	28	115	477.4305	708.4268	-2159.841	1	2273.056	-71.84054	1.346738E-007	0.0006608	8
	29	118	376.6741	787.2135	-2664.196	1	2778.065	-73.5387	1.101967E-007	0.0006697	8
	30	120	298.2954	890.3725	-3277.872	1	3396.647	-74.80334	1.458301E-007	0.0006553	8
	31	122	237.7717	1023.158	-4007.301	1	4135.857	-75.67705	1.178659E-007	0.0006683	8
	32	125	189.0121	1209.018	-4919.379	1	5065.769	-76.19228	8.215028E-009	0.0006288	7
	33	127	150.2404	1455.974	-6023.239	1	6196.714	-76.41079	7.453165E-009	0.0006349	7
	34	130	119.1737	1798.003	-7376.896	1	7592.853	-76.30212	5.942415E-009	0.0006454	7
	35	132	95.0169	2261.577	-8968.238	1	9249.002	-75.84646	7.974201E-009	0.0006477	7
	36	135	75.60484	2905.068	-10877.73	1	11258.97	-75.04724	6.435783E-009	0.0006368	7
	37	137	54.50582	4255.86	-14231.89	1	14854.6	-73.3514	6.433829E-009	0.0006441	7
	38	140	45.95588	5223.742	-16226.84	1	17046.93	-72.15559	1.05703E-008	0.0006406	7
	39	142	37.20238	6722.124	-18961.14	1	20117.45	-70.47952	9.804054E-009	0.0006541	7
	40	144	30.04808	8592.323	-21957.26	1	23578.58	-68.62859	8.536752E-009	0.0006413	7
	41	147	23.91582	10942.13	-25358.21	1	27618.27	-66.65967	1.286299E-008	0.0006335	7
	42	149	18.60119	13819.43	-29468.88	1	32548.3	-64.87578	8.77399E-009	0.0006541	7
	43	152	15.02404	16417.36	-33109.36	1	36956.18	-63.62538	1.550537E-008	0.0006383	7
	44	154	12.01923	19057.43	-37384.27	1	41961.52	-62.98882	1.098332E-009	0.0006729	6
	45	156	9.450605	21720.34	-42865.23	1	48054.15	-63.1281	1.71968E-009	0.0006949	6
	46	159	7.512019	23979.92	-49353.8	1	54871.07	-64.08591	3.333102E-009	0.0006938	6
	47	162	5.978954	25988.38	-57306.77	1	62924.25	-65.60591	2.758742E-009	0.0006765	6
	48	165	4.734848	27875.96	-67672.37	1	73188.92	-67.61199	3.557579E-009	0.0007166	6
	49	168	3.75601	29656.75	-80430.66	1	85724.06	-69.75983	3.16881E-009	0.0006589	6
	50	174	3.004808	31348.72	-95711.7	1	100714.8	-71.86469	3.80695E-009	0.0007035	6
	51	180	2.372217	33824.18	-116387.4	1	121202.7	-73.79523	3.493865E-009	0.000754	6
	52	185	1.878005	37023.22	-141858.6	1	146610.3	-75.37283	3.520616E-009	0.0006506	6
	53	189	1.512097	40501.87	-170963.9	1	175695.9	-76.67216	3.704676E-009	0.0007797	6
	54	195	1.201923	45672.93	-209134.2	1	214063.4	-77.68057	3.764342E-009	0.0006572	6
	55	201	0.956633	52769.91	-255602.3	1	260992.8	-78.33499	3.306457E-009	3.348338E-005	6
