EXPLAIN
TAG	EISPOT
TITLE	LABEL	Potentiostatic EIS	Test Identifier
DATE	LABEL	2/27/2021	Date
TIME	LABEL	19:20:14	Time
NOTES	NOTES	1	Notes...
	
PSTAT	PSTAT	REF3000-16137	Potentiostat
VDC	POTEN	0.00000E+000	T	DC Voltage (V)
FREQINIT	QUANT	3.00000E+005	Initial Freq. (Hz)
FREQFINAL	QUANT	1.00000E+000	Final Freq. (Hz)
PTSPERDEC	QUANT	1.00000E+001	Points/decade
VAC	QUANT	5.00000E+001	AC Voltage (mV rms)
AREA	QUANT	1.00000E+000	Sample Area (cm^2)
SPEED	SELECTOR	2	Optimize for:
ZGUESS	QUANT	1.00000E+003	Estimated Z (ohms)
EOC	QUANT	0	Open Circuit (V)
SEQUENCER	TOGGLE	TRUE	Run as Sequence
PSTATMODEL	IQUANT	5	Pstat Model
PSTATSECTION	LABEL	REF3000-16137	Pstat Section
PSTATSERIALNO	LABEL	16137	Pstat Serial Number
CTRLMODE	IQUANT	1	Control Mode
IESTAB	IQUANT	0	I/E Stability
CASPEED	IQUANT	1	Control Amp Speed
CONVENTION	IQUANT	1	Current Convention
ICHRANGE	IQUANT	2	Ich Range
ICHRANGEMODE	TOGGLE	F	Ich Auto Range
ICHOFFSETENABLE	TOGGLE	T	Ich Offset Enable
ICHOFFSET	QUANT	0	Ich Offset (V)
ICHFILTER	IQUANT	3	Ich Filter
VCHRANGE	IQUANT	2	Vch Range
VCHRANGEMODE	TOGGLE	F	Vch Auto Range
VCHOFFSETENABLE	TOGGLE	T	Vch Offset Enable
VCHOFFSET	QUANT	0	Vch Offset (V)
VCHFILTER	IQUANT	3	Vch Filter
ACHRANGE	IQUANT	2	Ach Range
ACHOFFSETENABLE	TOGGLE	F	Ach Offset Enable
ACHOFFSET	QUANT	0	Ach Offset (V)
ACHFILTER	IQUANT	3	Ach Filter
IERANGELOWERLIMIT	IQUANT	2	I/E Range Lower Limit
IERANGEMODE	TOGGLE	F	I/E AutoRange
IERANGE	IQUANT	11	I/E Range
POSFEEDENABLE	TOGGLE	F	Positive Feedback IR Comp
POSFEEDRESISTANCE	QUANT	0	Positive Feedback Resistance (ohm)
ACHSELECT	IQUANT	0	Ach Select
CABLEID	IQUANT	13	Cable ID
DCCALDATE	LABEL	7/31/2020	DC Calibration Date
ACCALDATE	LABEL	7/31/2020	AC Calibration Date
THERMOSELECT	IQUANT	1	Thermo Select
FRAMEWORKVERSION	QUANT	6.33	Framework Version
INSTRUMENTVERSION	LABEL	3.50	Instrument Version
COMPLIANCEVOLTAGE	IQUANT	0	Compliance Voltage
ZCURVE	TABLE
	Pt	Time	Freq	Zreal	Zimag	Zsig	Zmod	Zphz	Idc	Vdc	IERange
	#	s	Hz	ohm	ohm	V	ohm	°	A	V	#
	0	7	300046.9	165.6375	-13.39104	1	166.1779	-4.622052	2.620284E-005	-0.000639	9
	1	10	238359.4	167.3333	-15.99944	1	168.0964	-5.461686	8.867999E-006	-0.0017314	9
	2	13	189328.1	169.3699	-19.27838	1	170.4635	-6.493695	-1.394831E-005	0.0011655	9
	3	16	150421.9	171.2967	-22.54563	1	172.774	-7.498024	-7.381652E-005	0.0033123	9
	4	19	119484.4	174.0608	-27.33501	1	176.1941	-8.925001	6.887835E-005	-0.0014723	9
	5	24	94921.88	177.1707	-32.11927	1	180.0586	-10.27555	-2.112262E-005	0.0005454	9
	6	26	75421.88	180.7774	-38.39556	1	184.8098	-11.99095	-7.755347E-006	-0.000103	9
	7	29	59859.37	184.5583	-45.22119	1	190.0177	-13.76759	2.579556E-005	-0.000613	9
	8	31	47578.12	189.4106	-53.14392	1	196.7248	-15.6728	-1.80624E-005	0.0003611	9
	9	34	37828.12	194.8555	-62.3223	1	204.5794	-17.73628	2.489602E-005	-0.0007164	9
	10	36	30046.88	201.0378	-73.01501	1	213.8864	-19.96054	1.502159E-005	-0.0007259	9
	11	39	23859.38	207.6617	-85.50619	1	224.5767	-22.37977	1.518127E-005	-0.000731	9
	12	41	18984.38	215.1284	-99.8579	1	237.1747	-24.89969	-1.503136E-005	0.0009949	9
	13	43	15046.87	223.6955	-117.8533	1	252.842	-27.78237	-1.505485E-005	0.0001598	9
	14	46	11953.13	232.2711	-138.1996	1	270.2758	-30.75234	-2.197939E-005	0.0008662	9
	15	49	9515.62	241.5687	-162.9038	1	291.3642	-33.99408	2.364336E-005	-0.0001916	9
	16	52	7546.875	251.3752	-194.6803	1	317.9464	-37.75639	7.471753E-007	0.0005033	9
	17	54	5928.309	262.4315	-234.0493	1	351.6381	-41.72814	2.616516E-005	-0.0006018	9
	18	56	4733.456	272.5991	-278.91	1	390.0014	-45.65561	1.204052E-005	0.0002671	9
	19	59	3796.875	286.0302	-331.9922	1	438.2147	-49.25323	-8.874323E-006	0.0027627	8
	20	61	2987.132	300.7689	-407.3226	1	506.3335	-53.55767	-8.475864E-006	0.003337	8
	21	63	2390.625	316.9889	-492.2212	1	585.4602	-57.2186	-7.968484E-006	0.0037856	8
	22	66	1884.191	339.1213	-606.2934	1	694.6906	-60.78017	1.019476E-005	-0.001983	8
	23	68	1516.544	359.4445	-733.7187	1	817.0333	-63.90004	4.761424E-006	0.0011673	8
	24	70	1193.986	389.3279	-906.6426	1	986.7	-66.76048	8.549398E-006	-0.0026732	8
	25	73	946.5144	423.029	-1117.493	1	1194.882	-69.26574	-1.896239E-006	-0.0006953	8
	26	75	751.7689	463.875	-1369.91	1	1446.317	-71.29301	6.913761E-006	-0.0027223	8
	27	78	597.4265	515.5106	-1688.507	1	1765.448	-73.02228	-8.303045E-006	0.0038882	8
	28	81	477.4305	586.0026	-2066.278	1	2147.767	-74.1665	1.916483E-007	0.0006596	8
	29	83	376.6741	674.9578	-2561	1	2648.451	-75.2353	1.801735E-007	0.0006597	8
	30	85	298.2954	788.7997	-3164.051	1	3260.893	-76.00148	1.890298E-007	0.0006591	8
	31	88	237.7717	932.9794	-3884.716	1	3995.181	-76.49524	1.881493E-007	0.0006645	8
	32	90	189.0121	1129.458	-4788.521	1	4919.919	-76.72833	1.233047E-008	0.00063	7
	33	92	150.2404	1385.79	-5885.863	1	6046.8	-76.75135	1.132447E-008	0.0006303	7
	34	95	119.1737	1732.518	-7237.857	1	7442.324	-76.53846	1.133126E-008	0.0006356	7
	35	97	95.0169	2191.464	-8843.259	1	9110.749	-76.08182	1.046591E-008	0.0006383	7
	36	100	75.60484	2817.669	-10791.43	1	11153.21	-75.36663	8.996011E-009	0.0006442	7
	37	102	54.50582	4109.963	-14235.7	1	14817.11	-73.89613	8.848983E-009	0.0006412	7
	38	105	45.95588	5019.711	-16392.17	1	17143.53	-72.97404	9.520264E-009	0.0006496	7
	39	107	37.20238	6448.963	-19401.6	1	20445.32	-71.61353	1.256295E-008	0.0006318	7
	40	109	30.04808	8269.587	-22833.04	1	24284.43	-70.09081	1.179273E-008	0.0006429	7
	41	112	23.91582	10625.75	-26890.96	1	28914.19	-68.43894	1.328831E-008	0.0006393	7
	42	114	18.60119	13794.54	-31931.98	1	34784.2	-66.63577	5.501217E-009	0.0006431	7
	43	117	15.02404	16896.57	-36588.07	1	40301.13	-65.21225	1.283131E-008	0.0006451	7
	44	119	12.01923	20392.31	-42011.13	1	46698.84	-64.10795	1.478933E-010	0.0006875	6
	45	121	9.450605	24280.46	-48644.73	1	54367.73	-63.47445	3.086967E-009	0.000689	6
	46	124	7.512019	28096.86	-56232.27	1	62860.97	-63.45066	2.013359E-009	0.0006889	6
	47	127	5.978954	31847.24	-65356.88	1	72703.29	-64.02086	1.692801E-009	0.000682	6
	48	131	4.734848	35716.55	-76895.57	1	84785.62	-65.08601	2.597268E-009	0.0007026	6
	49	134	3.75601	39778.3	-91178.41	1	99477.7	-66.42986	1.48478E-009	0.0006653	6
	50	140	3.004808	43913.07	-108337.4	1	116898.9	-67.9355	1.783397E-009	0.0006838	6
	51	146	2.372217	48906.95	-131061.6	1	139889.4	-69.53644	1.454154E-009	0.0007407	6
	52	150	1.878005	54096.07	-159406.5	1	168335.4	-71.25488	7.57942E-010	0.0006585	6
	53	155	1.512097	59493.54	-191539.8	1	200566.6	-72.74486	1.322507E-009	0.0006429	6
	54	161	1.201923	66823.77	-234468.5	1	243805	-74.09239	8.465765E-010	0.0006588	6
	55	167	0.956633	75257.7	-286760.1	1	296471	-75.29484	8.017824E-010	2.950395E-005	6
