EXPLAIN
TAG	EISPOT
TITLE	LABEL	Potentiostatic EIS	Test Identifier
DATE	LABEL	2/27/2021	Date
TIME	LABEL	18:51:36	Time
NOTES	NOTES	1	Notes...
	
PSTAT	PSTAT	REF3000-16137	Potentiostat
VDC	POTEN	0.00000E+000	T	DC Voltage (V)
FREQINIT	QUANT	3.00000E+005	Initial Freq. (Hz)
FREQFINAL	QUANT	1.00000E+000	Final Freq. (Hz)
PTSPERDEC	QUANT	1.00000E+001	Points/decade
VAC	QUANT	5.00000E+001	AC Voltage (mV rms)
AREA	QUANT	1.00000E+000	Sample Area (cm^2)
SPEED	SELECTOR	2	Optimize for:
ZGUESS	QUANT	1.00000E+003	Estimated Z (ohms)
EOC	QUANT	0	Open Circuit (V)
SEQUENCER	TOGGLE	TRUE	Run as Sequence
PSTATMODEL	IQUANT	5	Pstat Model
PSTATSECTION	LABEL	REF3000-16137	Pstat Section
PSTATSERIALNO	LABEL	16137	Pstat Serial Number
CTRLMODE	IQUANT	1	Control Mode
IESTAB	IQUANT	0	I/E Stability
CASPEED	IQUANT	1	Control Amp Speed
CONVENTION	IQUANT	1	Current Convention
ICHRANGE	IQUANT	2	Ich Range
ICHRANGEMODE	TOGGLE	F	Ich Auto Range
ICHOFFSETENABLE	TOGGLE	T	Ich Offset Enable
ICHOFFSET	QUANT	0	Ich Offset (V)
ICHFILTER	IQUANT	3	Ich Filter
VCHRANGE	IQUANT	2	Vch Range
VCHRANGEMODE	TOGGLE	F	Vch Auto Range
VCHOFFSETENABLE	TOGGLE	T	Vch Offset Enable
VCHOFFSET	QUANT	0	Vch Offset (V)
VCHFILTER	IQUANT	3	Vch Filter
ACHRANGE	IQUANT	2	Ach Range
ACHOFFSETENABLE	TOGGLE	F	Ach Offset Enable
ACHOFFSET	QUANT	0	Ach Offset (V)
ACHFILTER	IQUANT	3	Ach Filter
IERANGELOWERLIMIT	IQUANT	2	I/E Range Lower Limit
IERANGEMODE	TOGGLE	F	I/E AutoRange
IERANGE	IQUANT	11	I/E Range
POSFEEDENABLE	TOGGLE	F	Positive Feedback IR Comp
POSFEEDRESISTANCE	QUANT	0	Positive Feedback Resistance (ohm)
ACHSELECT	IQUANT	0	Ach Select
CABLEID	IQUANT	13	Cable ID
DCCALDATE	LABEL	7/31/2020	DC Calibration Date
ACCALDATE	LABEL	7/31/2020	AC Calibration Date
THERMOSELECT	IQUANT	1	Thermo Select
FRAMEWORKVERSION	QUANT	6.33	Framework Version
INSTRUMENTVERSION	LABEL	3.50	Instrument Version
COMPLIANCEVOLTAGE	IQUANT	0	Compliance Voltage
ZCURVE	TABLE
	Pt	Time	Freq	Zreal	Zimag	Zsig	Zmod	Zphz	Idc	Vdc	IERange
	#	s	Hz	ohm	ohm	V	ohm	°	A	V	#
	0	7	300046.9	41.08646	-5.731042	1	41.48423	-7.940803	-2.812565E-005	-0.0003604	9
	1	10	238359.4	41.84851	-7.817409	1	42.57241	-10.58105	4.16181E-005	-0.0011391	9
	2	14	189328.1	42.78796	-9.88754	1	43.91552	-13.01165	3.10429E-006	0.0002642	9
	3	16	150421.9	43.91746	-12.1264	1	45.56087	-15.43578	5.774028E-006	0.0004819	9
	4	19	119484.4	45.02266	-14.63073	1	47.34024	-18.00228	1.478056E-006	-0.000543	9
	5	21	94921.88	46.41759	-17.36539	1	49.55956	-20.51144	-1.198534E-005	0.0002019	9
	6	24	75421.88	47.74751	-20.65146	1	52.02219	-23.38915	1.980079E-005	-0.0002892	9
	7	26	59859.37	49.20978	-24.66875	1	55.04679	-26.6245	-7.510073E-006	0.0005253	9
	8	29	47578.12	50.66138	-29.42402	1	58.58625	-30.14793	3.104943E-006	-0.0002529	9
	9	31	37828.12	52.34852	-35.13865	1	63.04833	-33.87126	-3.671346E-006	-3.417702E-005	9
	10	34	30046.88	54.15876	-42.26753	1	68.70019	-37.96981	-1.317233E-005	0.0006527	9
	11	36	23859.38	56.23182	-51.10646	1	75.9861	-42.26622	1.908196E-005	-0.0003726	9
	12	39	18984.38	58.56896	-61.88655	1	85.20721	-46.57764	1.577872E-005	-0.0001728	9
	13	41	15046.87	61.31507	-75.33046	1	97.1299	-50.85621	-1.534758E-005	0.0004614	9
	14	43	11953.13	64.56771	-91.82464	1	112.2531	-54.88652	1.609127E-005	-0.000174	9
	15	46	9515.62	68.48692	-111.6884	1	131.0143	-58.48351	1.241954E-005	6.374723E-005	9
	16	48	7546.875	73.17986	-136.7898	1	155.1346	-61.85409	1.926859E-005	-0.0004281	9
	17	50	5928.309	79.15237	-168.7833	1	186.4213	-64.87537	1.932148E-005	-0.0004586	9
	18	53	4733.456	86.01539	-205.5857	1	222.8545	-67.29597	-3.451439E-006	-4.864191E-005	9
	19	55	3796.875	93.53191	-251.4688	1	268.2998	-69.59769	-1.10809E-005	0.0002533	9
	20	57	2987.132	105.3651	-308.7979	1	326.2789	-71.15982	-1.273235E-005	0.0002919	9
	21	60	2390.625	117.1782	-376.56	1	394.3706	-72.71487	1.930805E-005	-0.0003892	9
	22	62	1884.191	132.0124	-463.0742	1	481.5236	-74.0883	-1.213907E-006	0.0015746	8
	23	64	1516.544	150.2082	-561.409	1	581.1562	-75.02103	-2.338835E-006	0.0011033	8
	24	66	1193.986	173.4539	-694.1776	1	715.52	-75.97079	4.263508E-006	-0.0002822	8
	25	69	946.5144	199.7934	-854.5348	1	877.5803	-76.84042	-2.989781E-006	0.0013256	8
	26	71	751.7689	236.2079	-1049.55	1	1075.802	-77.31654	-1.707134E-007	0.0013559	8
	27	74	597.4265	278.9288	-1284.386	1	1314.324	-77.74738	-1.429655E-006	0.0007915	8
	28	76	477.4305	326.4837	-1567.797	1	1601.43	-78.23664	5.165969E-007	0.0006621	8
	29	78	376.6741	389.2754	-1935.383	1	1974.144	-78.62749	5.16102E-007	0.0006553	8
	30	81	298.2954	463.4014	-2382.142	1	2426.797	-78.99166	5.154679E-007	0.0006584	8
	31	83	237.7717	549.8196	-2916.446	1	2967.82	-79.32368	5.155996E-007	0.0006582	8
	32	85	189.0121	654.2784	-3581.008	1	3640.289	-79.64581	5.087737E-007	0.0006643	8
	33	88	150.2404	783.907	-4411.708	1	4480.812	-79.92439	5.152535E-008	0.0006373	7
	34	90	119.1737	934.8981	-5432.561	1	5512.418	-80.23552	5.195088E-008	0.0006461	7
	35	93	95.0169	1114.561	-6667.302	1	6759.82	-80.50972	5.243612E-008	0.0006376	7
	36	95	75.60484	1335.176	-8204.663	1	8312.593	-80.75706	5.320769E-008	0.0006318	7
	37	98	54.50582	1742.222	-11046.05	1	11182.61	-81.03695	5.515732E-008	0.0006311	7
	38	100	45.95588	2000.061	-12903.74	1	13057.82	-81.18935	5.484774E-008	0.0006404	7
	39	103	37.20238	2398.331	-15678.78	1	15861.16	-81.30307	5.191598E-008	0.0006369	7
	40	105	30.04808	2882.766	-19058.96	1	19275.74	-81.39892	5.160607E-008	0.0006355	7
	41	107	23.91582	3522.171	-23488.23	1	23750.84	-81.47177	5.313437E-008	0.0006406	7
	42	110	18.60119	4392.619	-29509.21	1	29834.35	-81.53336	5.19002E-008	0.0006408	7
	43	112	15.02404	5364.16	-35908.87	1	36307.32	-81.50384	5.466984E-008	0.0006513	7
	44	114	12.01923	6657.069	-44075.8	1	44575.7	-81.41115	6.899252E-009	0.0006812	6
	45	117	9.450605	8435.42	-54927.91	1	55571.86	-81.26915	5.899247E-009	0.0006961	6
	46	119	7.512019	10580.02	-67801.03	1	68621.55	-81.1308	6.789406E-009	0.000698	6
	47	122	5.978954	13405.5	-83522.95	1	84591.91	-80.88175	6.443281E-009	0.0006818	6
	48	127	4.734848	17213.54	-103272.8	1	104697.6	-80.53692	7.194611E-009	0.000706	6
	49	130	3.75601	22169.49	-127542.9	1	129455.3	-80.13937	6.334897E-009	0.0006654	6
	50	135	3.004808	28488.34	-155997.6	1	158577.5	-79.65067	6.788517E-009	0.0006931	6
	51	142	2.372217	37771.48	-193052.5	1	196712.8	-78.9297	6.304771E-009	0.0007438	6
	52	146	1.878005	49559.73	-237984.2	1	243089.8	-78.2364	5.694202E-009	0.000667	6
	53	151	1.512097	63546.67	-286509.3	1	293471.9	-77.49445	6.266154E-009	0.0006421	6
	54	156	1.201923	84983.77	-350875.5	1	361020.6	-76.38488	5.990358E-009	0.0006564	6
	55	162	0.956633	113216	-426319.8	1	441096.8	-75.12749	6.864005E-010	2.300148E-005	5
