EXPLAIN
TAG	EISPOT
TITLE	LABEL	Potentiostatic EIS	Test Identifier
DATE	LABEL	2/27/2021	Date
TIME	LABEL	19:03:01	Time
NOTES	NOTES	1	Notes...
	
PSTAT	PSTAT	REF3000-16137	Potentiostat
VDC	POTEN	0.00000E+000	T	DC Voltage (V)
FREQINIT	QUANT	3.00000E+005	Initial Freq. (Hz)
FREQFINAL	QUANT	1.00000E+000	Final Freq. (Hz)
PTSPERDEC	QUANT	1.00000E+001	Points/decade
VAC	QUANT	5.00000E+001	AC Voltage (mV rms)
AREA	QUANT	1.00000E+000	Sample Area (cm^2)
SPEED	SELECTOR	2	Optimize for:
ZGUESS	QUANT	1.00000E+003	Estimated Z (ohms)
EOC	QUANT	0	Open Circuit (V)
SEQUENCER	TOGGLE	TRUE	Run as Sequence
PSTATMODEL	IQUANT	5	Pstat Model
PSTATSECTION	LABEL	REF3000-16137	Pstat Section
PSTATSERIALNO	LABEL	16137	Pstat Serial Number
CTRLMODE	IQUANT	1	Control Mode
IESTAB	IQUANT	0	I/E Stability
CASPEED	IQUANT	1	Control Amp Speed
CONVENTION	IQUANT	1	Current Convention
ICHRANGE	IQUANT	2	Ich Range
ICHRANGEMODE	TOGGLE	F	Ich Auto Range
ICHOFFSETENABLE	TOGGLE	T	Ich Offset Enable
ICHOFFSET	QUANT	0	Ich Offset (V)
ICHFILTER	IQUANT	3	Ich Filter
VCHRANGE	IQUANT	2	Vch Range
VCHRANGEMODE	TOGGLE	F	Vch Auto Range
VCHOFFSETENABLE	TOGGLE	T	Vch Offset Enable
VCHOFFSET	QUANT	0	Vch Offset (V)
VCHFILTER	IQUANT	3	Vch Filter
ACHRANGE	IQUANT	2	Ach Range
ACHOFFSETENABLE	TOGGLE	F	Ach Offset Enable
ACHOFFSET	QUANT	0	Ach Offset (V)
ACHFILTER	IQUANT	3	Ach Filter
IERANGELOWERLIMIT	IQUANT	2	I/E Range Lower Limit
IERANGEMODE	TOGGLE	F	I/E AutoRange
IERANGE	IQUANT	11	I/E Range
POSFEEDENABLE	TOGGLE	F	Positive Feedback IR Comp
POSFEEDRESISTANCE	QUANT	0	Positive Feedback Resistance (ohm)
ACHSELECT	IQUANT	0	Ach Select
CABLEID	IQUANT	13	Cable ID
DCCALDATE	LABEL	7/31/2020	DC Calibration Date
ACCALDATE	LABEL	7/31/2020	AC Calibration Date
THERMOSELECT	IQUANT	1	Thermo Select
FRAMEWORKVERSION	QUANT	6.33	Framework Version
INSTRUMENTVERSION	LABEL	3.50	Instrument Version
COMPLIANCEVOLTAGE	IQUANT	0	Compliance Voltage
ZCURVE	TABLE
	Pt	Time	Freq	Zreal	Zimag	Zsig	Zmod	Zphz	Idc	Vdc	IERange
	#	s	Hz	ohm	ohm	V	ohm	°	A	V	#
	0	7	300046.9	51.07447	-6.814121	1	51.52702	-7.599263	4.496804E-005	-0.0010442	9
	1	10	238359.4	52.06202	-9.057596	1	52.84405	-9.86937	8.238018E-007	0.000265	9
	2	13	189328.1	53.27909	-11.30846	1	54.46598	-11.98317	7.169698E-006	-0.0008365	9
	3	15	150421.9	54.50397	-13.94702	1	56.26014	-14.35342	8.56889E-006	-0.0009735	9
	4	18	119484.4	55.85114	-16.71669	1	58.29921	-16.66286	4.272414E-005	-0.0005421	9
	5	21	94921.88	57.50624	-19.79873	1	60.81906	-18.99798	-1.545491E-005	0.0005667	9
	6	23	75421.88	59.12018	-23.50312	1	63.62069	-21.68021	1.72855E-005	-0.0002224	9
	7	26	59859.37	60.78837	-27.88945	1	66.88084	-24.64546	1.740233E-005	-0.0005662	9
	8	28	47578.12	62.60843	-33.19331	1	70.86333	-27.93134	2.05238E-005	-0.00042	9
	9	31	37828.12	64.52374	-39.63368	1	75.72411	-31.56031	-1.134248E-005	0.0001613	9
	10	33	30046.88	66.55275	-47.37062	1	81.68993	-35.44233	-7.044818E-006	0.0006912	9
	11	36	23859.38	68.82215	-57.14886	1	89.45659	-39.70572	2.144404E-005	-0.0003511	9
	12	38	18984.38	71.45599	-68.92473	1	99.2803	-43.96699	-9.484854E-006	0.0001412	9
	13	40	15046.87	74.4703	-83.99922	1	112.2573	-48.4411	-9.363458E-006	0.0001307	9
	14	43	11953.13	77.89807	-102.1951	1	128.4989	-52.6836	9.149803E-006	-0.0004417	9
	15	45	9515.62	81.73981	-124.9975	1	149.3512	-56.81807	-1.554303E-005	0.0005356	9
	16	47	7546.875	87.04757	-152.5972	1	175.6792	-60.29783	-1.648405E-005	0.0006367	9
	17	50	5928.309	92.87674	-188.9103	1	210.507	-63.81921	1.759404E-005	-0.000143	9
	18	52	4733.456	100.1795	-230.94	1	251.7325	-66.54929	1.150391E-005	8.134047E-005	9
	19	54	3796.875	108.451	-280.9036	1	301.112	-68.88947	4.149985E-006	0.0003388	9
	20	57	2987.132	119.8254	-347.7367	1	367.8029	-70.98673	-1.355573E-005	0.0002766	9
	21	59	2390.625	130.7674	-425.6613	1	445.295	-72.92252	1.587707E-005	-0.0005638	9
	22	61	1884.191	147.9868	-524.2015	1	544.6901	-74.23515	3.251974E-006	-0.0005726	8
	23	64	1516.544	165.4042	-637.3326	1	658.4462	-75.45124	-2.791093E-007	0.0015406	8
	24	66	1193.986	189.9479	-789.363	1	811.8954	-76.4699	-3.343095E-006	0.0018016	8
	25	68	946.5144	222.7766	-972.931	1	998.11	-77.10304	-2.836778E-006	0.0012177	8
	26	71	751.7689	255.9101	-1200.114	1	1227.096	-77.96264	3.280503E-006	-0.0005892	8
	27	73	597.4265	301.768	-1475.199	1	1505.747	-78.43902	-3.590935E-006	0.0014915	8
	28	75	477.4305	352.236	-1803.324	1	1837.402	-78.9478	4.623303E-007	0.0006716	8
	29	78	376.6741	420.7997	-2232.065	1	2271.385	-79.32363	4.566705E-007	0.0006687	8
	30	80	298.2954	503.3267	-2753.197	1	2798.826	-79.63985	4.714003E-007	0.0006641	8
	31	82	237.7717	600.7596	-3376.645	1	3429.671	-79.91172	4.742759E-007	0.0006612	8
	32	85	189.0121	719.7725	-4151.294	1	4213.231	-80.16356	4.627811E-007	0.0006676	8
	33	87	150.2404	866.9149	-5116.521	1	5189.444	-80.38345	4.633556E-008	0.0006448	7
	34	90	119.1737	1042.059	-6307.874	1	6393.369	-80.61948	4.700935E-008	0.0006356	7
	35	92	95.0169	1249.214	-7743.566	1	7843.683	-80.83584	4.658386E-008	0.000637	7
	36	94	75.60484	1502.77	-9529.05	1	9646.82	-81.03803	4.698404E-008	0.0006372	7
	37	97	54.50582	1968.466	-12837.32	1	12987.36	-81.2822	4.737872E-008	0.0006546	7
	38	100	45.95588	2261.472	-14991.56	1	15161.17	-81.42163	4.864906E-008	0.0006352	7
	39	102	37.20238	2706.196	-18184.18	1	18384.45	-81.53529	4.665798E-008	0.0006399	7
	40	104	30.04808	3248.547	-22136.11	1	22373.21	-81.65125	4.546846E-008	0.0006523	7
	41	107	23.91582	3972.012	-27321.07	1	27608.29	-81.72813	4.676382E-008	0.0006341	7
	42	109	18.60119	4918.789	-34329.95	1	34680.54	-81.84616	4.467845E-008	0.0006375	7
	43	111	15.02404	5978.526	-41794.94	1	42220.37	-81.85939	4.816831E-008	0.0006303	7
	44	114	12.01923	7355.965	-51278.89	1	51803.81	-81.8366	5.730294E-009	0.0006864	6
	45	116	9.450605	9268.54	-64004.53	1	64672.14	-81.76024	5.43249E-009	0.0006995	6
	46	119	7.512019	11474.38	-79043.62	1	79872.12	-81.74035	5.543971E-009	0.0006997	6
	47	122	5.978954	14407.09	-97473.9	1	98532.8	-81.59229	5.523533E-009	0.0006807	6
	48	126	4.734848	18205.73	-120764.4	1	122129	-81.42699	5.938434E-009	0.0007117	6
	49	129	3.75601	23211.79	-149437.3	1	151229.3	-81.17092	5.334402E-009	0.0006736	6
	50	135	3.004808	29481.44	-183264.3	1	185620.5	-80.86121	5.788768E-009	0.0006784	6
	51	141	2.372217	38684.72	-227270.7	1	230539.5	-80.34002	5.332141E-009	0.0007163	6
	52	145	1.878005	50457.81	-281685.8	1	286169.3	-79.84443	4.883445E-009	0.0006727	6
	53	150	1.512097	64600.34	-342076	1	348122.4	-79.30576	5.307046E-009	0.0006182	6
	54	156	1.201923	86072.13	-421074.3	1	429781.3	-78.44727	4.976069E-009	0.0006665	6
	55	162	0.956633	114532.4	-515110.7	1	527690	-77.46448	4.067037E-010	1.707445E-005	5
