EXPLAIN
TAG	EISPOT
TITLE	LABEL	Potentiostatic EIS	Test Identifier
DATE	LABEL	2/25/2021	Date
TIME	LABEL	16:17:12	Time
NOTES	NOTES	1	Notes...
	
PSTAT	PSTAT	REF3000-16137	Potentiostat
VDC	POTEN	0.00000E+000	T	DC Voltage (V)
FREQINIT	QUANT	3.00000E+005	Initial Freq. (Hz)
FREQFINAL	QUANT	1.00000E+000	Final Freq. (Hz)
PTSPERDEC	QUANT	1.00000E+001	Points/decade
VAC	QUANT	5.00000E+001	AC Voltage (mV rms)
AREA	QUANT	1.00000E+000	Sample Area (cm^2)
SPEED	SELECTOR	2	Optimize for:
ZGUESS	QUANT	1.00000E+003	Estimated Z (ohms)
EOC	QUANT	0	Open Circuit (V)
SEQUENCER	TOGGLE	TRUE	Run as Sequence
PSTATMODEL	IQUANT	5	Pstat Model
PSTATSECTION	LABEL	REF3000-16137	Pstat Section
PSTATSERIALNO	LABEL	16137	Pstat Serial Number
CTRLMODE	IQUANT	1	Control Mode
IESTAB	IQUANT	0	I/E Stability
CASPEED	IQUANT	1	Control Amp Speed
CONVENTION	IQUANT	1	Current Convention
ICHRANGE	IQUANT	2	Ich Range
ICHRANGEMODE	TOGGLE	F	Ich Auto Range
ICHOFFSETENABLE	TOGGLE	T	Ich Offset Enable
ICHOFFSET	QUANT	0	Ich Offset (V)
ICHFILTER	IQUANT	3	Ich Filter
VCHRANGE	IQUANT	2	Vch Range
VCHRANGEMODE	TOGGLE	F	Vch Auto Range
VCHOFFSETENABLE	TOGGLE	T	Vch Offset Enable
VCHOFFSET	QUANT	0	Vch Offset (V)
VCHFILTER	IQUANT	3	Vch Filter
ACHRANGE	IQUANT	2	Ach Range
ACHOFFSETENABLE	TOGGLE	F	Ach Offset Enable
ACHOFFSET	QUANT	0	Ach Offset (V)
ACHFILTER	IQUANT	3	Ach Filter
IERANGELOWERLIMIT	IQUANT	2	I/E Range Lower Limit
IERANGEMODE	TOGGLE	F	I/E AutoRange
IERANGE	IQUANT	11	I/E Range
POSFEEDENABLE	TOGGLE	F	Positive Feedback IR Comp
POSFEEDRESISTANCE	QUANT	0	Positive Feedback Resistance (ohm)
ACHSELECT	IQUANT	0	Ach Select
CABLEID	IQUANT	13	Cable ID
DCCALDATE	LABEL	7/31/2020	DC Calibration Date
ACCALDATE	LABEL	7/31/2020	AC Calibration Date
THERMOSELECT	IQUANT	1	Thermo Select
FRAMEWORKVERSION	QUANT	6.33	Framework Version
INSTRUMENTVERSION	LABEL	3.50	Instrument Version
COMPLIANCEVOLTAGE	IQUANT	0	Compliance Voltage
ZCURVE	TABLE
	Pt	Time	Freq	Zreal	Zimag	Zsig	Zmod	Zphz	Idc	Vdc	IERange
	#	s	Hz	ohm	ohm	V	ohm	°	A	V	#
	0	7	300046.9	182.9376	-15.47922	1	183.5913	-4.836547	-6.728486E-006	0.0012312	9
	1	10	238359.4	184.2037	-13.91283	1	184.7284	-4.319325	-6.913047E-006	0.0011574	9
	2	13	189328.1	187.2706	-11.26368	1	187.6091	-3.441995	5.154254E-005	-0.0003628	9
	3	16	150421.9	187.085	-10.48273	1	187.3785	-3.207038	5.162347E-005	-0.0002627	9
	4	18	119484.4	187.9062	-9.388974	1	188.1406	-2.860478	1.903006E-005	-0.0012831	9
	5	21	94921.88	188.5626	-8.031632	1	188.7336	-2.438981	2.175222E-005	-0.0008374	9
	6	23	75421.88	189.5181	-7.236187	1	189.6562	-2.186607	-1.445363E-005	0.0009433	9
	7	26	59859.37	190.3793	-6.55341	1	190.4921	-1.971509	-2.277553E-005	0.0006342	9
	8	29	47578.12	191.1997	-6.207709	1	191.3004	-1.859578	-1.54839E-005	0.0009099	9
	9	31	37828.12	191.8514	-5.665742	1	191.9351	-1.691563	-1.43077E-005	0.0009567	9
	10	34	30046.88	192.6731	-5.403324	1	192.7488	-1.606382	7.364402E-006	-0.0006315	9
	11	36	23859.38	193.2991	-5.037302	1	193.3647	-1.492769	2.127265E-005	-0.0006688	9
	12	38	18984.38	193.8999	-5.311143	1	193.9727	-1.569005	-1.613033E-005	0.000936	9
	13	41	15046.87	193.9123	-5.401937	1	193.9875	-1.595712	1.427642E-005	-0.0007177	9
	14	43	11953.13	194.8829	-5.433315	1	194.9586	-1.596987	-1.884792E-005	0.0005589	9
	15	45	9515.62	195.6868	-5.942026	1	195.777	-1.739251	2.438427E-005	-0.000728	9
	16	48	7546.875	196.5778	-6.089694	1	196.6721	-1.774372	-2.304445E-005	0.0007294	9
	17	50	5928.309	197.2024	-7.053483	1	197.3285	-2.048467	-2.041365E-005	0.0009551	9
	18	52	4733.456	197.7643	-7.985593	1	197.9254	-2.31231	-1.98734E-006	-0.0003181	9
	19	55	3796.875	198.9405	-8.93478	1	199.1411	-2.571529	-7.397915E-006	0.0007773	9
	20	57	2987.132	199.4739	-10.29223	1	199.7392	-2.953665	-1.584731E-005	0.0001774	9
	21	59	2390.625	200.0673	-12.07758	1	200.4315	-3.454616	-1.066765E-005	-1.793905E-005	9
	22	62	1884.191	201.7164	-14.45162	1	202.2334	-4.097854	2.667479E-005	-0.0006121	9
	23	64	1516.544	202.5141	-16.38865	1	203.1762	-4.626632	-2.318953E-006	-0.0002973	9
	24	66	1193.986	203.9841	-19.48582	1	204.9126	-5.456688	2.528135E-005	-0.0007465	9
	25	69	946.5144	205.6958	-23.03663	1	206.9817	-6.390138	-1.568005E-005	0.0009345	9
	26	71	751.7689	207.3153	-27.39337	1	209.1172	-7.527109	1.480568E-005	-0.0007127	9
	27	73	597.4265	209.4966	-32.45052	1	211.9949	-8.805006	1.218807E-005	0.0002475	9
	28	76	477.4305	211.8672	-38.60918	1	215.3564	-10.32785	1.232174E-006	8.993795E-005	9
	29	78	376.6741	214.7595	-46.29536	1	219.6928	-12.165	1.179228E-006	8.349687E-005	9
	30	80	298.2954	218.0647	-55.43322	1	225.0001	-14.2628	1.14772E-006	8.734244E-005	9
	31	83	237.7717	221.7962	-66.1296	1	231.4447	-16.6022	1.236663E-006	8.397016E-005	9
	32	85	189.0121	226.1434	-79.16734	1	239.6003	-19.29392	1.17262E-006	8.559105E-005	9
	33	87	150.2404	231.2311	-94.90143	1	249.9482	-22.31414	1.218975E-006	8.016137E-005	9
	34	90	119.1737	237.1149	-114.1037	1	263.1409	-25.69764	1.206687E-006	8.718305E-005	9
	35	92	95.0169	243.7615	-136.8536	1	279.5507	-29.31091	1.170863E-006	8.605157E-005	9
	36	95	75.60484	251.5336	-164.6955	1	300.6555	-33.21539	1.243694E-006	7.971234E-005	9
	37	97	54.50582	264.865	-215.3496	1	341.3633	-39.11298	1.244457E-006	7.810118E-005	9
	38	100	45.95588	273.2269	-248.0765	1	369.0459	-42.2379	1.211227E-006	8.32827E-005	9
	39	102	37.20238	283.8994	-294.7419	1	409.233	-46.07347	-4.458776E-008	0.0006574	8
	40	105	30.04808	298.0719	-352.7967	1	461.8575	-49.80611	-6.016222E-008	0.0006661	8
	41	107	23.91582	316.1781	-427.9924	1	532.1147	-53.54498	-5.092502E-009	0.0006652	8
	42	109	18.60119	340.7557	-530.1131	1	630.186	-57.26717	8.472907E-008	0.0006554	8
	43	112	15.02404	366.8185	-635.8927	1	734.1085	-60.02124	5.842884E-008	0.0006458	8
	44	114	12.01923	399.8662	-769.3801	1	867.0864	-62.53797	-1.174031E-007	0.0006569	8
	45	116	9.450605	443.6569	-943.9394	1	1043.002	-64.82621	5.81103E-009	0.0006653	8
	46	119	7.512019	495.9519	-1147.972	1	1250.523	-66.63447	-5.068161E-008	0.0006615	8
	47	122	5.978954	559.2213	-1392.134	1	1500.255	-68.11464	-5.81932E-008	0.0006569	8
	48	125	4.734848	640.1357	-1696.263	1	1813.031	-69.3245	-3.526423E-008	0.0006599	8
	49	128	3.75601	736.1495	-2061.685	1	2189.169	-70.35028	-6.161586E-008	0.0006588	8
	50	131	3.004808	849.8829	-2484.852	1	2626.174	-71.118	-1.712917E-008	0.0006294	8
	51	135	2.372217	994.384	-3027.866	1	3186.969	-71.81925	-3.022258E-008	0.0006176	8
	52	139	1.878005	1174.381	-3680.711	1	3863.522	-72.30401	-3.710103E-008	0.0006648	8
	53	144	1.512097	1375.551	-4415.221	1	4624.535	-72.6957	-1.127426E-007	0.0005163	7
	54	149	1.201923	1617.743	-5353.701	1	5592.782	-73.18661	-1.182557E-007	0.0006562	7
	55	156	0.956633	1901.445	-6477.056	1	6750.389	-73.63954	-1.19159E-007	-7.17084E-006	7
