EXPLAIN
TAG	EISPOT
TITLE	LABEL	Potentiostatic EIS	Test Identifier
DATE	LABEL	2/25/2021	Date
TIME	LABEL	16:32:09	Time
NOTES	NOTES	1	Notes...
	
PSTAT	PSTAT	REF3000-16137	Potentiostat
VDC	POTEN	0.00000E+000	T	DC Voltage (V)
FREQINIT	QUANT	3.00000E+005	Initial Freq. (Hz)
FREQFINAL	QUANT	1.00000E+000	Final Freq. (Hz)
PTSPERDEC	QUANT	1.00000E+001	Points/decade
VAC	QUANT	5.00000E+001	AC Voltage (mV rms)
AREA	QUANT	1.00000E+000	Sample Area (cm^2)
SPEED	SELECTOR	2	Optimize for:
ZGUESS	QUANT	1.00000E+003	Estimated Z (ohms)
EOC	QUANT	0	Open Circuit (V)
SEQUENCER	TOGGLE	TRUE	Run as Sequence
PSTATMODEL	IQUANT	5	Pstat Model
PSTATSECTION	LABEL	REF3000-16137	Pstat Section
PSTATSERIALNO	LABEL	16137	Pstat Serial Number
CTRLMODE	IQUANT	1	Control Mode
IESTAB	IQUANT	0	I/E Stability
CASPEED	IQUANT	1	Control Amp Speed
CONVENTION	IQUANT	1	Current Convention
ICHRANGE	IQUANT	2	Ich Range
ICHRANGEMODE	TOGGLE	F	Ich Auto Range
ICHOFFSETENABLE	TOGGLE	T	Ich Offset Enable
ICHOFFSET	QUANT	0	Ich Offset (V)
ICHFILTER	IQUANT	3	Ich Filter
VCHRANGE	IQUANT	2	Vch Range
VCHRANGEMODE	TOGGLE	F	Vch Auto Range
VCHOFFSETENABLE	TOGGLE	T	Vch Offset Enable
VCHOFFSET	QUANT	0	Vch Offset (V)
VCHFILTER	IQUANT	3	Vch Filter
ACHRANGE	IQUANT	2	Ach Range
ACHOFFSETENABLE	TOGGLE	F	Ach Offset Enable
ACHOFFSET	QUANT	0	Ach Offset (V)
ACHFILTER	IQUANT	3	Ach Filter
IERANGELOWERLIMIT	IQUANT	2	I/E Range Lower Limit
IERANGEMODE	TOGGLE	F	I/E AutoRange
IERANGE	IQUANT	11	I/E Range
POSFEEDENABLE	TOGGLE	F	Positive Feedback IR Comp
POSFEEDRESISTANCE	QUANT	0	Positive Feedback Resistance (ohm)
ACHSELECT	IQUANT	0	Ach Select
CABLEID	IQUANT	13	Cable ID
DCCALDATE	LABEL	7/31/2020	DC Calibration Date
ACCALDATE	LABEL	7/31/2020	AC Calibration Date
THERMOSELECT	IQUANT	1	Thermo Select
FRAMEWORKVERSION	QUANT	6.33	Framework Version
INSTRUMENTVERSION	LABEL	3.50	Instrument Version
COMPLIANCEVOLTAGE	IQUANT	0	Compliance Voltage
ZCURVE	TABLE
	Pt	Time	Freq	Zreal	Zimag	Zsig	Zmod	Zphz	Idc	Vdc	IERange
	#	s	Hz	ohm	ohm	V	ohm	°	A	V	#
	0	12	300046.9	268.4674	-37.75725	1	271.1095	-8.005569	1.235539E-005	-0.0019123	9
	1	17	238359.4	272.1756	-32.46082	1	274.1044	-6.801213	-1.87368E-005	0.0009553	9
	2	25	189328.1	274.8547	-28.06827	1	276.2842	-5.830853	-1.389574E-005	0.0013368	9
	3	33	150421.9	279.2874	-23.43248	1	280.2686	-4.795938	1.97492E-005	-0.0012936	9
	4	42	119484.4	281.679	-22.58922	1	282.5833	-4.585017	-0.0001	0.0006152	10
	5	46	94921.88	283.907	-17.43769	1	284.442	-3.514717	2.933312E-005	-0.0009184	9
	6	49	75421.88	285.3989	-15.48126	1	285.8185	-3.104926	2.849264E-005	-0.0006559	9
	7	52	59859.37	287.3596	-13.52512	1	287.6778	-2.694743	-2.195611E-005	0.0009638	9
	8	56	47578.12	288.8604	-12.20426	1	289.1181	-2.419289	-2.41273E-005	0.0007287	9
	9	59	37828.12	289.8894	-10.77378	1	290.0895	-2.128425	1.674848E-005	-0.0008485	9
	10	63	30046.88	291.6477	-10.01829	1	291.8198	-1.967374	2.263417E-005	-0.0008234	9
	11	67	23859.38	292.9286	-9.180514	1	293.0724	-1.795088	8.344254E-006	-0.0006618	9
	12	69	18984.38	294.1648	-9.008887	1	294.3027	-1.754153	-2.208681E-005	0.0009839	9
	13	72	15046.87	295.5375	-8.496628	1	295.6596	-1.646785	1.881357E-006	0.0006484	9
	14	74	11953.13	297.3716	-8.389955	1	297.49	-1.616097	1.576785E-005	-0.0007403	9
	15	76	9515.62	297.7817	-8.732597	1	297.9097	-1.679746	2.189167E-006	0.0005615	9
	16	79	7546.875	297.7498	-9.59596	1	297.9044	-1.845906	-2.375663E-005	0.0007251	9
	17	81	5928.309	299.6743	-10.05286	1	299.8429	-1.92132	7.366348E-006	-0.0006171	9
	18	83	4733.456	301.315	-10.9366	1	301.5134	-2.078708	-2.395259E-005	0.0007139	9
	19	86	3796.875	301.2008	-11.571	1	301.423	-2.200005	-1.625747E-005	0.001037	9
	20	88	2987.132	303.6162	-13.36444	1	303.9102	-2.520392	1.447642E-006	0.0006269	9
	21	90	2390.625	304.7491	-15.70641	1	305.1536	-2.950346	2.636427E-005	-0.0007868	9
	22	92	1884.191	304.814	-19.52542	1	305.4388	-3.665179	-2.11675E-005	0.000981	9
	23	95	1516.544	308.0827	-20.55247	1	308.7675	-3.816597	-1.468574E-006	-0.0003729	9
	24	97	1193.986	310.0341	-24.76332	1	311.0215	-4.566684	1.158807E-005	0.0003133	9
	25	100	946.5144	312.0585	-29.0503	1	313.4078	-5.318477	-1.025863E-005	-5.500106E-005	9
	26	102	751.7689	315.3386	-34.66481	1	317.2382	-6.273272	1.390465E-006	0.0006285	9
	27	104	597.4265	317.7506	-41.15372	1	320.4046	-7.379628	2.747309E-005	-0.0004724	9
	28	107	477.4305	320.799	-48.66248	1	324.4689	-8.625525	1.228904E-006	8.426095E-005	9
	29	109	376.6741	324.8037	-58.28553	1	329.9919	-10.17336	1.260569E-006	7.527642E-005	9
	30	111	298.2954	329.3939	-69.66673	1	336.6805	-11.94206	1.150682E-006	8.373137E-005	9
	31	114	237.7717	334.6216	-82.92229	1	344.7429	-13.91804	1.215118E-006	7.995791E-005	9
	32	116	189.0121	340.7411	-98.9487	1	354.8174	-16.1929	1.147825E-006	8.397975E-005	9
	33	118	150.2404	346.3779	-117.6221	1	365.804	-18.75632	-9.631108E-008	0.00066	8
	34	121	119.1737	354.5949	-140.7951	1	381.5244	-21.656	-1.219735E-007	0.000672	8
	35	123	95.0169	363.8433	-168.0466	1	400.7762	-24.79058	-9.196549E-008	0.0006627	8
	36	126	75.60484	374.5511	-201.1681	1	425.1554	-28.23985	-9.544523E-008	0.0006571	8
	37	128	54.50582	392.501	-260.9695	1	471.3407	-33.61948	-1.079997E-007	0.0006612	8
	38	131	45.95588	403.6304	-299.4317	1	502.5703	-36.56973	-1.133649E-007	0.0006541	8
	39	133	37.20238	419.0514	-355.5292	1	549.5499	-40.31175	-1.207625E-007	0.0006725	8
	40	136	30.04808	437.1093	-423.7091	1	608.7642	-44.10816	-4.747396E-008	0.0006449	8
	41	138	23.91582	459.5972	-511.916	1	687.959	-48.08257	-5.646278E-008	0.0006644	8
	42	140	18.60119	489.4033	-631.8428	1	799.2126	-52.23989	-4.02607E-008	0.0006752	8
	43	143	15.02404	520.1761	-756.6725	1	918.2246	-55.49334	-2.074351E-008	0.0006788	8
	44	145	12.01923	558.7047	-913.8881	1	1071.141	-58.5605	-1.11243E-007	0.0006715	8
	45	147	9.450605	609.5042	-1121.098	1	1276.07	-61.46852	-7.520733E-008	0.0006548	8
	46	150	7.512019	669.0511	-1363.121	1	1518.463	-63.85714	-8.287298E-008	0.0006388	8
	47	153	5.978954	742.5617	-1654.319	1	1813.331	-65.82648	-6.393791E-008	0.0006668	8
	48	156	4.734848	834.5343	-2019.171	1	2184.834	-67.54443	-9.801147E-008	0.0006401	8
	49	159	3.75601	946.0463	-2456.447	1	2632.325	-68.93691	-6.762755E-008	0.0006761	8
	50	162	3.004808	1077.814	-2966.288	1	3156.034	-70.03116	-7.630513E-008	0.0006914	8
	51	166	2.372217	1247.699	-3621.116	1	3830.044	-70.988	-7.816191E-008	0.0007035	8
	52	170	1.878005	1464.054	-4418.384	1	4654.629	-71.66712	-6.44341E-008	0.0006085	7
	53	175	1.512097	1700.455	-5298.151	1	5564.347	-72.20584	-6.765979E-008	0.0007308	7
	54	180	1.201923	1993.761	-6432.471	1	6734.372	-72.77905	-6.529409E-008	0.0006107	7
	55	187	0.956633	2341.81	-7792.171	1	8136.462	-73.27271	-8.724412E-008	-4.533662E-006	7
