EXPLAIN
TAG	EISPOT
TITLE	LABEL	Potentiostatic EIS	Test Identifier
DATE	LABEL	2/25/2021	Date
TIME	LABEL	16:14:26	Time
NOTES	NOTES	1	Notes...
	
PSTAT	PSTAT	REF3000-16137	Potentiostat
VDC	POTEN	0.00000E+000	T	DC Voltage (V)
FREQINIT	QUANT	3.00000E+005	Initial Freq. (Hz)
FREQFINAL	QUANT	1.00000E+000	Final Freq. (Hz)
PTSPERDEC	QUANT	1.00000E+001	Points/decade
VAC	QUANT	5.00000E+001	AC Voltage (mV rms)
AREA	QUANT	1.00000E+000	Sample Area (cm^2)
SPEED	SELECTOR	2	Optimize for:
ZGUESS	QUANT	1.00000E+003	Estimated Z (ohms)
EOC	QUANT	0	Open Circuit (V)
SEQUENCER	TOGGLE	TRUE	Run as Sequence
PSTATMODEL	IQUANT	5	Pstat Model
PSTATSECTION	LABEL	REF3000-16137	Pstat Section
PSTATSERIALNO	LABEL	16137	Pstat Serial Number
CTRLMODE	IQUANT	1	Control Mode
IESTAB	IQUANT	0	I/E Stability
CASPEED	IQUANT	1	Control Amp Speed
CONVENTION	IQUANT	1	Current Convention
ICHRANGE	IQUANT	2	Ich Range
ICHRANGEMODE	TOGGLE	F	Ich Auto Range
ICHOFFSETENABLE	TOGGLE	T	Ich Offset Enable
ICHOFFSET	QUANT	0	Ich Offset (V)
ICHFILTER	IQUANT	3	Ich Filter
VCHRANGE	IQUANT	2	Vch Range
VCHRANGEMODE	TOGGLE	F	Vch Auto Range
VCHOFFSETENABLE	TOGGLE	T	Vch Offset Enable
VCHOFFSET	QUANT	0	Vch Offset (V)
VCHFILTER	IQUANT	3	Vch Filter
ACHRANGE	IQUANT	2	Ach Range
ACHOFFSETENABLE	TOGGLE	F	Ach Offset Enable
ACHOFFSET	QUANT	0	Ach Offset (V)
ACHFILTER	IQUANT	3	Ach Filter
IERANGELOWERLIMIT	IQUANT	2	I/E Range Lower Limit
IERANGEMODE	TOGGLE	F	I/E AutoRange
IERANGE	IQUANT	11	I/E Range
POSFEEDENABLE	TOGGLE	F	Positive Feedback IR Comp
POSFEEDRESISTANCE	QUANT	0	Positive Feedback Resistance (ohm)
ACHSELECT	IQUANT	0	Ach Select
CABLEID	IQUANT	13	Cable ID
DCCALDATE	LABEL	7/31/2020	DC Calibration Date
ACCALDATE	LABEL	7/31/2020	AC Calibration Date
THERMOSELECT	IQUANT	1	Thermo Select
FRAMEWORKVERSION	QUANT	6.33	Framework Version
INSTRUMENTVERSION	LABEL	3.50	Instrument Version
COMPLIANCEVOLTAGE	IQUANT	0	Compliance Voltage
ZCURVE	TABLE
	Pt	Time	Freq	Zreal	Zimag	Zsig	Zmod	Zphz	Idc	Vdc	IERange
	#	s	Hz	ohm	ohm	V	ohm	°	A	V	#
	0	7	300046.9	173.1517	-13.7447	1	173.6964	-4.538595	-8.839926E-006	-0.0015428	9
	1	10	238359.4	174.0027	-11.96941	1	174.4139	-3.935098	-7.252295E-005	0.002958	9
	2	13	189328.1	175.1296	-10.13903	1	175.4228	-3.313407	8.062465E-005	-0.0025097	9
	3	16	150421.9	177.0766	-9.297213	1	177.3204	-3.005493	2.802102E-005	0.0005247	9
	4	19	119484.4	177.6207	-8.118896	1	177.8062	-2.617121	4.858588E-005	-0.00014	9
	5	23	94921.88	178.4401	-7.250901	1	178.5873	-2.32693	3.058814E-006	-0.0004747	9
	6	25	75421.88	179.1277	-6.47156	1	179.2446	-2.069092	2.369014E-005	-0.0001745	9
	7	28	59859.37	179.964	-5.968174	1	180.063	-1.899412	-2.005556E-005	0.0008905	9
	8	30	47578.12	180.4528	-5.389711	1	180.5333	-1.710785	-2.191295E-005	0.0009091	9
	9	33	37828.12	181.2329	-5.301144	1	181.3105	-1.675449	2.617717E-005	-0.0004404	9
	10	35	30046.88	181.8764	-5.089666	1	181.9476	-1.602958	2.634973E-005	-0.0005967	9
	11	38	23859.38	182.399	-4.925394	1	182.4655	-1.546805	2.558417E-005	-0.0006425	9
	12	40	18984.38	182.9781	-4.93327	1	183.0446	-1.544377	2.661518E-005	-0.0006129	9
	13	42	15046.87	183.3437	-4.6678	1	183.4031	-1.458395	2.634716E-005	-0.0005877	9
	14	45	11953.13	184.066	-5.348274	1	184.1437	-1.664334	2.083502E-005	-0.0007671	9
	15	47	9515.62	184.7818	-5.624146	1	184.8674	-1.743355	2.710631E-005	-0.0003453	9
	16	49	7546.875	185.3297	-6.139394	1	185.4313	-1.897337	2.724615E-005	-0.000718	9
	17	51	5928.309	186.2732	-6.895157	1	186.4008	-2.119914	1.173553E-005	0.0002524	9
	18	54	4733.456	186.7117	-7.60735	1	186.8666	-2.333159	-7.030992E-006	0.000821	9
	19	56	3796.875	187.7571	-8.500202	1	187.9494	-2.592143	-3.401989E-006	-0.0002911	9
	20	58	2987.132	188.1589	-10.02472	1	188.4258	-3.049717	-1.981042E-005	0.0009342	9
	21	61	2390.625	189.1718	-11.39906	1	189.5149	-3.448344	2.472049E-005	-0.0007004	9
	22	63	1884.191	190.3739	-12.85024	1	190.8071	-3.861606	-2.246099E-005	0.0008568	9
	23	65	1516.544	191.3772	-15.59459	1	192.0115	-4.65852	1.865552E-006	0.0005802	9
	24	68	1193.986	192.8615	-18.79744	1	193.7754	-5.566807	-2.227594E-005	0.0008359	9
	25	70	946.5144	194.167	-22.28031	1	195.4411	-6.545956	-2.165933E-005	0.0005104	9
	26	72	751.7689	195.8348	-26.22133	1	197.5825	-7.626268	2.11181E-005	-0.000792	9
	27	75	597.4265	197.8842	-31.35775	1	200.3533	-9.004513	-2.135233E-005	0.0005107	9
	28	77	477.4305	200.0244	-37.12137	1	203.4398	-10.51358	1.210474E-006	8.529385E-005	9
	29	79	376.6741	202.7465	-44.53876	1	207.5809	-12.38977	1.208825E-006	8.318437E-005	9
	30	82	298.2954	205.8584	-53.3728	1	212.6649	-14.535	1.17836E-006	8.946058E-005	9
	31	84	237.7717	209.3789	-63.71984	1	218.8601	-16.92647	1.172103E-006	8.226812E-005	9
	32	87	189.0121	213.4999	-76.34162	1	226.7383	-19.67564	1.25572E-006	8.9009E-005	9
	33	89	150.2404	218.273	-91.59669	1	236.713	-22.76501	1.165754E-006	8.398948E-005	9
	34	91	119.1737	223.8818	-110.2565	1	249.5587	-26.21916	1.175049E-006	0.0000967	9
	35	94	95.0169	230.1861	-132.3555	1	265.5251	-29.89861	1.224587E-006	8.528135E-005	9
	36	96	75.60484	237.5978	-159.4206	1	286.1252	-33.86036	1.187246E-006	8.523582E-005	9
	37	99	54.50582	250.3489	-208.7073	1	325.9345	-39.8168	1.220729E-006	8.163595E-005	9
	38	101	45.95588	258.4038	-240.5643	1	353.0492	-42.95239	1.269746E-006	8.29858E-005	9
	39	104	37.20238	268.707	-285.9514	1	392.3922	-46.78075	-8.146921E-008	0.0006658	8
	40	106	30.04808	282.4283	-342.4536	1	443.8921	-50.48692	-9.04685E-009	0.0006655	8
	41	108	23.91582	300.0879	-415.6167	1	512.6304	-54.16957	3.309193E-008	0.0006578	8
	42	111	18.60119	323.9976	-514.7724	1	608.2476	-57.8137	2.895194E-008	0.0006664	8
	43	113	15.02404	349.3617	-617.8528	1	709.7856	-60.51423	8.661682E-008	0.0006749	8
	44	115	12.01923	381.7041	-747.114	1	838.9739	-62.93729	-1.135359E-007	0.0006642	8
	45	118	9.450605	424.5424	-916.9148	1	1010.43	-65.1553	-3.734029E-008	0.0006955	8
	46	120	7.512019	475.139	-1114.231	1	1211.308	-66.90526	3.08391E-009	0.0006928	8
	47	123	5.978954	537.5213	-1351.467	1	1454.439	-68.31072	3.317546E-010	0.0006644	8
	48	126	4.734848	616.4646	-1645.13	1	1756.839	-69.45798	1.314895E-009	0.0006945	8
	49	129	3.75601	711.1467	-1999.598	1	2122.292	-70.42233	-1.720688E-008	0.0006728	8
	50	133	3.004808	822.0369	-2408.812	1	2545.215	-71.15715	-4.581301E-008	0.0007016	8
	51	137	2.372217	962.593	-2935.841	1	3089.619	-71.8469	-1.256377E-008	0.0007203	8
	52	141	1.878005	1136.199	-3566.067	1	3742.698	-72.32738	-2.304717E-009	0.0006426	8
	53	146	1.512097	1330.439	-4276.916	1	4479.071	-72.72042	-1.005958E-007	0.0007352	7
	54	151	1.201923	1563.184	-5182.853	1	5413.457	-73.21632	-1.028108E-007	0.0006087	7
	55	157	0.956633	1837.364	-6272.715	1	6536.272	-73.67397	-1.231138E-007	-4.636799E-006	7
