May 10, 2026   18:42:52
A.C. Impedance
File: e:\chi_data\Data Source:  Experiment
Instrument Model:  CHI660E
Header: 
Note: 

Init E (V) = 0
High Frequency (Hz) = 1e+6
Low Frequency (Hz) = 0.1
Imp SF
Amplitude (V) = 0.005
Quiet Time (sec) = 2
Cycles (.1-1Hz) = 1

Freq/Hz, Z'/ohm, Z"/ohm, Z/ohm, Phase/deg

8.252e+5, 4.934e+0, 1.166e+1, 1.267e+1, 67.1
6.816e+5, 4.454e+0, 9.373e+0, 1.038e+1, 64.6
5.625e+5, 3.928e+0, 7.679e+0, 8.626e+0, 62.9
4.639e+5, 3.720e+0, 6.178e+0, 7.212e+0, 58.9
3.828e+5, 3.565e+0, 5.039e+0, 6.172e+0, 54.7
3.164e+5, 3.501e+0, 4.038e+0, 5.344e+0, 49.1
2.607e+5, 3.439e+0, 3.201e+0, 4.698e+0, 43.0
2.158e+5, 3.405e+0, 2.453e+0, 4.196e+0, 35.8
1.777e+5, 3.391e+0, 1.794e+0, 3.836e+0, 27.9
1.465e+5, 3.402e+0, 1.204e+0, 3.609e+0, 19.5
1.211e+5, 3.424e+0, 6.848e-1, 3.492e+0, 11.3
9.961e+4, 3.467e+0, 2.090e-1, 3.474e+0, 3.5
8.252e+4, 3.526e+0, -2.413e-1, 3.535e+0, -3.9
6.812e+4, 3.601e+0, -6.812e-1, 3.664e+0, -10.7
5.625e+4, 3.685e+0, -1.122e+0, 3.852e+0, -16.9
4.644e+4, 3.787e+0, -1.587e+0, 4.106e+0, -22.7
3.833e+4, 3.901e+0, -2.083e+0, 4.422e+0, -28.1
3.164e+4, 4.033e+0, -2.618e+0, 4.808e+0, -33.0
2.612e+4, 4.185e+0, -3.213e+0, 5.276e+0, -37.5
2.153e+4, 4.354e+0, -3.882e+0, 5.834e+0, -41.7
1.777e+4, 4.552e+0, -4.644e+0, 6.503e+0, -45.6
1.470e+4, 4.780e+0, -5.521e+0, 7.302e+0, -49.1
1.211e+4, 5.040e+0, -6.536e+0, 8.253e+0, -52.4
1.001e+4, 5.342e+0, -7.725e+0, 9.392e+0, -55.3
8.252e+3, 5.694e+0, -9.121e+0, 1.075e+1, -58.0
6.812e+3, 6.101e+0, -1.075e+1, 1.236e+1, -60.4
5.625e+3, 6.571e+0, -1.266e+1, 1.427e+1, -62.6
4.643e+3, 7.114e+0, -1.490e+1, 1.651e+1, -64.5
3.833e+3, 7.746e+0, -1.753e+1, 1.916e+1, -66.2
3.164e+3, 8.504e+0, -2.062e+1, 2.231e+1, -67.6
2.612e+3, 9.432e+0, -2.428e+1, 2.604e+1, -68.8
2.153e+3, 1.055e+1, -2.860e+1, 3.048e+1, -69.7
1.777e+3, 1.187e+1, -3.369e+1, 3.572e+1, -70.6
1.470e+3, 1.345e+1, -3.970e+1, 4.191e+1, -71.3
1.211e+3, 1.534e+1, -4.673e+1, 4.919e+1, -71.8
1.001e+3, 1.768e+1, -5.497e+1, 5.774e+1, -72.2
8.252e+2, 2.050e+1, -6.457e+1, 6.775e+1, -72.4
6.836e+2, 2.389e+1, -7.589e+1, 7.956e+1, -72.5
5.615e+2, 2.797e+1, -8.920e+1, 9.348e+1, -72.6
4.639e+2, 3.291e+1, -1.048e+2, 1.098e+2, -72.6
3.809e+2, 3.878e+1, -1.227e+2, 1.286e+2, -72.5
3.174e+2, 4.588e+1, -1.435e+2, 1.506e+2, -72.3
2.588e+2, 5.439e+1, -1.676e+2, 1.762e+2, -72.0
2.148e+2, 6.469e+1, -1.957e+2, 2.061e+2, -71.7
1.758e+2, 7.685e+1, -2.282e+2, 2.408e+2, -71.4
1.465e+2, 9.069e+1, -2.643e+2, 2.795e+2, -71.1
1.221e+2, 1.080e+2, -3.078e+2, 3.261e+2, -70.7
9.766e+1, 1.291e+2, -3.571e+2, 3.797e+2, -70.1
8.254e+1, 1.530e+2, -4.119e+2, 4.394e+2, -69.6
6.813e+1, 1.800e+2, -4.761e+2, 5.090e+2, -69.3
5.623e+1, 2.104e+2, -5.503e+2, 5.892e+2, -69.1
4.642e+1, 2.451e+2, -6.368e+2, 6.823e+2, -69.0
3.831e+1, 2.858e+2, -7.371e+2, 7.906e+2, -68.8
3.162e+1, 3.337e+2, -8.532e+2, 9.161e+2, -68.6
2.610e+1, 3.891e+2, -9.870e+2, 1.061e+3, -68.5
2.154e+1, 4.536e+2, -1.141e+3, 1.228e+3, -68.3
1.778e+1, 5.284e+2, -1.319e+3, 1.421e+3, -68.2
1.468e+1, 6.148e+2, -1.525e+3, 1.644e+3, -68.0
1.212e+1, 7.157e+2, -1.760e+3, 1.900e+3, -67.9
1.000e+1, 8.335e+2, -2.033e+3, 2.197e+3, -67.7
8.254e+0, 9.673e+2, -2.348e+3, 2.540e+3, -67.6
6.813e+0, 1.118e+3, -2.714e+3, 2.936e+3, -67.6
5.623e+0, 1.288e+3, -3.139e+3, 3.393e+3, -67.7
4.642e+0, 1.480e+3, -3.635e+3, 3.925e+3, -67.9
3.831e+0, 1.698e+3, -4.210e+3, 4.540e+3, -68.0
3.162e+0, 1.946e+3, -4.888e+3, 5.261e+3, -68.3
2.610e+0, 2.232e+3, -5.681e+3, 6.104e+3, -68.5
2.154e+0, 2.545e+3, -6.655e+3, 7.125e+3, -69.1
1.778e+0, 2.900e+3, -7.813e+3, 8.334e+3, -69.6
1.468e+0, 3.334e+3, -9.109e+3, 9.700e+3, -69.9
1.212e+0, 3.854e+3, -1.056e+4, 1.124e+4, -69.9
1.000e+0, 4.464e+3, -1.217e+4, 1.296e+4, -69.9
8.254e-1, 5.168e+3, -1.397e+4, 1.490e+4, -69.7
6.813e-1, 5.960e+3, -1.601e+4, 1.709e+4, -69.6
5.623e-1, 6.833e+3, -1.838e+4, 1.961e+4, -69.6
4.642e-1, 7.777e+3, -2.117e+4, 2.255e+4, -69.8
3.831e-1, 8.806e+3, -2.438e+4, 2.592e+4, -70.1
3.162e-1, 9.928e+3, -2.806e+4, 2.977e+4, -70.5
2.610e-1, 1.113e+4, -3.240e+4, 3.426e+4, -71.0
2.154e-1, 1.243e+4, -3.753e+4, 3.953e+4, -71.7
1.778e-1, 1.385e+4, -4.361e+4, 4.576e+4, -72.4
1.468e-1, 1.539e+4, -5.081e+4, 5.309e+4, -73.1
1.212e-1, 1.722e+4, -5.943e+4, 6.188e+4, -73.8
1.000e-1, 1.939e+4, -6.960e+4, 7.225e+4, -74.4
