May 10, 2026   22:06:01
A.C. Impedance
File: e:\chi_data\Data Source:  Experiment
Instrument Model:  CHI660E
Header: 
Note: 

Init E (V) = 0
High Frequency (Hz) = 1e+6
Low Frequency (Hz) = 0.1
Imp SF
Amplitude (V) = 0.005
Quiet Time (sec) = 2
Cycles (.1-1Hz) = 1

Freq/Hz, Z'/ohm, Z"/ohm, Z/ohm, Phase/deg

8.252e+5, 5.274e+1, 5.516e+0, 5.303e+1, 6.0
6.816e+5, 5.304e+1, 3.324e+0, 5.315e+1, 3.6
5.625e+5, 5.252e+1, 2.679e+0, 5.259e+1, 2.9
4.639e+5, 5.296e+1, 1.471e+0, 5.298e+1, 1.6
3.828e+5, 5.327e+1, 9.614e-1, 5.328e+1, 1.0
3.164e+5, 5.374e+1, 3.289e-1, 5.374e+1, 0.4
2.607e+5, 5.398e+1, -1.155e-1, 5.398e+1, -0.1
2.158e+5, 5.414e+1, -6.570e-1, 5.415e+1, -0.7
1.777e+5, 5.440e+1, -1.319e+0, 5.442e+1, -1.4
1.465e+5, 5.470e+1, -1.909e+0, 5.473e+1, -2.0
1.211e+5, 5.486e+1, -1.031e+0, 5.487e+1, -1.1
9.961e+4, 5.502e+1, 3.735e-1, 5.502e+1, 0.4
8.252e+4, 5.518e+1, 6.473e-1, 5.518e+1, 0.7
6.812e+4, 5.537e+1, -6.778e-2, 5.537e+1, -0.1
5.625e+4, 5.560e+1, -1.480e+0, 5.562e+1, -1.5
4.644e+4, 5.590e+1, -3.062e+0, 5.598e+1, -3.1
3.833e+4, 5.626e+1, -4.684e+0, 5.645e+1, -4.8
3.164e+4, 5.675e+1, -6.283e+0, 5.709e+1, -6.3
2.612e+4, 5.734e+1, -7.887e+0, 5.788e+1, -7.8
2.153e+4, 5.796e+1, -9.642e+0, 5.876e+1, -9.4
1.777e+4, 5.864e+1, -1.162e+1, 5.978e+1, -11.2
1.470e+4, 5.945e+1, -1.386e+1, 6.104e+1, -13.1
1.211e+4, 6.044e+1, -1.634e+1, 6.261e+1, -15.1
1.001e+4, 6.159e+1, -1.913e+1, 6.450e+1, -17.3
8.252e+3, 6.291e+1, -2.231e+1, 6.675e+1, -19.5
6.812e+3, 6.443e+1, -2.592e+1, 6.945e+1, -21.9
5.625e+3, 6.615e+1, -3.006e+1, 7.265e+1, -24.4
4.643e+3, 6.809e+1, -3.481e+1, 7.647e+1, -27.1
3.833e+3, 7.025e+1, -4.030e+1, 8.099e+1, -29.8
3.164e+3, 7.267e+1, -4.665e+1, 8.636e+1, -32.7
2.612e+3, 7.541e+1, -5.402e+1, 9.276e+1, -35.6
2.153e+3, 7.848e+1, -6.263e+1, 1.004e+2, -38.6
1.777e+3, 8.189e+1, -7.265e+1, 1.095e+2, -41.6
1.470e+3, 8.572e+1, -8.436e+1, 1.203e+2, -44.5
1.211e+3, 9.005e+1, -9.808e+1, 1.332e+2, -47.4
1.001e+3, 9.508e+1, -1.141e+2, 1.485e+2, -50.2
8.252e+2, 1.008e+2, -1.327e+2, 1.667e+2, -52.8
6.836e+2, 1.074e+2, -1.547e+2, 1.883e+2, -55.2
5.615e+2, 1.150e+2, -1.809e+2, 2.144e+2, -57.6
4.639e+2, 1.240e+2, -2.121e+2, 2.457e+2, -59.7
3.809e+2, 1.342e+2, -2.485e+2, 2.824e+2, -61.6
3.174e+2, 1.460e+2, -2.913e+2, 3.259e+2, -63.4
2.588e+2, 1.597e+2, -3.419e+2, 3.774e+2, -65.0
2.148e+2, 1.759e+2, -4.017e+2, 4.385e+2, -66.4
1.758e+2, 1.946e+2, -4.714e+2, 5.100e+2, -67.6
1.465e+2, 2.158e+2, -5.507e+2, 5.915e+2, -68.6
1.221e+2, 2.426e+2, -6.484e+2, 6.923e+2, -69.5
9.766e+1, 2.766e+2, -7.615e+2, 8.102e+2, -70.0
8.254e+1, 3.161e+2, -8.899e+2, 9.443e+2, -70.4
6.813e+1, 3.609e+2, -1.043e+3, 1.104e+3, -70.9
5.623e+1, 4.121e+2, -1.224e+3, 1.292e+3, -71.4
4.642e+1, 4.733e+2, -1.437e+3, 1.513e+3, -71.8
3.831e+1, 5.467e+2, -1.688e+3, 1.774e+3, -72.1
3.162e+1, 6.344e+2, -1.983e+3, 2.082e+3, -72.3
2.610e+1, 7.401e+2, -2.326e+3, 2.441e+3, -72.3
2.154e+1, 8.671e+2, -2.726e+3, 2.860e+3, -72.4
1.778e+1, 1.019e+3, -3.191e+3, 3.350e+3, -72.3
1.468e+1, 1.200e+3, -3.732e+3, 3.920e+3, -72.2
1.212e+1, 1.421e+3, -4.355e+3, 4.581e+3, -71.9
1.000e+1, 1.689e+3, -5.080e+3, 5.354e+3, -71.6
8.254e+0, 2.003e+3, -5.926e+3, 6.256e+3, -71.3
6.813e+0, 2.369e+3, -6.907e+3, 7.302e+3, -71.1
5.623e+0, 2.794e+3, -8.043e+3, 8.514e+3, -70.8
4.642e+0, 3.286e+3, -9.361e+3, 9.921e+3, -70.7
3.831e+0, 3.862e+3, -1.088e+4, 1.155e+4, -70.5
3.162e+0, 4.536e+3, -1.266e+4, 1.345e+4, -70.3
2.610e+0, 5.325e+3, -1.474e+4, 1.568e+4, -70.1
2.154e+0, 6.195e+3, -1.726e+4, 1.834e+4, -70.3
1.778e+0, 7.179e+3, -2.019e+4, 2.143e+4, -70.4
1.468e+0, 8.366e+3, -2.345e+4, 2.490e+4, -70.4
1.212e+0, 9.801e+3, -2.712e+4, 2.884e+4, -70.1
1.000e+0, 1.153e+4, -3.127e+4, 3.333e+4, -69.8
8.254e-1, 1.355e+4, -3.593e+4, 3.840e+4, -69.3
6.813e-1, 1.584e+4, -4.120e+4, 4.414e+4, -69.0
5.623e-1, 1.846e+4, -4.728e+4, 5.076e+4, -68.7
4.642e-1, 2.145e+4, -5.429e+4, 5.837e+4, -68.4
3.831e-1, 2.486e+4, -6.236e+4, 6.713e+4, -68.3
3.162e-1, 2.876e+4, -7.161e+4, 7.717e+4, -68.1
2.610e-1, 3.322e+4, -8.218e+4, 8.864e+4, -68.0
2.154e-1, 3.828e+4, -9.434e+4, 1.018e+5, -67.9
1.778e-1, 4.399e+4, -1.083e+5, 1.169e+5, -67.9
1.468e-1, 5.035e+4, -1.242e+5, 1.340e+5, -67.9
1.212e-1, 5.791e+4, -1.430e+5, 1.543e+5, -67.9
1.000e-1, 6.692e+4, -1.650e+5, 1.781e+5, -67.9
