EXPLAIN
TAG	EISPOT
TITLE	LABEL	Potentiostatic EIS	Test Identifier
DATE	LABEL	8/9/2020	Date
TIME	LABEL	13:27:39	Time
NOTES	NOTES	1	Notes...
	
PSTAT	PSTAT	REF3000-16137	Potentiostat
VDC	POTEN	0.00000E+000	T	DC Voltage (V)
FREQINIT	QUANT	3.00000E+005	Initial Freq. (Hz)
FREQFINAL	QUANT	1.00000E+000	Final Freq. (Hz)
PTSPERDEC	QUANT	1.00000E+001	Points/decade
VAC	QUANT	5.00000E+001	AC Voltage (mV rms)
AREA	QUANT	1.00000E+000	Sample Area (cm^2)
SPEED	SELECTOR	2	Optimize for:
ZGUESS	QUANT	1.00000E+003	Estimated Z (ohms)
EOC	QUANT	0	Open Circuit (V)
SEQUENCER	TOGGLE	TRUE	Run as Sequence
PSTATMODEL	IQUANT	5	Pstat Model
PSTATSECTION	LABEL	REF3000-16137	Pstat Section
PSTATSERIALNO	LABEL	16137	Pstat Serial Number
CTRLMODE	IQUANT	1	Control Mode
IESTAB	IQUANT	0	I/E Stability
CASPEED	IQUANT	1	Control Amp Speed
CONVENTION	IQUANT	1	Current Convention
ICHRANGE	IQUANT	2	Ich Range
ICHRANGEMODE	TOGGLE	F	Ich Auto Range
ICHOFFSETENABLE	TOGGLE	T	Ich Offset Enable
ICHOFFSET	QUANT	0	Ich Offset (V)
ICHFILTER	IQUANT	3	Ich Filter
VCHRANGE	IQUANT	2	Vch Range
VCHRANGEMODE	TOGGLE	F	Vch Auto Range
VCHOFFSETENABLE	TOGGLE	T	Vch Offset Enable
VCHOFFSET	QUANT	0	Vch Offset (V)
VCHFILTER	IQUANT	3	Vch Filter
ACHRANGE	IQUANT	2	Ach Range
ACHOFFSETENABLE	TOGGLE	F	Ach Offset Enable
ACHOFFSET	QUANT	0	Ach Offset (V)
ACHFILTER	IQUANT	3	Ach Filter
IERANGELOWERLIMIT	IQUANT	2	I/E Range Lower Limit
IERANGEMODE	TOGGLE	F	I/E AutoRange
IERANGE	IQUANT	11	I/E Range
POSFEEDENABLE	TOGGLE	F	Positive Feedback IR Comp
POSFEEDRESISTANCE	QUANT	0	Positive Feedback Resistance (ohm)
ACHSELECT	IQUANT	0	Ach Select
CABLEID	IQUANT	13	Cable ID
DCCALDATE	LABEL	7/31/2020	DC Calibration Date
ACCALDATE	LABEL	7/31/2020	AC Calibration Date
THERMOSELECT	IQUANT	1	Thermo Select
FRAMEWORKVERSION	QUANT	6.33	Framework Version
INSTRUMENTVERSION	LABEL	3.50	Instrument Version
COMPLIANCEVOLTAGE	IQUANT	0	Compliance Voltage
ZCURVE	TABLE
	Pt	Time	Freq	Zreal	Zimag	Zsig	Zmod	Zphz	Idc	Vdc	IERange
	#	s	Hz	ohm	ohm	V	ohm	°	A	V	#
	0	8	300046.9	8.801475	0.7608169	1	8.834296	4.940479	3.503635E-005	0.0002276	10
	1	11	238359.4	8.916905	0.4505486	1	8.928281	2.89255	3.245425E-005	0.0002684	10
	2	14	189328.1	9.026135	0.1811302	1	9.027952	1.149617	2.768317E-005	0.0004278	10
	3	17	150421.9	9.149912	-0.0404751	1	9.150002	-0.2534493	-1.270784E-005	0.0005535	10
	4	19	119484.4	9.274834	-0.2463548	1	9.278105	-1.521512	5.190639E-006	0.000475	10
	5	22	94921.88	9.432571	-0.4002522	1	9.441059	-2.429774	1.550637E-005	0.0005708	10
	6	24	75421.88	9.58217	-0.5684549	1	9.59902	-3.395047	-2.715775E-005	0.0006017	10
	7	27	59859.37	9.74825	-0.7224602	1	9.77498	-4.238545	-2.237726E-005	0.0006698	10
	8	30	47578.12	9.94779	-0.8645709	1	9.98529	-4.967142	-1.769642E-005	0.0006324	10
	9	33	37828.12	10.13771	-0.997801	1	10.18669	-5.621213	-1.810892E-005	0.000632	10
	10	36	30046.88	10.33723	-1.128487	1	10.39865	-6.230153	1.737334E-005	0.0006693	10
	11	38	23859.38	10.54522	-1.258451	1	10.62004	-6.805413	-2.472639E-005	0.0007491	10
	12	40	18984.38	10.77263	-1.399604	1	10.86317	-7.402525	1.393135E-005	0.0006314	10
	13	43	15046.87	11.01305	-1.551965	1	11.12186	-8.021336	2.466643E-005	0.0006607	10
	14	45	11953.13	11.24709	-1.707527	1	11.37597	-8.632692	-2.92214E-005	0.0006532	10
	15	47	9515.62	11.52214	-1.895627	1	11.67703	-9.342635	-2.905266E-005	0.0006532	10
	16	50	7546.875	12.03149	-2.202302	1	12.23139	-10.37287	2.374541E-005	0.0006241	10
	17	52	5928.309	12.60413	-2.564301	1	12.86234	-11.49984	-4.923343E-006	0.0006731	10
	18	54	4733.456	12.9484	-2.857291	1	13.25991	-12.44389	-2.583259E-005	0.0006969	10
	19	57	3796.875	13.2892	-3.189777	1	13.66665	-13.49724	-2.511856E-005	0.0007055	10
	20	59	2987.132	13.67233	-3.634741	1	14.14723	-14.88753	-2.16298E-005	0.0006925	10
	21	61	2390.625	14.0566	-4.14525	1	14.65508	-16.43063	-7.263008E-006	0.0006472	10
	22	63	1884.191	14.49183	-4.818347	1	15.27186	-18.3913	2.198698E-005	0.0006256	10
	23	66	1516.544	14.87272	-5.581841	1	15.88568	-20.57148	-2.665751E-005	0.0006917	10
	24	68	1193.986	15.27653	-6.623896	1	16.65077	-23.44154	2.062295E-005	0.0006436	10
	25	71	946.5144	15.6963	-7.903246	1	17.57371	-26.72572	2.23518E-005	0.0006192	10
	26	73	751.7689	16.13528	-9.51332	1	18.73101	-30.52348	2.37985E-005	0.0006353	10
	27	75	597.4265	16.62687	-11.53403	1	20.23577	-34.74898	-2.7955E-005	0.0006956	10
	28	77	477.4305	17.06354	-13.9683	1	22.05171	-39.30392	-2.8924E-006	0.0006679	10
	29	80	376.6741	17.61706	-17.19052	1	24.61452	-44.29792	-2.559963E-006	0.0006574	10
	30	82	298.2954	18.31039	-21.16551	1	27.98659	-49.13676	-2.316311E-006	0.0006692	10
	31	84	237.7717	19.0728	-25.94654	1	32.2024	-53.68111	-2.779575E-006	0.0006632	10
	32	87	189.0121	20.01815	-31.92755	1	37.68415	-57.91284	-2.871865E-006	0.0006665	10
	33	89	150.2404	21.18109	-39.27131	1	44.61922	-61.65968	8.482651E-007	7.050703E-005	9
	34	92	119.1737	22.70604	-48.46732	1	53.52238	-64.89778	8.340703E-007	6.982978E-005	9
	35	94	95.0169	24.5745	-59.53604	1	64.40843	-67.57079	3.72001E-007	0.0001215	9
	36	97	75.60484	27.01172	-73.26616	1	78.08689	-69.76211	7.917313E-007	6.372054E-005	9
	37	99	54.50582	31.72532	-98.5068	1	103.4896	-72.14822	8.371005E-007	6.15774E-005	9
	38	102	45.95588	34.92951	-114.9512	1	120.141	-73.09788	5.893287E-007	0.0001236	9
	39	104	37.20238	39.83463	-139.0371	1	144.631	-74.0128	8.651251E-007	7.283747E-005	9
	40	106	30.04808	46.13322	-168.3684	1	174.5743	-74.67694	8.960474E-007	7.056537E-005	9
	41	109	23.91582	54.81454	-206.3881	1	213.5432	-75.12621	7.989992E-007	6.604078E-005	9
	42	111	18.60119	67.36612	-257.651	1	266.3123	-75.34731	1.145377E-006	6.549409E-005	9
	43	113	15.02404	81.247	-310.7997	1	321.2437	-75.34999	9.23608E-007	5.910047E-005	9
	44	116	12.01923	99.5733	-377.1509	1	390.0739	-75.21055	9.621338E-007	6.85797E-005	9
	45	118	9.450605	124.5003	-461.624	1	478.1182	-74.9064	2.682262E-008	0.0006421	8
	46	121	7.512019	155.3867	-560.8858	1	582.012	-74.51524	3.286443E-008	0.0006469	8
	47	123	5.978954	193.7592	-679.0182	1	706.1221	-74.07379	2.843607E-008	0.0006465	8
	48	126	4.734848	243.5054	-824.3645	1	859.5765	-73.54362	4.182926E-008	0.0006728	8
	49	130	3.75601	305.4043	-998.086	1	1043.766	-72.98642	-4.493695E-008	0.0006293	8
	50	133	3.004808	379.3304	-1197.741	1	1256.374	-72.42675	-2.994493E-008	0.0007115	8
	51	137	2.372217	479.9016	-1450.803	1	1528.115	-71.69664	4.680435E-008	0.0006949	8
	52	141	1.878005	603.1501	-1756.929	1	1857.577	-71.05276	-5.128176E-009	0.0006304	8
	53	146	1.512097	743.1149	-2092.303	1	2220.35	-70.44669	7.728567E-008	0.000593	8
	54	151	1.201923	941.0934	-2522.771	1	2692.588	-69.54249	1.508507E-008	0.0006827	8
	55	157	0.956633	1187.864	-3029.063	1	3253.651	-68.58709	4.649942E-008	1.75987E-006	8
