EXPLAIN
TAG	EISPOT
TITLE	LABEL	Potentiostatic EIS	Test Identifier
DATE	LABEL	8/9/2020	Date
TIME	LABEL	13:30:26	Time
NOTES	NOTES	1	Notes...
	
PSTAT	PSTAT	REF3000-16137	Potentiostat
VDC	POTEN	0.00000E+000	T	DC Voltage (V)
FREQINIT	QUANT	3.00000E+005	Initial Freq. (Hz)
FREQFINAL	QUANT	1.00000E+000	Final Freq. (Hz)
PTSPERDEC	QUANT	1.00000E+001	Points/decade
VAC	QUANT	5.00000E+001	AC Voltage (mV rms)
AREA	QUANT	1.00000E+000	Sample Area (cm^2)
SPEED	SELECTOR	2	Optimize for:
ZGUESS	QUANT	1.00000E+003	Estimated Z (ohms)
EOC	QUANT	0	Open Circuit (V)
SEQUENCER	TOGGLE	TRUE	Run as Sequence
PSTATMODEL	IQUANT	5	Pstat Model
PSTATSECTION	LABEL	REF3000-16137	Pstat Section
PSTATSERIALNO	LABEL	16137	Pstat Serial Number
CTRLMODE	IQUANT	1	Control Mode
IESTAB	IQUANT	0	I/E Stability
CASPEED	IQUANT	1	Control Amp Speed
CONVENTION	IQUANT	1	Current Convention
ICHRANGE	IQUANT	2	Ich Range
ICHRANGEMODE	TOGGLE	F	Ich Auto Range
ICHOFFSETENABLE	TOGGLE	T	Ich Offset Enable
ICHOFFSET	QUANT	0	Ich Offset (V)
ICHFILTER	IQUANT	3	Ich Filter
VCHRANGE	IQUANT	2	Vch Range
VCHRANGEMODE	TOGGLE	F	Vch Auto Range
VCHOFFSETENABLE	TOGGLE	T	Vch Offset Enable
VCHOFFSET	QUANT	0	Vch Offset (V)
VCHFILTER	IQUANT	3	Vch Filter
ACHRANGE	IQUANT	2	Ach Range
ACHOFFSETENABLE	TOGGLE	F	Ach Offset Enable
ACHOFFSET	QUANT	0	Ach Offset (V)
ACHFILTER	IQUANT	3	Ach Filter
IERANGELOWERLIMIT	IQUANT	2	I/E Range Lower Limit
IERANGEMODE	TOGGLE	F	I/E AutoRange
IERANGE	IQUANT	11	I/E Range
POSFEEDENABLE	TOGGLE	F	Positive Feedback IR Comp
POSFEEDRESISTANCE	QUANT	0	Positive Feedback Resistance (ohm)
ACHSELECT	IQUANT	0	Ach Select
CABLEID	IQUANT	13	Cable ID
DCCALDATE	LABEL	7/31/2020	DC Calibration Date
ACCALDATE	LABEL	7/31/2020	AC Calibration Date
THERMOSELECT	IQUANT	1	Thermo Select
FRAMEWORKVERSION	QUANT	6.33	Framework Version
INSTRUMENTVERSION	LABEL	3.50	Instrument Version
COMPLIANCEVOLTAGE	IQUANT	0	Compliance Voltage
ZCURVE	TABLE
	Pt	Time	Freq	Zreal	Zimag	Zsig	Zmod	Zphz	Idc	Vdc	IERange
	#	s	Hz	ohm	ohm	V	ohm	°	A	V	#
	0	8	300046.9	12.85719	0.6810713	1	12.87522	3.032238	-9.097323E-005	0.0003439	10
	1	11	238359.4	13.01889	0.3381639	1	13.02328	1.487916	-1.79848E-005	0.0003356	10
	2	14	189328.1	13.20421	0.059131	1	13.20435	0.2565798	2.068614E-005	0.0003467	10
	3	16	150421.9	13.3826	-0.1757551	1	13.38376	-0.752428	2.412493E-005	0.0005428	10
	4	19	119484.4	13.57922	-0.4000066	1	13.58511	-1.687288	-9.106238E-005	0.0007132	10
	5	21	94921.88	13.79381	-0.5794762	1	13.80598	-2.405573	-2.758791E-005	0.0006641	10
	6	24	75421.88	14.00828	-0.7645587	1	14.02913	-3.124049	1.884972E-005	0.0005565	10
	7	26	59859.37	14.23775	-0.9349511	1	14.26841	-3.757052	-2.888856E-005	0.0006475	10
	8	29	47578.12	14.48717	-1.092294	1	14.52829	-4.311788	-1.387847E-005	0.0006191	10
	9	32	37828.12	14.74676	-1.241543	1	14.79893	-4.812436	-6.55563E-006	0.0006353	10
	10	34	30046.88	15.01921	-1.388812	1	15.08328	-5.283062	9.621023E-007	0.0006056	10
	11	37	23859.38	15.29084	-1.538639	1	15.36806	-5.746039	-1.855348E-005	0.0006355	10
	12	39	18984.38	15.57918	-1.691976	1	15.67079	-6.198309	-3.075404E-005	0.00067	10
	13	41	15046.87	15.88063	-1.856956	1	15.98883	-6.669431	-2.736135E-005	0.0006531	10
	14	44	11953.13	16.18412	-2.031032	1	16.31107	-7.152959	7.884243E-006	0.0006942	10
	15	46	9515.62	16.50483	-2.225143	1	16.65415	-7.678189	1.350096E-005	0.0006337	10
	16	48	7546.875	16.83363	-2.445842	1	17.01039	-8.266938	7.76314E-006	0.0006924	10
	17	50	5928.309	17.17402	-2.713732	1	17.3871	-8.979284	2.390872E-005	0.0006536	10
	18	53	4733.456	17.50867	-3.01083	1	17.76566	-9.75728	6.044541E-006	0.000676	10
	19	55	3796.875	17.83254	-3.35879	1	18.1461	-10.66679	-1.91284E-005	0.0006472	10
	20	57	2987.132	18.19742	-3.819861	1	18.59402	-11.85496	-2.870028E-005	0.0006879	10
	21	60	2390.625	18.52116	-4.337894	1	19.02238	-13.1818	-5.77402E-006	0.0006347	10
	22	62	1884.191	18.9009	-5.051591	1	19.56432	-14.96353	-1.962914E-005	0.0006578	10
	23	64	1516.544	19.2638	-5.862986	1	20.13625	-16.92776	2.168314E-005	0.0006593	10
	24	67	1193.986	19.65977	-6.972589	1	20.85961	-19.52771	-4.695688E-006	0.0006849	10
	25	69	946.5144	20.03146	-8.332178	1	21.69526	-22.5851	2.476965E-005	0.0006726	10
	26	71	751.7689	20.43092	-10.02752	1	22.75904	-26.14186	-2.842376E-005	0.0006899	10
	27	74	597.4265	20.86858	-12.16158	1	24.15371	-30.23235	2.052938E-005	0.0006553	10
	28	76	477.4305	21.32486	-14.7563	1	25.93257	-34.68231	-2.135931E-006	0.0006718	10
	29	78	376.6741	21.85975	-18.18842	1	28.43707	-39.76217	-2.409092E-006	0.000665	10
	30	81	298.2954	22.52236	-22.42583	1	31.78325	-44.87695	-2.874165E-006	0.0006683	10
	31	83	237.7717	23.26636	-27.54624	1	36.05716	-49.81459	-2.098607E-006	0.0006713	10
	32	85	189.0121	24.2205	-33.92663	1	41.68512	-54.47664	1.180239E-006	7.208541E-005	9
	33	88	150.2404	25.36929	-41.86402	1	48.95096	-58.78445	1.248368E-006	6.943911E-005	9
	34	90	119.1737	26.85925	-51.7764	1	58.32851	-62.58176	1.130437E-006	7.652901E-005	9
	35	93	95.0169	28.72219	-63.73791	1	69.91055	-65.74226	1.193253E-006	6.126414E-005	9
	36	95	75.60484	31.04028	-78.59234	1	84.50003	-68.44831	1.16967E-006	6.688437E-005	9
	37	98	54.50582	35.47304	-105.9914	1	111.7699	-71.49571	1.200841E-006	6.558149E-005	9
	38	100	45.95588	38.45897	-123.9111	1	129.7423	-72.75694	1.25404E-006	7.16733E-005	9
	39	103	37.20238	43.03875	-150.2919	1	156.3329	-74.01999	1.252692E-006	6.882392E-005	9
	40	106	30.04808	48.77405	-182.5701	1	188.9729	-75.0426	8.651249E-007	0.0001211	9
	41	108	23.91582	56.64248	-224.5372	1	231.5714	-75.84177	1.310988E-006	6.868132E-005	9
	42	111	18.60119	68.00832	-281.7848	1	289.8755	-76.43124	1.225058E-006	6.568921E-005	9
	43	113	15.02404	80.40488	-341.518	1	350.8554	-76.7519	1.239233E-006	6.899625E-005	9
	44	115	12.01923	96.7277	-415.3248	1	426.4399	-76.88971	3.171316E-007	0.0007009	8
	45	118	9.450605	119.9684	-514.2261	1	528.035	-76.86784	3.186357E-007	0.0006342	8
	46	120	7.512019	148.9157	-629.2397	1	646.6208	-76.68536	3.386084E-007	0.0006625	8
	47	123	5.978954	185.3881	-768.0945	1	790.1505	-76.43056	2.475652E-007	0.0006469	8
	48	126	4.734848	232.9054	-940.2328	1	968.65	-76.0873	2.937129E-007	0.0007277	8
	49	129	3.75601	293.3952	-1146.728	1	1183.666	-75.64851	2.137635E-007	0.0006415	8
	50	133	3.004808	366.7922	-1385.623	1	1433.348	-75.17315	2.953662E-007	0.0006188	8
	51	137	2.372217	466.1538	-1690.86	1	1753.941	-74.58698	2.790687E-007	0.0005666	8
	52	141	1.878005	584.6171	-2057.536	1	2138.979	-74.13832	3.242066E-007	0.0006454	8
	53	146	1.512097	718.9206	-2460.598	1	2563.472	-73.71306	2.838883E-007	0.0006586	8
	54	152	1.201923	903.1557	-2988.092	1	3121.6	-73.18247	3.356919E-007	0.0006583	8
	55	158	0.956633	1126.723	-3611.999	1	3783.654	-72.67526	2.895195E-007	8.564625E-006	8
