EXPLAIN
TAG	EISPOT
TITLE	LABEL	Potentiostatic EIS	Test Identifier
DATE	LABEL	8/9/2020	Date
TIME	LABEL	13:38:45	Time
NOTES	NOTES	1	Notes...
	
PSTAT	PSTAT	REF3000-16137	Potentiostat
VDC	POTEN	0.00000E+000	T	DC Voltage (V)
FREQINIT	QUANT	3.00000E+005	Initial Freq. (Hz)
FREQFINAL	QUANT	1.00000E+000	Final Freq. (Hz)
PTSPERDEC	QUANT	1.00000E+001	Points/decade
VAC	QUANT	5.00000E+001	AC Voltage (mV rms)
AREA	QUANT	1.00000E+000	Sample Area (cm^2)
SPEED	SELECTOR	2	Optimize for:
ZGUESS	QUANT	1.00000E+003	Estimated Z (ohms)
EOC	QUANT	0	Open Circuit (V)
SEQUENCER	TOGGLE	TRUE	Run as Sequence
PSTATMODEL	IQUANT	5	Pstat Model
PSTATSECTION	LABEL	REF3000-16137	Pstat Section
PSTATSERIALNO	LABEL	16137	Pstat Serial Number
CTRLMODE	IQUANT	1	Control Mode
IESTAB	IQUANT	0	I/E Stability
CASPEED	IQUANT	1	Control Amp Speed
CONVENTION	IQUANT	1	Current Convention
ICHRANGE	IQUANT	2	Ich Range
ICHRANGEMODE	TOGGLE	F	Ich Auto Range
ICHOFFSETENABLE	TOGGLE	T	Ich Offset Enable
ICHOFFSET	QUANT	0	Ich Offset (V)
ICHFILTER	IQUANT	3	Ich Filter
VCHRANGE	IQUANT	2	Vch Range
VCHRANGEMODE	TOGGLE	F	Vch Auto Range
VCHOFFSETENABLE	TOGGLE	T	Vch Offset Enable
VCHOFFSET	QUANT	0	Vch Offset (V)
VCHFILTER	IQUANT	3	Vch Filter
ACHRANGE	IQUANT	2	Ach Range
ACHOFFSETENABLE	TOGGLE	F	Ach Offset Enable
ACHOFFSET	QUANT	0	Ach Offset (V)
ACHFILTER	IQUANT	3	Ach Filter
IERANGELOWERLIMIT	IQUANT	2	I/E Range Lower Limit
IERANGEMODE	TOGGLE	F	I/E AutoRange
IERANGE	IQUANT	11	I/E Range
POSFEEDENABLE	TOGGLE	F	Positive Feedback IR Comp
POSFEEDRESISTANCE	QUANT	0	Positive Feedback Resistance (ohm)
ACHSELECT	IQUANT	0	Ach Select
CABLEID	IQUANT	13	Cable ID
DCCALDATE	LABEL	7/31/2020	DC Calibration Date
ACCALDATE	LABEL	7/31/2020	AC Calibration Date
THERMOSELECT	IQUANT	1	Thermo Select
FRAMEWORKVERSION	QUANT	6.33	Framework Version
INSTRUMENTVERSION	LABEL	3.50	Instrument Version
COMPLIANCEVOLTAGE	IQUANT	0	Compliance Voltage
ZCURVE	TABLE
	Pt	Time	Freq	Zreal	Zimag	Zsig	Zmod	Zphz	Idc	Vdc	IERange
	#	s	Hz	ohm	ohm	V	ohm	°	A	V	#
	0	7	300046.9	50.28286	1.409324	1	50.30261	1.605461	-5.584109E-005	0.0017823	9
	1	10	238359.4	50.94989	0.961899	1	50.95897	1.081577	1.093041E-005	-0.0014941	9
	2	13	189328.1	51.58111	0.6896804	1	51.58572	0.7660444	7.536631E-006	-0.000891	9
	3	16	150421.9	52.10476	0.5110115	1	52.10727	0.5619038	-7.168873E-006	0.0006761	9
	4	18	119484.4	52.7507	0.3290482	1	52.75172	0.3573949	5.490129E-005	-0.0013921	9
	5	21	94921.88	53.34857	0.3796049	1	53.34992	0.4076847	1.912183E-005	-0.0006477	9
	6	23	75421.88	53.92258	0.1980373	1	53.92294	0.2104249	-1.309892E-005	0.0006486	9
	7	26	59859.37	54.49773	0.0331102	1	54.49774	0.0348101	1.98827E-005	-0.0004995	9
	8	28	47578.12	55.10816	-0.1215002	1	55.10829	-0.1263232	7.766815E-007	-0.0002927	9
	9	31	37828.12	55.75584	-0.2704017	1	55.7565	-0.2778679	-1.28968E-005	0.0001605	9
	10	33	30046.88	56.40195	-0.4007886	1	56.40337	-0.4071333	1.080346E-005	-0.0005118	9
	11	36	23859.38	57.01843	-0.5298016	1	57.02089	-0.5323634	1.719032E-005	-0.0001915	9
	12	38	18984.38	57.63849	-0.6688477	1	57.64237	-0.664841	-1.710173E-005	0.000607	9
	13	40	15046.87	58.2628	-0.8172733	1	58.26853	-0.8036559	1.566443E-005	-0.0005596	9
	14	43	11953.13	58.86713	-1.023909	1	58.87603	-0.996477	-1.387926E-005	0.0007519	9
	15	45	9515.62	59.51373	-1.22656	1	59.52636	-1.180682	2.002243E-005	-0.0005747	9
	16	47	7546.875	60.15251	-1.489088	1	60.17094	-1.418079	2.044185E-005	-0.0006194	9
	17	49	5928.309	60.77767	-1.828498	1	60.80517	-1.723225	1.08135E-005	0.0001166	9
	18	52	4733.456	61.49442	-2.216805	1	61.53436	-2.064555	-1.056711E-005	0.0007056	9
	19	54	3796.875	62.1709	-2.700863	1	62.22954	-2.487511	-4.794921E-006	0.0005627	9
	20	56	2987.132	62.92556	-3.304059	1	63.01224	-3.005694	-9.329866E-006	5.397382E-005	9
	21	59	2390.625	63.62679	-4.022394	1	63.75381	-3.617342	-1.67213E-005	0.0007065	9
	22	61	1884.191	64.39924	-4.99385	1	64.59258	-4.434138	3.556585E-006	0.0003683	9
	23	63	1516.544	65.1882	-6.061803	1	65.46944	-5.312615	-1.761381E-005	0.0007078	9
	24	66	1193.986	66.01643	-7.545156	1	66.44621	-6.520162	-4.510152E-006	0.0006015	9
	25	68	946.5144	66.94841	-9.355421	1	67.59892	-7.955041	2.239498E-005	-0.0003964	9
	26	70	751.7689	67.87143	-11.56784	1	68.85017	-9.67241	2.226419E-005	-0.0004153	9
	27	73	597.4265	68.86366	-14.305	1	70.33375	-11.73511	-1.101363E-005	0.0007312	9
	28	75	477.4305	69.90463	-17.59558	1	72.08511	-14.12833	1.430162E-006	6.89748E-005	9
	29	77	376.6741	71.07067	-21.94558	1	74.38177	-17.15992	1.404816E-006	7.170013E-005	9
	30	80	298.2954	72.38503	-27.28638	1	77.35722	-20.65452	1.388586E-006	7.434772E-005	9
	31	82	237.7717	73.78333	-33.72583	1	81.1259	-24.5648	1.431178E-006	7.164901E-005	9
	32	84	189.0121	75.46433	-41.79609	1	86.26575	-28.97998	1.421427E-006	7.244703E-005	9
	33	87	150.2404	77.30533	-51.79544	1	93.05311	-33.82253	1.448998E-006	6.496001E-005	9
	34	89	119.1737	79.49648	-64.32272	1	102.26	-38.97724	1.40688E-006	7.069879E-005	9
	35	92	95.0169	81.99018	-79.50114	1	114.2052	-44.11698	1.453943E-006	6.861911E-005	9
	36	94	75.60484	84.93301	-98.4571	1	130.0285	-49.21763	1.390044E-006	7.63062E-005	9
	37	97	54.50582	89.79033	-133.6833	1	161.0389	-56.11215	1.352977E-006	6.979065E-005	9
	38	99	45.95588	93.28203	-156.9048	1	182.5395	-59.26795	1.42465E-006	7.360297E-005	9
	39	103	37.20238	98.8019	-191.4025	1	215.399	-62.69724	1.385396E-006	7.079645E-005	9
	40	106	30.04808	104.7595	-233.788	1	256.1862	-65.86303	1.42758E-006	6.120353E-005	9
	41	108	23.91582	112.4237	-289.4347	1	310.502	-68.77258	1.50565E-006	6.888426E-005	9
	42	111	18.60119	122.8621	-366.006	1	386.077	-71.44395	1.468628E-006	6.94783E-005	9
	43	113	15.02404	133.4641	-444.718	1	464.3133	-73.29501	2.389864E-007	0.0006543	8
	44	115	12.01923	147.9864	-547.5184	1	567.1652	-74.87517	3.159735E-007	0.0006539	8
	45	118	9.450605	167.5249	-684.4871	1	704.6895	-76.24747	2.77858E-007	0.0006383	8
	46	120	7.512019	191.5957	-847.0561	1	868.4543	-77.25473	2.869724E-007	0.0006549	8
	47	123	5.978954	220.9628	-1046.309	1	1069.387	-78.07532	2.612235E-007	0.0006569	8
	48	126	4.734848	258.3323	-1298.843	1	1324.284	-78.751	3.068746E-007	0.0006772	8
	49	129	3.75601	306.0155	-1608.858	1	1637.702	-79.23061	2.348926E-007	0.0006374	8
	50	132	3.004808	363.8187	-1976.287	1	2009.496	-79.56909	2.869914E-007	0.0006111	8
	51	136	2.372217	439.5105	-2456.634	1	2495.64	-79.85666	2.741784E-007	0.0005918	8
	52	140	1.878005	540.5889	-3049.324	1	3096.871	-79.94696	2.625447E-007	0.0006504	8
	53	145	1.512097	658.9055	-3722.575	1	3780.439	-79.96246	2.49424E-007	0.0005526	8
	54	152	1.201923	811.7468	-4620.956	1	4691.713	-80.03671	2.825821E-008	0.0005956	7
	55	158	0.956633	1002.84	-5705.948	1	5793.404	-80.03188	2.410301E-009	-1.220102E-005	7
