EXPLAIN
TAG	EISPOT
TITLE	LABEL	Potentiostatic EIS	Test Identifier
DATE	LABEL	8/9/2020	Date
TIME	LABEL	13:47:18	Time
NOTES	NOTES	1	Notes...
	
PSTAT	PSTAT	REF3000-16137	Potentiostat
VDC	POTEN	0.00000E+000	T	DC Voltage (V)
FREQINIT	QUANT	3.00000E+005	Initial Freq. (Hz)
FREQFINAL	QUANT	1.00000E+000	Final Freq. (Hz)
PTSPERDEC	QUANT	1.00000E+001	Points/decade
VAC	QUANT	5.00000E+001	AC Voltage (mV rms)
AREA	QUANT	1.00000E+000	Sample Area (cm^2)
SPEED	SELECTOR	2	Optimize for:
ZGUESS	QUANT	1.00000E+003	Estimated Z (ohms)
EOC	QUANT	0	Open Circuit (V)
SEQUENCER	TOGGLE	TRUE	Run as Sequence
PSTATMODEL	IQUANT	5	Pstat Model
PSTATSECTION	LABEL	REF3000-16137	Pstat Section
PSTATSERIALNO	LABEL	16137	Pstat Serial Number
CTRLMODE	IQUANT	1	Control Mode
IESTAB	IQUANT	0	I/E Stability
CASPEED	IQUANT	1	Control Amp Speed
CONVENTION	IQUANT	1	Current Convention
ICHRANGE	IQUANT	2	Ich Range
ICHRANGEMODE	TOGGLE	F	Ich Auto Range
ICHOFFSETENABLE	TOGGLE	T	Ich Offset Enable
ICHOFFSET	QUANT	0	Ich Offset (V)
ICHFILTER	IQUANT	3	Ich Filter
VCHRANGE	IQUANT	2	Vch Range
VCHRANGEMODE	TOGGLE	F	Vch Auto Range
VCHOFFSETENABLE	TOGGLE	T	Vch Offset Enable
VCHOFFSET	QUANT	0	Vch Offset (V)
VCHFILTER	IQUANT	3	Vch Filter
ACHRANGE	IQUANT	2	Ach Range
ACHOFFSETENABLE	TOGGLE	F	Ach Offset Enable
ACHOFFSET	QUANT	0	Ach Offset (V)
ACHFILTER	IQUANT	3	Ach Filter
IERANGELOWERLIMIT	IQUANT	2	I/E Range Lower Limit
IERANGEMODE	TOGGLE	F	I/E AutoRange
IERANGE	IQUANT	11	I/E Range
POSFEEDENABLE	TOGGLE	F	Positive Feedback IR Comp
POSFEEDRESISTANCE	QUANT	0	Positive Feedback Resistance (ohm)
ACHSELECT	IQUANT	0	Ach Select
CABLEID	IQUANT	13	Cable ID
DCCALDATE	LABEL	7/31/2020	DC Calibration Date
ACCALDATE	LABEL	7/31/2020	AC Calibration Date
THERMOSELECT	IQUANT	1	Thermo Select
FRAMEWORKVERSION	QUANT	6.33	Framework Version
INSTRUMENTVERSION	LABEL	3.50	Instrument Version
COMPLIANCEVOLTAGE	IQUANT	0	Compliance Voltage
ZCURVE	TABLE
	Pt	Time	Freq	Zreal	Zimag	Zsig	Zmod	Zphz	Idc	Vdc	IERange
	#	s	Hz	ohm	ohm	V	ohm	°	A	V	#
	0	14	300046.9	1139.086	-407.1122	1	1209.652	-19.66702	3.364435E-005	-0.0017873	9
	1	30	238359.4	1303.433	-428.4473	1	1372.044	-18.19604	5.206655E-005	-6.377824E-005	9
	2	42	189328.1	1459.335	-425.4638	1	1520.091	-16.25385	2.674599E-005	-0.0015929	9
	3	49	150421.9	1636.593	-425.6782	1	1691.047	-14.57959	-1.491137E-005	0.0018058	9
	4	59	119484.4	1792.908	-336.5194	1	1824.216	-10.63043	-3.018942E-005	-0.0034029	8
	5	65	94921.88	1899.604	-306.8329	1	1924.225	-9.175436	-9.676142E-006	-0.0012185	8
	6	69	75421.88	1975.584	-266.1626	1	1993.433	-7.67303	-8.892484E-006	0.0085445	8
	7	71	59859.37	2061.601	-227.2054	1	2074.083	-6.289086	-2.33645E-005	0.007143	8
	8	75	47578.12	2153.042	-206.0979	1	2162.884	-5.467923	1.348816E-005	-0.007801	8
	9	80	37828.12	2249.743	-178.7859	1	2256.836	-4.543717	-1.906234E-005	0.0031596	8
	10	83	30046.88	2347.285	-160.8395	1	2352.789	-3.919866	2.384115E-005	-0.0050495	8
	11	87	23859.38	2455.074	-145.3497	1	2459.373	-3.388172	-1.664844E-005	0.0101207	8
	12	91	18984.38	2594.262	-138.1701	1	2597.939	-3.048687	1.017786E-005	-0.0008002	9
	13	97	15046.87	2730.305	-120.3401	1	2732.956	-2.523719	1.390719E-005	-0.008214	8
	14	102	11953.13	2881.58	-101.0632	1	2883.351	-2.008662	6.2094E-006	-0.0066706	8
	15	107	9515.62	3048.66	-91.62666	1	3050.037	-1.721491	-2.404256E-005	0.0091505	8
	16	113	7546.875	3222.836	-84.96865	1	3223.956	-1.510228	-1.138166E-006	0.0068787	8
	17	118	5928.309	3396.47	-86.18285	1	3397.564	-1.453525	-2.207008E-006	-0.0043255	8
	18	123	4733.456	3607.407	-76.46474	1	3608.217	-1.214294	1.428963E-005	-0.0084537	8
	19	129	3796.875	3825.919	-70.78209	1	3826.574	-1.05989	-1.725468E-005	0.0106157	8
	20	134	2987.132	4058.05	-60.70991	1	4058.504	-0.8571018	9.011969E-006	0.0035571	8
	21	139	2390.625	4288.083	-65.40985	1	4288.582	-0.8739145	2.065692E-005	-0.0090789	8
	22	146	1884.191	4646.17	-37.39004	1	4646.321	-0.4610776	2.07566E-005	-0.0091449	8
	23	152	1516.544	4917.4	-73.36779	1	4917.948	-0.8547916	-2.042394E-006	-0.0045541	8
	24	157	1193.986	5194.931	-47.35532	1	5195.146	-0.5222754	-4.957165E-006	0.0228888	7
	25	162	946.5144	5403.823	-244.7256	1	5409.361	-2.593011	-2.535857E-005	0.0075169	8
	26	166	751.7689	5713.155	-37.47544	1	5713.278	-0.3758263	1.773126E-005	-0.0001407	8
	27	169	597.4265	5945.422	42.15621	1	5945.571	0.4062508	2.123214E-005	-0.0093013	8
	28	173	477.4305	6159.717	-51.61607	1	6159.934	-0.4801054	-3.794684E-007	0.0006614	8
	29	176	376.6741	6343.762	-47.08348	1	6343.937	-0.4252422	-8.033157E-008	0.000619	7
	30	179	298.2954	6513.311	-54.31002	1	6513.537	-0.477739	-9.055854E-008	0.0005916	7
	31	181	237.7717	6697.733	-63.66177	1	6698.036	-0.5445785	-7.666079E-008	0.0005732	7
	32	183	189.0121	6886.457	-76.08525	1	6886.877	-0.6330086	-9.839355E-008	0.0006685	7
	33	186	150.2404	7082.848	-91.40262	1	7083.438	-0.7393486	-9.290407E-008	0.0005828	7
	34	188	119.1737	7281.477	-109.9806	1	7282.307	-0.8653389	-1.051155E-007	0.0005791	7
	35	191	95.0169	7491.226	-135.2972	1	7492.447	-1.034693	-9.970006E-008	0.0006909	7
	36	193	75.60484	7719.771	-165.9099	1	7721.554	-1.231186	-9.769017E-008	0.0006499	7
	37	196	54.50582	7960.625	-221.5249	1	7963.707	-1.593991	-1.144312E-007	0.000661	7
	38	198	45.95588	8191.884	-259.7073	1	8196	-1.81584	-3.342294E-008	0.0006068	7
	39	201	37.20238	8427.235	-314.0379	1	8433.085	-2.134119	-1.082659E-007	0.000586	7
	40	203	30.04808	8674.059	-382.8699	1	8682.504	-2.527375	-1.115375E-007	0.0005775	7
	41	205	23.91582	8933.764	-483.7297	1	8946.851	-3.099325	-1.72832E-007	0.0005821	7
	42	208	18.60119	9214.774	-607.4769	1	9234.776	-3.771722	-2.544999E-007	0.0006485	7
	43	210	15.02404	9454.595	-727.2172	1	9482.521	-4.398348	-5.581275E-008	0.0006746	7
	44	212	12.01923	9735.45	-876.2294	1	9774.81	-5.14299	-2.363364E-007	0.0006516	7
	45	215	9.450605	10066.09	-1138.332	1	10130.25	-6.451929	-4.91875E-008	0.0005915	7
	46	217	7.512019	10409.25	-1392.072	1	10501.92	-7.617207	-1.232026E-007	0.0006794	7
	47	220	5.978954	10807.46	-1736.783	1	10946.12	-9.129503	-1.288838E-007	0.0006628	7
	48	223	4.734848	11306.56	-2183.675	1	11515.5	-10.93114	-4.020705E-008	0.0006871	7
	49	226	3.75601	11848.87	-2720.674	1	12157.21	-12.93179	-1.412258E-007	0.0006534	7
	50	230	3.004808	12443.69	-3319.446	1	12878.83	-14.93627	-8.764989E-008	0.0006447	7
	51	233	2.372217	13185.17	-4141.261	1	13820.23	-17.43671	-1.195182E-007	0.000591	7
	52	238	1.878005	14038.95	-5155.847	1	14955.77	-20.16591	-1.057822E-007	0.0006229	7
	53	242	1.512097	15069.34	-6315.956	1	16339.41	-22.73984	-9.549266E-008	0.0005105	7
	54	248	1.201923	16373.5	-7893.62	1	18176.93	-25.73859	-9.595854E-008	0.0006364	7
	55	254	0.956633	17919.59	-9814.26	1	20431.14	-28.7088	-9.826517E-008	-2.462183E-005	7
