EXPLAIN
TAG	EISPOT
TITLE	LABEL	Potentiostatic EIS	Test Identifier
DATE	LABEL	8/9/2020	Date
TIME	LABEL	13:22:01	Time
NOTES	NOTES	1	Notes...
	
PSTAT	PSTAT	REF3000-16137	Potentiostat
VDC	POTEN	0.00000E+000	T	DC Voltage (V)
FREQINIT	QUANT	3.00000E+005	Initial Freq. (Hz)
FREQFINAL	QUANT	1.00000E+000	Final Freq. (Hz)
PTSPERDEC	QUANT	1.00000E+001	Points/decade
VAC	QUANT	5.00000E+001	AC Voltage (mV rms)
AREA	QUANT	1.00000E+000	Sample Area (cm^2)
SPEED	SELECTOR	2	Optimize for:
ZGUESS	QUANT	1.00000E+003	Estimated Z (ohms)
EOC	QUANT	0	Open Circuit (V)
SEQUENCER	TOGGLE	TRUE	Run as Sequence
PSTATMODEL	IQUANT	5	Pstat Model
PSTATSECTION	LABEL	REF3000-16137	Pstat Section
PSTATSERIALNO	LABEL	16137	Pstat Serial Number
CTRLMODE	IQUANT	1	Control Mode
IESTAB	IQUANT	0	I/E Stability
CASPEED	IQUANT	1	Control Amp Speed
CONVENTION	IQUANT	1	Current Convention
ICHRANGE	IQUANT	2	Ich Range
ICHRANGEMODE	TOGGLE	F	Ich Auto Range
ICHOFFSETENABLE	TOGGLE	T	Ich Offset Enable
ICHOFFSET	QUANT	0	Ich Offset (V)
ICHFILTER	IQUANT	3	Ich Filter
VCHRANGE	IQUANT	2	Vch Range
VCHRANGEMODE	TOGGLE	F	Vch Auto Range
VCHOFFSETENABLE	TOGGLE	T	Vch Offset Enable
VCHOFFSET	QUANT	0	Vch Offset (V)
VCHFILTER	IQUANT	3	Vch Filter
ACHRANGE	IQUANT	2	Ach Range
ACHOFFSETENABLE	TOGGLE	F	Ach Offset Enable
ACHOFFSET	QUANT	0	Ach Offset (V)
ACHFILTER	IQUANT	3	Ach Filter
IERANGELOWERLIMIT	IQUANT	2	I/E Range Lower Limit
IERANGEMODE	TOGGLE	F	I/E AutoRange
IERANGE	IQUANT	11	I/E Range
POSFEEDENABLE	TOGGLE	F	Positive Feedback IR Comp
POSFEEDRESISTANCE	QUANT	0	Positive Feedback Resistance (ohm)
ACHSELECT	IQUANT	0	Ach Select
CABLEID	IQUANT	13	Cable ID
DCCALDATE	LABEL	7/31/2020	DC Calibration Date
ACCALDATE	LABEL	7/31/2020	AC Calibration Date
THERMOSELECT	IQUANT	1	Thermo Select
FRAMEWORKVERSION	QUANT	6.33	Framework Version
INSTRUMENTVERSION	LABEL	3.50	Instrument Version
COMPLIANCEVOLTAGE	IQUANT	0	Compliance Voltage
ZCURVE	TABLE
	Pt	Time	Freq	Zreal	Zimag	Zsig	Zmod	Zphz	Idc	Vdc	IERange
	#	s	Hz	ohm	ohm	V	ohm	°	A	V	#
	0	10	300046.9	6.175622	0.3881141	1	6.187806	3.59609	6.526872E-005	-3.524929E-006	10
	1	13	238359.4	6.303174	0.023202	1	6.303217	0.210905	7.136159E-005	-0.0002148	10
	2	17	189328.1	6.451444	-0.3220775	1	6.459479	-2.858022	-7.266454E-006	0.0003219	10
	3	20	150421.9	6.602159	-0.6408741	1	6.633191	-5.544353	-0.0001066	0.0003757	10
	4	23	119484.4	6.784788	-0.9352179	1	6.84894	-7.848218	-3.290574E-005	0.0005129	10
	5	25	94921.88	6.995187	-1.195352	1	7.096584	-9.69716	2.102395E-005	0.0005393	10
	6	28	75421.88	7.2065	-1.492518	1	7.359432	-11.70094	-1.068166E-005	0.0005639	10
	7	30	59859.37	7.447739	-1.792985	1	7.660522	-13.53593	-2.397473E-005	0.0006733	10
	8	33	47578.12	7.721958	-2.113525	1	8.005975	-15.30716	-2.78077E-005	0.0006371	10
	9	35	37828.12	8.020766	-2.442706	1	8.38448	-16.938	1.927332E-005	0.0006283	10
	10	38	30046.88	8.363056	-2.807204	1	8.821627	-18.55522	5.826191E-007	0.0006094	10
	11	40	23859.38	8.745206	-3.197397	1	9.31139	-20.08328	1.131605E-005	0.0006267	10
	12	42	18984.38	9.171721	-3.631994	1	9.86468	-21.60353	1.634923E-005	0.0006585	10
	13	45	15046.87	9.66472	-4.107501	1	10.50135	-23.02546	1.620232E-005	0.0006718	10
	14	47	11953.13	10.22664	-4.627213	1	11.22476	-24.34517	2.6018E-006	0.0006287	10
	15	49	9515.62	10.87743	-5.205734	1	12.05895	-25.57489	1.615383E-005	0.000629	10
	16	52	7546.875	11.62962	-5.821789	1	13.00544	-26.59254	1.568904E-005	0.0006127	10
	17	54	5928.309	12.54067	-6.502894	1	14.12643	-27.40875	-2.273127E-005	0.0006876	10
	18	56	4733.456	13.50947	-7.140773	1	15.28059	-27.85983	-2.793084E-005	0.0007334	10
	19	59	3796.875	14.5643	-7.771606	1	16.50808	-28.08467	-2.313669E-005	0.000646	10
	20	61	2987.132	15.79315	-8.39555	1	17.886	-27.99486	-2.727696E-005	0.0006823	10
	21	63	2390.625	17.00813	-8.967417	1	19.22735	-27.80013	2.157299E-005	0.0006613	10
	22	66	1884.191	18.31372	-9.54138	1	20.65019	-27.51936	4.975909E-006	0.0006541	10
	23	68	1516.544	19.48792	-10.07524	1	21.93831	-27.33894	-2.901035E-005	0.0006816	10
	24	70	1193.986	20.73025	-10.73813	1	23.34632	-27.38385	-2.06349E-005	0.0006662	10
	25	73	946.5144	21.81776	-11.55268	1	24.68763	-27.90158	-3.027352E-005	0.0006587	10
	26	75	751.7689	22.83925	-12.57875	1	26.07406	-28.84384	4.872465E-006	0.0006571	10
	27	77	597.4265	23.73111	-13.93623	1	27.52061	-30.42382	-1.601716E-005	0.0006777	10
	28	80	477.4305	24.55361	-15.66885	1	29.12718	-32.54393	-4.882071E-006	0.0006611	10
	29	82	376.6741	25.44045	-18.11252	1	31.22948	-35.44925	-4.530969E-006	0.0006577	10
	30	84	298.2954	26.37519	-21.2454	1	33.86765	-38.85168	-4.499812E-006	0.0006651	10
	31	87	237.7717	27.43882	-25.1383	1	37.21321	-42.49462	-4.798661E-006	0.0006565	10
	32	89	189.0121	28.58882	-30.04595	1	41.47385	-46.42356	-9.499645E-007	6.407772E-005	9
	33	91	150.2404	29.9653	-36.20554	1	46.99746	-50.38734	-9.088849E-007	6.036393E-005	9
	34	94	119.1737	31.80998	-43.94486	1	54.24966	-54.10069	-8.786775E-007	6.042515E-005	9
	35	96	95.0169	34.14212	-53.26492	1	63.26797	-57.34065	-7.371131E-007	5.948924E-005	9
	36	99	75.60484	36.98879	-64.76314	1	74.58173	-60.2676	-7.261123E-007	6.179878E-005	9
	37	101	54.50582	42.73225	-85.70178	1	95.7645	-63.49844	-7.384571E-007	5.176325E-005	9
	38	104	45.95588	46.59282	-99.1837	1	109.5824	-64.83762	-8.390701E-007	6.346275E-005	9
	39	106	37.20238	52.51908	-118.6499	1	129.7538	-66.12394	-7.360142E-007	6.145075E-005	9
	40	108	30.04808	60.12072	-142.0174	1	154.2188	-67.05544	-6.795401E-007	6.641165E-005	9
	41	111	23.91582	70.54063	-171.7499	1	185.6718	-67.6712	-7.730614E-007	6.718127E-005	9
	42	113	18.60119	85.36882	-211.0715	1	227.6819	-67.97891	-8.103249E-007	6.295477E-005	9
	43	115	15.02404	101.2979	-250.9919	1	270.6625	-68.02148	-4.468122E-007	7.012911E-005	9
	44	118	12.01923	122.7553	-300.209	1	324.3368	-67.76038	-7.632987E-007	5.73693E-005	9
	45	120	9.450605	152.0998	-362.8069	1	393.3996	-67.25507	-5.598981E-007	7.362851E-005	9
	46	123	7.512019	187.6789	-431.4079	1	470.4637	-66.48911	-1.725582E-006	0.0006357	8
	47	125	5.978954	233.234	-513.073	1	563.5974	-65.55429	-1.534717E-006	0.0006387	8
	48	128	4.734848	293.5684	-609.4744	1	676.492	-64.28106	-1.544441E-006	0.000616	8
	49	132	3.75601	370.7528	-718.8863	1	808.8604	-62.71839	-1.246248E-006	0.0006612	8
	50	135	3.004808	465.1953	-836.3719	1	957.04	-60.91692	-1.337423E-006	0.0006636	8
	51	139	2.372217	591.0107	-971.853	1	1137.45	-58.69505	-1.240421E-006	0.0006547	8
	52	143	1.878005	748.8201	-1114.752	1	1342.908	-56.10928	-1.14149E-006	0.0006147	8
	53	148	1.512097	924.062	-1253.558	1	1557.337	-53.60417	-1.123842E-006	0.0007376	8
	54	153	1.201923	1145.477	-1402.787	1	1811.057	-50.76586	-1.050458E-006	0.0006169	8
	55	159	0.956633	1401.334	-1547.727	1	2087.869	-47.84187	-1.26707E-006	4.384768E-006	8
