EXPLAIN
TAG	EISPOT
TITLE	LABEL	Potentiostatic EIS	Test Identifier
DATE	LABEL	8/9/2020	Date
TIME	LABEL	13:19:05	Time
NOTES	NOTES	1	Notes...
	
PSTAT	PSTAT	REF3000-16137	Potentiostat
VDC	POTEN	0.00000E+000	T	DC Voltage (V)
FREQINIT	QUANT	3.00000E+005	Initial Freq. (Hz)
FREQFINAL	QUANT	1.00000E+000	Final Freq. (Hz)
PTSPERDEC	QUANT	1.00000E+001	Points/decade
VAC	QUANT	5.00000E+001	AC Voltage (mV rms)
AREA	QUANT	1.00000E+000	Sample Area (cm^2)
SPEED	SELECTOR	2	Optimize for:
ZGUESS	QUANT	1.00000E+003	Estimated Z (ohms)
EOC	QUANT	0	Open Circuit (V)
SEQUENCER	TOGGLE	TRUE	Run as Sequence
PSTATMODEL	IQUANT	5	Pstat Model
PSTATSECTION	LABEL	REF3000-16137	Pstat Section
PSTATSERIALNO	LABEL	16137	Pstat Serial Number
CTRLMODE	IQUANT	1	Control Mode
IESTAB	IQUANT	0	I/E Stability
CASPEED	IQUANT	1	Control Amp Speed
CONVENTION	IQUANT	1	Current Convention
ICHRANGE	IQUANT	2	Ich Range
ICHRANGEMODE	TOGGLE	F	Ich Auto Range
ICHOFFSETENABLE	TOGGLE	T	Ich Offset Enable
ICHOFFSET	QUANT	0	Ich Offset (V)
ICHFILTER	IQUANT	3	Ich Filter
VCHRANGE	IQUANT	2	Vch Range
VCHRANGEMODE	TOGGLE	F	Vch Auto Range
VCHOFFSETENABLE	TOGGLE	T	Vch Offset Enable
VCHOFFSET	QUANT	0	Vch Offset (V)
VCHFILTER	IQUANT	3	Vch Filter
ACHRANGE	IQUANT	2	Ach Range
ACHOFFSETENABLE	TOGGLE	F	Ach Offset Enable
ACHOFFSET	QUANT	0	Ach Offset (V)
ACHFILTER	IQUANT	3	Ach Filter
IERANGELOWERLIMIT	IQUANT	2	I/E Range Lower Limit
IERANGEMODE	TOGGLE	F	I/E AutoRange
IERANGE	IQUANT	11	I/E Range
POSFEEDENABLE	TOGGLE	F	Positive Feedback IR Comp
POSFEEDRESISTANCE	QUANT	0	Positive Feedback Resistance (ohm)
ACHSELECT	IQUANT	0	Ach Select
CABLEID	IQUANT	13	Cable ID
DCCALDATE	LABEL	7/31/2020	DC Calibration Date
ACCALDATE	LABEL	7/31/2020	AC Calibration Date
THERMOSELECT	IQUANT	1	Thermo Select
FRAMEWORKVERSION	QUANT	6.33	Framework Version
INSTRUMENTVERSION	LABEL	3.50	Instrument Version
COMPLIANCEVOLTAGE	IQUANT	0	Compliance Voltage
ZCURVE	TABLE
	Pt	Time	Freq	Zreal	Zimag	Zsig	Zmod	Zphz	Idc	Vdc	IERange
	#	s	Hz	ohm	ohm	V	ohm	°	A	V	#
	0	11	300046.9	5.22627	0.4806753	1	5.248328	5.254877	6.715264E-005	-5.195549E-005	10
	1	14	238359.4	5.331896	0.1161743	1	5.333161	1.248194	2.72384E-005	-4.798433E-005	10
	2	17	189328.1	5.448296	-0.2197353	1	5.452725	-2.309546	5.016874E-006	0.0001287	10
	3	20	150421.9	5.583169	-0.5322644	1	5.608483	-5.445762	2.21555E-005	0.0004078	10
	4	22	119484.4	5.73499	-0.8188955	1	5.79316	-8.126295	-0.0001119	0.0004505	10
	5	25	94921.88	5.916154	-1.07536	1	6.013093	-10.30199	1.757736E-005	0.0005249	10
	6	27	75421.88	6.095499	-1.364203	1	6.246292	-12.6152	-3.265489E-005	0.0005813	10
	7	30	59859.37	6.300619	-1.660803	1	6.515831	-14.76691	4.085933E-006	0.0005867	10
	8	32	47578.12	6.53075	-1.9772	1	6.82349	-16.84381	-2.397823E-005	0.0006885	10
	9	35	37828.12	6.793183	-2.31645	1	7.177275	-18.82918	1.779684E-005	0.0006174	10
	10	37	30046.88	7.090195	-2.693207	1	7.584473	-20.79926	-2.352638E-005	0.0006469	10
	11	40	23859.38	7.426097	-3.114796	1	8.05288	-22.75508	-1.845328E-006	0.0006118	10
	12	42	18984.38	7.807585	-3.577371	1	8.58813	-24.61686	-1.314441E-005	0.0007051	10
	13	45	15046.87	8.259158	-4.10989	1	9.225231	-26.45568	-2.188982E-005	0.0007066	10
	14	47	11953.13	8.785031	-4.70081	1	9.96365	-28.15093	1.531647E-005	0.0006247	10
	15	49	9515.62	9.397815	-5.361055	1	10.81942	-29.70293	-2.385698E-005	0.0007379	10
	16	51	7546.875	10.13394	-6.086423	1	11.82122	-30.98894	-1.953702E-005	0.000674	10
	17	54	5928.309	11.05142	-6.930425	1	13.04471	-32.09213	-1.616227E-005	0.0006538	10
	18	56	4733.456	12.05606	-7.741749	1	14.32771	-32.70638	-7.623106E-006	0.0006566	10
	19	58	3796.875	13.17201	-8.50016	1	15.67656	-32.83496	1.697566E-005	0.0006275	10
	20	61	2987.132	14.55064	-9.36097	1	17.3017	-32.75468	2.84714E-006	0.000653	10
	21	63	2390.625	15.93694	-10.06145	1	18.84725	-32.26542	1.217921E-005	0.0006149	10
	22	65	1884.191	17.52235	-10.83561	1	20.60202	-31.73215	2.878443E-006	0.0006459	10
	23	68	1516.544	18.9603	-11.44544	1	22.14703	-31.1174	-3.082113E-005	0.0006811	10
	24	70	1193.986	20.51266	-12.11413	1	23.8227	-30.56475	-1.321359E-006	0.0006213	10
	25	72	946.5144	21.99957	-12.92767	1	25.51678	-30.4399	-1.199968E-005	0.000637	10
	26	75	751.7689	23.37206	-13.84674	1	27.16589	-30.64456	-1.801517E-005	0.0006755	10
	27	77	597.4265	24.6471	-15.03051	1	28.8686	-31.37603	1.245771E-005	0.0006469	10
	28	79	477.4305	25.78558	-16.54959	1	30.6396	-32.69298	-6.746852E-006	0.0006619	10
	29	82	376.6741	26.97032	-18.69388	1	32.81553	-34.72691	-6.83114E-006	0.0006551	10
	30	84	298.2954	28.2527	-21.50699	1	35.50726	-37.27972	-6.408865E-006	0.0006562	10
	31	86	237.7717	29.47458	-24.96293	1	38.62511	-40.26228	-2.857751E-006	6.022039E-005	9
	32	89	189.0121	30.9156	-29.43646	1	42.68816	-43.59605	-2.84883E-006	5.818945E-005	9
	33	91	150.2404	32.61646	-35.05106	1	47.87912	-47.06055	-3.20974E-006	0.0001142	9
	34	94	119.1737	34.67836	-42.09136	1	54.53688	-50.51546	-2.692787E-006	6.024964E-005	9
	35	96	95.0169	37.21111	-50.56007	1	62.77729	-53.64774	-2.531778E-006	5.694458E-005	9
	36	98	75.60484	40.53205	-60.98606	1	73.22668	-56.39153	-2.527373E-006	5.904897E-005	9
	37	101	54.50582	46.85981	-79.8008	1	92.54193	-59.57813	-2.475814E-006	5.972256E-005	9
	38	103	45.95588	51.1437	-91.80559	1	105.0902	-60.87839	-2.511826E-006	6.285313E-005	9
	39	106	37.20238	57.65099	-109.0428	1	123.345	-62.13457	-2.295655E-006	6.324799E-005	9
	40	108	30.04808	65.97186	-129.5699	1	145.3983	-63.01662	-2.25962E-006	6.376863E-005	9
	41	111	23.91582	77.23503	-155.413	1	173.5466	-63.57417	-2.361526E-006	6.082196E-005	9
	42	113	18.60119	93.42574	-189.1831	1	210.9943	-63.7181	-2.576197E-006	6.690015E-005	9
	43	115	15.02404	110.9979	-223.0095	1	249.106	-63.53923	-2.384545E-006	6.45044E-005	9
	44	118	12.01923	134.4815	-263.7199	1	296.0295	-62.98112	-2.10638E-006	6.536367E-005	9
	45	120	9.450605	167.0598	-314.1026	1	355.766	-61.9931	-1.811066E-006	6.876526E-005	9
	46	122	7.512019	205.9289	-367.2006	1	421.0023	-60.71596	-3.08919E-006	0.0006617	8
	47	125	5.978954	255.559	-426.804	1	497.4656	-59.08794	-3.060686E-006	0.0006492	8
	48	128	4.734848	319.3633	-492.9161	1	587.3323	-57.06055	-2.905875E-006	0.0006241	8
	49	131	3.75601	397.0379	-562.1766	1	688.2454	-54.76831	-2.603232E-006	0.0006607	8
	50	135	3.004808	486.7075	-630.1395	1	796.2161	-52.3182	-2.497527E-006	0.0006334	8
	51	139	2.372217	600.3729	-699.7657	1	922.0193	-49.37164	-2.419439E-006	0.0005888	8
	52	143	1.878005	731.8946	-765.4655	1	1059.06	-46.28436	-2.090791E-006	0.0006324	8
	53	147	1.512097	868.0635	-821.381	1	1195.074	-43.41721	-2.123223E-006	0.0007098	8
	54	153	1.201923	1033.329	-875.7841	1	1354.536	-40.28249	-2.078534E-006	0.0006353	8
	55	166	0.956633	1213.286	-924.2985	1	1525.251	-37.30067	-2.466618E-006	4.488134E-006	8
