EXPLAIN
TAG	EISPOT
TITLE	LABEL	Potentiostatic EIS	Test Identifier
DATE	LABEL	8/9/2020	Date
TIME	LABEL	13:35:59	Time
NOTES	NOTES	1	Notes...
	
PSTAT	PSTAT	REF3000-16137	Potentiostat
VDC	POTEN	0.00000E+000	T	DC Voltage (V)
FREQINIT	QUANT	3.00000E+005	Initial Freq. (Hz)
FREQFINAL	QUANT	1.00000E+000	Final Freq. (Hz)
PTSPERDEC	QUANT	1.00000E+001	Points/decade
VAC	QUANT	5.00000E+001	AC Voltage (mV rms)
AREA	QUANT	1.00000E+000	Sample Area (cm^2)
SPEED	SELECTOR	2	Optimize for:
ZGUESS	QUANT	1.00000E+003	Estimated Z (ohms)
EOC	QUANT	0	Open Circuit (V)
SEQUENCER	TOGGLE	TRUE	Run as Sequence
PSTATMODEL	IQUANT	5	Pstat Model
PSTATSECTION	LABEL	REF3000-16137	Pstat Section
PSTATSERIALNO	LABEL	16137	Pstat Serial Number
CTRLMODE	IQUANT	1	Control Mode
IESTAB	IQUANT	0	I/E Stability
CASPEED	IQUANT	1	Control Amp Speed
CONVENTION	IQUANT	1	Current Convention
ICHRANGE	IQUANT	2	Ich Range
ICHRANGEMODE	TOGGLE	F	Ich Auto Range
ICHOFFSETENABLE	TOGGLE	T	Ich Offset Enable
ICHOFFSET	QUANT	0	Ich Offset (V)
ICHFILTER	IQUANT	3	Ich Filter
VCHRANGE	IQUANT	2	Vch Range
VCHRANGEMODE	TOGGLE	F	Vch Auto Range
VCHOFFSETENABLE	TOGGLE	T	Vch Offset Enable
VCHOFFSET	QUANT	0	Vch Offset (V)
VCHFILTER	IQUANT	3	Vch Filter
ACHRANGE	IQUANT	2	Ach Range
ACHOFFSETENABLE	TOGGLE	F	Ach Offset Enable
ACHOFFSET	QUANT	0	Ach Offset (V)
ACHFILTER	IQUANT	3	Ach Filter
IERANGELOWERLIMIT	IQUANT	2	I/E Range Lower Limit
IERANGEMODE	TOGGLE	F	I/E AutoRange
IERANGE	IQUANT	11	I/E Range
POSFEEDENABLE	TOGGLE	F	Positive Feedback IR Comp
POSFEEDRESISTANCE	QUANT	0	Positive Feedback Resistance (ohm)
ACHSELECT	IQUANT	0	Ach Select
CABLEID	IQUANT	13	Cable ID
DCCALDATE	LABEL	7/31/2020	DC Calibration Date
ACCALDATE	LABEL	7/31/2020	AC Calibration Date
THERMOSELECT	IQUANT	1	Thermo Select
FRAMEWORKVERSION	QUANT	6.33	Framework Version
INSTRUMENTVERSION	LABEL	3.50	Instrument Version
COMPLIANCEVOLTAGE	IQUANT	0	Compliance Voltage
ZCURVE	TABLE
	Pt	Time	Freq	Zreal	Zimag	Zsig	Zmod	Zphz	Idc	Vdc	IERange
	#	s	Hz	ohm	ohm	V	ohm	°	A	V	#
	0	7	300046.9	28.49725	0.3736878	1	28.4997	0.7512832	-4.46615E-005	-0.0002855	11
	1	12	238359.4	28.9393	0.5245941	1	28.94405	1.03851	-0.0001057	0.0003748	10
	2	15	189328.1	29.20644	0.3422657	1	29.20845	0.6714095	2.739693E-005	0.0004937	10
	3	17	150421.9	29.47374	0.203541	1	29.47444	0.3956693	7.204001E-005	0.0003437	10
	4	20	119484.4	29.76434	0.0466445	1	29.76438	0.0897898	-3.86394E-005	0.0005946	10
	5	22	94921.88	30.02169	-0.0634266	1	30.02175	-0.1210482	-1.729849E-005	0.0006492	10
	6	25	75421.88	30.30138	-0.1847387	1	30.30194	-0.3493113	-1.612208E-005	0.0006454	10
	7	27	59859.37	30.6068	-0.2943887	1	30.60821	-0.5510773	-9.73849E-007	0.0005987	10
	8	30	47578.12	30.88155	-0.3986582	1	30.88412	-0.7396054	-2.434028E-005	0.0006665	10
	9	32	37828.12	31.17318	-0.5009344	1	31.1772	-0.9206297	1.573639E-005	0.0006309	10
	10	35	30046.88	31.50692	-0.6107235	1	31.51283	-1.11047	-2.221217E-005	0.0006733	10
	11	37	23859.38	31.80727	-0.7261614	1	31.81556	-1.307838	-3.145002E-006	0.0006163	10
	12	40	18984.38	32.09567	-0.8510285	1	32.10695	-1.518863	2.743618E-005	0.0006616	10
	13	42	15046.87	32.4038	-1.003851	1	32.41935	-1.774422	2.51998E-005	0.0006256	10
	14	44	11953.13	32.72438	-1.168435	1	32.74523	-2.044897	-2.080248E-005	0.0006501	10
	15	47	9515.62	33.06276	-1.362984	1	33.09084	-2.360633	2.052284E-005	0.000615	10
	16	49	7546.875	33.37603	-1.591187	1	33.41393	-2.729484	-4.423182E-006	0.0007235	10
	17	51	5928.309	33.72792	-1.910921	1	33.78201	-3.242737	2.654664E-005	0.0006446	10
	18	54	4733.456	34.07008	-2.262243	1	34.1451	-3.798846	2.1946E-005	0.0006633	10
	19	56	3796.875	34.42937	-2.685233	1	34.53392	-4.459615	-2.883089E-005	0.0006733	10
	20	58	2987.132	34.8213	-3.248976	1	34.97254	-5.330508	-2.192731E-005	0.0007206	10
	21	60	2390.625	35.16471	-3.911443	1	35.38158	-6.347036	2.582132E-005	0.0006391	10
	22	63	1884.191	35.51583	-4.759592	1	35.83333	-7.632917	-2.793801E-006	-8.712564E-005	9
	23	65	1516.544	35.91222	-5.761363	1	36.37143	-9.114244	-1.316757E-005	0.0003656	9
	24	67	1193.986	36.35176	-7.119518	1	37.04239	-11.08116	-3.032968E-006	0.0004281	9
	25	70	946.5144	36.82312	-8.751121	1	37.8487	-13.36851	-1.270392E-005	0.0003778	9
	26	72	751.7689	37.3135	-10.78155	1	38.83991	-16.11639	-1.432749E-005	0.0004918	9
	27	75	597.4265	37.87218	-13.30341	1	40.14079	-19.35492	-1.178541E-005	0.0002068	9
	28	77	477.4305	38.50177	-16.35462	1	41.83133	-23.01461	1.37817E-006	6.746425E-005	9
	29	79	376.6741	39.22684	-20.35438	1	44.19328	-27.42431	9.482592E-007	0.0001219	9
	30	81	298.2954	40.0356	-25.26982	1	47.34356	-32.25945	1.4148E-006	6.731668E-005	9
	31	84	237.7717	40.96033	-31.20027	1	51.48986	-37.29722	1.391893E-006	6.500271E-005	9
	32	86	189.0121	42.07926	-38.64039	1	57.12918	-42.56052	1.376798E-006	6.902896E-005	9
	33	89	150.2404	43.39751	-47.8703	1	64.61355	-47.80567	1.33566E-006	6.836532E-005	9
	34	91	119.1737	45.02118	-59.43754	1	74.56358	-52.85776	9.708799E-007	0.0001245	9
	35	93	95.0169	46.96368	-73.44831	1	87.17936	-57.40469	1.356075E-006	7.344031E-005	9
	36	96	75.60484	49.36845	-90.93676	1	103.4734	-61.50301	1.450975E-006	6.665765E-005	9
	37	98	54.50582	53.7458	-123.3644	1	134.5637	-66.45882	1.352684E-006	5.890203E-005	9
	38	101	45.95588	56.78857	-144.669	1	155.4158	-68.56794	1.434648E-006	6.439204E-005	9
	39	103	37.20238	61.21351	-176.1087	1	186.444	-70.83309	1.426797E-006	6.405841E-005	9
	40	106	30.04808	66.76198	-214.7523	1	224.8905	-72.73063	1.4212E-006	6.37425E-005	9
	41	108	23.91582	74.13158	-265.3271	1	275.4886	-74.3898	1.383326E-006	6.541562E-005	9
	42	110	18.60119	84.39452	-334.7736	1	345.2474	-75.85088	1.507883E-006	6.49861E-005	9
	43	113	15.02404	95.4597	-407.7063	1	418.7326	-76.82224	1.36986E-006	6.154852E-005	9
	44	115	12.01923	109.4332	-498.6403	1	510.5074	-77.62192	3.489265E-007	0.0006419	8
	45	117	9.450605	129.2281	-621.9652	1	635.2485	-78.26244	3.837576E-007	0.0006508	8
	46	120	7.512019	153.1984	-767.5969	1	782.7354	-78.7131	4.211543E-007	0.0006603	8
	47	123	5.978954	183.1823	-946.1364	1	963.706	-79.04249	3.779624E-007	0.0006465	8
	48	126	4.734848	222.1375	-1171.813	1	1192.683	-79.26596	4.220257E-007	0.0006673	8
	49	129	3.75601	272.4418	-1447.343	1	1472.762	-79.33962	3.406365E-007	0.0006355	8
	50	132	3.004808	334.0813	-1772.559	1	1803.767	-79.32645	4.000515E-007	0.0006213	8
	51	136	2.372217	417.4889	-2194.489	1	2233.849	-79.22853	3.884515E-007	0.0006146	8
	52	140	1.878005	528.744	-2713.728	1	2764.758	-78.97459	3.747617E-007	0.0006516	8
	53	145	1.512097	658.4039	-3300.333	1	3365.366	-78.71783	3.822251E-007	0.0005409	8
	54	150	1.201923	829.8682	-4060.368	1	4144.305	-78.44883	3.742923E-007	0.0006717	8
	55	157	0.956633	1047.507	-4992.692	1	5101.396	-78.15075	4.46451E-009	-1.963078E-005	7
