EXPLAIN
TAG	EISPOT
TITLE	LABEL	Potentiostatic EIS	Test Identifier
DATE	LABEL	10/5/2021	Date
TIME	LABEL	14:17:40	Time
NOTES	NOTES	1	Notes...
	
PSTAT	PSTAT	REF3000-16137	Potentiostat
VDC	POTEN	0.00000E+000	T	DC Voltage (V)
FREQINIT	QUANT	3.00000E+005	Initial Freq. (Hz)
FREQFINAL	QUANT	1.00000E+000	Final Freq. (Hz)
PTSPERDEC	QUANT	1.00000E+001	Points/decade
VAC	QUANT	5.00000E+001	AC Voltage (mV rms)
AREA	QUANT	1.00000E+000	Sample Area (cm^2)
SPEED	SELECTOR	2	Optimize for:
ZGUESS	QUANT	1.00000E+003	Estimated Z (ohms)
EOC	QUANT	0	Open Circuit (V)
SEQUENCER	TOGGLE	TRUE	Run as Sequence
PSTATMODEL	IQUANT	5	Pstat Model
PSTATSECTION	LABEL	REF3000-16137	Pstat Section
PSTATSERIALNO	LABEL	16137	Pstat Serial Number
CTRLMODE	IQUANT	1	Control Mode
IESTAB	IQUANT	0	I/E Stability
CASPEED	IQUANT	1	Control Amp Speed
CONVENTION	IQUANT	1	Current Convention
ICHRANGE	IQUANT	2	Ich Range
ICHRANGEMODE	TOGGLE	F	Ich Auto Range
ICHOFFSETENABLE	TOGGLE	T	Ich Offset Enable
ICHOFFSET	QUANT	0	Ich Offset (V)
ICHFILTER	IQUANT	3	Ich Filter
VCHRANGE	IQUANT	2	Vch Range
VCHRANGEMODE	TOGGLE	F	Vch Auto Range
VCHOFFSETENABLE	TOGGLE	T	Vch Offset Enable
VCHOFFSET	QUANT	0	Vch Offset (V)
VCHFILTER	IQUANT	3	Vch Filter
ACHRANGE	IQUANT	2	Ach Range
ACHOFFSETENABLE	TOGGLE	F	Ach Offset Enable
ACHOFFSET	QUANT	0	Ach Offset (V)
ACHFILTER	IQUANT	3	Ach Filter
IERANGELOWERLIMIT	IQUANT	2	I/E Range Lower Limit
IERANGEMODE	TOGGLE	F	I/E AutoRange
IERANGE	IQUANT	11	I/E Range
POSFEEDENABLE	TOGGLE	F	Positive Feedback IR Comp
POSFEEDRESISTANCE	QUANT	0	Positive Feedback Resistance (ohm)
ACHSELECT	IQUANT	0	Ach Select
CABLEID	IQUANT	13	Cable ID
DCCALDATE	LABEL	9/10/2021	DC Calibration Date
ACCALDATE	LABEL	9/10/2021	AC Calibration Date
THERMOSELECT	IQUANT	1	Thermo Select
FRAMEWORKVERSION	QUANT	6.33	Framework Version
INSTRUMENTVERSION	LABEL	3.50	Instrument Version
COMPLIANCEVOLTAGE	IQUANT	0	Compliance Voltage
ZCURVE	TABLE
	Pt	Time	Freq	Zreal	Zimag	Zsig	Zmod	Zphz	Idc	Vdc	IERange
	#	s	Hz	ohm	ohm	V	ohm	°	A	V	#
	0	10	300046.9	4.742822	2.239186	1	5.244837	25.27298	-7.777453E-005	-0.0006455	10
	1	14	238359.4	4.722944	1.762341	1	5.041036	20.46279	2.360524E-005	-0.0010579	10
	2	17	189328.1	4.71252	1.392305	1	4.913894	16.45968	5.767703E-005	-0.0007605	10
	3	19	150421.9	4.705852	1.080435	1	4.82829	12.93067	5.307676E-005	-0.000573	10
	4	22	119484.4	4.7065	0.8433593	1	4.781464	10.15903	3.116027E-005	-0.0002948	10
	5	24	94921.88	4.712208	0.6496436	1	4.756779	7.849541	-1.590293E-005	-0.0003141	10
	6	27	75421.88	4.71723	0.4762445	1	4.74121	5.764962	-2.508943E-005	-0.0002786	10
	7	29	59859.37	4.724358	0.3269221	1	4.735655	3.958516	-2.214228E-005	-0.0002246	10
	8	32	47578.12	4.734373	0.1968091	1	4.738462	2.38043	-2.740828E-005	-0.0002028	10
	9	34	37828.12	4.746481	0.0775235	1	4.747115	0.9357191	4.016212E-006	-0.0002073	10
	10	37	30046.88	4.760413	-0.0359392	1	4.760549	-0.4325515	2.087144E-005	-0.000156	10
	11	40	23859.38	4.775098	-0.1491724	1	4.777427	-1.789318	1.329392E-005	-0.0001739	10
	12	42	18984.38	4.791274	-0.2663315	1	4.79867	-3.181614	-1.105879E-005	-0.0001647	10
	13	44	15046.87	4.809071	-0.3971559	1	4.825443	-4.721044	-1.995959E-005	-0.0000976	10
	14	47	11953.13	4.828325	-0.5452408	1	4.859013	-6.442858	1.816622E-005	-0.0001577	10
	15	49	9515.62	4.852011	-0.7164649	1	4.904624	-8.399796	-9.501055E-006	-0.0001493	10
	16	51	7546.875	4.881551	-0.9237415	1	4.968183	-10.71544	-2.269919E-005	-0.0000953	10
	17	53	5928.309	4.915927	-1.186804	1	5.057158	-13.57265	-5.663037E-006	-0.0001299	10
	18	56	4733.456	4.956666	-1.485116	1	5.174371	-16.67926	-1.196249E-005	-0.0001329	10
	19	58	3796.875	5.005472	-1.841326	1	5.333407	-20.19669	-1.632685E-005	-8.949181E-005	10
	20	60	2987.132	5.06945	-2.316632	1	5.573698	-24.5594	-1.654712E-005	-0.0001662	10
	21	63	2390.625	5.143499	-2.858021	1	5.884205	-29.05904	1.774776E-005	-0.0001583	10
	22	65	1884.191	5.240955	-3.576415	1	6.344947	-34.30953	-1.668853E-005	-0.0001334	10
	23	67	1516.544	5.351634	-4.378608	1	6.914636	-39.2894	-1.175377E-005	-0.0001323	10
	24	70	1193.986	5.503557	-5.468584	1	7.758514	-44.81738	-2.938079E-006	-0.0001467	10
	25	72	946.5144	5.692377	-6.77752	1	8.850872	-49.97341	-1.349894E-005	-0.0001578	10
	26	74	751.7689	5.91732	-8.388673	1	10.2657	-54.80109	-2.821207E-005	-0.0001174	10
	27	77	597.4265	6.20923	-10.3687	1	12.08571	-59.08498	-1.413407E-005	-0.0001153	10
	28	79	477.4305	6.575061	-12.74065	1	14.33721	-62.70312	-1.867965E-006	-0.0001223	10
	29	81	376.6741	7.052729	-15.8225	1	17.32318	-65.97553	-2.334086E-006	-0.0001212	10
	30	84	298.2954	7.646001	-19.57367	1	21.01404	-68.66305	-1.700458E-006	-0.0001172	10
	31	86	237.7717	8.371449	-24.06187	1	25.47656	-70.81653	-1.57765E-006	-0.0001217	10
	32	89	189.0121	9.293677	-29.64598	1	31.06857	-72.59438	-2.279186E-006	-0.0001236	10
	33	91	150.2404	10.45617	-36.51027	1	37.97804	-74.01883	-2.370352E-006	-0.0001225	10
	34	93	119.1737	11.93401	-44.98544	1	46.54149	-75.14246	9.024177E-007	-0.0001339	9
	35	96	95.0169	13.79315	-55.20875	1	56.90569	-75.97259	8.548718E-007	-0.000135	9
	36	98	75.60484	16.19918	-67.8472	1	69.75425	-76.57148	8.1218E-007	-0.0001365	9
	37	101	54.50582	20.90119	-90.98388	1	93.35377	-77.06225	7.675482E-007	-0.0001391	9
	38	103	45.95588	24.12952	-105.95	1	108.663	-77.17004	1.050345E-006	-0.0001308	9
	39	106	37.20238	29.1049	-127.7936	1	131.066	-77.16978	1.014586E-006	-0.0001436	9
	40	108	30.04808	35.48725	-154.2559	1	158.2853	-77.04427	7.668529E-007	-0.0001323	9
	41	111	23.91582	44.1766	-188.2769	1	193.3902	-76.7952	8.809836E-007	-0.0001359	9
	42	113	18.60119	56.42669	-233.694	1	240.4097	-76.42544	9.328539E-007	-0.0001321	9
	43	115	15.02404	69.56733	-280.2863	1	288.7907	-76.06081	8.47689E-007	-0.0001289	9
	44	117	12.01923	86.73799	-338.2888	1	349.2317	-75.61904	8.608004E-007	-0.0001422	9
	45	120	9.450605	109.6987	-413.7019	1	427.9989	-75.14902	8.48676E-007	-0.0001229	9
	46	122	7.512019	136.0215	-498.3365	1	516.5667	-74.73295	7.170555E-007	-0.0001096	8
	47	125	5.978954	168.9227	-601.5108	1	624.7801	-74.31363	6.548983E-007	-0.000119	8
	48	128	4.734848	210.988	-729.4977	1	759.3964	-73.86888	7.31517E-007	-0.0001369	8
	49	131	3.75601	263.023	-883.3517	1	921.6786	-73.4188	7.617153E-007	-0.0001146	8
	50	135	3.004808	326.5949	-1061.639	1	1110.74	-72.9004	8.538312E-007	-0.0001569	8
	51	139	2.372217	413.703	-1290.181	1	1354.886	-72.22129	7.309442E-007	-0.0001862	8
	52	143	1.878005	529.8564	-1559.888	1	1647.422	-71.23862	7.312473E-007	-0.0001127	8
	53	148	1.512097	670.8684	-1854.28	1	1971.907	-70.11015	7.603697E-007	-0.0002315	8
	54	153	1.201923	865.1558	-2220.582	1	2383.165	-68.71373	7.054647E-007	-0.0000962	8
	55	159	0.956633	1115.86	-2635.859	1	2862.323	-67.05521	6.593742E-007	-0.0006818	8
