EXPLAIN
TAG	EISPOT
TITLE	LABEL	Potentiostatic EIS	Test Identifier
DATE	LABEL	10/5/2021	Date
TIME	LABEL	13:40:44	Time
NOTES	NOTES	1	Notes...
	
PSTAT	PSTAT	REF3000-16137	Potentiostat
VDC	POTEN	0.00000E+000	T	DC Voltage (V)
FREQINIT	QUANT	3.00000E+005	Initial Freq. (Hz)
FREQFINAL	QUANT	1.00000E+000	Final Freq. (Hz)
PTSPERDEC	QUANT	1.00000E+001	Points/decade
VAC	QUANT	5.00000E+001	AC Voltage (mV rms)
AREA	QUANT	1.00000E+000	Sample Area (cm^2)
SPEED	SELECTOR	2	Optimize for:
ZGUESS	QUANT	1.00000E+003	Estimated Z (ohms)
EOC	QUANT	0	Open Circuit (V)
SEQUENCER	TOGGLE	TRUE	Run as Sequence
PSTATMODEL	IQUANT	5	Pstat Model
PSTATSECTION	LABEL	REF3000-16137	Pstat Section
PSTATSERIALNO	LABEL	16137	Pstat Serial Number
CTRLMODE	IQUANT	1	Control Mode
IESTAB	IQUANT	0	I/E Stability
CASPEED	IQUANT	1	Control Amp Speed
CONVENTION	IQUANT	1	Current Convention
ICHRANGE	IQUANT	2	Ich Range
ICHRANGEMODE	TOGGLE	F	Ich Auto Range
ICHOFFSETENABLE	TOGGLE	T	Ich Offset Enable
ICHOFFSET	QUANT	0	Ich Offset (V)
ICHFILTER	IQUANT	3	Ich Filter
VCHRANGE	IQUANT	2	Vch Range
VCHRANGEMODE	TOGGLE	F	Vch Auto Range
VCHOFFSETENABLE	TOGGLE	T	Vch Offset Enable
VCHOFFSET	QUANT	0	Vch Offset (V)
VCHFILTER	IQUANT	3	Vch Filter
ACHRANGE	IQUANT	2	Ach Range
ACHOFFSETENABLE	TOGGLE	F	Ach Offset Enable
ACHOFFSET	QUANT	0	Ach Offset (V)
ACHFILTER	IQUANT	3	Ach Filter
IERANGELOWERLIMIT	IQUANT	2	I/E Range Lower Limit
IERANGEMODE	TOGGLE	F	I/E AutoRange
IERANGE	IQUANT	11	I/E Range
POSFEEDENABLE	TOGGLE	F	Positive Feedback IR Comp
POSFEEDRESISTANCE	QUANT	0	Positive Feedback Resistance (ohm)
ACHSELECT	IQUANT	0	Ach Select
CABLEID	IQUANT	13	Cable ID
DCCALDATE	LABEL	9/10/2021	DC Calibration Date
ACCALDATE	LABEL	9/10/2021	AC Calibration Date
THERMOSELECT	IQUANT	1	Thermo Select
FRAMEWORKVERSION	QUANT	6.33	Framework Version
INSTRUMENTVERSION	LABEL	3.50	Instrument Version
COMPLIANCEVOLTAGE	IQUANT	0	Compliance Voltage
ZCURVE	TABLE
	Pt	Time	Freq	Zreal	Zimag	Zsig	Zmod	Zphz	Idc	Vdc	IERange
	#	s	Hz	ohm	ohm	V	ohm	°	A	V	#
	0	10	300046.9	1.932652	2.236687	1	2.955996	49.17072	-2.749915E-005	-0.0006402	11
	1	14	238359.4	2.017024	1.603981	1	2.577041	38.49249	-0.0002437	-0.0011052	12
	2	18	189328.1	1.939665	1.273239	1	2.320224	33.28178	-0.0001735	-0.0007476	12
	3	21	150421.9	1.833412	1.10857	1	2.142505	31.15919	-2.309599E-005	-6.286509E-005	11
	4	24	119484.4	1.824242	0.8593451	1	2.016515	25.2237	-4.062022E-005	3.3931E-005	11
	5	27	94921.88	1.816457	0.6560847	1	1.931311	19.85917	-6.823659E-005	8.415196E-005	11
	6	29	75421.88	1.813557	0.4871457	1	1.877845	15.0355	-2.634152E-005	0.0001576	11
	7	32	59859.37	1.812537	0.3460859	1	1.845282	10.80995	-4.608218E-005	0.0002124	11
	8	34	47578.12	1.813033	0.2231806	1	1.826718	7.017686	-4.696092E-005	0.0002301	11
	9	37	37828.12	1.815911	0.1139823	1	1.819485	3.591668	-9.447648E-005	0.0002579	11
	10	39	30046.88	1.820748	0.0108545	1	1.820781	0.3415685	-6.715853E-005	0.0003132	11
	11	42	23859.38	1.825645	-0.0908222	1	1.827902	-2.848002	-3.266927E-005	0.0003246	11
	12	44	18984.38	1.833176	-0.1943371	1	1.843448	-6.05139	-8.569608E-005	0.0002964	11
	13	46	15046.87	1.842943	-0.3079832	1	1.8685	-9.487306	-4.549634E-005	0.0003248	11
	14	49	11953.13	1.856215	-0.4341854	1	1.906319	-13.16529	-7.198632E-005	0.0003444	11
	15	51	9515.62	1.871337	-0.5781355	1	1.958608	-17.16814	-3.683285E-005	0.0003717	11
	16	53	7546.875	1.891578	-0.7500004	1	2.034839	-21.62805	-4.120746E-005	0.0003575	11
	17	56	5928.309	1.91793	-0.966273	1	2.147589	-26.73944	-5.205829E-005	0.0003527	11
	18	58	4733.456	1.948971	-1.210763	1	2.294436	-31.84988	-8.474313E-005	0.0003252	11
	19	60	3796.875	1.986834	-1.500317	1	2.489671	-37.05754	-8.584451E-005	0.0003235	11
	20	63	2987.132	2.040449	-1.885754	1	2.778399	-42.74367	-2.467421E-005	0.000372	11
	21	65	2390.625	2.102609	-2.326366	1	3.135752	-47.89219	-2.490793E-005	0.0003771	11
	22	67	1884.191	2.188777	-2.901641	1	3.634593	-52.97188	-2.589714E-005	0.0003623	11
	23	70	1516.544	2.289631	-3.548307	1	4.222901	-57.16689	1.696545E-005	-0.0001561	10
	24	72	1193.986	2.427536	-4.419073	1	5.041938	-61.21862	-1.454275E-005	-0.0001537	10
	25	74	946.5144	2.595237	-5.462895	1	6.048014	-64.58919	-2.873205E-005	-0.0001536	10
	26	77	751.7689	2.810379	-6.735908	1	7.298676	-67.35296	2.39981E-005	-0.0001581	10
	27	79	597.4265	3.079315	-8.294361	1	8.84752	-69.63235	2.435033E-005	-0.0001636	10
	28	81	477.4305	3.414613	-10.16766	1	10.72571	-71.43636	3.52345E-007	-0.0001381	10
	29	84	376.6741	3.865391	-12.58857	1	13.16865	-72.9306	-1.181061E-007	-0.0001383	10
	30	86	298.2954	4.436665	-15.5243	1	16.14583	-74.05067	1.943686E-007	-0.0001359	10
	31	88	237.7717	5.151987	-19.0176	1	19.70309	-74.84203	-1.664708E-007	-0.0001424	10
	32	91	189.0121	6.08649	-23.33442	1	24.11516	-75.38085	-1.959174E-007	-0.0001409	10
	33	93	150.2404	7.297424	-28.59643	1	29.51284	-75.68441	-7.994549E-007	-0.0001419	10
	34	96	119.1737	8.880265	-35.05274	1	36.16011	-75.78378	-1.124681E-006	-0.0001404	10
	35	98	95.0169	10.86741	-42.64213	1	44.00513	-75.70243	1.68545E-006	-0.0001599	9
	36	100	75.60484	13.4561	-51.91678	1	53.63225	-75.46948	1.444403E-006	-0.0001564	9
	37	103	54.50582	18.43839	-68.49618	1	70.93448	-74.93376	1.328545E-006	-0.0001604	9
	38	106	45.95588	21.78328	-79.02295	1	81.97034	-74.58872	1.881074E-006	-0.0001577	9
	39	108	37.20238	26.72617	-94.07544	1	97.7981	-74.14053	1.75555E-006	-0.0001579	9
	40	110	30.04808	32.85176	-112.1031	1	116.8175	-73.66679	1.538012E-006	-0.0001536	9
	41	113	23.91582	40.80457	-134.8734	1	140.9108	-73.16735	1.341572E-006	-0.0001554	9
	42	115	18.60119	51.90747	-165.5078	1	173.4566	-72.58724	1.41719E-006	-0.000152	9
	43	117	15.02404	63.81607	-196.6941	1	206.7875	-72.0247	1.894366E-006	-0.000157	9
	44	120	12.01923	79.44615	-235.4903	1	248.5304	-71.35741	2.025084E-006	-0.0001463	9
	45	122	9.450605	101.4024	-285.79	1	303.2464	-70.46458	1.754787E-006	-0.00016	9
	46	125	7.512019	128.9928	-342.78	1	366.2475	-69.378	1.688285E-006	-0.0001584	9
	47	127	5.978954	165.1846	-407.4258	1	439.6382	-67.93065	1.501147E-006	-0.0001172	8
	48	130	4.734848	214.6693	-484.5943	1	530.0137	-66.10725	1.343976E-006	-0.0001663	8
	49	134	3.75601	279.8053	-570.1312	1	635.091	-63.85942	1.70671E-006	-0.0001224	8
	50	137	3.004808	359.4856	-659.0244	1	750.695	-61.38835	1.798527E-006	-0.0001698	8
	51	141	2.372217	465.5341	-757.8259	1	889.3942	-58.4375	1.498022E-006	-0.0002028	8
	52	145	1.878005	593.8255	-852.9478	1	1039.302	-55.15422	1.542744E-006	-0.0001346	8
	53	150	1.512097	732.5206	-936.9026	1	1189.274	-51.9798	1.590696E-006	-0.0002476	8
	54	155	1.201923	898.7795	-1017.206	1	1357.392	-48.53693	1.440342E-006	-0.0001238	8
	55	162	0.956633	1078.747	-1083.374	1	1528.854	-45.12263	1.252014E-006	-0.0006802	8
