EXPLAIN
TAG	EISPOT
TITLE	LABEL	Potentiostatic EIS	Test Identifier
DATE	LABEL	10/5/2021	Date
TIME	LABEL	13:57:53	Time
NOTES	NOTES	1	Notes...
	
PSTAT	PSTAT	REF3000-16137	Potentiostat
VDC	POTEN	0.00000E+000	T	DC Voltage (V)
FREQINIT	QUANT	3.00000E+005	Initial Freq. (Hz)
FREQFINAL	QUANT	1.00000E+000	Final Freq. (Hz)
PTSPERDEC	QUANT	1.00000E+001	Points/decade
VAC	QUANT	5.00000E+001	AC Voltage (mV rms)
AREA	QUANT	1.00000E+000	Sample Area (cm^2)
SPEED	SELECTOR	2	Optimize for:
ZGUESS	QUANT	1.00000E+003	Estimated Z (ohms)
EOC	QUANT	0	Open Circuit (V)
SEQUENCER	TOGGLE	TRUE	Run as Sequence
PSTATMODEL	IQUANT	5	Pstat Model
PSTATSECTION	LABEL	REF3000-16137	Pstat Section
PSTATSERIALNO	LABEL	16137	Pstat Serial Number
CTRLMODE	IQUANT	1	Control Mode
IESTAB	IQUANT	0	I/E Stability
CASPEED	IQUANT	1	Control Amp Speed
CONVENTION	IQUANT	1	Current Convention
ICHRANGE	IQUANT	2	Ich Range
ICHRANGEMODE	TOGGLE	F	Ich Auto Range
ICHOFFSETENABLE	TOGGLE	T	Ich Offset Enable
ICHOFFSET	QUANT	0	Ich Offset (V)
ICHFILTER	IQUANT	3	Ich Filter
VCHRANGE	IQUANT	2	Vch Range
VCHRANGEMODE	TOGGLE	F	Vch Auto Range
VCHOFFSETENABLE	TOGGLE	T	Vch Offset Enable
VCHOFFSET	QUANT	0	Vch Offset (V)
VCHFILTER	IQUANT	3	Vch Filter
ACHRANGE	IQUANT	2	Ach Range
ACHOFFSETENABLE	TOGGLE	F	Ach Offset Enable
ACHOFFSET	QUANT	0	Ach Offset (V)
ACHFILTER	IQUANT	3	Ach Filter
IERANGELOWERLIMIT	IQUANT	2	I/E Range Lower Limit
IERANGEMODE	TOGGLE	F	I/E AutoRange
IERANGE	IQUANT	11	I/E Range
POSFEEDENABLE	TOGGLE	F	Positive Feedback IR Comp
POSFEEDRESISTANCE	QUANT	0	Positive Feedback Resistance (ohm)
ACHSELECT	IQUANT	0	Ach Select
CABLEID	IQUANT	13	Cable ID
DCCALDATE	LABEL	9/10/2021	DC Calibration Date
ACCALDATE	LABEL	9/10/2021	AC Calibration Date
THERMOSELECT	IQUANT	1	Thermo Select
FRAMEWORKVERSION	QUANT	6.33	Framework Version
INSTRUMENTVERSION	LABEL	3.50	Instrument Version
COMPLIANCEVOLTAGE	IQUANT	0	Compliance Voltage
ZCURVE	TABLE
	Pt	Time	Freq	Zreal	Zimag	Zsig	Zmod	Zphz	Idc	Vdc	IERange
	#	s	Hz	ohm	ohm	V	ohm	°	A	V	#
	0	11	300046.9	2.566041	2.217653	1	3.391541	40.83461	-0.0001534	-0.0007141	11
	1	14	238359.4	2.537787	1.761819	1	3.089397	34.76971	-5.53914E-005	-0.0004373	11
	2	17	189328.1	2.500021	1.391566	1	2.861217	29.10126	-7.51047E-005	-0.000282	11
	3	19	150421.9	2.532207	0.954481	1	2.706125	20.65326	-0.0001325	-0.0004697	12
	4	23	119484.4	2.479201	0.8459564	1	2.619557	18.84074	1.174798E-006	0.0002463	11
	5	26	94921.88	2.490551	0.5551602	1	2.551675	12.56617	-0.0001816	-0.0003274	12
	6	29	75421.88	2.482787	0.4052659	1	2.515645	9.270646	-0.0001025	-0.0002756	12
	7	33	59859.37	2.476596	0.3323138	1	2.498792	7.642395	-7.338449E-005	0.000284	11
	8	36	47578.12	2.482254	0.1635714	1	2.487638	3.770131	-6.089028E-005	-0.0001784	12
	9	40	37828.12	2.484129	0.0968228	1	2.486015	2.232062	-6.987441E-005	0.0003115	11
	10	43	30046.88	2.489769	-0.0095606	1	2.489788	-0.2200127	-2.326444E-005	0.0003458	11
	11	45	23859.38	2.497615	-0.1146836	1	2.500247	-2.629016	-5.649894E-005	0.0003545	11
	12	47	18984.38	2.50659	-0.2233705	1	2.516523	-5.092365	-5.797693E-005	0.0003503	11
	13	50	15046.87	2.517913	-0.3436928	1	2.541262	-7.772784	-6.614975E-005	0.0003217	11
	14	52	11953.13	2.531045	-0.4787985	1	2.575934	-10.71208	-4.041434E-005	0.0003654	11
	15	54	9515.62	2.548149	-0.6338273	1	2.625795	-13.96829	-6.121423E-005	0.0003502	11
	16	57	7546.875	2.570392	-0.8197545	1	2.697946	-17.68863	-7.044477E-005	0.0003347	11
	17	59	5928.309	2.598351	-1.054654	1	2.804233	-22.09191	-8.27992E-005	0.0003383	11
	18	61	4733.456	2.631254	-1.320265	1	2.943909	-26.64579	-5.157441E-005	0.0003438	11
	19	64	3796.875	2.6716	-1.63517	1	3.132288	-31.46898	-4.43883E-005	0.0003373	11
	20	66	2987.132	2.727179	-2.057201	1	3.416077	-37.02845	-7.456118E-005	0.0003426	11
	21	68	2390.625	2.792084	-2.536356	1	3.772113	-42.25232	-2.405494E-005	0.0003632	11
	22	71	1884.191	2.881741	-3.173548	1	4.286705	-47.75897	-1.286564E-005	-0.0001299	10
	23	73	1516.544	2.983368	-3.882137	1	4.896067	-52.45822	2.307757E-005	-0.0001518	10
	24	75	1193.986	3.125109	-4.841629	1	5.76261	-57.15911	1.36296E-005	-0.0001651	10
	25	78	946.5144	3.295431	-5.998153	1	6.843808	-61.21527	2.29434E-005	-0.0001454	10
	26	80	751.7689	3.518358	-7.400795	1	8.194548	-64.57346	2.181945E-005	-0.0001501	10
	27	82	597.4265	3.792952	-9.134151	1	9.89036	-67.44936	-4.525458E-006	-0.00014	10
	28	85	477.4305	4.136042	-11.20384	1	11.9429	-69.73772	-6.840432E-007	-0.00012	10
	29	87	376.6741	4.589561	-13.89123	1	14.62978	-71.71682	2.280122E-006	-0.0001603	10
	30	89	298.2954	5.158542	-17.15918	1	17.91781	-73.26771	-4.904716E-007	-0.0001224	10
	31	92	237.7717	5.863749	-21.0627	1	21.86369	-74.44306	-4.89557E-007	-0.0001261	10
	32	94	189.0121	6.77854	-25.90678	1	26.77891	-75.3372	-6.695115E-007	-0.0001228	10
	33	96	150.2404	7.959876	-31.84538	1	32.8251	-75.96624	-1.040518E-006	-0.0001233	10
	34	99	119.1737	9.50195	-39.17875	1	40.31453	-76.36739	-6.684684E-007	-0.0001618	10
	35	101	95.0169	11.44295	-47.86169	1	49.21059	-76.55392	1.202278E-006	-0.0001359	9
	36	104	75.60484	13.99067	-58.55526	1	60.20346	-76.56219	1.084977E-006	-0.000136	9
	37	106	54.50582	18.98465	-77.89181	1	80.172	-76.30231	9.915578E-007	-0.0001433	9
	38	109	45.95588	22.40101	-90.25553	1	92.9939	-76.06111	1.277917E-006	-0.000129	9
	39	111	37.20238	27.54932	-108.0123	1	111.4702	-75.69136	1.463867E-006	-0.0001702	9
	40	114	30.04808	34.07407	-129.3815	1	133.7931	-75.24554	1.200084E-006	-0.0001419	9
	41	116	23.91582	42.53633	-156.2678	1	161.9536	-74.77293	1.18221E-006	-0.0001397	9
	42	118	18.60119	54.42699	-192.4015	1	199.9516	-74.20473	1.08245E-006	-0.0001393	9
	43	121	15.02404	66.77677	-229.0714	1	238.606	-73.74802	1.415629E-006	-0.0001402	9
	44	123	12.01923	82.69094	-274.9944	1	287.158	-73.26394	1.005944E-006	-0.0001394	9
	45	125	9.450605	104.1417	-334.5543	1	350.3884	-72.70942	1.423222E-006	-0.000134	9
	46	128	7.512019	129.9501	-403.1753	1	423.6005	-72.135	1.441038E-006	-0.0001228	9
	47	131	5.978954	162.4726	-483.1764	1	509.7614	-71.4143	1.139423E-006	-0.0001263	8
	48	134	4.734848	207.1316	-582.6937	1	618.4136	-70.4311	1.268595E-006	-0.0000964	8
	49	137	3.75601	266.057	-699.3098	1	748.2115	-69.17036	9.206317E-007	-0.0001392	8
	50	140	3.004808	340.7192	-829.1426	1	896.419	-67.66079	9.370852E-007	-0.000103	8
	51	144	2.372217	445.976	-985.919	1	1082.096	-65.6606	1.047745E-006	-4.467474E-005	8
	52	148	1.878005	578.2235	-1157.071	1	1293.505	-63.44731	9.324091E-007	-0.0001483	8
	53	153	1.512097	730.9868	-1324.916	1	1513.19	-61.11346	9.693688E-007	-8.27503E-005	8
	54	158	1.201923	932.6279	-1516.069	1	1779.96	-58.40175	1.029151E-006	-0.0001533	8
	55	165	0.956633	1168.832	-1707.356	1	2069.114	-55.605	8.416725E-007	-0.0006708	8
