EXPLAIN
TAG	EISPOT
TITLE	LABEL	Potentiostatic EIS	Test Identifier
DATE	LABEL	10/5/2021	Date
TIME	LABEL	15:22:27	Time
NOTES	NOTES	1	Notes...
	
PSTAT	PSTAT	REF3000-16137	Potentiostat
VDC	POTEN	0.00000E+000	T	DC Voltage (V)
FREQINIT	QUANT	3.00000E+005	Initial Freq. (Hz)
FREQFINAL	QUANT	1.00000E+000	Final Freq. (Hz)
PTSPERDEC	QUANT	1.00000E+001	Points/decade
VAC	QUANT	5.00000E+001	AC Voltage (mV rms)
AREA	QUANT	1.00000E+000	Sample Area (cm^2)
SPEED	SELECTOR	2	Optimize for:
ZGUESS	QUANT	1.00000E+003	Estimated Z (ohms)
EOC	QUANT	0	Open Circuit (V)
SEQUENCER	TOGGLE	TRUE	Run as Sequence
PSTATMODEL	IQUANT	5	Pstat Model
PSTATSECTION	LABEL	REF3000-16137	Pstat Section
PSTATSERIALNO	LABEL	16137	Pstat Serial Number
CTRLMODE	IQUANT	1	Control Mode
IESTAB	IQUANT	0	I/E Stability
CASPEED	IQUANT	1	Control Amp Speed
CONVENTION	IQUANT	1	Current Convention
ICHRANGE	IQUANT	2	Ich Range
ICHRANGEMODE	TOGGLE	F	Ich Auto Range
ICHOFFSETENABLE	TOGGLE	T	Ich Offset Enable
ICHOFFSET	QUANT	0	Ich Offset (V)
ICHFILTER	IQUANT	3	Ich Filter
VCHRANGE	IQUANT	2	Vch Range
VCHRANGEMODE	TOGGLE	F	Vch Auto Range
VCHOFFSETENABLE	TOGGLE	T	Vch Offset Enable
VCHOFFSET	QUANT	0	Vch Offset (V)
VCHFILTER	IQUANT	3	Vch Filter
ACHRANGE	IQUANT	2	Ach Range
ACHOFFSETENABLE	TOGGLE	F	Ach Offset Enable
ACHOFFSET	QUANT	0	Ach Offset (V)
ACHFILTER	IQUANT	3	Ach Filter
IERANGELOWERLIMIT	IQUANT	2	I/E Range Lower Limit
IERANGEMODE	TOGGLE	F	I/E AutoRange
IERANGE	IQUANT	11	I/E Range
POSFEEDENABLE	TOGGLE	F	Positive Feedback IR Comp
POSFEEDRESISTANCE	QUANT	0	Positive Feedback Resistance (ohm)
ACHSELECT	IQUANT	0	Ach Select
CABLEID	IQUANT	13	Cable ID
DCCALDATE	LABEL	9/10/2021	DC Calibration Date
ACCALDATE	LABEL	9/10/2021	AC Calibration Date
THERMOSELECT	IQUANT	1	Thermo Select
FRAMEWORKVERSION	QUANT	6.33	Framework Version
INSTRUMENTVERSION	LABEL	3.50	Instrument Version
COMPLIANCEVOLTAGE	IQUANT	0	Compliance Voltage
ZCURVE	TABLE
	Pt	Time	Freq	Zreal	Zimag	Zsig	Zmod	Zphz	Idc	Vdc	IERange
	#	s	Hz	ohm	ohm	V	ohm	°	A	V	#
	0	17	300046.9	843.0322	-3680.824	1	3776.132	-77.09984	2.258367E-005	-0.0023705	9
	1	33	238359.4	1165.982	-4460.853	1	4610.718	-75.35169	2.001828E-005	-0.0013166	9
	2	47	189328.1	1575.198	-5504.888	1	5725.822	-74.03177	2.20533E-005	-0.0012019	9
	3	56	150421.9	2398.977	-6677.948	1	7095.779	-70.23975	2.728303E-005	0.0007402	9
	4	67	119484.4	3305.707	-7742.584	1	8418.747	-66.87988	2.141649E-005	-0.0157597	8
	5	74	94921.88	4486.145	-9179.165	1	10216.78	-63.9538	1.844374E-005	-0.0009853	8
	6	83	75421.88	5759.034	-10854.21	1	12287.41	-62.05045	1.845444E-005	-0.0009889	8
	7	92	59859.37	7813.801	-12588.9	1	14816.75	-58.17256	2.566151E-005	-0.0100668	8
	8	100	47578.12	9908.64	-14266.81	1	17370.18	-55.21909	2.155678E-005	-0.0106332	8
	9	108	37828.12	12738.52	-15276.19	1	19890.49	-50.17593	-1.116137E-005	-0.0024237	8
	10	116	30046.88	18166.2	-16282.95	1	24395.6	-41.8709	8.29951E-007	-0.0193171	7
	11	123	23859.38	19643.69	-18055.52	1	26681.02	-42.5877	1.49159E-005	-0.0100648	8
	12	129	18984.38	25478.07	-17376.16	1	30839.31	-34.29417	6.149537E-006	-0.026926	7
	13	135	15046.87	28551.54	-19414.98	1	34527.27	-34.21561	-6.686856E-007	0.0065053	8
	14	141	11953.13	32824.74	-16769.76	1	36860.39	-27.06194	7.414893E-006	-0.0196408	7
	15	146	9515.62	36499.86	-17078.69	1	40297.9	-25.07541	-2.872559E-006	-0.005522	8
	16	153	7546.875	40062.75	-14610.18	1	42643.66	-20.03602	6.487498E-006	-0.0115546	7
	17	159	5928.309	43653.1	-12687.81	1	45459.59	-16.20655	4.986452E-006	-0.0025656	7
	18	164	4733.456	50159.45	-12605.94	1	51719.25	-14.10726	-1.073933E-005	0.009218	8
	19	170	3796.875	48617.76	-11095.77	1	49867.85	-12.85612	5.028301E-006	-0.0268812	7
	20	176	2987.132	51145.46	-9669.95	1	52051.57	-10.70639	4.977661E-006	-0.0268335	7
	21	181	2390.625	53500.46	-8470.743	1	54166.89	-8.996974	5.018E-006	-0.0267732	7
	22	187	1884.191	55099.14	-8295.499	1	55720.11	-8.561912	3.076835E-006	-0.0242523	7
	23	192	1516.544	57319.62	-6033.218	1	57636.26	-6.008584	-6.765575E-006	0.0121204	7
	24	197	1193.986	60999.41	-5478.811	1	61244.96	-5.132388	-1.452078E-006	-0.0127126	7
	25	203	946.5144	63163.5	-5978.616	1	63445.82	-5.407109	-6.702324E-006	0.0120455	7
	26	207	751.7689	62358.99	-4348.512	1	62510.42	-3.988979	7.929516E-007	-0.0191657	7
	27	210	597.4265	64714.46	-2739.905	1	64772.44	-2.424362	2.337817E-007	0.0082425	6
	28	213	477.4305	65604.35	-1929.297	1	65632.71	-1.684472	-1.59123E-008	-0.0001922	6
	29	215	376.6741	66425.18	-1651.625	1	66445.71	-1.424334	-1.513786E-008	-0.0001863	6
	30	218	298.2954	67421.97	-1335.576	1	67435.2	-1.134835	-1.502159E-008	-0.0001588	6
	31	220	237.7717	68308.5	-1228.085	1	68319.54	-1.029982	-1.422889E-008	-0.0001819	6
	32	223	189.0121	69233.05	-1067.645	1	69241.29	-0.8834901	-1.511983E-008	-0.0000993	6
	33	225	150.2404	70304.56	-954.561	1	70311.04	-0.7778865	-1.369013E-008	-0.0001672	6
	34	228	119.1737	71110.7	-819.2887	1	71115.41	-0.6600935	-1.45742E-008	-0.0001402	6
	35	230	95.0169	72312.19	-810.7528	1	72316.73	-0.6423643	-1.521752E-008	-0.0000989	6
	36	233	75.60484	73321.12	-698.7286	1	73324.45	-0.5459954	-1.362513E-008	-0.0001882	6
	37	235	54.50582	74595.28	-820.1086	1	74599.79	-0.6298906	-1.672733E-008	-0.0000962	6
	38	238	45.95588	75428.16	-677.4553	1	75431.2	-0.5145862	-1.325329E-008	-0.0000954	6
	39	240	37.20238	76399.37	-752.3339	1	76403.07	-0.5641953	-1.347864E-008	-0.0001848	6
	40	242	30.04808	77590.13	-764.1783	1	77593.89	-0.5642829	-1.173569E-008	-0.0001762	6
	41	245	23.91582	78808.15	-858.1671	1	78812.82	-0.6238874	-1.819062E-008	-0.0001878	6
	42	248	18.60119	79784.34	-844.957	1	79788.82	-0.6067689	-1.361933E-008	-0.0001119	6
	43	250	15.02404	80881.37	-1083.881	1	80888.63	-0.7677679	-1.95077E-008	-0.0001178	6
	44	253	12.01923	82051.98	-1233.082	1	82061.25	-0.8609798	-9.374285E-009	-0.0001872	6
	45	255	9.450605	83234.7	-1502.234	1	83248.25	-1.033972	-1.522007E-008	-0.0001738	6
	46	258	7.512019	84575.06	-1781.02	1	84593.81	-1.206382	-5.71175E-009	-0.0001841	6
	47	261	5.978954	86390.27	-2181.208	1	86417.8	-1.446314	-7.343227E-009	-0.0000964	6
	48	265	4.734848	88230.48	-2693.594	1	88271.59	-1.748644	-2.23128E-008	-0.0001637	6
	49	268	3.75601	90564.52	-3259.114	1	90623.15	-2.060994	-6.847917E-009	-0.0001711	6
	50	274	3.004808	93722.23	-3971.614	1	93806.35	-2.426539	-6.460225E-009	-0.0001785	6
	51	280	2.372217	96801.8	-4807.925	1	96921.2	-2.843413	-2.250497E-008	-0.0001655	6
	52	285	1.878005	99376.4	-5939.31	1	99553.7	-3.420259	-1.821563E-008	-0.0001331	6
	53	289	1.512097	102319.5	-7296.917	1	102579.4	-4.079142	-1.173735E-008	-0.0002763	6
	54	295	1.201923	106173.8	-9040.927	1	106558	-4.867117	-2.186482E-008	-0.0001299	6
	55	301	0.956633	110433	-11235.68	1	111003.1	-5.8094	-2.485411E-008	-0.0006801	6
