EXPLAIN
TAG	EISPOT
TITLE	LABEL	Potentiostatic EIS	Test Identifier
DATE	LABEL	10/5/2021	Date
TIME	LABEL	15:33:18	Time
NOTES	NOTES	1	Notes...
	
PSTAT	PSTAT	REF3000-16137	Potentiostat
VDC	POTEN	0.00000E+000	T	DC Voltage (V)
FREQINIT	QUANT	3.00000E+005	Initial Freq. (Hz)
FREQFINAL	QUANT	1.00000E+000	Final Freq. (Hz)
PTSPERDEC	QUANT	1.00000E+001	Points/decade
VAC	QUANT	5.00000E+001	AC Voltage (mV rms)
AREA	QUANT	1.00000E+000	Sample Area (cm^2)
SPEED	SELECTOR	2	Optimize for:
ZGUESS	QUANT	1.00000E+003	Estimated Z (ohms)
EOC	QUANT	0	Open Circuit (V)
SEQUENCER	TOGGLE	TRUE	Run as Sequence
PSTATMODEL	IQUANT	5	Pstat Model
PSTATSECTION	LABEL	REF3000-16137	Pstat Section
PSTATSERIALNO	LABEL	16137	Pstat Serial Number
CTRLMODE	IQUANT	1	Control Mode
IESTAB	IQUANT	0	I/E Stability
CASPEED	IQUANT	1	Control Amp Speed
CONVENTION	IQUANT	1	Current Convention
ICHRANGE	IQUANT	2	Ich Range
ICHRANGEMODE	TOGGLE	F	Ich Auto Range
ICHOFFSETENABLE	TOGGLE	T	Ich Offset Enable
ICHOFFSET	QUANT	0	Ich Offset (V)
ICHFILTER	IQUANT	3	Ich Filter
VCHRANGE	IQUANT	2	Vch Range
VCHRANGEMODE	TOGGLE	F	Vch Auto Range
VCHOFFSETENABLE	TOGGLE	T	Vch Offset Enable
VCHOFFSET	QUANT	0	Vch Offset (V)
VCHFILTER	IQUANT	3	Vch Filter
ACHRANGE	IQUANT	2	Ach Range
ACHOFFSETENABLE	TOGGLE	F	Ach Offset Enable
ACHOFFSET	QUANT	0	Ach Offset (V)
ACHFILTER	IQUANT	3	Ach Filter
IERANGELOWERLIMIT	IQUANT	2	I/E Range Lower Limit
IERANGEMODE	TOGGLE	F	I/E AutoRange
IERANGE	IQUANT	11	I/E Range
POSFEEDENABLE	TOGGLE	F	Positive Feedback IR Comp
POSFEEDRESISTANCE	QUANT	0	Positive Feedback Resistance (ohm)
ACHSELECT	IQUANT	0	Ach Select
CABLEID	IQUANT	13	Cable ID
DCCALDATE	LABEL	9/10/2021	DC Calibration Date
ACCALDATE	LABEL	9/10/2021	AC Calibration Date
THERMOSELECT	IQUANT	1	Thermo Select
FRAMEWORKVERSION	QUANT	6.33	Framework Version
INSTRUMENTVERSION	LABEL	3.50	Instrument Version
COMPLIANCEVOLTAGE	IQUANT	0	Compliance Voltage
ZCURVE	TABLE
	Pt	Time	Freq	Zreal	Zimag	Zsig	Zmod	Zphz	Idc	Vdc	IERange
	#	s	Hz	ohm	ohm	V	ohm	°	A	V	#
	0	14	300046.9	85.09253	-4232.679	1	4233.534	-88.8483	-2.666658E-005	0.0013577	9
	1	30	238359.4	135.9795	-5286.682	1	5288.431	-88.52661	-3.679093E-006	-0.0020593	9
	2	45	189328.1	224.0647	-6838.898	1	6842.567	-88.12347	2.103114E-005	-0.0011852	9
	3	54	150421.9	610.3239	-8536.581	1	8558.371	-85.91059	2.01125E-005	-0.001181	9
	4	61	119484.4	503.8095	-10176.26	1	10188.73	-87.1657	1.634414E-005	-0.0021616	9
	5	72	94921.88	568.8364	-12987.08	1	12999.53	-87.49203	-1.910702E-005	0.0105717	8
	6	80	75421.88	1161.022	-15777.9	1	15820.56	-85.79146	-1.118548E-005	0.0094435	8
	7	89	59859.37	1434.981	-19874.59	1	19926.32	-85.87031	2.403465E-005	-0.0039925	8
	8	97	47578.12	2847.041	-27197.04	1	27345.65	-84.02393	6.73839E-006	-0.0083714	8
	9	104	37828.12	5202.222	-31897.25	1	32318.69	-80.73701	6.700354E-006	-0.0282893	7
	10	112	30046.88	5923.844	-39927.39	1	40364.45	-81.56085	3.236966E-006	0.0061332	7
	11	119	23859.38	7234.773	-48755.93	1	49289.79	-81.55961	6.698373E-006	-0.0281459	7
	12	125	18984.38	8408.364	-60745.07	1	61324.25	-82.11916	-6.474377E-006	0.0257933	7
	13	130	15046.87	10868.52	-75190.07	1	75971.52	-81.77502	3.136806E-006	-0.0252219	7
	14	135	11953.13	12759.16	-94464.76	1	95322.5	-82.30773	-3.780908E-006	-0.0046892	7
	15	141	9515.62	16994.62	-119763.7	1	120963.5	-81.92358	9.001594E-007	-0.019957	7
	16	147	7546.875	8532.376	-165093.1	1	165313.4	-87.04146	6.797032E-006	-0.0084399	8
	17	155	5928.309	13701.45	-192078.4	1	192566.4	-85.91985	-5.744275E-006	0.0043555	7
	18	161	4733.456	3221.55	-238292.4	1	238314.2	-89.22545	-7.519456E-006	0.0194215	7
	19	166	3796.875	142161.8	-313400.1	1	344136.1	-65.60042	-1.715088E-005	-0.0001346	9
	20	174	2987.132	83887.57	-340023.3	1	350218.5	-76.14124	-5.751201E-006	0.0042778	7
	21	182	2390.625	117589.4	-431193	1	446939.2	-74.74596	7.684729E-006	-0.0204397	7
	22	188	1884.191	177497	-321506.3	1	367248.5	-61.09781	-7.290465E-006	0.0237759	7
	23	195	1516.544	259112.7	-587983.7	1	642545.1	-66.21787	-7.0153E-006	0.012611	7
	24	201	1193.986	489230.3	-558813.3	1	742710.3	-48.79847	5.256021E-006	-0.0029738	7
	25	208	946.5144	340698.8	-284204.3	1	443675.3	-39.8342	-5.744148E-006	0.0044228	7
	26	214	751.7689	304788.2	-703920.1	1	767071.9	-66.58802	-5.09362E-006	0.0262352	7
	27	218	597.4265	335827.3	-210195.3	1	396184.3	-32.04258	-1.124708E-005	-0.0003361	9
	28	225	477.4305	887756.4	-1574635	1	1807646	-60.58632	-1.194966E-007	-0.0001564	7
	29	231	376.6741	1436035	-1702590	1	2227333	-49.85434	-1.401372E-009	-8.020232E-005	5
	30	234	298.2954	1782323	-1867612	1	2581598	-46.3386	-1.241284E-009	-0.0001119	5
	31	237	237.7717	1935808	-2129933	1	2878188	-47.7336	-1.238377E-008	-0.0001886	6
	32	241	189.0121	2574165	-2150079	1	3353978	-39.87042	-1.274095E-009	-3.307198E-005	5
	33	245	150.2404	2886156	-2281062	1	3678742	-38.32094	-1.200949E-008	-0.0001877	6
	34	249	119.1737	4104264	-2406484	1	4757746	-30.3847	-1.365305E-009	-5.88176E-005	5
	35	253	95.0169	3934818	-2233770	1	4524657	-29.58328	-1.300519E-009	-0.000115	5
	36	257	75.60484	4629919	-2036046	1	5057829	-23.7379	-1.218437E-009	-0.0000965	5
	37	261	54.50582	5029870	-1977898	1	5404782	-21.46626	-1.257669E-009	-0.0001068	5
	38	265	45.95588	6121262	-1301736	1	6258143	-12.00557	-9.234363E-011	0.0004763	4
	39	268	37.20238	6284519	-1205393	1	6399074	-10.85767	-1.932383E-010	0.0003906	4
	40	271	30.04808	6398812	-1064436	1	6486742	-9.444613	-1.128391E-010	0.0004187	4
	41	274	23.91582	6475412	-820603.4	1	6527200	-7.222371	-3.735419E-011	0.0003999	4
	42	276	18.60119	6605981	-960879	1	6675498	-8.275971	-2.383186E-010	0.0004007	4
	43	279	15.02404	6992438	-715699.5	1	7028969	-5.844065	-1.628439E-010	0.0003886	4
	44	281	12.01923	7208797	-623247.6	1	7235689	-4.941308	-1.697484E-010	0.0004074	4
	45	284	9.450605	7436645	-557552.4	1	7457516	-4.287652	-1.267809E-010	0.0004881	4
	46	287	7.512019	7618235	-494252.5	1	7634251	-3.712008	-1.404338E-010	0.0004267	4
	47	290	5.978954	7876112	-412993.1	1	7886932	-3.001622	-1.678712E-010	0.0004397	4
	48	294	4.734848	8199417	-419702.6	1	8210152	-2.930235	-1.414538E-010	0.0003816	4
	49	299	3.75601	8619121	-376227	1	8627328	-2.49939	-1.723229E-010	0.0004592	4
	50	304	3.004808	9014277	-327342.3	1	9020219	-2.079712	-1.541789E-010	0.0003939	4
	51	311	2.372217	9443564	-331409.9	1	9449377	-2.009898	-1.429316E-010	0.0004623	4
	52	315	1.878005	9.817647E+006	-304157.8	1	9.822357E+006	-1.774497	-1.448202E-010	0.0004334	4
	53	320	1.512097	1.025661E+007	-282005.2	1	1.026049E+007	-1.574949	-1.498561E-010	0.0003703	4
	54	325	1.201923	1.077424E+007	-270912.5	1	1.077764E+007	-1.440369	-1.422603E-010	0.0004298	4
	55	331	0.956633	1.1372E+007	-256267.7	1	1.137488E+007	-1.290941	-1.853978E-010	-0.0001093	4
