EXPLAIN
TAG	EISPOT
TITLE	LABEL	Potentiostatic EIS	Test Identifier
DATE	LABEL	10/5/2021	Date
TIME	LABEL	14:14:52	Time
NOTES	NOTES	1	Notes...
	
PSTAT	PSTAT	REF3000-16137	Potentiostat
VDC	POTEN	0.00000E+000	T	DC Voltage (V)
FREQINIT	QUANT	3.00000E+005	Initial Freq. (Hz)
FREQFINAL	QUANT	1.00000E+000	Final Freq. (Hz)
PTSPERDEC	QUANT	1.00000E+001	Points/decade
VAC	QUANT	5.00000E+001	AC Voltage (mV rms)
AREA	QUANT	1.00000E+000	Sample Area (cm^2)
SPEED	SELECTOR	2	Optimize for:
ZGUESS	QUANT	1.00000E+003	Estimated Z (ohms)
EOC	QUANT	0	Open Circuit (V)
SEQUENCER	TOGGLE	TRUE	Run as Sequence
PSTATMODEL	IQUANT	5	Pstat Model
PSTATSECTION	LABEL	REF3000-16137	Pstat Section
PSTATSERIALNO	LABEL	16137	Pstat Serial Number
CTRLMODE	IQUANT	1	Control Mode
IESTAB	IQUANT	0	I/E Stability
CASPEED	IQUANT	1	Control Amp Speed
CONVENTION	IQUANT	1	Current Convention
ICHRANGE	IQUANT	2	Ich Range
ICHRANGEMODE	TOGGLE	F	Ich Auto Range
ICHOFFSETENABLE	TOGGLE	T	Ich Offset Enable
ICHOFFSET	QUANT	0	Ich Offset (V)
ICHFILTER	IQUANT	3	Ich Filter
VCHRANGE	IQUANT	2	Vch Range
VCHRANGEMODE	TOGGLE	F	Vch Auto Range
VCHOFFSETENABLE	TOGGLE	T	Vch Offset Enable
VCHOFFSET	QUANT	0	Vch Offset (V)
VCHFILTER	IQUANT	3	Vch Filter
ACHRANGE	IQUANT	2	Ach Range
ACHOFFSETENABLE	TOGGLE	F	Ach Offset Enable
ACHOFFSET	QUANT	0	Ach Offset (V)
ACHFILTER	IQUANT	3	Ach Filter
IERANGELOWERLIMIT	IQUANT	2	I/E Range Lower Limit
IERANGEMODE	TOGGLE	F	I/E AutoRange
IERANGE	IQUANT	11	I/E Range
POSFEEDENABLE	TOGGLE	F	Positive Feedback IR Comp
POSFEEDRESISTANCE	QUANT	0	Positive Feedback Resistance (ohm)
ACHSELECT	IQUANT	0	Ach Select
CABLEID	IQUANT	13	Cable ID
DCCALDATE	LABEL	9/10/2021	DC Calibration Date
ACCALDATE	LABEL	9/10/2021	AC Calibration Date
THERMOSELECT	IQUANT	1	Thermo Select
FRAMEWORKVERSION	QUANT	6.33	Framework Version
INSTRUMENTVERSION	LABEL	3.50	Instrument Version
COMPLIANCEVOLTAGE	IQUANT	0	Compliance Voltage
ZCURVE	TABLE
	Pt	Time	Freq	Zreal	Zimag	Zsig	Zmod	Zphz	Idc	Vdc	IERange
	#	s	Hz	ohm	ohm	V	ohm	°	A	V	#
	0	10	300046.9	4.217559	2.227585	1	4.76969	27.84164	-3.967419E-006	-0.0007764	10
	1	13	238359.4	4.205407	1.767968	1	4.561925	22.80206	7.597041E-005	-0.0013037	10
	2	17	189328.1	4.194522	1.398828	1	4.421621	18.44298	1.724938E-005	-0.0008233	10
	3	19	150421.9	4.191543	1.089841	1	4.33091	14.57472	2.335088E-005	-0.0006004	10
	4	22	119484.4	4.180163	0.8473635	1	4.265183	11.45919	-2.525412E-005	-0.0004721	10
	5	24	94921.88	4.185157	0.6511675	1	4.235511	8.843727	4.697999E-006	-0.0003651	10
	6	27	75421.88	4.189769	0.4789869	1	4.21706	6.521911	-1.341652E-006	-0.0003111	10
	7	29	59859.37	4.195865	0.3303087	1	4.208846	4.501181	2.566422E-005	-0.0002416	10
	8	32	47578.12	4.203326	0.2008253	1	4.20812	2.735381	2.628966E-005	-0.0002225	10
	9	34	37828.12	4.212861	0.0830575	1	4.21368	1.129453	2.554091E-005	-0.0001897	10
	10	37	30046.88	4.224256	-0.0299936	1	4.224362	-0.4068121	-3.001354E-005	-0.000169	10
	11	39	23859.38	4.238161	-0.1421633	1	4.240545	-1.921188	-1.493127E-005	-0.0001135	10
	12	42	18984.38	4.251958	-0.2586347	1	4.259817	-3.480853	4.40242E-006	-0.0001734	10
	13	44	15046.87	4.267411	-0.3878265	1	4.284998	-5.192832	1.872153E-005	-0.0001584	10
	14	46	11953.13	4.286895	-0.5341105	1	4.32004	-7.101968	-1.914094E-005	-0.0001525	10
	15	49	9515.62	4.308922	-0.7025765	1	4.365825	-9.260672	2.379224E-005	-0.0001426	10
	16	51	7546.875	4.33622	-0.9067641	1	4.430014	-11.81115	-1.616308E-005	-0.0000977	10
	17	53	5928.309	4.368995	-1.164354	1	4.521486	-14.9227	5.428185E-006	-0.0001574	10
	18	56	4733.456	4.407373	-1.457668	1	4.642169	-18.30081	1.745613E-005	-0.0001606	10
	19	58	3796.875	4.454756	-1.806187	1	4.806991	-22.07016	-1.464173E-006	-0.0001481	10
	20	60	2987.132	4.516585	-2.273708	1	5.056609	-26.72128	-2.617957E-006	-0.0001512	10
	21	63	2390.625	4.587723	-2.808537	1	5.379134	-31.47436	-2.373092E-005	-0.0001439	10
	22	65	1884.191	4.68363	-3.508738	1	5.852148	-36.83869	5.941661E-006	-0.0001585	10
	23	67	1516.544	4.792546	-4.295953	1	6.436126	-41.87249	-1.222875E-005	-0.000142	10
	24	70	1193.986	4.941185	-5.364829	1	7.293607	-47.3539	-1.723944E-005	-0.0001366	10
	25	72	946.5144	5.121423	-6.653636	1	8.396419	-52.41388	1.012026E-005	-0.000119	10
	26	74	751.7689	5.353299	-8.223754	1	9.81264	-56.93766	-3.280948E-006	-0.0001502	10
	27	77	597.4265	5.641412	-10.15877	1	11.62008	-60.95553	1.132949E-005	-0.0001624	10
	28	79	477.4305	5.999874	-12.48596	1	13.85272	-64.33434	-1.90527E-006	-0.0001186	10
	29	81	376.6741	6.473046	-15.50147	1	16.79869	-67.33574	-1.045987E-006	-0.0001251	10
	30	84	298.2954	7.060484	-19.17271	1	20.43143	-69.78342	-6.475819E-007	-0.0001204	10
	31	86	237.7717	7.777793	-23.56335	1	24.81381	-71.73297	-9.11401E-007	-0.0001214	10
	32	88	189.0121	8.694176	-29.02732	1	30.30138	-73.32615	-2.054309E-006	-0.0001207	10
	33	91	150.2404	9.85459	-35.7414	1	37.07507	-74.58544	-1.615269E-006	-0.0001229	10
	34	93	119.1737	11.3338	-44.02716	1	45.46258	-75.56394	9.761383E-007	-0.0001301	9
	35	95	95.0169	13.20421	-54.0143	1	55.60482	-76.26302	8.757415E-007	-0.0001409	9
	36	98	75.60484	15.62948	-66.34431	1	68.16045	-76.74389	8.312485E-007	-0.000136	9
	37	100	54.50582	20.377	-88.88331	1	91.18917	-77.08775	8.853148E-007	-0.0001415	9
	38	103	45.95588	23.66045	-103.4547	1	106.1258	-77.11781	9.902765E-007	-0.000135	9
	39	105	37.20238	28.67113	-124.6117	1	127.8676	-77.04268	9.78163E-007	-0.0001399	9
	40	108	30.04808	35.11106	-150.2872	1	154.3342	-76.85005	8.204282E-007	-0.0001358	9
	41	110	23.91582	43.78614	-182.9985	1	188.1639	-76.54379	8.30675E-007	-0.0001409	9
	42	113	18.60119	56.04202	-226.9477	1	233.7648	-76.129	9.29729E-007	-0.0001322	9
	43	115	15.02404	69.1638	-271.8073	1	280.469	-75.72356	8.702291E-007	-0.0001351	9
	44	117	12.01923	86.15574	-327.6696	1	338.807	-75.26839	8.039287E-007	-0.000134	9
	45	120	9.450605	108.7977	-400.0133	1	414.5451	-74.78446	9.367459E-007	-0.0001257	9
	46	122	7.512019	134.735	-481.6325	1	500.1234	-74.37122	8.801477E-007	-0.0001051	8
	47	125	5.978954	167.2092	-581.3461	1	604.915	-73.95348	7.717254E-007	-0.0001225	8
	48	128	4.734848	208.722	-704.4264	1	734.6982	-73.49541	9.091503E-007	-9.03511E-005	8
	49	131	3.75601	261.1729	-852.5808	1	891.6868	-72.96849	7.227458E-007	-0.0001334	8
	50	135	3.004808	325.3939	-1023.785	1	1074.252	-72.36797	7.593963E-007	-0.0001141	8
	51	138	2.372217	417.1082	-1241.14	1	1309.354	-71.42412	7.606283E-007	-6.159906E-005	8
	52	143	1.878005	534.183	-1499.377	1	1591.692	-70.39054	6.755145E-007	-0.0001402	8
	53	147	1.512097	675.5272	-1774.161	1	1898.417	-69.15524	7.214729E-007	-0.0001307	8
	54	153	1.201923	877.9634	-2115.72	1	2290.653	-67.46294	7.22691E-007	-0.0001514	8
	55	159	0.956633	1134.326	-2494.786	1	2740.557	-65.54973	6.557686E-007	-0.0006645	8
