EXPLAIN
TAG	EISPOT
TITLE	LABEL	Potentiostatic EIS	Test Identifier
DATE	LABEL	10/5/2021	Date
TIME	LABEL	14:51:04	Time
NOTES	NOTES	1	Notes...
	
PSTAT	PSTAT	REF3000-16137	Potentiostat
VDC	POTEN	0.00000E+000	T	DC Voltage (V)
FREQINIT	QUANT	3.00000E+005	Initial Freq. (Hz)
FREQFINAL	QUANT	1.00000E+000	Final Freq. (Hz)
PTSPERDEC	QUANT	1.00000E+001	Points/decade
VAC	QUANT	5.00000E+001	AC Voltage (mV rms)
AREA	QUANT	1.00000E+000	Sample Area (cm^2)
SPEED	SELECTOR	2	Optimize for:
ZGUESS	QUANT	1.00000E+003	Estimated Z (ohms)
EOC	QUANT	0	Open Circuit (V)
SEQUENCER	TOGGLE	TRUE	Run as Sequence
PSTATMODEL	IQUANT	5	Pstat Model
PSTATSECTION	LABEL	REF3000-16137	Pstat Section
PSTATSERIALNO	LABEL	16137	Pstat Serial Number
CTRLMODE	IQUANT	1	Control Mode
IESTAB	IQUANT	0	I/E Stability
CASPEED	IQUANT	1	Control Amp Speed
CONVENTION	IQUANT	1	Current Convention
ICHRANGE	IQUANT	2	Ich Range
ICHRANGEMODE	TOGGLE	F	Ich Auto Range
ICHOFFSETENABLE	TOGGLE	T	Ich Offset Enable
ICHOFFSET	QUANT	0	Ich Offset (V)
ICHFILTER	IQUANT	3	Ich Filter
VCHRANGE	IQUANT	2	Vch Range
VCHRANGEMODE	TOGGLE	F	Vch Auto Range
VCHOFFSETENABLE	TOGGLE	T	Vch Offset Enable
VCHOFFSET	QUANT	0	Vch Offset (V)
VCHFILTER	IQUANT	3	Vch Filter
ACHRANGE	IQUANT	2	Ach Range
ACHOFFSETENABLE	TOGGLE	F	Ach Offset Enable
ACHOFFSET	QUANT	0	Ach Offset (V)
ACHFILTER	IQUANT	3	Ach Filter
IERANGELOWERLIMIT	IQUANT	2	I/E Range Lower Limit
IERANGEMODE	TOGGLE	F	I/E AutoRange
IERANGE	IQUANT	11	I/E Range
POSFEEDENABLE	TOGGLE	F	Positive Feedback IR Comp
POSFEEDRESISTANCE	QUANT	0	Positive Feedback Resistance (ohm)
ACHSELECT	IQUANT	0	Ach Select
CABLEID	IQUANT	13	Cable ID
DCCALDATE	LABEL	9/10/2021	DC Calibration Date
ACCALDATE	LABEL	9/10/2021	AC Calibration Date
THERMOSELECT	IQUANT	1	Thermo Select
FRAMEWORKVERSION	QUANT	6.33	Framework Version
INSTRUMENTVERSION	LABEL	3.50	Instrument Version
COMPLIANCEVOLTAGE	IQUANT	0	Compliance Voltage
ZCURVE	TABLE
	Pt	Time	Freq	Zreal	Zimag	Zsig	Zmod	Zphz	Idc	Vdc	IERange
	#	s	Hz	ohm	ohm	V	ohm	°	A	V	#
	0	7	300046.9	58.62443	1.890755	1	58.65491	1.847263	-6.894532E-005	0.0017597	9
	1	10	238359.4	59.03116	1.32193	1	59.04596	1.282854	1.173865E-007	0.000192	9
	2	13	189328.1	59.38631	0.986497	1	59.3945	0.951683	-6.154281E-006	0.0004411	9
	3	16	150421.9	59.74177	0.7438514	1	59.7464	0.7133592	4.214532E-005	-0.0008269	9
	4	18	119484.4	60.1061	0.5816793	1	60.10892	0.5544649	5.773329E-005	-0.0022002	9
	5	21	94921.88	60.45726	0.505156	1	60.45937	0.4787288	-9.752527E-006	-0.0002053	9
	6	23	75421.88	60.73776	0.3208335	1	60.73861	0.3026492	2.054212E-005	-0.0006574	9
	7	26	59859.37	61.03162	0.1489469	1	61.0318	0.1398294	-3.506279E-006	-0.0003758	9
	8	29	47578.12	61.36674	-0.0068019	1	61.36674	-0.0063507	-1.588632E-005	5.827889E-005	9
	9	31	37828.12	61.682	-0.1339971	1	61.68214	-0.1244683	1.859274E-005	-0.0008177	9
	10	34	30046.88	62.0331	-0.2344853	1	62.03354	-0.2165772	-1.393121E-005	4.724777E-005	9
	11	36	23859.38	62.353	-0.3920938	1	62.35424	-0.3602878	8.273469E-006	-4.361023E-005	9
	12	38	18984.38	62.64431	-0.5161989	1	62.64644	-0.4721155	-1.514322E-005	5.495091E-005	9
	13	41	15046.87	62.97962	-0.6897062	1	62.9834	-0.6274359	-3.660169E-006	-0.0003619	9
	14	43	11953.13	63.32471	-0.8426501	1	63.33031	-0.7623793	2.136693E-005	-0.0006142	9
	15	45	9515.62	63.61925	-1.053229	1	63.62797	-0.9484557	2.121038E-005	-0.0007252	9
	16	48	7546.875	63.92312	-1.30368	1	63.93641	-1.168357	-1.021104E-005	-0.0001267	9
	17	50	5928.309	64.27497	-1.621739	1	64.29543	-1.445339	-1.793635E-005	0.0002694	9
	18	52	4733.456	64.61752	-2.011855	1	64.64883	-1.783318	-1.04054E-005	-0.0001351	9
	19	55	3796.875	64.96618	-2.524566	1	65.01521	-2.225377	-3.81383E-006	-0.0003595	9
	20	57	2987.132	65.33174	-3.151055	1	65.40768	-2.761328	-1.889722E-005	0.0004098	9
	21	59	2390.625	65.72212	-3.850539	1	65.83482	-3.353022	-1.808361E-005	0.0003066	9
	22	62	1884.191	66.15101	-4.784231	1	66.32378	-4.136593	-1.609377E-005	0.0001166	9
	23	64	1516.544	66.59209	-5.89989	1	66.85294	-5.063041	-1.530399E-005	0.0005291	9
	24	66	1193.986	67.04661	-7.385751	1	67.45218	-6.286269	-1.563783E-005	0.0005438	9
	25	69	946.5144	67.57839	-9.214027	1	68.20364	-7.764161	-1.832484E-005	0.0004731	9
	26	71	751.7689	68.13682	-11.42928	1	69.08875	-9.52215	3.399593E-006	-0.0005857	9
	27	74	597.4265	68.71634	-14.16252	1	70.16061	-11.64566	9.289246E-006	-0.0007173	9
	28	76	477.4305	69.47033	-17.47259	1	71.63392	-14.11772	7.216946E-007	-0.0001238	9
	29	78	376.6741	70.28197	-21.80205	1	73.5859	-17.23433	6.721324E-007	-0.0001259	9
	30	81	298.2954	71.23559	-27.10994	1	76.2198	-20.83519	7.958188E-007	-0.000137	9
	31	83	237.7717	72.35488	-33.49282	1	79.73079	-24.83925	7.316071E-007	-0.0001316	9
	32	85	189.0121	73.71056	-41.45837	1	84.56976	-29.3555	7.399183E-007	-0.0001326	9
	33	88	150.2404	75.34068	-51.28485	1	91.1392	-34.24335	6.478638E-007	-0.0001247	9
	34	90	119.1737	77.33629	-63.52542	1	100.0819	-39.4003	7.118863E-007	-0.0001289	9
	35	92	95.0169	79.72526	-78.2719	1	111.7256	-44.47297	7.362734E-007	-0.0001339	9
	36	95	75.60484	82.68763	-96.5857	1	127.1458	-49.43297	6.657678E-007	-0.0001341	9
	37	98	54.50582	88.00391	-130.3723	1	157.2947	-55.97987	7.369714E-007	-0.0001352	9
	38	100	45.95588	91.6936	-152.4477	1	177.8989	-58.97412	6.578754E-007	-0.0001248	9
	39	102	37.20238	97.0624	-184.917	1	208.843	-62.30516	6.397136E-007	-0.0001251	9
	40	105	30.04808	103.7149	-224.6841	1	247.4666	-65.2218	7.399005E-007	-0.0001261	9
	41	107	23.91582	112.5173	-276.5541	1	298.5671	-67.86083	5.944415E-007	-0.0001316	9
	42	110	18.60119	124.6181	-347.3154	1	368.9954	-70.26183	5.976046E-007	-0.0001213	9
	43	112	15.02404	136.9241	-419.5518	1	441.3297	-71.92549	2.207332E-007	-0.0001167	8
	44	114	12.01923	153.6231	-513.3081	1	535.8034	-73.33858	2.427781E-007	-0.0001173	8
	45	117	9.450605	176.2281	-637.7524	1	661.6528	-74.55309	3.377639E-007	-0.0001204	8
	46	119	7.512019	203.5604	-784.3013	1	810.2872	-75.45028	3.267097E-007	-0.0001152	8
	47	122	5.978954	237.5624	-962.655	1	991.534	-76.13762	3.040212E-007	-0.0001212	8
	48	125	4.734848	282.813	-1186.8	1	1220.032	-76.59647	2.891592E-007	-9.332843E-005	8
	49	128	3.75601	339.7235	-1460.145	1	1499.144	-76.90234	2.512226E-007	-0.0001234	8
	50	132	3.004808	409.886	-1779.688	1	1826.279	-77.03018	2.499631E-007	-8.71879E-005	8
	51	135	2.372217	505.6034	-2195.765	1	2253.224	-77.03292	2.745789E-007	-4.090351E-005	8
	52	140	1.878005	626.1628	-2694.734	1	2766.527	-76.91859	2.421908E-007	-0.0001319	8
	53	144	1.512097	771.6365	-3250.343	1	3340.681	-76.64512	2.706814E-007	-4.003618E-005	8
	54	150	1.201923	958.625	-3972.829	1	4086.848	-76.43411	2.626143E-007	-0.0001422	8
	55	156	0.956633	1194.914	-4844.632	1	4989.817	-76.14471	7.638536E-009	-0.0006432	7
