EXPLAIN
TAG	EISPOT
TITLE	LABEL	Potentiostatic EIS	Test Identifier
DATE	LABEL	10/5/2021	Date
TIME	LABEL	13:55:00	Time
NOTES	NOTES	1	Notes...
	
PSTAT	PSTAT	REF3000-16137	Potentiostat
VDC	POTEN	0.00000E+000	T	DC Voltage (V)
FREQINIT	QUANT	3.00000E+005	Initial Freq. (Hz)
FREQFINAL	QUANT	1.00000E+000	Final Freq. (Hz)
PTSPERDEC	QUANT	1.00000E+001	Points/decade
VAC	QUANT	5.00000E+001	AC Voltage (mV rms)
AREA	QUANT	1.00000E+000	Sample Area (cm^2)
SPEED	SELECTOR	2	Optimize for:
ZGUESS	QUANT	1.00000E+003	Estimated Z (ohms)
EOC	QUANT	0	Open Circuit (V)
SEQUENCER	TOGGLE	TRUE	Run as Sequence
PSTATMODEL	IQUANT	5	Pstat Model
PSTATSECTION	LABEL	REF3000-16137	Pstat Section
PSTATSERIALNO	LABEL	16137	Pstat Serial Number
CTRLMODE	IQUANT	1	Control Mode
IESTAB	IQUANT	0	I/E Stability
CASPEED	IQUANT	1	Control Amp Speed
CONVENTION	IQUANT	1	Current Convention
ICHRANGE	IQUANT	2	Ich Range
ICHRANGEMODE	TOGGLE	F	Ich Auto Range
ICHOFFSETENABLE	TOGGLE	T	Ich Offset Enable
ICHOFFSET	QUANT	0	Ich Offset (V)
ICHFILTER	IQUANT	3	Ich Filter
VCHRANGE	IQUANT	2	Vch Range
VCHRANGEMODE	TOGGLE	F	Vch Auto Range
VCHOFFSETENABLE	TOGGLE	T	Vch Offset Enable
VCHOFFSET	QUANT	0	Vch Offset (V)
VCHFILTER	IQUANT	3	Vch Filter
ACHRANGE	IQUANT	2	Ach Range
ACHOFFSETENABLE	TOGGLE	F	Ach Offset Enable
ACHOFFSET	QUANT	0	Ach Offset (V)
ACHFILTER	IQUANT	3	Ach Filter
IERANGELOWERLIMIT	IQUANT	2	I/E Range Lower Limit
IERANGEMODE	TOGGLE	F	I/E AutoRange
IERANGE	IQUANT	11	I/E Range
POSFEEDENABLE	TOGGLE	F	Positive Feedback IR Comp
POSFEEDRESISTANCE	QUANT	0	Positive Feedback Resistance (ohm)
ACHSELECT	IQUANT	0	Ach Select
CABLEID	IQUANT	13	Cable ID
DCCALDATE	LABEL	9/10/2021	DC Calibration Date
ACCALDATE	LABEL	9/10/2021	AC Calibration Date
THERMOSELECT	IQUANT	1	Thermo Select
FRAMEWORKVERSION	QUANT	6.33	Framework Version
INSTRUMENTVERSION	LABEL	3.50	Instrument Version
COMPLIANCEVOLTAGE	IQUANT	0	Compliance Voltage
ZCURVE	TABLE
	Pt	Time	Freq	Zreal	Zimag	Zsig	Zmod	Zphz	Idc	Vdc	IERange
	#	s	Hz	ohm	ohm	V	ohm	°	A	V	#
	0	10	300046.9	2.420893	2.211474	1	3.278924	42.41155	2.733996E-005	-0.0004992	11
	1	13	238359.4	2.376241	1.758951	1	2.956421	36.50974	2.942646E-005	-0.0005859	11
	2	16	189328.1	2.352566	1.395063	1	2.735099	30.66778	-7.418313E-005	-0.0002681	11
	3	19	150421.9	2.382854	0.969359	1	2.572479	22.13677	-0.0001962	-0.0005242	12
	4	23	119484.4	2.355319	0.7492107	1	2.471608	17.6455	-0.0002285	-0.0004263	12
	5	26	94921.88	2.339458	0.5641277	1	2.406513	13.55727	-5.423071E-005	-0.0002673	12
	6	30	75421.88	2.329515	0.4121438	1	2.365693	10.03309	-0.0001052	-0.0002606	12
	7	33	59859.37	2.327133	0.2833882	1	2.344325	6.943046	-0.0001172	-0.0002446	12
	8	37	47578.12	2.323019	0.2114353	1	2.332621	5.200588	-8.285658E-005	0.0002588	11
	9	40	37828.12	2.327448	0.1001259	1	2.329601	2.463323	-5.184717E-005	0.0003111	11
	10	42	30046.88	2.332919	-0.005426	1	2.332925	-0.1332607	-1.866246E-005	0.0003671	11
	11	45	23859.38	2.34033	-0.1099542	1	2.342911	-2.689912	-6.083092E-005	0.00034	11
	12	47	18984.38	2.348165	-0.2180992	1	2.358272	-5.306447	-7.797798E-005	0.0003218	11
	13	49	15046.87	2.359463	-0.337186	1	2.383435	-8.132953	-3.198224E-005	0.0003666	11
	14	51	11953.13	2.373302	-0.4702799	1	2.419447	-11.20821	-6.311872E-005	0.0003556	11
	15	54	9515.62	2.389999	-0.6232144	1	2.469917	-14.61496	-6.469989E-005	0.000369	11
	16	56	7546.875	2.410707	-0.8075417	1	2.542367	-18.51988	-9.326089E-005	0.0003328	11
	17	58	5928.309	2.438918	-1.038305	1	2.650735	-23.06059	-2.762086E-005	0.0003779	11
	18	61	4733.456	2.471565	-1.300119	1	2.792659	-27.74574	-1.919505E-005	0.0003896	11
	19	63	3796.875	2.511112	-1.610712	1	2.9833	-32.67749	-7.297815E-005	0.0003258	11
	20	65	2987.132	2.566219	-2.025454	1	3.269242	-38.28317	-2.633439E-005	0.0003769	11
	21	68	2390.625	2.629313	-2.500642	1	3.628567	-43.56319	-2.630171E-005	0.000381	11
	22	70	1884.191	2.719908	-3.12445	1	4.142473	-48.95966	-1.304544E-005	-0.0001639	10
	23	72	1516.544	2.820972	-3.821991	1	4.750316	-53.56935	-1.346263E-006	-0.0001543	10
	24	75	1193.986	2.961121	-4.765868	1	5.610859	-58.14656	-1.410079E-005	-0.0001474	10
	25	77	946.5144	3.131213	-5.901296	1	6.680553	-62.04969	2.174901E-005	-0.0001502	10
	26	79	751.7689	3.353564	-7.281452	1	8.016603	-65.27097	2.365439E-005	-0.000147	10
	27	82	597.4265	3.626784	-8.978663	1	9.68349	-68.00456	-1.51121E-005	-0.000143	10
	28	84	477.4305	3.966527	-11.01617	1	11.70851	-70.19788	9.975832E-008	-0.0001243	10
	29	86	376.6741	4.418508	-13.65574	1	14.35278	-72.07027	-6.796969E-007	-0.0001304	10
	30	89	298.2954	4.986634	-16.86567	1	17.58742	-73.52875	-8.168508E-007	-0.0001239	10
	31	91	237.7717	5.692716	-20.69635	1	21.465	-74.62061	-5.933475E-007	-0.0001213	10
	32	93	189.0121	6.610018	-25.4478	1	26.29226	-75.4393	-1.197544E-007	-0.0001206	10
	33	96	150.2404	7.795803	-31.26835	1	32.22552	-76.00047	-9.104374E-007	-0.0001282	10
	34	98	119.1737	9.347713	-38.44878	1	39.56878	-76.3353	-1.077024E-006	-0.0001287	10
	35	101	95.0169	11.30343	-46.94089	1	48.28265	-76.46086	1.228562E-006	-0.0001455	9
	36	103	75.60484	13.86931	-57.38666	1	59.03886	-76.41319	1.114659E-006	-0.0001398	9
	37	106	54.50582	18.88642	-76.23451	1	78.53915	-76.08563	1.194471E-006	-0.0001546	9
	38	108	45.95588	22.29707	-88.24567	1	91.019	-75.81985	1.332758E-006	-0.0001414	9
	39	110	37.20238	27.46739	-105.5613	1	109.0763	-75.41488	1.270913E-006	-0.0001382	9
	40	113	30.04808	33.89273	-126.1973	1	130.6694	-74.96686	1.220332E-006	-0.0001481	9
	41	115	23.91582	42.34988	-152.3516	1	158.1281	-74.46542	1.276576E-006	-0.0001486	9
	42	118	18.60119	54.13664	-187.3649	1	195.0292	-73.88404	1.12815E-006	-0.0001369	9
	43	120	15.02404	66.35576	-223.048	1	232.709	-73.4325	1.60129E-006	-0.0001263	9
	44	122	12.01923	82.09833	-267.3544	1	279.6757	-72.9295	1.113439E-006	-0.0001429	9
	45	125	9.450605	103.5739	-325.3099	1	341.4001	-72.33929	1.413877E-006	-0.0001501	9
	46	127	7.512019	129.6595	-391.9531	1	412.8423	-71.6956	1.495075E-006	-0.0001792	9
	47	130	5.978954	162.8834	-469.0251	1	496.5033	-70.84887	1.239775E-006	-0.0001279	8
	48	133	4.734848	208.1496	-564.8424	1	601.9744	-69.7707	9.50415E-007	-0.0001548	8
	49	136	3.75601	268.6024	-676.0961	1	727.4979	-68.33285	1.33093E-006	-0.0001073	8
	50	140	3.004808	344.4554	-798.8585	1	869.9566	-66.67505	1.200009E-006	-0.0001194	8
	51	143	2.372217	450.902	-943.4745	1	1045.685	-64.45609	1.165365E-006	-0.0001809	8
	52	148	1.878005	584.0888	-1102.105	1	1247.315	-62.07751	1.304402E-006	-0.0001249	8
	53	152	1.512097	735.1844	-1253.677	1	1453.341	-59.61167	1.246472E-006	-0.0001558	8
	54	158	1.201923	932.5524	-1422.246	1	1700.717	-56.74754	1.22041E-006	-0.0001133	8
	55	164	0.956633	1160.803	-1587.35	1	1966.506	-53.82261	9.323752E-007	-0.0006704	8
