EXPLAIN
TAG	EISPOT
TITLE	LABEL	Potentiostatic EIS	Test Identifier
DATE	LABEL	10/5/2021	Date
TIME	LABEL	14:45:32	Time
NOTES	NOTES	1	Notes...
	
PSTAT	PSTAT	REF3000-16137	Potentiostat
VDC	POTEN	0.00000E+000	T	DC Voltage (V)
FREQINIT	QUANT	3.00000E+005	Initial Freq. (Hz)
FREQFINAL	QUANT	1.00000E+000	Final Freq. (Hz)
PTSPERDEC	QUANT	1.00000E+001	Points/decade
VAC	QUANT	5.00000E+001	AC Voltage (mV rms)
AREA	QUANT	1.00000E+000	Sample Area (cm^2)
SPEED	SELECTOR	2	Optimize for:
ZGUESS	QUANT	1.00000E+003	Estimated Z (ohms)
EOC	QUANT	0	Open Circuit (V)
SEQUENCER	TOGGLE	TRUE	Run as Sequence
PSTATMODEL	IQUANT	5	Pstat Model
PSTATSECTION	LABEL	REF3000-16137	Pstat Section
PSTATSERIALNO	LABEL	16137	Pstat Serial Number
CTRLMODE	IQUANT	1	Control Mode
IESTAB	IQUANT	0	I/E Stability
CASPEED	IQUANT	1	Control Amp Speed
CONVENTION	IQUANT	1	Current Convention
ICHRANGE	IQUANT	2	Ich Range
ICHRANGEMODE	TOGGLE	F	Ich Auto Range
ICHOFFSETENABLE	TOGGLE	T	Ich Offset Enable
ICHOFFSET	QUANT	0	Ich Offset (V)
ICHFILTER	IQUANT	3	Ich Filter
VCHRANGE	IQUANT	2	Vch Range
VCHRANGEMODE	TOGGLE	F	Vch Auto Range
VCHOFFSETENABLE	TOGGLE	T	Vch Offset Enable
VCHOFFSET	QUANT	0	Vch Offset (V)
VCHFILTER	IQUANT	3	Vch Filter
ACHRANGE	IQUANT	2	Ach Range
ACHOFFSETENABLE	TOGGLE	F	Ach Offset Enable
ACHOFFSET	QUANT	0	Ach Offset (V)
ACHFILTER	IQUANT	3	Ach Filter
IERANGELOWERLIMIT	IQUANT	2	I/E Range Lower Limit
IERANGEMODE	TOGGLE	F	I/E AutoRange
IERANGE	IQUANT	11	I/E Range
POSFEEDENABLE	TOGGLE	F	Positive Feedback IR Comp
POSFEEDRESISTANCE	QUANT	0	Positive Feedback Resistance (ohm)
ACHSELECT	IQUANT	0	Ach Select
CABLEID	IQUANT	13	Cable ID
DCCALDATE	LABEL	9/10/2021	DC Calibration Date
ACCALDATE	LABEL	9/10/2021	AC Calibration Date
THERMOSELECT	IQUANT	1	Thermo Select
FRAMEWORKVERSION	QUANT	6.33	Framework Version
INSTRUMENTVERSION	LABEL	3.50	Instrument Version
COMPLIANCEVOLTAGE	IQUANT	0	Compliance Voltage
ZCURVE	TABLE
	Pt	Time	Freq	Zreal	Zimag	Zsig	Zmod	Zphz	Idc	Vdc	IERange
	#	s	Hz	ohm	ohm	V	ohm	°	A	V	#
	0	7	300046.9	32.05004	1.164761	1	32.07119	2.081325	-0.0001595	-0.0007584	11
	1	11	238359.4	32.27171	1.242443	1	32.29561	2.204768	-1.286027E-005	-0.0003785	10
	2	14	189328.1	32.44208	0.977822	1	32.45681	1.726404	-0.0001064	-0.000334	10
	3	17	150421.9	32.58469	0.7218772	1	32.59269	1.269116	2.256035E-005	-0.0002341	10
	4	19	119484.4	32.73217	0.5519835	1	32.73682	0.966124	7.671256E-005	-0.0005103	10
	5	22	94921.88	32.87879	0.3524227	1	32.88068	0.6141211	-2.641445E-006	-0.0001724	10
	6	24	75421.88	33.03046	0.2266309	1	33.03123	0.3931157	2.501498E-005	-0.0001897	10
	7	27	59859.37	33.18344	0.1147617	1	33.18364	0.198151	2.945241E-005	-0.000137	10
	8	30	47578.12	33.33946	0.0077935	1	33.33946	0.0133935	-2.517485E-005	-6.679307E-005	10
	9	32	37828.12	33.50199	-0.1019207	1	33.50215	-0.1743062	-1.374405E-005	-0.0001405	10
	10	35	30046.88	33.65154	-0.1990051	1	33.65212	-0.3388261	6.709279E-006	-0.0001928	10
	11	37	23859.38	33.79673	-0.3121973	1	33.79817	-0.5292548	-4.160809E-006	-0.0001516	10
	12	39	18984.38	33.94659	-0.439883	1	33.94944	-0.7424024	2.289395E-005	-0.0001018	10
	13	42	15046.87	34.11124	-0.5779984	1	34.11614	-0.970756	2.744717E-005	-0.0001277	10
	14	44	11953.13	34.25006	-0.7630363	1	34.25856	-1.276247	-2.964851E-005	-0.000122	10
	15	46	9515.62	34.41701	-0.963361	1	34.43049	-1.603338	-2.720855E-005	-7.100774E-005	10
	16	49	7546.875	34.58121	-1.217145	1	34.60262	-2.015792	8.177327E-006	-8.378107E-005	10
	17	51	5928.309	34.74578	-1.536844	1	34.77975	-2.532604	7.03078E-006	-0.0001224	10
	18	53	4733.456	34.93151	-1.892941	1	34.98276	-3.101828	-2.825682E-005	-9.32419E-005	10
	19	56	3796.875	35.12511	-2.352642	1	35.20382	-3.831886	2.637132E-005	-0.0001811	10
	20	58	2987.132	35.33286	-2.932528	1	35.45435	-4.744514	-2.093078E-005	-0.0001565	10
	21	60	2390.625	35.4869	-3.608737	1	35.66991	-5.806566	9.25804E-006	-0.0001432	9
	22	63	1884.191	35.73694	-4.539649	1	36.02412	-7.239485	7.153442E-006	-0.0005582	9
	23	65	1516.544	35.97446	-5.547806	1	36.39972	-8.766813	2.290713E-006	-0.0004428	9
	24	67	1193.986	36.27094	-6.948924	1	36.93059	-10.84553	2.042244E-006	-0.0004418	9
	25	70	946.5144	36.61162	-8.641024	1	37.61752	-13.27985	7.390999E-006	-0.0005634	9
	26	72	751.7689	36.98986	-10.72972	1	38.51463	-16.17596	-1.321194E-005	7.285149E-005	9
	27	75	597.4265	37.43841	-13.29965	1	39.73053	-19.55711	-1.479149E-005	0.0002073	9
	28	77	477.4305	37.98014	-16.40652	1	41.37227	-23.3632	6.807346E-007	-0.0001251	9
	29	79	376.6741	38.62999	-20.45004	1	43.70905	-27.89596	7.223093E-007	-0.0001321	9
	30	82	298.2954	39.4123	-25.38995	1	46.88261	-32.7902	7.131079E-007	-0.0001256	9
	31	84	237.7717	40.34938	-31.31688	1	51.07661	-37.81657	6.78833E-007	-0.0001273	9
	32	86	189.0121	41.50791	-38.70547	1	56.75404	-42.99905	7.012548E-007	-0.0001247	9
	33	89	150.2404	42.93105	-47.81614	1	64.26086	-48.08136	6.987803E-007	-0.0001319	9
	34	91	119.1737	44.70533	-59.16849	1	74.15845	-52.92677	7.100428E-007	-0.0001288	9
	35	94	95.0169	46.86234	-72.83965	1	86.61231	-57.24427	6.751343E-007	-0.000129	9
	36	96	75.60484	49.57903	-89.79819	1	102.5758	-61.0962	7.344415E-007	-0.0001329	9
	37	99	54.50582	54.61502	-121.0357	1	132.7872	-65.71364	6.789675E-007	-0.0001295	9
	38	101	45.95588	58.03089	-141.3916	1	152.837	-67.68544	7.497445E-007	-0.0001283	9
	39	104	37.20238	63.05701	-171.3024	1	182.5395	-69.79116	7.478108E-007	-0.0001317	9
	40	106	30.04808	69.31067	-207.9376	1	219.1849	-71.56551	7.868375E-007	-0.0001335	9
	41	108	23.91582	77.54324	-255.6522	1	267.1535	-73.12664	7.856779E-007	-0.0001324	9
	42	111	18.60119	89.06027	-320.8434	1	332.9748	-74.48631	7.854418E-007	-0.00013	9
	43	113	15.02404	101.3256	-389.0706	1	402.0483	-75.40271	7.936819E-007	-0.0001208	9
	44	115	12.01923	117.1148	-473.6841	1	487.9472	-76.11256	4.608843E-007	-0.0001153	8
	45	118	9.450605	139.219	-588.1059	1	604.3596	-76.68185	5.05651E-007	-0.000151	8
	46	120	7.512019	166.5427	-722.1882	1	741.1426	-77.01413	3.836778E-007	-0.0001268	8
	47	123	5.978954	201.1487	-885.3013	1	907.8652	-77.1992	3.885764E-007	-0.0001113	8
	48	126	4.734848	247.4465	-1089.532	1	1117.277	-77.20445	4.429228E-007	-0.0001245	8
	49	129	3.75601	305.5548	-1335.878	1	1370.377	-77.11639	4.105295E-007	-0.0001194	8
	50	133	3.004808	376.2921	-1621.516	1	1664.605	-76.93508	4.343285E-007	-0.0001188	8
	51	137	2.372217	475.6585	-1989.17	1	2045.25	-76.55173	4.351663E-007	-4.794518E-005	8
	52	141	1.878005	593.5629	-2432.333	1	2503.71	-76.28613	4.004991E-007	-0.0001364	8
	53	146	1.512097	733.2888	-2917.676	1	3008.413	-75.89226	4.349297E-007	-6.080943E-005	8
	54	151	1.201923	912.4281	-3551.289	1	3666.63	-75.59074	4.225566E-007	-0.0001456	8
	55	157	0.956633	1133.287	-4312.77	1	4459.185	-75.27697	2.729153E-008	-0.0006507	7
