EXPLAIN
TAG	EISPOT
TITLE	LABEL	Potentiostatic EIS	Test Identifier
DATE	LABEL	10/5/2021	Date
TIME	LABEL	14:37:08	Time
NOTES	NOTES	1	Notes...
	
PSTAT	PSTAT	REF3000-16137	Potentiostat
VDC	POTEN	0.00000E+000	T	DC Voltage (V)
FREQINIT	QUANT	3.00000E+005	Initial Freq. (Hz)
FREQFINAL	QUANT	1.00000E+000	Final Freq. (Hz)
PTSPERDEC	QUANT	1.00000E+001	Points/decade
VAC	QUANT	5.00000E+001	AC Voltage (mV rms)
AREA	QUANT	1.00000E+000	Sample Area (cm^2)
SPEED	SELECTOR	2	Optimize for:
ZGUESS	QUANT	1.00000E+003	Estimated Z (ohms)
EOC	QUANT	0	Open Circuit (V)
SEQUENCER	TOGGLE	TRUE	Run as Sequence
PSTATMODEL	IQUANT	5	Pstat Model
PSTATSECTION	LABEL	REF3000-16137	Pstat Section
PSTATSERIALNO	LABEL	16137	Pstat Serial Number
CTRLMODE	IQUANT	1	Control Mode
IESTAB	IQUANT	0	I/E Stability
CASPEED	IQUANT	1	Control Amp Speed
CONVENTION	IQUANT	1	Current Convention
ICHRANGE	IQUANT	2	Ich Range
ICHRANGEMODE	TOGGLE	F	Ich Auto Range
ICHOFFSETENABLE	TOGGLE	T	Ich Offset Enable
ICHOFFSET	QUANT	0	Ich Offset (V)
ICHFILTER	IQUANT	3	Ich Filter
VCHRANGE	IQUANT	2	Vch Range
VCHRANGEMODE	TOGGLE	F	Vch Auto Range
VCHOFFSETENABLE	TOGGLE	T	Vch Offset Enable
VCHOFFSET	QUANT	0	Vch Offset (V)
VCHFILTER	IQUANT	3	Vch Filter
ACHRANGE	IQUANT	2	Ach Range
ACHOFFSETENABLE	TOGGLE	F	Ach Offset Enable
ACHOFFSET	QUANT	0	Ach Offset (V)
ACHFILTER	IQUANT	3	Ach Filter
IERANGELOWERLIMIT	IQUANT	2	I/E Range Lower Limit
IERANGEMODE	TOGGLE	F	I/E AutoRange
IERANGE	IQUANT	11	I/E Range
POSFEEDENABLE	TOGGLE	F	Positive Feedback IR Comp
POSFEEDRESISTANCE	QUANT	0	Positive Feedback Resistance (ohm)
ACHSELECT	IQUANT	0	Ach Select
CABLEID	IQUANT	13	Cable ID
DCCALDATE	LABEL	9/10/2021	DC Calibration Date
ACCALDATE	LABEL	9/10/2021	AC Calibration Date
THERMOSELECT	IQUANT	1	Thermo Select
FRAMEWORKVERSION	QUANT	6.33	Framework Version
INSTRUMENTVERSION	LABEL	3.50	Instrument Version
COMPLIANCEVOLTAGE	IQUANT	0	Compliance Voltage
ZCURVE	TABLE
	Pt	Time	Freq	Zreal	Zimag	Zsig	Zmod	Zphz	Idc	Vdc	IERange
	#	s	Hz	ohm	ohm	V	ohm	°	A	V	#
	0	8	300046.9	15.09059	2.064252	1	15.23112	7.789184	-1.59312E-005	-0.0005424	10
	1	11	238359.4	15.14254	1.622311	1	15.2292	6.115116	7.693817E-005	-0.0008141	10
	2	14	189328.1	15.18857	1.279208	1	15.24234	4.814192	-3.313644E-005	-0.0004323	10
	3	17	150421.9	15.22575	0.994924	1	15.25823	3.738667	-0.0001001	-0.0003001	10
	4	19	119484.4	15.2774	0.7620743	1	15.2964	2.855687	2.904061E-005	-9.189838E-005	10
	5	22	94921.88	15.32804	0.5612295	1	15.33831	2.096924	-1.418759E-005	-0.0001891	10
	6	24	75421.88	15.38188	0.3926018	1	15.38689	1.46208	2.742152E-005	-0.0001726	10
	7	27	59859.37	15.43909	0.2503724	1	15.44112	0.9290721	-2.548045E-005	-0.0001045	10
	8	30	47578.12	15.49583	0.1240037	1	15.49632	0.4584937	-2.594521E-005	-0.0001537	10
	9	32	37828.12	15.55241	0.0077058	1	15.55241	0.0283885	2.034866E-005	-0.0001797	10
	10	35	30046.88	15.61343	-0.107421	1	15.6138	-0.394191	-1.857592E-005	-0.0001481	10
	11	37	23859.38	15.67265	-0.2249664	1	15.67427	-0.8223712	-3.364658E-006	-0.0001613	10
	12	39	18984.38	15.73048	-0.3504795	1	15.73438	-1.276355	-6.444877E-006	-0.0001572	10
	13	42	15046.87	15.79179	-0.4962208	1	15.79959	-1.799796	2.314647E-005	-0.0001762	10
	14	44	11953.13	15.85858	-0.6587873	1	15.87226	-2.378778	2.313867E-005	-0.0001699	10
	15	46	9515.62	15.92335	-0.8517215	1	15.94611	-3.061768	2.013188E-005	-0.0001728	10
	16	49	7546.875	15.99712	-1.087622	1	16.03405	-3.889473	1.011864E-005	-0.0001003	10
	17	51	5928.309	16.07844	-1.385602	1	16.13803	-4.925446	-2.843057E-005	-0.0001031	10
	18	53	4733.456	16.16014	-1.730618	1	16.25255	-6.112608	1.736962E-005	-0.000136	10
	19	56	3796.875	16.25265	-2.139538	1	16.39287	-7.499432	-1.542226E-005	-0.000119	10
	20	58	2987.132	16.36222	-2.694231	1	16.58255	-9.350515	-2.457387E-005	-0.0001079	10
	21	60	2390.625	16.47579	-3.326922	1	16.80833	-11.41611	2.671103E-005	-0.0001712	10
	22	63	1884.191	16.61867	-4.172129	1	17.13438	-14.09289	2.09654E-005	-0.0001339	10
	23	65	1516.544	16.78094	-5.119912	1	17.54461	-16.96709	-1.408645E-005	-0.0001041	10
	24	67	1193.986	16.98483	-6.405488	1	18.15254	-20.66297	-1.239138E-005	-0.0001324	10
	25	70	946.5144	17.22298	-7.963753	1	18.97505	-24.8154	2.522597E-005	-0.00012	10
	26	72	751.7689	17.51087	-9.86774	1	20.09982	-29.40217	1.674254E-005	-0.0001361	10
	27	74	597.4265	17.86571	-12.21146	1	21.64032	-34.35314	-2.899936E-005	-0.0001029	10
	28	77	477.4305	18.30043	-15.03308	1	23.68331	-39.40176	-1.626679E-006	-0.000115	10
	29	79	376.6741	18.84926	-18.70796	1	26.55715	-44.78443	-1.592798E-006	-0.0001259	10
	30	81	298.2954	19.51768	-23.19276	1	30.31244	-49.91798	-1.72794E-006	-0.0001212	10
	31	84	237.7717	20.33195	-28.57225	1	35.06796	-54.56443	-1.963014E-006	-0.0001168	10
	32	86	189.0121	21.33575	-35.2346	1	41.19091	-58.80366	1.031117E-006	-0.0001697	9
	33	88	150.2404	22.62181	-43.48091	1	49.01363	-62.5134	7.678588E-007	-0.0001349	9
	34	91	119.1737	24.24892	-53.73125	1	58.94962	-65.71033	8.140434E-007	-0.0001351	9
	35	93	95.0169	26.24372	-66.05166	1	71.07429	-68.33102	7.530389E-007	-0.0001376	9
	36	96	75.60484	28.75497	-81.31141	1	86.24612	-70.52437	7.722587E-007	-0.0001348	9
	37	98	54.50582	33.44525	-109.3948	1	114.3932	-73.00005	6.980084E-007	-0.0001364	9
	38	101	45.95588	36.59554	-127.6983	1	132.8386	-74.00886	6.964674E-007	-0.00013	9
	39	103	37.20238	41.30234	-154.5852	1	160.0077	-75.04103	8.34522E-007	-0.0001349	9
	40	106	30.04808	47.20486	-187.5276	1	193.3776	-75.87092	7.741434E-007	-0.0001328	9
	41	108	23.91582	55.17459	-230.3384	1	236.8544	-76.52934	6.427213E-007	-0.0001328	9
	42	110	18.60119	66.58526	-288.8239	1	296.3998	-77.01789	5.741303E-007	-0.0001267	9
	43	113	15.02404	79.08955	-349.6869	1	358.5193	-77.25569	8.288495E-007	-0.0001357	9
	44	115	12.01923	95.3185	-424.9782	1	435.5366	-77.35832	7.01242E-007	-0.0001479	8
	45	118	9.450605	118.347	-525.7809	1	538.9356	-77.31482	4.753413E-007	-0.0001106	8
	46	120	7.512019	146.7651	-643.2698	1	659.8	-77.14769	5.38816E-007	-0.0001144	8
	47	123	5.978954	182.7823	-784.1323	1	805.1539	-76.87858	5.290539E-007	-0.0001208	8
	48	126	4.734848	229.4	-958.375	1	985.448	-76.53876	6.448084E-007	-0.0000957	8
	49	129	3.75601	288.1049	-1167.867	1	1202.879	-76.14222	5.728995E-007	-0.000128	8
	50	133	3.004808	356.998	-1409.841	1	1454.338	-75.79031	5.642479E-007	-0.0001105	8
	51	136	2.372217	446.319	-1719.006	1	1776.002	-75.44523	5.814508E-007	-6.73041E-005	8
	52	141	1.878005	559.2853	-2089.901	1	2163.443	-75.01795	6.116672E-007	-0.0001586	8
	53	145	1.512097	680.826	-2504.293	1	2595.189	-74.79095	5.742678E-007	-3.507622E-005	8
	54	151	1.201923	847.2064	-3037.289	1	3153.234	-74.41435	6.110998E-007	-0.000111	8
	55	157	0.956633	1049.082	-3675.82	1	3822.594	-74.07121	5.403937E-007	-0.0006636	8
