EXPLAIN
TAG	EISPOT
TITLE	LABEL	Potentiostatic EIS	Test Identifier
DATE	LABEL	10/5/2021	Date
TIME	LABEL	14:00:47	Time
NOTES	NOTES	1	Notes...
	
PSTAT	PSTAT	REF3000-16137	Potentiostat
VDC	POTEN	0.00000E+000	T	DC Voltage (V)
FREQINIT	QUANT	3.00000E+005	Initial Freq. (Hz)
FREQFINAL	QUANT	1.00000E+000	Final Freq. (Hz)
PTSPERDEC	QUANT	1.00000E+001	Points/decade
VAC	QUANT	5.00000E+001	AC Voltage (mV rms)
AREA	QUANT	1.00000E+000	Sample Area (cm^2)
SPEED	SELECTOR	2	Optimize for:
ZGUESS	QUANT	1.00000E+003	Estimated Z (ohms)
EOC	QUANT	0	Open Circuit (V)
SEQUENCER	TOGGLE	TRUE	Run as Sequence
PSTATMODEL	IQUANT	5	Pstat Model
PSTATSECTION	LABEL	REF3000-16137	Pstat Section
PSTATSERIALNO	LABEL	16137	Pstat Serial Number
CTRLMODE	IQUANT	1	Control Mode
IESTAB	IQUANT	0	I/E Stability
CASPEED	IQUANT	1	Control Amp Speed
CONVENTION	IQUANT	1	Current Convention
ICHRANGE	IQUANT	2	Ich Range
ICHRANGEMODE	TOGGLE	F	Ich Auto Range
ICHOFFSETENABLE	TOGGLE	T	Ich Offset Enable
ICHOFFSET	QUANT	0	Ich Offset (V)
ICHFILTER	IQUANT	3	Ich Filter
VCHRANGE	IQUANT	2	Vch Range
VCHRANGEMODE	TOGGLE	F	Vch Auto Range
VCHOFFSETENABLE	TOGGLE	T	Vch Offset Enable
VCHOFFSET	QUANT	0	Vch Offset (V)
VCHFILTER	IQUANT	3	Vch Filter
ACHRANGE	IQUANT	2	Ach Range
ACHOFFSETENABLE	TOGGLE	F	Ach Offset Enable
ACHOFFSET	QUANT	0	Ach Offset (V)
ACHFILTER	IQUANT	3	Ach Filter
IERANGELOWERLIMIT	IQUANT	2	I/E Range Lower Limit
IERANGEMODE	TOGGLE	F	I/E AutoRange
IERANGE	IQUANT	11	I/E Range
POSFEEDENABLE	TOGGLE	F	Positive Feedback IR Comp
POSFEEDRESISTANCE	QUANT	0	Positive Feedback Resistance (ohm)
ACHSELECT	IQUANT	0	Ach Select
CABLEID	IQUANT	13	Cable ID
DCCALDATE	LABEL	9/10/2021	DC Calibration Date
ACCALDATE	LABEL	9/10/2021	AC Calibration Date
THERMOSELECT	IQUANT	1	Thermo Select
FRAMEWORKVERSION	QUANT	6.33	Framework Version
INSTRUMENTVERSION	LABEL	3.50	Instrument Version
COMPLIANCEVOLTAGE	IQUANT	0	Compliance Voltage
ZCURVE	TABLE
	Pt	Time	Freq	Zreal	Zimag	Zsig	Zmod	Zphz	Idc	Vdc	IERange
	#	s	Hz	ohm	ohm	V	ohm	°	A	V	#
	0	10	300046.9	2.729748	2.241529	1	3.532135	39.39109	7.454481E-005	-0.0012166	10
	1	13	238359.4	2.695758	1.792413	1	3.237261	33.61999	-7.975513E-005	-0.0013221	10
	2	16	189328.1	2.761236	1.203006	1	3.011918	23.54164	-0.0002314	-0.0010758	12
	3	20	150421.9	2.664337	1.088862	1	2.878248	22.22887	-3.169682E-005	8.58452E-005	11
	4	23	119484.4	2.659054	0.8433064	1	2.789576	17.59618	-3.703945E-005	0.0001634	11
	5	25	94921.88	2.654768	0.6394098	1	2.730684	13.54196	-5.149542E-005	0.0002102	11
	6	28	75421.88	2.653899	0.4723116	1	2.6956	10.09121	-6.688218E-005	0.0001998	11
	7	30	59859.37	2.65467	0.3294088	1	2.675029	7.07348	-3.9012E-005	0.0002948	11
	8	33	47578.12	2.65818	0.2057134	1	2.666129	4.425231	-8.200594E-005	0.0002972	11
	9	35	37828.12	2.662768	0.0934906	1	2.664408	2.010846	-6.784611E-005	0.0003292	11
	10	38	30046.88	2.668174	-0.0132349	1	2.668207	-0.2842008	-0.0001022	0.0003005	11
	11	40	23859.38	2.675824	-0.1194128	1	2.678487	-2.555219	-9.31515E-005	0.0003074	11
	12	42	18984.38	2.686211	-0.2288636	1	2.695943	-4.869806	-7.807466E-005	0.0003531	11
	13	45	15046.87	2.696347	-0.3504539	1	2.719026	-7.405426	-3.077611E-005	0.0003609	11
	14	47	11953.13	2.711841	-0.4869873	1	2.75522	-10.18056	-7.535847E-005	0.0003671	11
	15	49	9515.62	2.728051	-0.6436748	1	2.802959	-13.27595	-4.511787E-005	0.0003463	11
	16	52	7546.875	2.750997	-0.8333259	1	2.874442	-16.85249	-2.537186E-005	0.0003872	11
	17	54	5928.309	2.779998	-1.070702	1	2.979059	-21.06394	-4.521008E-005	0.000374	11
	18	56	4733.456	2.81361	-1.340729	1	3.116722	-25.47853	-6.306967E-005	0.0003486	11
	19	59	3796.875	2.854708	-1.661766	1	3.303154	-30.2043	-6.344317E-005	0.0003607	11
	20	61	2987.132	2.910915	-2.088219	1	3.58247	-35.65473	-3.750937E-005	0.0003779	11
	21	63	2390.625	2.978669	-2.579927	1	3.940621	-40.89696	2.271881E-005	-0.0001342	10
	22	66	1884.191	3.066758	-3.222652	1	4.44865	-46.41989	6.621839E-006	-0.0001377	10
	23	68	1516.544	3.16844	-3.943931	1	5.059012	-51.22261	-1.232886E-005	-0.0001218	10
	24	70	1193.986	3.310831	-4.91904	1	5.929465	-56.05691	6.971291E-006	-0.0001521	10
	25	73	946.5144	3.491391	-6.088613	1	7.01862	-60.16876	1.992335E-005	-0.0001499	10
	26	75	751.7689	3.707578	-7.525814	1	8.389518	-63.77293	-1.607241E-005	-0.0001317	10
	27	77	597.4265	3.984073	-9.287906	1	10.10634	-66.78295	-4.251257E-006	-0.0001333	10
	28	80	477.4305	4.328465	-11.39334	1	12.18786	-69.19763	-2.786711E-007	-0.0001202	10
	29	82	376.6741	4.783972	-14.1289	1	14.91684	-71.29417	-6.736301E-007	-0.0001223	10
	30	84	298.2954	5.354849	-17.4569	1	18.25973	-72.94677	-5.06102E-007	-0.0001172	10
	31	87	237.7717	6.060208	-21.43247	1	22.27279	-74.21131	-3.958075E-007	-0.0001159	10
	32	89	189.0121	6.972306	-26.36901	1	27.27522	-75.18921	-3.433665E-007	-0.000116	10
	33	91	150.2404	8.146928	-32.42645	1	33.43422	-75.89673	-1.160879E-006	-0.0001171	10
	34	94	119.1737	9.68124	-39.91423	1	41.07155	-76.36614	-6.525479E-007	-0.0001154	10
	35	96	95.0169	11.60788	-48.78763	1	50.14953	-76.61664	1.185372E-006	-0.0001425	9
	36	99	75.60484	14.13883	-59.73194	1	61.3825	-76.68292	9.168654E-007	-0.0001333	9
	37	101	54.50582	19.10837	-79.55335	1	81.81605	-76.49367	8.932269E-007	-0.0001395	9
	38	104	45.95588	22.49829	-92.24055	1	94.94469	-76.29269	1.277055E-006	-0.0001356	9
	39	106	37.20238	27.6837	-110.5772	1	113.9899	-75.94454	1.04681E-006	-0.0001291	9
	40	108	30.04808	34.18383	-132.5583	1	136.895	-75.53974	1.147226E-006	-0.0001424	9
	41	111	23.91582	42.77496	-160.384	1	165.9902	-75.06662	1.113621E-006	-0.0001375	9
	42	113	18.60119	54.68913	-197.5365	1	204.9672	-74.52494	9.137142E-007	-0.0001318	9
	43	115	15.02404	67.23314	-235.3737	1	244.7878	-74.05832	1.067088E-006	-0.0001411	9
	44	118	12.01923	83.27748	-282.6097	1	294.6242	-73.58118	7.953889E-007	-0.0001359	9
	45	120	9.450605	104.6899	-343.8229	1	359.4081	-73.06513	1.27711E-006	-0.0001326	9
	46	123	7.512019	129.9169	-412.8764	1	432.8341	-72.53314	1.180044E-006	-0.0001112	8
	47	125	5.978954	162.5449	-497.2527	1	523.1454	-71.89816	1.186769E-006	-0.000125	8
	48	129	4.734848	206.6606	-601.0383	1	635.575	-71.02501	1.030174E-006	-0.0001196	8
	49	132	3.75601	264.2052	-723.0026	1	769.7644	-69.92629	1.013618E-006	-0.0001281	8
	50	135	3.004808	336.9897	-859.4718	1	923.176	-68.59039	8.6886E-007	-0.0000957	8
	51	139	2.372217	440.5235	-1026.402	1	1116.943	-66.77138	9.624315E-007	-4.921846E-005	8
	52	143	1.878005	571.5646	-1212.41	1	1340.382	-64.75948	8.346349E-007	-0.0001437	8
	53	148	1.512097	724.561	-1397.178	1	1573.879	-62.58925	9.069431E-007	-0.0001099	8
	54	153	1.201923	929.5707	-1611.057	1	1860.002	-60.0153	9.238731E-007	-0.0001487	8
	55	159	0.956633	1173.134	-1828.815	1	2172.742	-57.32096	7.969026E-007	-0.0006652	8
