EXPLAIN
TAG	EISPOT
TITLE	LABEL	Potentiostatic EIS	Test Identifier
DATE	LABEL	10/5/2021	Date
TIME	LABEL	14:56:35	Time
NOTES	NOTES	1	Notes...
	
PSTAT	PSTAT	REF3000-16137	Potentiostat
VDC	POTEN	0.00000E+000	T	DC Voltage (V)
FREQINIT	QUANT	3.00000E+005	Initial Freq. (Hz)
FREQFINAL	QUANT	1.00000E+000	Final Freq. (Hz)
PTSPERDEC	QUANT	1.00000E+001	Points/decade
VAC	QUANT	5.00000E+001	AC Voltage (mV rms)
AREA	QUANT	1.00000E+000	Sample Area (cm^2)
SPEED	SELECTOR	2	Optimize for:
ZGUESS	QUANT	1.00000E+003	Estimated Z (ohms)
EOC	QUANT	0	Open Circuit (V)
SEQUENCER	TOGGLE	TRUE	Run as Sequence
PSTATMODEL	IQUANT	5	Pstat Model
PSTATSECTION	LABEL	REF3000-16137	Pstat Section
PSTATSERIALNO	LABEL	16137	Pstat Serial Number
CTRLMODE	IQUANT	1	Control Mode
IESTAB	IQUANT	0	I/E Stability
CASPEED	IQUANT	1	Control Amp Speed
CONVENTION	IQUANT	1	Current Convention
ICHRANGE	IQUANT	2	Ich Range
ICHRANGEMODE	TOGGLE	F	Ich Auto Range
ICHOFFSETENABLE	TOGGLE	T	Ich Offset Enable
ICHOFFSET	QUANT	0	Ich Offset (V)
ICHFILTER	IQUANT	3	Ich Filter
VCHRANGE	IQUANT	2	Vch Range
VCHRANGEMODE	TOGGLE	F	Vch Auto Range
VCHOFFSETENABLE	TOGGLE	T	Vch Offset Enable
VCHOFFSET	QUANT	0	Vch Offset (V)
VCHFILTER	IQUANT	3	Vch Filter
ACHRANGE	IQUANT	2	Ach Range
ACHOFFSETENABLE	TOGGLE	F	Ach Offset Enable
ACHOFFSET	QUANT	0	Ach Offset (V)
ACHFILTER	IQUANT	3	Ach Filter
IERANGELOWERLIMIT	IQUANT	2	I/E Range Lower Limit
IERANGEMODE	TOGGLE	F	I/E AutoRange
IERANGE	IQUANT	11	I/E Range
POSFEEDENABLE	TOGGLE	F	Positive Feedback IR Comp
POSFEEDRESISTANCE	QUANT	0	Positive Feedback Resistance (ohm)
ACHSELECT	IQUANT	0	Ach Select
CABLEID	IQUANT	13	Cable ID
DCCALDATE	LABEL	9/10/2021	DC Calibration Date
ACCALDATE	LABEL	9/10/2021	AC Calibration Date
THERMOSELECT	IQUANT	1	Thermo Select
FRAMEWORKVERSION	QUANT	6.33	Framework Version
INSTRUMENTVERSION	LABEL	3.50	Instrument Version
COMPLIANCEVOLTAGE	IQUANT	0	Compliance Voltage
ZCURVE	TABLE
	Pt	Time	Freq	Zreal	Zimag	Zsig	Zmod	Zphz	Idc	Vdc	IERange
	#	s	Hz	ohm	ohm	V	ohm	°	A	V	#
	0	7	300046.9	118.6524	-1.272068	1	118.6592	-0.6142424	-3.328197E-005	-0.0007348	9
	1	10	238359.4	119.4528	-1.47619	1	119.4619	-0.7080218	1.596495E-005	-0.0016624	9
	2	13	189328.1	120.4427	-1.185658	1	120.4485	-0.5640111	-6.809381E-005	0.0024875	9
	3	16	150421.9	121.3798	-1.19038	1	121.3857	-0.5618857	9.842384E-006	0.0006911	9
	4	18	119484.4	122.0069	-1.114076	1	122.0119	-0.523168	-1.21065E-005	0.000943	9
	5	21	94921.88	122.7846	-0.8565688	1	122.7876	-0.3996999	2.219679E-005	-0.0009762	9
	6	23	75421.88	123.6836	-0.8486571	1	123.6865	-0.3931299	-1.599999E-005	-3.914561E-005	9
	7	26	59859.37	124.4332	-0.8375825	1	124.436	-0.3856625	1.185536E-005	-2.302451E-005	9
	8	28	47578.12	125.2013	-0.8065798	1	125.2039	-0.3691096	-3.473431E-006	-0.0005089	9
	9	31	37828.12	126.0002	-0.7714252	1	126.0025	-0.3507841	4.927297E-006	-0.0007349	9
	10	34	30046.88	126.7777	-0.712391	1	126.7797	-0.3219539	1.759661E-006	0.0002411	9
	11	36	23859.38	127.5432	-0.8839425	1	127.5463	-0.397084	2.278784E-005	-0.0005392	9
	12	38	18984.38	128.2189	-0.8577479	1	128.2218	-0.3832866	-1.548843E-005	-3.524327E-005	9
	13	41	15046.87	128.9746	-0.9492812	1	128.9781	-0.4217018	-1.49405E-005	0.0007349	9
	14	43	11953.13	129.8704	-1.229276	1	129.8762	-0.5423118	-2.10443E-005	0.0002894	9
	15	45	9515.62	130.4844	-1.269113	1	130.4905	-0.557251	1.155529E-006	0.0002684	9
	16	48	7546.875	131.2823	-1.528498	1	131.2912	-0.6670552	2.250372E-005	-0.0009384	9
	17	50	5928.309	132.0089	-1.93938	1	132.0232	-0.8416877	2.501E-005	-0.0008389	9
	18	52	4733.456	132.9534	-2.347158	1	132.9741	-1.011395	1.253711E-005	-0.000894	9
	19	55	3796.875	133.6301	-2.793737	1	133.6593	-1.197679	2.290275E-005	-0.000467	9
	20	57	2987.132	134.431	-3.431541	1	134.4748	-1.462238	1.189333E-005	-3.952432E-005	9
	21	59	2390.625	135.2163	-4.17334	1	135.2807	-1.767826	2.244216E-005	-0.0005253	9
	22	62	1884.191	136.1965	-5.117194	1	136.2926	-2.151712	1.994526E-005	-0.0003596	9
	23	64	1516.544	137.0017	-6.557974	1	137.1586	-2.740533	-2.235139E-005	0.0004666	9
	24	66	1193.986	137.9189	-7.962043	1	138.1485	-3.304013	2.318401E-005	-0.0009459	9
	25	69	946.5144	138.8662	-9.84181	1	139.2145	-4.053924	2.254465E-005	-0.0004602	9
	26	71	751.7689	139.9597	-12.28856	1	140.4981	-5.017743	1.930525E-005	-0.0003232	9
	27	73	597.4265	140.8657	-15.23364	1	141.687	-6.172152	-1.134275E-005	-0.0001863	9
	28	76	477.4305	142.2564	-18.73165	1	143.4844	-7.501281	5.005084E-007	-0.0001235	9
	29	78	376.6741	143.5133	-23.36217	1	145.4024	-9.245933	5.063258E-007	-0.0001308	9
	30	80	298.2954	144.9039	-29.06906	1	147.7909	-11.34349	4.822829E-007	-0.0001252	9
	31	83	237.7717	146.4935	-35.95249	1	150.8407	-13.78902	5.018069E-007	-0.0001305	9
	32	85	189.0121	148.3182	-44.57351	1	154.8712	-16.7269	5.227316E-007	-0.0001289	9
	33	88	150.2404	150.4375	-55.23913	1	160.2585	-20.16272	5.083443E-007	-0.0001312	9
	34	90	119.1737	152.9261	-68.55704	1	167.5902	-24.14678	5.080843E-007	-0.0001243	9
	35	93	95.0169	155.8244	-84.62106	1	177.3189	-28.50434	4.962281E-007	-0.0001267	9
	36	95	75.60484	159.3734	-104.5807	1	190.6227	-33.27286	8.640315E-007	-0.0001786	9
	37	98	54.50582	165.3272	-141.4238	1	217.5632	-40.54426	4.97537E-007	-0.0001271	9
	38	100	45.95588	169.5929	-165.5079	1	236.9696	-44.30158	5.07498E-007	-0.0001308	9
	39	103	37.20238	175.5451	-200.991	1	266.8585	-48.8661	5.579705E-007	-0.0001336	9
	40	105	30.04808	182.8578	-244.4996	1	305.3146	-53.20771	5.13803E-007	-0.0001292	9
	41	107	23.91582	192.3624	-301.3501	1	357.5125	-57.44848	4.322665E-007	-0.000133	9
	42	110	18.60119	204.4183	-377.5341	1	429.3237	-61.56638	-4.339982E-010	-0.00012	8
	43	112	15.02404	218.3744	-458.6394	1	507.9739	-64.53923	2.06855E-008	-0.0001531	8
	44	114	12.01923	236.2385	-561.74	1	609.3935	-67.19092	1.044693E-007	-0.0001162	8
	45	117	9.450605	260.1956	-698.4603	1	745.3513	-69.56825	6.361599E-008	-0.0001242	8
	46	119	7.512019	289.2021	-859.6712	1	907.0129	-71.40654	9.033243E-009	-0.0001286	8
	47	122	5.978954	324.6837	-1056.108	1	1104.891	-72.91078	2.189992E-008	-0.0001146	8
	48	125	4.734848	369.881	-1304.015	1	1355.458	-74.16412	7.92519E-008	-8.881932E-005	8
	49	128	3.75601	428.1506	-1605.351	1	1661.464	-75.06668	1.830016E-008	-0.0001219	8
	50	132	3.004808	497.8811	-1961.037	1	2023.253	-75.75436	3.192452E-008	-8.666584E-005	8
	51	136	2.372217	590.0455	-2426.135	1	2496.855	-76.33082	4.220458E-008	-4.933126E-005	8
	52	140	1.878005	711.1648	-2989.06	1	3072.497	-76.61687	5.059105E-008	-0.0001414	8
	53	145	1.512097	852.7619	-3626.792	1	3725.698	-76.76848	5.354016E-008	-1.522978E-005	8
	54	150	1.201923	1044.322	-4458.197	1	4578.878	-76.81631	1.535186E-008	-0.0001242	7
	55	156	0.956633	1280.328	-5453.155	1	5601.441	-76.78703	-2.010852E-008	-0.0006468	7
