EXPLAIN
TAG	EISPOT
TITLE	LABEL	Potentiostatic EIS	Test Identifier
DATE	LABEL	10/5/2021	Date
TIME	LABEL	13:46:26	Time
NOTES	NOTES	1	Notes...
	
PSTAT	PSTAT	REF3000-16137	Potentiostat
VDC	POTEN	0.00000E+000	T	DC Voltage (V)
FREQINIT	QUANT	3.00000E+005	Initial Freq. (Hz)
FREQFINAL	QUANT	1.00000E+000	Final Freq. (Hz)
PTSPERDEC	QUANT	1.00000E+001	Points/decade
VAC	QUANT	5.00000E+001	AC Voltage (mV rms)
AREA	QUANT	1.00000E+000	Sample Area (cm^2)
SPEED	SELECTOR	2	Optimize for:
ZGUESS	QUANT	1.00000E+003	Estimated Z (ohms)
EOC	QUANT	0	Open Circuit (V)
SEQUENCER	TOGGLE	TRUE	Run as Sequence
PSTATMODEL	IQUANT	5	Pstat Model
PSTATSECTION	LABEL	REF3000-16137	Pstat Section
PSTATSERIALNO	LABEL	16137	Pstat Serial Number
CTRLMODE	IQUANT	1	Control Mode
IESTAB	IQUANT	0	I/E Stability
CASPEED	IQUANT	1	Control Amp Speed
CONVENTION	IQUANT	1	Current Convention
ICHRANGE	IQUANT	2	Ich Range
ICHRANGEMODE	TOGGLE	F	Ich Auto Range
ICHOFFSETENABLE	TOGGLE	T	Ich Offset Enable
ICHOFFSET	QUANT	0	Ich Offset (V)
ICHFILTER	IQUANT	3	Ich Filter
VCHRANGE	IQUANT	2	Vch Range
VCHRANGEMODE	TOGGLE	F	Vch Auto Range
VCHOFFSETENABLE	TOGGLE	T	Vch Offset Enable
VCHOFFSET	QUANT	0	Vch Offset (V)
VCHFILTER	IQUANT	3	Vch Filter
ACHRANGE	IQUANT	2	Ach Range
ACHOFFSETENABLE	TOGGLE	F	Ach Offset Enable
ACHOFFSET	QUANT	0	Ach Offset (V)
ACHFILTER	IQUANT	3	Ach Filter
IERANGELOWERLIMIT	IQUANT	2	I/E Range Lower Limit
IERANGEMODE	TOGGLE	F	I/E AutoRange
IERANGE	IQUANT	11	I/E Range
POSFEEDENABLE	TOGGLE	F	Positive Feedback IR Comp
POSFEEDRESISTANCE	QUANT	0	Positive Feedback Resistance (ohm)
ACHSELECT	IQUANT	0	Ach Select
CABLEID	IQUANT	13	Cable ID
DCCALDATE	LABEL	9/10/2021	DC Calibration Date
ACCALDATE	LABEL	9/10/2021	AC Calibration Date
THERMOSELECT	IQUANT	1	Thermo Select
FRAMEWORKVERSION	QUANT	6.33	Framework Version
INSTRUMENTVERSION	LABEL	3.50	Instrument Version
COMPLIANCEVOLTAGE	IQUANT	0	Compliance Voltage
ZCURVE	TABLE
	Pt	Time	Freq	Zreal	Zimag	Zsig	Zmod	Zphz	Idc	Vdc	IERange
	#	s	Hz	ohm	ohm	V	ohm	°	A	V	#
	0	11	300046.9	2.085495	2.220218	1	3.046089	46.79215	1.085503E-005	-0.0005258	11
	1	14	238359.4	2.038617	1.773384	1	2.702009	41.01986	-5.847095E-005	-0.0005986	11
	2	17	189328.1	2.088976	1.256266	1	2.437627	31.02182	-0.0000956	-0.0007233	12
	3	21	150421.9	2.042629	0.99151	1	2.270556	25.89233	-7.5814E-005	-0.0004739	12
	4	24	119484.4	1.985374	0.8544126	1	2.161419	23.28479	-3.882257E-005	0.0001317	11
	5	27	94921.88	1.978105	0.651985	1	2.082783	18.24226	-2.684536E-005	0.0001536	11
	6	29	75421.88	1.974728	0.4844818	1	2.033292	13.78473	-5.835839E-005	0.0001655	11
	7	32	59859.37	1.974522	0.3420831	1	2.003935	9.82885	-3.795766E-005	0.0002396	11
	8	34	47578.12	1.975009	0.2189924	1	1.987113	6.327209	-9.196888E-005	0.0002234	11
	9	37	37828.12	1.978043	0.1084615	1	1.981015	3.138541	-3.293092E-005	0.0002864	11
	10	39	30046.88	1.983053	0.0047686	1	1.983059	0.1377784	-5.182389E-005	0.0003167	11
	11	42	23859.38	1.989438	-0.0979839	1	1.99185	-2.819654	-2.816955E-005	0.0003415	11
	12	44	18984.38	1.997327	-0.2030519	1	2.007622	-5.804847	-5.72296E-005	0.0003486	11
	13	47	15046.87	2.007372	-0.3191642	1	2.032587	-9.034179	-5.15114E-005	0.000348	11
	14	49	11953.13	2.019118	-0.4477295	1	2.068163	-12.50275	-7.423611E-005	0.0003179	11
	15	51	9515.62	2.035671	-0.5953472	1	2.120941	-16.30196	-2.261531E-005	0.0003733	11
	16	53	7546.875	2.05574	-0.7720768	1	2.195944	-20.58474	-0.0000972	0.0003104	11
	17	56	5928.309	2.082989	-0.993695	1	2.307872	-25.5036	-8.607884E-005	0.0003253	11
	18	58	4733.456	2.114226	-1.244443	1	2.453282	-30.48126	-3.591098E-005	0.0003567	11
	19	60	3796.875	2.154003	-1.542869	1	2.649561	-35.61326	-7.095569E-005	0.000353	11
	20	63	2987.132	2.206843	-1.938936	1	2.937623	-41.30259	-2.111444E-005	0.0003698	11
	21	65	2390.625	2.269842	-2.390495	1	3.29646	-46.48301	-2.848197E-005	0.0003477	11
	22	67	1884.191	2.355444	-2.986571	1	3.803646	-51.73792	-7.184959E-005	0.0003342	11
	23	70	1516.544	2.457885	-3.652778	1	4.402725	-56.06414	1.505313E-005	-0.0001692	10
	24	72	1193.986	2.595672	-4.551011	1	5.2392	-60.3017	1.662223E-005	-0.0001494	10
	25	75	946.5144	2.765468	-5.63163	1	6.274	-63.8462	7.928984E-007	-0.0001399	10
	26	77	751.7689	2.980137	-6.944922	1	7.557325	-66.77533	-2.357703E-005	-0.0001337	10
	27	79	597.4265	3.252051	-8.553683	1	9.15103	-69.18354	1.312858E-005	-0.0001766	10
	28	82	477.4305	3.58641	-10.49236	1	11.08837	-71.12898	8.948264E-007	-0.0001389	10
	29	84	376.6741	4.035915	-12.99801	1	13.61017	-72.75029	3.306536E-007	-0.0001352	10
	30	86	298.2954	4.603454	-16.04191	1	16.68936	-73.98842	-6.067867E-007	-0.0001292	10
	31	88	237.7717	5.31325	-19.66849	1	20.37352	-74.88294	7.904555E-008	-0.0001375	10
	32	91	189.0121	6.240757	-24.15527	1	24.94843	-75.51383	6.516706E-007	-0.0001536	10
	33	93	150.2404	7.442348	-29.64291	1	30.56289	-75.90624	-8.814106E-007	-0.0001359	10
	34	96	119.1737	9.01743	-36.38884	1	37.48949	-76.08205	-7.923816E-007	-0.0001351	10
	35	98	95.0169	10.99926	-44.33491	1	45.67896	-76.06654	1.517262E-006	-0.00015	9
	36	101	75.60484	13.59488	-54.07212	1	55.75496	-75.88714	1.320575E-006	-0.0001492	9
	37	103	54.50582	18.6423	-71.54417	1	73.9331	-75.39516	1.26771E-006	-0.0001528	9
	38	106	45.95588	22.02665	-82.61966	1	85.50545	-75.07198	1.643361E-006	-0.0001481	9
	39	108	37.20238	27.15579	-98.5661	1	102.2385	-74.59667	1.519336E-006	-0.0001479	9
	40	110	30.04808	33.46762	-117.5526	1	122.2239	-74.10816	1.326509E-006	-0.0001464	9
	41	113	23.91582	41.75731	-141.7396	1	147.7626	-73.58472	1.098622E-006	-0.000151	9
	42	115	18.60119	53.07674	-173.7083	1	181.6362	-73.00941	1.719511E-006	-0.0001441	9
	43	117	15.02404	65.01312	-206.512	1	216.5039	-72.52521	1.38412E-006	-0.0001543	9
	44	120	12.01923	80.68664	-247.2477	1	260.0803	-71.92646	1.741121E-006	-0.0001451	9
	45	122	9.450605	102.3232	-300.2456	1	317.2026	-71.18098	1.611322E-006	-0.0001566	9
	46	125	7.512019	129.6972	-361.1269	1	383.7108	-70.24446	1.826938E-006	-0.0001592	9
	47	127	5.978954	164.5488	-430.3033	1	460.6921	-69.07306	1.562518E-006	-0.0001415	8
	48	130	4.734848	212.921	-515.0648	1	557.3394	-67.54044	1.301651E-006	-0.000146	8
	49	134	3.75601	276.0458	-610.1897	1	669.7259	-65.65832	1.638635E-006	-0.000122	8
	50	137	3.004808	355.0839	-711.7599	1	795.4161	-63.48624	1.363262E-006	-0.0001093	8
	51	141	2.372217	461.2885	-827.1568	1	947.0879	-60.85248	1.483308E-006	-0.0001121	8
	52	145	1.878005	594.4565	-945.2354	1	1116.624	-57.8343	1.525634E-006	-0.0001542	8
	53	150	1.512097	739.5269	-1054.139	1	1287.676	-54.94857	1.415672E-006	-3.559256E-005	8
	54	155	1.201923	919.0784	-1164.659	1	1483.623	-51.72164	1.539615E-006	-0.0001441	8
	55	162	0.956633	1117.814	-1263.619	1	1687.08	-48.50359	1.041368E-006	-0.0006761	8
