EXPLAIN
TAG	EISPOT
TITLE	LABEL	Potentiostatic EIS	Test Identifier
DATE	LABEL	10/5/2021	Date
TIME	LABEL	13:49:17	Time
NOTES	NOTES	1	Notes...
	
PSTAT	PSTAT	REF3000-16137	Potentiostat
VDC	POTEN	0.00000E+000	T	DC Voltage (V)
FREQINIT	QUANT	3.00000E+005	Initial Freq. (Hz)
FREQFINAL	QUANT	1.00000E+000	Final Freq. (Hz)
PTSPERDEC	QUANT	1.00000E+001	Points/decade
VAC	QUANT	5.00000E+001	AC Voltage (mV rms)
AREA	QUANT	1.00000E+000	Sample Area (cm^2)
SPEED	SELECTOR	2	Optimize for:
ZGUESS	QUANT	1.00000E+003	Estimated Z (ohms)
EOC	QUANT	0	Open Circuit (V)
SEQUENCER	TOGGLE	TRUE	Run as Sequence
PSTATMODEL	IQUANT	5	Pstat Model
PSTATSECTION	LABEL	REF3000-16137	Pstat Section
PSTATSERIALNO	LABEL	16137	Pstat Serial Number
CTRLMODE	IQUANT	1	Control Mode
IESTAB	IQUANT	0	I/E Stability
CASPEED	IQUANT	1	Control Amp Speed
CONVENTION	IQUANT	1	Current Convention
ICHRANGE	IQUANT	2	Ich Range
ICHRANGEMODE	TOGGLE	F	Ich Auto Range
ICHOFFSETENABLE	TOGGLE	T	Ich Offset Enable
ICHOFFSET	QUANT	0	Ich Offset (V)
ICHFILTER	IQUANT	3	Ich Filter
VCHRANGE	IQUANT	2	Vch Range
VCHRANGEMODE	TOGGLE	F	Vch Auto Range
VCHOFFSETENABLE	TOGGLE	T	Vch Offset Enable
VCHOFFSET	QUANT	0	Vch Offset (V)
VCHFILTER	IQUANT	3	Vch Filter
ACHRANGE	IQUANT	2	Ach Range
ACHOFFSETENABLE	TOGGLE	F	Ach Offset Enable
ACHOFFSET	QUANT	0	Ach Offset (V)
ACHFILTER	IQUANT	3	Ach Filter
IERANGELOWERLIMIT	IQUANT	2	I/E Range Lower Limit
IERANGEMODE	TOGGLE	F	I/E AutoRange
IERANGE	IQUANT	11	I/E Range
POSFEEDENABLE	TOGGLE	F	Positive Feedback IR Comp
POSFEEDRESISTANCE	QUANT	0	Positive Feedback Resistance (ohm)
ACHSELECT	IQUANT	0	Ach Select
CABLEID	IQUANT	13	Cable ID
DCCALDATE	LABEL	9/10/2021	DC Calibration Date
ACCALDATE	LABEL	9/10/2021	AC Calibration Date
THERMOSELECT	IQUANT	1	Thermo Select
FRAMEWORKVERSION	QUANT	6.33	Framework Version
INSTRUMENTVERSION	LABEL	3.50	Instrument Version
COMPLIANCEVOLTAGE	IQUANT	0	Compliance Voltage
ZCURVE	TABLE
	Pt	Time	Freq	Zreal	Zimag	Zsig	Zmod	Zphz	Idc	Vdc	IERange
	#	s	Hz	ohm	ohm	V	ohm	°	A	V	#
	0	10	300046.9	2.187851	2.227403	1	3.122181	45.51325	-3.310389E-005	-0.0005765	11
	1	13	238359.4	2.131298	1.769741	1	2.770273	39.70483	-1.49416E-005	-0.0004882	11
	2	16	189328.1	2.190439	1.250057	1	2.522036	29.71287	-0.0001988	-0.000819	12
	3	20	150421.9	2.147709	0.980489	1	2.360935	24.53802	-0.0000991	-0.0005002	12
	4	24	119484.4	2.114382	0.7625079	1	2.247672	19.83079	-0.0001814	-0.0003721	12
	5	27	94921.88	2.077167	0.649708	1	2.176406	17.36893	-3.27825E-005	0.0001885	11
	6	30	75421.88	2.073407	0.4823949	1	2.128784	13.09732	-0.0001029	0.0001489	11
	7	32	59859.37	2.073769	0.3399548	1	2.101449	9.309743	-5.923336E-005	0.0002327	11
	8	35	47578.12	2.074833	0.216664	1	2.086115	5.961494	-9.242596E-005	0.0002263	11
	9	37	37828.12	2.079113	0.1063312	1	2.081831	2.927703	-8.118861E-005	0.000296	11
	10	40	30046.88	2.082799	0.001283	1	2.0828	0.0352947	-3.160302E-005	0.0003159	11
	11	42	23859.38	2.089308	-0.1018948	1	2.091791	-2.792081	-0.0000953	0.0002915	11
	12	45	18984.38	2.097671	-0.2081271	1	2.107971	-5.666237	-2.377137E-005	0.0003674	11
	13	47	15046.87	2.108375	-0.3249238	1	2.133265	-8.760986	-7.004885E-005	0.0003551	11
	14	49	11953.13	2.121025	-0.4552135	1	2.169324	-12.11304	-2.313091E-005	0.0003805	11
	15	52	9515.62	2.136912	-0.6044363	1	2.220751	-15.79382	-6.190115E-005	0.0003489	11
	16	54	7546.875	2.157364	-0.7828012	1	2.294994	-19.94334	-1.592836E-005	0.0003735	11
	17	56	5928.309	2.184827	-1.007877	1	2.406093	-24.76422	-3.557522E-005	0.0003694	11
	18	59	4733.456	2.216924	-1.262407	1	2.551161	-29.65895	-5.12299E-005	0.0003379	11
	19	61	3796.875	2.255988	-1.565186	1	2.745776	-34.75259	-2.643266E-005	0.0003784	11
	20	63	2987.132	2.309578	-1.967284	1	3.033868	-40.42415	-7.599282E-005	0.0003321	11
	21	66	2390.625	2.373821	-2.427208	1	3.395051	-45.6371	-6.721245E-005	0.0003508	11
	22	68	1884.191	2.459345	-3.02954	1	3.902113	-50.93071	-1.4751E-005	0.000383	11
	23	70	1516.544	2.561579	-3.707631	1	4.506464	-55.35965	1.985041E-005	-0.0001492	10
	24	73	1193.986	2.701376	-4.621421	1	5.353033	-59.69227	-1.511292E-005	-0.0001701	10
	25	75	946.5144	2.869978	-5.719016	1	6.398744	-63.3511	-3.13259E-006	-0.0001616	10
	26	77	751.7689	3.089268	-7.052337	1	7.699287	-66.34423	1.847164E-005	-0.000162	10
	27	80	597.4265	3.359064	-8.69157	1	9.318085	-68.86979	2.159038E-005	-0.0001502	10
	28	82	477.4305	3.695259	-10.66164	1	11.28386	-70.884	4.235221E-007	-0.000131	10
	29	84	376.6741	4.145023	-13.21071	1	13.84572	-72.5801	-2.561412E-007	-0.0001333	10
	30	87	298.2954	4.712422	-16.30893	1	16.9761	-73.88349	-3.776391E-007	-0.0001313	10
	31	89	237.7717	5.420709	-20.00265	1	20.72414	-74.83706	3.382706E-008	-0.0001307	10
	32	91	189.0121	6.343815	-24.57707	1	25.3826	-75.52676	-2.466895E-007	-0.0001328	10
	33	94	150.2404	7.539807	-30.1732	1	31.10098	-75.97	-5.659468E-007	-0.0001394	10
	34	96	119.1737	9.108682	-37.06175	1	38.16467	-76.19206	-8.000966E-007	-0.0001559	10
	35	99	95.0169	11.08295	-45.18745	1	46.52673	-76.21932	1.465647E-006	-0.0001531	9
	36	101	75.60484	13.6728	-55.15443	1	56.82391	-76.07703	1.370736E-006	-0.0001536	9
	37	104	54.50582	18.71401	-73.07211	1	75.43042	-75.63511	1.345146E-006	-0.0001568	9
	38	106	45.95588	22.12932	-84.46416	1	87.31496	-75.31869	1.473839E-006	-0.0001465	9
	39	108	37.20238	27.26059	-100.8305	1	104.4507	-74.87118	1.547164E-006	-0.0001533	9
	40	111	30.04808	33.64783	-120.3313	1	124.9472	-74.3776	1.439519E-006	-0.0001765	9
	41	113	23.91582	41.92469	-145.0198	1	150.9584	-73.87562	1.183929E-006	-0.0001527	9
	42	116	18.60119	53.49322	-178.0799	1	185.9408	-73.28032	1.54257E-006	-0.0001426	9
	43	118	15.02404	65.52099	-211.6816	1	221.59	-72.80134	1.439584E-006	-0.000141	9
	44	120	12.01923	81.19814	-253.6131	1	266.2945	-72.24673	1.210436E-006	-0.0001465	9
	45	123	9.450605	102.6996	-308.1136	1	324.7787	-71.56587	1.604377E-006	-0.000159	9
	46	125	7.512019	129.6004	-370.7505	1	392.7496	-70.7323	1.783732E-006	-0.0001266	9
	47	128	5.978954	163.9014	-442.7476	1	472.1113	-69.68587	1.433439E-006	-0.0001359	8
	48	131	4.734848	211.6788	-530.9526	1	571.593	-68.26395	1.385105E-006	-0.0001178	8
	49	134	3.75601	273.9407	-631.7775	1	688.6119	-66.55829	1.453741E-006	-0.0001278	8
	50	138	3.004808	352.0425	-739.9534	1	819.4296	-64.55662	1.238418E-006	-0.0001062	8
	51	142	2.372217	458.3682	-864.0608	1	978.112	-62.05488	1.382355E-006	-0.0001509	8
	52	146	1.878005	592.4304	-995.97	1	1158.849	-59.25465	1.497531E-006	-0.0001461	8
	53	150	1.512097	738.8676	-1119.143	1	1341.046	-56.56686	1.403404E-006	-7.240749E-005	8
	54	156	1.201923	925.9639	-1246.684	1	1552.943	-53.3972	1.470498E-006	-0.0001337	8
	55	162	0.956633	1134.915	-1365.039	1	1775.208	-50.25933	1.015452E-006	-0.0006764	8
