EXPLAIN
TAG	EISPOT
TITLE	LABEL	Potentiostatic EIS	Test Identifier
DATE	LABEL	10/5/2021	Date
TIME	LABEL	13:43:35	Time
NOTES	NOTES	1	Notes...
	
PSTAT	PSTAT	REF3000-16137	Potentiostat
VDC	POTEN	0.00000E+000	T	DC Voltage (V)
FREQINIT	QUANT	3.00000E+005	Initial Freq. (Hz)
FREQFINAL	QUANT	1.00000E+000	Final Freq. (Hz)
PTSPERDEC	QUANT	1.00000E+001	Points/decade
VAC	QUANT	5.00000E+001	AC Voltage (mV rms)
AREA	QUANT	1.00000E+000	Sample Area (cm^2)
SPEED	SELECTOR	2	Optimize for:
ZGUESS	QUANT	1.00000E+003	Estimated Z (ohms)
EOC	QUANT	0	Open Circuit (V)
SEQUENCER	TOGGLE	TRUE	Run as Sequence
PSTATMODEL	IQUANT	5	Pstat Model
PSTATSECTION	LABEL	REF3000-16137	Pstat Section
PSTATSERIALNO	LABEL	16137	Pstat Serial Number
CTRLMODE	IQUANT	1	Control Mode
IESTAB	IQUANT	0	I/E Stability
CASPEED	IQUANT	1	Control Amp Speed
CONVENTION	IQUANT	1	Current Convention
ICHRANGE	IQUANT	2	Ich Range
ICHRANGEMODE	TOGGLE	F	Ich Auto Range
ICHOFFSETENABLE	TOGGLE	T	Ich Offset Enable
ICHOFFSET	QUANT	0	Ich Offset (V)
ICHFILTER	IQUANT	3	Ich Filter
VCHRANGE	IQUANT	2	Vch Range
VCHRANGEMODE	TOGGLE	F	Vch Auto Range
VCHOFFSETENABLE	TOGGLE	T	Vch Offset Enable
VCHOFFSET	QUANT	0	Vch Offset (V)
VCHFILTER	IQUANT	3	Vch Filter
ACHRANGE	IQUANT	2	Ach Range
ACHOFFSETENABLE	TOGGLE	F	Ach Offset Enable
ACHOFFSET	QUANT	0	Ach Offset (V)
ACHFILTER	IQUANT	3	Ach Filter
IERANGELOWERLIMIT	IQUANT	2	I/E Range Lower Limit
IERANGEMODE	TOGGLE	F	I/E AutoRange
IERANGE	IQUANT	11	I/E Range
POSFEEDENABLE	TOGGLE	F	Positive Feedback IR Comp
POSFEEDRESISTANCE	QUANT	0	Positive Feedback Resistance (ohm)
ACHSELECT	IQUANT	0	Ach Select
CABLEID	IQUANT	13	Cable ID
DCCALDATE	LABEL	9/10/2021	DC Calibration Date
ACCALDATE	LABEL	9/10/2021	AC Calibration Date
THERMOSELECT	IQUANT	1	Thermo Select
FRAMEWORKVERSION	QUANT	6.33	Framework Version
INSTRUMENTVERSION	LABEL	3.50	Instrument Version
COMPLIANCEVOLTAGE	IQUANT	0	Compliance Voltage
ZCURVE	TABLE
	Pt	Time	Freq	Zreal	Zimag	Zsig	Zmod	Zphz	Idc	Vdc	IERange
	#	s	Hz	ohm	ohm	V	ohm	°	A	V	#
	0	10	300046.9	1.995105	2.240335	1	2.999924	48.31371	-0.0001942	-0.0008394	11
	1	13	238359.4	1.957402	1.782774	1	2.647585	42.32682	-0.0001902	-0.0005779	11
	2	18	189328.1	2.005606	1.26395	1	2.370659	32.21947	-0.0001139	-0.0007438	12
	3	21	150421.9	1.965969	0.999843	1	2.205611	26.95675	-0.0002148	-0.0005452	12
	4	25	119484.4	1.897992	0.8544288	1	2.081448	24.23608	1.825065E-005	0.0001062	11
	5	27	94921.88	1.893139	0.6539367	1	2.0029	19.05617	-2.557195E-005	0.0001339	11
	6	30	75421.88	1.890409	0.4861651	1	1.951922	14.42248	-6.245198E-005	0.0001591	11
	7	33	59859.37	1.888565	0.3432636	1	1.919507	10.30156	-2.146701E-005	0.0002322	11
	8	35	47578.12	1.89009	0.2215618	1	1.903032	6.685862	-2.674395E-005	0.0002819	11
	9	38	37828.12	1.893005	0.1115113	1	1.896287	3.37123	-3.595016E-005	0.0003007	11
	10	40	30046.88	1.896556	0.007575	1	1.896572	0.228842	-5.198014E-005	0.0002726	11
	11	43	23859.38	1.90287	-0.0943226	1	1.905206	-2.837748	-2.309179E-005	0.000346	11
	12	45	18984.38	1.911168	-0.1985429	1	1.921453	-5.930933	-5.59484E-005	0.0003238	11
	13	47	15046.87	1.921001	-0.313356	1	1.94639	-9.26456	-6.508057E-005	0.00034	11
	14	50	11953.13	1.933697	-0.4408509	1	1.983314	-12.84298	-7.432966E-005	0.0003481	11
	15	52	9515.62	1.948819	-0.5867036	1	2.035219	-16.75473	-2.247482E-005	0.0003778	11
	16	54	7546.875	1.968477	-0.7606915	1	2.110345	-21.12835	-4.455868E-005	0.0003292	11
	17	56	5928.309	1.995705	-0.97979	1	2.223247	-26.1487	-6.019032E-005	0.0003488	11
	18	59	4733.456	2.026627	-1.227155	1	2.369204	-31.19559	-3.005998E-005	0.0003696	11
	19	61	3796.875	2.066468	-1.52083	1	2.565778	-36.35144	-6.239303E-005	0.00035	11
	20	63	2987.132	2.118438	-1.91221	1	2.853827	-42.07103	-4.716624E-005	0.0003284	11
	21	66	2390.625	2.181828	-2.357018	1	3.211839	-47.2104	-3.275264E-005	0.0003407	11
	22	68	1884.191	2.266963	-2.943414	1	3.715213	-52.3972	-6.151442E-005	0.0003372	11
	23	70	1516.544	2.368423	-3.600597	1	4.309725	-56.66363	8.190368E-006	-0.0001425	10
	24	73	1193.986	2.506624	-4.483822	1	5.136908	-60.79318	2.036201E-005	-0.0001518	10
	25	75	946.5144	2.675466	-5.548214	1	6.15961	-64.25566	-8.336076E-006	-0.0001258	10
	26	78	751.7689	2.889274	-6.841372	1	7.426457	-67.10451	6.726064E-006	-0.0001501	10
	27	80	597.4265	3.160229	-8.422069	1	8.99546	-69.4323	-1.860044E-006	-0.0001689	10
	28	82	477.4305	3.494549	-10.32849	1	10.90365	-71.30722	-5.373311E-007	-0.0001331	10
	29	84	376.6741	3.944124	-12.7916	1	13.38585	-72.86353	1.205931E-007	-0.0001345	10
	30	87	298.2954	4.51373	-15.78194	1	16.41473	-74.03915	-1.294071E-007	-0.0001334	10
	31	89	237.7717	5.225873	-19.34189	1	20.03543	-74.88059	-5.258302E-007	-0.0001389	10
	32	92	189.0121	6.156209	-23.74448	1	24.52956	-75.46502	-5.035158E-007	-0.0001384	10
	33	94	150.2404	7.363297	-29.1187	1	30.03526	-75.809	-7.469878E-007	-0.000139	10
	34	96	119.1737	8.943013	-35.72037	1	36.82285	-75.94425	-3.519903E-007	-0.0001313	10
	35	99	95.0169	10.92969	-43.48898	1	44.84138	-75.89256	1.575015E-006	-0.0001483	9
	36	101	75.60484	13.52301	-52.99366	1	54.69186	-75.68468	1.421048E-006	-0.0001509	9
	37	104	54.50582	18.54396	-70.02792	1	72.44161	-75.16805	1.495138E-006	-0.0001596	9
	38	106	45.95588	21.90771	-80.80563	1	83.72275	-74.83083	1.773347E-006	-0.0001488	9
	39	109	37.20238	26.93876	-96.3037	1	100.0005	-74.37225	1.479988E-006	-0.0001484	9
	40	111	30.04808	33.13827	-114.7239	1	119.4141	-73.88852	1.311666E-006	-0.0001473	9
	41	114	23.91582	41.38511	-138.2685	1	144.3291	-73.33704	1.538585E-006	-0.0001546	9
	42	116	18.60119	52.5322	-169.5057	1	177.4593	-72.78105	1.822235E-006	-0.0001522	9
	43	118	15.02404	64.42111	-201.4537	1	211.5033	-72.26669	1.721854E-006	-0.0001448	9
	44	120	12.01923	80.05354	-241.3736	1	254.3025	-71.65147	1.781746E-006	-0.0001495	9
	45	123	9.450605	101.8885	-292.847	1	310.0655	-70.81598	1.534863E-006	-0.0001539	9
	46	125	7.512019	129.4505	-351.8069	1	374.8673	-69.79845	2.039154E-006	-0.000151	9
	47	128	5.978954	164.8548	-418.7705	1	450.0509	-68.51223	1.606916E-006	-0.000144	8
	48	131	4.734848	213.8389	-499.4558	1	543.3076	-66.82211	1.707134E-006	-0.0001113	8
	49	134	3.75601	277.9952	-589.7767	1	652.0107	-64.76284	1.297358E-006	-0.0001518	8
	50	138	3.004808	357.1996	-684.9824	1	772.5234	-62.45919	1.416647E-006	-0.0001417	8
	51	142	2.372217	463.6211	-790.6097	1	916.5196	-59.61223	1.37617E-006	-0.0001067	8
	52	146	1.878005	594.5817	-898.572	1	1077.478	-56.50755	1.271322E-006	-0.0001382	8
	53	150	1.512097	735.9153	-995.134	1	1237.684	-53.51656	1.411514E-006	-0.0002288	8
	54	156	1.201923	909.3203	-1089.035	1	1418.753	-50.13885	1.316727E-006	-0.0001429	8
	55	162	0.956633	1099.361	-1170.334	1	1605.701	-46.79105	1.166822E-006	-0.0006795	8
