EXPLAIN
TAG	EISPOT
TITLE	LABEL	Potentiostatic EIS	Test Identifier
DATE	LABEL	10/5/2021	Date
TIME	LABEL	15:08:24	Time
NOTES	NOTES	1	Notes...
	
PSTAT	PSTAT	REF3000-16137	Potentiostat
VDC	POTEN	0.00000E+000	T	DC Voltage (V)
FREQINIT	QUANT	3.00000E+005	Initial Freq. (Hz)
FREQFINAL	QUANT	1.00000E+000	Final Freq. (Hz)
PTSPERDEC	QUANT	1.00000E+001	Points/decade
VAC	QUANT	5.00000E+001	AC Voltage (mV rms)
AREA	QUANT	1.00000E+000	Sample Area (cm^2)
SPEED	SELECTOR	2	Optimize for:
ZGUESS	QUANT	1.00000E+003	Estimated Z (ohms)
EOC	QUANT	0	Open Circuit (V)
SEQUENCER	TOGGLE	TRUE	Run as Sequence
PSTATMODEL	IQUANT	5	Pstat Model
PSTATSECTION	LABEL	REF3000-16137	Pstat Section
PSTATSERIALNO	LABEL	16137	Pstat Serial Number
CTRLMODE	IQUANT	1	Control Mode
IESTAB	IQUANT	0	I/E Stability
CASPEED	IQUANT	1	Control Amp Speed
CONVENTION	IQUANT	1	Current Convention
ICHRANGE	IQUANT	2	Ich Range
ICHRANGEMODE	TOGGLE	F	Ich Auto Range
ICHOFFSETENABLE	TOGGLE	T	Ich Offset Enable
ICHOFFSET	QUANT	0	Ich Offset (V)
ICHFILTER	IQUANT	3	Ich Filter
VCHRANGE	IQUANT	2	Vch Range
VCHRANGEMODE	TOGGLE	F	Vch Auto Range
VCHOFFSETENABLE	TOGGLE	T	Vch Offset Enable
VCHOFFSET	QUANT	0	Vch Offset (V)
VCHFILTER	IQUANT	3	Vch Filter
ACHRANGE	IQUANT	2	Ach Range
ACHOFFSETENABLE	TOGGLE	F	Ach Offset Enable
ACHOFFSET	QUANT	0	Ach Offset (V)
ACHFILTER	IQUANT	3	Ach Filter
IERANGELOWERLIMIT	IQUANT	2	I/E Range Lower Limit
IERANGEMODE	TOGGLE	F	I/E AutoRange
IERANGE	IQUANT	11	I/E Range
POSFEEDENABLE	TOGGLE	F	Positive Feedback IR Comp
POSFEEDRESISTANCE	QUANT	0	Positive Feedback Resistance (ohm)
ACHSELECT	IQUANT	0	Ach Select
CABLEID	IQUANT	13	Cable ID
DCCALDATE	LABEL	9/10/2021	DC Calibration Date
ACCALDATE	LABEL	9/10/2021	AC Calibration Date
THERMOSELECT	IQUANT	1	Thermo Select
FRAMEWORKVERSION	QUANT	6.33	Framework Version
INSTRUMENTVERSION	LABEL	3.50	Instrument Version
COMPLIANCEVOLTAGE	IQUANT	0	Compliance Voltage
ZCURVE	TABLE
	Pt	Time	Freq	Zreal	Zimag	Zsig	Zmod	Zphz	Idc	Vdc	IERange
	#	s	Hz	ohm	ohm	V	ohm	°	A	V	#
	0	19	300046.9	793.3943	-213.8248	1	821.7028	-15.08321	-2.136862E-005	0.0008365	9
	1	36	238359.4	854.826	-199.2834	1	877.7479	-13.12283	1.482682E-005	-0.0022228	9
	2	52	189328.1	907.9439	-183.3166	1	926.2651	-11.41474	-2.333519E-005	0.0010052	9
	3	63	150421.9	953.496	-149.762	1	965.185	-8.926306	-9.11549E-005	0.0021063	9
	4	72	119484.4	1003.754	-142.5692	1	1013.828	-8.083996	-9.170939E-005	0.0021575	9
	5	84	94921.88	1034.25	-96.976	1	1038.787	-5.356647	2.099493E-005	-0.0055828	8
	6	87	75421.88	1050.061	-79.98666	1	1053.103	-4.355999	3.381263E-006	-0.0060155	8
	7	89	59859.37	1061.505	-67.18182	1	1063.628	-3.621377	-1.994155E-005	0.0058134	8
	8	92	47578.12	1074.041	-53.02339	1	1075.349	-2.82629	1.290551E-006	0.0042904	8
	9	96	37828.12	1085.712	-47.57507	1	1086.754	-2.509053	-1.034702E-005	-0.001235	8
	10	99	30046.88	1106.823	-40.4905	1	1107.563	-2.095097	1.018801E-005	-0.0075043	8
	11	102	23859.38	1116.474	-32.55873	1	1116.949	-1.670391	-2.04282E-005	0.0059185	8
	12	104	18984.38	1127.195	-26.59541	1	1127.508	-1.351605	-1.749349E-005	0.0079169	8
	13	107	15046.87	1137.375	-25.871	1	1137.669	-1.303039	-1.751355E-005	0.0079353	8
	14	110	11953.13	1149.673	-21.56128	1	1149.876	-1.074414	-3.660112E-006	-0.0038195	8
	15	113	9515.62	1164.787	-16.78451	1	1164.908	-0.8255715	1.027776E-005	-0.0075325	8
	16	116	7546.875	1179.089	-17.30001	1	1179.216	-0.8406035	1.936906E-005	-0.0079084	8
	17	119	5928.309	1193.117	-12.58532	1	1193.184	-0.6043487	1.958639E-005	-0.0080417	8
	18	123	4733.456	1202.901	-14.50984	1	1202.989	-0.6910896	-1.816933E-005	0.0027223	8
	19	127	3796.875	1224.135	-14.00307	1	1224.215	-0.6553871	1.958622E-005	-0.0081422	8
	20	129	2987.132	1238.348	-12.86456	1	1238.414	-0.5951951	2.15516E-005	-0.0071698	8
	21	133	2390.625	1246.432	-7.639063	1	1246.455	-0.3511469	-6.728749E-006	0.0067253	8
	22	137	1884.191	1265.556	-12.74155	1	1265.62	-0.5768313	1.053825E-005	-0.0076686	8
	23	141	1516.544	1286.574	-15.24077	1	1286.665	-0.6786944	3.702556E-006	-0.0062021	8
	24	145	1193.986	1302.854	-11.32711	1	1302.904	-0.498121	2.011435E-005	-0.0038941	8
	25	149	946.5144	1315.832	-13.58	1	1315.902	-0.5912983	3.642715E-006	-0.0062797	8
	26	151	751.7689	1333.178	-15.69375	1	1333.271	-0.6744365	1.04945E-005	-0.0077943	8
	27	154	597.4265	1346.12	-12.56133	1	1346.178	-0.5346407	-1.040155E-005	-0.0012452	8
	28	157	477.4305	1355.682	-25.06741	1	1355.914	-1.059314	-3.95506E-007	-0.0001183	8
	29	159	376.6741	1367.171	-30.26749	1	1367.506	-1.268251	-3.931364E-007	-0.000114	8
	30	161	298.2954	1378.929	-37.01697	1	1379.426	-1.53772	-3.582695E-007	-0.0001241	8
	31	164	237.7717	1391.478	-45.28835	1	1392.214	-1.864145	-3.70828E-007	-0.0001372	8
	32	166	189.0121	1404.313	-55.73364	1	1405.419	-2.272732	-3.743586E-007	-0.0001347	8
	33	168	150.2404	1417.556	-68.78024	1	1419.223	-2.77783	-4.018532E-007	-0.0001184	8
	34	171	119.1737	1431.305	-85.03887	1	1433.829	-3.400147	-3.705404E-007	-0.0001339	8
	35	173	95.0169	1445.469	-104.7859	1	1449.262	-4.146272	-3.466166E-007	-0.0001303	8
	36	176	75.60484	1461.021	-129.5735	1	1466.755	-5.068129	-3.671071E-007	-0.0001366	8
	37	178	54.50582	1479.131	-175.66	1	1489.525	-6.772665	-3.649259E-007	-0.000145	8
	38	181	45.95588	1495.349	-205.8379	1	1509.449	-7.83763	-4.263367E-007	-0.0001555	8
	39	183	37.20238	1512.089	-251.1194	1	1532.799	-9.429311	-4.560317E-007	-0.0001174	8
	40	186	30.04808	1531.573	-306.2137	1	1561.885	-11.3063	-4.04379E-007	-0.0001436	8
	41	188	23.91582	1552.51	-378.6519	1	1598.019	-13.70665	-4.295709E-007	-0.0001257	8
	42	191	18.60119	1577.436	-478.9587	1	1648.547	-16.88992	-3.567329E-007	-0.0001148	8
	43	193	15.02404	1602.459	-584.8494	1	1705.85	-20.05056	-3.640634E-007	-0.0001146	8
	44	195	12.01923	1633.845	-718.9678	1	1785.039	-23.75173	-4.421168E-007	-0.0001351	8
	45	198	9.450605	1669.878	-897.0406	1	1895.567	-28.24422	-3.097837E-007	-0.0001417	8
	46	200	7.512019	1714.374	-1109.835	1	2042.256	-32.91782	-3.450153E-007	-0.0001604	8
	47	203	5.978954	1766.681	-1369.673	1	2235.434	-37.78572	-3.536335E-007	-0.0001173	8
	48	206	4.734848	1833.779	-1697.608	1	2498.924	-42.79176	-4.140614E-007	-0.0001161	8
	49	209	3.75601	1913.695	-2100.597	1	2841.608	-47.66571	-3.620537E-007	-0.0001314	8
	50	213	3.004808	2007.019	-2575.258	1	3264.978	-52.06905	-4.222539E-007	-7.54444E-005	8
	51	216	2.372217	2126.009	-3197.358	1	3839.663	-56.37901	-4.09562E-007	-8.382954E-005	8
	52	221	1.878005	2286.242	-3967.745	1	4579.29	-60.04916	-6.454218E-008	-0.0001224	7
	53	225	1.512097	2457.527	-4836.181	1	5424.766	-63.0624	-7.52276E-008	-1.796496E-005	7
	54	231	1.201923	2689.433	-5966.705	1	6544.816	-65.737	-6.527106E-008	-0.0001101	7
	55	237	0.956633	2967.11	-7341.947	1	7918.834	-67.99483	-8.932896E-008	-0.000658	7
