EXPLAIN
TAG	EISPOT
TITLE	LABEL	Potentiostatic EIS	Test Identifier
DATE	LABEL	10/5/2021	Date
TIME	LABEL	13:52:08	Time
NOTES	NOTES	1	Notes...
	
PSTAT	PSTAT	REF3000-16137	Potentiostat
VDC	POTEN	0.00000E+000	T	DC Voltage (V)
FREQINIT	QUANT	3.00000E+005	Initial Freq. (Hz)
FREQFINAL	QUANT	1.00000E+000	Final Freq. (Hz)
PTSPERDEC	QUANT	1.00000E+001	Points/decade
VAC	QUANT	5.00000E+001	AC Voltage (mV rms)
AREA	QUANT	1.00000E+000	Sample Area (cm^2)
SPEED	SELECTOR	2	Optimize for:
ZGUESS	QUANT	1.00000E+003	Estimated Z (ohms)
EOC	QUANT	0	Open Circuit (V)
SEQUENCER	TOGGLE	TRUE	Run as Sequence
PSTATMODEL	IQUANT	5	Pstat Model
PSTATSECTION	LABEL	REF3000-16137	Pstat Section
PSTATSERIALNO	LABEL	16137	Pstat Serial Number
CTRLMODE	IQUANT	1	Control Mode
IESTAB	IQUANT	0	I/E Stability
CASPEED	IQUANT	1	Control Amp Speed
CONVENTION	IQUANT	1	Current Convention
ICHRANGE	IQUANT	2	Ich Range
ICHRANGEMODE	TOGGLE	F	Ich Auto Range
ICHOFFSETENABLE	TOGGLE	T	Ich Offset Enable
ICHOFFSET	QUANT	0	Ich Offset (V)
ICHFILTER	IQUANT	3	Ich Filter
VCHRANGE	IQUANT	2	Vch Range
VCHRANGEMODE	TOGGLE	F	Vch Auto Range
VCHOFFSETENABLE	TOGGLE	T	Vch Offset Enable
VCHOFFSET	QUANT	0	Vch Offset (V)
VCHFILTER	IQUANT	3	Vch Filter
ACHRANGE	IQUANT	2	Ach Range
ACHOFFSETENABLE	TOGGLE	F	Ach Offset Enable
ACHOFFSET	QUANT	0	Ach Offset (V)
ACHFILTER	IQUANT	3	Ach Filter
IERANGELOWERLIMIT	IQUANT	2	I/E Range Lower Limit
IERANGEMODE	TOGGLE	F	I/E AutoRange
IERANGE	IQUANT	11	I/E Range
POSFEEDENABLE	TOGGLE	F	Positive Feedback IR Comp
POSFEEDRESISTANCE	QUANT	0	Positive Feedback Resistance (ohm)
ACHSELECT	IQUANT	0	Ach Select
CABLEID	IQUANT	13	Cable ID
DCCALDATE	LABEL	9/10/2021	DC Calibration Date
ACCALDATE	LABEL	9/10/2021	AC Calibration Date
THERMOSELECT	IQUANT	1	Thermo Select
FRAMEWORKVERSION	QUANT	6.33	Framework Version
INSTRUMENTVERSION	LABEL	3.50	Instrument Version
COMPLIANCEVOLTAGE	IQUANT	0	Compliance Voltage
ZCURVE	TABLE
	Pt	Time	Freq	Zreal	Zimag	Zsig	Zmod	Zphz	Idc	Vdc	IERange
	#	s	Hz	ohm	ohm	V	ohm	°	A	V	#
	0	11	300046.9	2.303283	2.228354	1	3.20479	44.05272	-3.261338E-005	-0.0005225	11
	1	14	238359.4	2.249113	1.774275	1	2.86471	38.26912	-0.0001744	-0.0007496	11
	2	17	189328.1	2.302379	1.238848	1	2.614516	28.2835	-5.619565E-005	-0.0006466	12
	3	21	150421.9	2.251592	0.973842	1	2.453168	23.38909	-0.0001935	-0.0005407	12
	4	24	119484.4	2.2248	0.7556122	1	2.349614	18.7591	-0.0001244	-0.0004826	12
	5	28	94921.88	2.190823	0.6458432	1	2.284035	16.42525	-2.154889E-005	0.0001995	11
	6	30	75421.88	2.188836	0.480404	1	2.240935	12.37895	-7.614207E-005	0.0001904	11
	7	33	59859.37	2.188754	0.337419	1	2.214609	8.763746	-6.036217E-005	0.0002495	11
	8	35	47578.12	2.190269	0.2144155	1	2.200739	5.591131	-4.25746E-005	0.0002813	11
	9	38	37828.12	2.192992	0.1027757	1	2.195399	2.683233	-2.194347E-005	0.0003201	11
	10	41	30046.88	2.198731	-0.001902	1	2.198732	-0.0495629	-2.377127E-005	0.0003555	11
	11	43	23859.38	2.205595	-0.10575	1	2.208129	-2.745015	-7.817319E-005	0.0003376	11
	12	45	18984.38	2.213856	-0.2127789	1	2.224058	-5.489967	-6.256518E-005	0.0003492	11
	13	48	15046.87	2.223351	-0.330908	1	2.247842	-8.465361	-2.798988E-005	0.000351	11
	14	50	11953.13	2.237549	-0.4624898	1	2.284846	-11.67829	-6.254176E-005	0.0003577	11
	15	52	9515.62	2.254172	-0.6135499	1	2.336179	-15.22615	-7.517352E-005	0.000365	11
	16	55	7546.875	2.274989	-0.7951462	1	2.409944	-19.26536	-6.811156E-005	0.000361	11
	17	57	5928.309	2.302558	-1.022939	1	2.519559	-23.95377	-5.78871E-005	0.0003638	11
	18	59	4733.456	2.334827	-1.280789	1	2.66305	-28.74734	-2.679981E-005	0.000378	11
	19	62	3796.875	2.374467	-1.587943	1	2.856511	-33.77293	-5.591629E-005	0.0003619	11
	20	64	2987.132	2.428271	-1.995669	1	3.143118	-39.415	-3.711323E-005	0.0003698	11
	21	66	2390.625	2.491118	-2.462557	1	3.502836	-44.66965	-0.0000959	0.0003225	11
	22	68	1884.191	2.581093	-3.077497	1	4.016594	-50.01348	-2.303291E-005	-0.0001279	10
	23	71	1516.544	2.681918	-3.763526	1	4.621343	-54.52603	6.45703E-006	-0.0001644	10
	24	73	1193.986	2.821146	-4.691173	1	5.474117	-58.97843	2.433918E-005	-0.0001475	10
	25	76	946.5144	2.994522	-5.806063	1	6.532804	-62.71723	-1.8561E-005	-0.0001164	10
	26	78	751.7689	3.211095	-7.164936	1	7.851589	-65.8596	-9.168448E-006	-0.0001461	10
	27	80	597.4265	3.481892	-8.835956	1	9.497246	-68.49261	-1.92766E-005	-0.0001247	10
	28	83	477.4305	3.820466	-10.83584	1	11.48962	-70.57852	2.077885E-006	-0.0001613	10
	29	85	376.6741	4.271611	-13.42917	1	14.09217	-72.35494	-3.62011E-007	-0.0001294	10
	30	87	298.2954	4.839581	-16.58161	1	17.27342	-73.72935	-3.403225E-007	-0.0001231	10
	31	89	237.7717	5.54602	-20.34248	1	21.08494	-74.74994	-1.636785E-007	-0.00013	10
	32	92	189.0121	6.466488	-25.00455	1	25.82718	-75.50027	-7.925547E-007	-0.0001249	10
	33	94	150.2404	7.658245	-30.71101	1	31.65146	-75.99802	-1.020342E-006	-0.000133	10
	34	97	119.1737	9.219064	-37.74315	1	38.85276	-76.27382	-9.53112E-007	-0.0001323	10
	35	99	95.0169	11.1847	-46.05023	1	47.38904	-76.34832	1.280236E-006	-0.0001437	9
	36	102	75.60484	13.7634	-56.25259	1	57.91188	-76.25146	1.160985E-006	-0.0001527	9
	37	104	54.50582	18.79477	-74.61388	1	76.94463	-75.86169	1.06177E-006	-0.0001482	9
	38	107	45.95588	22.21087	-86.31236	1	89.12432	-75.5691	1.429548E-006	-0.0001428	9
	39	109	37.20238	27.38272	-103.1501	1	106.7228	-75.1329	1.311635E-006	-0.0001435	9
	40	111	30.04808	33.74742	-123.1592	1	127.6992	-74.67625	1.0915E-006	-0.0001418	9
	41	114	23.91582	42.28746	-148.835	1	154.7258	-74.13892	9.645702E-007	-0.0001482	9
	42	116	18.60119	53.83428	-182.5767	1	190.3481	-73.5714	1.101981E-006	-0.0001377	9
	43	119	15.02404	65.96196	-217.1465	1	226.944	-73.10294	1.524994E-006	-0.0001437	9
	44	121	12.01923	81.68009	-260.2722	1	272.7879	-72.57681	1.588791E-006	-0.00014	9
	45	123	9.450605	103.0549	-316.4413	1	332.7993	-71.96122	1.557986E-006	-0.0001481	9
	46	126	7.512019	129.7422	-381.1898	1	402.6646	-71.20343	1.617677E-006	-0.0001399	9
	47	129	5.978954	163.3135	-455.5204	1	483.9113	-70.27619	1.412088E-006	-0.0001271	8
	48	132	4.734848	210.2761	-547.4913	1	586.4834	-68.98962	1.313491E-006	-0.0001112	8
	49	135	3.75601	271.4568	-653.7345	1	707.8542	-67.44981	1.326607E-006	-0.0001268	8
	50	138	3.004808	348.6508	-768.8406	1	844.1998	-65.60684	1.080153E-006	-9.058625E-005	8
	51	142	2.372217	454.3364	-904.4886	1	1012.186	-63.32903	1.278962E-006	-8.555614E-005	8
	52	146	1.878005	589.4005	-1047.344	1	1201.8	-60.63105	1.296147E-006	-0.0001494	8
	53	151	1.512097	740.4395	-1184.472	1	1396.862	-57.98959	1.203561E-006	-3.432299E-005	8
	54	156	1.201923	931.5485	-1331.6	1	1625.097	-55.02448	1.331687E-006	-0.0001488	8
	55	163	0.956633	1149.218	-1472.967	1	1868.244	-52.03843	9.173419E-007	-0.0006737	8
