EXPLAIN
TAG	EISPOT
TITLE	LABEL	Potentiostatic EIS	Test Identifier
DATE	LABEL	9/7/2020	Date
TIME	LABEL	17:41:07	Time
NOTES	NOTES	1	Notes...
	
PSTAT	PSTAT	REF3000-16137	Potentiostat
VDC	POTEN	0.00000E+000	T	DC Voltage (V)
FREQINIT	QUANT	3.00000E+005	Initial Freq. (Hz)
FREQFINAL	QUANT	1.00000E+000	Final Freq. (Hz)
PTSPERDEC	QUANT	1.00000E+001	Points/decade
VAC	QUANT	5.00000E+001	AC Voltage (mV rms)
AREA	QUANT	1.00000E+000	Sample Area (cm^2)
SPEED	SELECTOR	2	Optimize for:
ZGUESS	QUANT	1.00000E+003	Estimated Z (ohms)
EOC	QUANT	0	Open Circuit (V)
SEQUENCER	TOGGLE	TRUE	Run as Sequence
PSTATMODEL	IQUANT	5	Pstat Model
PSTATSECTION	LABEL	REF3000-16137	Pstat Section
PSTATSERIALNO	LABEL	16137	Pstat Serial Number
CTRLMODE	IQUANT	1	Control Mode
IESTAB	IQUANT	0	I/E Stability
CASPEED	IQUANT	1	Control Amp Speed
CONVENTION	IQUANT	1	Current Convention
ICHRANGE	IQUANT	2	Ich Range
ICHRANGEMODE	TOGGLE	F	Ich Auto Range
ICHOFFSETENABLE	TOGGLE	T	Ich Offset Enable
ICHOFFSET	QUANT	0	Ich Offset (V)
ICHFILTER	IQUANT	3	Ich Filter
VCHRANGE	IQUANT	2	Vch Range
VCHRANGEMODE	TOGGLE	F	Vch Auto Range
VCHOFFSETENABLE	TOGGLE	T	Vch Offset Enable
VCHOFFSET	QUANT	0	Vch Offset (V)
VCHFILTER	IQUANT	3	Vch Filter
ACHRANGE	IQUANT	2	Ach Range
ACHOFFSETENABLE	TOGGLE	F	Ach Offset Enable
ACHOFFSET	QUANT	0	Ach Offset (V)
ACHFILTER	IQUANT	3	Ach Filter
IERANGELOWERLIMIT	IQUANT	2	I/E Range Lower Limit
IERANGEMODE	TOGGLE	F	I/E AutoRange
IERANGE	IQUANT	11	I/E Range
POSFEEDENABLE	TOGGLE	F	Positive Feedback IR Comp
POSFEEDRESISTANCE	QUANT	0	Positive Feedback Resistance (ohm)
ACHSELECT	IQUANT	0	Ach Select
CABLEID	IQUANT	13	Cable ID
DCCALDATE	LABEL	7/31/2020	DC Calibration Date
ACCALDATE	LABEL	7/31/2020	AC Calibration Date
THERMOSELECT	IQUANT	1	Thermo Select
FRAMEWORKVERSION	QUANT	6.33	Framework Version
INSTRUMENTVERSION	LABEL	3.50	Instrument Version
COMPLIANCEVOLTAGE	IQUANT	0	Compliance Voltage
ZCURVE	TABLE
	Pt	Time	Freq	Zreal	Zimag	Zsig	Zmod	Zphz	Idc	Vdc	IERange
	#	s	Hz	ohm	ohm	V	ohm	°	A	V	#
	0	14	300046.9	1538.845	-2424.605	1	2871.717	-57.59758	2.679937E-005	0.0009153	9
	1	28	238359.4	2082.077	-2714.827	1	3421.305	-52.51439	-0.0001188	0.0034962	9
	2	44	189328.1	2531.86	-2728.47	1	3722.212	-47.14049	-0.000111	0.0034636	9
	3	54	150421.9	2989.093	-2861.039	1	4137.659	-43.74606	-5.527637E-005	0.0046419	9
	4	61	119484.4	3505.475	-2965.443	1	4591.537	-40.22942	-4.390806E-005	-0.0004763	9
	5	69	94921.88	4367.174	-2902.692	1	5243.837	-33.61045	-2.526975E-005	0.0019045	8
	6	76	75421.88	4800.904	-2880.501	1	5598.747	-30.96339	3.621428E-005	-0.0084885	8
	7	84	59859.37	5276.965	-2925.027	1	6033.419	-28.99964	-3.13422E-005	0.0123823	8
	8	91	47578.12	5705.069	-2803.656	1	6356.752	-26.171	-3.177597E-005	0.0123822	8
	9	99	37828.12	6069.84	-2767.326	1	6670.911	-24.50892	1.818789E-005	-0.011799	8
	10	106	30046.88	6466.514	-2762.484	1	7031.865	-23.13209	-3.937203E-006	-0.0065338	8
	11	114	23859.38	9689.2	-1574.229	1	9816.25	-9.228358	6.290718E-006	-0.0053718	7
	12	118	18984.38	7232.536	-2758.889	1	7740.869	-20.87962	-3.190557E-005	0.005964	8
	13	125	15046.87	7437.289	-3042.47	1	8035.539	-22.24865	4.342334E-005	-0.0011963	9
	14	131	11953.13	7954.026	-2887.82	1	8462.035	-19.95413	3.266687E-005	-0.0123	8
	15	137	9515.62	8232.884	-3194.105	1	8830.78	-21.20472	2.370888E-005	-0.0013568	9
	16	144	7546.875	8733.917	-3075.024	1	9259.432	-19.39607	-1.992884E-005	0.012767	8
	17	149	5928.309	9119.676	-3618.557	1	9811.34	-21.64247	4.339872E-005	-0.0012299	9
	18	156	4733.456	9565.07	-3764.276	1	10279.12	-21.48183	-1.188042E-006	0.0010241	9
	19	162	3796.875	10801.87	-3180.316	1	11260.32	-16.40563	2.748627E-006	-0.0266896	7
	20	166	2987.132	11232.99	-3618.479	1	11801.42	-17.85529	6.283085E-006	-0.0053517	7
	21	171	2390.625	11821.61	-4087.332	1	12508.27	-19.07287	8.603391E-006	-0.0241117	7
	22	175	1884.191	12407.31	-4591.598	1	13229.67	-20.3081	-2.815719E-006	-0.0113982	7
	23	179	1516.544	13275.48	-5108.457	1	14224.44	-21.04692	7.813869E-006	-0.0153692	7
	24	183	1193.986	14110.75	-5554.093	1	15164.47	-21.48495	8.552603E-006	-0.0240173	7
	25	188	946.5144	14823.74	-6209.563	1	16071.78	-22.72847	-2.838367E-006	-0.0112729	7
	26	190	751.7689	16427.23	-6477.827	1	17658.32	-21.52103	-7.80546E-007	0.0214032	7
	27	193	597.4265	17348.18	-6969.852	1	18695.94	-21.88843	4.158665E-006	0.0048171	7
	28	196	477.4305	18252.35	-6817.407	1	19483.97	-20.48109	-3.302929E-007	0.0006057	7
	29	198	376.6741	19401.28	-7024.652	1	20633.84	-19.90388	-3.284856E-007	0.0005976	7
	30	200	298.2954	20562.74	-7259.765	1	21806.66	-19.4458	-3.193429E-007	0.0005255	7
	31	203	237.7717	21681.21	-7360.295	1	22896.48	-18.75122	-3.245777E-007	0.000636	7
	32	205	189.0121	22837.5	-7495.441	1	24036.08	-18.17023	-3.249301E-007	0.0006001	7
	33	207	150.2404	23932.78	-7562.779	1	25099.28	-17.53658	-3.26264E-007	0.000625	7
	34	210	119.1737	25000.61	-8022.163	1	26256.15	-17.79033	-3.202354E-007	0.0005648	7
	35	213	95.0169	26331.73	-7782.447	1	27457.72	-16.46525	-3.275002E-007	0.0006388	7
	36	215	75.60484	27426.72	-7900.719	1	28542.01	-16.06992	-3.230428E-007	0.0005584	7
	37	218	54.50582	29064.58	-8301.021	1	30226.76	-15.93966	-3.178229E-007	0.0005316	7
	38	220	45.95588	29867.21	-8143.395	1	30957.47	-15.25117	-3.149471E-007	0.0005651	7
	39	223	37.20238	31016.95	-8361.061	1	32124.11	-15.0863	-3.286773E-007	0.0006024	7
	40	225	30.04808	31980.54	-8618.786	1	33121.57	-15.08292	-3.22071E-007	0.0006441	7
	41	228	23.91582	33118.69	-8902.058	1	34294.23	-15.04508	-3.156462E-007	0.0005417	7
	42	231	18.60119	34306.79	-9438.172	1	35581.38	-15.38216	-3.182724E-007	0.0006475	7
	43	233	15.02404	35527.44	-9848.91	1	36867.33	-15.49442	-3.174004E-007	0.0006917	7
	44	235	12.01923	36704.43	-10436.29	1	38159.29	-15.87222	-3.229281E-007	0.0006036	7
	45	238	9.450605	38027.98	-11210.22	1	39645.88	-16.42493	-3.231993E-007	0.0005324	7
	46	240	7.512019	39402.37	-11992.02	1	41186.84	-16.92751	-3.201775E-007	0.0005334	7
	47	243	5.978954	40777.93	-12778.25	1	42733.17	-17.399	-3.172838E-007	0.0006084	7
	48	248	4.734848	42591.26	-13741.36	1	44753.11	-17.88144	-2.421635E-007	0.0006942	6
	49	251	3.75601	44395.19	-14738.99	1	46777.89	-18.36592	-2.414939E-007	0.0006436	6
	50	257	3.004808	46362.09	-15690.94	1	48945.36	-18.69805	-2.394964E-007	0.0007067	6
	51	263	2.372217	48777.8	-16813.5	1	51594.26	-19.01886	-2.403486E-007	0.0007129	6
	52	267	1.878005	51308.41	-17836.96	1	54320.43	-19.1696	-2.462555E-007	0.0006462	6
	53	272	1.512097	53745.96	-18676.52	1	56898.51	-19.16215	-2.441947E-007	0.0006325	6
	54	278	1.201923	56173.07	-19217.56	1	59369.43	-18.88651	-2.397817E-007	0.0006401	6
	55	290	0.956633	59149.41	-19835.11	1	62386.57	-18.53831	-2.467931E-007	2.509584E-005	6
