EXPLAIN
TAG	EISPOT
TITLE	LABEL	Potentiostatic EIS	Test Identifier
DATE	LABEL	9/7/2020	Date
TIME	LABEL	17:56:21	Time
NOTES	NOTES	1	Notes...
	
PSTAT	PSTAT	REF3000-16137	Potentiostat
VDC	POTEN	0.00000E+000	T	DC Voltage (V)
FREQINIT	QUANT	3.00000E+005	Initial Freq. (Hz)
FREQFINAL	QUANT	1.00000E+000	Final Freq. (Hz)
PTSPERDEC	QUANT	1.00000E+001	Points/decade
VAC	QUANT	5.00000E+001	AC Voltage (mV rms)
AREA	QUANT	1.00000E+000	Sample Area (cm^2)
SPEED	SELECTOR	2	Optimize for:
ZGUESS	QUANT	1.00000E+003	Estimated Z (ohms)
EOC	QUANT	0	Open Circuit (V)
SEQUENCER	TOGGLE	TRUE	Run as Sequence
PSTATMODEL	IQUANT	5	Pstat Model
PSTATSECTION	LABEL	REF3000-16137	Pstat Section
PSTATSERIALNO	LABEL	16137	Pstat Serial Number
CTRLMODE	IQUANT	1	Control Mode
IESTAB	IQUANT	0	I/E Stability
CASPEED	IQUANT	1	Control Amp Speed
CONVENTION	IQUANT	1	Current Convention
ICHRANGE	IQUANT	2	Ich Range
ICHRANGEMODE	TOGGLE	F	Ich Auto Range
ICHOFFSETENABLE	TOGGLE	T	Ich Offset Enable
ICHOFFSET	QUANT	0	Ich Offset (V)
ICHFILTER	IQUANT	3	Ich Filter
VCHRANGE	IQUANT	2	Vch Range
VCHRANGEMODE	TOGGLE	F	Vch Auto Range
VCHOFFSETENABLE	TOGGLE	T	Vch Offset Enable
VCHOFFSET	QUANT	0	Vch Offset (V)
VCHFILTER	IQUANT	3	Vch Filter
ACHRANGE	IQUANT	2	Ach Range
ACHOFFSETENABLE	TOGGLE	F	Ach Offset Enable
ACHOFFSET	QUANT	0	Ach Offset (V)
ACHFILTER	IQUANT	3	Ach Filter
IERANGELOWERLIMIT	IQUANT	2	I/E Range Lower Limit
IERANGEMODE	TOGGLE	F	I/E AutoRange
IERANGE	IQUANT	11	I/E Range
POSFEEDENABLE	TOGGLE	F	Positive Feedback IR Comp
POSFEEDRESISTANCE	QUANT	0	Positive Feedback Resistance (ohm)
ACHSELECT	IQUANT	0	Ach Select
CABLEID	IQUANT	13	Cable ID
DCCALDATE	LABEL	7/31/2020	DC Calibration Date
ACCALDATE	LABEL	7/31/2020	AC Calibration Date
THERMOSELECT	IQUANT	1	Thermo Select
FRAMEWORKVERSION	QUANT	6.33	Framework Version
INSTRUMENTVERSION	LABEL	3.50	Instrument Version
COMPLIANCEVOLTAGE	IQUANT	0	Compliance Voltage
ZCURVE	TABLE
	Pt	Time	Freq	Zreal	Zimag	Zsig	Zmod	Zphz	Idc	Vdc	IERange
	#	s	Hz	ohm	ohm	V	ohm	°	A	V	#
	0	18	300046.9	1320.915	-3358.96	1	3609.354	-68.53271	1.193026E-005	-0.0020204	9
	1	38	238359.4	1856.909	-3858.994	1	4282.516	-64.30361	9.161299E-005	-0.003132	9
	2	61	189328.1	2461.521	-4233.83	1	4897.387	-59.82656	-9.916446E-006	0.001371	9
	3	69	150421.9	3197.314	-4802.07	1	5769.116	-56.34353	3.455262E-006	-0.0016968	9
	4	77	119484.4	4400.176	-5216.477	1	6824.455	-49.85187	1.074105E-005	-0.0130133	8
	5	84	94921.88	5387.275	-5449.409	1	7662.819	-45.32851	2.266016E-005	-0.0022871	8
	6	92	75421.88	6400.247	-5584.805	1	8494.305	-41.10769	4.785034E-006	0.0055712	8
	7	100	59859.37	7474.055	-5673.868	1	9383.724	-37.20366	-2.586477E-005	0.0071391	8
	8	109	47578.12	8467.529	-5670.317	1	10190.76	-33.80841	4.647964E-006	0.0056469	8
	9	118	37828.12	11438.37	-5528.189	1	12704.22	-25.79457	4.169E-006	-0.0244541	7
	10	124	30046.88	12188.56	-5262.697	1	13276.18	-23.35341	-7.156227E-006	0.0202358	7
	11	129	23859.38	12932.35	-5138.379	1	13915.77	-21.66929	6.565009E-006	-0.0127741	7
	12	133	18984.38	13552.89	-4903.082	1	14412.53	-19.88881	4.321714E-006	-0.0248481	7
	13	138	15046.87	14076.03	-4766.294	1	14861.1	-18.70665	1.231153E-006	0.0123441	7
	14	142	11953.13	14631.27	-4816.667	1	15403.71	-18.22173	2.402041E-006	-0.0216367	7
	15	146	9515.62	15206.17	-4894.01	1	15974.32	-17.84044	1.250477E-006	0.0121385	7
	16	150	7546.875	15682.95	-5079.209	1	16484.94	-17.9455	7.262417E-006	-0.0201412	7
	17	155	5928.309	16237.21	-5378.084	1	17104.7	-18.32589	-2.020699E-006	-0.0094931	7
	18	159	4733.456	16833.85	-5926.426	1	17846.6	-19.39483	-8.319305E-007	0.0183706	7
	19	163	3796.875	17517.38	-6391.889	1	18647.11	-20.04644	2.420192E-006	-0.021855	7
	20	167	2987.132	18419.3	-7009.903	1	19708.11	-20.83551	-4.488095E-006	0.0248271	7
	21	172	2390.625	18913.11	-7833.456	1	20471.17	-22.49842	-6.79696E-006	0.0136328	7
	22	176	1884.191	20453.98	-8976.996	1	22337.22	-23.69607	7.234781E-006	-0.0199977	7
	23	180	1516.544	21316.21	-9871.91	1	23491.18	-24.84967	7.218339E-006	-0.0200195	7
	24	185	1193.986	22655.72	-11117.39	1	25236.44	-26.13765	-6.811762E-006	0.0240092	7
	25	189	946.5144	24675.26	-12725.19	1	27763.27	-27.28045	4.172711E-006	-0.0245203	7
	26	193	751.7689	25911.67	-13501.93	1	29218.43	-27.52291	-7.41586E-007	0.0178993	7
	27	197	597.4265	28766.69	-14671.89	1	32292.21	-27.02296	5.237086E-006	-0.0043893	7
	28	200	477.4305	30944.79	-16096.83	1	34881.05	-27.4825	-1.640793E-007	0.0005495	7
	29	204	376.6741	33492.91	-17364.03	1	37726.44	-27.40399	-1.591336E-007	0.0005582	7
	30	206	298.2954	36407.14	-18643.24	1	40902.93	-27.11592	-1.678729E-007	0.0006079	7
	31	208	237.7717	40811.01	-17436.67	1	44379.91	-23.13479	-8.675143E-008	0.0006301	6
	32	211	189.0121	43628.28	-18975.88	1	47576.37	-23.50636	-8.759427E-008	0.0006308	6
	33	213	150.2404	46658.91	-20429.85	1	50935.57	-23.64646	-8.707564E-008	0.0006128	6
	34	216	119.1737	50494.84	-20525.89	1	54507.25	-22.12149	-8.872623E-008	0.0006054	6
	35	218	95.0169	53496.82	-23081.31	1	58263.68	-23.33788	-8.773635E-008	0.0006663	6
	36	221	75.60484	57045.09	-24050.36	1	61907.69	-22.86041	-8.864385E-008	0.0006057	6
	37	223	54.50582	62796.26	-26944.47	1	68332.82	-23.22309	-9.10535E-008	0.0006668	6
	38	226	45.95588	65857.62	-26447.09	1	70969.53	-21.8794	-8.667888E-008	0.0006039	6
	39	228	37.20238	69778.06	-27742.4	1	75090.73	-21.6818	-9.153784E-008	0.0006891	6
	40	231	30.04808	73661.37	-28281.02	1	78903.82	-21.00344	-8.966034E-008	0.0006807	6
	41	234	23.91582	78221.27	-29028.11	1	83433.8	-20.36001	-8.92111E-008	0.0006936	6
	42	236	18.60119	83111.97	-30800.19	1	88635.49	-20.33403	-8.647227E-008	0.0005942	6
	43	239	15.02404	87185.79	-30632.46	1	92410.55	-19.35877	-9.105725E-008	0.0006796	6
	44	241	12.01923	91617.87	-31325.25	1	96825.1	-18.87617	-8.959611E-008	0.0006969	6
	45	244	9.450605	96327.4	-32012.07	1	101507.3	-18.38297	-8.844466E-008	0.0006026	6
	46	246	7.512019	100915	-32965.57	1	106162.9	-18.09049	-9.00147E-008	0.0007016	6
	47	250	5.978954	105603.3	-33727.3	1	110858.4	-17.71231	-9.14297E-008	0.0006492	6
	48	254	4.734848	110609.8	-34676.24	1	115917.9	-17.40624	-9.218319E-008	0.0006887	6
	49	259	3.75601	115822.3	-35770.66	1	121220.2	-17.16283	-8.991566E-008	0.0006617	6
	50	264	3.004808	121220.1	-36610.6	1	126628	-16.80524	-9.046861E-008	0.0006534	6
	51	271	2.372217	127219.7	-37642.38	1	132671.8	-16.48269	-9.102153E-008	0.0006036	6
	52	275	1.878005	132538.3	-37883.05	1	137846	-15.95138	-9.192954E-008	0.0006428	6
	53	284	1.512097	138334.3	-38651.98	1	143632.7	-15.6109	-9.142512E-008	0.000683	6
	54	294	1.201923	144891.7	-39469.94	1	150171.5	-15.2382	-9.094504E-008	0.0006624	6
	55	307	0.956633	151886.8	-40437	1	157177.5	-14.90811	-9.632797E-008	6.988442E-006	6
