EXPLAIN
TAG	EISPOT
TITLE	LABEL	Potentiostatic EIS	Test Identifier
DATE	LABEL	9/7/2020	Date
TIME	LABEL	18:18:13	Time
NOTES	NOTES	1	Notes...
	
PSTAT	PSTAT	REF3000-16137	Potentiostat
VDC	POTEN	0.00000E+000	T	DC Voltage (V)
FREQINIT	QUANT	3.00000E+005	Initial Freq. (Hz)
FREQFINAL	QUANT	1.00000E+000	Final Freq. (Hz)
PTSPERDEC	QUANT	1.00000E+001	Points/decade
VAC	QUANT	5.00000E+001	AC Voltage (mV rms)
AREA	QUANT	1.00000E+000	Sample Area (cm^2)
SPEED	SELECTOR	2	Optimize for:
ZGUESS	QUANT	1.00000E+003	Estimated Z (ohms)
EOC	QUANT	0	Open Circuit (V)
SEQUENCER	TOGGLE	TRUE	Run as Sequence
PSTATMODEL	IQUANT	5	Pstat Model
PSTATSECTION	LABEL	REF3000-16137	Pstat Section
PSTATSERIALNO	LABEL	16137	Pstat Serial Number
CTRLMODE	IQUANT	1	Control Mode
IESTAB	IQUANT	0	I/E Stability
CASPEED	IQUANT	1	Control Amp Speed
CONVENTION	IQUANT	1	Current Convention
ICHRANGE	IQUANT	2	Ich Range
ICHRANGEMODE	TOGGLE	F	Ich Auto Range
ICHOFFSETENABLE	TOGGLE	T	Ich Offset Enable
ICHOFFSET	QUANT	0	Ich Offset (V)
ICHFILTER	IQUANT	3	Ich Filter
VCHRANGE	IQUANT	2	Vch Range
VCHRANGEMODE	TOGGLE	F	Vch Auto Range
VCHOFFSETENABLE	TOGGLE	T	Vch Offset Enable
VCHOFFSET	QUANT	0	Vch Offset (V)
VCHFILTER	IQUANT	3	Vch Filter
ACHRANGE	IQUANT	2	Ach Range
ACHOFFSETENABLE	TOGGLE	F	Ach Offset Enable
ACHOFFSET	QUANT	0	Ach Offset (V)
ACHFILTER	IQUANT	3	Ach Filter
IERANGELOWERLIMIT	IQUANT	2	I/E Range Lower Limit
IERANGEMODE	TOGGLE	F	I/E AutoRange
IERANGE	IQUANT	11	I/E Range
POSFEEDENABLE	TOGGLE	F	Positive Feedback IR Comp
POSFEEDRESISTANCE	QUANT	0	Positive Feedback Resistance (ohm)
ACHSELECT	IQUANT	0	Ach Select
CABLEID	IQUANT	13	Cable ID
DCCALDATE	LABEL	7/31/2020	DC Calibration Date
ACCALDATE	LABEL	7/31/2020	AC Calibration Date
THERMOSELECT	IQUANT	1	Thermo Select
FRAMEWORKVERSION	QUANT	6.33	Framework Version
INSTRUMENTVERSION	LABEL	3.50	Instrument Version
COMPLIANCEVOLTAGE	IQUANT	0	Compliance Voltage
ZCURVE	TABLE
	Pt	Time	Freq	Zreal	Zimag	Zsig	Zmod	Zphz	Idc	Vdc	IERange
	#	s	Hz	ohm	ohm	V	ohm	°	A	V	#
	0	18	300046.9	657.9755	-4064.677	1	4117.588	-80.80492	2.250461E-005	-0.0021162	9
	1	32	238359.4	1316.278	-4891.234	1	5065.25	-74.93798	-3.412419E-005	-0.0007947	9
	2	50	189328.1	1488.431	-5969.641	1	6152.401	-75.99971	2.296682E-005	-0.001949	9
	3	58	150421.9	2140.633	-7007.227	1	7326.905	-73.01265	-1.478962E-005	0.0014517	9
	4	65	119484.4	3457.848	-8787.734	1	9443.568	-68.52107	1.77152E-005	-0.0140491	8
	5	73	94921.88	4713.695	-10129.05	1	11172.14	-65.04443	-4.752538E-006	-0.0041301	8
	6	81	75421.88	6444.458	-11641.01	1	13305.8	-61.03111	-2.519731E-005	0.0062494	8
	7	89	59859.37	8618.634	-13083.57	1	15667.18	-56.62562	2.032215E-005	-0.0097335	8
	8	97	47578.12	11059.02	-14380.15	1	18140.86	-52.438	-4.467135E-006	-0.004182	8
	9	105	37828.12	16643.4	-15829.8	1	22969.22	-43.56479	5.032673E-006	-0.0025484	7
	10	111	30046.88	19512.24	-15985.57	1	25224.31	-39.32633	7.380464E-006	-0.0247725	7
	11	118	23859.38	22655.9	-16124.15	1	27807.88	-35.43937	6.370534E-006	-0.026743	7
	12	123	18984.38	25238.19	-15707.55	1	29726.99	-31.89699	4.746644E-006	-0.0257041	7
	13	128	15046.87	27895.45	-15287.65	1	31809.88	-28.72423	6.661326E-006	-0.0119601	7
	14	134	11953.13	26928.13	-15638.36	1	31139.73	-30.14564	1.356114E-005	-0.0089284	8
	15	140	9515.62	32093.73	-14684.7	1	35293.73	-24.58677	6.605906E-006	-0.0118365	7
	16	145	7546.875	34474.73	-14089.04	1	37242.55	-22.22872	3.197444E-006	0.0061795	7
	17	151	5928.309	36269.43	-14612.37	1	39102.34	-21.94372	-4.842122E-006	0.0256984	7
	18	156	4733.456	36156.16	-13376.87	1	38551.37	-20.3032	1.234591E-006	0.0067017	8
	19	163	3796.875	39994.36	-15342.83	1	42836.33	-20.98805	-3.866566E-006	-0.0030334	7
	20	168	2987.132	40398.29	-15646.01	1	43322.28	-21.17108	-1.212955E-006	0.0200353	7
	21	173	2390.625	42090.54	-16299.31	1	45136.25	-21.16859	6.678251E-006	-0.0116756	7
	22	179	1884.191	47182.39	-16522.57	1	49991.73	-19.2995	2.708063E-005	-0.0081111	8
	23	185	1516.544	45701.26	-20329.7	1	50019.02	-23.98137	1.994602E-005	-0.000917	8
	24	193	1193.986	49200.75	-21843.42	1	53831.67	-23.93955	-1.242783E-005	-0.0010739	8
	25	199	946.5144	51550.42	-25255.6	1	57404.63	-26.10118	5.151632E-006	-0.0025405	7
	26	203	751.7689	56514.07	-26497.43	1	62417.58	-25.1202	7.348303E-006	-0.0245795	7
	27	207	597.4265	63574.45	-30815.22	1	70649.05	-25.85997	-3.763112E-006	-0.003476	7
	28	210	477.4305	63886.02	-35468.98	1	73071.7	-29.03866	-1.162173E-007	0.0006236	7
	29	214	376.6741	74352.76	-34767.63	1	82079.97	-25.06097	-3.02202E-008	0.000608	6
	30	216	298.2954	79784.67	-39562.49	1	89054.95	-26.37524	-2.808362E-008	0.0006263	6
	31	219	237.7717	85473.93	-44327.82	1	96284.7	-27.4118	-3.034097E-008	0.0006644	6
	32	222	189.0121	91628.94	-49138.91	1	103973.5	-28.20384	-2.956231E-008	0.00068	6
	33	224	150.2404	98722.4	-54611.54	1	112820.8	-28.95061	-2.943856E-008	0.0005914	6
	34	227	119.1737	101793.1	-57910.02	1	117112.8	-29.63552	-2.980848E-008	0.0006388	6
	35	230	95.0169	115242.2	-65838.26	1	132723.2	-29.73947	-3.005473E-008	0.0007159	6
	36	232	75.60484	125274.8	-72406.82	1	144694.5	-30.02723	-3.015236E-008	0.0006735	6
	37	235	54.50582	139647.2	-79464.78	1	160673.5	-29.64159	-2.912269E-008	0.0006175	6
	38	238	45.95588	148471.3	-87036.57	1	172102	-30.3796	-2.954446E-008	0.0006796	6
	39	241	37.20238	160060.8	-91787.78	1	184511.4	-29.83236	-2.94411E-008	0.0006777	6
	40	244	30.04808	172573.5	-100512.7	1	199710.8	-30.21798	-2.889313E-008	0.0005916	6
	41	246	23.91582	185501.6	-107749.8	1	214524.7	-30.15045	-2.799542E-008	0.00059	6
	42	249	18.60119	202863.3	-116112.3	1	233742.6	-29.7854	-2.994821E-008	0.0005966	6
	43	252	15.02404	219427.5	-126118.4	1	253089.4	-29.88861	-2.968324E-008	0.0006029	6
	44	254	12.01923	235839.5	-135036.7	1	271763.1	-29.79455	-1.086078E-007	0.0005896	7
	45	258	9.450605	256498	-147215.8	1	295742.7	-29.85347	-1.08032E-007	0.0005609	7
	46	262	7.512019	277126.8	-158920.3	1	319460.3	-29.83241	-2.994542E-008	0.0005756	6
	47	266	5.978954	298297.3	-171081.6	1	343875.2	-29.83544	-1.123565E-007	0.0005669	7
	48	272	4.734848	322943	-186032.6	1	372693.3	-29.94426	-3.020717E-008	0.0006966	6
	49	277	3.75601	348457.9	-203164.1	1	403359.1	-30.2438	-2.997272E-008	0.0005961	6
	50	283	3.004808	377274.7	-221404.7	1	437442.9	-30.40666	-3.111968E-008	0.0007338	6
	51	291	2.372217	413993.1	-240706.9	1	478884.2	-30.17489	-2.141556E-008	0.0006412	5
	52	295	1.878005	451353.7	-262797.5	1	522286.1	-30.2098	-2.183252E-008	0.000625	5
	53	303	1.512097	492163	-286209.3	1	569333.1	-30.17943	-2.172379E-008	0.0007428	5
	54	314	1.201923	542100.8	-312031.1	1	625489.1	-29.92456	-2.166844E-008	0.0006253	5
	55	327	0.956633	597955.8	-336368.3	1	686071.9	-29.35908	-2.253458E-008	1.020187E-005	5
