EXPLAIN
TAG	EISPOT
TITLE	LABEL	Potentiostatic EIS	Test Identifier
DATE	LABEL	9/7/2020	Date
TIME	LABEL	18:01:39	Time
NOTES	NOTES	1	Notes...
	
PSTAT	PSTAT	REF3000-16137	Potentiostat
VDC	POTEN	0.00000E+000	T	DC Voltage (V)
FREQINIT	QUANT	3.00000E+005	Initial Freq. (Hz)
FREQFINAL	QUANT	1.00000E+000	Final Freq. (Hz)
PTSPERDEC	QUANT	1.00000E+001	Points/decade
VAC	QUANT	5.00000E+001	AC Voltage (mV rms)
AREA	QUANT	1.00000E+000	Sample Area (cm^2)
SPEED	SELECTOR	2	Optimize for:
ZGUESS	QUANT	1.00000E+003	Estimated Z (ohms)
EOC	QUANT	0	Open Circuit (V)
SEQUENCER	TOGGLE	TRUE	Run as Sequence
PSTATMODEL	IQUANT	5	Pstat Model
PSTATSECTION	LABEL	REF3000-16137	Pstat Section
PSTATSERIALNO	LABEL	16137	Pstat Serial Number
CTRLMODE	IQUANT	1	Control Mode
IESTAB	IQUANT	0	I/E Stability
CASPEED	IQUANT	1	Control Amp Speed
CONVENTION	IQUANT	1	Current Convention
ICHRANGE	IQUANT	2	Ich Range
ICHRANGEMODE	TOGGLE	F	Ich Auto Range
ICHOFFSETENABLE	TOGGLE	T	Ich Offset Enable
ICHOFFSET	QUANT	0	Ich Offset (V)
ICHFILTER	IQUANT	3	Ich Filter
VCHRANGE	IQUANT	2	Vch Range
VCHRANGEMODE	TOGGLE	F	Vch Auto Range
VCHOFFSETENABLE	TOGGLE	T	Vch Offset Enable
VCHOFFSET	QUANT	0	Vch Offset (V)
VCHFILTER	IQUANT	3	Vch Filter
ACHRANGE	IQUANT	2	Ach Range
ACHOFFSETENABLE	TOGGLE	F	Ach Offset Enable
ACHOFFSET	QUANT	0	Ach Offset (V)
ACHFILTER	IQUANT	3	Ach Filter
IERANGELOWERLIMIT	IQUANT	2	I/E Range Lower Limit
IERANGEMODE	TOGGLE	F	I/E AutoRange
IERANGE	IQUANT	11	I/E Range
POSFEEDENABLE	TOGGLE	F	Positive Feedback IR Comp
POSFEEDRESISTANCE	QUANT	0	Positive Feedback Resistance (ohm)
ACHSELECT	IQUANT	0	Ach Select
CABLEID	IQUANT	13	Cable ID
DCCALDATE	LABEL	7/31/2020	DC Calibration Date
ACCALDATE	LABEL	7/31/2020	AC Calibration Date
THERMOSELECT	IQUANT	1	Thermo Select
FRAMEWORKVERSION	QUANT	6.33	Framework Version
INSTRUMENTVERSION	LABEL	3.50	Instrument Version
COMPLIANCEVOLTAGE	IQUANT	0	Compliance Voltage
ZCURVE	TABLE
	Pt	Time	Freq	Zreal	Zimag	Zsig	Zmod	Zphz	Idc	Vdc	IERange
	#	s	Hz	ohm	ohm	V	ohm	°	A	V	#
	0	14	300046.9	1179.978	-3552.429	1	3743.274	-71.62553	-7.062402E-006	0.0009818	9
	1	30	238359.4	1511.498	-4104.615	1	4374.07	-69.7841	-1.39099E-005	0.0011405	9
	2	46	189328.1	2169.341	-4711.303	1	5186.753	-65.27608	-8.246635E-005	0.0041687	9
	3	54	150421.9	3083.374	-5425.781	1	6240.696	-60.39121	-7.254134E-005	0.001222	9
	4	61	119484.4	4469.783	-5985.54	1	7470.317	-53.24897	1.358844E-005	-0.0131458	8
	5	69	94921.88	5585.106	-6472.115	1	8548.782	-49.20748	2.344993E-005	-0.0095457	8
	6	76	75421.88	6875.186	-6843.881	1	9700.87	-44.86926	-2.047543E-005	0.0026997	8
	7	84	59859.37	7947.695	-7122.613	1	10672.28	-41.86625	4.624464E-006	0.0006315	9
	8	92	47578.12	11696.13	-7266.307	1	13769.48	-31.85093	2.586639E-006	-0.0220339	7
	9	99	37828.12	13008.25	-7025.204	1	14784.04	-28.37161	-4.019222E-006	-0.0021019	7
	10	105	30046.88	13897.39	-6724.667	1	15438.86	-25.82141	-6.891834E-006	0.0240604	7
	11	112	23859.38	14861.24	-6426.002	1	16191.05	-23.38366	7.154901E-006	-0.025063	7
	12	116	18984.38	15814.29	-6232.894	1	16998.25	-21.51091	-4.062404E-006	-0.0023528	7
	13	120	15046.87	16536.99	-6087.346	1	17621.8	-20.2089	-5.60888E-006	0.0247299	7
	14	124	11953.13	17306.25	-6110.748	1	18353.41	-19.44786	6.351114E-006	-0.0117387	7
	15	128	9515.62	17712.4	-6055.994	1	18719.08	-18.87592	-4.555411E-006	0.0250778	7
	16	133	7546.875	18577.35	-6235.487	1	19595.9	-18.55433	7.251363E-006	-0.0201767	7
	17	137	5928.309	19212.61	-6474.777	1	20274.3	-18.62416	4.403908E-006	-0.0250637	7
	18	141	4733.456	19825.68	-7147.731	1	21074.81	-19.8257	6.052681E-006	-0.0263588	7
	19	145	3796.875	20772.31	-7628	1	22128.61	-20.16423	-8.890464E-007	0.0183677	7
	20	150	2987.132	21496.29	-8323.491	1	23051.49	-21.1667	7.302097E-006	-0.0200535	7
	21	154	2390.625	22417.24	-9364.411	1	24294.55	-22.67188	-7.20233E-006	0.0203012	7
	22	158	1884.191	23703.77	-10270.53	1	25833.17	-23.42645	-2.872387E-006	0.0228831	7
	23	164	1516.544	25268.51	-12022.33	1	27982.74	-25.44431	1.270163E-006	0.0126527	7
	24	169	1193.986	26856.93	-13377.18	1	30004.06	-26.47745	2.47037E-006	-0.0219678	7
	25	175	946.5144	27763.96	-14611.46	1	31374.07	-27.75669	-2.952313E-006	0.0231836	7
	26	178	751.7689	29182.54	-14614.57	1	32637.49	-26.60163	-2.135973E-005	0.0110909	8
	27	183	597.4265	28745.97	-18811.76	1	34354.23	-33.20129	-6.638637E-006	0.009038	8
	28	189	477.4305	36117.76	-19834.61	1	41205.63	-28.77404	-1.52506E-007	0.00064	7
	29	193	376.6741	42279.62	-18267.25	1	46057.12	-23.36715	-6.948468E-008	0.000613	6
	30	195	298.2954	44997.02	-20257.36	1	49346.66	-24.23696	-6.643202E-008	0.0006663	6
	31	197	237.7717	48220.2	-22409.7	1	53173.14	-24.92602	-6.756932E-008	0.0006905	6
	32	200	189.0121	51692.57	-24514.75	1	57210.97	-25.37224	-6.575426E-008	0.000668	6
	33	202	150.2404	55759.42	-26718.96	1	61830.54	-25.60295	-6.887952E-008	0.0006843	6
	34	205	119.1737	58801.11	-27246.67	1	64807.04	-24.8616	-6.842687E-008	0.0006971	6
	35	207	95.0169	64188.86	-31020.42	1	71291.49	-25.79299	-6.976033E-008	0.0006897	6
	36	210	75.60484	68854.38	-32941.19	1	76328.55	-25.5673	-6.729564E-008	0.0006209	6
	37	212	54.50582	77509.45	-35846.63	1	85397.28	-24.81964	-6.812404E-008	0.0005938	6
	38	215	45.95588	80416.7	-37279.59	1	88637.54	-24.87151	-7.003311E-008	0.0006096	6
	39	218	37.20238	86302.07	-38758.94	1	94606.04	-24.18522	-6.864426E-008	0.0006733	6
	40	220	30.04808	91681.46	-40841.92	1	100367.1	-24.01184	-6.954096E-008	0.0006591	6
	41	223	23.91582	98253.3	-42385.75	1	107005.9	-23.335	-6.932606E-008	0.0006818	6
	42	226	18.60119	104112.6	-44718.21	1	113310	-23.24438	-6.992876E-008	0.0006806	6
	43	228	15.02404	111340.4	-46218.95	1	120552.4	-22.54401	-7.038918E-008	0.0006855	6
	44	230	12.01923	118085.6	-47795.64	1	127391.7	-22.03584	-6.964756E-008	0.0006961	6
	45	233	9.450605	125403.1	-49741.51	1	134908	-21.63589	-7.169366E-008	0.0006378	6
	46	236	7.512019	132658.7	-51633.93	1	142353	-21.26718	-7.264084E-008	0.0005958	6
	47	239	5.978954	140097.5	-53476.66	1	149956.9	-20.89237	-7.177503E-008	0.0006443	6
	48	243	4.734848	148551.3	-55536.04	1	158593	-20.4983	-7.200642E-008	0.0006048	6
	49	248	3.75601	157259.3	-57663.15	1	167497.8	-20.13676	-7.393614E-008	0.0006331	6
	50	253	3.004808	166500.5	-59618.25	1	176852.3	-19.70074	-7.380423E-008	0.0007183	6
	51	260	2.372217	176697.1	-61367.37	1	187050.3	-19.15225	-7.26952E-008	0.0007176	6
	52	267	1.878005	186998.1	-62572.67	1	197189.3	-18.5011	-7.445907E-008	0.0006183	6
	53	276	1.512097	197711.9	-63792.05	1	207748.5	-17.88237	-7.318158E-008	0.0006846	6
	54	287	1.201923	209693.9	-64789.96	1	219475	-17.16979	-7.23747E-008	0.0006075	6
	55	300	0.956633	221380.9	-65006.43	1	230727.8	-16.36438	-7.511949E-008	7.032062E-006	6
