EXPLAIN
TAG	EISPOT
TITLE	LABEL	Potentiostatic EIS	Test Identifier
DATE	LABEL	9/7/2020	Date
TIME	LABEL	17:46:08	Time
NOTES	NOTES	1	Notes...
	
PSTAT	PSTAT	REF3000-16137	Potentiostat
VDC	POTEN	0.00000E+000	T	DC Voltage (V)
FREQINIT	QUANT	3.00000E+005	Initial Freq. (Hz)
FREQFINAL	QUANT	1.00000E+000	Final Freq. (Hz)
PTSPERDEC	QUANT	1.00000E+001	Points/decade
VAC	QUANT	5.00000E+001	AC Voltage (mV rms)
AREA	QUANT	1.00000E+000	Sample Area (cm^2)
SPEED	SELECTOR	2	Optimize for:
ZGUESS	QUANT	1.00000E+003	Estimated Z (ohms)
EOC	QUANT	0	Open Circuit (V)
SEQUENCER	TOGGLE	TRUE	Run as Sequence
PSTATMODEL	IQUANT	5	Pstat Model
PSTATSECTION	LABEL	REF3000-16137	Pstat Section
PSTATSERIALNO	LABEL	16137	Pstat Serial Number
CTRLMODE	IQUANT	1	Control Mode
IESTAB	IQUANT	0	I/E Stability
CASPEED	IQUANT	1	Control Amp Speed
CONVENTION	IQUANT	1	Current Convention
ICHRANGE	IQUANT	2	Ich Range
ICHRANGEMODE	TOGGLE	F	Ich Auto Range
ICHOFFSETENABLE	TOGGLE	T	Ich Offset Enable
ICHOFFSET	QUANT	0	Ich Offset (V)
ICHFILTER	IQUANT	3	Ich Filter
VCHRANGE	IQUANT	2	Vch Range
VCHRANGEMODE	TOGGLE	F	Vch Auto Range
VCHOFFSETENABLE	TOGGLE	T	Vch Offset Enable
VCHOFFSET	QUANT	0	Vch Offset (V)
VCHFILTER	IQUANT	3	Vch Filter
ACHRANGE	IQUANT	2	Ach Range
ACHOFFSETENABLE	TOGGLE	F	Ach Offset Enable
ACHOFFSET	QUANT	0	Ach Offset (V)
ACHFILTER	IQUANT	3	Ach Filter
IERANGELOWERLIMIT	IQUANT	2	I/E Range Lower Limit
IERANGEMODE	TOGGLE	F	I/E AutoRange
IERANGE	IQUANT	11	I/E Range
POSFEEDENABLE	TOGGLE	F	Positive Feedback IR Comp
POSFEEDRESISTANCE	QUANT	0	Positive Feedback Resistance (ohm)
ACHSELECT	IQUANT	0	Ach Select
CABLEID	IQUANT	13	Cable ID
DCCALDATE	LABEL	7/31/2020	DC Calibration Date
ACCALDATE	LABEL	7/31/2020	AC Calibration Date
THERMOSELECT	IQUANT	1	Thermo Select
FRAMEWORKVERSION	QUANT	6.33	Framework Version
INSTRUMENTVERSION	LABEL	3.50	Instrument Version
COMPLIANCEVOLTAGE	IQUANT	0	Compliance Voltage
ZCURVE	TABLE
	Pt	Time	Freq	Zreal	Zimag	Zsig	Zmod	Zphz	Idc	Vdc	IERange
	#	s	Hz	ohm	ohm	V	ohm	°	A	V	#
	0	26	300046.9	1506.673	-2670.048	1	3065.815	-60.56453	0.0001106	-0.0027266	9
	1	41	238359.4	2051.859	-2925.724	1	3573.511	-54.95739	4.438198E-005	0.0004648	9
	2	58	189328.1	2524.162	-3160.019	1	4044.393	-51.38282	2.650705E-005	0.0010483	9
	3	68	150421.9	3068.806	-3347.477	1	4541.274	-47.4869	0.0001001	-0.0022564	9
	4	79	119484.4	3845.273	-3768.138	1	5383.771	-44.41953	-7.29736E-006	0.0011434	9
	5	91	94921.88	4756.624	-3796.442	1	6085.921	-38.5947	-1.672873E-005	0.000565	8
	6	99	75421.88	5416.162	-3827.846	1	6632.286	-35.25057	7.175557E-008	-0.005826	8
	7	106	59859.37	6082.729	-3779.67	1	7161.389	-31.85588	1.5618E-005	0.0012622	8
	8	114	47578.12	6686.986	-3694.689	1	7639.798	-28.9215	2.305876E-005	-0.0026614	8
	9	122	37828.12	7186.958	-3719.447	1	8092.382	-27.3628	3.699924E-006	-0.0007309	9
	10	131	30046.88	9473.123	-3303.909	1	10032.74	-19.22707	-6.748672E-006	0.0143861	7
	11	135	23859.38	9850.64	-3120.195	1	10333	-17.57562	-6.731128E-006	0.014406	7
	12	140	18984.38	10187.14	-3002.172	1	10620.31	-16.42035	2.156636E-006	-0.0207442	7
	13	144	15046.87	10517.91	-2920.973	1	10915.98	-15.52073	-7.029945E-006	0.0199424	7
	14	148	11953.13	10809.71	-2918.833	1	11196.85	-15.11062	-5.705101E-006	0.0248466	7
	15	152	9515.62	11066.05	-3069.946	1	11483.99	-15.50508	6.747356E-006	-0.0242974	7
	16	157	7546.875	11397.9	-3236.494	1	11848.5	-15.85218	-8.780219E-007	0.0173508	7
	17	161	5928.309	11824.95	-3570.786	1	12352.33	-16.80276	-8.086958E-007	0.0176977	7
	18	165	4733.456	12217.05	-3935.569	1	12835.3	-17.85569	6.736864E-006	-0.0241994	7
	19	169	3796.875	12625.02	-4288.078	1	13333.37	-18.76001	4.079854E-006	-0.024169	7
	20	174	2987.132	13222.06	-4903.436	1	14102	-20.34744	6.750615E-006	-0.0242126	7
	21	178	2390.625	13752.47	-5334.356	1	14750.79	-21.20045	-5.566846E-006	0.0240899	7
	22	182	1884.191	14739.92	-6108.902	1	15955.68	-22.51137	-5.702118E-006	0.0244241	7
	23	186	1516.544	15548.19	-6574.341	1	16881	-22.92041	-6.765854E-006	0.014386	7
	24	191	1193.986	16743.23	-7173.577	1	18215.27	-23.19254	-6.768086E-006	0.014405	7
	25	195	946.5144	17938.22	-8065.674	1	19668.12	-24.21041	-2.168147E-006	-0.0088069	7
	26	198	751.7689	19142.11	-8448.366	1	20923.56	-23.81425	5.709631E-006	-0.0254492	7
	27	200	597.4265	20429.96	-9353.094	1	22469.17	-24.59891	-6.609002E-006	0.0233269	7
	28	203	477.4305	22054.1	-9457.848	1	23996.55	-23.21196	-2.211378E-007	0.0005825	7
	29	205	376.6741	23649.45	-9915.23	1	25643.88	-22.74627	-2.169054E-007	0.0005464	7
	30	208	298.2954	25208.95	-10308.19	1	27235.09	-22.24014	-2.171411E-007	0.0005581	7
	31	210	237.7717	26928.97	-10665.88	1	28964.29	-21.60726	-2.202373E-007	0.0005717	7
	32	212	189.0121	28640.07	-10991.56	1	30676.83	-20.99593	-2.206717E-007	0.0005639	7
	33	215	150.2404	30394.97	-11324.42	1	32436.04	-20.43416	-2.250297E-007	0.0006323	7
	34	218	119.1737	31934.12	-11101.53	1	33808.76	-19.16941	-2.185443E-007	0.0005536	7
	35	220	95.0169	34027.82	-11679.7	1	35976.49	-18.94426	-2.142975E-007	0.0005714	7
	36	222	75.60484	35762.1	-11803.23	1	37659.58	-18.2654	-2.201352E-007	0.0006037	7
	37	225	54.50582	38670.22	-11863.54	1	40449.1	-17.05535	-2.159263E-007	0.0005529	7
	38	228	45.95588	39931	-11755.99	1	41625.57	-16.40483	-1.440317E-007	0.000604	6
	39	230	37.20238	41643.28	-11912.84	1	43313.72	-15.96418	-1.492005E-007	0.0006074	6
	40	232	30.04808	43207.7	-12178.06	1	44891.1	-15.74046	-1.444472E-007	0.0006923	6
	41	235	23.91582	44870.48	-12457.25	1	46567.62	-15.51609	-1.457866E-007	0.0006711	6
	42	238	18.60119	46758.07	-12877.1	1	48498.84	-15.39747	-1.410572E-007	0.0006875	6
	43	240	15.02404	48519.64	-13297.49	1	50308.84	-15.32639	-1.396374E-007	0.0006312	6
	44	243	12.01923	50170.32	-13810.82	1	52036.52	-15.3911	-1.422011E-007	0.0006883	6
	45	245	9.450605	52049	-14461.94	1	54020.8	-15.52808	-1.531195E-007	0.0006908	6
	46	248	7.512019	53816.96	-15244.52	1	55934.43	-15.81563	-1.509528E-007	0.0006603	6
	47	251	5.978954	55630.48	-15929.8	1	57866.3	-15.97907	-1.47713E-007	0.0006949	6
	48	255	4.734848	57607.76	-16874.57	1	60028.37	-16.32646	-1.503313E-007	0.0005914	6
	49	259	3.75601	59758.69	-17817.68	1	62358.41	-16.6025	-1.490783E-007	0.0006038	6
	50	264	3.004808	62019.49	-18852.32	1	64821.5	-16.90792	-1.519423E-007	0.0007694	6
	51	270	2.372217	64862.5	-20022.65	1	67882.63	-17.15513	-1.487262E-007	0.0007319	6
	52	275	1.878005	67736.14	-21258.02	1	70993.58	-17.42372	-1.522195E-007	0.0006285	6
	53	279	1.512097	70730.17	-22444.09	1	74205.76	-17.60527	-1.542359E-007	0.0007415	6
	54	285	1.201923	73803.8	-23266.43	1	77384.28	-17.4973	-1.516878E-007	0.0006224	6
	55	298	0.956633	77638.83	-24280.84	1	81347.08	-17.3666	-1.611895E-007	1.721621E-005	6
