EXPLAIN
TAG	EISPOT
TITLE	LABEL	Potentiostatic EIS	Test Identifier
DATE	LABEL	9/7/2020	Date
TIME	LABEL	18:35:03	Time
NOTES	NOTES	1	Notes...
	
PSTAT	PSTAT	REF3000-16137	Potentiostat
VDC	POTEN	0.00000E+000	T	DC Voltage (V)
FREQINIT	QUANT	3.00000E+005	Initial Freq. (Hz)
FREQFINAL	QUANT	1.00000E+000	Final Freq. (Hz)
PTSPERDEC	QUANT	1.00000E+001	Points/decade
VAC	QUANT	5.00000E+001	AC Voltage (mV rms)
AREA	QUANT	1.00000E+000	Sample Area (cm^2)
SPEED	SELECTOR	2	Optimize for:
ZGUESS	QUANT	1.00000E+003	Estimated Z (ohms)
EOC	QUANT	0	Open Circuit (V)
SEQUENCER	TOGGLE	TRUE	Run as Sequence
PSTATMODEL	IQUANT	5	Pstat Model
PSTATSECTION	LABEL	REF3000-16137	Pstat Section
PSTATSERIALNO	LABEL	16137	Pstat Serial Number
CTRLMODE	IQUANT	1	Control Mode
IESTAB	IQUANT	0	I/E Stability
CASPEED	IQUANT	1	Control Amp Speed
CONVENTION	IQUANT	1	Current Convention
ICHRANGE	IQUANT	2	Ich Range
ICHRANGEMODE	TOGGLE	F	Ich Auto Range
ICHOFFSETENABLE	TOGGLE	T	Ich Offset Enable
ICHOFFSET	QUANT	0	Ich Offset (V)
ICHFILTER	IQUANT	3	Ich Filter
VCHRANGE	IQUANT	2	Vch Range
VCHRANGEMODE	TOGGLE	F	Vch Auto Range
VCHOFFSETENABLE	TOGGLE	T	Vch Offset Enable
VCHOFFSET	QUANT	0	Vch Offset (V)
VCHFILTER	IQUANT	3	Vch Filter
ACHRANGE	IQUANT	2	Ach Range
ACHOFFSETENABLE	TOGGLE	F	Ach Offset Enable
ACHOFFSET	QUANT	0	Ach Offset (V)
ACHFILTER	IQUANT	3	Ach Filter
IERANGELOWERLIMIT	IQUANT	2	I/E Range Lower Limit
IERANGEMODE	TOGGLE	F	I/E AutoRange
IERANGE	IQUANT	11	I/E Range
POSFEEDENABLE	TOGGLE	F	Positive Feedback IR Comp
POSFEEDRESISTANCE	QUANT	0	Positive Feedback Resistance (ohm)
ACHSELECT	IQUANT	0	Ach Select
CABLEID	IQUANT	13	Cable ID
DCCALDATE	LABEL	7/31/2020	DC Calibration Date
ACCALDATE	LABEL	7/31/2020	AC Calibration Date
THERMOSELECT	IQUANT	1	Thermo Select
FRAMEWORKVERSION	QUANT	6.33	Framework Version
INSTRUMENTVERSION	LABEL	3.50	Instrument Version
COMPLIANCEVOLTAGE	IQUANT	0	Compliance Voltage
ZCURVE	TABLE
	Pt	Time	Freq	Zreal	Zimag	Zsig	Zmod	Zphz	Idc	Vdc	IERange
	#	s	Hz	ohm	ohm	V	ohm	°	A	V	#
	0	14	300046.9	203.5624	-4212.963	1	4217.878	-87.23373	-0.0001066	0.003901	9
	1	29	238359.4	438.3914	-5450.431	1	5468.033	-85.40146	-9.177069E-005	0.0023217	9
	2	44	189328.1	657.5773	-6489.186	1	6522.418	-84.21372	8.096618E-005	-0.0017039	9
	3	56	150421.9	974.435	-8168.729	1	8226.643	-83.19742	-9.34121E-005	0.0023384	9
	4	64	119484.4	1876.022	-10127.68	1	10299.97	-79.50565	-6.723433E-006	0.0172207	8
	5	72	94921.88	2394.345	-12263.79	1	12495.34	-78.95271	1.517717E-005	-0.0091546	8
	6	80	75421.88	3441.135	-15128.05	1	15514.49	-77.18514	2.724392E-005	-0.0078191	8
	7	89	59859.37	4865.168	-18478.32	1	19108.07	-75.24933	-2.412212E-005	0.0111078	8
	8	98	47578.12	10146.62	-23559.04	1	25651.17	-66.69899	9.796545E-007	-0.0188126	7
	9	105	37828.12	9811.77	-27086.74	1	28809.07	-70.08783	-2.673071E-005	0.009801	8
	10	114	30046.88	13984.33	-32184.53	1	35091.38	-66.51482	-1.798021E-005	0.0109731	8
	11	122	23859.38	21176.21	-36681.66	1	42355.35	-60.00229	-1.674551E-005	0.0009081	8
	12	130	18984.38	29443.28	-42190.08	1	51448.12	-55.08989	5.04917E-006	-0.0264556	7
	13	135	15046.87	37321.98	-46002.6	1	59238.24	-50.94753	-6.967207E-006	0.0186682	7
	14	141	11953.13	46181.98	-50370.91	1	68337.43	-47.48421	6.541396E-006	-0.0268559	7
	15	146	9515.62	56713.18	-51389.99	1	76533.11	-42.18093	-3.35445E-006	0.0246723	7
	16	151	7546.875	65363.26	-54019.72	1	84796.73	-39.57216	-7.303074E-006	0.0193674	7
	17	158	5928.309	64979.19	-45209.05	1	79159.04	-34.82813	-1.696113E-005	0.0010374	8
	18	165	4733.456	83657.77	-51229.98	1	98097.6	-31.48229	-3.403338E-006	0.0244638	7
	19	172	3796.875	95565.1	-50988.2	1	108316.6	-28.08189	-5.352627E-006	0.0042651	7
	20	178	2987.132	96728.3	-55822	1	111680.1	-29.98929	9.732059E-006	0.0036205	8
	21	186	2390.625	108492.4	-49245.31	1	119145.7	-24.41356	7.221432E-007	0.0150075	7
	22	192	1884.191	135864.2	-45241.02	1	143198.6	-18.41709	-5.438189E-007	0.0260777	6
	23	196	1516.544	140888	-43901.36	1	147569.5	-17.30728	-3.840373E-007	0.0248679	6
	24	201	1193.986	145037.6	-45031.17	1	151867.4	-17.24849	-3.798303E-007	0.0246957	6
	25	205	946.5144	148827.3	-44515.23	1	155342.1	-16.65227	3.660544E-007	-0.0248689	6
	26	208	751.7689	152562.5	-49155.48	1	160285.9	-17.85889	-6.671593E-007	0.0256268	6
	27	211	597.4265	160016.7	-55244.41	1	169284.6	-19.0468	2.409125E-008	0.0159581	6
	28	213	477.4305	163525.8	-61013.82	1	174537.6	-20.46126	-1.47498E-008	0.0006852	6
	29	216	376.6741	170534.1	-69582.64	1	184183.7	-22.19682	-1.455111E-008	0.0006795	6
	30	218	298.2954	179156.2	-79171.29	1	195870	-23.84121	-1.499563E-008	0.0006842	6
	31	221	237.7717	189846.7	-89552.41	1	209908.1	-25.25367	-1.428562E-008	0.0005801	6
	32	224	189.0121	200845.6	-102397.2	1	225442.1	-27.01388	-1.411751E-008	0.0005898	6
	33	226	150.2404	213317.7	-114054.7	1	241894.5	-28.13211	-1.459101E-008	0.0006399	6
	34	229	119.1737	237432.2	-119606.7	1	265856.8	-26.73673	-9.467896E-008	0.0005479	7
	35	233	95.0169	251208.2	-146922.4	1	291018.5	-30.32179	-1.508088E-008	0.0005838	6
	36	237	75.60484	265892.7	-168744.4	1	314918.4	-32.40057	-9.69052E-008	0.0005365	7
	37	241	54.50582	306171.3	-187206.3	1	358869.2	-31.4434	-1.479803E-008	0.0006745	6
	38	246	45.95588	323816.1	-201911.7	1	381608.7	-31.94511	-1.456201E-008	0.0005964	6
	39	249	37.20238	378611.6	-187491.2	1	422492.3	-26.34495	-5.75554E-009	0.0005708	5
	40	252	30.04808	406593.3	-209903.5	1	457577.9	-27.30502	-5.702522E-009	0.0006562	5
	41	255	23.91582	432774.6	-230055.7	1	490121.9	-27.99436	-5.071086E-009	0.000661	5
	42	258	18.60119	449510.8	-264033.4	1	521319.1	-30.42911	-8.006116E-009	0.0006673	5
	43	260	15.02404	508279.1	-291588.4	1	585979	-29.84194	-5.846812E-009	0.000654	5
	44	263	12.01923	545946.8	-320974.5	1	633310.8	-30.45224	-6.283854E-009	0.0006695	5
	45	265	9.450605	594296.9	-357516.1	1	693546.4	-31.0302	-5.288271E-009	0.0005685	5
	46	268	7.512019	642770.4	-393447	1	753627.4	-31.47127	-5.365318E-009	0.0006688	5
	47	271	5.978954	700566.3	-428136.4	1	821032.2	-31.43032	-5.807728E-009	0.0006732	5
	48	275	4.734848	759470.4	-478477.9	1	897628.2	-32.21156	-5.917018E-009	0.0006364	5
	49	280	3.75601	823784.6	-524707.2	1	976698	-32.49498	-5.705918E-009	0.0006526	5
	50	286	3.004808	895641.3	-578100.7	1	1066008	-32.84063	-5.567109E-009	0.0005595	5
	51	292	2.372217	975238	-641691.1	1	1167414	-33.34429	-5.828408E-009	0.000621	5
	52	296	1.878005	1060988	-710923.1	1	1277148	-33.82435	-5.82199E-009	0.0006199	5
	53	301	1.512097	1147209	-785897.4	1	1390584	-34.41316	-5.711943E-009	0.0005362	5
	54	306	1.201923	1249044	-879077.9	1	1527379	-35.13792	-5.749467E-009	0.000623	5
	55	313	0.956633	1364494	-985420	1	1683121	-35.83633	-5.878575E-009	-8.381613E-006	5
