EXPLAIN
TAG	EISPOT
TITLE	LABEL	Potentiostatic EIS	Test Identifier
DATE	LABEL	8/5/2020	Date
TIME	LABEL	22:32:13	Time
NOTES	NOTES	1	Notes...
	
PSTAT	PSTAT	REF3000-16137	Potentiostat
VDC	POTEN	0.00000E+000	T	DC Voltage (V)
FREQINIT	QUANT	3.00000E+005	Initial Freq. (Hz)
FREQFINAL	QUANT	1.00000E+000	Final Freq. (Hz)
PTSPERDEC	QUANT	1.00000E+001	Points/decade
VAC	QUANT	5.00000E+001	AC Voltage (mV rms)
AREA	QUANT	1.00000E+000	Sample Area (cm^2)
SPEED	SELECTOR	2	Optimize for:
ZGUESS	QUANT	1.00000E+003	Estimated Z (ohms)
EOC	QUANT	0	Open Circuit (V)
SEQUENCER	TOGGLE	TRUE	Run as Sequence
PSTATMODEL	IQUANT	5	Pstat Model
PSTATSECTION	LABEL	REF3000-16137	Pstat Section
PSTATSERIALNO	LABEL	16137	Pstat Serial Number
CTRLMODE	IQUANT	1	Control Mode
IESTAB	IQUANT	0	I/E Stability
CASPEED	IQUANT	1	Control Amp Speed
CONVENTION	IQUANT	1	Current Convention
ICHRANGE	IQUANT	2	Ich Range
ICHRANGEMODE	TOGGLE	F	Ich Auto Range
ICHOFFSETENABLE	TOGGLE	T	Ich Offset Enable
ICHOFFSET	QUANT	0	Ich Offset (V)
ICHFILTER	IQUANT	3	Ich Filter
VCHRANGE	IQUANT	2	Vch Range
VCHRANGEMODE	TOGGLE	F	Vch Auto Range
VCHOFFSETENABLE	TOGGLE	T	Vch Offset Enable
VCHOFFSET	QUANT	0	Vch Offset (V)
VCHFILTER	IQUANT	3	Vch Filter
ACHRANGE	IQUANT	2	Ach Range
ACHOFFSETENABLE	TOGGLE	F	Ach Offset Enable
ACHOFFSET	QUANT	0	Ach Offset (V)
ACHFILTER	IQUANT	3	Ach Filter
IERANGELOWERLIMIT	IQUANT	2	I/E Range Lower Limit
IERANGEMODE	TOGGLE	F	I/E AutoRange
IERANGE	IQUANT	11	I/E Range
POSFEEDENABLE	TOGGLE	F	Positive Feedback IR Comp
POSFEEDRESISTANCE	QUANT	0	Positive Feedback Resistance (ohm)
ACHSELECT	IQUANT	0	Ach Select
CABLEID	IQUANT	13	Cable ID
DCCALDATE	LABEL	7/31/2020	DC Calibration Date
ACCALDATE	LABEL	7/31/2020	AC Calibration Date
THERMOSELECT	IQUANT	1	Thermo Select
FRAMEWORKVERSION	QUANT	6.33	Framework Version
INSTRUMENTVERSION	LABEL	3.50	Instrument Version
COMPLIANCEVOLTAGE	IQUANT	0	Compliance Voltage
ZCURVE	TABLE
	Pt	Time	Freq	Zreal	Zimag	Zsig	Zmod	Zphz	Idc	Vdc	IERange
	#	s	Hz	ohm	ohm	V	ohm	°	A	V	#
	0	7	300046.9	45.18023	1.192524	1	45.19597	1.511961	2.789151E-005	-0.00051	9
	1	10	238359.4	45.91776	0.9243757	1	45.92707	1.153272	-4.092651E-005	0.0003076	9
	2	13	189328.1	46.50058	0.6727697	1	46.50545	0.8288967	-5.95926E-005	0.0019462	9
	3	16	150421.9	47.02603	0.4925583	1	47.02861	0.6001034	9.024982E-006	-0.0009203	9
	4	18	119484.4	47.549	0.3261246	1	47.55011	0.3929688	-5.085515E-006	0.0007673	9
	5	21	94921.88	48.12373	0.3711242	1	48.12516	0.4418491	-1.151108E-005	0.0001353	9
	6	23	75421.88	48.63674	0.2138309	1	48.63721	0.2518986	-1.627949E-005	0.0003995	9
	7	26	59859.37	49.15385	0.0638081	1	49.15389	0.0743774	4.827551E-006	-0.0003578	9
	8	29	47578.12	49.70121	-0.085963	1	49.70128	-0.0990985	-1.520586E-005	0.0006316	9
	9	31	37828.12	50.25382	-0.2281531	1	50.25434	-0.2601219	1.961827E-005	-0.0002809	9
	10	34	30046.88	50.84092	-0.3669364	1	50.84224	-0.4135162	2.031563E-005	-0.00024	9
	11	36	23859.38	51.4119	-0.5139908	1	51.41447	-0.5727957	1.992898E-005	-0.0002825	9
	12	38	18984.38	51.95264	-0.6591861	1	51.95682	-0.726942	-1.298247E-005	0.0007177	9
	13	41	15046.87	52.48034	-0.8663026	1	52.48749	-0.945706	4.057395E-006	0.0003648	9
	14	43	11953.13	53.04314	-1.074528	1	53.05403	-1.160517	5.664997E-006	-0.0003518	9
	15	45	9515.62	53.65302	-1.333041	1	53.66957	-1.423255	2.305578E-005	-0.0004653	9
	16	48	7546.875	54.24189	-1.661814	1	54.26734	-1.754827	-1.383614E-005	0.0007249	9
	17	50	5928.309	54.84064	-2.095978	1	54.88068	-2.188747	-1.369037E-005	0.0006956	9
	18	52	4733.456	55.47323	-2.578435	1	55.53312	-2.661233	2.168613E-005	-0.0004933	9
	19	55	3796.875	56.11451	-3.176442	1	56.20434	-3.239853	2.246403E-005	-0.0004353	9
	20	57	2987.132	56.77888	-3.957283	1	56.91661	-3.986862	2.205352E-005	-0.0004023	9
	21	59	2390.625	57.45923	-4.917057	1	57.66924	-4.891153	1.864872E-005	-0.0004668	9
	22	62	1884.191	58.20605	-6.093468	1	58.52414	-5.976404	4.851479E-006	-0.0003513	9
	23	64	1516.544	58.94375	-7.466755	1	59.4148	-7.219544	-2.365901E-006	-0.0001498	9
	24	66	1193.986	59.75438	-9.319454	1	60.47676	-8.86459	-1.334728E-005	0.0002087	9
	25	69	946.5144	60.67738	-11.57792	1	61.7721	-10.80281	1.132526E-005	7.190333E-005	9
	26	71	751.7689	61.63988	-14.35495	1	63.28933	-13.10961	-1.693323E-005	0.0006856	9
	27	73	597.4265	62.60577	-17.85556	1	65.10226	-15.91848	2.238748E-005	-0.0004066	9
	28	76	477.4305	63.73022	-22.02197	1	67.4278	-19.06259	1.940624E-006	6.851425E-005	9
	29	78	376.6741	65.00924	-27.49697	1	70.5853	-22.92692	1.923783E-006	6.634436E-005	9
	30	80	298.2954	66.45364	-34.20702	1	74.74092	-27.23715	1.935939E-006	7.170922E-005	9
	31	83	237.7717	68.12611	-42.28212	1	80.18069	-31.82559	1.868197E-006	7.125246E-005	9
	32	85	189.0121	70.08075	-52.37353	1	87.48885	-36.77191	1.875201E-006	7.519067E-005	9
	33	87	150.2404	72.35287	-64.83498	1	97.152	-41.86333	1.929947E-006	7.277232E-005	9
	34	90	119.1737	75.05575	-80.3781	1	109.9727	-46.96115	1.9001E-006	7.813999E-005	9
	35	92	95.0169	78.20506	-99.1301	1	126.2648	-51.72961	1.937498E-006	6.938861E-005	9
	36	95	75.60484	81.99992	-122.4485	1	147.369	-56.19102	1.977496E-006	7.226685E-005	9
	37	97	54.50582	88.31544	-165.5309	1	187.6169	-61.9188	1.914944E-006	7.241725E-005	9
	38	100	45.95588	92.70015	-193.8542	1	214.8785	-64.4431	1.552843E-006	0.0001274	9
	39	102	37.20238	98.7025	-235.6347	1	255.4719	-67.2722	1.938671E-006	6.923417E-005	9
	40	104	30.04808	105.9359	-287.1483	1	306.0663	-69.74977	2.058594E-006	6.325437E-005	9
	41	107	23.91582	115.0522	-354.5585	1	372.7583	-72.02206	1.965674E-006	7.236883E-005	9
	42	109	18.60119	126.6637	-445.5552	1	463.2096	-74.13046	2.84439E-007	0.0006549	8
	43	112	15.02404	139.3674	-543.1304	1	560.7262	-75.60839	2.87655E-007	0.0006723	8
	44	114	12.01923	155.4035	-668.1763	1	686.0101	-76.90699	2.213067E-007	0.0006633	8
	45	116	9.450605	176.3967	-835.3381	1	853.7596	-78.07614	2.775754E-007	0.0006653	8
	46	119	7.512019	201.7767	-1033.945	1	1053.449	-78.95738	2.703275E-007	0.0006462	8
	47	122	5.978954	232.1543	-1278.347	1	1299.256	-79.70697	2.146591E-007	0.000718	8
	48	125	4.734848	271.5741	-1588.477	1	1611.525	-80.29823	2.814075E-007	0.0006329	8
	49	128	3.75601	319.0812	-1970.42	1	1996.088	-80.80162	2.836467E-007	0.0006755	8
	50	131	3.004808	375.3832	-2423.757	1	2452.653	-81.19617	2.602001E-007	0.0006547	8
	51	135	2.372217	453.245	-3019.143	1	3052.975	-81.4623	2.655341E-007	0.0006135	8
	52	139	1.878005	542.5806	-3762.451	1	3801.372	-81.79398	2.869919E-007	0.0006464	8
	53	144	1.512097	640.656	-4611.079	1	4655.372	-82.09006	1.031805E-008	0.0007373	7
	54	149	1.201923	782.3066	-5730.568	1	5783.72	-82.22634	2.941909E-008	0.0006981	7
	55	156	0.956633	949.7963	-7098.075	1	7161.339	-82.3785	1.68935E-008	-1.133707E-005	7
