EXPLAIN
TAG	EISPOT
TITLE	LABEL	Potentiostatic EIS	Test Identifier
DATE	LABEL	8/5/2020	Date
TIME	LABEL	22:09:49	Time
NOTES	NOTES	1	Notes...
	
PSTAT	PSTAT	REF3000-16137	Potentiostat
VDC	POTEN	0.00000E+000	T	DC Voltage (V)
FREQINIT	QUANT	3.00000E+005	Initial Freq. (Hz)
FREQFINAL	QUANT	1.00000E+000	Final Freq. (Hz)
PTSPERDEC	QUANT	1.00000E+001	Points/decade
VAC	QUANT	5.00000E+001	AC Voltage (mV rms)
AREA	QUANT	1.00000E+000	Sample Area (cm^2)
SPEED	SELECTOR	2	Optimize for:
ZGUESS	QUANT	1.00000E+003	Estimated Z (ohms)
EOC	QUANT	0	Open Circuit (V)
SEQUENCER	TOGGLE	TRUE	Run as Sequence
PSTATMODEL	IQUANT	5	Pstat Model
PSTATSECTION	LABEL	REF3000-16137	Pstat Section
PSTATSERIALNO	LABEL	16137	Pstat Serial Number
CTRLMODE	IQUANT	1	Control Mode
IESTAB	IQUANT	0	I/E Stability
CASPEED	IQUANT	1	Control Amp Speed
CONVENTION	IQUANT	1	Current Convention
ICHRANGE	IQUANT	2	Ich Range
ICHRANGEMODE	TOGGLE	F	Ich Auto Range
ICHOFFSETENABLE	TOGGLE	T	Ich Offset Enable
ICHOFFSET	QUANT	0	Ich Offset (V)
ICHFILTER	IQUANT	3	Ich Filter
VCHRANGE	IQUANT	2	Vch Range
VCHRANGEMODE	TOGGLE	F	Vch Auto Range
VCHOFFSETENABLE	TOGGLE	T	Vch Offset Enable
VCHOFFSET	QUANT	0	Vch Offset (V)
VCHFILTER	IQUANT	3	Vch Filter
ACHRANGE	IQUANT	2	Ach Range
ACHOFFSETENABLE	TOGGLE	F	Ach Offset Enable
ACHOFFSET	QUANT	0	Ach Offset (V)
ACHFILTER	IQUANT	3	Ach Filter
IERANGELOWERLIMIT	IQUANT	2	I/E Range Lower Limit
IERANGEMODE	TOGGLE	F	I/E AutoRange
IERANGE	IQUANT	11	I/E Range
POSFEEDENABLE	TOGGLE	F	Positive Feedback IR Comp
POSFEEDRESISTANCE	QUANT	0	Positive Feedback Resistance (ohm)
ACHSELECT	IQUANT	0	Ach Select
CABLEID	IQUANT	13	Cable ID
DCCALDATE	LABEL	7/31/2020	DC Calibration Date
ACCALDATE	LABEL	7/31/2020	AC Calibration Date
THERMOSELECT	IQUANT	1	Thermo Select
FRAMEWORKVERSION	QUANT	6.33	Framework Version
INSTRUMENTVERSION	LABEL	3.50	Instrument Version
COMPLIANCEVOLTAGE	IQUANT	0	Compliance Voltage
ZCURVE	TABLE
	Pt	Time	Freq	Zreal	Zimag	Zsig	Zmod	Zphz	Idc	Vdc	IERange
	#	s	Hz	ohm	ohm	V	ohm	°	A	V	#
	0	11	300046.9	3.328712	1.244023	1	3.553578	20.49197	-2.228632E-005	-0.0001233	10
	1	14	238359.4	3.326859	0.972218	1	3.466007	16.2901	2.126579E-005	-0.0005416	10
	2	17	189328.1	3.349558	0.5024405	1	3.387032	8.530878	4.160912E-005	-0.000147	12
	3	21	150421.9	3.31406	0.5540066	1	3.360047	9.490298	-0.0001332	0.000237	11
	4	23	119484.4	3.316384	0.4146475	1	3.342206	7.126709	-9.256239E-005	0.0003956	11
	5	26	94921.88	3.315818	0.2940336	1	3.32883	5.067507	4.690948E-006	0.00062	11
	6	28	75421.88	3.31865	0.1882587	1	3.323985	3.246766	-2.512623E-005	0.0006144	11
	7	31	59859.37	3.322505	0.092289	1	3.323787	1.591092	2.121376E-005	0.0006622	11
	8	35	47578.12	3.328723	0.0037489	1	3.328725	0.0645284	-4.099634E-005	0.0006649	11
	9	37	37828.12	3.334942	-0.0832084	1	3.33598	-1.429261	8.84257E-006	0.0006731	11
	10	40	30046.88	3.342731	-0.1733179	1	3.347221	-2.968081	-4.95356E-005	0.0006266	11
	11	42	23859.38	3.352376	-0.2706885	1	3.363287	-4.616348	3.376041E-005	0.0007232	11
	12	44	18984.38	3.362457	-0.378688	1	3.383714	-6.425713	-2.252799E-005	0.0006884	11
	13	47	15046.87	3.374334	-0.5060973	1	3.412076	-8.529888	7.43285E-006	0.0006829	11
	14	49	11953.13	3.389934	-0.6563733	1	3.452894	-10.95825	-2.123203E-005	0.0006693	11
	15	51	9515.62	3.408244	-0.8350937	1	3.509061	-13.76748	2.832335E-005	0.0007269	11
	16	54	7546.875	3.434255	-1.056305	1	3.593034	-17.09681	2.018106E-005	0.0006576	10
	17	56	5928.309	3.463662	-1.340558	1	3.714034	-21.15818	-1.346773E-005	0.000676	10
	18	58	4733.456	3.497983	-1.667916	1	3.875285	-25.49283	-2.212799E-005	0.0006788	10
	19	60	3796.875	3.538885	-2.061947	1	4.09577	-30.22741	2.59892E-006	0.0006372	10
	20	63	2987.132	3.596015	-2.590555	1	4.431963	-35.76883	-1.308569E-005	0.0006773	10
	21	65	2390.625	3.661993	-3.200184	1	4.863267	-41.14993	2.414247E-005	0.0006581	10
	22	67	1884.191	3.752606	-4.005181	1	5.488491	-46.86475	-4.597404E-006	0.0006793	10
	23	70	1516.544	3.858495	-4.911501	1	6.245864	-51.84668	-1.726202E-005	0.000669	10
	24	72	1193.986	4.003183	-6.144788	1	7.333751	-56.91671	2.255438E-005	0.0006586	10
	25	74	946.5144	4.194535	-7.632762	1	8.709373	-61.20929	1.87217E-005	0.0006479	10
	26	77	751.7689	4.420463	-9.467929	1	10.44903	-64.97269	-2.320984E-005	0.0007221	10
	27	79	597.4265	4.725495	-11.72855	1	12.64473	-68.05523	5.262543E-006	0.0006447	10
	28	81	477.4305	5.091872	-14.43509	1	15.30683	-70.57008	-4.124623E-007	0.0006696	10
	29	84	376.6741	5.595026	-17.95738	1	18.80882	-72.6944	-1.118184E-006	0.0006784	10
	30	86	298.2954	6.231256	-22.25599	1	23.11185	-74.35876	-1.328287E-006	0.0006796	10
	31	88	237.7717	7.020992	-27.39421	1	28.27963	-75.62482	-1.162816E-006	0.0006749	10
	32	91	189.0121	8.034185	-33.78134	1	34.72358	-76.62193	-9.412565E-007	0.00068	10
	33	93	150.2404	9.309935	-41.61999	1	42.64855	-77.39113	-1.153856E-006	0.0006786	10
	34	96	119.1737	10.91807	-51.27933	1	52.42875	-77.98043	2.045304E-006	7.715363E-005	9
	35	98	95.0169	12.8991	-62.91802	1	64.22666	-78.41409	1.890569E-006	7.439414E-005	9
	36	100	75.60484	15.39951	-77.29601	1	78.81509	-78.73261	1.77275E-006	7.228268E-005	9
	37	103	54.50582	20.10257	-103.7116	1	105.6419	-79.0303	1.779112E-006	7.008338E-005	9
	38	106	45.95588	23.25138	-120.8756	1	123.0916	-79.1117	2.021164E-006	7.724368E-005	9
	39	108	37.20238	27.90921	-145.9565	1	148.6009	-79.1748	1.924121E-006	8.043513E-005	9
	40	110	30.04808	33.81035	-176.7624	1	179.9669	-79.17151	1.909506E-006	6.884023E-005	9
	41	113	23.91582	41.7525	-216.6967	1	220.6824	-79.09406	1.929218E-006	7.304038E-005	9
	42	115	18.60119	52.69024	-270.6242	1	275.7059	-78.98241	1.812509E-006	6.811099E-005	9
	43	117	15.02404	64.60852	-327.024	1	333.3452	-78.82428	2.067513E-006	7.98427E-005	9
	44	120	12.01923	80.20274	-398.1051	1	406.1036	-78.60959	2.096845E-006	7.696498E-005	9
	45	122	9.450605	101.1596	-489.8417	1	500.1782	-78.3316	5.347895E-007	0.0006437	8
	46	124	7.512019	127.649	-598.6986	1	612.1555	-77.96414	5.69247E-007	0.0006766	8
	47	127	5.978954	160.8844	-730.5872	1	748.0919	-77.58097	5.323439E-007	0.0006559	8
	48	130	4.734848	204.7102	-894.4088	1	917.5365	-77.10832	5.871979E-007	0.0006829	8
	49	133	3.75601	261.7369	-1091.926	1	1122.857	-76.5204	4.520645E-007	0.00064	8
	50	137	3.004808	332.6675	-1320.968	1	1362.213	-75.86478	5.4904E-007	0.0006248	8
	51	141	2.372217	430.5646	-1613.651	1	1670.107	-75.06004	4.837996E-007	0.0005971	8
	52	145	1.878005	561.181	-1962.061	1	2040.737	-74.03862	4.857229E-007	0.0006664	8
	53	149	1.512097	719.0732	-2344.372	1	2452.171	-72.94801	4.973106E-007	0.0005596	8
	54	155	1.201923	934.3915	-2830.042	1	2980.306	-71.72839	4.91884E-007	0.0006826	8
	55	161	0.956633	1217.653	-3393.966	1	3605.785	-70.26353	4.422167E-007	1.170296E-005	8
