EXPLAIN
TAG	EISPOT
TITLE	LABEL	Potentiostatic EIS	Test Identifier
DATE	LABEL	8/5/2020	Date
TIME	LABEL	22:40:40	Time
NOTES	NOTES	1	Notes...
	
PSTAT	PSTAT	REF3000-16137	Potentiostat
VDC	POTEN	0.00000E+000	T	DC Voltage (V)
FREQINIT	QUANT	3.00000E+005	Initial Freq. (Hz)
FREQFINAL	QUANT	1.00000E+000	Final Freq. (Hz)
PTSPERDEC	QUANT	1.00000E+001	Points/decade
VAC	QUANT	5.00000E+001	AC Voltage (mV rms)
AREA	QUANT	1.00000E+000	Sample Area (cm^2)
SPEED	SELECTOR	2	Optimize for:
ZGUESS	QUANT	1.00000E+003	Estimated Z (ohms)
EOC	QUANT	0	Open Circuit (V)
SEQUENCER	TOGGLE	TRUE	Run as Sequence
PSTATMODEL	IQUANT	5	Pstat Model
PSTATSECTION	LABEL	REF3000-16137	Pstat Section
PSTATSERIALNO	LABEL	16137	Pstat Serial Number
CTRLMODE	IQUANT	1	Control Mode
IESTAB	IQUANT	0	I/E Stability
CASPEED	IQUANT	1	Control Amp Speed
CONVENTION	IQUANT	1	Current Convention
ICHRANGE	IQUANT	2	Ich Range
ICHRANGEMODE	TOGGLE	F	Ich Auto Range
ICHOFFSETENABLE	TOGGLE	T	Ich Offset Enable
ICHOFFSET	QUANT	0	Ich Offset (V)
ICHFILTER	IQUANT	3	Ich Filter
VCHRANGE	IQUANT	2	Vch Range
VCHRANGEMODE	TOGGLE	F	Vch Auto Range
VCHOFFSETENABLE	TOGGLE	T	Vch Offset Enable
VCHOFFSET	QUANT	0	Vch Offset (V)
VCHFILTER	IQUANT	3	Vch Filter
ACHRANGE	IQUANT	2	Ach Range
ACHOFFSETENABLE	TOGGLE	F	Ach Offset Enable
ACHOFFSET	QUANT	0	Ach Offset (V)
ACHFILTER	IQUANT	3	Ach Filter
IERANGELOWERLIMIT	IQUANT	2	I/E Range Lower Limit
IERANGEMODE	TOGGLE	F	I/E AutoRange
IERANGE	IQUANT	11	I/E Range
POSFEEDENABLE	TOGGLE	F	Positive Feedback IR Comp
POSFEEDRESISTANCE	QUANT	0	Positive Feedback Resistance (ohm)
ACHSELECT	IQUANT	0	Ach Select
CABLEID	IQUANT	13	Cable ID
DCCALDATE	LABEL	7/31/2020	DC Calibration Date
ACCALDATE	LABEL	7/31/2020	AC Calibration Date
THERMOSELECT	IQUANT	1	Thermo Select
FRAMEWORKVERSION	QUANT	6.33	Framework Version
INSTRUMENTVERSION	LABEL	3.50	Instrument Version
COMPLIANCEVOLTAGE	IQUANT	0	Compliance Voltage
ZCURVE	TABLE
	Pt	Time	Freq	Zreal	Zimag	Zsig	Zmod	Zphz	Idc	Vdc	IERange
	#	s	Hz	ohm	ohm	V	ohm	°	A	V	#
	0	23	300046.9	955.725	-280.4827	1	996.033	-16.35571	-8.897513E-005	0.0036813	9
	1	39	238359.4	1149.135	-329.3748	1	1195.407	-15.99381	-2.844908E-006	-0.0019163	9
	2	61	189328.1	1276.382	-322.3653	1	1316.462	-14.1743	2.098462E-005	-0.0009494	9
	3	67	150421.9	1409.902	-304.5845	1	1442.427	-12.19041	9.194142E-005	-0.0026208	9
	4	76	119484.4	1525.767	-237.9261	1	1544.207	-8.863248	6.569626E-005	-0.0207213	8
	5	83	94921.88	1601.057	-208.6126	1	1614.59	-7.423636	2.203546E-007	0.0060044	8
	6	85	75421.88	1656.388	-186.0357	1	1666.802	-6.408268	2.949356E-007	0.0060668	8
	7	89	59859.37	1715.714	-164.3359	1	1723.566	-5.47126	2.274455E-007	0.0060955	8
	8	92	47578.12	1770.609	-140.369	1	1776.165	-4.53277	-1.535265E-005	0.0096084	8
	9	95	37828.12	1829.717	-120.8201	1	1833.702	-3.777879	2.139029E-005	-0.003067	8
	10	98	30046.88	1907.67	-108.034	1	1910.726	-3.241277	8.961199E-006	0.0030511	8
	11	103	23859.38	1995.92	-91.69796	1	1998.025	-2.630473	2.094262E-005	-0.0028721	8
	12	108	18984.38	2071.025	-83.70901	1	2072.716	-2.314585	2.439347E-005	-0.0067701	8
	13	111	15046.87	2147.162	-72.56235	1	2148.388	-1.935548	1.266751E-005	-0.007739	8
	14	115	11953.13	2224.082	-65.3334	1	2225.042	-1.682605	-1.564171E-005	0.0012999	8
	15	119	9515.62	2300.113	-57.18855	1	2300.823	-1.424273	2.182414E-005	-0.0029325	8
	16	122	7546.875	2388.2	-54.61048	1	2388.824	-1.309943	-1.832856E-005	0.0028757	8
	17	126	5928.309	2521.654	-41.87151	1	2522.001	-0.951296	-1.573359E-005	0.0012931	8
	18	132	4733.456	2651.31	-37.55483	1	2651.575	-0.8115196	-1.654224E-005	0.0101572	8
	19	137	3796.875	2782.276	-34.20621	1	2782.486	-0.7043777	-1.011825E-005	-0.0013073	8
	20	142	2987.132	2922.398	-44.6539	1	2922.739	-0.8754048	-1.971544E-005	0.0032152	8
	21	147	2390.625	3071.502	-32.45773	1	3071.674	-0.6054437	2.247222E-005	-0.0031697	8
	22	153	1884.191	3227.714	-38.16494	1	3227.939	-0.6774418	-1.591472E-005	0.0011878	8
	23	158	1516.544	3440.414	-35.44873	1	3440.597	-0.5903333	2.55256E-005	-0.0071474	8
	24	163	1193.986	3621.448	-21.29609	1	3621.511	-0.3369265	-2.462408E-005	0.0092905	8
	25	169	946.5144	3868.179	38.6203	1	3868.372	0.572028	2.627259E-005	-0.0002399	9
	26	173	751.7689	3969.796	-32.5429	1	3969.93	-0.4696788	1.75507E-005	-0.0002399	8
	27	176	597.4265	4147.642	-50.95886	1	4147.955	-0.7039134	-2.278248E-005	0.01059	8
	28	180	477.4305	4265.251	-47.83869	1	4265.519	-0.6425976	-3.189004E-007	0.0006566	8
	29	184	376.6741	4386.685	-49.84362	1	4386.968	-0.6509941	-7.455165E-008	0.0005905	7
	30	186	298.2954	4496.847	-59.79291	1	4497.245	-0.7617959	-8.2525E-008	0.0006165	7
	31	188	237.7717	4614.225	-72.74012	1	4614.798	-0.9031543	-8.143528E-008	0.0006666	7
	32	191	189.0121	4735.969	-88.53904	1	4736.796	-1.071021	-7.966027E-008	0.0006412	7
	33	193	150.2404	4863.395	-108.0315	1	4864.594	-1.272513	-7.98214E-008	0.0005767	7
	34	195	119.1737	4990.522	-133.6792	1	4992.313	-1.534393	-6.29683E-008	0.0006514	7
	35	198	95.0169	5126.456	-163.6923	1	5129.068	-1.828884	-8.417822E-008	0.0006216	7
	36	200	75.60484	5272.333	-201.3712	1	5276.177	-2.187289	-8.040354E-008	0.0005817	7
	37	203	54.50582	5428.554	-272.3284	1	5435.381	-2.871888	-6.440792E-008	0.0006221	7
	38	205	45.95588	5577.771	-316.0163	1	5586.716	-3.242704	-1.37794E-007	0.000601	7
	39	208	37.20238	5730.548	-386.9644	1	5743.598	-3.863125	-7.173827E-008	0.0005837	7
	40	210	30.04808	5891.72	-472.5021	1	5910.637	-4.585174	-9.271204E-008	0.0006665	7
	41	212	23.91582	6059.506	-586.8964	1	6087.862	-5.532155	-2.469218E-008	0.0006618	7
	42	215	18.60119	6245.429	-753.8206	1	6290.757	-6.882284	-2.800361E-007	0.0006651	7
	43	217	15.02404	6407.852	-891.2385	1	6469.534	-7.918208	-1.879715E-008	0.0006034	7
	44	219	12.01923	6604.186	-1083.981	1	6692.554	-9.32116	-2.272984E-007	0.0006847	7
	45	222	9.450605	6802.915	-1376.514	1	6940.781	-11.43889	3.516519E-008	0.0006632	7
	46	224	7.512019	7040.689	-1713.906	1	7246.294	-13.68134	8.493595E-009	0.0006675	7
	47	227	5.978954	7332.162	-2136.144	1	7636.996	-16.2429	-3.305892E-008	0.0006283	7
	48	230	4.734848	7670.449	-2648.013	1	8114.663	-19.04584	-8.303434E-008	0.0006713	7
	49	233	3.75601	8056.334	-3293.797	1	8703.655	-22.23698	-5.723568E-008	0.0005962	7
	50	237	3.004808	8474.968	-4055.956	1	9395.523	-25.57487	-9.011963E-008	0.0006674	7
	51	241	2.372217	9000.083	-5046.888	1	10318.55	-29.28197	-7.301077E-008	0.0006941	7
	52	245	1.878005	9613.78	-6290.08	1	11488.68	-33.19583	-8.524283E-008	0.0006005	7
	53	249	1.512097	10357.53	-7689.763	1	12900.03	-36.59138	-8.186275E-008	0.0007077	7
	54	255	1.201923	11294.24	-9579.08	1	14809.41	-40.30255	-8.618679E-008	0.0005877	7
	55	261	0.956633	12412.36	-11872.6	1	17176.3	-43.72673	-9.040413E-008	-2.516553E-005	7
