EXPLAIN
TAG	EISPOT
TITLE	LABEL	Potentiostatic EIS	Test Identifier
DATE	LABEL	8/5/2020	Date
TIME	LABEL	22:12:39	Time
NOTES	NOTES	1	Notes...
	
PSTAT	PSTAT	REF3000-16137	Potentiostat
VDC	POTEN	0.00000E+000	T	DC Voltage (V)
FREQINIT	QUANT	3.00000E+005	Initial Freq. (Hz)
FREQFINAL	QUANT	1.00000E+000	Final Freq. (Hz)
PTSPERDEC	QUANT	1.00000E+001	Points/decade
VAC	QUANT	5.00000E+001	AC Voltage (mV rms)
AREA	QUANT	1.00000E+000	Sample Area (cm^2)
SPEED	SELECTOR	2	Optimize for:
ZGUESS	QUANT	1.00000E+003	Estimated Z (ohms)
EOC	QUANT	0	Open Circuit (V)
SEQUENCER	TOGGLE	TRUE	Run as Sequence
PSTATMODEL	IQUANT	5	Pstat Model
PSTATSECTION	LABEL	REF3000-16137	Pstat Section
PSTATSERIALNO	LABEL	16137	Pstat Serial Number
CTRLMODE	IQUANT	1	Control Mode
IESTAB	IQUANT	0	I/E Stability
CASPEED	IQUANT	1	Control Amp Speed
CONVENTION	IQUANT	1	Current Convention
ICHRANGE	IQUANT	2	Ich Range
ICHRANGEMODE	TOGGLE	F	Ich Auto Range
ICHOFFSETENABLE	TOGGLE	T	Ich Offset Enable
ICHOFFSET	QUANT	0	Ich Offset (V)
ICHFILTER	IQUANT	3	Ich Filter
VCHRANGE	IQUANT	2	Vch Range
VCHRANGEMODE	TOGGLE	F	Vch Auto Range
VCHOFFSETENABLE	TOGGLE	T	Vch Offset Enable
VCHOFFSET	QUANT	0	Vch Offset (V)
VCHFILTER	IQUANT	3	Vch Filter
ACHRANGE	IQUANT	2	Ach Range
ACHOFFSETENABLE	TOGGLE	F	Ach Offset Enable
ACHOFFSET	QUANT	0	Ach Offset (V)
ACHFILTER	IQUANT	3	Ach Filter
IERANGELOWERLIMIT	IQUANT	2	I/E Range Lower Limit
IERANGEMODE	TOGGLE	F	I/E AutoRange
IERANGE	IQUANT	11	I/E Range
POSFEEDENABLE	TOGGLE	F	Positive Feedback IR Comp
POSFEEDRESISTANCE	QUANT	0	Positive Feedback Resistance (ohm)
ACHSELECT	IQUANT	0	Ach Select
CABLEID	IQUANT	13	Cable ID
DCCALDATE	LABEL	7/31/2020	DC Calibration Date
ACCALDATE	LABEL	7/31/2020	AC Calibration Date
THERMOSELECT	IQUANT	1	Thermo Select
FRAMEWORKVERSION	QUANT	6.33	Framework Version
INSTRUMENTVERSION	LABEL	3.50	Instrument Version
COMPLIANCEVOLTAGE	IQUANT	0	Compliance Voltage
ZCURVE	TABLE
	Pt	Time	Freq	Zreal	Zimag	Zsig	Zmod	Zphz	Idc	Vdc	IERange
	#	s	Hz	ohm	ohm	V	ohm	°	A	V	#
	0	10	300046.9	3.55251	1.245558	1	3.764538	19.32136	-7.37443E-005	3.188552E-005	10
	1	14	238359.4	3.544495	0.972561	1	3.675502	15.34356	-2.404304E-005	-0.000475	10
	2	17	189328.1	3.542705	0.7538499	1	3.622023	12.01276	-7.922466E-005	-1.404825E-005	10
	3	19	150421.9	3.548732	0.5745772	1	3.594946	9.196979	2.441284E-005	0.0001635	10
	4	22	119484.4	3.543899	0.4286413	1	3.569727	6.896533	3.310074E-005	0.0004116	10
	5	24	94921.88	3.550896	0.3168479	1	3.565005	5.099021	3.439886E-006	0.0004629	10
	6	27	75421.88	3.556171	0.2047439	1	3.56206	3.295124	-4.250418E-006	0.0005181	10
	7	29	59859.37	3.562919	0.1037285	1	3.564429	1.6676	1.827857E-005	0.0005242	10
	8	32	47578.12	3.570938	0.0107736	1	3.570954	0.1728628	-2.022221E-005	0.000581	10
	9	34	37828.12	3.581089	-0.0797272	1	3.581977	-1.275388	1.362226E-005	0.0006166	10
	10	37	30046.88	3.592359	-0.173314	1	3.596537	-2.762104	-2.891842E-005	0.0006294	10
	11	39	23859.38	3.605131	-0.2741044	1	3.615536	-4.347934	2.455886E-005	0.000642	10
	12	42	18984.38	3.619555	-0.3852391	1	3.639998	-6.075275	-1.535582E-005	0.0006464	10
	13	44	15046.87	3.636247	-0.5156925	1	3.672633	-8.071856	1.819221E-005	0.0006327	10
	14	46	11953.13	3.65497	-0.6683986	1	3.715583	-10.36339	2.120841E-005	0.0006499	10
	15	49	9515.62	3.677068	-0.8501543	1	3.774068	-13.01829	1.037409E-005	0.0006401	10
	16	51	7546.875	3.703317	-1.074697	1	3.856103	-16.18265	1.223725E-005	0.0006496	10
	17	53	5928.309	3.73627	-1.363612	1	3.977329	-20.05037	2.300818E-005	0.0006575	10
	18	56	4733.456	3.774216	-1.696236	1	4.137865	-24.20046	1.63908E-005	0.0006613	10
	19	58	3796.875	3.820079	-2.095898	1	4.357269	-28.75151	-1.263284E-006	0.0006974	10
	20	60	2987.132	3.880869	-2.632827	1	4.689662	-34.15342	-1.199052E-005	0.0006691	10
	21	62	2390.625	3.95295	-3.248732	1	5.116646	-39.41508	1.891477E-005	0.0006493	10
	22	65	1884.191	4.046096	-4.069384	1	5.738534	-45.16441	-2.609099E-005	0.000689	10
	23	67	1516.544	4.155689	-4.989699	1	6.4936	-50.21065	2.231836E-005	0.0006509	10
	24	69	1193.986	4.307042	-6.244753	1	7.58601	-55.40575	1.594985E-005	0.0006651	10
	25	72	946.5144	4.488641	-7.762958	1	8.967241	-59.96295	2.357524E-005	0.0006594	10
	26	74	751.7689	4.735779	-9.6194	1	10.72196	-63.78827	4.137743E-006	0.0006476	10
	27	76	597.4265	5.029752	-11.91065	1	12.92911	-67.10614	1.610853E-005	0.0006673	10
	28	79	477.4305	5.412055	-14.66781	1	15.63442	-69.7472	-2.076406E-006	0.0006809	10
	29	81	376.6741	5.921817	-18.26359	1	19.19965	-72.03514	-1.87332E-006	0.0006837	10
	30	83	298.2954	6.565678	-22.6472	1	23.57973	-73.83253	-1.25278E-006	0.0006799	10
	31	86	237.7717	7.361966	-27.89583	1	28.85092	-75.21619	-1.644285E-006	0.0006763	10
	32	88	189.0121	8.381702	-34.41464	1	35.42062	-76.31207	-1.97028E-006	0.000682	10
	33	90	150.2404	9.65727	-42.37609	1	43.46258	-77.16187	1.951624E-006	7.846915E-005	9
	34	93	119.1737	11.29082	-52.30147	1	53.50632	-77.81796	2.00566E-006	7.760275E-005	9
	35	95	95.0169	13.28794	-64.20602	1	65.56663	-78.30727	1.53173E-006	0.0001216	9
	36	98	75.60484	15.79874	-78.92891	1	80.49455	-78.68102	1.858052E-006	7.712621E-005	9
	37	100	54.50582	20.51517	-105.9688	1	107.9364	-79.04329	1.808115E-006	7.303275E-005	9
	38	103	45.95588	23.63153	-123.5617	1	125.8012	-79.17277	2.022807E-006	7.980606E-005	9
	39	105	37.20238	28.26838	-149.3371	1	151.989	-79.28117	2.003705E-006	7.690958E-005	9
	40	107	30.04808	34.09523	-180.8901	1	184.0753	-79.32578	1.783866E-006	8.82278E-005	9
	41	110	23.91582	41.74655	-221.9698	1	225.8614	-79.34863	1.903128E-006	7.300929E-005	9
	42	112	18.60119	52.4754	-277.6572	1	282.5725	-79.29771	1.870318E-006	7.52591E-005	9
	43	115	15.02404	63.98896	-335.9289	1	341.969	-79.21529	2.041733E-006	7.519447E-005	9
	44	117	12.01923	79.12305	-409.8566	1	417.4241	-79.07343	2.033739E-006	8.012886E-005	9
	45	119	9.450605	99.29	-505.4493	1	515.1092	-78.88638	5.867881E-007	0.0006491	8
	46	122	7.512019	124.2057	-619.3804	1	631.7113	-78.66075	5.248626E-007	0.0006713	8
	47	124	5.978954	156.1625	-757.3895	1	773.3211	-78.34972	4.86204E-007	0.0006641	8
	48	127	4.734848	198.1808	-930.8021	1	951.666	-77.98041	5.534743E-007	0.0006541	8
	49	131	3.75601	251.4132	-1140.282	1	1167.669	-77.56616	4.98641E-007	0.0006606	8
	50	134	3.004808	318.1791	-1384.359	1	1420.453	-77.05602	5.596654E-007	0.0006256	8
	51	138	2.372217	411.5466	-1699.55	1	1748.668	-76.38783	4.940342E-007	0.0005763	8
	52	142	1.878005	529.0405	-2078.637	1	2144.905	-75.72064	5.348163E-007	0.0006613	8
	53	147	1.512097	670.798	-2495.374	1	2583.963	-74.95364	5.009475E-007	0.0006428	8
	54	152	1.201923	871.588	-3040.811	1	3163.257	-74.0061	5.34658E-007	0.0006818	8
	55	158	0.956633	1133.38	-3679.938	1	3850.519	-72.88176	4.660514E-007	1.691188E-005	8
