EXPLAIN
TAG	EISPOT
TITLE	LABEL	Potentiostatic EIS	Test Identifier
DATE	LABEL	8/5/2020	Date
TIME	LABEL	22:34:58	Time
NOTES	NOTES	1	Notes...
	
PSTAT	PSTAT	REF3000-16137	Potentiostat
VDC	POTEN	0.00000E+000	T	DC Voltage (V)
FREQINIT	QUANT	3.00000E+005	Initial Freq. (Hz)
FREQFINAL	QUANT	1.00000E+000	Final Freq. (Hz)
PTSPERDEC	QUANT	1.00000E+001	Points/decade
VAC	QUANT	5.00000E+001	AC Voltage (mV rms)
AREA	QUANT	1.00000E+000	Sample Area (cm^2)
SPEED	SELECTOR	2	Optimize for:
ZGUESS	QUANT	1.00000E+003	Estimated Z (ohms)
EOC	QUANT	0	Open Circuit (V)
SEQUENCER	TOGGLE	TRUE	Run as Sequence
PSTATMODEL	IQUANT	5	Pstat Model
PSTATSECTION	LABEL	REF3000-16137	Pstat Section
PSTATSERIALNO	LABEL	16137	Pstat Serial Number
CTRLMODE	IQUANT	1	Control Mode
IESTAB	IQUANT	0	I/E Stability
CASPEED	IQUANT	1	Control Amp Speed
CONVENTION	IQUANT	1	Current Convention
ICHRANGE	IQUANT	2	Ich Range
ICHRANGEMODE	TOGGLE	F	Ich Auto Range
ICHOFFSETENABLE	TOGGLE	T	Ich Offset Enable
ICHOFFSET	QUANT	0	Ich Offset (V)
ICHFILTER	IQUANT	3	Ich Filter
VCHRANGE	IQUANT	2	Vch Range
VCHRANGEMODE	TOGGLE	F	Vch Auto Range
VCHOFFSETENABLE	TOGGLE	T	Vch Offset Enable
VCHOFFSET	QUANT	0	Vch Offset (V)
VCHFILTER	IQUANT	3	Vch Filter
ACHRANGE	IQUANT	2	Ach Range
ACHOFFSETENABLE	TOGGLE	F	Ach Offset Enable
ACHOFFSET	QUANT	0	Ach Offset (V)
ACHFILTER	IQUANT	3	Ach Filter
IERANGELOWERLIMIT	IQUANT	2	I/E Range Lower Limit
IERANGEMODE	TOGGLE	F	I/E AutoRange
IERANGE	IQUANT	11	I/E Range
POSFEEDENABLE	TOGGLE	F	Positive Feedback IR Comp
POSFEEDRESISTANCE	QUANT	0	Positive Feedback Resistance (ohm)
ACHSELECT	IQUANT	0	Ach Select
CABLEID	IQUANT	13	Cable ID
DCCALDATE	LABEL	7/31/2020	DC Calibration Date
ACCALDATE	LABEL	7/31/2020	AC Calibration Date
THERMOSELECT	IQUANT	1	Thermo Select
FRAMEWORKVERSION	QUANT	6.33	Framework Version
INSTRUMENTVERSION	LABEL	3.50	Instrument Version
COMPLIANCEVOLTAGE	IQUANT	0	Compliance Voltage
ZCURVE	TABLE
	Pt	Time	Freq	Zreal	Zimag	Zsig	Zmod	Zphz	Idc	Vdc	IERange
	#	s	Hz	ohm	ohm	V	ohm	°	A	V	#
	0	7	300046.9	97.1838	-0.5727566	1	97.1855	-0.3376711	-3.584359E-005	-0.0005687	9
	1	10	238359.4	98.5449	-0.4413406	1	98.5459	-0.2566016	-6.624949E-005	0.0025651	9
	2	13	189328.1	100.4185	-0.4855307	1	100.4197	-0.277027	6.928512E-005	-0.0017632	9
	3	16	150421.9	101.7501	-0.695967	1	101.7524	-0.3918951	-7.587876E-005	0.0019839	9
	4	18	119484.4	103.2041	-0.5938767	1	103.2059	-0.3296985	-5.47259E-005	0.0011167	9
	5	21	94921.88	104.642	-0.3804517	1	104.6427	-0.208312	2.111469E-005	-0.0007925	9
	6	23	75421.88	106.044	-0.4912098	1	106.0451	-0.2653998	-1.963762E-005	0.0004758	9
	7	26	59859.37	107.5444	-0.5474706	1	107.5458	-0.2916701	-1.925219E-005	0.0004262	9
	8	28	47578.12	109.008	-0.5856675	1	109.0096	-0.3078302	2.123074E-005	-0.0001313	9
	9	31	37828.12	110.4687	-0.6269809	1	110.4704	-0.325187	-1.779203E-005	0.0004052	9
	10	33	30046.88	112.0378	-0.7264104	1	112.0401	-0.3714789	1.239106E-005	0.0001379	9
	11	36	23859.38	113.4927	-0.8245595	1	113.4957	-0.4162642	2.583915E-005	-0.0006289	9
	12	38	18984.38	114.9523	-0.9411739	1	114.9562	-0.4690996	7.036302E-006	-0.000527	9
	13	41	15046.87	116.3773	-1.240673	1	116.3839	-0.6107945	-1.621665E-005	0.0001969	9
	14	43	11953.13	117.8596	-1.526264	1	117.8695	-0.7419302	-1.092942E-005	8.1192E-005	9
	15	45	9515.62	119.4358	-1.644865	1	119.4472	-0.7890248	-1.541266E-005	0.0009174	9
	16	47	7546.875	120.7355	-1.999301	1	120.752	-0.9486944	2.393212E-005	-0.0002999	9
	17	50	5928.309	122.4367	-2.460139	1	122.4614	-1.151098	-1.783839E-005	0.0003699	9
	18	52	4733.456	124.156	-2.951662	1	124.1911	-1.361882	-6.074583E-006	0.0007637	9
	19	54	3796.875	125.6778	-3.571036	1	125.7285	-1.627577	-5.887648E-006	0.000816	9
	20	57	2987.132	127.585	-4.399998	1	127.6608	-1.975166	2.394805E-005	-0.0002462	9
	21	59	2390.625	129.2269	-5.437003	1	129.3412	-2.409201	1.307159E-005	0.0002083	9
	22	61	1884.191	130.9296	-6.710491	1	131.1015	-2.933993	-1.888995E-005	0.0009068	9
	23	64	1516.544	133.0144	-8.26508	1	133.271	-3.555601	-9.903024E-006	-1.068948E-005	9
	24	66	1193.986	134.8253	-10.28732	1	135.2172	-4.363279	2.419889E-005	-0.0002651	9
	25	68	946.5144	136.9636	-12.83974	1	137.5641	-5.355577	2.667681E-005	-0.0004397	9
	26	71	751.7689	138.8831	-15.84425	1	139.784	-6.508358	-2.191304E-005	0.0006822	9
	27	73	597.4265	141.1384	-19.75215	1	142.5138	-7.966735	2.148028E-005	-0.0007633	9
	28	75	477.4305	143.494	-24.22502	1	145.5245	-9.58247	1.851829E-006	8.168267E-005	9
	29	78	376.6741	146.0052	-30.24763	1	149.1055	-11.70429	1.860595E-006	7.089286E-005	9
	30	80	298.2954	148.7008	-37.63244	1	153.3888	-14.20194	1.80166E-006	7.074547E-005	9
	31	82	237.7717	151.6848	-46.55085	1	158.6671	-17.06083	1.654318E-006	8.089557E-005	9
	32	85	189.0121	154.9757	-57.73238	1	165.3798	-20.43164	1.84737E-006	7.532739E-005	9
	33	87	150.2404	158.6613	-71.57481	1	174.0585	-24.28094	1.728075E-006	7.628773E-005	9
	34	90	119.1737	162.8439	-88.88234	1	185.5214	-28.6263	1.841902E-006	8.015174E-005	9
	35	92	95.0169	167.5844	-109.792	1	200.3468	-33.2306	1.813904E-006	7.682195E-005	9
	36	95	75.60484	173.1905	-135.8052	1	220.0863	-38.10135	1.841882E-006	7.214188E-005	9
	37	97	54.50582	181.8431	-183.8184	1	258.5655	-45.30949	1.627173E-006	7.790584E-005	9
	38	100	45.95588	188.324	-215.3554	1	286.0837	-48.83096	1.81189E-006	7.813422E-005	9
	39	102	37.20238	196.7657	-261.7009	1	327.4204	-53.0615	1.795272E-006	7.847207E-005	9
	40	104	30.04808	206.7318	-318.6656	1	379.8497	-57.02683	1.872841E-006	8.305866E-005	9
	41	107	23.91582	218.1898	-391.552	1	448.2407	-60.87155	9.711786E-008	0.0006551	8
	42	109	18.60119	233.8809	-493.3645	1	545.9935	-64.63657	1.063279E-007	0.0006595	8
	43	111	15.02404	250.1521	-600.5417	1	650.5586	-67.38612	8.868714E-008	0.0006628	8
	44	114	12.01923	270.4862	-737.7403	1	785.763	-69.86497	1.414433E-007	0.0006635	8
	45	116	9.450605	296.1391	-921.1132	1	967.547	-72.17734	1.068084E-007	0.0006539	8
	46	119	7.512019	326.5459	-1138.552	1	1184.455	-73.99668	7.786971E-008	0.0006411	8
	47	121	5.978954	362.9448	-1406.478	1	1452.552	-75.53036	1.172756E-007	0.0006487	8
	48	124	4.734848	409.287	-1747.234	1	1794.531	-76.81626	1.254847E-007	0.0006449	8
	49	128	3.75601	464.3554	-2166.899	1	2216.095	-77.90474	8.317247E-008	0.0006595	8
	50	131	3.004808	528.54	-2665.948	1	2717.837	-78.78619	1.270885E-007	0.0006183	8
	51	135	2.372217	610.7073	-3320.067	1	3375.768	-79.57728	1.123469E-007	0.0006207	8
	52	139	1.878005	718.881	-4133.743	1	4195.786	-80.13461	9.373053E-008	0.0006552	8
	53	144	1.512097	842.3171	-5073.811	1	5143.253	-80.57413	-3.406623E-009	0.0005206	7
	54	149	1.201923	993.461	-6297.314	1	6375.197	-81.03493	-2.945114E-009	0.0006472	7
	55	155	0.956633	1176.617	-7804.963	1	7893.154	-81.42708	-4.786622E-009	-1.084988E-005	7
