EXPLAIN
TAG	EISPOT
TITLE	LABEL	Potentiostatic EIS	Test Identifier
DATE	LABEL	8/5/2020	Date
TIME	LABEL	22:21:04	Time
NOTES	NOTES	1	Notes...
	
PSTAT	PSTAT	REF3000-16137	Potentiostat
VDC	POTEN	0.00000E+000	T	DC Voltage (V)
FREQINIT	QUANT	3.00000E+005	Initial Freq. (Hz)
FREQFINAL	QUANT	1.00000E+000	Final Freq. (Hz)
PTSPERDEC	QUANT	1.00000E+001	Points/decade
VAC	QUANT	5.00000E+001	AC Voltage (mV rms)
AREA	QUANT	1.00000E+000	Sample Area (cm^2)
SPEED	SELECTOR	2	Optimize for:
ZGUESS	QUANT	1.00000E+003	Estimated Z (ohms)
EOC	QUANT	0	Open Circuit (V)
SEQUENCER	TOGGLE	TRUE	Run as Sequence
PSTATMODEL	IQUANT	5	Pstat Model
PSTATSECTION	LABEL	REF3000-16137	Pstat Section
PSTATSERIALNO	LABEL	16137	Pstat Serial Number
CTRLMODE	IQUANT	1	Control Mode
IESTAB	IQUANT	0	I/E Stability
CASPEED	IQUANT	1	Control Amp Speed
CONVENTION	IQUANT	1	Current Convention
ICHRANGE	IQUANT	2	Ich Range
ICHRANGEMODE	TOGGLE	F	Ich Auto Range
ICHOFFSETENABLE	TOGGLE	T	Ich Offset Enable
ICHOFFSET	QUANT	0	Ich Offset (V)
ICHFILTER	IQUANT	3	Ich Filter
VCHRANGE	IQUANT	2	Vch Range
VCHRANGEMODE	TOGGLE	F	Vch Auto Range
VCHOFFSETENABLE	TOGGLE	T	Vch Offset Enable
VCHOFFSET	QUANT	0	Vch Offset (V)
VCHFILTER	IQUANT	3	Vch Filter
ACHRANGE	IQUANT	2	Ach Range
ACHOFFSETENABLE	TOGGLE	F	Ach Offset Enable
ACHOFFSET	QUANT	0	Ach Offset (V)
ACHFILTER	IQUANT	3	Ach Filter
IERANGELOWERLIMIT	IQUANT	2	I/E Range Lower Limit
IERANGEMODE	TOGGLE	F	I/E AutoRange
IERANGE	IQUANT	11	I/E Range
POSFEEDENABLE	TOGGLE	F	Positive Feedback IR Comp
POSFEEDRESISTANCE	QUANT	0	Positive Feedback Resistance (ohm)
ACHSELECT	IQUANT	0	Ach Select
CABLEID	IQUANT	13	Cable ID
DCCALDATE	LABEL	7/31/2020	DC Calibration Date
ACCALDATE	LABEL	7/31/2020	AC Calibration Date
THERMOSELECT	IQUANT	1	Thermo Select
FRAMEWORKVERSION	QUANT	6.33	Framework Version
INSTRUMENTVERSION	LABEL	3.50	Instrument Version
COMPLIANCEVOLTAGE	IQUANT	0	Compliance Voltage
ZCURVE	TABLE
	Pt	Time	Freq	Zreal	Zimag	Zsig	Zmod	Zphz	Idc	Vdc	IERange
	#	s	Hz	ohm	ohm	V	ohm	°	A	V	#
	0	10	300046.9	6.328206	1.209292	1	6.442715	10.81854	-0.0001063	0.0001468	10
	1	13	238359.4	6.363257	0.9382411	1	6.432055	8.387637	2.362457E-005	-5.713541E-005	10
	2	16	189328.1	6.387281	0.7275292	1	6.428581	6.498145	-2.430216E-005	0.0002112	10
	3	19	150421.9	6.416859	0.5601713	1	6.441263	4.98909	4.836262E-005	0.0004506	10
	4	21	119484.4	6.447035	0.4043473	1	6.459703	3.588795	-2.929068E-005	0.0004592	10
	5	24	94921.88	6.483429	0.3019419	1	6.490457	2.666414	-2.655891E-005	0.0005431	10
	6	26	75421.88	6.513992	0.1840796	1	6.516593	1.618697	5.291226E-006	0.0005404	10
	7	29	59859.37	6.54868	0.0763546	1	6.549125	0.6680124	-2.959498E-005	0.0006052	10
	8	31	47578.12	6.586806	-0.0240544	1	6.58685	-0.2092382	-1.308421E-005	0.0006096	10
	9	34	37828.12	6.628166	-0.1218717	1	6.629286	-1.053375	1.655083E-005	0.0005993	10
	10	36	30046.88	6.670918	-0.2218355	1	6.674606	-1.904618	-2.4163E-005	0.0006509	10
	11	39	23859.38	6.713468	-0.3304226	1	6.721594	-2.817702	-2.830016E-005	0.0006504	10
	12	41	18984.38	6.756554	-0.4517663	1	6.771641	-3.825298	-3.157956E-005	0.0006626	10
	13	43	15046.87	6.802497	-0.5954118	1	6.828506	-5.002261	2.559855E-005	0.0006619	10
	14	46	11953.13	6.85109	-0.7649471	1	6.893662	-6.370879	1.822652E-005	0.0006304	10
	15	48	9515.62	6.903424	-0.967795	1	6.970932	-7.980321	-3.138272E-005	0.0006579	10
	16	50	7546.875	6.960945	-1.217647	1	7.066641	-9.92211	-2.134995E-005	0.000706	10
	17	53	5928.309	7.025849	-1.540908	1	7.192841	-12.37024	1.643911E-005	0.0006586	10
	18	55	4733.456	7.096895	-1.912578	1	7.350093	-15.08261	-1.154142E-005	0.0006648	10
	19	57	3796.875	7.173913	-2.360314	1	7.552226	-18.2119	1.233011E-005	0.0006485	10
	20	60	2987.132	7.269276	-2.963011	1	7.849956	-22.17617	1.191293E-005	0.0006342	10
	21	62	2390.625	7.374429	-3.659846	1	8.232659	-26.39469	-2.068912E-005	0.0006652	10
	22	64	1884.191	7.504665	-4.576818	1	8.79018	-31.37748	2.140356E-005	0.0006593	10
	23	66	1516.544	7.650896	-5.613934	1	9.489597	-36.26979	1.198553E-005	0.0006262	10
	24	69	1193.986	7.83954	-7.028153	1	10.52869	-41.87625	-2.600389E-005	0.0006987	10
	25	71	946.5144	8.072371	-8.727474	1	11.88831	-47.2331	1.812478E-005	0.0006349	10
	26	74	751.7689	8.339645	-10.83308	1	13.67133	-52.40978	-3.983144E-006	0.0006514	10
	27	76	597.4265	8.668768	-13.42547	1	15.98095	-57.14984	4.604026E-006	0.0006406	10
	28	78	477.4305	9.062181	-16.55786	1	18.87554	-61.30794	-1.696262E-006	0.00068	10
	29	80	376.6741	9.57664	-20.65812	1	22.76993	-65.12862	-1.06095E-006	0.0006729	10
	30	83	298.2954	10.20866	-25.68141	1	27.63605	-68.3216	-1.344789E-006	0.0006769	10
	31	85	237.7717	10.98106	-31.73673	1	33.58279	-70.91414	-1.236005E-006	0.0006775	10
	32	88	189.0121	11.95751	-39.30507	1	41.0837	-73.07903	-1.549134E-006	0.0006774	10
	33	90	150.2404	13.1692	-48.60989	1	50.36218	-74.84151	1.959371E-006	7.78246E-005	9
	34	92	119.1737	14.73211	-60.2832	1	62.05723	-76.26713	2.017568E-006	8.266162E-005	9
	35	95	95.0169	16.66133	-74.37	1	76.2135	-77.37237	2.004568E-006	7.418216E-005	9
	36	97	75.60484	19.11462	-91.88729	1	93.85437	-78.24878	1.962029E-006	7.93216E-005	9
	37	100	54.50582	23.77168	-124.2111	1	126.4654	-79.16566	1.871684E-006	7.257355E-005	9
	38	102	45.95588	26.90013	-145.3547	1	147.8229	-79.51516	2.025227E-006	7.579845E-005	9
	39	105	37.20238	31.55865	-176.4278	1	179.2281	-79.85843	1.993648E-006	7.470253E-005	9
	40	107	30.04808	37.33202	-214.4642	1	217.6891	-80.1254	2.041853E-006	6.758338E-005	9
	41	109	23.91582	44.86878	-264.0609	1	267.8458	-80.35651	1.819071E-006	7.739996E-005	9
	42	112	18.60119	55.43792	-332.2129	1	336.8068	-80.52608	1.994523E-006	8.51419E-005	9
	43	114	15.02404	66.49102	-403.4453	1	408.8878	-80.64133	2.128419E-006	7.945143E-005	9
	44	116	12.01923	80.5924	-492.4114	1	498.963	-80.70488	3.565041E-007	0.0006526	8
	45	119	9.450605	99.5979	-612.9133	1	620.9528	-80.77016	3.934048E-007	0.0006632	8
	46	121	7.512019	122.4371	-755.1151	1	764.9769	-80.79001	4.342122E-007	0.0006388	8
	47	124	5.978954	151.0229	-929.219	1	941.4116	-80.76862	4.858889E-007	0.0006522	8
	48	127	4.734848	186.7423	-1149.227	1	1164.301	-80.77046	4.332186E-007	0.00064	8
	49	130	3.75601	232.2434	-1418.556	1	1437.442	-80.70213	4.981187E-007	0.0006717	8
	50	134	3.004808	287.1202	-1736.569	1	1760.145	-80.61179	4.526191E-007	0.0006872	8
	51	137	2.372217	359.9106	-2151.037	1	2180.939	-80.50128	4.420409E-007	0.0006919	8
	52	142	1.878005	456.0072	-2660.938	1	2699.729	-80.27563	4.542866E-007	0.0006332	8
	53	146	1.512097	567.9861	-3238.821	1	3288.247	-80.05328	4.686608E-007	0.0007538	8
	54	152	1.201923	712.2759	-3993.86	1	4056.877	-79.88802	4.723634E-007	0.0006274	8
	55	158	0.956633	897.7566	-4923.089	1	5004.276	-79.66531	3.214915E-008	-1.067618E-005	7
