EXPLAIN
TAG	EISPOT
TITLE	LABEL	Potentiostatic EIS	Test Identifier
DATE	LABEL	8/5/2020	Date
TIME	LABEL	22:07:00	Time
NOTES	NOTES	1	Notes...
	
PSTAT	PSTAT	REF3000-16137	Potentiostat
VDC	POTEN	0.00000E+000	T	DC Voltage (V)
FREQINIT	QUANT	3.00000E+005	Initial Freq. (Hz)
FREQFINAL	QUANT	1.00000E+000	Final Freq. (Hz)
PTSPERDEC	QUANT	1.00000E+001	Points/decade
VAC	QUANT	5.00000E+001	AC Voltage (mV rms)
AREA	QUANT	1.00000E+000	Sample Area (cm^2)
SPEED	SELECTOR	2	Optimize for:
ZGUESS	QUANT	1.00000E+003	Estimated Z (ohms)
EOC	QUANT	0	Open Circuit (V)
SEQUENCER	TOGGLE	TRUE	Run as Sequence
PSTATMODEL	IQUANT	5	Pstat Model
PSTATSECTION	LABEL	REF3000-16137	Pstat Section
PSTATSERIALNO	LABEL	16137	Pstat Serial Number
CTRLMODE	IQUANT	1	Control Mode
IESTAB	IQUANT	0	I/E Stability
CASPEED	IQUANT	1	Control Amp Speed
CONVENTION	IQUANT	1	Current Convention
ICHRANGE	IQUANT	2	Ich Range
ICHRANGEMODE	TOGGLE	F	Ich Auto Range
ICHOFFSETENABLE	TOGGLE	T	Ich Offset Enable
ICHOFFSET	QUANT	0	Ich Offset (V)
ICHFILTER	IQUANT	3	Ich Filter
VCHRANGE	IQUANT	2	Vch Range
VCHRANGEMODE	TOGGLE	F	Vch Auto Range
VCHOFFSETENABLE	TOGGLE	T	Vch Offset Enable
VCHOFFSET	QUANT	0	Vch Offset (V)
VCHFILTER	IQUANT	3	Vch Filter
ACHRANGE	IQUANT	2	Ach Range
ACHOFFSETENABLE	TOGGLE	F	Ach Offset Enable
ACHOFFSET	QUANT	0	Ach Offset (V)
ACHFILTER	IQUANT	3	Ach Filter
IERANGELOWERLIMIT	IQUANT	2	I/E Range Lower Limit
IERANGEMODE	TOGGLE	F	I/E AutoRange
IERANGE	IQUANT	11	I/E Range
POSFEEDENABLE	TOGGLE	F	Positive Feedback IR Comp
POSFEEDRESISTANCE	QUANT	0	Positive Feedback Resistance (ohm)
ACHSELECT	IQUANT	0	Ach Select
CABLEID	IQUANT	13	Cable ID
DCCALDATE	LABEL	7/31/2020	DC Calibration Date
ACCALDATE	LABEL	7/31/2020	AC Calibration Date
THERMOSELECT	IQUANT	1	Thermo Select
FRAMEWORKVERSION	QUANT	6.33	Framework Version
INSTRUMENTVERSION	LABEL	3.50	Instrument Version
COMPLIANCEVOLTAGE	IQUANT	0	Compliance Voltage
ZCURVE	TABLE
	Pt	Time	Freq	Zreal	Zimag	Zsig	Zmod	Zphz	Idc	Vdc	IERange
	#	s	Hz	ohm	ohm	V	ohm	°	A	V	#
	0	10	300046.9	2.933305	1.202695	1	3.170293	22.29429	-1.802159E-005	-0.0001551	11
	1	13	238359.4	2.965067	0.9461342	1	3.112361	17.69756	6.983241E-005	-3.072212E-006	11
	2	17	189328.1	2.982976	0.7386758	1	3.073075	13.90839	3.861942E-008	0.0001919	11
	3	19	150421.9	3.010567	0.5596553	1	3.062144	10.5309	4.288144E-005	0.0004655	11
	4	22	119484.4	3.041945	0.4218248	1	3.071053	7.894826	-2.968015E-005	0.000473	11
	5	24	94921.88	3.059319	0.3009109	1	3.074082	5.617473	3.198513E-005	0.0005957	11
	6	27	75421.88	3.074334	0.1963	1	3.080595	3.653447	-4.161158E-005	0.0006091	11
	7	29	59859.37	3.086768	0.1009321	1	3.088417	1.872809	2.815688E-005	0.0006548	11
	8	32	47578.12	3.100289	0.0136046	1	3.100319	0.2514213	-4.322951E-005	0.0006119	11
	9	34	37828.12	3.113744	-0.0723363	1	3.114584	-1.330815	3.858154E-005	0.0007032	11
	10	37	30046.88	3.127586	-0.1605595	1	3.131705	-2.938788	6.799563E-006	0.0007054	11
	11	39	23859.38	3.141769	-0.2556836	1	3.152156	-4.652595	-5.622345E-006	0.0006926	11
	12	42	18984.38	3.155733	-0.3610348	1	3.176318	-6.526605	1.409946E-005	0.0006955	11
	13	44	15046.87	3.173975	-0.4864436	1	3.211035	-8.713354	-3.854933E-005	0.0006485	11
	14	46	11953.13	3.197721	-0.6336008	1	3.259888	-11.2075	-2.012902E-005	0.0007496	11
	15	49	9515.62	3.223469	-0.8096706	1	3.3236	-14.09985	-2.858375E-005	0.0006587	11
	16	51	7546.875	3.257534	-1.027347	1	3.415694	-17.50401	-1.819317E-005	0.0007075	11
	17	53	5928.309	3.290051	-1.305846	1	3.539727	-21.6485	3.46095E-005	0.0007265	11
	18	55	4733.456	3.328658	-1.627551	1	3.705251	-26.05637	-1.862124E-005	0.0006769	10
	19	58	3796.875	3.369939	-2.013053	1	3.925413	-30.85223	4.476892E-006	0.0006448	10
	20	60	2987.132	3.426005	-2.531726	1	4.259947	-36.46341	1.364182E-005	0.0006443	10
	21	62	2390.625	3.492706	-3.129565	1	4.689688	-41.86126	6.374386E-006	0.0006529	10
	22	65	1884.191	3.578428	-3.924277	1	5.310847	-47.63928	2.542758E-005	0.0006586	10
	23	67	1516.544	3.681182	-4.82048	1	6.065321	-52.63267	2.312304E-005	0.0006556	10
	24	69	1193.986	3.822245	-6.039153	1	7.147092	-57.66983	2.27414E-005	0.0006513	10
	25	72	946.5144	3.991816	-7.51469	1	8.509122	-62.02268	-9.058807E-006	0.0006988	10
	26	74	751.7689	4.214718	-9.316918	1	10.22589	-65.65931	1.293915E-005	0.0006487	10
	27	77	597.4265	4.495585	-11.54382	1	12.3883	-68.72224	-9.78077E-006	0.0006665	10
	28	79	477.4305	4.841907	-14.22724	1	15.02859	-71.2052	-5.374576E-007	0.0006752	10
	29	81	376.6741	5.315534	-17.72726	1	18.50705	-73.3086	-7.56219E-007	0.000674	10
	30	83	298.2954	5.915366	-21.99237	1	22.77402	-74.94525	-4.851448E-006	0.0007237	10
	31	86	237.7717	6.661412	-27.10111	1	27.90779	-76.19055	-7.761194E-007	0.000672	10
	32	88	189.0121	7.621364	-33.45907	1	34.3161	-77.16801	-3.89746E-007	0.0006783	10
	33	91	150.2404	8.835235	-41.27616	1	42.21117	-77.91806	-5.943899E-007	0.0006665	10
	34	93	119.1737	10.36853	-50.9179	1	51.96286	-78.4901	1.928903E-006	7.844283E-005	9
	35	95	95.0169	12.27207	-62.54422	1	63.73683	-78.89878	1.859487E-006	7.322235E-005	9
	36	98	75.60484	14.66847	-76.92142	1	78.30753	-79.20365	1.840087E-006	7.167326E-005	9
	37	100	54.50582	19.20294	-103.3716	1	105.1401	-79.47634	1.849712E-006	6.275944E-005	9
	38	103	45.95588	22.25323	-120.5802	1	122.6165	-79.54365	2.01093E-006	7.708728E-005	9
	39	105	37.20238	26.82895	-145.7647	1	148.2131	-79.57105	1.92705E-006	7.028859E-005	9
	40	108	30.04808	32.63724	-176.7153	1	179.7039	-79.53606	1.827938E-006	7.568931E-005	9
	41	110	23.91582	40.30658	-216.4391	1	220.1602	-79.45087	1.905627E-006	7.199369E-005	9
	42	112	18.60119	51.43936	-270.8258	1	275.6676	-79.24561	1.850788E-006	7.584524E-005	9
	43	115	15.02404	63.38032	-327.402	1	333.4804	-79.04388	1.96368E-006	8.312395E-005	9
	44	117	12.01923	79.33565	-398.9428	1	406.7549	-78.75262	2.007061E-006	8.131392E-005	9
	45	119	9.450605	101.1273	-490.9671	1	501.2738	-78.36124	5.645434E-007	0.0006548	8
	46	122	7.512019	128.5304	-599.7366	1	613.3547	-77.90384	5.660898E-007	0.000675	8
	47	125	5.978954	163.7234	-731.3363	1	749.4385	-77.38132	5.071475E-007	0.0006592	8
	48	128	4.734848	209.8965	-894.5066	1	918.8028	-76.79442	5.854619E-007	0.0006713	8
	49	131	3.75601	270.3147	-1089.667	1	1122.695	-76.06783	4.548741E-007	0.0006491	8
	50	134	3.004808	345.7243	-1314.987	1	1359.675	-75.26967	5.47562E-007	0.0006208	8
	51	138	2.372217	449.4105	-1601.478	1	1663.34	-74.32469	4.768676E-007	0.0005889	8
	52	142	1.878005	587.5622	-1938.995	1	2026.063	-73.14192	4.919397E-007	0.0006597	8
	53	147	1.512097	753.1232	-2304.562	1	2424.5	-71.90278	4.955982E-007	0.0005672	8
	54	152	1.201923	980.736	-2768.247	1	2936.841	-70.49176	4.901135E-007	0.0006883	8
	55	160	0.956633	1279.477	-3299.847	1	3539.216	-68.80678	4.299385E-007	1.335976E-005	8
