EXPLAIN
TAG	EISPOT
TITLE	LABEL	Potentiostatic EIS	Test Identifier
DATE	LABEL	8/3/2020	Date
TIME	LABEL	20:39:38	Time
NOTES	NOTES	1	Notes...
	
PSTAT	PSTAT	REF3000-16137	Potentiostat
VDC	POTEN	0.00000E+000	T	DC Voltage (V)
FREQINIT	QUANT	3.00000E+005	Initial Freq. (Hz)
FREQFINAL	QUANT	1.00000E+000	Final Freq. (Hz)
PTSPERDEC	QUANT	1.00000E+001	Points/decade
VAC	QUANT	5.00000E+001	AC Voltage (mV rms)
AREA	QUANT	1.00000E+000	Sample Area (cm^2)
SPEED	SELECTOR	2	Optimize for:
ZGUESS	QUANT	1.00000E+003	Estimated Z (ohms)
EOC	QUANT	0	Open Circuit (V)
SEQUENCER	TOGGLE	TRUE	Run as Sequence
PSTATMODEL	IQUANT	5	Pstat Model
PSTATSECTION	LABEL	REF3000-16137	Pstat Section
PSTATSERIALNO	LABEL	16137	Pstat Serial Number
CTRLMODE	IQUANT	1	Control Mode
IESTAB	IQUANT	0	I/E Stability
CASPEED	IQUANT	1	Control Amp Speed
CONVENTION	IQUANT	1	Current Convention
ICHRANGE	IQUANT	2	Ich Range
ICHRANGEMODE	TOGGLE	F	Ich Auto Range
ICHOFFSETENABLE	TOGGLE	T	Ich Offset Enable
ICHOFFSET	QUANT	0	Ich Offset (V)
ICHFILTER	IQUANT	3	Ich Filter
VCHRANGE	IQUANT	2	Vch Range
VCHRANGEMODE	TOGGLE	F	Vch Auto Range
VCHOFFSETENABLE	TOGGLE	T	Vch Offset Enable
VCHOFFSET	QUANT	0	Vch Offset (V)
VCHFILTER	IQUANT	3	Vch Filter
ACHRANGE	IQUANT	2	Ach Range
ACHOFFSETENABLE	TOGGLE	F	Ach Offset Enable
ACHOFFSET	QUANT	0	Ach Offset (V)
ACHFILTER	IQUANT	3	Ach Filter
IERANGELOWERLIMIT	IQUANT	2	I/E Range Lower Limit
IERANGEMODE	TOGGLE	F	I/E AutoRange
IERANGE	IQUANT	11	I/E Range
POSFEEDENABLE	TOGGLE	F	Positive Feedback IR Comp
POSFEEDRESISTANCE	QUANT	0	Positive Feedback Resistance (ohm)
ACHSELECT	IQUANT	0	Ach Select
CABLEID	IQUANT	13	Cable ID
DCCALDATE	LABEL	7/31/2020	DC Calibration Date
ACCALDATE	LABEL	7/31/2020	AC Calibration Date
THERMOSELECT	IQUANT	1	Thermo Select
FRAMEWORKVERSION	QUANT	6.33	Framework Version
INSTRUMENTVERSION	LABEL	3.50	Instrument Version
COMPLIANCEVOLTAGE	IQUANT	0	Compliance Voltage
ZCURVE	TABLE
	Pt	Time	Freq	Zreal	Zimag	Zsig	Zmod	Zphz	Idc	Vdc	IERange
	#	s	Hz	ohm	ohm	V	ohm	°	A	V	#
	0	10	300046.9	3.171185	1.218876	1	3.397363	21.02475	2.576178E-005	-3.773301E-005	11
	1	13	238359.4	3.157061	0.959125	1	3.299538	16.89894	-1.778363E-005	-6.748897E-005	11
	2	16	189328.1	3.153413	0.7486885	1	3.241072	13.35597	5.081765E-005	0.0003394	11
	3	19	150421.9	3.152969	0.5729564	1	3.204605	10.29938	-2.66451E-005	0.0003337	11
	4	21	119484.4	3.161838	0.4334177	1	3.191406	7.805331	2.419131E-005	0.0005835	11
	5	24	94921.88	3.169294	0.3143699	1	3.184848	5.664776	-2.631478E-005	0.0005684	11
	6	26	75421.88	3.179587	0.2096933	1	3.186495	3.773185	3.107199E-005	0.000647	11
	7	29	59859.37	3.192052	0.1172694	1	3.194205	2.103983	-1.34706E-005	0.0006139	11
	8	31	47578.12	3.205727	0.0325118	1	3.205891	0.5810624	3.328668E-005	0.0006908	11
	9	34	37828.12	3.222117	-0.0484353	1	3.222481	-0.861214	-2.178239E-005	0.0006573	11
	10	37	30046.88	3.239268	-0.1309246	1	3.241913	-2.314518	-3.931057E-005	0.0006264	11
	11	39	23859.38	3.258615	-0.2180268	1	3.2659	-3.82783	6.620417E-006	0.0006904	11
	12	41	18984.38	3.279891	-0.3126926	1	3.294763	-5.445907	6.729776E-006	0.0006936	11
	13	44	15046.87	3.304254	-0.4225957	1	3.331168	-7.288245	-1.856991E-006	0.000684	11
	14	46	11953.13	3.332445	-0.5489685	1	3.37736	-9.354571	3.187932E-005	0.000738	11
	15	48	9515.62	3.365338	-0.6968272	1	3.436724	-11.69835	-2.673934E-005	0.0006818	11
	16	51	7546.875	3.404046	-0.8771303	1	3.515236	-14.44925	-1.31991E-005	0.0006844	11
	17	53	5928.309	3.454468	-1.104779	1	3.626828	-17.73488	1.975146E-005	0.0006564	10
	18	55	4733.456	3.507643	-1.363662	1	3.763394	-21.24453	1.738606E-005	0.0006652	10
	19	58	3796.875	3.56951	-1.670348	1	3.940998	-25.07719	-1.984851E-005	0.0006809	10
	20	60	2987.132	3.647462	-2.078491	1	4.198107	-29.67647	2.202076E-005	0.0006692	10
	21	62	2390.625	3.734768	-2.544247	1	4.519035	-34.26398	2.313636E-005	0.0006666	10
	22	65	1884.191	3.846086	-3.15319	1	4.973428	-39.3464	-9.134494E-006	0.0006627	10
	23	67	1516.544	3.967954	-3.837693	1	5.520195	-44.04393	-2.380054E-005	0.0006709	10
	24	69	1193.986	4.131925	-4.763003	1	6.305474	-49.05823	-2.025592E-005	0.000673	10
	25	72	946.5144	4.328853	-5.877815	1	7.299841	-53.62935	1.927721E-005	0.0006636	10
	26	74	751.7689	4.576228	-7.234018	1	8.559958	-57.68262	-7.656343E-006	0.000661	10
	27	76	597.4265	4.887627	-8.908286	1	10.16103	-61.24815	-2.172037E-005	0.0007243	10
	28	79	477.4305	5.26499	-10.90543	1	12.10985	-64.2294	2.020753E-007	0.0006748	10
	29	81	376.6741	5.779295	-13.49953	1	14.6846	-66.82371	2.263631E-007	0.0006788	10
	30	83	298.2954	6.433518	-16.64223	1	17.84247	-68.86459	4.962739E-007	0.0006779	10
	31	86	237.7717	7.251355	-20.37678	1	21.62858	-70.41121	2.461115E-007	0.0006722	10
	32	88	189.0121	8.317846	-24.98064	1	26.32905	-71.5837	1.99793E-007	0.0006816	10
	33	90	150.2404	9.69624	-30.58309	1	32.08337	-72.409	4.07825E-007	0.000677	10
	34	93	119.1737	11.48895	-37.43707	1	39.16031	-72.93943	2.61955E-007	0.0006777	10
	35	95	95.0169	13.72057	-45.47105	1	47.49601	-73.20918	2.112482E-006	7.805495E-005	9
	36	98	75.60484	16.60647	-55.2649	1	57.70601	-73.27508	1.982883E-006	7.740004E-005	9
	37	100	54.50582	22.08592	-72.70203	1	75.98271	-73.10191	1.837312E-006	7.612834E-005	9
	38	103	45.95588	25.7477	-83.74329	1	87.61211	-72.90944	2.272786E-006	7.528266E-005	9
	39	105	37.20238	31.12407	-99.5146	1	104.2682	-72.63246	2.126154E-006	7.599172E-005	9
	40	108	30.04808	37.72003	-118.2661	1	124.1357	-72.31033	2.040681E-006	7.967304E-005	9
	41	110	23.91582	46.0335	-141.7942	1	149.0795	-72.01398	1.983434E-006	7.468101E-005	9
	42	112	18.60119	57.16964	-172.993	1	182.1948	-71.71264	1.417228E-006	0.0001331	9
	43	115	15.02404	68.47549	-204.6252	1	215.7785	-71.49776	1.985803E-006	7.447806E-005	9
	44	117	12.01923	82.12756	-243.6673	1	257.1355	-71.37372	2.132277E-006	8.025916E-005	9
	45	119	9.450605	99.1312	-294.3357	1	310.5809	-71.38665	2.174109E-006	7.00544E-005	9
	46	122	7.512019	118.2314	-352.9571	1	372.233	-71.4805	2.239256E-006	8.290895E-005	9
	47	125	5.978954	139.3143	-421.9274	1	444.3323	-71.72753	1.46707E-006	0.000653	8
	48	128	4.734848	165.6624	-510.1777	1	536.4003	-72.0106	1.47908E-006	0.0006847	8
	49	131	3.75601	197.5611	-618.2874	1	649.0837	-72.27979	1.37787E-006	0.0006403	8
	50	134	3.004808	235.9438	-745.7634	1	782.1973	-72.44373	1.382334E-006	0.00068	8
	51	138	2.372217	289.931	-913.0464	1	957.974	-72.38315	1.356026E-006	0.0007268	8
	52	142	1.878005	359.6896	-1116.03	1	1172.561	-72.13618	1.263501E-006	0.0006308	8
	53	147	1.512097	446.7039	-1340.98	1	1413.426	-71.57618	1.329008E-006	0.0006649	8
	54	152	1.201923	575.8641	-1635.225	1	1733.661	-70.59967	1.242902E-006	0.0006305	8
	55	159	0.956633	751.5723	-1977.099	1	2115.132	-69.18626	1.171124E-006	1.721561E-005	8
