EXPLAIN
TAG	EISPOT
TITLE	LABEL	Potentiostatic EIS	Test Identifier
DATE	LABEL	8/3/2020	Date
TIME	LABEL	20:30:59	Time
NOTES	NOTES	1	Notes...
	
PSTAT	PSTAT	REF3000-16137	Potentiostat
VDC	POTEN	0.00000E+000	T	DC Voltage (V)
FREQINIT	QUANT	3.00000E+005	Initial Freq. (Hz)
FREQFINAL	QUANT	1.00000E+000	Final Freq. (Hz)
PTSPERDEC	QUANT	1.00000E+001	Points/decade
VAC	QUANT	5.00000E+001	AC Voltage (mV rms)
AREA	QUANT	1.00000E+000	Sample Area (cm^2)
SPEED	SELECTOR	2	Optimize for:
ZGUESS	QUANT	1.00000E+003	Estimated Z (ohms)
EOC	QUANT	0	Open Circuit (V)
SEQUENCER	TOGGLE	TRUE	Run as Sequence
PSTATMODEL	IQUANT	5	Pstat Model
PSTATSECTION	LABEL	REF3000-16137	Pstat Section
PSTATSERIALNO	LABEL	16137	Pstat Serial Number
CTRLMODE	IQUANT	1	Control Mode
IESTAB	IQUANT	0	I/E Stability
CASPEED	IQUANT	1	Control Amp Speed
CONVENTION	IQUANT	1	Current Convention
ICHRANGE	IQUANT	2	Ich Range
ICHRANGEMODE	TOGGLE	F	Ich Auto Range
ICHOFFSETENABLE	TOGGLE	T	Ich Offset Enable
ICHOFFSET	QUANT	0	Ich Offset (V)
ICHFILTER	IQUANT	3	Ich Filter
VCHRANGE	IQUANT	2	Vch Range
VCHRANGEMODE	TOGGLE	F	Vch Auto Range
VCHOFFSETENABLE	TOGGLE	T	Vch Offset Enable
VCHOFFSET	QUANT	0	Vch Offset (V)
VCHFILTER	IQUANT	3	Vch Filter
ACHRANGE	IQUANT	2	Ach Range
ACHOFFSETENABLE	TOGGLE	F	Ach Offset Enable
ACHOFFSET	QUANT	0	Ach Offset (V)
ACHFILTER	IQUANT	3	Ach Filter
IERANGELOWERLIMIT	IQUANT	2	I/E Range Lower Limit
IERANGEMODE	TOGGLE	F	I/E AutoRange
IERANGE	IQUANT	11	I/E Range
POSFEEDENABLE	TOGGLE	F	Positive Feedback IR Comp
POSFEEDRESISTANCE	QUANT	0	Positive Feedback Resistance (ohm)
ACHSELECT	IQUANT	0	Ach Select
CABLEID	IQUANT	13	Cable ID
DCCALDATE	LABEL	7/31/2020	DC Calibration Date
ACCALDATE	LABEL	7/31/2020	AC Calibration Date
THERMOSELECT	IQUANT	1	Thermo Select
FRAMEWORKVERSION	QUANT	6.33	Framework Version
INSTRUMENTVERSION	LABEL	3.50	Instrument Version
COMPLIANCEVOLTAGE	IQUANT	0	Compliance Voltage
ZCURVE	TABLE
	Pt	Time	Freq	Zreal	Zimag	Zsig	Zmod	Zphz	Idc	Vdc	IERange
	#	s	Hz	ohm	ohm	V	ohm	°	A	V	#
	0	9	300046.9	2.395576	0.983525	1	2.589615	22.32104	0.0001079	0.0010584	12
	1	13	238359.4	2.372975	0.7787122	1	2.497479	18.16769	0.0001304	-0.000131	12
	2	17	189328.1	2.34985	0.6093117	1	2.427562	14.53654	2.987455E-005	2.345864E-005	12
	3	21	150421.9	2.343173	0.4645255	1	2.388774	11.21329	0.0001377	0.0003514	12
	4	25	119484.4	2.329371	0.3497749	1	2.355485	8.539648	0.0001031	0.0004905	12
	5	28	94921.88	2.316483	0.3296075	1	2.339815	8.098138	-3.947529E-005	0.0004925	11
	6	31	75421.88	2.320334	0.2260318	1	2.331318	5.563824	1.097423E-005	0.0005704	11
	7	33	59859.37	2.325077	0.1351875	1	2.329004	3.327615	1.426282E-005	0.0006152	11
	8	36	47578.12	2.330647	0.0529118	1	2.331247	1.300541	2.306262E-005	0.000648	11
	9	38	37828.12	2.337155	-0.025215	1	2.337291	-0.6181251	2.823015E-005	0.0006464	11
	10	41	30046.88	2.34588	-0.1030892	1	2.348144	-2.516233	4.243611E-005	0.0007099	11
	11	43	23859.38	2.355313	-0.1849561	1	2.362564	-4.490063	3.283526E-005	0.0006967	11
	12	46	18984.38	2.367505	-0.2731366	1	2.383209	-6.581059	1.046153E-005	0.0006912	11
	13	48	15046.87	2.38176	-0.3740693	1	2.410956	-8.925724	1.523946E-006	0.0006783	11
	14	50	11953.13	2.398755	-0.4900275	1	2.448296	-11.54576	3.598525E-005	0.0007182	11
	15	53	9515.62	2.417952	-0.6247838	1	2.497368	-14.48798	2.135594E-005	0.0006765	11
	16	55	7546.875	2.443968	-0.7891324	1	2.568212	-17.89474	-1.672618E-006	0.0006982	11
	17	57	5928.309	2.476093	-0.997243	1	2.669369	-21.93705	-2.089533E-005	0.0006629	11
	18	60	4733.456	2.513243	-1.233715	1	2.799722	-26.14576	-1.4795E-005	0.0006611	11
	19	62	3796.875	2.557846	-1.513765	1	2.972214	-30.61758	2.976223E-005	0.0007096	11
	20	64	2987.132	2.615733	-1.889836	1	3.227002	-35.84766	1.024785E-006	0.0006793	11
	21	67	2390.625	2.684224	-2.317032	1	3.545941	-40.80088	-2.344415E-006	0.000697	11
	22	69	1884.191	2.776277	-2.883624	1	4.002874	-46.08656	-2.17694E-005	0.0006666	10
	23	71	1516.544	2.88017	-3.514791	1	4.544132	-50.66734	1.997252E-005	0.0006641	10
	24	73	1193.986	3.02579	-4.368404	1	5.313978	-55.29146	-1.994781E-005	0.0006687	10
	25	76	946.5144	3.204843	-5.393374	1	6.273715	-59.28043	-2.769632E-005	0.000657	10
	26	78	751.7689	3.438116	-6.639491	1	7.476863	-62.6236	2.440793E-005	0.0006682	10
	27	81	597.4265	3.733834	-8.167039	1	8.980091	-65.43091	-2.132735E-005	0.0006642	10
	28	83	477.4305	4.109481	-9.98219	1	10.795	-67.62395	2.856393E-006	0.0006754	10
	29	85	376.6741	4.620695	-12.3301	1	13.16746	-69.45655	3.141071E-006	0.0006726	10
	30	87	298.2954	5.273696	-15.15583	1	16.04715	-70.8139	2.986563E-006	0.0006766	10
	31	90	237.7717	6.082554	-18.46568	1	19.44168	-71.76823	2.477577E-006	0.000675	10
	32	92	189.0121	7.1517	-22.54148	1	23.64879	-72.39741	2.193769E-006	0.0006831	10
	33	95	150.2404	8.523901	-27.45374	1	28.74656	-72.75136	2.785756E-006	0.000679	10
	34	97	119.1737	10.2925	-33.41474	1	34.96399	-72.87997	2.538241E-006	0.0006788	10
	35	99	95.0169	12.45874	-40.33104	1	42.21152	-72.83346	3.626144E-006	7.20005E-005	9
	36	102	75.60484	15.19996	-48.69014	1	51.00753	-72.66281	3.564557E-006	7.165033E-005	9
	37	104	54.50582	20.26704	-63.46302	1	66.62062	-72.28902	3.420192E-006	6.532744E-005	9
	38	107	45.95588	23.5438	-72.75803	1	76.47249	-72.06892	3.792738E-006	7.89781E-005	9
	39	109	37.20238	28.26932	-86.03226	1	90.55775	-71.81001	3.809905E-006	6.99372E-005	9
	40	112	30.04808	33.9047	-101.7793	1	107.2779	-71.57606	3.605916E-006	6.775284E-005	9
	41	114	23.91582	41.08002	-121.7946	1	128.536	-71.36131	3.448782E-006	6.708771E-005	9
	42	117	18.60119	50.37902	-148.1893	1	156.5188	-71.22382	3.777974E-006	6.994681E-005	9
	43	119	15.02404	59.74393	-175.204	1	185.1102	-71.17081	3.721599E-006	7.049368E-005	9
	44	121	12.01923	71.31303	-208.9987	1	220.8302	-71.1597	3.685534E-006	7.551959E-005	9
	45	124	9.450605	86.22575	-253.1817	1	267.4619	-71.19277	3.775142E-006	6.77689E-005	9
	46	126	7.512019	103.8443	-304.8498	1	322.0513	-71.18906	3.972827E-006	8.133321E-005	9
	47	129	5.978954	125.6821	-367.3219	1	388.2285	-71.11122	3.794513E-006	7.359099E-005	9
	48	132	4.734848	154.7678	-443.219	1	469.4637	-70.7513	3.050937E-006	0.0006783	8
	49	135	3.75601	194.2117	-536.3552	1	570.4341	-70.09492	2.908161E-006	0.0006461	8
	50	138	3.004808	246.2065	-642.9039	1	688.4352	-69.04516	2.896998E-006	0.0006836	8
	51	142	2.372217	323.3301	-775.672	1	840.3627	-67.37173	2.907378E-006	0.0007354	8
	52	146	1.878005	427.6489	-923.7981	1	1017.982	-65.15942	2.790992E-006	0.0006299	8
	53	151	1.512097	557.6077	-1071.782	1	1208.156	-62.51373	2.824168E-006	0.0007172	8
	54	157	1.201923	738.1768	-1238.208	1	1441.549	-59.19806	2.819251E-006	0.0006094	8
	55	163	0.956633	964.953	-1394.153	1	1695.523	-55.31122	2.50613E-006	8.818006E-006	8
