EXPLAIN
TAG	EISPOT
TITLE	LABEL	Potentiostatic EIS	Test Identifier
DATE	LABEL	8/3/2020	Date
TIME	LABEL	20:45:14	Time
NOTES	NOTES	1	Notes...
	
PSTAT	PSTAT	REF3000-16137	Potentiostat
VDC	POTEN	0.00000E+000	T	DC Voltage (V)
FREQINIT	QUANT	3.00000E+005	Initial Freq. (Hz)
FREQFINAL	QUANT	1.00000E+000	Final Freq. (Hz)
PTSPERDEC	QUANT	1.00000E+001	Points/decade
VAC	QUANT	5.00000E+001	AC Voltage (mV rms)
AREA	QUANT	1.00000E+000	Sample Area (cm^2)
SPEED	SELECTOR	2	Optimize for:
ZGUESS	QUANT	1.00000E+003	Estimated Z (ohms)
EOC	QUANT	0	Open Circuit (V)
SEQUENCER	TOGGLE	TRUE	Run as Sequence
PSTATMODEL	IQUANT	5	Pstat Model
PSTATSECTION	LABEL	REF3000-16137	Pstat Section
PSTATSERIALNO	LABEL	16137	Pstat Serial Number
CTRLMODE	IQUANT	1	Control Mode
IESTAB	IQUANT	0	I/E Stability
CASPEED	IQUANT	1	Control Amp Speed
CONVENTION	IQUANT	1	Current Convention
ICHRANGE	IQUANT	2	Ich Range
ICHRANGEMODE	TOGGLE	F	Ich Auto Range
ICHOFFSETENABLE	TOGGLE	T	Ich Offset Enable
ICHOFFSET	QUANT	0	Ich Offset (V)
ICHFILTER	IQUANT	3	Ich Filter
VCHRANGE	IQUANT	2	Vch Range
VCHRANGEMODE	TOGGLE	F	Vch Auto Range
VCHOFFSETENABLE	TOGGLE	T	Vch Offset Enable
VCHOFFSET	QUANT	0	Vch Offset (V)
VCHFILTER	IQUANT	3	Vch Filter
ACHRANGE	IQUANT	2	Ach Range
ACHOFFSETENABLE	TOGGLE	F	Ach Offset Enable
ACHOFFSET	QUANT	0	Ach Offset (V)
ACHFILTER	IQUANT	3	Ach Filter
IERANGELOWERLIMIT	IQUANT	2	I/E Range Lower Limit
IERANGEMODE	TOGGLE	F	I/E AutoRange
IERANGE	IQUANT	11	I/E Range
POSFEEDENABLE	TOGGLE	F	Positive Feedback IR Comp
POSFEEDRESISTANCE	QUANT	0	Positive Feedback Resistance (ohm)
ACHSELECT	IQUANT	0	Ach Select
CABLEID	IQUANT	13	Cable ID
DCCALDATE	LABEL	7/31/2020	DC Calibration Date
ACCALDATE	LABEL	7/31/2020	AC Calibration Date
THERMOSELECT	IQUANT	1	Thermo Select
FRAMEWORKVERSION	QUANT	6.33	Framework Version
INSTRUMENTVERSION	LABEL	3.50	Instrument Version
COMPLIANCEVOLTAGE	IQUANT	0	Compliance Voltage
ZCURVE	TABLE
	Pt	Time	Freq	Zreal	Zimag	Zsig	Zmod	Zphz	Idc	Vdc	IERange
	#	s	Hz	ohm	ohm	V	ohm	°	A	V	#
	0	10	300046.9	5.689274	1.245176	1	5.823942	12.34531	-7.991428E-005	0.0002337	10
	1	14	238359.4	5.720628	0.969572	1	5.802211	9.61947	-1.221698E-005	-7.187414E-005	10
	2	17	189328.1	5.751894	0.7538273	1	5.801081	7.466471	1.277181E-005	0.00024	10
	3	19	150421.9	5.78211	0.5849656	1	5.811625	5.776855	6.068106E-005	0.0003436	10
	4	22	119484.4	5.817612	0.4308659	1	5.833546	4.235725	-1.420616E-005	0.0004954	10
	5	24	94921.88	5.857711	0.3274381	1	5.866855	3.199426	2.470804E-005	0.0005237	10
	6	27	75421.88	5.892969	0.213989	1	5.896853	2.079645	1.108184E-005	0.000569	10
	7	29	59859.37	5.931036	0.1101642	1	5.932059	1.064101	-2.359035E-005	0.0005706	10
	8	32	47578.12	5.972998	0.014961	1	5.973016	0.1435128	-6.975289E-006	0.0006222	10
	9	35	37828.12	6.017455	-0.0763439	1	6.017939	-0.7268764	2.331519E-005	0.0006436	10
	10	37	30046.88	6.064808	-0.1686362	1	6.067152	-1.592738	2.640047E-005	0.0006521	10
	11	40	23859.38	6.112426	-0.2662069	1	6.11822	-2.493757	1.884133E-005	0.0006529	10
	12	42	18984.38	6.161631	-0.3731754	1	6.172921	-3.465851	-1.035553E-005	0.0006788	10
	13	44	15046.87	6.214189	-0.4980828	1	6.234118	-4.582603	1.978188E-005	0.0006462	10
	14	47	11953.13	6.272063	-0.6422437	1	6.304859	-5.846569	1.133336E-005	0.0006478	10
	15	49	9515.62	6.335432	-0.8140236	1	6.387514	-7.321674	2.290115E-005	0.0006706	10
	16	51	7546.875	6.406188	-1.022372	1	6.487256	-9.067443	-2.729241E-005	0.0006502	10
	17	54	5928.309	6.489667	-1.28567	1	6.615794	-11.20579	2.068176E-005	0.0006659	10
	18	56	4733.456	6.58096	-1.584718	1	6.769074	-13.53925	6.090769E-006	0.0006502	10
	19	58	3796.875	6.684434	-1.940097	1	6.96029	-16.1849	-2.848767E-005	0.0006486	10
	20	61	2987.132	6.810613	-2.408164	1	7.223829	-19.47308	1.328708E-005	0.0006417	10
	21	63	2390.625	6.949609	-2.93903	1	7.545527	-22.92379	1.846085E-005	0.000649	10
	22	65	1884.191	7.120017	-3.633885	1	7.993732	-27.03867	-2.331076E-005	0.000671	10
	23	67	1516.544	7.303812	-4.403504	1	8.52857	-31.08598	-1.639727E-005	0.0006606	10
	24	70	1193.986	7.533834	-5.440521	1	9.292896	-35.83475	2.214245E-005	0.0006592	10
	25	72	946.5144	7.79804	-6.684087	1	10.27066	-40.60152	-1.70731E-005	0.0006976	10
	26	75	751.7689	8.103656	-8.202193	1	11.53019	-45.34624	2.319781E-005	0.000666	10
	27	77	597.4265	8.460925	-10.06657	1	13.15002	-49.95303	1.574684E-005	0.0006627	10
	28	79	477.4305	8.889333	-12.30338	1	15.17872	-54.15147	-1.092114E-006	0.000673	10
	29	82	376.6741	9.433777	-15.22329	1	17.90935	-58.21377	-1.05221E-006	0.0006782	10
	30	84	298.2954	10.0995	-18.783	1	21.32607	-61.73336	-1.002784E-006	0.000681	10
	31	86	237.7717	10.91314	-23.04601	1	25.49932	-64.66072	-1.132127E-006	0.0006774	10
	32	89	189.0121	11.95043	-28.34807	1	30.76404	-67.14162	-1.156176E-006	0.0006799	10
	33	91	150.2404	13.2659	-34.85108	1	37.2905	-69.16091	-9.238523E-007	0.0006731	10
	34	94	119.1737	14.95056	-42.85273	1	45.38585	-70.76702	1.450431E-006	8.088418E-005	9
	35	96	95.0169	17.08213	-52.45517	1	55.16651	-71.96206	1.362487E-006	7.716742E-005	9
	36	98	75.60484	19.84341	-64.25423	1	67.24855	-72.83793	1.296299E-006	7.441548E-005	9
	37	101	54.50582	25.18809	-85.64064	1	89.26791	-73.61066	7.690371E-007	0.0001113	9
	38	103	45.95588	28.84915	-99.3896	1	103.4919	-73.81393	1.360673E-006	7.788425E-005	9
	39	106	37.20238	34.37386	-119.2498	1	124.1051	-73.92033	1.381784E-006	7.084516E-005	9
	40	108	30.04808	41.34243	-143.118	1	148.9697	-73.88761	1.239768E-006	7.432161E-005	9
	41	111	23.91582	50.62705	-173.4898	1	180.7258	-73.73193	1.423792E-006	7.452485E-005	9
	42	113	18.60119	63.5376	-213.8159	1	223.0566	-73.45014	1.392622E-006	7.225133E-005	9
	43	115	15.02404	76.98643	-254.8651	1	266.2389	-73.19215	1.603412E-006	8.219926E-005	9
	44	118	12.01923	94.23378	-305.8463	1	320.0343	-72.8755	1.608838E-006	6.891823E-005	9
	45	121	9.450605	116.4555	-370.97	1	388.8195	-72.57179	1.27548E-006	6.91461E-005	9
	46	123	7.512019	141.0746	-443.9354	1	465.8118	-72.37069	5.790178E-007	0.0006342	8
	47	126	5.978954	171.1015	-532.6153	1	559.4236	-72.1905	7.137875E-007	0.000653	8
	48	129	4.734848	207.4044	-641.6422	1	674.3303	-72.0871	6.681371E-007	0.0006631	8
	49	132	3.75601	249.1051	-771.6176	1	810.8311	-72.10811	6.837644E-007	0.0006509	8
	50	136	3.004808	295.5424	-922.4664	1	968.654	-72.23544	6.558199E-007	0.0006889	8
	51	140	2.372217	351.7661	-1117.482	1	1171.54	-72.52681	6.381735E-007	0.0007086	8
	52	144	1.878005	418.2476	-1353.891	1	1417.022	-72.8329	6.372917E-007	0.0006283	8
	53	149	1.512097	491.0016	-1623.505	1	1696.129	-73.17295	6.547893E-007	0.0007506	8
	54	154	1.201923	581.7399	-1976.851	1	2060.67	-73.60211	6.426983E-007	0.0006293	8
	55	160	0.956633	693.2654	-2409.517	1	2507.268	-73.94843	5.841348E-007	1.39598E-005	8
