EXPLAIN
TAG	EISPOT
TITLE	LABEL	Potentiostatic EIS	Test Identifier
DATE	LABEL	8/3/2020	Date
TIME	LABEL	20:33:51	Time
NOTES	NOTES	1	Notes...
	
PSTAT	PSTAT	REF3000-16137	Potentiostat
VDC	POTEN	0.00000E+000	T	DC Voltage (V)
FREQINIT	QUANT	3.00000E+005	Initial Freq. (Hz)
FREQFINAL	QUANT	1.00000E+000	Final Freq. (Hz)
PTSPERDEC	QUANT	1.00000E+001	Points/decade
VAC	QUANT	5.00000E+001	AC Voltage (mV rms)
AREA	QUANT	1.00000E+000	Sample Area (cm^2)
SPEED	SELECTOR	2	Optimize for:
ZGUESS	QUANT	1.00000E+003	Estimated Z (ohms)
EOC	QUANT	0	Open Circuit (V)
SEQUENCER	TOGGLE	TRUE	Run as Sequence
PSTATMODEL	IQUANT	5	Pstat Model
PSTATSECTION	LABEL	REF3000-16137	Pstat Section
PSTATSERIALNO	LABEL	16137	Pstat Serial Number
CTRLMODE	IQUANT	1	Control Mode
IESTAB	IQUANT	0	I/E Stability
CASPEED	IQUANT	1	Control Amp Speed
CONVENTION	IQUANT	1	Current Convention
ICHRANGE	IQUANT	2	Ich Range
ICHRANGEMODE	TOGGLE	F	Ich Auto Range
ICHOFFSETENABLE	TOGGLE	T	Ich Offset Enable
ICHOFFSET	QUANT	0	Ich Offset (V)
ICHFILTER	IQUANT	3	Ich Filter
VCHRANGE	IQUANT	2	Vch Range
VCHRANGEMODE	TOGGLE	F	Vch Auto Range
VCHOFFSETENABLE	TOGGLE	T	Vch Offset Enable
VCHOFFSET	QUANT	0	Vch Offset (V)
VCHFILTER	IQUANT	3	Vch Filter
ACHRANGE	IQUANT	2	Ach Range
ACHOFFSETENABLE	TOGGLE	F	Ach Offset Enable
ACHOFFSET	QUANT	0	Ach Offset (V)
ACHFILTER	IQUANT	3	Ach Filter
IERANGELOWERLIMIT	IQUANT	2	I/E Range Lower Limit
IERANGEMODE	TOGGLE	F	I/E AutoRange
IERANGE	IQUANT	11	I/E Range
POSFEEDENABLE	TOGGLE	F	Positive Feedback IR Comp
POSFEEDRESISTANCE	QUANT	0	Positive Feedback Resistance (ohm)
ACHSELECT	IQUANT	0	Ach Select
CABLEID	IQUANT	13	Cable ID
DCCALDATE	LABEL	7/31/2020	DC Calibration Date
ACCALDATE	LABEL	7/31/2020	AC Calibration Date
THERMOSELECT	IQUANT	1	Thermo Select
FRAMEWORKVERSION	QUANT	6.33	Framework Version
INSTRUMENTVERSION	LABEL	3.50	Instrument Version
COMPLIANCEVOLTAGE	IQUANT	0	Compliance Voltage
ZCURVE	TABLE
	Pt	Time	Freq	Zreal	Zimag	Zsig	Zmod	Zphz	Idc	Vdc	IERange
	#	s	Hz	ohm	ohm	V	ohm	°	A	V	#
	0	9	300046.9	2.540469	0.963376	1	2.716998	20.76732	1.232122E-005	0.0009268	12
	1	13	238359.4	2.48416	0.7651163	1	2.599318	17.11873	0.0001409	-0.0002007	12
	2	18	189328.1	2.453068	0.5981814	1	2.524949	13.70414	8.133716E-005	0.0001787	12
	3	21	150421.9	2.436078	0.4558259	1	2.478357	10.59832	8.043728E-005	0.0003618	12
	4	25	119484.4	2.421093	0.3419016	1	2.445115	8.038038	0.000142	0.0005	12
	5	29	94921.88	2.415534	0.2437942	1	2.427806	5.763214	6.359677E-005	0.0005472	12
	6	32	75421.88	2.414273	0.1561834	1	2.41932	3.701403	6.738555E-005	0.0005768	12
	7	36	59859.37	2.416981	0.0778111	1	2.418233	1.843915	5.018783E-005	0.0005748	12
	8	39	47578.12	2.422213	0.0053295	1	2.422219	0.1260658	3.678259E-005	0.0006148	12
	9	43	37828.12	2.430085	-0.030251	1	2.430274	-0.7132127	2.447637E-005	0.0006731	11
	10	46	30046.88	2.438907	-0.1091161	1	2.441347	-2.561692	-1.462277E-005	0.0006619	11
	11	48	23859.38	2.448568	-0.1919794	1	2.456082	-4.483092	3.949031E-005	0.0007038	11
	12	50	18984.38	2.460924	-0.281214	1	2.476939	-6.51901	3.680938E-005	0.0007143	11
	13	53	15046.87	2.47609	-0.3837486	1	2.505651	-8.809709	1.960764E-005	0.0007071	11
	14	55	11953.13	2.494105	-0.5017915	1	2.544082	-11.37553	-3.130152E-005	0.0006382	11
	15	57	9515.62	2.516747	-0.6396071	1	2.59675	-14.2593	-1.399043E-005	0.0006812	11
	16	60	7546.875	2.544056	-0.8070884	1	2.669009	-17.60136	1.326355E-005	0.0007024	11
	17	62	5928.309	2.578734	-1.01861	1	2.772622	-21.55422	-1.937123E-005	0.0006582	11
	18	64	4733.456	2.618258	-1.258525	1	2.905023	-25.67233	1.830069E-005	0.0006978	11
	19	67	3796.875	2.664953	-1.544696	1	3.080269	-30.09802	-2.916342E-005	0.000636	11
	20	69	2987.132	2.727655	-1.924794	1	3.338403	-35.20904	6.118914E-006	0.0006919	11
	21	71	2390.625	2.799567	-2.35841	1	3.660557	-40.11144	-1.335769E-005	0.0006865	11
	22	74	1884.191	2.895995	-2.932353	1	4.121344	-45.35741	-6.486285E-006	0.0006573	10
	23	76	1516.544	3.004247	-3.572364	1	4.667686	-49.9372	-1.314747E-005	0.0006594	10
	24	78	1193.986	3.15303	-4.438484	1	5.444423	-54.61061	-2.116687E-005	0.0006639	10
	25	81	946.5144	3.339028	-5.480913	1	6.417905	-58.6498	7.282079E-006	0.0006539	10
	26	83	751.7689	3.578817	-6.745342	1	7.635939	-62.05131	-1.937146E-005	0.000665	10
	27	85	597.4265	3.881793	-8.296994	1	9.160154	-64.9272	-1.789639E-005	0.0006573	10
	28	88	477.4305	4.264473	-10.13908	1	10.99939	-67.18848	2.331252E-006	0.0006751	10
	29	90	376.6741	4.786989	-12.52168	1	13.40551	-69.07834	-1.773441E-006	0.0007191	10
	30	92	298.2954	5.455422	-15.39484	1	16.33287	-70.48735	2.300835E-006	0.0006781	10
	31	94	237.7717	6.297694	-18.78402	1	19.81162	-71.46531	2.056274E-006	0.0006766	10
	32	97	189.0121	7.396335	-22.93404	1	24.09722	-72.12524	1.750451E-006	0.0006781	10
	33	99	150.2404	8.811818	-27.94088	1	29.29746	-72.4961	2.435332E-006	0.000672	10
	34	102	119.1737	10.6392	-34.01216	1	35.63733	-72.63001	2.103999E-006	0.0006754	10
	35	104	95.0169	12.88284	-41.05404	1	43.02792	-72.57803	3.318919E-006	7.144768E-005	9
	36	107	75.60484	15.73186	-49.55551	1	51.99269	-72.38747	3.200206E-006	6.99236E-005	9
	37	109	54.50582	21.02068	-64.51868	1	67.85668	-71.95399	3.078129E-006	6.731003E-005	9
	38	112	45.95588	24.40621	-73.93949	1	77.86342	-71.73279	3.355667E-006	7.618877E-005	9
	39	114	37.20238	29.31439	-87.33128	1	92.11996	-71.4447	3.227825E-006	7.85695E-005	9
	40	116	30.04808	35.11978	-103.2015	1	109.0135	-71.20641	3.078358E-006	7.522008E-005	9
	41	119	23.91582	42.43002	-123.2811	1	130.3784	-71.00792	3.155681E-006	6.630616E-005	9
	42	121	18.60119	51.90722	-149.8746	1	158.6088	-70.8971	3.360821E-006	6.940006E-005	9
	43	123	15.02404	61.35609	-177.0028	1	187.3354	-70.88168	3.473181E-006	8.410019E-005	9
	44	126	12.01923	72.75185	-211.0054	1	223.1952	-70.97649	3.199116E-006	7.403507E-005	9
	45	128	9.450605	87.36343	-255.6206	1	270.1375	-71.13112	3.231339E-006	8.314974E-005	9
	46	131	7.512019	104.465	-308.1124	1	325.3401	-71.27086	3.324162E-006	6.538953E-005	9
	47	133	5.978954	125.4907	-371.7099	1	392.3215	-71.34512	3.283335E-006	7.228831E-005	9
	48	137	4.734848	153.3456	-449.9341	1	475.3479	-71.17997	2.672266E-006	0.0006512	8
	49	140	3.75601	191.0922	-545.8671	1	578.3486	-70.70633	2.501029E-006	0.0006463	8
	50	143	3.004808	240.9134	-656.4113	1	699.2246	-69.84605	2.605397E-006	0.000618	8
	51	147	2.372217	314.0946	-795.9797	1	855.7097	-68.46574	2.421366E-006	0.00063	8
	52	151	1.878005	414.1197	-955.027	1	1040.948	-66.55743	2.550081E-006	0.0006602	8
	53	156	1.512097	537.6907	-1118.796	1	1241.296	-64.33116	2.463913E-006	0.0006264	8
	54	161	1.201923	715.6467	-1311.132	1	1493.726	-61.37324	2.494545E-006	0.0006739	8
	55	167	0.956633	942.7779	-1502.953	1	1774.176	-57.90063	2.207123E-006	1.149766E-005	8
