EXPLAIN
TAG	EISPOT
TITLE	LABEL	Potentiostatic EIS	Test Identifier
DATE	LABEL	8/3/2020	Date
TIME	LABEL	20:56:21	Time
NOTES	NOTES	1	Notes...
	
PSTAT	PSTAT	REF3000-16137	Potentiostat
VDC	POTEN	0.00000E+000	T	DC Voltage (V)
FREQINIT	QUANT	3.00000E+005	Initial Freq. (Hz)
FREQFINAL	QUANT	1.00000E+000	Final Freq. (Hz)
PTSPERDEC	QUANT	1.00000E+001	Points/decade
VAC	QUANT	5.00000E+001	AC Voltage (mV rms)
AREA	QUANT	1.00000E+000	Sample Area (cm^2)
SPEED	SELECTOR	2	Optimize for:
ZGUESS	QUANT	1.00000E+003	Estimated Z (ohms)
EOC	QUANT	0	Open Circuit (V)
SEQUENCER	TOGGLE	TRUE	Run as Sequence
PSTATMODEL	IQUANT	5	Pstat Model
PSTATSECTION	LABEL	REF3000-16137	Pstat Section
PSTATSERIALNO	LABEL	16137	Pstat Serial Number
CTRLMODE	IQUANT	1	Control Mode
IESTAB	IQUANT	0	I/E Stability
CASPEED	IQUANT	1	Control Amp Speed
CONVENTION	IQUANT	1	Current Convention
ICHRANGE	IQUANT	2	Ich Range
ICHRANGEMODE	TOGGLE	F	Ich Auto Range
ICHOFFSETENABLE	TOGGLE	T	Ich Offset Enable
ICHOFFSET	QUANT	0	Ich Offset (V)
ICHFILTER	IQUANT	3	Ich Filter
VCHRANGE	IQUANT	2	Vch Range
VCHRANGEMODE	TOGGLE	F	Vch Auto Range
VCHOFFSETENABLE	TOGGLE	T	Vch Offset Enable
VCHOFFSET	QUANT	0	Vch Offset (V)
VCHFILTER	IQUANT	3	Vch Filter
ACHRANGE	IQUANT	2	Ach Range
ACHOFFSETENABLE	TOGGLE	F	Ach Offset Enable
ACHOFFSET	QUANT	0	Ach Offset (V)
ACHFILTER	IQUANT	3	Ach Filter
IERANGELOWERLIMIT	IQUANT	2	I/E Range Lower Limit
IERANGEMODE	TOGGLE	F	I/E AutoRange
IERANGE	IQUANT	11	I/E Range
POSFEEDENABLE	TOGGLE	F	Positive Feedback IR Comp
POSFEEDRESISTANCE	QUANT	0	Positive Feedback Resistance (ohm)
ACHSELECT	IQUANT	0	Ach Select
CABLEID	IQUANT	13	Cable ID
DCCALDATE	LABEL	7/31/2020	DC Calibration Date
ACCALDATE	LABEL	7/31/2020	AC Calibration Date
THERMOSELECT	IQUANT	1	Thermo Select
FRAMEWORKVERSION	QUANT	6.33	Framework Version
INSTRUMENTVERSION	LABEL	3.50	Instrument Version
COMPLIANCEVOLTAGE	IQUANT	0	Compliance Voltage
ZCURVE	TABLE
	Pt	Time	Freq	Zreal	Zimag	Zsig	Zmod	Zphz	Idc	Vdc	IERange
	#	s	Hz	ohm	ohm	V	ohm	°	A	V	#
	0	7	300046.9	61.69771	0.892727	1	61.70417	0.828976	4.654138E-006	-0.0014914	9
	1	10	238359.4	62.70577	0.683328	1	62.7095	0.6243486	5.523168E-005	-0.0018122	9
	2	13	189328.1	63.66351	0.4605855	1	63.66518	0.4145098	5.328982E-005	-0.0015442	9
	3	16	150421.9	64.54765	0.2890525	1	64.54829	0.256576	1.433195E-005	-0.0004305	9
	4	18	119484.4	65.39315	0.1294846	1	65.39328	0.1134509	1.122657E-005	-0.0009191	9
	5	21	94921.88	66.33393	0.2614751	1	66.33445	0.2258473	-1.814337E-005	0.0005108	9
	6	23	75421.88	67.18385	0.1031661	1	67.18392	0.0879822	2.794419E-006	0.0002939	9
	7	26	59859.37	68.08466	-0.0631604	1	68.08469	-0.0531518	-1.174042E-005	0.0006554	9
	8	29	47578.12	69.00485	-0.2112818	1	69.00517	-0.17543	-1.532501E-005	0.0003613	9
	9	31	37828.12	69.95704	-0.3373635	1	69.95786	-0.2763033	1.676762E-005	-0.0001635	9
	10	34	30046.88	70.90356	-0.4657679	1	70.9051	-0.3763725	2.105184E-005	-0.0004255	9
	11	36	23859.38	71.84943	-0.5929034	1	71.85188	-0.4727955	1.08156E-005	-0.0005238	9
	12	39	18984.38	72.77018	-0.7497022	1	72.77404	-0.590259	-1.64271E-005	0.0007129	9
	13	41	15046.87	73.6732	-0.8867729	1	73.67854	-0.6896115	-1.189544E-005	0.0007009	9
	14	43	11953.13	74.61391	-1.141082	1	74.62263	-0.876165	-2.520576E-006	-0.000181	9
	15	45	9515.62	75.61099	-1.433413	1	75.62458	-1.086068	2.373963E-005	-0.000334	9
	16	48	7546.875	76.5668	-1.743178	1	76.58664	-1.304214	-4.740786E-006	0.0006816	9
	17	50	5928.309	77.60951	-2.181366	1	77.64016	-1.609985	-1.9552E-005	0.0006198	9
	18	52	4733.456	78.62862	-2.731706	1	78.67606	-1.989763	-1.898314E-005	0.0006017	9
	19	55	3796.875	79.74096	-3.327041	1	79.81033	-2.389173	1.089966E-005	0.0001561	9
	20	57	2987.132	80.86511	-4.115451	1	80.96976	-2.913429	-9.153007E-006	3.4435E-005	9
	21	59	2390.625	82.05098	-5.041861	1	82.20574	-3.516284	-1.866708E-005	0.0007511	9
	22	62	1884.191	83.29418	-6.235534	1	83.52726	-4.281267	2.249356E-005	-0.0005239	9
	23	64	1516.544	84.59076	-7.56042	1	84.92795	-5.107322	2.110633E-005	-0.0006149	9
	24	66	1193.986	86.04459	-9.423434	1	86.55907	-6.250012	2.231119E-005	-0.0005174	9
	25	69	946.5144	87.65133	-11.63084	1	88.41964	-7.558674	-1.935835E-005	0.0007151	9
	26	71	751.7689	89.34142	-14.30766	1	90.47982	-9.098429	-1.42489E-005	0.0002051	9
	27	73	597.4265	91.18757	-17.51926	1	92.85525	-10.87534	5.318241E-006	-0.0004352	9
	28	76	477.4305	93.23141	-21.34746	1	95.6442	-12.89686	1.046947E-006	8.991184E-005	9
	29	78	376.6741	95.6231	-26.251	1	99.161	-15.35098	1.016566E-006	8.255956E-005	9
	30	80	298.2954	98.3389	-32.11392	1	103.4497	-18.08516	1.026895E-006	8.735097E-005	9
	31	83	237.7717	101.4617	-38.99154	1	108.696	-21.02168	1.072001E-006	8.169351E-005	9
	32	85	189.0121	105.0555	-47.36506	1	115.2393	-24.26859	1.054857E-006	8.190961E-005	9
	33	87	150.2404	109.191	-57.4395	1	123.3773	-27.74644	9.787227E-007	8.475815E-005	9
	34	90	119.1737	113.9645	-69.69264	1	133.5851	-31.447	1.094012E-006	8.174359E-005	9
	35	92	95.0169	119.3064	-84.11883	1	145.9794	-35.18635	1.023455E-006	8.346789E-005	9
	36	95	75.60484	125.5094	-101.6953	1	161.5381	-39.01648	9.934361E-007	8.21736E-005	9
	37	97	54.50582	135.1155	-133.3559	1	189.842	-44.62449	1.077511E-006	7.660703E-005	9
	38	100	45.95588	141.6058	-153.9551	1	209.1754	-47.39256	6.668993E-007	0.000136	9
	39	102	37.20238	149.9946	-184.0093	1	237.398	-50.81491	1.081611E-006	7.854041E-005	9
	40	105	30.04808	159.7067	-220.7541	1	272.4676	-54.11576	1.191718E-006	7.231667E-005	9
	41	107	23.91582	171.4139	-268.576	1	318.6154	-57.45267	1.08937E-006	7.193122E-005	9
	42	109	18.60119	186.2702	-334.0655	1	382.487	-60.85658	9.933545E-007	0.0001148	9
	43	112	15.02404	200.9593	-401.0208	1	448.5558	-63.38366	1.425887E-007	0.0006557	8
	44	114	12.01923	220.3925	-488.3719	1	535.7985	-65.7113	4.223135E-008	0.0006555	8
	45	116	9.450605	246.0594	-604.343	1	652.5149	-67.84621	1.315907E-007	0.000706	8
	46	119	7.512019	276.9092	-741.1279	1	791.1696	-69.5127	1.250646E-007	0.0006518	8
	47	122	5.978954	315.8031	-907.0844	1	960.486	-70.80434	1.743822E-007	0.0006612	8
	48	125	4.734848	366.5056	-1116.545	1	1175.159	-71.82758	9.097812E-008	0.00066	8
	49	128	3.75601	429.6631	-1369.941	1	1435.74	-72.58669	1.528374E-007	0.000672	8
	50	131	3.004808	506.882	-1666.022	1	1741.424	-73.07777	8.120342E-008	0.0006912	8
	51	135	2.372217	609.1967	-2046.692	1	2135.432	-73.42439	1.124808E-007	0.0006892	8
	52	139	1.878005	742.8101	-2510.449	1	2618.038	-73.51718	1.372164E-007	0.0006389	8
	53	144	1.512097	890.6765	-3030.054	1	3158.248	-73.61944	1.012665E-007	0.0007458	8
	54	150	1.201923	1093.637	-3695.875	1	3854.288	-73.51611	1.221915E-007	0.0006459	8
	55	156	0.956633	1339.71	-4503.656	1	4698.695	-73.43375	-2.105476E-008	-1.085667E-005	7
