EXPLAIN
TAG	EISPOT
TITLE	LABEL	Potentiostatic EIS	Test Identifier
DATE	LABEL	8/3/2020	Date
TIME	LABEL	21:01:54	Time
NOTES	NOTES	1	Notes...
	
PSTAT	PSTAT	REF3000-16137	Potentiostat
VDC	POTEN	0.00000E+000	T	DC Voltage (V)
FREQINIT	QUANT	3.00000E+005	Initial Freq. (Hz)
FREQFINAL	QUANT	1.00000E+000	Final Freq. (Hz)
PTSPERDEC	QUANT	1.00000E+001	Points/decade
VAC	QUANT	5.00000E+001	AC Voltage (mV rms)
AREA	QUANT	1.00000E+000	Sample Area (cm^2)
SPEED	SELECTOR	2	Optimize for:
ZGUESS	QUANT	1.00000E+003	Estimated Z (ohms)
EOC	QUANT	0	Open Circuit (V)
SEQUENCER	TOGGLE	TRUE	Run as Sequence
PSTATMODEL	IQUANT	5	Pstat Model
PSTATSECTION	LABEL	REF3000-16137	Pstat Section
PSTATSERIALNO	LABEL	16137	Pstat Serial Number
CTRLMODE	IQUANT	1	Control Mode
IESTAB	IQUANT	0	I/E Stability
CASPEED	IQUANT	1	Control Amp Speed
CONVENTION	IQUANT	1	Current Convention
ICHRANGE	IQUANT	2	Ich Range
ICHRANGEMODE	TOGGLE	F	Ich Auto Range
ICHOFFSETENABLE	TOGGLE	T	Ich Offset Enable
ICHOFFSET	QUANT	0	Ich Offset (V)
ICHFILTER	IQUANT	3	Ich Filter
VCHRANGE	IQUANT	2	Vch Range
VCHRANGEMODE	TOGGLE	F	Vch Auto Range
VCHOFFSETENABLE	TOGGLE	T	Vch Offset Enable
VCHOFFSET	QUANT	0	Vch Offset (V)
VCHFILTER	IQUANT	3	Vch Filter
ACHRANGE	IQUANT	2	Ach Range
ACHOFFSETENABLE	TOGGLE	F	Ach Offset Enable
ACHOFFSET	QUANT	0	Ach Offset (V)
ACHFILTER	IQUANT	3	Ach Filter
IERANGELOWERLIMIT	IQUANT	2	I/E Range Lower Limit
IERANGEMODE	TOGGLE	F	I/E AutoRange
IERANGE	IQUANT	11	I/E Range
POSFEEDENABLE	TOGGLE	F	Positive Feedback IR Comp
POSFEEDRESISTANCE	QUANT	0	Positive Feedback Resistance (ohm)
ACHSELECT	IQUANT	0	Ach Select
CABLEID	IQUANT	13	Cable ID
DCCALDATE	LABEL	7/31/2020	DC Calibration Date
ACCALDATE	LABEL	7/31/2020	AC Calibration Date
THERMOSELECT	IQUANT	1	Thermo Select
FRAMEWORKVERSION	QUANT	6.33	Framework Version
INSTRUMENTVERSION	LABEL	3.50	Instrument Version
COMPLIANCEVOLTAGE	IQUANT	0	Compliance Voltage
ZCURVE	TABLE
	Pt	Time	Freq	Zreal	Zimag	Zsig	Zmod	Zphz	Idc	Vdc	IERange
	#	s	Hz	ohm	ohm	V	ohm	°	A	V	#
	0	7	300046.9	484.4833	-63.12403	1	488.5782	-7.423334	8.129203E-005	-0.0018096	9
	1	11	238359.4	510.5681	-57.52884	1	513.799	-6.428752	1.534416E-005	-0.0019622	9
	2	18	189328.1	538.8813	-52.54767	1	541.4373	-5.569447	1.794568E-005	-0.0009155	9
	3	24	150421.9	565.3472	-47.9803	1	567.3796	-4.850996	4.468051E-006	0.0014617	9
	4	30	119484.4	593.8611	-23.37132	1	594.3209	-2.253704	8.757109E-006	0.0073196	8
	5	36	94921.88	616.0246	-19.88351	1	616.3454	-1.848702	-1.63784E-005	0.0065884	8
	6	39	75421.88	629.1438	-17.29569	1	629.3815	-1.574712	-1.659856E-005	0.005518	8
	7	41	59859.37	641.4031	-15.219	1	641.5836	-1.35924	-1.641288E-005	0.0066446	8
	8	44	47578.12	655.0952	-13.56671	1	655.2356	-1.186399	1.649513E-005	-0.0059226	8
	9	46	37828.12	668.8684	-12.42871	1	668.9839	-1.06453	9.205399E-006	-0.0056141	8
	10	49	30046.88	682.2997	-11.10028	1	682.39	-0.9320585	1.377965E-005	-0.0062645	8
	11	51	23859.38	696.7251	-10.27668	1	696.8009	-0.8450499	1.336265E-005	-0.0006578	8
	12	54	18984.38	710.2343	-8.377081	1	710.2837	-0.6757616	1.834031E-005	-0.0039402	8
	13	56	15046.87	724.6819	-11.17089	1	724.7681	-0.8831383	3.404392E-006	-0.0044547	8
	14	58	11953.13	736.9135	-8.831316	1	736.9664	-0.6866111	1.407148E-005	-0.0063311	8
	15	61	9515.62	754.6348	-7.598123	1	754.6731	-0.5768692	1.842528E-005	-0.0057463	8
	16	64	7546.875	771.4872	-5.819886	1	771.5092	-0.4322153	-3.102394E-006	-0.0025952	8
	17	66	5928.309	789.6124	-5.607024	1	789.6323	-0.4068495	-1.725094E-005	0.0045376	8
	18	69	4733.456	807.3552	-7.202876	1	807.3873	-0.5111548	-2.781384E-006	-0.0028002	8
	19	71	3796.875	824.9365	-6.780545	1	824.9644	-0.4709307	1.793938E-005	-0.0026725	8
	20	74	2987.132	840.7301	-9.7626	1	840.7868	-0.6652914	1.387241E-005	-0.0003855	8
	21	76	2390.625	859.9042	-11.04634	1	859.9751	-0.7359819	1.461292E-005	-0.0067093	8
	22	79	1884.191	881.3242	-11.18803	1	881.3952	-0.7273059	1.94915E-005	-0.0054709	8
	23	82	1516.544	902.1007	-14.96381	1	902.2248	-0.95032	3.919768E-006	-0.0049103	8
	24	85	1193.986	922.5567	-16.06406	1	922.6965	-0.997564	-1.684576E-005	0.0081959	8
	25	87	946.5144	939.9587	-21.04003	1	940.1942	-1.282295	-8.788804E-006	-0.0006026	8
	26	90	751.7689	966.17	-21.27574	1	966.404	-1.26149	1.474237E-005	-0.0005486	8
	27	92	597.4265	988.76	-27.71548	1	989.148	-1.605612	-1.877467E-005	0.0048604	8
	28	95	477.4305	1010.126	-36.20106	1	1010.774	-2.052498	-2.896494E-007	0.0006621	8
	29	97	376.6741	1032.04	-44.58941	1	1033.003	-2.473932	-3.02374E-007	0.0006509	8
	30	100	298.2954	1054.533	-54.91423	1	1055.962	-2.980954	-2.714389E-007	0.0006456	8
	31	102	237.7717	1079.087	-67.28375	1	1081.182	-3.567915	-2.811212E-007	0.0006563	8
	32	104	189.0121	1105.008	-82.74001	1	1108.102	-4.282161	-3.191526E-007	0.0006813	8
	33	107	150.2404	1132.092	-101.7086	1	1136.652	-5.133745	-2.87915E-007	0.0006444	8
	34	109	119.1737	1160.895	-125.1865	1	1167.625	-6.154773	-3.435452E-007	0.000661	8
	35	112	95.0169	1191.984	-153.2438	1	1201.794	-7.325872	-3.179488E-007	0.0006579	8
	36	114	75.60484	1226.766	-187.759	1	1241.052	-8.701707	-3.329466E-007	0.0006617	8
	37	117	54.50582	1270.617	-249.9594	1	1294.97	-11.12927	-3.18694E-007	0.0006599	8
	38	119	45.95588	1308.604	-290.1582	1	1340.386	-12.50199	-2.883722E-007	0.0006619	8
	39	122	37.20238	1351.87	-348.6666	1	1396.109	-14.46222	-4.230019E-007	0.0006723	8
	40	124	30.04808	1400.989	-418.0386	1	1462.028	-16.61449	-4.292058E-007	0.0007036	8
	41	126	23.91582	1457.332	-507.1422	1	1543.052	-19.18757	-4.487109E-007	0.0006683	8
	42	129	18.60119	1525.688	-624.6312	1	1648.602	-22.26466	-3.815992E-007	0.0006651	8
	43	131	15.02404	1596.404	-746.0269	1	1762.119	-25.04748	-2.711394E-007	0.0007177	8
	44	133	12.01923	1676.954	-892.7801	1	1899.798	-28.03003	-4.227419E-007	0.0006425	8
	45	136	9.450605	1778.271	-1085.083	1	2083.184	-31.39112	-2.366307E-007	0.0006499	8
	46	138	7.512019	1894.435	-1305.512	1	2300.705	-34.57189	-3.009292E-007	0.0006651	8
	47	141	5.978954	2029.076	-1566.992	1	2563.71	-37.67779	-3.32533E-007	0.0006652	8
	48	144	4.734848	2188.023	-1891.619	1	2892.347	-40.84451	-2.99254E-007	0.0007077	8
	49	147	3.75601	2374.613	-2278.62	1	3291.032	-43.81819	-3.996144E-007	0.0006398	8
	50	151	3.004808	2583.507	-2726.912	1	3756.402	-46.54686	-3.791349E-007	0.0006573	8
	51	154	2.372217	2844.36	-3307.39	1	4362.249	-49.30442	-7.936143E-008	0.0006604	7
	52	159	1.878005	3148.352	-4017.49	1	5104.15	-51.91558	-9.556773E-008	0.0006247	7
	53	163	1.512097	3479.428	-4819.774	1	5944.463	-54.17422	-7.776995E-008	0.0005797	7
	54	169	1.201923	3910.995	-5867.432	1	7051.429	-56.31416	-9.056985E-008	0.0006113	7
	55	175	0.956633	4409.489	-7140.696	1	8392.445	-58.30404	-9.081886E-008	-3.919086E-006	7
