EXPLAIN
TAG	EISPOT
TITLE	LABEL	Potentiostatic EIS	Test Identifier
DATE	LABEL	9/11/2020	Date
TIME	LABEL	15:08:57	Time
NOTES	NOTES	1	Notes...
	
PSTAT	PSTAT	REF3000-16137	Potentiostat
VDC	POTEN	0.00000E+000	T	DC Voltage (V)
FREQINIT	QUANT	3.00000E+005	Initial Freq. (Hz)
FREQFINAL	QUANT	1.00000E+000	Final Freq. (Hz)
PTSPERDEC	QUANT	1.00000E+001	Points/decade
VAC	QUANT	5.00000E+001	AC Voltage (mV rms)
AREA	QUANT	1.00000E+000	Sample Area (cm^2)
SPEED	SELECTOR	2	Optimize for:
ZGUESS	QUANT	1.00000E+003	Estimated Z (ohms)
EOC	QUANT	0	Open Circuit (V)
SEQUENCER	TOGGLE	TRUE	Run as Sequence
PSTATMODEL	IQUANT	5	Pstat Model
PSTATSECTION	LABEL	REF3000-16137	Pstat Section
PSTATSERIALNO	LABEL	16137	Pstat Serial Number
CTRLMODE	IQUANT	1	Control Mode
IESTAB	IQUANT	0	I/E Stability
CASPEED	IQUANT	1	Control Amp Speed
CONVENTION	IQUANT	1	Current Convention
ICHRANGE	IQUANT	2	Ich Range
ICHRANGEMODE	TOGGLE	F	Ich Auto Range
ICHOFFSETENABLE	TOGGLE	T	Ich Offset Enable
ICHOFFSET	QUANT	0	Ich Offset (V)
ICHFILTER	IQUANT	3	Ich Filter
VCHRANGE	IQUANT	2	Vch Range
VCHRANGEMODE	TOGGLE	F	Vch Auto Range
VCHOFFSETENABLE	TOGGLE	T	Vch Offset Enable
VCHOFFSET	QUANT	0	Vch Offset (V)
VCHFILTER	IQUANT	3	Vch Filter
ACHRANGE	IQUANT	2	Ach Range
ACHOFFSETENABLE	TOGGLE	F	Ach Offset Enable
ACHOFFSET	QUANT	0	Ach Offset (V)
ACHFILTER	IQUANT	3	Ach Filter
IERANGELOWERLIMIT	IQUANT	2	I/E Range Lower Limit
IERANGEMODE	TOGGLE	F	I/E AutoRange
IERANGE	IQUANT	11	I/E Range
POSFEEDENABLE	TOGGLE	F	Positive Feedback IR Comp
POSFEEDRESISTANCE	QUANT	0	Positive Feedback Resistance (ohm)
ACHSELECT	IQUANT	0	Ach Select
CABLEID	IQUANT	13	Cable ID
DCCALDATE	LABEL	7/31/2020	DC Calibration Date
ACCALDATE	LABEL	7/31/2020	AC Calibration Date
THERMOSELECT	IQUANT	1	Thermo Select
FRAMEWORKVERSION	QUANT	6.33	Framework Version
INSTRUMENTVERSION	LABEL	3.50	Instrument Version
COMPLIANCEVOLTAGE	IQUANT	0	Compliance Voltage
ZCURVE	TABLE
	Pt	Time	Freq	Zreal	Zimag	Zsig	Zmod	Zphz	Idc	Vdc	IERange
	#	s	Hz	ohm	ohm	V	ohm	°	A	V	#
	0	10	300046.9	5.322317	2.285947	1	5.792461	23.24363	-8.899356E-005	-0.0002569	10
	1	13	238359.4	5.279169	1.803366	1	5.578687	18.86018	0.0003929	-0.0006778	10
	2	16	189328.1	5.277851	1.414389	1	5.464084	15.00196	0.0002498	-5.510316E-006	10
	3	19	150421.9	5.279284	1.091411	1	5.39092	11.68047	0.0004536	-0.0012667	10
	4	21	119484.4	5.287415	0.8464601	1	5.354741	9.095283	0.0003072	0.0002194	10
	5	24	94921.88	5.300627	0.6543052	1	5.340858	7.036948	-5.879887E-005	0.0003963	10
	6	26	75421.88	5.311106	0.4709728	1	5.331947	5.067561	-0.0001551	0.0007541	10
	7	29	59859.37	5.322572	0.3108191	1	5.331639	3.342072	-7.764142E-005	0.0009305	10
	8	31	47578.12	5.338691	0.170057	1	5.341399	1.824465	0.0001127	0.0001429	10
	9	34	37828.12	5.357607	0.0409894	1	5.357764	0.4383441	-2.76666E-006	0.0003533	10
	10	36	30046.88	5.378647	-0.0833428	1	5.379292	-0.8877342	-0.0001252	0.001044	10
	11	39	23859.38	5.399664	-0.2101286	1	5.403751	-2.228548	0.0001052	0.0001885	10
	12	41	18984.38	5.4231	-0.3436291	1	5.433976	-3.62564	-5.441518E-005	0.0005188	10
	13	43	15046.87	5.450219	-0.493496	1	5.472515	-5.1738	0.0001111	0.0001826	10
	14	46	11953.13	5.479702	-0.6615129	1	5.519487	-6.88347	-1.578319E-005	0.0008932	10
	15	48	9515.62	5.516917	-0.8618626	1	5.583832	-8.879081	0.0001829	0.0003201	10
	16	50	7546.875	5.559776	-1.102972	1	5.668127	-11.22089	0.0001103	0.0001941	10
	17	53	5928.309	5.617824	-1.405562	1	5.790989	-14.04686	-0.0001533	0.0011247	10
	18	56	4733.456	5.678657	-1.749786	1	5.942129	-17.12583	-0.0001801	0.0009854	10
	19	58	3796.875	5.753236	-2.154366	1	6.143372	-20.529	4.28878E-005	0.0007536	10
	20	60	2987.132	5.84293	-2.692963	1	6.433652	-24.74462	0.0001515	0.0004433	10
	21	63	2390.625	5.949464	-3.306376	1	6.806486	-29.06284	-5.747906E-005	0.0005159	10
	22	65	1884.191	6.084599	-4.105386	1	7.340064	-34.00823	-0.0001708	0.0009533	10
	23	67	1516.544	6.215873	-5.000559	1	7.977635	-38.81606	0.0001784	0.0002946	10
	24	70	1193.986	6.395743	-6.220122	1	8.921629	-44.20246	0.0001115	0.0005857	10
	25	72	946.5144	6.599046	-7.685675	1	10.13	-49.35007	0.0001093	0.0006289	10
	26	74	751.7689	6.846679	-9.49742	1	11.70803	-54.21221	0.0001765	0.0001697	10
	27	77	597.4265	7.152855	-11.7325	1	13.74099	-58.63094	5.678882E-005	0.0002631	10
	28	79	477.4305	7.51933	-14.42907	1	16.27078	-62.47491	-2.993876E-006	0.0006534	10
	29	81	376.6741	8.014133	-17.96139	1	19.6682	-65.95421	-3.00432E-006	0.0006477	10
	30	84	298.2954	8.642844	-22.2845	1	23.90183	-68.80166	-3.013923E-006	0.0006461	10
	31	86	237.7717	9.431655	-27.47392	1	29.04776	-71.05292	-2.942444E-006	0.0006524	10
	32	88	189.0121	10.4612	-33.93467	1	35.51054	-72.86679	-3.117744E-006	0.0006538	10
	33	91	150.2404	11.7784	-41.83226	1	43.45882	-74.27477	1.660917E-007	5.169211E-005	9
	34	93	119.1737	13.5174	-51.68869	1	53.42697	-75.34447	2.642958E-007	6.01323E-005	9
	35	96	95.0169	15.72234	-63.49926	1	65.41673	-76.09332	1.604131E-007	6.210093E-005	9
	36	98	75.60484	18.6043	-78.07366	1	80.25968	-76.59686	2.938032E-007	4.897036E-005	9
	37	101	54.50582	24.27977	-104.7233	1	107.5011	-76.94678	9.516793E-008	5.893121E-005	9
	38	103	45.95588	28.20484	-121.9305	1	125.1501	-76.97548	1.096013E-007	5.770505E-005	9
	39	106	37.20238	34.29281	-147.0349	1	150.981	-76.87165	1.411623E-007	5.500564E-005	9
	40	108	30.04808	42.14056	-177.3911	1	182.3278	-76.63667	3.326157E-007	5.421794E-005	9
	41	110	23.91582	52.90948	-216.0821	1	222.4655	-76.24136	1.110851E-007	4.191593E-005	9
	42	113	18.60119	68.60918	-268.022	1	276.6641	-75.64156	3.438793E-007	5.498609E-005	9
	43	115	15.02404	85.85914	-320.8902	1	332.1781	-75.02052	3.795776E-007	5.049414E-005	9
	44	117	12.01923	108.5181	-385.9656	1	400.931	-74.29613	1.868964E-007	4.848874E-005	9
	45	120	9.450605	138.3972	-466.7823	1	486.867	-73.48534	2.111159E-007	0.0006408	8
	46	122	7.512019	174.3783	-559.4848	1	586.0299	-72.68896	1.616825E-007	0.0006232	8
	47	125	5.978954	217.2467	-668.1193	1	702.5521	-71.98747	3.449589E-007	0.0006291	8
	48	128	4.734848	268.4917	-798.6579	1	842.5807	-71.41846	2.723772E-007	0.0006002	8
	49	131	3.75601	327.9203	-951.714	1	1006.624	-70.98822	4.37119E-007	0.0005912	8
	50	135	3.004808	392.7613	-1126.547	1	1193.051	-70.77931	3.309584E-007	0.0006498	8
	51	138	2.372217	469.9608	-1347.248	1	1426.864	-70.76968	2.911084E-007	0.0006473	8
	52	142	1.878005	558.3449	-1615.337	1	1709.111	-70.93217	3.37472E-007	0.0006113	8
	53	147	1.512097	648.2932	-1916.629	1	2023.302	-71.31207	3.281041E-007	0.0007302	8
	54	153	1.201923	757.9067	-2306.836	1	2428.151	-71.81216	3.406751E-007	0.0006175	8
	55	159	0.956633	884.4929	-2785.263	1	2922.331	-72.38215	2.86582E-007	-5.263293E-006	8
