EXPLAIN
TAG	EISPOT
TITLE	LABEL	Potentiostatic EIS	Test Identifier
DATE	LABEL	9/11/2020	Date
TIME	LABEL	16:09:52	Time
NOTES	NOTES	1	Notes...
	
PSTAT	PSTAT	REF3000-16137	Potentiostat
VDC	POTEN	0.00000E+000	T	DC Voltage (V)
FREQINIT	QUANT	3.00000E+005	Initial Freq. (Hz)
FREQFINAL	QUANT	1.00000E+000	Final Freq. (Hz)
PTSPERDEC	QUANT	1.00000E+001	Points/decade
VAC	QUANT	5.00000E+001	AC Voltage (mV rms)
AREA	QUANT	1.00000E+000	Sample Area (cm^2)
SPEED	SELECTOR	2	Optimize for:
ZGUESS	QUANT	1.00000E+003	Estimated Z (ohms)
EOC	QUANT	0	Open Circuit (V)
SEQUENCER	TOGGLE	TRUE	Run as Sequence
PSTATMODEL	IQUANT	5	Pstat Model
PSTATSECTION	LABEL	REF3000-16137	Pstat Section
PSTATSERIALNO	LABEL	16137	Pstat Serial Number
CTRLMODE	IQUANT	1	Control Mode
IESTAB	IQUANT	0	I/E Stability
CASPEED	IQUANT	1	Control Amp Speed
CONVENTION	IQUANT	1	Current Convention
ICHRANGE	IQUANT	2	Ich Range
ICHRANGEMODE	TOGGLE	F	Ich Auto Range
ICHOFFSETENABLE	TOGGLE	T	Ich Offset Enable
ICHOFFSET	QUANT	0	Ich Offset (V)
ICHFILTER	IQUANT	3	Ich Filter
VCHRANGE	IQUANT	2	Vch Range
VCHRANGEMODE	TOGGLE	F	Vch Auto Range
VCHOFFSETENABLE	TOGGLE	T	Vch Offset Enable
VCHOFFSET	QUANT	0	Vch Offset (V)
VCHFILTER	IQUANT	3	Vch Filter
ACHRANGE	IQUANT	2	Ach Range
ACHOFFSETENABLE	TOGGLE	F	Ach Offset Enable
ACHOFFSET	QUANT	0	Ach Offset (V)
ACHFILTER	IQUANT	3	Ach Filter
IERANGELOWERLIMIT	IQUANT	2	I/E Range Lower Limit
IERANGEMODE	TOGGLE	F	I/E AutoRange
IERANGE	IQUANT	11	I/E Range
POSFEEDENABLE	TOGGLE	F	Positive Feedback IR Comp
POSFEEDRESISTANCE	QUANT	0	Positive Feedback Resistance (ohm)
ACHSELECT	IQUANT	0	Ach Select
CABLEID	IQUANT	13	Cable ID
DCCALDATE	LABEL	7/31/2020	DC Calibration Date
ACCALDATE	LABEL	7/31/2020	AC Calibration Date
THERMOSELECT	IQUANT	1	Thermo Select
FRAMEWORKVERSION	QUANT	6.33	Framework Version
INSTRUMENTVERSION	LABEL	3.50	Instrument Version
COMPLIANCEVOLTAGE	IQUANT	0	Compliance Voltage
ZCURVE	TABLE
	Pt	Time	Freq	Zreal	Zimag	Zsig	Zmod	Zphz	Idc	Vdc	IERange
	#	s	Hz	ohm	ohm	V	ohm	°	A	V	#
	0	21	300046.9	209.7111	-3358.907	1	3365.447	-86.42741	-6.220726E-005	0.0004285	9
	1	35	238359.4	461.1275	-4075.582	1	4101.586	-83.54478	-1.947064E-006	0.0015562	9
	2	52	189328.1	435.4387	-5194.669	1	5212.888	-85.20844	2.084432E-005	-0.0003902	9
	3	59	150421.9	721.1913	-6222.654	1	6264.307	-83.38905	1.908246E-005	-0.0003504	9
	4	67	119484.4	1060.381	-7955.024	1	8025.386	-82.4074	3.908305E-005	-0.0180097	8
	5	74	94921.88	1351.351	-9839.91	1	9932.27	-82.18027	-1.405622E-006	0.0075423	8
	6	83	75421.88	1626.039	-12322.82	1	12429.64	-82.48305	2.191056E-005	-0.0096919	8
	7	91	59859.37	1992.407	-15343.49	1	15472.31	-82.60133	2.194185E-005	-0.009768	8
	8	100	47578.12	2778.753	-19001.6	1	19203.71	-81.68016	-2.692119E-005	0.0098176	8
	9	108	37828.12	3383.769	-23648.85	1	23889.71	-81.85717	2.36115E-005	-0.0031103	8
	10	117	30046.88	4834.743	-29142.85	1	29541.16	-80.58053	2.52916E-005	-0.0009684	9
	11	126	23859.38	6122.322	-38529.9	1	39013.28	-80.9713	7.753601E-006	-0.0076968	8
	12	132	18984.38	10978.92	-45030.79	1	46349.85	-76.29809	-6.988618E-006	0.018573	7
	13	137	15046.87	8944.397	-54214.25	1	54947.13	-80.6316	7.156401E-006	-0.0075832	8
	14	144	11953.13	18866.26	-68336.91	1	70893.36	-74.56639	6.342044E-006	-0.0257806	7
	15	149	9515.62	20523.15	-81498.44	1	84042.81	-75.86552	-1.003135E-005	-0.0020121	8
	16	157	7546.875	29862.97	-106468.8	1	110577.6	-74.33195	-2.435426E-005	0.0054429	8
	17	164	5928.309	43502.84	-111661	1	119836	-68.71424	-1.947693E-005	0.0113313	8
	18	173	4733.456	62984.16	-153940.3	1	166326.8	-67.74824	7.019547E-007	0.0143531	7
	19	179	3796.875	95923.6	-181941.3	1	205679.3	-62.20078	-5.217007E-007	0.0249038	6
	20	184	2987.132	126223.5	-216275.3	1	250414.5	-59.73114	-6.361894E-007	0.024736	6
	21	188	2390.625	148474.3	-251866.3	1	292371.8	-59.48079	-6.830915E-007	0.0165147	6
	22	193	1884.191	199270.3	-285321.4	1	348018.7	-55.06931	5.401239E-007	-0.0257602	6
	23	199	1516.544	255880.6	-326246.8	1	414622.6	-51.89235	-4.730203E-007	0.0019168	6
	24	204	1193.986	241205	-474939.3	1	532679.3	-63.07558	8.74606E-007	-0.0178252	7
	25	211	946.5144	287201.3	-154738.5	1	326234	-28.31493	-5.398377E-006	0.0048347	7
	26	215	751.7689	631631.1	-904665.2	1	1103348	-55.07752	1.032522E-006	-0.0180406	7
	27	220	597.4265	579917.5	-441472.3	1	728836.1	-37.28084	-7.038296E-007	0.0175777	6
	28	225	477.4305	680857.1	-449652.6	1	815937.4	-33.44162	-1.026253E-008	0.0005984	6
	29	230	376.6741	854795.2	-368515.3	1	930848.2	-23.32162	-1.146093E-009	0.0005976	5
	30	232	298.2954	928379.4	-339208.4	1	988408	-20.07113	-1.339051E-009	0.0006492	5
	31	235	237.7717	991255	-317600.6	1	1040892	-17.7656	-1.310852E-009	0.000669	5
	32	237	189.0121	1053316	-284089.8	1	1090954	-15.09408	-1.25425E-009	0.0006647	5
	33	240	150.2404	1108614	-250174.4	1	1136491	-12.71659	-1.19032E-009	0.0005776	5
	34	243	119.1737	1211362	-188769.2	1	1225982	-8.857289	-1.08588E-009	0.0005742	5
	35	246	95.0169	1203034	-197469.8	1	1219133	-9.321589	-1.255983E-009	0.0006699	5
	36	248	75.60484	1253885	-167966.4	1	1265085	-7.629739	-1.218065E-009	0.0006099	5
	37	251	54.50582	1284326	-143552	1	1292324	-6.377606	-1.170092E-009	0.0006374	5
	38	254	45.95588	1321658	-116290.5	1	1326764	-5.02841	-1.118292E-009	0.0005754	5
	39	257	37.20238	1364857	-102632.5	1	1368711	-4.300348	-1.338159E-009	0.0006418	5
	40	259	30.04808	1388107	-90546.31	1	1391057	-3.732121	-1.203023E-009	0.0006297	5
	41	262	23.91582	1431869	-82711.48	1	1434256	-3.306	-1.334739E-009	0.0005782	5
	42	265	18.60119	1445392	-57533.91	1	1446536	-2.279459	-1.019393E-009	0.0005904	5
	43	267	15.02404	1486184	-57331.62	1	1487290	-2.209169	-1.199443E-009	0.00061	5
	44	270	12.01923	1516838	-47947.44	1	1517595	-1.810524	-1.249986E-009	0.0005895	5
	45	272	9.450605	1550600	-41029.08	1	1551142	-1.515701	-1.344382E-009	0.0006412	5
	46	275	7.512019	1585834	-36740.35	1	1586260	-1.327182	-1.175309E-009	0.0006218	5
	47	278	5.978954	1632990	-30022.29	1	1633266	-1.053256	-1.232803E-009	0.0006676	5
	48	282	4.734848	1682693	-27017.53	1	1682910	-0.9198692	-1.125138E-009	0.0005972	5
	49	286	3.75601	1743210	-24051.94	1	1743376	-0.7904882	-1.094114E-009	0.0006205	5
	50	291	3.004808	1825828	-23305.63	1	1825977	-0.7313074	-1.002367E-009	0.000552	5
	51	298	2.372217	1902353	-20949.69	1	1902468	-0.6309453	-1.109193E-009	0.0005597	5
	52	302	1.878005	1970305	-21626.62	1	1970424	-0.6288692	-9.925401E-010	0.0006201	5
	53	307	1.512097	2051530	-21985.08	1	2051648	-0.613983	-9.929284E-010	0.0006775	5
	54	312	1.201923	2146975	-24654.39	1	2147116	-0.6579168	-1.029091E-009	0.0006314	5
	55	318	0.956633	2258943	-27406.96	1	2259110	-0.6951153	-1.53491E-009	-1.35204E-005	5
