EXPLAIN
TAG	EISPOT
TITLE	LABEL	Potentiostatic EIS	Test Identifier
DATE	LABEL	9/11/2020	Date
TIME	LABEL	14:57:43	Time
NOTES	NOTES	1	Notes...
	
PSTAT	PSTAT	REF3000-16137	Potentiostat
VDC	POTEN	0.00000E+000	T	DC Voltage (V)
FREQINIT	QUANT	3.00000E+005	Initial Freq. (Hz)
FREQFINAL	QUANT	1.00000E+000	Final Freq. (Hz)
PTSPERDEC	QUANT	1.00000E+001	Points/decade
VAC	QUANT	5.00000E+001	AC Voltage (mV rms)
AREA	QUANT	1.00000E+000	Sample Area (cm^2)
SPEED	SELECTOR	2	Optimize for:
ZGUESS	QUANT	1.00000E+003	Estimated Z (ohms)
EOC	QUANT	0	Open Circuit (V)
SEQUENCER	TOGGLE	TRUE	Run as Sequence
PSTATMODEL	IQUANT	5	Pstat Model
PSTATSECTION	LABEL	REF3000-16137	Pstat Section
PSTATSERIALNO	LABEL	16137	Pstat Serial Number
CTRLMODE	IQUANT	1	Control Mode
IESTAB	IQUANT	0	I/E Stability
CASPEED	IQUANT	1	Control Amp Speed
CONVENTION	IQUANT	1	Current Convention
ICHRANGE	IQUANT	2	Ich Range
ICHRANGEMODE	TOGGLE	F	Ich Auto Range
ICHOFFSETENABLE	TOGGLE	T	Ich Offset Enable
ICHOFFSET	QUANT	0	Ich Offset (V)
ICHFILTER	IQUANT	3	Ich Filter
VCHRANGE	IQUANT	2	Vch Range
VCHRANGEMODE	TOGGLE	F	Vch Auto Range
VCHOFFSETENABLE	TOGGLE	T	Vch Offset Enable
VCHOFFSET	QUANT	0	Vch Offset (V)
VCHFILTER	IQUANT	3	Vch Filter
ACHRANGE	IQUANT	2	Ach Range
ACHOFFSETENABLE	TOGGLE	F	Ach Offset Enable
ACHOFFSET	QUANT	0	Ach Offset (V)
ACHFILTER	IQUANT	3	Ach Filter
IERANGELOWERLIMIT	IQUANT	2	I/E Range Lower Limit
IERANGEMODE	TOGGLE	F	I/E AutoRange
IERANGE	IQUANT	11	I/E Range
POSFEEDENABLE	TOGGLE	F	Positive Feedback IR Comp
POSFEEDRESISTANCE	QUANT	0	Positive Feedback Resistance (ohm)
ACHSELECT	IQUANT	0	Ach Select
CABLEID	IQUANT	13	Cable ID
DCCALDATE	LABEL	7/31/2020	DC Calibration Date
ACCALDATE	LABEL	7/31/2020	AC Calibration Date
THERMOSELECT	IQUANT	1	Thermo Select
FRAMEWORKVERSION	QUANT	6.33	Framework Version
INSTRUMENTVERSION	LABEL	3.50	Instrument Version
COMPLIANCEVOLTAGE	IQUANT	0	Compliance Voltage
ZCURVE	TABLE
	Pt	Time	Freq	Zreal	Zimag	Zsig	Zmod	Zphz	Idc	Vdc	IERange
	#	s	Hz	ohm	ohm	V	ohm	°	A	V	#
	0	10	300046.9	3.136759	2.298543	1	3.888773	36.23308	-0.0001109	-0.0001875	10
	1	14	238359.4	3.086759	1.811743	1	3.579175	30.41039	0.0003976	-0.0010142	10
	2	17	189328.1	3.080119	1.431413	1	3.39648	24.92554	-0.0004574	0.0005571	10
	3	19	150421.9	3.118757	0.914047	1	3.249943	16.33483	0.000262	-0.0001168	12
	4	23	119484.4	3.071464	0.8333789	1	3.182516	15.18055	-0.0003435	0.0004507	11
	5	25	94921.88	3.071073	0.6278968	1	3.134604	11.55517	-0.0001959	0.000543	11
	6	28	75421.88	3.07156	0.4541954	1	3.10496	8.411444	0.0001495	0.0005614	11
	7	30	59859.37	3.077561	0.305187	1	3.092656	5.663232	-7.914173E-005	0.0005638	11
	8	33	47578.12	3.084614	0.1735272	1	3.089491	3.219821	0.0002117	0.0006521	11
	9	35	37828.12	3.092665	0.0528003	1	3.093115	0.978102	-0.0001625	0.0006485	11
	10	38	30046.88	3.10386	-0.0644321	1	3.104529	-1.189216	-1.614769E-005	0.0006064	11
	11	41	23859.38	3.116911	-0.1831769	1	3.122289	-3.363333	0.0002087	0.0006653	11
	12	43	18984.38	3.132707	-0.3074451	1	3.147757	-5.605082	-0.0002006	0.0007255	11
	13	45	15046.87	3.150815	-0.4476334	1	3.182454	-8.085847	-0.000257	0.0006775	11
	14	47	11953.13	3.173261	-0.604584	1	3.230342	-10.78697	-0.0001679	0.0006863	11
	15	50	9515.62	3.200994	-0.7859703	1	3.296076	-13.79545	-0.0001748	0.0006849	11
	16	52	7546.875	3.23565	-1.004418	1	3.387962	-17.2455	-0.0002336	0.0006148	11
	17	54	5928.309	3.278522	-1.277567	1	3.518648	-21.28976	-2.37365E-005	0.0006328	11
	18	57	4733.456	3.329561	-1.586777	1	3.688338	-25.48118	-0.0001527	0.0008519	10
	19	59	3796.875	3.385264	-1.953981	1	3.908715	-29.99363	5.93724E-005	0.0004357	10
	20	61	2987.132	3.455239	-2.439895	1	4.229866	-35.22758	0.0001543	0.0003746	10
	21	64	2390.625	3.532854	-2.998813	1	4.633998	-40.32579	-2.600424E-005	0.0007737	10
	22	66	1884.191	3.63227	-3.733095	1	5.208588	-45.78428	-9.181999E-005	0.0006987	10
	23	68	1516.544	3.741594	-4.564313	1	5.901905	-50.65683	-0.0001315	0.0007894	10
	24	70	1193.986	3.889143	-5.696475	1	6.897482	-55.67755	0.0001654	0.0003824	10
	25	73	946.5144	4.068446	-7.064733	1	8.152467	-60.06318	-3.154447E-005	0.0007858	10
	26	75	751.7689	4.300133	-8.752856	1	9.75211	-63.83588	-0.0001548	0.0009277	10
	27	78	597.4265	4.602179	-10.82341	1	11.76122	-66.96452	0.0001342	0.0003669	10
	28	80	477.4305	4.977158	-13.31064	1	14.21074	-69.49806	-1.835093E-006	0.000651	10
	29	82	376.6741	5.492949	-16.55768	1	17.44503	-71.64693	-2.545144E-006	0.0006547	10
	30	84	298.2954	6.155483	-20.50856	1	21.41241	-73.29329	-2.396757E-006	0.0006618	10
	31	87	237.7717	6.992277	-25.22681	1	26.17793	-74.50788	-2.733565E-006	0.0006566	10
	32	89	189.0121	8.091928	-31.08013	1	32.11625	-75.40662	-3.306394E-006	0.0006629	10
	33	92	150.2404	9.51926	-38.24297	1	39.40991	-76.02226	-2.578865E-006	0.0006592	10
	34	94	119.1737	11.3827	-47.03341	1	48.39119	-76.39526	3.228228E-008	5.326766E-005	9
	35	96	95.0169	13.77178	-57.56184	1	59.18637	-76.54481	-6.25077E-008	5.606879E-005	9
	36	99	75.60484	16.90906	-70.46323	1	72.46367	-76.5059	-2.243577E-007	5.600162E-005	9
	37	101	54.50582	23.12508	-93.7824	1	96.5915	-76.14821	-1.411418E-007	4.39705E-005	9
	38	104	45.95588	27.42543	-108.6608	1	112.0684	-75.83468	-6.28857E-008	5.590013E-005	9
	39	106	37.20238	34.03422	-130.0917	1	134.47	-75.33904	-2.872291E-009	5.234961E-005	9
	40	109	30.04808	42.50938	-155.6229	1	161.3243	-74.722	4.872924E-007	-1.272795E-005	9
	41	111	23.91582	53.86422	-187.742	1	195.3162	-73.99152	-3.905803E-008	5.222857E-005	9
	42	113	18.60119	69.67277	-229.8217	1	240.1506	-73.13479	-1.213174E-007	4.967404E-005	9
	43	116	15.02404	86.05103	-271.9492	1	285.2387	-72.44142	-1.881106E-007	5.834543E-005	9
	44	118	12.01923	106.6438	-322.9789	1	340.1298	-71.72739	7.424946E-008	6.088436E-005	9
	45	120	9.450605	132.7261	-387.8189	1	409.9021	-71.10714	1.472896E-007	5.267144E-005	9
	46	123	7.512019	160.5627	-459.2294	1	486.4895	-70.72858	2.111309E-007	0.0005921	8
	47	126	5.978954	192.9308	-545.7625	1	578.8601	-70.53114	4.813843E-008	0.0006252	8
	48	129	4.734848	230.0822	-652.5254	1	691.9012	-70.57721	1.388893E-007	0.0006595	8
	49	132	3.75601	272.6327	-780.7142	1	826.9482	-70.75032	1.714963E-008	0.0006253	8
	50	135	3.004808	319.487	-930.9699	1	984.265	-71.05898	1.038434E-007	0.0006016	8
	51	139	2.372217	378.3114	-1126.055	1	1187.905	-71.42962	4.378944E-008	0.0005976	8
	52	143	1.878005	452.7024	-1366.022	1	1439.082	-71.6647	9.686774E-009	0.0006365	8
	53	148	1.512097	538.7197	-1637.248	1	1723.601	-71.78674	2.059404E-008	0.0005186	8
	54	153	1.201923	656.2432	-1988.584	1	2094.068	-71.73684	2.407758E-008	0.0006529	8
	55	160	0.956633	811.9139	-2411.706	1	2544.707	-71.39392	-2.39569E-008	-7.137574E-006	8
