EXPLAIN
TAG	EISPOT
TITLE	LABEL	Potentiostatic EIS	Test Identifier
DATE	LABEL	9/11/2020	Date
TIME	LABEL	14:40:34	Time
NOTES	NOTES	1	Notes...
	
PSTAT	PSTAT	REF3000-16137	Potentiostat
VDC	POTEN	0.00000E+000	T	DC Voltage (V)
FREQINIT	QUANT	3.00000E+005	Initial Freq. (Hz)
FREQFINAL	QUANT	1.00000E+000	Final Freq. (Hz)
PTSPERDEC	QUANT	1.00000E+001	Points/decade
VAC	QUANT	5.00000E+001	AC Voltage (mV rms)
AREA	QUANT	1.00000E+000	Sample Area (cm^2)
SPEED	SELECTOR	2	Optimize for:
ZGUESS	QUANT	1.00000E+003	Estimated Z (ohms)
EOC	QUANT	0	Open Circuit (V)
SEQUENCER	TOGGLE	TRUE	Run as Sequence
PSTATMODEL	IQUANT	5	Pstat Model
PSTATSECTION	LABEL	REF3000-16137	Pstat Section
PSTATSERIALNO	LABEL	16137	Pstat Serial Number
CTRLMODE	IQUANT	1	Control Mode
IESTAB	IQUANT	0	I/E Stability
CASPEED	IQUANT	1	Control Amp Speed
CONVENTION	IQUANT	1	Current Convention
ICHRANGE	IQUANT	2	Ich Range
ICHRANGEMODE	TOGGLE	F	Ich Auto Range
ICHOFFSETENABLE	TOGGLE	T	Ich Offset Enable
ICHOFFSET	QUANT	0	Ich Offset (V)
ICHFILTER	IQUANT	3	Ich Filter
VCHRANGE	IQUANT	2	Vch Range
VCHRANGEMODE	TOGGLE	F	Vch Auto Range
VCHOFFSETENABLE	TOGGLE	T	Vch Offset Enable
VCHOFFSET	QUANT	0	Vch Offset (V)
VCHFILTER	IQUANT	3	Vch Filter
ACHRANGE	IQUANT	2	Ach Range
ACHOFFSETENABLE	TOGGLE	F	Ach Offset Enable
ACHOFFSET	QUANT	0	Ach Offset (V)
ACHFILTER	IQUANT	3	Ach Filter
IERANGELOWERLIMIT	IQUANT	2	I/E Range Lower Limit
IERANGEMODE	TOGGLE	F	I/E AutoRange
IERANGE	IQUANT	11	I/E Range
POSFEEDENABLE	TOGGLE	F	Positive Feedback IR Comp
POSFEEDRESISTANCE	QUANT	0	Positive Feedback Resistance (ohm)
ACHSELECT	IQUANT	0	Ach Select
CABLEID	IQUANT	13	Cable ID
DCCALDATE	LABEL	7/31/2020	DC Calibration Date
ACCALDATE	LABEL	7/31/2020	AC Calibration Date
THERMOSELECT	IQUANT	1	Thermo Select
FRAMEWORKVERSION	QUANT	6.33	Framework Version
INSTRUMENTVERSION	LABEL	3.50	Instrument Version
COMPLIANCEVOLTAGE	IQUANT	0	Compliance Voltage
ZCURVE	TABLE
	Pt	Time	Freq	Zreal	Zimag	Zsig	Zmod	Zphz	Idc	Vdc	IERange
	#	s	Hz	ohm	ohm	V	ohm	°	A	V	#
	0	10	300046.9	2.024771	2.257955	1	3.03283	48.11655	-0.0005611	-0.000402	11
	1	14	238359.4	1.988727	1.785521	1	2.672662	41.91817	-6.410464E-006	-0.0001171	11
	2	18	189328.1	2.04576	1.270472	1	2.40816	31.84139	-0.0006585	-0.0001957	12
	3	21	150421.9	1.997124	0.994282	1	2.230942	26.46674	0.0003448	0.0004194	12
	4	25	119484.4	1.936861	0.8510215	1	2.115577	23.71982	-8.789878E-006	0.0002832	11
	5	28	94921.88	1.932852	0.6468067	1	2.038204	18.50223	-7.577255E-005	0.0004204	11
	6	30	75421.88	1.930714	0.4735205	1	1.987933	13.78018	7.584036E-005	0.0005175	11
	7	33	59859.37	1.931918	0.3250698	1	1.959076	9.55128	1.404845E-005	0.000559	11
	8	35	47578.12	1.934951	0.1965916	1	1.944912	5.801362	0.0001605	0.0006183	11
	9	38	37828.12	1.940344	0.0793253	1	1.941965	2.341067	-0.0001867	0.000593	11
	10	40	30046.88	1.946404	-0.0329558	1	1.946683	-0.970017	0.0001558	0.0006365	11
	11	43	23859.38	1.956606	-0.1443946	1	1.961927	-4.220691	0.0001111	0.000674	11
	12	45	18984.38	1.968439	-0.2597821	1	1.985508	-7.518085	6.860623E-005	0.000678	11
	13	47	15046.87	1.983005	-0.3869571	1	2.020407	-11.04176	-1.234031E-005	0.0006853	11
	14	50	11953.13	2.000403	-0.528747	1	2.069102	-14.80583	0.0001563	0.0006743	11
	15	52	9515.62	2.022303	-0.6913398	1	2.137208	-18.87339	0.0002034	0.0007213	11
	16	54	7546.875	2.047644	-0.8861318	1	2.23116	-23.40087	0.00018	0.0007312	11
	17	57	5928.309	2.079525	-1.130686	1	2.367039	-28.53397	3.512406E-005	0.000662	11
	18	59	4733.456	2.115518	-1.409171	1	2.541885	-33.66805	-0.0002101	0.0006462	11
	19	61	3796.875	2.15651	-1.74005	1	2.770976	-38.89944	0.0001572	0.0006757	11
	20	63	2987.132	2.212812	-2.185151	1	3.109891	-44.63964	0.0001915	0.0007318	11
	21	66	2390.625	2.279773	-2.694567	1	3.529597	-49.76668	-0.0001961	0.000655	11
	22	68	1884.191	2.369868	-3.369165	1	4.119169	-54.87748	-2.332008E-005	0.0005977	10
	23	70	1516.544	2.475094	-4.127749	1	4.812942	-59.05212	0.0001391	0.0004972	10
	24	73	1193.986	2.623593	-5.155474	1	5.784648	-63.0287	0.0001374	0.0005291	10
	25	75	946.5144	2.818957	-6.388412	1	6.982716	-66.19	0.0001328	0.0004835	10
	26	77	751.7689	3.064625	-7.900113	1	8.473707	-68.79765	0.0001057	0.0005783	10
	27	80	597.4265	3.385571	-9.74801	1	10.31919	-70.84742	6.608654E-005	0.0005179	10
	28	82	477.4305	3.787725	-11.95915	1	12.54464	-72.42586	-3.220375E-006	0.0006556	10
	29	84	376.6741	4.345517	-14.82207	1	15.44595	-73.65998	-3.627501E-006	0.0006504	10
	30	87	298.2954	5.063866	-18.28557	1	18.9738	-74.52087	-3.328935E-006	0.0006522	10
	31	89	237.7717	5.974864	-22.39425	1	23.1776	-75.06126	-3.660382E-006	0.0006448	10
	32	92	189.0121	7.174388	-27.45148	1	28.3735	-75.35346	-3.879955E-006	0.0006453	10
	33	94	150.2404	8.742076	-33.59421	1	34.71303	-75.41367	-4.127496E-006	0.0006555	10
	34	96	119.1737	10.80723	-41.09159	1	42.48899	-75.26472	-3.963882E-006	0.0006549	10
	35	99	95.0169	13.41781	-49.84928	1	51.62353	-74.93488	-1.482983E-006	4.166053E-005	9
	36	101	75.60484	16.82181	-60.46161	1	62.75811	-74.45221	-1.068348E-006	-1.284886E-005	9
	37	104	54.50582	23.39681	-79.19134	1	82.57529	-73.54041	-1.680856E-006	5.449786E-005	9
	38	106	45.95588	27.791	-90.92058	1	95.0731	-73.00358	-1.263572E-006	5.667354E-005	9
	39	109	37.20238	34.22567	-107.4401	1	112.7598	-72.33042	-1.413597E-006	5.588463E-005	9
	40	111	30.04808	42.06176	-126.9172	1	133.7056	-71.66424	-1.565795E-006	5.152254E-005	9
	41	113	23.91582	51.8442	-150.9574	1	159.6119	-71.04568	-1.587994E-006	5.335336E-005	9
	42	116	18.60119	64.7593	-182.7032	1	193.8407	-70.48309	-1.778214E-006	6.756397E-005	9
	43	118	15.02404	77.41415	-214.6536	1	228.1866	-70.16832	-1.38098E-006	6.210829E-005	9
	44	120	12.01923	92.53357	-254.2326	1	270.5488	-69.99991	-1.31445E-006	5.299413E-005	9
	45	123	9.450605	111.5392	-306.0266	1	325.7196	-69.97444	-1.478973E-006	4.20569E-005	9
	46	125	7.512019	132.9888	-366.2213	1	389.6204	-70.04213	-1.31496E-006	7.538329E-005	9
	47	128	5.978954	158.2841	-437.3263	1	465.0894	-70.10299	-1.341806E-006	0.000636	8
	48	131	4.734848	191.9055	-528.4832	1	562.2475	-70.04277	-1.226673E-006	0.000638	8
	49	134	3.75601	235.6105	-638.2114	1	680.3132	-69.73721	-1.372356E-006	0.0006223	8
	50	139	3.004808	291.5976	-764.2864	1	818.0238	-69.11669	-1.30789E-006	0.0006132	8
	51	142	2.372217	373.2059	-922.9269	1	995.528	-67.98296	-1.388948E-006	0.0005782	8
	52	146	1.878005	482.4918	-1108.882	1	1209.304	-66.48538	-1.295222E-006	0.0006237	8
	53	151	1.512097	614.9939	-1301.965	1	1439.906	-64.7159	-1.357686E-006	0.0006821	8
	54	157	1.201923	807.4078	-1528.58	1	1728.717	-62.15664	-1.307404E-006	0.0006352	8
	55	163	0.956633	1051.126	-1764.125	1	2053.534	-59.21206	-1.484595E-006	-5.044672E-005	8
