EXPLAIN
TAG	EISPOT
TITLE	LABEL	Potentiostatic EIS	Test Identifier
DATE	LABEL	9/11/2020	Date
TIME	LABEL	14:26:26	Time
NOTES	NOTES	1	Notes...
	
PSTAT	PSTAT	REF3000-16137	Potentiostat
VDC	POTEN	0.00000E+000	T	DC Voltage (V)
FREQINIT	QUANT	3.00000E+005	Initial Freq. (Hz)
FREQFINAL	QUANT	1.00000E+000	Final Freq. (Hz)
PTSPERDEC	QUANT	1.00000E+001	Points/decade
VAC	QUANT	5.00000E+001	AC Voltage (mV rms)
AREA	QUANT	1.00000E+000	Sample Area (cm^2)
SPEED	SELECTOR	2	Optimize for:
ZGUESS	QUANT	1.00000E+003	Estimated Z (ohms)
EOC	QUANT	0	Open Circuit (V)
SEQUENCER	TOGGLE	TRUE	Run as Sequence
PSTATMODEL	IQUANT	5	Pstat Model
PSTATSECTION	LABEL	REF3000-16137	Pstat Section
PSTATSERIALNO	LABEL	16137	Pstat Serial Number
CTRLMODE	IQUANT	1	Control Mode
IESTAB	IQUANT	0	I/E Stability
CASPEED	IQUANT	1	Control Amp Speed
CONVENTION	IQUANT	1	Current Convention
ICHRANGE	IQUANT	2	Ich Range
ICHRANGEMODE	TOGGLE	F	Ich Auto Range
ICHOFFSETENABLE	TOGGLE	T	Ich Offset Enable
ICHOFFSET	QUANT	0	Ich Offset (V)
ICHFILTER	IQUANT	3	Ich Filter
VCHRANGE	IQUANT	2	Vch Range
VCHRANGEMODE	TOGGLE	F	Vch Auto Range
VCHOFFSETENABLE	TOGGLE	T	Vch Offset Enable
VCHOFFSET	QUANT	0	Vch Offset (V)
VCHFILTER	IQUANT	3	Vch Filter
ACHRANGE	IQUANT	2	Ach Range
ACHOFFSETENABLE	TOGGLE	F	Ach Offset Enable
ACHOFFSET	QUANT	0	Ach Offset (V)
ACHFILTER	IQUANT	3	Ach Filter
IERANGELOWERLIMIT	IQUANT	2	I/E Range Lower Limit
IERANGEMODE	TOGGLE	F	I/E AutoRange
IERANGE	IQUANT	11	I/E Range
POSFEEDENABLE	TOGGLE	F	Positive Feedback IR Comp
POSFEEDRESISTANCE	QUANT	0	Positive Feedback Resistance (ohm)
ACHSELECT	IQUANT	0	Ach Select
CABLEID	IQUANT	13	Cable ID
DCCALDATE	LABEL	7/31/2020	DC Calibration Date
ACCALDATE	LABEL	7/31/2020	AC Calibration Date
THERMOSELECT	IQUANT	1	Thermo Select
FRAMEWORKVERSION	QUANT	6.33	Framework Version
INSTRUMENTVERSION	LABEL	3.50	Instrument Version
COMPLIANCEVOLTAGE	IQUANT	0	Compliance Voltage
ZCURVE	TABLE
	Pt	Time	Freq	Zreal	Zimag	Zsig	Zmod	Zphz	Idc	Vdc	IERange
	#	s	Hz	ohm	ohm	V	ohm	°	A	V	#
	0	10	300046.9	1.698402	2.25972	1	2.826818	53.07153	-0.0002959	-0.0006543	11
	1	13	238359.4	1.802665	1.628219	1	2.429135	42.08926	0.000157	-0.0002809	12
	2	17	189328.1	1.724495	1.293702	1	2.155817	36.87694	0.0002512	3.216061E-005	12
	3	21	150421.9	1.624134	1.105226	1	1.964519	34.23537	0.0003607	0.0001443	11
	4	23	119484.4	1.609716	0.8585189	1	1.824347	28.07259	-0.0001681	0.0003872	11
	5	26	94921.88	1.60011	0.6557152	1	1.729252	22.28352	-0.0002144	0.0003279	11
	6	28	75421.88	1.597964	0.4835573	1	1.669526	16.83626	-0.0001869	0.0004048	11
	7	31	59859.37	1.598777	0.3371684	1	1.633944	11.90869	-5.529326E-005	0.0004731	11
	8	34	47578.12	1.601016	0.2101831	1	1.614753	7.479081	-0.0001715	0.0005426	11
	9	36	37828.12	1.605121	0.0959201	1	1.607985	3.41986	-0.0002002	0.000552	11
	10	39	30046.88	1.611158	-0.0122164	1	1.611204	-0.4344281	-0.0002273	0.0005762	11
	11	41	23859.38	1.618195	-0.1190397	1	1.622568	-4.207286	8.857368E-005	0.0006297	11
	12	43	18984.38	1.629196	-0.227868	1	1.645054	-7.962043	-0.0001371	0.0006092	11
	13	46	15046.87	1.641582	-0.3476657	1	1.677994	-11.9578	-0.0001399	0.0005687	11
	14	48	11953.13	1.655891	-0.4803301	1	1.724149	-16.17605	-0.0002006	0.0006156	11
	15	50	9515.62	1.673484	-0.6324112	1	1.788992	-20.70163	-0.0001882	0.0006435	11
	16	53	7546.875	1.694989	-0.8149953	1	1.880746	-25.67948	-0.0002103	0.0005947	11
	17	55	5928.309	1.722606	-1.045065	1	2.014828	-31.24421	-0.0001524	0.0006093	11
	18	57	4733.456	1.754753	-1.306282	1	2.187586	-36.66491	0.0001828	0.0007222	11
	19	60	3796.875	1.79528	-1.618163	1	2.416916	-42.02971	-0.0001777	0.000624	11
	20	62	2987.132	1.850692	-2.034382	1	2.750231	-47.70699	-7.507218E-005	0.0006859	11
	21	64	2390.625	1.915448	-2.510307	1	3.157623	-52.65516	-0.000206	0.0006009	11
	22	66	1884.191	2.008859	-3.135649	1	3.723951	-57.35428	0.0001963	0.0007315	11
	23	69	1516.544	2.122446	-3.838599	1	4.386299	-61.06083	2.077713E-005	0.0005517	10
	24	71	1193.986	2.278631	-4.785584	1	5.300375	-64.53879	5.399323E-005	0.0006446	10
	25	74	946.5144	2.477419	-5.919361	1	6.416887	-67.28932	-0.0001469	0.0007465	10
	26	76	751.7689	2.74229	-7.300857	1	7.798889	-69.41322	-0.0001067	0.0007525	10
	27	78	597.4265	3.076852	-8.983501	1	9.495805	-71.09365	-0.000132	0.0007019	10
	28	80	477.4305	3.506572	-10.98356	1	11.52973	-72.29398	-6.531739E-006	0.0006489	10
	29	83	376.6741	4.097251	-13.56466	1	14.16995	-73.19289	-6.760913E-006	0.0006458	10
	30	85	298.2954	4.858529	-16.66749	1	17.36118	-73.74873	-6.449333E-006	0.0006561	10
	31	87	237.7717	5.821899	-20.3198	1	21.13737	-74.01227	-5.847124E-006	0.000646	10
	32	90	189.0121	7.086764	-24.77722	1	25.77077	-74.03844	-1.374292E-006	0.0005904	10
	33	92	150.2404	8.725921	-30.13472	1	31.37265	-73.85091	-6.113859E-006	0.0006501	10
	34	95	119.1737	10.85207	-36.59735	1	38.17241	-73.48354	-6.586121E-006	0.0006499	10
	35	97	95.0169	13.47577	-44.0449	1	46.06028	-72.98824	-3.829056E-006	4.470162E-005	9
	36	100	75.60484	16.80363	-52.97112	1	55.57249	-72.3998	-3.462692E-006	-1.675477E-005	9
	37	102	54.50582	22.94694	-68.54445	1	72.28349	-71.49077	-3.990341E-006	4.078713E-005	9
	38	105	45.95588	26.90646	-78.24796	1	82.7448	-71.02388	-3.631423E-006	4.963471E-005	9
	39	107	37.20238	32.52518	-91.94213	1	97.5256	-70.5184	-3.759694E-006	5.333584E-005	9
	40	109	30.04808	39.2262	-108.1871	1	115.0788	-70.07049	-4.08213E-006	5.307852E-005	9
	41	112	23.91582	47.36888	-128.4567	1	136.9122	-69.75837	-4.141382E-006	4.793144E-005	9
	42	114	18.60119	58.19966	-155.7583	1	166.2764	-69.51161	-3.736258E-006	4.498638E-005	9
	43	116	15.02404	69.19648	-183.7262	1	196.325	-69.36221	-3.799145E-006	4.532486E-005	9
	44	119	12.01923	83.15001	-218.8158	1	234.0818	-69.19321	-4.125027E-006	4.214755E-005	9
	45	121	9.450605	102.3445	-264.819	1	283.9076	-68.87	-3.974031E-006	5.824743E-005	9
	46	124	7.512019	126.3329	-318.1303	1	342.2965	-68.34145	-3.686089E-006	5.150984E-005	9
	47	126	5.978954	158.1167	-380.855	1	412.373	-67.45361	-3.787817E-006	5.40848E-005	9
	48	129	4.734848	201.7059	-454.4629	1	497.214	-66.06674	-3.681002E-006	0.000614	8
	49	133	3.75601	260.9074	-539.6879	1	599.4462	-64.19896	-3.57981E-006	0.0006421	8
	50	136	3.004808	336.7334	-629.7155	1	714.0945	-61.86485	-3.577738E-006	0.000621	8
	51	140	2.372217	442.9369	-729.2553	1	853.2329	-58.72624	-3.664423E-006	0.0005758	8
	52	144	1.878005	576.192	-827.5681	1	1008.398	-55.15254	-3.49901E-006	0.0006259	8
	53	149	1.512097	723.2256	-910.3953	1	1162.702	-51.53608	-3.526446E-006	0.0006972	8
	54	154	1.201923	907.5255	-979.241	1	1335.109	-47.17674	-3.42782E-006	0.0006319	8
	55	160	0.956633	1106.632	-1023.199	1	1507.173	-42.75666	-3.803711E-006	-2.981366E-006	8
