EXPLAIN
TAG	EISPOT
TITLE	LABEL	Potentiostatic EIS	Test Identifier
DATE	LABEL	9/11/2020	Date
TIME	LABEL	15:44:52	Time
NOTES	NOTES	1	Notes...
	
PSTAT	PSTAT	REF3000-16137	Potentiostat
VDC	POTEN	0.00000E+000	T	DC Voltage (V)
FREQINIT	QUANT	3.00000E+005	Initial Freq. (Hz)
FREQFINAL	QUANT	1.00000E+000	Final Freq. (Hz)
PTSPERDEC	QUANT	1.00000E+001	Points/decade
VAC	QUANT	5.00000E+001	AC Voltage (mV rms)
AREA	QUANT	1.00000E+000	Sample Area (cm^2)
SPEED	SELECTOR	2	Optimize for:
ZGUESS	QUANT	1.00000E+003	Estimated Z (ohms)
EOC	QUANT	0	Open Circuit (V)
SEQUENCER	TOGGLE	TRUE	Run as Sequence
PSTATMODEL	IQUANT	5	Pstat Model
PSTATSECTION	LABEL	REF3000-16137	Pstat Section
PSTATSERIALNO	LABEL	16137	Pstat Serial Number
CTRLMODE	IQUANT	1	Control Mode
IESTAB	IQUANT	0	I/E Stability
CASPEED	IQUANT	1	Control Amp Speed
CONVENTION	IQUANT	1	Current Convention
ICHRANGE	IQUANT	2	Ich Range
ICHRANGEMODE	TOGGLE	F	Ich Auto Range
ICHOFFSETENABLE	TOGGLE	T	Ich Offset Enable
ICHOFFSET	QUANT	0	Ich Offset (V)
ICHFILTER	IQUANT	3	Ich Filter
VCHRANGE	IQUANT	2	Vch Range
VCHRANGEMODE	TOGGLE	F	Vch Auto Range
VCHOFFSETENABLE	TOGGLE	T	Vch Offset Enable
VCHOFFSET	QUANT	0	Vch Offset (V)
VCHFILTER	IQUANT	3	Vch Filter
ACHRANGE	IQUANT	2	Ach Range
ACHOFFSETENABLE	TOGGLE	F	Ach Offset Enable
ACHOFFSET	QUANT	0	Ach Offset (V)
ACHFILTER	IQUANT	3	Ach Filter
IERANGELOWERLIMIT	IQUANT	2	I/E Range Lower Limit
IERANGEMODE	TOGGLE	F	I/E AutoRange
IERANGE	IQUANT	11	I/E Range
POSFEEDENABLE	TOGGLE	F	Positive Feedback IR Comp
POSFEEDRESISTANCE	QUANT	0	Positive Feedback Resistance (ohm)
ACHSELECT	IQUANT	0	Ach Select
CABLEID	IQUANT	13	Cable ID
DCCALDATE	LABEL	7/31/2020	DC Calibration Date
ACCALDATE	LABEL	7/31/2020	AC Calibration Date
THERMOSELECT	IQUANT	1	Thermo Select
FRAMEWORKVERSION	QUANT	6.33	Framework Version
INSTRUMENTVERSION	LABEL	3.50	Instrument Version
COMPLIANCEVOLTAGE	IQUANT	0	Compliance Voltage
ZCURVE	TABLE
	Pt	Time	Freq	Zreal	Zimag	Zsig	Zmod	Zphz	Idc	Vdc	IERange
	#	s	Hz	ohm	ohm	V	ohm	°	A	V	#
	0	15	300046.9	286.8705	-39.70288	1	289.6049	-7.879682	2.636789E-005	0.0005727	9
	1	20	238359.4	293.8772	-39.76101	1	296.5548	-7.705217	1.927491E-005	0.0006761	10
	2	25	189328.1	301.48	-34.01444	1	303.3928	-6.437168	-9.230652E-005	0.0007928	10
	3	30	150421.9	307.826	-25.43278	1	308.8749	-4.723085	-1.804356E-005	0.0014934	9
	4	34	119484.4	313.2573	-21.24855	1	313.9771	-3.880485	2.677538E-005	0.0008338	9
	5	38	94921.88	317.4606	-17.34356	1	317.934	-3.127084	-1.007586E-005	-0.0001368	9
	6	41	75421.88	320.9427	-14.71115	1	321.2797	-2.624447	-9.148259E-006	0.0008267	9
	7	43	59859.37	324.2216	-12.44136	1	324.4602	-2.197534	2.317055E-005	-0.0001817	9
	8	46	47578.12	326.6279	-10.18877	1	326.7867	-1.786695	2.70066E-005	-0.0004695	9
	9	48	37828.12	328.9319	-8.829737	1	329.0504	-1.537659	1.51576E-005	7.896192E-005	9
	10	51	30046.88	332.7314	-6.631713	1	332.7974	-1.141819	-1.725842E-005	0.0010343	9
	11	53	23859.38	335.2925	-6.116982	1	335.3483	-1.045172	-1.649475E-005	0.0000962	9
	12	56	18984.38	337.6683	-5.012266	1	337.7055	-0.850422	1.209357E-006	0.0006337	9
	13	58	15046.87	340.609	-4.513251	1	340.6389	-0.7591552	1.260546E-005	-0.000848	9
	14	61	11953.13	343.5919	-4.198564	1	343.6176	-0.7000981	2.30319E-005	-0.0009336	9
	15	63	9515.62	345.5263	-4.092904	1	345.5506	-0.6786608	2.237801E-005	-0.0008676	9
	16	65	7546.875	349.0064	-4.565126	1	349.0363	-0.749406	-2.188467E-005	0.0004457	9
	17	68	5928.309	350.8112	-3.603868	1	350.8297	-0.5885763	-2.529744E-005	0.0008857	9
	18	70	4733.456	353.4261	-3.673982	1	353.4452	-0.5955872	2.385688E-005	-0.0009137	9
	19	72	3796.875	355.5563	-4.859022	1	355.5895	-0.7829536	1.676444E-005	-0.0008868	9
	20	75	2987.132	359.2599	-5.557591	1	359.3029	-0.8862696	-9.273749E-006	0.0008748	9
	21	77	2390.625	362.5486	-6.877822	1	362.6139	-1.086814	1.598005E-005	-0.000925	9
	22	80	1884.191	365.5477	-7.381544	1	365.6223	-1.156823	2.330526E-005	-0.0008991	9
	23	83	1516.544	368.5451	-8.339456	1	368.6394	-1.29627	8.067179E-007	0.0006139	9
	24	85	1193.986	369.7521	-10.92674	1	369.9135	-1.692685	9.859369E-006	-0.0045602	8
	25	88	946.5144	373.2499	-12.26896	1	373.4515	-1.88267	-8.178448E-006	0.0057735	8
	26	90	751.7689	375.5223	-15.34642	1	375.8358	-2.340196	-1.354264E-005	0.0046922	8
	27	92	597.4265	379.4704	-19.04928	1	379.9482	-2.873816	-1.173895E-005	0.0026244	8
	28	95	477.4305	382.7122	-23.50004	1	383.433	-3.513775	-6.662224E-008	0.0006057	8
	29	97	376.6741	386.2562	-29.14625	1	387.3543	-4.315266	-9.964865E-008	0.0006298	8
	30	99	298.2954	389.9713	-36.06905	1	391.6358	-5.284341	-7.13616E-008	0.0006198	8
	31	102	237.7717	394.0366	-44.40081	1	396.5303	-6.429081	-6.446681E-008	0.0006081	8
	32	104	189.0121	398.4468	-54.82321	1	402.2007	-7.834267	-7.494636E-008	0.0006253	8
	33	106	150.2404	403.2435	-67.6823	1	408.8841	-9.52798	-6.632735E-008	0.000606	8
	34	109	119.1737	408.5976	-83.70746	1	417.0838	-11.57772	-9.599935E-008	0.0006286	8
	35	111	95.0169	414.5685	-102.9931	1	427.1705	-13.95179	-7.439969E-008	0.000602	8
	36	114	75.60484	421.5558	-126.8692	1	440.233	-16.74941	-6.989921E-008	0.0006056	8
	37	116	54.50582	431.9779	-170.6297	1	464.456	-21.55384	-1.004614E-007	0.0006209	8
	38	119	45.95588	439.8583	-199.048	1	482.7996	-24.34806	-1.360744E-007	0.0006713	8
	39	121	37.20238	449.898	-240.6895	1	510.2349	-28.1462	-7.941856E-008	0.0006072	8
	40	123	30.04808	461.5484	-291.4049	1	545.8422	-32.26683	-8.414456E-008	0.0006161	8
	41	126	23.91582	475.4946	-357.3503	1	594.8062	-36.9261	-7.489917E-008	0.0006135	8
	42	128	18.60119	492.9499	-447.4543	1	665.7439	-42.23026	-2.319208E-008	0.0006256	8
	43	131	15.02404	510.6501	-541.891	1	744.5867	-46.70012	-1.658763E-007	0.0006239	8
	44	133	12.01923	531.9326	-662.4339	1	849.571	-51.23563	-9.175361E-008	0.0006081	8
	45	135	9.450605	559.1252	-823.2878	1	995.2	-55.81813	-4.665602E-008	0.0006169	8
	46	138	7.512019	590.5211	-1014.972	1	1174.259	-59.80873	-8.204632E-008	0.0006395	8
	47	141	5.978954	629.7123	-1249.566	1	1399.269	-63.25441	-7.185827E-008	0.0006134	8
	48	144	4.734848	679.4503	-1546.659	1	1689.321	-66.28402	-7.50656E-008	0.0006587	8
	49	147	3.75601	741.7005	-1912.146	1	2050.957	-68.79928	-9.572415E-008	0.0006023	8
	50	150	3.004808	818.3294	-2344.003	1	2482.743	-70.75508	-9.846371E-008	0.0006363	8
	51	154	2.372217	924.1231	-2907.502	1	3050.831	-72.36761	-8.736096E-008	0.000672	8
	52	158	1.878005	1051.718	-3603.822	1	3754.15	-73.73096	-1.206893E-007	0.0005982	8
	53	163	1.512097	1202.382	-4390.556	1	4552.22	-74.68468	-1.540407E-008	0.0005478	7
	54	168	1.201923	1416.014	-5419.205	1	5601.149	-75.35628	-3.26355E-008	0.0005717	7
	55	175	0.956633	1681.305	-6659.251	1	6868.217	-75.83028	-3.639137E-008	-4.194642E-005	7
