EXPLAIN
TAG	EISPOT
TITLE	LABEL	Potentiostatic EIS	Test Identifier
DATE	LABEL	9/11/2020	Date
TIME	LABEL	15:47:56	Time
NOTES	NOTES	1	Notes...
	
PSTAT	PSTAT	REF3000-16137	Potentiostat
VDC	POTEN	0.00000E+000	T	DC Voltage (V)
FREQINIT	QUANT	3.00000E+005	Initial Freq. (Hz)
FREQFINAL	QUANT	1.00000E+000	Final Freq. (Hz)
PTSPERDEC	QUANT	1.00000E+001	Points/decade
VAC	QUANT	5.00000E+001	AC Voltage (mV rms)
AREA	QUANT	1.00000E+000	Sample Area (cm^2)
SPEED	SELECTOR	2	Optimize for:
ZGUESS	QUANT	1.00000E+003	Estimated Z (ohms)
EOC	QUANT	0	Open Circuit (V)
SEQUENCER	TOGGLE	TRUE	Run as Sequence
PSTATMODEL	IQUANT	5	Pstat Model
PSTATSECTION	LABEL	REF3000-16137	Pstat Section
PSTATSERIALNO	LABEL	16137	Pstat Serial Number
CTRLMODE	IQUANT	1	Control Mode
IESTAB	IQUANT	0	I/E Stability
CASPEED	IQUANT	1	Control Amp Speed
CONVENTION	IQUANT	1	Current Convention
ICHRANGE	IQUANT	2	Ich Range
ICHRANGEMODE	TOGGLE	F	Ich Auto Range
ICHOFFSETENABLE	TOGGLE	T	Ich Offset Enable
ICHOFFSET	QUANT	0	Ich Offset (V)
ICHFILTER	IQUANT	3	Ich Filter
VCHRANGE	IQUANT	2	Vch Range
VCHRANGEMODE	TOGGLE	F	Vch Auto Range
VCHOFFSETENABLE	TOGGLE	T	Vch Offset Enable
VCHOFFSET	QUANT	0	Vch Offset (V)
VCHFILTER	IQUANT	3	Vch Filter
ACHRANGE	IQUANT	2	Ach Range
ACHOFFSETENABLE	TOGGLE	F	Ach Offset Enable
ACHOFFSET	QUANT	0	Ach Offset (V)
ACHFILTER	IQUANT	3	Ach Filter
IERANGELOWERLIMIT	IQUANT	2	I/E Range Lower Limit
IERANGEMODE	TOGGLE	F	I/E AutoRange
IERANGE	IQUANT	11	I/E Range
POSFEEDENABLE	TOGGLE	F	Positive Feedback IR Comp
POSFEEDRESISTANCE	QUANT	0	Positive Feedback Resistance (ohm)
ACHSELECT	IQUANT	0	Ach Select
CABLEID	IQUANT	13	Cable ID
DCCALDATE	LABEL	7/31/2020	DC Calibration Date
ACCALDATE	LABEL	7/31/2020	AC Calibration Date
THERMOSELECT	IQUANT	1	Thermo Select
FRAMEWORKVERSION	QUANT	6.33	Framework Version
INSTRUMENTVERSION	LABEL	3.50	Instrument Version
COMPLIANCEVOLTAGE	IQUANT	0	Compliance Voltage
ZCURVE	TABLE
	Pt	Time	Freq	Zreal	Zimag	Zsig	Zmod	Zphz	Idc	Vdc	IERange
	#	s	Hz	ohm	ohm	V	ohm	°	A	V	#
	0	11	300046.9	477.3107	-115.8659	1	491.1725	-13.64447	5.89821E-005	-0.0002569	9
	1	17	238359.4	500.8094	-101.278	1	510.9474	-11.43266	8.235939E-005	-0.002686	9
	2	24	189328.1	523.1832	-91.28323	1	531.0869	-9.89715	-4.238153E-006	-0.0016558	9
	3	33	150421.9	547.2437	-80.13385	1	553.0796	-8.330715	5.123814E-005	3.069646E-005	9
	4	40	119484.4	562.0416	-50.65859	1	564.3199	-5.150333	-2.283233E-005	0.0145678	8
	5	44	94921.88	573.825	-41.30136	1	575.3094	-4.116795	1.655814E-006	0.0039513	8
	6	47	75421.88	580.7748	-34.87683	1	581.8211	-3.436613	1.71763E-005	-0.0039303	8
	7	49	59859.37	588.1053	-29.64667	1	588.8521	-2.885865	-1.320719E-005	0.0069193	8
	8	52	47578.12	594.8526	-24.51132	1	595.3574	-2.359578	-1.514368E-005	0.0031898	8
	9	54	37828.12	600.7619	-21.27079	1	601.1384	-2.027788	-4.910057E-006	0.0059339	8
	10	57	30046.88	606.6086	-18.05482	1	606.8773	-1.704822	-1.640947E-005	0.0046152	8
	11	59	23859.38	613.1028	-15.29992	1	613.2937	-1.429514	1.345051E-005	-0.0007085	8
	12	62	18984.38	618.3477	-12.52239	1	618.4744	-1.16016	-1.401346E-005	0.0071209	8
	13	64	15046.87	625.4041	-8.199493	1	625.4578	-0.7511455	-4.684162E-006	0.0059473	8
	14	66	11953.13	627.8249	-8.076722	1	627.8768	-0.7370472	-1.207431E-005	0.001603	8
	15	69	9515.62	634.4824	-8.13204	1	634.5345	-0.7343088	1.660155E-005	-0.0026534	8
	16	71	7546.875	640.4134	-8.004902	1	640.4634	-0.7161362	1.317355E-005	-0.0006685	8
	17	74	5928.309	647.3445	-6.08286	1	647.3731	-0.5383716	-8.176948E-006	-0.0002311	8
	18	76	4733.456	651.3544	-8.837738	1	651.4143	-0.7773557	-1.497689E-005	0.0031935	8
	19	79	3796.875	657.6644	-7.419001	1	657.7063	-0.6463165	1.265804E-005	-0.0058141	8
	20	81	2987.132	662.2627	-7.497535	1	662.3051	-0.6486229	-1.7184E-005	0.005705	8
	21	84	2390.625	666.4545	-5.860795	1	666.4803	-0.5038456	-8.133658E-006	0.0001534	8
	22	86	1884.191	672.9091	-9.157879	1	672.9714	-0.7797122	-1.551971E-005	0.003325	8
	23	89	1516.544	683.5764	-9.74241	1	683.6458	-0.8165306	-1.297157E-005	0.0017038	8
	24	91	1193.986	687.78	-11.06642	1	687.869	-0.9218128	1.093697E-006	0.0044159	8
	25	94	946.5144	697.6788	-14.0369	1	697.82	-1.152603	-1.327906E-005	0.0019849	8
	26	97	751.7689	702.0142	-16.47233	1	702.2074	-1.344164	-1.57735E-005	0.0032319	8
	27	99	597.4265	708.7867	-21.408	1	709.11	-1.73002	-1.700815E-005	0.0068954	8
	28	102	477.4305	714.5638	-25.66246	1	715.0245	-2.056806	-1.404699E-007	0.0006027	8
	29	104	376.6741	721.2217	-31.5746	1	721.9125	-2.50677	-1.678289E-007	0.0006338	8
	30	106	298.2954	728.0392	-38.89087	1	729.0773	-3.057756	-1.44879E-007	0.0006231	8
	31	109	237.7717	735.3405	-47.71718	1	736.887	-3.71279	-1.411065E-007	0.0006088	8
	32	111	189.0121	742.9889	-58.79135	1	745.3113	-4.524283	-1.790972E-007	0.0006136	8
	33	113	150.2404	751.1365	-72.49892	1	754.6272	-5.513052	-1.442628E-007	0.0006021	8
	34	116	119.1737	759.7987	-89.61015	1	765.0648	-6.726354	-1.64167E-007	0.0006166	8
	35	118	95.0169	769.1051	-110.2442	1	776.9662	-8.157259	-1.75886E-007	0.0006341	8
	36	121	75.60484	779.5565	-135.9392	1	791.3203	-9.89178	-1.517361E-007	0.0006045	8
	37	123	54.50582	793.5905	-183.2858	1	814.4812	-13.00486	-1.919085E-007	0.0006218	8
	38	126	45.95588	805.0732	-214.1819	1	833.0767	-14.8979	-1.962789E-007	0.0006285	8
	39	128	37.20238	818.85	-259.5305	1	858.9944	-17.58575	-1.462089E-007	0.0006121	8
	40	130	30.04808	834.6908	-314.8168	1	892.0865	-20.66476	-1.824557E-007	0.0006142	8
	41	133	23.91582	853.5925	-386.7396	1	937.1166	-24.37399	-1.224567E-007	0.0006066	8
	42	135	18.60119	876.7949	-484.8159	1	1001.906	-28.94001	-2.884819E-007	0.0006386	8
	43	137	15.02404	900.3987	-585.7499	1	1074.161	-33.04581	-1.381813E-007	0.0006318	8
	44	140	12.01923	928.5518	-715.1251	1	1172.012	-37.6017	-1.658349E-007	0.0006113	8
	45	142	9.450605	963.463	-885.9899	1	1308.907	-42.60131	-2.242385E-007	0.0006261	8
	46	145	7.512019	1002.328	-1089.082	1	1480.122	-47.37533	-1.97408E-007	0.0005994	8
	47	147	5.978954	1048.979	-1337.008	1	1699.396	-51.88327	-1.822124E-007	0.0006233	8
	48	150	4.734848	1105.751	-1650.951	1	1987.039	-56.18716	-1.780134E-007	0.0005821	8
	49	154	3.75601	1174.993	-2038.368	1	2352.776	-60.0392	-1.810984E-007	0.0006271	8
	50	157	3.004808	1256.223	-2497.757	1	2795.87	-63.30033	-1.653842E-007	0.0005989	8
	51	161	2.372217	1363.162	-3103.326	1	3389.52	-66.28612	-1.861349E-007	0.0005497	8
	52	165	1.878005	1496.729	-3841.968	1	4123.216	-68.71543	-1.807545E-007	0.0006252	8
	53	170	1.512097	1662.011	-4685.739	1	4971.763	-70.47063	-4.207381E-008	0.0005115	7
	54	175	1.201923	1867.035	-5795.957	1	6089.248	-72.14484	-3.545609E-008	0.0006623	7
	55	181	0.956633	2131.467	-7142.237	1	7453.502	-73.38325	-4.624552E-008	-4.779388E-005	7
