EXPLAIN
TAG	EISPOT
TITLE	LABEL	Potentiostatic EIS	Test Identifier
DATE	LABEL	9/11/2020	Date
TIME	LABEL	14:37:45	Time
NOTES	NOTES	1	Notes...
	
PSTAT	PSTAT	REF3000-16137	Potentiostat
VDC	POTEN	0.00000E+000	T	DC Voltage (V)
FREQINIT	QUANT	3.00000E+005	Initial Freq. (Hz)
FREQFINAL	QUANT	1.00000E+000	Final Freq. (Hz)
PTSPERDEC	QUANT	1.00000E+001	Points/decade
VAC	QUANT	5.00000E+001	AC Voltage (mV rms)
AREA	QUANT	1.00000E+000	Sample Area (cm^2)
SPEED	SELECTOR	2	Optimize for:
ZGUESS	QUANT	1.00000E+003	Estimated Z (ohms)
EOC	QUANT	0	Open Circuit (V)
SEQUENCER	TOGGLE	TRUE	Run as Sequence
PSTATMODEL	IQUANT	5	Pstat Model
PSTATSECTION	LABEL	REF3000-16137	Pstat Section
PSTATSERIALNO	LABEL	16137	Pstat Serial Number
CTRLMODE	IQUANT	1	Control Mode
IESTAB	IQUANT	0	I/E Stability
CASPEED	IQUANT	1	Control Amp Speed
CONVENTION	IQUANT	1	Current Convention
ICHRANGE	IQUANT	2	Ich Range
ICHRANGEMODE	TOGGLE	F	Ich Auto Range
ICHOFFSETENABLE	TOGGLE	T	Ich Offset Enable
ICHOFFSET	QUANT	0	Ich Offset (V)
ICHFILTER	IQUANT	3	Ich Filter
VCHRANGE	IQUANT	2	Vch Range
VCHRANGEMODE	TOGGLE	F	Vch Auto Range
VCHOFFSETENABLE	TOGGLE	T	Vch Offset Enable
VCHOFFSET	QUANT	0	Vch Offset (V)
VCHFILTER	IQUANT	3	Vch Filter
ACHRANGE	IQUANT	2	Ach Range
ACHOFFSETENABLE	TOGGLE	F	Ach Offset Enable
ACHOFFSET	QUANT	0	Ach Offset (V)
ACHFILTER	IQUANT	3	Ach Filter
IERANGELOWERLIMIT	IQUANT	2	I/E Range Lower Limit
IERANGEMODE	TOGGLE	F	I/E AutoRange
IERANGE	IQUANT	11	I/E Range
POSFEEDENABLE	TOGGLE	F	Positive Feedback IR Comp
POSFEEDRESISTANCE	QUANT	0	Positive Feedback Resistance (ohm)
ACHSELECT	IQUANT	0	Ach Select
CABLEID	IQUANT	13	Cable ID
DCCALDATE	LABEL	7/31/2020	DC Calibration Date
ACCALDATE	LABEL	7/31/2020	AC Calibration Date
THERMOSELECT	IQUANT	1	Thermo Select
FRAMEWORKVERSION	QUANT	6.33	Framework Version
INSTRUMENTVERSION	LABEL	3.50	Instrument Version
COMPLIANCEVOLTAGE	IQUANT	0	Compliance Voltage
ZCURVE	TABLE
	Pt	Time	Freq	Zreal	Zimag	Zsig	Zmod	Zphz	Idc	Vdc	IERange
	#	s	Hz	ohm	ohm	V	ohm	°	A	V	#
	0	10	300046.9	1.941619	2.243231	1	2.966811	49.1223	0.0004503	-0.0003482	11
	1	13	238359.4	1.894415	1.787892	1	2.604873	43.34299	0.000182	-0.0001372	11
	2	17	189328.1	1.956782	1.273183	1	2.334521	33.0501	7.367614E-005	-6.912914E-005	12
	3	21	150421.9	1.863584	1.103512	1	2.165799	30.63169	-0.000215	0.0003098	11
	4	23	119484.4	1.84585	0.8530622	1	2.03344	24.80408	-0.0003316	5.27889E-005	11
	5	26	94921.88	1.839766	0.6486736	1	1.950773	19.42188	-0.0002224	0.000373	11
	6	28	75421.88	1.838908	0.4756674	1	1.899432	14.50273	0.0001543	0.0005339	11
	7	31	59859.37	1.83959	0.3280088	1	1.868604	10.1099	-8.14165E-005	0.0005322	11
	8	33	47578.12	1.841922	0.1990137	1	1.852642	6.1667	0.0001467	0.0005769	11
	9	36	37828.12	1.846774	0.0824139	1	1.848612	2.555179	0.0001927	0.0006352	11
	10	38	30046.88	1.854024	-0.0284277	1	1.854242	-0.8784456	-0.0002317	0.0005755	11
	11	41	23859.38	1.863208	-0.1389834	1	1.868384	-4.265998	-2.239628E-007	0.0006736	11
	12	43	18984.38	1.874647	-0.253005	1	1.891642	-7.686278	3.683565E-005	0.0007065	11
	13	46	15046.87	1.889109	-0.3782917	1	1.926613	-11.32364	-4.137692E-006	0.0006918	11
	14	48	11953.13	1.906572	-0.5181579	1	1.975729	-15.2043	3.485128E-005	0.0006744	11
	15	50	9515.62	1.927218	-0.6779058	1	2.04297	-19.3795	-0.0001859	0.0006472	11
	16	52	7546.875	1.951924	-0.8697305	1	2.136922	-24.01661	-0.0001717	0.0006573	11
	17	55	5928.309	1.981498	-1.111443	1	2.271924	-29.28852	5.024785E-005	0.0006653	11
	18	57	4733.456	2.016256	-1.385734	1	2.446538	-34.49998	-7.721052E-005	0.000679	11
	19	59	3796.875	2.058206	-1.713364	1	2.678027	-39.77587	-0.0001744	0.0006706	11
	20	62	2987.132	2.111885	-2.152712	1	3.015664	-45.5485	-2.630586E-005	0.000646	11
	21	64	2390.625	2.177167	-2.656486	1	3.434672	-50.6631	0.0002059	0.0007254	11
	22	66	1884.191	2.2691	-3.319595	1	4.021011	-55.64555	-1.864544E-005	0.0006923	11
	23	69	1516.544	2.376359	-4.065525	1	4.709095	-59.69309	5.755308E-005	0.0005325	10
	24	71	1193.986	2.527599	-5.076989	1	5.671381	-63.5334	1.963107E-005	0.0005548	10
	25	73	946.5144	2.720204	-6.294801	1	6.857407	-66.62914	-0.0001102	0.0008044	10
	26	76	751.7689	2.970508	-7.776367	1	8.32441	-69.09356	-0.0001115	0.0007861	10
	27	78	597.4265	3.291316	-9.59436	1	10.1432	-71.06563	-7.445982E-005	0.0007636	10
	28	80	477.4305	3.702832	-11.75477	1	12.32418	-72.51521	-4.237674E-006	0.000651	10
	29	83	376.6741	4.267267	-14.55954	1	15.17201	-73.66463	-4.991966E-006	0.0006466	10
	30	85	298.2954	4.994705	-17.94767	1	18.6297	-74.4485	-4.266351E-006	0.0006485	10
	31	87	237.7717	5.915687	-21.96402	1	22.74673	-74.92593	-3.766963E-006	0.0006479	10
	32	90	189.0121	7.130878	-26.89814	1	27.82731	-75.15206	-4.568362E-006	0.0006527	10
	33	92	150.2404	8.717327	-32.88205	1	34.01795	-75.15194	-3.845812E-006	0.0006448	10
	34	95	119.1737	10.80621	-40.16896	1	41.59711	-74.94283	-3.742706E-006	0.000647	10
	35	97	95.0169	13.43379	-48.6527	1	50.47328	-74.56432	-1.908006E-006	4.70563E-005	9
	36	99	75.60484	16.85327	-58.91239	1	61.27563	-74.03558	-1.93719E-006	4.776756E-005	9
	37	102	54.50582	23.38114	-76.94924	1	80.42303	-73.09852	-2.097916E-006	5.017149E-005	9
	38	104	45.95588	27.6977	-88.19374	1	92.44078	-72.56483	-1.758216E-006	5.855596E-005	9
	39	107	37.20238	34.03957	-104.0867	1	109.5113	-71.89065	-1.972144E-006	5.568947E-005	9
	40	109	30.04808	41.6636	-122.7623	1	129.6396	-71.25359	-1.393219E-006	-8.476744E-006	9
	41	112	23.91582	51.06579	-145.9141	1	154.5919	-70.71141	-1.987337E-006	5.535323E-005	9
	42	114	18.60119	63.43081	-176.4641	1	187.5181	-70.22881	-1.653616E-006	5.529866E-005	9
	43	116	15.02404	75.56827	-207.439	1	220.7747	-69.98374	-1.856724E-006	5.389258E-005	9
	44	118	12.01923	90.08754	-245.9308	1	261.9117	-69.88158	-1.873908E-006	5.057219E-005	9
	45	121	9.450605	108.5843	-296.3202	1	315.5886	-69.87502	-1.729217E-006	6.133383E-005	9
	46	123	7.512019	130.1565	-355.3021	1	378.3917	-69.88088	-1.811788E-006	5.878193E-005	9
	47	126	5.978954	156.0336	-424.7618	1	452.5142	-69.82951	-1.72007E-006	0.0005851	8
	48	129	4.734848	191.2359	-513.0128	1	547.4973	-69.55604	-1.733674E-006	0.0006086	8
	49	132	3.75601	237.5854	-618.9479	1	662.9807	-69.00052	-1.620237E-006	0.0006553	8
	50	136	3.004808	297.4083	-740.0193	1	797.5464	-68.10517	-1.700348E-006	0.0006427	8
	51	140	2.372217	384.6566	-888.6725	1	968.349	-66.59491	-1.765489E-006	0.0006121	8
	52	144	1.878005	502.7862	-1059.638	1	1172.871	-64.61619	-1.678596E-006	0.0006193	8
	53	148	1.512097	644.278	-1233.539	1	1391.658	-62.42191	-1.719469E-006	0.0007159	8
	54	154	1.201923	843.0412	-1427.422	1	1657.785	-59.43372	-1.662675E-006	0.0006262	8
	55	160	0.956633	1089.139	-1620.552	1	1952.54	-56.09579	-1.899051E-006	-4.209835E-006	8
