EXPLAIN
TAG	EISPOT
TITLE	LABEL	Potentiostatic EIS	Test Identifier
DATE	LABEL	9/11/2020	Date
TIME	LABEL	14:54:55	Time
NOTES	NOTES	1	Notes...
	
PSTAT	PSTAT	REF3000-16137	Potentiostat
VDC	POTEN	0.00000E+000	T	DC Voltage (V)
FREQINIT	QUANT	3.00000E+005	Initial Freq. (Hz)
FREQFINAL	QUANT	1.00000E+000	Final Freq. (Hz)
PTSPERDEC	QUANT	1.00000E+001	Points/decade
VAC	QUANT	5.00000E+001	AC Voltage (mV rms)
AREA	QUANT	1.00000E+000	Sample Area (cm^2)
SPEED	SELECTOR	2	Optimize for:
ZGUESS	QUANT	1.00000E+003	Estimated Z (ohms)
EOC	QUANT	0	Open Circuit (V)
SEQUENCER	TOGGLE	TRUE	Run as Sequence
PSTATMODEL	IQUANT	5	Pstat Model
PSTATSECTION	LABEL	REF3000-16137	Pstat Section
PSTATSERIALNO	LABEL	16137	Pstat Serial Number
CTRLMODE	IQUANT	1	Control Mode
IESTAB	IQUANT	0	I/E Stability
CASPEED	IQUANT	1	Control Amp Speed
CONVENTION	IQUANT	1	Current Convention
ICHRANGE	IQUANT	2	Ich Range
ICHRANGEMODE	TOGGLE	F	Ich Auto Range
ICHOFFSETENABLE	TOGGLE	T	Ich Offset Enable
ICHOFFSET	QUANT	0	Ich Offset (V)
ICHFILTER	IQUANT	3	Ich Filter
VCHRANGE	IQUANT	2	Vch Range
VCHRANGEMODE	TOGGLE	F	Vch Auto Range
VCHOFFSETENABLE	TOGGLE	T	Vch Offset Enable
VCHOFFSET	QUANT	0	Vch Offset (V)
VCHFILTER	IQUANT	3	Vch Filter
ACHRANGE	IQUANT	2	Ach Range
ACHOFFSETENABLE	TOGGLE	F	Ach Offset Enable
ACHOFFSET	QUANT	0	Ach Offset (V)
ACHFILTER	IQUANT	3	Ach Filter
IERANGELOWERLIMIT	IQUANT	2	I/E Range Lower Limit
IERANGEMODE	TOGGLE	F	I/E AutoRange
IERANGE	IQUANT	11	I/E Range
POSFEEDENABLE	TOGGLE	F	Positive Feedback IR Comp
POSFEEDRESISTANCE	QUANT	0	Positive Feedback Resistance (ohm)
ACHSELECT	IQUANT	0	Ach Select
CABLEID	IQUANT	13	Cable ID
DCCALDATE	LABEL	7/31/2020	DC Calibration Date
ACCALDATE	LABEL	7/31/2020	AC Calibration Date
THERMOSELECT	IQUANT	1	Thermo Select
FRAMEWORKVERSION	QUANT	6.33	Framework Version
INSTRUMENTVERSION	LABEL	3.50	Instrument Version
COMPLIANCEVOLTAGE	IQUANT	0	Compliance Voltage
ZCURVE	TABLE
	Pt	Time	Freq	Zreal	Zimag	Zsig	Zmod	Zphz	Idc	Vdc	IERange
	#	s	Hz	ohm	ohm	V	ohm	°	A	V	#
	0	10	300046.9	2.840317	2.307644	1	3.659593	39.09248	-0.0002823	6.244655E-005	10
	1	13	238359.4	2.803987	1.816894	1	3.341175	32.94196	-0.0004074	0.0000984	10
	2	16	189328.1	2.872822	1.192545	1	3.11051	22.54395	0.0003984	-0.0003163	12
	3	20	150421.9	2.788322	1.08278	1	2.991179	21.22253	4.295072E-005	0.0003806	11
	4	22	119484.4	2.777018	0.8367518	1	2.900342	16.76824	0.0005418	0.0005752	11
	5	25	94921.88	2.774231	0.6314161	1	2.845179	12.82212	-8.480301E-005	0.0004972	11
	6	27	75421.88	2.774969	0.4577047	1	2.812463	9.366064	3.395329E-005	0.0005291	11
	7	30	59859.37	2.778742	0.3096153	1	2.795938	6.357834	-0.0002301	0.0005668	11
	8	32	47578.12	2.784633	0.1779974	1	2.790317	3.657445	-2.272798E-005	0.0005866	11
	9	35	37828.12	2.793094	0.0579342	1	2.793695	1.188255	-0.0002162	0.0005922	11
	10	37	30046.88	2.802307	-0.058288	1	2.802913	-1.191581	0.0001282	0.0006439	11
	11	40	23859.38	2.813404	-0.1757729	1	2.818889	-3.575019	3.718122E-005	0.0006611	11
	12	42	18984.38	2.828457	-0.2986365	1	2.844179	-6.027121	0.0001773	0.0007017	11
	13	44	15046.87	2.846267	-0.4358274	1	2.879441	-8.705653	-7.984994E-005	0.0006449	11
	14	47	11953.13	2.868447	-0.5905299	1	2.928602	-11.63301	-0.0001832	0.0007056	11
	15	49	9515.62	2.894566	-0.7687177	1	2.994902	-14.87288	0.0001105	0.0006685	11
	16	51	7546.875	2.927817	-0.981616	1	3.08799	-18.53489	-0.0002156	0.000676	11
	17	54	5928.309	2.967539	-1.248963	1	3.219658	-22.82502	0.0001136	0.0006873	11
	18	56	4733.456	3.013026	-1.551848	1	3.389182	-27.25057	-0.0001881	0.0006943	11
	19	58	3796.875	3.065226	-1.908694	1	3.610917	-31.91023	0.0002083	0.0006669	11
	20	61	2987.132	3.134271	-2.389362	1	3.941156	-37.31952	0.0001377	0.0003876	10
	21	63	2390.625	3.21033	-2.938004	1	4.351792	-42.46387	-0.0001737	0.0009465	10
	22	65	1884.191	3.30324	-3.663033	1	4.932464	-47.95657	-7.811013E-005	0.000852	10
	23	68	1516.544	3.408459	-4.480048	1	5.629247	-52.73581	6.029343E-005	0.000465	10
	24	70	1193.986	3.556363	-5.594423	1	6.629124	-57.55597	-6.83914E-005	0.0008408	10
	25	72	946.5144	3.739249	-6.943605	1	7.886421	-61.69678	3.319479E-005	0.0007149	10
	26	75	751.7689	3.974528	-8.593087	1	9.467735	-65.17822	-0.0001478	0.0009181	10
	27	77	597.4265	4.274712	-10.62669	1	11.45424	-68.08695	6.379294E-005	0.0004531	10
	28	79	477.4305	4.653067	-13.06816	1	13.87183	-70.40115	-2.873218E-006	0.0006586	10
	29	82	376.6741	5.175983	-16.24673	1	17.05131	-72.32884	-2.839372E-006	0.0006534	10
	30	84	298.2954	5.848298	-20.11159	1	20.94466	-73.78597	-2.112927E-006	0.0006576	10
	31	86	237.7717	6.698733	-24.72115	1	25.61266	-74.83855	-1.972462E-006	0.0006493	10
	32	89	189.0121	7.815458	-30.43443	1	31.4219	-75.59783	-2.755368E-006	0.0006457	10
	33	91	150.2404	9.266031	-37.41718	1	38.54743	-76.09103	-2.634527E-006	0.0006519	10
	34	93	119.1737	11.1675	-45.97404	1	47.31095	-76.34679	-1.594965E-007	5.282773E-005	9
	35	96	95.0169	13.60056	-56.20463	1	57.82677	-76.39689	-2.195828E-007	5.347376E-005	9
	36	98	75.60484	16.79999	-68.71198	1	70.73595	-76.2608	-3.433308E-007	5.095538E-005	9
	37	101	54.50582	23.13436	-91.24386	1	94.13097	-75.77279	-4.36917E-007	4.95664E-005	9
	38	103	45.95588	27.49785	-105.5519	1	109.0749	-75.39815	5.148016E-008	5.969708E-005	9
	39	106	37.20238	34.18401	-126.135	1	130.6851	-74.83644	-1.805893E-007	4.980091E-005	9
	40	108	30.04808	42.64759	-150.4715	1	156.3985	-74.17587	-2.616701E-007	5.208864E-005	9
	41	111	23.91582	53.90949	-181.1361	1	188.9882	-73.42601	-2.970051E-007	5.711894E-005	9
	42	113	18.60119	69.34071	-220.9456	1	231.5709	-72.57626	-5.103477E-007	6.225183E-005	9
	43	115	15.02404	85.21166	-260.7066	1	274.279	-71.90008	-2.106509E-008	6.255109E-005	9
	44	117	12.01923	104.8213	-309.2073	1	326.4915	-71.27334	-1.817975E-007	5.199129E-005	9
	45	120	9.450605	129.2725	-370.8625	1	392.7473	-70.78284	-2.250911E-007	5.389242E-005	9
	46	122	7.512019	155.2052	-439.3534	1	465.9614	-70.54381	-9.61684E-008	0.0006191	8
	47	125	5.978954	185.4292	-522.3842	1	554.3187	-70.45681	-1.057626E-008	0.0006326	8
	48	128	4.734848	220.8559	-625.5499	1	663.3928	-70.55397	-7.405191E-008	0.0006515	8
	49	131	3.75601	261.1633	-750.3012	1	794.4547	-70.80812	-6.637666E-008	0.000633	8
	50	135	3.004808	307.0681	-896.8505	1	947.9619	-71.09957	-7.999393E-008	0.0006659	8
	51	138	2.372217	366.9884	-1088.808	1	1148.993	-71.37335	-9.218839E-008	0.0007085	8
	52	143	1.878005	442.1552	-1321.616	1	1393.618	-71.502	-1.417656E-007	0.0006103	8
	53	147	1.512097	534.1081	-1581.624	1	1669.373	-71.34038	-6.725627E-008	0.0006953	8
	54	153	1.201923	660.9201	-1922.317	1	2032.761	-71.02629	-1.044904E-007	0.0006028	8
	55	159	0.956633	833.504	-2325.161	1	2470.041	-70.27869	-1.863604E-007	-1.916416E-006	8
