EXPLAIN
TAG	EISPOT
TITLE	LABEL	Potentiostatic EIS	Test Identifier
DATE	LABEL	9/11/2020	Date
TIME	LABEL	14:52:03	Time
NOTES	NOTES	1	Notes...
	
PSTAT	PSTAT	REF3000-16137	Potentiostat
VDC	POTEN	0.00000E+000	T	DC Voltage (V)
FREQINIT	QUANT	3.00000E+005	Initial Freq. (Hz)
FREQFINAL	QUANT	1.00000E+000	Final Freq. (Hz)
PTSPERDEC	QUANT	1.00000E+001	Points/decade
VAC	QUANT	5.00000E+001	AC Voltage (mV rms)
AREA	QUANT	1.00000E+000	Sample Area (cm^2)
SPEED	SELECTOR	2	Optimize for:
ZGUESS	QUANT	1.00000E+003	Estimated Z (ohms)
EOC	QUANT	0	Open Circuit (V)
SEQUENCER	TOGGLE	TRUE	Run as Sequence
PSTATMODEL	IQUANT	5	Pstat Model
PSTATSECTION	LABEL	REF3000-16137	Pstat Section
PSTATSERIALNO	LABEL	16137	Pstat Serial Number
CTRLMODE	IQUANT	1	Control Mode
IESTAB	IQUANT	0	I/E Stability
CASPEED	IQUANT	1	Control Amp Speed
CONVENTION	IQUANT	1	Current Convention
ICHRANGE	IQUANT	2	Ich Range
ICHRANGEMODE	TOGGLE	F	Ich Auto Range
ICHOFFSETENABLE	TOGGLE	T	Ich Offset Enable
ICHOFFSET	QUANT	0	Ich Offset (V)
ICHFILTER	IQUANT	3	Ich Filter
VCHRANGE	IQUANT	2	Vch Range
VCHRANGEMODE	TOGGLE	F	Vch Auto Range
VCHOFFSETENABLE	TOGGLE	T	Vch Offset Enable
VCHOFFSET	QUANT	0	Vch Offset (V)
VCHFILTER	IQUANT	3	Vch Filter
ACHRANGE	IQUANT	2	Ach Range
ACHOFFSETENABLE	TOGGLE	F	Ach Offset Enable
ACHOFFSET	QUANT	0	Ach Offset (V)
ACHFILTER	IQUANT	3	Ach Filter
IERANGELOWERLIMIT	IQUANT	2	I/E Range Lower Limit
IERANGEMODE	TOGGLE	F	I/E AutoRange
IERANGE	IQUANT	11	I/E Range
POSFEEDENABLE	TOGGLE	F	Positive Feedback IR Comp
POSFEEDRESISTANCE	QUANT	0	Positive Feedback Resistance (ohm)
ACHSELECT	IQUANT	0	Ach Select
CABLEID	IQUANT	13	Cable ID
DCCALDATE	LABEL	7/31/2020	DC Calibration Date
ACCALDATE	LABEL	7/31/2020	AC Calibration Date
THERMOSELECT	IQUANT	1	Thermo Select
FRAMEWORKVERSION	QUANT	6.33	Framework Version
INSTRUMENTVERSION	LABEL	3.50	Instrument Version
COMPLIANCEVOLTAGE	IQUANT	0	Compliance Voltage
ZCURVE	TABLE
	Pt	Time	Freq	Zreal	Zimag	Zsig	Zmod	Zphz	Idc	Vdc	IERange
	#	s	Hz	ohm	ohm	V	ohm	°	A	V	#
	0	10	300046.9	2.607304	2.229426	1	3.430506	40.53275	0.000342	-0.000164	11
	1	13	238359.4	2.581926	1.769157	1	3.129898	34.41926	-0.0003555	-0.0001377	11
	2	16	189328.1	2.554516	1.391006	1	2.908685	28.56954	0.0003841	-0.0001021	11
	3	19	150421.9	2.539871	1.091372	1	2.764424	23.25299	5.902554E-005	0.000464	11
	4	22	119484.4	2.537536	0.8424492	1	2.673726	18.3659	-0.0004557	0.0004531	11
	5	26	94921.88	2.533987	0.6344818	1	2.612213	14.05721	2.811005E-005	0.0005353	11
	6	30	75421.88	2.54449	0.3917119	1	2.574464	8.751703	-0.0002255	0.0004037	12
	7	33	59859.37	2.538618	0.3132414	1	2.55787	7.034202	0.0002106	0.0006249	11
	8	36	47578.12	2.543839	0.1822313	1	2.550358	4.09746	-0.0001572	0.0006002	11
	9	38	37828.12	2.550972	0.0628847	1	2.551746	1.412129	-0.0001891	0.0006445	11
	10	41	30046.88	2.558778	-0.0528471	1	2.559323	-1.183176	0.0001882	0.0006509	11
	11	43	23859.38	2.570338	-0.1689913	1	2.575887	-3.761595	0.0001728	0.0006799	11
	12	46	18984.38	2.583616	-0.2902104	1	2.599864	-6.409011	-0.0001586	0.0006409	11
	13	48	15046.87	2.601269	-0.4254357	1	2.635829	-9.288452	-0.0001952	0.0006526	11
	14	50	11953.13	2.621979	-0.5773548	1	2.684793	-12.41824	-0.0002218	0.0006502	11
	15	52	9515.62	2.64695	-0.7514121	1	2.751539	-15.8481	0.0002056	0.0006759	11
	16	55	7546.875	2.679206	-0.960214	1	2.846077	-19.71742	-0.0002039	0.000673	11
	17	57	5928.309	2.717504	-1.222656	1	2.979885	-24.22389	-8.741968E-005	0.0006758	11
	18	59	4733.456	2.760433	-1.518732	1	3.150641	-28.81866	-0.0002242	0.0006175	11
	19	62	3796.875	2.810771	-1.870394	1	3.376212	-33.64131	-0.0002072	0.0006752	11
	20	64	2987.132	2.871986	-2.341844	1	3.705744	-39.19413	-0.0001448	0.0006723	11
	21	66	2390.625	2.946981	-2.881167	1	4.121386	-44.35301	6.575391E-005	0.0004652	10
	22	69	1884.191	3.038718	-3.597042	1	4.70877	-49.80946	0.0001334	0.0004168	10
	23	71	1516.544	3.142751	-4.40275	1	5.409351	-54.48017	-0.0001589	0.0008856	10
	24	73	1193.986	3.287914	-5.497508	1	6.405699	-59.11747	0.0001529	0.0004222	10
	25	76	946.5144	3.472735	-6.822881	1	7.65582	-63.02465	-6.840634E-005	0.0008294	10
	26	78	751.7689	3.704624	-8.440196	1	9.217437	-66.30207	-0.0001456	0.000796	10
	27	80	597.4265	4.007259	-10.44626	1	11.18849	-69.01283	2.713108E-005	0.0006885	10
	28	83	477.4305	4.397309	-12.83523	1	13.56759	-71.0887	-2.603248E-006	0.0006536	10
	29	85	376.6741	4.927771	-15.94869	1	16.69263	-72.83009	-2.4019E-006	0.0006517	10
	30	87	298.2954	5.60945	-19.72871	1	20.51068	-74.12799	-2.489618E-006	0.0006519	10
	31	90	237.7717	6.472242	-24.23411	1	25.0835	-75.04693	-2.939448E-006	0.0006545	10
	32	92	189.0121	7.605926	-29.8118	1	30.76676	-75.68738	-2.561249E-006	0.0006501	10
	33	94	150.2404	9.083764	-36.61948	1	37.72931	-76.06851	-2.012694E-006	0.0005944	10
	34	97	119.1737	11.014	-44.94832	1	46.27806	-76.2317	-3.087033E-007	4.910705E-005	9
	35	99	95.0169	13.49302	-54.88854	1	56.52268	-76.18908	-4.591826E-007	5.955629E-005	9
	36	102	75.60484	16.75256	-67.00877	1	69.07114	-75.96346	-4.048897E-007	5.015806E-005	9
	37	104	54.50582	23.18257	-88.7506	1	91.72841	-75.36085	-4.300824E-007	4.105079E-005	9
	38	107	45.95588	27.58622	-102.5064	1	106.1535	-74.93759	3.651268E-007	-9.598914E-006	9
	39	109	37.20238	34.32154	-122.2676	1	126.9935	-74.32013	-4.705091E-007	5.93319E-005	9
	40	111	30.04808	42.68688	-145.4472	1	151.5819	-73.64371	-4.920557E-007	5.385977E-005	9
	41	114	23.91582	53.93977	-174.7428	1	182.8785	-72.84554	-3.56377E-007	4.977518E-005	9
	42	116	18.60119	68.85695	-212.5169	1	223.3936	-72.04732	-5.6347E-007	5.522021E-005	9
	43	118	15.02404	84.15452	-250.3064	1	264.0744	-71.41705	-2.618002E-007	7.238184E-005	9
	44	121	12.01923	102.6431	-296.5409	1	313.8027	-70.90748	-2.376767E-007	6.111922E-005	9
	45	123	9.450605	125.7446	-355.4297	1	377.0172	-70.51715	-3.70265E-007	4.815013E-005	9
	46	126	7.512019	150.1954	-421.3597	1	447.3283	-70.38118	-1.787921E-007	0.0006359	8
	47	128	5.978954	178.3486	-501.715	1	532.4717	-70.43082	-1.87334E-007	0.0006364	8
	48	131	4.734848	212.1232	-602.0916	1	638.3655	-70.5921	-2.378902E-007	0.0006461	8
	49	135	3.75601	251.3518	-723.6875	1	766.0948	-70.84682	-2.225525E-007	0.0006184	8
	50	138	3.004808	297.1431	-866.6301	1	916.1559	-71.0746	-2.349036E-007	0.0006498	8
	51	142	2.372217	360.0056	-1052.569	1	1112.432	-71.11799	-2.463969E-007	0.0006943	8
	52	146	1.878005	439.1346	-1280.621	1	1353.82	-71.07277	-3.343457E-007	0.0006146	8
	53	151	1.512097	534.5314	-1531.696	1	1622.288	-70.76203	-2.293557E-007	0.0005428	8
	54	156	1.201923	677.0062	-1856.342	1	1975.941	-69.96313	-3.160957E-007	0.0006038	8
	55	162	0.956633	866.6633	-2233.742	1	2395.978	-68.79439	-3.674513E-007	-9.273966E-006	8
