EXPLAIN
TAG	EISPOT
TITLE	LABEL	Potentiostatic EIS	Test Identifier
DATE	LABEL	9/11/2020	Date
TIME	LABEL	15:20:03	Time
NOTES	NOTES	1	Notes...
	
PSTAT	PSTAT	REF3000-16137	Potentiostat
VDC	POTEN	0.00000E+000	T	DC Voltage (V)
FREQINIT	QUANT	3.00000E+005	Initial Freq. (Hz)
FREQFINAL	QUANT	1.00000E+000	Final Freq. (Hz)
PTSPERDEC	QUANT	1.00000E+001	Points/decade
VAC	QUANT	5.00000E+001	AC Voltage (mV rms)
AREA	QUANT	1.00000E+000	Sample Area (cm^2)
SPEED	SELECTOR	2	Optimize for:
ZGUESS	QUANT	1.00000E+003	Estimated Z (ohms)
EOC	QUANT	0	Open Circuit (V)
SEQUENCER	TOGGLE	TRUE	Run as Sequence
PSTATMODEL	IQUANT	5	Pstat Model
PSTATSECTION	LABEL	REF3000-16137	Pstat Section
PSTATSERIALNO	LABEL	16137	Pstat Serial Number
CTRLMODE	IQUANT	1	Control Mode
IESTAB	IQUANT	0	I/E Stability
CASPEED	IQUANT	1	Control Amp Speed
CONVENTION	IQUANT	1	Current Convention
ICHRANGE	IQUANT	2	Ich Range
ICHRANGEMODE	TOGGLE	F	Ich Auto Range
ICHOFFSETENABLE	TOGGLE	T	Ich Offset Enable
ICHOFFSET	QUANT	0	Ich Offset (V)
ICHFILTER	IQUANT	3	Ich Filter
VCHRANGE	IQUANT	2	Vch Range
VCHRANGEMODE	TOGGLE	F	Vch Auto Range
VCHOFFSETENABLE	TOGGLE	T	Vch Offset Enable
VCHOFFSET	QUANT	0	Vch Offset (V)
VCHFILTER	IQUANT	3	Vch Filter
ACHRANGE	IQUANT	2	Ach Range
ACHOFFSETENABLE	TOGGLE	F	Ach Offset Enable
ACHOFFSET	QUANT	0	Ach Offset (V)
ACHFILTER	IQUANT	3	Ach Filter
IERANGELOWERLIMIT	IQUANT	2	I/E Range Lower Limit
IERANGEMODE	TOGGLE	F	I/E AutoRange
IERANGE	IQUANT	11	I/E Range
POSFEEDENABLE	TOGGLE	F	Positive Feedback IR Comp
POSFEEDRESISTANCE	QUANT	0	Positive Feedback Resistance (ohm)
ACHSELECT	IQUANT	0	Ach Select
CABLEID	IQUANT	13	Cable ID
DCCALDATE	LABEL	7/31/2020	DC Calibration Date
ACCALDATE	LABEL	7/31/2020	AC Calibration Date
THERMOSELECT	IQUANT	1	Thermo Select
FRAMEWORKVERSION	QUANT	6.33	Framework Version
INSTRUMENTVERSION	LABEL	3.50	Instrument Version
COMPLIANCEVOLTAGE	IQUANT	0	Compliance Voltage
ZCURVE	TABLE
	Pt	Time	Freq	Zreal	Zimag	Zsig	Zmod	Zphz	Idc	Vdc	IERange
	#	s	Hz	ohm	ohm	V	ohm	°	A	V	#
	0	8	300046.9	11.81602	2.092626	1	11.9999	10.04299	2.099889E-005	0.000098	10
	1	11	238359.4	11.82764	1.664773	1	11.94423	8.011905	-1.751966E-005	0.0002662	10
	2	14	189328.1	11.85706	1.304334	1	11.92859	6.27757	4.456481E-005	0.0004272	10
	3	17	150421.9	11.88805	0.998065	1	11.92987	4.799033	8.645415E-005	0.0001588	10
	4	19	119484.4	11.9295	0.7716458	1	11.95443	3.700955	6.475583E-005	0.0002606	10
	5	22	94921.88	11.97169	0.5928188	1	11.98636	2.834878	9.493051E-006	0.0005623	10
	6	24	75421.88	12.01555	0.4098965	1	12.02254	1.95382	2.437073E-005	0.0005798	10
	7	27	59859.37	12.06504	0.2521391	1	12.06768	1.197211	2.238458E-005	0.0005762	10
	8	30	47578.12	12.11551	0.1143116	1	12.11605	0.5405779	6.600329E-006	0.0005683	10
	9	32	37828.12	12.16847	-0.0111515	1	12.16848	-0.0525075	-2.319724E-005	0.0006922	10
	10	35	30046.88	12.21994	-0.1368915	1	12.2207	-0.6418183	2.802946E-006	0.0006087	10
	11	37	23859.38	12.27468	-0.2672039	1	12.27759	-1.247058	1.863255E-005	0.0005856	10
	12	39	18984.38	12.32925	-0.4068839	1	12.33596	-1.890162	2.234319E-005	0.0006086	10
	13	42	15046.87	12.38769	-0.5658205	1	12.4006	-2.615227	-3.793787E-006	0.0006057	10
	14	44	11953.13	12.44799	-0.7520886	1	12.47069	-3.457521	2.239083E-005	0.0006452	10
	15	46	9515.62	12.51408	-0.964673	1	12.5512	-4.408042	1.187607E-005	0.0005773	10
	16	49	7546.875	12.58814	-1.228356	1	12.64793	-5.573301	3.854061E-006	0.0005886	10
	17	51	5928.309	12.67056	-1.563437	1	12.76665	-7.034246	2.228928E-005	0.0005936	10
	18	53	4733.456	12.76102	-1.945984	1	12.90854	-8.670486	-1.465461E-005	0.0006784	10
	19	56	3796.875	12.86428	-2.402542	1	13.08671	-10.57873	-2.77551E-005	0.0006505	10
	20	58	2987.132	12.99121	-3.010304	1	13.33542	-13.04625	-1.829726E-005	0.0006347	10
	21	60	2390.625	13.13282	-3.702014	1	13.64462	-15.74263	-2.566228E-005	0.0006931	10
	22	62	1884.191	13.31378	-4.618449	1	14.09209	-19.13127	-2.838861E-005	0.000663	10
	23	65	1516.544	13.51068	-5.631793	1	14.63747	-22.62833	2.333063E-005	0.0006232	10
	24	67	1193.986	13.76602	-7.001386	1	15.44418	-26.95786	-2.696478E-005	0.0006674	10
	25	70	946.5144	14.06502	-8.639233	1	16.50639	-31.55972	-1.163137E-005	0.0007082	10
	26	72	751.7689	14.40748	-10.63481	1	17.90739	-36.43271	-2.688055E-005	0.0007121	10
	27	74	597.4265	14.80559	-13.0892	1	19.7619	-41.47898	2.01692E-005	0.0006402	10
	28	76	477.4305	15.26206	-16.03061	1	22.13393	-46.40692	-2.954029E-006	0.000647	10
	29	79	376.6741	15.83012	-19.88261	1	25.41478	-51.47394	-2.786507E-006	0.0006428	10
	30	81	298.2954	16.50732	-24.61021	1	29.63366	-56.14824	-2.484779E-006	0.0006452	10
	31	83	237.7717	17.31085	-30.30208	1	34.89816	-60.26172	-2.560777E-006	0.0006477	10
	32	86	189.0121	18.29904	-37.38751	1	41.62548	-63.92091	1.254743E-006	4.799424E-005	9
	33	88	150.2404	19.5743	-46.19992	1	50.17554	-67.03827	1.27785E-006	4.939375E-005	9
	34	91	119.1737	21.21486	-57.20306	1	61.01033	-69.65173	1.29556E-006	4.857007E-005	9
	35	93	95.0169	23.27501	-70.46802	1	74.21232	-71.72203	1.250055E-006	4.895434E-005	9
	36	96	75.60484	25.9481	-86.92992	1	90.71999	-73.37993	1.279582E-006	4.336925E-005	9
	37	98	54.50582	31.14315	-117.2355	1	121.3015	-75.12319	1.264505E-006	4.576753E-005	9
	38	101	45.95588	34.73131	-136.9639	1	141.2989	-75.77087	1.23615E-006	5.283768E-005	9
	39	103	37.20238	40.21806	-165.9151	1	170.72	-76.37424	8.476463E-007	0.0001073	9
	40	105	30.04808	47.26533	-201.1822	1	206.6598	-76.77882	1.33579E-006	4.267535E-005	9
	41	108	23.91582	56.90673	-246.8946	1	253.368	-77.02058	1.282241E-006	5.054088E-005	9
	42	110	18.60119	70.90678	-309.0637	1	317.0933	-77.07856	1.211267E-006	4.857983E-005	9
	43	112	15.02404	86.38801	-373.5111	1	383.3712	-76.97726	1.53624E-006	5.100189E-005	9
	44	115	12.01923	106.8547	-452.3856	1	464.834	-76.71016	4.786285E-007	0.0006203	8
	45	117	9.450605	135.9169	-557.5354	1	573.8633	-76.29958	5.284726E-007	0.0006325	8
	46	120	7.512019	172.0847	-678.8276	1	700.3	-75.77502	6.427051E-007	0.0006419	8
	47	122	5.978954	218.5403	-822.8737	1	851.3994	-75.12663	6.635307E-007	0.0006227	8
	48	125	4.734848	278.6748	-998.36	1	1036.524	-74.40385	7.176722E-007	0.00065	8
	49	129	3.75601	354.1332	-1204.775	1	1255.744	-73.61976	5.042627E-007	0.0006512	8
	50	132	3.004808	443.4317	-1438.129	1	1504.941	-72.86341	5.985227E-007	0.0006377	8
	51	136	2.372217	560.4856	-1728.272	1	1816.885	-72.03191	6.119533E-007	0.0006903	8
	52	140	1.878005	692.529	-2070.768	1	2183.501	-71.50847	5.849181E-007	0.0006008	8
	53	145	1.512097	834.1992	-2437.138	1	2575.952	-71.10462	6.248281E-007	0.0006395	8
	54	150	1.201923	1009.321	-2910.338	1	3080.389	-70.87318	6.079317E-007	0.0005917	8
	55	156	0.956633	1203.849	-3466.068	1	3669.179	-70.84666	5.876001E-007	-1.238489E-005	8
