EXPLAIN
TAG	EISPOT
TITLE	LABEL	Potentiostatic EIS	Test Identifier
DATE	LABEL	9/11/2020	Date
TIME	LABEL	14:17:56	Time
NOTES	NOTES	1	Notes...
	
PSTAT	PSTAT	REF3000-16137	Potentiostat
VDC	POTEN	0.00000E+000	T	DC Voltage (V)
FREQINIT	QUANT	3.00000E+005	Initial Freq. (Hz)
FREQFINAL	QUANT	1.00000E+000	Final Freq. (Hz)
PTSPERDEC	QUANT	1.00000E+001	Points/decade
VAC	QUANT	5.00000E+001	AC Voltage (mV rms)
AREA	QUANT	1.00000E+000	Sample Area (cm^2)
SPEED	SELECTOR	2	Optimize for:
ZGUESS	QUANT	1.00000E+003	Estimated Z (ohms)
EOC	QUANT	0	Open Circuit (V)
SEQUENCER	TOGGLE	TRUE	Run as Sequence
PSTATMODEL	IQUANT	5	Pstat Model
PSTATSECTION	LABEL	REF3000-16137	Pstat Section
PSTATSERIALNO	LABEL	16137	Pstat Serial Number
CTRLMODE	IQUANT	1	Control Mode
IESTAB	IQUANT	0	I/E Stability
CASPEED	IQUANT	1	Control Amp Speed
CONVENTION	IQUANT	1	Current Convention
ICHRANGE	IQUANT	2	Ich Range
ICHRANGEMODE	TOGGLE	F	Ich Auto Range
ICHOFFSETENABLE	TOGGLE	T	Ich Offset Enable
ICHOFFSET	QUANT	0	Ich Offset (V)
ICHFILTER	IQUANT	3	Ich Filter
VCHRANGE	IQUANT	2	Vch Range
VCHRANGEMODE	TOGGLE	F	Vch Auto Range
VCHOFFSETENABLE	TOGGLE	T	Vch Offset Enable
VCHOFFSET	QUANT	0	Vch Offset (V)
VCHFILTER	IQUANT	3	Vch Filter
ACHRANGE	IQUANT	2	Ach Range
ACHOFFSETENABLE	TOGGLE	F	Ach Offset Enable
ACHOFFSET	QUANT	0	Ach Offset (V)
ACHFILTER	IQUANT	3	Ach Filter
IERANGELOWERLIMIT	IQUANT	2	I/E Range Lower Limit
IERANGEMODE	TOGGLE	F	I/E AutoRange
IERANGE	IQUANT	11	I/E Range
POSFEEDENABLE	TOGGLE	F	Positive Feedback IR Comp
POSFEEDRESISTANCE	QUANT	0	Positive Feedback Resistance (ohm)
ACHSELECT	IQUANT	0	Ach Select
CABLEID	IQUANT	13	Cable ID
DCCALDATE	LABEL	7/31/2020	DC Calibration Date
ACCALDATE	LABEL	7/31/2020	AC Calibration Date
THERMOSELECT	IQUANT	1	Thermo Select
FRAMEWORKVERSION	QUANT	6.33	Framework Version
INSTRUMENTVERSION	LABEL	3.50	Instrument Version
COMPLIANCEVOLTAGE	IQUANT	0	Compliance Voltage
ZCURVE	TABLE
	Pt	Time	Freq	Zreal	Zimag	Zsig	Zmod	Zphz	Idc	Vdc	IERange
	#	s	Hz	ohm	ohm	V	ohm	°	A	V	#
	0	10	300046.9	1.616102	2.264976	1	2.782427	54.49145	-0.0003752	-0.0007384	11
	1	13	238359.4	1.723	1.64121	1	2.379559	43.6073	-1.512272E-005	-0.0001699	12
	2	17	189328.1	1.638203	1.300565	1	2.091693	38.44597	-1.356455E-005	0.0001248	12
	3	21	150421.9	1.536016	1.11729	1	1.89939	36.03195	-0.0002888	-0.0001088	11
	4	23	119484.4	1.524086	0.8628583	1	1.751389	29.51628	0.0004835	0.000484	11
	5	26	94921.88	1.516294	0.6595379	1	1.653523	23.50745	-0.000166	0.0003479	11
	6	28	75421.88	1.51176	0.4870906	1	1.588293	17.859	0.000179	0.000461	11
	7	31	59859.37	1.511184	0.3418597	1	1.549369	12.74689	0.0001711	0.0005235	11
	8	33	47578.12	1.512773	0.216584	1	1.528199	8.147678	0.0001773	0.0005856	11
	9	36	37828.12	1.516081	0.1042075	1	1.519658	3.932026	-4.780549E-005	0.0005183	11
	10	38	30046.88	1.52135	-0.0017567	1	1.521351	-0.0661592	3.09068E-005	0.0005771	11
	11	41	23859.38	1.528575	-0.1057873	1	1.532231	-3.958929	-0.0001954	0.0005572	11
	12	43	18984.38	1.537426	-0.2118513	1	1.551954	-7.845724	-0.0000971	0.0005764	11
	13	46	15046.87	1.548956	-0.3280068	1	1.583304	-11.95633	0.0001554	0.0007567	11
	14	48	11953.13	1.562298	-0.4564498	1	1.627612	-16.28655	-0.0001963	0.0005879	11
	15	50	9515.62	1.578979	-0.60361	1	1.69042	-20.92079	-7.981889E-005	0.0006261	11
	16	53	7546.875	1.598884	-0.7801358	1	1.779056	-26.00892	-1.899568E-005	0.0007026	11
	17	55	5928.309	1.625604	-1.002446	1	1.909839	-31.66051	-0.0002113	0.000617	11
	18	57	4733.456	1.657063	-1.254351	1	2.078282	-37.12472	-9.014663E-005	0.0006159	11
	19	59	3796.875	1.696804	-1.553279	1	2.300395	-42.47144	0.0001842	0.0007528	11
	20	62	2987.132	1.752608	-1.953258	1	2.624281	-48.09919	-0.0002064	0.0006255	11
	21	64	2390.625	1.822042	-2.408365	1	3.019944	-52.89077	5.60625E-005	0.0007288	11
	22	66	1884.191	1.915069	-3.007751	1	3.565678	-57.51463	0.0001903	0.0007312	11
	23	69	1516.544	2.029123	-3.677925	1	4.200532	-61.11433	-0.0001332	0.0006627	10
	24	71	1193.986	2.188236	-4.579482	1	5.075434	-64.4599	9.342928E-005	0.0006023	10
	25	74	946.5144	2.395449	-5.652808	1	6.139415	-67.03458	6.114803E-005	0.0005481	10
	26	76	751.7689	2.655282	-6.964676	1	7.453673	-69.13066	0.0001281	0.000575	10
	27	78	597.4265	2.997772	-8.555071	1	9.065091	-70.68909	0.0001022	0.0005356	10
	28	80	477.4305	3.428025	-10.44519	1	10.99333	-71.83059	-8.199127E-006	0.0006507	10
	29	83	376.6741	4.021898	-12.87534	1	13.48889	-72.65265	-8.471698E-006	0.0006483	10
	30	85	298.2954	4.785935	-15.787	1	16.4965	-73.13496	-8.824995E-006	0.0006545	10
	31	87	237.7717	5.750199	-19.20341	1	20.04585	-73.33039	-8.697885E-006	0.0006468	10
	32	90	189.0121	7.011049	-23.35555	1	24.38517	-73.29089	-9.879459E-006	0.0006484	10
	33	92	150.2404	8.633605	-28.32409	1	29.6107	-73.048	-9.434799E-006	0.0006468	10
	34	95	119.1737	10.72015	-34.28957	1	35.92626	-72.63889	-8.949011E-006	0.000646	10
	35	97	95.0169	13.26598	-41.13722	1	43.22334	-72.12646	-5.930106E-006	-1.284764E-005	9
	36	99	75.60484	16.46085	-49.32274	1	51.99704	-71.54421	-6.565715E-006	5.000202E-005	9
	37	102	54.50582	22.27069	-63.5826	1	67.3701	-70.69648	-6.597745E-006	4.542549E-005	9
	38	105	45.95588	25.96931	-72.46854	1	76.98112	-70.28471	-6.191291E-006	5.190032E-005	9
	39	107	37.20238	31.20381	-85.07599	1	90.61789	-69.85818	-6.436528E-006	5.758391E-005	9
	40	109	30.04808	37.40677	-100.0629	1	106.8263	-69.50262	-6.599177E-006	5.112572E-005	9
	41	112	23.91582	45.24295	-119.1402	1	127.4414	-69.20596	-6.737263E-006	4.372857E-005	9
	42	114	18.60119	55.71712	-144.553	1	154.9192	-68.92113	-6.497754E-006	5.400922E-005	9
	43	116	15.02404	66.76405	-170.7944	1	183.3799	-68.64932	-5.929049E-006	5.881411E-005	9
	44	119	12.01923	81.47182	-203.5047	1	219.2073	-68.18162	-6.295425E-006	4.936114E-005	9
	45	121	9.450605	102.4646	-245.7204	1	266.2283	-67.36402	-6.466309E-006	4.446902E-005	9
	46	124	7.512019	129.6081	-293.8852	1	321.1959	-66.20174	-6.087691E-006	3.504499E-005	9
	47	126	5.978954	166.0854	-348.4272	1	385.9868	-64.51418	-5.972664E-006	4.585956E-005	9
	48	129	4.734848	215.6413	-409.2667	1	462.6018	-62.2154	-5.999041E-006	0.0006455	8
	49	132	3.75601	281.2264	-474.9315	1	551.9495	-59.36848	-5.995189E-006	0.0005773	8
	50	136	3.004808	361.8809	-537.9662	1	648.3559	-56.07194	-6.054895E-006	0.0006597	8
	51	140	2.372217	468.0265	-599.2169	1	760.3353	-52.0079	-5.916409E-006	0.0007049	8
	52	144	1.878005	590.3799	-646.438	1	875.4602	-47.59513	-6.009839E-006	0.0006097	8
	53	149	1.512097	714.496	-674.2509	1	982.405	-43.34007	-5.890675E-006	0.0006512	8
	54	154	1.201923	855.5955	-683.3569	1	1094.998	-38.61407	-5.830683E-006	0.0006013	8
	55	160	0.956633	992.569	-670.808	1	1197.988	-34.05202	-6.176529E-006	-4.703764E-006	8
