EXPLAIN
TAG	EISPOT
TITLE	LABEL	Potentiostatic EIS	Test Identifier
DATE	LABEL	9/11/2020	Date
TIME	LABEL	16:15:20	Time
NOTES	NOTES	1	Notes...
	
PSTAT	PSTAT	REF3000-16137	Potentiostat
VDC	POTEN	0.00000E+000	T	DC Voltage (V)
FREQINIT	QUANT	3.00000E+005	Initial Freq. (Hz)
FREQFINAL	QUANT	1.00000E+000	Final Freq. (Hz)
PTSPERDEC	QUANT	1.00000E+001	Points/decade
VAC	QUANT	5.00000E+001	AC Voltage (mV rms)
AREA	QUANT	1.00000E+000	Sample Area (cm^2)
SPEED	SELECTOR	2	Optimize for:
ZGUESS	QUANT	1.00000E+003	Estimated Z (ohms)
EOC	QUANT	0	Open Circuit (V)
SEQUENCER	TOGGLE	TRUE	Run as Sequence
PSTATMODEL	IQUANT	5	Pstat Model
PSTATSECTION	LABEL	REF3000-16137	Pstat Section
PSTATSERIALNO	LABEL	16137	Pstat Serial Number
CTRLMODE	IQUANT	1	Control Mode
IESTAB	IQUANT	0	I/E Stability
CASPEED	IQUANT	1	Control Amp Speed
CONVENTION	IQUANT	1	Current Convention
ICHRANGE	IQUANT	2	Ich Range
ICHRANGEMODE	TOGGLE	F	Ich Auto Range
ICHOFFSETENABLE	TOGGLE	T	Ich Offset Enable
ICHOFFSET	QUANT	0	Ich Offset (V)
ICHFILTER	IQUANT	3	Ich Filter
VCHRANGE	IQUANT	2	Vch Range
VCHRANGEMODE	TOGGLE	F	Vch Auto Range
VCHOFFSETENABLE	TOGGLE	T	Vch Offset Enable
VCHOFFSET	QUANT	0	Vch Offset (V)
VCHFILTER	IQUANT	3	Vch Filter
ACHRANGE	IQUANT	2	Ach Range
ACHOFFSETENABLE	TOGGLE	F	Ach Offset Enable
ACHOFFSET	QUANT	0	Ach Offset (V)
ACHFILTER	IQUANT	3	Ach Filter
IERANGELOWERLIMIT	IQUANT	2	I/E Range Lower Limit
IERANGEMODE	TOGGLE	F	I/E AutoRange
IERANGE	IQUANT	11	I/E Range
POSFEEDENABLE	TOGGLE	F	Positive Feedback IR Comp
POSFEEDRESISTANCE	QUANT	0	Positive Feedback Resistance (ohm)
ACHSELECT	IQUANT	0	Ach Select
CABLEID	IQUANT	13	Cable ID
DCCALDATE	LABEL	7/31/2020	DC Calibration Date
ACCALDATE	LABEL	7/31/2020	AC Calibration Date
THERMOSELECT	IQUANT	1	Thermo Select
FRAMEWORKVERSION	QUANT	6.33	Framework Version
INSTRUMENTVERSION	LABEL	3.50	Instrument Version
COMPLIANCEVOLTAGE	IQUANT	0	Compliance Voltage
ZCURVE	TABLE
	Pt	Time	Freq	Zreal	Zimag	Zsig	Zmod	Zphz	Idc	Vdc	IERange
	#	s	Hz	ohm	ohm	V	ohm	°	A	V	#
	0	21	300046.9	68.73199	-3537.756	1	3538.424	-88.88699	1.972893E-005	-0.0010685	9
	1	45	238359.4	141.452	-4395.76	1	4398.036	-88.15691	2.451924E-009	-0.0021146	9
	2	59	189328.1	112.8913	-5617.588	1	5618.722	-88.84874	2.891934E-005	-0.0020255	9
	3	66	150421.9	162.9775	-6889.603	1	6891.53	-88.64489	2.477098E-007	-0.0019223	9
	4	74	119484.4	606.1533	-8575.325	1	8596.722	-85.95673	7.755345E-005	-0.0235384	8
	5	81	94921.88	685.2649	-10660.15	1	10682.16	-86.32192	1.573427E-005	-0.0092643	8
	6	90	75421.88	764.6547	-13344.91	1	13366.79	-86.72057	2.570476E-005	-0.0091756	8
	7	97	59859.37	947.4587	-16890.58	1	16917.13	-86.78942	-1.637599E-006	0.0075262	8
	8	106	47578.12	3589.093	-21913.61	1	22205.58	-80.69846	6.137348E-006	-0.0255803	7
	9	112	37828.12	4091.336	-26981.1	1	27289.54	-81.37752	-7.056118E-006	0.0187398	7
	10	119	30046.88	4545.481	-33359.44	1	33667.7	-82.24079	7.234478E-006	-0.0236659	7
	11	126	23859.38	5186.517	-41511.83	1	41834.58	-82.87833	-1.455143E-006	0.0201865	7
	12	131	18984.38	6319.855	-51887.36	1	52270.82	-83.05561	-3.507692E-006	-0.0039513	7
	13	137	15046.87	5889.767	-66440.54	1	66701.09	-84.93414	-4.942639E-006	0.0253757	7
	14	142	11953.13	7721.34	-80584.47	1	80953.54	-84.52682	6.378523E-006	-0.026013	7
	15	147	9515.62	9856.21	-99924.8	1	100409.7	-84.36678	-6.499217E-006	0.0122209	7
	16	153	7546.875	10399.07	-119863	1	120313.3	-85.04155	2.727492E-005	-0.0075642	8
	17	160	5928.309	55463.71	-159902.5	1	169248.4	-70.87041	-1.833012E-006	-0.0049716	8
	18	169	4733.456	12620.19	-203219.1	1	203610.6	-86.44642	6.366814E-006	-0.0258567	7
	19	174	3796.875	28899.81	-244450.3	1	246152.7	-83.25758	-3.452647E-006	-0.0038708	7
	20	180	2987.132	36723.04	-293303.2	1	295593.2	-82.86342	-3.475496E-006	-0.0039684	7
	21	186	2390.625	17280.76	-388997	1	389380.7	-87.45638	-3.444691E-006	-0.00404	7
	22	194	1884.191	101353.4	-531497.9	1	541075.4	-79.20367	6.4052E-006	-0.0106017	7
	23	201	1516.544	-89353.3	-558422	1	565525.6	-99.0909	4.854019E-006	-0.0016188	7
	24	208	1193.986	167822.9	-629888.1	1	651861.6	-75.08109	4.846653E-006	-0.0015925	7
	25	214	946.5144	-160556.5	-1496490	1	1505078	-96.1238	-3.336692E-006	0.0241686	7
	26	219	751.7689	139853	-1108248	1	1117038	-82.8077	-5.30209E-007	0.0252189	6
	27	224	597.4265	-251490.4	1492340	1	1513383	99.5657	6.284618E-006	-0.0098779	7
	28	230	477.4305	369411.6	-1754539	1	1793006	-78.11024	-9.913364E-008	0.0006056	7
	29	236	376.6741	790961.3	-2199198	1	2337112	-70.21842	-1.019929E-009	0.0006184	5
	30	238	298.2954	998196	-2666725	1	2847423	-69.47835	-1.066219E-009	0.0006508	5
	31	241	237.7717	1032346	-3266382	1	3425637	-72.46076	-1.022772E-008	0.0006262	6
	32	245	189.0121	1628129	-3887204	1	4214399	-67.27396	-1.069962E-009	0.0005748	5
	33	249	150.2404	2185088	-4665400	1	5151754	-64.90347	-1.047317E-009	0.0005723	5
	34	253	119.1737	2645445	-4527295	1	5243546	-59.70087	-1.133745E-009	0.0006664	5
	35	257	95.0169	3737191	-6447226	1	7452068	-59.9009	-1.136877E-009	0.0006686	5
	36	260	75.60484	5178687	-7494396	1	9109597	-55.35522	-1.162417E-009	0.0006576	5
	37	263	54.50582	7007522	-8721574	1	1.1188E+007	-51.21917	-1.048438E-009	0.0005799	5
	38	266	45.95588	9.981837E+006	-9048100	1	1.347239E+007	-42.19094	-8.312367E-011	0.0005852	4
	39	268	37.20238	1.143668E+007	-1.057172E+007	1	1.55743E+007	-42.74936	-1.397877E-010	0.000597	4
	40	271	30.04808	1.418015E+007	-1.035987E+007	1	1.756143E+007	-36.15147	-8.722362E-011	0.0006508	4
	41	274	23.91582	1.608598E+007	-9.664864E+006	1	1.876615E+007	-30.99851	-4.289441E-011	0.0006662	4
	42	277	18.60119	2.151635E+007	-7965216	1	2.294337E+007	-20.31423	1.454252E-010	0.0005885	4
	43	279	15.02404	2.067349E+007	-9349839	1	2.268948E+007	-24.33544	-1.046823E-010	0.0006712	4
	44	282	12.01923	2.248058E+007	-9021818	1	2.422333E+007	-21.86639	-8.89698E-011	0.0005819	4
	45	284	9.450605	2.342702E+007	-8815820	1	2.503086E+007	-20.62181	-1.093221E-009	0.0006338	5
	46	288	7.512019	2.496884E+007	-7868815	1	2.617941E+007	-17.492	-1.076281E-009	0.0005993	5
	47	292	5.978954	2.617931E+007	-7624641	1	2.726704E+007	-16.23803	-1.079168E-009	0.0006717	5
	48	298	4.734848	2.909698E+007	-6945540	1	2.991446E+007	-13.42545	-1.128852E-009	0.0006906	5
	49	304	3.75601	3.170421E+007	-6249152	1	3.231422E+007	-11.15052	-1.037915E-009	0.0005854	5
	50	311	3.004808	3.407768E+007	-6369506	1	3.466783E+007	-10.58707	-1.119035E-009	0.0006209	5
	51	319	2.372217	3.789767E+007	-5044095	1	3.823187E+007	-7.581381	-9.277903E-011	0.0005984	4
	52	323	1.878005	5.444471E+007	3162457	1	5.453648E+007	3.324328	5.184611E-012	0.0006895	3
	53	328	1.512097	5.498555E+007	4740723	1	5.518954E+007	4.92772	8.781783E-012	0.0007749	3
	54	333	1.201923	5.576275E+007	5551610	1	5.603842E+007	5.6855	5.003466E-012	0.0006919	3
	55	339	0.956633	5.688971E+007	5960873	1	5.720115E+007	5.981594	-4.445352E-012	6.442287E-005	3
