EXPLAIN
TAG	EISPOT
TITLE	LABEL	Potentiostatic EIS	Test Identifier
DATE	LABEL	9/11/2020	Date
TIME	LABEL	15:33:52	Time
NOTES	NOTES	1	Notes...
	
PSTAT	PSTAT	REF3000-16137	Potentiostat
VDC	POTEN	0.00000E+000	T	DC Voltage (V)
FREQINIT	QUANT	3.00000E+005	Initial Freq. (Hz)
FREQFINAL	QUANT	1.00000E+000	Final Freq. (Hz)
PTSPERDEC	QUANT	1.00000E+001	Points/decade
VAC	QUANT	5.00000E+001	AC Voltage (mV rms)
AREA	QUANT	1.00000E+000	Sample Area (cm^2)
SPEED	SELECTOR	2	Optimize for:
ZGUESS	QUANT	1.00000E+003	Estimated Z (ohms)
EOC	QUANT	0	Open Circuit (V)
SEQUENCER	TOGGLE	TRUE	Run as Sequence
PSTATMODEL	IQUANT	5	Pstat Model
PSTATSECTION	LABEL	REF3000-16137	Pstat Section
PSTATSERIALNO	LABEL	16137	Pstat Serial Number
CTRLMODE	IQUANT	1	Control Mode
IESTAB	IQUANT	0	I/E Stability
CASPEED	IQUANT	1	Control Amp Speed
CONVENTION	IQUANT	1	Current Convention
ICHRANGE	IQUANT	2	Ich Range
ICHRANGEMODE	TOGGLE	F	Ich Auto Range
ICHOFFSETENABLE	TOGGLE	T	Ich Offset Enable
ICHOFFSET	QUANT	0	Ich Offset (V)
ICHFILTER	IQUANT	3	Ich Filter
VCHRANGE	IQUANT	2	Vch Range
VCHRANGEMODE	TOGGLE	F	Vch Auto Range
VCHOFFSETENABLE	TOGGLE	T	Vch Offset Enable
VCHOFFSET	QUANT	0	Vch Offset (V)
VCHFILTER	IQUANT	3	Vch Filter
ACHRANGE	IQUANT	2	Ach Range
ACHOFFSETENABLE	TOGGLE	F	Ach Offset Enable
ACHOFFSET	QUANT	0	Ach Offset (V)
ACHFILTER	IQUANT	3	Ach Filter
IERANGELOWERLIMIT	IQUANT	2	I/E Range Lower Limit
IERANGEMODE	TOGGLE	F	I/E AutoRange
IERANGE	IQUANT	11	I/E Range
POSFEEDENABLE	TOGGLE	F	Positive Feedback IR Comp
POSFEEDRESISTANCE	QUANT	0	Positive Feedback Resistance (ohm)
ACHSELECT	IQUANT	0	Ach Select
CABLEID	IQUANT	13	Cable ID
DCCALDATE	LABEL	7/31/2020	DC Calibration Date
ACCALDATE	LABEL	7/31/2020	AC Calibration Date
THERMOSELECT	IQUANT	1	Thermo Select
FRAMEWORKVERSION	QUANT	6.33	Framework Version
INSTRUMENTVERSION	LABEL	3.50	Instrument Version
COMPLIANCEVOLTAGE	IQUANT	0	Compliance Voltage
ZCURVE	TABLE
	Pt	Time	Freq	Zreal	Zimag	Zsig	Zmod	Zphz	Idc	Vdc	IERange
	#	s	Hz	ohm	ohm	V	ohm	°	A	V	#
	0	7	300046.9	52.71762	1.391804	1	52.73599	1.512321	5.666508E-006	-0.0015053	9
	1	10	238359.4	53.03685	1.053467	1	53.04731	1.137912	-4.315368E-005	0.0004062	9
	2	13	189328.1	53.39878	0.7490559	1	53.40403	0.8036687	-1.111328E-005	-0.0009345	9
	3	15	150421.9	53.79176	0.5452852	1	53.79453	0.5807853	2.734051E-005	3.962423E-005	9
	4	18	119484.4	54.10136	0.3624241	1	54.10257	0.3838178	-7.128817E-007	0.0006964	9
	5	21	94921.88	54.46114	0.4295395	1	54.46283	0.4518872	2.54915E-006	0.0002176	9
	6	23	75421.88	54.75639	0.242692	1	54.75693	0.2539455	1.73133E-005	-0.000269	9
	7	26	59859.37	55.06356	0.0754272	1	55.06361	0.0784848	-1.640138E-005	0.0003498	9
	8	28	47578.12	55.39537	-0.0774169	1	55.39542	-0.0800727	1.847576E-005	-0.00061	9
	9	31	37828.12	55.72402	-0.2191331	1	55.72445	-0.2253128	1.713634E-005	-0.0001585	9
	10	33	30046.88	56.07687	-0.3371092	1	56.07789	-0.3444326	1.525344E-005	-0.0005891	9
	11	36	23859.38	56.4143	-0.4690116	1	56.41624	-0.476329	-1.555529E-005	0.0004083	9
	12	38	18984.38	56.73211	-0.6149332	1	56.73544	-0.6210186	-9.050203E-006	0.0006223	9
	13	40	15046.87	57.03822	-0.8001795	1	57.04383	-0.80374	-1.674426E-005	0.0003997	9
	14	43	11953.13	57.39814	-0.978334	1	57.40648	-0.976495	-1.258722E-006	0.000546	9
	15	45	9515.62	57.70213	-1.212992	1	57.71488	-1.204272	-1.62397E-005	0.0005497	9
	16	47	7546.875	58.04601	-1.507155	1	58.06557	-1.487341	-1.340899E-005	0.0006998	9
	17	50	5928.309	58.39952	-1.875455	1	58.42963	-1.839377	1.540016E-005	-0.0005875	9
	18	52	4733.456	58.74883	-2.32336	1	58.79475	-2.264715	-1.455007E-005	0.0003454	9
	19	54	3796.875	59.14069	-2.884155	1	59.21098	-2.791971	1.995666E-005	-0.0002635	9
	20	57	2987.132	59.54849	-3.568946	1	59.65535	-3.429831	2.101618E-005	-0.0004335	9
	21	59	2390.625	59.96095	-4.336962	1	60.11759	-4.136986	2.183784E-005	-0.0002748	9
	22	61	1884.191	60.35487	-5.451354	1	60.60056	-5.161047	1.021385E-005	0.0001073	9
	23	63	1516.544	60.87703	-6.670555	1	61.2414	-6.253195	-1.045868E-005	0.0006578	9
	24	66	1193.986	61.41138	-8.349857	1	61.97643	-7.742795	2.01375E-005	-0.000502	9
	25	68	946.5144	61.98778	-10.35025	1	62.84594	-9.479366	-1.629164E-005	0.000672	9
	26	71	751.7689	62.68667	-12.78051	1	63.97625	-11.52349	-1.698913E-005	0.0006454	9
	27	73	597.4265	63.42492	-15.79261	1	65.36151	-13.98214	1.98151E-005	-0.0006225	9
	28	75	477.4305	64.29645	-19.38707	1	67.15572	-16.77944	1.269674E-006	4.343681E-005	9
	29	78	376.6741	65.35403	-24.06947	1	69.64545	-20.21843	1.373221E-006	4.505134E-005	9
	30	80	298.2954	66.58401	-29.74418	1	72.92562	-24.07111	1.332514E-006	4.3055E-005	9
	31	82	237.7717	68.01066	-36.50813	1	77.18998	-28.22691	1.280966E-006	4.413241E-005	9
	32	85	189.0121	69.69248	-44.88279	1	82.89455	-32.78202	1.333445E-006	4.34238E-005	9
	33	87	150.2404	71.64049	-55.15773	1	90.41424	-37.59354	1.316065E-006	4.072183E-005	9
	34	90	119.1737	73.91441	-67.92747	1	100.3867	-42.58306	1.316455E-006	4.175393E-005	9
	35	92	95.0169	76.51778	-83.30991	1	113.1172	-47.43341	1.248773E-006	4.448408E-005	9
	36	94	75.60484	79.60165	-102.4597	1	129.7475	-52.15612	1.308018E-006	3.847824E-005	9
	37	97	54.50582	84.9218	-137.9986	1	162.0349	-58.39262	1.289894E-006	4.240825E-005	9
	38	99	45.95588	88.55434	-161.3503	1	184.0538	-61.24058	1.249431E-006	5.351725E-005	9
	39	102	37.20238	93.79892	-195.8474	1	217.1507	-64.40843	1.232771E-006	5.24765E-005	9
	40	104	30.04808	100.3253	-238.3132	1	258.5698	-67.16984	1.260146E-006	4.509678E-005	9
	41	107	23.91582	109.1109	-293.9777	1	313.573	-69.63741	1.315634E-006	4.450966E-005	9
	42	109	18.60119	121.432	-370.2317	1	389.6374	-71.84106	1.407306E-006	4.303316E-005	9
	43	111	15.02404	134.5619	-448.2463	1	468.0082	-73.29043	3.802258E-007	0.0006304	8
	44	114	12.01923	152.4251	-549.4318	1	570.183	-74.49475	3.134603E-007	0.0006181	8
	45	116	9.450605	177.4889	-683.6583	1	706.3221	-75.44637	2.772618E-007	0.0006142	8
	46	118	7.512019	207.9386	-841.372	1	866.6864	-76.11797	2.849411E-007	0.0006048	8
	47	121	5.978954	247.4379	-1033.322	1	1062.535	-76.5336	2.953219E-007	0.0006219	8
	48	124	4.734848	300.1284	-1273.511	1	1308.399	-76.73907	3.059631E-007	0.0006056	8
	49	127	3.75601	366.8502	-1565.149	1	1607.567	-76.80875	3.611862E-007	0.0006425	8
	50	131	3.004808	449.9818	-1905.409	1	1957.822	-76.71247	3.267656E-007	0.0006598	8
	51	135	2.372217	566.9103	-2343.113	1	2410.719	-76.3988	3.437072E-007	0.0005765	8
	52	139	1.878005	712.6672	-2876.967	1	2963.922	-76.08706	3.756295E-007	0.0006774	8
	53	144	1.512097	883.4531	-3459.009	1	3570.046	-75.67258	3.350145E-007	0.0006387	8
	54	149	1.201923	1127.919	-4224.246	1	4372.237	-75.05018	5.80926E-008	0.0006131	7
	55	155	0.956633	1429.111	-5113.902	1	5309.836	-74.38666	-3.723758E-009	-1.146677E-005	7
