EXPLAIN
TAG	EISPOT
TITLE	LABEL	Potentiostatic EIS	Test Identifier
DATE	LABEL	9/11/2020	Date
TIME	LABEL	15:55:08	Time
NOTES	NOTES	1	Notes...
	
PSTAT	PSTAT	REF3000-16137	Potentiostat
VDC	POTEN	0.00000E+000	T	DC Voltage (V)
FREQINIT	QUANT	3.00000E+005	Initial Freq. (Hz)
FREQFINAL	QUANT	1.00000E+000	Final Freq. (Hz)
PTSPERDEC	QUANT	1.00000E+001	Points/decade
VAC	QUANT	5.00000E+001	AC Voltage (mV rms)
AREA	QUANT	1.00000E+000	Sample Area (cm^2)
SPEED	SELECTOR	2	Optimize for:
ZGUESS	QUANT	1.00000E+003	Estimated Z (ohms)
EOC	QUANT	0	Open Circuit (V)
SEQUENCER	TOGGLE	TRUE	Run as Sequence
PSTATMODEL	IQUANT	5	Pstat Model
PSTATSECTION	LABEL	REF3000-16137	Pstat Section
PSTATSERIALNO	LABEL	16137	Pstat Serial Number
CTRLMODE	IQUANT	1	Control Mode
IESTAB	IQUANT	0	I/E Stability
CASPEED	IQUANT	1	Control Amp Speed
CONVENTION	IQUANT	1	Current Convention
ICHRANGE	IQUANT	2	Ich Range
ICHRANGEMODE	TOGGLE	F	Ich Auto Range
ICHOFFSETENABLE	TOGGLE	T	Ich Offset Enable
ICHOFFSET	QUANT	0	Ich Offset (V)
ICHFILTER	IQUANT	3	Ich Filter
VCHRANGE	IQUANT	2	Vch Range
VCHRANGEMODE	TOGGLE	F	Vch Auto Range
VCHOFFSETENABLE	TOGGLE	T	Vch Offset Enable
VCHOFFSET	QUANT	0	Vch Offset (V)
VCHFILTER	IQUANT	3	Vch Filter
ACHRANGE	IQUANT	2	Ach Range
ACHOFFSETENABLE	TOGGLE	F	Ach Offset Enable
ACHOFFSET	QUANT	0	Ach Offset (V)
ACHFILTER	IQUANT	3	Ach Filter
IERANGELOWERLIMIT	IQUANT	2	I/E Range Lower Limit
IERANGEMODE	TOGGLE	F	I/E AutoRange
IERANGE	IQUANT	11	I/E Range
POSFEEDENABLE	TOGGLE	F	Positive Feedback IR Comp
POSFEEDRESISTANCE	QUANT	0	Positive Feedback Resistance (ohm)
ACHSELECT	IQUANT	0	Ach Select
CABLEID	IQUANT	13	Cable ID
DCCALDATE	LABEL	7/31/2020	DC Calibration Date
ACCALDATE	LABEL	7/31/2020	AC Calibration Date
THERMOSELECT	IQUANT	1	Thermo Select
FRAMEWORKVERSION	QUANT	6.33	Framework Version
INSTRUMENTVERSION	LABEL	3.50	Instrument Version
COMPLIANCEVOLTAGE	IQUANT	0	Compliance Voltage
ZCURVE	TABLE
	Pt	Time	Freq	Zreal	Zimag	Zsig	Zmod	Zphz	Idc	Vdc	IERange
	#	s	Hz	ohm	ohm	V	ohm	°	A	V	#
	0	17	300046.9	1211.004	-1111.135	1	1643.518	-42.53738	-3.008515E-005	-0.0012171	9
	1	30	238359.4	1465.783	-1229.735	1	1913.313	-39.99536	2.179937E-005	-0.0021988	9
	2	52	189328.1	1733.822	-1297.476	1	2165.544	-36.80871	-2.284631E-005	0.001576	9
	3	63	150421.9	2014.826	-1274.394	1	2384.031	-32.31369	8.132565E-005	-0.0032799	9
	4	73	119484.4	2302.434	-1264.087	1	2626.617	-28.76775	-0.0001051	0.0038118	9
	5	82	94921.88	2626.212	-1161.614	1	2871.644	-23.86054	-1.643287E-005	0.0100551	8
	6	89	75421.88	2876.989	-1089.685	1	3076.44	-20.74463	-2.125122E-005	0.0100804	8
	7	94	59859.37	3093.158	-1004.399	1	3252.145	-17.98945	2.433011E-005	-0.005266	8
	8	100	47578.12	3312.879	-901.4679	1	3433.338	-15.2222	-2.229931E-005	0.0054744	8
	9	108	37828.12	3521.493	-824.2291	1	3616.665	-13.17332	-1.620453E-005	0.0100675	8
	10	115	30046.88	3694.464	-728.7471	1	3765.652	-11.15856	1.309636E-005	-0.0081501	8
	11	121	23859.38	3870.465	-645.2684	1	3923.885	-9.465073	3.337533E-007	0.0063792	8
	12	126	18984.38	4067.808	-357.4671	1	4083.485	-5.022085	-4.738883E-006	0.0182977	7
	13	130	15046.87	4129.667	-470.5495	1	4156.389	-6.500456	1.31331E-005	-0.0082353	8
	14	136	11953.13	4255.194	-415.18	1	4275.4	-5.57272	-1.049643E-005	-0.0012989	8
	15	141	9515.62	4390.013	-356.644	1	4404.476	-4.644502	5.564196E-006	-0.006563	8
	16	146	7546.875	4491.958	-296.2682	1	4501.718	-3.773492	2.348068E-005	-0.0085354	8
	17	152	5928.309	4613.459	-239.3863	1	4619.666	-2.970338	-2.011217E-005	0.0033175	8
	18	157	4733.456	4742.766	-228.4212	1	4748.263	-2.757351	1.330366E-005	-0.0082756	8
	19	163	3796.875	4861.195	-194.9752	1	4865.104	-2.296816	2.50035E-005	-0.0056044	8
	20	168	2987.132	5027.842	-186.678	1	5031.307	-2.12635	2.529058E-005	-0.0072569	8
	21	173	2390.625	5109.012	-121.9433	1	5110.467	-1.367291	-8.954663E-006	0.0090439	8
	22	179	1884.191	5199.436	-136.2224	1	5201.22	-1.500775	-2.311584E-005	0.0055937	8
	23	184	1516.544	5391.293	-138.0839	1	5393.061	-1.467162	-1.04618E-005	-0.0013473	8
	24	189	1193.986	5462.547	-42.11512	1	5462.709	-0.4417301	-9.415968E-006	0.0091891	8
	25	195	946.5144	5683.638	-11.29821	1	5683.649	-0.1138952	-1.028795E-005	-0.0016182	8
	26	199	751.7689	5698.728	-98.8273	1	5699.585	-0.993523	1.828901E-005	-0.0004019	8
	27	203	597.4265	5853.455	-99.8432	1	5854.306	-0.977208	-1.695626E-005	0.0014224	8
	28	206	477.4305	5876.117	-70.34412	1	5876.538	-0.685866	-3.965655E-007	0.0006406	8
	29	209	376.6741	5953.848	-64.03208	1	5954.192	-0.6161774	-7.797733E-008	0.0006346	7
	30	211	298.2954	6017.661	-70.02186	1	6018.068	-0.666667	-8.296107E-008	0.0005701	7
	31	213	237.7717	6085.049	-77.77225	1	6085.546	-0.7322503	-8.062572E-008	0.0006672	7
	32	216	189.0121	6153.558	-89.45531	1	6154.208	-0.8328598	-1.009542E-007	0.0006127	7
	33	218	150.2404	6225.376	-104.738	1	6226.257	-0.963874	-8.166866E-008	0.0006121	7
	34	220	119.1737	6294.961	-125.558	1	6296.213	-1.142658	-9.063453E-008	0.0005653	7
	35	223	95.0169	6369.443	-149.1345	1	6371.189	-1.341282	-6.227909E-008	0.0005624	7
	36	225	75.60484	6447.422	-180.5933	1	6449.951	-1.604445	-6.461085E-008	0.00058	7
	37	228	54.50582	6531.483	-238.0639	1	6535.82	-2.087432	-7.511139E-008	0.0006284	7
	38	230	45.95588	6610.721	-275.096	1	6616.442	-2.38291	-1.402395E-007	0.0006258	7
	39	233	37.20238	6689.436	-335.4559	1	6697.841	-2.870814	-4.600782E-008	0.0006203	7
	40	235	30.04808	6770.314	-403.5254	1	6782.329	-3.410917	-3.48147E-008	0.0006027	7
	41	238	23.91582	6854.178	-501.4595	1	6872.497	-4.18437	-1.853419E-007	0.0006352	7
	42	240	18.60119	6951.088	-631.8342	1	6979.745	-5.193751	2.078369E-008	0.0006056	7
	43	242	15.02404	7053.238	-741.7802	1	7092.137	-6.003656	-2.333507E-007	0.0005709	7
	44	244	12.01923	7154.386	-915.4352	1	7212.715	-7.291625	2.868374E-008	0.0005469	7
	45	247	9.450605	7260.218	-1155.031	1	7351.521	-9.039452	-8.830036E-008	0.0005536	7
	46	249	7.512019	7382.13	-1411.725	1	7515.904	-10.82627	-2.498031E-008	0.0005998	7
	47	252	5.978954	7526.957	-1758.014	1	7729.533	-13.14647	-4.918912E-009	0.0006317	7
	48	255	4.734848	7705.806	-2170.51	1	8005.658	-15.73104	-1.818966E-008	0.0006315	7
	49	258	3.75601	7924.021	-2659.748	1	8358.491	-18.55466	-8.066136E-008	0.0005701	7
	50	262	3.004808	8155.627	-3261.272	1	8783.516	-21.79548	-1.071952E-007	0.0006128	7
	51	266	2.372217	8452.454	-4003.091	1	9352.472	-25.34228	-6.114825E-008	0.0006614	7
	52	270	1.878005	8777.055	-4943.164	1	10073.31	-29.38785	-7.912307E-008	0.0005637	7
	53	274	1.512097	9150.816	-5991.809	1	10937.97	-33.21614	-7.97539E-008	0.0006516	7
	54	280	1.201923	9625.37	-7374.446	1	12125.6	-37.45743	-8.069369E-008	0.0005554	7
	55	286	0.956633	10173.21	-9052.807	1	13617.92	-41.66483	-8.852451E-008	-4.277381E-005	7
