EXPLAIN
TAG	EISPOT
TITLE	LABEL	Potentiostatic EIS	Test Identifier
DATE	LABEL	9/11/2020	Date
TIME	LABEL	15:36:36	Time
NOTES	NOTES	1	Notes...
	
PSTAT	PSTAT	REF3000-16137	Potentiostat
VDC	POTEN	0.00000E+000	T	DC Voltage (V)
FREQINIT	QUANT	3.00000E+005	Initial Freq. (Hz)
FREQFINAL	QUANT	1.00000E+000	Final Freq. (Hz)
PTSPERDEC	QUANT	1.00000E+001	Points/decade
VAC	QUANT	5.00000E+001	AC Voltage (mV rms)
AREA	QUANT	1.00000E+000	Sample Area (cm^2)
SPEED	SELECTOR	2	Optimize for:
ZGUESS	QUANT	1.00000E+003	Estimated Z (ohms)
EOC	QUANT	0	Open Circuit (V)
SEQUENCER	TOGGLE	TRUE	Run as Sequence
PSTATMODEL	IQUANT	5	Pstat Model
PSTATSECTION	LABEL	REF3000-16137	Pstat Section
PSTATSERIALNO	LABEL	16137	Pstat Serial Number
CTRLMODE	IQUANT	1	Control Mode
IESTAB	IQUANT	0	I/E Stability
CASPEED	IQUANT	1	Control Amp Speed
CONVENTION	IQUANT	1	Current Convention
ICHRANGE	IQUANT	2	Ich Range
ICHRANGEMODE	TOGGLE	F	Ich Auto Range
ICHOFFSETENABLE	TOGGLE	T	Ich Offset Enable
ICHOFFSET	QUANT	0	Ich Offset (V)
ICHFILTER	IQUANT	3	Ich Filter
VCHRANGE	IQUANT	2	Vch Range
VCHRANGEMODE	TOGGLE	F	Vch Auto Range
VCHOFFSETENABLE	TOGGLE	T	Vch Offset Enable
VCHOFFSET	QUANT	0	Vch Offset (V)
VCHFILTER	IQUANT	3	Vch Filter
ACHRANGE	IQUANT	2	Ach Range
ACHOFFSETENABLE	TOGGLE	F	Ach Offset Enable
ACHOFFSET	QUANT	0	Ach Offset (V)
ACHFILTER	IQUANT	3	Ach Filter
IERANGELOWERLIMIT	IQUANT	2	I/E Range Lower Limit
IERANGEMODE	TOGGLE	F	I/E AutoRange
IERANGE	IQUANT	11	I/E Range
POSFEEDENABLE	TOGGLE	F	Positive Feedback IR Comp
POSFEEDRESISTANCE	QUANT	0	Positive Feedback Resistance (ohm)
ACHSELECT	IQUANT	0	Ach Select
CABLEID	IQUANT	13	Cable ID
DCCALDATE	LABEL	7/31/2020	DC Calibration Date
ACCALDATE	LABEL	7/31/2020	AC Calibration Date
THERMOSELECT	IQUANT	1	Thermo Select
FRAMEWORKVERSION	QUANT	6.33	Framework Version
INSTRUMENTVERSION	LABEL	3.50	Instrument Version
COMPLIANCEVOLTAGE	IQUANT	0	Compliance Voltage
ZCURVE	TABLE
	Pt	Time	Freq	Zreal	Zimag	Zsig	Zmod	Zphz	Idc	Vdc	IERange
	#	s	Hz	ohm	ohm	V	ohm	°	A	V	#
	0	7	300046.9	76.65598	-0.1974699	1	76.65623	-0.1475967	1.226484E-005	-0.0015037	9
	1	10	238359.4	77.3672	-0.1908605	1	77.36743	-0.1413452	4.925361E-006	-0.0015822	9
	2	14	189328.1	77.95986	-0.28058	1	77.96037	-0.2062085	-7.410565E-005	0.0025428	9
	3	16	150421.9	78.65109	-0.2186017	1	78.6514	-0.1592467	1.7518E-005	-0.0016189	9
	4	19	119484.4	79.15726	-0.39237	1	79.15823	-0.2840038	-6.21528E-005	0.0024401	9
	5	21	94921.88	79.64542	-0.1280897	1	79.64552	-0.0921458	2.233311E-005	-0.0004619	9
	6	24	75421.88	80.13997	-0.2292151	1	80.1403	-0.1638761	2.076206E-005	-0.0006718	9
	7	26	59859.37	80.66365	-0.3453284	1	80.66439	-0.2452869	-1.751166E-005	0.0006836	9
	8	29	47578.12	81.20184	-0.4410208	1	81.20304	-0.3111799	-1.728043E-005	0.0007438	9
	9	31	37828.12	81.71102	-0.5088003	1	81.71261	-0.3567663	-8.915685E-006	-2.3689E-005	9
	10	34	30046.88	82.27798	-0.6082521	1	82.28024	-0.4235598	2.082014E-005	-0.0003197	9
	11	36	23859.38	82.80655	-0.6554472	1	82.80914	-0.4535097	2.487455E-006	0.0003601	9
	12	39	18984.38	83.27298	-0.8042467	1	83.27686	-0.5533428	1.979284E-005	-0.0005137	9
	13	41	15046.87	83.76743	-0.965671	1	83.77299	-0.6604766	-1.615298E-005	0.000814	9
	14	43	11953.13	84.28873	-1.16296	1	84.29676	-0.7904788	-1.838687E-005	0.0004249	9
	15	46	9515.62	84.77133	-1.368929	1	84.78239	-0.9251599	1.729617E-005	-0.0006719	9
	16	48	7546.875	85.23975	-1.661116	1	85.25594	-1.116415	1.74721E-005	-0.0007008	9
	17	50	5928.309	85.87263	-2.020753	1	85.8964	-1.348034	2.084854E-005	-0.000268	9
	18	53	4733.456	86.40321	-2.447092	1	86.43785	-1.622285	2.0592E-005	-0.0006472	9
	19	55	3796.875	86.94793	-3.086758	1	87.0027	-2.033217	-1.010777E-005	2.255239E-005	9
	20	57	2987.132	87.53085	-3.720793	1	87.60989	-2.434084	-3.161382E-006	-0.0002373	9
	21	59	2390.625	88.12086	-4.617436	1	88.24175	-2.999492	2.050851E-006	0.000392	9
	22	62	1884.191	88.87853	-5.730099	1	89.06306	-3.688818	5.958811E-006	-0.0005111	9
	23	64	1516.544	89.46004	-6.916976	1	89.72705	-4.421265	-1.922281E-005	0.0007134	9
	24	66	1193.986	90.23114	-8.674372	1	90.64713	-5.491255	1.816409E-005	-0.0001368	9
	25	69	946.5144	91.00111	-10.82129	1	91.64226	-6.781416	2.324561E-005	-0.000582	9
	26	71	751.7689	91.90632	-13.34266	1	92.86979	-8.260303	1.876421E-005	-0.0001425	9
	27	74	597.4265	92.77415	-16.42582	1	94.21703	-10.04026	2.385861E-005	-0.0004657	9
	28	76	477.4305	93.86035	-20.216	1	96.0128	-12.1549	1.214467E-006	4.437453E-005	9
	29	78	376.6741	95.1113	-25.12914	1	98.375	-14.7998	1.341974E-006	3.999087E-005	9
	30	80	298.2954	96.5553	-31.10689	1	101.4424	-17.85721	1.265766E-006	4.298542E-005	9
	31	83	237.7717	98.2325	-38.23808	1	105.4124	-21.26903	1.236386E-006	4.784896E-005	9
	32	85	189.0121	100.2069	-47.07244	1	110.7124	-25.1619	1.257475E-006	4.592397E-005	9
	33	88	150.2404	102.5162	-57.88811	1	117.7311	-29.45224	1.228832E-006	4.862577E-005	9
	34	90	119.1737	105.2174	-71.27984	1	127.0887	-34.11578	8.356351E-007	0.0001048	9
	35	92	95.0169	108.3005	-87.34238	1	139.1319	-38.88555	1.269639E-006	4.295485E-005	9
	36	95	75.60484	111.9121	-107.2443	1	155.0022	-43.77985	1.220605E-006	4.394732E-005	9
	37	98	54.50582	117.8681	-144.0335	1	186.1144	-50.70523	1.270953E-006	3.966417E-005	9
	38	100	45.95588	121.8807	-168.1778	1	207.6985	-54.06866	1.271929E-006	4.312693E-005	9
	39	102	37.20238	127.4661	-203.8583	1	240.4284	-57.98356	1.313429E-006	4.187117E-005	9
	40	105	30.04808	134.287	-247.8573	1	281.8976	-61.55154	1.328315E-006	4.077414E-005	9
	41	107	23.91582	143.1405	-305.5429	1	337.4102	-64.89789	1.244421E-006	4.322835E-005	9
	42	110	18.60119	155.4637	-384.9221	1	415.1313	-68.00703	1.267707E-006	4.385358E-005	9
	43	112	15.02404	168.1585	-466.1414	1	495.5453	-70.16331	2.372036E-007	0.0006126	8
	44	114	12.01923	185.8931	-571.9511	1	601.402	-71.99502	2.813145E-007	0.0006231	8
	45	117	9.450605	210.3322	-712.5436	1	742.9387	-73.55419	1.662461E-007	0.0006227	8
	46	119	7.512019	240.4757	-878.1575	1	910.4885	-74.68549	1.599844E-007	0.000617	8
	47	122	5.978954	278.5379	-1080.205	1	1115.538	-75.54087	1.905289E-007	0.0006233	8
	48	125	4.734848	329.7717	-1333.74	1	1373.904	-76.11196	1.935394E-007	0.0006051	8
	49	128	3.75601	394.6626	-1642.738	1	1689.481	-76.4909	2.173695E-007	0.0006372	8
	50	132	3.004808	474.9918	-2004.386	1	2059.898	-76.6682	2.46238E-007	0.0006012	8
	51	135	2.372217	587.3086	-2473.842	1	2542.602	-76.6448	2.148502E-007	0.0005451	8
	52	139	1.878005	726.276	-3042.315	1	3127.804	-76.57337	2.55689E-007	0.0006228	8
	53	144	1.512097	891.1351	-3670.776	1	3777.396	-76.35458	2.238999E-007	0.0006228	8
	54	150	1.201923	1127.109	-4504.804	1	4643.666	-75.95289	4.079525E-008	0.0006072	7
	55	156	0.956633	1421.994	-5482.593	1	5664	-75.45985	-1.258687E-008	-4.704088E-005	7
