EXPLAIN
TAG	EISPOT
TITLE	LABEL	Potentiostatic EIS	Test Identifier
DATE	LABEL	9/11/2020	Date
TIME	LABEL	14:32:05	Time
NOTES	NOTES	1	Notes...
	
PSTAT	PSTAT	REF3000-16137	Potentiostat
VDC	POTEN	0.00000E+000	T	DC Voltage (V)
FREQINIT	QUANT	3.00000E+005	Initial Freq. (Hz)
FREQFINAL	QUANT	1.00000E+000	Final Freq. (Hz)
PTSPERDEC	QUANT	1.00000E+001	Points/decade
VAC	QUANT	5.00000E+001	AC Voltage (mV rms)
AREA	QUANT	1.00000E+000	Sample Area (cm^2)
SPEED	SELECTOR	2	Optimize for:
ZGUESS	QUANT	1.00000E+003	Estimated Z (ohms)
EOC	QUANT	0	Open Circuit (V)
SEQUENCER	TOGGLE	TRUE	Run as Sequence
PSTATMODEL	IQUANT	5	Pstat Model
PSTATSECTION	LABEL	REF3000-16137	Pstat Section
PSTATSERIALNO	LABEL	16137	Pstat Serial Number
CTRLMODE	IQUANT	1	Control Mode
IESTAB	IQUANT	0	I/E Stability
CASPEED	IQUANT	1	Control Amp Speed
CONVENTION	IQUANT	1	Current Convention
ICHRANGE	IQUANT	2	Ich Range
ICHRANGEMODE	TOGGLE	F	Ich Auto Range
ICHOFFSETENABLE	TOGGLE	T	Ich Offset Enable
ICHOFFSET	QUANT	0	Ich Offset (V)
ICHFILTER	IQUANT	3	Ich Filter
VCHRANGE	IQUANT	2	Vch Range
VCHRANGEMODE	TOGGLE	F	Vch Auto Range
VCHOFFSETENABLE	TOGGLE	T	Vch Offset Enable
VCHOFFSET	QUANT	0	Vch Offset (V)
VCHFILTER	IQUANT	3	Vch Filter
ACHRANGE	IQUANT	2	Ach Range
ACHOFFSETENABLE	TOGGLE	F	Ach Offset Enable
ACHOFFSET	QUANT	0	Ach Offset (V)
ACHFILTER	IQUANT	3	Ach Filter
IERANGELOWERLIMIT	IQUANT	2	I/E Range Lower Limit
IERANGEMODE	TOGGLE	F	I/E AutoRange
IERANGE	IQUANT	11	I/E Range
POSFEEDENABLE	TOGGLE	F	Positive Feedback IR Comp
POSFEEDRESISTANCE	QUANT	0	Positive Feedback Resistance (ohm)
ACHSELECT	IQUANT	0	Ach Select
CABLEID	IQUANT	13	Cable ID
DCCALDATE	LABEL	7/31/2020	DC Calibration Date
ACCALDATE	LABEL	7/31/2020	AC Calibration Date
THERMOSELECT	IQUANT	1	Thermo Select
FRAMEWORKVERSION	QUANT	6.33	Framework Version
INSTRUMENTVERSION	LABEL	3.50	Instrument Version
COMPLIANCEVOLTAGE	IQUANT	0	Compliance Voltage
ZCURVE	TABLE
	Pt	Time	Freq	Zreal	Zimag	Zsig	Zmod	Zphz	Idc	Vdc	IERange
	#	s	Hz	ohm	ohm	V	ohm	°	A	V	#
	0	10	300046.9	1.81053	2.247609	1	2.886134	51.1473	0.0003584	-0.0003929	11
	1	14	238359.4	1.898128	1.630254	1	2.502122	40.65845	-0.000668	-0.0005208	12
	2	18	189328.1	1.820856	1.286803	1	2.229659	35.24894	-0.0006067	-0.0001779	12
	3	21	150421.9	1.715963	1.108541	1	2.042888	32.86312	0.0004872	0.0004283	11
	4	24	119484.4	1.708327	0.8561667	1	1.910864	26.61878	0.0004285	0.0003282	11
	5	26	94921.88	1.699118	0.6515414	1	1.819755	20.97975	-0.000108	0.0003393	11
	6	29	75421.88	1.698656	0.4801589	1	1.765215	15.784	-0.000137	0.00041	11
	7	31	59859.37	1.698522	0.3325956	1	1.730779	11.07917	0.000192	0.0005696	11
	8	34	47578.12	1.701461	0.2052894	1	1.713801	6.879755	-0.000137	0.0005232	11
	9	37	37828.12	1.705935	0.0895803	1	1.708285	3.005897	-0.0001661	0.0005456	11
	10	39	30046.88	1.712337	-0.0199169	1	1.712453	-0.6663998	-0.0001246	0.0005688	11
	11	42	23859.38	1.72023	-0.1285827	1	1.725029	-4.274763	5.77638E-005	0.0006886	11
	12	44	18984.38	1.73085	-0.2398741	1	1.747393	-7.890217	0.000114	0.0007149	11
	13	46	15046.87	1.743971	-0.3621736	1	1.78118	-11.73196	9.269058E-005	0.000653	11
	14	48	11953.13	1.760231	-0.498205	1	1.829377	-15.80331	-9.494266E-005	0.0006065	11
	15	51	9515.62	1.779115	-0.6535446	1	1.895355	-20.17043	0.000117	0.0007305	11
	16	53	7546.875	1.801688	-0.8411633	1	1.988375	-25.0267	0.0001863	0.0007532	11
	17	55	5928.309	1.830647	-1.076425	1	2.123667	-30.45565	-0.0001378	0.0006613	11
	18	58	4733.456	1.863592	-1.34439	1	2.297903	-35.80657	-0.0002122	0.0006258	11
	19	60	3796.875	1.904332	-1.663241	1	2.528409	-41.13393	-0.0001873	0.0006459	11
	20	62	2987.132	1.958955	-2.090739	1	2.865082	-46.86385	-0.0002054	0.0006358	11
	21	65	2390.625	2.025725	-2.578622	1	3.279154	-51.84737	0.0001826	0.0007354	11
	22	67	1884.191	2.1154	-3.225554	1	3.857345	-56.74212	-3.166166E-005	0.0006411	11
	23	69	1516.544	2.226966	-3.94898	1	4.533632	-60.57986	-0.000127	0.0007233	10
	24	71	1193.986	2.381466	-4.927085	1	5.472435	-64.20358	0.000106	0.0005853	10
	25	74	946.5144	2.581858	-6.097013	1	6.621145	-67.04915	-0.0001027	0.0006985	10
	26	76	751.7689	2.83377	-7.526369	1	8.042169	-69.36803	-6.40293E-005	0.0006382	10
	27	79	597.4265	3.166541	-9.279926	1	9.80531	-71.15909	-0.0001434	0.000766	10
	28	81	477.4305	3.584186	-11.35734	1	11.90947	-72.48517	-4.292332E-006	0.0006512	10
	29	83	376.6741	4.162243	-14.04695	1	14.65063	-73.49494	-5.275801E-006	0.0006448	10
	30	85	298.2954	4.90805	-17.28844	1	17.97162	-74.15118	-5.085722E-006	0.0006524	10
	31	88	237.7717	5.85257	-21.11833	1	21.91429	-74.51023	-4.574928E-006	0.000652	10
	32	90	189.0121	7.097991	-25.80846	1	26.76674	-74.62238	-4.604497E-006	0.0006513	10
	33	93	150.2404	8.718699	-31.46862	1	32.65409	-74.51407	-4.0277E-006	0.0005942	10
	34	95	119.1737	10.83544	-38.33097	1	39.83303	-74.21541	-4.679629E-006	0.0006545	10
	35	97	95.0169	13.47756	-46.27323	1	48.19602	-73.76125	-2.757101E-006	4.917706E-005	9
	36	100	75.60484	16.87184	-55.83197	1	58.32553	-73.18573	-2.982256E-006	4.752491E-005	9
	37	102	54.50582	23.24872	-72.5623	1	76.19574	-72.23471	-2.83721E-006	4.865819E-005	9
	38	105	45.95588	27.39291	-82.9565	1	87.36219	-71.72636	-2.162636E-006	-1.934824E-006	9
	39	107	37.20238	33.3975	-97.6632	1	103.2158	-71.12106	-2.716223E-006	5.753505E-005	9
	40	110	30.04808	40.46089	-114.9415	1	121.8549	-70.60727	-2.891666E-006	4.845643E-005	9
	41	112	23.91582	49.16751	-136.4924	1	145.078	-70.1899	-2.957104E-006	5.325986E-005	9
	42	114	18.60119	60.59703	-165.2604	1	176.0199	-69.86322	-2.697671E-006	5.846272E-005	9
	43	117	15.02404	71.93222	-194.5984	1	207.4676	-69.71345	-2.775398E-006	5.298117E-005	9
	44	119	12.01923	85.8885	-231.2506	1	246.6854	-69.62457	-2.52633E-006	5.196527E-005	9
	45	121	9.450605	104.2182	-279.4044	1	298.2083	-69.54443	-2.686033E-006	5.545486E-005	9
	46	124	7.512019	126.3894	-335.5428	1	358.5572	-69.36005	-2.480894E-006	6.644434E-005	9
	47	127	5.978954	154.5726	-401.5253	1	430.2502	-68.94512	-2.556204E-006	0.0006313	8
	48	130	4.734848	193.6646	-484.4516	1	521.7272	-68.21042	-2.435759E-006	0.0006501	8
	49	133	3.75601	246.555	-581.2758	1	631.4039	-67.0152	-2.633866E-006	0.0006286	8
	50	136	3.004808	315.2725	-688.5557	1	757.3016	-65.39813	-2.495809E-006	0.000602	8
	51	140	2.372217	413.3249	-816.3783	1	915.047	-63.14732	-2.593669E-006	0.0005666	8
	52	144	1.878005	542.7906	-950.856	1	1094.874	-60.28038	-2.550745E-006	0.0006403	8
	53	149	1.512097	694.1129	-1076.999	1	1281.296	-57.1987	-2.563836E-006	0.0005556	8
	54	154	1.201923	893.0569	-1208.907	1	1502.999	-53.54557	-2.509896E-006	0.0006575	8
	55	161	0.956633	1126.965	-1320.205	1	1735.797	-49.51498	-2.720423E-006	-7.758115E-006	8
