EXPLAIN
TAG	EISPOT
TITLE	LABEL	Potentiostatic EIS	Test Identifier
DATE	LABEL	9/11/2020	Date
TIME	LABEL	15:25:34	Time
NOTES	NOTES	1	Notes...
	
PSTAT	PSTAT	REF3000-16137	Potentiostat
VDC	POTEN	0.00000E+000	T	DC Voltage (V)
FREQINIT	QUANT	3.00000E+005	Initial Freq. (Hz)
FREQFINAL	QUANT	1.00000E+000	Final Freq. (Hz)
PTSPERDEC	QUANT	1.00000E+001	Points/decade
VAC	QUANT	5.00000E+001	AC Voltage (mV rms)
AREA	QUANT	1.00000E+000	Sample Area (cm^2)
SPEED	SELECTOR	2	Optimize for:
ZGUESS	QUANT	1.00000E+003	Estimated Z (ohms)
EOC	QUANT	0	Open Circuit (V)
SEQUENCER	TOGGLE	TRUE	Run as Sequence
PSTATMODEL	IQUANT	5	Pstat Model
PSTATSECTION	LABEL	REF3000-16137	Pstat Section
PSTATSERIALNO	LABEL	16137	Pstat Serial Number
CTRLMODE	IQUANT	1	Control Mode
IESTAB	IQUANT	0	I/E Stability
CASPEED	IQUANT	1	Control Amp Speed
CONVENTION	IQUANT	1	Current Convention
ICHRANGE	IQUANT	2	Ich Range
ICHRANGEMODE	TOGGLE	F	Ich Auto Range
ICHOFFSETENABLE	TOGGLE	T	Ich Offset Enable
ICHOFFSET	QUANT	0	Ich Offset (V)
ICHFILTER	IQUANT	3	Ich Filter
VCHRANGE	IQUANT	2	Vch Range
VCHRANGEMODE	TOGGLE	F	Vch Auto Range
VCHOFFSETENABLE	TOGGLE	T	Vch Offset Enable
VCHOFFSET	QUANT	0	Vch Offset (V)
VCHFILTER	IQUANT	3	Vch Filter
ACHRANGE	IQUANT	2	Ach Range
ACHOFFSETENABLE	TOGGLE	F	Ach Offset Enable
ACHOFFSET	QUANT	0	Ach Offset (V)
ACHFILTER	IQUANT	3	Ach Filter
IERANGELOWERLIMIT	IQUANT	2	I/E Range Lower Limit
IERANGEMODE	TOGGLE	F	I/E AutoRange
IERANGE	IQUANT	11	I/E Range
POSFEEDENABLE	TOGGLE	F	Positive Feedback IR Comp
POSFEEDRESISTANCE	QUANT	0	Positive Feedback Resistance (ohm)
ACHSELECT	IQUANT	0	Ach Select
CABLEID	IQUANT	13	Cable ID
DCCALDATE	LABEL	7/31/2020	DC Calibration Date
ACCALDATE	LABEL	7/31/2020	AC Calibration Date
THERMOSELECT	IQUANT	1	Thermo Select
FRAMEWORKVERSION	QUANT	6.33	Framework Version
INSTRUMENTVERSION	LABEL	3.50	Instrument Version
COMPLIANCEVOLTAGE	IQUANT	0	Compliance Voltage
ZCURVE	TABLE
	Pt	Time	Freq	Zreal	Zimag	Zsig	Zmod	Zphz	Idc	Vdc	IERange
	#	s	Hz	ohm	ohm	V	ohm	°	A	V	#
	0	8	300046.9	19.94101	1.901474	1	20.03146	5.446967	-0.000105	0.0002417	10
	1	11	238359.4	20.02218	1.473525	1	20.07632	4.209075	2.693944E-005	0.000287	10
	2	15	189328.1	20.11902	1.152338	1	20.15199	3.278094	1.824232E-005	0.0003822	10
	3	17	150421.9	20.21601	0.8785302	1	20.23509	2.488346	-5.250603E-005	0.0006577	10
	4	20	119484.4	20.29649	0.6631235	1	20.30732	1.871293	2.283908E-005	0.000546	10
	5	22	94921.88	20.38495	0.4938928	1	20.39093	1.387908	-1.356242E-005	0.0006839	10
	6	25	75421.88	20.48106	0.3285996	1	20.4837	0.9191788	-2.425336E-005	0.0006734	10
	7	27	59859.37	20.58014	0.1859895	1	20.58098	0.5177869	-2.619071E-005	0.000681	10
	8	30	47578.12	20.67846	0.055774	1	20.67854	0.1545378	-1.166102E-005	0.0005994	10
	9	32	37828.12	20.78143	-0.0664302	1	20.78153	-0.1831519	-2.552238E-005	0.0006759	10
	10	35	30046.88	20.88331	-0.1892769	1	20.88417	-0.5192888	-3.835458E-006	0.0005909	10
	11	37	23859.38	20.98462	-0.3191858	1	20.98705	-0.8714283	-2.519975E-005	0.0006743	10
	12	40	18984.38	21.08468	-0.4616776	1	21.08974	-1.254368	-1.686527E-005	0.0006484	10
	13	42	15046.87	21.19096	-0.6259116	1	21.2002	-1.691838	2.133554E-005	0.0005789	10
	14	44	11953.13	21.29756	-0.813776	1	21.3131	-2.188197	-3.275743E-006	0.000693	10
	15	47	9515.62	21.40805	-1.039724	1	21.43328	-2.780499	-1.393815E-005	0.0007161	10
	16	49	7546.875	21.52409	-1.314218	1	21.56417	-3.494028	1.363696E-005	0.0006177	10
	17	51	5928.309	21.65741	-1.665099	1	21.72132	-4.396456	1.626489E-005	0.0006436	10
	18	54	4733.456	21.79655	-2.069514	1	21.89458	-5.423794	2.125042E-005	0.0006315	10
	19	56	3796.875	21.94072	-2.556851	1	22.0892	-6.646954	-2.488411E-005	0.000649	10
	20	58	2987.132	22.11662	-3.20006	1	22.34693	-8.233006	1.331825E-005	0.0005714	10
	21	60	2390.625	22.30219	-3.942417	1	22.64797	-10.02476	1.986927E-005	0.0005903	10
	22	63	1884.191	22.5303	-4.914091	1	23.05998	-12.3041	-1.843151E-005	0.0006394	10
	23	65	1516.544	22.77321	-6.012765	1	23.55361	-14.79018	2.351585E-005	0.0006325	10
	24	67	1193.986	23.08787	-7.487234	1	24.27156	-17.96751	-2.602466E-005	0.0007042	10
	25	70	946.5144	23.45931	-9.255696	1	25.21919	-21.53134	-2.656591E-005	0.0006876	10
	26	72	751.7689	23.8841	-11.41735	1	26.47274	-25.54926	5.338746E-006	0.0005753	10
	27	75	597.4265	24.39132	-14.05721	1	28.15212	-29.95572	-2.503689E-005	0.0006533	10
	28	77	477.4305	24.96338	-17.20243	1	30.31657	-34.57098	-2.439912E-006	0.0006452	10
	29	79	376.6741	25.66963	-21.29421	1	33.35226	-39.67736	-2.489726E-006	0.0006417	10
	30	81	298.2954	26.48479	-26.28195	1	37.312	-44.77974	-2.507441E-006	0.0006458	10
	31	84	237.7717	27.38497	-32.23534	1	42.29721	-49.65101	1.275721E-006	4.157135E-005	9
	32	86	189.0121	28.50331	-39.7227	1	48.89101	-54.3384	1.28013E-006	4.025948E-005	9
	33	89	150.2404	29.85179	-48.99841	1	57.37572	-58.64855	1.310335E-006	4.122951E-005	9
	34	91	119.1737	31.52972	-60.60979	1	68.32034	-62.51617	1.260698E-006	5.201741E-005	9
	35	93	95.0169	33.58222	-74.65618	1	81.86153	-65.78059	1.361988E-006	4.161577E-005	9
	36	96	75.60484	36.20458	-92.15038	1	99.0074	-68.55083	1.205293E-006	4.16349E-005	9
	37	98	54.50582	41.21955	-124.5028	1	131.1487	-71.68167	1.179262E-006	4.252557E-005	9
	38	101	45.95588	44.69424	-145.6411	1	152.3447	-72.93983	1.340438E-006	5.073623E-005	9
	39	103	37.20238	49.96624	-176.6954	1	183.6243	-74.21007	1.269195E-006	4.750575E-005	9
	40	106	30.04808	56.68967	-214.7328	1	222.0898	-75.21127	1.232544E-006	4.850808E-005	9
	41	108	23.91582	65.88084	-264.1903	1	272.2808	-75.9978	1.102099E-006	3.946272E-005	9
	42	110	18.60119	79.12295	-331.6328	1	340.941	-76.58089	1.161427E-006	4.772075E-005	9
	43	113	15.02404	93.66846	-402.0246	1	412.7924	-76.88454	1.225925E-006	4.374941E-005	9
	44	115	12.01923	112.6442	-488.7284	1	501.5417	-77.02088	6.08631E-007	0.0006284	8
	45	117	9.450605	139.8359	-605.0305	1	620.9799	-76.98619	5.226917E-007	0.0006081	8
	46	120	7.512019	173.8237	-741.0377	1	761.1514	-76.7989	5.846955E-007	0.0006113	8
	47	123	5.978954	217.5604	-904.1686	1	929.9749	-76.47073	5.501636E-007	0.0006325	8
	48	126	4.734848	275.2269	-1106.458	1	1140.175	-76.0314	4.883966E-007	0.0006027	8
	49	129	3.75601	350.0116	-1347.006	1	1391.738	-75.43415	6.4105E-007	0.0006436	8
	50	132	3.004808	441.6306	-1623.2	1	1682.206	-74.77972	5.542503E-007	0.0006387	8
	51	136	2.372217	564.3041	-1969.924	1	2049.156	-74.01512	5.694249E-007	0.0006401	8
	52	140	1.878005	720.2632	-2381.456	1	2487.993	-73.17224	5.926283E-007	0.0006006	8
	53	145	1.512097	889.4545	-2827.744	1	2964.333	-72.53926	5.731711E-007	0.0007143	8
	54	150	1.201923	1109.309	-3383.871	1	3561.06	-71.84969	5.915078E-007	0.0006197	8
	55	157	0.956633	1361.23	-4033.127	1	4256.649	-71.34982	5.228583E-007	-1.217897E-005	8
