EXPLAIN
TAG	EISPOT
TITLE	LABEL	Potentiostatic EIS	Test Identifier
DATE	LABEL	9/11/2020	Date
TIME	LABEL	15:00:32	Time
NOTES	NOTES	1	Notes...
	
PSTAT	PSTAT	REF3000-16137	Potentiostat
VDC	POTEN	0.00000E+000	T	DC Voltage (V)
FREQINIT	QUANT	3.00000E+005	Initial Freq. (Hz)
FREQFINAL	QUANT	1.00000E+000	Final Freq. (Hz)
PTSPERDEC	QUANT	1.00000E+001	Points/decade
VAC	QUANT	5.00000E+001	AC Voltage (mV rms)
AREA	QUANT	1.00000E+000	Sample Area (cm^2)
SPEED	SELECTOR	2	Optimize for:
ZGUESS	QUANT	1.00000E+003	Estimated Z (ohms)
EOC	QUANT	0	Open Circuit (V)
SEQUENCER	TOGGLE	TRUE	Run as Sequence
PSTATMODEL	IQUANT	5	Pstat Model
PSTATSECTION	LABEL	REF3000-16137	Pstat Section
PSTATSERIALNO	LABEL	16137	Pstat Serial Number
CTRLMODE	IQUANT	1	Control Mode
IESTAB	IQUANT	0	I/E Stability
CASPEED	IQUANT	1	Control Amp Speed
CONVENTION	IQUANT	1	Current Convention
ICHRANGE	IQUANT	2	Ich Range
ICHRANGEMODE	TOGGLE	F	Ich Auto Range
ICHOFFSETENABLE	TOGGLE	T	Ich Offset Enable
ICHOFFSET	QUANT	0	Ich Offset (V)
ICHFILTER	IQUANT	3	Ich Filter
VCHRANGE	IQUANT	2	Vch Range
VCHRANGEMODE	TOGGLE	F	Vch Auto Range
VCHOFFSETENABLE	TOGGLE	T	Vch Offset Enable
VCHOFFSET	QUANT	0	Vch Offset (V)
VCHFILTER	IQUANT	3	Vch Filter
ACHRANGE	IQUANT	2	Ach Range
ACHOFFSETENABLE	TOGGLE	F	Ach Offset Enable
ACHOFFSET	QUANT	0	Ach Offset (V)
ACHFILTER	IQUANT	3	Ach Filter
IERANGELOWERLIMIT	IQUANT	2	I/E Range Lower Limit
IERANGEMODE	TOGGLE	F	I/E AutoRange
IERANGE	IQUANT	11	I/E Range
POSFEEDENABLE	TOGGLE	F	Positive Feedback IR Comp
POSFEEDRESISTANCE	QUANT	0	Positive Feedback Resistance (ohm)
ACHSELECT	IQUANT	0	Ach Select
CABLEID	IQUANT	13	Cable ID
DCCALDATE	LABEL	7/31/2020	DC Calibration Date
ACCALDATE	LABEL	7/31/2020	AC Calibration Date
THERMOSELECT	IQUANT	1	Thermo Select
FRAMEWORKVERSION	QUANT	6.33	Framework Version
INSTRUMENTVERSION	LABEL	3.50	Instrument Version
COMPLIANCEVOLTAGE	IQUANT	0	Compliance Voltage
ZCURVE	TABLE
	Pt	Time	Freq	Zreal	Zimag	Zsig	Zmod	Zphz	Idc	Vdc	IERange
	#	s	Hz	ohm	ohm	V	ohm	°	A	V	#
	0	10	300046.9	3.481699	2.306704	1	4.176495	33.52538	-0.0004494	0.0009234	10
	1	13	238359.4	3.461986	1.813867	1	3.908384	27.65176	-0.0004268	0.0004155	10
	2	16	189328.1	3.447212	1.422611	1	3.729222	22.42518	0.0003261	-0.0011053	10
	3	19	150421.9	3.434853	1.116242	1	3.611677	18.00288	0.000403	-0.0006205	10
	4	21	119484.4	3.43652	0.855948	1	3.541513	13.9863	1.471879E-005	0.0004153	10
	5	24	94921.88	3.440447	0.6571898	1	3.502652	10.81429	0.0001812	8.029885E-005	10
	6	26	75421.88	3.444998	0.4486504	1	3.47409	7.420007	7.837121E-005	0.0005722	11
	7	30	59859.37	3.452748	0.300525	1	3.465802	4.974453	-8.04506E-005	0.0006972	11
	8	33	47578.12	3.46089	0.1685394	1	3.464991	2.788004	-1.143988E-005	0.000715	11
	9	35	37828.12	3.471078	0.0466293	1	3.471391	0.7696459	0.0001358	0.0007011	11
	10	38	30046.88	3.481515	-0.0712514	1	3.482244	-1.172431	0.0002133	0.0006334	11
	11	40	23859.38	3.496403	-0.1907192	1	3.501601	-3.122233	0.0002107	0.000646	11
	12	42	18984.38	3.513265	-0.3170414	1	3.527541	-5.156475	-0.0001672	0.000641	11
	13	45	15046.87	3.53551	-0.4548242	1	3.564646	-7.330529	2.514634E-005	0.0006879	10
	14	47	11953.13	3.559854	-0.6166066	1	3.612861	-9.82677	-0.0001668	0.000935	10
	15	49	9515.62	3.589284	-0.8028932	1	3.677988	-12.60902	0.0001629	0.000325	10
	16	52	7546.875	3.625388	-1.026636	1	3.767946	-15.81104	-3.764227E-005	0.0005448	10
	17	54	5928.309	3.670394	-1.307054	1	3.896175	-19.60118	2.707897E-005	0.0007191	10
	18	56	4733.456	3.721017	-1.623809	1	4.059892	-23.5759	0.0001601	0.0003583	10
	19	58	3796.875	3.780503	-1.996583	1	4.275341	-27.83971	0.0001595	0.0003111	10
	20	61	2987.132	3.856636	-2.496556	1	4.594173	-32.91661	-0.0001131	0.0009481	10
	21	63	2390.625	3.938903	-3.065581	1	4.991267	-37.89301	-4.235995E-005	0.0005636	10
	22	65	1884.191	4.043742	-3.816283	1	5.560204	-43.3424	-0.0001502	0.0009817	10
	23	68	1516.544	4.157848	-4.657569	1	6.243449	-48.24446	0.0001053	0.0003487	10
	24	70	1193.986	4.308675	-5.806718	1	7.230675	-53.42402	4.156543E-006	0.0004852	10
	25	73	946.5144	4.495865	-7.193195	1	8.482621	-57.99394	0.0001603	0.0003125	10
	26	75	751.7689	4.723149	-8.905277	1	10.08028	-62.05958	0.0001342	0.0004884	10
	27	77	597.4265	5.017409	-11.0303	1	12.11784	-65.5404	-7.814631E-005	0.0009168	10
	28	79	477.4305	5.391571	-13.56558	1	14.59774	-68.32491	-2.92009E-006	0.0006549	10
	29	82	376.6741	5.89978	-16.88124	1	17.8825	-70.73613	-2.812481E-006	0.0006555	10
	30	84	298.2954	6.553195	-20.92166	1	21.92396	-72.60812	-2.604229E-006	0.0006554	10
	31	86	237.7717	7.376489	-25.75123	1	26.78691	-74.01554	-2.678299E-006	0.0006549	10
	32	89	189.0121	8.456923	-31.75081	1	32.85778	-75.08537	-2.846088E-006	0.0006532	10
	33	91	150.2404	9.86034	-39.09923	1	40.32339	-75.84585	-2.673188E-006	0.0006545	10
	34	94	119.1737	11.69183	-48.13097	1	49.53069	-76.34634	1.392109E-007	5.369695E-005	9
	35	96	95.0169	14.03153	-58.96849	1	60.61491	-76.6154	6.717271E-008	5.326717E-005	9
	36	99	75.60484	17.10555	-72.27258	1	74.26928	-76.6842	6.65556E-008	4.51037E-005	9
	37	101	54.50582	23.1904	-96.4051	1	99.1551	-76.47438	-9.758867E-008	5.750533E-005	9
	38	104	45.95588	27.42217	-111.8717	1	115.1836	-76.22713	9.0619E-008	5.554867E-005	9
	39	106	37.20238	33.93895	-134.2044	1	138.4294	-75.80802	1.884233E-007	4.837485E-005	9
	40	108	30.04808	42.25352	-160.8257	1	166.2837	-75.27944	6.434436E-008	5.09496E-005	9
	41	111	23.91582	53.71903	-194.734	1	202.0076	-74.57803	-1.499735E-008	5.327507E-005	9
	42	113	18.60119	69.5603	-238.9792	1	248.897	-73.77117	1.538948E-008	5.416588E-005	9
	43	115	15.02404	86.43688	-283.6091	1	296.4885	-73.0501	9.905925E-009	4.253852E-005	9
	44	118	12.01923	107.962	-337.6542	1	354.4943	-72.26877	3.281486E-007	5.272046E-005	9
	45	120	9.450605	134.7597	-404.6077	1	426.4593	-71.57902	2.722914E-007	0.0006281	8
	46	123	7.512019	165.4544	-481.4419	1	509.079	-71.03398	2.931878E-007	0.0006479	8
	47	125	5.978954	200.1284	-571.9814	1	605.9819	-70.71577	2.035084E-007	0.0006338	8
	48	128	4.734848	240.382	-682.599	1	723.6884	-70.59993	2.665348E-007	0.0006598	8
	49	132	3.75601	285.9045	-815.133	1	863.819	-70.67189	1.20085E-007	0.000616	8
	50	135	3.004808	335.248	-969.449	1	1025.779	-70.92396	1.855385E-007	0.000624	8
	51	139	2.372217	397.2845	-1168.146	1	1233.855	-71.21691	1.65475E-007	0.0006616	8
	52	143	1.878005	469.5125	-1415.935	1	1491.749	-71.6549	8.92686E-008	0.0006248	8
	53	148	1.512097	548.6187	-1694.159	1	1780.775	-72.05652	1.444936E-007	0.0005562	8
	54	153	1.201923	661.6053	-2057.803	1	2161.544	-72.17686	1.097484E-007	0.0006302	8
	55	159	0.956633	804.1929	-2496.834	1	2623.148	-72.14703	8.885778E-008	-8.000015E-006	8
