EXPLAIN
TAG	EISPOT
TITLE	LABEL	Potentiostatic EIS	Test Identifier
DATE	LABEL	9/11/2020	Date
TIME	LABEL	16:04:43	Time
NOTES	NOTES	1	Notes...
	
PSTAT	PSTAT	REF3000-16137	Potentiostat
VDC	POTEN	0.00000E+000	T	DC Voltage (V)
FREQINIT	QUANT	3.00000E+005	Initial Freq. (Hz)
FREQFINAL	QUANT	1.00000E+000	Final Freq. (Hz)
PTSPERDEC	QUANT	1.00000E+001	Points/decade
VAC	QUANT	5.00000E+001	AC Voltage (mV rms)
AREA	QUANT	1.00000E+000	Sample Area (cm^2)
SPEED	SELECTOR	2	Optimize for:
ZGUESS	QUANT	1.00000E+003	Estimated Z (ohms)
EOC	QUANT	0	Open Circuit (V)
SEQUENCER	TOGGLE	TRUE	Run as Sequence
PSTATMODEL	IQUANT	5	Pstat Model
PSTATSECTION	LABEL	REF3000-16137	Pstat Section
PSTATSERIALNO	LABEL	16137	Pstat Serial Number
CTRLMODE	IQUANT	1	Control Mode
IESTAB	IQUANT	0	I/E Stability
CASPEED	IQUANT	1	Control Amp Speed
CONVENTION	IQUANT	1	Current Convention
ICHRANGE	IQUANT	2	Ich Range
ICHRANGEMODE	TOGGLE	F	Ich Auto Range
ICHOFFSETENABLE	TOGGLE	T	Ich Offset Enable
ICHOFFSET	QUANT	0	Ich Offset (V)
ICHFILTER	IQUANT	3	Ich Filter
VCHRANGE	IQUANT	2	Vch Range
VCHRANGEMODE	TOGGLE	F	Vch Auto Range
VCHOFFSETENABLE	TOGGLE	T	Vch Offset Enable
VCHOFFSET	QUANT	0	Vch Offset (V)
VCHFILTER	IQUANT	3	Vch Filter
ACHRANGE	IQUANT	2	Ach Range
ACHOFFSETENABLE	TOGGLE	F	Ach Offset Enable
ACHOFFSET	QUANT	0	Ach Offset (V)
ACHFILTER	IQUANT	3	Ach Filter
IERANGELOWERLIMIT	IQUANT	2	I/E Range Lower Limit
IERANGEMODE	TOGGLE	F	I/E AutoRange
IERANGE	IQUANT	11	I/E Range
POSFEEDENABLE	TOGGLE	F	Positive Feedback IR Comp
POSFEEDRESISTANCE	QUANT	0	Positive Feedback Resistance (ohm)
ACHSELECT	IQUANT	0	Ach Select
CABLEID	IQUANT	13	Cable ID
DCCALDATE	LABEL	7/31/2020	DC Calibration Date
ACCALDATE	LABEL	7/31/2020	AC Calibration Date
THERMOSELECT	IQUANT	1	Thermo Select
FRAMEWORKVERSION	QUANT	6.33	Framework Version
INSTRUMENTVERSION	LABEL	3.50	Instrument Version
COMPLIANCEVOLTAGE	IQUANT	0	Compliance Voltage
ZCURVE	TABLE
	Pt	Time	Freq	Zreal	Zimag	Zsig	Zmod	Zphz	Idc	Vdc	IERange
	#	s	Hz	ohm	ohm	V	ohm	°	A	V	#
	0	14	300046.9	513.4192	-3013.581	1	3057.004	-80.33144	8.885776E-005	-0.0027889	9
	1	28	238359.4	711.5062	-3712.693	1	3780.255	-79.15128	2.629509E-005	-0.0021387	9
	2	42	189328.1	1023.303	-4462.067	1	4577.902	-77.08349	1.954391E-005	-0.0003278	9
	3	50	150421.9	1385.942	-5406.623	1	5581.434	-75.6223	2.482827E-005	0.0010944	9
	4	58	119484.4	2074.801	-6666.656	1	6982.056	-72.71278	-9.118465E-005	0.0330438	8
	5	65	94921.88	2724.004	-8083.926	1	8530.537	-71.37796	-1.020474E-006	0.0073948	8
	6	73	75421.88	3546.749	-9852.93	1	10471.85	-70.20271	-2.434217E-005	0.0055784	8
	7	81	59859.37	4624.448	-11973.54	1	12835.54	-68.88233	2.130521E-005	-0.0094814	8
	8	90	47578.12	6211.476	-14182.3	1	15482.9	-66.34785	-2.089041E-005	0.0030763	8
	9	98	37828.12	8309.327	-17114.68	1	19025.17	-64.10302	-2.385547E-005	0.0053854	8
	10	107	30046.88	11193.32	-19789.56	1	22735.81	-60.50675	1.827231E-005	-0.0001352	8
	11	115	23859.38	13545.83	-23892.02	1	27464.85	-60.44847	-2.431603E-005	0.0110668	8
	12	123	18984.38	18289.51	-26414.69	1	32128.53	-55.3013	-1.951323E-006	-0.0049069	8
	13	129	15046.87	25232.41	-28954.29	1	38406.06	-48.92926	-1.244833E-006	-0.0112876	7
	14	135	11953.13	31163.23	-31293.98	1	44164.01	-45.11995	6.978383E-006	-0.0227542	7
	15	140	9515.62	37929.69	-33349.08	1	50505.67	-41.32304	2.714081E-006	0.0067034	7
	16	145	7546.875	45786.75	-34396.17	1	57267.12	-36.91481	-1.383334E-006	-0.0111877	7
	17	151	5928.309	53198.84	-34179.76	1	63232.68	-32.72037	4.630538E-006	-0.0015206	7
	18	156	4733.456	62753.84	-35130.52	1	71918	-29.24074	6.932882E-006	-0.0174664	7
	19	161	3796.875	67721.69	-32823.47	1	75256.95	-25.85863	4.639077E-006	-0.0014532	7
	20	167	2987.132	71286.46	-35551.16	1	79659.55	-26.50582	-2.110445E-006	-0.0048682	8
	21	174	2390.625	107955.3	-99681.3	1	146937.8	-42.71804	-2.59421E-005	0.0077294	8
	22	182	1884.191	87499.93	-36582.92	1	94839.59	-22.68936	-2.669148E-005	0.0098376	8
	23	189	1516.544	100986	-17265.02	1	102451.3	-9.70174	9.047809E-006	0.0038231	8
	24	197	1193.986	111106.8	-23430.01	1	113550.4	-11.90797	2.92804E-006	-0.0219474	7
	25	204	946.5144	116962.3	-14436.7	1	117849.9	-7.03645	-1.264459E-006	-0.0109686	7
	26	207	751.7689	113722.1	-16579.15	1	114924.3	-8.294516	-2.921538E-007	-0.0057394	6
	27	210	597.4265	118257.9	-13803.33	1	119060.8	-6.657566	-6.32066E-007	0.0239973	6
	28	212	477.4305	121034.7	-10933.9	1	121527.6	-5.161912	-1.151754E-008	0.0006721	6
	29	215	376.6741	123439.5	-9192.188	1	123781.3	-4.258792	-1.097848E-008	0.0005918	6
	30	217	298.2954	125608.8	-7829.15	1	125852.6	-3.56661	-1.186849E-008	0.0006822	6
	31	219	237.7717	128012.5	-6521.867	1	128178.6	-2.916532	-1.112507E-008	0.0005903	6
	32	222	189.0121	130243.8	-5512.23	1	130360.4	-2.423448	-1.079886E-008	0.0006391	6
	33	224	150.2404	132440.2	-4673.54	1	132522.6	-2.021011	-1.14556E-008	0.0006775	6
	34	227	119.1737	134469.9	-4711.677	1	134552.4	-2.00676	-1.103E-008	0.000599	6
	35	229	95.0169	137139.5	-3424.886	1	137182.2	-1.430593	-1.161679E-008	0.0006744	6
	36	232	75.60484	139410.6	-2977.347	1	139442.4	-1.223462	-1.066967E-008	0.0005914	6
	37	234	54.50582	141184	-2021.748	1	141198.5	-0.8204166	-1.009989E-008	0.0005894	6
	38	237	45.95588	143901	-2245.827	1	143918.5	-0.8941288	-1.135964E-008	0.0006098	6
	39	239	37.20238	145866.2	-2083.984	1	145881.1	-0.8185265	-1.123858E-008	0.0006655	6
	40	242	30.04808	148383.7	-1884.88	1	148395.6	-0.7277746	-9.585917E-009	0.0006395	6
	41	244	23.91582	150773.7	-1979.854	1	150786.7	-0.7523248	-1.063835E-008	0.0005946	6
	42	247	18.60119	153157.5	-1723.374	1	153167.2	-0.6446819	-1.350879E-008	0.0006818	6
	43	249	15.02404	155466.7	-1853.065	1	155477.7	-0.6828974	-1.339303E-008	0.0006283	6
	44	252	12.01923	157919	-1972.814	1	157931.4	-0.7157342	-1.392083E-008	0.00059	6
	45	254	9.450605	160449.8	-2191.587	1	160464.8	-0.7825558	-9.687009E-009	0.0006175	6
	46	257	7.512019	163522.2	-2535.223	1	163541.9	-0.8882335	-1.014686E-008	0.0006271	6
	47	260	5.978954	167406.1	-3022.427	1	167433.4	-1.034332	-1.191548E-008	0.0006415	6
	48	264	4.734848	171571.6	-3534.289	1	171608	-1.180097	-8.067008E-009	0.0006193	6
	49	267	3.75601	176572.9	-4278.272	1	176624.7	-1.387976	-1.464586E-008	0.0006611	6
	50	273	3.004808	183578.6	-5111.322	1	183649.8	-1.594856	-1.05768E-008	0.0005925	6
	51	279	2.372217	190115	-6194.937	1	190215.9	-1.866335	-1.391574E-008	0.0006718	6
	52	283	1.878005	196005.3	-7541.623	1	196150.3	-2.203461	-1.604802E-008	0.0006293	6
	53	288	1.512097	202711.7	-9019.611	1	202912.3	-2.547682	-1.308907E-008	0.0005538	6
	54	293	1.201923	210907.8	-11317.27	1	211211.2	-3.071535	-1.418429E-008	0.0006367	6
	55	300	0.956633	220291.1	-13810.25	1	220723.6	-3.58723	-1.636035E-008	-3.892123E-006	6
