EXPLAIN
TAG	EISPOT
TITLE	LABEL	Potentiostatic EIS	Test Identifier
DATE	LABEL	9/11/2020	Date
TIME	LABEL	15:14:33	Time
NOTES	NOTES	1	Notes...
	
PSTAT	PSTAT	REF3000-16137	Potentiostat
VDC	POTEN	0.00000E+000	T	DC Voltage (V)
FREQINIT	QUANT	3.00000E+005	Initial Freq. (Hz)
FREQFINAL	QUANT	1.00000E+000	Final Freq. (Hz)
PTSPERDEC	QUANT	1.00000E+001	Points/decade
VAC	QUANT	5.00000E+001	AC Voltage (mV rms)
AREA	QUANT	1.00000E+000	Sample Area (cm^2)
SPEED	SELECTOR	2	Optimize for:
ZGUESS	QUANT	1.00000E+003	Estimated Z (ohms)
EOC	QUANT	0	Open Circuit (V)
SEQUENCER	TOGGLE	TRUE	Run as Sequence
PSTATMODEL	IQUANT	5	Pstat Model
PSTATSECTION	LABEL	REF3000-16137	Pstat Section
PSTATSERIALNO	LABEL	16137	Pstat Serial Number
CTRLMODE	IQUANT	1	Control Mode
IESTAB	IQUANT	0	I/E Stability
CASPEED	IQUANT	1	Control Amp Speed
CONVENTION	IQUANT	1	Current Convention
ICHRANGE	IQUANT	2	Ich Range
ICHRANGEMODE	TOGGLE	F	Ich Auto Range
ICHOFFSETENABLE	TOGGLE	T	Ich Offset Enable
ICHOFFSET	QUANT	0	Ich Offset (V)
ICHFILTER	IQUANT	3	Ich Filter
VCHRANGE	IQUANT	2	Vch Range
VCHRANGEMODE	TOGGLE	F	Vch Auto Range
VCHOFFSETENABLE	TOGGLE	T	Vch Offset Enable
VCHOFFSET	QUANT	0	Vch Offset (V)
VCHFILTER	IQUANT	3	Vch Filter
ACHRANGE	IQUANT	2	Ach Range
ACHOFFSETENABLE	TOGGLE	F	Ach Offset Enable
ACHOFFSET	QUANT	0	Ach Offset (V)
ACHFILTER	IQUANT	3	Ach Filter
IERANGELOWERLIMIT	IQUANT	2	I/E Range Lower Limit
IERANGEMODE	TOGGLE	F	I/E AutoRange
IERANGE	IQUANT	11	I/E Range
POSFEEDENABLE	TOGGLE	F	Positive Feedback IR Comp
POSFEEDRESISTANCE	QUANT	0	Positive Feedback Resistance (ohm)
ACHSELECT	IQUANT	0	Ach Select
CABLEID	IQUANT	13	Cable ID
DCCALDATE	LABEL	7/31/2020	DC Calibration Date
ACCALDATE	LABEL	7/31/2020	AC Calibration Date
THERMOSELECT	IQUANT	1	Thermo Select
FRAMEWORKVERSION	QUANT	6.33	Framework Version
INSTRUMENTVERSION	LABEL	3.50	Instrument Version
COMPLIANCEVOLTAGE	IQUANT	0	Compliance Voltage
ZCURVE	TABLE
	Pt	Time	Freq	Zreal	Zimag	Zsig	Zmod	Zphz	Idc	Vdc	IERange
	#	s	Hz	ohm	ohm	V	ohm	°	A	V	#
	0	7	300046.9	7.642065	2.274185	1	7.973272	16.57236	-0.0001578	-0.000361	10
	1	11	238359.4	7.604138	1.767539	1	7.806863	13.08571	8.421084E-006	-0.0007549	10
	2	14	189328.1	7.619615	1.400348	1	7.747225	10.41372	0.0003488	6.505031E-005	10
	3	16	150421.9	7.626915	1.079951	1	7.702994	8.059356	0.0004906	-0.0005978	10
	4	19	119484.4	7.655777	0.8293536	1	7.700568	6.182766	0.0001155	-0.0005688	10
	5	21	94921.88	7.673603	0.6434367	1	7.700531	4.793077	0.0001917	-6.430037E-005	10
	6	24	75421.88	7.696282	0.4587305	1	7.709941	3.411031	-0.0001708	0.0012217	10
	7	26	59859.37	7.719279	0.2959519	1	7.72495	2.195606	0.0001723	0.0004036	10
	8	29	47578.12	7.746708	0.1519629	1	7.748198	1.123796	0.0001999	0.0001732	10
	9	31	37828.12	7.779018	0.0230311	1	7.779052	0.1696333	-0.0001769	0.0012456	10
	10	34	30046.88	7.809953	-0.103292	1	7.810636	-0.7577319	-6.550028E-005	0.0004105	10
	11	36	23859.38	7.842775	-0.2317829	1	7.8462	-1.692809	-0.000202	0.0010656	10
	12	39	18984.38	7.877436	-0.3691066	1	7.886079	-2.682699	0.0001231	0.0006632	10
	13	41	15046.87	7.907931	-0.5256036	1	7.925379	-3.802593	0.0002038	9.044713E-005	10
	14	43	11953.13	7.955733	-0.6998262	1	7.986454	-5.027085	3.281981E-005	0.0008831	10
	15	46	9515.62	7.998466	-0.9075336	1	8.049788	-6.473293	6.205418E-005	0.0001138	10
	16	48	7546.875	8.050476	-1.162089	1	8.133918	-8.213926	-0.0001761	0.0013331	10
	17	50	5928.309	8.116314	-1.479438	1	8.250048	-10.33044	-0.0002034	0.0010543	10
	18	53	4733.456	8.186087	-1.845166	1	8.391463	-12.70234	0.0002158	8.638475E-005	10
	19	55	3796.875	8.272928	-2.268706	1	8.578366	-15.33536	-0.0001937	0.0011093	10
	20	57	2987.132	8.381667	-2.843003	1	8.850707	-18.73657	-0.0001929	0.0010058	10
	21	59	2390.625	8.496645	-3.495663	1	9.187635	-22.36309	-2.714833E-006	0.0002347	10
	22	62	1884.191	8.64969	-4.333171	1	9.67437	-26.60916	-1.272966E-005	0.000278	10
	23	64	1516.544	8.815088	-5.301273	1	10.28636	-31.02213	-7.132492E-005	0.0011983	10
	24	66	1193.986	9.024896	-6.570045	1	11.16307	-36.05429	6.407683E-005	8.712066E-005	10
	25	69	946.5144	9.271086	-8.104657	1	12.31416	-41.15951	0.0001654	-6.152853E-006	10
	26	71	751.7689	9.54257	-10.00787	1	13.82817	-46.36338	-7.412848E-005	0.0011885	10
	27	74	597.4265	9.88179	-12.32545	1	15.79768	-51.27949	6.13619E-005	0.0008496	10
	28	76	477.4305	10.27348	-15.1351	1	18.2925	-55.83194	-3.373201E-006	0.0006538	10
	29	78	376.6741	10.78076	-18.81796	1	21.68733	-60.19172	1.346854E-006	0.0005917	10
	30	80	298.2954	11.4104	-23.335	1	25.97536	-63.94218	-2.504412E-006	0.0006553	10
	31	83	237.7717	12.18888	-28.77549	1	31.25056	-67.04319	-2.207014E-006	0.0006481	10
	32	85	189.0121	13.19329	-35.56458	1	37.93287	-69.64681	-2.749319E-006	0.0006513	10
	33	88	150.2404	14.46696	-43.88872	1	46.21161	-71.75633	2.555415E-007	5.23232E-005	9
	34	90	119.1737	16.1514	-54.30201	1	56.65312	-73.43561	4.04712E-007	5.884362E-005	9
	35	92	95.0169	18.27497	-66.8199	1	69.2739	-74.7039	8.09797E-007	-3.08776E-006	9
	36	95	75.60484	21.03836	-82.30545	1	84.95175	-75.66146	3.308307E-007	4.187674E-005	9
	37	97	54.50582	26.45835	-110.7212	1	113.8386	-76.56042	2.764066E-007	4.097279E-005	9
	38	100	45.95588	30.20069	-129.1567	1	132.6406	-76.839	3.377072E-007	5.607194E-005	9
	39	102	37.20238	35.95337	-156.0876	1	160.1749	-77.02869	3.592098E-007	5.671466E-005	9
	40	105	30.04808	43.35967	-188.8657	1	193.779	-77.07013	4.264237E-007	5.001893E-005	9
	41	107	23.91582	53.63914	-231.262	1	237.4011	-76.94166	1.665505E-007	5.1025E-005	9
	42	109	18.60119	68.48907	-288.1786	1	296.2055	-76.631	7.775137E-007	4.428301E-005	9
	43	112	15.02404	85.06548	-346.785	1	357.0658	-76.21762	2.300058E-007	4.775996E-005	9
	44	114	12.01923	106.6395	-417.9993	1	431.3878	-75.68806	1.97636E-007	0.0006289	8
	45	116	9.450605	137.2096	-511.5362	1	529.6185	-74.98496	4.031799E-007	0.0006381	8
	46	119	7.512019	174.7598	-618.1899	1	642.4172	-74.21461	1.640327E-007	0.0006332	8
	47	122	5.978954	220.5587	-743.2472	1	775.2822	-73.47174	2.54699E-007	0.0006295	8
	48	125	4.734848	278.6752	-893.7618	1	936.1998	-72.68251	3.073704E-007	0.000551	8
	49	128	3.75601	348.187	-1069.753	1	1124.992	-71.97079	4.100725E-007	0.0006485	8
	50	131	3.004808	426.6171	-1268.249	1	1338.08	-71.40795	3.736189E-007	0.0006203	8
	51	135	2.372217	524.9283	-1516.551	1	1604.829	-70.90757	3.589986E-007	0.0005117	8
	52	139	1.878005	631.3838	-1812.676	1	1919.49	-70.79597	3.703512E-007	0.0006314	8
	53	144	1.512097	740.8939	-2134.679	1	2259.597	-70.85939	3.279271E-007	0.0006361	8
	54	149	1.201923	876.4184	-2556.354	1	2702.417	-71.07627	3.655117E-007	0.0006445	8
	55	156	0.956633	1024.872	-3061.028	1	3228.042	-71.48878	3.149991E-007	-1.427403E-005	8
