EXPLAIN
TAG	EISPOT
TITLE	LABEL	Potentiostatic EIS	Test Identifier
DATE	LABEL	9/11/2020	Date
TIME	LABEL	15:51:07	Time
NOTES	NOTES	1	Notes...
	
PSTAT	PSTAT	REF3000-16137	Potentiostat
VDC	POTEN	0.00000E+000	T	DC Voltage (V)
FREQINIT	QUANT	3.00000E+005	Initial Freq. (Hz)
FREQFINAL	QUANT	1.00000E+000	Final Freq. (Hz)
PTSPERDEC	QUANT	1.00000E+001	Points/decade
VAC	QUANT	5.00000E+001	AC Voltage (mV rms)
AREA	QUANT	1.00000E+000	Sample Area (cm^2)
SPEED	SELECTOR	2	Optimize for:
ZGUESS	QUANT	1.00000E+003	Estimated Z (ohms)
EOC	QUANT	0	Open Circuit (V)
SEQUENCER	TOGGLE	TRUE	Run as Sequence
PSTATMODEL	IQUANT	5	Pstat Model
PSTATSECTION	LABEL	REF3000-16137	Pstat Section
PSTATSERIALNO	LABEL	16137	Pstat Serial Number
CTRLMODE	IQUANT	1	Control Mode
IESTAB	IQUANT	0	I/E Stability
CASPEED	IQUANT	1	Control Amp Speed
CONVENTION	IQUANT	1	Current Convention
ICHRANGE	IQUANT	2	Ich Range
ICHRANGEMODE	TOGGLE	F	Ich Auto Range
ICHOFFSETENABLE	TOGGLE	T	Ich Offset Enable
ICHOFFSET	QUANT	0	Ich Offset (V)
ICHFILTER	IQUANT	3	Ich Filter
VCHRANGE	IQUANT	2	Vch Range
VCHRANGEMODE	TOGGLE	F	Vch Auto Range
VCHOFFSETENABLE	TOGGLE	T	Vch Offset Enable
VCHOFFSET	QUANT	0	Vch Offset (V)
VCHFILTER	IQUANT	3	Vch Filter
ACHRANGE	IQUANT	2	Ach Range
ACHOFFSETENABLE	TOGGLE	F	Ach Offset Enable
ACHOFFSET	QUANT	0	Ach Offset (V)
ACHFILTER	IQUANT	3	Ach Filter
IERANGELOWERLIMIT	IQUANT	2	I/E Range Lower Limit
IERANGEMODE	TOGGLE	F	I/E AutoRange
IERANGE	IQUANT	11	I/E Range
POSFEEDENABLE	TOGGLE	F	Positive Feedback IR Comp
POSFEEDRESISTANCE	QUANT	0	Positive Feedback Resistance (ohm)
ACHSELECT	IQUANT	0	Ach Select
CABLEID	IQUANT	13	Cable ID
DCCALDATE	LABEL	7/31/2020	DC Calibration Date
ACCALDATE	LABEL	7/31/2020	AC Calibration Date
THERMOSELECT	IQUANT	1	Thermo Select
FRAMEWORKVERSION	QUANT	6.33	Framework Version
INSTRUMENTVERSION	LABEL	3.50	Instrument Version
COMPLIANCEVOLTAGE	IQUANT	0	Compliance Voltage
ZCURVE	TABLE
	Pt	Time	Freq	Zreal	Zimag	Zsig	Zmod	Zphz	Idc	Vdc	IERange
	#	s	Hz	ohm	ohm	V	ohm	°	A	V	#
	0	26	300046.9	826.007	-374.0368	1	906.7476	-24.36222	2.573532E-005	0.0007477	9
	1	36	238359.4	902.7543	-350.2204	1	968.308	-21.20359	1.942344E-005	-0.0010662	9
	2	45	189328.1	981.839	-332.6425	1	1036.657	-18.71615	-2.921173E-005	-0.0009382	9
	3	54	150421.9	1061.853	-309.3818	1	1106.006	-16.24403	-0.0001026	0.0036519	9
	4	64	119484.4	1136.002	-238.9391	1	1160.859	-11.87807	-4.940106E-005	0.0082018	8
	5	70	94921.88	1184.033	-206.3275	1	1201.876	-9.885	-2.068343E-005	0.0067039	8
	6	74	75421.88	1218.272	-179.5077	1	1231.426	-8.381998	-1.768009E-005	0.008716	8
	7	77	59859.37	1250.343	-152.9041	1	1259.658	-6.972066	-1.696076E-005	0.0030652	8
	8	81	47578.12	1276.477	-129.0124	1	1282.98	-5.771239	-1.756783E-005	0.0087219	8
	9	84	37828.12	1298.653	-109.9515	1	1303.299	-4.83945	9.213195E-006	0.0023847	8
	10	86	30046.88	1324.778	-93.6477	1	1328.083	-4.043476	-1.828493E-005	0.0034319	8
	11	91	23859.38	1347.865	-77.03472	1	1350.064	-3.271076	9.802026E-006	0.0021215	8
	12	95	18984.38	1373.294	-66.36658	1	1374.897	-2.766755	2.153596E-005	-0.0048083	8
	13	98	15046.87	1392.132	-57.31386	1	1393.312	-2.357526	-1.004259E-005	-0.0006373	8
	14	101	11953.13	1413.967	-44.66024	1	1414.672	-1.80909	-9.73336E-006	-0.0007469	8
	15	105	9515.62	1435.33	-40.52019	1	1435.902	-1.617063	-1.809192E-005	0.0033691	8
	16	109	7546.875	1457.79	-35.09764	1	1458.212	-1.379183	-1.354874E-005	0.0088877	8
	17	112	5928.309	1473.887	-25.999	1	1474.116	-1.010579	9.346723E-006	0.0024022	8
	18	116	4733.456	1502.255	-24.83727	1	1502.46	-0.9472037	2.205504E-005	-0.006463	8
	19	120	3796.875	1521.243	-24.67454	1	1521.443	-0.9292549	-2.143303E-005	0.0068851	8
	20	123	2987.132	1544.928	-21.21744	1	1545.074	-0.7868285	-1.000204E-005	-0.0007404	8
	21	127	2390.625	1568.705	-4.729986	1	1568.712	-0.1727587	-1.456015E-005	0.0015735	8
	22	131	1884.191	1591.629	-21.21975	1	1591.77	-0.7638275	-1.495708E-005	0.0015447	8
	23	135	1516.544	1623.364	-12.53311	1	1623.412	-0.4423406	-1.379415E-005	0.0089704	8
	24	140	1193.986	1649.6	-11.7217	1	1649.642	-0.4071244	-1.021744E-005	-0.0006696	8
	25	144	946.5144	1679.04	-28.66323	1	1679.285	-0.978013	1.70535E-005	-0.000803	8
	26	147	751.7689	1684.347	-28.74138	1	1684.592	-0.977589	4.963238E-006	-0.0058512	8
	27	149	597.4265	1704.781	-17.16867	1	1704.867	-0.5770003	2.19147E-005	-0.0063682	8
	28	152	477.4305	1722.715	-31.42631	1	1723.001	-1.045092	-2.579675E-007	0.0006091	8
	29	154	376.6741	1739.335	-37.37596	1	1739.737	-1.231019	-2.882689E-007	0.0006399	8
	30	156	298.2954	1756.204	-45.03091	1	1756.781	-1.468802	-2.466752E-007	0.0006244	8
	31	159	237.7717	1774.301	-54.384	1	1775.134	-1.75562	-2.793419E-007	0.0006337	8
	32	161	189.0121	1792.769	-66.29512	1	1793.994	-2.117786	-2.579568E-007	0.0006345	8
	33	164	150.2404	1811.741	-81.05115	1	1813.553	-2.561511	-2.32197E-007	0.0006095	8
	34	166	119.1737	1831.179	-99.6261	1	1833.887	-3.114133	-2.524301E-007	0.0006121	8
	35	168	95.0169	1851.913	-122.1589	1	1855.938	-3.773969	-2.576584E-007	0.0006151	8
	36	171	75.60484	1874.235	-150.2523	1	1880.248	-4.583445	-2.877944E-007	0.0006675	8
	37	173	54.50582	1900.161	-202.3264	1	1910.903	-6.077872	-2.198936E-007	0.0005959	8
	38	176	45.95588	1923.144	-235.6639	1	1937.529	-6.986251	-3.273225E-007	0.0006082	8
	39	178	37.20238	1948.402	-287.0938	1	1969.439	-8.382125	-3.491703E-007	0.0006358	8
	40	181	30.04808	1975.474	-347.7461	1	2005.848	-9.98359	-2.823691E-007	0.0006016	8
	41	183	23.91582	2005.819	-429.8528	1	2051.361	-12.0957	-3.538595E-007	0.0006246	8
	42	185	18.60119	2041.587	-540.864	1	2112.016	-14.83812	-3.457431E-007	0.0006171	8
	43	188	15.02404	2082.183	-651.8452	1	2181.832	-17.38317	-4.369861E-007	0.0006266	8
	44	190	12.01923	2121.665	-796.1443	1	2266.122	-20.56836	-1.818893E-007	0.0006357	8
	45	192	9.450605	2173.226	-991.068	1	2388.541	-24.51468	-1.732476E-007	0.0006093	8
	46	195	7.512019	2236.992	-1218.439	1	2547.298	-28.57613	-2.371091E-007	0.0006183	8
	47	198	5.978954	2306.979	-1492.756	1	2747.813	-32.90533	-3.056998E-007	0.0006153	8
	48	201	4.734848	2393.109	-1837.474	1	3017.164	-37.51773	-2.605452E-007	0.0005935	8
	49	204	3.75601	2492.57	-2259.651	1	3364.361	-42.19403	-2.539238E-007	0.0006201	8
	50	207	3.004808	2603.869	-2757.64	1	3792.718	-46.64283	-2.852067E-007	0.0006102	8
	51	211	2.372217	2753.228	-3415.429	1	4386.96	-51.1272	-6.315554E-008	0.0005147	7
	52	215	1.878005	2913.703	-4225.055	1	5132.325	-55.40889	-4.059609E-008	0.0005967	7
	53	220	1.512097	3095.304	-5135.178	1	5995.912	-58.91991	-5.949432E-008	0.0005962	7
	54	225	1.201923	3343.534	-6351.931	1	7178.178	-62.23854	-4.463391E-008	0.0006069	7
	55	232	0.956633	3641.371	-7826.317	1	8631.965	-65.04874	-6.635724E-008	-4.470393E-005	7
