June 30, 2026   16:16:23
A.C. Impedance
File: e:\chi_data\atp-r0.186-n1.029-fulltemp-fe3_t-8.0_f0.1_1000000_v0.txt
Data Source:  Experiment
Instrument Model:  CHI660E
Header: 
Note: 

Init E (V) = 0
High Frequency (Hz) = 1e+6
Low Frequency (Hz) = 0.1
Imp SF
Amplitude (V) = 0.005
Quiet Time (sec) = 2
Cycles (.1-1Hz) = 1

Freq/Hz, Z'/ohm, Z"/ohm, Z/ohm, Phase/deg

8.252e+5, 4.882e+0, 1.384e+1, 1.468e+1, 70.6
6.816e+5, 4.259e+0, 1.116e+1, 1.195e+1, 69.1
5.625e+5, 3.748e+0, 9.386e+0, 1.011e+1, 68.2
4.639e+5, 3.473e+0, 7.636e+0, 8.389e+0, 65.5
3.828e+5, 3.308e+0, 6.381e+0, 7.188e+0, 62.6
3.164e+5, 3.196e+0, 5.252e+0, 6.148e+0, 58.7
2.607e+5, 3.097e+0, 4.364e+0, 5.351e+0, 54.6
2.158e+5, 3.021e+0, 3.588e+0, 4.690e+0, 49.9
1.777e+5, 2.974e+0, 2.936e+0, 4.179e+0, 44.6
1.465e+5, 2.941e+0, 2.379e+0, 3.783e+0, 39.0
1.211e+5, 2.911e+0, 1.937e+0, 3.497e+0, 33.6
9.961e+4, 2.893e+0, 1.567e+0, 3.290e+0, 28.4
8.252e+4, 2.881e+0, 1.258e+0, 3.144e+0, 23.6
6.812e+4, 2.880e+0, 9.918e-1, 3.046e+0, 19.0
5.625e+4, 2.883e+0, 7.615e-1, 2.982e+0, 14.8
4.644e+4, 2.889e+0, 5.570e-1, 2.942e+0, 10.9
3.833e+4, 2.898e+0, 3.756e-1, 2.922e+0, 7.4
3.164e+4, 2.910e+0, 2.144e-1, 2.918e+0, 4.2
2.612e+4, 2.924e+0, 6.600e-2, 2.925e+0, 1.3
2.153e+4, 2.939e+0, -7.670e-2, 2.940e+0, -1.5
1.777e+4, 2.955e+0, -2.172e-1, 2.963e+0, -4.2
1.470e+4, 2.972e+0, -3.619e-1, 2.994e+0, -6.9
1.211e+4, 2.992e+0, -5.158e-1, 3.036e+0, -9.8
1.001e+4, 3.015e+0, -6.835e-1, 3.092e+0, -12.8
8.252e+3, 3.044e+0, -8.697e-1, 3.165e+0, -15.9
6.812e+3, 3.076e+0, -1.080e+0, 3.260e+0, -19.4
5.625e+3, 3.112e+0, -1.321e+0, 3.381e+0, -23.0
4.643e+3, 3.155e+0, -1.601e+0, 3.538e+0, -26.9
3.833e+3, 3.204e+0, -1.929e+0, 3.740e+0, -31.0
3.164e+3, 3.264e+0, -2.313e+0, 4.000e+0, -35.3
2.612e+3, 3.333e+0, -2.768e+0, 4.333e+0, -39.7
2.153e+3, 3.417e+0, -3.307e+0, 4.755e+0, -44.1
1.777e+3, 3.517e+0, -3.944e+0, 5.284e+0, -48.3
1.470e+3, 3.635e+0, -4.698e+0, 5.940e+0, -52.3
1.211e+3, 3.778e+0, -5.594e+0, 6.751e+0, -56.0
1.001e+3, 3.951e+0, -6.658e+0, 7.743e+0, -59.3
8.252e+2, 4.158e+0, -7.914e+0, 8.940e+0, -62.3
6.836e+2, 4.406e+0, -9.412e+0, 1.039e+1, -64.9
5.615e+2, 4.703e+0, -1.120e+1, 1.215e+1, -67.2
4.639e+2, 5.060e+0, -1.334e+1, 1.427e+1, -69.2
3.809e+2, 5.482e+0, -1.584e+1, 1.676e+1, -70.9
3.174e+2, 5.995e+0, -1.881e+1, 1.974e+1, -72.3
2.588e+2, 6.630e+0, -2.238e+1, 2.334e+1, -73.5
2.148e+2, 7.404e+0, -2.667e+1, 2.768e+1, -74.5
1.758e+2, 8.316e+0, -3.171e+1, 3.278e+1, -75.3
1.465e+2, 9.378e+0, -3.747e+1, 3.863e+1, -75.9
1.221e+2, 1.072e+1, -4.460e+1, 4.588e+1, -76.5
9.766e+1, 1.247e+1, -5.293e+1, 5.438e+1, -76.7
8.254e+1, 1.458e+1, -6.243e+1, 6.411e+1, -76.9
6.813e+1, 1.700e+1, -7.383e+1, 7.576e+1, -77.0
5.623e+1, 1.978e+1, -8.732e+1, 8.954e+1, -77.2
4.642e+1, 2.309e+1, -1.034e+2, 1.059e+2, -77.4
3.831e+1, 2.712e+1, -1.224e+2, 1.253e+2, -77.5
3.162e+1, 3.198e+1, -1.449e+2, 1.484e+2, -77.6
2.610e+1, 3.779e+1, -1.716e+2, 1.757e+2, -77.6
2.154e+1, 4.474e+1, -2.029e+2, 2.077e+2, -77.6
1.778e+1, 5.307e+1, -2.397e+2, 2.455e+2, -77.5
1.468e+1, 6.297e+1, -2.830e+2, 2.899e+2, -77.5
1.212e+1, 7.460e+1, -3.336e+2, 3.418e+2, -77.4
1.000e+1, 8.845e+1, -3.931e+2, 4.029e+2, -77.3
8.254e+0, 1.046e+2, -4.632e+2, 4.748e+2, -77.3
6.813e+0, 1.228e+2, -5.459e+2, 5.596e+2, -77.3
5.623e+0, 1.431e+2, -6.436e+2, 6.593e+2, -77.5
4.642e+0, 1.655e+2, -7.593e+2, 7.772e+2, -77.7
3.831e+0, 1.907e+2, -8.962e+2, 9.163e+2, -78.0
3.162e+0, 2.190e+2, -1.060e+3, 1.083e+3, -78.3
2.610e+0, 2.513e+2, -1.256e+3, 1.281e+3, -78.7
2.154e+0, 2.819e+2, -1.495e+3, 1.521e+3, -79.3
1.778e+0, 3.115e+2, -1.783e+3, 1.810e+3, -80.1
1.468e+0, 3.494e+2, -2.116e+3, 2.145e+3, -80.6
1.212e+0, 3.985e+2, -2.504e+3, 2.535e+3, -81.0
1.000e+0, 4.592e+2, -2.962e+3, 2.997e+3, -81.2
8.254e-1, 5.302e+2, -3.504e+3, 3.543e+3, -81.4
6.813e-1, 6.072e+2, -4.149e+3, 4.193e+3, -81.7
5.623e-1, 6.917e+2, -4.922e+3, 4.971e+3, -82.0
4.642e-1, 7.909e+2, -5.850e+3, 5.903e+3, -82.3
3.831e-1, 9.070e+2, -6.960e+3, 7.019e+3, -82.6
3.162e-1, 1.045e+3, -8.283e+3, 8.348e+3, -82.8
2.610e-1, 1.212e+3, -9.859e+3, 9.933e+3, -83.0
2.154e-1, 1.410e+3, -1.174e+4, 1.182e+4, -83.2
1.778e-1, 1.641e+3, -1.396e+4, 1.405e+4, -83.3
1.468e-1, 1.900e+3, -1.654e+4, 1.665e+4, -83.4
1.212e-1, 2.245e+3, -1.975e+4, 1.988e+4, -83.5
1.000e-1, 2.707e+3, -2.367e+4, 2.383e+4, -83.5
