June 30, 2026   15:20:05
A.C. Impedance
File: e:\chi_data\atp-r0.186-n1.029-fulltemp-fe3_t4.0_f0.1_1000000_v0.txt
Data Source:  Experiment
Instrument Model:  CHI660E
Header: 
Note: 

Init E (V) = 0
High Frequency (Hz) = 1e+6
Low Frequency (Hz) = 0.1
Imp SF
Amplitude (V) = 0.005
Quiet Time (sec) = 2
Cycles (.1-1Hz) = 1

Freq/Hz, Z'/ohm, Z"/ohm, Z/ohm, Phase/deg

8.252e+5, 4.391e+0, 1.380e+1, 1.448e+1, 72.3
6.816e+5, 3.782e+0, 1.127e+1, 1.189e+1, 71.5
5.625e+5, 3.256e+0, 9.368e+0, 9.917e+0, 70.8
4.639e+5, 2.980e+0, 7.682e+0, 8.240e+0, 68.8
3.828e+5, 2.793e+0, 6.390e+0, 6.973e+0, 66.4
3.164e+5, 2.671e+0, 5.283e+0, 5.920e+0, 63.2
2.607e+5, 2.569e+0, 4.383e+0, 5.080e+0, 59.6
2.158e+5, 2.493e+0, 3.610e+0, 4.387e+0, 55.4
1.777e+5, 2.446e+0, 2.956e+0, 3.837e+0, 50.4
1.465e+5, 2.414e+0, 2.404e+0, 3.407e+0, 44.9
1.211e+5, 2.383e+0, 1.957e+0, 3.083e+0, 39.4
9.961e+4, 2.364e+0, 1.584e+0, 2.846e+0, 33.8
8.252e+4, 2.355e+0, 1.273e+0, 2.677e+0, 28.4
6.812e+4, 2.353e+0, 1.006e+0, 2.559e+0, 23.1
5.625e+4, 2.345e+0, 7.115e-1, 2.451e+0, 16.9
4.644e+4, 2.336e+0, 4.164e-1, 2.373e+0, 10.1
3.833e+4, 2.336e+0, 2.019e-1, 2.345e+0, 4.9
3.164e+4, 2.343e+0, 5.032e-2, 2.343e+0, 1.2
2.612e+4, 2.356e+0, -6.168e-2, 2.357e+0, -1.5
2.153e+4, 2.372e+0, -1.659e-1, 2.378e+0, -4.0
1.777e+4, 2.389e+0, -2.737e-1, 2.405e+0, -6.5
1.470e+4, 2.407e+0, -3.895e-1, 2.438e+0, -9.2
1.211e+4, 2.425e+0, -5.192e-1, 2.480e+0, -12.1
1.001e+4, 2.454e+0, -6.585e-1, 2.541e+0, -15.0
8.252e+3, 2.491e+0, -8.125e-1, 2.621e+0, -18.1
6.812e+3, 2.528e+0, -9.995e-1, 2.718e+0, -21.6
5.625e+3, 2.565e+0, -1.223e+0, 2.842e+0, -25.5
4.643e+3, 2.606e+0, -1.487e+0, 3.000e+0, -29.7
3.833e+3, 2.653e+0, -1.795e+0, 3.203e+0, -34.1
3.164e+3, 2.708e+0, -2.156e+0, 3.461e+0, -38.5
2.612e+3, 2.774e+0, -2.582e+0, 3.790e+0, -43.0
2.153e+3, 2.853e+0, -3.086e+0, 4.203e+0, -47.2
1.777e+3, 2.948e+0, -3.678e+0, 4.714e+0, -51.3
1.470e+3, 3.062e+0, -4.380e+0, 5.345e+0, -55.0
1.211e+3, 3.199e+0, -5.213e+0, 6.116e+0, -58.5
1.001e+3, 3.362e+0, -6.200e+0, 7.052e+0, -61.5
8.252e+2, 3.557e+0, -7.366e+0, 8.180e+0, -64.2
6.836e+2, 3.791e+0, -8.760e+0, 9.545e+0, -66.6
5.615e+2, 4.073e+0, -1.042e+1, 1.119e+1, -68.7
4.639e+2, 4.411e+0, -1.241e+1, 1.317e+1, -70.4
3.809e+2, 4.810e+0, -1.473e+1, 1.549e+1, -71.9
3.174e+2, 5.291e+0, -1.749e+1, 1.827e+1, -73.2
2.588e+2, 5.883e+0, -2.080e+1, 2.161e+1, -74.2
2.148e+2, 6.609e+0, -2.477e+1, 2.564e+1, -75.1
1.758e+2, 7.474e+0, -2.944e+1, 3.037e+1, -75.8
1.465e+2, 8.481e+0, -3.478e+1, 3.580e+1, -76.3
1.221e+2, 9.762e+0, -4.141e+1, 4.255e+1, -76.7
9.766e+1, 1.143e+1, -4.913e+1, 5.044e+1, -76.9
8.254e+1, 1.341e+1, -5.791e+1, 5.944e+1, -77.0
6.813e+1, 1.571e+1, -6.842e+1, 7.020e+1, -77.1
5.623e+1, 1.833e+1, -8.088e+1, 8.293e+1, -77.2
4.642e+1, 2.145e+1, -9.568e+1, 9.805e+1, -77.4
3.831e+1, 2.524e+1, -1.132e+2, 1.160e+2, -77.4
3.162e+1, 2.981e+1, -1.339e+2, 1.372e+2, -77.4
2.610e+1, 3.530e+1, -1.584e+2, 1.623e+2, -77.4
2.154e+1, 4.181e+1, -1.871e+2, 1.917e+2, -77.4
1.778e+1, 4.950e+1, -2.208e+2, 2.262e+2, -77.4
1.468e+1, 5.850e+1, -2.604e+2, 2.668e+2, -77.3
1.212e+1, 6.901e+1, -3.068e+2, 3.145e+2, -77.3
1.000e+1, 8.149e+1, -3.614e+2, 3.705e+2, -77.3
8.254e+0, 9.589e+1, -4.258e+2, 4.365e+2, -77.3
6.813e+0, 1.120e+2, -5.020e+2, 5.144e+2, -77.4
5.623e+0, 1.298e+2, -5.922e+2, 6.062e+2, -77.6
4.642e+0, 1.496e+2, -6.992e+2, 7.150e+2, -77.9
3.831e+0, 1.718e+2, -8.259e+2, 8.436e+2, -78.2
3.162e+0, 1.962e+2, -9.778e+2, 9.973e+2, -78.7
2.610e+0, 2.244e+2, -1.160e+3, 1.182e+3, -79.1
2.154e+0, 2.509e+2, -1.382e+3, 1.404e+3, -79.7
1.778e+0, 2.756e+2, -1.649e+3, 1.672e+3, -80.5
1.468e+0, 3.063e+2, -1.966e+3, 1.990e+3, -81.1
1.212e+0, 3.483e+2, -2.335e+3, 2.360e+3, -81.5
1.000e+0, 4.040e+2, -2.760e+3, 2.790e+3, -81.7
8.254e-1, 4.698e+2, -3.264e+3, 3.298e+3, -81.8
6.813e-1, 5.430e+2, -3.865e+3, 3.903e+3, -82.0
5.623e-1, 6.233e+2, -4.589e+3, 4.631e+3, -82.3
4.642e-1, 7.156e+2, -5.458e+3, 5.505e+3, -82.5
3.831e-1, 8.272e+2, -6.497e+3, 6.549e+3, -82.7
3.162e-1, 9.605e+2, -7.737e+3, 7.796e+3, -82.9
2.610e-1, 1.121e+3, -9.215e+3, 9.283e+3, -83.1
2.154e-1, 1.310e+3, -1.098e+4, 1.106e+4, -83.2
1.778e-1, 1.530e+3, -1.306e+4, 1.315e+4, -83.3
1.468e-1, 1.788e+3, -1.549e+4, 1.559e+4, -83.4
1.212e-1, 2.119e+3, -1.847e+4, 1.859e+4, -83.5
1.000e-1, 2.537e+3, -2.211e+4, 2.226e+4, -83.5
