EXPLAIN
TAG	EISPOT
TITLE	LABEL	Potentiostatic EIS	Test Identifier
DATE	LABEL	8/21/2020	Date
TIME	LABEL	21:51:48	Time
NOTES	NOTES	1	Notes...
	
PSTAT	PSTAT	REF3000-16137	Potentiostat
VDC	POTEN	0.00000E+000	T	DC Voltage (V)
FREQINIT	QUANT	3.00000E+005	Initial Freq. (Hz)
FREQFINAL	QUANT	1.00000E+000	Final Freq. (Hz)
PTSPERDEC	QUANT	1.00000E+001	Points/decade
VAC	QUANT	5.00000E+001	AC Voltage (mV rms)
AREA	QUANT	1.00000E+000	Sample Area (cm^2)
SPEED	SELECTOR	2	Optimize for:
ZGUESS	QUANT	1.00000E+003	Estimated Z (ohms)
EOC	QUANT	0	Open Circuit (V)
SEQUENCER	TOGGLE	TRUE	Run as Sequence
PSTATMODEL	IQUANT	5	Pstat Model
PSTATSECTION	LABEL	REF3000-16137	Pstat Section
PSTATSERIALNO	LABEL	16137	Pstat Serial Number
CTRLMODE	IQUANT	1	Control Mode
IESTAB	IQUANT	0	I/E Stability
CASPEED	IQUANT	1	Control Amp Speed
CONVENTION	IQUANT	1	Current Convention
ICHRANGE	IQUANT	2	Ich Range
ICHRANGEMODE	TOGGLE	F	Ich Auto Range
ICHOFFSETENABLE	TOGGLE	T	Ich Offset Enable
ICHOFFSET	QUANT	0	Ich Offset (V)
ICHFILTER	IQUANT	3	Ich Filter
VCHRANGE	IQUANT	2	Vch Range
VCHRANGEMODE	TOGGLE	F	Vch Auto Range
VCHOFFSETENABLE	TOGGLE	T	Vch Offset Enable
VCHOFFSET	QUANT	0	Vch Offset (V)
VCHFILTER	IQUANT	3	Vch Filter
ACHRANGE	IQUANT	2	Ach Range
ACHOFFSETENABLE	TOGGLE	F	Ach Offset Enable
ACHOFFSET	QUANT	0	Ach Offset (V)
ACHFILTER	IQUANT	3	Ach Filter
IERANGELOWERLIMIT	IQUANT	2	I/E Range Lower Limit
IERANGEMODE	TOGGLE	F	I/E AutoRange
IERANGE	IQUANT	11	I/E Range
POSFEEDENABLE	TOGGLE	F	Positive Feedback IR Comp
POSFEEDRESISTANCE	QUANT	0	Positive Feedback Resistance (ohm)
ACHSELECT	IQUANT	0	Ach Select
CABLEID	IQUANT	13	Cable ID
DCCALDATE	LABEL	7/31/2020	DC Calibration Date
ACCALDATE	LABEL	7/31/2020	AC Calibration Date
THERMOSELECT	IQUANT	1	Thermo Select
FRAMEWORKVERSION	QUANT	6.33	Framework Version
INSTRUMENTVERSION	LABEL	3.50	Instrument Version
COMPLIANCEVOLTAGE	IQUANT	0	Compliance Voltage
ZCURVE	TABLE
	Pt	Time	Freq	Zreal	Zimag	Zsig	Zmod	Zphz	Idc	Vdc	IERange
	#	s	Hz	ohm	ohm	V	ohm	°	A	V	#
	0	14	300046.9	2412.532	-2337.656	1	3359.307	-44.09694	1.132292E-006	-0.0021154	9
	1	28	238359.4	3013.694	-2195.46	1	3728.592	-36.07314	8.992568E-005	-0.0034132	9
	2	49	189328.1	3391.948	-2228.203	1	4058.349	-33.3013	3.015974E-005	-0.0019548	9
	3	58	150421.9	3844.969	-2064.066	1	4363.961	-28.22791	8.281904E-005	-0.0032588	9
	4	66	119484.4	4331.261	-1782.393	1	4683.668	-22.36807	6.534097E-005	-0.0128816	8
	5	73	94921.88	4590.155	-1549.182	1	4844.532	-18.64959	2.187293E-005	-0.0027814	8
	6	81	75421.88	4841.64	-1350.706	1	5026.518	-15.58788	2.098775E-005	-0.0091547	8
	7	88	59859.37	5060.628	-1168.908	1	5193.872	-13.00612	-2.325231E-005	0.0104509	8
	8	96	47578.12	5227.973	-1002.519	1	5323.227	-10.85529	-2.52364E-005	0.0091755	8
	9	103	37828.12	5391.219	-855.9534	1	5458.746	-9.021441	-2.510013E-005	0.0073192	8
	10	111	30046.88	5496.981	-755.883	1	5548.708	-7.829568	2.469833E-005	-0.00853	8
	11	118	23859.38	5630.853	-681.079	1	5671.894	-6.8967	8.138056E-006	0.0038836	8
	12	123	18984.38	5715.234	-607.5875	1	5747.44	-6.068331	-2.540151E-005	0.0092818	8
	13	129	15046.87	5828.427	-551.64	1	5854.474	-5.406737	-2.289832E-005	0.0051175	8
	14	134	11953.13	5907.521	-545.8466	1	5932.685	-5.27906	-1.931389E-006	0.0073648	8
	15	140	9515.62	6083.293	-388.6035	1	6095.692	-3.655113	1.901995E-006	-0.0191444	7
	16	144	7546.875	6131.141	-444.0735	1	6147.202	-4.142653	-6.607547E-006	0.0156538	7
	17	147	5928.309	6213.268	-486.2126	1	6232.263	-4.474501	-6.130087E-006	0.0225286	7
	18	151	4733.456	6326.095	-607.9844	1	6355.244	-5.489686	8.247696E-006	0.0038896	8
	19	158	3796.875	6448.271	-649.0945	1	6480.858	-5.748133	1.856376E-006	-0.0196473	7
	20	161	2987.132	6585.487	-759.7908	1	6629.172	-6.581317	-5.274567E-006	0.024228	7
	21	166	2390.625	6710.142	-846.2977	1	6763.299	-7.188314	-6.441152E-006	0.0154793	7
	22	169	1884.191	6867.925	-1014.452	1	6942.442	-8.402328	-3.978E-006	0.0238279	7
	23	173	1516.544	7048.904	-1171.943	1	7145.663	-9.439591	-6.598881E-006	0.0199846	7
	24	178	1193.986	7212.734	-1335.848	1	7335.396	-10.49268	-6.176687E-006	0.0229801	7
	25	182	946.5144	7406.687	-1538.538	1	7564.794	-11.73476	1.805715E-006	0.0106122	7
	26	185	751.7689	7636.104	-1789.969	1	7843.091	-13.19244	5.565221E-006	-0.0067639	7
	27	187	597.4265	7830.358	-2005.524	1	8083.108	-14.36588	-2.229968E-006	0.0218125	7
	28	190	477.4305	8011.628	-2350.47	1	8349.305	-16.35075	-9.112011E-008	0.0006454	7
	29	192	376.6741	8219.653	-2732.366	1	8661.9	-18.38777	-8.906272E-008	0.0006587	7
	30	195	298.2954	8425.206	-3194.771	1	9010.586	-20.76633	-8.178208E-008	0.0005795	7
	31	197	237.7717	8626.195	-3753.419	1	9407.412	-23.51476	-8.536409E-008	0.0005699	7
	32	199	189.0121	8815.481	-4460.841	1	9879.87	-26.84048	-8.285377E-008	0.0005697	7
	33	202	150.2404	8999.62	-5354.499	1	10472.05	-30.75135	-8.599024E-008	0.0006587	7
	34	204	119.1737	9183.251	-6509.248	1	11256.22	-35.32968	-9.102489E-008	0.000617	7
	35	207	95.0169	9366.001	-7930.278	1	12272.38	-40.25489	-8.513459E-008	0.0005692	7
	36	209	75.60484	9563.83	-9739.44	1	13650.04	-45.52126	-8.320898E-008	0.0006262	7
	37	212	54.50582	9864.64	-13176.75	1	16460.19	-53.18001	-8.126965E-008	0.0005871	7
	38	214	45.95588	10083.19	-15470.15	1	18466.09	-56.90434	-8.145187E-008	0.0005943	7
	39	216	37.20238	10375.28	-18887.57	1	21549.63	-61.21922	-8.224233E-008	0.0006198	7
	40	219	30.04808	10722.06	-23146.33	1	25509.12	-65.14505	-8.979504E-008	0.0006647	7
	41	221	23.91582	11190.15	-28794.61	1	30892.54	-68.7629	-9.187949E-008	0.0006714	7
	42	224	18.60119	11823.89	-36605.05	1	38467.31	-72.0989	-8.842921E-008	0.0006116	7
	43	226	15.02404	12562.53	-44965.86	1	46687.74	-74.39073	-9.984086E-009	0.0006873	6
	44	228	12.01923	13480.08	-55641.65	1	57251.25	-76.38157	-1.018542E-008	0.0007321	6
	45	231	9.450605	14796.98	-70068.58	1	71613.94	-78.07557	-1.031647E-008	0.0006852	6
	46	233	7.512019	16394.5	-87223.49	1	88750.88	-79.3549	-9.737596E-009	0.0006778	6
	47	236	5.978954	18525.31	-108435.5	1	110006.5	-80.30508	-9.574324E-009	0.0006737	6
	48	239	4.734848	21338.87	-135485.2	1	137155.4	-81.04946	-9.505162E-009	0.0007012	6
	49	242	3.75601	25024.32	-168805.3	1	170650	-81.56767	-9.061872E-009	0.0006415	6
	50	248	3.004808	29693.96	-208565.3	1	210668.5	-81.89711	-9.284044E-009	0.0007335	6
	51	254	2.372217	36058.63	-260508.9	1	262992.6	-82.11942	-9.6088E-009	0.0006944	6
	52	258	1.878005	44913.29	-324944.1	1	328033.3	-82.13052	-9.326084E-009	0.0006304	6
	53	263	1.512097	55148.79	-398115.2	1	401916.8	-82.11331	-9.367409E-009	0.0007591	6
	54	268	1.201923	69414.95	-494109.8	1	498961.9	-82.00314	-9.48896E-010	0.0006197	5
	55	275	0.956633	86813.84	-610625.9	1	616766.3	-81.90838	-1.158195E-009	2.761195E-006	5
