EXPLAIN
TAG	EISPOT
TITLE	LABEL	Potentiostatic EIS	Test Identifier
DATE	LABEL	8/21/2020	Date
TIME	LABEL	20:34:58	Time
NOTES	NOTES	1	Notes...
	
PSTAT	PSTAT	REF3000-16137	Potentiostat
VDC	POTEN	0.00000E+000	T	DC Voltage (V)
FREQINIT	QUANT	3.00000E+005	Initial Freq. (Hz)
FREQFINAL	QUANT	1.00000E+000	Final Freq. (Hz)
PTSPERDEC	QUANT	1.00000E+001	Points/decade
VAC	QUANT	5.00000E+001	AC Voltage (mV rms)
AREA	QUANT	1.00000E+000	Sample Area (cm^2)
SPEED	SELECTOR	2	Optimize for:
ZGUESS	QUANT	1.00000E+003	Estimated Z (ohms)
EOC	QUANT	0	Open Circuit (V)
SEQUENCER	TOGGLE	TRUE	Run as Sequence
PSTATMODEL	IQUANT	5	Pstat Model
PSTATSECTION	LABEL	REF3000-16137	Pstat Section
PSTATSERIALNO	LABEL	16137	Pstat Serial Number
CTRLMODE	IQUANT	1	Control Mode
IESTAB	IQUANT	0	I/E Stability
CASPEED	IQUANT	1	Control Amp Speed
CONVENTION	IQUANT	1	Current Convention
ICHRANGE	IQUANT	2	Ich Range
ICHRANGEMODE	TOGGLE	F	Ich Auto Range
ICHOFFSETENABLE	TOGGLE	T	Ich Offset Enable
ICHOFFSET	QUANT	0	Ich Offset (V)
ICHFILTER	IQUANT	3	Ich Filter
VCHRANGE	IQUANT	2	Vch Range
VCHRANGEMODE	TOGGLE	F	Vch Auto Range
VCHOFFSETENABLE	TOGGLE	T	Vch Offset Enable
VCHOFFSET	QUANT	0	Vch Offset (V)
VCHFILTER	IQUANT	3	Vch Filter
ACHRANGE	IQUANT	2	Ach Range
ACHOFFSETENABLE	TOGGLE	F	Ach Offset Enable
ACHOFFSET	QUANT	0	Ach Offset (V)
ACHFILTER	IQUANT	3	Ach Filter
IERANGELOWERLIMIT	IQUANT	2	I/E Range Lower Limit
IERANGEMODE	TOGGLE	F	I/E AutoRange
IERANGE	IQUANT	11	I/E Range
POSFEEDENABLE	TOGGLE	F	Positive Feedback IR Comp
POSFEEDRESISTANCE	QUANT	0	Positive Feedback Resistance (ohm)
ACHSELECT	IQUANT	0	Ach Select
CABLEID	IQUANT	13	Cable ID
DCCALDATE	LABEL	7/31/2020	DC Calibration Date
ACCALDATE	LABEL	7/31/2020	AC Calibration Date
THERMOSELECT	IQUANT	1	Thermo Select
FRAMEWORKVERSION	QUANT	6.33	Framework Version
INSTRUMENTVERSION	LABEL	3.50	Instrument Version
COMPLIANCEVOLTAGE	IQUANT	0	Compliance Voltage
ZCURVE	TABLE
	Pt	Time	Freq	Zreal	Zimag	Zsig	Zmod	Zphz	Idc	Vdc	IERange
	#	s	Hz	ohm	ohm	V	ohm	°	A	V	#
	0	7	300046.9	38.56724	-2.719499	1	38.663	-4.033432	1.752035E-005	-0.000994	9
	1	10	238359.4	38.9352	-3.789111	1	39.11914	-5.55843	-5.207815E-005	0.0010566	9
	2	13	189328.1	39.47939	-5.020373	1	39.79732	-7.247086	-5.045591E-005	0.0012618	9
	3	15	150421.9	39.9838	-6.291507	1	40.47577	-8.942249	-1.196327E-005	-0.0005773	9
	4	18	119484.4	40.72825	-7.73562	1	41.45636	-10.75424	-3.028691E-006	0.0005749	9
	5	21	94921.88	41.49023	-9.128698	1	42.48261	-12.40854	9.699766E-006	-0.0004644	9
	6	23	75421.88	42.29281	-10.9342	1	43.68339	-14.4956	4.399955E-006	0.00018	9
	7	26	59859.37	43.08873	-13.02611	1	45.01464	-16.82054	-1.212951E-005	0.0002	9
	8	28	47578.12	43.92966	-15.45601	1	46.56934	-19.38367	-1.006378E-005	0.0006081	9
	9	31	37828.12	44.8034	-18.42563	1	48.44429	-22.35517	-1.373731E-005	0.0003884	9
	10	33	30046.88	45.66689	-22.03701	1	50.70596	-25.7601	-1.481612E-005	0.0005811	9
	11	36	23859.38	46.5231	-26.47686	1	53.52964	-29.64473	7.831938E-006	-0.0003384	9
	12	38	18984.38	47.31162	-32.07441	1	57.15905	-34.13489	-1.485215E-005	0.0004298	9
	13	40	15046.87	48.12171	-39.15432	1	62.03838	-39.13359	-4.509636E-006	-4.043112E-005	9
	14	43	11953.13	49.0055	-48.0673	1	68.64404	-44.44626	-5.566751E-007	0.0004511	9
	15	45	9515.62	49.91522	-59.17693	1	77.4173	-49.85266	1.912204E-005	-0.0004217	9
	16	47	7546.875	51.19456	-73.28103	1	89.39235	-55.06162	1.414596E-005	-0.0004654	9
	17	50	5928.309	52.43033	-91.96771	1	105.8631	-60.31275	-1.427064E-005	0.0005175	9
	18	52	4733.456	54.01142	-113.753	1	125.9245	-64.60102	1.822555E-005	-0.0004222	9
	19	54	3796.875	55.7714	-140.412	1	151.0827	-68.3371	-1.463787E-005	0.0004195	9
	20	57	2987.132	58.97297	-176.1743	1	185.7827	-71.49244	-1.216276E-005	0.0002526	9
	21	60	2390.625	61.72988	-218.2278	1	226.7905	-74.20544	1.705588E-005	-0.0001429	9
	22	62	1884.191	66.75521	-274.1765	1	282.1861	-76.31614	1.620946E-005	-0.0001552	9
	23	64	1516.544	71.20354	-337.6976	1	345.1226	-78.09358	1.113105E-005	3.391938E-005	9
	24	67	1193.986	80.90768	-423.6326	1	431.2895	-79.18755	-1.300031E-005	0.0004003	9
	25	69	946.5144	90.09254	-526.6027	1	534.2538	-80.29168	3.588924E-006	-4.276149E-005	8
	26	72	751.7689	103.2953	-655.8884	1	663.9725	-81.05005	-2.064218E-006	0.0016229	8
	27	74	597.4265	121.0153	-816.8853	1	825.8004	-81.57336	-5.205815E-007	0.0013709	8
	28	76	477.4305	145.3517	-1009.523	1	1019.934	-81.80683	3.632671E-007	0.0006565	8
	29	78	376.6741	179.3169	-1262.545	1	1275.215	-81.91645	3.606983E-007	0.0006521	8
	30	81	298.2954	224.7307	-1571.351	1	1587.34	-81.86089	3.674251E-007	0.0006572	8
	31	83	237.7717	284.2948	-1941.381	1	1962.087	-81.66885	3.620631E-007	0.0006553	8
	32	86	189.0121	365.4511	-2401.094	1	2428.746	-81.34589	3.649027E-007	0.0006537	8
	33	88	150.2404	474.3784	-2964.999	1	3002.708	-80.91013	3.799037E-007	0.0006533	8
	34	90	119.1737	621.1329	-3661.602	1	3713.911	-80.37232	3.868781E-007	0.0006571	8
	35	93	95.0169	816.5605	-4501.698	1	4575.156	-79.71893	4.194879E-008	0.0006244	7
	36	95	75.60484	1074.828	-5522.841	1	5626.458	-78.98704	4.231965E-008	0.0006245	7
	37	98	54.50582	1604.665	-7371.696	1	7544.326	-77.71947	4.390766E-008	0.0006168	7
	38	100	45.95588	1978.948	-8552.719	1	8778.681	-76.97203	5.459523E-008	0.0006279	7
	39	103	37.20238	2587.316	-10266.79	1	10587.78	-75.85551	4.359434E-008	0.000634	7
	40	105	30.04808	3377.003	-12277.2	1	12733.17	-74.62039	4.178867E-008	0.0006272	7
	41	108	23.91582	4524.739	-14851.3	1	15525.28	-73.05562	4.680603E-008	0.0006266	7
	42	110	18.60119	6201.421	-18109.74	1	19142.11	-71.09697	5.441802E-008	0.0006315	7
	43	112	15.02404	8101.282	-21336.22	1	22822.47	-69.20843	5.96617E-008	0.0006366	7
	44	115	12.01923	10655.71	-25056.06	1	27227.75	-66.96118	4.117923E-008	0.0006232	7
	45	117	9.450605	14178.38	-29513.52	1	32742.54	-64.34024	5.254817E-008	0.0006183	7
	46	120	7.512019	18328.04	-34001.14	1	38626.34	-61.67348	5.174161E-008	0.0006199	7
	47	122	5.978954	23371.45	-38601.01	1	45124.97	-58.80668	1.639038E-008	0.0006692	6
	48	125	4.734848	29440.72	-43358.86	1	52409.41	-55.82344	9.201216E-009	0.0006445	6
	49	129	3.75601	36367.2	-47921.05	1	60158.12	-52.80521	1.601677E-008	0.0006855	6
	50	132	3.004808	43822.57	-52085.83	1	68068.73	-49.92432	1.503783E-008	0.0006546	6
	51	136	2.372217	52489.96	-55942.01	1	76711.83	-46.82346	1.156584E-008	0.0005981	6
	52	140	1.878005	61563.72	-59131.27	1	85361.58	-43.84544	1.283891E-008	0.000671	6
	53	145	1.512097	70185.3	-61456.34	1	93289.11	-41.20636	1.118409E-008	0.0006722	6
	54	150	1.201923	79778.45	-63637.23	1	102050.5	-38.57847	8.601926E-009	0.000697	6
	55	156	0.956633	89504.26	-64771.56	1	110482.4	-35.89214	2.538427E-009	5.914666E-005	6
