EXPLAIN
TAG	EISPOT
TITLE	LABEL	Potentiostatic EIS	Test Identifier
DATE	LABEL	8/21/2020	Date
TIME	LABEL	21:42:44	Time
NOTES	NOTES	1	Notes...
	
PSTAT	PSTAT	REF3000-16137	Potentiostat
VDC	POTEN	0.00000E+000	T	DC Voltage (V)
FREQINIT	QUANT	3.00000E+005	Initial Freq. (Hz)
FREQFINAL	QUANT	1.00000E+000	Final Freq. (Hz)
PTSPERDEC	QUANT	1.00000E+001	Points/decade
VAC	QUANT	5.00000E+001	AC Voltage (mV rms)
AREA	QUANT	1.00000E+000	Sample Area (cm^2)
SPEED	SELECTOR	2	Optimize for:
ZGUESS	QUANT	1.00000E+003	Estimated Z (ohms)
EOC	QUANT	0	Open Circuit (V)
SEQUENCER	TOGGLE	TRUE	Run as Sequence
PSTATMODEL	IQUANT	5	Pstat Model
PSTATSECTION	LABEL	REF3000-16137	Pstat Section
PSTATSERIALNO	LABEL	16137	Pstat Serial Number
CTRLMODE	IQUANT	1	Control Mode
IESTAB	IQUANT	0	I/E Stability
CASPEED	IQUANT	1	Control Amp Speed
CONVENTION	IQUANT	1	Current Convention
ICHRANGE	IQUANT	2	Ich Range
ICHRANGEMODE	TOGGLE	F	Ich Auto Range
ICHOFFSETENABLE	TOGGLE	T	Ich Offset Enable
ICHOFFSET	QUANT	0	Ich Offset (V)
ICHFILTER	IQUANT	3	Ich Filter
VCHRANGE	IQUANT	2	Vch Range
VCHRANGEMODE	TOGGLE	F	Vch Auto Range
VCHOFFSETENABLE	TOGGLE	T	Vch Offset Enable
VCHOFFSET	QUANT	0	Vch Offset (V)
VCHFILTER	IQUANT	3	Vch Filter
ACHRANGE	IQUANT	2	Ach Range
ACHOFFSETENABLE	TOGGLE	F	Ach Offset Enable
ACHOFFSET	QUANT	0	Ach Offset (V)
ACHFILTER	IQUANT	3	Ach Filter
IERANGELOWERLIMIT	IQUANT	2	I/E Range Lower Limit
IERANGEMODE	TOGGLE	F	I/E AutoRange
IERANGE	IQUANT	11	I/E Range
POSFEEDENABLE	TOGGLE	F	Positive Feedback IR Comp
POSFEEDRESISTANCE	QUANT	0	Positive Feedback Resistance (ohm)
ACHSELECT	IQUANT	0	Ach Select
CABLEID	IQUANT	13	Cable ID
DCCALDATE	LABEL	7/31/2020	DC Calibration Date
ACCALDATE	LABEL	7/31/2020	AC Calibration Date
THERMOSELECT	IQUANT	1	Thermo Select
FRAMEWORKVERSION	QUANT	6.33	Framework Version
INSTRUMENTVERSION	LABEL	3.50	Instrument Version
COMPLIANCEVOLTAGE	IQUANT	0	Compliance Voltage
ZCURVE	TABLE
	Pt	Time	Freq	Zreal	Zimag	Zsig	Zmod	Zphz	Idc	Vdc	IERange
	#	s	Hz	ohm	ohm	V	ohm	°	A	V	#
	0	18	300046.9	1477.096	-487.1379	1	1555.351	-18.25226	-2.277138E-005	0.0015009	9
	1	34	238359.4	1562.93	-425.8645	1	1619.91	-15.24184	-8.51626E-007	-0.0019613	9
	2	53	189328.1	1610.016	-381.6903	1	1654.642	-13.33702	3.909291E-008	-0.0019203	9
	3	59	150421.9	1676.47	-321.098	1	1706.943	-10.84268	1.997446E-005	-0.0003801	9
	4	65	119484.4	1731.257	-227.9145	1	1746.195	-7.499681	-5.850465E-006	0.0141765	8
	5	72	94921.88	1754.86	-193.9821	1	1765.549	-6.307862	-1.43353E-005	0.0010027	8
	6	75	75421.88	1776.526	-173.6951	1	1784.997	-5.584196	-6.199518E-007	0.0062306	8
	7	82	59859.37	1794.37	-162.4556	1	1801.709	-5.173244	2.180977E-005	-0.0076039	8
	8	85	47578.12	1813.165	-155.415	1	1819.814	-4.899117	1.830988E-005	-0.0079114	8
	9	88	37828.12	1832.582	-149.5843	1	1838.677	-4.666416	5.604333E-006	-0.0061986	8
	10	93	30046.88	1852.566	-150.568	1	1858.675	-4.646523	5.554019E-006	-0.00615	8
	11	96	23859.38	1873.221	-156.5494	1	1879.751	-4.777239	-1.456287E-005	0.0010808	8
	12	100	18984.38	1892.947	-168.4171	1	1900.424	-5.084266	1.306042E-005	-0.0076698	8
	13	103	15046.87	1917.275	-180.5773	1	1925.76	-5.380496	-1.462117E-005	0.0010896	8
	14	106	11953.13	1948.962	-207.5859	1	1959.986	-6.079709	-2.261734E-005	0.0084097	8
	15	110	9515.62	1980.951	-236.9108	1	1995.067	-6.819868	-1.505333E-005	0.0012102	8
	16	115	7546.875	2021.797	-271.0422	1	2039.884	-7.63555	2.040291E-005	-0.0027362	8
	17	119	5928.309	2063.717	-310.5401	1	2086.95	-8.557443	2.32154E-005	-0.0064142	8
	18	123	4733.456	2112.618	-357.4848	1	2142.65	-9.60428	-1.461773E-005	0.0011025	8
	19	128	3796.875	2162.47	-404.542	1	2199.985	-10.59607	-8.987585E-006	-0.0012589	8
	20	132	2987.132	2220.029	-466.0297	1	2268.416	-11.85542	-9.123418E-006	-0.0013643	8
	21	136	2390.625	2277.147	-534.6449	1	2339.069	-13.21299	1.855955E-005	-0.0081469	8
	22	139	1884.191	2342.701	-613.165	1	2421.615	-14.66725	-1.628266E-005	0.0096911	8
	23	144	1516.544	2412.198	-708.5416	1	2514.106	-16.36924	2.345649E-005	-0.0064616	8
	24	149	1193.986	2472.572	-815.709	1	2603.65	-18.25788	-2.093072E-005	0.009605	8
	25	155	946.5144	2559.385	-1001.518	1	2748.362	-21.37101	6.474896E-006	-0.0065023	8
	26	158	751.7689	2607.371	-1119.22	1	2837.435	-23.23153	-2.505428E-005	0.0010732	9
	27	162	597.4265	2650.511	-1330.536	1	2965.727	-26.65629	-2.259851E-005	0.0066835	8
	28	166	477.4305	2728.823	-1610.335	1	3168.541	-30.54573	-3.603643E-007	0.0006443	8
	29	169	376.6741	2782.389	-1963.461	1	3405.417	-35.20964	-3.440681E-007	0.0006501	8
	30	171	298.2954	2836.016	-2407.015	1	3719.773	-40.32231	-3.623765E-007	0.0006491	8
	31	174	237.7717	2902.39	-2957.714	1	4143.904	-45.54091	-7.81946E-008	0.0006708	7
	32	176	189.0121	2966.656	-3653.997	1	4706.67	-50.92709	-6.695761E-008	0.0005932	7
	33	179	150.2404	3040.848	-4528.179	1	5454.463	-56.11711	-7.604863E-008	0.0006692	7
	34	181	119.1737	3131.353	-5633.604	1	6445.375	-60.93317	-6.896569E-008	0.0006211	7
	35	183	95.0169	3243.017	-6988.967	1	7704.728	-65.10778	-7.43252E-008	0.0006549	7
	36	186	75.60484	3383.567	-8690.393	1	9325.849	-68.72677	-6.590376E-008	0.0005718	7
	37	188	54.50582	3645.347	-11878.3	1	12425.08	-72.9392	-7.2909E-008	0.0006071	7
	38	191	45.95588	3832.959	-13988.49	1	14504.11	-74.67659	-7.460475E-008	0.0006316	7
	39	193	37.20238	4113.4	-17116.85	1	17604.17	-76.48731	-7.392366E-008	0.0006275	7
	40	196	30.04808	4470.455	-20991.01	1	21461.77	-77.97734	-7.360238E-008	0.0006437	7
	41	198	23.91582	4962.884	-26096.75	1	26564.46	-79.2325	-6.941551E-008	0.0006166	7
	42	200	18.60119	5685.167	-33143.91	1	33627.96	-80.26679	-6.794331E-008	0.0006156	7
	43	203	15.02404	6480.771	-40603.6	1	41117.55	-80.93147	-6.632852E-008	0.0005902	7
	44	205	12.01923	7600.955	-50168.07	1	50740.62	-81.38465	-8.212186E-009	0.0006462	6
	45	208	9.450605	9172.504	-62955.04	1	63619.75	-81.71037	-8.020539E-009	0.0007126	6
	46	210	7.512019	11125.94	-78084.61	1	78873.27	-81.89075	-7.413222E-009	0.0006662	6
	47	213	5.978954	13650.21	-96639.8	1	97599.1	-81.96026	-7.748326E-009	0.0006988	6
	48	216	4.734848	17084.44	-120089.7	1	121298.9	-81.90321	-7.490552E-009	0.0006565	6
	49	219	3.75601	21423.99	-148857.7	1	150391.5	-81.81008	-7.21467E-009	0.0006177	6
	50	224	3.004808	26831.29	-182890.8	1	184848.5	-81.65387	-7.463537E-009	0.0006885	6
	51	231	2.372217	34308.89	-227632.7	1	230203.7	-81.42887	-7.898552E-009	0.0007396	6
	52	235	1.878005	43744.92	-282180.9	1	285551.6	-81.1879	-8.193103E-009	0.0006347	6
	53	240	1.512097	55193.35	-343455.7	1	347862.3	-80.87062	-7.875051E-009	0.0006671	6
	54	245	1.201923	71480.33	-425285.5	1	431250.7	-80.45912	-8.173934E-009	0.0006333	6
	55	251	0.956633	93342.4	-523920.8	1	532170.8	-79.8981	-1.164929E-009	5.820395E-006	5
