EXPLAIN
TAG	EISPOT
TITLE	LABEL	Potentiostatic EIS	Test Identifier
DATE	LABEL	8/21/2020	Date
TIME	LABEL	21:16:20	Time
NOTES	NOTES	1	Notes...
	
PSTAT	PSTAT	REF3000-16137	Potentiostat
VDC	POTEN	0.00000E+000	T	DC Voltage (V)
FREQINIT	QUANT	3.00000E+005	Initial Freq. (Hz)
FREQFINAL	QUANT	1.00000E+000	Final Freq. (Hz)
PTSPERDEC	QUANT	1.00000E+001	Points/decade
VAC	QUANT	5.00000E+001	AC Voltage (mV rms)
AREA	QUANT	1.00000E+000	Sample Area (cm^2)
SPEED	SELECTOR	2	Optimize for:
ZGUESS	QUANT	1.00000E+003	Estimated Z (ohms)
EOC	QUANT	0	Open Circuit (V)
SEQUENCER	TOGGLE	TRUE	Run as Sequence
PSTATMODEL	IQUANT	5	Pstat Model
PSTATSECTION	LABEL	REF3000-16137	Pstat Section
PSTATSERIALNO	LABEL	16137	Pstat Serial Number
CTRLMODE	IQUANT	1	Control Mode
IESTAB	IQUANT	0	I/E Stability
CASPEED	IQUANT	1	Control Amp Speed
CONVENTION	IQUANT	1	Current Convention
ICHRANGE	IQUANT	2	Ich Range
ICHRANGEMODE	TOGGLE	F	Ich Auto Range
ICHOFFSETENABLE	TOGGLE	T	Ich Offset Enable
ICHOFFSET	QUANT	0	Ich Offset (V)
ICHFILTER	IQUANT	3	Ich Filter
VCHRANGE	IQUANT	2	Vch Range
VCHRANGEMODE	TOGGLE	F	Vch Auto Range
VCHOFFSETENABLE	TOGGLE	T	Vch Offset Enable
VCHOFFSET	QUANT	0	Vch Offset (V)
VCHFILTER	IQUANT	3	Vch Filter
ACHRANGE	IQUANT	2	Ach Range
ACHOFFSETENABLE	TOGGLE	F	Ach Offset Enable
ACHOFFSET	QUANT	0	Ach Offset (V)
ACHFILTER	IQUANT	3	Ach Filter
IERANGELOWERLIMIT	IQUANT	2	I/E Range Lower Limit
IERANGEMODE	TOGGLE	F	I/E AutoRange
IERANGE	IQUANT	11	I/E Range
POSFEEDENABLE	TOGGLE	F	Positive Feedback IR Comp
POSFEEDRESISTANCE	QUANT	0	Positive Feedback Resistance (ohm)
ACHSELECT	IQUANT	0	Ach Select
CABLEID	IQUANT	13	Cable ID
DCCALDATE	LABEL	7/31/2020	DC Calibration Date
ACCALDATE	LABEL	7/31/2020	AC Calibration Date
THERMOSELECT	IQUANT	1	Thermo Select
FRAMEWORKVERSION	QUANT	6.33	Framework Version
INSTRUMENTVERSION	LABEL	3.50	Instrument Version
COMPLIANCEVOLTAGE	IQUANT	0	Compliance Voltage
ZCURVE	TABLE
	Pt	Time	Freq	Zreal	Zimag	Zsig	Zmod	Zphz	Idc	Vdc	IERange
	#	s	Hz	ohm	ohm	V	ohm	°	A	V	#
	0	7	300046.9	94.82988	-5.543872	1	94.99179	-3.345774	7.243052E-005	-0.0027874	9
	1	10	238359.4	95.7368	-7.368149	1	96.0199	-4.400955	2.625946E-005	1.856964E-005	9
	2	13	189328.1	96.5739	-8.878572	1	96.9812	-5.25275	-5.212887E-005	0.0007869	9
	3	15	150421.9	97.8305	-10.62803	1	98.4061	-6.200139	4.796063E-005	-0.0004301	9
	4	18	119484.4	98.9042	-12.92184	1	99.7448	-7.443536	-5.198062E-005	0.0009256	9
	5	20	94921.88	100.395	-15.17168	1	101.5349	-8.593509	2.293829E-005	-0.0003012	9
	6	23	75421.88	101.9983	-17.98106	1	103.5711	-9.99783	1.990948E-005	-0.000146	9
	7	26	59859.37	103.8855	-21.27097	1	106.0408	-11.5716	5.445222E-007	0.0004225	9
	8	28	47578.12	105.838	-24.74205	1	108.6915	-13.15791	-2.234465E-006	-0.0002601	9
	9	31	37828.12	107.9954	-28.9872	1	111.818	-15.02471	-2.399885E-006	-0.0002619	9
	10	33	30046.88	110.2477	-33.88763	1	115.3383	-17.08623	1.961122E-005	-0.0000983	9
	11	36	23859.38	112.6959	-39.84722	1	119.5331	-19.47267	-1.988745E-005	0.0007385	9
	12	38	18984.38	115.1506	-46.935	1	124.3485	-22.17564	2.053278E-005	-0.0002468	9
	13	40	15046.87	117.6916	-55.79787	1	130.2486	-25.36575	2.319538E-005	-0.0002623	9
	14	43	11953.13	120.0613	-66.60303	1	137.2978	-29.01896	-1.650702E-005	0.000368	9
	15	45	9515.62	122.4148	-80.19398	1	146.3436	-33.22882	-1.474888E-005	0.0001814	9
	16	47	7546.875	125.017	-97.3112	1	158.4257	-37.89661	-1.81568E-005	0.0005578	9
	17	50	5928.309	127.2988	-120.0851	1	175.0012	-43.32974	2.413171E-005	-0.0004545	9
	18	52	4733.456	130.0156	-146.8765	1	196.155	-48.48462	5.601653E-006	-0.0004874	9
	19	54	3796.875	132.8873	-179.4565	1	223.3017	-53.48011	-1.897947E-005	0.00052	9
	20	56	2987.132	136.4241	-224.6385	1	262.8193	-58.72948	2.370339E-005	-0.0005649	9
	21	59	2390.625	139.2658	-277.5636	1	310.5423	-63.35508	-5.142823E-006	0.0006551	9
	22	61	1884.191	144.6028	-348.7311	1	377.5226	-67.47846	-1.399003E-005	0.0001796	9
	23	63	1516.544	149.9132	-425.2812	1	450.9302	-70.58225	5.910701E-006	-0.0015673	8
	24	66	1193.986	158.1689	-534.1367	1	557.0632	-73.50489	-5.646074E-006	0.0024609	8
	25	68	946.5144	167.6662	-666.2183	1	686.9926	-75.87381	-5.66313E-006	0.0022021	8
	26	71	751.7689	179.529	-831.2032	1	850.3702	-77.81208	-2.982034E-006	0.0026606	8
	27	73	597.4265	193.7815	-1039.758	1	1057.661	-79.4428	1.047122E-006	0.0016849	8
	28	75	477.4305	213.8594	-1285.081	1	1302.754	-80.55159	2.193034E-007	0.0006488	8
	29	77	376.6741	240.2879	-1612.754	1	1630.556	-81.52571	2.139043E-007	0.0006511	8
	30	80	298.2954	274.2504	-2016.233	1	2034.8	-82.2541	2.124891E-007	0.000652	8
	31	82	237.7717	317.4129	-2504.371	1	2524.406	-82.77664	2.284238E-007	0.0006471	8
	32	85	189.0121	374.8041	-3118.365	1	3140.809	-83.14635	2.351373E-007	0.0006445	8
	33	87	150.2404	450.4282	-3881.194	1	3907.243	-83.3802	2.300245E-007	0.0006532	8
	34	89	119.1737	555.6454	-4846.883	1	4878.629	-83.46017	2.124291E-008	0.0006124	7
	35	92	95.0169	686.8828	-6007.795	1	6046.934	-83.47758	1.976081E-008	0.0006184	7
	36	94	75.60484	862.6068	-7454.062	1	7503.808	-83.39892	1.662972E-008	0.0006382	7
	37	97	54.50582	1221.182	-10138.18	1	10211.47	-83.1316	1.705816E-008	0.0006229	7
	38	99	45.95588	1467.141	-11882.21	1	11972.45	-82.96111	2.094413E-008	0.0006266	7
	39	102	37.20238	1851.717	-14458.76	1	14576.85	-82.70192	1.811004E-008	0.0006254	7
	40	104	30.04808	2370.69	-17651.57	1	17810.05	-82.35068	1.894991E-008	0.0006162	7
	41	106	23.91582	3051.728	-21730.38	1	21943.62	-82.00589	1.619862E-008	0.0006209	7
	42	109	18.60119	4118.346	-27457.61	1	27764.75	-81.46983	2.047143E-008	0.0006222	7
	43	111	15.02404	5299.609	-33390.45	1	33808.4	-80.98145	1.937477E-008	0.0006237	7
	44	113	12.01923	6976.958	-40935.96	1	41526.27	-80.32768	1.816173E-008	0.0006235	7
	45	116	9.450605	9486.254	-50866.71	1	51743.7	-79.43613	3.206444E-009	0.0006579	6
	46	118	7.512019	12748.42	-62430.45	1	63718.78	-78.45876	1.942911E-009	0.0006473	6
	47	121	5.978954	17224.63	-76270.25	1	78191.04	-77.27399	1.569789E-009	0.0006701	6
	48	124	4.734848	23441.93	-93117.74	1	96023.1	-75.86969	1.369595E-009	0.0006398	6
	49	127	3.75601	31818.33	-112883.2	1	117281.8	-74.25847	3.519437E-009	0.0006799	6
	50	131	3.004808	42342.3	-134887.8	1	141377.5	-72.57253	2.935769E-009	0.0006784	6
	51	136	2.372217	56981.4	-161425	1	171186.8	-70.55749	2.914145E-009	0.0006102	6
	52	141	1.878005	75011.8	-191494.7	1	205662.3	-68.60886	3.514092E-009	0.0006692	6
	53	145	1.512097	95046.4	-221944.8	1	241440.1	-66.81729	3.064625E-009	0.0006845	6
	54	151	1.201923	120107	-254068.9	1	281027.9	-64.69831	1.576998E-009	0.0006788	6
	55	157	0.956633	146964.2	-286887.6	1	322339.8	-62.87525	1.25657E-009	2.585099E-005	6
