EXPLAIN
TAG	EISPOT
TITLE	LABEL	Potentiostatic EIS	Test Identifier
DATE	LABEL	8/21/2020	Date
TIME	LABEL	21:47:05	Time
NOTES	NOTES	1	Notes...
	
PSTAT	PSTAT	REF3000-16137	Potentiostat
VDC	POTEN	0.00000E+000	T	DC Voltage (V)
FREQINIT	QUANT	3.00000E+005	Initial Freq. (Hz)
FREQFINAL	QUANT	1.00000E+000	Final Freq. (Hz)
PTSPERDEC	QUANT	1.00000E+001	Points/decade
VAC	QUANT	5.00000E+001	AC Voltage (mV rms)
AREA	QUANT	1.00000E+000	Sample Area (cm^2)
SPEED	SELECTOR	2	Optimize for:
ZGUESS	QUANT	1.00000E+003	Estimated Z (ohms)
EOC	QUANT	0	Open Circuit (V)
SEQUENCER	TOGGLE	TRUE	Run as Sequence
PSTATMODEL	IQUANT	5	Pstat Model
PSTATSECTION	LABEL	REF3000-16137	Pstat Section
PSTATSERIALNO	LABEL	16137	Pstat Serial Number
CTRLMODE	IQUANT	1	Control Mode
IESTAB	IQUANT	0	I/E Stability
CASPEED	IQUANT	1	Control Amp Speed
CONVENTION	IQUANT	1	Current Convention
ICHRANGE	IQUANT	2	Ich Range
ICHRANGEMODE	TOGGLE	F	Ich Auto Range
ICHOFFSETENABLE	TOGGLE	T	Ich Offset Enable
ICHOFFSET	QUANT	0	Ich Offset (V)
ICHFILTER	IQUANT	3	Ich Filter
VCHRANGE	IQUANT	2	Vch Range
VCHRANGEMODE	TOGGLE	F	Vch Auto Range
VCHOFFSETENABLE	TOGGLE	T	Vch Offset Enable
VCHOFFSET	QUANT	0	Vch Offset (V)
VCHFILTER	IQUANT	3	Vch Filter
ACHRANGE	IQUANT	2	Ach Range
ACHOFFSETENABLE	TOGGLE	F	Ach Offset Enable
ACHOFFSET	QUANT	0	Ach Offset (V)
ACHFILTER	IQUANT	3	Ach Filter
IERANGELOWERLIMIT	IQUANT	2	I/E Range Lower Limit
IERANGEMODE	TOGGLE	F	I/E AutoRange
IERANGE	IQUANT	11	I/E Range
POSFEEDENABLE	TOGGLE	F	Positive Feedback IR Comp
POSFEEDRESISTANCE	QUANT	0	Positive Feedback Resistance (ohm)
ACHSELECT	IQUANT	0	Ach Select
CABLEID	IQUANT	13	Cable ID
DCCALDATE	LABEL	7/31/2020	DC Calibration Date
ACCALDATE	LABEL	7/31/2020	AC Calibration Date
THERMOSELECT	IQUANT	1	Thermo Select
FRAMEWORKVERSION	QUANT	6.33	Framework Version
INSTRUMENTVERSION	LABEL	3.50	Instrument Version
COMPLIANCEVOLTAGE	IQUANT	0	Compliance Voltage
ZCURVE	TABLE
	Pt	Time	Freq	Zreal	Zimag	Zsig	Zmod	Zphz	Idc	Vdc	IERange
	#	s	Hz	ohm	ohm	V	ohm	°	A	V	#
	0	14	300046.9	2026.781	-1083.753	1	2298.339	-28.13415	2.458648E-005	0.0009552	9
	1	27	238359.4	2234.406	-1013.07	1	2453.341	-24.38933	2.61962E-005	-0.001553	9
	2	42	189328.1	2398.617	-854.9908	1	2546.443	-19.61869	8.714782E-005	-0.0032829	9
	3	52	150421.9	2556.177	-764.4716	1	2668.043	-16.65026	1.144535E-006	0.0015956	9
	4	59	119484.4	2681.09	-586.9072	1	2744.577	-12.34762	-1.33682E-005	0.0147637	8
	5	67	94921.88	2755.817	-492.861	1	2799.543	-10.1398	8.091652E-006	0.0034975	8
	6	72	75421.88	2833.706	-426.2716	1	2865.588	-8.554806	-2.15738E-005	0.0050066	8
	7	79	59859.37	2895.971	-377.2499	1	2920.439	-7.421964	7.919451E-006	0.0035786	8
	8	86	47578.12	2945.088	-332.2754	1	2963.773	-6.437094	-2.207121E-005	0.0050767	8
	9	93	37828.12	2992.475	-305.0739	1	3007.985	-5.821023	1.635524E-005	7.747116E-005	8
	10	99	30046.88	3046.074	-278.0078	1	3058.734	-5.2148	6.565272E-006	-0.0067852	8
	11	104	23859.38	3078.637	-269.3243	1	3090.395	-4.999603	6.538959E-006	-0.0068112	8
	12	109	18984.38	3131.748	-261.9021	1	3142.68	-4.780413	8.110461E-006	0.0037019	8
	13	115	15046.87	3198.496	-278.3438	1	3210.585	-4.97354	1.916908E-005	-0.0009538	9
	14	120	11953.13	3236.32	-293.2257	1	3249.576	-5.17713	-1.045443E-005	0.0092021	8
	15	125	9515.62	3288.949	-320.0884	1	3304.488	-5.558657	6.710382E-006	-0.0068187	8
	16	130	7546.875	3350.96	-362.127	1	3370.47	-6.167825	-2.433528E-005	0.0089838	8
	17	135	5928.309	3404.226	-417.0387	1	3429.675	-6.984287	-2.21543E-005	0.0100742	8
	18	141	4733.456	3471.659	-474.9391	1	3503.995	-7.789973	-8.950533E-006	-0.0001901	9
	19	146	3796.875	3569.802	-526.6451	1	3608.44	-8.392189	-2.424793E-005	0.008957	8
	20	152	2987.132	3695.24	-597.9736	1	3743.31	-9.192072	8.109188E-006	0.0036846	8
	21	157	2390.625	3802.904	-700.5061	1	3866.883	-10.43706	1.377351E-005	-0.008297	8
	22	162	1884.191	3883.267	-769.0549	1	3958.688	-11.20209	-1.481624E-006	0.006993	8
	23	168	1516.544	3986.313	-881.4412	1	4082.6	-12.46845	-4.021674E-006	0.022224	7
	24	171	1193.986	4085.516	-1031.76	1	4213.783	-14.17318	2.37699E-005	-0.0082551	8
	25	176	946.5144	4244.094	-1171.709	1	4402.867	-15.43376	-1.478735E-005	0.0007804	8
	26	180	751.7689	4347.287	-1455.177	1	4584.37	-18.50706	7.555647E-006	0.0038703	8
	27	184	597.4265	4420.818	-1621.72	1	4708.886	-20.14491	-2.401389E-005	0.007004	8
	28	188	477.4305	4553.026	-1871.782	1	4922.765	-22.34791	-3.684883E-007	0.0006472	8
	29	191	376.6741	4672.313	-2227.815	1	5176.26	-25.49237	-7.396316E-008	0.0005831	7
	30	193	298.2954	4769.257	-2674.367	1	5467.911	-29.28159	-8.199489E-008	0.0006217	7
	31	196	237.7717	4862.612	-3225.145	1	5834.943	-33.55447	-7.767924E-008	0.0005761	7
	32	198	189.0121	4956.577	-3930.752	1	6326.015	-38.41574	-7.668962E-008	0.0006231	7
	33	200	150.2404	5054.287	-4823.49	1	6986.55	-43.66151	-7.475823E-008	0.0005953	7
	34	203	119.1737	5165.774	-5964.085	1	7890.218	-49.10262	-8.265565E-008	0.0006609	7
	35	205	95.0169	5288.733	-7360.685	1	9063.685	-54.30234	-7.839234E-008	0.0006367	7
	36	208	75.60484	5438.302	-9127.595	1	10624.88	-59.21314	-7.518138E-008	0.0005745	7
	37	210	54.50582	5702.167	-12449.66	1	13693.39	-65.39138	-8.231948E-008	0.0006553	7
	38	213	45.95588	5889.414	-14656.36	1	15795.38	-68.10809	-7.611496E-008	0.0005725	7
	39	215	37.20238	6160.65	-17935.79	1	18964.34	-71.04324	-8.315742E-008	0.0006479	7
	40	218	30.04808	6505.339	-21996.69	1	22938.47	-73.52485	-7.667085E-008	0.0005743	7
	41	220	23.91582	6970.834	-27366.78	1	28240.63	-75.70957	-8.289101E-008	0.0006556	7
	42	222	18.60119	7639.15	-34808.89	1	35637.27	-77.62211	-8.408728E-008	0.0006558	7
	43	225	15.02404	8403.017	-42707.09	1	43525.93	-78.86871	-7.474107E-008	0.0005895	7
	44	227	12.01923	9425.217	-52866.34	1	53699.95	-79.8913	-8.250042E-009	0.0006277	6
	45	229	9.450605	10829.88	-66447.02	1	67323.79	-80.74303	-8.363341E-009	0.0006092	6
	46	232	7.512019	12654.56	-82585.87	1	83549.77	-81.28838	-8.811947E-009	0.0006998	6
	47	235	5.978954	14970.48	-102447.6	1	103535.6	-81.68632	-8.877954E-009	0.0007018	6
	48	238	4.734848	18114.84	-127727.9	1	129006	-81.92793	-9.246675E-009	0.0006603	6
	49	241	3.75601	22228.42	-158666.2	1	160215.7	-82.02502	-8.828662E-009	0.000711	6
	50	246	3.004808	27308.21	-195358.1	1	197257.5	-82.04245	-8.747028E-009	0.0007207	6
	51	253	2.372217	34499.7	-243104	1	245539.8	-81.9229	-9.014108E-009	0.0006522	6
	52	257	1.878005	43722.3	-302615.5	1	305757.7	-81.77872	-8.608738E-009	0.0006468	6
	53	262	1.512097	53838.68	-369402.1	1	373304.8	-81.70779	-8.9303E-009	0.0007336	6
	54	267	1.201923	69468.95	-457855.9	1	463096.1	-81.37251	-8.350089E-010	0.0006454	5
	55	273	0.956633	88267.61	-564389.9	1	571250.6	-81.11124	-1.174825E-009	5.343024E-006	5
