EXPLAIN
TAG	EISPOT
TITLE	LABEL	Potentiostatic EIS	Test Identifier
DATE	LABEL	8/21/2020	Date
TIME	LABEL	21:19:06	Time
NOTES	NOTES	1	Notes...
	
PSTAT	PSTAT	REF3000-16137	Potentiostat
VDC	POTEN	0.00000E+000	T	DC Voltage (V)
FREQINIT	QUANT	3.00000E+005	Initial Freq. (Hz)
FREQFINAL	QUANT	1.00000E+000	Final Freq. (Hz)
PTSPERDEC	QUANT	1.00000E+001	Points/decade
VAC	QUANT	5.00000E+001	AC Voltage (mV rms)
AREA	QUANT	1.00000E+000	Sample Area (cm^2)
SPEED	SELECTOR	2	Optimize for:
ZGUESS	QUANT	1.00000E+003	Estimated Z (ohms)
EOC	QUANT	0	Open Circuit (V)
SEQUENCER	TOGGLE	TRUE	Run as Sequence
PSTATMODEL	IQUANT	5	Pstat Model
PSTATSECTION	LABEL	REF3000-16137	Pstat Section
PSTATSERIALNO	LABEL	16137	Pstat Serial Number
CTRLMODE	IQUANT	1	Control Mode
IESTAB	IQUANT	0	I/E Stability
CASPEED	IQUANT	1	Control Amp Speed
CONVENTION	IQUANT	1	Current Convention
ICHRANGE	IQUANT	2	Ich Range
ICHRANGEMODE	TOGGLE	F	Ich Auto Range
ICHOFFSETENABLE	TOGGLE	T	Ich Offset Enable
ICHOFFSET	QUANT	0	Ich Offset (V)
ICHFILTER	IQUANT	3	Ich Filter
VCHRANGE	IQUANT	2	Vch Range
VCHRANGEMODE	TOGGLE	F	Vch Auto Range
VCHOFFSETENABLE	TOGGLE	T	Vch Offset Enable
VCHOFFSET	QUANT	0	Vch Offset (V)
VCHFILTER	IQUANT	3	Vch Filter
ACHRANGE	IQUANT	2	Ach Range
ACHOFFSETENABLE	TOGGLE	F	Ach Offset Enable
ACHOFFSET	QUANT	0	Ach Offset (V)
ACHFILTER	IQUANT	3	Ach Filter
IERANGELOWERLIMIT	IQUANT	2	I/E Range Lower Limit
IERANGEMODE	TOGGLE	F	I/E AutoRange
IERANGE	IQUANT	11	I/E Range
POSFEEDENABLE	TOGGLE	F	Positive Feedback IR Comp
POSFEEDRESISTANCE	QUANT	0	Positive Feedback Resistance (ohm)
ACHSELECT	IQUANT	0	Ach Select
CABLEID	IQUANT	13	Cable ID
DCCALDATE	LABEL	7/31/2020	DC Calibration Date
ACCALDATE	LABEL	7/31/2020	AC Calibration Date
THERMOSELECT	IQUANT	1	Thermo Select
FRAMEWORKVERSION	QUANT	6.33	Framework Version
INSTRUMENTVERSION	LABEL	3.50	Instrument Version
COMPLIANCEVOLTAGE	IQUANT	0	Compliance Voltage
ZCURVE	TABLE
	Pt	Time	Freq	Zreal	Zimag	Zsig	Zmod	Zphz	Idc	Vdc	IERange
	#	s	Hz	ohm	ohm	V	ohm	°	A	V	#
	0	7	300046.9	104.5227	-5.76095	1	104.6813	-3.154765	7.328818E-005	-0.0028688	9
	1	10	238359.4	107.7748	-7.600722	1	108.0425	-4.034054	-5.173741E-006	0.0009276	9
	2	13	189328.1	110.9476	-9.422686	1	111.347	-4.854434	1.300024E-005	0.0007905	9
	3	16	150421.9	113.9974	-11.38461	1	114.5645	-5.703063	-1.428571E-006	0.001103	9
	4	19	119484.4	117.0546	-13.67578	1	117.8507	-6.663802	-1.286491E-006	0.0011569	9
	5	21	94921.88	120.6159	-16.22309	1	121.702	-7.660432	6.804289E-006	-0.0005716	9
	6	24	75421.88	124.4517	-19.30708	1	125.9404	-8.818407	-2.093287E-005	0.0006436	9
	7	26	59859.37	128.7891	-22.96615	1	130.8208	-10.11092	4.253131E-006	-0.0005518	9
	8	29	47578.12	133.0218	-26.85458	1	135.7054	-11.41352	-1.5634E-005	0.0009253	9
	9	31	37828.12	137.9753	-31.61736	1	141.5516	-12.90662	2.367175E-005	-0.0002608	9
	10	34	30046.88	143.154	-36.88584	1	147.8297	-14.44886	-2.961126E-006	-0.0002925	9
	11	36	23859.38	148.4337	-43.19688	1	154.5916	-16.22594	2.353863E-005	-0.000257	9
	12	39	18984.38	153.8877	-50.52277	1	161.969	-18.17549	2.470041E-005	-0.0004694	9
	13	41	15046.87	159.7081	-59.57801	1	170.4589	-20.45768	-9.902243E-006	-5.486146E-006	9
	14	43	11953.13	165.5562	-70.16829	1	179.8123	-22.96886	2.442817E-005	-0.0003783	9
	15	45	9515.62	171.295	-83.13009	1	190.4011	-25.88747	-1.998408E-005	0.0005216	9
	16	48	7546.875	177.3207	-99.6759	1	203.4156	-29.3413	1.979784E-005	-0.0007774	9
	17	50	5928.309	182.978	-120.9623	1	219.3464	-33.46774	-1.788237E-005	0.0003763	9
	18	52	4733.456	188.6526	-146.3092	1	238.7387	-37.79531	-6.946858E-006	0.0007953	9
	19	55	3796.875	194.5378	-176.7117	1	262.8156	-42.25097	1.403264E-005	-0.0007368	9
	20	57	2987.132	201.6576	-220.2905	1	298.6531	-47.52848	-2.233654E-005	0.0006817	9
	21	61	2390.625	208.5006	-269.8485	1	341.0142	-52.30825	1.462842E-005	-0.0007376	9
	22	63	1884.191	216.1467	-337.0793	1	400.4271	-57.33064	-2.027112E-005	0.0004732	9
	23	65	1516.544	222.7346	-411.1026	1	467.5639	-61.55125	-4.402072E-006	0.0004701	8
	24	68	1193.986	231.5251	-517.2062	1	566.6622	-65.88453	9.104395E-006	-0.0016893	8
	25	70	946.5144	243.179	-644.4834	1	688.8359	-69.32731	1.388249E-006	-0.0015586	8
	26	72	751.7689	254.3057	-804.1628	1	843.4152	-72.45114	9.714854E-007	0.0023598	8
	27	75	597.4265	271.6762	-1001.298	1	1037.5	-74.81974	6.419854E-006	-0.0025026	8
	28	77	477.4305	289.9363	-1244.639	1	1277.963	-76.88691	9.084164E-008	0.000645	8
	29	79	376.6741	315.6366	-1563.229	1	1594.776	-78.5847	9.210846E-008	0.000641	8
	30	82	298.2954	348.3854	-1956.337	1	1987.115	-79.90259	9.119677E-008	0.0006425	8
	31	84	237.7717	389.6772	-2432.475	1	2463.49	-80.89867	9.210085E-008	0.0006462	8
	32	86	189.0121	444.022	-3032.232	1	3064.57	-81.66916	1.098525E-007	0.000637	8
	33	89	150.2404	515.212	-3777.79	1	3812.76	-82.23396	1.077616E-007	0.000633	8
	34	91	119.1737	612.5363	-4723.769	1	4763.317	-82.61162	1.771493E-009	0.0006344	7
	35	94	95.0169	737.1653	-5860.121	1	5906.304	-82.83022	2.660825E-009	0.000605	7
	36	96	75.60484	902.0937	-7278.51	1	7334.199	-82.93483	4.736512E-010	0.0006207	7
	37	99	54.50582	1237.026	-9911.12	1	9988.02	-82.8856	6.044343E-011	0.0006082	7
	38	101	45.95588	1467.863	-11628.89	1	11721.16	-82.80585	4.529442E-009	0.0006121	7
	39	103	37.20238	1830.078	-14164.25	1	14281.98	-82.63794	2.65607E-010	0.0006117	7
	40	106	30.04808	2299.541	-17272.98	1	17425.38	-82.41684	3.645768E-010	0.0006132	7
	41	108	23.91582	2952.622	-21341.76	1	21545.04	-82.12316	-3.622416E-009	0.0006226	7
	42	111	18.60119	3898.556	-26924.14	1	27204.93	-81.76096	-1.857514E-009	0.0006238	7
	43	113	15.02404	4975.94	-32777.63	1	33153.18	-81.36789	-4.569521E-010	0.0006156	7
	44	115	12.01923	6450.175	-40237.14	1	40750.85	-80.89274	-1.417784E-009	0.0006189	7
	45	118	9.450605	8648.55	-50091.32	1	50832.45	-80.20414	2.046758E-009	0.0006585	6
	46	120	7.512019	11510.65	-61661.21	1	62726.39	-79.42598	1.753023E-009	0.0006652	6
	47	123	5.978954	15359.3	-75578.91	1	77123.8	-78.51266	1.725293E-009	0.0006498	6
	48	126	4.734848	20799.83	-92857.66	1	95158.7	-77.37433	5.978427E-010	0.0006562	6
	49	129	3.75601	28027.09	-113300.9	1	116716	-76.10574	8.458093E-010	0.0006696	6
	50	133	3.004808	37386.79	-136482	1	141510.1	-74.68066	-2.77917E-010	0.0007003	6
	51	139	2.372217	50426.18	-165436	1	172950.5	-73.04837	8.114614E-011	0.0007644	6
	52	143	1.878005	67368.65	-198390.9	1	209517.3	-71.24378	4.34173E-011	0.000644	6
	53	147	1.512097	87114.34	-232905.6	1	248664.3	-69.49255	-3.490387E-010	0.0007441	6
	54	153	1.201923	112876.5	-274986.7	1	297252.1	-67.68284	2.888309E-011	0.0006316	6
	55	159	0.956633	143679.3	-321653.2	1	352284.7	-65.93015	-1.222152E-009	3.129326E-005	6
