EXPLAIN
TAG	EISPOT
TITLE	LABEL	Potentiostatic EIS	Test Identifier
DATE	LABEL	8/21/2020	Date
TIME	LABEL	22:11:33	Time
NOTES	NOTES	1	Notes...
	
PSTAT	PSTAT	REF3000-16137	Potentiostat
VDC	POTEN	0.00000E+000	T	DC Voltage (V)
FREQINIT	QUANT	3.00000E+005	Initial Freq. (Hz)
FREQFINAL	QUANT	1.00000E+000	Final Freq. (Hz)
PTSPERDEC	QUANT	1.00000E+001	Points/decade
VAC	QUANT	5.00000E+001	AC Voltage (mV rms)
AREA	QUANT	1.00000E+000	Sample Area (cm^2)
SPEED	SELECTOR	2	Optimize for:
ZGUESS	QUANT	1.00000E+003	Estimated Z (ohms)
EOC	QUANT	0	Open Circuit (V)
SEQUENCER	TOGGLE	TRUE	Run as Sequence
PSTATMODEL	IQUANT	5	Pstat Model
PSTATSECTION	LABEL	REF3000-16137	Pstat Section
PSTATSERIALNO	LABEL	16137	Pstat Serial Number
CTRLMODE	IQUANT	1	Control Mode
IESTAB	IQUANT	0	I/E Stability
CASPEED	IQUANT	1	Control Amp Speed
CONVENTION	IQUANT	1	Current Convention
ICHRANGE	IQUANT	2	Ich Range
ICHRANGEMODE	TOGGLE	F	Ich Auto Range
ICHOFFSETENABLE	TOGGLE	T	Ich Offset Enable
ICHOFFSET	QUANT	0	Ich Offset (V)
ICHFILTER	IQUANT	3	Ich Filter
VCHRANGE	IQUANT	2	Vch Range
VCHRANGEMODE	TOGGLE	F	Vch Auto Range
VCHOFFSETENABLE	TOGGLE	T	Vch Offset Enable
VCHOFFSET	QUANT	0	Vch Offset (V)
VCHFILTER	IQUANT	3	Vch Filter
ACHRANGE	IQUANT	2	Ach Range
ACHOFFSETENABLE	TOGGLE	F	Ach Offset Enable
ACHOFFSET	QUANT	0	Ach Offset (V)
ACHFILTER	IQUANT	3	Ach Filter
IERANGELOWERLIMIT	IQUANT	2	I/E Range Lower Limit
IERANGEMODE	TOGGLE	F	I/E AutoRange
IERANGE	IQUANT	11	I/E Range
POSFEEDENABLE	TOGGLE	F	Positive Feedback IR Comp
POSFEEDRESISTANCE	QUANT	0	Positive Feedback Resistance (ohm)
ACHSELECT	IQUANT	0	Ach Select
CABLEID	IQUANT	13	Cable ID
DCCALDATE	LABEL	7/31/2020	DC Calibration Date
ACCALDATE	LABEL	7/31/2020	AC Calibration Date
THERMOSELECT	IQUANT	1	Thermo Select
FRAMEWORKVERSION	QUANT	6.33	Framework Version
INSTRUMENTVERSION	LABEL	3.50	Instrument Version
COMPLIANCEVOLTAGE	IQUANT	0	Compliance Voltage
ZCURVE	TABLE
	Pt	Time	Freq	Zreal	Zimag	Zsig	Zmod	Zphz	Idc	Vdc	IERange
	#	s	Hz	ohm	ohm	V	ohm	°	A	V	#
	0	27	300046.9	73.79153	-4769.426	1	4769.997	-89.1136	6.191929E-007	-0.0021744	9
	1	45	238359.4	220.1443	-5820.163	1	5824.325	-87.83385	2.44881E-005	-0.0016	9
	2	66	189328.1	523.1367	-7477.795	1	7496.072	-85.99818	-2.88915E-005	-0.0011246	9
	3	73	150421.9	685.7185	-9119.209	1	9144.954	-85.69974	2.414149E-005	0.0011579	9
	4	81	119484.4	1092.267	-11358.55	1	11410.95	-84.50719	6.940948E-005	-0.0135893	8
	5	88	94921.88	1822.981	-14225.95	1	14342.27	-82.69764	2.72988E-005	-0.0073863	8
	6	97	75421.88	2444.496	-17796.86	1	17963.96	-82.17905	-2.620965E-005	0.0075639	8
	7	105	59859.37	3799.807	-22120.83	1	22444.82	-80.25314	-9.326059E-007	-0.0052802	8
	8	114	47578.12	8332.862	-28371.89	1	29570.27	-73.63242	-1.843504E-006	0.0220638	7
	9	120	37828.12	10516.48	-34958.66	1	36506.22	-73.25734	7.624974E-006	-0.0187016	7
	10	128	30046.88	13935.5	-42535.03	1	44759.66	-71.85996	-7.468053E-006	0.0190381	7
	11	135	23859.38	19437.79	-51540.35	1	55083.89	-69.33667	-7.299342E-006	0.0235167	7
	12	141	18984.38	25682	-62277.87	1	67365.41	-67.58984	6.876079E-006	-0.0271558	7
	13	146	15046.87	36505.23	-73264.74	1	81855.7	-63.51455	-7.317661E-006	0.0236323	7
	14	151	11953.13	49159.91	-85739.46	1	98833	-60.1716	6.931984E-006	-0.0271063	7
	15	158	9515.62	66643.34	-96346.4	1	117149.3	-55.32817	7.597887E-006	-0.0183382	7
	16	163	7546.875	90652.94	-106300.8	1	139706.2	-49.54257	-2.51263E-005	0.0110565	8
	17	171	5928.309	94426.44	-124354.5	1	156142.3	-52.78942	-1.069763E-006	-0.005187	8
	18	177	4733.456	161666.4	-101983.5	1	191145.7	-32.24484	-7.422276E-007	0.0175761	6
	19	183	3796.875	181563.5	-96188.5	1	205469	-27.9137	1.647006E-007	-0.0211258	6
	20	187	2987.132	199999.8	-85624.67	1	217558	-23.17692	-6.900895E-007	0.02636	6
	21	192	2390.625	209314	-78294.97	1	223478.1	-20.50856	-1.382974E-009	0.0177657	6
	22	196	1884.191	229206.9	-71436.93	1	240081.3	-17.31069	-2.170182E-007	0.0225824	6
	23	200	1516.544	239841.4	-58258.27	1	246815.6	-13.65292	7.287064E-007	-0.0272104	6
	24	206	1193.986	246456.1	-50806.04	1	251638.3	-11.64815	-7.512194E-007	0.0232353	6
	25	211	946.5144	265069.6	-48895.89	1	269541.7	-10.45154	-2.823398E-007	-0.007325	6
	26	215	751.7689	305355	-85364.91	1	317062.8	-15.61884	-3.856693E-006	0.0257404	7
	27	220	597.4265	208663.3	-70891.03	1	220376.8	-18.76462	-5.313064E-006	0.0267178	7
	28	225	477.4305	277567.6	-35379.16	1	279813.2	-7.263835	-9.10508E-008	0.0005681	7
	29	228	376.6741	283530	-28961.47	1	285005.3	-5.832308	-9.389172E-009	0.0006077	6
	30	231	298.2954	287921	-27062.62	1	289190	-5.369639	-9.91844E-009	0.0006599	6
	31	234	237.7717	291554.4	-26787.63	1	292782.4	-5.249522	-1.050002E-008	0.000676	6
	32	236	189.0121	296004.3	-27383.07	1	297268.2	-5.285334	-1.027265E-008	0.0006718	6
	33	239	150.2404	300933.1	-29012.53	1	302328.4	-5.506784	-1.021529E-008	0.0006956	6
	34	241	119.1737	308136	-27762.37	1	309384.2	-5.148322	-1.095063E-008	0.0007222	6
	35	244	95.0169	311127.5	-34555.06	1	313040.5	-6.337524	-9.271039E-009	0.000624	6
	36	246	75.60484	317010.9	-38488.93	1	319338.8	-6.922514	-9.341734E-009	0.0006214	6
	37	249	54.50582	327684.9	-45755.82	1	330864	-7.94902	-1.004898E-008	0.0006915	6
	38	251	45.95588	332230.3	-50733.31	1	336081.7	-8.682293	-8.846501E-009	0.000614	6
	39	254	37.20238	340393.5	-57177.23	1	345162.3	-9.53518	-1.074314E-008	0.0007016	6
	40	256	30.04808	349232.3	-64534.59	1	355144.9	-10.46958	-1.013925E-008	0.0006926	6
	41	259	23.91582	359506.6	-73183.41	1	366879.8	-11.50627	-9.79751E-009	0.0007032	6
	42	262	18.60119	372025.8	-83389.18	1	381257.1	-12.63396	4.555143E-010	0.0005893	5
	43	264	15.02404	382820.1	-94158.4	1	394229.7	-13.81817	-8.967262E-010	0.0006994	5
	44	267	12.01923	393808.6	-108083	1	408371.4	-15.34725	-5.339882E-010	0.0006109	5
	45	269	9.450605	405898.4	-125372.9	1	424819.8	-17.16474	-2.219795E-009	0.0006007	5
	46	272	7.512019	418411.3	-146862.1	1	443437.1	-19.34105	-1.620252E-009	0.0006098	5
	47	275	5.978954	432986.7	-172123.7	1	465944.2	-21.67914	-1.076487E-009	0.0006238	5
	48	279	4.734848	446615.5	-204076.7	1	491032.3	-24.55758	-1.184823E-009	0.0006704	5
	49	282	3.75601	462088	-245028.8	1	523033.8	-27.93541	-1.135265E-009	0.0006609	5
	50	288	3.004808	479831	-294539.8	1	563019.9	-31.54329	-1.013532E-009	0.0006025	5
	51	294	2.372217	497484.3	-360659.1	1	614463.7	-35.94083	-1.168353E-009	0.0006012	5
	52	298	1.878005	513787.7	-443392.6	1	678656.6	-40.7938	-1.140484E-009	0.0006808	5
	53	303	1.512097	532344.6	-539645.6	1	758029.1	-45.39022	-1.150996E-009	0.0005324	5
	54	308	1.201923	553265.1	-668133.5	1	867470.3	-50.37267	-1.135444E-009	0.0006981	5
	55	315	0.956633	577720.6	-827900.2	1	1009544	-55.09211	-1.118008E-009	-1.100153E-006	5
