EXPLAIN
TAG	EISPOT
TITLE	LABEL	Potentiostatic EIS	Test Identifier
DATE	LABEL	8/21/2020	Date
TIME	LABEL	22:01:14	Time
NOTES	NOTES	1	Notes...
	
PSTAT	PSTAT	REF3000-16137	Potentiostat
VDC	POTEN	0.00000E+000	T	DC Voltage (V)
FREQINIT	QUANT	3.00000E+005	Initial Freq. (Hz)
FREQFINAL	QUANT	1.00000E+000	Final Freq. (Hz)
PTSPERDEC	QUANT	1.00000E+001	Points/decade
VAC	QUANT	5.00000E+001	AC Voltage (mV rms)
AREA	QUANT	1.00000E+000	Sample Area (cm^2)
SPEED	SELECTOR	2	Optimize for:
ZGUESS	QUANT	1.00000E+003	Estimated Z (ohms)
EOC	QUANT	0	Open Circuit (V)
SEQUENCER	TOGGLE	TRUE	Run as Sequence
PSTATMODEL	IQUANT	5	Pstat Model
PSTATSECTION	LABEL	REF3000-16137	Pstat Section
PSTATSERIALNO	LABEL	16137	Pstat Serial Number
CTRLMODE	IQUANT	1	Control Mode
IESTAB	IQUANT	0	I/E Stability
CASPEED	IQUANT	1	Control Amp Speed
CONVENTION	IQUANT	1	Current Convention
ICHRANGE	IQUANT	2	Ich Range
ICHRANGEMODE	TOGGLE	F	Ich Auto Range
ICHOFFSETENABLE	TOGGLE	T	Ich Offset Enable
ICHOFFSET	QUANT	0	Ich Offset (V)
ICHFILTER	IQUANT	3	Ich Filter
VCHRANGE	IQUANT	2	Vch Range
VCHRANGEMODE	TOGGLE	F	Vch Auto Range
VCHOFFSETENABLE	TOGGLE	T	Vch Offset Enable
VCHOFFSET	QUANT	0	Vch Offset (V)
VCHFILTER	IQUANT	3	Vch Filter
ACHRANGE	IQUANT	2	Ach Range
ACHOFFSETENABLE	TOGGLE	F	Ach Offset Enable
ACHOFFSET	QUANT	0	Ach Offset (V)
ACHFILTER	IQUANT	3	Ach Filter
IERANGELOWERLIMIT	IQUANT	2	I/E Range Lower Limit
IERANGEMODE	TOGGLE	F	I/E AutoRange
IERANGE	IQUANT	11	I/E Range
POSFEEDENABLE	TOGGLE	F	Positive Feedback IR Comp
POSFEEDRESISTANCE	QUANT	0	Positive Feedback Resistance (ohm)
ACHSELECT	IQUANT	0	Ach Select
CABLEID	IQUANT	13	Cable ID
DCCALDATE	LABEL	7/31/2020	DC Calibration Date
ACCALDATE	LABEL	7/31/2020	AC Calibration Date
THERMOSELECT	IQUANT	1	Thermo Select
FRAMEWORKVERSION	QUANT	6.33	Framework Version
INSTRUMENTVERSION	LABEL	3.50	Instrument Version
COMPLIANCEVOLTAGE	IQUANT	0	Compliance Voltage
ZCURVE	TABLE
	Pt	Time	Freq	Zreal	Zimag	Zsig	Zmod	Zphz	Idc	Vdc	IERange
	#	s	Hz	ohm	ohm	V	ohm	°	A	V	#
	0	14	300046.9	1134.162	-4535.581	1	4675.234	-75.96059	2.530285E-005	-0.0023361	9
	1	30	238359.4	1948.151	-5342.397	1	5686.519	-69.96519	2.442726E-005	0.0009978	9
	2	44	189328.1	2311.098	-6434.383	1	6836.845	-70.24276	7.877618E-005	-0.0015742	9
	3	52	150421.9	3515.605	-7336.702	1	8135.519	-64.39716	4.903456E-005	0.0002332	9
	4	59	119484.4	5010.821	-8697.15	1	10037.37	-60.05181	-0.0001065	0.003815	9
	5	69	94921.88	7042.608	-9542.02	1	11859.54	-53.57036	2.559325E-005	-0.0088955	8
	6	77	75421.88	9048.002	-10220.04	1	13649.75	-48.4809	2.565527E-005	-0.0050589	8
	7	86	59859.37	11531.94	-10589.92	1	15656.69	-42.56163	-1.220891E-006	-0.005041	8
	8	95	47578.12	15731.61	-9553.56	1	18405.27	-31.26965	1.41465E-007	0.016685	7
	9	101	37828.12	17702.68	-8933.021	1	19828.86	-26.77616	-5.408732E-006	0.0261568	7
	10	107	30046.88	19398.42	-8194.111	1	21058.07	-22.89974	-7.178028E-006	0.0179652	7
	11	114	23859.38	21294.89	-6841.596	1	22366.93	-17.81111	1.300576E-006	-0.0194178	7
	12	118	18984.38	21887.41	-6350.133	1	22789.98	-16.17888	-6.499781E-006	0.0111	7
	13	122	15046.87	22923.29	-5389.161	1	23548.25	-13.22974	6.582588E-006	-0.0094226	7
	14	126	11953.13	23551.44	-4701.217	1	24016.07	-11.28871	-5.389568E-006	0.0261703	7
	15	131	9515.62	24451.04	-3835.144	1	24749.99	-8.914208	2.490643E-006	0.0096373	7
	16	136	7546.875	24979.77	-3423.459	1	25213.27	-7.803729	-5.087879E-006	0.0028557	7
	17	141	5928.309	25414.97	-3136.438	1	25607.77	-7.035247	-9.015725E-007	-0.0136197	7
	18	147	4733.456	26109.81	-2361.776	1	26216.41	-5.168653	-9.503539E-006	-0.0020922	8
	19	153	3796.875	26697.38	-2379.252	1	26803.19	-5.092705	-1.974493E-006	0.0221873	7
	20	159	2987.132	27514.96	-2232.279	1	27605.36	-4.638227	-3.170348E-006	-0.0057623	7
	21	164	2390.625	27052.91	-2037.406	1	27129.52	-4.306924	-1.186325E-005	0.0102484	8
	22	170	1884.191	28536.64	-2614.225	1	28656.13	-5.234222	2.572639E-006	0.0089465	7
	23	176	1516.544	29460.95	-2278.061	1	29548.9	-4.421584	-2.62807E-005	0.0075828	8
	24	182	1193.986	29743.84	-3835.113	1	29990.07	-7.34707	-1.969108E-005	0.0112329	8
	25	189	946.5144	30258.59	-88.37872	1	30258.72	-0.167348	1.74594E-005	0.0001836	8
	26	195	751.7689	31894.03	3313.347	1	32065.67	5.93096	1.763277E-005	0.0001986	8
	27	201	597.4265	33069.23	-4801.571	1	33416	-8.261473	2.643303E-005	-0.009082	8
	28	207	477.4305	32905.75	-4766.558	1	33249.19	-8.242242	-4.019362E-007	0.0006361	8
	29	210	376.6741	33753.63	-5412.635	1	34184.86	-9.110226	-8.526859E-008	0.0005752	7
	30	212	298.2954	34536.49	-6187.233	1	35086.34	-10.15683	-8.774406E-008	0.0006366	7
	31	215	237.7717	35392.41	-7050.241	1	36087.79	-11.26597	-9.35518E-008	0.000667	7
	32	217	189.0121	36330.56	-8036.757	1	37208.86	-12.47364	-9.44526E-008	0.0006246	7
	33	220	150.2404	37459.44	-9027.573	1	38531.89	-13.54968	-9.315801E-009	0.0006102	6
	34	222	119.1737	38528.98	-10457.62	1	39922.98	-15.1855	-1.050086E-008	0.0007118	6
	35	224	95.0169	39542.27	-12023.34	1	41329.8	-16.91257	-9.577329E-009	0.0006239	6
	36	227	75.60484	40614.82	-13963.85	1	42948.25	-18.97358	-9.359209E-009	0.0006357	6
	37	229	54.50582	42003.27	-17488.12	1	45498.45	-22.60447	-9.44464E-009	0.0006301	6
	38	232	45.95588	42826.33	-19860.12	1	47207.2	-24.87886	-9.634312E-009	0.0006122	6
	39	234	37.20238	43735.8	-23383.7	1	49594.53	-28.13155	-9.620724E-009	0.0006671	6
	40	237	30.04808	44615.87	-27808.52	1	52572.71	-31.93477	-9.518041E-009	0.0006987	6
	41	239	23.91582	45599.15	-33766.57	1	56740.32	-36.52027	-1.059602E-008	0.0006998	6
	42	241	18.60119	46676.4	-42215.34	1	62935.06	-42.12701	-8.587251E-009	0.0006166	6
	43	244	15.02404	47601.69	-51202.77	1	69911.7	-47.08731	-1.031739E-008	0.0006734	6
	44	246	12.01923	48718.56	-62902.79	1	79562.93	-52.24202	-9.635436E-009	0.0006963	6
	45	248	9.450605	50115.14	-78901.34	1	93471.65	-57.57784	-9.596325E-009	0.0007102	6
	46	251	7.512019	51817.54	-98079.6	1	110926.4	-62.15155	-9.71899E-009	0.00064	6
	47	254	5.978954	53811.97	-121878	1	133229	-66.17742	-9.618221E-009	0.0006201	6
	48	257	4.734848	56410.93	-152371.7	1	162478.7	-69.68448	-9.080222E-009	0.0006005	6
	49	260	3.75601	59777.91	-190367.9	1	199532.8	-72.56706	-1.036941E-008	0.0007227	6
	50	266	3.004808	64063.82	-235868.7	1	244414	-74.80459	-1.006806E-008	0.0006571	6
	51	272	2.372217	69240.47	-295981.2	1	303972.3	-76.83327	-9.765344E-009	0.0006079	6
	52	276	1.878005	76357.69	-370691.3	1	378474	-78.3606	-9.916669E-009	0.0006659	6
	53	281	1.512097	85359.23	-456709.3	1	464617.7	-79.41353	-1.152756E-009	0.0005444	5
	54	286	1.201923	95869.4	-569685.1	1	577695.5	-80.44749	-1.117247E-009	0.0006721	5
	55	292	0.956633	109598.4	-708861	1	717283.6	-81.21098	-1.125104E-009	2.403651E-006	5
