EXPLAIN
TAG	EISPOT
TITLE	LABEL	Potentiostatic EIS	Test Identifier
DATE	LABEL	8/21/2020	Date
TIME	LABEL	21:02:28	Time
NOTES	NOTES	1	Notes...
	
PSTAT	PSTAT	REF3000-16137	Potentiostat
VDC	POTEN	0.00000E+000	T	DC Voltage (V)
FREQINIT	QUANT	3.00000E+005	Initial Freq. (Hz)
FREQFINAL	QUANT	1.00000E+000	Final Freq. (Hz)
PTSPERDEC	QUANT	1.00000E+001	Points/decade
VAC	QUANT	5.00000E+001	AC Voltage (mV rms)
AREA	QUANT	1.00000E+000	Sample Area (cm^2)
SPEED	SELECTOR	2	Optimize for:
ZGUESS	QUANT	1.00000E+003	Estimated Z (ohms)
EOC	QUANT	0	Open Circuit (V)
SEQUENCER	TOGGLE	TRUE	Run as Sequence
PSTATMODEL	IQUANT	5	Pstat Model
PSTATSECTION	LABEL	REF3000-16137	Pstat Section
PSTATSERIALNO	LABEL	16137	Pstat Serial Number
CTRLMODE	IQUANT	1	Control Mode
IESTAB	IQUANT	0	I/E Stability
CASPEED	IQUANT	1	Control Amp Speed
CONVENTION	IQUANT	1	Current Convention
ICHRANGE	IQUANT	2	Ich Range
ICHRANGEMODE	TOGGLE	F	Ich Auto Range
ICHOFFSETENABLE	TOGGLE	T	Ich Offset Enable
ICHOFFSET	QUANT	0	Ich Offset (V)
ICHFILTER	IQUANT	3	Ich Filter
VCHRANGE	IQUANT	2	Vch Range
VCHRANGEMODE	TOGGLE	F	Vch Auto Range
VCHOFFSETENABLE	TOGGLE	T	Vch Offset Enable
VCHOFFSET	QUANT	0	Vch Offset (V)
VCHFILTER	IQUANT	3	Vch Filter
ACHRANGE	IQUANT	2	Ach Range
ACHOFFSETENABLE	TOGGLE	F	Ach Offset Enable
ACHOFFSET	QUANT	0	Ach Offset (V)
ACHFILTER	IQUANT	3	Ach Filter
IERANGELOWERLIMIT	IQUANT	2	I/E Range Lower Limit
IERANGEMODE	TOGGLE	F	I/E AutoRange
IERANGE	IQUANT	11	I/E Range
POSFEEDENABLE	TOGGLE	F	Positive Feedback IR Comp
POSFEEDRESISTANCE	QUANT	0	Positive Feedback Resistance (ohm)
ACHSELECT	IQUANT	0	Ach Select
CABLEID	IQUANT	13	Cable ID
DCCALDATE	LABEL	7/31/2020	DC Calibration Date
ACCALDATE	LABEL	7/31/2020	AC Calibration Date
THERMOSELECT	IQUANT	1	Thermo Select
FRAMEWORKVERSION	QUANT	6.33	Framework Version
INSTRUMENTVERSION	LABEL	3.50	Instrument Version
COMPLIANCEVOLTAGE	IQUANT	0	Compliance Voltage
ZCURVE	TABLE
	Pt	Time	Freq	Zreal	Zimag	Zsig	Zmod	Zphz	Idc	Vdc	IERange
	#	s	Hz	ohm	ohm	V	ohm	°	A	V	#
	0	7	300046.9	62.91869	-4.07726	1	63.05066	-3.7077	-1.621368E-005	-0.0011433	9
	1	10	238359.4	63.40145	-5.482685	1	63.63807	-4.942398	-5.988536E-005	0.0020443	9
	2	13	189328.1	64.06372	-7.017895	1	64.44696	-6.25157	-6.344727E-005	0.0016885	9
	3	16	150421.9	64.84594	-8.575957	1	65.41057	-7.53372	-2.964158E-005	-0.0001002	9
	4	19	119484.4	65.90106	-10.40395	1	66.71725	-8.971367	-7.728957E-006	0.0008494	9
	5	21	94921.88	67.06274	-12.16007	1	68.15627	-10.27743	-2.578035E-006	0.0005489	9
	6	24	75421.88	68.24589	-14.52915	1	69.77534	-12.0185	1.123077E-005	3.465359E-005	9
	7	26	59859.37	69.51017	-17.18949	1	71.60406	-13.89026	1.061437E-005	-0.0005441	9
	8	29	47578.12	70.88207	-20.274	1	73.72451	-15.96182	-1.888245E-005	0.0007926	9
	9	31	37828.12	72.37879	-23.86934	1	76.21309	-18.25171	-1.597511E-005	0.0006649	9
	10	34	30046.88	73.90806	-28.20875	1	79.10838	-20.89054	3.674819E-006	-0.0003577	9
	11	36	23859.38	75.46211	-33.46242	1	82.54855	-23.9141	-1.394441E-005	0.0002496	9
	12	38	18984.38	76.9824	-39.95804	1	86.73486	-27.43176	2.104368E-005	-0.0002541	9
	13	41	15046.87	78.4752	-48.14487	1	92.06674	-31.52929	1.958786E-005	-0.0005725	9
	14	43	11953.13	79.93742	-58.40081	1	98.9982	-36.15118	-1.041126E-005	0.0006753	9
	15	45	9515.62	81.40971	-71.0453	1	108.0508	-41.11082	1.121916E-005	-0.0005138	9
	16	48	7546.875	83.10783	-87.19273	1	120.4553	-46.37406	4.084823E-006	-0.0003507	9
	17	50	5928.309	84.76781	-108.8267	1	137.9451	-52.0841	1.058945E-005	-0.0005266	9
	18	52	4733.456	86.69694	-134.0076	1	159.607	-57.09894	1.099372E-005	-0.0005243	9
	19	55	3796.875	88.90267	-164.7745	1	187.228	-61.65129	2.119843E-005	-0.0002701	9
	20	57	2987.132	91.897	-206.6191	1	226.1338	-66.02216	-3.264109E-006	-0.0001603	9
	21	59	2390.625	94.76923	-255.4096	1	272.4248	-69.64273	1.39051E-008	-0.0002426	9
	22	62	1884.191	99.6359	-321.3633	1	336.4546	-72.77441	-1.75481E-005	0.0005864	9
	23	64	1516.544	104.6302	-394.7343	1	408.3658	-75.1543	1.592549E-005	-0.0005928	9
	24	66	1193.986	112.149	-494.9735	1	507.5196	-77.23371	-4.658423E-007	9.494224E-005	8
	25	69	946.5144	120.4531	-618.8527	1	630.4661	-78.9857	-3.155519E-006	0.0021252	8
	26	71	751.7689	133.6944	-771.5684	1	783.0657	-80.16962	-6.668467E-007	0.0017616	8
	27	73	597.4265	149.042	-962.476	1	973.948	-81.19751	1.039005E-006	-0.0003439	8
	28	76	477.4305	169.0116	-1191.814	1	1203.739	-81.92869	3.055898E-007	0.0006501	8
	29	78	376.6741	197.107	-1495.014	1	1507.952	-82.48928	2.949135E-007	0.0006638	8
	30	80	298.2954	234.023	-1867.807	1	1882.411	-82.85846	3.018311E-007	0.0006526	8
	31	83	237.7717	281.6274	-2317.54	1	2334.589	-83.07139	3.141199E-007	0.0006453	8
	32	85	189.0121	346.3524	-2881.331	1	2902.073	-83.14561	3.168988E-007	0.0006457	8
	33	87	150.2404	432.3587	-3579.774	1	3605.789	-83.11327	3.24884E-007	0.0006495	8
	34	90	119.1737	549.8076	-4460.17	1	4493.93	-82.97257	3.21448E-008	0.0006236	7
	35	92	95.0169	701.2297	-5512.486	1	5556.908	-82.75048	2.761653E-008	0.0006268	7
	36	95	75.60484	900.9598	-6818.979	1	6878.242	-82.47337	2.780899E-008	0.0006191	7
	37	97	54.50582	1300.694	-9223.66	1	9314.919	-81.97324	2.478301E-008	0.0006778	7
	38	100	45.95588	1584.249	-10801.23	1	10916.79	-81.65575	2.823188E-008	0.0006794	7
	39	102	37.20238	2021.042	-13090.11	1	13245.21	-81.22314	2.913095E-008	0.0006295	7
	40	106	30.04808	2602.89	-15903.85	1	16115.44	-80.70514	2.922438E-008	0.0006173	7
	41	108	23.91582	3451.291	-19592.57	1	19894.23	-80.00967	2.973976E-008	0.0006191	7
	42	110	18.60119	4696.114	-24562.74	1	25007.63	-79.17632	2.767874E-008	0.0006251	7
	43	113	15.02404	6162.923	-29752.96	1	30384.54	-78.29745	3.722792E-008	0.000635	7
	44	115	12.01923	8270.09	-36152.54	1	37086.39	-77.11497	2.794112E-008	0.0006227	7
	45	117	9.450605	11384.08	-44408.56	1	45844.49	-75.6219	8.414522E-009	0.0006672	6
	46	120	7.512019	15412.72	-53711.99	1	55879.61	-73.98911	8.593071E-009	0.0006821	6
	47	123	5.978954	20693.41	-64433.43	1	67674.84	-72.19508	7.259287E-009	0.0006708	6
	48	126	4.734848	27891.29	-76959.45	1	81857.68	-70.0787	6.818321E-009	0.0006785	6
	49	129	3.75601	36916.3	-90921.25	1	98130	-67.90162	5.957165E-009	0.0006708	6
	50	132	3.004808	47629.46	-105573.2	1	115820	-65.71743	4.509009E-009	0.0007073	6
	51	136	2.372217	61460.58	-122634.6	1	137173.8	-63.38142	5.741513E-009	0.0007418	6
	52	141	1.878005	77334.98	-140467.1	1	160348.7	-61.16477	4.969542E-009	0.0006412	6
	53	145	1.512097	93852.25	-158356.9	1	184079.2	-59.34636	4.952096E-009	0.0007237	6
	54	151	1.201923	113523.9	-179625.1	1	212492	-57.70692	5.154893E-009	0.0006344	6
	55	157	0.956633	135043.4	-203379.2	1	244130.7	-56.41592	3.529715E-009	2.699441E-005	6
