EXPLAIN
TAG	EISPOT
TITLE	LABEL	Potentiostatic EIS	Test Identifier
DATE	LABEL	8/21/2020	Date
TIME	LABEL	22:52:53	Time
NOTES	NOTES	1	Notes...
	
PSTAT	PSTAT	REF3000-16137	Potentiostat
VDC	POTEN	0.00000E+000	T	DC Voltage (V)
FREQINIT	QUANT	3.00000E+005	Initial Freq. (Hz)
FREQFINAL	QUANT	1.00000E+000	Final Freq. (Hz)
PTSPERDEC	QUANT	1.00000E+001	Points/decade
VAC	QUANT	5.00000E+001	AC Voltage (mV rms)
AREA	QUANT	1.00000E+000	Sample Area (cm^2)
SPEED	SELECTOR	2	Optimize for:
ZGUESS	QUANT	1.00000E+003	Estimated Z (ohms)
EOC	QUANT	0	Open Circuit (V)
SEQUENCER	TOGGLE	TRUE	Run as Sequence
PSTATMODEL	IQUANT	5	Pstat Model
PSTATSECTION	LABEL	REF3000-16137	Pstat Section
PSTATSERIALNO	LABEL	16137	Pstat Serial Number
CTRLMODE	IQUANT	1	Control Mode
IESTAB	IQUANT	0	I/E Stability
CASPEED	IQUANT	1	Control Amp Speed
CONVENTION	IQUANT	1	Current Convention
ICHRANGE	IQUANT	2	Ich Range
ICHRANGEMODE	TOGGLE	F	Ich Auto Range
ICHOFFSETENABLE	TOGGLE	T	Ich Offset Enable
ICHOFFSET	QUANT	0	Ich Offset (V)
ICHFILTER	IQUANT	3	Ich Filter
VCHRANGE	IQUANT	2	Vch Range
VCHRANGEMODE	TOGGLE	F	Vch Auto Range
VCHOFFSETENABLE	TOGGLE	T	Vch Offset Enable
VCHOFFSET	QUANT	0	Vch Offset (V)
VCHFILTER	IQUANT	3	Vch Filter
ACHRANGE	IQUANT	2	Ach Range
ACHOFFSETENABLE	TOGGLE	F	Ach Offset Enable
ACHOFFSET	QUANT	0	Ach Offset (V)
ACHFILTER	IQUANT	3	Ach Filter
IERANGELOWERLIMIT	IQUANT	2	I/E Range Lower Limit
IERANGEMODE	TOGGLE	F	I/E AutoRange
IERANGE	IQUANT	11	I/E Range
POSFEEDENABLE	TOGGLE	F	Positive Feedback IR Comp
POSFEEDRESISTANCE	QUANT	0	Positive Feedback Resistance (ohm)
ACHSELECT	IQUANT	0	Ach Select
CABLEID	IQUANT	13	Cable ID
DCCALDATE	LABEL	7/31/2020	DC Calibration Date
ACCALDATE	LABEL	7/31/2020	AC Calibration Date
THERMOSELECT	IQUANT	1	Thermo Select
FRAMEWORKVERSION	QUANT	6.33	Framework Version
INSTRUMENTVERSION	LABEL	3.50	Instrument Version
COMPLIANCEVOLTAGE	IQUANT	0	Compliance Voltage
ZCURVE	TABLE
	Pt	Time	Freq	Zreal	Zimag	Zsig	Zmod	Zphz	Idc	Vdc	IERange
	#	s	Hz	ohm	ohm	V	ohm	°	A	V	#
	0	24	300046.9	-79.07791	-4838.658	1	4839.304	-90.93629	9.164435E-005	-0.0027851	9
	1	56	238359.4	-388.7927	-6184.531	1	6196.74	-93.59718	-0.0001073	0.0037651	9
	2	72	189328.1	-39.00332	-7424.448	1	7424.551	-90.30099	-9.02692E-005	0.0043478	9
	3	85	150421.9	264.9858	-8832.914	1	8836.888	-88.28165	1.224685E-006	0.0017295	9
	4	102	119484.4	499.3383	-11787.75	1	11798.32	-87.57436	4.110213E-006	0.0151135	8
	5	111	94921.88	568.9863	-14487.26	1	14498.43	-87.75087	2.613922E-005	-0.0051181	8
	6	119	75421.88	629.1708	-18261.39	1	18272.22	-88.02673	8.270425E-006	-0.0078183	8
	7	128	59859.37	413.2697	-23003.62	1	23007.33	-88.97076	8.174216E-006	-0.0078264	8
	8	136	47578.12	4200.259	-30170.71	1	30461.68	-82.07442	-3.44458E-006	-0.0055992	7
	9	143	37828.12	1066.663	-36441.59	1	36457.2	-88.3234	-2.660917E-005	0.0075949	8
	10	151	30046.88	727.3864	-45766.8	1	45772.58	-89.08945	-2.525305E-005	0.0112202	8
	11	160	23859.38	4323.068	-58107.04	1	58267.63	-85.74512	-6.700728E-006	0.0255601	7
	12	166	18984.38	5270.775	-72893.61	1	73083.92	-85.86427	-7.344641E-006	0.0236668	7
	13	172	15046.87	4466.863	-90403.04	1	90513.33	-87.17129	-1.076497E-006	-0.0134991	7
	14	177	11953.13	3474.854	-113725	1	113778.1	-88.24988	6.906306E-006	-0.0273592	7
	15	182	9515.62	2837.71	-141763.4	1	141791.8	-88.85325	-3.805355E-006	-0.0046318	7
	16	189	7546.875	10585.04	-183741.8	1	184046.5	-86.70293	-7.314411E-006	0.0235892	7
	17	195	5928.309	20297.68	-227920.7	1	228822.7	-84.9109	6.970985E-006	-0.0274182	7
	18	202	4733.456	35148.03	-305080.2	1	307098.2	-83.42798	-3.863802E-006	0.0258657	7
	19	209	3796.875	-10121.18	-355184.5	1	355328.7	-91.63223	-1.852103E-006	0.0224028	7
	20	217	2987.132	-43496.04	-513221.5	1	515061.4	-94.8443	-6.658693E-006	0.0261939	7
	21	224	2390.625	-87002.36	-478732.2	1	486573.7	-100.3002	1.366388E-006	-0.0203168	7
	22	232	1884.191	19646.32	-730692.1	1	730956.2	-88.45985	4.340459E-007	0.0021532	6
	23	237	1516.544	68789.34	-907543.4	1	910146.7	-85.66542	-5.060815E-008	-0.015368	6
	24	243	1193.986	13978.44	-1154219	1	1154304	-89.30614	5.986148E-007	-0.0280374	6
	25	248	946.5144	688914.9	-238229.1	1	728942.3	-19.07556	6.605635E-006	-0.0099491	7
	26	254	751.7689	-479999.7	-2256140	1	2306636	-102.0107	-1.051536E-006	-0.0137391	7
	27	260	597.4265	732770.6	-3157491	1	3241404	-76.93444	1.811919E-007	-0.0212795	6
	28	264	477.4305	87786.73	-2822405	1	2823770	-88.21848	-1.037216E-008	0.0007248	6
	29	268	376.6741	481598	-3678493	1	3709885	-82.54111	-9.587975E-010	0.0005891	5
	30	271	298.2954	498731.7	-4567391	1	4594540	-83.76833	-9.70857E-010	0.0006269	5
	31	274	237.7717	660310.9	-5706540	1	5744615	-83.39959	-1.015489E-009	0.0006388	5
	32	277	189.0121	572187.3	-7143400	1	7166279	-85.42038	-1.078256E-009	0.0006416	5
	33	280	150.2404	917153.3	-8549782	1	8598834	-83.87717	-1.068706E-009	0.0006731	5
	34	283	119.1737	645891.1	-8403485	1	8428270	-85.60489	-1.009509E-009	0.0006096	5
	35	285	95.0169	916409.9	-1.397905E+007	1	1.400905E+007	-86.24929	-1.079624E-009	0.0006174	5
	36	288	75.60484	1450472	-1.695227E+007	1	1.701421E+007	-85.10957	-1.064276E-009	0.0006772	5
	37	291	54.50582	771564.9	-2.317399E+007	1	2.318683E+007	-88.09307	-1.091241E-009	0.0006663	5
	38	294	45.95588	4802598	-3.1651E+007	1	3.201329E+007	-81.37198	-7.31191E-011	0.0006328	4
	39	297	37.20238	2530436	-3.365014E+007	1	3.374514E+007	-85.69955	-1.073634E-009	0.0007093	5
	40	302	30.04808	1581497	-4.310247E+007	1	4.313147E+007	-87.89867	-1.06973E-009	0.0006867	5
	41	306	23.91582	380230.9	-5.511559E+007	1	5.51169E+007	-89.60474	-1.516911E-010	0.0006917	4
	42	309	18.60119	-2481039	-8.120023E+007	1	8.123813E+007	-91.75011	-1.508419E-010	0.0006674	4
	43	313	15.02404	6255853	-8.731821E+007	1	8.754202E+007	-85.90208	-9.638385E-011	0.0006033	4
	44	316	12.01923	8263733	-1.054998E+008	1	1.058229E+008	-85.5212	-9.209926E-011	0.0006777	4
	45	320	9.450605	8918146	-1.368591E+008	1	1.371494E+008	-86.27171	-9.535352E-011	0.0006043	4
	46	324	7.512019	1.048447E+007	-1.775138E+008	1	1.778232E+008	-86.61987	-1.136643E-010	0.0007145	4
	47	329	5.978954	-4551573	-2.282974E+008	1	2.283428E+008	-91.14216	-8.017791E-011	0.0006477	4
	48	334	4.734848	5.200095E+007	-2.851692E+008	1	2.898716E+008	-79.6656	-1.040515E-011	0.0006943	3
	49	339	3.75601	3.359011E+007	-3.362903E+008	1	3.379637E+008	-84.29597	-1.090907E-009	0.0007083	5
	50	347	3.004808	1.419467E+007	-4.38779E+008	1	4.390085E+008	-88.1471	-9.95093E-010	0.000615	5
	51	356	2.372217	7.096402E+007	-5.412335E+008	1	5.458659E+008	-82.53026	-1.045185E-011	0.0006474	3
	52	362	1.878005	8.192897E+007	-6.76221E+008	1	6.811661E+008	-83.09188	-1.038539E-011	0.0007232	3
	53	371	1.512097	9.884322E+007	-8.322558E+008	1	8.381048E+008	-83.22697	-1.040034E-011	0.0006805	3
	54	378	1.201923	1.210853E+008	-1.04135E+009	1	1.048366E+009	-83.36759	-1.016523E-011	0.0007454	3
	55	391	0.956633	1.568012E+008	-1.294758E+009	1	1.304218E+009	-83.09485	-1.001896E-011	7.290857E-005	3
