EXPLAIN
TAG	EISPOT
TITLE	LABEL	Potentiostatic EIS	Test Identifier
DATE	LABEL	8/21/2020	Date
TIME	LABEL	23:26:04	Time
NOTES	NOTES	1	Notes...
	
PSTAT	PSTAT	REF3000-16137	Potentiostat
VDC	POTEN	0.00000E+000	T	DC Voltage (V)
FREQINIT	QUANT	3.00000E+005	Initial Freq. (Hz)
FREQFINAL	QUANT	1.00000E+000	Final Freq. (Hz)
PTSPERDEC	QUANT	1.00000E+001	Points/decade
VAC	QUANT	5.00000E+001	AC Voltage (mV rms)
AREA	QUANT	1.00000E+000	Sample Area (cm^2)
SPEED	SELECTOR	2	Optimize for:
ZGUESS	QUANT	1.00000E+003	Estimated Z (ohms)
EOC	QUANT	0	Open Circuit (V)
SEQUENCER	TOGGLE	TRUE	Run as Sequence
PSTATMODEL	IQUANT	5	Pstat Model
PSTATSECTION	LABEL	REF3000-16137	Pstat Section
PSTATSERIALNO	LABEL	16137	Pstat Serial Number
CTRLMODE	IQUANT	1	Control Mode
IESTAB	IQUANT	0	I/E Stability
CASPEED	IQUANT	1	Control Amp Speed
CONVENTION	IQUANT	1	Current Convention
ICHRANGE	IQUANT	2	Ich Range
ICHRANGEMODE	TOGGLE	F	Ich Auto Range
ICHOFFSETENABLE	TOGGLE	T	Ich Offset Enable
ICHOFFSET	QUANT	0	Ich Offset (V)
ICHFILTER	IQUANT	3	Ich Filter
VCHRANGE	IQUANT	2	Vch Range
VCHRANGEMODE	TOGGLE	F	Vch Auto Range
VCHOFFSETENABLE	TOGGLE	T	Vch Offset Enable
VCHOFFSET	QUANT	0	Vch Offset (V)
VCHFILTER	IQUANT	3	Vch Filter
ACHRANGE	IQUANT	2	Ach Range
ACHOFFSETENABLE	TOGGLE	F	Ach Offset Enable
ACHOFFSET	QUANT	0	Ach Offset (V)
ACHFILTER	IQUANT	3	Ach Filter
IERANGELOWERLIMIT	IQUANT	2	I/E Range Lower Limit
IERANGEMODE	TOGGLE	F	I/E AutoRange
IERANGE	IQUANT	11	I/E Range
POSFEEDENABLE	TOGGLE	F	Positive Feedback IR Comp
POSFEEDRESISTANCE	QUANT	0	Positive Feedback Resistance (ohm)
ACHSELECT	IQUANT	0	Ach Select
CABLEID	IQUANT	13	Cable ID
DCCALDATE	LABEL	7/31/2020	DC Calibration Date
ACCALDATE	LABEL	7/31/2020	AC Calibration Date
THERMOSELECT	IQUANT	1	Thermo Select
FRAMEWORKVERSION	QUANT	6.33	Framework Version
INSTRUMENTVERSION	LABEL	3.50	Instrument Version
COMPLIANCEVOLTAGE	IQUANT	0	Compliance Voltage
ZCURVE	TABLE
	Pt	Time	Freq	Zreal	Zimag	Zsig	Zmod	Zphz	Idc	Vdc	IERange
	#	s	Hz	ohm	ohm	V	ohm	°	A	V	#
	0	7	300046.9	36.56377	-2.587968	1	36.65525	-4.048618	3.856932E-005	-0.0012445	9
	1	10	238359.4	37.00257	-3.65593	1	37.18274	-5.642626	4.011201E-006	-0.0011208	9
	2	14	189328.1	37.40473	-4.833582	1	37.71574	-7.363175	-2.639852E-005	-0.0002262	9
	3	16	150421.9	37.94456	-6.127884	1	38.43619	-9.173816	4.167491E-006	0.0002744	9
	4	19	119484.4	38.51206	-7.456991	1	39.22736	-10.95843	6.490763E-006	-0.0007857	9
	5	21	94921.88	39.27454	-8.830389	1	40.255	-12.67152	5.507322E-006	8.048512E-005	9
	6	24	75421.88	39.9299	-10.54998	1	41.30011	-14.80005	-1.241681E-005	0.0003783	9
	7	26	59859.37	40.66563	-12.58191	1	42.56757	-17.19202	-1.013676E-005	0.0005836	9
	8	29	47578.12	41.4409	-14.97882	1	44.06487	-19.8724	-1.452417E-005	0.000464	9
	9	31	37828.12	42.19968	-17.83335	1	45.81311	-22.90865	-7.89673E-006	6.886401E-005	9
	10	34	30046.88	43.00078	-21.3204	1	47.99611	-26.37287	1.61644E-005	-0.0004734	9
	11	36	23859.38	43.75395	-25.71032	1	50.74868	-30.43898	-1.35961E-005	0.0005404	9
	12	39	18984.38	44.50135	-31.05854	1	54.26788	-34.91209	2.745949E-006	-0.0002172	9
	13	41	15046.87	45.27407	-37.98827	1	59.10033	-39.99912	-1.26653E-005	0.0004129	9
	14	43	11953.13	46.08728	-46.62268	1	65.55694	-45.33088	1.511487E-005	-0.0001746	9
	15	46	9515.62	47.10372	-57.31404	1	74.18665	-50.58482	-2.706731E-006	-6.498515E-005	9
	16	48	7546.875	48.13803	-71.13962	1	85.89596	-55.91497	-8.018333E-006	8.960594E-005	9
	17	50	5928.309	49.6136	-89.08899	1	101.9723	-60.88659	-1.028456E-005	0.0005735	9
	18	53	4733.456	51.31335	-110.1542	1	121.5196	-65.02239	-1.063882E-005	0.0005789	9
	19	55	3796.875	53.14851	-135.6408	1	145.6818	-68.60313	1.605104E-005	-0.0004259	9
	20	57	2987.132	56.12845	-170.1967	1	179.2131	-71.74818	1.855583E-005	-0.0003553	9
	21	59	2390.625	60.93797	-209.8796	1	218.5472	-73.80949	-2.88875E-006	-6.559493E-005	9
	22	62	1884.191	64.991	-263.8358	1	271.7226	-76.16177	1.845592E-005	-0.0004403	9
	23	64	1516.544	70.97619	-324.0118	1	331.6946	-77.64427	-6.559246E-006	0.0005219	9
	24	66	1193.986	78.73541	-406.3922	1	413.9491	-79.03522	1.081464E-005	2.07645E-005	9
	25	69	946.5144	89.86007	-504.3351	1	512.278	-79.89732	3.660888E-006	-3.863654E-005	8
	26	71	751.7689	105.2969	-626.7475	1	635.5312	-80.46307	3.550488E-006	-2.201336E-005	8
	27	73	597.4265	126.2022	-777.8964	1	788.0671	-80.78489	2.073913E-006	-0.0001542	8
	28	76	477.4305	153.0477	-959.618	1	971.746	-80.93832	3.725888E-007	0.0006416	8
	29	78	376.6741	191.5004	-1196.806	1	1212.03	-80.90919	3.869984E-007	0.0006391	8
	30	80	298.2954	243.1965	-1485.455	1	1505.232	-80.70211	3.826408E-007	0.0006451	8
	31	83	237.7717	310.9845	-1829.448	1	1855.692	-80.35262	3.89929E-007	0.000639	8
	32	85	189.0121	403.9007	-2255.183	1	2291.067	-79.84605	3.901057E-007	0.0006432	8
	33	88	150.2404	529.7556	-2774.468	1	2824.59	-79.19009	3.988323E-007	0.0006392	8
	34	90	119.1737	703.1212	-3413.004	1	3484.678	-78.35921	4.002345E-007	0.0006409	8
	35	92	95.0169	932.433	-4167.188	1	4270.233	-77.38748	3.991351E-007	0.0006425	8
	36	95	75.60484	1249.507	-5090.311	1	5241.424	-76.20842	2.938572E-008	0.0006182	7
	37	97	54.50582	1905.599	-6711.797	1	6977.071	-74.1498	3.021085E-008	0.000615	7
	38	100	45.95588	2372.949	-7715.798	1	8072.449	-72.90502	4.224398E-008	0.0006239	7
	39	102	37.20238	3126.371	-9131.512	1	9651.88	-71.10025	2.934569E-008	0.000618	7
	40	105	30.04808	4095.241	-10727.57	1	11482.67	-69.10569	2.631477E-008	0.0006173	7
	41	107	23.91582	5474.781	-12670.74	1	13802.93	-66.63177	2.612244E-008	0.0006217	7
	42	110	18.60119	7413.709	-14951.94	1	16689.02	-63.62613	2.079567E-008	0.0006389	7
	43	112	15.02404	9511.83	-17025.19	1	19502.1	-60.80827	2.356142E-008	0.0006169	7
	44	114	12.01923	12154.78	-19145.92	1	22678.29	-57.5906	2.082562E-008	0.0006152	7
	45	117	9.450605	15514.33	-21289.36	1	26342.58	-53.91782	3.398072E-008	0.0006196	7
	46	119	7.512019	19218.24	-23172.18	1	30104.67	-50.32881	3.75164E-008	0.0006362	7
	47	122	5.978954	23271.48	-24511.96	1	33799.38	-46.48709	3.556768E-008	0.0006145	7
	48	125	4.734848	27699.3	-25470.87	1	37629.99	-42.60006	2.671653E-008	0.0006122	7
	49	128	3.75601	32033.87	-25637.97	1	41030.17	-38.67167	-5.192166E-009	0.0006728	6
	50	131	3.004808	35813.52	-24706.94	1	43509.09	-34.60091	-1.589051E-008	0.0006956	6
	51	138	2.372217	39292.66	-23312.01	1	45687.67	-30.68031	-1.334505E-008	0.0007153	6
	52	145	1.878005	42041.08	-21513.47	1	47225.86	-27.09996	-1.993263E-008	0.0006319	6
	53	154	1.512097	44343.56	-20270.64	1	48757.05	-24.56642	-2.032333E-008	0.0007412	6
	54	165	1.201923	46355.62	-18848.76	1	50041.18	-22.12725	-1.927828E-008	0.0006219	6
	55	178	0.956633	48652.27	-17804.07	1	51807.61	-20.09987	-4.352304E-008	1.971717E-005	6
