EXPLAIN
TAG	EISPOT
TITLE	LABEL	Potentiostatic EIS	Test Identifier
DATE	LABEL	8/21/2020	Date
TIME	LABEL	20:51:29	Time
NOTES	NOTES	1	Notes...
	
PSTAT	PSTAT	REF3000-16137	Potentiostat
VDC	POTEN	0.00000E+000	T	DC Voltage (V)
FREQINIT	QUANT	3.00000E+005	Initial Freq. (Hz)
FREQFINAL	QUANT	1.00000E+000	Final Freq. (Hz)
PTSPERDEC	QUANT	1.00000E+001	Points/decade
VAC	QUANT	5.00000E+001	AC Voltage (mV rms)
AREA	QUANT	1.00000E+000	Sample Area (cm^2)
SPEED	SELECTOR	2	Optimize for:
ZGUESS	QUANT	1.00000E+003	Estimated Z (ohms)
EOC	QUANT	0	Open Circuit (V)
SEQUENCER	TOGGLE	TRUE	Run as Sequence
PSTATMODEL	IQUANT	5	Pstat Model
PSTATSECTION	LABEL	REF3000-16137	Pstat Section
PSTATSERIALNO	LABEL	16137	Pstat Serial Number
CTRLMODE	IQUANT	1	Control Mode
IESTAB	IQUANT	0	I/E Stability
CASPEED	IQUANT	1	Control Amp Speed
CONVENTION	IQUANT	1	Current Convention
ICHRANGE	IQUANT	2	Ich Range
ICHRANGEMODE	TOGGLE	F	Ich Auto Range
ICHOFFSETENABLE	TOGGLE	T	Ich Offset Enable
ICHOFFSET	QUANT	0	Ich Offset (V)
ICHFILTER	IQUANT	3	Ich Filter
VCHRANGE	IQUANT	2	Vch Range
VCHRANGEMODE	TOGGLE	F	Vch Auto Range
VCHOFFSETENABLE	TOGGLE	T	Vch Offset Enable
VCHOFFSET	QUANT	0	Vch Offset (V)
VCHFILTER	IQUANT	3	Vch Filter
ACHRANGE	IQUANT	2	Ach Range
ACHOFFSETENABLE	TOGGLE	F	Ach Offset Enable
ACHOFFSET	QUANT	0	Ach Offset (V)
ACHFILTER	IQUANT	3	Ach Filter
IERANGELOWERLIMIT	IQUANT	2	I/E Range Lower Limit
IERANGEMODE	TOGGLE	F	I/E AutoRange
IERANGE	IQUANT	11	I/E Range
POSFEEDENABLE	TOGGLE	F	Positive Feedback IR Comp
POSFEEDRESISTANCE	QUANT	0	Positive Feedback Resistance (ohm)
ACHSELECT	IQUANT	0	Ach Select
CABLEID	IQUANT	13	Cable ID
DCCALDATE	LABEL	7/31/2020	DC Calibration Date
ACCALDATE	LABEL	7/31/2020	AC Calibration Date
THERMOSELECT	IQUANT	1	Thermo Select
FRAMEWORKVERSION	QUANT	6.33	Framework Version
INSTRUMENTVERSION	LABEL	3.50	Instrument Version
COMPLIANCEVOLTAGE	IQUANT	0	Compliance Voltage
ZCURVE	TABLE
	Pt	Time	Freq	Zreal	Zimag	Zsig	Zmod	Zphz	Idc	Vdc	IERange
	#	s	Hz	ohm	ohm	V	ohm	°	A	V	#
	0	7	300046.9	49.58204	-3.23964	1	49.68776	-3.738334	6.218084E-005	-0.0024883	9
	1	10	238359.4	50.0866	-4.631961	1	50.30032	-5.283631	-4.473212E-005	0.0004632	9
	2	14	189328.1	50.66143	-6.041749	1	51.02042	-6.800824	-2.574427E-005	-0.0001203	9
	3	16	150421.9	51.46105	-7.426167	1	51.99411	-8.21147	5.372348E-005	-0.0014678	9
	4	19	119484.4	52.25985	-9.077426	1	53.04236	-9.85384	-4.802094E-006	0.0006455	9
	5	21	94921.88	53.21808	-10.68801	1	54.28073	-11.35588	1.80773E-005	-0.0001927	9
	6	24	75421.88	54.15416	-12.77356	1	55.64024	-13.272	1.483788E-005	-0.0005531	9
	7	26	59859.37	55.19974	-15.16943	1	57.24616	-15.36612	-1.144158E-005	0.0006492	9
	8	29	47578.12	56.33309	-17.9783	1	59.13236	-17.7001	1.675243E-005	-0.0001908	9
	9	31	37828.12	57.48357	-21.32784	1	61.31262	-20.35611	1.258533E-006	-0.0002631	9
	10	34	30046.88	58.64787	-25.27246	1	63.86133	-23.31211	-1.503881E-005	0.0006822	9
	11	36	23859.38	59.8149	-30.23246	1	67.02107	-26.81356	3.92476E-006	-0.0003267	9
	12	39	18984.38	60.95408	-36.31104	1	70.94992	-30.78274	-1.36492E-005	0.0003383	9
	13	41	15046.87	62.09728	-44.09172	1	76.15873	-35.37638	1.481309E-005	-0.0005122	9
	14	43	11953.13	63.18518	-53.73207	1	82.94277	-40.37752	1.564053E-005	-0.0004255	9
	15	46	9515.62	64.29582	-65.86473	1	92.0441	-45.69059	-1.380169E-005	0.0002506	9
	16	48	7546.875	65.62957	-81.27876	1	104.4676	-51.08042	1.271732E-005	8.745771E-005	9
	17	50	5928.309	67.27197	-101.6267	1	121.875	-56.49737	-1.276185E-005	0.0002346	9
	18	53	4733.456	68.87756	-125.5638	1	143.2144	-61.25319	1.999033E-005	-0.0004724	9
	19	55	3796.875	70.9721	-154.7144	1	170.2163	-65.35767	-1.91E-006	0.0005482	9
	20	57	2987.132	73.83285	-194.3694	1	207.9201	-69.2003	-1.257218E-005	0.0006695	9
	21	59	2390.625	77.22867	-240.4712	1	252.5682	-72.19529	2.044295E-005	-0.0004203	9
	22	62	1884.191	82.23756	-302.5703	1	313.5471	-74.79453	3.508483E-006	-0.0003101	9
	23	64	1516.544	87.65347	-371.353	1	381.5575	-76.71909	-8.933313E-006	8.858264E-005	9
	24	66	1193.986	93.61629	-465.877	1	475.1898	-78.63794	-5.830672E-007	0.0015527	8
	25	69	946.5144	102.0968	-582.4175	1	591.2985	-80.05717	4.604693E-006	-0.0003849	8
	26	71	751.7689	115.1988	-725.7447	1	734.8307	-80.98058	-1.665777E-006	0.0017891	8
	27	74	597.4265	131.1152	-904.1775	1	913.6346	-81.74902	3.957332E-006	-0.0006256	8
	28	76	477.4305	152.4975	-1120.258	1	1130.589	-82.24813	3.093916E-007	0.0007019	8
	29	78	376.6741	182.2318	-1404.453	1	1416.227	-82.60702	3.437812E-007	0.0006498	8
	30	80	298.2954	221.9248	-1753.192	1	1767.182	-82.78568	3.48355E-007	0.0006536	8
	31	83	237.7717	273.6686	-2173.033	1	2190.198	-82.82204	3.327681E-007	0.0006548	8
	32	85	189.0121	344.0477	-2697.593	1	2719.444	-82.7318	3.526968E-007	0.0006533	8
	33	88	150.2404	439.343	-3346.124	1	3374.843	-82.51991	3.470984E-007	0.0006569	8
	34	90	119.1737	568.955	-4151.067	1	4189.877	-82.19553	3.512013E-007	0.0006566	8
	35	92	95.0169	738.0484	-5126.421	1	5179.277	-81.80745	3.385744E-008	0.0006292	7
	36	95	75.60484	958.943	-6322.83	1	6395.135	-81.37604	3.234279E-008	0.000626	7
	37	97	54.50582	1407.986	-8520.973	1	8636.516	-80.61736	3.582636E-008	0.0006225	7
	38	100	45.95588	1720.214	-9940.59	1	10088.33	-80.18222	3.996037E-008	0.0006357	7
	39	102	37.20238	2227.934	-12039.88	1	12244.28	-79.51623	3.461455E-008	0.0006303	7
	40	105	30.04808	2902.938	-14578.26	1	14864.48	-78.73812	3.156172E-008	0.0006305	7
	41	107	23.91582	3829.586	-17790.04	1	18197.56	-77.85157	3.573998E-008	0.0006245	7
	42	110	18.60119	5317.973	-22170.76	1	22799.63	-76.51162	3.489386E-008	0.0006282	7
	43	112	15.02404	6975.146	-26597.86	1	27497.25	-75.30538	4.123003E-008	0.0006271	7
	44	114	12.01923	9318.378	-32030.75	1	33358.67	-73.77924	3.327269E-008	0.0006223	7
	45	117	9.450605	12743.07	-38802.09	1	40841	-71.8192	4.185766E-008	0.0006325	7
	46	119	7.512019	17027.78	-46334.21	1	49364	-69.82167	7.098632E-009	0.0006752	6
	47	122	5.978954	22530.18	-54618.01	1	59082.45	-67.58363	8.59866E-009	0.0006689	6
	48	125	4.734848	29596.41	-64048.23	1	70555.82	-65.19855	1.110117E-008	0.0006869	6
	49	128	3.75601	38221.97	-74036.91	1	83320.96	-62.6947	6.814668E-009	0.0006588	6
	50	131	3.004808	48146.48	-84189.02	1	96983.9	-60.23539	9.656429E-009	0.0006488	6
	51	135	2.372217	60305.65	-95552.2	1	112991.1	-57.74283	7.114784E-009	0.0006407	6
	52	139	1.878005	74139.01	-106932.2	1	130119.5	-55.26537	7.855316E-009	0.0006716	6
	53	144	1.512097	88162.15	-118210.8	1	147466.5	-53.28426	7.991245E-009	0.000564	6
	54	149	1.201923	104607.1	-131237.5	1	167827.1	-51.44226	6.692446E-009	0.0006894	6
	55	156	0.956633	122583.2	-145165.9	1	189999.4	-49.82109	5.222948E-009	3.458492E-005	6
