EXPLAIN
TAG	EISPOT
TITLE	LABEL	Potentiostatic EIS	Test Identifier
DATE	LABEL	8/21/2020	Date
TIME	LABEL	20:46:00	Time
NOTES	NOTES	1	Notes...
	
PSTAT	PSTAT	REF3000-16137	Potentiostat
VDC	POTEN	0.00000E+000	T	DC Voltage (V)
FREQINIT	QUANT	3.00000E+005	Initial Freq. (Hz)
FREQFINAL	QUANT	1.00000E+000	Final Freq. (Hz)
PTSPERDEC	QUANT	1.00000E+001	Points/decade
VAC	QUANT	5.00000E+001	AC Voltage (mV rms)
AREA	QUANT	1.00000E+000	Sample Area (cm^2)
SPEED	SELECTOR	2	Optimize for:
ZGUESS	QUANT	1.00000E+003	Estimated Z (ohms)
EOC	QUANT	0	Open Circuit (V)
SEQUENCER	TOGGLE	TRUE	Run as Sequence
PSTATMODEL	IQUANT	5	Pstat Model
PSTATSECTION	LABEL	REF3000-16137	Pstat Section
PSTATSERIALNO	LABEL	16137	Pstat Serial Number
CTRLMODE	IQUANT	1	Control Mode
IESTAB	IQUANT	0	I/E Stability
CASPEED	IQUANT	1	Control Amp Speed
CONVENTION	IQUANT	1	Current Convention
ICHRANGE	IQUANT	2	Ich Range
ICHRANGEMODE	TOGGLE	F	Ich Auto Range
ICHOFFSETENABLE	TOGGLE	T	Ich Offset Enable
ICHOFFSET	QUANT	0	Ich Offset (V)
ICHFILTER	IQUANT	3	Ich Filter
VCHRANGE	IQUANT	2	Vch Range
VCHRANGEMODE	TOGGLE	F	Vch Auto Range
VCHOFFSETENABLE	TOGGLE	T	Vch Offset Enable
VCHOFFSET	QUANT	0	Vch Offset (V)
VCHFILTER	IQUANT	3	Vch Filter
ACHRANGE	IQUANT	2	Ach Range
ACHOFFSETENABLE	TOGGLE	F	Ach Offset Enable
ACHOFFSET	QUANT	0	Ach Offset (V)
ACHFILTER	IQUANT	3	Ach Filter
IERANGELOWERLIMIT	IQUANT	2	I/E Range Lower Limit
IERANGEMODE	TOGGLE	F	I/E AutoRange
IERANGE	IQUANT	11	I/E Range
POSFEEDENABLE	TOGGLE	F	Positive Feedback IR Comp
POSFEEDRESISTANCE	QUANT	0	Positive Feedback Resistance (ohm)
ACHSELECT	IQUANT	0	Ach Select
CABLEID	IQUANT	13	Cable ID
DCCALDATE	LABEL	7/31/2020	DC Calibration Date
ACCALDATE	LABEL	7/31/2020	AC Calibration Date
THERMOSELECT	IQUANT	1	Thermo Select
FRAMEWORKVERSION	QUANT	6.33	Framework Version
INSTRUMENTVERSION	LABEL	3.50	Instrument Version
COMPLIANCEVOLTAGE	IQUANT	0	Compliance Voltage
ZCURVE	TABLE
	Pt	Time	Freq	Zreal	Zimag	Zsig	Zmod	Zphz	Idc	Vdc	IERange
	#	s	Hz	ohm	ohm	V	ohm	°	A	V	#
	0	7	300046.9	45.06526	-2.969469	1	45.16299	-3.76992	-5.309865E-005	0.0016531	9
	1	10	238359.4	45.5694	-4.32292	1	45.77399	-5.419119	1.555887E-005	-0.0008881	9
	2	13	189328.1	46.07956	-5.622001	1	46.42126	-6.956071	-5.986472E-005	0.0018258	9
	3	16	150421.9	46.86747	-7.040117	1	47.39328	-8.542718	2.814038E-005	-6.992997E-005	9
	4	18	119484.4	47.52293	-8.595596	1	48.29403	-10.25239	-1.135098E-005	-0.0005809	9
	5	21	94921.88	48.47657	-10.10507	1	49.51858	-11.77485	1.952784E-005	-0.0003599	9
	6	23	75421.88	49.31974	-12.06602	1	50.77426	-13.74732	-1.335797E-005	0.0003773	9
	7	26	59859.37	50.27065	-14.35681	1	52.28055	-15.93882	1.685817E-005	-0.0003967	9
	8	28	47578.12	51.28428	-17.06632	1	54.04939	-18.40635	-1.595466E-005	0.0003849	9
	9	31	37828.12	52.31682	-20.2479	1	56.09837	-21.15766	-8.740113E-006	8.218067E-005	9
	10	33	30046.88	53.37528	-24.09678	1	58.56258	-24.29725	2.088249E-005	-0.000504	9
	11	36	23859.38	54.40318	-28.87507	1	61.5912	-27.9576	2.824845E-006	-0.0002775	9
	12	38	18984.38	55.4217	-34.71142	1	65.39455	-32.05952	-1.433657E-005	0.0005593	9
	13	41	15046.87	56.45441	-42.28646	1	70.53542	-36.83458	1.984284E-005	-0.0004849	9
	14	43	11953.13	57.43444	-51.72618	1	77.29367	-42.0066	-1.224166E-005	0.0002699	9
	15	45	9515.62	58.52136	-63.41991	1	86.29504	-47.30041	-1.102817E-005	0.0006658	9
	16	47	7546.875	59.7068	-78.49671	1	98.6237	-52.74236	1.999181E-005	-0.0004533	9
	17	50	5928.309	61.23985	-98.2391	1	115.7637	-58.0616	-2.84227E-006	-0.0001017	9
	18	52	4733.456	62.84442	-121.4413	1	136.7384	-62.63897	-1.234861E-005	0.0006563	9
	19	54	3796.875	64.52866	-149.8477	1	163.1511	-66.70192	-1.61654E-005	0.0005515	9
	20	57	2987.132	67.58627	-188.1367	1	199.9083	-70.23968	-1.597191E-005	0.00057	9
	21	59	2390.625	71.48162	-232.3725	1	243.1185	-72.90124	1.331446E-005	-0.0004702	9
	22	61	1884.191	75.6129	-292.0188	1	301.6493	-75.48313	1.6796E-005	-0.0001476	9
	23	64	1516.544	80.24533	-360.1213	1	368.9535	-77.43809	-1.570791E-005	0.0005507	9
	24	66	1193.986	87.22295	-453.1509	1	461.4689	-79.1049	-1.204387E-005	0.0006518	9
	25	68	946.5144	96.493	-563.5186	1	571.7203	-80.2833	3.042624E-006	-0.0004727	8
	26	71	751.7689	109.5257	-702.9029	1	711.3848	-81.14344	1.077371E-006	-8.018071E-005	8
	27	73	597.4265	125.8605	-875.1655	1	884.1694	-81.81621	-1.373919E-006	0.0006635	8
	28	75	477.4305	147.7119	-1083.551	1	1093.573	-82.23717	3.502478E-007	0.0006553	8
	29	78	376.6741	178.7328	-1357.759	1	1369.473	-82.50081	3.594396E-007	0.0006483	8
	30	80	298.2954	220.0868	-1693.739	1	1707.979	-82.59639	3.561931E-007	0.0006569	8
	31	82	237.7717	274.3225	-2097.49	1	2115.353	-82.5488	3.537208E-007	0.0006499	8
	32	85	189.0121	348.2473	-2601.161	1	2624.37	-82.3745	3.230799E-007	0.000699	8
	33	87	150.2404	447.1503	-3221.679	1	3252.562	-82.09816	3.557148E-007	0.0007093	8
	34	90	119.1737	581.2975	-3992.208	1	4034.307	-81.7155	3.647169E-007	0.0006516	8
	35	92	95.0169	761.5272	-4921.532	1	4980.1	-81.20416	3.685481E-008	0.0006237	7
	36	94	75.60484	997.642	-6057.632	1	6139.234	-80.64781	3.426548E-008	0.0006372	7
	37	97	54.50582	1472.277	-8138.008	1	8270.113	-79.74532	3.963217E-008	0.0006203	7
	38	100	45.95588	1806.613	-9482.466	1	9653.03	-79.2132	4.320187E-008	0.0006339	7
	39	102	37.20238	2336.466	-11438.73	1	11674.92	-78.45561	3.664002E-008	0.0006668	7
	40	104	30.04808	3048.758	-13807.66	1	14140.24	-77.54876	3.942139E-008	0.0006232	7
	41	107	23.91582	4056.073	-16855.73	1	17336.88	-76.46989	3.954793E-008	0.0006195	7
	42	109	18.60119	5599.66	-20867.19	1	21605.46	-74.97871	4.514033E-008	0.0006254	7
	43	111	15.02404	7355.619	-24921.12	1	25983.99	-73.55572	4.424446E-008	0.0006451	7
	44	114	12.01923	9820.66	-29802.07	1	31378.48	-71.76143	3.591002E-008	0.0006205	7
	45	116	9.450605	13324.93	-35874.99	1	38269.68	-69.62365	4.004674E-008	0.0006346	7
	46	119	7.512019	17616.7	-42345.52	1	45863.83	-67.41158	8.300057E-009	0.0006714	6
	47	121	5.978954	23011.71	-49384.87	1	54483.07	-65.01604	8.074058E-009	0.0006662	6
	48	124	4.734848	29933.94	-57192.42	1	64552.41	-62.37289	1.042412E-008	0.0006609	6
	49	128	3.75601	38104.45	-65308.63	1	75611.95	-59.73849	1.101203E-008	0.000676	6
	50	131	3.004808	47252	-73379.85	1	87277.45	-57.22102	1.259646E-008	0.000649	6
	51	135	2.372217	58446.77	-82215.42	1	100873.2	-54.59106	8.443061E-009	0.0006093	6
	52	139	1.878005	70766.61	-90704.6	1	115044.5	-52.03909	9.791417E-009	0.0006812	6
	53	144	1.512097	83176.38	-98858.1	1	129194.5	-49.92369	9.884434E-009	0.0005927	6
	54	149	1.201923	97771.9	-108066.7	1	145731.7	-47.8632	8.145418E-009	0.0006937	6
	55	155	0.956633	113524.7	-117477.4	1	163367.1	-45.98029	5.58786E-009	3.035963E-005	6
