EXPLAIN
TAG	EISPOT
TITLE	LABEL	Potentiostatic EIS	Test Identifier
DATE	LABEL	8/21/2020	Date
TIME	LABEL	20:25:56	Time
NOTES	NOTES	1	Notes...
	
PSTAT	PSTAT	REF3000-16137	Potentiostat
VDC	POTEN	0.00000E+000	T	DC Voltage (V)
FREQINIT	QUANT	3.00000E+005	Initial Freq. (Hz)
FREQFINAL	QUANT	1.00000E+000	Final Freq. (Hz)
PTSPERDEC	QUANT	1.00000E+001	Points/decade
VAC	QUANT	5.00000E+001	AC Voltage (mV rms)
AREA	QUANT	1.00000E+000	Sample Area (cm^2)
SPEED	SELECTOR	2	Optimize for:
ZGUESS	QUANT	1.00000E+003	Estimated Z (ohms)
EOC	QUANT	0	Open Circuit (V)
SEQUENCER	TOGGLE	TRUE	Run as Sequence
PSTATMODEL	IQUANT	5	Pstat Model
PSTATSECTION	LABEL	REF3000-16137	Pstat Section
PSTATSERIALNO	LABEL	16137	Pstat Serial Number
CTRLMODE	IQUANT	1	Control Mode
IESTAB	IQUANT	0	I/E Stability
CASPEED	IQUANT	1	Control Amp Speed
CONVENTION	IQUANT	1	Current Convention
ICHRANGE	IQUANT	2	Ich Range
ICHRANGEMODE	TOGGLE	F	Ich Auto Range
ICHOFFSETENABLE	TOGGLE	T	Ich Offset Enable
ICHOFFSET	QUANT	0	Ich Offset (V)
ICHFILTER	IQUANT	3	Ich Filter
VCHRANGE	IQUANT	2	Vch Range
VCHRANGEMODE	TOGGLE	F	Vch Auto Range
VCHOFFSETENABLE	TOGGLE	T	Vch Offset Enable
VCHOFFSET	QUANT	0	Vch Offset (V)
VCHFILTER	IQUANT	3	Vch Filter
ACHRANGE	IQUANT	2	Ach Range
ACHOFFSETENABLE	TOGGLE	F	Ach Offset Enable
ACHOFFSET	QUANT	0	Ach Offset (V)
ACHFILTER	IQUANT	3	Ach Filter
IERANGELOWERLIMIT	IQUANT	2	I/E Range Lower Limit
IERANGEMODE	TOGGLE	F	I/E AutoRange
IERANGE	IQUANT	11	I/E Range
POSFEEDENABLE	TOGGLE	F	Positive Feedback IR Comp
POSFEEDRESISTANCE	QUANT	0	Positive Feedback Resistance (ohm)
ACHSELECT	IQUANT	0	Ach Select
CABLEID	IQUANT	13	Cable ID
DCCALDATE	LABEL	7/31/2020	DC Calibration Date
ACCALDATE	LABEL	7/31/2020	AC Calibration Date
THERMOSELECT	IQUANT	1	Thermo Select
FRAMEWORKVERSION	QUANT	6.33	Framework Version
INSTRUMENTVERSION	LABEL	3.50	Instrument Version
COMPLIANCEVOLTAGE	IQUANT	0	Compliance Voltage
ZCURVE	TABLE
	Pt	Time	Freq	Zreal	Zimag	Zsig	Zmod	Zphz	Idc	Vdc	IERange
	#	s	Hz	ohm	ohm	V	ohm	°	A	V	#
	0	7	300046.9	35.29157	-2.301086	1	35.36651	-3.730527	-3.474758E-005	0.0001153	9
	1	10	238359.4	35.58863	-4.113598	1	35.82558	-6.593412	2.106392E-005	-5.001806E-005	10
	2	14	189328.1	36.16047	-4.620162	1	36.45443	-7.281136	1.021274E-005	-0.000384	9
	3	17	150421.9	36.57093	-5.869249	1	37.03891	-9.11762	-1.133456E-006	0.0003216	9
	4	19	119484.4	37.22375	-7.115949	1	37.89782	-10.82248	-3.448718E-005	0.0007882	9
	5	22	94921.88	37.93496	-8.4609	1	38.86705	-12.57329	-9.044462E-006	0.0001501	9
	6	24	75421.88	38.62763	-10.18581	1	39.94802	-14.77219	-1.078494E-005	0.000162	9
	7	27	59859.37	39.36499	-12.14863	1	41.19699	-17.15102	-1.371494E-005	0.0004444	9
	8	29	47578.12	40.1241	-14.44857	1	42.64627	-19.80379	-6.61086E-006	0.0004627	9
	9	32	37828.12	40.85773	-17.2046	1	44.3323	-22.83526	5.389842E-006	-0.0002788	9
	10	34	30046.88	41.62484	-20.65094	1	46.46599	-26.38695	8.693836E-006	6.644241E-005	9
	11	37	23859.38	42.32756	-24.92117	1	49.11911	-30.48827	1.681916E-005	-0.000147	9
	12	39	18984.38	43.06309	-30.22752	1	52.61304	-35.06639	1.478473E-005	-0.0001665	9
	13	41	15046.87	43.78497	-36.97906	1	57.31121	-40.18312	-3.824224E-006	0.0004852	9
	14	44	11953.13	44.5491	-45.56842	1	63.72678	-45.64804	8.843655E-006	-0.000368	9
	15	46	9515.62	45.54462	-56.05775	1	72.22731	-50.90756	-1.196746E-005	0.0002875	9
	16	48	7546.875	46.5174	-69.60461	1	83.7178	-56.24483	-1.073663E-005	0.0003205	9
	17	51	5928.309	48.00639	-87.29861	1	99.6276	-61.19316	-1.168944E-005	0.000246	9
	18	53	4733.456	49.62669	-108.0489	1	118.9007	-65.33076	-1.854536E-006	0.0004194	9
	19	55	3796.875	52.07687	-133.0537	1	142.8821	-68.62476	4.062248E-006	-0.0002277	9
	20	58	2987.132	54.82081	-167.2281	1	175.9846	-71.8498	1.255632E-005	-0.0004221	9
	21	60	2390.625	59.06274	-206.5741	1	214.8517	-74.04395	-1.128033E-005	0.0002576	9
	22	62	1884.191	62.59241	-259.6458	1	267.0838	-76.4464	1.756451E-005	-0.000402	9
	23	65	1516.544	69.30534	-319.1064	1	326.5457	-77.74648	-8.046766E-006	0.0001172	9
	24	67	1193.986	77.4641	-400.6568	1	408.0766	-79.05729	-1.282562E-005	0.0005594	9
	25	69	946.5144	89.14151	-496.9664	1	504.8979	-79.83092	3.639484E-006	-0.0000977	8
	26	72	751.7689	103.8882	-617.907	1	626.5795	-80.45616	-2.552182E-006	0.001387	8
	27	74	597.4265	123.4498	-767.3765	1	777.2429	-80.86098	1.135535E-006	7.702579E-005	8
	28	76	477.4305	149.2056	-947.0772	1	958.758	-81.04702	3.856956E-007	0.0006503	8
	29	79	376.6741	186.3578	-1181.772	1	1196.375	-81.03862	3.869982E-007	0.0006507	8
	30	81	298.2954	235.9864	-1467.425	1	1486.279	-80.86411	3.819376E-007	0.0006626	8
	31	83	237.7717	300.9026	-1808.084	1	1832.952	-80.55139	3.851528E-007	0.0006525	8
	32	86	189.0121	389.1676	-2229.935	1	2263.639	-80.10046	3.80087E-007	0.0006532	8
	33	88	150.2404	507.747	-2744.571	1	2791.143	-79.51875	3.791725E-007	0.0006456	8
	34	91	119.1737	669.0739	-3378.085	1	3443.708	-78.79682	3.804285E-007	0.0006562	8
	35	93	95.0169	878.4161	-4127.456	1	4219.895	-77.98541	3.870261E-007	0.0006539	8
	36	95	75.60484	1165.598	-5051.129	1	5183.872	-77.00589	4.262452E-008	0.0006245	7
	37	98	54.50582	1747.068	-6684.66	1	6909.191	-75.3531	4.428663E-008	0.0006194	7
	38	101	45.95588	2160.376	-7712.272	1	8009.143	-74.35128	5.729373E-008	0.0006263	7
	39	103	37.20238	2815.601	-9174.783	1	9597.1	-72.93954	5.208482E-008	0.0006194	7
	40	105	30.04808	3675.445	-10869.09	1	11473.71	-71.31674	4.250677E-008	0.000616	7
	41	108	23.91582	4868.115	-12953.45	1	13838	-69.40297	5.017959E-008	0.000623	7
	42	110	18.60119	6621.605	-15567.51	1	16917.24	-66.95763	5.527742E-008	0.0006262	7
	43	112	15.02404	8533.17	-18032.4	1	19949.5	-64.67587	4.3596E-008	0.0006157	7
	44	115	12.01923	11020.47	-20736.64	1	23483.17	-62.01163	5.278905E-008	0.0006268	7
	45	117	9.450605	14275.29	-23791.44	1	27745.56	-59.0355	4.745193E-008	0.0006187	7
	46	120	7.512019	18046.59	-26748.81	1	32267.29	-55.99368	5.186397E-008	0.0006604	7
	47	122	5.978954	22419.66	-29454.76	1	37016.54	-52.72321	5.030185E-008	0.0006244	7
	48	125	4.734848	27514.83	-31952.49	1	42166.66	-49.2677	8.976494E-009	0.0006735	6
	49	129	3.75601	32972.07	-33962.47	1	47335.05	-45.84772	7.480978E-009	0.0006628	6
	50	132	3.004808	38406.67	-34779.88	1	51814.21	-42.16301	2.083772E-009	0.0007047	6
	51	138	2.372217	44238.09	-35474.02	1	56704.62	-38.72573	3.919116E-009	0.0007479	6
	52	143	1.878005	49482.34	-34733.24	1	60455.77	-35.06625	-2.283873E-009	0.0006415	6
	53	152	1.512097	54070.94	-34200.71	1	63979.34	-32.31399	-1.642012E-009	0.0007088	6
	54	162	1.201923	58787.74	-33528.99	1	67677.11	-29.69784	-8.321583E-010	0.0006328	6
	55	175	0.956633	63780.28	-33168.29	1	71889.21	-27.47623	-1.319327E-008	2.549519E-005	6
