EXPLAIN
TAG	EISPOT
TITLE	LABEL	Potentiostatic EIS	Test Identifier
DATE	LABEL	8/21/2020	Date
TIME	LABEL	23:16:10	Time
NOTES	NOTES	1	Notes...
	
PSTAT	PSTAT	REF3000-16137	Potentiostat
VDC	POTEN	0.00000E+000	T	DC Voltage (V)
FREQINIT	QUANT	3.00000E+005	Initial Freq. (Hz)
FREQFINAL	QUANT	1.00000E+000	Final Freq. (Hz)
PTSPERDEC	QUANT	1.00000E+001	Points/decade
VAC	QUANT	5.00000E+001	AC Voltage (mV rms)
AREA	QUANT	1.00000E+000	Sample Area (cm^2)
SPEED	SELECTOR	2	Optimize for:
ZGUESS	QUANT	1.00000E+003	Estimated Z (ohms)
EOC	QUANT	0	Open Circuit (V)
SEQUENCER	TOGGLE	TRUE	Run as Sequence
PSTATMODEL	IQUANT	5	Pstat Model
PSTATSECTION	LABEL	REF3000-16137	Pstat Section
PSTATSERIALNO	LABEL	16137	Pstat Serial Number
CTRLMODE	IQUANT	1	Control Mode
IESTAB	IQUANT	0	I/E Stability
CASPEED	IQUANT	1	Control Amp Speed
CONVENTION	IQUANT	1	Current Convention
ICHRANGE	IQUANT	2	Ich Range
ICHRANGEMODE	TOGGLE	F	Ich Auto Range
ICHOFFSETENABLE	TOGGLE	T	Ich Offset Enable
ICHOFFSET	QUANT	0	Ich Offset (V)
ICHFILTER	IQUANT	3	Ich Filter
VCHRANGE	IQUANT	2	Vch Range
VCHRANGEMODE	TOGGLE	F	Vch Auto Range
VCHOFFSETENABLE	TOGGLE	T	Vch Offset Enable
VCHOFFSET	QUANT	0	Vch Offset (V)
VCHFILTER	IQUANT	3	Vch Filter
ACHRANGE	IQUANT	2	Ach Range
ACHOFFSETENABLE	TOGGLE	F	Ach Offset Enable
ACHOFFSET	QUANT	0	Ach Offset (V)
ACHFILTER	IQUANT	3	Ach Filter
IERANGELOWERLIMIT	IQUANT	2	I/E Range Lower Limit
IERANGEMODE	TOGGLE	F	I/E AutoRange
IERANGE	IQUANT	11	I/E Range
POSFEEDENABLE	TOGGLE	F	Positive Feedback IR Comp
POSFEEDRESISTANCE	QUANT	0	Positive Feedback Resistance (ohm)
ACHSELECT	IQUANT	0	Ach Select
CABLEID	IQUANT	13	Cable ID
DCCALDATE	LABEL	7/31/2020	DC Calibration Date
ACCALDATE	LABEL	7/31/2020	AC Calibration Date
THERMOSELECT	IQUANT	1	Thermo Select
FRAMEWORKVERSION	QUANT	6.33	Framework Version
INSTRUMENTVERSION	LABEL	3.50	Instrument Version
COMPLIANCEVOLTAGE	IQUANT	0	Compliance Voltage
ZCURVE	TABLE
	Pt	Time	Freq	Zreal	Zimag	Zsig	Zmod	Zphz	Idc	Vdc	IERange
	#	s	Hz	ohm	ohm	V	ohm	°	A	V	#
	0	23	300046.9	667.092	-94.63953	1	673.7718	-8.074597	-5.915195E-005	0.0005115	9
	1	35	238359.4	589.7964	-64.4156	1	593.3036	-6.23295	-9.213042E-005	0.0021679	9
	2	45	189328.1	537.1094	-50.75438	1	539.5021	-5.39816	-0.0001004	0.0036765	9
	3	52	150421.9	501.8223	-42.51443	1	503.62	-4.84254	1.49889E-005	-0.0018719	9
	4	58	119484.4	484.3478	-24.7004	1	484.9772	-2.919398	-2.021516E-005	-0.0018268	8
	5	62	94921.88	469.2383	-25.70557	1	469.9418	-3.135614	-1.472324E-005	0.0059699	8
	6	64	75421.88	457.702	-29.91447	1	458.6785	-3.739417	1.487367E-005	-0.0022969	8
	7	67	59859.37	448.0182	-34.91429	1	449.3766	-4.456083	1.458233E-005	-0.0050497	8
	8	69	47578.12	439.2835	-41.07338	1	441.1995	-5.341673	1.567051E-005	-0.0040193	8
	9	72	37828.12	431.4997	-47.1875	1	434.0722	-6.240893	7.522362E-006	-0.0045326	8
	10	74	30046.88	425.1546	-54.82307	1	428.6747	-7.347661	-1.425733E-005	0.004098	8
	11	77	23859.38	419.7325	-62.78237	1	424.4019	-8.507067	-4.776659E-006	-0.0008543	8
	12	79	18984.38	417.1277	-71.8208	1	423.2656	-9.76936	1.37091E-005	-0.0018462	8
	13	82	15046.87	414.2635	-83.11649	1	422.5194	-11.34501	-1.056596E-005	0.0015339	8
	14	84	11953.13	412.4019	-93.1651	1	422.7943	-12.72992	-2.327598E-006	-0.0017639	8
	15	86	9515.62	410.8608	-106.9473	1	424.5519	-14.59035	6.914495E-006	-0.0041619	8
	16	88	7546.875	409.8825	-123.2345	1	428.0075	-16.73383	1.02918E-005	-0.0002709	8
	17	91	5928.309	408.5537	-142.1975	1	432.5925	-19.1905	1.378156E-005	-0.0038271	8
	18	93	4733.456	407.7803	-165.28	1	440.0026	-22.06352	-7.934063E-006	0.0054903	8
	19	95	3796.875	404.93	-191.5927	1	447.9689	-25.32118	-1.182613E-005	0.0049545	8
	20	98	2987.132	404.052	-230.7072	1	465.2782	-29.72567	-6.315154E-006	3.213606E-005	8
	21	100	2390.625	401.2521	-276.0485	1	487.038	-34.52672	-1.050893E-005	0.0054509	8
	22	102	1884.191	396.664	-336.6123	1	520.2405	-40.31821	2.180522E-006	-0.0027756	8
	23	105	1516.544	396.0412	-410.0194	1	570.0566	-45.99348	2.25625E-006	-0.0027572	8
	24	107	1193.986	395.0304	-508.1782	1	643.6568	-52.14042	1.222113E-005	-0.001841	8
	25	110	946.5144	395.8373	-631.0754	1	744.9452	-57.90231	-1.166412E-005	0.0041674	8
	26	112	751.7689	399.8865	-781.4977	1	877.8655	-62.90152	-5.979536E-006	0.00017	8
	27	115	597.4265	409.6555	-971.458	1	1054.3	-67.13525	9.312384E-006	-0.0002844	8
	28	117	477.4305	424.5646	-1195.205	1	1268.373	-70.44378	-5.088253E-009	0.0006421	8
	29	119	376.6741	448.2094	-1493.722	1	1559.519	-73.29749	2.256555E-008	0.000636	8
	30	122	298.2954	482.1115	-1859.504	1	1920.985	-75.46503	3.496016E-008	0.0006324	8
	31	124	237.7717	528.4747	-2298.65	1	2358.618	-77.05232	7.107735E-009	0.0006432	8
	32	127	189.0121	593.619	-2846.689	1	2907.924	-78.22093	1.298336E-008	0.0006461	8
	33	129	150.2404	682.9452	-3520.575	1	3586.205	-79.02173	2.200731E-008	0.0006459	8
	34	132	119.1737	806.4619	-4366.066	1	4439.923	-79.53477	-8.597962E-009	0.0006168	7
	35	134	95.0169	966.36	-5370.854	1	5457.099	-79.80009	-9.639353E-009	0.0006189	7
	36	136	75.60484	1179.282	-6611.054	1	6715.411	-79.88594	-1.011741E-008	0.0006235	7
	37	139	54.50582	1613.571	-8894.396	1	9039.574	-79.71755	-9.288548E-009	0.0006202	7
	38	142	45.95588	1924.646	-10361.54	1	10538.77	-79.47729	-4.81313E-009	0.0006254	7
	39	144	37.20238	2423.371	-12519.41	1	12751.8	-79.04479	-6.260988E-009	0.0006137	7
	40	146	30.04808	3096.085	-15132.54	1	15446.02	-78.43699	-8.34797E-009	0.0006236	7
	41	149	23.91582	4062.322	-18474.79	1	18916.14	-77.59889	-4.583395E-009	0.0006112	7
	42	151	18.60119	5544.72	-22952.68	1	23612.91	-76.41914	-1.152567E-010	0.0006014	7
	43	153	15.02404	7291.283	-27492.92	1	28443.34	-75.14675	-5.952716E-009	0.0006311	7
	44	156	12.01923	9761.17	-32995.91	1	34409.45	-73.52023	8.519586E-010	0.0006256	7
	45	158	9.450605	13345.82	-39824.15	1	42000.88	-71.47304	-2.91061E-009	0.0006176	7
	46	161	7.512019	17938.45	-47167.4	1	50463.37	-69.17746	-7.596986E-009	0.0006502	6
	47	163	5.978954	23797.98	-55104.61	1	60023.84	-66.64197	-7.457643E-009	0.0006834	6
	48	166	4.734848	31468.23	-63623.47	1	70980.25	-63.68295	-7.735828E-009	0.0006662	6
	49	170	3.75601	40792.54	-72202.06	1	82928.7	-60.53453	-5.077491E-009	0.0006812	6
	50	173	3.004808	51347.7	-80153.41	1	95190.1	-57.35565	-6.097008E-009	0.0006566	6
	51	177	2.372217	64259.23	-87636.38	1	108671	-53.74932	-8.494887E-009	0.0006029	6
	52	181	1.878005	78463	-93375.34	1	121964.7	-49.95977	-9.46078E-009	0.0006669	6
	53	186	1.512097	91994.45	-96139.1	1	133062.8	-46.26204	-1.130809E-008	0.0006335	6
	54	191	1.201923	105238.4	-92809.63	1	140316.6	-41.40905	-1.264168E-008	0.0006885	6
	55	204	0.956633	116351.5	-85338.91	1	144292.8	-36.25846	-2.382285E-008	2.189229E-005	6
