EXPLAIN
TAG	EISPOT
TITLE	LABEL	Potentiostatic EIS	Test Identifier
DATE	LABEL	8/21/2020	Date
TIME	LABEL	22:34:12	Time
NOTES	NOTES	1	Notes...
	
PSTAT	PSTAT	REF3000-16137	Potentiostat
VDC	POTEN	0.00000E+000	T	DC Voltage (V)
FREQINIT	QUANT	3.00000E+005	Initial Freq. (Hz)
FREQFINAL	QUANT	1.00000E+000	Final Freq. (Hz)
PTSPERDEC	QUANT	1.00000E+001	Points/decade
VAC	QUANT	5.00000E+001	AC Voltage (mV rms)
AREA	QUANT	1.00000E+000	Sample Area (cm^2)
SPEED	SELECTOR	2	Optimize for:
ZGUESS	QUANT	1.00000E+003	Estimated Z (ohms)
EOC	QUANT	0	Open Circuit (V)
SEQUENCER	TOGGLE	TRUE	Run as Sequence
PSTATMODEL	IQUANT	5	Pstat Model
PSTATSECTION	LABEL	REF3000-16137	Pstat Section
PSTATSERIALNO	LABEL	16137	Pstat Serial Number
CTRLMODE	IQUANT	1	Control Mode
IESTAB	IQUANT	0	I/E Stability
CASPEED	IQUANT	1	Control Amp Speed
CONVENTION	IQUANT	1	Current Convention
ICHRANGE	IQUANT	2	Ich Range
ICHRANGEMODE	TOGGLE	F	Ich Auto Range
ICHOFFSETENABLE	TOGGLE	T	Ich Offset Enable
ICHOFFSET	QUANT	0	Ich Offset (V)
ICHFILTER	IQUANT	3	Ich Filter
VCHRANGE	IQUANT	2	Vch Range
VCHRANGEMODE	TOGGLE	F	Vch Auto Range
VCHOFFSETENABLE	TOGGLE	T	Vch Offset Enable
VCHOFFSET	QUANT	0	Vch Offset (V)
VCHFILTER	IQUANT	3	Vch Filter
ACHRANGE	IQUANT	2	Ach Range
ACHOFFSETENABLE	TOGGLE	F	Ach Offset Enable
ACHOFFSET	QUANT	0	Ach Offset (V)
ACHFILTER	IQUANT	3	Ach Filter
IERANGELOWERLIMIT	IQUANT	2	I/E Range Lower Limit
IERANGEMODE	TOGGLE	F	I/E AutoRange
IERANGE	IQUANT	11	I/E Range
POSFEEDENABLE	TOGGLE	F	Positive Feedback IR Comp
POSFEEDRESISTANCE	QUANT	0	Positive Feedback Resistance (ohm)
ACHSELECT	IQUANT	0	Ach Select
CABLEID	IQUANT	13	Cable ID
DCCALDATE	LABEL	7/31/2020	DC Calibration Date
ACCALDATE	LABEL	7/31/2020	AC Calibration Date
THERMOSELECT	IQUANT	1	Thermo Select
FRAMEWORKVERSION	QUANT	6.33	Framework Version
INSTRUMENTVERSION	LABEL	3.50	Instrument Version
COMPLIANCEVOLTAGE	IQUANT	0	Compliance Voltage
ZCURVE	TABLE
	Pt	Time	Freq	Zreal	Zimag	Zsig	Zmod	Zphz	Idc	Vdc	IERange
	#	s	Hz	ohm	ohm	V	ohm	°	A	V	#
	0	15	300046.9	-66.62427	-4863.301	1	4863.757	-90.78487	8.847177E-005	-0.00278	9
	1	29	238359.4	-263.6945	-5941.543	1	5947.392	-92.54121	-2.425724E-006	0.0015752	9
	2	48	189328.1	349.4323	-7445.893	1	7454.087	-87.31311	1.986377E-005	-0.0021323	9
	3	56	150421.9	57.96858	-9242.621	1	9242.803	-89.64066	5.042408E-005	0.0002106	9
	4	63	119484.4	472.1976	-11563.96	1	11573.59	-87.66171	-3.124338E-005	-0.0064495	8
	5	71	94921.88	547.1694	-14424.97	1	14435.35	-87.82769	8.084354E-006	-0.007762	8
	6	80	75421.88	438.9691	-18193.73	1	18199.02	-88.61787	2.618396E-005	-0.0090387	8
	7	88	59859.37	311.4395	-22587.65	1	22589.8	-89.21005	-1.033004E-006	-0.0051949	8
	8	97	47578.12	4084.875	-30052.44	1	30328.79	-82.25951	4.018903E-007	0.0165239	7
	9	103	37828.12	719.7066	-36332.17	1	36339.3	-88.86517	-2.699297E-005	0.0097113	8
	10	112	30046.88	1260.044	-44157.58	1	44175.55	-88.3655	-2.406537E-005	0.0052072	8
	11	120	23859.38	1126.704	-56224.99	1	56236.28	-88.85199	-2.482947E-005	0.0111238	8
	12	127	18984.38	1912.61	-71841.58	1	71867.03	-88.475	1.61473E-005	-0.0093462	8
	13	134	15046.87	5163.074	-90642.52	1	90789.45	-86.73991	4.87832E-006	-0.0003614	7
	14	140	11953.13	2032.522	-114165	1	114183.1	-88.98005	7.649856E-006	-0.0180234	7
	15	145	9515.62	6659.218	-140292.8	1	140450.7	-87.2824	4.259912E-007	0.01643	7
	16	151	7546.875	8367.49	-178999.1	1	179194.5	-87.3236	3.572783E-006	-0.0249959	7
	17	157	5928.309	5443.4	-228264.3	1	228329.2	-88.63393	-5.423596E-006	0.0270387	7
	18	164	4733.456	92077.04	-182488.5	1	204402.1	-63.22615	8.181853E-006	0.0042296	8
	19	172	3796.875	23269.67	-342399.2	1	343189	-86.11212	-1.863645E-006	0.0224877	7
	20	179	2987.132	51715.96	-425977.8	1	429105.6	-83.07787	-6.767751E-006	0.0119884	7
	21	185	2390.625	128001.1	-267039.2	1	296132.1	-64.38998	-2.644265E-005	0.0075909	8
	22	193	1884.191	7373221	-4923087	1	8865731	-33.73097	-1.588644E-005	0.0005407	8
	23	202	1516.544	-27654.84	-737714.1	1	738232.3	-92.14685	7.65605E-006	-0.0186261	7
	24	213	1193.986	1528586	-2742903	1	3140078	-60.86962	-5.383267E-006	0.0033002	7
	25	221	946.5144	190083.9	-119146	1	224338.3	-32.0798	-1.003872E-005	-0.0019812	8
	26	228	751.7689	-7745436	-1.28416E+007	1	1.499661E+007	-121.0964	5.96158E-007	0.0165142	7
	27	234	597.4265	274254.1	-2336141	1	2352184	-83.30434	-3.906465E-007	0.025439	6
	28	241	477.4305	462996.1	-2934467	1	2970768	-81.03387	-9.672642E-010	0.0006217	5
	29	244	376.6741	497957.5	-3655194	1	3688958	-82.2422	-1.016411E-009	0.0006098	5
	30	248	298.2954	545159.7	-4550057	1	4582600	-83.16775	-1.056321E-009	0.0006931	5
	31	251	237.7717	527503.1	-5746141	1	5770304	-84.75488	-1.004086E-009	0.0006728	5
	32	254	189.0121	636644.4	-7062873	1	7091508	-84.8493	-1.006377E-009	0.0006272	5
	33	257	150.2404	777681.3	-9082205	1	9115439	-85.10587	-9.679972E-010	0.0005899	5
	34	260	119.1737	-175363.3	-8455173	1	8456991	-91.18816	-1.088724E-009	0.0006581	5
	35	262	95.0169	1150791	-1.383246E+007	1	1.388024E+007	-85.24423	-9.2211E-010	0.0006	5
	36	265	75.60484	1355564	-1.795786E+007	1	1.800895E+007	-85.68317	-9.468965E-010	0.0006225	5
	37	268	54.50582	1714797	-2.398349E+007	1	2.404472E+007	-85.91036	-1.005297E-009	0.0005855	5
	38	271	45.95588	1268398	-2.90255E+007	1	2.90532E+007	-87.4978	-1.02079E-009	0.0006475	5
	39	275	37.20238	5302290	-3.268324E+007	1	3.311054E+007	-80.78503	-1.029529E-009	0.0006695	5
	40	279	30.04808	3157484	-4.351028E+007	1	4.362469E+007	-85.8494	-1.004158E-009	0.0006114	5
	41	283	23.91582	1.3465E+007	-5.539737E+007	1	5.701031E+007	-76.33849	-5.617006E-011	0.0006297	4
	42	287	18.60119	3429970	-5.058893E+007	1	5.070508E+007	-86.12124	-2.73865E-010	0.0006104	4
	43	290	15.02404	1.462928E+007	-8.183211E+007	1	8.312948E+007	-79.8642	-1.1278E-010	0.0006957	4
	44	294	12.01923	2.003377E+007	-1.055157E+008	1	1.074008E+008	-79.24949	-1.062812E-010	0.0006912	4
	45	298	9.450605	2.280723E+007	-1.291643E+008	1	1.311624E+008	-79.9862	-1.121735E-010	0.0006893	4
	46	302	7.512019	3.81947E+007	-1.592565E+008	1	1.637727E+008	-76.5134	-9.593247E-011	0.0006184	4
	47	306	5.978954	5.740566E+007	-2.036871E+008	1	2.116219E+008	-74.26043	-9.580693E-011	0.0006971	4
	48	312	4.734848	1.144635E+008	-2.483122E+008	1	2.734242E+008	-65.25191	-1.053947E-011	0.0006917	3
	49	316	3.75601	1.156233E+008	-3.086786E+008	1	3.296228E+008	-69.46529	-1.016909E-009	0.0005975	5
	50	325	3.004808	1.649146E+008	-3.352917E+008	1	3.73654E+008	-63.80954	-1.015235E-009	0.0006323	5
	51	334	2.372217	2.390052E+008	-4.197741E+008	1	4.830464E+008	-60.34427	-9.90957E-012	0.0007298	3
	52	340	1.878005	3.14967E+008	-4.922771E+008	1	5.844151E+008	-57.38822	-9.938209E-012	0.0007098	3
	53	349	1.512097	4.031908E+008	-5.635011E+008	1	6.928898E+008	-54.4159	-9.804476E-012	0.0006394	3
	54	355	1.201923	5.182102E+008	-6.394093E+008	1	8.230347E+008	-50.97691	-9.665984E-012	0.0007112	3
	55	366	0.956633	6.580493E+008	-7.116918E+008	1	9.692956E+008	-47.2427	-9.94057E-012	7.824787E-005	3
