EXPLAIN
TAG	EISPOT
TITLE	LABEL	Potentiostatic EIS	Test Identifier
DATE	LABEL	8/21/2020	Date
TIME	LABEL	21:08:00	Time
NOTES	NOTES	1	Notes...
	
PSTAT	PSTAT	REF3000-16137	Potentiostat
VDC	POTEN	0.00000E+000	T	DC Voltage (V)
FREQINIT	QUANT	3.00000E+005	Initial Freq. (Hz)
FREQFINAL	QUANT	1.00000E+000	Final Freq. (Hz)
PTSPERDEC	QUANT	1.00000E+001	Points/decade
VAC	QUANT	5.00000E+001	AC Voltage (mV rms)
AREA	QUANT	1.00000E+000	Sample Area (cm^2)
SPEED	SELECTOR	2	Optimize for:
ZGUESS	QUANT	1.00000E+003	Estimated Z (ohms)
EOC	QUANT	0	Open Circuit (V)
SEQUENCER	TOGGLE	TRUE	Run as Sequence
PSTATMODEL	IQUANT	5	Pstat Model
PSTATSECTION	LABEL	REF3000-16137	Pstat Section
PSTATSERIALNO	LABEL	16137	Pstat Serial Number
CTRLMODE	IQUANT	1	Control Mode
IESTAB	IQUANT	0	I/E Stability
CASPEED	IQUANT	1	Control Amp Speed
CONVENTION	IQUANT	1	Current Convention
ICHRANGE	IQUANT	2	Ich Range
ICHRANGEMODE	TOGGLE	F	Ich Auto Range
ICHOFFSETENABLE	TOGGLE	T	Ich Offset Enable
ICHOFFSET	QUANT	0	Ich Offset (V)
ICHFILTER	IQUANT	3	Ich Filter
VCHRANGE	IQUANT	2	Vch Range
VCHRANGEMODE	TOGGLE	F	Vch Auto Range
VCHOFFSETENABLE	TOGGLE	T	Vch Offset Enable
VCHOFFSET	QUANT	0	Vch Offset (V)
VCHFILTER	IQUANT	3	Vch Filter
ACHRANGE	IQUANT	2	Ach Range
ACHOFFSETENABLE	TOGGLE	F	Ach Offset Enable
ACHOFFSET	QUANT	0	Ach Offset (V)
ACHFILTER	IQUANT	3	Ach Filter
IERANGELOWERLIMIT	IQUANT	2	I/E Range Lower Limit
IERANGEMODE	TOGGLE	F	I/E AutoRange
IERANGE	IQUANT	11	I/E Range
POSFEEDENABLE	TOGGLE	F	Positive Feedback IR Comp
POSFEEDRESISTANCE	QUANT	0	Positive Feedback Resistance (ohm)
ACHSELECT	IQUANT	0	Ach Select
CABLEID	IQUANT	13	Cable ID
DCCALDATE	LABEL	7/31/2020	DC Calibration Date
ACCALDATE	LABEL	7/31/2020	AC Calibration Date
THERMOSELECT	IQUANT	1	Thermo Select
FRAMEWORKVERSION	QUANT	6.33	Framework Version
INSTRUMENTVERSION	LABEL	3.50	Instrument Version
COMPLIANCEVOLTAGE	IQUANT	0	Compliance Voltage
ZCURVE	TABLE
	Pt	Time	Freq	Zreal	Zimag	Zsig	Zmod	Zphz	Idc	Vdc	IERange
	#	s	Hz	ohm	ohm	V	ohm	°	A	V	#
	0	7	300046.9	72.73286	-4.589504	1	72.87752	-3.610624	6.51337E-005	-0.0024822	9
	1	10	238359.4	73.42689	-6.043056	1	73.67514	-4.704857	7.988375E-006	-0.0010623	9
	2	13	189328.1	74.27929	-7.611533	1	74.66825	-5.85078	4.670683E-005	-0.0006597	9
	3	15	150421.9	75.12022	-9.471594	1	75.71498	-7.186264	1.109437E-005	-0.0010629	9
	4	18	119484.4	76.08575	-11.16685	1	76.90085	-8.349495	2.640892E-006	-0.0010305	9
	5	21	94921.88	77.40921	-13.12676	1	78.51431	-9.62444	1.841472E-005	-0.0001724	9
	6	23	75421.88	78.72134	-15.67706	1	80.26718	-11.26289	1.153192E-005	4.153239E-005	9
	7	26	59859.37	80.14338	-18.52133	1	82.25571	-13.01274	2.431966E-005	-0.0005115	9
	8	28	47578.12	81.71463	-21.82534	1	84.57911	-14.95418	2.291571E-005	-0.0004388	9
	9	31	37828.12	83.45494	-25.60998	1	87.29604	-17.05978	-1.898095E-005	0.0006042	9
	10	33	30046.88	85.21404	-30.1479	1	90.38987	-19.48328	2.033104E-005	-0.0006005	9
	11	36	23859.38	87.03562	-35.63811	1	94.04932	-22.26742	1.183021E-005	-0.0005515	9
	12	38	18984.38	88.87141	-42.2364	1	98.3974	-25.41954	-1.871692E-005	0.00065	9
	13	40	15046.87	90.68981	-50.69057	1	103.895	-29.20277	-1.809002E-005	0.0004754	9
	14	43	11953.13	92.4421	-61.10042	1	110.8098	-33.46306	2.313015E-005	-0.0005794	9
	15	45	9515.62	94.20697	-73.99718	1	119.7937	-38.14873	-1.266632E-005	0.00017	9
	16	47	7546.875	95.8163	-90.73628	1	131.9615	-43.44016	4.699384E-006	-0.0004185	9
	17	50	5928.309	97.9555	-112.7715	1	149.3743	-49.02177	1.20812E-005	0.0001115	9
	18	52	4733.456	100.0344	-138.7426	1	171.045	-54.20811	1.728242E-005	-0.0006306	9
	19	54	3796.875	102.4584	-170.2643	1	198.715	-58.96212	1.808103E-005	-0.0006562	9
	20	56	2987.132	105.5655	-213.4537	1	238.1314	-63.68487	-1.844748E-005	0.0006153	9
	21	59	2390.625	108.9387	-263.8551	1	285.4596	-67.56557	1.851257E-005	-0.0001793	9
	22	61	1884.191	114.9812	-331.5865	1	350.9562	-70.87547	3.872039E-006	0.0004063	9
	23	63	1516.544	118.3738	-407.0038	1	423.8685	-73.78335	-1.877577E-005	0.0006254	9
	24	66	1193.986	126.3275	-509.8061	1	525.2246	-76.08271	-2.461776E-006	0.0006539	8
	25	68	946.5144	134.4542	-637.0137	1	651.0487	-78.08154	-4.72908E-006	0.0019193	8
	26	71	751.7689	146.6783	-794.8633	1	808.2835	-79.54467	-4.542577E-006	0.0021148	8
	27	73	597.4265	163.4388	-989.895	1	1003.297	-80.62463	-7.128155E-007	3.217487E-005	8
	28	75	477.4305	182.2743	-1227.571	1	1241.03	-81.55422	2.767119E-007	0.0006669	8
	29	77	376.6741	209.6362	-1540.371	1	1554.571	-82.24997	2.823276E-007	0.0006447	8
	30	80	298.2954	245.3194	-1925.089	1	1940.657	-82.73779	2.865544E-007	0.0006548	8
	31	82	237.7717	291.2429	-2389.795	1	2407.476	-83.05166	2.688446E-007	0.0006516	8
	32	85	189.0121	352.7481	-2973.597	1	2994.447	-83.2348	2.76262E-007	0.0006555	8
	33	87	150.2404	434.625	-3696.567	1	3722.03	-83.29422	2.861247E-007	0.0006447	8
	34	89	119.1737	547.397	-4611.496	1	4643.871	-83.23051	2.693262E-008	0.0006262	7
	35	92	95.0169	690.2855	-5705.036	1	5746.645	-83.10099	2.419232E-008	0.0006243	7
	36	94	75.60484	881.0118	-7065.304	1	7120.021	-82.89216	2.355733E-008	0.0006205	7
	37	97	54.50582	1262.68	-9577.34	1	9660.22	-82.48942	2.369996E-008	0.0006173	7
	38	99	45.95588	1532.128	-11224.26	1	11328.34	-82.22707	2.767408E-008	0.0006382	7
	39	102	37.20238	1947.246	-13625.66	1	13764.1	-81.86692	2.532808E-008	0.0006308	7
	40	104	30.04808	2492.261	-16602.37	1	16788.39	-81.46281	2.369942E-008	0.0006268	7
	41	106	23.91582	3289.374	-20487.8	1	20750.18	-80.87885	2.42333E-008	0.000617	7
	42	109	18.60119	4435.78	-25695.29	1	26075.35	-80.20556	2.456534E-008	0.0006308	7
	43	111	15.02404	5802.506	-31189.91	1	31725.06	-79.4613	3.273205E-008	0.0006315	7
	44	113	12.01923	7748.792	-38056.14	1	38837.01	-78.49106	2.347441E-008	0.000633	7
	45	116	9.450605	10618.17	-47020.77	1	48204.76	-77.27497	5.843519E-009	0.0006777	6
	46	118	7.512019	14372.25	-57230.17	1	59007.23	-75.9028	6.758828E-009	0.0006931	6
	47	121	5.978954	19426.18	-69244.63	1	71917.98	-74.32885	3.042479E-009	0.0006657	6
	48	124	4.734848	26302.04	-83721.14	1	87755.49	-72.55923	4.61652E-009	0.0007161	6
	49	127	3.75601	35145.02	-99910.8	1	105912	-70.61997	2.668309E-009	0.0006533	6
	50	131	3.004808	46155.01	-117274.9	1	126030.5	-68.51726	4.66849E-009	0.0006519	6
	51	136	2.372217	60460.49	-137768.9	1	150451.8	-66.30551	3.33471E-009	0.0006254	6
	52	140	1.878005	77768.95	-159589.9	1	177530.2	-64.01981	3.880427E-009	0.0006708	6
	53	145	1.512097	95940	-181625.8	1	205407.9	-62.15568	4.07684E-009	0.0005542	6
	54	150	1.201923	117460.5	-207399.5	1	238351.7	-60.47501	3.614427E-009	0.0006851	6
	55	156	0.956633	140799.1	-236196.3	1	274978.3	-59.20039	3.14183E-009	6.25336E-005	6
