EXPLAIN
TAG	EISPOT
TITLE	LABEL	Potentiostatic EIS	Test Identifier
DATE	LABEL	8/21/2020	Date
TIME	LABEL	21:56:32	Time
NOTES	NOTES	1	Notes...
	
PSTAT	PSTAT	REF3000-16137	Potentiostat
VDC	POTEN	0.00000E+000	T	DC Voltage (V)
FREQINIT	QUANT	3.00000E+005	Initial Freq. (Hz)
FREQFINAL	QUANT	1.00000E+000	Final Freq. (Hz)
PTSPERDEC	QUANT	1.00000E+001	Points/decade
VAC	QUANT	5.00000E+001	AC Voltage (mV rms)
AREA	QUANT	1.00000E+000	Sample Area (cm^2)
SPEED	SELECTOR	2	Optimize for:
ZGUESS	QUANT	1.00000E+003	Estimated Z (ohms)
EOC	QUANT	0	Open Circuit (V)
SEQUENCER	TOGGLE	TRUE	Run as Sequence
PSTATMODEL	IQUANT	5	Pstat Model
PSTATSECTION	LABEL	REF3000-16137	Pstat Section
PSTATSERIALNO	LABEL	16137	Pstat Serial Number
CTRLMODE	IQUANT	1	Control Mode
IESTAB	IQUANT	0	I/E Stability
CASPEED	IQUANT	1	Control Amp Speed
CONVENTION	IQUANT	1	Current Convention
ICHRANGE	IQUANT	2	Ich Range
ICHRANGEMODE	TOGGLE	F	Ich Auto Range
ICHOFFSETENABLE	TOGGLE	T	Ich Offset Enable
ICHOFFSET	QUANT	0	Ich Offset (V)
ICHFILTER	IQUANT	3	Ich Filter
VCHRANGE	IQUANT	2	Vch Range
VCHRANGEMODE	TOGGLE	F	Vch Auto Range
VCHOFFSETENABLE	TOGGLE	T	Vch Offset Enable
VCHOFFSET	QUANT	0	Vch Offset (V)
VCHFILTER	IQUANT	3	Vch Filter
ACHRANGE	IQUANT	2	Ach Range
ACHOFFSETENABLE	TOGGLE	F	Ach Offset Enable
ACHOFFSET	QUANT	0	Ach Offset (V)
ACHFILTER	IQUANT	3	Ach Filter
IERANGELOWERLIMIT	IQUANT	2	I/E Range Lower Limit
IERANGEMODE	TOGGLE	F	I/E AutoRange
IERANGE	IQUANT	11	I/E Range
POSFEEDENABLE	TOGGLE	F	Positive Feedback IR Comp
POSFEEDRESISTANCE	QUANT	0	Positive Feedback Resistance (ohm)
ACHSELECT	IQUANT	0	Ach Select
CABLEID	IQUANT	13	Cable ID
DCCALDATE	LABEL	7/31/2020	DC Calibration Date
ACCALDATE	LABEL	7/31/2020	AC Calibration Date
THERMOSELECT	IQUANT	1	Thermo Select
FRAMEWORKVERSION	QUANT	6.33	Framework Version
INSTRUMENTVERSION	LABEL	3.50	Instrument Version
COMPLIANCEVOLTAGE	IQUANT	0	Compliance Voltage
ZCURVE	TABLE
	Pt	Time	Freq	Zreal	Zimag	Zsig	Zmod	Zphz	Idc	Vdc	IERange
	#	s	Hz	ohm	ohm	V	ohm	°	A	V	#
	0	14	300046.9	1957.945	-3763.213	1	4242.089	-62.5127	2.616663E-005	0.0009077	9
	1	32	238359.4	2953.714	-4219.849	1	5150.878	-55.00962	7.846718E-005	-0.0016667	9
	2	46	189328.1	3396.557	-4533.391	1	5664.647	-53.15831	-9.836076E-007	0.0016316	9
	3	57	150421.9	4523.311	-4840.631	1	6625.107	-46.94086	7.82486E-005	-0.0014878	9
	4	65	119484.4	5746.314	-4996.191	1	7614.595	-41.00566	1.037829E-006	-0.0018388	9
	5	78	94921.88	6982.375	-4581.177	1	8351.093	-33.26912	-2.003555E-005	0.002845	8
	6	85	75421.88	7827.543	-4323.872	1	8942.388	-28.91591	2.663615E-005	-0.0072569	8
	7	94	59859.37	8732.4	-3996.095	1	9603.31	-24.58964	8.157149E-006	0.0040247	8
	8	103	47578.12	10292.68	-2614.12	1	10619.45	-14.25059	-4.776884E-006	0.0021104	7
	9	109	37828.12	10642.9	-2219.952	1	10871.96	-11.78213	-6.629557E-007	-0.0137343	7
	10	115	30046.88	10885.57	-1898.418	1	11049.87	-9.89276	6.006064E-006	-0.008151	7
	11	120	23859.38	11160.43	-1589.033	1	11272.99	-8.103362	-5.327282E-006	0.025389	7
	12	125	18984.38	11315.55	-1425.032	1	11404.93	-7.177797	7.337815E-006	-0.0223998	7
	13	129	15046.87	11529.28	-1193.23	1	11590.87	-5.908822	2.180481E-006	0.0096624	7
	14	133	11953.13	11675.78	-1099.178	1	11727.4	-5.378075	2.239747E-006	0.00957	7
	15	137	9515.62	11837.91	-1007.008	1	11880.67	-4.862238	-6.989755E-006	0.0215746	7
	16	142	7546.875	11986.88	-970.285	1	12026.08	-4.62775	7.356863E-006	-0.0224376	7
	17	146	5928.309	12182.27	-868.2955	1	12213.18	-4.076882	-2.863464E-006	-0.0062436	7
	18	150	4733.456	12393.67	-996.317	1	12433.65	-4.596077	-2.903555E-006	-0.0061855	7
	19	154	3796.875	12539.1	-1031.577	1	12581.46	-4.703064	5.376772E-006	-0.0255265	7
	20	159	2987.132	12817.58	-1110.739	1	12865.62	-4.952733	6.690598E-006	-0.0254038	7
	21	163	2390.625	12978.55	-1193.737	1	13033.34	-5.255147	-6.203144E-006	0.0102105	7
	22	167	1884.191	13193.98	-1444.163	1	13272.78	-6.246511	-6.990679E-006	0.0171544	7
	23	171	1516.544	13384.21	-1604.493	1	13480.04	-6.835974	6.709754E-006	-0.0255247	7
	24	176	1193.986	13766.4	-1781.206	1	13881.16	-7.372424	-5.358578E-006	0.0256141	7
	25	180	946.5144	13976.25	-2090.563	1	14131.74	-8.507207	3.661715E-006	-0.0242716	7
	26	183	751.7689	14464.29	-2534.682	1	14684.7	-9.93943	7.33066E-006	-0.0223259	7
	27	185	597.4265	14714.29	-2804.007	1	14979.08	-10.78913	1.386852E-007	0.0164135	7
	28	188	477.4305	15150.67	-3198.958	1	15484.7	-11.92249	-8.786201E-008	0.0005618	7
	29	190	376.6741	15551.19	-3672.573	1	15978.96	-13.28754	-8.511713E-008	0.0005678	7
	30	192	298.2954	15960.58	-4216.11	1	16508.05	-14.79712	-9.127447E-008	0.0006686	7
	31	195	237.7717	16388.66	-4840.101	1	17088.44	-16.45357	-9.514391E-008	0.000664	7
	32	197	189.0121	16827.49	-5599.427	1	17734.66	-18.40511	-8.718588E-008	0.0006044	7
	33	200	150.2404	17243.9	-6527.664	1	18438.08	-20.73411	-9.353085E-008	0.0006635	7
	34	202	119.1737	17677.28	-7694.722	1	19279.39	-23.52295	-8.89711E-008	0.0005724	7
	35	204	95.0169	18077.14	-9106.552	1	20241.35	-26.73717	-9.541738E-008	0.0006639	7
	36	207	75.60484	18465.26	-10921.32	1	21453.23	-30.60228	-9.398751E-008	0.0006569	7
	37	209	54.50582	18961.43	-14395.66	1	23806.95	-37.20604	-8.488601E-008	0.0005812	7
	38	212	45.95588	19299.47	-16737.95	1	25546.6	-40.93428	-9.261816E-008	0.0006014	7
	39	214	37.20238	19688.02	-20254.71	1	28246.61	-45.81283	-9.093712E-008	0.0006015	7
	40	217	30.04808	20118.76	-24656.58	1	31823.13	-50.78696	-9.419124E-008	0.0006765	7
	41	219	23.91582	20639.11	-30520.31	1	36843.75	-55.93179	-9.588108E-008	0.0006381	7
	42	222	18.60119	21398.8	-38775.36	1	44288.12	-61.10719	-9.883097E-009	0.000649	6
	43	224	15.02404	22101.86	-47496.52	1	52387.13	-65.04572	-9.702066E-009	0.0007103	6
	44	226	12.01923	22994.69	-58730.93	1	63072.01	-68.61836	-9.959746E-009	0.0006305	6
	45	229	9.450605	24281.84	-73962.84	1	77846.71	-71.8251	-9.554939E-009	0.0006488	6
	46	231	7.512019	25773.29	-92193.44	1	95728.2	-74.38131	-1.014476E-008	0.0006936	6
	47	234	5.978954	27706.85	-114642.3	1	117942.9	-76.41324	-9.572626E-009	0.0006119	6
	48	237	4.734848	30255.97	-143486.2	1	146641.5	-78.09286	-9.360508E-009	0.0006659	6
	49	240	3.75601	33614.19	-178991.5	1	182120.5	-79.36387	-1.011797E-008	0.0006723	6
	50	246	3.004808	37839.2	-221451.1	1	224660.6	-80.30355	-9.041376E-009	0.0006448	6
	51	252	2.372217	43834.34	-277300.9	1	280744.1	-81.0173	-9.677188E-009	0.0006788	6
	52	256	1.878005	51266.94	-347388.8	1	351151.4	-81.605	-1.002754E-008	0.000643	6
	53	261	1.512097	59676.14	-425796.8	1	429958.3	-82.02187	-9.711773E-009	0.0006167	6
	54	266	1.201923	72829.79	-531509.8	1	536476.3	-82.19767	-1.162709E-009	0.0006287	5
	55	273	0.956633	89020.65	-659067.6	1	665052.5	-82.30758	-1.130786E-009	5.303826E-006	5
