EXPLAIN
TAG	EISPOT
TITLE	LABEL	Potentiostatic EIS	Test Identifier
DATE	LABEL	8/21/2020	Date
TIME	LABEL	20:40:30	Time
NOTES	NOTES	1	Notes...
	
PSTAT	PSTAT	REF3000-16137	Potentiostat
VDC	POTEN	0.00000E+000	T	DC Voltage (V)
FREQINIT	QUANT	3.00000E+005	Initial Freq. (Hz)
FREQFINAL	QUANT	1.00000E+000	Final Freq. (Hz)
PTSPERDEC	QUANT	1.00000E+001	Points/decade
VAC	QUANT	5.00000E+001	AC Voltage (mV rms)
AREA	QUANT	1.00000E+000	Sample Area (cm^2)
SPEED	SELECTOR	2	Optimize for:
ZGUESS	QUANT	1.00000E+003	Estimated Z (ohms)
EOC	QUANT	0	Open Circuit (V)
SEQUENCER	TOGGLE	TRUE	Run as Sequence
PSTATMODEL	IQUANT	5	Pstat Model
PSTATSECTION	LABEL	REF3000-16137	Pstat Section
PSTATSERIALNO	LABEL	16137	Pstat Serial Number
CTRLMODE	IQUANT	1	Control Mode
IESTAB	IQUANT	0	I/E Stability
CASPEED	IQUANT	1	Control Amp Speed
CONVENTION	IQUANT	1	Current Convention
ICHRANGE	IQUANT	2	Ich Range
ICHRANGEMODE	TOGGLE	F	Ich Auto Range
ICHOFFSETENABLE	TOGGLE	T	Ich Offset Enable
ICHOFFSET	QUANT	0	Ich Offset (V)
ICHFILTER	IQUANT	3	Ich Filter
VCHRANGE	IQUANT	2	Vch Range
VCHRANGEMODE	TOGGLE	F	Vch Auto Range
VCHOFFSETENABLE	TOGGLE	T	Vch Offset Enable
VCHOFFSET	QUANT	0	Vch Offset (V)
VCHFILTER	IQUANT	3	Vch Filter
ACHRANGE	IQUANT	2	Ach Range
ACHOFFSETENABLE	TOGGLE	F	Ach Offset Enable
ACHOFFSET	QUANT	0	Ach Offset (V)
ACHFILTER	IQUANT	3	Ach Filter
IERANGELOWERLIMIT	IQUANT	2	I/E Range Lower Limit
IERANGEMODE	TOGGLE	F	I/E AutoRange
IERANGE	IQUANT	11	I/E Range
POSFEEDENABLE	TOGGLE	F	Positive Feedback IR Comp
POSFEEDRESISTANCE	QUANT	0	Positive Feedback Resistance (ohm)
ACHSELECT	IQUANT	0	Ach Select
CABLEID	IQUANT	13	Cable ID
DCCALDATE	LABEL	7/31/2020	DC Calibration Date
ACCALDATE	LABEL	7/31/2020	AC Calibration Date
THERMOSELECT	IQUANT	1	Thermo Select
FRAMEWORKVERSION	QUANT	6.33	Framework Version
INSTRUMENTVERSION	LABEL	3.50	Instrument Version
COMPLIANCEVOLTAGE	IQUANT	0	Compliance Voltage
ZCURVE	TABLE
	Pt	Time	Freq	Zreal	Zimag	Zsig	Zmod	Zphz	Idc	Vdc	IERange
	#	s	Hz	ohm	ohm	V	ohm	°	A	V	#
	0	7	300046.9	41.47271	-2.76253	1	41.56462	-3.810888	5.977459E-005	-0.0023686	9
	1	10	238359.4	41.93004	-4.053565	1	42.12553	-5.521879	4.419473E-006	-0.0013646	9
	2	14	189328.1	42.46131	-5.264579	1	42.78643	-7.067766	7.230471E-006	-0.0010469	9
	3	16	150421.9	43.01136	-6.621255	1	43.51802	-8.751528	-1.8459E-005	-0.0003489	9
	4	19	119484.4	43.78	-8.101282	1	44.52325	-10.48373	-1.763552E-007	-0.0007251	9
	5	21	94921.88	44.62158	-9.58234	1	45.63887	-12.12001	-1.311166E-005	0.0003883	9
	6	24	75421.88	45.42727	-11.4928	1	46.85853	-14.19755	-7.637263E-006	1.882212E-005	9
	7	26	59859.37	46.33099	-13.69559	1	48.31284	-16.46784	-1.291668E-005	0.0004387	9
	8	29	47578.12	47.23184	-16.22127	1	49.93973	-18.95448	1.776724E-005	-0.0004326	9
	9	31	37828.12	48.17687	-19.29255	1	51.89618	-21.82376	1.974198E-005	-0.0003587	9
	10	34	30046.88	49.13903	-23.00216	1	54.25628	-25.08447	-1.066949E-005	0.0006437	9
	11	36	23859.38	50.07608	-27.64946	1	57.20233	-28.90524	2.002454E-005	-0.0003545	9
	12	39	18984.38	50.98262	-33.38054	1	60.93839	-33.21451	-1.26032E-005	0.0002367	9
	13	41	15046.87	51.90078	-40.65152	1	65.926	-38.06998	-1.460577E-005	0.0005748	9
	14	43	11953.13	52.80263	-49.84927	1	72.61589	-43.35202	-1.333884E-005	0.0002517	9
	15	46	9515.62	53.78342	-61.28997	1	81.54212	-48.73227	-7.774132E-006	0.0005427	9
	16	48	7546.875	54.95565	-75.86996	1	93.6823	-54.08268	3.782426E-006	0.0002552	9
	17	50	5928.309	56.36325	-95.0482	1	110.5033	-59.3322	1.091232E-005	5.376273E-005	9
	18	53	4733.456	58.00049	-117.5551	1	131.0849	-63.73874	1.96195E-005	-0.0003822	9
	19	55	3796.875	59.83204	-145.0316	1	156.8886	-67.58166	1.737781E-005	-0.0004772	9
	20	57	2987.132	62.80201	-182.0656	1	192.5928	-70.96855	-8.401271E-006	0.0001012	9
	21	59	2390.625	66.24675	-225.2216	1	234.7625	-73.60927	1.925875E-005	-0.000467	9
	22	62	1884.191	71.02807	-282.909	1	291.6891	-75.90643	-2.966166E-006	-8.516462E-005	9
	23	64	1516.544	75.80502	-348.5042	1	356.6533	-77.72844	1.737186E-005	-0.0004877	9
	24	66	1193.986	83.26227	-438.1253	1	445.9668	-79.2397	-1.493766E-005	0.000539	9
	25	69	946.5144	93.08179	-545.1434	1	553.033	-80.31034	-1.407824E-006	0.0016338	8
	26	71	751.7689	106.3156	-678.8472	1	687.1219	-81.0991	3.93386E-006	-0.0003828	8
	27	74	597.4265	123.3187	-846.1826	1	855.1213	-81.70835	3.956927E-006	-0.0004009	8
	28	76	477.4305	145.8495	-1046.945	1	1057.055	-82.06919	3.50716E-007	0.0006589	8
	29	78	376.6741	178.3236	-1310.696	1	1322.771	-82.25233	3.549262E-007	0.0006442	8
	30	80	298.2954	221.7551	-1633.414	1	1648.399	-82.26869	3.578164E-007	0.0006535	8
	31	83	237.7717	278.7652	-2020.581	1	2039.72	-82.14489	3.687141E-007	0.0006448	8
	32	85	189.0121	355.9467	-2502.755	1	2527.94	-81.90556	3.741012E-007	0.0006475	8
	33	88	150.2404	459.988	-3095.435	1	3129.426	-81.54758	3.713041E-007	0.0006553	8
	34	90	119.1737	600.4055	-3829.291	1	3876.075	-81.08898	3.706353E-007	0.0006537	8
	35	93	95.0169	785.5878	-4716.689	1	4781.664	-80.54391	3.938731E-008	0.0006267	7
	36	95	75.60484	1029.57	-5798.431	1	5889.126	-79.93149	3.863209E-008	0.0006227	7
	37	98	54.50582	1529.702	-7770.815	1	7919.947	-78.86359	4.183142E-008	0.0006177	7
	38	100	45.95588	1880.896	-9034.08	1	9227.805	-78.23903	5.049899E-008	0.0006298	7
	39	103	37.20238	2440.704	-10867.85	1	11138.54	-77.34251	4.59646E-008	0.000617	7
	40	105	30.04808	3199.158	-13084.89	1	13470.3	-76.26114	3.969613E-008	0.0006224	7
	41	107	23.91582	4274.463	-15895.44	1	16460.13	-74.94858	4.166053E-008	0.0006232	7
	42	110	18.60119	5884.995	-19551.96	1	20418.43	-73.24859	5.101165E-008	0.0006298	7
	43	112	15.02404	7741.431	-23196.77	1	24454.44	-71.54465	4.891521E-008	0.0006854	7
	44	114	12.01923	10245.38	-27514.16	1	29359.78	-69.5763	3.632007E-008	0.0006731	7
	45	117	9.450605	13772.86	-32784.54	1	35560.06	-67.21261	4.563083E-008	0.0006794	7
	46	119	7.512019	18064.53	-38309.2	1	42354.71	-64.75399	4.459331E-008	0.000629	7
	47	122	5.978954	23322.99	-44108.79	1	49895.37	-62.13188	1.13572E-008	0.000669	6
	48	125	4.734848	29797.37	-50388.35	1	58539.46	-59.40187	1.586895E-008	0.0006932	6
	49	128	3.75601	37462.13	-56651.75	1	67917.83	-56.52451	8.329513E-009	0.0006528	6
	50	132	3.004808	45440.38	-61801.06	1	76708.53	-53.67412	1.052312E-008	0.0006628	6
	51	135	2.372217	55166.43	-68099.08	1	87640.28	-50.98939	8.801429E-009	0.0006842	6
	52	140	1.878005	66201.67	-74339.24	1	99543.9	-48.31383	7.727832E-009	0.0006594	6
	53	144	1.512097	77104.96	-80006.19	1	111113.3	-46.05791	8.733312E-009	0.0005713	6
	54	150	1.201923	89604.62	-85635.58	1	123945.3	-43.70252	7.566419E-009	0.0006554	6
	55	156	0.956633	102757.2	-90797.03	1	137124.5	-41.46407	5.434193E-009	2.529527E-005	6
