EXPLAIN
TAG	EISPOT
TITLE	LABEL	Potentiostatic EIS	Test Identifier
DATE	LABEL	8/21/2020	Date
TIME	LABEL	22:06:16	Time
NOTES	NOTES	1	Notes...
	
PSTAT	PSTAT	REF3000-16137	Potentiostat
VDC	POTEN	0.00000E+000	T	DC Voltage (V)
FREQINIT	QUANT	3.00000E+005	Initial Freq. (Hz)
FREQFINAL	QUANT	1.00000E+000	Final Freq. (Hz)
PTSPERDEC	QUANT	1.00000E+001	Points/decade
VAC	QUANT	5.00000E+001	AC Voltage (mV rms)
AREA	QUANT	1.00000E+000	Sample Area (cm^2)
SPEED	SELECTOR	2	Optimize for:
ZGUESS	QUANT	1.00000E+003	Estimated Z (ohms)
EOC	QUANT	0	Open Circuit (V)
SEQUENCER	TOGGLE	TRUE	Run as Sequence
PSTATMODEL	IQUANT	5	Pstat Model
PSTATSECTION	LABEL	REF3000-16137	Pstat Section
PSTATSERIALNO	LABEL	16137	Pstat Serial Number
CTRLMODE	IQUANT	1	Control Mode
IESTAB	IQUANT	0	I/E Stability
CASPEED	IQUANT	1	Control Amp Speed
CONVENTION	IQUANT	1	Current Convention
ICHRANGE	IQUANT	2	Ich Range
ICHRANGEMODE	TOGGLE	F	Ich Auto Range
ICHOFFSETENABLE	TOGGLE	T	Ich Offset Enable
ICHOFFSET	QUANT	0	Ich Offset (V)
ICHFILTER	IQUANT	3	Ich Filter
VCHRANGE	IQUANT	2	Vch Range
VCHRANGEMODE	TOGGLE	F	Vch Auto Range
VCHOFFSETENABLE	TOGGLE	T	Vch Offset Enable
VCHOFFSET	QUANT	0	Vch Offset (V)
VCHFILTER	IQUANT	3	Vch Filter
ACHRANGE	IQUANT	2	Ach Range
ACHOFFSETENABLE	TOGGLE	F	Ach Offset Enable
ACHOFFSET	QUANT	0	Ach Offset (V)
ACHFILTER	IQUANT	3	Ach Filter
IERANGELOWERLIMIT	IQUANT	2	I/E Range Lower Limit
IERANGEMODE	TOGGLE	F	I/E AutoRange
IERANGE	IQUANT	11	I/E Range
POSFEEDENABLE	TOGGLE	F	Positive Feedback IR Comp
POSFEEDRESISTANCE	QUANT	0	Positive Feedback Resistance (ohm)
ACHSELECT	IQUANT	0	Ach Select
CABLEID	IQUANT	13	Cable ID
DCCALDATE	LABEL	7/31/2020	DC Calibration Date
ACCALDATE	LABEL	7/31/2020	AC Calibration Date
THERMOSELECT	IQUANT	1	Thermo Select
FRAMEWORKVERSION	QUANT	6.33	Framework Version
INSTRUMENTVERSION	LABEL	3.50	Instrument Version
COMPLIANCEVOLTAGE	IQUANT	0	Compliance Voltage
ZCURVE	TABLE
	Pt	Time	Freq	Zreal	Zimag	Zsig	Zmod	Zphz	Idc	Vdc	IERange
	#	s	Hz	ohm	ohm	V	ohm	°	A	V	#
	0	16	300046.9	427.3062	-4742.734	1	4761.944	-84.85172	8.728768E-005	-0.0027117	9
	1	30	238359.4	773.8132	-5848.065	1	5899.039	-82.46244	-8.943312E-005	0.0021619	9
	2	47	189328.1	1306.781	-7201.815	1	7319.414	-79.71548	9.004944E-005	-0.0025075	9
	3	57	150421.9	1750.518	-8545.902	1	8723.346	-78.42383	8.329848E-005	-0.0032865	9
	4	65	119484.4	2666.435	-10685.07	1	11012.74	-75.98814	-9.392115E-005	0.0334062	8
	5	75	94921.88	4346.465	-13253.71	1	13948.21	-71.84344	-2.050092E-005	0.0028149	8
	6	83	75421.88	5861.434	-15979.8	1	17020.88	-69.85683	1.626377E-005	-0.0092805	8
	7	92	59859.37	8974.16	-19667.01	1	21617.74	-65.47253	-2.366088E-005	0.0051162	8
	8	100	47578.12	14799.1	-22194.11	1	26675.67	-56.30453	6.504369E-006	-0.009581	7
	9	108	37828.12	19234.92	-24927.87	1	31486.2	-52.34539	5.259787E-006	-0.0263239	7
	10	115	30046.88	21560.52	-29083.51	1	36203.68	-53.4493	2.584059E-005	-0.0088485	8
	11	124	23859.38	29066.02	-28605.73	1	40781.39	-44.54272	2.29413E-005	-0.0026828	8
	12	131	18984.38	37206.46	-29406.95	1	47424.57	-38.32187	-1.908002E-006	0.0221501	7
	13	138	15046.87	43618.09	-29072.92	1	52419.2	-33.68478	1.394154E-006	-0.0201641	7
	14	143	11953.13	49815.27	-27711.86	1	57004.46	-29.08686	-3.256482E-006	-0.005491	7
	15	149	9515.62	54956.18	-24925.24	1	60344.42	-24.39655	6.934346E-006	-0.0270302	7
	16	154	7546.875	60173.15	-21670.67	1	63956.44	-19.8059	1.336135E-006	-0.0199653	7
	17	159	5928.309	64176.63	-18974.87	1	66922.98	-16.47117	-1.839124E-006	0.0222079	7
	18	165	4733.456	66945.48	-15697.57	1	68761.26	-13.19647	-1.832422E-006	0.0222012	7
	19	170	3796.875	68363.59	-14584.04	1	69901.89	-12.04242	6.869458E-006	-0.0268389	7
	20	175	2987.132	70967.68	-13144.4	1	72174.7	-10.49322	1.338346E-006	-0.0200961	7
	21	181	2390.625	74637.75	-20272.65	1	77341.93	-15.19573	-5.103977E-006	0.0261038	7
	22	187	1884.191	77240.99	-9523.89	1	77825.93	-7.029144	-1.849696E-006	0.0222656	7
	23	192	1516.544	78542.42	-6961.184	1	78850.3	-5.064868	-6.584742E-006	0.0258795	7
	24	198	1193.986	90898.99	-14114.11	1	91988.23	-8.825974	2.289454E-005	-0.0027065	8
	25	206	946.5144	70177.13	11774.44	1	71158.05	9.52448	-1.998141E-005	0.0025404	8
	26	212	751.7689	118003.2	17376.68	1	119275.8	8.376944	-1.238734E-005	0.0010374	9
	27	218	597.4265	89018.2	-5566.193	1	89192.05	-3.577973	3.247932E-007	0.0163428	7
	28	221	477.4305	86941.39	-7306.963	1	87247.91	-4.804117	-1.004632E-008	0.0006194	6
	29	223	376.6741	88275.84	-8259.743	1	88661.41	-5.345456	-1.098178E-008	0.0007176	6
	30	226	298.2954	89673.7	-9460.683	1	90171.38	-6.022494	-9.889258E-009	0.0007052	6
	31	228	237.7717	91254.71	-10815.9	1	91893.45	-6.759409	-9.681354E-009	0.0006885	6
	32	231	189.0121	93111.25	-12418.46	1	93935.74	-7.596838	-9.520388E-009	0.0006077	6
	33	233	150.2404	95189.1	-14309.04	1	96258.6	-8.548823	-1.029442E-008	0.0006493	6
	34	235	119.1737	97790.9	-16227.49	1	99128.1	-9.421852	-1.004806E-008	0.0006902	6
	35	238	95.0169	99885.6	-18787.87	1	101637.2	-10.65252	-9.802392E-009	0.0006552	6
	36	240	75.60484	102620.5	-21536.74	1	104856.1	-11.85253	-9.567316E-009	0.0006233	6
	37	243	54.50582	106440.7	-26175.76	1	109612	-13.81595	-9.472169E-009	0.0006059	6
	38	245	45.95588	108948.2	-28811.83	1	112693.5	-14.81301	-9.896063E-009	0.0006076	6
	39	248	37.20238	111923.9	-32824.74	1	116638	-16.34521	-1.032321E-008	0.0006996	6
	40	250	30.04808	114852.4	-37557.83	1	120837.3	-18.10825	-1.000049E-008	0.0007019	6
	41	253	23.91582	118028.8	-43610.29	1	125827.9	-20.2787	-1.068786E-008	0.0007063	6
	42	255	18.60119	121506.4	-51979.46	1	132157.7	-23.16085	-1.164083E-008	0.000708	6
	43	257	15.02404	124268.9	-61179.77	1	138512.6	-26.21183	-9.828962E-009	0.0006459	6
	44	260	12.01923	127156.8	-72895.45	1	146569.4	-29.82445	-9.742351E-009	0.000607	6
	45	262	9.450605	130234.8	-89065.69	1	157777.7	-34.36765	-1.004679E-008	0.000616	6
	46	265	7.512019	133294.7	-108708.6	1	172003.1	-39.199	-1.00303E-008	0.0007132	6
	47	268	5.978954	136984.8	-133482.7	1	191265.5	-44.25815	-9.572389E-009	0.0006625	6
	48	272	4.734848	141047.8	-165464.4	1	217423.4	-49.55455	-1.019628E-008	0.0006465	6
	49	275	3.75601	145856.2	-205443.1	1	251954.1	-54.6268	-9.588067E-009	0.0006182	6
	50	281	3.004808	151877.2	-253639	1	295634	-59.08713	-9.966232E-009	0.0007043	6
	51	287	2.372217	158634.4	-317293.2	1	354739.1	-63.43672	-1.039592E-008	0.0006588	6
	52	291	1.878005	166690.4	-397461.6	1	431000.4	-67.24744	-1.021416E-008	0.000682	6
	53	296	1.512097	175720.2	-489719.6	1	520291.1	-70.2611	-1.114261E-009	0.000733	5
	54	302	1.201923	187740.5	-611111.1	1	639299.1	-72.92243	-1.020461E-009	0.0006288	5
	55	308	0.956633	201641	-761007.9	1	787268.8	-75.15961	-1.145396E-009	-1.639687E-006	5
