EXPLAIN
TAG	EISPOT
TITLE	LABEL	Potentiostatic EIS	Test Identifier
DATE	LABEL	8/21/2020	Date
TIME	LABEL	22:27:46	Time
NOTES	NOTES	1	Notes...
	
PSTAT	PSTAT	REF3000-16137	Potentiostat
VDC	POTEN	0.00000E+000	T	DC Voltage (V)
FREQINIT	QUANT	3.00000E+005	Initial Freq. (Hz)
FREQFINAL	QUANT	1.00000E+000	Final Freq. (Hz)
PTSPERDEC	QUANT	1.00000E+001	Points/decade
VAC	QUANT	5.00000E+001	AC Voltage (mV rms)
AREA	QUANT	1.00000E+000	Sample Area (cm^2)
SPEED	SELECTOR	2	Optimize for:
ZGUESS	QUANT	1.00000E+003	Estimated Z (ohms)
EOC	QUANT	0	Open Circuit (V)
SEQUENCER	TOGGLE	TRUE	Run as Sequence
PSTATMODEL	IQUANT	5	Pstat Model
PSTATSECTION	LABEL	REF3000-16137	Pstat Section
PSTATSERIALNO	LABEL	16137	Pstat Serial Number
CTRLMODE	IQUANT	1	Control Mode
IESTAB	IQUANT	0	I/E Stability
CASPEED	IQUANT	1	Control Amp Speed
CONVENTION	IQUANT	1	Current Convention
ICHRANGE	IQUANT	2	Ich Range
ICHRANGEMODE	TOGGLE	F	Ich Auto Range
ICHOFFSETENABLE	TOGGLE	T	Ich Offset Enable
ICHOFFSET	QUANT	0	Ich Offset (V)
ICHFILTER	IQUANT	3	Ich Filter
VCHRANGE	IQUANT	2	Vch Range
VCHRANGEMODE	TOGGLE	F	Vch Auto Range
VCHOFFSETENABLE	TOGGLE	T	Vch Offset Enable
VCHOFFSET	QUANT	0	Vch Offset (V)
VCHFILTER	IQUANT	3	Vch Filter
ACHRANGE	IQUANT	2	Ach Range
ACHOFFSETENABLE	TOGGLE	F	Ach Offset Enable
ACHOFFSET	QUANT	0	Ach Offset (V)
ACHFILTER	IQUANT	3	Ach Filter
IERANGELOWERLIMIT	IQUANT	2	I/E Range Lower Limit
IERANGEMODE	TOGGLE	F	I/E AutoRange
IERANGE	IQUANT	11	I/E Range
POSFEEDENABLE	TOGGLE	F	Positive Feedback IR Comp
POSFEEDRESISTANCE	QUANT	0	Positive Feedback Resistance (ohm)
ACHSELECT	IQUANT	0	Ach Select
CABLEID	IQUANT	13	Cable ID
DCCALDATE	LABEL	7/31/2020	DC Calibration Date
ACCALDATE	LABEL	7/31/2020	AC Calibration Date
THERMOSELECT	IQUANT	1	Thermo Select
FRAMEWORKVERSION	QUANT	6.33	Framework Version
INSTRUMENTVERSION	LABEL	3.50	Instrument Version
COMPLIANCEVOLTAGE	IQUANT	0	Compliance Voltage
ZCURVE	TABLE
	Pt	Time	Freq	Zreal	Zimag	Zsig	Zmod	Zphz	Idc	Vdc	IERange
	#	s	Hz	ohm	ohm	V	ohm	°	A	V	#
	0	26	300046.9	-89.40967	-4802.158	1	4802.99	-91.06664	-3.05978E-005	-0.0012676	9
	1	47	238359.4	-515.6019	-5778.571	1	5801.528	-95.0988	-9.205819E-005	0.0021452	9
	2	70	189328.1	13.15825	-7452.349	1	7452.361	-89.89883	-9.152733E-005	0.0042768	9
	3	82	150421.9	133.4645	-9060.014	1	9060.997	-89.15603	-9.213603E-005	0.0042861	9
	4	92	119484.4	-20.32087	-11527.43	1	11527.45	-90.10101	7.720028E-005	-0.0014282	9
	5	102	94921.88	640.4468	-14497.37	1	14511.51	-87.4705	-1.23841E-005	0.0104342	8
	6	111	75421.88	1063.73	-18333.44	1	18364.28	-86.67935	-2.50971E-005	0.0110767	8
	7	120	59859.37	807.9502	-22546.06	1	22560.54	-87.94765	8.119252E-006	-0.0077496	8
	8	128	47578.12	4053.269	-30064.37	1	30336.37	-82.3217	3.469673E-006	-0.0246085	7
	9	135	37828.12	870.606	-36305.07	1	36315.51	-88.6263	2.002538E-005	3.671707E-005	9
	10	143	30046.88	1465.088	-45548.7	1	45572.25	-88.1577	-2.044016E-005	0.0027777	8
	11	153	23859.38	260.1029	-53416.63	1	53417.27	-89.72101	-1.460666E-006	-0.0050884	8
	12	160	18984.38	5101.875	-71579.66	1	71761.24	-85.92311	3.626781E-006	-0.0248589	7
	13	165	15046.87	6750.087	-90375.73	1	90627.46	-85.72855	7.757897E-006	-0.0246176	7
	14	171	11953.13	12171.52	-108334	1	109015.6	-83.5896	-2.654358E-005	0.0076146	8
	15	179	9515.62	13134.88	-128235.4	1	128906.3	-84.15171	-1.237349E-005	0.0103994	8
	16	188	7546.875	9651.54	-177905.3	1	178166.9	-86.89469	7.379597E-006	-0.0237062	7
	17	194	5928.309	-10962.92	-224548.7	1	224816.2	-92.79507	2.78005E-006	0.0086206	7
	18	200	4733.456	39858.07	-298514.1	1	301163.3	-82.39476	-6.883334E-007	0.0262917	6
	19	206	3796.875	14927.22	-342997.5	1	343322.2	-87.50806	-2.707364E-005	0.0097242	8
	20	214	2987.132	-418693.1	-555148.7	1	695337.3	-127.0236	2.838112E-005	-0.0004608	9
	21	222	2390.625	-102309.6	-577723.6	1	586712.7	-100.0424	-9.400441E-006	-0.0022124	8
	22	232	1884.191	276936.1	-643068.4	1	700164.7	-66.70097	-3.814938E-006	0.0256994	7
	23	240	1516.544	103243.4	-1054585	1	1059627	-84.40858	-5.412367E-006	0.0036142	7
	24	246	1193.986	90171.35	-884162.5	1	888748.7	-84.17682	-6.619247E-006	0.0261651	7
	25	253	946.5144	-590101.6	-1312384	1	1438948	-114.2106	-6.606268E-006	0.0115173	7
	26	259	751.7689	171772.5	-460659.3	1	491643	-69.55032	-6.543213E-007	-0.0052827	8
	27	266	597.4265	218379.6	-2031489	1	2043192	-83.86442	-1.715031E-008	0.0181895	6
	28	270	477.4305	610796.1	-2893936	1	2957691	-78.08202	-1.116351E-009	0.0006878	5
	29	272	376.6741	339791.3	-3502128	1	3518574	-84.45827	-9.573145E-009	0.0005961	6
	30	277	298.2954	873645.1	-4459356	1	4544130	-78.91541	-9.84918E-010	0.0005896	5
	31	280	237.7717	1082584	-5425987	1	5532930	-78.71661	-1.007953E-009	0.0006731	5
	32	283	189.0121	1441561	-6855959	1	7005874	-78.12574	-1.03105E-009	0.0006181	5
	33	286	150.2404	1652603	-8409800	1	8570638	-78.88251	-1.023641E-009	0.0006735	5
	34	289	119.1737	4363819	-1.561874E+007	1	1.62169E+007	-74.38982	-1.02988E-009	0.0006424	5
	35	291	95.0169	3546077	-1.261998E+007	1	1.310872E+007	-74.30521	-1.062309E-009	0.0006753	5
	36	294	75.60484	4876470	-1.526537E+007	1	1.602534E+007	-72.2841	-1.064041E-009	0.0006024	5
	37	297	54.50582	8904722	-1.998263E+007	1	2.187692E+007	-65.98115	-1.001558E-009	0.0005795	5
	38	300	45.95588	1.481972E+007	-2.397952E+007	1	2.818938E+007	-58.28329	-1.35123E-010	0.0006934	4
	39	303	37.20238	1.765459E+007	-2.571662E+007	1	3.119341E+007	-55.5302	-9.278864E-010	0.00061	5
	40	307	30.04808	1.989278E+007	-2.81128E+007	1	3.443911E+007	-54.71656	-1.082178E-009	0.0006558	5
	41	311	23.91582	2.852806E+007	-3.454875E+007	1	4.480476E+007	-50.45237	-1.082854E-009	0.0006183	5
	42	315	18.60119	3.706602E+007	-2.165803E+007	1	4.292972E+007	-30.29815	-2.45134E-010	0.0007113	4
	43	318	15.02404	4.348666E+007	-3.191404E+007	1	5.394067E+007	-36.27424	-1.062148E-010	0.0006096	4
	44	322	12.01923	4.855924E+007	-3.061809E+007	1	5.740616E+007	-32.23269	-1.07513E-010	0.0006257	4
	45	326	9.450605	5.709747E+007	-3.009329E+007	1	6.454244E+007	-27.79153	-8.700606E-011	0.0006942	4
	46	330	7.512019	6.180997E+007	-2.622295E+007	1	6.71425E+007	-22.98914	-9.462905E-011	0.0006758	4
	47	334	5.978954	6.708122E+007	-2.520619E+007	1	7.16606E+007	-20.59402	-9.485964E-011	0.0007166	4
	48	340	4.734848	8.010812E+007	-1.330095E+007	1	8.120484E+007	-9.427241	-1.267601E-011	0.0007026	3
	49	345	3.75601	8.243906E+007	-1.145382E+007	1	8.323093E+007	-7.909858	-1.319695E-011	0.0007382	3
	50	350	3.004808	8.613825E+007	-1.021423E+007	1	8.674174E+007	-6.762528	-1.520743E-011	0.0007771	3
	51	356	2.372217	8.911719E+007	-9.526897E+006	1	8.962498E+007	-6.101918	-1.311838E-011	0.0007903	3
	52	361	1.878005	9.183058E+007	-8872521	1	9.225822E+007	-5.518694	-1.656313E-011	0.0006974	3
	53	365	1.512097	9.513154E+007	-8554116	1	9.551535E+007	-5.138151	-1.746539E-011	0.0007902	3
	54	371	1.201923	9.907838E+007	-8451465	1	9.943818E+007	-4.875574	-1.283461E-011	0.0006875	3
	55	377	0.956633	1.036919E+008	-8671984	1	1.040539E+008	-4.780647	-2.812954E-011	8.151562E-005	3
