EXPLAIN
TAG	EISPOT
TITLE	LABEL	Potentiostatic EIS	Test Identifier
DATE	LABEL	8/21/2020	Date
TIME	LABEL	20:59:44	Time
NOTES	NOTES	1	Notes...
	
PSTAT	PSTAT	REF3000-16137	Potentiostat
VDC	POTEN	0.00000E+000	T	DC Voltage (V)
FREQINIT	QUANT	3.00000E+005	Initial Freq. (Hz)
FREQFINAL	QUANT	1.00000E+000	Final Freq. (Hz)
PTSPERDEC	QUANT	1.00000E+001	Points/decade
VAC	QUANT	5.00000E+001	AC Voltage (mV rms)
AREA	QUANT	1.00000E+000	Sample Area (cm^2)
SPEED	SELECTOR	2	Optimize for:
ZGUESS	QUANT	1.00000E+003	Estimated Z (ohms)
EOC	QUANT	0	Open Circuit (V)
SEQUENCER	TOGGLE	TRUE	Run as Sequence
PSTATMODEL	IQUANT	5	Pstat Model
PSTATSECTION	LABEL	REF3000-16137	Pstat Section
PSTATSERIALNO	LABEL	16137	Pstat Serial Number
CTRLMODE	IQUANT	1	Control Mode
IESTAB	IQUANT	0	I/E Stability
CASPEED	IQUANT	1	Control Amp Speed
CONVENTION	IQUANT	1	Current Convention
ICHRANGE	IQUANT	2	Ich Range
ICHRANGEMODE	TOGGLE	F	Ich Auto Range
ICHOFFSETENABLE	TOGGLE	T	Ich Offset Enable
ICHOFFSET	QUANT	0	Ich Offset (V)
ICHFILTER	IQUANT	3	Ich Filter
VCHRANGE	IQUANT	2	Vch Range
VCHRANGEMODE	TOGGLE	F	Vch Auto Range
VCHOFFSETENABLE	TOGGLE	T	Vch Offset Enable
VCHOFFSET	QUANT	0	Vch Offset (V)
VCHFILTER	IQUANT	3	Vch Filter
ACHRANGE	IQUANT	2	Ach Range
ACHOFFSETENABLE	TOGGLE	F	Ach Offset Enable
ACHOFFSET	QUANT	0	Ach Offset (V)
ACHFILTER	IQUANT	3	Ach Filter
IERANGELOWERLIMIT	IQUANT	2	I/E Range Lower Limit
IERANGEMODE	TOGGLE	F	I/E AutoRange
IERANGE	IQUANT	11	I/E Range
POSFEEDENABLE	TOGGLE	F	Positive Feedback IR Comp
POSFEEDRESISTANCE	QUANT	0	Positive Feedback Resistance (ohm)
ACHSELECT	IQUANT	0	Ach Select
CABLEID	IQUANT	13	Cable ID
DCCALDATE	LABEL	7/31/2020	DC Calibration Date
ACCALDATE	LABEL	7/31/2020	AC Calibration Date
THERMOSELECT	IQUANT	1	Thermo Select
FRAMEWORKVERSION	QUANT	6.33	Framework Version
INSTRUMENTVERSION	LABEL	3.50	Instrument Version
COMPLIANCEVOLTAGE	IQUANT	0	Compliance Voltage
ZCURVE	TABLE
	Pt	Time	Freq	Zreal	Zimag	Zsig	Zmod	Zphz	Idc	Vdc	IERange
	#	s	Hz	ohm	ohm	V	ohm	°	A	V	#
	0	6	300046.9	58.70469	-3.829605	1	58.82947	-3.732406	-1.158213E-006	0.0003954	9
	1	10	238359.4	59.41465	-5.236981	1	59.645	-5.0372	-3.01478E-005	-0.0004179	9
	2	13	189328.1	60.06984	-6.71248	1	60.44372	-6.376042	-5.263181E-005	0.002097	9
	3	15	150421.9	60.97548	-8.188244	1	61.52281	-7.648351	5.607297E-005	-0.001444	9
	4	18	119484.4	61.81202	-10.07366	1	62.62751	-9.256257	-7.890052E-006	0.0008384	9
	5	20	94921.88	62.89904	-11.79457	1	63.99533	-10.62054	-1.642793E-005	0.0003698	9
	6	23	75421.88	64.0015	-14.04564	1	65.5246	-12.37779	-1.449933E-005	0.0006438	9
	7	25	59859.37	65.20829	-16.6248	1	67.29417	-14.30282	1.915903E-005	-0.0006054	9
	8	28	47578.12	66.50936	-19.65292	1	69.35223	-16.46194	-6.496584E-006	-3.366185E-005	9
	9	30	37828.12	67.88614	-23.1657	1	71.72989	-18.84187	1.258215E-005	9.044603E-005	9
	10	33	30046.88	69.31698	-27.43064	1	74.54719	-21.59007	2.183116E-005	-0.0005134	9
	11	35	23859.38	70.76304	-32.52172	1	77.87856	-24.68286	-1.533196E-005	0.0004783	9
	12	38	18984.38	72.16297	-38.97629	1	82.01613	-28.37414	-1.597643E-005	0.0006164	9
	13	40	15046.87	73.51838	-47.03661	1	87.27769	-32.61087	1.499136E-005	5.355184E-005	9
	14	42	11953.13	74.92784	-56.94418	1	94.11069	-37.23436	5.035137E-006	-0.0003943	9
	15	45	9515.62	76.32545	-69.51655	1	103.2382	-42.32698	1.540328E-005	-0.0005636	9
	16	47	7546.875	77.72168	-85.59153	1	115.6139	-47.75887	-3.232395E-006	0.0006112	9
	17	49	5928.309	79.47577	-106.7693	1	133.1018	-53.33714	1.020323E-005	-0.0004862	9
	18	52	4733.456	81.27676	-131.802	1	154.8472	-58.3396	-3.095139E-006	0.0005582	9
	19	54	3796.875	83.63284	-161.9621	1	182.2805	-62.6894	-1.626454E-005	0.0007202	9
	20	56	2987.132	86.19452	-203.5326	1	221.0317	-67.04771	-9.023173E-006	6.752835E-005	9
	21	59	2390.625	89.9367	-251.2541	1	266.8655	-70.30511	7.115828E-006	-0.0004426	9
	22	61	1884.191	93.99908	-315.9084	1	329.5966	-73.42953	-1.346623E-005	0.0002312	9
	23	63	1516.544	99.4675	-389.0414	1	401.5557	-75.65823	-1.308521E-005	0.0002153	9
	24	66	1193.986	106.2917	-487.6193	1	499.0696	-77.70297	-1.95239E-006	0.0006775	8
	25	68	946.5144	114.962	-609.9772	1	620.7161	-79.32671	-5.459322E-007	0.0001627	8
	26	70	751.7689	127.3334	-760.3903	1	770.9781	-80.49358	-3.52088E-006	0.0020371	8
	27	73	597.4265	143.0385	-947.4929	1	958.229	-81.41515	4.85937E-006	-0.00034	8
	28	75	477.4305	163.4928	-1174.06	1	1185.389	-82.0723	3.197553E-007	0.0006534	8
	29	77	376.6741	191.9228	-1472.639	1	1485.093	-82.57474	3.231231E-007	0.0006464	8
	30	80	298.2954	229.1854	-1839.608	1	1853.829	-82.89846	3.185486E-007	0.0006518	8
	31	82	237.7717	277.8871	-2282.356	1	2299.21	-83.05814	3.279413E-007	0.0006495	8
	32	84	189.0121	344.9812	-2838.006	1	2858.896	-83.06927	3.143892E-007	0.0006552	8
	33	87	150.2404	433.7745	-3524.333	1	3550.927	-82.98333	3.234948E-007	0.0006487	8
	34	89	119.1737	555.2866	-4387.034	1	4422.037	-82.78618	3.37708E-008	0.0006225	7
	35	92	95.0169	711.6871	-5418.634	1	5465.171	-82.51756	2.98348E-008	0.0006224	7
	36	94	75.60484	918.0668	-6696.089	1	6758.732	-82.19314	2.832228E-008	0.0006232	7
	37	97	54.50582	1331.178	-9049.864	1	9147.244	-81.63216	2.96621E-008	0.0006157	7
	38	99	45.95588	1622.507	-10580.59	1	10704.27	-81.28175	3.461182E-008	0.000626	7
	39	102	37.20238	2084.224	-12825.95	1	12994.19	-80.77008	3.121991E-008	0.0006327	7
	40	104	30.04808	2681.07	-15553.19	1	15782.58	-80.21944	3.030449E-008	0.0006169	7
	41	106	23.91582	3541.85	-19098.94	1	19424.58	-79.494	3.272269E-008	0.0006131	7
	42	109	18.60119	4880.6	-23950.57	1	24442.79	-78.48208	2.798345E-008	0.0006214	7
	43	111	15.02404	6408.529	-28922.15	1	29623.64	-77.50634	3.952593E-008	0.0006306	7
	44	113	12.01923	8605.048	-35062.13	1	36102.63	-76.21085	2.990837E-008	0.0006226	7
	45	116	9.450605	11812.08	-42951.41	1	44546.03	-74.6232	2.628988E-009	0.0006717	6
	46	118	7.512019	15930.19	-51784.04	1	54178.94	-72.90067	2.589265E-009	0.0006917	6
	47	121	5.978954	21289.12	-61872.95	1	65433.08	-71.01279	4.561084E-009	0.0006749	6
	48	124	4.734848	28422.45	-73552.05	1	78852.64	-68.87215	4.255824E-009	0.000643	6
	49	127	3.75601	37446	-86381.39	1	94148.54	-66.56345	8.297531E-009	0.0006898	6
	50	131	3.004808	47991.96	-99847.9	1	110782.8	-64.32871	7.937799E-009	0.000653	6
	51	134	2.372217	61494.38	-115100.4	1	130497.7	-61.88586	6.413496E-009	0.0005978	6
	52	139	1.878005	76671.96	-131382.3	1	152118	-59.73306	7.339997E-009	0.0006735	6
	53	143	1.512097	92370.11	-147485.1	1	174023.3	-57.94104	6.596035E-009	0.000614	6
	54	149	1.201923	111125.7	-166673.4	1	200322.1	-56.30753	6.088773E-009	0.0006937	6
	55	155	0.956633	131683.6	-188060.8	1	229581	-54.99959	4.137759E-009	2.458352E-005	6
