EXPLAIN
TAG	EISPOT
TITLE	LABEL	Potentiostatic EIS	Test Identifier
DATE	LABEL	8/21/2020	Date
TIME	LABEL	20:48:45	Time
NOTES	NOTES	1	Notes...
	
PSTAT	PSTAT	REF3000-16137	Potentiostat
VDC	POTEN	0.00000E+000	T	DC Voltage (V)
FREQINIT	QUANT	3.00000E+005	Initial Freq. (Hz)
FREQFINAL	QUANT	1.00000E+000	Final Freq. (Hz)
PTSPERDEC	QUANT	1.00000E+001	Points/decade
VAC	QUANT	5.00000E+001	AC Voltage (mV rms)
AREA	QUANT	1.00000E+000	Sample Area (cm^2)
SPEED	SELECTOR	2	Optimize for:
ZGUESS	QUANT	1.00000E+003	Estimated Z (ohms)
EOC	QUANT	0	Open Circuit (V)
SEQUENCER	TOGGLE	TRUE	Run as Sequence
PSTATMODEL	IQUANT	5	Pstat Model
PSTATSECTION	LABEL	REF3000-16137	Pstat Section
PSTATSERIALNO	LABEL	16137	Pstat Serial Number
CTRLMODE	IQUANT	1	Control Mode
IESTAB	IQUANT	0	I/E Stability
CASPEED	IQUANT	1	Control Amp Speed
CONVENTION	IQUANT	1	Current Convention
ICHRANGE	IQUANT	2	Ich Range
ICHRANGEMODE	TOGGLE	F	Ich Auto Range
ICHOFFSETENABLE	TOGGLE	T	Ich Offset Enable
ICHOFFSET	QUANT	0	Ich Offset (V)
ICHFILTER	IQUANT	3	Ich Filter
VCHRANGE	IQUANT	2	Vch Range
VCHRANGEMODE	TOGGLE	F	Vch Auto Range
VCHOFFSETENABLE	TOGGLE	T	Vch Offset Enable
VCHOFFSET	QUANT	0	Vch Offset (V)
VCHFILTER	IQUANT	3	Vch Filter
ACHRANGE	IQUANT	2	Ach Range
ACHOFFSETENABLE	TOGGLE	F	Ach Offset Enable
ACHOFFSET	QUANT	0	Ach Offset (V)
ACHFILTER	IQUANT	3	Ach Filter
IERANGELOWERLIMIT	IQUANT	2	I/E Range Lower Limit
IERANGEMODE	TOGGLE	F	I/E AutoRange
IERANGE	IQUANT	11	I/E Range
POSFEEDENABLE	TOGGLE	F	Positive Feedback IR Comp
POSFEEDRESISTANCE	QUANT	0	Positive Feedback Resistance (ohm)
ACHSELECT	IQUANT	0	Ach Select
CABLEID	IQUANT	13	Cable ID
DCCALDATE	LABEL	7/31/2020	DC Calibration Date
ACCALDATE	LABEL	7/31/2020	AC Calibration Date
THERMOSELECT	IQUANT	1	Thermo Select
FRAMEWORKVERSION	QUANT	6.33	Framework Version
INSTRUMENTVERSION	LABEL	3.50	Instrument Version
COMPLIANCEVOLTAGE	IQUANT	0	Compliance Voltage
ZCURVE	TABLE
	Pt	Time	Freq	Zreal	Zimag	Zsig	Zmod	Zphz	Idc	Vdc	IERange
	#	s	Hz	ohm	ohm	V	ohm	°	A	V	#
	0	7	300046.9	47.31207	-3.239796	1	47.42287	-3.917337	6.02979E-006	-0.0014796	9
	1	10	238359.4	47.69403	-4.464606	1	47.90253	-5.347836	-6.040425E-005	0.0012744	9
	2	13	189328.1	48.29299	-5.777813	1	48.63739	-6.822485	1.605128E-005	-0.0006356	9
	3	15	150421.9	49.00546	-7.203141	1	49.53201	-8.361831	2.926942E-005	-0.0001023	9
	4	18	119484.4	49.72719	-8.893115	1	50.51615	-10.13948	-4.665189E-005	0.0018243	9
	5	20	94921.88	50.6771	-10.37299	1	51.72782	-11.56796	-9.967177E-006	0.0006242	9
	6	23	75421.88	51.59237	-12.41035	1	53.06401	-13.52532	-6.884623E-006	0.0005855	9
	7	26	59859.37	52.58569	-14.75503	1	54.61653	-15.6736	2.166517E-005	-0.0004254	9
	8	28	47578.12	53.67997	-17.52787	1	56.46915	-18.08317	-3.392697E-006	0.0004425	9
	9	31	37828.12	54.74075	-20.71413	1	58.52884	-20.72685	-8.961964E-006	0.0000962	9
	10	33	30046.88	55.85432	-24.68367	1	61.06544	-23.84205	2.018692E-005	-0.0004793	9
	11	36	23859.38	56.97574	-29.49817	1	64.159	-27.37206	1.489019E-005	-0.0005273	9
	12	38	18984.38	58.02591	-35.46792	1	68.0072	-31.43506	-1.149664E-005	0.0006901	9
	13	40	15046.87	59.09269	-43.0717	1	73.12399	-36.0877	-1.408284E-005	0.000661	9
	14	43	11953.13	60.1285	-52.67741	1	79.93964	-41.22097	2.010743E-005	-0.0002498	9
	15	45	9515.62	61.21652	-64.66257	1	89.0433	-46.56813	-1.625094E-005	0.0005379	9
	16	47	7546.875	62.54145	-79.81966	1	101.4032	-51.92007	1.953021E-005	-0.0004819	9
	17	50	5928.309	64.07862	-99.9073	1	118.6909	-57.32466	1.982761E-005	-0.0004782	9
	18	52	4733.456	65.72418	-123.4949	1	139.8951	-61.97801	-1.497503E-005	0.0006382	9
	19	54	3796.875	67.61485	-152.178	1	166.523	-66.04374	-3.182554E-006	-0.0001143	9
	20	56	2987.132	70.36992	-191.0799	1	203.6258	-69.78252	-2.301375E-006	0.0004913	9
	21	59	2390.625	74.44827	-236.1367	1	247.5946	-72.50118	-1.412002E-005	0.0006414	9
	22	61	1884.191	78.31777	-296.4392	1	306.6103	-75.20087	3.529934E-006	-0.0003073	9
	23	63	1516.544	83.378	-365.9507	1	375.3289	-77.16486	-1.525682E-005	0.0004602	9
	24	66	1193.986	90.76052	-459.9288	1	468.7984	-78.83691	-1.606735E-005	0.000472	9
	25	68	946.5144	99.0526	-572.3353	1	580.8435	-80.18122	4.200789E-006	-0.0001669	8
	26	71	751.7689	112.1408	-713.5253	1	722.2838	-81.0682	-2.361433E-006	0.0017994	8
	27	73	597.4265	127.2755	-889.6966	1	898.7542	-81.85879	-5.975281E-007	0.0015252	8
	28	75	477.4305	149.7355	-1101.38	1	1111.512	-82.25795	3.367506E-007	0.0006481	8
	29	77	376.6741	180.0793	-1380.466	1	1392.162	-82.56783	3.515931E-007	0.0006486	8
	30	80	298.2954	220.5131	-1722.694	1	1736.75	-82.70554	3.499175E-007	0.0006493	8
	31	82	237.7717	273.5497	-2134.448	1	2151.906	-82.69682	3.549593E-007	0.0006474	8
	32	85	189.0121	345.4566	-2648.319	1	2670.756	-82.56809	3.575791E-007	0.0006534	8
	33	87	150.2404	444.5434	-3282.396	1	3312.362	-82.28721	3.587492E-007	0.0006536	8
	34	89	119.1737	577.864	-4068.344	1	4109.179	-81.91583	3.480082E-007	0.0006606	8
	35	92	95.0169	749.7779	-5021.987	1	5077.649	-81.50851	3.379776E-008	0.0006279	7
	36	94	75.60484	976.291	-6190.456	1	6266.968	-81.03776	3.180605E-008	0.0006229	7
	37	97	54.50582	1438.495	-8334.293	1	8457.523	-80.20726	3.534979E-008	0.0006232	7
	38	99	45.95588	1758.245	-9713.45	1	9871.3	-79.73991	4.281124E-008	0.0006329	7
	39	102	37.20238	2282.868	-11749.17	1	11968.9	-79.00442	3.08361E-008	0.0006781	7
	40	104	30.04808	2976.699	-14210.94	1	14519.36	-78.16957	3.190936E-008	0.0006313	7
	41	106	23.91582	3960.076	-17370.37	1	17816.06	-77.15727	3.729787E-008	0.0006244	7
	42	109	18.60119	5460.221	-21531.82	1	22213.36	-75.77041	4.294104E-008	0.0006281	7
	43	111	15.02404	7174.134	-25770.92	1	26750.86	-74.44381	4.308556E-008	0.0006376	7
	44	113	12.01923	9581.81	-30918.45	1	32369.15	-72.78148	4.317814E-008	0.0006412	7
	45	116	9.450605	13045.5	-37376.23	1	39587.46	-70.75938	3.810166E-008	0.0006152	7
	46	118	7.512019	17331.04	-44308.86	1	47577.72	-68.63746	1.049988E-008	0.0006598	6
	47	121	5.978954	22838.9	-51949.09	1	56747.89	-66.26778	1.154894E-008	0.0006733	6
	48	124	4.734848	29780.99	-60508.76	1	67440.47	-63.79467	7.9753E-009	0.0006477	6
	49	127	3.75601	38194.09	-69458.69	1	79267.26	-61.19439	1.286516E-008	0.0006904	6
	50	131	3.004808	47747.25	-78499.57	1	91880.27	-58.69	1.035316E-008	0.0006775	6
	51	135	2.372217	59291.7	-88368.98	1	106417	-56.14013	1.057109E-008	0.0006756	6
	52	139	1.878005	72416.44	-98383.6	1	122161.7	-53.64463	1.073441E-008	0.0006541	6
	53	143	1.512097	85517.49	-108223.2	1	137933	-51.68438	8.850069E-009	0.000805	6
	54	149	1.201923	100879	-119150.8	1	156120.1	-49.7471	9.383327E-009	0.0006574	6
	55	155	0.956633	117703.4	-130895.4	1	176033.3	-48.03758	4.775365E-009	3.333404E-005	6
