EXPLAIN
TAG	EISPOT
TITLE	LABEL	Potentiostatic EIS	Test Identifier
DATE	LABEL	8/21/2020	Date
TIME	LABEL	20:29:01	Time
NOTES	NOTES	1	Notes...
	
PSTAT	PSTAT	REF3000-16137	Potentiostat
VDC	POTEN	0.00000E+000	T	DC Voltage (V)
FREQINIT	QUANT	3.00000E+005	Initial Freq. (Hz)
FREQFINAL	QUANT	1.00000E+000	Final Freq. (Hz)
PTSPERDEC	QUANT	1.00000E+001	Points/decade
VAC	QUANT	5.00000E+001	AC Voltage (mV rms)
AREA	QUANT	1.00000E+000	Sample Area (cm^2)
SPEED	SELECTOR	2	Optimize for:
ZGUESS	QUANT	1.00000E+003	Estimated Z (ohms)
EOC	QUANT	0	Open Circuit (V)
SEQUENCER	TOGGLE	TRUE	Run as Sequence
PSTATMODEL	IQUANT	5	Pstat Model
PSTATSECTION	LABEL	REF3000-16137	Pstat Section
PSTATSERIALNO	LABEL	16137	Pstat Serial Number
CTRLMODE	IQUANT	1	Control Mode
IESTAB	IQUANT	0	I/E Stability
CASPEED	IQUANT	1	Control Amp Speed
CONVENTION	IQUANT	1	Current Convention
ICHRANGE	IQUANT	2	Ich Range
ICHRANGEMODE	TOGGLE	F	Ich Auto Range
ICHOFFSETENABLE	TOGGLE	T	Ich Offset Enable
ICHOFFSET	QUANT	0	Ich Offset (V)
ICHFILTER	IQUANT	3	Ich Filter
VCHRANGE	IQUANT	2	Vch Range
VCHRANGEMODE	TOGGLE	F	Vch Auto Range
VCHOFFSETENABLE	TOGGLE	T	Vch Offset Enable
VCHOFFSET	QUANT	0	Vch Offset (V)
VCHFILTER	IQUANT	3	Vch Filter
ACHRANGE	IQUANT	2	Ach Range
ACHOFFSETENABLE	TOGGLE	F	Ach Offset Enable
ACHOFFSET	QUANT	0	Ach Offset (V)
ACHFILTER	IQUANT	3	Ach Filter
IERANGELOWERLIMIT	IQUANT	2	I/E Range Lower Limit
IERANGEMODE	TOGGLE	F	I/E AutoRange
IERANGE	IQUANT	11	I/E Range
POSFEEDENABLE	TOGGLE	F	Positive Feedback IR Comp
POSFEEDRESISTANCE	QUANT	0	Positive Feedback Resistance (ohm)
ACHSELECT	IQUANT	0	Ach Select
CABLEID	IQUANT	13	Cable ID
DCCALDATE	LABEL	7/31/2020	DC Calibration Date
ACCALDATE	LABEL	7/31/2020	AC Calibration Date
THERMOSELECT	IQUANT	1	Thermo Select
FRAMEWORKVERSION	QUANT	6.33	Framework Version
INSTRUMENTVERSION	LABEL	3.50	Instrument Version
COMPLIANCEVOLTAGE	IQUANT	0	Compliance Voltage
ZCURVE	TABLE
	Pt	Time	Freq	Zreal	Zimag	Zsig	Zmod	Zphz	Idc	Vdc	IERange
	#	s	Hz	ohm	ohm	V	ohm	°	A	V	#
	0	7	300046.9	36.18622	-2.477899	1	36.27096	-3.917289	5.913405E-006	-0.0014262	9
	1	10	238359.4	36.53381	-3.569135	1	36.70773	-5.57975	3.595271E-006	-0.00109	9
	2	14	189328.1	37.0173	-4.753663	1	37.32128	-7.31772	3.703292E-006	-0.0008569	9
	3	16	150421.9	37.54554	-6.019589	1	38.02504	-9.108582	1.156021E-005	0.0001543	9
	4	19	119484.4	38.14779	-7.258112	1	38.83212	-10.77251	5.224793E-005	-0.0016461	9
	5	21	94921.88	38.92441	-8.688721	1	39.88237	-12.58329	-1.038244E-006	0.0003036	9
	6	24	75421.88	39.61074	-10.38215	1	40.94875	-14.6871	-6.568492E-006	3.80402E-005	9
	7	26	59859.37	40.37168	-12.41092	1	42.23628	-17.0883	3.126537E-006	-0.0003002	9
	8	29	47578.12	41.16077	-14.73847	1	43.71992	-19.70096	-1.275775E-005	0.0005028	9
	9	31	37828.12	41.9419	-17.574	1	45.47492	-22.73408	-1.269767E-005	0.000591	9
	10	34	30046.88	42.73711	-21.08861	1	47.65701	-26.26402	3.504612E-006	0.0002286	9
	11	36	23859.38	43.47158	-25.40059	1	50.34847	-30.29789	-1.32723E-005	0.0005978	9
	12	39	18984.38	44.23891	-30.81681	1	53.91436	-34.86106	1.613759E-005	-0.0001932	9
	13	41	15046.87	45.04531	-37.69422	1	58.73614	-39.92282	8.617812E-006	-0.0003595	9
	14	43	11953.13	45.83018	-46.37603	1	65.20078	-45.33918	1.674004E-005	-0.0002425	9
	15	46	9515.62	46.69014	-57.14279	1	73.79206	-50.74848	1.66199E-005	-0.0001264	9
	16	48	7546.875	47.7518	-70.90798	1	85.48787	-56.04236	-1.423197E-005	0.0005547	9
	17	50	5928.309	49.22111	-88.87608	1	101.5956	-61.02156	-1.126463E-005	0.0002287	9
	18	54	4733.456	50.85796	-110.0243	1	121.2101	-65.1916	-1.088787E-005	0.0005905	9
	19	56	3796.875	52.62432	-135.8189	1	145.6574	-68.82067	2.583696E-006	-0.0002203	9
	20	58	2987.132	55.86185	-170.3818	1	179.3056	-71.84761	-8.415176E-006	0.0001355	9
	21	61	2390.625	60.01411	-210.6082	1	218.992	-74.09477	8.674373E-006	-0.0003737	9
	22	63	1884.191	63.85989	-265.1305	1	272.7128	-76.45757	-2.006555E-006	0.0004364	9
	23	65	1516.544	70.50587	-325.1092	1	332.6666	-77.76384	-8.087919E-006	0.0001234	9
	24	67	1193.986	78.41334	-408.6089	1	416.0648	-79.13683	8.506581E-006	-0.0003715	9
	25	70	946.5144	87.92013	-507.7584	1	515.314	-80.17644	-1.073498E-006	0.0006738	8
	26	72	751.7689	102.8857	-631.3767	1	639.7047	-80.74474	3.781216E-006	-0.0001303	8
	27	75	597.4265	123.1377	-784.8789	1	794.4796	-81.08369	-2.695344E-006	0.0012197	8
	28	77	477.4305	147.4578	-969.091	1	980.246	-81.34818	3.792638E-007	0.0006526	8
	29	79	376.6741	183.4987	-1210.212	1	1224.045	-81.37819	3.664444E-007	0.0006644	8
	30	82	298.2954	231.679	-1504.275	1	1522.011	-81.24445	3.779363E-007	0.000654	8
	31	84	237.7717	294.9103	-1855.403	1	1878.694	-80.96857	3.757059E-007	0.0006569	8
	32	86	189.0121	380.7173	-2290.797	1	2322.219	-80.56402	3.860143E-007	0.0006553	8
	33	89	150.2404	496.0368	-2822.727	1	2865.98	-80.0332	3.789316E-007	0.0006547	8
	34	91	119.1737	652.556	-3479.485	1	3540.148	-79.37792	3.893584E-007	0.0006528	8
	35	94	95.0169	856.5813	-4258.196	1	4343.497	-78.62614	3.951873E-007	0.0006558	8
	36	96	75.60484	1134.678	-5219.114	1	5341.034	-77.73431	4.254087E-008	0.0006312	7
	37	99	54.50582	1700.052	-6928.239	1	7133.77	-76.21316	4.792247E-008	0.0006205	7
	38	101	45.95588	2106.035	-8020.702	1	8292.59	-75.28768	5.291001E-008	0.0006335	7
	39	103	37.20238	2738.039	-9554.58	1	9939.15	-74.00938	5.330266E-008	0.000624	7
	40	106	30.04808	3588.615	-11387.02	1	11939.11	-72.50778	3.828527E-008	0.0006853	7
	41	108	23.91582	4800.25	-13651.56	1	14470.92	-70.62698	4.909985E-008	0.0006247	7
	42	111	18.60119	6513.271	-16464.08	1	17705.61	-68.416	5.565244E-008	0.0006291	7
	43	113	15.02404	8433.491	-19171.8	1	20944.73	-66.25577	6.06904E-008	0.0006306	7
	44	115	12.01923	10970.44	-22223.19	1	24783.48	-63.72683	4.21311E-008	0.000624	7
	45	118	9.450605	14390.64	-25736.31	1	29486.41	-60.78795	3.814043E-008	0.0006348	7
	46	120	7.512019	18335.7	-29226.75	1	34502.18	-57.89747	4.488394E-008	0.0006426	7
	47	123	5.978954	22939.25	-32519.69	1	39796.22	-54.80103	4.609475E-008	0.0006299	7
	48	126	4.734848	28332.08	-35769.47	1	45630.71	-51.61816	1.627885E-008	0.0006991	6
	49	129	3.75601	34342.12	-38604.15	1	51668.77	-48.34381	4.161193E-009	0.0006534	6
	50	133	3.004808	40580.5	-40832.4	1	57567.89	-45.17728	6.473833E-009	0.0006613	6
	51	136	2.372217	47432.41	-42581.23	1	63741.62	-41.9151	3.382732E-009	0.000682	6
	52	140	1.878005	54381.38	-43303.14	1	69516.16	-38.52983	-4.617782E-011	0.0006664	6
	53	145	1.512097	60062.74	-42723.07	1	73707.49	-35.42453	2.899722E-009	0.0006126	6
	54	156	1.201923	66046.74	-41952.14	1	78244.2	-32.42325	2.355999E-009	0.0006526	6
	55	169	0.956633	72122.27	-41660.04	1	83289.73	-30.01205	-4.682012E-009	5.54324E-005	6
