EXPLAIN
TAG	EISPOT
TITLE	LABEL	Potentiostatic EIS	Test Identifier
DATE	LABEL	8/3/2020	Date
TIME	LABEL	13:26:18	Time
NOTES	NOTES	1	Notes...
	
PSTAT	PSTAT	REF3000-16137	Potentiostat
VDC	POTEN	0.00000E+000	T	DC Voltage (V)
FREQINIT	QUANT	3.00000E+005	Initial Freq. (Hz)
FREQFINAL	QUANT	1.00000E+000	Final Freq. (Hz)
PTSPERDEC	QUANT	1.00000E+001	Points/decade
VAC	QUANT	5.00000E+001	AC Voltage (mV rms)
AREA	QUANT	1.00000E+000	Sample Area (cm^2)
SPEED	SELECTOR	2	Optimize for:
ZGUESS	QUANT	1.00000E+003	Estimated Z (ohms)
EOC	QUANT	0	Open Circuit (V)
SEQUENCER	TOGGLE	TRUE	Run as Sequence
PSTATMODEL	IQUANT	5	Pstat Model
PSTATSECTION	LABEL	REF3000-16137	Pstat Section
PSTATSERIALNO	LABEL	16137	Pstat Serial Number
CTRLMODE	IQUANT	1	Control Mode
IESTAB	IQUANT	0	I/E Stability
CASPEED	IQUANT	1	Control Amp Speed
CONVENTION	IQUANT	1	Current Convention
ICHRANGE	IQUANT	2	Ich Range
ICHRANGEMODE	TOGGLE	F	Ich Auto Range
ICHOFFSETENABLE	TOGGLE	T	Ich Offset Enable
ICHOFFSET	QUANT	0	Ich Offset (V)
ICHFILTER	IQUANT	3	Ich Filter
VCHRANGE	IQUANT	2	Vch Range
VCHRANGEMODE	TOGGLE	F	Vch Auto Range
VCHOFFSETENABLE	TOGGLE	T	Vch Offset Enable
VCHOFFSET	QUANT	0	Vch Offset (V)
VCHFILTER	IQUANT	3	Vch Filter
ACHRANGE	IQUANT	2	Ach Range
ACHOFFSETENABLE	TOGGLE	F	Ach Offset Enable
ACHOFFSET	QUANT	0	Ach Offset (V)
ACHFILTER	IQUANT	3	Ach Filter
IERANGELOWERLIMIT	IQUANT	2	I/E Range Lower Limit
IERANGEMODE	TOGGLE	F	I/E AutoRange
IERANGE	IQUANT	11	I/E Range
POSFEEDENABLE	TOGGLE	F	Positive Feedback IR Comp
POSFEEDRESISTANCE	QUANT	0	Positive Feedback Resistance (ohm)
ACHSELECT	IQUANT	0	Ach Select
CABLEID	IQUANT	13	Cable ID
DCCALDATE	LABEL	7/31/2020	DC Calibration Date
ACCALDATE	LABEL	7/31/2020	AC Calibration Date
THERMOSELECT	IQUANT	1	Thermo Select
FRAMEWORKVERSION	QUANT	6.33	Framework Version
INSTRUMENTVERSION	LABEL	3.50	Instrument Version
COMPLIANCEVOLTAGE	IQUANT	0	Compliance Voltage
ZCURVE	TABLE
	Pt	Time	Freq	Zreal	Zimag	Zsig	Zmod	Zphz	Idc	Vdc	IERange
	#	s	Hz	ohm	ohm	V	ohm	°	A	V	#
	0	25	300046.9	1514.285	-916.4876	1	1770.03	-31.1835	2.770211E-006	0.0013814	9
	1	38	238359.4	1817.16	-995.964	1	2072.2	-28.72664	-6.182959E-005	0.0004519	9
	2	51	189328.1	2125.016	-1090.857	1	2388.653	-27.17327	2.179268E-005	-0.000961	9
	3	57	150421.9	2426.395	-1118.255	1	2671.682	-24.7436	-6.157056E-005	0.0006351	9
	4	64	119484.4	2810.49	-1032.314	1	2994.082	-20.16866	-8.494777E-006	-0.0118726	8
	5	72	94921.88	3125.145	-999.229	1	3281.004	-17.73108	2.172419E-005	-0.0029404	8
	6	78	75421.88	3464.118	-981.848	1	3600.575	-15.82452	-1.023494E-005	0.0092454	8
	7	85	59859.37	3817.04	-1058.456	1	3961.076	-15.49856	-8.608258E-006	-0.0001964	9
	8	93	47578.12	4270.685	-931.8661	1	4371.169	-12.30904	-2.451646E-005	0.0073277	8
	9	99	37828.12	4685.041	-906.7938	1	4771.99	-10.9542	-2.162868E-006	-0.0044346	8
	10	106	30046.88	5171.286	-468.2411	1	5192.441	-5.173816	6.473892E-006	-0.0193786	7
	11	109	23859.38	5405.505	-412.7767	1	5421.242	-4.366762	-2.216866E-006	-0.0067547	7
	12	113	18984.38	5632.643	-385.7653	1	5645.838	-3.917923	3.714633E-006	0.0014287	7
	13	116	15046.87	5827.404	-341.6506	1	5837.411	-3.355311	5.316165E-006	-0.0068437	7
	14	120	11953.13	6115.271	-303.7749	1	6122.812	-2.843819	3.730876E-006	0.0006263	7
	15	124	9515.62	6375.593	-285.1232	1	6381.965	-2.560621	-1.968368E-006	0.0200111	7
	16	127	7546.875	6641.032	-280.2047	1	6646.94	-2.416044	5.442382E-006	-0.0071148	7
	17	130	5928.309	6946.152	-238.241	1	6950.236	-1.964376	-1.964165E-006	0.0198485	7
	18	134	4733.456	7299.41	-235.7592	1	7303.216	-1.849919	4.900038E-006	-0.0232531	7
	19	139	3796.875	7668.839	-209.8682	1	7671.71	-1.567585	1.50823E-006	-0.0180711	7
	20	142	2987.132	8021.281	-195.6333	1	8023.666	-1.397126	-6.38975E-006	0.0157548	7
	21	147	2390.625	8450.166	-190.756	1	8452.318	-1.293189	-2.656853E-006	-0.0056785	7
	22	151	1884.191	8880.768	-198.4946	1	8882.985	-1.280409	2.145889E-006	0.008486	7
	23	155	1516.544	9382.854	-186.4037	1	9384.705	-1.138112	5.666624E-006	-0.0080112	7
	24	159	1193.986	9893.43	-212.8783	1	9895.72	-1.232651	-5.95551E-006	0.0228976	7
	25	164	946.5144	10224.12	-203.4335	1	10226.14	-1.139888	-5.990361E-007	-0.0129195	7
	26	166	751.7689	10732.17	-332.4837	1	10737.32	-1.774461	-3.510296E-006	0.0226692	7
	27	169	597.4265	11068.47	-247.8753	1	11071.25	-1.282908	-2.978707E-006	-0.0051097	7
	28	172	477.4305	11366.67	-274.1899	1	11369.98	-1.381836	-1.060059E-007	0.0005832	7
	29	174	376.6741	11704.15	-314.938	1	11708.38	-1.541357	-1.088819E-007	0.0006599	7
	30	176	298.2954	12053.43	-367.6499	1	12059.03	-1.747076	-9.882509E-008	0.0006182	7
	31	179	237.7717	12430.9	-434.8606	1	12438.5	-2.003518	-1.027413E-007	0.0005798	7
	32	181	189.0121	12822.63	-519.4315	1	12833.15	-2.319725	-1.039541E-007	0.0005885	7
	33	183	150.2404	13234.88	-626.2589	1	13249.69	-2.709148	-1.085868E-007	0.0006307	7
	34	186	119.1737	13649.21	-761.9378	1	13670.46	-3.195098	-1.100832E-007	0.0006384	7
	35	188	95.0169	14107.07	-925.3752	1	14137.39	-3.753028	-1.085216E-007	0.000623	7
	36	191	75.60484	14602.96	-1130.023	1	14646.62	-4.424909	-1.05627E-007	0.0006449	7
	37	193	54.50582	15164.75	-1503.353	1	15239.09	-5.6615	-1.084191E-007	0.0006549	7
	38	196	45.95588	15692.89	-1744.425	1	15789.54	-6.342971	-1.203291E-007	0.0006439	7
	39	198	37.20238	16246.42	-2105.691	1	16382.31	-7.384909	-1.014423E-007	0.0006264	7
	40	201	30.04808	16857.9	-2530.928	1	17046.83	-8.538222	-1.021861E-007	0.0006564	7
	41	203	23.91582	17533.55	-3097.951	1	17805.13	-10.02001	-8.458949E-008	0.0005695	7
	42	205	18.60119	18297.11	-3861.531	1	18700.15	-11.91716	-6.941863E-008	0.0005852	7
	43	208	15.02404	19093.41	-4577.96	1	19634.56	-13.48308	-8.133834E-008	0.0006733	7
	44	210	12.01923	20011.98	-5538.049	1	20764.13	-15.46872	-1.220964E-007	0.0006183	7
	45	212	9.450605	21049.98	-6766.565	1	22110.81	-17.82012	-8.100304E-008	0.0005837	7
	46	215	7.512019	22317.27	-8198.936	1	23775.69	-20.17236	-9.46357E-008	0.0006822	7
	47	218	5.978954	23834.19	-9867.2	1	25795.93	-22.48924	-9.494818E-008	0.0006855	7
	48	221	4.734848	25679.49	-11886.9	1	28297.26	-24.83917	-9.927713E-008	0.0006099	7
	49	224	3.75601	27871.51	-14329.14	1	31339.2	-27.20834	-9.586362E-008	0.0006781	7
	50	227	3.004808	30375.9	-17083.98	1	34850.5	-29.35423	-1.083765E-007	0.0006201	7
	51	231	2.372217	33567.37	-20567.57	1	39367.42	-31.49685	-1.033746E-007	0.0006761	7
	52	235	1.878005	37461.48	-24745.07	1	44896.34	-33.44663	-1.159737E-008	0.0006391	6
	53	240	1.512097	42005.73	-29419.49	1	51283.41	-35.0062	-1.414555E-008	0.0007562	6
	54	245	1.201923	47825.47	-35528.3	1	59577.98	-36.6077	-9.230124E-009	0.0006467	6
	55	252	0.956633	54911.39	-42873.63	1	69666.41	-37.98195	-2.26121E-008	1.963509E-005	6
