EXPLAIN
TAG	EISPOT
TITLE	LABEL	Potentiostatic EIS	Test Identifier
DATE	LABEL	8/3/2020	Date
TIME	LABEL	12:55:25	Time
NOTES	NOTES	1	Notes...
	
PSTAT	PSTAT	REF3000-16137	Potentiostat
VDC	POTEN	0.00000E+000	T	DC Voltage (V)
FREQINIT	QUANT	3.00000E+005	Initial Freq. (Hz)
FREQFINAL	QUANT	1.00000E+000	Final Freq. (Hz)
PTSPERDEC	QUANT	1.00000E+001	Points/decade
VAC	QUANT	5.00000E+001	AC Voltage (mV rms)
AREA	QUANT	1.00000E+000	Sample Area (cm^2)
SPEED	SELECTOR	2	Optimize for:
ZGUESS	QUANT	1.00000E+003	Estimated Z (ohms)
EOC	QUANT	0	Open Circuit (V)
SEQUENCER	TOGGLE	TRUE	Run as Sequence
PSTATMODEL	IQUANT	5	Pstat Model
PSTATSECTION	LABEL	REF3000-16137	Pstat Section
PSTATSERIALNO	LABEL	16137	Pstat Serial Number
CTRLMODE	IQUANT	1	Control Mode
IESTAB	IQUANT	0	I/E Stability
CASPEED	IQUANT	1	Control Amp Speed
CONVENTION	IQUANT	1	Current Convention
ICHRANGE	IQUANT	2	Ich Range
ICHRANGEMODE	TOGGLE	F	Ich Auto Range
ICHOFFSETENABLE	TOGGLE	T	Ich Offset Enable
ICHOFFSET	QUANT	0	Ich Offset (V)
ICHFILTER	IQUANT	3	Ich Filter
VCHRANGE	IQUANT	2	Vch Range
VCHRANGEMODE	TOGGLE	F	Vch Auto Range
VCHOFFSETENABLE	TOGGLE	T	Vch Offset Enable
VCHOFFSET	QUANT	0	Vch Offset (V)
VCHFILTER	IQUANT	3	Vch Filter
ACHRANGE	IQUANT	2	Ach Range
ACHOFFSETENABLE	TOGGLE	F	Ach Offset Enable
ACHOFFSET	QUANT	0	Ach Offset (V)
ACHFILTER	IQUANT	3	Ach Filter
IERANGELOWERLIMIT	IQUANT	2	I/E Range Lower Limit
IERANGEMODE	TOGGLE	F	I/E AutoRange
IERANGE	IQUANT	11	I/E Range
POSFEEDENABLE	TOGGLE	F	Positive Feedback IR Comp
POSFEEDRESISTANCE	QUANT	0	Positive Feedback Resistance (ohm)
ACHSELECT	IQUANT	0	Ach Select
CABLEID	IQUANT	13	Cable ID
DCCALDATE	LABEL	7/31/2020	DC Calibration Date
ACCALDATE	LABEL	7/31/2020	AC Calibration Date
THERMOSELECT	IQUANT	1	Thermo Select
FRAMEWORKVERSION	QUANT	6.33	Framework Version
INSTRUMENTVERSION	LABEL	3.50	Instrument Version
COMPLIANCEVOLTAGE	IQUANT	0	Compliance Voltage
ZCURVE	TABLE
	Pt	Time	Freq	Zreal	Zimag	Zsig	Zmod	Zphz	Idc	Vdc	IERange
	#	s	Hz	ohm	ohm	V	ohm	°	A	V	#
	0	9	300046.9	1.297521	1.262964	1	1.810701	44.22678	-1.848252E-005	0.0009458	11
	1	12	238359.4	1.27527	0.997149	1	1.618833	38.02228	2.31661E-005	0.0009945	11
	2	15	189328.1	1.263075	0.782768	1	1.485963	31.78781	-1.192973E-005	-0.0002904	11
	3	18	150421.9	1.250374	0.6020526	1	1.387769	25.71072	-6.248878E-005	-6.921629E-005	11
	4	20	119484.4	1.247734	0.4575542	1	1.328983	20.13839	-0.0001208	0.000126	11
	5	23	94921.88	1.245717	0.3374656	1	1.290618	15.15766	-1.032394E-005	0.0003154	11
	6	25	75421.88	1.246322	0.2313493	1	1.267612	10.51587	2.250042E-005	0.0003827	11
	7	28	59859.37	1.249255	0.1390982	1	1.256975	6.353424	-1.528512E-005	0.0004782	11
	8	31	47578.12	1.253844	0.0559466	1	1.255091	2.554849	-7.740032E-007	0.0005536	11
	9	33	37828.12	1.259576	-0.022609	1	1.259779	-1.028333	-5.582016E-005	0.0006487	11
	10	36	30046.88	1.266813	-0.1009708	1	1.270831	-4.557101	-1.279241E-005	0.0006283	11
	11	38	23859.38	1.27607	-0.1822899	1	1.289024	-8.129848	-7.612336E-005	0.0006934	11
	12	40	18984.38	1.287349	-0.2695361	1	1.315263	-11.82537	-3.453311E-005	0.0006614	11
	13	43	15046.87	1.301328	-0.3690755	1	1.352653	-15.83411	1.411925E-005	0.0006933	11
	14	45	11953.13	1.317803	-0.4826822	1	1.40342	-20.11667	-3.527534E-005	0.0006509	11
	15	47	9515.62	1.33774	-0.6155122	1	1.47255	-24.7078	3.314858E-005	0.0007296	11
	16	50	7546.875	1.362047	-0.7765099	1	1.567845	-29.68769	3.322674E-005	0.000727	11
	17	52	5928.309	1.392648	-0.981289	1	1.703642	-35.16935	-1.498812E-005	0.0006737	11
	18	54	4733.456	1.428191	-1.214181	1	1.874557	-40.36962	3.792924E-005	0.0007081	11
	19	57	3796.875	1.470764	-1.491192	1	2.094469	-45.39515	1.435268E-005	0.000672	11
	20	59	2987.132	1.528528	-1.862183	1	2.409175	-50.61996	2.831213E-005	0.0006855	11
	21	61	2390.625	1.595636	-2.285648	1	2.787515	-55.08068	-1.839087E-005	0.0006782	11
	22	64	1884.191	1.686991	-2.839999	1	3.303261	-59.28922	2.435645E-005	0.0007057	11
	23	66	1516.544	1.789096	-3.460788	1	3.895885	-62.66275	-1.93431E-005	0.0006613	11
	24	68	1193.986	1.934545	-4.300395	1	4.715492	-65.77926	2.431465E-005	0.0006615	10
	25	71	946.5144	2.103878	-5.306402	1	5.708258	-68.3727	2.246212E-005	0.0006681	10
	26	73	751.7689	2.319789	-6.526748	1	6.926749	-70.43336	-1.90503E-005	0.0006561	10
	27	75	597.4265	2.588111	-8.020518	1	8.427753	-72.11582	2.890061E-005	0.0006726	10
	28	78	477.4305	2.906605	-9.80645	1	10.22814	-73.49033	2.690617E-006	0.0006711	10
	29	80	376.6741	3.326293	-12.12301	1	12.57106	-74.65686	2.54217E-006	0.0006637	10
	30	82	298.2954	3.839735	-14.93565	1	15.42132	-75.58232	2.837268E-006	0.0006598	10
	31	85	237.7717	4.460654	-18.28956	1	18.82566	-76.29367	2.180727E-006	0.0006618	10
	32	87	189.0121	5.242571	-22.44922	1	23.05325	-76.85529	2.469138E-006	0.000667	10
	33	89	150.2404	6.218963	-27.54793	1	28.24118	-77.27869	2.462634E-006	0.0006677	10
	34	92	119.1737	7.45673	-33.87262	1	34.68367	-77.58492	2.772892E-006	0.0006662	10
	35	94	95.0169	8.977509	-41.42946	1	42.39099	-77.77339	2.535827E-006	0.0006674	10
	36	97	75.60484	10.89258	-50.69482	1	51.85183	-77.87347	3.490497E-006	6.31422E-005	9
	37	99	54.50582	14.57454	-67.70692	1	69.25781	-77.85193	3.38582E-006	6.163637E-005	9
	38	102	45.95588	17.01833	-78.66974	1	80.48945	-77.79351	3.561819E-006	0.0001194	9
	39	104	37.20238	20.7217	-94.67545	1	96.9166	-77.6543	3.713332E-006	6.365799E-005	9
	40	107	30.04808	25.45861	-114.2019	1	117.0052	-77.43275	3.454434E-006	6.428299E-005	9
	41	109	23.91582	31.66831	-139.2386	1	142.7945	-77.18666	3.414409E-006	6.310301E-005	9
	42	111	18.60119	40.26553	-172.6374	1	177.2709	-76.87118	3.536978E-006	6.678257E-005	9
	43	114	15.02404	49.36381	-207.236	1	213.0341	-76.60177	4.068055E-006	7.689982E-005	9
	44	116	12.01923	60.93925	-250.2871	1	257.5989	-76.31602	3.344286E-006	5.841067E-005	9
	45	119	9.450605	76.09338	-306.8529	1	316.147	-76.07274	3.488113E-006	7.564045E-005	9
	46	121	7.512019	93.94011	-372.783	1	384.4371	-75.85613	3.725372E-006	7.598835E-005	9
	47	124	5.978954	115.2001	-450.38	1	464.8798	-75.65228	3.031475E-006	0.0006435	8
	48	127	4.734848	142.4496	-549.7739	1	567.9289	-75.47378	3.199832E-006	0.0006651	8
	49	130	3.75601	176.5517	-670.0782	1	692.9468	-75.23922	2.911074E-006	0.0006336	8
	50	133	3.004808	218.4347	-810.8053	1	839.7136	-74.92222	3.033369E-006	0.0006405	8
	51	137	2.372217	277.1345	-990.84	1	1028.867	-74.37388	2.939369E-006	0.0006856	8
	52	141	1.878005	352.648	-1211.066	1	1261.365	-73.76507	2.808911E-006	0.0006415	8
	53	146	1.512097	442.3789	-1454.811	1	1520.583	-73.08652	2.842696E-006	0.0005515	8
	54	152	1.201923	570.9338	-1763.312	1	1853.438	-72.05882	2.726266E-006	0.0006405	8
	55	158	0.956633	734.6572	-2126.861	1	2250.169	-70.94415	2.689246E-006	3.825523E-006	8
