EXPLAIN
TAG	EISPOT
TITLE	LABEL	Potentiostatic EIS	Test Identifier
DATE	LABEL	8/3/2020	Date
TIME	LABEL	12:52:38	Time
NOTES	NOTES	1	Notes...
	
PSTAT	PSTAT	REF3000-16137	Potentiostat
VDC	POTEN	0.00000E+000	T	DC Voltage (V)
FREQINIT	QUANT	3.00000E+005	Initial Freq. (Hz)
FREQFINAL	QUANT	1.00000E+000	Final Freq. (Hz)
PTSPERDEC	QUANT	1.00000E+001	Points/decade
VAC	QUANT	5.00000E+001	AC Voltage (mV rms)
AREA	QUANT	1.00000E+000	Sample Area (cm^2)
SPEED	SELECTOR	2	Optimize for:
ZGUESS	QUANT	1.00000E+003	Estimated Z (ohms)
EOC	QUANT	0	Open Circuit (V)
SEQUENCER	TOGGLE	TRUE	Run as Sequence
PSTATMODEL	IQUANT	5	Pstat Model
PSTATSECTION	LABEL	REF3000-16137	Pstat Section
PSTATSERIALNO	LABEL	16137	Pstat Serial Number
CTRLMODE	IQUANT	1	Control Mode
IESTAB	IQUANT	0	I/E Stability
CASPEED	IQUANT	1	Control Amp Speed
CONVENTION	IQUANT	1	Current Convention
ICHRANGE	IQUANT	2	Ich Range
ICHRANGEMODE	TOGGLE	F	Ich Auto Range
ICHOFFSETENABLE	TOGGLE	T	Ich Offset Enable
ICHOFFSET	QUANT	0	Ich Offset (V)
ICHFILTER	IQUANT	3	Ich Filter
VCHRANGE	IQUANT	2	Vch Range
VCHRANGEMODE	TOGGLE	F	Vch Auto Range
VCHOFFSETENABLE	TOGGLE	T	Vch Offset Enable
VCHOFFSET	QUANT	0	Vch Offset (V)
VCHFILTER	IQUANT	3	Vch Filter
ACHRANGE	IQUANT	2	Ach Range
ACHOFFSETENABLE	TOGGLE	F	Ach Offset Enable
ACHOFFSET	QUANT	0	Ach Offset (V)
ACHFILTER	IQUANT	3	Ach Filter
IERANGELOWERLIMIT	IQUANT	2	I/E Range Lower Limit
IERANGEMODE	TOGGLE	F	I/E AutoRange
IERANGE	IQUANT	11	I/E Range
POSFEEDENABLE	TOGGLE	F	Positive Feedback IR Comp
POSFEEDRESISTANCE	QUANT	0	Positive Feedback Resistance (ohm)
ACHSELECT	IQUANT	0	Ach Select
CABLEID	IQUANT	13	Cable ID
DCCALDATE	LABEL	7/31/2020	DC Calibration Date
ACCALDATE	LABEL	7/31/2020	AC Calibration Date
THERMOSELECT	IQUANT	1	Thermo Select
FRAMEWORKVERSION	QUANT	6.33	Framework Version
INSTRUMENTVERSION	LABEL	3.50	Instrument Version
COMPLIANCEVOLTAGE	IQUANT	0	Compliance Voltage
ZCURVE	TABLE
	Pt	Time	Freq	Zreal	Zimag	Zsig	Zmod	Zphz	Idc	Vdc	IERange
	#	s	Hz	ohm	ohm	V	ohm	°	A	V	#
	0	9	300046.9	1.256564	1.264889	1	1.782947	45.18917	3.611602E-005	0.0010028	11
	1	12	238359.4	1.233766	0.998928	1	1.587462	38.99561	8.311912E-005	0.0009723	11
	2	15	189328.1	1.220999	0.7842883	1	1.451188	32.71397	1.368221E-005	-0.0002984	11
	3	18	150421.9	1.20874	0.6018687	1	1.350296	26.47011	-4.07613E-005	-0.0001104	11
	4	20	119484.4	1.205029	0.459921	1	1.289814	20.89026	1.7472E-005	0.0002159	11
	5	23	94921.88	1.20238	0.339529	1	1.249399	15.76865	2.841436E-005	0.0003176	11
	6	25	75421.88	1.201968	0.2351176	1	1.224748	11.0679	1.33995E-005	0.0003917	11
	7	28	59859.37	1.204153	0.1429565	1	1.212609	6.77044	3.926466E-005	0.0004902	11
	8	30	47578.12	1.207761	0.0605626	1	1.209278	2.870666	-3.029179E-005	0.0005244	11
	9	33	37828.12	1.212811	-0.0170349	1	1.212931	-0.8047133	-3.575964E-005	0.0005494	11
	10	35	30046.88	1.219708	-0.0938422	1	1.223312	-4.399572	4.07421E-005	0.0006523	11
	11	38	23859.38	1.228529	-0.1733744	1	1.240703	-8.032735	1.501774E-005	0.0006607	11
	12	40	18984.38	1.238863	-0.2583916	1	1.265522	-11.78138	-4.585244E-005	0.0006348	11
	13	43	15046.87	1.25198	-0.3551667	1	1.301383	-15.83779	-2.030765E-005	0.0006668	11
	14	45	11953.13	1.267821	-0.465244	1	1.35049	-20.15129	2.346983E-005	0.0007035	11
	15	47	9515.62	1.286522	-0.5938127	1	1.416952	-24.77636	1.992324E-005	0.0007052	11
	16	50	7546.875	1.3096	-0.7500825	1	1.509197	-29.80222	1.065842E-005	0.0007056	11
	17	52	5928.309	1.338817	-0.9480339	1	1.640488	-35.3028	3.682083E-006	0.0007027	11
	18	54	4733.456	1.372532	-1.173292	1	1.805674	-40.52508	-2.097997E-005	0.0006725	11
	19	57	3796.875	1.413266	-1.441034	1	2.01839	-45.55739	-2.774541E-005	0.0006627	11
	20	59	2987.132	1.469322	-1.798677	1	2.32253	-50.75495	-5.89073E-005	0.0007398	11
	21	61	2390.625	1.533629	-2.206498	1	2.687127	-55.19871	-3.376876E-005	0.0006633	11
	22	63	1884.191	1.622033	-2.741229	1	3.185173	-59.38646	2.656565E-005	0.0007024	11
	23	66	1516.544	1.722195	-3.338068	1	3.756148	-62.70963	5.872771E-006	0.0006898	11
	24	68	1193.986	1.86033	-4.146851	1	4.545019	-65.83839	-7.706081E-006	0.0006632	10
	25	71	946.5144	2.024939	-5.112298	1	5.498724	-68.39189	-1.937588E-005	0.0006537	10
	26	73	751.7689	2.2344	-6.285023	1	6.670386	-70.4291	6.148996E-006	0.0006503	10
	27	75	597.4265	2.491573	-7.725719	1	8.117554	-72.1253	6.950844E-006	0.0006475	10
	28	78	477.4305	2.796501	-9.438353	1	9.84393	-73.4959	-5.903872E-007	0.0007148	10
	29	80	376.6741	3.200599	-11.66362	1	12.09479	-74.65525	3.654063E-006	0.0006634	10
	30	82	298.2954	3.697205	-14.36413	1	14.83232	-75.56587	3.561165E-006	0.0006682	10
	31	85	237.7717	4.298547	-17.58225	1	18.10008	-76.26169	3.244828E-006	0.000664	10
	32	87	189.0121	5.058318	-21.5697	1	22.15488	-76.80204	-7.962176E-007	0.0007117	10
	33	89	150.2404	6.009306	-26.45301	1	27.12699	-77.20138	3.214525E-006	0.0006674	10
	34	92	119.1737	7.22016	-32.49944	1	33.2918	-77.47444	3.502526E-006	0.0006706	10
	35	94	95.0169	8.70848	-39.71667	1	40.66019	-77.63275	3.410814E-006	0.0006682	10
	36	97	75.60484	10.58933	-48.54576	1	49.68727	-77.69477	4.670487E-006	6.558747E-005	9
	37	99	54.50582	14.20656	-64.71425	1	66.25526	-77.61841	4.607013E-006	6.310093E-005	9
	38	102	45.95588	16.64093	-75.14861	1	76.96905	-77.51389	5.134895E-006	6.745494E-005	9
	39	104	37.20238	20.31153	-90.27352	1	92.53036	-77.31963	4.966258E-006	6.171463E-005	9
	40	106	30.04808	24.99273	-108.6487	1	111.4862	-77.04547	4.63279E-006	6.297431E-005	9
	41	109	23.91582	31.20513	-132.2259	1	135.8582	-76.72124	4.653059E-006	6.000932E-005	9
	42	111	18.60119	39.62107	-163.5114	1	168.2433	-76.37898	4.845467E-006	6.467345E-005	9
	43	114	15.02404	48.52576	-195.7368	1	201.6622	-76.07633	5.183588E-006	6.70692E-005	9
	44	116	12.01923	59.95912	-235.9843	1	243.4824	-75.7439	4.5658E-006	6.650942E-005	9
	45	118	9.450605	74.83871	-288.5778	1	298.1241	-75.4614	4.843374E-006	7.867734E-005	9
	46	121	7.512019	92.35214	-349.8248	1	361.8098	-75.21157	5.177755E-006	8.756355E-005	9
	47	123	5.978954	113.8547	-421.8734	1	436.9669	-74.8969	4.420086E-006	0.0006426	8
	48	127	4.734848	141.8174	-513.449	1	532.6744	-74.55956	4.633489E-006	0.0006665	8
	49	130	3.75601	177.7184	-622.8883	1	647.7451	-74.07584	4.274416E-006	0.0006284	8
	50	133	3.004808	222.493	-750.0711	1	782.3745	-73.4781	4.356339E-006	0.0006517	8
	51	137	2.372217	286.1822	-911.8499	1	955.704	-72.57564	4.336747E-006	0.0007064	8
	52	141	1.878005	366.5667	-1103.467	1	1162.76	-71.62375	4.226313E-006	0.0006155	8
	53	146	1.512097	464.7276	-1307.886	1	1387.997	-70.43848	4.237956E-006	0.0006855	8
	54	151	1.201923	601.1534	-1566.067	1	1677.483	-69.00011	4.160477E-006	0.0006102	8
	55	158	0.956633	772.2889	-1856.808	1	2011.011	-67.41646	4.024952E-006	-4.363496E-006	8
