EXPLAIN
TAG	EISPOT
TITLE	LABEL	Potentiostatic EIS	Test Identifier
DATE	LABEL	8/3/2020	Date
TIME	LABEL	13:06:33	Time
NOTES	NOTES	1	Notes...
	
PSTAT	PSTAT	REF3000-16137	Potentiostat
VDC	POTEN	0.00000E+000	T	DC Voltage (V)
FREQINIT	QUANT	3.00000E+005	Initial Freq. (Hz)
FREQFINAL	QUANT	1.00000E+000	Final Freq. (Hz)
PTSPERDEC	QUANT	1.00000E+001	Points/decade
VAC	QUANT	5.00000E+001	AC Voltage (mV rms)
AREA	QUANT	1.00000E+000	Sample Area (cm^2)
SPEED	SELECTOR	2	Optimize for:
ZGUESS	QUANT	1.00000E+003	Estimated Z (ohms)
EOC	QUANT	0	Open Circuit (V)
SEQUENCER	TOGGLE	TRUE	Run as Sequence
PSTATMODEL	IQUANT	5	Pstat Model
PSTATSECTION	LABEL	REF3000-16137	Pstat Section
PSTATSERIALNO	LABEL	16137	Pstat Serial Number
CTRLMODE	IQUANT	1	Control Mode
IESTAB	IQUANT	0	I/E Stability
CASPEED	IQUANT	1	Control Amp Speed
CONVENTION	IQUANT	1	Current Convention
ICHRANGE	IQUANT	2	Ich Range
ICHRANGEMODE	TOGGLE	F	Ich Auto Range
ICHOFFSETENABLE	TOGGLE	T	Ich Offset Enable
ICHOFFSET	QUANT	0	Ich Offset (V)
ICHFILTER	IQUANT	3	Ich Filter
VCHRANGE	IQUANT	2	Vch Range
VCHRANGEMODE	TOGGLE	F	Vch Auto Range
VCHOFFSETENABLE	TOGGLE	T	Vch Offset Enable
VCHOFFSET	QUANT	0	Vch Offset (V)
VCHFILTER	IQUANT	3	Vch Filter
ACHRANGE	IQUANT	2	Ach Range
ACHOFFSETENABLE	TOGGLE	F	Ach Offset Enable
ACHOFFSET	QUANT	0	Ach Offset (V)
ACHFILTER	IQUANT	3	Ach Filter
IERANGELOWERLIMIT	IQUANT	2	I/E Range Lower Limit
IERANGEMODE	TOGGLE	F	I/E AutoRange
IERANGE	IQUANT	11	I/E Range
POSFEEDENABLE	TOGGLE	F	Positive Feedback IR Comp
POSFEEDRESISTANCE	QUANT	0	Positive Feedback Resistance (ohm)
ACHSELECT	IQUANT	0	Ach Select
CABLEID	IQUANT	13	Cable ID
DCCALDATE	LABEL	7/31/2020	DC Calibration Date
ACCALDATE	LABEL	7/31/2020	AC Calibration Date
THERMOSELECT	IQUANT	1	Thermo Select
FRAMEWORKVERSION	QUANT	6.33	Framework Version
INSTRUMENTVERSION	LABEL	3.50	Instrument Version
COMPLIANCEVOLTAGE	IQUANT	0	Compliance Voltage
ZCURVE	TABLE
	Pt	Time	Freq	Zreal	Zimag	Zsig	Zmod	Zphz	Idc	Vdc	IERange
	#	s	Hz	ohm	ohm	V	ohm	°	A	V	#
	0	9	300046.9	2.352263	0.979383	1	2.548006	22.60477	5.666361E-005	0.0010592	12
	1	14	238359.4	2.309838	0.7748207	1	2.436329	18.5437	-2.058697E-005	-0.0003358	12
	2	18	189328.1	2.28622	0.6007253	1	2.363826	14.72219	3.054412E-005	0.0001271	12
	3	22	150421.9	2.274699	0.4574377	1	2.320239	11.37042	0.0001017	0.0003956	12
	4	25	119484.4	2.260418	0.4298832	1	2.300932	10.76785	-0.0001147	0.000283	11
	5	28	94921.88	2.266829	0.3061541	1	2.28741	7.691731	-8.244402E-005	0.0005301	11
	6	30	75421.88	2.277579	0.1966967	1	2.286057	4.935941	3.053133E-005	0.00058	11
	7	33	59859.37	2.289969	0.0986215	1	2.292092	2.466019	-3.005201E-006	0.000604	11
	8	35	47578.12	2.303606	0.0077629	1	2.303619	0.1930806	1.198571E-005	0.0006087	11
	9	38	37828.12	2.31942	-0.0808319	1	2.320828	-1.995952	-6.27877E-006	0.000648	11
	10	40	30046.88	2.337628	-0.1720099	1	2.343948	-4.208416	-1.21573E-005	0.0006574	11
	11	43	23859.38	2.35694	-0.2701888	1	2.372376	-6.53958	2.213295E-005	0.0006828	11
	12	45	18984.38	2.379495	-0.3781663	1	2.409358	-9.030331	2.250427E-005	0.0006903	11
	13	48	15046.87	2.405467	-0.5043666	1	2.457774	-11.84195	3.68742E-005	0.0007306	11
	14	50	11953.13	2.435172	-0.6506298	1	2.520591	-14.95889	3.56181E-005	0.0007361	11
	15	52	9515.62	2.469797	-0.8219648	1	2.602983	-18.40779	3.721088E-005	0.0007256	11
	16	54	7546.875	2.510847	-1.032983	1	2.715034	-22.36267	1.013024E-005	0.0007122	11
	17	57	5928.309	2.56033	-1.299347	1	2.871166	-26.90743	-2.512629E-005	0.0007311	11
	18	59	4733.456	2.614748	-1.603042	1	3.067027	-31.51151	-5.767613E-006	0.0006842	11
	19	61	3796.875	2.676656	-1.965784	1	3.320963	-36.29423	2.454306E-006	0.0006929	11
	20	64	2987.132	2.754257	-2.450297	1	3.686446	-41.65757	-1.544807E-005	0.0006624	11
	21	66	2390.625	2.84287	-3.008586	1	4.139263	-46.62221	-2.602141E-005	0.000707	10
	22	68	1884.191	2.952601	-3.742704	1	4.767147	-51.73026	2.436199E-005	0.0006654	10
	23	71	1516.544	3.073812	-4.568087	1	5.505973	-56.06386	-7.504204E-006	0.0006488	10
	24	73	1193.986	3.234354	-5.692861	1	6.547496	-60.39727	-2.056492E-005	0.0007188	10
	25	75	946.5144	3.432603	-7.047145	1	7.838687	-64.02969	1.764294E-005	0.0006514	10
	26	78	751.7689	3.658342	-8.719439	1	9.455796	-67.23895	-5.054147E-006	0.0006596	10
	27	80	597.4265	3.953656	-10.77955	1	11.48173	-69.85828	-2.291564E-005	0.0006612	10
	28	82	477.4305	4.313279	-13.25039	1	13.93474	-71.96884	-3.838196E-007	0.0006668	10
	29	85	376.6741	4.784073	-16.47916	1	17.15955	-73.81143	-2.041703E-007	0.0006641	10
	30	87	298.2954	5.367986	-20.42275	1	21.11644	-75.27328	2.262957E-007	0.0006691	10
	31	89	237.7717	6.079025	-25.14999	1	25.87424	-76.41161	-4.809413E-007	0.0006677	10
	32	92	189.0121	6.980425	-31.04662	1	31.82168	-77.32851	-2.146548E-007	0.0006746	10
	33	94	150.2404	8.105509	-38.30018	1	39.14848	-78.05074	-3.094438E-007	0.0006668	10
	34	97	119.1737	9.51414	-47.2748	1	48.22267	-78.62112	1.214805E-006	7.504431E-005	9
	35	99	95.0169	11.24842	-58.11092	1	59.18957	-79.04485	1.040865E-006	6.959555E-005	9
	36	102	75.60484	13.42276	-71.54827	1	72.79646	-79.37458	9.874179E-007	7.36656E-005	9
	37	104	54.50582	17.48759	-96.256	1	97.8317	-79.70293	9.013538E-007	7.340404E-005	9
	38	107	45.95588	20.17063	-112.3973	1	114.1928	-79.82609	1.227635E-006	7.672807E-005	9
	39	109	37.20238	24.15706	-136.0858	1	138.2133	-79.93408	1.097236E-006	6.747616E-005	9
	40	111	30.04808	29.04967	-165.1062	1	167.6423	-80.02121	1.043301E-006	6.5878E-005	9
	41	114	23.91582	35.49744	-202.7334	1	205.8176	-80.06852	9.603918E-007	6.411881E-005	9
	42	116	18.60119	44.39432	-254.4421	1	258.286	-80.10283	9.653128E-007	6.674369E-005	9
	43	118	15.02404	53.74406	-308.6451	1	313.2893	-80.12218	1.126496E-006	6.706946E-005	9
	44	121	12.01923	65.7113	-377.2287	1	382.9092	-80.11852	1.210941E-006	7.304594E-005	9
	45	123	9.450605	81.66441	-466.6809	1	473.7722	-80.07432	4.637216E-007	0.0006458	8
	46	126	7.512019	100.5903	-573.859	1	582.6084	-80.05777	4.758042E-007	0.0006397	8
	47	128	5.978954	124.4954	-705.029	1	715.9364	-79.98583	5.264712E-007	0.000654	8
	48	131	4.734848	154.9808	-870.2906	1	883.9824	-79.90266	4.965561E-007	0.0006277	8
	49	135	3.75601	193.8188	-1072.141	1	1089.52	-79.75289	5.960468E-007	0.0006663	8
	50	138	3.004808	241.0664	-1309.809	1	1331.808	-79.57159	5.307511E-007	0.0006629	8
	51	142	2.372217	306.1569	-1617.21	1	1645.934	-79.28009	4.771841E-007	0.0006277	8
	52	146	1.878005	387.1575	-1997.685	1	2034.855	-79.03187	5.196166E-007	0.0006446	8
	53	151	1.512097	477.5193	-2422.67	1	2469.282	-78.84967	4.767502E-007	0.0007239	8
	54	156	1.201923	607.0704	-2977.844	1	3039.093	-78.47744	5.125277E-007	0.0006563	8
	55	162	0.956633	763.0139	-3643.811	1	3722.841	-78.17315	4.653734E-007	3.500622E-006	8
