EXPLAIN
TAG	EISPOT
TITLE	LABEL	Potentiostatic EIS	Test Identifier
DATE	LABEL	8/3/2020	Date
TIME	LABEL	13:03:46	Time
NOTES	NOTES	1	Notes...
	
PSTAT	PSTAT	REF3000-16137	Potentiostat
VDC	POTEN	0.00000E+000	T	DC Voltage (V)
FREQINIT	QUANT	3.00000E+005	Initial Freq. (Hz)
FREQFINAL	QUANT	1.00000E+000	Final Freq. (Hz)
PTSPERDEC	QUANT	1.00000E+001	Points/decade
VAC	QUANT	5.00000E+001	AC Voltage (mV rms)
AREA	QUANT	1.00000E+000	Sample Area (cm^2)
SPEED	SELECTOR	2	Optimize for:
ZGUESS	QUANT	1.00000E+003	Estimated Z (ohms)
EOC	QUANT	0	Open Circuit (V)
SEQUENCER	TOGGLE	TRUE	Run as Sequence
PSTATMODEL	IQUANT	5	Pstat Model
PSTATSECTION	LABEL	REF3000-16137	Pstat Section
PSTATSERIALNO	LABEL	16137	Pstat Serial Number
CTRLMODE	IQUANT	1	Control Mode
IESTAB	IQUANT	0	I/E Stability
CASPEED	IQUANT	1	Control Amp Speed
CONVENTION	IQUANT	1	Current Convention
ICHRANGE	IQUANT	2	Ich Range
ICHRANGEMODE	TOGGLE	F	Ich Auto Range
ICHOFFSETENABLE	TOGGLE	T	Ich Offset Enable
ICHOFFSET	QUANT	0	Ich Offset (V)
ICHFILTER	IQUANT	3	Ich Filter
VCHRANGE	IQUANT	2	Vch Range
VCHRANGEMODE	TOGGLE	F	Vch Auto Range
VCHOFFSETENABLE	TOGGLE	T	Vch Offset Enable
VCHOFFSET	QUANT	0	Vch Offset (V)
VCHFILTER	IQUANT	3	Vch Filter
ACHRANGE	IQUANT	2	Ach Range
ACHOFFSETENABLE	TOGGLE	F	Ach Offset Enable
ACHOFFSET	QUANT	0	Ach Offset (V)
ACHFILTER	IQUANT	3	Ach Filter
IERANGELOWERLIMIT	IQUANT	2	I/E Range Lower Limit
IERANGEMODE	TOGGLE	F	I/E AutoRange
IERANGE	IQUANT	11	I/E Range
POSFEEDENABLE	TOGGLE	F	Positive Feedback IR Comp
POSFEEDRESISTANCE	QUANT	0	Positive Feedback Resistance (ohm)
ACHSELECT	IQUANT	0	Ach Select
CABLEID	IQUANT	13	Cable ID
DCCALDATE	LABEL	7/31/2020	DC Calibration Date
ACCALDATE	LABEL	7/31/2020	AC Calibration Date
THERMOSELECT	IQUANT	1	Thermo Select
FRAMEWORKVERSION	QUANT	6.33	Framework Version
INSTRUMENTVERSION	LABEL	3.50	Instrument Version
COMPLIANCEVOLTAGE	IQUANT	0	Compliance Voltage
ZCURVE	TABLE
	Pt	Time	Freq	Zreal	Zimag	Zsig	Zmod	Zphz	Idc	Vdc	IERange
	#	s	Hz	ohm	ohm	V	ohm	°	A	V	#
	0	9	300046.9	1.789299	1.246366	1	2.180601	34.85979	6.639062E-005	0.0010911	11
	1	13	238359.4	1.771558	0.981129	1	2.025101	28.97869	2.113439E-005	-0.0004371	11
	2	16	189328.1	1.765849	0.7640801	1	1.924069	23.39805	8.506869E-005	-0.0000985	11
	3	18	150421.9	1.759008	0.5843863	1	1.853542	18.37777	-5.240384E-005	0.0000978	11
	4	21	119484.4	1.760208	0.4396142	1	1.814274	14.02283	8.847051E-006	0.0003359	11
	5	23	94921.88	1.763925	0.3175536	1	1.792281	10.20546	8.151776E-007	0.000456	11
	6	26	75421.88	1.769045	0.2090651	1	1.781356	6.739935	1.378709E-005	0.0004878	11
	7	28	59859.37	1.777057	0.1131079	1	1.780653	3.641905	-1.772217E-005	0.0005542	11
	8	31	47578.12	1.786463	0.024521	1	1.786632	0.786393	1.765787E-005	0.0006305	11
	9	34	37828.12	1.797392	-0.0608738	1	1.798422	-1.939744	2.720381E-005	0.0006706	11
	10	36	30046.88	1.810133	-0.1480219	1	1.816175	-4.674908	-3.088146E-005	0.000614	11
	11	39	23859.38	1.825313	-0.2404804	1	1.841087	-7.505349	-4.679812E-005	0.0006308	11
	12	41	18984.38	1.842604	-0.3417463	1	1.874027	-10.50721	-8.210786E-005	0.0007153	11
	13	43	15046.87	1.863496	-0.4588859	1	1.919165	-13.83384	-6.026604E-005	0.0007015	11
	14	46	11953.13	1.887746	-0.5939472	1	1.978979	-17.4653	-1.386359E-005	0.0006794	11
	15	48	9515.62	1.915736	-0.7527295	1	2.058312	-21.45081	3.374957E-005	0.0007236	11
	16	50	7546.875	1.949499	-0.946288	1	2.167027	-25.89196	3.610986E-006	0.000706	11
	17	52	5928.309	1.990113	-1.191264	1	2.319409	-30.90436	3.293679E-005	0.0007255	11
	18	55	4733.456	2.035692	-1.471546	1	2.51187	-35.86214	3.452252E-005	0.000712	11
	19	57	3796.875	2.088055	-1.806504	1	2.761056	-40.86509	-3.728384E-005	0.0006543	11
	20	59	2987.132	2.155985	-2.253814	1	3.118966	-46.27087	3.702656E-005	0.0007277	11
	21	62	2390.625	2.23129	-2.767637	1	3.555063	-51.12398	-1.545673E-005	0.0006522	11
	22	64	1884.191	2.332308	-3.450209	1	4.164565	-55.94168	-2.298808E-005	0.0006638	10
	23	66	1516.544	2.443159	-4.214096	1	4.871102	-59.89661	-2.102025E-005	0.0006658	10
	24	69	1193.986	2.594378	-5.251278	1	5.857194	-63.70846	-2.243025E-005	0.0006658	10
	25	71	946.5144	2.775802	-6.503695	1	7.071289	-66.88702	-2.509807E-005	0.0006608	10
	26	74	751.7689	3.003112	-8.035231	1	8.578089	-69.50712	-2.193728E-005	0.0006598	10
	27	76	597.4265	3.291699	-9.91913	1	10.45105	-71.6414	2.34322E-005	0.0006662	10
	28	78	477.4305	3.638137	-12.18692	1	12.71837	-73.37815	-4.263367E-007	0.0006734	10
	29	80	376.6741	4.099818	-15.13647	1	15.68188	-74.84467	-4.096592E-008	0.0006746	10
	30	83	298.2954	4.670314	-18.72954	1	19.30304	-75.99851	-5.583374E-007	0.0006732	10
	31	85	237.7717	5.364091	-23.02686	1	23.64339	-76.88685	-9.15075E-007	0.0006689	10
	32	88	189.0121	6.240193	-28.37539	1	29.05344	-77.59719	1.023169E-007	0.0006682	10
	33	90	150.2404	7.329472	-34.94144	1	35.70189	-78.15314	-5.744606E-007	0.0006967	10
	34	92	119.1737	8.688973	-43.05367	1	43.92171	-78.58999	1.397994E-006	7.181189E-005	9
	35	95	95.0169	10.34754	-52.83331	1	53.83707	-78.91873	1.131986E-006	6.765881E-005	9
	36	97	75.60484	12.42139	-64.94905	1	66.12617	-79.17302	1.060151E-006	5.985305E-005	9
	37	100	54.50582	16.27096	-87.18726	1	88.69252	-79.42901	1.038939E-006	6.538643E-005	9
	38	102	45.95588	18.7856	-101.69	1	103.4106	-79.53352	1.389497E-006	6.803253E-005	9
	39	105	37.20238	22.51922	-122.9675	1	125.0125	-79.62233	1.171643E-006	6.928272E-005	9
	40	107	30.04808	27.19838	-149.1732	1	151.6324	-79.6669	1.033339E-006	7.353388E-005	9
	41	109	23.91582	33.30134	-183.2981	1	186.2986	-79.7029	1.172874E-006	6.61032E-005	9
	42	112	18.60119	41.6868	-229.4104	1	233.1672	-79.701	1.126628E-006	6.939995E-005	9
	43	114	15.02404	50.61248	-278.062	1	282.6307	-79.68404	1.506155E-006	7.949097E-005	9
	44	116	12.01923	62.3209	-339.718	1	345.3871	-79.60474	1.07633E-006	6.721242E-005	9
	45	119	9.450605	78.30311	-421.7487	1	428.9561	-79.48206	1.386681E-006	5.872628E-005	9
	46	121	7.512019	97.3868	-515.325	1	524.4464	-79.29838	8.070145E-007	0.0006671	8
	47	124	5.978954	121.6269	-631.8885	1	643.4875	-79.10486	7.015262E-007	0.0006507	8
	48	127	4.734848	153.1858	-777.9908	1	792.9285	-78.86099	7.919967E-007	0.0006703	8
	49	130	3.75601	193.2137	-954.289	1	973.652	-78.55412	6.530028E-007	0.00063	8
	50	134	3.004808	242.0529	-1160.469	1	1185.444	-78.21806	6.980358E-007	0.0006674	8
	51	138	2.372217	308.7546	-1427.367	1	1460.378	-77.79436	6.613251E-007	0.0007224	8
	52	142	1.878005	386.6115	-1750.558	1	1792.741	-77.54611	5.6089E-007	0.0006874	8
	53	146	1.512097	474.3319	-2109.949	1	2162.608	-77.33012	6.541131E-007	0.0006038	8
	54	152	1.201923	594.965	-2582.842	1	2650.482	-77.02803	6.036892E-007	0.0006309	8
	55	158	0.956633	738.7187	-3149.094	1	3234.579	-76.79819	6.132163E-007	1.413222E-005	8
