EXPLAIN
TAG	EISPOT
TITLE	LABEL	Potentiostatic EIS	Test Identifier
DATE	LABEL	8/3/2020	Date
TIME	LABEL	12:49:47	Time
NOTES	NOTES	1	Notes...
	
PSTAT	PSTAT	REF3000-16137	Potentiostat
VDC	POTEN	0.00000E+000	T	DC Voltage (V)
FREQINIT	QUANT	3.00000E+005	Initial Freq. (Hz)
FREQFINAL	QUANT	1.00000E+000	Final Freq. (Hz)
PTSPERDEC	QUANT	1.00000E+001	Points/decade
VAC	QUANT	5.00000E+001	AC Voltage (mV rms)
AREA	QUANT	1.00000E+000	Sample Area (cm^2)
SPEED	SELECTOR	2	Optimize for:
ZGUESS	QUANT	1.00000E+003	Estimated Z (ohms)
EOC	QUANT	0	Open Circuit (V)
SEQUENCER	TOGGLE	TRUE	Run as Sequence
PSTATMODEL	IQUANT	5	Pstat Model
PSTATSECTION	LABEL	REF3000-16137	Pstat Section
PSTATSERIALNO	LABEL	16137	Pstat Serial Number
CTRLMODE	IQUANT	1	Control Mode
IESTAB	IQUANT	0	I/E Stability
CASPEED	IQUANT	1	Control Amp Speed
CONVENTION	IQUANT	1	Current Convention
ICHRANGE	IQUANT	2	Ich Range
ICHRANGEMODE	TOGGLE	F	Ich Auto Range
ICHOFFSETENABLE	TOGGLE	T	Ich Offset Enable
ICHOFFSET	QUANT	0	Ich Offset (V)
ICHFILTER	IQUANT	3	Ich Filter
VCHRANGE	IQUANT	2	Vch Range
VCHRANGEMODE	TOGGLE	F	Vch Auto Range
VCHOFFSETENABLE	TOGGLE	T	Vch Offset Enable
VCHOFFSET	QUANT	0	Vch Offset (V)
VCHFILTER	IQUANT	3	Vch Filter
ACHRANGE	IQUANT	2	Ach Range
ACHOFFSETENABLE	TOGGLE	F	Ach Offset Enable
ACHOFFSET	QUANT	0	Ach Offset (V)
ACHFILTER	IQUANT	3	Ach Filter
IERANGELOWERLIMIT	IQUANT	2	I/E Range Lower Limit
IERANGEMODE	TOGGLE	F	I/E AutoRange
IERANGE	IQUANT	11	I/E Range
POSFEEDENABLE	TOGGLE	F	Positive Feedback IR Comp
POSFEEDRESISTANCE	QUANT	0	Positive Feedback Resistance (ohm)
ACHSELECT	IQUANT	0	Ach Select
CABLEID	IQUANT	13	Cable ID
DCCALDATE	LABEL	7/31/2020	DC Calibration Date
ACCALDATE	LABEL	7/31/2020	AC Calibration Date
THERMOSELECT	IQUANT	1	Thermo Select
FRAMEWORKVERSION	QUANT	6.33	Framework Version
INSTRUMENTVERSION	LABEL	3.50	Instrument Version
COMPLIANCEVOLTAGE	IQUANT	0	Compliance Voltage
ZCURVE	TABLE
	Pt	Time	Freq	Zreal	Zimag	Zsig	Zmod	Zphz	Idc	Vdc	IERange
	#	s	Hz	ohm	ohm	V	ohm	°	A	V	#
	0	10	300046.9	1.210219	1.267442	1	1.752438	46.32306	6.399838E-005	0.0010557	11
	1	13	238359.4	1.157809	1.002903	1	1.531776	40.89936	-0.0001257	0.0007433	11
	2	16	189328.1	1.140591	0.7864187	1	1.385425	34.58562	-0.0000984	-0.0005329	11
	3	18	150421.9	1.130533	0.6141304	1	1.286569	28.51179	-9.453458E-005	-0.000223	11
	4	21	119484.4	1.149356	0.4631863	1	1.239177	21.94926	7.434123E-005	0.0002178	11
	5	27	94921.88	1.163493	0.3439709	1	1.213274	16.46959	-3.746332E-005	0.0003275	11
	6	30	75421.88	1.166229	0.2386491	1	1.190396	11.56495	3.380431E-005	0.0003744	11
	7	32	59859.37	1.170501	0.1473556	1	1.17974	7.175281	2.372699E-005	0.0004472	11
	8	35	47578.12	1.176177	0.0660457	1	1.17803	3.213947	1.250891E-005	0.0005434	11
	9	37	37828.12	1.182299	-0.0104531	1	1.182346	-0.5065567	-6.931963E-005	0.0006105	11
	10	40	30046.88	1.190141	-0.0860401	1	1.193247	-4.134949	-2.796728E-005	0.0005992	11
	11	42	23859.38	1.19972	-0.1639397	1	1.210869	-7.78118	1.811879E-005	0.0006561	11
	12	45	18984.38	1.210885	-0.246943	1	1.235809	-11.52661	-6.08225E-006	0.0006618	11
	13	47	15046.87	1.22433	-0.3411387	1	1.270968	-15.56959	6.986957E-006	0.0006798	11
	14	49	11953.13	1.240094	-0.4483416	1	1.318652	-19.87687	-1.491756E-005	0.0006808	11
	15	52	9515.62	1.258885	-0.5731229	1	1.383207	-24.47799	3.939035E-005	0.0007288	11
	16	54	7546.875	1.281988	-0.7245183	1	1.472556	-29.47306	-5.505502E-005	0.0007585	11
	17	56	5928.309	1.310773	-0.9160798	1	1.599165	-34.94913	3.277367E-005	0.0006867	11
	18	58	4733.456	1.343987	-1.134337	1	1.758699	-40.16465	-1.844114E-005	0.0006698	11
	19	61	3796.875	1.383597	-1.394066	1	1.964118	-45.21594	3.814782E-005	0.0007239	11
	20	63	2987.132	1.437713	-1.739735	1	2.256922	-50.42976	-2.051199E-005	0.000667	11
	21	65	2390.625	1.4994	-2.135198	1	2.609075	-54.92232	3.321019E-005	0.0007229	11
	22	68	1884.191	1.584055	-2.653311	1	3.090193	-59.16235	-1.684019E-005	0.0006683	11
	23	70	1516.544	1.678481	-3.231745	1	3.641631	-62.55385	-1.818617E-005	0.0006571	11
	24	72	1193.986	1.810211	-4.016285	1	4.405385	-65.73806	-5.722385E-006	0.0006544	10
	25	75	946.5144	1.971184	-4.953754	1	5.331533	-68.30154	-3.782269E-007	0.0006608	10
	26	77	751.7689	2.162681	-6.098166	1	6.470303	-70.47324	-1.36228E-005	0.0007203	10
	27	79	597.4265	2.40007	-7.494595	1	7.869517	-72.24285	-1.508645E-005	0.0006582	10
	28	82	477.4305	2.691925	-9.168036	1	9.55507	-73.63667	4.765958E-006	0.0006741	10
	29	84	376.6741	3.071496	-11.33929	1	11.74792	-74.84386	4.412685E-006	0.0006677	10
	30	86	298.2954	3.535348	-13.97667	1	14.41687	-75.80499	4.653967E-006	0.0006707	10
	31	89	237.7717	4.093625	-17.12189	1	17.60445	-76.55373	4.369182E-006	0.0006615	10
	32	91	189.0121	4.794612	-21.02519	1	21.56495	-77.15387	3.688772E-006	0.0006697	10
	33	93	150.2404	5.665767	-25.81254	1	26.42703	-77.62009	3.965761E-006	0.0006655	10
	34	96	119.1737	6.766841	-31.75379	1	32.4668	-77.97002	4.210469E-006	0.0007153	10
	35	98	95.0169	8.115004	-38.86625	1	39.70439	-78.20647	4.69029E-006	0.0006662	10
	36	101	75.60484	9.81556	-47.59556	1	48.59715	-78.34734	5.227547E-006	6.220432E-005	9
	37	103	54.50582	13.08318	-63.6537	1	64.98433	-78.38535	5.21155E-006	5.970279E-005	9
	38	106	45.95588	15.31069	-74.09586	1	75.66118	-78.32508	5.698913E-006	7.436105E-005	9
	39	108	37.20238	18.69129	-89.28767	1	91.22309	-78.17656	5.593452E-006	6.125569E-005	9
	40	111	30.04808	23.03112	-107.7247	1	110.1592	-77.93207	5.293215E-006	6.065653E-005	9
	41	113	23.91582	29.0271	-131.6698	1	134.8314	-77.56779	5.366127E-006	6.219686E-005	9
	42	115	18.60119	37.27785	-163.2895	1	167.4906	-77.14016	5.368079E-006	7.010348E-005	9
	43	118	15.02404	46.25459	-195.9993	1	201.3832	-76.72151	5.727165E-006	6.839702E-005	9
	44	120	12.01923	58.01595	-236.6754	1	243.6823	-76.22674	5.378496E-006	6.851468E-005	9
	45	122	9.450605	73.86743	-289.8052	1	299.071	-75.70055	5.506533E-006	7.303266E-005	9
	46	125	7.512019	92.50076	-350.8921	1	362.8797	-75.2319	5.749017E-006	6.665917E-005	9
	47	128	5.978954	115.4294	-422.5454	1	438.0281	-74.72094	5.163637E-006	0.0006374	8
	48	131	4.734848	145.3145	-512.7772	1	532.9698	-74.17796	5.014498E-006	0.0006293	8
	49	134	3.75601	183.436	-620.3532	1	646.9056	-73.52726	5.276003E-006	0.0006573	8
	50	137	3.004808	230.5015	-744.1764	1	779.0568	-72.79013	5.114146E-006	0.0006495	8
	51	141	2.372217	296.6445	-899.5672	1	947.2165	-71.74933	5.058792E-006	0.0005989	8
	52	145	1.878005	381.5855	-1084.877	1	1150.028	-70.62161	5.164536E-006	0.000633	8
	53	150	1.512097	481.7556	-1281.658	1	1369.21	-69.39954	5.037126E-006	0.0006978	8
	54	155	1.201923	623.2174	-1521.741	1	1644.414	-67.72883	5.007096E-006	0.0006981	8
	55	162	0.956633	796.7888	-1788.341	1	1957.814	-65.98482	4.757555E-006	-3.560465E-006	8
