EXPLAIN
TAG	EISPOT
TITLE	LABEL	Potentiostatic EIS	Test Identifier
DATE	LABEL	8/3/2020	Date
TIME	LABEL	13:20:35	Time
NOTES	NOTES	1	Notes...
	
PSTAT	PSTAT	REF3000-16137	Potentiostat
VDC	POTEN	0.00000E+000	T	DC Voltage (V)
FREQINIT	QUANT	3.00000E+005	Initial Freq. (Hz)
FREQFINAL	QUANT	1.00000E+000	Final Freq. (Hz)
PTSPERDEC	QUANT	1.00000E+001	Points/decade
VAC	QUANT	5.00000E+001	AC Voltage (mV rms)
AREA	QUANT	1.00000E+000	Sample Area (cm^2)
SPEED	SELECTOR	2	Optimize for:
ZGUESS	QUANT	1.00000E+003	Estimated Z (ohms)
EOC	QUANT	0	Open Circuit (V)
SEQUENCER	TOGGLE	TRUE	Run as Sequence
PSTATMODEL	IQUANT	5	Pstat Model
PSTATSECTION	LABEL	REF3000-16137	Pstat Section
PSTATSERIALNO	LABEL	16137	Pstat Serial Number
CTRLMODE	IQUANT	1	Control Mode
IESTAB	IQUANT	0	I/E Stability
CASPEED	IQUANT	1	Control Amp Speed
CONVENTION	IQUANT	1	Current Convention
ICHRANGE	IQUANT	2	Ich Range
ICHRANGEMODE	TOGGLE	F	Ich Auto Range
ICHOFFSETENABLE	TOGGLE	T	Ich Offset Enable
ICHOFFSET	QUANT	0	Ich Offset (V)
ICHFILTER	IQUANT	3	Ich Filter
VCHRANGE	IQUANT	2	Vch Range
VCHRANGEMODE	TOGGLE	F	Vch Auto Range
VCHOFFSETENABLE	TOGGLE	T	Vch Offset Enable
VCHOFFSET	QUANT	0	Vch Offset (V)
VCHFILTER	IQUANT	3	Vch Filter
ACHRANGE	IQUANT	2	Ach Range
ACHOFFSETENABLE	TOGGLE	F	Ach Offset Enable
ACHOFFSET	QUANT	0	Ach Offset (V)
ACHFILTER	IQUANT	3	Ach Filter
IERANGELOWERLIMIT	IQUANT	2	I/E Range Lower Limit
IERANGEMODE	TOGGLE	F	I/E AutoRange
IERANGE	IQUANT	11	I/E Range
POSFEEDENABLE	TOGGLE	F	Positive Feedback IR Comp
POSFEEDRESISTANCE	QUANT	0	Positive Feedback Resistance (ohm)
ACHSELECT	IQUANT	0	Ach Select
CABLEID	IQUANT	13	Cable ID
DCCALDATE	LABEL	7/31/2020	DC Calibration Date
ACCALDATE	LABEL	7/31/2020	AC Calibration Date
THERMOSELECT	IQUANT	1	Thermo Select
FRAMEWORKVERSION	QUANT	6.33	Framework Version
INSTRUMENTVERSION	LABEL	3.50	Instrument Version
COMPLIANCEVOLTAGE	IQUANT	0	Compliance Voltage
ZCURVE	TABLE
	Pt	Time	Freq	Zreal	Zimag	Zsig	Zmod	Zphz	Idc	Vdc	IERange
	#	s	Hz	ohm	ohm	V	ohm	°	A	V	#
	0	7	300046.9	48.70174	1.056029	1	48.71319	1.242184	5.040925E-005	-0.0018115	9
	1	10	238359.4	50.57458	0.8519961	1	50.58176	0.965132	5.247572E-005	-0.0022589	9
	2	14	189328.1	52.22771	0.4601574	1	52.22973	0.504797	8.424579E-006	-0.0011037	9
	3	16	150421.9	53.79286	0.278521	1	53.79358	0.2966553	3.783244E-005	-0.0005388	9
	4	19	119484.4	55.3913	0.1316105	1	55.39146	0.1361354	3.217999E-005	-0.0002442	9
	5	21	94921.88	57.09992	0.1849324	1	57.10022	0.185566	-1.277498E-005	0.0001381	9
	6	24	75421.88	58.72238	-0.0076204	1	58.72238	-0.0074353	3.441314E-006	-0.0003938	9
	7	26	59859.37	60.44601	-0.2170418	1	60.4464	-0.2057295	-1.753697E-005	0.0005455	9
	8	29	47578.12	62.23006	-0.418701	1	62.23147	-0.385496	-1.538695E-005	0.0003353	9
	9	31	37828.12	64.05723	-0.6056754	1	64.06009	-0.5417283	1.547652E-005	-0.0005726	9
	10	34	30046.88	65.95067	-0.8172723	1	65.95573	-0.7099831	-1.916758E-005	0.0005818	9
	11	36	23859.38	67.79807	-1.036575	1	67.806	-0.8759354	-1.826008E-005	0.000533	9
	12	39	18984.38	69.64393	-1.297835	1	69.65602	-1.0676	2.108844E-005	-0.0006373	9
	13	41	15046.87	71.5043	-1.618241	1	71.52261	-1.296462	-1.538054E-005	0.0007424	9
	14	43	11953.13	73.44897	-1.992946	1	73.476	-1.554268	-8.84772E-006	2.357559E-005	9
	15	46	9515.62	75.41808	-2.485011	1	75.45901	-1.887202	-5.860616E-006	0.0005852	9
	16	48	7546.875	77.44888	-3.09247	1	77.51059	-2.286559	2.041545E-005	-0.0005844	9
	17	50	5928.309	79.57595	-3.891433	1	79.67104	-2.799655	1.111418E-005	0.0001164	9
	18	53	4733.456	81.80439	-4.764086	1	81.94299	-3.333	1.160515E-005	-0.0005738	9
	19	55	3796.875	84.06245	-5.88195	1	84.26799	-4.002531	-1.891002E-005	0.0007523	9
	20	57	2987.132	86.48045	-7.340179	1	86.79139	-4.851452	5.533535E-006	-0.0004415	9
	21	60	2390.625	88.99912	-8.944329	1	89.44744	-5.738904	2.267597E-005	-0.0005171	9
	22	62	1884.191	91.72122	-11.16109	1	92.3978	-6.937925	-1.357515E-005	0.0001797	9
	23	64	1516.544	94.60297	-13.54341	1	95.5675	-8.147137	2.601351E-006	0.0004206	9
	24	66	1193.986	97.9773	-16.66509	1	99.3844	-9.65314	-2.909158E-006	-0.0002225	9
	25	69	946.5144	101.6739	-20.43407	1	103.707	-11.36372	-1.704338E-005	0.0003986	9
	26	71	751.7689	105.6372	-24.89564	1	108.5312	-13.26098	1.882774E-006	0.0004711	9
	27	74	597.4265	109.9467	-30.0583	1	113.9815	-15.29044	5.759532E-006	-0.0004645	9
	28	76	477.4305	114.9522	-36.20996	1	120.5204	-17.48443	9.941722E-007	6.637898E-005	9
	29	78	376.6741	120.7081	-43.73061	1	128.3854	-19.91463	1.027679E-006	6.283765E-005	9
	30	81	298.2954	127.1344	-52.44845	1	137.5281	-22.41828	9.786373E-007	7.030283E-005	9
	31	83	237.7717	134.3138	-62.41775	1	148.1087	-24.92503	1.043653E-006	6.602946E-005	9
	32	85	189.0121	142.3486	-74.27042	1	160.5591	-27.55331	9.151219E-007	7.282774E-005	9
	33	88	150.2404	151.1446	-88.26157	1	175.028	-30.28298	9.684387E-007	6.972549E-005	9
	34	90	119.1737	160.7734	-105.0805	1	192.0677	-33.16838	9.456849E-007	7.119701E-005	9
	35	92	95.0169	171.0799	-124.8432	1	211.788	-36.11959	1.027083E-006	5.942231E-005	9
	36	95	75.60484	182.4509	-148.9969	1	235.5598	-39.23648	1.026089E-006	6.197827E-005	9
	37	98	54.50582	198.252	-192.5398	1	276.361	-44.16256	1.005642E-006	5.893109E-005	9
	38	100	45.95588	209.1958	-221.5774	1	304.7285	-46.64637	1.056491E-006	6.672035E-005	9
	39	102	37.20238	222.3148	-263.9514	1	345.1003	-49.89402	1.072421E-006	6.039634E-005	9
	40	105	30.04808	236.7626	-316.2844	1	395.0853	-53.18239	1.009557E-006	6.665253E-005	9
	41	107	23.91582	252.3029	-383.4955	1	459.0485	-56.65895	4.874713E-008	0.0006431	8
	42	110	18.60119	271.6159	-478.0059	1	549.7862	-60.39359	1.147257E-007	0.0006427	8
	43	112	15.02404	291.4725	-578.4088	1	647.6982	-63.25549	9.388143E-008	0.0006492	8
	44	114	12.01923	314.9843	-707.4355	1	774.3902	-65.99907	1.543796E-008	0.0006342	8
	45	117	9.450605	344.365	-880.6941	1	945.6264	-68.64374	7.456448E-008	0.0006478	8
	46	119	7.512019	378.4184	-1087.31	1	1151.28	-70.81049	6.669877E-008	0.0006671	8
	47	122	5.978954	419.3912	-1342.47	1	1406.454	-72.65105	4.927053E-008	0.0006465	8
	48	125	4.734848	471.5115	-1666.828	1	1732.236	-74.20488	4.713604E-008	0.0006714	8
	49	128	3.75601	534.6595	-2068.917	1	2136.885	-75.51035	4.809718E-008	0.0006375	8
	50	132	3.004808	609.5665	-2546.414	1	2618.357	-76.53773	5.225922E-009	0.0006798	8
	51	135	2.372217	705.2534	-3176.893	1	3254.233	-77.48362	9.100091E-009	0.0007024	8
	52	140	1.878005	829.6766	-3953.133	1	4039.26	-78.1469	1.120358E-008	0.0006116	8
	53	144	1.512097	976.634	-4857.272	1	4954.483	-78.63133	-1.266872E-009	0.0007079	7
	54	150	1.201923	1159.63	-6036.646	1	6147.019	-79.12605	-2.735894E-009	0.0005853	7
	55	156	0.956633	1385.85	-7491.696	1	7618.798	-79.51962	-1.806132E-008	-2.473843E-005	7
