EXPLAIN
TAG	EISPOT
TITLE	LABEL	Potentiostatic EIS	Test Identifier
DATE	LABEL	8/3/2020	Date
TIME	LABEL	20:42:26	Time
NOTES	NOTES	1	Notes...
	
PSTAT	PSTAT	REF3000-16137	Potentiostat
VDC	POTEN	0.00000E+000	T	DC Voltage (V)
FREQINIT	QUANT	3.00000E+005	Initial Freq. (Hz)
FREQFINAL	QUANT	1.00000E+000	Final Freq. (Hz)
PTSPERDEC	QUANT	1.00000E+001	Points/decade
VAC	QUANT	5.00000E+001	AC Voltage (mV rms)
AREA	QUANT	1.00000E+000	Sample Area (cm^2)
SPEED	SELECTOR	2	Optimize for:
ZGUESS	QUANT	1.00000E+003	Estimated Z (ohms)
EOC	QUANT	0	Open Circuit (V)
SEQUENCER	TOGGLE	TRUE	Run as Sequence
PSTATMODEL	IQUANT	5	Pstat Model
PSTATSECTION	LABEL	REF3000-16137	Pstat Section
PSTATSERIALNO	LABEL	16137	Pstat Serial Number
CTRLMODE	IQUANT	1	Control Mode
IESTAB	IQUANT	0	I/E Stability
CASPEED	IQUANT	1	Control Amp Speed
CONVENTION	IQUANT	1	Current Convention
ICHRANGE	IQUANT	2	Ich Range
ICHRANGEMODE	TOGGLE	F	Ich Auto Range
ICHOFFSETENABLE	TOGGLE	T	Ich Offset Enable
ICHOFFSET	QUANT	0	Ich Offset (V)
ICHFILTER	IQUANT	3	Ich Filter
VCHRANGE	IQUANT	2	Vch Range
VCHRANGEMODE	TOGGLE	F	Vch Auto Range
VCHOFFSETENABLE	TOGGLE	T	Vch Offset Enable
VCHOFFSET	QUANT	0	Vch Offset (V)
VCHFILTER	IQUANT	3	Vch Filter
ACHRANGE	IQUANT	2	Ach Range
ACHOFFSETENABLE	TOGGLE	F	Ach Offset Enable
ACHOFFSET	QUANT	0	Ach Offset (V)
ACHFILTER	IQUANT	3	Ach Filter
IERANGELOWERLIMIT	IQUANT	2	I/E Range Lower Limit
IERANGEMODE	TOGGLE	F	I/E AutoRange
IERANGE	IQUANT	11	I/E Range
POSFEEDENABLE	TOGGLE	F	Positive Feedback IR Comp
POSFEEDRESISTANCE	QUANT	0	Positive Feedback Resistance (ohm)
ACHSELECT	IQUANT	0	Ach Select
CABLEID	IQUANT	13	Cable ID
DCCALDATE	LABEL	7/31/2020	DC Calibration Date
ACCALDATE	LABEL	7/31/2020	AC Calibration Date
THERMOSELECT	IQUANT	1	Thermo Select
FRAMEWORKVERSION	QUANT	6.33	Framework Version
INSTRUMENTVERSION	LABEL	3.50	Instrument Version
COMPLIANCEVOLTAGE	IQUANT	0	Compliance Voltage
ZCURVE	TABLE
	Pt	Time	Freq	Zreal	Zimag	Zsig	Zmod	Zphz	Idc	Vdc	IERange
	#	s	Hz	ohm	ohm	V	ohm	°	A	V	#
	0	10	300046.9	4.045539	1.245026	1	4.232786	17.10589	1.368946E-005	1.352468E-005	10
	1	13	238359.4	4.041688	0.987214	1	4.160509	13.72618	-4.151345E-005	-0.000283	10
	2	17	189328.1	4.052717	0.7705483	1	4.125319	10.76523	1.102316E-005	-2.084121E-005	10
	3	19	150421.9	4.071264	0.5913751	1	4.11399	8.264746	-2.529117E-006	0.0001976	10
	4	22	119484.4	4.079429	0.4442762	1	4.10355	6.215384	-6.221031E-006	0.000399	10
	5	24	94921.88	4.099593	0.3343883	1	4.113208	4.663078	3.860935E-005	0.0004626	10
	6	27	75421.88	4.117812	0.2233619	1	4.123865	3.104844	2.337529E-005	0.0005138	10
	7	29	59859.37	4.138085	0.1243762	1	4.139954	1.72159	-2.508751E-005	0.0005379	10
	8	32	47578.12	4.160908	0.0340651	1	4.161047	0.469067	-1.804674E-005	0.0006108	10
	9	34	37828.12	4.185248	-0.0534994	1	4.18559	-0.7323629	1.962688E-005	0.0006071	10
	10	37	30046.88	4.212073	-0.1420724	1	4.214468	-1.931843	-2.767826E-005	0.0006196	10
	11	39	23859.38	4.240776	-0.2351463	1	4.24729	-3.173738	2.51463E-005	0.0006523	10
	12	42	18984.38	4.271405	-0.3360008	1	4.2846	-4.497787	1.935926E-005	0.000663	10
	13	44	15046.87	4.305004	-0.4524293	1	4.328712	-5.999409	-1.495039E-005	0.0006854	10
	14	46	11953.13	4.342882	-0.5868304	1	4.38235	-7.695461	-2.19585E-005	0.0006844	10
	15	49	9515.62	4.385591	-0.7449064	1	4.448403	-9.63987	-1.899536E-005	0.0006562	10
	16	51	7546.875	4.435147	-0.936675	1	4.532978	-11.92527	2.977803E-006	0.000643	10
	17	53	5928.309	4.495159	-1.179481	1	4.647325	-14.70236	-1.487933E-005	0.0006727	10
	18	56	4733.456	4.561499	-1.45445	1	4.787765	-17.68507	-2.515429E-005	0.0006712	10
	19	58	3796.875	4.637683	-1.77935	1	4.967312	-20.99042	2.138881E-005	0.0006604	10
	20	60	2987.132	4.732767	-2.212522	1	5.224398	-25.05562	-2.580267E-005	0.0006669	10
	21	63	2390.625	4.837866	-2.701841	1	5.5412	-29.18239	2.010917E-005	0.0006597	10
	22	65	1884.191	4.968672	-3.345976	1	5.990264	-33.9569	6.113444E-006	0.0006559	10
	23	67	1516.544	5.110655	-4.064374	1	6.529773	-38.49434	-2.369042E-005	0.000731	10
	24	70	1193.986	5.294188	-5.036992	1	7.307511	-43.57391	2.075328E-005	0.0006656	10
	25	72	946.5144	5.513271	-6.199996	1	8.296753	-48.3553	1.958883E-005	0.0006585	10
	26	74	751.7689	5.769743	-7.633306	1	9.56856	-52.91567	-2.435434E-006	0.0006579	10
	27	77	597.4265	6.090467	-9.390934	1	11.19301	-57.03468	-9.164431E-006	0.0006575	10
	28	79	477.4305	6.476676	-11.5024	1	13.20048	-60.61738	-8.464634E-007	0.0006723	10
	29	81	376.6741	6.991685	-14.24733	1	15.87041	-63.86113	-2.215139E-007	0.0006687	10
	30	84	298.2954	7.639547	-17.58448	1	19.17229	-66.51755	-8.994566E-007	0.0006772	10
	31	86	237.7717	8.445737	-21.56345	1	23.15843	-68.61125	-4.795898E-006	0.0007178	10
	32	88	189.0121	9.488603	-26.48889	1	28.13707	-70.29193	-9.514762E-007	0.0006685	10
	33	91	150.2404	10.83518	-32.5133	1	34.27121	-71.56915	-8.589063E-008	0.0006732	10
	34	93	119.1737	12.58677	-39.92334	1	41.86048	-72.50131	-4.711925E-007	0.0006727	10
	35	96	95.0169	14.77388	-48.66327	1	50.85647	-73.11202	1.683894E-006	7.780943E-005	9
	36	98	75.60484	17.62662	-59.37978	1	61.94075	-73.46672	1.601666E-006	7.028251E-005	9
	37	101	54.50582	23.13183	-78.62186	1	81.95413	-73.60526	1.504135E-006	6.992724E-005	9
	38	103	45.95588	26.84424	-90.88432	1	94.76589	-73.54459	1.84063E-006	7.744706E-005	9
	39	105	37.20238	32.42237	-108.4935	1	113.2345	-73.36167	1.734977E-006	8.278849E-005	9
	40	108	30.04808	39.32259	-129.4596	1	135.2999	-73.10416	1.594233E-006	8.266814E-005	9
	41	110	23.91582	48.37284	-156.0123	1	163.3395	-72.77354	1.714861E-006	7.618096E-005	9
	42	113	18.60119	60.43971	-190.904	1	200.2431	-72.43235	1.774232E-006	7.232941E-005	9
	43	115	15.02404	72.8438	-226.3107	1	237.7451	-72.15792	1.64859E-006	8.549341E-005	9
	44	117	12.01923	88.31641	-270.1017	1	284.1737	-71.89357	1.568856E-006	7.424376E-005	9
	45	120	9.450605	107.8449	-326.4169	1	343.7711	-71.71696	1.793827E-006	8.338384E-005	9
	46	122	7.512019	129.773	-391.0885	1	412.0573	-71.64285	1.934294E-006	0.000096	9
	47	125	5.978954	154.1985	-466.612	1	491.4305	-71.71314	1.044969E-006	0.0006553	8
	48	128	4.734848	183.9324	-561.9919	1	591.3256	-71.87742	1.036482E-006	0.0006794	8
	49	131	3.75601	217.8337	-678.1992	1	712.3241	-72.19328	1.016129E-006	0.0006505	8
	50	135	3.004808	256.3114	-814.2873	1	853.674	-72.52768	9.704878E-007	0.0006844	8
	51	138	2.372217	306.3162	-993.389	1	1039.544	-72.8626	9.468841E-007	0.0007268	8
	52	143	1.878005	366.4044	-1212.694	1	1266.838	-73.18829	8.933069E-007	0.000621	8
	53	147	1.512097	439.5949	-1460.213	1	1524.948	-73.24566	9.336281E-007	0.0007063	8
	54	153	1.201923	538.9858	-1789.884	1	1869.276	-73.24143	8.813942E-007	0.0006216	8
	55	159	0.956633	673.1796	-2187.211	1	2288.463	-72.89268	8.201654E-007	9.36811E-006	8
