EXPLAIN
TAG	EISPOT
TITLE	LABEL	Potentiostatic EIS	Test Identifier
DATE	LABEL	8/3/2020	Date
TIME	LABEL	20:48:03	Time
NOTES	NOTES	1	Notes...
	
PSTAT	PSTAT	REF3000-16137	Potentiostat
VDC	POTEN	0.00000E+000	T	DC Voltage (V)
FREQINIT	QUANT	3.00000E+005	Initial Freq. (Hz)
FREQFINAL	QUANT	1.00000E+000	Final Freq. (Hz)
PTSPERDEC	QUANT	1.00000E+001	Points/decade
VAC	QUANT	5.00000E+001	AC Voltage (mV rms)
AREA	QUANT	1.00000E+000	Sample Area (cm^2)
SPEED	SELECTOR	2	Optimize for:
ZGUESS	QUANT	1.00000E+003	Estimated Z (ohms)
EOC	QUANT	0	Open Circuit (V)
SEQUENCER	TOGGLE	TRUE	Run as Sequence
PSTATMODEL	IQUANT	5	Pstat Model
PSTATSECTION	LABEL	REF3000-16137	Pstat Section
PSTATSERIALNO	LABEL	16137	Pstat Serial Number
CTRLMODE	IQUANT	1	Control Mode
IESTAB	IQUANT	0	I/E Stability
CASPEED	IQUANT	1	Control Amp Speed
CONVENTION	IQUANT	1	Current Convention
ICHRANGE	IQUANT	2	Ich Range
ICHRANGEMODE	TOGGLE	F	Ich Auto Range
ICHOFFSETENABLE	TOGGLE	T	Ich Offset Enable
ICHOFFSET	QUANT	0	Ich Offset (V)
ICHFILTER	IQUANT	3	Ich Filter
VCHRANGE	IQUANT	2	Vch Range
VCHRANGEMODE	TOGGLE	F	Vch Auto Range
VCHOFFSETENABLE	TOGGLE	T	Vch Offset Enable
VCHOFFSET	QUANT	0	Vch Offset (V)
VCHFILTER	IQUANT	3	Vch Filter
ACHRANGE	IQUANT	2	Ach Range
ACHOFFSETENABLE	TOGGLE	F	Ach Offset Enable
ACHOFFSET	QUANT	0	Ach Offset (V)
ACHFILTER	IQUANT	3	Ach Filter
IERANGELOWERLIMIT	IQUANT	2	I/E Range Lower Limit
IERANGEMODE	TOGGLE	F	I/E AutoRange
IERANGE	IQUANT	11	I/E Range
POSFEEDENABLE	TOGGLE	F	Positive Feedback IR Comp
POSFEEDRESISTANCE	QUANT	0	Positive Feedback Resistance (ohm)
ACHSELECT	IQUANT	0	Ach Select
CABLEID	IQUANT	13	Cable ID
DCCALDATE	LABEL	7/31/2020	DC Calibration Date
ACCALDATE	LABEL	7/31/2020	AC Calibration Date
THERMOSELECT	IQUANT	1	Thermo Select
FRAMEWORKVERSION	QUANT	6.33	Framework Version
INSTRUMENTVERSION	LABEL	3.50	Instrument Version
COMPLIANCEVOLTAGE	IQUANT	0	Compliance Voltage
ZCURVE	TABLE
	Pt	Time	Freq	Zreal	Zimag	Zsig	Zmod	Zphz	Idc	Vdc	IERange
	#	s	Hz	ohm	ohm	V	ohm	°	A	V	#
	0	8	300046.9	8.898674	1.190119	1	8.977905	7.6176	8.353391E-006	6.287826E-005	10
	1	12	238359.4	8.953898	0.9302309	1	9.00209	5.931247	1.699149E-005	0.0001386	10
	2	15	189328.1	9.023931	0.7230124	1	9.052849	4.580848	-3.080377E-005	0.0002896	10
	3	17	150421.9	9.078647	0.5465429	1	9.095083	3.445101	-2.483149E-005	0.0004243	10
	4	20	119484.4	9.156124	0.4044284	1	9.165051	2.529126	2.231195E-005	0.0005456	10
	5	22	94921.88	9.227367	0.3068315	1	9.232468	1.904516	2.652578E-005	0.0006073	10
	6	25	75421.88	9.296871	0.1890028	1	9.298792	1.164647	5.580655E-006	0.0005823	10
	7	27	59859.37	9.372032	0.0813144	1	9.372385	0.4971021	-1.136135E-005	0.0006092	10
	8	30	47578.12	9.450334	-0.0163114	1	9.450348	-0.0988932	2.053643E-005	0.0006155	10
	9	32	37828.12	9.5322	-0.1085983	1	9.53282	-0.6527302	9.714621E-006	0.0006639	10
	10	35	30046.88	9.61566	-0.2045403	1	9.61783	-1.218588	-1.146802E-005	0.0006373	10
	11	38	23859.38	9.69921	-0.3081586	1	9.7041	-1.819763	2.064186E-005	0.0006424	10
	12	40	18984.38	9.7829	-0.4237259	1	9.79208	-2.480096	-1.993042E-006	0.0006427	10
	13	42	15046.87	9.87033	-0.5592018	1	9.88615	-3.242617	1.341667E-005	0.0006405	10
	14	44	11953.13	9.9639	-0.7161793	1	9.98961	-4.111201	1.387286E-005	0.0006428	10
	15	47	9515.62	10.06435	-0.905073	1	10.10496	-5.138709	-2.967283E-005	0.0006473	10
	16	49	7546.875	10.17319	-1.133523	1	10.23615	-6.357817	-2.424984E-005	0.000694	10
	17	51	5928.309	10.29654	-1.425732	1	10.39478	-7.883455	-2.674497E-005	0.0006748	10
	18	54	4733.456	10.42955	-1.757244	1	10.57656	-9.56377	6.571845E-006	0.0006456	10
	19	56	3796.875	10.57557	-2.15204	1	10.79231	-11.50216	-2.453581E-005	0.0006462	10
	20	58	2987.132	10.75196	-2.670858	1	11.07873	-13.95028	1.617569E-005	0.0006662	10
	21	61	2390.625	10.94499	-3.263624	1	11.42121	-16.60376	-7.769214E-006	0.0006507	10
	22	63	1884.191	11.17764	-4.030092	1	11.88197	-19.82674	2.111747E-005	0.0006702	10
	23	65	1516.544	11.43283	-4.87984	1	12.43071	-23.11409	-1.754498E-005	0.0006676	10
	24	68	1193.986	11.74746	-6.019406	1	13.19985	-27.13063	-2.723296E-005	0.0006751	10
	25	70	946.5144	12.10801	-7.365995	1	14.17257	-31.31455	-2.220866E-005	0.000733	10
	26	72	751.7689	12.51405	-9.014368	1	15.42272	-35.76671	-2.357356E-005	0.0007105	10
	27	75	597.4265	12.98384	-11.02318	1	17.03205	-40.33101	2.038947E-005	0.0006615	10
	28	77	477.4305	13.5134	-13.41362	1	19.04041	-44.78769	-1.546096E-006	0.0006761	10
	29	79	376.6741	14.16374	-16.52737	1	21.76615	-49.40386	-1.591291E-006	0.0006699	10
	30	82	298.2954	14.92321	-20.3261	1	25.21611	-53.71427	-9.10788E-007	0.0006754	10
	31	84	237.7717	15.81615	-24.88398	1	29.48496	-57.56013	-9.314432E-007	0.0006748	10
	32	87	189.0121	16.91	-30.56236	1	34.92858	-61.04446	-1.057361E-006	0.0006795	10
	33	89	150.2404	18.24034	-37.51859	1	41.71755	-64.07246	1.353824E-006	6.787651E-005	9
	34	91	119.1737	19.9444	-46.21128	1	50.33152	-66.65537	1.254251E-006	7.502489E-005	9
	35	94	95.0169	22.05017	-56.64826	1	60.78844	-68.73167	1.215407E-006	7.478453E-005	9
	36	96	75.60484	24.74915	-69.54869	1	73.82101	-70.41172	1.188421E-006	7.280624E-005	9
	37	99	54.50582	29.92006	-93.11737	1	97.8062	-72.18698	1.205722E-006	6.767132E-005	9
	38	101	45.95588	33.48854	-108.3962	1	113.4514	-72.83168	1.214278E-006	7.743878E-005	9
	39	104	37.20238	38.89033	-130.6209	1	136.2875	-73.41992	1.170666E-006	8.297402E-005	9
	40	106	30.04808	45.76571	-157.5256	1	164.0391	-73.7999	1.302136E-006	7.505735E-005	9
	41	108	23.91582	55.04192	-192.0704	1	199.8015	-74.0092	1.109598E-006	7.110309E-005	9
	42	111	18.60119	68.10809	-238.3012	1	247.843	-74.04971	1.477772E-006	7.908713E-005	9
	43	113	15.02404	82.26089	-285.6249	1	297.2347	-73.93343	1.406838E-006	8.091027E-005	9
	44	115	12.01923	100.4694	-344.5026	1	358.8539	-73.7414	1.266066E-006	7.911379E-005	9
	45	118	9.450605	124.4559	-418.7112	1	436.8162	-73.44617	3.050519E-007	0.0006565	8
	46	120	7.512019	152.7841	-505.1313	1	527.7316	-73.17132	3.452806E-007	0.0006507	8
	47	123	5.978954	186.8505	-608.3544	1	636.4025	-72.92614	4.418791E-007	0.0006582	8
	48	126	4.734848	228.632	-734.7845	1	769.533	-72.71619	4.25761E-007	0.0006325	8
	49	129	3.75601	278.5459	-885.2319	1	928.0212	-72.53336	5.737614E-007	0.0006761	8
	50	133	3.004808	335.493	-1058.446	1	1110.344	-72.41308	5.204122E-007	0.0006467	8
	51	137	2.372217	408.5407	-1279.601	1	1343.236	-72.29317	4.798072E-007	0.000584	8
	52	141	1.878005	489.2235	-1546.326	1	1621.871	-72.44378	5.183021E-007	0.0006698	8
	53	145	1.512097	577.7941	-1840.151	1	1928.73	-72.56808	4.644716E-007	0.0006048	8
	54	151	1.201923	684.4865	-2229.332	1	2332.047	-72.9316	5.094944E-007	0.0006816	8
	55	157	0.956633	809.2039	-2697.702	1	2816.453	-73.30283	4.751406E-007	1.680646E-005	8
