EXPLAIN
TAG	EISPOT
TITLE	LABEL	Potentiostatic EIS	Test Identifier
DATE	LABEL	8/3/2020	Date
TIME	LABEL	21:04:58	Time
NOTES	NOTES	1	Notes...
	
PSTAT	PSTAT	REF3000-16137	Potentiostat
VDC	POTEN	0.00000E+000	T	DC Voltage (V)
FREQINIT	QUANT	3.00000E+005	Initial Freq. (Hz)
FREQFINAL	QUANT	1.00000E+000	Final Freq. (Hz)
PTSPERDEC	QUANT	1.00000E+001	Points/decade
VAC	QUANT	5.00000E+001	AC Voltage (mV rms)
AREA	QUANT	1.00000E+000	Sample Area (cm^2)
SPEED	SELECTOR	2	Optimize for:
ZGUESS	QUANT	1.00000E+003	Estimated Z (ohms)
EOC	QUANT	0	Open Circuit (V)
SEQUENCER	TOGGLE	TRUE	Run as Sequence
PSTATMODEL	IQUANT	5	Pstat Model
PSTATSECTION	LABEL	REF3000-16137	Pstat Section
PSTATSERIALNO	LABEL	16137	Pstat Serial Number
CTRLMODE	IQUANT	1	Control Mode
IESTAB	IQUANT	0	I/E Stability
CASPEED	IQUANT	1	Control Amp Speed
CONVENTION	IQUANT	1	Current Convention
ICHRANGE	IQUANT	2	Ich Range
ICHRANGEMODE	TOGGLE	F	Ich Auto Range
ICHOFFSETENABLE	TOGGLE	T	Ich Offset Enable
ICHOFFSET	QUANT	0	Ich Offset (V)
ICHFILTER	IQUANT	3	Ich Filter
VCHRANGE	IQUANT	2	Vch Range
VCHRANGEMODE	TOGGLE	F	Vch Auto Range
VCHOFFSETENABLE	TOGGLE	T	Vch Offset Enable
VCHOFFSET	QUANT	0	Vch Offset (V)
VCHFILTER	IQUANT	3	Vch Filter
ACHRANGE	IQUANT	2	Ach Range
ACHOFFSETENABLE	TOGGLE	F	Ach Offset Enable
ACHOFFSET	QUANT	0	Ach Offset (V)
ACHFILTER	IQUANT	3	Ach Filter
IERANGELOWERLIMIT	IQUANT	2	I/E Range Lower Limit
IERANGEMODE	TOGGLE	F	I/E AutoRange
IERANGE	IQUANT	11	I/E Range
POSFEEDENABLE	TOGGLE	F	Positive Feedback IR Comp
POSFEEDRESISTANCE	QUANT	0	Positive Feedback Resistance (ohm)
ACHSELECT	IQUANT	0	Ach Select
CABLEID	IQUANT	13	Cable ID
DCCALDATE	LABEL	7/31/2020	DC Calibration Date
ACCALDATE	LABEL	7/31/2020	AC Calibration Date
THERMOSELECT	IQUANT	1	Thermo Select
FRAMEWORKVERSION	QUANT	6.33	Framework Version
INSTRUMENTVERSION	LABEL	3.50	Instrument Version
COMPLIANCEVOLTAGE	IQUANT	0	Compliance Voltage
ZCURVE	TABLE
	Pt	Time	Freq	Zreal	Zimag	Zsig	Zmod	Zphz	Idc	Vdc	IERange
	#	s	Hz	ohm	ohm	V	ohm	°	A	V	#
	0	15	300046.9	1766.875	-1286.281	1	2185.49	-36.05453	-2.017634E-005	0.0010241	9
	1	32	238359.4	2253.859	-1797.889	1	2883.104	-38.57914	-3.082531E-005	-0.0010301	9
	2	65	189328.1	2716.128	-1973.207	1	3357.216	-35.99758	2.865111E-005	-0.0019103	9
	3	72	150421.9	3231.209	-2049.195	1	3826.214	-32.38239	5.0898E-005	0.0001375	9
	4	79	119484.4	3732.392	-2111.643	1	4288.331	-29.49951	2.649054E-005	-0.0014122	9
	5	87	94921.88	4409.134	-2014.654	1	4847.607	-24.55695	-2.521507E-005	0.0075591	8
	6	94	75421.88	5016.938	-2033.358	1	5413.336	-22.06264	1.681761E-005	-5.537829E-005	8
	7	102	59859.37	5696.812	-2063.832	1	6059.131	-19.91436	2.48597E-005	-0.0051842	8
	8	109	47578.12	6347.762	-2012.418	1	6659.123	-17.59007	2.402561E-005	-0.0084996	8
	9	117	37828.12	7078.31	-1956.798	1	7343.809	-15.45346	-2.345221E-005	0.0053652	8
	10	124	30046.88	7988.846	-2078.533	1	8254.814	-14.58384	2.476384E-005	-0.0002138	9
	11	133	23859.38	8665.366	-2042.619	1	8902.857	-13.26376	2.45E-005	-0.0050563	8
	12	139	18984.38	9620.66	-1899.973	1	9806.48	-11.17152	-2.047295E-006	-0.0046651	8
	13	146	15046.87	10442.5	-1263.456	1	10518.66	-6.89878	-8.262252E-007	-0.0125076	7
	14	150	11953.13	11032.57	-1166.581	1	11094.08	-6.036009	3.404571E-006	-0.0226952	7
	15	154	9515.62	11624.08	-1055.863	1	11671.94	-5.190168	-6.661313E-006	0.0210805	7
	16	158	7546.875	12251.12	-914.2769	1	12285.19	-4.267958	-6.103375E-006	0.0235949	7
	17	162	5928.309	12984.81	-838.5826	1	13011.87	-3.695132	-5.092021E-006	0.024731	7
	18	166	4733.456	13658.69	-753.9466	1	13679.48	-3.159467	6.930139E-006	-0.0165449	7
	19	171	3796.875	14394.92	-698.5022	1	14411.85	-2.778055	-6.818882E-006	0.0172438	7
	20	175	2987.132	15311.67	-547.1342	1	15321.44	-2.046489	-3.03337E-006	-0.0052842	7
	21	179	2390.625	15993.91	-575.2439	1	16004.25	-2.059837	-1.870683E-006	0.020875	7
	22	183	1884.191	16881.83	-398.1549	1	16886.52	-1.35106	-6.229908E-006	0.0108486	7
	23	188	1516.544	17798.83	-463.3383	1	17804.86	-1.491184	-3.084266E-006	-0.0051733	7
	24	192	1193.986	18754.4	-400.12	1	18758.67	-1.222204	3.080608E-007	0.0155764	7
	25	196	946.5144	19573.55	-214.4533	1	19574.73	-0.6277233	-6.301382E-006	0.0110924	7
	26	199	751.7689	20349.52	-626.8325	1	20359.17	-1.764341	-5.099998E-006	0.0253524	7
	27	202	597.4265	21314.42	24.51139	1	21314.44	0.0658896	6.480609E-006	-0.0252961	7
	28	204	477.4305	21811.05	-306.1478	1	21813.2	-0.8041716	-1.084935E-007	0.0006143	7
	29	206	376.6741	22472.18	-286.1681	1	22474	-0.7295838	-1.200394E-007	0.0006567	7
	30	209	298.2954	23158.11	-276.3436	1	23159.76	-0.6836729	-1.11573E-007	0.0005974	7
	31	211	237.7717	23909.7	-276.708	1	23911.3	-0.6630569	-1.099492E-007	0.0006265	7
	32	214	189.0121	24682.76	-284.9822	1	24684.41	-0.6614961	-1.181898E-007	0.0006468	7
	33	216	150.2404	25487.41	-306.9914	1	25489.26	-0.6900843	-1.044603E-007	0.0005845	7
	34	218	119.1737	26259.14	-326.1254	1	26261.17	-0.7115483	-1.09625E-007	0.000581	7
	35	221	95.0169	27151.66	-382.2581	1	27154.36	-0.8065924	-1.042865E-007	0.0005789	7
	36	223	75.60484	28081.9	-438.9736	1	28085.33	-0.8955692	-1.158395E-007	0.0005823	7
	37	226	54.50582	29067.54	-546.0021	1	29072.67	-1.076112	-1.129237E-007	0.0006719	7
	38	228	45.95588	30009.9	-629.6909	1	30016.5	-1.202048	-1.114703E-007	0.0006138	7
	39	231	37.20238	30965.19	-746.2	1	30974.18	-1.380448	-1.286916E-007	0.0007023	7
	40	233	30.04808	32018.31	-877.6944	1	32030.34	-1.570214	-1.270255E-007	0.0006729	7
	41	236	23.91582	33102.44	-1080.407	1	33120.06	-1.869373	-1.073617E-007	0.0006759	7
	42	238	18.60119	34183.8	-1375.767	1	34211.47	-2.304693	-1.449243E-007	0.0006749	7
	43	240	15.02404	35276.81	-1594.543	1	35312.83	-2.588059	-1.072534E-007	0.0006519	7
	44	242	12.01923	36508.83	-1992.555	1	36563.16	-3.123952	-1.12292E-007	0.0006205	7
	45	245	9.450605	37788.7	-2456.693	1	37868.47	-3.719639	-1.281518E-007	0.0005927	7
	46	247	7.512019	39375.46	-3013.626	1	39490.62	-4.376636	-1.70448E-008	0.0006466	6
	47	250	5.978954	41065.69	-3688.985	1	41231.05	-5.133178	-1.087775E-008	0.0006444	6
	48	253	4.734848	43107.38	-4636.64	1	43356.02	-6.139144	-3.349812E-008	0.0006119	6
	49	256	3.75601	45420.19	-5703.121	1	45776.84	-7.156808	7.934982E-009	0.0006958	6
	50	260	3.004808	48014.12	-6880.974	1	48504.68	-8.155611	-1.142578E-008	0.0007273	6
	51	263	2.372217	51184.18	-8516.843	1	51887.93	-9.447232	1.195338E-009	0.0006571	6
	52	268	1.878005	54996.16	-10467.36	1	55983.42	-10.77616	-2.833374E-010	0.0006564	6
	53	272	1.512097	59503.38	-12689.22	1	60841.34	-12.03812	-1.023583E-008	0.0007671	6
	54	278	1.201923	65402.69	-15819.03	1	67288.59	-13.59706	-4.972956E-009	0.0006588	6
	55	284	0.956633	72531.89	-19528.38	1	75114.8	-15.0689	-2.699641E-008	2.786566E-005	6
