EXPLAIN
TAG	EISPOT
TITLE	LABEL	Potentiostatic EIS	Test Identifier
DATE	LABEL	8/3/2020	Date
TIME	LABEL	20:53:35	Time
NOTES	NOTES	1	Notes...
	
PSTAT	PSTAT	REF3000-16137	Potentiostat
VDC	POTEN	0.00000E+000	T	DC Voltage (V)
FREQINIT	QUANT	3.00000E+005	Initial Freq. (Hz)
FREQFINAL	QUANT	1.00000E+000	Final Freq. (Hz)
PTSPERDEC	QUANT	1.00000E+001	Points/decade
VAC	QUANT	5.00000E+001	AC Voltage (mV rms)
AREA	QUANT	1.00000E+000	Sample Area (cm^2)
SPEED	SELECTOR	2	Optimize for:
ZGUESS	QUANT	1.00000E+003	Estimated Z (ohms)
EOC	QUANT	0	Open Circuit (V)
SEQUENCER	TOGGLE	TRUE	Run as Sequence
PSTATMODEL	IQUANT	5	Pstat Model
PSTATSECTION	LABEL	REF3000-16137	Pstat Section
PSTATSERIALNO	LABEL	16137	Pstat Serial Number
CTRLMODE	IQUANT	1	Control Mode
IESTAB	IQUANT	0	I/E Stability
CASPEED	IQUANT	1	Control Amp Speed
CONVENTION	IQUANT	1	Current Convention
ICHRANGE	IQUANT	2	Ich Range
ICHRANGEMODE	TOGGLE	F	Ich Auto Range
ICHOFFSETENABLE	TOGGLE	T	Ich Offset Enable
ICHOFFSET	QUANT	0	Ich Offset (V)
ICHFILTER	IQUANT	3	Ich Filter
VCHRANGE	IQUANT	2	Vch Range
VCHRANGEMODE	TOGGLE	F	Vch Auto Range
VCHOFFSETENABLE	TOGGLE	T	Vch Offset Enable
VCHOFFSET	QUANT	0	Vch Offset (V)
VCHFILTER	IQUANT	3	Vch Filter
ACHRANGE	IQUANT	2	Ach Range
ACHOFFSETENABLE	TOGGLE	F	Ach Offset Enable
ACHOFFSET	QUANT	0	Ach Offset (V)
ACHFILTER	IQUANT	3	Ach Filter
IERANGELOWERLIMIT	IQUANT	2	I/E Range Lower Limit
IERANGEMODE	TOGGLE	F	I/E AutoRange
IERANGE	IQUANT	11	I/E Range
POSFEEDENABLE	TOGGLE	F	Positive Feedback IR Comp
POSFEEDRESISTANCE	QUANT	0	Positive Feedback Resistance (ohm)
ACHSELECT	IQUANT	0	Ach Select
CABLEID	IQUANT	13	Cable ID
DCCALDATE	LABEL	7/31/2020	DC Calibration Date
ACCALDATE	LABEL	7/31/2020	AC Calibration Date
THERMOSELECT	IQUANT	1	Thermo Select
FRAMEWORKVERSION	QUANT	6.33	Framework Version
INSTRUMENTVERSION	LABEL	3.50	Instrument Version
COMPLIANCEVOLTAGE	IQUANT	0	Compliance Voltage
ZCURVE	TABLE
	Pt	Time	Freq	Zreal	Zimag	Zsig	Zmod	Zphz	Idc	Vdc	IERange
	#	s	Hz	ohm	ohm	V	ohm	°	A	V	#
	0	7	300046.9	28.70778	0.3966692	1	28.71052	0.7916331	-3.127368E-005	-0.0003178	11
	1	11	238359.4	29.16481	0.5779573	1	29.17054	1.135278	-1.35904E-005	0.0005209	10
	2	14	189328.1	29.53267	0.4282641	1	29.53577	0.8308089	8.237557E-005	0.0003852	10
	3	17	150421.9	29.89391	0.2972074	1	29.89539	0.56962	-0.000099	0.0005504	10
	4	20	119484.4	30.20597	0.2017441	1	30.20664	0.3826699	-3.385135E-006	0.0007053	10
	5	22	94921.88	30.54517	0.1125482	1	30.54537	0.2111139	2.717945E-005	0.0006245	10
	6	25	75421.88	30.88814	0.0171192	1	30.88814	0.0317551	-1.949164E-005	0.0006688	10
	7	27	59859.37	31.23997	-0.0725468	1	31.24006	-0.1330545	-2.416814E-005	0.0006386	10
	8	30	47578.12	31.59681	-0.1590593	1	31.59721	-0.2884262	-8.168498E-006	0.0006503	10
	9	32	37828.12	31.95717	-0.2531936	1	31.95818	-0.4539393	2.780751E-005	0.0006638	10
	10	35	30046.88	32.3278	-0.3559367	1	32.32976	-0.6308145	8.272082E-006	0.0006129	10
	11	37	23859.38	32.68825	-0.4676287	1	32.69159	-0.8196012	-1.203756E-005	0.0007115	10
	12	40	18984.38	33.04461	-0.6014223	1	33.05009	-1.042686	-1.846214E-007	0.0006373	10
	13	42	15046.87	33.41397	-0.7643244	1	33.42271	-1.310378	-1.922205E-005	0.0006778	10
	14	44	11953.13	33.77839	-0.967427	1	33.79224	-1.640526	-2.842373E-005	0.0006501	10
	15	47	9515.62	34.15562	-1.194027	1	34.17649	-2.002155	-2.195817E-005	0.000657	10
	16	49	7546.875	34.55117	-1.49172	1	34.58335	-2.472166	-1.561578E-005	0.0006516	10
	17	51	5928.309	34.97041	-1.85567	1	35.01961	-3.037495	2.351377E-005	0.0006744	10
	18	54	4733.456	35.40236	-2.283847	1	35.47595	-3.691101	-2.020753E-005	0.0007088	10
	19	56	3796.875	35.81116	-2.782763	1	35.91911	-4.443331	-1.370893E-005	0.0004166	9
	20	58	2987.132	36.3002	-3.46768	1	36.46545	-5.456784	1.529621E-005	-0.000401	9
	21	60	2390.625	36.82565	-4.251095	1	37.0702	-6.584989	1.521646E-005	-0.0004063	9
	22	63	1884.191	37.39296	-5.26101	1	37.76125	-8.008674	2.624433E-006	-0.0002141	9
	23	65	1516.544	38.0231	-6.405481	1	38.55887	-9.56243	-1.46947E-005	0.0004199	9
	24	67	1193.986	38.76017	-7.934026	1	39.56386	-11.56837	1.685491E-005	-0.0002023	9
	25	70	946.5144	39.58285	-9.7411	1	40.76385	-13.82542	3.140882E-006	-0.0002244	9
	26	72	751.7689	40.46634	-11.91652	1	42.18445	-16.40864	-2.990302E-006	0.0004145	9
	27	75	597.4265	41.53568	-14.55054	1	44.01057	-19.30608	-8.102418E-006	0.0005286	9
	28	77	477.4305	42.72079	-17.65773	1	46.2262	-22.45671	1.110227E-006	7.840143E-005	9
	29	79	376.6741	44.1411	-21.62293	1	49.1527	-26.09835	1.086872E-006	8.008547E-005	9
	30	81	298.2954	45.76139	-26.36174	1	52.81142	-29.94493	1.018038E-006	7.964268E-005	9
	31	84	237.7717	47.60233	-31.94404	1	57.32716	-33.864	1.04812E-006	8.004176E-005	9
	32	86	189.0121	49.71334	-38.78707	1	63.05436	-37.96187	1.11647E-006	7.998559E-005	9
	33	89	150.2404	52.11934	-47.11375	1	70.25761	-42.11229	1.16224E-006	8.063706E-005	9
	34	91	119.1737	54.86901	-57.38369	1	79.39457	-46.28332	1.127508E-006	8.030813E-005	9
	35	93	95.0169	57.95718	-69.68294	1	90.63524	-50.24879	1.135109E-006	7.351237E-005	9
	36	96	75.60484	61.56367	-84.91792	1	104.8863	-54.05869	1.130927E-006	7.342307E-005	9
	37	98	54.50582	67.54691	-112.9546	1	131.6105	-59.12056	1.116958E-006	7.387253E-005	9
	38	101	45.95588	71.60799	-131.3654	1	149.6148	-61.40497	1.184904E-006	7.891553E-005	9
	39	103	37.20238	77.28993	-158.4164	1	176.2654	-63.99267	9.941189E-007	8.220236E-005	9
	40	106	30.04808	84.27097	-191.6018	1	209.3152	-66.25898	1.212558E-006	7.298712E-005	9
	41	108	23.91582	93.45533	-234.9078	1	252.8153	-68.30544	1.184123E-006	7.82436E-005	9
	42	111	18.60119	106.2069	-293.9105	1	312.5112	-70.13227	1.211384E-006	7.072809E-005	9
	43	113	15.02404	119.9437	-355.5446	1	375.2312	-71.35807	1.281768E-006	8.03763E-005	9
	44	115	12.01923	137.691	-431.6495	1	453.0785	-72.30794	1.398805E-007	0.0006516	8
	45	118	9.450605	162.6649	-533.6319	1	557.8735	-73.04741	4.344375E-007	0.0006529	8
	46	120	7.512019	192.7691	-652.5051	1	680.3843	-73.54132	3.626296E-007	0.0006704	8
	47	123	5.978954	231.3866	-795.8324	1	828.7877	-73.78832	2.991791E-007	0.0006568	8
	48	126	4.734848	281.3864	-974.059	1	1013.888	-73.88704	3.38182E-007	0.0006657	8
	49	129	3.75601	343.0146	-1186.75	1	1235.328	-73.87875	1.771569E-007	0.0007037	8
	50	133	3.004808	417.6968	-1433.466	1	1493.083	-73.75444	3.141433E-007	0.0006419	8
	51	136	2.372217	514.6148	-1747.205	1	1821.415	-73.5884	2.890855E-007	0.0006314	8
	52	140	1.878005	637.0977	-2125.336	1	2218.771	-73.3132	2.182004E-007	0.0007185	8
	53	145	1.512097	771.643	-2545.945	1	2660.313	-73.13862	2.892017E-007	0.0005554	8
	54	151	1.201923	944.5661	-3083.051	1	3224.501	-72.96631	2.712968E-007	0.0006733	8
	55	157	0.956633	1148.433	-3725.496	1	3898.49	-72.8674	2.632113E-007	2.486787E-005	8
