EXPLAIN
TAG	EISPOT
TITLE	LABEL	Potentiostatic EIS	Test Identifier
DATE	LABEL	8/3/2020	Date
TIME	LABEL	20:59:06	Time
NOTES	NOTES	1	Notes...
	
PSTAT	PSTAT	REF3000-16137	Potentiostat
VDC	POTEN	0.00000E+000	T	DC Voltage (V)
FREQINIT	QUANT	3.00000E+005	Initial Freq. (Hz)
FREQFINAL	QUANT	1.00000E+000	Final Freq. (Hz)
PTSPERDEC	QUANT	1.00000E+001	Points/decade
VAC	QUANT	5.00000E+001	AC Voltage (mV rms)
AREA	QUANT	1.00000E+000	Sample Area (cm^2)
SPEED	SELECTOR	2	Optimize for:
ZGUESS	QUANT	1.00000E+003	Estimated Z (ohms)
EOC	QUANT	0	Open Circuit (V)
SEQUENCER	TOGGLE	TRUE	Run as Sequence
PSTATMODEL	IQUANT	5	Pstat Model
PSTATSECTION	LABEL	REF3000-16137	Pstat Section
PSTATSERIALNO	LABEL	16137	Pstat Serial Number
CTRLMODE	IQUANT	1	Control Mode
IESTAB	IQUANT	0	I/E Stability
CASPEED	IQUANT	1	Control Amp Speed
CONVENTION	IQUANT	1	Current Convention
ICHRANGE	IQUANT	2	Ich Range
ICHRANGEMODE	TOGGLE	F	Ich Auto Range
ICHOFFSETENABLE	TOGGLE	T	Ich Offset Enable
ICHOFFSET	QUANT	0	Ich Offset (V)
ICHFILTER	IQUANT	3	Ich Filter
VCHRANGE	IQUANT	2	Vch Range
VCHRANGEMODE	TOGGLE	F	Vch Auto Range
VCHOFFSETENABLE	TOGGLE	T	Vch Offset Enable
VCHOFFSET	QUANT	0	Vch Offset (V)
VCHFILTER	IQUANT	3	Vch Filter
ACHRANGE	IQUANT	2	Ach Range
ACHOFFSETENABLE	TOGGLE	F	Ach Offset Enable
ACHOFFSET	QUANT	0	Ach Offset (V)
ACHFILTER	IQUANT	3	Ach Filter
IERANGELOWERLIMIT	IQUANT	2	I/E Range Lower Limit
IERANGEMODE	TOGGLE	F	I/E AutoRange
IERANGE	IQUANT	11	I/E Range
POSFEEDENABLE	TOGGLE	F	Positive Feedback IR Comp
POSFEEDRESISTANCE	QUANT	0	Positive Feedback Resistance (ohm)
ACHSELECT	IQUANT	0	Ach Select
CABLEID	IQUANT	13	Cable ID
DCCALDATE	LABEL	7/31/2020	DC Calibration Date
ACCALDATE	LABEL	7/31/2020	AC Calibration Date
THERMOSELECT	IQUANT	1	Thermo Select
FRAMEWORKVERSION	QUANT	6.33	Framework Version
INSTRUMENTVERSION	LABEL	3.50	Instrument Version
COMPLIANCEVOLTAGE	IQUANT	0	Compliance Voltage
ZCURVE	TABLE
	Pt	Time	Freq	Zreal	Zimag	Zsig	Zmod	Zphz	Idc	Vdc	IERange
	#	s	Hz	ohm	ohm	V	ohm	°	A	V	#
	0	7	300046.9	154.9252	-4.263115	1	154.9838	-1.576224	-3.644413E-005	-0.00069	9
	1	10	238359.4	158.2943	-3.831302	1	158.3407	-1.386497	1.164831E-005	-0.001725	9
	2	13	189328.1	161.183	-2.9397	1	161.2098	-1.044861	6.931862E-005	-0.0026517	9
	3	16	150421.9	164.2743	-2.69189	1	164.2964	-0.9387963	-5.648129E-005	0.000816	9
	4	19	119484.4	167.4159	-2.799055	1	167.4393	-0.957849	9.970151E-006	-0.0014181	9
	5	22	94921.88	170.1717	-2.137085	1	170.1851	-0.7195058	1.333955E-006	0.0004927	9
	6	24	75421.88	173.0532	-2.033955	1	173.0652	-0.6733865	2.424662E-005	-0.0007599	9
	7	27	59859.37	175.9937	-1.784232	1	176.0027	-0.5808471	-2.069715E-005	0.0004639	9
	8	29	47578.12	179.0002	-1.628135	1	179.0076	-0.5211316	1.119924E-005	0.0002786	9
	9	32	37828.12	181.9155	-1.588949	1	181.9224	-0.50044	1.504577E-005	-0.000735	9
	10	34	30046.88	184.9569	-1.479213	1	184.9628	-0.4582196	3.797621E-006	0.0004226	9
	11	37	23859.38	187.9189	-1.64279	1	187.9261	-0.5008679	-2.342232E-005	0.0008052	9
	12	39	18984.38	190.7551	-1.565755	1	190.7615	-0.4702844	-7.886235E-006	0.0008655	9
	13	41	15046.87	193.5913	-1.567197	1	193.5977	-0.4638215	1.529015E-006	0.0005986	9
	14	44	11953.13	196.8011	-2.114435	1	196.8125	-0.6155634	2.309047E-005	-0.0002533	9
	15	46	9515.62	199.7757	-2.084613	1	199.7866	-0.5978462	-1.494723E-006	-0.0003493	9
	16	48	7546.875	202.6794	-2.565358	1	202.6957	-0.7251665	-2.260043E-005	0.0008426	9
	17	51	5928.309	206.2703	-2.901496	1	206.2907	-0.8058966	-2.350543E-005	0.0008513	9
	18	53	4733.456	209.0727	-3.589452	1	209.1035	-0.983583	-1.8662E-005	0.0003647	9
	19	55	3796.875	212.6366	-4.13756	1	212.6768	-1.114742	-2.353145E-005	0.0008787	9
	20	58	2987.132	216.1871	-5.227008	1	216.2503	-1.385037	-1.011481E-006	-0.0003505	9
	21	60	2390.625	219.3938	-6.276738	1	219.4836	-1.638754	2.162965E-005	-0.0007795	9
	22	62	1884.191	223.625	-7.715313	1	223.758	-1.975985	-2.355348E-005	0.0006948	9
	23	65	1516.544	227.0552	-9.391692	1	227.2493	-2.368577	-1.638656E-005	0.0009725	9
	24	67	1193.986	230.9794	-11.68816	1	231.2749	-2.896844	2.322244E-005	-0.0002099	9
	25	69	946.5144	235.2697	-14.30737	1	235.7043	-3.480021	2.641817E-005	-0.0006295	9
	26	72	751.7689	240.857	-17.66858	1	241.5042	-4.19554	2.567008E-005	-0.0007513	9
	27	75	597.4265	247.442	-22.11636	1	248.4284	-5.107523	-9.147304E-006	0.0008843	9
	28	79	477.4305	252.4003	-26.70825	1	253.8095	-6.04039	1.020771E-006	7.734236E-005	9
	29	81	376.6741	257.7368	-33.0071	1	259.8417	-7.297869	9.990715E-007	7.516381E-005	9
	30	83	298.2954	263.4941	-40.63786	1	266.6094	-8.767467	1.005312E-006	7.930425E-005	9
	31	85	237.7717	269.9798	-49.6573	1	274.5085	-10.42191	9.651271E-007	7.755277E-005	9
	32	88	189.0121	277.1799	-60.74291	1	283.7577	-12.36075	1.019652E-006	8.184123E-005	9
	33	90	150.2404	285.2312	-74.15311	1	294.7126	-14.5729	9.985633E-007	7.330644E-005	9
	34	93	119.1737	294.3896	-90.50009	1	307.9863	-17.08827	9.538862E-007	8.401905E-005	9
	35	95	95.0169	304.7259	-109.7308	1	323.8807	-19.80378	1.037554E-006	7.809939E-005	9
	36	98	75.60484	316.8159	-133.0075	1	343.6035	-22.77391	9.872848E-007	8.182153E-005	9
	37	100	54.50582	334.9392	-174.1934	1	377.5283	-27.4778	9.490707E-007	7.506376E-005	9
	38	103	45.95588	346.9316	-199.8297	1	400.3666	-29.94158	-4.012059E-008	0.0006519	8
	39	105	37.20238	363.7546	-237.565	1	434.4589	-33.14821	-1.062519E-007	0.0006606	8
	40	107	30.04808	383.1152	-282.7107	1	476.133	-36.42458	-8.437246E-008	0.0006545	8
	41	110	23.91582	406.108	-340.3507	1	529.8701	-39.96568	-1.388942E-007	0.0006491	8
	42	112	18.60119	433.9903	-417.4147	1	602.1483	-43.88468	-2.283713E-007	0.0006534	8
	43	114	15.02404	461.9104	-496.6645	1	678.2602	-47.0764	-2.122003E-007	0.0007073	8
	44	117	12.01923	494.236	-596.9542	1	774.9991	-50.37764	-5.928291E-008	0.0006576	8
	45	119	9.450605	534.0149	-729.2293	1	903.8514	-53.78467	-3.116907E-008	0.0006508	8
	46	122	7.512019	577.1832	-884.7236	1	1056.35	-56.88005	-3.130842E-008	0.0006715	8
	47	124	5.978954	628.6235	-1074.975	1	1245.287	-59.68178	-1.431221E-007	0.0006714	8
	48	127	4.734848	691.0934	-1315.23	1	1485.746	-62.28012	-1.431134E-007	0.0006408	8
	49	131	3.75601	766.1199	-1611.25	1	1784.115	-64.56976	-1.291763E-007	0.0006592	8
	50	134	3.004808	853.7182	-1959.628	1	2137.517	-66.4595	-6.738285E-008	0.0006275	8
	51	138	2.372217	969.651	-2416.72	1	2603.989	-68.13807	-1.360108E-007	0.0005838	8
	52	142	1.878005	1109.687	-2975.157	1	3175.368	-69.54528	-1.034725E-007	0.0006671	8
	53	147	1.512097	1277.819	-3601.786	1	3821.739	-70.46666	-1.302565E-007	0.0006039	8
	54	152	1.201923	1499.307	-4444.347	1	4690.431	-71.3581	-1.912711E-008	0.00072	7
	55	158	0.956633	1775.379	-5450.96	1	5732.795	-71.95956	-5.018165E-008	-5.978207E-006	7
