EXPLAIN
TAG	EISPOT
TITLE	LABEL	Potentiostatic EIS	Test Identifier
DATE	LABEL	8/3/2020	Date
TIME	LABEL	21:09:51	Time
NOTES	NOTES	1	Notes...
	
PSTAT	PSTAT	REF3000-16137	Potentiostat
VDC	POTEN	0.00000E+000	T	DC Voltage (V)
FREQINIT	QUANT	3.00000E+005	Initial Freq. (Hz)
FREQFINAL	QUANT	1.00000E+000	Final Freq. (Hz)
PTSPERDEC	QUANT	1.00000E+001	Points/decade
VAC	QUANT	5.00000E+001	AC Voltage (mV rms)
AREA	QUANT	1.00000E+000	Sample Area (cm^2)
SPEED	SELECTOR	2	Optimize for:
ZGUESS	QUANT	1.00000E+003	Estimated Z (ohms)
EOC	QUANT	0	Open Circuit (V)
SEQUENCER	TOGGLE	TRUE	Run as Sequence
PSTATMODEL	IQUANT	5	Pstat Model
PSTATSECTION	LABEL	REF3000-16137	Pstat Section
PSTATSERIALNO	LABEL	16137	Pstat Serial Number
CTRLMODE	IQUANT	1	Control Mode
IESTAB	IQUANT	0	I/E Stability
CASPEED	IQUANT	1	Control Amp Speed
CONVENTION	IQUANT	1	Current Convention
ICHRANGE	IQUANT	2	Ich Range
ICHRANGEMODE	TOGGLE	F	Ich Auto Range
ICHOFFSETENABLE	TOGGLE	T	Ich Offset Enable
ICHOFFSET	QUANT	0	Ich Offset (V)
ICHFILTER	IQUANT	3	Ich Filter
VCHRANGE	IQUANT	2	Vch Range
VCHRANGEMODE	TOGGLE	F	Vch Auto Range
VCHOFFSETENABLE	TOGGLE	T	Vch Offset Enable
VCHOFFSET	QUANT	0	Vch Offset (V)
VCHFILTER	IQUANT	3	Vch Filter
ACHRANGE	IQUANT	2	Ach Range
ACHOFFSETENABLE	TOGGLE	F	Ach Offset Enable
ACHOFFSET	QUANT	0	Ach Offset (V)
ACHFILTER	IQUANT	3	Ach Filter
IERANGELOWERLIMIT	IQUANT	2	I/E Range Lower Limit
IERANGEMODE	TOGGLE	F	I/E AutoRange
IERANGE	IQUANT	11	I/E Range
POSFEEDENABLE	TOGGLE	F	Positive Feedback IR Comp
POSFEEDRESISTANCE	QUANT	0	Positive Feedback Resistance (ohm)
ACHSELECT	IQUANT	0	Ach Select
CABLEID	IQUANT	13	Cable ID
DCCALDATE	LABEL	7/31/2020	DC Calibration Date
ACCALDATE	LABEL	7/31/2020	AC Calibration Date
THERMOSELECT	IQUANT	1	Thermo Select
FRAMEWORKVERSION	QUANT	6.33	Framework Version
INSTRUMENTVERSION	LABEL	3.50	Instrument Version
COMPLIANCEVOLTAGE	IQUANT	0	Compliance Voltage
ZCURVE	TABLE
	Pt	Time	Freq	Zreal	Zimag	Zsig	Zmod	Zphz	Idc	Vdc	IERange
	#	s	Hz	ohm	ohm	V	ohm	°	A	V	#
	0	15	300046.9	329.1918	-4255.877	1	4268.59	-85.57698	8.277634E-005	-0.0032785	9
	1	28	238359.4	544.7382	-5098.969	1	5127.984	-83.90205	-2.808326E-006	-0.0019467	9
	2	43	189328.1	649.0742	-6477.827	1	6510.264	-84.2781	2.089197E-005	-0.0008533	9
	3	52	150421.9	858.699	-7998.185	1	8044.148	-83.8721	-9.114193E-005	0.0021877	9
	4	59	119484.4	1380.993	-10188.82	1	10281.99	-82.28117	6.917962E-005	-0.0135754	8
	5	68	94921.88	1765.615	-12661.55	1	12784.06	-82.06147	-2.662624E-005	0.0077306	8
	6	76	75421.88	2129.438	-15770.87	1	15913.98	-82.31023	8.502125E-006	0.004089	8
	7	85	59859.37	2853.841	-19789.23	1	19993.95	-81.79385	-1.448573E-006	-0.0050449	8
	8	93	47578.12	6314.417	-25579.22	1	26347.08	-76.13335	4.435261E-007	0.015953	7
	9	100	37828.12	4025.927	-30855.53	1	31117.07	-82.56623	-1.983124E-005	0.0113981	8
	10	108	30046.88	5770.672	-38442.14	1	38872.86	-81.46289	-2.07013E-005	0.0028853	8
	11	118	23859.38	3946.664	-48226.5	1	48387.72	-85.32157	-1.92128E-006	0.0077153	8
	12	126	18984.38	13043.96	-60183.66	1	61580.99	-77.77109	2.925777E-006	0.0075282	7
	13	131	15046.87	15469.42	-75875.73	1	77436.62	-78.47656	4.919003E-006	-0.0011274	7
	14	136	11953.13	22672.84	-94778.33	1	97452.5	-76.54655	6.11557E-007	0.0156897	7
	15	143	9515.62	26030.1	-118154.1	1	120987.4	-77.57584	7.789988E-006	-0.0076598	8
	16	150	7546.875	33563.59	-151226	1	154905.8	-77.48642	7.405281E-006	-0.0188062	7
	17	155	5928.309	35900.28	-179629.4	1	183181.7	-78.69791	-3.479079E-006	-0.0048198	7
	18	162	4733.456	65527.62	-228203.6	1	237425.2	-73.97882	-6.72787E-006	0.0122302	7
	19	167	3796.875	77240.02	-278414.9	1	288930.6	-74.49451	-3.431006E-006	-0.0048372	7
	20	175	2987.132	142730	-300463.6	1	332641.3	-64.59076	7.547876E-006	-0.0243814	7
	21	181	2390.625	110976.5	-468704.2	1	481663.1	-76.67922	2.613794E-005	-0.0052702	8
	22	190	1884.191	2368072	6781005	1	7182604	70.74971	2.593648E-005	-0.0090024	8
	23	198	1516.544	232338.9	-564340.6	1	610296.4	-67.62305	6.563743E-006	-0.0103807	7
	24	209	1193.986	71860.75	-680256.7	1	684041.8	-83.96977	6.631009E-006	-0.0106197	7
	25	216	946.5144	-409707.8	-629319.3	1	750934.9	-123.0655	-1.297076E-006	-0.0124371	7
	26	222	751.7689	-36264.85	180860.3	1	184460.3	101.3382	-2.697234E-005	0.0077966	8
	27	229	597.4265	-1080643	-1142788	1	1572817	-133.399	2.622482E-005	-0.0091082	8
	28	234	477.4305	997031	-1827468	1	2081756	-61.38398	-1.153014E-007	0.000603	7
	29	242	376.6741	1649471	-2059539	1	2638647	-51.30899	-1.19392E-009	0.0006232	5
	30	245	298.2954	1798349	-2467637	1	3053407	-53.91642	-1.231974E-008	0.000718	6
	31	249	237.7717	2526676	-2697889	1	3696309	-46.87695	-1.310547E-009	0.0006996	5
	32	253	189.0121	3141426	-2930069	1	4295796	-43.00627	-1.193198E-009	0.0006211	5
	33	256	150.2404	3910209	-3228610	1	5070864	-39.54606	-1.305995E-009	0.0006788	5
	34	259	119.1737	4856815	-3787220	1	6158870	-37.9462	-1.216836E-009	0.0006182	5
	35	261	95.0169	5347791	-3310749	1	6289668	-31.76112	-1.304823E-009	0.0007092	5
	36	264	75.60484	6171698	-3283491	1	6990791	-28.01405	-1.324972E-009	0.0007095	5
	37	267	54.50582	7299825	-3173249	1	7959708	-23.49468	-1.214111E-009	0.0006421	5
	38	270	45.95588	8996430	-2317180	1	9290052	-14.44354	-1.577199E-010	0.000651	4
	39	273	37.20238	9.509208E+006	-2128459	1	9.744505E+006	-12.61664	-1.541707E-010	0.0007116	4
	40	275	30.04808	1.026347E+007	-2145949	1	1.048541E+007	-11.80962	-1.413307E-010	0.0006608	4
	41	278	23.91582	1.11649E+007	-2062492	1	1.135381E+007	-10.46626	-1.249703E-010	0.0006807	4
	42	281	18.60119	1.176439E+007	-2250036	1	1.197763E+007	-10.82753	-5.585448E-011	0.0006975	4
	43	283	15.02404	1.257324E+007	-1720711	1	1.269044E+007	-7.792804	-1.524669E-010	0.0007512	4
	44	286	12.01923	1.338865E+007	-1620148	1	1.348632E+007	-6.89976	-1.459004E-010	0.0007499	4
	45	288	9.450605	1.431569E+007	-1467130	1	1.439067E+007	-5.851476	-1.444554E-010	0.0006773	4
	46	291	7.512019	1.538254E+007	-1382537	1	1.544454E+007	-5.135776	-1.490721E-010	0.0007666	4
	47	294	5.978954	1.687207E+007	-1449907	1	1.693425E+007	-4.911664	-1.48311E-010	0.0006219	4
	48	298	4.734848	1.876732E+007	-1387281	1	1.881853E+007	-4.227617	-1.330133E-010	0.0006865	4
	49	303	3.75601	2.130975E+007	-1510763	1	2.136324E+007	-4.055221	-1.380486E-010	0.0006214	4
	50	309	3.004808	2.457949E+007	-1585274	1	2.463055E+007	-3.690228	-1.352709E-010	0.0007051	4
	51	315	2.372217	2.795733E+007	-1688973	1	2.800831E+007	-3.45718	-1.342757E-010	0.0007081	4
	52	319	1.878005	3.128623E+007	-1744674	1	3.133483E+007	-3.191789	-1.341934E-010	0.0006531	4
	53	324	1.512097	3.557791E+007	-1817338	1	3.56243E+007	-2.924156	-1.357505E-010	0.0006403	4
	54	329	1.201923	4.119008E+007	-2065211	1	4.124182E+007	-2.870324	-1.302628E-010	0.000668	4
	55	336	0.956633	4.879672E+007	-809701.3	1	4.880343E+007	-0.950642	-3.116423E-011	8.995684E-005	3
