EXPLAIN
TAG	EISPOT
TITLE	LABEL	Potentiostatic EIS	Test Identifier
DATE	LABEL	8/3/2020	Date
TIME	LABEL	20:36:48	Time
NOTES	NOTES	1	Notes...
	
PSTAT	PSTAT	REF3000-16137	Potentiostat
VDC	POTEN	0.00000E+000	T	DC Voltage (V)
FREQINIT	QUANT	3.00000E+005	Initial Freq. (Hz)
FREQFINAL	QUANT	1.00000E+000	Final Freq. (Hz)
PTSPERDEC	QUANT	1.00000E+001	Points/decade
VAC	QUANT	5.00000E+001	AC Voltage (mV rms)
AREA	QUANT	1.00000E+000	Sample Area (cm^2)
SPEED	SELECTOR	2	Optimize for:
ZGUESS	QUANT	1.00000E+003	Estimated Z (ohms)
EOC	QUANT	0	Open Circuit (V)
SEQUENCER	TOGGLE	TRUE	Run as Sequence
PSTATMODEL	IQUANT	5	Pstat Model
PSTATSECTION	LABEL	REF3000-16137	Pstat Section
PSTATSERIALNO	LABEL	16137	Pstat Serial Number
CTRLMODE	IQUANT	1	Control Mode
IESTAB	IQUANT	0	I/E Stability
CASPEED	IQUANT	1	Control Amp Speed
CONVENTION	IQUANT	1	Current Convention
ICHRANGE	IQUANT	2	Ich Range
ICHRANGEMODE	TOGGLE	F	Ich Auto Range
ICHOFFSETENABLE	TOGGLE	T	Ich Offset Enable
ICHOFFSET	QUANT	0	Ich Offset (V)
ICHFILTER	IQUANT	3	Ich Filter
VCHRANGE	IQUANT	2	Vch Range
VCHRANGEMODE	TOGGLE	F	Vch Auto Range
VCHOFFSETENABLE	TOGGLE	T	Vch Offset Enable
VCHOFFSET	QUANT	0	Vch Offset (V)
VCHFILTER	IQUANT	3	Vch Filter
ACHRANGE	IQUANT	2	Ach Range
ACHOFFSETENABLE	TOGGLE	F	Ach Offset Enable
ACHOFFSET	QUANT	0	Ach Offset (V)
ACHFILTER	IQUANT	3	Ach Filter
IERANGELOWERLIMIT	IQUANT	2	I/E Range Lower Limit
IERANGEMODE	TOGGLE	F	I/E AutoRange
IERANGE	IQUANT	11	I/E Range
POSFEEDENABLE	TOGGLE	F	Positive Feedback IR Comp
POSFEEDRESISTANCE	QUANT	0	Positive Feedback Resistance (ohm)
ACHSELECT	IQUANT	0	Ach Select
CABLEID	IQUANT	13	Cable ID
DCCALDATE	LABEL	7/31/2020	DC Calibration Date
ACCALDATE	LABEL	7/31/2020	AC Calibration Date
THERMOSELECT	IQUANT	1	Thermo Select
FRAMEWORKVERSION	QUANT	6.33	Framework Version
INSTRUMENTVERSION	LABEL	3.50	Instrument Version
COMPLIANCEVOLTAGE	IQUANT	0	Compliance Voltage
ZCURVE	TABLE
	Pt	Time	Freq	Zreal	Zimag	Zsig	Zmod	Zphz	Idc	Vdc	IERange
	#	s	Hz	ohm	ohm	V	ohm	°	A	V	#
	0	9	300046.9	2.771301	0.9326416	1	2.924026	18.59992	2.590415E-005	0.001008	12
	1	13	238359.4	2.663322	0.971519	1	2.834984	20.04081	1.428889E-005	-0.0000979	11
	2	16	189328.1	2.69317	0.5791219	1	2.754732	12.13572	-7.753117E-006	-2.032175E-008	12
	3	20	150421.9	2.654867	0.5850654	1	2.71857	12.42789	-2.496264E-005	0.000344	11
	4	22	119484.4	2.673644	0.327408	1	2.693616	6.981544	4.353459E-005	0.0004186	12
	5	26	94921.88	2.664607	0.321743	1	2.683961	6.884955	-2.913719E-005	0.0005333	11
	6	29	75421.88	2.670063	0.2169826	1	2.678864	4.645932	3.697731E-005	0.000612	11
	7	31	59859.37	2.677921	0.1254336	1	2.680857	2.68177	-3.920784E-005	0.0005691	11
	8	34	47578.12	2.686401	0.0416793	1	2.686725	0.8888672	-3.090104E-005	0.0005922	11
	9	36	37828.12	2.696062	-0.0381988	1	2.696332	-0.8117329	-3.638428E-005	0.000614	11
	10	39	30046.88	2.708421	-0.1188636	1	2.711028	-2.512908	2.948535E-005	0.0007023	11
	11	41	23859.38	2.722529	-0.2035501	1	2.730128	-4.275768	3.237451E-005	0.0007284	11
	12	43	18984.38	2.738195	-0.2953245	1	2.754075	-6.155766	3.93099E-005	0.000725	11
	13	46	15046.87	2.757773	-0.4014094	1	2.786834	-8.281564	-3.433099E-005	0.00065	11
	14	48	11953.13	2.78037	-0.522561	1	2.829051	-10.64437	2.317912E-005	0.0007173	11
	15	50	9515.62	2.806904	-0.6652439	1	2.88466	-13.33324	-2.449664E-005	0.0006475	11
	16	53	7546.875	2.839722	-0.8385292	1	2.960938	-16.45111	3.801706E-005	0.0007457	11
	17	55	5928.309	2.880444	-1.056993	1	3.068256	-20.15086	-2.689716E-005	0.0006598	11
	18	57	4733.456	2.926145	-1.304939	1	3.203933	-24.03489	2.167074E-005	0.0007019	11
	19	60	3796.875	2.98049	-1.598642	1	3.382156	-28.20772	-1.601059E-005	0.0007529	11
	20	62	2987.132	3.036645	-1.983635	1	3.627123	-33.15387	1.697973E-005	0.0007099	11
	21	64	2390.625	3.117235	-2.430521	1	3.952795	-37.94369	-1.701986E-005	0.0007149	10
	22	67	1884.191	3.217944	-3.017443	1	4.411364	-43.15827	8.404604E-007	0.0006607	10
	23	69	1516.544	3.330892	-3.67472	1	4.959679	-47.80976	-3.323261E-006	0.0006743	10
	24	71	1193.986	3.486187	-4.563733	1	5.742922	-52.62418	-1.864188E-005	0.00067	10
	25	74	946.5144	3.678368	-5.630186	1	6.725279	-56.84222	-6.30117E-006	0.0006644	10
	26	76	751.7689	3.920825	-6.936007	1	7.9675	-60.52114	-2.068129E-005	0.0006674	10
	27	78	597.4265	4.226116	-8.528132	1	9.51783	-63.63928	2.198238E-005	0.0006614	10
	28	81	477.4305	4.611692	-10.4348	1	11.40845	-66.15682	-2.639697E-006	0.0007207	10
	29	83	376.6741	5.135465	-12.90032	1	13.88492	-68.29308	1.169015E-006	0.0006733	10
	30	85	298.2954	5.803843	-15.87737	1	16.90489	-69.92052	1.63681E-006	0.0006806	10
	31	88	237.7717	6.64598	-19.39648	1	20.50348	-71.08657	1.218716E-006	0.0006736	10
	32	90	189.0121	7.743914	-23.71797	1	24.95016	-71.91815	1.098153E-006	0.0006752	10
	33	92	150.2404	9.157797	-28.94439	1	30.35857	-72.443	1.61233E-006	0.0006735	10
	34	95	119.1737	10.98563	-35.30629	1	36.97592	-72.71636	1.105539E-006	0.0006768	10
	35	97	95.0169	13.24265	-42.71285	1	44.71862	-72.77453	2.759304E-006	6.947774E-005	9
	36	100	75.60484	16.12362	-51.68587	1	54.14241	-72.67448	2.608305E-006	6.700939E-005	9
	37	102	54.50582	21.51143	-67.5473	1	70.88992	-72.33516	2.020108E-006	0.0001218	9
	38	105	45.95588	25.03045	-77.5762	1	81.51436	-72.11738	2.857661E-006	7.72824E-005	9
	39	107	37.20238	30.10899	-91.81902	1	96.6296	-71.84482	2.724059E-006	6.976147E-005	9
	40	109	30.04808	36.24004	-108.755	1	114.6341	-71.57056	2.634646E-006	7.038307E-005	9
	41	112	23.91582	43.87848	-129.9969	1	137.2025	-71.34868	2.492142E-006	6.904035E-005	9
	42	114	18.60119	53.99755	-158.2959	1	167.2523	-71.16457	2.869847E-006	7.162637E-005	9
	43	117	15.02404	64.05045	-187.0514	1	197.7137	-71.09769	2.601248E-006	7.813687E-005	9
	44	119	12.01923	76.10017	-222.8811	1	235.5148	-71.14812	2.68861E-006	7.132685E-005	9
	45	121	9.450605	91.32533	-269.6478	1	284.6933	-71.2896	2.730696E-006	7.580604E-005	9
	46	124	7.512019	108.4204	-324.521	1	342.1533	-71.52585	2.870807E-006	9.211461E-005	9
	47	126	5.978954	128.9722	-391.1291	1	411.8444	-71.75038	2.690677E-006	7.585331E-005	9
	48	129	4.734848	154.9349	-473.267	1	497.9824	-71.87295	2.055302E-006	0.0006655	8
	49	133	3.75601	188.7309	-575.1006	1	605.2769	-71.8317	1.885304E-006	0.0006424	8
	50	136	3.004808	231.8624	-694.5326	1	732.2129	-71.53896	1.972136E-006	0.0006291	8
	51	140	2.372217	294.5511	-847.0219	1	896.7756	-70.82492	1.917047E-006	0.0006306	8
	52	144	1.878005	382.6237	-1030.229	1	1098.987	-69.62517	1.81236E-006	0.0006499	8
	53	149	1.512097	491.2131	-1229.524	1	1324.016	-68.22256	1.834329E-006	0.0005514	8
	54	154	1.201923	650.5704	-1471.467	1	1608.868	-66.14864	1.775989E-006	0.0006661	8
	55	160	0.956633	861.4487	-1739.525	1	1941.144	-63.65444	1.664029E-006	1.08989E-005	8
