EXPLAIN
TAG	EISPOT
TITLE	LABEL	Potentiostatic EIS	Test Identifier
DATE	LABEL	8/3/2020	Date
TIME	LABEL	20:50:49	Time
NOTES	NOTES	1	Notes...
	
PSTAT	PSTAT	REF3000-16137	Potentiostat
VDC	POTEN	0.00000E+000	T	DC Voltage (V)
FREQINIT	QUANT	3.00000E+005	Initial Freq. (Hz)
FREQFINAL	QUANT	1.00000E+000	Final Freq. (Hz)
PTSPERDEC	QUANT	1.00000E+001	Points/decade
VAC	QUANT	5.00000E+001	AC Voltage (mV rms)
AREA	QUANT	1.00000E+000	Sample Area (cm^2)
SPEED	SELECTOR	2	Optimize for:
ZGUESS	QUANT	1.00000E+003	Estimated Z (ohms)
EOC	QUANT	0	Open Circuit (V)
SEQUENCER	TOGGLE	TRUE	Run as Sequence
PSTATMODEL	IQUANT	5	Pstat Model
PSTATSECTION	LABEL	REF3000-16137	Pstat Section
PSTATSERIALNO	LABEL	16137	Pstat Serial Number
CTRLMODE	IQUANT	1	Control Mode
IESTAB	IQUANT	0	I/E Stability
CASPEED	IQUANT	1	Control Amp Speed
CONVENTION	IQUANT	1	Current Convention
ICHRANGE	IQUANT	2	Ich Range
ICHRANGEMODE	TOGGLE	F	Ich Auto Range
ICHOFFSETENABLE	TOGGLE	T	Ich Offset Enable
ICHOFFSET	QUANT	0	Ich Offset (V)
ICHFILTER	IQUANT	3	Ich Filter
VCHRANGE	IQUANT	2	Vch Range
VCHRANGEMODE	TOGGLE	F	Vch Auto Range
VCHOFFSETENABLE	TOGGLE	T	Vch Offset Enable
VCHOFFSET	QUANT	0	Vch Offset (V)
VCHFILTER	IQUANT	3	Vch Filter
ACHRANGE	IQUANT	2	Ach Range
ACHOFFSETENABLE	TOGGLE	F	Ach Offset Enable
ACHOFFSET	QUANT	0	Ach Offset (V)
ACHFILTER	IQUANT	3	Ach Filter
IERANGELOWERLIMIT	IQUANT	2	I/E Range Lower Limit
IERANGEMODE	TOGGLE	F	I/E AutoRange
IERANGE	IQUANT	11	I/E Range
POSFEEDENABLE	TOGGLE	F	Positive Feedback IR Comp
POSFEEDRESISTANCE	QUANT	0	Positive Feedback Resistance (ohm)
ACHSELECT	IQUANT	0	Ach Select
CABLEID	IQUANT	13	Cable ID
DCCALDATE	LABEL	7/31/2020	DC Calibration Date
ACCALDATE	LABEL	7/31/2020	AC Calibration Date
THERMOSELECT	IQUANT	1	Thermo Select
FRAMEWORKVERSION	QUANT	6.33	Framework Version
INSTRUMENTVERSION	LABEL	3.50	Instrument Version
COMPLIANCEVOLTAGE	IQUANT	0	Compliance Voltage
ZCURVE	TABLE
	Pt	Time	Freq	Zreal	Zimag	Zsig	Zmod	Zphz	Idc	Vdc	IERange
	#	s	Hz	ohm	ohm	V	ohm	°	A	V	#
	0	8	300046.9	15.19863	1.093992	1	15.23795	4.11703	-3.138949E-005	0.0002157	10
	1	12	238359.4	15.34328	0.8435393	1	15.36645	3.146826	2.599563E-005	0.0003148	10
	2	15	189328.1	15.50066	0.6516529	1	15.51436	2.407315	5.658812E-006	0.0005729	10
	3	17	150421.9	15.65705	0.4895304	1	15.6647	1.790815	-1.75773E-005	0.0005875	10
	4	20	119484.4	15.78941	0.3525466	1	15.79334	1.27909	-1.739414E-005	0.0006323	10
	5	22	94921.88	15.93175	0.2500468	1	15.93372	0.8991758	-9.394864E-006	0.0006233	10
	6	25	75421.88	16.08176	0.1344882	1	16.08232	0.4791407	2.045312E-005	0.0005939	10
	7	27	59859.37	16.23816	0.0327183	1	16.2382	0.115445	-1.869643E-005	0.0007008	10
	8	30	47578.12	16.39525	-0.0620714	1	16.39537	-0.2169172	1.546094E-005	0.0006269	10
	9	32	37828.12	16.55519	-0.1571002	1	16.55593	-0.543691	6.789377E-006	0.0006272	10
	10	35	30046.88	16.71685	-0.2568612	1	16.71882	-0.8803038	-2.757504E-005	0.0006486	10
	11	38	23859.38	16.87885	-0.3680441	1	16.88286	-1.24914	-2.512948E-005	0.000647	10
	12	40	18984.38	17.03642	-0.4933052	1	17.04356	-1.658589	-1.055334E-005	0.0006443	10
	13	42	15046.87	17.20154	-0.6424589	1	17.21353	-2.138941	2.456727E-005	0.0006395	10
	14	44	11953.13	17.37142	-0.8147321	1	17.39051	-2.685246	1.537269E-005	0.0006278	10
	15	47	9515.62	17.55255	-1.02289	1	17.58233	-3.335189	2.364078E-005	0.0006447	10
	16	49	7546.875	17.73921	-1.281104	1	17.78541	-4.130658	-2.555538E-006	0.0007107	10
	17	51	5928.309	17.94787	-1.606861	1	18.01966	-5.116013	-2.686918E-005	0.0006895	10
	18	54	4733.456	18.1682	-1.979791	1	18.27575	-6.218992	-1.365072E-005	0.0006873	10
	19	56	3796.875	18.40431	-2.423407	1	18.56317	-7.501328	-1.00557E-005	0.0006728	10
	20	58	2987.132	18.6714	-3.01725	1	18.91361	-9.179496	-2.575754E-005	0.0006766	10
	21	61	2390.625	18.96708	-3.690994	1	19.32287	-11.01213	1.463762E-005	0.0006436	10
	22	63	1884.191	19.30669	-4.567022	1	19.83951	-13.30875	-5.303731E-006	0.0006821	10
	23	65	1516.544	19.68081	-5.533295	1	20.44387	-15.70342	-9.818201E-006	0.0006632	10
	24	67	1193.986	20.13792	-6.833035	1	21.26561	-18.74268	-2.548999E-005	0.0006912	10
	25	70	946.5144	20.65768	-8.362249	1	22.28603	-22.03815	2.557663E-005	0.0006543	10
	26	72	751.7689	21.24917	-10.20957	1	23.57461	-25.66285	-1.015527E-005	0.000664	10
	27	75	597.4265	21.92889	-12.45543	1	25.21932	-29.59621	-2.176301E-005	0.0006907	10
	28	77	477.4305	22.69518	-15.1034	1	27.2614	-33.64335	-5.35201E-007	0.0006764	10
	29	79	376.6741	23.61237	-18.51591	1	30.00638	-38.10217	-1.068406E-006	0.0006752	10
	30	82	298.2954	24.65183	-22.63975	1	33.47045	-42.56374	-6.556867E-007	0.0006789	10
	31	84	237.7717	25.82471	-27.55461	1	37.7647	-46.85617	-3.834039E-007	0.000679	10
	32	86	189.0121	27.1594	-33.62204	1	43.22123	-51.06922	1.114812E-006	7.390204E-005	9
	33	89	150.2404	28.75633	-41.13376	1	50.18877	-55.04287	1.131379E-006	8.300679E-005	9
	34	91	119.1737	30.66921	-50.48942	1	59.07438	-58.7239	1.123109E-006	8.070808E-005	9
	35	93	95.0169	32.93387	-61.76728	1	69.99883	-61.93378	1.158153E-006	7.794326E-005	9
	36	96	75.60484	35.74073	-75.77185	1	83.77812	-64.74728	1.120848E-006	7.751714E-005	9
	37	99	54.50582	40.90118	-101.5395	1	109.4677	-68.05991	1.081807E-006	6.864814E-005	9
	38	101	45.95588	44.45655	-118.3703	1	126.4434	-69.41524	1.238885E-006	8.021239E-005	9
	39	103	37.20238	49.75122	-143.0023	1	151.4095	-70.81696	1.254449E-006	7.916538E-005	9
	40	106	30.04808	56.45756	-173.0202	1	181.9985	-71.92818	1.089588E-006	7.975777E-005	9
	41	108	23.91582	65.5431	-211.846	1	221.7535	-72.80844	9.783591E-007	7.611873E-005	9
	42	111	18.60119	78.38095	-264.402	1	275.7753	-73.48775	1.037573E-006	7.440002E-005	9
	43	113	15.02404	92.46102	-318.6206	1	331.7652	-73.81772	1.261992E-006	0.000132	9
	44	115	12.01923	110.9889	-386.7319	1	402.3433	-73.98695	1.062789E-006	7.848848E-005	9
	45	118	9.450605	135.8347	-473.2321	1	492.3411	-73.98461	5.573665E-007	0.0006577	8
	46	120	7.512019	166.2007	-574.9116	1	598.453	-73.87599	5.539554E-007	0.0006658	8
	47	123	5.978954	203.3528	-696.5546	1	725.6312	-73.72532	4.739499E-007	0.0006575	8
	48	126	4.734848	251.088	-845.6588	1	882.1473	-73.4631	4.759914E-007	0.0006831	8
	49	129	3.75601	308.6639	-1024.141	1	1069.644	-73.22781	3.90022E-007	0.0006487	8
	50	133	3.004808	375.4234	-1228.691	1	1284.766	-73.00961	3.768206E-007	0.0006835	8
	51	136	2.372217	462.5971	-1489.014	1	1559.217	-72.74136	4.193311E-007	0.000717	8
	52	141	1.878005	562.0481	-1802.492	1	1888.088	-72.68163	3.36019E-007	0.0006896	8
	53	145	1.512097	674.0818	-2145.566	1	2248.965	-72.55862	4.303609E-007	0.0006937	8
	54	151	1.201923	813.3779	-2595.725	1	2720.179	-72.60147	3.895087E-007	0.0006304	8
	55	157	0.956633	977.141	-3130.921	1	3279.859	-72.66718	3.880742E-007	1.343751E-005	8
