EXPLAIN
TAG	EISPOT
TITLE	LABEL	Potentiostatic EIS	Test Identifier
DATE	LABEL	8/23/2020	Date
TIME	LABEL	14:47:32	Time
NOTES	NOTES	1	Notes...
	
PSTAT	PSTAT	REF3000-16137	Potentiostat
VDC	POTEN	0.00000E+000	T	DC Voltage (V)
FREQINIT	QUANT	3.00000E+005	Initial Freq. (Hz)
FREQFINAL	QUANT	1.00000E+000	Final Freq. (Hz)
PTSPERDEC	QUANT	1.00000E+001	Points/decade
VAC	QUANT	5.00000E+001	AC Voltage (mV rms)
AREA	QUANT	1.00000E+000	Sample Area (cm^2)
SPEED	SELECTOR	2	Optimize for:
ZGUESS	QUANT	1.00000E+003	Estimated Z (ohms)
EOC	QUANT	0	Open Circuit (V)
SEQUENCER	TOGGLE	TRUE	Run as Sequence
PSTATMODEL	IQUANT	5	Pstat Model
PSTATSECTION	LABEL	REF3000-16137	Pstat Section
PSTATSERIALNO	LABEL	16137	Pstat Serial Number
CTRLMODE	IQUANT	1	Control Mode
IESTAB	IQUANT	0	I/E Stability
CASPEED	IQUANT	1	Control Amp Speed
CONVENTION	IQUANT	1	Current Convention
ICHRANGE	IQUANT	2	Ich Range
ICHRANGEMODE	TOGGLE	F	Ich Auto Range
ICHOFFSETENABLE	TOGGLE	T	Ich Offset Enable
ICHOFFSET	QUANT	0	Ich Offset (V)
ICHFILTER	IQUANT	3	Ich Filter
VCHRANGE	IQUANT	2	Vch Range
VCHRANGEMODE	TOGGLE	F	Vch Auto Range
VCHOFFSETENABLE	TOGGLE	T	Vch Offset Enable
VCHOFFSET	QUANT	0	Vch Offset (V)
VCHFILTER	IQUANT	3	Vch Filter
ACHRANGE	IQUANT	2	Ach Range
ACHOFFSETENABLE	TOGGLE	F	Ach Offset Enable
ACHOFFSET	QUANT	0	Ach Offset (V)
ACHFILTER	IQUANT	3	Ach Filter
IERANGELOWERLIMIT	IQUANT	2	I/E Range Lower Limit
IERANGEMODE	TOGGLE	F	I/E AutoRange
IERANGE	IQUANT	11	I/E Range
POSFEEDENABLE	TOGGLE	F	Positive Feedback IR Comp
POSFEEDRESISTANCE	QUANT	0	Positive Feedback Resistance (ohm)
ACHSELECT	IQUANT	0	Ach Select
CABLEID	IQUANT	13	Cable ID
DCCALDATE	LABEL	7/31/2020	DC Calibration Date
ACCALDATE	LABEL	7/31/2020	AC Calibration Date
THERMOSELECT	IQUANT	1	Thermo Select
FRAMEWORKVERSION	QUANT	6.33	Framework Version
INSTRUMENTVERSION	LABEL	3.50	Instrument Version
COMPLIANCEVOLTAGE	IQUANT	0	Compliance Voltage
ZCURVE	TABLE
	Pt	Time	Freq	Zreal	Zimag	Zsig	Zmod	Zphz	Idc	Vdc	IERange
	#	s	Hz	ohm	ohm	V	ohm	°	A	V	#
	0	17	300046.9	983.292	-2305.914	1	2506.811	-66.90554	0.0002665	-0.0196138	9
	1	32	238359.4	926.7712	-2813.84	1	2962.533	-71.7701	5.992248E-005	0.0150492	9
	2	48	189328.1	1312.018	-3187.164	1	3446.651	-67.62515	-0.0001659	0.0029262	10
	3	57	150421.9	1893.984	-3650.036	1	4112.17	-62.57544	0.0005756	0.0016727	10
	4	66	119484.4	2500.206	-4116.907	1	4816.633	-58.72961	0.0006973	-0.0033116	10
	5	74	94921.88	3110.737	-4751.385	1	5679.114	-56.78719	-0.0002181	0.0114598	9
	6	84	75421.88	4045.333	-5306.109	1	6672.294	-52.67841	-0.0002698	0.0047671	9
	7	93	59859.37	5096.843	-5603.57	1	7574.814	-47.71127	-5.520467E-005	0.0089156	9
	8	103	47578.12	8511.669	-5141.75	1	9944.15	-31.13544	-7.205742E-005	0.0584537	8
	9	111	37828.12	8407.732	-6494.225	1	10623.79	-37.68289	-0.0000975	-0.0094956	8
	10	118	30046.88	8765.856	-6593.855	1	10969.01	-36.95123	-5.598484E-005	0.0090221	9
	11	128	23859.38	10105.39	-6318.998	1	11918.42	-32.01813	-0.0002209	0.0114678	9
	12	136	18984.38	11620.25	-5229.65	1	12742.82	-24.22996	0.0003089	-0.007841	9
	13	145	15046.87	13277.72	-6009.25	1	14574.26	-24.35062	-0.0002954	0.0095655	9
	14	153	11953.13	15737.33	-5657.591	1	16723.39	-19.77358	-0.0001324	0.0498748	8
	15	159	9515.62	15043.02	-4496.725	1	15700.73	-16.64269	-0.0001009	-0.009905	8
	16	164	7546.875	16196.12	-3779.385	1	16631.24	-13.13499	9.396567E-005	-0.0582213	8
	17	170	5928.309	16578.72	-3665.889	1	16979.19	-12.46862	0.0001562	-0.0425848	8
	18	175	4733.456	17337.8	-3013.16	1	17597.69	-9.85904	-0.0002967	0.007459	9
	19	184	3796.875	17455.87	-3698.346	1	17843.35	-11.96227	-0.0001488	0.0271692	8
	20	190	2987.132	19001.44	-1575.281	1	19066.63	-4.739167	3.961777E-005	-0.0082613	9
	21	198	2390.625	26892.3	-7410.226	1	27894.58	-15.40565	1.916364E-005	0.0454145	8
	22	203	1884.191	18336.03	-3112.018	1	18598.24	-9.63253	-0.0001465	0.0275477	8
	23	210	1516.544	20226.31	36.41984	1	20226.34	0.1031677	-5.976983E-005	-0.0053338	9
	24	217	1193.986	20322.9	-5544.013	1	21065.53	-15.2588	-1.366958E-005	-0.0423173	8
	25	223	946.5144	9975.39	-4698.201	1	11026.4	-25.21945	0.0001215	-0.0565839	8
	26	228	751.7689	33915.92	-9347.162	1	35180.38	-15.4081	0.0001316	-0.0080607	8
	27	232	597.4265	25450.39	-3074.096	1	25635.37	-6.887266	-4.143726E-005	0.0087343	9
	28	238	477.4305	21158.08	-3616.553	1	21464.94	-9.69983	-1.933607E-006	0.0005888	8
	29	243	376.6741	29679.08	-5132.766	1	30119.65	-9.81181	-7.59019E-007	0.0007376	7
	30	246	298.2954	29978.97	-5851.433	1	30544.69	-11.0444	-7.46733E-007	0.0005537	7
	31	249	237.7717	30668.39	-6978.676	1	31452.38	-12.81952	-7.573904E-007	0.0007592	7
	32	251	189.0121	31358.49	-8058.554	1	32377.38	-14.41211	-7.653919E-007	0.0007073	7
	33	254	150.2404	31543.28	-9208.967	1	32860.05	-16.27501	-7.302517E-007	0.0005576	7
	34	257	119.1737	32631.66	-11207.43	1	34502.63	-18.95517	-7.744614E-007	0.0005546	7
	35	260	95.0169	33178.14	-13189.95	1	35703.84	-21.68027	-7.296659E-007	0.0005556	7
	36	263	75.60484	34204.47	-15785.7	1	37671.39	-24.77378	-7.506786E-007	0.0004983	7
	37	265	54.50582	35779.41	-20685.44	1	41328.6	-30.03384	-7.623199E-007	0.0005095	7
	38	269	45.95588	36112.11	-23507.03	1	43089.03	-33.06195	-7.344393E-007	0.000501	7
	39	271	37.20238	37223.53	-28169.33	1	46680.86	-37.11703	-7.685003E-007	0.0007422	7
	40	274	30.04808	39240.45	-34325.67	1	52135.06	-41.17788	-7.659357E-007	0.0007096	7
	41	277	23.91582	39672.13	-40610.48	1	56772.26	-45.66965	-7.309813E-007	0.0005543	7
	42	280	18.60119	43641.38	-52197.59	1	68037.91	-50.10167	-7.876786E-008	0.0006102	6
	43	282	15.02404	45954.12	-62290.28	1	77407.1	-53.58227	-7.536941E-008	0.0005437	6
	44	284	12.01923	50062.73	-77004.94	1	91847.91	-56.97115	-7.9184E-008	0.0006916	6
	45	287	9.450605	54877.28	-95432.9	1	110086.1	-60.09958	-8.106002E-008	0.0007829	6
	46	290	7.512019	61661.82	-118547.4	1	133625	-62.51903	-8.534835E-008	0.0006849	6
	47	293	5.978954	69052.41	-143435.5	1	159191.6	-64.293	-8.225883E-008	0.0005445	6
	48	297	4.734848	80006.53	-175808.1	1	193156.7	-65.53072	-8.354972E-008	0.0006951	6
	49	302	3.75601	93830.7	-213536.7	1	233242.6	-66.27871	-8.365567E-008	0.0007399	6
	50	308	3.004808	111776.5	-256569.2	1	279860.2	-66.45925	-8.431142E-008	0.0006645	6
	51	314	2.372217	135831.7	-310497.7	1	338908.6	-66.37234	-8.38187E-008	0.0007316	6
	52	318	1.878005	164981.4	-370029.8	1	405143.1	-65.96983	-8.406986E-008	0.0006368	6
	53	323	1.512097	197448.1	-435423.6	1	478099.8	-65.60751	-8.443835E-008	0.0006805	6
	54	328	1.201923	248193.5	-516611	1	573137.8	-64.33915	-8.444054E-008	0.0006326	6
	55	334	0.956633	302357.1	-608306.9	1	679306.4	-63.57047	-8.506179E-008	2.707926E-005	6
