EXPLAIN
TAG	EISPOT
TITLE	LABEL	Potentiostatic EIS	Test Identifier
DATE	LABEL	8/23/2020	Date
TIME	LABEL	17:51:36	Time
NOTES	NOTES	1	Notes...
	
PSTAT	PSTAT	REF3000-16137	Potentiostat
VDC	POTEN	0.00000E+000	T	DC Voltage (V)
FREQINIT	QUANT	3.00000E+005	Initial Freq. (Hz)
FREQFINAL	QUANT	1.00000E+000	Final Freq. (Hz)
PTSPERDEC	QUANT	1.00000E+001	Points/decade
VAC	QUANT	5.00000E+001	AC Voltage (mV rms)
AREA	QUANT	1.00000E+000	Sample Area (cm^2)
SPEED	SELECTOR	2	Optimize for:
ZGUESS	QUANT	1.00000E+003	Estimated Z (ohms)
EOC	QUANT	0	Open Circuit (V)
SEQUENCER	TOGGLE	TRUE	Run as Sequence
PSTATMODEL	IQUANT	5	Pstat Model
PSTATSECTION	LABEL	REF3000-16137	Pstat Section
PSTATSERIALNO	LABEL	16137	Pstat Serial Number
CTRLMODE	IQUANT	1	Control Mode
IESTAB	IQUANT	0	I/E Stability
CASPEED	IQUANT	1	Control Amp Speed
CONVENTION	IQUANT	1	Current Convention
ICHRANGE	IQUANT	2	Ich Range
ICHRANGEMODE	TOGGLE	F	Ich Auto Range
ICHOFFSETENABLE	TOGGLE	T	Ich Offset Enable
ICHOFFSET	QUANT	0	Ich Offset (V)
ICHFILTER	IQUANT	3	Ich Filter
VCHRANGE	IQUANT	2	Vch Range
VCHRANGEMODE	TOGGLE	F	Vch Auto Range
VCHOFFSETENABLE	TOGGLE	T	Vch Offset Enable
VCHOFFSET	QUANT	0	Vch Offset (V)
VCHFILTER	IQUANT	3	Vch Filter
ACHRANGE	IQUANT	2	Ach Range
ACHOFFSETENABLE	TOGGLE	F	Ach Offset Enable
ACHOFFSET	QUANT	0	Ach Offset (V)
ACHFILTER	IQUANT	3	Ach Filter
IERANGELOWERLIMIT	IQUANT	2	I/E Range Lower Limit
IERANGEMODE	TOGGLE	F	I/E AutoRange
IERANGE	IQUANT	11	I/E Range
POSFEEDENABLE	TOGGLE	F	Positive Feedback IR Comp
POSFEEDRESISTANCE	QUANT	0	Positive Feedback Resistance (ohm)
ACHSELECT	IQUANT	0	Ach Select
CABLEID	IQUANT	13	Cable ID
DCCALDATE	LABEL	7/31/2020	DC Calibration Date
ACCALDATE	LABEL	7/31/2020	AC Calibration Date
THERMOSELECT	IQUANT	1	Thermo Select
FRAMEWORKVERSION	QUANT	6.33	Framework Version
INSTRUMENTVERSION	LABEL	3.50	Instrument Version
COMPLIANCEVOLTAGE	IQUANT	0	Compliance Voltage
ZCURVE	TABLE
	Pt	Time	Freq	Zreal	Zimag	Zsig	Zmod	Zphz	Idc	Vdc	IERange
	#	s	Hz	ohm	ohm	V	ohm	°	A	V	#
	0	8	300046.9	262.6676	-30.1861	1	264.3964	-6.555746	7.642942E-005	0.0003696	10
	1	13	238359.4	265.0015	-23.82463	1	266.0703	-5.137294	5.645162E-005	-0.0005284	9
	2	19	189328.1	265.4108	-24.60014	1	266.5484	-5.295447	-1.694452E-005	0.0010992	9
	3	25	150421.9	266.812	-28.88217	1	268.3707	-6.178163	-6.454675E-005	0.0008319	10
	4	33	119484.4	269.7254	-28.73697	1	271.2519	-6.081441	5.419551E-005	-0.0003189	9
	5	37	94921.88	271.3372	-32.21656	1	273.2431	-6.771173	2.783293E-005	-0.0006559	9
	6	40	75421.88	274.2311	-35.96676	1	276.5796	-7.471975	3.05026E-006	0.0005519	9
	7	44	59859.37	277.4385	-41.2665	1	280.4908	-8.460207	-6.798185E-006	0.000744	9
	8	46	47578.12	280.9588	-46.79016	1	284.8283	-9.455117	-1.373458E-005	0.0009336	9
	9	49	37828.12	285.3146	-54.63176	1	290.498	-10.83973	-1.492613E-005	0.0008761	9
	10	53	30046.88	290.3028	-62.78572	1	297.0148	-12.20378	-1.582409E-005	0.0009956	9
	11	55	23859.38	295.6405	-72.78813	1	304.4691	-13.83141	1.313823E-005	0.0001414	9
	12	57	18984.38	301.8122	-84.50659	1	313.4198	-15.6421	-2.584661E-005	0.0007482	9
	13	60	15046.87	307.8813	-98.6931	1	323.3129	-17.77354	2.793554E-005	-0.0005064	9
	14	62	11953.13	314.4639	-114.6952	1	334.7276	-20.03856	1.394078E-005	-0.0007075	9
	15	64	9515.62	322.1306	-134.5411	1	349.0981	-22.66834	1.456023E-005	-0.0007195	9
	16	67	7546.875	328.7104	-158.7561	1	365.0397	-25.77899	2.915817E-005	-0.0008438	9
	17	69	5928.309	336.6929	-191.1808	1	387.185	-29.58876	-1.684176E-005	0.0002003	9
	18	72	4733.456	343.6009	-226.6569	1	411.6247	-33.41091	4.460029E-006	-0.0031544	8
	19	74	3796.875	350.4893	-271.9327	1	443.6103	-37.80667	-6.272438E-006	0.0047973	8
	20	76	2987.132	360.2962	-334.3178	1	491.5097	-42.85815	-5.967034E-006	0.0046754	8
	21	79	2390.625	370.6307	-407.3868	1	550.7551	-47.70483	-9.412656E-006	0.0017665	8
	22	81	1884.191	383.7565	-503.0423	1	632.7089	-52.66103	-7.07711E-006	0.0005503	8
	23	83	1516.544	401.4499	-614.1625	1	733.7286	-56.82919	1.19123E-005	-0.0033929	8
	24	86	1193.986	422.4977	-764.5728	1	873.5422	-61.07526	4.156356E-007	-0.0020748	8
	25	88	946.5144	454.6239	-942.5714	1	1046.482	-64.25092	1.073594E-005	-0.0038273	8
	26	91	751.7689	494.6207	-1161.658	1	1262.577	-66.93626	-1.019449E-005	0.0047257	8
	27	93	597.4265	548.2958	-1437.389	1	1538.413	-69.12051	8.991769E-007	-0.0022968	8
	28	96	477.4305	611.5329	-1758.505	1	1861.803	-70.82451	-9.706933E-008	0.0006541	8
	29	98	376.6741	705.5685	-2175.294	1	2286.861	-72.02925	-1.00238E-007	0.0006511	8
	30	101	298.2954	829.375	-2676.838	1	2802.378	-72.78525	-1.058711E-007	0.0006608	8
	31	103	237.7717	988.175	-3268.661	1	3414.767	-73.17899	-1.140452E-007	0.0006492	8
	32	105	189.0121	1198.191	-3992.465	1	4168.385	-73.29482	-8.791187E-008	0.0006429	8
	33	108	150.2404	1484.508	-4875.103	1	5096.115	-73.06409	-6.97423E-008	0.000617	7
	34	110	119.1737	1855.638	-5941.369	1	6224.408	-72.65511	-6.661794E-008	0.0006198	7
	35	113	95.0169	2340.193	-7178.803	1	7550.61	-71.94473	-6.463961E-008	0.0006239	7
	36	115	75.60484	2999.975	-8658.718	1	9163.691	-70.8904	-6.623815E-008	0.0006202	7
	37	118	54.50582	4325.404	-11230.11	1	12034.3	-68.93524	-6.052864E-008	0.0006257	7
	38	120	45.95588	5268.515	-12775.39	1	13819.11	-67.58896	-6.620755E-008	0.000638	7
	39	123	37.20238	6736.567	-14884.44	1	16337.93	-65.6489	-5.96956E-008	0.0006295	7
	40	125	30.04808	8591.342	-17244.15	1	19265.82	-63.5167	-6.081152E-008	0.0006378	7
	41	127	23.91582	11106.87	-19860.87	1	22755.58	-60.7846	-6.388718E-008	0.0006246	7
	42	130	18.60119	14559.03	-22794.07	1	27046.91	-57.43281	-6.470557E-008	0.0006195	7
	43	132	15.02404	18080.99	-25257.21	1	31062.02	-54.4021	-6.377868E-008	0.0006541	7
	44	134	12.01923	22327.41	-27441.63	1	35377.34	-50.86707	-5.856407E-008	0.0006198	7
	45	137	9.450605	27341.62	-29494.15	1	40217.77	-47.16891	-6.49027E-008	0.0006291	7
	46	139	7.512019	32517.48	-30891.18	1	44851.43	-43.53081	-5.55151E-008	0.0006985	6
	47	143	5.978954	37710.68	-31336.46	1	49031.31	-39.72558	-5.68034E-008	0.0006805	6
	48	147	4.734848	42872.98	-30974.28	1	52891.39	-35.84684	-5.563887E-008	0.0007203	6
	49	152	3.75601	47590.05	-29940.02	1	56224.7	-32.17496	-6.272349E-008	0.000655	6
	50	157	3.004808	51632.61	-28420.83	1	58937.85	-28.8303	-6.215236E-008	0.0007147	6
	51	164	2.372217	55063.03	-26194.05	1	60975.94	-25.44092	-5.863203E-008	0.0007422	6
	52	171	1.878005	56994.41	-22999.99	1	61460.25	-21.97645	-6.58988E-008	0.0006544	6
	53	180	1.512097	58518.33	-20764.18	1	62093.04	-19.53632	-6.896681E-008	0.0007755	6
	54	191	1.201923	59594.62	-18436.35	1	62381.23	-17.19011	-6.870771E-008	0.0006516	6
	55	204	0.956633	61040.48	-16552.25	1	63244.9	-15.17196	-9.064649E-008	4.153114E-005	6
