EXPLAIN
TAG	EISPOT
TITLE	LABEL	Potentiostatic EIS	Test Identifier
DATE	LABEL	8/23/2020	Date
TIME	LABEL	18:40:44	Time
NOTES	NOTES	1	Notes...
	
PSTAT	PSTAT	REF3000-16137	Potentiostat
VDC	POTEN	0.00000E+000	T	DC Voltage (V)
FREQINIT	QUANT	3.00000E+005	Initial Freq. (Hz)
FREQFINAL	QUANT	1.00000E+000	Final Freq. (Hz)
PTSPERDEC	QUANT	1.00000E+001	Points/decade
VAC	QUANT	5.00000E+001	AC Voltage (mV rms)
AREA	QUANT	1.00000E+000	Sample Area (cm^2)
SPEED	SELECTOR	2	Optimize for:
ZGUESS	QUANT	1.00000E+003	Estimated Z (ohms)
EOC	QUANT	0	Open Circuit (V)
SEQUENCER	TOGGLE	TRUE	Run as Sequence
PSTATMODEL	IQUANT	5	Pstat Model
PSTATSECTION	LABEL	REF3000-16137	Pstat Section
PSTATSERIALNO	LABEL	16137	Pstat Serial Number
CTRLMODE	IQUANT	1	Control Mode
IESTAB	IQUANT	0	I/E Stability
CASPEED	IQUANT	1	Control Amp Speed
CONVENTION	IQUANT	1	Current Convention
ICHRANGE	IQUANT	2	Ich Range
ICHRANGEMODE	TOGGLE	F	Ich Auto Range
ICHOFFSETENABLE	TOGGLE	T	Ich Offset Enable
ICHOFFSET	QUANT	0	Ich Offset (V)
ICHFILTER	IQUANT	3	Ich Filter
VCHRANGE	IQUANT	2	Vch Range
VCHRANGEMODE	TOGGLE	F	Vch Auto Range
VCHOFFSETENABLE	TOGGLE	T	Vch Offset Enable
VCHOFFSET	QUANT	0	Vch Offset (V)
VCHFILTER	IQUANT	3	Vch Filter
ACHRANGE	IQUANT	2	Ach Range
ACHOFFSETENABLE	TOGGLE	F	Ach Offset Enable
ACHOFFSET	QUANT	0	Ach Offset (V)
ACHFILTER	IQUANT	3	Ach Filter
IERANGELOWERLIMIT	IQUANT	2	I/E Range Lower Limit
IERANGEMODE	TOGGLE	F	I/E AutoRange
IERANGE	IQUANT	11	I/E Range
POSFEEDENABLE	TOGGLE	F	Positive Feedback IR Comp
POSFEEDRESISTANCE	QUANT	0	Positive Feedback Resistance (ohm)
ACHSELECT	IQUANT	0	Ach Select
CABLEID	IQUANT	13	Cable ID
DCCALDATE	LABEL	7/31/2020	DC Calibration Date
ACCALDATE	LABEL	7/31/2020	AC Calibration Date
THERMOSELECT	IQUANT	1	Thermo Select
FRAMEWORKVERSION	QUANT	6.33	Framework Version
INSTRUMENTVERSION	LABEL	3.50	Instrument Version
COMPLIANCEVOLTAGE	IQUANT	0	Compliance Voltage
ZCURVE	TABLE
	Pt	Time	Freq	Zreal	Zimag	Zsig	Zmod	Zphz	Idc	Vdc	IERange
	#	s	Hz	ohm	ohm	V	ohm	°	A	V	#
	0	12	300046.9	260.1466	-22.55328	1	261.1224	-4.954839	-8.918162E-005	0.0021378	9
	1	16	238359.4	260.5486	-27.71594	1	262.0186	-6.072021	-1.970429E-005	0.0003353	10
	2	20	189328.1	262.0346	-27.75623	1	263.5006	-6.046554	2.192868E-005	0.0005827	10
	3	27	150421.9	263.8294	-25.67617	1	265.0758	-5.558584	7.122906E-006	-0.0014321	9
	4	34	119484.4	266.0359	-27.94673	1	267.4998	-5.996854	2.158519E-005	-0.0013779	9
	5	37	94921.88	268.261	-31.52063	1	270.1065	-6.701516	-2.501801E-005	0.0007851	9
	6	41	75421.88	270.9122	-36.07351	1	273.3033	-7.584644	-2.45423E-005	0.0006968	9
	7	45	59859.37	273.9589	-40.82584	1	276.9842	-8.475942	-1.727114E-005	0.0001772	9
	8	49	47578.12	277.3514	-46.837	1	281.2783	-9.58524	2.093131E-005	-0.0001693	9
	9	53	37828.12	281.958	-54.11316	1	287.1037	-10.86406	-2.17946E-005	0.0004902	9
	10	57	30046.88	286.5031	-62.54315	1	293.2502	-12.31439	-2.258067E-005	0.0005283	9
	11	59	23859.38	292.0652	-72.14954	1	300.8448	-13.8761	-6.947918E-006	0.0008355	9
	12	61	18984.38	297.4194	-83.80738	1	309.0016	-15.73687	-1.728169E-005	0.0001956	9
	13	64	15046.87	303.5711	-98.7095	1	319.2162	-18.01251	2.447425E-005	-0.0007671	9
	14	66	11953.13	310.685	-114.3379	1	331.0564	-20.20457	2.211022E-005	-0.0001831	9
	15	68	9515.62	317.3693	-134.4982	1	344.6927	-22.96678	-2.251669E-005	0.0005873	9
	16	71	7546.875	325.0981	-159.5714	1	362.1488	-26.14369	1.53408E-005	-0.0007651	9
	17	73	5928.309	331.7482	-192.6343	1	383.6207	-30.14221	-3.760732E-006	-0.0002897	9
	18	75	4733.456	338.0725	-229.5007	1	408.6118	-34.17064	1.208881E-005	-0.0034427	8
	19	78	3796.875	344.9125	-275.3391	1	441.3346	-38.5999	-7.432314E-006	0.0007002	8
	20	80	2987.132	355.8114	-338.8224	1	491.3271	-43.59896	-5.580228E-006	0.0046553	8
	21	82	2390.625	364.925	-414.0005	1	551.8755	-48.60511	-6.875969E-006	0.0004238	8
	22	85	1884.191	378.9053	-512.4313	1	637.3029	-53.51979	-1.047562E-005	0.0047451	8
	23	87	1516.544	395.251	-623.4762	1	738.2045	-57.62746	7.74213E-006	-0.0035666	8
	24	89	1193.986	419.408	-778.5842	1	884.3622	-61.68953	-1.175291E-005	0.0037928	8
	25	92	946.5144	447.9792	-957.381	1	1057.007	-64.92409	-9.086358E-006	0.0018148	8
	26	95	751.7689	488.6744	-1188.346	1	1284.901	-67.64645	-1.110506E-005	0.0029066	8
	27	97	597.4265	541.4993	-1459.029	1	1556.274	-69.63826	1.049576E-005	-0.0036965	8
	28	100	477.4305	610.4768	-1788.62	1	1889.932	-71.15462	-9.037719E-008	0.0006692	8
	29	102	376.6741	706.9714	-2212.496	1	2322.703	-72.27946	-1.090827E-007	0.0006594	8
	30	104	298.2954	833.1431	-2722.379	1	2847.012	-72.98406	-8.007454E-008	0.0006487	8
	31	107	237.7717	994.516	-3324.093	1	3469.677	-73.34364	-8.461297E-008	0.0006651	8
	32	109	189.0121	1209.295	-4059.871	1	4236.148	-73.41302	-8.523822E-008	0.0006586	8
	33	112	150.2404	1500.182	-4956.256	1	5178.322	-73.15975	-6.000563E-008	0.0006265	7
	34	114	119.1737	1880.488	-6033.907	1	6320.148	-72.69018	-5.928857E-008	0.0006445	7
	35	116	95.0169	2371.682	-7296.019	1	7671.816	-71.99246	-5.642558E-008	0.0006406	7
	36	119	75.60484	3037.508	-8798.321	1	9307.896	-70.95342	-5.585185E-008	0.0006219	7
	37	121	54.50582	4382.324	-11397.43	1	12210.91	-68.9682	-5.548354E-008	0.0006513	7
	38	124	45.95588	5335.391	-12979.83	1	14033.62	-67.65477	-5.797131E-008	0.0006513	7
	39	126	37.20238	6809.497	-15126.79	1	16588.83	-65.76457	-4.843836E-008	0.0006281	7
	40	129	30.04808	8697.489	-17514.31	1	19554.98	-63.59131	-5.109764E-008	0.0006301	7
	41	131	23.91582	11264.17	-20205.93	1	23133.55	-60.86171	-5.394931E-008	0.0006182	7
	42	133	18.60119	14745.94	-23186.92	1	27478.65	-57.54529	-4.558571E-008	0.0006181	7
	43	136	15.02404	18271.96	-25747.87	1	31572.41	-54.63861	-4.655161E-008	0.0006222	7
	44	138	12.01923	22538.16	-28165.66	1	36073.16	-51.33321	-5.624601E-008	0.0006283	7
	45	140	9.450605	27678.4	-30213.02	1	40974.63	-47.50694	-3.389167E-008	0.0006687	6
	46	143	7.512019	32893.6	-31674.87	1	45664.94	-43.91867	-3.734335E-008	0.0006943	6
	47	146	5.978954	38162.58	-32208.95	1	49937.95	-40.16413	-3.996889E-008	0.0006845	6
	48	150	4.734848	43464.85	-32070.07	1	54015.58	-36.42136	-4.694423E-008	0.0006405	6
	49	155	3.75601	48346.54	-31138.21	1	57506.31	-32.78408	-4.861962E-008	0.0006906	6
	50	161	3.004808	52331.81	-29491.37	1	60069.62	-29.40325	-4.693671E-008	0.0006529	6
	51	167	2.372217	56661.84	-28210.49	1	63296.1	-26.46754	-5.451276E-008	0.0006703	6
	52	171	1.878005	58581.09	-24661.91	1	63560.63	-22.83049	-5.469795E-008	0.0006842	6
	53	180	1.512097	59650.34	-21979.12	1	63570.79	-20.22712	-5.543595E-008	0.0005795	6
	54	191	1.201923	60783.79	-19567.42	1	63855.72	-17.84433	-5.844328E-008	0.0006792	6
	55	204	0.956633	61816.91	-17560.31	1	64262.7	-15.85824	-7.238007E-008	4.317991E-005	6
