EXPLAIN
TAG	EISPOT
TITLE	LABEL	Potentiostatic EIS	Test Identifier
DATE	LABEL	8/23/2020	Date
TIME	LABEL	18:30:22	Time
NOTES	NOTES	1	Notes...
	
PSTAT	PSTAT	REF3000-16137	Potentiostat
VDC	POTEN	0.00000E+000	T	DC Voltage (V)
FREQINIT	QUANT	3.00000E+005	Initial Freq. (Hz)
FREQFINAL	QUANT	1.00000E+000	Final Freq. (Hz)
PTSPERDEC	QUANT	1.00000E+001	Points/decade
VAC	QUANT	5.00000E+001	AC Voltage (mV rms)
AREA	QUANT	1.00000E+000	Sample Area (cm^2)
SPEED	SELECTOR	2	Optimize for:
ZGUESS	QUANT	1.00000E+003	Estimated Z (ohms)
EOC	QUANT	0	Open Circuit (V)
SEQUENCER	TOGGLE	TRUE	Run as Sequence
PSTATMODEL	IQUANT	5	Pstat Model
PSTATSECTION	LABEL	REF3000-16137	Pstat Section
PSTATSERIALNO	LABEL	16137	Pstat Serial Number
CTRLMODE	IQUANT	1	Control Mode
IESTAB	IQUANT	0	I/E Stability
CASPEED	IQUANT	1	Control Amp Speed
CONVENTION	IQUANT	1	Current Convention
ICHRANGE	IQUANT	2	Ich Range
ICHRANGEMODE	TOGGLE	F	Ich Auto Range
ICHOFFSETENABLE	TOGGLE	T	Ich Offset Enable
ICHOFFSET	QUANT	0	Ich Offset (V)
ICHFILTER	IQUANT	3	Ich Filter
VCHRANGE	IQUANT	2	Vch Range
VCHRANGEMODE	TOGGLE	F	Vch Auto Range
VCHOFFSETENABLE	TOGGLE	T	Vch Offset Enable
VCHOFFSET	QUANT	0	Vch Offset (V)
VCHFILTER	IQUANT	3	Vch Filter
ACHRANGE	IQUANT	2	Ach Range
ACHOFFSETENABLE	TOGGLE	F	Ach Offset Enable
ACHOFFSET	QUANT	0	Ach Offset (V)
ACHFILTER	IQUANT	3	Ach Filter
IERANGELOWERLIMIT	IQUANT	2	I/E Range Lower Limit
IERANGEMODE	TOGGLE	F	I/E AutoRange
IERANGE	IQUANT	11	I/E Range
POSFEEDENABLE	TOGGLE	F	Positive Feedback IR Comp
POSFEEDRESISTANCE	QUANT	0	Positive Feedback Resistance (ohm)
ACHSELECT	IQUANT	0	Ach Select
CABLEID	IQUANT	13	Cable ID
DCCALDATE	LABEL	7/31/2020	DC Calibration Date
ACCALDATE	LABEL	7/31/2020	AC Calibration Date
THERMOSELECT	IQUANT	1	Thermo Select
FRAMEWORKVERSION	QUANT	6.33	Framework Version
INSTRUMENTVERSION	LABEL	3.50	Instrument Version
COMPLIANCEVOLTAGE	IQUANT	0	Compliance Voltage
ZCURVE	TABLE
	Pt	Time	Freq	Zreal	Zimag	Zsig	Zmod	Zphz	Idc	Vdc	IERange
	#	s	Hz	ohm	ohm	V	ohm	°	A	V	#
	0	9	300046.9	260.2325	-22.85746	1	261.2344	-5.01968	-1.085817E-005	-0.0013192	9
	1	14	238359.4	260.7846	-27.56029	1	262.2369	-6.032751	-2.159136E-005	0.0003368	10
	2	18	189328.1	262.8051	-24.85703	1	263.978	-5.403162	9.856215E-006	0.0010614	9
	3	22	150421.9	264.371	-29.26129	1	265.9854	-6.315943	1.253657E-005	0.0006232	10
	4	26	119484.4	266.5818	-28.36803	1	268.0869	-6.074212	7.554378E-005	-0.002275	9
	5	32	94921.88	268.7884	-31.55912	1	270.6348	-6.696581	2.135053E-005	-0.0001464	9
	6	35	75421.88	271.4525	-35.89709	1	273.8157	-7.533131	-1.546253E-005	0.0008938	9
	7	39	59859.37	274.5406	-41.05792	1	277.5938	-8.505625	2.826278E-005	-0.0005077	9
	8	43	47578.12	278.1717	-46.97231	1	282.1097	-9.5846	2.778167E-005	-0.0006457	9
	9	45	37828.12	282.6324	-54.38726	1	287.8178	-10.89234	1.278748E-005	0.0001509	9
	10	49	30046.88	287.358	-62.5926	1	294.096	-12.28828	2.733831E-005	-0.0005302	9
	11	51	23859.38	292.4682	-72.68373	1	301.3646	-13.95632	-1.514294E-005	0.00097	9
	12	54	18984.38	298.3385	-84.17588	1	309.9862	-15.75635	6.964085E-006	-0.0005701	9
	13	56	15046.87	303.9608	-99.0078	1	319.6791	-18.04174	2.048153E-005	-0.0001213	9
	14	58	11953.13	311.4922	-114.342	1	331.8155	-20.15708	1.46628E-005	-0.0007424	9
	15	61	9515.62	317.9908	-134.6895	1	345.3395	-22.95578	2.611168E-005	-0.0002858	9
	16	63	7546.875	325.7063	-159.3348	1	362.5909	-26.06778	-2.012065E-005	0.0009003	9
	17	65	5928.309	332.2494	-192.569	1	384.0215	-30.09623	2.536396E-005	-0.0007615	9
	18	68	4733.456	339.2481	-229.0408	1	409.3274	-34.02496	2.599305E-005	-0.0007623	9
	19	70	3796.875	347.5862	-275.7432	1	443.6783	-38.42528	1.255031E-006	-0.0021025	8
	20	72	2987.132	356.1284	-338.0893	1	491.0517	-43.51151	9.998294E-006	-0.0036827	8
	21	75	2390.625	366.4702	-412.3338	1	551.6517	-48.37025	-1.148965E-005	0.0036843	8
	22	77	1884.191	380.1913	-509.6578	1	635.8431	-53.27803	-1.077245E-005	0.0027257	8
	23	79	1516.544	395.2974	-621.4926	1	736.5549	-57.54179	9.73461E-006	-0.0006959	8
	24	82	1193.986	420.0175	-773.47	1	880.1537	-61.49671	-1.113437E-005	0.0028995	8
	25	84	946.5144	452.3881	-956.542	1	1058.125	-64.68861	9.687459E-006	-0.0006252	8
	26	87	751.7689	489.4545	-1178.821	1	1276.395	-67.45144	6.612411E-006	0.0009137	8
	27	90	597.4265	544.9094	-1455.911	1	1554.543	-69.48044	1.764529E-006	0.0027664	8
	28	92	477.4305	610.4878	-1782.843	1	1884.469	-71.09758	-1.258343E-007	0.0006622	8
	29	94	376.6741	706.6376	-2205.433	1	2315.874	-72.23414	-1.061055E-007	0.00066	8
	30	97	298.2954	832.6866	-2713.507	1	2838.395	-72.94046	-9.389287E-008	0.0006603	8
	31	99	237.7717	993.415	-3313.295	1	3459.017	-73.30985	-1.077422E-007	0.0006617	8
	32	101	189.0121	1207.641	-4046.824	1	4223.172	-73.384	-9.725581E-008	0.0007029	8
	33	104	150.2404	1497.797	-4940.263	1	5162.324	-73.13367	-6.550976E-008	0.0006248	7
	34	106	119.1737	1873.488	-6019.829	1	6304.625	-72.71284	-6.458566E-008	0.0006824	7
	35	109	95.0169	2366.451	-7272.235	1	7647.581	-71.97464	-5.842788E-008	0.0006356	7
	36	111	75.60484	3031.03	-8768.83	1	9277.905	-70.9318	-5.935824E-008	0.0006217	7
	37	114	54.50582	4373.051	-11363.82	1	12176.21	-68.95216	-6.081283E-008	0.000634	7
	38	116	45.95588	5326.621	-12935.25	1	13989.05	-67.61858	-5.333364E-008	0.0006365	7
	39	119	37.20238	6791.276	-15075.69	1	16534.74	-65.74945	-6.000226E-008	0.0006384	7
	40	121	30.04808	8686.391	-17455.94	1	19497.78	-63.54424	-5.242061E-008	0.0006143	7
	41	123	23.91582	11234.75	-20135.89	1	23058.05	-60.84082	-5.468527E-008	0.0006244	7
	42	126	18.60119	14693.58	-23139.31	1	27410.38	-57.58426	-5.924247E-008	0.0006338	7
	43	128	15.02404	18221.55	-25649.09	1	31462.69	-54.60936	-5.238897E-008	0.0006416	7
	44	130	12.01923	22469.06	-28046.08	1	35936.63	-51.3001	-5.872566E-008	0.0006235	7
	45	133	9.450605	27586.56	-30066.09	1	40804.27	-47.46267	-3.994747E-008	0.0006745	6
	46	135	7.512019	32806.14	-31495.57	1	45477.61	-43.83239	-4.284797E-008	0.0006866	6
	47	138	5.978954	38031.04	-31949.36	1	49670.12	-40.03316	-4.459294E-008	0.0006781	6
	48	143	4.734848	43263.64	-31710.82	1	53640.65	-36.24018	-5.268133E-008	0.0006558	6
	49	148	3.75601	48099.91	-30764.21	1	57096.74	-32.60257	-5.590656E-008	0.0006888	6
	50	153	3.004808	52061.73	-29146.81	1	59665.4	-29.24232	-5.455382E-008	0.0006859	6
	51	160	2.372217	56286.24	-27792.12	1	62773.74	-26.2785	-5.87924E-008	0.0007248	6
	52	164	1.878005	58242.82	-24293.41	1	63106.23	-22.64129	-6.137298E-008	0.0006813	6
	53	173	1.512097	59450.79	-21799.12	1	63321.39	-20.13672	-6.135352E-008	0.0006268	6
	54	183	1.201923	60395.2	-19271.42	1	63395.33	-17.69729	-6.573031E-008	0.0006767	6
	55	196	0.956633	61567.36	-17380.41	1	63973.58	-15.76433	-7.81375E-008	4.2952E-005	6
