EXPLAIN
TAG	EISPOT
TITLE	LABEL	Potentiostatic EIS	Test Identifier
DATE	LABEL	8/23/2020	Date
TIME	LABEL	17:05:18	Time
NOTES	NOTES	1	Notes...
	
PSTAT	PSTAT	REF3000-16137	Potentiostat
VDC	POTEN	0.00000E+000	T	DC Voltage (V)
FREQINIT	QUANT	3.00000E+005	Initial Freq. (Hz)
FREQFINAL	QUANT	1.00000E+000	Final Freq. (Hz)
PTSPERDEC	QUANT	1.00000E+001	Points/decade
VAC	QUANT	5.00000E+001	AC Voltage (mV rms)
AREA	QUANT	1.00000E+000	Sample Area (cm^2)
SPEED	SELECTOR	2	Optimize for:
ZGUESS	QUANT	1.00000E+003	Estimated Z (ohms)
EOC	QUANT	0	Open Circuit (V)
SEQUENCER	TOGGLE	TRUE	Run as Sequence
PSTATMODEL	IQUANT	5	Pstat Model
PSTATSECTION	LABEL	REF3000-16137	Pstat Section
PSTATSERIALNO	LABEL	16137	Pstat Serial Number
CTRLMODE	IQUANT	1	Control Mode
IESTAB	IQUANT	0	I/E Stability
CASPEED	IQUANT	1	Control Amp Speed
CONVENTION	IQUANT	1	Current Convention
ICHRANGE	IQUANT	2	Ich Range
ICHRANGEMODE	TOGGLE	F	Ich Auto Range
ICHOFFSETENABLE	TOGGLE	T	Ich Offset Enable
ICHOFFSET	QUANT	0	Ich Offset (V)
ICHFILTER	IQUANT	3	Ich Filter
VCHRANGE	IQUANT	2	Vch Range
VCHRANGEMODE	TOGGLE	F	Vch Auto Range
VCHOFFSETENABLE	TOGGLE	T	Vch Offset Enable
VCHOFFSET	QUANT	0	Vch Offset (V)
VCHFILTER	IQUANT	3	Vch Filter
ACHRANGE	IQUANT	2	Ach Range
ACHOFFSETENABLE	TOGGLE	F	Ach Offset Enable
ACHOFFSET	QUANT	0	Ach Offset (V)
ACHFILTER	IQUANT	3	Ach Filter
IERANGELOWERLIMIT	IQUANT	2	I/E Range Lower Limit
IERANGEMODE	TOGGLE	F	I/E AutoRange
IERANGE	IQUANT	11	I/E Range
POSFEEDENABLE	TOGGLE	F	Positive Feedback IR Comp
POSFEEDRESISTANCE	QUANT	0	Positive Feedback Resistance (ohm)
ACHSELECT	IQUANT	0	Ach Select
CABLEID	IQUANT	13	Cable ID
DCCALDATE	LABEL	7/31/2020	DC Calibration Date
ACCALDATE	LABEL	7/31/2020	AC Calibration Date
THERMOSELECT	IQUANT	1	Thermo Select
FRAMEWORKVERSION	QUANT	6.33	Framework Version
INSTRUMENTVERSION	LABEL	3.50	Instrument Version
COMPLIANCEVOLTAGE	IQUANT	0	Compliance Voltage
ZCURVE	TABLE
	Pt	Time	Freq	Zreal	Zimag	Zsig	Zmod	Zphz	Idc	Vdc	IERange
	#	s	Hz	ohm	ohm	V	ohm	°	A	V	#
	0	16	300046.9	257.3013	-46.00129	1	261.3811	-10.13646	-7.853244E-005	0.0024157	10
	1	30	238359.4	272.4449	-24.8149	1	273.5727	-5.20427	-5.986912E-005	-0.0116344	9
	2	44	189328.1	264.3214	-42.24357	1	267.6757	-9.080164	-0.0001156	0.0025205	10
	3	51	150421.9	269.4701	-28.35954	1	270.9583	-6.0078	0.0006318	-0.0254082	9
	4	59	119484.4	272.324	-31.91224	1	274.1875	-6.683712	0.0006326	-0.0254232	9
	5	66	94921.88	273.9828	-33.80828	1	276.0609	-7.034488	-2.600858E-005	0.0070214	9
	6	74	75421.88	276.8257	-38.72594	1	279.5214	-7.96359	6.33727E-005	0.0043893	9
	7	79	59859.37	280.0633	-48.31352	1	284.2	-9.78772	0.0003065	0.0001599	10
	8	84	47578.12	284.8863	-49.2697	1	289.1154	-9.81197	-0.0002593	0.0069899	9
	9	88	37828.12	289.1237	-56.81103	1	294.6524	-11.11664	0.0001519	0.0010905	9
	10	95	30046.88	294.8664	-65.16518	1	301.9812	-12.462	-0.0001774	0.0098958	9
	11	103	23859.38	301.2573	-76.80683	1	310.8943	-14.30309	0.0001261	0.0014505	10
	12	108	18984.38	306.1386	-86.8029	1	318.2069	-15.83022	0.0002249	-0.0097133	9
	13	113	15046.87	313.669	-99.8075	1	329.1653	-17.65074	-0.0002594	0.0070986	9
	14	118	11953.13	320.2057	-117.6437	1	341.133	-20.17335	0.0001593	-0.0006595	10
	15	123	9515.62	328.4413	-136.5198	1	355.6844	-22.57069	0.0001228	0.0013718	10
	16	129	7546.875	336.5416	-158.9825	1	372.2038	-25.28609	6.510953E-005	0.0044291	9
	17	134	5928.309	344.61	-190.9798	1	393.9916	-28.99483	-7.135131E-005	-0.0038617	9
	18	140	4733.456	352.7302	-226.5995	1	419.2445	-32.71733	-0.0001082	0.0090251	9
	19	145	3796.875	360.5281	-271.3351	1	451.2242	-36.96528	0.0002283	-0.0097924	9
	20	150	2987.132	371.8603	-328.9284	1	496.4615	-41.49432	0.000226	-0.0097134	9
	21	156	2390.625	359.7872	-391.2822	1	531.553	-47.40121	-0.0002297	0.0096889	9
	22	161	1884.191	398.5197	-497.0303	1	637.0692	-51.2773	-0.0001774	0.0098395	9
	23	166	1516.544	416.1989	-608.4084	1	737.1447	-55.62482	0.0002585	-0.0089106	9
	24	172	1193.986	426.7094	-759.7746	1	871.4003	-60.68029	0.0002173	-0.0022694	9
	25	179	946.5144	488.4189	-944.0424	1	1062.906	-62.64433	0.0002673	-0.0091593	9
	26	184	751.7689	462.3066	-1102.912	1	1195.885	-67.25808	1.190878E-005	-0.0065338	9
	27	189	597.4265	570.387	-1404.369	1	1515.782	-67.89539	-4.476737E-005	-0.0054232	8
	28	191	477.4305	634.7667	-1721.03	1	1834.359	-69.75454	-5.519285E-007	0.0006206	8
	29	193	376.6741	736.5926	-2131.836	1	2255.503	-70.93893	-5.847129E-007	0.0006319	8
	30	196	298.2954	859.7466	-2606.309	1	2744.451	-71.74376	-4.536123E-007	0.0006242	8
	31	198	237.7717	1031.359	-3187.233	1	3349.948	-72.0689	-4.968288E-007	0.0005924	8
	32	201	189.0121	1255.437	-3888.188	1	4085.844	-72.10551	-5.701612E-007	0.0006719	8
	33	203	150.2404	1582.697	-4757.722	1	5014.064	-71.59985	-1.72935E-007	0.0006952	7
	34	205	119.1737	2017.082	-5812.249	1	6152.305	-70.86119	-1.818459E-007	0.0006992	7
	35	208	95.0169	2512.928	-6956.453	1	7396.421	-70.1384	-1.621248E-007	0.0006345	7
	36	210	75.60484	3219.72	-8355.361	1	8954.254	-68.92594	-1.767454E-007	0.0006673	7
	37	213	54.50582	4660.93	-10745.29	1	11712.62	-66.55048	-1.57625E-007	0.0006291	7
	38	215	45.95588	5602.998	-12073.47	1	13310.23	-65.10516	-1.478871E-007	0.0006085	7
	39	218	37.20238	7174.689	-14048.61	1	15774.65	-62.94639	-1.708931E-007	0.0006643	7
	40	220	30.04808	9009.679	-15885.71	1	18262.81	-60.44	-1.536376E-007	0.0005807	7
	41	223	23.91582	11638.94	-18214.92	1	21615.92	-57.42231	-1.810275E-007	0.0006777	7
	42	225	18.60119	14901.29	-20478.84	1	25326.49	-53.95875	-1.462796E-007	0.0005501	7
	43	228	15.02404	18165.65	-22133.14	1	28633.32	-50.62276	-1.528509E-007	0.0007223	7
	44	230	12.01923	22132.57	-23915.47	1	32585.28	-47.21729	-1.671005E-007	0.0006646	7
	45	233	9.450605	26290.48	-24967.45	1	36256.9	-43.52145	-1.522736E-007	0.0005482	7
	46	235	7.512019	30825.98	-25758.56	1	40171.44	-39.88253	-1.758225E-007	0.0006915	7
	47	238	5.978954	35255.78	-25583.4	1	43560.08	-35.96656	-1.077291E-007	0.0006193	6
	48	242	4.734848	39316.98	-24977.39	1	46579.99	-32.42709	-1.103715E-007	0.0007455	6
	49	246	3.75601	42935.37	-23751.17	1	49066.93	-28.95068	-1.104606E-007	0.0006295	6
	50	252	3.004808	45754.45	-22139.14	1	50829.24	-25.82088	-1.156713E-007	0.0006452	6
	51	258	2.372217	48170.49	-20223.4	1	52243.49	-22.77411	-1.152053E-007	0.0007362	6
	52	266	1.878005	49422.32	-17757.13	1	52515.53	-19.76305	-1.225592E-007	0.0006505	6
	53	275	1.512097	50380.25	-16058.07	1	52877.52	-17.67903	-1.255943E-007	0.0007715	6
	54	285	1.201923	50934.92	-14304.89	1	52905.54	-15.68721	-1.258644E-007	0.000653	6
	55	298	0.956633	51740.63	-12799.41	1	53300.26	-13.89468	-1.52416E-007	4.387281E-005	6
