EXPLAIN
TAG	EISPOT
TITLE	LABEL	Potentiostatic EIS	Test Identifier
DATE	LABEL	8/23/2020	Date
TIME	LABEL	18:16:13	Time
NOTES	NOTES	1	Notes...
	
PSTAT	PSTAT	REF3000-16137	Potentiostat
VDC	POTEN	0.00000E+000	T	DC Voltage (V)
FREQINIT	QUANT	3.00000E+005	Initial Freq. (Hz)
FREQFINAL	QUANT	1.00000E+000	Final Freq. (Hz)
PTSPERDEC	QUANT	1.00000E+001	Points/decade
VAC	QUANT	5.00000E+001	AC Voltage (mV rms)
AREA	QUANT	1.00000E+000	Sample Area (cm^2)
SPEED	SELECTOR	2	Optimize for:
ZGUESS	QUANT	1.00000E+003	Estimated Z (ohms)
EOC	QUANT	0	Open Circuit (V)
SEQUENCER	TOGGLE	TRUE	Run as Sequence
PSTATMODEL	IQUANT	5	Pstat Model
PSTATSECTION	LABEL	REF3000-16137	Pstat Section
PSTATSERIALNO	LABEL	16137	Pstat Serial Number
CTRLMODE	IQUANT	1	Control Mode
IESTAB	IQUANT	0	I/E Stability
CASPEED	IQUANT	1	Control Amp Speed
CONVENTION	IQUANT	1	Current Convention
ICHRANGE	IQUANT	2	Ich Range
ICHRANGEMODE	TOGGLE	F	Ich Auto Range
ICHOFFSETENABLE	TOGGLE	T	Ich Offset Enable
ICHOFFSET	QUANT	0	Ich Offset (V)
ICHFILTER	IQUANT	3	Ich Filter
VCHRANGE	IQUANT	2	Vch Range
VCHRANGEMODE	TOGGLE	F	Vch Auto Range
VCHOFFSETENABLE	TOGGLE	T	Vch Offset Enable
VCHOFFSET	QUANT	0	Vch Offset (V)
VCHFILTER	IQUANT	3	Vch Filter
ACHRANGE	IQUANT	2	Ach Range
ACHOFFSETENABLE	TOGGLE	F	Ach Offset Enable
ACHOFFSET	QUANT	0	Ach Offset (V)
ACHFILTER	IQUANT	3	Ach Filter
IERANGELOWERLIMIT	IQUANT	2	I/E Range Lower Limit
IERANGEMODE	TOGGLE	F	I/E AutoRange
IERANGE	IQUANT	11	I/E Range
POSFEEDENABLE	TOGGLE	F	Positive Feedback IR Comp
POSFEEDRESISTANCE	QUANT	0	Positive Feedback Resistance (ohm)
ACHSELECT	IQUANT	0	Ach Select
CABLEID	IQUANT	13	Cable ID
DCCALDATE	LABEL	7/31/2020	DC Calibration Date
ACCALDATE	LABEL	7/31/2020	AC Calibration Date
THERMOSELECT	IQUANT	1	Thermo Select
FRAMEWORKVERSION	QUANT	6.33	Framework Version
INSTRUMENTVERSION	LABEL	3.50	Instrument Version
COMPLIANCEVOLTAGE	IQUANT	0	Compliance Voltage
ZCURVE	TABLE
	Pt	Time	Freq	Zreal	Zimag	Zsig	Zmod	Zphz	Idc	Vdc	IERange
	#	s	Hz	ohm	ohm	V	ohm	°	A	V	#
	0	9	300046.9	261.2956	-23.21696	1	262.325	-5.077582	1.986406E-005	-0.0018552	9
	1	14	238359.4	261.5023	-24.21395	1	262.6209	-5.29025	-7.791547E-005	0.0027775	9
	2	19	189328.1	263.5542	-28.16944	1	265.0553	-6.10078	8.570663E-005	0.0004053	10
	3	24	150421.9	266.0367	-25.47119	1	267.2533	-5.469007	7.680052E-005	-0.0022657	9
	4	28	119484.4	267.4548	-28.22863	1	268.9403	-6.025002	-1.316727E-005	0.0013996	9
	5	32	94921.88	269.3983	-32.00516	1	271.2927	-6.775121	-1.038151E-005	3.498192E-005	9
	6	35	75421.88	272.1533	-35.94555	1	274.5168	-7.523983	-2.533389E-006	-0.0003269	9
	7	38	59859.37	275.4388	-41.10143	1	278.4885	-8.487146	2.526248E-005	-0.0002571	9
	8	42	47578.12	279.2825	-47.01636	1	283.2124	-9.55597	9.851068E-006	0.0002896	9
	9	45	37828.12	283.726	-54.52515	1	288.9177	-10.87822	2.298168E-005	-0.0002769	9
	10	47	30046.88	288.3279	-63.1483	1	295.1621	-12.35361	2.502568E-005	-0.0001547	9
	11	50	23859.38	293.5326	-72.38389	1	302.3257	-13.85252	1.345872E-005	0.0002278	9
	12	52	18984.38	299.5016	-83.85599	1	311.0193	-15.64146	1.345082E-005	-0.0006937	9
	13	54	15046.87	305.2311	-98.3568	1	320.6869	-17.86087	-2.96114E-006	-0.0003096	9
	14	57	11953.13	312.8096	-114.51	1	333.1102	-20.10613	2.757936E-005	-0.000543	9
	15	59	9515.62	319.4842	-134.8022	1	346.759	-22.87669	-8.232106E-006	0.0007176	9
	16	62	7546.875	325.6958	-159.9754	1	362.8634	-26.15938	-2.007674E-005	0.0004134	9
	17	64	5928.309	333.657	-191.6696	1	384.7912	-29.87525	1.494865E-005	-0.0007326	9
	18	66	4733.456	340.3738	-228.3148	1	409.8561	-33.85278	7.641634E-006	-0.0035507	8
	19	69	3796.875	348.2504	-274.4048	1	443.3693	-38.23643	1.211112E-005	-0.0020657	8
	20	71	2987.132	357.1942	-336.5412	1	490.7623	-43.29477	-6.655814E-006	0.0004733	8
	21	73	2390.625	367.8052	-409.6761	1	550.559	-48.08266	-6.825903E-006	0.0005855	8
	22	76	1884.191	379.9388	-510.6408	1	636.4805	-53.34916	1.226898E-005	-0.002157	8
	23	78	1516.544	395.9207	-618.3956	1	734.2795	-57.37107	-6.925302E-006	0.0005338	8
	24	80	1193.986	418.6015	-770.6024	1	876.9579	-61.4886	-6.015866E-006	0.0046988	8
	25	83	946.5144	452.9563	-950.062	1	1052.515	-64.50983	7.743806E-006	-0.0036007	8
	26	85	751.7689	489.0682	-1178.531	1	1275.98	-67.46248	-9.43028E-006	0.0018765	8
	27	88	597.4265	542.3406	-1449.34	1	1547.488	-69.48423	1.019698E-005	-0.003719	8
	28	91	477.4305	610.4056	-1773.967	1	1876.047	-71.01213	-1.319363E-007	0.0006947	8
	29	93	376.6741	705.8452	-2194.217	1	2304.952	-72.16783	-9.321587E-008	0.0006466	8
	30	95	298.2954	829.8935	-2700.381	1	2825.027	-72.91652	-1.165126E-007	0.0006548	8
	31	98	237.7717	990.241	-3297.257	1	3442.743	-73.28379	-1.173011E-007	0.0006633	8
	32	100	189.0121	1203.308	-4027.49	1	4203.407	-73.36524	-1.130621E-007	0.0006604	8
	33	102	150.2404	1489.671	-4917.432	1	5138.118	-73.14651	-6.535802E-008	0.0006271	7
	34	105	119.1737	1865.821	-5986.709	1	6270.724	-72.6898	-6.499191E-008	0.0006382	7
	35	107	95.0169	2354.831	-7239.465	1	7612.823	-71.98149	-6.231306E-008	0.000627	7
	36	110	75.60484	3008.188	-8733.693	1	9237.239	-70.99451	-5.92379E-008	0.0006243	7
	37	112	54.50582	4351.061	-11310.59	1	12118.63	-68.95882	-6.200037E-008	0.0006188	7
	38	115	45.95588	5293.406	-12886.44	1	13931.28	-67.66845	-5.454386E-008	0.0006377	7
	39	117	37.20238	6750.703	-15025.66	1	16472.48	-65.80666	-5.852563E-008	0.0006244	7
	40	120	30.04808	8624.591	-17364.38	1	19388.27	-63.58719	-6.120739E-008	0.0006429	7
	41	122	23.91582	11150.07	-20056.37	1	22947.38	-60.92871	-6.147614E-008	0.0006311	7
	42	124	18.60119	14612.72	-23105.94	1	27338.91	-57.6898	-4.75311E-008	0.0006406	7
	43	127	15.02404	18149.71	-25576.9	1	31362.24	-54.63999	-6.412807E-008	0.0006499	7
	44	129	12.01923	22385.73	-27934.65	1	35797.56	-51.29268	-5.600679E-008	0.0006442	7
	45	131	9.450605	27455.62	-30191.1	1	40808.25	-47.71679	-5.885781E-008	0.0006486	7
	46	134	7.512019	32666.53	-31504.65	1	45383.32	-43.96272	-5.125366E-008	0.0007113	6
	47	137	5.978954	37964.45	-31991.79	1	49646.49	-40.12008	-5.26307E-008	0.0006967	6
	48	141	4.734848	43177.24	-31694.19	1	53561.14	-36.28048	-4.901516E-008	0.0007152	6
	49	146	3.75601	47998.75	-30743.54	1	57000.4	-32.63985	-5.037497E-008	0.0007131	6
	50	152	3.004808	52050.43	-29160.64	1	59662.3	-29.25921	-5.47082E-008	0.0006918	6
	51	158	2.372217	55516.32	-26900.05	1	61690.15	-25.85219	-5.60735E-008	0.0006568	6
	52	166	1.878005	57607.74	-23703.53	1	62293.73	-22.36542	-5.683452E-008	0.0006791	6
	53	175	1.512097	59167.62	-21528.1	1	62962.42	-19.99388	-5.953817E-008	0.0007041	6
	54	185	1.201923	60334.31	-19189.75	1	63312.52	-17.64363	-6.40645E-008	0.0006957	6
	55	198	0.956633	61875.15	-17301.81	1	64248.63	-15.62229	-8.59188E-008	4.30131E-005	6
