EXPLAIN
TAG	EISPOT
TITLE	LABEL	Potentiostatic EIS	Test Identifier
DATE	LABEL	8/23/2020	Date
TIME	LABEL	16:22:43	Time
NOTES	NOTES	1	Notes...
	
PSTAT	PSTAT	REF3000-16137	Potentiostat
VDC	POTEN	0.00000E+000	T	DC Voltage (V)
FREQINIT	QUANT	3.00000E+005	Initial Freq. (Hz)
FREQFINAL	QUANT	1.00000E+000	Final Freq. (Hz)
PTSPERDEC	QUANT	1.00000E+001	Points/decade
VAC	QUANT	5.00000E+001	AC Voltage (mV rms)
AREA	QUANT	1.00000E+000	Sample Area (cm^2)
SPEED	SELECTOR	2	Optimize for:
ZGUESS	QUANT	1.00000E+003	Estimated Z (ohms)
EOC	QUANT	0	Open Circuit (V)
SEQUENCER	TOGGLE	TRUE	Run as Sequence
PSTATMODEL	IQUANT	5	Pstat Model
PSTATSECTION	LABEL	REF3000-16137	Pstat Section
PSTATSERIALNO	LABEL	16137	Pstat Serial Number
CTRLMODE	IQUANT	1	Control Mode
IESTAB	IQUANT	0	I/E Stability
CASPEED	IQUANT	1	Control Amp Speed
CONVENTION	IQUANT	1	Current Convention
ICHRANGE	IQUANT	2	Ich Range
ICHRANGEMODE	TOGGLE	F	Ich Auto Range
ICHOFFSETENABLE	TOGGLE	T	Ich Offset Enable
ICHOFFSET	QUANT	0	Ich Offset (V)
ICHFILTER	IQUANT	3	Ich Filter
VCHRANGE	IQUANT	2	Vch Range
VCHRANGEMODE	TOGGLE	F	Vch Auto Range
VCHOFFSETENABLE	TOGGLE	T	Vch Offset Enable
VCHOFFSET	QUANT	0	Vch Offset (V)
VCHFILTER	IQUANT	3	Vch Filter
ACHRANGE	IQUANT	2	Ach Range
ACHOFFSETENABLE	TOGGLE	F	Ach Offset Enable
ACHOFFSET	QUANT	0	Ach Offset (V)
ACHFILTER	IQUANT	3	Ach Filter
IERANGELOWERLIMIT	IQUANT	2	I/E Range Lower Limit
IERANGEMODE	TOGGLE	F	I/E AutoRange
IERANGE	IQUANT	11	I/E Range
POSFEEDENABLE	TOGGLE	F	Positive Feedback IR Comp
POSFEEDRESISTANCE	QUANT	0	Positive Feedback Resistance (ohm)
ACHSELECT	IQUANT	0	Ach Select
CABLEID	IQUANT	13	Cable ID
DCCALDATE	LABEL	7/31/2020	DC Calibration Date
ACCALDATE	LABEL	7/31/2020	AC Calibration Date
THERMOSELECT	IQUANT	1	Thermo Select
FRAMEWORKVERSION	QUANT	6.33	Framework Version
INSTRUMENTVERSION	LABEL	3.50	Instrument Version
COMPLIANCEVOLTAGE	IQUANT	0	Compliance Voltage
ZCURVE	TABLE
	Pt	Time	Freq	Zreal	Zimag	Zsig	Zmod	Zphz	Idc	Vdc	IERange
	#	s	Hz	ohm	ohm	V	ohm	°	A	V	#
	0	15	300046.9	362.4006	-2629.442	1	2654.298	-82.15269	0.0007856	-0.0152395	9
	1	30	238359.4	219.6002	-2956.952	1	2965.095	-85.75269	0.00071	-0.0148505	9
	2	46	189328.1	375.4378	-4099.083	1	4116.24	-84.76684	0.0006026	-0.0314641	9
	3	55	150421.9	19.52427	-4724.97	1	4725.01	-89.76324	-0.0008663	0.0035809	10
	4	67	119484.4	13.02313	-6230.333	1	6230.346	-89.88023	0.000792	-0.0232795	9
	5	77	94921.88	142.5016	-7645.472	1	7646.8	-88.93221	0.0002164	-0.0111848	9
	6	86	75421.88	412.6775	-10178.39	1	10186.75	-87.67825	0.0001362	-0.0101962	9
	7	96	59859.37	2151.43	-12533.3	1	12716.61	-80.2597	0.0001616	-0.0433895	8
	8	104	47578.12	129.4939	-15093.04	1	15093.59	-89.50843	0.0002126	-0.0110459	9
	9	114	37828.12	4570.349	-21471.44	1	21952.47	-77.98353	-2.874726E-005	0.0567254	8
	10	124	30046.88	2408.567	-24280.17	1	24399.34	-84.33485	0.0001278	-0.0591214	8
	11	131	23859.38	-3068.245	-31325.39	1	31475.29	-95.5941	0.0001462	0.0024474	9
	12	139	18984.38	5038.553	-38447.25	1	38776	-82.53387	0.0002116	-0.011132	9
	13	148	15046.87	5353.24	-40385.17	1	40738.43	-82.4492	0.0003071	-0.007799	9
	14	155	11953.13	-13103.96	-63687.18	1	65021.31	-101.6266	0.0001437	0.0024671	9
	15	164	9515.62	5330.697	-73701.85	1	73894.38	-85.86312	2.071843E-005	0.0462931	8
	16	171	7546.875	6026.682	-80130.28	1	80356.6	-85.69882	0.0000989	0.0154301	8
	17	178	5928.309	-20474.04	-48322.36	1	52480.83	-112.9622	-0.0002682	0.0047103	9
	18	188	4733.456	40338.71	-128472	1	134656.1	-72.56832	0.0003012	-0.0097526	9
	19	197	3796.875	124307.4	-59710.58	1	137904.6	-25.65713	0.0003003	-0.0098736	9
	20	207	2987.132	199198.9	-77759.94	1	213838.3	-21.32385	-0.0002903	0.0072564	9
	21	217	2390.625	12946.01	113645.3	1	114380.3	83.50111	-0.0002931	0.0094726	9
	22	228	1884.191	-62685.15	331402.4	1	337278.8	100.711	0.000288	-0.0052882	9
	23	237	1516.544	145069.9	5185.766	1	145162.5	2.047262	-0.0002699	0.0109078	9
	24	245	1193.986	-138529.7	58911.84	1	150536	156.9617	4.37625E-005	-0.0082585	9
	25	254	946.5144	-78048.38	-37108.08	1	86420.82	-154.5713	6.175941E-005	0.0334182	8
	26	259	751.7689	-28056.81	52927.4	1	59904.04	117.9281	0.0002872	-0.0052578	9
	27	266	597.4265	244149.2	75816.95	1	255650.3	17.25141	2.612388E-005	-0.0051264	8
	28	272	477.4305	135666.5	-2778887	1	2782197	-87.20501	-4.406444E-007	0.000646	8
	29	278	376.6741	99487.4	-3559384	1	3560774	-88.39896	-9.804748E-009	0.0007042	6
	30	283	298.2954	522656.8	-4546466	1	4576409	-83.44212	-9.655272E-010	0.0006251	5
	31	287	237.7717	508940.1	-5807602	1	5829859	-84.99177	-9.652531E-010	0.0005998	5
	32	290	189.0121	592782.4	-7103820	1	7128510	-85.22997	-1.035297E-009	0.0006941	5
	33	292	150.2404	826340.3	-8954932	1	8992978	-84.72781	-1.062072E-009	0.0007027	5
	34	295	119.1737	3619073	-9.524189E+006	1	1.018862E+007	-69.19383	-1.049668E-009	0.0006608	5
	35	298	95.0169	356571.4	-1.406657E+007	1	1.407109E+007	-88.54793	-1.064368E-009	0.0007062	5
	36	301	75.60484	1164557	-1.812406E+007	1	1.816144E+007	-86.32353	-9.940313E-010	0.0007036	5
	37	304	54.50582	1401284	-2.421012E+007	1	2.425064E+007	-86.68741	-1.009838E-009	0.000619	5
	38	307	45.95588	445472	-2.963994E+007	1	2.964329E+007	-89.13894	-9.683083E-010	0.0006203	5
	39	311	37.20238	4073055	-3.672594E+007	1	3.695111E+007	-83.67153	-1.130562E-009	0.000695	5
	40	315	30.04808	4832209	-4.347855E+007	1	4.374625E+007	-83.65817	-1.071386E-010	0.0007411	4
	41	319	23.91582	1.040226E+007	-5.744011E+007	1	5.837442E+007	-79.73512	-1.529297E-010	0.0006966	4
	42	322	18.60119	1.698397E+007	-6.335564E+007	1	6.559262E+007	-74.99335	-1.71815E-010	0.0006135	4
	43	326	15.02404	7602430	-8.58485E+007	1	8.618447E+007	-84.93929	-1.053866E-010	0.0006208	4
	44	330	12.01923	5882752	-1.073044E+008	1	1.074655E+008	-86.86201	-9.619374E-011	0.0006174	4
	45	333	9.450605	1.222865E+007	-1.386385E+008	1	1.391768E+008	-84.95926	-1.016528E-010	0.000712	4
	46	337	7.512019	1.075809E+007	-1.68667E+008	1	1.690097E+008	-86.35044	-1.097877E-010	0.0006809	4
	47	342	5.978954	2.778415E+007	-2.293254E+008	1	2.310024E+008	-83.09194	-9.473682E-011	0.0007153	4
	48	347	4.734848	5.204358E+007	-2.83451E+008	1	2.881892E+008	-79.59598	-2.045692E-011	0.0008091	3
	49	352	3.75601	1.009969E+007	-3.34514E+008	1	3.346664E+008	-88.27065	-1.048885E-009	0.0007144	5
	50	360	3.004808	1.754154E+007	-4.479796E+008	1	4.483229E+008	-87.75761	-1.019449E-009	0.0006649	5
	51	370	2.372217	8.159743E+007	-5.380194E+008	1	5.441718E+008	-81.37609	-2.05101E-011	0.0006596	3
	52	375	1.878005	9.801345E+007	-6.710988E+008	1	6.782184E+008	-81.69074	-2.026673E-011	0.0007302	3
	53	384	1.512097	1.212821E+008	-8.229211E+008	1	8.318104E+008	-81.6161	-2.021119E-011	0.0007277	3
	54	391	1.201923	1.554141E+008	-1.029645E+009	1	1.041308E+009	-81.4166	-2.012578E-011	0.0007563	3
	55	403	0.956633	2.113258E+008	-1.274327E+009	1	1.291731E+009	-80.58414	-2.006824E-011	8.855581E-005	3
