EXPLAIN
TAG	EISPOT
TITLE	LABEL	Potentiostatic EIS	Test Identifier
DATE	LABEL	8/23/2020	Date
TIME	LABEL	14:11:49	Time
NOTES	NOTES	1	Notes...
	
PSTAT	PSTAT	REF3000-16137	Potentiostat
VDC	POTEN	0.00000E+000	T	DC Voltage (V)
FREQINIT	QUANT	3.00000E+005	Initial Freq. (Hz)
FREQFINAL	QUANT	1.00000E+000	Final Freq. (Hz)
PTSPERDEC	QUANT	1.00000E+001	Points/decade
VAC	QUANT	5.00000E+001	AC Voltage (mV rms)
AREA	QUANT	1.00000E+000	Sample Area (cm^2)
SPEED	SELECTOR	2	Optimize for:
ZGUESS	QUANT	1.00000E+003	Estimated Z (ohms)
EOC	QUANT	0	Open Circuit (V)
SEQUENCER	TOGGLE	TRUE	Run as Sequence
PSTATMODEL	IQUANT	5	Pstat Model
PSTATSECTION	LABEL	REF3000-16137	Pstat Section
PSTATSERIALNO	LABEL	16137	Pstat Serial Number
CTRLMODE	IQUANT	1	Control Mode
IESTAB	IQUANT	0	I/E Stability
CASPEED	IQUANT	1	Control Amp Speed
CONVENTION	IQUANT	1	Current Convention
ICHRANGE	IQUANT	2	Ich Range
ICHRANGEMODE	TOGGLE	F	Ich Auto Range
ICHOFFSETENABLE	TOGGLE	T	Ich Offset Enable
ICHOFFSET	QUANT	0	Ich Offset (V)
ICHFILTER	IQUANT	3	Ich Filter
VCHRANGE	IQUANT	2	Vch Range
VCHRANGEMODE	TOGGLE	F	Vch Auto Range
VCHOFFSETENABLE	TOGGLE	T	Vch Offset Enable
VCHOFFSET	QUANT	0	Vch Offset (V)
VCHFILTER	IQUANT	3	Vch Filter
ACHRANGE	IQUANT	2	Ach Range
ACHOFFSETENABLE	TOGGLE	F	Ach Offset Enable
ACHOFFSET	QUANT	0	Ach Offset (V)
ACHFILTER	IQUANT	3	Ach Filter
IERANGELOWERLIMIT	IQUANT	2	I/E Range Lower Limit
IERANGEMODE	TOGGLE	F	I/E AutoRange
IERANGE	IQUANT	11	I/E Range
POSFEEDENABLE	TOGGLE	F	Positive Feedback IR Comp
POSFEEDRESISTANCE	QUANT	0	Positive Feedback Resistance (ohm)
ACHSELECT	IQUANT	0	Ach Select
CABLEID	IQUANT	13	Cable ID
DCCALDATE	LABEL	7/31/2020	DC Calibration Date
ACCALDATE	LABEL	7/31/2020	AC Calibration Date
THERMOSELECT	IQUANT	1	Thermo Select
FRAMEWORKVERSION	QUANT	6.33	Framework Version
INSTRUMENTVERSION	LABEL	3.50	Instrument Version
COMPLIANCEVOLTAGE	IQUANT	0	Compliance Voltage
ZCURVE	TABLE
	Pt	Time	Freq	Zreal	Zimag	Zsig	Zmod	Zphz	Idc	Vdc	IERange
	#	s	Hz	ohm	ohm	V	ohm	°	A	V	#
	0	15	300046.9	283.7539	-54.52756	1	288.9456	-10.87764	-0.0007361	0.000643	10
	1	29	238359.4	282.5606	-47.7362	1	286.5645	-9.58909	0.0004136	0.0020569	10
	2	43	189328.1	295.6478	-32.2878	1	297.4057	-6.232592	-0.0006764	0.0137259	9
	3	50	150421.9	296.6172	-34.55785	1	298.6235	-6.645374	0.0007316	-0.0229157	9
	4	58	119484.4	300.17	-46.39073	1	303.7337	-8.785452	0.0001769	0.0026512	10
	5	65	94921.88	305.767	-38.64944	1	308.2	-7.204074	-0.0002636	0.0052417	9
	6	73	75421.88	308.7543	-43.47843	1	311.8005	-8.015622	1.861743E-005	-0.006905	9
	7	80	59859.37	312.7876	-48.13068	1	316.4691	-8.747863	0.000179	-0.0100589	9
	8	88	47578.12	318.0832	-54.86375	1	322.7801	-9.78622	1.8657E-005	-0.0069613	9
	9	92	37828.12	323.0406	-61.88458	1	328.9148	-10.84471	-0.0002593	0.0052577	9
	10	100	30046.88	328.7862	-72.30058	1	336.6418	-12.40203	-2.937117E-005	0.0075101	9
	11	105	23859.38	332.0528	-86.80929	1	343.2126	-14.65105	-0.0002929	0.0017835	10
	12	110	18984.38	341.6169	-97.3181	1	355.2083	-15.90092	6.592399E-005	-0.0006197	10
	13	116	15046.87	349.787	-109.9976	1	366.6748	-17.45682	-0.0002677	0.0071677	9
	14	121	11953.13	355.5348	-131.6067	1	379.1112	-20.31281	1.852081E-005	0.0017629	10
	15	126	9515.62	364.5643	-153.5117	1	395.5666	-22.83511	0.0001066	-0.0089733	9
	16	132	7546.875	373.1337	-181.8015	1	415.0669	-25.97668	0.0002721	-0.0092568	9
	17	137	5928.309	382.4662	-218.9047	1	440.6809	-29.78469	0.0002375	-0.0100864	9
	18	142	4733.456	392.0091	-265.441	1	473.4238	-34.1031	2.191048E-005	-0.0069983	9
	19	148	3796.875	405.6308	-316.3865	1	514.4286	-37.95375	-1.469634E-005	0.02903	8
	20	152	2987.132	414.0008	-389.1838	1	568.2083	-43.23023	-0.0000973	0.0326657	8
	21	156	2390.625	417.3082	-479.7078	1	635.8189	-48.97928	-0.0002171	0.0024559	9
	22	161	1884.191	436.5181	-589.5551	1	733.5688	-53.48303	0.0001515	0.0014035	9
	23	167	1516.544	451.7916	-721.4897	1	851.2714	-57.9455	6.240945E-005	0.0047587	9
	24	173	1193.986	487.0651	-898.4884	1	1022.015	-61.53815	-1.987511E-005	-0.0173491	8
	25	178	946.5144	521.5922	-1101.321	1	1218.592	-64.65748	-9.263585E-005	0.0181733	8
	26	180	751.7689	511.9551	-1366.81	1	1459.544	-69.46596	-6.651757E-005	-0.0040967	9
	27	185	597.4265	637.7075	-1700.672	1	1816.303	-69.44527	1.12629E-005	-0.0270736	8
	28	188	477.4305	687.1738	-2090.808	1	2200.838	-71.80616	-5.562951E-007	0.0007211	8
	29	190	376.6741	790.2952	-2594.571	1	2712.262	-73.05949	-5.543333E-007	0.0005847	8
	30	193	298.2954	927.908	-3218.158	1	3349.262	-73.91587	-5.930759E-007	0.0006273	8
	31	195	237.7717	1096.644	-3914.728	1	4065.43	-74.3507	-4.635908E-007	0.0005909	8
	32	197	189.0121	1374.177	-4883.914	1	5073.557	-74.2851	-1.444879E-007	0.0005589	7
	33	200	150.2404	1673.087	-5968.786	1	6198.841	-74.34149	-1.359819E-007	0.0006216	7
	34	202	119.1737	2047.982	-7210.535	1	7495.735	-74.14405	-1.225341E-007	0.0005595	7
	35	205	95.0169	2565.07	-8872.476	1	9235.822	-73.8752	-1.402947E-007	0.0005435	7
	36	207	75.60484	3206.447	-10680.62	1	11151.54	-73.28962	-1.186275E-007	0.0007062	7
	37	210	54.50582	4597.684	-14140.45	1	14869.13	-71.98837	-1.467272E-007	0.0006853	7
	38	212	45.95588	5534.119	-16167.15	1	17088.1	-71.10359	-1.26359E-007	0.0007033	7
	39	215	37.20238	7018.042	-19012.32	1	20266.26	-69.73933	-1.100989E-007	0.0006626	7
	40	217	30.04808	9155.707	-22635.02	1	24416.61	-67.97701	-1.323207E-007	0.0006681	7
	41	220	23.91582	11669.33	-26468.98	1	28927.16	-66.20885	-1.191603E-007	0.0007051	7
	42	222	18.60119	15705.24	-31775.92	1	35445.22	-63.69912	-1.284938E-007	0.0005964	7
	43	225	15.02404	19627.04	-36001.16	1	41003.7	-61.40176	-1.112325E-007	0.0006838	7
	44	227	12.01923	25276.19	-41350.37	1	48463.8	-58.56386	-4.096223E-008	0.0006043	6
	45	230	9.450605	31908	-46612.93	1	56487.93	-55.60714	-4.171108E-008	0.0007392	6
	46	232	7.512019	39339.02	-51767.5	1	65018.71	-52.76817	-4.224551E-008	0.0007607	6
	47	235	5.978954	47305.9	-56377.75	1	73595.51	-50.00039	-3.661394E-008	0.0007487	6
	48	239	4.734848	56487.43	-61069.5	1	83188.43	-47.23211	-3.81795E-008	0.0005685	6
	49	243	3.75601	66076.34	-65352.66	1	92935.74	-44.68452	-3.881849E-008	0.0006499	6
	50	249	3.004808	75956.91	-69422.84	1	102902.8	-42.42658	-3.862458E-008	0.0007596	6
	51	255	2.372217	86840.6	-73566.23	1	113812.5	-40.2693	-3.990825E-008	0.0006989	6
	52	259	1.878005	98280.5	-77415.14	1	125108.6	-38.22737	-4.103276E-008	0.0006702	6
	53	264	1.512097	109260.7	-81067.2	1	136050.7	-36.57399	-4.013627E-008	0.0005919	6
	54	269	1.201923	121331.6	-84682.7	1	147961.2	-34.9129	-4.047955E-008	0.0006846	6
	55	275	0.956633	134141.1	-88050.11	1	160457.6	-33.28087	-4.294611E-008	3.557255E-005	6
