EXPLAIN
TAG	EISPOT
TITLE	LABEL	Potentiostatic EIS	Test Identifier
DATE	LABEL	8/23/2020	Date
TIME	LABEL	18:05:37	Time
NOTES	NOTES	1	Notes...
	
PSTAT	PSTAT	REF3000-16137	Potentiostat
VDC	POTEN	0.00000E+000	T	DC Voltage (V)
FREQINIT	QUANT	3.00000E+005	Initial Freq. (Hz)
FREQFINAL	QUANT	1.00000E+000	Final Freq. (Hz)
PTSPERDEC	QUANT	1.00000E+001	Points/decade
VAC	QUANT	5.00000E+001	AC Voltage (mV rms)
AREA	QUANT	1.00000E+000	Sample Area (cm^2)
SPEED	SELECTOR	2	Optimize for:
ZGUESS	QUANT	1.00000E+003	Estimated Z (ohms)
EOC	QUANT	0	Open Circuit (V)
SEQUENCER	TOGGLE	TRUE	Run as Sequence
PSTATMODEL	IQUANT	5	Pstat Model
PSTATSECTION	LABEL	REF3000-16137	Pstat Section
PSTATSERIALNO	LABEL	16137	Pstat Serial Number
CTRLMODE	IQUANT	1	Control Mode
IESTAB	IQUANT	0	I/E Stability
CASPEED	IQUANT	1	Control Amp Speed
CONVENTION	IQUANT	1	Current Convention
ICHRANGE	IQUANT	2	Ich Range
ICHRANGEMODE	TOGGLE	F	Ich Auto Range
ICHOFFSETENABLE	TOGGLE	T	Ich Offset Enable
ICHOFFSET	QUANT	0	Ich Offset (V)
ICHFILTER	IQUANT	3	Ich Filter
VCHRANGE	IQUANT	2	Vch Range
VCHRANGEMODE	TOGGLE	F	Vch Auto Range
VCHOFFSETENABLE	TOGGLE	T	Vch Offset Enable
VCHOFFSET	QUANT	0	Vch Offset (V)
VCHFILTER	IQUANT	3	Vch Filter
ACHRANGE	IQUANT	2	Ach Range
ACHOFFSETENABLE	TOGGLE	F	Ach Offset Enable
ACHOFFSET	QUANT	0	Ach Offset (V)
ACHFILTER	IQUANT	3	Ach Filter
IERANGELOWERLIMIT	IQUANT	2	I/E Range Lower Limit
IERANGEMODE	TOGGLE	F	I/E AutoRange
IERANGE	IQUANT	11	I/E Range
POSFEEDENABLE	TOGGLE	F	Positive Feedback IR Comp
POSFEEDRESISTANCE	QUANT	0	Positive Feedback Resistance (ohm)
ACHSELECT	IQUANT	0	Ach Select
CABLEID	IQUANT	13	Cable ID
DCCALDATE	LABEL	7/31/2020	DC Calibration Date
ACCALDATE	LABEL	7/31/2020	AC Calibration Date
THERMOSELECT	IQUANT	1	Thermo Select
FRAMEWORKVERSION	QUANT	6.33	Framework Version
INSTRUMENTVERSION	LABEL	3.50	Instrument Version
COMPLIANCEVOLTAGE	IQUANT	0	Compliance Voltage
ZCURVE	TABLE
	Pt	Time	Freq	Zreal	Zimag	Zsig	Zmod	Zphz	Idc	Vdc	IERange
	#	s	Hz	ohm	ohm	V	ohm	°	A	V	#
	0	7	300046.9	261.631	-22.73081	1	262.6166	-4.965457	7.801656E-006	0.0008173	9
	1	12	238359.4	262.5087	-23.57211	1	263.5649	-5.131143	-1.155375E-005	-0.0011926	9
	2	17	189328.1	264.549	-28.29966	1	266.0583	-6.105896	8.250983E-005	0.0003583	10
	3	22	150421.9	266.0515	-25.74511	1	267.2943	-5.527154	1.916167E-005	-0.0009747	9
	4	26	119484.4	267.9905	-28.85424	1	269.5394	-6.1453	3.355935E-005	0.0004831	9
	5	30	94921.88	270.4258	-31.80438	1	272.2896	-6.707661	1.391641E-005	0.0001916	9
	6	34	75421.88	273.2333	-35.97256	1	275.5911	-7.500148	1.404765E-005	-0.0007188	9
	7	38	59859.37	276.213	-41.29412	1	279.2827	-8.502802	-1.297516E-005	0.0008294	9
	8	41	47578.12	280.0777	-46.99296	1	283.9927	-9.52468	-2.243332E-006	-0.0003304	9
	9	44	37828.12	284.2464	-54.5052	1	289.425	-10.8549	2.673871E-006	0.0005753	9
	10	47	30046.88	288.9317	-62.61114	1	295.6377	-12.22688	-1.163591E-005	-1.344327E-005	9
	11	49	23859.38	294.4536	-72.64416	1	303.2823	-13.8586	3.986279E-006	0.0004636	9
	12	51	18984.38	300.3484	-84.2914	1	311.9523	-15.67653	2.551245E-005	-0.0007885	9
	13	54	15046.87	306.3795	-97.5245	1	321.5268	-17.65693	-1.601508E-005	0.0001562	9
	14	56	11953.13	314.0951	-114.948	1	334.4679	-20.10089	-2.23616E-006	-0.0003133	9
	15	58	9515.62	320.3849	-134.0708	1	347.306	-22.70775	-2.47155E-005	0.0007849	9
	16	61	7546.875	327.9796	-159.1676	1	364.5613	-25.88718	-1.660542E-005	0.0001841	9
	17	63	5928.309	335.8828	-191.8107	1	386.7927	-29.72915	1.324611E-005	0.0002021	9
	18	65	4733.456	341.4128	-227.8742	1	410.4745	-33.72092	-3.072819E-006	-0.0008767	8
	19	68	3796.875	349.8501	-273.9565	1	444.3503	-38.06337	-2.321411E-006	0.004006	8
	20	70	2987.132	358.8467	-336.8698	1	492.1912	-43.19069	1.262185E-005	-0.0028303	8
	21	72	2390.625	368.2805	-407.5578	1	549.303	-47.89816	-1.188708E-005	0.0028557	8
	22	75	1884.191	386.7117	-506.7688	1	637.4642	-52.653	-1.127091E-005	0.0043107	8
	23	77	1516.544	398.3024	-614.476	1	732.2742	-57.04875	-3.372173E-006	-0.0008872	8
	24	79	1193.986	422.9416	-766.9546	1	875.8418	-61.12521	6.103617E-006	0.0011312	8
	25	82	946.5144	450.1706	-947.672	1	1049.16	-64.59098	-8.731285E-006	0.0049775	8
	26	84	751.7689	494.0584	-1168.927	1	1269.049	-67.08818	-1.153547E-005	0.0043275	8
	27	87	597.4265	546.4286	-1444.77	1	1544.65	-69.28281	1.029994E-005	-0.0037019	8
	28	90	477.4305	610.8175	-1767.13	1	1869.719	-70.93204	-1.248447E-007	0.0006605	8
	29	92	376.6741	706.121	-2185.837	1	2297.061	-72.09727	-9.052521E-008	0.000647	8
	30	94	298.2954	830.4844	-2689.747	1	2815.039	-72.84145	-1.133531E-007	0.0006517	8
	31	97	237.7717	989.818	-3284.326	1	3430.239	-73.22844	-8.921019E-008	0.0006573	8
	32	99	189.0121	1203.062	-4011.133	1	4187.666	-73.30441	-1.219716E-007	0.0006604	8
	33	101	150.2404	1489.943	-4897.261	1	5118.896	-73.07814	-7.313626E-008	0.0006162	7
	34	104	119.1737	1863.345	-5967.711	1	6251.851	-72.65966	-6.824985E-008	0.0006212	7
	35	106	95.0169	2353.212	-7208.508	1	7582.889	-71.92077	-7.385149E-008	0.00064	7
	36	109	75.60484	3006.135	-8698.215	1	9203.031	-70.93466	-6.746244E-008	0.0006334	7
	37	111	54.50582	4342.244	-11268.08	1	12075.79	-68.92545	-6.953483E-008	0.0006203	7
	38	114	45.95588	5286.468	-12826.7	1	13873.39	-67.6012	-5.957999E-008	0.0006175	7
	39	116	37.20238	6744.217	-14959.11	1	16409.13	-65.73208	-6.626616E-008	0.0006346	7
	40	119	30.04808	8627.867	-17288.07	1	19321.43	-63.47784	-6.876105E-008	0.0006336	7
	41	121	23.91582	11146.31	-19941.57	1	22845.27	-60.79706	-6.624195E-008	0.000614	7
	42	123	18.60119	14568.03	-22968.09	1	27198.54	-57.61416	-5.686348E-008	0.000656	7
	43	126	15.02404	18121.89	-25417.21	1	31215.98	-54.512	-5.516382E-008	0.0006794	7
	44	128	12.01923	22319.27	-27681.29	1	35558.45	-51.12096	-6.29738E-008	0.0006155	7
	45	131	9.450605	27381.45	-29795.56	1	40466.27	-47.41769	-5.845086E-008	0.0006251	7
	46	133	7.512019	32536.44	-31163.68	1	45053.24	-43.76545	-5.177651E-008	0.000712	6
	47	136	5.978954	37818.29	-31711.44	1	49354.21	-39.98055	-5.328878E-008	0.0006678	6
	48	140	4.734848	43046.61	-31391.74	1	53277.13	-36.1014	-5.641128E-008	0.0006988	6
	49	145	3.75601	47726.33	-30319.52	1	56542.69	-32.42693	-5.441217E-008	0.0007188	6
	50	151	3.004808	51762.85	-28776.27	1	59223.86	-29.07078	-5.738158E-008	0.000717	6
	51	157	2.372217	55275.37	-26620.8	1	61351.73	-25.71562	-6.042087E-008	0.0006653	6
	52	165	1.878005	57298.54	-23421.49	1	61900.64	-22.2329	-6.226654E-008	0.000686	6
	53	174	1.512097	58716.1	-21124.48	1	62400.51	-19.78737	-6.489257E-008	0.0006634	6
	54	184	1.201923	60087.96	-18965.12	1	63009.82	-17.51687	-6.81333E-008	0.0007059	6
	55	197	0.956633	61557.55	-17064.23	1	63878.95	-15.49379	-8.638219E-008	4.312486E-005	6
