EXPLAIN
TAG	EISPOT
TITLE	LABEL	Potentiostatic EIS	Test Identifier
DATE	LABEL	8/23/2020	Date
TIME	LABEL	17:58:42	Time
NOTES	NOTES	1	Notes...
	
PSTAT	PSTAT	REF3000-16137	Potentiostat
VDC	POTEN	0.00000E+000	T	DC Voltage (V)
FREQINIT	QUANT	3.00000E+005	Initial Freq. (Hz)
FREQFINAL	QUANT	1.00000E+000	Final Freq. (Hz)
PTSPERDEC	QUANT	1.00000E+001	Points/decade
VAC	QUANT	5.00000E+001	AC Voltage (mV rms)
AREA	QUANT	1.00000E+000	Sample Area (cm^2)
SPEED	SELECTOR	2	Optimize for:
ZGUESS	QUANT	1.00000E+003	Estimated Z (ohms)
EOC	QUANT	0	Open Circuit (V)
SEQUENCER	TOGGLE	TRUE	Run as Sequence
PSTATMODEL	IQUANT	5	Pstat Model
PSTATSECTION	LABEL	REF3000-16137	Pstat Section
PSTATSERIALNO	LABEL	16137	Pstat Serial Number
CTRLMODE	IQUANT	1	Control Mode
IESTAB	IQUANT	0	I/E Stability
CASPEED	IQUANT	1	Control Amp Speed
CONVENTION	IQUANT	1	Current Convention
ICHRANGE	IQUANT	2	Ich Range
ICHRANGEMODE	TOGGLE	F	Ich Auto Range
ICHOFFSETENABLE	TOGGLE	T	Ich Offset Enable
ICHOFFSET	QUANT	0	Ich Offset (V)
ICHFILTER	IQUANT	3	Ich Filter
VCHRANGE	IQUANT	2	Vch Range
VCHRANGEMODE	TOGGLE	F	Vch Auto Range
VCHOFFSETENABLE	TOGGLE	T	Vch Offset Enable
VCHOFFSET	QUANT	0	Vch Offset (V)
VCHFILTER	IQUANT	3	Vch Filter
ACHRANGE	IQUANT	2	Ach Range
ACHOFFSETENABLE	TOGGLE	F	Ach Offset Enable
ACHOFFSET	QUANT	0	Ach Offset (V)
ACHFILTER	IQUANT	3	Ach Filter
IERANGELOWERLIMIT	IQUANT	2	I/E Range Lower Limit
IERANGEMODE	TOGGLE	F	I/E AutoRange
IERANGE	IQUANT	11	I/E Range
POSFEEDENABLE	TOGGLE	F	Positive Feedback IR Comp
POSFEEDRESISTANCE	QUANT	0	Positive Feedback Resistance (ohm)
ACHSELECT	IQUANT	0	Ach Select
CABLEID	IQUANT	13	Cable ID
DCCALDATE	LABEL	7/31/2020	DC Calibration Date
ACCALDATE	LABEL	7/31/2020	AC Calibration Date
THERMOSELECT	IQUANT	1	Thermo Select
FRAMEWORKVERSION	QUANT	6.33	Framework Version
INSTRUMENTVERSION	LABEL	3.50	Instrument Version
COMPLIANCEVOLTAGE	IQUANT	0	Compliance Voltage
ZCURVE	TABLE
	Pt	Time	Freq	Zreal	Zimag	Zsig	Zmod	Zphz	Idc	Vdc	IERange
	#	s	Hz	ohm	ohm	V	ohm	°	A	V	#
	0	9	300046.9	261.6604	-29.15782	1	263.28	-6.358454	-0.0000959	0.000577	10
	1	14	238359.4	263.4635	-23.24032	1	264.4865	-5.041056	-6.463009E-005	0.0010607	9
	2	18	189328.1	264.677	-24.60665	1	265.8184	-5.311441	4.481005E-006	-0.0014482	9
	3	23	150421.9	266.0335	-28.50101	1	267.5558	-6.114955	7.707069E-005	0.0004913	10
	4	28	119484.4	268.556	-28.13907	1	270.0262	-5.981575	7.302133E-005	-0.0025595	9
	5	32	94921.88	271.043	-31.97705	1	272.9228	-6.728526	-6.083411E-006	0.0007229	9
	6	36	75421.88	274.0646	-36.10788	1	276.433	-7.505463	-1.370557E-005	0.0001256	9
	7	40	59859.37	276.8586	-41.06137	1	279.887	-8.436138	-3.539351E-006	-0.0002982	9
	8	42	47578.12	280.3566	-47.04756	1	284.2768	-9.52623	-2.036358E-005	0.0004394	9
	9	46	37828.12	284.78	-54.12799	1	289.8784	-10.76181	-2.388339E-005	0.0006567	9
	10	49	30046.88	289.6316	-62.88879	1	296.3806	-12.25068	-2.039422E-006	0.000695	9
	11	51	23859.38	294.9917	-72.39692	1	303.7457	-13.78901	2.770625E-005	-0.0006458	9
	12	53	18984.38	300.8879	-84.03706	1	312.4032	-15.60489	2.140207E-005	-0.0001115	9
	13	56	15046.87	307.3871	-97.9269	1	322.6089	-17.67076	1.455667E-005	0.0001812	9
	14	58	11953.13	314.7114	-114.3394	1	334.8384	-19.96684	-2.055193E-005	0.0009894	9
	15	60	9515.62	320.9636	-134.2109	1	347.8939	-22.69224	-1.121994E-005	-2.251701E-006	9
	16	63	7546.875	327.8916	-159.2449	1	364.5159	-25.90415	3.127584E-006	0.0004899	9
	17	65	5928.309	334.323	-189.1581	1	384.1259	-29.50094	4.285824E-006	-0.0030787	8
	18	67	4733.456	343.0248	-227.6969	1	411.7182	-33.57587	-2.529535E-006	0.0040939	8
	19	70	3796.875	349.9033	-271.6326	1	442.9634	-37.82246	-3.429401E-006	-0.0008613	8
	20	72	2987.132	359.6328	-335.7883	1	492.0259	-43.03622	2.393873E-006	0.0025393	8
	21	74	2390.625	369.9885	-408.6383	1	551.2502	-47.84174	-2.215212E-006	0.0039133	8
	22	77	1884.191	384.9255	-505.068	1	635.0286	-52.68803	1.055057E-006	-0.0022229	8
	23	79	1516.544	400.5255	-613.4122	1	732.5948	-56.8576	7.224592E-007	-0.0021242	8
	24	81	1193.986	423.4492	-764.8925	1	874.2824	-61.03082	-1.983594E-006	0.0039448	8
	25	84	946.5144	451.8406	-945.5182	1	1047.933	-64.45798	4.939661E-006	-0.0031573	8
	26	86	751.7689	488.8712	-1168.949	1	1267.058	-67.30462	1.239554E-005	-0.0021998	8
	27	89	597.4265	546.2253	-1441.26	1	1541.296	-69.24372	-1.093393E-005	0.0027538	8
	28	91	477.4305	611.0222	-1762.854	1	1865.744	-70.88319	-9.386643E-008	0.0006557	8
	29	94	376.6741	705.7952	-2180.448	1	2291.833	-72.06361	-1.131623E-007	0.0006603	8
	30	96	298.2954	830.2521	-2683.013	1	2808.536	-72.80544	-1.020519E-007	0.0006464	8
	31	98	237.7717	988.991	-3275.901	1	3421.934	-73.20099	-8.844911E-008	0.0006471	8
	32	101	189.0121	1200.159	-4001.92	1	4178.007	-73.30624	-9.28626E-008	0.0006626	8
	33	103	150.2404	1488.342	-4885.651	1	5107.323	-73.05742	-7.322484E-008	0.0006182	7
	34	106	119.1737	1860.044	-5947.971	1	6232.024	-72.63454	-6.48054E-008	0.0006397	7
	35	108	95.0169	2347.577	-7193.675	1	7567.039	-71.92648	-6.364967E-008	0.0006361	7
	36	111	75.60484	3006.099	-8674.534	1	9180.642	-70.8866	-6.602875E-008	0.0006349	7
	37	113	54.50582	4331.552	-11244.08	1	12049.55	-68.93184	-6.217908E-008	0.0006308	7
	38	116	45.95588	5289.742	-12793.16	1	13843.64	-67.53578	-6.277776E-008	0.0006367	7
	39	118	37.20238	6745.252	-14909.14	1	16364.01	-65.65686	-5.856567E-008	0.0006223	7
	40	120	30.04808	8615.55	-17255.35	1	19286.65	-63.46716	-6.126598E-008	0.0006746	7
	41	123	23.91582	11152.29	-19865.18	1	22781.55	-60.69019	-6.055423E-008	0.0006348	7
	42	125	18.60119	14594.29	-22818.73	1	27086.67	-57.39805	-6.466065E-008	0.0006474	7
	43	128	15.02404	18094.89	-25343.36	1	31140.18	-54.47357	-4.668497E-008	0.0006213	7
	44	130	12.01923	22331.54	-27556.03	1	35468.76	-50.97852	-6.838903E-008	0.0006276	7
	45	132	9.450605	27380.34	-29669.14	1	40372.52	-47.29745	-6.390682E-008	0.000629	7
	46	135	7.512019	32537.32	-30946.74	1	44904.1	-43.56477	-5.407824E-008	0.0006524	6
	47	138	5.978954	37755.65	-31344.23	1	49070.87	-39.699	-5.097592E-008	0.0006796	6
	48	142	4.734848	42908.16	-31005.1	1	52937.95	-35.85158	-5.563378E-008	0.0006427	6
	49	147	3.75601	47707.04	-30094.89	1	56406.24	-32.24484	-5.837346E-008	0.0006693	6
	50	153	3.004808	51602.28	-28415.41	1	58908.66	-28.8399	-5.57149E-008	0.0006446	6
	51	159	2.372217	55784.57	-27074.37	1	62007.58	-25.88906	-6.228517E-008	0.000712	6
	52	163	1.878005	57683.81	-23545.52	1	62304.2	-22.20442	-6.614709E-008	0.0006732	6
	53	172	1.512097	58856.79	-21064.68	1	62512.74	-19.69215	-6.639615E-008	0.0006201	6
	54	183	1.201923	59844.07	-18635.64	1	62678.55	-17.29676	-6.898722E-008	0.0006673	6
	55	196	0.956633	60870.62	-16632.32	1	63102.03	-15.28249	-8.285169E-008	8.751261E-005	6
