EXPLAIN
TAG	EISPOT
TITLE	LABEL	Potentiostatic EIS	Test Identifier
DATE	LABEL	8/23/2020	Date
TIME	LABEL	17:55:10	Time
NOTES	NOTES	1	Notes...
	
PSTAT	PSTAT	REF3000-16137	Potentiostat
VDC	POTEN	0.00000E+000	T	DC Voltage (V)
FREQINIT	QUANT	3.00000E+005	Initial Freq. (Hz)
FREQFINAL	QUANT	1.00000E+000	Final Freq. (Hz)
PTSPERDEC	QUANT	1.00000E+001	Points/decade
VAC	QUANT	5.00000E+001	AC Voltage (mV rms)
AREA	QUANT	1.00000E+000	Sample Area (cm^2)
SPEED	SELECTOR	2	Optimize for:
ZGUESS	QUANT	1.00000E+003	Estimated Z (ohms)
EOC	QUANT	0	Open Circuit (V)
SEQUENCER	TOGGLE	TRUE	Run as Sequence
PSTATMODEL	IQUANT	5	Pstat Model
PSTATSECTION	LABEL	REF3000-16137	Pstat Section
PSTATSERIALNO	LABEL	16137	Pstat Serial Number
CTRLMODE	IQUANT	1	Control Mode
IESTAB	IQUANT	0	I/E Stability
CASPEED	IQUANT	1	Control Amp Speed
CONVENTION	IQUANT	1	Current Convention
ICHRANGE	IQUANT	2	Ich Range
ICHRANGEMODE	TOGGLE	F	Ich Auto Range
ICHOFFSETENABLE	TOGGLE	T	Ich Offset Enable
ICHOFFSET	QUANT	0	Ich Offset (V)
ICHFILTER	IQUANT	3	Ich Filter
VCHRANGE	IQUANT	2	Vch Range
VCHRANGEMODE	TOGGLE	F	Vch Auto Range
VCHOFFSETENABLE	TOGGLE	T	Vch Offset Enable
VCHOFFSET	QUANT	0	Vch Offset (V)
VCHFILTER	IQUANT	3	Vch Filter
ACHRANGE	IQUANT	2	Ach Range
ACHOFFSETENABLE	TOGGLE	F	Ach Offset Enable
ACHOFFSET	QUANT	0	Ach Offset (V)
ACHFILTER	IQUANT	3	Ach Filter
IERANGELOWERLIMIT	IQUANT	2	I/E Range Lower Limit
IERANGEMODE	TOGGLE	F	I/E AutoRange
IERANGE	IQUANT	11	I/E Range
POSFEEDENABLE	TOGGLE	F	Positive Feedback IR Comp
POSFEEDRESISTANCE	QUANT	0	Positive Feedback Resistance (ohm)
ACHSELECT	IQUANT	0	Ach Select
CABLEID	IQUANT	13	Cable ID
DCCALDATE	LABEL	7/31/2020	DC Calibration Date
ACCALDATE	LABEL	7/31/2020	AC Calibration Date
THERMOSELECT	IQUANT	1	Thermo Select
FRAMEWORKVERSION	QUANT	6.33	Framework Version
INSTRUMENTVERSION	LABEL	3.50	Instrument Version
COMPLIANCEVOLTAGE	IQUANT	0	Compliance Voltage
ZCURVE	TABLE
	Pt	Time	Freq	Zreal	Zimag	Zsig	Zmod	Zphz	Idc	Vdc	IERange
	#	s	Hz	ohm	ohm	V	ohm	°	A	V	#
	0	9	300046.9	261.9329	-29.56564	1	263.5963	-6.439996	7.183753E-005	0.0003775	10
	1	13	238359.4	263.1003	-23.86321	1	264.1803	-5.182549	1.916167E-005	-0.0017496	9
	2	18	189328.1	264.8131	-28.2794	1	266.3188	-6.095517	2.348023E-005	0.000623	10
	3	23	150421.9	266.9597	-26.36332	1	268.2583	-5.639896	8.431866E-006	-0.001496	9
	4	29	119484.4	268.8932	-28.9912	1	270.4516	-6.153676	2.41687E-005	-0.0005709	9
	5	36	94921.88	271.28	-31.72799	1	273.1291	-6.670814	2.451035E-005	-0.000779	9
	6	39	75421.88	273.5377	-36.38061	1	275.9464	-7.575899	2.369286E-005	-0.0005005	9
	7	42	59859.37	277.0832	-41.1345	1	280.1199	-8.444194	1.383291E-005	0.0002085	9
	8	45	47578.12	280.6417	-47.60251	1	284.6503	-9.6269	1.251898E-005	0.0001666	9
	9	48	37828.12	285.0982	-54.48582	1	290.258	-10.81947	2.105485E-005	-0.0001532	9
	10	51	30046.88	289.9725	-62.91247	1	296.7187	-12.24118	2.017041E-005	-0.0001341	9
	11	53	23859.38	295.3371	-72.73905	1	304.1628	-13.83609	2.153713E-005	-0.0007785	9
	12	56	18984.38	301.3649	-84.52698	1	312.9946	-15.66777	1.385468E-005	0.0001941	9
	13	58	15046.87	308.1441	-97.8804	1	323.3162	-17.62219	4.366419E-006	0.0005454	9
	14	60	11953.13	314.5256	-114.8252	1	334.8301	-20.05585	5.164105E-006	-0.0005233	9
	15	63	9515.62	321.3262	-134.1769	1	348.2154	-22.66406	-2.323799E-005	0.0005416	9
	16	65	7546.875	328.813	-159.0827	1	365.2743	-25.81812	1.85351E-005	-0.0007853	9
	17	68	5928.309	335.905	-190.5663	1	386.1964	-29.5672	-2.406223E-005	0.0008781	9
	18	70	4733.456	344.3325	-228.4639	1	413.2319	-33.56419	2.134189E-005	-0.0001263	9
	19	73	3796.875	350.7288	-273.7142	1	444.8934	-37.96903	-7.302143E-006	0.0006776	8
	20	75	2987.132	359.2464	-334.031	1	490.5453	-42.917	-1.177007E-005	0.0037296	8
	21	77	2390.625	370.3821	-407.7979	1	550.892	-47.75273	-1.14321E-005	0.0036003	8
	22	79	1884.191	384.1297	-501.9872	1	632.0972	-52.57613	1.242078E-005	-0.0028586	8
	23	82	1516.544	400.5017	-612.8607	1	732.1201	-56.83556	6.451718E-006	0.0010742	8
	24	84	1193.986	423.5765	-762.8524	1	872.5599	-60.95862	4.778493E-006	-0.0030881	8
	25	87	946.5144	452.502	-945.6196	1	1048.31	-64.42775	1.246213E-005	-0.0028767	8
	26	89	751.7689	491.7792	-1166.886	1	1266.282	-67.14722	-6.541394E-006	0.0004364	8
	27	92	597.4265	543.9156	-1436.773	1	1536.282	-69.26496	-9.683098E-006	0.0020056	8
	28	94	477.4305	611.3403	-1760.603	1	1863.722	-70.85129	-1.232563E-007	0.000659	8
	29	97	376.6741	706.2161	-2177.559	1	2289.215	-72.03132	-1.033888E-007	0.0006478	8
	30	99	298.2954	829.4753	-2679.985	1	2805.415	-72.80231	-1.325095E-007	0.0007013	8
	31	101	237.7717	988.822	-3272.039	1	3418.188	-73.18499	-9.284489E-008	0.0006594	8
	32	104	189.0121	1201.003	-3996.191	1	4172.763	-73.27253	-1.13109E-007	0.0006613	8
	33	106	150.2404	1484.896	-4879.806	1	5100.728	-73.07531	-6.732817E-008	0.000625	7
	34	109	119.1737	1856.631	-5942.886	1	6226.153	-72.65055	-6.977727E-008	0.000635	7
	35	111	95.0169	2347.177	-7184.779	1	7558.458	-71.90843	-7.0228E-008	0.0006353	7
	36	114	75.60484	2996.814	-8668.025	1	9171.453	-70.92809	-7.078364E-008	0.0006548	7
	37	116	54.50582	4340.063	-11224.5	1	12034.35	-68.86052	-6.757674E-008	0.0006168	7
	38	119	45.95588	5269.429	-12787.05	1	13830.24	-67.60387	-5.971123E-008	0.000642	7
	39	121	37.20238	6732.556	-14906.87	1	16356.71	-65.6941	-5.80471E-008	0.0006146	7
	40	123	30.04808	8615.041	-17225.53	1	19259.74	-63.42889	-6.20453E-008	0.0006236	7
	41	126	23.91582	11108.12	-19878.03	1	22771.17	-60.80294	-6.229336E-008	0.00062	7
	42	128	18.60119	14570.67	-22869.66	1	27116.89	-57.49806	-5.720334E-008	0.0006291	7
	43	130	15.02404	18104.97	-25271.46	1	31087.57	-54.38145	-6.488201E-008	0.000618	7
	44	133	12.01923	22296.22	-27590.96	1	35473.69	-51.05838	-6.050241E-008	0.0006824	7
	45	135	9.450605	27347.08	-29738.91	1	40401.31	-47.39922	-6.950479E-008	0.0006318	7
	46	138	7.512019	32494.48	-31050.9	1	44944.96	-43.69862	-5.530594E-008	0.0006649	6
	47	141	5.978954	37739.93	-31416.39	1	49104.9	-39.7755	-5.691389E-008	0.000724	6
	48	145	4.734848	42956.71	-31169.35	1	53073.61	-35.9646	-5.57313E-008	0.000689	6
	49	150	3.75601	47697.92	-30156.28	1	56431.31	-32.3025	-5.977734E-008	0.000662	6
	50	156	3.004808	51709.81	-28582.08	1	59083.33	-28.93119	-6.41942E-008	0.0007167	6
	51	162	2.372217	55195.61	-26382.6	1	61176.76	-25.54704	-6.116715E-008	0.0007555	6
	52	169	1.878005	57218.94	-23246.28	1	61760.8	-22.11038	-6.795248E-008	0.0006582	6
	53	178	1.512097	58741.4	-20976.14	1	62374.28	-19.65129	-6.924029E-008	0.0007297	6
	54	189	1.201923	59690.44	-18575.8	1	62514.07	-17.28626	-7.091418E-008	0.0006494	6
	55	202	0.956633	61034.57	-16593	1	63249.87	-15.20898	-8.944976E-008	4.139067E-005	6
