EXPLAIN
TAG	EISPOT
TITLE	LABEL	Potentiostatic EIS	Test Identifier
DATE	LABEL	8/23/2020	Date
TIME	LABEL	14:26:12	Time
NOTES	NOTES	1	Notes...
	
PSTAT	PSTAT	REF3000-16137	Potentiostat
VDC	POTEN	0.00000E+000	T	DC Voltage (V)
FREQINIT	QUANT	3.00000E+005	Initial Freq. (Hz)
FREQFINAL	QUANT	1.00000E+000	Final Freq. (Hz)
PTSPERDEC	QUANT	1.00000E+001	Points/decade
VAC	QUANT	5.00000E+001	AC Voltage (mV rms)
AREA	QUANT	1.00000E+000	Sample Area (cm^2)
SPEED	SELECTOR	2	Optimize for:
ZGUESS	QUANT	1.00000E+003	Estimated Z (ohms)
EOC	QUANT	0	Open Circuit (V)
SEQUENCER	TOGGLE	TRUE	Run as Sequence
PSTATMODEL	IQUANT	5	Pstat Model
PSTATSECTION	LABEL	REF3000-16137	Pstat Section
PSTATSERIALNO	LABEL	16137	Pstat Serial Number
CTRLMODE	IQUANT	1	Control Mode
IESTAB	IQUANT	0	I/E Stability
CASPEED	IQUANT	1	Control Amp Speed
CONVENTION	IQUANT	1	Current Convention
ICHRANGE	IQUANT	2	Ich Range
ICHRANGEMODE	TOGGLE	F	Ich Auto Range
ICHOFFSETENABLE	TOGGLE	T	Ich Offset Enable
ICHOFFSET	QUANT	0	Ich Offset (V)
ICHFILTER	IQUANT	3	Ich Filter
VCHRANGE	IQUANT	2	Vch Range
VCHRANGEMODE	TOGGLE	F	Vch Auto Range
VCHOFFSETENABLE	TOGGLE	T	Vch Offset Enable
VCHOFFSET	QUANT	0	Vch Offset (V)
VCHFILTER	IQUANT	3	Vch Filter
ACHRANGE	IQUANT	2	Ach Range
ACHOFFSETENABLE	TOGGLE	F	Ach Offset Enable
ACHOFFSET	QUANT	0	Ach Offset (V)
ACHFILTER	IQUANT	3	Ach Filter
IERANGELOWERLIMIT	IQUANT	2	I/E Range Lower Limit
IERANGEMODE	TOGGLE	F	I/E AutoRange
IERANGE	IQUANT	11	I/E Range
POSFEEDENABLE	TOGGLE	F	Positive Feedback IR Comp
POSFEEDRESISTANCE	QUANT	0	Positive Feedback Resistance (ohm)
ACHSELECT	IQUANT	0	Ach Select
CABLEID	IQUANT	13	Cable ID
DCCALDATE	LABEL	7/31/2020	DC Calibration Date
ACCALDATE	LABEL	7/31/2020	AC Calibration Date
THERMOSELECT	IQUANT	1	Thermo Select
FRAMEWORKVERSION	QUANT	6.33	Framework Version
INSTRUMENTVERSION	LABEL	3.50	Instrument Version
COMPLIANCEVOLTAGE	IQUANT	0	Compliance Voltage
ZCURVE	TABLE
	Pt	Time	Freq	Zreal	Zimag	Zsig	Zmod	Zphz	Idc	Vdc	IERange
	#	s	Hz	ohm	ohm	V	ohm	°	A	V	#
	0	16	300046.9	395.3702	-42.90625	1	397.6915	-6.193598	-0.0004007	0.0294077	9
	1	30	238359.4	371.428	-76.50672	1	379.2256	-11.639	-0.0008447	0.0034377	10
	2	56	189328.1	385.378	-63.44896	1	390.5662	-9.349352	0.0001132	-0.0018851	10
	3	64	150421.9	399.4507	-45.29495	1	402.0106	-6.469312	-0.0005339	0.0043532	9
	4	71	119484.4	397.6606	-62.26857	1	402.5063	-8.899519	-0.0008653	0.003668	10
	5	79	94921.88	404.0913	-49.35767	1	407.0945	-6.963889	0.000151	0.0016027	9
	6	85	75421.88	409.8369	-55.01379	1	413.5128	-7.645306	0.0002884	-0.007721	9
	7	91	59859.37	416.968	-59.63307	1	421.2107	-8.139018	0.0002291	-0.0022115	9
	8	97	47578.12	422.4553	-67.49496	1	427.8131	-9.077332	0.0002792	-0.0094548	9
	9	105	37828.12	429.7419	-74.22092	1	436.1042	-9.79891	0.0001114	-0.0092192	9
	10	111	30046.88	437.6078	-83.19812	1	445.4464	-10.76462	5.694945E-005	0.0051492	9
	11	118	23859.38	445.3892	-93.77199	1	455.1535	-11.88938	-0.0002178	0.0021606	9
	12	123	18984.38	454.6025	-109.9794	1	467.7167	-13.59994	2.16841E-005	-0.0071161	9
	13	129	15046.87	462.886	-127.5799	1	480.1459	-15.40919	-3.300825E-005	0.0078362	9
	14	135	11953.13	480.237	-136.528	1	499.2669	-15.87008	-0.000112	0.0293136	8
	15	139	9515.62	483.6387	-173.8773	1	513.9453	-19.77448	0.0002296	-0.0021324	9
	16	144	7546.875	494.6493	-204.9524	1	535.4282	-22.50612	-0.0002612	0.0050893	9
	17	150	5928.309	507.1479	-244.2181	1	562.8868	-25.71324	-0.0001944	0.0105806	9
	18	155	4733.456	516.087	-296.4771	1	595.1843	-29.87612	-0.0002739	0.0092634	9
	19	161	3796.875	530.0441	-352.1783	1	636.3774	-33.60134	0.0002882	-0.0076082	9
	20	166	2987.132	545.4985	-431.4457	1	695.4955	-38.34118	-0.0001515	-0.0012069	9
	21	171	2390.625	543.9083	-501.1448	1	739.5825	-42.65677	0.0002983	-0.0079143	9
	22	177	1884.191	564.856	-641.2001	1	854.5173	-48.62203	0.0002886	-0.0077097	9
	23	183	1516.544	596.594	-790.0297	1	989.985	-52.94158	0.0001262	0.0014688	10
	24	190	1193.986	617.5968	-994.945	1	1171.042	-58.17068	5.640707E-005	0.0099516	8
	25	194	946.5144	656.1122	-1261.527	1	1421.947	-62.52134	4.42864E-005	-0.0353441	8
	26	197	751.7689	684.3213	-1535.524	1	1681.11	-65.97939	-8.655313E-005	0.0062516	8
	27	200	597.4265	673.8449	-1814.571	1	1935.649	-69.62741	1.045464E-005	-0.0282582	8
	28	202	477.4305	798.7662	-2325.471	1	2458.83	-71.04313	-9.872327E-007	0.0007357	8
	29	204	376.6741	888.525	-2887.303	1	3020.927	-72.89503	-8.266135E-007	0.0007168	8
	30	207	298.2954	1004.021	-3558.388	1	3697.321	-74.24326	-7.696415E-007	0.0007173	8
	31	209	237.7717	1248.032	-4583.232	1	4750.116	-74.76746	-2.46644E-007	0.0005314	7
	32	211	189.0121	1431.938	-5546.371	1	5728.235	-75.52374	-1.834788E-007	0.0006301	7
	33	214	150.2404	1706.873	-6834.534	1	7044.45	-75.97765	-2.055704E-007	0.0007146	7
	34	216	119.1737	2037.754	-8410.549	1	8653.888	-76.38051	-1.919761E-007	0.0006728	7
	35	219	95.0169	2492.873	-10155.1	1	10456.6	-76.20776	-1.610521E-007	0.0006292	7
	36	221	75.60484	3119.733	-12568.14	1	12949.55	-76.05949	-2.06512E-007	0.0007123	7
	37	224	54.50582	4198.476	-16482.94	1	17009.25	-75.7097	-1.654065E-007	0.0006177	7
	38	226	45.95588	5118.05	-19322.02	1	19988.37	-75.16411	-1.926357E-007	0.0005345	7
	39	229	37.20238	6363.853	-23098.19	1	23958.82	-74.59642	-1.837286E-007	0.0006945	7
	40	231	30.04808	8213.232	-27590.95	1	28787.46	-73.42287	-1.666623E-007	0.00055	7
	41	234	23.91582	10524.24	-33261.66	1	34886.93	-72.44225	-1.604538E-007	0.0005661	7
	42	237	18.60119	14033.7	-40750.93	1	43099.69	-70.99745	-1.755056E-007	0.0006657	7
	43	239	15.02404	18732.75	-49101.14	1	52553.19	-69.11747	-4.89018E-008	0.0005895	6
	44	241	12.01923	23705.31	-56896.68	1	61637.44	-67.38155	-4.090236E-008	0.0007432	6
	45	244	9.450605	31270.78	-67992.18	1	74838.48	-65.30148	-4.258936E-008	0.0005789	6
	46	246	7.512019	39517.7	-78067.03	1	87499.2	-63.15137	-3.937365E-008	0.0007207	6
	47	249	5.978954	49943.8	-90056.72	1	102978.6	-60.98806	-4.016162E-008	0.0005735	6
	48	254	4.734848	62733.77	-103204.5	1	120775.4	-58.70631	-4.161285E-008	0.0006379	6
	49	257	3.75601	77177.67	-116418.5	1	139677	-56.45828	-3.986998E-008	0.0006772	6
	50	263	3.004808	93113.94	-130031.7	1	159932.6	-54.39406	-3.927657E-008	0.0005825	6
	51	269	2.372217	112191.4	-145084.3	1	183402.2	-52.28579	-4.031718E-008	0.0005914	6
	52	273	1.878005	132922	-160746.5	1	208585	-50.41251	-3.964189E-008	0.0006769	6
	53	278	1.512097	154040.2	-176055.5	1	233931.4	-48.8156	-3.921756E-008	0.0006295	6
	54	283	1.201923	177842.2	-193427.1	1	262758.2	-47.4037	-3.90215E-008	0.000694	6
	55	290	0.956633	205291	-213573.2	1	296239.6	-46.13277	-4.175813E-008	2.65369E-005	6
