EXPLAIN
TAG	EISPOT
TITLE	LABEL	Potentiostatic EIS	Test Identifier
DATE	LABEL	8/23/2020	Date
TIME	LABEL	18:12:39	Time
NOTES	NOTES	1	Notes...
	
PSTAT	PSTAT	REF3000-16137	Potentiostat
VDC	POTEN	0.00000E+000	T	DC Voltage (V)
FREQINIT	QUANT	3.00000E+005	Initial Freq. (Hz)
FREQFINAL	QUANT	1.00000E+000	Final Freq. (Hz)
PTSPERDEC	QUANT	1.00000E+001	Points/decade
VAC	QUANT	5.00000E+001	AC Voltage (mV rms)
AREA	QUANT	1.00000E+000	Sample Area (cm^2)
SPEED	SELECTOR	2	Optimize for:
ZGUESS	QUANT	1.00000E+003	Estimated Z (ohms)
EOC	QUANT	0	Open Circuit (V)
SEQUENCER	TOGGLE	TRUE	Run as Sequence
PSTATMODEL	IQUANT	5	Pstat Model
PSTATSECTION	LABEL	REF3000-16137	Pstat Section
PSTATSERIALNO	LABEL	16137	Pstat Serial Number
CTRLMODE	IQUANT	1	Control Mode
IESTAB	IQUANT	0	I/E Stability
CASPEED	IQUANT	1	Control Amp Speed
CONVENTION	IQUANT	1	Current Convention
ICHRANGE	IQUANT	2	Ich Range
ICHRANGEMODE	TOGGLE	F	Ich Auto Range
ICHOFFSETENABLE	TOGGLE	T	Ich Offset Enable
ICHOFFSET	QUANT	0	Ich Offset (V)
ICHFILTER	IQUANT	3	Ich Filter
VCHRANGE	IQUANT	2	Vch Range
VCHRANGEMODE	TOGGLE	F	Vch Auto Range
VCHOFFSETENABLE	TOGGLE	T	Vch Offset Enable
VCHOFFSET	QUANT	0	Vch Offset (V)
VCHFILTER	IQUANT	3	Vch Filter
ACHRANGE	IQUANT	2	Ach Range
ACHOFFSETENABLE	TOGGLE	F	Ach Offset Enable
ACHOFFSET	QUANT	0	Ach Offset (V)
ACHFILTER	IQUANT	3	Ach Filter
IERANGELOWERLIMIT	IQUANT	2	I/E Range Lower Limit
IERANGEMODE	TOGGLE	F	I/E AutoRange
IERANGE	IQUANT	11	I/E Range
POSFEEDENABLE	TOGGLE	F	Positive Feedback IR Comp
POSFEEDRESISTANCE	QUANT	0	Positive Feedback Resistance (ohm)
ACHSELECT	IQUANT	0	Ach Select
CABLEID	IQUANT	13	Cable ID
DCCALDATE	LABEL	7/31/2020	DC Calibration Date
ACCALDATE	LABEL	7/31/2020	AC Calibration Date
THERMOSELECT	IQUANT	1	Thermo Select
FRAMEWORKVERSION	QUANT	6.33	Framework Version
INSTRUMENTVERSION	LABEL	3.50	Instrument Version
COMPLIANCEVOLTAGE	IQUANT	0	Compliance Voltage
ZCURVE	TABLE
	Pt	Time	Freq	Zreal	Zimag	Zsig	Zmod	Zphz	Idc	Vdc	IERange
	#	s	Hz	ohm	ohm	V	ohm	°	A	V	#
	0	10	300046.9	262.088	-22.67899	1	263.0674	-4.945597	1.568521E-005	-0.0013058	9
	1	14	238359.4	261.702	-28.00989	1	263.1967	-6.109094	2.658385E-005	0.0004236	10
	2	20	189328.1	263.4614	-27.77271	1	264.9212	-6.017595	7.422898E-005	0.0005943	10
	3	24	150421.9	265.0791	-28.72233	1	266.6306	-6.18409	-9.305768E-005	0.0008037	10
	4	29	119484.4	267.5109	-30.98065	1	269.2989	-6.60604	-2.073572E-005	0.00057	10
	5	36	94921.88	269.9972	-31.8105	1	271.8647	-6.719491	-1.24483E-005	7.36884E-005	9
	6	38	75421.88	272.6274	-35.91795	1	274.9833	-7.505344	2.698763E-006	0.0004741	9
	7	42	59859.37	275.6729	-40.95846	1	278.699	-8.450974	-1.682348E-005	0.0001899	9
	8	46	47578.12	279.4882	-47.34824	1	283.4705	-9.61522	-2.295478E-006	-0.0003225	9
	9	50	37828.12	283.3264	-54.19965	1	288.4639	-10.82971	1.358228E-005	-0.000691	9
	10	53	30046.88	288.4993	-62.90556	1	295.2778	-12.30048	2.876752E-006	0.0004789	9
	11	55	23859.38	293.8844	-72.82057	1	302.7719	-13.91682	1.30749E-005	0.000152	9
	12	58	18984.38	299.5805	-84.44312	1	311.2541	-15.74162	3.448698E-006	0.0004217	9
	13	60	15046.87	306.2372	-98.0393	1	321.5476	-17.75203	-2.379218E-005	0.0008358	9
	14	62	11953.13	312.2502	-114.2571	1	332.4979	-20.09834	6.302326E-006	-0.0005513	9
	15	64	9515.62	319.9784	-134.3812	1	347.0511	-22.78093	-2.33198E-005	0.0008592	9
	16	67	7546.875	326.3079	-159.7708	1	363.3229	-26.08785	3.08316E-006	-0.0005117	9
	17	70	5928.309	333.1912	-190.4841	1	383.7975	-29.75643	9.662518E-006	-0.0005529	8
	18	72	4733.456	340.3588	-228.1742	1	409.7653	-33.83764	6.304584E-006	0.000979	8
	19	74	3796.875	348.6699	-274.6483	1	443.8495	-38.2276	-6.906106E-006	0.0005923	8
	20	76	2987.132	357.5366	-337.8168	1	491.8867	-43.37556	-1.181239E-005	0.0037428	8
	21	79	2390.625	368.3045	-409.0364	1	550.4171	-47.9995	-1.138552E-005	0.0036792	8
	22	81	1884.191	384.9295	-507.2205	1	636.7443	-52.80515	2.853141E-007	-0.0020108	8
	23	83	1516.544	399.418	-616.9798	1	734.9822	-57.08194	4.832894E-006	-0.0032358	8
	24	86	1193.986	422.4449	-770.2376	1	878.4792	-61.25697	1.204851E-005	-0.0025958	8
	25	88	946.5144	452.48	-953.257	1	1055.195	-64.60782	6.642883E-006	0.0008573	8
	26	91	751.7689	488.0213	-1175.941	1	1273.186	-67.46131	-1.091067E-005	0.0027288	8
	27	94	597.4265	541.6003	-1446.81	1	1544.859	-69.47707	1.004232E-005	-0.0007925	8
	28	96	477.4305	610.4442	-1771.64	1	1873.859	-70.98786	-1.227182E-007	0.000661	8
	29	98	376.6741	705.822	-2191.493	1	2302.352	-72.14762	-1.027204E-007	0.0006629	8
	30	101	298.2954	830.0082	-2696.612	1	2821.459	-72.89181	-1.20514E-007	0.0006636	8
	31	103	237.7717	989.799	-3292.496	1	3438.057	-73.26803	-9.090208E-008	0.0006613	8
	32	106	189.0121	1202.933	-4020.963	1	4197.045	-73.34464	-1.157807E-007	0.0006593	8
	33	108	150.2404	1488.658	-4910.121	1	5130.828	-73.13367	-7.030878E-008	0.0006309	7
	34	110	119.1737	1865.124	-5978.571	1	6262.747	-72.67374	-6.389619E-008	0.000629	7
	35	113	95.0169	2353.025	-7228.052	1	7601.412	-71.96783	-7.079835E-008	0.00063	7
	36	115	75.60484	3004.65	-8722.367	1	9225.379	-70.99238	-6.045748E-008	0.0006239	7
	37	118	54.50582	4349.164	-11300.63	1	12108.65	-68.95026	-6.558935E-008	0.0006316	7
	38	120	45.95588	5285.565	-12869.73	1	13912.84	-67.67216	-6.218085E-008	0.0006406	7
	39	123	37.20238	6744.189	-15013.64	1	16458.85	-65.8102	-6.338715E-008	0.0006822	7
	40	125	30.04808	8624.918	-17347.98	1	19373.74	-63.56476	-5.972686E-008	0.0006348	7
	41	127	23.91582	11134.68	-20028	1	22915.1	-60.92787	-6.328872E-008	0.0006311	7
	42	130	18.60119	14560.07	-23062.94	1	27274.43	-57.735	-5.942608E-008	0.0006417	7
	43	132	15.02404	18113.3	-25546.29	1	31316.2	-54.66189	-6.131495E-008	0.0006397	7
	44	134	12.01923	22356.23	-27879.23	1	35735.87	-51.27403	-5.433647E-008	0.0006218	7
	45	137	9.450605	27401.09	-30160.84	1	40749.19	-47.74489	-6.694913E-008	0.0006461	7
	46	139	7.512019	32665.59	-31456.71	1	45349.37	-43.91994	-5.369177E-008	0.0006725	6
	47	142	5.978954	37942.09	-32032.87	1	49655.88	-40.17296	-5.31425E-008	0.0006788	6
	48	147	4.734848	43233.87	-31778	1	53656.39	-36.31684	-5.263355E-008	0.0006819	6
	49	152	3.75601	48032.14	-30764.7	1	57039.92	-32.63966	-5.582543E-008	0.0006704	6
	50	157	3.004808	52150.47	-29262.05	1	59799.15	-29.29713	-5.902348E-008	0.0007181	6
	51	163	2.372217	55684.41	-27033.07	1	61899.44	-25.89515	-5.569736E-008	0.000758	6
	52	171	1.878005	57800.94	-23884.62	1	62541.38	-22.45149	-6.38336E-008	0.0006523	6
	53	180	1.512097	59380.48	-21618.8	1	63193.46	-20.00517	-6.534275E-008	0.0007224	6
	54	191	1.201923	60520.62	-19294.58	1	63521.86	-17.6828	-6.674014E-008	0.0006911	6
	55	204	0.956633	61917.28	-17314.41	1	64292.6	-15.623	-8.394816E-008	4.09477E-005	6
