EXPLAIN
TAG	EISPOT
TITLE	LABEL	Potentiostatic EIS	Test Identifier
DATE	LABEL	8/23/2020	Date
TIME	LABEL	17:33:49	Time
NOTES	NOTES	1	Notes...
	
PSTAT	PSTAT	REF3000-16137	Potentiostat
VDC	POTEN	0.00000E+000	T	DC Voltage (V)
FREQINIT	QUANT	3.00000E+005	Initial Freq. (Hz)
FREQFINAL	QUANT	1.00000E+000	Final Freq. (Hz)
PTSPERDEC	QUANT	1.00000E+001	Points/decade
VAC	QUANT	5.00000E+001	AC Voltage (mV rms)
AREA	QUANT	1.00000E+000	Sample Area (cm^2)
SPEED	SELECTOR	2	Optimize for:
ZGUESS	QUANT	1.00000E+003	Estimated Z (ohms)
EOC	QUANT	0	Open Circuit (V)
SEQUENCER	TOGGLE	TRUE	Run as Sequence
PSTATMODEL	IQUANT	5	Pstat Model
PSTATSECTION	LABEL	REF3000-16137	Pstat Section
PSTATSERIALNO	LABEL	16137	Pstat Serial Number
CTRLMODE	IQUANT	1	Control Mode
IESTAB	IQUANT	0	I/E Stability
CASPEED	IQUANT	1	Control Amp Speed
CONVENTION	IQUANT	1	Current Convention
ICHRANGE	IQUANT	2	Ich Range
ICHRANGEMODE	TOGGLE	F	Ich Auto Range
ICHOFFSETENABLE	TOGGLE	T	Ich Offset Enable
ICHOFFSET	QUANT	0	Ich Offset (V)
ICHFILTER	IQUANT	3	Ich Filter
VCHRANGE	IQUANT	2	Vch Range
VCHRANGEMODE	TOGGLE	F	Vch Auto Range
VCHOFFSETENABLE	TOGGLE	T	Vch Offset Enable
VCHOFFSET	QUANT	0	Vch Offset (V)
VCHFILTER	IQUANT	3	Vch Filter
ACHRANGE	IQUANT	2	Ach Range
ACHOFFSETENABLE	TOGGLE	F	Ach Offset Enable
ACHOFFSET	QUANT	0	Ach Offset (V)
ACHFILTER	IQUANT	3	Ach Filter
IERANGELOWERLIMIT	IQUANT	2	I/E Range Lower Limit
IERANGEMODE	TOGGLE	F	I/E AutoRange
IERANGE	IQUANT	11	I/E Range
POSFEEDENABLE	TOGGLE	F	Positive Feedback IR Comp
POSFEEDRESISTANCE	QUANT	0	Positive Feedback Resistance (ohm)
ACHSELECT	IQUANT	0	Ach Select
CABLEID	IQUANT	13	Cable ID
DCCALDATE	LABEL	7/31/2020	DC Calibration Date
ACCALDATE	LABEL	7/31/2020	AC Calibration Date
THERMOSELECT	IQUANT	1	Thermo Select
FRAMEWORKVERSION	QUANT	6.33	Framework Version
INSTRUMENTVERSION	LABEL	3.50	Instrument Version
COMPLIANCEVOLTAGE	IQUANT	0	Compliance Voltage
ZCURVE	TABLE
	Pt	Time	Freq	Zreal	Zimag	Zsig	Zmod	Zphz	Idc	Vdc	IERange
	#	s	Hz	ohm	ohm	V	ohm	°	A	V	#
	0	11	300046.9	265.0897	-23.1555	1	266.0991	-4.992097	-6.622166E-005	0.0010064	9
	1	19	238359.4	265.2107	-27.90745	1	266.6749	-6.006984	3.347826E-005	0.0004982	10
	2	24	189328.1	267.0731	-24.76988	1	268.2193	-5.298779	2.02705E-005	-0.0014481	9
	3	28	150421.9	268.171	-29.26143	1	269.7627	-6.227183	-0.0000998	0.000505	10
	4	33	119484.4	270.8167	-28.84419	1	272.3484	-6.07955	7.480179E-005	-0.0016297	9
	5	37	94921.88	273.1778	-32.08309	1	275.0554	-6.69836	-2.278612E-005	0.0005232	9
	6	40	75421.88	275.9753	-36.45994	1	278.3733	-7.525938	-3.375508E-006	-0.0003062	9
	7	44	59859.37	279.3154	-41.53321	1	282.3864	-8.457708	-2.304988E-005	0.0005235	9
	8	48	47578.12	283.2502	-47.66373	1	287.2325	-9.55192	-2.448663E-005	0.0007102	9
	9	51	37828.12	287.1487	-54.63895	1	292.3009	-10.77351	-2.932096E-006	-0.000325	9
	10	53	30046.88	292.182	-63.12569	1	298.9234	-12.19133	2.191154E-005	-0.0008125	9
	11	56	23859.38	297.5553	-72.73883	1	306.317	-13.73683	1.12409E-005	0.000236	9
	12	59	18984.38	303.8068	-84.76755	1	315.411	-15.59006	1.45719E-005	-0.00075	9
	13	61	15046.87	310.295	-98.0377	1	325.4142	-17.53394	6.230113E-006	-0.000551	9
	14	63	11953.13	317.9181	-115.297	1	338.1794	-19.93381	-2.326358E-005	0.0005442	9
	15	66	9515.62	324.8982	-134.5243	1	351.6471	-22.49203	2.122932E-005	-0.0008052	9
	16	68	7546.875	332.0678	-159.0848	1	368.2078	-25.59784	2.145532E-005	-0.00016	9
	17	70	5928.309	339.2256	-191.027	1	389.314	-29.38502	2.743948E-005	-0.0005239	9
	18	73	4733.456	346.9179	-227.7121	1	414.9757	-33.28034	2.819131E-005	-0.0006725	9
	19	75	3796.875	353.2217	-271.3414	1	445.4119	-37.53111	-1.035215E-005	0.0048345	8
	20	78	2987.132	364.5501	-334.0827	1	494.4775	-42.50291	-1.059711E-005	0.0049228	8
	21	80	2390.625	374.3831	-405.0048	1	551.5357	-47.24996	-6.991866E-006	0.0006206	8
	22	82	1884.191	385.2782	-503.5852	1	634.0641	-52.58146	1.022493E-005	-0.0036565	8
	23	85	1516.544	404.4218	-608.6276	1	730.7424	-56.3967	-9.781861E-006	0.0019933	8
	24	87	1193.986	427.3738	-760.3718	1	872.2463	-60.66145	1.257931E-005	-0.0027493	8
	25	89	946.5144	456.0161	-938.9272	1	1043.808	-64.09518	-1.135779E-005	0.0042966	8
	26	92	751.7689	495.5571	-1159.928	1	1261.352	-66.86633	2.150014E-006	0.0027165	8
	27	95	597.4265	544.5435	-1428.632	1	1528.894	-69.13494	-5.834396E-006	0.0046856	8
	28	97	477.4305	612.304	-1749.194	1	1853.266	-70.70744	-9.774632E-008	0.0006431	8
	29	100	376.6741	706.2457	-2163.95	1	2276.283	-71.92494	-1.107058E-007	0.0006543	8
	30	102	298.2954	828.491	-2663.438	1	2789.319	-72.72114	-1.377869E-007	0.0007015	8
	31	104	237.7717	985.645	-3252.609	1	3398.67	-73.14151	-1.026338E-007	0.0006474	8
	32	107	189.0121	1196.393	-3973.237	1	4149.454	-73.24227	-1.052826E-007	0.0006705	8
	33	109	150.2404	1478.229	-4852.559	1	5072.72	-73.05776	-5.816569E-008	0.0006217	7
	34	111	119.1737	1849.595	-5915.692	1	6198.098	-72.63766	-5.434894E-008	0.0006131	7
	35	114	95.0169	2333.322	-7147.272	1	7518.503	-71.92004	-5.869406E-008	0.000646	7
	36	116	75.60484	2978.968	-8628.535	1	9128.301	-70.95296	-5.35447E-008	0.0006283	7
	37	119	54.50582	4320.769	-11181.03	1	11986.84	-68.8716	-5.428524E-008	0.0006071	7
	38	121	45.95588	5237.249	-12738.85	1	13773.42	-67.65125	-5.16664E-008	0.0006294	7
	39	124	37.20238	6704.462	-14843.22	1	16287.14	-65.69201	-5.13828E-008	0.0006263	7
	40	126	30.04808	8594.126	-17147.81	1	19180.89	-63.38093	-5.344733E-008	0.0006162	7
	41	129	23.91582	11073.24	-19805.12	1	22690.51	-60.79002	-4.762875E-008	0.000637	7
	42	131	18.60119	14533.61	-22746.91	1	26993.47	-57.4244	-4.093711E-008	0.0006195	7
	43	133	15.02404	18062.18	-25113.55	1	30934.33	-54.27554	-4.973366E-008	0.0006233	7
	44	136	12.01923	22255.46	-27469.16	1	35353.36	-50.98567	-5.516119E-008	0.0006376	7
	45	138	9.450605	27312.98	-29252.69	1	40021.48	-46.96397	-5.637243E-008	0.0006269	7
	46	141	7.512019	32476.2	-30585.49	1	44611.38	-43.28268	-4.613867E-008	0.000672	6
	47	144	5.978954	37607.59	-30783.22	1	48599.77	-39.30161	-4.761691E-008	0.0006803	6
	48	148	4.734848	42728.64	-30374.3	1	52424.57	-35.40769	-4.507056E-008	0.0006701	6
	49	153	3.75601	47337.87	-29257.52	1	55649.59	-31.71845	-4.895067E-008	0.000652	6
	50	158	3.004808	51277.34	-27712.44	1	58286.74	-28.38866	-5.176993E-008	0.0006803	6
	51	165	2.372217	54603.48	-25511.88	1	60269.36	-25.04296	-5.190498E-008	0.0007442	6
	52	172	1.878005	56679.36	-22468.15	1	60970.21	-21.62377	-5.752055E-008	0.0006572	6
	53	181	1.512097	58155.01	-20318.52	1	61602.34	-19.25868	-5.690909E-008	0.0006873	6
	54	192	1.201923	59067.29	-17966.25	1	61739.21	-16.91797	-6.000612E-008	0.0006429	6
	55	205	0.956633	60292.92	-16007.27	1	62381.64	-14.86855	-7.718319E-008	3.987319E-005	6
