EXPLAIN
TAG	EISPOT
TITLE	LABEL	Potentiostatic EIS	Test Identifier
DATE	LABEL	8/23/2020	Date
TIME	LABEL	15:38:50	Time
NOTES	NOTES	1	Notes...
	
PSTAT	PSTAT	REF3000-16137	Potentiostat
VDC	POTEN	0.00000E+000	T	DC Voltage (V)
FREQINIT	QUANT	3.00000E+005	Initial Freq. (Hz)
FREQFINAL	QUANT	1.00000E+000	Final Freq. (Hz)
PTSPERDEC	QUANT	1.00000E+001	Points/decade
VAC	QUANT	5.00000E+001	AC Voltage (mV rms)
AREA	QUANT	1.00000E+000	Sample Area (cm^2)
SPEED	SELECTOR	2	Optimize for:
ZGUESS	QUANT	1.00000E+003	Estimated Z (ohms)
EOC	QUANT	0	Open Circuit (V)
SEQUENCER	TOGGLE	TRUE	Run as Sequence
PSTATMODEL	IQUANT	5	Pstat Model
PSTATSECTION	LABEL	REF3000-16137	Pstat Section
PSTATSERIALNO	LABEL	16137	Pstat Serial Number
CTRLMODE	IQUANT	1	Control Mode
IESTAB	IQUANT	0	I/E Stability
CASPEED	IQUANT	1	Control Amp Speed
CONVENTION	IQUANT	1	Current Convention
ICHRANGE	IQUANT	2	Ich Range
ICHRANGEMODE	TOGGLE	F	Ich Auto Range
ICHOFFSETENABLE	TOGGLE	T	Ich Offset Enable
ICHOFFSET	QUANT	0	Ich Offset (V)
ICHFILTER	IQUANT	3	Ich Filter
VCHRANGE	IQUANT	2	Vch Range
VCHRANGEMODE	TOGGLE	F	Vch Auto Range
VCHOFFSETENABLE	TOGGLE	T	Vch Offset Enable
VCHOFFSET	QUANT	0	Vch Offset (V)
VCHFILTER	IQUANT	3	Vch Filter
ACHRANGE	IQUANT	2	Ach Range
ACHOFFSETENABLE	TOGGLE	F	Ach Offset Enable
ACHOFFSET	QUANT	0	Ach Offset (V)
ACHFILTER	IQUANT	3	Ach Filter
IERANGELOWERLIMIT	IQUANT	2	I/E Range Lower Limit
IERANGEMODE	TOGGLE	F	I/E AutoRange
IERANGE	IQUANT	11	I/E Range
POSFEEDENABLE	TOGGLE	F	Positive Feedback IR Comp
POSFEEDRESISTANCE	QUANT	0	Positive Feedback Resistance (ohm)
ACHSELECT	IQUANT	0	Ach Select
CABLEID	IQUANT	13	Cable ID
DCCALDATE	LABEL	7/31/2020	DC Calibration Date
ACCALDATE	LABEL	7/31/2020	AC Calibration Date
THERMOSELECT	IQUANT	1	Thermo Select
FRAMEWORKVERSION	QUANT	6.33	Framework Version
INSTRUMENTVERSION	LABEL	3.50	Instrument Version
COMPLIANCEVOLTAGE	IQUANT	0	Compliance Voltage
ZCURVE	TABLE
	Pt	Time	Freq	Zreal	Zimag	Zsig	Zmod	Zphz	Idc	Vdc	IERange
	#	s	Hz	ohm	ohm	V	ohm	°	A	V	#
	0	17	300046.9	381.0982	-2631.941	1	2659.389	-81.76098	-0.0007592	0.0365684	9
	1	32	238359.4	226.3478	-3299.112	1	3306.867	-86.07516	0.0002501	0.0102831	9
	2	48	189328.1	167.5786	-4106.807	1	4110.224	-87.66334	-0.0005079	-0.0006333	10
	3	58	150421.9	129.9202	-5390.346	1	5391.911	-88.6193	0.0008135	-0.0023361	10
	4	67	119484.4	574.6897	-6567.742	1	6592.837	-84.99925	0.0007493	-0.0281223	9
	5	77	94921.88	301.675	-7506.482	1	7512.542	-87.6986	0.0001412	0.0025658	9
	6	88	75421.88	157.2941	-9491.029	1	9492.333	-89.05053	0.0002725	-0.011048	9
	7	98	59859.37	2064.264	-12902.3	1	13066.39	-80.91017	-0.000219	0.0016049	9
	8	108	47578.12	2827.802	-16530.12	1	16770.25	-80.2924	-0.0001427	0.0272389	8
	9	116	37828.12	1641.012	-21035.95	1	21099.86	-85.5394	-2.23501E-005	-0.044073	8
	10	124	30046.88	4747.486	-25078.88	1	25524.28	-79.28062	4.23514E-005	-0.054509	8
	11	131	23859.38	3413.709	-32697.4	1	32875.12	-84.03973	4.507366E-005	-0.0544081	8
	12	139	18984.38	4072.614	-41882.95	1	42080.49	-84.44614	0.0001182	-0.0579371	8
	13	145	15046.87	5917.331	-50373.13	1	50719.5	-83.30017	-0.0002884	0.0092296	9
	14	154	11953.13	-2921.701	-65550.34	1	65615.42	-92.55209	4.015757E-005	0.006257	9
	15	162	9515.62	323.7371	-77722.55	1	77723.23	-89.76134	2.04674E-005	0.0481479	8
	16	169	7546.875	-4877.794	-107682.1	1	107792.6	-92.59361	0.0001534	-0.025671	8
	17	175	5928.309	-14944.56	-96688.2	1	97836.3	-98.7864	-0.0002184	0.0015257	9
	18	185	4733.456	-38098.04	-78200.58	1	86987.3	-115.9746	-0.0002932	0.0072206	9
	19	193	3796.875	-128522.6	-388643.2	1	409342.9	-108.2988	0.0001433	0.0025346	9
	20	201	2987.132	-93586.74	-82841.38	1	124984.7	-138.4853	0.0000989	0.0156343	8
	21	209	2390.625	-72519.77	-31632.1	1	79118.3	-156.4339	0.0001395	-0.0102368	9
	22	218	1884.191	42770.21	18867.82	1	46747.04	23.80439	-0.0001458	-0.0020728	9
	23	227	1516.544	-52802.12	-59668.96	1	79677.15	-131.5062	-5.861682E-005	0.0090722	9
	24	236	1193.986	-100990.9	40149.29	1	108679.1	158.3195	-0.0000983	-0.0111511	8
	25	244	946.5144	-11446.42	30157.98	1	32257.15	110.7842	-0.0001119	0.0586774	8
	26	250	751.7689	-740.6365	23361.17	1	23372.91	91.81588	-0.0001129	0.056764	8
	27	255	597.4265	-36605.3	-17957.2	1	40772.65	-153.8692	0.0002962	-0.0097176	9
	28	261	477.4305	351715.4	-1494068	1	1534908	-76.7533	4.152799E-007	5.770423E-005	9
	29	268	376.6741	669732.4	-2735842	1	2816624	-76.24454	-8.802723E-008	0.0006922	6
	30	273	298.2954	4219717	-4280903	1	6011001	-45.4124	-9.772812E-009	0.0008025	5
	31	276	237.7717	4374910	-4360370	1	6176784	-44.90463	-8.613815E-009	0.0005289	5
	32	280	189.0121	5227262	-5531249	1	7610452	-46.61849	-5.642608E-009	0.0006346	5
	33	284	150.2404	5356815	-5854699	1	7935551	-47.54274	-8.203688E-009	0.0005105	5
	34	288	119.1737	-8332991	-1430922	1	8454955	-170.2563	-9.060582E-009	0.0005197	5
	35	292	95.0169	5524176	-1.12922E+007	1	1.257101E+007	-63.93198	-9.33963E-009	0.0007602	5
	36	296	75.60484	1.088884E+007	-9.694535E+006	1	1.457912E+007	-41.67927	-5.807931E-009	0.0007819	5
	37	300	54.50582	9.705513E+006	-1.663992E+007	1	1.926353E+007	-59.7464	-1.017098E-008	0.0005086	5
	38	304	45.95588	4.908229E+007	-3.068639E+007	1	5.788545E+007	-32.01374	-3.861846E-010	0.0007634	4
	39	307	37.20238	3.476411E+007	-5.723758E+007	1	6.696778E+007	-58.72696	-5.75974E-010	0.0005214	4
	40	311	30.04808	7.502356E+007	-3.778786E+007	1	8.400272E+007	-26.73348	-3.441611E-010	0.0006369	4
	41	315	23.91582	8.959829E+007	-3.571256E+007	1	9.64533E+007	-21.7315	-5.544993E-010	0.0007314	4
	42	319	18.60119	3.95098E+007	-2.27719E+007	1	4.560245E+007	-29.95747	-8.541716E-010	0.000645	4
	43	322	15.02404	1.130751E+009	2.675709E+007	1	1.131068E+009	1.355543	-9.895303E-010	0.0007603	4
	44	326	12.01923	5.576559E+007	-9.627362E+007	1	1.112583E+008	-59.91884	-2.311053E-010	0.0007823	4
	45	331	9.450605	1.320197E+008	-6.067773E+007	1	1.452962E+008	-24.68404	-7.399615E-010	0.000653	4
	46	335	7.512019	9.561622E+007	-3757742	1	9.569002E+007	-2.250581	-1.366487E-009	0.0008191	4
	47	339	5.978954	1.301127E+008	-7.266384E+007	1	1.49028E+008	-29.18199	-1.375368E-010	0.0006706	4
	48	345	4.734848	1.347306E+009	-7.174275E+008	1	1.526413E+009	-28.03487	5.198915E-011	0.0008746	3
	49	349	3.75601	1.896995E+009	-1.561446E+009	1	2.45697E+009	-39.45832	1.176311E-011	0.000617	3
	50	356	3.004808	4.272698E+007	-1.37583E+007	1	4.488748E+007	-17.84881	-8.468876E-008	0.0006187	6
	51	370	2.372217	5.964265E+007	-1.321402E+007	1	6.108892E+007	-12.49228	-8.80453E-009	0.0007058	5
	52	383	1.878005	2.164162E+008	1.018597E+007	1	2.166557E+008	2.694728	-5.683803E-010	0.0006333	4
	53	393	1.512097	1.596835E+009	-4.731567E+008	1	1.66546E+009	-16.50504	2.185846E-011	0.0008121	3
	54	404	1.201923	1.426175E+009	-8.136238E+008	1	1.641938E+009	-29.70448	8.641418E-012	0.0007051	3
	55	417	0.956633	1.386371E+009	-1.908995E+008	1	1.399453E+009	-7.840167	3.317964E-012	7.706331E-005	3
