EXPLAIN
TAG	EISPOT
TITLE	LABEL	Potentiostatic EIS	Test Identifier
DATE	LABEL	8/23/2020	Date
TIME	LABEL	18:23:15	Time
NOTES	NOTES	1	Notes...
	
PSTAT	PSTAT	REF3000-16137	Potentiostat
VDC	POTEN	0.00000E+000	T	DC Voltage (V)
FREQINIT	QUANT	3.00000E+005	Initial Freq. (Hz)
FREQFINAL	QUANT	1.00000E+000	Final Freq. (Hz)
PTSPERDEC	QUANT	1.00000E+001	Points/decade
VAC	QUANT	5.00000E+001	AC Voltage (mV rms)
AREA	QUANT	1.00000E+000	Sample Area (cm^2)
SPEED	SELECTOR	2	Optimize for:
ZGUESS	QUANT	1.00000E+003	Estimated Z (ohms)
EOC	QUANT	0	Open Circuit (V)
SEQUENCER	TOGGLE	TRUE	Run as Sequence
PSTATMODEL	IQUANT	5	Pstat Model
PSTATSECTION	LABEL	REF3000-16137	Pstat Section
PSTATSERIALNO	LABEL	16137	Pstat Serial Number
CTRLMODE	IQUANT	1	Control Mode
IESTAB	IQUANT	0	I/E Stability
CASPEED	IQUANT	1	Control Amp Speed
CONVENTION	IQUANT	1	Current Convention
ICHRANGE	IQUANT	2	Ich Range
ICHRANGEMODE	TOGGLE	F	Ich Auto Range
ICHOFFSETENABLE	TOGGLE	T	Ich Offset Enable
ICHOFFSET	QUANT	0	Ich Offset (V)
ICHFILTER	IQUANT	3	Ich Filter
VCHRANGE	IQUANT	2	Vch Range
VCHRANGEMODE	TOGGLE	F	Vch Auto Range
VCHOFFSETENABLE	TOGGLE	T	Vch Offset Enable
VCHOFFSET	QUANT	0	Vch Offset (V)
VCHFILTER	IQUANT	3	Vch Filter
ACHRANGE	IQUANT	2	Ach Range
ACHOFFSETENABLE	TOGGLE	F	Ach Offset Enable
ACHOFFSET	QUANT	0	Ach Offset (V)
ACHFILTER	IQUANT	3	Ach Filter
IERANGELOWERLIMIT	IQUANT	2	I/E Range Lower Limit
IERANGEMODE	TOGGLE	F	I/E AutoRange
IERANGE	IQUANT	11	I/E Range
POSFEEDENABLE	TOGGLE	F	Positive Feedback IR Comp
POSFEEDRESISTANCE	QUANT	0	Positive Feedback Resistance (ohm)
ACHSELECT	IQUANT	0	Ach Select
CABLEID	IQUANT	13	Cable ID
DCCALDATE	LABEL	7/31/2020	DC Calibration Date
ACCALDATE	LABEL	7/31/2020	AC Calibration Date
THERMOSELECT	IQUANT	1	Thermo Select
FRAMEWORKVERSION	QUANT	6.33	Framework Version
INSTRUMENTVERSION	LABEL	3.50	Instrument Version
COMPLIANCEVOLTAGE	IQUANT	0	Compliance Voltage
ZCURVE	TABLE
	Pt	Time	Freq	Zreal	Zimag	Zsig	Zmod	Zphz	Idc	Vdc	IERange
	#	s	Hz	ohm	ohm	V	ohm	°	A	V	#
	0	9	300046.9	261.6873	-22.46533	1	262.6498	-4.906698	-9.014345E-005	0.0021679	9
	1	14	238359.4	261.2268	-27.56424	1	262.6771	-6.023469	-8.885351E-005	-1.502238E-005	10
	2	18	189328.1	263.5128	-24.15697	1	264.6178	-5.237826	2.195756E-005	-0.0015399	9
	3	22	150421.9	265.6654	-25.93204	1	266.928	-5.575075	-6.361897E-005	0.0012694	9
	4	29	119484.4	266.6519	-28.64205	1	268.1858	-6.130841	-7.332369E-005	0.0029567	9
	5	36	94921.88	269.1061	-31.5765	1	270.9523	-6.692397	-1.124338E-005	-2.764618E-005	9
	6	39	75421.88	272.1028	-35.78482	1	274.4458	-7.492095	-1.101407E-005	-3.081401E-005	9
	7	43	59859.37	275.0484	-40.96247	1	278.0819	-8.470701	2.782859E-006	0.0005597	9
	8	47	47578.12	278.7416	-47.06208	1	282.6866	-9.58331	-1.158065E-005	4.658192E-006	9
	9	49	37828.12	282.9606	-54.04869	1	288.0763	-10.81388	2.518471E-005	-0.0007753	9
	10	52	30046.88	287.5754	-62.57314	1	294.3043	-12.27557	2.533727E-005	-0.0007404	9
	11	54	23859.38	292.7687	-72.71228	1	301.663	-13.94782	6.262204E-006	-0.0005619	9
	12	57	18984.38	298.8618	-84.15039	1	310.483	-15.7256	1.014023E-005	-0.0006474	9
	13	59	15046.87	304.9743	-98.3277	1	320.4335	-17.87	-2.552956E-005	0.0005732	9
	14	62	11953.13	312.1535	-114.582	1	332.5189	-20.15665	-2.661602E-006	-0.0003105	9
	15	64	9515.62	318.3499	-134.5833	1	345.6289	-22.91635	-1.095915E-005	-1.400169E-005	9
	16	66	7546.875	325.5335	-159.7391	1	362.6136	-26.13716	-2.454619E-005	0.0007472	9
	17	69	5928.309	333.5094	-191.8588	1	384.7575	-29.91063	2.744022E-006	0.0005377	9
	18	71	4733.456	339.5844	-228.4053	1	409.2512	-33.92487	1.212866E-005	-0.0021196	8
	19	74	3796.875	347.1032	-274.2137	1	442.3503	-38.30896	-1.125965E-005	0.0035941	8
	20	76	2987.132	355.7508	-338.7616	1	491.2413	-43.59871	-1.062276E-005	0.0047993	8
	21	78	2390.625	366.6659	-410.871	1	550.6895	-48.25392	7.04335E-007	-0.0021328	8
	22	81	1884.191	381.2133	-513.097	1	639.212	-53.38893	-1.12492E-005	0.0029305	8
	23	83	1516.544	398.011	-620.5758	1	737.2429	-57.32561	1.059003E-005	-0.0037506	8
	24	85	1193.986	421.1516	-770.4314	1	878.028	-61.33705	6.504134E-007	-0.002059	8
	25	88	946.5144	449.2814	-954.884	1	1055.299	-64.8026	4.652965E-006	-0.0031791	8
	26	90	751.7689	492.5902	-1177.996	1	1276.84	-67.3073	4.76269E-006	-0.0030585	8
	27	93	597.4265	543.3592	-1451.168	1	1549.558	-69.47266	-1.162535E-005	0.0037826	8
	28	96	477.4305	610.1964	-1778.71	1	1880.465	-71.06519	-1.034577E-007	0.0006629	8
	29	98	376.6741	705.8138	-2200.399	1	2310.829	-72.21552	-1.205922E-007	0.0006701	8
	30	100	298.2954	830.4155	-2707.451	1	2831.939	-72.94844	-8.865892E-008	0.0006471	8
	31	102	237.7717	991.414	-3306.064	1	3451.516	-73.3072	-7.859454E-008	0.0006522	8
	32	105	189.0121	1204.627	-4037.969	1	4213.825	-73.38885	-1.045532E-007	0.0006618	8
	33	107	150.2404	1491.93	-4930.25	1	5151.04	-73.1638	-6.800329E-008	0.0006555	7
	34	110	119.1737	1872.69	-6004.771	1	6290.012	-72.67902	-6.592941E-008	0.0006481	7
	35	112	95.0169	2359.251	-7257.548	1	7631.388	-71.99192	-6.104348E-008	0.0006394	7
	36	115	75.60484	3015.565	-8755.824	1	9260.566	-70.99594	-5.895509E-008	0.0006226	7
	37	117	54.50582	4364.061	-11344.67	1	12155.1	-68.95928	-6.219374E-008	0.0006356	7
	38	120	45.95588	5299.751	-12919.78	1	13964.53	-67.69633	-5.808382E-008	0.0006424	7
	39	122	37.20238	6768.583	-15065.37	1	16516.02	-65.80652	-6.247304E-008	0.0006376	7
	40	124	30.04808	8657.271	-17429.97	1	19461.56	-63.58693	-5.762067E-008	0.0006252	7
	41	127	23.91582	11147.25	-20107.98	1	22991.13	-60.99734	-5.199299E-008	0.0006206	7
	42	129	18.60119	14617	-23165.11	1	27391.22	-57.74841	-6.226211E-008	0.0006315	7
	43	132	15.02404	18166.95	-25642.39	1	31425.63	-54.68345	-6.023562E-008	0.0006197	7
	44	134	12.01923	22399.64	-28063.24	1	35906.67	-51.40368	-5.130455E-008	0.0006341	7
	45	136	9.450605	27519.33	-30192.18	1	40851.94	-47.6517	-4.055087E-008	0.0006611	6
	46	139	7.512019	32733.32	-31553.16	1	45465.06	-43.94829	-4.478953E-008	0.0007027	6
	47	142	5.978954	37989.18	-32084.9	1	49725.43	-40.18377	-4.774908E-008	0.0006656	6
	48	146	4.734848	43317.58	-31983.41	1	53845.62	-36.4402	-5.229686E-008	0.0006685	6
	49	151	3.75601	48096.37	-30913.05	1	57174.1	-32.73013	-5.015486E-008	0.0007005	6
	50	157	3.004808	52146.16	-29325.13	1	59826.29	-29.35184	-4.98338E-008	0.000669	6
	51	163	2.372217	56423.34	-28016.2	1	62996.04	-26.40604	-5.862975E-008	0.0006495	6
	52	167	1.878005	58331.83	-24521.54	1	63276.44	-22.80091	-5.782437E-008	0.0006972	6
	53	176	1.512097	59434.65	-21779.05	1	63299.32	-20.1247	-5.881105E-008	0.0006409	6
	54	187	1.201923	60727.74	-19534.35	1	63792.23	-17.83147	-6.520748E-008	0.0007097	6
	55	200	0.956633	61894.97	-17464.73	1	64311.77	-15.75732	-8.148803E-008	4.893887E-005	6
