EXPLAIN
TAG	EISPOT
TITLE	LABEL	Potentiostatic EIS	Test Identifier
DATE	LABEL	8/23/2020	Date
TIME	LABEL	15:31:28	Time
NOTES	NOTES	1	Notes...
	
PSTAT	PSTAT	REF3000-16137	Potentiostat
VDC	POTEN	0.00000E+000	T	DC Voltage (V)
FREQINIT	QUANT	3.00000E+005	Initial Freq. (Hz)
FREQFINAL	QUANT	1.00000E+000	Final Freq. (Hz)
PTSPERDEC	QUANT	1.00000E+001	Points/decade
VAC	QUANT	5.00000E+001	AC Voltage (mV rms)
AREA	QUANT	1.00000E+000	Sample Area (cm^2)
SPEED	SELECTOR	2	Optimize for:
ZGUESS	QUANT	1.00000E+003	Estimated Z (ohms)
EOC	QUANT	0	Open Circuit (V)
SEQUENCER	TOGGLE	TRUE	Run as Sequence
PSTATMODEL	IQUANT	5	Pstat Model
PSTATSECTION	LABEL	REF3000-16137	Pstat Section
PSTATSERIALNO	LABEL	16137	Pstat Serial Number
CTRLMODE	IQUANT	1	Control Mode
IESTAB	IQUANT	0	I/E Stability
CASPEED	IQUANT	1	Control Amp Speed
CONVENTION	IQUANT	1	Current Convention
ICHRANGE	IQUANT	2	Ich Range
ICHRANGEMODE	TOGGLE	F	Ich Auto Range
ICHOFFSETENABLE	TOGGLE	T	Ich Offset Enable
ICHOFFSET	QUANT	0	Ich Offset (V)
ICHFILTER	IQUANT	3	Ich Filter
VCHRANGE	IQUANT	2	Vch Range
VCHRANGEMODE	TOGGLE	F	Vch Auto Range
VCHOFFSETENABLE	TOGGLE	T	Vch Offset Enable
VCHOFFSET	QUANT	0	Vch Offset (V)
VCHFILTER	IQUANT	3	Vch Filter
ACHRANGE	IQUANT	2	Ach Range
ACHOFFSETENABLE	TOGGLE	F	Ach Offset Enable
ACHOFFSET	QUANT	0	Ach Offset (V)
ACHFILTER	IQUANT	3	Ach Filter
IERANGELOWERLIMIT	IQUANT	2	I/E Range Lower Limit
IERANGEMODE	TOGGLE	F	I/E AutoRange
IERANGE	IQUANT	11	I/E Range
POSFEEDENABLE	TOGGLE	F	Positive Feedback IR Comp
POSFEEDRESISTANCE	QUANT	0	Positive Feedback Resistance (ohm)
ACHSELECT	IQUANT	0	Ach Select
CABLEID	IQUANT	13	Cable ID
DCCALDATE	LABEL	7/31/2020	DC Calibration Date
ACCALDATE	LABEL	7/31/2020	AC Calibration Date
THERMOSELECT	IQUANT	1	Thermo Select
FRAMEWORKVERSION	QUANT	6.33	Framework Version
INSTRUMENTVERSION	LABEL	3.50	Instrument Version
COMPLIANCEVOLTAGE	IQUANT	0	Compliance Voltage
ZCURVE	TABLE
	Pt	Time	Freq	Zreal	Zimag	Zsig	Zmod	Zphz	Idc	Vdc	IERange
	#	s	Hz	ohm	ohm	V	ohm	°	A	V	#
	0	16	300046.9	366.8671	-2713.98	1	2738.664	-82.30161	2.258179E-005	0.0155222	9
	1	32	238359.4	140.6296	-3304.619	1	3307.61	-87.56322	3.517756E-005	-0.0177351	9
	2	48	189328.1	271.104	-3765.667	1	3775.414	-85.88217	0.0005626	0.0017146	10
	3	58	150421.9	130.6744	-4882.219	1	4883.967	-88.46682	-0.0008213	0.0225278	9
	4	68	119484.4	13.52505	-6284.98	1	6284.995	-89.8767	0.000285	-0.0185264	9
	5	77	94921.88	602.3966	-7668.774	1	7692.397	-85.50853	4.251325E-005	0.0062591	9
	6	88	75421.88	2754.02	-10066.99	1	10436.9	-74.69999	-0.0001429	0.04136	8
	7	96	59859.37	923.0051	-12403.78	1	12438.08	-85.74428	0.0002273	-0.0012798	9
	8	106	47578.12	786.7607	-15002.09	1	15022.7	-86.99796	-0.0002908	0.0071505	9
	9	116	37828.12	806.4688	-18160.95	1	18178.84	-87.45735	-0.0002205	0.0015856	9
	10	126	30046.88	-399.9796	-26795.41	1	26798.4	-90.8552	-4.647342E-005	-0.0056416	9
	11	136	23859.38	1335.504	-31242.86	1	31271.39	-87.55233	0.0001615	-0.0431752	8
	12	142	18984.38	3725.934	-39330.98	1	39507.07	-84.58836	0.0002146	-0.0111153	9
	13	151	15046.87	7934.829	-49787.83	1	50416.16	-80.94476	0.0001411	0.0025903	9
	14	160	11953.13	3662.753	-73890.99	1	73981.72	-87.16219	0.0003013	-0.0096893	9
	15	168	9515.62	7343.957	-100546	1	100813.9	-85.82249	0.0001437	0.0025981	9
	16	178	7546.875	-465.8681	-74568.71	1	74570.16	-90.35795	4.688612E-005	-0.0082912	9
	17	187	5928.309	-109784.8	-154634.5	1	189643.2	-125.3734	4.835E-005	-0.0083426	9
	18	196	4733.456	50811.96	-163103.2	1	170834.8	-72.69649	-0.0001526	0.0417779	8
	19	204	3796.875	45895.2	-148256.2	1	155197.5	-72.79921	-5.646841E-005	-0.0291886	8
	20	211	2987.132	-131222.6	-85302.02	1	156511.4	-146.9739	-0.0000991	-0.0107151	8
	21	218	2390.625	-24969.69	-1389.992	1	25008.35	-176.8138	5.227105E-005	-0.0086183	9
	22	227	1884.191	40419.82	-66318.94	1	77665.72	-58.63868	4.053355E-005	0.0062317	9
	23	234	1516.544	50942.82	-1668823	1	1669600	-88.25152	0.0001478	-0.0544966	8
	24	242	1193.986	50150.74	458996.5	1	461728.2	83.7645	-1.289174E-005	-0.0436761	8
	25	252	946.5144	39851.19	9508.06	1	40969.75	13.41927	-0.0001489	0.0262738	8
	26	258	751.7689	-17722.5	29831.98	1	34699.2	120.7136	-7.367926E-005	0.0582827	8
	27	264	597.4265	40019.44	35595.67	1	53559.38	41.6518	9.105766E-005	-0.0586069	8
	28	269	477.4305	1170776	-1366537	1	1799484	-49.4118	-2.319622E-006	0.0006856	8
	29	275	376.6741	1384655	-2070825	1	2491101	-56.23138	-8.467061E-008	0.0005471	6
	30	280	298.2954	4471263	-1838390	1	4834446	-22.35035	-8.951512E-009	0.0007379	5
	31	284	237.7717	4484171	-2239634	1	5012360	-26.53999	-8.630186E-009	0.0005542	5
	32	287	189.0121	4899894	-2004821	1	5294173	-22.25222	-8.456012E-009	0.0005218	5
	33	291	150.2404	5447070	-1008049	1	5539561	-10.48469	-7.896415E-009	0.0007843	5
	34	295	119.1737	2592725	-913557	1	2748965	-19.41011	-8.754705E-009	0.0005714	5
	35	299	95.0169	4429024	-2685936	1	5179817	-31.23429	-8.588356E-008	0.0006391	6
	36	303	75.60484	6234114	-2387665	1	6675711	-20.95684	-1.023063E-008	0.0007608	5
	37	307	54.50582	7663005	-1873064	1	7888601	-13.73546	-7.091217E-009	0.0005494	5
	38	311	45.95588	2.753968E+007	-9306509	1	2.906966E+007	-18.6717	-1.039178E-009	0.0005802	4
	39	314	37.20238	7510026	-3007904	1	8089993	-21.82701	-8.705227E-008	0.0008014	6
	40	320	30.04808	9.699417E+006	-378414.8	1	9.706796E+006	-2.234215	-8.628497E-008	0.0005504	6
	41	327	23.91582	9030684	-1829252	1	9214088	-11.45088	-8.361096E-008	0.0005463	6
	42	333	18.60119	5596101	-2762752	1	6240925	-26.2752	-8.479036E-008	0.0007594	6
	43	338	15.02404	8281253	-195172.2	1	8283553	-1.350094	-1.044914E-008	0.0008021	5
	44	341	12.01923	8454778	-1135980	1	8530752	-7.652404	-8.528392E-008	0.0005275	6
	45	346	9.450605	8664832	-2836359	1	9117250	-18.12542	-8.489931E-008	0.0005931	6
	46	352	7.512019	9352555	-780906.4	1	9385100	-4.772931	-8.650926E-008	0.0007681	6
	47	359	5.978954	9.821838E+006	-1018771	1	9.874533E+006	-5.92183	-8.467673E-008	0.0005866	6
	48	367	4.734848	1.040381E+007	-1297012	1	1.048435E+007	-7.106233	-8.543744E-009	0.0005558	5
	49	374	3.75601	3.343147E+007	-3340291	1	3.359793E+007	-5.705746	-6.447735E-010	0.0007814	4
	50	381	3.004808	1.107245E+007	-1848858	1	1.122574E+007	-9.479693	-8.669591E-008	0.0005711	6
	51	392	2.372217	1.125011E+007	-1572074	1	1.135942E+007	-7.954919	-8.850549E-009	0.0006488	5
	52	400	1.878005	3.597382E+007	-4437018	1	3.624642E+007	-7.031361	-2.688923E-010	0.0006449	4
	53	409	1.512097	3.624629E+007	-6150449	1	3.67644E+007	-9.6305	-2.505287E-010	0.000569	4
	54	419	1.201923	3.498183E+007	-5715499	1	3.544567E+007	-9.279268	-3.183346E-010	0.0006399	4
	55	432	0.956633	4.232098E+007	-8568068	1	4.31796E+007	-11.44508	-2.251719E-010	1.087356E-006	4
