EXPLAIN
TAG	EISPOT
TITLE	LABEL	Potentiostatic EIS	Test Identifier
DATE	LABEL	8/23/2020	Date
TIME	LABEL	17:00:13	Time
NOTES	NOTES	1	Notes...
	
PSTAT	PSTAT	REF3000-16137	Potentiostat
VDC	POTEN	0.00000E+000	T	DC Voltage (V)
FREQINIT	QUANT	3.00000E+005	Initial Freq. (Hz)
FREQFINAL	QUANT	1.00000E+000	Final Freq. (Hz)
PTSPERDEC	QUANT	1.00000E+001	Points/decade
VAC	QUANT	5.00000E+001	AC Voltage (mV rms)
AREA	QUANT	1.00000E+000	Sample Area (cm^2)
SPEED	SELECTOR	2	Optimize for:
ZGUESS	QUANT	1.00000E+003	Estimated Z (ohms)
EOC	QUANT	0	Open Circuit (V)
SEQUENCER	TOGGLE	TRUE	Run as Sequence
PSTATMODEL	IQUANT	5	Pstat Model
PSTATSECTION	LABEL	REF3000-16137	Pstat Section
PSTATSERIALNO	LABEL	16137	Pstat Serial Number
CTRLMODE	IQUANT	1	Control Mode
IESTAB	IQUANT	0	I/E Stability
CASPEED	IQUANT	1	Control Amp Speed
CONVENTION	IQUANT	1	Current Convention
ICHRANGE	IQUANT	2	Ich Range
ICHRANGEMODE	TOGGLE	F	Ich Auto Range
ICHOFFSETENABLE	TOGGLE	T	Ich Offset Enable
ICHOFFSET	QUANT	0	Ich Offset (V)
ICHFILTER	IQUANT	3	Ich Filter
VCHRANGE	IQUANT	2	Vch Range
VCHRANGEMODE	TOGGLE	F	Vch Auto Range
VCHOFFSETENABLE	TOGGLE	T	Vch Offset Enable
VCHOFFSET	QUANT	0	Vch Offset (V)
VCHFILTER	IQUANT	3	Vch Filter
ACHRANGE	IQUANT	2	Ach Range
ACHOFFSETENABLE	TOGGLE	F	Ach Offset Enable
ACHOFFSET	QUANT	0	Ach Offset (V)
ACHFILTER	IQUANT	3	Ach Filter
IERANGELOWERLIMIT	IQUANT	2	I/E Range Lower Limit
IERANGEMODE	TOGGLE	F	I/E AutoRange
IERANGE	IQUANT	11	I/E Range
POSFEEDENABLE	TOGGLE	F	Positive Feedback IR Comp
POSFEEDRESISTANCE	QUANT	0	Positive Feedback Resistance (ohm)
ACHSELECT	IQUANT	0	Ach Select
CABLEID	IQUANT	13	Cable ID
DCCALDATE	LABEL	7/31/2020	DC Calibration Date
ACCALDATE	LABEL	7/31/2020	AC Calibration Date
THERMOSELECT	IQUANT	1	Thermo Select
FRAMEWORKVERSION	QUANT	6.33	Framework Version
INSTRUMENTVERSION	LABEL	3.50	Instrument Version
COMPLIANCEVOLTAGE	IQUANT	0	Compliance Voltage
ZCURVE	TABLE
	Pt	Time	Freq	Zreal	Zimag	Zsig	Zmod	Zphz	Idc	Vdc	IERange
	#	s	Hz	ohm	ohm	V	ohm	°	A	V	#
	0	16	300046.9	259.2729	-46.32599	1	263.3791	-10.13051	0.0006214	-0.0038877	10
	1	30	238359.4	266.0833	-23.80358	1	267.1459	-5.112022	-5.28465E-005	-0.0128843	9
	2	44	189328.1	264.4823	-41.01904	1	267.6443	-8.81587	-0.0001156	-0.0014119	10
	3	52	150421.9	269.472	-30.24013	1	271.1635	-6.40294	0.0002702	0.0054901	9
	4	60	119484.4	269.9336	-40.60194	1	272.9701	-8.553993	0.0007814	-0.0012842	10
	5	67	94921.88	275.4435	-33.83654	1	277.514	-7.003345	-0.0002437	0.005161	9
	6	72	75421.88	276.8619	-39.31409	1	279.6393	-8.081906	0.0002615	-0.0057309	9
	7	79	59859.37	280.2105	-43.23915	1	283.527	-8.772095	0.0002583	-0.0055677	9
	8	84	47578.12	284.8672	-50.13378	1	289.2451	-9.98127	8.600267E-005	-0.008131	9
	9	92	37828.12	290.0799	-57.07883	1	295.6423	-11.13184	-0.0000959	0.0085795	9
	10	97	30046.88	294.4156	-66.3746	1	301.8048	-12.70466	-7.777172E-005	-0.0034133	9
	11	101	23859.38	301.1211	-75.55622	1	310.4556	-14.08565	-1.391537E-005	0.0067033	9
	12	106	18984.38	307.0112	-87.13491	1	319.1369	-15.84483	0.0002644	-0.0075329	9
	13	112	15046.87	314.0687	-100.9968	1	329.9083	-17.82651	-0.0002105	0.0027524	9
	14	117	11953.13	322.4014	-116.8199	1	342.9134	-19.91763	-0.0002105	0.0026892	9
	15	122	9515.62	330.3236	-138.0203	1	357.999	-22.67682	-4.806969E-005	-0.0002653	10
	16	128	7546.875	338.1479	-159.8493	1	374.0264	-25.30104	8.362828E-005	-0.0079677	9
	17	133	5928.309	346.5794	-191.5277	1	395.98	-28.92604	0.0002106	-0.0094228	9
	18	138	4733.456	354.8138	-229.9162	1	422.7935	-32.94288	-0.0001614	0.0094474	9
	19	143	3796.875	363.8075	-270.421	1	453.3028	-36.62372	0.0001554	0.0006536	9
	20	149	2987.132	376.2559	-334.7418	1	503.6075	-41.65838	-0.0002138	0.0095513	9
	21	154	2390.625	383.1873	-401.2536	1	554.8306	-46.31933	0.0002484	-0.0088462	9
	22	159	1884.191	404.0677	-497.2968	1	640.7612	-50.90517	0.0002636	-0.0075025	9
	23	165	1516.544	415.7584	-604.0236	1	733.28	-55.45979	0.0001556	-0.0091768	9
	24	170	1193.986	430.2176	-739.3839	1	855.4389	-59.80661	-0.0001609	0.0094482	9
	25	177	946.5144	512.4378	-945.9224	1	1075.807	-61.55412	-8.512492E-005	-0.0030185	9
	26	182	751.7689	517.056	-1107.31	1	1222.081	-64.96987	-4.022062E-005	0.031029	8
	27	184	597.4265	554.0521	-1414.174	1	1518.836	-68.60551	8.676523E-005	-0.0164484	8
	28	187	477.4305	640.0081	-1716.099	1	1831.559	-69.54733	-5.490816E-007	0.0007077	8
	29	189	376.6741	737.1154	-2110.934	1	2235.929	-70.75135	-3.864996E-007	0.0006059	8
	30	191	298.2954	867.3214	-2589.6	1	2730.984	-71.48302	-3.457303E-007	0.0006131	8
	31	194	237.7717	1038.133	-3169.302	1	3334.996	-71.86333	-4.105716E-007	0.0006037	8
	32	196	189.0121	1256.859	-3845.211	1	4045.41	-71.89933	-3.101285E-007	0.0006202	8
	33	199	150.2404	1604.136	-4742.525	1	5006.476	-71.31214	-1.756928E-007	0.000703	7
	34	201	119.1737	1998.064	-5772.654	1	6108.666	-70.90794	-1.558049E-007	0.0006197	7
	35	203	95.0169	2514.252	-6878.333	1	7323.451	-69.92101	-1.415633E-007	0.0005866	7
	36	206	75.60484	3237.989	-8309.42	1	8918.018	-68.71029	-1.69503E-007	0.0006337	7
	37	209	54.50582	4638.855	-10579.9	1	11552.19	-66.32449	-1.45981E-007	0.000696	7
	38	211	45.95588	5657.997	-12008.82	1	13274.96	-64.77237	-1.604861E-007	0.00071	7
	39	213	37.20238	7182.065	-13834.35	1	15587.54	-62.56404	-1.449771E-007	0.0005771	7
	40	216	30.04808	9044.349	-15706.14	1	18124.1	-60.0646	-1.474765E-007	0.000566	7
	41	219	23.91582	11568.48	-17837.97	1	21260.83	-57.03534	-1.501005E-007	0.0006855	7
	42	221	18.60119	14824.57	-20029.66	1	24918.97	-53.49371	-1.428042E-007	0.0005827	7
	43	224	15.02404	18191.73	-21900.87	1	28470.82	-50.28563	-1.69789E-007	0.0006179	7
	44	226	12.01923	21753.47	-23200.37	1	31803.62	-46.84351	-1.437127E-007	0.0005546	7
	45	229	9.450605	26301.5	-24481.55	1	35932.09	-42.94753	-1.594038E-007	0.0005812	7
	46	231	7.512019	30451.94	-24929.42	1	39354.75	-39.30541	-1.561188E-007	0.0005533	7
	47	235	5.978954	34713.66	-24735.06	1	42624.66	-35.4716	-1.115022E-007	0.0006114	6
	48	239	4.734848	38792.36	-24208.07	1	45726.12	-31.9659	-1.089825E-007	0.0006631	6
	49	242	3.75601	42104.02	-22858.16	1	47908.7	-28.49742	-1.113827E-007	0.0007434	6
	50	248	3.004808	44836.35	-21288.78	1	49633.77	-25.39887	-1.154936E-007	0.0007021	6
	51	254	2.372217	47112.84	-19417.84	1	50957.55	-22.39931	-1.180329E-007	0.0006708	6
	52	262	1.878005	48261.29	-16989.25	1	51164.31	-19.39341	-1.223135E-007	0.0006699	6
	53	271	1.512097	49249.77	-15457.68	1	51618.6	-17.42514	-1.258987E-007	0.0007562	6
	54	282	1.201923	49857.56	-13782.85	1	51727.59	-15.45317	-1.288825E-007	0.0006815	6
	55	294	0.956633	50724	-12353.1	1	52206.55	-13.68713	-1.560149E-007	-6.103835E-006	6
