EXPLAIN
TAG	EISPOT
TITLE	LABEL	Potentiostatic EIS	Test Identifier
DATE	LABEL	8/23/2020	Date
TIME	LABEL	18:02:08	Time
NOTES	NOTES	1	Notes...
	
PSTAT	PSTAT	REF3000-16137	Potentiostat
VDC	POTEN	0.00000E+000	T	DC Voltage (V)
FREQINIT	QUANT	3.00000E+005	Initial Freq. (Hz)
FREQFINAL	QUANT	1.00000E+000	Final Freq. (Hz)
PTSPERDEC	QUANT	1.00000E+001	Points/decade
VAC	QUANT	5.00000E+001	AC Voltage (mV rms)
AREA	QUANT	1.00000E+000	Sample Area (cm^2)
SPEED	SELECTOR	2	Optimize for:
ZGUESS	QUANT	1.00000E+003	Estimated Z (ohms)
EOC	QUANT	0	Open Circuit (V)
SEQUENCER	TOGGLE	TRUE	Run as Sequence
PSTATMODEL	IQUANT	5	Pstat Model
PSTATSECTION	LABEL	REF3000-16137	Pstat Section
PSTATSERIALNO	LABEL	16137	Pstat Serial Number
CTRLMODE	IQUANT	1	Control Mode
IESTAB	IQUANT	0	I/E Stability
CASPEED	IQUANT	1	Control Amp Speed
CONVENTION	IQUANT	1	Current Convention
ICHRANGE	IQUANT	2	Ich Range
ICHRANGEMODE	TOGGLE	F	Ich Auto Range
ICHOFFSETENABLE	TOGGLE	T	Ich Offset Enable
ICHOFFSET	QUANT	0	Ich Offset (V)
ICHFILTER	IQUANT	3	Ich Filter
VCHRANGE	IQUANT	2	Vch Range
VCHRANGEMODE	TOGGLE	F	Vch Auto Range
VCHOFFSETENABLE	TOGGLE	T	Vch Offset Enable
VCHOFFSET	QUANT	0	Vch Offset (V)
VCHFILTER	IQUANT	3	Vch Filter
ACHRANGE	IQUANT	2	Ach Range
ACHOFFSETENABLE	TOGGLE	F	Ach Offset Enable
ACHOFFSET	QUANT	0	Ach Offset (V)
ACHFILTER	IQUANT	3	Ach Filter
IERANGELOWERLIMIT	IQUANT	2	I/E Range Lower Limit
IERANGEMODE	TOGGLE	F	I/E AutoRange
IERANGE	IQUANT	11	I/E Range
POSFEEDENABLE	TOGGLE	F	Positive Feedback IR Comp
POSFEEDRESISTANCE	QUANT	0	Positive Feedback Resistance (ohm)
ACHSELECT	IQUANT	0	Ach Select
CABLEID	IQUANT	13	Cable ID
DCCALDATE	LABEL	7/31/2020	DC Calibration Date
ACCALDATE	LABEL	7/31/2020	AC Calibration Date
THERMOSELECT	IQUANT	1	Thermo Select
FRAMEWORKVERSION	QUANT	6.33	Framework Version
INSTRUMENTVERSION	LABEL	3.50	Instrument Version
COMPLIANCEVOLTAGE	IQUANT	0	Compliance Voltage
ZCURVE	TABLE
	Pt	Time	Freq	Zreal	Zimag	Zsig	Zmod	Zphz	Idc	Vdc	IERange
	#	s	Hz	ohm	ohm	V	ohm	°	A	V	#
	0	9	300046.9	261.5477	-22.77757	1	262.5377	-4.977196	-7.136577E-006	0.0011816	9
	1	14	238359.4	263.3487	-28.63427	1	264.9009	-6.20547	2.968283E-005	0.0007044	10
	2	19	189328.1	264.858	-24.20207	1	265.9615	-5.221047	5.5862E-006	-0.0014764	9
	3	23	150421.9	265.4255	-28.95049	1	266.9997	-6.224759	-2.125927E-005	0.0005218	10
	4	28	119484.4	268.0845	-30.92133	1	269.8619	-6.579519	-9.184745E-005	0.000154	10
	5	32	94921.88	270.5978	-31.63956	1	272.4413	-6.669008	5.899598E-006	-0.0005699	9
	6	36	75421.88	273.3576	-36.17834	1	275.7413	-7.539169	3.115723E-006	0.0005539	9
	7	39	59859.37	276.4967	-41.11488	1	279.5369	-8.45787	-1.651988E-005	0.000158	9
	8	42	47578.12	280.1187	-47.22169	1	284.0711	-9.56881	6.437183E-006	-0.00058	9
	9	44	37828.12	284.2535	-54.21561	1	289.3776	-10.79832	-1.957344E-005	0.0004232	9
	10	47	30046.88	289.1261	-62.86578	1	295.8817	-12.2671	-2.042037E-005	0.0009164	9
	11	51	23859.38	294.6973	-72.59704	1	303.5075	-13.83895	-1.195631E-005	8.771199E-006	9
	12	53	18984.38	300.6811	-84.13418	1	312.2302	-15.63226	-2.148054E-005	0.0009525	9
	13	55	15046.87	307.8251	-98.1994	1	323.109	-17.69322	-4.136779E-006	-0.0002716	9
	14	58	11953.13	313.4789	-114.5968	1	333.7686	-20.08063	2.735477E-005	-0.0006257	9
	15	60	9515.62	320.484	-133.9325	1	347.3441	-22.6804	-1.985999E-005	0.0009899	9
	16	62	7546.875	326.7303	-160.1255	1	363.8583	-26.10877	-3.845506E-006	-0.00027	9
	17	64	5928.309	334.546	-190.3217	1	384.894	-29.63536	1.205996E-005	-0.0026296	8
	18	67	4733.456	341.3833	-227.9036	1	410.4663	-33.72662	1.215312E-005	-0.0021338	8
	19	69	3796.875	349.9511	-274.268	1	444.622	-38.08694	-1.157557E-005	0.0036992	8
	20	71	2987.132	359.0676	-335.7404	1	491.5802	-43.0771	-1.07117E-005	0.0026975	8
	21	74	2390.625	369.0764	-409.0677	1	550.9572	-47.94203	-2.385893E-006	0.003932	8
	22	76	1884.191	384.318	-508.5627	1	637.4451	-52.92186	-3.574454E-006	-0.0008226	8
	23	78	1516.544	397.3164	-615.8778	1	732.916	-57.17304	1.194864E-005	-0.003403	8
	24	81	1193.986	422.0299	-766.2939	1	874.8232	-61.1566	-3.327514E-006	-0.00081	8
	25	83	946.5144	451.7067	-944.7213	1	1047.157	-64.44579	-2.178549E-006	0.0040224	8
	26	86	751.7689	490.5884	-1170.488	1	1269.141	-67.2599	1.200283E-005	-0.0026783	8
	27	89	597.4265	542.8782	-1439.73	1	1538.681	-69.34007	-1.178229E-005	0.0037897	8
	28	91	477.4305	611.0101	-1764.863	1	1867.639	-70.90372	-9.159224E-008	0.0006456	8
	29	94	376.6741	705.6509	-2183.224	1	2294.431	-72.08839	-1.188128E-007	0.0006629	8
	30	96	298.2954	829.9904	-2686.039	1	2811.35	-72.82877	-1.373964E-007	0.0007029	8
	31	98	237.7717	990.049	-3279.566	1	3425.748	-73.20176	-1.120114E-007	0.0006527	8
	32	101	189.0121	1200.919	-4006.363	1	4182.481	-73.31374	-1.100771E-007	0.0006565	8
	33	103	150.2404	1487.997	-4891.668	1	5112.979	-73.08076	-7.475419E-008	0.0006396	7
	34	106	119.1737	1866.299	-5954.415	1	6240.042	-72.59738	-6.765411E-008	0.0006268	7
	35	108	95.0169	2348.682	-7202.192	1	7575.479	-71.93851	-6.690812E-008	0.0006337	7
	36	110	75.60484	3005.344	-8686.48	1	9191.683	-70.91543	-6.717102E-008	0.0006396	7
	37	113	54.50582	4337.885	-11255.44	1	12062.43	-68.92316	-6.032059E-008	0.0006202	7
	38	116	45.95588	5277.485	-12819.79	1	13863.58	-67.62464	-6.372154E-008	0.0006364	7
	39	118	37.20238	6742.818	-14935.46	1	16386.99	-65.70255	-6.066146E-008	0.0006283	7
	40	120	30.04808	8629.316	-17283.89	1	19318.33	-63.46845	-5.659717E-008	0.0006127	7
	41	123	23.91582	11108.77	-19923.16	1	22810.9	-60.85682	-6.472627E-008	0.0006335	7
	42	125	18.60119	14618.2	-22865.05	1	27138.57	-57.40819	-5.787915E-008	0.000618	7
	43	127	15.02404	18089.17	-25394.34	1	31178.37	-54.53656	-6.444097E-008	0.0006429	7
	44	130	12.01923	22321.12	-27770.21	1	35628.88	-51.2084	-6.414668E-008	0.0006199	7
	45	132	9.450605	27387.25	-29680.88	1	40385.85	-47.30154	-5.918796E-008	0.0006749	7
	46	135	7.512019	32537	-31178.43	1	45063.85	-43.7785	-4.793042E-008	0.0007098	6
	47	138	5.978954	37784.03	-31559.94	1	49230.71	-39.87106	-5.159687E-008	0.0006764	6
	48	142	4.734848	43020.37	-31250.98	1	53173.07	-35.99551	-5.422607E-008	0.0006824	6
	49	147	3.75601	47645.91	-30120.8	1	56368.39	-32.30027	-5.297306E-008	0.0006881	6
	50	152	3.004808	51650.36	-28554.42	1	59017.92	-28.9356	-5.812755E-008	0.0006853	6
	51	159	2.372217	55089.23	-26326.3	1	61056.51	-25.54242	-6.165305E-008	0.0006222	6
	52	166	1.878005	57133.77	-23216.94	1	61670.86	-22.11491	-6.031644E-008	0.0006785	6
	53	175	1.512097	58617.12	-21021.27	1	62272.48	-19.72885	-6.426534E-008	0.0006668	6
	54	186	1.201923	59811.77	-18753.6	1	62682.9	-17.40849	-6.780935E-008	0.0007016	6
	55	199	0.956633	61205.56	-16806.14	1	63471	-15.35415	-9.042056E-008	4.473725E-005	6
