EXPLAIN
TAG	EISPOT
TITLE	LABEL	Potentiostatic EIS	Test Identifier
DATE	LABEL	8/23/2020	Date
TIME	LABEL	16:35:25	Time
NOTES	NOTES	1	Notes...
	
PSTAT	PSTAT	REF3000-16137	Potentiostat
VDC	POTEN	0.00000E+000	T	DC Voltage (V)
FREQINIT	QUANT	3.00000E+005	Initial Freq. (Hz)
FREQFINAL	QUANT	1.00000E+000	Final Freq. (Hz)
PTSPERDEC	QUANT	1.00000E+001	Points/decade
VAC	QUANT	5.00000E+001	AC Voltage (mV rms)
AREA	QUANT	1.00000E+000	Sample Area (cm^2)
SPEED	SELECTOR	2	Optimize for:
ZGUESS	QUANT	1.00000E+003	Estimated Z (ohms)
EOC	QUANT	0	Open Circuit (V)
SEQUENCER	TOGGLE	TRUE	Run as Sequence
PSTATMODEL	IQUANT	5	Pstat Model
PSTATSECTION	LABEL	REF3000-16137	Pstat Section
PSTATSERIALNO	LABEL	16137	Pstat Serial Number
CTRLMODE	IQUANT	1	Control Mode
IESTAB	IQUANT	0	I/E Stability
CASPEED	IQUANT	1	Control Amp Speed
CONVENTION	IQUANT	1	Current Convention
ICHRANGE	IQUANT	2	Ich Range
ICHRANGEMODE	TOGGLE	F	Ich Auto Range
ICHOFFSETENABLE	TOGGLE	T	Ich Offset Enable
ICHOFFSET	QUANT	0	Ich Offset (V)
ICHFILTER	IQUANT	3	Ich Filter
VCHRANGE	IQUANT	2	Vch Range
VCHRANGEMODE	TOGGLE	F	Vch Auto Range
VCHOFFSETENABLE	TOGGLE	T	Vch Offset Enable
VCHOFFSET	QUANT	0	Vch Offset (V)
VCHFILTER	IQUANT	3	Vch Filter
ACHRANGE	IQUANT	2	Ach Range
ACHOFFSETENABLE	TOGGLE	F	Ach Offset Enable
ACHOFFSET	QUANT	0	Ach Offset (V)
ACHFILTER	IQUANT	3	Ach Filter
IERANGELOWERLIMIT	IQUANT	2	I/E Range Lower Limit
IERANGEMODE	TOGGLE	F	I/E AutoRange
IERANGE	IQUANT	11	I/E Range
POSFEEDENABLE	TOGGLE	F	Positive Feedback IR Comp
POSFEEDRESISTANCE	QUANT	0	Positive Feedback Resistance (ohm)
ACHSELECT	IQUANT	0	Ach Select
CABLEID	IQUANT	13	Cable ID
DCCALDATE	LABEL	7/31/2020	DC Calibration Date
ACCALDATE	LABEL	7/31/2020	AC Calibration Date
THERMOSELECT	IQUANT	1	Thermo Select
FRAMEWORKVERSION	QUANT	6.33	Framework Version
INSTRUMENTVERSION	LABEL	3.50	Instrument Version
COMPLIANCEVOLTAGE	IQUANT	0	Compliance Voltage
ZCURVE	TABLE
	Pt	Time	Freq	Zreal	Zimag	Zsig	Zmod	Zphz	Idc	Vdc	IERange
	#	s	Hz	ohm	ohm	V	ohm	°	A	V	#
	0	17	300046.9	34.46064	-4822.294	1	4822.417	-89.59057	2.055878E-006	0.0015278	9
	1	32	238359.4	319.0145	-6309.761	1	6317.821	-87.10565	-1.83714E-005	0.0015156	9
	2	52	189328.1	366.9035	-7499.156	1	7508.126	-87.19898	2.57286E-005	0.0010774	9
	3	59	150421.9	184.1006	-9270.816	1	9272.645	-88.86237	-0.0001095	0.0039359	9
	4	72	119484.4	450.9903	-11563.74	1	11572.53	-87.76657	1.870811E-005	-0.0003089	9
	5	81	94921.88	676.5573	-14205.68	1	14221.78	-87.2733	-1.218585E-005	0.0103494	8
	6	90	75421.88	1033.824	-18174.59	1	18203.97	-86.74435	-2.640427E-005	0.0076418	8
	7	98	59859.37	1181.286	-22972.64	1	23002.99	-87.05636	-1.621111E-005	0.0005733	8
	8	107	47578.12	4859.934	-29521	1	29918.36	-80.65146	-3.851183E-006	0.0257471	7
	9	113	37828.12	2763.24	-34194.43	1	34305.89	-85.37999	-1.234592E-005	0.010468	8
	10	122	30046.88	8014.424	-44714.16	1	45426.72	-79.83839	-1.860325E-006	0.0222672	7
	11	129	23859.38	11474.36	-54191.47	1	55392.93	-78.04491	6.967776E-006	-0.0275967	7
	12	135	18984.38	16346.86	-67416.71	1	69370.26	-76.37027	-6.841482E-006	0.012506	7
	13	140	15046.87	23609.19	-81633.75	1	84979.19	-73.86967	-7.334569E-006	0.023862	7
	14	145	11953.13	31988.63	-91840.73	1	97252.2	-70.79649	-1.98927E-005	0.0113632	8
	15	153	9515.62	14405.66	-73548.51	1	74946.02	-78.91799	-6.484747E-005	-0.0032536	9
	16	164	7546.875	18203.43	-71031.46	1	73326.89	-75.626	-0.0001345	0.0476899	8
	17	170	5928.309	29712.2	-33229.1	1	44575.64	-48.19813	-0.0001525	-0.0014532	9
	18	179	4733.456	107882	-79878.63	1	134235.3	-36.51721	-0.0001418	0.0272951	8
	19	187	3796.875	54807.8	-12906.42	1	56306.93	-13.25089	-0.0002293	0.0019758	9
	20	196	2987.132	50576.56	-44961.84	1	67672.41	-41.63664	0.0002302	-0.0015487	9
	21	205	2390.625	16939.37	-13646.7	1	21752.58	-38.85563	0.0002814	-0.0052665	9
	22	215	1884.191	81176.66	-28468.32	1	86023.8	-19.32556	0.000232	-0.0020288	9
	23	225	1516.544	-28601.8	88579.55	1	93082.77	107.895	9.050336E-005	-0.0085114	9
	24	235	1193.986	-8250.153	-33930.38	1	34918.99	-103.6662	-0.0001469	-0.0019264	9
	25	245	946.5144	-56795.83	14976.84	1	58737.31	165.2276	0.000122	-0.0591521	8
	26	251	751.7689	-9024.174	-16454.69	1	18766.79	-118.7415	0.0001244	-0.0583737	8
	27	257	597.4265	11044.4	-19083.89	1	22049.35	-59.9408	0.0002719	-0.0110508	9
	28	263	477.4305	55138.78	-13052.58	1	56662.64	-13.31804	-1.464739E-007	0.000102	9
	29	269	376.6741	86145.34	-9313.289	1	86647.32	-6.170359	-8.020093E-008	0.0006843	6
	30	272	298.2954	84078.75	-12140.43	1	84950.73	-8.216353	-7.651676E-008	0.0005974	6
	31	275	237.7717	83311.34	-14693.95	1	84597.23	-10.00261	-7.884468E-008	0.000779	6
	32	277	189.0121	82795.4	-17479.99	1	84620.49	-11.92138	-7.950936E-008	0.0008037	6
	33	280	150.2404	82299.91	-20867.25	1	84904.17	-14.22759	-7.949771E-008	0.000546	6
	34	283	119.1737	81588.2	-25295.81	1	85419.63	-17.22565	-7.873555E-008	0.0007833	6
	35	285	95.0169	83010	-25842.2	1	86939.52	-17.29211	-8.136855E-008	0.0006475	6
	36	288	75.60484	83253.98	-28932.75	1	88138.13	-19.16356	-7.992183E-008	0.0006024	6
	37	291	54.50582	86630.7	-34174.13	1	93127.59	-21.52827	-8.143813E-008	0.0006853	6
	38	293	45.95588	85789.1	-35542.57	1	92860.35	-22.50431	-7.982282E-008	0.0006917	6
	39	296	37.20238	86954.22	-39099.53	1	95340.5	-24.21137	-8.079392E-008	0.0007906	6
	40	298	30.04808	87641.13	-42827.04	1	97545.5	-26.04308	-7.866365E-008	0.0005914	6
	41	301	23.91582	88175.89	-47771.45	1	100285.1	-28.44771	-7.899931E-008	0.0006345	6
	42	304	18.60119	89995.9	-55337.56	1	105648	-31.58694	-7.757652E-008	0.0005337	6
	43	306	15.02404	91610.16	-63787.54	1	111630.1	-34.84924	-8.202849E-008	0.0006913	6
	44	309	12.01923	92447.06	-74256.95	1	118577.2	-38.77274	-8.195607E-008	0.0005512	6
	45	311	9.450605	96053	-88267.76	1	130450.7	-42.5814	-8.226201E-008	0.0007882	6
	46	314	7.512019	99013	-104687.3	1	144093.8	-46.59563	-8.25604E-008	0.0005298	6
	47	317	5.978954	103734.8	-124527.6	1	162074.1	-50.2048	-8.192447E-008	0.000776	6
	48	321	4.734848	111203.2	-147685.3	1	184870.5	-53.02119	-8.352976E-008	0.0008017	6
	49	326	3.75601	120764.8	-169565.4	1	208174.3	-54.54146	-8.336001E-008	0.0006107	6
	50	332	3.004808	90030.77	-145902	1	171443.7	-58.3228	-1.157025E-008	0.0007215	6
	51	336	2.372217	103577.7	-171683.2	1	200508	-58.89711	-1.021512E-008	0.0007269	6
	52	340	1.878005	120472.1	-199059.3	1	232676	-58.81738	-1.050562E-008	0.0006472	6
	53	344	1.512097	138858.1	-225795.9	1	265076.2	-58.40965	-1.087559E-008	0.0007699	6
	54	350	1.201923	162074.4	-255914.8	1	302920	-57.65335	-1.048146E-008	0.0006537	6
	55	356	0.956633	188331.7	-286213.2	1	342617.6	-56.65461	-1.252753E-008	2.904944E-005	6
