EXPLAIN
TAG	EISPOT
TITLE	LABEL	Potentiostatic EIS	Test Identifier
DATE	LABEL	8/23/2020	Date
TIME	LABEL	18:09:05	Time
NOTES	NOTES	1	Notes...
	
PSTAT	PSTAT	REF3000-16137	Potentiostat
VDC	POTEN	0.00000E+000	T	DC Voltage (V)
FREQINIT	QUANT	3.00000E+005	Initial Freq. (Hz)
FREQFINAL	QUANT	1.00000E+000	Final Freq. (Hz)
PTSPERDEC	QUANT	1.00000E+001	Points/decade
VAC	QUANT	5.00000E+001	AC Voltage (mV rms)
AREA	QUANT	1.00000E+000	Sample Area (cm^2)
SPEED	SELECTOR	2	Optimize for:
ZGUESS	QUANT	1.00000E+003	Estimated Z (ohms)
EOC	QUANT	0	Open Circuit (V)
SEQUENCER	TOGGLE	TRUE	Run as Sequence
PSTATMODEL	IQUANT	5	Pstat Model
PSTATSECTION	LABEL	REF3000-16137	Pstat Section
PSTATSERIALNO	LABEL	16137	Pstat Serial Number
CTRLMODE	IQUANT	1	Control Mode
IESTAB	IQUANT	0	I/E Stability
CASPEED	IQUANT	1	Control Amp Speed
CONVENTION	IQUANT	1	Current Convention
ICHRANGE	IQUANT	2	Ich Range
ICHRANGEMODE	TOGGLE	F	Ich Auto Range
ICHOFFSETENABLE	TOGGLE	T	Ich Offset Enable
ICHOFFSET	QUANT	0	Ich Offset (V)
ICHFILTER	IQUANT	3	Ich Filter
VCHRANGE	IQUANT	2	Vch Range
VCHRANGEMODE	TOGGLE	F	Vch Auto Range
VCHOFFSETENABLE	TOGGLE	T	Vch Offset Enable
VCHOFFSET	QUANT	0	Vch Offset (V)
VCHFILTER	IQUANT	3	Vch Filter
ACHRANGE	IQUANT	2	Ach Range
ACHOFFSETENABLE	TOGGLE	F	Ach Offset Enable
ACHOFFSET	QUANT	0	Ach Offset (V)
ACHFILTER	IQUANT	3	Ach Filter
IERANGELOWERLIMIT	IQUANT	2	I/E Range Lower Limit
IERANGEMODE	TOGGLE	F	I/E AutoRange
IERANGE	IQUANT	11	I/E Range
POSFEEDENABLE	TOGGLE	F	Positive Feedback IR Comp
POSFEEDRESISTANCE	QUANT	0	Positive Feedback Resistance (ohm)
ACHSELECT	IQUANT	0	Ach Select
CABLEID	IQUANT	13	Cable ID
DCCALDATE	LABEL	7/31/2020	DC Calibration Date
ACCALDATE	LABEL	7/31/2020	AC Calibration Date
THERMOSELECT	IQUANT	1	Thermo Select
FRAMEWORKVERSION	QUANT	6.33	Framework Version
INSTRUMENTVERSION	LABEL	3.50	Instrument Version
COMPLIANCEVOLTAGE	IQUANT	0	Compliance Voltage
ZCURVE	TABLE
	Pt	Time	Freq	Zreal	Zimag	Zsig	Zmod	Zphz	Idc	Vdc	IERange
	#	s	Hz	ohm	ohm	V	ohm	°	A	V	#
	0	10	300046.9	261.3873	-23.1588	1	262.4113	-5.063159	1.574692E-005	0.0007922	9
	1	14	238359.4	262.7516	-23.22733	1	263.7763	-5.051832	-8.445255E-005	0.0022123	9
	2	19	189328.1	263.9975	-24.13668	1	265.0985	-5.223897	7.231692E-005	-0.00165	9
	3	25	150421.9	265.6739	-28.86128	1	267.2369	-6.19997	-6.687123E-005	0.0008354	10
	4	31	119484.4	267.8174	-28.39389	1	269.3183	-6.051868	7.718777E-005	-0.0022173	9
	5	35	94921.88	269.9525	-31.81026	1	271.8203	-6.720543	6.178052E-006	0.0005282	9
	6	39	75421.88	272.7752	-35.74578	1	275.1074	-7.465773	2.511815E-005	-0.0002717	9
	7	43	59859.37	276.0715	-41.16581	1	279.1238	-8.481047	-2.853596E-006	-0.0003239	9
	8	46	47578.12	279.7206	-47.02571	1	283.6459	-9.54314	7.048996E-006	-0.0005991	9
	9	50	37828.12	283.8933	-54.18045	1	289.0172	-10.80485	-1.457913E-005	0.0009548	9
	10	53	30046.88	288.8142	-62.7301	1	295.5482	-12.25424	5.647589E-006	-0.0005506	9
	11	55	23859.38	294.0828	-72.40524	1	302.865	-13.83152	-1.975626E-005	0.0004004	9
	12	57	18984.38	299.8951	-84.22232	1	311.4972	-15.68683	2.170025E-005	-0.0007853	9
	13	60	15046.87	307.3985	-98.7296	1	322.8643	-17.80587	5.580361E-006	-0.0005257	9
	14	62	11953.13	312.7862	-114.0153	1	332.9185	-20.02756	-1.185428E-005	1.085705E-005	9
	15	64	9515.62	320.0988	-134.2786	1	347.1225	-22.75762	2.54696E-005	-0.0003124	9
	16	67	7546.875	327.327	-159.1249	1	363.9556	-25.92598	2.298756E-005	-0.00012	9
	17	69	5928.309	334.3224	-191.0362	1	385.0537	-29.74421	-7.590354E-006	0.0008178	9
	18	72	4733.456	340.8714	-227.7683	1	409.9655	-33.75062	2.041629E-006	0.002583	8
	19	74	3796.875	347.7305	-273.8403	1	442.6116	-38.22069	1.202405E-005	-0.0037339	8
	20	76	2987.132	357.9405	-336.5794	1	491.3319	-43.23833	-3.183741E-006	-0.0009483	8
	21	78	2390.625	369.0545	-408.9794	1	550.877	-47.93756	-9.56627E-006	0.0019724	8
	22	81	1884.191	384.7777	-507.1342	1	636.5838	-52.81133	-3.48086E-006	-0.0007714	8
	23	83	1516.544	398.9468	-615.4017	1	733.4015	-57.04585	-1.182436E-005	0.0038273	8
	24	85	1193.986	422.8512	-767.4913	1	876.2682	-61.14733	1.083781E-006	-0.0022126	8
	25	88	946.5144	448.9225	-950.33	1	1051.027	-64.71461	1.217243E-005	-0.0021014	8
	26	90	751.7689	490.8577	-1173.797	1	1272.297	-67.30632	-1.155725E-005	0.0036811	8
	27	93	597.4265	543.7337	-1444.719	1	1543.651	-69.37569	1.012758E-005	-0.0036806	8
	28	96	477.4305	610.4329	-1769.527	1	1871.858	-70.96712	-1.175363E-007	0.0006591	8
	29	98	376.6741	705.5291	-2188.829	1	2299.727	-72.13422	-1.328569E-007	0.0006684	8
	30	100	298.2954	829.9775	-2693.031	1	2818.027	-72.87098	-8.505675E-008	0.0006449	8
	31	103	237.7717	989.167	-3289.041	1	3434.566	-73.26153	-8.973019E-008	0.0006398	8
	32	105	189.0121	1202.2	-4016.739	1	4192.789	-73.33768	-1.060521E-007	0.0006571	8
	33	107	150.2404	1488.081	-4904.989	1	5125.749	-73.12319	-6.692186E-008	0.0006126	7
	34	110	119.1737	1859.226	-5975.789	1	6258.336	-72.7177	-6.680254E-008	0.000647	7
	35	112	95.0169	2352.535	-7219.606	1	7593.229	-71.95161	-6.920786E-008	0.0006334	7
	36	115	75.60484	3005.006	-8710.584	1	9214.354	-70.96642	-6.289429E-008	0.000613	7
	37	117	54.50582	4341.271	-11289.51	1	12095.44	-68.96623	-6.564895E-008	0.0006095	7
	38	120	45.95588	5285.355	-12851.69	1	13896.08	-67.64471	-5.80096E-008	0.0006181	7
	39	122	37.20238	6740.474	-14994.89	1	16440.22	-65.79523	-5.766232E-008	0.0006378	7
	40	125	30.04808	8619.763	-17321.73	1	19347.94	-63.54382	-6.31951E-008	0.0006204	7
	41	127	23.91582	11151.67	-20005.42	1	22903.63	-60.86329	-6.670914E-008	0.0006468	7
	42	130	18.60119	14542.31	-23032.34	1	27239.08	-57.73223	-6.680134E-008	0.0006405	7
	43	132	15.02404	18102.85	-25521.67	1	31290.08	-54.65144	-6.532461E-008	0.0006187	7
	44	134	12.01923	22348.14	-27787.88	1	35659.58	-51.19234	-5.556511E-008	0.0006228	7
	45	137	9.450605	27394.23	-30060.6	1	40670.43	-47.65707	-6.0611E-008	0.0006674	7
	46	139	7.512019	32620.74	-31354.16	1	45245.95	-43.86581	-5.515129E-008	0.000711	6
	47	142	5.978954	37889.65	-31879.56	1	49516.98	-40.07656	-5.559385E-008	0.0006696	6
	48	147	4.734848	43150.62	-31637.87	1	53506.36	-36.24873	-5.283191E-008	0.0007002	6
	49	151	3.75601	47955.61	-30685.51	1	56932.78	-32.61409	-5.847417E-008	0.0006605	6
	50	157	3.004808	52047.79	-29148.18	1	59653.91	-29.25002	-6.056953E-008	0.0006794	6
	51	163	2.372217	55570.25	-26920.87	1	61747.76	-25.84775	-5.951744E-008	0.0007503	6
	52	171	1.878005	57725.31	-23776.08	1	62430.07	-22.38593	-6.511893E-008	0.0006606	6
	53	180	1.512097	59229.57	-21475.15	1	63002.57	-19.92937	-6.598246E-008	0.0007121	6
	54	191	1.201923	60280.37	-19090.01	1	63230.94	-17.57232	-6.748369E-008	0.0006531	6
	55	203	0.956633	61656.32	-17144.41	1	63995.56	-15.53934	-8.465017E-008	7.426931E-005	6
