EXPLAIN
TAG	EISPOT
TITLE	LABEL	Potentiostatic EIS	Test Identifier
DATE	LABEL	8/23/2020	Date
TIME	LABEL	15:45:57	Time
NOTES	NOTES	1	Notes...
	
PSTAT	PSTAT	REF3000-16137	Potentiostat
VDC	POTEN	0.00000E+000	T	DC Voltage (V)
FREQINIT	QUANT	3.00000E+005	Initial Freq. (Hz)
FREQFINAL	QUANT	1.00000E+000	Final Freq. (Hz)
PTSPERDEC	QUANT	1.00000E+001	Points/decade
VAC	QUANT	5.00000E+001	AC Voltage (mV rms)
AREA	QUANT	1.00000E+000	Sample Area (cm^2)
SPEED	SELECTOR	2	Optimize for:
ZGUESS	QUANT	1.00000E+003	Estimated Z (ohms)
EOC	QUANT	0	Open Circuit (V)
SEQUENCER	TOGGLE	TRUE	Run as Sequence
PSTATMODEL	IQUANT	5	Pstat Model
PSTATSECTION	LABEL	REF3000-16137	Pstat Section
PSTATSERIALNO	LABEL	16137	Pstat Serial Number
CTRLMODE	IQUANT	1	Control Mode
IESTAB	IQUANT	0	I/E Stability
CASPEED	IQUANT	1	Control Amp Speed
CONVENTION	IQUANT	1	Current Convention
ICHRANGE	IQUANT	2	Ich Range
ICHRANGEMODE	TOGGLE	F	Ich Auto Range
ICHOFFSETENABLE	TOGGLE	T	Ich Offset Enable
ICHOFFSET	QUANT	0	Ich Offset (V)
ICHFILTER	IQUANT	3	Ich Filter
VCHRANGE	IQUANT	2	Vch Range
VCHRANGEMODE	TOGGLE	F	Vch Auto Range
VCHOFFSETENABLE	TOGGLE	T	Vch Offset Enable
VCHOFFSET	QUANT	0	Vch Offset (V)
VCHFILTER	IQUANT	3	Vch Filter
ACHRANGE	IQUANT	2	Ach Range
ACHOFFSETENABLE	TOGGLE	F	Ach Offset Enable
ACHOFFSET	QUANT	0	Ach Offset (V)
ACHFILTER	IQUANT	3	Ach Filter
IERANGELOWERLIMIT	IQUANT	2	I/E Range Lower Limit
IERANGEMODE	TOGGLE	F	I/E AutoRange
IERANGE	IQUANT	11	I/E Range
POSFEEDENABLE	TOGGLE	F	Positive Feedback IR Comp
POSFEEDRESISTANCE	QUANT	0	Positive Feedback Resistance (ohm)
ACHSELECT	IQUANT	0	Ach Select
CABLEID	IQUANT	13	Cable ID
DCCALDATE	LABEL	7/31/2020	DC Calibration Date
ACCALDATE	LABEL	7/31/2020	AC Calibration Date
THERMOSELECT	IQUANT	1	Thermo Select
FRAMEWORKVERSION	QUANT	6.33	Framework Version
INSTRUMENTVERSION	LABEL	3.50	Instrument Version
COMPLIANCEVOLTAGE	IQUANT	0	Compliance Voltage
ZCURVE	TABLE
	Pt	Time	Freq	Zreal	Zimag	Zsig	Zmod	Zphz	Idc	Vdc	IERange
	#	s	Hz	ohm	ohm	V	ohm	°	A	V	#
	0	17	300046.9	314.125	-2706.6	1	2724.768	-83.37993	-0.0008704	0.0232159	9
	1	32	238359.4	608.6562	-3150.593	1	3208.846	-79.06585	5.425162E-005	-0.0174711	9
	2	48	189328.1	3.934891	-3795.438	1	3795.44	-89.9406	0.0001587	0.0027795	10
	3	57	150421.9	480.9301	-4687.371	1	4711.978	-84.14188	0.000555	0.001716	10
	4	68	119484.4	42.98449	-5810.462	1	5810.621	-89.57615	-2.983618E-005	0.0029841	10
	5	77	94921.88	2174.331	-7753.809	1	8052.904	-74.33539	0.0001613	-0.0432202	8
	6	84	75421.88	708.999	-10013.34	1	10038.41	-85.94991	-0.0002186	0.0113553	9
	7	94	59859.37	284.5747	-12133.66	1	12137	-88.65647	-0.0002913	0.0094327	9
	8	104	47578.12	494.9946	-15306.81	1	15314.81	-88.1478	-0.0002214	0.0017935	9
	9	112	37828.12	570.9661	-19586.62	1	19594.94	-88.33025	-0.0002886	0.0094076	9
	10	123	30046.88	1132.589	-22224.26	1	22253.1	-87.08263	-0.0001405	0.0105202	9
	11	136	23859.38	4775.775	-23638.19	1	24115.8	-78.57792	-0.000143	-0.0018275	9
	12	144	18984.38	-1031.293	-34736.73	1	34752.03	-91.70055	-0.0001417	0.0105884	9
	13	154	15046.87	14601.47	-42304.05	1	44753.05	-70.95761	-0.0001549	0.0413629	8
	14	163	11953.13	-1091.549	-62128.61	1	62138.2	-91.00654	-0.0000982	-0.0103455	8
	15	171	9515.62	-378.4257	-61395.23	1	61396.4	-90.35315	-0.000289	0.0073815	9
	16	180	7546.875	13015.63	-75639.18	1	76750.84	-80.23643	-0.0002679	0.0109075	9
	17	188	5928.309	-28446.38	-170073.4	1	172436	-99.4954	0.0002087	-0.010994	9
	18	199	4733.456	13516.26	-138608	1	139265.5	-84.43045	4.174675E-005	-0.0534042	8
	19	207	3796.875	3012.947	-190515.6	1	190539.5	-89.09396	-0.0001406	0.0260757	8
	20	213	2987.132	195441.1	-83033.76	1	212348.4	-23.01836	-5.763739E-005	-0.0280419	8
	21	221	2390.625	116820.1	109378.3	1	160033	43.11568	0.0002972	-0.0096569	9
	22	231	1884.191	12527.47	-27204.85	1	29950.65	-65.27457	0.0002859	-0.0052659	9
	23	241	1516.544	-63043.23	60284.9	1	87227.96	136.2812	5.208881E-005	0.005747	9
	24	250	1193.986	146621.9	-15367.95	1	147425.1	-5.983524	8.707635E-005	-0.0587953	8
	25	258	946.5144	4214.734	20700.43	1	21125.15	78.49154	-0.0002853	0.0092632	9
	26	265	751.7689	-21188.14	-24237.2	1	32192.84	-131.1599	0.000156	-0.0433344	8
	27	270	597.4265	28470.22	-15052.11	1	32204.34	-27.86526	0.0002872	-0.0095484	9
	28	277	477.4305	245444.4	-1515783	1	1535526	-80.80217	-2.836504E-007	0.0000994	9
	29	283	376.6741	538624.9	-2827966	1	2878803	-79.21639	-7.812147E-008	0.0005668	6
	30	288	298.2954	3492038	-4410483	1	5625539	-51.62927	-8.104761E-009	0.0006639	5
	31	292	237.7717	3585331	-6057249	1	7038811	-59.37839	-7.895466E-009	0.0005542	5
	32	296	189.0121	3760955	-5951043	1	7039864	-57.70783	-7.82797E-009	0.0007791	5
	33	300	150.2404	3701630	-5493552	1	6624287	-56.02737	-6.886286E-009	0.0007007	5
	34	304	119.1737	-3605199	-3201941	1	4821813	-138.3903	-7.825086E-009	0.0005227	5
	35	308	95.0169	5113533	-1.025813E+007	1	1.1462E+007	-63.50439	-8.191825E-009	0.0007743	5
	36	312	75.60484	7747139	-1.183957E+007	1	1.414897E+007	-56.80155	-8.35008E-009	0.0005155	5
	37	316	54.50582	6880776	-1.523981E+007	1	1.672115E+007	-65.70082	-8.817023E-009	0.0005885	5
	38	320	45.95588	3.284457E+007	-2.346152E+007	1	4.036346E+007	-35.53896	-6.607845E-010	0.0005631	4
	39	323	37.20238	-4897855	-3.497936E+007	1	3.53206E+007	-97.9708	-7.295065E-009	0.0007628	5
	40	328	30.04808	-1.475001E+007	-7214269	1	1.641976E+007	-153.9366	-7.197014E-008	0.0006731	6
	41	333	23.91582	2202532	-3.293242E+007	1	3.300599E+007	-86.17374	-7.518326E-009	0.0006057	5
	42	338	18.60119	1.758696E+007	-1.332016E+007	1	2.206191E+007	-37.13987	-7.623472E-008	0.0006477	6
	43	343	15.02404	2.714344E+007	-5.477843E+007	1	6.113463E+007	-63.64098	-7.696651E-009	0.0006861	5
	44	348	12.01923	3.507839E+007	-6.499259E+007	1	7.385479E+007	-61.64297	-1.269E-010	0.0006418	4
	45	353	9.450605	2.345366E+007	-5.786727E+007	1	6.243953E+007	-67.93723	-9.092131E-010	0.0006926	5
	46	360	7.512019	3.663872E+007	-1.086789E+008	1	1.146887E+008	-71.36958	-1.45142E-010	0.0006579	4
	47	365	5.978954	1.008782E+008	-1.00924E+008	1	1.426957E+008	-45.01299	-1.214773E-010	0.0006309	4
	48	370	4.734848	1.148545E+008	-1.055482E+008	1	1.559871E+008	-42.5822	-1.490619E-010	0.0006799	4
	49	380	3.75601	1.160595E+008	-2.050567E+008	1	2.356227E+008	-60.49069	-7.026547E-011	0.0006977	4
	50	392	3.004808	3.723015E+007	-6.867213E+007	1	7.811494E+007	-61.53595	-1.019855E-009	0.0006756	5
	51	407	2.372217	1.60902E+008	-1.710706E+008	1	2.348502E+008	-46.75447	-2.504775E-011	0.0008029	3
	52	415	1.878005	3.063905E+008	-2.470869E+008	1	3.936078E+008	-38.88425	-4.254708E-011	0.0007148	3
	53	424	1.512097	3.09024E+008	-3.165438E+008	1	4.423751E+008	-45.68871	2.387019E-012	0.0006248	3
	54	436	1.201923	4.365025E+008	-1.191086E+008	1	4.524613E+008	-15.26276	-1.140244E-011	0.0007024	3
	55	451	0.956633	6.066361E+008	9.61485E+007	1	6.142083E+008	9.006152	-5.794529E-011	0.0000977	3
