EXPLAIN
TAG	EISPOT
TITLE	LABEL	Potentiostatic EIS	Test Identifier
DATE	LABEL	8/23/2020	Date
TIME	LABEL	16:00:07	Time
NOTES	NOTES	1	Notes...
	
PSTAT	PSTAT	REF3000-16137	Potentiostat
VDC	POTEN	0.00000E+000	T	DC Voltage (V)
FREQINIT	QUANT	3.00000E+005	Initial Freq. (Hz)
FREQFINAL	QUANT	1.00000E+000	Final Freq. (Hz)
PTSPERDEC	QUANT	1.00000E+001	Points/decade
VAC	QUANT	5.00000E+001	AC Voltage (mV rms)
AREA	QUANT	1.00000E+000	Sample Area (cm^2)
SPEED	SELECTOR	2	Optimize for:
ZGUESS	QUANT	1.00000E+003	Estimated Z (ohms)
EOC	QUANT	0	Open Circuit (V)
SEQUENCER	TOGGLE	TRUE	Run as Sequence
PSTATMODEL	IQUANT	5	Pstat Model
PSTATSECTION	LABEL	REF3000-16137	Pstat Section
PSTATSERIALNO	LABEL	16137	Pstat Serial Number
CTRLMODE	IQUANT	1	Control Mode
IESTAB	IQUANT	0	I/E Stability
CASPEED	IQUANT	1	Control Amp Speed
CONVENTION	IQUANT	1	Current Convention
ICHRANGE	IQUANT	2	Ich Range
ICHRANGEMODE	TOGGLE	F	Ich Auto Range
ICHOFFSETENABLE	TOGGLE	T	Ich Offset Enable
ICHOFFSET	QUANT	0	Ich Offset (V)
ICHFILTER	IQUANT	3	Ich Filter
VCHRANGE	IQUANT	2	Vch Range
VCHRANGEMODE	TOGGLE	F	Vch Auto Range
VCHOFFSETENABLE	TOGGLE	T	Vch Offset Enable
VCHOFFSET	QUANT	0	Vch Offset (V)
VCHFILTER	IQUANT	3	Vch Filter
ACHRANGE	IQUANT	2	Ach Range
ACHOFFSETENABLE	TOGGLE	F	Ach Offset Enable
ACHOFFSET	QUANT	0	Ach Offset (V)
ACHFILTER	IQUANT	3	Ach Filter
IERANGELOWERLIMIT	IQUANT	2	I/E Range Lower Limit
IERANGEMODE	TOGGLE	F	I/E AutoRange
IERANGE	IQUANT	11	I/E Range
POSFEEDENABLE	TOGGLE	F	Positive Feedback IR Comp
POSFEEDRESISTANCE	QUANT	0	Positive Feedback Resistance (ohm)
ACHSELECT	IQUANT	0	Ach Select
CABLEID	IQUANT	13	Cable ID
DCCALDATE	LABEL	7/31/2020	DC Calibration Date
ACCALDATE	LABEL	7/31/2020	AC Calibration Date
THERMOSELECT	IQUANT	1	Thermo Select
FRAMEWORKVERSION	QUANT	6.33	Framework Version
INSTRUMENTVERSION	LABEL	3.50	Instrument Version
COMPLIANCEVOLTAGE	IQUANT	0	Compliance Voltage
ZCURVE	TABLE
	Pt	Time	Freq	Zreal	Zimag	Zsig	Zmod	Zphz	Idc	Vdc	IERange
	#	s	Hz	ohm	ohm	V	ohm	°	A	V	#
	0	14	300046.9	-211.2641	-4817.172	1	4821.802	-92.51118	9.317395E-005	-0.0036033	9
	1	30	238359.4	30.79008	-6170.314	1	6170.391	-89.7141	2.004776E-005	-0.0009464	9
	2	54	189328.1	-80.36575	-7353.751	1	7354.19	-90.62614	-9.391194E-005	0.0042519	9
	3	65	150421.9	314.4709	-8969.978	1	8975.488	-87.99213	1.806685E-005	-0.0020279	9
	4	74	119484.4	544.1386	-11893.96	1	11906.4	-87.38059	6.659635E-005	-0.0262286	8
	5	81	94921.88	655.6008	-14364.13	1	14379.08	-87.38675	8.515505E-006	0.0042326	8
	6	90	75421.88	537.073	-18157.12	1	18165.06	-88.30573	2.308825E-005	-0.0028336	8
	7	98	59859.37	760.6543	-22811.09	1	22823.77	-88.09013	-2.191747E-006	0.007872	8
	8	107	47578.12	3848.335	-29953.28	1	30199.48	-82.67886	2.859642E-006	0.0084562	7
	9	113	37828.12	4311.082	-37217.54	1	37466.39	-83.39261	-5.446437E-006	0.0037495	7
	10	121	30046.88	4480.965	-46200.21	1	46417.01	-84.46021	-1.703337E-006	0.0221498	7
	11	128	23859.38	4996.557	-57315.47	1	57532.85	-85.01775	-6.646905E-006	0.0261198	7
	12	133	18984.38	4715.432	-72591.3	1	72744.3	-86.28336	-6.653087E-006	0.0262928	7
	13	139	15046.87	6913.849	-90105.88	1	90370.74	-85.61227	5.099136E-006	-0.0010319	7
	14	145	11953.13	-386.2193	-109573.4	1	109574.1	-90.20195	-2.703239E-005	0.0097293	8
	15	153	9515.62	-9048.618	-138021.7	1	138318	-93.75091	1.743053E-005	0.0002558	8
	16	160	7546.875	6357.338	-181265	1	181376.5	-87.99134	2.850764E-006	0.0087655	7
	17	167	5928.309	8998.843	-234853	1	235025.3	-87.80567	-7.519731E-006	0.01929	7
	18	173	4733.456	8788.377	-280080.7	1	280218.5	-88.20276	1.315466E-006	-0.0203294	7
	19	179	3796.875	41499.78	-365979.7	1	368325.1	-83.53065	-3.985035E-007	0.0262823	6
	20	184	2987.132	-75728.42	-437162.7	1	443673.3	-99.8277	-1.13843E-006	-0.0135209	7
	21	190	2390.625	51986.54	-572662.6	1	575017.4	-84.81288	4.371395E-007	0.0019339	6
	22	196	1884.191	32737.37	-731837.3	1	732569.1	-87.43869	7.444348E-007	-0.0162688	6
	23	201	1516.544	64743.04	-878755.2	1	881136.9	-85.7863	-5.717401E-007	0.0270873	6
	24	207	1193.986	63655.94	-1133925	1	1135710	-86.78692	4.350338E-007	0.0020468	6
	25	212	946.5144	217697.3	-1793637	1	1806800	-83.07974	-3.913899E-007	0.0252567	6
	26	216	751.7689	167628.7	-2119111	1	2125730	-85.47713	7.658469E-007	-0.022592	6
	27	221	597.4265	-198969.8	-1918943	1	1929231	-95.9197	-3.934481E-007	0.0259095	6
	28	227	477.4305	451289.7	-2939952	1	2974387	-81.27308	-9.589824E-010	0.0006104	5
	29	230	376.6741	112385	-3550643	1	3552421	-88.18708	-9.976149E-009	0.0006855	6
	30	235	298.2954	510360.5	-4546714	1	4575268	-83.59546	-9.921107E-010	0.0006899	5
	31	239	237.7717	661747.4	-5701484	1	5739759	-83.37954	-9.471667E-010	0.0006279	5
	32	241	189.0121	604634.6	-7069542	1	7095351	-85.11158	-9.578452E-010	0.0006548	5
	33	244	150.2404	573738.1	-8952563	1	8970929	-86.33313	-9.776864E-010	0.0006096	5
	34	247	119.1737	2002926	-8364860	1	8601313	-76.53432	-1.00597E-009	0.0006905	5
	35	250	95.0169	620398.5	-1.401762E+007	1	1.403134E+007	-87.46583	-1.074152E-009	0.0006563	5
	36	252	75.60484	247924.3	-1.784613E+007	1	1.784785E+007	-89.20408	-1.058805E-009	0.0007042	5
	37	255	54.50582	1227914	-2.393954E+007	1	2.397101E+007	-87.06374	-1.016207E-009	0.0006514	5
	38	259	45.95588	2947020	-2.737456E+007	1	2.753273E+007	-83.85546	-9.693075E-010	0.0006169	5
	39	262	37.20238	4349381	-3.381441E+007	1	3.409298E+007	-82.67057	-1.006708E-009	0.0006073	5
	40	266	30.04808	3219143	-4.302805E+007	1	4.31483E+007	-85.72139	-1.00306E-009	0.0006029	5
	41	270	23.91582	1.255542E+007	-5.884982E+007	1	6.017425E+007	-77.95669	-8.733889E-011	0.0006601	4
	42	274	18.60119	3839230	-7.771676E+007	1	7.781153E+007	-87.17188	-9.258429E-011	0.0006258	4
	43	277	15.02404	1.574269E+007	-8.639043E+007	1	8.781309E+007	-79.67247	-1.67488E-010	0.000702	4
	44	281	12.01923	2.945972E+007	-1.017943E+008	1	1.059715E+008	-73.85932	-6.120089E-011	0.0006157	4
	45	285	9.450605	4.163942E+007	-1.270409E+008	1	1.336908E+008	-71.85273	-1.220494E-010	0.0007002	4
	46	289	7.512019	3.739427E+007	-1.638739E+008	1	1.680863E+008	-77.14581	-9.400312E-011	0.0006339	4
	47	293	5.978954	6.144792E+007	-2.034428E+008	1	2.125202E+008	-73.19357	-1.007327E-010	0.000696	4
	48	299	4.734848	1.357639E+008	-3.328566E+008	1	3.594793E+008	-67.81068	-6.093017E-012	0.0007017	3
	49	304	3.75601	1.713873E+008	-3.99392E+008	1	4.34612E+008	-66.77483	-1.824656E-012	0.0007596	3
	50	310	3.004808	1.119322E+008	-4.316142E+008	1	4.45892E+008	-75.46155	2.236227E-012	0.0006953	3
	51	318	2.372217	2.54416E+008	-5.360442E+008	1	5.933556E+008	-64.61017	-1.082553E-011	0.0007059	3
	52	326	1.878005	2.827699E+008	-6.469298E+008	1	7.06029E+008	-66.3901	-8.366351E-012	0.0007244	3
	53	335	1.512097	4.091874E+008	-5.909116E+008	1	7.187564E+008	-55.29863	-2.138551E-012	0.0008035	3
	54	345	1.201923	4.905026E+008	-6.114376E+008	1	7.838678E+008	-51.263	-1.236298E-012	0.0007291	3
	55	358	0.956633	9.036068E+008	-9.251412E+008	1	1.29321E+009	-45.67466	-5.23442E-012	8.673046E-005	3
