EXPLAIN
TAG	EISPOT
TITLE	LABEL	Potentiostatic EIS	Test Identifier
DATE	LABEL	8/23/2020	Date
TIME	LABEL	17:20:25	Time
NOTES	NOTES	1	Notes...
	
PSTAT	PSTAT	REF3000-16137	Potentiostat
VDC	POTEN	0.00000E+000	T	DC Voltage (V)
FREQINIT	QUANT	3.00000E+005	Initial Freq. (Hz)
FREQFINAL	QUANT	1.00000E+000	Final Freq. (Hz)
PTSPERDEC	QUANT	1.00000E+001	Points/decade
VAC	QUANT	5.00000E+001	AC Voltage (mV rms)
AREA	QUANT	1.00000E+000	Sample Area (cm^2)
SPEED	SELECTOR	2	Optimize for:
ZGUESS	QUANT	1.00000E+003	Estimated Z (ohms)
EOC	QUANT	0	Open Circuit (V)
SEQUENCER	TOGGLE	TRUE	Run as Sequence
PSTATMODEL	IQUANT	5	Pstat Model
PSTATSECTION	LABEL	REF3000-16137	Pstat Section
PSTATSERIALNO	LABEL	16137	Pstat Serial Number
CTRLMODE	IQUANT	1	Control Mode
IESTAB	IQUANT	0	I/E Stability
CASPEED	IQUANT	1	Control Amp Speed
CONVENTION	IQUANT	1	Current Convention
ICHRANGE	IQUANT	2	Ich Range
ICHRANGEMODE	TOGGLE	F	Ich Auto Range
ICHOFFSETENABLE	TOGGLE	T	Ich Offset Enable
ICHOFFSET	QUANT	0	Ich Offset (V)
ICHFILTER	IQUANT	3	Ich Filter
VCHRANGE	IQUANT	2	Vch Range
VCHRANGEMODE	TOGGLE	F	Vch Auto Range
VCHOFFSETENABLE	TOGGLE	T	Vch Offset Enable
VCHOFFSET	QUANT	0	Vch Offset (V)
VCHFILTER	IQUANT	3	Vch Filter
ACHRANGE	IQUANT	2	Ach Range
ACHOFFSETENABLE	TOGGLE	F	Ach Offset Enable
ACHOFFSET	QUANT	0	Ach Offset (V)
ACHFILTER	IQUANT	3	Ach Filter
IERANGELOWERLIMIT	IQUANT	2	I/E Range Lower Limit
IERANGEMODE	TOGGLE	F	I/E AutoRange
IERANGE	IQUANT	11	I/E Range
POSFEEDENABLE	TOGGLE	F	Positive Feedback IR Comp
POSFEEDRESISTANCE	QUANT	0	Positive Feedback Resistance (ohm)
ACHSELECT	IQUANT	0	Ach Select
CABLEID	IQUANT	13	Cable ID
DCCALDATE	LABEL	7/31/2020	DC Calibration Date
ACCALDATE	LABEL	7/31/2020	AC Calibration Date
THERMOSELECT	IQUANT	1	Thermo Select
FRAMEWORKVERSION	QUANT	6.33	Framework Version
INSTRUMENTVERSION	LABEL	3.50	Instrument Version
COMPLIANCEVOLTAGE	IQUANT	0	Compliance Voltage
ZCURVE	TABLE
	Pt	Time	Freq	Zreal	Zimag	Zsig	Zmod	Zphz	Idc	Vdc	IERange
	#	s	Hz	ohm	ohm	V	ohm	°	A	V	#
	0	17	300046.9	276.5465	-25.46177	1	277.7162	-5.260418	-0.0007373	0.0224139	9
	1	31	238359.4	260.886	-43.03115	1	264.411	-9.366169	0.0006015	0.0011862	10
	2	47	189328.1	262.7995	-40.17416	1	265.8525	-8.691518	-0.0007922	0.0033136	10
	3	55	150421.9	268.4463	-29.01078	1	270.0093	-6.167973	0.0002118	-0.0156747	9
	4	62	119484.4	270.4432	-31.97272	1	272.3266	-6.742406	0.0002513	0.0062587	9
	5	70	94921.88	272.7873	-33.70529	1	274.8617	-7.043703	-0.0001056	0.0088705	9
	6	75	75421.88	275.843	-38.446	1	278.5094	-7.934563	0.0000955	-0.0084041	9
	7	82	59859.37	279.3268	-42.46657	1	282.5364	-8.644588	-0.0002593	0.007094	9
	8	87	47578.12	283.0387	-48.40629	1	287.1481	-9.70504	-0.0001499	-0.0006659	9
	9	92	37828.12	287.2374	-55.32538	1	292.517	-10.90234	-0.0002552	0.0087668	9
	10	99	30046.88	291.4421	-66.08859	1	298.8415	-12.77655	-0.000265	0.0008475	10
	11	105	23859.38	296.965	-73.06601	1	305.8216	-13.82264	-7.725096E-005	-0.0035276	9
	12	111	18984.38	304.0893	-85.58756	1	315.9043	-15.71954	0.0002591	-0.0090301	9
	13	116	15046.87	310.5856	-100.6208	1	326.4781	-17.95084	-0.0002864	0.0011259	10
	14	121	11953.13	318.9557	-114.7296	1	338.9625	-19.78386	-0.000105	0.0089011	9
	15	126	9515.62	325.4199	-135.1953	1	352.386	-22.56039	0.0002225	-0.0096044	9
	16	132	7546.875	332.8813	-157.919	1	368.4404	-25.37967	0.0002194	-0.0023388	9
	17	137	5928.309	339.6986	-190.8986	1	389.6632	-29.33445	1.268148E-005	-0.0064249	9
	18	142	4733.456	352.2876	-224.469	1	417.7234	-32.50428	0.0000963	-0.0249407	8
	19	147	3796.875	356.5856	-271.3804	1	448.1078	-37.27304	0.0001709	-0.0095909	9
	20	152	2987.132	364.3041	-331.8472	1	492.788	-42.33061	0.0002571	-0.0089017	9
	21	157	2390.625	377.7089	-404.4192	1	553.3705	-46.95593	0.0002177	-0.0023653	9
	22	163	1884.191	393.9127	-499.8297	1	636.3937	-51.75858	-0.0002234	0.0096399	9
	23	168	1516.544	411.0709	-608.3268	1	734.1939	-55.95152	0.0001665	-0.0094151	9
	24	174	1193.986	423.593	-754.6544	1	865.4099	-60.69419	-0.0002075	0.0023782	9
	25	180	946.5144	431.9615	-931.5066	1	1026.789	-65.12174	-0.0001127	0.009101	9
	26	185	751.7689	531.6866	-1195.381	1	1308.291	-66.02125	-0.0002296	0.0099542	9
	27	190	597.4265	558.6492	-1437.684	1	1542.409	-68.76508	-0.0001002	0.008968	9
	28	195	477.4305	630.0362	-1738.811	1	1849.435	-70.08265	-4.208445E-007	0.0006587	8
	29	198	376.6741	726.3519	-2142.568	1	2262.341	-71.27283	-4.955187E-007	0.0007005	8
	30	200	298.2954	860.3	-2642.988	1	2779.479	-71.96979	-5.233636E-007	0.0006989	8
	31	202	237.7717	1027.841	-3221.5	1	3381.497	-72.30437	-4.384205E-007	0.0006769	8
	32	205	189.0121	1248.586	-3916.322	1	4110.541	-72.31688	-3.70773E-007	0.0006306	8
	33	207	150.2404	1603.983	-4851.858	1	5110.117	-71.70656	-1.81656E-007	0.0006654	7
	34	210	119.1737	1975.575	-5830.532	1	6156.135	-71.28194	-1.51084E-007	0.0006176	7
	35	212	95.0169	2521.561	-7034.409	1	7472.696	-70.27923	-1.596688E-007	0.0006852	7
	36	214	75.60484	3241.809	-8470.554	1	9069.708	-69.0574	-1.596877E-007	0.0006883	7
	37	217	54.50582	4669.885	-10811.6	1	11777.03	-66.63889	-1.513504E-007	0.0005709	7
	38	220	45.95588	5695.28	-12313.25	1	13566.59	-65.17791	-1.615752E-007	0.0006354	7
	39	222	37.20238	7165.372	-14106.18	1	15821.72	-63.07127	-1.437153E-007	0.0005951	7
	40	224	30.04808	9161.785	-16164.12	1	18580.01	-60.45553	-1.696698E-007	0.0006689	7
	41	227	23.91582	11624.81	-18322.23	1	21698.85	-57.60631	-1.52478E-007	0.0006606	7
	42	230	18.60119	15038.58	-20739.34	1	25617.94	-54.05326	-1.723066E-007	0.000695	7
	43	232	15.02404	18404.25	-22682.17	1	29209.54	-50.94423	-1.512693E-007	0.0005731	7
	44	235	12.01923	22090.88	-24049.99	1	32655.92	-47.43127	-1.454905E-007	0.0006979	7
	45	237	9.450605	26756.41	-25526.03	1	36979.51	-43.65188	-1.591058E-007	0.0006891	7
	46	240	7.512019	31103.55	-26234.68	1	40690.16	-40.14638	-1.62818E-007	0.0005475	7
	47	243	5.978954	35589.75	-26219.84	1	44205.32	-36.37999	-1.070865E-007	0.0006866	6
	48	247	4.734848	39903.46	-25874.03	1	47557.87	-32.96001	-1.025593E-007	0.0006469	6
	49	251	3.75601	43507.11	-24640.71	1	50000.33	-29.5255	-1.037316E-007	0.0006476	6
	50	256	3.004808	46549.36	-23129.82	1	51979.15	-26.42223	-1.087483E-007	0.0007522	6
	51	263	2.372217	49072.38	-21207.04	1	53458.74	-23.37198	-1.125023E-007	0.0006244	6
	52	270	1.878005	50414.8	-18680.48	1	53764.42	-20.33146	-1.136183E-007	0.0006805	6
	53	279	1.512097	51327.88	-16907.25	1	54040.79	-18.23173	-1.170987E-007	0.0006969	6
	54	290	1.201923	51984.59	-15107	1	54135.2	-16.20415	-1.215041E-007	0.0007002	6
	55	303	0.956633	52998.67	-13676.88	1	54734.96	-14.4701	-1.467441E-007	4.277743E-005	6
