EXPLAIN
TAG	EISPOT
TITLE	LABEL	Potentiostatic EIS	Test Identifier
DATE	LABEL	2/27/2021	Date
TIME	LABEL	23:36:23	Time
NOTES	NOTES	1	Notes...
	
PSTAT	PSTAT	REF3000-16137	Potentiostat
VDC	POTEN	0.00000E+000	T	DC Voltage (V)
FREQINIT	QUANT	3.00000E+005	Initial Freq. (Hz)
FREQFINAL	QUANT	1.00000E+000	Final Freq. (Hz)
PTSPERDEC	QUANT	1.00000E+001	Points/decade
VAC	QUANT	5.00000E+001	AC Voltage (mV rms)
AREA	QUANT	1.00000E+000	Sample Area (cm^2)
SPEED	SELECTOR	2	Optimize for:
ZGUESS	QUANT	1.00000E+003	Estimated Z (ohms)
EOC	QUANT	0	Open Circuit (V)
SEQUENCER	TOGGLE	TRUE	Run as Sequence
PSTATMODEL	IQUANT	5	Pstat Model
PSTATSECTION	LABEL	REF3000-16137	Pstat Section
PSTATSERIALNO	LABEL	16137	Pstat Serial Number
CTRLMODE	IQUANT	1	Control Mode
IESTAB	IQUANT	0	I/E Stability
CASPEED	IQUANT	1	Control Amp Speed
CONVENTION	IQUANT	1	Current Convention
ICHRANGE	IQUANT	2	Ich Range
ICHRANGEMODE	TOGGLE	F	Ich Auto Range
ICHOFFSETENABLE	TOGGLE	T	Ich Offset Enable
ICHOFFSET	QUANT	0	Ich Offset (V)
ICHFILTER	IQUANT	3	Ich Filter
VCHRANGE	IQUANT	2	Vch Range
VCHRANGEMODE	TOGGLE	F	Vch Auto Range
VCHOFFSETENABLE	TOGGLE	T	Vch Offset Enable
VCHOFFSET	QUANT	0	Vch Offset (V)
VCHFILTER	IQUANT	3	Vch Filter
ACHRANGE	IQUANT	2	Ach Range
ACHOFFSETENABLE	TOGGLE	F	Ach Offset Enable
ACHOFFSET	QUANT	0	Ach Offset (V)
ACHFILTER	IQUANT	3	Ach Filter
IERANGELOWERLIMIT	IQUANT	2	I/E Range Lower Limit
IERANGEMODE	TOGGLE	F	I/E AutoRange
IERANGE	IQUANT	11	I/E Range
POSFEEDENABLE	TOGGLE	F	Positive Feedback IR Comp
POSFEEDRESISTANCE	QUANT	0	Positive Feedback Resistance (ohm)
ACHSELECT	IQUANT	0	Ach Select
CABLEID	IQUANT	13	Cable ID
DCCALDATE	LABEL	7/31/2020	DC Calibration Date
ACCALDATE	LABEL	7/31/2020	AC Calibration Date
THERMOSELECT	IQUANT	1	Thermo Select
FRAMEWORKVERSION	QUANT	6.33	Framework Version
INSTRUMENTVERSION	LABEL	3.50	Instrument Version
COMPLIANCEVOLTAGE	IQUANT	0	Compliance Voltage
ZCURVE	TABLE
	Pt	Time	Freq	Zreal	Zimag	Zsig	Zmod	Zphz	Idc	Vdc	IERange
	#	s	Hz	ohm	ohm	V	ohm	°	A	V	#
	0	22	300046.9	1154.531	-3693.545	1	3869.783	-72.64176	4.702455E-005	-1.174158E-005	9
	1	47	238359.4	1640.455	-4379.711	1	4676.854	-69.46618	-5.693636E-005	0.0004252	9
	2	63	189328.1	2310.387	-5126.872	1	5623.407	-65.74164	-2.190368E-005	0.0012312	9
	3	75	150421.9	3170.187	-5274.851	1	6154.197	-58.99413	-2.775269E-005	-0.0009841	9
	4	82	119484.4	4479.726	-6766.217	1	8114.778	-56.49255	-5.910119E-005	0.0071341	8
	5	90	94921.88	5754.909	-7622.001	1	9550.6	-52.94577	2.547898E-005	-0.008716	8
	6	98	75421.88	7612.998	-8493.065	1	11405.7	-48.12765	-2.554095E-005	0.0075242	8
	7	107	59859.37	9343.888	-8953.312	1	12941.02	-43.77714	-2.601884E-005	0.0095605	8
	8	115	47578.12	11656.94	-8967.055	1	14706.88	-37.56915	-1.404111E-006	0.0074682	8
	9	124	37828.12	14744.08	-8176.397	1	16859.46	-29.01076	-6.833253E-006	0.0219734	7
	10	130	30046.88	16449.78	-7722.143	1	18172.14	-25.14712	7.201325E-006	-0.0226976	7
	11	137	23859.38	18013.85	-7139.281	1	19377	-21.6195	-5.115964E-006	0.0250249	7
	12	141	18984.38	19314.87	-6345.421	1	20330.48	-18.18666	3.258571E-006	-0.0228951	7
	13	145	15046.87	20484.6	-5546.513	1	21222.22	-15.15042	-3.609667E-006	0.0240281	7
	14	149	11953.13	21486.42	-4792.417	1	22014.39	-12.57367	-6.716375E-006	0.0218587	7
	15	154	9515.62	22309.88	-4112.349	1	22685.72	-10.44402	-1.776236E-006	0.0209939	7
	16	158	7546.875	22883.47	-3533.167	1	23154.62	-8.777057	3.228178E-007	0.0156258	7
	17	162	5928.309	23756.43	-2857.272	1	23927.64	-6.858228	5.157065E-006	-0.0252313	7
	18	167	4733.456	24205.89	-2507.972	1	24335.46	-5.91531	3.400264E-006	-0.0232217	7
	19	172	3796.875	24808.93	-2151.894	1	24902.08	-4.957354	-6.92907E-006	0.0221307	7
	20	177	2987.132	25293.19	-2054.99	1	25376.53	-4.644894	8.760683E-006	0.0039681	8
	21	184	2390.625	25987.71	-1947.643	1	26060.59	-4.286005	-1.583553E-006	0.0203694	7
	22	189	1884.191	26904.79	-1161.99	1	26929.87	-2.473009	-2.366999E-005	0.0053465	8
	23	196	1516.544	29038.99	-1379.326	1	29071.73	-2.719455	2.333263E-005	-0.0028873	8
	24	202	1193.986	28937.26	-1301.561	1	28966.52	-2.575355	1.598015E-005	-0.0090341	8
	25	209	946.5144	29396.1	-1218.426	1	29421.34	-2.37347	4.459481E-007	0.0153458	7
	26	213	751.7689	29988.43	-219.3149	1	29989.23	-0.4190148	3.246282E-007	0.0157701	7
	27	216	597.4265	30857.45	-1200.113	1	30880.78	-2.227235	-1.63398E-005	0.000861	8
	28	221	477.4305	30690.5	-479.7533	1	30694.25	-0.8955736	-6.99664E-008	0.0006894	7
	29	225	376.6741	30994.14	-403.9441	1	30996.77	-0.746689	-6.196419E-008	0.0006074	7
	30	227	298.2954	31328.54	-357.7101	1	31330.58	-0.6541763	-6.164404E-008	0.000619	7
	31	229	237.7717	31639.84	-309.0511	1	31641.35	-0.559635	-7.094187E-008	0.0006611	7
	32	232	189.0121	31965.15	-280.5651	1	31966.38	-0.5028846	-7.415556E-008	0.0006742	7
	33	234	150.2404	32293.6	-289.0969	1	32294.9	-0.5129061	-7.063091E-008	0.0006719	7
	34	237	119.1737	32662.28	-270.5064	1	32663.4	-0.4745083	-7.124687E-008	0.0006288	7
	35	239	95.0169	32960.81	-265.9879	1	32961.88	-0.4623569	-6.845723E-008	0.0006632	7
	36	242	75.60484	33323.92	-286.4433	1	33325.15	-0.4924868	-6.822543E-008	0.0006784	7
	37	244	54.50582	33667.22	-358.5682	1	33669.13	-0.610198	-6.845946E-008	0.0006684	7
	38	247	45.95588	34054.03	-356.9797	1	34055.9	-0.6005951	-6.914915E-008	0.0006649	7
	39	249	37.20238	34389.16	-402.2176	1	34391.51	-0.6701041	-6.990471E-008	0.0006683	7
	40	251	30.04808	34757.08	-478.5869	1	34760.37	-0.7888831	-5.226336E-008	0.0005966	7
	41	254	23.91582	35111.88	-565.0367	1	35116.43	-0.9219508	-4.837399E-008	0.0006026	7
	42	256	18.60119	35533.26	-741.2874	1	35540.99	-1.195119	-5.091651E-008	0.0006074	7
	43	258	15.02404	35864.34	-845.9781	1	35874.31	-1.351259	-4.614498E-008	0.0006839	7
	44	261	12.01923	36319.71	-1029.238	1	36334.3	-1.62323	-2.227633E-008	0.0007275	6
	45	263	9.450605	36683.74	-1309.574	1	36707.11	-2.044536	-3.651039E-008	0.0006728	6
	46	266	7.512019	37143.81	-1614.807	1	37178.9	-2.489336	-2.183638E-008	0.0006246	6
	47	269	5.978954	37603.24	-2018.635	1	37657.39	-3.072829	-4.175972E-008	0.0007107	6
	48	272	4.734848	38219.3	-2458.494	1	38298.3	-3.680536	-3.696826E-009	0.0007231	6
	49	275	3.75601	38889.8	-3099.136	1	39013.09	-4.556284	-3.498369E-008	0.0006628	6
	50	278	3.004808	39534.72	-3742.265	1	39711.44	-5.407374	-8.464397E-009	0.0006185	6
	51	282	2.372217	40349.01	-4701.807	1	40622.03	-6.646612	-2.520516E-008	0.0007416	6
	52	286	1.878005	41299.56	-5870.826	1	41714.75	-8.09052	-3.007198E-008	0.0006615	6
	53	291	1.512097	42375.22	-7169.551	1	42977.45	-9.60305	-2.602276E-008	0.0007304	6
	54	297	1.201923	43612.23	-8765.642	1	44484.41	-11.36449	-4.713155E-009	0.0006403	6
	55	303	0.956633	45301.88	-10907.82	1	46596.57	-13.53802	-3.114974E-008	3.829638E-005	6
