EXPLAIN
TAG	EISPOT
TITLE	LABEL	Potentiostatic EIS	Test Identifier
DATE	LABEL	2/27/2021	Date
TIME	LABEL	23:22:55	Time
NOTES	NOTES	1	Notes...
	
PSTAT	PSTAT	REF3000-16137	Potentiostat
VDC	POTEN	0.00000E+000	T	DC Voltage (V)
FREQINIT	QUANT	3.00000E+005	Initial Freq. (Hz)
FREQFINAL	QUANT	1.00000E+000	Final Freq. (Hz)
PTSPERDEC	QUANT	1.00000E+001	Points/decade
VAC	QUANT	5.00000E+001	AC Voltage (mV rms)
AREA	QUANT	1.00000E+000	Sample Area (cm^2)
SPEED	SELECTOR	2	Optimize for:
ZGUESS	QUANT	1.00000E+003	Estimated Z (ohms)
EOC	QUANT	0	Open Circuit (V)
SEQUENCER	TOGGLE	TRUE	Run as Sequence
PSTATMODEL	IQUANT	5	Pstat Model
PSTATSECTION	LABEL	REF3000-16137	Pstat Section
PSTATSERIALNO	LABEL	16137	Pstat Serial Number
CTRLMODE	IQUANT	1	Control Mode
IESTAB	IQUANT	0	I/E Stability
CASPEED	IQUANT	1	Control Amp Speed
CONVENTION	IQUANT	1	Current Convention
ICHRANGE	IQUANT	2	Ich Range
ICHRANGEMODE	TOGGLE	F	Ich Auto Range
ICHOFFSETENABLE	TOGGLE	T	Ich Offset Enable
ICHOFFSET	QUANT	0	Ich Offset (V)
ICHFILTER	IQUANT	3	Ich Filter
VCHRANGE	IQUANT	2	Vch Range
VCHRANGEMODE	TOGGLE	F	Vch Auto Range
VCHOFFSETENABLE	TOGGLE	T	Vch Offset Enable
VCHOFFSET	QUANT	0	Vch Offset (V)
VCHFILTER	IQUANT	3	Vch Filter
ACHRANGE	IQUANT	2	Ach Range
ACHOFFSETENABLE	TOGGLE	F	Ach Offset Enable
ACHOFFSET	QUANT	0	Ach Offset (V)
ACHFILTER	IQUANT	3	Ach Filter
IERANGELOWERLIMIT	IQUANT	2	I/E Range Lower Limit
IERANGEMODE	TOGGLE	F	I/E AutoRange
IERANGE	IQUANT	11	I/E Range
POSFEEDENABLE	TOGGLE	F	Positive Feedback IR Comp
POSFEEDRESISTANCE	QUANT	0	Positive Feedback Resistance (ohm)
ACHSELECT	IQUANT	0	Ach Select
CABLEID	IQUANT	13	Cable ID
DCCALDATE	LABEL	7/31/2020	DC Calibration Date
ACCALDATE	LABEL	7/31/2020	AC Calibration Date
THERMOSELECT	IQUANT	1	Thermo Select
FRAMEWORKVERSION	QUANT	6.33	Framework Version
INSTRUMENTVERSION	LABEL	3.50	Instrument Version
COMPLIANCEVOLTAGE	IQUANT	0	Compliance Voltage
ZCURVE	TABLE
	Pt	Time	Freq	Zreal	Zimag	Zsig	Zmod	Zphz	Idc	Vdc	IERange
	#	s	Hz	ohm	ohm	V	ohm	°	A	V	#
	0	15	300046.9	994.826	-279.609	1	1033.373	-15.69872	1.588541E-005	-0.0010571	9
	1	30	238359.4	1056.981	-250.1992	1	1086.19	-13.31743	5.096491E-005	4.671644E-005	9
	2	45	189328.1	1104.536	-228.339	1	1127.891	-11.68013	1.778875E-005	-0.0008711	9
	3	52	150421.9	1161.661	-202.386	1	1179.159	-9.88295	-5.802983E-005	0.0005906	9
	4	63	119484.4	1199.606	-125.1812	1	1206.12	-5.95736	5.585135E-005	-0.011252	8
	5	69	94921.88	1220.252	-101.7115	1	1224.484	-4.764751	-9.159176E-006	-0.0008792	8
	6	72	75421.88	1229.687	-90.45648	1	1233.009	-4.207134	2.169649E-005	-0.0045218	8
	7	74	59859.37	1245.286	-71.28473	1	1247.324	-3.276246	-1.810229E-005	0.0086722	8
	8	77	47578.12	1257.317	-53.87535	1	1258.471	-2.453592	1.684989E-005	-0.0073136	8
	9	80	37828.12	1266.918	-50.34246	1	1267.918	-2.275517	1.498576E-005	-0.0001142	8
	10	83	30046.88	1279.918	-40.62993	1	1280.563	-1.818197	1.673074E-005	-0.0073648	8
	11	86	23859.38	1288.89	-30.35432	1	1289.247	-1.349109	-1.404367E-005	0.0014028	8
	12	89	18984.38	1299.611	-27.40333	1	1299.9	-1.207948	-1.972429E-005	0.0048871	8
	13	91	15046.87	1305.009	-23.67079	1	1305.223	-1.03914	5.200829E-006	-0.0055929	8
	14	94	11953.13	1323.053	-20.23632	1	1323.207	-0.8762807	2.06748E-005	-0.007125	8
	15	98	9515.62	1336.22	-18.39227	1	1336.347	-0.7885924	-2.568502E-006	-0.0033988	8
	16	101	7546.875	1345.609	-14.51712	1	1345.688	-0.6181121	-2.038486E-005	0.0063953	8
	17	104	5928.309	1356.669	-9.76916	1	1356.704	-0.4125708	-1.844518E-005	0.0088663	8
	18	108	4733.456	1378.629	-11.54683	1	1378.677	-0.4798746	-9.153224E-006	-0.0009035	8
	19	112	3796.875	1392.688	-12.33286	1	1392.743	-0.5073659	-1.45183E-005	0.0090258	8
	20	115	2987.132	1400.39	-6.760432	1	1400.406	-0.2765954	8.42519E-006	0.0028641	8
	21	119	2390.625	1415.732	-10.65883	1	1415.772	-0.4313631	-1.849551E-005	0.0089548	8
	22	122	1884.191	1431.823	-13.90492	1	1431.89	-0.5564015	2.354482E-008	0.0058688	8
	23	126	1516.544	1448.218	-17.04239	1	1448.318	-0.6742163	-6.618426E-009	0.0058921	8
	24	130	1193.986	1469.184	-14.46539	1	1469.255	-0.5641085	-2.272797E-006	-0.0034928	8
	25	135	946.5144	1477.238	-18.92021	1	1477.359	-0.7337944	-1.456262E-005	0.0014328	8
	26	138	751.7689	1489.658	-19.0488	1	1489.78	-0.7326218	-1.4533E-005	0.0090429	8
	27	140	597.4265	1504.341	-20.74693	1	1504.484	-0.7901371	-1.80174E-005	0.0032472	8
	28	143	477.4305	1513.741	-24.41559	1	1513.938	-0.9240606	-1.186383E-007	0.0006682	8
	29	145	376.6741	1524.159	-29.60081	1	1524.446	-1.112606	-1.030232E-007	0.0006463	8
	30	147	298.2954	1534.85	-36.39571	1	1535.281	-1.358393	-9.154854E-008	0.0006379	8
	31	150	237.7717	1546.03	-44.84221	1	1546.68	-1.661384	-9.723582E-008	0.0006473	8
	32	152	189.0121	1557.501	-55.23577	1	1558.48	-2.031106	-1.637649E-007	0.0006692	8
	33	155	150.2404	1569.424	-68.20947	1	1570.905	-2.488593	-1.06582E-007	0.0006413	8
	34	157	119.1737	1581.799	-84.44472	1	1584.051	-3.055849	-1.275862E-007	0.0006407	8
	35	159	95.0169	1594.812	-104.401	1	1598.226	-3.745402	-9.432874E-008	0.0006517	8
	36	162	75.60484	1608.708	-129.2068	1	1613.889	-4.591972	-1.677102E-007	0.0006681	8
	37	164	54.50582	1625.087	-175.6371	1	1634.551	-6.168502	-1.419406E-007	0.0006479	8
	38	167	45.95588	1639.484	-205.5789	1	1652.323	-7.147156	-7.686586E-008	0.0006701	8
	39	169	37.20238	1655.116	-251.6662	1	1674.14	-8.645801	-1.862438E-007	0.0006534	8
	40	172	30.04808	1673.041	-306.4405	1	1700.874	-10.37946	-1.375628E-007	0.0006472	8
	41	174	23.91582	1692.065	-380.2578	1	1734.266	-12.66566	-2.074337E-007	0.0006419	8
	42	177	18.60119	1715.613	-481.4021	1	1781.875	-15.67415	2.914917E-008	0.0006303	8
	43	179	15.02404	1743.306	-584.8981	1	1838.81	-18.54716	3.159684E-008	0.0006602	8
	44	181	12.01923	1771.432	-717.6885	1	1911.295	-22.05514	-2.334472E-007	0.00064	8
	45	184	9.450605	1807.929	-897.5168	1	2018.451	-26.40134	-1.815634E-009	0.0006465	8
	46	186	7.512019	1851.777	-1110.378	1	2159.17	-30.9481	-4.406199E-008	0.0006826	8
	47	189	5.978954	1906.703	-1366.787	1	2345.98	-35.63419	-1.020521E-007	0.0006567	8
	48	192	4.734848	1973.353	-1689.324	1	2597.679	-40.56576	-1.242009E-007	0.0006959	8
	49	195	3.75601	2055.564	-2085.513	1	2928.261	-45.41437	-7.849813E-008	0.0006456	8
	50	199	3.004808	2146.609	-2549.354	1	3332.737	-49.90192	-1.386112E-007	0.0006831	8
	51	202	2.372217	2265.978	-3150.514	1	3880.772	-54.27477	-1.403312E-007	0.0006125	8
	52	207	1.878005	2412.705	-3908.473	1	4593.18	-58.31291	-2.30571E-008	0.0006305	7
	53	211	1.512097	2564.361	-4747.927	1	5396.18	-61.62646	-4.440685E-008	0.0006496	7
	54	217	1.201923	2773.379	-5860.273	1	6483.396	-64.6741	-3.045024E-008	0.0006491	7
	55	223	0.956633	3020.178	-7208.802	1	7815.901	-67.26841	-4.890306E-008	-1.084731E-005	7
