EXPLAIN
TAG	EISPOT
TITLE	LABEL	Potentiostatic EIS	Test Identifier
DATE	LABEL	2/27/2021	Date
TIME	LABEL	22:39:53	Time
NOTES	NOTES	1	Notes...
	
PSTAT	PSTAT	REF3000-16137	Potentiostat
VDC	POTEN	0.00000E+000	T	DC Voltage (V)
FREQINIT	QUANT	3.00000E+005	Initial Freq. (Hz)
FREQFINAL	QUANT	1.00000E+000	Final Freq. (Hz)
PTSPERDEC	QUANT	1.00000E+001	Points/decade
VAC	QUANT	5.00000E+001	AC Voltage (mV rms)
AREA	QUANT	1.00000E+000	Sample Area (cm^2)
SPEED	SELECTOR	2	Optimize for:
ZGUESS	QUANT	1.00000E+003	Estimated Z (ohms)
EOC	QUANT	0	Open Circuit (V)
SEQUENCER	TOGGLE	TRUE	Run as Sequence
PSTATMODEL	IQUANT	5	Pstat Model
PSTATSECTION	LABEL	REF3000-16137	Pstat Section
PSTATSERIALNO	LABEL	16137	Pstat Serial Number
CTRLMODE	IQUANT	1	Control Mode
IESTAB	IQUANT	0	I/E Stability
CASPEED	IQUANT	1	Control Amp Speed
CONVENTION	IQUANT	1	Current Convention
ICHRANGE	IQUANT	2	Ich Range
ICHRANGEMODE	TOGGLE	F	Ich Auto Range
ICHOFFSETENABLE	TOGGLE	T	Ich Offset Enable
ICHOFFSET	QUANT	0	Ich Offset (V)
ICHFILTER	IQUANT	3	Ich Filter
VCHRANGE	IQUANT	2	Vch Range
VCHRANGEMODE	TOGGLE	F	Vch Auto Range
VCHOFFSETENABLE	TOGGLE	T	Vch Offset Enable
VCHOFFSET	QUANT	0	Vch Offset (V)
VCHFILTER	IQUANT	3	Vch Filter
ACHRANGE	IQUANT	2	Ach Range
ACHOFFSETENABLE	TOGGLE	F	Ach Offset Enable
ACHOFFSET	QUANT	0	Ach Offset (V)
ACHFILTER	IQUANT	3	Ach Filter
IERANGELOWERLIMIT	IQUANT	2	I/E Range Lower Limit
IERANGEMODE	TOGGLE	F	I/E AutoRange
IERANGE	IQUANT	11	I/E Range
POSFEEDENABLE	TOGGLE	F	Positive Feedback IR Comp
POSFEEDRESISTANCE	QUANT	0	Positive Feedback Resistance (ohm)
ACHSELECT	IQUANT	0	Ach Select
CABLEID	IQUANT	13	Cable ID
DCCALDATE	LABEL	7/31/2020	DC Calibration Date
ACCALDATE	LABEL	7/31/2020	AC Calibration Date
THERMOSELECT	IQUANT	1	Thermo Select
FRAMEWORKVERSION	QUANT	6.33	Framework Version
INSTRUMENTVERSION	LABEL	3.50	Instrument Version
COMPLIANCEVOLTAGE	IQUANT	0	Compliance Voltage
ZCURVE	TABLE
	Pt	Time	Freq	Zreal	Zimag	Zsig	Zmod	Zphz	Idc	Vdc	IERange
	#	s	Hz	ohm	ohm	V	ohm	°	A	V	#
	0	8	300046.9	17.0188	2.047908	1	17.14157	6.861529	1.640723E-005	0.0002264	10
	1	11	238359.4	17.01999	1.623086	1	17.09721	5.447451	-8.798992E-005	0.0004699	10
	2	14	189328.1	17.04672	1.279268	1	17.09465	4.291707	-2.32683E-005	0.0004389	10
	3	17	150421.9	17.06392	1.006889	1	17.09361	3.376931	-2.116326E-005	0.0005232	10
	4	19	119484.4	17.11504	0.7673409	1	17.13223	2.567098	-0.0000985	0.0006276	10
	5	22	94921.88	17.14551	0.5911138	1	17.15569	1.974565	3.643158E-006	0.0006186	10
	6	24	75421.88	17.18609	0.418523	1	17.19118	1.395016	2.439419E-005	0.0006031	10
	7	27	59859.37	17.23339	0.2768795	1	17.23561	0.9204611	-1.790272E-005	0.0006348	10
	8	29	47578.12	17.27654	0.1509936	1	17.2772	0.5007411	1.96407E-005	0.000632	10
	9	32	37828.12	17.32259	0.0369004	1	17.32263	0.1220507	-1.841597E-005	0.0006444	10
	10	35	30046.88	17.36842	-0.0737821	1	17.36858	-0.2433945	2.523127E-005	0.0006693	10
	11	37	23859.38	17.41326	-0.1862809	1	17.41426	-0.6129068	1.972625E-005	0.0006411	10
	12	39	18984.38	17.45995	-0.3075781	1	17.46265	-1.00923	1.091836E-005	0.0006511	10
	13	42	15046.87	17.5034	-0.4444755	1	17.50904	-1.454638	-2.242423E-005	0.0006955	10
	14	44	11953.13	17.55466	-0.5987404	1	17.56487	-1.953442	-1.933543E-005	0.0006552	10
	15	46	9515.62	17.60633	-0.7778345	1	17.6235	-2.52964	1.300568E-005	0.0006554	10
	16	49	7546.875	17.66341	-0.997139	1	17.69154	-3.231044	-2.486779E-005	0.0007198	10
	17	51	5928.309	17.72484	-1.280333	1	17.77102	-4.131519	-1.191259E-005	0.0006645	10
	18	53	4733.456	17.788	-1.601765	1	17.85997	-5.145465	-2.663326E-005	0.0007154	10
	19	56	3796.875	17.85684	-1.987049	1	17.96706	-6.349561	1.805217E-005	0.0006505	10
	20	58	2987.132	17.94164	-2.507314	1	18.11599	-7.955467	-2.797456E-005	0.0006983	10
	21	60	2390.625	18.03296	-3.104831	1	18.2983	-9.76914	2.661397E-005	0.0006389	10
	22	63	1884.191	18.14005	-3.898106	1	18.55415	-12.12783	1.906381E-005	0.000638	10
	23	65	1516.544	18.25944	-4.798499	1	18.87943	-14.72414	2.221121E-005	0.0006545	10
	24	67	1193.986	18.41432	-6.023686	1	19.37452	-18.11393	-2.616619E-005	0.0006893	10
	25	70	946.5144	18.60072	-7.511039	1	20.05997	-21.98903	2.53227E-005	0.000679	10
	26	72	751.7689	18.8243	-9.336102	1	21.01231	-26.37957	-6.530604E-006	0.0006915	10
	27	74	597.4265	19.10419	-11.59652	1	22.34836	-31.25836	2.399785E-005	0.0006576	10
	28	77	477.4305	19.44025	-14.31426	1	24.1417	-36.36499	-3.079881E-006	0.0006761	10
	29	79	376.6741	19.88939	-17.87741	1	26.74303	-41.95052	-2.484943E-006	0.0006952	10
	30	81	298.2954	20.44073	-22.22999	1	30.19927	-47.40111	-2.655606E-006	0.0006796	10
	31	84	237.7717	21.11604	-27.45766	1	34.63828	-52.43828	-2.378257E-006	0.0007114	10
	32	86	189.0121	21.96782	-33.98341	1	40.4655	-57.12025	-2.16773E-006	0.0006781	10
	33	88	150.2404	23.00703	-41.9876	1	47.87778	-61.27954	1.34484E-006	7.95755E-005	9
	34	91	119.1737	24.35149	-52.01218	1	57.4305	-64.91156	1.35522E-006	0.0000957	9
	35	93	95.0169	25.98851	-64.0843	1	69.15346	-67.92567	1.362153E-006	7.75641E-005	9
	36	96	75.60484	28.03329	-79.06902	1	83.89145	-70.47844	1.309578E-006	7.848565E-005	9
	37	98	54.50582	31.77487	-106.7287	1	111.3583	-73.42088	1.301416E-006	7.404824E-005	9
	38	101	45.95588	34.20952	-124.7879	1	129.3921	-74.66949	1.322392E-006	8.22513E-005	9
	39	103	37.20238	37.73489	-151.4103	1	156.0416	-76.00568	1.314992E-006	8.264191E-005	9
	40	105	30.04808	41.97048	-184.1493	1	188.8716	-77.16072	1.390017E-006	7.204313E-005	9
	41	108	23.91582	47.44038	-227.1108	1	232.0128	-78.20134	1.316456E-006	7.500916E-005	9
	42	110	18.60119	54.812	-286.1383	1	291.3408	-79.15591	1.353563E-006	7.865775E-005	9
	43	113	15.02404	62.54575	-348.6379	1	354.2039	-79.82931	1.344356E-006	9.166512E-005	9
	44	115	12.01923	72.23044	-426.8525	1	432.9207	-80.3956	5.180401E-007	0.000656	8
	45	117	9.450605	85.86232	-533.4743	1	540.3398	-80.8567	6.132797E-007	0.0006536	8
	46	120	7.512019	102.5634	-660.2591	1	668.1776	-81.17035	5.938354E-007	0.0006516	8
	47	123	5.978954	124.0748	-815.5668	1	824.9507	-81.34973	6.243456E-007	0.0006571	8
	48	126	4.734848	152.9285	-1013.129	1	1024.606	-81.41619	5.754156E-007	0.0006623	8
	49	129	3.75601	189.3731	-1254.211	1	1268.427	-81.41378	6.264403E-007	0.0006715	8
	50	132	3.004808	235.7488	-1539.858	1	1557.8	-81.29573	5.882163E-007	0.0006922	8
	51	136	2.372217	299.8185	-1912.337	1	1935.697	-81.08963	5.911809E-007	0.000723	8
	52	140	1.878005	385.7054	-2366.857	1	2398.079	-80.74438	6.006842E-007	0.0006322	8
	53	145	1.512097	488.1806	-2882.221	1	2923.272	-80.38667	6.127187E-007	0.0007559	8
	54	150	1.201923	625.5794	-3551.947	1	3606.616	-80.01134	6.141138E-007	0.0006373	8
	55	157	0.956633	806.0558	-4372.984	1	4446.652	-79.55611	4.543273E-008	-1.54171E-005	7
