EXPLAIN
TAG	EISPOT
TITLE	LABEL	Potentiostatic EIS	Test Identifier
DATE	LABEL	2/27/2021	Date
TIME	LABEL	22:48:15	Time
NOTES	NOTES	1	Notes...
	
PSTAT	PSTAT	REF3000-16137	Potentiostat
VDC	POTEN	0.00000E+000	T	DC Voltage (V)
FREQINIT	QUANT	3.00000E+005	Initial Freq. (Hz)
FREQFINAL	QUANT	1.00000E+000	Final Freq. (Hz)
PTSPERDEC	QUANT	1.00000E+001	Points/decade
VAC	QUANT	5.00000E+001	AC Voltage (mV rms)
AREA	QUANT	1.00000E+000	Sample Area (cm^2)
SPEED	SELECTOR	2	Optimize for:
ZGUESS	QUANT	1.00000E+003	Estimated Z (ohms)
EOC	QUANT	0	Open Circuit (V)
SEQUENCER	TOGGLE	TRUE	Run as Sequence
PSTATMODEL	IQUANT	5	Pstat Model
PSTATSECTION	LABEL	REF3000-16137	Pstat Section
PSTATSERIALNO	LABEL	16137	Pstat Serial Number
CTRLMODE	IQUANT	1	Control Mode
IESTAB	IQUANT	0	I/E Stability
CASPEED	IQUANT	1	Control Amp Speed
CONVENTION	IQUANT	1	Current Convention
ICHRANGE	IQUANT	2	Ich Range
ICHRANGEMODE	TOGGLE	F	Ich Auto Range
ICHOFFSETENABLE	TOGGLE	T	Ich Offset Enable
ICHOFFSET	QUANT	0	Ich Offset (V)
ICHFILTER	IQUANT	3	Ich Filter
VCHRANGE	IQUANT	2	Vch Range
VCHRANGEMODE	TOGGLE	F	Vch Auto Range
VCHOFFSETENABLE	TOGGLE	T	Vch Offset Enable
VCHOFFSET	QUANT	0	Vch Offset (V)
VCHFILTER	IQUANT	3	Vch Filter
ACHRANGE	IQUANT	2	Ach Range
ACHOFFSETENABLE	TOGGLE	F	Ach Offset Enable
ACHOFFSET	QUANT	0	Ach Offset (V)
ACHFILTER	IQUANT	3	Ach Filter
IERANGELOWERLIMIT	IQUANT	2	I/E Range Lower Limit
IERANGEMODE	TOGGLE	F	I/E AutoRange
IERANGE	IQUANT	11	I/E Range
POSFEEDENABLE	TOGGLE	F	Positive Feedback IR Comp
POSFEEDRESISTANCE	QUANT	0	Positive Feedback Resistance (ohm)
ACHSELECT	IQUANT	0	Ach Select
CABLEID	IQUANT	13	Cable ID
DCCALDATE	LABEL	7/31/2020	DC Calibration Date
ACCALDATE	LABEL	7/31/2020	AC Calibration Date
THERMOSELECT	IQUANT	1	Thermo Select
FRAMEWORKVERSION	QUANT	6.33	Framework Version
INSTRUMENTVERSION	LABEL	3.50	Instrument Version
COMPLIANCEVOLTAGE	IQUANT	0	Compliance Voltage
ZCURVE	TABLE
	Pt	Time	Freq	Zreal	Zimag	Zsig	Zmod	Zphz	Idc	Vdc	IERange
	#	s	Hz	ohm	ohm	V	ohm	°	A	V	#
	0	7	300046.9	28.08691	1.377811	1	28.12068	2.808408	-4.547804E-006	-0.0001082	11
	1	11	238359.4	28.19131	1.432215	1	28.22766	2.908321	7.77262E-005	0.0001812	10
	2	14	189328.1	28.2764	1.117985	1	28.29849	2.264166	4.520417E-005	0.0006093	10
	3	17	150421.9	28.36457	0.8675882	1	28.37783	1.751962	2.159084E-005	0.0005488	10
	4	19	119484.4	28.43396	0.658471	1	28.44159	1.326613	2.914749E-005	0.0006108	10
	5	22	94921.88	28.51936	0.5045311	1	28.52383	1.013504	-1.459308E-005	0.0006396	10
	6	24	75421.88	28.61087	0.346653	1	28.61297	0.694169	2.154815E-005	0.0006293	10
	7	27	59859.37	28.69904	0.2143086	1	28.69984	0.4278454	2.230208E-005	0.0006998	10
	8	29	47578.12	28.7889	0.0935547	1	28.78906	0.1861923	5.041521E-006	0.0006513	10
	9	32	37828.12	28.87634	-0.0135182	1	28.87634	-0.0268226	2.039793E-005	0.000647	10
	10	34	30046.88	28.96763	-0.1222806	1	28.96789	-0.2418602	-2.600951E-006	0.0006379	10
	11	37	23859.38	29.05345	-0.2354126	1	29.0544	-0.4642427	1.476433E-005	0.0006577	10
	12	39	18984.38	29.13904	-0.3564016	1	29.14122	-0.7007536	2.123075E-005	0.0006432	10
	13	42	15046.87	29.22231	-0.4902925	1	29.22642	-0.96122	-1.29521E-005	0.0007485	10
	14	44	11953.13	29.32103	-0.6473851	1	29.32817	-1.26484	2.66068E-005	0.0006937	10
	15	46	9515.62	29.41055	-0.8424935	1	29.42261	-1.640844	5.593588E-006	0.0006276	10
	16	49	7546.875	29.50744	-1.078379	1	29.52714	-2.093001	2.275375E-005	0.0006568	10
	17	51	5928.309	29.61237	-1.366638	1	29.64389	-2.642378	-2.877136E-005	0.0007023	10
	18	53	4733.456	29.71908	-1.711127	1	29.7683	-3.295264	-2.793924E-005	0.0007029	10
	19	56	3796.875	29.83601	-2.113179	1	29.91075	-4.051292	1.493079E-005	0.0006678	10
	20	58	2987.132	29.9594	-2.653822	1	30.07671	-5.062082	6.507334E-006	0.0006353	10
	21	60	2390.625	30.08828	-3.290634	1	30.26768	-6.241404	-1.250075E-006	0.0006565	10
	22	62	1884.191	30.23204	-4.135457	1	30.51358	-7.789177	2.158931E-005	0.0006933	10
	23	65	1516.544	30.40981	-5.072737	1	30.83	-9.470453	-2.828475E-005	0.0007131	10
	24	67	1193.986	30.60908	-6.375528	1	31.26601	-11.76584	2.411197E-005	0.0006836	10
	25	70	946.5144	30.84146	-7.933445	1	31.84549	-14.42563	-3.412009E-006	0.0006498	10
	26	72	751.7689	31.10598	-9.8764	1	32.63626	-17.61506	-2.846953E-005	0.0007147	10
	27	74	597.4265	31.43382	-12.2718	1	33.74437	-21.32572	5.935035E-006	0.0006338	10
	28	77	477.4305	31.81275	-15.1587	1	35.23971	-25.47769	-2.035259E-006	0.0006894	10
	29	79	376.6741	32.26809	-18.91911	1	37.40538	-30.38353	1.254134E-006	8.520714E-005	9
	30	81	298.2954	32.87215	-23.54489	1	40.43439	-35.61238	1.351001E-006	8.520702E-005	9
	31	83	237.7717	33.60719	-29.10399	1	44.45768	-40.89272	1.286158E-006	8.398124E-005	9
	32	86	189.0121	34.52631	-36.04461	1	49.91272	-46.2325	1.338332E-006	8.749534E-005	9
	33	88	150.2404	35.66875	-44.61567	1	57.12108	-51.35882	1.281694E-006	8.615073E-005	9
	34	91	119.1737	37.10239	-55.30509	1	66.5976	-56.14362	1.259525E-006	8.704628E-005	9
	35	93	95.0169	38.84816	-68.19843	1	78.48697	-60.33268	1.278064E-006	8.639198E-005	9
	36	96	75.60484	41.0396	-84.21439	1	93.68198	-64.01897	1.169671E-006	8.821196E-005	9
	37	98	54.50582	45.08378	-113.803	1	122.4078	-68.38869	1.156117E-006	8.394047E-005	9
	38	101	45.95588	47.77758	-133.1169	1	141.4313	-70.2562	1.27818E-006	9.258722E-005	9
	39	103	37.20238	51.71121	-161.5442	1	169.6189	-72.24983	1.192149E-006	9.237797E-005	9
	40	105	30.04808	56.47882	-196.436	1	204.3942	-73.95912	1.302852E-006	8.063659E-005	9
	41	108	23.91582	62.63927	-242.0147	1	249.9896	-75.48891	1.261149E-006	8.172791E-005	9
	42	110	18.60119	70.85689	-304.6242	1	312.7565	-76.9056	1.31333E-006	8.998522E-005	9
	43	112	15.02404	79.24016	-370.4531	1	378.8331	-77.92634	1.316376E-006	9.140475E-005	9
	44	115	12.01923	89.51911	-452.8228	1	461.5865	-78.81731	4.795663E-007	0.0006674	8
	45	117	9.450605	103.3461	-565.2831	1	574.6525	-79.6395	4.688873E-007	0.000678	8
	46	120	7.512019	120.0875	-698.8558	1	709.0983	-80.24983	4.729334E-007	0.000666	8
	47	122	5.978954	140.3449	-863.3188	1	874.652	-80.76653	4.986445E-007	0.0006745	8
	48	125	4.734848	167.0976	-1071.906	1	1084.852	-81.13957	5.319085E-007	0.0006292	8
	49	129	3.75601	200.9099	-1328.972	1	1344.073	-81.4033	5.397466E-007	0.0006923	8
	50	132	3.004808	242.3658	-1633.7	1	1651.581	-81.5615	5.025081E-007	0.0006858	8
	51	136	2.372217	300.5547	-2031.06	1	2053.177	-81.5825	5.046583E-007	0.0006765	8
	52	140	1.878005	377.1297	-2525.343	1	2553.347	-81.50633	5.462087E-007	0.0006489	8
	53	145	1.512097	462.9412	-3083.227	1	3117.788	-81.46092	5.30535E-007	0.0007613	8
	54	150	1.201923	589.1597	-3809.766	1	3855.052	-81.20915	5.5422E-007	0.0006523	8
	55	156	0.956633	745.5127	-4701.934	1	4760.669	-80.99049	4.271663E-008	4.957505E-006	7
