EXPLAIN
TAG	EISPOT
TITLE	LABEL	Potentiostatic EIS	Test Identifier
DATE	LABEL	2/27/2021	Date
TIME	LABEL	21:52:31	Time
NOTES	NOTES	1	Notes...
	
PSTAT	PSTAT	REF3000-16137	Potentiostat
VDC	POTEN	0.00000E+000	T	DC Voltage (V)
FREQINIT	QUANT	3.00000E+005	Initial Freq. (Hz)
FREQFINAL	QUANT	1.00000E+000	Final Freq. (Hz)
PTSPERDEC	QUANT	1.00000E+001	Points/decade
VAC	QUANT	5.00000E+001	AC Voltage (mV rms)
AREA	QUANT	1.00000E+000	Sample Area (cm^2)
SPEED	SELECTOR	2	Optimize for:
ZGUESS	QUANT	1.00000E+003	Estimated Z (ohms)
EOC	QUANT	0	Open Circuit (V)
SEQUENCER	TOGGLE	TRUE	Run as Sequence
PSTATMODEL	IQUANT	5	Pstat Model
PSTATSECTION	LABEL	REF3000-16137	Pstat Section
PSTATSERIALNO	LABEL	16137	Pstat Serial Number
CTRLMODE	IQUANT	1	Control Mode
IESTAB	IQUANT	0	I/E Stability
CASPEED	IQUANT	1	Control Amp Speed
CONVENTION	IQUANT	1	Current Convention
ICHRANGE	IQUANT	2	Ich Range
ICHRANGEMODE	TOGGLE	F	Ich Auto Range
ICHOFFSETENABLE	TOGGLE	T	Ich Offset Enable
ICHOFFSET	QUANT	0	Ich Offset (V)
ICHFILTER	IQUANT	3	Ich Filter
VCHRANGE	IQUANT	2	Vch Range
VCHRANGEMODE	TOGGLE	F	Vch Auto Range
VCHOFFSETENABLE	TOGGLE	T	Vch Offset Enable
VCHOFFSET	QUANT	0	Vch Offset (V)
VCHFILTER	IQUANT	3	Vch Filter
ACHRANGE	IQUANT	2	Ach Range
ACHOFFSETENABLE	TOGGLE	F	Ach Offset Enable
ACHOFFSET	QUANT	0	Ach Offset (V)
ACHFILTER	IQUANT	3	Ach Filter
IERANGELOWERLIMIT	IQUANT	2	I/E Range Lower Limit
IERANGEMODE	TOGGLE	F	I/E AutoRange
IERANGE	IQUANT	11	I/E Range
POSFEEDENABLE	TOGGLE	F	Positive Feedback IR Comp
POSFEEDRESISTANCE	QUANT	0	Positive Feedback Resistance (ohm)
ACHSELECT	IQUANT	0	Ach Select
CABLEID	IQUANT	13	Cable ID
DCCALDATE	LABEL	7/31/2020	DC Calibration Date
ACCALDATE	LABEL	7/31/2020	AC Calibration Date
THERMOSELECT	IQUANT	1	Thermo Select
FRAMEWORKVERSION	QUANT	6.33	Framework Version
INSTRUMENTVERSION	LABEL	3.50	Instrument Version
COMPLIANCEVOLTAGE	IQUANT	0	Compliance Voltage
ZCURVE	TABLE
	Pt	Time	Freq	Zreal	Zimag	Zsig	Zmod	Zphz	Idc	Vdc	IERange
	#	s	Hz	ohm	ohm	V	ohm	°	A	V	#
	0	10	300046.9	3.854809	2.240025	1	4.458392	30.16082	1.294345E-005	-4.27715E-006	10
	1	13	238359.4	3.804802	1.776888	1	4.199268	25.03313	1.014657E-005	-0.0002693	10
	2	16	189328.1	3.781091	1.401682	1	4.032538	20.34017	5.230185E-005	-5.82955E-005	10
	3	19	150421.9	3.778322	1.096389	1	3.934181	16.18161	7.688123E-006	0.0001976	10
	4	21	119484.4	3.762152	0.8583404	1	3.858825	12.85213	-8.823986E-005	0.0004294	10
	5	24	94921.88	3.757127	0.6670992	1	3.815891	10.06826	3.967997E-005	0.0004358	10
	6	26	75421.88	3.754468	0.4962051	1	3.787117	7.5288	2.709735E-005	0.0004741	10
	7	29	59859.37	3.752916	0.3517038	1	3.76936	5.353827	1.683959E-005	0.0005733	10
	8	31	47578.12	3.753063	0.2258799	1	3.759854	3.444219	2.63079E-005	0.0005961	10
	9	34	37828.12	3.754078	0.1126675	1	3.755769	1.719046	2.312615E-005	0.0006064	10
	10	36	30046.88	3.758093	0.0067151	1	3.758099	0.1023777	-1.558506E-005	0.0006818	10
	11	39	23859.38	3.762627	-0.0983834	1	3.763913	-1.497801	-1.953986E-005	0.0006891	10
	12	41	18984.38	3.767648	-0.2062069	1	3.773287	-3.132727	-2.559017E-005	0.0006921	10
	13	44	15046.87	3.775041	-0.3243911	1	3.788953	-4.911388	8.40704E-006	0.0006941	10
	14	46	11953.13	3.783702	-0.4567197	1	3.811167	-6.882708	2.252232E-005	0.0006859	10
	15	48	9515.62	3.795325	-0.6084578	1	3.843789	-9.108025	-5.159068E-006	0.0006852	10
	16	51	7546.875	3.810346	-0.792384	1	3.891865	-11.74756	-1.877903E-005	0.000709	10
	17	53	5928.309	3.829292	-1.02486	1	3.964065	-14.98331	3.136437E-006	0.00069	10
	18	55	4733.456	3.853586	-1.289336	1	4.063559	-18.49926	-1.128902E-005	0.0006814	10
	19	58	3796.875	3.883561	-1.605472	1	4.202331	-22.4603	1.979673E-005	0.0006914	10
	20	60	2987.132	3.92498	-2.027397	1	4.417669	-27.31802	2.141145E-005	0.0006768	10
	21	62	2390.625	3.976363	-2.511958	1	4.703339	-32.28152	-2.05031E-005	0.0007179	10
	22	65	1884.191	4.045552	-3.150585	1	5.127638	-37.91066	1.909756E-005	0.0006794	10
	23	67	1516.544	4.127338	-3.867668	1	5.656304	-43.13974	-1.747995E-005	0.000688	10
	24	69	1193.986	4.241467	-4.842663	1	6.437502	-48.78637	1.817625E-005	0.0006838	10
	25	72	946.5144	4.388096	-6.015899	1	7.446236	-53.89237	-2.138044E-005	0.0007156	10
	26	74	751.7689	4.570084	-7.454859	1	8.744175	-58.49028	-3.121136E-006	0.000675	10
	27	76	597.4265	4.799902	-9.225097	1	10.39911	-62.51163	-1.737543E-005	0.0006901	10
	28	79	477.4305	5.086877	-11.34964	1	12.43747	-65.85822	-1.655422E-006	0.0006961	10
	29	81	376.6741	5.469212	-14.11757	1	15.13995	-68.82339	-2.140622E-006	0.00069	10
	30	83	298.2954	5.941978	-17.48886	1	18.47072	-71.23441	-2.361988E-006	0.0006915	10
	31	86	237.7717	6.513227	-21.52387	1	22.48775	-73.16393	-2.753642E-006	0.0006925	10
	32	88	189.0121	7.229023	-26.55181	1	27.51831	-74.76974	-2.209185E-006	0.0006897	10
	33	90	150.2404	8.116145	-32.75726	1	33.74774	-76.08427	-2.384984E-006	0.0006933	10
	34	93	119.1737	9.23191	-40.49627	1	41.53523	-77.15778	-2.196349E-006	0.0006911	10
	35	95	95.0169	10.5824	-49.78446	1	50.89675	-77.99957	1.228518E-006	9.411513E-005	9
	36	98	75.60484	12.33479	-61.41507	1	62.64151	-78.64362	1.100139E-006	9.344603E-005	9
	37	100	54.50582	15.79212	-82.99765	1	84.48669	-79.227	1.061203E-006	9.06983E-005	9
	38	103	45.95588	18.22158	-97.1116	1	98.8063	-79.37285	1.327235E-006	0.0000956	9
	39	105	37.20238	22.06627	-117.9186	1	119.9655	-79.40075	1.277883E-006	0.0000991	9
	40	107	30.04808	27.22745	-143.4116	1	145.9733	-79.25004	1.195114E-006	9.419146E-005	9
	41	110	23.91582	34.7161	-176.6728	1	180.0514	-78.88305	1.010388E-006	9.09309E-005	9
	42	112	18.60119	46.02195	-221.6759	1	226.4028	-78.27148	1.00476E-006	0.000098	9
	43	115	15.02404	59.34733	-268.3344	1	274.819	-77.52869	1.473996E-006	0.0001005	9
	44	117	12.01923	78.43266	-326.7337	1	336.0158	-76.50152	1.050304E-006	9.140449E-005	9
	45	119	9.450605	106.4454	-402.1763	1	416.0245	-75.17525	1.361234E-006	0.0001023	9
	46	122	7.512019	142.9792	-486.1716	1	506.7602	-73.61181	8.338025E-007	0.0006872	8
	47	125	5.978954	193.1358	-585.886	1	616.8986	-71.75533	6.537346E-007	0.0006699	8
	48	128	4.734848	262.2584	-703.592	1	750.8802	-69.55746	8.968016E-007	0.0006993	8
	49	131	3.75601	354.5789	-834.4077	1	906.6214	-66.97708	5.027787E-007	0.0006516	8
	50	134	3.004808	470.5396	-971.633	1	1079.573	-64.16015	6.548868E-007	0.0006548	8
	51	138	2.372217	628.4855	-1121.918	1	1285.96	-60.74295	6.024877E-007	0.0007115	8
	52	142	1.878005	822.4578	-1272.821	1	1515.424	-57.13071	4.568847E-007	0.0006536	8
	53	147	1.512097	1031.727	-1401.752	1	1740.508	-53.64595	5.505905E-007	0.0006116	8
	54	152	1.201923	1288.938	-1519.571	1	1992.6	-49.69455	5.368214E-007	0.0006541	8
	55	159	0.956633	1564.503	-1613.137	1	2247.194	-45.87685	3.851068E-007	2.73315E-005	8
