EXPLAIN
TAG	EISPOT
TITLE	LABEL	Potentiostatic EIS	Test Identifier
DATE	LABEL	2/27/2021	Date
TIME	LABEL	23:31:48	Time
NOTES	NOTES	1	Notes...
	
PSTAT	PSTAT	REF3000-16137	Potentiostat
VDC	POTEN	0.00000E+000	T	DC Voltage (V)
FREQINIT	QUANT	3.00000E+005	Initial Freq. (Hz)
FREQFINAL	QUANT	1.00000E+000	Final Freq. (Hz)
PTSPERDEC	QUANT	1.00000E+001	Points/decade
VAC	QUANT	5.00000E+001	AC Voltage (mV rms)
AREA	QUANT	1.00000E+000	Sample Area (cm^2)
SPEED	SELECTOR	2	Optimize for:
ZGUESS	QUANT	1.00000E+003	Estimated Z (ohms)
EOC	QUANT	0	Open Circuit (V)
SEQUENCER	TOGGLE	TRUE	Run as Sequence
PSTATMODEL	IQUANT	5	Pstat Model
PSTATSECTION	LABEL	REF3000-16137	Pstat Section
PSTATSERIALNO	LABEL	16137	Pstat Serial Number
CTRLMODE	IQUANT	1	Control Mode
IESTAB	IQUANT	0	I/E Stability
CASPEED	IQUANT	1	Control Amp Speed
CONVENTION	IQUANT	1	Current Convention
ICHRANGE	IQUANT	2	Ich Range
ICHRANGEMODE	TOGGLE	F	Ich Auto Range
ICHOFFSETENABLE	TOGGLE	T	Ich Offset Enable
ICHOFFSET	QUANT	0	Ich Offset (V)
ICHFILTER	IQUANT	3	Ich Filter
VCHRANGE	IQUANT	2	Vch Range
VCHRANGEMODE	TOGGLE	F	Vch Auto Range
VCHOFFSETENABLE	TOGGLE	T	Vch Offset Enable
VCHOFFSET	QUANT	0	Vch Offset (V)
VCHFILTER	IQUANT	3	Vch Filter
ACHRANGE	IQUANT	2	Ach Range
ACHOFFSETENABLE	TOGGLE	F	Ach Offset Enable
ACHOFFSET	QUANT	0	Ach Offset (V)
ACHFILTER	IQUANT	3	Ach Filter
IERANGELOWERLIMIT	IQUANT	2	I/E Range Lower Limit
IERANGEMODE	TOGGLE	F	I/E AutoRange
IERANGE	IQUANT	11	I/E Range
POSFEEDENABLE	TOGGLE	F	Positive Feedback IR Comp
POSFEEDRESISTANCE	QUANT	0	Positive Feedback Resistance (ohm)
ACHSELECT	IQUANT	0	Ach Select
CABLEID	IQUANT	13	Cable ID
DCCALDATE	LABEL	7/31/2020	DC Calibration Date
ACCALDATE	LABEL	7/31/2020	AC Calibration Date
THERMOSELECT	IQUANT	1	Thermo Select
FRAMEWORKVERSION	QUANT	6.33	Framework Version
INSTRUMENTVERSION	LABEL	3.50	Instrument Version
COMPLIANCEVOLTAGE	IQUANT	0	Compliance Voltage
ZCURVE	TABLE
	Pt	Time	Freq	Zreal	Zimag	Zsig	Zmod	Zphz	Idc	Vdc	IERange
	#	s	Hz	ohm	ohm	V	ohm	°	A	V	#
	0	27	300046.9	1888.637	-2465.989	1	3106.131	-52.55243	1.801417E-005	-0.0021983	9
	1	41	238359.4	2412.497	-2669.327	1	3597.978	-47.89322	-3.197693E-007	-0.0019424	9
	2	56	189328.1	3073.699	-2869.25	1	4204.786	-43.02969	2.480123E-005	0.0009829	9
	3	63	150421.9	3573.496	-2806.763	1	4543.984	-38.14748	-1.508693E-005	0.0017704	9
	4	71	119484.4	4303.388	-2616.869	1	5036.581	-31.30358	-3.062E-005	-0.0048633	8
	5	78	94921.88	4870.864	-2487.756	1	5469.392	-27.05532	-9.775013E-006	-0.0016472	8
	6	86	75421.88	5355.793	-2299.282	1	5828.483	-23.23421	1.730018E-005	8.959925E-005	8
	7	93	59859.37	5842.887	-2098.145	1	6208.184	-19.7529	2.262852E-005	-0.0029363	8
	8	101	47578.12	6230.455	-1860.952	1	6502.438	-16.63017	-2.493475E-005	0.0074073	8
	9	108	37828.12	6613.441	-1574.131	1	6798.198	-13.38842	2.265535E-005	-0.0029194	8
	10	116	30046.88	6927.848	-1404.205	1	7068.725	-11.45805	-1.237412E-006	0.0071836	8
	11	124	23859.38	7359.176	-774.0652	1	7399.774	-6.004502	-6.439491E-006	0.0201438	7
	12	127	18984.38	7461.724	-640.091	1	7489.128	-4.903016	-4.389094E-006	0.0017493	7
	13	130	15046.87	7607.204	-539.7523	1	7626.328	-4.058494	-2.038091E-006	0.0205368	7
	14	134	11953.13	7686.896	-471.891	1	7701.366	-3.512923	6.867672E-006	-0.0208598	7
	15	137	9515.62	7791.729	-388.5103	1	7801.409	-2.854511	5.059786E-006	-0.0237067	7
	16	140	7546.875	7876.027	-334.0423	1	7883.107	-2.428604	5.09114E-006	-0.0238211	7
	17	144	5928.309	7961.313	-249.0112	1	7965.206	-1.791494	-5.751981E-006	0.0095314	7
	18	148	4733.456	8107.963	-228.8547	1	8111.192	-1.616797	4.04455E-006	0.0009133	7
	19	152	3796.875	8269.031	-183.9926	1	8271.078	-1.274667	-5.020506E-006	0.0239157	7
	20	156	2987.132	8363.209	-142.4931	1	8364.423	-0.976116	5.681165E-006	-0.0076246	7
	21	160	2390.625	8523.493	-109.1286	1	8524.191	-0.7335331	-6.016944E-006	0.0229555	7
	22	164	1884.191	8681.7	-191.4917	1	8683.812	-1.263564	-4.482406E-006	0.0020857	7
	23	169	1516.544	8751.877	-122.0805	1	8752.729	-0.7991708	-5.971865E-006	0.0228332	7
	24	173	1193.986	8877.184	-64.11618	1	8877.415	-0.4138162	-2.667845E-006	-0.0057129	7
	25	177	946.5144	9065.988	-66.2989	1	9066.23	-0.4189923	6.707034E-006	-0.0154365	7
	26	180	751.7689	9183.258	-24.94419	1	9183.292	-0.1556303	-4.992451E-006	0.0239314	7
	27	183	597.4265	9218.008	-123.0581	1	9218.829	-0.7648392	5.092631E-006	-0.0240461	7
	28	185	477.4305	9280.829	-63.56836	1	9281.047	-0.3924371	-6.874883E-008	0.0006164	7
	29	188	376.6741	9360.741	-64.08337	1	9360.961	-0.3922392	-7.470104E-008	0.0006094	7
	30	190	298.2954	9439.538	-66.15229	1	9439.77	-0.4015223	-6.664431E-008	0.0006656	7
	31	192	237.7717	9522.57	-74.31277	1	9522.86	-0.4471188	-6.99366E-008	0.0006687	7
	32	195	189.0121	9609.89	-84.81805	1	9610.27	-0.5056862	-5.750813E-008	0.0006027	7
	33	197	150.2404	9694.46	-96.9481	1	9694.94	-0.5729594	-6.032788E-008	0.0006663	7
	34	200	119.1737	9783.19	-118.9062	1	9783.92	-0.6963462	-7.920326E-008	0.000587	7
	35	202	95.0169	9871.71	-138.9681	1	9872.68	-0.8065232	-6.947505E-008	0.0006156	7
	36	204	75.60484	9966.15	-168.8976	1	9967.58	-0.970906	-6.397474E-008	0.000669	7
	37	207	54.50582	10063.32	-223.42	1	10065.8	-1.271839	-5.356654E-008	0.0006455	7
	38	210	45.95588	10159.71	-258.9683	1	10163.01	-1.460138	-7.293056E-008	0.0005962	7
	39	212	37.20238	10251.94	-316.0532	1	10256.81	-1.765791	-1.307185E-008	0.0006128	7
	40	214	30.04808	10353.15	-379.7303	1	10360.11	-2.100539	-8.308651E-008	0.0005806	7
	41	217	23.91582	10450.91	-466.7682	1	10461.33	-2.557297	-3.24923E-008	0.0006096	7
	42	219	18.60119	10562.09	-590.9286	1	10578.6	-3.202251	-9.77244E-008	0.0006803	7
	43	221	15.02404	10664.85	-723.2042	1	10689.34	-3.879399	-6.370734E-009	0.0006286	7
	44	224	12.01923	10756.12	-880.9937	1	10792.14	-4.682432	-2.318437E-009	0.000585	7
	45	226	9.450605	10875.96	-1122.297	1	10933.71	-5.891535	-1.266356E-007	0.0006244	7
	46	229	7.512019	11000.54	-1403.412	1	11089.7	-7.270329	-1.56836E-007	0.0005712	7
	47	231	5.978954	11165.17	-1728.897	1	11298.24	-8.802191	-1.293235E-007	0.0005955	7
	48	234	4.734848	11377.7	-2140.212	1	11577.25	-10.65318	-9.022942E-009	0.0006157	7
	49	238	3.75601	11562.88	-2643.217	1	11861.14	-12.87629	-9.780317E-008	0.0006604	7
	50	241	3.004808	11813.38	-3263.668	1	12255.92	-15.44381	-9.381107E-008	0.0006221	7
	51	245	2.372217	12131.95	-4016.456	1	12779.52	-18.31787	-3.45235E-008	0.0006849	7
	52	249	1.878005	12461.33	-4990.097	1	13423.33	-21.82347	-5.271329E-008	0.00061	7
	53	254	1.512097	12866.38	-6085.289	1	14232.86	-25.31231	-5.379961E-008	0.0007329	7
	54	259	1.201923	13380.15	-7541.071	1	15358.91	-29.40566	-4.962702E-008	0.0006225	7
	55	266	0.956633	13978.27	-9290.256	1	16783.95	-33.60885	-7.607128E-008	-9.325971E-006	7
