EXPLAIN
TAG	EISPOT
TITLE	LABEL	Potentiostatic EIS	Test Identifier
DATE	LABEL	2/27/2021	Date
TIME	LABEL	22:34:21	Time
NOTES	NOTES	1	Notes...
	
PSTAT	PSTAT	REF3000-16137	Potentiostat
VDC	POTEN	0.00000E+000	T	DC Voltage (V)
FREQINIT	QUANT	3.00000E+005	Initial Freq. (Hz)
FREQFINAL	QUANT	1.00000E+000	Final Freq. (Hz)
PTSPERDEC	QUANT	1.00000E+001	Points/decade
VAC	QUANT	5.00000E+001	AC Voltage (mV rms)
AREA	QUANT	1.00000E+000	Sample Area (cm^2)
SPEED	SELECTOR	2	Optimize for:
ZGUESS	QUANT	1.00000E+003	Estimated Z (ohms)
EOC	QUANT	0	Open Circuit (V)
SEQUENCER	TOGGLE	TRUE	Run as Sequence
PSTATMODEL	IQUANT	5	Pstat Model
PSTATSECTION	LABEL	REF3000-16137	Pstat Section
PSTATSERIALNO	LABEL	16137	Pstat Serial Number
CTRLMODE	IQUANT	1	Control Mode
IESTAB	IQUANT	0	I/E Stability
CASPEED	IQUANT	1	Control Amp Speed
CONVENTION	IQUANT	1	Current Convention
ICHRANGE	IQUANT	2	Ich Range
ICHRANGEMODE	TOGGLE	F	Ich Auto Range
ICHOFFSETENABLE	TOGGLE	T	Ich Offset Enable
ICHOFFSET	QUANT	0	Ich Offset (V)
ICHFILTER	IQUANT	3	Ich Filter
VCHRANGE	IQUANT	2	Vch Range
VCHRANGEMODE	TOGGLE	F	Vch Auto Range
VCHOFFSETENABLE	TOGGLE	T	Vch Offset Enable
VCHOFFSET	QUANT	0	Vch Offset (V)
VCHFILTER	IQUANT	3	Vch Filter
ACHRANGE	IQUANT	2	Ach Range
ACHOFFSETENABLE	TOGGLE	F	Ach Offset Enable
ACHOFFSET	QUANT	0	Ach Offset (V)
ACHFILTER	IQUANT	3	Ach Filter
IERANGELOWERLIMIT	IQUANT	2	I/E Range Lower Limit
IERANGEMODE	TOGGLE	F	I/E AutoRange
IERANGE	IQUANT	11	I/E Range
POSFEEDENABLE	TOGGLE	F	Positive Feedback IR Comp
POSFEEDRESISTANCE	QUANT	0	Positive Feedback Resistance (ohm)
ACHSELECT	IQUANT	0	Ach Select
CABLEID	IQUANT	13	Cable ID
DCCALDATE	LABEL	7/31/2020	DC Calibration Date
ACCALDATE	LABEL	7/31/2020	AC Calibration Date
THERMOSELECT	IQUANT	1	Thermo Select
FRAMEWORKVERSION	QUANT	6.33	Framework Version
INSTRUMENTVERSION	LABEL	3.50	Instrument Version
COMPLIANCEVOLTAGE	IQUANT	0	Compliance Voltage
ZCURVE	TABLE
	Pt	Time	Freq	Zreal	Zimag	Zsig	Zmod	Zphz	Idc	Vdc	IERange
	#	s	Hz	ohm	ohm	V	ohm	°	A	V	#
	0	8	300046.9	12.83261	2.095496	1	13.00257	9.27424	3.793354E-005	0.0002059	10
	1	11	238359.4	12.82877	1.680333	1	12.93835	7.46221	4.693198E-005	0.0003577	10
	2	14	189328.1	12.84771	1.318969	1	12.91524	5.861552	-2.447202E-005	0.0003364	10
	3	17	150421.9	12.87181	1.042573	1	12.91396	4.630657	-1.753889E-005	0.0005801	10
	4	19	119484.4	12.87857	0.7999511	1	12.90339	3.554355	-2.566121E-005	0.0005636	10
	5	22	94921.88	12.89666	0.622856	1	12.91169	2.765004	2.202013E-005	0.0005944	10
	6	24	75421.88	12.92099	0.4466979	1	12.92871	1.980012	2.10015E-005	0.0005999	10
	7	27	59859.37	12.95264	0.297685	1	12.95606	1.316572	-8.342588E-006	0.0006349	10
	8	30	47578.12	12.98213	0.1702247	1	12.98325	0.7512321	2.420202E-005	0.0006673	10
	9	32	37828.12	13.01176	0.0565703	1	13.01188	0.2490993	1.842435E-005	0.000637	10
	10	35	30046.88	13.04331	-0.0549682	1	13.04343	-0.241459	2.265252E-005	0.0006291	10
	11	37	23859.38	13.07544	-0.1684077	1	13.07653	-0.7379113	-3.574245E-006	0.0006414	10
	12	39	18984.38	13.10697	-0.2854473	1	13.11008	-1.247607	1.773964E-005	0.0006465	10
	13	42	15046.87	13.14267	-0.4187638	1	13.14934	-1.824993	-3.169853E-005	0.000673	10
	14	44	11953.13	13.17828	-0.5709323	1	13.19064	-2.480716	-7.314574E-006	0.0006503	10
	15	46	9515.62	13.21555	-0.7460893	1	13.23659	-3.231228	-2.329528E-005	0.0006912	10
	16	49	7546.875	13.2554	-0.962283	1	13.29028	-4.152137	-1.95659E-005	0.0006593	10
	17	51	5928.309	13.30323	-1.232718	1	13.36022	-5.294086	-3.582824E-006	0.0006472	10
	18	53	4733.456	13.35256	-1.544968	1	13.44165	-6.600101	-1.138219E-005	0.0006684	10
	19	56	3796.875	13.40756	-1.918187	1	13.54408	-8.141916	1.848255E-005	0.0006347	10
	20	58	2987.132	13.47775	-2.426409	1	13.69443	-10.20568	-2.686766E-005	0.0007093	10
	21	60	2390.625	13.55219	-3.002985	1	13.88091	-12.49411	-1.216573E-005	0.0006787	10
	22	63	1884.191	13.64544	-3.773068	1	14.15747	-15.45653	1.241589E-005	0.0006348	10
	23	65	1516.544	13.75263	-4.645947	1	14.51618	-18.66612	-2.742073E-005	0.0006941	10
	24	67	1193.986	13.89209	-5.830538	1	15.06603	-22.76789	1.8272E-005	0.000638	10
	25	70	946.5144	14.06189	-7.270129	1	15.83008	-27.33939	2.439071E-005	0.0006919	10
	26	72	751.7689	14.26853	-9.03571	1	16.88891	-32.3445	4.693275E-006	0.0006892	10
	27	74	597.4265	14.53766	-11.21138	1	18.35861	-37.63924	1.248934E-005	0.0006313	10
	28	77	477.4305	14.85772	-13.83669	1	20.30285	-42.96212	-2.064299E-006	0.0006893	10
	29	79	376.6741	15.28671	-17.26863	1	23.06272	-48.48379	-2.373344E-006	0.0006781	10
	30	81	298.2954	15.81896	-21.46337	1	26.663	-53.60898	-2.890665E-006	0.0006858	10
	31	84	237.7717	16.47426	-26.50294	1	31.20588	-58.13487	-2.183915E-006	0.0006789	10
	32	86	189.0121	17.29995	-32.7849	1	37.06937	-62.18027	-2.800688E-006	0.0006756	10
	33	88	150.2404	18.31197	-40.48451	1	44.43336	-65.66179	1.244459E-006	7.786983E-005	9
	34	91	119.1737	19.61196	-50.12023	1	53.82069	-68.62968	1.272316E-006	7.775919E-005	9
	35	93	95.0169	21.18384	-61.72058	1	65.25477	-71.05667	1.212058E-006	8.52204E-005	9
	36	96	75.60484	23.13111	-76.11414	1	79.5513	-73.09595	1.245055E-006	7.854853E-005	9
	37	98	54.50582	26.6648	-102.7067	1	106.1116	-75.44613	1.206308E-006	7.492703E-005	9
	38	101	45.95588	28.94837	-120.1042	1	123.5437	-76.44864	1.298019E-006	7.815783E-005	9
	39	103	37.20238	32.24506	-145.7976	1	149.3208	-77.52903	1.374166E-006	7.557157E-005	9
	40	105	30.04808	36.25951	-177.4073	1	181.0749	-78.44865	1.24257E-006	8.324742E-005	9
	41	108	23.91582	41.46462	-218.999	1	222.8898	-79.27869	1.267553E-006	7.543112E-005	9
	42	110	18.60119	48.61295	-276.187	1	280.4327	-80.01736	1.228963E-006	8.643085E-005	9
	43	113	15.02404	56.30647	-336.6598	1	341.336	-80.50514	1.41444E-006	9.051887E-005	9
	44	115	12.01923	66.53377	-414.0324	1	419.3443	-80.87079	1.389598E-006	7.734261E-005	9
	45	117	9.450605	80.46196	-515.4353	1	521.6777	-81.12746	5.526694E-007	0.0006493	8
	46	120	7.512019	97.8512	-637.4575	1	644.924	-81.27308	5.785762E-007	0.0006425	8
	47	122	5.978954	120.696	-787.2164	1	796.4152	-81.28329	6.172204E-007	0.000658	8
	48	125	4.734848	151.2753	-976.771	1	988.416	-81.19638	5.939665E-007	0.0006514	8
	49	129	3.75601	190.9823	-1207.712	1	1222.72	-81.01391	6.43275E-007	0.000673	8
	50	132	3.004808	240.5636	-1479.716	1	1499.143	-80.76598	6.012442E-007	0.00068	8
	51	136	2.372217	311.9325	-1831.665	1	1858.036	-80.33525	5.958063E-007	0.0006416	8
	52	140	1.878005	404	-2268.078	1	2303.779	-79.90015	6.475839E-007	0.0006441	8
	53	145	1.512097	510.0405	-2753.601	1	2800.439	-79.50623	6.134669E-007	0.0007196	8
	54	150	1.201923	669.8461	-3390.779	1	3456.31	-78.82514	6.402952E-007	0.0006618	8
	55	157	0.956633	876.8244	-4154.848	1	4246.361	-78.08336	5.962327E-007	1.240773E-005	8
