EXPLAIN
TAG	EISPOT
TITLE	LABEL	Potentiostatic EIS	Test Identifier
DATE	LABEL	2/27/2021	Date
TIME	LABEL	22:59:17	Time
NOTES	NOTES	1	Notes...
	
PSTAT	PSTAT	REF3000-16137	Potentiostat
VDC	POTEN	0.00000E+000	T	DC Voltage (V)
FREQINIT	QUANT	3.00000E+005	Initial Freq. (Hz)
FREQFINAL	QUANT	1.00000E+000	Final Freq. (Hz)
PTSPERDEC	QUANT	1.00000E+001	Points/decade
VAC	QUANT	5.00000E+001	AC Voltage (mV rms)
AREA	QUANT	1.00000E+000	Sample Area (cm^2)
SPEED	SELECTOR	2	Optimize for:
ZGUESS	QUANT	1.00000E+003	Estimated Z (ohms)
EOC	QUANT	0	Open Circuit (V)
SEQUENCER	TOGGLE	TRUE	Run as Sequence
PSTATMODEL	IQUANT	5	Pstat Model
PSTATSECTION	LABEL	REF3000-16137	Pstat Section
PSTATSERIALNO	LABEL	16137	Pstat Serial Number
CTRLMODE	IQUANT	1	Control Mode
IESTAB	IQUANT	0	I/E Stability
CASPEED	IQUANT	1	Control Amp Speed
CONVENTION	IQUANT	1	Current Convention
ICHRANGE	IQUANT	2	Ich Range
ICHRANGEMODE	TOGGLE	F	Ich Auto Range
ICHOFFSETENABLE	TOGGLE	T	Ich Offset Enable
ICHOFFSET	QUANT	0	Ich Offset (V)
ICHFILTER	IQUANT	3	Ich Filter
VCHRANGE	IQUANT	2	Vch Range
VCHRANGEMODE	TOGGLE	F	Vch Auto Range
VCHOFFSETENABLE	TOGGLE	T	Vch Offset Enable
VCHOFFSET	QUANT	0	Vch Offset (V)
VCHFILTER	IQUANT	3	Vch Filter
ACHRANGE	IQUANT	2	Ach Range
ACHOFFSETENABLE	TOGGLE	F	Ach Offset Enable
ACHOFFSET	QUANT	0	Ach Offset (V)
ACHFILTER	IQUANT	3	Ach Filter
IERANGELOWERLIMIT	IQUANT	2	I/E Range Lower Limit
IERANGEMODE	TOGGLE	F	I/E AutoRange
IERANGE	IQUANT	11	I/E Range
POSFEEDENABLE	TOGGLE	F	Positive Feedback IR Comp
POSFEEDRESISTANCE	QUANT	0	Positive Feedback Resistance (ohm)
ACHSELECT	IQUANT	0	Ach Select
CABLEID	IQUANT	13	Cable ID
DCCALDATE	LABEL	7/31/2020	DC Calibration Date
ACCALDATE	LABEL	7/31/2020	AC Calibration Date
THERMOSELECT	IQUANT	1	Thermo Select
FRAMEWORKVERSION	QUANT	6.33	Framework Version
INSTRUMENTVERSION	LABEL	3.50	Instrument Version
COMPLIANCEVOLTAGE	IQUANT	0	Compliance Voltage
ZCURVE	TABLE
	Pt	Time	Freq	Zreal	Zimag	Zsig	Zmod	Zphz	Idc	Vdc	IERange
	#	s	Hz	ohm	ohm	V	ohm	°	A	V	#
	0	7	300046.9	64.90434	1.86404	1	64.93111	1.645072	6.515447E-006	-0.0010562	9
	1	10	238359.4	65.2274	1.509809	1	65.24487	1.32598	9.667059E-006	0.0002912	9
	2	14	189328.1	65.54417	1.109367	1	65.55356	0.969667	-8.016011E-006	0.0006009	9
	3	16	150421.9	65.82787	0.9050407	1	65.83409	0.7876868	4.365493E-006	-0.0011053	9
	4	19	119484.4	66.07812	0.6567376	1	66.08138	0.5694329	4.062488E-005	-0.0003286	9
	5	21	94921.88	66.40133	0.7134501	1	66.40516	0.6155916	7.936776E-006	0.0001028	9
	6	24	75421.88	66.59875	0.457233	1	66.60033	0.3933573	-1.512197E-005	0.000294	9
	7	26	59859.37	66.83058	0.2529489	1	66.83106	0.2168593	2.062742E-005	-0.0002512	9
	8	29	47578.12	67.07839	0.0887238	1	67.07845	0.0757844	1.987323E-005	-0.0002814	9
	9	31	37828.12	67.34908	-0.0148639	1	67.34908	-0.0126451	-5.58853E-006	0.0006641	9
	10	34	30046.88	67.63023	-0.1749657	1	67.63046	-0.1482292	-1.369279E-005	0.0001925	9
	11	36	23859.38	67.9055	-0.3009113	1	67.90617	-0.2538945	2.138303E-005	-0.0005205	9
	12	39	18984.38	68.14859	-0.4145921	1	68.14985	-0.3485631	-1.129057E-005	0.0006911	9
	13	41	15046.87	68.37109	-0.5690743	1	68.37346	-0.47688	-1.571364E-005	0.0007227	9
	14	43	11953.13	68.67426	-0.7868122	1	68.67876	-0.6564184	1.118597E-005	0.0001815	9
	15	46	9515.62	68.90263	-0.974997	1	68.90953	-0.8107018	-1.597057E-006	-0.0001502	9
	16	48	7546.875	69.16394	-1.19524	1	69.17427	-0.990044	-1.468748E-005	0.0007857	9
	17	50	5928.309	69.41428	-1.518064	1	69.43089	-1.252837	-4.74227E-006	0.0006159	9
	18	52	4733.456	69.69643	-1.898535	1	69.72229	-1.560354	-1.820899E-005	0.0006036	9
	19	55	3796.875	69.9467	-2.343191	1	69.98594	-1.918672	-1.490269E-005	0.0007929	9
	20	57	2987.132	70.26896	-2.918709	1	70.32955	-2.378485	-9.202533E-006	5.392687E-005	9
	21	59	2390.625	70.58634	-3.627669	1	70.6795	-2.942034	-1.515369E-005	0.000411	9
	22	62	1884.191	70.8836	-4.519235	1	71.02752	-3.647996	-1.521572E-005	0.000364	9
	23	64	1516.544	71.23837	-5.564043	1	71.45532	-4.465997	1.744788E-005	-9.219581E-005	9
	24	66	1193.986	71.60075	-6.978927	1	71.94007	-5.567036	-4.663744E-006	0.0006265	9
	25	69	946.5144	72.02472	-8.665071	1	72.54408	-6.860107	-1.776629E-005	0.0006827	9
	26	71	751.7689	72.51015	-10.76847	1	73.3054	-8.447247	-1.546651E-005	0.0003753	9
	27	74	597.4265	72.97016	-13.39967	1	74.19026	-10.40542	-2.831491E-006	-0.0001649	9
	28	76	477.4305	73.54788	-16.57612	1	75.3927	-12.70103	1.32635E-006	9.242043E-005	9
	29	78	376.6741	74.22916	-20.72773	1	77.06885	-15.60184	1.369232E-006	8.821927E-005	9
	30	81	298.2954	75.02313	-25.82204	1	79.3426	-18.99284	1.371399E-006	8.986838E-005	9
	31	83	237.7717	75.96255	-31.95585	1	82.41047	-22.81547	1.278289E-006	0.0000973	9
	32	85	189.0121	77.10878	-39.62585	1	86.6947	-27.19843	1.190293E-006	0.0000969	9
	33	88	150.2404	78.49664	-49.10629	1	92.59131	-32.02946	1.244194E-006	0.0001014	9
	34	90	119.1737	80.21197	-60.92826	1	100.7284	-37.21997	1.362252E-006	8.339393E-005	9
	35	93	95.0169	82.27148	-75.1825	1	111.4496	-42.42214	1.283033E-006	9.043729E-005	9
	36	95	75.60484	84.82701	-92.89293	1	125.7963	-47.59862	1.410589E-006	0.0001003	9
	37	98	54.50582	89.39474	-125.6302	1	154.1894	-54.56548	1.342332E-006	8.487807E-005	9
	38	100	45.95588	92.51238	-147.0307	1	173.7141	-57.82172	1.374342E-006	8.995439E-005	9
	39	103	37.20238	97.0105	-178.579	1	203.2277	-61.48759	1.318018E-006	9.458504E-005	9
	40	105	30.04808	102.5429	-217.3211	1	240.2988	-64.73973	1.336246E-006	8.317555E-005	9
	41	107	23.91582	109.7851	-267.9543	1	289.5726	-67.72031	1.315946E-006	8.711844E-005	9
	42	110	18.60119	119.6277	-337.2644	1	357.852	-70.4704	1.335748E-006	8.971219E-005	9
	43	112	15.02404	129.448	-408.2877	1	428.3172	-72.40874	2.974718E-007	0.0006628	8
	44	114	12.01923	142.3275	-500.5212	1	520.364	-74.12644	3.335363E-007	0.0006666	8
	45	117	9.450605	159.3308	-623.4371	1	643.475	-75.66387	3.013032E-007	0.0006686	8
	46	119	7.512019	178.7805	-768.9866	1	789.4954	-76.9119	3.276656E-007	0.0006792	8
	47	122	5.978954	202.0147	-947.0786	1	968.384	-77.95909	3.240468E-007	0.0006709	8
	48	125	4.734848	230.4478	-1173.796	1	1196.203	-78.89256	3.809874E-007	0.0006823	8
	49	128	3.75601	265.1899	-1452.207	1	1476.222	-79.65115	3.274227E-007	0.0006431	8
	50	132	3.004808	305.6718	-1783.364	1	1809.371	-80.27391	3.614063E-007	0.0006449	8
	51	136	2.372217	361.5277	-2216.327	1	2245.62	-80.7355	3.56615E-007	0.0006785	8
	52	140	1.878005	430.1828	-2759.109	1	2792.444	-81.13815	3.281119E-007	0.0006595	8
	53	144	1.512097	503.8845	-3368.489	1	3405.968	-81.49234	3.669787E-007	0.0006193	8
	54	150	1.201923	615.4483	-4180.177	1	4225.241	-81.6245	3.296468E-007	0.0006539	8
	55	156	0.956633	754.5063	-5174.493	1	5229.211	-81.70402	2.505042E-008	1.296497E-006	7
