EXPLAIN
TAG	EISPOT
TITLE	LABEL	Potentiostatic EIS	Test Identifier
DATE	LABEL	2/27/2021	Date
TIME	LABEL	22:12:07	Time
NOTES	NOTES	1	Notes...
	
PSTAT	PSTAT	REF3000-16137	Potentiostat
VDC	POTEN	0.00000E+000	T	DC Voltage (V)
FREQINIT	QUANT	3.00000E+005	Initial Freq. (Hz)
FREQFINAL	QUANT	1.00000E+000	Final Freq. (Hz)
PTSPERDEC	QUANT	1.00000E+001	Points/decade
VAC	QUANT	5.00000E+001	AC Voltage (mV rms)
AREA	QUANT	1.00000E+000	Sample Area (cm^2)
SPEED	SELECTOR	2	Optimize for:
ZGUESS	QUANT	1.00000E+003	Estimated Z (ohms)
EOC	QUANT	0	Open Circuit (V)
SEQUENCER	TOGGLE	TRUE	Run as Sequence
PSTATMODEL	IQUANT	5	Pstat Model
PSTATSECTION	LABEL	REF3000-16137	Pstat Section
PSTATSERIALNO	LABEL	16137	Pstat Serial Number
CTRLMODE	IQUANT	1	Control Mode
IESTAB	IQUANT	0	I/E Stability
CASPEED	IQUANT	1	Control Amp Speed
CONVENTION	IQUANT	1	Current Convention
ICHRANGE	IQUANT	2	Ich Range
ICHRANGEMODE	TOGGLE	F	Ich Auto Range
ICHOFFSETENABLE	TOGGLE	T	Ich Offset Enable
ICHOFFSET	QUANT	0	Ich Offset (V)
ICHFILTER	IQUANT	3	Ich Filter
VCHRANGE	IQUANT	2	Vch Range
VCHRANGEMODE	TOGGLE	F	Vch Auto Range
VCHOFFSETENABLE	TOGGLE	T	Vch Offset Enable
VCHOFFSET	QUANT	0	Vch Offset (V)
VCHFILTER	IQUANT	3	Vch Filter
ACHRANGE	IQUANT	2	Ach Range
ACHOFFSETENABLE	TOGGLE	F	Ach Offset Enable
ACHOFFSET	QUANT	0	Ach Offset (V)
ACHFILTER	IQUANT	3	Ach Filter
IERANGELOWERLIMIT	IQUANT	2	I/E Range Lower Limit
IERANGEMODE	TOGGLE	F	I/E AutoRange
IERANGE	IQUANT	11	I/E Range
POSFEEDENABLE	TOGGLE	F	Positive Feedback IR Comp
POSFEEDRESISTANCE	QUANT	0	Positive Feedback Resistance (ohm)
ACHSELECT	IQUANT	0	Ach Select
CABLEID	IQUANT	13	Cable ID
DCCALDATE	LABEL	7/31/2020	DC Calibration Date
ACCALDATE	LABEL	7/31/2020	AC Calibration Date
THERMOSELECT	IQUANT	1	Thermo Select
FRAMEWORKVERSION	QUANT	6.33	Framework Version
INSTRUMENTVERSION	LABEL	3.50	Instrument Version
COMPLIANCEVOLTAGE	IQUANT	0	Compliance Voltage
ZCURVE	TABLE
	Pt	Time	Freq	Zreal	Zimag	Zsig	Zmod	Zphz	Idc	Vdc	IERange
	#	s	Hz	ohm	ohm	V	ohm	°	A	V	#
	0	11	300046.9	5.672544	2.202648	1	6.08518	21.22119	3.175093E-005	0.0001436	10
	1	14	238359.4	5.641657	1.759531	1	5.909674	17.32176	2.8476E-005	4.149231E-005	10
	2	17	189328.1	5.631516	1.389892	1	5.800498	13.86388	-2.358449E-005	0.0001262	10
	3	19	150421.9	5.621459	1.079244	1	5.724122	10.86778	5.210541E-005	0.0003148	10
	4	22	119484.4	5.619036	0.843593	1	5.682008	8.538121	5.97119E-005	0.0004229	10
	5	24	94921.88	5.626486	0.6655414	1	5.665712	6.746011	-1.719516E-005	0.0005871	10
	6	27	75421.88	5.627284	0.4911464	1	5.648676	4.988106	1.96319E-005	0.0005894	10
	7	30	59859.37	5.630523	0.3409491	1	5.640837	3.465241	1.74602E-005	0.0005937	10
	8	32	47578.12	5.639098	0.2124073	1	5.643096	2.157134	1.831637E-005	0.0006583	10
	9	35	37828.12	5.648103	0.0960414	1	5.64892	0.974175	-2.669866E-005	0.0006438	10
	10	37	30046.88	5.658969	-0.0132972	1	5.658985	-0.1346307	1.7293E-005	0.0006342	10
	11	40	23859.38	5.669512	-0.1213939	1	5.670812	-1.226613	1.977486E-005	0.0006478	10
	12	42	18984.38	5.681733	-0.2326308	1	5.686493	-2.344588	-5.371533E-006	0.0006548	10
	13	44	15046.87	5.695216	-0.356712	1	5.706376	-3.583961	-3.083435E-005	0.000675	10
	14	47	11953.13	5.710774	-0.4961328	1	5.732285	-4.965198	-2.124152E-006	0.0007108	10
	15	49	9515.62	5.727493	-0.6574348	1	5.765101	-6.548083	-2.538401E-005	0.0006784	10
	16	51	7546.875	5.748614	-0.852843	1	5.811532	-8.438639	4.911994E-006	0.0006583	10
	17	54	5928.309	5.7746	-1.101246	1	5.878669	-10.79695	-2.805251E-005	0.0007035	10
	18	56	4733.456	5.80435	-1.384351	1	5.967152	-13.41457	1.121692E-005	0.0006495	10
	19	58	3796.875	5.840105	-1.723766	1	6.089187	-16.44449	-4.201335E-006	0.0007191	10
	20	61	2987.132	5.887423	-2.177883	1	6.277334	-20.30051	-1.189366E-005	0.0006787	10
	21	63	2390.625	5.942691	-2.701803	1	6.528041	-24.44859	-3.116714E-005	0.0006765	10
	22	65	1884.191	6.01885	-3.390896	1	6.908309	-29.39601	-2.747835E-005	0.0006989	10
	23	68	1516.544	6.106704	-4.167565	1	7.39327	-34.31187	-2.343806E-005	0.0007236	10
	24	70	1193.986	6.228192	-5.223603	1	8.128739	-39.98666	1.115505E-005	0.0006548	10
	25	72	946.5144	6.375199	-6.50257	1	9.106403	-45.56668	2.463654E-006	0.0006504	10
	26	75	751.7689	6.56953	-8.063404	1	10.40083	-50.82912	-1.791079E-005	0.000686	10
	27	77	597.4265	6.809773	-9.99549	1	12.09474	-55.73399	3.624395E-006	0.0006907	10
	28	79	477.4305	7.107497	-12.30715	1	14.21205	-59.99314	-2.420126E-006	0.0006926	10
	29	82	376.6741	7.504585	-15.32917	1	17.06758	-63.91537	-2.192732E-006	0.0006841	10
	30	84	298.2954	7.997615	-19.01533	1	20.62873	-67.18897	-2.546907E-006	0.00069	10
	31	86	237.7717	8.596139	-23.42957	1	24.95673	-69.85228	-2.411041E-006	0.0006895	10
	32	89	189.0121	9.346819	-28.93182	1	30.40416	-72.09624	-2.419552E-006	0.0006919	10
	33	91	150.2404	10.26873	-35.70657	1	37.15381	-73.95548	-2.755339E-006	0.0006878	10
	34	94	119.1737	11.39412	-44.09969	1	45.54787	-75.5132	1.271729E-006	9.208517E-005	9
	35	96	95.0169	12.75465	-54.27195	1	55.75057	-76.77471	1.214116E-006	9.077821E-005	9
	36	98	75.60484	14.43622	-66.94421	1	68.48307	-77.83077	1.160374E-006	0.0001047	9
	37	101	54.50582	17.5692	-90.47135	1	92.1615	-79.01016	1.128383E-006	9.073758E-005	9
	38	103	45.95588	19.67163	-105.9186	1	107.7298	-79.47867	1.211387E-006	0.0000963	9
	39	106	37.20238	22.87659	-128.7855	1	130.8015	-79.92743	1.192445E-006	0.000096	9
	40	108	30.04808	26.98232	-156.8935	1	159.1968	-80.24181	1.202534E-006	9.117722E-005	9
	41	111	23.91582	32.6657	-193.8207	1	196.5541	-80.43352	1.198029E-006	8.444642E-005	9
	42	113	18.60119	41.0941	-244.3506	1	247.782	-80.45351	1.343018E-006	8.842316E-005	9
	43	115	15.02404	50.68215	-297.4228	1	301.7101	-80.32944	1.298148E-006	8.372237E-005	9
	44	118	12.01923	63.92147	-364.8954	1	370.4518	-80.06389	1.41103E-006	9.238126E-005	9
	45	120	9.450605	82.6884	-452.3497	1	459.8452	-79.64085	6.409143E-007	0.0006595	8
	46	122	7.512019	107.5749	-556.8142	1	567.1106	-79.06534	7.041841E-007	0.0006784	8
	47	125	5.978954	140.417	-682.9433	1	697.2291	-78.38158	6.908131E-007	0.0006664	8
	48	128	4.734848	186.6412	-839.8217	1	860.3113	-77.47027	7.086657E-007	0.0006907	8
	49	131	3.75601	248.7524	-1028.923	1	1058.566	-76.40897	6.372172E-007	0.0006542	8
	50	135	3.004808	329.377	-1246.5	1	1289.283	-75.19839	6.243449E-007	0.0006804	8
	51	139	2.372217	449.3779	-1522.33	1	1587.271	-73.55389	6.414586E-007	0.0007363	8
	52	143	1.878005	608.4953	-1845.493	1	1943.222	-71.75159	5.791699E-007	0.0006376	8
	53	148	1.512097	807.9996	-2185.814	1	2330.375	-69.71285	6.060689E-007	0.0007015	8
	54	153	1.201923	1094.163	-2605.383	1	2825.812	-67.21941	6.014453E-007	0.0006346	8
	55	159	0.956633	1468.956	-3057.221	1	3391.818	-64.3363	5.211005E-007	2.623829E-005	8
