EXPLAIN
TAG	EISPOT
TITLE	LABEL	Potentiostatic EIS	Test Identifier
DATE	LABEL	2/27/2021	Date
TIME	LABEL	22:31:35	Time
NOTES	NOTES	1	Notes...
	
PSTAT	PSTAT	REF3000-16137	Potentiostat
VDC	POTEN	0.00000E+000	T	DC Voltage (V)
FREQINIT	QUANT	3.00000E+005	Initial Freq. (Hz)
FREQFINAL	QUANT	1.00000E+000	Final Freq. (Hz)
PTSPERDEC	QUANT	1.00000E+001	Points/decade
VAC	QUANT	5.00000E+001	AC Voltage (mV rms)
AREA	QUANT	1.00000E+000	Sample Area (cm^2)
SPEED	SELECTOR	2	Optimize for:
ZGUESS	QUANT	1.00000E+003	Estimated Z (ohms)
EOC	QUANT	0	Open Circuit (V)
SEQUENCER	TOGGLE	TRUE	Run as Sequence
PSTATMODEL	IQUANT	5	Pstat Model
PSTATSECTION	LABEL	REF3000-16137	Pstat Section
PSTATSERIALNO	LABEL	16137	Pstat Serial Number
CTRLMODE	IQUANT	1	Control Mode
IESTAB	IQUANT	0	I/E Stability
CASPEED	IQUANT	1	Control Amp Speed
CONVENTION	IQUANT	1	Current Convention
ICHRANGE	IQUANT	2	Ich Range
ICHRANGEMODE	TOGGLE	F	Ich Auto Range
ICHOFFSETENABLE	TOGGLE	T	Ich Offset Enable
ICHOFFSET	QUANT	0	Ich Offset (V)
ICHFILTER	IQUANT	3	Ich Filter
VCHRANGE	IQUANT	2	Vch Range
VCHRANGEMODE	TOGGLE	F	Vch Auto Range
VCHOFFSETENABLE	TOGGLE	T	Vch Offset Enable
VCHOFFSET	QUANT	0	Vch Offset (V)
VCHFILTER	IQUANT	3	Vch Filter
ACHRANGE	IQUANT	2	Ach Range
ACHOFFSETENABLE	TOGGLE	F	Ach Offset Enable
ACHOFFSET	QUANT	0	Ach Offset (V)
ACHFILTER	IQUANT	3	Ach Filter
IERANGELOWERLIMIT	IQUANT	2	I/E Range Lower Limit
IERANGEMODE	TOGGLE	F	I/E AutoRange
IERANGE	IQUANT	11	I/E Range
POSFEEDENABLE	TOGGLE	F	Positive Feedback IR Comp
POSFEEDRESISTANCE	QUANT	0	Positive Feedback Resistance (ohm)
ACHSELECT	IQUANT	0	Ach Select
CABLEID	IQUANT	13	Cable ID
DCCALDATE	LABEL	7/31/2020	DC Calibration Date
ACCALDATE	LABEL	7/31/2020	AC Calibration Date
THERMOSELECT	IQUANT	1	Thermo Select
FRAMEWORKVERSION	QUANT	6.33	Framework Version
INSTRUMENTVERSION	LABEL	3.50	Instrument Version
COMPLIANCEVOLTAGE	IQUANT	0	Compliance Voltage
ZCURVE	TABLE
	Pt	Time	Freq	Zreal	Zimag	Zsig	Zmod	Zphz	Idc	Vdc	IERange
	#	s	Hz	ohm	ohm	V	ohm	°	A	V	#
	0	8	300046.9	11.28248	2.125235	1	11.48089	10.66758	4.942952E-005	0.0002786	10
	1	11	238359.4	11.29137	1.701977	1	11.41892	8.571812	-1.840268E-005	0.0002227	10
	2	15	189328.1	11.29851	1.3408	1	11.37779	6.76767	4.807846E-005	0.0004874	10
	3	17	150421.9	11.3032	1.037238	1	11.35069	5.243062	5.821753E-005	0.0004252	10
	4	20	119484.4	11.32201	0.8078545	1	11.3508	4.081283	2.305169E-005	0.0006826	10
	5	22	94921.88	11.33967	0.633441	1	11.35734	3.197256	1.200496E-005	0.0005663	10
	6	25	75421.88	11.3577	0.4570306	1	11.3669	2.304322	2.389701E-005	0.0005906	10
	7	27	59859.37	11.38114	0.3057716	1	11.38524	1.538968	2.22487E-005	0.0006138	10
	8	30	47578.12	11.40749	0.1783032	1	11.40888	0.8954807	-1.947334E-005	0.0006385	10
	9	32	37828.12	11.43355	0.0633056	1	11.43373	0.3172336	-1.731572E-005	0.0006672	10
	10	35	30046.88	11.45891	-0.0483294	1	11.45901	-0.2416508	2.160572E-005	0.0006291	10
	11	37	23859.38	11.48621	-0.1598951	1	11.48733	-0.7975405	4.885226E-006	0.000631	10
	12	40	18984.38	11.51339	-0.2762574	1	11.5167	-1.374517	9.739512E-006	0.0006341	10
	13	42	15046.87	11.54266	-0.4090981	1	11.54991	-2.029843	-2.517876E-005	0.0006648	10
	14	44	11953.13	11.57314	-0.556316	1	11.58651	-2.752064	-2.454022E-006	0.0007188	10
	15	46	9515.62	11.60511	-0.7321315	1	11.62819	-3.609833	2.078399E-006	0.0006617	10
	16	49	7546.875	11.64173	-0.9436762	1	11.67991	-4.634253	3.31112E-006	0.0006378	10
	17	51	5928.309	11.68336	-1.213535	1	11.74621	-5.929975	2.13753E-005	0.0006539	10
	18	53	4733.456	11.72849	-1.520945	1	11.8267	-7.388852	-1.902533E-005	0.0006693	10
	19	56	3796.875	11.77816	-1.893626	1	11.92941	-9.133531	-2.873313E-005	0.0006761	10
	20	58	2987.132	11.84315	-2.388148	1	12.08153	-11.4007	-1.236181E-005	0.0006714	10
	21	60	2390.625	11.91528	-2.958211	1	12.27701	-13.94293	-2.009558E-005	0.000735	10
	22	63	1884.191	12.00133	-3.722176	1	12.56529	-17.23112	2.284782E-005	0.0006627	10
	23	65	1516.544	12.10404	-4.578011	1	12.94086	-20.71771	-6.627889E-006	0.0006923	10
	24	67	1193.986	12.24002	-5.741872	1	13.51988	-25.13158	-1.194256E-005	0.0006672	10
	25	70	946.5144	12.40746	-7.155812	1	14.32308	-29.97354	-2.343512E-005	0.0007353	10
	26	72	751.7689	12.60799	-8.892472	1	15.42847	-35.19548	-2.834573E-005	0.0006993	10
	27	74	597.4265	12.86866	-11.0413	1	16.9562	-40.62959	-2.819799E-005	0.0006996	10
	28	77	477.4305	13.18601	-13.61623	1	18.95449	-45.91961	-2.654522E-006	0.0006776	10
	29	79	376.6741	13.60844	-16.98984	1	21.76796	-51.30613	-2.717935E-006	0.0006775	10
	30	81	298.2954	14.13395	-21.11212	1	25.40649	-56.19884	-3.235256E-006	0.0006857	10
	31	84	237.7717	14.7799	-26.06134	1	29.96062	-60.44157	-2.326702E-006	0.0006798	10
	32	86	189.0121	15.59538	-32.22974	1	35.80463	-64.1785	-2.079744E-006	0.0006842	10
	33	89	150.2404	16.59345	-39.78963	1	43.11099	-67.36242	1.106443E-006	0.0001098	9
	34	91	119.1737	17.87122	-49.24475	1	52.38726	-70.05386	1.277001E-006	7.980009E-005	9
	35	93	95.0169	19.41084	-60.62622	1	63.65783	-72.24637	1.277172E-006	8.230728E-005	9
	36	96	75.60484	21.31012	-74.75577	1	77.73381	-74.0891	1.245682E-006	7.81343E-005	9
	37	98	54.50582	24.74863	-100.881	1	103.8723	-76.21613	1.229355E-006	7.347218E-005	9
	38	101	45.95588	26.96301	-117.9775	1	121.0194	-77.12651	1.30966E-006	8.6345E-005	9
	39	103	37.20238	30.18477	-143.2596	1	146.405	-78.10182	1.343895E-006	7.895038E-005	9
	40	106	30.04808	34.09695	-174.3742	1	177.6766	-78.93604	1.271863E-006	7.764205E-005	9
	41	108	23.91582	39.23386	-215.2135	1	218.7605	-79.66832	1.20709E-006	7.919648E-005	9
	42	110	18.60119	46.45793	-271.5994	1	275.5442	-80.29332	1.362157E-006	7.88922E-005	9
	43	113	15.02404	54.20772	-331.1785	1	335.5856	-80.70419	1.494395E-006	9.014214E-005	9
	44	115	12.01923	64.59209	-407.3187	1	412.4084	-80.98914	1.388999E-006	7.47645E-005	9
	45	117	9.450605	78.89287	-506.9141	1	513.0166	-81.15382	6.232602E-007	0.0006739	8
	46	120	7.512019	97.0788	-626.7003	1	634.1747	-81.1946	6.605547E-007	0.00067	8
	47	123	5.978954	120.5542	-773.5594	1	782.8969	-81.14207	6.379303E-007	0.0006558	8
	48	126	4.734848	152.5541	-958.533	1	970.597	-80.95701	6.445916E-007	0.0006853	8
	49	129	3.75601	194.2601	-1185.105	1	1200.921	-80.69098	6.414426E-007	0.0006555	8
	50	132	3.004808	246.8582	-1451.121	1	1471.968	-80.34552	6.236744E-007	0.0006902	8
	51	136	2.372217	320.3628	-1798.316	1	1826.629	-79.89896	6.291754E-007	0.0007296	8
	52	140	1.878005	416.7184	-2218.459	1	2257.259	-79.36145	6.093279E-007	0.0006306	8
	53	145	1.512097	534.8043	-2687.303	1	2740.003	-78.74454	6.509619E-007	0.0006832	8
	54	150	1.201923	700.6317	-3308.752	1	3382.118	-78.04417	6.140179E-007	0.0006347	8
	55	157	0.956633	924.853	-4049.008	1	4153.291	-77.13353	5.962774E-007	1.960246E-005	8
