EXPLAIN
TAG	EISPOT
TITLE	LABEL	Potentiostatic EIS	Test Identifier
DATE	LABEL	2/27/2021	Date
TIME	LABEL	22:23:18	Time
NOTES	NOTES	1	Notes...
	
PSTAT	PSTAT	REF3000-16137	Potentiostat
VDC	POTEN	0.00000E+000	T	DC Voltage (V)
FREQINIT	QUANT	3.00000E+005	Initial Freq. (Hz)
FREQFINAL	QUANT	1.00000E+000	Final Freq. (Hz)
PTSPERDEC	QUANT	1.00000E+001	Points/decade
VAC	QUANT	5.00000E+001	AC Voltage (mV rms)
AREA	QUANT	1.00000E+000	Sample Area (cm^2)
SPEED	SELECTOR	2	Optimize for:
ZGUESS	QUANT	1.00000E+003	Estimated Z (ohms)
EOC	QUANT	0	Open Circuit (V)
SEQUENCER	TOGGLE	TRUE	Run as Sequence
PSTATMODEL	IQUANT	5	Pstat Model
PSTATSECTION	LABEL	REF3000-16137	Pstat Section
PSTATSERIALNO	LABEL	16137	Pstat Serial Number
CTRLMODE	IQUANT	1	Control Mode
IESTAB	IQUANT	0	I/E Stability
CASPEED	IQUANT	1	Control Amp Speed
CONVENTION	IQUANT	1	Current Convention
ICHRANGE	IQUANT	2	Ich Range
ICHRANGEMODE	TOGGLE	F	Ich Auto Range
ICHOFFSETENABLE	TOGGLE	T	Ich Offset Enable
ICHOFFSET	QUANT	0	Ich Offset (V)
ICHFILTER	IQUANT	3	Ich Filter
VCHRANGE	IQUANT	2	Vch Range
VCHRANGEMODE	TOGGLE	F	Vch Auto Range
VCHOFFSETENABLE	TOGGLE	T	Vch Offset Enable
VCHOFFSET	QUANT	0	Vch Offset (V)
VCHFILTER	IQUANT	3	Vch Filter
ACHRANGE	IQUANT	2	Ach Range
ACHOFFSETENABLE	TOGGLE	F	Ach Offset Enable
ACHOFFSET	QUANT	0	Ach Offset (V)
ACHFILTER	IQUANT	3	Ach Filter
IERANGELOWERLIMIT	IQUANT	2	I/E Range Lower Limit
IERANGEMODE	TOGGLE	F	I/E AutoRange
IERANGE	IQUANT	11	I/E Range
POSFEEDENABLE	TOGGLE	F	Positive Feedback IR Comp
POSFEEDRESISTANCE	QUANT	0	Positive Feedback Resistance (ohm)
ACHSELECT	IQUANT	0	Ach Select
CABLEID	IQUANT	13	Cable ID
DCCALDATE	LABEL	7/31/2020	DC Calibration Date
ACCALDATE	LABEL	7/31/2020	AC Calibration Date
THERMOSELECT	IQUANT	1	Thermo Select
FRAMEWORKVERSION	QUANT	6.33	Framework Version
INSTRUMENTVERSION	LABEL	3.50	Instrument Version
COMPLIANCEVOLTAGE	IQUANT	0	Compliance Voltage
ZCURVE	TABLE
	Pt	Time	Freq	Zreal	Zimag	Zsig	Zmod	Zphz	Idc	Vdc	IERange
	#	s	Hz	ohm	ohm	V	ohm	°	A	V	#
	0	8	300046.9	8.101326	2.201478	1	8.395117	15.20261	-3.085185E-005	-9.59825E-006	10
	1	11	238359.4	8.076378	1.738633	1	8.261399	12.14887	-0.0001084	6.107928E-005	10
	2	14	189328.1	8.064971	1.368718	1	8.18029	9.63198	7.802976E-005	8.513284E-005	10
	3	16	150421.9	8.075039	1.065236	1	8.144998	7.514904	1.762206E-005	0.0004386	10
	4	19	119484.4	8.072474	0.828537	1	8.114882	5.860164	1.154517E-005	0.0005236	10
	5	22	94921.88	8.083789	0.6556029	1	8.110331	4.636594	-1.945288E-005	0.0006454	10
	6	24	75421.88	8.09028	0.4787001	1	8.104429	3.386231	2.442832E-005	0.0006007	10
	7	27	59859.37	8.102133	0.3261473	1	8.108695	2.305169	2.403654E-005	0.0006388	10
	8	29	47578.12	8.116158	0.1952322	1	8.118506	1.37797	2.053721E-005	0.0006187	10
	9	32	37828.12	8.133827	0.0794294	1	8.134215	0.5594938	2.371392E-005	0.0006687	10
	10	34	30046.88	8.149716	-0.0308663	1	8.149775	-0.2170011	1.685076E-005	0.0006442	10
	11	37	23859.38	8.167232	-0.1402362	1	8.168435	-0.983706	-2.521689E-005	0.0006735	10
	12	39	18984.38	8.185816	-0.2549523	1	8.189785	-1.783936	-3.118589E-005	0.0006729	10
	13	41	15046.87	8.205966	-0.3831389	1	8.214906	-2.673215	1.778123E-005	0.0007034	10
	14	44	11953.13	8.227814	-0.5271385	1	8.244682	-3.665809	-1.783699E-005	0.0007313	10
	15	46	9515.62	8.249181	-0.6959291	1	8.278484	-4.822249	1.681406E-005	0.0006581	10
	16	48	7546.875	8.277558	-0.9007159	1	8.32642	-6.210161	-5.898138E-006	0.0006495	10
	17	51	5928.309	8.309332	-1.159596	1	8.389854	-7.944516	2.314876E-005	0.0006649	10
	18	53	4733.456	8.345569	-1.456296	1	8.471677	-9.89841	-1.829244E-005	0.0006821	10
	19	55	3796.875	8.386452	-1.812627	1	8.580104	-12.19616	-2.828772E-005	0.0006765	10
	20	58	2987.132	8.43984	-2.290848	1	8.745221	-15.18606	-2.52247E-005	0.0006938	10
	21	60	2390.625	8.501729	-2.840658	1	8.963746	-18.47587	2.175038E-005	0.0006985	10
	22	62	1884.191	8.581452	-3.568519	1	9.29385	-22.57954	-1.813311E-005	0.0006846	10
	23	65	1516.544	8.67401	-4.387434	1	9.7205	-26.83091	2.239796E-005	0.0006695	10
	24	67	1193.986	8.801537	-5.503455	1	10.38051	-32.01706	1.050877E-005	0.0006486	10
	25	69	946.5144	8.960294	-6.848804	1	11.27799	-37.3925	1.970432E-005	0.0006574	10
	26	72	751.7689	9.15548	-8.513968	1	12.50242	-42.92072	-2.817216E-005	0.0007129	10
	27	74	597.4265	9.402971	-10.55531	1	14.13614	-48.30443	-2.638332E-005	0.0006959	10
	28	76	477.4305	9.70933	-13.01446	1	16.23722	-53.27552	-2.468734E-006	0.0006906	10
	29	79	376.6741	10.11826	-16.22542	1	19.1218	-58.0521	-2.747385E-006	0.0006887	10
	30	81	298.2954	10.62794	-20.14661	1	22.77803	-62.18702	-2.454935E-006	0.0006975	10
	31	83	237.7717	11.24872	-24.84663	1	27.27433	-65.64249	-2.698391E-006	0.0006919	10
	32	86	189.0121	12.03863	-30.70957	1	32.98494	-68.59405	-1.791967E-006	0.0006882	10
	33	88	150.2404	13.01207	-37.9261	1	40.09617	-71.06341	-2.584788E-006	0.0006878	10
	34	91	119.1737	14.20635	-46.85549	1	48.96179	-73.13296	1.291163E-006	8.84817E-005	9
	35	93	95.0169	15.65166	-57.66537	1	59.75173	-74.81451	1.141414E-006	0.0001116	9
	36	95	75.60484	17.42543	-71.09818	1	73.20244	-76.22885	1.198575E-006	8.04076E-005	9
	37	98	54.50582	20.6485	-96.0062	1	98.2016	-77.86203	1.032988E-006	0.0001022	9
	38	100	45.95588	22.74645	-112.3419	1	114.6216	-78.55376	1.236149E-006	8.894665E-005	9
	39	103	37.20238	25.84394	-136.498	1	138.923	-79.27877	1.238729E-006	8.564984E-005	9
	40	105	30.04808	29.68706	-166.286	1	168.9152	-79.87762	1.182545E-006	8.257692E-005	9
	41	108	23.91582	34.96078	-205.5111	1	208.4635	-80.34548	1.139439E-006	8.797779E-005	9
	42	110	18.60119	42.41692	-259.315	1	262.7613	-80.71023	1.182092E-006	9.022017E-005	9
	43	112	15.02404	50.69524	-316.1047	1	320.144	-80.88879	1.256433E-006	8.227718E-005	9
	44	115	12.01923	62.02575	-388.4316	1	393.3526	-80.92746	1.414361E-006	8.295437E-005	9
	45	117	9.450605	77.66037	-482.912	1	489.1167	-80.8641	6.232492E-007	0.0006497	8
	46	120	7.512019	97.8299	-596.3705	1	604.3413	-80.68405	6.344956E-007	0.0006548	8
	47	122	5.978954	124.6214	-734.3483	1	744.8475	-80.36847	6.756669E-007	0.000664	8
	48	125	4.734848	161.265	-908.064	1	922.2725	-79.92971	6.652818E-007	0.0006819	8
	49	129	3.75601	209.056	-1119.379	1	1138.733	-79.42126	6.722358E-007	0.0006604	8
	50	132	3.004808	270.3511	-1366.89	1	1393.37	-78.81212	6.231327E-007	0.0006969	8
	51	136	2.372217	356.5338	-1686.101	1	1723.384	-78.06042	6.441621E-007	0.0007034	8
	52	140	1.878005	476.9946	-2072.742	1	2126.918	-77.04031	6.48222E-007	0.0006422	8
	53	145	1.512097	626.1008	-2502.876	1	2579.998	-75.95553	6.427248E-007	0.0007569	8
	54	150	1.201923	837.1185	-3053.401	1	3166.074	-74.66853	6.61887E-007	0.0006305	8
	55	156	0.956633	1124.114	-3702.312	1	3869.205	-73.1104	5.849521E-007	1.70007E-005	8
