EXPLAIN
TAG	EISPOT
TITLE	LABEL	Potentiostatic EIS	Test Identifier
DATE	LABEL	2/27/2021	Date
TIME	LABEL	22:03:43	Time
NOTES	NOTES	1	Notes...
	
PSTAT	PSTAT	REF3000-16137	Potentiostat
VDC	POTEN	0.00000E+000	T	DC Voltage (V)
FREQINIT	QUANT	3.00000E+005	Initial Freq. (Hz)
FREQFINAL	QUANT	1.00000E+000	Final Freq. (Hz)
PTSPERDEC	QUANT	1.00000E+001	Points/decade
VAC	QUANT	5.00000E+001	AC Voltage (mV rms)
AREA	QUANT	1.00000E+000	Sample Area (cm^2)
SPEED	SELECTOR	2	Optimize for:
ZGUESS	QUANT	1.00000E+003	Estimated Z (ohms)
EOC	QUANT	0	Open Circuit (V)
SEQUENCER	TOGGLE	TRUE	Run as Sequence
PSTATMODEL	IQUANT	5	Pstat Model
PSTATSECTION	LABEL	REF3000-16137	Pstat Section
PSTATSERIALNO	LABEL	16137	Pstat Serial Number
CTRLMODE	IQUANT	1	Control Mode
IESTAB	IQUANT	0	I/E Stability
CASPEED	IQUANT	1	Control Amp Speed
CONVENTION	IQUANT	1	Current Convention
ICHRANGE	IQUANT	2	Ich Range
ICHRANGEMODE	TOGGLE	F	Ich Auto Range
ICHOFFSETENABLE	TOGGLE	T	Ich Offset Enable
ICHOFFSET	QUANT	0	Ich Offset (V)
ICHFILTER	IQUANT	3	Ich Filter
VCHRANGE	IQUANT	2	Vch Range
VCHRANGEMODE	TOGGLE	F	Vch Auto Range
VCHOFFSETENABLE	TOGGLE	T	Vch Offset Enable
VCHOFFSET	QUANT	0	Vch Offset (V)
VCHFILTER	IQUANT	3	Vch Filter
ACHRANGE	IQUANT	2	Ach Range
ACHOFFSETENABLE	TOGGLE	F	Ach Offset Enable
ACHOFFSET	QUANT	0	Ach Offset (V)
ACHFILTER	IQUANT	3	Ach Filter
IERANGELOWERLIMIT	IQUANT	2	I/E Range Lower Limit
IERANGEMODE	TOGGLE	F	I/E AutoRange
IERANGE	IQUANT	11	I/E Range
POSFEEDENABLE	TOGGLE	F	Positive Feedback IR Comp
POSFEEDRESISTANCE	QUANT	0	Positive Feedback Resistance (ohm)
ACHSELECT	IQUANT	0	Ach Select
CABLEID	IQUANT	13	Cable ID
DCCALDATE	LABEL	7/31/2020	DC Calibration Date
ACCALDATE	LABEL	7/31/2020	AC Calibration Date
THERMOSELECT	IQUANT	1	Thermo Select
FRAMEWORKVERSION	QUANT	6.33	Framework Version
INSTRUMENTVERSION	LABEL	3.50	Instrument Version
COMPLIANCEVOLTAGE	IQUANT	0	Compliance Voltage
ZCURVE	TABLE
	Pt	Time	Freq	Zreal	Zimag	Zsig	Zmod	Zphz	Idc	Vdc	IERange
	#	s	Hz	ohm	ohm	V	ohm	°	A	V	#
	0	10	300046.9	4.584769	2.215113	1	5.09184	25.78733	3.854025E-005	0.0001272	10
	1	13	238359.4	4.563555	1.769215	1	4.894503	21.19049	2.853913E-005	-0.0001068	10
	2	17	189328.1	4.546876	1.394873	1	4.756023	17.05476	1.209485E-005	5.381292E-005	10
	3	19	150421.9	4.531631	1.098255	1	4.662815	13.62315	-2.808417E-005	0.0002122	10
	4	22	119484.4	4.534907	0.8510566	1	4.614074	10.62895	7.600398E-005	0.0002594	10
	5	24	94921.88	4.535274	0.6672129	1	4.58409	8.369113	-3.656406E-006	0.000485	10
	6	27	75421.88	4.535388	0.4943339	1	4.562249	6.220389	-7.02761E-006	0.0005238	10
	7	29	59859.37	4.53861	0.3476067	1	4.551902	4.379665	-1.846068E-005	0.0006161	10
	8	32	47578.12	4.542378	0.2205056	1	4.547728	2.77919	-2.112921E-005	0.0006038	10
	9	34	37828.12	4.548545	0.1054666	1	4.549767	1.328273	-2.017968E-005	0.0006266	10
	10	37	30046.88	4.555536	-0.0031408	1	4.555537	-0.0395018	4.329664E-006	0.0006401	10
	11	39	23859.38	4.564241	-0.1096412	1	4.565558	-1.376082	-8.897832E-006	0.0006526	10
	12	42	18984.38	4.574857	-0.2188798	1	4.580091	-2.739175	-7.249468E-006	0.0006743	10
	13	44	15046.87	4.584805	-0.3401998	1	4.597409	-4.243661	1.342462E-005	0.0006592	10
	14	46	11953.13	4.598128	-0.475908	1	4.622691	-5.909095	2.009915E-006	0.000648	10
	15	49	9515.62	4.614052	-0.6329938	1	4.657269	-7.811546	-1.670185E-005	0.000724	10
	16	51	7546.875	4.631619	-0.8225189	1	4.704087	-10.07004	6.869682E-006	0.0006645	10
	17	53	5928.309	4.655874	-1.063249	1	4.775737	-12.86388	-2.626205E-005	0.0007016	10
	18	56	4733.456	4.682762	-1.337484	1	4.870023	-15.94033	-1.485823E-005	0.0006987	10
	19	58	3796.875	4.716321	-1.663864	1	5.001213	-19.43225	1.760632E-005	0.0006608	10
	20	60	2987.132	4.761367	-2.104188	1	5.205595	-23.84205	1.414722E-005	0.0006915	10
	21	63	2390.625	4.81539	-2.608546	1	5.476541	-28.44486	2.283786E-005	0.0006812	10
	22	65	1884.191	4.888455	-3.273226	1	5.883111	-33.80558	1.413469E-005	0.0006864	10
	23	67	1516.544	4.974401	-4.020479	1	6.396008	-38.94631	-2.288651E-005	0.0007287	10
	24	69	1193.986	5.093067	-5.035879	1	7.162361	-44.67651	2.031322E-005	0.0006847	10
	25	72	946.5144	5.237978	-6.264086	1	8.165487	-50.0979	-2.921185E-005	0.0006706	10
	26	74	751.7689	5.428085	-7.76496	1	9.474107	-55.04458	-1.463236E-005	0.0006974	10
	27	77	597.4265	5.669196	-9.61696	1	11.16359	-59.48065	2.108312E-005	0.0006659	10
	28	79	477.4305	5.960125	-11.83617	1	13.25209	-63.27237	-3.065878E-006	0.0006761	10
	29	81	376.6741	6.350709	-14.73291	1	16.04339	-66.68126	-2.660553E-006	0.0006792	10
	30	84	298.2954	6.833994	-18.26389	1	19.5006	-69.48512	-3.025148E-006	0.0006845	10
	31	86	237.7717	7.418807	-22.49057	1	23.68258	-71.74419	-3.118568E-006	0.0006875	10
	32	88	189.0121	8.149837	-27.75923	1	28.93086	-73.63828	-2.130012E-006	0.0006827	10
	33	91	150.2404	9.047201	-34.24939	1	35.42418	-75.20294	-2.684635E-006	0.0006831	10
	34	93	119.1737	10.1467	-42.29627	1	43.49632	-76.50991	1.314308E-006	8.808158E-005	9
	35	96	95.0169	11.48585	-52.06229	1	53.31422	-77.55884	1.20179E-006	8.530384E-005	9
	36	98	75.60484	13.1683	-64.23595	1	65.5718	-78.41493	1.168887E-006	8.533719E-005	9
	37	101	54.50582	16.38917	-86.84178	1	88.37477	-79.31258	1.116278E-006	8.671406E-005	9
	38	103	45.95588	18.60059	-101.683	1	103.3702	-79.63365	1.309426E-006	9.06498E-005	9
	39	105	37.20238	22.03034	-123.5833	1	125.5316	-79.89246	1.25318E-006	8.584524E-005	9
	40	108	30.04808	26.51596	-150.5016	1	152.8196	-80.00795	1.150063E-006	8.500541E-005	9
	41	110	23.91582	32.8737	-185.8017	1	188.6874	-79.96655	1.164281E-006	0.0001056	9
	42	113	18.60119	42.4041	-233.8591	1	237.6725	-79.7226	1.275054E-006	9.103987E-005	9
	43	115	15.02404	53.4956	-284.1873	1	289.1784	-79.33936	1.151195E-006	7.88137E-005	9
	44	117	12.01923	68.91553	-347.6264	1	354.3917	-78.78674	1.258802E-006	8.782406E-005	9
	45	120	9.450605	91.35086	-429.5716	1	439.1774	-77.99457	7.35467E-007	0.0006677	8
	46	122	7.512019	121.0587	-526.3488	1	540.0909	-77.04739	7.356787E-007	0.0006691	8
	47	125	5.978954	161.0377	-641.952	1	661.8425	-75.91759	7.140029E-007	0.0006641	8
	48	128	4.734848	217.1137	-783.8954	1	813.4067	-74.51899	7.717379E-007	0.0006906	8
	49	131	3.75601	294.0467	-950.459	1	994.905	-72.80932	5.600664E-007	0.0006489	8
	50	135	3.004808	393.4452	-1137.428	1	1203.554	-70.91911	6.130362E-007	0.000662	8
	51	138	2.372217	539.0413	-1364.148	1	1466.788	-68.43861	6.146895E-007	0.000737	8
	52	143	1.878005	728.1974	-1616.776	1	1773.2	-65.75316	5.010397E-007	0.0006463	8
	53	147	1.512097	952.804	-1864.916	1	2094.217	-62.93707	5.649713E-007	0.000636	8
	54	153	1.201923	1262.828	-2140.313	1	2485.091	-59.45855	5.560717E-007	0.0006472	8
	55	159	0.956633	1634.772	-2403.864	1	2907.068	-55.78194	4.668128E-007	2.615416E-005	8
