EXPLAIN
TAG	EISPOT
TITLE	LABEL	Potentiostatic EIS	Test Identifier
DATE	LABEL	2/27/2021	Date
TIME	LABEL	22:14:55	Time
NOTES	NOTES	1	Notes...
	
PSTAT	PSTAT	REF3000-16137	Potentiostat
VDC	POTEN	0.00000E+000	T	DC Voltage (V)
FREQINIT	QUANT	3.00000E+005	Initial Freq. (Hz)
FREQFINAL	QUANT	1.00000E+000	Final Freq. (Hz)
PTSPERDEC	QUANT	1.00000E+001	Points/decade
VAC	QUANT	5.00000E+001	AC Voltage (mV rms)
AREA	QUANT	1.00000E+000	Sample Area (cm^2)
SPEED	SELECTOR	2	Optimize for:
ZGUESS	QUANT	1.00000E+003	Estimated Z (ohms)
EOC	QUANT	0	Open Circuit (V)
SEQUENCER	TOGGLE	TRUE	Run as Sequence
PSTATMODEL	IQUANT	5	Pstat Model
PSTATSECTION	LABEL	REF3000-16137	Pstat Section
PSTATSERIALNO	LABEL	16137	Pstat Serial Number
CTRLMODE	IQUANT	1	Control Mode
IESTAB	IQUANT	0	I/E Stability
CASPEED	IQUANT	1	Control Amp Speed
CONVENTION	IQUANT	1	Current Convention
ICHRANGE	IQUANT	2	Ich Range
ICHRANGEMODE	TOGGLE	F	Ich Auto Range
ICHOFFSETENABLE	TOGGLE	T	Ich Offset Enable
ICHOFFSET	QUANT	0	Ich Offset (V)
ICHFILTER	IQUANT	3	Ich Filter
VCHRANGE	IQUANT	2	Vch Range
VCHRANGEMODE	TOGGLE	F	Vch Auto Range
VCHOFFSETENABLE	TOGGLE	T	Vch Offset Enable
VCHOFFSET	QUANT	0	Vch Offset (V)
VCHFILTER	IQUANT	3	Vch Filter
ACHRANGE	IQUANT	2	Ach Range
ACHOFFSETENABLE	TOGGLE	F	Ach Offset Enable
ACHOFFSET	QUANT	0	Ach Offset (V)
ACHFILTER	IQUANT	3	Ach Filter
IERANGELOWERLIMIT	IQUANT	2	I/E Range Lower Limit
IERANGEMODE	TOGGLE	F	I/E AutoRange
IERANGE	IQUANT	11	I/E Range
POSFEEDENABLE	TOGGLE	F	Positive Feedback IR Comp
POSFEEDRESISTANCE	QUANT	0	Positive Feedback Resistance (ohm)
ACHSELECT	IQUANT	0	Ach Select
CABLEID	IQUANT	13	Cable ID
DCCALDATE	LABEL	7/31/2020	DC Calibration Date
ACCALDATE	LABEL	7/31/2020	AC Calibration Date
THERMOSELECT	IQUANT	1	Thermo Select
FRAMEWORKVERSION	QUANT	6.33	Framework Version
INSTRUMENTVERSION	LABEL	3.50	Instrument Version
COMPLIANCEVOLTAGE	IQUANT	0	Compliance Voltage
ZCURVE	TABLE
	Pt	Time	Freq	Zreal	Zimag	Zsig	Zmod	Zphz	Idc	Vdc	IERange
	#	s	Hz	ohm	ohm	V	ohm	°	A	V	#
	0	11	300046.9	6.146231	2.194797	1	6.526353	19.65146	7.492475E-005	-1.816953E-005	10
	1	14	238359.4	6.122691	1.757061	1	6.36982	16.01217	-0.000097	-4.538269E-005	10
	2	17	189328.1	6.104575	1.382729	1	6.259215	12.76254	6.609442E-005	2.944922E-006	10
	3	19	150421.9	6.098251	1.076439	1	6.192526	10.01051	2.74536E-005	0.0004556	10
	4	22	119484.4	6.103159	0.8423326	1	6.161013	7.858081	1.742371E-005	0.0004816	10
	5	24	94921.88	6.107028	0.6643786	1	6.143061	6.208744	-2.398802E-005	0.0005533	10
	6	27	75421.88	6.109342	0.4891218	1	6.12889	4.577411	-2.348025E-005	0.000576	10
	7	30	59859.37	6.115994	0.3385562	1	6.125358	3.168424	4.103458E-006	0.0005752	10
	8	32	47578.12	6.125095	0.2090399	1	6.128661	1.954657	-2.319078E-006	0.0006674	10
	9	35	37828.12	6.135555	0.0924881	1	6.136252	0.863618	-2.041368E-005	0.0006304	10
	10	37	30046.88	6.14747	-0.0173121	1	6.147494	-0.1613518	7.515307E-006	0.0006243	10
	11	40	23859.38	6.159862	-0.1256495	1	6.161143	-1.168563	-1.315216E-005	0.0006455	10
	12	42	18984.38	6.172771	-0.2374831	1	6.177338	-2.203236	-3.086167E-005	0.0006614	10
	13	44	15046.87	6.186761	-0.3625708	1	6.197376	-3.353943	2.066619E-005	0.0006592	10
	14	47	11953.13	6.203327	-0.5032644	1	6.223708	-4.638143	-1.848926E-005	0.0006695	10
	15	49	9515.62	6.222463	-0.6666698	1	6.258074	-6.115297	-1.720342E-005	0.0006624	10
	16	51	7546.875	6.244007	-0.864634	1	6.303587	-7.883852	2.752783E-006	0.0006448	10
	17	54	5928.309	6.271886	-1.115055	1	6.370236	-10.08106	-2.514573E-005	0.0006886	10
	18	56	4733.456	6.302755	-1.401594	1	6.456716	-12.53731	-2.148429E-005	0.0007123	10
	19	58	3796.875	6.337864	-1.744597	1	6.573595	-15.39041	-9.762613E-006	0.0006656	10
	20	61	2987.132	6.387393	-2.204544	1	6.75713	-19.04159	1.582903E-005	0.000648	10
	21	63	2390.625	6.445655	-2.731732	1	7.00063	-22.96771	-1.525671E-005	0.0006929	10
	22	65	1884.191	6.520682	-3.433705	1	7.369506	-27.7707	-1.517236E-005	0.0006982	10
	23	68	1516.544	6.608343	-4.220087	1	7.840876	-32.56229	2.143716E-005	0.0006733	10
	24	70	1193.986	6.73204	-5.29084	1	8.562322	-38.16449	2.060742E-005	0.0006593	10
	25	72	946.5144	6.881231	-6.587143	1	9.52585	-43.74912	-3.000245E-005	0.0006807	10
	26	75	751.7689	7.078141	-8.170495	1	10.81004	-49.09745	1.075086E-005	0.0006431	10
	27	77	597.4265	7.318147	-10.12834	1	12.49554	-54.15032	2.251738E-005	0.0006703	10
	28	79	477.4305	7.617261	-12.47589	1	14.61747	-58.59349	-3.575399E-006	0.0006937	10
	29	82	376.6741	8.016807	-15.54317	1	17.48884	-62.71637	-2.406259E-006	0.0006833	10
	30	84	298.2954	8.513627	-19.28467	1	21.08033	-66.17992	-2.152843E-006	0.0006875	10
	31	86	237.7717	9.117564	-23.76734	1	25.45617	-69.01232	-2.821169E-006	0.0006867	10
	32	89	189.0121	9.87653	-29.35431	1	30.9713	-71.40401	-2.249464E-006	0.0006878	10
	33	91	150.2404	10.81068	-36.23315	1	37.81153	-73.38677	-2.709644E-006	0.0006907	10
	34	94	119.1737	11.95053	-44.75161	1	46.31977	-75.04854	1.244584E-006	8.551293E-005	9
	35	96	95.0169	13.3248	-55.07371	1	56.66272	-76.39895	1.159271E-006	0.00011	9
	36	98	75.60484	15.02187	-67.92513	1	69.56637	-77.52956	1.184983E-006	8.80559E-005	9
	37	101	54.50582	18.15476	-91.78528	1	93.56352	-78.81154	1.135807E-006	8.212444E-005	9
	38	103	45.95588	20.2424	-107.4535	1	109.3435	-79.33148	1.223807E-006	8.829845E-005	9
	39	106	37.20238	23.37527	-130.6164	1	132.6916	-79.85368	1.170959E-006	0.0001037	9
	40	108	30.04808	27.41036	-159.2027	1	161.5451	-80.231	1.152146E-006	8.230985E-005	9
	41	111	23.91582	32.96317	-196.6348	1	199.3785	-80.48362	1.120223E-006	8.233727E-005	9
	42	113	18.60119	41.06811	-248.0238	1	251.4008	-80.59819	1.108271E-006	9.471185E-005	9
	43	115	15.02404	50.2414	-302.0853	1	306.2347	-80.55727	1.32489E-006	8.223844E-005	9
	44	118	12.01923	62.87145	-370.7321	1	376.0254	-80.37494	1.400496E-006	8.867076E-005	9
	45	120	9.450605	80.8039	-460.1275	1	467.1687	-80.03973	6.922379E-007	0.0006631	8
	46	123	7.512019	104.0414	-566.6992	1	576.1706	-79.59681	6.5661E-007	0.0006783	8
	47	125	5.978954	135.2827	-695.9904	1	709.0162	-79.00033	6.591865E-007	0.0006605	8
	48	128	4.734848	178.2481	-857.3594	1	875.6926	-78.25531	6.995414E-007	0.0006892	8
	49	132	3.75601	236.3103	-1052.768	1	1078.964	-77.34876	6.461418E-007	0.0006602	8
	50	135	3.004808	311.4902	-1279.177	1	1316.556	-76.31436	6.081669E-007	0.0007026	8
	51	139	2.372217	419.8036	-1568.141	1	1623.361	-75.0129	6.432634E-007	0.000724	8
	52	143	1.878005	570.8772	-1909.227	1	1992.749	-73.35283	6.50537E-007	0.0006444	8
	53	148	1.512097	758.342	-2281.357	1	2404.095	-71.61277	6.43979E-007	0.0007687	8
	54	153	1.201923	1027.913	-2736.626	1	2923.307	-69.41316	6.767168E-007	0.0006416	8
	55	159	0.956633	1383.969	-3246.708	1	3529.374	-66.91298	5.264811E-007	2.066248E-005	8
