EXPLAIN
TAG	EISPOT
TITLE	LABEL	Potentiostatic EIS	Test Identifier
DATE	LABEL	2/27/2021	Date
TIME	LABEL	23:02:02	Time
NOTES	NOTES	1	Notes...
	
PSTAT	PSTAT	REF3000-16137	Potentiostat
VDC	POTEN	0.00000E+000	T	DC Voltage (V)
FREQINIT	QUANT	3.00000E+005	Initial Freq. (Hz)
FREQFINAL	QUANT	1.00000E+000	Final Freq. (Hz)
PTSPERDEC	QUANT	1.00000E+001	Points/decade
VAC	QUANT	5.00000E+001	AC Voltage (mV rms)
AREA	QUANT	1.00000E+000	Sample Area (cm^2)
SPEED	SELECTOR	2	Optimize for:
ZGUESS	QUANT	1.00000E+003	Estimated Z (ohms)
EOC	QUANT	0	Open Circuit (V)
SEQUENCER	TOGGLE	TRUE	Run as Sequence
PSTATMODEL	IQUANT	5	Pstat Model
PSTATSECTION	LABEL	REF3000-16137	Pstat Section
PSTATSERIALNO	LABEL	16137	Pstat Serial Number
CTRLMODE	IQUANT	1	Control Mode
IESTAB	IQUANT	0	I/E Stability
CASPEED	IQUANT	1	Control Amp Speed
CONVENTION	IQUANT	1	Current Convention
ICHRANGE	IQUANT	2	Ich Range
ICHRANGEMODE	TOGGLE	F	Ich Auto Range
ICHOFFSETENABLE	TOGGLE	T	Ich Offset Enable
ICHOFFSET	QUANT	0	Ich Offset (V)
ICHFILTER	IQUANT	3	Ich Filter
VCHRANGE	IQUANT	2	Vch Range
VCHRANGEMODE	TOGGLE	F	Vch Auto Range
VCHOFFSETENABLE	TOGGLE	T	Vch Offset Enable
VCHOFFSET	QUANT	0	Vch Offset (V)
VCHFILTER	IQUANT	3	Vch Filter
ACHRANGE	IQUANT	2	Ach Range
ACHOFFSETENABLE	TOGGLE	F	Ach Offset Enable
ACHOFFSET	QUANT	0	Ach Offset (V)
ACHFILTER	IQUANT	3	Ach Filter
IERANGELOWERLIMIT	IQUANT	2	I/E Range Lower Limit
IERANGEMODE	TOGGLE	F	I/E AutoRange
IERANGE	IQUANT	11	I/E Range
POSFEEDENABLE	TOGGLE	F	Positive Feedback IR Comp
POSFEEDRESISTANCE	QUANT	0	Positive Feedback Resistance (ohm)
ACHSELECT	IQUANT	0	Ach Select
CABLEID	IQUANT	13	Cable ID
DCCALDATE	LABEL	7/31/2020	DC Calibration Date
ACCALDATE	LABEL	7/31/2020	AC Calibration Date
THERMOSELECT	IQUANT	1	Thermo Select
FRAMEWORKVERSION	QUANT	6.33	Framework Version
INSTRUMENTVERSION	LABEL	3.50	Instrument Version
COMPLIANCEVOLTAGE	IQUANT	0	Compliance Voltage
ZCURVE	TABLE
	Pt	Time	Freq	Zreal	Zimag	Zsig	Zmod	Zphz	Idc	Vdc	IERange
	#	s	Hz	ohm	ohm	V	ohm	°	A	V	#
	0	7	300046.9	83.0822	1.283679	1	83.09212	0.8851899	1.540959E-005	-0.0013822	9
	1	11	238359.4	83.47595	1.061817	1	83.4827	0.7287651	9.994676E-006	-0.0010003	9
	2	14	189328.1	83.96944	0.8029196	1	83.97327	0.5478482	7.201513E-006	0.0006956	9
	3	16	150421.9	84.27815	0.5790063	1	84.28014	0.3936263	6.107285E-005	-0.0015717	9
	4	19	119484.4	84.68384	0.4737136	1	84.68517	0.320504	6.591241E-005	-0.0022527	9
	5	21	94921.88	85.04298	0.4784149	1	85.04432	0.3223178	-1.859079E-005	0.0005334	9
	6	24	75421.88	85.37634	0.2636159	1	85.37675	0.1769112	1.214569E-005	-0.0006124	9
	7	26	59859.37	85.72101	0.0841191	1	85.72105	0.056225	5.248015E-006	-0.0004543	9
	8	29	47578.12	86.09064	-0.0572904	1	86.09066	-0.0381284	5.149304E-006	-0.0004453	9
	9	31	37828.12	86.4505	-0.1590691	1	86.45065	-0.1054242	-1.616978E-005	0.0008255	9
	10	34	30046.88	86.83469	-0.2687305	1	86.83511	-0.1773148	2.093236E-005	-0.0005943	9
	11	37	23859.38	87.17042	-0.3970531	1	87.17133	-0.2609751	2.314335E-005	-0.000391	9
	12	39	18984.38	87.50632	-0.4721842	1	87.5076	-0.3091651	2.929604E-006	0.0004754	9
	13	41	15046.87	87.88952	-0.5666114	1	87.89134	-0.3693728	-2.452224E-006	-0.0002147	9
	14	43	11953.13	88.19991	-0.8865053	1	88.20436	-0.5758657	-1.998884E-005	0.0005525	9
	15	46	9515.62	88.54086	-1.027541	1	88.54681	-0.6649032	1.291247E-005	-0.0005977	9
	16	48	7546.875	88.96143	-1.17438	1	88.96918	-0.7563179	-2.027023E-006	-0.0002281	9
	17	50	5928.309	89.26361	-1.593661	1	89.27784	-1.022817	-2.50753E-006	-0.0001901	9
	18	53	4733.456	89.60044	-1.984945	1	89.62242	-1.269083	-1.869832E-005	0.0005058	9
	19	55	3796.875	89.99194	-2.350775	1	90.02264	-1.496343	9.708506E-006	0.0001623	9
	20	57	2987.132	90.39342	-3.028675	1	90.44415	-1.919004	-1.385309E-005	0.0002077	9
	21	60	2390.625	90.80032	-3.724431	1	90.87667	-2.348831	1.258155E-005	-0.0005958	9
	22	62	1884.191	91.14913	-4.611413	1	91.26571	-2.896237	-9.720695E-006	3.609903E-005	9
	23	64	1516.544	91.6284	-5.753147	1	91.80884	-3.592761	-1.587074E-005	0.0003576	9
	24	67	1193.986	92.10652	-7.145429	1	92.38327	-4.436	2.143804E-005	-0.0006149	9
	25	69	946.5144	92.65312	-8.913858	1	93.08092	-5.495329	2.185205E-005	-0.0006009	9
	26	72	751.7689	93.22788	-11.14725	1	93.89195	-6.81848	2.363201E-006	0.0004663	9
	27	74	597.4265	93.76783	-13.77699	1	94.77453	-8.358469	2.175769E-005	-0.0006125	9
	28	76	477.4305	94.44981	-17.02124	1	95.9713	-10.21588	1.245544E-006	8.924332E-005	9
	29	78	376.6741	95.2294	-21.28356	1	97.5788	-12.59844	1.325743E-006	7.966021E-005	9
	30	81	298.2954	96.1207	-26.51597	1	99.711	-15.42211	1.283211E-006	8.682171E-005	9
	31	83	237.7717	97.1659	-32.82238	1	102.5599	-18.66483	1.297928E-006	0.0000951	9
	32	86	189.0121	98.4187	-40.71551	1	106.5082	-22.47473	1.319386E-006	8.79545E-005	9
	33	88	150.2404	99.9221	-50.47784	1	111.9484	-26.80162	1.38071E-006	8.334494E-005	9
	34	90	119.1737	101.7564	-62.65658	1	119.4999	-31.62271	1.285893E-006	8.690931E-005	9
	35	93	95.0169	103.9624	-77.34525	1	129.578	-36.64826	1.304797E-006	8.234625E-005	9
	36	95	75.60484	106.6901	-95.5923	1	143.2504	-41.85971	1.340437E-006	8.186071E-005	9
	37	98	54.50582	111.4902	-129.3049	1	170.7332	-49.2312	1.178187E-006	0.0001131	9
	38	100	45.95588	114.8029	-151.3216	1	189.9419	-52.81357	1.353953E-006	8.392318E-005	9
	39	103	37.20238	119.5236	-183.7793	1	219.2276	-56.96144	1.325538E-006	8.12357E-005	9
	40	105	30.04808	125.3266	-223.6627	1	256.3821	-60.73645	1.270953E-006	8.635951E-005	9
	41	108	23.91582	132.872	-275.82	1	306.1563	-64.27828	1.364896E-006	7.954041E-005	9
	42	110	18.60119	143.1302	-347.2349	1	375.5774	-67.59854	1.292549E-006	8.252483E-005	9
	43	112	15.02404	153.2113	-420.351	1	447.4021	-69.97399	2.571365E-007	0.0006647	8
	44	115	12.01923	167.0149	-515.4784	1	541.8597	-72.04768	2.238716E-007	0.0006583	8
	45	117	9.450605	184.9201	-641.893	1	667.9985	-73.92908	2.895659E-007	0.0006823	8
	46	120	7.512019	205.6726	-791.3209	1	817.6124	-75.43059	2.90494E-007	0.0006903	8
	47	122	5.978954	230.6352	-974.565	1	1001.484	-76.68565	2.793824E-007	0.0006717	8
	48	125	4.734848	261.496	-1207.139	1	1235.137	-77.77718	2.488214E-007	0.0006682	8
	49	129	3.75601	297.9922	-1492.196	1	1521.659	-78.70657	2.916771E-007	0.0006735	8
	50	132	3.004808	340.1266	-1830.812	1	1862.138	-79.47562	2.578832E-007	0.0006921	8
	51	136	2.372217	395.2451	-2273.438	1	2307.54	-80.1375	2.628439E-007	0.0006718	8
	52	140	1.878005	466.3397	-2827.426	1	2865.625	-80.63428	2.958032E-007	0.0006358	8
	53	145	1.512097	539.9143	-3455.658	1	3497.583	-81.11987	2.747277E-007	0.0007383	8
	54	150	1.201923	650.7433	-4284.046	1	4333.188	-81.36284	3.000849E-007	0.0006595	8
	55	156	0.956633	785.0954	-5304.158	1	5361.946	-81.58049	1.581791E-008	-7.761845E-006	7
