EXPLAIN
TAG	EISPOT
TITLE	LABEL	Potentiostatic EIS	Test Identifier
DATE	LABEL	2/27/2021	Date
TIME	LABEL	22:09:19	Time
NOTES	NOTES	1	Notes...
	
PSTAT	PSTAT	REF3000-16137	Potentiostat
VDC	POTEN	0.00000E+000	T	DC Voltage (V)
FREQINIT	QUANT	3.00000E+005	Initial Freq. (Hz)
FREQFINAL	QUANT	1.00000E+000	Final Freq. (Hz)
PTSPERDEC	QUANT	1.00000E+001	Points/decade
VAC	QUANT	5.00000E+001	AC Voltage (mV rms)
AREA	QUANT	1.00000E+000	Sample Area (cm^2)
SPEED	SELECTOR	2	Optimize for:
ZGUESS	QUANT	1.00000E+003	Estimated Z (ohms)
EOC	QUANT	0	Open Circuit (V)
SEQUENCER	TOGGLE	TRUE	Run as Sequence
PSTATMODEL	IQUANT	5	Pstat Model
PSTATSECTION	LABEL	REF3000-16137	Pstat Section
PSTATSERIALNO	LABEL	16137	Pstat Serial Number
CTRLMODE	IQUANT	1	Control Mode
IESTAB	IQUANT	0	I/E Stability
CASPEED	IQUANT	1	Control Amp Speed
CONVENTION	IQUANT	1	Current Convention
ICHRANGE	IQUANT	2	Ich Range
ICHRANGEMODE	TOGGLE	F	Ich Auto Range
ICHOFFSETENABLE	TOGGLE	T	Ich Offset Enable
ICHOFFSET	QUANT	0	Ich Offset (V)
ICHFILTER	IQUANT	3	Ich Filter
VCHRANGE	IQUANT	2	Vch Range
VCHRANGEMODE	TOGGLE	F	Vch Auto Range
VCHOFFSETENABLE	TOGGLE	T	Vch Offset Enable
VCHOFFSET	QUANT	0	Vch Offset (V)
VCHFILTER	IQUANT	3	Vch Filter
ACHRANGE	IQUANT	2	Ach Range
ACHOFFSETENABLE	TOGGLE	F	Ach Offset Enable
ACHOFFSET	QUANT	0	Ach Offset (V)
ACHFILTER	IQUANT	3	Ach Filter
IERANGELOWERLIMIT	IQUANT	2	I/E Range Lower Limit
IERANGEMODE	TOGGLE	F	I/E AutoRange
IERANGE	IQUANT	11	I/E Range
POSFEEDENABLE	TOGGLE	F	Positive Feedback IR Comp
POSFEEDRESISTANCE	QUANT	0	Positive Feedback Resistance (ohm)
ACHSELECT	IQUANT	0	Ach Select
CABLEID	IQUANT	13	Cable ID
DCCALDATE	LABEL	7/31/2020	DC Calibration Date
ACCALDATE	LABEL	7/31/2020	AC Calibration Date
THERMOSELECT	IQUANT	1	Thermo Select
FRAMEWORKVERSION	QUANT	6.33	Framework Version
INSTRUMENTVERSION	LABEL	3.50	Instrument Version
COMPLIANCEVOLTAGE	IQUANT	0	Compliance Voltage
ZCURVE	TABLE
	Pt	Time	Freq	Zreal	Zimag	Zsig	Zmod	Zphz	Idc	Vdc	IERange
	#	s	Hz	ohm	ohm	V	ohm	°	A	V	#
	0	10	300046.9	5.263262	2.2083	1	5.707759	22.7614	3.124215E-005	0.0001232	10
	1	14	238359.4	5.233782	1.760092	1	5.521811	18.5875	1.01448E-005	-0.0001196	10
	2	17	189328.1	5.213136	1.390465	1	5.395385	14.93445	5.277269E-005	0.0001022	10
	3	19	150421.9	5.202477	1.096645	1	5.316803	11.90327	1.645038E-005	0.0003367	10
	4	22	119484.4	5.207851	0.8486332	1	5.276541	9.255153	-8.032826E-005	0.0005744	10
	5	24	94921.88	5.208905	0.6639531	1	5.25105	7.264036	2.670559E-005	0.0005104	10
	6	27	75421.88	5.209242	0.4912438	1	5.232353	5.387196	2.134896E-005	0.0005425	10
	7	29	59859.37	5.214055	0.3442177	1	5.225405	3.77703	4.148042E-006	0.0005714	10
	8	32	47578.12	5.220209	0.2153211	1	5.224648	2.361974	-1.309513E-005	0.0006094	10
	9	35	37828.12	5.228087	0.0990999	1	5.229027	1.085928	1.28758E-005	0.0006159	10
	10	37	30046.88	5.23781	-0.0098191	1	5.237819	-0.10741	1.623607E-005	0.000639	10
	11	40	23859.38	5.248509	-0.1169076	1	5.249811	-1.276021	-2.187958E-005	0.0007045	10
	12	42	18984.38	5.258852	-0.2279018	1	5.263787	-2.481463	-3.237795E-005	0.0006764	10
	13	44	15046.87	5.271514	-0.3506143	1	5.283161	-3.805202	2.176843E-005	0.0006939	10
	14	47	11953.13	5.285455	-0.4894335	1	5.308068	-5.290505	2.266372E-005	0.0006888	10
	15	49	9515.62	5.301317	-0.6487528	1	5.340866	-6.976925	-2.483485E-006	0.0006746	10
	16	51	7546.875	5.322103	-0.8421062	1	5.388314	-8.991261	-1.861577E-005	0.0007492	10
	17	54	5928.309	5.347014	-1.088057	1	5.456595	-11.50201	1.623683E-005	0.0006593	10
	18	56	4733.456	5.375527	-1.368208	1	5.546916	-14.28002	4.728406E-006	0.0006621	10
	19	58	3796.875	5.410611	-1.70374	1	5.672516	-17.47862	1.769301E-005	0.0007054	10
	20	60	2987.132	5.457253	-2.152807	1	5.866531	-21.52852	-2.483871E-005	0.000705	10
	21	63	2390.625	5.511303	-2.668651	1	6.123411	-25.83692	-2.407243E-005	0.0006809	10
	22	65	1884.191	5.586985	-3.350817	1	6.514781	-30.95339	-2.551448E-005	0.0007042	10
	23	67	1516.544	5.673284	-4.117446	1	7.009958	-35.97066	-2.781819E-005	0.0007016	10
	24	70	1193.986	5.793826	-5.159666	1	7.758258	-41.68652	2.044688E-005	0.0006774	10
	25	72	946.5144	5.949394	-6.412149	1	8.747053	-47.14387	1.153715E-005	0.0006578	10
	26	75	751.7689	6.133392	-7.958108	1	10.04739	-52.37821	3.255917E-006	0.0006549	10
	27	77	597.4265	6.372099	-9.86415	1	11.7433	-57.13813	-2.62185E-005	0.0007083	10
	28	79	477.4305	6.668785	-12.14471	1	13.85521	-61.22837	-2.730842E-006	0.0006904	10
	29	81	376.6741	7.063425	-15.12324	1	16.69144	-64.96471	-3.394875E-006	0.0006902	10
	30	84	298.2954	7.552302	-18.75565	1	20.21909	-68.06693	-2.453153E-006	0.0006928	10
	31	86	237.7717	8.145573	-23.10454	1	24.49837	-70.57975	-2.335157E-006	0.0006909	10
	32	89	189.0121	8.889681	-28.52537	1	29.87847	-72.69081	-2.374925E-006	0.0006951	10
	33	91	150.2404	9.80104	-35.20147	1	36.54044	-74.44136	-2.261953E-006	0.0006883	10
	34	93	119.1737	10.91546	-43.47296	1	44.82238	-75.90519	1.23883E-006	8.621587E-005	9
	35	96	95.0169	12.26477	-53.50501	1	54.89272	-77.08933	1.152127E-006	9.13024E-005	9
	36	98	75.60484	13.94153	-66.00301	1	67.45935	-78.07298	1.10999E-006	8.889197E-005	9
	37	101	54.50582	17.08707	-89.22086	1	90.84233	-79.15832	1.063352E-006	8.549368E-005	9
	38	103	45.95588	19.21772	-104.4601	1	106.2131	-79.57575	1.245524E-006	8.800141E-005	9
	39	106	37.20238	22.46914	-127.0108	1	128.983	-79.96776	1.2316E-006	9.327647E-005	9
	40	108	30.04808	26.68652	-154.7415	1	157.0258	-80.21509	1.218156E-006	9.024618E-005	9
	41	110	23.91582	32.61089	-191.1596	1	193.9213	-80.31882	1.205216E-006	8.589974E-005	9
	42	113	18.60119	41.32011	-240.8017	1	244.3212	-80.26322	1.342234E-006	9.244662E-005	9
	43	115	15.02404	51.33549	-293.0441	1	297.5066	-80.06374	1.251056E-006	8.145706E-005	9
	44	117	12.01923	65.27067	-359.1837	1	365.066	-79.70063	1.404415E-006	9.2876E-005	9
	45	120	9.450605	85.03516	-444.7503	1	452.8066	-79.17583	6.510697E-007	0.0006568	8
	46	122	7.512019	111.2438	-546.8516	1	558.0519	-78.50145	6.64559E-007	0.0006647	8
	47	125	5.978954	146.5542	-669.5701	1	685.4213	-77.65391	7.090983E-007	0.0006784	8
	48	128	4.734848	195.859	-822.4824	1	845.4809	-76.60554	6.435019E-007	0.0006796	8
	49	131	3.75601	262.6128	-1004.575	1	1038.333	-75.34977	6.598583E-007	0.0006629	8
	50	135	3.004808	349.7891	-1213.458	1	1262.867	-73.91994	5.951716E-007	0.0007166	8
	51	139	2.372217	475.3966	-1474.837	1	1549.563	-72.13387	6.47598E-007	0.0007143	8
	52	143	1.878005	649.7309	-1775.403	1	1890.557	-69.89927	6.435469E-007	0.0006387	8
	53	147	1.512097	863.829	-2090.58	1	2262.018	-67.54955	6.111579E-007	0.0007707	8
	54	153	1.201923	1161.794	-2460.762	1	2721.234	-64.72669	6.570817E-007	0.0006454	8
	55	159	0.956633	1542.828	-2851.08	1	3241.755	-61.58049	4.726132E-007	2.276381E-005	8
