EXPLAIN
TAG	EISPOT
TITLE	LABEL	Potentiostatic EIS	Test Identifier
DATE	LABEL	2/27/2021	Date
TIME	LABEL	23:26:47	Time
NOTES	NOTES	1	Notes...
	
PSTAT	PSTAT	REF3000-16137	Potentiostat
VDC	POTEN	0.00000E+000	T	DC Voltage (V)
FREQINIT	QUANT	3.00000E+005	Initial Freq. (Hz)
FREQFINAL	QUANT	1.00000E+000	Final Freq. (Hz)
PTSPERDEC	QUANT	1.00000E+001	Points/decade
VAC	QUANT	5.00000E+001	AC Voltage (mV rms)
AREA	QUANT	1.00000E+000	Sample Area (cm^2)
SPEED	SELECTOR	2	Optimize for:
ZGUESS	QUANT	1.00000E+003	Estimated Z (ohms)
EOC	QUANT	0	Open Circuit (V)
SEQUENCER	TOGGLE	TRUE	Run as Sequence
PSTATMODEL	IQUANT	5	Pstat Model
PSTATSECTION	LABEL	REF3000-16137	Pstat Section
PSTATSERIALNO	LABEL	16137	Pstat Serial Number
CTRLMODE	IQUANT	1	Control Mode
IESTAB	IQUANT	0	I/E Stability
CASPEED	IQUANT	1	Control Amp Speed
CONVENTION	IQUANT	1	Current Convention
ICHRANGE	IQUANT	2	Ich Range
ICHRANGEMODE	TOGGLE	F	Ich Auto Range
ICHOFFSETENABLE	TOGGLE	T	Ich Offset Enable
ICHOFFSET	QUANT	0	Ich Offset (V)
ICHFILTER	IQUANT	3	Ich Filter
VCHRANGE	IQUANT	2	Vch Range
VCHRANGEMODE	TOGGLE	F	Vch Auto Range
VCHOFFSETENABLE	TOGGLE	T	Vch Offset Enable
VCHOFFSET	QUANT	0	Vch Offset (V)
VCHFILTER	IQUANT	3	Vch Filter
ACHRANGE	IQUANT	2	Ach Range
ACHOFFSETENABLE	TOGGLE	F	Ach Offset Enable
ACHOFFSET	QUANT	0	Ach Offset (V)
ACHFILTER	IQUANT	3	Ach Filter
IERANGELOWERLIMIT	IQUANT	2	I/E Range Lower Limit
IERANGEMODE	TOGGLE	F	I/E AutoRange
IERANGE	IQUANT	11	I/E Range
POSFEEDENABLE	TOGGLE	F	Positive Feedback IR Comp
POSFEEDRESISTANCE	QUANT	0	Positive Feedback Resistance (ohm)
ACHSELECT	IQUANT	0	Ach Select
CABLEID	IQUANT	13	Cable ID
DCCALDATE	LABEL	7/31/2020	DC Calibration Date
ACCALDATE	LABEL	7/31/2020	AC Calibration Date
THERMOSELECT	IQUANT	1	Thermo Select
FRAMEWORKVERSION	QUANT	6.33	Framework Version
INSTRUMENTVERSION	LABEL	3.50	Instrument Version
COMPLIANCEVOLTAGE	IQUANT	0	Compliance Voltage
ZCURVE	TABLE
	Pt	Time	Freq	Zreal	Zimag	Zsig	Zmod	Zphz	Idc	Vdc	IERange
	#	s	Hz	ohm	ohm	V	ohm	°	A	V	#
	0	26	300046.9	1613.429	-892.0698	1	1843.622	-28.93833	2.856012E-005	-0.0020184	9
	1	45	238359.4	1791.292	-835.0289	1	1976.361	-24.99305	7.814015E-005	-0.0017632	9
	2	58	189328.1	1988.664	-816.9066	1	2149.912	-22.33195	-6.040419E-005	0.0005208	9
	3	77	150421.9	2165.006	-710.3864	1	2278.574	-18.16581	-2.780083E-005	-0.0009488	9
	4	83	119484.4	2298.776	-553.3005	1	2364.427	-13.5333	-3.449493E-005	0.0201428	8
	5	89	94921.88	2398.949	-474.9609	1	2445.516	-11.19899	-4.839192E-007	0.0065256	8
	6	94	75421.88	2478.064	-402.8445	1	2510.595	-9.23347	-2.32476E-005	0.0070789	8
	7	99	59859.37	2551.525	-336.9286	1	2573.675	-7.522379	-2.146107E-005	0.0051317	8
	8	107	47578.12	2618.048	-287.6779	1	2633.806	-6.27065	-1.524381E-005	0.0011974	8
	9	112	37828.12	2680.786	-247.0929	1	2692.149	-5.266176	-1.896154E-005	0.0031163	8
	10	117	30046.88	2736.588	-208.4243	1	2744.514	-4.355359	-2.083437E-006	-0.0040797	8
	11	124	23859.38	2797.792	-169.5763	1	2802.926	-3.468497	-9.641735E-006	-0.0012826	8
	12	129	18984.38	2848.484	-142.005	1	2852.022	-2.853994	-2.336473E-005	0.0071042	8
	13	134	15046.87	2893.229	-118.9199	1	2895.672	-2.353693	-2.219118E-006	-0.0040587	8
	14	140	11953.13	2968.331	-115.626	1	2970.583	-2.230726	-1.525718E-005	6.601366E-005	9
	15	145	9515.62	3001.465	-89.80382	1	3002.808	-1.713778	2.480259E-005	-0.0067778	8
	16	150	7546.875	3048.575	-77.4516	1	3049.559	-1.455334	2.464484E-005	-0.0068038	8
	17	156	5928.309	3095.575	-59.87812	1	3096.154	-1.108142	-2.176174E-005	0.0051486	8
	18	161	4733.456	3159.597	-60.90729	1	3160.184	-1.104349	1.395448E-005	-0.0081078	8
	19	167	3796.875	3216.848	-40.38725	1	3217.102	-0.7193057	2.500937E-005	-0.0069021	8
	20	172	2987.132	3264.47	-42.18658	1	3264.742	-0.7403893	2.350173E-005	-0.0081182	8
	21	177	2390.625	3320.492	-31.42617	1	3320.64	-0.5422489	2.362366E-005	-0.0081284	8
	22	183	1884.191	3394.307	-36.80848	1	3394.506	-0.6213015	-9.653062E-006	0.0090917	8
	23	188	1516.544	3434.698	-32.03585	1	3434.847	-0.5343894	-2.299305E-005	0.0004724	9
	24	193	1193.986	3507.185	-20.12409	1	3507.243	-0.3287573	2.361588E-005	-0.0081642	8
	25	199	946.5144	3551.041	-62.72367	1	3551.595	-1.011936	2.505751E-005	-0.0069265	8
	26	203	751.7689	3606.773	-26.2797	1	3606.869	-0.4174615	-1.06267E-006	0.0007716	9
	27	206	597.4265	3637.035	-65.89883	1	3637.632	-1.038019	-2.203124E-005	0.0102237	8
	28	210	477.4305	3677.181	-33.95286	1	3677.338	-0.5290195	-1.636614E-007	0.0006462	8
	29	214	376.6741	3717.215	-34.34676	1	3717.373	-0.5293932	-5.100548E-008	0.0006592	7
	30	216	298.2954	3746.391	-41.395	1	3746.62	-0.6330524	-5.608294E-008	0.0006011	7
	31	218	237.7717	3776.508	-50.70439	1	3776.848	-0.7692221	-6.504222E-008	0.0006171	7
	32	221	189.0121	3806.116	-62.25097	1	3806.625	-0.937018	-7.25973E-008	0.000678	7
	33	223	150.2404	3838.479	-76.46342	1	3839.24	-1.141195	-7.290102E-008	0.0006765	7
	34	226	119.1737	3869.352	-94.70044	1	3870.51	-1.402006	-4.548595E-008	0.0005958	7
	35	228	95.0169	3902.101	-116.6337	1	3903.844	-1.712059	-7.009157E-008	0.0006797	7
	36	230	75.60484	3936.595	-143.6955	1	3939.217	-2.09051	-7.991277E-008	0.0006625	7
	37	233	54.50582	3973.842	-194.9081	1	3978.619	-2.807981	-6.478853E-008	0.0006397	7
	38	236	45.95588	4009.492	-227.5282	1	4015.942	-3.247902	-1.007353E-007	0.0006688	7
	39	238	37.20238	4045.018	-279.4078	1	4054.656	-3.951404	1.712964E-008	0.0006113	7
	40	240	30.04808	4082.92	-339.4496	1	4097.007	-4.752579	-3.960888E-008	0.0006153	7
	41	243	23.91582	4124.399	-422.1782	1	4145.95	-5.844505	-1.021682E-007	0.0005964	7
	42	245	18.60119	4175.304	-532.4604	1	4209.118	-7.267482	-2.295574E-007	0.0006756	7
	43	247	15.02404	4211.457	-650.3831	1	4261.381	-8.778941	-1.880207E-008	0.0006548	7
	44	250	12.01923	4254.333	-793.6429	1	4327.727	-10.56703	7.446436E-008	0.0006103	7
	45	252	9.450605	4322.084	-998.254	1	4435.868	-13.00532	-1.570753E-008	0.000634	7
	46	255	7.512019	4388.622	-1242.739	1	4561.185	-15.81069	-7.80309E-008	0.0006094	7
	47	257	5.978954	4470.125	-1535.268	1	4726.422	-18.95507	-8.578954E-008	0.0006344	7
	48	260	4.734848	4565.308	-1906.884	1	4947.549	-22.66982	-1.096139E-007	0.0006293	7
	49	264	3.75601	4683.822	-2351.776	1	5241.092	-26.66151	-3.192354E-008	0.0006624	7
	50	267	3.004808	4822.945	-2883.99	1	5619.448	-30.87827	-3.132755E-008	0.0005886	7
	51	271	2.372217	5004.947	-3568.359	1	6146.762	-35.48759	-6.984805E-008	0.0005649	7
	52	275	1.878005	5208.16	-4411.818	1	6825.619	-40.26785	-5.523261E-008	0.0006423	7
	53	280	1.512097	5449.47	-5354.577	1	7639.91	-44.49678	-5.895531E-008	0.0005344	7
	54	285	1.201923	5745.81	-6603.243	1	8753.122	-48.97185	-5.626071E-008	0.0006567	7
	55	292	0.956633	6099.817	-8115.326	1	10152.16	-53.06995	-6.16523E-008	-6.017706E-006	7
