EXPLAIN
TAG	EISPOT
TITLE	LABEL	Potentiostatic EIS	Test Identifier
DATE	LABEL	2/27/2021	Date
TIME	LABEL	22:45:25	Time
NOTES	NOTES	1	Notes...
	
PSTAT	PSTAT	REF3000-16137	Potentiostat
VDC	POTEN	0.00000E+000	T	DC Voltage (V)
FREQINIT	QUANT	3.00000E+005	Initial Freq. (Hz)
FREQFINAL	QUANT	1.00000E+000	Final Freq. (Hz)
PTSPERDEC	QUANT	1.00000E+001	Points/decade
VAC	QUANT	5.00000E+001	AC Voltage (mV rms)
AREA	QUANT	1.00000E+000	Sample Area (cm^2)
SPEED	SELECTOR	2	Optimize for:
ZGUESS	QUANT	1.00000E+003	Estimated Z (ohms)
EOC	QUANT	0	Open Circuit (V)
SEQUENCER	TOGGLE	TRUE	Run as Sequence
PSTATMODEL	IQUANT	5	Pstat Model
PSTATSECTION	LABEL	REF3000-16137	Pstat Section
PSTATSERIALNO	LABEL	16137	Pstat Serial Number
CTRLMODE	IQUANT	1	Control Mode
IESTAB	IQUANT	0	I/E Stability
CASPEED	IQUANT	1	Control Amp Speed
CONVENTION	IQUANT	1	Current Convention
ICHRANGE	IQUANT	2	Ich Range
ICHRANGEMODE	TOGGLE	F	Ich Auto Range
ICHOFFSETENABLE	TOGGLE	T	Ich Offset Enable
ICHOFFSET	QUANT	0	Ich Offset (V)
ICHFILTER	IQUANT	3	Ich Filter
VCHRANGE	IQUANT	2	Vch Range
VCHRANGEMODE	TOGGLE	F	Vch Auto Range
VCHOFFSETENABLE	TOGGLE	T	Vch Offset Enable
VCHOFFSET	QUANT	0	Vch Offset (V)
VCHFILTER	IQUANT	3	Vch Filter
ACHRANGE	IQUANT	2	Ach Range
ACHOFFSETENABLE	TOGGLE	F	Ach Offset Enable
ACHOFFSET	QUANT	0	Ach Offset (V)
ACHFILTER	IQUANT	3	Ach Filter
IERANGELOWERLIMIT	IQUANT	2	I/E Range Lower Limit
IERANGEMODE	TOGGLE	F	I/E AutoRange
IERANGE	IQUANT	11	I/E Range
POSFEEDENABLE	TOGGLE	F	Positive Feedback IR Comp
POSFEEDRESISTANCE	QUANT	0	Positive Feedback Resistance (ohm)
ACHSELECT	IQUANT	0	Ach Select
CABLEID	IQUANT	13	Cable ID
DCCALDATE	LABEL	7/31/2020	DC Calibration Date
ACCALDATE	LABEL	7/31/2020	AC Calibration Date
THERMOSELECT	IQUANT	1	Thermo Select
FRAMEWORKVERSION	QUANT	6.33	Framework Version
INSTRUMENTVERSION	LABEL	3.50	Instrument Version
COMPLIANCEVOLTAGE	IQUANT	0	Compliance Voltage
ZCURVE	TABLE
	Pt	Time	Freq	Zreal	Zimag	Zsig	Zmod	Zphz	Idc	Vdc	IERange
	#	s	Hz	ohm	ohm	V	ohm	°	A	V	#
	0	7	300046.9	23.41544	1.880538	1	23.49083	4.591677	7.882012E-005	-0.000596	10
	1	10	238359.4	23.47686	1.515646	1	23.52573	3.69384	7.448335E-005	0.0001193	10
	2	13	189328.1	23.5335	1.198854	1	23.56402	2.916265	2.051362E-005	0.0006756	10
	3	16	150421.9	23.58928	0.9442826	1	23.60817	2.292336	1.959359E-005	0.0005701	10
	4	18	119484.4	23.65189	0.5773914	1	23.65893	1.398431	1.752815E-005	0.0007475	11
	5	22	94921.88	23.73984	0.5390813	1	23.74596	1.300842	-2.655411E-005	0.0007183	10
	6	24	75421.88	23.80906	0.287589	1	23.8108	0.6920406	-4.007098E-005	0.0006676	11
	7	28	59859.37	23.93074	0.2420825	1	23.93196	0.5795822	8.847528E-006	0.0006366	10
	8	32	47578.12	24.04187	0.1209189	1	24.04218	0.2881675	-2.924569E-006	0.0006419	10
	9	36	37828.12	24.11198	0.0068338	1	24.11198	0.0162388	-2.455294E-006	0.0006445	10
	10	38	30046.88	24.1818	-0.1023487	1	24.18201	-0.2425011	-1.779697E-005	0.0006657	10
	11	41	23859.38	24.25362	-0.2150105	1	24.25458	-0.5079189	1.524967E-005	0.0006198	10
	12	43	18984.38	24.32245	-0.3374917	1	24.32479	-0.7949696	-1.860085E-005	0.0007312	10
	13	46	15046.87	24.38932	-0.4702205	1	24.39385	-1.104513	-1.688951E-005	0.0006705	10
	14	48	11953.13	24.47211	-0.6347634	1	24.48034	-1.485819	-1.208841E-005	0.0006715	10
	15	50	9515.62	24.54056	-0.8194801	1	24.55424	-1.912561	2.677538E-005	0.0006948	10
	16	53	7546.875	24.62014	-1.047842	1	24.64242	-2.437058	-3.015955E-006	0.0006591	10
	17	55	5928.309	24.70724	-1.334137	1	24.74324	-3.090846	2.367672E-005	0.0006852	10
	18	57	4733.456	24.7963	-1.672336	1	24.85263	-3.858354	-2.928906E-005	0.0007194	10
	19	60	3796.875	24.89355	-2.06892	1	24.97938	-4.750973	-2.870574E-005	0.0006915	10
	20	62	2987.132	24.99495	-2.606019	1	25.13044	-5.952256	-1.184281E-005	0.0006769	10
	21	64	2390.625	25.11372	-3.225239	1	25.31997	-7.318175	2.145988E-005	0.0007248	10
	22	66	1884.191	25.23737	-4.050142	1	25.5603	-9.117197	-1.862593E-005	0.0006844	10
	23	69	1516.544	25.38893	-4.979636	1	25.87266	-11.0968	-2.866387E-005	0.0007217	10
	24	71	1193.986	25.57239	-6.248812	1	26.32479	-13.73158	-2.508387E-005	0.0006982	10
	25	74	946.5144	25.7835	-7.784879	1	26.93312	-16.80078	6.410317E-006	0.0007387	10
	26	76	751.7689	26.03283	-9.68209	1	27.77501	-20.4011	2.328008E-005	0.0006553	10
	27	78	597.4265	26.33718	-12.03227	1	28.95552	-24.55352	-2.974307E-005	0.0007096	10
	28	81	477.4305	26.69948	-14.86154	1	30.55696	-29.10131	-2.307618E-006	0.0006821	10
	29	83	376.6741	27.17409	-18.56769	1	32.91185	-34.34427	-2.331934E-006	0.00069	10
	30	85	298.2954	27.75607	-23.0994	1	36.11068	-39.7682	-2.023802E-006	0.0006865	10
	31	87	237.7717	28.43112	-28.51125	1	40.26438	-45.08062	1.3212E-006	8.636938E-005	9
	32	90	189.0121	29.32264	-35.30305	1	45.89251	-50.28704	1.294775E-006	8.683137E-005	9
	33	92	150.2404	30.43331	-43.69017	1	53.24488	-55.14005	1.249599E-006	8.635282E-005	9
	34	95	119.1737	31.83352	-54.14698	1	62.81137	-59.54833	1.254064E-006	8.981975E-005	9
	35	97	95.0169	33.53755	-66.7541	1	74.70528	-63.32485	1.206029E-006	8.883618E-005	9
	36	100	75.60484	35.67789	-82.41177	1	89.80318	-66.59114	1.24107E-006	8.643108E-005	9
	37	102	54.50582	39.62428	-111.3201	1	118.162	-70.40687	1.225934E-006	8.288631E-005	9
	38	105	45.95588	42.23555	-130.1843	1	136.8641	-72.02544	1.269898E-006	0.0001022	9
	39	107	37.20238	46.03967	-157.9688	1	164.5411	-73.75134	1.26236E-006	0.0001075	9
	40	109	30.04808	50.62626	-192.055	1	198.6156	-75.2326	1.225187E-006	0.0001028	9
	41	112	23.91582	56.5237	-236.6996	1	243.355	-76.56934	1.302239E-006	9.266525E-005	9
	42	114	18.60119	64.35732	-297.9985	1	304.8688	-77.81327	1.417344E-006	0.0000956	9
	43	116	15.02404	72.54323	-362.5448	1	369.7314	-78.68486	1.357036E-006	0.0001013	9
	44	119	12.01923	82.37299	-443.5057	1	451.0905	-79.47826	5.260991E-007	0.0006677	8
	45	121	9.450605	96.0479	-553.942	1	562.2072	-80.16329	4.819525E-007	0.0006785	8
	46	124	7.512019	112.5768	-685.3955	1	694.5794	-80.6724	5.124941E-007	0.0006714	8
	47	126	5.978954	133.1217	-846.5651	1	856.9678	-81.06346	5.073828E-007	0.0006696	8
	48	130	4.734848	159.7871	-1052.005	1	1064.071	-81.36346	5.889242E-007	0.0006745	8
	49	133	3.75601	194.7218	-1303.883	1	1318.343	-81.50623	5.113844E-007	0.0006538	8
	50	136	3.004808	237.7208	-1602.26	1	1619.798	-81.56082	5.596262E-007	0.0006311	8
	51	140	2.372217	296.493	-1991.718	1	2013.665	-81.53296	5.607188E-007	0.0006177	8
	52	144	1.878005	376.9509	-2471.761	1	2500.339	-81.32903	5.443875E-007	0.0006645	8
	53	149	1.512097	470.4434	-3015.74	1	3052.213	-81.13354	5.527064E-007	0.0005527	8
	54	154	1.201923	597.0128	-3722.753	1	3770.32	-80.88913	5.403261E-007	0.0006766	8
	55	161	0.956633	760.0585	-4590.563	1	4653.059	-80.59884	4.790851E-008	-5.628463E-006	7
