EXPLAIN
TAG	EISPOT
TITLE	LABEL	Potentiostatic EIS	Test Identifier
DATE	LABEL	2/27/2021	Date
TIME	LABEL	22:17:44	Time
NOTES	NOTES	1	Notes...
	
PSTAT	PSTAT	REF3000-16137	Potentiostat
VDC	POTEN	0.00000E+000	T	DC Voltage (V)
FREQINIT	QUANT	3.00000E+005	Initial Freq. (Hz)
FREQFINAL	QUANT	1.00000E+000	Final Freq. (Hz)
PTSPERDEC	QUANT	1.00000E+001	Points/decade
VAC	QUANT	5.00000E+001	AC Voltage (mV rms)
AREA	QUANT	1.00000E+000	Sample Area (cm^2)
SPEED	SELECTOR	2	Optimize for:
ZGUESS	QUANT	1.00000E+003	Estimated Z (ohms)
EOC	QUANT	0	Open Circuit (V)
SEQUENCER	TOGGLE	TRUE	Run as Sequence
PSTATMODEL	IQUANT	5	Pstat Model
PSTATSECTION	LABEL	REF3000-16137	Pstat Section
PSTATSERIALNO	LABEL	16137	Pstat Serial Number
CTRLMODE	IQUANT	1	Control Mode
IESTAB	IQUANT	0	I/E Stability
CASPEED	IQUANT	1	Control Amp Speed
CONVENTION	IQUANT	1	Current Convention
ICHRANGE	IQUANT	2	Ich Range
ICHRANGEMODE	TOGGLE	F	Ich Auto Range
ICHOFFSETENABLE	TOGGLE	T	Ich Offset Enable
ICHOFFSET	QUANT	0	Ich Offset (V)
ICHFILTER	IQUANT	3	Ich Filter
VCHRANGE	IQUANT	2	Vch Range
VCHRANGEMODE	TOGGLE	F	Vch Auto Range
VCHOFFSETENABLE	TOGGLE	T	Vch Offset Enable
VCHOFFSET	QUANT	0	Vch Offset (V)
VCHFILTER	IQUANT	3	Vch Filter
ACHRANGE	IQUANT	2	Ach Range
ACHOFFSETENABLE	TOGGLE	F	Ach Offset Enable
ACHOFFSET	QUANT	0	Ach Offset (V)
ACHFILTER	IQUANT	3	Ach Filter
IERANGELOWERLIMIT	IQUANT	2	I/E Range Lower Limit
IERANGEMODE	TOGGLE	F	I/E AutoRange
IERANGE	IQUANT	11	I/E Range
POSFEEDENABLE	TOGGLE	F	Positive Feedback IR Comp
POSFEEDRESISTANCE	QUANT	0	Positive Feedback Resistance (ohm)
ACHSELECT	IQUANT	0	Ach Select
CABLEID	IQUANT	13	Cable ID
DCCALDATE	LABEL	7/31/2020	DC Calibration Date
ACCALDATE	LABEL	7/31/2020	AC Calibration Date
THERMOSELECT	IQUANT	1	Thermo Select
FRAMEWORKVERSION	QUANT	6.33	Framework Version
INSTRUMENTVERSION	LABEL	3.50	Instrument Version
COMPLIANCEVOLTAGE	IQUANT	0	Compliance Voltage
ZCURVE	TABLE
	Pt	Time	Freq	Zreal	Zimag	Zsig	Zmod	Zphz	Idc	Vdc	IERange
	#	s	Hz	ohm	ohm	V	ohm	°	A	V	#
	0	10	300046.9	6.701761	2.187279	1	7.049666	18.07532	7.031583E-005	7.305791E-006	10
	1	13	238359.4	6.677055	1.745287	1	6.901383	14.64856	1.478009E-005	-3.956028E-005	10
	2	16	189328.1	6.670524	1.381066	1	6.811992	11.69726	-4.517318E-005	0.000326	10
	3	19	150421.9	6.6704	1.073153	1	6.756174	9.139595	1.544541E-005	0.0003702	10
	4	21	119484.4	6.664358	0.8392641	1	6.716996	7.177658	-0.0001007	0.0004434	10
	5	24	94921.88	6.67258	0.6618891	1	6.705328	5.664945	9.064785E-006	0.0005922	10
	6	26	75421.88	6.675215	0.4862862	1	6.692904	4.166609	-2.838412E-005	0.0005844	10
	7	29	59859.37	6.682493	0.3352499	1	6.690897	2.872029	-2.446529E-005	0.000625	10
	8	31	47578.12	6.694622	0.2052221	1	6.697767	1.755839	-1.975941E-005	0.0006656	10
	9	34	37828.12	6.706941	0.0888067	1	6.707529	0.7586104	-2.087575E-005	0.0006808	10
	10	36	30046.88	6.719945	-0.0210843	1	6.719978	-0.1797689	7.915222E-006	0.0006871	10
	11	39	23859.38	6.732501	-0.1301297	1	6.733758	-1.107308	1.123959E-005	0.0006479	10
	12	41	18984.38	6.747907	-0.2432787	1	6.752291	-2.06476	2.050447E-005	0.0006923	10
	13	44	15046.87	6.763302	-0.3693828	1	6.773381	-3.126146	2.389482E-005	0.0006853	10
	14	46	11953.13	6.780246	-0.5110531	1	6.799479	-4.310452	1.196217E-005	0.0006607	10
	15	48	9515.62	6.801969	-0.6758041	1	6.835459	-5.673955	-1.629181E-005	0.0007318	10
	16	51	7546.875	6.824264	-0.8757718	1	6.880229	-7.312913	2.149341E-005	0.0006583	10
	17	53	5928.309	6.852862	-1.129224	1	6.945276	-9.357193	2.058644E-005	0.0006579	10
	18	55	4733.456	6.884863	-1.4191	1	7.029594	-11.64663	1.870848E-005	0.0006735	10
	19	58	3796.875	6.923529	-1.767681	1	7.145624	-14.3225	-1.383651E-005	0.0006676	10
	20	60	2987.132	6.973229	-2.232186	1	7.321788	-17.75028	-1.221793E-005	0.0006813	10
	21	62	2390.625	7.03124	-2.765512	1	7.555554	-21.47059	4.50495E-006	0.0006506	10
	22	64	1884.191	7.107931	-3.477463	1	7.912991	-26.06959	-2.116405E-005	0.0007068	10
	23	67	1516.544	7.197053	-4.273602	1	8.370259	-30.70179	1.716796E-005	0.0006505	10
	24	69	1193.986	7.321366	-5.359879	1	9.073627	-36.20739	4.176001E-006	0.0006493	10
	25	72	946.5144	7.474699	-6.674188	1	10.02077	-41.76179	-2.277372E-006	0.0007161	10
	26	74	751.7689	7.666826	-8.285023	1	11.28813	-47.21933	1.470022E-005	0.0006838	10
	27	76	597.4265	7.910616	-10.26347	1	12.95827	-52.37661	2.064724E-005	0.0006525	10
	28	78	477.4305	8.213309	-12.65076	1	15.08311	-57.00698	-2.936576E-006	0.0006809	10
	29	81	376.6741	8.615714	-15.7649	1	17.9656	-61.34285	-2.004396E-006	0.0006849	10
	30	83	298.2954	9.116967	-19.56528	1	21.58516	-65.01556	-2.786504E-006	0.0006865	10
	31	85	237.7717	9.72548	-24.11813	1	26.00517	-68.03856	-3.27034E-006	0.0006879	10
	32	88	189.0121	10.49496	-29.79431	1	31.58869	-70.59534	-2.061672E-006	0.0006824	10
	33	90	150.2404	11.44184	-36.78095	1	38.51953	-72.72009	-2.348599E-006	0.000689	10
	34	93	119.1737	12.59768	-45.43152	1	47.14578	-74.50188	1.332174E-006	8.826699E-005	9
	35	95	95.0169	13.99438	-55.90926	1	57.63409	-75.9473	1.268635E-006	8.448915E-005	9
	36	98	75.60484	15.70828	-68.94968	1	70.71639	-77.16579	1.245211E-006	8.234506E-005	9
	37	100	54.50582	18.85404	-93.14055	1	95.0297	-78.5565	1.161196E-006	8.107929E-005	9
	38	103	45.95588	20.93232	-109.0283	1	111.0195	-79.13204	1.300754E-006	8.556399E-005	9
	39	105	37.20238	24.04082	-132.5386	1	134.7013	-79.71905	1.327293E-006	8.212419E-005	9
	40	107	30.04808	27.98417	-161.4642	1	163.8713	-80.16745	1.182744E-006	8.61248E-005	9
	41	110	23.91582	33.36871	-199.4411	1	202.2133	-80.50175	1.252556E-006	8.268098E-005	9
	42	112	18.60119	41.29153	-251.7055	1	255.0699	-80.68378	1.216074E-006	0.0000956	9
	43	114	15.02404	50.11216	-306.7395	1	310.8059	-80.72153	1.288709E-006	8.100141E-005	9
	44	117	12.01923	62.20052	-376.6543	1	381.7557	-80.62283	1.413074E-006	8.462116E-005	9
	45	119	9.450605	79.22497	-467.6057	1	474.2697	-80.38387	6.359831E-007	0.0006542	8
	46	122	7.512019	101.3713	-576.7576	1	585.5984	-80.03148	6.613428E-007	0.0006591	8
	47	124	5.978954	130.8129	-709.0148	1	720.9813	-79.54651	6.540503E-007	0.000663	8
	48	127	4.734848	171.0137	-874.6912	1	891.2521	-78.93747	6.199555E-007	0.0006387	8
	49	131	3.75601	225.2057	-1075.27	1	1098.6	-78.17089	6.981078E-007	0.0006823	8
	50	134	3.004808	295.3255	-1308.585	1	1341.496	-77.28237	6.729715E-007	0.0006565	8
	51	138	2.372217	398.7359	-1609.179	1	1657.844	-76.08308	6.240739E-007	0.0006039	8
	52	142	1.878005	534.5082	-1968.474	1	2039.752	-74.80852	6.904231E-007	0.0006701	8
	53	147	1.512097	705.4265	-2357.33	1	2460.616	-73.34029	6.528437E-007	0.0006456	8
	54	152	1.201923	957.212	-2854.274	1	3010.504	-71.46056	6.81332E-007	0.0006895	8
	55	158	0.956633	1294.474	-3416.489	1	3653.5	-69.2488	5.809665E-007	1.401588E-005	8
