EXPLAIN
TAG	EISPOT
TITLE	LABEL	Potentiostatic EIS	Test Identifier
DATE	LABEL	2/27/2021	Date
TIME	LABEL	22:20:32	Time
NOTES	NOTES	1	Notes...
	
PSTAT	PSTAT	REF3000-16137	Potentiostat
VDC	POTEN	0.00000E+000	T	DC Voltage (V)
FREQINIT	QUANT	3.00000E+005	Initial Freq. (Hz)
FREQFINAL	QUANT	1.00000E+000	Final Freq. (Hz)
PTSPERDEC	QUANT	1.00000E+001	Points/decade
VAC	QUANT	5.00000E+001	AC Voltage (mV rms)
AREA	QUANT	1.00000E+000	Sample Area (cm^2)
SPEED	SELECTOR	2	Optimize for:
ZGUESS	QUANT	1.00000E+003	Estimated Z (ohms)
EOC	QUANT	0	Open Circuit (V)
SEQUENCER	TOGGLE	TRUE	Run as Sequence
PSTATMODEL	IQUANT	5	Pstat Model
PSTATSECTION	LABEL	REF3000-16137	Pstat Section
PSTATSERIALNO	LABEL	16137	Pstat Serial Number
CTRLMODE	IQUANT	1	Control Mode
IESTAB	IQUANT	0	I/E Stability
CASPEED	IQUANT	1	Control Amp Speed
CONVENTION	IQUANT	1	Current Convention
ICHRANGE	IQUANT	2	Ich Range
ICHRANGEMODE	TOGGLE	F	Ich Auto Range
ICHOFFSETENABLE	TOGGLE	T	Ich Offset Enable
ICHOFFSET	QUANT	0	Ich Offset (V)
ICHFILTER	IQUANT	3	Ich Filter
VCHRANGE	IQUANT	2	Vch Range
VCHRANGEMODE	TOGGLE	F	Vch Auto Range
VCHOFFSETENABLE	TOGGLE	T	Vch Offset Enable
VCHOFFSET	QUANT	0	Vch Offset (V)
VCHFILTER	IQUANT	3	Vch Filter
ACHRANGE	IQUANT	2	Ach Range
ACHOFFSETENABLE	TOGGLE	F	Ach Offset Enable
ACHOFFSET	QUANT	0	Ach Offset (V)
ACHFILTER	IQUANT	3	Ach Filter
IERANGELOWERLIMIT	IQUANT	2	I/E Range Lower Limit
IERANGEMODE	TOGGLE	F	I/E AutoRange
IERANGE	IQUANT	11	I/E Range
POSFEEDENABLE	TOGGLE	F	Positive Feedback IR Comp
POSFEEDRESISTANCE	QUANT	0	Positive Feedback Resistance (ohm)
ACHSELECT	IQUANT	0	Ach Select
CABLEID	IQUANT	13	Cable ID
DCCALDATE	LABEL	7/31/2020	DC Calibration Date
ACCALDATE	LABEL	7/31/2020	AC Calibration Date
THERMOSELECT	IQUANT	1	Thermo Select
FRAMEWORKVERSION	QUANT	6.33	Framework Version
INSTRUMENTVERSION	LABEL	3.50	Instrument Version
COMPLIANCEVOLTAGE	IQUANT	0	Compliance Voltage
ZCURVE	TABLE
	Pt	Time	Freq	Zreal	Zimag	Zsig	Zmod	Zphz	Idc	Vdc	IERange
	#	s	Hz	ohm	ohm	V	ohm	°	A	V	#
	0	8	300046.9	7.339731	2.213488	1	7.666236	16.78206	-8.614536E-005	9.492131E-005	10
	1	11	238359.4	7.320228	1.743924	1	7.525092	13.39999	1.28199E-005	0.0001495	10
	2	14	189328.1	7.311079	1.373575	1	7.43899	10.64045	1.485449E-005	0.0002458	10
	3	17	150421.9	7.306385	1.0861	1	7.386668	8.455145	2.874542E-005	0.0004454	10
	4	19	119484.4	7.314813	0.8351651	1	7.362336	6.513512	-4.521681E-005	0.0006062	10
	5	22	94921.88	7.32054	0.6588026	1	7.350124	5.142407	-2.333926E-005	0.0005723	10
	6	24	75421.88	7.326885	0.4825045	1	7.342755	3.767715	1.823352E-005	0.0005577	10
	7	27	59859.37	7.335305	0.3311853	1	7.342778	2.58512	-2.492778E-005	0.0006209	10
	8	29	47578.12	7.347501	0.2005213	1	7.350237	1.563276	-8.504519E-006	0.000624	10
	9	32	37828.12	7.363076	0.0841287	1	7.363557	0.6546187	1.147236E-005	0.0006151	10
	10	34	30046.88	7.378313	-0.0256383	1	7.378357	-0.1990916	-2.207524E-005	0.0007119	10
	11	37	23859.38	7.392456	-0.1350198	1	7.393689	-1.046365	-3.050392E-005	0.0006608	10
	12	39	18984.38	7.409101	-0.2486545	1	7.413272	-1.922164	-1.935483E-005	0.0007245	10
	13	41	15046.87	7.42546	-0.3756779	1	7.434957	-2.896308	-2.491217E-005	0.00067	10
	14	44	11953.13	7.445817	-0.5197954	1	7.463939	-3.993361	2.371667E-005	0.0006808	10
	15	46	9515.62	7.466924	-0.685527	1	7.498327	-5.245533	-9.930596E-006	0.0006589	10
	16	48	7546.875	7.492314	-0.8885145	1	7.544815	-6.763127	2.109499E-005	0.000688	10
	17	51	5928.309	7.522315	-1.144367	1	7.608863	-8.650063	1.0117E-005	0.000636	10
	18	53	4733.456	7.556222	-1.437761	1	7.691792	-10.77318	2.238942E-005	0.0006602	10
	19	55	3796.875	7.596354	-1.788605	1	7.804082	-13.24929	-2.639408E-005	0.0007155	10
	20	58	2987.132	7.647173	-2.260228	1	7.974202	-16.46578	4.399508E-006	0.0006447	10
	21	60	2390.625	7.706927	-2.803995	1	8.201165	-19.9928	-2.742908E-006	0.0007198	10
	22	62	1884.191	7.78594	-3.52223	1	8.545582	-24.34121	-2.796432E-005	0.0007009	10
	23	65	1516.544	7.876852	-4.329121	1	8.988108	-28.79321	-4.325623E-006	0.0006605	10
	24	67	1193.986	8.00146	-5.43077	1	9.6704	-34.16562	-2.253973E-005	0.00072	10
	25	69	946.5144	8.152538	-6.764796	1	10.59369	-39.68513	-3.003846E-005	0.0006752	10
	26	72	751.7689	8.348575	-8.396771	1	11.8408	-45.16491	-1.622E-005	0.0007009	10
	27	74	597.4265	8.598737	-10.40874	1	13.50111	-50.43963	2.144327E-005	0.0006755	10
	28	76	477.4305	8.900809	-12.8292	1	15.61451	-55.24737	-3.512041E-006	0.0006903	10
	29	79	376.6741	9.306086	-15.99103	1	18.50179	-59.80246	-3.64314E-006	0.0006869	10
	30	81	298.2954	9.81208	-19.85084	1	22.14346	-63.69726	-2.325625E-006	0.0006847	10
	31	83	237.7717	10.42573	-24.47651	1	26.60443	-66.9285	-2.93276E-006	0.0006976	10
	32	86	189.0121	11.20533	-30.2429	1	32.25202	-69.66977	-2.339289E-006	0.0006844	10
	33	88	150.2404	12.1644	-37.34142	1	39.27282	-71.95638	-2.343139E-006	0.0006796	10
	34	91	119.1737	13.33717	-46.12933	1	48.0187	-73.87407	1.239612E-006	0.0001028	9
	35	93	95.0169	14.75868	-56.76652	1	58.6537	-75.42637	1.262834E-006	8.272013E-005	9
	36	95	75.60484	16.49889	-70.00001	1	71.91811	-76.73753	1.19342E-006	8.550934E-005	9
	37	98	54.50582	19.6728	-94.53545	1	96.5607	-78.24454	1.098215E-006	8.547377E-005	9
	38	101	45.95588	21.75516	-110.6411	1	112.7596	-78.87595	1.264039E-006	8.798572E-005	9
	39	103	37.20238	24.84856	-134.4786	1	136.7551	-79.53114	1.287356E-006	8.822743E-005	9
	40	105	30.04808	28.73237	-163.8342	1	166.3346	-80.05293	1.169985E-006	0.000112	9
	41	108	23.91582	34.03021	-202.369	1	205.2103	-80.4545	1.229588E-006	8.646232E-005	9
	42	110	18.60119	41.72527	-255.4835	1	258.8683	-80.72441	1.295754E-006	8.147011E-005	9
	43	112	15.02404	50.28008	-311.3578	1	315.3915	-80.8267	1.311285E-006	7.852715E-005	9
	44	115	12.01923	61.87019	-382.5628	1	387.5335	-80.81335	1.39633E-006	9.080581E-005	9
	45	117	9.450605	78.24705	-475.2345	1	481.6331	-80.65018	6.08622E-007	0.0006623	8
	46	120	7.512019	99.2753	-586.3922	1	594.7365	-80.39102	6.170428E-007	0.0006523	8
	47	122	5.978954	127.2274	-721.7037	1	732.8322	-80.00219	6.113356E-007	0.0006715	8
	48	125	4.734848	165.1026	-891.5519	1	906.7103	-79.5085	6.114453E-007	0.0006477	8
	49	129	3.75601	216.3183	-1097.176	1	1118.298	-78.84666	6.771117E-007	0.0006838	8
	50	132	3.004808	281.9655	-1337.738	1	1367.131	-78.09754	6.61048E-007	0.0006468	8
	51	136	2.372217	377.8137	-1648.924	1	1691.655	-77.09473	6.358957E-007	0.0005826	8
	52	140	1.878005	503.3786	-2022.214	1	2083.924	-76.02177	6.827626E-007	0.0006667	8
	53	145	1.512097	663.737	-2430.512	1	2519.511	-74.72579	6.392422E-007	0.0006117	8
	54	150	1.201923	893.7949	-2958.372	1	3090.442	-73.18918	6.713369E-007	0.0006848	8
	55	156	0.956633	1207.224	-3567.028	1	3765.778	-71.30215	5.905841E-007	2.018559E-005	8
