EXPLAIN
TAG	EISPOT
TITLE	LABEL	Potentiostatic EIS	Test Identifier
DATE	LABEL	2/27/2021	Date
TIME	LABEL	22:26:04	Time
NOTES	NOTES	1	Notes...
	
PSTAT	PSTAT	REF3000-16137	Potentiostat
VDC	POTEN	0.00000E+000	T	DC Voltage (V)
FREQINIT	QUANT	3.00000E+005	Initial Freq. (Hz)
FREQFINAL	QUANT	1.00000E+000	Final Freq. (Hz)
PTSPERDEC	QUANT	1.00000E+001	Points/decade
VAC	QUANT	5.00000E+001	AC Voltage (mV rms)
AREA	QUANT	1.00000E+000	Sample Area (cm^2)
SPEED	SELECTOR	2	Optimize for:
ZGUESS	QUANT	1.00000E+003	Estimated Z (ohms)
EOC	QUANT	0	Open Circuit (V)
SEQUENCER	TOGGLE	TRUE	Run as Sequence
PSTATMODEL	IQUANT	5	Pstat Model
PSTATSECTION	LABEL	REF3000-16137	Pstat Section
PSTATSERIALNO	LABEL	16137	Pstat Serial Number
CTRLMODE	IQUANT	1	Control Mode
IESTAB	IQUANT	0	I/E Stability
CASPEED	IQUANT	1	Control Amp Speed
CONVENTION	IQUANT	1	Current Convention
ICHRANGE	IQUANT	2	Ich Range
ICHRANGEMODE	TOGGLE	F	Ich Auto Range
ICHOFFSETENABLE	TOGGLE	T	Ich Offset Enable
ICHOFFSET	QUANT	0	Ich Offset (V)
ICHFILTER	IQUANT	3	Ich Filter
VCHRANGE	IQUANT	2	Vch Range
VCHRANGEMODE	TOGGLE	F	Vch Auto Range
VCHOFFSETENABLE	TOGGLE	T	Vch Offset Enable
VCHOFFSET	QUANT	0	Vch Offset (V)
VCHFILTER	IQUANT	3	Vch Filter
ACHRANGE	IQUANT	2	Ach Range
ACHOFFSETENABLE	TOGGLE	F	Ach Offset Enable
ACHOFFSET	QUANT	0	Ach Offset (V)
ACHFILTER	IQUANT	3	Ach Filter
IERANGELOWERLIMIT	IQUANT	2	I/E Range Lower Limit
IERANGEMODE	TOGGLE	F	I/E AutoRange
IERANGE	IQUANT	11	I/E Range
POSFEEDENABLE	TOGGLE	F	Positive Feedback IR Comp
POSFEEDRESISTANCE	QUANT	0	Positive Feedback Resistance (ohm)
ACHSELECT	IQUANT	0	Ach Select
CABLEID	IQUANT	13	Cable ID
DCCALDATE	LABEL	7/31/2020	DC Calibration Date
ACCALDATE	LABEL	7/31/2020	AC Calibration Date
THERMOSELECT	IQUANT	1	Thermo Select
FRAMEWORKVERSION	QUANT	6.33	Framework Version
INSTRUMENTVERSION	LABEL	3.50	Instrument Version
COMPLIANCEVOLTAGE	IQUANT	0	Compliance Voltage
ZCURVE	TABLE
	Pt	Time	Freq	Zreal	Zimag	Zsig	Zmod	Zphz	Idc	Vdc	IERange
	#	s	Hz	ohm	ohm	V	ohm	°	A	V	#
	0	8	300046.9	8.956869	2.168784	1	9.2157	13.61141	-5.060309E-007	0.000153	10
	1	11	238359.4	8.962536	1.723543	1	9.126755	10.8854	7.769496E-005	-4.881965E-005	10
	2	14	189328.1	8.963186	1.36636	1	9.066733	8.667518	-5.47356E-005	0.0003929	10
	3	16	150421.9	8.958637	1.074903	1	9.022893	6.841929	1.912774E-005	0.0004489	10
	4	19	119484.4	8.971798	0.824502	1	9.009604	5.250694	6.479639E-006	0.0006717	10
	5	21	94921.88	8.982571	0.6500581	1	9.006062	4.139212	-2.408217E-005	0.0005992	10
	6	24	75421.88	8.993678	0.4731247	1	9.006114	3.011347	-1.291082E-005	0.0005933	10
	7	27	59859.37	9.0073	0.319862	1	9.012978	2.0338	1.770581E-005	0.0006122	10
	8	29	47578.12	9.026566	0.1907802	1	9.028582	1.21079	-2.786553E-005	0.00064	10
	9	32	37828.12	9.0449	0.0741625	1	9.045204	0.4697791	1.717223E-005	0.0006183	10
	10	34	30046.88	9.064741	-0.0356551	1	9.064812	-0.2253648	1.176532E-005	0.0006211	10
	11	37	23859.38	9.084443	-0.1459734	1	9.085616	-0.9205781	-1.979701E-005	0.0006549	10
	12	39	18984.38	9.105873	-0.2614724	1	9.109627	-1.644779	-1.219374E-005	0.0007227	10
	13	41	15046.87	9.126863	-0.3916715	1	9.135262	-2.457292	-1.587573E-006	0.0006576	10
	14	44	11953.13	9.151546	-0.5373937	1	9.167311	-3.360642	3.918225E-006	0.000646	10
	15	46	9515.62	9.177336	-0.7062507	1	9.204471	-4.400578	-9.550209E-006	0.0006813	10
	16	48	7546.875	9.205716	-0.9133793	1	9.250917	-5.666268	-2.767154E-006	0.0006639	10
	17	51	5928.309	9.240457	-1.176818	1	9.315092	-7.257833	1.465878E-005	0.0006847	10
	18	53	4733.456	9.279089	-1.477531	1	9.395988	-9.047385	2.227611E-005	0.0006715	10
	19	55	3796.875	9.323442	-1.836574	1	9.50261	-11.14371	-1.884478E-005	0.0007433	10
	20	58	2987.132	9.379026	-2.321074	1	9.66196	-13.9	-1.199612E-005	0.0006692	10
	21	60	2390.625	9.443932	-2.877367	1	9.87254	-16.94487	-2.488335E-005	0.0007335	10
	22	62	1884.191	9.526	-3.615063	1	10.18888	-20.78148	-4.626441E-006	0.0006601	10
	23	64	1516.544	9.6199	-4.449265	1	10.59899	-24.82083	-2.252735E-005	0.0007165	10
	24	67	1193.986	9.75033	-5.580416	1	11.23432	-29.78385	3.620801E-006	0.0006604	10
	25	69	946.5144	9.90943	-6.9465	1	12.10168	-35.03042	2.145653E-005	0.000662	10
	26	72	751.7689	10.1057	-8.636884	1	13.29364	-40.51901	-2.973625E-005	0.0007036	10
	27	74	597.4265	10.35769	-10.7117	1	14.90041	-45.9626	2.135499E-005	0.0006764	10
	28	76	477.4305	10.66744	-13.20687	1	16.97692	-51.07151	-2.348977E-006	0.0006832	10
	29	79	376.6741	11.07861	-16.47067	1	19.8499	-56.07417	-1.625086E-006	0.0006843	10
	30	81	298.2954	11.59495	-20.45491	1	23.51268	-60.45308	-2.442787E-006	0.0006863	10
	31	83	237.7717	12.22391	-25.23352	1	28.03844	-64.153	-2.702315E-006	0.0006859	10
	32	86	189.0121	13.02108	-31.19512	1	33.80361	-67.34396	-1.817161E-006	0.000689	10
	33	88	150.2404	14.00962	-38.53424	1	41.00192	-70.02061	-1.719301E-006	0.0006879	10
	34	90	119.1737	15.22492	-47.61521	1	49.99006	-72.26836	1.371237E-006	8.718293E-005	9
	35	93	95.0169	16.70039	-58.60382	1	60.93694	-74.09399	1.322261E-006	8.684946E-005	9
	36	95	75.60484	18.51188	-72.25502	1	74.58872	-75.62981	1.20256E-006	8.045437E-005	9
	37	98	54.50582	21.79169	-97.5382	1	99.9429	-77.40598	1.19957E-006	7.96246E-005	9
	38	100	45.95588	23.91466	-114.118	1	116.5969	-78.16433	1.35153E-006	8.559508E-005	9
	39	103	37.20238	27.02435	-138.6422	1	141.2514	-78.97012	1.34077E-006	9.344255E-005	9
	40	105	30.04808	30.89338	-168.8954	1	171.6975	-79.63437	1.254092E-006	8.414585E-005	9
	41	108	23.91582	36.03029	-208.4794	1	211.5699	-80.19476	1.240056E-006	7.966528E-005	9
	42	110	18.60119	43.39853	-263.2145	1	266.7682	-80.63737	1.208653E-006	8.557161E-005	9
	43	112	15.02404	51.56344	-320.9595	1	325.075	-80.87318	1.342793E-006	7.559767E-005	9
	44	115	12.01923	62.42426	-394.5588	1	399.4664	-81.00959	1.389312E-006	8.325404E-005	9
	45	117	9.450605	77.64822	-490.8079	1	496.9121	-81.01003	6.650435E-007	0.0006632	8
	46	120	7.512019	97.0407	-606.0838	1	613.8033	-80.90352	6.710168E-007	0.0006851	8
	47	122	5.978954	122.5334	-747.2231	1	757.2033	-80.68724	6.742023E-007	0.0006371	8
	48	125	4.734848	156.767	-924.5847	1	937.7807	-80.3768	6.900675E-007	0.0006873	8
	49	129	3.75601	202.5033	-1140.604	1	1158.441	-79.93259	6.090247E-007	0.0006439	8
	50	132	3.004808	260.6792	-1393.559	1	1417.731	-79.4047	6.404897E-007	0.0006711	8
	51	136	2.372217	344.2601	-1720.816	1	1754.914	-78.68697	6.546484E-007	0.0006978	8
	52	140	1.878005	453.3118	-2122.853	1	2170.714	-77.94616	6.00625E-007	0.0006522	8
	53	145	1.512097	584.6405	-2568.324	1	2634.026	-77.17599	6.41931E-007	0.0005858	8
	54	150	1.201923	784.5191	-3144.682	1	3241.064	-75.99208	6.264167E-007	0.0006543	8
	55	156	0.956633	1049.286	-3825.328	1	3966.628	-74.66106	6.011236E-007	1.947728E-005	8
