EXPLAIN
TAG	EISPOT
TITLE	LABEL	Potentiostatic EIS	Test Identifier
DATE	LABEL	2/27/2021	Date
TIME	LABEL	21:58:07	Time
NOTES	NOTES	1	Notes...
	
PSTAT	PSTAT	REF3000-16137	Potentiostat
VDC	POTEN	0.00000E+000	T	DC Voltage (V)
FREQINIT	QUANT	3.00000E+005	Initial Freq. (Hz)
FREQFINAL	QUANT	1.00000E+000	Final Freq. (Hz)
PTSPERDEC	QUANT	1.00000E+001	Points/decade
VAC	QUANT	5.00000E+001	AC Voltage (mV rms)
AREA	QUANT	1.00000E+000	Sample Area (cm^2)
SPEED	SELECTOR	2	Optimize for:
ZGUESS	QUANT	1.00000E+003	Estimated Z (ohms)
EOC	QUANT	0	Open Circuit (V)
SEQUENCER	TOGGLE	TRUE	Run as Sequence
PSTATMODEL	IQUANT	5	Pstat Model
PSTATSECTION	LABEL	REF3000-16137	Pstat Section
PSTATSERIALNO	LABEL	16137	Pstat Serial Number
CTRLMODE	IQUANT	1	Control Mode
IESTAB	IQUANT	0	I/E Stability
CASPEED	IQUANT	1	Control Amp Speed
CONVENTION	IQUANT	1	Current Convention
ICHRANGE	IQUANT	2	Ich Range
ICHRANGEMODE	TOGGLE	F	Ich Auto Range
ICHOFFSETENABLE	TOGGLE	T	Ich Offset Enable
ICHOFFSET	QUANT	0	Ich Offset (V)
ICHFILTER	IQUANT	3	Ich Filter
VCHRANGE	IQUANT	2	Vch Range
VCHRANGEMODE	TOGGLE	F	Vch Auto Range
VCHOFFSETENABLE	TOGGLE	T	Vch Offset Enable
VCHOFFSET	QUANT	0	Vch Offset (V)
VCHFILTER	IQUANT	3	Vch Filter
ACHRANGE	IQUANT	2	Ach Range
ACHOFFSETENABLE	TOGGLE	F	Ach Offset Enable
ACHOFFSET	QUANT	0	Ach Offset (V)
ACHFILTER	IQUANT	3	Ach Filter
IERANGELOWERLIMIT	IQUANT	2	I/E Range Lower Limit
IERANGEMODE	TOGGLE	F	I/E AutoRange
IERANGE	IQUANT	11	I/E Range
POSFEEDENABLE	TOGGLE	F	Positive Feedback IR Comp
POSFEEDRESISTANCE	QUANT	0	Positive Feedback Resistance (ohm)
ACHSELECT	IQUANT	0	Ach Select
CABLEID	IQUANT	13	Cable ID
DCCALDATE	LABEL	7/31/2020	DC Calibration Date
ACCALDATE	LABEL	7/31/2020	AC Calibration Date
THERMOSELECT	IQUANT	1	Thermo Select
FRAMEWORKVERSION	QUANT	6.33	Framework Version
INSTRUMENTVERSION	LABEL	3.50	Instrument Version
COMPLIANCEVOLTAGE	IQUANT	0	Compliance Voltage
ZCURVE	TABLE
	Pt	Time	Freq	Zreal	Zimag	Zsig	Zmod	Zphz	Idc	Vdc	IERange
	#	s	Hz	ohm	ohm	V	ohm	°	A	V	#
	0	10	300046.9	4.092701	2.218414	1	4.655272	28.45953	6.080701E-005	1.079275E-005	10
	1	13	238359.4	4.06372	1.780626	1	4.436716	23.66189	-0.0001076	-0.000355	10
	2	16	189328.1	4.048795	1.404825	1	4.285589	19.13542	1.000608E-005	-1.584194E-005	10
	3	19	150421.9	4.043388	1.099694	1	4.190265	15.21491	1.370151E-005	0.000218	10
	4	21	119484.4	4.029428	0.8552175	1	4.119186	11.9828	-1.568669E-006	0.0003244	10
	5	24	94921.88	4.026555	0.668481	1	4.081668	9.426162	-5.853886E-006	0.0004547	10
	6	27	75421.88	4.025891	0.4962482	1	4.056361	7.027071	-2.029943E-006	0.0004955	10
	7	29	59859.37	4.026528	0.349305	1	4.041651	4.958049	6.921656E-006	0.0005534	10
	8	32	47578.12	4.031157	0.2239627	1	4.037373	3.179966	-1.519725E-005	0.0006466	10
	9	34	37828.12	4.035812	0.1107135	1	4.03733	1.571388	-2.288654E-005	0.0006631	10
	10	37	30046.88	4.041385	0.0028218	1	4.041386	0.0400057	6.663161E-006	0.0006189	10
	11	39	23859.38	4.04789	-0.1029719	1	4.049199	-1.457199	1.604394E-005	0.0006437	10
	12	42	18984.38	4.057361	-0.2111036	1	4.062849	-2.978401	6.291609E-006	0.0006921	10
	13	44	15046.87	4.066213	-0.3304833	1	4.079621	-4.646527	-9.4384E-006	0.0006671	10
	14	46	11953.13	4.078723	-0.4643703	1	4.105072	-6.495265	-1.911726E-005	0.0007185	10
	15	49	9515.62	4.092188	-0.6179887	1	4.138588	-8.587727	1.300118E-005	0.0006584	10
	16	51	7546.875	4.108856	-0.8046774	1	4.186908	-11.08055	1.024909E-005	0.000673	10
	17	53	5928.309	4.131692	-1.040328	1	4.260653	-14.13284	2.132161E-005	0.0006816	10
	18	55	4733.456	4.158197	-1.308787	1	4.359304	-17.47132	1.103346E-005	0.0006583	10
	19	58	3796.875	4.190333	-1.630002	1	4.496198	-21.2556	2.272695E-005	0.0006848	10
	20	60	2987.132	4.235237	-2.058988	1	4.70921	-25.927	-2.082655E-005	0.0007039	10
	21	62	2390.625	4.288256	-2.551518	1	4.989928	-30.7527	-1.107027E-005	0.0007203	10
	22	65	1884.191	4.360031	-3.200633	1	5.408689	-36.28183	1.400579E-005	0.0006856	10
	23	67	1516.544	4.444249	-3.93105	1	5.933338	-41.49357	1.420499E-005	0.0006888	10
	24	69	1193.986	4.561604	-4.921872	1	6.710667	-47.17556	2.005714E-005	0.0006718	10
	25	72	946.5144	4.708268	-6.116959	1	7.719131	-52.41426	1.221649E-006	0.0006754	10
	26	74	751.7689	4.895503	-7.584923	1	9.027569	-57.16077	2.112948E-005	0.0006791	10
	27	76	597.4265	5.128328	-9.386375	1	10.69597	-61.34963	-2.640986E-005	0.0006957	10
	28	79	477.4305	5.421504	-11.55131	1	12.76031	-64.8574	-2.16143E-006	0.0006892	10
	29	81	376.6741	5.807778	-14.37244	1	15.50153	-67.9968	-2.664008E-006	0.0006892	10
	30	83	298.2954	6.286375	-17.81043	1	18.88729	-70.55899	-2.880189E-006	0.0006946	10
	31	86	237.7717	6.864163	-21.92548	1	22.97484	-72.61634	-2.208491E-006	0.0006834	10
	32	88	189.0121	7.584188	-27.05121	1	28.09427	-74.33842	-2.301954E-006	0.0006901	10
	33	91	150.2404	8.475569	-33.37771	1	34.437	-75.75208	-1.930995E-006	0.0006893	10
	34	93	119.1737	9.58692	-41.26794	1	42.36688	-76.92164	-2.32212E-006	0.0006978	10
	35	95	95.0169	10.92113	-50.73846	1	51.90051	-77.85278	1.190017E-006	8.392531E-005	9
	36	98	75.60484	12.63601	-62.60421	1	63.8667	-78.58875	1.058976E-006	8.987614E-005	9
	37	100	54.50582	15.96506	-84.62788	1	86.12061	-79.3167	9.119007E-007	8.215386E-005	9
	38	103	45.95588	18.29449	-99.0623	1	100.7374	-79.5367	1.462381E-006	8.096221E-005	9
	39	105	37.20238	21.92372	-120.3498	1	122.3304	-79.67583	1.139517E-006	9.351111E-005	9
	40	108	30.04808	26.79078	-146.567	1	148.9955	-79.64134	1.108011E-006	9.046119E-005	9
	41	110	23.91582	33.65698	-180.4729	1	183.5845	-79.43608	1.004919E-006	8.593108E-005	9
	42	112	18.60119	44.24821	-227.0605	1	231.3317	-78.97274	1.059055E-006	9.385258E-005	9
	43	115	15.02404	56.46391	-275.3685	1	281.0978	-78.4122	1.444832E-006	0.0000975	9
	44	117	12.01923	73.78226	-336.1588	1	344.1606	-77.62066	1.340527E-006	8.885304E-005	9
	45	119	9.450605	99.3881	-415.649	1	427.3665	-76.55219	1.280742E-006	7.64508E-005	9
	46	122	7.512019	132.8235	-504.7223	1	521.9067	-75.25624	7.708064E-007	0.0006725	8
	47	125	5.978954	178.2649	-612.1171	1	637.5466	-73.76302	7.18191E-007	0.0006664	8
	48	128	4.734848	241.648	-741.5134	1	779.8948	-71.94999	8.164761E-007	0.0006919	8
	49	131	3.75601	328.2311	-889.7394	1	948.3522	-69.75063	5.515981E-007	0.0006546	8
	50	134	3.004808	438.1807	-1050.925	1	1138.616	-67.36642	5.653459E-007	0.0006762	8
	51	138	2.372217	592.98	-1236.811	1	1371.615	-64.38496	5.644819E-007	0.0006907	8
	52	142	1.878005	791.9029	-1434.477	1	1638.547	-61.09911	4.712056E-007	0.0006577	8
	53	147	1.512097	1015.226	-1615.938	1	1908.387	-57.86057	5.566839E-007	0.0006129	8
	54	152	1.201923	1305.703	-1798.185	1	2222.236	-54.01575	5.343191E-007	0.0006542	8
	55	159	0.956633	1632.762	-1956.415	1	2548.229	-50.15268	4.176674E-007	2.522754E-005	8
