July 2, 2026   19:38:46
A.C. Impedance
File: e:\chi_data\atp-r0.186-n1.029-fulltemp-fe4b_t-40.7_f0.1_1000000_v0.txt
Data Source:  Experiment
Instrument Model:  CHI660E
Header: 
Note: 

Init E (V) = 0
High Frequency (Hz) = 1e+6
Low Frequency (Hz) = 0.1
Imp SF
Amplitude (V) = 0.005
Quiet Time (sec) = 2
Cycles (.1-1Hz) = 1

Freq/Hz, Z'/ohm, Z"/ohm, Z/ohm, Phase/deg

8.252e+5, 4.961e+1, 9.237e+0, 5.047e+1, 10.5
6.816e+5, 4.970e+1, 6.341e+0, 5.010e+1, 7.3
5.625e+5, 4.934e+1, 5.278e+0, 4.962e+1, 6.1
4.639e+5, 4.964e+1, 3.984e+0, 4.980e+1, 4.6
3.828e+5, 4.990e+1, 3.343e+0, 5.001e+1, 3.8
3.164e+5, 5.022e+1, 2.602e+0, 5.029e+1, 3.0
2.607e+5, 5.034e+1, 2.097e+0, 5.039e+1, 2.4
2.158e+5, 5.045e+1, 1.659e+0, 5.047e+1, 1.9
1.777e+5, 5.059e+1, 1.151e+0, 5.060e+1, 1.3
1.465e+5, 5.072e+1, 7.277e-1, 5.073e+1, 0.8
1.211e+5, 5.078e+1, 1.811e+0, 5.081e+1, 2.0
9.961e+4, 5.082e+1, 3.459e+0, 5.094e+1, 3.9
8.252e+4, 5.089e+1, 4.102e+0, 5.105e+1, 4.6
6.812e+4, 5.097e+1, 3.882e+0, 5.111e+1, 4.4
5.625e+4, 5.105e+1, 3.095e+0, 5.114e+1, 3.5
4.644e+4, 5.115e+1, 2.239e+0, 5.120e+1, 2.5
3.833e+4, 5.126e+1, 1.510e+0, 5.129e+1, 1.7
3.164e+4, 5.140e+1, 9.896e-1, 5.141e+1, 1.1
2.612e+4, 5.157e+1, 6.058e-1, 5.157e+1, 0.7
2.153e+4, 5.172e+1, 2.815e-1, 5.172e+1, 0.3
1.777e+4, 5.188e+1, -2.670e-2, 5.188e+1, -0.0
1.470e+4, 5.202e+1, -3.506e-1, 5.202e+1, -0.4
1.211e+4, 5.216e+1, -6.582e-1, 5.216e+1, -0.7
1.001e+4, 5.232e+1, -9.493e-1, 5.233e+1, -1.0
8.252e+3, 5.250e+1, -1.271e+0, 5.252e+1, -1.4
6.812e+3, 5.269e+1, -1.604e+0, 5.272e+1, -1.7
5.625e+3, 5.289e+1, -1.958e+0, 5.292e+1, -2.1
4.643e+3, 5.310e+1, -2.342e+0, 5.315e+1, -2.5
3.833e+3, 5.332e+1, -2.779e+0, 5.339e+1, -3.0
3.164e+3, 5.356e+1, -3.276e+0, 5.366e+1, -3.5
2.612e+3, 5.383e+1, -3.847e+0, 5.396e+1, -4.1
2.153e+3, 5.411e+1, -4.496e+0, 5.430e+1, -4.7
1.777e+3, 5.442e+1, -5.253e+0, 5.467e+1, -5.5
1.470e+3, 5.475e+1, -6.127e+0, 5.509e+1, -6.4
1.211e+3, 5.512e+1, -7.136e+0, 5.558e+1, -7.4
1.001e+3, 5.551e+1, -8.281e+0, 5.613e+1, -8.5
8.252e+2, 5.595e+1, -9.613e+0, 5.677e+1, -9.7
6.836e+2, 5.644e+1, -1.124e+1, 5.755e+1, -11.3
5.615e+2, 5.698e+1, -1.321e+1, 5.849e+1, -13.1
4.639e+2, 5.759e+1, -1.558e+1, 5.966e+1, -15.1
3.809e+2, 5.828e+1, -1.835e+1, 6.110e+1, -17.5
3.174e+2, 5.905e+1, -2.164e+1, 6.289e+1, -20.1
2.588e+2, 5.994e+1, -2.554e+1, 6.516e+1, -23.1
2.148e+2, 6.097e+1, -3.019e+1, 6.804e+1, -26.3
1.758e+2, 6.214e+1, -3.566e+1, 7.164e+1, -29.8
1.465e+2, 6.344e+1, -4.191e+1, 7.603e+1, -33.5
1.221e+2, 6.500e+1, -4.966e+1, 8.180e+1, -37.4
9.766e+1, 6.699e+1, -5.865e+1, 8.904e+1, -41.2
8.254e+1, 6.933e+1, -6.896e+1, 9.779e+1, -44.8
6.813e+1, 7.190e+1, -8.150e+1, 1.087e+2, -48.6
5.623e+1, 7.469e+1, -9.651e+1, 1.220e+2, -52.3
4.642e+1, 7.795e+1, -1.146e+2, 1.386e+2, -55.8
3.831e+1, 8.186e+1, -1.362e+2, 1.589e+2, -59.0
3.162e+1, 8.643e+1, -1.618e+2, 1.835e+2, -61.9
2.610e+1, 9.184e+1, -1.922e+2, 2.130e+2, -64.5
2.154e+1, 9.826e+1, -2.281e+2, 2.484e+2, -66.7
1.778e+1, 1.059e+2, -2.708e+2, 2.908e+2, -68.6
1.468e+1, 1.150e+2, -3.216e+2, 3.415e+2, -70.3
1.212e+1, 1.262e+2, -3.817e+2, 4.020e+2, -71.7
1.000e+1, 1.399e+2, -4.528e+2, 4.739e+2, -72.8
8.254e+0, 1.564e+2, -5.373e+2, 5.596e+2, -73.8
6.813e+0, 1.760e+2, -6.377e+2, 6.615e+2, -74.6
5.623e+0, 1.992e+2, -7.568e+2, 7.825e+2, -75.2
4.642e+0, 2.268e+2, -8.983e+2, 9.265e+2, -75.8
3.831e+0, 2.605e+2, -1.065e+3, 1.096e+3, -76.3
3.162e+0, 3.009e+2, -1.263e+3, 1.298e+3, -76.6
2.610e+0, 3.494e+2, -1.496e+3, 1.536e+3, -76.9
2.154e+0, 4.031e+2, -1.779e+3, 1.824e+3, -77.2
1.778e+0, 4.662e+2, -2.117e+3, 2.168e+3, -77.6
1.468e+0, 5.470e+2, -2.505e+3, 2.564e+3, -77.7
1.212e+0, 6.509e+2, -2.954e+3, 3.025e+3, -77.6
1.000e+0, 7.838e+2, -3.476e+3, 3.563e+3, -77.3
8.254e-1, 9.454e+2, -4.082e+3, 4.190e+3, -77.0
6.813e-1, 1.136e+3, -4.781e+3, 4.914e+3, -76.6
5.623e-1, 1.359e+3, -5.597e+3, 5.760e+3, -76.3
4.642e-1, 1.621e+3, -6.550e+3, 6.748e+3, -76.1
3.831e-1, 1.929e+3, -7.660e+3, 7.899e+3, -75.9
3.162e-1, 2.289e+3, -8.955e+3, 9.243e+3, -75.7
2.610e-1, 2.710e+3, -1.046e+4, 1.081e+4, -75.5
2.154e-1, 3.199e+3, -1.220e+4, 1.262e+4, -75.3
1.778e-1, 3.760e+3, -1.423e+4, 1.472e+4, -75.2
1.468e-1, 4.384e+3, -1.659e+4, 1.716e+4, -75.2
1.212e-1, 5.094e+3, -1.939e+4, 2.005e+4, -75.3
1.000e-1, 5.904e+3, -2.264e+4, 2.339e+4, -75.4
