July 2, 2026   20:34:47
A.C. Impedance
File: e:\chi_data\atp-r0.186-n1.029-fulltemp-fe4b_t-52.7_f0.1_1000000_v0.txt
Data Source:  Experiment
Instrument Model:  CHI660E
Header: 
Note: 

Init E (V) = 0
High Frequency (Hz) = 1e+6
Low Frequency (Hz) = 0.1
Imp SF
Amplitude (V) = 0.005
Quiet Time (sec) = 2
Cycles (.1-1Hz) = 1

Freq/Hz, Z'/ohm, Z"/ohm, Z/ohm, Phase/deg

8.252e+5, 2.834e+2, -6.899e+1, 2.917e+2, -13.7
6.816e+5, 3.111e+2, -7.596e+1, 3.202e+2, -13.7
5.625e+5, 3.304e+2, -7.567e+1, 3.390e+2, -12.9
4.639e+5, 3.510e+2, -7.369e+1, 3.587e+2, -11.9
3.828e+5, 3.673e+2, -6.859e+1, 3.736e+2, -10.6
3.164e+5, 3.815e+2, -6.265e+1, 3.866e+2, -9.3
2.607e+5, 3.918e+2, -5.582e+1, 3.958e+2, -8.1
2.158e+5, 3.998e+2, -4.918e+1, 4.028e+2, -7.0
1.777e+5, 4.063e+2, -4.392e+1, 4.087e+2, -6.2
1.465e+5, 4.117e+2, -3.914e+1, 4.136e+2, -5.4
1.211e+5, 4.158e+2, -3.382e+1, 4.172e+2, -4.6
9.961e+4, 4.188e+2, -2.858e+1, 4.198e+2, -3.9
8.252e+4, 4.211e+2, -2.383e+1, 4.218e+2, -3.2
6.812e+4, 4.234e+2, -1.984e+1, 4.238e+2, -2.7
5.625e+4, 4.250e+2, -1.667e+1, 4.253e+2, -2.2
4.644e+4, 4.264e+2, -1.440e+1, 4.266e+2, -1.9
3.833e+4, 4.282e+2, -1.295e+1, 4.284e+2, -1.7
3.164e+4, 4.305e+2, -1.237e+1, 4.307e+2, -1.6
2.612e+4, 4.325e+2, -1.170e+1, 4.326e+2, -1.6
2.153e+4, 4.338e+2, -1.055e+1, 4.339e+2, -1.4
1.777e+4, 4.353e+2, -9.631e+0, 4.354e+2, -1.3
1.470e+4, 4.366e+2, -9.051e+0, 4.367e+2, -1.2
1.211e+4, 4.382e+2, -8.457e+0, 4.383e+2, -1.1
1.001e+4, 4.398e+2, -6.668e+0, 4.399e+2, -0.9
8.252e+3, 4.409e+2, -4.397e+0, 4.409e+2, -0.6
6.812e+3, 4.419e+2, -3.595e+0, 4.419e+2, -0.5
5.625e+3, 4.430e+2, -4.035e+0, 4.431e+2, -0.5
4.643e+3, 4.445e+2, -5.142e+0, 4.445e+2, -0.7
3.833e+3, 4.461e+2, -6.403e+0, 4.462e+2, -0.8
3.164e+3, 4.479e+2, -7.743e+0, 4.480e+2, -1.0
2.612e+3, 4.497e+2, -8.944e+0, 4.497e+2, -1.1
2.153e+3, 4.515e+2, -1.019e+1, 4.516e+2, -1.3
1.777e+3, 4.533e+2, -1.147e+1, 4.535e+2, -1.4
1.470e+3, 4.553e+2, -1.283e+1, 4.555e+2, -1.6
1.211e+3, 4.572e+2, -1.427e+1, 4.575e+2, -1.8
1.001e+3, 4.591e+2, -1.562e+1, 4.593e+2, -1.9
8.252e+2, 4.610e+2, -1.701e+1, 4.613e+2, -2.1
6.836e+2, 4.631e+2, -1.903e+1, 4.635e+2, -2.4
5.615e+2, 4.654e+2, -2.164e+1, 4.659e+2, -2.7
4.639e+2, 4.678e+2, -2.489e+1, 4.685e+2, -3.0
3.809e+2, 4.704e+2, -2.876e+1, 4.712e+2, -3.5
3.174e+2, 4.730e+2, -3.326e+1, 4.742e+2, -4.0
2.588e+2, 4.757e+2, -3.846e+1, 4.773e+2, -4.6
2.148e+2, 4.787e+2, -4.452e+1, 4.808e+2, -5.3
1.758e+2, 4.820e+2, -5.146e+1, 4.848e+2, -6.1
1.465e+2, 4.855e+2, -5.935e+1, 4.891e+2, -7.0
1.221e+2, 4.894e+2, -6.879e+1, 4.942e+2, -8.0
9.766e+1, 4.937e+2, -7.842e+1, 4.999e+2, -9.0
8.254e+1, 4.986e+2, -8.935e+1, 5.065e+2, -10.2
6.813e+1, 5.038e+2, -1.040e+2, 5.144e+2, -11.7
5.623e+1, 5.092e+2, -1.224e+2, 5.237e+2, -13.5
4.642e+1, 5.154e+2, -1.450e+2, 5.354e+2, -15.7
3.831e+1, 5.225e+2, -1.717e+2, 5.500e+2, -18.2
3.162e+1, 5.304e+2, -2.030e+2, 5.679e+2, -20.9
2.610e+1, 5.395e+2, -2.400e+2, 5.905e+2, -24.0
2.154e+1, 5.500e+2, -2.838e+2, 6.190e+2, -27.3
1.778e+1, 5.624e+2, -3.359e+2, 6.550e+2, -30.8
1.468e+1, 5.765e+2, -3.976e+2, 7.003e+2, -34.6
1.212e+1, 5.929e+2, -4.709e+2, 7.571e+2, -38.5
1.000e+1, 6.123e+2, -5.588e+2, 8.289e+2, -42.4
8.254e+0, 6.346e+2, -6.646e+2, 9.189e+2, -46.3
6.813e+0, 6.595e+2, -7.910e+2, 1.030e+3, -50.2
5.623e+0, 6.871e+2, -9.418e+2, 1.166e+3, -53.9
4.642e+0, 7.183e+2, -1.124e+3, 1.334e+3, -57.4
3.831e+0, 7.530e+2, -1.337e+3, 1.534e+3, -60.6
3.162e+0, 7.925e+2, -1.593e+3, 1.779e+3, -63.5
2.610e+0, 8.396e+2, -1.896e+3, 2.073e+3, -66.1
2.154e+0, 8.896e+2, -2.278e+3, 2.446e+3, -68.7
1.778e+0, 9.455e+2, -2.741e+3, 2.899e+3, -71.0
1.468e+0, 1.018e+3, -3.253e+3, 3.408e+3, -72.6
1.212e+0, 1.114e+3, -3.831e+3, 3.990e+3, -73.8
1.000e+0, 1.243e+3, -4.501e+3, 4.669e+3, -74.6
8.254e-1, 1.406e+3, -5.282e+3, 5.466e+3, -75.1
6.813e-1, 1.600e+3, -6.198e+3, 6.401e+3, -75.5
5.623e-1, 1.834e+3, -7.280e+3, 7.507e+3, -75.9
4.642e-1, 2.118e+3, -8.553e+3, 8.811e+3, -76.1
3.831e-1, 2.461e+3, -1.005e+4, 1.035e+4, -76.2
3.162e-1, 2.876e+3, -1.182e+4, 1.216e+4, -76.3
2.610e-1, 3.377e+3, -1.389e+4, 1.430e+4, -76.3
2.154e-1, 3.980e+3, -1.633e+4, 1.681e+4, -76.3
1.778e-1, 4.709e+3, -1.918e+4, 1.975e+4, -76.2
1.468e-1, 5.577e+3, -2.253e+4, 2.321e+4, -76.1
1.212e-1, 6.623e+3, -2.644e+4, 2.725e+4, -75.9
1.000e-1, 7.866e+3, -3.090e+4, 3.188e+4, -75.7
