July 2, 2026   20:47:45
A.C. Impedance
File: e:\chi_data\atp-r0.186-n1.029-fulltemp-fe4b_t-55.7_f0.1_1000000_v0.txt
Data Source:  Experiment
Instrument Model:  CHI660E
Header: 
Note: 

Init E (V) = 0
High Frequency (Hz) = 1e+6
Low Frequency (Hz) = 0.1
Imp SF
Amplitude (V) = 0.005
Quiet Time (sec) = 2
Cycles (.1-1Hz) = 1

Freq/Hz, Z'/ohm, Z"/ohm, Z/ohm, Phase/deg

8.252e+5, 3.904e+2, -2.024e+2, 4.398e+2, -27.4
6.816e+5, 4.435e+2, -2.202e+2, 4.951e+2, -26.4
5.625e+5, 4.939e+2, -2.223e+2, 5.416e+2, -24.2
4.639e+5, 5.418e+2, -2.224e+2, 5.857e+2, -22.3
3.828e+5, 5.851e+2, -2.122e+2, 6.224e+2, -19.9
3.164e+5, 6.228e+2, -1.977e+2, 6.534e+2, -17.6
2.607e+5, 6.546e+2, -1.785e+2, 6.785e+2, -15.3
2.158e+5, 6.797e+2, -1.597e+2, 6.982e+2, -13.2
1.777e+5, 7.007e+2, -1.430e+2, 7.151e+2, -11.5
1.465e+5, 7.178e+2, -1.267e+2, 7.289e+2, -10.0
1.211e+5, 7.311e+2, -1.109e+2, 7.395e+2, -8.6
9.961e+4, 7.416e+2, -9.561e+1, 7.478e+2, -7.3
8.252e+4, 7.503e+2, -7.998e+1, 7.546e+2, -6.1
6.812e+4, 7.575e+2, -6.726e+1, 7.605e+2, -5.1
5.625e+4, 7.629e+2, -5.733e+1, 7.650e+2, -4.3
4.644e+4, 7.676e+2, -4.937e+1, 7.692e+2, -3.7
3.833e+4, 7.729e+2, -4.375e+1, 7.741e+2, -3.2
3.164e+4, 7.771e+2, -3.880e+1, 7.781e+2, -2.9
2.612e+4, 7.807e+2, -3.355e+1, 7.814e+2, -2.5
2.153e+4, 7.838e+2, -2.890e+1, 7.843e+2, -2.1
1.777e+4, 7.855e+2, -1.945e+1, 7.858e+2, -1.4
1.470e+4, 7.875e+2, -1.375e+1, 7.876e+2, -1.0
1.211e+4, 7.889e+2, -1.568e+1, 7.891e+2, -1.1
1.001e+4, 7.909e+2, -1.555e+1, 7.911e+2, -1.1
8.252e+3, 7.944e+2, -1.393e+1, 7.946e+2, -1.0
6.812e+3, 7.978e+2, -1.224e+1, 7.979e+2, -0.9
5.625e+3, 8.010e+2, -1.202e+1, 8.011e+2, -0.9
4.643e+3, 8.040e+2, -1.278e+1, 8.041e+2, -0.9
3.833e+3, 8.069e+2, -1.381e+1, 8.070e+2, -1.0
3.164e+3, 8.099e+2, -1.490e+1, 8.100e+2, -1.1
2.612e+3, 8.129e+2, -1.594e+1, 8.130e+2, -1.1
2.153e+3, 8.160e+2, -1.715e+1, 8.161e+2, -1.2
1.777e+3, 8.193e+2, -1.862e+1, 8.195e+2, -1.3
1.470e+3, 8.229e+2, -2.009e+1, 8.232e+2, -1.4
1.211e+3, 8.266e+2, -2.145e+1, 8.269e+2, -1.5
1.001e+3, 8.299e+2, -2.234e+1, 8.302e+2, -1.5
8.252e+2, 8.332e+2, -2.339e+1, 8.335e+2, -1.6
6.836e+2, 8.367e+2, -2.521e+1, 8.371e+2, -1.7
5.615e+2, 8.405e+2, -2.762e+1, 8.410e+2, -1.9
4.639e+2, 8.444e+2, -3.108e+1, 8.450e+2, -2.1
3.809e+2, 8.482e+2, -3.539e+1, 8.490e+2, -2.4
3.174e+2, 8.523e+2, -4.049e+1, 8.532e+2, -2.7
2.588e+2, 8.566e+2, -4.640e+1, 8.578e+2, -3.1
2.148e+2, 8.613e+2, -5.300e+1, 8.629e+2, -3.5
1.758e+2, 8.660e+2, -6.042e+1, 8.681e+2, -4.0
1.465e+2, 8.709e+2, -6.877e+1, 8.736e+2, -4.5
1.221e+2, 8.763e+2, -7.861e+1, 8.799e+2, -5.1
9.766e+1, 8.821e+2, -8.781e+1, 8.864e+2, -5.7
8.254e+1, 8.881e+2, -9.815e+1, 8.936e+2, -6.3
6.813e+1, 8.949e+2, -1.134e+2, 9.020e+2, -7.2
5.623e+1, 9.019e+2, -1.331e+2, 9.116e+2, -8.4
4.642e+1, 9.097e+2, -1.577e+2, 9.232e+2, -9.8
3.831e+1, 9.187e+2, -1.868e+2, 9.375e+2, -11.5
3.162e+1, 9.290e+2, -2.206e+2, 9.548e+2, -13.4
2.610e+1, 9.408e+2, -2.599e+2, 9.760e+2, -15.4
2.154e+1, 9.542e+2, -3.061e+2, 1.002e+3, -17.8
1.778e+1, 9.695e+2, -3.613e+2, 1.035e+3, -20.4
1.468e+1, 9.871e+2, -4.272e+2, 1.076e+3, -23.4
1.212e+1, 1.007e+3, -5.051e+2, 1.127e+3, -26.6
1.000e+1, 1.031e+3, -5.982e+2, 1.192e+3, -30.1
8.254e+0, 1.061e+3, -7.106e+2, 1.277e+3, -33.8
6.813e+0, 1.094e+3, -8.461e+2, 1.383e+3, -37.7
5.623e+0, 1.130e+3, -1.009e+3, 1.515e+3, -41.7
4.642e+0, 1.172e+3, -1.206e+3, 1.682e+3, -45.8
3.831e+0, 1.216e+3, -1.439e+3, 1.884e+3, -49.8
3.162e+0, 1.265e+3, -1.721e+3, 2.136e+3, -53.7
2.610e+0, 1.321e+3, -2.055e+3, 2.443e+3, -57.3
2.154e+0, 1.381e+3, -2.490e+3, 2.847e+3, -61.0
1.778e+0, 1.444e+3, -3.018e+3, 3.346e+3, -64.4
1.468e+0, 1.513e+3, -3.584e+3, 3.890e+3, -67.1
1.212e+0, 1.599e+3, -4.209e+3, 4.503e+3, -69.2
1.000e+0, 1.717e+3, -4.921e+3, 5.212e+3, -70.8
8.254e-1, 1.871e+3, -5.745e+3, 6.042e+3, -72.0
6.813e-1, 2.057e+3, -6.713e+3, 7.021e+3, -73.0
5.623e-1, 2.282e+3, -7.866e+3, 8.190e+3, -73.8
4.642e-1, 2.554e+3, -9.234e+3, 9.581e+3, -74.5
3.831e-1, 2.888e+3, -1.085e+4, 1.123e+4, -75.1
3.162e-1, 3.301e+3, -1.275e+4, 1.317e+4, -75.5
2.610e-1, 3.807e+3, -1.499e+4, 1.547e+4, -75.8
2.154e-1, 4.420e+3, -1.763e+4, 1.818e+4, -75.9
1.778e-1, 5.154e+3, -2.075e+4, 2.138e+4, -76.0
1.468e-1, 6.051e+3, -2.438e+4, 2.512e+4, -76.1
1.212e-1, 7.137e+3, -2.864e+4, 2.951e+4, -76.0
1.000e-1, 8.411e+3, -3.356e+4, 3.459e+4, -75.9
