July 2, 2026   17:37:46
A.C. Impedance
File: e:\chi_data\atp-r0.186-n1.029-fulltemp-fe4b_t-13.8_f0.1_1000000_v0.txt
Data Source:  Experiment
Instrument Model:  CHI660E
Header: 
Note: 

Init E (V) = 0
High Frequency (Hz) = 1e+6
Low Frequency (Hz) = 0.1
Imp SF
Amplitude (V) = 0.005
Quiet Time (sec) = 2
Cycles (.1-1Hz) = 1

Freq/Hz, Z'/ohm, Z"/ohm, Z/ohm, Phase/deg

8.252e+5, 5.191e+0, 1.371e+1, 1.466e+1, 69.3
6.816e+5, 4.619e+0, 1.118e+1, 1.209e+1, 67.5
5.625e+5, 4.107e+0, 9.274e+0, 1.014e+1, 66.1
4.639e+5, 3.835e+0, 7.642e+0, 8.550e+0, 63.4
3.828e+5, 3.663e+0, 6.356e+0, 7.336e+0, 60.0
3.164e+5, 3.559e+0, 5.257e+0, 6.348e+0, 55.9
2.607e+5, 3.464e+0, 4.355e+0, 5.564e+0, 51.5
2.158e+5, 3.392e+0, 3.591e+0, 4.939e+0, 46.6
1.777e+5, 3.344e+0, 2.940e+0, 4.453e+0, 41.3
1.465e+5, 3.311e+0, 2.390e+0, 4.084e+0, 35.8
1.211e+5, 3.281e+0, 1.941e+0, 3.812e+0, 30.6
9.961e+4, 3.266e+0, 1.567e+0, 3.622e+0, 25.6
8.252e+4, 3.259e+0, 1.262e+0, 3.495e+0, 21.2
6.812e+4, 3.261e+0, 1.003e+0, 3.412e+0, 17.1
5.625e+4, 3.267e+0, 7.748e-1, 3.358e+0, 13.3
4.644e+4, 3.272e+0, 5.750e-1, 3.322e+0, 10.0
3.833e+4, 3.281e+0, 3.977e-1, 3.305e+0, 6.9
3.164e+4, 3.294e+0, 2.352e-1, 3.303e+0, 4.1
2.612e+4, 3.309e+0, 8.807e-2, 3.311e+0, 1.5
2.153e+4, 3.328e+0, -4.858e-2, 3.328e+0, -0.8
1.777e+4, 3.344e+0, -1.814e-1, 3.349e+0, -3.1
1.470e+4, 3.361e+0, -3.171e-1, 3.376e+0, -5.4
1.211e+4, 3.381e+0, -4.591e-1, 3.412e+0, -7.7
1.001e+4, 3.405e+0, -6.098e-1, 3.459e+0, -10.2
8.252e+3, 3.434e+0, -7.757e-1, 3.520e+0, -12.7
6.812e+3, 3.468e+0, -9.630e-1, 3.599e+0, -15.5
5.625e+3, 3.508e+0, -1.177e+0, 3.700e+0, -18.5
4.643e+3, 3.554e+0, -1.423e+0, 3.828e+0, -21.8
3.833e+3, 3.605e+0, -1.709e+0, 3.990e+0, -25.4
3.164e+3, 3.666e+0, -2.044e+0, 4.197e+0, -29.1
2.612e+3, 3.738e+0, -2.437e+0, 4.462e+0, -33.1
2.153e+3, 3.822e+0, -2.902e+0, 4.799e+0, -37.2
1.777e+3, 3.920e+0, -3.449e+0, 5.221e+0, -41.3
1.470e+3, 4.034e+0, -4.095e+0, 5.748e+0, -45.4
1.211e+3, 4.168e+0, -4.861e+0, 6.403e+0, -49.4
1.001e+3, 4.329e+0, -5.767e+0, 7.211e+0, -53.1
8.252e+2, 4.522e+0, -6.837e+0, 8.197e+0, -56.5
6.836e+2, 4.750e+0, -8.114e+0, 9.402e+0, -59.7
5.615e+2, 5.021e+0, -9.637e+0, 1.087e+1, -62.5
4.639e+2, 5.345e+0, -1.145e+1, 1.264e+1, -65.0
3.809e+2, 5.728e+0, -1.358e+1, 1.474e+1, -67.1
3.174e+2, 6.184e+0, -1.611e+1, 1.725e+1, -69.0
2.588e+2, 6.747e+0, -1.913e+1, 2.029e+1, -70.6
2.148e+2, 7.441e+0, -2.276e+1, 2.395e+1, -71.9
1.758e+2, 8.265e+0, -2.703e+1, 2.826e+1, -73.0
1.465e+2, 9.223e+0, -3.190e+1, 3.321e+1, -73.9
1.221e+2, 1.045e+1, -3.793e+1, 3.934e+1, -74.6
9.766e+1, 1.204e+1, -4.496e+1, 4.654e+1, -75.0
8.254e+1, 1.394e+1, -5.298e+1, 5.478e+1, -75.3
6.813e+1, 1.616e+1, -6.256e+1, 6.461e+1, -75.5
5.623e+1, 1.877e+1, -7.386e+1, 7.620e+1, -75.7
4.642e+1, 2.187e+1, -8.726e+1, 8.996e+1, -75.9
3.831e+1, 2.565e+1, -1.031e+2, 1.062e+2, -76.0
3.162e+1, 3.020e+1, -1.216e+2, 1.253e+2, -76.1
2.610e+1, 3.567e+1, -1.436e+2, 1.479e+2, -76.0
2.154e+1, 4.221e+1, -1.694e+2, 1.746e+2, -76.0
1.778e+1, 5.005e+1, -1.996e+2, 2.058e+2, -75.9
1.468e+1, 5.956e+1, -2.348e+2, 2.423e+2, -75.8
1.212e+1, 7.067e+1, -2.761e+2, 2.850e+2, -75.6
1.000e+1, 8.412e+1, -3.244e+2, 3.351e+2, -75.5
8.254e+0, 1.003e+2, -3.809e+2, 3.939e+2, -75.2
6.813e+0, 1.190e+2, -4.471e+2, 4.626e+2, -75.1
5.623e+0, 1.404e+2, -5.244e+2, 5.429e+2, -75.0
4.642e+0, 1.650e+2, -6.153e+2, 6.370e+2, -75.0
3.831e+0, 1.936e+2, -7.216e+2, 7.471e+2, -75.0
3.162e+0, 2.259e+2, -8.478e+2, 8.774e+2, -75.1
2.610e+0, 2.628e+2, -9.967e+2, 1.031e+3, -75.2
2.154e+0, 3.012e+2, -1.177e+3, 1.215e+3, -75.7
1.778e+0, 3.427e+2, -1.394e+3, 1.435e+3, -76.2
1.468e+0, 3.942e+2, -1.646e+3, 1.693e+3, -76.5
1.212e+0, 4.591e+2, -1.942e+3, 1.996e+3, -76.7
1.000e+0, 5.379e+2, -2.275e+3, 2.337e+3, -76.7
8.254e-1, 6.302e+2, -2.650e+3, 2.724e+3, -76.6
6.813e-1, 7.355e+2, -3.089e+3, 3.176e+3, -76.6
5.623e-1, 8.550e+2, -3.613e+3, 3.713e+3, -76.7
4.642e-1, 9.949e+2, -4.242e+3, 4.357e+3, -76.8
3.831e-1, 1.163e+3, -4.985e+3, 5.119e+3, -76.9
3.162e-1, 1.369e+3, -5.859e+3, 6.017e+3, -76.8
2.610e-1, 1.621e+3, -6.888e+3, 7.077e+3, -76.8
2.154e-1, 1.931e+3, -8.096e+3, 8.324e+3, -76.6
1.778e-1, 2.312e+3, -9.506e+3, 9.783e+3, -76.3
1.468e-1, 2.767e+3, -1.112e+4, 1.146e+4, -76.0
1.212e-1, 3.354e+3, -1.304e+4, 1.346e+4, -75.6
1.000e-1, 4.101e+3, -1.529e+4, 1.583e+4, -75.0
