EXPLAIN
TAG	EISPOT
TITLE	LABEL	Potentiostatic EIS	Test Identifier
DATE	LABEL	8/5/2020	Date
TIME	LABEL	23:50:11	Time
NOTES	NOTES	1	Notes...
	
PSTAT	PSTAT	REF3000-16137	Potentiostat
VDC	POTEN	0.00000E+000	T	DC Voltage (V)
FREQINIT	QUANT	3.00000E+005	Initial Freq. (Hz)
FREQFINAL	QUANT	1.00000E+000	Final Freq. (Hz)
PTSPERDEC	QUANT	1.00000E+001	Points/decade
VAC	QUANT	5.00000E+001	AC Voltage (mV rms)
AREA	QUANT	1.00000E+000	Sample Area (cm^2)
SPEED	SELECTOR	2	Optimize for:
ZGUESS	QUANT	1.00000E+003	Estimated Z (ohms)
EOC	QUANT	0	Open Circuit (V)
SEQUENCER	TOGGLE	TRUE	Run as Sequence
PSTATMODEL	IQUANT	5	Pstat Model
PSTATSECTION	LABEL	REF3000-16137	Pstat Section
PSTATSERIALNO	LABEL	16137	Pstat Serial Number
CTRLMODE	IQUANT	1	Control Mode
IESTAB	IQUANT	0	I/E Stability
CASPEED	IQUANT	1	Control Amp Speed
CONVENTION	IQUANT	1	Current Convention
ICHRANGE	IQUANT	2	Ich Range
ICHRANGEMODE	TOGGLE	F	Ich Auto Range
ICHOFFSETENABLE	TOGGLE	T	Ich Offset Enable
ICHOFFSET	QUANT	0	Ich Offset (V)
ICHFILTER	IQUANT	3	Ich Filter
VCHRANGE	IQUANT	2	Vch Range
VCHRANGEMODE	TOGGLE	F	Vch Auto Range
VCHOFFSETENABLE	TOGGLE	T	Vch Offset Enable
VCHOFFSET	QUANT	0	Vch Offset (V)
VCHFILTER	IQUANT	3	Vch Filter
ACHRANGE	IQUANT	2	Ach Range
ACHOFFSETENABLE	TOGGLE	F	Ach Offset Enable
ACHOFFSET	QUANT	0	Ach Offset (V)
ACHFILTER	IQUANT	3	Ach Filter
IERANGELOWERLIMIT	IQUANT	2	I/E Range Lower Limit
IERANGEMODE	TOGGLE	F	I/E AutoRange
IERANGE	IQUANT	11	I/E Range
POSFEEDENABLE	TOGGLE	F	Positive Feedback IR Comp
POSFEEDRESISTANCE	QUANT	0	Positive Feedback Resistance (ohm)
ACHSELECT	IQUANT	0	Ach Select
CABLEID	IQUANT	13	Cable ID
DCCALDATE	LABEL	7/31/2020	DC Calibration Date
ACCALDATE	LABEL	7/31/2020	AC Calibration Date
THERMOSELECT	IQUANT	1	Thermo Select
FRAMEWORKVERSION	QUANT	6.33	Framework Version
INSTRUMENTVERSION	LABEL	3.50	Instrument Version
COMPLIANCEVOLTAGE	IQUANT	0	Compliance Voltage
ZCURVE	TABLE
	Pt	Time	Freq	Zreal	Zimag	Zsig	Zmod	Zphz	Idc	Vdc	IERange
	#	s	Hz	ohm	ohm	V	ohm	°	A	V	#
	0	10	300046.9	6.328142	1.210404	1	6.442861	10.82836	9.389713E-007	0.0001471	10
	1	13	238359.4	6.318599	0.9421626	1	6.388456	8.480855	2.356201E-005	-2.554786E-005	10
	2	16	189328.1	6.321915	0.730179	1	6.363943	6.588449	4.074868E-005	0.0002828	10
	3	19	150421.9	6.32634	0.5609025	1	6.351156	5.066679	-2.808117E-005	0.0003552	10
	4	21	119484.4	6.346672	0.4143837	1	6.360186	3.735625	-4.917936E-005	0.0006096	10
	5	24	94921.88	6.362851	0.3137861	1	6.370584	2.823273	2.433501E-005	0.0005295	10
	6	27	75421.88	6.375689	0.200746	1	6.378848	1.803429	2.200242E-005	0.0005532	10
	7	29	59859.37	6.391438	0.0992612	1	6.392208	0.8897517	-2.268618E-005	0.0005984	10
	8	32	47578.12	6.411619	0.0066896	1	6.411622	0.0597801	-1.960713E-005	0.000666	10
	9	34	37828.12	6.434168	-0.0810518	1	6.434679	-0.7217219	-1.477192E-005	0.0006931	10
	10	37	30046.88	6.463534	-0.1683538	1	6.465726	-1.49203	-7.37249E-006	0.0006611	10
	11	39	23859.38	6.491709	-0.2593664	1	6.496889	-2.287949	-2.677063E-005	0.0007097	10
	12	42	18984.38	6.52057	-0.3575886	1	6.530367	-3.138961	-3.910764E-006	0.0006353	10
	13	44	15046.87	6.553781	-0.4709126	1	6.570678	-4.109844	2.026075E-005	0.0006349	10
	14	46	11953.13	6.589484	-0.6004068	1	6.61678	-5.206182	-1.233504E-005	0.000652	10
	15	48	9515.62	6.631515	-0.7501938	1	6.673813	-6.454178	2.055912E-005	0.0006453	10
	16	51	7546.875	6.683337	-0.9331268	1	6.748164	-7.948249	2.009356E-005	0.0006801	10
	17	53	5928.309	6.746733	-1.162087	1	6.846083	-9.77298	-2.61527E-005	0.0006967	10
	18	55	4733.456	6.81825	-1.420023	1	6.964553	-11.7647	1.945842E-005	0.0006413	10
	19	58	3796.875	6.903185	-1.722416	1	7.114821	-14.00983	-2.090468E-005	0.0007074	10
	20	60	2987.132	6.98132	-2.115598	1	7.294833	-16.85875	-2.378493E-005	0.0006815	10
	21	62	2390.625	7.096398	-2.56458	1	7.545591	-19.86944	-2.054068E-005	0.0006661	10
	22	65	1884.191	7.251209	-3.143346	1	7.903206	-23.43638	-1.27999E-005	0.0006887	10
	23	67	1516.544	7.419422	-3.781904	1	8.327702	-27.00932	1.695082E-005	0.0006613	10
	24	69	1193.986	7.643231	-4.631028	1	8.936745	-31.21164	5.359062E-006	0.0006428	10
	25	72	946.5144	7.905023	-5.634098	1	9.70734	-35.47837	1.403224E-005	0.0006331	10
	26	74	751.7689	8.213106	-6.85068	1	10.69518	-39.83201	1.367605E-005	0.0006348	10
	27	76	597.4265	8.579185	-8.328257	1	11.95668	-44.14972	-2.056272E-005	0.000685	10
	28	79	477.4305	9.013014	-10.07023	1	13.51458	-48.17096	-1.119869E-006	0.0006754	10
	29	81	376.6741	9.56139	-12.31848	1	15.59375	-52.182	-1.138773E-007	0.000672	10
	30	83	298.2954	10.2141	-15.03208	1	18.17392	-55.80442	-3.621527E-007	0.0006704	10
	31	86	237.7717	10.9819	-18.24736	1	21.29714	-58.95899	-3.057295E-007	0.0006736	10
	32	88	189.0121	11.92991	-22.2236	1	25.22323	-61.77254	-1.36062E-006	0.0006774	10
	33	91	150.2404	13.09677	-27.07466	1	30.07594	-64.18564	-1.783286E-007	0.0006769	10
	34	93	119.1737	14.54818	-33.06385	1	36.12295	-66.25037	-5.748818E-007	0.0006734	10
	35	95	95.0169	16.29407	-40.14264	1	43.32353	-67.90755	3.501211E-006	7.125284E-005	9
	36	98	75.60484	18.51088	-48.89736	1	52.28388	-69.26504	3.487372E-006	7.238415E-005	9
	37	100	54.50582	22.70355	-64.80455	1	68.66645	-70.69266	3.513248E-006	7.247572E-005	9
	38	103	45.95588	25.54132	-75.12166	1	79.34496	-71.22199	3.233177E-006	0.0001247	9
	39	105	37.20238	29.81982	-90.07433	1	94.88207	-71.68246	3.58307E-006	8.18996E-005	9
	40	108	30.04808	35.33291	-108.1762	1	113.8003	-71.91174	3.660016E-006	7.132062E-005	9
	41	110	23.91582	42.89902	-131.4854	1	138.3067	-71.93033	3.687357E-006	7.488437E-005	9
	42	112	18.60119	54.00772	-162.8428	1	171.5652	-71.65161	3.349494E-006	7.326706E-005	9
	43	115	15.02404	66.55515	-194.7496	1	205.8081	-71.13227	3.77563E-006	8.335814E-005	9
	44	117	12.01923	83.73746	-234.2192	1	248.738	-70.32714	3.488545E-006	7.368369E-005	9
	45	120	9.450605	108.6134	-284.6447	1	304.6629	-69.11436	3.796125E-006	7.478064E-005	9
	46	122	7.512019	140.6247	-340.9153	1	368.7798	-67.58427	3.795015E-006	8.892447E-005	9
	47	125	5.978954	181.8313	-403.1328	1	442.2428	-65.72245	2.161426E-006	0.0006492	8
	48	128	4.734848	238.8161	-476.0309	1	532.5773	-63.35791	2.203367E-006	0.0006773	8
	49	131	3.75601	312.3088	-554.8192	1	636.6798	-60.62475	2.196954E-006	0.0006455	8
	50	134	3.004808	402.1545	-634.0371	1	750.8204	-57.61403	2.260143E-006	0.0006727	8
	51	138	2.372217	521.5845	-715.6539	1	885.5568	-53.9146	2.323742E-006	0.0007141	8
	52	142	1.878005	663.2036	-787.7485	1	1029.751	-49.90606	2.292187E-006	0.0006353	8
	53	147	1.512097	812.5664	-846.8546	1	1173.638	-46.18372	2.392167E-006	0.0006651	8
	54	153	1.201923	993.167	-892.8276	1	1335.486	-41.95461	2.313788E-006	0.0006236	8
	55	159	0.956633	1183.948	-918.2483	1	1498.303	-37.79649	2.04686E-006	1.400701E-005	8
