EXPLAIN
TAG	EISPOT
TITLE	LABEL	Potentiostatic EIS	Test Identifier
DATE	LABEL	8/6/2020	Date
TIME	LABEL	0:19:13	Time
NOTES	NOTES	1	Notes...
	
PSTAT	PSTAT	REF3000-16137	Potentiostat
VDC	POTEN	0.00000E+000	T	DC Voltage (V)
FREQINIT	QUANT	3.00000E+005	Initial Freq. (Hz)
FREQFINAL	QUANT	1.00000E+000	Final Freq. (Hz)
PTSPERDEC	QUANT	1.00000E+001	Points/decade
VAC	QUANT	5.00000E+001	AC Voltage (mV rms)
AREA	QUANT	1.00000E+000	Sample Area (cm^2)
SPEED	SELECTOR	2	Optimize for:
ZGUESS	QUANT	1.00000E+003	Estimated Z (ohms)
EOC	QUANT	0	Open Circuit (V)
SEQUENCER	TOGGLE	TRUE	Run as Sequence
PSTATMODEL	IQUANT	5	Pstat Model
PSTATSECTION	LABEL	REF3000-16137	Pstat Section
PSTATSERIALNO	LABEL	16137	Pstat Serial Number
CTRLMODE	IQUANT	1	Control Mode
IESTAB	IQUANT	0	I/E Stability
CASPEED	IQUANT	1	Control Amp Speed
CONVENTION	IQUANT	1	Current Convention
ICHRANGE	IQUANT	2	Ich Range
ICHRANGEMODE	TOGGLE	F	Ich Auto Range
ICHOFFSETENABLE	TOGGLE	T	Ich Offset Enable
ICHOFFSET	QUANT	0	Ich Offset (V)
ICHFILTER	IQUANT	3	Ich Filter
VCHRANGE	IQUANT	2	Vch Range
VCHRANGEMODE	TOGGLE	F	Vch Auto Range
VCHOFFSETENABLE	TOGGLE	T	Vch Offset Enable
VCHOFFSET	QUANT	0	Vch Offset (V)
VCHFILTER	IQUANT	3	Vch Filter
ACHRANGE	IQUANT	2	Ach Range
ACHOFFSETENABLE	TOGGLE	F	Ach Offset Enable
ACHOFFSET	QUANT	0	Ach Offset (V)
ACHFILTER	IQUANT	3	Ach Filter
IERANGELOWERLIMIT	IQUANT	2	I/E Range Lower Limit
IERANGEMODE	TOGGLE	F	I/E AutoRange
IERANGE	IQUANT	11	I/E Range
POSFEEDENABLE	TOGGLE	F	Positive Feedback IR Comp
POSFEEDRESISTANCE	QUANT	0	Positive Feedback Resistance (ohm)
ACHSELECT	IQUANT	0	Ach Select
CABLEID	IQUANT	13	Cable ID
DCCALDATE	LABEL	7/31/2020	DC Calibration Date
ACCALDATE	LABEL	7/31/2020	AC Calibration Date
THERMOSELECT	IQUANT	1	Thermo Select
FRAMEWORKVERSION	QUANT	6.33	Framework Version
INSTRUMENTVERSION	LABEL	3.50	Instrument Version
COMPLIANCEVOLTAGE	IQUANT	0	Compliance Voltage
ZCURVE	TABLE
	Pt	Time	Freq	Zreal	Zimag	Zsig	Zmod	Zphz	Idc	Vdc	IERange
	#	s	Hz	ohm	ohm	V	ohm	°	A	V	#
	0	17	300046.9	1577.788	-2573.11	1	3018.329	-58.48407	2.31235E-005	-0.0010753	9
	1	31	238359.4	2001.381	-3090.211	1	3681.702	-57.07082	2.753715E-005	-0.0016666	9
	2	49	189328.1	2479.958	-3723.546	1	4473.811	-56.33557	1.914696E-005	-0.0021197	9
	3	58	150421.9	3143.682	-4283.742	1	5313.491	-53.72642	7.974909E-005	-0.0015156	9
	4	66	119484.4	3924.295	-4959.429	1	6324.241	-51.64615	2.453366E-007	-0.0018532	9
	5	76	94921.88	5144.373	-5487.492	1	7521.778	-46.84845	-2.647428E-005	0.0077967	8
	6	84	75421.88	6204.942	-6410.007	1	8921.295	-45.9313	-2.66106E-005	0.0006964	9
	7	92	59859.37	7812.786	-7098.477	1	10555.95	-42.2574	9.412044E-006	0.0038183	8
	8	101	47578.12	10752.11	-7031.278	1	12847.05	-33.18243	6.925389E-006	-0.0166781	7
	9	107	37828.12	12419.26	-7360.134	1	14436.4	-30.65262	-4.874221E-006	0.0030883	7
	10	112	30046.88	14301.03	-7733.766	1	16258.24	-28.40381	-6.127153E-006	0.023962	7
	11	118	23859.38	16259.51	-7941.558	1	18095.3	-26.03206	-6.136886E-006	0.0240365	7
	12	123	18984.38	18112.68	-7877.065	1	19751.39	-23.50385	5.105991E-006	-0.0252944	7
	13	127	15046.87	20164.17	-7732.955	1	21596.12	-20.98181	-5.030048E-006	0.003303	7
	14	131	11953.13	22370.01	-7352.305	1	23547.26	-18.19404	-3.642075E-006	0.0242393	7
	15	135	9515.62	24393.66	-7047.884	1	25391.41	-16.11521	2.418745E-006	0.0082334	7
	16	140	7546.875	26915.19	-7527.353	1	27947.96	-15.62468	-1.923198E-005	0.0113008	8
	17	146	5928.309	30567.85	-6775.564	1	31309.77	-12.49792	2.374976E-005	-0.0030412	8
	18	154	4733.456	34419.71	-8146.205	1	35370.57	-13.31534	7.493593E-006	-0.007597	8
	19	161	3796.875	36604.75	-6720.031	1	37216.48	-10.40273	2.611841E-006	0.0083622	7
	20	167	2987.132	42956.51	-6038.822	1	43378.9	-8.002195	-2.678931E-005	0.0078556	8
	21	173	2390.625	40482.61	-6526.652	1	41005.35	-9.158483	2.641904E-005	-0.0092008	8
	22	179	1884.191	48217.44	-4477.553	1	48424.89	-5.305368	-1.40209E-006	0.0076209	8
	23	186	1516.544	52537.27	-5916.605	1	52869.38	-6.425423	-5.18403E-006	0.0035949	7
	24	191	1193.986	56318.5	-6288.38	1	56668.49	-6.371111	6.424143E-006	-0.0098838	7
	25	197	946.5144	62101.7	-5342.383	1	62331.07	-4.916842	-7.034253E-006	0.0229483	7
	26	201	751.7689	67356.09	-4559.221	1	67510.21	-3.872349	1.14658E-006	-0.0191502	7
	27	204	597.4265	68177.39	-729.7325	1	68181.3	-0.6132385	-3.420567E-006	-0.0045836	7
	28	208	477.4305	70669.98	-3524.858	1	70757.84	-2.855417	-1.006777E-007	0.0007	7
	29	211	376.6741	73265.02	-2181	1	73297.47	-1.705114	-1.245466E-008	0.0006696	6
	30	214	298.2954	75651.53	-1960.847	1	75676.94	-1.484743	-1.192419E-008	0.0006481	6
	31	216	237.7717	78289.65	-1739.034	1	78308.96	-1.272492	-1.143166E-008	0.0006989	6
	32	219	189.0121	80959.6	-1577.925	1	80974.98	-1.116569	-1.261544E-008	0.0007048	6
	33	221	150.2404	83666.6	-1417.771	1	83678.61	-0.970812	-1.268503E-008	0.0006987	6
	34	224	119.1737	86481.38	-1665.82	1	86497.41	-1.103505	-1.212116E-008	0.0006688	6
	35	226	95.0169	89595.36	-1286.878	1	89604.6	-0.8228953	-1.297549E-008	0.0007172	6
	36	228	75.60484	92750.95	-1248.247	1	92759.34	-0.7710431	-1.291036E-008	0.0007028	6
	37	231	54.50582	96151	-1327.337	1	96160.1	-0.790902	-1.164736E-008	0.0006387	6
	38	233	45.95588	99507.8	-1289.558	1	99516.2	-0.742475	-1.354777E-008	0.0006697	6
	39	236	37.20238	102691.1	-1380.866	1	102700.4	-0.770398	-9.099989E-009	0.0006608	6
	40	238	30.04808	106329.2	-1488.023	1	106339.6	-0.8017732	-1.434366E-008	0.0007535	6
	41	241	23.91582	110039.5	-1668.722	1	110052.2	-0.8688096	-1.448567E-008	0.0006568	6
	42	243	18.60119	113732	-1931.373	1	113748.4	-0.972891	-1.13523E-008	0.0006644	6
	43	245	15.02404	117467.1	-2219.751	1	117488.1	-1.082577	-7.769169E-009	0.0007207	6
	44	247	12.01923	121554.4	-2544.37	1	121581	-1.199137	-1.640098E-008	0.0007146	6
	45	250	9.450605	125940.4	-3152.69	1	125979.8	-1.433997	-4.199283E-009	0.0006379	6
	46	252	7.512019	130917.6	-3794.258	1	130972.5	-1.660084	-8.729502E-009	0.0006682	6
	47	255	5.978954	136560.1	-4635.767	1	136638.8	-1.944256	-5.233247E-009	0.0006341	6
	48	258	4.734848	143075.6	-5668.694	1	143187.8	-2.268888	-5.638798E-009	0.0007387	6
	49	261	3.75601	150571.8	-6975.49	1	150733.3	-2.652426	-1.605647E-008	0.0006739	6
	50	265	3.004808	159038.5	-8499.504	1	159265.5	-3.05915	-1.766226E-008	0.0007235	6
	51	269	2.372217	168624.9	-10331.09	1	168941.1	-3.505942	-1.506937E-008	0.0007234	6
	52	273	1.878005	180633.5	-12849.69	1	181089.9	-4.068985	-1.715517E-008	0.0006574	6
	53	278	1.512097	195267.3	-15529.6	1	195883.9	-4.54716	-1.590145E-008	0.0006575	6
	54	283	1.201923	213028.7	-19162.87	1	213888.9	-5.140171	-1.216489E-008	0.0006414	6
	55	289	0.956633	235660.3	-23720.26	1	236851	-5.747717	-1.689728E-008	2.655528E-005	6
