EXPLAIN
TAG	EISPOT
TITLE	LABEL	Potentiostatic EIS	Test Identifier
DATE	LABEL	8/6/2020	Date
TIME	LABEL	0:01:18	Time
NOTES	NOTES	1	Notes...
	
PSTAT	PSTAT	REF3000-16137	Potentiostat
VDC	POTEN	0.00000E+000	T	DC Voltage (V)
FREQINIT	QUANT	3.00000E+005	Initial Freq. (Hz)
FREQFINAL	QUANT	1.00000E+000	Final Freq. (Hz)
PTSPERDEC	QUANT	1.00000E+001	Points/decade
VAC	QUANT	5.00000E+001	AC Voltage (mV rms)
AREA	QUANT	1.00000E+000	Sample Area (cm^2)
SPEED	SELECTOR	2	Optimize for:
ZGUESS	QUANT	1.00000E+003	Estimated Z (ohms)
EOC	QUANT	0	Open Circuit (V)
SEQUENCER	TOGGLE	TRUE	Run as Sequence
PSTATMODEL	IQUANT	5	Pstat Model
PSTATSECTION	LABEL	REF3000-16137	Pstat Section
PSTATSERIALNO	LABEL	16137	Pstat Serial Number
CTRLMODE	IQUANT	1	Control Mode
IESTAB	IQUANT	0	I/E Stability
CASPEED	IQUANT	1	Control Amp Speed
CONVENTION	IQUANT	1	Current Convention
ICHRANGE	IQUANT	2	Ich Range
ICHRANGEMODE	TOGGLE	F	Ich Auto Range
ICHOFFSETENABLE	TOGGLE	T	Ich Offset Enable
ICHOFFSET	QUANT	0	Ich Offset (V)
ICHFILTER	IQUANT	3	Ich Filter
VCHRANGE	IQUANT	2	Vch Range
VCHRANGEMODE	TOGGLE	F	Vch Auto Range
VCHOFFSETENABLE	TOGGLE	T	Vch Offset Enable
VCHOFFSET	QUANT	0	Vch Offset (V)
VCHFILTER	IQUANT	3	Vch Filter
ACHRANGE	IQUANT	2	Ach Range
ACHOFFSETENABLE	TOGGLE	F	Ach Offset Enable
ACHOFFSET	QUANT	0	Ach Offset (V)
ACHFILTER	IQUANT	3	Ach Filter
IERANGELOWERLIMIT	IQUANT	2	I/E Range Lower Limit
IERANGEMODE	TOGGLE	F	I/E AutoRange
IERANGE	IQUANT	11	I/E Range
POSFEEDENABLE	TOGGLE	F	Positive Feedback IR Comp
POSFEEDRESISTANCE	QUANT	0	Positive Feedback Resistance (ohm)
ACHSELECT	IQUANT	0	Ach Select
CABLEID	IQUANT	13	Cable ID
DCCALDATE	LABEL	7/31/2020	DC Calibration Date
ACCALDATE	LABEL	7/31/2020	AC Calibration Date
THERMOSELECT	IQUANT	1	Thermo Select
FRAMEWORKVERSION	QUANT	6.33	Framework Version
INSTRUMENTVERSION	LABEL	3.50	Instrument Version
COMPLIANCEVOLTAGE	IQUANT	0	Compliance Voltage
ZCURVE	TABLE
	Pt	Time	Freq	Zreal	Zimag	Zsig	Zmod	Zphz	Idc	Vdc	IERange
	#	s	Hz	ohm	ohm	V	ohm	°	A	V	#
	0	8	300046.9	16.90651	1.040505	1	16.9385	3.521806	-5.918669E-005	0.0004315	10
	1	11	238359.4	17.01441	0.7933747	1	17.0329	2.669744	-8.760149E-005	0.0004374	10
	2	14	189328.1	17.12962	0.6054343	1	17.14031	2.024237	-5.502804E-005	0.0005637	10
	3	17	150421.9	17.24622	0.4469206	1	17.25201	1.484438	-3.456364E-005	0.0005013	10
	4	20	119484.4	17.34492	0.3095814	1	17.34768	1.022537	-0.0001049	0.000646	10
	5	22	94921.88	17.45086	0.2077369	1	17.4521	0.6820228	2.547069E-005	0.0005926	10
	6	25	75421.88	17.56618	0.0926277	1	17.56642	0.3021221	-1.057991E-005	0.0006315	10
	7	27	59859.37	17.68376	-0.0124376	1	17.68376	-0.0402981	2.066212E-005	0.0005886	10
	8	30	47578.12	17.80617	-0.1109043	1	17.80652	-0.3568575	-2.320623E-005	0.000653	10
	9	32	37828.12	17.92805	-0.2120491	1	17.92931	-0.6776502	-3.180119E-005	0.0006537	10
	10	35	30046.88	18.05359	-0.3191642	1	18.05641	-1.01281	-1.060293E-005	0.0006517	10
	11	37	23859.38	18.18305	-0.4410362	1	18.1884	-1.389457	1.905052E-005	0.0006861	10
	12	40	18984.38	18.3117	-0.5770314	1	18.32078	-1.804886	9.43178E-006	0.0007002	10
	13	42	15046.87	18.44637	-0.7333496	1	18.46095	-2.276639	-2.529275E-005	0.0007123	10
	14	44	11953.13	18.58895	-0.9279019	1	18.61209	-2.857654	4.836052E-006	0.0006387	10
	15	47	9515.62	18.7394	-1.152103	1	18.77478	-3.51813	-2.420142E-005	0.0007031	10
	16	49	7546.875	18.90329	-1.425891	1	18.95699	-4.3137	-1.926198E-005	0.0006561	10
	17	51	5928.309	19.08905	-1.774579	1	19.17136	-5.311132	-2.226719E-005	0.0007107	10
	18	53	4733.456	19.28422	-2.167428	1	19.40564	-6.412781	-1.827455E-005	0.000669	10
	19	56	3796.875	19.495	-2.639377	1	19.67285	-7.710248	1.853417E-005	0.0006938	10
	20	58	2987.132	19.73972	-3.251681	1	20.00575	-9.354202	2.14441E-005	0.0006582	10
	21	60	2390.625	20.006	-3.956466	1	20.39347	-11.18669	2.467354E-005	0.0006275	10
	22	63	1884.191	20.32487	-4.871576	1	20.90054	-13.47869	-1.21719E-005	0.0006545	10
	23	65	1516.544	20.66005	-5.888547	1	21.48285	-15.90866	2.510791E-005	0.000632	10
	24	67	1193.986	21.09396	-7.252793	1	22.30601	-18.97465	5.530949E-006	0.0006226	10
	25	70	946.5144	21.5836	-8.878699	1	23.33845	-22.36046	2.714525E-005	0.0006621	10
	26	72	751.7689	22.15881	-10.84284	1	24.66941	-26.07362	-1.594648E-005	0.0007027	10
	27	74	597.4265	22.83422	-13.20431	1	26.37717	-30.03943	-1.728651E-005	0.0006689	10
	28	77	477.4305	23.60983	-16.02439	1	28.53428	-34.16541	-1.349464E-006	0.0006786	10
	29	79	376.6741	24.57108	-19.64089	1	31.45635	-38.63709	-1.117544E-006	0.0006714	10
	30	81	298.2954	25.69162	-23.99177	1	35.15202	-43.04047	-9.975811E-007	0.0006771	10
	31	84	237.7717	26.95069	-29.10995	1	39.67025	-47.20575	1.678034E-006	0.0001185	9
	32	86	189.0121	28.47325	-35.45844	1	45.47556	-51.23542	2.037099E-006	7.807172E-005	9
	33	89	150.2404	30.2585	-43.21044	1	52.75148	-54.99802	2.0617E-006	7.20758E-005	9
	34	91	119.1737	32.36877	-52.80211	1	61.93384	-58.49086	2.110041E-006	7.050345E-005	9
	35	93	95.0169	34.7916	-64.28803	1	73.09861	-61.5785	2.092283E-006	7.083996E-005	9
	36	96	75.60484	37.67537	-78.50828	1	87.08033	-64.3641	2.011868E-006	7.048605E-005	9
	37	98	54.50582	42.6829	-104.6207	1	112.9925	-67.80563	2.058388E-006	7.057181E-005	9
	38	101	45.95588	45.944	-121.7585	1	130.1383	-69.32664	2.155529E-006	7.599348E-005	9
	39	103	37.20238	50.57362	-146.8982	1	155.3601	-71.00261	2.13094E-006	7.111877E-005	9
	40	106	30.04808	56.19639	-177.7605	1	186.4319	-72.45641	2.064897E-006	7.093618E-005	9
	41	108	23.91582	63.45206	-218.0152	1	227.0612	-73.77267	1.627993E-006	0.0001203	9
	42	110	18.60119	73.27219	-273.0502	1	282.7105	-74.97874	1.992574E-006	8.139178E-005	9
	43	113	15.02404	83.51687	-330.8321	1	341.211	-75.83199	2.089934E-006	6.165247E-005	9
	44	115	12.01923	96.8105	-404.3307	1	415.7591	-76.53493	2.074282E-006	5.861887E-005	9
	45	118	9.450605	114.0047	-500.0175	1	512.8494	-77.15604	3.883662E-007	0.0006478	8
	46	120	7.512019	135.1664	-614.7191	1	629.4041	-77.59896	4.024313E-007	0.0006454	8
	47	123	5.978954	161.0179	-754.902	1	771.8832	-77.95945	4.251846E-007	0.0006543	8
	48	126	4.734848	194.5788	-932.5122	1	952.596	-78.21373	4.991085E-007	0.0006523	8
	49	129	3.75601	235.8423	-1148.765	1	1172.724	-78.39833	4.234049E-007	0.0006404	8
	50	133	3.004808	285.9889	-1404.039	1	1432.869	-78.48692	4.87938E-007	0.000634	8
	51	136	2.372217	355.6833	-1735.264	1	1771.341	-78.41632	4.876397E-007	0.0006773	8
	52	140	1.878005	442.2659	-2146.766	1	2191.849	-78.35908	4.506417E-007	0.0006452	8
	53	145	1.512097	538.8206	-2611.615	1	2666.62	-78.34248	4.815959E-007	0.0005651	8
	54	151	1.201923	678.7111	-3220.154	1	3290.903	-78.09798	4.576503E-007	0.0006458	8
	55	157	0.956633	850.8138	-3958.083	1	4048.494	-77.86853	4.571781E-007	8.669864E-006	8
