EXPLAIN
TAG	EISPOT
TITLE	LABEL	Potentiostatic EIS	Test Identifier
DATE	LABEL	8/5/2020	Date
TIME	LABEL	23:47:15	Time
NOTES	NOTES	1	Notes...
	
PSTAT	PSTAT	REF3000-16137	Potentiostat
VDC	POTEN	0.00000E+000	T	DC Voltage (V)
FREQINIT	QUANT	3.00000E+005	Initial Freq. (Hz)
FREQFINAL	QUANT	1.00000E+000	Final Freq. (Hz)
PTSPERDEC	QUANT	1.00000E+001	Points/decade
VAC	QUANT	5.00000E+001	AC Voltage (mV rms)
AREA	QUANT	1.00000E+000	Sample Area (cm^2)
SPEED	SELECTOR	2	Optimize for:
ZGUESS	QUANT	1.00000E+003	Estimated Z (ohms)
EOC	QUANT	0	Open Circuit (V)
SEQUENCER	TOGGLE	TRUE	Run as Sequence
PSTATMODEL	IQUANT	5	Pstat Model
PSTATSECTION	LABEL	REF3000-16137	Pstat Section
PSTATSERIALNO	LABEL	16137	Pstat Serial Number
CTRLMODE	IQUANT	1	Control Mode
IESTAB	IQUANT	0	I/E Stability
CASPEED	IQUANT	1	Control Amp Speed
CONVENTION	IQUANT	1	Current Convention
ICHRANGE	IQUANT	2	Ich Range
ICHRANGEMODE	TOGGLE	F	Ich Auto Range
ICHOFFSETENABLE	TOGGLE	T	Ich Offset Enable
ICHOFFSET	QUANT	0	Ich Offset (V)
ICHFILTER	IQUANT	3	Ich Filter
VCHRANGE	IQUANT	2	Vch Range
VCHRANGEMODE	TOGGLE	F	Vch Auto Range
VCHOFFSETENABLE	TOGGLE	T	Vch Offset Enable
VCHOFFSET	QUANT	0	Vch Offset (V)
VCHFILTER	IQUANT	3	Vch Filter
ACHRANGE	IQUANT	2	Ach Range
ACHOFFSETENABLE	TOGGLE	F	Ach Offset Enable
ACHOFFSET	QUANT	0	Ach Offset (V)
ACHFILTER	IQUANT	3	Ach Filter
IERANGELOWERLIMIT	IQUANT	2	I/E Range Lower Limit
IERANGEMODE	TOGGLE	F	I/E AutoRange
IERANGE	IQUANT	11	I/E Range
POSFEEDENABLE	TOGGLE	F	Positive Feedback IR Comp
POSFEEDRESISTANCE	QUANT	0	Positive Feedback Resistance (ohm)
ACHSELECT	IQUANT	0	Ach Select
CABLEID	IQUANT	13	Cable ID
DCCALDATE	LABEL	7/31/2020	DC Calibration Date
ACCALDATE	LABEL	7/31/2020	AC Calibration Date
THERMOSELECT	IQUANT	1	Thermo Select
FRAMEWORKVERSION	QUANT	6.33	Framework Version
INSTRUMENTVERSION	LABEL	3.50	Instrument Version
COMPLIANCEVOLTAGE	IQUANT	0	Compliance Voltage
ZCURVE	TABLE
	Pt	Time	Freq	Zreal	Zimag	Zsig	Zmod	Zphz	Idc	Vdc	IERange
	#	s	Hz	ohm	ohm	V	ohm	°	A	V	#
	0	10	300046.9	5.901702	1.20983	1	6.024432	11.58495	-1.266231E-005	0.0002313	10
	1	14	238359.4	5.893822	0.9465299	1	5.969343	9.123623	6.942745E-005	-0.0002636	10
	2	17	189328.1	5.88145	0.7361326	1	5.927339	7.134142	-1.47681E-005	0.0002382	10
	3	19	150421.9	5.871064	0.5664623	1	5.898328	5.511054	1.094926E-005	0.0003206	10
	4	22	119484.4	5.878332	0.4186631	1	5.893222	4.073808	-4.941324E-005	0.0005423	10
	5	24	94921.88	5.88588	0.318207	1	5.894475	3.094556	2.580603E-005	0.0005207	10
	6	27	75421.88	5.88743	0.206927	1	5.891065	2.012961	2.470804E-005	0.0005394	10
	7	29	59859.37	5.89184	0.1075289	1	5.892821	1.045559	2.380106E-005	0.0005707	10
	8	32	47578.12	5.902205	0.0174969	1	5.902231	0.1698511	-1.402398E-005	0.0006714	10
	9	35	37828.12	5.91332	-0.0673356	1	5.913703	-0.6524045	-1.235144E-005	0.0006605	10
	10	37	30046.88	5.928535	-0.1515332	1	5.930471	-1.46416	2.464549E-005	0.0006297	10
	11	40	23859.38	5.944999	-0.2377985	1	5.949753	-2.290596	2.982482E-006	0.0006977	10
	12	42	18984.38	5.966039	-0.3310526	1	5.975216	-3.176058	2.17575E-005	0.0006691	10
	13	44	15046.87	5.990848	-0.4371889	1	6.006779	-4.173825	3.437903E-006	0.0006347	10
	14	47	11953.13	6.019572	-0.5586635	1	6.04544	-5.302309	-2.831738E-005	0.0006666	10
	15	49	9515.62	6.055406	-0.7008054	1	6.095824	-6.601597	5.097931E-006	0.0006297	10
	16	51	7546.875	6.098684	-0.8705285	1	6.160501	-8.123546	-2.142104E-005	0.0007067	10
	17	53	5928.309	6.152806	-1.085416	1	6.247811	-10.00461	-1.667186E-006	0.0006523	10
	18	56	4733.456	6.215161	-1.325951	1	6.355027	-12.04302	1.991859E-005	0.0006379	10
	19	58	3796.875	6.288419	-1.609376	1	6.491095	-14.35541	-3.009768E-005	0.0006628	10
	20	60	2987.132	6.385923	-1.980659	1	6.686032	-17.23181	2.354172E-005	0.0006425	10
	21	63	2390.625	6.495902	-2.399113	1	6.924773	-20.27056	4.990591E-007	0.0007042	10
	22	65	1884.191	6.636694	-2.939176	1	7.258407	-23.887	2.578839E-005	0.0006523	10
	23	67	1516.544	6.792973	-3.535124	1	7.65778	-27.49287	-1.272724E-005	0.0006872	10
	24	70	1193.986	6.996207	-4.325193	1	8.225218	-31.72517	2.553721E-005	0.0006544	10
	25	72	946.5144	7.236436	-5.265799	1	8.949561	-36.04258	-2.370371E-005	0.0006659	10
	26	74	751.7689	7.524858	-6.394253	1	9.87471	-40.35624	2.540083E-005	0.0006525	10
	27	77	597.4265	7.868529	-7.761488	1	11.05235	-44.60762	-1.868154E-006	0.0006602	10
	28	79	477.4305	8.271411	-9.384034	1	12.50905	-48.60594	3.25308E-007	0.0006845	10
	29	81	376.6741	8.788643	-11.47422	1	14.4533	-52.54981	2.176784E-007	0.0006776	10
	30	84	298.2954	9.410214	-13.99436	1	16.86399	-56.08197	1.138601E-006	0.0006698	10
	31	86	237.7717	10.15136	-16.97963	1	19.78276	-59.12669	8.923115E-007	0.0006738	10
	32	89	189.0121	11.07494	-20.66162	1	23.44262	-61.80803	1.288574E-006	0.0006754	10
	33	91	150.2404	12.22018	-25.14374	1	27.95605	-64.07965	1.413896E-006	0.0006759	10
	34	93	119.1737	13.66922	-30.67232	1	33.58033	-65.97971	9.338798E-007	0.0006787	10
	35	96	95.0169	15.45588	-37.22775	1	40.30868	-67.45319	1.302336E-006	0.0006701	10
	36	98	75.60484	17.71639	-45.21029	1	48.5576	-68.60146	4.489947E-006	7.202468E-005	9
	37	101	54.50582	22.13854	-59.74292	1	63.71288	-69.66714	4.400185E-006	7.299342E-005	9
	38	103	45.95588	25.17686	-69.12318	1	73.56554	-69.98676	4.629313E-006	8.580612E-005	9
	39	106	37.20238	29.88288	-82.63126	1	87.86871	-70.11791	4.585233E-006	8.185097E-005	9
	40	108	30.04808	36.02421	-98.7996	1	105.1623	-69.96719	4.587153E-006	7.408733E-005	9
	41	110	23.91582	44.69096	-119.3964	1	127.4864	-69.47874	4.462451E-006	7.860316E-005	9
	42	113	18.60119	57.5718	-146.5738	1	157.4751	-68.55591	4.74274E-006	7.400931E-005	9
	43	115	15.02404	72.23649	-173.5219	1	187.9573	-67.39822	4.415292E-006	7.195187E-005	9
	44	117	12.01923	92.42026	-205.6796	1	225.4897	-65.80366	4.864605E-006	7.620962E-005	9
	45	120	9.450605	121.5096	-244.758	1	273.26	-63.59799	4.723307E-006	7.670443E-005	9
	46	122	7.512019	158.0087	-285.7536	1	326.53	-61.0594	4.819093E-006	0.0001164	9
	47	125	5.978954	204.6851	-327.671	1	386.3474	-58.00836	5.034682E-006	7.724292E-005	9
	48	128	4.734848	263.6345	-368.4713	1	453.072	-54.41697	3.422662E-006	0.0006691	8
	49	131	3.75601	334.9838	-405.7966	1	526.1986	-50.46044	3.58906E-006	0.0006345	8
	50	135	3.004808	414.1749	-434.6867	1	600.4111	-46.38422	3.705418E-006	0.0006672	8
	51	138	2.372217	507.0058	-452.6837	1	679.6891	-41.7603	3.820505E-006	0.0006922	8
	52	142	1.878005	602.7278	-454.7711	1	755.0481	-37.03534	3.861497E-006	0.0006442	8
	53	147	1.512097	691.679	-449.903	1	825.1258	-33.04201	3.946532E-006	0.0006065	8
	54	153	1.201923	784.9476	-432.9477	1	896.4299	-28.87948	4.052288E-006	0.0006286	8
	55	165	0.956633	876.8727	-413.423	1	969.445	-25.24268	3.475808E-006	5.122759E-006	8
