EXPLAIN
TAG	EISPOT
TITLE	LABEL	Potentiostatic EIS	Test Identifier
DATE	LABEL	8/5/2020	Date
TIME	LABEL	23:55:46	Time
NOTES	NOTES	1	Notes...
	
PSTAT	PSTAT	REF3000-16137	Potentiostat
VDC	POTEN	0.00000E+000	T	DC Voltage (V)
FREQINIT	QUANT	3.00000E+005	Initial Freq. (Hz)
FREQFINAL	QUANT	1.00000E+000	Final Freq. (Hz)
PTSPERDEC	QUANT	1.00000E+001	Points/decade
VAC	QUANT	5.00000E+001	AC Voltage (mV rms)
AREA	QUANT	1.00000E+000	Sample Area (cm^2)
SPEED	SELECTOR	2	Optimize for:
ZGUESS	QUANT	1.00000E+003	Estimated Z (ohms)
EOC	QUANT	0	Open Circuit (V)
SEQUENCER	TOGGLE	TRUE	Run as Sequence
PSTATMODEL	IQUANT	5	Pstat Model
PSTATSECTION	LABEL	REF3000-16137	Pstat Section
PSTATSERIALNO	LABEL	16137	Pstat Serial Number
CTRLMODE	IQUANT	1	Control Mode
IESTAB	IQUANT	0	I/E Stability
CASPEED	IQUANT	1	Control Amp Speed
CONVENTION	IQUANT	1	Current Convention
ICHRANGE	IQUANT	2	Ich Range
ICHRANGEMODE	TOGGLE	F	Ich Auto Range
ICHOFFSETENABLE	TOGGLE	T	Ich Offset Enable
ICHOFFSET	QUANT	0	Ich Offset (V)
ICHFILTER	IQUANT	3	Ich Filter
VCHRANGE	IQUANT	2	Vch Range
VCHRANGEMODE	TOGGLE	F	Vch Auto Range
VCHOFFSETENABLE	TOGGLE	T	Vch Offset Enable
VCHOFFSET	QUANT	0	Vch Offset (V)
VCHFILTER	IQUANT	3	Vch Filter
ACHRANGE	IQUANT	2	Ach Range
ACHOFFSETENABLE	TOGGLE	F	Ach Offset Enable
ACHOFFSET	QUANT	0	Ach Offset (V)
ACHFILTER	IQUANT	3	Ach Filter
IERANGELOWERLIMIT	IQUANT	2	I/E Range Lower Limit
IERANGEMODE	TOGGLE	F	I/E AutoRange
IERANGE	IQUANT	11	I/E Range
POSFEEDENABLE	TOGGLE	F	Positive Feedback IR Comp
POSFEEDRESISTANCE	QUANT	0	Positive Feedback Resistance (ohm)
ACHSELECT	IQUANT	0	Ach Select
CABLEID	IQUANT	13	Cable ID
DCCALDATE	LABEL	7/31/2020	DC Calibration Date
ACCALDATE	LABEL	7/31/2020	AC Calibration Date
THERMOSELECT	IQUANT	1	Thermo Select
FRAMEWORKVERSION	QUANT	6.33	Framework Version
INSTRUMENTVERSION	LABEL	3.50	Instrument Version
COMPLIANCEVOLTAGE	IQUANT	0	Compliance Voltage
ZCURVE	TABLE
	Pt	Time	Freq	Zreal	Zimag	Zsig	Zmod	Zphz	Idc	Vdc	IERange
	#	s	Hz	ohm	ohm	V	ohm	°	A	V	#
	0	8	300046.9	9.177186	1.175318	1	9.252141	7.298117	-2.651957E-005	8.794937E-005	10
	1	11	238359.4	9.217519	0.9106116	1	9.26239	5.642023	6.509446E-005	4.596348E-005	10
	2	14	189328.1	9.245329	0.7050633	1	9.272175	4.361025	1.283247E-005	0.0002798	10
	3	17	150421.9	9.274637	0.5393149	1	9.290304	3.32797	1.600176E-005	0.0004678	10
	4	20	119484.4	9.311991	0.3887207	1	9.320101	2.390373	-3.109353E-005	0.0005154	10
	5	22	94921.88	9.347403	0.2900453	1	9.351901	1.777289	-1.885921E-005	0.0005835	10
	6	25	75421.88	9.381182	0.1725389	1	9.382769	1.053666	-2.111839E-005	0.0006697	10
	7	27	59859.37	9.422041	0.0641138	1	9.422259	0.3898727	-2.238941E-005	0.000685	10
	8	30	47578.12	9.46483	-0.0339202	1	9.464891	-0.2053363	-1.88147E-005	0.0006355	10
	9	32	37828.12	9.51115	-0.1267423	1	9.51199	-0.7634588	-2.885449E-005	0.00065	10
	10	35	30046.88	9.55982	-0.2221445	1	9.5624	-1.331161	1.061106E-005	0.0006756	10
	11	37	23859.38	9.60844	-0.3249564	1	9.61393	-1.936999	-3.302175E-005	0.0006592	10
	12	40	18984.38	9.66178	-0.4384501	1	9.67172	-2.598292	-1.175394E-005	0.0006399	10
	13	42	15046.87	9.71945	-0.5692791	1	9.73611	-3.352047	2.291745E-005	0.000632	10
	14	44	11953.13	9.78357	-0.7230043	1	9.81025	-4.226465	-3.004311E-005	0.0006621	10
	15	47	9515.62	9.8538	-0.9015272	1	9.89495	-5.227457	-2.562626E-005	0.000659	10
	16	49	7546.875	9.93325	-1.119099	1	9.99609	-6.427946	2.007078E-005	0.0006357	10
	17	51	5928.309	10.02596	-1.393017	1	10.12227	-7.910094	-1.493421E-005	0.0006915	10
	18	53	4733.456	10.12878	-1.702932	1	10.27093	-9.54377	2.419465E-005	0.0006559	10
	19	56	3796.875	10.24547	-2.069494	1	10.45239	-11.41958	-8.487087E-006	0.0007219	10
	20	58	2987.132	10.39158	-2.554825	1	10.70103	-13.81252	-2.08158E-005	0.0007	10
	21	60	2390.625	10.55336	-3.102984	1	11.00009	-16.38481	2.58296E-005	0.0006682	10
	22	63	1884.191	10.7582	-3.81409	1	11.4143	-19.52087	-2.687548E-005	0.0006944	10
	23	65	1516.544	10.98032	-4.59815	1	11.90422	-22.72212	-2.869798E-005	0.0006979	10
	24	67	1193.986	11.27096	-5.647226	1	12.60657	-26.6128	-2.077693E-005	0.0007003	10
	25	70	946.5144	11.61014	-6.878135	1	13.49459	-30.64356	6.110909E-006	0.0006438	10
	26	72	751.7689	12.00721	-8.382052	1	14.64349	-34.91831	-2.5576E-005	0.0006859	10
	27	75	597.4265	12.4744	-10.19324	1	16.1094	-39.25338	-2.806677E-005	0.0006959	10
	28	77	477.4305	13.01704	-12.33672	1	17.93427	-43.46295	-1.660657E-006	0.0006829	10
	29	79	376.6741	13.69277	-15.09896	1	20.3831	-47.79612	-1.271821E-006	0.0006785	10
	30	82	298.2954	14.48259	-18.4339	1	23.44257	-51.84505	-1.577399E-006	0.0006781	10
	31	84	237.7717	15.39529	-22.39497	1	27.17627	-55.49365	-1.442368E-006	0.000676	10
	32	86	189.0121	16.49536	-27.30514	1	31.9009	-58.86333	-9.430146E-007	0.000679	10
	33	89	150.2404	17.81036	-33.30912	1	37.77177	-61.86662	-8.551079E-007	0.0006808	10
	34	91	119.1737	19.38941	-40.70729	1	45.08917	-64.53093	2.446929E-006	7.604034E-005	9
	35	93	95.0169	21.28881	-49.60027	1	53.97592	-66.77063	2.336739E-006	7.568891E-005	9
	36	96	75.60484	23.62527	-60.59442	1	65.0372	-68.69959	2.206534E-006	8.157171E-005	9
	37	99	54.50582	27.88937	-80.69685	1	85.38031	-70.93451	2.264913E-006	7.393115E-005	9
	38	101	45.95588	30.70511	-93.84371	1	98.7393	-71.88221	2.272315E-006	7.861072E-005	9
	39	103	37.20238	34.84007	-113.0224	1	118.2704	-72.86766	2.279464E-006	8.140188E-005	9
	40	106	30.04808	39.97221	-136.3563	1	142.0944	-73.66174	2.333496E-006	6.800701E-005	9
	41	108	23.91582	46.7289	-166.7145	1	173.1396	-74.34219	2.318094E-006	7.279061E-005	9
	42	111	18.60119	56.19008	-208.0869	1	215.54	-74.88873	2.230054E-006	6.924359E-005	9
	43	113	15.02404	66.2761	-250.9072	1	259.5129	-75.20351	2.277446E-006	7.69395E-005	9
	44	115	12.01923	79.61188	-305.3199	1	315.5286	-75.38559	2.486919E-006	7.622271E-005	9
	45	118	9.450605	97.8668	-376.9603	1	389.4572	-75.44612	2.279667E-006	7.694865E-005	9
	46	120	7.512019	119.9371	-458.8246	1	474.2415	-75.35063	7.560351E-007	0.0006577	8
	47	123	5.978954	148.6563	-559.4284	1	578.8427	-75.11876	7.759119E-007	0.0006561	8
	48	126	4.734848	186.9991	-685.5841	1	710.6295	-74.7432	8.590179E-007	0.0006793	8
	49	129	3.75601	236.9527	-837.0166	1	869.91	-74.19361	7.344885E-007	0.0006484	8
	50	133	3.004808	299.9775	-1012.748	1	1056.241	-73.50063	8.195907E-007	0.0006421	8
	51	136	2.372217	389.9383	-1235.365	1	1295.445	-72.4819	7.725972E-007	0.0007374	8
	52	140	1.878005	508.7749	-1503.483	1	1587.235	-71.30431	7.06089E-007	0.0007008	8
	53	145	1.512097	648.5141	-1798.625	1	1911.968	-70.17267	8.016724E-007	0.0005723	8
	54	151	1.201923	851.0054	-2167.677	1	2328.741	-68.56559	7.662082E-007	0.0006492	8
	55	157	0.956633	1110.033	-2594.207	1	2821.716	-66.83444	7.115565E-007	1.955133E-005	8
