EXPLAIN
TAG	EISPOT
TITLE	LABEL	Potentiostatic EIS	Test Identifier
DATE	LABEL	8/6/2020	Date
TIME	LABEL	0:04:04	Time
NOTES	NOTES	1	Notes...
	
PSTAT	PSTAT	REF3000-16137	Potentiostat
VDC	POTEN	0.00000E+000	T	DC Voltage (V)
FREQINIT	QUANT	3.00000E+005	Initial Freq. (Hz)
FREQFINAL	QUANT	1.00000E+000	Final Freq. (Hz)
PTSPERDEC	QUANT	1.00000E+001	Points/decade
VAC	QUANT	5.00000E+001	AC Voltage (mV rms)
AREA	QUANT	1.00000E+000	Sample Area (cm^2)
SPEED	SELECTOR	2	Optimize for:
ZGUESS	QUANT	1.00000E+003	Estimated Z (ohms)
EOC	QUANT	0	Open Circuit (V)
SEQUENCER	TOGGLE	TRUE	Run as Sequence
PSTATMODEL	IQUANT	5	Pstat Model
PSTATSECTION	LABEL	REF3000-16137	Pstat Section
PSTATSERIALNO	LABEL	16137	Pstat Serial Number
CTRLMODE	IQUANT	1	Control Mode
IESTAB	IQUANT	0	I/E Stability
CASPEED	IQUANT	1	Control Amp Speed
CONVENTION	IQUANT	1	Current Convention
ICHRANGE	IQUANT	2	Ich Range
ICHRANGEMODE	TOGGLE	F	Ich Auto Range
ICHOFFSETENABLE	TOGGLE	T	Ich Offset Enable
ICHOFFSET	QUANT	0	Ich Offset (V)
ICHFILTER	IQUANT	3	Ich Filter
VCHRANGE	IQUANT	2	Vch Range
VCHRANGEMODE	TOGGLE	F	Vch Auto Range
VCHOFFSETENABLE	TOGGLE	T	Vch Offset Enable
VCHOFFSET	QUANT	0	Vch Offset (V)
VCHFILTER	IQUANT	3	Vch Filter
ACHRANGE	IQUANT	2	Ach Range
ACHOFFSETENABLE	TOGGLE	F	Ach Offset Enable
ACHOFFSET	QUANT	0	Ach Offset (V)
ACHFILTER	IQUANT	3	Ach Filter
IERANGELOWERLIMIT	IQUANT	2	I/E Range Lower Limit
IERANGEMODE	TOGGLE	F	I/E AutoRange
IERANGE	IQUANT	11	I/E Range
POSFEEDENABLE	TOGGLE	F	Positive Feedback IR Comp
POSFEEDRESISTANCE	QUANT	0	Positive Feedback Resistance (ohm)
ACHSELECT	IQUANT	0	Ach Select
CABLEID	IQUANT	13	Cable ID
DCCALDATE	LABEL	7/31/2020	DC Calibration Date
ACCALDATE	LABEL	7/31/2020	AC Calibration Date
THERMOSELECT	IQUANT	1	Thermo Select
FRAMEWORKVERSION	QUANT	6.33	Framework Version
INSTRUMENTVERSION	LABEL	3.50	Instrument Version
COMPLIANCEVOLTAGE	IQUANT	0	Compliance Voltage
ZCURVE	TABLE
	Pt	Time	Freq	Zreal	Zimag	Zsig	Zmod	Zphz	Idc	Vdc	IERange
	#	s	Hz	ohm	ohm	V	ohm	°	A	V	#
	0	7	300046.9	26.19188	0.4066949	1	26.19504	0.8895897	4.818733E-005	-3.982995E-005	11
	1	11	238359.4	26.52559	0.5982094	1	26.53234	1.291925	8.160727E-005	0.0002572	10
	2	14	189328.1	26.85235	0.4466959	1	26.85606	0.953042	2.79284E-005	0.000795	10
	3	18	150421.9	27.1538	0.3058276	1	27.15552	0.6452833	2.519855E-005	0.0007907	10
	4	22	119484.4	27.40503	0.1899361	1	27.40569	0.3970937	-9.146275E-005	0.0006606	10
	5	24	94921.88	27.62631	0.1009272	1	27.62649	0.2093177	2.201596E-005	0.0006188	10
	6	27	75421.88	27.85216	0.000996	1	27.85216	0.0020489	-1.813662E-006	0.0006058	10
	7	29	59859.37	28.08132	-0.0975417	1	28.08149	-0.1990186	-2.345375E-005	0.0006417	10
	8	32	47578.12	28.31951	-0.1919313	1	28.32016	-0.3883078	6.75091E-006	0.000627	10
	9	34	37828.12	28.55867	-0.2919968	1	28.56017	-0.5857976	9.635168E-006	0.0006977	10
	10	37	30046.88	28.80625	-0.4072384	1	28.80912	-0.8099455	3.113983E-005	0.0006717	10
	11	39	23859.38	29.04862	-0.5307681	1	29.05346	-1.046776	1.702289E-005	0.0006157	10
	12	42	18984.38	29.28905	-0.6798339	1	29.29694	-1.329665	-1.74572E-005	0.000668	10
	13	44	15046.87	29.53567	-0.8604913	1	29.5482	-1.668782	2.798052E-005	0.0006638	10
	14	46	11953.13	29.79797	-1.067558	1	29.81709	-2.051832	-1.796122E-005	0.0006499	10
	15	49	9515.62	30.06287	-1.322166	1	30.09193	-2.518247	-2.400706E-005	0.0007043	10
	16	51	7546.875	30.3466	-1.628392	1	30.39025	-3.071534	9.306401E-006	0.0007091	10
	17	53	5928.309	30.65897	-2.027626	1	30.72594	-3.783737	-2.538023E-005	0.0006826	10
	18	56	4733.456	30.97652	-2.485061	1	31.07605	-4.586675	-1.692498E-005	0.0006659	10
	19	58	3796.875	31.32412	-3.025091	1	31.46985	-5.516168	-4.123292E-006	0.0007325	10
	20	60	2987.132	31.70457	-3.729791	1	31.92321	-6.709555	6.966759E-006	0.0006769	10
	21	63	2390.625	32.11111	-4.542357	1	32.4308	-8.051497	2.564579E-005	0.0006528	10
	22	65	1884.191	32.57585	-5.603537	1	33.05428	-9.76022	2.209208E-005	0.0006705	10
	23	67	1516.544	33.06808	-6.756881	1	33.75135	-11.54841	-1.736666E-005	0.0006655	10
	24	70	1193.986	33.66562	-8.33821	1	34.68284	-13.91092	2.634454E-005	0.000654	10
	25	72	946.5144	34.33282	-10.19548	1	35.81467	-16.53932	2.080297E-005	0.0006064	10
	26	74	751.7689	35.04502	-12.46544	1	37.19598	-19.58036	-7.905445E-006	0.0001131	9
	27	77	597.4265	35.91657	-15.23487	1	39.01411	-22.98538	-1.389953E-005	0.0004769	9
	28	79	477.4305	36.90834	-18.50525	1	41.28764	-26.62845	2.00069E-006	7.66134E-005	9
	29	81	376.6741	38.12814	-22.72404	1	44.38623	-30.79457	1.921961E-006	7.319332E-005	9
	30	84	298.2954	39.54408	-27.80084	1	48.33861	-35.10853	1.982979E-006	7.635273E-005	9
	31	86	237.7717	41.18507	-33.81166	1	53.28638	-39.38493	1.941965E-006	7.343476E-005	9
	32	88	189.0121	43.12319	-41.20938	1	59.64749	-43.69998	1.90596E-006	7.652881E-005	9
	33	91	150.2404	45.39777	-50.21776	1	67.69624	-47.88584	1.621179E-006	0.0001144	9
	34	93	119.1737	48.07612	-61.33324	1	77.92996	-51.90884	1.93877E-006	7.707586E-005	9
	35	96	95.0169	51.14863	-74.59643	1	90.44783	-55.56268	1.997036E-006	7.203948E-005	9
	36	98	75.60484	54.77298	-90.96526	1	106.1827	-58.94656	2.002025E-006	6.830625E-005	9
	37	101	54.50582	60.8728	-120.9116	1	135.3703	-63.27708	2.009174E-006	6.769085E-005	9
	38	103	45.95588	64.83085	-140.5441	1	154.7762	-65.23685	2.056161E-006	7.200918E-005	9
	39	106	37.20238	70.30382	-169.3422	1	183.3559	-67.45381	2.033292E-006	6.835516E-005	9
	40	108	30.04808	76.79013	-204.6629	1	218.5947	-69.43376	1.626913E-006	0.0001065	9
	41	110	23.91582	84.99449	-250.8304	1	264.8395	-71.28093	2.066083E-006	6.077503E-005	9
	42	113	18.60119	95.835	-314.0968	1	328.3918	-73.03238	2.148808E-006	7.86966E-005	9
	43	115	15.02404	107.0681	-380.6624	1	395.4332	-74.29041	2.142792E-006	7.997291E-005	9
	44	117	12.01923	120.6576	-463.5284	1	478.9747	-75.40955	3.281859E-007	0.0006453	8
	45	120	9.450605	139.1927	-576.2519	1	592.8245	-76.42041	3.371301E-007	0.0006542	8
	46	122	7.512019	161.035	-709.3453	1	727.3947	-77.20955	3.300415E-007	0.0006444	8
	47	125	5.978954	187.7182	-873.0682	1	893.0208	-77.86559	3.872392E-007	0.0006518	8
	48	128	4.734848	221.2088	-1080.252	1	1102.669	-78.42724	3.554842E-007	0.0006323	8
	49	131	3.75601	263.2639	-1334.478	1	1360.199	-78.84007	4.172319E-007	0.0006684	8
	50	135	3.004808	313.0174	-1635.033	1	1664.726	-79.16219	3.649046E-007	0.0006785	8
	51	138	2.372217	381.5693	-2027.03	1	2062.63	-79.33936	3.234682E-007	0.0006803	8
	52	143	1.878005	465.0677	-2516.37	1	2558.985	-79.52892	4.129008E-007	0.0006369	8
	53	147	1.512097	556.0585	-3069.908	1	3119.862	-79.73322	3.831127E-007	0.0007254	8
	54	153	1.201923	688.8433	-3800.323	1	3862.248	-79.72616	4.051927E-007	0.0006604	8
	55	159	0.956633	850.8254	-4699.314	1	4775.716	-79.73759	3.253618E-008	-1.171242E-005	7
