EXPLAIN
TAG	EISPOT
TITLE	LABEL	Potentiostatic EIS	Test Identifier
DATE	LABEL	2/24/2021	Date
TIME	LABEL	22:44:34	Time
NOTES	NOTES	1	Notes...
	
PSTAT	PSTAT	REF3000-16137	Potentiostat
VDC	POTEN	0.00000E+000	T	DC Voltage (V)
FREQINIT	QUANT	3.00000E+005	Initial Freq. (Hz)
FREQFINAL	QUANT	1.00000E+000	Final Freq. (Hz)
PTSPERDEC	QUANT	1.00000E+001	Points/decade
VAC	QUANT	5.00000E+001	AC Voltage (mV rms)
AREA	QUANT	1.00000E+000	Sample Area (cm^2)
SPEED	SELECTOR	2	Optimize for:
ZGUESS	QUANT	1.00000E+003	Estimated Z (ohms)
EOC	QUANT	0	Open Circuit (V)
SEQUENCER	TOGGLE	TRUE	Run as Sequence
PSTATMODEL	IQUANT	5	Pstat Model
PSTATSECTION	LABEL	REF3000-16137	Pstat Section
PSTATSERIALNO	LABEL	16137	Pstat Serial Number
CTRLMODE	IQUANT	1	Control Mode
IESTAB	IQUANT	0	I/E Stability
CASPEED	IQUANT	1	Control Amp Speed
CONVENTION	IQUANT	1	Current Convention
ICHRANGE	IQUANT	2	Ich Range
ICHRANGEMODE	TOGGLE	F	Ich Auto Range
ICHOFFSETENABLE	TOGGLE	T	Ich Offset Enable
ICHOFFSET	QUANT	0	Ich Offset (V)
ICHFILTER	IQUANT	3	Ich Filter
VCHRANGE	IQUANT	2	Vch Range
VCHRANGEMODE	TOGGLE	F	Vch Auto Range
VCHOFFSETENABLE	TOGGLE	T	Vch Offset Enable
VCHOFFSET	QUANT	0	Vch Offset (V)
VCHFILTER	IQUANT	3	Vch Filter
ACHRANGE	IQUANT	2	Ach Range
ACHOFFSETENABLE	TOGGLE	F	Ach Offset Enable
ACHOFFSET	QUANT	0	Ach Offset (V)
ACHFILTER	IQUANT	3	Ach Filter
IERANGELOWERLIMIT	IQUANT	2	I/E Range Lower Limit
IERANGEMODE	TOGGLE	F	I/E AutoRange
IERANGE	IQUANT	11	I/E Range
POSFEEDENABLE	TOGGLE	F	Positive Feedback IR Comp
POSFEEDRESISTANCE	QUANT	0	Positive Feedback Resistance (ohm)
ACHSELECT	IQUANT	0	Ach Select
CABLEID	IQUANT	13	Cable ID
DCCALDATE	LABEL	7/31/2020	DC Calibration Date
ACCALDATE	LABEL	7/31/2020	AC Calibration Date
THERMOSELECT	IQUANT	1	Thermo Select
FRAMEWORKVERSION	QUANT	6.33	Framework Version
INSTRUMENTVERSION	LABEL	3.50	Instrument Version
COMPLIANCEVOLTAGE	IQUANT	0	Compliance Voltage
ZCURVE	TABLE
	Pt	Time	Freq	Zreal	Zimag	Zsig	Zmod	Zphz	Idc	Vdc	IERange
	#	s	Hz	ohm	ohm	V	ohm	°	A	V	#
	0	14	300046.9	106.3683	-4082.941	1	4084.326	-88.50768	-2.807577E-005	-0.001182	9
	1	28	238359.4	227.4598	-5061.114	1	5066.223	-87.42671	-6.001264E-005	0.0003604	9
	2	42	189328.1	622.4811	-6415.092	1	6445.222	-84.45772	1.977195E-005	-0.0020578	9
	3	49	150421.9	390.3613	-7855.271	1	7864.964	-87.15508	2.953458E-007	0.0016229	9
	4	60	119484.4	986.736	-9835.39	1	9884.76	-84.27097	2.59186E-005	0.0079556	8
	5	67	94921.88	1401.956	-12149.57	1	12230.19	-83.41767	1.612205E-005	-0.0091595	8
	6	76	75421.88	1691.502	-15250.04	1	15343.57	-83.67075	-1.330313E-006	-0.004987	8
	7	84	59859.37	2043.38	-19148.68	1	19257.4	-83.90894	-2.64436E-005	0.0096996	8
	8	93	47578.12	5358.024	-24712.28	1	25286.47	-77.76669	7.462797E-006	-0.0238902	7
	9	100	37828.12	6360.035	-30265.33	1	30926.37	-78.13239	6.527877E-006	-0.0103641	7
	10	108	30046.88	5061.815	-37386	1	37727.11	-82.28942	-1.157775E-005	0.0101945	8
	11	116	23859.38	9384.206	-45953.41	1	46901.8	-78.45824	2.837241E-006	0.0076241	7
	12	122	18984.38	11683.46	-57033.74	1	58218.13	-78.42303	4.922353E-006	-0.0008836	7
	13	127	15046.87	15045.88	-70654.3	1	72238.55	-77.9784	-1.389475E-006	0.0205579	7
	14	132	11953.13	20961.32	-86889.38	1	89382	-76.43703	1.17619E-006	-0.0190473	7
	15	139	9515.62	27936.13	-107487.5	1	111058.5	-75.43108	-3.545016E-006	0.0245592	7
	16	144	7546.875	38589.65	-134150.1	1	139590.2	-73.95158	-1.156334E-006	-0.0124935	7
	17	150	5928.309	43950.46	-186680.7	1	191784.6	-76.75204	-5.286598E-006	0.0041182	7
	18	156	4733.456	74804.55	-214417.1	1	227091.2	-70.76745	6.524232E-006	-0.0103824	7
	19	163	3796.875	87876.41	-303116.5	1	315597.7	-73.83262	2.740986E-005	-0.0074594	8
	20	171	2987.132	318153.2	-215664.1	1	384359.8	-34.13186	2.237238E-005	-0.0096029	8
	21	180	2390.625	166221	-212547.8	1	269825.8	-51.97315	-1.589449E-005	0.0007673	8
	22	189	1884.191	264312.3	-308662.1	1	406366	-49.42602	1.125153E-006	-0.0189648	7
	23	196	1516.544	313998.8	-442634.1	1	542697.1	-54.64861	7.525508E-007	-0.022572	6
	24	202	1193.986	421780.2	-446014.1	1	613862.4	-46.59962	-7.28539E-007	0.0229359	6
	25	207	946.5144	525488.9	-561844.5	1	769290.4	-46.915	5.738293E-007	-0.0272723	6
	26	211	751.7689	721707.6	-510615.8	1	884076.1	-35.27982	-4.783161E-007	0.0019739	6
	27	215	597.4265	839655.4	-1005277	1	1309810	-50.12975	-1.079103E-006	-0.0126198	7
	28	221	477.4305	891439.9	-527849.2	1	1035997	-30.63109	-7.185918E-009	0.0006535	6
	29	226	376.6741	1087668	-404924.7	1	1160597	-20.41965	-8.184806E-010	0.0006968	5
	30	228	298.2954	1163664	-363461.7	1	1219106	-17.3458	-8.525043E-010	0.0006212	5
	31	231	237.7717	1225138	-327629	1	1268189	-14.97182	-9.43802E-010	0.0006421	5
	32	234	189.0121	1283591	-286015.9	1	1315071	-12.5617	-8.883291E-010	0.0006748	5
	33	236	150.2404	1336228	-252023.3	1	1359787	-10.68097	-9.289476E-010	0.0007006	5
	34	239	119.1737	1409692	-218143.3	1	1426471	-8.796483	-1.001517E-009	0.0006726	5
	35	242	95.0169	1428834	-182218.3	1	1440406	-7.267667	-8.511902E-010	0.0007024	5
	36	245	75.60484	1472957	-173180.7	1	1483103	-6.705679	-9.642226E-010	0.0006656	5
	37	248	54.50582	1530038	-116882.4	1	1534496	-4.368444	-9.191596E-010	0.0007004	5
	38	251	45.95588	1557607	-120996.3	1	1562300	-4.441866	-9.004464E-010	0.0006409	5
	39	253	37.20238	1587819	-109476.7	1	1591588	-3.944178	-7.956801E-010	0.0006818	5
	40	256	30.04808	1620593	-87439.53	1	1622951	-3.088414	-8.287149E-010	0.000617	5
	41	259	23.91582	1669073	-74089.31	1	1670716	-2.541663	-6.614348E-010	0.0006196	5
	42	262	18.60119	1672969	-37298.52	1	1673384	-1.277187	-1.218582E-009	0.0007143	5
	43	264	15.02404	1721101	-51427.18	1	1721869	-1.711511	-9.495024E-010	0.0007081	5
	44	266	12.01923	1752234	-47323.83	1	1752873	-1.547052	-8.600631E-010	0.0006215	5
	45	269	9.450605	1788454	-40415.28	1	1788910	-1.294544	-8.371384E-010	0.0007033	5
	46	272	7.512019	1828258	-35562.57	1	1828604	-1.114355	-7.382372E-010	0.0006307	5
	47	275	5.978954	1874285	-30784.95	1	1874538	-0.9409932	-8.226407E-010	0.0006972	5
	48	279	4.734848	1929007	-26981.88	1	1929195	-0.8013693	-7.823501E-010	0.0006068	5
	49	283	3.75601	1992195	-27036.42	1	1992378	-0.7775231	-8.827667E-010	0.0007027	5
	50	288	3.004808	2083785	-24001.36	1	2083923	-0.6599127	-8.107441E-010	0.0006814	5
	51	295	2.372217	2162426	-21966.85	1	2162538	-0.582015	-8.848419E-010	0.0006074	5
	52	299	1.878005	2233891	-21751.53	1	2233997	-0.5578749	-7.888911E-010	0.0006666	5
	53	304	1.512097	2317474	-22517.08	1	2317583	-0.5566809	-7.865121E-010	0.0005561	5
	54	309	1.201923	2420061	-23952.03	1	2420179	-0.5670542	-7.770655E-010	0.0006916	5
	55	315	0.956633	2533680	-29231.57	1	2533848	-0.6610035	-1.059755E-009	1.501698E-005	5
