EXPLAIN
TAG	EISPOT
TITLE	LABEL	Potentiostatic EIS	Test Identifier
DATE	LABEL	2/24/2021	Date
TIME	LABEL	22:05:58	Time
NOTES	NOTES	1	Notes...
	
PSTAT	PSTAT	REF3000-16137	Potentiostat
VDC	POTEN	0.00000E+000	T	DC Voltage (V)
FREQINIT	QUANT	3.00000E+005	Initial Freq. (Hz)
FREQFINAL	QUANT	1.00000E+000	Final Freq. (Hz)
PTSPERDEC	QUANT	1.00000E+001	Points/decade
VAC	QUANT	5.00000E+001	AC Voltage (mV rms)
AREA	QUANT	1.00000E+000	Sample Area (cm^2)
SPEED	SELECTOR	2	Optimize for:
ZGUESS	QUANT	1.00000E+003	Estimated Z (ohms)
EOC	QUANT	0	Open Circuit (V)
SEQUENCER	TOGGLE	TRUE	Run as Sequence
PSTATMODEL	IQUANT	5	Pstat Model
PSTATSECTION	LABEL	REF3000-16137	Pstat Section
PSTATSERIALNO	LABEL	16137	Pstat Serial Number
CTRLMODE	IQUANT	1	Control Mode
IESTAB	IQUANT	0	I/E Stability
CASPEED	IQUANT	1	Control Amp Speed
CONVENTION	IQUANT	1	Current Convention
ICHRANGE	IQUANT	2	Ich Range
ICHRANGEMODE	TOGGLE	F	Ich Auto Range
ICHOFFSETENABLE	TOGGLE	T	Ich Offset Enable
ICHOFFSET	QUANT	0	Ich Offset (V)
ICHFILTER	IQUANT	3	Ich Filter
VCHRANGE	IQUANT	2	Vch Range
VCHRANGEMODE	TOGGLE	F	Vch Auto Range
VCHOFFSETENABLE	TOGGLE	T	Vch Offset Enable
VCHOFFSET	QUANT	0	Vch Offset (V)
VCHFILTER	IQUANT	3	Vch Filter
ACHRANGE	IQUANT	2	Ach Range
ACHOFFSETENABLE	TOGGLE	F	Ach Offset Enable
ACHOFFSET	QUANT	0	Ach Offset (V)
ACHFILTER	IQUANT	3	Ach Filter
IERANGELOWERLIMIT	IQUANT	2	I/E Range Lower Limit
IERANGEMODE	TOGGLE	F	I/E AutoRange
IERANGE	IQUANT	11	I/E Range
POSFEEDENABLE	TOGGLE	F	Positive Feedback IR Comp
POSFEEDRESISTANCE	QUANT	0	Positive Feedback Resistance (ohm)
ACHSELECT	IQUANT	0	Ach Select
CABLEID	IQUANT	13	Cable ID
DCCALDATE	LABEL	7/31/2020	DC Calibration Date
ACCALDATE	LABEL	7/31/2020	AC Calibration Date
THERMOSELECT	IQUANT	1	Thermo Select
FRAMEWORKVERSION	QUANT	6.33	Framework Version
INSTRUMENTVERSION	LABEL	3.50	Instrument Version
COMPLIANCEVOLTAGE	IQUANT	0	Compliance Voltage
ZCURVE	TABLE
	Pt	Time	Freq	Zreal	Zimag	Zsig	Zmod	Zphz	Idc	Vdc	IERange
	#	s	Hz	ohm	ohm	V	ohm	°	A	V	#
	0	7	300046.9	94.5043	0.0841842	1	94.50433	0.0510389	6.070436E-005	-0.0018051	9
	1	10	238359.4	95.313	-0.0220815	1	95.313	-0.0132739	-3.254432E-005	-0.0005298	9
	2	13	189328.1	95.873	-0.057006	1	95.873	-0.034068	8.787441E-006	0.0007347	9
	3	16	150421.9	96.5676	-0.3284095	1	96.5682	-0.1948521	1.802826E-005	-0.0004454	9
	4	18	119484.4	97.0969	-0.2810261	1	97.0973	-0.1658299	4.527259E-005	-0.0002922	9
	5	21	94921.88	97.6753	-0.0843902	1	97.6753	-0.0495028	-1.156867E-005	0.0007927	9
	6	23	75421.88	98.1599	-0.1817772	1	98.1601	-0.1061029	1.257948E-005	-0.0006541	9
	7	26	59859.37	98.7142	-0.3465017	1	98.7148	-0.201116	5.574391E-006	-0.0004943	9
	8	28	47578.12	99.3068	-0.3746549	1	99.3075	-0.2161589	-1.372166E-005	0.0001589	9
	9	31	37828.12	99.8018	-0.462276	1	99.8029	-0.2653887	1.162992E-005	-0.0006051	9
	10	34	30046.88	100.3797	-0.5432071	1	100.3811	-0.3100546	1.222252E-005	-0.0006363	9
	11	36	23859.38	100.8625	-0.6090689	1	100.8643	-0.3459826	-2.790398E-006	-0.0002177	9
	12	38	18984.38	101.3621	-0.7325915	1	101.3648	-0.4140962	-1.865895E-005	0.0004983	9
	13	41	15046.87	101.7575	-0.831496	1	101.7609	-0.4681734	1.308495E-005	-0.0006319	9
	14	43	11953.13	102.3394	-1.028437	1	102.3446	-0.5757617	2.167871E-006	0.0004336	9
	15	45	9515.62	102.8953	-1.195412	1	102.9022	-0.6656184	-5.671806E-006	0.0006502	9
	16	48	7546.875	103.4124	-1.421839	1	103.4221	-0.7877222	1.856935E-005	-0.0006961	9
	17	50	5928.309	103.9251	-1.773687	1	103.9403	-0.97777	-5.988732E-006	0.0007164	9
	18	52	4733.456	104.5109	-2.099508	1	104.532	-1.150853	5.547282E-006	-0.0004631	9
	19	55	3796.875	105.111	-2.656308	1	105.1446	-1.447639	2.204805E-005	-0.0002046	9
	20	57	2987.132	105.6799	-3.210258	1	105.7287	-1.739949	-1.759216E-005	0.0008539	9
	21	59	2390.625	106.2907	-3.992094	1	106.3657	-2.150918	1.572449E-006	0.0005316	9
	22	62	1884.191	106.8855	-5.132913	1	107.0087	-2.749376	-1.239274E-005	0.0008227	9
	23	64	1516.544	107.5624	-6.036966	1	107.7317	-3.21237	-1.442734E-005	0.0001847	9
	24	66	1193.986	108.2943	-7.482545	1	108.5525	-3.952543	-1.656529E-005	0.0003613	9
	25	69	946.5144	109.0775	-9.208927	1	109.4656	-4.825781	-1.667294E-005	0.000866	9
	26	71	751.7689	109.9526	-11.48476	1	110.5508	-5.96303	1.297154E-005	-0.0006295	9
	27	73	597.4265	110.8026	-14.11371	1	111.6978	-7.259079	2.183276E-005	-0.0002278	9
	28	76	477.4305	111.7927	-17.29956	1	113.1233	-8.796561	1.209954E-006	8.155253E-005	9
	29	78	376.6741	112.9615	-21.48242	1	114.986	-10.76763	1.294064E-006	7.435637E-005	9
	30	80	298.2954	114.3018	-26.57448	1	117.3503	-13.08841	1.218894E-006	8.345349E-005	9
	31	83	237.7717	115.8565	-32.66146	1	120.3724	-15.74383	1.222546E-006	7.89866E-005	9
	32	85	189.0121	117.6981	-40.20554	1	124.3758	-18.86011	1.237361E-006	8.370644E-005	9
	33	88	150.2404	119.8749	-49.43488	1	129.6681	-22.41062	1.234367E-006	7.324124E-005	9
	34	90	119.1737	122.4662	-60.83467	1	136.7437	-26.41573	1.101922E-006	9.054213E-005	9
	35	93	95.0169	125.5073	-74.45894	1	145.9322	-30.67912	1.331187E-006	7.73796E-005	9
	36	95	75.60484	129.1312	-91.21951	1	158.1008	-35.23775	1.272554E-006	7.832191E-005	9
	37	98	54.50582	135.246	-121.9247	1	182.0909	-42.03476	1.187951E-006	7.747628E-005	9
	38	100	45.95588	139.3679	-141.9007	1	198.895	-45.51593	1.237087E-006	9.235265E-005	9
	39	103	37.20238	145.086	-171.2309	1	224.4326	-49.725	1.251716E-006	8.174378E-005	9
	40	105	30.04808	151.9726	-207.158	1	256.9243	-53.73596	1.351807E-006	7.887911E-005	9
	41	107	23.91582	160.8439	-254.0423	1	300.6797	-57.66052	1.229735E-006	8.125913E-005	9
	42	110	18.60119	172.829	-318.133	1	362.0476	-61.48653	1.367348E-006	8.592291E-005	9
	43	112	15.02404	184.8313	-383.5352	1	425.7486	-64.26989	2.715365E-007	0.0006516	8
	44	114	12.01923	201.3992	-468.4034	1	509.866	-66.73377	1.301677E-007	0.0006587	8
	45	117	9.450605	223.812	-580.8963	1	622.5209	-68.92896	2.308887E-007	0.0006651	8
	46	119	7.512019	251.1	-713.0327	1	755.9543	-70.59989	2.780604E-007	0.0006688	8
	47	122	5.978954	285.5333	-873.8682	1	919.3339	-71.90538	2.943026E-007	0.000641	8
	48	125	4.734848	331.2635	-1075.159	1	1125.034	-72.8756	2.468429E-007	0.0006794	8
	49	128	3.75601	388.9439	-1319.962	1	1376.073	-73.58171	2.123833E-007	0.0006571	8
	50	132	3.004808	460.2436	-1604.794	1	1669.488	-73.99748	1.806902E-007	0.0006935	8
	51	136	2.372217	555.5487	-1970.607	1	2047.419	-74.25592	2.190953E-007	0.0006871	8
	52	140	1.878005	683.0876	-2414.62	1	2509.382	-74.20398	2.429958E-007	0.0006402	8
	53	145	1.512097	825.1789	-2905.724	1	3020.622	-74.14631	2.208523E-007	0.0007336	8
	54	150	1.201923	1025.563	-3532.072	1	3677.95	-73.80895	2.473678E-007	0.0006637	8
	55	156	0.956633	1273.54	-4279.554	1	4465.029	-73.42767	-4.135894E-008	-1.438582E-005	7
