EXPLAIN
TAG	EISPOT
TITLE	LABEL	Potentiostatic EIS	Test Identifier
DATE	LABEL	2/24/2021	Date
TIME	LABEL	21:01:44	Time
NOTES	NOTES	1	Notes...
	
PSTAT	PSTAT	REF3000-16137	Potentiostat
VDC	POTEN	0.00000E+000	T	DC Voltage (V)
FREQINIT	QUANT	3.00000E+005	Initial Freq. (Hz)
FREQFINAL	QUANT	1.00000E+000	Final Freq. (Hz)
PTSPERDEC	QUANT	1.00000E+001	Points/decade
VAC	QUANT	5.00000E+001	AC Voltage (mV rms)
AREA	QUANT	1.00000E+000	Sample Area (cm^2)
SPEED	SELECTOR	2	Optimize for:
ZGUESS	QUANT	1.00000E+003	Estimated Z (ohms)
EOC	QUANT	0	Open Circuit (V)
SEQUENCER	TOGGLE	TRUE	Run as Sequence
PSTATMODEL	IQUANT	5	Pstat Model
PSTATSECTION	LABEL	REF3000-16137	Pstat Section
PSTATSERIALNO	LABEL	16137	Pstat Serial Number
CTRLMODE	IQUANT	1	Control Mode
IESTAB	IQUANT	0	I/E Stability
CASPEED	IQUANT	1	Control Amp Speed
CONVENTION	IQUANT	1	Current Convention
ICHRANGE	IQUANT	2	Ich Range
ICHRANGEMODE	TOGGLE	F	Ich Auto Range
ICHOFFSETENABLE	TOGGLE	T	Ich Offset Enable
ICHOFFSET	QUANT	0	Ich Offset (V)
ICHFILTER	IQUANT	3	Ich Filter
VCHRANGE	IQUANT	2	Vch Range
VCHRANGEMODE	TOGGLE	F	Vch Auto Range
VCHOFFSETENABLE	TOGGLE	T	Vch Offset Enable
VCHOFFSET	QUANT	0	Vch Offset (V)
VCHFILTER	IQUANT	3	Vch Filter
ACHRANGE	IQUANT	2	Ach Range
ACHOFFSETENABLE	TOGGLE	F	Ach Offset Enable
ACHOFFSET	QUANT	0	Ach Offset (V)
ACHFILTER	IQUANT	3	Ach Filter
IERANGELOWERLIMIT	IQUANT	2	I/E Range Lower Limit
IERANGEMODE	TOGGLE	F	I/E AutoRange
IERANGE	IQUANT	11	I/E Range
POSFEEDENABLE	TOGGLE	F	Positive Feedback IR Comp
POSFEEDRESISTANCE	QUANT	0	Positive Feedback Resistance (ohm)
ACHSELECT	IQUANT	0	Ach Select
CABLEID	IQUANT	13	Cable ID
DCCALDATE	LABEL	7/31/2020	DC Calibration Date
ACCALDATE	LABEL	7/31/2020	AC Calibration Date
THERMOSELECT	IQUANT	1	Thermo Select
FRAMEWORKVERSION	QUANT	6.33	Framework Version
INSTRUMENTVERSION	LABEL	3.50	Instrument Version
COMPLIANCEVOLTAGE	IQUANT	0	Compliance Voltage
ZCURVE	TABLE
	Pt	Time	Freq	Zreal	Zimag	Zsig	Zmod	Zphz	Idc	Vdc	IERange
	#	s	Hz	ohm	ohm	V	ohm	°	A	V	#
	0	10	300046.9	2.49257	2.217517	1	3.336209	41.65792	-0.0001276	-0.0004029	11
	1	13	238359.4	2.461186	1.762213	1	3.027017	35.60271	-8.444684E-005	-0.0001005	11
	2	16	189328.1	2.427366	1.387988	1	2.796179	29.76128	4.594482E-005	0.0001698	11
	3	19	150421.9	2.460047	0.958247	1	2.640089	21.28209	-0.0001844	0.000259	12
	4	23	119484.4	2.403638	0.8460643	1	2.548195	19.39172	3.525159E-005	0.0006133	11
	5	26	94921.88	2.418049	0.5651019	1	2.483204	13.15403	-0.0000982	0.000513	12
	6	30	75421.88	2.408619	0.4152123	1	2.444145	9.78086	-9.304671E-005	0.0004947	12
	7	34	59859.37	2.405437	0.2864416	1	2.422432	6.790854	-3.775433E-005	0.0005301	12
	8	37	47578.12	2.406915	0.17496	1	2.413266	4.157549	-4.81909E-005	0.0005686	12
	9	41	37828.12	2.40962	0.1093453	1	2.4121	2.598223	-2.910877E-006	0.0006834	11
	10	43	30046.88	2.41633	0.0068461	1	2.41634	0.1623346	-2.687026E-005	0.0006869	11
	11	46	23859.38	2.424088	-0.0939652	1	2.425909	-2.219852	6.041491E-006	0.0007058	11
	12	48	18984.38	2.433653	-0.1964375	1	2.441568	-4.614747	-2.15406E-005	0.0006656	11
	13	50	15046.87	2.447475	-0.3086762	1	2.466863	-7.188207	7.992168E-006	0.0007349	11
	14	53	11953.13	2.464222	-0.43216	1	2.50183	-9.94703	-4.089064E-005	0.0007038	11
	15	55	9515.62	2.483942	-0.5729055	1	2.549154	-12.98779	-6.804996E-006	0.00071	11
	16	57	7546.875	2.510401	-0.7393856	1	2.617022	-16.41123	-3.212954E-005	0.0007042	11
	17	60	5928.309	2.543494	-0.9468254	1	2.714009	-20.41797	-2.877518E-005	0.0007067	11
	18	62	4733.456	2.582258	-1.179287	1	2.838798	-24.54562	-4.688851E-005	0.0006924	11
	19	64	3796.875	2.628172	-1.453267	1	3.00321	-28.94073	-2.231864E-005	0.0007066	11
	20	67	2987.132	2.688256	-1.815155	1	3.243687	-34.02788	-2.985396E-005	0.0006915	11
	21	69	2390.625	2.758095	-2.224881	1	3.543612	-38.89219	3.066009E-006	0.0007233	11
	22	71	1884.191	2.850632	-2.768177	1	3.973526	-44.15924	-3.772048E-005	0.0006901	10
	23	74	1516.544	2.953568	-3.3698	1	4.480973	-48.76602	-7.719764E-006	0.0006578	10
	24	76	1193.986	3.09325	-4.183965	1	5.203245	-53.52409	-3.49817E-005	0.0006869	10
	25	78	946.5144	3.265794	-5.158808	1	6.105629	-57.66406	-3.12843E-005	0.0006969	10
	26	81	751.7689	3.478528	-6.345231	1	7.236167	-61.26794	-4.762889E-007	0.000655	10
	27	83	597.4265	3.745862	-7.80149	1	8.654175	-64.35215	-2.847366E-005	0.0006744	10
	28	85	477.4305	4.076888	-9.54031	1	10.3749	-66.86139	-1.332978E-005	0.0006814	10
	29	88	376.6741	4.523727	-11.79286	1	12.63074	-69.01325	-1.383498E-005	0.0006803	10
	30	90	298.2954	5.088616	-14.52071	1	15.38652	-70.68758	-1.337497E-005	0.0006812	10
	31	92	237.7717	5.793422	-17.7576	1	18.67876	-71.93107	-1.317962E-005	0.0006756	10
	32	95	189.0121	6.71006	-21.75002	1	22.76155	-72.85458	-1.363502E-005	0.0006741	10
	33	97	150.2404	7.890687	-26.59628	1	27.74211	-73.47522	-1.391885E-005	0.0006779	10
	34	100	119.1737	9.426469	-32.54731	1	33.88489	-73.84774	-1.3251E-005	0.0006824	10
	35	102	95.0169	11.35595	-39.56442	1	41.16189	-73.98523	-1.403442E-005	0.0006817	10
	36	104	75.60484	13.82985	-48.0185	1	49.97041	-73.93302	-1.135954E-005	7.957147E-005	9
	37	107	54.50582	18.6103	-63.16904	1	65.8534	-73.58444	-1.13829E-005	8.318895E-005	9
	38	109	45.95588	21.80092	-72.71613	1	75.91386	-73.31082	-1.112089E-005	9.064947E-005	9
	39	112	37.20238	26.53391	-86.35846	1	90.34286	-72.92026	-1.1225E-005	8.877458E-005	9
	40	114	30.04808	32.27035	-102.4747	1	107.4358	-72.52025	-1.13514E-005	8.893086E-005	9
	41	117	23.91582	39.66442	-122.9347	1	129.1751	-72.1179	-1.124627E-005	8.733741E-005	9
	42	119	18.60119	49.30025	-149.8536	1	157.7549	-71.78934	-1.127861E-005	8.088426E-005	9
	43	121	15.02404	59.20572	-177.4367	1	187.0537	-71.54757	-1.076902E-005	9.410007E-005	9
	44	124	12.01923	71.57156	-211.7653	1	223.5331	-71.32599	-1.12445E-005	8.346242E-005	9
	45	126	9.450605	88.10909	-256.7305	1	271.4291	-71.05795	-1.113468E-005	0.0000958	9
	46	129	7.512019	107.9335	-308.6648	1	326.9918	-70.72636	-1.104229E-005	7.591635E-005	9
	47	131	5.978954	132.9985	-370.8393	1	393.9675	-70.27004	-1.104956E-005	8.690788E-005	9
	48	134	4.734848	166.2092	-445.4321	1	475.4316	-69.53737	-1.148549E-005	0.0006723	8
	49	138	3.75601	209.9698	-535.2402	1	574.9516	-68.58038	-1.160531E-005	0.0006629	8
	50	141	3.004808	266.1935	-636.5212	1	689.9407	-67.30529	-1.138673E-005	0.0006434	8
	51	145	2.372217	346.1568	-760.3818	1	835.4669	-65.52303	-1.145491E-005	0.0006211	8
	52	149	1.878005	453.5681	-897.2225	1	1005.352	-63.18227	-1.137407E-005	0.0006806	8
	53	154	1.512097	581.9019	-1033.068	1	1185.681	-60.60851	-1.131558E-005	0.0005855	8
	54	159	1.201923	755.6838	-1184.772	1	1405.256	-57.46903	-1.12796E-005	0.0007015	8
	55	165	0.956633	968.486	-1327.757	1	1643.443	-53.89241	-1.147158E-005	3.129636E-005	8
