EXPLAIN
TAG	EISPOT
TITLE	LABEL	Potentiostatic EIS	Test Identifier
DATE	LABEL	2/24/2021	Date
TIME	LABEL	22:00:28	Time
NOTES	NOTES	1	Notes...
	
PSTAT	PSTAT	REF3000-16137	Potentiostat
VDC	POTEN	0.00000E+000	T	DC Voltage (V)
FREQINIT	QUANT	3.00000E+005	Initial Freq. (Hz)
FREQFINAL	QUANT	1.00000E+000	Final Freq. (Hz)
PTSPERDEC	QUANT	1.00000E+001	Points/decade
VAC	QUANT	5.00000E+001	AC Voltage (mV rms)
AREA	QUANT	1.00000E+000	Sample Area (cm^2)
SPEED	SELECTOR	2	Optimize for:
ZGUESS	QUANT	1.00000E+003	Estimated Z (ohms)
EOC	QUANT	0	Open Circuit (V)
SEQUENCER	TOGGLE	TRUE	Run as Sequence
PSTATMODEL	IQUANT	5	Pstat Model
PSTATSECTION	LABEL	REF3000-16137	Pstat Section
PSTATSERIALNO	LABEL	16137	Pstat Serial Number
CTRLMODE	IQUANT	1	Control Mode
IESTAB	IQUANT	0	I/E Stability
CASPEED	IQUANT	1	Control Amp Speed
CONVENTION	IQUANT	1	Current Convention
ICHRANGE	IQUANT	2	Ich Range
ICHRANGEMODE	TOGGLE	F	Ich Auto Range
ICHOFFSETENABLE	TOGGLE	T	Ich Offset Enable
ICHOFFSET	QUANT	0	Ich Offset (V)
ICHFILTER	IQUANT	3	Ich Filter
VCHRANGE	IQUANT	2	Vch Range
VCHRANGEMODE	TOGGLE	F	Vch Auto Range
VCHOFFSETENABLE	TOGGLE	T	Vch Offset Enable
VCHOFFSET	QUANT	0	Vch Offset (V)
VCHFILTER	IQUANT	3	Vch Filter
ACHRANGE	IQUANT	2	Ach Range
ACHOFFSETENABLE	TOGGLE	F	Ach Offset Enable
ACHOFFSET	QUANT	0	Ach Offset (V)
ACHFILTER	IQUANT	3	Ach Filter
IERANGELOWERLIMIT	IQUANT	2	I/E Range Lower Limit
IERANGEMODE	TOGGLE	F	I/E AutoRange
IERANGE	IQUANT	11	I/E Range
POSFEEDENABLE	TOGGLE	F	Positive Feedback IR Comp
POSFEEDRESISTANCE	QUANT	0	Positive Feedback Resistance (ohm)
ACHSELECT	IQUANT	0	Ach Select
CABLEID	IQUANT	13	Cable ID
DCCALDATE	LABEL	7/31/2020	DC Calibration Date
ACCALDATE	LABEL	7/31/2020	AC Calibration Date
THERMOSELECT	IQUANT	1	Thermo Select
FRAMEWORKVERSION	QUANT	6.33	Framework Version
INSTRUMENTVERSION	LABEL	3.50	Instrument Version
COMPLIANCEVOLTAGE	IQUANT	0	Compliance Voltage
ZCURVE	TABLE
	Pt	Time	Freq	Zreal	Zimag	Zsig	Zmod	Zphz	Idc	Vdc	IERange
	#	s	Hz	ohm	ohm	V	ohm	°	A	V	#
	0	6	300046.9	51.50757	1.953421	1	51.5446	2.171897	5.798623E-005	-0.0023253	9
	1	10	238359.4	51.8812	1.500744	1	51.9029	1.656907	-1.19562E-005	-0.0011279	9
	2	13	189328.1	52.185	1.112353	1	52.19685	1.221108	5.243932E-005	-0.0015314	9
	3	15	150421.9	52.3824	0.8314371	1	52.389	0.909348	1.567364E-005	-0.0004941	9
	4	18	119484.4	52.69633	0.6363088	1	52.70017	0.6918136	4.331876E-006	0.0007279	9
	5	20	94921.88	52.98913	0.6376593	1	52.99297	0.6894512	-1.34474E-005	0.0002903	9
	6	23	75421.88	53.19773	0.435818	1	53.19951	0.4693805	3.981768E-006	-0.0003883	9
	7	26	59859.37	53.41953	0.2470302	1	53.4201	0.2649535	1.972506E-005	-0.0005156	9
	8	28	47578.12	53.67643	0.0776632	1	53.67649	0.0828999	3.414982E-006	-0.0003285	9
	9	31	37828.12	53.92722	-0.0643044	1	53.92725	-0.0683211	2.029009E-005	-0.0004755	9
	10	33	30046.88	54.18979	-0.2039554	1	54.19017	-0.2156445	-2.626399E-006	-0.0001498	9
	11	36	23859.38	54.44576	-0.3350003	1	54.44679	-0.3525318	-1.62893E-005	0.000429	9
	12	38	18984.38	54.67746	-0.4641989	1	54.67943	-0.4864162	1.971636E-005	-0.0002234	9
	13	40	15046.87	54.92112	-0.6155809	1	54.92457	-0.6421703	-5.43745E-006	-4.172001E-005	9
	14	43	11953.13	55.15924	-0.7843279	1	55.16482	-0.8146532	-1.645812E-005	0.0006144	9
	15	45	9515.62	55.42306	-1.004139	1	55.43215	-1.037955	-8.687573E-006	5.615355E-005	9
	16	47	7546.875	55.64705	-1.261807	1	55.66135	-1.298969	-3.637049E-006	0.0005841	9
	17	50	5928.309	55.95605	-1.575831	1	55.97824	-1.613134	3.438784E-006	-0.0003115	9
	18	52	4733.456	56.23002	-1.961447	1	56.26422	-1.997814	2.056677E-005	-0.0003678	9
	19	54	3796.875	56.52964	-2.375732	1	56.57954	-2.406514	1.827976E-005	-0.0005474	9
	20	57	2987.132	56.83512	-2.988064	1	56.91362	-3.009512	-1.661998E-005	0.0005643	9
	21	59	2390.625	57.1747	-3.670942	1	57.29243	-3.673673	1.995806E-005	-0.0003192	9
	22	61	1884.191	57.52932	-4.600143	1	57.71294	-4.571742	-1.666521E-005	0.000465	9
	23	63	1516.544	57.87745	-5.567899	1	58.14465	-5.495032	9.851543E-006	0.0001472	9
	24	66	1193.986	58.33846	-6.938282	1	58.7496	-6.782416	-9.718891E-006	0.0006793	9
	25	68	946.5144	58.80288	-8.574668	1	59.42477	-8.296427	2.230832E-006	0.0003509	9
	26	71	751.7689	59.3352	-10.62264	1	60.27858	-10.15	1.017923E-005	-0.0004679	9
	27	73	597.4265	59.97513	-13.07277	1	61.38333	-12.29642	-3.887885E-006	0.0005591	9
	28	75	477.4305	60.69005	-16.04981	1	62.77642	-14.81307	1.225143E-006	8.069324E-005	9
	29	78	376.6741	61.57163	-19.90251	1	64.70839	-17.91299	1.242155E-006	7.995543E-005	9
	30	80	298.2954	62.61512	-24.57212	1	67.26398	-21.42659	1.244846E-006	8.026792E-005	9
	31	82	237.7717	63.84611	-30.12522	1	70.59642	-25.25987	1.232199E-006	8.340632E-005	9
	32	85	189.0121	65.32246	-36.9878	1	75.06745	-29.52002	1.180138E-006	7.974137E-005	9
	33	87	150.2404	67.07694	-45.38182	1	80.98658	-34.08085	1.312746E-006	7.807167E-005	9
	34	90	119.1737	69.17564	-55.76604	1	88.85449	-38.87407	1.197322E-006	8.815972E-005	9
	35	92	95.0169	71.61785	-68.20685	1	98.9004	-43.60255	1.294529E-006	8.11184E-005	9
	36	94	75.60484	74.56561	-83.60223	1	112.0239	-48.26994	1.283803E-006	8.171961E-005	9
	37	97	54.50582	79.7449	-111.9385	1	137.439	-54.53397	1.220372E-006	7.914584E-005	9
	38	100	45.95588	83.2239	-130.4312	1	154.7207	-57.45937	1.220136E-006	8.724348E-005	9
	39	102	37.20238	88.23579	-157.6098	1	180.6278	-60.75828	1.343895E-006	7.763232E-005	9
	40	104	30.04808	94.452	-190.8868	1	212.9764	-63.67351	1.358379E-006	7.160073E-005	9
	41	107	23.91582	102.6891	-234.293	1	255.809	-66.33247	1.308956E-006	7.950945E-005	9
	42	109	18.60119	114.1692	-293.5561	1	314.9758	-68.74805	1.261067E-006	7.576691E-005	9
	43	111	15.02404	126.6232	-355.3337	1	377.2207	-70.38647	1.339133E-006	9.412613E-005	9
	44	114	12.01923	142.3923	-431.8215	1	454.6926	-71.75013	2.365393E-007	0.0006526	8
	45	116	9.450605	164.8803	-534.8103	1	559.6495	-72.86564	2.97377E-007	0.0006494	8
	46	119	7.512019	192.3951	-655.3619	1	683.0191	-73.63931	2.342355E-007	0.0006463	8
	47	121	5.978954	227.97	-801.0188	1	832.8274	-74.11364	2.180863E-007	0.0006637	8
	48	124	4.734848	275.0677	-982.999	1	1020.759	-74.36705	3.239493E-007	0.0006647	8
	49	128	3.75601	334.0598	-1201.124	1	1246.714	-74.45754	2.326308E-007	0.0006479	8
	50	131	3.004808	407.4818	-1452.825	1	1508.888	-74.3325	3.154623E-007	0.0006555	8
	51	135	2.372217	510.0055	-1772.949	1	1844.846	-73.95162	3.128091E-007	0.0007251	8
	52	139	1.878005	633.1203	-2156.711	1	2247.72	-73.63996	2.733725E-007	0.0006374	8
	53	144	1.512097	775.0352	-2569.829	1	2684.157	-73.2172	3.295247E-007	0.0006801	8
	54	149	1.201923	961.004	-3103.554	1	3248.935	-72.79505	3.072918E-007	0.000633	8
	55	155	0.956633	1181.453	-3725.991	1	3908.816	-72.407	2.785549E-007	1.640396E-005	8
