EXPLAIN
TAG	EISPOT
TITLE	LABEL	Potentiostatic EIS	Test Identifier
DATE	LABEL	2/24/2021	Date
TIME	LABEL	22:20:58	Time
NOTES	NOTES	1	Notes...
	
PSTAT	PSTAT	REF3000-16137	Potentiostat
VDC	POTEN	0.00000E+000	T	DC Voltage (V)
FREQINIT	QUANT	3.00000E+005	Initial Freq. (Hz)
FREQFINAL	QUANT	1.00000E+000	Final Freq. (Hz)
PTSPERDEC	QUANT	1.00000E+001	Points/decade
VAC	QUANT	5.00000E+001	AC Voltage (mV rms)
AREA	QUANT	1.00000E+000	Sample Area (cm^2)
SPEED	SELECTOR	2	Optimize for:
ZGUESS	QUANT	1.00000E+003	Estimated Z (ohms)
EOC	QUANT	0	Open Circuit (V)
SEQUENCER	TOGGLE	TRUE	Run as Sequence
PSTATMODEL	IQUANT	5	Pstat Model
PSTATSECTION	LABEL	REF3000-16137	Pstat Section
PSTATSERIALNO	LABEL	16137	Pstat Serial Number
CTRLMODE	IQUANT	1	Control Mode
IESTAB	IQUANT	0	I/E Stability
CASPEED	IQUANT	1	Control Amp Speed
CONVENTION	IQUANT	1	Current Convention
ICHRANGE	IQUANT	2	Ich Range
ICHRANGEMODE	TOGGLE	F	Ich Auto Range
ICHOFFSETENABLE	TOGGLE	T	Ich Offset Enable
ICHOFFSET	QUANT	0	Ich Offset (V)
ICHFILTER	IQUANT	3	Ich Filter
VCHRANGE	IQUANT	2	Vch Range
VCHRANGEMODE	TOGGLE	F	Vch Auto Range
VCHOFFSETENABLE	TOGGLE	T	Vch Offset Enable
VCHOFFSET	QUANT	0	Vch Offset (V)
VCHFILTER	IQUANT	3	Vch Filter
ACHRANGE	IQUANT	2	Ach Range
ACHOFFSETENABLE	TOGGLE	F	Ach Offset Enable
ACHOFFSET	QUANT	0	Ach Offset (V)
ACHFILTER	IQUANT	3	Ach Filter
IERANGELOWERLIMIT	IQUANT	2	I/E Range Lower Limit
IERANGEMODE	TOGGLE	F	I/E AutoRange
IERANGE	IQUANT	11	I/E Range
POSFEEDENABLE	TOGGLE	F	Positive Feedback IR Comp
POSFEEDRESISTANCE	QUANT	0	Positive Feedback Resistance (ohm)
ACHSELECT	IQUANT	0	Ach Select
CABLEID	IQUANT	13	Cable ID
DCCALDATE	LABEL	7/31/2020	DC Calibration Date
ACCALDATE	LABEL	7/31/2020	AC Calibration Date
THERMOSELECT	IQUANT	1	Thermo Select
FRAMEWORKVERSION	QUANT	6.33	Framework Version
INSTRUMENTVERSION	LABEL	3.50	Instrument Version
COMPLIANCEVOLTAGE	IQUANT	0	Compliance Voltage
ZCURVE	TABLE
	Pt	Time	Freq	Zreal	Zimag	Zsig	Zmod	Zphz	Idc	Vdc	IERange
	#	s	Hz	ohm	ohm	V	ohm	°	A	V	#
	0	20	300046.9	789.9959	-213.0566	1	818.2216	-15.09319	-1.88558E-005	0.0013409	9
	1	32	238359.4	844.4643	-199.6653	1	867.7477	-13.30272	-8.795993E-005	0.0038444	9
	2	49	189328.1	893.7313	-177.845	1	911.2543	-11.25436	1.880243E-005	-0.0019368	9
	3	59	150421.9	931.9321	-154.2672	1	944.6141	-9.399211	1.78962E-005	-0.0007978	9
	4	65	119484.4	967.548	-104.1333	1	973.136	-6.142868	-6.990396E-006	0.0112229	8
	5	72	94921.88	989.665	-83.19456	1	993.155	-4.80518	8.489243E-006	0.0024095	8
	6	74	75421.88	1001.985	-75.35435	1	1004.815	-4.300837	-1.90869E-005	0.0060532	8
	7	77	59859.37	1012.514	-63.2655	1	1014.489	-3.575397	1.071387E-005	-0.0062755	8
	8	79	47578.12	1022.858	-49.76863	1	1024.068	-2.785611	1.86474E-005	-0.0025849	8
	9	82	37828.12	1032.189	-41.51441	1	1033.023	-2.303183	2.02436E-005	-0.0042701	8
	10	85	30046.88	1044.193	-37.6549	1	1044.872	-2.065262	4.006371E-006	-0.0049816	8
	11	87	23859.38	1055.341	-30.89384	1	1055.793	-1.676786	1.93809E-005	-0.00289	8
	12	90	18984.38	1064.434	-26.4918	1	1064.764	-1.425692	2.046468E-005	-0.0058647	8
	13	93	15046.87	1077.074	-19.9376	1	1077.259	-1.060475	-6.723872E-006	0.0073146	8
	14	95	11953.13	1087.498	-19.19081	1	1087.667	-1.010979	1.087047E-005	-0.0065689	8
	15	100	9515.62	1100.651	-16.44911	1	1100.773	-0.8562158	-1.867326E-005	0.0048329	8
	16	102	7546.875	1106.137	-10.58972	1	1106.188	-0.5485103	-7.0464E-006	0.0074556	8
	17	105	5928.309	1117.079	-10.99421	1	1117.133	-0.5638825	1.940834E-005	-0.0068516	8
	18	109	4733.456	1131.557	-8.161572	1	1131.587	-0.4132495	-1.970541E-005	0.0063723	8
	19	112	3796.875	1143.794	-12.68181	1	1143.864	-0.6352411	1.607861E-005	-0.0071258	8
	20	115	2987.132	1154.578	-13.44924	1	1154.656	-0.6673865	-1.40497E-005	0.0015704	8
	21	118	2390.625	1167.998	-7.52379	1	1168.022	-0.3690722	-1.944128E-005	0.0078068	8
	22	122	1884.191	1179.444	-7.182103	1	1179.466	-0.3488924	-1.971988E-005	0.0078071	8
	23	126	1516.544	1196.274	-9.93808	1	1196.316	-0.4759751	8.539216E-006	0.0025679	8
	24	129	1193.986	1209.08	-12.34185	1	1209.143	-0.5848343	-9.300385E-006	-0.0006929	8
	25	134	946.5144	1226.837	-13.40197	1	1226.911	-0.6258742	-2.038428E-005	0.0065861	8
	26	136	751.7689	1231.092	-8.752131	1	1231.123	-0.4073226	2.124403E-005	-0.0045591	8
	27	139	597.4265	1244.435	-23.51797	1	1244.657	-1.082676	-1.410654E-005	0.0014956	8
	28	141	477.4305	1255.761	-24.60406	1	1256.002	-1.12245	-1.287269E-007	0.000667	8
	29	144	376.6741	1265.956	-29.77826	1	1266.306	-1.347483	-1.26207E-007	0.000665	8
	30	146	298.2954	1276.28	-36.32136	1	1276.797	-1.630127	-8.966487E-008	0.0006501	8
	31	148	237.7717	1287.24	-44.2055	1	1287.999	-1.966839	-9.364197E-008	0.0006604	8
	32	151	189.0121	1298.458	-54.14805	1	1299.587	-2.387953	-7.908416E-008	0.0006604	8
	33	153	150.2404	1310.256	-66.35595	1	1311.935	-2.899182	-1.053515E-007	0.0006711	8
	34	156	119.1737	1322.419	-81.74423	1	1324.943	-3.53719	-1.549276E-007	0.0006619	8
	35	158	95.0169	1335.43	-100.2138	1	1339.185	-4.291566	-1.260335E-007	0.0006605	8
	36	161	75.60484	1349.482	-123.2436	1	1355.098	-5.218156	-9.86998E-008	0.0006513	8
	37	163	54.50582	1366.814	-165.8337	1	1376.838	-6.917807	-6.925103E-008	0.0006564	8
	38	166	45.95588	1381.644	-193.205	1	1395.087	-7.960452	-1.827243E-007	0.0006636	8
	39	168	37.20238	1398.515	-234.9171	1	1418.108	-9.5353	-2.191608E-007	0.0006658	8
	40	170	30.04808	1417.34	-284.3032	1	1445.573	-11.3424	-1.692722E-007	0.0006728	8
	41	173	23.91582	1438.369	-349.6944	1	1480.267	-13.66457	1.400195E-008	0.0006384	8
	42	175	18.60119	1466.002	-438.411	1	1530.152	-16.6494	-7.470967E-008	0.000673	8
	43	177	15.02404	1493.763	-531.6454	1	1585.552	-19.59116	5.732398E-008	0.000651	8
	44	180	12.01923	1525.877	-646.2678	1	1657.095	-22.95452	-2.227708E-007	0.0006437	8
	45	182	9.450605	1564.542	-803.1737	1	1758.659	-27.17416	-2.003651E-008	0.0006561	8
	46	185	7.512019	1612.444	-983.812	1	1888.878	-31.38891	-9.408336E-008	0.000688	8
	47	187	5.978954	1667.959	-1202.28	1	2056.104	-35.78439	-1.285117E-007	0.0006544	8
	48	191	4.734848	1734.56	-1478.255	1	2279.021	-40.43885	-3.857619E-008	0.0006667	8
	49	194	3.75601	1815.455	-1811.955	1	2564.967	-44.94473	-1.332685E-007	0.0006687	8
	50	197	3.004808	1907.982	-2207.398	1	2917.705	-49.16124	-1.216344E-007	0.0007036	8
	51	201	2.372217	2022.22	-2722.36	1	3391.256	-53.39434	-1.047625E-007	0.0006836	8
	52	205	1.878005	2166.044	-3352.048	1	3990.987	-57.13005	-1.052456E-007	0.0006377	8
	53	210	1.512097	2335.457	-4076.354	1	4697.98	-60.1904	-2.881566E-008	0.0007314	7
	54	215	1.201923	2545.347	-5011.114	1	5620.503	-63.07215	-2.285351E-008	0.0006171	7
	55	222	0.956633	2801.156	-6148.681	1	6756.682	-65.5074	-5.529027E-008	-1.420816E-005	7
