EXPLAIN
TAG	EISPOT
TITLE	LABEL	Potentiostatic EIS	Test Identifier
DATE	LABEL	2/24/2021	Date
TIME	LABEL	21:24:21	Time
NOTES	NOTES	1	Notes...
	
PSTAT	PSTAT	REF3000-16137	Potentiostat
VDC	POTEN	0.00000E+000	T	DC Voltage (V)
FREQINIT	QUANT	3.00000E+005	Initial Freq. (Hz)
FREQFINAL	QUANT	1.00000E+000	Final Freq. (Hz)
PTSPERDEC	QUANT	1.00000E+001	Points/decade
VAC	QUANT	5.00000E+001	AC Voltage (mV rms)
AREA	QUANT	1.00000E+000	Sample Area (cm^2)
SPEED	SELECTOR	2	Optimize for:
ZGUESS	QUANT	1.00000E+003	Estimated Z (ohms)
EOC	QUANT	0	Open Circuit (V)
SEQUENCER	TOGGLE	TRUE	Run as Sequence
PSTATMODEL	IQUANT	5	Pstat Model
PSTATSECTION	LABEL	REF3000-16137	Pstat Section
PSTATSERIALNO	LABEL	16137	Pstat Serial Number
CTRLMODE	IQUANT	1	Control Mode
IESTAB	IQUANT	0	I/E Stability
CASPEED	IQUANT	1	Control Amp Speed
CONVENTION	IQUANT	1	Current Convention
ICHRANGE	IQUANT	2	Ich Range
ICHRANGEMODE	TOGGLE	F	Ich Auto Range
ICHOFFSETENABLE	TOGGLE	T	Ich Offset Enable
ICHOFFSET	QUANT	0	Ich Offset (V)
ICHFILTER	IQUANT	3	Ich Filter
VCHRANGE	IQUANT	2	Vch Range
VCHRANGEMODE	TOGGLE	F	Vch Auto Range
VCHOFFSETENABLE	TOGGLE	T	Vch Offset Enable
VCHOFFSET	QUANT	0	Vch Offset (V)
VCHFILTER	IQUANT	3	Vch Filter
ACHRANGE	IQUANT	2	Ach Range
ACHOFFSETENABLE	TOGGLE	F	Ach Offset Enable
ACHOFFSET	QUANT	0	Ach Offset (V)
ACHFILTER	IQUANT	3	Ach Filter
IERANGELOWERLIMIT	IQUANT	2	I/E Range Lower Limit
IERANGEMODE	TOGGLE	F	I/E AutoRange
IERANGE	IQUANT	11	I/E Range
POSFEEDENABLE	TOGGLE	F	Positive Feedback IR Comp
POSFEEDRESISTANCE	QUANT	0	Positive Feedback Resistance (ohm)
ACHSELECT	IQUANT	0	Ach Select
CABLEID	IQUANT	13	Cable ID
DCCALDATE	LABEL	7/31/2020	DC Calibration Date
ACCALDATE	LABEL	7/31/2020	AC Calibration Date
THERMOSELECT	IQUANT	1	Thermo Select
FRAMEWORKVERSION	QUANT	6.33	Framework Version
INSTRUMENTVERSION	LABEL	3.50	Instrument Version
COMPLIANCEVOLTAGE	IQUANT	0	Compliance Voltage
ZCURVE	TABLE
	Pt	Time	Freq	Zreal	Zimag	Zsig	Zmod	Zphz	Idc	Vdc	IERange
	#	s	Hz	ohm	ohm	V	ohm	°	A	V	#
	0	11	300046.9	4.661212	2.235253	1	5.169455	25.61974	-0.0001007	7.627025E-005	10
	1	14	238359.4	4.651386	1.767892	1	4.976026	20.81072	-4.393148E-005	-0.0001393	10
	2	17	189328.1	4.638773	1.393828	1	4.843653	16.72413	1.25621E-005	6.130288E-005	10
	3	19	150421.9	4.622999	1.09371	1	4.750612	13.31032	-1.874718E-005	0.0002201	10
	4	22	119484.4	4.627488	0.8436276	1	4.703759	10.33201	1.086075E-007	0.0004426	10
	5	24	94921.88	4.634055	0.6586022	1	4.680622	8.088833	-2.402311E-005	0.0004939	10
	6	27	75421.88	4.639269	0.4838973	1	4.664437	5.954683	-1.67096E-005	0.0005218	10
	7	30	59859.37	4.646555	0.3348072	1	4.658602	4.121321	-2.26963E-005	0.0005773	10
	8	32	47578.12	4.655523	0.2051043	1	4.660039	2.522599	-2.189009E-005	0.0006109	10
	9	35	37828.12	4.668295	0.0878855	1	4.669122	1.078526	-9.192654E-006	0.0006112	10
	10	37	30046.88	4.682726	-0.0231564	1	4.682784	-0.2833294	-2.555426E-005	0.0006827	10
	11	40	23859.38	4.697384	-0.1330604	1	4.699268	-1.622554	2.156223E-005	0.000665	10
	12	42	18984.38	4.713852	-0.2456702	1	4.72025	-2.983365	-3.443012E-005	0.0006625	10
	13	44	15046.87	4.734149	-0.3701476	1	4.748598	-4.470674	-2.577844E-005	0.0007089	10
	14	47	11953.13	4.755779	-0.5090448	1	4.782945	-6.109513	-1.367865E-005	0.0006645	10
	15	49	9515.62	4.783142	-0.6693295	1	4.829746	-7.965963	1.326915E-005	0.0006587	10
	16	51	7546.875	4.81602	-0.8612375	1	4.892421	-10.1389	1.945068E-005	0.000682	10
	17	54	5928.309	4.85747	-1.101311	1	4.980753	-12.77444	-7.077626E-006	0.0006677	10
	18	56	4733.456	4.905482	-1.372658	1	5.093913	-15.63274	-2.925004E-005	0.0007035	10
	19	58	3796.875	4.962662	-1.693475	1	5.24365	-18.84186	-1.82658E-005	0.0006744	10
	20	60	2987.132	5.039077	-2.116625	1	5.465565	-22.78446	-2.145619E-005	0.0006896	10
	21	63	2390.625	5.124916	-2.597892	1	5.745764	-26.88109	1.20638E-005	0.000704	10
	22	65	1884.191	5.236752	-3.224216	1	6.149726	-31.62019	1.445023E-005	0.0006828	10
	23	67	1516.544	5.361106	-3.922592	1	6.642905	-36.19203	1.770861E-005	0.0006711	10
	24	70	1193.986	5.524811	-4.866517	1	7.362508	-41.37513	-3.167776E-005	0.0007063	10
	25	72	946.5144	5.72271	-5.991287	1	8.285224	-46.31344	8.66632E-006	0.0006592	10
	26	75	751.7689	5.956315	-7.379395	1	9.483309	-51.0911	4.567009E-007	0.0006955	10
	27	77	597.4265	6.248506	-9.069646	1	11.01373	-55.43521	8.535158E-007	0.0006629	10
	28	79	477.4305	6.60382	-11.10253	1	12.91807	-59.25568	-6.160254E-006	0.0006911	10
	29	81	376.6741	7.075012	-13.7415	1	15.45589	-62.75766	-6.057848E-006	0.0006884	10
	30	84	298.2954	7.660578	-16.94773	1	18.59865	-65.67645	-6.312195E-006	0.0006927	10
	31	86	237.7717	8.380199	-20.77423	1	22.40082	-68.03115	-6.177474E-006	0.0006894	10
	32	89	189.0121	9.305487	-25.51716	1	27.16096	-69.96432	-6.433444E-006	0.0006922	10
	33	91	150.2404	10.4854	-31.33044	1	33.03847	-71.49609	-6.166902E-006	0.000693	10
	34	93	119.1737	12.01469	-38.50842	1	40.3392	-72.67199	-5.828372E-006	0.0006967	10
	35	96	95.0169	13.91486	-47.01152	1	49.02761	-73.51186	-2.454331E-006	9.427124E-005	9
	36	98	75.60484	16.39848	-57.49699	1	59.78975	-74.08154	-2.435662E-006	9.104791E-005	9
	37	101	54.50582	21.25231	-76.50785	1	79.40473	-74.4758	-2.478158E-006	8.714396E-005	9
	38	103	45.95588	24.57811	-88.68215	1	92.02504	-74.50938	-2.300281E-006	9.107138E-005	9
	39	106	37.20238	29.64024	-106.2406	1	110.2979	-74.41135	-2.480598E-006	8.980017E-005	9
	40	108	30.04808	36.07278	-127.2658	1	132.2793	-74.17491	-2.384284E-006	8.954945E-005	9
	41	111	23.91582	44.72514	-153.9546	1	160.3195	-73.80096	-2.367463E-006	8.666517E-005	9
	42	113	18.60119	56.72579	-189.0648	1	197.3913	-73.29899	-2.205523E-006	9.236858E-005	9
	43	115	15.02404	69.25085	-224.4677	1	234.9073	-72.85441	-2.449774E-006	8.342304E-005	9
	44	117	12.01923	84.71251	-267.7573	1	280.8383	-72.44378	-2.066341E-006	8.805858E-005	9
	45	120	9.450605	104.4912	-323.7077	1	340.1545	-72.11018	-2.294337E-006	8.745633E-005	9
	46	122	7.512019	126.5308	-387.756	1	407.8783	-71.92769	-2.300348E-006	8.533692E-005	9
	47	125	5.978954	151.7336	-462.7778	1	487.0179	-71.84694	-2.931003E-006	0.0006764	8
	48	128	4.734848	183.2384	-557.7398	1	587.069	-71.81271	-2.937645E-006	0.0006492	8
	49	131	3.75601	221.8449	-672.4849	1	708.1321	-71.74288	-2.754062E-006	0.0006979	8
	50	135	3.004808	267.9362	-805.8911	1	849.2645	-71.60947	-2.761395E-006	0.0006536	8
	51	139	2.372217	331.4032	-976.937	1	1031.617	-71.26169	-2.830382E-006	0.0006052	8
	52	143	1.878005	409.8295	-1182.995	1	1251.973	-70.89218	-2.702082E-006	0.0006707	8
	53	148	1.512097	502.3624	-1407.845	1	1494.79	-70.36204	-2.760442E-006	0.0007046	8
	54	153	1.201923	635.865	-1694.799	1	1810.156	-69.4346	-2.685377E-006	0.00068	8
	55	159	0.956633	805.9836	-2026.256	1	2180.67	-68.30882	-2.827999E-006	2.964934E-005	8
