EXPLAIN
TAG	EISPOT
TITLE	LABEL	Potentiostatic EIS	Test Identifier
DATE	LABEL	2/24/2021	Date
TIME	LABEL	22:39:34	Time
NOTES	NOTES	1	Notes...
	
PSTAT	PSTAT	REF3000-16137	Potentiostat
VDC	POTEN	0.00000E+000	T	DC Voltage (V)
FREQINIT	QUANT	3.00000E+005	Initial Freq. (Hz)
FREQFINAL	QUANT	1.00000E+000	Final Freq. (Hz)
PTSPERDEC	QUANT	1.00000E+001	Points/decade
VAC	QUANT	5.00000E+001	AC Voltage (mV rms)
AREA	QUANT	1.00000E+000	Sample Area (cm^2)
SPEED	SELECTOR	2	Optimize for:
ZGUESS	QUANT	1.00000E+003	Estimated Z (ohms)
EOC	QUANT	0	Open Circuit (V)
SEQUENCER	TOGGLE	TRUE	Run as Sequence
PSTATMODEL	IQUANT	5	Pstat Model
PSTATSECTION	LABEL	REF3000-16137	Pstat Section
PSTATSERIALNO	LABEL	16137	Pstat Serial Number
CTRLMODE	IQUANT	1	Control Mode
IESTAB	IQUANT	0	I/E Stability
CASPEED	IQUANT	1	Control Amp Speed
CONVENTION	IQUANT	1	Current Convention
ICHRANGE	IQUANT	2	Ich Range
ICHRANGEMODE	TOGGLE	F	Ich Auto Range
ICHOFFSETENABLE	TOGGLE	T	Ich Offset Enable
ICHOFFSET	QUANT	0	Ich Offset (V)
ICHFILTER	IQUANT	3	Ich Filter
VCHRANGE	IQUANT	2	Vch Range
VCHRANGEMODE	TOGGLE	F	Vch Auto Range
VCHOFFSETENABLE	TOGGLE	T	Vch Offset Enable
VCHOFFSET	QUANT	0	Vch Offset (V)
VCHFILTER	IQUANT	3	Vch Filter
ACHRANGE	IQUANT	2	Ach Range
ACHOFFSETENABLE	TOGGLE	F	Ach Offset Enable
ACHOFFSET	QUANT	0	Ach Offset (V)
ACHFILTER	IQUANT	3	Ach Filter
IERANGELOWERLIMIT	IQUANT	2	I/E Range Lower Limit
IERANGEMODE	TOGGLE	F	I/E AutoRange
IERANGE	IQUANT	11	I/E Range
POSFEEDENABLE	TOGGLE	F	Positive Feedback IR Comp
POSFEEDRESISTANCE	QUANT	0	Positive Feedback Resistance (ohm)
ACHSELECT	IQUANT	0	Ach Select
CABLEID	IQUANT	13	Cable ID
DCCALDATE	LABEL	7/31/2020	DC Calibration Date
ACCALDATE	LABEL	7/31/2020	AC Calibration Date
THERMOSELECT	IQUANT	1	Thermo Select
FRAMEWORKVERSION	QUANT	6.33	Framework Version
INSTRUMENTVERSION	LABEL	3.50	Instrument Version
COMPLIANCEVOLTAGE	IQUANT	0	Compliance Voltage
ZCURVE	TABLE
	Pt	Time	Freq	Zreal	Zimag	Zsig	Zmod	Zphz	Idc	Vdc	IERange
	#	s	Hz	ohm	ohm	V	ohm	°	A	V	#
	0	25	300046.9	408.3024	-3920.415	1	3941.62	-84.05421	9.08278E-005	-0.0027508	9
	1	39	238359.4	613.4423	-4777.443	1	4816.667	-82.68304	2.31896E-005	0.0010494	9
	2	54	189328.1	683.5206	-5680.475	1	5721.451	-83.13869	5.491279E-007	-0.0019256	9
	3	62	150421.9	942.983	-7236.001	1	7297.187	-82.57516	7.848638E-005	-0.0015819	9
	4	69	119484.4	1918.8	-8962.802	1	9165.894	-77.91624	-1.757341E-005	0.0167814	8
	5	77	94921.88	2474.491	-11192.06	1	11462.34	-77.53284	-1.516319E-005	5.965406E-005	9
	6	85	75421.88	3501.646	-13554.59	1	13999.59	-75.51509	1.598859E-005	-0.0091219	8
	7	93	59859.37	4928.014	-16753.76	1	17463.5	-73.60909	8.755432E-006	0.0039807	8
	8	101	47578.12	9122.715	-20625.17	1	22552.64	-66.13972	1.202177E-006	-0.018823	7
	9	108	37828.12	11205.48	-24900.17	1	27305.33	-65.77148	-6.467755E-006	0.0120778	7
	10	114	30046.88	12962.03	-30037.57	1	32714.98	-66.65849	2.236531E-005	-0.0096593	8
	11	123	23859.38	15802.07	-35449.17	1	38811.71	-65.97427	-1.136802E-005	0.0100502	8
	12	129	18984.38	24990.75	-40351.32	1	47463.32	-58.22886	6.604374E-006	-0.0261134	7
	13	134	15046.87	36165.95	-43383.9	1	56481.32	-50.18453	-1.311528E-006	0.0074613	8
	14	141	11953.13	41864.04	-51240.69	1	66168.02	-50.75092	-7.108473E-006	0.0186264	7
	15	146	9515.62	52785.34	-56088.52	1	77020.88	-46.73779	-3.3198E-006	-0.004613	7
	16	152	7546.875	65352.18	-59504.09	1	88383.51	-42.31831	-7.124118E-006	0.0186749	7
	17	157	5928.309	79735.62	-60813.41	1	100279.8	-37.33234	6.565179E-006	-0.0260626	7
	18	162	4733.456	92741.42	-61937.4	1	111522.3	-33.737	-1.125154E-006	-0.0123849	7
	19	168	3796.875	114811	-49947.21	1	125205	-23.5109	-5.459343E-009	0.0165131	6
	20	172	2987.132	124113.5	-46628.81	1	132583.6	-20.59095	-6.262915E-007	0.0100011	6
	21	176	2390.625	133935.4	-42103.43	1	140397.3	-17.45086	-7.07495E-007	0.0172345	6
	22	180	1884.191	140758.7	-37090.04	1	145563.3	-14.76194	7.978236E-009	0.0163799	6
	23	185	1516.544	147996.3	-32822.6	1	151592.3	-12.50465	5.896376E-007	-0.0071307	6
	24	189	1193.986	155258.5	-28984.4	1	157940.7	-10.57453	2.179413E-007	0.0096664	6
	25	194	946.5144	162041	-26875.51	1	164254.6	-9.417137	-7.251734E-007	0.0177301	6
	26	196	751.7689	166951.2	-25817.7	1	168935.6	-8.790712	-1.971753E-007	0.0210629	6
	27	199	597.4265	173514.4	-18933.7	1	174544.4	-6.227412	4.250645E-007	0.0016231	6
	28	201	477.4305	173510.5	-15506.93	1	174202.1	-5.107053	-8.432431E-009	0.000704	6
	29	204	376.6741	176733	-12920.75	1	177204.7	-4.181391	-7.603674E-009	0.0006394	6
	30	206	298.2954	179531.4	-11048.78	1	179871.1	-3.521672	-8.947021E-009	0.0007236	6
	31	208	237.7717	182754.4	-9151.467	1	182983.4	-2.866704	-8.519939E-009	0.0006502	6
	32	211	189.0121	185784	-7829.522	1	185948.9	-2.413197	-8.321376E-009	0.0007114	6
	33	213	150.2404	188804.7	-6469.742	1	188915.5	-1.962578	-8.570472E-009	0.0006984	6
	34	216	119.1737	192399.5	-5331.908	1	192473.3	-1.587414	-7.715621E-009	0.0006463	6
	35	219	95.0169	194648.8	-4868.411	1	194709.6	-1.432741	-7.856819E-009	0.0006305	6
	36	221	75.60484	197736.9	-3596.412	1	197769.6	-1.041973	-8.926157E-009	0.0007069	6
	37	224	54.50582	199645.7	-3535.018	1	199677	-1.014399	-8.686237E-009	0.000706	6
	38	226	45.95588	203662.6	-2734.112	1	203680.9	-0.7691331	-8.258207E-009	0.000691	6
	39	229	37.20238	206727.2	-2290.04	1	206739.9	-0.6346734	-8.246319E-009	0.0006693	6
	40	231	30.04808	209900.1	-2409.491	1	209913.9	-0.6576825	-8.713148E-009	0.0007218	6
	41	234	23.91582	212882.8	-2036.691	1	212892.6	-0.5481431	-8.237674E-009	0.0006564	6
	42	236	18.60119	215702.6	-2265.999	1	215714.5	-0.6018815	-7.906354E-009	0.0007158	6
	43	238	15.02404	219099.2	-2126.239	1	219109.5	-0.556007	-7.675346E-009	0.0006822	6
	44	241	12.01923	222329.2	-2127.837	1	222339.4	-0.5483418	-9.440752E-009	0.0007101	6
	45	243	9.450605	225738.4	-2369.306	1	225750.8	-0.6013431	-7.523273E-009	0.0007128	6
	46	246	7.512019	229593.7	-2630.322	1	229608.8	-0.6563758	-6.762863E-009	0.0006784	6
	47	249	5.978954	234565.1	-3004.076	1	234584.3	-0.733747	-6.752411E-009	0.0006596	6
	48	253	4.734848	239887.8	-3378.433	1	239911.6	-0.8068652	-7.975265E-009	0.0007053	6
	49	257	3.75601	248362.3	-4120.856	1	248396.4	-0.950571	-5.430891E-009	0.0007131	6
	50	264	3.004808	257485.7	-4844.062	1	257531.3	-1.077775	-6.000915E-009	0.0006326	6
	51	270	2.372217	265814.5	-5664.404	1	265874.9	-1.220766	-7.542259E-009	0.0005959	6
	52	274	1.878005	273244	-7021.717	1	273334.3	-1.47204	-5.413692E-009	0.000676	6
	53	279	1.512097	282012	-8542.281	1	282141.3	-1.734987	-4.060048E-009	0.0006051	6
	54	284	1.201923	292215.4	-10155.92	1	292391.8	-1.990509	-6.861719E-009	0.0006996	6
	55	291	0.956633	304312.1	-12831.92	1	304582.5	-2.41456	-1.165963E-008	2.820104E-005	6
