EXPLAIN
TAG	EISPOT
TITLE	LABEL	Potentiostatic EIS	Test Identifier
DATE	LABEL	2/24/2021	Date
TIME	LABEL	21:41:02	Time
NOTES	NOTES	1	Notes...
	
PSTAT	PSTAT	REF3000-16137	Potentiostat
VDC	POTEN	0.00000E+000	T	DC Voltage (V)
FREQINIT	QUANT	3.00000E+005	Initial Freq. (Hz)
FREQFINAL	QUANT	1.00000E+000	Final Freq. (Hz)
PTSPERDEC	QUANT	1.00000E+001	Points/decade
VAC	QUANT	5.00000E+001	AC Voltage (mV rms)
AREA	QUANT	1.00000E+000	Sample Area (cm^2)
SPEED	SELECTOR	2	Optimize for:
ZGUESS	QUANT	1.00000E+003	Estimated Z (ohms)
EOC	QUANT	0	Open Circuit (V)
SEQUENCER	TOGGLE	TRUE	Run as Sequence
PSTATMODEL	IQUANT	5	Pstat Model
PSTATSECTION	LABEL	REF3000-16137	Pstat Section
PSTATSERIALNO	LABEL	16137	Pstat Serial Number
CTRLMODE	IQUANT	1	Control Mode
IESTAB	IQUANT	0	I/E Stability
CASPEED	IQUANT	1	Control Amp Speed
CONVENTION	IQUANT	1	Current Convention
ICHRANGE	IQUANT	2	Ich Range
ICHRANGEMODE	TOGGLE	F	Ich Auto Range
ICHOFFSETENABLE	TOGGLE	T	Ich Offset Enable
ICHOFFSET	QUANT	0	Ich Offset (V)
ICHFILTER	IQUANT	3	Ich Filter
VCHRANGE	IQUANT	2	Vch Range
VCHRANGEMODE	TOGGLE	F	Vch Auto Range
VCHOFFSETENABLE	TOGGLE	T	Vch Offset Enable
VCHOFFSET	QUANT	0	Vch Offset (V)
VCHFILTER	IQUANT	3	Vch Filter
ACHRANGE	IQUANT	2	Ach Range
ACHOFFSETENABLE	TOGGLE	F	Ach Offset Enable
ACHOFFSET	QUANT	0	Ach Offset (V)
ACHFILTER	IQUANT	3	Ach Filter
IERANGELOWERLIMIT	IQUANT	2	I/E Range Lower Limit
IERANGEMODE	TOGGLE	F	I/E AutoRange
IERANGE	IQUANT	11	I/E Range
POSFEEDENABLE	TOGGLE	F	Positive Feedback IR Comp
POSFEEDRESISTANCE	QUANT	0	Positive Feedback Resistance (ohm)
ACHSELECT	IQUANT	0	Ach Select
CABLEID	IQUANT	13	Cable ID
DCCALDATE	LABEL	7/31/2020	DC Calibration Date
ACCALDATE	LABEL	7/31/2020	AC Calibration Date
THERMOSELECT	IQUANT	1	Thermo Select
FRAMEWORKVERSION	QUANT	6.33	Framework Version
INSTRUMENTVERSION	LABEL	3.50	Instrument Version
COMPLIANCEVOLTAGE	IQUANT	0	Compliance Voltage
ZCURVE	TABLE
	Pt	Time	Freq	Zreal	Zimag	Zsig	Zmod	Zphz	Idc	Vdc	IERange
	#	s	Hz	ohm	ohm	V	ohm	°	A	V	#
	0	8	300046.9	10.71306	2.152568	1	10.92718	11.36112	-1.953816E-005	0.0002136	10
	1	12	238359.4	10.72883	1.695256	1	10.86194	8.979034	4.322829E-005	0.0002482	10
	2	15	189328.1	10.75407	1.33489	1	10.8366	7.075869	-4.523865E-005	0.0004803	10
	3	17	150421.9	10.77832	1.041004	1	10.82847	5.516697	-8.422773E-005	0.0006512	10
	4	20	119484.4	10.78798	0.8005347	1	10.81764	4.243922	6.068234E-006	0.0006365	10
	5	22	94921.88	10.81395	0.6247663	1	10.83199	3.306536	-4.242872E-006	0.0005859	10
	6	25	75421.88	10.84092	0.4453569	1	10.85006	2.352451	-3.748738E-006	0.0006053	10
	7	27	59859.37	10.87298	0.2924064	1	10.87691	1.540481	-1.319683E-005	0.0006294	10
	8	30	47578.12	10.90722	0.161126	1	10.90841	0.8463358	-1.803161E-005	0.0006528	10
	9	32	37828.12	10.94345	0.0433764	1	10.94354	0.2271011	-3.493753E-006	0.0007091	10
	10	35	30046.88	10.98011	-0.0704219	1	10.98034	-0.3674663	2.195454E-005	0.0006907	10
	11	38	23859.38	11.01727	-0.1858258	1	11.01884	-0.966303	1.823882E-005	0.0006404	10
	12	40	18984.38	11.05465	-0.3065051	1	11.0589	-1.588196	-1.18564E-005	0.0006557	10
	13	42	15046.87	11.09687	-0.4409764	1	11.10562	-2.27567	1.656474E-005	0.0007037	10
	14	44	11953.13	11.13943	-0.5955287	1	11.15534	-3.060194	-2.972055E-005	0.0006783	10
	15	47	9515.62	11.18937	-0.7727174	1	11.21602	-3.95047	-3.10806E-005	0.0006713	10
	16	49	7546.875	11.24302	-0.986161	1	11.28619	-5.012764	-1.057211E-005	0.0006832	10
	17	51	5928.309	11.30637	-1.258528	1	11.3762	-6.351529	-1.37539E-005	0.0006687	10
	18	54	4733.456	11.37646	-1.567964	1	11.484	-7.847371	-7.326291E-006	0.0006908	10
	19	56	3796.875	11.45494	-1.934976	1	11.61722	-9.58793	2.08058E-005	0.0006451	10
	20	58	2987.132	11.55459	-2.424401	1	11.80619	-11.84999	-2.397104E-005	0.0007236	10
	21	61	2390.625	11.66733	-2.98317	1	12.04267	-14.34243	-3.817979E-006	0.0007221	10
	22	63	1884.191	11.80994	-3.714137	1	12.38021	-17.45797	2.270798E-005	0.0006614	10
	23	65	1516.544	11.97235	-4.525229	1	12.79902	-20.70525	1.135501E-005	0.0006349	10
	24	68	1193.986	12.18656	-5.622736	1	13.42115	-24.76805	-1.567969E-005	0.0007048	10
	25	70	946.5144	12.4415	-6.923388	1	14.23812	-29.09487	-2.115639E-005	0.0007329	10
	26	72	751.7689	12.73729	-8.518669	1	15.32339	-33.77451	-1.629637E-005	0.0007039	10
	27	75	597.4265	13.09194	-10.46311	1	16.75934	-38.63192	-6.788007E-006	0.0006976	10
	28	77	477.4305	13.51505	-12.78232	1	18.60227	-43.40397	-4.11619E-006	0.000685	10
	29	79	376.6741	14.05011	-15.80427	1	21.14665	-48.36268	-4.150077E-006	0.0006788	10
	30	82	298.2954	14.69497	-19.48262	1	24.40317	-52.97419	-3.513878E-006	0.0006833	10
	31	84	237.7717	15.47029	-23.88808	1	28.45997	-57.07228	-3.373437E-006	0.0006885	10
	32	87	189.0121	16.43967	-29.36426	1	33.65297	-60.75758	-3.102611E-006	0.0006889	10
	33	89	150.2404	17.65005	-36.09814	1	40.18209	-63.94386	-2.948756E-006	0.0006774	10
	34	91	119.1737	19.16232	-44.40489	1	48.36309	-66.65806	3.486661E-007	8.252463E-005	9
	35	94	95.0169	21.05756	-54.41974	1	58.35177	-68.8462	4.033589E-007	8.034261E-005	9
	36	96	75.60484	23.48388	-66.78989	1	70.79817	-70.6279	3.418484E-007	8.022773E-005	9
	37	99	54.50582	28.14443	-89.45384	1	93.77686	-72.53511	2.89586E-007	7.873579E-005	9
	38	101	45.95588	31.332	-104.1253	1	108.7372	-73.25311	5.483151E-007	8.657939E-005	9
	39	104	37.20238	36.19364	-125.5701	1	130.6822	-73.92119	3.951447E-007	9.325703E-005	9
	40	106	30.04808	42.38898	-151.5538	1	157.3702	-74.37391	4.55523E-007	7.938042E-005	9
	41	108	23.91582	50.86605	-185.0034	1	191.8688	-74.62659	4.943348E-007	8.066565E-005	9
	42	111	18.60119	63.03333	-230.0621	1	238.5409	-74.67788	5.274586E-007	8.166571E-005	9
	43	113	15.02404	76.32704	-276.3524	1	286.6992	-74.56013	3.089186E-007	7.486879E-005	9
	44	115	12.01923	93.90865	-333.6534	1	346.6171	-74.28044	5.006085E-007	7.718642E-005	9
	45	118	9.450605	117.9201	-407.3989	1	424.1215	-73.85711	6.764665E-007	9.395992E-005	9
	46	120	7.512019	145.9307	-489.6667	1	510.9494	-73.40487	-1.781925E-007	0.0006764	8
	47	123	5.978954	180.5885	-588.0121	1	615.1182	-72.92738	-2.782192E-007	0.0006595	8
	48	126	4.734848	223.1251	-707.6624	1	742.0046	-72.5	-2.188143E-007	0.0006425	8
	49	129	3.75601	272.4908	-849.6984	1	892.322	-72.21941	-1.748085E-007	0.0006704	8
	50	133	3.004808	327.8421	-1013.137	1	1064.86	-72.06888	-1.285349E-007	0.0006343	8
	51	136	2.372217	396.4965	-1223.111	1	1285.772	-72.03883	-1.754969E-007	0.0005995	8
	52	141	1.878005	479.4824	-1475.015	1	1550.991	-71.99223	-1.539223E-007	0.0006724	8
	53	145	1.512097	573.1109	-1756.042	1	1847.197	-71.92512	-1.68072E-007	0.0005742	8
	54	151	1.201923	691.9712	-2122.657	1	2232.599	-71.9444	-1.453629E-007	0.000691	8
	55	157	0.956633	841.5706	-2561.056	1	2695.784	-71.80933	-1.911522E-007	1.767639E-005	8
