EXPLAIN
TAG	EISPOT
TITLE	LABEL	Potentiostatic EIS	Test Identifier
DATE	LABEL	2/24/2021	Date
TIME	LABEL	21:52:05	Time
NOTES	NOTES	1	Notes...
	
PSTAT	PSTAT	REF3000-16137	Potentiostat
VDC	POTEN	0.00000E+000	T	DC Voltage (V)
FREQINIT	QUANT	3.00000E+005	Initial Freq. (Hz)
FREQFINAL	QUANT	1.00000E+000	Final Freq. (Hz)
PTSPERDEC	QUANT	1.00000E+001	Points/decade
VAC	QUANT	5.00000E+001	AC Voltage (mV rms)
AREA	QUANT	1.00000E+000	Sample Area (cm^2)
SPEED	SELECTOR	2	Optimize for:
ZGUESS	QUANT	1.00000E+003	Estimated Z (ohms)
EOC	QUANT	0	Open Circuit (V)
SEQUENCER	TOGGLE	TRUE	Run as Sequence
PSTATMODEL	IQUANT	5	Pstat Model
PSTATSECTION	LABEL	REF3000-16137	Pstat Section
PSTATSERIALNO	LABEL	16137	Pstat Serial Number
CTRLMODE	IQUANT	1	Control Mode
IESTAB	IQUANT	0	I/E Stability
CASPEED	IQUANT	1	Control Amp Speed
CONVENTION	IQUANT	1	Current Convention
ICHRANGE	IQUANT	2	Ich Range
ICHRANGEMODE	TOGGLE	F	Ich Auto Range
ICHOFFSETENABLE	TOGGLE	T	Ich Offset Enable
ICHOFFSET	QUANT	0	Ich Offset (V)
ICHFILTER	IQUANT	3	Ich Filter
VCHRANGE	IQUANT	2	Vch Range
VCHRANGEMODE	TOGGLE	F	Vch Auto Range
VCHOFFSETENABLE	TOGGLE	T	Vch Offset Enable
VCHOFFSET	QUANT	0	Vch Offset (V)
VCHFILTER	IQUANT	3	Vch Filter
ACHRANGE	IQUANT	2	Ach Range
ACHOFFSETENABLE	TOGGLE	F	Ach Offset Enable
ACHOFFSET	QUANT	0	Ach Offset (V)
ACHFILTER	IQUANT	3	Ach Filter
IERANGELOWERLIMIT	IQUANT	2	I/E Range Lower Limit
IERANGEMODE	TOGGLE	F	I/E AutoRange
IERANGE	IQUANT	11	I/E Range
POSFEEDENABLE	TOGGLE	F	Positive Feedback IR Comp
POSFEEDRESISTANCE	QUANT	0	Positive Feedback Resistance (ohm)
ACHSELECT	IQUANT	0	Ach Select
CABLEID	IQUANT	13	Cable ID
DCCALDATE	LABEL	7/31/2020	DC Calibration Date
ACCALDATE	LABEL	7/31/2020	AC Calibration Date
THERMOSELECT	IQUANT	1	Thermo Select
FRAMEWORKVERSION	QUANT	6.33	Framework Version
INSTRUMENTVERSION	LABEL	3.50	Instrument Version
COMPLIANCEVOLTAGE	IQUANT	0	Compliance Voltage
ZCURVE	TABLE
	Pt	Time	Freq	Zreal	Zimag	Zsig	Zmod	Zphz	Idc	Vdc	IERange
	#	s	Hz	ohm	ohm	V	ohm	°	A	V	#
	0	7	300046.9	23.79229	1.477985	1	23.83815	3.554666	6.635943E-005	-0.0004496	11
	1	12	238359.4	23.96564	1.455249	1	24.00979	3.474864	-8.870938E-005	0.0005786	10
	2	16	189328.1	24.06276	0.9227716	1	24.08044	2.196134	-4.429533E-005	0.0003625	11
	3	19	150421.9	24.22962	0.8791606	1	24.24556	2.07804	-1.65501E-005	0.0007307	10
	4	23	119484.4	24.31377	0.5325038	1	24.3196	1.254653	-4.588572E-005	0.000603	11
	5	27	94921.88	24.42037	0.4985917	1	24.42546	1.169648	-2.721999E-005	0.0007198	10
	6	29	75421.88	24.52645	0.2490813	1	24.52772	0.5818542	2.00761E-005	0.0007637	11
	7	33	59859.37	24.64647	0.2074653	1	24.64734	0.4822844	-1.983274E-005	0.0007504	10
	8	35	47578.12	24.74574	0.0849122	1	24.74589	0.1966032	-2.599802E-005	0.000711	10
	9	38	37828.12	24.84246	-0.0307036	1	24.84248	-0.0708136	2.622241E-005	0.0006824	10
	10	40	30046.88	24.93928	-0.1420959	1	24.93968	-0.3264492	-2.81927E-005	0.0006728	10
	11	43	23859.38	25.03876	-0.2600867	1	25.04011	-0.5951305	8.790984E-006	0.0007282	10
	12	45	18984.38	25.13365	-0.3853318	1	25.1366	-0.8783506	4.778022E-006	0.0006632	10
	13	48	15046.87	25.23234	-0.5347161	1	25.238	-1.214013	-2.713118E-005	0.0006834	10
	14	50	11953.13	25.34155	-0.6888566	1	25.35091	-1.557082	-2.377435E-005	0.0006912	10
	15	52	9515.62	25.44381	-0.8834075	1	25.45914	-1.988507	-2.664661E-005	0.0007205	10
	16	55	7546.875	25.55706	-1.109105	1	25.58112	-2.484916	-2.362563E-006	0.0006467	10
	17	57	5928.309	25.68149	-1.417234	1	25.72056	-3.158667	-2.584495E-005	0.0006948	10
	18	59	4733.456	25.81375	-1.760517	1	25.87371	-3.901573	-2.74185E-005	0.0007013	10
	19	61	3796.875	25.94992	-2.163807	1	26.03998	-4.766522	2.323058E-005	0.0007194	10
	20	64	2987.132	26.10886	-2.701557	1	26.24825	-5.907532	-2.134939E-005	0.0007186	10
	21	66	2390.625	26.27982	-3.323007	1	26.48908	-7.206639	-1.185617E-005	0.0006723	10
	22	68	1884.191	26.48932	-4.154335	1	26.81311	-8.913127	-2.153538E-005	0.0007221	10
	23	71	1516.544	26.70053	-5.065378	1	27.17676	-10.74197	1.989899E-005	0.0006363	10
	24	73	1193.986	26.98522	-6.307634	1	27.7126	-13.15634	2.362454E-005	0.0006786	10
	25	76	946.5144	27.31249	-7.793136	1	28.40255	-15.92516	1.306821E-005	0.0006167	10
	26	78	751.7689	27.69797	-9.61886	1	29.32064	-19.15092	-2.195487E-005	0.000728	10
	27	80	597.4265	28.1663	-11.83392	1	30.5513	-22.78945	2.052784E-005	0.0006376	10
	28	82	477.4305	28.71013	-14.47456	1	32.15252	-26.75551	-2.181853E-006	0.0006912	10
	29	85	376.6741	29.39688	-17.8932	1	34.41428	-31.3279	-2.20547E-006	0.0006845	10
	30	87	298.2954	30.20754	-22.03334	1	37.38935	-36.10696	-1.974071E-006	0.0006862	10
	31	89	237.7717	31.11685	-26.93552	1	41.15556	-40.88028	1.025633E-006	8.292644E-005	9
	32	92	189.0121	32.25715	-33.05454	1	46.18578	-45.69949	1.08132E-006	8.606933E-005	9
	33	94	150.2404	33.62849	-40.57642	1	52.7003	-50.3491	9.918105E-007	8.35535E-005	9
	34	97	119.1737	35.3122	-49.92892	1	61.1543	-54.73016	1.020971E-006	8.745641E-005	9
	35	99	95.0169	37.33332	-61.1775	1	71.66913	-58.60654	1.054814E-006	8.446091E-005	9
	36	102	75.60484	39.8604	-75.11825	1	85.03883	-62.048	9.803896E-007	7.829788E-005	9
	37	104	54.50582	44.55802	-100.7752	1	110.1865	-66.14725	1.02527E-006	7.289629E-005	9
	38	107	45.95588	47.74698	-117.4828	1	126.8148	-67.88235	1.132174E-006	8.282165E-005	9
	39	109	37.20238	52.51736	-141.9906	1	151.3916	-69.70233	1.080929E-006	7.660685E-005	9
	40	111	30.04808	58.54458	-171.9193	1	181.6142	-71.19449	1.116015E-006	7.167876E-005	9
	41	114	23.91582	66.67323	-210.7267	1	221.0228	-72.4428	1.063352E-006	7.69623E-005	9
	42	116	18.60119	78.2711	-263.5123	1	274.8911	-73.45699	9.770305E-007	7.779859E-005	9
	43	118	15.02404	90.98132	-318.214	1	330.9649	-74.04411	1.169813E-006	8.348838E-005	9
	44	121	12.01923	107.9741	-387.2751	1	402.0452	-74.42128	1.030473E-006	8.14054E-005	9
	45	123	9.450605	130.9518	-475.4143	1	493.1198	-74.5999	2.839508E-007	0.000679	8
	46	126	7.512019	160.0262	-579.8229	1	601.5007	-74.57095	2.397947E-007	0.0006726	8
	47	128	5.978954	196.9405	-703.9858	1	731.0141	-74.371	2.878465E-007	0.0006654	8
	48	132	4.734848	244.5923	-856.4379	1	890.6802	-74.06105	3.909941E-007	0.0006925	8
	49	135	3.75601	304.6599	-1037.195	1	1081.014	-73.63067	2.200261E-007	0.0006475	8
	50	138	3.004808	375.7141	-1242.839	1	1298.387	-73.17976	3.114119E-007	0.0006489	8
	51	142	2.372217	466.6459	-1500.533	1	1571.419	-72.72499	2.986869E-007	0.0006466	8
	52	146	1.878005	576.5786	-1808.224	1	1897.925	-72.31436	2.71544E-007	0.0006581	8
	53	151	1.512097	692.9245	-2146.6	1	2255.668	-72.10987	3.031862E-007	0.0005566	8
	54	156	1.201923	837.6138	-2577.709	1	2710.384	-71.99869	3.16737E-007	0.0006541	8
	55	162	0.956633	1004.738	-3094.778	1	3253.79	-72.01368	2.929788E-007	1.304616E-005	8
