EXPLAIN
TAG	EISPOT
TITLE	LABEL	Potentiostatic EIS	Test Identifier
DATE	LABEL	2/24/2021	Date
TIME	LABEL	21:21:33	Time
NOTES	NOTES	1	Notes...
	
PSTAT	PSTAT	REF3000-16137	Potentiostat
VDC	POTEN	0.00000E+000	T	DC Voltage (V)
FREQINIT	QUANT	3.00000E+005	Initial Freq. (Hz)
FREQFINAL	QUANT	1.00000E+000	Final Freq. (Hz)
PTSPERDEC	QUANT	1.00000E+001	Points/decade
VAC	QUANT	5.00000E+001	AC Voltage (mV rms)
AREA	QUANT	1.00000E+000	Sample Area (cm^2)
SPEED	SELECTOR	2	Optimize for:
ZGUESS	QUANT	1.00000E+003	Estimated Z (ohms)
EOC	QUANT	0	Open Circuit (V)
SEQUENCER	TOGGLE	TRUE	Run as Sequence
PSTATMODEL	IQUANT	5	Pstat Model
PSTATSECTION	LABEL	REF3000-16137	Pstat Section
PSTATSERIALNO	LABEL	16137	Pstat Serial Number
CTRLMODE	IQUANT	1	Control Mode
IESTAB	IQUANT	0	I/E Stability
CASPEED	IQUANT	1	Control Amp Speed
CONVENTION	IQUANT	1	Current Convention
ICHRANGE	IQUANT	2	Ich Range
ICHRANGEMODE	TOGGLE	F	Ich Auto Range
ICHOFFSETENABLE	TOGGLE	T	Ich Offset Enable
ICHOFFSET	QUANT	0	Ich Offset (V)
ICHFILTER	IQUANT	3	Ich Filter
VCHRANGE	IQUANT	2	Vch Range
VCHRANGEMODE	TOGGLE	F	Vch Auto Range
VCHOFFSETENABLE	TOGGLE	T	Vch Offset Enable
VCHOFFSET	QUANT	0	Vch Offset (V)
VCHFILTER	IQUANT	3	Vch Filter
ACHRANGE	IQUANT	2	Ach Range
ACHOFFSETENABLE	TOGGLE	F	Ach Offset Enable
ACHOFFSET	QUANT	0	Ach Offset (V)
ACHFILTER	IQUANT	3	Ach Filter
IERANGELOWERLIMIT	IQUANT	2	I/E Range Lower Limit
IERANGEMODE	TOGGLE	F	I/E AutoRange
IERANGE	IQUANT	11	I/E Range
POSFEEDENABLE	TOGGLE	F	Positive Feedback IR Comp
POSFEEDRESISTANCE	QUANT	0	Positive Feedback Resistance (ohm)
ACHSELECT	IQUANT	0	Ach Select
CABLEID	IQUANT	13	Cable ID
DCCALDATE	LABEL	7/31/2020	DC Calibration Date
ACCALDATE	LABEL	7/31/2020	AC Calibration Date
THERMOSELECT	IQUANT	1	Thermo Select
FRAMEWORKVERSION	QUANT	6.33	Framework Version
INSTRUMENTVERSION	LABEL	3.50	Instrument Version
COMPLIANCEVOLTAGE	IQUANT	0	Compliance Voltage
ZCURVE	TABLE
	Pt	Time	Freq	Zreal	Zimag	Zsig	Zmod	Zphz	Idc	Vdc	IERange
	#	s	Hz	ohm	ohm	V	ohm	°	A	V	#
	0	10	300046.9	4.187467	2.230155	1	4.744309	28.0388	-2.451698E-005	3.369566E-005	10
	1	14	238359.4	4.182661	1.769883	1	4.541711	22.93554	1.127352E-005	-0.0002902	10
	2	17	189328.1	4.164685	1.396472	1	4.392577	18.53696	2.599159E-005	2.018924E-005	10
	3	19	150421.9	4.162601	1.10242	1	4.306109	14.83361	-0.0000959	0.0002342	10
	4	22	119484.4	4.15485	0.8469642	1	4.240297	11.52185	2.457435E-005	0.000395	10
	5	24	94921.88	4.156006	0.6589783	1	4.207926	9.009838	-9.444676E-006	0.000468	10
	6	27	75421.88	4.161053	0.4855649	1	4.189288	6.655901	2.841496E-005	0.0005172	10
	7	29	59859.37	4.167274	0.3375404	1	4.180922	4.630727	9.202777E-006	0.0005919	10
	8	32	47578.12	4.175017	0.2088705	1	4.180238	2.864043	-2.839467E-005	0.0006345	10
	9	35	37828.12	4.185294	0.0925959	1	4.186318	1.267412	1.800351E-005	0.000634	10
	10	37	30046.88	4.197552	-0.0176958	1	4.197589	-0.2415428	1.049063E-006	0.0006288	10
	11	40	23859.38	4.211673	-0.1264334	1	4.21357	-1.719489	-6.608931E-006	0.0006857	10
	12	42	18984.38	4.227253	-0.2379543	1	4.233945	-3.221809	3.581665E-006	0.0006969	10
	13	44	15046.87	4.244728	-0.3607397	1	4.260029	-4.85763	1.476126E-005	0.0006451	10
	14	47	11953.13	4.265777	-0.4977007	1	4.294713	-6.65478	1.440503E-005	0.0006614	10
	15	49	9515.62	4.292171	-0.6547784	1	4.341828	-8.673701	-1.882049E-005	0.0006926	10
	16	51	7546.875	4.322571	-0.8429658	1	4.404	-11.03503	1.373714E-005	0.0006558	10
	17	53	5928.309	4.363445	-1.079361	1	4.494961	-13.89402	-9.115741E-006	0.0006624	10
	18	56	4733.456	4.409992	-1.345518	1	4.610689	-16.9673	-3.003203E-005	0.0006876	10
	19	58	3796.875	4.46456	-1.658503	1	4.76266	-20.37912	-1.411067E-005	0.0006698	10
	20	60	2987.132	4.538805	-2.072896	1	4.989755	-24.54643	1.190754E-005	0.0006563	10
	21	63	2390.625	4.621756	-2.543141	1	5.275243	-28.82198	-2.314978E-005	0.0006748	10
	22	65	1884.191	4.731061	-3.157073	1	5.68771	-33.71549	-2.901498E-005	0.0006876	10
	23	67	1516.544	4.850437	-3.840907	1	6.187027	-38.37458	-8.700978E-006	0.0006627	10
	24	70	1193.986	5.00823	-4.764433	1	6.912467	-43.57095	1.669289E-005	0.000673	10
	25	72	946.5144	5.196449	-5.877896	1	7.845556	-48.52119	-1.093758E-005	0.0006602	10
	26	75	751.7689	5.430414	-7.230737	1	9.04284	-53.09279	-2.587446E-005	0.0007058	10
	27	77	597.4265	5.716664	-8.89172	1	10.57085	-57.26223	-1.951042E-005	0.0007039	10
	28	79	477.4305	6.070384	-10.87919	1	12.45818	-60.8393	-6.787795E-006	0.0006954	10
	29	81	376.6741	6.537082	-13.46248	1	14.96569	-64.09982	-7.080343E-006	0.0006903	10
	30	84	298.2954	7.119414	-16.60124	1	18.06342	-66.78801	-7.667994E-006	0.0006905	10
	31	86	237.7717	7.837077	-20.34487	1	21.80215	-68.93275	-6.896159E-006	0.0006859	10
	32	89	189.0121	8.760651	-24.98224	1	26.47379	-70.6755	-6.970514E-006	0.0006875	10
	33	91	150.2404	9.94298	-30.66042	1	32.23235	-72.03245	-6.240992E-006	0.0006869	10
	34	93	119.1737	11.47456	-37.66625	1	39.37527	-73.05728	-6.574502E-006	0.0006896	10
	35	96	95.0169	13.38384	-45.95473	1	47.86402	-73.76235	-3.188647E-006	8.568904E-005	9
	36	98	75.60484	15.8807	-56.16203	1	58.36412	-74.21091	-3.278723E-006	8.777453E-005	9
	37	101	54.50582	20.75134	-74.61879	1	77.45052	-74.45885	-3.256023E-006	8.686057E-005	9
	38	103	45.95588	24.08819	-86.42655	1	89.72062	-74.42616	-3.212162E-006	9.229022E-005	9
	39	106	37.20238	29.17182	-103.441	1	107.4758	-74.25081	-3.21218E-006	0.0000954	9
	40	108	30.04808	35.60209	-123.7209	1	128.7415	-73.94624	-3.244699E-006	8.519375E-005	9
	41	110	23.91582	44.1835	-149.3599	1	155.758	-73.52077	-3.101934E-006	8.460287E-005	9
	42	113	18.60119	55.87406	-183.0238	1	191.3625	-73.02345	-2.830473E-006	8.59233E-005	9
	43	115	15.02404	67.96757	-217.0199	1	227.4142	-72.61018	-3.167816E-006	0.0001001	9
	44	117	12.01923	82.87267	-258.7824	1	271.7282	-72.24282	-3.127975E-006	8.908739E-005	9
	45	120	9.450605	101.8516	-312.679	1	328.8493	-71.95757	-3.104661E-006	7.836485E-005	9
	46	122	7.512019	123.0305	-375.0312	1	394.696	-71.83771	-2.910032E-006	8.202373E-005	9
	47	125	5.978954	147.3547	-447.6827	1	471.3101	-71.78104	-3.549759E-006	0.0006706	8
	48	128	4.734848	178.3372	-540.5328	1	569.1923	-71.7408	-3.691489E-006	0.0006625	8
	49	131	3.75601	216.4013	-651.9704	1	686.9461	-71.63802	-3.467302E-006	0.0006709	8
	50	135	3.004808	262.4884	-781.5393	1	824.4415	-71.43481	-3.618163E-006	0.0007029	8
	51	138	2.372217	325.0861	-946.6884	1	1000.95	-71.04789	-3.573494E-006	0.0007005	8
	52	143	1.878005	408.0916	-1145.077	1	1215.624	-70.38455	-3.506831E-006	0.000656	8
	53	147	1.512097	505.6104	-1362.917	1	1453.68	-69.64632	-3.512443E-006	0.0007729	8
	54	153	1.201923	641.8665	-1634.527	1	1756.038	-68.56043	-3.440494E-006	0.0006593	8
	55	159	0.956633	817.3754	-1948.173	1	2112.695	-67.23903	-3.602361E-006	2.359848E-005	8
