EXPLAIN
TAG	EISPOT
TITLE	LABEL	Potentiostatic EIS	Test Identifier
DATE	LABEL	2/24/2021	Date
TIME	LABEL	21:43:48	Time
NOTES	NOTES	1	Notes...
	
PSTAT	PSTAT	REF3000-16137	Potentiostat
VDC	POTEN	0.00000E+000	T	DC Voltage (V)
FREQINIT	QUANT	3.00000E+005	Initial Freq. (Hz)
FREQFINAL	QUANT	1.00000E+000	Final Freq. (Hz)
PTSPERDEC	QUANT	1.00000E+001	Points/decade
VAC	QUANT	5.00000E+001	AC Voltage (mV rms)
AREA	QUANT	1.00000E+000	Sample Area (cm^2)
SPEED	SELECTOR	2	Optimize for:
ZGUESS	QUANT	1.00000E+003	Estimated Z (ohms)
EOC	QUANT	0	Open Circuit (V)
SEQUENCER	TOGGLE	TRUE	Run as Sequence
PSTATMODEL	IQUANT	5	Pstat Model
PSTATSECTION	LABEL	REF3000-16137	Pstat Section
PSTATSERIALNO	LABEL	16137	Pstat Serial Number
CTRLMODE	IQUANT	1	Control Mode
IESTAB	IQUANT	0	I/E Stability
CASPEED	IQUANT	1	Control Amp Speed
CONVENTION	IQUANT	1	Current Convention
ICHRANGE	IQUANT	2	Ich Range
ICHRANGEMODE	TOGGLE	F	Ich Auto Range
ICHOFFSETENABLE	TOGGLE	T	Ich Offset Enable
ICHOFFSET	QUANT	0	Ich Offset (V)
ICHFILTER	IQUANT	3	Ich Filter
VCHRANGE	IQUANT	2	Vch Range
VCHRANGEMODE	TOGGLE	F	Vch Auto Range
VCHOFFSETENABLE	TOGGLE	T	Vch Offset Enable
VCHOFFSET	QUANT	0	Vch Offset (V)
VCHFILTER	IQUANT	3	Vch Filter
ACHRANGE	IQUANT	2	Ach Range
ACHOFFSETENABLE	TOGGLE	F	Ach Offset Enable
ACHOFFSET	QUANT	0	Ach Offset (V)
ACHFILTER	IQUANT	3	Ach Filter
IERANGELOWERLIMIT	IQUANT	2	I/E Range Lower Limit
IERANGEMODE	TOGGLE	F	I/E AutoRange
IERANGE	IQUANT	11	I/E Range
POSFEEDENABLE	TOGGLE	F	Positive Feedback IR Comp
POSFEEDRESISTANCE	QUANT	0	Positive Feedback Resistance (ohm)
ACHSELECT	IQUANT	0	Ach Select
CABLEID	IQUANT	13	Cable ID
DCCALDATE	LABEL	7/31/2020	DC Calibration Date
ACCALDATE	LABEL	7/31/2020	AC Calibration Date
THERMOSELECT	IQUANT	1	Thermo Select
FRAMEWORKVERSION	QUANT	6.33	Framework Version
INSTRUMENTVERSION	LABEL	3.50	Instrument Version
COMPLIANCEVOLTAGE	IQUANT	0	Compliance Voltage
ZCURVE	TABLE
	Pt	Time	Freq	Zreal	Zimag	Zsig	Zmod	Zphz	Idc	Vdc	IERange
	#	s	Hz	ohm	ohm	V	ohm	°	A	V	#
	0	8	300046.9	12.83416	2.083401	1	13.00217	9.220534	9.420744E-006	0.0001925	10
	1	11	238359.4	12.84225	1.666712	1	12.94996	7.394712	-1.963638E-005	0.000323	10
	2	15	189328.1	12.86322	1.311852	1	12.92994	5.823162	-2.363509E-005	0.0003986	10
	3	17	150421.9	12.90739	1.018635	1	12.94752	4.51236	-8.373745E-005	0.0006736	10
	4	20	119484.4	12.92693	0.7829562	1	12.95062	3.466047	-3.111322E-005	0.0005305	10
	5	22	94921.88	12.95949	0.6046335	1	12.97359	2.671235	-2.16314E-005	0.0006857	10
	6	25	75421.88	12.99523	0.4296686	1	13.00233	1.893713	-1.445422E-005	0.0006389	10
	7	27	59859.37	13.03725	0.277832	1	13.04021	1.220824	2.471603E-005	0.0006508	10
	8	30	47578.12	13.0804	0.1501268	1	13.08126	0.6575682	-2.443192E-005	0.0006621	10
	9	32	37828.12	13.1248	0.0312644	1	13.12484	0.1364831	-2.484499E-006	0.0006418	10
	10	35	30046.88	13.17062	-0.0833366	1	13.17088	-0.3625322	-3.941788E-006	0.0006379	10
	11	37	23859.38	13.21582	-0.1980997	1	13.21731	-0.8587757	2.255801E-005	0.0006292	10
	12	40	18984.38	13.26203	-0.3209222	1	13.26592	-1.386205	-1.903939E-005	0.0006664	10
	13	42	15046.87	13.31196	-0.4572117	1	13.31981	-1.967104	2.111672E-005	0.0006432	10
	14	44	11953.13	13.36367	-0.613809	1	13.37775	-2.629815	1.158077E-005	0.0006285	10
	15	47	9515.62	13.42162	-0.795522	1	13.44517	-3.39205	-2.985491E-005	0.0006752	10
	16	49	7546.875	13.48519	-1.015559	1	13.52338	-4.306771	-1.311331E-005	0.0007392	10
	17	51	5928.309	13.55503	-1.293187	1	13.61658	-5.449681	2.180496E-005	0.0006761	10
	18	53	4733.456	13.63212	-1.608246	1	13.72666	-6.728354	-1.406401E-005	0.0006687	10
	19	56	3796.875	13.72346	-1.986215	1	13.86645	-8.235312	5.479714E-006	0.000641	10
	20	58	2987.132	13.83005	-2.487168	1	14.05192	-10.19498	-1.603962E-005	0.0007079	10
	21	60	2390.625	13.9504	-3.062135	1	14.28251	-12.38018	-2.958774E-005	0.0006791	10
	22	63	1884.191	14.10173	-3.81162	1	14.60778	-15.1253	2.25752E-005	0.0006779	10
	23	65	1516.544	14.27413	-4.646532	1	15.01137	-18.03116	-1.29422E-005	0.0006667	10
	24	67	1193.986	14.49972	-5.777535	1	15.60839	-21.72522	-1.598694E-005	0.000704	10
	25	70	946.5144	14.76686	-7.130414	1	16.39826	-25.77432	-2.469514E-005	0.0006814	10
	26	72	751.7689	15.08545	-8.760511	1	17.4447	-30.14484	2.297996E-005	0.0006627	10
	27	74	597.4265	15.45927	-10.7641	1	18.83759	-34.84902	1.397828E-005	0.0006818	10
	28	77	477.4305	15.90605	-13.14937	1	20.63755	-39.5802	-3.986039E-006	0.0006874	10
	29	79	376.6741	16.46728	-16.25131	1	23.13605	-44.62181	-3.224842E-006	0.0006776	10
	30	81	298.2954	17.13913	-20.02434	1	26.35762	-49.43929	-3.256956E-006	0.0006835	10
	31	84	237.7717	17.93841	-24.54411	1	30.40065	-53.83828	-3.226408E-006	0.0006841	10
	32	86	189.0121	18.92951	-30.16319	1	35.61102	-57.88885	-3.009648E-006	0.0006845	10
	33	89	150.2404	20.13396	-37.03189	1	42.15136	-61.46741	5.794072E-007	8.292847E-005	9
	34	91	119.1737	21.68615	-45.61152	1	50.50445	-64.57109	5.983476E-007	8.854021E-005	9
	35	93	95.0169	23.59274	-55.90826	1	60.68238	-67.12074	6.366537E-007	8.584516E-005	9
	36	96	75.60484	26.02302	-68.64279	1	73.41001	-69.23789	7.07366E-007	7.905578E-005	9
	37	98	54.50582	30.66981	-91.99578	1	96.9735	-71.5625	5.898514E-007	7.84818E-005	9
	38	101	45.95588	33.84574	-107.1511	1	112.3694	-72.47028	7.427531E-007	8.371205E-005	9
	39	103	37.20238	38.67451	-129.3023	1	134.9623	-73.34801	6.753951E-007	0.0001055	9
	40	106	30.04808	44.80462	-156.2211	1	162.5191	-73.99696	6.497781E-007	8.763556E-005	9
	41	108	23.91582	53.17765	-190.9141	1	198.1819	-74.43523	7.730632E-007	8.071223E-005	9
	42	110	18.60119	65.16708	-237.8091	1	246.5764	-74.67538	4.118417E-007	8.029798E-005	9
	43	113	15.02404	78.47318	-286.0077	1	296.5779	-74.65708	7.062819E-007	7.932186E-005	9
	44	115	12.01923	96.0535	-346.1979	1	359.2761	-74.49319	5.257761E-007	7.742061E-005	9
	45	117	9.450605	119.622	-422.1147	1	438.7371	-74.17794	3.007455E-008	0.0006724	8
	46	120	7.512019	148.9045	-510.7334	1	531.9973	-73.74594	-1.281055E-007	0.0006605	8
	47	123	5.978954	184.5204	-614.9622	1	642.0485	-73.29804	-6.571375E-008	0.0006562	8
	48	126	4.734848	229.2032	-742.0022	1	776.596	-72.83418	5.666497E-008	0.0006608	8
	49	129	3.75601	281.4689	-891.3672	1	934.7514	-72.47533	-6.527624E-008	0.000654	8
	50	132	3.004808	341.0794	-1062.283	1	1115.698	-72.19914	5.93606E-008	0.0006266	8
	51	136	2.372217	414.4646	-1281.103	1	1346.479	-72.07247	9.373341E-009	0.0005968	8
	52	140	1.878005	501.51	-1542.709	1	1622.179	-71.99149	3.00554E-008	0.0006762	8
	53	145	1.512097	598.3739	-1835.092	1	1930.185	-71.94025	2.579847E-008	0.0005658	8
	54	150	1.201923	719.3512	-2215.277	1	2329.146	-72.0102	2.924309E-008	0.0006964	8
	55	157	0.956633	869.1934	-2671.624	1	2809.461	-71.97808	-5.323622E-010	2.048866E-005	8
