EXPLAIN
TAG	EISPOT
TITLE	LABEL	Potentiostatic EIS	Test Identifier
DATE	LABEL	2/24/2021	Date
TIME	LABEL	22:49:59	Time
NOTES	NOTES	1	Notes...
	
PSTAT	PSTAT	REF3000-16137	Potentiostat
VDC	POTEN	0.00000E+000	T	DC Voltage (V)
FREQINIT	QUANT	3.00000E+005	Initial Freq. (Hz)
FREQFINAL	QUANT	1.00000E+000	Final Freq. (Hz)
PTSPERDEC	QUANT	1.00000E+001	Points/decade
VAC	QUANT	5.00000E+001	AC Voltage (mV rms)
AREA	QUANT	1.00000E+000	Sample Area (cm^2)
SPEED	SELECTOR	2	Optimize for:
ZGUESS	QUANT	1.00000E+003	Estimated Z (ohms)
EOC	QUANT	0	Open Circuit (V)
SEQUENCER	TOGGLE	TRUE	Run as Sequence
PSTATMODEL	IQUANT	5	Pstat Model
PSTATSECTION	LABEL	REF3000-16137	Pstat Section
PSTATSERIALNO	LABEL	16137	Pstat Serial Number
CTRLMODE	IQUANT	1	Control Mode
IESTAB	IQUANT	0	I/E Stability
CASPEED	IQUANT	1	Control Amp Speed
CONVENTION	IQUANT	1	Current Convention
ICHRANGE	IQUANT	2	Ich Range
ICHRANGEMODE	TOGGLE	F	Ich Auto Range
ICHOFFSETENABLE	TOGGLE	T	Ich Offset Enable
ICHOFFSET	QUANT	0	Ich Offset (V)
ICHFILTER	IQUANT	3	Ich Filter
VCHRANGE	IQUANT	2	Vch Range
VCHRANGEMODE	TOGGLE	F	Vch Auto Range
VCHOFFSETENABLE	TOGGLE	T	Vch Offset Enable
VCHOFFSET	QUANT	0	Vch Offset (V)
VCHFILTER	IQUANT	3	Vch Filter
ACHRANGE	IQUANT	2	Ach Range
ACHOFFSETENABLE	TOGGLE	F	Ach Offset Enable
ACHOFFSET	QUANT	0	Ach Offset (V)
ACHFILTER	IQUANT	3	Ach Filter
IERANGELOWERLIMIT	IQUANT	2	I/E Range Lower Limit
IERANGEMODE	TOGGLE	F	I/E AutoRange
IERANGE	IQUANT	11	I/E Range
POSFEEDENABLE	TOGGLE	F	Positive Feedback IR Comp
POSFEEDRESISTANCE	QUANT	0	Positive Feedback Resistance (ohm)
ACHSELECT	IQUANT	0	Ach Select
CABLEID	IQUANT	13	Cable ID
DCCALDATE	LABEL	7/31/2020	DC Calibration Date
ACCALDATE	LABEL	7/31/2020	AC Calibration Date
THERMOSELECT	IQUANT	1	Thermo Select
FRAMEWORKVERSION	QUANT	6.33	Framework Version
INSTRUMENTVERSION	LABEL	3.50	Instrument Version
COMPLIANCEVOLTAGE	IQUANT	0	Compliance Voltage
ZCURVE	TABLE
	Pt	Time	Freq	Zreal	Zimag	Zsig	Zmod	Zphz	Idc	Vdc	IERange
	#	s	Hz	ohm	ohm	V	ohm	°	A	V	#
	0	14	300046.9	34.4342	-4232.196	1	4232.336	-89.53384	-2.12659E-006	-0.0020821	9
	1	28	238359.4	83.80196	-5258.115	1	5258.783	-89.08691	2.759297E-005	0.0009737	9
	2	46	189328.1	-54.23464	-6735.06	1	6735.278	-90.46137	1.917517E-005	-0.0020038	9
	3	55	150421.9	420.0612	-8385.73	1	8396.245	-87.13232	1.785398E-005	-0.0019359	9
	4	62	119484.4	587.8143	-10113.44	1	10130.51	-86.67359	5.020684E-005	-0.0023789	8
	5	70	94921.88	559.7252	-12799.31	1	12811.54	-87.496	2.837815E-005	-0.000409	9
	6	78	75421.88	935.6299	-15947.51	1	15974.94	-86.64234	8.740329E-006	0.0040039	8
	7	87	59859.37	993.408	-19836.12	1	19860.98	-87.13298	1.75946E-005	0.0002541	8
	8	95	47578.12	4040.313	-26303.73	1	26612.22	-81.26749	-6.36554E-006	0.0254778	7
	9	103	37828.12	4410.361	-32348.39	1	32647.66	-82.23619	-1.462668E-006	0.0210499	7
	10	110	30046.88	1516.654	-39207.66	1	39236.99	-87.78476	2.725982E-005	-0.0073316	8
	11	119	23859.38	2092.178	-48580.98	1	48626.02	-87.53403	1.771679E-005	0.0001757	8
	12	125	18984.38	6301.192	-62673.65	1	62989.61	-84.25879	7.484924E-006	-0.0185764	7
	13	131	15046.87	6621.468	-78018.79	1	78299.27	-85.14893	6.685171E-006	-0.026624	7
	14	136	11953.13	3621.754	-94565.96	1	94635.29	-87.80672	-2.057441E-005	0.002949	8
	15	144	9515.62	8483.139	-119931.4	1	120231.1	-85.95403	-2.049098E-005	0.0029279	8
	16	150	7546.875	847.4092	-160041	1	160043.2	-89.69662	2.247988E-005	-0.0096082	8
	17	157	5928.309	21098.44	-199360	1	200473.3	-83.95882	6.080443E-007	0.0154432	7
	18	163	4733.456	49097.96	-250438	1	255205.5	-78.90794	-1.955E-007	0.0215985	6
	19	167	3796.875	53266.5	-310386.9	1	314924.3	-80.26215	7.068345E-007	-0.0265716	6
	20	173	2987.132	-50757.61	-445607.7	1	448489.2	-96.4984	-1.170066E-006	-0.0125817	7
	21	179	2390.625	81466.07	-476653.1	1	483564.8	-80.30114	-6.597379E-007	0.0256654	6
	22	185	1884.191	79707.67	-515946.9	1	522067.6	-81.21791	-3.43244E-006	-0.0045268	7
	23	191	1516.544	-15196.35	-530540.1	1	530757.7	-91.64069	5.194341E-006	-0.0262131	7
	24	198	1193.986	71834.2	-1136124	1	1138393	-86.38215	6.58672E-006	-0.0105689	7
	25	204	946.5144	412508.3	-305286.6	1	513189	-36.50417	4.857341E-006	-0.000882	7
	26	210	751.7689	-681309.9	-665630.3	1	952495	-135.6669	-1.658372E-006	0.0215657	7
	27	215	597.4265	96450.2	-1969069	1	1971430	-87.19574	1.809878E-008	0.0166983	6
	28	220	477.4305	812250.6	-2213853	1	2358155	-69.85219	-7.363444E-010	0.0007022	5
	29	223	376.6741	731667.1	-2672779	1	2771116	-74.69048	-7.130432E-009	0.0007058	6
	30	227	298.2954	1024464	-3274344	1	3430868	-72.62634	-6.972718E-009	0.0006873	6
	31	230	237.7717	1745900	-3918585	1	4289927	-65.98495	-6.872751E-010	0.0006294	5
	32	234	189.0121	2272922	-4662965	1	5187428	-64.01348	-6.777214E-010	0.0006266	5
	33	238	150.2404	2906993	-5451770	1	6178382	-61.93257	-7.687296E-010	0.0006886	5
	34	242	119.1737	3642195	-6980751	1	7873784	-62.44677	-7.1164E-010	0.0006817	5
	35	245	95.0169	5117360	-7006510	1	8676321	-53.85665	-8.408336E-010	0.0006638	5
	36	248	75.60484	6014006	-8116001	1	1.010137E+007	-53.46133	-7.737266E-010	0.0006739	5
	37	251	54.50582	9073519	-8320280	1	1.23108E+007	-42.52036	-7.338662E-010	0.0006069	5
	38	254	45.95588	1.165201E+007	-8593499	1	1.447817E+007	-36.40924	-1.344469E-010	0.0006562	4
	39	257	37.20238	1.487235E+007	-7048020	1	1.645787E+007	-25.35631	2.571856E-011	0.0006733	4
	40	259	30.04808	1.557119E+007	-7323341	1	1.720736E+007	-25.18823	-1.013001E-010	0.0006885	4
	41	262	23.91582	1.677195E+007	-7876399	1	1.852933E+007	-25.15556	-7.22505E-012	0.0006444	4
	42	265	18.60119	1.795498E+007	-8646569	1	1.992849E+007	-25.71404	8.127429E-011	0.0006282	4
	43	267	15.02404	1.952597E+007	-5790129	1	2.036637E+007	-16.51692	-6.609639E-011	0.0006816	4
	44	270	12.01923	2.044788E+007	-5124892	1	2.108033E+007	-14.07031	-7.112897E-011	0.0006226	4
	45	272	9.450605	2.179059E+007	-4647925	1	2.228078E+007	-12.04073	-1.115285E-010	0.0006718	4
	46	275	7.512019	2.271273E+007	-3651421	1	2.300437E+007	-9.133029	-9.573712E-011	0.0006104	4
	47	278	5.978954	2.311636E+007	-3124934	1	2.332662E+007	-7.698734	-1.004164E-010	0.0006192	4
	48	282	4.734848	2.456631E+007	-2996366	1	2.474837E+007	-6.954047	-6.871224E-011	0.000599	4
	49	287	3.75601	2.643023E+007	-2636503	1	2.65614E+007	-5.696598	-7.914032E-010	0.0006757	5
	50	294	3.004808	2.845344E+007	-2559923	1	2.856836E+007	-5.140993	-8.034166E-010	0.0006675	5
	51	302	2.372217	3.000554E+007	-2366128	1	3.009869E+007	-4.508806	-8.028644E-011	0.0006144	4
	52	308	1.878005	3.190418E+007	-2150097	1	3.197655E+007	-3.855466	-7.769976E-011	0.0006784	4
	53	317	1.512097	3.407718E+007	-2008943	1	3.413634E+007	-3.373838	-8.201823E-011	0.0005724	4
	54	322	1.201923	3.652688E+007	-1863704	1	3.65744E+007	-2.920859	-7.586286E-011	0.0006963	4
	55	332	0.956633	4.122356E+007	-638358.4	1	4.12285E+007	-0.8871704	-2.967809E-011	0.0001014	3
