EXPLAIN
TAG	EISPOT
TITLE	LABEL	Potentiostatic EIS	Test Identifier
DATE	LABEL	2/24/2021	Date
TIME	LABEL	22:29:41	Time
NOTES	NOTES	1	Notes...
	
PSTAT	PSTAT	REF3000-16137	Potentiostat
VDC	POTEN	0.00000E+000	T	DC Voltage (V)
FREQINIT	QUANT	3.00000E+005	Initial Freq. (Hz)
FREQFINAL	QUANT	1.00000E+000	Final Freq. (Hz)
PTSPERDEC	QUANT	1.00000E+001	Points/decade
VAC	QUANT	5.00000E+001	AC Voltage (mV rms)
AREA	QUANT	1.00000E+000	Sample Area (cm^2)
SPEED	SELECTOR	2	Optimize for:
ZGUESS	QUANT	1.00000E+003	Estimated Z (ohms)
EOC	QUANT	0	Open Circuit (V)
SEQUENCER	TOGGLE	TRUE	Run as Sequence
PSTATMODEL	IQUANT	5	Pstat Model
PSTATSECTION	LABEL	REF3000-16137	Pstat Section
PSTATSERIALNO	LABEL	16137	Pstat Serial Number
CTRLMODE	IQUANT	1	Control Mode
IESTAB	IQUANT	0	I/E Stability
CASPEED	IQUANT	1	Control Amp Speed
CONVENTION	IQUANT	1	Current Convention
ICHRANGE	IQUANT	2	Ich Range
ICHRANGEMODE	TOGGLE	F	Ich Auto Range
ICHOFFSETENABLE	TOGGLE	T	Ich Offset Enable
ICHOFFSET	QUANT	0	Ich Offset (V)
ICHFILTER	IQUANT	3	Ich Filter
VCHRANGE	IQUANT	2	Vch Range
VCHRANGEMODE	TOGGLE	F	Vch Auto Range
VCHOFFSETENABLE	TOGGLE	T	Vch Offset Enable
VCHOFFSET	QUANT	0	Vch Offset (V)
VCHFILTER	IQUANT	3	Vch Filter
ACHRANGE	IQUANT	2	Ach Range
ACHOFFSETENABLE	TOGGLE	F	Ach Offset Enable
ACHOFFSET	QUANT	0	Ach Offset (V)
ACHFILTER	IQUANT	3	Ach Filter
IERANGELOWERLIMIT	IQUANT	2	I/E Range Lower Limit
IERANGEMODE	TOGGLE	F	I/E AutoRange
IERANGE	IQUANT	11	I/E Range
POSFEEDENABLE	TOGGLE	F	Positive Feedback IR Comp
POSFEEDRESISTANCE	QUANT	0	Positive Feedback Resistance (ohm)
ACHSELECT	IQUANT	0	Ach Select
CABLEID	IQUANT	13	Cable ID
DCCALDATE	LABEL	7/31/2020	DC Calibration Date
ACCALDATE	LABEL	7/31/2020	AC Calibration Date
THERMOSELECT	IQUANT	1	Thermo Select
FRAMEWORKVERSION	QUANT	6.33	Framework Version
INSTRUMENTVERSION	LABEL	3.50	Instrument Version
COMPLIANCEVOLTAGE	IQUANT	0	Compliance Voltage
ZCURVE	TABLE
	Pt	Time	Freq	Zreal	Zimag	Zsig	Zmod	Zphz	Idc	Vdc	IERange
	#	s	Hz	ohm	ohm	V	ohm	°	A	V	#
	0	16	300046.9	1688.218	-2115.922	1	2706.881	-51.41489	2.137231E-005	-0.0010641	9
	1	30	238359.4	2105.798	-2349.362	1	3154.978	-48.12924	8.939985E-005	-0.0026213	9
	2	53	189328.1	2645.232	-2461.726	1	3613.495	-42.9421	-1.571525E-005	0.0017491	9
	3	62	150421.9	3172.86	-2678.093	1	4152.014	-40.16647	1.838168E-005	-0.0019363	9
	4	69	119484.4	3799.708	-2475.934	1	4535.198	-33.08873	2.659643E-005	0.0067159	8
	5	77	94921.88	4341.024	-2382.059	1	4951.636	-28.75498	-2.253014E-005	0.010435	8
	6	84	75421.88	4861.614	-2257.876	1	5360.344	-24.91154	-1.599282E-005	0.001098	8
	7	92	59859.37	5345.746	-2121.833	1	5751.449	-21.64911	-2.260755E-005	0.0105228	8
	8	99	47578.12	5841.447	-1958.922	1	6161.159	-18.53881	-2.4709E-005	0.0074428	8
	9	107	37828.12	6196.505	-1711.328	1	6428.477	-15.43889	-2.007214E-005	0.0031607	8
	10	114	30046.88	6571.628	-1566.171	1	6755.678	-13.40486	-2.498658E-005	0.0074873	8
	11	122	23859.38	6914.878	-1379.345	1	7051.108	-11.281	-2.502935E-005	0.0093854	8
	12	127	18984.38	7172.123	-1176.472	1	7267.973	-9.315495	-7.179711E-007	0.0070724	8
	13	133	15046.87	7472.605	-739.618	1	7509.119	-5.652569	5.522537E-006	-0.0074427	7
	14	136	11953.13	7617.665	-612.0643	1	7642.214	-4.593734	2.038254E-006	0.008645	7
	15	139	9515.62	7792.423	-532.1423	1	7810.572	-3.906647	6.687556E-006	-0.020164	7
	16	144	7546.875	7920.862	-457.0536	1	7934.038	-3.302448	-2.566152E-006	-0.0055349	7
	17	147	5928.309	8048.944	-356.4146	1	8056.831	-2.535453	6.704452E-006	-0.0205577	7
	18	151	4733.456	8216.961	-281.6414	1	8221.786	-1.96308	4.888657E-006	-0.0232082	7
	19	155	3796.875	8403.428	-261.1069	1	8407.483	-1.779692	-6.358704E-006	0.020196	7
	20	159	2987.132	8501.413	-262.0211	1	8505.45	-1.765348	1.068596E-007	0.0149332	7
	21	163	2390.625	8721.713	-148.9167	1	8722.984	-0.978188	4.944295E-006	-0.0236294	7
	22	167	1884.191	8831.021	-164.5993	1	8832.556	-1.067798	-3.463299E-006	0.0224046	7
	23	172	1516.544	9021.945	-106.815	1	9022.577	-0.6783194	4.095271E-006	0.0003681	7
	24	176	1193.986	9180.546	-124.3857	1	9181.389	-0.7762438	1.410138E-006	-0.0178729	7
	25	180	946.5144	9324.05	-66.1833	1	9324.285	-0.4066859	2.26872E-007	0.0148163	7
	26	183	751.7689	9472.739	-98.7511	1	9473.254	-0.5972736	-4.464366E-006	0.0025604	7
	27	186	597.4265	9427.054	-144.1899	1	9428.156	-0.8762895	4.178479E-006	0.0002969	7
	28	188	477.4305	9610.81	-86.78869	1	9611.2	-0.5173852	-7.553439E-008	0.0006838	7
	29	191	376.6741	9706.3	-84.14368	1	9706.67	-0.496683	-7.587905E-008	0.0006819	7
	30	193	298.2954	9802.26	-84.99912	1	9802.63	-0.4968208	-7.291364E-008	0.0006678	7
	31	195	237.7717	9903.76	-90.08405	1	9904.17	-0.521145	-5.701423E-008	0.0006193	7
	32	198	189.0121	10007.06	-98.1886	1	10007.54	-0.5621645	-6.017324E-008	0.0006404	7
	33	200	150.2404	10111.43	-110.6999	1	10112.03	-0.6272492	-7.26148E-008	0.00067	7
	34	203	119.1737	10215.08	-123.9002	1	10215.83	-0.6949149	-7.743947E-008	0.0006773	7
	35	205	95.0169	10326.75	-147.2275	1	10327.8	-0.8168051	-7.778786E-008	0.0006615	7
	36	208	75.60484	10441.14	-174.1335	1	10442.6	-0.955469	-5.064062E-008	0.0006657	7
	37	210	54.50582	10566.71	-228.8983	1	10569.19	-1.240959	-5.3587E-008	0.0006016	7
	38	213	45.95588	10675.94	-260.4087	1	10679.11	-1.397288	-5.286958E-008	0.0006178	7
	39	215	37.20238	10788.03	-313.7323	1	10792.59	-1.665779	-3.097188E-008	0.0005961	7
	40	217	30.04808	10909.86	-372.976	1	10916.23	-1.958012	-3.845261E-008	0.0006756	7
	41	220	23.91582	11025.8	-453.1428	1	11035.11	-2.353441	-1.232488E-007	0.0006348	7
	42	222	18.60119	11163	-586.6827	1	11178.41	-3.008469	3.258518E-008	0.0006507	7
	43	224	15.02404	11290.55	-694.8568	1	11311.91	-3.521726	-8.082973E-009	0.0006614	7
	44	227	12.01923	11412.5	-842.0264	1	11443.52	-4.219698	-3.825992E-008	0.0006821	7
	45	229	9.450605	11560.44	-1021.843	1	11605.51	-5.051323	3.214963E-008	0.0005841	7
	46	232	7.512019	11734.89	-1277.795	1	11804.26	-6.214369	-3.147254E-008	0.0005829	7
	47	234	5.978954	11929.33	-1578.322	1	12033.29	-7.536799	-5.505397E-008	0.0006147	7
	48	238	4.734848	12129.87	-1967.538	1	12288.4	-9.213479	-1.183547E-007	0.0006044	7
	49	241	3.75601	12408.28	-2399.776	1	12638.21	-10.94593	-5.602945E-008	0.0006156	7
	50	244	3.004808	12689.55	-2961.983	1	13030.66	-13.13868	-9.287985E-009	0.0005643	7
	51	248	2.372217	13039.4	-3603.518	1	13528.17	-15.44846	-7.219038E-008	0.0005608	7
	52	252	1.878005	13435.12	-4466.062	1	14157.98	-18.38768	-5.209199E-008	0.0006442	7
	53	257	1.512097	13900.7	-5420.187	1	14920.05	-21.3019	-5.033349E-008	0.0005498	7
	54	262	1.201923	14492.17	-6644.881	1	15942.95	-24.63217	-6.38753E-008	0.0006675	7
	55	269	0.956633	15189.73	-8164.383	1	17244.86	-28.25775	-7.968907E-008	1.510452E-007	7
