EXPLAIN
TAG	EISPOT
TITLE	LABEL	Potentiostatic EIS	Test Identifier
DATE	LABEL	2/24/2021	Date
TIME	LABEL	21:57:43	Time
NOTES	NOTES	1	Notes...
	
PSTAT	PSTAT	REF3000-16137	Potentiostat
VDC	POTEN	0.00000E+000	T	DC Voltage (V)
FREQINIT	QUANT	3.00000E+005	Initial Freq. (Hz)
FREQFINAL	QUANT	1.00000E+000	Final Freq. (Hz)
PTSPERDEC	QUANT	1.00000E+001	Points/decade
VAC	QUANT	5.00000E+001	AC Voltage (mV rms)
AREA	QUANT	1.00000E+000	Sample Area (cm^2)
SPEED	SELECTOR	2	Optimize for:
ZGUESS	QUANT	1.00000E+003	Estimated Z (ohms)
EOC	QUANT	0	Open Circuit (V)
SEQUENCER	TOGGLE	TRUE	Run as Sequence
PSTATMODEL	IQUANT	5	Pstat Model
PSTATSECTION	LABEL	REF3000-16137	Pstat Section
PSTATSERIALNO	LABEL	16137	Pstat Serial Number
CTRLMODE	IQUANT	1	Control Mode
IESTAB	IQUANT	0	I/E Stability
CASPEED	IQUANT	1	Control Amp Speed
CONVENTION	IQUANT	1	Current Convention
ICHRANGE	IQUANT	2	Ich Range
ICHRANGEMODE	TOGGLE	F	Ich Auto Range
ICHOFFSETENABLE	TOGGLE	T	Ich Offset Enable
ICHOFFSET	QUANT	0	Ich Offset (V)
ICHFILTER	IQUANT	3	Ich Filter
VCHRANGE	IQUANT	2	Vch Range
VCHRANGEMODE	TOGGLE	F	Vch Auto Range
VCHOFFSETENABLE	TOGGLE	T	Vch Offset Enable
VCHOFFSET	QUANT	0	Vch Offset (V)
VCHFILTER	IQUANT	3	Vch Filter
ACHRANGE	IQUANT	2	Ach Range
ACHOFFSETENABLE	TOGGLE	F	Ach Offset Enable
ACHOFFSET	QUANT	0	Ach Offset (V)
ACHFILTER	IQUANT	3	Ach Filter
IERANGELOWERLIMIT	IQUANT	2	I/E Range Lower Limit
IERANGEMODE	TOGGLE	F	I/E AutoRange
IERANGE	IQUANT	11	I/E Range
POSFEEDENABLE	TOGGLE	F	Positive Feedback IR Comp
POSFEEDRESISTANCE	QUANT	0	Positive Feedback Resistance (ohm)
ACHSELECT	IQUANT	0	Ach Select
CABLEID	IQUANT	13	Cable ID
DCCALDATE	LABEL	7/31/2020	DC Calibration Date
ACCALDATE	LABEL	7/31/2020	AC Calibration Date
THERMOSELECT	IQUANT	1	Thermo Select
FRAMEWORKVERSION	QUANT	6.33	Framework Version
INSTRUMENTVERSION	LABEL	3.50	Instrument Version
COMPLIANCEVOLTAGE	IQUANT	0	Compliance Voltage
ZCURVE	TABLE
	Pt	Time	Freq	Zreal	Zimag	Zsig	Zmod	Zphz	Idc	Vdc	IERange
	#	s	Hz	ohm	ohm	V	ohm	°	A	V	#
	0	6	300046.9	39.25915	2.31298	1	39.32723	3.371723	-5.976784E-005	0.0013295	9
	1	10	238359.4	39.48031	1.751256	1	39.51913	2.539844	4.760916E-005	-0.0017552	9
	2	13	189328.1	39.64898	1.312928	1	39.67072	1.896587	-6.419138E-006	0.0002985	9
	3	15	150421.9	39.85897	1.048946	1	39.87278	1.507472	4.762596E-006	-0.0006446	9
	4	18	119484.4	40.02239	0.7794508	1	40.02998	1.115715	-5.560877E-005	0.0018672	9
	5	20	94921.88	40.2392	0.7153853	1	40.24556	1.018515	-6.309722E-006	0.0004491	9
	6	23	75421.88	40.40359	0.4919356	1	40.40659	0.6975727	1.409694E-005	-0.0005615	9
	7	25	59859.37	40.54796	0.313584	1	40.54917	0.443097	-1.293481E-005	0.0002649	9
	8	28	47578.12	40.71754	0.1627758	1	40.71787	0.2290491	-1.359994E-005	0.0005658	9
	9	31	37828.12	40.88619	0.0118574	1	40.88619	0.0166163	-3.031235E-006	0.0004871	9
	10	33	30046.88	41.07791	-0.1335323	1	41.07813	-0.1862511	3.671424E-006	0.0002922	9
	11	36	23859.38	41.25811	-0.2694859	1	41.25899	-0.3742339	-7.659335E-006	8.301247E-005	9
	12	38	18984.38	41.42843	-0.408408	1	41.43045	-0.5648125	1.600265E-005	-0.0004523	9
	13	40	15046.87	41.58652	-0.5700854	1	41.59043	-0.7853853	8.613097E-006	-0.0003633	9
	14	43	11953.13	41.78743	-0.755312	1	41.79426	-1.035514	1.340333E-005	-0.0004416	9
	15	45	9515.62	41.97322	-0.9467852	1	41.98389	-1.292195	-1.30903E-005	0.0005865	9
	16	47	7546.875	42.1534	-1.194082	1	42.17031	-1.622587	1.797523E-005	-0.0002906	9
	17	49	5928.309	42.36863	-1.510989	1	42.39557	-2.042469	1.746659E-005	-0.0002107	9
	18	52	4733.456	42.58885	-1.877494	1	42.63021	-2.524203	1.778891E-005	-0.0002148	9
	19	54	3796.875	42.80257	-2.319345	1	42.86536	-3.101655	-1.193586E-005	0.0006443	9
	20	56	2987.132	43.03154	-2.878287	1	43.12769	-3.826691	-1.271072E-005	0.000331	9
	21	59	2390.625	43.28827	-3.533497	1	43.43224	-4.666543	-1.600115E-005	0.0004913	9
	22	61	1884.191	43.55071	-4.417337	1	43.77416	-5.791688	9.234917E-006	-0.0003992	9
	23	63	1516.544	43.86145	-5.368188	1	44.18874	-6.977708	1.817974E-005	-0.0003101	9
	24	66	1193.986	44.23596	-6.700401	1	44.74054	-8.613093	-1.237695E-005	0.0006236	9
	25	68	946.5144	44.64006	-8.310192	1	45.40699	-10.54547	1.838449E-005	-0.0004298	9
	26	70	751.7689	45.09503	-10.24271	1	46.24364	-12.79682	-8.80805E-006	0.0005855	9
	27	73	597.4265	45.66312	-12.62603	1	47.37655	-15.45632	-1.182734E-005	0.0002155	9
	28	75	477.4305	46.30714	-15.48881	1	48.82882	-18.49405	1.18938E-006	7.944331E-005	9
	29	77	376.6741	47.11037	-19.18494	1	50.86697	-22.15781	1.185562E-006	8.106664E-005	9
	30	80	298.2954	48.06227	-23.65664	1	53.56882	-26.20679	1.180615E-006	8.687381E-005	9
	31	82	237.7717	49.18204	-28.97414	1	57.08217	-30.50321	1.274891E-006	8.363549E-005	9
	32	85	189.0121	50.52441	-35.5507	1	61.77838	-35.13153	1.294777E-006	8.484904E-005	9
	33	87	150.2404	52.11762	-43.60687	1	67.95444	-39.91926	1.314499E-006	8.120986E-005	9
	34	89	119.1737	54.03042	-53.59169	1	76.10096	-44.76643	1.224179E-006	8.000529E-005	9
	35	92	95.0169	56.27784	-65.58377	1	86.42005	-49.36691	1.204356E-006	7.792665E-005	9
	36	94	75.60484	59.02234	-80.44456	1	99.7746	-53.73243	1.143656E-006	8.739202E-005	9
	37	97	54.50582	63.9533	-107.8184	1	125.3588	-59.32539	1.211775E-006	7.992727E-005	9
	38	99	45.95588	67.27955	-125.6814	1	142.5565	-61.83904	1.261694E-006	8.900113E-005	9
	39	102	37.20238	72.15292	-151.9171	1	168.181	-64.59465	1.183263E-006	8.669455E-005	9
	40	104	30.04808	78.24149	-184.0531	1	199.9932	-66.96951	1.259626E-006	7.784374E-005	9
	41	107	23.91582	86.34995	-225.8087	1	241.7558	-69.07299	1.293804E-006	8.046236E-005	9
	42	109	18.60119	97.8254	-282.8065	1	299.2479	-70.91902	1.495541E-006	8.463435E-005	9
	43	111	15.02404	110.3609	-342.2148	1	359.5698	-72.126	1.395562E-006	9.33318E-005	9
	44	113	12.01923	126.2823	-415.5279	1	434.2933	-73.09554	2.631898E-007	0.0006576	8
	45	116	9.450605	149.1882	-514.0265	1	535.2386	-73.81544	2.290244E-007	0.0006495	8
	46	118	7.512019	177.2739	-629.2296	1	653.7247	-74.26579	2.276537E-007	0.0006747	8
	47	121	5.978954	213.1646	-767.5332	1	796.5842	-74.47859	3.404709E-007	0.0006583	8
	48	124	4.734848	261.1163	-939.0452	1	974.673	-74.46057	3.573623E-007	0.0006805	8
	49	128	3.75601	321.5074	-1144.444	1	1188.747	-74.30842	2.9018E-007	0.0006498	8
	50	131	3.004808	395.3125	-1380.452	1	1435.939	-74.02016	2.887249E-007	0.0006886	8
	51	135	2.372217	496.438	-1679.145	1	1750.994	-73.52972	3.425331E-007	0.0007286	8
	52	139	1.878005	616.1724	-2033.984	1	2125.267	-73.14641	2.939374E-007	0.000642	8
	53	144	1.512097	749.7423	-2415.922	1	2529.583	-72.75912	3.498546E-007	0.0006558	8
	54	149	1.201923	923.7316	-2908.767	1	3051.918	-72.38181	3.29924E-007	0.0006341	8
	55	155	0.956633	1124.484	-3486.883	1	3663.716	-72.12602	3.015593E-007	1.191528E-005	8
