EXPLAIN
TAG	EISPOT
TITLE	LABEL	Potentiostatic EIS	Test Identifier
DATE	LABEL	2/24/2021	Date
TIME	LABEL	21:32:45	Time
NOTES	NOTES	1	Notes...
	
PSTAT	PSTAT	REF3000-16137	Potentiostat
VDC	POTEN	0.00000E+000	T	DC Voltage (V)
FREQINIT	QUANT	3.00000E+005	Initial Freq. (Hz)
FREQFINAL	QUANT	1.00000E+000	Final Freq. (Hz)
PTSPERDEC	QUANT	1.00000E+001	Points/decade
VAC	QUANT	5.00000E+001	AC Voltage (mV rms)
AREA	QUANT	1.00000E+000	Sample Area (cm^2)
SPEED	SELECTOR	2	Optimize for:
ZGUESS	QUANT	1.00000E+003	Estimated Z (ohms)
EOC	QUANT	0	Open Circuit (V)
SEQUENCER	TOGGLE	TRUE	Run as Sequence
PSTATMODEL	IQUANT	5	Pstat Model
PSTATSECTION	LABEL	REF3000-16137	Pstat Section
PSTATSERIALNO	LABEL	16137	Pstat Serial Number
CTRLMODE	IQUANT	1	Control Mode
IESTAB	IQUANT	0	I/E Stability
CASPEED	IQUANT	1	Control Amp Speed
CONVENTION	IQUANT	1	Current Convention
ICHRANGE	IQUANT	2	Ich Range
ICHRANGEMODE	TOGGLE	F	Ich Auto Range
ICHOFFSETENABLE	TOGGLE	T	Ich Offset Enable
ICHOFFSET	QUANT	0	Ich Offset (V)
ICHFILTER	IQUANT	3	Ich Filter
VCHRANGE	IQUANT	2	Vch Range
VCHRANGEMODE	TOGGLE	F	Vch Auto Range
VCHOFFSETENABLE	TOGGLE	T	Vch Offset Enable
VCHOFFSET	QUANT	0	Vch Offset (V)
VCHFILTER	IQUANT	3	Vch Filter
ACHRANGE	IQUANT	2	Ach Range
ACHOFFSETENABLE	TOGGLE	F	Ach Offset Enable
ACHOFFSET	QUANT	0	Ach Offset (V)
ACHFILTER	IQUANT	3	Ach Filter
IERANGELOWERLIMIT	IQUANT	2	I/E Range Lower Limit
IERANGEMODE	TOGGLE	F	I/E AutoRange
IERANGE	IQUANT	11	I/E Range
POSFEEDENABLE	TOGGLE	F	Positive Feedback IR Comp
POSFEEDRESISTANCE	QUANT	0	Positive Feedback Resistance (ohm)
ACHSELECT	IQUANT	0	Ach Select
CABLEID	IQUANT	13	Cable ID
DCCALDATE	LABEL	7/31/2020	DC Calibration Date
ACCALDATE	LABEL	7/31/2020	AC Calibration Date
THERMOSELECT	IQUANT	1	Thermo Select
FRAMEWORKVERSION	QUANT	6.33	Framework Version
INSTRUMENTVERSION	LABEL	3.50	Instrument Version
COMPLIANCEVOLTAGE	IQUANT	0	Compliance Voltage
ZCURVE	TABLE
	Pt	Time	Freq	Zreal	Zimag	Zsig	Zmod	Zphz	Idc	Vdc	IERange
	#	s	Hz	ohm	ohm	V	ohm	°	A	V	#
	0	8	300046.9	6.771331	2.214806	1	7.124345	18.11218	-2.885057E-005	0.0001608	10
	1	12	238359.4	6.743244	1.740007	1	6.964119	14.46882	2.971602E-005	-2.031973E-005	10
	2	15	189328.1	6.745906	1.374351	1	6.884482	11.51534	1.343119E-005	0.0002226	10
	3	17	150421.9	6.74718	1.084242	1	6.833741	9.12913	4.378567E-005	0.000497	10
	4	20	119484.4	6.753483	0.830863	1	6.804401	7.013702	-9.242001E-005	0.0005989	10
	5	22	94921.88	6.764614	0.6509233	1	6.795859	5.49635	-8.618966E-006	0.000551	10
	6	25	75421.88	6.775746	0.474198	1	6.792319	4.003295	-3.153192E-005	0.0005821	10
	7	27	59859.37	6.789229	0.3203967	1	6.796785	2.701893	6.54089E-007	0.0006036	10
	8	30	47578.12	6.808386	0.1880626	1	6.810983	1.582233	-1.106135E-005	0.0006443	10
	9	32	37828.12	6.828179	0.068819	1	6.828526	0.5774459	2.044E-005	0.0006642	10
	10	35	30046.88	6.848356	-0.0436743	1	6.848495	-0.3653898	1.006155E-005	0.0006436	10
	11	37	23859.38	6.871696	-0.1554801	1	6.873455	-1.296163	6.350879E-006	0.0007	10
	12	40	18984.38	6.894936	-0.2719617	1	6.900298	-2.258785	1.989904E-005	0.0006528	10
	13	42	15046.87	6.920927	-0.4013108	1	6.932552	-3.318587	3.651926E-006	0.000645	10
	14	44	11953.13	6.950652	-0.547608	1	6.97219	-4.50475	-2.971021E-005	0.0006702	10
	15	47	9515.62	6.984551	-0.7154726	1	7.021101	-5.848775	-1.403416E-005	0.000722	10
	16	49	7546.875	7.022814	-0.9187396	1	7.082655	-7.45323	-3.343806E-005	0.0006776	10
	17	51	5928.309	7.07111	-1.173701	1	7.167857	-9.424338	-2.697376E-005	0.0007047	10
	18	54	4733.456	7.125678	-1.462738	1	7.274262	-11.60035	1.584546E-005	0.0006472	10
	19	56	3796.875	7.19103	-1.805462	1	7.414216	-14.094	9.586544E-006	0.0006369	10
	20	58	2987.132	7.275755	-2.259862	1	7.618635	-17.25488	-2.270383E-005	0.0007046	10
	21	60	2390.625	7.372446	-2.776568	1	7.877962	-20.63709	2.186758E-005	0.0006848	10
	22	63	1884.191	7.49838	-3.449587	1	8.253809	-24.70452	1.699376E-005	0.0006749	10
	23	65	1516.544	7.637422	-4.198345	1	8.715292	-28.7979	-3.00329E-005	0.0006987	10
	24	67	1193.986	7.82161	-5.20591	1	9.395695	-33.64695	-1.457463E-005	0.0006741	10
	25	70	946.5144	8.043623	-6.409368	1	10.28493	-38.54875	-1.207038E-005	0.0006883	10
	26	72	751.7689	8.299631	-7.884876	1	11.44793	-43.53202	-1.429223E-005	0.00068	10
	27	75	597.4265	8.612313	-9.6928	1	12.9662	-48.37806	1.842162E-005	0.0006616	10
	28	77	477.4305	8.98619	-11.85517	1	14.87604	-52.83796	-4.759355E-006	0.0006896	10
	29	79	376.6741	9.475841	-14.67106	1	17.46515	-57.14212	-4.558852E-006	0.0006875	10
	30	82	298.2954	10.07909	-18.0974	1	20.71482	-60.885	-4.19E-006	0.0006925	10
	31	84	237.7717	10.81373	-22.19334	1	24.68767	-64.02229	-5.372858E-006	0.0006865	10
	32	86	189.0121	11.75102	-27.28326	1	29.70628	-66.69824	-4.012295E-006	0.000685	10
	33	89	150.2404	12.93486	-33.52293	1	35.93185	-68.90083	-4.518026E-006	0.0007129	10
	34	91	119.1737	14.43567	-41.21164	1	43.66678	-70.69559	-5.658098E-007	8.751485E-005	9
	35	93	95.0169	16.32795	-50.45044	1	53.02687	-72.06617	-6.262957E-007	9.302663E-005	9
	36	96	75.60484	18.77219	-61.82996	1	64.61687	-73.11119	-6.622934E-007	8.44387E-005	9
	37	99	54.50582	23.52032	-82.5706	1	85.85517	-74.10034	-7.506627E-007	8.229981E-005	9
	38	101	45.95588	26.77975	-95.9421	1	99.6094	-74.4043	-3.502053E-007	8.892309E-005	9
	39	103	37.20238	31.76049	-115.3582	1	119.6505	-74.60667	-7.091605E-007	0.000097	9
	40	106	30.04808	38.14613	-138.8059	1	143.9521	-74.63353	-6.090376E-007	8.292848E-005	9
	41	108	23.91582	46.7716	-168.6505	1	175.0159	-74.49979	-6.969742E-007	7.889992E-005	9
	42	111	18.60119	59.14091	-208.5854	1	216.8075	-74.1702	-7.021296E-007	8.123573E-005	9
	43	113	15.02404	72.45194	-248.9721	1	259.2998	-73.77478	-2.568537E-007	0.0000952	9
	44	115	12.01923	89.47839	-298.7145	1	311.8281	-73.32468	-3.845666E-007	8.303268E-005	9
	45	118	9.450605	112.0092	-362.1913	1	379.1156	-72.81555	-6.923481E-007	8.020075E-005	9
	46	120	7.512019	136.8365	-432.4767	1	453.6082	-72.44252	-1.275631E-006	0.0006533	8
	47	123	5.978954	166.5795	-517.645	1	543.7877	-72.1617	-1.112878E-006	0.0006711	8
	48	126	4.734848	202.4212	-622.6354	1	654.7131	-71.99046	-1.141692E-006	0.000675	8
	49	129	3.75601	243.9549	-748.5634	1	787.3126	-71.94934	-1.059635E-006	0.0006675	8
	50	133	3.004808	291.666	-895.0615	1	941.3842	-71.95121	-1.1504E-006	0.0006992	8
	51	136	2.372217	353.492	-1082.811	1	1139.051	-71.92033	-1.11465E-006	0.0006857	8
	52	140	1.878005	432.5005	-1311.854	1	1381.31	-71.75332	-1.047653E-006	0.0006485	8
	53	145	1.512097	522.094	-1566.586	1	1651.294	-71.56838	-1.081632E-006	0.0007628	8
	54	151	1.201923	645.2393	-1890.341	1	1997.429	-71.15343	-1.030204E-006	0.0006429	8
	55	157	0.956633	800.0771	-2275.574	1	2412.127	-70.62865	-1.144983E-006	2.030686E-005	8
