EXPLAIN
TAG	EISPOT
TITLE	LABEL	Potentiostatic EIS	Test Identifier
DATE	LABEL	2/24/2021	Date
TIME	LABEL	21:46:34	Time
NOTES	NOTES	1	Notes...
	
PSTAT	PSTAT	REF3000-16137	Potentiostat
VDC	POTEN	0.00000E+000	T	DC Voltage (V)
FREQINIT	QUANT	3.00000E+005	Initial Freq. (Hz)
FREQFINAL	QUANT	1.00000E+000	Final Freq. (Hz)
PTSPERDEC	QUANT	1.00000E+001	Points/decade
VAC	QUANT	5.00000E+001	AC Voltage (mV rms)
AREA	QUANT	1.00000E+000	Sample Area (cm^2)
SPEED	SELECTOR	2	Optimize for:
ZGUESS	QUANT	1.00000E+003	Estimated Z (ohms)
EOC	QUANT	0	Open Circuit (V)
SEQUENCER	TOGGLE	TRUE	Run as Sequence
PSTATMODEL	IQUANT	5	Pstat Model
PSTATSECTION	LABEL	REF3000-16137	Pstat Section
PSTATSERIALNO	LABEL	16137	Pstat Serial Number
CTRLMODE	IQUANT	1	Control Mode
IESTAB	IQUANT	0	I/E Stability
CASPEED	IQUANT	1	Control Amp Speed
CONVENTION	IQUANT	1	Current Convention
ICHRANGE	IQUANT	2	Ich Range
ICHRANGEMODE	TOGGLE	F	Ich Auto Range
ICHOFFSETENABLE	TOGGLE	T	Ich Offset Enable
ICHOFFSET	QUANT	0	Ich Offset (V)
ICHFILTER	IQUANT	3	Ich Filter
VCHRANGE	IQUANT	2	Vch Range
VCHRANGEMODE	TOGGLE	F	Vch Auto Range
VCHOFFSETENABLE	TOGGLE	T	Vch Offset Enable
VCHOFFSET	QUANT	0	Vch Offset (V)
VCHFILTER	IQUANT	3	Vch Filter
ACHRANGE	IQUANT	2	Ach Range
ACHOFFSETENABLE	TOGGLE	F	Ach Offset Enable
ACHOFFSET	QUANT	0	Ach Offset (V)
ACHFILTER	IQUANT	3	Ach Filter
IERANGELOWERLIMIT	IQUANT	2	I/E Range Lower Limit
IERANGEMODE	TOGGLE	F	I/E AutoRange
IERANGE	IQUANT	11	I/E Range
POSFEEDENABLE	TOGGLE	F	Positive Feedback IR Comp
POSFEEDRESISTANCE	QUANT	0	Positive Feedback Resistance (ohm)
ACHSELECT	IQUANT	0	Ach Select
CABLEID	IQUANT	13	Cable ID
DCCALDATE	LABEL	7/31/2020	DC Calibration Date
ACCALDATE	LABEL	7/31/2020	AC Calibration Date
THERMOSELECT	IQUANT	1	Thermo Select
FRAMEWORKVERSION	QUANT	6.33	Framework Version
INSTRUMENTVERSION	LABEL	3.50	Instrument Version
COMPLIANCEVOLTAGE	IQUANT	0	Compliance Voltage
ZCURVE	TABLE
	Pt	Time	Freq	Zreal	Zimag	Zsig	Zmod	Zphz	Idc	Vdc	IERange
	#	s	Hz	ohm	ohm	V	ohm	°	A	V	#
	0	8	300046.9	15.53193	2.023884	1	15.66323	7.424081	7.393491E-005	3.033947E-005	10
	1	11	238359.4	15.57384	1.617897	1	15.65765	5.930928	-5.335339E-005	0.0004092	10
	2	14	189328.1	15.61162	1.275139	1	15.66361	4.669485	-0.0001067	0.0003984	10
	3	17	150421.9	15.64462	0.980889	1	15.67534	3.587643	6.3505E-005	0.0004624	10
	4	19	119484.4	15.69725	0.7592722	1	15.71561	2.769224	-1.97878E-005	0.0006813	10
	5	22	94921.88	15.73702	0.5821844	1	15.74779	2.118666	-7.066531E-006	0.0006187	10
	6	24	75421.88	15.78922	0.4085767	1	15.79451	1.482309	-1.731376E-005	0.0006355	10
	7	27	59859.37	15.84446	0.2619074	1	15.84662	0.9470076	-2.39749E-005	0.0006554	10
	8	29	47578.12	15.89998	0.135049	1	15.90056	0.4866392	1.338923E-005	0.0006989	10
	9	32	37828.12	15.95657	0.0165156	1	15.95658	0.059303	-2.487053E-005	0.0007255	10
	10	34	30046.88	16.01508	-0.0960499	1	16.01537	-0.3436255	-2.742579E-005	0.0007227	10
	11	37	23859.38	16.06994	-0.2133774	1	16.07136	-0.7607313	1.295725E-005	0.0006532	10
	12	39	18984.38	16.1305	-0.3367817	1	16.13402	-1.19608	-2.402256E-005	0.0007082	10
	13	42	15046.87	16.18981	-0.4734486	1	16.19673	-1.675058	-1.849566E-005	0.0006853	10
	14	44	11953.13	16.25649	-0.6359818	1	16.26893	-2.240366	-2.304139E-005	0.0007001	10
	15	46	9515.62	16.3245	-0.821969	1	16.34518	-2.882515	1.902628E-005	0.0006517	10
	16	49	7546.875	16.39975	-1.046614	1	16.43311	-3.651603	1.905909E-005	0.0006499	10
	17	51	5928.309	16.48288	-1.328737	1	16.53635	-4.608829	-2.218911E-005	0.0007145	10
	18	53	4733.456	16.57123	-1.65344	1	16.65351	-5.697987	1.276821E-005	0.0006323	10
	19	56	3796.875	16.66813	-2.039759	1	16.79248	-6.976868	-2.988067E-005	0.0006834	10
	20	58	2987.132	16.79114	-2.552342	1	16.98401	-8.6431	-2.722934E-005	0.0007141	10
	21	60	2390.625	16.92216	-3.142218	1	17.21142	-10.51925	1.704913E-005	0.0007184	10
	22	62	1884.191	17.08572	-3.91581	1	17.52871	-12.90847	-2.734884E-005	0.0006966	10
	23	65	1516.544	17.27188	-4.777948	1	17.92056	-15.46313	-2.839484E-005	0.0007082	10
	24	67	1193.986	17.50839	-5.942416	1	18.48935	-18.74741	-2.291299E-005	0.0007183	10
	25	70	946.5144	17.79383	-7.339791	1	19.24819	-22.4157	-2.865417E-005	0.0006831	10
	26	72	751.7689	18.13113	-9.022031	1	20.25179	-26.45489	-4.093313E-006	0.0006523	10
	27	74	597.4265	18.53229	-11.09468	1	21.59948	-30.90759	1.47486E-005	0.0006912	10
	28	77	477.4305	19.00565	-13.55015	1	23.3414	-35.48711	-3.628455E-006	0.0006867	10
	29	79	376.6741	19.60117	-16.74235	1	25.77813	-40.50231	-3.474822E-006	0.0006825	10
	30	81	298.2954	20.31209	-20.62529	1	28.94795	-45.43835	-2.832582E-006	0.0007054	10
	31	84	237.7717	21.14331	-25.26368	1	32.94379	-50.07384	-2.59365E-006	0.0006822	10
	32	86	189.0121	22.16645	-31.03551	1	38.13861	-54.46449	-2.921569E-006	0.0006938	10
	33	88	150.2404	23.39884	-38.09247	1	44.70506	-58.43908	7.558953E-007	8.549996E-005	9
	34	91	119.1737	24.97482	-46.91066	1	53.14463	-61.96956	8.057539E-007	8.605997E-005	9
	35	93	95.0169	26.89849	-57.50973	1	63.48935	-64.93353	7.100841E-007	0.0001112	9
	36	96	75.60484	29.34901	-70.62008	1	76.47588	-67.43271	7.85642E-007	8.158E-005	9
	37	98	54.50582	33.98762	-94.69674	1	100.6113	-70.25642	7.317385E-007	7.747606E-005	9
	38	101	45.95588	37.15758	-110.3445	1	116.4327	-71.38947	8.068862E-007	8.197798E-005	9
	39	103	37.20238	41.93542	-133.2337	1	139.6774	-72.52856	7.611301E-007	8.537604E-005	9
	40	105	30.04808	48.03449	-161.1191	1	168.1269	-73.39909	7.200867E-007	8.587753E-005	9
	41	108	23.91582	56.33924	-197.1878	1	205.0784	-74.05464	8.546194E-007	7.900911E-005	9
	42	110	18.60119	68.15145	-245.8535	1	255.1246	-74.50644	5.65735E-007	9.193875E-005	9
	43	112	15.02404	81.32767	-296.1866	1	307.1493	-74.64599	9.824319E-007	9.327958E-005	9
	44	115	12.01923	98.6339	-359.1617	1	372.4591	-74.64385	9.05458E-007	8.25377E-005	9
	45	117	9.450605	122.212	-439.1144	1	455.8039	-74.44733	9.261849E-008	0.00069	8
	46	120	7.512019	151.7985	-532.5159	1	553.7292	-74.08932	-2.389551E-008	0.0006594	8
	47	122	5.978954	188.1178	-643.1537	1	670.1008	-73.69618	3.493351E-008	0.0006686	8
	48	125	4.734848	234.9419	-777.8209	1	812.5288	-73.19299	1.200304E-007	0.0006668	8
	49	129	3.75601	290.5429	-936.3862	1	980.426	-72.76187	1.097229E-007	0.0006722	8
	50	132	3.004808	354.1508	-1116.653	1	1171.468	-72.40337	1.900585E-007	0.0006359	8
	51	136	2.372217	434.3539	-1346.093	1	1414.436	-72.11627	1.397494E-007	0.0005894	8
	52	140	1.878005	524.9888	-1619.469	1	1702.438	-72.03869	1.97144E-007	0.0006702	8
	53	145	1.512097	624.3835	-1921.068	1	2019.99	-71.99486	1.561835E-007	0.0006232	8
	54	150	1.201923	751.4611	-2319.136	1	2437.844	-72.04631	1.879629E-007	0.0006871	8
	55	156	0.956633	905.3613	-2794.722	1	2937.712	-72.05006	1.263333E-007	1.820946E-005	8
