EXPLAIN
TAG	EISPOT
TITLE	LABEL	Potentiostatic EIS	Test Identifier
DATE	LABEL	2/24/2021	Date
TIME	LABEL	22:08:44	Time
NOTES	NOTES	1	Notes...
	
PSTAT	PSTAT	REF3000-16137	Potentiostat
VDC	POTEN	0.00000E+000	T	DC Voltage (V)
FREQINIT	QUANT	3.00000E+005	Initial Freq. (Hz)
FREQFINAL	QUANT	1.00000E+000	Final Freq. (Hz)
PTSPERDEC	QUANT	1.00000E+001	Points/decade
VAC	QUANT	5.00000E+001	AC Voltage (mV rms)
AREA	QUANT	1.00000E+000	Sample Area (cm^2)
SPEED	SELECTOR	2	Optimize for:
ZGUESS	QUANT	1.00000E+003	Estimated Z (ohms)
EOC	QUANT	0	Open Circuit (V)
SEQUENCER	TOGGLE	TRUE	Run as Sequence
PSTATMODEL	IQUANT	5	Pstat Model
PSTATSECTION	LABEL	REF3000-16137	Pstat Section
PSTATSERIALNO	LABEL	16137	Pstat Serial Number
CTRLMODE	IQUANT	1	Control Mode
IESTAB	IQUANT	0	I/E Stability
CASPEED	IQUANT	1	Control Amp Speed
CONVENTION	IQUANT	1	Current Convention
ICHRANGE	IQUANT	2	Ich Range
ICHRANGEMODE	TOGGLE	F	Ich Auto Range
ICHOFFSETENABLE	TOGGLE	T	Ich Offset Enable
ICHOFFSET	QUANT	0	Ich Offset (V)
ICHFILTER	IQUANT	3	Ich Filter
VCHRANGE	IQUANT	2	Vch Range
VCHRANGEMODE	TOGGLE	F	Vch Auto Range
VCHOFFSETENABLE	TOGGLE	T	Vch Offset Enable
VCHOFFSET	QUANT	0	Vch Offset (V)
VCHFILTER	IQUANT	3	Vch Filter
ACHRANGE	IQUANT	2	Ach Range
ACHOFFSETENABLE	TOGGLE	F	Ach Offset Enable
ACHOFFSET	QUANT	0	Ach Offset (V)
ACHFILTER	IQUANT	3	Ach Filter
IERANGELOWERLIMIT	IQUANT	2	I/E Range Lower Limit
IERANGEMODE	TOGGLE	F	I/E AutoRange
IERANGE	IQUANT	11	I/E Range
POSFEEDENABLE	TOGGLE	F	Positive Feedback IR Comp
POSFEEDRESISTANCE	QUANT	0	Positive Feedback Resistance (ohm)
ACHSELECT	IQUANT	0	Ach Select
CABLEID	IQUANT	13	Cable ID
DCCALDATE	LABEL	7/31/2020	DC Calibration Date
ACCALDATE	LABEL	7/31/2020	AC Calibration Date
THERMOSELECT	IQUANT	1	Thermo Select
FRAMEWORKVERSION	QUANT	6.33	Framework Version
INSTRUMENTVERSION	LABEL	3.50	Instrument Version
COMPLIANCEVOLTAGE	IQUANT	0	Compliance Voltage
ZCURVE	TABLE
	Pt	Time	Freq	Zreal	Zimag	Zsig	Zmod	Zphz	Idc	Vdc	IERange
	#	s	Hz	ohm	ohm	V	ohm	°	A	V	#
	0	7	300046.9	132.5089	-2.494205	1	132.5324	-1.078347	-1.744123E-005	0.0006761	9
	1	10	238359.4	133.8255	-2.155417	1	133.8428	-0.9227364	3.031511E-005	0.00025	9
	2	13	189328.1	134.8444	-2.340151	1	134.8647	-0.994237	-1.52615E-005	0.0009935	9
	3	16	150421.9	135.2113	-1.628757	1	135.2211	-0.6901524	2.585292E-005	0.0005005	9
	4	19	119484.4	136.5006	-1.567591	1	136.5096	-0.6579633	6.597685E-005	-0.0015283	9
	5	21	94921.88	137.458	-1.209854	1	137.4633	-0.5042831	-2.147411E-005	0.0006167	9
	6	24	75421.88	138.2831	-1.17325	1	138.2881	-0.4861089	2.291611E-005	-0.0002381	9
	7	26	59859.37	139.0807	-1.087161	1	139.0849	-0.4478585	-1.489488E-005	0.0001769	9
	8	29	47578.12	139.991	-0.980837	1	139.9945	-0.4014322	-1.816997E-005	0.0007223	9
	9	31	37828.12	140.8164	-0.987287	1	140.8198	-0.4017035	-9.863262E-006	-1.151729E-005	9
	10	34	30046.88	141.5667	-1.016527	1	141.5704	-0.4114083	1.430177E-005	-0.0006786	9
	11	36	23859.38	142.3932	-0.997479	1	142.3967	-0.4013563	1.071429E-005	0.0002063	9
	12	39	18984.38	143.1457	-1.022233	1	143.1493	-0.4091541	1.061328E-005	0.000212	9
	13	41	15046.87	143.9047	-1.095262	1	143.9089	-0.4360711	-2.14281E-005	0.0007474	9
	14	43	11953.13	144.4247	-1.249682	1	144.4301	-0.4957581	-6.448071E-006	0.0007972	9
	15	46	9515.62	145.4716	-1.368368	1	145.478	-0.5389328	-1.655123E-005	0.0004406	9
	16	48	7546.875	146.0962	-1.442632	1	146.1033	-0.565751	-2.212164E-005	0.0006426	9
	17	50	5928.309	147.1205	-2.002482	1	147.1341	-0.7798143	2.476353E-005	-0.0004293	9
	18	53	4733.456	147.7673	-2.405211	1	147.7869	-0.9325222	-1.38995E-005	0.0008916	9
	19	55	3796.875	148.7062	-2.880446	1	148.7341	-1.109683	-1.825227E-005	0.0008036	9
	20	57	2987.132	149.4774	-3.35898	1	149.5152	-1.287305	2.085963E-005	-0.0007558	9
	21	60	2390.625	150.3756	-4.244355	1	150.4355	-1.616745	2.010149E-006	0.0005868	9
	22	62	1884.191	151.419	-5.366465	1	151.5141	-2.029779	1.15539E-005	0.0002309	9
	23	64	1516.544	152.2709	-6.406124	1	152.4056	-2.409045	-1.598697E-006	-0.0003069	9
	24	66	1193.986	153.2627	-7.761351	1	153.4591	-2.89903	6.809934E-006	-0.0005382	9
	25	69	946.5144	154.38	-9.63098	1	154.6801	-3.569767	-2.05388E-005	0.0004905	9
	26	71	751.7689	155.3205	-11.99915	1	155.7833	-4.417561	2.035506E-005	-0.000746	9
	27	74	597.4265	156.6414	-14.74003	1	157.3334	-5.375729	1.471123E-005	-0.0006908	9
	28	76	477.4305	157.8303	-18.02609	1	158.8564	-6.515624	1.237642E-006	8.109236E-005	9
	29	78	376.6741	159.2729	-22.37729	1	160.8371	-7.997512	1.242504E-006	8.025047E-005	9
	30	81	298.2954	160.8923	-27.69591	1	163.2586	-9.76714	1.202404E-006	8.873107E-005	9
	31	83	237.7717	162.7216	-34.06302	1	166.2486	-11.82318	1.259541E-006	8.607376E-005	9
	32	86	189.0121	164.8642	-41.97327	1	170.1233	-14.28366	1.290968E-006	8.177292E-005	9
	33	88	150.2404	167.3567	-51.68497	1	175.1559	-17.16232	1.223497E-006	7.913906E-005	9
	34	90	119.1737	170.2927	-63.6969	1	181.8156	-20.50799	1.264115E-006	8.151875E-005	9
	35	93	95.0169	173.7249	-78.04975	1	190.4524	-24.19305	1.221374E-006	8.538178E-005	9
	36	95	75.60484	177.854	-95.7286	1	201.9802	-28.29104	1.168811E-006	8.04545E-005	9
	37	98	54.50582	184.6791	-128.0005	1	224.7009	-34.7257	1.240583E-006	7.55915E-005	9
	38	100	45.95588	189.3681	-148.9389	1	240.9213	-38.18522	1.284662E-006	8.53763E-005	9
	39	103	37.20238	195.7569	-179.6355	1	265.6872	-42.54093	1.322528E-006	7.866764E-005	9
	40	105	30.04808	203.3523	-217.1625	1	297.5092	-46.88099	1.299625E-006	8.528507E-005	9
	41	108	23.91582	212.9092	-265.9933	1	340.7092	-51.32515	1.328539E-006	8.107179E-005	9
	42	110	18.60119	225.5683	-332.8098	1	402.049	-55.87178	1.304266E-006	8.299356E-005	9
	43	112	15.02404	237.9944	-401.118	1	466.4086	-59.31817	2.096264E-007	0.0006759	8
	44	115	12.01923	254.994	-489.7746	1	552.1785	-62.49692	4.112576E-008	0.0006626	8
	45	117	9.450605	277.8172	-607.3445	1	667.8695	-65.41926	2.01321E-007	0.0006431	8
	46	120	7.512019	305.3295	-746.0618	1	806.123	-67.74293	1.547366E-007	0.000652	8
	47	122	5.978954	339.9374	-914.4394	1	975.58	-69.60768	1.925365E-007	0.0006508	8
	48	125	4.734848	384.3943	-1126.402	1	1190.185	-71.15736	7.565407E-008	0.0006391	8
	49	129	3.75601	441.5828	-1384.209	1	1452.939	-72.30656	1.857853E-007	0.0006792	8
	50	132	3.004808	511.45	-1685.96	1	1761.829	-73.12439	1.15758E-007	0.0006871	8
	51	136	2.372217	609.9313	-2073.634	1	2161.475	-73.60947	1.360294E-007	0.0006049	8
	52	140	1.878005	730.2507	-2549.38	1	2651.906	-74.01604	1.834448E-007	0.0006551	8
	53	145	1.512097	870.8028	-3071.51	1	3192.564	-74.17145	1.457329E-007	0.0006688	8
	54	150	1.201923	1069.874	-3754.022	1	3903.5	-74.09277	1.675961E-007	0.000675	8
	55	156	0.956633	1320.609	-4570.133	1	4757.113	-73.88255	-3.915604E-008	-8.697976E-006	7
