EXPLAIN
TAG	EISPOT
TITLE	LABEL	Potentiostatic EIS	Test Identifier
DATE	LABEL	2/24/2021	Date
TIME	LABEL	22:14:25	Time
NOTES	NOTES	1	Notes...
	
PSTAT	PSTAT	REF3000-16137	Potentiostat
VDC	POTEN	0.00000E+000	T	DC Voltage (V)
FREQINIT	QUANT	3.00000E+005	Initial Freq. (Hz)
FREQFINAL	QUANT	1.00000E+000	Final Freq. (Hz)
PTSPERDEC	QUANT	1.00000E+001	Points/decade
VAC	QUANT	5.00000E+001	AC Voltage (mV rms)
AREA	QUANT	1.00000E+000	Sample Area (cm^2)
SPEED	SELECTOR	2	Optimize for:
ZGUESS	QUANT	1.00000E+003	Estimated Z (ohms)
EOC	QUANT	0	Open Circuit (V)
SEQUENCER	TOGGLE	TRUE	Run as Sequence
PSTATMODEL	IQUANT	5	Pstat Model
PSTATSECTION	LABEL	REF3000-16137	Pstat Section
PSTATSERIALNO	LABEL	16137	Pstat Serial Number
CTRLMODE	IQUANT	1	Control Mode
IESTAB	IQUANT	0	I/E Stability
CASPEED	IQUANT	1	Control Amp Speed
CONVENTION	IQUANT	1	Current Convention
ICHRANGE	IQUANT	2	Ich Range
ICHRANGEMODE	TOGGLE	F	Ich Auto Range
ICHOFFSETENABLE	TOGGLE	T	Ich Offset Enable
ICHOFFSET	QUANT	0	Ich Offset (V)
ICHFILTER	IQUANT	3	Ich Filter
VCHRANGE	IQUANT	2	Vch Range
VCHRANGEMODE	TOGGLE	F	Vch Auto Range
VCHOFFSETENABLE	TOGGLE	T	Vch Offset Enable
VCHOFFSET	QUANT	0	Vch Offset (V)
VCHFILTER	IQUANT	3	Vch Filter
ACHRANGE	IQUANT	2	Ach Range
ACHOFFSETENABLE	TOGGLE	F	Ach Offset Enable
ACHOFFSET	QUANT	0	Ach Offset (V)
ACHFILTER	IQUANT	3	Ach Filter
IERANGELOWERLIMIT	IQUANT	2	I/E Range Lower Limit
IERANGEMODE	TOGGLE	F	I/E AutoRange
IERANGE	IQUANT	11	I/E Range
POSFEEDENABLE	TOGGLE	F	Positive Feedback IR Comp
POSFEEDRESISTANCE	QUANT	0	Positive Feedback Resistance (ohm)
ACHSELECT	IQUANT	0	Ach Select
CABLEID	IQUANT	13	Cable ID
DCCALDATE	LABEL	7/31/2020	DC Calibration Date
ACCALDATE	LABEL	7/31/2020	AC Calibration Date
THERMOSELECT	IQUANT	1	Thermo Select
FRAMEWORKVERSION	QUANT	6.33	Framework Version
INSTRUMENTVERSION	LABEL	3.50	Instrument Version
COMPLIANCEVOLTAGE	IQUANT	0	Compliance Voltage
ZCURVE	TABLE
	Pt	Time	Freq	Zreal	Zimag	Zsig	Zmod	Zphz	Idc	Vdc	IERange
	#	s	Hz	ohm	ohm	V	ohm	°	A	V	#
	0	17	300046.9	291.6696	-25.63983	1	292.7943	-5.023793	2.481568E-005	-0.000592	9
	1	21	238359.4	297.6377	-22.11284	1	298.458	-4.248955	-2.856357E-005	-0.0007513	9
	2	27	189328.1	303.342	-17.09969	1	303.8235	-3.226406	-8.673615E-005	0.0022168	9
	3	32	150421.9	309.3759	-18.74617	1	309.9433	-3.467512	-0.0000994	0.0006265	10
	4	36	119484.4	311.9018	-13.26413	1	312.1837	-2.435129	-8.381323E-005	0.0022448	9
	5	40	94921.88	315.6093	-11.10052	1	315.8044	-2.01436	2.538145E-005	-0.0005484	9
	6	44	75421.88	318.1524	-9.497984	1	318.2941	-1.709976	1.697562E-005	-0.0008567	9
	7	47	59859.37	320.8082	-7.668078	1	320.8999	-1.369244	-1.62687E-005	0.0010282	9
	8	49	47578.12	322.2684	-7.164575	1	322.348	-1.273573	6.098358E-006	-0.000615	9
	9	52	37828.12	325.4655	-4.645531	1	325.4987	-0.8177555	-6.190932E-007	-0.0003894	9
	10	54	30046.88	327.435	-4.8274	1	327.4706	-0.844655	1.112957E-005	0.0002772	9
	11	57	23859.38	329.6083	-3.913473	1	329.6315	-0.6802467	-1.55468E-005	0.0001085	9
	12	59	18984.38	331.7387	-3.410072	1	331.7562	-0.588945	-1.594847E-005	0.0001234	9
	13	62	15046.87	333.444	-1.669538	1	333.4482	-0.2868748	-1.694875E-005	0.0009696	9
	14	64	11953.13	336.1689	-2.980382	1	336.1821	-0.5079555	8.002249E-006	0.0004502	9
	15	66	9515.62	338.4637	-3.031858	1	338.4773	-0.5132248	-2.120251E-005	0.0006558	9
	16	69	7546.875	339.2345	-2.733353	1	339.2455	-0.4616458	-9.583415E-006	-6.516505E-005	9
	17	71	5928.309	343.1159	-3.368432	1	343.1325	-0.5624651	2.297732E-005	-0.0008318	9
	18	74	4733.456	344.8423	-2.722183	1	344.8531	-0.452283	-2.353312E-005	0.0008633	9
	19	76	3796.875	345.894	-4.208561	1	345.9196	-0.6970947	-1.684043E-005	0.0010538	9
	20	78	2987.132	349.2878	-5.480589	1	349.3307	-0.8989404	2.303918E-008	0.0006875	9
	21	81	2390.625	349.7327	-5.133625	1	349.7704	-0.8409677	-1.283356E-005	0.0045573	8
	22	83	1884.191	353.6943	-6.259311	1	353.7497	-1.013855	1.185569E-005	0.0003094	9
	23	85	1516.544	355.6792	-7.132541	1	355.7507	-1.148815	2.341759E-005	-0.0008581	9
	24	87	1193.986	358.0319	-9.447292	1	358.1565	-1.511498	-2.404091E-005	0.0008727	9
	25	90	946.5144	361.2478	-10.87327	1	361.4114	-1.724036	-2.425175E-005	0.0006941	9
	26	93	751.7689	363.8539	-14.22899	1	364.132	-2.239486	-2.250529E-005	0.0010207	9
	27	95	597.4265	365.7039	-15.9005	1	366.0494	-2.489604	2.610098E-005	-0.0007548	9
	28	97	477.4305	368.8019	-20.04027	1	369.346	-3.110327	1.144058E-006	8.496406E-005	9
	29	99	376.6741	370.1329	-24.66178	1	370.9536	-3.811956	1.558454E-009	0.0006504	8
	30	102	298.2954	373.1757	-30.47639	1	374.4181	-4.668851	-6.07174E-009	0.000673	8
	31	104	237.7717	376.5296	-37.47549	1	378.39	-5.683854	2.075409E-008	0.0006474	8
	32	107	189.0121	380.179	-46.19945	1	382.9758	-6.928626	7.683727E-009	0.0006577	8
	33	109	150.2404	384.1882	-56.96375	1	388.3883	-8.433824	-1.943019E-008	0.000673	8
	34	112	119.1737	388.6483	-70.38638	1	394.9706	-10.26532	2.930325E-008	0.0006468	8
	35	114	95.0169	393.687	-86.4741	1	403.0723	-12.38839	2.879439E-008	0.0006487	8
	36	116	75.60484	399.5504	-106.3909	1	413.4725	-14.91055	1.680581E-009	0.0006479	8
	37	119	54.50582	408.4899	-142.8926	1	432.7612	-19.28019	-2.19775E-009	0.0006601	8
	38	122	45.95588	415.2352	-166.5677	1	447.3981	-21.85772	8.688138E-009	0.0006486	8
	39	124	37.20238	423.9524	-201.1795	1	469.2642	-25.38589	2.990902E-008	0.0006562	8
	40	126	30.04808	434.2868	-243.3066	1	497.7983	-29.25947	7.456348E-009	0.0006636	8
	41	129	23.91582	446.9119	-297.8059	1	537.0461	-33.67805	7.446317E-008	0.0006477	8
	42	131	18.60119	463.0312	-372.0695	1	593.998	-38.78368	9.976636E-008	0.0006552	8
	43	133	15.02404	479.7131	-449.3704	1	657.3115	-43.12946	-6.689945E-008	0.0006452	8
	44	136	12.01923	500.165	-547.3467	1	741.4536	-47.57896	2.82494E-008	0.0006529	8
	45	138	9.450605	526.5219	-677.5634	1	858.0894	-52.14988	-4.470368E-008	0.0006538	8
	46	141	7.512019	556.8135	-831.4663	1	1000.688	-56.19071	3.884845E-008	0.0006589	8
	47	143	5.978954	594.3646	-1018.642	1	1179.364	-59.73698	-3.565271E-008	0.0006588	8
	48	146	4.734848	641.9277	-1256.009	1	1410.542	-62.92909	6.010406E-008	0.0006678	8
	49	150	3.75601	700.1301	-1544.273	1	1695.571	-65.61179	-1.759686E-008	0.0006425	8
	50	153	3.004808	770.5991	-1883.997	1	2035.502	-67.75428	3.869739E-008	0.0006367	8
	51	157	2.372217	866.7838	-2323.342	1	2479.764	-69.54064	8.130582E-009	0.000685	8
	52	161	1.878005	987.503	-2868.26	1	3033.493	-71.00211	-2.166503E-008	0.00065	8
	53	166	1.512097	1122.25	-3472.465	1	3649.309	-72.08993	1.19643E-008	0.0006199	8
	54	171	1.201923	1319.767	-4275.209	1	4474.282	-72.84442	-3.551318E-008	0.0006124	7
	55	177	0.956633	1561.013	-5228.337	1	5456.397	-73.37608	-4.02951E-008	-1.334138E-005	7
