EXPLAIN
TAG	EISPOT
TITLE	LABEL	Potentiostatic EIS	Test Identifier
DATE	LABEL	8/5/2020	Date
TIME	LABEL	20:26:59	Time
NOTES	NOTES	1	Notes...
	
PSTAT	PSTAT	REF3000-16137	Potentiostat
VDC	POTEN	0.00000E+000	T	DC Voltage (V)
FREQINIT	QUANT	3.00000E+005	Initial Freq. (Hz)
FREQFINAL	QUANT	1.00000E+000	Final Freq. (Hz)
PTSPERDEC	QUANT	1.00000E+001	Points/decade
VAC	QUANT	5.00000E+001	AC Voltage (mV rms)
AREA	QUANT	1.00000E+000	Sample Area (cm^2)
SPEED	SELECTOR	2	Optimize for:
ZGUESS	QUANT	1.00000E+003	Estimated Z (ohms)
EOC	QUANT	0	Open Circuit (V)
SEQUENCER	TOGGLE	TRUE	Run as Sequence
PSTATMODEL	IQUANT	5	Pstat Model
PSTATSECTION	LABEL	REF3000-16137	Pstat Section
PSTATSERIALNO	LABEL	16137	Pstat Serial Number
CTRLMODE	IQUANT	1	Control Mode
IESTAB	IQUANT	0	I/E Stability
CASPEED	IQUANT	1	Control Amp Speed
CONVENTION	IQUANT	1	Current Convention
ICHRANGE	IQUANT	2	Ich Range
ICHRANGEMODE	TOGGLE	F	Ich Auto Range
ICHOFFSETENABLE	TOGGLE	T	Ich Offset Enable
ICHOFFSET	QUANT	0	Ich Offset (V)
ICHFILTER	IQUANT	3	Ich Filter
VCHRANGE	IQUANT	2	Vch Range
VCHRANGEMODE	TOGGLE	F	Vch Auto Range
VCHOFFSETENABLE	TOGGLE	T	Vch Offset Enable
VCHOFFSET	QUANT	0	Vch Offset (V)
VCHFILTER	IQUANT	3	Vch Filter
ACHRANGE	IQUANT	2	Ach Range
ACHOFFSETENABLE	TOGGLE	F	Ach Offset Enable
ACHOFFSET	QUANT	0	Ach Offset (V)
ACHFILTER	IQUANT	1	Ach Filter
IERANGELOWERLIMIT	IQUANT	2	I/E Range Lower Limit
IERANGEMODE	TOGGLE	F	I/E AutoRange
IERANGE	IQUANT	11	I/E Range
POSFEEDENABLE	TOGGLE	F	Positive Feedback IR Comp
POSFEEDRESISTANCE	QUANT	0	Positive Feedback Resistance (ohm)
ACHSELECT	IQUANT	0	Ach Select
CABLEID	IQUANT	13	Cable ID
DCCALDATE	LABEL	7/31/2020	DC Calibration Date
ACCALDATE	LABEL	7/31/2020	AC Calibration Date
THERMOSELECT	IQUANT	1	Thermo Select
FRAMEWORKVERSION	QUANT	6.33	Framework Version
INSTRUMENTVERSION	LABEL	3.50	Instrument Version
COMPLIANCEVOLTAGE	IQUANT	0	Compliance Voltage
ZCURVE	TABLE
	Pt	Time	Freq	Zreal	Zimag	Zsig	Zmod	Zphz	Idc	Vdc	IERange
	#	s	Hz	ohm	ohm	V	ohm	°	A	V	#
	0	9	300046.9	1.841551	1.233968	1	2.216752	33.82485	3.243166E-005	0.0010949	11
	1	13	238359.4	1.826566	0.975833	1	2.070892	28.11314	-0.0001018	-0.0004287	11
	2	16	189328.1	1.818697	0.7657858	1	1.973344	22.83415	-4.612616E-005	-0.0001091	11
	3	18	150421.9	1.809044	0.5871245	1	1.901935	17.98082	-0.0001593	-1.411861E-005	11
	4	21	119484.4	1.80962	0.4482053	1	1.8643	13.91102	-0.0001332	0.0003376	11
	5	23	94921.88	1.808671	0.3294941	1	1.838439	10.32462	-1.028155E-005	0.0004686	11
	6	26	75421.88	1.810665	0.2266975	1	1.824802	7.136368	1.427893E-005	0.0005412	11
	7	28	59859.37	1.814245	0.136036	1	1.819338	4.288136	-7.49667E-006	0.0005796	11
	8	31	47578.12	1.818968	0.0541194	1	1.819773	1.704208	-3.956021E-005	0.000621	11
	9	33	37828.12	1.825033	-0.0241145	1	1.825192	-0.7570166	-4.150173E-005	0.0006519	11
	10	36	30046.88	1.83195	-0.1029455	1	1.83484	-3.216325	-6.512864E-005	0.0006338	11
	11	38	23859.38	1.841461	-0.1857836	1	1.850809	-5.761034	-4.255627E-005	0.0006816	11
	12	41	18984.38	1.852194	-0.2762959	1	1.872688	-8.484377	-3.558824E-005	0.0006947	11
	13	43	15046.87	1.863848	-0.3813789	1	1.902467	-11.56418	-6.059366E-006	0.0006983	11
	14	45	11953.13	1.878274	-0.5027519	1	1.944395	-14.98491	-4.270488E-005	0.0006797	11
	15	48	9515.62	1.89522	-0.6458544	1	2.002246	-18.81812	-8.059568E-006	0.0007133	11
	16	50	7546.875	1.916599	-0.8223927	1	2.085589	-23.22366	-3.397156E-005	0.0007154	11
	17	52	5928.309	1.944463	-1.046834	1	2.208348	-28.29653	-1.694193E-005	0.0007123	11
	18	55	4733.456	1.981303	-1.304369	1	2.372117	-33.35847	-4.333825E-005	0.0006908	11
	19	57	3796.875	2.025548	-1.611996	1	2.588702	-38.51389	-1.863846E-005	0.0007149	11
	20	59	2987.132	2.085806	-2.024476	1	2.906731	-44.14515	-8.371377E-006	0.0007041	11
	21	62	2390.625	2.158089	-2.494316	1	3.298326	-49.13355	-2.265064E-005	0.0007029	11
	22	64	1884.191	2.250029	-3.113892	1	3.841738	-54.14896	-4.743067E-005	0.0006896	11
	23	66	1516.544	2.35808	-3.807044	1	4.478183	-58.22596	-1.016404E-005	0.0006682	10
	24	68	1193.986	2.501299	-4.738053	1	5.357765	-62.16966	6.204626E-006	0.0006675	10
	25	71	946.5144	2.675378	-5.859162	1	6.441073	-65.45788	-2.844154E-005	0.0006772	10
	26	73	751.7689	2.88612	-7.218	1	7.773623	-68.20598	-2.15241E-005	0.0007235	10
	27	76	597.4265	3.129026	-8.883998	1	9.418929	-70.59727	1.626719E-005	0.0006692	10
	28	78	477.4305	3.413316	-10.88355	1	11.40625	-72.58746	-1.60594E-006	0.0006847	10
	29	80	376.6741	3.758584	-13.49028	1	14.00409	-74.4314	-5.576977E-006	0.0007315	10
	30	83	298.2954	4.154929	-16.67748	1	17.18726	-76.01046	-1.50962E-006	0.0006874	10
	31	85	237.7717	4.615584	-20.52074	1	21.03341	-77.32382	-2.028235E-006	0.0006832	10
	32	87	189.0121	5.177322	-25.34562	1	25.869	-78.45508	-2.875147E-006	0.0006858	10
	33	90	150.2404	5.869425	-31.34636	1	31.89113	-79.3945	-1.316718E-006	0.0006826	10
	34	92	119.1737	6.745605	-38.8738	1	39.45473	-80.15573	-1.586918E-006	0.000684	10
	35	95	95.0169	7.829981	-47.94907	1	48.58418	-80.72558	1.67753E-006	8.07892E-005	9
	36	97	75.60484	9.251119	-59.34144	1	60.05822	-81.13911	1.63229E-006	7.877544E-005	9
	37	100	54.50582	12.08223	-80.5254	1	81.42677	-81.46686	1.5431E-006	7.032765E-005	9
	38	102	45.95588	14.07824	-94.39783	1	95.4419	-81.51758	1.869459E-006	8.504052E-005	9
	39	105	37.20238	17.21116	-114.8351	1	116.1177	-81.47612	1.346531E-006	0.0001271	9
	40	107	30.04808	21.33978	-139.9179	1	141.5359	-81.32828	1.667275E-006	8.267485E-005	9
	41	109	23.91582	27.31103	-172.9747	1	175.1175	-81.02762	1.488942E-006	8.132173E-005	9
	42	112	18.60119	36.05966	-217.3418	1	220.3129	-80.57974	1.601981E-006	8.662604E-005	9
	43	114	15.02404	46.25962	-263.916	1	267.9396	-80.0581	1.781523E-006	7.486859E-005	9
	44	116	12.01923	60.31064	-322.2669	1	327.8618	-79.39999	1.81528E-006	0.0001301	9
	45	119	9.450605	80.86956	-398.727	1	406.8453	-78.53483	1.756514E-006	8.432142E-005	9
	46	121	7.512019	106.1123	-484.7319	1	496.2105	-77.65221	5.057623E-007	0.0006763	8
	47	124	5.978954	139.4825	-588.8248	1	605.1199	-76.67326	5.279776E-007	0.000666	8
	48	127	4.734848	183.6139	-715.9208	1	739.0918	-75.61526	6.02359E-007	0.0006864	8
	49	130	3.75601	240.09	-866.2635	1	898.9191	-74.50897	4.225489E-007	0.0006429	8
	50	134	3.004808	309.3877	-1037.511	1	1082.659	-73.39532	4.968225E-007	0.0006624	8
	51	137	2.372217	405.6926	-1252.022	1	1316.11	-72.04613	4.704843E-007	0.0007129	8
	52	142	1.878005	527.7476	-1507.027	1	1596.762	-70.7002	3.798433E-007	0.0006494	8
	53	146	1.512097	672.0652	-1779.636	1	1902.308	-69.31136	4.438963E-007	0.0005859	8
	54	152	1.201923	878.6483	-2114.971	1	2290.224	-67.43993	4.033422E-007	0.0006482	8
	55	158	0.956633	1143.323	-2490.026	1	2739.966	-65.33726	3.62632E-007	1.833263E-005	8
