EXPLAIN
TAG	EISPOT
TITLE	LABEL	Potentiostatic EIS	Test Identifier
DATE	LABEL	8/5/2020	Date
TIME	LABEL	20:29:46	Time
NOTES	NOTES	1	Notes...
	
PSTAT	PSTAT	REF3000-16137	Potentiostat
VDC	POTEN	0.00000E+000	T	DC Voltage (V)
FREQINIT	QUANT	3.00000E+005	Initial Freq. (Hz)
FREQFINAL	QUANT	1.00000E+000	Final Freq. (Hz)
PTSPERDEC	QUANT	1.00000E+001	Points/decade
VAC	QUANT	5.00000E+001	AC Voltage (mV rms)
AREA	QUANT	1.00000E+000	Sample Area (cm^2)
SPEED	SELECTOR	2	Optimize for:
ZGUESS	QUANT	1.00000E+003	Estimated Z (ohms)
EOC	QUANT	0	Open Circuit (V)
SEQUENCER	TOGGLE	TRUE	Run as Sequence
PSTATMODEL	IQUANT	5	Pstat Model
PSTATSECTION	LABEL	REF3000-16137	Pstat Section
PSTATSERIALNO	LABEL	16137	Pstat Serial Number
CTRLMODE	IQUANT	1	Control Mode
IESTAB	IQUANT	0	I/E Stability
CASPEED	IQUANT	1	Control Amp Speed
CONVENTION	IQUANT	1	Current Convention
ICHRANGE	IQUANT	2	Ich Range
ICHRANGEMODE	TOGGLE	F	Ich Auto Range
ICHOFFSETENABLE	TOGGLE	T	Ich Offset Enable
ICHOFFSET	QUANT	0	Ich Offset (V)
ICHFILTER	IQUANT	3	Ich Filter
VCHRANGE	IQUANT	2	Vch Range
VCHRANGEMODE	TOGGLE	F	Vch Auto Range
VCHOFFSETENABLE	TOGGLE	T	Vch Offset Enable
VCHOFFSET	QUANT	0	Vch Offset (V)
VCHFILTER	IQUANT	3	Vch Filter
ACHRANGE	IQUANT	2	Ach Range
ACHOFFSETENABLE	TOGGLE	F	Ach Offset Enable
ACHOFFSET	QUANT	0	Ach Offset (V)
ACHFILTER	IQUANT	3	Ach Filter
IERANGELOWERLIMIT	IQUANT	2	I/E Range Lower Limit
IERANGEMODE	TOGGLE	F	I/E AutoRange
IERANGE	IQUANT	11	I/E Range
POSFEEDENABLE	TOGGLE	F	Positive Feedback IR Comp
POSFEEDRESISTANCE	QUANT	0	Positive Feedback Resistance (ohm)
ACHSELECT	IQUANT	0	Ach Select
CABLEID	IQUANT	13	Cable ID
DCCALDATE	LABEL	7/31/2020	DC Calibration Date
ACCALDATE	LABEL	7/31/2020	AC Calibration Date
THERMOSELECT	IQUANT	1	Thermo Select
FRAMEWORKVERSION	QUANT	6.33	Framework Version
INSTRUMENTVERSION	LABEL	3.50	Instrument Version
COMPLIANCEVOLTAGE	IQUANT	0	Compliance Voltage
ZCURVE	TABLE
	Pt	Time	Freq	Zreal	Zimag	Zsig	Zmod	Zphz	Idc	Vdc	IERange
	#	s	Hz	ohm	ohm	V	ohm	°	A	V	#
	0	9	300046.9	1.9913	1.227382	1	2.339176	31.64852	-8.560264E-005	0.0010228	11
	1	13	238359.4	1.969749	0.966736	1	2.194195	26.14142	8.102658E-005	-0.0003401	11
	2	16	189328.1	1.957445	0.7562698	1	2.09846	21.12432	1.79353E-005	1.198445E-005	11
	3	18	150421.9	1.952917	0.5882075	1	2.039576	16.762	-8.050674E-005	0.0002451	11
	4	21	119484.4	1.945184	0.4424978	1	1.99488	12.81576	-0.0001154	0.0002486	11
	5	23	94921.88	1.942519	0.3230015	1	1.96919	9.440751	2.30283E-005	0.0004971	11
	6	26	75421.88	1.943369	0.22018	1	1.955803	6.463937	2.771554E-005	0.0005505	11
	7	28	59859.37	1.945734	0.1288346	1	1.949995	3.788247	1.653672E-005	0.0006054	11
	8	31	47578.12	1.949085	0.0459158	1	1.949625	1.349504	-4.914185E-005	0.0006013	11
	9	33	37828.12	1.953835	-0.0335533	1	1.954123	-0.983847	1.745048E-005	0.0006574	11
	10	36	30046.88	1.959532	-0.113819	1	1.962834	-3.32428	2.692623E-005	0.0006925	11
	11	39	23859.38	1.966278	-0.1984069	1	1.976263	-5.761916	-8.863862E-005	0.0006948	11
	12	41	18984.38	1.974783	-0.2909124	1	1.996096	-8.380173	-4.900141E-005	0.000657	11
	13	43	15046.87	1.985864	-0.397819	1	2.025319	-11.32786	-2.897968E-005	0.0006953	11
	14	46	11953.13	1.998893	-0.5220029	1	2.065929	-14.6357	1.613398E-005	0.0007103	11
	15	48	9515.62	2.014951	-0.6684189	1	2.122926	-18.35221	-3.414349E-005	0.0006785	11
	16	50	7546.875	2.035478	-0.8478974	1	2.205018	-22.61462	-5.121266E-005	0.0006706	11
	17	52	5928.309	2.06258	-1.076836	1	2.32676	-27.56825	2.482807E-005	0.0007219	11
	18	55	4733.456	2.094482	-1.338974	1	2.485902	-32.59024	2.54218E-005	0.0007248	11
	19	57	3796.875	2.135527	-1.6524	1	2.700166	-37.73151	-1.556764E-005	0.0007045	11
	20	59	2987.132	2.190375	-2.073042	1	3.015832	-43.42356	-2.675578E-005	0.0006843	11
	21	62	2390.625	2.256801	-2.554121	1	3.408326	-48.53643	1.270507E-005	0.0007095	11
	22	64	1884.191	2.350069	-3.184186	1	3.957508	-53.57104	-3.477076E-005	0.0006764	11
	23	66	1516.544	2.460444	-3.890052	1	4.602857	-57.68679	8.421128E-006	0.0006615	10
	24	69	1193.986	2.609452	-4.838214	1	5.49705	-61.66015	8.333818E-006	0.0006653	10
	25	71	946.5144	2.788208	-5.970292	1	6.589271	-64.96678	-2.551288E-005	0.0006717	10
	26	74	751.7689	3.004149	-7.347174	1	7.937624	-67.76109	-2.274015E-005	0.0006843	10
	27	76	597.4265	3.263063	-9.026986	1	9.59865	-70.12616	2.383144E-005	0.0006653	10
	28	78	477.4305	3.556567	-11.0429	1	11.6015	-72.1479	-1.226611E-006	0.0006791	10
	29	80	376.6741	3.920262	-13.67259	1	14.2235	-74.00112	-8.941747E-007	0.0006798	10
	30	83	298.2954	4.340763	-16.89121	1	17.44004	-75.58779	-1.221448E-006	0.0006804	10
	31	85	237.7717	4.825144	-20.76761	1	21.32078	-76.91997	-1.778253E-006	0.0006694	10
	32	88	189.0121	5.414514	-25.63466	1	26.20024	-78.07337	-1.425069E-006	0.0006741	10
	33	90	150.2404	6.138702	-31.6809	1	32.27016	-79.03388	-1.501276E-006	0.0006796	10
	34	92	119.1737	7.049	-39.26813	1	39.8958	-79.82326	-1.263899E-006	0.0006765	10
	35	95	95.0169	8.174631	-48.41353	1	49.09882	-80.416	1.722173E-006	7.360208E-005	9
	36	97	75.60484	9.64736	-59.89809	1	60.67004	-80.85035	1.616743E-006	8.11966E-005	9
	37	100	54.50582	12.58445	-81.23718	1	82.20613	-81.19431	1.512046E-006	7.782746E-005	9
	38	102	45.95588	14.64074	-95.2343	1	96.3531	-81.26012	2.002025E-006	7.672815E-005	9
	39	105	37.20238	17.90469	-115.8515	1	117.2269	-81.21452	1.678245E-006	8.712421E-005	9
	40	107	30.04808	22.20763	-141.2135	1	142.9491	-81.06271	1.678275E-006	7.242078E-005	9
	41	109	23.91582	28.29169	-173.9794	1	176.2648	-80.76369	1.684706E-006	7.950929E-005	9
	42	112	18.60119	37.48162	-218.946	1	222.1311	-80.28564	1.877348E-006	8.268125E-005	9
	43	114	15.02404	47.83393	-265.4272	1	269.703	-79.7841	1.997E-006	8.035036E-005	9
	44	116	12.01923	62.35908	-324.0342	1	329.98	-79.10683	1.90513E-006	7.624893E-005	9
	45	119	9.450605	82.85839	-400.3001	1	408.7856	-78.30546	1.965091E-006	8.504449E-005	9
	46	121	7.512019	108.1535	-486.1782	1	498.0627	-77.4584	5.644816E-007	0.0006751	8
	47	124	5.978954	141.117	-590.4806	1	607.109	-76.55918	5.145216E-007	0.0006553	8
	48	127	4.734848	183.9701	-718.0579	1	741.2504	-75.62964	5.864658E-007	0.0006926	8
	49	130	3.75601	238.385	-869.8995	1	901.9714	-74.67503	4.301038E-007	0.000638	8
	50	134	3.004808	304.9715	-1043.855	1	1087.493	-73.71381	4.767147E-007	0.0006718	8
	51	137	2.372217	397.4128	-1264.355	1	1325.341	-72.55099	4.678971E-007	0.0007293	8
	52	142	1.878005	512.7138	-1525.851	1	1609.689	-71.42671	3.532765E-007	0.000686	8
	53	146	1.512097	652.6656	-1806.813	1	1921.08	-70.13903	4.507618E-007	0.0006991	8
	54	152	1.201923	847.1207	-2165.077	1	2324.903	-68.63129	4.29281E-007	0.0006253	8
	55	158	0.956633	1102.226	-2571.913	1	2798.149	-66.80182	3.596891E-007	1.582235E-005	8
