EXPLAIN
TAG	EISPOT
TITLE	LABEL	Potentiostatic EIS	Test Identifier
DATE	LABEL	8/5/2020	Date
TIME	LABEL	20:52:18	Time
NOTES	NOTES	1	Notes...
	
PSTAT	PSTAT	REF3000-16137	Potentiostat
VDC	POTEN	0.00000E+000	T	DC Voltage (V)
FREQINIT	QUANT	3.00000E+005	Initial Freq. (Hz)
FREQFINAL	QUANT	1.00000E+000	Final Freq. (Hz)
PTSPERDEC	QUANT	1.00000E+001	Points/decade
VAC	QUANT	5.00000E+001	AC Voltage (mV rms)
AREA	QUANT	1.00000E+000	Sample Area (cm^2)
SPEED	SELECTOR	2	Optimize for:
ZGUESS	QUANT	1.00000E+003	Estimated Z (ohms)
EOC	QUANT	0	Open Circuit (V)
SEQUENCER	TOGGLE	TRUE	Run as Sequence
PSTATMODEL	IQUANT	5	Pstat Model
PSTATSECTION	LABEL	REF3000-16137	Pstat Section
PSTATSERIALNO	LABEL	16137	Pstat Serial Number
CTRLMODE	IQUANT	1	Control Mode
IESTAB	IQUANT	0	I/E Stability
CASPEED	IQUANT	1	Control Amp Speed
CONVENTION	IQUANT	1	Current Convention
ICHRANGE	IQUANT	2	Ich Range
ICHRANGEMODE	TOGGLE	F	Ich Auto Range
ICHOFFSETENABLE	TOGGLE	T	Ich Offset Enable
ICHOFFSET	QUANT	0	Ich Offset (V)
ICHFILTER	IQUANT	3	Ich Filter
VCHRANGE	IQUANT	2	Vch Range
VCHRANGEMODE	TOGGLE	F	Vch Auto Range
VCHOFFSETENABLE	TOGGLE	T	Vch Offset Enable
VCHOFFSET	QUANT	0	Vch Offset (V)
VCHFILTER	IQUANT	3	Vch Filter
ACHRANGE	IQUANT	2	Ach Range
ACHOFFSETENABLE	TOGGLE	F	Ach Offset Enable
ACHOFFSET	QUANT	0	Ach Offset (V)
ACHFILTER	IQUANT	3	Ach Filter
IERANGELOWERLIMIT	IQUANT	2	I/E Range Lower Limit
IERANGEMODE	TOGGLE	F	I/E AutoRange
IERANGE	IQUANT	11	I/E Range
POSFEEDENABLE	TOGGLE	F	Positive Feedback IR Comp
POSFEEDRESISTANCE	QUANT	0	Positive Feedback Resistance (ohm)
ACHSELECT	IQUANT	0	Ach Select
CABLEID	IQUANT	13	Cable ID
DCCALDATE	LABEL	7/31/2020	DC Calibration Date
ACCALDATE	LABEL	7/31/2020	AC Calibration Date
THERMOSELECT	IQUANT	1	Thermo Select
FRAMEWORKVERSION	QUANT	6.33	Framework Version
INSTRUMENTVERSION	LABEL	3.50	Instrument Version
COMPLIANCEVOLTAGE	IQUANT	0	Compliance Voltage
ZCURVE	TABLE
	Pt	Time	Freq	Zreal	Zimag	Zsig	Zmod	Zphz	Idc	Vdc	IERange
	#	s	Hz	ohm	ohm	V	ohm	°	A	V	#
	0	7	300046.9	29.06329	0.2946769	1	29.06479	0.5809103	-4.002111E-005	-0.000299	11
	1	11	238359.4	29.68286	0.4768751	1	29.68669	0.9204162	2.480411E-005	0.0004747	10
	2	14	189328.1	30.20325	0.3153999	1	30.2049	0.598294	4.964264E-006	0.00069	10
	3	17	150421.9	30.65274	0.1746313	1	30.65323	0.3264155	2.67881E-006	0.000682	10
	4	19	119484.4	31.14816	0.0421691	1	31.14819	0.0775683	-2.573881E-005	0.0005806	10
	5	22	94921.88	31.6307	-0.0700025	1	31.63078	-0.1268021	2.752619E-005	0.0006681	10
	6	24	75421.88	32.13465	-0.1899135	1	32.13522	-0.33861	-2.663884E-005	0.0007094	10
	7	27	59859.37	32.64686	-0.3115323	1	32.64835	-0.5467278	2.435011E-005	0.0006923	10
	8	29	47578.12	33.17423	-0.4319922	1	33.17704	-0.7460588	-2.258713E-005	0.0006738	10
	9	32	37828.12	33.70605	-0.561063	1	33.71072	-0.953644	-2.616501E-005	0.0007084	10
	10	34	30046.88	34.26101	-0.7064809	1	34.26829	-1.181303	2.457602E-005	0.0007021	10
	11	37	23859.38	34.80907	-0.8668905	1	34.81986	-1.426608	2.766023E-005	0.0006297	10
	12	39	18984.38	35.34509	-1.063834	1	35.36109	-1.723996	7.76614E-006	0.0007159	10
	13	41	15046.87	35.85986	-1.2547	1	35.8818	-2.003904	3.758789E-006	0.0003177	9
	14	44	11953.13	36.44085	-1.532061	1	36.47305	-2.407435	-6.799569E-006	0.0005593	9
	15	46	9515.62	37.04881	-1.850949	1	37.09502	-2.860104	-7.054002E-006	0.0005018	9
	16	48	7546.875	37.6831	-2.235351	1	37.74934	-3.394792	1.171299E-005	-0.0004492	9
	17	51	5928.309	38.35005	-2.745355	1	38.44819	-4.094633	1.916317E-005	-0.0004088	9
	18	53	4733.456	39.05153	-3.318067	1	39.19224	-4.856551	9.639101E-006	-0.0003768	9
	19	55	3796.875	39.76642	-3.995857	1	39.96667	-5.738002	5.03729E-006	0.0002969	9
	20	58	2987.132	40.58333	-4.861709	1	40.8735	-6.831234	1.934753E-005	-0.0003269	9
	21	60	2390.625	41.44258	-5.838716	1	41.85186	-8.019442	4.075105E-006	0.00024	9
	22	62	1884.191	42.37522	-7.1065	1	42.96698	-9.52015	2.018949E-005	-0.000437	9
	23	65	1516.544	43.65966	-8.544612	1	44.48794	-11.07337	2.024184E-005	-0.0004432	9
	24	68	1193.986	44.86385	-10.39124	1	46.05152	-13.04074	-1.444171E-005	0.000601	9
	25	70	946.5144	46.21387	-12.57195	1	47.89338	-15.21837	1.82963E-005	-0.0004624	9
	26	73	751.7689	47.67132	-15.15569	1	50.0225	-17.63653	-1.50854E-005	0.0006251	9
	27	75	597.4265	49.31368	-18.24512	1	52.58064	-20.30351	1.056389E-005	-0.0004126	9
	28	77	477.4305	51.13183	-21.85155	1	55.60534	-23.13979	1.982374E-006	8.453871E-005	9
	29	80	376.6741	53.25494	-26.4032	1	59.44088	-26.3717	1.952948E-006	7.693464E-005	9
	30	82	298.2954	55.59388	-31.80499	1	64.04871	-29.77366	1.935325E-006	8.229925E-005	9
	31	84	237.7717	58.16393	-38.14214	1	69.55476	-33.25564	1.99698E-006	8.211751E-005	9
	32	87	189.0121	61.02065	-45.90588	1	76.36013	-36.95417	2.067763E-006	8.139214E-005	9
	33	89	150.2404	64.56461	-55.35931	1	85.04847	-40.61061	1.975518E-006	8.516785E-005	9
	34	91	119.1737	68.10352	-67.04745	1	95.5691	-44.5523	2.021574E-006	7.599153E-005	9
	35	94	95.0169	71.92722	-81.0909	1	108.394	-48.42714	1.942967E-006	7.749654E-005	9
	36	96	75.60484	76.27133	-98.527	1	124.5989	-52.25596	1.973357E-006	7.311084E-005	9
	37	99	54.50582	83.07819	-130.6677	1	154.842	-57.55191	1.966306E-006	7.243708E-005	9
	38	101	45.95588	87.66041	-151.8027	1	175.2952	-59.99517	1.95867E-006	8.078284E-005	9
	39	104	37.20238	93.78384	-182.8959	1	205.5391	-62.85254	1.913575E-006	8.480996E-005	9
	40	106	30.04808	100.9611	-221.1207	1	243.0792	-65.45912	1.92832E-006	8.404194E-005	9
	41	108	23.91582	109.8534	-271.1462	1	292.5544	-67.94495	1.878369E-006	7.444667E-005	9
	42	111	18.60119	121.3186	-339.7198	1	360.7323	-70.34765	1.901992E-006	7.9009E-005	9
	43	113	15.02404	132.5041	-410.0134	1	430.8925	-72.09071	3.095407E-007	0.0006697	8
	44	115	12.01923	146.9593	-501.8151	1	522.8914	-73.67704	3.813061E-007	0.0006633	8
	45	118	9.450605	165.3272	-624.1724	1	645.6967	-75.16451	3.481551E-007	0.0006514	8
	46	120	7.512019	186.9195	-769.1689	1	791.5553	-76.34105	3.529954E-007	0.0006654	8
	47	123	5.978954	212.2772	-947.423	1	970.913	-77.37103	3.285359E-007	0.0006544	8
	48	126	4.734848	243.258	-1173.583	1	1198.529	-78.28967	3.628249E-007	0.000689	8
	49	129	3.75601	281.2221	-1451.763	1	1478.75	-79.03696	3.033055E-007	0.0006478	8
	50	133	3.004808	324.6407	-1782.024	1	1811.353	-79.67535	3.579416E-007	0.0006334	8
	51	136	2.372217	380.0476	-2214.646	1	2247.018	-80.26252	3.468153E-007	0.000626	8
	52	141	1.878005	450.7717	-2753.257	1	2789.914	-80.70185	3.171752E-007	0.0006581	8
	53	145	1.512097	530.0108	-3367.582	1	3409.035	-81.0558	3.145627E-007	0.000552	8
	54	151	1.201923	625.9321	-4176.436	1	4223.081	-81.47639	3.182562E-007	0.0006785	8
	55	157	0.956633	744.7134	-5182.728	1	5235.958	-81.82306	2.505255E-008	-5.994914E-006	7
