EXPLAIN
TAG	EISPOT
TITLE	LABEL	Potentiostatic EIS	Test Identifier
DATE	LABEL	8/5/2020	Date
TIME	LABEL	20:49:32	Time
NOTES	NOTES	1	Notes...
	
PSTAT	PSTAT	REF3000-16137	Potentiostat
VDC	POTEN	0.00000E+000	T	DC Voltage (V)
FREQINIT	QUANT	3.00000E+005	Initial Freq. (Hz)
FREQFINAL	QUANT	1.00000E+000	Final Freq. (Hz)
PTSPERDEC	QUANT	1.00000E+001	Points/decade
VAC	QUANT	5.00000E+001	AC Voltage (mV rms)
AREA	QUANT	1.00000E+000	Sample Area (cm^2)
SPEED	SELECTOR	2	Optimize for:
ZGUESS	QUANT	1.00000E+003	Estimated Z (ohms)
EOC	QUANT	0	Open Circuit (V)
SEQUENCER	TOGGLE	TRUE	Run as Sequence
PSTATMODEL	IQUANT	5	Pstat Model
PSTATSECTION	LABEL	REF3000-16137	Pstat Section
PSTATSERIALNO	LABEL	16137	Pstat Serial Number
CTRLMODE	IQUANT	1	Control Mode
IESTAB	IQUANT	0	I/E Stability
CASPEED	IQUANT	1	Control Amp Speed
CONVENTION	IQUANT	1	Current Convention
ICHRANGE	IQUANT	2	Ich Range
ICHRANGEMODE	TOGGLE	F	Ich Auto Range
ICHOFFSETENABLE	TOGGLE	T	Ich Offset Enable
ICHOFFSET	QUANT	0	Ich Offset (V)
ICHFILTER	IQUANT	3	Ich Filter
VCHRANGE	IQUANT	2	Vch Range
VCHRANGEMODE	TOGGLE	F	Vch Auto Range
VCHOFFSETENABLE	TOGGLE	T	Vch Offset Enable
VCHOFFSET	QUANT	0	Vch Offset (V)
VCHFILTER	IQUANT	3	Vch Filter
ACHRANGE	IQUANT	2	Ach Range
ACHOFFSETENABLE	TOGGLE	F	Ach Offset Enable
ACHOFFSET	QUANT	0	Ach Offset (V)
ACHFILTER	IQUANT	3	Ach Filter
IERANGELOWERLIMIT	IQUANT	2	I/E Range Lower Limit
IERANGEMODE	TOGGLE	F	I/E AutoRange
IERANGE	IQUANT	11	I/E Range
POSFEEDENABLE	TOGGLE	F	Positive Feedback IR Comp
POSFEEDRESISTANCE	QUANT	0	Positive Feedback Resistance (ohm)
ACHSELECT	IQUANT	0	Ach Select
CABLEID	IQUANT	13	Cable ID
DCCALDATE	LABEL	7/31/2020	DC Calibration Date
ACCALDATE	LABEL	7/31/2020	AC Calibration Date
THERMOSELECT	IQUANT	1	Thermo Select
FRAMEWORKVERSION	QUANT	6.33	Framework Version
INSTRUMENTVERSION	LABEL	3.50	Instrument Version
COMPLIANCEVOLTAGE	IQUANT	0	Compliance Voltage
ZCURVE	TABLE
	Pt	Time	Freq	Zreal	Zimag	Zsig	Zmod	Zphz	Idc	Vdc	IERange
	#	s	Hz	ohm	ohm	V	ohm	°	A	V	#
	0	7	300046.9	12.15859	1.072064	1	12.20577	5.038929	7.149998E-005	-4.249953E-005	10
	1	11	238359.4	12.34911	0.8414434	1	12.37774	3.897994	-9.343908E-006	0.000127	10
	2	14	189328.1	12.50739	0.6316381	1	12.52333	2.891049	6.610646E-006	0.0004186	10
	3	16	150421.9	12.67327	0.4556248	1	12.68146	2.05899	-2.971407E-005	0.0005049	10
	4	19	119484.4	12.82365	0.3128474	1	12.82747	1.397518	-5.577152E-005	0.0006961	10
	5	21	94921.88	12.98307	0.2024812	1	12.98465	0.8935003	7.004585E-006	0.0005824	10
	6	24	75421.88	13.1536	0.0725715	1	13.1538	0.3161111	8.35096E-006	0.0005837	10
	7	26	59859.37	13.33102	-0.0471838	1	13.33111	-0.2027919	-2.343083E-005	0.0007085	10
	8	29	47578.12	13.51472	-0.1587197	1	13.51565	-0.6728628	-1.636145E-005	0.0007204	10
	9	31	37828.12	13.70121	-0.2744086	1	13.70396	-1.14737	-2.780743E-005	0.0006593	10
	10	34	30046.88	13.89522	-0.3967879	1	13.90088	-1.635678	2.581595E-005	0.000628	10
	11	36	23859.38	14.08906	-0.5338387	1	14.09917	-2.169917	2.601007E-005	0.0006621	10
	12	39	18984.38	14.2857	-0.6877375	1	14.30225	-2.756186	-2.108297E-005	0.0007343	10
	13	41	15046.87	14.49054	-0.8721902	1	14.51677	-3.444495	2.702172E-005	0.0006385	10
	14	43	11953.13	14.70627	-1.088423	1	14.74649	-4.232791	4.175923E-006	0.0006347	10
	15	46	9515.62	14.93736	-1.34426	1	14.99772	-5.142374	-1.938231E-005	0.0007421	10
	16	48	7546.875	15.18376	-1.65857	1	15.27408	-6.233883	1.831775E-005	0.0007031	10
	17	50	5928.309	15.45707	-2.055648	1	15.59316	-7.57536	2.387902E-005	0.0006634	10
	18	53	4733.456	15.75117	-2.504298	1	15.94901	-9.033916	-2.73504E-005	0.0006993	10
	19	55	3796.875	16.07056	-3.040402	1	16.35564	-10.71321	-2.967836E-005	0.0006718	10
	20	57	2987.132	16.43312	-3.734319	1	16.85208	-12.80267	1.304398E-005	0.0006291	10
	21	61	2390.625	16.91932	-4.527049	1	17.51449	-14.97956	1.530082E-005	0.0006508	10
	22	63	1884.191	17.38626	-5.541379	1	18.24798	-17.67821	-2.108918E-005	0.0007123	10
	23	65	1516.544	17.89318	-6.64939	1	19.08875	-20.38587	-2.207738E-005	0.0007127	10
	24	67	1193.986	18.50447	-8.120216	1	20.20775	-23.69305	-2.784226E-005	0.0006988	10
	25	70	946.5144	19.17176	-9.85997	1	21.55865	-27.2166	-3.078912E-005	0.000684	10
	26	72	751.7689	19.91957	-11.92794	1	23.21777	-30.91339	-2.55273E-005	0.0007296	10
	27	75	597.4265	20.74578	-14.45261	1	25.2837	-34.86312	-2.788387E-005	0.0006945	10
	28	77	477.4305	21.64727	-17.45579	1	27.80843	-38.88178	-1.773284E-006	0.0006813	10
	29	79	376.6741	22.69758	-21.33934	1	31.15361	-43.23337	-1.923195E-006	0.0006788	10
	30	81	298.2954	23.86523	-26.06173	1	35.33784	-47.51907	-1.613851E-006	0.0006862	10
	31	84	237.7717	25.14559	-31.68468	1	40.45021	-51.56379	2.016341E-006	8.12693E-005	9
	32	86	189.0121	26.66248	-38.73154	1	47.02148	-55.4568	1.968939E-006	7.944875E-005	9
	33	89	150.2404	28.4279	-47.42178	1	55.28988	-59.05861	1.987036E-006	7.839074E-005	9
	34	91	119.1737	30.51881	-58.24321	1	65.75461	-62.34595	2.011614E-006	7.928251E-005	9
	35	93	95.0169	32.95306	-71.27389	1	78.52306	-65.18681	1.977508E-006	7.45954E-005	9
	36	96	75.60484	35.87284	-87.44194	1	94.51431	-67.69423	2.023976E-006	7.557964E-005	9
	37	98	54.50582	40.88407	-117.2021	1	124.1283	-70.76949	1.932715E-006	7.728063E-005	9
	38	101	45.95588	44.19646	-136.6857	1	143.6534	-72.08172	1.889612E-006	7.365758E-005	9
	39	103	37.20238	48.82626	-165.3253	1	172.3846	-73.54632	1.9209E-006	8.226125E-005	9
	40	106	30.04808	54.32009	-200.5489	1	207.7752	-74.84467	1.885486E-006	7.722507E-005	9
	41	108	23.91582	61.22799	-246.5158	1	254.0057	-76.0515	1.940156E-006	7.058769E-005	9
	42	110	18.60119	70.34193	-309.7245	1	317.6118	-77.20453	2.026395E-006	7.084523E-005	9
	43	113	15.02404	79.73466	-376.2759	1	384.6313	-78.03574	1.9692E-006	6.633993E-005	9
	44	115	12.01923	90.87304	-459.4753	1	468.3753	-78.81266	4.562221E-007	0.0006575	8
	45	117	9.450605	105.7095	-572.5957	1	582.2717	-79.54013	4.419562E-007	0.0006518	8
	46	120	7.512019	122.8192	-707.2088	1	717.7944	-80.14785	4.323251E-007	0.0006478	8
	47	123	5.978954	143.7928	-872.4628	1	884.2328	-80.64107	4.55233E-007	0.0006596	8
	48	126	4.734848	169.9187	-1083.181	1	1096.428	-81.08466	4.228114E-007	0.000669	8
	49	129	3.75601	201.1542	-1342.29	1	1357.279	-81.47713	4.363969E-007	0.0006585	8
	50	132	3.004808	238.4599	-1650.142	1	1667.282	-81.77718	4.366086E-007	0.0006837	8
	51	136	2.372217	287.4237	-2057.697	1	2077.674	-82.04825	4.400612E-007	0.0007306	8
	52	140	1.878005	345.8106	-2558.909	1	2582.169	-82.30368	4.218649E-007	0.0006356	8
	53	145	1.512097	416.8133	-3126.893	1	3154.551	-82.40726	4.680072E-007	0.0007	8
	54	150	1.201923	503.8727	-3888.976	1	3921.482	-82.61764	4.416779E-007	0.000627	8
	55	157	0.956633	617.7516	-4828.399	1	4867.757	-82.70911	3.662473E-008	-2.340457E-006	7
