EXPLAIN
TAG	EISPOT
TITLE	LABEL	Potentiostatic EIS	Test Identifier
DATE	LABEL	8/5/2020	Date
TIME	LABEL	20:55:04	Time
NOTES	NOTES	1	Notes...
	
PSTAT	PSTAT	REF3000-16137	Potentiostat
VDC	POTEN	0.00000E+000	T	DC Voltage (V)
FREQINIT	QUANT	3.00000E+005	Initial Freq. (Hz)
FREQFINAL	QUANT	1.00000E+000	Final Freq. (Hz)
PTSPERDEC	QUANT	1.00000E+001	Points/decade
VAC	QUANT	5.00000E+001	AC Voltage (mV rms)
AREA	QUANT	1.00000E+000	Sample Area (cm^2)
SPEED	SELECTOR	2	Optimize for:
ZGUESS	QUANT	1.00000E+003	Estimated Z (ohms)
EOC	QUANT	0	Open Circuit (V)
SEQUENCER	TOGGLE	TRUE	Run as Sequence
PSTATMODEL	IQUANT	5	Pstat Model
PSTATSECTION	LABEL	REF3000-16137	Pstat Section
PSTATSERIALNO	LABEL	16137	Pstat Serial Number
CTRLMODE	IQUANT	1	Control Mode
IESTAB	IQUANT	0	I/E Stability
CASPEED	IQUANT	1	Control Amp Speed
CONVENTION	IQUANT	1	Current Convention
ICHRANGE	IQUANT	2	Ich Range
ICHRANGEMODE	TOGGLE	F	Ich Auto Range
ICHOFFSETENABLE	TOGGLE	T	Ich Offset Enable
ICHOFFSET	QUANT	0	Ich Offset (V)
ICHFILTER	IQUANT	3	Ich Filter
VCHRANGE	IQUANT	2	Vch Range
VCHRANGEMODE	TOGGLE	F	Vch Auto Range
VCHOFFSETENABLE	TOGGLE	T	Vch Offset Enable
VCHOFFSET	QUANT	0	Vch Offset (V)
VCHFILTER	IQUANT	3	Vch Filter
ACHRANGE	IQUANT	2	Ach Range
ACHOFFSETENABLE	TOGGLE	F	Ach Offset Enable
ACHOFFSET	QUANT	0	Ach Offset (V)
ACHFILTER	IQUANT	3	Ach Filter
IERANGELOWERLIMIT	IQUANT	2	I/E Range Lower Limit
IERANGEMODE	TOGGLE	F	I/E AutoRange
IERANGE	IQUANT	11	I/E Range
POSFEEDENABLE	TOGGLE	F	Positive Feedback IR Comp
POSFEEDRESISTANCE	QUANT	0	Positive Feedback Resistance (ohm)
ACHSELECT	IQUANT	0	Ach Select
CABLEID	IQUANT	13	Cable ID
DCCALDATE	LABEL	7/31/2020	DC Calibration Date
ACCALDATE	LABEL	7/31/2020	AC Calibration Date
THERMOSELECT	IQUANT	1	Thermo Select
FRAMEWORKVERSION	QUANT	6.33	Framework Version
INSTRUMENTVERSION	LABEL	3.50	Instrument Version
COMPLIANCEVOLTAGE	IQUANT	0	Compliance Voltage
ZCURVE	TABLE
	Pt	Time	Freq	Zreal	Zimag	Zsig	Zmod	Zphz	Idc	Vdc	IERange
	#	s	Hz	ohm	ohm	V	ohm	°	A	V	#
	0	7	300046.9	81.80254	0.4129561	1	81.80359	0.2892385	-8.036529E-005	0.0024557	9
	1	10	238359.4	83.56418	-0.0193294	1	83.56418	-0.0132532	8.114841E-006	-0.0015779	9
	2	13	189328.1	85.33652	-0.1477232	1	85.33665	-0.0991827	-7.233053E-005	0.001929	9
	3	16	150421.9	86.69589	-0.3228092	1	86.6965	-0.2133379	-9.790744E-006	0.0009736	9
	4	18	119484.4	88.35635	-0.3874513	1	88.3572	-0.251246	6.409732E-005	-0.0015339	9
	5	21	94921.88	89.91917	-0.2717358	1	89.91958	-0.1731473	7.70131E-007	-0.0003995	9
	6	25	75421.88	92.76196	-0.5222338	1	92.76343	-0.322562	-4.886479E-006	0.0006965	9
	7	28	59859.37	94.44659	-0.7525044	1	94.44959	-0.4564952	6.520561E-006	-0.0004769	9
	8	31	47578.12	96.1648	-0.9289806	1	96.1693	-0.5534771	-1.71001E-005	0.0008064	9
	9	33	37828.12	97.923	-1.085313	1	97.929	-0.6350021	2.029452E-005	-0.000695	9
	10	36	30046.88	99.7019	-1.259293	1	99.7099	-0.7236406	-1.92207E-006	-0.0002498	9
	11	38	23859.38	101.4938	-1.43139	1	101.5039	-0.8080021	1.986581E-005	-9.314118E-005	9
	12	40	18984.38	103.2612	-1.66904	1	103.2747	-0.9260073	6.25879E-006	-0.0004793	9
	13	43	15046.87	105.1054	-1.977729	1	105.124	-1.077986	1.331423E-005	0.0002084	9
	14	45	11953.13	106.902	-2.188137	1	106.9244	-1.172602	-2.112883E-005	0.0006411	9
	15	47	9515.62	108.7349	-2.719729	1	108.7689	-1.43281	-9.764441E-006	-2.103445E-006	9
	16	50	7546.875	110.664	-3.181944	1	110.7097	-1.646983	2.562807E-005	-0.0004885	9
	17	52	5928.309	112.7723	-3.838572	1	112.8377	-1.949495	-1.331946E-005	0.0008704	9
	18	54	4733.456	114.8048	-4.500921	1	114.893	-2.24513	2.048466E-005	-0.0007184	9
	19	57	3796.875	116.8985	-5.293335	1	117.0182	-2.592666	-1.534327E-006	-0.0002734	9
	20	59	2987.132	119.2155	-6.468961	1	119.3908	-3.105982	-1.545498E-006	-0.0002792	9
	21	61	2390.625	121.5378	-7.650638	1	121.7784	-3.601937	2.66858E-005	-0.0006377	9
	22	63	1884.191	124.0144	-8.938239	1	124.3361	-4.12242	-1.768138E-005	0.0003796	9
	23	66	1516.544	126.5007	-11.06383	1	126.9836	-4.998406	-1.758748E-005	0.0003782	9
	24	68	1193.986	129.3913	-13.38747	1	130.082	-5.907089	-9.515911E-006	-1.269916E-005	9
	25	71	946.5144	132.4887	-16.13294	1	133.4673	-6.942636	7.253864E-006	-0.000525	9
	26	73	751.7689	135.743	-19.38597	1	137.1203	-8.12767	2.040496E-005	-0.0000975	9
	27	75	597.4265	139.1104	-23.45088	1	141.0732	-9.56881	2.663174E-005	-0.0006133	9
	28	77	477.4305	142.969	-28.2256	1	145.7285	-11.16798	1.79324E-006	7.93651E-005	9
	29	80	376.6741	147.2816	-34.17914	1	151.1955	-13.06517	1.798361E-006	8.299343E-005	9
	30	82	298.2954	152.0511	-41.21861	1	157.5389	-15.16744	1.846709E-006	7.934777E-005	9
	31	84	237.7717	157.3854	-49.39525	1	164.9547	-17.42441	1.717037E-006	7.653729E-005	9
	32	87	189.0121	163.3916	-59.25662	1	173.805	-19.934	1.784386E-006	8.231014E-005	9
	33	89	150.2404	170.0778	-71.01473	1	184.3083	-22.66262	1.773647E-006	7.753169E-005	9
	34	92	119.1737	177.5349	-85.19986	1	196.9205	-25.63657	1.768762E-006	7.141208E-005	9
	35	94	95.0169	185.6929	-101.8063	1	211.7697	-28.73379	1.715531E-006	7.796557E-005	9
	36	97	75.60484	194.8697	-121.9714	1	229.8939	-32.04298	1.813603E-006	7.139231E-005	9
	37	99	54.50582	208.1219	-158.1882	1	261.4159	-37.23755	1.784778E-006	7.41751E-005	9
	38	102	45.95588	217.216	-181.8263	1	283.2729	-39.9319	1.832201E-006	8.001682E-005	9
	39	104	37.20238	228.408	-216.2605	1	314.5455	-43.43518	1.875168E-006	8.746613E-005	9
	40	106	30.04808	240.8311	-258.4307	1	353.2507	-47.01891	1.902272E-006	7.705623E-005	9
	41	109	23.91582	254.1871	-312.1308	1	402.5378	-50.84198	1.178817E-007	0.0006506	8
	42	111	18.60119	271.4524	-387.165	1	472.8458	-54.96461	3.367853E-008	0.0007142	8
	43	113	15.02404	288.7395	-466.3879	1	548.5328	-58.23846	1.844079E-007	0.0006625	8
	44	116	12.01923	309.5607	-567.5447	1	646.4788	-61.39025	8.560151E-008	0.0006467	8
	45	118	9.450605	335.4269	-702.6769	1	778.6309	-64.48225	7.230813E-008	0.0006665	8
	46	121	7.512019	364.3631	-862.7224	1	936.5097	-67.10367	1.061731E-007	0.000648	8
	47	123	5.978954	399.4103	-1059.353	1	1132.147	-69.34193	1.222057E-007	0.0006656	8
	48	126	4.734848	442.3521	-1309.46	1	1382.158	-71.33438	1.048766E-007	0.0006627	8
	49	132	3.75601	497.6448	-1618.269	1	1693.058	-72.90646	1.125769E-007	0.0006656	8
	50	135	3.004808	556.8513	-1982.413	1	2059.137	-74.31017	1.145506E-007	0.0006291	8
	51	139	2.372217	632.1408	-2462.159	1	2542.013	-75.60075	1.004547E-007	0.0005801	8
	52	143	1.878005	722.0532	-3051.411	1	3135.677	-76.68702	1.023258E-007	0.0006612	8
	53	148	1.512097	826.2412	-3717.554	1	3808.265	-77.46946	7.196085E-008	0.0006178	8
	54	153	1.201923	956.929	-4621.559	1	4719.589	-78.30177	5.747372E-009	0.0006569	7
	55	159	0.956633	1115.602	-5713.789	1	5821.679	-78.95213	-9.232229E-009	-9.136334E-006	7
