EXPLAIN
TAG	EISPOT
TITLE	LABEL	Potentiostatic EIS	Test Identifier
DATE	LABEL	8/28/2020	Date
TIME	LABEL	10:40:40	Time
NOTES	NOTES	1	Notes...
	
PSTAT	PSTAT	REF3000-16137	Potentiostat
VDC	POTEN	0.00000E+000	T	DC Voltage (V)
FREQINIT	QUANT	3.00000E+005	Initial Freq. (Hz)
FREQFINAL	QUANT	1.00000E+000	Final Freq. (Hz)
PTSPERDEC	QUANT	1.00000E+001	Points/decade
VAC	QUANT	5.00000E+001	AC Voltage (mV rms)
AREA	QUANT	1.00000E+000	Sample Area (cm^2)
SPEED	SELECTOR	2	Optimize for:
ZGUESS	QUANT	1.00000E+003	Estimated Z (ohms)
EOC	QUANT	0	Open Circuit (V)
SEQUENCER	TOGGLE	TRUE	Run as Sequence
PSTATMODEL	IQUANT	5	Pstat Model
PSTATSECTION	LABEL	REF3000-16137	Pstat Section
PSTATSERIALNO	LABEL	16137	Pstat Serial Number
CTRLMODE	IQUANT	1	Control Mode
IESTAB	IQUANT	0	I/E Stability
CASPEED	IQUANT	1	Control Amp Speed
CONVENTION	IQUANT	1	Current Convention
ICHRANGE	IQUANT	2	Ich Range
ICHRANGEMODE	TOGGLE	F	Ich Auto Range
ICHOFFSETENABLE	TOGGLE	T	Ich Offset Enable
ICHOFFSET	QUANT	0	Ich Offset (V)
ICHFILTER	IQUANT	3	Ich Filter
VCHRANGE	IQUANT	2	Vch Range
VCHRANGEMODE	TOGGLE	F	Vch Auto Range
VCHOFFSETENABLE	TOGGLE	T	Vch Offset Enable
VCHOFFSET	QUANT	0	Vch Offset (V)
VCHFILTER	IQUANT	3	Vch Filter
ACHRANGE	IQUANT	2	Ach Range
ACHOFFSETENABLE	TOGGLE	F	Ach Offset Enable
ACHOFFSET	QUANT	0	Ach Offset (V)
ACHFILTER	IQUANT	3	Ach Filter
IERANGELOWERLIMIT	IQUANT	2	I/E Range Lower Limit
IERANGEMODE	TOGGLE	F	I/E AutoRange
IERANGE	IQUANT	11	I/E Range
POSFEEDENABLE	TOGGLE	F	Positive Feedback IR Comp
POSFEEDRESISTANCE	QUANT	0	Positive Feedback Resistance (ohm)
ACHSELECT	IQUANT	0	Ach Select
CABLEID	IQUANT	13	Cable ID
DCCALDATE	LABEL	7/31/2020	DC Calibration Date
ACCALDATE	LABEL	7/31/2020	AC Calibration Date
THERMOSELECT	IQUANT	1	Thermo Select
FRAMEWORKVERSION	QUANT	6.33	Framework Version
INSTRUMENTVERSION	LABEL	3.50	Instrument Version
COMPLIANCEVOLTAGE	IQUANT	0	Compliance Voltage
ZCURVE	TABLE
	Pt	Time	Freq	Zreal	Zimag	Zsig	Zmod	Zphz	Idc	Vdc	IERange
	#	s	Hz	ohm	ohm	V	ohm	°	A	V	#
	0	8	300046.9	21.28798	0.9420857	1	21.30881	2.533935	-9.13155E-005	0.00048	10
	1	11	238359.4	21.34487	0.7166192	1	21.35689	1.92289	-1.141538E-005	0.0004665	10
	2	14	189328.1	21.41272	0.550496	1	21.41979	1.472683	-1.396217E-005	0.0005941	10
	3	17	150421.9	21.48198	0.4057464	1	21.48581	1.08206	-0.0000975	0.0005832	10
	4	19	119484.4	21.53219	0.291137	1	21.53416	0.7746495	7.390899E-005	0.0003267	10
	5	22	94921.88	21.58807	0.1984207	1	21.58898	0.5266033	6.427365E-006	0.0005668	10
	6	24	75421.88	21.65587	0.0948751	1	21.65607	0.2510131	-2.24246E-005	0.0006986	10
	7	27	59859.37	21.72013	0.0049407	1	21.72013	0.0130332	-2.725388E-005	0.0006482	10
	8	29	47578.12	21.78531	-0.0824367	1	21.78547	-0.216809	-2.356589E-005	0.0006715	10
	9	32	37828.12	21.8585	-0.1720995	1	21.85917	-0.4511003	-2.137504E-005	0.0006263	10
	10	34	30046.88	21.91928	-0.2685502	1	21.92092	-0.7019402	2.087583E-005	0.0005822	10
	11	37	23859.38	21.98824	-0.375619	1	21.99144	-0.978673	-1.112429E-005	0.0006395	10
	12	39	18984.38	22.054	-0.4989515	1	22.05965	-1.296043	-1.695117E-005	0.0006534	10
	13	41	15046.87	22.12538	-0.6433073	1	22.13473	-1.665436	1.653595E-005	0.0006835	10
	14	44	11953.13	22.203	-0.8168603	1	22.21802	-2.106992	1.32659E-005	0.0005791	10
	15	46	9515.62	22.27912	-1.031147	1	22.30297	-2.649936	-1.411546E-005	0.0007296	10
	16	48	7546.875	22.36563	-1.289665	1	22.40279	-3.30018	1.320887E-005	0.0005846	10
	17	51	5928.309	22.46415	-1.622768	1	22.52268	-4.131763	2.320182E-005	0.0006476	10
	18	53	4733.456	22.55992	-2.007712	1	22.64908	-5.08562	-4.188149E-006	0.0006134	10
	19	55	3796.875	22.67474	-2.47804	1	22.80975	-6.236896	-2.441462E-005	0.0006889	10
	20	58	2987.132	22.79859	-3.091387	1	23.00722	-7.721957	-2.44701E-005	0.0006673	10
	21	60	2390.625	22.94395	-3.805857	1	23.25746	-9.418255	2.125432E-005	0.0006049	10
	22	62	1884.191	23.11269	-4.733035	1	23.59233	-11.57307	-3.274152E-006	0.0006114	10
	23	65	1516.544	23.29864	-5.804782	1	24.01088	-13.99022	-1.851986E-005	0.0006498	10
	24	67	1193.986	23.53327	-7.246839	1	24.6238	-17.1157	2.483442E-005	0.0006352	10
	25	69	946.5144	23.80911	-8.992295	1	25.45064	-20.6907	4.409937E-006	0.0006312	10
	26	72	751.7689	24.13491	-11.12401	1	26.57513	-24.74543	-3.016916E-006	0.0006099	10
	27	74	597.4265	24.52972	-13.76207	1	28.12653	-29.29402	1.369004E-005	0.0005847	10
	28	76	477.4305	25.00498	-16.93455	1	30.1998	-34.10772	-2.490506E-006	0.0006612	10
	29	79	376.6741	25.62557	-21.0808	1	33.18238	-39.44233	-2.456931E-006	0.000651	10
	30	81	298.2954	26.39667	-26.14514	1	37.15309	-44.72571	-2.700484E-006	0.0006604	10
	31	83	237.7717	27.31368	-32.17887	1	42.20802	-49.67514	1.258536E-006	5.886454E-005	9
	32	86	189.0121	28.53053	-39.73296	1	48.91523	-54.3195	1.22359E-006	6.146065E-005	9
	33	88	150.2404	30.08349	-49.02644	1	57.5205	-58.46599	1.255788E-006	6.326049E-005	9
	34	91	119.1737	32.08907	-60.55629	1	68.533	-62.08067	1.225838E-006	6.413637E-005	9
	35	93	95.0169	34.59707	-74.36671	1	82.02051	-65.05109	1.240179E-006	5.869682E-005	9
	36	95	75.60484	37.81505	-91.38411	1	98.8991	-67.52007	1.23912E-006	5.57517E-005	9
	37	98	54.50582	43.91407	-122.4063	1	130.0452	-70.26422	1.218807E-006	4.974223E-005	9
	38	101	45.95588	47.9897	-142.4348	1	150.3019	-71.38009	1.185608E-006	8.664968E-005	9
	39	103	37.20238	53.99845	-171.5926	1	179.8885	-72.53174	1.260114E-006	5.767167E-005	9
	40	105	30.04808	61.34143	-207.0285	1	215.9249	-73.49573	1.253375E-006	5.841049E-005	9
	41	108	23.91582	70.82661	-252.8146	1	262.5484	-74.34966	1.238027E-006	5.918126E-005	9
	42	110	18.60119	83.56514	-314.8955	1	325.7949	-75.13774	1.269544E-006	6.627505E-005	9
	43	112	15.02404	96.6664	-379.5536	1	391.6699	-75.71143	1.464644E-006	6.291538E-005	9
	44	115	12.01923	112.8311	-459.5998	1	473.2471	-76.20676	4.32266E-007	0.0006429	8
	45	117	9.450605	134.8237	-567.5667	1	583.3604	-76.63724	4.630575E-007	0.0006376	8
	46	120	7.512019	160.9864	-694.4649	1	712.8802	-76.94859	4.936022E-007	0.000641	8
	47	122	5.978954	192.8188	-848.3611	1	869.9975	-77.19513	5.022296E-007	0.0006419	8
	48	125	4.734848	234.1221	-1042.17	1	1068.144	-77.33878	4.468413E-007	0.0006453	8
	49	129	3.75601	284.9407	-1276.523	1	1307.938	-77.41693	4.604526E-007	0.0006433	8
	50	132	3.004808	346.0787	-1551.106	1	1589.245	-77.42233	4.09461E-007	0.00068	8
	51	136	2.372217	426.4651	-1905.429	1	1952.571	-77.38422	4.411458E-007	0.0006864	8
	52	140	1.878005	531.7991	-2336.291	1	2396.052	-77.17652	4.452614E-007	0.0006188	8
	53	145	1.512097	650.1219	-2819.687	1	2893.665	-77.01648	4.510644E-007	0.000742	8
	54	150	1.201923	806.9113	-3439.42	1	3532.806	-76.7968	4.686614E-007	0.0006186	8
	55	156	0.956633	997.967	-4183.85	1	4301.225	-76.58402	4.096829E-007	-3.061393E-006	8
