EXPLAIN
TAG	EISPOT
TITLE	LABEL	Potentiostatic EIS	Test Identifier
DATE	LABEL	8/28/2020	Date
TIME	LABEL	10:15:36	Time
NOTES	NOTES	1	Notes...
	
PSTAT	PSTAT	REF3000-16137	Potentiostat
VDC	POTEN	0.00000E+000	T	DC Voltage (V)
FREQINIT	QUANT	3.00000E+005	Initial Freq. (Hz)
FREQFINAL	QUANT	1.00000E+000	Final Freq. (Hz)
PTSPERDEC	QUANT	1.00000E+001	Points/decade
VAC	QUANT	5.00000E+001	AC Voltage (mV rms)
AREA	QUANT	1.00000E+000	Sample Area (cm^2)
SPEED	SELECTOR	2	Optimize for:
ZGUESS	QUANT	1.00000E+003	Estimated Z (ohms)
EOC	QUANT	0	Open Circuit (V)
SEQUENCER	TOGGLE	TRUE	Run as Sequence
PSTATMODEL	IQUANT	5	Pstat Model
PSTATSECTION	LABEL	REF3000-16137	Pstat Section
PSTATSERIALNO	LABEL	16137	Pstat Serial Number
CTRLMODE	IQUANT	1	Control Mode
IESTAB	IQUANT	0	I/E Stability
CASPEED	IQUANT	1	Control Amp Speed
CONVENTION	IQUANT	1	Current Convention
ICHRANGE	IQUANT	2	Ich Range
ICHRANGEMODE	TOGGLE	F	Ich Auto Range
ICHOFFSETENABLE	TOGGLE	T	Ich Offset Enable
ICHOFFSET	QUANT	0	Ich Offset (V)
ICHFILTER	IQUANT	3	Ich Filter
VCHRANGE	IQUANT	2	Vch Range
VCHRANGEMODE	TOGGLE	F	Vch Auto Range
VCHOFFSETENABLE	TOGGLE	T	Vch Offset Enable
VCHOFFSET	QUANT	0	Vch Offset (V)
VCHFILTER	IQUANT	3	Vch Filter
ACHRANGE	IQUANT	2	Ach Range
ACHOFFSETENABLE	TOGGLE	F	Ach Offset Enable
ACHOFFSET	QUANT	0	Ach Offset (V)
ACHFILTER	IQUANT	3	Ach Filter
IERANGELOWERLIMIT	IQUANT	2	I/E Range Lower Limit
IERANGEMODE	TOGGLE	F	I/E AutoRange
IERANGE	IQUANT	11	I/E Range
POSFEEDENABLE	TOGGLE	F	Positive Feedback IR Comp
POSFEEDRESISTANCE	QUANT	0	Positive Feedback Resistance (ohm)
ACHSELECT	IQUANT	0	Ach Select
CABLEID	IQUANT	13	Cable ID
DCCALDATE	LABEL	7/31/2020	DC Calibration Date
ACCALDATE	LABEL	7/31/2020	AC Calibration Date
THERMOSELECT	IQUANT	1	Thermo Select
FRAMEWORKVERSION	QUANT	6.33	Framework Version
INSTRUMENTVERSION	LABEL	3.50	Instrument Version
COMPLIANCEVOLTAGE	IQUANT	0	Compliance Voltage
ZCURVE	TABLE
	Pt	Time	Freq	Zreal	Zimag	Zsig	Zmod	Zphz	Idc	Vdc	IERange
	#	s	Hz	ohm	ohm	V	ohm	°	A	V	#
	0	10	300046.9	6.410519	1.192089	1	6.520417	10.5343	-2.229836E-005	0.0001576	10
	1	13	238359.4	6.401445	0.930809	1	6.468764	8.273172	-2.951775E-005	-5.397665E-005	10
	2	17	189328.1	6.404313	0.723169	1	6.445014	6.442496	-4.828628E-005	0.0002529	10
	3	19	150421.9	6.399695	0.5480965	1	6.423123	4.895103	-0.0001018	0.0003084	10
	4	22	119484.4	6.41458	0.408631	1	6.427582	3.645015	-1.147827E-005	0.0005	10
	5	24	94921.88	6.427968	0.3112244	1	6.435498	2.771938	-1.31678E-005	0.0005344	10
	6	27	75421.88	6.43533	0.1984433	1	6.438389	1.766244	-2.012068E-005	0.0006175	10
	7	29	59859.37	6.444974	0.0949702	1	6.445673	0.8442234	2.167586E-005	0.0006003	10
	8	32	47578.12	6.458133	-5.186017E-005	1	6.458133	-0.0004601	-2.951335E-005	0.000607	10
	9	34	37828.12	6.473787	-0.0922715	1	6.474445	-0.8165872	-2.057966E-005	0.0006739	10
	10	37	30046.88	6.490358	-0.1863249	1	6.493032	-1.644393	2.451469E-005	0.0006365	10
	11	39	23859.38	6.508148	-0.2873188	1	6.514487	-2.527827	2.382841E-005	0.000625	10
	12	42	18984.38	6.526868	-0.3988296	1	6.539042	-3.496758	-1.092892E-005	0.0006386	10
	13	44	15046.87	6.548306	-0.5312538	1	6.56982	-4.638159	-1.088755E-005	0.0006461	10
	14	46	11953.13	6.57306	-0.685999	1	6.60876	-5.958119	-2.553085E-005	0.0006477	10
	15	49	9515.62	6.600805	-0.8701084	1	6.657906	-7.50935	1.117162E-005	0.0006293	10
	16	51	7546.875	6.634991	-1.097773	1	6.725193	-9.394599	-1.790334E-005	0.0007043	10
	17	53	5928.309	6.675086	-1.389518	1	6.818177	-11.75903	-1.751435E-005	0.0006488	10
	18	55	4733.456	6.720796	-1.724628	1	6.938547	-14.39217	4.936165E-006	0.0006507	10
	19	58	3796.875	6.774727	-2.125174	1	7.100232	-17.41619	1.601263E-005	0.0006103	10
	20	60	2987.132	6.84515	-2.667556	1	7.346559	-21.29087	-1.541532E-005	0.0006788	10
	21	62	2390.625	6.926141	-3.285806	1	7.666026	-25.37997	2.340727E-005	0.000621	10
	22	65	1884.191	7.032485	-4.109782	1	8.145315	-30.302	-6.344968E-006	0.0006735	10
	23	67	1516.544	7.154545	-5.031742	1	8.746768	-35.11845	1.605243E-005	0.000607	10
	24	69	1193.986	7.325206	-6.28832	1	9.6541	-40.64442	3.380077E-006	0.0006092	10
	25	72	946.5144	7.533048	-7.809764	1	10.85077	-46.03325	1.905673E-005	0.0006209	10
	26	74	751.7689	7.804057	-9.66833	1	12.42497	-51.09031	-1.500917E-005	0.0006805	10
	27	77	597.4265	8.153165	-11.95238	1	14.46836	-55.70065	-1.242117E-005	0.0006402	10
	28	79	477.4305	8.581951	-14.68898	1	17.01223	-59.70464	-2.897538E-006	0.0006606	10
	29	81	376.6741	9.174253	-18.24958	1	20.42582	-63.31085	-3.700446E-006	0.000653	10
	30	83	298.2954	9.92971	-22.56813	1	24.65602	-66.25106	-3.350693E-006	0.0006589	10
	31	86	237.7717	10.87172	-27.70869	1	29.76518	-68.57706	-2.799214E-006	0.0006565	10
	32	88	189.0121	12.07801	-34.04655	1	36.12542	-70.46786	-2.847358E-006	0.0006567	10
	33	91	150.2404	13.57586	-41.723	1	43.8761	-71.9761	1.222257E-006	5.212165E-005	9
	34	93	119.1737	15.47163	-51.21944	1	53.50516	-73.19225	1.268511E-006	5.820868E-005	9
	35	95	95.0169	17.74594	-62.53361	1	65.00285	-74.15699	1.211889E-006	6.296046E-005	9
	36	98	75.60484	20.53791	-76.43364	1	79.14485	-74.95973	1.155533E-006	5.629853E-005	9
	37	101	54.50582	25.61271	-101.8539	1	105.0249	-75.88477	1.19332E-006	4.73106E-005	9
	38	103	45.95588	28.88952	-118.2978	1	121.7743	-76.2764	1.368014E-006	5.135341E-005	9
	39	105	37.20238	33.69577	-142.4385	1	146.3699	-76.69058	1.401897E-006	5.436105E-005	9
	40	108	30.04808	39.65119	-171.9575	1	176.4698	-77.01529	1.267177E-006	4.844974E-005	9
	41	110	23.91582	47.49473	-210.24	1	215.538	-77.27016	1.36364E-006	4.943129E-005	9
	42	113	18.60119	58.28299	-262.1101	1	268.5118	-77.46363	1.347314E-006	4.99471E-005	9
	43	115	15.02404	69.85873	-316.2493	1	323.8733	-77.54353	1.427343E-006	6.367112E-005	9
	44	117	12.01923	85.06139	-384.7562	1	394.0467	-77.53365	1.176803E-006	5.117111E-005	9
	45	120	9.450605	105.2179	-472.9013	1	484.4651	-77.45633	5.012081E-007	0.0006303	8
	46	122	7.512019	130.26	-577.6832	1	592.1871	-77.29307	4.929841E-007	0.0006461	8
	47	125	5.978954	161.362	-704.3366	1	722.5841	-77.09634	4.800349E-007	0.0006326	8
	48	128	4.734848	202.2624	-861.6047	1	885.027	-76.78898	4.871407E-007	0.000664	8
	49	131	3.75601	254.0773	-1051.405	1	1081.669	-76.41464	4.05182E-007	0.0006209	8
	50	135	3.004808	316.1507	-1270.569	1	1309.311	-76.02708	4.149023E-007	0.0006417	8
	51	138	2.372217	402.3553	-1551.504	1	1602.827	-75.46162	4.204545E-007	0.0006924	8
	52	142	1.878005	506.6125	-1890.572	1	1957.274	-74.99901	3.687317E-007	0.0006161	8
	53	147	1.512097	627.1161	-2259.265	1	2344.687	-74.48666	4.147423E-007	0.0006352	8
	54	153	1.201923	792.7402	-2739.425	1	2851.822	-73.86051	3.875373E-007	0.0006063	8
	55	159	0.956633	998.918	-3305.031	1	3452.689	-73.183	3.706714E-007	-2.79828E-006	8
