EXPLAIN
TAG	EISPOT
TITLE	LABEL	Potentiostatic EIS	Test Identifier
DATE	LABEL	8/28/2020	Date
TIME	LABEL	11:36:19	Time
NOTES	NOTES	1	Notes...
	
PSTAT	PSTAT	REF3000-16137	Potentiostat
VDC	POTEN	0.00000E+000	T	DC Voltage (V)
FREQINIT	QUANT	3.00000E+005	Initial Freq. (Hz)
FREQFINAL	QUANT	1.00000E+000	Final Freq. (Hz)
PTSPERDEC	QUANT	1.00000E+001	Points/decade
VAC	QUANT	5.00000E+001	AC Voltage (mV rms)
AREA	QUANT	1.00000E+000	Sample Area (cm^2)
SPEED	SELECTOR	2	Optimize for:
ZGUESS	QUANT	1.00000E+003	Estimated Z (ohms)
EOC	QUANT	0	Open Circuit (V)
SEQUENCER	TOGGLE	TRUE	Run as Sequence
PSTATMODEL	IQUANT	5	Pstat Model
PSTATSECTION	LABEL	REF3000-16137	Pstat Section
PSTATSERIALNO	LABEL	16137	Pstat Serial Number
CTRLMODE	IQUANT	1	Control Mode
IESTAB	IQUANT	0	I/E Stability
CASPEED	IQUANT	1	Control Amp Speed
CONVENTION	IQUANT	1	Current Convention
ICHRANGE	IQUANT	2	Ich Range
ICHRANGEMODE	TOGGLE	F	Ich Auto Range
ICHOFFSETENABLE	TOGGLE	T	Ich Offset Enable
ICHOFFSET	QUANT	0	Ich Offset (V)
ICHFILTER	IQUANT	3	Ich Filter
VCHRANGE	IQUANT	2	Vch Range
VCHRANGEMODE	TOGGLE	F	Vch Auto Range
VCHOFFSETENABLE	TOGGLE	T	Vch Offset Enable
VCHOFFSET	QUANT	0	Vch Offset (V)
VCHFILTER	IQUANT	3	Vch Filter
ACHRANGE	IQUANT	2	Ach Range
ACHOFFSETENABLE	TOGGLE	F	Ach Offset Enable
ACHOFFSET	QUANT	0	Ach Offset (V)
ACHFILTER	IQUANT	3	Ach Filter
IERANGELOWERLIMIT	IQUANT	2	I/E Range Lower Limit
IERANGEMODE	TOGGLE	F	I/E AutoRange
IERANGE	IQUANT	11	I/E Range
POSFEEDENABLE	TOGGLE	F	Positive Feedback IR Comp
POSFEEDRESISTANCE	QUANT	0	Positive Feedback Resistance (ohm)
ACHSELECT	IQUANT	0	Ach Select
CABLEID	IQUANT	13	Cable ID
DCCALDATE	LABEL	7/31/2020	DC Calibration Date
ACCALDATE	LABEL	7/31/2020	AC Calibration Date
THERMOSELECT	IQUANT	1	Thermo Select
FRAMEWORKVERSION	QUANT	6.33	Framework Version
INSTRUMENTVERSION	LABEL	3.50	Instrument Version
COMPLIANCEVOLTAGE	IQUANT	0	Compliance Voltage
ZCURVE	TABLE
	Pt	Time	Freq	Zreal	Zimag	Zsig	Zmod	Zphz	Idc	Vdc	IERange
	#	s	Hz	ohm	ohm	V	ohm	°	A	V	#
	0	14	300046.9	535.6145	-4076.971	1	4112.004	-82.51559	-3.126143E-005	-0.0012685	9
	1	30	238359.4	811.7278	-5009.563	1	5074.902	-80.79604	1.572513E-006	0.0015735	9
	2	45	189328.1	1172.9	-6035.22	1	6148.136	-79.00208	2.095111E-005	-0.0004009	9
	3	52	150421.9	1733.328	-7532.578	1	7729.435	-77.04121	-2.121121E-005	0.0016429	9
	4	60	119484.4	2558.849	-9118.822	1	9471.041	-74.32526	6.945987E-005	-0.0136678	8
	5	67	94921.88	3437.754	-11037.91	1	11560.87	-72.70082	8.373308E-006	0.0040614	8
	6	76	75421.88	4603.018	-13487.58	1	14251.41	-71.15635	-1.959115E-005	0.0112227	8
	7	85	59859.37	6576.39	-15959.47	1	17261.33	-67.605	1.75078E-005	0.0002448	8
	8	93	47578.12	8693.503	-19482.93	1	21334.51	-65.95303	-1.790223E-006	0.0075813	8
	9	102	37828.12	14674.53	-22564.2	1	26916.26	-56.9622	2.623824E-006	0.008194	7
	10	108	30046.88	15674.26	-26578.81	1	30856.37	-59.47097	1.742715E-005	0.000251	8
	11	117	23859.38	21033.38	-30340.25	1	36917.93	-55.26837	8.492818E-006	0.0041268	8
	12	124	18984.38	29855.47	-31853.9	1	43657.99	-46.85484	7.28888E-006	-0.0178887	7
	13	130	15046.87	35404.75	-34175.18	1	49208.12	-43.98761	1.612732E-005	-0.0091803	8
	14	136	11953.13	43945.04	-35491.79	1	56487.46	-38.92574	6.685805E-006	-0.0262234	7
	15	142	9515.62	52764.1	-35120.9	1	63383.97	-33.64858	-1.20079E-006	-0.0128434	7
	16	147	7546.875	60263.63	-32416.52	1	68429.06	-28.27633	3.444823E-006	-0.0237346	7
	17	152	5928.309	69137.73	-29710.73	1	75251.27	-23.25477	4.76165E-006	-0.0006005	7
	18	158	4733.456	75230.42	-27398.07	1	80064.16	-20.01105	3.433586E-006	-0.0237803	7
	19	163	3796.875	78188.04	-24941.12	1	82069.66	-17.6921	1.308863E-006	-0.0194005	7
	20	168	2987.132	84175.02	-21607.55	1	86904.09	-14.39686	7.4427E-006	-0.0236617	7
	21	174	2390.625	65492.12	-44419.77	1	79134.91	-34.14693	-2.597856E-005	0.0091979	8
	22	181	1884.191	113641.5	-26730.73	1	116743	-13.23648	-2.386143E-005	0.0052423	8
	23	189	1516.544	97667.8	-10953.36	1	98280.1	-6.398934	7.926749E-006	-0.0076159	8
	24	197	1193.986	101645	-13427.87	1	102528.1	-7.525517	5.248299E-006	-0.0260811	7
	25	202	946.5144	105087.6	1755.874	1	105102.2	0.957248	-7.133161E-006	0.0181763	7
	26	206	751.7689	108977.8	-5311.476	1	109107.2	-2.790333	6.642762E-006	-0.0260794	7
	27	210	597.4265	102897.1	-14428.5	1	103903.7	-7.982125	-1.776659E-006	0.0212978	7
	28	214	477.4305	111650.3	-6134.822	1	111818.7	-3.145054	-7.724378E-008	0.0006241	7
	29	217	376.6741	113288.5	-3715.883	1	113349.4	-1.878639	-9.754541E-009	0.0006058	6
	30	219	298.2954	114641.4	-3012.505	1	114681	-1.505251	-1.037947E-008	0.0006957	6
	31	221	237.7717	116109.5	-2563.035	1	116137.7	-1.264559	-1.001389E-008	0.0006259	6
	32	224	189.0121	117522.2	-2176.37	1	117542.3	-1.060928	-9.854794E-009	0.0006838	6
	33	226	150.2404	119103.1	-1747.703	1	119115.9	-0.8406904	-1.012504E-008	0.0006602	6
	34	229	119.1737	119936.6	-1405.112	1	119944.9	-0.6712152	-1.086231E-008	0.0007059	6
	35	231	95.0169	121957.6	-1373.545	1	121965.4	-0.6452652	-9.609686E-009	0.0006347	6
	36	234	75.60484	123473.5	-1194.545	1	123479.3	-0.554291	-9.355393E-009	0.0006475	6
	37	236	54.50582	125369.3	-1068.379	1	125373.8	-0.4882546	-1.021643E-008	0.0006726	6
	38	239	45.95588	126624.9	-1036.764	1	126629.2	-0.4691088	-8.7952E-009	0.0006165	6
	39	241	37.20238	128200.3	-1028.602	1	128204.4	-0.459697	-8.611559E-009	0.0006001	6
	40	243	30.04808	129795.3	-1046.365	1	129799.5	-0.4618888	-1.111023E-008	0.0006783	6
	41	246	23.91582	131520.7	-1087.021	1	131525.1	-0.4735401	-1.060837E-008	0.000681	6
	42	248	18.60119	133007.8	-1304.191	1	133014.2	-0.5617884	-1.187743E-008	0.0006894	6
	43	250	15.02404	134497.6	-1381.014	1	134504.7	-0.5882893	-1.149923E-008	0.0007087	6
	44	253	12.01923	136198.9	-1553.252	1	136207.7	-0.6533896	-1.075038E-008	0.0006087	6
	45	255	9.450605	137920.9	-1882.279	1	137933.8	-0.7818967	-1.252272E-008	0.0005997	6
	46	258	7.512019	139866.3	-2171.196	1	139883.1	-0.8893524	-9.020637E-009	0.000685	6
	47	260	5.978954	141950.7	-2671.22	1	141975.8	-1.078062	-5.538566E-009	0.0005994	6
	48	263	4.734848	144321.7	-3247.425	1	144358.2	-1.289011	-5.237457E-009	0.0006282	6
	49	267	3.75601	147023.6	-3921.933	1	147075.9	-1.528033	-7.914331E-009	0.0006035	6
	50	270	3.004808	149857.3	-4829.628	1	149935.1	-1.8459	-1.430811E-008	0.0006692	6
	51	274	2.372217	153208.7	-5725.753	1	153315.6	-2.140276	-6.552826E-009	0.000688	6
	52	278	1.878005	156895.6	-7089.728	1	157055.7	-2.587296	-9.823849E-009	0.0006224	6
	53	283	1.512097	161262	-8760.401	1	161499.8	-3.109481	-1.420317E-008	0.0007453	6
	54	288	1.201923	166562.9	-10549.33	1	166896.6	-3.624011	-7.48943E-009	0.0006165	6
	55	294	0.956633	173080.7	-13023.83	1	173570	-4.303234	-2.167009E-008	8.635307E-006	6
