EXPLAIN
TAG	EISPOT
TITLE	LABEL	Potentiostatic EIS	Test Identifier
DATE	LABEL	8/28/2020	Date
TIME	LABEL	11:52:11	Time
NOTES	NOTES	1	Notes...
	
PSTAT	PSTAT	REF3000-16137	Potentiostat
VDC	POTEN	0.00000E+000	T	DC Voltage (V)
FREQINIT	QUANT	3.00000E+005	Initial Freq. (Hz)
FREQFINAL	QUANT	1.00000E+000	Final Freq. (Hz)
PTSPERDEC	QUANT	1.00000E+001	Points/decade
VAC	QUANT	5.00000E+001	AC Voltage (mV rms)
AREA	QUANT	1.00000E+000	Sample Area (cm^2)
SPEED	SELECTOR	2	Optimize for:
ZGUESS	QUANT	1.00000E+003	Estimated Z (ohms)
EOC	QUANT	0	Open Circuit (V)
SEQUENCER	TOGGLE	TRUE	Run as Sequence
PSTATMODEL	IQUANT	5	Pstat Model
PSTATSECTION	LABEL	REF3000-16137	Pstat Section
PSTATSERIALNO	LABEL	16137	Pstat Serial Number
CTRLMODE	IQUANT	1	Control Mode
IESTAB	IQUANT	0	I/E Stability
CASPEED	IQUANT	1	Control Amp Speed
CONVENTION	IQUANT	1	Current Convention
ICHRANGE	IQUANT	2	Ich Range
ICHRANGEMODE	TOGGLE	F	Ich Auto Range
ICHOFFSETENABLE	TOGGLE	T	Ich Offset Enable
ICHOFFSET	QUANT	0	Ich Offset (V)
ICHFILTER	IQUANT	3	Ich Filter
VCHRANGE	IQUANT	2	Vch Range
VCHRANGEMODE	TOGGLE	F	Vch Auto Range
VCHOFFSETENABLE	TOGGLE	T	Vch Offset Enable
VCHOFFSET	QUANT	0	Vch Offset (V)
VCHFILTER	IQUANT	3	Vch Filter
ACHRANGE	IQUANT	2	Ach Range
ACHOFFSETENABLE	TOGGLE	F	Ach Offset Enable
ACHOFFSET	QUANT	0	Ach Offset (V)
ACHFILTER	IQUANT	3	Ach Filter
IERANGELOWERLIMIT	IQUANT	2	I/E Range Lower Limit
IERANGEMODE	TOGGLE	F	I/E AutoRange
IERANGE	IQUANT	11	I/E Range
POSFEEDENABLE	TOGGLE	F	Positive Feedback IR Comp
POSFEEDRESISTANCE	QUANT	0	Positive Feedback Resistance (ohm)
ACHSELECT	IQUANT	0	Ach Select
CABLEID	IQUANT	13	Cable ID
DCCALDATE	LABEL	7/31/2020	DC Calibration Date
ACCALDATE	LABEL	7/31/2020	AC Calibration Date
THERMOSELECT	IQUANT	1	Thermo Select
FRAMEWORKVERSION	QUANT	6.33	Framework Version
INSTRUMENTVERSION	LABEL	3.50	Instrument Version
COMPLIANCEVOLTAGE	IQUANT	0	Compliance Voltage
ZCURVE	TABLE
	Pt	Time	Freq	Zreal	Zimag	Zsig	Zmod	Zphz	Idc	Vdc	IERange
	#	s	Hz	ohm	ohm	V	ohm	°	A	V	#
	0	15	300046.9	-30.27109	-4504.936	1	4505.038	-90.38499	-2.364386E-005	0.0014113	9
	1	29	238359.4	102.8419	-5529.973	1	5530.929	-88.93459	2.102607E-005	-0.0009659	9
	2	43	189328.1	-5.49962	-6925.757	1	6925.759	-90.04549	8.318313E-005	-0.0034251	9
	3	52	150421.9	257.6772	-8721.479	1	8725.284	-88.30768	-2.112282E-005	0.0016339	9
	4	62	119484.4	698.5665	-10929.6	1	10951.9	-86.34291	7.728901E-005	-0.0232838	8
	5	70	94921.88	576.1633	-13462.31	1	13474.64	-87.54934	1.642321E-005	-0.0093134	8
	6	79	75421.88	657.5598	-16956.75	1	16969.49	-87.77926	1.649005E-005	-0.009344	8
	7	87	59859.37	1041.309	-21233.47	1	21258.99	-87.19241	-2.036901E-005	0.0027639	8
	8	96	47578.12	4086.102	-27535.27	1	27836.8	-81.55918	-1.10219E-006	-0.0131378	7
	9	103	37828.12	943.5338	-32936.4	1	32949.91	-88.35909	2.725128E-005	-0.007429	8
	10	112	30046.88	830.6364	-41850.42	1	41858.66	-88.86296	2.258284E-005	-0.009711	8
	11	122	23859.38	-707.6312	-50326.9	1	50331.88	-90.80556	-2.61634E-005	0.0075866	8
	12	129	18984.38	3233.945	-65771.51	1	65850.97	-87.18507	-9.539931E-006	-0.0022064	8
	13	136	15046.87	6044.804	-83708.52	1	83926.49	-85.8697	3.999006E-007	0.0162628	7
	14	141	11953.13	4806.145	-105120.4	1	105230.2	-87.38224	4.824009E-006	-0.0009336	7
	15	148	9515.62	6522.244	-129830.7	1	129994.4	-87.12408	-7.140373E-006	0.0230936	7
	16	153	7546.875	10339.9	-162492.5	1	162821.2	-86.359	-6.442624E-006	0.0253739	7
	17	159	5928.309	-1469.248	-222293.2	1	222298.1	-90.37869	-3.724736E-006	0.0251683	7
	18	166	4733.456	43020.03	-274601.3	1	277950.7	-81.09621	5.852637E-007	-0.0273733	6
	19	171	3796.875	47228.18	-334556.4	1	337873.4	-81.96484	-7.161805E-007	0.0173033	6
	20	176	2987.132	57610.89	-420875.1	1	424799.8	-82.20559	3.97618E-007	-0.0251542	6
	21	182	2390.625	58490.31	-545618	1	548744.1	-83.88126	7.123556E-007	-0.0159791	6
	22	187	1884.191	106440.7	-652517.4	1	661141.9	-80.73533	2.18786E-007	0.0102417	6
	23	193	1516.544	69964.39	-829235.3	1	832181.6	-85.17725	7.220389E-007	-0.015785	6
	24	198	1193.986	79962.92	-1020366	1	1023494	-85.51907	5.868474E-007	-0.0273568	6
	25	204	946.5144	-553061.4	249364.1	1	606679	155.7304	-2.016707E-005	0.0026982	8
	26	211	751.7689	612653.6	-1345428	1	1478351	-65.5174	-6.512299E-006	0.0256839	7
	27	217	597.4265	3224842	1124657	1	3415327	19.22612	-3.393383E-006	-0.0052324	7
	28	221	477.4305	215265.6	-2483971	1	2493282	-85.04701	-8.433197E-008	0.0006398	7
	29	227	376.6741	686899	-3194168	1	3267191	-77.8635	-8.411207E-010	0.000611	5
	30	231	298.2954	813007.9	-3951313	1	4034086	-78.37329	-8.940979E-010	0.0006851	5
	31	235	237.7717	925339.3	-4879741	1	4966702	-79.26257	-8.069921E-010	0.000583	5
	32	238	189.0121	1261319	-6056879	1	6186817	-78.23652	-7.840402E-010	0.0005922	5
	33	241	150.2404	1400756	-7773080	1	7898284	-79.78459	-7.983442E-010	0.0006021	5
	34	244	119.1737	4792595	-9.850144E+006	1	1.095419E+007	-64.05473	-8.53455E-010	0.0005841	5
	35	246	95.0169	2716061	-1.149632E+007	1	1.181281E+007	-76.70734	-9.285884E-010	0.0006683	5
	36	249	75.60484	3648183	-1.387609E+007	1	1.434765E+007	-75.26965	-8.217945E-010	0.0006121	5
	37	252	54.50582	5873674	-1.807544E+007	1	1.900583E+007	-71.99826	-8.143279E-010	0.0006125	5
	38	255	45.95588	1.245831E+007	-2.154267E+007	1	2.488567E+007	-59.95884	-6.33564E-011	0.0006723	4
	39	258	37.20238	1.277444E+007	-2.425972E+007	1	2.741752E+007	-62.23007	-8.056005E-010	0.0005991	5
	40	262	30.04808	1.46724E+007	-2.855342E+007	1	3.21026E+007	-62.80328	-8.2758E-010	0.0006174	5
	41	266	23.91582	2.222315E+007	-3.354164E+007	1	4.023568E+007	-56.47337	-9.178762E-010	0.0006028	5
	42	270	18.60119	3.243436E+007	-3.090755E+007	1	4.48025E+007	-43.61919	-1.637093E-010	0.0006628	4
	43	273	15.02404	3.793848E+007	-4.034064E+007	1	5.537775E+007	-46.75768	-9.554267E-011	0.0006828	4
	44	277	12.01923	4.632982E+007	-4.227222E+007	1	6.271676E+007	-42.37793	-9.089871E-011	0.0006942	4
	45	281	9.450605	5.674446E+007	-4.494604E+007	1	7.238839E+007	-38.38197	-7.042435E-011	0.0005998	4
	46	285	7.512019	6.649283E+007	-4.180059E+007	1	7.854034E+007	-32.15545	-9.280064E-011	0.0006937	4
	47	289	5.978954	7.548368E+007	-4.454512E+007	1	8.764733E+007	-30.54609	-9.482215E-011	0.0005882	4
	48	294	4.734848	9.675223E+007	-3.081911E+007	1	1.015422E+008	-17.66857	-1.303279E-011	0.0007821	3
	49	299	3.75601	1.038736E+008	-2.834335E+007	1	1.076711E+008	-15.2624	-1.404345E-011	0.0007514	3
	50	305	3.004808	1.113345E+008	-2.610877E+007	1	1.143548E+008	-13.19781	-1.188041E-011	0.0006976	3
	51	311	2.372217	1.185551E+008	-2.347507E+007	1	1.208569E+008	-11.20024	-1.217237E-011	0.0007812	3
	52	315	1.878005	1.249063E+008	-2.095571E+007	1	1.26652E+008	-9.5239	-1.260619E-011	0.0006907	3
	53	320	1.512097	1.318E+008	-1.915976E+007	1	1.331854E+008	-8.271146	-1.210519E-011	0.0007065	3
	54	325	1.201923	1.397696E+008	-1.739274E+007	1	1.408476E+008	-7.093346	-1.234055E-011	0.0006783	3
	55	332	0.956633	1.487214E+008	-1.599817E+007	1	1.495794E+008	-6.139775	-1.592037E-011	6.901485E-005	3
