EXPLAIN
TAG	EISPOT
TITLE	LABEL	Potentiostatic EIS	Test Identifier
DATE	LABEL	8/28/2020	Date
TIME	LABEL	11:22:30	Time
NOTES	NOTES	1	Notes...
	
PSTAT	PSTAT	REF3000-16137	Potentiostat
VDC	POTEN	0.00000E+000	T	DC Voltage (V)
FREQINIT	QUANT	3.00000E+005	Initial Freq. (Hz)
FREQFINAL	QUANT	1.00000E+000	Final Freq. (Hz)
PTSPERDEC	QUANT	1.00000E+001	Points/decade
VAC	QUANT	5.00000E+001	AC Voltage (mV rms)
AREA	QUANT	1.00000E+000	Sample Area (cm^2)
SPEED	SELECTOR	2	Optimize for:
ZGUESS	QUANT	1.00000E+003	Estimated Z (ohms)
EOC	QUANT	0	Open Circuit (V)
SEQUENCER	TOGGLE	TRUE	Run as Sequence
PSTATMODEL	IQUANT	5	Pstat Model
PSTATSECTION	LABEL	REF3000-16137	Pstat Section
PSTATSERIALNO	LABEL	16137	Pstat Serial Number
CTRLMODE	IQUANT	1	Control Mode
IESTAB	IQUANT	0	I/E Stability
CASPEED	IQUANT	1	Control Amp Speed
CONVENTION	IQUANT	1	Current Convention
ICHRANGE	IQUANT	2	Ich Range
ICHRANGEMODE	TOGGLE	F	Ich Auto Range
ICHOFFSETENABLE	TOGGLE	T	Ich Offset Enable
ICHOFFSET	QUANT	0	Ich Offset (V)
ICHFILTER	IQUANT	3	Ich Filter
VCHRANGE	IQUANT	2	Vch Range
VCHRANGEMODE	TOGGLE	F	Vch Auto Range
VCHOFFSETENABLE	TOGGLE	T	Vch Offset Enable
VCHOFFSET	QUANT	0	Vch Offset (V)
VCHFILTER	IQUANT	3	Vch Filter
ACHRANGE	IQUANT	2	Ach Range
ACHOFFSETENABLE	TOGGLE	F	Ach Offset Enable
ACHOFFSET	QUANT	0	Ach Offset (V)
ACHFILTER	IQUANT	3	Ach Filter
IERANGELOWERLIMIT	IQUANT	2	I/E Range Lower Limit
IERANGEMODE	TOGGLE	F	I/E AutoRange
IERANGE	IQUANT	11	I/E Range
POSFEEDENABLE	TOGGLE	F	Positive Feedback IR Comp
POSFEEDRESISTANCE	QUANT	0	Positive Feedback Resistance (ohm)
ACHSELECT	IQUANT	0	Ach Select
CABLEID	IQUANT	13	Cable ID
DCCALDATE	LABEL	7/31/2020	DC Calibration Date
ACCALDATE	LABEL	7/31/2020	AC Calibration Date
THERMOSELECT	IQUANT	1	Thermo Select
FRAMEWORKVERSION	QUANT	6.33	Framework Version
INSTRUMENTVERSION	LABEL	3.50	Instrument Version
COMPLIANCEVOLTAGE	IQUANT	0	Compliance Voltage
ZCURVE	TABLE
	Pt	Time	Freq	Zreal	Zimag	Zsig	Zmod	Zphz	Idc	Vdc	IERange
	#	s	Hz	ohm	ohm	V	ohm	°	A	V	#
	0	14	300046.9	1574.432	-905.0682	1	1816.035	-29.89261	-1.937098E-005	0.0009924	9
	1	30	238359.4	1767.836	-862.4094	1	1966.976	-26.00467	2.059107E-005	-0.001005	9
	2	43	189328.1	1937.037	-794.3671	1	2093.593	-22.29824	2.056559E-005	-0.0004551	9
	3	50	150421.9	2070.855	-709.5564	1	2189.043	-18.91348	1.20071E-007	-0.0018543	9
	4	56	119484.4	2227.09	-548.3008	1	2293.592	-13.83093	-1.224293E-005	0.0142778	8
	5	62	94921.88	2330.967	-466.2422	1	2377.139	-11.31109	-2.057161E-006	-0.0040564	8
	6	69	75421.88	2420.479	-410.506	1	2455.043	-9.6256	1.360278E-005	-0.007986	8
	7	76	59859.37	2508.319	-390.3853	1	2538.516	-8.846328	-2.475541E-005	0.0010149	9
	8	81	47578.12	2571.93	-292.4066	1	2588.499	-6.486194	-2.34819E-005	0.0070702	8
	9	89	37828.12	2645.844	-243.8936	1	2657.062	-5.266634	-6.215194E-007	0.0064947	8
	10	93	30046.88	2704.623	-231.9181	1	2714.548	-4.901054	-2.580544E-005	0.0006446	9
	11	101	23859.38	2762.702	-173.8246	1	2768.165	-3.600209	-2.325562E-005	0.0087949	8
	12	106	18984.38	2810.595	-143.6247	1	2814.262	-2.925337	-1.187376E-006	0.0068131	8
	13	111	15046.87	2881.208	-134.3914	1	2884.34	-2.670576	2.520619E-005	-0.0009732	9
	14	116	11953.13	2915.049	-106.2032	1	2916.983	-2.086519	2.309074E-005	-0.0047187	8
	15	122	9515.62	2963.448	-80.39183	1	2964.538	-1.553928	-2.31427E-005	0.0068894	8
	16	127	7546.875	3011.881	-71.11058	1	3012.72	-1.352503	-2.100561E-006	-0.0042017	8
	17	132	5928.309	3077.181	-58.91965	1	3077.745	-1.096924	-2.476445E-005	0.001051	9
	18	138	4733.456	3122.022	-44.73656	1	3122.343	-0.8209552	1.383587E-005	-0.0081267	8
	19	143	3796.875	3182.405	-43.87543	1	3182.707	-0.78988	-9.949272E-006	0.0090282	8
	20	149	2987.132	3260.668	-44.07213	1	3260.966	-0.7743792	2.946949E-005	-0.0006813	9
	21	154	2390.625	3291.757	-19.12078	1	3291.813	-0.3328095	8.798536E-006	0.0033709	8
	22	159	1884.191	3350.598	-23.96521	1	3350.683	-0.409802	-2.487867E-005	0.0010511	9
	23	165	1516.544	3399.979	-30.0414	1	3400.112	-0.5062385	1.669593E-005	-6.018921E-005	8
	24	170	1193.986	3457.162	-31.11817	1	3457.302	-0.5157096	-2.400939E-005	0.0089751	8
	25	176	946.5144	3547.997	-10.81418	1	3548.014	-0.1746352	9.802082E-008	-0.0005235	9
	26	179	751.7689	3581.365	-16.45627	1	3581.403	-0.2632706	3.175224E-006	0.0026871	7
	27	182	597.4265	3647.807	1.656544	1	3647.807	0.0260192	-2.414564E-005	0.0072355	8
	28	186	477.4305	3639.214	-37.7793	1	3639.41	-0.594776	-2.921059E-007	0.0006468	8
	29	189	376.6741	3679.46	-39.40675	1	3679.671	-0.6136103	-8.235909E-008	0.0006163	7
	30	192	298.2954	3709.45	-47.91673	1	3709.76	-0.7400756	-7.518083E-008	0.0005737	7
	31	194	237.7717	3740.027	-58.15439	1	3740.479	-0.8908311	-6.434569E-008	0.0006474	7
	32	196	189.0121	3771.43	-71.26884	1	3772.104	-1.082591	-7.357594E-008	0.000648	7
	33	199	150.2404	3804.032	-86.85665	1	3805.024	-1.307995	-5.301945E-008	0.0005661	7
	34	201	119.1737	3836.006	-107.911	1	3837.523	-1.611368	-7.844228E-008	0.000571	7
	35	204	95.0169	3870.925	-131.4549	1	3873.156	-1.944992	-8.569812E-008	0.0006492	7
	36	206	75.60484	3907.448	-161.877	1	3910.799	-2.372283	-8.620342E-008	0.0005768	7
	37	209	54.50582	3948.364	-216.8094	1	3954.312	-3.143023	-5.885082E-008	0.0006427	7
	38	211	45.95588	3985.709	-254.2209	1	3993.808	-3.64956	-2.600292E-008	0.0006428	7
	39	214	37.20238	4021.738	-307.1996	1	4033.453	-4.368044	7.616527E-009	0.0006492	7
	40	216	30.04808	4065.471	-373.8489	1	4082.624	-5.253978	-2.297741E-008	0.0006457	7
	41	218	23.91582	4107.686	-459.0988	1	4133.262	-6.377243	-2.694511E-008	0.0005648	7
	42	221	18.60119	4164.475	-580.541	1	4204.745	-7.936068	1.092482E-007	0.0006018	7
	43	223	15.02404	4212.518	-706.8837	1	4271.416	-9.5258	-2.228657E-007	0.0006571	7
	44	225	12.01923	4261.808	-851.3361	1	4346.007	-11.29668	4.310514E-008	0.0006281	7
	45	228	9.450605	4315.165	-1067.38	1	4445.216	-13.89355	-1.657659E-007	0.0005999	7
	46	230	7.512019	4384.494	-1326.049	1	4580.633	-16.82745	-1.796968E-007	0.000638	7
	47	233	5.978954	4481.694	-1628.819	1	4768.504	-19.97308	-8.237809E-008	0.0006218	7
	48	236	4.734848	4578.877	-2016.613	1	5003.284	-23.76948	-1.011809E-007	0.0005463	7
	49	239	3.75601	4702.953	-2488.534	1	5320.768	-27.88524	-4.583242E-008	0.0005797	7
	50	243	3.004808	4842.602	-3051.084	1	5723.627	-32.21301	-4.436492E-008	0.0005378	7
	51	247	2.372217	5025.405	-3782.621	1	6289.906	-36.96877	-7.787874E-008	0.0005401	7
	52	251	1.878005	5234.208	-4682.463	1	7022.991	-41.81545	-6.137062E-008	0.0006126	7
	53	255	1.512097	5488.99	-5693.806	1	7908.757	-46.04927	-6.94011E-008	0.0005392	7
	54	261	1.201923	5807.867	-7035.733	1	9123.204	-50.46096	-6.720864E-008	0.0006283	7
	55	267	0.956633	6201.811	-8661.588	1	10652.96	-54.39684	-7.433083E-008	-3.188513E-005	7
