EXPLAIN
TAG	EISPOT
TITLE	LABEL	Potentiostatic EIS	Test Identifier
DATE	LABEL	8/28/2020	Date
TIME	LABEL	10:26:46	Time
NOTES	NOTES	1	Notes...
	
PSTAT	PSTAT	REF3000-16137	Potentiostat
VDC	POTEN	0.00000E+000	T	DC Voltage (V)
FREQINIT	QUANT	3.00000E+005	Initial Freq. (Hz)
FREQFINAL	QUANT	1.00000E+000	Final Freq. (Hz)
PTSPERDEC	QUANT	1.00000E+001	Points/decade
VAC	QUANT	5.00000E+001	AC Voltage (mV rms)
AREA	QUANT	1.00000E+000	Sample Area (cm^2)
SPEED	SELECTOR	2	Optimize for:
ZGUESS	QUANT	1.00000E+003	Estimated Z (ohms)
EOC	QUANT	0	Open Circuit (V)
SEQUENCER	TOGGLE	TRUE	Run as Sequence
PSTATMODEL	IQUANT	5	Pstat Model
PSTATSECTION	LABEL	REF3000-16137	Pstat Section
PSTATSERIALNO	LABEL	16137	Pstat Serial Number
CTRLMODE	IQUANT	1	Control Mode
IESTAB	IQUANT	0	I/E Stability
CASPEED	IQUANT	1	Control Amp Speed
CONVENTION	IQUANT	1	Current Convention
ICHRANGE	IQUANT	2	Ich Range
ICHRANGEMODE	TOGGLE	F	Ich Auto Range
ICHOFFSETENABLE	TOGGLE	T	Ich Offset Enable
ICHOFFSET	QUANT	0	Ich Offset (V)
ICHFILTER	IQUANT	3	Ich Filter
VCHRANGE	IQUANT	2	Vch Range
VCHRANGEMODE	TOGGLE	F	Vch Auto Range
VCHOFFSETENABLE	TOGGLE	T	Vch Offset Enable
VCHOFFSET	QUANT	0	Vch Offset (V)
VCHFILTER	IQUANT	3	Vch Filter
ACHRANGE	IQUANT	2	Ach Range
ACHOFFSETENABLE	TOGGLE	F	Ach Offset Enable
ACHOFFSET	QUANT	0	Ach Offset (V)
ACHFILTER	IQUANT	3	Ach Filter
IERANGELOWERLIMIT	IQUANT	2	I/E Range Lower Limit
IERANGEMODE	TOGGLE	F	I/E AutoRange
IERANGE	IQUANT	11	I/E Range
POSFEEDENABLE	TOGGLE	F	Positive Feedback IR Comp
POSFEEDRESISTANCE	QUANT	0	Positive Feedback Resistance (ohm)
ACHSELECT	IQUANT	0	Ach Select
CABLEID	IQUANT	13	Cable ID
DCCALDATE	LABEL	7/31/2020	DC Calibration Date
ACCALDATE	LABEL	7/31/2020	AC Calibration Date
THERMOSELECT	IQUANT	1	Thermo Select
FRAMEWORKVERSION	QUANT	6.33	Framework Version
INSTRUMENTVERSION	LABEL	3.50	Instrument Version
COMPLIANCEVOLTAGE	IQUANT	0	Compliance Voltage
ZCURVE	TABLE
	Pt	Time	Freq	Zreal	Zimag	Zsig	Zmod	Zphz	Idc	Vdc	IERange
	#	s	Hz	ohm	ohm	V	ohm	°	A	V	#
	0	8	300046.9	10.02719	1.115404	1	10.08903	6.347373	5.090853E-005	0.0002151	10
	1	11	238359.4	10.05273	0.8877737	1	10.09185	5.046797	-1.86895E-005	0.0002298	10
	2	14	189328.1	10.06742	0.6909771	1	10.09111	3.926336	3.45929E-005	0.0003931	10
	3	17	150421.9	10.08035	0.5326061	1	10.09441	3.024472	1.72514E-005	0.0004403	10
	4	19	119484.4	10.10301	0.3858393	1	10.11037	2.187093	5.11396E-005	0.0002819	10
	5	22	94921.88	10.124	0.2898395	1	10.12814	1.639871	-1.049429E-005	0.0005551	10
	6	24	75421.88	10.14345	0.1749752	1	10.14495	0.988258	-1.982552E-005	0.0006619	10
	7	27	59859.37	10.16666	0.0704098	1	10.16691	0.3967991	-2.410332E-005	0.00065	10
	8	29	47578.12	10.192	-0.0242314	1	10.19203	-0.13622	-3.092547E-006	0.000602	10
	9	32	37828.12	10.2189	-0.1162544	1	10.21957	-0.6517918	1.802919E-005	0.0005823	10
	10	34	30046.88	10.24617	-0.2117119	1	10.24836	-1.183707	2.010477E-005	0.0006453	10
	11	37	23859.38	10.27568	-0.3157712	1	10.28053	-1.760143	-1.921664E-005	0.0007047	10
	12	39	18984.38	10.3049	-0.4325006	1	10.31397	-2.403315	2.129958E-005	0.0006557	10
	13	42	15046.87	10.33695	-0.5702077	1	10.35266	-3.157355	1.721788E-005	0.0006184	10
	14	44	11953.13	10.37394	-0.7336819	1	10.39985	-4.045424	1.759363E-005	0.0006001	10
	15	46	9515.62	10.41347	-0.9272456	1	10.45467	-5.088362	-2.243672E-005	0.0007062	10
	16	49	7546.875	10.45772	-1.166293	1	10.52256	-6.363593	2.196513E-005	0.0006139	10
	17	51	5928.309	10.5123	-1.475152	1	10.6153	-7.987946	-1.815428E-005	0.0006552	10
	18	53	4733.456	10.56994	-1.828627	1	10.72696	-9.81516	-1.778559E-005	0.0006504	10
	19	55	3796.875	10.63588	-2.253014	1	10.87189	-11.96025	2.161825E-005	0.0006649	10
	20	58	2987.132	10.72264	-2.821244	1	11.08758	-14.74105	-1.22048E-005	0.0006422	10
	21	60	2390.625	10.81622	-3.478575	1	11.36182	-17.82817	-8.469145E-006	0.0006465	10
	22	62	1884.191	10.93862	-4.343266	1	11.76934	-21.65595	-5.118651E-006	0.0006791	10
	23	65	1516.544	11.07395	-5.313481	1	12.28273	-25.63254	1.761778E-005	0.0006034	10
	24	67	1193.986	11.25657	-6.638986	1	13.06853	-30.53159	-1.83509E-005	0.000652	10
	25	70	946.5144	11.482	-8.238769	1	14.13201	-35.66087	-2.398586E-005	0.0007145	10
	26	72	751.7689	11.75503	-10.20156	1	15.56447	-40.95297	1.109377E-005	0.0006047	10
	27	74	597.4265	12.103	-12.61808	1	17.48424	-46.19364	-5.527161E-006	0.0006194	10
	28	77	477.4305	12.53627	-15.53209	1	19.96006	-51.09229	-2.283037E-006	0.00065	10
	29	79	376.6741	13.12511	-19.32495	1	23.36069	-55.81646	-2.870706E-006	0.0006497	10
	30	81	298.2954	13.8728	-23.94059	1	27.66959	-59.90908	-2.6129E-006	0.0006551	10
	31	83	237.7717	14.81286	-29.45839	1	32.97298	-63.30492	-3.03664E-006	0.0006944	10
	32	86	189.0121	16.02777	-36.28907	1	39.67097	-66.17043	-2.657337E-006	0.0006556	10
	33	88	150.2404	17.55999	-44.58888	1	47.92204	-68.50449	1.292633E-006	5.940018E-005	9
	34	91	119.1737	19.54358	-54.87532	1	58.25163	-70.39689	1.346534E-006	5.519123E-005	9
	35	93	95.0169	21.97582	-67.12579	1	70.63149	-71.87245	1.349264E-006	5.012016E-005	9
	36	96	75.60484	25.00996	-82.15372	1	85.87626	-73.06824	1.300598E-006	5.496314E-005	9
	37	98	54.50582	30.5625	-109.5129	1	113.6976	-74.40681	1.1775E-006	4.41464E-005	9
	38	101	45.95588	34.14795	-127.1831	1	131.6875	-74.97086	1.356608E-006	7.364211E-005	9
	39	103	37.20238	39.35311	-153.039	1	158.0177	-75.57915	1.068722E-006	8.636266E-005	9
	40	105	30.04808	45.65484	-184.5545	1	190.1177	-76.1052	1.268218E-006	5.056571E-005	9
	41	108	23.91582	53.85292	-225.5598	1	231.8994	-76.57188	1.33208E-006	4.893158E-005	9
	42	110	18.60119	65.04958	-281.2847	1	288.7083	-76.97875	1.142642E-006	5.639214E-005	9
	43	112	15.02404	77.0078	-339.3526	1	347.9804	-77.21465	1.432291E-006	4.872343E-005	9
	44	115	12.01923	92.36706	-413.1472	1	423.3466	-77.39766	1.236771E-006	5.192621E-005	9
	45	117	9.450605	112.6736	-508.1994	1	520.5401	-77.49908	4.868838E-007	0.0006386	8
	46	120	7.512019	137.2891	-621.4483	1	636.4325	-77.54242	4.997479E-007	0.000651	8
	47	122	5.978954	168.4341	-758.9908	1	777.4555	-77.48777	3.990176E-007	0.0006376	8
	48	125	4.734848	208.5023	-931.072	1	954.132	-77.37755	4.838537E-007	0.0006473	8
	49	129	3.75601	258.5861	-1137.993	1	1167.003	-77.19807	3.762426E-007	0.000631	8
	50	132	3.004808	319.6351	-1379.18	1	1415.734	-76.95164	4.546893E-007	0.0006305	8
	51	136	2.372217	403.3488	-1687.642	1	1735.173	-76.55838	4.568792E-007	0.0006718	8
	52	140	1.878005	505.7119	-2065.142	1	2126.16	-76.24019	3.893713E-007	0.0006322	8
	53	145	1.512097	619.4011	-2478.618	1	2554.839	-75.96927	4.391078E-007	0.0005921	8
	54	150	1.201923	780.481	-3016.559	1	3115.891	-75.49384	4.042587E-007	0.0006187	8
	55	156	0.956633	975.456	-3653.059	1	3781.052	-75.04944	4.070335E-007	2.786478E-006	8
