EXPLAIN
TAG	EISPOT
TITLE	LABEL	Potentiostatic EIS	Test Identifier
DATE	LABEL	8/28/2020	Date
TIME	LABEL	10:12:48	Time
NOTES	NOTES	1	Notes...
	
PSTAT	PSTAT	REF3000-16137	Potentiostat
VDC	POTEN	0.00000E+000	T	DC Voltage (V)
FREQINIT	QUANT	3.00000E+005	Initial Freq. (Hz)
FREQFINAL	QUANT	1.00000E+000	Final Freq. (Hz)
PTSPERDEC	QUANT	1.00000E+001	Points/decade
VAC	QUANT	5.00000E+001	AC Voltage (mV rms)
AREA	QUANT	1.00000E+000	Sample Area (cm^2)
SPEED	SELECTOR	2	Optimize for:
ZGUESS	QUANT	1.00000E+003	Estimated Z (ohms)
EOC	QUANT	0	Open Circuit (V)
SEQUENCER	TOGGLE	TRUE	Run as Sequence
PSTATMODEL	IQUANT	5	Pstat Model
PSTATSECTION	LABEL	REF3000-16137	Pstat Section
PSTATSERIALNO	LABEL	16137	Pstat Serial Number
CTRLMODE	IQUANT	1	Control Mode
IESTAB	IQUANT	0	I/E Stability
CASPEED	IQUANT	1	Control Amp Speed
CONVENTION	IQUANT	1	Current Convention
ICHRANGE	IQUANT	2	Ich Range
ICHRANGEMODE	TOGGLE	F	Ich Auto Range
ICHOFFSETENABLE	TOGGLE	T	Ich Offset Enable
ICHOFFSET	QUANT	0	Ich Offset (V)
ICHFILTER	IQUANT	3	Ich Filter
VCHRANGE	IQUANT	2	Vch Range
VCHRANGEMODE	TOGGLE	F	Vch Auto Range
VCHOFFSETENABLE	TOGGLE	T	Vch Offset Enable
VCHOFFSET	QUANT	0	Vch Offset (V)
VCHFILTER	IQUANT	3	Vch Filter
ACHRANGE	IQUANT	2	Ach Range
ACHOFFSETENABLE	TOGGLE	F	Ach Offset Enable
ACHOFFSET	QUANT	0	Ach Offset (V)
ACHFILTER	IQUANT	3	Ach Filter
IERANGELOWERLIMIT	IQUANT	2	I/E Range Lower Limit
IERANGEMODE	TOGGLE	F	I/E AutoRange
IERANGE	IQUANT	11	I/E Range
POSFEEDENABLE	TOGGLE	F	Positive Feedback IR Comp
POSFEEDRESISTANCE	QUANT	0	Positive Feedback Resistance (ohm)
ACHSELECT	IQUANT	0	Ach Select
CABLEID	IQUANT	13	Cable ID
DCCALDATE	LABEL	7/31/2020	DC Calibration Date
ACCALDATE	LABEL	7/31/2020	AC Calibration Date
THERMOSELECT	IQUANT	1	Thermo Select
FRAMEWORKVERSION	QUANT	6.33	Framework Version
INSTRUMENTVERSION	LABEL	3.50	Instrument Version
COMPLIANCEVOLTAGE	IQUANT	0	Compliance Voltage
ZCURVE	TABLE
	Pt	Time	Freq	Zreal	Zimag	Zsig	Zmod	Zphz	Idc	Vdc	IERange
	#	s	Hz	ohm	ohm	V	ohm	°	A	V	#
	0	10	300046.9	5.828779	1.200749	1	5.951173	11.6403	-4.15919E-005	0.0002432	10
	1	13	238359.4	5.820735	0.9346743	1	5.895301	9.12249	1.386872E-005	6.472016E-006	10
	2	17	189328.1	5.821448	0.7264999	1	5.866605	7.113571	1.426682E-005	0.0002687	10
	3	19	150421.9	5.816296	0.5561031	1	5.84282	5.461517	-4.940974E-005	0.0003943	10
	4	22	119484.4	5.830747	0.4130126	1	5.845356	4.051697	-4.699959E-005	0.0005006	10
	5	24	94921.88	5.84099	0.3135038	1	5.849397	3.072292	6.092386E-006	0.0004959	10
	6	27	75421.88	5.846282	0.2011538	1	5.849742	1.970606	1.756055E-005	0.0005214	10
	7	29	59859.37	5.855216	0.0986964	1	5.856048	0.965695	-4.913333E-006	0.0005455	10
	8	32	47578.12	5.866488	0.003971	1	5.866489	0.0387836	2.111653E-005	0.0005804	10
	9	34	37828.12	5.880274	-0.0875373	1	5.880926	-0.8528765	-2.492819E-005	0.0006701	10
	10	37	30046.88	5.895288	-0.1812013	1	5.898073	-1.760525	-1.258385E-005	0.000641	10
	11	39	23859.38	5.911522	-0.281269	1	5.91821	-2.724066	-1.517074E-005	0.0006827	10
	12	42	18984.38	5.928826	-0.3923357	1	5.941793	-3.785986	9.326446E-006	0.0006587	10
	13	44	15046.87	5.947862	-0.5228208	1	5.970796	-5.023424	1.974125E-005	0.0006348	10
	14	46	11953.13	5.971085	-0.6757134	1	6.009197	-6.456367	4.649505E-006	0.0006159	10
	15	48	9515.62	5.997289	-0.8581743	1	6.058377	-8.143385	2.045212E-005	0.0006384	10
	16	51	7546.875	6.028824	-1.083624	1	6.125436	-10.18957	-2.055937E-005	0.0006521	10
	17	53	5928.309	6.067553	-1.37176	1	6.220685	-12.73934	9.355356E-006	0.0006053	10
	18	55	4733.456	6.111769	-1.702849	1	6.344558	-15.56879	-2.768381E-005	0.00067	10
	19	58	3796.875	6.163425	-2.098592	1	6.510906	-18.80326	8.85698E-006	0.0006186	10
	20	60	2987.132	6.231077	-2.634438	1	6.7651	-22.91817	2.100365E-005	0.0006367	10
	21	62	2390.625	6.309338	-3.248905	1	7.096698	-27.24557	-9.502481E-006	0.0006522	10
	22	65	1884.191	6.414561	-4.059862	1	7.591382	-32.33027	2.060207E-005	0.0006342	10
	23	67	1516.544	6.535482	-4.972775	1	8.212249	-37.2671	1.995295E-005	0.0006237	10
	24	69	1193.986	6.704016	-6.213969	1	9.140965	-42.82751	1.501631E-005	0.0006147	10
	25	72	946.5144	6.909567	-7.71555	1	10.35721	-48.15435	1.615466E-005	0.0006164	10
	26	74	751.7689	7.180283	-9.54797	1	11.94656	-53.05604	1.779285E-005	0.0006465	10
	27	76	597.4265	7.53049	-11.79837	1	13.99678	-57.45132	1.020824E-005	0.0006191	10
	28	79	477.4305	7.962348	-14.50257	1	16.54459	-61.23188	-3.013837E-006	0.0006612	10
	29	81	376.6741	8.556326	-18.0099	1	19.93909	-64.58807	-2.80989E-006	0.0006606	10
	30	83	298.2954	9.312311	-22.26014	1	24.1295	-67.29848	-2.685817E-006	0.0006609	10
	31	86	237.7717	10.25348	-27.31505	1	29.17612	-69.42495	-2.498057E-006	0.0006607	10
	32	88	189.0121	11.45348	-33.54145	1	35.44306	-71.14639	-2.898327E-006	0.0006895	10
	33	91	150.2404	12.93511	-41.08463	1	43.07278	-72.52388	1.263919E-006	5.445232E-005	9
	34	93	119.1737	14.80316	-50.41156	1	52.54007	-73.63533	1.322118E-006	4.871685E-005	9
	35	95	95.0169	17.03698	-61.53081	1	63.8459	-74.52337	1.188677E-006	5.724056E-005	9
	36	98	75.60484	19.77747	-75.1993	1	77.75655	-75.26486	1.158421E-006	5.325177E-005	9
	37	100	54.50582	24.76088	-100.2143	1	103.228	-76.12137	1.096454E-006	5.410707E-005	9
	38	103	45.95588	27.99135	-116.4165	1	119.7344	-76.48035	1.305207E-006	5.604859E-005	9
	39	105	37.20238	32.74293	-140.1611	1	143.9349	-76.85099	1.189612E-006	5.749576E-005	9
	40	108	30.04808	38.60759	-169.1628	1	173.5126	-77.14374	1.172262E-006	5.943916E-005	9
	41	110	23.91582	46.39296	-206.8552	1	211.9938	-77.35902	1.242244E-006	4.615037E-005	9
	42	112	18.60119	57.22093	-257.9051	1	264.1766	-77.49052	1.316457E-006	6.053299E-005	9
	43	115	15.02404	68.82166	-311.2184	1	318.737	-77.5305	1.349173E-006	6.671798E-005	9
	44	117	12.01923	83.91087	-378.5464	1	387.735	-77.50156	1.107004E-006	4.837169E-005	9
	45	120	9.450605	104.203	-465.0896	1	476.62	-77.37147	4.319762E-007	0.0006458	8
	46	122	7.512019	129.3369	-567.8718	1	582.4142	-77.16934	4.952164E-007	0.0006456	8
	47	125	5.978954	160.7292	-691.9965	1	710.4175	-76.92384	4.762937E-007	0.0006381	8
	48	128	4.734848	202.2119	-846.6506	1	870.4636	-76.56726	4.282109E-007	0.0006469	8
	49	131	3.75601	254.1775	-1031.978	1	1062.82	-76.16339	4.206281E-007	0.0006323	8
	50	134	3.004808	317.2717	-1246.869	1	1286.602	-75.72379	3.639636E-007	0.0006789	8
	51	138	2.372217	401.4623	-1521.673	1	1573.741	-75.22046	3.980366E-007	0.0006968	8
	52	142	1.878005	510.032	-1849.151	1	1918.2	-74.5801	3.955014E-007	0.0006152	8
	53	147	1.512097	636.0021	-2210.021	1	2299.716	-73.94519	4.039101E-007	0.0007168	8
	54	153	1.201923	801.0168	-2673.601	1	2791.016	-73.32166	4.068031E-007	0.0006092	8
	55	159	0.956633	1010.122	-3221.049	1	3375.723	-72.58856	3.431706E-007	3.685464E-007	8
