EXPLAIN
TAG	EISPOT
TITLE	LABEL	Potentiostatic EIS	Test Identifier
DATE	LABEL	8/28/2020	Date
TIME	LABEL	10:24:00	Time
NOTES	NOTES	1	Notes...
	
PSTAT	PSTAT	REF3000-16137	Potentiostat
VDC	POTEN	0.00000E+000	T	DC Voltage (V)
FREQINIT	QUANT	3.00000E+005	Initial Freq. (Hz)
FREQFINAL	QUANT	1.00000E+000	Final Freq. (Hz)
PTSPERDEC	QUANT	1.00000E+001	Points/decade
VAC	QUANT	5.00000E+001	AC Voltage (mV rms)
AREA	QUANT	1.00000E+000	Sample Area (cm^2)
SPEED	SELECTOR	2	Optimize for:
ZGUESS	QUANT	1.00000E+003	Estimated Z (ohms)
EOC	QUANT	0	Open Circuit (V)
SEQUENCER	TOGGLE	TRUE	Run as Sequence
PSTATMODEL	IQUANT	5	Pstat Model
PSTATSECTION	LABEL	REF3000-16137	Pstat Section
PSTATSERIALNO	LABEL	16137	Pstat Serial Number
CTRLMODE	IQUANT	1	Control Mode
IESTAB	IQUANT	0	I/E Stability
CASPEED	IQUANT	1	Control Amp Speed
CONVENTION	IQUANT	1	Current Convention
ICHRANGE	IQUANT	2	Ich Range
ICHRANGEMODE	TOGGLE	F	Ich Auto Range
ICHOFFSETENABLE	TOGGLE	T	Ich Offset Enable
ICHOFFSET	QUANT	0	Ich Offset (V)
ICHFILTER	IQUANT	3	Ich Filter
VCHRANGE	IQUANT	2	Vch Range
VCHRANGEMODE	TOGGLE	F	Vch Auto Range
VCHOFFSETENABLE	TOGGLE	T	Vch Offset Enable
VCHOFFSET	QUANT	0	Vch Offset (V)
VCHFILTER	IQUANT	3	Vch Filter
ACHRANGE	IQUANT	2	Ach Range
ACHOFFSETENABLE	TOGGLE	F	Ach Offset Enable
ACHOFFSET	QUANT	0	Ach Offset (V)
ACHFILTER	IQUANT	3	Ach Filter
IERANGELOWERLIMIT	IQUANT	2	I/E Range Lower Limit
IERANGEMODE	TOGGLE	F	I/E AutoRange
IERANGE	IQUANT	11	I/E Range
POSFEEDENABLE	TOGGLE	F	Positive Feedback IR Comp
POSFEEDRESISTANCE	QUANT	0	Positive Feedback Resistance (ohm)
ACHSELECT	IQUANT	0	Ach Select
CABLEID	IQUANT	13	Cable ID
DCCALDATE	LABEL	7/31/2020	DC Calibration Date
ACCALDATE	LABEL	7/31/2020	AC Calibration Date
THERMOSELECT	IQUANT	1	Thermo Select
FRAMEWORKVERSION	QUANT	6.33	Framework Version
INSTRUMENTVERSION	LABEL	3.50	Instrument Version
COMPLIANCEVOLTAGE	IQUANT	0	Compliance Voltage
ZCURVE	TABLE
	Pt	Time	Freq	Zreal	Zimag	Zsig	Zmod	Zphz	Idc	Vdc	IERange
	#	s	Hz	ohm	ohm	V	ohm	°	A	V	#
	0	8	300046.9	8.884459	1.134634	1	8.956617	7.277847	7.433602E-006	5.149343E-005	10
	1	11	238359.4	8.882228	0.9000863	1	8.927717	5.786353	2.045514E-005	8.049756E-005	10
	2	14	189328.1	8.894449	0.6986002	1	8.921843	4.490985	6.972854E-005	8.828221E-005	10
	3	17	150421.9	8.899556	0.5232987	1	8.914928	3.365148	2.452671E-005	0.0005575	10
	4	19	119484.4	8.92187	0.3932763	1	8.930533	2.523966	-3.032627E-005	0.0004789	10
	5	22	94921.88	8.938367	0.2975459	1	8.943318	1.906593	2.22648E-005	0.0005459	10
	6	25	75421.88	8.953617	0.1831152	1	8.955489	1.171623	-1.840807E-005	0.0005651	10
	7	27	59859.37	8.972093	0.0778738	1	8.97243	0.4972897	2.117626E-005	0.0005625	10
	8	30	47578.12	8.994767	-0.0176531	1	8.994784	-0.1124481	-2.088912E-005	0.0006926	10
	9	32	37828.12	9.017632	-0.1094887	1	9.018296	-0.69563	1.059705E-005	0.000576	10
	10	35	30046.88	9.041202	-0.2041813	1	9.043507	-1.293715	1.770737E-005	0.0006074	10
	11	37	23859.38	9.066571	-0.3073726	1	9.07178	-1.941684	-7.300389E-006	0.0006374	10
	12	39	18984.38	9.093048	-0.422997	1	9.102881	-2.663407	1.582274E-005	0.0006639	10
	13	42	15046.87	9.121635	-0.5591878	1	9.13876	-3.508039	1.752493E-005	0.0006158	10
	14	44	11953.13	9.154333	-0.7210452	1	9.182686	-4.50363	1.933025E-005	0.0006117	10
	15	46	9515.62	9.190152	-0.912151	1	9.235308	-5.668219	-6.66541E-007	0.0006044	10
	16	49	7546.875	9.231265	-1.148818	1	9.302475	-7.093908	-8.498731E-006	0.0006445	10
	17	51	5928.309	9.280709	-1.451115	1	9.393471	-8.886713	1.775461E-005	0.0005999	10
	18	53	4733.456	9.335168	-1.800267	1	9.50717	-10.91537	2.144649E-005	0.0006377	10
	19	56	3796.875	9.399183	-2.218258	1	9.6574	-13.27913	2.290417E-005	0.0006362	10
	20	58	2987.132	9.477913	-2.778497	1	9.87678	-16.33876	1.703744E-005	0.0005944	10
	21	60	2390.625	9.56843	-3.425395	1	10.16308	-19.69681	-8.876877E-006	0.0006486	10
	22	63	1884.191	9.68678	-4.276953	1	10.58896	-23.82264	2.111675E-005	0.0006119	10
	23	65	1516.544	9.81591	-5.237058	1	11.1256	-28.08114	2.108934E-005	0.0006134	10
	24	67	1193.986	9.99526	-6.542524	1	11.94612	-33.20726	1.670875E-005	0.0006018	10
	25	70	946.5144	10.20908	-8.126717	1	13.04871	-38.52077	-2.753947E-005	0.0006507	10
	26	72	751.7689	10.4826	-10.06182	1	14.53014	-43.82665	-1.479214E-005	0.0006835	10
	27	74	597.4265	10.82986	-12.44494	1	16.49734	-48.9695	-1.522561E-005	0.000682	10
	28	77	477.4305	11.26257	-15.30413	1	19.00162	-53.65002	-2.644108E-006	0.0006564	10
	29	79	376.6741	11.85154	-19.03599	1	22.42382	-58.09418	-2.696233E-006	0.0006543	10
	30	81	298.2954	12.60146	-23.57375	1	26.73048	-61.87305	-1.862102E-006	0.0006501	10
	31	84	237.7717	13.54233	-28.99278	1	31.99962	-64.96304	-2.326197E-006	0.0006589	10
	32	86	189.0121	14.75959	-35.69328	1	38.62455	-67.53432	-3.144409E-006	0.0006875	10
	33	88	150.2404	16.28477	-43.82608	1	46.75381	-69.61609	1.327069E-006	5.140516E-005	9
	34	91	119.1737	18.25238	-53.89632	1	56.9031	-71.29095	1.335687E-006	5.446879E-005	9
	35	93	95.0169	20.64955	-65.88745	1	69.04752	-72.59868	1.26015E-006	6.268683E-005	9
	36	96	75.60484	23.62444	-80.59896	1	83.98992	-73.66356	1.193185E-006	6.172786E-005	9
	37	98	54.50582	29.04811	-107.4123	1	111.2708	-74.86716	1.162757E-006	5.077718E-005	9
	38	101	45.95588	32.53457	-124.7424	1	128.9153	-75.3821	1.323721E-006	5.178318E-005	9
	39	103	37.20238	37.59952	-150.1108	1	154.7481	-75.93797	1.376705E-006	4.828703E-005	9
	40	105	30.04808	43.79921	-181.1025	1	186.3236	-76.40421	1.305845E-006	5.602134E-005	9
	41	108	23.91582	51.83406	-221.2736	1	227.2637	-76.816	1.224902E-006	5.04318E-005	9
	42	110	18.60119	62.94011	-276.0378	1	283.1225	-77.15543	1.405512E-006	5.557183E-005	9
	43	113	15.02404	74.68333	-333.1722	1	341.44	-77.36552	1.518443E-006	6.248597E-005	9
	44	115	12.01923	90.05179	-405.4211	1	415.3018	-77.47682	1.239805E-006	4.842355E-005	9
	45	117	9.450605	110.1577	-498.7394	1	510.7599	-77.54492	3.417001E-007	0.0006458	8
	46	120	7.512019	135.0162	-610.0145	1	624.7776	-77.51977	3.563933E-007	0.0006383	8
	47	123	5.978954	165.9294	-744.3191	1	762.59	-77.43267	3.734003E-007	0.0006292	8
	48	126	4.734848	206.2082	-912.8077	1	935.8096	-77.27025	4.756315E-007	0.0006574	8
	49	129	3.75601	256.6158	-1115.067	1	1144.214	-77.03989	3.728424E-007	0.0006208	8
	50	132	3.004808	317.5836	-1351.078	1	1387.902	-76.77222	4.463473E-007	0.00061	8
	51	136	2.372217	399.596	-1651.84	1	1699.486	-76.40086	4.317866E-007	0.000632	8
	52	140	1.878005	504.8734	-2018.849	1	2081.021	-75.95945	3.972029E-007	0.0006282	8
	53	145	1.512097	621.4426	-2425.155	1	2503.511	-75.6273	4.276155E-007	0.0005548	8
	54	150	1.201923	782.1838	-2944.953	1	3047.058	-75.12558	4.116354E-007	0.0006321	8
	55	157	0.956633	978.757	-3562.26	1	3694.275	-74.63668	4.073992E-007	-8.799066E-006	8
