EXPLAIN
TAG	EISPOT
TITLE	LABEL	Potentiostatic EIS	Test Identifier
DATE	LABEL	8/28/2020	Date
TIME	LABEL	11:27:06	Time
NOTES	NOTES	1	Notes...
	
PSTAT	PSTAT	REF3000-16137	Potentiostat
VDC	POTEN	0.00000E+000	T	DC Voltage (V)
FREQINIT	QUANT	3.00000E+005	Initial Freq. (Hz)
FREQFINAL	QUANT	1.00000E+000	Final Freq. (Hz)
PTSPERDEC	QUANT	1.00000E+001	Points/decade
VAC	QUANT	5.00000E+001	AC Voltage (mV rms)
AREA	QUANT	1.00000E+000	Sample Area (cm^2)
SPEED	SELECTOR	2	Optimize for:
ZGUESS	QUANT	1.00000E+003	Estimated Z (ohms)
EOC	QUANT	0	Open Circuit (V)
SEQUENCER	TOGGLE	TRUE	Run as Sequence
PSTATMODEL	IQUANT	5	Pstat Model
PSTATSECTION	LABEL	REF3000-16137	Pstat Section
PSTATSERIALNO	LABEL	16137	Pstat Serial Number
CTRLMODE	IQUANT	1	Control Mode
IESTAB	IQUANT	0	I/E Stability
CASPEED	IQUANT	1	Control Amp Speed
CONVENTION	IQUANT	1	Current Convention
ICHRANGE	IQUANT	2	Ich Range
ICHRANGEMODE	TOGGLE	F	Ich Auto Range
ICHOFFSETENABLE	TOGGLE	T	Ich Offset Enable
ICHOFFSET	QUANT	0	Ich Offset (V)
ICHFILTER	IQUANT	3	Ich Filter
VCHRANGE	IQUANT	2	Vch Range
VCHRANGEMODE	TOGGLE	F	Vch Auto Range
VCHOFFSETENABLE	TOGGLE	T	Vch Offset Enable
VCHOFFSET	QUANT	0	Vch Offset (V)
VCHFILTER	IQUANT	3	Vch Filter
ACHRANGE	IQUANT	2	Ach Range
ACHOFFSETENABLE	TOGGLE	F	Ach Offset Enable
ACHOFFSET	QUANT	0	Ach Offset (V)
ACHFILTER	IQUANT	3	Ach Filter
IERANGELOWERLIMIT	IQUANT	2	I/E Range Lower Limit
IERANGEMODE	TOGGLE	F	I/E AutoRange
IERANGE	IQUANT	11	I/E Range
POSFEEDENABLE	TOGGLE	F	Positive Feedback IR Comp
POSFEEDRESISTANCE	QUANT	0	Positive Feedback Resistance (ohm)
ACHSELECT	IQUANT	0	Ach Select
CABLEID	IQUANT	13	Cable ID
DCCALDATE	LABEL	7/31/2020	DC Calibration Date
ACCALDATE	LABEL	7/31/2020	AC Calibration Date
THERMOSELECT	IQUANT	1	Thermo Select
FRAMEWORKVERSION	QUANT	6.33	Framework Version
INSTRUMENTVERSION	LABEL	3.50	Instrument Version
COMPLIANCEVOLTAGE	IQUANT	0	Compliance Voltage
ZCURVE	TABLE
	Pt	Time	Freq	Zreal	Zimag	Zsig	Zmod	Zphz	Idc	Vdc	IERange
	#	s	Hz	ohm	ohm	V	ohm	°	A	V	#
	0	15	300046.9	1822.902	-2317.568	1	2948.575	-51.81288	-1.406495E-005	0.0016425	9
	1	29	238359.4	2346.904	-2465.406	1	3403.848	-46.4106	2.016261E-005	-0.0022261	9
	2	42	189328.1	2836.128	-2702.474	1	3917.523	-43.61764	2.075418E-005	-0.0004195	9
	3	52	150421.9	3423.584	-2680.888	1	4348.343	-38.06324	2.376205E-005	0.0010375	9
	4	59	119484.4	4100.622	-2522.238	1	4814.227	-31.59513	4.785026E-005	-0.0023883	8
	5	67	94921.88	4650.57	-2371.461	1	5220.31	-27.01836	-1.354563E-006	0.0071236	8
	6	74	75421.88	5142.77	-2211.976	1	5598.296	-23.2732	2.094744E-005	-0.0091647	8
	7	82	59859.37	5676.276	-1967.214	1	6007.499	-19.11466	-2.287558E-005	0.0052768	8
	8	89	47578.12	5984.731	-1752.483	1	6236.041	-16.32139	-2.29269E-005	0.0051779	8
	9	97	37828.12	6345.973	-1591.858	1	6542.583	-14.08182	8.50505E-006	0.0037991	8
	10	104	30046.88	6873.2	-837.7293	1	6924.064	-6.949131	-3.652063E-006	0.0225149	7
	11	107	23859.38	6970.302	-712.2675	1	7006.599	-5.834577	3.506659E-006	-0.0219877	7
	12	111	18984.38	7079.293	-609.4937	1	7105.482	-4.920761	6.233507E-006	-0.0232042	7
	13	114	15046.87	7220.029	-502.6983	1	7237.508	-3.982821	6.397503E-006	-0.0143434	7
	14	119	11953.13	7318.533	-400.4007	1	7329.478	-3.13156	3.87554E-006	0.0009325	7
	15	122	9515.62	7436.949	-339.7105	1	7444.704	-2.615381	6.270397E-006	-0.0140782	7
	16	126	7546.875	7548.586	-274.8858	1	7553.59	-2.085535	1.756862E-006	-0.0192625	7
	17	130	5928.309	7654.194	-234.3861	1	7657.782	-1.753959	-6.418255E-006	0.0199414	7
	18	134	4733.456	7777.007	-207.6407	1	7779.779	-1.529394	-4.957507E-007	-0.0129054	7
	19	139	3796.875	7916.845	-179.9411	1	7918.89	-1.302045	6.126851E-006	-0.0228724	7
	20	143	2987.132	8034.414	-129.4739	1	8035.457	-0.9232364	-4.978534E-006	0.0236067	7
	21	147	2390.625	8136.667	-132.2885	1	8137.743	-0.9314506	-3.730006E-006	0.0228497	7
	22	150	1884.191	8232.388	-163.2016	1	8234.005	-1.135702	-1.993943E-006	0.0202818	7
	23	154	1516.544	8363.021	-73.66357	1	8363.345	-0.5046625	4.021319E-006	0.0009628	7
	24	159	1193.986	8513.555	-40.13437	1	8513.649	-0.2701002	6.819907E-006	-0.0207782	7
	25	163	946.5144	8576.123	-120.1715	1	8576.965	-0.8027951	5.030904E-006	-0.0235781	7
	26	166	751.7689	8704.911	10.98969	1	8704.918	0.0723342	-5.857098E-006	0.0097153	7
	27	169	597.4265	8791.474	-19.04004	1	8791.494	-0.1240875	-6.370657E-006	0.0199874	7
	28	171	477.4305	8872.671	-65.44424	1	8872.912	-0.4226022	-7.292496E-008	0.0005668	7
	29	173	376.6741	8950.771	-67.32081	1	8951.024	-0.4309266	-8.664423E-008	0.0006322	7
	30	176	298.2954	9027.785	-73.17751	1	9028.082	-0.4644185	-6.806889E-008	0.0005998	7
	31	178	237.7717	9111.024	-81.46324	1	9111.389	-0.5122778	-7.202881E-008	0.0005753	7
	32	181	189.0121	9193.064	-92.44615	1	9193.529	-0.5761513	-8.441052E-008	0.0006554	7
	33	183	150.2404	9278.771	-109.4255	1	9279.417	-0.6756634	-7.300219E-008	0.0005702	7
	34	185	119.1737	9366.394	-128.9486	1	9367.281	-0.7887499	-6.854859E-008	0.0005952	7
	35	188	95.0169	9452.649	-155.029	1	9453.921	-0.9396001	-6.808555E-008	0.0006241	7
	36	190	75.60484	9545.79	-186.4692	1	9547.61	-1.119084	-9.187894E-008	0.0006451	7
	37	193	54.50582	9646.55	-248.6064	1	9649.76	-1.476273	-5.266516E-008	0.0005556	7
	38	195	45.95588	9742.86	-287.2179	1	9747.09	-1.688581	-9.307822E-008	0.0005625	7
	39	198	37.20238	9836.74	-344.1802	1	9842.76	-2.00392	-1.064396E-007	0.000575	7
	40	200	30.04808	9933.38	-420.6138	1	9942.28	-2.424654	-8.269525E-008	0.0005596	7
	41	204	23.91582	10067.29	-513.6005	1	10080.38	-2.920513	-1.234379E-007	0.0006533	7
	42	206	18.60119	10168.21	-643.9088	1	10188.58	-3.623455	-1.561954E-007	0.0006588	7
	43	208	15.02404	10306.33	-791.6539	1	10336.68	-4.392403	-1.936082E-007	0.0006453	7
	44	210	12.01923	10416.47	-934.3713	1	10458.29	-5.12579	3.23221E-008	0.0006095	7
	45	213	9.450605	10509.43	-1187.301	1	10576.29	-6.445651	-1.624739E-007	0.0006362	7
	46	215	7.512019	10664.56	-1483.104	1	10767.2	-7.917257	-1.368508E-007	0.0005936	7
	47	218	5.978954	10842.72	-1812.335	1	10993.14	-9.489136	-1.086955E-007	0.0006125	7
	48	221	4.734848	11023.99	-2255.009	1	11252.26	-11.56064	-1.261132E-007	0.0005685	7
	49	224	3.75601	11231.93	-2763.761	1	11566.97	-13.82373	-2.82815E-008	0.0005852	7
	50	228	3.004808	11500.11	-3386.28	1	11988.31	-16.40739	-3.36134E-008	0.0005471	7
	51	232	2.372217	11783.9	-4167.367	1	12499.09	-19.47611	-7.305514E-008	0.0005289	7
	52	236	1.878005	12126.73	-5170.721	1	13183.09	-23.09294	-6.528219E-008	0.0006133	7
	53	241	1.512097	12524.69	-6292.837	1	14016.69	-26.67654	-6.947308E-008	0.0005153	7
	54	246	1.201923	13030.94	-7779.739	1	15176.62	-30.83807	-7.547128E-008	0.0006349	7
	55	252	0.956633	13618.24	-9599.47	1	16661.52	-35.17992	-8.198484E-008	-3.324742E-005	7
