EXPLAIN
TAG	EISPOT
TITLE	LABEL	Potentiostatic EIS	Test Identifier
DATE	LABEL	8/28/2020	Date
TIME	LABEL	11:46:35	Time
NOTES	NOTES	1	Notes...
	
PSTAT	PSTAT	REF3000-16137	Potentiostat
VDC	POTEN	0.00000E+000	T	DC Voltage (V)
FREQINIT	QUANT	3.00000E+005	Initial Freq. (Hz)
FREQFINAL	QUANT	1.00000E+000	Final Freq. (Hz)
PTSPERDEC	QUANT	1.00000E+001	Points/decade
VAC	QUANT	5.00000E+001	AC Voltage (mV rms)
AREA	QUANT	1.00000E+000	Sample Area (cm^2)
SPEED	SELECTOR	2	Optimize for:
ZGUESS	QUANT	1.00000E+003	Estimated Z (ohms)
EOC	QUANT	0	Open Circuit (V)
SEQUENCER	TOGGLE	TRUE	Run as Sequence
PSTATMODEL	IQUANT	5	Pstat Model
PSTATSECTION	LABEL	REF3000-16137	Pstat Section
PSTATSERIALNO	LABEL	16137	Pstat Serial Number
CTRLMODE	IQUANT	1	Control Mode
IESTAB	IQUANT	0	I/E Stability
CASPEED	IQUANT	1	Control Amp Speed
CONVENTION	IQUANT	1	Current Convention
ICHRANGE	IQUANT	2	Ich Range
ICHRANGEMODE	TOGGLE	F	Ich Auto Range
ICHOFFSETENABLE	TOGGLE	T	Ich Offset Enable
ICHOFFSET	QUANT	0	Ich Offset (V)
ICHFILTER	IQUANT	3	Ich Filter
VCHRANGE	IQUANT	2	Vch Range
VCHRANGEMODE	TOGGLE	F	Vch Auto Range
VCHOFFSETENABLE	TOGGLE	T	Vch Offset Enable
VCHOFFSET	QUANT	0	Vch Offset (V)
VCHFILTER	IQUANT	3	Vch Filter
ACHRANGE	IQUANT	2	Ach Range
ACHOFFSETENABLE	TOGGLE	F	Ach Offset Enable
ACHOFFSET	QUANT	0	Ach Offset (V)
ACHFILTER	IQUANT	3	Ach Filter
IERANGELOWERLIMIT	IQUANT	2	I/E Range Lower Limit
IERANGEMODE	TOGGLE	F	I/E AutoRange
IERANGE	IQUANT	11	I/E Range
POSFEEDENABLE	TOGGLE	F	Positive Feedback IR Comp
POSFEEDRESISTANCE	QUANT	0	Positive Feedback Resistance (ohm)
ACHSELECT	IQUANT	0	Ach Select
CABLEID	IQUANT	13	Cable ID
DCCALDATE	LABEL	7/31/2020	DC Calibration Date
ACCALDATE	LABEL	7/31/2020	AC Calibration Date
THERMOSELECT	IQUANT	1	Thermo Select
FRAMEWORKVERSION	QUANT	6.33	Framework Version
INSTRUMENTVERSION	LABEL	3.50	Instrument Version
COMPLIANCEVOLTAGE	IQUANT	0	Compliance Voltage
ZCURVE	TABLE
	Pt	Time	Freq	Zreal	Zimag	Zsig	Zmod	Zphz	Idc	Vdc	IERange
	#	s	Hz	ohm	ohm	V	ohm	°	A	V	#
	0	14	300046.9	53.49104	-4395.655	1	4395.98	-89.3028	8.399999E-005	-0.0036756	9
	1	28	238359.4	-62.17489	-5207.481	1	5207.853	-90.68405	-2.745439E-005	-0.0011747	9
	2	45	189328.1	300.8033	-6769.709	1	6776.389	-87.45581	-6.002574E-005	0.000457	9
	3	53	150421.9	-16.03558	-8080.111	1	8080.127	-90.11371	-2.721741E-005	-0.0010351	9
	4	60	119484.4	669.7079	-10449.72	1	10471.16	-86.33301	-1.80651E-005	0.0171067	8
	5	68	94921.88	836.6223	-13140.68	1	13167.29	-86.35709	2.317629E-005	-0.0028369	8
	6	76	75421.88	1141.44	-16573.67	1	16612.93	-86.06022	-2.609202E-005	0.0074775	8
	7	85	59859.37	1127.428	-20804.14	1	20834.67	-86.89803	2.735874E-005	-0.0074329	8
	8	94	47578.12	1568.144	-25772.12	1	25819.78	-86.51804	-2.479476E-005	0.0110655	8
	9	102	37828.12	2488.652	-32093.41	1	32189.75	-85.56593	2.570093E-005	-0.0049845	8
	10	111	30046.88	2752.526	-40685.62	1	40778.62	-86.12964	-1.580111E-005	0.0005677	8
	11	121	23859.38	6927.792	-51196.59	1	51663.18	-82.29369	3.454693E-006	-0.0241175	7
	12	126	18984.38	7695.576	-63915.09	1	64376.7	-83.13446	4.900746E-006	-0.0008998	7
	13	131	15046.87	9405.924	-79176.92	1	79733.66	-83.22523	5.293273E-006	-0.0264444	7
	14	137	11953.13	15097.37	-91365.59	1	92604.55	-80.61716	2.641963E-005	-0.0091533	8
	15	144	9515.62	12002.54	-120130	1	120728.1	-84.29435	-2.023001E-005	0.0027105	8
	16	153	7546.875	21804.72	-142164.3	1	143826.7	-81.28011	-9.289071E-006	-0.002205	8
	17	160	5928.309	23083	-139748.3	1	141641.8	-80.62082	-2.385113E-005	0.0052102	8
	18	168	4733.456	34408.08	-258906.1	1	261182.5	-82.42987	5.065452E-007	0.0159288	7
	19	174	3796.875	77522.97	-306683.2	1	316329.5	-75.81401	1.894141E-007	-0.0210654	6
	20	180	2987.132	105103.8	-384809.4	1	398904.9	-74.72329	-4.016995E-007	0.025247	6
	21	185	2390.625	139118.1	-508190.4	1	526888.4	-74.69025	-1.012372E-006	-0.0133467	7
	22	191	1884.191	139452.7	-566460.6	1	583373.6	-76.1698	-6.377549E-007	0.0098421	6
	23	197	1516.544	220262.4	-684871.6	1	719419.7	-72.17163	-2.796362E-007	-0.0071715	6
	24	202	1193.986	164154.6	-938241.2	1	952493	-80.07598	-7.253876E-006	0.0186164	7
	25	210	946.5144	367529.7	-922999.3	1	993482	-68.28802	6.471384E-006	-0.0096809	7
	26	215	751.7689	-562737.9	-841219.6	1	1012089	-123.7807	3.456704E-006	-0.0243529	7
	27	221	597.4265	2213548	-561690.3	1	2283701	-14.23834	-7.195278E-006	0.0235674	7
	28	226	477.4305	990716	-1745921	1	2007426	-60.42743	-7.975714E-008	0.0006442	7
	29	233	376.6741	1629694	-1879778	1	2487864	-49.076	-9.544283E-010	0.0006638	5
	30	235	298.2954	2022534	-2044054	1	2875552	-45.30321	-8.508923E-010	0.0006148	5
	31	239	237.7717	2296568	-2254664	1	3218343	-44.47248	-7.920137E-009	0.0005987	6
	32	243	189.0121	2951859	-2204941	1	3684459	-36.75852	-9.189224E-010	0.000652	5
	33	247	150.2404	3502838	-2168082	1	4119520	-31.75544	-8.617752E-010	0.000581	5
	34	250	119.1737	4217179	-2586139	1	4946991	-31.51825	-9.213496E-010	0.0006859	5
	35	253	95.0169	4317633	-1872984	1	4706381	-23.45114	-9.134488E-010	0.0006692	5
	36	255	75.60484	4633900	-1658525	1	4921761	-19.69287	-9.149393E-010	0.0006748	5
	37	258	54.50582	5068175	-1415808	1	5262215	-15.60785	-9.435162E-010	0.000668	5
	38	262	45.95588	5766910	-598700.4	1	5797903	-5.927015	-1.5617E-010	0.0006746	4
	39	264	37.20238	5866456	-521111.6	1	5889555	-5.076205	-1.465317E-010	0.000621	4
	40	267	30.04808	5926895	-466237.4	1	5945205	-4.497893	-1.23167E-010	0.000707	4
	41	270	23.91582	6005673	-394991.2	1	6018648	-3.762906	-1.337087E-010	0.0006675	4
	42	272	18.60119	6077705	-253064.3	1	6082971	-2.384313	-1.687525E-010	0.0005996	4
	43	275	15.02404	6246302	-267425.7	1	6252024	-2.451533	-1.127234E-010	0.0006124	4
	44	277	12.01923	6351245	-228378.8	1	6355350	-2.059361	-1.132977E-010	0.0005885	4
	45	280	9.450605	6471589	-186017.6	1	6474263	-1.646441	-1.232991E-010	0.0006966	4
	46	282	7.512019	6614131	-168558.7	1	6616278	-1.459846	-1.128538E-010	0.0006367	4
	47	285	5.978954	6806627	-158575.5	1	6808474	-1.334591	-1.299974E-010	0.0006588	4
	48	290	4.734848	7030966	-132322	1	7032211	-1.078173	-1.056208E-010	0.0007025	4
	49	295	3.75601	7295595	-110389.5	1	7296430	-0.8668749	-9.871631E-011	0.0006259	4
	50	300	3.004808	7617835	-106476.1	1	7618579	-0.8007836	-1.08208E-010	0.0006552	4
	51	306	2.372217	7925217	-95708.5	1	7925795	-0.691896	-1.073979E-010	0.0006965	4
	52	311	1.878005	8192571	-86284.3	1	8193025	-0.6034179	-1.206778E-010	0.000617	4
	53	315	1.512097	8502192	-81497.46	1	8502583	-0.5491899	-1.113086E-010	0.0007276	4
	54	321	1.201923	8885714	-79013.41	1	8886065	-0.5094712	-1.236555E-010	0.0006081	4
	55	327	0.956633	9314879	-85014.83	1	9315267	-0.5229113	-1.912659E-010	-9.398141E-007	4
