EXPLAIN
TAG	EISPOT
TITLE	LABEL	Potentiostatic EIS	Test Identifier
DATE	LABEL	8/28/2020	Date
TIME	LABEL	10:51:46	Time
NOTES	NOTES	1	Notes...
	
PSTAT	PSTAT	REF3000-16137	Potentiostat
VDC	POTEN	0.00000E+000	T	DC Voltage (V)
FREQINIT	QUANT	3.00000E+005	Initial Freq. (Hz)
FREQFINAL	QUANT	1.00000E+000	Final Freq. (Hz)
PTSPERDEC	QUANT	1.00000E+001	Points/decade
VAC	QUANT	5.00000E+001	AC Voltage (mV rms)
AREA	QUANT	1.00000E+000	Sample Area (cm^2)
SPEED	SELECTOR	2	Optimize for:
ZGUESS	QUANT	1.00000E+003	Estimated Z (ohms)
EOC	QUANT	0	Open Circuit (V)
SEQUENCER	TOGGLE	TRUE	Run as Sequence
PSTATMODEL	IQUANT	5	Pstat Model
PSTATSECTION	LABEL	REF3000-16137	Pstat Section
PSTATSERIALNO	LABEL	16137	Pstat Serial Number
CTRLMODE	IQUANT	1	Control Mode
IESTAB	IQUANT	0	I/E Stability
CASPEED	IQUANT	1	Control Amp Speed
CONVENTION	IQUANT	1	Current Convention
ICHRANGE	IQUANT	2	Ich Range
ICHRANGEMODE	TOGGLE	F	Ich Auto Range
ICHOFFSETENABLE	TOGGLE	T	Ich Offset Enable
ICHOFFSET	QUANT	0	Ich Offset (V)
ICHFILTER	IQUANT	3	Ich Filter
VCHRANGE	IQUANT	2	Vch Range
VCHRANGEMODE	TOGGLE	F	Vch Auto Range
VCHOFFSETENABLE	TOGGLE	T	Vch Offset Enable
VCHOFFSET	QUANT	0	Vch Offset (V)
VCHFILTER	IQUANT	3	Vch Filter
ACHRANGE	IQUANT	2	Ach Range
ACHOFFSETENABLE	TOGGLE	F	Ach Offset Enable
ACHOFFSET	QUANT	0	Ach Offset (V)
ACHFILTER	IQUANT	3	Ach Filter
IERANGELOWERLIMIT	IQUANT	2	I/E Range Lower Limit
IERANGEMODE	TOGGLE	F	I/E AutoRange
IERANGE	IQUANT	11	I/E Range
POSFEEDENABLE	TOGGLE	F	Positive Feedback IR Comp
POSFEEDRESISTANCE	QUANT	0	Positive Feedback Resistance (ohm)
ACHSELECT	IQUANT	0	Ach Select
CABLEID	IQUANT	13	Cable ID
DCCALDATE	LABEL	7/31/2020	DC Calibration Date
ACCALDATE	LABEL	7/31/2020	AC Calibration Date
THERMOSELECT	IQUANT	1	Thermo Select
FRAMEWORKVERSION	QUANT	6.33	Framework Version
INSTRUMENTVERSION	LABEL	3.50	Instrument Version
COMPLIANCEVOLTAGE	IQUANT	0	Compliance Voltage
ZCURVE	TABLE
	Pt	Time	Freq	Zreal	Zimag	Zsig	Zmod	Zphz	Idc	Vdc	IERange
	#	s	Hz	ohm	ohm	V	ohm	°	A	V	#
	0	7	300046.9	47.20518	1.224143	1	47.22105	1.485483	-3.936392E-006	0.0001511	9
	1	10	238359.4	47.55196	0.952376	1	47.5615	1.147373	5.510502E-005	-0.002263	9
	2	13	189328.1	47.77187	0.6673347	1	47.77653	0.8003241	4.983847E-005	-0.0016043	9
	3	16	150421.9	47.96658	0.4938763	1	47.96912	0.5899113	9.296744E-007	0.000635	9
	4	18	119484.4	48.1408	0.3304602	1	48.14193	0.3932979	7.611875E-006	-0.0006259	9
	5	21	94921.88	48.36477	0.3910874	1	48.36634	0.4632954	-1.349843E-005	0.0005467	9
	6	23	75421.88	48.50545	0.2441472	1	48.50606	0.28839	1.958755E-005	-0.0005557	9
	7	26	59859.37	48.67389	0.1045172	1	48.674	0.1230307	4.824071E-006	-0.0004006	9
	8	28	47578.12	48.84583	-0.0362867	1	48.84585	-0.0425641	-2.706801E-006	-0.0001641	9
	9	31	37828.12	49.02653	-0.1678604	1	49.02682	-0.1961725	1.773268E-005	-0.0005304	9
	10	33	30046.88	49.21905	-0.2879229	1	49.21989	-0.3351666	-1.235757E-005	0.000158	9
	11	36	23859.38	49.39782	-0.4179163	1	49.39959	-0.4847232	1.789719E-005	-0.0002077	9
	12	38	18984.38	49.57871	-0.5602387	1	49.58188	-0.6474138	-1.043105E-005	0.000558	9
	13	41	15046.87	49.75319	-0.7269549	1	49.7585	-0.8371018	1.75659E-005	-0.0005314	9
	14	43	11953.13	49.92922	-0.9142102	1	49.93759	-1.048976	-4.523479E-006	0.0005833	9
	15	45	9515.62	50.14251	-1.151445	1	50.15572	-1.315477	1.624928E-006	-0.000269	9
	16	47	7546.875	50.32535	-1.421165	1	50.34541	-1.617577	-1.088913E-005	0.0005166	9
	17	50	5928.309	50.54426	-1.792601	1	50.57604	-2.031199	9.667557E-006	-0.0004762	9
	18	52	4733.456	50.76475	-2.21739	1	50.81316	-2.501073	-1.431557E-005	0.0003537	9
	19	54	3796.875	50.97023	-2.709095	1	51.04217	-3.042439	1.939755E-005	-0.0002268	9
	20	57	2987.132	51.23476	-3.394	1	51.34705	-3.789969	1.629343E-005	-0.0001464	9
	21	59	2390.625	51.49895	-4.168704	1	51.66739	-4.627852	-1.527377E-005	0.0004417	9
	22	61	1884.191	51.80167	-5.21881	1	52.06389	-5.752908	-1.41166E-005	0.0003512	9
	23	64	1516.544	52.09924	-6.362363	1	52.48629	-6.96249	-1.576131E-005	0.0004309	9
	24	66	1193.986	52.46465	-7.928215	1	53.0603	-8.593255	-1.640486E-005	0.0005339	9
	25	69	946.5144	52.87651	-9.81027	1	53.77887	-10.51067	3.69735E-006	-0.0003397	9
	26	71	751.7689	53.3283	-12.14921	1	54.6947	-12.83403	1.891507E-005	-0.0002484	9
	27	73	597.4265	53.85481	-15.04751	1	55.91751	-15.61083	2.947964E-006	0.000331	9
	28	75	477.4305	54.47709	-18.50174	1	57.53319	-18.75874	1.363676E-006	7.423501E-005	9
	29	78	376.6741	55.237	-23.02936	1	59.84544	-22.63219	1.356378E-006	6.051974E-005	9
	30	80	298.2954	56.14194	-28.56298	1	62.99017	-26.96534	1.394918E-006	5.61447E-005	9
	31	82	237.7717	57.22156	-35.21275	1	67.18813	-31.60713	1.380907E-006	6.184986E-005	9
	32	85	189.0121	58.5529	-43.50726	1	72.9474	-36.6139	1.412248E-006	5.902913E-005	9
	33	87	150.2404	60.20181	-53.74319	1	80.70061	-41.75584	1.349264E-006	5.77664E-005	9
	34	90	119.1737	62.2783	-66.49021	1	91.10178	-46.87343	1.327001E-006	6.207589E-005	9
	35	92	95.0169	64.83906	-81.83405	1	104.4074	-51.60938	1.352E-006	5.903728E-005	9
	36	95	75.60484	68.10937	-100.8436	1	121.6894	-55.96507	1.067571E-006	0.0001058	9
	37	97	54.50582	74.29346	-135.7797	1	154.7761	-61.31421	1.345067E-006	5.438077E-005	9
	38	100	45.95588	78.56496	-158.472	1	176.878	-63.62936	1.355438E-006	5.751723E-005	9
	39	102	37.20238	84.94852	-191.6772	1	209.6578	-66.09779	1.360983E-006	6.171444E-005	9
	40	104	30.04808	92.98031	-232.097	1	250.0287	-68.16848	1.040762E-006	0.0000983	9
	41	107	23.91582	103.6529	-284.3232	1	302.6278	-69.97017	1.450326E-006	6.096273E-005	9
	42	109	18.60119	118.3816	-355.0088	1	374.2265	-71.55847	1.535576E-006	5.889224E-005	9
	43	111	15.02404	133.3253	-426.3997	1	446.7576	-72.63675	2.987995E-007	0.0006294	8
	44	114	12.01923	152.6776	-518.1922	1	540.2162	-73.58318	3.515955E-007	0.0006364	8
	45	116	9.450605	178.0707	-639.3177	1	663.6538	-74.43576	4.011877E-007	0.0006293	8
	46	119	7.512019	207.7936	-780.9114	1	808.0847	-75.09937	3.970676E-007	0.0006509	8
	47	121	5.978954	243.0335	-953.173	1	983.669	-75.6959	3.818628E-007	0.0006435	8
	48	124	4.734848	288.1641	-1169.32	1	1204.303	-76.15603	3.797508E-007	0.0006571	8
	49	128	3.75601	342.2946	-1433.07	1	1473.382	-76.56636	3.717929E-007	0.0006395	8
	50	131	3.004808	406.6665	-1742.246	1	1789.078	-76.86154	3.288737E-007	0.0006767	8
	51	135	2.372217	491.1819	-2144.386	1	2199.921	-77.09869	3.454442E-007	0.0007079	8
	52	139	1.878005	597.8415	-2631.493	1	2698.55	-77.20039	3.434981E-007	0.000632	8
	53	144	1.512097	722.5954	-3177.503	1	3258.63	-77.18826	3.626023E-007	0.0007165	8
	54	149	1.201923	880.1732	-3891.75	1	3990.04	-77.25616	3.54737E-007	0.0006069	8
	55	155	0.956633	1080.214	-4761.739	1	4882.727	-77.21862	9.797433E-009	-2.579315E-005	7
