EXPLAIN
TAG	EISPOT
TITLE	LABEL	Potentiostatic EIS	Test Identifier
DATE	LABEL	8/28/2020	Date
TIME	LABEL	10:29:32	Time
NOTES	NOTES	1	Notes...
	
PSTAT	PSTAT	REF3000-16137	Potentiostat
VDC	POTEN	0.00000E+000	T	DC Voltage (V)
FREQINIT	QUANT	3.00000E+005	Initial Freq. (Hz)
FREQFINAL	QUANT	1.00000E+000	Final Freq. (Hz)
PTSPERDEC	QUANT	1.00000E+001	Points/decade
VAC	QUANT	5.00000E+001	AC Voltage (mV rms)
AREA	QUANT	1.00000E+000	Sample Area (cm^2)
SPEED	SELECTOR	2	Optimize for:
ZGUESS	QUANT	1.00000E+003	Estimated Z (ohms)
EOC	QUANT	0	Open Circuit (V)
SEQUENCER	TOGGLE	TRUE	Run as Sequence
PSTATMODEL	IQUANT	5	Pstat Model
PSTATSECTION	LABEL	REF3000-16137	Pstat Section
PSTATSERIALNO	LABEL	16137	Pstat Serial Number
CTRLMODE	IQUANT	1	Control Mode
IESTAB	IQUANT	0	I/E Stability
CASPEED	IQUANT	1	Control Amp Speed
CONVENTION	IQUANT	1	Current Convention
ICHRANGE	IQUANT	2	Ich Range
ICHRANGEMODE	TOGGLE	F	Ich Auto Range
ICHOFFSETENABLE	TOGGLE	T	Ich Offset Enable
ICHOFFSET	QUANT	0	Ich Offset (V)
ICHFILTER	IQUANT	3	Ich Filter
VCHRANGE	IQUANT	2	Vch Range
VCHRANGEMODE	TOGGLE	F	Vch Auto Range
VCHOFFSETENABLE	TOGGLE	T	Vch Offset Enable
VCHOFFSET	QUANT	0	Vch Offset (V)
VCHFILTER	IQUANT	3	Vch Filter
ACHRANGE	IQUANT	2	Ach Range
ACHOFFSETENABLE	TOGGLE	F	Ach Offset Enable
ACHOFFSET	QUANT	0	Ach Offset (V)
ACHFILTER	IQUANT	3	Ach Filter
IERANGELOWERLIMIT	IQUANT	2	I/E Range Lower Limit
IERANGEMODE	TOGGLE	F	I/E AutoRange
IERANGE	IQUANT	11	I/E Range
POSFEEDENABLE	TOGGLE	F	Positive Feedback IR Comp
POSFEEDRESISTANCE	QUANT	0	Positive Feedback Resistance (ohm)
ACHSELECT	IQUANT	0	Ach Select
CABLEID	IQUANT	13	Cable ID
DCCALDATE	LABEL	7/31/2020	DC Calibration Date
ACCALDATE	LABEL	7/31/2020	AC Calibration Date
THERMOSELECT	IQUANT	1	Thermo Select
FRAMEWORKVERSION	QUANT	6.33	Framework Version
INSTRUMENTVERSION	LABEL	3.50	Instrument Version
COMPLIANCEVOLTAGE	IQUANT	0	Compliance Voltage
ZCURVE	TABLE
	Pt	Time	Freq	Zreal	Zimag	Zsig	Zmod	Zphz	Idc	Vdc	IERange
	#	s	Hz	ohm	ohm	V	ohm	°	A	V	#
	0	8	300046.9	11.46595	1.102956	1	11.51887	5.494607	2.192212E-005	0.0001371	10
	1	11	238359.4	11.46365	0.8702146	1	11.49663	4.341043	2.575351E-005	0.0003329	10
	2	14	189328.1	11.48711	0.6748371	1	11.50691	3.362112	-3.187542E-005	0.0003163	10
	3	17	150421.9	11.51834	0.5100339	1	11.52962	2.53541	-8.011662E-005	0.0006165	10
	4	19	119484.4	11.53196	0.3754998	1	11.53807	1.864987	-0.0000972	0.0005573	10
	5	22	94921.88	11.55558	0.2796671	1	11.55897	1.386397	-2.623647E-005	0.000635	10
	6	24	75421.88	11.57893	0.1655086	1	11.58012	0.8189266	-3.582429E-006	0.0006553	10
	7	27	59859.37	11.60765	0.0613202	1	11.60782	0.3026758	-3.168426E-006	0.00067	10
	8	29	47578.12	11.6383	-0.0322712	1	11.63834	-0.1588719	2.332393E-005	0.0006184	10
	9	32	37828.12	11.6693	-0.1236606	1	11.66995	-0.6071457	4.102471E-006	0.0005841	10
	10	34	30046.88	11.70126	-0.2194608	1	11.70332	-1.074474	-3.008301E-005	0.0006315	10
	11	37	23859.38	11.73438	-0.3250431	1	11.73888	-1.586692	-3.071189E-005	0.0006395	10
	12	39	18984.38	11.76797	-0.4427478	1	11.7763	-2.15463	1.695922E-005	0.0005959	10
	13	41	15046.87	11.8026	-0.582608	1	11.81697	-2.825979	1.799821E-005	0.0006218	10
	14	44	11953.13	11.84504	-0.7470523	1	11.86858	-3.608795	-1.786607E-005	0.0007152	10
	15	46	9515.62	11.88968	-0.9433967	1	11.92705	-4.536678	-2.822738E-006	0.0006203	10
	16	48	7546.875	11.93782	-1.186594	1	11.99665	-5.676435	-1.0112E-005	0.0006453	10
	17	51	5928.309	11.99741	-1.500024	1	12.09082	-7.126651	-1.12377E-005	0.0006338	10
	18	53	4733.456	12.06028	-1.858816	1	12.20269	-8.761885	1.972229E-005	0.0006431	10
	19	55	3796.875	12.13269	-2.29011	1	12.34694	-10.68912	-2.369762E-005	0.0007196	10
	20	58	2987.132	12.2234	-2.866664	1	12.55505	-13.19863	-3.689855E-006	0.0006209	10
	21	60	2390.625	12.32328	-3.532559	1	12.8196	-15.99534	2.511797E-005	0.0006693	10
	22	62	1884.191	12.45116	-4.409384	1	13.20887	-19.5008	-1.79473E-005	0.0006517	10
	23	65	1516.544	12.59282	-5.397707	1	13.70089	-23.2016	-2.354449E-005	0.0007022	10
	24	67	1193.986	12.78084	-6.745323	1	14.45162	-27.82368	-1.592227E-005	0.0006886	10
	25	69	946.5144	13.00665	-8.372704	1	15.46852	-32.77039	-2.839407E-005	0.0006672	10
	26	72	751.7689	13.29059	-10.36072	1	16.85184	-37.93832	1.746394E-005	0.0005991	10
	27	74	597.4265	13.64176	-12.82189	1	18.72161	-43.22549	-2.784488E-005	0.000684	10
	28	76	477.4305	14.07899	-15.77328	1	21.14271	-48.24839	-3.050363E-006	0.0006569	10
	29	79	376.6741	14.66805	-19.62951	1	24.50448	-53.23126	-3.295151E-006	0.0006603	10
	30	81	298.2954	15.41818	-24.33045	1	28.80436	-57.6376	-2.8555E-006	0.0006607	10
	31	83	237.7717	16.35345	-29.94649	1	34.12078	-61.36153	-3.171291E-006	0.0006619	10
	32	86	189.0121	17.56781	-36.91166	1	40.87907	-64.54826	-3.104768E-006	0.0006644	10
	33	88	150.2404	19.0998	-45.38567	1	49.24085	-67.17702	1.242244E-006	6.342337E-005	9
	34	91	119.1737	21.09577	-55.89798	1	59.74626	-69.32362	1.318703E-006	6.211497E-005	9
	35	93	95.0169	23.5552	-68.42648	1	72.36733	-71.00443	1.340393E-006	6.099618E-005	9
	36	95	75.60484	26.64501	-83.79868	1	87.93279	-72.36118	1.304035E-006	6.547836E-005	9
	37	98	54.50582	32.33052	-111.7763	1	116.3581	-73.86786	1.262944E-006	6.377541E-005	9
	38	100	45.95588	36.01962	-129.8323	1	134.7361	-74.49429	1.371219E-006	5.717354E-005	9
	39	103	37.20238	41.36518	-156.2222	1	161.6058	-75.16932	1.3063E-006	5.452741E-005	9
	40	105	30.04808	47.83434	-188.3566	1	194.3356	-75.75061	1.325571E-006	5.921768E-005	9
	41	108	23.91582	56.19363	-230.0616	1	236.825	-76.27399	1.260679E-006	5.758777E-005	9
	42	110	18.60119	67.60089	-286.9251	1	294.7811	-76.74262	1.202517E-006	6.79939E-005	9
	43	112	15.02404	79.58274	-346.2045	1	355.2337	-77.0542	1.497351E-006	6.295448E-005	9
	44	116	12.01923	94.70999	-419.6132	1	430.1689	-77.28102	3.974897E-007	0.0006335	8
	45	119	9.450605	115.5317	-518.4684	1	531.1846	-77.43787	3.351579E-007	0.0006409	8
	46	121	7.512019	140.6759	-634.4271	1	649.8364	-77.4977	3.713397E-007	0.0006343	8
	47	124	5.978954	171.4807	-774.6611	1	793.4138	-77.51816	4.18313E-007	0.0006419	8
	48	127	4.734848	211.5039	-949.821	1	973.085	-77.44633	3.917865E-007	0.000612	8
	49	130	3.75601	262.0886	-1161.993	1	1191.184	-77.28957	4.813868E-007	0.000661	8
	50	134	3.004808	322.8183	-1409.18	1	1445.683	-77.09718	4.62832E-007	0.0006419	8
	51	138	2.372217	405.9808	-1725.937	1	1773.043	-76.76332	4.454985E-007	0.0006043	8
	52	142	1.878005	507.6839	-2113.669	1	2173.784	-76.49393	4.762091E-007	0.0006373	8
	53	147	1.512097	621.496	-2537.784	1	2612.777	-76.23926	4.369726E-007	0.0006634	8
	54	152	1.201923	781.1718	-3092.158	1	3189.305	-75.82202	4.715037E-007	0.0006519	8
	55	158	0.956633	974.714	-3748.785	1	3873.43	-75.42535	4.004359E-007	1.377352E-006	8
