EXPLAIN
TAG	EISPOT
TITLE	LABEL	Potentiostatic EIS	Test Identifier
DATE	LABEL	8/28/2020	Date
TIME	LABEL	10:32:19	Time
NOTES	NOTES	1	Notes...
	
PSTAT	PSTAT	REF3000-16137	Potentiostat
VDC	POTEN	0.00000E+000	T	DC Voltage (V)
FREQINIT	QUANT	3.00000E+005	Initial Freq. (Hz)
FREQFINAL	QUANT	1.00000E+000	Final Freq. (Hz)
PTSPERDEC	QUANT	1.00000E+001	Points/decade
VAC	QUANT	5.00000E+001	AC Voltage (mV rms)
AREA	QUANT	1.00000E+000	Sample Area (cm^2)
SPEED	SELECTOR	2	Optimize for:
ZGUESS	QUANT	1.00000E+003	Estimated Z (ohms)
EOC	QUANT	0	Open Circuit (V)
SEQUENCER	TOGGLE	TRUE	Run as Sequence
PSTATMODEL	IQUANT	5	Pstat Model
PSTATSECTION	LABEL	REF3000-16137	Pstat Section
PSTATSERIALNO	LABEL	16137	Pstat Serial Number
CTRLMODE	IQUANT	1	Control Mode
IESTAB	IQUANT	0	I/E Stability
CASPEED	IQUANT	1	Control Amp Speed
CONVENTION	IQUANT	1	Current Convention
ICHRANGE	IQUANT	2	Ich Range
ICHRANGEMODE	TOGGLE	F	Ich Auto Range
ICHOFFSETENABLE	TOGGLE	T	Ich Offset Enable
ICHOFFSET	QUANT	0	Ich Offset (V)
ICHFILTER	IQUANT	3	Ich Filter
VCHRANGE	IQUANT	2	Vch Range
VCHRANGEMODE	TOGGLE	F	Vch Auto Range
VCHOFFSETENABLE	TOGGLE	T	Vch Offset Enable
VCHOFFSET	QUANT	0	Vch Offset (V)
VCHFILTER	IQUANT	3	Vch Filter
ACHRANGE	IQUANT	2	Ach Range
ACHOFFSETENABLE	TOGGLE	F	Ach Offset Enable
ACHOFFSET	QUANT	0	Ach Offset (V)
ACHFILTER	IQUANT	3	Ach Filter
IERANGELOWERLIMIT	IQUANT	2	I/E Range Lower Limit
IERANGEMODE	TOGGLE	F	I/E AutoRange
IERANGE	IQUANT	11	I/E Range
POSFEEDENABLE	TOGGLE	F	Positive Feedback IR Comp
POSFEEDRESISTANCE	QUANT	0	Positive Feedback Resistance (ohm)
ACHSELECT	IQUANT	0	Ach Select
CABLEID	IQUANT	13	Cable ID
DCCALDATE	LABEL	7/31/2020	DC Calibration Date
ACCALDATE	LABEL	7/31/2020	AC Calibration Date
THERMOSELECT	IQUANT	1	Thermo Select
FRAMEWORKVERSION	QUANT	6.33	Framework Version
INSTRUMENTVERSION	LABEL	3.50	Instrument Version
COMPLIANCEVOLTAGE	IQUANT	0	Compliance Voltage
ZCURVE	TABLE
	Pt	Time	Freq	Zreal	Zimag	Zsig	Zmod	Zphz	Idc	Vdc	IERange
	#	s	Hz	ohm	ohm	V	ohm	°	A	V	#
	0	8	300046.9	13.1928	1.061644	1	13.23545	4.600761	1.152842E-005	0.00018	10
	1	12	238359.4	13.20798	0.8451281	1	13.23499	3.661146	-5.933422E-006	0.0001243	10
	2	15	189328.1	13.23775	0.6564057	1	13.25402	2.838737	-3.104281E-005	0.000341	10
	3	17	150421.9	13.25758	0.4861455	1	13.26649	2.100052	6.648798E-005	0.0004189	10
	4	20	119484.4	13.29272	0.3624699	1	13.29766	1.561971	7.111381E-005	0.0003216	10
	5	22	94921.88	13.32158	0.2662612	1	13.32424	1.14503	6.610481E-006	0.0005577	10
	6	25	75421.88	13.35315	0.1523366	1	13.35402	0.6536186	9.857848E-006	0.0006439	10
	7	27	59859.37	13.3882	0.0506644	1	13.3883	0.2168209	2.595849E-005	0.0006315	10
	8	30	47578.12	13.42504	-0.0421954	1	13.4251	-0.1800821	-2.959437E-005	0.000644	10
	9	32	37828.12	13.46065	-0.1323207	1	13.4613	-0.5632102	-1.511916E-006	0.0005968	10
	10	35	30046.88	13.49842	-0.2291177	1	13.50036	-0.972426	1.321658E-005	0.0006181	10
	11	37	23859.38	13.53702	-0.3348802	1	13.54116	-1.4171	-2.350387E-005	0.0006777	10
	12	40	18984.38	13.57643	-0.4538794	1	13.58402	-1.914766	2.590854E-005	0.0005941	10
	13	42	15046.87	13.61919	-0.5961038	1	13.63223	-2.506202	-2.594194E-005	0.0006459	10
	14	44	11953.13	13.66695	-0.7632649	1	13.68824	-3.196506	-2.387494E-005	0.0007262	10
	15	47	9515.62	13.71463	-0.963416	1	13.74842	-4.018273	-1.255162E-005	0.0007123	10
	16	49	7546.875	13.77263	-1.210659	1	13.82574	-5.023572	1.758265E-005	0.0006117	10
	17	51	5928.309	13.83567	-1.52772	1	13.91975	-6.301017	-2.644974E-005	0.0006986	10
	18	54	4733.456	13.90462	-1.892886	1	14.03287	-7.752229	-2.612239E-005	0.0006981	10
	19	56	3796.875	13.98503	-2.331504	1	14.17805	-9.464974	6.280442E-006	0.0006301	10
	20	58	2987.132	14.08133	-2.917398	1	14.38037	-11.70505	5.353941E-006	0.0005995	10
	21	61	2390.625	14.18918	-3.588863	1	14.63601	-14.19411	-2.31539E-005	0.0006935	10
	22	63	1884.191	14.32535	-4.484008	1	15.01073	-17.38075	-2.265627E-005	0.0006923	10
	23	65	1516.544	14.47041	-5.490146	1	15.4769	-20.777	1.391967E-005	0.0006557	10
	24	68	1193.986	14.66934	-6.855034	1	16.192	-25.04686	-2.563067E-005	0.000673	10
	25	70	946.5144	14.90502	-8.502736	1	17.15973	-29.70308	2.055352E-005	0.0006262	10
	26	72	751.7689	15.19091	-10.53512	1	18.48655	-34.74189	5.704479E-006	0.0006648	10
	27	75	597.4265	15.54815	-13.03138	1	20.28699	-39.9674	-2.737849E-005	0.0006906	10
	28	77	477.4305	15.99183	-16.03345	1	22.64531	-45.07447	-3.321181E-006	0.0006598	10
	29	79	376.6741	16.5852	-19.95594	1	25.94819	-50.27035	-2.805606E-006	0.0006506	10
	30	82	298.2954	17.33541	-24.7428	1	30.2113	-54.98397	-3.321087E-006	0.0006562	10
	31	84	237.7717	18.26984	-30.46572	1	35.5239	-59.04952	-2.661277E-006	0.0006511	10
	32	86	189.0121	19.45831	-37.52761	1	42.2723	-62.59298	1.349169E-006	5.668526E-005	9
	33	89	150.2404	21.01157	-46.22815	1	50.7792	-65.5573	1.214441E-006	5.259045E-005	9
	34	91	119.1737	23.01399	-56.98116	1	61.45321	-68.00682	1.295851E-006	4.901962E-005	9
	35	94	95.0169	25.49544	-69.81128	1	74.32114	-69.93755	1.034671E-006	9.08505E-005	9
	36	96	75.60484	28.63215	-85.55242	1	90.2165	-71.49596	1.279432E-006	5.781404E-005	9
	37	99	54.50582	34.44591	-114.1986	1	119.2805	-73.21503	1.202015E-006	5.324812E-005	9
	38	101	45.95588	38.23938	-132.6816	1	138.0821	-73.92281	1.239042E-006	5.9361E-005	9
	39	104	37.20238	43.74714	-159.6569	1	165.542	-74.67665	1.358737E-006	5.706633E-005	9
	40	106	30.04808	50.40708	-192.5076	1	198.9976	-75.32684	1.401605E-006	5.428314E-005	9
	41	108	23.91582	58.96692	-235.0609	1	242.3443	-75.9175	1.300676E-006	5.735333E-005	9
	42	111	18.60119	70.65076	-293.0665	1	301.4623	-76.44609	1.342584E-006	6.365778E-005	9
	43	113	15.02404	82.88237	-353.5481	1	363.1333	-76.80639	1.379443E-006	5.480402E-005	9
	44	115	12.01923	98.1362	-428.4114	1	439.5078	-77.09785	5.324658E-007	0.0006357	8
	45	118	9.450605	118.9555	-529.2982	1	542.5007	-77.33369	4.83183E-007	0.0006326	8
	46	120	7.512019	144.3647	-647.6708	1	663.5651	-77.43429	4.889935E-007	0.0006518	8
	47	123	5.978954	175.2925	-790.9151	1	810.1075	-77.5034	5.009462E-007	0.0006326	8
	48	126	4.734848	215.7458	-971.089	1	994.766	-77.4741	4.289601E-007	0.0006346	8
	49	129	3.75601	266.1444	-1188.421	1	1217.858	-77.37701	4.686927E-007	0.0006417	8
	50	133	3.004808	326.633	-1442.201	1	1478.727	-77.2388	4.173602E-007	0.0006666	8
	51	136	2.372217	406.8339	-1767.77	1	1813.981	-77.03964	4.428644E-007	0.000672	8
	52	141	1.878005	511.6915	-2164.033	1	2223.706	-76.69659	4.653917E-007	0.0006129	8
	53	145	1.512097	629.5854	-2605.632	1	2680.615	-76.41628	4.525063E-007	0.0007379	8
	54	151	1.201923	786.0705	-3170.928	1	3266.909	-76.0771	4.701821E-007	0.0006147	8
	55	157	0.956633	976.134	-3848.081	1	3969.958	-75.76614	4.178657E-007	9.062933E-008	8
