EXPLAIN
TAG	EISPOT
TITLE	LABEL	Potentiostatic EIS	Test Identifier
DATE	LABEL	8/28/2020	Date
TIME	LABEL	10:35:05	Time
NOTES	NOTES	1	Notes...
	
PSTAT	PSTAT	REF3000-16137	Potentiostat
VDC	POTEN	0.00000E+000	T	DC Voltage (V)
FREQINIT	QUANT	3.00000E+005	Initial Freq. (Hz)
FREQFINAL	QUANT	1.00000E+000	Final Freq. (Hz)
PTSPERDEC	QUANT	1.00000E+001	Points/decade
VAC	QUANT	5.00000E+001	AC Voltage (mV rms)
AREA	QUANT	1.00000E+000	Sample Area (cm^2)
SPEED	SELECTOR	2	Optimize for:
ZGUESS	QUANT	1.00000E+003	Estimated Z (ohms)
EOC	QUANT	0	Open Circuit (V)
SEQUENCER	TOGGLE	TRUE	Run as Sequence
PSTATMODEL	IQUANT	5	Pstat Model
PSTATSECTION	LABEL	REF3000-16137	Pstat Section
PSTATSERIALNO	LABEL	16137	Pstat Serial Number
CTRLMODE	IQUANT	1	Control Mode
IESTAB	IQUANT	0	I/E Stability
CASPEED	IQUANT	1	Control Amp Speed
CONVENTION	IQUANT	1	Current Convention
ICHRANGE	IQUANT	2	Ich Range
ICHRANGEMODE	TOGGLE	F	Ich Auto Range
ICHOFFSETENABLE	TOGGLE	T	Ich Offset Enable
ICHOFFSET	QUANT	0	Ich Offset (V)
ICHFILTER	IQUANT	3	Ich Filter
VCHRANGE	IQUANT	2	Vch Range
VCHRANGEMODE	TOGGLE	F	Vch Auto Range
VCHOFFSETENABLE	TOGGLE	T	Vch Offset Enable
VCHOFFSET	QUANT	0	Vch Offset (V)
VCHFILTER	IQUANT	3	Vch Filter
ACHRANGE	IQUANT	2	Ach Range
ACHOFFSETENABLE	TOGGLE	F	Ach Offset Enable
ACHOFFSET	QUANT	0	Ach Offset (V)
ACHFILTER	IQUANT	3	Ach Filter
IERANGELOWERLIMIT	IQUANT	2	I/E Range Lower Limit
IERANGEMODE	TOGGLE	F	I/E AutoRange
IERANGE	IQUANT	11	I/E Range
POSFEEDENABLE	TOGGLE	F	Positive Feedback IR Comp
POSFEEDRESISTANCE	QUANT	0	Positive Feedback Resistance (ohm)
ACHSELECT	IQUANT	0	Ach Select
CABLEID	IQUANT	13	Cable ID
DCCALDATE	LABEL	7/31/2020	DC Calibration Date
ACCALDATE	LABEL	7/31/2020	AC Calibration Date
THERMOSELECT	IQUANT	1	Thermo Select
FRAMEWORKVERSION	QUANT	6.33	Framework Version
INSTRUMENTVERSION	LABEL	3.50	Instrument Version
COMPLIANCEVOLTAGE	IQUANT	0	Compliance Voltage
ZCURVE	TABLE
	Pt	Time	Freq	Zreal	Zimag	Zsig	Zmod	Zphz	Idc	Vdc	IERange
	#	s	Hz	ohm	ohm	V	ohm	°	A	V	#
	0	8	300046.9	15.27627	1.058238	1	15.31288	3.962737	-2.403969E-005	0.0003109	10
	1	11	238359.4	15.32347	0.812895	1	15.34501	3.036639	7.200913E-005	-2.592886E-005	10
	2	15	189328.1	15.36802	0.6289753	1	15.38089	2.343667	-6.671123E-006	0.0002841	10
	3	17	150421.9	15.4107	0.4701203	1	15.41787	1.747328	-2.895409E-005	0.0004736	10
	4	20	119484.4	15.44143	0.3454994	1	15.44529	1.28177	6.4696E-005	0.0005368	10
	5	22	94921.88	15.47428	0.2491441	1	15.47629	0.9224125	-2.290352E-005	0.0006493	10
	6	25	75421.88	15.51258	0.1379008	1	15.51319	0.5093237	1.19007E-005	0.0005512	10
	7	27	59859.37	15.55625	0.0384103	1	15.5563	0.1414701	2.429967E-005	0.0006448	10
	8	30	47578.12	15.60099	-0.0517597	1	15.60108	-0.1900907	-1.73352E-005	0.0006215	10
	9	32	37828.12	15.64197	-0.1404902	1	15.6426	-0.514595	6.768684E-006	0.0005844	10
	10	35	30046.88	15.69005	-0.2400026	1	15.69189	-0.8763553	1.26635E-005	0.0005803	10
	11	37	23859.38	15.73635	-0.3465355	1	15.74016	-1.261526	-3.712491E-006	0.0007087	10
	12	40	18984.38	15.78177	-0.4675776	1	15.7887	-1.697045	-1.644115E-005	0.0006517	10
	13	42	15046.87	15.83289	-0.6121508	1	15.84472	-2.214138	1.305333E-005	0.0005929	10
	14	44	11953.13	15.88519	-0.7791926	1	15.90429	-2.808193	1.19042E-005	0.0005844	10
	15	47	9515.62	15.94227	-0.983324	1	15.97256	-3.529551	1.167923E-005	0.000592	10
	16	49	7546.875	16.00806	-1.235457	1	16.05566	-4.41318	2.559528E-005	0.0006429	10
	17	51	5928.309	16.07979	-1.558412	1	16.15513	-5.535673	-2.757775E-005	0.000683	10
	18	54	4733.456	16.15509	-1.92879	1	16.26983	-6.808432	2.499613E-005	0.0006267	10
	19	56	3796.875	16.24191	-2.375883	1	16.41476	-8.322261	-1.851598E-005	0.000636	10
	20	58	2987.132	16.34817	-2.97075	1	16.61589	-10.29927	1.983717E-005	0.000651	10
	21	60	2390.625	16.46276	-3.658403	1	16.86436	-12.52884	2.386341E-005	0.0006543	10
	22	63	1884.191	16.6053	-4.561264	1	17.22037	-15.35959	-1.487174E-005	0.0006943	10
	23	65	1516.544	16.76473	-5.585943	1	17.67085	-18.42788	-2.881277E-005	0.0006896	10
	24	67	1193.986	16.97189	-6.975925	1	18.34962	-22.34404	1.964389E-005	0.0006508	10
	25	70	946.5144	17.21399	-8.65732	1	19.26838	-26.6989	-3.097743E-005	0.0006623	10
	26	72	751.7689	17.51607	-10.71175	1	20.53179	-31.4474	-2.499873E-005	0.0006697	10
	27	77	597.4265	17.91811	-13.25989	1	22.29088	-36.50245	2.423533E-005	0.0006248	10
	28	79	477.4305	18.36139	-16.31331	1	24.56145	-41.61973	-3.059053E-006	0.0006622	10
	29	81	376.6741	18.96341	-20.30918	1	27.78621	-46.96261	-2.669746E-006	0.0006535	10
	30	83	298.2954	19.71526	-25.18147	1	31.98121	-51.94164	-2.322559E-006	0.0006621	10
	31	86	237.7717	20.65091	-31.01546	1	37.26149	-56.34328	-2.389262E-006	0.0006573	10
	32	88	189.0121	21.83573	-38.22438	1	44.02161	-60.26278	1.357659E-006	6.06502E-005	9
	33	91	150.2404	23.38699	-47.11687	1	52.60181	-63.60197	1.288664E-006	6.044143E-005	9
	34	93	119.1737	25.39352	-58.11974	1	63.42503	-66.39865	1.444474E-006	6.087475E-005	9
	35	95	95.0169	27.89022	-71.26151	1	76.52494	-68.62569	1.362209E-006	5.834537E-005	9
	36	98	75.60484	31.06268	-87.40972	1	92.76502	-70.43638	1.257243E-006	6.125963E-005	9
	37	101	54.50582	37.0014	-116.7965	1	122.5174	-72.42167	9.707794E-007	8.679195E-005	9
	38	103	45.95588	40.88778	-135.731	1	141.7559	-73.23553	1.372936E-006	5.874383E-005	9
	39	105	37.20238	46.57512	-163.3702	1	169.8795	-74.08771	1.277104E-006	5.308169E-005	9
	40	108	30.04808	53.44334	-196.9991	1	204.1197	-74.82171	1.386569E-006	6.094976E-005	9
	41	110	23.91582	62.25741	-240.5053	1	248.4327	-75.48694	1.311301E-006	4.871287E-005	9
	42	113	18.60119	74.24868	-299.7561	1	308.8148	-76.08801	1.377738E-006	5.850183E-005	9
	43	115	15.02404	86.61813	-361.5052	1	371.7374	-76.52572	1.321479E-006	6.285032E-005	9
	44	117	12.01923	102.1326	-438.0199	1	449.7693	-76.87492	5.00229E-007	0.0006442	8
	45	120	9.450605	123.3958	-541.153	1	555.0433	-77.15482	3.823219E-007	0.0006473	8
	46	122	7.512019	148.5608	-662.2463	1	678.705	-77.35624	4.674714E-007	0.0006317	8
	47	125	5.978954	180.047	-808.7916	1	828.5896	-77.44989	4.894654E-007	0.0006444	8
	48	128	4.734848	220.7547	-993.145	1	1017.384	-77.46812	4.449769E-007	0.000644	8
	49	131	3.75601	271.1105	-1215.887	1	1245.746	-77.43019	4.745155E-007	0.0006418	8
	50	135	3.004808	331.7658	-1476.253	1	1513.073	-77.33406	4.198183E-007	0.0006793	8
	51	138	2.372217	411.8043	-1811.649	1	1857.863	-77.19376	4.450466E-007	0.0006943	8
	52	142	1.878005	516.3187	-2218.051	1	2277.353	-76.89603	4.627761E-007	0.0006083	8
	53	147	1.512097	636.4561	-2670.343	1	2745.143	-76.5941	4.614576E-007	0.0007335	8
	54	153	1.201923	790.4647	-3254.524	1	3349.143	-76.34824	4.843509E-007	0.0006153	8
	55	159	0.956633	981.175	-3953.827	1	4073.751	-76.06311	4.171872E-007	6.474547E-007	8
