EXPLAIN
TAG	EISPOT
TITLE	LABEL	Potentiostatic EIS	Test Identifier
DATE	LABEL	8/28/2020	Date
TIME	LABEL	10:46:15	Time
NOTES	NOTES	1	Notes...
	
PSTAT	PSTAT	REF3000-16137	Potentiostat
VDC	POTEN	0.00000E+000	T	DC Voltage (V)
FREQINIT	QUANT	3.00000E+005	Initial Freq. (Hz)
FREQFINAL	QUANT	1.00000E+000	Final Freq. (Hz)
PTSPERDEC	QUANT	1.00000E+001	Points/decade
VAC	QUANT	5.00000E+001	AC Voltage (mV rms)
AREA	QUANT	1.00000E+000	Sample Area (cm^2)
SPEED	SELECTOR	2	Optimize for:
ZGUESS	QUANT	1.00000E+003	Estimated Z (ohms)
EOC	QUANT	0	Open Circuit (V)
SEQUENCER	TOGGLE	TRUE	Run as Sequence
PSTATMODEL	IQUANT	5	Pstat Model
PSTATSECTION	LABEL	REF3000-16137	Pstat Section
PSTATSERIALNO	LABEL	16137	Pstat Serial Number
CTRLMODE	IQUANT	1	Control Mode
IESTAB	IQUANT	0	I/E Stability
CASPEED	IQUANT	1	Control Amp Speed
CONVENTION	IQUANT	1	Current Convention
ICHRANGE	IQUANT	2	Ich Range
ICHRANGEMODE	TOGGLE	F	Ich Auto Range
ICHOFFSETENABLE	TOGGLE	T	Ich Offset Enable
ICHOFFSET	QUANT	0	Ich Offset (V)
ICHFILTER	IQUANT	3	Ich Filter
VCHRANGE	IQUANT	2	Vch Range
VCHRANGEMODE	TOGGLE	F	Vch Auto Range
VCHOFFSETENABLE	TOGGLE	T	Vch Offset Enable
VCHOFFSET	QUANT	0	Vch Offset (V)
VCHFILTER	IQUANT	3	Vch Filter
ACHRANGE	IQUANT	2	Ach Range
ACHOFFSETENABLE	TOGGLE	F	Ach Offset Enable
ACHOFFSET	QUANT	0	Ach Offset (V)
ACHFILTER	IQUANT	3	Ach Filter
IERANGELOWERLIMIT	IQUANT	2	I/E Range Lower Limit
IERANGEMODE	TOGGLE	F	I/E AutoRange
IERANGE	IQUANT	11	I/E Range
POSFEEDENABLE	TOGGLE	F	Positive Feedback IR Comp
POSFEEDRESISTANCE	QUANT	0	Positive Feedback Resistance (ohm)
ACHSELECT	IQUANT	0	Ach Select
CABLEID	IQUANT	13	Cable ID
DCCALDATE	LABEL	7/31/2020	DC Calibration Date
ACCALDATE	LABEL	7/31/2020	AC Calibration Date
THERMOSELECT	IQUANT	1	Thermo Select
FRAMEWORKVERSION	QUANT	6.33	Framework Version
INSTRUMENTVERSION	LABEL	3.50	Instrument Version
COMPLIANCEVOLTAGE	IQUANT	0	Compliance Voltage
ZCURVE	TABLE
	Pt	Time	Freq	Zreal	Zimag	Zsig	Zmod	Zphz	Idc	Vdc	IERange
	#	s	Hz	ohm	ohm	V	ohm	°	A	V	#
	0	7	300046.9	30.92247	0.229914	1	30.92333	0.4259964	9.723663E-006	0.0001131	11
	1	11	238359.4	31.15176	0.5105297	1	31.15594	0.9389062	-3.210018E-005	0.0003136	10
	2	15	189328.1	31.2735	0.3956076	1	31.276	0.724749	-3.005688E-005	0.0003806	10
	3	17	150421.9	31.36123	0.2819161	1	31.36249	0.5150362	-1.254028E-005	0.0004024	10
	4	20	119484.4	31.48246	0.1760784	1	31.48295	0.3204466	6.840968E-005	0.0005412	10
	5	22	94921.88	31.58175	0.1091742	1	31.58194	0.1980636	2.487566E-005	0.0006375	10
	6	25	75421.88	31.68754	0.0210484	1	31.68755	0.0380585	-1.012701E-005	0.0006132	10
	7	27	59859.37	31.79677	-0.058851	1	31.79682	-0.1060456	-9.409149E-006	0.0006226	10
	8	30	47578.12	31.91041	-0.1382527	1	31.91071	-0.2482339	-2.245539E-005	0.000687	10
	9	32	37828.12	32.0094	-0.2211288	1	32.01016	-0.3958071	-2.421341E-005	0.0006804	10
	10	35	30046.88	32.12399	-0.3158164	1	32.12554	-0.5632664	-1.498217E-007	0.0007175	10
	11	37	23859.38	32.23426	-0.4269205	1	32.23709	-0.7587986	-2.215838E-005	0.0006998	10
	12	40	18984.38	32.33757	-0.5432745	1	32.34213	-0.962484	-2.917125E-006	0.0007199	10
	13	42	15046.87	32.44065	-0.695509	1	32.4481	-1.228201	2.06993E-005	0.0006028	10
	14	44	11953.13	32.55024	-0.8760914	1	32.56203	-1.541746	-1.587529E-005	0.0006371	10
	15	47	9515.62	32.67699	-1.089743	1	32.69515	-1.910047	-1.698724E-005	0.000661	10
	16	49	7546.875	32.80348	-1.37341	1	32.83222	-2.397449	9.513811E-006	0.0005957	10
	17	51	5928.309	32.93345	-1.704014	1	32.97751	-2.961907	-2.77559E-005	0.0006759	10
	18	53	4733.456	33.08851	-2.102953	1	33.15527	-3.636564	-2.52925E-005	0.0006649	10
	19	56	3796.875	33.23113	-2.595286	1	33.33232	-4.465623	2.233434E-005	0.0006236	10
	20	58	2987.132	33.40508	-3.229892	1	33.56086	-5.522686	2.500264E-005	0.0006347	10
	21	60	2390.625	33.58298	-3.974827	1	33.81739	-6.750032	1.475619E-005	0.0006324	10
	22	63	1884.191	33.79316	-4.962466	1	34.15559	-8.354074	-6.149913E-006	0.0006906	10
	23	65	1516.544	34.02848	-6.06479	1	34.56471	-10.10554	-2.089083E-005	0.0007022	10
	24	67	1193.986	34.31283	-7.568651	1	35.13765	-12.439	5.383529E-006	0.0006744	10
	25	70	946.5144	34.59369	-9.369789	1	35.84015	-15.15509	-2.766375E-006	-0.0001052	9
	26	72	751.7689	34.97059	-11.5925	1	36.84193	-18.33998	7.842581E-006	-0.0003653	9
	27	74	597.4265	35.40379	-14.34946	1	38.20124	-22.06314	-7.800733E-006	0.0005059	9
	28	77	477.4305	35.93547	-17.64748	1	40.03487	-26.1551	1.229051E-006	5.201313E-005	9
	29	79	376.6741	36.60559	-21.9683	1	42.69163	-30.96945	1.255696E-006	5.35148E-005	9
	30	81	298.2954	37.41847	-27.24825	1	46.28832	-36.06223	1.270711E-006	5.546772E-005	9
	31	84	237.7717	38.40813	-33.58611	1	51.02168	-41.16817	1.263727E-006	6.068352E-005	9
	32	86	189.0121	39.65657	-41.48753	1	57.39215	-46.29262	1.262161E-006	5.303307E-005	9
	33	89	150.2404	41.23227	-51.22679	1	65.75928	-51.16953	1.291391E-006	5.940684E-005	9
	34	91	119.1737	43.25203	-63.33747	1	76.69662	-55.67153	1.271343E-006	5.3961E-005	9
	35	93	95.0169	45.76809	-77.88332	1	90.33565	-59.55939	1.323375E-006	5.870282E-005	9
	36	96	75.60484	49.00006	-95.8597	1	107.6573	-62.9255	1.22287E-006	6.24079E-005	9
	37	98	54.50582	55.16996	-128.7695	1	140.0903	-66.80779	1.206016E-006	5.406848E-005	9
	38	101	45.95588	59.37463	-150.0556	1	161.3755	-68.41209	1.307706E-006	5.70798E-005	9
	39	103	37.20238	65.63546	-181.1205	1	192.6464	-70.08021	1.338036E-006	6.895101E-005	9
	40	106	30.04808	73.38639	-218.845	1	230.8218	-71.46189	1.250119E-006	5.438719E-005	9
	41	108	23.91582	83.51556	-267.4738	1	280.209	-72.65964	1.248806E-006	5.699361E-005	9
	42	110	18.60119	97.316	-333.4375	1	347.3485	-73.72975	1.357192E-006	5.342358E-005	9
	43	113	15.02404	111.535	-401.8716	1	417.0621	-74.48859	1.322324E-006	4.817648E-005	9
	44	115	12.01923	128.9582	-486.2042	1	503.0157	-75.14521	4.752569E-007	0.0006391	8
	45	117	9.450605	152.2724	-599.9044	1	618.9282	-75.75753	3.578804E-007	0.0006281	8
	46	120	7.512019	179.6175	-733.4391	1	755.1128	-76.23923	3.553392E-007	0.0006262	8
	47	123	5.978954	212.5902	-896.0267	1	920.9009	-76.65286	3.771167E-007	0.0006353	8
	48	126	4.734848	255.2608	-1099.696	1	1128.932	-76.93195	3.797223E-007	0.0006155	8
	49	129	3.75601	307.3176	-1347.519	1	1382.118	-77.15275	4.367874E-007	0.0006499	8
	50	132	3.004808	370.0099	-1637.96	1	1679.232	-77.27072	4.267551E-007	0.0006106	8
	51	136	2.372217	455.0259	-2015.296	1	2066.027	-77.27675	4.095076E-007	0.000558	8
	52	140	1.878005	555.7272	-2473.5	1	2535.16	-77.33749	4.357244E-007	0.0006412	8
	53	145	1.512097	676.7839	-2981.045	1	3056.905	-77.20901	4.047203E-007	0.0005834	8
	54	151	1.201923	832.8173	-3649.828	1	3743.638	-77.14632	4.272716E-007	0.0006636	8
	55	157	0.956633	1030.832	-4458.369	1	4575.988	-76.98125	1.634786E-008	-2.916048E-005	7
