EXPLAIN
TAG	EISPOT
TITLE	LABEL	Potentiostatic EIS	Test Identifier
DATE	LABEL	8/28/2020	Date
TIME	LABEL	11:02:48	Time
NOTES	NOTES	1	Notes...
	
PSTAT	PSTAT	REF3000-16137	Potentiostat
VDC	POTEN	0.00000E+000	T	DC Voltage (V)
FREQINIT	QUANT	3.00000E+005	Initial Freq. (Hz)
FREQFINAL	QUANT	1.00000E+000	Final Freq. (Hz)
PTSPERDEC	QUANT	1.00000E+001	Points/decade
VAC	QUANT	5.00000E+001	AC Voltage (mV rms)
AREA	QUANT	1.00000E+000	Sample Area (cm^2)
SPEED	SELECTOR	2	Optimize for:
ZGUESS	QUANT	1.00000E+003	Estimated Z (ohms)
EOC	QUANT	0	Open Circuit (V)
SEQUENCER	TOGGLE	TRUE	Run as Sequence
PSTATMODEL	IQUANT	5	Pstat Model
PSTATSECTION	LABEL	REF3000-16137	Pstat Section
PSTATSERIALNO	LABEL	16137	Pstat Serial Number
CTRLMODE	IQUANT	1	Control Mode
IESTAB	IQUANT	0	I/E Stability
CASPEED	IQUANT	1	Control Amp Speed
CONVENTION	IQUANT	1	Current Convention
ICHRANGE	IQUANT	2	Ich Range
ICHRANGEMODE	TOGGLE	F	Ich Auto Range
ICHOFFSETENABLE	TOGGLE	T	Ich Offset Enable
ICHOFFSET	QUANT	0	Ich Offset (V)
ICHFILTER	IQUANT	3	Ich Filter
VCHRANGE	IQUANT	2	Vch Range
VCHRANGEMODE	TOGGLE	F	Vch Auto Range
VCHOFFSETENABLE	TOGGLE	T	Vch Offset Enable
VCHOFFSET	QUANT	0	Vch Offset (V)
VCHFILTER	IQUANT	3	Vch Filter
ACHRANGE	IQUANT	2	Ach Range
ACHOFFSETENABLE	TOGGLE	F	Ach Offset Enable
ACHOFFSET	QUANT	0	Ach Offset (V)
ACHFILTER	IQUANT	3	Ach Filter
IERANGELOWERLIMIT	IQUANT	2	I/E Range Lower Limit
IERANGEMODE	TOGGLE	F	I/E AutoRange
IERANGE	IQUANT	11	I/E Range
POSFEEDENABLE	TOGGLE	F	Positive Feedback IR Comp
POSFEEDRESISTANCE	QUANT	0	Positive Feedback Resistance (ohm)
ACHSELECT	IQUANT	0	Ach Select
CABLEID	IQUANT	13	Cable ID
DCCALDATE	LABEL	7/31/2020	DC Calibration Date
ACCALDATE	LABEL	7/31/2020	AC Calibration Date
THERMOSELECT	IQUANT	1	Thermo Select
FRAMEWORKVERSION	QUANT	6.33	Framework Version
INSTRUMENTVERSION	LABEL	3.50	Instrument Version
COMPLIANCEVOLTAGE	IQUANT	0	Compliance Voltage
ZCURVE	TABLE
	Pt	Time	Freq	Zreal	Zimag	Zsig	Zmod	Zphz	Idc	Vdc	IERange
	#	s	Hz	ohm	ohm	V	ohm	°	A	V	#
	0	7	300046.9	133.5459	-2.253789	1	133.5649	-0.966861	-1.275573E-005	0.0010078	9
	1	10	238359.4	134.4519	-1.866482	1	134.4648	-0.795338	7.574278E-005	-0.0025112	9
	2	13	189328.1	135.3345	-1.887075	1	135.3476	-0.7988684	4.742563E-005	-0.0003862	9
	3	16	150421.9	135.3827	-1.709638	1	135.3935	-0.7235033	-7.380246E-005	0.0018396	9
	4	18	119484.4	136.8744	-1.482254	1	136.8824	-0.6204491	1.377627E-005	-0.0012299	9
	5	21	94921.88	137.6344	-1.066117	1	137.6385	-0.4438047	2.000539E-006	0.000536	9
	6	24	75421.88	138.3369	-1.032218	1	138.3408	-0.4275115	-2.140357E-005	0.000725	9
	7	26	59859.37	139.0139	-1.074194	1	139.018	-0.4427297	-2.082159E-005	0.000845	9
	8	29	47578.12	139.7041	-0.990067	1	139.7076	-0.4060417	2.404355E-005	-0.0007297	9
	9	31	37828.12	140.496	-0.960509	1	140.4993	-0.3916999	-2.05779E-005	0.000807	9
	10	34	30046.88	141.0816	-0.8660922	1	141.0843	-0.3517312	-7.291323E-006	0.0007264	9
	11	36	23859.38	141.6833	-0.9250205	1	141.6863	-0.3740669	2.173761E-005	-0.0001766	9
	12	39	18984.38	142.3826	-0.951894	1	142.3858	-0.383043	-1.189497E-005	0.0008089	9
	13	41	15046.87	143.0637	-1.210991	1	143.0688	-0.48498	1.833718E-005	-3.733716E-005	9
	14	43	11953.13	143.6131	-1.226618	1	143.6183	-0.4893588	-1.467474E-005	0.00086	9
	15	46	9515.62	144.2673	-1.522317	1	144.2753	-0.6045662	-2.037951E-005	0.0004438	9
	16	48	7546.875	144.9311	-1.919396	1	144.9438	-0.7587529	2.325444E-005	-0.0003052	9
	17	50	5928.309	145.514	-2.202796	1	145.5307	-0.8672791	1.899057E-005	-8.944579E-005	9
	18	54	4733.456	146.5583	-2.674795	1	146.5827	-1.045573	-1.73322E-006	-0.0003344	9
	19	56	3796.875	147.1842	-3.223131	1	147.2195	-1.254498	7.66555E-006	-0.0005992	9
	20	58	2987.132	147.9095	-3.963963	1	147.9626	-1.535155	1.889057E-005	-8.646167E-005	9
	21	60	2390.625	148.5898	-4.863021	1	148.6694	-1.874497	2.082003E-005	-0.0004055	9
	22	63	1884.191	149.2398	-5.859479	1	149.3548	-2.248402	2.265003E-005	-0.0002516	9
	23	65	1516.544	150.2772	-7.300585	1	150.4544	-2.781288	1.107637E-005	0.0002257	9
	24	67	1193.986	151.2466	-8.949227	1	151.5111	-3.386231	-7.914782E-006	0.0008029	9
	25	70	946.5144	152.1843	-10.95874	1	152.5783	-4.118742	2.518256E-005	-0.0006289	9
	26	72	751.7689	153.2104	-13.70368	1	153.8221	-5.111134	1.911896E-005	-9.404743E-005	9
	27	75	597.4265	154.1843	-16.99151	1	155.1178	-6.288764	2.529021E-005	-0.0006094	9
	28	77	477.4305	155.3402	-20.77038	1	156.7227	-7.615789	1.220369E-006	6.443477E-005	9
	29	79	376.6741	156.6587	-25.83391	1	158.7745	-9.364125	1.272016E-006	5.716029E-005	9
	30	82	298.2954	158.1128	-32.0321	1	161.3249	-11.45256	1.193897E-006	5.862743E-005	9
	31	84	237.7717	159.7783	-39.47718	1	164.583	-13.87839	1.10643E-006	5.990225E-005	9
	32	86	189.0121	161.6957	-48.77713	1	168.8926	-16.78647	1.226034E-006	5.715427E-005	9
	33	89	150.2404	163.9167	-60.26854	1	174.6454	-20.18735	1.214837E-006	5.68418E-005	9
	34	91	119.1737	166.5568	-74.60168	1	182.5009	-24.12786	1.183558E-006	6.087477E-005	9
	35	94	95.0169	169.6513	-91.89524	1	192.9412	-28.44313	1.06017E-006	6.215079E-005	9
	36	96	75.60484	173.4378	-113.3808	1	207.2097	-33.17369	1.201075E-006	5.705663E-005	9
	37	99	54.50582	180.025	-153.0923	1	236.3181	-40.37766	1.220468E-006	5.593345E-005	9
	38	101	45.95588	184.7189	-179.0551	1	257.2582	-44.10801	1.207994E-006	5.996219E-005	9
	39	104	37.20238	191.4303	-217.2202	1	289.5344	-48.61115	1.194453E-006	8.724142E-005	9
	40	106	30.04808	199.8056	-263.959	1	331.0538	-52.87584	1.275317E-006	5.615833E-005	9
	41	108	23.91582	210.928	-324.8855	1	387.3515	-57.00683	1.154365E-006	6.399397E-005	9
	42	111	18.60119	225.5255	-406.2066	1	464.6134	-60.96101	1.549182E-007	0.0006444	8
	43	113	15.02404	242.3998	-492.4258	1	548.8541	-63.79098	3.802672E-008	0.0006314	8
	44	115	12.01923	264.418	-601.3588	1	656.9241	-66.26486	1.595274E-007	0.0006395	8
	45	118	9.450605	294.0483	-744.6709	1	800.6242	-68.45242	1.391487E-007	0.0006301	8
	46	120	7.512019	329.6764	-912.1843	1	969.931	-70.12942	1.014929E-007	0.0006251	8
	47	123	5.978954	373.5308	-1114.609	1	1175.534	-71.47284	1.226186E-007	0.0006334	8
	48	126	4.734848	427.9689	-1366.751	1	1432.189	-72.61317	6.573934E-008	0.0006198	8
	49	129	3.75601	494.2534	-1672.45	1	1743.954	-73.53619	1.326806E-007	0.0006644	8
	50	133	3.004808	571.0506	-2029.753	1	2108.553	-74.28659	1.168732E-007	0.0006219	8
	51	138	2.372217	674.3651	-2494.769	1	2584.306	-74.87378	1.09431E-007	0.0005544	8
	52	142	1.878005	790.5644	-3062.724	1	3163.111	-75.52648	1.231085E-007	0.0006309	8
	53	146	1.512097	923.4208	-3692.679	1	3806.387	-75.96009	9.125087E-008	0.0006156	8
	54	152	1.201923	1101.969	-4539.861	1	4671.688	-76.35636	1.472795E-008	0.0006306	7
	55	158	0.956633	1317.239	-5549.483	1	5703.672	-76.64724	-1.074523E-008	-3.414682E-005	7
