EXPLAIN
TAG	EISPOT
TITLE	LABEL	Potentiostatic EIS	Test Identifier
DATE	LABEL	8/28/2020	Date
TIME	LABEL	10:01:34	Time
NOTES	NOTES	1	Notes...
	
PSTAT	PSTAT	REF3000-16137	Potentiostat
VDC	POTEN	0.00000E+000	T	DC Voltage (V)
FREQINIT	QUANT	3.00000E+005	Initial Freq. (Hz)
FREQFINAL	QUANT	1.00000E+000	Final Freq. (Hz)
PTSPERDEC	QUANT	1.00000E+001	Points/decade
VAC	QUANT	5.00000E+001	AC Voltage (mV rms)
AREA	QUANT	1.00000E+000	Sample Area (cm^2)
SPEED	SELECTOR	2	Optimize for:
ZGUESS	QUANT	1.00000E+003	Estimated Z (ohms)
EOC	QUANT	0	Open Circuit (V)
SEQUENCER	TOGGLE	TRUE	Run as Sequence
PSTATMODEL	IQUANT	5	Pstat Model
PSTATSECTION	LABEL	REF3000-16137	Pstat Section
PSTATSERIALNO	LABEL	16137	Pstat Serial Number
CTRLMODE	IQUANT	1	Control Mode
IESTAB	IQUANT	0	I/E Stability
CASPEED	IQUANT	1	Control Amp Speed
CONVENTION	IQUANT	1	Current Convention
ICHRANGE	IQUANT	2	Ich Range
ICHRANGEMODE	TOGGLE	F	Ich Auto Range
ICHOFFSETENABLE	TOGGLE	T	Ich Offset Enable
ICHOFFSET	QUANT	0	Ich Offset (V)
ICHFILTER	IQUANT	3	Ich Filter
VCHRANGE	IQUANT	2	Vch Range
VCHRANGEMODE	TOGGLE	F	Vch Auto Range
VCHOFFSETENABLE	TOGGLE	T	Vch Offset Enable
VCHOFFSET	QUANT	0	Vch Offset (V)
VCHFILTER	IQUANT	3	Vch Filter
ACHRANGE	IQUANT	2	Ach Range
ACHOFFSETENABLE	TOGGLE	F	Ach Offset Enable
ACHOFFSET	QUANT	0	Ach Offset (V)
ACHFILTER	IQUANT	3	Ach Filter
IERANGELOWERLIMIT	IQUANT	2	I/E Range Lower Limit
IERANGEMODE	TOGGLE	F	I/E AutoRange
IERANGE	IQUANT	11	I/E Range
POSFEEDENABLE	TOGGLE	F	Positive Feedback IR Comp
POSFEEDRESISTANCE	QUANT	0	Positive Feedback Resistance (ohm)
ACHSELECT	IQUANT	0	Ach Select
CABLEID	IQUANT	13	Cable ID
DCCALDATE	LABEL	7/31/2020	DC Calibration Date
ACCALDATE	LABEL	7/31/2020	AC Calibration Date
THERMOSELECT	IQUANT	1	Thermo Select
FRAMEWORKVERSION	QUANT	6.33	Framework Version
INSTRUMENTVERSION	LABEL	3.50	Instrument Version
COMPLIANCEVOLTAGE	IQUANT	0	Compliance Voltage
ZCURVE	TABLE
	Pt	Time	Freq	Zreal	Zimag	Zsig	Zmod	Zphz	Idc	Vdc	IERange
	#	s	Hz	ohm	ohm	V	ohm	°	A	V	#
	0	10	300046.9	4.385594	1.206098	1	4.548419	15.37698	2.011094E-005	2.546096E-005	10
	1	13	238359.4	4.358376	0.9490946	1	4.460518	12.28513	2.275497E-005	-0.0002277	10
	2	17	189328.1	4.355722	0.7394292	1	4.418039	9.6347	-6.165013E-005	8.345053E-005	10
	3	19	150421.9	4.3581	0.5716769	1	4.395435	7.473145	-9.477569E-005	0.000233	10
	4	22	119484.4	4.350688	0.4238425	1	4.371284	5.564176	-4.880263E-005	0.0004096	10
	5	24	94921.88	4.353816	0.3167206	1	4.36532	4.160683	3.244022E-005	0.0004346	10
	6	27	75421.88	4.355329	0.2073096	1	4.36026	2.725169	-1.718313E-005	0.0005354	10
	7	29	59859.37	4.358328	0.1088532	1	4.359687	1.430717	1.331685E-005	0.0005606	10
	8	32	47578.12	4.363422	0.017838	1	4.363459	0.2342282	-2.019612E-005	0.0006174	10
	9	34	37828.12	4.369606	-0.0717096	1	4.370194	-0.9401969	1.720283E-005	0.0005728	10
	10	37	30046.88	4.378755	-0.1631174	1	4.381792	-2.133396	-2.130614E-005	0.000661	10
	11	39	23859.38	4.38835	-0.2607414	1	4.39609	-3.40033	1.595724E-005	0.0006101	10
	12	42	18984.38	4.400074	-0.3679892	1	4.415435	-4.780665	2.025216E-005	0.0006152	10
	13	44	15046.87	4.413934	-0.4937615	1	4.441465	-6.382815	1.070288E-005	0.0006206	10
	14	46	11953.13	4.430931	-0.6410851	1	4.477068	-8.232657	-1.809238E-005	0.0006541	10
	15	49	9515.62	4.450654	-0.81542	1	4.524735	-10.38222	1.11701E-005	0.0006344	10
	16	51	7546.875	4.475554	-1.031627	1	4.592912	-12.98011	-2.280762E-005	0.000634	10
	17	53	5928.309	4.507328	-1.306976	1	4.692994	-16.17041	9.487419E-006	0.0006194	10
	18	55	4733.456	4.544365	-1.623946	1	4.825812	-19.66454	1.826873E-005	0.0006413	10
	19	58	3796.875	4.589725	-2.003062	1	5.007777	-23.57757	-6.384772E-006	0.000655	10
	20	60	2987.132	4.650345	-2.515793	1	5.287241	-28.41297	-1.997034E-005	0.000678	10
	21	62	2390.625	4.722269	-3.103574	1	5.65084	-33.31376	-3.083119E-005	0.0006566	10
	22	65	1884.191	4.821042	-3.878778	1	6.187678	-38.81848	-2.110853E-005	0.0006772	10
	23	67	1516.544	4.936705	-4.749601	1	6.85053	-43.89339	2.01748E-005	0.0006424	10
	24	69	1193.986	5.100136	-5.934683	1	7.825078	-49.32496	-2.653758E-005	0.000674	10
	25	72	946.5144	5.303156	-7.360994	1	9.072359	-54.2295	1.638752E-005	0.0006594	10
	26	74	751.7689	5.572833	-9.101207	1	10.67185	-58.52011	-2.618791E-005	0.0006675	10
	27	76	597.4265	5.924889	-11.24334	1	12.70894	-62.21218	-1.838319E-005	0.0006496	10
	28	79	477.4305	6.354762	-13.79387	1	15.18729	-65.26472	-2.678786E-006	0.0006628	10
	29	81	376.6741	6.946956	-17.09973	1	18.457	-67.89001	-3.053779E-006	0.0006623	10
	30	83	298.2954	7.69352	-21.09342	1	22.45267	-69.96129	-3.09638E-006	0.0006581	10
	31	86	237.7717	8.60939	-25.82999	1	27.22701	-71.56626	-3.133077E-006	0.0006581	10
	32	88	189.0121	9.76194	-31.66629	1	33.13683	-72.86675	-3.614286E-006	0.0006576	10
	33	90	150.2404	11.18113	-38.77751	1	40.35732	-73.91558	-3.090478E-006	0.0006615	10
	34	93	119.1737	12.91972	-47.4847	1	49.21093	-74.77931	1.174863E-006	8.516138E-005	9
	35	95	95.0169	15.0044	-57.93663	1	59.84801	-75.48057	1.1966E-006	6.036043E-005	9
	36	98	75.60484	17.5689	-70.81613	1	72.96294	-76.06671	1.050382E-006	5.620447E-005	9
	37	100	54.50582	22.30039	-94.43166	1	97.0291	-76.71282	9.982173E-007	5.076732E-005	9
	38	103	45.95588	25.39631	-109.7184	1	112.6193	-76.96737	1.133032E-006	6.225167E-005	9
	39	105	37.20238	30.02797	-132.1276	1	135.4968	-77.19617	1.212851E-006	5.137276E-005	9
	40	109	30.04808	35.82019	-159.5336	1	163.5055	-77.34521	1.058012E-006	5.843645E-005	9
	41	111	23.91582	43.41741	-194.8756	1	199.6537	-77.4399	1.007888E-006	5.630657E-005	9
	42	113	18.60119	54.25453	-242.8476	1	248.8343	-77.40637	1.215293E-006	6.393101E-005	9
	43	116	15.02404	65.79385	-292.8011	1	300.1022	-77.33571	1.460101E-006	6.926999E-005	9
	44	118	12.01923	81.1712	-355.6914	1	364.8358	-77.14485	1.208441E-006	5.690021E-005	9
	45	120	9.450605	101.9563	-436.369	1	448.1216	-76.84894	4.969413E-007	0.0006385	8
	46	123	7.512019	127.4698	-531.972	1	547.0308	-76.52499	4.651736E-007	0.0006547	8
	47	126	5.978954	160.2656	-646.9449	1	666.5004	-76.08641	3.68763E-007	0.000638	8
	48	129	4.734848	202.6964	-788.7401	1	814.3689	-75.58757	5.068199E-007	0.0006676	8
	49	132	3.75601	256.8474	-958.613	1	992.426	-75.00068	3.020824E-007	0.0006299	8
	50	135	3.004808	323.1542	-1153.819	1	1198.218	-74.35384	4.299741E-007	0.0006133	8
	51	139	2.372217	411.6325	-1400.816	1	1460.043	-73.62447	3.503339E-007	0.0006033	8
	52	143	1.878005	527.72	-1695.832	1	1776.044	-72.71456	3.144539E-007	0.0006404	8
	53	148	1.512097	660.2072	-2018.285	1	2123.522	-71.88641	3.707034E-007	0.000531	8
	54	153	1.201923	838.592	-2422.367	1	2563.415	-70.90481	3.3567E-007	0.0006459	8
	55	160	0.956633	1062.118	-2891.191	1	3080.11	-69.82851	3.099373E-007	-3.377674E-006	8
