EXPLAIN
TAG	EISPOT
TITLE	LABEL	Potentiostatic EIS	Test Identifier
DATE	LABEL	8/28/2020	Date
TIME	LABEL	11:14:46	Time
NOTES	NOTES	1	Notes...
	
PSTAT	PSTAT	REF3000-16137	Potentiostat
VDC	POTEN	0.00000E+000	T	DC Voltage (V)
FREQINIT	QUANT	3.00000E+005	Initial Freq. (Hz)
FREQFINAL	QUANT	1.00000E+000	Final Freq. (Hz)
PTSPERDEC	QUANT	1.00000E+001	Points/decade
VAC	QUANT	5.00000E+001	AC Voltage (mV rms)
AREA	QUANT	1.00000E+000	Sample Area (cm^2)
SPEED	SELECTOR	2	Optimize for:
ZGUESS	QUANT	1.00000E+003	Estimated Z (ohms)
EOC	QUANT	0	Open Circuit (V)
SEQUENCER	TOGGLE	TRUE	Run as Sequence
PSTATMODEL	IQUANT	5	Pstat Model
PSTATSECTION	LABEL	REF3000-16137	Pstat Section
PSTATSERIALNO	LABEL	16137	Pstat Serial Number
CTRLMODE	IQUANT	1	Control Mode
IESTAB	IQUANT	0	I/E Stability
CASPEED	IQUANT	1	Control Amp Speed
CONVENTION	IQUANT	1	Current Convention
ICHRANGE	IQUANT	2	Ich Range
ICHRANGEMODE	TOGGLE	F	Ich Auto Range
ICHOFFSETENABLE	TOGGLE	T	Ich Offset Enable
ICHOFFSET	QUANT	0	Ich Offset (V)
ICHFILTER	IQUANT	3	Ich Filter
VCHRANGE	IQUANT	2	Vch Range
VCHRANGEMODE	TOGGLE	F	Vch Auto Range
VCHOFFSETENABLE	TOGGLE	T	Vch Offset Enable
VCHOFFSET	QUANT	0	Vch Offset (V)
VCHFILTER	IQUANT	3	Vch Filter
ACHRANGE	IQUANT	2	Ach Range
ACHOFFSETENABLE	TOGGLE	F	Ach Offset Enable
ACHOFFSET	QUANT	0	Ach Offset (V)
ACHFILTER	IQUANT	3	Ach Filter
IERANGELOWERLIMIT	IQUANT	2	I/E Range Lower Limit
IERANGEMODE	TOGGLE	F	I/E AutoRange
IERANGE	IQUANT	11	I/E Range
POSFEEDENABLE	TOGGLE	F	Positive Feedback IR Comp
POSFEEDRESISTANCE	QUANT	0	Positive Feedback Resistance (ohm)
ACHSELECT	IQUANT	0	Ach Select
CABLEID	IQUANT	13	Cable ID
DCCALDATE	LABEL	7/31/2020	DC Calibration Date
ACCALDATE	LABEL	7/31/2020	AC Calibration Date
THERMOSELECT	IQUANT	1	Thermo Select
FRAMEWORKVERSION	QUANT	6.33	Framework Version
INSTRUMENTVERSION	LABEL	3.50	Instrument Version
COMPLIANCEVOLTAGE	IQUANT	0	Compliance Voltage
ZCURVE	TABLE
	Pt	Time	Freq	Zreal	Zimag	Zsig	Zmod	Zphz	Idc	Vdc	IERange
	#	s	Hz	ohm	ohm	V	ohm	°	A	V	#
	0	17	300046.9	599.8323	-98.6818	1	607.8954	-9.34237	-3.178963E-005	-0.0011166	9
	1	31	238359.4	622.4428	-86.43394	1	628.4153	-7.905677	-6.06864E-005	0.0005532	9
	2	38	189328.1	638.9025	-73.0099	1	643.0605	-6.519135	-1.982185E-005	0.0010893	9
	3	46	150421.9	653.1595	-61.79493	1	656.0762	-5.404624	2.55145E-005	-0.0018005	9
	4	52	119484.4	667.424	-31.06023	1	668.1463	-2.664479	5.199989E-005	-0.0162216	8
	5	59	94921.88	676.5803	-24.01429	1	677.0063	-2.032782	-1.634009E-005	0.0042422	8
	6	61	75421.88	680.2216	-19.50832	1	680.5012	-1.642756	9.337121E-006	-0.0057422	8
	7	64	59859.37	684.1298	-17.53209	1	684.3544	-1.467989	1.703057E-005	-0.0024584	8
	8	66	47578.12	688.6766	-14.22986	1	688.8235	-1.183713	-1.486961E-005	0.0028709	8
	9	69	37828.12	693.5641	-12.80242	1	693.6823	-1.057496	1.328411E-005	-0.0004017	8
	10	71	30046.88	699.8088	-10.72933	1	699.8911	-0.8783785	1.336492E-005	-0.0003872	8
	11	74	23859.38	704.6426	-8.411949	1	704.6929	-0.6839585	-1.17125E-005	0.0075663	8
	12	76	18984.38	709.2836	-7.457326	1	709.3228	-0.602379	2.166733E-006	0.0041219	8
	13	79	15046.87	715.6561	-11.72845	1	715.7522	-0.9389017	9.265148E-006	-0.0057032	8
	14	81	11953.13	718.9724	-7.57074	1	719.0123	-0.6032991	1.745715E-005	-0.0027311	8
	15	84	9515.62	722.4848	-5.536155	1	722.506	-0.4390294	-1.514833E-005	0.0032691	8
	16	87	7546.875	727.6526	-5.89037	1	727.6765	-0.463801	3.301313E-007	0.0049426	8
	17	89	5928.309	727.8803	-5.792621	1	727.9034	-0.455962	-1.530818E-005	0.0075568	8
	18	92	4733.456	738.0709	-5.540342	1	738.0917	-0.4300837	-8.271246E-006	-0.0005335	8
	19	94	3796.875	742.949	-6.784573	1	742.98	-0.5232077	9.979343E-006	-0.0057752	8
	20	97	2987.132	748.0746	-5.441749	1	748.0944	-0.4167816	1.729328E-005	-0.0060718	8
	21	100	2390.625	753.6043	-7.553696	1	753.6422	-0.5742807	7.556723E-006	0.0022672	8
	22	102	1884.191	755.8431	-4.543193	1	755.8568	-0.3443871	-1.260397E-005	0.0014538	8
	23	105	1516.544	764.1097	-8.149664	1	764.1532	-0.6110688	-1.259082E-005	0.001439	8
	24	108	1193.986	769.9714	-12.21049	1	770.0682	-0.9085414	1.888672E-005	-0.0052932	8
	25	111	946.5144	776.4142	-14.31301	1	776.5461	-1.056115	1.893286E-005	-0.0052724	8
	26	113	751.7689	782.2733	-16.36065	1	782.4443	-1.198123	-1.578135E-005	0.0077413	8
	27	116	597.4265	788.1321	-22.51077	1	788.4536	-1.636048	1.872306E-005	-0.0039231	8
	28	118	477.4305	791.9608	-25.25271	1	792.3633	-1.826332	-1.607719E-007	0.0006272	8
	29	121	376.6741	797.5327	-31.19306	1	798.1425	-2.239808	-1.407561E-007	0.0006283	8
	30	123	298.2954	803.2721	-38.46488	1	804.1925	-2.741528	-1.212959E-007	0.0006204	8
	31	125	237.7717	809.4855	-47.22795	1	810.862	-3.339033	-1.605746E-007	0.0006345	8
	32	128	189.0121	815.9732	-58.20718	1	818.0467	-4.080264	-1.608954E-007	0.0006565	8
	33	130	150.2404	822.8129	-71.77734	1	825.9377	-4.985525	-1.521006E-007	0.0006489	8
	34	133	119.1737	830.1204	-88.65389	1	834.8409	-6.095879	-1.498415E-007	0.0006386	8
	35	135	95.0169	838.022	-109.1664	1	845.1025	-7.421943	-1.339418E-007	0.0006167	8
	36	138	75.60484	846.9137	-134.6016	1	857.5432	-9.030595	-1.677975E-007	0.0006417	8
	37	140	54.50582	858.7919	-181.7202	1	877.8074	-11.94754	-1.357604E-007	0.0006405	8
	38	143	45.95588	868.225	-212.5598	1	893.8659	-13.75663	-1.796319E-007	0.0006454	8
	39	145	37.20238	879.5406	-258.0104	1	916.603	-16.34888	-1.48142E-007	0.0006489	8
	40	147	30.04808	892.6813	-313.8875	1	946.2585	-19.37286	-1.802813E-007	0.0006473	8
	41	150	23.91582	908.2762	-386.9323	1	987.26	-23.07436	-1.01552E-007	0.000636	8
	42	152	18.60119	927.728	-487.401	1	1047.969	-27.71611	-9.36926E-008	0.0006426	8
	43	154	15.02404	948.7705	-592.7664	1	1118.721	-31.99604	-6.878542E-008	0.0006484	8
	44	157	12.01923	974.754	-726.5939	1	1215.765	-36.70131	-2.332644E-007	0.0006591	8
	45	159	9.450605	1007.814	-905.2549	1	1354.686	-41.93133	-1.357106E-007	0.00064	8
	46	162	7.512019	1048.194	-1115.896	1	1530.992	-46.79187	-1.702163E-007	0.0006414	8
	47	164	5.978954	1097.827	-1373.112	1	1758.027	-51.35705	-1.949653E-007	0.0006442	8
	48	167	4.734848	1163.106	-1697.615	1	2057.842	-55.58335	-1.550964E-007	0.0006407	8
	49	171	3.75601	1243.218	-2093.686	1	2434.977	-59.29842	-1.887556E-007	0.0006345	8
	50	174	3.004808	1340.615	-2557.823	1	2887.854	-62.33992	-1.523518E-007	0.0006158	8
	51	178	2.372217	1469.064	-3156.154	1	3481.301	-65.03989	-1.50439E-007	0.0006505	8
	52	182	1.878005	1635.805	-3892.405	1	4222.165	-67.20515	-1.738343E-007	0.0006284	8
	53	187	1.512097	1822.048	-4724.064	1	5063.264	-68.90862	-3.391593E-008	0.0005241	7
	54	192	1.201923	2073.666	-5788.532	1	6148.755	-70.2906	-4.855508E-008	0.000611	7
	55	198	0.956633	2368.673	-7069.2	1	7455.481	-71.47557	-4.680302E-008	-3.359761E-005	7
