EXPLAIN
TAG	EISPOT
TITLE	LABEL	Potentiostatic EIS	Test Identifier
DATE	LABEL	8/28/2020	Date
TIME	LABEL	10:49:01	Time
NOTES	NOTES	1	Notes...
	
PSTAT	PSTAT	REF3000-16137	Potentiostat
VDC	POTEN	0.00000E+000	T	DC Voltage (V)
FREQINIT	QUANT	3.00000E+005	Initial Freq. (Hz)
FREQFINAL	QUANT	1.00000E+000	Final Freq. (Hz)
PTSPERDEC	QUANT	1.00000E+001	Points/decade
VAC	QUANT	5.00000E+001	AC Voltage (mV rms)
AREA	QUANT	1.00000E+000	Sample Area (cm^2)
SPEED	SELECTOR	2	Optimize for:
ZGUESS	QUANT	1.00000E+003	Estimated Z (ohms)
EOC	QUANT	0	Open Circuit (V)
SEQUENCER	TOGGLE	TRUE	Run as Sequence
PSTATMODEL	IQUANT	5	Pstat Model
PSTATSECTION	LABEL	REF3000-16137	Pstat Section
PSTATSERIALNO	LABEL	16137	Pstat Serial Number
CTRLMODE	IQUANT	1	Control Mode
IESTAB	IQUANT	0	I/E Stability
CASPEED	IQUANT	1	Control Amp Speed
CONVENTION	IQUANT	1	Current Convention
ICHRANGE	IQUANT	2	Ich Range
ICHRANGEMODE	TOGGLE	F	Ich Auto Range
ICHOFFSETENABLE	TOGGLE	T	Ich Offset Enable
ICHOFFSET	QUANT	0	Ich Offset (V)
ICHFILTER	IQUANT	3	Ich Filter
VCHRANGE	IQUANT	2	Vch Range
VCHRANGEMODE	TOGGLE	F	Vch Auto Range
VCHOFFSETENABLE	TOGGLE	T	Vch Offset Enable
VCHOFFSET	QUANT	0	Vch Offset (V)
VCHFILTER	IQUANT	3	Vch Filter
ACHRANGE	IQUANT	2	Ach Range
ACHOFFSETENABLE	TOGGLE	F	Ach Offset Enable
ACHOFFSET	QUANT	0	Ach Offset (V)
ACHFILTER	IQUANT	3	Ach Filter
IERANGELOWERLIMIT	IQUANT	2	I/E Range Lower Limit
IERANGEMODE	TOGGLE	F	I/E AutoRange
IERANGE	IQUANT	11	I/E Range
POSFEEDENABLE	TOGGLE	F	Positive Feedback IR Comp
POSFEEDRESISTANCE	QUANT	0	Positive Feedback Resistance (ohm)
ACHSELECT	IQUANT	0	Ach Select
CABLEID	IQUANT	13	Cable ID
DCCALDATE	LABEL	7/31/2020	DC Calibration Date
ACCALDATE	LABEL	7/31/2020	AC Calibration Date
THERMOSELECT	IQUANT	1	Thermo Select
FRAMEWORKVERSION	QUANT	6.33	Framework Version
INSTRUMENTVERSION	LABEL	3.50	Instrument Version
COMPLIANCEVOLTAGE	IQUANT	0	Compliance Voltage
ZCURVE	TABLE
	Pt	Time	Freq	Zreal	Zimag	Zsig	Zmod	Zphz	Idc	Vdc	IERange
	#	s	Hz	ohm	ohm	V	ohm	°	A	V	#
	0	7	300046.9	38.01746	1.234885	1	38.03751	1.86043	1.577656E-005	-0.0010548	9
	1	10	238359.4	38.16698	1.008999	1	38.18031	1.514343	5.318831E-006	-0.0012815	9
	2	13	189328.1	38.36739	0.7702178	1	38.37512	1.150047	-4.832268E-007	0.0002449	9
	3	16	150421.9	38.5111	0.5262039	1	38.51469	0.7828234	8.038563E-006	-0.0010672	9
	4	18	119484.4	38.64414	0.4078751	1	38.64629	0.604714	6.113309E-006	-0.0005983	9
	5	21	94921.88	38.80617	0.4128272	1	38.80837	0.6095001	-1.182564E-005	0.0004566	9
	6	23	75421.88	38.92428	0.2539477	1	38.92511	0.3738007	-9.943612E-006	0.0005066	9
	7	26	59859.37	39.0494	0.121388	1	39.04959	0.1781077	-1.341309E-005	0.000434	9
	8	28	47578.12	39.17607	0.0010107	1	39.17607	0.0014782	3.609586E-006	-0.0003127	9
	9	31	37828.12	39.31088	-0.1241134	1	39.31108	-0.1808952	1.781132E-005	-0.0003898	9
	10	33	30046.88	39.45087	-0.2532788	1	39.45168	-0.36784	1.839389E-005	-0.0003656	9
	11	36	23859.38	39.59915	-0.3806072	1	39.60098	-0.5506814	-1.284126E-005	0.0003408	9
	12	38	18984.38	39.73072	-0.5265471	1	39.73421	-0.7592905	1.418701E-005	-7.297713E-005	9
	13	41	15046.87	39.86381	-0.6849234	1	39.86969	-0.984335	1.4387E-005	-0.0001612	9
	14	43	11953.13	40.03325	-0.8721372	1	40.04275	-1.24801	-1.270931E-005	0.0003507	9
	15	45	9515.62	40.1664	-1.099983	1	40.18146	-1.568689	1.873656E-005	-0.0004345	9
	16	48	7546.875	40.31311	-1.369153	1	40.33635	-1.945187	-1.335559E-005	0.0003142	9
	17	50	5928.309	40.48761	-1.729941	1	40.52455	-2.446627	-1.282962E-005	0.0003311	9
	18	52	4733.456	40.66442	-2.156456	1	40.72156	-3.035583	9.563875E-006	6.587205E-005	9
	19	55	3796.875	40.83737	-2.638476	1	40.92252	-3.696706	-2.120639E-006	0.0004695	9
	20	57	2987.132	41.04299	-3.292821	1	41.17487	-4.586935	1.852463E-005	-0.0003631	9
	21	59	2390.625	41.26381	-4.066611	1	41.46371	-5.628411	-2.382341E-006	0.0004769	9
	22	61	1884.191	41.50887	-5.060318	1	41.81618	-6.950591	-8.218115E-006	0.0005507	9
	23	64	1516.544	41.77058	-6.197527	1	42.22784	-8.439443	-1.509248E-005	0.0004944	9
	24	66	1193.986	42.09569	-7.727248	1	42.79903	-10.40164	-1.303519E-005	0.0003296	9
	25	69	946.5144	42.45398	-9.59241	1	43.52419	-12.73209	1.359824E-005	-0.0004845	9
	26	71	751.7689	42.8583	-11.86605	1	44.47063	-15.47565	8.659625E-006	-0.0004149	9
	27	73	597.4265	43.34176	-14.67304	1	45.75813	-18.70316	-8.369971E-006	0.0005552	9
	28	76	477.4305	43.90535	-18.05629	1	47.47325	-22.35515	1.296494E-006	6.739487E-005	9
	29	78	376.6741	44.61399	-22.47633	1	49.95592	-26.73876	1.342586E-006	5.453917E-005	9
	30	80	298.2954	45.46447	-27.87868	1	53.33141	-31.5165	1.30838E-006	6.158745E-005	9
	31	83	237.7717	46.49011	-34.3641	1	57.81195	-36.4707	1.345643E-006	5.870825E-005	9
	32	85	189.0121	47.77201	-42.45567	1	63.91125	-41.62795	1.398778E-006	4.913655E-005	9
	33	87	150.2404	49.37567	-52.43235	1	72.02158	-46.71973	1.280652E-006	5.489476E-005	9
	34	90	119.1737	51.41245	-64.85197	1	82.75879	-51.59381	1.324756E-006	5.309157E-005	9
	35	92	95.0169	53.94564	-79.7897	1	96.3147	-55.93746	1.084389E-006	0.0000973	9
	36	95	75.60484	57.19041	-98.2651	1	113.696	-59.80054	1.371371E-006	5.22283E-005	9
	37	97	54.50582	63.36926	-132.173	1	146.5789	-64.38499	1.351803E-006	5.016226E-005	9
	38	100	45.95588	67.59705	-154.1429	1	168.3134	-66.32087	1.325675E-006	5.922842E-005	9
	39	102	37.20238	73.9342	-186.242	1	200.3805	-68.34795	1.280619E-006	6.225155E-005	9
	40	104	30.04808	81.84925	-225.2602	1	239.6695	-70.03117	1.129036E-006	0.0001	9
	41	107	23.91582	92.2916	-275.6369	1	290.6776	-71.48789	1.381565E-006	5.554068E-005	9
	42	109	18.60119	106.5794	-343.6814	1	359.8278	-72.77075	1.499485E-006	5.47123E-005	9
	43	112	15.02404	120.8588	-412.6844	1	430.0177	-73.6768	4.056662E-007	0.0006487	8
	44	114	12.01923	139.4405	-501.4441	1	520.4708	-74.45993	3.466478E-007	0.0006392	8
	45	116	9.450605	163.7297	-618.6016	1	639.9026	-75.17506	4.158056E-007	0.0006264	8
	46	119	7.512019	192.0124	-755.8417	1	779.8497	-75.74622	4.074895E-007	0.0006551	8
	47	122	5.978954	226.1485	-922.9742	1	950.276	-76.23254	4.057169E-007	0.0006389	8
	48	125	4.734848	269.7586	-1133.234	1	1164.899	-76.61033	3.602818E-007	0.0006447	8
	49	128	3.75601	322.2609	-1388.604	1	1425.508	-76.93434	4.092622E-007	0.0006404	8
	50	131	3.004808	385.0529	-1688.012	1	1731.373	-77.15012	3.546983E-007	0.0006669	8
	51	135	2.372217	468.4011	-2074.023	1	2126.258	-77.27372	3.811104E-007	0.0006626	8
	52	139	1.878005	575.3502	-2549.821	1	2613.927	-77.28454	4.116435E-007	0.0006173	8
	53	144	1.512097	692.0723	-3081.888	1	3158.639	-77.34355	3.886379E-007	0.0007344	8
	54	149	1.201923	853.8091	-3769.42	1	3864.908	-77.23733	4.174779E-007	0.0006383	8
	55	156	0.956633	1052.284	-4604.484	1	4723.195	-77.12701	1.141478E-008	-2.325673E-005	7
