EXPLAIN
TAG	EISPOT
TITLE	LABEL	Potentiostatic EIS	Test Identifier
DATE	LABEL	8/28/2020	Date
TIME	LABEL	11:31:28	Time
NOTES	NOTES	1	Notes...
	
PSTAT	PSTAT	REF3000-16137	Potentiostat
VDC	POTEN	0.00000E+000	T	DC Voltage (V)
FREQINIT	QUANT	3.00000E+005	Initial Freq. (Hz)
FREQFINAL	QUANT	1.00000E+000	Final Freq. (Hz)
PTSPERDEC	QUANT	1.00000E+001	Points/decade
VAC	QUANT	5.00000E+001	AC Voltage (mV rms)
AREA	QUANT	1.00000E+000	Sample Area (cm^2)
SPEED	SELECTOR	2	Optimize for:
ZGUESS	QUANT	1.00000E+003	Estimated Z (ohms)
EOC	QUANT	0	Open Circuit (V)
SEQUENCER	TOGGLE	TRUE	Run as Sequence
PSTATMODEL	IQUANT	5	Pstat Model
PSTATSECTION	LABEL	REF3000-16137	Pstat Section
PSTATSERIALNO	LABEL	16137	Pstat Serial Number
CTRLMODE	IQUANT	1	Control Mode
IESTAB	IQUANT	0	I/E Stability
CASPEED	IQUANT	1	Control Amp Speed
CONVENTION	IQUANT	1	Current Convention
ICHRANGE	IQUANT	2	Ich Range
ICHRANGEMODE	TOGGLE	F	Ich Auto Range
ICHOFFSETENABLE	TOGGLE	T	Ich Offset Enable
ICHOFFSET	QUANT	0	Ich Offset (V)
ICHFILTER	IQUANT	3	Ich Filter
VCHRANGE	IQUANT	2	Vch Range
VCHRANGEMODE	TOGGLE	F	Vch Auto Range
VCHOFFSETENABLE	TOGGLE	T	Vch Offset Enable
VCHOFFSET	QUANT	0	Vch Offset (V)
VCHFILTER	IQUANT	3	Vch Filter
ACHRANGE	IQUANT	2	Ach Range
ACHOFFSETENABLE	TOGGLE	F	Ach Offset Enable
ACHOFFSET	QUANT	0	Ach Offset (V)
ACHFILTER	IQUANT	3	Ach Filter
IERANGELOWERLIMIT	IQUANT	2	I/E Range Lower Limit
IERANGEMODE	TOGGLE	F	I/E AutoRange
IERANGE	IQUANT	11	I/E Range
POSFEEDENABLE	TOGGLE	F	Positive Feedback IR Comp
POSFEEDRESISTANCE	QUANT	0	Positive Feedback Resistance (ohm)
ACHSELECT	IQUANT	0	Ach Select
CABLEID	IQUANT	13	Cable ID
DCCALDATE	LABEL	7/31/2020	DC Calibration Date
ACCALDATE	LABEL	7/31/2020	AC Calibration Date
THERMOSELECT	IQUANT	1	Thermo Select
FRAMEWORKVERSION	QUANT	6.33	Framework Version
INSTRUMENTVERSION	LABEL	3.50	Instrument Version
COMPLIANCEVOLTAGE	IQUANT	0	Compliance Voltage
ZCURVE	TABLE
	Pt	Time	Freq	Zreal	Zimag	Zsig	Zmod	Zphz	Idc	Vdc	IERange
	#	s	Hz	ohm	ohm	V	ohm	°	A	V	#
	0	14	300046.9	1223.516	-3482.584	1	3691.258	-70.64239	2.010528E-005	-0.0023359	9
	1	32	238359.4	1685.249	-4222.321	1	4546.213	-68.24165	7.833652E-005	-0.0015824	9
	2	47	189328.1	2330.468	-4915.996	1	5440.414	-64.63633	8.162082E-005	-0.0034245	9
	3	55	150421.9	3193.832	-5754.087	1	6581.039	-60.96734	8.661795E-005	-0.0024541	9
	4	64	119484.4	4499.604	-6357.467	1	7788.699	-54.7104	6.733574E-005	-0.0135686	8
	5	72	94921.88	5691.219	-7125.995	1	9119.747	-51.38718	-1.179665E-005	0.0100029	8
	6	81	75421.88	7185.796	-7728.214	1	10552.77	-47.08291	2.5745E-005	-0.0051354	8
	7	89	59859.37	9042.341	-8188.016	1	12198.67	-42.16145	-1.589822E-005	0.0007324	8
	8	98	47578.12	10865.33	-8410.137	1	13739.93	-37.7411	8.684892E-006	0.0039602	8
	9	106	37828.12	13868.29	-7271.34	1	15658.92	-27.66866	1.423864E-006	-0.0189124	7
	10	112	30046.88	15395.8	-6829.671	1	16842.65	-23.92237	4.420648E-006	-8.627383E-006	7
	11	117	23859.38	16673.23	-6251.823	1	17806.8	-20.55412	-6.144115E-006	0.0240122	7
	12	122	18984.38	17850.65	-5523.255	1	18685.61	-17.19284	2.275607E-007	0.0156279	7
	13	126	15046.87	18809.04	-4825.643	1	19418.21	-14.38943	2.417397E-006	0.0085381	7
	14	130	11953.13	19699.22	-4187.19	1	20139.31	-11.99998	-6.829259E-006	0.0218869	7
	15	134	9515.62	20356.8	-3593.115	1	20671.48	-10.00999	6.122508E-006	-0.0088286	7
	16	138	7546.875	20918.59	-2984.734	1	21130.46	-8.120342	2.941846E-007	0.0156386	7
	17	143	5928.309	21501.25	-2491.393	1	21645.11	-6.6095	-6.789662E-006	0.021757	7
	18	147	4733.456	22173.03	-2025.874	1	22265.39	-5.220423	2.47421E-006	0.0084766	7
	19	151	3796.875	22527.09	-1755.834	1	22595.41	-4.456807	4.444155E-006	-4.551954E-005	7
	20	156	2987.132	23023.99	-1598.161	1	23079.39	-3.970693	-6.216283E-006	0.0108101	7
	21	160	2390.625	23231.41	-1413.86	1	23274.39	-3.482716	2.445267E-006	0.0083702	7
	22	164	1884.191	24159.58	-1322.049	1	24195.73	-3.132189	4.478905E-006	-6.025974E-005	7
	23	168	1516.544	24366.59	-1132.766	1	24392.91	-2.661677	-2.372992E-005	0.0052827	8
	24	176	1193.986	25512.02	-882.5458	1	25527.28	-1.981262	-2.598162E-005	0.0075202	8
	25	183	946.5144	26572.14	-2314.402	1	26672.74	-4.977833	-1.613378E-005	0.00072	8
	26	187	751.7689	27951.91	-111.372	1	27952.14	-0.2282889	2.301996E-005	-0.002912	8
	27	193	597.4265	26152.84	245.2419	1	26153.99	0.5372615	-2.193377E-006	0.0076942	8
	28	200	477.4305	27929.73	-402.838	1	27932.64	-0.826335	-8.275508E-008	0.0006482	7
	29	203	376.6741	28218.63	-351.4426	1	28220.81	-0.7135406	-8.469178E-008	0.0006472	7
	30	205	298.2954	28505.11	-304.6028	1	28506.73	-0.6122339	-8.311342E-008	0.0006305	7
	31	208	237.7717	28811.17	-277.5781	1	28812.51	-0.5519928	-8.36957E-008	0.0006243	7
	32	210	189.0121	29121.51	-259.8677	1	29122.67	-0.5112692	-8.472411E-008	0.0006499	7
	33	213	150.2404	29554.96	-252.2449	1	29556.03	-0.4889948	-8.393344E-008	0.0006424	7
	34	216	119.1737	29887.5	-232.8316	1	29888.4	-0.4463405	-7.449932E-008	0.0006192	7
	35	218	95.0169	30179.11	-269.0195	1	30180.31	-0.5107265	-7.608396E-008	0.0006166	7
	36	221	75.60484	30510.22	-288.0935	1	30511.58	-0.5410007	-7.898117E-008	0.0005487	7
	37	223	54.50582	30851.03	-343.793	1	30852.95	-0.6384575	-7.950923E-008	0.0006372	7
	38	226	45.95588	31197.46	-380.3307	1	31199.77	-0.6984629	-8.036738E-008	0.0005678	7
	39	228	37.20238	31527.63	-447.0205	1	31530.8	-0.8123246	-7.559419E-008	0.0005608	7
	40	231	30.04808	31855.9	-522.0914	1	31860.18	-0.9389456	-7.046027E-008	0.0006477	7
	41	233	23.91582	32213.93	-635.8823	1	32220.2	-1.130835	-8.93785E-008	0.000648	7
	42	235	18.60119	32573.27	-785.5756	1	32582.74	-1.381545	-1.007703E-007	0.0005593	7
	43	238	15.02404	32921.36	-933.4904	1	32934.59	-1.624196	-6.004208E-008	0.000649	7
	44	240	12.01923	33300.11	-1105.477	1	33318.45	-1.901372	-8.950494E-008	0.0006443	7
	45	243	9.450605	33672.39	-1357.196	1	33699.73	-2.308109	-3.928626E-008	0.000582	7
	46	245	7.512019	34106.61	-1709.331	1	34149.42	-2.869109	-5.801736E-008	0.0005805	7
	47	248	5.978954	34603.98	-2097.685	1	34667.51	-3.469011	-5.516605E-008	0.0005832	7
	48	251	4.734848	35130.96	-2623.466	1	35228.78	-4.270736	-4.052308E-008	0.0005849	7
	49	254	3.75601	35750.14	-3246.332	1	35897.23	-5.188578	-1.131401E-007	0.0006249	7
	50	257	3.004808	36506.3	-3897.312	1	36713.74	-6.09366	-9.815803E-008	0.0006062	7
	51	261	2.372217	37297.5	-4818.471	1	37607.46	-7.361281	-2.317774E-008	0.0007233	6
	52	265	1.878005	38265.03	-5993.304	1	38731.54	-8.901696	-3.315303E-008	0.0006519	6
	53	270	1.512097	39357.49	-7261.3	1	40021.73	-10.45329	-3.106267E-008	0.0006628	6
	54	276	1.201923	40496.17	-8916.271	1	41466.13	-12.41702	-1.327517E-008	0.0006169	6
	55	282	0.956633	42133.12	-10975.55	1	43539.21	-14.60088	-3.06754E-008	7.110594E-006	6
