Z60W Data File: Version 1.1
CorrTest for Windows: SN CS310H1805157  V5.2.1111.9  2.5H6.220118
Sweep Frequency: Control Voltage
  Date:4-30-2026   Time:14:44:24
  Begin Information:            Cell Information
      Surface Area:           1
      Density:                7.8
      Weight:                 28
  End Information:              Cell Information
  Freq (Hz)     Ampl(mV)       Bias(V)      Time(Sec)       Z'(Ohm.cm^2)    Z''(Ohm.cm^2)        GD       Err      Range
End Comments
  3.07200E+05,	1.00000E+01,	-3.55037E-02,	3.65455E-02,	1.38658E+02,	-6.70792E+00,	0.00000E+00,	0,	0
  2.76480E+05,	1.00000E+01,	-3.55037E-02,	1.63190E+00,	1.39772E+02,	-8.69736E+00,	0.00000E+00,	0,	0
  1.97486E+05,	1.00000E+01,	-3.55037E-02,	2.57338E+00,	1.44236E+02,	-1.02869E+01,	0.00000E+00,	0,	0
  1.53600E+05,	1.00000E+01,	-3.55037E-02,	3.47874E+00,	1.47505E+02,	-1.08247E+01,	0.00000E+00,	0,	0
  1.25673E+05,	1.00000E+01,	-3.55037E-02,	4.41744E+00,	1.49555E+02,	-1.02042E+01,	0.00000E+00,	0,	0
  9.87429E+04,	1.00000E+01,	-3.55037E-02,	5.32498E+00,	1.51934E+02,	-1.01104E+01,	0.00000E+00,	0,	0
  7.68000E+04,	1.00000E+01,	-3.55037E-02,	6.23761E+00,	1.53595E+02,	-9.45457E+00,	0.00000E+00,	0,	0
  6.01043E+04,	1.00000E+01,	-3.55037E-02,	7.23479E+00,	1.55315E+02,	-8.88155E+00,	0.00000E+00,	0,	0
  4.93714E+04,	1.00000E+01,	-3.55037E-02,	8.80368E+00,	1.56600E+02,	-8.71772E+00,	0.00000E+00,	0,	0
  3.84000E+04,	1.00000E+01,	-3.55037E-02,	9.70470E+00,	1.57613E+02,	-8.39108E+00,	0.00000E+00,	0,	0
  3.00522E+04,	1.00000E+01,	-3.55037E-02,	1.05936E+01,	1.60590E+02,	-8.56269E+00,	0.00000E+00,	0,	0
  2.38345E+04,	1.00000E+01,	-3.55037E-02,	1.14633E+01,	1.59788E+02,	-8.11613E+00,	0.00000E+00,	0,	0
  1.86811E+04,	1.00000E+01,	-3.55037E-02,	1.23287E+01,	1.61128E+02,	-8.27862E+00,	0.00000E+00,	0,	0
  1.47064E+04,	1.00000E+01,	-3.55037E-02,	1.32902E+01,	1.61730E+02,	-8.84329E+00,	0.00000E+00,	0,	0
  1.15200E+04,	1.00000E+01,	-3.55037E-02,	1.42537E+01,	1.63366E+02,	-9.07213E+00,	0.00000E+00,	0,	0
  9.60000E+03,	1.00000E+01,	-3.55037E-02,	1.58150E+01,	1.64941E+02,	-9.47230E+00,	0.00000E+00,	0,	0
  7.51304E+03,	1.00000E+01,	-3.55037E-02,	1.67206E+01,	1.66477E+02,	-9.73367E+00,	0.00000E+00,	0,	0
  5.76000E+03,	1.00000E+01,	-3.55037E-02,	1.76083E+01,	1.68248E+02,	-9.83156E+00,	0.00000E+00,	0,	0
  4.54737E+03,	1.00000E+01,	-3.55037E-02,	1.84789E+01,	1.70155E+02,	-9.50592E+00,	0.00000E+00,	0,	0
  3.60000E+03,	1.00000E+01,	-3.55037E-02,	1.95051E+01,	1.71898E+02,	-9.38252E+00,	0.00000E+00,	0,	0
  2.88000E+03,	1.00000E+01,	-3.55037E-02,	2.04095E+01,	1.73636E+02,	-9.29372E+00,	0.00000E+00,	0,	0
  2.27368E+03,	1.00000E+01,	-3.55037E-02,	2.26776E+01,	1.74857E+02,	-9.61368E+00,	0.00000E+00,	0,	0
  1.78144E+03,	1.00000E+01,	-3.55037E-02,	2.34734E+01,	1.75840E+02,	-9.63167E+00,	0.00000E+00,	0,	0
  1.41639E+03,	1.00000E+01,	-3.55037E-02,	2.43771E+01,	1.76703E+02,	-1.02171E+01,	0.00000E+00,	0,	0
  1.12208E+03,	1.00000E+01,	-3.55037E-02,	2.53939E+01,	1.78033E+02,	-1.07261E+01,	0.00000E+00,	0,	0
  9.00000E+02,	1.00000E+01,	-3.55037E-02,	3.03659E+01,	1.79393E+02,	-1.11160E+01,	0.00000E+00,	0,	0
  7.20000E+02,	1.00000E+01,	-3.55037E-02,	3.17364E+01,	1.80260E+02,	-1.23593E+01,	0.00000E+00,	0,	0
  5.68421E+02,	1.00000E+01,	-3.55037E-02,	3.31159E+01,	1.81167E+02,	-1.40652E+01,	0.00000E+00,	0,	0
  4.40816E+02,	1.00000E+01,	-3.55037E-02,	3.45573E+01,	1.82280E+02,	-1.65268E+01,	0.00000E+00,	0,	0
  3.54098E+02,	1.00000E+01,	-3.55037E-02,	3.69233E+01,	1.83548E+02,	-1.92023E+01,	0.00000E+00,	0,	0
  2.76923E+02,	1.00000E+01,	-3.55037E-02,	3.95607E+01,	1.84840E+02,	-2.29849E+01,	0.00000E+00,	0,	0
  2.20408E+02,	1.00000E+01,	-3.55037E-02,	4.25403E+01,	1.86411E+02,	-2.73742E+01,	0.00000E+00,	0,	0
  1.74194E+02,	1.00000E+01,	-3.55037E-02,	4.58241E+01,	1.88254E+02,	-3.30053E+01,	0.00000E+00,	0,	0
  1.37580E+02,	1.00000E+01,	-3.55037E-02,	4.94531E+01,	1.90384E+02,	-3.99701E+01,	0.00000E+00,	0,	0
  1.09091E+02,	1.00000E+01,	-3.55037E-02,	5.35361E+01,	1.92913E+02,	-4.85244E+01,	0.00000E+00,	0,	0
  8.70968E+01,	1.00000E+01,	-3.55037E-02,	5.92344E+01,	1.96074E+02,	-5.88425E+01,	0.00000E+00,	0,	0
  6.83544E+01,	1.00000E+01,	-3.55037E-02,	6.42730E+01,	2.00601E+02,	-7.29602E+01,	0.00000E+00,	0,	0
  5.45455E+01,	1.00000E+01,	-3.55037E-02,	6.97217E+01,	2.02582E+02,	-8.57623E+01,	0.00000E+00,	0,	0
  4.28571E+01,	1.00000E+01,	-3.55037E-02,	7.32492E+01,	2.07223E+02,	-1.05523E+02,	0.00000E+00,	0,	0
  3.39623E+01,	1.00000E+01,	-3.55037E-02,	7.69702E+01,	2.11299E+02,	-1.29665E+02,	0.00000E+00,	0,	0
  2.68657E+01,	1.00000E+01,	-3.55037E-02,	8.08078E+01,	2.19051E+02,	-1.59065E+02,	0.00000E+00,	0,	0
  2.13439E+01,	1.00000E+01,	-3.55037E-02,	8.46105E+01,	2.27773E+02,	-1.94222E+02,	0.00000E+00,	0,	0
  1.73077E+01,	1.00000E+01,	-3.55037E-02,	8.82857E+01,	2.37321E+02,	-2.33086E+02,	0.00000E+00,	0,	0
  1.36364E+01,	1.00000E+01,	-3.55037E-02,	9.33072E+01,	2.50985E+02,	-2.86713E+02,	0.00000E+00,	0,	0
  1.07143E+01,	1.00000E+01,	-3.55037E-02,	9.62216E+01,	2.68321E+02,	-3.53200E+02,	0.00000E+00,	0,	0
  8.49057E+00,	1.00000E+01,	-3.55037E-02,	1.00429E+02,	2.90258E+02,	-4.31827E+02,	0.00000E+00,	0,	0
  6.71642E+00,	1.00000E+01,	-3.55037E-02,	1.02955E+02,	3.17870E+02,	-5.26823E+02,	0.00000E+00,	0,	0
  5.29412E+00,	1.00000E+01,	-3.55037E-02,	1.05939E+02,	3.53521E+02,	-6.42657E+02,	0.00000E+00,	0,	0
  4.16667E+00,	1.00000E+01,	-3.55037E-02,	1.09439E+02,	3.98627E+02,	-7.83230E+02,	0.00000E+00,	0,	0
  3.30882E+00,	1.00000E+01,	-3.55037E-02,	1.13677E+02,	4.51970E+02,	-9.44922E+02,	0.00000E+00,	0,	0
  2.61628E+00,	1.00000E+01,	-3.55037E-02,	1.17658E+02,	5.17228E+02,	-1.14019E+03,	0.00000E+00,	0,	0
  2.07373E+00,	1.00000E+01,	-3.55037E-02,	1.22451E+02,	5.93527E+02,	-1.37168E+03,	0.00000E+00,	0,	0
  1.64234E+00,	1.00000E+01,	-3.55037E-02,	1.28254E+02,	6.81617E+02,	-1.65043E+03,	0.00000E+00,	0,	0
  1.30058E+00,	1.00000E+01,	-3.55037E-02,	1.32448E+02,	7.83183E+02,	-1.98545E+03,	0.00000E+00,	0,	0
  1.03211E+00,	1.00000E+01,	-3.55037E-02,	1.36872E+02,	8.98338E+02,	-2.39066E+03,	0.00000E+00,	0,	0
  8.15217E-01,	1.00000E+01,	-3.55037E-02,	1.43817E+02,	1.02901E+03,	-2.89190E+03,	0.00000E+00,	0,	0
  6.46552E-01,	1.00000E+01,	-3.55037E-02,	1.52955E+02,	1.17746E+03,	-3.49935E+03,	0.00000E+00,	0,	0
  5.11364E-01,	1.00000E+01,	-3.55037E-02,	1.57954E+02,	1.31760E+03,	-4.26486E+03,	0.00000E+00,	0,	0
  4.07609E-01,	1.00000E+01,	-3.55037E-02,	1.64013E+02,	1.51776E+03,	-5.16590E+03,	0.00000E+00,	0,	0
  3.21429E-01,	1.00000E+01,	-3.55037E-02,	1.71178E+02,	1.76899E+03,	-6.40321E+03,	0.00000E+00,	0,	0
  2.54525E-01,	1.00000E+01,	-3.55037E-02,	1.79960E+02,	2.07452E+03,	-7.80967E+03,	0.00000E+00,	0,	0
  2.01613E-01,	1.00000E+01,	-3.55037E-02,	1.90809E+02,	2.43964E+03,	-9.54232E+03,	0.00000E+00,	0,	0
  1.59574E-01,	1.00000E+01,	-3.55037E-02,	2.04305E+02,	2.88470E+03,	-1.16774E+04,	0.00000E+00,	0,	0
  1.26689E-01,	1.00000E+01,	-3.55037E-02,	2.38202E+02,	3.45116E+03,	-1.40930E+04,	0.00000E+00,	0,	0
  1.00446E-01,	1.00000E+01,	-3.55037E-02,	2.59066E+02,	4.00038E+03,	-1.75754E+04,	0.00000E+00,	0,	0