Z60W Data File: Version 1.1
CorrTest for Windows: SN CS310H1805157  V5.2.1111.9  2.5H6.220118
Sweep Frequency: Control Voltage
  Date:4-30-2026   Time:16:52:29
  Begin Information:            Cell Information
      Surface Area:           1
      Density:                7.8
      Weight:                 28
  End Information:              Cell Information
  Freq (Hz)     Ampl(mV)       Bias(V)      Time(Sec)       Z'(Ohm.cm^2)    Z''(Ohm.cm^2)        GD       Err      Range
End Comments
  3.07200E+05,	1.00000E+01,	-4.50879E-02,	5.99543E-02,	6.02477E+02,	-3.26634E+02,	0.00000E+00,	0,	0
  2.76480E+05,	1.00000E+01,	-4.50879E-02,	1.66629E+00,	6.14849E+02,	-3.52613E+02,	0.00000E+00,	0,	0
  1.97486E+05,	1.00000E+01,	-4.50879E-02,	2.58695E+00,	6.81337E+02,	-4.30624E+02,	0.00000E+00,	0,	0
  1.53600E+05,	1.00000E+01,	-4.50879E-02,	3.55223E+00,	7.75269E+02,	-4.95420E+02,	0.00000E+00,	0,	0
  1.25673E+05,	1.00000E+01,	-4.50879E-02,	4.46444E+00,	8.70350E+02,	-5.39553E+02,	0.00000E+00,	0,	0
  9.87429E+04,	1.00000E+01,	-4.50879E-02,	5.37998E+00,	9.68786E+02,	-5.87168E+02,	0.00000E+00,	0,	0
  7.68000E+04,	1.00000E+01,	-4.50879E-02,	6.27837E+00,	1.09791E+03,	-6.24994E+02,	0.00000E+00,	0,	0
  6.01043E+04,	1.00000E+01,	-4.50879E-02,	8.38055E+00,	1.24956E+03,	-6.20735E+02,	0.00000E+00,	0,	0
  4.93714E+04,	1.00000E+01,	-4.50879E-02,	9.95345E+00,	1.35959E+03,	-5.95360E+02,	0.00000E+00,	0,	0
  3.84000E+04,	1.00000E+01,	-4.50879E-02,	1.08643E+01,	1.49032E+03,	-5.53407E+02,	0.00000E+00,	0,	0
  3.00522E+04,	1.00000E+01,	-4.50879E-02,	1.17573E+01,	1.69119E+03,	-3.12999E+02,	0.00000E+00,	0,	0
  2.38345E+04,	1.00000E+01,	-4.50879E-02,	1.26224E+01,	1.65840E+03,	-4.19659E+02,	0.00000E+00,	0,	0
  1.86811E+04,	1.00000E+01,	-4.50879E-02,	1.34959E+01,	1.74253E+03,	-3.84883E+02,	0.00000E+00,	0,	0
  1.47064E+04,	1.00000E+01,	-4.50879E-02,	1.44478E+01,	1.74693E+03,	-3.15288E+02,	0.00000E+00,	0,	0
  1.15200E+04,	1.00000E+01,	-4.50879E-02,	1.54026E+01,	1.77097E+03,	-2.55669E+02,	0.00000E+00,	0,	0
  9.60000E+03,	1.00000E+01,	-4.50879E-02,	1.69854E+01,	1.79590E+03,	-2.28168E+02,	0.00000E+00,	0,	0
  7.51304E+03,	1.00000E+01,	-4.50879E-02,	1.78793E+01,	1.82112E+03,	-2.12191E+02,	0.00000E+00,	0,	0
  5.76000E+03,	1.00000E+01,	-4.50879E-02,	1.87757E+01,	1.82789E+03,	-1.73486E+02,	0.00000E+00,	0,	0
  4.54737E+03,	1.00000E+01,	-4.50879E-02,	1.96453E+01,	1.84497E+03,	-1.75397E+02,	0.00000E+00,	0,	0
  3.60000E+03,	1.00000E+01,	-4.50879E-02,	2.06274E+01,	1.87109E+03,	-1.73557E+02,	0.00000E+00,	0,	0
  2.88000E+03,	1.00000E+01,	-4.50879E-02,	2.15158E+01,	1.89804E+03,	-1.49382E+02,	0.00000E+00,	0,	0
  2.27368E+03,	1.00000E+01,	-4.50879E-02,	2.26654E+01,	1.92444E+03,	-1.75962E+02,	0.00000E+00,	0,	0
  1.78144E+03,	1.00000E+01,	-4.50879E-02,	2.34546E+01,	1.94367E+03,	-1.76324E+02,	0.00000E+00,	0,	0
  1.41639E+03,	1.00000E+01,	-4.50879E-02,	2.43526E+01,	1.97438E+03,	-1.90672E+02,	0.00000E+00,	0,	0
  1.12208E+03,	1.00000E+01,	-4.50879E-02,	2.53807E+01,	1.99917E+03,	-1.47118E+02,	0.00000E+00,	0,	0
  9.00000E+02,	1.00000E+01,	-4.50879E-02,	3.03885E+01,	2.02643E+03,	-1.35287E+02,	0.00000E+00,	0,	0
  7.20000E+02,	1.00000E+01,	-4.50879E-02,	3.18009E+01,	2.04683E+03,	-1.23061E+02,	0.00000E+00,	0,	0
  5.68421E+02,	1.00000E+01,	-4.50879E-02,	3.31685E+01,	2.06420E+03,	-1.10702E+02,	0.00000E+00,	0,	0
  4.40816E+02,	1.00000E+01,	-4.50879E-02,	3.62053E+01,	2.08003E+03,	-1.00115E+02,	0.00000E+00,	0,	0
  3.54098E+02,	1.00000E+01,	-4.50879E-02,	3.85626E+01,	2.09230E+03,	-9.26775E+01,	0.00000E+00,	0,	0
  2.76923E+02,	1.00000E+01,	-4.50879E-02,	4.12110E+01,	2.10193E+03,	-8.91890E+01,	0.00000E+00,	0,	0
  2.20408E+02,	1.00000E+01,	-4.50879E-02,	4.41846E+01,	2.11078E+03,	-8.75333E+01,	0.00000E+00,	0,	0
  1.74194E+02,	1.00000E+01,	-4.50879E-02,	4.74313E+01,	2.12055E+03,	-9.23440E+01,	0.00000E+00,	0,	0
  1.37580E+02,	1.00000E+01,	-4.50879E-02,	5.11239E+01,	2.13137E+03,	-9.84550E+01,	0.00000E+00,	0,	0
  1.09091E+02,	1.00000E+01,	-4.50879E-02,	5.52169E+01,	2.14418E+03,	-1.10720E+02,	0.00000E+00,	0,	0
  8.70968E+01,	1.00000E+01,	-4.50879E-02,	6.08965E+01,	2.16051E+03,	-1.26655E+02,	0.00000E+00,	0,	0
  6.83544E+01,	1.00000E+01,	-4.50879E-02,	6.59636E+01,	2.18680E+03,	-1.52695E+02,	0.00000E+00,	0,	0
  5.45455E+01,	1.00000E+01,	-4.50879E-02,	7.14122E+01,	2.17657E+03,	-1.59122E+02,	0.00000E+00,	0,	0
  4.28571E+01,	1.00000E+01,	-4.50879E-02,	7.49821E+01,	2.19042E+03,	-1.89946E+02,	0.00000E+00,	0,	0
  3.39623E+01,	1.00000E+01,	-4.50879E-02,	7.87042E+01,	2.19735E+03,	-2.37793E+02,	0.00000E+00,	0,	0
  2.68657E+01,	1.00000E+01,	-4.50879E-02,	8.25534E+01,	2.22494E+03,	-2.81739E+02,	0.00000E+00,	0,	0
  2.13439E+01,	1.00000E+01,	-4.50879E-02,	8.64043E+01,	2.24928E+03,	-3.34867E+02,	0.00000E+00,	0,	0
  1.73077E+01,	1.00000E+01,	-4.50879E-02,	9.00702E+01,	2.27357E+03,	-3.95391E+02,	0.00000E+00,	0,	0
  1.36364E+01,	1.00000E+01,	-4.50879E-02,	9.51083E+01,	2.30462E+03,	-4.78045E+02,	0.00000E+00,	0,	0
  1.07143E+01,	1.00000E+01,	-4.50879E-02,	9.80127E+01,	2.33796E+03,	-5.80936E+02,	0.00000E+00,	0,	0
  8.49057E+00,	1.00000E+01,	-4.50879E-02,	1.02208E+02,	2.37541E+03,	-7.04163E+02,	0.00000E+00,	0,	0
  6.71642E+00,	1.00000E+01,	-4.50879E-02,	1.04720E+02,	2.42011E+03,	-8.52008E+02,	0.00000E+00,	0,	0
  5.29412E+00,	1.00000E+01,	-4.50879E-02,	1.07661E+02,	2.47114E+03,	-1.03656E+03,	0.00000E+00,	0,	0
  4.16667E+00,	1.00000E+01,	-4.50879E-02,	1.11182E+02,	2.53196E+03,	-1.26491E+03,	0.00000E+00,	0,	0
  3.30882E+00,	1.00000E+01,	-4.50879E-02,	1.15432E+02,	2.60186E+03,	-1.53561E+03,	0.00000E+00,	0,	0
  2.61628E+00,	1.00000E+01,	-4.50879E-02,	1.19399E+02,	2.68450E+03,	-1.87288E+03,	0.00000E+00,	0,	0
  2.07373E+00,	1.00000E+01,	-4.50879E-02,	1.24165E+02,	2.78243E+03,	-2.28298E+03,	0.00000E+00,	0,	0
  1.64234E+00,	1.00000E+01,	-4.50879E-02,	1.29932E+02,	2.89978E+03,	-2.79062E+03,	0.00000E+00,	0,	0
  1.30058E+00,	1.00000E+01,	-4.50879E-02,	1.34077E+02,	3.04072E+03,	-3.41198E+03,	0.00000E+00,	0,	0
  1.03211E+00,	1.00000E+01,	-4.50879E-02,	1.38455E+02,	3.21830E+03,	-4.17175E+03,	0.00000E+00,	0,	0
  8.15217E-01,	1.00000E+01,	-4.50879E-02,	1.45380E+02,	3.43323E+03,	-5.11799E+03,	0.00000E+00,	0,	0
  6.46552E-01,	1.00000E+01,	-4.50879E-02,	1.50180E+02,	3.70737E+03,	-6.26041E+03,	0.00000E+00,	0,	0
  5.11364E-01,	1.00000E+01,	-4.50879E-02,	1.55172E+02,	3.98787E+03,	-7.74608E+03,	0.00000E+00,	0,	0
  4.07609E-01,	1.00000E+01,	-4.50879E-02,	1.61216E+02,	4.41425E+03,	-9.41768E+03,	0.00000E+00,	0,	0
  3.21429E-01,	1.00000E+01,	-4.50879E-02,	1.68319E+02,	5.04955E+03,	-1.17484E+04,	0.00000E+00,	0,	0
  2.54525E-01,	1.00000E+01,	-4.50879E-02,	1.77053E+02,	5.77620E+03,	-1.42730E+04,	0.00000E+00,	0,	0
  2.01613E-01,	1.00000E+01,	-4.50879E-02,	1.87869E+02,	6.67802E+03,	-1.73535E+04,	0.00000E+00,	0,	0
  1.59574E-01,	1.00000E+01,	-4.50879E-02,	2.01302E+02,	7.80559E+03,	-2.10757E+04,	0.00000E+00,	0,	0
  1.26689E-01,	1.00000E+01,	-4.50879E-02,	2.35177E+02,	9.18300E+03,	-2.51384E+04,	0.00000E+00,	0,	0
  1.00446E-01,	1.00000E+01,	-4.50879E-02,	2.56030E+02,	1.07804E+04,	-3.12586E+04,	0.00000E+00,	0,	0