Z60W Data File: Version 1.1
CorrTest for Windows: SN CS310H1805157  V5.2.1111.9  2.5H6.220118
Sweep Frequency: Control Voltage
  Date:4-30-2026   Time:10:54:09
  Begin Information:            Cell Information
      Surface Area:           1
      Density:                7.8
      Weight:                 28
  End Information:              Cell Information
  Freq (Hz)     Ampl(mV)       Bias(V)      Time(Sec)       Z'(Ohm.cm^2)    Z''(Ohm.cm^2)        GD       Err      Range
End Comments
  3.07200E+05,	1.00000E+01,	-2.39614E-02,	2.90159E-02,	-1.61848E-01,	4.14674E+00,	0.00000E+00,	0,	0
  2.76480E+05,	1.00000E+01,	-2.39614E-02,	1.66955E+00,	4.47260E-01,	3.07463E+00,	0.00000E+00,	0,	0
  1.97486E+05,	1.00000E+01,	-2.39614E-02,	2.58719E+00,	1.29396E+00,	2.20570E+00,	0.00000E+00,	0,	0
  1.53600E+05,	1.00000E+01,	-2.39614E-02,	3.49154E+00,	1.63172E+00,	1.64593E+00,	0.00000E+00,	0,	0
  1.25673E+05,	1.00000E+01,	-2.39614E-02,	4.45238E+00,	1.82034E+00,	1.30055E+00,	0.00000E+00,	0,	0
  9.87429E+04,	1.00000E+01,	-2.39614E-02,	5.38424E+00,	1.99351E+00,	9.73284E-01,	0.00000E+00,	0,	0
  7.68000E+04,	1.00000E+01,	-2.39614E-02,	6.28212E+00,	2.10611E+00,	7.19718E-01,	0.00000E+00,	0,	0
  6.01043E+04,	1.00000E+01,	-2.39614E-02,	9.49888E+00,	2.19249E+00,	4.86985E-01,	0.00000E+00,	0,	0
  4.93714E+04,	1.00000E+01,	-2.39614E-02,	1.11120E+01,	2.20844E+00,	3.48673E-01,	0.00000E+00,	0,	0
  3.84000E+04,	1.00000E+01,	-2.39614E-02,	1.20119E+01,	2.21939E+00,	1.93589E-01,	0.00000E+00,	0,	0
  3.00522E+04,	1.00000E+01,	-2.39614E-02,	1.29416E+01,	2.23346E+00,	5.20689E-02,	0.00000E+00,	0,	0
  2.38345E+04,	1.00000E+01,	-2.39614E-02,	1.38220E+01,	2.24705E+00,	-7.30159E-02,	0.00000E+00,	0,	0
  1.86811E+04,	1.00000E+01,	-2.39614E-02,	1.46617E+01,	2.26360E+00,	-2.07411E-01,	0.00000E+00,	0,	0
  1.47064E+04,	1.00000E+01,	-2.39614E-02,	1.56530E+01,	2.28272E+00,	-3.44713E-01,	0.00000E+00,	0,	0
  1.15200E+04,	1.00000E+01,	-2.39614E-02,	1.66577E+01,	2.31208E+00,	-4.97460E-01,	0.00000E+00,	0,	0
  9.60000E+03,	1.00000E+01,	-2.39614E-02,	1.82241E+01,	2.33505E+00,	-6.22273E-01,	0.00000E+00,	0,	0
  7.51304E+03,	1.00000E+01,	-2.39614E-02,	1.90986E+01,	2.37390E+00,	-8.19365E-01,	0.00000E+00,	0,	0
  5.76000E+03,	1.00000E+01,	-2.39614E-02,	2.00122E+01,	2.42479E+00,	-1.06725E+00,	0.00000E+00,	0,	0
  4.54737E+03,	1.00000E+01,	-2.39614E-02,	2.08717E+01,	2.48039E+00,	-1.33845E+00,	0.00000E+00,	0,	0
  3.60000E+03,	1.00000E+01,	-2.39614E-02,	2.18803E+01,	2.55111E+00,	-1.65903E+00,	0.00000E+00,	0,	0
  2.88000E+03,	1.00000E+01,	-2.39614E-02,	2.27744E+01,	2.62735E+00,	-2.02569E+00,	0.00000E+00,	0,	0
  2.27368E+03,	1.00000E+01,	-2.39614E-02,	2.50490E+01,	2.62393E+00,	-2.48078E+00,	0.00000E+00,	0,	0
  1.78144E+03,	1.00000E+01,	-2.39614E-02,	2.58749E+01,	2.75433E+00,	-3.07812E+00,	0.00000E+00,	0,	0
  1.41639E+03,	1.00000E+01,	-2.39614E-02,	2.67931E+01,	2.91184E+00,	-3.75836E+00,	0.00000E+00,	0,	0
  1.12208E+03,	1.00000E+01,	-2.39614E-02,	2.78363E+01,	3.10485E+00,	-4.60989E+00,	0.00000E+00,	0,	0
  9.00000E+02,	1.00000E+01,	-2.39614E-02,	3.28235E+01,	3.34463E+00,	-5.59827E+00,	0.00000E+00,	0,	0
  7.20000E+02,	1.00000E+01,	-2.39614E-02,	3.42187E+01,	3.63229E+00,	-6.79399E+00,	0.00000E+00,	0,	0
  5.68421E+02,	1.00000E+01,	-2.39614E-02,	3.55854E+01,	4.02264E+00,	-8.33631E+00,	0.00000E+00,	0,	0
  4.40816E+02,	1.00000E+01,	-2.39614E-02,	3.86195E+01,	4.57429E+00,	-1.03994E+01,	0.00000E+00,	0,	0
  3.54098E+02,	1.00000E+01,	-2.39614E-02,	4.09546E+01,	5.17260E+00,	-1.25366E+01,	0.00000E+00,	0,	0
  2.76923E+02,	1.00000E+01,	-2.39614E-02,	4.36409E+01,	6.04411E+00,	-1.54330E+01,	0.00000E+00,	0,	0
  2.20408E+02,	1.00000E+01,	-2.39614E-02,	4.65695E+01,	7.07563E+00,	-1.86805E+01,	0.00000E+00,	0,	0
  1.74194E+02,	1.00000E+01,	-2.39614E-02,	4.98347E+01,	8.41824E+00,	-2.26674E+01,	0.00000E+00,	0,	0
  1.37580E+02,	1.00000E+01,	-2.39614E-02,	5.35009E+01,	1.01103E+01,	-2.74391E+01,	0.00000E+00,	0,	0
  1.09091E+02,	1.00000E+01,	-2.39614E-02,	5.76041E+01,	1.21482E+01,	-3.29994E+01,	0.00000E+00,	0,	0
  8.70968E+01,	1.00000E+01,	-2.39614E-02,	6.32945E+01,	1.45082E+01,	-3.94176E+01,	0.00000E+00,	0,	0
  6.83544E+01,	1.00000E+01,	-2.39614E-02,	6.83121E+01,	1.75325E+01,	-4.78022E+01,	0.00000E+00,	0,	0
  5.45455E+01,	1.00000E+01,	-2.39614E-02,	7.37582E+01,	2.09073E+01,	-5.59347E+01,	0.00000E+00,	0,	0
  4.28571E+01,	1.00000E+01,	-2.39614E-02,	7.73071E+01,	2.48632E+01,	-6.71619E+01,	0.00000E+00,	0,	0
  3.39623E+01,	1.00000E+01,	-2.39614E-02,	8.10269E+01,	2.86351E+01,	-8.01758E+01,	0.00000E+00,	0,	0
  2.68657E+01,	1.00000E+01,	-2.39614E-02,	8.49025E+01,	3.36258E+01,	-9.64894E+01,	0.00000E+00,	0,	0
  2.13439E+01,	1.00000E+01,	-2.39614E-02,	8.87101E+01,	3.90902E+01,	-1.15868E+02,	0.00000E+00,	0,	0
  1.73077E+01,	1.00000E+01,	-2.39614E-02,	9.54174E+01,	4.47656E+01,	-1.37467E+02,	0.00000E+00,	0,	0
  1.36364E+01,	1.00000E+01,	-2.39614E-02,	1.00477E+02,	5.19916E+01,	-1.67093E+02,	0.00000E+00,	0,	0
  1.07143E+01,	1.00000E+01,	-2.39614E-02,	1.03385E+02,	6.05684E+01,	-2.04115E+02,	0.00000E+00,	0,	0
  8.49057E+00,	1.00000E+01,	-2.39614E-02,	1.07617E+02,	7.03764E+01,	-2.48243E+02,	0.00000E+00,	0,	0
  6.71642E+00,	1.00000E+01,	-2.39614E-02,	1.10144E+02,	8.22463E+01,	-3.02797E+02,	0.00000E+00,	0,	0
  5.29412E+00,	1.00000E+01,	-2.39614E-02,	1.13141E+02,	9.68432E+01,	-3.70798E+02,	0.00000E+00,	0,	0
  4.16667E+00,	1.00000E+01,	-2.39614E-02,	1.16632E+02,	1.14222E+02,	-4.55080E+02,	0.00000E+00,	0,	0
  3.30882E+00,	1.00000E+01,	-2.39614E-02,	1.20870E+02,	1.33948E+02,	-5.54511E+02,	0.00000E+00,	0,	0
  2.61628E+00,	1.00000E+01,	-2.39614E-02,	1.24853E+02,	1.57625E+02,	-6.78051E+02,	0.00000E+00,	0,	0
  2.07373E+00,	1.00000E+01,	-2.39614E-02,	1.29647E+02,	1.83933E+02,	-8.28726E+02,	0.00000E+00,	0,	0
  1.64234E+00,	1.00000E+01,	-2.39614E-02,	1.35463E+02,	2.13393E+02,	-1.01542E+03,	0.00000E+00,	0,	0
  1.30058E+00,	1.00000E+01,	-2.39614E-02,	1.39644E+02,	2.47325E+02,	-1.24702E+03,	0.00000E+00,	0,	0
  1.03211E+00,	1.00000E+01,	-2.39614E-02,	1.44087E+02,	2.85136E+02,	-1.53328E+03,	0.00000E+00,	0,	0
  8.15217E-01,	1.00000E+01,	-2.39614E-02,	1.51029E+02,	3.29790E+02,	-1.89672E+03,	0.00000E+00,	0,	0
  6.46552E-01,	1.00000E+01,	-2.39614E-02,	1.60158E+02,	3.82237E+02,	-2.34252E+03,	0.00000E+00,	0,	0
  5.11364E-01,	1.00000E+01,	-2.39614E-02,	1.65173E+02,	4.39624E+02,	-2.90715E+03,	0.00000E+00,	0,	0
  4.07609E-01,	1.00000E+01,	-2.39614E-02,	1.71235E+02,	5.19656E+02,	-3.58775E+03,	0.00000E+00,	0,	0
  3.21429E-01,	1.00000E+01,	-2.39614E-02,	1.78395E+02,	6.21965E+02,	-4.49782E+03,	0.00000E+00,	0,	0
  2.54525E-01,	1.00000E+01,	-2.39614E-02,	1.87169E+02,	7.62549E+02,	-5.58588E+03,	0.00000E+00,	0,	0
  2.01613E-01,	1.00000E+01,	-2.39614E-02,	1.98023E+02,	9.42723E+02,	-6.93824E+03,	0.00000E+00,	0,	0
  1.59574E-01,	1.00000E+01,	-2.39614E-02,	2.11467E+02,	1.18227E+03,	-8.62387E+03,	0.00000E+00,	0,	0
  1.26689E-01,	1.00000E+01,	-2.39614E-02,	2.28383E+02,	1.49586E+03,	-1.06803E+04,	0.00000E+00,	0,	0
  1.00446E-01,	1.00000E+01,	-2.39614E-02,	2.49257E+02,	1.91138E+03,	-1.32456E+04,	0.00000E+00,	0,	0