Z60W Data File: Version 1.1
CorrTest for Windows: SN CS310H1805157  V5.2.1111.9  2.5H6.220118
Sweep Frequency: Control Voltage
  Date:4-30-2026   Time:15:40:09
  Begin Information:            Cell Information
      Surface Area:           1
      Density:                7.8
      Weight:                 28
  End Information:              Cell Information
  Freq (Hz)     Ampl(mV)       Bias(V)      Time(Sec)       Z'(Ohm.cm^2)    Z''(Ohm.cm^2)        GD       Err      Range
End Comments
  3.07200E+05,	1.00000E+01,	-4.13659E-02,	5.96123E-02,	3.09989E+02,	-7.83726E+01,	0.00000E+00,	0,	0
  2.76480E+05,	1.00000E+01,	-4.13659E-02,	1.69441E+00,	3.14515E+02,	-8.89352E+01,	0.00000E+00,	0,	0
  1.97486E+05,	1.00000E+01,	-4.13659E-02,	2.65122E+00,	3.44673E+02,	-1.11442E+02,	0.00000E+00,	0,	0
  1.53600E+05,	1.00000E+01,	-4.13659E-02,	3.56773E+00,	3.76791E+02,	-1.21663E+02,	0.00000E+00,	0,	0
  1.25673E+05,	1.00000E+01,	-4.13659E-02,	4.46929E+00,	4.04508E+02,	-1.21194E+02,	0.00000E+00,	0,	0
  9.87429E+04,	1.00000E+01,	-4.13659E-02,	5.36713E+00,	4.29541E+02,	-1.19136E+02,	0.00000E+00,	0,	0
  7.68000E+04,	1.00000E+01,	-4.13659E-02,	6.26925E+00,	4.54942E+02,	-1.11549E+02,	0.00000E+00,	0,	0
  6.01043E+04,	1.00000E+01,	-4.13659E-02,	7.26342E+00,	4.77237E+02,	-9.73110E+01,	0.00000E+00,	0,	0
  4.93714E+04,	1.00000E+01,	-4.13659E-02,	8.83645E+00,	4.92464E+02,	-8.58371E+01,	0.00000E+00,	0,	0
  3.84000E+04,	1.00000E+01,	-4.13659E-02,	9.75930E+00,	4.99754E+02,	-7.22230E+01,	0.00000E+00,	0,	0
  3.00522E+04,	1.00000E+01,	-4.13659E-02,	1.06581E+01,	5.23647E+02,	-4.84600E+01,	0.00000E+00,	0,	0
  2.38345E+04,	1.00000E+01,	-4.13659E-02,	1.15127E+01,	5.15232E+02,	-5.55381E+01,	0.00000E+00,	0,	0
  1.86811E+04,	1.00000E+01,	-4.13659E-02,	1.23793E+01,	5.13598E+02,	-4.48217E+01,	0.00000E+00,	0,	0
  1.47064E+04,	1.00000E+01,	-4.13659E-02,	1.33758E+01,	5.27005E+02,	-4.54693E+01,	0.00000E+00,	0,	0
  1.15200E+04,	1.00000E+01,	-4.13659E-02,	1.43477E+01,	5.28860E+02,	-3.98909E+01,	0.00000E+00,	0,	0
  9.60000E+03,	1.00000E+01,	-4.13659E-02,	1.59297E+01,	5.28702E+02,	-3.79906E+01,	0.00000E+00,	0,	0
  7.51304E+03,	1.00000E+01,	-4.13659E-02,	1.68659E+01,	5.38009E+02,	-3.89672E+01,	0.00000E+00,	0,	0
  5.76000E+03,	1.00000E+01,	-4.13659E-02,	1.77880E+01,	5.40278E+02,	-3.75870E+01,	0.00000E+00,	0,	0
  4.54737E+03,	1.00000E+01,	-4.13659E-02,	1.86436E+01,	5.46363E+02,	-4.13478E+01,	0.00000E+00,	0,	0
  3.60000E+03,	1.00000E+01,	-4.13659E-02,	1.96277E+01,	5.56276E+02,	-3.82000E+01,	0.00000E+00,	0,	0
  2.88000E+03,	1.00000E+01,	-4.13659E-02,	2.05302E+01,	5.61932E+02,	-3.56115E+01,	0.00000E+00,	0,	0
  2.27368E+03,	1.00000E+01,	-4.13659E-02,	2.28057E+01,	5.68587E+02,	-3.75625E+01,	0.00000E+00,	0,	0
  1.78144E+03,	1.00000E+01,	-4.13659E-02,	2.35997E+01,	5.72313E+02,	-3.29773E+01,	0.00000E+00,	0,	0
  1.41639E+03,	1.00000E+01,	-4.13659E-02,	2.44934E+01,	5.82133E+02,	-2.92333E+01,	0.00000E+00,	0,	0
  1.12208E+03,	1.00000E+01,	-4.13659E-02,	2.55185E+01,	5.84162E+02,	-2.83259E+01,	0.00000E+00,	0,	0
  9.00000E+02,	1.00000E+01,	-4.13659E-02,	3.04978E+01,	5.87185E+02,	-2.74432E+01,	0.00000E+00,	0,	0
  7.20000E+02,	1.00000E+01,	-4.13659E-02,	3.18646E+01,	5.89689E+02,	-2.67565E+01,	0.00000E+00,	0,	0
  5.68421E+02,	1.00000E+01,	-4.13659E-02,	3.32474E+01,	5.92225E+02,	-2.68325E+01,	0.00000E+00,	0,	0
  4.40816E+02,	1.00000E+01,	-4.13659E-02,	3.46993E+01,	5.94342E+02,	-2.78849E+01,	0.00000E+00,	0,	0
  3.54098E+02,	1.00000E+01,	-4.13659E-02,	3.70477E+01,	5.96541E+02,	-3.05171E+01,	0.00000E+00,	0,	0
  2.76923E+02,	1.00000E+01,	-4.13659E-02,	3.96803E+01,	5.99234E+02,	-3.42984E+01,	0.00000E+00,	0,	0
  2.20408E+02,	1.00000E+01,	-4.13659E-02,	4.25833E+01,	6.01959E+02,	-3.91740E+01,	0.00000E+00,	0,	0
  1.74194E+02,	1.00000E+01,	-4.13659E-02,	4.58541E+01,	6.05010E+02,	-4.58011E+01,	0.00000E+00,	0,	0
  1.37580E+02,	1.00000E+01,	-4.13659E-02,	4.95145E+01,	6.08894E+02,	-5.43847E+01,	0.00000E+00,	0,	0
  1.09091E+02,	1.00000E+01,	-4.13659E-02,	5.35804E+01,	6.13636E+02,	-6.49112E+01,	0.00000E+00,	0,	0
  8.70968E+01,	1.00000E+01,	-4.13659E-02,	5.92793E+01,	6.19734E+02,	-7.81745E+01,	0.00000E+00,	0,	0
  6.83544E+01,	1.00000E+01,	-4.13659E-02,	6.43032E+01,	6.29256E+02,	-9.62547E+01,	0.00000E+00,	0,	0
  5.45455E+01,	1.00000E+01,	-4.13659E-02,	6.97658E+01,	6.28746E+02,	-1.09155E+02,	0.00000E+00,	0,	0
  4.28571E+01,	1.00000E+01,	-4.13659E-02,	7.33136E+01,	6.35700E+02,	-1.33195E+02,	0.00000E+00,	0,	0
  3.39623E+01,	1.00000E+01,	-4.13659E-02,	7.70522E+01,	6.40753E+02,	-1.64232E+02,	0.00000E+00,	0,	0
  2.68657E+01,	1.00000E+01,	-4.13659E-02,	8.09217E+01,	6.52921E+02,	-1.98912E+02,	0.00000E+00,	0,	0
  2.13439E+01,	1.00000E+01,	-4.13659E-02,	8.47611E+01,	6.64877E+02,	-2.40704E+02,	0.00000E+00,	0,	0
  1.73077E+01,	1.00000E+01,	-4.13659E-02,	8.84251E+01,	6.76856E+02,	-2.86946E+02,	0.00000E+00,	0,	0
  1.36364E+01,	1.00000E+01,	-4.13659E-02,	9.34627E+01,	6.93026E+02,	-3.51547E+02,	0.00000E+00,	0,	0
  1.07143E+01,	1.00000E+01,	-4.13659E-02,	9.63664E+01,	7.11410E+02,	-4.32335E+02,	0.00000E+00,	0,	0
  8.49057E+00,	1.00000E+01,	-4.13659E-02,	1.00567E+02,	7.33477E+02,	-5.28233E+02,	0.00000E+00,	0,	0
  6.71642E+00,	1.00000E+01,	-4.13659E-02,	1.03086E+02,	7.59889E+02,	-6.47818E+02,	0.00000E+00,	0,	0
  5.29412E+00,	1.00000E+01,	-4.13659E-02,	1.06039E+02,	7.93385E+02,	-7.96971E+02,	0.00000E+00,	0,	0
  4.16667E+00,	1.00000E+01,	-4.13659E-02,	1.09545E+02,	8.36181E+02,	-9.82630E+02,	0.00000E+00,	0,	0
  3.30882E+00,	1.00000E+01,	-4.13659E-02,	1.16088E+02,	8.88398E+02,	-1.20123E+03,	0.00000E+00,	0,	0
  2.61628E+00,	1.00000E+01,	-4.13659E-02,	1.20035E+02,	9.56773E+02,	-1.47348E+03,	0.00000E+00,	0,	0
  2.07373E+00,	1.00000E+01,	-4.13659E-02,	1.24822E+02,	1.04400E+03,	-1.80189E+03,	0.00000E+00,	0,	0
  1.64234E+00,	1.00000E+01,	-4.13659E-02,	1.30619E+02,	1.15552E+03,	-2.20146E+03,	0.00000E+00,	0,	0
  1.30058E+00,	1.00000E+01,	-4.13659E-02,	1.34790E+02,	1.29799E+03,	-2.68101E+03,	0.00000E+00,	0,	0
  1.03211E+00,	1.00000E+01,	-4.13659E-02,	1.39206E+02,	1.47967E+03,	-3.25475E+03,	0.00000E+00,	0,	0
  8.15217E-01,	1.00000E+01,	-4.13659E-02,	1.46148E+02,	1.70093E+03,	-3.94580E+03,	0.00000E+00,	0,	0
  6.46552E-01,	1.00000E+01,	-4.13659E-02,	1.50991E+02,	1.97480E+03,	-4.76109E+03,	0.00000E+00,	0,	0
  5.11364E-01,	1.00000E+01,	-4.13659E-02,	1.56071E+02,	2.23715E+03,	-5.77817E+03,	0.00000E+00,	0,	0
  4.07609E-01,	1.00000E+01,	-4.13659E-02,	1.62170E+02,	2.60603E+03,	-6.92610E+03,	0.00000E+00,	0,	0
  3.21429E-01,	1.00000E+01,	-4.13659E-02,	1.69317E+02,	3.07125E+03,	-8.49069E+03,	0.00000E+00,	0,	0
  2.54525E-01,	1.00000E+01,	-4.13659E-02,	1.78077E+02,	3.59555E+03,	-1.02021E+04,	0.00000E+00,	0,	0
  2.01613E-01,	1.00000E+01,	-4.13659E-02,	1.88923E+02,	4.18083E+03,	-1.22977E+04,	0.00000E+00,	0,	0
  1.59574E-01,	1.00000E+01,	-4.13659E-02,	2.02389E+02,	4.85603E+03,	-1.48731E+04,	0.00000E+00,	0,	0
  1.26689E-01,	1.00000E+01,	-4.13659E-02,	2.36271E+02,	5.65864E+03,	-1.77193E+04,	0.00000E+00,	0,	0
  1.00446E-01,	1.00000E+01,	-4.13659E-02,	2.57142E+02,	6.46570E+03,	-2.21650E+04,	0.00000E+00,	0,	0