Z60W Data File: Version 1.1
CorrTest for Windows: SN CS310H1805157  V5.2.1111.9  2.5H6.220118
Sweep Frequency: Control Voltage
  Date:4-30-2026   Time:12:03:29
  Begin Information:            Cell Information
      Surface Area:           1
      Density:                7.8
      Weight:                 28
  End Information:              Cell Information
  Freq (Hz)     Ampl(mV)       Bias(V)      Time(Sec)       Z'(Ohm.cm^2)    Z''(Ohm.cm^2)        GD       Err      Range
End Comments
  3.07200E+05,	1.00000E+01,	-2.38353E-02,	2.65783E-02,	4.97996E-02,	4.28679E+00,	0.00000E+00,	0,	0
  2.76480E+05,	1.00000E+01,	-2.38353E-02,	1.67988E+00,	6.06953E-01,	3.22774E+00,	0.00000E+00,	0,	0
  1.97486E+05,	1.00000E+01,	-2.38353E-02,	2.59470E+00,	1.49196E+00,	2.25847E+00,	0.00000E+00,	0,	0
  1.53600E+05,	1.00000E+01,	-2.38353E-02,	3.49054E+00,	1.80818E+00,	1.70442E+00,	0.00000E+00,	0,	0
  1.25673E+05,	1.00000E+01,	-2.38353E-02,	4.41122E+00,	1.98512E+00,	1.32992E+00,	0.00000E+00,	0,	0
  9.87429E+04,	1.00000E+01,	-2.38353E-02,	5.33831E+00,	2.18979E+00,	1.01002E+00,	0.00000E+00,	0,	0
  7.68000E+04,	1.00000E+01,	-2.38353E-02,	6.22715E+00,	2.28373E+00,	7.46585E-01,	0.00000E+00,	0,	0
  6.01043E+04,	1.00000E+01,	-2.38353E-02,	9.45720E+00,	2.36799E+00,	4.95442E-01,	0.00000E+00,	0,	0
  4.93714E+04,	1.00000E+01,	-2.38353E-02,	1.10649E+01,	2.38265E+00,	3.50992E-01,	0.00000E+00,	0,	0
  3.84000E+04,	1.00000E+01,	-2.38353E-02,	1.19716E+01,	2.39506E+00,	1.88242E-01,	0.00000E+00,	0,	0
  3.00522E+04,	1.00000E+01,	-2.38353E-02,	1.28536E+01,	2.40859E+00,	4.26781E-02,	0.00000E+00,	0,	0
  2.38345E+04,	1.00000E+01,	-2.38353E-02,	1.37469E+01,	2.42212E+00,	-9.09530E-02,	0.00000E+00,	0,	0
  1.86811E+04,	1.00000E+01,	-2.38353E-02,	1.45766E+01,	2.44004E+00,	-2.30328E-01,	0.00000E+00,	0,	0
  1.47064E+04,	1.00000E+01,	-2.38353E-02,	1.55738E+01,	2.46207E+00,	-3.75464E-01,	0.00000E+00,	0,	0
  1.15200E+04,	1.00000E+01,	-2.38353E-02,	1.65542E+01,	2.49222E+00,	-5.35459E-01,	0.00000E+00,	0,	0
  9.60000E+03,	1.00000E+01,	-2.38353E-02,	1.81450E+01,	2.51599E+00,	-6.71147E-01,	0.00000E+00,	0,	0
  7.51304E+03,	1.00000E+01,	-2.38353E-02,	1.90332E+01,	2.55833E+00,	-8.77425E-01,	0.00000E+00,	0,	0
  5.76000E+03,	1.00000E+01,	-2.38353E-02,	1.99974E+01,	2.61399E+00,	-1.14559E+00,	0.00000E+00,	0,	0
  4.54737E+03,	1.00000E+01,	-2.38353E-02,	2.08703E+01,	2.67458E+00,	-1.42613E+00,	0.00000E+00,	0,	0
  3.60000E+03,	1.00000E+01,	-2.38353E-02,	2.19006E+01,	2.74565E+00,	-1.77003E+00,	0.00000E+00,	0,	0
  2.88000E+03,	1.00000E+01,	-2.38353E-02,	2.27946E+01,	2.83183E+00,	-2.15951E+00,	0.00000E+00,	0,	0
  2.27368E+03,	1.00000E+01,	-2.38353E-02,	2.50766E+01,	2.84699E+00,	-2.64353E+00,	0.00000E+00,	0,	0
  1.78144E+03,	1.00000E+01,	-2.38353E-02,	2.58951E+01,	2.98413E+00,	-3.28110E+00,	0.00000E+00,	0,	0
  1.41639E+03,	1.00000E+01,	-2.38353E-02,	2.68217E+01,	3.14932E+00,	-4.00752E+00,	0.00000E+00,	0,	0
  1.12208E+03,	1.00000E+01,	-2.38353E-02,	2.78634E+01,	3.35579E+00,	-4.90836E+00,	0.00000E+00,	0,	0
  9.00000E+02,	1.00000E+01,	-2.38353E-02,	3.28635E+01,	3.60716E+00,	-5.96202E+00,	0.00000E+00,	0,	0
  7.20000E+02,	1.00000E+01,	-2.38353E-02,	3.42229E+01,	3.90884E+00,	-7.23724E+00,	0.00000E+00,	0,	0
  5.68421E+02,	1.00000E+01,	-2.38353E-02,	3.55886E+01,	4.31543E+00,	-8.87898E+00,	0.00000E+00,	0,	0
  4.40816E+02,	1.00000E+01,	-2.38353E-02,	3.86357E+01,	4.89151E+00,	-1.10794E+01,	0.00000E+00,	0,	0
  3.54098E+02,	1.00000E+01,	-2.38353E-02,	4.10107E+01,	5.51024E+00,	-1.33645E+01,	0.00000E+00,	0,	0
  2.76923E+02,	1.00000E+01,	-2.38353E-02,	4.36473E+01,	6.41157E+00,	-1.64690E+01,	0.00000E+00,	0,	0
  2.20408E+02,	1.00000E+01,	-2.38353E-02,	4.65643E+01,	7.47948E+00,	-1.99599E+01,	0.00000E+00,	0,	0
  1.74194E+02,	1.00000E+01,	-2.38353E-02,	4.98207E+01,	8.88419E+00,	-2.42654E+01,	0.00000E+00,	0,	0
  1.37580E+02,	1.00000E+01,	-2.38353E-02,	5.34712E+01,	1.06635E+01,	-2.94219E+01,	0.00000E+00,	0,	0
  1.09091E+02,	1.00000E+01,	-2.38353E-02,	5.75394E+01,	1.28372E+01,	-3.54628E+01,	0.00000E+00,	0,	0
  8.70968E+01,	1.00000E+01,	-2.38353E-02,	6.32631E+01,	1.53849E+01,	-4.24217E+01,	0.00000E+00,	0,	0
  6.83544E+01,	1.00000E+01,	-2.38353E-02,	6.82904E+01,	1.87077E+01,	-5.15066E+01,	0.00000E+00,	0,	0
  5.45455E+01,	1.00000E+01,	-2.38353E-02,	7.37167E+01,	2.24526E+01,	-6.02888E+01,	0.00000E+00,	0,	0
  4.28571E+01,	1.00000E+01,	-2.38353E-02,	7.73095E+01,	2.69034E+01,	-7.23474E+01,	0.00000E+00,	0,	0
  3.39623E+01,	1.00000E+01,	-2.38353E-02,	8.10578E+01,	3.11777E+01,	-8.62195E+01,	0.00000E+00,	0,	0
  2.68657E+01,	1.00000E+01,	-2.38353E-02,	8.49246E+01,	3.68140E+01,	-1.03536E+02,	0.00000E+00,	0,	0
  2.13439E+01,	1.00000E+01,	-2.38353E-02,	8.87572E+01,	4.29403E+01,	-1.24006E+02,	0.00000E+00,	0,	0
  1.73077E+01,	1.00000E+01,	-2.38353E-02,	9.54213E+01,	4.92534E+01,	-1.46775E+02,	0.00000E+00,	0,	0
  1.36364E+01,	1.00000E+01,	-2.38353E-02,	1.00467E+02,	5.71963E+01,	-1.77924E+02,	0.00000E+00,	0,	0
  1.07143E+01,	1.00000E+01,	-2.38353E-02,	1.03401E+02,	6.65232E+01,	-2.16842E+02,	0.00000E+00,	0,	0
  8.49057E+00,	1.00000E+01,	-2.38353E-02,	1.07635E+02,	7.71748E+01,	-2.63428E+02,	0.00000E+00,	0,	0
  6.71642E+00,	1.00000E+01,	-2.38353E-02,	1.10181E+02,	8.98700E+01,	-3.20895E+02,	0.00000E+00,	0,	0
  5.29412E+00,	1.00000E+01,	-2.38353E-02,	1.13113E+02,	1.05477E+02,	-3.92531E+02,	0.00000E+00,	0,	0
  4.16667E+00,	1.00000E+01,	-2.38353E-02,	1.16612E+02,	1.24236E+02,	-4.81421E+02,	0.00000E+00,	0,	0
  3.30882E+00,	1.00000E+01,	-2.38353E-02,	1.20838E+02,	1.45620E+02,	-5.86292E+02,	0.00000E+00,	0,	0
  2.61628E+00,	1.00000E+01,	-2.38353E-02,	1.24820E+02,	1.71516E+02,	-7.16686E+02,	0.00000E+00,	0,	0
  2.07373E+00,	1.00000E+01,	-2.38353E-02,	1.29609E+02,	2.00836E+02,	-8.75075E+02,	0.00000E+00,	0,	0
  1.64234E+00,	1.00000E+01,	-2.38353E-02,	1.35392E+02,	2.33920E+02,	-1.07047E+03,	0.00000E+00,	0,	0
  1.30058E+00,	1.00000E+01,	-2.38353E-02,	1.39609E+02,	2.71498E+02,	-1.31206E+03,	0.00000E+00,	0,	0
  1.03211E+00,	1.00000E+01,	-2.38353E-02,	1.44035E+02,	3.12969E+02,	-1.60996E+03,	0.00000E+00,	0,	0
  8.15217E-01,	1.00000E+01,	-2.38353E-02,	1.51018E+02,	3.60742E+02,	-1.98746E+03,	0.00000E+00,	0,	0
  6.46552E-01,	1.00000E+01,	-2.38353E-02,	1.60114E+02,	4.14543E+02,	-2.45048E+03,	0.00000E+00,	0,	0
  5.11364E-01,	1.00000E+01,	-2.38353E-02,	1.65187E+02,	4.71734E+02,	-3.03814E+03,	0.00000E+00,	0,	0
  4.07609E-01,	1.00000E+01,	-2.38353E-02,	1.71284E+02,	5.51120E+02,	-3.74690E+03,	0.00000E+00,	0,	0
  3.21429E-01,	1.00000E+01,	-2.38353E-02,	1.78398E+02,	6.49658E+02,	-4.69624E+03,	0.00000E+00,	0,	0
  2.54525E-01,	1.00000E+01,	-2.38353E-02,	1.87166E+02,	7.84231E+02,	-5.83191E+03,	0.00000E+00,	0,	0
  2.01613E-01,	1.00000E+01,	-2.38353E-02,	1.98001E+02,	9.54466E+02,	-7.24514E+03,	0.00000E+00,	0,	0
  1.59574E-01,	1.00000E+01,	-2.38353E-02,	2.11505E+02,	1.17701E+03,	-9.01060E+03,	0.00000E+00,	0,	0
  1.26689E-01,	1.00000E+01,	-2.38353E-02,	2.28414E+02,	1.46535E+03,	-1.11670E+04,	0.00000E+00,	0,	0
  1.00446E-01,	1.00000E+01,	-2.38353E-02,	2.49287E+02,	1.84313E+03,	-1.38571E+04,	0.00000E+00,	0,	0