Z60W Data File: Version 1.1
CorrTest for Windows: SN CS310H1805157  V5.2.1111.9  2.5H6.220118
Sweep Frequency: Control Voltage
  Date:4-30-2026   Time:14:09:29
  Begin Information:            Cell Information
      Surface Area:           1
      Density:                7.8
      Weight:                 28
  End Information:              Cell Information
  Freq (Hz)     Ampl(mV)       Bias(V)      Time(Sec)       Z'(Ohm.cm^2)    Z''(Ohm.cm^2)        GD       Err      Range
End Comments
  3.07200E+05,	1.00000E+01,	-2.56519E-02,	3.45362E-02,	8.92494E-01,	4.76926E+00,	0.00000E+00,	0,	0
  2.76480E+05,	1.00000E+01,	-2.56519E-02,	1.63882E+00,	1.43703E+00,	3.66499E+00,	0.00000E+00,	0,	0
  1.97486E+05,	1.00000E+01,	-2.56519E-02,	2.54524E+00,	2.28371E+00,	2.59391E+00,	0.00000E+00,	0,	0
  1.53600E+05,	1.00000E+01,	-2.56519E-02,	3.46017E+00,	2.62657E+00,	1.93232E+00,	0.00000E+00,	0,	0
  1.25673E+05,	1.00000E+01,	-2.56519E-02,	4.36682E+00,	2.82911E+00,	1.51326E+00,	0.00000E+00,	0,	0
  9.87429E+04,	1.00000E+01,	-2.56519E-02,	5.25737E+00,	2.99574E+00,	1.14542E+00,	0.00000E+00,	0,	0
  7.68000E+04,	1.00000E+01,	-2.56519E-02,	6.17955E+00,	3.09411E+00,	8.47340E-01,	0.00000E+00,	0,	0
  6.01043E+04,	1.00000E+01,	-2.56519E-02,	9.39701E+00,	3.18238E+00,	5.64169E-01,	0.00000E+00,	0,	0
  4.93714E+04,	1.00000E+01,	-2.56519E-02,	1.09862E+01,	3.19954E+00,	3.98179E-01,	0.00000E+00,	0,	0
  3.84000E+04,	1.00000E+01,	-2.56519E-02,	1.18787E+01,	3.21370E+00,	2.12745E-01,	0.00000E+00,	0,	0
  3.00522E+04,	1.00000E+01,	-2.56519E-02,	1.27367E+01,	3.23139E+00,	4.87759E-02,	0.00000E+00,	0,	0
  2.38345E+04,	1.00000E+01,	-2.56519E-02,	1.35935E+01,	3.24764E+00,	-1.04688E-01,	0.00000E+00,	0,	0
  1.86811E+04,	1.00000E+01,	-2.56519E-02,	1.44538E+01,	3.26863E+00,	-2.61330E-01,	0.00000E+00,	0,	0
  1.47064E+04,	1.00000E+01,	-2.56519E-02,	1.54363E+01,	3.29359E+00,	-4.27568E-01,	0.00000E+00,	0,	0
  1.15200E+04,	1.00000E+01,	-2.56519E-02,	1.64633E+01,	3.32587E+00,	-6.09771E-01,	0.00000E+00,	0,	0
  9.60000E+03,	1.00000E+01,	-2.56519E-02,	1.80371E+01,	3.35776E+00,	-7.65958E-01,	0.00000E+00,	0,	0
  7.51304E+03,	1.00000E+01,	-2.56519E-02,	1.89199E+01,	3.40713E+00,	-9.99304E-01,	0.00000E+00,	0,	0
  5.76000E+03,	1.00000E+01,	-2.56519E-02,	1.98119E+01,	3.46575E+00,	-1.30025E+00,	0.00000E+00,	0,	0
  4.54737E+03,	1.00000E+01,	-2.56519E-02,	2.06865E+01,	3.53670E+00,	-1.62366E+00,	0.00000E+00,	0,	0
  3.60000E+03,	1.00000E+01,	-2.56519E-02,	2.16787E+01,	3.62356E+00,	-2.00840E+00,	0.00000E+00,	0,	0
  2.88000E+03,	1.00000E+01,	-2.56519E-02,	2.26016E+01,	3.73359E+00,	-2.44720E+00,	0.00000E+00,	0,	0
  2.27368E+03,	1.00000E+01,	-2.56519E-02,	2.49492E+01,	3.78399E+00,	-2.99229E+00,	0.00000E+00,	0,	0
  1.78144E+03,	1.00000E+01,	-2.56519E-02,	2.57440E+01,	3.94686E+00,	-3.70565E+00,	0.00000E+00,	0,	0
  1.41639E+03,	1.00000E+01,	-2.56519E-02,	2.66462E+01,	4.13044E+00,	-4.52532E+00,	0.00000E+00,	0,	0
  1.12208E+03,	1.00000E+01,	-2.56519E-02,	2.76835E+01,	4.35838E+00,	-5.54013E+00,	0.00000E+00,	0,	0
  9.00000E+02,	1.00000E+01,	-2.56519E-02,	3.26812E+01,	4.64147E+00,	-6.72815E+00,	0.00000E+00,	0,	0
  7.20000E+02,	1.00000E+01,	-2.56519E-02,	3.40631E+01,	4.97422E+00,	-8.16050E+00,	0.00000E+00,	0,	0
  5.68421E+02,	1.00000E+01,	-2.56519E-02,	3.54472E+01,	5.41575E+00,	-1.00140E+01,	0.00000E+00,	0,	0
  4.40816E+02,	1.00000E+01,	-2.56519E-02,	3.84604E+01,	6.03846E+00,	-1.25038E+01,	0.00000E+00,	0,	0
  3.54098E+02,	1.00000E+01,	-2.56519E-02,	4.08046E+01,	6.69618E+00,	-1.50969E+01,	0.00000E+00,	0,	0
  2.76923E+02,	1.00000E+01,	-2.56519E-02,	4.34392E+01,	7.65195E+00,	-1.86391E+01,	0.00000E+00,	0,	0
  2.20408E+02,	1.00000E+01,	-2.56519E-02,	4.63702E+01,	8.78152E+00,	-2.26472E+01,	0.00000E+00,	0,	0
  1.74194E+02,	1.00000E+01,	-2.56519E-02,	4.96292E+01,	1.02705E+01,	-2.76343E+01,	0.00000E+00,	0,	0
  1.37580E+02,	1.00000E+01,	-2.56519E-02,	5.32896E+01,	1.21844E+01,	-3.36509E+01,	0.00000E+00,	0,	0
  1.09091E+02,	1.00000E+01,	-2.56519E-02,	5.73662E+01,	1.45686E+01,	-4.07721E+01,	0.00000E+00,	0,	0
  8.70968E+01,	1.00000E+01,	-2.56519E-02,	6.30907E+01,	1.74374E+01,	-4.90258E+01,	0.00000E+00,	0,	0
  6.83544E+01,	1.00000E+01,	-2.56519E-02,	6.81137E+01,	2.13082E+01,	-5.98195E+01,	0.00000E+00,	0,	0
  5.45455E+01,	1.00000E+01,	-2.56519E-02,	7.35581E+01,	2.58507E+01,	-7.02843E+01,	0.00000E+00,	0,	0
  4.28571E+01,	1.00000E+01,	-2.56519E-02,	7.70823E+01,	3.14137E+01,	-8.44899E+01,	0.00000E+00,	0,	0
  3.39623E+01,	1.00000E+01,	-2.56519E-02,	8.08329E+01,	3.69845E+01,	-1.00634E+02,	0.00000E+00,	0,	0
  2.68657E+01,	1.00000E+01,	-2.56519E-02,	8.46802E+01,	4.43206E+01,	-1.20492E+02,	0.00000E+00,	0,	0
  2.13439E+01,	1.00000E+01,	-2.56519E-02,	8.85105E+01,	5.23226E+01,	-1.43632E+02,	0.00000E+00,	0,	0
  1.73077E+01,	1.00000E+01,	-2.56519E-02,	9.51888E+01,	6.04822E+01,	-1.69120E+02,	0.00000E+00,	0,	0
  1.36364E+01,	1.00000E+01,	-2.56519E-02,	1.00225E+02,	7.05793E+01,	-2.03796E+02,	0.00000E+00,	0,	0
  1.07143E+01,	1.00000E+01,	-2.56519E-02,	1.03141E+02,	8.21091E+01,	-2.46924E+02,	0.00000E+00,	0,	0
  8.49057E+00,	1.00000E+01,	-2.56519E-02,	1.07348E+02,	9.48719E+01,	-2.98399E+02,	0.00000E+00,	0,	0
  6.71642E+00,	1.00000E+01,	-2.56519E-02,	1.09870E+02,	1.09841E+02,	-3.62152E+02,	0.00000E+00,	0,	0
  5.29412E+00,	1.00000E+01,	-2.56519E-02,	1.12835E+02,	1.28016E+02,	-4.41858E+02,	0.00000E+00,	0,	0
  4.16667E+00,	1.00000E+01,	-2.56519E-02,	1.16379E+02,	1.49762E+02,	-5.41037E+02,	0.00000E+00,	0,	0
  3.30882E+00,	1.00000E+01,	-2.56519E-02,	1.20635E+02,	1.74869E+02,	-6.58139E+02,	0.00000E+00,	0,	0
  2.61628E+00,	1.00000E+01,	-2.56519E-02,	1.24615E+02,	2.05715E+02,	-8.04024E+02,	0.00000E+00,	0,	0
  2.07373E+00,	1.00000E+01,	-2.56519E-02,	1.29388E+02,	2.41578E+02,	-9.80798E+02,	0.00000E+00,	0,	0
  1.64234E+00,	1.00000E+01,	-2.56519E-02,	1.35203E+02,	2.83632E+02,	-1.19762E+03,	0.00000E+00,	0,	0
  1.30058E+00,	1.00000E+01,	-2.56519E-02,	1.39366E+02,	3.32342E+02,	-1.46384E+03,	0.00000E+00,	0,	0
  1.03211E+00,	1.00000E+01,	-2.56519E-02,	1.43806E+02,	3.85970E+02,	-1.78889E+03,	0.00000E+00,	0,	0
  8.15217E-01,	1.00000E+01,	-2.56519E-02,	1.50767E+02,	4.45968E+02,	-2.19835E+03,	0.00000E+00,	0,	0
  6.46552E-01,	1.00000E+01,	-2.56519E-02,	1.59893E+02,	5.11674E+02,	-2.69822E+03,	0.00000E+00,	0,	0
  5.11364E-01,	1.00000E+01,	-2.56519E-02,	1.64923E+02,	5.74185E+02,	-3.33384E+03,	0.00000E+00,	0,	0
  4.07609E-01,	1.00000E+01,	-2.56519E-02,	1.70982E+02,	6.59712E+02,	-4.09951E+03,	0.00000E+00,	0,	0
  3.21429E-01,	1.00000E+01,	-2.56519E-02,	1.78115E+02,	7.61220E+02,	-5.13628E+03,	0.00000E+00,	0,	0
  2.54525E-01,	1.00000E+01,	-2.56519E-02,	1.86884E+02,	8.95762E+02,	-6.36920E+03,	0.00000E+00,	0,	0
  2.01613E-01,	1.00000E+01,	-2.56519E-02,	1.97792E+02,	1.05951E+03,	-7.90886E+03,	0.00000E+00,	0,	0
  1.59574E-01,	1.00000E+01,	-2.56519E-02,	2.11235E+02,	1.26873E+03,	-9.83754E+03,	0.00000E+00,	0,	0
  1.26689E-01,	1.00000E+01,	-2.56519E-02,	2.45147E+02,	1.55293E+03,	-1.21182E+04,	0.00000E+00,	0,	0
  1.00446E-01,	1.00000E+01,	-2.56519E-02,	2.66053E+02,	1.83473E+03,	-1.51885E+04,	0.00000E+00,	0,	0