Z60W Data File: Version 1.1
CorrTest for Windows: SN CS310H1805157  V5.2.1111.9  2.5H6.220118
Sweep Frequency: Control Voltage
  Date:4-30-2026   Time:15:04:40
  Begin Information:            Cell Information
      Surface Area:           1
      Density:                7.8
      Weight:                 28
  End Information:              Cell Information
  Freq (Hz)     Ampl(mV)       Bias(V)      Time(Sec)       Z'(Ohm.cm^2)    Z''(Ohm.cm^2)        GD       Err      Range
End Comments
  3.07200E+05,	1.00000E+01,	-3.81780E-02,	6.91053E-02,	1.80938E+02,	-2.27122E+01,	0.00000E+00,	0,	0
  2.76480E+05,	1.00000E+01,	-3.81780E-02,	1.67560E+00,	1.83194E+02,	-2.49843E+01,	0.00000E+00,	0,	0
  1.97486E+05,	1.00000E+01,	-3.81780E-02,	2.57467E+00,	1.93925E+02,	-2.85413E+01,	0.00000E+00,	0,	0
  1.53600E+05,	1.00000E+01,	-3.81780E-02,	3.48023E+00,	2.00907E+02,	-2.77860E+01,	0.00000E+00,	0,	0
  1.25673E+05,	1.00000E+01,	-3.81780E-02,	4.36971E+00,	2.05925E+02,	-2.56441E+01,	0.00000E+00,	0,	0
  9.87429E+04,	1.00000E+01,	-3.81780E-02,	5.26553E+00,	2.11422E+02,	-2.43191E+01,	0.00000E+00,	0,	0
  7.68000E+04,	1.00000E+01,	-3.81780E-02,	6.17140E+00,	2.14938E+02,	-2.15691E+01,	0.00000E+00,	0,	0
  6.01043E+04,	1.00000E+01,	-3.81780E-02,	7.15672E+00,	2.18605E+02,	-1.92421E+01,	0.00000E+00,	0,	0
  4.93714E+04,	1.00000E+01,	-3.81780E-02,	8.71801E+00,	2.20714E+02,	-1.70030E+01,	0.00000E+00,	0,	0
  3.84000E+04,	1.00000E+01,	-3.81780E-02,	9.60894E+00,	2.22455E+02,	-1.52533E+01,	0.00000E+00,	0,	0
  3.00522E+04,	1.00000E+01,	-3.81780E-02,	1.04897E+01,	2.22753E+02,	-1.05457E+01,	0.00000E+00,	0,	0
  2.38345E+04,	1.00000E+01,	-3.81780E-02,	1.13465E+01,	2.25370E+02,	-1.33488E+01,	0.00000E+00,	0,	0
  1.86811E+04,	1.00000E+01,	-3.81780E-02,	1.21913E+01,	2.27267E+02,	-1.44570E+01,	0.00000E+00,	0,	0
  1.47064E+04,	1.00000E+01,	-3.81780E-02,	1.31507E+01,	2.28678E+02,	-1.28490E+01,	0.00000E+00,	0,	0
  1.15200E+04,	1.00000E+01,	-3.81780E-02,	1.41446E+01,	2.30511E+02,	-1.29276E+01,	0.00000E+00,	0,	0
  9.60000E+03,	1.00000E+01,	-3.81780E-02,	1.57070E+01,	2.31819E+02,	-1.29840E+01,	0.00000E+00,	0,	0
  7.51304E+03,	1.00000E+01,	-3.81780E-02,	1.65840E+01,	2.34528E+02,	-1.35584E+01,	0.00000E+00,	0,	0
  5.76000E+03,	1.00000E+01,	-3.81780E-02,	1.74907E+01,	2.37149E+02,	-1.26017E+01,	0.00000E+00,	0,	0
  4.54737E+03,	1.00000E+01,	-3.81780E-02,	1.83925E+01,	2.39812E+02,	-1.39831E+01,	0.00000E+00,	0,	0
  3.60000E+03,	1.00000E+01,	-3.81780E-02,	1.93885E+01,	2.41040E+02,	-1.26757E+01,	0.00000E+00,	0,	0
  2.88000E+03,	1.00000E+01,	-3.81780E-02,	2.03205E+01,	2.44038E+02,	-1.12608E+01,	0.00000E+00,	0,	0
  2.27368E+03,	1.00000E+01,	-3.81780E-02,	2.26411E+01,	2.45940E+02,	-1.14571E+01,	0.00000E+00,	0,	0
  1.78144E+03,	1.00000E+01,	-3.81780E-02,	2.34683E+01,	2.46567E+02,	-1.11541E+01,	0.00000E+00,	0,	0
  1.41639E+03,	1.00000E+01,	-3.81780E-02,	2.43732E+01,	2.47808E+02,	-1.28737E+01,	0.00000E+00,	0,	0
  1.12208E+03,	1.00000E+01,	-3.81780E-02,	2.54066E+01,	2.48600E+02,	-8.99705E+00,	0.00000E+00,	0,	0
  9.00000E+02,	1.00000E+01,	-3.81780E-02,	3.03994E+01,	2.50955E+02,	-1.26543E+01,	0.00000E+00,	0,	0
  7.20000E+02,	1.00000E+01,	-3.81780E-02,	3.17837E+01,	2.51926E+02,	-1.36581E+01,	0.00000E+00,	0,	0
  5.68421E+02,	1.00000E+01,	-3.81780E-02,	3.31623E+01,	2.53004E+02,	-1.53742E+01,	0.00000E+00,	0,	0
  4.40816E+02,	1.00000E+01,	-3.81780E-02,	3.45969E+01,	2.54131E+02,	-1.78359E+01,	0.00000E+00,	0,	0
  3.54098E+02,	1.00000E+01,	-3.81780E-02,	3.69371E+01,	2.55460E+02,	-2.04673E+01,	0.00000E+00,	0,	0
  2.76923E+02,	1.00000E+01,	-3.81780E-02,	3.95675E+01,	2.57132E+02,	-2.43794E+01,	0.00000E+00,	0,	0
  2.20408E+02,	1.00000E+01,	-3.81780E-02,	4.24761E+01,	2.58850E+02,	-2.89185E+01,	0.00000E+00,	0,	0
  1.74194E+02,	1.00000E+01,	-3.81780E-02,	4.57499E+01,	2.60804E+02,	-3.47323E+01,	0.00000E+00,	0,	0
  1.37580E+02,	1.00000E+01,	-3.81780E-02,	4.94192E+01,	2.63223E+02,	-4.20088E+01,	0.00000E+00,	0,	0
  1.09091E+02,	1.00000E+01,	-3.81780E-02,	5.34876E+01,	2.66006E+02,	-5.09583E+01,	0.00000E+00,	0,	0
  8.70968E+01,	1.00000E+01,	-3.81780E-02,	5.92212E+01,	2.69675E+02,	-6.17132E+01,	0.00000E+00,	0,	0
  6.83544E+01,	1.00000E+01,	-3.81780E-02,	6.42970E+01,	2.74944E+02,	-7.64947E+01,	0.00000E+00,	0,	0
  5.45455E+01,	1.00000E+01,	-3.81780E-02,	6.97978E+01,	2.76436E+02,	-8.93215E+01,	0.00000E+00,	0,	0
  4.28571E+01,	1.00000E+01,	-3.81780E-02,	7.33318E+01,	2.81343E+02,	-1.09757E+02,	0.00000E+00,	0,	0
  3.39623E+01,	1.00000E+01,	-3.81780E-02,	7.70497E+01,	2.85407E+02,	-1.35139E+02,	0.00000E+00,	0,	0
  2.68657E+01,	1.00000E+01,	-3.81780E-02,	8.08898E+01,	2.93643E+02,	-1.65464E+02,	0.00000E+00,	0,	0
  2.13439E+01,	1.00000E+01,	-3.81780E-02,	8.47094E+01,	3.02591E+02,	-2.01851E+02,	0.00000E+00,	0,	0
  1.73077E+01,	1.00000E+01,	-3.81780E-02,	8.83955E+01,	3.12210E+02,	-2.42238E+02,	0.00000E+00,	0,	0
  1.36364E+01,	1.00000E+01,	-3.81780E-02,	9.34127E+01,	3.25625E+02,	-2.98100E+02,	0.00000E+00,	0,	0
  1.07143E+01,	1.00000E+01,	-3.81780E-02,	9.63319E+01,	3.42404E+02,	-3.67856E+02,	0.00000E+00,	0,	0
  8.49057E+00,	1.00000E+01,	-3.81780E-02,	1.00540E+02,	3.63434E+02,	-4.50354E+02,	0.00000E+00,	0,	0
  6.71642E+00,	1.00000E+01,	-3.81780E-02,	1.03049E+02,	3.90407E+02,	-5.51908E+02,	0.00000E+00,	0,	0
  5.29412E+00,	1.00000E+01,	-3.81780E-02,	1.06033E+02,	4.25299E+02,	-6.76340E+02,	0.00000E+00,	0,	0
  4.16667E+00,	1.00000E+01,	-3.81780E-02,	1.09490E+02,	4.70489E+02,	-8.28341E+02,	0.00000E+00,	0,	0
  3.30882E+00,	1.00000E+01,	-3.81780E-02,	1.13778E+02,	5.25679E+02,	-1.00419E+03,	0.00000E+00,	0,	0
  2.61628E+00,	1.00000E+01,	-3.81780E-02,	1.17739E+02,	5.95293E+02,	-1.21738E+03,	0.00000E+00,	0,	0
  2.07373E+00,	1.00000E+01,	-3.81780E-02,	1.22540E+02,	6.79139E+02,	-1.46931E+03,	0.00000E+00,	0,	0
  1.64234E+00,	1.00000E+01,	-3.81780E-02,	1.28359E+02,	7.79145E+02,	-1.77121E+03,	0.00000E+00,	0,	0
  1.30058E+00,	1.00000E+01,	-3.81780E-02,	1.32529E+02,	8.96634E+02,	-2.13026E+03,	0.00000E+00,	0,	0
  1.03211E+00,	1.00000E+01,	-3.81780E-02,	1.36960E+02,	1.03189E+03,	-2.56038E+03,	0.00000E+00,	0,	0
  8.15217E-01,	1.00000E+01,	-3.81780E-02,	1.43910E+02,	1.18634E+03,	-3.08659E+03,	0.00000E+00,	0,	0
  6.46552E-01,	1.00000E+01,	-3.81780E-02,	1.53018E+02,	1.35890E+03,	-3.72121E+03,	0.00000E+00,	0,	0
  5.11364E-01,	1.00000E+01,	-3.81780E-02,	1.58026E+02,	1.51568E+03,	-4.52032E+03,	0.00000E+00,	0,	0
  4.07609E-01,	1.00000E+01,	-3.81780E-02,	1.64089E+02,	1.73957E+03,	-5.45340E+03,	0.00000E+00,	0,	0
  3.21429E-01,	1.00000E+01,	-3.81780E-02,	1.71220E+02,	2.01796E+03,	-6.74770E+03,	0.00000E+00,	0,	0
  2.54525E-01,	1.00000E+01,	-3.81780E-02,	1.79988E+02,	2.34679E+03,	-8.20599E+03,	0.00000E+00,	0,	0
  2.01613E-01,	1.00000E+01,	-3.81780E-02,	1.90830E+02,	2.73424E+03,	-1.00125E+04,	0.00000E+00,	0,	0
  1.59574E-01,	1.00000E+01,	-3.81780E-02,	2.04294E+02,	3.20589E+03,	-1.22455E+04,	0.00000E+00,	0,	0
  1.26689E-01,	1.00000E+01,	-3.81780E-02,	2.38207E+02,	3.80872E+03,	-1.47795E+04,	0.00000E+00,	0,	0
  1.00446E-01,	1.00000E+01,	-3.81780E-02,	2.59094E+02,	4.42065E+03,	-1.84766E+04,	0.00000E+00,	0,	0