Z60W Data File: Version 1.1
CorrTest for Windows: SN CS310H1805157  V5.2.1111.9  2.5H6.220118
Sweep Frequency: Control Voltage
  Date:4-30-2026   Time:13:42:21
  Begin Information:            Cell Information
      Surface Area:           1
      Density:                7.8
      Weight:                 28
  End Information:              Cell Information
  Freq (Hz)     Ampl(mV)       Bias(V)      Time(Sec)       Z'(Ohm.cm^2)    Z''(Ohm.cm^2)        GD       Err      Range
End Comments
  3.07200E+05,	1.00000E+01,	-2.46283E-02,	2.38837E-02,	3.96489E-01,	4.49008E+00,	0.00000E+00,	0,	0
  2.76480E+05,	1.00000E+01,	-2.46283E-02,	1.63161E+00,	9.44359E-01,	3.44823E+00,	0.00000E+00,	0,	0
  1.97486E+05,	1.00000E+01,	-2.46283E-02,	2.55127E+00,	1.83394E+00,	2.38038E+00,	0.00000E+00,	0,	0
  1.53600E+05,	1.00000E+01,	-2.46283E-02,	3.47902E+00,	2.15542E+00,	1.81329E+00,	0.00000E+00,	0,	0
  1.25673E+05,	1.00000E+01,	-2.46283E-02,	4.37384E+00,	2.35336E+00,	1.40833E+00,	0.00000E+00,	0,	0
  9.87429E+04,	1.00000E+01,	-2.46283E-02,	5.26782E+00,	2.51499E+00,	1.07603E+00,	0.00000E+00,	0,	0
  7.68000E+04,	1.00000E+01,	-2.46283E-02,	6.17866E+00,	2.62412E+00,	7.97747E-01,	0.00000E+00,	0,	0
  6.01043E+04,	1.00000E+01,	-2.46283E-02,	9.38964E+00,	2.70821E+00,	5.25014E-01,	0.00000E+00,	0,	0
  4.93714E+04,	1.00000E+01,	-2.46283E-02,	1.09648E+01,	2.72573E+00,	3.70354E-01,	0.00000E+00,	0,	0
  3.84000E+04,	1.00000E+01,	-2.46283E-02,	1.18665E+01,	2.73725E+00,	1.94054E-01,	0.00000E+00,	0,	0
  3.00522E+04,	1.00000E+01,	-2.46283E-02,	1.27366E+01,	2.75242E+00,	4.15761E-02,	0.00000E+00,	0,	0
  2.38345E+04,	1.00000E+01,	-2.46283E-02,	1.36127E+01,	2.76947E+00,	-9.50343E-02,	0.00000E+00,	0,	0
  1.86811E+04,	1.00000E+01,	-2.46283E-02,	1.44862E+01,	2.78657E+00,	-2.44429E-01,	0.00000E+00,	0,	0
  1.47064E+04,	1.00000E+01,	-2.46283E-02,	1.54479E+01,	2.81133E+00,	-3.99734E-01,	0.00000E+00,	0,	0
  1.15200E+04,	1.00000E+01,	-2.46283E-02,	1.64413E+01,	2.84273E+00,	-5.72986E-01,	0.00000E+00,	0,	0
  9.60000E+03,	1.00000E+01,	-2.46283E-02,	1.80220E+01,	2.86837E+00,	-7.15329E-01,	0.00000E+00,	0,	0
  7.51304E+03,	1.00000E+01,	-2.46283E-02,	1.89064E+01,	2.91228E+00,	-9.35766E-01,	0.00000E+00,	0,	0
  5.76000E+03,	1.00000E+01,	-2.46283E-02,	1.98109E+01,	2.97142E+00,	-1.21599E+00,	0.00000E+00,	0,	0
  4.54737E+03,	1.00000E+01,	-2.46283E-02,	2.06786E+01,	3.03917E+00,	-1.51819E+00,	0.00000E+00,	0,	0
  3.60000E+03,	1.00000E+01,	-2.46283E-02,	2.16575E+01,	3.11739E+00,	-1.88054E+00,	0.00000E+00,	0,	0
  2.88000E+03,	1.00000E+01,	-2.46283E-02,	2.25591E+01,	3.20775E+00,	-2.29242E+00,	0.00000E+00,	0,	0
  2.27368E+03,	1.00000E+01,	-2.46283E-02,	2.48360E+01,	3.23836E+00,	-2.80912E+00,	0.00000E+00,	0,	0
  1.78144E+03,	1.00000E+01,	-2.46283E-02,	2.56570E+01,	3.38247E+00,	-3.47396E+00,	0.00000E+00,	0,	0
  1.41639E+03,	1.00000E+01,	-2.46283E-02,	2.65504E+01,	3.55851E+00,	-4.25166E+00,	0.00000E+00,	0,	0
  1.12208E+03,	1.00000E+01,	-2.46283E-02,	2.75773E+01,	3.77266E+00,	-5.20003E+00,	0.00000E+00,	0,	0
  9.00000E+02,	1.00000E+01,	-2.46283E-02,	3.26183E+01,	4.03715E+00,	-6.31896E+00,	0.00000E+00,	0,	0
  7.20000E+02,	1.00000E+01,	-2.46283E-02,	3.40050E+01,	4.35339E+00,	-7.66617E+00,	0.00000E+00,	0,	0
  5.68421E+02,	1.00000E+01,	-2.46283E-02,	3.53785E+01,	4.77928E+00,	-9.40734E+00,	0.00000E+00,	0,	0
  4.40816E+02,	1.00000E+01,	-2.46283E-02,	3.84479E+01,	5.37585E+00,	-1.17460E+01,	0.00000E+00,	0,	0
  3.54098E+02,	1.00000E+01,	-2.46283E-02,	4.08042E+01,	6.01691E+00,	-1.41869E+01,	0.00000E+00,	0,	0
  2.76923E+02,	1.00000E+01,	-2.46283E-02,	4.34514E+01,	6.94625E+00,	-1.74961E+01,	0.00000E+00,	0,	0
  2.20408E+02,	1.00000E+01,	-2.46283E-02,	4.64152E+01,	8.04678E+00,	-2.12297E+01,	0.00000E+00,	0,	0
  1.74194E+02,	1.00000E+01,	-2.46283E-02,	4.96856E+01,	9.49646E+00,	-2.58562E+01,	0.00000E+00,	0,	0
  1.37580E+02,	1.00000E+01,	-2.46283E-02,	5.33799E+01,	1.13521E+01,	-3.14186E+01,	0.00000E+00,	0,	0
  1.09091E+02,	1.00000E+01,	-2.46283E-02,	5.74535E+01,	1.36427E+01,	-3.79608E+01,	0.00000E+00,	0,	0
  8.70968E+01,	1.00000E+01,	-2.46283E-02,	6.31626E+01,	1.63632E+01,	-4.55191E+01,	0.00000E+00,	0,	0
  6.83544E+01,	1.00000E+01,	-2.46283E-02,	6.82208E+01,	1.99647E+01,	-5.53843E+01,	0.00000E+00,	0,	0
  5.45455E+01,	1.00000E+01,	-2.46283E-02,	7.36718E+01,	2.41020E+01,	-6.49158E+01,	0.00000E+00,	0,	0
  4.28571E+01,	1.00000E+01,	-2.46283E-02,	7.72049E+01,	2.90822E+01,	-7.79120E+01,	0.00000E+00,	0,	0
  3.39623E+01,	1.00000E+01,	-2.46283E-02,	8.09658E+01,	3.39430E+01,	-9.27991E+01,	0.00000E+00,	0,	0
  2.68657E+01,	1.00000E+01,	-2.46283E-02,	8.48048E+01,	4.03319E+01,	-1.11239E+02,	0.00000E+00,	0,	0
  2.13439E+01,	1.00000E+01,	-2.46283E-02,	8.86061E+01,	4.72692E+01,	-1.32912E+02,	0.00000E+00,	0,	0
  1.73077E+01,	1.00000E+01,	-2.46283E-02,	9.53471E+01,	5.43657E+01,	-1.56928E+02,	0.00000E+00,	0,	0
  1.36364E+01,	1.00000E+01,	-2.46283E-02,	1.00368E+02,	6.32200E+01,	-1.89732E+02,	0.00000E+00,	0,	0
  1.07143E+01,	1.00000E+01,	-2.46283E-02,	1.03301E+02,	7.34842E+01,	-2.30687E+02,	0.00000E+00,	0,	0
  8.49057E+00,	1.00000E+01,	-2.46283E-02,	1.07514E+02,	8.50104E+01,	-2.79629E+02,	0.00000E+00,	0,	0
  6.71642E+00,	1.00000E+01,	-2.46283E-02,	1.10069E+02,	9.87491E+01,	-3.40233E+02,	0.00000E+00,	0,	0
  5.29412E+00,	1.00000E+01,	-2.46283E-02,	1.13022E+02,	1.15510E+02,	-4.15667E+02,	0.00000E+00,	0,	0
  4.16667E+00,	1.00000E+01,	-2.46283E-02,	1.16503E+02,	1.35635E+02,	-5.09636E+02,	0.00000E+00,	0,	0
  3.30882E+00,	1.00000E+01,	-2.46283E-02,	1.20769E+02,	1.58860E+02,	-6.20457E+02,	0.00000E+00,	0,	0
  2.61628E+00,	1.00000E+01,	-2.46283E-02,	1.24770E+02,	1.87067E+02,	-7.58161E+02,	0.00000E+00,	0,	0
  2.07373E+00,	1.00000E+01,	-2.46283E-02,	1.29594E+02,	2.19641E+02,	-9.25359E+02,	0.00000E+00,	0,	0
  1.64234E+00,	1.00000E+01,	-2.46283E-02,	1.35377E+02,	2.56844E+02,	-1.13082E+03,	0.00000E+00,	0,	0
  1.30058E+00,	1.00000E+01,	-2.46283E-02,	1.39572E+02,	2.99331E+02,	-1.38395E+03,	0.00000E+00,	0,	0
  1.03211E+00,	1.00000E+01,	-2.46283E-02,	1.43998E+02,	3.45833E+02,	-1.69483E+03,	0.00000E+00,	0,	0
  8.15217E-01,	1.00000E+01,	-2.46283E-02,	1.50948E+02,	3.98671E+02,	-2.08786E+03,	0.00000E+00,	0,	0
  6.46552E-01,	1.00000E+01,	-2.46283E-02,	1.60036E+02,	4.57000E+02,	-2.57010E+03,	0.00000E+00,	0,	0
  5.11364E-01,	1.00000E+01,	-2.46283E-02,	1.65049E+02,	5.15516E+02,	-3.18232E+03,	0.00000E+00,	0,	0
  4.07609E-01,	1.00000E+01,	-2.46283E-02,	1.71105E+02,	5.96694E+02,	-3.92053E+03,	0.00000E+00,	0,	0
  3.21429E-01,	1.00000E+01,	-2.46283E-02,	1.78282E+02,	6.95103E+02,	-4.91486E+03,	0.00000E+00,	0,	0
  2.54525E-01,	1.00000E+01,	-2.46283E-02,	1.87048E+02,	8.28185E+02,	-6.10118E+03,	0.00000E+00,	0,	0
  2.01613E-01,	1.00000E+01,	-2.46283E-02,	1.97916E+02,	9.94340E+02,	-7.58057E+03,	0.00000E+00,	0,	0
  1.59574E-01,	1.00000E+01,	-2.46283E-02,	2.11395E+02,	1.20890E+03,	-9.42893E+03,	0.00000E+00,	0,	0
  1.26689E-01,	1.00000E+01,	-2.46283E-02,	2.45304E+02,	1.49870E+03,	-1.16213E+04,	0.00000E+00,	0,	0
  1.00446E-01,	1.00000E+01,	-2.46283E-02,	2.66207E+02,	1.79837E+03,	-1.45582E+04,	0.00000E+00,	0,	0