Z60W Data File: Version 1.1
CorrTest for Windows: SN CS310H1805157  V5.2.1111.9  2.5H6.220118
Sweep Frequency: Control Voltage
  Date:4-30-2026   Time:09:39:38
  Begin Information:            Cell Information
      Surface Area:           1
      Density:                7.8
      Weight:                 28
  End Information:              Cell Information
  Freq (Hz)     Ampl(mV)       Bias(V)      Time(Sec)       Z'(Ohm.cm^2)    Z''(Ohm.cm^2)        GD       Err      Range
End Comments
  3.07200E+05,	1.00000E+01,	-2.31684E-02,	2.47400E-02,	-3.50981E-01,	4.19337E+00,	0.00000E+00,	0,	0
  2.76480E+05,	1.00000E+01,	-2.31684E-02,	1.63447E+00,	2.83627E-01,	3.13638E+00,	0.00000E+00,	0,	0
  1.97486E+05,	1.00000E+01,	-2.31684E-02,	2.53501E+00,	1.16088E+00,	2.17809E+00,	0.00000E+00,	0,	0
  1.53600E+05,	1.00000E+01,	-2.31684E-02,	3.44609E+00,	1.49826E+00,	1.67256E+00,	0.00000E+00,	0,	0
  1.25673E+05,	1.00000E+01,	-2.31684E-02,	4.34069E+00,	1.69317E+00,	1.28954E+00,	0.00000E+00,	0,	0
  9.87429E+04,	1.00000E+01,	-2.31684E-02,	5.27408E+00,	1.89027E+00,	9.86191E-01,	0.00000E+00,	0,	0
  7.68000E+04,	1.00000E+01,	-2.31684E-02,	6.17620E+00,	1.99365E+00,	7.38505E-01,	0.00000E+00,	0,	0
  6.01043E+04,	1.00000E+01,	-2.31684E-02,	9.42608E+00,	2.07603E+00,	4.91906E-01,	0.00000E+00,	0,	0
  4.93714E+04,	1.00000E+01,	-2.31684E-02,	1.10009E+01,	2.09033E+00,	3.59907E-01,	0.00000E+00,	0,	0
  3.84000E+04,	1.00000E+01,	-2.31684E-02,	1.19535E+01,	2.10409E+00,	2.07777E-01,	0.00000E+00,	0,	0
  3.00522E+04,	1.00000E+01,	-2.31684E-02,	1.28066E+01,	2.11662E+00,	7.58353E-02,	0.00000E+00,	0,	0
  2.38345E+04,	1.00000E+01,	-2.31684E-02,	1.36798E+01,	2.12860E+00,	-4.18611E-02,	0.00000E+00,	0,	0
  1.86811E+04,	1.00000E+01,	-2.31684E-02,	1.45212E+01,	2.14362E+00,	-1.65355E-01,	0.00000E+00,	0,	0
  1.47064E+04,	1.00000E+01,	-2.31684E-02,	1.54929E+01,	2.16120E+00,	-2.93693E-01,	0.00000E+00,	0,	0
  1.15200E+04,	1.00000E+01,	-2.31684E-02,	1.64756E+01,	2.18566E+00,	-4.33541E-01,	0.00000E+00,	0,	0
  9.60000E+03,	1.00000E+01,	-2.31684E-02,	1.80600E+01,	2.20741E+00,	-5.49341E-01,	0.00000E+00,	0,	0
  7.51304E+03,	1.00000E+01,	-2.31684E-02,	1.89209E+01,	2.24117E+00,	-7.26089E-01,	0.00000E+00,	0,	0
  5.76000E+03,	1.00000E+01,	-2.31684E-02,	1.98455E+01,	2.28541E+00,	-9.51894E-01,	0.00000E+00,	0,	0
  4.54737E+03,	1.00000E+01,	-2.31684E-02,	2.07205E+01,	2.33587E+00,	-1.19591E+00,	0.00000E+00,	0,	0
  3.60000E+03,	1.00000E+01,	-2.31684E-02,	2.17218E+01,	2.39684E+00,	-1.48384E+00,	0.00000E+00,	0,	0
  2.88000E+03,	1.00000E+01,	-2.31684E-02,	2.26593E+01,	2.46369E+00,	-1.81517E+00,	0.00000E+00,	0,	0
  2.27368E+03,	1.00000E+01,	-2.31684E-02,	2.49545E+01,	2.53951E+00,	-2.23096E+00,	0.00000E+00,	0,	0
  1.78144E+03,	1.00000E+01,	-2.31684E-02,	2.57416E+01,	2.66048E+00,	-2.76865E+00,	0.00000E+00,	0,	0
  1.41639E+03,	1.00000E+01,	-2.31684E-02,	2.66688E+01,	2.79666E+00,	-3.39244E+00,	0.00000E+00,	0,	0
  1.12208E+03,	1.00000E+01,	-2.31684E-02,	2.77651E+01,	2.97337E+00,	-4.15380E+00,	0.00000E+00,	0,	0
  9.00000E+02,	1.00000E+01,	-2.31684E-02,	3.27373E+01,	3.19607E+00,	-5.04980E+00,	0.00000E+00,	0,	0
  7.20000E+02,	1.00000E+01,	-2.31684E-02,	3.41051E+01,	3.46434E+00,	-6.12603E+00,	0.00000E+00,	0,	0
  5.68421E+02,	1.00000E+01,	-2.31684E-02,	3.54745E+01,	3.82780E+00,	-7.51563E+00,	0.00000E+00,	0,	0
  4.40816E+02,	1.00000E+01,	-2.31684E-02,	3.69116E+01,	4.33234E+00,	-9.34549E+00,	0.00000E+00,	0,	0
  3.54098E+02,	1.00000E+01,	-2.31684E-02,	3.92465E+01,	4.89034E+00,	-1.12540E+01,	0.00000E+00,	0,	0
  2.76923E+02,	1.00000E+01,	-2.31684E-02,	4.18732E+01,	5.69588E+00,	-1.38240E+01,	0.00000E+00,	0,	0
  2.20408E+02,	1.00000E+01,	-2.31684E-02,	4.47806E+01,	6.64751E+00,	-1.66952E+01,	0.00000E+00,	0,	0
  1.74194E+02,	1.00000E+01,	-2.31684E-02,	4.80674E+01,	7.87256E+00,	-2.02088E+01,	0.00000E+00,	0,	0
  1.37580E+02,	1.00000E+01,	-2.31684E-02,	5.17632E+01,	9.39268E+00,	-2.43936E+01,	0.00000E+00,	0,	0
  1.09091E+02,	1.00000E+01,	-2.31684E-02,	5.58370E+01,	1.11858E+01,	-2.92740E+01,	0.00000E+00,	0,	0
  8.70968E+01,	1.00000E+01,	-2.31684E-02,	6.40078E+01,	1.32654E+01,	-3.49944E+01,	0.00000E+00,	0,	0
  6.83544E+01,	1.00000E+01,	-2.31684E-02,	6.90884E+01,	1.58400E+01,	-4.24065E+01,	0.00000E+00,	0,	0
  5.45455E+01,	1.00000E+01,	-2.31684E-02,	7.45507E+01,	1.86751E+01,	-4.96535E+01,	0.00000E+00,	0,	0
  4.28571E+01,	1.00000E+01,	-2.31684E-02,	7.80908E+01,	2.19691E+01,	-5.97480E+01,	0.00000E+00,	0,	0
  3.39623E+01,	1.00000E+01,	-2.31684E-02,	8.18167E+01,	2.50733E+01,	-7.15182E+01,	0.00000E+00,	0,	0
  2.68657E+01,	1.00000E+01,	-2.31684E-02,	8.56631E+01,	2.92714E+01,	-8.63849E+01,	0.00000E+00,	0,	0
  2.13439E+01,	1.00000E+01,	-2.31684E-02,	8.94691E+01,	3.39239E+01,	-1.04093E+02,	0.00000E+00,	0,	0
  1.73077E+01,	1.00000E+01,	-2.31684E-02,	9.61465E+01,	3.88207E+01,	-1.23875E+02,	0.00000E+00,	0,	0
  1.36364E+01,	1.00000E+01,	-2.31684E-02,	1.01204E+02,	4.51577E+01,	-1.51025E+02,	0.00000E+00,	0,	0
  1.07143E+01,	1.00000E+01,	-2.31684E-02,	1.04132E+02,	5.27806E+01,	-1.84922E+02,	0.00000E+00,	0,	0
  8.49057E+00,	1.00000E+01,	-2.31684E-02,	1.08327E+02,	6.15804E+01,	-2.25237E+02,	0.00000E+00,	0,	0
  6.71642E+00,	1.00000E+01,	-2.31684E-02,	1.10842E+02,	7.21933E+01,	-2.75060E+02,	0.00000E+00,	0,	0
  5.29412E+00,	1.00000E+01,	-2.31684E-02,	1.13782E+02,	8.51482E+01,	-3.36799E+02,	0.00000E+00,	0,	0
  4.16667E+00,	1.00000E+01,	-2.31684E-02,	1.17246E+02,	1.00435E+02,	-4.13577E+02,	0.00000E+00,	0,	0
  3.30882E+00,	1.00000E+01,	-2.31684E-02,	1.21520E+02,	1.17618E+02,	-5.04279E+02,	0.00000E+00,	0,	0
  2.61628E+00,	1.00000E+01,	-2.31684E-02,	1.25513E+02,	1.37840E+02,	-6.17575E+02,	0.00000E+00,	0,	0
  2.07373E+00,	1.00000E+01,	-2.31684E-02,	1.30285E+02,	1.60352E+02,	-7.56419E+02,	0.00000E+00,	0,	0
  1.64234E+00,	1.00000E+01,	-2.31684E-02,	1.36110E+02,	1.86251E+02,	-9.28972E+02,	0.00000E+00,	0,	0
  1.30058E+00,	1.00000E+01,	-2.31684E-02,	1.40309E+02,	2.16514E+02,	-1.14412E+03,	0.00000E+00,	0,	0
  1.03211E+00,	1.00000E+01,	-2.31684E-02,	1.44717E+02,	2.52000E+02,	-1.41009E+03,	0.00000E+00,	0,	0
  8.15217E-01,	1.00000E+01,	-2.31684E-02,	1.51657E+02,	2.96477E+02,	-1.74768E+03,	0.00000E+00,	0,	0
  6.46552E-01,	1.00000E+01,	-2.31684E-02,	1.60797E+02,	3.50484E+02,	-2.16112E+03,	0.00000E+00,	0,	0
  5.11364E-01,	1.00000E+01,	-2.31684E-02,	1.65811E+02,	4.13187E+02,	-2.68364E+03,	0.00000E+00,	0,	0
  4.07609E-01,	1.00000E+01,	-2.31684E-02,	1.71863E+02,	5.02525E+02,	-3.31065E+03,	0.00000E+00,	0,	0
  3.21429E-01,	1.00000E+01,	-2.31684E-02,	1.79014E+02,	6.21965E+02,	-4.14634E+03,	0.00000E+00,	0,	0
  2.54525E-01,	1.00000E+01,	-2.31684E-02,	1.87783E+02,	7.87245E+02,	-5.14300E+03,	0.00000E+00,	0,	0
  2.01613E-01,	1.00000E+01,	-2.31684E-02,	1.98638E+02,	1.00738E+03,	-6.37665E+03,	0.00000E+00,	0,	0
  1.59574E-01,	1.00000E+01,	-2.31684E-02,	2.12095E+02,	1.30778E+03,	-7.90715E+03,	0.00000E+00,	0,	0
  1.26689E-01,	1.00000E+01,	-2.31684E-02,	2.29042E+02,	1.71235E+03,	-9.76159E+03,	0.00000E+00,	0,	0
  1.00446E-01,	1.00000E+01,	-2.31684E-02,	2.49920E+02,	2.26532E+03,	-1.20561E+04,	0.00000E+00,	0,	0