Z60W Data File: Version 1.1
CorrTest for Windows: SN CS310H1805157  V5.2.1111.9  2.5H6.220118
Sweep Frequency: Control Voltage
  Date:4-30-2026   Time:14:28:29
  Begin Information:            Cell Information
      Surface Area:           1
      Density:                7.8
      Weight:                 28
  End Information:              Cell Information
  Freq (Hz)     Ampl(mV)       Bias(V)      Time(Sec)       Z'(Ohm.cm^2)    Z''(Ohm.cm^2)        GD       Err      Range
End Comments
  3.07200E+05,	1.00000E+01,	-3.24303E-02,	3.22385E-02,	7.80012E+01,	1.05666E+01,	0.00000E+00,	0,	0
  2.76480E+05,	1.00000E+01,	-3.24303E-02,	1.62870E+00,	7.75882E+01,	8.55848E+00,	0.00000E+00,	0,	0
  1.97486E+05,	1.00000E+01,	-3.24303E-02,	2.52317E+00,	7.73064E+01,	5.37757E+00,	0.00000E+00,	0,	0
  1.53600E+05,	1.00000E+01,	-3.24303E-02,	3.47783E+00,	7.75329E+01,	3.55188E+00,	0.00000E+00,	0,	0
  1.25673E+05,	1.00000E+01,	-3.24303E-02,	4.37137E+00,	7.77357E+01,	2.09392E+00,	0.00000E+00,	0,	0
  9.87429E+04,	1.00000E+01,	-3.24303E-02,	5.29327E+00,	7.82189E+01,	6.86955E-01,	0.00000E+00,	0,	0
  7.68000E+04,	1.00000E+01,	-3.24303E-02,	6.19531E+00,	7.87931E+01,	-4.13201E-01,	0.00000E+00,	0,	0
  6.01043E+04,	1.00000E+01,	-3.24303E-02,	7.22034E+00,	7.94165E+01,	-1.36131E+00,	0.00000E+00,	0,	0
  4.93714E+04,	1.00000E+01,	-3.24303E-02,	8.78531E+00,	8.00508E+01,	-2.13899E+00,	0.00000E+00,	0,	0
  3.84000E+04,	1.00000E+01,	-3.24303E-02,	9.68089E+00,	8.07909E+01,	-2.64492E+00,	0.00000E+00,	0,	0
  3.00522E+04,	1.00000E+01,	-3.24303E-02,	1.05281E+01,	8.12169E+01,	-3.80863E+00,	0.00000E+00,	0,	0
  2.38345E+04,	1.00000E+01,	-3.24303E-02,	1.13898E+01,	8.20987E+01,	-3.92460E+00,	0.00000E+00,	0,	0
  1.86811E+04,	1.00000E+01,	-3.24303E-02,	1.22279E+01,	8.29200E+01,	-4.32226E+00,	0.00000E+00,	0,	0
  1.47064E+04,	1.00000E+01,	-3.24303E-02,	1.31851E+01,	8.38308E+01,	-4.97927E+00,	0.00000E+00,	0,	0
  1.15200E+04,	1.00000E+01,	-3.24303E-02,	1.41880E+01,	8.49842E+01,	-5.47734E+00,	0.00000E+00,	0,	0
  9.60000E+03,	1.00000E+01,	-3.24303E-02,	1.57541E+01,	8.58900E+01,	-5.81593E+00,	0.00000E+00,	0,	0
  7.51304E+03,	1.00000E+01,	-3.24303E-02,	1.66406E+01,	8.70358E+01,	-6.16061E+00,	0.00000E+00,	0,	0
  5.76000E+03,	1.00000E+01,	-3.24303E-02,	1.75319E+01,	8.83640E+01,	-6.35392E+00,	0.00000E+00,	0,	0
  4.54737E+03,	1.00000E+01,	-3.24303E-02,	1.83997E+01,	8.96522E+01,	-6.38203E+00,	0.00000E+00,	0,	0
  3.60000E+03,	1.00000E+01,	-3.24303E-02,	1.94068E+01,	9.04591E+01,	-6.60632E+00,	0.00000E+00,	0,	0
  2.88000E+03,	1.00000E+01,	-3.24303E-02,	2.03402E+01,	9.15014E+01,	-6.66597E+00,	0.00000E+00,	0,	0
  2.27368E+03,	1.00000E+01,	-3.24303E-02,	2.14678E+01,	9.22531E+01,	-6.93201E+00,	0.00000E+00,	0,	0
  1.78144E+03,	1.00000E+01,	-3.24303E-02,	2.22518E+01,	9.33633E+01,	-7.40998E+00,	0.00000E+00,	0,	0
  1.41639E+03,	1.00000E+01,	-3.24303E-02,	2.31546E+01,	9.39052E+01,	-8.16611E+00,	0.00000E+00,	0,	0
  1.12208E+03,	1.00000E+01,	-3.24303E-02,	2.41922E+01,	9.48930E+01,	-8.63487E+00,	0.00000E+00,	0,	0
  9.00000E+02,	1.00000E+01,	-3.24303E-02,	2.91901E+01,	9.60356E+01,	-9.71521E+00,	0.00000E+00,	0,	0
  7.20000E+02,	1.00000E+01,	-3.24303E-02,	3.05633E+01,	9.68514E+01,	-1.09851E+01,	0.00000E+00,	0,	0
  5.68421E+02,	1.00000E+01,	-3.24303E-02,	3.19507E+01,	9.77349E+01,	-1.27329E+01,	0.00000E+00,	0,	0
  4.40816E+02,	1.00000E+01,	-3.24303E-02,	3.34122E+01,	9.87626E+01,	-1.50958E+01,	0.00000E+00,	0,	0
  3.54098E+02,	1.00000E+01,	-3.24303E-02,	3.58001E+01,	9.98983E+01,	-1.76850E+01,	0.00000E+00,	0,	0
  2.76923E+02,	1.00000E+01,	-3.24303E-02,	3.84362E+01,	1.01177E+02,	-2.12737E+01,	0.00000E+00,	0,	0
  2.20408E+02,	1.00000E+01,	-3.24303E-02,	4.13657E+01,	1.02599E+02,	-2.54222E+01,	0.00000E+00,	0,	0
  1.74194E+02,	1.00000E+01,	-3.24303E-02,	4.46297E+01,	1.04289E+02,	-3.07502E+01,	0.00000E+00,	0,	0
  1.37580E+02,	1.00000E+01,	-3.24303E-02,	4.82976E+01,	1.06270E+02,	-3.73420E+01,	0.00000E+00,	0,	0
  1.09091E+02,	1.00000E+01,	-3.24303E-02,	5.23762E+01,	1.08595E+02,	-4.54119E+01,	0.00000E+00,	0,	0
  8.70968E+01,	1.00000E+01,	-3.24303E-02,	6.05191E+01,	1.11968E+02,	-5.52368E+01,	0.00000E+00,	0,	0
  6.83544E+01,	1.00000E+01,	-3.24303E-02,	6.55343E+01,	1.15840E+02,	-6.85204E+01,	0.00000E+00,	0,	0
  5.45455E+01,	1.00000E+01,	-3.24303E-02,	7.09695E+01,	1.18694E+02,	-8.12762E+01,	0.00000E+00,	0,	0
  4.28571E+01,	1.00000E+01,	-3.24303E-02,	7.45020E+01,	1.23310E+02,	-1.00093E+02,	0.00000E+00,	0,	0
  3.39623E+01,	1.00000E+01,	-3.24303E-02,	7.82389E+01,	1.27794E+02,	-1.22685E+02,	0.00000E+00,	0,	0
  2.68657E+01,	1.00000E+01,	-3.24303E-02,	8.20873E+01,	1.35421E+02,	-1.50644E+02,	0.00000E+00,	0,	0
  2.13439E+01,	1.00000E+01,	-3.24303E-02,	8.59117E+01,	1.44464E+02,	-1.83847E+02,	0.00000E+00,	0,	0
  1.73077E+01,	1.00000E+01,	-3.24303E-02,	8.96132E+01,	1.54632E+02,	-2.20239E+02,	0.00000E+00,	0,	0
  1.36364E+01,	1.00000E+01,	-3.24303E-02,	9.46783E+01,	1.69253E+02,	-2.69861E+02,	0.00000E+00,	0,	0
  1.07143E+01,	1.00000E+01,	-3.24303E-02,	9.75918E+01,	1.87723E+02,	-3.30601E+02,	0.00000E+00,	0,	0
  8.49057E+00,	1.00000E+01,	-3.24303E-02,	1.01816E+02,	2.10346E+02,	-4.01298E+02,	0.00000E+00,	0,	0
  6.71642E+00,	1.00000E+01,	-3.24303E-02,	1.04321E+02,	2.38279E+02,	-4.86004E+02,	0.00000E+00,	0,	0
  5.29412E+00,	1.00000E+01,	-3.24303E-02,	1.07283E+02,	2.72800E+02,	-5.88495E+02,	0.00000E+00,	0,	0
  4.16667E+00,	1.00000E+01,	-3.24303E-02,	1.10756E+02,	3.14112E+02,	-7.12067E+02,	0.00000E+00,	0,	0
  3.30882E+00,	1.00000E+01,	-3.24303E-02,	1.14980E+02,	3.60571E+02,	-8.54791E+02,	0.00000E+00,	0,	0
  2.61628E+00,	1.00000E+01,	-3.24303E-02,	1.18949E+02,	4.15041E+02,	-1.02887E+03,	0.00000E+00,	0,	0
  2.07373E+00,	1.00000E+01,	-3.24303E-02,	1.23749E+02,	4.76359E+02,	-1.23792E+03,	0.00000E+00,	0,	0
  1.64234E+00,	1.00000E+01,	-3.24303E-02,	1.29535E+02,	5.46051E+02,	-1.49382E+03,	0.00000E+00,	0,	0
  1.30058E+00,	1.00000E+01,	-3.24303E-02,	1.33713E+02,	6.26537E+02,	-1.80594E+03,	0.00000E+00,	0,	0
  1.03211E+00,	1.00000E+01,	-3.24303E-02,	1.38154E+02,	7.19100E+02,	-2.18756E+03,	0.00000E+00,	0,	0
  8.15217E-01,	1.00000E+01,	-3.24303E-02,	1.45094E+02,	8.27892E+02,	-2.66306E+03,	0.00000E+00,	0,	0
  6.46552E-01,	1.00000E+01,	-3.24303E-02,	1.54248E+02,	9.55051E+02,	-3.24082E+03,	0.00000E+00,	0,	0
  5.11364E-01,	1.00000E+01,	-3.24303E-02,	1.59253E+02,	1.08191E+03,	-3.96472E+03,	0.00000E+00,	0,	0
  4.07609E-01,	1.00000E+01,	-3.24303E-02,	1.65321E+02,	1.26308E+03,	-4.81999E+03,	0.00000E+00,	0,	0
  3.21429E-01,	1.00000E+01,	-3.24303E-02,	1.72495E+02,	1.49068E+03,	-5.97898E+03,	0.00000E+00,	0,	0
  2.54525E-01,	1.00000E+01,	-3.24303E-02,	1.81266E+02,	1.77264E+03,	-7.30305E+03,	0.00000E+00,	0,	0
  2.01613E-01,	1.00000E+01,	-3.24303E-02,	1.92102E+02,	2.10701E+03,	-8.92906E+03,	0.00000E+00,	0,	0
  1.59574E-01,	1.00000E+01,	-3.24303E-02,	2.05550E+02,	2.50620E+03,	-1.09232E+04,	0.00000E+00,	0,	0
  1.26689E-01,	1.00000E+01,	-3.24303E-02,	2.39436E+02,	3.00808E+03,	-1.31929E+04,	0.00000E+00,	0,	0
  1.00446E-01,	1.00000E+01,	-3.24303E-02,	2.60297E+02,	3.44074E+03,	-1.64544E+04,	0.00000E+00,	0,	0