Z60W Data File: Version 1.1
CorrTest for Windows: SN CS310H1805157  V5.2.1111.9  2.5H6.220118
Sweep Frequency: Control Voltage
  Date:4-30-2026   Time:14:22:59
  Begin Information:            Cell Information
      Surface Area:           1
      Density:                7.8
      Weight:                 28
  End Information:              Cell Information
  Freq (Hz)     Ampl(mV)       Bias(V)      Time(Sec)       Z'(Ohm.cm^2)    Z''(Ohm.cm^2)        GD       Err      Range
End Comments
  3.07200E+05,	1.00000E+01,	-3.08866E-02,	2.48849E-02,	2.88241E+01,	1.35314E+01,	0.00000E+00,	0,	0
  2.76480E+05,	1.00000E+01,	-3.08866E-02,	1.62433E+00,	2.91859E+01,	1.14218E+01,	0.00000E+00,	0,	0
  1.97486E+05,	1.00000E+01,	-3.08866E-02,	2.51998E+00,	2.93000E+01,	7.74949E+00,	0.00000E+00,	0,	0
  1.53600E+05,	1.00000E+01,	-3.08866E-02,	3.41726E+00,	2.95359E+01,	5.54749E+00,	0.00000E+00,	0,	0
  1.25673E+05,	1.00000E+01,	-3.08866E-02,	4.35825E+00,	2.97893E+01,	4.02766E+00,	0.00000E+00,	0,	0
  9.87429E+04,	1.00000E+01,	-3.08866E-02,	5.26083E+00,	3.01006E+01,	2.58585E+00,	0.00000E+00,	0,	0
  7.68000E+04,	1.00000E+01,	-3.08866E-02,	6.17468E+00,	3.05908E+01,	1.31662E+00,	0.00000E+00,	0,	0
  6.01043E+04,	1.00000E+01,	-3.08866E-02,	8.28413E+00,	3.12412E+01,	3.58430E-01,	0.00000E+00,	0,	0
  4.93714E+04,	1.00000E+01,	-3.08866E-02,	9.85251E+00,	3.17888E+01,	-3.73679E-01,	0.00000E+00,	0,	0
  3.84000E+04,	1.00000E+01,	-3.08866E-02,	1.07652E+01,	3.23450E+01,	-1.12790E+00,	0.00000E+00,	0,	0
  3.00522E+04,	1.00000E+01,	-3.08866E-02,	1.16208E+01,	3.30289E+01,	-1.79075E+00,	0.00000E+00,	0,	0
  2.38345E+04,	1.00000E+01,	-3.08866E-02,	1.24847E+01,	3.35685E+01,	-2.40247E+00,	0.00000E+00,	0,	0
  1.86811E+04,	1.00000E+01,	-3.08866E-02,	1.33296E+01,	3.42011E+01,	-2.98565E+00,	0.00000E+00,	0,	0
  1.47064E+04,	1.00000E+01,	-3.08866E-02,	1.42751E+01,	3.49053E+01,	-3.51944E+00,	0.00000E+00,	0,	0
  1.15200E+04,	1.00000E+01,	-3.08866E-02,	1.52414E+01,	3.58004E+01,	-4.03995E+00,	0.00000E+00,	0,	0
  9.60000E+03,	1.00000E+01,	-3.08866E-02,	1.68535E+01,	3.66361E+01,	-4.40804E+00,	0.00000E+00,	0,	0
  7.51304E+03,	1.00000E+01,	-3.08866E-02,	1.77876E+01,	3.75612E+01,	-4.82916E+00,	0.00000E+00,	0,	0
  5.76000E+03,	1.00000E+01,	-3.08866E-02,	1.86880E+01,	3.86110E+01,	-5.30589E+00,	0.00000E+00,	0,	0
  4.54737E+03,	1.00000E+01,	-3.08866E-02,	1.95883E+01,	3.95321E+01,	-5.73908E+00,	0.00000E+00,	0,	0
  3.60000E+03,	1.00000E+01,	-3.08866E-02,	2.05921E+01,	4.04912E+01,	-6.13483E+00,	0.00000E+00,	0,	0
  2.88000E+03,	1.00000E+01,	-3.08866E-02,	2.14960E+01,	4.15741E+01,	-6.56722E+00,	0.00000E+00,	0,	0
  2.27368E+03,	1.00000E+01,	-3.08866E-02,	2.38286E+01,	4.26217E+01,	-7.08775E+00,	0.00000E+00,	0,	0
  1.78144E+03,	1.00000E+01,	-3.08866E-02,	2.46211E+01,	4.37520E+01,	-7.83371E+00,	0.00000E+00,	0,	0
  1.41639E+03,	1.00000E+01,	-3.08866E-02,	2.55297E+01,	4.46694E+01,	-8.41605E+00,	0.00000E+00,	0,	0
  1.12208E+03,	1.00000E+01,	-3.08866E-02,	2.65939E+01,	4.57391E+01,	-9.41182E+00,	0.00000E+00,	0,	0
  9.00000E+02,	1.00000E+01,	-3.08866E-02,	3.15801E+01,	4.75454E+01,	-1.03959E+01,	0.00000E+00,	0,	0
  7.20000E+02,	1.00000E+01,	-3.08866E-02,	3.29997E+01,	4.86213E+01,	-1.17051E+01,	0.00000E+00,	0,	0
  5.68421E+02,	1.00000E+01,	-3.08866E-02,	3.44032E+01,	4.98140E+01,	-1.34200E+01,	0.00000E+00,	0,	0
  4.40816E+02,	1.00000E+01,	-3.08866E-02,	3.58458E+01,	5.11150E+01,	-1.57554E+01,	0.00000E+00,	0,	0
  3.54098E+02,	1.00000E+01,	-3.08866E-02,	3.82318E+01,	5.25482E+01,	-1.82544E+01,	0.00000E+00,	0,	0
  2.76923E+02,	1.00000E+01,	-3.08866E-02,	4.08519E+01,	5.42037E+01,	-2.17177E+01,	0.00000E+00,	0,	0
  2.20408E+02,	1.00000E+01,	-3.08866E-02,	4.37954E+01,	5.59692E+01,	-2.57210E+01,	0.00000E+00,	0,	0
  1.74194E+02,	1.00000E+01,	-3.08866E-02,	4.70492E+01,	5.79865E+01,	-3.08334E+01,	0.00000E+00,	0,	0
  1.37580E+02,	1.00000E+01,	-3.08866E-02,	5.07313E+01,	6.02700E+01,	-3.71818E+01,	0.00000E+00,	0,	0
  1.09091E+02,	1.00000E+01,	-3.08866E-02,	5.48065E+01,	6.28884E+01,	-4.49405E+01,	0.00000E+00,	0,	0
  8.70968E+01,	1.00000E+01,	-3.08866E-02,	6.05873E+01,	6.60773E+01,	-5.42983E+01,	0.00000E+00,	0,	0
  6.83544E+01,	1.00000E+01,	-3.08866E-02,	6.56077E+01,	7.00981E+01,	-6.70813E+01,	0.00000E+00,	0,	0
  5.45455E+01,	1.00000E+01,	-3.08866E-02,	7.10841E+01,	7.39429E+01,	-7.96798E+01,	0.00000E+00,	0,	0
  4.28571E+01,	1.00000E+01,	-3.08866E-02,	7.46006E+01,	7.89887E+01,	-9.78629E+01,	0.00000E+00,	0,	0
  3.39623E+01,	1.00000E+01,	-3.08866E-02,	7.83200E+01,	8.42146E+01,	-1.19492E+02,	0.00000E+00,	0,	0
  2.68657E+01,	1.00000E+01,	-3.08866E-02,	8.21672E+01,	9.23752E+01,	-1.46302E+02,	0.00000E+00,	0,	0
  2.13439E+01,	1.00000E+01,	-3.08866E-02,	8.59834E+01,	1.02184E+02,	-1.77926E+02,	0.00000E+00,	0,	0
  1.73077E+01,	1.00000E+01,	-3.08866E-02,	9.26999E+01,	1.13831E+02,	-2.12605E+02,	0.00000E+00,	0,	0
  1.36364E+01,	1.00000E+01,	-3.08866E-02,	9.77310E+01,	1.29274E+02,	-2.59156E+02,	0.00000E+00,	0,	0
  1.07143E+01,	1.00000E+01,	-3.08866E-02,	1.00647E+02,	1.48262E+02,	-3.15487E+02,	0.00000E+00,	0,	0
  8.49057E+00,	1.00000E+01,	-3.08866E-02,	1.04890E+02,	1.70728E+02,	-3.80796E+02,	0.00000E+00,	0,	0
  6.71642E+00,	1.00000E+01,	-3.08866E-02,	1.07442E+02,	1.97284E+02,	-4.58639E+02,	0.00000E+00,	0,	0
  5.29412E+00,	1.00000E+01,	-3.08866E-02,	1.10414E+02,	2.29153E+02,	-5.53481E+02,	0.00000E+00,	0,	0
  4.16667E+00,	1.00000E+01,	-3.08866E-02,	1.13887E+02,	2.65985E+02,	-6.68671E+02,	0.00000E+00,	0,	0
  3.30882E+00,	1.00000E+01,	-3.08866E-02,	1.18170E+02,	3.06686E+02,	-8.02931E+02,	0.00000E+00,	0,	0
  2.61628E+00,	1.00000E+01,	-3.08866E-02,	1.22144E+02,	3.53690E+02,	-9.68495E+02,	0.00000E+00,	0,	0
  2.07373E+00,	1.00000E+01,	-3.08866E-02,	1.26910E+02,	4.06852E+02,	-1.16936E+03,	0.00000E+00,	0,	0
  1.64234E+00,	1.00000E+01,	-3.08866E-02,	1.32702E+02,	4.68152E+02,	-1.41686E+03,	0.00000E+00,	0,	0
  1.30058E+00,	1.00000E+01,	-3.08866E-02,	1.36866E+02,	5.40199E+02,	-1.72021E+03,	0.00000E+00,	0,	0
  1.03211E+00,	1.00000E+01,	-3.08866E-02,	1.41286E+02,	6.24579E+02,	-2.09181E+03,	0.00000E+00,	0,	0
  8.15217E-01,	1.00000E+01,	-3.08866E-02,	1.48218E+02,	7.26861E+02,	-2.55464E+03,	0.00000E+00,	0,	0
  6.46552E-01,	1.00000E+01,	-3.08866E-02,	1.57326E+02,	8.47393E+02,	-3.11675E+03,	0.00000E+00,	0,	0
  5.11364E-01,	1.00000E+01,	-3.08866E-02,	1.62345E+02,	9.69202E+02,	-3.81740E+03,	0.00000E+00,	0,	0
  4.07609E-01,	1.00000E+01,	-3.08866E-02,	1.68441E+02,	1.14252E+03,	-4.64552E+03,	0.00000E+00,	0,	0
  3.21429E-01,	1.00000E+01,	-3.08866E-02,	1.75556E+02,	1.35694E+03,	-5.76186E+03,	0.00000E+00,	0,	0
  2.54525E-01,	1.00000E+01,	-3.08866E-02,	1.84333E+02,	1.62390E+03,	-7.04141E+03,	0.00000E+00,	0,	0
  2.01613E-01,	1.00000E+01,	-3.08866E-02,	1.95210E+02,	1.93243E+03,	-8.61497E+03,	0.00000E+00,	0,	0
  1.59574E-01,	1.00000E+01,	-3.08866E-02,	2.08668E+02,	2.29484E+03,	-1.05543E+04,	0.00000E+00,	0,	0
  1.26689E-01,	1.00000E+01,	-3.08866E-02,	2.42605E+02,	2.75700E+03,	-1.27768E+04,	0.00000E+00,	0,	0
  1.00446E-01,	1.00000E+01,	-3.08866E-02,	2.63465E+02,	3.13901E+03,	-1.59727E+04,	0.00000E+00,	0,	0