Z60W Data File: Version 1.1
CorrTest for Windows: SN CS310H1805157  V5.2.1111.9  2.5H6.220118
Sweep Frequency: Control Voltage
  Date:4-30-2026   Time:17:36:00
  Begin Information:            Cell Information
      Surface Area:           1
      Density:                7.8
      Weight:                 28
  End Information:              Cell Information
  Freq (Hz)     Ampl(mV)       Bias(V)      Time(Sec)       Z'(Ohm.cm^2)    Z''(Ohm.cm^2)        GD       Err      Range
End Comments
  3.07200E+05,	1.00000E+01,	-4.77110E-02,	2.53240E-02,	6.35719E+02,	-6.63909E+02,	0.00000E+00,	0,	0
  2.76480E+05,	1.00000E+01,	-4.77110E-02,	1.62541E+00,	6.57240E+02,	-7.27678E+02,	0.00000E+00,	0,	0
  1.97486E+05,	1.00000E+01,	-4.77110E-02,	2.52526E+00,	7.40074E+02,	-9.81019E+02,	0.00000E+00,	0,	0
  1.53600E+05,	1.00000E+01,	-4.77110E-02,	3.47445E+00,	8.68068E+02,	-1.18305E+03,	0.00000E+00,	0,	0
  1.25673E+05,	1.00000E+01,	-4.77110E-02,	4.36488E+00,	1.03283E+03,	-1.35308E+03,	0.00000E+00,	0,	0
  9.87429E+04,	1.00000E+01,	-4.77110E-02,	5.25351E+00,	1.13920E+03,	-1.66545E+03,	0.00000E+00,	0,	0
  7.68000E+04,	1.00000E+01,	-4.77110E-02,	6.17404E+00,	1.39493E+03,	-1.98527E+03,	0.00000E+00,	0,	0
  6.01043E+04,	1.00000E+01,	-4.77110E-02,	8.29310E+00,	1.76850E+03,	-2.27149E+03,	0.00000E+00,	0,	0
  4.93714E+04,	1.00000E+01,	-4.77110E-02,	9.86306E+00,	2.12577E+03,	-2.50020E+03,	0.00000E+00,	0,	0
  3.84000E+04,	1.00000E+01,	-4.77110E-02,	1.07968E+01,	2.64141E+03,	-2.76733E+03,	0.00000E+00,	0,	0
  3.00522E+04,	1.00000E+01,	-4.77110E-02,	1.16609E+01,	3.12144E+03,	-1.84222E+03,	0.00000E+00,	0,	0
  2.38345E+04,	1.00000E+01,	-4.77110E-02,	1.25253E+01,	3.94517E+03,	-2.99803E+03,	0.00000E+00,	0,	0
  1.86811E+04,	1.00000E+01,	-4.77110E-02,	1.34066E+01,	4.93702E+03,	-2.18428E+03,	0.00000E+00,	0,	0
  1.47064E+04,	1.00000E+01,	-4.77110E-02,	1.44004E+01,	5.25661E+03,	-2.68788E+03,	0.00000E+00,	0,	0
  1.15200E+04,	1.00000E+01,	-4.77110E-02,	1.53857E+01,	5.68931E+03,	-2.45018E+03,	0.00000E+00,	0,	0
  9.60000E+03,	1.00000E+01,	-4.77110E-02,	1.69564E+01,	6.04473E+03,	-2.20939E+03,	0.00000E+00,	0,	0
  7.51304E+03,	1.00000E+01,	-4.77110E-02,	1.78427E+01,	6.38175E+03,	-1.89217E+03,	0.00000E+00,	0,	0
  5.76000E+03,	1.00000E+01,	-4.77110E-02,	1.87972E+01,	6.63419E+03,	-1.67489E+03,	0.00000E+00,	0,	0
  4.54737E+03,	1.00000E+01,	-4.77110E-02,	1.96590E+01,	6.74872E+03,	-1.30307E+03,	0.00000E+00,	0,	0
  3.60000E+03,	1.00000E+01,	-4.77110E-02,	2.06564E+01,	6.87419E+03,	-1.09929E+03,	0.00000E+00,	0,	0
  2.88000E+03,	1.00000E+01,	-4.77110E-02,	2.15433E+01,	7.31781E+03,	-1.11346E+03,	0.00000E+00,	0,	0
  2.27368E+03,	1.00000E+01,	-4.77110E-02,	2.27047E+01,	7.03088E+03,	-9.75888E+02,	0.00000E+00,	0,	0
  1.78144E+03,	1.00000E+01,	-4.77110E-02,	2.35487E+01,	7.18086E+03,	-9.84128E+02,	0.00000E+00,	0,	0
  1.41639E+03,	1.00000E+01,	-4.77110E-02,	2.44722E+01,	7.44008E+03,	-1.20311E+03,	0.00000E+00,	0,	0
  1.12208E+03,	1.00000E+01,	-4.77110E-02,	2.55677E+01,	7.14873E+03,	-6.68405E+02,	0.00000E+00,	0,	0
  9.00000E+02,	1.00000E+01,	-4.77110E-02,	3.05834E+01,	7.50755E+03,	-8.06614E+02,	0.00000E+00,	0,	0
  7.20000E+02,	1.00000E+01,	-4.77110E-02,	3.19556E+01,	7.62840E+03,	-7.72294E+02,	0.00000E+00,	0,	0
  5.68421E+02,	1.00000E+01,	-4.77110E-02,	3.33474E+01,	7.76482E+03,	-7.36840E+02,	0.00000E+00,	0,	0
  4.40816E+02,	1.00000E+01,	-4.77110E-02,	3.63959E+01,	7.89339E+03,	-6.62862E+02,	0.00000E+00,	0,	0
  3.54098E+02,	1.00000E+01,	-4.77110E-02,	3.87517E+01,	8.00556E+03,	-6.11924E+02,	0.00000E+00,	0,	0
  2.76923E+02,	1.00000E+01,	-4.77110E-02,	4.13850E+01,	8.10581E+03,	-5.41646E+02,	0.00000E+00,	0,	0
  2.20408E+02,	1.00000E+01,	-4.77110E-02,	4.43046E+01,	8.18320E+03,	-4.82612E+02,	0.00000E+00,	0,	0
  1.74194E+02,	1.00000E+01,	-4.77110E-02,	4.75546E+01,	8.24782E+03,	-4.24692E+02,	0.00000E+00,	0,	0
  1.37580E+02,	1.00000E+01,	-4.77110E-02,	5.11953E+01,	8.30203E+03,	-3.89938E+02,	0.00000E+00,	0,	0
  1.09091E+02,	1.00000E+01,	-4.77110E-02,	5.52687E+01,	8.35792E+03,	-3.70517E+02,	0.00000E+00,	0,	0
  8.70968E+01,	1.00000E+01,	-4.77110E-02,	6.09762E+01,	8.42118E+03,	-3.63789E+02,	0.00000E+00,	0,	0
  6.83544E+01,	1.00000E+01,	-4.77110E-02,	6.60465E+01,	8.51798E+03,	-3.86394E+02,	0.00000E+00,	0,	0
  5.45455E+01,	1.00000E+01,	-4.77110E-02,	7.14999E+01,	8.45784E+03,	-3.34290E+02,	0.00000E+00,	0,	0
  4.28571E+01,	1.00000E+01,	-4.77110E-02,	7.50360E+01,	8.49785E+03,	-3.58839E+02,	0.00000E+00,	0,	0
  3.39623E+01,	1.00000E+01,	-4.77110E-02,	7.87710E+01,	8.49990E+03,	-4.34493E+02,	0.00000E+00,	0,	0
  2.68657E+01,	1.00000E+01,	-4.77110E-02,	8.26090E+01,	8.57520E+03,	-4.75830E+02,	0.00000E+00,	0,	0
  2.13439E+01,	1.00000E+01,	-4.77110E-02,	8.64216E+01,	8.63072E+03,	-5.36944E+02,	0.00000E+00,	0,	0
  1.73077E+01,	1.00000E+01,	-4.77110E-02,	9.00949E+01,	8.68082E+03,	-6.14829E+02,	0.00000E+00,	0,	0
  1.36364E+01,	1.00000E+01,	-4.77110E-02,	9.51605E+01,	8.74613E+03,	-7.23991E+02,	0.00000E+00,	0,	0
  1.07143E+01,	1.00000E+01,	-4.77110E-02,	9.80830E+01,	8.80985E+03,	-8.61861E+02,	0.00000E+00,	0,	0
  8.49057E+00,	1.00000E+01,	-4.77110E-02,	1.02280E+02,	8.88690E+03,	-1.03425E+03,	0.00000E+00,	0,	0
  6.71642E+00,	1.00000E+01,	-4.77110E-02,	1.04819E+02,	8.96266E+03,	-1.24347E+03,	0.00000E+00,	0,	0
  5.29412E+00,	1.00000E+01,	-4.77110E-02,	1.07753E+02,	9.05826E+03,	-1.50119E+03,	0.00000E+00,	0,	0
  4.16667E+00,	1.00000E+01,	-4.77110E-02,	1.11221E+02,	9.17361E+03,	-1.81639E+03,	0.00000E+00,	0,	0
  3.30882E+00,	1.00000E+01,	-4.77110E-02,	1.15453E+02,	9.31140E+03,	-2.18542E+03,	0.00000E+00,	0,	0
  2.61628E+00,	1.00000E+01,	-4.77110E-02,	1.19429E+02,	9.46727E+03,	-2.63617E+03,	0.00000E+00,	0,	0
  2.07373E+00,	1.00000E+01,	-4.77110E-02,	1.24194E+02,	9.65859E+03,	-3.17496E+03,	0.00000E+00,	0,	0
  1.64234E+00,	1.00000E+01,	-4.77110E-02,	1.29979E+02,	9.88054E+03,	-3.83156E+03,	0.00000E+00,	0,	0
  1.30058E+00,	1.00000E+01,	-4.77110E-02,	1.34136E+02,	1.01105E+04,	-4.62079E+03,	0.00000E+00,	0,	0
  1.03211E+00,	1.00000E+01,	-4.77110E-02,	1.38550E+02,	1.04427E+04,	-5.52216E+03,	0.00000E+00,	0,	0
  8.15217E-01,	1.00000E+01,	-4.77110E-02,	1.45485E+02,	1.07125E+04,	-6.74373E+03,	0.00000E+00,	0,	0
  6.46552E-01,	1.00000E+01,	-4.77110E-02,	1.54570E+02,	1.11411E+04,	-8.16769E+03,	0.00000E+00,	0,	0
  5.11364E-01,	1.00000E+01,	-4.77110E-02,	1.59585E+02,	1.14848E+04,	-1.03875E+04,	0.00000E+00,	0,	0
  4.07609E-01,	1.00000E+01,	-4.77110E-02,	1.65666E+02,	1.20198E+04,	-1.24221E+04,	0.00000E+00,	0,	0
  3.21429E-01,	1.00000E+01,	-4.77110E-02,	1.72794E+02,	1.31813E+04,	-1.55219E+04,	0.00000E+00,	0,	0
  2.54525E-01,	1.00000E+01,	-4.77110E-02,	1.81566E+02,	1.39216E+04,	-1.86989E+04,	0.00000E+00,	0,	0
  2.01613E-01,	1.00000E+01,	-4.77110E-02,	1.92466E+02,	1.48701E+04,	-2.27288E+04,	0.00000E+00,	0,	0
  1.59574E-01,	1.00000E+01,	-4.77110E-02,	2.05955E+02,	1.60527E+04,	-2.76877E+04,	0.00000E+00,	0,	0
  1.26689E-01,	1.00000E+01,	-4.77110E-02,	2.22846E+02,	1.74943E+04,	-3.36346E+04,	0.00000E+00,	0,	0
  1.00446E-01,	1.00000E+01,	-4.77110E-02,	2.43733E+02,	1.93452E+04,	-4.10452E+04,	0.00000E+00,	0,	0