Z60W Data File: Version 1.1
CorrTest for Windows: SN CS310H1805157  V5.2.1111.9  2.5H6.220118
Sweep Frequency: Control Voltage
  Date:4-30-2026   Time:17:06:48
  Begin Information:            Cell Information
      Surface Area:           1
      Density:                7.8
      Weight:                 28
  End Information:              Cell Information
  Freq (Hz)     Ampl(mV)       Bias(V)      Time(Sec)       Z'(Ohm.cm^2)    Z''(Ohm.cm^2)        GD       Err      Range
End Comments
  3.07200E+05,	1.00000E+01,	-4.60325E-02,	3.95019E-02,	6.36845E+02,	-4.43377E+02,	0.00000E+00,	0,	0
  2.76480E+05,	1.00000E+01,	-4.60325E-02,	1.64362E+00,	6.54100E+02,	-4.63914E+02,	0.00000E+00,	0,	0
  1.97486E+05,	1.00000E+01,	-4.60325E-02,	2.54906E+00,	7.39631E+02,	-5.88353E+02,	0.00000E+00,	0,	0
  1.53600E+05,	1.00000E+01,	-4.60325E-02,	3.45180E+00,	8.46507E+02,	-6.70458E+02,	0.00000E+00,	0,	0
  1.25673E+05,	1.00000E+01,	-4.60325E-02,	4.40369E+00,	9.47198E+02,	-7.73013E+02,	0.00000E+00,	0,	0
  9.87429E+04,	1.00000E+01,	-4.60325E-02,	5.30449E+00,	1.11132E+03,	-8.46269E+02,	0.00000E+00,	0,	0
  7.68000E+04,	1.00000E+01,	-4.60325E-02,	6.21175E+00,	1.27523E+03,	-9.27069E+02,	0.00000E+00,	0,	0
  6.01043E+04,	1.00000E+01,	-4.60325E-02,	8.32389E+00,	1.48683E+03,	-9.36975E+02,	0.00000E+00,	0,	0
  4.93714E+04,	1.00000E+01,	-4.60325E-02,	9.92741E+00,	1.66639E+03,	-9.42105E+02,	0.00000E+00,	0,	0
  3.84000E+04,	1.00000E+01,	-4.60325E-02,	1.08271E+01,	1.86910E+03,	-9.04229E+02,	0.00000E+00,	0,	0
  3.00522E+04,	1.00000E+01,	-4.60325E-02,	1.16929E+01,	1.80969E+03,	-6.91508E+02,	0.00000E+00,	0,	0
  2.38345E+04,	1.00000E+01,	-4.60325E-02,	1.25717E+01,	2.22739E+03,	-7.33998E+02,	0.00000E+00,	0,	0
  1.86811E+04,	1.00000E+01,	-4.60325E-02,	1.34655E+01,	2.23295E+03,	-5.06602E+02,	0.00000E+00,	0,	0
  1.47064E+04,	1.00000E+01,	-4.60325E-02,	1.44250E+01,	2.39830E+03,	-5.28280E+02,	0.00000E+00,	0,	0
  1.15200E+04,	1.00000E+01,	-4.60325E-02,	1.54412E+01,	2.45616E+03,	-4.62138E+02,	0.00000E+00,	0,	0
  9.60000E+03,	1.00000E+01,	-4.60325E-02,	1.70144E+01,	2.48015E+03,	-4.17036E+02,	0.00000E+00,	0,	0
  7.51304E+03,	1.00000E+01,	-4.60325E-02,	1.78857E+01,	2.52792E+03,	-3.63549E+02,	0.00000E+00,	0,	0
  5.76000E+03,	1.00000E+01,	-4.60325E-02,	1.88001E+01,	2.55847E+03,	-3.19090E+02,	0.00000E+00,	0,	0
  4.54737E+03,	1.00000E+01,	-4.60325E-02,	1.96654E+01,	2.58273E+03,	-2.98142E+02,	0.00000E+00,	0,	0
  3.60000E+03,	1.00000E+01,	-4.60325E-02,	2.06669E+01,	2.60022E+03,	-2.37448E+02,	0.00000E+00,	0,	0
  2.88000E+03,	1.00000E+01,	-4.60325E-02,	2.15655E+01,	2.63097E+03,	-2.44500E+02,	0.00000E+00,	0,	0
  2.27368E+03,	1.00000E+01,	-4.60325E-02,	2.27064E+01,	2.64941E+03,	-2.69495E+02,	0.00000E+00,	0,	0
  1.78144E+03,	1.00000E+01,	-4.60325E-02,	2.34962E+01,	2.74089E+03,	-2.47833E+02,	0.00000E+00,	0,	0
  1.41639E+03,	1.00000E+01,	-4.60325E-02,	2.44224E+01,	2.70293E+03,	-2.09259E+02,	0.00000E+00,	0,	0
  1.12208E+03,	1.00000E+01,	-4.60325E-02,	2.54977E+01,	2.78015E+03,	-2.81620E+02,	0.00000E+00,	0,	0
  9.00000E+02,	1.00000E+01,	-4.60325E-02,	3.04938E+01,	2.83123E+03,	-2.19289E+02,	0.00000E+00,	0,	0
  7.20000E+02,	1.00000E+01,	-4.60325E-02,	3.18598E+01,	2.86455E+03,	-2.00541E+02,	0.00000E+00,	0,	0
  5.68421E+02,	1.00000E+01,	-4.60325E-02,	3.32532E+01,	2.90035E+03,	-1.78682E+02,	0.00000E+00,	0,	0
  4.40816E+02,	1.00000E+01,	-4.60325E-02,	3.62839E+01,	2.92137E+03,	-1.58328E+02,	0.00000E+00,	0,	0
  3.54098E+02,	1.00000E+01,	-4.60325E-02,	3.86272E+01,	2.94224E+03,	-1.44364E+02,	0.00000E+00,	0,	0
  2.76923E+02,	1.00000E+01,	-4.60325E-02,	4.12700E+01,	2.95983E+03,	-1.32087E+02,	0.00000E+00,	0,	0
  2.20408E+02,	1.00000E+01,	-4.60325E-02,	4.41995E+01,	2.97364E+03,	-1.26067E+02,	0.00000E+00,	0,	0
  1.74194E+02,	1.00000E+01,	-4.60325E-02,	4.74637E+01,	2.98825E+03,	-1.24719E+02,	0.00000E+00,	0,	0
  1.37580E+02,	1.00000E+01,	-4.60325E-02,	5.11194E+01,	3.00166E+03,	-1.27700E+02,	0.00000E+00,	0,	0
  1.09091E+02,	1.00000E+01,	-4.60325E-02,	5.52028E+01,	3.01873E+03,	-1.39021E+02,	0.00000E+00,	0,	0
  8.70968E+01,	1.00000E+01,	-4.60325E-02,	6.09147E+01,	3.04099E+03,	-1.55388E+02,	0.00000E+00,	0,	0
  6.83544E+01,	1.00000E+01,	-4.60325E-02,	6.59270E+01,	3.07658E+03,	-1.81187E+02,	0.00000E+00,	0,	0
  5.45455E+01,	1.00000E+01,	-4.60325E-02,	7.13731E+01,	3.05862E+03,	-1.82624E+02,	0.00000E+00,	0,	0
  4.28571E+01,	1.00000E+01,	-4.60325E-02,	7.49574E+01,	3.07644E+03,	-2.15319E+02,	0.00000E+00,	0,	0
  3.39623E+01,	1.00000E+01,	-4.60325E-02,	7.86878E+01,	3.08328E+03,	-2.70188E+02,	0.00000E+00,	0,	0
  2.68657E+01,	1.00000E+01,	-4.60325E-02,	8.25922E+01,	3.11807E+03,	-3.14929E+02,	0.00000E+00,	0,	0
  2.13439E+01,	1.00000E+01,	-4.60325E-02,	8.64250E+01,	3.14765E+03,	-3.72318E+02,	0.00000E+00,	0,	0
  1.73077E+01,	1.00000E+01,	-4.60325E-02,	9.01015E+01,	3.17749E+03,	-4.36805E+02,	0.00000E+00,	0,	0
  1.36364E+01,	1.00000E+01,	-4.60325E-02,	9.51307E+01,	3.21467E+03,	-5.27736E+02,	0.00000E+00,	0,	0
  1.07143E+01,	1.00000E+01,	-4.60325E-02,	9.80280E+01,	3.25466E+03,	-6.39320E+02,	0.00000E+00,	0,	0
  8.49057E+00,	1.00000E+01,	-4.60325E-02,	1.02239E+02,	3.30469E+03,	-7.72458E+02,	0.00000E+00,	0,	0
  6.71642E+00,	1.00000E+01,	-4.60325E-02,	1.04795E+02,	3.35355E+03,	-9.34248E+02,	0.00000E+00,	0,	0
  5.29412E+00,	1.00000E+01,	-4.60325E-02,	1.07753E+02,	3.41467E+03,	-1.13258E+03,	0.00000E+00,	0,	0
  4.16667E+00,	1.00000E+01,	-4.60325E-02,	1.11247E+02,	3.48786E+03,	-1.37792E+03,	0.00000E+00,	0,	0
  3.30882E+00,	1.00000E+01,	-4.60325E-02,	1.15474E+02,	3.57148E+03,	-1.66575E+03,	0.00000E+00,	0,	0
  2.61628E+00,	1.00000E+01,	-4.60325E-02,	1.19476E+02,	3.66943E+03,	-2.02468E+03,	0.00000E+00,	0,	0
  2.07373E+00,	1.00000E+01,	-4.60325E-02,	1.24283E+02,	3.78413E+03,	-2.45834E+03,	0.00000E+00,	0,	0
  1.64234E+00,	1.00000E+01,	-4.60325E-02,	1.30095E+02,	3.91952E+03,	-2.99307E+03,	0.00000E+00,	0,	0
  1.30058E+00,	1.00000E+01,	-4.60325E-02,	1.34255E+02,	4.07467E+03,	-3.64702E+03,	0.00000E+00,	0,	0
  1.03211E+00,	1.00000E+01,	-4.60325E-02,	1.38650E+02,	4.27249E+03,	-4.44469E+03,	0.00000E+00,	0,	0
  8.15217E-01,	1.00000E+01,	-4.60325E-02,	1.45646E+02,	4.49552E+03,	-5.44657E+03,	0.00000E+00,	0,	0
  6.46552E-01,	1.00000E+01,	-4.60325E-02,	1.50467E+02,	4.77640E+03,	-6.64928E+03,	0.00000E+00,	0,	0
  5.11364E-01,	1.00000E+01,	-4.60325E-02,	1.55461E+02,	5.04814E+03,	-8.27263E+03,	0.00000E+00,	0,	0
  4.07609E-01,	1.00000E+01,	-4.60325E-02,	1.61532E+02,	5.47769E+03,	-1.00507E+04,	0.00000E+00,	0,	0
  3.21429E-01,	1.00000E+01,	-4.60325E-02,	1.68670E+02,	6.16556E+03,	-1.26031E+04,	0.00000E+00,	0,	0
  2.54525E-01,	1.00000E+01,	-4.60325E-02,	1.77414E+02,	6.88768E+03,	-1.53314E+04,	0.00000E+00,	0,	0
  2.01613E-01,	1.00000E+01,	-4.60325E-02,	1.88232E+02,	7.79496E+03,	-1.86802E+04,	0.00000E+00,	0,	0
  1.59574E-01,	1.00000E+01,	-4.60325E-02,	2.01656E+02,	8.95052E+03,	-2.27589E+04,	0.00000E+00,	0,	0
  1.26689E-01,	1.00000E+01,	-4.60325E-02,	2.35584E+02,	1.03518E+04,	-2.72027E+04,	0.00000E+00,	0,	0
  1.00446E-01,	1.00000E+01,	-4.60325E-02,	2.56464E+02,	1.21268E+04,	-3.40076E+04,	0.00000E+00,	0,	0