Z60W Data File: Version 1.1
CorrTest for Windows: SN CS310H1805157  V5.2.1111.9  2.5H6.220118
Sweep Frequency: Control Voltage
  Date:4-30-2026   Time:10:39:16
  Begin Information:            Cell Information
      Surface Area:           1
      Density:                7.8
      Weight:                 28
  End Information:              Cell Information
  Freq (Hz)     Ampl(mV)       Bias(V)      Time(Sec)       Z'(Ohm.cm^2)    Z''(Ohm.cm^2)        GD       Err      Range
End Comments
  3.07200E+05,	1.00000E+01,	-2.38052E-02,	2.40030E-02,	-1.98428E-01,	4.11694E+00,	0.00000E+00,	0,	0
  2.76480E+05,	1.00000E+01,	-2.38052E-02,	1.66291E+00,	4.55240E-01,	3.12390E+00,	0.00000E+00,	0,	0
  1.97486E+05,	1.00000E+01,	-2.38052E-02,	2.56792E+00,	1.28423E+00,	2.22043E+00,	0.00000E+00,	0,	0
  1.53600E+05,	1.00000E+01,	-2.38052E-02,	3.47426E+00,	1.61557E+00,	1.64606E+00,	0.00000E+00,	0,	0
  1.25673E+05,	1.00000E+01,	-2.38052E-02,	4.39015E+00,	1.81130E+00,	1.29657E+00,	0.00000E+00,	0,	0
  9.87429E+04,	1.00000E+01,	-2.38052E-02,	5.28414E+00,	1.99218E+00,	9.82796E-01,	0.00000E+00,	0,	0
  7.68000E+04,	1.00000E+01,	-2.38052E-02,	6.17543E+00,	2.09646E+00,	7.30633E-01,	0.00000E+00,	0,	0
  6.01043E+04,	1.00000E+01,	-2.38052E-02,	9.38244E+00,	2.17398E+00,	4.86447E-01,	0.00000E+00,	0,	0
  4.93714E+04,	1.00000E+01,	-2.38052E-02,	1.10210E+01,	2.18827E+00,	3.50848E-01,	0.00000E+00,	0,	0
  3.84000E+04,	1.00000E+01,	-2.38052E-02,	1.19195E+01,	2.20170E+00,	1.93467E-01,	0.00000E+00,	0,	0
  3.00522E+04,	1.00000E+01,	-2.38052E-02,	1.27836E+01,	2.21625E+00,	5.67219E-02,	0.00000E+00,	0,	0
  2.38345E+04,	1.00000E+01,	-2.38052E-02,	1.36464E+01,	2.22489E+00,	-6.81372E-02,	0.00000E+00,	0,	0
  1.86811E+04,	1.00000E+01,	-2.38052E-02,	1.45049E+01,	2.24357E+00,	-1.97481E-01,	0.00000E+00,	0,	0
  1.47064E+04,	1.00000E+01,	-2.38052E-02,	1.54772E+01,	2.26450E+00,	-3.32472E-01,	0.00000E+00,	0,	0
  1.15200E+04,	1.00000E+01,	-2.38052E-02,	1.64599E+01,	2.28672E+00,	-4.83719E-01,	0.00000E+00,	0,	0
  9.60000E+03,	1.00000E+01,	-2.38052E-02,	1.80294E+01,	2.31219E+00,	-6.07402E-01,	0.00000E+00,	0,	0
  7.51304E+03,	1.00000E+01,	-2.38052E-02,	1.89357E+01,	2.34922E+00,	-7.96449E-01,	0.00000E+00,	0,	0
  5.76000E+03,	1.00000E+01,	-2.38052E-02,	1.98361E+01,	2.39914E+00,	-1.04121E+00,	0.00000E+00,	0,	0
  4.54737E+03,	1.00000E+01,	-2.38052E-02,	2.07365E+01,	2.45499E+00,	-1.30279E+00,	0.00000E+00,	0,	0
  3.60000E+03,	1.00000E+01,	-2.38052E-02,	2.17293E+01,	2.52480E+00,	-1.61614E+00,	0.00000E+00,	0,	0
  2.88000E+03,	1.00000E+01,	-2.38052E-02,	2.26168E+01,	2.59879E+00,	-1.97548E+00,	0.00000E+00,	0,	0
  2.27368E+03,	1.00000E+01,	-2.38052E-02,	2.49435E+01,	2.57622E+00,	-2.42309E+00,	0.00000E+00,	0,	0
  1.78144E+03,	1.00000E+01,	-2.38052E-02,	2.57299E+01,	2.70945E+00,	-3.00277E+00,	0.00000E+00,	0,	0
  1.41639E+03,	1.00000E+01,	-2.38052E-02,	2.66710E+01,	2.85805E+00,	-3.66947E+00,	0.00000E+00,	0,	0
  1.12208E+03,	1.00000E+01,	-2.38052E-02,	2.77144E+01,	3.04751E+00,	-4.50462E+00,	0.00000E+00,	0,	0
  9.00000E+02,	1.00000E+01,	-2.38052E-02,	3.27094E+01,	3.28341E+00,	-5.47332E+00,	0.00000E+00,	0,	0
  7.20000E+02,	1.00000E+01,	-2.38052E-02,	3.40832E+01,	3.56962E+00,	-6.64232E+00,	0.00000E+00,	0,	0
  5.68421E+02,	1.00000E+01,	-2.38052E-02,	3.54862E+01,	3.95362E+00,	-8.14954E+00,	0.00000E+00,	0,	0
  4.40816E+02,	1.00000E+01,	-2.38052E-02,	3.69501E+01,	4.48910E+00,	-1.01374E+01,	0.00000E+00,	0,	0
  3.54098E+02,	1.00000E+01,	-2.38052E-02,	3.93035E+01,	5.07805E+00,	-1.22213E+01,	0.00000E+00,	0,	0
  2.76923E+02,	1.00000E+01,	-2.38052E-02,	4.19370E+01,	5.92992E+00,	-1.50322E+01,	0.00000E+00,	0,	0
  2.20408E+02,	1.00000E+01,	-2.38052E-02,	4.48653E+01,	6.94188E+00,	-1.81896E+01,	0.00000E+00,	0,	0
  1.74194E+02,	1.00000E+01,	-2.38052E-02,	4.81376E+01,	8.25780E+00,	-2.20559E+01,	0.00000E+00,	0,	0
  1.37580E+02,	1.00000E+01,	-2.38052E-02,	5.17990E+01,	9.90771E+00,	-2.66765E+01,	0.00000E+00,	0,	0
  1.09091E+02,	1.00000E+01,	-2.38052E-02,	5.58970E+01,	1.18848E+01,	-3.20674E+01,	0.00000E+00,	0,	0
  8.70968E+01,	1.00000E+01,	-2.38052E-02,	6.40354E+01,	1.42112E+01,	-3.83858E+01,	0.00000E+00,	0,	0
  6.83544E+01,	1.00000E+01,	-2.38052E-02,	6.90536E+01,	1.71333E+01,	-4.65265E+01,	0.00000E+00,	0,	0
  5.45455E+01,	1.00000E+01,	-2.38052E-02,	7.45293E+01,	2.03796E+01,	-5.44469E+01,	0.00000E+00,	0,	0
  4.28571E+01,	1.00000E+01,	-2.38052E-02,	7.80588E+01,	2.41689E+01,	-6.53998E+01,	0.00000E+00,	0,	0
  3.39623E+01,	1.00000E+01,	-2.38052E-02,	8.18089E+01,	2.77666E+01,	-7.81125E+01,	0.00000E+00,	0,	0
  2.68657E+01,	1.00000E+01,	-2.38052E-02,	8.56514E+01,	3.25609E+01,	-9.40956E+01,	0.00000E+00,	0,	0
  2.13439E+01,	1.00000E+01,	-2.38052E-02,	8.94890E+01,	3.78130E+01,	-1.13088E+02,	0.00000E+00,	0,	0
  1.73077E+01,	1.00000E+01,	-2.38052E-02,	9.61833E+01,	4.32861E+01,	-1.34264E+02,	0.00000E+00,	0,	0
  1.36364E+01,	1.00000E+01,	-2.38052E-02,	1.01195E+02,	5.02789E+01,	-1.63342E+02,	0.00000E+00,	0,	0
  1.07143E+01,	1.00000E+01,	-2.38052E-02,	1.04100E+02,	5.86233E+01,	-1.99659E+02,	0.00000E+00,	0,	0
  8.49057E+00,	1.00000E+01,	-2.38052E-02,	1.08301E+02,	6.81915E+01,	-2.42975E+02,	0.00000E+00,	0,	0
  6.71642E+00,	1.00000E+01,	-2.38052E-02,	1.10839E+02,	7.97271E+01,	-2.96450E+02,	0.00000E+00,	0,	0
  5.29412E+00,	1.00000E+01,	-2.38052E-02,	1.13768E+02,	9.39374E+01,	-3.63015E+02,	0.00000E+00,	0,	0
  4.16667E+00,	1.00000E+01,	-2.38052E-02,	1.17256E+02,	1.10841E+02,	-4.45589E+02,	0.00000E+00,	0,	0
  3.30882E+00,	1.00000E+01,	-2.38052E-02,	1.21498E+02,	1.29972E+02,	-5.42989E+02,	0.00000E+00,	0,	0
  2.61628E+00,	1.00000E+01,	-2.38052E-02,	1.25472E+02,	1.52612E+02,	-6.64281E+02,	0.00000E+00,	0,	0
  2.07373E+00,	1.00000E+01,	-2.38052E-02,	1.30307E+02,	1.78022E+02,	-8.12298E+02,	0.00000E+00,	0,	0
  1.64234E+00,	1.00000E+01,	-2.38052E-02,	1.36093E+02,	2.06517E+02,	-9.95753E+02,	0.00000E+00,	0,	0
  1.30058E+00,	1.00000E+01,	-2.38052E-02,	1.40258E+02,	2.39426E+02,	-1.22399E+03,	0.00000E+00,	0,	0
  1.03211E+00,	1.00000E+01,	-2.38052E-02,	1.44654E+02,	2.76288E+02,	-1.50569E+03,	0.00000E+00,	0,	0
  8.15217E-01,	1.00000E+01,	-2.38052E-02,	1.51599E+02,	3.20347E+02,	-1.86375E+03,	0.00000E+00,	0,	0
  6.46552E-01,	1.00000E+01,	-2.38052E-02,	1.60689E+02,	3.72662E+02,	-2.30271E+03,	0.00000E+00,	0,	0
  5.11364E-01,	1.00000E+01,	-2.38052E-02,	1.65716E+02,	4.30288E+02,	-2.85830E+03,	0.00000E+00,	0,	0
  4.07609E-01,	1.00000E+01,	-2.38052E-02,	1.71778E+02,	5.11341E+02,	-3.52761E+03,	0.00000E+00,	0,	0
  3.21429E-01,	1.00000E+01,	-2.38052E-02,	1.78925E+02,	6.16502E+02,	-4.42231E+03,	0.00000E+00,	0,	0
  2.54525E-01,	1.00000E+01,	-2.38052E-02,	1.87792E+02,	7.59798E+02,	-5.49205E+03,	0.00000E+00,	0,	0
  2.01613E-01,	1.00000E+01,	-2.38052E-02,	1.98633E+02,	9.45497E+02,	-6.82015E+03,	0.00000E+00,	0,	0
  1.59574E-01,	1.00000E+01,	-2.38052E-02,	2.12151E+02,	1.19432E+03,	-8.47362E+03,	0.00000E+00,	0,	0
  1.26689E-01,	1.00000E+01,	-2.38052E-02,	2.29075E+02,	1.52076E+03,	-1.04933E+04,	0.00000E+00,	0,	0
  1.00446E-01,	1.00000E+01,	-2.38052E-02,	2.50002E+02,	1.95845E+03,	-1.30024E+04,	0.00000E+00,	0,	0