Z60W Data File: Version 1.1
CorrTest for Windows: SN CS310H1805157  V5.2.1111.9  2.5H6.220118
Sweep Frequency: Control Voltage
  Date:4-30-2026   Time:10:23:42
  Begin Information:            Cell Information
      Surface Area:           1
      Density:                7.8
      Weight:                 28
  End Information:              Cell Information
  Freq (Hz)     Ampl(mV)       Bias(V)      Time(Sec)       Z'(Ohm.cm^2)    Z''(Ohm.cm^2)        GD       Err      Range
End Comments
  3.07200E+05,	1.00000E+01,	-2.37971E-02,	9.38533E-02,	-2.95010E-01,	4.04942E+00,	0.00000E+00,	0,	0
  2.76480E+05,	1.00000E+01,	-2.37971E-02,	1.74537E+00,	3.07180E-01,	3.02544E+00,	0.00000E+00,	0,	0
  1.97486E+05,	1.00000E+01,	-2.37971E-02,	2.67736E+00,	1.17831E+00,	2.14966E+00,	0.00000E+00,	0,	0
  1.53600E+05,	1.00000E+01,	-2.37971E-02,	3.59407E+00,	1.53781E+00,	1.62059E+00,	0.00000E+00,	0,	0
  1.25673E+05,	1.00000E+01,	-2.37971E-02,	4.49993E+00,	1.72615E+00,	1.27045E+00,	0.00000E+00,	0,	0
  9.87429E+04,	1.00000E+01,	-2.37971E-02,	5.39049E+00,	1.89891E+00,	9.76590E-01,	0.00000E+00,	0,	0
  7.68000E+04,	1.00000E+01,	-2.37971E-02,	6.33578E+00,	2.01177E+00,	7.17518E-01,	0.00000E+00,	0,	0
  6.01043E+04,	1.00000E+01,	-2.37971E-02,	9.59467E+00,	2.08319E+00,	4.81590E-01,	0.00000E+00,	0,	0
  4.93714E+04,	1.00000E+01,	-2.37971E-02,	1.11699E+01,	2.09777E+00,	3.47133E-01,	0.00000E+00,	0,	0
  3.84000E+04,	1.00000E+01,	-2.37971E-02,	1.20865E+01,	2.11150E+00,	1.90864E-01,	0.00000E+00,	0,	0
  3.00522E+04,	1.00000E+01,	-2.37971E-02,	1.29735E+01,	2.12349E+00,	5.73719E-02,	0.00000E+00,	0,	0
  2.38345E+04,	1.00000E+01,	-2.37971E-02,	1.38349E+01,	2.13762E+00,	-6.48136E-02,	0.00000E+00,	0,	0
  1.86811E+04,	1.00000E+01,	-2.37971E-02,	1.46995E+01,	2.15080E+00,	-1.93276E-01,	0.00000E+00,	0,	0
  1.47064E+04,	1.00000E+01,	-2.37971E-02,	1.57030E+01,	2.17090E+00,	-3.28564E-01,	0.00000E+00,	0,	0
  1.15200E+04,	1.00000E+01,	-2.37971E-02,	1.67310E+01,	2.19852E+00,	-4.73486E-01,	0.00000E+00,	0,	0
  9.60000E+03,	1.00000E+01,	-2.37971E-02,	1.82939E+01,	2.21949E+00,	-5.97489E-01,	0.00000E+00,	0,	0
  7.51304E+03,	1.00000E+01,	-2.37971E-02,	1.92071E+01,	2.25548E+00,	-7.83311E-01,	0.00000E+00,	0,	0
  5.76000E+03,	1.00000E+01,	-2.37971E-02,	2.01083E+01,	2.30445E+00,	-1.02355E+00,	0.00000E+00,	0,	0
  4.54737E+03,	1.00000E+01,	-2.37971E-02,	2.09928E+01,	2.36034E+00,	-1.28089E+00,	0.00000E+00,	0,	0
  3.60000E+03,	1.00000E+01,	-2.37971E-02,	2.19866E+01,	2.42226E+00,	-1.58702E+00,	0.00000E+00,	0,	0
  2.88000E+03,	1.00000E+01,	-2.37971E-02,	2.28915E+01,	2.50128E+00,	-1.94196E+00,	0.00000E+00,	0,	0
  2.27368E+03,	1.00000E+01,	-2.37971E-02,	2.52130E+01,	2.57550E+00,	-2.37989E+00,	0.00000E+00,	0,	0
  1.78144E+03,	1.00000E+01,	-2.37971E-02,	2.60053E+01,	2.70532E+00,	-2.95664E+00,	0.00000E+00,	0,	0
  1.41639E+03,	1.00000E+01,	-2.37971E-02,	2.69178E+01,	2.85371E+00,	-3.61480E+00,	0.00000E+00,	0,	0
  1.12208E+03,	1.00000E+01,	-2.37971E-02,	2.79495E+01,	3.04362E+00,	-4.42831E+00,	0.00000E+00,	0,	0
  9.00000E+02,	1.00000E+01,	-2.37971E-02,	3.29668E+01,	3.27307E+00,	-5.38481E+00,	0.00000E+00,	0,	0
  7.20000E+02,	1.00000E+01,	-2.37971E-02,	3.43294E+01,	3.55562E+00,	-6.53451E+00,	0.00000E+00,	0,	0
  5.68421E+02,	1.00000E+01,	-2.37971E-02,	3.57105E+01,	3.93736E+00,	-8.01414E+00,	0.00000E+00,	0,	0
  4.40816E+02,	1.00000E+01,	-2.37971E-02,	3.71895E+01,	4.46630E+00,	-9.96992E+00,	0.00000E+00,	0,	0
  3.54098E+02,	1.00000E+01,	-2.37971E-02,	3.95336E+01,	5.04820E+00,	-1.20151E+01,	0.00000E+00,	0,	0
  2.76923E+02,	1.00000E+01,	-2.37971E-02,	4.22099E+01,	5.89292E+00,	-1.47776E+01,	0.00000E+00,	0,	0
  2.20408E+02,	1.00000E+01,	-2.37971E-02,	4.51470E+01,	6.89228E+00,	-1.78687E+01,	0.00000E+00,	0,	0
  1.74194E+02,	1.00000E+01,	-2.37971E-02,	4.84097E+01,	8.19024E+00,	-2.16619E+01,	0.00000E+00,	0,	0
  1.37580E+02,	1.00000E+01,	-2.37971E-02,	5.20769E+01,	9.81341E+00,	-2.61848E+01,	0.00000E+00,	0,	0
  1.09091E+02,	1.00000E+01,	-2.37971E-02,	5.61443E+01,	1.17522E+01,	-3.14622E+01,	0.00000E+00,	0,	0
  8.70968E+01,	1.00000E+01,	-2.37971E-02,	6.42851E+01,	1.40263E+01,	-3.76491E+01,	0.00000E+00,	0,	0
  6.83544E+01,	1.00000E+01,	-2.37971E-02,	6.93040E+01,	1.68743E+01,	-4.56259E+01,	0.00000E+00,	0,	0
  5.45455E+01,	1.00000E+01,	-2.37971E-02,	7.47628E+01,	2.00304E+01,	-5.33926E+01,	0.00000E+00,	0,	0
  4.28571E+01,	1.00000E+01,	-2.37971E-02,	7.83495E+01,	2.37122E+01,	-6.41573E+01,	0.00000E+00,	0,	0
  3.39623E+01,	1.00000E+01,	-2.37971E-02,	8.21053E+01,	2.71906E+01,	-7.66530E+01,	0.00000E+00,	0,	0
  2.68657E+01,	1.00000E+01,	-2.37971E-02,	8.59542E+01,	3.18538E+01,	-9.23940E+01,	0.00000E+00,	0,	0
  2.13439E+01,	1.00000E+01,	-2.37971E-02,	8.97642E+01,	3.69583E+01,	-1.11111E+02,	0.00000E+00,	0,	0
  1.73077E+01,	1.00000E+01,	-2.37971E-02,	9.64692E+01,	4.22932E+01,	-1.31993E+02,	0.00000E+00,	0,	0
  1.36364E+01,	1.00000E+01,	-2.37971E-02,	1.01500E+02,	4.91294E+01,	-1.60646E+02,	0.00000E+00,	0,	0
  1.07143E+01,	1.00000E+01,	-2.37971E-02,	1.04425E+02,	5.73040E+01,	-1.96458E+02,	0.00000E+00,	0,	0
  8.49057E+00,	1.00000E+01,	-2.37971E-02,	1.08666E+02,	6.66914E+01,	-2.39074E+02,	0.00000E+00,	0,	0
  6.71642E+00,	1.00000E+01,	-2.37971E-02,	1.11169E+02,	7.80485E+01,	-2.91891E+02,	0.00000E+00,	0,	0
  5.29412E+00,	1.00000E+01,	-2.37971E-02,	1.14141E+02,	9.18985E+01,	-3.57366E+02,	0.00000E+00,	0,	0
  4.16667E+00,	1.00000E+01,	-2.37971E-02,	1.17622E+02,	1.08516E+02,	-4.38681E+02,	0.00000E+00,	0,	0
  3.30882E+00,	1.00000E+01,	-2.37971E-02,	1.21878E+02,	1.27146E+02,	-5.34617E+02,	0.00000E+00,	0,	0
  2.61628E+00,	1.00000E+01,	-2.37971E-02,	1.25875E+02,	1.49251E+02,	-6.54170E+02,	0.00000E+00,	0,	0
  2.07373E+00,	1.00000E+01,	-2.37971E-02,	1.30680E+02,	1.73838E+02,	-8.00194E+02,	0.00000E+00,	0,	0
  1.64234E+00,	1.00000E+01,	-2.37971E-02,	1.36471E+02,	2.01673E+02,	-9.81344E+02,	0.00000E+00,	0,	0
  1.30058E+00,	1.00000E+01,	-2.37971E-02,	1.40638E+02,	2.33544E+02,	-1.20656E+03,	0.00000E+00,	0,	0
  1.03211E+00,	1.00000E+01,	-2.37971E-02,	1.45037E+02,	2.69979E+02,	-1.48528E+03,	0.00000E+00,	0,	0
  8.15217E-01,	1.00000E+01,	-2.37971E-02,	1.51978E+02,	3.14108E+02,	-1.83940E+03,	0.00000E+00,	0,	0
  6.46552E-01,	1.00000E+01,	-2.37971E-02,	1.61070E+02,	3.66296E+02,	-2.27277E+03,	0.00000E+00,	0,	0
  5.11364E-01,	1.00000E+01,	-2.37971E-02,	1.66073E+02,	4.24567E+02,	-2.82181E+03,	0.00000E+00,	0,	0
  4.07609E-01,	1.00000E+01,	-2.37971E-02,	1.72127E+02,	5.06395E+02,	-3.48290E+03,	0.00000E+00,	0,	0
  3.21429E-01,	1.00000E+01,	-2.37971E-02,	1.79260E+02,	6.13400E+02,	-4.36572E+03,	0.00000E+00,	0,	0
  2.54525E-01,	1.00000E+01,	-2.37971E-02,	1.88030E+02,	7.60451E+02,	-5.41991E+03,	0.00000E+00,	0,	0
  2.01613E-01,	1.00000E+01,	-2.37971E-02,	1.98883E+02,	9.51821E+02,	-6.72835E+03,	0.00000E+00,	0,	0
  1.59574E-01,	1.00000E+01,	-2.37971E-02,	2.12391E+02,	1.20765E+03,	-8.35795E+03,	0.00000E+00,	0,	0
  1.26689E-01,	1.00000E+01,	-2.37971E-02,	2.29294E+02,	1.54639E+03,	-1.03436E+04,	0.00000E+00,	0,	0
  1.00446E-01,	1.00000E+01,	-2.37971E-02,	2.50163E+02,	2.00184E+03,	-1.28112E+04,	0.00000E+00,	0,	0