Z60W Data File: Version 1.1
CorrTest for Windows: SN CS310H1805157  V5.2.1111.9  2.5H6.220118
Sweep Frequency: Control Voltage
  Date:4-30-2026   Time:09:24:00
  Begin Information:            Cell Information
      Surface Area:           1
      Density:                7.8
      Weight:                 28
  End Information:              Cell Information
  Freq (Hz)     Ampl(mV)       Bias(V)      Time(Sec)       Z'(Ohm.cm^2)    Z''(Ohm.cm^2)        GD       Err      Range
End Comments
  3.07200E+05,	1.00000E+01,	-2.29522E-02,	4.73185E-02,	-3.40144E-01,	4.12561E+00,	0.00000E+00,	0,	0
  2.76480E+05,	1.00000E+01,	-2.29522E-02,	1.64270E+00,	3.00709E-01,	3.10035E+00,	0.00000E+00,	0,	0
  1.97486E+05,	1.00000E+01,	-2.29522E-02,	2.54547E+00,	1.13638E+00,	2.22208E+00,	0.00000E+00,	0,	0
  1.53600E+05,	1.00000E+01,	-2.29522E-02,	3.45533E+00,	1.50397E+00,	1.64127E+00,	0.00000E+00,	0,	0
  1.25673E+05,	1.00000E+01,	-2.29522E-02,	4.38442E+00,	1.72625E+00,	1.29131E+00,	0.00000E+00,	0,	0
  9.87429E+04,	1.00000E+01,	-2.29522E-02,	5.28888E+00,	1.89336E+00,	9.74023E-01,	0.00000E+00,	0,	0
  7.68000E+04,	1.00000E+01,	-2.29522E-02,	6.21586E+00,	1.98250E+00,	7.41815E-01,	0.00000E+00,	0,	0
  6.01043E+04,	1.00000E+01,	-2.29522E-02,	9.43855E+00,	2.07764E+00,	4.98921E-01,	0.00000E+00,	0,	0
  4.93714E+04,	1.00000E+01,	-2.29522E-02,	1.10095E+01,	2.09225E+00,	3.60773E-01,	0.00000E+00,	0,	0
  3.84000E+04,	1.00000E+01,	-2.29522E-02,	1.19491E+01,	2.10943E+00,	2.12924E-01,	0.00000E+00,	0,	0
  3.00522E+04,	1.00000E+01,	-2.29522E-02,	1.28286E+01,	2.11836E+00,	7.79985E-02,	0.00000E+00,	0,	0
  2.38345E+04,	1.00000E+01,	-2.29522E-02,	1.37012E+01,	2.13113E+00,	-4.06112E-02,	0.00000E+00,	0,	0
  1.86811E+04,	1.00000E+01,	-2.29522E-02,	1.45244E+01,	2.14570E+00,	-1.66950E-01,	0.00000E+00,	0,	0
  1.47064E+04,	1.00000E+01,	-2.29522E-02,	1.54970E+01,	2.16477E+00,	-2.91958E-01,	0.00000E+00,	0,	0
  1.15200E+04,	1.00000E+01,	-2.29522E-02,	1.64740E+01,	2.18952E+00,	-4.33005E-01,	0.00000E+00,	0,	0
  9.60000E+03,	1.00000E+01,	-2.29522E-02,	1.80516E+01,	2.20871E+00,	-5.49361E-01,	0.00000E+00,	0,	0
  7.51304E+03,	1.00000E+01,	-2.29522E-02,	1.89294E+01,	2.24294E+00,	-7.23813E-01,	0.00000E+00,	0,	0
  5.76000E+03,	1.00000E+01,	-2.29522E-02,	1.98325E+01,	2.28568E+00,	-9.51715E-01,	0.00000E+00,	0,	0
  4.54737E+03,	1.00000E+01,	-2.29522E-02,	2.06854E+01,	2.33778E+00,	-1.19321E+00,	0.00000E+00,	0,	0
  3.60000E+03,	1.00000E+01,	-2.29522E-02,	2.16729E+01,	2.39861E+00,	-1.48064E+00,	0.00000E+00,	0,	0
  2.88000E+03,	1.00000E+01,	-2.29522E-02,	2.25590E+01,	2.46814E+00,	-1.81339E+00,	0.00000E+00,	0,	0
  2.27368E+03,	1.00000E+01,	-2.29522E-02,	2.48875E+01,	2.54015E+00,	-2.22514E+00,	0.00000E+00,	0,	0
  1.78144E+03,	1.00000E+01,	-2.29522E-02,	2.56766E+01,	2.66103E+00,	-2.75642E+00,	0.00000E+00,	0,	0
  1.41639E+03,	1.00000E+01,	-2.29522E-02,	2.65712E+01,	2.80039E+00,	-3.37769E+00,	0.00000E+00,	0,	0
  1.12208E+03,	1.00000E+01,	-2.29522E-02,	2.76217E+01,	2.97444E+00,	-4.14540E+00,	0.00000E+00,	0,	0
  9.00000E+02,	1.00000E+01,	-2.29522E-02,	3.26081E+01,	3.19190E+00,	-5.03398E+00,	0.00000E+00,	0,	0
  7.20000E+02,	1.00000E+01,	-2.29522E-02,	3.39786E+01,	3.46069E+00,	-6.11041E+00,	0.00000E+00,	0,	0
  5.68421E+02,	1.00000E+01,	-2.29522E-02,	3.53672E+01,	3.82128E+00,	-7.49366E+00,	0.00000E+00,	0,	0
  4.40816E+02,	1.00000E+01,	-2.29522E-02,	3.68149E+01,	4.32717E+00,	-9.31513E+00,	0.00000E+00,	0,	0
  3.54098E+02,	1.00000E+01,	-2.29522E-02,	3.91524E+01,	4.88362E+00,	-1.12202E+01,	0.00000E+00,	0,	0
  2.76923E+02,	1.00000E+01,	-2.29522E-02,	4.18030E+01,	5.68881E+00,	-1.37878E+01,	0.00000E+00,	0,	0
  2.20408E+02,	1.00000E+01,	-2.29522E-02,	4.47180E+01,	6.63711E+00,	-1.66477E+01,	0.00000E+00,	0,	0
  1.74194E+02,	1.00000E+01,	-2.29522E-02,	4.79783E+01,	7.86040E+00,	-2.01525E+01,	0.00000E+00,	0,	0
  1.37580E+02,	1.00000E+01,	-2.29522E-02,	5.16535E+01,	9.36983E+00,	-2.43169E+01,	0.00000E+00,	0,	0
  1.09091E+02,	1.00000E+01,	-2.29522E-02,	5.57335E+01,	1.11569E+01,	-2.91766E+01,	0.00000E+00,	0,	0
  8.70968E+01,	1.00000E+01,	-2.29522E-02,	6.38799E+01,	1.32229E+01,	-3.48770E+01,	0.00000E+00,	0,	0
  6.83544E+01,	1.00000E+01,	-2.29522E-02,	6.89011E+01,	1.57843E+01,	-4.22517E+01,	0.00000E+00,	0,	0
  5.45455E+01,	1.00000E+01,	-2.29522E-02,	7.44031E+01,	1.85999E+01,	-4.94710E+01,	0.00000E+00,	0,	0
  4.28571E+01,	1.00000E+01,	-2.29522E-02,	7.79305E+01,	2.18736E+01,	-5.95178E+01,	0.00000E+00,	0,	0
  3.39623E+01,	1.00000E+01,	-2.29522E-02,	8.16729E+01,	2.49583E+01,	-7.12513E+01,	0.00000E+00,	0,	0
  2.68657E+01,	1.00000E+01,	-2.29522E-02,	8.55231E+01,	2.91327E+01,	-8.60485E+01,	0.00000E+00,	0,	0
  2.13439E+01,	1.00000E+01,	-2.29522E-02,	8.93228E+01,	3.37562E+01,	-1.03687E+02,	0.00000E+00,	0,	0
  1.73077E+01,	1.00000E+01,	-2.29522E-02,	9.59848E+01,	3.86272E+01,	-1.23373E+02,	0.00000E+00,	0,	0
  1.36364E+01,	1.00000E+01,	-2.29522E-02,	1.01044E+02,	4.49115E+01,	-1.50380E+02,	0.00000E+00,	0,	0
  1.07143E+01,	1.00000E+01,	-2.29522E-02,	1.03960E+02,	5.25032E+01,	-1.84091E+02,	0.00000E+00,	0,	0
  8.49057E+00,	1.00000E+01,	-2.29522E-02,	1.08185E+02,	6.12385E+01,	-2.24258E+02,	0.00000E+00,	0,	0
  6.71642E+00,	1.00000E+01,	-2.29522E-02,	1.10702E+02,	7.17426E+01,	-2.73688E+02,	0.00000E+00,	0,	0
  5.29412E+00,	1.00000E+01,	-2.29522E-02,	1.13652E+02,	8.45719E+01,	-3.35355E+02,	0.00000E+00,	0,	0
  4.16667E+00,	1.00000E+01,	-2.29522E-02,	1.17109E+02,	9.97628E+01,	-4.11688E+02,	0.00000E+00,	0,	0
  3.30882E+00,	1.00000E+01,	-2.29522E-02,	1.21332E+02,	1.16685E+02,	-5.01937E+02,	0.00000E+00,	0,	0
  2.61628E+00,	1.00000E+01,	-2.29522E-02,	1.25318E+02,	1.36727E+02,	-6.14768E+02,	0.00000E+00,	0,	0
  2.07373E+00,	1.00000E+01,	-2.29522E-02,	1.30106E+02,	1.58999E+02,	-7.53021E+02,	0.00000E+00,	0,	0
  1.64234E+00,	1.00000E+01,	-2.29522E-02,	1.35913E+02,	1.84628E+02,	-9.24967E+02,	0.00000E+00,	0,	0
  1.30058E+00,	1.00000E+01,	-2.29522E-02,	1.40101E+02,	2.14829E+02,	-1.13934E+03,	0.00000E+00,	0,	0
  1.03211E+00,	1.00000E+01,	-2.29522E-02,	1.44496E+02,	2.49957E+02,	-1.40434E+03,	0.00000E+00,	0,	0
  8.15217E-01,	1.00000E+01,	-2.29522E-02,	1.51430E+02,	2.94473E+02,	-1.74049E+03,	0.00000E+00,	0,	0
  6.46552E-01,	1.00000E+01,	-2.29522E-02,	1.60510E+02,	3.48806E+02,	-2.15154E+03,	0.00000E+00,	0,	0
  5.11364E-01,	1.00000E+01,	-2.29522E-02,	1.65537E+02,	4.12200E+02,	-2.67107E+03,	0.00000E+00,	0,	0
  4.07609E-01,	1.00000E+01,	-2.29522E-02,	1.71609E+02,	5.02087E+02,	-3.29509E+03,	0.00000E+00,	0,	0
  3.21429E-01,	1.00000E+01,	-2.29522E-02,	1.78729E+02,	6.23177E+02,	-4.12614E+03,	0.00000E+00,	0,	0
  2.54525E-01,	1.00000E+01,	-2.29522E-02,	1.87507E+02,	7.91682E+02,	-5.11493E+03,	0.00000E+00,	0,	0
  2.01613E-01,	1.00000E+01,	-2.29522E-02,	1.98363E+02,	1.01654E+03,	-6.33852E+03,	0.00000E+00,	0,	0
  1.59574E-01,	1.00000E+01,	-2.29522E-02,	2.11819E+02,	1.32402E+03,	-7.85385E+03,	0.00000E+00,	0,	0
  1.26689E-01,	1.00000E+01,	-2.29522E-02,	2.28715E+02,	1.74066E+03,	-9.68837E+03,	0.00000E+00,	0,	0
  1.00446E-01,	1.00000E+01,	-2.29522E-02,	2.49609E+02,	2.31546E+03,	-1.19476E+04,	0.00000E+00,	0,	0