Z60W Data File: Version 1.1
CorrTest for Windows: SN CS310H1805157  V5.2.1111.9  2.5H6.220118
Sweep Frequency: Control Voltage
  Date:4-30-2026   Time:11:10:26
  Begin Information:            Cell Information
      Surface Area:           1
      Density:                7.8
      Weight:                 28
  End Information:              Cell Information
  Freq (Hz)     Ampl(mV)       Bias(V)      Time(Sec)       Z'(Ohm.cm^2)    Z''(Ohm.cm^2)        GD       Err      Range
End Comments
  3.07200E+05,	1.00000E+01,	-2.39901E-02,	2.51388E-02,	-1.40587E-01,	4.11808E+00,	0.00000E+00,	0,	0
  2.76480E+05,	1.00000E+01,	-2.39901E-02,	1.62140E+00,	3.96472E-01,	3.14036E+00,	0.00000E+00,	0,	0
  1.97486E+05,	1.00000E+01,	-2.39901E-02,	2.51162E+00,	1.31993E+00,	2.16540E+00,	0.00000E+00,	0,	0
  1.53600E+05,	1.00000E+01,	-2.39901E-02,	3.42234E+00,	1.63156E+00,	1.63528E+00,	0.00000E+00,	0,	0
  1.25673E+05,	1.00000E+01,	-2.39901E-02,	4.36045E+00,	1.83429E+00,	1.28959E+00,	0.00000E+00,	0,	0
  9.87429E+04,	1.00000E+01,	-2.39901E-02,	5.26547E+00,	2.00695E+00,	9.78255E-01,	0.00000E+00,	0,	0
  7.68000E+04,	1.00000E+01,	-2.39901E-02,	6.18711E+00,	2.10491E+00,	7.29638E-01,	0.00000E+00,	0,	0
  6.01043E+04,	1.00000E+01,	-2.39901E-02,	9.43131E+00,	2.18866E+00,	4.82385E-01,	0.00000E+00,	0,	0
  4.93714E+04,	1.00000E+01,	-2.39901E-02,	1.10107E+01,	2.20195E+00,	3.44723E-01,	0.00000E+00,	0,	0
  3.84000E+04,	1.00000E+01,	-2.39901E-02,	1.19507E+01,	2.21587E+00,	1.85700E-01,	0.00000E+00,	0,	0
  3.00522E+04,	1.00000E+01,	-2.39901E-02,	1.28246E+01,	2.22788E+00,	4.62824E-02,	0.00000E+00,	0,	0
  2.38345E+04,	1.00000E+01,	-2.39901E-02,	1.37142E+01,	2.24269E+00,	-7.98245E-02,	0.00000E+00,	0,	0
  1.86811E+04,	1.00000E+01,	-2.39901E-02,	1.45584E+01,	2.26011E+00,	-2.16830E-01,	0.00000E+00,	0,	0
  1.47064E+04,	1.00000E+01,	-2.39901E-02,	1.55232E+01,	2.28033E+00,	-3.55796E-01,	0.00000E+00,	0,	0
  1.15200E+04,	1.00000E+01,	-2.39901E-02,	1.64933E+01,	2.30783E+00,	-5.09572E-01,	0.00000E+00,	0,	0
  9.60000E+03,	1.00000E+01,	-2.39901E-02,	1.80579E+01,	2.33145E+00,	-6.37485E-01,	0.00000E+00,	0,	0
  7.51304E+03,	1.00000E+01,	-2.39901E-02,	1.89569E+01,	2.37107E+00,	-8.35070E-01,	0.00000E+00,	0,	0
  5.76000E+03,	1.00000E+01,	-2.39901E-02,	1.98652E+01,	2.42620E+00,	-1.09141E+00,	0.00000E+00,	0,	0
  4.54737E+03,	1.00000E+01,	-2.39901E-02,	2.07295E+01,	2.48430E+00,	-1.36312E+00,	0.00000E+00,	0,	0
  3.60000E+03,	1.00000E+01,	-2.39901E-02,	2.17718E+01,	2.55246E+00,	-1.69031E+00,	0.00000E+00,	0,	0
  2.88000E+03,	1.00000E+01,	-2.39901E-02,	2.27015E+01,	2.63360E+00,	-2.06433E+00,	0.00000E+00,	0,	0
  2.27368E+03,	1.00000E+01,	-2.39901E-02,	2.49753E+01,	2.66345E+00,	-2.52827E+00,	0.00000E+00,	0,	0
  1.78144E+03,	1.00000E+01,	-2.39901E-02,	2.58528E+01,	2.80178E+00,	-3.13668E+00,	0.00000E+00,	0,	0
  1.41639E+03,	1.00000E+01,	-2.39901E-02,	2.67570E+01,	2.95043E+00,	-3.83264E+00,	0.00000E+00,	0,	0
  1.12208E+03,	1.00000E+01,	-2.39901E-02,	2.78050E+01,	3.15453E+00,	-4.69492E+00,	0.00000E+00,	0,	0
  9.00000E+02,	1.00000E+01,	-2.39901E-02,	3.28186E+01,	3.39514E+00,	-5.70904E+00,	0.00000E+00,	0,	0
  7.20000E+02,	1.00000E+01,	-2.39901E-02,	3.42308E+01,	3.69099E+00,	-6.92645E+00,	0.00000E+00,	0,	0
  5.68421E+02,	1.00000E+01,	-2.39901E-02,	3.55932E+01,	4.08466E+00,	-8.49983E+00,	0.00000E+00,	0,	0
  4.40816E+02,	1.00000E+01,	-2.39901E-02,	3.86056E+01,	4.64345E+00,	-1.06043E+01,	0.00000E+00,	0,	0
  3.54098E+02,	1.00000E+01,	-2.39901E-02,	4.09615E+01,	5.25091E+00,	-1.27897E+01,	0.00000E+00,	0,	0
  2.76923E+02,	1.00000E+01,	-2.39901E-02,	4.36297E+01,	6.13034E+00,	-1.57473E+01,	0.00000E+00,	0,	0
  2.20408E+02,	1.00000E+01,	-2.39901E-02,	4.66177E+01,	7.17125E+00,	-1.90663E+01,	0.00000E+00,	0,	0
  1.74194E+02,	1.00000E+01,	-2.39901E-02,	4.98944E+01,	8.53571E+00,	-2.31531E+01,	0.00000E+00,	0,	0
  1.37580E+02,	1.00000E+01,	-2.39901E-02,	5.35899E+01,	1.02559E+01,	-2.80351E+01,	0.00000E+00,	0,	0
  1.09091E+02,	1.00000E+01,	-2.39901E-02,	5.76970E+01,	1.23394E+01,	-3.37437E+01,	0.00000E+00,	0,	0
  8.70968E+01,	1.00000E+01,	-2.39901E-02,	6.34322E+01,	1.47540E+01,	-4.03240E+01,	0.00000E+00,	0,	0
  6.83544E+01,	1.00000E+01,	-2.39901E-02,	6.84481E+01,	1.78700E+01,	-4.89077E+01,	0.00000E+00,	0,	0
  5.45455E+01,	1.00000E+01,	-2.39901E-02,	7.39045E+01,	2.13640E+01,	-5.72429E+01,	0.00000E+00,	0,	0
  4.28571E+01,	1.00000E+01,	-2.39901E-02,	7.74558E+01,	2.54680E+01,	-6.87195E+01,	0.00000E+00,	0,	0
  3.39623E+01,	1.00000E+01,	-2.39901E-02,	8.11856E+01,	2.93848E+01,	-8.19799E+01,	0.00000E+00,	0,	0
  2.68657E+01,	1.00000E+01,	-2.39901E-02,	8.50355E+01,	3.45673E+01,	-9.86109E+01,	0.00000E+00,	0,	0
  2.13439E+01,	1.00000E+01,	-2.39901E-02,	8.88319E+01,	4.02254E+01,	-1.18320E+02,	0.00000E+00,	0,	0
  1.73077E+01,	1.00000E+01,	-2.39901E-02,	9.55591E+01,	4.60916E+01,	-1.40289E+02,	0.00000E+00,	0,	0
  1.36364E+01,	1.00000E+01,	-2.39901E-02,	1.00579E+02,	5.35230E+01,	-1.70397E+02,	0.00000E+00,	0,	0
  1.07143E+01,	1.00000E+01,	-2.39901E-02,	1.03509E+02,	6.23262E+01,	-2.08059E+02,	0.00000E+00,	0,	0
  8.49057E+00,	1.00000E+01,	-2.39901E-02,	1.07711E+02,	7.23512E+01,	-2.52930E+02,	0.00000E+00,	0,	0
  6.71642E+00,	1.00000E+01,	-2.39901E-02,	1.10259E+02,	8.45096E+01,	-3.08415E+02,	0.00000E+00,	0,	0
  5.29412E+00,	1.00000E+01,	-2.39901E-02,	1.13185E+02,	9.93605E+01,	-3.77564E+02,	0.00000E+00,	0,	0
  4.16667E+00,	1.00000E+01,	-2.39901E-02,	1.16660E+02,	1.17228E+02,	-4.63335E+02,	0.00000E+00,	0,	0
  3.30882E+00,	1.00000E+01,	-2.39901E-02,	1.20929E+02,	1.37502E+02,	-5.64409E+02,	0.00000E+00,	0,	0
  2.61628E+00,	1.00000E+01,	-2.39901E-02,	1.24903E+02,	1.61778E+02,	-6.90167E+02,	0.00000E+00,	0,	0
  2.07373E+00,	1.00000E+01,	-2.39901E-02,	1.29685E+02,	1.89152E+02,	-8.43179E+02,	0.00000E+00,	0,	0
  1.64234E+00,	1.00000E+01,	-2.39901E-02,	1.35522E+02,	2.19715E+02,	-1.03257E+03,	0.00000E+00,	0,	0
  1.30058E+00,	1.00000E+01,	-2.39901E-02,	1.39714E+02,	2.54657E+02,	-1.26743E+03,	0.00000E+00,	0,	0
  1.03211E+00,	1.00000E+01,	-2.39901E-02,	1.44116E+02,	2.93465E+02,	-1.55735E+03,	0.00000E+00,	0,	0
  8.15217E-01,	1.00000E+01,	-2.39901E-02,	1.51097E+02,	3.38960E+02,	-1.92555E+03,	0.00000E+00,	0,	0
  6.46552E-01,	1.00000E+01,	-2.39901E-02,	1.60179E+02,	3.91949E+02,	-2.37689E+03,	0.00000E+00,	0,	0
  5.11364E-01,	1.00000E+01,	-2.39901E-02,	1.65191E+02,	4.48798E+02,	-2.94952E+03,	0.00000E+00,	0,	0
  4.07609E-01,	1.00000E+01,	-2.39901E-02,	1.71262E+02,	5.27967E+02,	-3.63925E+03,	0.00000E+00,	0,	0
  3.21429E-01,	1.00000E+01,	-2.39901E-02,	1.78397E+02,	6.29088E+02,	-4.56288E+03,	0.00000E+00,	0,	0
  2.54525E-01,	1.00000E+01,	-2.39901E-02,	1.87168E+02,	7.67041E+02,	-5.66700E+03,	0.00000E+00,	0,	0
  2.01613E-01,	1.00000E+01,	-2.39901E-02,	1.98020E+02,	9.44388E+02,	-7.04115E+03,	0.00000E+00,	0,	0
  1.59574E-01,	1.00000E+01,	-2.39901E-02,	2.11508E+02,	1.17619E+03,	-8.75353E+03,	0.00000E+00,	0,	0
  1.26689E-01,	1.00000E+01,	-2.39901E-02,	2.28414E+02,	1.48039E+03,	-1.08468E+04,	0.00000E+00,	0,	0
  1.00446E-01,	1.00000E+01,	-2.39901E-02,	2.49285E+02,	1.88053E+03,	-1.34556E+04,	0.00000E+00,	0,	0