Z60W Data File: Version 1.1
CorrTest for Windows: SN CS310H1805157  V5.2.1111.9  2.5H6.220118
Sweep Frequency: Control Voltage
  Date:4-30-2026   Time:17:17:56
  Begin Information:            Cell Information
      Surface Area:           1
      Density:                7.8
      Weight:                 28
  End Information:              Cell Information
  Freq (Hz)     Ampl(mV)       Bias(V)      Time(Sec)       Z'(Ohm.cm^2)    Z''(Ohm.cm^2)        GD       Err      Range
End Comments
  3.07200E+05,	1.00000E+01,	-4.68881E-02,	2.27022E-02,	6.59383E+02,	-5.48298E+02,	0.00000E+00,	0,	0
  2.76480E+05,	1.00000E+01,	-4.68881E-02,	1.67959E+00,	6.74812E+02,	-5.80466E+02,	0.00000E+00,	0,	0
  1.97486E+05,	1.00000E+01,	-4.68881E-02,	2.57598E+00,	7.84717E+02,	-7.51811E+02,	0.00000E+00,	0,	0
  1.53600E+05,	1.00000E+01,	-4.68881E-02,	3.48662E+00,	8.77924E+02,	-8.89947E+02,	0.00000E+00,	0,	0
  1.25673E+05,	1.00000E+01,	-4.68881E-02,	4.40089E+00,	1.02508E+03,	-1.05771E+03,	0.00000E+00,	0,	0
  9.87429E+04,	1.00000E+01,	-4.68881E-02,	5.31545E+00,	1.19013E+03,	-1.16953E+03,	0.00000E+00,	0,	0
  7.68000E+04,	1.00000E+01,	-4.68881E-02,	6.25668E+00,	1.41694E+03,	-1.33477E+03,	0.00000E+00,	0,	0
  6.01043E+04,	1.00000E+01,	-4.68881E-02,	8.36954E+00,	1.68636E+03,	-1.39663E+03,	0.00000E+00,	0,	0
  4.93714E+04,	1.00000E+01,	-4.68881E-02,	9.98596E+00,	1.94691E+03,	-1.47670E+03,	0.00000E+00,	0,	0
  3.84000E+04,	1.00000E+01,	-4.68881E-02,	1.09091E+01,	2.30789E+03,	-1.49340E+03,	0.00000E+00,	0,	0
  3.00522E+04,	1.00000E+01,	-4.68881E-02,	1.18013E+01,	2.24127E+03,	-1.23191E+03,	0.00000E+00,	0,	0
  2.38345E+04,	1.00000E+01,	-4.68881E-02,	1.26866E+01,	2.89742E+03,	-1.32367E+03,	0.00000E+00,	0,	0
  1.86811E+04,	1.00000E+01,	-4.68881E-02,	1.35249E+01,	2.84424E+03,	-9.29866E+02,	0.00000E+00,	0,	0
  1.47064E+04,	1.00000E+01,	-4.68881E-02,	1.44827E+01,	3.32929E+03,	-1.04838E+03,	0.00000E+00,	0,	0
  1.15200E+04,	1.00000E+01,	-4.68881E-02,	1.54574E+01,	3.44575E+03,	-9.50701E+02,	0.00000E+00,	0,	0
  9.60000E+03,	1.00000E+01,	-4.68881E-02,	1.70167E+01,	3.54016E+03,	-8.03411E+02,	0.00000E+00,	0,	0
  7.51304E+03,	1.00000E+01,	-4.68881E-02,	1.78894E+01,	3.63600E+03,	-6.99765E+02,	0.00000E+00,	0,	0
  5.76000E+03,	1.00000E+01,	-4.68881E-02,	1.87881E+01,	3.71948E+03,	-5.49125E+02,	0.00000E+00,	0,	0
  4.54737E+03,	1.00000E+01,	-4.68881E-02,	1.96902E+01,	3.73742E+03,	-5.84037E+02,	0.00000E+00,	0,	0
  3.60000E+03,	1.00000E+01,	-4.68881E-02,	2.07261E+01,	3.78486E+03,	-4.45466E+02,	0.00000E+00,	0,	0
  2.88000E+03,	1.00000E+01,	-4.68881E-02,	2.16597E+01,	3.71863E+03,	-4.51730E+02,	0.00000E+00,	0,	0
  2.27368E+03,	1.00000E+01,	-4.68881E-02,	2.27992E+01,	3.84006E+03,	-4.05830E+02,	0.00000E+00,	0,	0
  1.78144E+03,	1.00000E+01,	-4.68881E-02,	2.35846E+01,	3.96235E+03,	-2.54685E+02,	0.00000E+00,	0,	0
  1.41639E+03,	1.00000E+01,	-4.68881E-02,	2.44699E+01,	3.89948E+03,	-3.99068E+02,	0.00000E+00,	0,	0
  1.12208E+03,	1.00000E+01,	-4.68881E-02,	2.55279E+01,	4.23205E+03,	-3.32270E+02,	0.00000E+00,	0,	0
  9.00000E+02,	1.00000E+01,	-4.68881E-02,	3.05443E+01,	4.12238E+03,	-3.66966E+02,	0.00000E+00,	0,	0
  7.20000E+02,	1.00000E+01,	-4.68881E-02,	3.19266E+01,	4.18569E+03,	-3.48730E+02,	0.00000E+00,	0,	0
  5.68421E+02,	1.00000E+01,	-4.68881E-02,	3.33509E+01,	4.24152E+03,	-3.22276E+02,	0.00000E+00,	0,	0
  4.40816E+02,	1.00000E+01,	-4.68881E-02,	3.63809E+01,	4.29955E+03,	-2.82169E+02,	0.00000E+00,	0,	0
  3.54098E+02,	1.00000E+01,	-4.68881E-02,	3.87416E+01,	4.33842E+03,	-2.52776E+02,	0.00000E+00,	0,	0
  2.76923E+02,	1.00000E+01,	-4.68881E-02,	4.13947E+01,	4.37282E+03,	-2.24052E+02,	0.00000E+00,	0,	0
  2.20408E+02,	1.00000E+01,	-4.68881E-02,	4.43097E+01,	4.40154E+03,	-2.06137E+02,	0.00000E+00,	0,	0
  1.74194E+02,	1.00000E+01,	-4.68881E-02,	4.75781E+01,	4.42586E+03,	-1.94096E+02,	0.00000E+00,	0,	0
  1.37580E+02,	1.00000E+01,	-4.68881E-02,	5.12608E+01,	4.45081E+03,	-1.87624E+02,	0.00000E+00,	0,	0
  1.09091E+02,	1.00000E+01,	-4.68881E-02,	5.53494E+01,	4.47243E+03,	-1.91987E+02,	0.00000E+00,	0,	0
  8.70968E+01,	1.00000E+01,	-4.68881E-02,	6.10538E+01,	4.50907E+03,	-2.06986E+02,	0.00000E+00,	0,	0
  6.83544E+01,	1.00000E+01,	-4.68881E-02,	6.60756E+01,	4.56403E+03,	-2.33647E+02,	0.00000E+00,	0,	0
  5.45455E+01,	1.00000E+01,	-4.68881E-02,	7.15189E+01,	4.53617E+03,	-2.22510E+02,	0.00000E+00,	0,	0
  4.28571E+01,	1.00000E+01,	-4.68881E-02,	7.50529E+01,	4.55943E+03,	-2.54266E+02,	0.00000E+00,	0,	0
  3.39623E+01,	1.00000E+01,	-4.68881E-02,	7.87856E+01,	4.56790E+03,	-3.17302E+02,	0.00000E+00,	0,	0
  2.68657E+01,	1.00000E+01,	-4.68881E-02,	8.26190E+01,	4.61428E+03,	-3.64027E+02,	0.00000E+00,	0,	0
  2.13439E+01,	1.00000E+01,	-4.68881E-02,	8.64417E+01,	4.65298E+03,	-4.24982E+02,	0.00000E+00,	0,	0
  1.73077E+01,	1.00000E+01,	-4.68881E-02,	9.01146E+01,	4.68832E+03,	-4.95240E+02,	0.00000E+00,	0,	0
  1.36364E+01,	1.00000E+01,	-4.68881E-02,	9.51744E+01,	4.73877E+03,	-5.94568E+02,	0.00000E+00,	0,	0
  1.07143E+01,	1.00000E+01,	-4.68881E-02,	9.81281E+01,	4.78632E+03,	-7.19578E+02,	0.00000E+00,	0,	0
  8.49057E+00,	1.00000E+01,	-4.68881E-02,	1.02361E+02,	4.84863E+03,	-8.62567E+02,	0.00000E+00,	0,	0
  6.71642E+00,	1.00000E+01,	-4.68881E-02,	1.04903E+02,	4.91273E+03,	-1.03971E+03,	0.00000E+00,	0,	0
  5.29412E+00,	1.00000E+01,	-4.68881E-02,	1.07842E+02,	4.98541E+03,	-1.26355E+03,	0.00000E+00,	0,	0
  4.16667E+00,	1.00000E+01,	-4.68881E-02,	1.11352E+02,	5.07477E+03,	-1.53228E+03,	0.00000E+00,	0,	0
  3.30882E+00,	1.00000E+01,	-4.68881E-02,	1.15578E+02,	5.18031E+03,	-1.84744E+03,	0.00000E+00,	0,	0
  2.61628E+00,	1.00000E+01,	-4.68881E-02,	1.19555E+02,	5.30164E+03,	-2.23603E+03,	0.00000E+00,	0,	0
  2.07373E+00,	1.00000E+01,	-4.68881E-02,	1.24341E+02,	5.44231E+03,	-2.70390E+03,	0.00000E+00,	0,	0
  1.64234E+00,	1.00000E+01,	-4.68881E-02,	1.30126E+02,	5.61052E+03,	-3.27801E+03,	0.00000E+00,	0,	0
  1.30058E+00,	1.00000E+01,	-4.68881E-02,	1.34298E+02,	5.79214E+03,	-3.97704E+03,	0.00000E+00,	0,	0
  1.03211E+00,	1.00000E+01,	-4.68881E-02,	1.38705E+02,	6.03054E+03,	-4.81454E+03,	0.00000E+00,	0,	0
  8.15217E-01,	1.00000E+01,	-4.68881E-02,	1.45656E+02,	6.27413E+03,	-5.88831E+03,	0.00000E+00,	0,	0
  6.46552E-01,	1.00000E+01,	-4.68881E-02,	1.50451E+02,	6.57454E+03,	-7.15486E+03,	0.00000E+00,	0,	0
  5.11364E-01,	1.00000E+01,	-4.68881E-02,	1.55498E+02,	6.86693E+03,	-8.97725E+03,	0.00000E+00,	0,	0
  4.07609E-01,	1.00000E+01,	-4.68881E-02,	1.61574E+02,	7.31771E+03,	-1.08708E+04,	0.00000E+00,	0,	0
  3.21429E-01,	1.00000E+01,	-4.68881E-02,	1.68694E+02,	8.12729E+03,	-1.36670E+04,	0.00000E+00,	0,	0
  2.54525E-01,	1.00000E+01,	-4.68881E-02,	1.77478E+02,	8.85102E+03,	-1.65929E+04,	0.00000E+00,	0,	0
  2.01613E-01,	1.00000E+01,	-4.68881E-02,	1.88337E+02,	9.76273E+03,	-2.02349E+04,	0.00000E+00,	0,	0
  1.59574E-01,	1.00000E+01,	-4.68881E-02,	2.01796E+02,	1.09267E+04,	-2.46887E+04,	0.00000E+00,	0,	0
  1.26689E-01,	1.00000E+01,	-4.68881E-02,	2.35714E+02,	1.22942E+04,	-2.94387E+04,	0.00000E+00,	0,	0
  1.00446E-01,	1.00000E+01,	-4.68881E-02,	2.56582E+02,	1.42575E+04,	-3.71519E+04,	0.00000E+00,	0,	0