Z60W Data File: Version 1.1
CorrTest for Windows: SN CS310H1805157  V5.2.1111.9  2.5H6.220118
Sweep Frequency: Control Voltage
  Date:4-30-2026   Time:17:48:52
  Begin Information:            Cell Information
      Surface Area:           1
      Density:                7.8
      Weight:                 28
  End Information:              Cell Information
  Freq (Hz)     Ampl(mV)       Bias(V)      Time(Sec)       Z'(Ohm.cm^2)    Z''(Ohm.cm^2)        GD       Err      Range
End Comments
  3.07200E+05,	1.00000E+01,	-4.85198E-02,	3.40374E-02,	6.33373E+02,	-7.08601E+02,	0.00000E+00,	0,	0
  2.76480E+05,	1.00000E+01,	-4.85198E-02,	1.63498E+00,	6.40825E+02,	-7.79381E+02,	0.00000E+00,	0,	0
  1.97486E+05,	1.00000E+01,	-4.85198E-02,	2.55594E+00,	7.24155E+02,	-1.01922E+03,	0.00000E+00,	0,	0
  1.53600E+05,	1.00000E+01,	-4.85198E-02,	3.48131E+00,	8.23432E+02,	-1.27342E+03,	0.00000E+00,	0,	0
  1.25673E+05,	1.00000E+01,	-4.85198E-02,	4.40994E+00,	8.85106E+02,	-1.58491E+03,	0.00000E+00,	0,	0
  9.87429E+04,	1.00000E+01,	-4.85198E-02,	5.35399E+00,	1.11091E+03,	-1.86890E+03,	0.00000E+00,	0,	0
  7.68000E+04,	1.00000E+01,	-4.85198E-02,	6.27568E+00,	1.33886E+03,	-2.24952E+03,	0.00000E+00,	0,	0
  6.01043E+04,	1.00000E+01,	-4.85198E-02,	8.42908E+00,	1.72336E+03,	-2.65245E+03,	0.00000E+00,	0,	0
  4.93714E+04,	1.00000E+01,	-4.85198E-02,	1.00102E+01,	2.05266E+03,	-3.01198E+03,	0.00000E+00,	0,	0
  3.84000E+04,	1.00000E+01,	-4.85198E-02,	1.09385E+01,	2.69007E+03,	-3.44868E+03,	0.00000E+00,	0,	0
  3.00522E+04,	1.00000E+01,	-4.85198E-02,	1.17929E+01,	1.89543E+03,	-4.49700E+03,	0.00000E+00,	0,	0
  2.38345E+04,	1.00000E+01,	-4.85198E-02,	1.26529E+01,	4.22564E+03,	-4.09793E+03,	0.00000E+00,	0,	0
  1.86811E+04,	1.00000E+01,	-4.85198E-02,	1.34887E+01,	6.68589E+03,	-4.40861E+03,	0.00000E+00,	0,	0
  1.47064E+04,	1.00000E+01,	-4.85198E-02,	1.44519E+01,	6.14153E+03,	-4.02934E+03,	0.00000E+00,	0,	0
  1.15200E+04,	1.00000E+01,	-4.85198E-02,	1.54497E+01,	6.93150E+03,	-4.00034E+03,	0.00000E+00,	0,	0
  9.60000E+03,	1.00000E+01,	-4.85198E-02,	1.70288E+01,	7.56473E+03,	-3.63033E+03,	0.00000E+00,	0,	0
  7.51304E+03,	1.00000E+01,	-4.85198E-02,	1.78932E+01,	8.04515E+03,	-3.18959E+03,	0.00000E+00,	0,	0
  5.76000E+03,	1.00000E+01,	-4.85198E-02,	1.88336E+01,	8.60467E+03,	-2.64232E+03,	0.00000E+00,	0,	0
  4.54737E+03,	1.00000E+01,	-4.85198E-02,	1.96971E+01,	8.67592E+03,	-2.17723E+03,	0.00000E+00,	0,	0
  3.60000E+03,	1.00000E+01,	-4.85198E-02,	2.06953E+01,	9.11997E+03,	-1.85270E+03,	0.00000E+00,	0,	0
  2.88000E+03,	1.00000E+01,	-4.85198E-02,	2.16108E+01,	9.31879E+03,	-1.79244E+03,	0.00000E+00,	0,	0
  2.27368E+03,	1.00000E+01,	-4.85198E-02,	2.27546E+01,	9.52632E+03,	-1.72899E+03,	0.00000E+00,	0,	0
  1.78144E+03,	1.00000E+01,	-4.85198E-02,	2.35384E+01,	9.81337E+03,	-1.14708E+03,	0.00000E+00,	0,	0
  1.41639E+03,	1.00000E+01,	-4.85198E-02,	2.44529E+01,	8.50218E+03,	-1.29645E+03,	0.00000E+00,	0,	0
  1.12208E+03,	1.00000E+01,	-4.85198E-02,	2.54788E+01,	9.87438E+03,	-3.87249E+02,	0.00000E+00,	0,	0
  9.00000E+02,	1.00000E+01,	-4.85198E-02,	3.04664E+01,	1.01409E+04,	-1.15583E+03,	0.00000E+00,	0,	0
  7.20000E+02,	1.00000E+01,	-4.85198E-02,	3.18311E+01,	1.03082E+04,	-1.10849E+03,	0.00000E+00,	0,	0
  5.68421E+02,	1.00000E+01,	-4.85198E-02,	3.31978E+01,	1.04701E+04,	-1.05521E+03,	0.00000E+00,	0,	0
  4.40816E+02,	1.00000E+01,	-4.85198E-02,	3.62412E+01,	1.06727E+04,	-1.00185E+03,	0.00000E+00,	0,	0
  3.54098E+02,	1.00000E+01,	-4.85198E-02,	3.86181E+01,	1.08382E+04,	-9.11457E+02,	0.00000E+00,	0,	0
  2.76923E+02,	1.00000E+01,	-4.85198E-02,	4.12691E+01,	1.09958E+04,	-8.24667E+02,	0.00000E+00,	0,	0
  2.20408E+02,	1.00000E+01,	-4.85198E-02,	4.41960E+01,	1.11192E+04,	-7.31292E+02,	0.00000E+00,	0,	0
  1.74194E+02,	1.00000E+01,	-4.85198E-02,	4.74661E+01,	1.12369E+04,	-6.47623E+02,	0.00000E+00,	0,	0
  1.37580E+02,	1.00000E+01,	-4.85198E-02,	5.11429E+01,	1.13299E+04,	-5.80042E+02,	0.00000E+00,	0,	0
  1.09091E+02,	1.00000E+01,	-4.85198E-02,	5.52299E+01,	1.14185E+04,	-5.39405E+02,	0.00000E+00,	0,	0
  8.70968E+01,	1.00000E+01,	-4.85198E-02,	6.33958E+01,	1.15225E+04,	-4.98936E+02,	0.00000E+00,	0,	0
  6.83544E+01,	1.00000E+01,	-4.85198E-02,	6.84149E+01,	1.16669E+04,	-5.12070E+02,	0.00000E+00,	0,	0
  5.45455E+01,	1.00000E+01,	-4.85198E-02,	7.38626E+01,	1.16009E+04,	-4.21799E+02,	0.00000E+00,	0,	0
  4.28571E+01,	1.00000E+01,	-4.85198E-02,	7.73977E+01,	1.16538E+04,	-4.34666E+02,	0.00000E+00,	0,	0
  3.39623E+01,	1.00000E+01,	-4.85198E-02,	8.11241E+01,	1.16641E+04,	-5.25542E+02,	0.00000E+00,	0,	0
  2.68657E+01,	1.00000E+01,	-4.85198E-02,	8.49997E+01,	1.17685E+04,	-5.59757E+02,	0.00000E+00,	0,	0
  2.13439E+01,	1.00000E+01,	-4.85198E-02,	8.88069E+01,	1.18494E+04,	-6.17027E+02,	0.00000E+00,	0,	0
  1.73077E+01,	1.00000E+01,	-4.85198E-02,	9.25016E+01,	1.19219E+04,	-6.92321E+02,	0.00000E+00,	0,	0
  1.36364E+01,	1.00000E+01,	-4.85198E-02,	9.75736E+01,	1.20107E+04,	-8.06466E+02,	0.00000E+00,	0,	0
  1.07143E+01,	1.00000E+01,	-4.85198E-02,	1.00473E+02,	1.20899E+04,	-9.51224E+02,	0.00000E+00,	0,	0
  8.49057E+00,	1.00000E+01,	-4.85198E-02,	1.04674E+02,	1.21946E+04,	-1.14158E+03,	0.00000E+00,	0,	0
  6.71642E+00,	1.00000E+01,	-4.85198E-02,	1.07191E+02,	1.22822E+04,	-1.35681E+03,	0.00000E+00,	0,	0
  5.29412E+00,	1.00000E+01,	-4.85198E-02,	1.10101E+02,	1.24012E+04,	-1.63955E+03,	0.00000E+00,	0,	0
  4.16667E+00,	1.00000E+01,	-4.85198E-02,	1.13580E+02,	1.25452E+04,	-1.98298E+03,	0.00000E+00,	0,	0
  3.30882E+00,	1.00000E+01,	-4.85198E-02,	1.17831E+02,	1.27136E+04,	-2.38245E+03,	0.00000E+00,	0,	0
  2.61628E+00,	1.00000E+01,	-4.85198E-02,	1.21835E+02,	1.29033E+04,	-2.87167E+03,	0.00000E+00,	0,	0
  2.07373E+00,	1.00000E+01,	-4.85198E-02,	1.26605E+02,	1.31395E+04,	-3.45525E+03,	0.00000E+00,	0,	0
  1.64234E+00,	1.00000E+01,	-4.85198E-02,	1.32390E+02,	1.34086E+04,	-4.16517E+03,	0.00000E+00,	0,	0
  1.30058E+00,	1.00000E+01,	-4.85198E-02,	1.36555E+02,	1.36843E+04,	-5.02051E+03,	0.00000E+00,	0,	0
  1.03211E+00,	1.00000E+01,	-4.85198E-02,	1.40961E+02,	1.40938E+04,	-5.95463E+03,	0.00000E+00,	0,	0
  8.15217E-01,	1.00000E+01,	-4.85198E-02,	1.47910E+02,	1.43982E+04,	-7.29771E+03,	0.00000E+00,	0,	0
  6.46552E-01,	1.00000E+01,	-4.85198E-02,	1.52708E+02,	1.48270E+04,	-8.75268E+03,	0.00000E+00,	0,	0
  5.11364E-01,	1.00000E+01,	-4.85198E-02,	1.57728E+02,	1.54271E+04,	-1.13116E+04,	0.00000E+00,	0,	0
  4.07609E-01,	1.00000E+01,	-4.85198E-02,	1.63817E+02,	1.60475E+04,	-1.34777E+04,	0.00000E+00,	0,	0
  3.21429E-01,	1.00000E+01,	-4.85198E-02,	1.70941E+02,	1.75143E+04,	-1.67074E+04,	0.00000E+00,	0,	0
  2.54525E-01,	1.00000E+01,	-4.85198E-02,	1.79698E+02,	1.83376E+04,	-2.00389E+04,	0.00000E+00,	0,	0
  2.01613E-01,	1.00000E+01,	-4.85198E-02,	1.90534E+02,	1.94072E+04,	-2.43102E+04,	0.00000E+00,	0,	0
  1.59574E-01,	1.00000E+01,	-4.85198E-02,	2.04003E+02,	2.07217E+04,	-2.95711E+04,	0.00000E+00,	0,	0
  1.26689E-01,	1.00000E+01,	-4.85198E-02,	2.20945E+02,	2.22968E+04,	-3.59186E+04,	0.00000E+00,	0,	0
  1.00446E-01,	1.00000E+01,	-4.85198E-02,	2.41824E+02,	2.42574E+04,	-4.39690E+04,	0.00000E+00,	0,	0