EXPLAIN
TAG	EISPOT
TITLE	LABEL	Potentiostatic EIS	Test Identifier
DATE	LABEL	9/22/2020	Date
TIME	LABEL	4:00:31	Time
NOTES	NOTES	1	Notes...
	
PSTAT	PSTAT	REF3000-16137	Potentiostat
VDC	POTEN	0.00000E+000	T	DC Voltage (V)
FREQINIT	QUANT	3.00000E+005	Initial Freq. (Hz)
FREQFINAL	QUANT	1.00000E+000	Final Freq. (Hz)
PTSPERDEC	QUANT	1.00000E+001	Points/decade
VAC	QUANT	5.00000E+001	AC Voltage (mV rms)
AREA	QUANT	1.00000E+000	Sample Area (cm^2)
SPEED	SELECTOR	2	Optimize for:
ZGUESS	QUANT	1.00000E+003	Estimated Z (ohms)
EOC	QUANT	0	Open Circuit (V)
SEQUENCER	TOGGLE	TRUE	Run as Sequence
PSTATMODEL	IQUANT	5	Pstat Model
PSTATSECTION	LABEL	REF3000-16137	Pstat Section
PSTATSERIALNO	LABEL	16137	Pstat Serial Number
CTRLMODE	IQUANT	1	Control Mode
IESTAB	IQUANT	0	I/E Stability
CASPEED	IQUANT	1	Control Amp Speed
CONVENTION	IQUANT	1	Current Convention
ICHRANGE	IQUANT	2	Ich Range
ICHRANGEMODE	TOGGLE	F	Ich Auto Range
ICHOFFSETENABLE	TOGGLE	T	Ich Offset Enable
ICHOFFSET	QUANT	0	Ich Offset (V)
ICHFILTER	IQUANT	3	Ich Filter
VCHRANGE	IQUANT	2	Vch Range
VCHRANGEMODE	TOGGLE	F	Vch Auto Range
VCHOFFSETENABLE	TOGGLE	T	Vch Offset Enable
VCHOFFSET	QUANT	0	Vch Offset (V)
VCHFILTER	IQUANT	3	Vch Filter
ACHRANGE	IQUANT	2	Ach Range
ACHOFFSETENABLE	TOGGLE	F	Ach Offset Enable
ACHOFFSET	QUANT	0	Ach Offset (V)
ACHFILTER	IQUANT	3	Ach Filter
IERANGELOWERLIMIT	IQUANT	2	I/E Range Lower Limit
IERANGEMODE	TOGGLE	F	I/E AutoRange
IERANGE	IQUANT	11	I/E Range
POSFEEDENABLE	TOGGLE	F	Positive Feedback IR Comp
POSFEEDRESISTANCE	QUANT	0	Positive Feedback Resistance (ohm)
ACHSELECT	IQUANT	0	Ach Select
CABLEID	IQUANT	13	Cable ID
DCCALDATE	LABEL	7/31/2020	DC Calibration Date
ACCALDATE	LABEL	7/31/2020	AC Calibration Date
THERMOSELECT	IQUANT	1	Thermo Select
FRAMEWORKVERSION	QUANT	6.33	Framework Version
INSTRUMENTVERSION	LABEL	3.50	Instrument Version
COMPLIANCEVOLTAGE	IQUANT	0	Compliance Voltage
ZCURVE	TABLE
	Pt	Time	Freq	Zreal	Zimag	Zsig	Zmod	Zphz	Idc	Vdc	IERange
	#	s	Hz	ohm	ohm	V	ohm	°	A	V	#
	0	15	300046.9	805.6365	-3825.754	1	3909.66	-78.10826	5.169082E-005	3.288518E-006	9
	1	39	238359.4	1182.227	-4618.148	1	4767.069	-75.64088	1.970701E-005	-0.0022031	9
	2	69	189328.1	1802.067	-5628.825	1	5910.255	-72.24754	2.794168E-005	-0.0015254	9
	3	83	150421.9	3180.298	-6871.846	1	7572.091	-65.16525	2.119451E-005	-0.0003438	9
	4	91	119484.4	3755.605	-7760.341	1	8621.337	-64.17542	4.016047E-005	-0.018488	8
	5	98	94921.88	4936.229	-9217.8	1	10456.3	-61.83048	2.560235E-005	-0.0088512	8
	6	107	75421.88	6569.549	-10241.07	1	12167.1	-57.32021	2.679561E-005	-0.0072887	8
	7	116	59859.37	8773.033	-11525.02	1	14484.21	-52.72102	-1.158434E-005	0.010031	8
	8	124	47578.12	11009.76	-12454.16	1	16622.9	-48.5226	-9.582669E-006	-0.0020564	8
	9	133	37828.12	15694.58	-11789.65	1	19629.46	-36.91359	7.155482E-006	-0.0171951	7
	10	145	30046.88	18177.42	-11567.7	1	21546	-32.47176	2.474948E-006	0.0083794	7
	11	151	23859.38	20448.14	-10793.95	1	23122.19	-27.82822	-6.873634E-006	0.0220725	7
	12	155	18984.38	22482.88	-9960.59	1	24590.51	-23.89479	7.153734E-006	-0.017263	7
	13	160	15046.87	24000.8	-9904.78	1	25964.27	-22.42522	-1.178415E-005	0.0100316	8
	14	166	11953.13	25665.97	-7733.505	1	26805.77	-16.76826	-6.95451E-006	0.0176748	7
	15	171	9515.62	26069.82	-6957.76	1	26982.33	-14.94333	8.358608E-006	0.0040264	8
	16	178	7546.875	27681.25	-5480.035	1	28218.48	-11.19801	2.492371E-006	0.0084318	7
	17	183	5928.309	27956.8	-5222.538	1	28440.42	-10.58132	-1.907691E-006	0.0076138	8
	18	190	4733.456	28670.48	-4286.111	1	28989.08	-8.502501	1.317291E-006	-0.0190928	7
	19	195	3796.875	28682.98	-2744.398	1	28813.97	-5.465445	-1.16806E-005	0.0101339	8
	20	201	2987.132	30361.67	-2436.928	1	30459.31	-4.588912	-4.996832E-006	0.0030342	7
	21	207	2390.625	30025.49	-2223.152	1	30107.69	-4.234575	2.792534E-007	0.0158159	7
	22	212	1884.191	31759.84	-543.0132	1	31764.48	-0.979518	-1.404987E-006	-0.0050005	8
	23	219	1516.544	30515.56	-1930.113	1	30576.54	-3.619145	-2.317521E-005	0.0004389	9
	24	225	1193.986	30675.8	675.5983	1	30683.24	1.261668	2.584996E-005	-0.0051631	8
	25	233	946.5144	28296.48	-2505.123	1	28407.16	-5.059277	2.030758E-005	-2.809531E-005	9
	26	239	751.7689	35255.3	-3727.02	1	35451.76	-6.034618	2.586191E-005	-0.0052547	8
	27	244	597.4265	34303.68	-1782.874	1	34349.98	-2.975171	-2.578923E-005	0.0075665	8
	28	250	477.4305	31919.19	-583.6057	1	31924.52	-1.047471	-3.894686E-007	0.0006147	8
	29	253	376.6741	32119.2	-448.1501	1	32122.33	-0.7993799	-8.888502E-008	0.0005519	7
	30	255	298.2954	32225.49	-385.4547	1	32227.79	-0.6852921	-8.842403E-008	0.0005648	7
	31	258	237.7717	32349.95	-336.302	1	32351.69	-0.5956112	-9.57851E-008	0.0006451	7
	32	260	189.0121	32431.94	-297.6599	1	32433.3	-0.5258452	-9.388462E-008	0.0006447	7
	33	263	150.2404	32551.98	-264.196	1	32553.06	-0.4650096	-9.036049E-008	0.0005521	7
	34	265	119.1737	32689.45	-274.4003	1	32690.6	-0.4809384	-8.69979E-008	0.0005619	7
	35	267	95.0169	32765.29	-268.0716	1	32766.39	-0.4687591	-9.2155E-008	0.0005537	7
	36	270	75.60484	32877.62	-296.0742	1	32878.96	-0.515954	-8.727361E-008	0.0006167	7
	37	272	54.50582	33028.48	-349.7827	1	33030.33	-0.6067589	-8.820842E-008	0.0006415	7
	38	275	45.95588	33112.48	-366.0611	1	33114.5	-0.6333837	-9.515449E-008	0.0006488	7
	39	277	37.20238	33209.87	-428.5241	1	33212.63	-0.7392761	-9.47243E-008	0.0005657	7
	40	280	30.04808	33363.34	-481.6651	1	33366.81	-0.8271193	-1.083816E-007	0.0006568	7
	41	282	23.91582	33441.78	-590.9875	1	33447	-1.012433	-1.091445E-007	0.0006334	7
	42	284	18.60119	33584.93	-747.9733	1	33593.25	-1.275829	-9.816945E-008	0.0006056	7
	43	287	15.02404	33716.55	-842.4276	1	33727.07	-1.43127	-7.405696E-008	0.0005891	7
	44	289	12.01923	33828.02	-1042.197	1	33844.07	-1.76465	-6.425908E-008	0.0005873	7
	45	292	9.450605	33951.24	-1276.527	1	33975.23	-2.153241	-1.156493E-007	0.0005899	7
	46	294	7.512019	34134.32	-1625.881	1	34173.02	-2.727044	-1.067632E-007	0.0005661	7
	47	297	5.978954	34325.68	-1955.728	1	34381.35	-3.260938	-8.338179E-008	0.0006532	7
	48	300	4.734848	34562.42	-2425.188	1	34647.4	-4.013772	-1.000859E-007	0.0006411	7
	49	303	3.75601	34820.09	-3024.541	1	34951.2	-4.964363	-6.06679E-008	0.0006615	7
	50	306	3.004808	35058.27	-3630.961	1	35245.8	-5.913002	-8.980751E-008	0.0006259	7
	51	310	2.372217	35454.92	-4529.949	1	35743.13	-7.281031	-6.445688E-008	0.000575	7
	52	314	1.878005	35848.7	-5585.847	1	36281.28	-8.856455	-6.238924E-008	0.0006031	7
	53	319	1.512097	36381.85	-6770.198	1	37006.41	-10.54144	1.227294E-008	0.000652	6
	54	325	1.201923	36800.6	-8365.818	1	37739.52	-12.80729	-1.957989E-009	0.0006714	6
	55	331	0.956633	37614.35	-10238.66	1	38982.94	-15.22705	-3.546376E-008	9.33819E-006	6
