EXPLAIN
TAG	EISPOT
TITLE	LABEL	Potentiostatic EIS	Test Identifier
DATE	LABEL	9/22/2020	Date
TIME	LABEL	1:20:35	Time
NOTES	NOTES	1	Notes...
	
PSTAT	PSTAT	REF3000-16137	Potentiostat
VDC	POTEN	0.00000E+000	T	DC Voltage (V)
FREQINIT	QUANT	3.00000E+005	Initial Freq. (Hz)
FREQFINAL	QUANT	1.00000E+000	Final Freq. (Hz)
PTSPERDEC	QUANT	1.00000E+001	Points/decade
VAC	QUANT	5.00000E+001	AC Voltage (mV rms)
AREA	QUANT	1.00000E+000	Sample Area (cm^2)
SPEED	SELECTOR	2	Optimize for:
ZGUESS	QUANT	1.00000E+003	Estimated Z (ohms)
EOC	QUANT	0	Open Circuit (V)
SEQUENCER	TOGGLE	TRUE	Run as Sequence
PSTATMODEL	IQUANT	5	Pstat Model
PSTATSECTION	LABEL	REF3000-16137	Pstat Section
PSTATSERIALNO	LABEL	16137	Pstat Serial Number
CTRLMODE	IQUANT	1	Control Mode
IESTAB	IQUANT	0	I/E Stability
CASPEED	IQUANT	1	Control Amp Speed
CONVENTION	IQUANT	1	Current Convention
ICHRANGE	IQUANT	2	Ich Range
ICHRANGEMODE	TOGGLE	F	Ich Auto Range
ICHOFFSETENABLE	TOGGLE	T	Ich Offset Enable
ICHOFFSET	QUANT	0	Ich Offset (V)
ICHFILTER	IQUANT	3	Ich Filter
VCHRANGE	IQUANT	2	Vch Range
VCHRANGEMODE	TOGGLE	F	Vch Auto Range
VCHOFFSETENABLE	TOGGLE	T	Vch Offset Enable
VCHOFFSET	QUANT	0	Vch Offset (V)
VCHFILTER	IQUANT	3	Vch Filter
ACHRANGE	IQUANT	2	Ach Range
ACHOFFSETENABLE	TOGGLE	F	Ach Offset Enable
ACHOFFSET	QUANT	0	Ach Offset (V)
ACHFILTER	IQUANT	3	Ach Filter
IERANGELOWERLIMIT	IQUANT	2	I/E Range Lower Limit
IERANGEMODE	TOGGLE	F	I/E AutoRange
IERANGE	IQUANT	11	I/E Range
POSFEEDENABLE	TOGGLE	F	Positive Feedback IR Comp
POSFEEDRESISTANCE	QUANT	0	Positive Feedback Resistance (ohm)
ACHSELECT	IQUANT	0	Ach Select
CABLEID	IQUANT	13	Cable ID
DCCALDATE	LABEL	7/31/2020	DC Calibration Date
ACCALDATE	LABEL	7/31/2020	AC Calibration Date
THERMOSELECT	IQUANT	1	Thermo Select
FRAMEWORKVERSION	QUANT	6.33	Framework Version
INSTRUMENTVERSION	LABEL	3.50	Instrument Version
COMPLIANCEVOLTAGE	IQUANT	0	Compliance Voltage
ZCURVE	TABLE
	Pt	Time	Freq	Zreal	Zimag	Zsig	Zmod	Zphz	Idc	Vdc	IERange
	#	s	Hz	ohm	ohm	V	ohm	°	A	V	#
	0	7	300046.9	31.34514	1.28235	1	31.37136	2.342701	-2.574012E-005	-0.0001336	11
	1	12	238359.4	31.46187	1.327636	1	31.48987	2.416349	-3.230651E-005	0.0003261	10
	2	15	189328.1	31.47433	1.075125	1	31.49268	1.956393	2.283115E-005	0.0004686	10
	3	17	150421.9	31.54829	0.8148193	1	31.55881	1.479488	-8.701935E-005	0.0007662	10
	4	20	119484.4	31.54857	0.6149833	1	31.55456	1.116738	-1.363954E-005	0.0004577	10
	5	22	94921.88	31.5825	0.4633201	1	31.5859	0.8404776	-1.06879E-005	0.0006233	10
	6	25	75421.88	31.61969	0.3131744	1	31.62124	0.5674624	-2.668239E-005	0.0006799	10
	7	27	59859.37	31.65395	0.1750176	1	31.65443	0.3167905	-1.655169E-005	0.0006939	10
	8	30	47578.12	31.689	0.0638792	1	31.68906	0.1154976	7.143191E-006	0.00057	10
	9	32	37828.12	31.72841	-0.049233	1	31.72845	-0.0889058	2.074391E-005	0.0006208	10
	10	35	30046.88	31.76664	-0.1618247	1	31.76705	-0.291872	2.093867E-005	0.0006156	10
	11	37	23859.38	31.8089	-0.2783588	1	31.81012	-0.5013809	-2.208299E-005	0.0006913	10
	12	40	18984.38	31.84843	-0.4025195	1	31.85097	-0.7240999	-1.623659E-005	0.0006577	10
	13	42	15046.87	31.89498	-0.5498055	1	31.89972	-0.987566	2.52848E-005	0.0006482	10
	14	44	11953.13	31.93833	-0.71153	1	31.94625	-1.276239	2.361853E-005	0.0006281	10
	15	47	9515.62	31.98334	-0.918757	1	31.99653	-1.645432	-8.987421E-006	0.0006303	10
	16	49	7546.875	32.03692	-1.155548	1	32.05775	-2.06572	-2.894533E-005	0.000717	10
	17	51	5928.309	32.10311	-1.472856	1	32.13688	-2.626826	-3.553018E-006	0.0006069	10
	18	54	4733.456	32.17561	-1.828583	1	32.22753	-3.252697	-2.566778E-005	0.0006742	10
	19	56	3796.875	32.23727	-2.244557	1	32.31532	-3.982857	-5.561611E-006	0.0006609	10
	20	58	2987.132	32.34229	-2.81666	1	32.46471	-4.977278	2.367867E-005	0.00065	10
	21	61	2390.625	32.44292	-3.483517	1	32.6294	-6.128581	2.153628E-005	0.0007	10
	22	63	1884.191	32.56539	-4.338974	1	32.85318	-7.589324	5.583584E-006	0.0006771	10
	23	65	1516.544	32.71393	-5.308262	1	33.1418	-9.216658	-2.665192E-005	0.0007028	10
	24	68	1193.986	32.90897	-6.622405	1	33.56869	-11.3779	2.167461E-005	0.0006577	10
	25	70	946.5144	33.14143	-8.223396	1	34.14643	-13.93538	-2.906414E-005	0.0006549	10
	26	72	751.7689	33.40315	-10.16828	1	34.91653	-16.93082	-2.464206E-005	0.0006671	10
	27	75	597.4265	33.76663	-12.57857	1	36.03339	-20.43111	-3.651528E-006	0.0006108	10
	28	77	477.4305	34.13697	-15.45145	1	37.47105	-24.35298	1.224191E-006	6.368828E-005	9
	29	79	376.6741	34.69057	-19.21744	1	39.65786	-28.98501	1.222018E-006	5.961693E-005	9
	30	82	298.2954	35.3772	-23.80869	1	42.6427	-33.94036	1.175667E-006	6.650062E-005	9
	31	84	237.7717	36.21675	-29.30585	1	46.58847	-38.97907	1.183099E-006	6.080066E-005	9
	32	86	189.0121	37.28403	-36.1449	1	51.92834	-44.11122	1.157385E-006	6.233952E-005	9
	33	89	150.2404	38.63369	-44.5569	1	58.97355	-49.07261	1.111779E-006	6.522027E-005	9
	34	91	119.1737	40.36089	-55.00085	1	68.22092	-53.72792	1.164707E-006	5.856041E-005	9
	35	94	95.0169	42.50517	-67.52415	1	79.78848	-57.81036	1.156425E-006	5.92381E-005	9
	36	96	75.60484	45.23823	-82.9714	1	94.50265	-61.3996	1.171231E-006	5.76266E-005	9
	37	99	54.50582	50.38388	-111.217	1	122.0973	-65.62838	1.150062E-006	5.495683E-005	9
	38	101	45.95588	53.79026	-129.4719	1	140.2012	-67.43913	1.143422E-006	6.157986E-005	9
	39	104	37.20238	58.77106	-156.1522	1	166.8459	-69.37515	1.211094E-006	5.5533E-005	9
	40	106	30.04808	64.76617	-188.6274	1	199.4366	-71.04984	1.191661E-006	6.65422E-005	9
	41	108	23.91582	72.47601	-230.7767	1	241.8898	-72.56497	1.180685E-006	5.957195E-005	9
	42	111	18.60119	82.80547	-288.3965	1	300.0488	-73.97997	1.149749E-006	7.041571E-005	9
	43	113	15.02404	93.51177	-348.4578	1	360.7871	-74.9781	1.233986E-006	6.551947E-005	9
	44	115	12.01923	106.5643	-423.3135	1	436.5207	-75.87004	4.76156E-007	0.0006336	8
	45	118	9.450605	124.4886	-524.8768	1	539.4377	-76.65732	4.550795E-007	0.0006304	8
	46	120	7.512019	146.2395	-644.6525	1	661.0317	-77.21877	5.011343E-007	0.0006541	8
	47	123	5.978954	173.232	-791.1646	1	809.9079	-77.64953	4.830539E-007	0.0006418	8
	48	126	4.734848	209.5771	-975.717	1	997.971	-77.87746	4.607564E-007	0.0006608	8
	49	129	3.75601	255.7443	-1200.902	1	1227.831	-77.97787	4.450113E-007	0.0006355	8
	50	133	3.004808	313.7526	-1465	1	1498.221	-77.91183	4.213793E-007	0.0006736	8
	51	137	2.372217	393.0905	-1805.644	1	1847.937	-77.71828	4.502085E-007	0.0006742	8
	52	141	1.878005	502.2135	-2220.105	1	2276.2	-77.25356	4.694983E-007	0.0006139	8
	53	145	1.512097	630.4482	-2682.223	1	2755.32	-76.7729	4.556197E-007	0.0007395	8
	54	151	1.201923	809.6484	-3270.914	1	3369.63	-76.09705	4.818908E-007	0.0006159	8
	55	157	0.956633	1037.349	-3969.387	1	4102.697	-75.35403	4.137834E-007	-2.394809E-006	8
