EXPLAIN
TAG	EISPOT
TITLE	LABEL	Potentiostatic EIS	Test Identifier
DATE	LABEL	9/22/2020	Date
TIME	LABEL	5:01:27	Time
NOTES	NOTES	1	Notes...
	
PSTAT	PSTAT	REF3000-16137	Potentiostat
VDC	POTEN	0.00000E+000	T	DC Voltage (V)
FREQINIT	QUANT	3.00000E+005	Initial Freq. (Hz)
FREQFINAL	QUANT	1.00000E+000	Final Freq. (Hz)
PTSPERDEC	QUANT	1.00000E+001	Points/decade
VAC	QUANT	5.00000E+001	AC Voltage (mV rms)
AREA	QUANT	1.00000E+000	Sample Area (cm^2)
SPEED	SELECTOR	2	Optimize for:
ZGUESS	QUANT	1.00000E+003	Estimated Z (ohms)
EOC	QUANT	0	Open Circuit (V)
SEQUENCER	TOGGLE	TRUE	Run as Sequence
PSTATMODEL	IQUANT	5	Pstat Model
PSTATSECTION	LABEL	REF3000-16137	Pstat Section
PSTATSERIALNO	LABEL	16137	Pstat Serial Number
CTRLMODE	IQUANT	1	Control Mode
IESTAB	IQUANT	0	I/E Stability
CASPEED	IQUANT	1	Control Amp Speed
CONVENTION	IQUANT	1	Current Convention
ICHRANGE	IQUANT	2	Ich Range
ICHRANGEMODE	TOGGLE	F	Ich Auto Range
ICHOFFSETENABLE	TOGGLE	T	Ich Offset Enable
ICHOFFSET	QUANT	0	Ich Offset (V)
ICHFILTER	IQUANT	3	Ich Filter
VCHRANGE	IQUANT	2	Vch Range
VCHRANGEMODE	TOGGLE	F	Vch Auto Range
VCHOFFSETENABLE	TOGGLE	T	Vch Offset Enable
VCHOFFSET	QUANT	0	Vch Offset (V)
VCHFILTER	IQUANT	3	Vch Filter
ACHRANGE	IQUANT	2	Ach Range
ACHOFFSETENABLE	TOGGLE	F	Ach Offset Enable
ACHOFFSET	QUANT	0	Ach Offset (V)
ACHFILTER	IQUANT	3	Ach Filter
IERANGELOWERLIMIT	IQUANT	2	I/E Range Lower Limit
IERANGEMODE	TOGGLE	F	I/E AutoRange
IERANGE	IQUANT	11	I/E Range
POSFEEDENABLE	TOGGLE	F	Positive Feedback IR Comp
POSFEEDRESISTANCE	QUANT	0	Positive Feedback Resistance (ohm)
ACHSELECT	IQUANT	0	Ach Select
CABLEID	IQUANT	13	Cable ID
DCCALDATE	LABEL	7/31/2020	DC Calibration Date
ACCALDATE	LABEL	7/31/2020	AC Calibration Date
THERMOSELECT	IQUANT	1	Thermo Select
FRAMEWORKVERSION	QUANT	6.33	Framework Version
INSTRUMENTVERSION	LABEL	3.50	Instrument Version
COMPLIANCEVOLTAGE	IQUANT	0	Compliance Voltage
ZCURVE	TABLE
	Pt	Time	Freq	Zreal	Zimag	Zsig	Zmod	Zphz	Idc	Vdc	IERange
	#	s	Hz	ohm	ohm	V	ohm	°	A	V	#
	0	21	300046.9	-38.21686	-4461.299	1	4461.463	-90.4908	2.442054E-005	-0.0010956	9
	1	41	238359.4	55.42991	-5582.91	1	5583.185	-89.43116	2.003724E-005	-0.0009884	9
	2	56	189328.1	116.477	-7114.737	1	7115.691	-89.06208	8.703023E-008	0.0016886	9
	3	64	150421.9	-188.0398	-8565.109	1	8567.173	-91.25768	2.041861E-005	-0.000828	9
	4	78	119484.4	-118.6852	-10680.38	1	10681.04	-90.63667	-6.022391E-005	0.0005472	9
	5	88	94921.88	439.2231	-13522.32	1	13529.45	-88.13961	-1.211022E-005	0.010282	8
	6	96	75421.88	743.6299	-17262.51	1	17278.52	-87.53336	1.71817E-005	0.0003717	8
	7	104	59859.37	881.1508	-21116.38	1	21134.76	-87.61053	2.316731E-005	-0.0028272	8
	8	112	47578.12	1417.898	-26642.6	1	26680.3	-86.95364	-2.027231E-005	0.0026751	8
	9	121	37828.12	1060.307	-35116.78	1	35132.79	-88.27055	-2.591906E-005	0.0006938	9
	10	130	30046.88	2149.524	-40975.07	1	41031.41	-86.99706	2.595949E-005	-0.0050876	8
	11	138	23859.38	2488.354	-51759.66	1	51819.44	-87.24761	-2.708769E-005	0.0096831	8
	12	146	18984.38	1715.289	-64094.67	1	64117.62	-88.46703	7.9942E-006	0.0041346	8
	13	152	15046.87	6929.782	-82766.16	1	83055.76	-85.21394	-7.303498E-006	0.0186734	7
	14	158	11953.13	3845.357	-105591	1	105661	-87.91435	-1.513587E-005	1.602748E-005	9
	15	165	9515.62	10690.03	-130557.4	1	130994.3	-85.31907	-7.292051E-006	0.0186562	7
	16	172	7546.875	12359.22	-160186.2	1	160662.2	-85.58807	6.818641E-006	-0.0269475	7
	17	177	5928.309	1621.512	-192247.2	1	192254.1	-89.51675	-5.352332E-006	0.0036786	7
	18	183	4733.456	48024.87	-272259.3	1	276462.5	-79.99628	1.253682E-006	-0.0197482	7
	19	190	3796.875	53002.94	-335355	1	339517.8	-81.01868	-3.876005E-007	0.0254176	6
	20	195	2987.132	54766.83	-408236.5	1	411893.7	-82.35912	4.268888E-007	0.0020377	6
	21	201	2390.625	99831.5	-467049.2	1	477599.5	-77.93462	4.31381E-007	0.0161063	7
	22	207	1884.191	80032.02	-660371.9	1	665203.8	-83.08989	-4.886416E-007	0.0013612	6
	23	212	1516.544	102479.4	-807121.1	1	813600.9	-82.76393	7.194575E-007	-0.0156161	6
	24	218	1193.986	116948.7	-1015241	1	1021954	-83.42889	-1.591857E-009	0.0173019	6
	25	223	946.5144	31545.72	-1415953	1	1416305	-88.72373	7.698601E-009	0.0165566	6
	26	228	751.7689	112520.5	-1815967	1	1819449	-86.45438	7.603591E-007	-0.0224278	6
	27	232	597.4265	337192.5	-2154442	1	2180669	-81.10477	5.940672E-007	-0.006401	6
	28	237	477.4305	505777.4	-2342148	1	2396136	-77.81432	-9.827738E-009	0.0006838	6
	29	242	376.6741	1053479	-2919654	1	3103900	-70.15939	-1.055965E-009	0.0005804	5
	30	246	298.2954	1028403	-3535288	1	3681830	-73.78046	-9.507494E-009	0.0005964	6
	31	249	237.7717	1831142	-4172935	1	4557024	-66.30746	-1.021165E-009	0.0006616	5
	32	253	189.0121	2401850	-5050695	1	5592709	-64.56665	-1.093518E-009	0.000671	5
	33	258	150.2404	3224646	-5921905	1	6742944	-61.43045	-1.055207E-009	0.000632	5
	34	260	119.1737	3474020	-5666989	1	6647073	-58.49056	-1.085327E-009	0.0006728	5
	35	263	95.0169	5613254	-7598876	1	9447303	-53.5469	-9.620432E-010	0.0006754	5
	36	266	75.60484	7447428	-7681550	1	1.069908E+007	-45.88659	-1.105782E-009	0.0006812	5
	37	269	54.50582	9.828224E+006	-8074972	1	1.272003E+007	-39.40688	-1.081066E-009	0.000649	5
	38	272	45.95588	1.279286E+007	-7690557	1	1.492655E+007	-31.01261	-1.276979E-010	0.000661	4
	39	275	37.20238	1.402097E+007	-7186057	1	1.575522E+007	-27.13615	-8.85794E-011	0.0006673	4
	40	277	30.04808	1.534485E+007	-5950627	1	1.645826E+007	-21.19595	-1.239131E-010	0.0006761	4
	41	280	23.91582	1.610636E+007	-4752981	1	1.679302E+007	-16.44131	-6.046815E-011	0.00069	4
	42	283	18.60119	1.682062E+007	-5633436	1	1.773891E+007	-18.51634	-1.973146E-011	0.0006931	4
	43	285	15.02404	1.735297E+007	-3745862	1	1.775267E+007	-12.18112	-1.20525E-010	0.0006186	4
	44	288	12.01923	1.795005E+007	-3166296	1	1.822717E+007	-10.00377	-9.811182E-011	0.0006465	4
	45	290	9.450605	1.846241E+007	-2516646	1	1.863314E+007	-7.762255	-1.207024E-010	0.0006848	4
	46	293	7.512019	1.860403E+007	-2047485	1	1.871636E+007	-6.280468	-1.215384E-010	0.0007044	4
	47	296	5.978954	1.899626E+007	-1760002	1	1.907762E+007	-5.293336	-9.917786E-011	0.0006295	4
	48	301	4.734848	1.92249E+007	-1466579	1	1.928076E+007	-4.36238	-1.076887E-010	0.0006888	4
	49	305	3.75601	1.947765E+007	-1370916	1	1.952584E+007	-4.026071	-1.151044E-010	0.0006181	4
	50	311	3.004808	1.999422E+007	-1016813	1	2.002006E+007	-2.911289	-1.087394E-010	0.0006322	4
	51	317	2.372217	2.014171E+007	-829030.8	1	2.015876E+007	-2.356958	-1.031802E-010	0.000714	4
	52	322	1.878005	2.038795E+007	-684396.9	1	2.039943E+007	-1.922623	-1.079958E-010	0.0006178	4
	53	327	1.512097	2.06558E+007	-569575.4	1	2.066366E+007	-1.579508	-1.038464E-010	0.0007418	4
	54	332	1.201923	2.095499E+007	-491179.3	1	2.096074E+007	-1.342752	-1.069365E-010	0.0006239	4
	55	338	0.956633	2.130651E+007	-417342.8	1	2.131059E+007	-1.122142	-1.416283E-010	4.279384E-006	4
