EXPLAIN
TAG	EISPOT
TITLE	LABEL	Potentiostatic EIS	Test Identifier
DATE	LABEL	9/22/2020	Date
TIME	LABEL	0:05:35	Time
NOTES	NOTES	1	Notes...
	
PSTAT	PSTAT	REF3000-16137	Potentiostat
VDC	POTEN	0.00000E+000	T	DC Voltage (V)
FREQINIT	QUANT	3.00000E+005	Initial Freq. (Hz)
FREQFINAL	QUANT	1.00000E+000	Final Freq. (Hz)
PTSPERDEC	QUANT	1.00000E+001	Points/decade
VAC	QUANT	5.00000E+001	AC Voltage (mV rms)
AREA	QUANT	1.00000E+000	Sample Area (cm^2)
SPEED	SELECTOR	2	Optimize for:
ZGUESS	QUANT	1.00000E+003	Estimated Z (ohms)
EOC	QUANT	0	Open Circuit (V)
SEQUENCER	TOGGLE	TRUE	Run as Sequence
PSTATMODEL	IQUANT	5	Pstat Model
PSTATSECTION	LABEL	REF3000-16137	Pstat Section
PSTATSERIALNO	LABEL	16137	Pstat Serial Number
CTRLMODE	IQUANT	1	Control Mode
IESTAB	IQUANT	0	I/E Stability
CASPEED	IQUANT	1	Control Amp Speed
CONVENTION	IQUANT	1	Current Convention
ICHRANGE	IQUANT	2	Ich Range
ICHRANGEMODE	TOGGLE	F	Ich Auto Range
ICHOFFSETENABLE	TOGGLE	T	Ich Offset Enable
ICHOFFSET	QUANT	0	Ich Offset (V)
ICHFILTER	IQUANT	3	Ich Filter
VCHRANGE	IQUANT	2	Vch Range
VCHRANGEMODE	TOGGLE	F	Vch Auto Range
VCHOFFSETENABLE	TOGGLE	T	Vch Offset Enable
VCHOFFSET	QUANT	0	Vch Offset (V)
VCHFILTER	IQUANT	3	Vch Filter
ACHRANGE	IQUANT	2	Ach Range
ACHOFFSETENABLE	TOGGLE	F	Ach Offset Enable
ACHOFFSET	QUANT	0	Ach Offset (V)
ACHFILTER	IQUANT	3	Ach Filter
IERANGELOWERLIMIT	IQUANT	2	I/E Range Lower Limit
IERANGEMODE	TOGGLE	F	I/E AutoRange
IERANGE	IQUANT	11	I/E Range
POSFEEDENABLE	TOGGLE	F	Positive Feedback IR Comp
POSFEEDRESISTANCE	QUANT	0	Positive Feedback Resistance (ohm)
ACHSELECT	IQUANT	0	Ach Select
CABLEID	IQUANT	13	Cable ID
DCCALDATE	LABEL	7/31/2020	DC Calibration Date
ACCALDATE	LABEL	7/31/2020	AC Calibration Date
THERMOSELECT	IQUANT	1	Thermo Select
FRAMEWORKVERSION	QUANT	6.33	Framework Version
INSTRUMENTVERSION	LABEL	3.50	Instrument Version
COMPLIANCEVOLTAGE	IQUANT	0	Compliance Voltage
ZCURVE	TABLE
	Pt	Time	Freq	Zreal	Zimag	Zsig	Zmod	Zphz	Idc	Vdc	IERange
	#	s	Hz	ohm	ohm	V	ohm	°	A	V	#
	0	8	300046.9	8.962833	2.189574	1	9.226409	13.72818	1.379624E-005	3.317359E-005	10
	1	11	238359.4	8.918667	1.74161	1	9.087124	11.04949	6.320643E-005	-0.0001441	10
	2	14	189328.1	8.911671	1.37638	1	9.017333	8.779786	-0.0000986	0.0003573	10
	3	17	150421.9	8.90609	1.063678	1	8.969384	6.810726	1.958079E-005	0.0004083	10
	4	19	119484.4	8.898078	0.8288523	1	8.936598	5.321722	6.556144E-005	0.000318	10
	5	22	94921.88	8.899752	0.6514191	1	8.92356	4.186311	-2.730226E-005	0.0005809	10
	6	24	75421.88	8.900484	0.4705817	1	8.912915	3.026494	2.506459E-005	0.0005717	10
	7	27	59859.37	8.906264	0.3154511	1	8.911849	2.028512	-1.309949E-005	0.00059	10
	8	29	47578.12	8.913817	0.181158	1	8.915658	1.164278	1.993375E-005	0.0006026	10
	9	32	37828.12	8.92356	0.0617807	1	8.923774	0.3966709	1.0522E-005	0.000585	10
	10	34	30046.88	8.935281	-0.0522159	1	8.935433	-0.3348204	2.215348E-005	0.0006421	10
	11	37	23859.38	8.946798	-0.1668878	1	8.948355	-1.068634	2.183395E-005	0.0006447	10
	12	39	18984.38	8.960462	-0.2867831	1	8.96505	-1.833148	-3.353302E-007	0.0006057	10
	13	41	15046.87	8.97666	-0.4214354	1	8.986547	-2.687944	-1.99728E-005	0.0007064	10
	14	44	11953.13	8.993419	-0.5724785	1	9.011621	-3.642264	1.248159E-005	0.0006277	10
	15	46	9515.62	9.016228	-0.7493472	1	9.047314	-4.750988	1.076143E-005	0.0006061	10
	16	48	7546.875	9.04328	-0.961367	1	9.094236	-6.068168	-2.558797E-005	0.0007084	10
	17	51	5928.309	9.076222	-1.231421	1	9.159378	-7.726454	3.013617E-006	0.0006168	10
	18	53	4733.456	9.114851	-1.539275	1	9.24391	-9.58541	-2.54044E-005	0.0006744	10
	19	55	3796.875	9.159859	-1.904367	1	9.355727	-11.74468	2.01052E-005	0.0006274	10
	20	58	2987.132	9.221445	-2.395264	1	9.52745	-14.56076	-2.527707E-005	0.0006674	10
	21	60	2390.625	9.292066	-2.957354	1	9.75133	-17.65454	-3.170077E-005	0.0006565	10
	22	62	1884.191	9.388095	-3.696447	1	10.0896	-21.49143	-6.153653E-006	0.0006813	10
	23	65	1516.544	9.499648	-4.52684	1	10.5231	-25.47906	1.810762E-005	0.0006453	10
	24	67	1193.986	9.65271	-5.655077	1	11.18726	-30.36407	5.894487E-006	0.0006636	10
	25	69	946.5144	9.84675	-7.004233	1	12.08378	-35.42516	-2.265082E-005	0.0007355	10
	26	72	751.7689	10.08072	-8.670368	1	13.29647	-40.69864	1.781196E-005	0.0006526	10
	27	74	597.4265	10.38725	-10.71473	1	14.92315	-45.88909	-5.485004E-006	0.0006797	10
	28	76	477.4305	10.76831	-13.15285	1	16.99865	-50.69263	-3.246462E-006	0.0006687	10
	29	79	376.6741	11.28244	-16.32896	1	19.84762	-55.3576	-5.356563E-006	0.0006944	10
	30	81	298.2954	11.93609	-20.18087	1	23.44649	-59.39757	-3.138912E-006	0.0006649	10
	31	83	237.7717	12.73834	-24.76349	1	27.84772	-62.77871	-6.505019E-006	0.0007083	10
	32	86	189.0121	13.75812	-30.42989	1	33.39557	-65.67108	-3.590069E-006	0.0006617	10
	33	88	150.2404	15.01855	-37.34484	1	40.25163	-68.09205	-2.921279E-006	0.0006611	10
	34	91	119.1737	16.55634	-45.82651	1	48.72557	-70.13607	9.975359E-007	6.161683E-005	9
	35	93	95.0169	18.39968	-56.01947	1	58.9638	-71.81715	8.923287E-007	5.876943E-005	9
	36	95	75.60484	20.64854	-68.60522	1	71.64523	-73.24946	8.431397E-007	6.682965E-005	9
	37	98	54.50582	24.7186	-91.7617	1	95.0327	-74.92364	7.877898E-007	6.450743E-005	9
	38	101	45.95588	27.37373	-106.8531	1	110.3037	-75.63094	9.302371E-007	6.480634E-005	9
	39	103	37.20238	31.28505	-129.0581	1	132.7959	-76.37374	8.822137E-007	6.326738E-005	9
	40	105	30.04808	36.17876	-156.3116	1	160.4438	-76.9682	8.683796E-007	6.700409E-005	9
	41	108	23.91582	42.7396	-191.7973	1	196.5016	-77.43761	7.482215E-007	6.640011E-005	9
	42	110	18.60119	52.17118	-240.4258	1	246.0211	-77.75691	1.011794E-006	6.233006E-005	9
	43	112	15.02404	62.56261	-291.2979	1	297.9405	-77.87861	8.360636E-007	6.33715E-005	9
	44	115	12.01923	76.74326	-355.5702	1	363.7578	-77.82059	1.122875E-006	6.592344E-005	9
	45	117	9.450605	96.4377	-438.6972	1	449.172	-77.60201	2.784046E-007	0.0006304	8
	46	120	7.512019	121.9829	-537.464	1	551.1328	-77.21276	3.327815E-007	0.0006393	8
	47	122	5.978954	155.6129	-655.9644	1	674.1696	-76.65456	3.022814E-007	0.0006482	8
	48	125	4.734848	201.4213	-802.2892	1	827.1871	-75.90671	2.197162E-007	0.000618	8
	49	129	3.75601	261.9606	-976.836	1	1011.351	-74.98806	3.288444E-007	0.0006701	8
	50	132	3.004808	338.258	-1175.964	1	1223.646	-73.95248	3.45456E-007	0.0006141	8
	51	136	2.372217	444.7322	-1426.847	1	1494.55	-72.68833	2.762248E-007	0.0005652	8
	52	140	1.878005	580.6615	-1716.978	1	1812.507	-71.31508	3.336899E-007	0.000651	8
	53	145	1.512097	742.0662	-2025.041	1	2156.723	-69.87489	3.013855E-007	0.0005935	8
	54	150	1.201923	961.208	-2412.612	1	2597.04	-68.27719	3.252179E-007	0.0006654	8
	55	156	0.956633	1238.868	-2849.18	1	3106.866	-66.49985	2.261558E-007	-2.874759E-006	8
