EXPLAIN
TAG	EISPOT
TITLE	LABEL	Potentiostatic EIS	Test Identifier
DATE	LABEL	9/22/2020	Date
TIME	LABEL	3:22:10	Time
NOTES	NOTES	1	Notes...
	
PSTAT	PSTAT	REF3000-16137	Potentiostat
VDC	POTEN	0.00000E+000	T	DC Voltage (V)
FREQINIT	QUANT	3.00000E+005	Initial Freq. (Hz)
FREQFINAL	QUANT	1.00000E+000	Final Freq. (Hz)
PTSPERDEC	QUANT	1.00000E+001	Points/decade
VAC	QUANT	5.00000E+001	AC Voltage (mV rms)
AREA	QUANT	1.00000E+000	Sample Area (cm^2)
SPEED	SELECTOR	2	Optimize for:
ZGUESS	QUANT	1.00000E+003	Estimated Z (ohms)
EOC	QUANT	0	Open Circuit (V)
SEQUENCER	TOGGLE	TRUE	Run as Sequence
PSTATMODEL	IQUANT	5	Pstat Model
PSTATSECTION	LABEL	REF3000-16137	Pstat Section
PSTATSERIALNO	LABEL	16137	Pstat Serial Number
CTRLMODE	IQUANT	1	Control Mode
IESTAB	IQUANT	0	I/E Stability
CASPEED	IQUANT	1	Control Amp Speed
CONVENTION	IQUANT	1	Current Convention
ICHRANGE	IQUANT	2	Ich Range
ICHRANGEMODE	TOGGLE	F	Ich Auto Range
ICHOFFSETENABLE	TOGGLE	T	Ich Offset Enable
ICHOFFSET	QUANT	0	Ich Offset (V)
ICHFILTER	IQUANT	3	Ich Filter
VCHRANGE	IQUANT	2	Vch Range
VCHRANGEMODE	TOGGLE	F	Vch Auto Range
VCHOFFSETENABLE	TOGGLE	T	Vch Offset Enable
VCHOFFSET	QUANT	0	Vch Offset (V)
VCHFILTER	IQUANT	3	Vch Filter
ACHRANGE	IQUANT	2	Ach Range
ACHOFFSETENABLE	TOGGLE	F	Ach Offset Enable
ACHOFFSET	QUANT	0	Ach Offset (V)
ACHFILTER	IQUANT	3	Ach Filter
IERANGELOWERLIMIT	IQUANT	2	I/E Range Lower Limit
IERANGEMODE	TOGGLE	F	I/E AutoRange
IERANGE	IQUANT	11	I/E Range
POSFEEDENABLE	TOGGLE	F	Positive Feedback IR Comp
POSFEEDRESISTANCE	QUANT	0	Positive Feedback Resistance (ohm)
ACHSELECT	IQUANT	0	Ach Select
CABLEID	IQUANT	13	Cable ID
DCCALDATE	LABEL	7/31/2020	DC Calibration Date
ACCALDATE	LABEL	7/31/2020	AC Calibration Date
THERMOSELECT	IQUANT	1	Thermo Select
FRAMEWORKVERSION	QUANT	6.33	Framework Version
INSTRUMENTVERSION	LABEL	3.50	Instrument Version
COMPLIANCEVOLTAGE	IQUANT	0	Compliance Voltage
ZCURVE	TABLE
	Pt	Time	Freq	Zreal	Zimag	Zsig	Zmod	Zphz	Idc	Vdc	IERange
	#	s	Hz	ohm	ohm	V	ohm	°	A	V	#
	0	23	300046.9	1571.539	-914.8753	1	1818.442	-30.20594	5.085907E-005	-4.405891E-005	9
	1	36	238359.4	1738.14	-835.3895	1	1928.472	-25.67	2.368046E-005	0.0010113	9
	2	50	189328.1	1849.317	-750.3863	1	1995.759	-22.08554	-2.899367E-005	-0.0010766	9
	3	56	150421.9	2075.612	-629.4963	1	2168.97	-16.87162	-7.853534E-007	-0.0018359	9
	4	66	119484.4	2108.254	-488.6453	1	2164.142	-13.04944	2.510392E-005	0.0058962	8
	5	72	94921.88	2161.129	-401.4883	1	2198.107	-10.52426	1.619989E-005	-0.0001925	8
	6	79	75421.88	2199.884	-344.8668	1	2226.751	-8.909513	5.825933E-006	-0.0063333	8
	7	82	59859.37	2232.322	-281.9132	1	2250.053	-7.197608	2.092664E-005	-0.0028209	8
	8	86	47578.12	2273.387	-241.6646	1	2286.195	-6.067845	-2.10698E-005	0.0050024	8
	9	92	37828.12	2284.293	-183.4705	1	2291.65	-4.59204	-2.278417E-005	0.0069056	8
	10	96	30046.88	2309.054	-156.3276	1	2314.34	-3.873129	-2.075024E-005	0.0096702	8
	11	99	23859.38	2316.47	-120.4044	1	2319.597	-2.975415	-1.184415E-006	0.006482	8
	12	104	18984.38	2332.149	-100.507	1	2334.314	-2.46771	-2.116212E-005	0.0050287	8
	13	108	15046.87	2343.843	-83.15952	1	2345.318	-2.032001	2.311562E-005	-0.0048145	8
	14	111	11953.13	2353.94	-66.4253	1	2354.877	-1.616387	8.408079E-006	0.0033192	8
	15	115	9515.62	2361.19	-56.41865	1	2361.864	-1.368774	-9.238243E-006	-0.0014562	8
	16	119	7546.875	2388.022	-48.34151	1	2388.511	-1.159699	-1.82336E-005	0.0002561	9
	17	124	5928.309	2395.628	-41.22726	1	2395.983	-0.985927	-1.990312E-005	0.0011011	9
	18	130	4733.456	2395.374	-31.47845	1	2395.581	-0.7529005	-2.291051E-005	0.0069383	8
	19	135	3796.875	2414.912	-23.77836	1	2415.029	-0.5641429	-1.493525E-005	0.0010797	8
	20	140	2987.132	2424.901	-35.72354	1	2425.164	-0.844018	2.479708E-005	-0.000947	9
	21	146	2390.625	2448.529	-22.09292	1	2448.629	-0.5169621	1.951343E-005	-3.071889E-005	9
	22	150	1884.191	2438.319	-36.32327	1	2438.59	-0.8534634	1.321949E-005	-0.0078597	8
	23	156	1516.544	2469.231	-30.98225	1	2469.426	-0.7188712	9.782812E-006	0.0004017	9
	24	161	1193.986	2486.348	-11.33466	1	2486.374	-0.2611959	1.612263E-005	-0.0001165	8
	25	167	946.5144	2475.766	-15.84123	1	2475.816	-0.366603	-1.695411E-005	0.0100088	8
	26	170	751.7689	2511.985	-4.875177	1	2511.99	-0.1111976	2.464593E-005	-0.0001929	9
	27	174	597.4265	2485.364	-28.21834	1	2485.524	-0.6504973	1.266371E-005	-0.0076107	8
	28	178	477.4305	2512.442	-29.77933	1	2512.618	-0.6790804	-3.133198E-007	0.0006392	8
	29	181	376.6741	2519.227	-35.26184	1	2519.474	-0.8019217	-3.136409E-007	0.0006291	8
	30	184	298.2954	2525.903	-42.19324	1	2526.255	-0.956993	-3.341314E-007	0.0006455	8
	31	186	237.7717	2532.795	-50.85144	1	2533.305	-1.150185	-3.266035E-007	0.0006534	8
	32	188	189.0121	2539.975	-61.85709	1	2540.728	-1.395073	-2.923672E-007	0.0006452	8
	33	191	150.2404	2547.696	-75.58949	1	2548.817	-1.699452	-3.05812E-007	0.0006183	8
	34	193	119.1737	2555.805	-92.8622	1	2557.491	-2.08086	-3.355043E-007	0.0006418	8
	35	196	95.0169	2564.472	-113.6234	1	2566.988	-2.536929	-2.93859E-007	0.0006189	8
	36	198	75.60484	2574.11	-139.5974	1	2577.892	-3.104185	-3.353821E-007	0.0006462	8
	37	201	54.50582	2586.792	-187.8983	1	2593.607	-4.154531	-3.574527E-007	0.000648	8
	38	203	45.95588	2597.107	-219.3511	1	2606.354	-4.827733	-3.50545E-007	0.0006405	8
	39	206	37.20238	2609.436	-266.1216	1	2622.971	-5.823138	-2.82245E-007	0.0006473	8
	40	208	30.04808	2622.72	-322.1424	1	2642.43	-7.00243	-3.699939E-007	0.0006553	8
	41	211	23.91582	2639.269	-398.6411	1	2669.205	-8.589159	-2.985716E-007	0.0006358	8
	42	213	18.60119	2666.533	-505.5935	1	2714.042	-10.73624	-6.054572E-007	0.0006683	8
	43	215	15.02404	2684.585	-609.9051	1	2752.995	-12.79964	-4.196194E-007	0.0006256	8
	44	218	12.01923	2708.293	-744.9235	1	2808.873	-15.37906	-3.040387E-007	0.0006328	8
	45	220	9.450605	2741.315	-922.8808	1	2892.494	-18.60612	-1.681731E-007	0.0006143	8
	46	223	7.512019	2784.711	-1139.97	1	3009.011	-22.2626	-2.655203E-007	0.0006452	8
	47	225	5.978954	2835.103	-1403.017	1	3163.268	-26.32959	-2.754979E-007	0.0006293	8
	48	228	4.734848	2900.96	-1730.458	1	3377.878	-30.81659	-2.81812E-007	0.0006486	8
	49	232	3.75601	2983.534	-2130.867	1	3666.343	-35.53477	-3.259635E-007	0.0006529	8
	50	235	3.004808	3084.885	-2605.289	1	4037.827	-40.18222	-8.514268E-008	0.0006854	7
	51	239	2.372217	3209.784	-3215.437	1	4543.319	-45.05041	-5.455626E-008	0.0006462	7
	52	243	1.878005	3364.75	-3956.406	1	5193.716	-49.6203	-5.604642E-008	0.0005894	7
	53	248	1.512097	3543.94	-4792.086	1	5960.167	-53.51559	-5.777326E-008	0.0007092	7
	54	253	1.201923	3771.673	-5880.382	1	6986.016	-57.32391	-5.634891E-008	0.0005967	7
	55	259	0.956633	4051.191	-7195.285	1	8257.377	-60.619	-8.206106E-008	-2.774039E-005	7
