EXPLAIN
TAG	EISPOT
TITLE	LABEL	Potentiostatic EIS	Test Identifier
DATE	LABEL	9/22/2020	Date
TIME	LABEL	2:35:47	Time
NOTES	NOTES	1	Notes...
	
PSTAT	PSTAT	REF3000-16137	Potentiostat
VDC	POTEN	0.00000E+000	T	DC Voltage (V)
FREQINIT	QUANT	3.00000E+005	Initial Freq. (Hz)
FREQFINAL	QUANT	1.00000E+000	Final Freq. (Hz)
PTSPERDEC	QUANT	1.00000E+001	Points/decade
VAC	QUANT	5.00000E+001	AC Voltage (mV rms)
AREA	QUANT	1.00000E+000	Sample Area (cm^2)
SPEED	SELECTOR	2	Optimize for:
ZGUESS	QUANT	1.00000E+003	Estimated Z (ohms)
EOC	QUANT	0	Open Circuit (V)
SEQUENCER	TOGGLE	TRUE	Run as Sequence
PSTATMODEL	IQUANT	5	Pstat Model
PSTATSECTION	LABEL	REF3000-16137	Pstat Section
PSTATSERIALNO	LABEL	16137	Pstat Serial Number
CTRLMODE	IQUANT	1	Control Mode
IESTAB	IQUANT	0	I/E Stability
CASPEED	IQUANT	1	Control Amp Speed
CONVENTION	IQUANT	1	Current Convention
ICHRANGE	IQUANT	2	Ich Range
ICHRANGEMODE	TOGGLE	F	Ich Auto Range
ICHOFFSETENABLE	TOGGLE	T	Ich Offset Enable
ICHOFFSET	QUANT	0	Ich Offset (V)
ICHFILTER	IQUANT	3	Ich Filter
VCHRANGE	IQUANT	2	Vch Range
VCHRANGEMODE	TOGGLE	F	Vch Auto Range
VCHOFFSETENABLE	TOGGLE	T	Vch Offset Enable
VCHOFFSET	QUANT	0	Vch Offset (V)
VCHFILTER	IQUANT	3	Vch Filter
ACHRANGE	IQUANT	2	Ach Range
ACHOFFSETENABLE	TOGGLE	F	Ach Offset Enable
ACHOFFSET	QUANT	0	Ach Offset (V)
ACHFILTER	IQUANT	3	Ach Filter
IERANGELOWERLIMIT	IQUANT	2	I/E Range Lower Limit
IERANGEMODE	TOGGLE	F	I/E AutoRange
IERANGE	IQUANT	11	I/E Range
POSFEEDENABLE	TOGGLE	F	Positive Feedback IR Comp
POSFEEDRESISTANCE	QUANT	0	Positive Feedback Resistance (ohm)
ACHSELECT	IQUANT	0	Ach Select
CABLEID	IQUANT	13	Cable ID
DCCALDATE	LABEL	7/31/2020	DC Calibration Date
ACCALDATE	LABEL	7/31/2020	AC Calibration Date
THERMOSELECT	IQUANT	1	Thermo Select
FRAMEWORKVERSION	QUANT	6.33	Framework Version
INSTRUMENTVERSION	LABEL	3.50	Instrument Version
COMPLIANCEVOLTAGE	IQUANT	0	Compliance Voltage
ZCURVE	TABLE
	Pt	Time	Freq	Zreal	Zimag	Zsig	Zmod	Zphz	Idc	Vdc	IERange
	#	s	Hz	ohm	ohm	V	ohm	°	A	V	#
	0	15	300046.9	270.3662	-16.48396	1	270.8683	-3.488947	-6.833398E-006	0.0014287	9
	1	19	238359.4	272.2408	-13.78108	1	272.5894	-2.89789	7.301663E-005	-0.0017407	9
	2	25	189328.1	273.3842	-15.10618	1	273.8012	-3.162732	8.218699E-005	0.0001663	10
	3	29	150421.9	274.5763	-14.70207	1	274.9697	-3.064951	3.038589E-005	0.0005971	10
	4	33	119484.4	276.072	-7.885055	1	276.1846	-1.636014	-1.58325E-005	0.0015157	9
	5	37	94921.88	276.1852	-5.687987	1	276.2438	-1.17983	-2.628175E-005	0.0006824	9
	6	39	75421.88	277.3688	-5.261026	1	277.4187	-1.086634	-2.453865E-005	0.0008427	9
	7	42	59859.37	278.217	-4.415171	1	278.2521	-0.9091802	-2.310012E-005	0.0007925	9
	8	46	47578.12	279.2696	-3.5884	1	279.2926	-0.7361665	-8.608441E-006	0.0009063	9
	9	50	37828.12	279.831	-2.322683	1	279.8407	-0.4755615	-2.258249E-005	0.0004198	9
	10	52	30046.88	280.3073	-3.133548	1	280.3248	-0.6404815	-8.651402E-006	0.0008956	9
	11	55	23859.38	280.9019	-2.645975	1	280.9144	-0.5396854	8.340926E-006	-0.0006852	9
	12	57	18984.38	281.5522	-2.260251	1	281.5613	-0.4599504	-3.926537E-007	0.000647	9
	13	60	15046.87	281.97	-1.777329	1	281.9756	-0.3611452	1.115059E-005	0.0003213	9
	14	62	11953.13	282.0618	-2.350486	1	282.0716	-0.4774477	1.134801E-005	0.0003402	9
	15	64	9515.62	282.8644	-2.057693	1	282.8719	-0.41679	2.789582E-005	-0.0006318	9
	16	66	7546.875	283.3541	-2.258202	1	283.3631	-0.4566113	9.683367E-007	0.0006878	9
	17	69	5928.309	284.0225	-2.849778	1	284.0368	-0.5748656	-1.777817E-005	0.0003132	9
	18	71	4733.456	284.5054	-2.914607	1	284.5204	-0.5869442	-2.273307E-005	0.0010075	9
	19	75	3796.875	285.3045	-3.901621	1	285.3311	-0.7834876	2.459511E-005	-0.0002121	9
	20	78	2987.132	285.4376	-3.936661	1	285.4647	-0.7901544	1.664074E-005	-0.0008503	9
	21	81	2390.625	286.1018	-4.779815	1	286.1417	-0.957134	-1.748727E-005	0.0003096	9
	22	83	1884.191	285.3358	-5.79005	1	285.3946	-1.162489	-2.314367E-005	0.0008478	9
	23	86	1516.544	287.3387	-7.07989	1	287.426	-1.411455	9.6172E-007	0.0006624	9
	24	89	1193.986	288.4277	-8.453543	1	288.5516	-1.678804	-2.333938E-005	0.0006556	9
	25	91	946.5144	288.6442	-10.7113	1	288.8429	-2.125213	2.671775E-005	-0.0005096	9
	26	95	751.7689	289.9665	-12.79148	1	290.2485	-2.525887	-1.856079E-005	0.0003058	9
	27	98	597.4265	291.5182	-16.49389	1	291.9845	-3.238302	1.260992E-006	0.0006255	9
	28	102	477.4305	291.9619	-19.91541	1	292.6403	-3.902237	1.045143E-006	7.160488E-005	9
	29	104	376.6741	293.0097	-24.74263	1	294.0525	-4.82678	1.08692E-006	6.604053E-005	9
	30	106	298.2954	294.2045	-30.65377	1	295.7971	-5.948303	1.036402E-006	7.255971E-005	9
	31	109	237.7717	295.5728	-37.76529	1	297.9757	-7.28122	1.054952E-006	6.38478E-005	9
	32	111	189.0121	297.1818	-46.65896	1	300.8223	-8.922871	1.062676E-006	6.394112E-005	9
	33	114	150.2404	299.1047	-57.6445	1	304.6088	-10.9085	1.06863E-006	6.859277E-005	9
	34	116	119.1737	301.4318	-71.33287	1	309.7572	-13.31394	1.04261E-006	6.511293E-005	9
	35	118	95.0169	304.2165	-87.84158	1	316.6446	-16.10591	1.039948E-006	6.62524E-005	9
	36	121	75.60484	307.6612	-108.3213	1	326.1731	-19.39614	1.039195E-006	0.0001014	9
	37	123	54.50582	313.8251	-146.0815	1	346.1589	-24.96137	1.033567E-006	6.085509E-005	9
	38	126	45.95588	318.1186	-170.6542	1	361.0018	-28.21126	1.067092E-006	6.950932E-005	9
	39	128	37.20238	322.9419	-205.9034	1	382.9983	-32.52104	-8.543382E-008	0.000653	8
	40	131	30.04808	330.571	-249.8615	1	414.3766	-37.08375	-7.042232E-008	0.0006404	8
	41	133	23.91582	340.5823	-307.0567	1	458.5631	-42.03668	-1.260356E-007	0.0006348	8
	42	135	18.60119	354.3555	-385.1495	1	523.3621	-47.3845	6.144913E-008	0.0006265	8
	43	138	15.02404	369.338	-466.5702	1	595.0616	-51.63479	5.932902E-009	0.0006535	8
	44	140	12.01923	388.5028	-569.8193	1	689.6582	-55.71383	-1.560591E-007	0.00064	8
	45	143	9.450605	414.5816	-706.2785	1	818.9672	-59.5873	9.354443E-009	0.0006364	8
	46	145	7.512019	445.6465	-866.567	1	974.443	-62.78475	-7.837561E-008	0.0006648	8
	47	148	5.978954	484.1039	-1059.935	1	1165.255	-65.4524	-7.280959E-008	0.00064	8
	48	151	4.734848	533.2126	-1302.692	1	1407.594	-67.73992	-4.007911E-008	0.0006411	8
	49	154	3.75601	592.0717	-1595.846	1	1702.138	-69.64474	-6.642422E-008	0.000646	8
	50	157	3.004808	660.5222	-1939.07	1	2048.483	-71.18917	-2.339896E-008	0.0006016	8
	51	161	2.372217	745.6555	-2386.038	1	2499.836	-72.64557	-4.732236E-008	0.0005868	8
	52	165	1.878005	853.2598	-2930.506	1	3052.198	-73.7663	-5.232843E-008	0.0006483	8
	53	170	1.512097	974.127	-3543.93	1	3675.372	-74.63056	-4.963105E-008	0.0005393	8
	54	175	1.201923	1124.87	-4357.168	1	4500.028	-75.52429	-2.193108E-008	0.0006364	7
	55	182	0.956633	1310.055	-5337.969	1	5496.377	-76.21089	-3.202136E-008	-2.84862E-005	7
