EXPLAIN
TAG	EISPOT
TITLE	LABEL	Potentiostatic EIS	Test Identifier
DATE	LABEL	9/22/2020	Date
TIME	LABEL	3:26:39	Time
NOTES	NOTES	1	Notes...
	
PSTAT	PSTAT	REF3000-16137	Potentiostat
VDC	POTEN	0.00000E+000	T	DC Voltage (V)
FREQINIT	QUANT	3.00000E+005	Initial Freq. (Hz)
FREQFINAL	QUANT	1.00000E+000	Final Freq. (Hz)
PTSPERDEC	QUANT	1.00000E+001	Points/decade
VAC	QUANT	5.00000E+001	AC Voltage (mV rms)
AREA	QUANT	1.00000E+000	Sample Area (cm^2)
SPEED	SELECTOR	2	Optimize for:
ZGUESS	QUANT	1.00000E+003	Estimated Z (ohms)
EOC	QUANT	0	Open Circuit (V)
SEQUENCER	TOGGLE	TRUE	Run as Sequence
PSTATMODEL	IQUANT	5	Pstat Model
PSTATSECTION	LABEL	REF3000-16137	Pstat Section
PSTATSERIALNO	LABEL	16137	Pstat Serial Number
CTRLMODE	IQUANT	1	Control Mode
IESTAB	IQUANT	0	I/E Stability
CASPEED	IQUANT	1	Control Amp Speed
CONVENTION	IQUANT	1	Current Convention
ICHRANGE	IQUANT	2	Ich Range
ICHRANGEMODE	TOGGLE	F	Ich Auto Range
ICHOFFSETENABLE	TOGGLE	T	Ich Offset Enable
ICHOFFSET	QUANT	0	Ich Offset (V)
ICHFILTER	IQUANT	3	Ich Filter
VCHRANGE	IQUANT	2	Vch Range
VCHRANGEMODE	TOGGLE	F	Vch Auto Range
VCHOFFSETENABLE	TOGGLE	T	Vch Offset Enable
VCHOFFSET	QUANT	0	Vch Offset (V)
VCHFILTER	IQUANT	3	Vch Filter
ACHRANGE	IQUANT	2	Ach Range
ACHOFFSETENABLE	TOGGLE	F	Ach Offset Enable
ACHOFFSET	QUANT	0	Ach Offset (V)
ACHFILTER	IQUANT	3	Ach Filter
IERANGELOWERLIMIT	IQUANT	2	I/E Range Lower Limit
IERANGEMODE	TOGGLE	F	I/E AutoRange
IERANGE	IQUANT	11	I/E Range
POSFEEDENABLE	TOGGLE	F	Positive Feedback IR Comp
POSFEEDRESISTANCE	QUANT	0	Positive Feedback Resistance (ohm)
ACHSELECT	IQUANT	0	Ach Select
CABLEID	IQUANT	13	Cable ID
DCCALDATE	LABEL	7/31/2020	DC Calibration Date
ACCALDATE	LABEL	7/31/2020	AC Calibration Date
THERMOSELECT	IQUANT	1	Thermo Select
FRAMEWORKVERSION	QUANT	6.33	Framework Version
INSTRUMENTVERSION	LABEL	3.50	Instrument Version
COMPLIANCEVOLTAGE	IQUANT	0	Compliance Voltage
ZCURVE	TABLE
	Pt	Time	Freq	Zreal	Zimag	Zsig	Zmod	Zphz	Idc	Vdc	IERange
	#	s	Hz	ohm	ohm	V	ohm	°	A	V	#
	0	21	300046.9	1742.41	-1259.261	1	2149.821	-35.85609	4.990849E-005	2.259623E-005	9
	1	43	238359.4	2006.45	-1232.707	1	2354.869	-31.5654	4.397737E-006	0.0016212	9
	2	78	189328.1	2218.094	-1195.194	1	2519.609	-28.31748	2.073065E-005	-0.0003839	9
	3	85	150421.9	2457.121	-1023.683	1	2661.836	-22.61753	-2.161863E-005	0.0016555	9
	4	92	119484.4	2609.053	-883.3881	1	2754.548	-18.70536	7.609796E-005	-0.001434	9
	5	101	94921.88	2741.349	-692.2986	1	2827.414	-14.1731	1.624561E-005	-6.945115E-005	8
	6	109	75421.88	2826.204	-587.9626	1	2886.716	-11.75216	2.293288E-005	-0.0080945	8
	7	113	59859.37	2900.013	-492.9565	1	2941.612	-9.64717	2.420798E-005	-0.0067811	8
	8	121	47578.12	2956.33	-414.4601	1	2985.241	-7.980518	2.354389E-005	-0.0048685	8
	9	128	37828.12	3000.389	-340.4587	1	3019.643	-6.473749	2.446778E-005	-0.0067855	8
	10	134	30046.88	3046.441	-278.8062	1	3059.172	-5.229067	2.356641E-005	-0.0047804	8
	11	142	23859.38	3068.059	-223.4018	1	3076.182	-4.164661	-5.844376E-007	0.0065143	8
	12	147	18984.38	3105.333	-187.1458	1	3110.968	-3.448812	-1.901743E-005	0.0028904	8
	13	153	15046.87	3141.282	-168.6607	1	3145.807	-3.073355	1.962935E-005	-2.719223E-005	9
	14	158	11953.13	3149.856	-135.4447	1	3152.767	-2.462218	1.910717E-005	-2.12326E-005	9
	15	163	9515.62	3166.074	-99.7972	1	3167.646	-1.805411	5.731479E-006	-0.0064173	8
	16	169	7546.875	3181.73	-71.03648	1	3182.523	-1.278994	2.414487E-005	-0.0049887	8
	17	174	5928.309	3190.762	-65.98832	1	3191.445	-1.184768	-2.367913E-005	0.0088551	8
	18	179	4733.456	3236.22	-86.1676	1	3237.367	-1.525197	-2.187609E-005	0.00512	8
	19	185	3796.875	3239.724	-44.53914	1	3240.031	-0.7876423	2.476331E-005	-0.0069079	8
	20	190	2987.132	3274.232	-41.42194	1	3274.494	-0.7248039	2.479257E-005	-0.0009433	9
	21	195	2390.625	3301.243	-33.30804	1	3301.411	-0.5780687	-2.191139E-005	0.0102139	8
	22	201	1884.191	3272.438	-7.012753	1	3272.446	-0.1227832	-2.375419E-005	0.0071282	8
	23	206	1516.544	3298.48	-24.48009	1	3298.571	-0.4252201	1.95745E-005	-0.0086076	8
	24	212	1193.986	3335.185	-12.26767	1	3335.208	-0.2107476	2.16667E-005	-0.0028796	8
	25	217	946.5144	3336.82	-40.36448	1	3337.064	-0.6930555	-2.129928E-005	0.0098148	8
	26	221	751.7689	3329.377	-33.56725	1	3329.546	-0.5776447	-9.157073E-006	-0.0016543	8
	27	225	597.4265	3361.823	-49.35232	1	3362.185	-0.8410546	1.005734E-005	-0.0007961	9
	28	228	477.4305	3376.264	-33.89404	1	3376.434	-0.5751685	-3.669263E-007	0.0006508	8
	29	232	376.6741	3385.979	-39.16081	1	3386.206	-0.6626293	-3.464758E-007	0.0006216	8
	30	234	298.2954	3394.477	-45.63718	1	3394.783	-0.770269	-3.615424E-007	0.0006499	8
	31	236	237.7717	3403.876	-54.57773	1	3404.314	-0.9186013	-3.618769E-007	0.0006486	8
	32	239	189.0121	3413.62	-65.44989	1	3414.248	-1.098407	-3.183572E-007	0.0006212	8
	33	241	150.2404	3423.689	-79.34955	1	3424.609	-1.327685	-3.060242E-007	0.0006154	8
	34	244	119.1737	3434.159	-97.2316	1	3435.535	-1.621786	-3.486331E-007	0.0006666	8
	35	246	95.0169	3445.095	-118.7888	1	3447.142	-1.974808	-3.534038E-007	0.0006354	8
	36	249	75.60484	3457.218	-145.469	1	3460.277	-2.409407	-2.827911E-007	0.0006299	8
	37	251	54.50582	3472.697	-195.6029	1	3478.201	-3.223832	-3.323044E-007	0.0006119	8
	38	254	45.95588	3484.963	-227.0495	1	3492.351	-3.727621	-2.632183E-007	0.0006239	8
	39	256	37.20238	3499.489	-277.3484	1	3510.462	-4.531446	-2.414152E-007	0.0006147	8
	40	258	30.04808	3516.888	-335.2593	1	3532.832	-5.445459	-2.861698E-007	0.0006222	8
	41	261	23.91582	3544.735	-414.0379	1	3568.833	-6.662167	-5.685398E-008	0.0006186	7
	42	263	18.60119	3576.706	-519.572	1	3614.247	-8.265286	-2.703322E-007	0.0005835	7
	43	265	15.02404	3595.739	-630.6071	1	3650.617	-9.94716	-1.078275E-007	0.000574	7
	44	268	12.01923	3626.31	-771.8549	1	3707.544	-12.01601	1.901977E-008	0.0005974	7
	45	270	9.450605	3653.568	-957.964	1	3777.07	-14.69219	-2.357909E-007	0.0005987	7
	46	273	7.512019	3695.221	-1192.428	1	3882.852	-17.88461	-2.073019E-007	0.0005951	7
	47	275	5.978954	3759.39	-1465.119	1	4034.797	-21.29198	-1.270951E-007	0.0006057	7
	48	278	4.734848	3829.528	-1802.243	1	4232.418	-25.2025	-8.211265E-008	0.0005696	7
	49	282	3.75601	3917.646	-2221.355	1	4503.595	-29.55379	-8.616205E-008	0.0005689	7
	50	285	3.004808	4015.715	-2709.838	1	4844.501	-34.0118	-5.829224E-008	0.0006109	7
	51	289	2.372217	4152.435	-3344.987	1	5332.134	-38.85313	-9.086589E-008	0.0005634	7
	52	293	1.878005	4312.922	-4116.329	1	5962.001	-43.66395	-8.435675E-008	0.0006153	7
	53	298	1.512097	4497.972	-4991.588	1	6719.204	-47.97766	-8.144361E-008	0.0005177	7
	54	303	1.201923	4738.807	-6123.637	1	7743.076	-52.26532	-8.561773E-008	0.0006075	7
	55	310	0.956633	5032.207	-7494.196	1	9026.964	-56.11941	-8.410743E-008	-3.08176E-005	7
