EXPLAIN
TAG	EISPOT
TITLE	LABEL	Potentiostatic EIS	Test Identifier
DATE	LABEL	9/21/2020	Date
TIME	LABEL	23:23:52	Time
NOTES	NOTES	1	Notes...
	
PSTAT	PSTAT	REF3000-16137	Potentiostat
VDC	POTEN	0.00000E+000	T	DC Voltage (V)
FREQINIT	QUANT	3.00000E+005	Initial Freq. (Hz)
FREQFINAL	QUANT	1.00000E+000	Final Freq. (Hz)
PTSPERDEC	QUANT	1.00000E+001	Points/decade
VAC	QUANT	5.00000E+001	AC Voltage (mV rms)
AREA	QUANT	1.00000E+000	Sample Area (cm^2)
SPEED	SELECTOR	2	Optimize for:
ZGUESS	QUANT	1.00000E+003	Estimated Z (ohms)
EOC	QUANT	0	Open Circuit (V)
SEQUENCER	TOGGLE	TRUE	Run as Sequence
PSTATMODEL	IQUANT	5	Pstat Model
PSTATSECTION	LABEL	REF3000-16137	Pstat Section
PSTATSERIALNO	LABEL	16137	Pstat Serial Number
CTRLMODE	IQUANT	1	Control Mode
IESTAB	IQUANT	0	I/E Stability
CASPEED	IQUANT	1	Control Amp Speed
CONVENTION	IQUANT	1	Current Convention
ICHRANGE	IQUANT	2	Ich Range
ICHRANGEMODE	TOGGLE	F	Ich Auto Range
ICHOFFSETENABLE	TOGGLE	T	Ich Offset Enable
ICHOFFSET	QUANT	0	Ich Offset (V)
ICHFILTER	IQUANT	3	Ich Filter
VCHRANGE	IQUANT	2	Vch Range
VCHRANGEMODE	TOGGLE	F	Vch Auto Range
VCHOFFSETENABLE	TOGGLE	T	Vch Offset Enable
VCHOFFSET	QUANT	0	Vch Offset (V)
VCHFILTER	IQUANT	3	Vch Filter
ACHRANGE	IQUANT	2	Ach Range
ACHOFFSETENABLE	TOGGLE	F	Ach Offset Enable
ACHOFFSET	QUANT	0	Ach Offset (V)
ACHFILTER	IQUANT	3	Ach Filter
IERANGELOWERLIMIT	IQUANT	2	I/E Range Lower Limit
IERANGEMODE	TOGGLE	F	I/E AutoRange
IERANGE	IQUANT	11	I/E Range
POSFEEDENABLE	TOGGLE	F	Positive Feedback IR Comp
POSFEEDRESISTANCE	QUANT	0	Positive Feedback Resistance (ohm)
ACHSELECT	IQUANT	0	Ach Select
CABLEID	IQUANT	13	Cable ID
DCCALDATE	LABEL	7/31/2020	DC Calibration Date
ACCALDATE	LABEL	7/31/2020	AC Calibration Date
THERMOSELECT	IQUANT	1	Thermo Select
FRAMEWORKVERSION	QUANT	6.33	Framework Version
INSTRUMENTVERSION	LABEL	3.50	Instrument Version
COMPLIANCEVOLTAGE	IQUANT	0	Compliance Voltage
ZCURVE	TABLE
	Pt	Time	Freq	Zreal	Zimag	Zsig	Zmod	Zphz	Idc	Vdc	IERange
	#	s	Hz	ohm	ohm	V	ohm	°	A	V	#
	0	10	300046.9	5.707301	2.256318	1	6.137121	21.57081	-9.038915E-005	0.0002302	10
	1	14	238359.4	5.683088	1.777613	1	5.954612	17.36916	1.144837E-005	-0.0001481	10
	2	17	189328.1	5.661652	1.404244	1	5.833198	13.92981	-0.0000964	0.0001769	10
	3	19	150421.9	5.653993	1.106557	1	5.761259	11.07353	-1.524463E-005	0.0003735	10
	4	22	119484.4	5.63945	0.8493555	1	5.703052	8.564923	3.79682E-005	0.0004991	10
	5	24	94921.88	5.641825	0.6672145	1	5.681141	6.744597	2.268642E-005	0.0004904	10
	6	27	75421.88	5.639163	0.4902936	1	5.660437	4.969051	-1.914411E-006	0.0005798	10
	7	30	59859.37	5.639482	0.3367013	1	5.649524	3.416749	4.696392E-006	0.0005389	10
	8	32	47578.12	5.643051	0.204868	1	5.646768	2.07918	6.517355E-006	0.0006142	10
	9	35	37828.12	5.648798	0.0855042	1	5.649445	0.8672032	-2.780642E-005	0.0006171	10
	10	37	30046.88	5.656592	-0.027216	1	5.656657	-0.2756692	-2.824154E-005	0.0006814	10
	11	40	23859.38	5.665057	-0.138456	1	5.666749	-1.40005	3.675351E-006	0.0006053	10
	12	42	18984.38	5.675156	-0.2537827	1	5.680828	-2.560458	1.773192E-006	0.0005985	10
	13	44	15046.87	5.687249	-0.3812647	1	5.700014	-3.835285	8.413278E-006	0.0006091	10
	14	47	11953.13	5.701489	-0.5252998	1	5.725637	-5.264016	-9.272034E-006	0.0006542	10
	15	49	9515.62	5.719028	-0.6907254	1	5.760589	-6.886641	9.005785E-007	0.0006405	10
	16	51	7546.875	5.742653	-0.8912885	1	5.811408	-8.822203	-1.795803E-005	0.0007049	10
	17	53	5928.309	5.771538	-1.144019	1	5.883828	-11.21168	-2.615737E-005	0.0006849	10
	18	56	4733.456	5.805173	-1.43113	1	5.978977	-13.84879	1.475571E-005	0.0006181	10
	19	58	3796.875	5.847037	-1.774321	1	6.110324	-16.88076	-3.186159E-005	0.0006566	10
	20	60	2987.132	5.905105	-2.231148	1	6.31255	-20.69826	-2.369037E-005	0.0007176	10
	21	63	2390.625	5.973229	-2.751645	1	6.576551	-24.73377	-1.092816E-005	0.0006552	10
	22	65	1884.191	6.064411	-3.441175	1	6.972716	-29.5722	2.023965E-005	0.0006414	10
	23	67	1516.544	6.170711	-4.212361	1	7.47139	-34.31893	-6.027019E-006	0.0006297	10
	24	70	1193.986	6.320049	-5.259498	1	8.222247	-39.76698	-2.359639E-005	0.0006805	10
	25	72	946.5144	6.504786	-6.515437	1	9.206691	-45.04687	-1.946893E-005	0.0006566	10
	26	74	751.7689	6.745177	-8.047025	1	10.5001	-50.02959	-1.406129E-005	0.0006505	10
	27	77	597.4265	7.04828	-9.92937	1	12.17664	-54.63127	-2.783478E-005	0.0006875	10
	28	79	477.4305	7.428477	-12.17181	1	14.25957	-58.60421	-3.538096E-006	0.0006697	10
	29	81	376.6741	7.936987	-15.07516	1	17.0369	-62.23344	-4.001597E-006	0.0006578	10
	30	84	298.2954	8.567573	-18.58344	1	20.46332	-65.24876	-3.401869E-006	0.0006613	10
	31	86	237.7717	9.32363	-22.75038	1	24.58678	-67.71505	-3.905895E-006	0.0006631	10
	32	89	189.0121	10.25971	-27.90091	1	29.72747	-69.81054	-3.758022E-006	0.0006738	10
	33	91	150.2404	11.39291	-34.20305	1	36.05062	-71.57729	-3.120804E-006	0.000662	10
	34	93	119.1737	12.76043	-41.96308	1	43.86033	-73.08616	2.916365E-007	0.0001081	9
	35	96	95.0169	14.40867	-51.33246	1	53.31633	-74.32094	3.717255E-007	6.808282E-005	9
	36	98	75.60484	16.44524	-62.94252	1	65.05541	-75.35744	3.077081E-007	6.754068E-005	9
	37	101	54.50582	20.25002	-84.37095	1	86.76704	-76.50363	3.273741E-007	5.227123E-005	9
	38	103	45.95588	22.79209	-98.3315	1	100.9384	-76.94996	5.47924E-007	6.672811E-005	9
	39	106	37.20238	26.66872	-118.8656	1	121.8205	-77.35451	5.11539E-007	6.446839E-005	9
	40	108	30.04808	31.61685	-144.017	1	147.4466	-77.61796	4.128831E-007	6.3339E-005	9
	41	110	23.91582	38.4806	-176.7163	1	180.8574	-77.71541	2.68729E-007	0.0000992	9
	42	113	18.60119	48.52641	-221.2973	1	226.5553	-77.63185	5.130065E-007	7.057196E-005	9
	43	115	15.02404	59.84501	-267.4998	1	274.1123	-77.38945	5.054545E-007	0.0001039	9
	44	117	12.01923	75.48334	-325.6845	1	334.3174	-76.95105	4.411605E-007	5.894412E-005	9
	45	120	9.450605	97.9899	-401.5713	1	413.354	-76.28689	5.783784E-007	7.512248E-005	9
	46	122	7.512019	125.9449	-487.2293	1	503.244	-75.50674	-5.96287E-008	0.0006668	8
	47	125	5.978954	163.6189	-590.7257	1	612.9666	-74.51836	-4.141337E-008	0.0006437	8
	48	128	4.734848	214.6766	-716.2999	1	747.7778	-73.31641	-4.989321E-008	0.000669	8
	49	131	3.75601	280.4901	-863.4336	1	907.8503	-72.00339	-2.027394E-007	0.0006324	8
	50	135	3.004808	362.6897	-1027.983	1	1090.089	-70.56631	-2.284812E-007	0.0006772	8
	51	138	2.372217	476.6479	-1229.708	1	1318.854	-68.81315	-1.500715E-007	0.0007194	8
	52	143	1.878005	618.0938	-1459.376	1	1584.872	-67.04575	-2.401678E-007	0.0006212	8
	53	147	1.512097	782.5501	-1695.882	1	1867.726	-65.22945	-2.060737E-007	0.0006534	8
	54	153	1.201923	1007.462	-1980.423	1	2221.948	-63.03707	-1.930938E-007	0.0006209	8
	55	159	0.956633	1283.793	-2286.077	1	2621.883	-60.68272	-3.145271E-007	2.491005E-006	8
