EXPLAIN
TAG	EISPOT
TITLE	LABEL	Potentiostatic EIS	Test Identifier
DATE	LABEL	9/22/2020	Date
TIME	LABEL	1:31:38	Time
NOTES	NOTES	1	Notes...
	
PSTAT	PSTAT	REF3000-16137	Potentiostat
VDC	POTEN	0.00000E+000	T	DC Voltage (V)
FREQINIT	QUANT	3.00000E+005	Initial Freq. (Hz)
FREQFINAL	QUANT	1.00000E+000	Final Freq. (Hz)
PTSPERDEC	QUANT	1.00000E+001	Points/decade
VAC	QUANT	5.00000E+001	AC Voltage (mV rms)
AREA	QUANT	1.00000E+000	Sample Area (cm^2)
SPEED	SELECTOR	2	Optimize for:
ZGUESS	QUANT	1.00000E+003	Estimated Z (ohms)
EOC	QUANT	0	Open Circuit (V)
SEQUENCER	TOGGLE	TRUE	Run as Sequence
PSTATMODEL	IQUANT	5	Pstat Model
PSTATSECTION	LABEL	REF3000-16137	Pstat Section
PSTATSERIALNO	LABEL	16137	Pstat Serial Number
CTRLMODE	IQUANT	1	Control Mode
IESTAB	IQUANT	0	I/E Stability
CASPEED	IQUANT	1	Control Amp Speed
CONVENTION	IQUANT	1	Current Convention
ICHRANGE	IQUANT	2	Ich Range
ICHRANGEMODE	TOGGLE	F	Ich Auto Range
ICHOFFSETENABLE	TOGGLE	T	Ich Offset Enable
ICHOFFSET	QUANT	0	Ich Offset (V)
ICHFILTER	IQUANT	3	Ich Filter
VCHRANGE	IQUANT	2	Vch Range
VCHRANGEMODE	TOGGLE	F	Vch Auto Range
VCHOFFSETENABLE	TOGGLE	T	Vch Offset Enable
VCHOFFSET	QUANT	0	Vch Offset (V)
VCHFILTER	IQUANT	3	Vch Filter
ACHRANGE	IQUANT	2	Ach Range
ACHOFFSETENABLE	TOGGLE	F	Ach Offset Enable
ACHOFFSET	QUANT	0	Ach Offset (V)
ACHFILTER	IQUANT	3	Ach Filter
IERANGELOWERLIMIT	IQUANT	2	I/E Range Lower Limit
IERANGEMODE	TOGGLE	F	I/E AutoRange
IERANGE	IQUANT	11	I/E Range
POSFEEDENABLE	TOGGLE	F	Positive Feedback IR Comp
POSFEEDRESISTANCE	QUANT	0	Positive Feedback Resistance (ohm)
ACHSELECT	IQUANT	0	Ach Select
CABLEID	IQUANT	13	Cable ID
DCCALDATE	LABEL	7/31/2020	DC Calibration Date
ACCALDATE	LABEL	7/31/2020	AC Calibration Date
THERMOSELECT	IQUANT	1	Thermo Select
FRAMEWORKVERSION	QUANT	6.33	Framework Version
INSTRUMENTVERSION	LABEL	3.50	Instrument Version
COMPLIANCEVOLTAGE	IQUANT	0	Compliance Voltage
ZCURVE	TABLE
	Pt	Time	Freq	Zreal	Zimag	Zsig	Zmod	Zphz	Idc	Vdc	IERange
	#	s	Hz	ohm	ohm	V	ohm	°	A	V	#
	0	7	300046.9	40.17894	2.453685	1	40.25379	3.494652	-5.524591E-005	0.0015451	9
	1	10	238359.4	40.29729	1.837187	1	40.33915	2.610354	-5.295961E-005	0.0009559	9
	2	13	189328.1	40.31567	1.393698	1	40.33975	1.979905	-9.674384E-006	0.0004318	9
	3	16	150421.9	40.28595	1.113012	1	40.30133	1.582553	1.264415E-005	0.0001552	9
	4	18	119484.4	40.45323	0.835563	1	40.46186	1.183278	1.23692E-006	-0.0008524	9
	5	21	94921.88	40.51567	0.7713965	1	40.52302	1.090749	1.697815E-005	-0.0006008	9
	6	23	75421.88	40.54877	0.5420491	1	40.5524	0.7658746	9.216547E-006	-0.0004858	9
	7	26	59859.37	40.58387	0.3629321	1	40.58549	0.5123692	1.391223E-005	-0.0005375	9
	8	28	47578.12	40.6183	0.2017154	1	40.6188	0.2845355	-1.109288E-005	0.0002322	9
	9	31	37828.12	40.66954	0.0458915	1	40.66956	0.0646526	-1.354546E-005	0.0003057	9
	10	33	30046.88	40.72239	-0.1056341	1	40.72253	-0.1486252	3.321181E-006	-0.0003113	9
	11	36	23859.38	40.77671	-0.2365061	1	40.7774	-0.3323134	3.180176E-006	0.0002996	9
	12	38	18984.38	40.83362	-0.3896396	1	40.83548	-0.5467071	-3.921823E-006	-0.0001243	9
	13	41	15046.87	40.91475	-0.5483241	1	40.91842	-0.7678106	-1.547252E-006	-0.0002032	9
	14	43	11953.13	40.94391	-0.7111431	1	40.95009	-0.995054	1.905178E-005	-0.0004596	9
	15	45	9515.62	41.00396	-0.9333109	1	41.01458	-1.303912	-1.238544E-005	0.0001922	9
	16	48	7546.875	41.07394	-1.179351	1	41.09087	-1.644675	-1.524903E-005	0.0004705	9
	17	50	5928.309	41.14207	-1.503127	1	41.16953	-2.092373	1.716537E-005	-0.0005012	9
	18	52	4733.456	41.23215	-1.878135	1	41.27491	-2.608035	-1.538433E-005	0.000498	9
	19	54	3796.875	41.30999	-2.312598	1	41.37468	-3.204163	3.27423E-006	0.0003213	9
	20	57	2987.132	41.41964	-2.887509	1	41.52017	-3.987838	-1.19475E-005	0.0006008	9
	21	59	2390.625	41.54385	-3.566371	1	41.69664	-4.906581	-7.753855E-006	0.0005846	9
	22	61	1884.191	41.68626	-4.450779	1	41.92318	-6.094297	-8.88392E-006	0.0005744	9
	23	64	1516.544	41.85044	-5.453125	1	42.20421	-7.423831	8.522946E-006	-0.0004038	9
	24	66	1193.986	42.03687	-6.812517	1	42.58532	-9.205351	-8.510252E-006	0.0005778	9
	25	69	946.5144	42.29184	-8.454447	1	43.12861	-11.30482	1.770236E-005	-0.0002056	9
	26	71	751.7689	42.57919	-10.43734	1	43.83977	-13.77321	-1.179757E-005	0.0005937	9
	27	73	597.4265	42.94786	-12.93543	1	44.85358	-16.76174	2.717405E-006	-0.0002774	9
	28	75	477.4305	43.3757	-15.9154	1	46.20337	-20.14909	1.3372E-006	6.694342E-005	9
	29	78	376.6741	43.94629	-19.80112	1	48.20125	-24.25516	1.206744E-006	9.362688E-005	9
	30	80	298.2954	44.65642	-24.53802	1	50.954	-28.78812	1.328174E-006	7.425225E-005	9
	31	82	237.7717	45.51946	-30.20987	1	54.63202	-33.57101	1.266905E-006	7.37357E-005	9
	32	85	189.0121	46.61169	-37.26785	1	59.67867	-38.64369	1.322508E-006	6.700755E-005	9
	33	87	150.2404	47.98366	-45.95134	1	66.43762	-43.76058	1.298486E-006	6.035707E-005	9
	34	90	119.1737	49.73106	-56.74472	1	75.45291	-48.76868	1.291067E-006	5.992744E-005	9
	35	92	95.0169	51.89375	-69.69768	1	86.89492	-53.33029	1.286437E-006	6.230715E-005	9
	36	95	75.60484	54.65417	-85.71173	1	101.6542	-57.47634	1.279819E-006	6.31029E-005	9
	37	97	54.50582	59.89659	-115.0414	1	129.7001	-62.49615	1.302882E-006	5.533744E-005	9
	38	100	45.95588	63.39947	-134.0252	1	148.2641	-64.68391	1.237088E-006	6.356398E-005	9
	39	102	37.20238	68.56918	-161.7653	1	175.6979	-67.02885	1.244489E-006	6.30818E-005	9
	40	104	30.04808	74.9146	-195.5033	1	209.3651	-69.03374	1.248689E-006	6.331925E-005	9
	41	107	23.91582	83.07643	-239.2321	1	253.2463	-70.84978	1.330986E-006	6.11501E-005	9
	42	109	18.60119	94.03193	-298.6803	1	313.1324	-72.52471	1.389729E-006	6.490797E-005	9
	43	111	15.02404	105.2713	-360.8564	1	375.8981	-73.73664	1.339055E-006	7.683502E-005	9
	44	114	12.01923	118.8602	-437.9142	1	453.7583	-74.81444	2.914696E-007	0.0006427	8
	45	116	9.450605	137.3116	-542.3253	1	559.4383	-75.79184	3.219073E-007	0.0006643	8
	46	119	7.512019	159.201	-665.9553	1	684.7199	-76.55539	3.421363E-007	0.000657	8
	47	121	5.978954	186.384	-816.5427	1	837.5446	-77.14196	3.357444E-007	0.0006433	8
	48	125	4.734848	221.3246	-1007.048	1	1031.082	-77.60485	4.333873E-007	0.0006701	8
	49	128	3.75601	266.5455	-1239.512	1	1267.847	-77.86389	3.296299E-007	0.0006368	8
	50	131	3.004808	322.5265	-1513.215	1	1547.205	-77.96803	4.085095E-007	0.0006137	8
	51	135	2.372217	399.545	-1868.043	1	1910.293	-77.92723	3.932351E-007	0.0005955	8
	52	139	1.878005	503.8203	-2299.306	1	2353.857	-77.64077	3.855542E-007	0.0006511	8
	53	144	1.512097	629.1202	-2781.376	1	2851.639	-77.25472	3.883432E-007	0.0005412	8
	54	149	1.201923	798.3381	-3402.076	1	3494.491	-76.7938	3.927615E-007	0.0006624	8
	55	155	0.956633	1017.712	-4142.602	1	4265.781	-76.19751	3.709022E-007	-2.763884E-006	8
