EXPLAIN
TAG	EISPOT
TITLE	LABEL	Potentiostatic EIS	Test Identifier
DATE	LABEL	9/22/2020	Date
TIME	LABEL	4:27:46	Time
NOTES	NOTES	1	Notes...
	
PSTAT	PSTAT	REF3000-16137	Potentiostat
VDC	POTEN	0.00000E+000	T	DC Voltage (V)
FREQINIT	QUANT	3.00000E+005	Initial Freq. (Hz)
FREQFINAL	QUANT	1.00000E+000	Final Freq. (Hz)
PTSPERDEC	QUANT	1.00000E+001	Points/decade
VAC	QUANT	5.00000E+001	AC Voltage (mV rms)
AREA	QUANT	1.00000E+000	Sample Area (cm^2)
SPEED	SELECTOR	2	Optimize for:
ZGUESS	QUANT	1.00000E+003	Estimated Z (ohms)
EOC	QUANT	0	Open Circuit (V)
SEQUENCER	TOGGLE	TRUE	Run as Sequence
PSTATMODEL	IQUANT	5	Pstat Model
PSTATSECTION	LABEL	REF3000-16137	Pstat Section
PSTATSERIALNO	LABEL	16137	Pstat Serial Number
CTRLMODE	IQUANT	1	Control Mode
IESTAB	IQUANT	0	I/E Stability
CASPEED	IQUANT	1	Control Amp Speed
CONVENTION	IQUANT	1	Current Convention
ICHRANGE	IQUANT	2	Ich Range
ICHRANGEMODE	TOGGLE	F	Ich Auto Range
ICHOFFSETENABLE	TOGGLE	T	Ich Offset Enable
ICHOFFSET	QUANT	0	Ich Offset (V)
ICHFILTER	IQUANT	3	Ich Filter
VCHRANGE	IQUANT	2	Vch Range
VCHRANGEMODE	TOGGLE	F	Vch Auto Range
VCHOFFSETENABLE	TOGGLE	T	Vch Offset Enable
VCHOFFSET	QUANT	0	Vch Offset (V)
VCHFILTER	IQUANT	3	Vch Filter
ACHRANGE	IQUANT	2	Ach Range
ACHOFFSETENABLE	TOGGLE	F	Ach Offset Enable
ACHOFFSET	QUANT	0	Ach Offset (V)
ACHFILTER	IQUANT	3	Ach Filter
IERANGELOWERLIMIT	IQUANT	2	I/E Range Lower Limit
IERANGEMODE	TOGGLE	F	I/E AutoRange
IERANGE	IQUANT	11	I/E Range
POSFEEDENABLE	TOGGLE	F	Positive Feedback IR Comp
POSFEEDRESISTANCE	QUANT	0	Positive Feedback Resistance (ohm)
ACHSELECT	IQUANT	0	Ach Select
CABLEID	IQUANT	13	Cable ID
DCCALDATE	LABEL	7/31/2020	DC Calibration Date
ACCALDATE	LABEL	7/31/2020	AC Calibration Date
THERMOSELECT	IQUANT	1	Thermo Select
FRAMEWORKVERSION	QUANT	6.33	Framework Version
INSTRUMENTVERSION	LABEL	3.50	Instrument Version
COMPLIANCEVOLTAGE	IQUANT	0	Compliance Voltage
ZCURVE	TABLE
	Pt	Time	Freq	Zreal	Zimag	Zsig	Zmod	Zphz	Idc	Vdc	IERange
	#	s	Hz	ohm	ohm	V	ohm	°	A	V	#
	0	18	300046.9	188.3604	-4281.12	1	4285.262	-87.48073	3.890404E-006	-0.0021637	9
	1	32	238359.4	318.3741	-5345.981	1	5355.453	-86.59184	-2.163425E-005	0.0016114	9
	2	53	189328.1	328.1639	-6517.951	1	6526.207	-87.11772	8.761261E-005	-0.002487	9
	3	63	150421.9	600.2096	-8090.752	1	8112.984	-85.7573	2.310396E-005	-0.0003617	9
	4	74	119484.4	915.7515	-10215.47	1	10256.43	-84.87749	-9.152215E-005	0.0022565	9
	5	88	94921.88	1786.417	-12731.47	1	12856.19	-82.01269	-1.216898E-005	0.0103425	8
	6	96	75421.88	2111.558	-15822.59	1	15962.86	-82.39867	2.608758E-005	-0.0051623	8
	7	105	59859.37	2972.324	-19540.01	1	19764.78	-81.35077	-9.493325E-006	-0.0021654	8
	8	113	47578.12	6854.888	-24901.13	1	25827.43	-74.60861	-5.268563E-006	0.0262155	7
	9	120	37828.12	8508.063	-30284.6	1	31457.02	-74.30798	-6.645771E-006	0.0117934	7
	10	127	30046.88	10964.9	-36956.94	1	38549.25	-73.4747	5.145849E-006	-0.0261404	7
	11	135	23859.38	15062.81	-45577.86	1	48002.39	-71.71204	-3.380786E-006	0.0249196	7
	12	140	18984.38	18654.38	-55611.77	1	58657.09	-71.45652	-1.78362E-006	0.0216668	7
	13	145	15046.87	24603.15	-66867.63	1	71250.23	-69.79951	-6.634275E-006	0.0118959	7
	14	151	11953.13	30197.96	-80380.49	1	85865.83	-69.40942	-2.054857E-005	0.0028518	8
	15	158	9515.62	45848.61	-103508.1	1	113207.9	-66.10919	2.643937E-005	-0.0089838	8
	16	166	7546.875	60920.66	-110929	1	126556.6	-61.22503	-2.682375E-005	0.0097002	8
	17	173	5928.309	118779	-97002.3	1	153355.5	-39.2372	2.599767E-005	-0.0051396	8
	18	181	4733.456	161429.2	-261193.6	1	307052.9	-58.2821	-2.694245E-005	0.0097362	8
	19	189	3796.875	134990.7	-134195	1	190343.9	-44.83065	-1.105097E-006	-0.0051625	8
	20	197	2987.132	192319.8	-134674.1	1	234785	-35.00208	3.909509E-007	-0.02486	6
	21	203	2390.625	218328.5	-126197.8	1	252176.9	-30.02869	-6.360124E-007	0.0096461	6
	22	208	1884.191	244150	-118606.3	1	271434.5	-25.91014	3.920559E-007	-0.024979	6
	23	213	1516.544	268430.1	-107029.4	1	288981	-21.73833	-7.315752E-007	0.0226227	6
	24	218	1193.986	253219.6	-81819.55	1	266110.1	-17.90653	2.820042E-005	-0.0004645	9
	25	226	946.5144	-42797.68	-192873.5	1	197564.7	-102.5109	1.680282E-005	-0.0093503	8
	26	234	751.7689	441982.2	2745.783	1	441990.7	0.3559414	5.365913E-006	-0.026752	7
	27	239	597.4265	283235.8	-85756.91	1	295933.7	-16.84504	-6.793601E-006	0.0124032	7
	28	244	477.4305	323058	-51695.42	1	327168	-9.091339	-8.854611E-008	0.0005595	7
	29	250	376.6741	330485.5	-38670.71	1	332740.3	-6.673935	-1.045288E-008	0.0006931	6
	30	253	298.2954	334000.5	-30473.33	1	335387.8	-5.213084	-1.010491E-008	0.0006984	6
	31	255	237.7717	337005.2	-25502.19	1	337968.7	-4.327495	-1.027781E-008	0.0006041	6
	32	258	189.0121	339167.3	-20667.77	1	339796.4	-3.487111	-9.997141E-009	0.0006038	6
	33	260	150.2404	341278.9	-17234.61	1	341713.8	-2.890986	-1.072129E-008	0.0006821	6
	34	263	119.1737	343116.2	-9347.511	1	343243.5	-1.560522	-1.032784E-008	0.0006935	6
	35	266	95.0169	345344.1	-11930.36	1	345550.1	-1.97857	-1.005093E-008	0.0006392	6
	36	268	75.60484	346844.6	-8914.445	1	346959.2	-1.472266	-9.90359E-009	0.0006359	6
	37	271	54.50582	346109.3	-7852.998	1	346198.4	-1.299782	-1.069657E-008	0.0006566	6
	38	273	45.95588	350249.4	-5680.318	1	350295.5	-0.929137	-1.00471E-008	0.0006198	6
	39	276	37.20238	352499.1	-5191.64	1	352537.3	-0.8437965	-1.097554E-008	0.0006891	6
	40	278	30.04808	353466.3	-4777.335	1	353498.6	-0.7743438	-1.022862E-008	0.0006756	6
	41	281	23.91582	354727.7	-3922.49	1	354749.4	-0.6335366	-9.330427E-009	0.0006086	6
	42	283	18.60119	355678.8	-2491.889	1	355687.6	-0.4014081	-1.090235E-008	0.0006868	6
	43	286	15.02404	358067.3	-3149.318	1	358081.1	-0.503922	-1.056678E-008	0.0006968	6
	44	288	12.01923	359533.6	-3134.079	1	359547.3	-0.4994385	-1.047445E-008	0.0005968	6
	45	291	9.450605	361023.8	-3357.159	1	361039.3	-0.532778	-1.036507E-008	0.0006909	6
	46	293	7.512019	363004.5	-3402.092	1	363020.4	-0.5369625	-9.349513E-009	0.0006107	6
	47	296	5.978954	365139.5	-3758.025	1	365158.8	-0.5896688	-9.846573E-009	0.0006479	6
	48	301	4.734848	367582.4	-4358.814	1	367608.3	-0.6793849	-9.107447E-009	0.0006114	6
	49	304	3.75601	371279.2	-4451.254	1	371305.8	-0.6868843	-6.179945E-010	0.0006789	5
	50	309	3.004808	375158.2	-5269.588	1	375195.2	-0.8047414	-1.612845E-009	0.0006878	5
	51	316	2.372217	378886.3	-6212.638	1	378937.2	-0.9394008	-6.32893E-010	0.0006518	5
	52	320	1.878005	381933	-7692.862	1	382010.5	-1.153891	-9.541622E-010	0.0006124	5
	53	325	1.512097	385360.9	-9463.626	1	385477.1	-1.406777	-1.941827E-009	0.0007386	5
	54	330	1.201923	389619.9	-11693.17	1	389795.3	-1.71903	-1.514346E-010	0.0006243	5
	55	336	0.956633	394858.8	-14068.39	1	395109.3	-2.040524	-6.495254E-009	6.262626E-007	5
