EXPLAIN
TAG	EISPOT
TITLE	LABEL	Potentiostatic EIS	Test Identifier
DATE	LABEL	9/22/2020	Date
TIME	LABEL	0:33:15	Time
NOTES	NOTES	1	Notes...
	
PSTAT	PSTAT	REF3000-16137	Potentiostat
VDC	POTEN	0.00000E+000	T	DC Voltage (V)
FREQINIT	QUANT	3.00000E+005	Initial Freq. (Hz)
FREQFINAL	QUANT	1.00000E+000	Final Freq. (Hz)
PTSPERDEC	QUANT	1.00000E+001	Points/decade
VAC	QUANT	5.00000E+001	AC Voltage (mV rms)
AREA	QUANT	1.00000E+000	Sample Area (cm^2)
SPEED	SELECTOR	2	Optimize for:
ZGUESS	QUANT	1.00000E+003	Estimated Z (ohms)
EOC	QUANT	0	Open Circuit (V)
SEQUENCER	TOGGLE	TRUE	Run as Sequence
PSTATMODEL	IQUANT	5	Pstat Model
PSTATSECTION	LABEL	REF3000-16137	Pstat Section
PSTATSERIALNO	LABEL	16137	Pstat Serial Number
CTRLMODE	IQUANT	1	Control Mode
IESTAB	IQUANT	0	I/E Stability
CASPEED	IQUANT	1	Control Amp Speed
CONVENTION	IQUANT	1	Current Convention
ICHRANGE	IQUANT	2	Ich Range
ICHRANGEMODE	TOGGLE	F	Ich Auto Range
ICHOFFSETENABLE	TOGGLE	T	Ich Offset Enable
ICHOFFSET	QUANT	0	Ich Offset (V)
ICHFILTER	IQUANT	3	Ich Filter
VCHRANGE	IQUANT	2	Vch Range
VCHRANGEMODE	TOGGLE	F	Vch Auto Range
VCHOFFSETENABLE	TOGGLE	T	Vch Offset Enable
VCHOFFSET	QUANT	0	Vch Offset (V)
VCHFILTER	IQUANT	3	Vch Filter
ACHRANGE	IQUANT	2	Ach Range
ACHOFFSETENABLE	TOGGLE	F	Ach Offset Enable
ACHOFFSET	QUANT	0	Ach Offset (V)
ACHFILTER	IQUANT	3	Ach Filter
IERANGELOWERLIMIT	IQUANT	2	I/E Range Lower Limit
IERANGEMODE	TOGGLE	F	I/E AutoRange
IERANGE	IQUANT	11	I/E Range
POSFEEDENABLE	TOGGLE	F	Positive Feedback IR Comp
POSFEEDRESISTANCE	QUANT	0	Positive Feedback Resistance (ohm)
ACHSELECT	IQUANT	0	Ach Select
CABLEID	IQUANT	13	Cable ID
DCCALDATE	LABEL	7/31/2020	DC Calibration Date
ACCALDATE	LABEL	7/31/2020	AC Calibration Date
THERMOSELECT	IQUANT	1	Thermo Select
FRAMEWORKVERSION	QUANT	6.33	Framework Version
INSTRUMENTVERSION	LABEL	3.50	Instrument Version
COMPLIANCEVOLTAGE	IQUANT	0	Compliance Voltage
ZCURVE	TABLE
	Pt	Time	Freq	Zreal	Zimag	Zsig	Zmod	Zphz	Idc	Vdc	IERange
	#	s	Hz	ohm	ohm	V	ohm	°	A	V	#
	0	8	300046.9	13.15491	2.141605	1	13.3281	9.246569	-2.676601E-005	0.0002027	10
	1	11	238359.4	13.14964	1.687744	1	13.25751	7.313871	2.67666E-005	0.0002239	10
	2	14	189328.1	13.15131	1.33203	1	13.2186	5.783478	-8.185515E-005	0.0005494	10
	3	17	150421.9	13.16009	1.045844	1	13.20158	4.543797	-9.621995E-006	0.0006234	10
	4	19	119484.4	13.1481	0.800431	1	13.17244	3.483757	-1.447064E-005	0.0006075	10
	5	22	94921.88	13.1532	0.6217535	1	13.16789	2.706364	-2.358159E-005	0.0006712	10
	6	24	75421.88	13.15962	0.4410436	1	13.16701	1.919546	2.198344E-005	0.0005867	10
	7	27	59859.37	13.17112	0.2889015	1	13.17429	1.25655	1.157218E-005	0.0005702	10
	8	29	47578.12	13.18617	0.159818	1	13.18714	0.6943977	-2.464288E-005	0.0006426	10
	9	32	37828.12	13.19969	0.0401204	1	13.19975	0.1741497	-1.252001E-005	0.0006227	10
	10	35	30046.88	13.21372	-0.0749355	1	13.21393	-0.324923	-3.266066E-006	0.0006139	10
	11	37	23859.38	13.23174	-0.1915505	1	13.23313	-0.8293895	-1.892377E-005	0.0007158	10
	12	39	18984.38	13.24816	-0.3157666	1	13.25192	-1.365372	1.82943E-005	0.0005988	10
	13	42	15046.87	13.26645	-0.4539936	1	13.27422	-1.959964	2.034022E-005	0.0006096	10
	14	44	11953.13	13.2932	-0.6140427	1	13.30737	-2.644741	6.970999E-006	0.000689	10
	15	46	9515.62	13.32013	-0.7965083	1	13.34392	-3.42206	-5.092864E-006	0.0006098	10
	16	49	7546.875	13.35253	-1.018881	1	13.39134	-4.36357	-2.641612E-005	0.0007059	10
	17	51	5928.309	13.39175	-1.301557	1	13.45485	-5.551199	-2.466003E-005	0.0007203	10
	18	53	4733.456	13.43254	-1.624455	1	13.53041	-6.895544	2.287829E-005	0.0006331	10
	19	56	3796.875	13.4829	-2.007304	1	13.6315	-8.467871	-2.468426E-005	0.0007231	10
	20	58	2987.132	13.55314	-2.523592	1	13.78609	-10.54767	-1.181888E-005	0.0006452	10
	21	60	2390.625	13.63032	-3.113836	1	13.98147	-12.86835	-5.403766E-006	0.0006172	10
	22	63	1884.191	13.73219	-3.890718	1	14.27273	-15.81893	-2.659735E-005	0.0006834	10
	23	65	1516.544	13.84903	-4.766442	1	14.64631	-18.99201	1.392589E-005	0.0006641	10
	24	67	1193.986	14.00847	-5.953677	1	15.22115	-23.02576	1.824121E-005	0.0006581	10
	25	70	946.5144	14.20359	-7.384902	1	16.00871	-27.47136	-2.027911E-005	0.0006464	10
	26	72	751.7689	14.45233	-9.135781	1	17.09773	-32.29829	-1.673903E-005	0.0006907	10
	27	74	597.4265	14.75708	-11.29008	1	18.58056	-37.41822	-1.573492E-005	0.0006912	10
	28	77	477.4305	15.1452	-13.87079	1	20.53719	-42.48512	-2.998256E-006	0.000662	10
	29	79	376.6741	15.66232	-17.23763	1	23.29043	-47.74133	-3.713516E-006	0.0006534	10
	30	81	298.2954	16.31405	-21.33313	1	26.85611	-52.59383	-3.718725E-006	0.0006656	10
	31	84	237.7717	17.12568	-26.22722	1	31.32341	-56.85653	-3.006335E-006	0.0006648	10
	32	86	189.0121	18.16666	-32.28585	1	37.04597	-60.63434	-3.176047E-006	0.000661	10
	33	89	150.2404	19.45705	-39.64981	1	44.16655	-63.86178	1.002031E-006	6.205673E-005	9
	34	91	119.1737	21.11475	-48.78365	1	53.1571	-66.59586	1.004567E-006	6.083563E-005	9
	35	93	95.0169	23.11143	-59.68266	1	64.00124	-68.83167	9.78762E-007	6.277033E-005	9
	36	96	75.60484	25.56531	-73.10023	1	77.44177	-70.72376	9.846035E-007	6.05174E-005	9
	37	99	54.50582	29.99407	-97.6864	1	102.1875	-72.93118	9.92068E-007	5.551364E-005	9
	38	101	45.95588	32.82392	-113.6521	1	118.2971	-73.89072	9.953092E-007	6.454062E-005	9
	39	103	37.20238	36.95098	-137.1259	1	142.0173	-74.91887	1.085129E-006	5.419515E-005	9
	40	106	30.04808	41.98197	-165.8971	1	171.1267	-75.79885	1.110158E-006	5.649652E-005	9
	41	108	23.91582	48.60713	-203.4922	1	209.2169	-76.56578	8.794611E-007	5.974361E-005	9
	42	111	18.60119	57.83094	-254.8715	1	261.3502	-77.21591	1.166079E-006	5.385307E-005	9
	43	113	15.02404	67.84528	-308.7658	1	316.1318	-77.60731	1.105716E-006	7.230348E-005	9
	44	115	12.01923	81.19262	-377.3497	1	385.9858	-77.85706	9.332819E-007	5.380103E-005	9
	45	118	9.450605	99.3697	-466.328	1	476.7978	-77.97077	3.804369E-007	0.0006512	8
	46	120	7.512019	122.6569	-572.5219	1	585.5135	-77.90777	4.381965E-007	0.0006612	8
	47	123	5.978954	153.3029	-701.2711	1	717.8321	-77.66872	4.032778E-007	0.0006394	8
	48	126	4.734848	195.1015	-862.0626	1	883.8645	-77.24768	4.052249E-007	0.0006551	8
	49	129	3.75601	249.4662	-1055.262	1	1084.348	-76.69933	4.257222E-007	0.0006458	8
	50	133	3.004808	318.0706	-1278.315	1	1317.292	-76.0274	3.727614E-007	0.0006728	8
	51	136	2.372217	414.4738	-1560.332	1	1614.443	-75.12395	4.019456E-007	0.0006502	8
	52	141	1.878005	543.424	-1897.994	1	1974.257	-74.0228	4.424367E-007	0.0006222	8
	53	145	1.512097	691.897	-2265.206	1	2368.519	-73.01495	4.252126E-007	0.000729	8
	54	151	1.201923	900.3398	-2722.311	1	2867.331	-71.69959	4.486598E-007	0.0006379	8
	55	157	0.956633	1159.879	-3250.89	1	3451.609	-70.3642	3.493656E-007	-2.969649E-005	8
