EXPLAIN
TAG	EISPOT
TITLE	LABEL	Potentiostatic EIS	Test Identifier
DATE	LABEL	9/22/2020	Date
TIME	LABEL	0:38:48	Time
NOTES	NOTES	1	Notes...
	
PSTAT	PSTAT	REF3000-16137	Potentiostat
VDC	POTEN	0.00000E+000	T	DC Voltage (V)
FREQINIT	QUANT	3.00000E+005	Initial Freq. (Hz)
FREQFINAL	QUANT	1.00000E+000	Final Freq. (Hz)
PTSPERDEC	QUANT	1.00000E+001	Points/decade
VAC	QUANT	5.00000E+001	AC Voltage (mV rms)
AREA	QUANT	1.00000E+000	Sample Area (cm^2)
SPEED	SELECTOR	2	Optimize for:
ZGUESS	QUANT	1.00000E+003	Estimated Z (ohms)
EOC	QUANT	0	Open Circuit (V)
SEQUENCER	TOGGLE	TRUE	Run as Sequence
PSTATMODEL	IQUANT	5	Pstat Model
PSTATSECTION	LABEL	REF3000-16137	Pstat Section
PSTATSERIALNO	LABEL	16137	Pstat Serial Number
CTRLMODE	IQUANT	1	Control Mode
IESTAB	IQUANT	0	I/E Stability
CASPEED	IQUANT	1	Control Amp Speed
CONVENTION	IQUANT	1	Current Convention
ICHRANGE	IQUANT	2	Ich Range
ICHRANGEMODE	TOGGLE	F	Ich Auto Range
ICHOFFSETENABLE	TOGGLE	T	Ich Offset Enable
ICHOFFSET	QUANT	0	Ich Offset (V)
ICHFILTER	IQUANT	3	Ich Filter
VCHRANGE	IQUANT	2	Vch Range
VCHRANGEMODE	TOGGLE	F	Vch Auto Range
VCHOFFSETENABLE	TOGGLE	T	Vch Offset Enable
VCHOFFSET	QUANT	0	Vch Offset (V)
VCHFILTER	IQUANT	3	Vch Filter
ACHRANGE	IQUANT	2	Ach Range
ACHOFFSETENABLE	TOGGLE	F	Ach Offset Enable
ACHOFFSET	QUANT	0	Ach Offset (V)
ACHFILTER	IQUANT	3	Ach Filter
IERANGELOWERLIMIT	IQUANT	2	I/E Range Lower Limit
IERANGEMODE	TOGGLE	F	I/E AutoRange
IERANGE	IQUANT	11	I/E Range
POSFEEDENABLE	TOGGLE	F	Positive Feedback IR Comp
POSFEEDRESISTANCE	QUANT	0	Positive Feedback Resistance (ohm)
ACHSELECT	IQUANT	0	Ach Select
CABLEID	IQUANT	13	Cable ID
DCCALDATE	LABEL	7/31/2020	DC Calibration Date
ACCALDATE	LABEL	7/31/2020	AC Calibration Date
THERMOSELECT	IQUANT	1	Thermo Select
FRAMEWORKVERSION	QUANT	6.33	Framework Version
INSTRUMENTVERSION	LABEL	3.50	Instrument Version
COMPLIANCEVOLTAGE	IQUANT	0	Compliance Voltage
ZCURVE	TABLE
	Pt	Time	Freq	Zreal	Zimag	Zsig	Zmod	Zphz	Idc	Vdc	IERange
	#	s	Hz	ohm	ohm	V	ohm	°	A	V	#
	0	8	300046.9	14.37242	2.128983	1	14.52925	8.425938	-0.0000996	0.0002742	10
	1	11	238359.4	14.36539	1.673175	1	14.4625	6.643456	-0.0000972	0.000289	10
	2	14	189328.1	14.3533	1.314629	1	14.41338	5.23316	1.761836E-005	0.000404	10
	3	16	150421.9	14.36862	1.031598	1	14.4056	4.106518	-0.0001015	0.000555	10
	4	19	119484.4	14.36297	0.7907627	1	14.38472	3.151276	-6.405538E-006	0.0004534	10
	5	21	94921.88	14.36418	0.6108081	1	14.37716	2.434922	-1.092479E-005	0.0005995	10
	6	24	75421.88	14.37484	0.4327755	1	14.38135	1.724452	-2.092637E-005	0.0006825	10
	7	27	59859.37	14.3888	0.2821914	1	14.39157	1.123534	-2.302851E-005	0.0007026	10
	8	29	47578.12	14.40218	0.1533015	1	14.40299	0.609852	1.850716E-005	0.0005983	10
	9	32	37828.12	14.41945	0.0358345	1	14.41949	0.1423884	-1.938546E-005	0.0007104	10
	10	34	30046.88	14.43365	-0.0805259	1	14.43387	-0.3196519	1.818141E-005	0.0006157	10
	11	37	23859.38	14.4524	-0.1984413	1	14.45376	-0.7866606	2.374307E-005	0.0006534	10
	12	39	18984.38	14.47012	-0.3210635	1	14.47368	-1.271072	7.214746E-006	0.0005947	10
	13	41	15046.87	14.49257	-0.4619734	1	14.49993	-1.825775	2.354544E-005	0.0006418	10
	14	44	11953.13	14.51686	-0.6231147	1	14.53023	-2.457827	-1.970574E-005	0.0006452	10
	15	46	9515.62	14.54577	-0.8068959	1	14.56814	-3.175108	-1.822928E-005	0.0006681	10
	16	48	7546.875	14.5798	-1.028658	1	14.61604	-4.035739	8.436514E-006	0.0006025	10
	17	51	5928.309	14.61999	-1.317954	1	14.67928	-5.151142	1.101442E-005	0.0006011	10
	18	53	4733.456	14.66521	-1.644416	1	14.75712	-6.397876	1.523988E-005	0.0006547	10
	19	55	3796.875	14.72046	-2.030791	1	14.85988	-7.854772	-2.563026E-005	0.0007039	10
	20	58	2987.132	14.78701	-2.549977	1	15.00527	-9.78426	-1.707314E-005	0.0006571	10
	21	60	2390.625	14.87001	-3.150433	1	15.20008	-11.96208	-2.740589E-005	0.0006556	10
	22	62	1884.191	14.96852	-3.932828	1	15.47655	-14.72116	1.166515E-005	0.0005991	10
	23	64	1516.544	15.08974	-4.817515	1	15.8401	-17.70608	-2.794879E-005	0.0006815	10
	24	67	1193.986	15.25126	-6.018794	1	16.39594	-21.53629	-2.388384E-005	0.0007166	10
	25	69	946.5144	15.44786	-7.471423	1	17.1598	-25.81092	2.287209E-005	0.0006285	10
	26	72	751.7689	15.70244	-9.234177	1	18.21638	-30.45863	-3.691471E-006	0.0006206	10
	27	74	597.4265	16.01215	-11.41485	1	19.66438	-35.48455	-1.812065E-005	0.0006595	10
	28	76	477.4305	16.39571	-14.0305	1	21.57948	-40.555	-5.014633E-006	0.0007041	10
	29	79	376.6741	16.9129	-17.43819	1	24.29273	-45.87609	-3.143251E-006	0.0006598	10
	30	81	298.2954	17.56859	-21.58894	1	27.83411	-50.86208	-2.078823E-006	0.0006607	10
	31	83	237.7717	18.37798	-26.54445	1	32.28557	-55.30331	-2.502018E-006	0.0006616	10
	32	86	189.0121	19.42031	-32.68504	1	38.01921	-59.28269	-2.897161E-006	0.0006561	10
	33	88	150.2404	20.7157	-40.15955	1	45.18772	-62.71374	1.016289E-006	6.391848E-005	9
	34	91	119.1737	22.39127	-49.4321	1	54.26695	-65.63089	1.014827E-006	7.25738E-005	9
	35	93	95.0169	24.41364	-60.4981	1	65.23837	-68.02376	9.549323E-007	6.270347E-005	9
	36	95	75.60484	26.91058	-74.11122	1	78.84575	-70.0435	9.734363E-007	6.250173E-005	9
	37	98	54.50582	31.42574	-99.0394	1	103.9057	-72.39549	9.566224E-007	6.287672E-005	9
	38	100	45.95588	34.32013	-115.2153	1	120.2183	-73.41235	1.087802E-006	6.01892E-005	9
	39	103	37.20238	38.50142	-138.9766	1	144.2111	-74.51539	1.051633E-006	6.118708E-005	9
	40	105	30.04808	43.58627	-168.0686	1	173.6284	-75.46141	1.101825E-006	6.304569E-005	9
	41	108	23.91582	50.2701	-206.1023	1	212.1443	-76.29271	1.110536E-006	5.497857E-005	9
	42	110	18.60119	59.52867	-258.0942	1	264.8703	-77.01203	1.048119E-006	6.982942E-005	9
	43	112	15.02404	69.43301	-312.6944	1	320.3104	-77.48073	1.047882E-006	6.406146E-005	9
	44	115	12.01923	82.68645	-382.1883	1	391.0306	-77.79221	1.263463E-006	6.33842E-005	9
	45	117	9.450605	100.7726	-472.3375	1	482.9677	-77.95657	3.316035E-007	0.0006347	8
	46	120	7.512019	123.619	-579.9227	1	592.9519	-77.96667	3.601626E-007	0.0006188	8
	47	122	5.978954	153.585	-710.8787	1	727.2805	-77.80865	3.978152E-007	0.0006381	8
	48	125	4.734848	194.5828	-873.805	1	895.2081	-77.44595	3.795525E-007	0.0006171	8
	49	129	3.75601	247.8487	-1070.593	1	1098.908	-76.96531	4.721979E-007	0.0006585	8
	50	132	3.004808	315.1724	-1298.407	1	1336.112	-76.35604	4.628449E-007	0.0006426	8
	51	136	2.372217	410.5801	-1587.101	1	1639.35	-75.49567	4.557116E-007	0.0006347	8
	52	140	1.878005	536.0016	-1935.163	1	2008.023	-74.51833	4.971083E-007	0.0006256	8
	53	145	1.512097	679.8593	-2309.931	1	2407.902	-73.59978	4.542633E-007	0.0006863	8
	54	150	1.201923	886.6616	-2785.054	1	2922.789	-72.34039	4.938907E-007	0.0006489	8
	55	156	0.956633	1144.34	-3332.274	1	3523.289	-71.04696	4.032982E-007	-6.429759E-006	8
