EXPLAIN
TAG	EISPOT
TITLE	LABEL	Potentiostatic EIS	Test Identifier
DATE	LABEL	9/22/2020	Date
TIME	LABEL	1:56:23	Time
NOTES	NOTES	1	Notes...
	
PSTAT	PSTAT	REF3000-16137	Potentiostat
VDC	POTEN	0.00000E+000	T	DC Voltage (V)
FREQINIT	QUANT	3.00000E+005	Initial Freq. (Hz)
FREQFINAL	QUANT	1.00000E+000	Final Freq. (Hz)
PTSPERDEC	QUANT	1.00000E+001	Points/decade
VAC	QUANT	5.00000E+001	AC Voltage (mV rms)
AREA	QUANT	1.00000E+000	Sample Area (cm^2)
SPEED	SELECTOR	2	Optimize for:
ZGUESS	QUANT	1.00000E+003	Estimated Z (ohms)
EOC	QUANT	0	Open Circuit (V)
SEQUENCER	TOGGLE	TRUE	Run as Sequence
PSTATMODEL	IQUANT	5	Pstat Model
PSTATSECTION	LABEL	REF3000-16137	Pstat Section
PSTATSERIALNO	LABEL	16137	Pstat Serial Number
CTRLMODE	IQUANT	1	Control Mode
IESTAB	IQUANT	0	I/E Stability
CASPEED	IQUANT	1	Control Amp Speed
CONVENTION	IQUANT	1	Current Convention
ICHRANGE	IQUANT	2	Ich Range
ICHRANGEMODE	TOGGLE	F	Ich Auto Range
ICHOFFSETENABLE	TOGGLE	T	Ich Offset Enable
ICHOFFSET	QUANT	0	Ich Offset (V)
ICHFILTER	IQUANT	3	Ich Filter
VCHRANGE	IQUANT	2	Vch Range
VCHRANGEMODE	TOGGLE	F	Vch Auto Range
VCHOFFSETENABLE	TOGGLE	T	Vch Offset Enable
VCHOFFSET	QUANT	0	Vch Offset (V)
VCHFILTER	IQUANT	3	Vch Filter
ACHRANGE	IQUANT	2	Ach Range
ACHOFFSETENABLE	TOGGLE	F	Ach Offset Enable
ACHOFFSET	QUANT	0	Ach Offset (V)
ACHFILTER	IQUANT	3	Ach Filter
IERANGELOWERLIMIT	IQUANT	2	I/E Range Lower Limit
IERANGEMODE	TOGGLE	F	I/E AutoRange
IERANGE	IQUANT	11	I/E Range
POSFEEDENABLE	TOGGLE	F	Positive Feedback IR Comp
POSFEEDRESISTANCE	QUANT	0	Positive Feedback Resistance (ohm)
ACHSELECT	IQUANT	0	Ach Select
CABLEID	IQUANT	13	Cable ID
DCCALDATE	LABEL	7/31/2020	DC Calibration Date
ACCALDATE	LABEL	7/31/2020	AC Calibration Date
THERMOSELECT	IQUANT	1	Thermo Select
FRAMEWORKVERSION	QUANT	6.33	Framework Version
INSTRUMENTVERSION	LABEL	3.50	Instrument Version
COMPLIANCEVOLTAGE	IQUANT	0	Compliance Voltage
ZCURVE	TABLE
	Pt	Time	Freq	Zreal	Zimag	Zsig	Zmod	Zphz	Idc	Vdc	IERange
	#	s	Hz	ohm	ohm	V	ohm	°	A	V	#
	0	7	300046.9	75.89937	1.45397	1	75.91329	1.097455	8.625725E-006	-0.0013585	9
	1	10	238359.4	75.93208	1.080271	1	75.93976	0.8150814	-6.459987E-005	0.0022583	9
	2	13	189328.1	76.1509	0.8895767	1	76.1561	0.6692852	1.751492E-005	-0.0011092	9
	3	16	150421.9	76.35776	0.6233546	1	76.3603	0.4677297	6.144161E-005	-0.0023199	9
	4	18	119484.4	76.38721	0.4150135	1	76.38834	0.3112862	-4.698351E-005	0.0007947	9
	5	21	94921.88	76.56466	0.5040798	1	76.56631	0.3772136	-1.070077E-005	0.0007078	9
	6	23	75421.88	76.62917	0.3227878	1	76.62985	0.2413476	-2.047888E-005	0.000685	9
	7	26	59859.37	76.69429	0.1275406	1	76.6944	0.0952813	2.055411E-005	-0.000338	9
	8	28	47578.12	76.78975	-0.0361981	1	76.78976	-0.0270088	2.177073E-005	-0.0002857	9
	9	31	37828.12	76.92489	-0.145651	1	76.92503	-0.1084848	1.608041E-005	-0.0006381	9
	10	33	30046.88	77.03601	-0.2530693	1	77.03642	-0.1882204	-1.202117E-005	0.0007118	9
	11	36	23859.38	77.15398	-0.3774529	1	77.1549	-0.2803004	-1.80722E-005	0.0004245	9
	12	38	18984.38	77.25272	-0.5231099	1	77.25449	-0.3879673	-1.913087E-005	0.0005726	9
	13	40	15046.87	77.33061	-0.6893663	1	77.33369	-0.5107516	-1.545679E-005	0.0007845	9
	14	43	11953.13	77.43816	-0.8638509	1	77.44298	-0.6391288	-1.72411E-005	0.0004593	9
	15	45	9515.62	77.56666	-1.064589	1	77.57397	-0.786325	-8.961771E-006	-2.993947E-006	9
	16	47	7546.875	77.67651	-1.335249	1	77.68798	-0.98481	-2.389572E-006	-0.0002279	9
	17	50	5928.309	77.83572	-1.650659	1	77.85322	-1.214888	-9.851542E-006	2.808371E-005	9
	18	52	4733.456	77.99675	-1.993389	1	78.02222	-1.464008	2.266511E-005	-0.0005442	9
	19	54	3796.875	78.13895	-2.463091	1	78.17776	-1.805476	-1.799252E-005	0.0006725	9
	20	56	2987.132	78.24863	-3.15312	1	78.31213	-2.307552	-1.328704E-005	0.0001822	9
	21	59	2390.625	78.45626	-3.854879	1	78.5509	-2.812915	4.119976E-006	0.0004164	9
	22	61	1884.191	78.65943	-4.8639	1	78.80967	-3.538375	1.950624E-006	0.0004474	9
	23	63	1516.544	78.87766	-5.905799	1	79.09844	-4.281912	1.68348E-005	-0.0006309	9
	24	66	1193.986	79.13602	-7.333946	1	79.47514	-5.294773	-1.393426E-005	0.0001913	9
	25	68	946.5144	79.47089	-9.052432	1	79.98481	-6.498482	-1.868973E-005	0.0007476	9
	26	71	751.7689	79.78796	-11.31141	1	80.58577	-8.068958	1.13958E-005	-0.0005627	9
	27	73	597.4265	80.16914	-13.86955	1	81.36004	-9.81522	-1.083896E-005	0.0007347	9
	28	75	477.4305	80.70522	-17.13015	1	82.50318	-11.98351	1.21273E-006	7.426103E-005	9
	29	78	376.6741	81.34563	-21.32154	1	84.09352	-14.68742	1.263857E-006	6.584086E-005	9
	30	80	298.2954	82.12824	-26.44116	1	86.27968	-17.84595	1.201968E-006	6.977287E-005	9
	31	82	237.7717	83.07011	-32.57685	1	89.22945	-21.41317	1.193529E-006	6.422705E-005	9
	32	85	189.0121	84.25278	-40.22287	1	93.36172	-25.52013	1.165198E-006	5.963427E-005	9
	33	87	150.2404	85.72118	-49.63779	1	99.0557	-30.07346	8.888231E-007	0.0001063	9
	34	90	119.1737	87.58459	-61.32645	1	106.9205	-34.99959	1.18258E-006	6.012269E-005	9
	35	92	95.0169	89.85767	-75.37912	1	117.2877	-39.99236	1.204191E-006	5.934454E-005	9
	36	94	75.60484	92.72884	-92.77406	1	131.1704	-45.01397	1.237791E-006	5.45879E-005	9
	37	97	54.50582	98.1173	-124.7847	1	158.7395	-51.82229	1.19918E-006	6.001523E-005	9
	38	100	45.95588	101.7697	-145.5767	1	177.6222	-55.04339	1.240212E-006	6.428279E-005	9
	39	102	37.20238	107.2417	-176.081	1	206.1681	-58.65659	1.227596E-006	7.516154E-005	9
	40	104	30.04808	114.064	-213.2484	1	241.8377	-61.85821	1.212559E-006	6.092352E-005	9
	41	107	23.91582	123.1623	-261.438	1	288.9961	-64.77508	1.310478E-006	5.33845E-005	9
	42	109	18.60119	135.5478	-326.7292	1	353.7303	-67.46825	1.204784E-006	6.89315E-005	9
	43	111	15.02404	147.9994	-392.9285	1	419.8769	-69.36075	2.008911E-007	0.0006362	8
	44	114	12.01923	164.2263	-478.3808	1	505.7849	-71.05286	3.144241E-007	0.0006379	8
	45	116	9.450605	185.3368	-591.3926	1	619.754	-72.5995	1.930697E-007	0.0006416	8
	46	119	7.512019	209.7744	-723.9705	1	753.7497	-73.84077	1.994984E-007	0.000644	8
	47	121	5.978954	238.8938	-886.1834	1	917.8188	-74.91307	2.188791E-007	0.0006403	8
	48	124	4.734848	275.5349	-1091.237	1	1125.485	-75.82914	2.888706E-007	0.0006523	8
	49	128	3.75601	320.6467	-1341.245	1	1379.04	-76.55485	2.204099E-007	0.0006371	8
	50	131	3.004808	374.552	-1636.271	1	1678.593	-77.10679	2.865138E-007	0.0006137	8
	51	135	2.372217	449.1684	-2018.326	1	2067.702	-77.45357	2.745546E-007	0.0006517	8
	52	139	1.878005	543.6828	-2493.823	1	2552.399	-77.70129	2.268179E-007	0.0006335	8
	53	144	1.512097	650.4332	-3020.879	1	3090.109	-77.849	2.770902E-007	0.0005996	8
	54	149	1.201923	808.0925	-3715.415	1	3802.279	-77.72943	2.514354E-007	0.0006177	8
	55	155	0.956633	1011.271	-4555.156	1	4666.06	-77.48301	-1.767934E-008	-2.478978E-005	7
