EXPLAIN
TAG	EISPOT
TITLE	LABEL	Potentiostatic EIS	Test Identifier
DATE	LABEL	9/22/2020	Date
TIME	LABEL	3:10:10	Time
NOTES	NOTES	1	Notes...
	
PSTAT	PSTAT	REF3000-16137	Potentiostat
VDC	POTEN	0.00000E+000	T	DC Voltage (V)
FREQINIT	QUANT	3.00000E+005	Initial Freq. (Hz)
FREQFINAL	QUANT	1.00000E+000	Final Freq. (Hz)
PTSPERDEC	QUANT	1.00000E+001	Points/decade
VAC	QUANT	5.00000E+001	AC Voltage (mV rms)
AREA	QUANT	1.00000E+000	Sample Area (cm^2)
SPEED	SELECTOR	2	Optimize for:
ZGUESS	QUANT	1.00000E+003	Estimated Z (ohms)
EOC	QUANT	0	Open Circuit (V)
SEQUENCER	TOGGLE	TRUE	Run as Sequence
PSTATMODEL	IQUANT	5	Pstat Model
PSTATSECTION	LABEL	REF3000-16137	Pstat Section
PSTATSERIALNO	LABEL	16137	Pstat Serial Number
CTRLMODE	IQUANT	1	Control Mode
IESTAB	IQUANT	0	I/E Stability
CASPEED	IQUANT	1	Control Amp Speed
CONVENTION	IQUANT	1	Current Convention
ICHRANGE	IQUANT	2	Ich Range
ICHRANGEMODE	TOGGLE	F	Ich Auto Range
ICHOFFSETENABLE	TOGGLE	T	Ich Offset Enable
ICHOFFSET	QUANT	0	Ich Offset (V)
ICHFILTER	IQUANT	3	Ich Filter
VCHRANGE	IQUANT	2	Vch Range
VCHRANGEMODE	TOGGLE	F	Vch Auto Range
VCHOFFSETENABLE	TOGGLE	T	Vch Offset Enable
VCHOFFSET	QUANT	0	Vch Offset (V)
VCHFILTER	IQUANT	3	Vch Filter
ACHRANGE	IQUANT	2	Ach Range
ACHOFFSETENABLE	TOGGLE	F	Ach Offset Enable
ACHOFFSET	QUANT	0	Ach Offset (V)
ACHFILTER	IQUANT	3	Ach Filter
IERANGELOWERLIMIT	IQUANT	2	I/E Range Lower Limit
IERANGEMODE	TOGGLE	F	I/E AutoRange
IERANGE	IQUANT	11	I/E Range
POSFEEDENABLE	TOGGLE	F	Positive Feedback IR Comp
POSFEEDRESISTANCE	QUANT	0	Positive Feedback Resistance (ohm)
ACHSELECT	IQUANT	0	Ach Select
CABLEID	IQUANT	13	Cable ID
DCCALDATE	LABEL	7/31/2020	DC Calibration Date
ACCALDATE	LABEL	7/31/2020	AC Calibration Date
THERMOSELECT	IQUANT	1	Thermo Select
FRAMEWORKVERSION	QUANT	6.33	Framework Version
INSTRUMENTVERSION	LABEL	3.50	Instrument Version
COMPLIANCEVOLTAGE	IQUANT	0	Compliance Voltage
ZCURVE	TABLE
	Pt	Time	Freq	Zreal	Zimag	Zsig	Zmod	Zphz	Idc	Vdc	IERange
	#	s	Hz	ohm	ohm	V	ohm	°	A	V	#
	0	14	300046.9	1050.72	-339.7336	1	1104.279	-17.91778	2.488755E-005	0.0008973	9
	1	34	238359.4	1101.533	-296.4555	1	1140.728	-15.0631	1.805951E-005	-0.0021473	9
	2	50	189328.1	1147.446	-252.9352	1	1174.993	-12.43109	2.574815E-005	-0.001539	9
	3	57	150421.9	1173.761	-213.7926	1	1193.073	-10.32287	1.923754E-005	-0.0008389	9
	4	63	119484.4	1199.213	-137.4828	1	1207.068	-6.540074	-9.361067E-006	0.0121631	8
	5	69	94921.88	1211.389	-108.4113	1	1216.231	-5.11397	3.868041E-007	0.005465	8
	6	72	75421.88	1217.733	-88.86367	1	1220.971	-4.173742	-1.380206E-005	0.0013239	8
	7	75	59859.37	1223.307	-73.24283	1	1225.498	-3.426368	-2.046917E-005	0.0064257	8
	8	77	47578.12	1227.818	-64.12686	1	1229.491	-2.989746	-1.411179E-005	0.0086957	8
	9	80	37828.12	1233.525	-48.16724	1	1234.465	-2.236175	-1.296611E-007	0.0056262	8
	10	83	30046.88	1240.038	-36.13654	1	1240.564	-1.669212	1.648926E-005	-0.0073795	8
	11	86	23859.38	1243.926	-33.87737	1	1244.387	-1.560021	2.104078E-005	-0.004439	8
	12	88	18984.38	1246.782	-26.32297	1	1247.059	-1.209491	-2.037897E-005	0.0063662	8
	13	91	15046.87	1251.449	-19.59888	1	1251.603	-0.8972325	1.139186E-005	-0.0068941	8
	14	94	11953.13	1257.636	-20.87315	1	1257.809	-0.950858	-1.40471E-005	0.0087942	8
	15	97	9515.62	1259.472	-16.25058	1	1259.577	-0.7392286	1.926602E-005	-0.0026969	8
	16	99	7546.875	1261.265	-13.25997	1	1261.335	-0.6023414	1.501936E-005	-0.0002478	8
	17	102	5928.309	1266.816	-9.277623	1	1266.85	-0.4196024	1.658329E-005	-0.0073875	8
	18	107	4733.456	1269.281	-15.29262	1	1269.373	-0.6902809	-1.409443E-005	0.0087501	8
	19	110	3796.875	1272.394	-10.04545	1	1272.434	-0.4523363	-7.794178E-006	0.0078032	8
	20	113	2987.132	1277.005	-6.617294	1	1277.022	-0.2968975	4.936867E-006	-0.0055663	8
	21	117	2390.625	1280.826	-10.93763	1	1280.873	-0.4892661	-1.919269E-005	0.0047482	8
	22	120	1884.191	1285.575	-13.18356	1	1285.643	-0.5875471	-1.393044E-005	0.0013044	8
	23	125	1516.544	1289.99	-10.3519	1	1290.031	-0.4597767	-1.835822E-005	0.0087559	8
	24	129	1193.986	1296.622	-8.596641	1	1296.651	-0.379867	-1.398948E-005	0.0013195	8
	25	133	946.5144	1297.345	-11.70813	1	1297.398	-0.5170625	-4.813527E-007	0.005913	8
	26	135	751.7689	1310.028	-17.86376	1	1310.15	-0.7812465	1.655425E-005	-0.0074724	8
	27	138	597.4265	1307.043	-23.78806	1	1307.259	-1.042663	4.95507E-006	-0.0054851	8
	28	141	477.4305	1308.43	-24.87223	1	1308.667	-1.089017	-2.446698E-007	0.0006431	8
	29	143	376.6741	1311.842	-30.35248	1	1312.193	-1.325433	-2.827829E-007	0.0006463	8
	30	145	298.2954	1315.349	-37.19005	1	1315.875	-1.619544	-2.355906E-007	0.0006222	8
	31	148	237.7717	1319.155	-45.4519	1	1319.937	-1.973364	-2.371464E-007	0.0006263	8
	32	150	189.0121	1323.235	-55.82942	1	1324.412	-2.415969	-2.779256E-007	0.0006439	8
	33	152	150.2404	1327.674	-68.74986	1	1329.453	-2.964252	-2.569669E-007	0.0006262	8
	34	155	119.1737	1332.335	-84.79872	1	1335.031	-3.641774	-2.47176E-007	0.0006323	8
	35	157	95.0169	1337.757	-104.2707	1	1341.815	-4.456874	-2.188721E-007	0.0006278	8
	36	160	75.60484	1343.801	-128.4562	1	1349.926	-5.460411	-2.560388E-007	0.0006396	8
	37	162	54.50582	1352.859	-173.2158	1	1363.903	-7.296274	-2.252052E-007	0.0006154	8
	38	165	45.95588	1359.657	-202.505	1	1374.655	-8.471261	-2.330717E-007	0.0006458	8
	39	167	37.20238	1368.313	-245.8153	1	1390.218	-10.18446	-2.785212E-007	0.0006337	8
	40	170	30.04808	1379.066	-298.9279	1	1411.093	-12.23029	-1.889841E-007	0.0006208	8
	41	172	23.91582	1391.624	-367.9883	1	1439.456	-14.81175	-3.284547E-007	0.0006638	8
	42	174	18.60119	1409.406	-462.9839	1	1483.502	-18.18513	-2.848097E-007	0.0006385	8
	43	177	15.02404	1427.968	-561.4507	1	1534.379	-21.46383	-1.528284E-007	0.0006525	8
	44	179	12.01923	1450.255	-687.7753	1	1605.077	-25.37239	-3.497007E-007	0.0006539	8
	45	182	9.450605	1481.42	-854.3164	1	1710.106	-29.97152	-1.304572E-007	0.0006241	8
	46	184	7.512019	1518.769	-1052.224	1	1847.657	-34.71476	-2.232331E-007	0.0006173	8
	47	187	5.978954	1564.161	-1290.681	1	2027.919	-39.52803	-2.718706E-007	0.0006405	8
	48	190	4.734848	1620.974	-1590.03	1	2270.628	-44.44786	-2.759683E-007	0.0006187	8
	49	193	3.75601	1692.399	-1955.164	1	2585.9	-49.12038	-1.924858E-007	0.0006518	8
	50	196	3.004808	1777.982	-2384.273	1	2974.219	-53.28765	-2.443166E-007	0.0006372	8
	51	200	2.372217	1895.856	-2937.624	1	3496.27	-57.16299	-2.647969E-007	0.0005628	8
	52	204	1.878005	2032.906	-3619.301	1	4151.15	-60.67774	-2.342827E-007	0.000638	8
	53	209	1.512097	2194.968	-4378.557	1	4897.922	-63.37542	-5.97302E-008	0.0005904	7
	54	215	1.201923	2408.597	-5372.417	1	5887.631	-65.85204	-4.365895E-008	0.0006352	7
	55	221	0.956633	2667.273	-6559.601	1	7081.151	-67.87229	-6.561024E-008	-3.394327E-005	7
