EXPLAIN
TAG	EISPOT
TITLE	LABEL	Potentiostatic EIS	Test Identifier
DATE	LABEL	9/22/2020	Date
TIME	LABEL	0:44:20	Time
NOTES	NOTES	1	Notes...
	
PSTAT	PSTAT	REF3000-16137	Potentiostat
VDC	POTEN	0.00000E+000	T	DC Voltage (V)
FREQINIT	QUANT	3.00000E+005	Initial Freq. (Hz)
FREQFINAL	QUANT	1.00000E+000	Final Freq. (Hz)
PTSPERDEC	QUANT	1.00000E+001	Points/decade
VAC	QUANT	5.00000E+001	AC Voltage (mV rms)
AREA	QUANT	1.00000E+000	Sample Area (cm^2)
SPEED	SELECTOR	2	Optimize for:
ZGUESS	QUANT	1.00000E+003	Estimated Z (ohms)
EOC	QUANT	0	Open Circuit (V)
SEQUENCER	TOGGLE	TRUE	Run as Sequence
PSTATMODEL	IQUANT	5	Pstat Model
PSTATSECTION	LABEL	REF3000-16137	Pstat Section
PSTATSERIALNO	LABEL	16137	Pstat Serial Number
CTRLMODE	IQUANT	1	Control Mode
IESTAB	IQUANT	0	I/E Stability
CASPEED	IQUANT	1	Control Amp Speed
CONVENTION	IQUANT	1	Current Convention
ICHRANGE	IQUANT	2	Ich Range
ICHRANGEMODE	TOGGLE	F	Ich Auto Range
ICHOFFSETENABLE	TOGGLE	T	Ich Offset Enable
ICHOFFSET	QUANT	0	Ich Offset (V)
ICHFILTER	IQUANT	3	Ich Filter
VCHRANGE	IQUANT	2	Vch Range
VCHRANGEMODE	TOGGLE	F	Vch Auto Range
VCHOFFSETENABLE	TOGGLE	T	Vch Offset Enable
VCHOFFSET	QUANT	0	Vch Offset (V)
VCHFILTER	IQUANT	3	Vch Filter
ACHRANGE	IQUANT	2	Ach Range
ACHOFFSETENABLE	TOGGLE	F	Ach Offset Enable
ACHOFFSET	QUANT	0	Ach Offset (V)
ACHFILTER	IQUANT	3	Ach Filter
IERANGELOWERLIMIT	IQUANT	2	I/E Range Lower Limit
IERANGEMODE	TOGGLE	F	I/E AutoRange
IERANGE	IQUANT	11	I/E Range
POSFEEDENABLE	TOGGLE	F	Positive Feedback IR Comp
POSFEEDRESISTANCE	QUANT	0	Positive Feedback Resistance (ohm)
ACHSELECT	IQUANT	0	Ach Select
CABLEID	IQUANT	13	Cable ID
DCCALDATE	LABEL	7/31/2020	DC Calibration Date
ACCALDATE	LABEL	7/31/2020	AC Calibration Date
THERMOSELECT	IQUANT	1	Thermo Select
FRAMEWORKVERSION	QUANT	6.33	Framework Version
INSTRUMENTVERSION	LABEL	3.50	Instrument Version
COMPLIANCEVOLTAGE	IQUANT	0	Compliance Voltage
ZCURVE	TABLE
	Pt	Time	Freq	Zreal	Zimag	Zsig	Zmod	Zphz	Idc	Vdc	IERange
	#	s	Hz	ohm	ohm	V	ohm	°	A	V	#
	0	8	300046.9	15.76422	2.070423	1	15.8996	7.482219	2.258156E-005	0.0002122	10
	1	11	238359.4	15.73166	1.653976	1	15.81837	6.001842	6.475661E-005	0.0002289	10
	2	14	189328.1	15.72827	1.305416	1	15.78235	4.744565	-3.344851E-005	0.0003505	10
	3	17	150421.9	15.73309	1.00303	1	15.76503	3.647835	1.021003E-005	0.0004486	10
	4	19	119484.4	15.73457	0.7819465	1	15.75399	2.845035	-9.251531E-005	0.0006366	10
	5	22	94921.88	15.74039	0.6010671	1	15.75186	2.186851	-3.592595E-006	0.0006796	10
	6	24	75421.88	15.75142	0.4236292	1	15.75711	1.54058	2.21768E-005	0.0005842	10
	7	27	59859.37	15.76845	0.275849	1	15.77087	1.002215	-1.039594E-005	0.000619	10
	8	29	47578.12	15.78521	0.1475363	1	15.7859	0.5354985	-1.113533E-005	0.0006331	10
	9	32	37828.12	15.80101	0.0292927	1	15.80104	0.1062178	-7.384848E-006	0.000641	10
	10	34	30046.88	15.82003	-0.0868446	1	15.82027	-0.3145239	-2.537576E-006	0.0007079	10
	11	37	23859.38	15.83806	-0.2051327	1	15.83939	-0.7420468	1.90419E-005	0.0006065	10
	12	39	18984.38	15.85922	-0.3299343	1	15.86265	-1.191806	-1.944793E-005	0.0007252	10
	13	42	15046.87	15.88196	-0.4737151	1	15.88902	-1.708468	-4.551498E-006	0.0006199	10
	14	44	11953.13	15.90958	-0.6330628	1	15.92217	-2.278671	2.421962E-005	0.000664	10
	15	46	9515.62	15.93849	-0.8199696	1	15.95957	-2.945035	-2.329606E-005	0.0007299	10
	16	49	7546.875	15.97378	-1.047164	1	16.00807	-3.750669	-1.740356E-005	0.0006423	10
	17	51	5928.309	16.01707	-1.333934	1	16.07252	-4.760723	-2.318747E-005	0.0007187	10
	18	53	4733.456	16.0636	-1.66249	1	16.1494	-5.908749	2.164874E-005	0.0006179	10
	19	55	3796.875	16.11699	-2.057941	1	16.24785	-7.276589	-4.676472E-006	0.0006175	10
	20	58	2987.132	16.18908	-2.582698	1	16.3938	-9.064206	-1.576386E-005	0.0007013	10
	21	60	2390.625	16.26997	-3.181429	1	16.5781	-11.06401	1.83576E-005	0.0005945	10
	22	62	1884.191	16.37525	-3.978936	1	16.85173	-13.65732	-5.461556E-006	0.0006885	10
	23	65	1516.544	16.4957	-4.871321	1	17.19994	-16.45232	4.587626E-006	0.000597	10
	24	67	1193.986	16.66199	-6.088593	1	17.73958	-20.07323	-2.832619E-005	0.0006885	10
	25	70	946.5144	16.86561	-7.544264	1	18.47606	-24.09975	-1.754416E-005	0.0006722	10
	26	72	751.7689	17.11335	-9.34328	1	19.49779	-28.63296	-2.591447E-005	0.0006734	10
	27	74	597.4265	17.42754	-11.55287	1	20.90904	-33.54074	-2.790811E-005	0.0006805	10
	28	77	477.4305	17.81448	-14.19643	1	22.77925	-38.55149	-3.387157E-006	0.0006624	10
	29	79	376.6741	18.33501	-17.64602	1	25.44709	-43.903	-3.440961E-006	0.000654	10
	30	81	298.2954	18.99138	-21.84982	1	28.94974	-49.00356	-2.876846E-006	0.0006599	10
	31	83	237.7717	19.80151	-26.87053	1	33.37851	-53.61264	-2.747327E-006	0.0006627	10
	32	86	189.0121	20.8445	-33.10035	1	39.11683	-57.79988	-2.780472E-006	0.0006635	10
	33	88	150.2404	22.1435	-40.68462	1	46.32033	-61.44178	1.020254E-006	6.113195E-005	9
	34	91	119.1737	23.82993	-50.09779	1	55.47661	-64.56105	1.063839E-006	6.420475E-005	9
	35	93	95.0169	25.87979	-61.33558	1	66.57189	-67.12329	1.083774E-006	5.866899E-005	9
	36	96	75.60484	28.42119	-75.16052	1	80.35464	-69.2864	6.950995E-007	0.0001088	9
	37	98	54.50582	33.02596	-100.441	1	105.7313	-71.79864	1.041966E-006	5.217375E-005	9
	38	101	45.95588	35.97645	-116.8339	1	122.2475	-72.88493	1.136392E-006	6.487655E-005	9
	39	103	37.20238	40.2567	-140.9235	1	146.5607	-74.05729	1.029272E-006	6.351143E-005	9
	40	105	30.04808	45.43736	-170.397	1	176.351	-75.06916	1.041544E-006	5.986229E-005	9
	41	108	23.91582	52.13453	-208.7848	1	215.1955	-75.97968	1.071477E-006	5.43998E-005	9
	42	110	18.60119	61.43285	-261.4595	1	268.5797	-76.77756	1.012185E-006	5.998637E-005	9
	43	112	15.02404	71.41353	-316.6781	1	324.6305	-77.2919	1.158146E-006	6.611892E-005	9
	44	115	12.01923	84.5752	-387.0234	1	396.1567	-77.67309	1.275545E-006	6.235597E-005	9
	45	117	9.450605	102.2652	-478.3261	1	489.136	-77.93196	4.458521E-007	0.0006338	8
	46	120	7.512019	124.8823	-587.8934	1	601.011	-78.0073	4.669377E-007	0.0006283	8
	47	122	5.978954	154.4274	-720.4432	1	736.8082	-77.90169	5.199199E-007	0.0006474	8
	48	126	4.734848	194.1685	-887.0662	1	908.0682	-77.65335	4.156035E-007	0.0006292	8
	49	129	3.75601	246.4266	-1087.315	1	1114.89	-77.23033	5.093291E-007	0.0006535	8
	50	132	3.004808	312.9557	-1320.29	1	1356.874	-76.66497	4.337481E-007	0.0006762	8
	51	136	2.372217	404.9745	-1616.563	1	1666.517	-75.93595	4.591778E-007	0.000674	8
	52	140	1.878005	529.4811	-1971.208	1	2041.081	-74.96482	4.805578E-007	0.000611	8
	53	145	1.512097	676.2831	-2360.033	1	2455.018	-74.00999	4.693271E-007	0.0007586	8
	54	150	1.201923	876.4963	-2846.558	1	2978.446	-72.88564	4.894364E-007	0.000615	8
	55	156	0.956633	1128.793	-3414.861	1	3596.589	-71.70853	4.06847E-007	1.082451E-006	8
