EXPLAIN
TAG	EISPOT
TITLE	LABEL	Potentiostatic EIS	Test Identifier
DATE	LABEL	9/22/2020	Date
TIME	LABEL	1:03:43	Time
NOTES	NOTES	1	Notes...
	
PSTAT	PSTAT	REF3000-16137	Potentiostat
VDC	POTEN	0.00000E+000	T	DC Voltage (V)
FREQINIT	QUANT	3.00000E+005	Initial Freq. (Hz)
FREQFINAL	QUANT	1.00000E+000	Final Freq. (Hz)
PTSPERDEC	QUANT	1.00000E+001	Points/decade
VAC	QUANT	5.00000E+001	AC Voltage (mV rms)
AREA	QUANT	1.00000E+000	Sample Area (cm^2)
SPEED	SELECTOR	2	Optimize for:
ZGUESS	QUANT	1.00000E+003	Estimated Z (ohms)
EOC	QUANT	0	Open Circuit (V)
SEQUENCER	TOGGLE	TRUE	Run as Sequence
PSTATMODEL	IQUANT	5	Pstat Model
PSTATSECTION	LABEL	REF3000-16137	Pstat Section
PSTATSERIALNO	LABEL	16137	Pstat Serial Number
CTRLMODE	IQUANT	1	Control Mode
IESTAB	IQUANT	0	I/E Stability
CASPEED	IQUANT	1	Control Amp Speed
CONVENTION	IQUANT	1	Current Convention
ICHRANGE	IQUANT	2	Ich Range
ICHRANGEMODE	TOGGLE	F	Ich Auto Range
ICHOFFSETENABLE	TOGGLE	T	Ich Offset Enable
ICHOFFSET	QUANT	0	Ich Offset (V)
ICHFILTER	IQUANT	3	Ich Filter
VCHRANGE	IQUANT	2	Vch Range
VCHRANGEMODE	TOGGLE	F	Vch Auto Range
VCHOFFSETENABLE	TOGGLE	T	Vch Offset Enable
VCHOFFSET	QUANT	0	Vch Offset (V)
VCHFILTER	IQUANT	3	Vch Filter
ACHRANGE	IQUANT	2	Ach Range
ACHOFFSETENABLE	TOGGLE	F	Ach Offset Enable
ACHOFFSET	QUANT	0	Ach Offset (V)
ACHFILTER	IQUANT	3	Ach Filter
IERANGELOWERLIMIT	IQUANT	2	I/E Range Lower Limit
IERANGEMODE	TOGGLE	F	I/E AutoRange
IERANGE	IQUANT	11	I/E Range
POSFEEDENABLE	TOGGLE	F	Positive Feedback IR Comp
POSFEEDRESISTANCE	QUANT	0	Positive Feedback Resistance (ohm)
ACHSELECT	IQUANT	0	Ach Select
CABLEID	IQUANT	13	Cable ID
DCCALDATE	LABEL	7/31/2020	DC Calibration Date
ACCALDATE	LABEL	7/31/2020	AC Calibration Date
THERMOSELECT	IQUANT	1	Thermo Select
FRAMEWORKVERSION	QUANT	6.33	Framework Version
INSTRUMENTVERSION	LABEL	3.50	Instrument Version
COMPLIANCEVOLTAGE	IQUANT	0	Compliance Voltage
ZCURVE	TABLE
	Pt	Time	Freq	Zreal	Zimag	Zsig	Zmod	Zphz	Idc	Vdc	IERange
	#	s	Hz	ohm	ohm	V	ohm	°	A	V	#
	0	9	300046.9	22.31783	1.924819	1	22.40068	4.929323	2.228808E-005	0.0003603	10
	1	12	238359.4	22.30027	1.546532	1	22.35383	3.967133	-0.0000985	0.0003975	10
	2	15	189328.1	22.29979	1.218753	1	22.33307	3.128281	1.974821E-005	0.0004414	10
	3	18	150421.9	22.30457	0.9477979	1	22.3247	2.43323	1.395654E-006	0.0006746	10
	4	20	119484.4	22.33684	0.7241415	1	22.34857	1.856831	-5.213649E-005	0.0007023	10
	5	23	94921.88	22.34767	0.5439894	1	22.35429	1.394425	-2.896347E-005	0.000666	10
	6	25	75421.88	22.36764	0.3798185	1	22.37086	0.97283	2.286979E-005	0.0005689	10
	7	28	59859.37	22.39119	0.238189	1	22.39246	0.6094676	1.987786E-005	0.0005677	10
	8	30	47578.12	22.41636	0.1168821	1	22.41666	0.2987458	-2.839439E-005	0.0006564	10
	9	33	37828.12	22.44382	-0.0064372	1	22.44382	-0.0164333	-2.14012E-005	0.0006276	10
	10	35	30046.88	22.46936	-0.1210793	1	22.46969	-0.3087434	2.186443E-005	0.0006175	10
	11	38	23859.38	22.49479	-0.2345408	1	22.49601	-0.59737	-2.635666E-005	0.0006972	10
	12	40	18984.38	22.5225	-0.3613838	1	22.5254	-0.9192579	1.94451E-005	0.0005862	10
	13	42	15046.87	22.55094	-0.5039405	1	22.55657	-1.280162	-2.925407E-005	0.0006534	10
	14	45	11953.13	22.58727	-0.6726781	1	22.59728	-1.705838	-3.583504E-006	0.0007187	10
	15	47	9515.62	22.62506	-0.8639765	1	22.64155	-2.186874	6.636762E-006	0.0005973	10
	16	49	7546.875	22.66618	-1.094105	1	22.69257	-2.763543	2.331822E-005	0.0005852	10
	17	52	5928.309	22.7167	-1.392921	1	22.75936	-3.508816	-1.100088E-005	0.0006412	10
	18	54	4733.456	22.77671	-1.735985	1	22.84277	-4.358518	-5.128688E-006	0.0006893	10
	19	56	3796.875	22.83172	-2.147025	1	22.93245	-5.37212	-5.193526E-006	0.0006139	10
	20	59	2987.132	22.91803	-2.694741	1	23.07591	-6.706142	-1.71738E-005	0.0006542	10
	21	61	2390.625	23.01088	-3.32882	1	23.25041	-8.231471	-7.85191E-006	0.000661	10
	22	63	1884.191	23.12789	-4.157266	1	23.49856	-10.19016	-2.626838E-005	0.0006747	10
	23	66	1516.544	23.25598	-5.08647	1	23.80573	-12.33726	-2.95353E-005	0.0006807	10
	24	68	1193.986	23.43784	-6.356313	1	24.28446	-15.17357	1.87505E-005	0.0006041	10
	25	70	946.5144	23.6489	-7.88479	1	24.9287	-18.43893	2.424559E-005	0.000619	10
	26	73	751.7689	23.91323	-9.75905	1	25.82792	-22.20049	2.317947E-005	0.0006497	10
	27	75	597.4265	24.23539	-12.06594	1	27.07288	-26.46709	1.261528E-005	0.0005915	10
	28	77	477.4305	24.6389	-14.83408	1	28.75978	-31.05044	-2.25502E-006	0.0006655	10
	29	80	376.6741	25.17251	-18.44483	1	31.20684	-36.23161	-2.505527E-006	0.0006587	10
	30	82	298.2954	25.83789	-22.84286	1	34.48758	-41.47939	-2.41066E-006	0.0006646	10
	31	84	237.7717	26.6564	-28.1079	1	38.73781	-46.51824	-2.534793E-006	0.0006573	10
	32	87	189.0121	27.67282	-34.61255	1	44.31493	-51.35758	1.193125E-006	6.395087E-005	9
	33	89	150.2404	29.00703	-42.64412	1	51.5745	-55.776	1.056653E-006	6.69914E-005	9
	34	92	119.1737	30.71886	-52.5905	1	60.90491	-59.71019	1.019018E-006	6.115792E-005	9
	35	94	95.0169	32.83626	-64.48698	1	72.36567	-63.01516	1.030263E-006	6.089562E-005	9
	36	97	75.60484	35.50225	-79.12877	1	86.72815	-65.83593	1.132015E-006	6.218848E-005	9
	37	99	54.50582	40.43179	-105.862	1	113.3203	-69.09669	1.107977E-006	5.27498E-005	9
	38	102	45.95588	43.62615	-123.1419	1	130.6414	-70.49202	1.10038E-006	6.197846E-005	9
	39	104	37.20238	48.24953	-148.4606	1	156.1044	-71.9959	1.04802E-006	6.832583E-005	9
	40	106	30.04808	53.82763	-179.3696	1	187.2722	-73.29585	1.046426E-006	6.583201E-005	9
	41	109	23.91582	60.9437	-219.591	1	227.8911	-74.48892	1.129909E-006	5.433774E-005	9
	42	111	18.60119	70.61524	-274.6189	1	283.5526	-75.57943	1.093428E-006	6.912687E-005	9
	43	114	15.02404	80.7461	-332.3994	1	342.0662	-76.34624	1.089336E-006	5.768138E-005	9
	44	116	12.01923	93.88892	-405.8606	1	416.5789	-76.97472	1.256445E-006	5.912653E-005	9
	45	118	9.450605	111.3083	-501.5885	1	513.7904	-77.48816	3.791288E-007	0.0006444	8
	46	121	7.512019	133.1531	-616.3035	1	630.5234	-77.80856	3.800175E-007	0.0006314	8
	47	124	5.978954	160.9565	-756.3544	1	773.291	-77.98634	3.970901E-007	0.0006474	8
	48	127	4.734848	198.0939	-932.6839	1	953.489	-78.00906	5.236184E-007	0.0006576	8
	49	130	3.75601	246.9391	-1146.31	1	1172.606	-77.84307	4.151551E-007	0.0006675	8
	50	133	3.004808	308.2455	-1395.479	1	1429.117	-77.54402	4.861806E-007	0.000616	8
	51	137	2.372217	395.1241	-1714.089	1	1759.04	-77.01918	4.906461E-007	0.0006383	8
	52	141	1.878005	509.8646	-2103.24	1	2164.158	-76.37331	4.38019E-007	0.0006332	8
	53	146	1.512097	642.6123	-2529.122	1	2609.484	-75.74368	4.896996E-007	0.00056	8
	54	151	1.201923	835.0402	-3072.031	1	3183.499	-74.79327	4.611259E-007	0.0006238	8
	55	158	0.956633	1077.444	-3706.945	1	3860.353	-73.79321	4.454151E-007	-6.125447E-009	8
