EXPLAIN
TAG	EISPOT
TITLE	LABEL	Potentiostatic EIS	Test Identifier
DATE	LABEL	9/22/2020	Date
TIME	LABEL	0:52:38	Time
NOTES	NOTES	1	Notes...
	
PSTAT	PSTAT	REF3000-16137	Potentiostat
VDC	POTEN	0.00000E+000	T	DC Voltage (V)
FREQINIT	QUANT	3.00000E+005	Initial Freq. (Hz)
FREQFINAL	QUANT	1.00000E+000	Final Freq. (Hz)
PTSPERDEC	QUANT	1.00000E+001	Points/decade
VAC	QUANT	5.00000E+001	AC Voltage (mV rms)
AREA	QUANT	1.00000E+000	Sample Area (cm^2)
SPEED	SELECTOR	2	Optimize for:
ZGUESS	QUANT	1.00000E+003	Estimated Z (ohms)
EOC	QUANT	0	Open Circuit (V)
SEQUENCER	TOGGLE	TRUE	Run as Sequence
PSTATMODEL	IQUANT	5	Pstat Model
PSTATSECTION	LABEL	REF3000-16137	Pstat Section
PSTATSERIALNO	LABEL	16137	Pstat Serial Number
CTRLMODE	IQUANT	1	Control Mode
IESTAB	IQUANT	0	I/E Stability
CASPEED	IQUANT	1	Control Amp Speed
CONVENTION	IQUANT	1	Current Convention
ICHRANGE	IQUANT	2	Ich Range
ICHRANGEMODE	TOGGLE	F	Ich Auto Range
ICHOFFSETENABLE	TOGGLE	T	Ich Offset Enable
ICHOFFSET	QUANT	0	Ich Offset (V)
ICHFILTER	IQUANT	3	Ich Filter
VCHRANGE	IQUANT	2	Vch Range
VCHRANGEMODE	TOGGLE	F	Vch Auto Range
VCHOFFSETENABLE	TOGGLE	T	Vch Offset Enable
VCHOFFSET	QUANT	0	Vch Offset (V)
VCHFILTER	IQUANT	3	Vch Filter
ACHRANGE	IQUANT	2	Ach Range
ACHOFFSETENABLE	TOGGLE	F	Ach Offset Enable
ACHOFFSET	QUANT	0	Ach Offset (V)
ACHFILTER	IQUANT	3	Ach Filter
IERANGELOWERLIMIT	IQUANT	2	I/E Range Lower Limit
IERANGEMODE	TOGGLE	F	I/E AutoRange
IERANGE	IQUANT	11	I/E Range
POSFEEDENABLE	TOGGLE	F	Positive Feedback IR Comp
POSFEEDRESISTANCE	QUANT	0	Positive Feedback Resistance (ohm)
ACHSELECT	IQUANT	0	Ach Select
CABLEID	IQUANT	13	Cable ID
DCCALDATE	LABEL	7/31/2020	DC Calibration Date
ACCALDATE	LABEL	7/31/2020	AC Calibration Date
THERMOSELECT	IQUANT	1	Thermo Select
FRAMEWORKVERSION	QUANT	6.33	Framework Version
INSTRUMENTVERSION	LABEL	3.50	Instrument Version
COMPLIANCEVOLTAGE	IQUANT	0	Compliance Voltage
ZCURVE	TABLE
	Pt	Time	Freq	Zreal	Zimag	Zsig	Zmod	Zphz	Idc	Vdc	IERange
	#	s	Hz	ohm	ohm	V	ohm	°	A	V	#
	0	8	300046.9	18.19616	2.045919	1	18.31082	6.415214	-7.81752E-006	0.0001385	10
	1	11	238359.4	18.16118	1.61916	1	18.23321	5.094736	-8.804677E-005	0.0004405	10
	2	14	189328.1	18.1587	1.269208	1	18.20301	3.998204	-1.109916E-005	0.0005688	10
	3	17	150421.9	18.15215	0.995836	1	18.17945	3.140127	-2.42507E-005	0.0005222	10
	4	19	119484.4	18.17593	0.7605459	1	18.19183	2.396063	-2.074624E-005	0.0006567	10
	5	22	94921.88	18.18315	0.5772589	1	18.19231	1.818354	2.773106E-005	0.0006129	10
	6	25	75421.88	18.19952	0.4074312	1	18.20408	1.282462	-2.417995E-005	0.0007062	10
	7	27	59859.37	18.21649	0.2623819	1	18.21838	0.8252047	2.454538E-005	0.0006496	10
	8	30	47578.12	18.23432	0.1358448	1	18.23483	0.4268428	-7.561775E-006	0.0006378	10
	9	32	37828.12	18.25447	0.0170048	1	18.25447	0.0533735	2.244282E-005	0.000613	10
	10	35	30046.88	18.27655	-0.0980949	1	18.27681	-0.3075181	-2.671567E-005	0.0006397	10
	11	37	23859.38	18.29897	-0.2177103	1	18.30026	-0.6816393	-1.267346E-005	0.0006242	10
	12	40	18984.38	18.32065	-0.3412243	1	18.32383	-1.067017	1.321272E-005	0.0005877	10
	13	42	15046.87	18.34966	-0.4821632	1	18.356	-1.505181	3.798629E-006	0.0005926	10
	14	44	11953.13	18.38021	-0.646642	1	18.39158	-2.014916	-2.440454E-005	0.0007352	10
	15	47	9515.62	18.4108	-0.8369443	1	18.42981	-2.602842	-2.716603E-005	0.0007139	10
	16	49	7546.875	18.44677	-1.066764	1	18.47759	-3.309688	-2.7084E-005	0.0007115	10
	17	51	5928.309	18.49151	-1.360722	1	18.54151	-4.2086	-5.557631E-006	0.0006875	10
	18	53	4733.456	18.54028	-1.696757	1	18.61776	-5.228994	-4.622545E-006	0.0006941	10
	19	56	3796.875	18.60204	-2.096466	1	18.71981	-6.43015	7.581939E-006	0.0007014	10
	20	58	2987.132	18.6718	-2.630025	1	18.85611	-8.017678	2.150269E-005	0.0006495	10
	21	60	2390.625	18.75951	-3.242214	1	19.03762	-9.80559	1.328537E-005	0.0006353	10
	22	63	1884.191	18.86806	-4.049222	1	19.29767	-12.11237	-2.941505E-005	0.0006932	10
	23	65	1516.544	18.99193	-4.965329	1	19.63028	-14.65169	1.422359E-005	0.0006622	10
	24	67	1193.986	19.16083	-6.200149	1	20.139	-17.93078	-2.836868E-005	0.0006907	10
	25	70	946.5144	19.36388	-7.69007	1	20.835	-21.65974	7.610092E-006	0.000696	10
	26	72	751.7689	19.62127	-9.51902	1	21.80839	-25.87978	-1.641432E-005	0.0006897	10
	27	74	597.4265	19.94544	-11.75753	1	23.15297	-30.51869	-1.16266E-005	0.0006401	10
	28	77	477.4305	20.33435	-14.45712	1	24.94983	-35.41171	-2.441048E-006	0.0006563	10
	29	79	376.6741	20.86222	-17.97522	1	27.53799	-40.74871	-2.60274E-006	0.0006575	10
	30	81	298.2954	21.5194	-22.25842	1	30.96	-45.96714	-2.656554E-006	0.000668	10
	31	84	237.7717	22.33123	-27.38083	1	35.33262	-50.80005	-2.944744E-006	0.0006616	10
	32	86	189.0121	23.34863	-33.70244	1	41.00015	-55.28627	1.166269E-006	6.315991E-005	9
	33	89	150.2404	24.67783	-41.49715	1	48.28053	-59.26059	1.101117E-006	6.374254E-005	9
	34	91	119.1737	26.37817	-51.13436	1	57.53721	-62.7126	1.122137E-006	6.235915E-005	9
	35	93	95.0169	28.46131	-62.64522	1	68.80749	-65.5665	1.048458E-006	6.496395E-005	9
	36	96	75.60484	31.06186	-76.80056	1	82.84422	-67.97922	1.059759E-006	5.815069E-005	9
	37	98	54.50582	35.80599	-102.6641	1	108.729	-70.77285	1.03992E-006	6.365822E-005	9
	38	101	45.95588	38.86045	-119.4199	1	125.5836	-71.97458	1.068507E-006	7.365008E-005	9
	39	103	37.20238	43.28584	-143.9906	1	150.3561	-73.26839	1.143717E-006	6.093337E-005	9
	40	106	30.04808	48.57884	-173.998	1	180.6521	-74.4007	1.067713E-006	5.930266E-005	9
	41	108	23.91582	55.45242	-213.1596	1	220.2544	-75.418	1.179592E-006	5.674395E-005	9
	42	110	18.60119	64.86415	-266.8199	1	274.5909	-76.3364	1.132096E-006	5.236873E-005	9
	43	113	15.02404	74.89929	-323.0915	1	331.6595	-76.9482	1.266015E-006	7.278495E-005	9
	44	115	12.01923	87.94999	-394.8293	1	404.5064	-77.44214	1.264882E-006	6.640526E-005	9
	45	117	9.450605	105.4249	-487.9585	1	499.2173	-77.80847	4.841793E-007	0.0006347	8
	46	120	7.512019	127.5487	-599.6277	1	613.0433	-77.99142	4.329889E-007	0.0006264	8
	47	123	5.978954	156.4202	-735.4318	1	751.8824	-77.9926	4.898139E-007	0.000643	8
	48	126	4.734848	194.8879	-906.1364	1	926.8573	-77.86198	4.305071E-007	0.0006241	8
	49	129	3.75601	245.5992	-1111.936	1	1138.737	-77.54476	5.2305E-007	0.0006607	8
	50	132	3.004808	310.2584	-1351.09	1	1386.256	-77.06707	4.811443E-007	0.0006279	8
	51	136	2.372217	402.8962	-1658.948	1	1707.171	-76.34929	4.683578E-007	0.0005639	8
	52	140	1.878005	519.1052	-2027.141	1	2092.551	-75.6365	5.119674E-007	0.0006415	8
	53	145	1.512097	661.634	-2425.854	1	2514.464	-74.74406	4.695727E-007	0.0006133	8
	54	151	1.201923	857.0192	-2940.827	1	3063.159	-73.75276	4.949337E-007	0.0006654	8
	55	157	0.956633	1106.469	-3538.372	1	3707.337	-72.63525	4.415377E-007	2.487495E-006	8
