EXPLAIN
TAG	EISPOT
TITLE	LABEL	Potentiostatic EIS	Test Identifier
DATE	LABEL	9/22/2020	Date
TIME	LABEL	2:26:41	Time
NOTES	NOTES	1	Notes...
	
PSTAT	PSTAT	REF3000-16137	Potentiostat
VDC	POTEN	0.00000E+000	T	DC Voltage (V)
FREQINIT	QUANT	3.00000E+005	Initial Freq. (Hz)
FREQFINAL	QUANT	1.00000E+000	Final Freq. (Hz)
PTSPERDEC	QUANT	1.00000E+001	Points/decade
VAC	QUANT	5.00000E+001	AC Voltage (mV rms)
AREA	QUANT	1.00000E+000	Sample Area (cm^2)
SPEED	SELECTOR	2	Optimize for:
ZGUESS	QUANT	1.00000E+003	Estimated Z (ohms)
EOC	QUANT	0	Open Circuit (V)
SEQUENCER	TOGGLE	TRUE	Run as Sequence
PSTATMODEL	IQUANT	5	Pstat Model
PSTATSECTION	LABEL	REF3000-16137	Pstat Section
PSTATSERIALNO	LABEL	16137	Pstat Serial Number
CTRLMODE	IQUANT	1	Control Mode
IESTAB	IQUANT	0	I/E Stability
CASPEED	IQUANT	1	Control Amp Speed
CONVENTION	IQUANT	1	Current Convention
ICHRANGE	IQUANT	2	Ich Range
ICHRANGEMODE	TOGGLE	F	Ich Auto Range
ICHOFFSETENABLE	TOGGLE	T	Ich Offset Enable
ICHOFFSET	QUANT	0	Ich Offset (V)
ICHFILTER	IQUANT	3	Ich Filter
VCHRANGE	IQUANT	2	Vch Range
VCHRANGEMODE	TOGGLE	F	Vch Auto Range
VCHOFFSETENABLE	TOGGLE	T	Vch Offset Enable
VCHOFFSET	QUANT	0	Vch Offset (V)
VCHFILTER	IQUANT	3	Vch Filter
ACHRANGE	IQUANT	2	Ach Range
ACHOFFSETENABLE	TOGGLE	F	Ach Offset Enable
ACHOFFSET	QUANT	0	Ach Offset (V)
ACHFILTER	IQUANT	3	Ach Filter
IERANGELOWERLIMIT	IQUANT	2	I/E Range Lower Limit
IERANGEMODE	TOGGLE	F	I/E AutoRange
IERANGE	IQUANT	11	I/E Range
POSFEEDENABLE	TOGGLE	F	Positive Feedback IR Comp
POSFEEDRESISTANCE	QUANT	0	Positive Feedback Resistance (ohm)
ACHSELECT	IQUANT	0	Ach Select
CABLEID	IQUANT	13	Cable ID
DCCALDATE	LABEL	7/31/2020	DC Calibration Date
ACCALDATE	LABEL	7/31/2020	AC Calibration Date
THERMOSELECT	IQUANT	1	Thermo Select
FRAMEWORKVERSION	QUANT	6.33	Framework Version
INSTRUMENTVERSION	LABEL	3.50	Instrument Version
COMPLIANCEVOLTAGE	IQUANT	0	Compliance Voltage
ZCURVE	TABLE
	Pt	Time	Freq	Zreal	Zimag	Zsig	Zmod	Zphz	Idc	Vdc	IERange
	#	s	Hz	ohm	ohm	V	ohm	°	A	V	#
	0	8	300046.9	194.9645	-6.207542	1	195.0633	-1.823644	7.825329E-005	-0.0026892	9
	1	11	238359.4	195.6089	-5.980743	1	195.7003	-1.751274	-7.785263E-006	-0.0016221	9
	2	14	189328.1	195.5235	-4.949272	1	195.5862	-1.450014	7.83437E-005	-0.0024647	9
	3	17	150421.9	197.1596	-4.494425	1	197.2108	-1.305881	-5.519336E-005	0.0006698	9
	4	19	119484.4	197.1531	-3.400426	1	197.1824	-0.988119	2.159393E-005	-0.0004599	9
	5	23	94921.88	197.7334	-2.661421	1	197.7513	-0.771134	1.003055E-005	-0.000677	9
	6	26	75421.88	198.3839	-2.448925	1	198.399	-0.7072447	2.725544E-005	-0.0007347	9
	7	28	59859.37	198.6289	-2.042363	1	198.6394	-0.589112	-1.628504E-005	0.0009168	9
	8	31	47578.12	199.0124	-1.788981	1	199.0205	-0.5150347	1.553135E-005	-0.0008214	9
	9	33	37828.12	199.2953	-1.699195	1	199.3026	-0.4884929	-2.066637E-005	0.0004689	9
	10	36	30046.88	199.7556	-1.483929	1	199.7611	-0.4256266	2.351418E-005	-0.0002618	9
	11	38	23859.38	200.0528	-1.367544	1	200.0574	-0.3916631	-9.87865E-006	-9.014901E-005	9
	12	41	18984.38	200.4152	-1.357917	1	200.4198	-0.3882027	1.535672E-005	-0.0007965	9
	13	43	15046.87	200.9419	-1.095384	1	200.9449	-0.3123302	2.593438E-005	-0.000811	9
	14	45	11953.13	201.0784	-1.787023	1	201.0864	-0.5091854	-2.810506E-005	0.0008419	9
	15	48	9515.62	201.6217	-1.39772	1	201.6266	-0.3971903	5.508303E-006	0.0004718	9
	16	50	7546.875	201.5118	-1.955811	1	201.5213	-0.5560777	-2.144388E-005	0.000466	9
	17	52	5928.309	201.8303	-2.165747	1	201.8419	-0.6147908	6.383465E-006	-0.0006122	9
	18	54	4733.456	202.7561	-2.366457	1	202.7699	-0.6686941	2.361082E-005	-0.0002418	9
	19	57	3796.875	203.3829	-3.179266	1	203.4077	-0.8955702	1.815009E-005	-5.408689E-005	9
	20	59	2987.132	203.1732	-3.743426	1	203.2077	-1.055544	-2.292313E-006	-0.0003434	9
	21	61	2390.625	203.4466	-4.304755	1	203.4921	-1.212149	7.985601E-006	-0.0006582	9
	22	64	1884.191	203.8245	-5.328936	1	203.8942	-1.497641	1.907876E-005	-5.358701E-005	9
	23	66	1516.544	204.158	-6.62307	1	204.2654	-1.858075	-2.250395E-005	0.0006464	9
	24	68	1193.986	204.5931	-8.24162	1	204.759	-2.306798	2.163846E-005	-0.0008392	9
	25	71	946.5144	205.5271	-10.26079	1	205.783	-2.858078	2.548863E-005	-0.0007485	9
	26	73	751.7689	205.9792	-12.52561	1	206.3597	-3.479875	-2.044406E-005	0.0004729	9
	27	76	597.4265	206.6324	-15.68726	1	207.2271	-4.341491	-1.565646E-005	0.0001455	9
	28	78	477.4305	207.2746	-19.11169	1	208.1539	-5.268044	1.076197E-006	6.294181E-005	9
	29	80	376.6741	208.1557	-23.76521	1	209.508	-6.513278	1.059967E-006	5.352358E-005	9
	30	83	298.2954	209.182	-29.45919	1	211.2462	-8.016273	1.048943E-006	6.04679E-005	9
	31	85	237.7717	210.3647	-36.31546	1	213.4762	-9.79449	1.071164E-006	6.352412E-005	9
	32	87	189.0121	211.7997	-44.86849	1	216.5001	-11.96093	9.850374E-007	5.561098E-005	9
	33	90	150.2404	213.5344	-55.42633	1	220.6105	-14.55094	1.044016E-006	5.716706E-005	9
	34	92	119.1737	215.6841	-68.59322	1	226.3287	-17.64203	1.018044E-006	5.613831E-005	9
	35	94	95.0169	218.2814	-84.42668	1	234.0399	-21.14542	1.008557E-006	5.791023E-005	9
	36	97	75.60484	221.529	-104.0528	1	244.749	-25.15957	1.072414E-006	5.428272E-005	9
	37	100	54.50582	227.4656	-140.2165	1	267.2101	-31.65091	1.078933E-006	5.584517E-005	9
	38	102	45.95588	231.5208	-163.7258	1	283.5631	-35.26702	1.030782E-006	6.380607E-005	9
	39	104	37.20238	237.4241	-198.2636	1	309.3197	-39.86394	1.082694E-006	6.150969E-005	9
	40	107	30.04808	244.7638	-240.4817	1	343.1338	-44.4944	1.081746E-006	6.096908E-005	9
	41	109	23.91582	254.4523	-295.3996	1	389.8806	-49.25893	9.880972E-007	5.571274E-005	9
	42	112	18.60119	266.813	-368.8174	1	455.2092	-54.11695	-3.752736E-008	0.0006429	8
	43	114	15.02404	281.3065	-446.7279	1	527.9197	-57.8012	-8.314854E-008	0.0006331	8
	44	116	12.01923	300.0074	-545.0346	1	622.1472	-61.16998	2.866544E-008	0.0006306	8
	45	119	9.450605	325.3794	-674.822	1	749.1705	-64.258	4.698831E-008	0.0006427	8
	46	121	7.512019	355.0759	-826.6475	1	899.6805	-66.75467	3.631553E-008	0.0006603	8
	47	124	5.978954	391.6397	-1010.63	1	1083.861	-68.81764	1.693801E-009	0.0006331	8
	48	127	4.734848	436.2995	-1240.985	1	1315.447	-70.62959	3.505127E-008	0.0006702	8
	49	130	3.75601	490.604	-1520.668	1	1597.849	-72.11905	-2.114972E-008	0.0006337	8
	50	134	3.004808	552.7127	-1848.84	1	1929.689	-73.35591	1.565909E-008	0.00064	8
	51	137	2.372217	633.3193	-2273.917	1	2360.464	-74.4367	3.285315E-008	0.0006368	8
	52	142	1.878005	733.4402	-2802.285	1	2896.676	-75.33302	2.42869E-009	0.000634	8
	53	146	1.512097	838.3525	-3393.705	1	3495.721	-76.12394	3.285468E-008	0.000572	8
	54	152	1.201923	992.972	-4179.178	1	4295.523	-76.63437	-2.816178E-008	0.0006079	7
	55	158	0.956633	1175.774	-5120.451	1	5253.709	-77.06774	-2.633677E-008	-3.156858E-005	7
