EXPLAIN
TAG	EISPOT
TITLE	LABEL	Potentiostatic EIS	Test Identifier
DATE	LABEL	9/22/2020	Date
TIME	LABEL	0:49:52	Time
NOTES	NOTES	1	Notes...
	
PSTAT	PSTAT	REF3000-16137	Potentiostat
VDC	POTEN	0.00000E+000	T	DC Voltage (V)
FREQINIT	QUANT	3.00000E+005	Initial Freq. (Hz)
FREQFINAL	QUANT	1.00000E+000	Final Freq. (Hz)
PTSPERDEC	QUANT	1.00000E+001	Points/decade
VAC	QUANT	5.00000E+001	AC Voltage (mV rms)
AREA	QUANT	1.00000E+000	Sample Area (cm^2)
SPEED	SELECTOR	2	Optimize for:
ZGUESS	QUANT	1.00000E+003	Estimated Z (ohms)
EOC	QUANT	0	Open Circuit (V)
SEQUENCER	TOGGLE	TRUE	Run as Sequence
PSTATMODEL	IQUANT	5	Pstat Model
PSTATSECTION	LABEL	REF3000-16137	Pstat Section
PSTATSERIALNO	LABEL	16137	Pstat Serial Number
CTRLMODE	IQUANT	1	Control Mode
IESTAB	IQUANT	0	I/E Stability
CASPEED	IQUANT	1	Control Amp Speed
CONVENTION	IQUANT	1	Current Convention
ICHRANGE	IQUANT	2	Ich Range
ICHRANGEMODE	TOGGLE	F	Ich Auto Range
ICHOFFSETENABLE	TOGGLE	T	Ich Offset Enable
ICHOFFSET	QUANT	0	Ich Offset (V)
ICHFILTER	IQUANT	3	Ich Filter
VCHRANGE	IQUANT	2	Vch Range
VCHRANGEMODE	TOGGLE	F	Vch Auto Range
VCHOFFSETENABLE	TOGGLE	T	Vch Offset Enable
VCHOFFSET	QUANT	0	Vch Offset (V)
VCHFILTER	IQUANT	3	Vch Filter
ACHRANGE	IQUANT	2	Ach Range
ACHOFFSETENABLE	TOGGLE	F	Ach Offset Enable
ACHOFFSET	QUANT	0	Ach Offset (V)
ACHFILTER	IQUANT	3	Ach Filter
IERANGELOWERLIMIT	IQUANT	2	I/E Range Lower Limit
IERANGEMODE	TOGGLE	F	I/E AutoRange
IERANGE	IQUANT	11	I/E Range
POSFEEDENABLE	TOGGLE	F	Positive Feedback IR Comp
POSFEEDRESISTANCE	QUANT	0	Positive Feedback Resistance (ohm)
ACHSELECT	IQUANT	0	Ach Select
CABLEID	IQUANT	13	Cable ID
DCCALDATE	LABEL	7/31/2020	DC Calibration Date
ACCALDATE	LABEL	7/31/2020	AC Calibration Date
THERMOSELECT	IQUANT	1	Thermo Select
FRAMEWORKVERSION	QUANT	6.33	Framework Version
INSTRUMENTVERSION	LABEL	3.50	Instrument Version
COMPLIANCEVOLTAGE	IQUANT	0	Compliance Voltage
ZCURVE	TABLE
	Pt	Time	Freq	Zreal	Zimag	Zsig	Zmod	Zphz	Idc	Vdc	IERange
	#	s	Hz	ohm	ohm	V	ohm	°	A	V	#
	0	8	300046.9	17.30533	2.028495	1	17.42382	6.685584	2.66164E-005	0.0002487	10
	1	11	238359.4	17.29386	1.630352	1	17.37054	5.385556	-2.66577E-005	0.0002854	10
	2	14	189328.1	17.29457	1.27958	1	17.34185	4.231453	5.023134E-006	0.0006169	10
	3	17	150421.9	17.2847	0.994446	1	17.31328	3.292785	2.535867E-005	0.0007058	10
	4	19	119484.4	17.30381	0.7626129	1	17.32061	2.523505	5.819977E-005	0.0005069	10
	5	22	94921.88	17.31287	0.5870767	1	17.32282	1.942147	-2.281367E-005	0.0006618	10
	6	25	75421.88	17.32719	0.4151427	1	17.33216	1.372489	-2.851282E-005	0.0006245	10
	7	27	59859.37	17.34428	0.2671464	1	17.34634	0.882432	-1.124938E-005	0.0006263	10
	8	30	47578.12	17.36166	0.1396566	1	17.36222	0.4608753	1.922667E-005	0.000594	10
	9	32	37828.12	17.37761	0.0240451	1	17.37763	0.079279	2.081561E-005	0.0005803	10
	10	35	30046.88	17.40087	-0.0932512	1	17.40112	-0.3070451	-1.611186E-005	0.0006659	10
	11	37	23859.38	17.42187	-0.2116153	1	17.42315	-0.6959108	2.387277E-005	0.0006575	10
	12	40	18984.38	17.44505	-0.3378628	1	17.44832	-1.109523	-1.211023E-005	0.0007246	10
	13	42	15046.87	17.46731	-0.4788671	1	17.47388	-1.570373	1.858181E-005	0.0005886	10
	14	44	11953.13	17.49473	-0.6412066	1	17.50648	-2.099032	2.08621E-005	0.0006266	10
	15	46	9515.62	17.52881	-0.8298887	1	17.54845	-2.710602	-2.524199E-005	0.0006966	10
	16	49	7546.875	17.56418	-1.059987	1	17.59614	-3.453576	2.282209E-005	0.0006174	10
	17	51	5928.309	17.60892	-1.351964	1	17.66074	-4.390397	5.576624E-006	0.0006622	10
	18	53	4733.456	17.66026	-1.68421	1	17.74039	-5.447666	2.240023E-005	0.0006084	10
	19	56	3796.875	17.71336	-2.082011	1	17.8353	-6.703731	5.496935E-006	0.0005941	10
	20	58	2987.132	17.78693	-2.613177	1	17.97787	-8.35785	2.358609E-005	0.0006328	10
	21	60	2390.625	17.87359	-3.225587	1	18.16231	-10.22987	-2.754413E-005	0.0006544	10
	22	63	1884.191	17.98544	-4.029842	1	18.43138	-12.62919	-1.828082E-005	0.0006578	10
	23	65	1516.544	18.10453	-4.931541	1	18.76417	-15.23727	4.932146E-006	0.0006667	10
	24	67	1193.986	18.26918	-6.159507	1	19.27958	-18.63169	2.115895E-005	0.0006184	10
	25	70	946.5144	18.47307	-7.649143	1	19.99409	-22.49298	-2.994626E-005	0.0006704	10
	26	72	751.7689	18.73127	-9.454681	1	20.98217	-26.78253	-2.454563E-005	0.0007117	10
	27	74	597.4265	19.04634	-11.68692	1	22.34607	-31.53346	-1.143601E-005	0.0006425	10
	28	77	477.4305	19.43664	-14.36851	1	24.171	-36.47361	-2.874167E-006	0.0006654	10
	29	79	376.6741	19.96277	-17.86403	1	26.78872	-41.82431	-2.90879E-006	0.0006611	10
	30	81	298.2954	20.61792	-22.11885	1	30.23809	-47.01143	-3.290444E-006	0.0006643	10
	31	84	237.7717	21.42911	-27.20773	1	34.63332	-51.77563	-3.233609E-006	0.0006575	10
	32	86	189.0121	22.47396	-33.52505	1	40.36097	-56.16356	-2.658708E-006	0.0006681	10
	33	89	150.2404	23.77442	-41.22213	1	47.58663	-60.02626	1.064006E-006	6.15094E-005	9
	34	91	119.1737	25.47069	-50.78412	1	56.81358	-63.36402	1.114519E-006	6.46344E-005	9
	35	93	95.0169	27.54463	-62.20155	1	68.02749	-66.11486	1.069322E-006	6.39036E-005	9
	36	96	75.60484	30.12437	-76.24256	1	81.97808	-68.44041	9.878097E-007	5.889211E-005	9
	37	98	54.50582	34.82071	-101.9105	1	107.6951	-71.13576	9.863078E-007	5.777918E-005	9
	38	101	45.95588	37.84449	-118.5383	1	124.4329	-72.29382	1.10858E-006	5.951754E-005	9
	39	103	37.20238	42.21357	-142.922	1	149.0257	-73.54491	1.144985E-006	5.997635E-005	9
	40	106	30.04808	47.48241	-172.7918	1	179.1971	-74.63464	1.111459E-006	6.059155E-005	9
	41	108	23.91582	54.2982	-211.7135	1	218.5655	-75.61538	8.085296E-007	0.0001056	9
	42	111	18.60119	63.64114	-265.0273	1	272.5612	-76.49719	1.234041E-006	6.08845E-005	9
	43	113	15.02404	73.54945	-320.9236	1	329.2437	-77.09184	1.291612E-006	6.592349E-005	9
	44	115	12.01923	86.68835	-392.1138	1	401.582	-77.53359	1.175488E-006	5.696541E-005	9
	45	118	9.450605	104.2416	-484.6875	1	495.7704	-77.8623	3.726257E-007	0.0006464	8
	46	120	7.512019	126.6945	-595.4033	1	608.7336	-77.98733	3.819187E-007	0.0006268	8
	47	123	5.978954	155.6465	-730.4331	1	746.8322	-77.97087	4.3284E-007	0.0006448	8
	48	126	4.734848	195.2368	-899.3633	1	920.3107	-77.75208	4.696099E-007	0.0006262	8
	49	129	3.75601	246.3244	-1103.902	1	1131.051	-77.42111	4.481719E-007	0.0006487	8
	50	132	3.004808	311.2503	-1341.362	1	1377	-76.93625	5.042075E-007	0.0006081	8
	51	136	2.372217	401.8773	-1646.146	1	1694.492	-76.28061	4.761603E-007	0.0005772	8
	52	140	1.878005	523.2327	-2008.246	1	2075.289	-75.39669	4.624183E-007	0.0006503	8
	53	145	1.512097	668.8255	-2405.894	1	2497.129	-74.46436	4.720207E-007	0.0005396	8
	54	151	1.201923	864.474	-2909.429	1	3035.143	-73.45182	4.701834E-007	0.0006621	8
	55	157	0.956633	1114.06	-3496.807	1	3669.984	-72.32846	4.38883E-007	-3.037016E-006	8
