EXPLAIN
TAG	EISPOT
TITLE	LABEL	Potentiostatic EIS	Test Identifier
DATE	LABEL	9/22/2020	Date
TIME	LABEL	2:32:17	Time
NOTES	NOTES	1	Notes...
	
PSTAT	PSTAT	REF3000-16137	Potentiostat
VDC	POTEN	0.00000E+000	T	DC Voltage (V)
FREQINIT	QUANT	3.00000E+005	Initial Freq. (Hz)
FREQFINAL	QUANT	1.00000E+000	Final Freq. (Hz)
PTSPERDEC	QUANT	1.00000E+001	Points/decade
VAC	QUANT	5.00000E+001	AC Voltage (mV rms)
AREA	QUANT	1.00000E+000	Sample Area (cm^2)
SPEED	SELECTOR	2	Optimize for:
ZGUESS	QUANT	1.00000E+003	Estimated Z (ohms)
EOC	QUANT	0	Open Circuit (V)
SEQUENCER	TOGGLE	TRUE	Run as Sequence
PSTATMODEL	IQUANT	5	Pstat Model
PSTATSECTION	LABEL	REF3000-16137	Pstat Section
PSTATSERIALNO	LABEL	16137	Pstat Serial Number
CTRLMODE	IQUANT	1	Control Mode
IESTAB	IQUANT	0	I/E Stability
CASPEED	IQUANT	1	Control Amp Speed
CONVENTION	IQUANT	1	Current Convention
ICHRANGE	IQUANT	2	Ich Range
ICHRANGEMODE	TOGGLE	F	Ich Auto Range
ICHOFFSETENABLE	TOGGLE	T	Ich Offset Enable
ICHOFFSET	QUANT	0	Ich Offset (V)
ICHFILTER	IQUANT	3	Ich Filter
VCHRANGE	IQUANT	2	Vch Range
VCHRANGEMODE	TOGGLE	F	Vch Auto Range
VCHOFFSETENABLE	TOGGLE	T	Vch Offset Enable
VCHOFFSET	QUANT	0	Vch Offset (V)
VCHFILTER	IQUANT	3	Vch Filter
ACHRANGE	IQUANT	2	Ach Range
ACHOFFSETENABLE	TOGGLE	F	Ach Offset Enable
ACHOFFSET	QUANT	0	Ach Offset (V)
ACHFILTER	IQUANT	3	Ach Filter
IERANGELOWERLIMIT	IQUANT	2	I/E Range Lower Limit
IERANGEMODE	TOGGLE	F	I/E AutoRange
IERANGE	IQUANT	11	I/E Range
POSFEEDENABLE	TOGGLE	F	Positive Feedback IR Comp
POSFEEDRESISTANCE	QUANT	0	Positive Feedback Resistance (ohm)
ACHSELECT	IQUANT	0	Ach Select
CABLEID	IQUANT	13	Cable ID
DCCALDATE	LABEL	7/31/2020	DC Calibration Date
ACCALDATE	LABEL	7/31/2020	AC Calibration Date
THERMOSELECT	IQUANT	1	Thermo Select
FRAMEWORKVERSION	QUANT	6.33	Framework Version
INSTRUMENTVERSION	LABEL	3.50	Instrument Version
COMPLIANCEVOLTAGE	IQUANT	0	Compliance Voltage
ZCURVE	TABLE
	Pt	Time	Freq	Zreal	Zimag	Zsig	Zmod	Zphz	Idc	Vdc	IERange
	#	s	Hz	ohm	ohm	V	ohm	°	A	V	#
	0	15	300046.9	238.7811	-12.05131	1	239.0851	-2.889273	2.034662E-005	-0.0016069	9
	1	19	238359.4	239.3251	-14.2031	1	239.7462	-3.396318	-0.0001042	0.0004299	10
	2	23	189328.1	241.129	-8.391843	1	241.275	-1.99322	7.380792E-005	-0.0029729	9
	3	30	150421.9	241.7979	-7.579814	1	241.9166	-1.795505	2.156959E-005	-0.0004113	9
	4	35	119484.4	243.3021	-7.70128	1	243.424	-1.812987	2.493909E-005	0.0005784	10
	5	40	94921.88	244.0892	-4.682674	1	244.1341	-1.099043	-1.54357E-005	0.0001103	9
	6	44	75421.88	244.6761	-3.952143	1	244.7081	-0.9253923	7.334833E-006	-0.0006606	9
	7	48	59859.37	245.7811	-4.288359	1	245.8185	-0.999588	-1.565295E-005	0.0006656	10
	8	51	47578.12	246.146	-2.613508	1	246.1599	-0.6083273	1.548753E-005	-0.0008253	9
	9	55	37828.12	246.9805	-2.982965	1	246.9985	-0.6919697	-2.282451E-005	0.0007014	9
	10	59	30046.88	247.3604	-2.268918	1	247.3708	-0.5255319	1.542101E-005	-0.000815	9
	11	62	23859.38	248.0236	-1.86587	1	248.0307	-0.4310254	-2.370354E-006	-0.0003835	9
	12	66	18984.38	248.9104	-2.145621	1	248.9196	-0.4938805	-3.979249E-006	0.0006561	10
	13	69	15046.87	249.3187	-1.716714	1	249.3246	-0.3945108	2.156903E-005	-0.0008481	9
	14	73	11953.13	248.9785	-2.065045	1	248.9871	-0.4752042	1.335407E-005	0.0001439	9
	15	76	9515.62	250.4258	-1.794485	1	250.4322	-0.4105594	-2.21007E-005	0.0010333	9
	16	80	7546.875	251.0821	-2.052829	1	251.0905	-0.4684357	2.378838E-005	-0.0008754	9
	17	83	5928.309	251.3553	-2.19561	1	251.3649	-0.5004709	1.516838E-005	-0.0007928	9
	18	87	4733.456	251.8763	-2.853681	1	251.8924	-0.6491159	-9.291588E-006	-0.0001199	9
	19	90	3796.875	252.992	-3.033326	1	253.0102	-0.6869326	-9.424725E-006	0.0008544	9
	20	92	2987.132	253.0912	-3.945513	1	253.1219	-0.8931285	-2.128561E-005	0.0009826	9
	21	96	2390.625	253.374	-4.413547	1	253.4124	-0.99794	-2.493458E-005	0.0009704	9
	22	100	1884.191	255.2326	-6.193777	1	255.3077	-1.390135	-1.047782E-005	-6.134476E-005	9
	23	103	1516.544	255.208	-6.910864	1	255.3016	-1.551152	-1.476107E-005	6.855158E-005	9
	24	106	1193.986	256.124	-8.244456	1	256.2566	-1.843676	2.172491E-005	-0.0008529	9
	25	110	946.5144	256.9462	-10.05602	1	257.1429	-2.241223	2.281775E-005	-0.0008365	9
	26	114	751.7689	258.7057	-13.11696	1	259.038	-2.90254	2.259218E-005	0.0006681	10
	27	117	597.4265	259.0233	-15.81763	1	259.5058	-3.49451	-2.381283E-005	0.0006698	9
	28	121	477.4305	259.5824	-19.62827	1	260.3234	-4.324181	1.109487E-006	5.832399E-005	9
	29	123	376.6741	260.5693	-24.4	1	261.7093	-5.34964	1.020892E-006	5.709994E-005	9
	30	125	298.2954	261.6922	-30.23097	1	263.4325	-6.589663	1.024443E-006	6.032902E-005	9
	31	128	237.7717	262.9932	-37.26039	1	265.6196	-8.063891	1.096182E-006	6.485763E-005	9
	32	130	189.0121	264.5449	-46.0394	1	268.5211	-9.87245	1.01518E-006	6.396066E-005	9
	33	133	150.2404	266.3927	-56.87339	1	272.3961	-12.05141	9.666398E-007	5.727111E-005	9
	34	135	119.1737	268.6395	-70.38971	1	277.7083	-14.68273	1.074365E-006	5.775948E-005	9
	35	137	95.0169	271.3482	-86.66412	1	284.8518	-17.71262	1.012473E-006	5.578942E-005	9
	36	140	75.60484	274.7219	-106.8516	1	294.7701	-21.25328	1.061514E-006	5.585326E-005	9
	37	142	54.50582	280.7988	-144.049	1	315.5916	-27.1577	1.054796E-006	5.162678E-005	9
	38	145	45.95588	284.9991	-168.2616	1	330.9629	-30.55731	1.071193E-006	6.236086E-005	9
	39	147	37.20238	291.0932	-203.8192	1	355.3555	-34.99915	1.07202E-006	7.994672E-005	9
	40	150	30.04808	297.3687	-246.2679	1	386.1036	-39.63007	-2.3948E-008	0.000631	8
	41	152	23.91582	307.2448	-302.5823	1	431.2255	-44.56195	2.438945E-008	0.0006251	8
	42	155	18.60119	320.9242	-379.4624	1	496.9749	-49.77767	-6.682112E-008	0.0006421	8
	43	157	15.02404	335.5347	-459.6924	1	569.1227	-53.87387	-8.672885E-008	0.0006394	8
	44	159	12.01923	354.778	-561.2626	1	663.9903	-57.70274	6.263429E-008	0.0006333	8
	45	162	9.450605	380.5514	-695.5686	1	792.8651	-61.31656	-9.143805E-008	0.0006334	8
	46	164	7.512019	411.2874	-852.4378	1	946.4711	-64.24345	-7.659833E-008	0.0006351	8
	47	167	5.978954	449.0677	-1042.991	1	1135.558	-66.70533	-4.526398E-008	0.0006441	8
	48	170	4.734848	497.2186	-1281.161	1	1374.263	-68.78876	-2.70419E-008	0.0006381	8
	49	173	3.75601	553.6323	-1569.762	1	1664.53	-70.57299	-6.930949E-008	0.0006334	8
	50	177	3.004808	619.2946	-1906.961	1	2005	-72.00855	4.547894E-009	0.0006274	8
	51	180	2.372217	706.5546	-2343.71	1	2447.897	-73.2236	-8.827351E-009	0.0006776	8
	52	185	1.878005	807.9028	-2886.133	1	2997.077	-74.3617	-4.603152E-008	0.0006285	8
	53	189	1.512097	916.437	-3489.318	1	3607.658	-75.28416	-8.76775E-009	0.0005948	8
	54	195	1.201923	1072.475	-4295.521	1	4427.38	-75.9814	-2.875404E-008	0.0005932	7
	55	201	0.956633	1258.424	-5261.609	1	5410.005	-76.54919	-3.156687E-008	-2.679624E-005	7
