EXPLAIN
TAG	EISPOT
TITLE	LABEL	Potentiostatic EIS	Test Identifier
DATE	LABEL	9/22/2020	Date
TIME	LABEL	3:51:11	Time
NOTES	NOTES	1	Notes...
	
PSTAT	PSTAT	REF3000-16137	Potentiostat
VDC	POTEN	0.00000E+000	T	DC Voltage (V)
FREQINIT	QUANT	3.00000E+005	Initial Freq. (Hz)
FREQFINAL	QUANT	1.00000E+000	Final Freq. (Hz)
PTSPERDEC	QUANT	1.00000E+001	Points/decade
VAC	QUANT	5.00000E+001	AC Voltage (mV rms)
AREA	QUANT	1.00000E+000	Sample Area (cm^2)
SPEED	SELECTOR	2	Optimize for:
ZGUESS	QUANT	1.00000E+003	Estimated Z (ohms)
EOC	QUANT	0	Open Circuit (V)
SEQUENCER	TOGGLE	TRUE	Run as Sequence
PSTATMODEL	IQUANT	5	Pstat Model
PSTATSECTION	LABEL	REF3000-16137	Pstat Section
PSTATSERIALNO	LABEL	16137	Pstat Serial Number
CTRLMODE	IQUANT	1	Control Mode
IESTAB	IQUANT	0	I/E Stability
CASPEED	IQUANT	1	Control Amp Speed
CONVENTION	IQUANT	1	Current Convention
ICHRANGE	IQUANT	2	Ich Range
ICHRANGEMODE	TOGGLE	F	Ich Auto Range
ICHOFFSETENABLE	TOGGLE	T	Ich Offset Enable
ICHOFFSET	QUANT	0	Ich Offset (V)
ICHFILTER	IQUANT	3	Ich Filter
VCHRANGE	IQUANT	2	Vch Range
VCHRANGEMODE	TOGGLE	F	Vch Auto Range
VCHOFFSETENABLE	TOGGLE	T	Vch Offset Enable
VCHOFFSET	QUANT	0	Vch Offset (V)
VCHFILTER	IQUANT	3	Vch Filter
ACHRANGE	IQUANT	2	Ach Range
ACHOFFSETENABLE	TOGGLE	F	Ach Offset Enable
ACHOFFSET	QUANT	0	Ach Offset (V)
ACHFILTER	IQUANT	3	Ach Filter
IERANGELOWERLIMIT	IQUANT	2	I/E Range Lower Limit
IERANGEMODE	TOGGLE	F	I/E AutoRange
IERANGE	IQUANT	11	I/E Range
POSFEEDENABLE	TOGGLE	F	Positive Feedback IR Comp
POSFEEDRESISTANCE	QUANT	0	Positive Feedback Resistance (ohm)
ACHSELECT	IQUANT	0	Ach Select
CABLEID	IQUANT	13	Cable ID
DCCALDATE	LABEL	7/31/2020	DC Calibration Date
ACCALDATE	LABEL	7/31/2020	AC Calibration Date
THERMOSELECT	IQUANT	1	Thermo Select
FRAMEWORKVERSION	QUANT	6.33	Framework Version
INSTRUMENTVERSION	LABEL	3.50	Instrument Version
COMPLIANCEVOLTAGE	IQUANT	0	Compliance Voltage
ZCURVE	TABLE
	Pt	Time	Freq	Zreal	Zimag	Zsig	Zmod	Zphz	Idc	Vdc	IERange
	#	s	Hz	ohm	ohm	V	ohm	°	A	V	#
	0	22	300046.9	1267.968	-3437.631	1	3664.021	-69.75354	-2.611177E-005	-0.0012345	9
	1	47	238359.4	1801.891	-4006.131	1	4392.709	-65.78259	-2.836738E-005	-0.0012019	9
	2	60	189328.1	2747.465	-4323.774	1	5122.85	-57.56681	1.04581E-006	0.0015916	9
	3	68	150421.9	3439.981	-5232.641	1	6262.109	-56.67875	2.857478E-005	-0.0019126	9
	4	75	119484.4	4644.244	-5728.189	1	7374.358	-50.9659	-5.954431E-005	0.0072029	8
	5	83	94921.88	5717.938	-5996.325	1	8285.574	-46.36137	-1.107883E-005	0.0098758	8
	6	91	75421.88	7026.612	-6074.368	1	9288.23	-40.84277	-1.152428E-005	0.0100068	8
	7	100	59859.37	8417.634	-5963.252	1	10315.86	-35.31467	-1.586274E-005	0.000735	8
	8	108	47578.12	9604.57	-5694.335	1	11165.71	-30.66276	-1.722503E-006	0.0074274	8
	9	116	37828.12	11626.98	-4427.406	1	12441.41	-20.8462	5.027955E-006	-0.0244841	7
	10	123	30046.88	12316.49	-3832.195	1	12898.9	-17.28318	5.904868E-006	-0.0084087	7
	11	129	23859.38	12881.56	-3331.115	1	13305.3	-14.49882	4.3216E-006	0.0003891	7
	12	133	18984.38	13327.63	-2810.052	1	13620.65	-11.90609	-6.026233E-006	0.0104683	7
	13	138	15046.87	13646.1	-2291.275	1	13837.13	-9.53145	4.535015E-006	-0.0003454	7
	14	142	11953.13	13978.4	-1932.729	1	14111.38	-7.872109	5.971798E-006	-0.0084677	7
	15	146	9515.62	14092.18	-1612.28	1	14184.11	-6.526804	-4.775032E-006	0.0029389	7
	16	150	7546.875	14253.46	-1296.38	1	14312.3	-5.196861	-6.737607E-006	0.0213209	7
	17	155	5928.309	14357.79	-1023.191	1	14394.2	-4.076225	-3.640674E-006	0.0237056	7
	18	159	4733.456	14544.77	-988.881	1	14578.34	-3.889483	-1.861991E-006	0.0208219	7
	19	163	3796.875	14671.09	-682.098	1	14686.94	-2.661916	-7.964376E-007	-0.0126946	7
	20	167	2987.132	14676.67	-520.2866	1	14685.89	-2.03028	5.946884E-006	-0.0085241	7
	21	172	2390.625	14739.37	-599.9637	1	14751.57	-2.330929	3.477009E-006	-0.0234012	7
	22	176	1884.191	14729.77	-513.0115	1	14738.71	-1.994702	-2.9156E-006	-0.0055271	7
	23	180	1516.544	15015.4	-263.4454	1	15017.71	-1.005152	-7.700223E-007	-0.0129053	7
	24	185	1193.986	14977	-133.1718	1	14977.59	-0.5094469	5.06356E-006	-0.024703	7
	25	189	946.5144	15282.63	-333.5115	1	15286.27	-1.250162	6.473018E-006	-0.0245194	7
	26	192	751.7689	15195.55	-230.2084	1	15197.29	-0.8679489	7.027945E-006	-0.01678	7
	27	194	597.4265	15352.67	-335.447	1	15356.33	-1.251681	-7.833082E-007	-0.0125369	7
	28	197	477.4305	15252.25	-139.5992	1	15252.89	-0.5243959	-8.888896E-008	0.0005784	7
	29	199	376.6741	15302.14	-125.7986	1	15302.65	-0.471017	-9.81263E-008	0.0006408	7
	30	201	298.2954	15337.3	-118.1206	1	15337.76	-0.4412561	-8.870842E-008	0.0005618	7
	31	204	237.7717	15389.49	-118.7341	1	15389.94	-0.4420438	-9.895709E-008	0.0006461	7
	32	206	189.0121	15436.65	-122.6404	1	15437.13	-0.4551915	-8.964886E-008	0.0005753	7
	33	209	150.2404	15479.33	-131.1197	1	15479.89	-0.4853197	-9.171372E-008	0.0005594	7
	34	211	119.1737	15540.6	-156.0258	1	15541.38	-0.5752239	-1.092482E-007	0.0006297	7
	35	213	95.0169	15574.33	-168.7562	1	15575.24	-0.6208063	-9.305788E-008	0.0005596	7
	36	216	75.60484	15633.15	-197.1648	1	15634.39	-0.7225744	-8.138469E-008	0.0005746	7
	37	219	54.50582	15677.16	-258.6508	1	15679.29	-0.9452131	-7.878907E-008	0.0006418	7
	38	221	45.95588	15739.91	-289.9529	1	15742.58	-1.055355	-1.166587E-007	0.0006418	7
	39	223	37.20238	15786.61	-351.3178	1	15790.52	-1.274859	-1.251551E-007	0.0006379	7
	40	226	30.04808	15840.63	-416.2834	1	15846.1	-1.505357	-7.825228E-008	0.000637	7
	41	228	23.91582	15897.93	-506.5818	1	15906	-1.825092	-1.305068E-007	0.000644	7
	42	231	18.60119	15978.45	-640.3908	1	15991.28	-2.295095	-1.345656E-007	0.0005662	7
	43	233	15.02404	16035.57	-753.6878	1	16053.27	-2.690979	-3.015542E-008	0.0006036	7
	44	235	12.01923	16082.21	-924.8079	1	16108.78	-3.291171	-1.390006E-007	0.0006199	7
	45	238	9.450605	16153.06	-1178.005	1	16195.96	-4.171061	-4.735822E-008	0.0006422	7
	46	240	7.512019	16272.14	-1449.447	1	16336.57	-5.090207	-5.744357E-008	0.0005771	7
	47	243	5.978954	16369.92	-1762.563	1	16464.53	-6.14541	-9.178359E-008	0.000605	7
	48	246	4.734848	16469.93	-2206.629	1	16617.09	-7.631005	-3.431682E-008	0.0005897	7
	49	249	3.75601	16623.34	-2700.435	1	16841.26	-9.227004	-1.064413E-007	0.0005585	7
	50	253	3.004808	16825.93	-3335.748	1	17153.4	-11.21351	-1.275035E-007	0.0005982	7
	51	256	2.372217	17022.11	-4056.933	1	17498.88	-13.4054	-8.159225E-008	0.0006815	7
	52	261	1.878005	17269.74	-5031.637	1	17987.81	-16.24378	-9.094898E-008	0.0005918	7
	53	265	1.512097	17556.79	-6114.717	1	18591.15	-19.20231	-9.159848E-008	0.0006997	7
	54	271	1.201923	17947.05	-7509.22	1	19454.69	-22.70491	-7.764074E-008	0.0005755	7
	55	277	0.956633	18421.08	-9253.092	1	20614.46	-26.67084	-1.075452E-007	-3.195928E-005	7
