EXPLAIN
TAG	EISPOT
TITLE	LABEL	Potentiostatic EIS	Test Identifier
DATE	LABEL	9/22/2020	Date
TIME	LABEL	3:55:57	Time
NOTES	NOTES	1	Notes...
	
PSTAT	PSTAT	REF3000-16137	Potentiostat
VDC	POTEN	0.00000E+000	T	DC Voltage (V)
FREQINIT	QUANT	3.00000E+005	Initial Freq. (Hz)
FREQFINAL	QUANT	1.00000E+000	Final Freq. (Hz)
PTSPERDEC	QUANT	1.00000E+001	Points/decade
VAC	QUANT	5.00000E+001	AC Voltage (mV rms)
AREA	QUANT	1.00000E+000	Sample Area (cm^2)
SPEED	SELECTOR	2	Optimize for:
ZGUESS	QUANT	1.00000E+003	Estimated Z (ohms)
EOC	QUANT	0	Open Circuit (V)
SEQUENCER	TOGGLE	TRUE	Run as Sequence
PSTATMODEL	IQUANT	5	Pstat Model
PSTATSECTION	LABEL	REF3000-16137	Pstat Section
PSTATSERIALNO	LABEL	16137	Pstat Serial Number
CTRLMODE	IQUANT	1	Control Mode
IESTAB	IQUANT	0	I/E Stability
CASPEED	IQUANT	1	Control Amp Speed
CONVENTION	IQUANT	1	Current Convention
ICHRANGE	IQUANT	2	Ich Range
ICHRANGEMODE	TOGGLE	F	Ich Auto Range
ICHOFFSETENABLE	TOGGLE	T	Ich Offset Enable
ICHOFFSET	QUANT	0	Ich Offset (V)
ICHFILTER	IQUANT	3	Ich Filter
VCHRANGE	IQUANT	2	Vch Range
VCHRANGEMODE	TOGGLE	F	Vch Auto Range
VCHOFFSETENABLE	TOGGLE	T	Vch Offset Enable
VCHOFFSET	QUANT	0	Vch Offset (V)
VCHFILTER	IQUANT	3	Vch Filter
ACHRANGE	IQUANT	2	Ach Range
ACHOFFSETENABLE	TOGGLE	F	Ach Offset Enable
ACHOFFSET	QUANT	0	Ach Offset (V)
ACHFILTER	IQUANT	3	Ach Filter
IERANGELOWERLIMIT	IQUANT	2	I/E Range Lower Limit
IERANGEMODE	TOGGLE	F	I/E AutoRange
IERANGE	IQUANT	11	I/E Range
POSFEEDENABLE	TOGGLE	F	Positive Feedback IR Comp
POSFEEDRESISTANCE	QUANT	0	Positive Feedback Resistance (ohm)
ACHSELECT	IQUANT	0	Ach Select
CABLEID	IQUANT	13	Cable ID
DCCALDATE	LABEL	7/31/2020	DC Calibration Date
ACCALDATE	LABEL	7/31/2020	AC Calibration Date
THERMOSELECT	IQUANT	1	Thermo Select
FRAMEWORKVERSION	QUANT	6.33	Framework Version
INSTRUMENTVERSION	LABEL	3.50	Instrument Version
COMPLIANCEVOLTAGE	IQUANT	0	Compliance Voltage
ZCURVE	TABLE
	Pt	Time	Freq	Zreal	Zimag	Zsig	Zmod	Zphz	Idc	Vdc	IERange
	#	s	Hz	ohm	ohm	V	ohm	°	A	V	#
	0	15	300046.9	1051.375	-3678	1	3825.32	-74.04715	6.657613E-006	0.0015193	9
	1	30	238359.4	1532.734	-4357.899	1	4619.584	-70.62251	6.555775E-007	-0.0021024	9
	2	44	189328.1	2132.21	-5092.5	1	5520.858	-67.28113	4.312274E-007	0.0016882	9
	3	51	150421.9	2941.969	-6118.402	1	6788.963	-64.31992	5.034426E-005	0.0002363	9
	4	59	119484.4	4200.335	-7014.236	1	8175.715	-59.08556	1.90981E-005	-0.0019929	9
	5	73	94921.88	5442.474	-7737.246	1	9459.678	-54.87697	2.975557E-005	-0.0006709	9
	6	81	75421.88	7116.209	-8174.769	1	10838.23	-48.96014	2.18934E-005	-0.0095535	8
	7	90	59859.37	9008.047	-8472.04	1	12366.1	-43.24364	-9.706984E-006	-0.0019822	8
	8	99	47578.12	12211.49	-7671.123	1	14421.04	-32.13659	6.085255E-006	-0.0088522	7
	9	105	37828.12	13813.17	-7294.28	1	15620.83	-27.83706	5.139962E-006	-0.0250914	7
	10	111	30046.88	15130.43	-6720.618	1	16555.86	-23.94979	7.056779E-006	-0.0169306	7
	11	117	23859.38	16355.69	-5954.151	1	17405.76	-20.00361	7.189199E-006	-0.0225806	7
	12	121	18984.38	17248.57	-5248.185	1	18029.33	-16.92331	5.114429E-006	-0.0249451	7
	13	126	15046.87	18029.72	-4568.762	1	18599.58	-14.21954	5.154267E-006	-0.025093	7
	14	130	11953.13	18591.71	-3786.153	1	18973.32	-11.51073	-6.867377E-006	0.0172841	7
	15	134	9515.62	19002.95	-3116.591	1	19256.82	-9.313911	4.461676E-006	-1.935984E-005	7
	16	138	7546.875	19342.92	-2543.364	1	19509.41	-7.490742	-1.870238E-006	0.0209569	7
	17	143	5928.309	19732.43	-2080.209	1	19841.78	-6.017941	-5.120652E-006	0.0249739	7
	18	147	4733.456	19965.35	-1920.863	1	20057.54	-5.495504	6.066851E-006	-0.0088288	7
	19	151	3796.875	20052.54	-1422.127	1	20102.91	-4.056626	6.505157E-006	-0.0251329	7
	20	155	2987.132	20063.28	-1261.481	1	20102.9	-3.597743	5.125471E-006	-0.0251378	7
	21	160	2390.625	20344	-872.2731	1	20362.69	-2.455121	3.474077E-006	-0.0233042	7
	22	164	1884.191	20892.22	-936.8476	1	20913.21	-2.567534	-6.151995E-006	0.0239429	7
	23	168	1516.544	20518.83	-561.3857	1	20526.5	-1.567195	-3.624955E-006	0.0239646	7
	24	172	1193.986	20654.09	-664.9972	1	20664.8	-1.844108	4.476967E-006	2.155832E-005	7
	25	177	946.5144	20872.86	-439.2101	1	20877.48	-1.205449	1.173421E-006	-0.0183716	7
	26	180	751.7689	20928.15	-312.6613	1	20930.49	-0.8559207	5.184493E-006	-0.0250509	7
	27	182	597.4265	20703.29	-182.7288	1	20704.1	-0.5056837	4.665274E-006	-0.0006462	7
	28	185	477.4305	21032.66	-246.7917	1	21034.1	-0.6722629	-9.418083E-008	0.0006008	7
	29	187	376.6741	21083.14	-212.0319	1	21084.21	-0.5762008	-9.775651E-008	0.0006037	7
	30	189	298.2954	21150.35	-187.1107	1	21151.18	-0.5068649	-1.030171E-007	0.0006254	7
	31	192	237.7717	21219.82	-177.4794	1	21220.57	-0.4792022	-9.613056E-008	0.000649	7
	32	194	189.0121	21281.24	-170.2678	1	21281.92	-0.4584046	-9.56032E-008	0.0006308	7
	33	197	150.2404	21357.96	-169.6927	1	21358.63	-0.4552155	-9.577768E-008	0.000647	7
	34	199	119.1737	21425.56	-190.9508	1	21426.42	-0.5106229	-1.024335E-007	0.0006349	7
	35	201	95.0169	21488.1	-201.5862	1	21489.04	-0.5374929	-9.852351E-008	0.0006445	7
	36	204	75.60484	21552.92	-222.7656	1	21554.07	-0.5921738	-8.101826E-008	0.0005542	7
	37	207	54.50582	21639.44	-288.4474	1	21641.36	-0.7636908	-9.345661E-008	0.000569	7
	38	209	45.95588	21703.35	-313.5899	1	21705.61	-0.8278046	-1.025941E-007	0.0006537	7
	39	211	37.20238	21773.53	-371.47	1	21776.7	-0.977407	-9.010689E-008	0.0005632	7
	40	214	30.04808	21853.38	-441.1793	1	21857.84	-1.156538	-1.065548E-007	0.0006522	7
	41	216	23.91582	21923.59	-550.7328	1	21930.51	-1.438999	-1.162798E-007	0.0006073	7
	42	219	18.60119	22042.15	-670.1398	1	22052.34	-1.741407	-1.475856E-007	0.0006486	7
	43	221	15.02404	22105.29	-789.3622	1	22119.38	-2.045117	-1.25754E-007	0.0005858	7
	44	223	12.01923	22179.2	-976.374	1	22200.68	-2.520649	-7.209192E-008	0.0006423	7
	45	226	9.450605	22276.76	-1224.886	1	22310.41	-3.147236	-1.098244E-007	0.0005796	7
	46	228	7.512019	22397.04	-1494.661	1	22446.85	-3.81796	-8.846688E-008	0.0006295	7
	47	231	5.978954	22494.51	-1858.086	1	22571.12	-4.722013	-5.109121E-008	0.0006217	7
	48	234	4.734848	22667.67	-2275.797	1	22781.62	-5.733191	-6.690573E-008	0.0005613	7
	49	237	3.75601	22884.19	-2810.256	1	23056.1	-7.001063	-7.746043E-008	0.0006376	7
	50	241	3.004808	23042.65	-3466.535	1	23301.94	-8.555416	-1.059417E-007	0.0005867	7
	51	244	2.372217	23383.4	-4227.176	1	23762.42	-10.24708	-5.65824E-008	0.0006331	7
	52	249	1.878005	23639.05	-5216.473	1	24207.78	-12.44413	-7.281148E-008	0.0005763	7
	53	253	1.512097	23942.71	-6378.854	1	24777.88	-14.9183	-8.934907E-008	0.0007	7
	54	259	1.201923	24429.21	-7840.754	1	25656.65	-17.79445	-7.323448E-008	0.0005779	7
	55	265	0.956633	24989.25	-9651.95	1	26788.48	-21.11875	-1.130611E-007	-3.578245E-005	7
