EXPLAIN
TAG	EISPOT
TITLE	LABEL	Potentiostatic EIS	Test Identifier
DATE	LABEL	9/21/2020	Date
TIME	LABEL	23:51:46	Time
NOTES	NOTES	1	Notes...
	
PSTAT	PSTAT	REF3000-16137	Potentiostat
VDC	POTEN	0.00000E+000	T	DC Voltage (V)
FREQINIT	QUANT	3.00000E+005	Initial Freq. (Hz)
FREQFINAL	QUANT	1.00000E+000	Final Freq. (Hz)
PTSPERDEC	QUANT	1.00000E+001	Points/decade
VAC	QUANT	5.00000E+001	AC Voltage (mV rms)
AREA	QUANT	1.00000E+000	Sample Area (cm^2)
SPEED	SELECTOR	2	Optimize for:
ZGUESS	QUANT	1.00000E+003	Estimated Z (ohms)
EOC	QUANT	0	Open Circuit (V)
SEQUENCER	TOGGLE	TRUE	Run as Sequence
PSTATMODEL	IQUANT	5	Pstat Model
PSTATSECTION	LABEL	REF3000-16137	Pstat Section
PSTATSERIALNO	LABEL	16137	Pstat Serial Number
CTRLMODE	IQUANT	1	Control Mode
IESTAB	IQUANT	0	I/E Stability
CASPEED	IQUANT	1	Control Amp Speed
CONVENTION	IQUANT	1	Current Convention
ICHRANGE	IQUANT	2	Ich Range
ICHRANGEMODE	TOGGLE	F	Ich Auto Range
ICHOFFSETENABLE	TOGGLE	T	Ich Offset Enable
ICHOFFSET	QUANT	0	Ich Offset (V)
ICHFILTER	IQUANT	3	Ich Filter
VCHRANGE	IQUANT	2	Vch Range
VCHRANGEMODE	TOGGLE	F	Vch Auto Range
VCHOFFSETENABLE	TOGGLE	T	Vch Offset Enable
VCHOFFSET	QUANT	0	Vch Offset (V)
VCHFILTER	IQUANT	3	Vch Filter
ACHRANGE	IQUANT	2	Ach Range
ACHOFFSETENABLE	TOGGLE	F	Ach Offset Enable
ACHOFFSET	QUANT	0	Ach Offset (V)
ACHFILTER	IQUANT	3	Ach Filter
IERANGELOWERLIMIT	IQUANT	2	I/E Range Lower Limit
IERANGEMODE	TOGGLE	F	I/E AutoRange
IERANGE	IQUANT	11	I/E Range
POSFEEDENABLE	TOGGLE	F	Positive Feedback IR Comp
POSFEEDRESISTANCE	QUANT	0	Positive Feedback Resistance (ohm)
ACHSELECT	IQUANT	0	Ach Select
CABLEID	IQUANT	13	Cable ID
DCCALDATE	LABEL	7/31/2020	DC Calibration Date
ACCALDATE	LABEL	7/31/2020	AC Calibration Date
THERMOSELECT	IQUANT	1	Thermo Select
FRAMEWORKVERSION	QUANT	6.33	Framework Version
INSTRUMENTVERSION	LABEL	3.50	Instrument Version
COMPLIANCEVOLTAGE	IQUANT	0	Compliance Voltage
ZCURVE	TABLE
	Pt	Time	Freq	Zreal	Zimag	Zsig	Zmod	Zphz	Idc	Vdc	IERange
	#	s	Hz	ohm	ohm	V	ohm	°	A	V	#
	0	8	300046.9	7.592324	2.198454	1	7.904213	16.14905	7.166083E-005	-0.0002379	10
	1	11	238359.4	7.558171	1.756444	1	7.759578	13.08276	6.402761E-005	-0.0001687	10
	2	14	189328.1	7.546587	1.387903	1	7.673151	10.42089	6.543591E-006	0.0002135	10
	3	17	150421.9	7.535097	1.09449	1	7.614171	8.264544	4.661507E-005	0.0005089	10
	4	19	119484.4	7.528943	0.8377132	1	7.575404	6.348942	7.626848E-006	0.0004844	10
	5	22	94921.88	7.531178	0.6591552	1	7.559968	5.001983	-1.158655E-006	0.0006067	10
	6	24	75421.88	7.52977	0.4790938	1	7.544996	3.640629	2.425606E-005	0.0005593	10
	7	27	59859.37	7.532806	0.3241942	1	7.539779	2.464354	-1.39064E-005	0.0005813	10
	8	29	47578.12	7.539093	0.1901183	1	7.54149	1.44456	-3.131508E-006	0.0005978	10
	9	32	37828.12	7.547221	0.0704291	1	7.547549	0.5346571	-2.880483E-005	0.0006408	10
	10	34	30046.88	7.556643	-0.0435187	1	7.556768	-0.3299625	-1.829708E-005	0.0006467	10
	11	37	23859.38	7.566531	-0.156697	1	7.568153	-1.186382	2.02732E-005	0.0006065	10
	12	39	18984.38	7.579496	-0.2753651	1	7.584496	-2.080656	1.179968E-005	0.0005975	10
	13	42	15046.87	7.594214	-0.4070666	1	7.605116	-3.068243	-2.397945E-005	0.000692	10
	14	44	11953.13	7.610595	-0.5571058	1	7.630958	-4.186661	2.238087E-005	0.0006445	10
	15	46	9515.62	7.631042	-0.7289836	1	7.665782	-5.456833	2.284799E-005	0.0006593	10
	16	48	7546.875	7.655204	-0.9378445	1	7.712438	-6.984542	-9.981379E-006	0.0006574	10
	17	51	5928.309	7.686784	-1.201506	1	7.78012	-8.883905	1.978886E-005	0.0006232	10
	18	53	4733.456	7.723675	-1.502668	1	7.868492	-11.00956	-2.485439E-005	0.0006686	10
	19	55	3796.875	7.767053	-1.861054	1	7.986904	-13.47454	3.183182E-006	0.0006088	10
	20	58	2987.132	7.827944	-2.340482	1	8.170347	-16.64617	-2.240226E-005	0.0006843	10
	21	60	2390.625	7.897088	-2.889382	1	8.409074	-20.09653	1.966853E-005	0.0006609	10
	22	62	1884.191	7.991951	-3.611947	1	8.770259	-24.3205	1.348936E-005	0.0006529	10
	23	65	1516.544	8.101249	-4.422332	1	9.229694	-28.62937	-2.573797E-005	0.0006758	10
	24	67	1193.986	8.252712	-5.519526	1	9.92836	-33.77515	1.078134E-005	0.0006099	10
	25	69	946.5144	8.443708	-6.840243	1	10.8667	-39.01091	-1.570216E-005	0.000671	10
	26	72	751.7689	8.679937	-8.465908	1	12.12489	-44.28482	-2.088457E-005	0.0006929	10
	27	74	597.4265	8.984983	-10.45071	1	13.78213	-49.31274	2.027069E-005	0.0006303	10
	28	76	477.4305	9.364479	-12.82848	1	15.8828	-53.87146	-3.657006E-006	0.0006695	10
	29	79	376.6741	9.88086	-15.91537	1	18.73314	-58.16645	-3.366259E-006	0.0006675	10
	30	81	298.2954	10.52857	-19.65247	1	22.29507	-61.82037	-3.315966E-006	0.0006663	10
	31	83	237.7717	11.32201	-24.09425	1	26.62181	-64.83092	-3.827772E-006	0.0006627	10
	32	86	189.0121	12.32051	-29.58285	1	32.0459	-67.3895	-3.455214E-006	0.0006627	10
	33	88	150.2404	13.5427	-36.28253	1	38.7276	-69.53158	-2.812498E-006	0.0006653	10
	34	91	119.1737	15.02613	-44.50775	1	46.97578	-71.34496	8.781129E-007	6.503479E-005	9
	35	93	95.0169	16.7983	-54.4097	1	56.94382	-72.8426	7.824597E-007	6.012566E-005	9
	36	96	75.60484	18.96593	-66.65385	1	69.29965	-74.11663	6.856455E-007	6.24545E-005	9
	37	98	54.50582	22.9258	-89.2161	1	92.11463	-75.58855	7.112349E-007	5.926348E-005	9
	38	101	45.95588	25.52676	-103.9296	1	107.0186	-76.20042	7.710317E-007	6.786099E-005	9
	39	103	37.20238	29.41073	-125.5932	1	128.9909	-76.82028	7.781209E-007	6.44001E-005	9
	40	105	30.04808	34.29432	-152.1157	1	155.9336	-77.29514	6.904633E-007	6.363822E-005	9
	41	108	23.91582	40.94888	-186.7799	1	191.2159	-77.63434	8.350885E-007	5.572819E-005	9
	42	110	18.60119	50.58861	-233.9545	1	239.3615	-77.79863	5.731572E-007	6.217368E-005	9
	43	112	15.02404	61.34328	-283.3533	1	289.9174	-77.78452	9.585269E-007	7.118338E-005	9
	44	115	12.01923	76.01353	-345.7195	1	353.9774	-77.59966	6.967257E-007	5.768138E-005	9
	45	117	9.450605	96.6701	-425.8774	1	436.7112	-77.21111	2.72233E-007	0.0006426	8
	46	120	7.512019	123.1089	-520.7664	1	535.12	-76.69949	2.391243E-007	0.0006591	8
	47	122	5.978954	158.5326	-634.3453	1	653.8551	-75.96832	1.913191E-007	0.000638	8
	48	125	4.734848	206.1228	-773.8447	1	800.826	-75.08488	2.923276E-007	0.0006639	8
	49	129	3.75601	269.3474	-938.9302	1	976.8	-73.9936	1.28128E-007	0.0006219	8
	50	132	3.004808	348.2351	-1126.13	1	1178.743	-72.81673	1.766624E-007	0.0006482	8
	51	136	2.372217	458.1584	-1357.688	1	1432.908	-71.35278	1.86308E-007	0.0006616	8
	52	140	1.878005	599.339	-1629.751	1	1736.46	-69.80906	1.227727E-007	0.0006254	8
	53	145	1.512097	761.6512	-1913.942	1	2059.924	-68.29996	1.868987E-007	0.0006051	8
	54	150	1.201923	989.057	-2264.533	1	2471.102	-66.40624	1.548149E-007	0.0006211	8
	55	156	0.956633	1271.86	-2652.743	1	2941.882	-64.38457	9.346466E-008	-1.041008E-007	8
