EXPLAIN
TAG	EISPOT
TITLE	LABEL	Potentiostatic EIS	Test Identifier
DATE	LABEL	9/22/2020	Date
TIME	LABEL	1:23:21	Time
NOTES	NOTES	1	Notes...
	
PSTAT	PSTAT	REF3000-16137	Potentiostat
VDC	POTEN	0.00000E+000	T	DC Voltage (V)
FREQINIT	QUANT	3.00000E+005	Initial Freq. (Hz)
FREQFINAL	QUANT	1.00000E+000	Final Freq. (Hz)
PTSPERDEC	QUANT	1.00000E+001	Points/decade
VAC	QUANT	5.00000E+001	AC Voltage (mV rms)
AREA	QUANT	1.00000E+000	Sample Area (cm^2)
SPEED	SELECTOR	2	Optimize for:
ZGUESS	QUANT	1.00000E+003	Estimated Z (ohms)
EOC	QUANT	0	Open Circuit (V)
SEQUENCER	TOGGLE	TRUE	Run as Sequence
PSTATMODEL	IQUANT	5	Pstat Model
PSTATSECTION	LABEL	REF3000-16137	Pstat Section
PSTATSERIALNO	LABEL	16137	Pstat Serial Number
CTRLMODE	IQUANT	1	Control Mode
IESTAB	IQUANT	0	I/E Stability
CASPEED	IQUANT	1	Control Amp Speed
CONVENTION	IQUANT	1	Current Convention
ICHRANGE	IQUANT	2	Ich Range
ICHRANGEMODE	TOGGLE	F	Ich Auto Range
ICHOFFSETENABLE	TOGGLE	T	Ich Offset Enable
ICHOFFSET	QUANT	0	Ich Offset (V)
ICHFILTER	IQUANT	3	Ich Filter
VCHRANGE	IQUANT	2	Vch Range
VCHRANGEMODE	TOGGLE	F	Vch Auto Range
VCHOFFSETENABLE	TOGGLE	T	Vch Offset Enable
VCHOFFSET	QUANT	0	Vch Offset (V)
VCHFILTER	IQUANT	3	Vch Filter
ACHRANGE	IQUANT	2	Ach Range
ACHOFFSETENABLE	TOGGLE	F	Ach Offset Enable
ACHOFFSET	QUANT	0	Ach Offset (V)
ACHFILTER	IQUANT	3	Ach Filter
IERANGELOWERLIMIT	IQUANT	2	I/E Range Lower Limit
IERANGEMODE	TOGGLE	F	I/E AutoRange
IERANGE	IQUANT	11	I/E Range
POSFEEDENABLE	TOGGLE	F	Positive Feedback IR Comp
POSFEEDRESISTANCE	QUANT	0	Positive Feedback Resistance (ohm)
ACHSELECT	IQUANT	0	Ach Select
CABLEID	IQUANT	13	Cable ID
DCCALDATE	LABEL	7/31/2020	DC Calibration Date
ACCALDATE	LABEL	7/31/2020	AC Calibration Date
THERMOSELECT	IQUANT	1	Thermo Select
FRAMEWORKVERSION	QUANT	6.33	Framework Version
INSTRUMENTVERSION	LABEL	3.50	Instrument Version
COMPLIANCEVOLTAGE	IQUANT	0	Compliance Voltage
ZCURVE	TABLE
	Pt	Time	Freq	Zreal	Zimag	Zsig	Zmod	Zphz	Idc	Vdc	IERange
	#	s	Hz	ohm	ohm	V	ohm	°	A	V	#
	0	7	300046.9	33.36489	1.172924	1	33.3855	2.013372	-4.52431E-006	-4.398667E-005	11
	1	12	238359.4	33.41488	1.298398	1	33.44009	2.225217	-1.480737E-005	0.0005594	10
	2	15	189328.1	33.44654	1.039346	1	33.46268	1.779885	1.430477E-005	0.0004886	10
	3	17	150421.9	33.48418	0.7959064	1	33.49364	1.361643	-0.0001121	0.000613	10
	4	20	119484.4	33.52348	0.5976001	1	33.5288	1.021265	-0.0000982	0.0006096	10
	5	22	94921.88	33.55768	0.4380585	1	33.56054	0.7478907	1.48404E-005	0.0005612	10
	6	25	75421.88	33.59627	0.2912854	1	33.59753	0.4967518	2.472442E-005	0.0005808	10
	7	27	59859.37	33.64504	0.1680709	1	33.64546	0.2862138	-2.155882E-005	0.000728	10
	8	30	47578.12	33.67299	0.0568038	1	33.67303	0.0966535	2.247835E-006	0.0006248	10
	9	32	37828.12	33.71794	-0.0595562	1	33.71799	-0.1012017	1.457305E-005	0.0005637	10
	10	35	30046.88	33.76003	-0.1682834	1	33.76045	-0.2855996	-6.488091E-006	0.0006572	10
	11	38	23859.38	33.79677	-0.2834451	1	33.79796	-0.4805143	-2.912891E-005	0.0006936	10
	12	40	18984.38	33.84815	-0.4034331	1	33.85056	-0.682871	7.678567E-006	0.0007039	10
	13	42	15046.87	33.89215	-0.5554394	1	33.89671	-0.9389042	-1.75779E-005	0.0006413	10
	14	44	11953.13	33.93351	-0.7165605	1	33.94107	-1.209713	5.472571E-006	0.0005893	10
	15	47	9515.62	33.98623	-0.9228722	1	33.99876	-1.555444	1.517859E-005	0.0006302	10
	16	49	7546.875	34.06244	-1.174621	1	34.08268	-1.975026	2.043863E-005	0.0006257	10
	17	51	5928.309	34.11454	-1.482848	1	34.14676	-2.488894	6.890268E-006	0.0005893	10
	18	54	4733.456	34.17383	-1.848472	1	34.22379	-3.096127	-2.183005E-005	0.0007041	10
	19	56	3796.875	34.25055	-2.263641	1	34.32528	-3.781216	2.541424E-005	0.000635	10
	20	58	2987.132	34.36027	-2.842829	1	34.47767	-4.729647	2.120591E-005	0.0006587	10
	21	61	2390.625	34.46896	-3.492444	1	34.64544	-5.785544	2.340104E-005	0.0006239	10
	22	63	1884.191	34.60843	-4.358704	1	34.88182	-7.178233	2.414332E-005	0.0006185	10
	23	65	1516.544	34.7493	-5.34405	1	35.15783	-8.742948	1.466792E-005	0.0005833	10
	24	68	1193.986	34.89687	-6.670424	1	35.52867	-10.82137	1.599031E-005	-0.0002108	9
	25	70	946.5144	35.1257	-8.257979	1	36.08336	-13.22987	-1.471056E-005	0.0003773	9
	26	73	751.7689	35.41737	-10.23853	1	36.86757	-16.12364	1.728269E-005	-0.0004008	9
	27	75	597.4265	35.76172	-12.66468	1	37.93803	-19.50112	1.625535E-005	-0.0003801	9
	28	77	477.4305	36.18099	-15.56412	1	39.38662	-23.27611	1.157878E-006	6.570225E-005	9
	29	79	376.6741	36.73895	-19.3598	1	41.52773	-27.78724	1.206393E-006	5.661365E-005	9
	30	82	298.2954	37.43055	-23.98639	1	44.45664	-32.65271	1.140599E-006	5.822827E-005	9
	31	84	237.7717	38.27507	-29.52524	1	48.33964	-37.64645	1.173615E-006	5.201711E-005	9
	32	87	189.0121	39.34729	-36.41605	1	53.61286	-42.78436	1.189611E-006	5.800372E-005	9
	33	89	150.2404	40.6992	-44.89467	1	60.59667	-47.80617	1.222712E-006	5.874883E-005	9
	34	91	119.1737	42.43306	-55.42584	1	69.80392	-52.56296	1.049582E-006	9.143092E-005	9
	35	94	95.0169	44.58116	-68.05544	1	81.35738	-56.77235	1.190014E-006	5.626395E-005	9
	36	96	75.60484	47.32183	-83.64065	1	96.0995	-60.49988	1.111393E-006	5.461109E-005	9
	37	99	54.50582	52.49309	-112.1524	1	123.8292	-64.91798	1.206992E-006	5.678305E-005	9
	38	101	45.95588	55.92418	-130.5789	1	142.0506	-66.81557	1.192717E-006	6.81578E-005	9
	39	104	37.20238	60.95983	-157.5163	1	168.9008	-68.84323	1.190197E-006	7.255413E-005	9
	40	106	30.04808	67.05486	-190.3048	1	201.7728	-70.58984	1.249208E-006	5.835193E-005	9
	41	109	23.91582	74.87634	-232.8462	1	244.5891	-72.17377	1.2449E-006	6.118147E-005	9
	42	111	18.60119	85.34924	-290.8324	1	303.0973	-73.64486	1.104635E-006	6.342355E-005	9
	43	113	15.02404	96.1025	-351.5559	1	364.4547	-74.71097	1.202452E-006	5.662698E-005	9
	44	115	12.01923	109.2513	-426.8268	1	440.5871	-75.64272	3.938187E-007	0.0006384	8
	45	118	9.450605	127.4267	-529.0338	1	544.1638	-76.45731	4.314978E-007	0.0006528	8
	46	120	7.512019	148.8499	-649.8489	1	666.6783	-77.09878	4.389518E-007	0.0006661	8
	47	123	5.978954	176.1211	-797.3441	1	816.5637	-77.54424	4.408643E-007	0.0006561	8
	48	126	4.734848	211.8361	-982.941	1	1005.508	-77.83805	4.852297E-007	0.0006754	8
	49	129	3.75601	258.0993	-1209.881	1	1237.105	-77.95782	4.211003E-007	0.000631	8
	50	133	3.004808	315.7314	-1476.558	1	1509.937	-77.93024	4.042832E-007	0.0006763	8
	51	137	2.372217	394.1067	-1821.825	1	1863.965	-77.79356	4.382882E-007	0.000686	8
	52	141	1.878005	501.9826	-2239.767	1	2295.331	-77.36747	4.635679E-007	0.0006097	8
	53	146	1.512097	631.0931	-2704.99	1	2777.634	-76.86741	4.569205E-007	0.0007329	8
	54	151	1.201923	806.0027	-3302.806	1	3399.731	-76.28583	4.691851E-007	0.0006108	8
	55	157	0.956633	1031.634	-4012.92	1	4143.403	-75.5827	4.066831E-007	-2.31699E-006	8
