EXPLAIN
TAG	EISPOT
TITLE	LABEL	Potentiostatic EIS	Test Identifier
DATE	LABEL	9/22/2020	Date
TIME	LABEL	3:41:25	Time
NOTES	NOTES	1	Notes...
	
PSTAT	PSTAT	REF3000-16137	Potentiostat
VDC	POTEN	0.00000E+000	T	DC Voltage (V)
FREQINIT	QUANT	3.00000E+005	Initial Freq. (Hz)
FREQFINAL	QUANT	1.00000E+000	Final Freq. (Hz)
PTSPERDEC	QUANT	1.00000E+001	Points/decade
VAC	QUANT	5.00000E+001	AC Voltage (mV rms)
AREA	QUANT	1.00000E+000	Sample Area (cm^2)
SPEED	SELECTOR	2	Optimize for:
ZGUESS	QUANT	1.00000E+003	Estimated Z (ohms)
EOC	QUANT	0	Open Circuit (V)
SEQUENCER	TOGGLE	TRUE	Run as Sequence
PSTATMODEL	IQUANT	5	Pstat Model
PSTATSECTION	LABEL	REF3000-16137	Pstat Section
PSTATSERIALNO	LABEL	16137	Pstat Serial Number
CTRLMODE	IQUANT	1	Control Mode
IESTAB	IQUANT	0	I/E Stability
CASPEED	IQUANT	1	Control Amp Speed
CONVENTION	IQUANT	1	Current Convention
ICHRANGE	IQUANT	2	Ich Range
ICHRANGEMODE	TOGGLE	F	Ich Auto Range
ICHOFFSETENABLE	TOGGLE	T	Ich Offset Enable
ICHOFFSET	QUANT	0	Ich Offset (V)
ICHFILTER	IQUANT	3	Ich Filter
VCHRANGE	IQUANT	2	Vch Range
VCHRANGEMODE	TOGGLE	F	Vch Auto Range
VCHOFFSETENABLE	TOGGLE	T	Vch Offset Enable
VCHOFFSET	QUANT	0	Vch Offset (V)
VCHFILTER	IQUANT	3	Vch Filter
ACHRANGE	IQUANT	2	Ach Range
ACHOFFSETENABLE	TOGGLE	F	Ach Offset Enable
ACHOFFSET	QUANT	0	Ach Offset (V)
ACHFILTER	IQUANT	3	Ach Filter
IERANGELOWERLIMIT	IQUANT	2	I/E Range Lower Limit
IERANGEMODE	TOGGLE	F	I/E AutoRange
IERANGE	IQUANT	11	I/E Range
POSFEEDENABLE	TOGGLE	F	Positive Feedback IR Comp
POSFEEDRESISTANCE	QUANT	0	Positive Feedback Resistance (ohm)
ACHSELECT	IQUANT	0	Ach Select
CABLEID	IQUANT	13	Cable ID
DCCALDATE	LABEL	7/31/2020	DC Calibration Date
ACCALDATE	LABEL	7/31/2020	AC Calibration Date
THERMOSELECT	IQUANT	1	Thermo Select
FRAMEWORKVERSION	QUANT	6.33	Framework Version
INSTRUMENTVERSION	LABEL	3.50	Instrument Version
COMPLIANCEVOLTAGE	IQUANT	0	Compliance Voltage
ZCURVE	TABLE
	Pt	Time	Freq	Zreal	Zimag	Zsig	Zmod	Zphz	Idc	Vdc	IERange
	#	s	Hz	ohm	ohm	V	ohm	°	A	V	#
	0	14	300046.9	1699.381	-2697.911	1	3188.513	-57.79367	2.286222E-005	0.0009028	9
	1	37	238359.4	2250.51	-2952.979	1	3712.8	-52.68843	8.830172E-005	-0.0026406	9
	2	63	189328.1	2774.335	-3147.541	1	4195.706	-48.60611	2.841071E-006	0.0016166	9
	3	74	150421.9	3589.603	-3191.437	1	4803.178	-41.63958	-1.463315E-005	0.0017757	9
	4	82	119484.4	4316.851	-3079.23	1	5302.534	-35.50044	-7.068425E-006	-0.0133792	8
	5	89	94921.88	4963.603	-2915.707	1	5756.622	-30.43072	2.500086E-005	-0.0051364	8
	6	97	75421.88	5537.42	-2643.109	1	6135.881	-25.51597	-1.792727E-005	0.0106654	8
	7	104	59859.37	6012.58	-2380.147	1	6466.546	-21.59669	-1.832727E-005	0.010681	8
	8	112	47578.12	6385.914	-2135.64	1	6733.562	-18.49147	-2.309883E-005	0.0105536	8
	9	119	37828.12	6679.84	-1766.367	1	6909.437	-14.81184	-1.074789E-005	0.0096734	8
	10	127	30046.88	6941.269	-1497.58	1	7100.983	-12.17495	-2.526244E-005	0.0074454	8
	11	134	23859.38	7135.365	-1269.623	1	7247.439	-10.08926	2.098086E-005	-0.0090442	8
	12	141	18984.38	7251.257	-1040.642	1	7325.548	-8.166864	-9.771781E-006	-0.001809	8
	13	146	15046.87	7464.461	-556.3184	1	7485.164	-4.262313	-2.661943E-006	-0.0054384	7
	14	151	11953.13	7548.36	-454.7863	1	7562.048	-3.447885	-1.853399E-006	0.0201122	7
	15	155	9515.62	7588.886	-384.6419	1	7598.627	-2.901548	-5.849913E-006	0.0221168	7
	16	159	7546.875	7631.157	-299.3448	1	7637.026	-2.24637	-5.548148E-007	-0.0131967	7
	17	163	5928.309	7673.681	-241.1498	1	7677.469	-1.79996	6.774426E-006	-0.0206311	7
	18	167	4733.456	7680.604	-244.6356	1	7684.499	-1.824316	-3.648462E-006	0.0227755	7
	19	171	3796.875	7755.344	-170.907	1	7757.227	-1.262441	4.98951E-006	-0.023582	7
	20	175	2987.132	7796.316	-175.7279	1	7798.296	-1.291221	2.013041E-006	0.0089877	7
	21	179	2390.625	7815.343	-118.2681	1	7816.238	-0.86698	-5.686872E-006	0.0093447	7
	22	183	1884.191	7794.199	-54.89151	1	7794.392	-0.4035052	4.990503E-006	-0.0236211	7
	23	187	1516.544	7854.642	-91.83054	1	7855.178	-0.6698285	2.012977E-006	0.0089673	7
	24	191	1193.986	7899.019	-72.99229	1	7899.356	-0.5294368	1.492361E-006	-0.0182428	7
	25	196	946.5144	8082.051	-58.42375	1	8082.262	-0.4141741	-3.788357E-006	0.0230168	7
	26	199	751.7689	7973.129	-58.16768	1	7973.342	-0.4179919	5.699744E-006	-0.0078862	7
	27	201	597.4265	7969.232	-103.5162	1	7969.904	-0.7442004	-6.210159E-006	0.0151385	7
	28	204	477.4305	8028.629	-55.79741	1	8028.823	-0.3981881	-8.802039E-008	0.0005815	7
	29	206	376.6741	8052.78	-57.92141	1	8052.988	-0.4121055	-9.869591E-008	0.0006283	7
	30	209	298.2954	8071.27	-63.54126	1	8071.52	-0.4510531	-7.810397E-008	0.0005764	7
	31	211	237.7717	8096.411	-70.58318	1	8096.719	-0.4994825	-9.912916E-008	0.0006295	7
	32	213	189.0121	8119.612	-81.69754	1	8120.023	-0.5764766	-9.202803E-008	0.0005802	7
	33	216	150.2404	8141.527	-95.2965	1	8142.085	-0.6706163	-8.347468E-008	0.0006446	7
	34	218	119.1737	8166.955	-113.231	1	8167.739	-0.7943285	-8.493986E-008	0.0005979	7
	35	220	95.0169	8191.92	-137.6249	1	8193.076	-0.962483	-7.038258E-008	0.0005677	7
	36	223	75.60484	8220.665	-167.5269	1	8222.372	-1.167455	-6.749608E-008	0.0005588	7
	37	226	54.50582	8249.392	-220.6828	1	8252.343	-1.532377	-8.352375E-008	0.0006206	7
	38	228	45.95588	8280.244	-255.3423	1	8284.181	-1.766301	-1.456833E-007	0.0006537	7
	39	230	37.20238	8308.15	-311.6096	1	8313.992	-2.147957	-4.646676E-008	0.0005651	7
	40	233	30.04808	8334.28	-374.7003	1	8342.699	-2.574224	-1.084782E-007	0.0005667	7
	41	235	23.91582	8367.448	-461.5447	1	8380.168	-3.15721	-1.206194E-008	0.0006404	7
	42	238	18.60119	8406.861	-583.7545	1	8427.104	-3.972121	-1.114633E-007	0.0005619	7
	43	240	15.02404	8443.841	-694.3749	1	8472.344	-4.701111	-1.597255E-007	0.0006126	7
	44	242	12.01923	8498.35	-838.8782	1	8539.652	-5.637445	4.826269E-008	0.0006476	7
	45	245	9.450605	8536.233	-1077.918	1	8604.021	-7.196968	-1.321867E-007	0.0005665	7
	46	247	7.512019	8609.041	-1317.32	1	8709.243	-8.699684	-6.294716E-008	0.0006372	7
	47	250	5.978954	8686.335	-1631.443	1	8838.214	-10.63721	-1.026368E-007	0.0006193	7
	48	253	4.734848	8757.541	-2019.651	1	8987.408	-12.98642	-1.346792E-007	0.0005536	7
	49	256	3.75601	8889.164	-2481.158	1	9228.942	-15.59557	-1.008049E-007	0.0006238	7
	50	260	3.004808	9002.868	-3040.908	1	9502.57	-18.66348	-5.752923E-008	0.0005701	7
	51	263	2.372217	9192.628	-3742.019	1	9925.08	-22.14963	-1.090992E-007	0.0005498	7
	52	268	1.878005	9377.726	-4620.484	1	10454.21	-26.22986	-8.478492E-008	0.0006153	7
	53	272	1.512097	9606.3	-5600.836	1	11119.82	-30.24381	-8.390017E-008	0.000502	7
	54	278	1.201923	9907.55	-6889.312	1	12067.4	-34.81321	-8.565491E-008	0.0006606	7
	55	284	0.956633	10266.92	-8444.003	1	13293.26	-39.4355	-9.551763E-008	-3.552894E-005	7
