EXPLAIN
TAG	EISPOT
TITLE	LABEL	Potentiostatic EIS	Test Identifier
DATE	LABEL	9/22/2020	Date
TIME	LABEL	2:18:24	Time
NOTES	NOTES	1	Notes...
	
PSTAT	PSTAT	REF3000-16137	Potentiostat
VDC	POTEN	0.00000E+000	T	DC Voltage (V)
FREQINIT	QUANT	3.00000E+005	Initial Freq. (Hz)
FREQFINAL	QUANT	1.00000E+000	Final Freq. (Hz)
PTSPERDEC	QUANT	1.00000E+001	Points/decade
VAC	QUANT	5.00000E+001	AC Voltage (mV rms)
AREA	QUANT	1.00000E+000	Sample Area (cm^2)
SPEED	SELECTOR	2	Optimize for:
ZGUESS	QUANT	1.00000E+003	Estimated Z (ohms)
EOC	QUANT	0	Open Circuit (V)
SEQUENCER	TOGGLE	TRUE	Run as Sequence
PSTATMODEL	IQUANT	5	Pstat Model
PSTATSECTION	LABEL	REF3000-16137	Pstat Section
PSTATSERIALNO	LABEL	16137	Pstat Serial Number
CTRLMODE	IQUANT	1	Control Mode
IESTAB	IQUANT	0	I/E Stability
CASPEED	IQUANT	1	Control Amp Speed
CONVENTION	IQUANT	1	Current Convention
ICHRANGE	IQUANT	2	Ich Range
ICHRANGEMODE	TOGGLE	F	Ich Auto Range
ICHOFFSETENABLE	TOGGLE	T	Ich Offset Enable
ICHOFFSET	QUANT	0	Ich Offset (V)
ICHFILTER	IQUANT	3	Ich Filter
VCHRANGE	IQUANT	2	Vch Range
VCHRANGEMODE	TOGGLE	F	Vch Auto Range
VCHOFFSETENABLE	TOGGLE	T	Vch Offset Enable
VCHOFFSET	QUANT	0	Vch Offset (V)
VCHFILTER	IQUANT	3	Vch Filter
ACHRANGE	IQUANT	2	Ach Range
ACHOFFSETENABLE	TOGGLE	F	Ach Offset Enable
ACHOFFSET	QUANT	0	Ach Offset (V)
ACHFILTER	IQUANT	3	Ach Filter
IERANGELOWERLIMIT	IQUANT	2	I/E Range Lower Limit
IERANGEMODE	TOGGLE	F	I/E AutoRange
IERANGE	IQUANT	11	I/E Range
POSFEEDENABLE	TOGGLE	F	Positive Feedback IR Comp
POSFEEDRESISTANCE	QUANT	0	Positive Feedback Resistance (ohm)
ACHSELECT	IQUANT	0	Ach Select
CABLEID	IQUANT	13	Cable ID
DCCALDATE	LABEL	7/31/2020	DC Calibration Date
ACCALDATE	LABEL	7/31/2020	AC Calibration Date
THERMOSELECT	IQUANT	1	Thermo Select
FRAMEWORKVERSION	QUANT	6.33	Framework Version
INSTRUMENTVERSION	LABEL	3.50	Instrument Version
COMPLIANCEVOLTAGE	IQUANT	0	Compliance Voltage
ZCURVE	TABLE
	Pt	Time	Freq	Zreal	Zimag	Zsig	Zmod	Zphz	Idc	Vdc	IERange
	#	s	Hz	ohm	ohm	V	ohm	°	A	V	#
	0	7	300046.9	147.5374	-2.561732	1	147.5596	-0.994742	1.925222E-005	-0.0015835	9
	1	10	238359.4	147.8988	-2.085184	1	147.9135	-0.807744	2.475616E-005	0.0004499	9
	2	13	189328.1	148.3256	-1.944753	1	148.3384	-0.7511834	1.858602E-005	-0.0016381	9
	3	16	150421.9	149.0367	-1.598981	1	149.0452	-0.6146898	-6.92502E-005	0.0030591	9
	4	18	119484.4	149.0315	-1.464239	1	149.0387	-0.5629148	-8.549346E-005	0.0031742	9
	5	21	94921.88	149.2967	-1.123861	1	149.301	-0.4312972	1.718181E-006	0.0005461	9
	6	24	75421.88	149.631	-0.985615	1	149.6343	-0.3774002	-2.18881E-005	0.0006603	9
	7	26	59859.37	149.9367	-0.995321	1	149.94	-0.3803395	2.522108E-005	-0.0005053	9
	8	29	47578.12	150.1949	-0.7738441	1	150.1969	-0.2952006	-1.444426E-005	0.0001248	9
	9	31	37828.12	150.1281	-0.702888	1	150.1298	-0.2682523	7.218671E-006	0.0004215	9
	10	34	30046.88	150.7405	-0.8799706	1	150.743	-0.3344691	2.369862E-005	-0.0003453	9
	11	36	23859.38	150.9297	-0.7356136	1	150.9315	-0.2792507	2.502E-005	-0.0004729	9
	12	38	18984.38	151.1205	-0.970296	1	151.1236	-0.3678727	2.456019E-005	-0.000594	9
	13	41	15046.87	151.2521	-1.123943	1	151.2563	-0.4257529	-1.445929E-005	0.0009449	9
	14	43	11953.13	151.5787	-1.107496	1	151.5828	-0.4186189	2.583368E-005	-0.0005164	9
	15	45	9515.62	152.0044	-1.388076	1	152.0107	-0.5232	2.789781E-005	-0.0005614	9
	16	48	7546.875	152.0199	-1.784464	1	152.0303	-0.6725276	-2.062958E-006	-0.0003413	9
	17	50	5928.309	152.3335	-1.891591	1	152.3452	-0.71143	2.342356E-005	-0.0007303	9
	18	52	4733.456	152.5515	-2.33586	1	152.5694	-0.8772411	-1.818876E-005	0.0003463	9
	19	55	3796.875	152.8198	-2.980123	1	152.8488	-1.117178	-7.192463E-006	0.0008386	9
	20	57	2987.132	153.2141	-3.550515	1	153.2552	-1.327509	-1.444078E-005	0.0001302	9
	21	59	2390.625	153.459	-4.24348	1	153.5176	-1.583952	6.442601E-006	-0.0005595	9
	22	62	1884.191	153.2645	-5.534037	1	153.3644	-2.067923	1.512338E-005	-0.0007651	9
	23	64	1516.544	154.1277	-6.419152	1	154.2613	-2.384892	2.226804E-005	-0.0002391	9
	24	66	1193.986	154.4189	-8.028298	1	154.6274	-2.976151	2.419775E-005	-0.0007541	9
	25	69	946.5144	154.9254	-9.95323	1	155.2448	-3.675932	2.58454E-005	-0.0005978	9
	26	71	751.7689	155.4082	-12.3995	1	155.902	-4.561775	2.34075E-005	-0.0007117	9
	27	74	597.4265	156.1286	-14.9079	1	156.8387	-5.454338	2.524154E-005	-0.0004669	9
	28	76	477.4305	156.5969	-18.49114	1	157.6848	-6.734367	1.138692E-006	6.144014E-005	9
	29	78	376.6741	157.3766	-23.00937	1	159.0498	-8.318036	1.14338E-006	5.841054E-005	9
	30	80	298.2954	158.2989	-28.53159	1	160.8496	-10.21722	1.170547E-006	5.709978E-005	9
	31	83	237.7717	159.3904	-35.17247	1	163.225	-12.44395	1.105146E-006	5.833446E-005	9
	32	85	189.0121	160.7176	-43.45865	1	166.4896	-15.13114	1.068625E-006	5.816003E-005	9
	33	88	150.2404	162.3568	-53.67421	1	170.999	-18.29359	1.075656E-006	6.169839E-005	9
	34	90	119.1737	164.3922	-66.3949	1	177.2937	-21.99285	1.096455E-006	6.535711E-005	9
	35	92	95.0169	166.8725	-81.6841	1	185.7921	-26.08175	1.093483E-006	6.344611E-005	9
	36	95	75.60484	169.9819	-100.6287	1	197.5348	-30.62539	1.111316E-006	5.742373E-005	9
	37	98	54.50582	175.7137	-135.4828	1	221.8804	-37.63377	9.908968E-007	5.668527E-005	9
	38	100	45.95588	179.6028	-158.1549	1	239.3118	-41.36655	1.110379E-006	6.33142E-005	9
	39	102	37.20238	185.3473	-191.5022	1	266.5084	-45.9357	1.189248E-006	5.394117E-005	9
	40	105	30.04808	192.4965	-232.2214	1	301.6317	-50.34347	1.10929E-006	6.027252E-005	9
	41	107	23.91582	202.0122	-285.1951	1	349.4927	-54.68892	1.121494E-006	5.797817E-005	9
	42	110	18.60119	215.1956	-357.3783	1	417.1671	-58.94572	1.231187E-006	6.143136E-005	9
	43	112	15.02404	228.5014	-430.6626	1	487.5276	-62.05043	3.979384E-009	0.0006269	8
	44	114	12.01923	246.773	-524.9619	1	580.0706	-64.82281	8.7554E-008	0.0006317	8
	45	117	9.450605	271.122	-649.3615	1	703.6885	-67.33845	4.910699E-008	0.0006306	8
	46	119	7.512019	299.8423	-795.0974	1	849.7559	-69.33784	3.023483E-008	0.0006416	8
	47	122	5.978954	333.8338	-971.416	1	1027.178	-71.03436	6.257798E-008	0.0006351	8
	48	125	4.734848	375.5077	-1192.941	1	1250.646	-72.52731	1.174931E-007	0.0006763	8
	49	128	3.75601	426.9897	-1462.383	1	1523.445	-73.72314	8.531836E-008	0.0006258	8
	50	132	3.004808	486.004	-1779.774	1	1844.938	-74.72657	9.17454E-008	0.000664	8
	51	135	2.372217	564.6022	-2195.206	1	2266.651	-75.57627	9.088408E-008	0.0007103	8
	52	140	1.878005	656.1812	-2703.172	1	2781.675	-76.35565	7.034924E-008	0.0006134	8
	53	144	1.512097	768.7424	-3274.311	1	3363.343	-76.7874	1.028269E-007	0.0007062	8
	54	150	1.201923	911.8062	-4028.363	1	4130.267	-77.2462	9.835939E-008	0.0006018	8
	55	156	0.956633	1098.257	-4951.469	1	5071.806	-77.49401	-2.781738E-008	-2.982477E-005	7
