EXPLAIN
TAG	EISPOT
TITLE	LABEL	Potentiostatic EIS	Test Identifier
DATE	LABEL	9/22/2020	Date
TIME	LABEL	2:45:20	Time
NOTES	NOTES	1	Notes...
	
PSTAT	PSTAT	REF3000-16137	Potentiostat
VDC	POTEN	0.00000E+000	T	DC Voltage (V)
FREQINIT	QUANT	3.00000E+005	Initial Freq. (Hz)
FREQFINAL	QUANT	1.00000E+000	Final Freq. (Hz)
PTSPERDEC	QUANT	1.00000E+001	Points/decade
VAC	QUANT	5.00000E+001	AC Voltage (mV rms)
AREA	QUANT	1.00000E+000	Sample Area (cm^2)
SPEED	SELECTOR	2	Optimize for:
ZGUESS	QUANT	1.00000E+003	Estimated Z (ohms)
EOC	QUANT	0	Open Circuit (V)
SEQUENCER	TOGGLE	TRUE	Run as Sequence
PSTATMODEL	IQUANT	5	Pstat Model
PSTATSECTION	LABEL	REF3000-16137	Pstat Section
PSTATSERIALNO	LABEL	16137	Pstat Serial Number
CTRLMODE	IQUANT	1	Control Mode
IESTAB	IQUANT	0	I/E Stability
CASPEED	IQUANT	1	Control Amp Speed
CONVENTION	IQUANT	1	Current Convention
ICHRANGE	IQUANT	2	Ich Range
ICHRANGEMODE	TOGGLE	F	Ich Auto Range
ICHOFFSETENABLE	TOGGLE	T	Ich Offset Enable
ICHOFFSET	QUANT	0	Ich Offset (V)
ICHFILTER	IQUANT	3	Ich Filter
VCHRANGE	IQUANT	2	Vch Range
VCHRANGEMODE	TOGGLE	F	Vch Auto Range
VCHOFFSETENABLE	TOGGLE	T	Vch Offset Enable
VCHOFFSET	QUANT	0	Vch Offset (V)
VCHFILTER	IQUANT	3	Vch Filter
ACHRANGE	IQUANT	2	Ach Range
ACHOFFSETENABLE	TOGGLE	F	Ach Offset Enable
ACHOFFSET	QUANT	0	Ach Offset (V)
ACHFILTER	IQUANT	3	Ach Filter
IERANGELOWERLIMIT	IQUANT	2	I/E Range Lower Limit
IERANGEMODE	TOGGLE	F	I/E AutoRange
IERANGE	IQUANT	11	I/E Range
POSFEEDENABLE	TOGGLE	F	Positive Feedback IR Comp
POSFEEDRESISTANCE	QUANT	0	Positive Feedback Resistance (ohm)
ACHSELECT	IQUANT	0	Ach Select
CABLEID	IQUANT	13	Cable ID
DCCALDATE	LABEL	7/31/2020	DC Calibration Date
ACCALDATE	LABEL	7/31/2020	AC Calibration Date
THERMOSELECT	IQUANT	1	Thermo Select
FRAMEWORKVERSION	QUANT	6.33	Framework Version
INSTRUMENTVERSION	LABEL	3.50	Instrument Version
COMPLIANCEVOLTAGE	IQUANT	0	Compliance Voltage
ZCURVE	TABLE
	Pt	Time	Freq	Zreal	Zimag	Zsig	Zmod	Zphz	Idc	Vdc	IERange
	#	s	Hz	ohm	ohm	V	ohm	°	A	V	#
	0	17	300046.9	387.9668	-38.57762	1	389.8801	-5.67856	-2.932542E-005	-0.0009985	9
	1	21	238359.4	392.183	-32.53787	1	393.5305	-4.742742	1.876849E-005	-0.0019823	9
	2	27	189328.1	395.7733	-26.95983	1	396.6904	-3.896934	-8.225846E-005	0.0036743	9
	3	35	150421.9	397.1225	-22.62411	1	397.7664	-3.260622	7.664717E-005	-0.0030592	9
	4	43	119484.4	400.4997	-18.30085	1	400.9176	-2.616313	7.297043E-005	-0.0014746	9
	5	48	94921.88	403.0864	-14.24894	1	403.3382	-2.024539	2.077299E-007	0.0006285	9
	6	50	75421.88	403.6098	-2.489845	1	403.6175	-0.3534499	1.397428E-005	-0.0020658	8
	7	53	59859.37	404.2256	-2.589939	1	404.2339	-0.3670984	-8.823948E-006	0.0059106	8
	8	55	47578.12	404.7424	-2.341169	1	404.7492	-0.3314148	1.392939E-005	-0.0021327	8
	9	58	37828.12	406.5399	-1.174276	1	406.5416	-0.1654963	-1.204626E-005	0.0030786	8
	10	61	30046.88	406.5231	-2.530861	1	406.531	-0.3566975	4.967757E-006	-0.0040914	8
	11	63	23859.38	407.4429	-2.230498	1	407.449	-0.3136558	-1.400908E-005	0.0046965	8
	12	65	18984.38	408.0877	-1.573658	1	408.0907	-0.2209416	-8.747825E-006	0.0060186	8
	13	68	15046.87	409.842	-2.521617	1	409.8497	-0.3525168	1.357959E-005	-0.0053443	8
	14	70	11953.13	410.2227	-1.35566	1	410.2249	-0.1893442	-1.315452E-005	0.0055329	8
	15	72	9515.62	410.6367	-2.035291	1	410.6417	-0.28398	2.453549E-006	-0.0033015	8
	16	75	7546.875	412.2502	-2.745402	1	412.2594	-0.3815586	-6.106849E-006	0.0061572	8
	17	77	5928.309	410.942	-2.622453	1	410.9503	-0.3656318	-6.338299E-006	-0.0003166	8
	18	79	4733.456	413.7755	-4.605579	1	413.8011	-0.6377114	-8.433069E-006	0.0058221	8
	19	82	3796.875	412.142	-2.524453	1	412.1497	-0.3509438	-5.097141E-006	0.0053462	8
	20	84	2987.132	414.076	-4.349509	1	414.0988	-0.6018203	-1.256849E-005	0.0025972	8
	21	86	2390.625	414.5884	-4.967898	1	414.6182	-0.6865265	-1.045436E-005	0.0016432	8
	22	89	1884.191	418.7793	-4.723637	1	418.806	-0.6462424	6.700388E-006	-0.0042652	8
	23	91	1516.544	415.5278	-7.586047	1	415.5971	-1.045899	1.548521E-005	-0.003247	8
	24	93	1193.986	416.1091	-9.258334	1	416.2121	-1.274608	7.407064E-006	-0.0043639	8
	25	96	946.5144	418.3914	-10.77291	1	418.53	-1.474949	-3.985668E-006	0.0052023	8
	26	98	751.7689	418.3731	-13.75874	1	418.5993	-1.883567	6.14385E-006	0.0020374	8
	27	100	597.4265	419.7565	-17.18276	1	420.108	-2.344098	-1.206222E-005	0.0061132	8
	28	103	477.4305	421.392	-20.73833	1	421.902	-2.817474	-9.657639E-008	0.0006458	8
	29	105	376.6741	422.7244	-25.74086	1	423.5074	-3.484596	-9.882477E-008	0.0006469	8
	30	107	298.2954	424.1964	-31.86604	1	425.3917	-4.296044	-9.526603E-008	0.0006345	8
	31	110	237.7717	425.8399	-39.23958	1	427.644	-5.264728	-8.320475E-008	0.0006472	8
	32	112	189.0121	427.7352	-48.46832	1	430.4725	-6.464829	-8.582413E-008	0.0006279	8
	33	114	150.2404	429.9469	-59.86421	1	434.0945	-7.92669	-9.164403E-008	0.0006476	8
	34	117	119.1737	432.5604	-74.09509	1	438.8605	-9.7201	-5.262416E-008	0.0006342	8
	35	119	95.0169	435.5983	-91.25799	1	445.055	-11.83236	-9.890066E-008	0.00064	8
	36	122	75.60484	439.3343	-112.5728	1	453.5276	-14.37197	-8.493043E-008	0.0006313	8
	37	124	54.50582	445.8337	-151.9405	1	471.0134	-18.81915	-1.183419E-007	0.0006567	8
	38	127	45.95588	450.4309	-177.5824	1	484.173	-21.51685	-3.944154E-008	0.0006394	8
	39	129	37.20238	456.9515	-215.324	1	505.1426	-25.23068	-3.319108E-008	0.0006304	8
	40	132	30.04808	465.0336	-261.4421	1	533.4869	-29.34471	-1.396739E-007	0.0006506	8
	41	134	23.91582	475.5454	-321.4514	1	573.9987	-34.05727	-1.267231E-007	0.00064	8
	42	136	18.60119	489.916	-403.3835	1	634.6148	-39.46711	-1.31074E-007	0.0006416	8
	43	139	15.02404	505.3163	-488.7685	1	703.0215	-44.04633	-1.256578E-007	0.0006457	8
	44	141	12.01923	525.382	-597.2121	1	795.4172	-48.66113	-1.916937E-007	0.0006451	8
	45	143	9.450605	551.7972	-740.8915	1	923.7967	-53.32219	-6.974023E-008	0.0006469	8
	46	146	7.512019	584.3588	-909.7535	1	1081.262	-57.28629	-1.154679E-007	0.0006539	8
	47	149	5.978954	624.0516	-1114.21	1	1277.068	-60.74749	-9.29587E-008	0.0006383	8
	48	152	4.734848	675.806	-1371.296	1	1528.779	-63.76486	-6.525513E-008	0.0006545	8
	49	155	3.75601	738.4338	-1681.723	1	1836.703	-66.29403	-9.153786E-008	0.0006306	8
	50	158	3.004808	812.4976	-2044.499	1	2200.029	-68.3268	-6.869399E-008	0.0006005	8
	51	162	2.372217	906.8332	-2514.266	1	2672.804	-70.16689	-9.380091E-008	0.0005908	8
	52	166	1.878005	1024.901	-3085.427	1	3251.197	-71.62481	-1.01558E-007	0.0006479	8
	53	171	1.512097	1151.946	-3731.193	1	3904.969	-72.84277	-9.162223E-008	0.0005369	8
	54	176	1.201923	1319.29	-4576.388	1	4762.757	-73.91869	-3.627184E-008	0.0006292	7
	55	183	0.956633	1512.767	-5595.441	1	5796.329	-74.87136	-3.49477E-008	-3.259582E-005	7
