EXPLAIN
TAG	EISPOT
TITLE	LABEL	Potentiostatic EIS	Test Identifier
DATE	LABEL	9/22/2020	Date
TIME	LABEL	1:39:53	Time
NOTES	NOTES	1	Notes...
	
PSTAT	PSTAT	REF3000-16137	Potentiostat
VDC	POTEN	0.00000E+000	T	DC Voltage (V)
FREQINIT	QUANT	3.00000E+005	Initial Freq. (Hz)
FREQFINAL	QUANT	1.00000E+000	Final Freq. (Hz)
PTSPERDEC	QUANT	1.00000E+001	Points/decade
VAC	QUANT	5.00000E+001	AC Voltage (mV rms)
AREA	QUANT	1.00000E+000	Sample Area (cm^2)
SPEED	SELECTOR	2	Optimize for:
ZGUESS	QUANT	1.00000E+003	Estimated Z (ohms)
EOC	QUANT	0	Open Circuit (V)
SEQUENCER	TOGGLE	TRUE	Run as Sequence
PSTATMODEL	IQUANT	5	Pstat Model
PSTATSECTION	LABEL	REF3000-16137	Pstat Section
PSTATSERIALNO	LABEL	16137	Pstat Serial Number
CTRLMODE	IQUANT	1	Control Mode
IESTAB	IQUANT	0	I/E Stability
CASPEED	IQUANT	1	Control Amp Speed
CONVENTION	IQUANT	1	Current Convention
ICHRANGE	IQUANT	2	Ich Range
ICHRANGEMODE	TOGGLE	F	Ich Auto Range
ICHOFFSETENABLE	TOGGLE	T	Ich Offset Enable
ICHOFFSET	QUANT	0	Ich Offset (V)
ICHFILTER	IQUANT	3	Ich Filter
VCHRANGE	IQUANT	2	Vch Range
VCHRANGEMODE	TOGGLE	F	Vch Auto Range
VCHOFFSETENABLE	TOGGLE	T	Vch Offset Enable
VCHOFFSET	QUANT	0	Vch Offset (V)
VCHFILTER	IQUANT	3	Vch Filter
ACHRANGE	IQUANT	2	Ach Range
ACHOFFSETENABLE	TOGGLE	F	Ach Offset Enable
ACHOFFSET	QUANT	0	Ach Offset (V)
ACHFILTER	IQUANT	3	Ach Filter
IERANGELOWERLIMIT	IQUANT	2	I/E Range Lower Limit
IERANGEMODE	TOGGLE	F	I/E AutoRange
IERANGE	IQUANT	11	I/E Range
POSFEEDENABLE	TOGGLE	F	Positive Feedback IR Comp
POSFEEDRESISTANCE	QUANT	0	Positive Feedback Resistance (ohm)
ACHSELECT	IQUANT	0	Ach Select
CABLEID	IQUANT	13	Cable ID
DCCALDATE	LABEL	7/31/2020	DC Calibration Date
ACCALDATE	LABEL	7/31/2020	AC Calibration Date
THERMOSELECT	IQUANT	1	Thermo Select
FRAMEWORKVERSION	QUANT	6.33	Framework Version
INSTRUMENTVERSION	LABEL	3.50	Instrument Version
COMPLIANCEVOLTAGE	IQUANT	0	Compliance Voltage
ZCURVE	TABLE
	Pt	Time	Freq	Zreal	Zimag	Zsig	Zmod	Zphz	Idc	Vdc	IERange
	#	s	Hz	ohm	ohm	V	ohm	°	A	V	#
	0	7	300046.9	49.12437	2.188884	1	49.17311	2.551298	3.051946E-006	-0.0015106	9
	1	10	238359.4	49.1493	1.723379	1	49.1795	2.008206	-5.839276E-005	0.0012057	9
	2	13	189328.1	49.22405	1.333968	1	49.24212	1.552331	-6.093783E-005	0.001965	9
	3	16	150421.9	49.26329	1.037492	1	49.27421	1.206479	-6.086227E-005	0.0019851	9
	4	18	119484.4	49.35554	0.7770151	1	49.36166	0.9019455	1.189864E-006	0.0004991	9
	5	21	94921.88	49.47739	0.7531157	1	49.48312	0.8720552	-7.582693E-006	0.0005395	9
	6	23	75421.88	49.50074	0.5348583	1	49.50362	0.6190601	9.086731E-006	-0.0005248	9
	7	26	59859.37	49.5467	0.3507519	1	49.54794	0.4056026	1.246247E-005	-0.0005901	9
	8	28	47578.12	49.59322	0.1651133	1	49.59349	0.1907572	-1.672011E-005	0.0004737	9
	9	31	37828.12	49.66916	0.0045717	1	49.66916	0.0052737	-1.596018E-005	0.0004735	9
	10	33	30046.88	49.71949	-0.1425165	1	49.71969	-0.1642328	1.418886E-005	-0.0005476	9
	11	36	23859.38	49.8092	-0.2770568	1	49.80997	-0.3186966	1.439654E-005	-0.0005328	9
	12	38	18984.38	49.86601	-0.4133593	1	49.86773	-0.4749368	1.037374E-005	-0.0004933	9
	13	40	15046.87	49.92176	-0.5728088	1	49.92505	-0.6573904	-1.443369E-005	0.0006119	9
	14	43	11953.13	49.91502	-0.7412052	1	49.92053	-0.850742	-6.712835E-006	-2.272821E-005	9
	15	45	9515.62	50.08035	-0.96878	1	50.08972	-1.108221	-1.368672E-005	0.0003139	9
	16	47	7546.875	50.13857	-1.242112	1	50.15395	-1.419131	1.824616E-005	-0.000212	9
	17	50	5928.309	50.24381	-1.557401	1	50.26794	-1.775422	1.902398E-005	-0.0003618	9
	18	52	4733.456	50.34503	-1.915097	1	50.38144	-2.178449	-1.335737E-005	0.0006668	9
	19	54	3796.875	50.42884	-2.365548	1	50.48429	-2.685698	-1.68381E-005	0.0005184	9
	20	57	2987.132	50.54545	-2.972126	1	50.63276	-3.365178	1.913225E-005	-0.0003605	9
	21	59	2390.625	50.69218	-3.651333	1	50.82351	-4.119872	1.972791E-005	-0.0002468	9
	22	61	1884.191	50.84803	-4.54659	1	51.05089	-5.109529	2.01142E-005	-0.0003912	9
	23	64	1516.544	51.01867	-5.583826	1	51.32333	-6.245975	-1.598052E-005	0.0006225	9
	24	66	1193.986	51.22827	-6.981265	1	51.70178	-7.760325	-1.303452E-005	0.0006358	9
	25	68	946.5144	51.47369	-8.660778	1	52.19722	-9.55092	-8.850936E-006	4.234142E-005	9
	26	71	751.7689	51.83177	-10.70733	1	52.92617	-11.6719	-1.22778E-005	0.0001846	9
	27	73	597.4265	52.17873	-13.24185	1	53.83276	-14.23983	-2.229745E-006	-0.0001585	9
	28	75	477.4305	52.62297	-16.29096	1	55.08695	-17.20142	1.240422E-006	6.479069E-005	9
	29	78	376.6741	53.21189	-20.27219	1	56.94267	-20.85539	1.335026E-006	6.346262E-005	9
	30	80	298.2954	53.93877	-25.12809	1	59.50472	-24.97908	1.283731E-006	6.857511E-005	9
	31	82	237.7717	54.82443	-30.94627	1	62.95546	-29.44305	1.064076E-006	0.0001084	9
	32	85	189.0121	55.93998	-38.18075	1	67.72778	-34.31474	1.301122E-006	6.487856E-005	9
	33	87	150.2404	57.33838	-47.08919	1	74.19624	-39.39458	1.267762E-006	6.307827E-005	9
	34	90	119.1737	59.11357	-58.15376	1	82.9233	-44.53105	1.306398E-006	6.232002E-005	9
	35	92	95.0169	61.29772	-71.45113	1	94.14178	-49.3738	1.303286E-006	6.729653E-005	9
	36	95	75.60484	64.08157	-87.89969	1	108.7787	-53.9068	1.082727E-006	0.0000976	9
	37	97	54.50582	69.36607	-118.0925	1	136.958	-59.57056	1.234919E-006	5.785717E-005	9
	38	100	45.95588	72.9335	-137.6486	1	155.7769	-62.083	1.285755E-006	6.090773E-005	9
	39	102	37.20238	78.22823	-166.2436	1	183.7296	-64.80002	1.227108E-006	6.660703E-005	9
	40	104	30.04808	84.75083	-201.0345	1	218.1687	-67.141	1.246475E-006	6.469298E-005	9
	41	107	23.91582	93.2487	-246.0651	1	263.1413	-69.24532	1.147876E-006	9.45091E-005	9
	42	109	18.60119	104.6766	-307.2832	1	324.6231	-71.1885	1.316142E-006	6.049382E-005	9
	43	111	15.02404	116.4791	-371.0934	1	388.9443	-72.57393	1.184693E-006	6.251253E-005	9
	44	114	12.01923	130.6432	-450.019	1	468.5987	-73.81168	3.488871E-007	0.0006428	8
	45	116	9.450605	149.8673	-557.0216	1	576.8304	-74.94111	3.636221E-007	0.0006401	8
	46	119	7.512019	172.3509	-683.1014	1	704.5086	-75.83945	3.74673E-007	0.0006572	8
	47	121	5.978954	199.5895	-837.4635	1	860.9188	-76.59498	3.782355E-007	0.0006385	8
	48	124	4.734848	235.5454	-1032.175	1	1058.71	-77.14506	3.62536E-007	0.0006587	8
	49	128	3.75601	279.8832	-1270.144	1	1300.615	-77.57316	3.201628E-007	0.0006466	8
	50	131	3.004808	335.1848	-1550.584	1	1586.399	-77.80224	3.299413E-007	0.0006657	8
	51	135	2.372217	410.8867	-1917.449	1	1960.979	-77.90511	3.555935E-007	0.0007109	8
	52	139	1.878005	510.4899	-2360.625	1	2415.191	-77.79757	3.589833E-007	0.0006155	8
	53	144	1.512097	632.109	-2856.999	1	2926.09	-77.52432	3.675366E-007	0.0007193	8
	54	149	1.201923	794.886	-3502.591	1	3591.655	-77.21374	3.665934E-007	0.0006092	8
	55	155	0.956633	1009.986	-4283.176	1	4400.644	-76.73185	-2.605637E-008	-2.36725E-005	7
