EXPLAIN
TAG	EISPOT
TITLE	LABEL	Potentiostatic EIS	Test Identifier
DATE	LABEL	9/22/2020	Date
TIME	LABEL	0:02:49	Time
NOTES	NOTES	1	Notes...
	
PSTAT	PSTAT	REF3000-16137	Potentiostat
VDC	POTEN	0.00000E+000	T	DC Voltage (V)
FREQINIT	QUANT	3.00000E+005	Initial Freq. (Hz)
FREQFINAL	QUANT	1.00000E+000	Final Freq. (Hz)
PTSPERDEC	QUANT	1.00000E+001	Points/decade
VAC	QUANT	5.00000E+001	AC Voltage (mV rms)
AREA	QUANT	1.00000E+000	Sample Area (cm^2)
SPEED	SELECTOR	2	Optimize for:
ZGUESS	QUANT	1.00000E+003	Estimated Z (ohms)
EOC	QUANT	0	Open Circuit (V)
SEQUENCER	TOGGLE	TRUE	Run as Sequence
PSTATMODEL	IQUANT	5	Pstat Model
PSTATSECTION	LABEL	REF3000-16137	Pstat Section
PSTATSERIALNO	LABEL	16137	Pstat Serial Number
CTRLMODE	IQUANT	1	Control Mode
IESTAB	IQUANT	0	I/E Stability
CASPEED	IQUANT	1	Control Amp Speed
CONVENTION	IQUANT	1	Current Convention
ICHRANGE	IQUANT	2	Ich Range
ICHRANGEMODE	TOGGLE	F	Ich Auto Range
ICHOFFSETENABLE	TOGGLE	T	Ich Offset Enable
ICHOFFSET	QUANT	0	Ich Offset (V)
ICHFILTER	IQUANT	3	Ich Filter
VCHRANGE	IQUANT	2	Vch Range
VCHRANGEMODE	TOGGLE	F	Vch Auto Range
VCHOFFSETENABLE	TOGGLE	T	Vch Offset Enable
VCHOFFSET	QUANT	0	Vch Offset (V)
VCHFILTER	IQUANT	3	Vch Filter
ACHRANGE	IQUANT	2	Ach Range
ACHOFFSETENABLE	TOGGLE	F	Ach Offset Enable
ACHOFFSET	QUANT	0	Ach Offset (V)
ACHFILTER	IQUANT	3	Ach Filter
IERANGELOWERLIMIT	IQUANT	2	I/E Range Lower Limit
IERANGEMODE	TOGGLE	F	I/E AutoRange
IERANGE	IQUANT	11	I/E Range
POSFEEDENABLE	TOGGLE	F	Positive Feedback IR Comp
POSFEEDRESISTANCE	QUANT	0	Positive Feedback Resistance (ohm)
ACHSELECT	IQUANT	0	Ach Select
CABLEID	IQUANT	13	Cable ID
DCCALDATE	LABEL	7/31/2020	DC Calibration Date
ACCALDATE	LABEL	7/31/2020	AC Calibration Date
THERMOSELECT	IQUANT	1	Thermo Select
FRAMEWORKVERSION	QUANT	6.33	Framework Version
INSTRUMENTVERSION	LABEL	3.50	Instrument Version
COMPLIANCEVOLTAGE	IQUANT	0	Compliance Voltage
ZCURVE	TABLE
	Pt	Time	Freq	Zreal	Zimag	Zsig	Zmod	Zphz	Idc	Vdc	IERange
	#	s	Hz	ohm	ohm	V	ohm	°	A	V	#
	0	8	300046.9	8.636893	2.216411	1	8.916749	14.39274	-0.0001054	2.97482E-005	10
	1	11	238359.4	8.624196	1.749495	1	8.799857	11.46735	-2.771561E-005	2.431015E-005	10
	2	14	189328.1	8.605558	1.375774	1	8.714837	9.083037	7.329408E-005	6.759758E-005	10
	3	17	150421.9	8.602573	1.06697	1	8.668489	7.070243	1.665801E-005	0.0004071	10
	4	19	119484.4	8.594398	0.8316416	1	8.634542	5.527049	-0.0001001	0.000504	10
	5	22	94921.88	8.596153	0.6521563	1	8.620856	4.338494	2.196914E-005	0.0005478	10
	6	24	75421.88	8.596241	0.4729742	1	8.609243	3.149299	-1.938104E-005	0.0005762	10
	7	27	59859.37	8.600863	0.3173964	1	8.606717	2.113419	-2.684213E-005	0.0006573	10
	8	29	47578.12	8.608254	0.1829411	1	8.610198	1.217457	2.002981E-005	0.0005823	10
	9	32	37828.12	8.618792	0.0640544	1	8.61903	0.4258116	-8.779566E-006	0.000691	10
	10	35	30046.88	8.62887	-0.0502881	1	8.629017	-0.3339095	1.607118E-005	0.0006599	10
	11	37	23859.38	8.640657	-0.1647349	1	8.642227	-1.092217	-1.609496E-005	0.0006605	10
	12	39	18984.38	8.653068	-0.2841508	1	8.657732	-1.880812	-2.566214E-005	0.000723	10
	13	42	15046.87	8.668504	-0.418669	1	8.678608	-2.765107	-2.038135E-005	0.0006431	10
	14	44	11953.13	8.687173	-0.5698149	1	8.705841	-3.752807	-1.167345E-005	0.0007156	10
	15	46	9515.62	8.708612	-0.7450181	1	8.740422	-4.889724	-2.047197E-005	0.0006442	10
	16	49	7546.875	8.734648	-0.957047	1	8.786922	-6.252902	-2.489976E-005	0.0007181	10
	17	51	5928.309	8.766453	-1.225827	1	8.851743	-7.960143	2.130042E-005	0.0006454	10
	18	53	4733.456	8.804724	-1.530652	1	8.936781	-9.86199	3.536232E-006	0.0006574	10
	19	56	3796.875	8.8508	-1.8943	1	9.051245	-12.08052	-1.061107E-005	0.0006564	10
	20	58	2987.132	8.910665	-2.383632	1	9.223971	-14.97616	2.108559E-005	0.0006471	10
	21	60	2390.625	8.982475	-2.944119	1	9.452656	-18.14721	-1.983141E-005	0.0006498	10
	22	62	1884.191	9.078872	-3.678164	1	9.79565	-22.05457	2.858158E-006	0.0006166	10
	23	65	1516.544	9.188161	-4.506759	1	10.23392	-26.12778	-2.132742E-005	0.0006915	10
	24	67	1193.986	9.341099	-5.625512	1	10.90424	-31.05771	3.496267E-006	0.0006191	10
	25	70	946.5144	9.52649	-6.977333	1	11.80836	-36.21955	-1.915658E-005	0.0006602	10
	26	72	751.7689	9.77183	-8.62548	1	13.03409	-41.43448	-1.871545E-005	0.0006611	10
	27	74	597.4265	10.08007	-10.65613	1	14.66837	-46.5913	9.873899E-006	0.0006036	10
	28	77	477.4305	10.45583	-13.08619	1	16.7503	-51.37524	-3.812377E-006	0.0006635	10
	29	79	376.6741	10.97217	-16.24488	1	19.60318	-55.96399	-5.538827E-006	0.0006889	10
	30	81	298.2954	11.62174	-20.0741	1	23.19557	-59.93164	-4.987713E-006	0.0006959	10
	31	83	237.7717	12.42405	-24.62771	1	27.58407	-63.23022	-3.437178E-006	0.000657	10
	32	86	189.0121	13.43993	-30.25722	1	33.10788	-66.04972	-3.144787E-006	0.0006654	10
	33	88	150.2404	14.69434	-37.12651	1	39.9287	-68.40678	-3.320985E-006	0.0006598	10
	34	91	119.1737	16.2195	-45.55457	1	48.35588	-70.40196	7.501927E-007	6.655828E-005	9
	35	93	95.0169	18.04984	-55.68673	1	58.53895	-72.04084	8.391523E-007	6.496387E-005	9
	36	96	75.60484	20.28009	-68.20155	1	71.15289	-73.43987	8.002499E-007	6.11421E-005	9
	37	98	54.50582	24.3295	-91.23811	1	94.42625	-75.06897	7.089864E-007	6.675376E-005	9
	38	101	45.95588	26.96276	-106.2435	1	109.6114	-75.75995	9.382057E-007	5.922032E-005	9
	39	103	37.20238	30.87532	-128.3573	1	132.0185	-76.47491	9.261555E-007	5.682212E-005	9
	40	105	30.04808	35.77211	-155.4364	1	159.4996	-77.03963	8.83288E-007	6.233628E-005	9
	41	108	23.91582	42.38163	-190.8522	1	195.5013	-77.47977	7.64158E-007	5.954066E-005	9
	42	110	18.60119	51.81833	-239.0554	1	244.6071	-77.76962	9.481277E-007	5.807219E-005	9
	43	112	15.02404	62.32806	-289.6737	1	296.3033	-77.857	8.0108E-007	5.104067E-005	9
	44	115	12.01923	76.48087	-353.5278	1	361.706	-77.79296	9.558055E-007	5.79938E-005	9
	45	117	9.450605	96.4859	-436.0516	1	446.5989	-77.5231	3.491413E-007	0.0006438	8
	46	120	7.512019	122.1412	-533.9139	1	547.7066	-77.11442	3.530341E-007	0.0006567	8
	47	122	5.978954	156.1951	-651.5951	1	670.0545	-76.51987	2.340981E-007	0.0006404	8
	48	125	4.734848	201.9849	-796.899	1	822.0985	-75.77714	3.6822E-007	0.0006693	8
	49	129	3.75601	262.9072	-969.642	1	1004.653	-74.82966	1.998981E-007	0.0006311	8
	50	132	3.004808	339.5378	-1166.163	1	1214.587	-73.76665	2.851773E-007	0.0006344	8
	51	136	2.372217	447.2981	-1410.693	1	1479.909	-72.40739	2.858383E-007	0.0006685	8
	52	140	1.878005	585.0455	-1700.286	1	1798.124	-71.01235	2.053009E-007	0.0006301	8
	53	145	1.512097	744.6584	-2007.718	1	2141.366	-69.65028	2.704556E-007	0.0005533	8
	54	150	1.201923	967.935	-2384.688	1	2573.642	-67.90797	2.328351E-007	0.0006283	8
	55	156	0.956633	1245.992	-2809.885	1	3073.751	-66.08598	2.027958E-007	-1.814718E-006	8
