EXPLAIN
TAG	EISPOT
TITLE	LABEL	Potentiostatic EIS	Test Identifier
DATE	LABEL	9/22/2020	Date
TIME	LABEL	0:16:38	Time
NOTES	NOTES	1	Notes...
	
PSTAT	PSTAT	REF3000-16137	Potentiostat
VDC	POTEN	0.00000E+000	T	DC Voltage (V)
FREQINIT	QUANT	3.00000E+005	Initial Freq. (Hz)
FREQFINAL	QUANT	1.00000E+000	Final Freq. (Hz)
PTSPERDEC	QUANT	1.00000E+001	Points/decade
VAC	QUANT	5.00000E+001	AC Voltage (mV rms)
AREA	QUANT	1.00000E+000	Sample Area (cm^2)
SPEED	SELECTOR	2	Optimize for:
ZGUESS	QUANT	1.00000E+003	Estimated Z (ohms)
EOC	QUANT	0	Open Circuit (V)
SEQUENCER	TOGGLE	TRUE	Run as Sequence
PSTATMODEL	IQUANT	5	Pstat Model
PSTATSECTION	LABEL	REF3000-16137	Pstat Section
PSTATSERIALNO	LABEL	16137	Pstat Serial Number
CTRLMODE	IQUANT	1	Control Mode
IESTAB	IQUANT	0	I/E Stability
CASPEED	IQUANT	1	Control Amp Speed
CONVENTION	IQUANT	1	Current Convention
ICHRANGE	IQUANT	2	Ich Range
ICHRANGEMODE	TOGGLE	F	Ich Auto Range
ICHOFFSETENABLE	TOGGLE	T	Ich Offset Enable
ICHOFFSET	QUANT	0	Ich Offset (V)
ICHFILTER	IQUANT	3	Ich Filter
VCHRANGE	IQUANT	2	Vch Range
VCHRANGEMODE	TOGGLE	F	Vch Auto Range
VCHOFFSETENABLE	TOGGLE	T	Vch Offset Enable
VCHOFFSET	QUANT	0	Vch Offset (V)
VCHFILTER	IQUANT	3	Vch Filter
ACHRANGE	IQUANT	2	Ach Range
ACHOFFSETENABLE	TOGGLE	F	Ach Offset Enable
ACHOFFSET	QUANT	0	Ach Offset (V)
ACHFILTER	IQUANT	3	Ach Filter
IERANGELOWERLIMIT	IQUANT	2	I/E Range Lower Limit
IERANGEMODE	TOGGLE	F	I/E AutoRange
IERANGE	IQUANT	11	I/E Range
POSFEEDENABLE	TOGGLE	F	Positive Feedback IR Comp
POSFEEDRESISTANCE	QUANT	0	Positive Feedback Resistance (ohm)
ACHSELECT	IQUANT	0	Ach Select
CABLEID	IQUANT	13	Cable ID
DCCALDATE	LABEL	7/31/2020	DC Calibration Date
ACCALDATE	LABEL	7/31/2020	AC Calibration Date
THERMOSELECT	IQUANT	1	Thermo Select
FRAMEWORKVERSION	QUANT	6.33	Framework Version
INSTRUMENTVERSION	LABEL	3.50	Instrument Version
COMPLIANCEVOLTAGE	IQUANT	0	Compliance Voltage
ZCURVE	TABLE
	Pt	Time	Freq	Zreal	Zimag	Zsig	Zmod	Zphz	Idc	Vdc	IERange
	#	s	Hz	ohm	ohm	V	ohm	°	A	V	#
	0	8	300046.9	10.35644	2.162835	1	10.57987	11.79609	1.417289E-005	0.0000961	10
	1	11	238359.4	10.32437	1.727334	1	10.46786	9.497989	-0.000101	0.0001942	10
	2	14	189328.1	10.3087	1.359558	1	10.39797	7.513065	2.824711E-005	0.0003604	10
	3	17	150421.9	10.30987	1.05461	1	10.36367	5.840544	2.03612E-005	0.0004403	10
	4	19	119484.4	10.29932	0.8184899	1	10.3318	4.543761	2.371801E-005	0.000538	10
	5	22	94921.88	10.30449	0.6418492	1	10.32446	3.564251	-8.846786E-006	0.0005501	10
	6	24	75421.88	10.30621	0.4621068	1	10.31656	2.567292	-2.788466E-005	0.0005978	10
	7	27	59859.37	10.31472	0.3057244	1	10.31925	1.697728	1.288349E-005	0.0005591	10
	8	30	47578.12	10.32539	0.1735766	1	10.32685	0.963089	-1.587E-005	0.0006403	10
	9	32	37828.12	10.33601	0.0545212	1	10.33615	0.3022255	1.763427E-005	0.000654	10
	10	35	30046.88	10.34908	-0.0597709	1	10.34925	-0.3309071	-2.309719E-005	0.0007011	10
	11	37	23859.38	10.36155	-0.1761413	1	10.36305	-0.973907	-2.701914E-005	0.0006826	10
	12	39	18984.38	10.37653	-0.2972499	1	10.38078	-1.640867	-3.055011E-005	0.0006798	10
	13	42	15046.87	10.3925	-0.4330611	1	10.40151	-2.386167	1.791157E-005	0.000622	10
	14	44	11953.13	10.41314	-0.5871574	1	10.42968	-3.227273	2.874505E-006	0.0006045	10
	15	46	9515.62	10.43723	-0.7668157	1	10.46536	-4.201931	2.305794E-006	0.000604	10
	16	49	7546.875	10.46632	-0.984545	1	10.51253	-5.37388	-2.08103E-005	0.0006592	10
	17	51	5928.309	10.49983	-1.258809	1	10.57502	-6.83648	1.459931E-005	0.0006433	10
	18	53	4733.456	10.54097	-1.570702	1	10.65735	-8.475244	4.047035E-006	0.0006002	10
	19	56	3796.875	10.58688	-1.941645	1	10.76346	-10.39261	2.03832E-005	0.0006093	10
	20	58	2987.132	10.65089	-2.443022	1	10.92748	-12.91862	1.47016E-005	0.0006475	10
	21	60	2390.625	10.72425	-3.015371	1	11.14011	-15.70455	2.847096E-006	0.000633	10
	22	63	1884.191	10.82145	-3.770587	1	11.45954	-19.21019	2.046364E-005	0.0006253	10
	23	65	1516.544	10.93339	-4.617614	1	11.8685	-22.8963	2.234552E-005	0.0006463	10
	24	67	1193.986	11.09209	-5.765647	1	12.50109	-27.46532	2.138024E-005	0.0006224	10
	25	70	946.5144	11.28289	-7.151384	1	13.35837	-32.36757	-1.916594E-005	0.0007179	10
	26	72	751.7689	11.5279	-8.84468	1	14.53	-37.49689	1.64145E-005	0.0006051	10
	27	74	597.4265	11.83393	-10.92934	1	16.10877	-42.72432	-2.611224E-005	0.0006744	10
	28	77	477.4305	12.21156	-13.42525	1	18.14826	-47.71045	-3.013861E-006	0.0006631	10
	29	79	376.6741	12.72638	-16.67451	1	20.97618	-52.64827	-2.855043E-006	0.0006565	10
	30	81	298.2954	13.37907	-20.62211	1	24.58192	-57.02558	-2.971393E-006	0.0006701	10
	31	84	237.7717	14.18747	-25.32844	1	29.03127	-60.74508	-3.122338E-006	0.0006634	10
	32	86	189.0121	15.21797	-31.1418	1	34.66119	-63.95677	-2.933674E-006	0.0006638	10
	33	89	150.2404	16.50364	-38.24385	1	41.65288	-66.658	-2.995177E-006	0.0006601	10
	34	91	119.1737	18.0832	-46.94985	1	50.31194	-68.93532	1.002417E-006	6.780838E-005	9
	35	93	95.0169	19.98824	-57.4024	1	60.78294	-70.80124	9.437179E-007	6.23579E-005	9
	36	96	75.60484	22.31239	-70.29485	1	73.75099	-72.38996	6.515116E-007	0.0001056	9
	37	99	54.50582	26.50502	-93.97579	1	97.642	-74.24937	8.182557E-007	5.710526E-005	9
	38	101	45.95588	29.21291	-109.3896	1	113.2231	-75.04787	9.908598E-007	6.431401E-005	9
	39	103	37.20238	33.18363	-132.0612	1	136.1665	-75.89503	8.811404E-007	6.156795E-005	9
	40	106	30.04808	38.11115	-159.9206	1	164.3991	-76.5957	8.454666E-007	6.510314E-005	9
	41	108	23.91582	44.64865	-196.1653	1	201.1823	-77.17751	7.261903E-007	0.0000983	9
	42	111	18.60119	53.98577	-245.8914	1	251.7479	-77.6171	8.969586E-007	6.400936E-005	9
	43	113	15.02404	64.19279	-297.951	1	304.7877	-77.84161	9.587233E-007	5.695234E-005	9
	44	115	12.01923	77.89526	-363.9367	1	372.1795	-77.91897	1.011986E-006	7.217355E-005	9
	45	118	9.450605	97.0076	-449.3477	1	459.6997	-77.81763	3.22112E-007	0.0006462	8
	46	120	7.512019	121.7533	-550.8351	1	564.1304	-77.53609	4.402863E-007	0.0006512	8
	47	123	5.978954	153.9479	-673.6673	1	691.0337	-77.12768	3.97028E-007	0.0006322	8
	48	126	4.734848	198.3054	-826.1829	1	849.6489	-76.50286	3.471519E-007	0.000642	8
	49	129	3.75601	256.181	-1008.128	1	1040.168	-75.74203	3.802308E-007	0.0006482	8
	50	133	3.004808	329.3711	-1216.892	1	1260.679	-74.85487	3.035622E-007	0.0007042	8
	51	137	2.372217	431.0175	-1478.274	1	1539.828	-73.745	3.385801E-007	0.0006473	8
	52	141	1.878005	566.1074	-1789.071	1	1876.5	-72.44131	3.979532E-007	0.000619	8
	53	145	1.512097	722.3907	-2123.859	1	2243.351	-71.21523	3.558709E-007	0.0007334	8
	54	151	1.201923	938.2685	-2535.644	1	2703.671	-69.69393	3.928223E-007	0.0006301	8
	55	157	0.956633	1207.38	-3008.799	1	3242.011	-68.13524	2.577628E-007	-8.61538E-007	8
