EXPLAIN
TAG	EISPOT
TITLE	LABEL	Potentiostatic EIS	Test Identifier
DATE	LABEL	9/22/2020	Date
TIME	LABEL	0:00:03	Time
NOTES	NOTES	1	Notes...
	
PSTAT	PSTAT	REF3000-16137	Potentiostat
VDC	POTEN	0.00000E+000	T	DC Voltage (V)
FREQINIT	QUANT	3.00000E+005	Initial Freq. (Hz)
FREQFINAL	QUANT	1.00000E+000	Final Freq. (Hz)
PTSPERDEC	QUANT	1.00000E+001	Points/decade
VAC	QUANT	5.00000E+001	AC Voltage (mV rms)
AREA	QUANT	1.00000E+000	Sample Area (cm^2)
SPEED	SELECTOR	2	Optimize for:
ZGUESS	QUANT	1.00000E+003	Estimated Z (ohms)
EOC	QUANT	0	Open Circuit (V)
SEQUENCER	TOGGLE	TRUE	Run as Sequence
PSTATMODEL	IQUANT	5	Pstat Model
PSTATSECTION	LABEL	REF3000-16137	Pstat Section
PSTATSERIALNO	LABEL	16137	Pstat Serial Number
CTRLMODE	IQUANT	1	Control Mode
IESTAB	IQUANT	0	I/E Stability
CASPEED	IQUANT	1	Control Amp Speed
CONVENTION	IQUANT	1	Current Convention
ICHRANGE	IQUANT	2	Ich Range
ICHRANGEMODE	TOGGLE	F	Ich Auto Range
ICHOFFSETENABLE	TOGGLE	T	Ich Offset Enable
ICHOFFSET	QUANT	0	Ich Offset (V)
ICHFILTER	IQUANT	3	Ich Filter
VCHRANGE	IQUANT	2	Vch Range
VCHRANGEMODE	TOGGLE	F	Vch Auto Range
VCHOFFSETENABLE	TOGGLE	T	Vch Offset Enable
VCHOFFSET	QUANT	0	Vch Offset (V)
VCHFILTER	IQUANT	3	Vch Filter
ACHRANGE	IQUANT	2	Ach Range
ACHOFFSETENABLE	TOGGLE	F	Ach Offset Enable
ACHOFFSET	QUANT	0	Ach Offset (V)
ACHFILTER	IQUANT	3	Ach Filter
IERANGELOWERLIMIT	IQUANT	2	I/E Range Lower Limit
IERANGEMODE	TOGGLE	F	I/E AutoRange
IERANGE	IQUANT	11	I/E Range
POSFEEDENABLE	TOGGLE	F	Positive Feedback IR Comp
POSFEEDRESISTANCE	QUANT	0	Positive Feedback Resistance (ohm)
ACHSELECT	IQUANT	0	Ach Select
CABLEID	IQUANT	13	Cable ID
DCCALDATE	LABEL	7/31/2020	DC Calibration Date
ACCALDATE	LABEL	7/31/2020	AC Calibration Date
THERMOSELECT	IQUANT	1	Thermo Select
FRAMEWORKVERSION	QUANT	6.33	Framework Version
INSTRUMENTVERSION	LABEL	3.50	Instrument Version
COMPLIANCEVOLTAGE	IQUANT	0	Compliance Voltage
ZCURVE	TABLE
	Pt	Time	Freq	Zreal	Zimag	Zsig	Zmod	Zphz	Idc	Vdc	IERange
	#	s	Hz	ohm	ohm	V	ohm	°	A	V	#
	0	8	300046.9	8.367658	2.188485	1	8.649114	14.65689	2.236513E-005	6.071984E-005	10
	1	11	238359.4	8.331874	1.748926	1	8.513452	11.85472	5.883583E-005	4.915026E-005	10
	2	14	189328.1	8.314372	1.378167	1	8.427818	9.411613	5.463346E-005	0.0002231	10
	3	17	150421.9	8.300608	1.077989	1	8.370314	7.399516	-0.0001013	0.0004125	10
	4	20	119484.4	8.305532	0.8313351	1	8.347034	5.715934	1.192439E-005	0.0005015	10
	5	22	94921.88	8.306536	0.6544001	1	8.332273	4.504535	-6.974974E-006	0.0005717	10
	6	25	75421.88	8.306581	0.4734114	1	8.320061	3.261891	1.761094E-005	0.000541	10
	7	27	59859.37	8.310205	0.3185473	1	8.316308	2.195191	4.923796E-007	0.0005992	10
	8	30	47578.12	8.318459	0.1848694	1	8.320513	1.273132	2.027436E-005	0.000603	10
	9	32	37828.12	8.328847	0.0652085	1	8.329103	0.4485731	1.613135E-005	0.0006495	10
	10	35	30046.88	8.33917	-0.0485391	1	8.339311	-0.3334928	-1.249445E-005	0.0006953	10
	11	37	23859.38	8.350544	-0.1626093	1	8.352127	-1.115574	-2.290766E-005	0.0007025	10
	12	40	18984.38	8.362488	-0.2820606	1	8.367244	-1.931813	-3.008834E-005	0.0006622	10
	13	42	15046.87	8.377891	-0.4152812	1	8.388177	-2.837755	-2.333188E-005	0.0006542	10
	14	44	11953.13	8.396427	-0.5666056	1	8.415524	-3.860566	-2.49013E-005	0.0007072	10
	15	46	9515.62	8.416898	-0.7407132	1	8.449428	-5.029251	7.672652E-006	0.0006829	10
	16	49	7546.875	8.443024	-0.952587	1	8.496592	-6.437194	1.817568E-005	0.0006171	10
	17	51	5928.309	8.47516	-1.219309	1	8.562421	-8.186887	-2.358967E-005	0.0007194	10
	18	53	4733.456	8.511995	-1.523723	1	8.6473	-10.14896	2.154728E-005	0.0006475	10
	19	56	3796.875	8.557731	-1.884921	1	8.762858	-12.4216	3.945605E-006	0.0006213	10
	20	58	2987.132	8.61827	-2.372259	1	8.938803	-15.39006	1.12325E-005	0.0006141	10
	21	60	2390.625	8.689892	-2.929406	1	9.170367	-18.62922	-3.051504E-006	0.0007134	10
	22	63	1884.191	8.784063	-3.662917	1	9.51718	-22.63593	1.927009E-005	0.000649	10
	23	65	1516.544	8.89377	-4.484483	1	9.96041	-26.7585	2.248855E-005	0.0006372	10
	24	67	1193.986	9.047631	-5.59948	1	10.6402	-31.75291	-4.294302E-006	0.0006305	10
	25	70	946.5144	9.238599	-6.936858	1	11.553	-36.90128	-1.664193E-005	0.0006747	10
	26	72	751.7689	9.472779	-8.588159	1	12.78632	-42.19591	5.583789E-006	0.0006591	10
	27	74	597.4265	9.78137	-10.60183	1	14.42477	-47.30502	-2.405148E-005	0.0007202	10
	28	77	477.4305	10.16053	-13.02109	1	16.51621	-52.0346	-2.7734E-006	0.0006661	10
	29	79	376.6741	10.67631	-16.16103	1	19.36911	-56.55042	-2.599828E-006	0.0006636	10
	30	81	298.2954	11.32652	-19.96778	1	22.95653	-60.43637	-3.503462E-006	0.0006644	10
	31	84	237.7717	12.12636	-24.49251	1	27.33005	-63.65977	-3.203382E-006	0.000668	10
	32	86	189.0121	13.13782	-30.08498	1	32.82847	-66.40957	-2.92284E-006	0.0006593	10
	33	88	150.2404	14.38517	-36.91091	1	39.615	-68.70781	-2.844601E-006	0.0006631	10
	34	91	119.1737	15.90085	-45.28763	1	47.99798	-70.65342	9.211712E-007	6.53278E-005	9
	35	93	95.0169	17.71575	-55.35883	1	58.12442	-72.25446	8.660395E-007	6.054389E-005	9
	36	96	75.60484	19.92815	-67.80242	1	70.67036	-73.62114	7.190821E-007	5.725156E-005	9
	37	98	54.50582	23.95255	-90.71738	1	93.82626	-75.20946	6.338973E-007	6.065989E-005	9
	38	101	45.95588	26.5837	-105.6556	1	108.9487	-75.87713	6.804136E-007	0.0001065	9
	39	103	37.20238	30.47728	-127.6295	1	131.2179	-76.56956	7.819295E-007	7.046441E-005	9
	40	106	30.04808	35.38065	-154.6017	1	158.5984	-77.10981	7.696904E-007	6.418502E-005	9
	41	108	23.91582	42.00416	-189.7987	1	194.3911	-77.52106	8.639928E-007	6.519686E-005	9
	42	110	18.60119	51.42901	-237.7677	1	243.2662	-77.79498	1.059446E-006	5.674388E-005	9
	43	113	15.02404	61.98313	-288.0771	1	294.6699	-77.85727	7.373343E-007	5.384005E-005	9
	44	115	12.01923	76.3838	-351.5822	1	359.784	-77.74256	1.020787E-006	6.390506E-005	9
	45	117	9.450605	96.452	-433.4681	1	444.0694	-77.45535	3.457432E-007	0.0006387	8
	46	120	7.512019	122.3224	-530.5046	1	544.4244	-77.01582	3.300152E-007	0.0006596	8
	47	123	5.978954	156.5733	-647.2731	1	665.9412	-76.40155	3.248349E-007	0.0006372	8
	48	126	4.734848	203.6362	-791.0678	1	816.8574	-75.56436	2.999944E-007	0.0006619	8
	49	129	3.75601	264.8966	-962.179	1	997.978	-74.60729	3.002841E-007	0.0006432	8
	50	132	3.004808	342.3983	-1156.37	1	1205.996	-73.5061	2.154053E-007	0.00068	8
	51	136	2.372217	449.7105	-1400.316	1	1470.756	-72.19562	2.680942E-007	0.0007108	8
	52	140	1.878005	588.7686	-1681.457	1	1781.558	-70.7021	2.528687E-007	0.000609	8
	53	145	1.512097	753.5875	-1981.307	1	2119.781	-69.17576	2.506814E-007	0.0007252	8
	54	150	1.201923	973.819	-2352.068	1	2545.692	-67.50914	2.688153E-007	0.000615	8
	55	157	0.956633	1252.78	-2770.936	1	3040.977	-65.6716	1.526311E-007	1.09831E-005	8
