EXPLAIN
TAG	EISPOT
TITLE	LABEL	Potentiostatic EIS	Test Identifier
DATE	LABEL	9/22/2020	Date
TIME	LABEL	1:17:49	Time
NOTES	NOTES	1	Notes...
	
PSTAT	PSTAT	REF3000-16137	Potentiostat
VDC	POTEN	0.00000E+000	T	DC Voltage (V)
FREQINIT	QUANT	3.00000E+005	Initial Freq. (Hz)
FREQFINAL	QUANT	1.00000E+000	Final Freq. (Hz)
PTSPERDEC	QUANT	1.00000E+001	Points/decade
VAC	QUANT	5.00000E+001	AC Voltage (mV rms)
AREA	QUANT	1.00000E+000	Sample Area (cm^2)
SPEED	SELECTOR	2	Optimize for:
ZGUESS	QUANT	1.00000E+003	Estimated Z (ohms)
EOC	QUANT	0	Open Circuit (V)
SEQUENCER	TOGGLE	TRUE	Run as Sequence
PSTATMODEL	IQUANT	5	Pstat Model
PSTATSECTION	LABEL	REF3000-16137	Pstat Section
PSTATSERIALNO	LABEL	16137	Pstat Serial Number
CTRLMODE	IQUANT	1	Control Mode
IESTAB	IQUANT	0	I/E Stability
CASPEED	IQUANT	1	Control Amp Speed
CONVENTION	IQUANT	1	Current Convention
ICHRANGE	IQUANT	2	Ich Range
ICHRANGEMODE	TOGGLE	F	Ich Auto Range
ICHOFFSETENABLE	TOGGLE	T	Ich Offset Enable
ICHOFFSET	QUANT	0	Ich Offset (V)
ICHFILTER	IQUANT	3	Ich Filter
VCHRANGE	IQUANT	2	Vch Range
VCHRANGEMODE	TOGGLE	F	Vch Auto Range
VCHOFFSETENABLE	TOGGLE	T	Vch Offset Enable
VCHOFFSET	QUANT	0	Vch Offset (V)
VCHFILTER	IQUANT	3	Vch Filter
ACHRANGE	IQUANT	2	Ach Range
ACHOFFSETENABLE	TOGGLE	F	Ach Offset Enable
ACHOFFSET	QUANT	0	Ach Offset (V)
ACHFILTER	IQUANT	3	Ach Filter
IERANGELOWERLIMIT	IQUANT	2	I/E Range Lower Limit
IERANGEMODE	TOGGLE	F	I/E AutoRange
IERANGE	IQUANT	11	I/E Range
POSFEEDENABLE	TOGGLE	F	Positive Feedback IR Comp
POSFEEDRESISTANCE	QUANT	0	Positive Feedback Resistance (ohm)
ACHSELECT	IQUANT	0	Ach Select
CABLEID	IQUANT	13	Cable ID
DCCALDATE	LABEL	7/31/2020	DC Calibration Date
ACCALDATE	LABEL	7/31/2020	AC Calibration Date
THERMOSELECT	IQUANT	1	Thermo Select
FRAMEWORKVERSION	QUANT	6.33	Framework Version
INSTRUMENTVERSION	LABEL	3.50	Instrument Version
COMPLIANCEVOLTAGE	IQUANT	0	Compliance Voltage
ZCURVE	TABLE
	Pt	Time	Freq	Zreal	Zimag	Zsig	Zmod	Zphz	Idc	Vdc	IERange
	#	s	Hz	ohm	ohm	V	ohm	°	A	V	#
	0	7	300046.9	29.59631	1.376145	1	29.62829	2.662175	-0.000126	-0.0006045	11
	1	12	238359.4	29.64435	1.392097	1	29.67702	2.688631	7.788152E-006	0.0006312	10
	2	15	189328.1	29.66445	1.089345	1	29.68445	2.103083	2.335215E-005	0.0004335	10
	3	17	150421.9	29.6451	0.8419614	1	29.65705	1.626841	2.208107E-005	0.000801	10
	4	20	119484.4	29.72862	0.6394123	1	29.7355	1.232145	1.544781E-005	0.0006092	10
	5	22	94921.88	29.75511	0.4800524	1	29.75898	0.9242981	-2.618716E-006	0.0005929	10
	6	25	75421.88	29.78939	0.3272637	1	29.79119	0.6294214	-2.686037E-005	0.0006773	10
	7	27	59859.37	29.82435	0.1939436	1	29.82498	0.3725813	-2.44005E-005	0.0006726	10
	8	30	47578.12	29.85953	0.0768571	1	29.85963	0.1474764	2.627372E-005	0.0006377	10
	9	32	37828.12	29.89175	-0.0392892	1	29.89178	-0.0753085	5.977221E-006	0.0005837	10
	10	35	30046.88	29.9295	-0.1517279	1	29.92988	-0.2904591	-1.367914E-005	0.0007204	10
	11	37	23859.38	29.96343	-0.267956	1	29.96463	-0.5123693	2.491279E-005	0.0006083	10
	12	40	18984.38	30.00444	-0.3957833	1	30.00705	-0.7557348	-1.546681E-005	0.0006599	10
	13	42	15046.87	30.04558	-0.5413123	1	30.05046	-1.03215	-2.763184E-005	0.0006919	10
	14	44	11953.13	30.08736	-0.7094808	1	30.09573	-1.350824	2.323849E-005	0.0006815	10
	15	47	9515.62	30.13096	-0.9067207	1	30.1446	-1.723662	-2.832648E-005	0.0006688	10
	16	49	7546.875	30.18886	-1.144494	1	30.21055	-2.171108	-2.568715E-005	0.0007266	10
	17	51	5928.309	30.24023	-1.457802	1	30.27534	-2.759943	1.987586E-005	0.0006557	10
	18	54	4733.456	30.30755	-1.807074	1	30.36138	-3.412195	-5.310296E-006	0.000692	10
	19	56	3796.875	30.38691	-2.224675	1	30.46824	-4.187246	2.296827E-005	0.0006792	10
	20	58	2987.132	30.47846	-2.791797	1	30.60606	-5.233632	2.398694E-005	0.0006477	10
	21	61	2390.625	30.57709	-3.446366	1	30.7707	-6.430709	-3.688862E-006	0.000719	10
	22	63	1884.191	30.72261	-4.318011	1	31.02457	-8.00042	-1.440245E-005	0.0007029	10
	23	65	1516.544	30.85357	-5.268514	1	31.30016	-9.69029	-5.580275E-006	0.0006911	10
	24	67	1193.986	31.03068	-6.575017	1	31.71961	-11.96333	2.018785E-005	0.0006621	10
	25	70	946.5144	31.25672	-8.146973	1	32.30101	-14.60894	-1.790036E-005	0.0006658	10
	26	72	751.7689	31.53269	-10.10247	1	33.11148	-17.76447	1.393839E-005	0.0005921	10
	27	75	597.4265	31.87499	-12.49659	1	34.23711	-21.40766	1.482416E-005	0.0006616	10
	28	77	477.4305	32.28964	-15.36016	1	35.75689	-25.4404	-2.607692E-006	0.000659	10
	29	79	376.6741	32.80066	-19.0807	1	37.94676	-30.18729	1.176799E-006	5.935671E-005	9
	30	82	298.2954	33.48166	-23.63746	1	40.98477	-35.22141	1.090083E-006	0.0000964	9
	31	84	237.7717	34.31785	-29.09192	1	44.98949	-40.2886	1.178406E-006	6.526482E-005	9
	32	86	189.0121	35.38123	-35.87911	1	50.3899	-45.4003	1.17116E-006	6.577688E-005	9
	33	89	150.2404	36.72659	-44.22797	1	57.48875	-50.294	1.241268E-006	6.380129E-005	9
	34	91	119.1737	38.45189	-54.5874	1	66.77074	-54.83877	1.21363E-006	6.295492E-005	9
	35	94	95.0169	40.59133	-67.00556	1	78.34157	-58.79292	1.212725E-006	6.212328E-005	9
	36	96	75.60484	43.31707	-82.31473	1	93.01657	-62.24499	1.185843E-006	6.403284E-005	9
	37	99	54.50582	48.43292	-110.3027	1	120.4675	-66.29414	1.122916E-006	5.718328E-005	9
	38	101	45.95588	51.80504	-128.377	1	138.4356	-68.02404	1.211621E-006	6.568892E-005	9
	39	104	37.20238	56.71384	-154.8106	1	164.872	-69.88003	1.227499E-006	6.268128E-005	9
	40	106	30.04808	62.65582	-187.0308	1	197.2467	-71.47902	1.169722E-006	6.327988E-005	9
	41	108	23.91582	70.27276	-228.8565	1	239.4025	-72.93035	1.183342E-006	5.658758E-005	9
	42	111	18.60119	80.44591	-285.9209	1	297.0224	-74.28567	1.198847E-006	6.330643E-005	9
	43	113	15.02404	91.05	-345.6613	1	357.4518	-75.24303	1.358989E-006	6.874872E-005	9
	44	115	12.01923	104.033	-420.0217	1	432.7137	-76.08868	3.281201E-007	0.0006368	8
	45	118	9.450605	121.8962	-520.7198	1	534.797	-76.82478	4.559687E-007	0.0006464	8
	46	120	7.512019	143.6414	-639.8889	1	655.8129	-77.34805	5.054765E-007	0.0006512	8
	47	123	5.978954	170.6551	-785.2202	1	803.5508	-77.73836	4.751921E-007	0.0006397	8
	48	126	4.734848	206.7714	-968.846	1	990.664	-77.95265	4.353662E-007	0.0006378	8
	49	129	3.75601	253.2414	-1191.763	1	1218.372	-78.00348	5.060559E-007	0.0006464	8
	50	133	3.004808	311.6878	-1453.415	1	1486.461	-77.89613	4.316886E-007	0.0006737	8
	51	136	2.372217	393.0978	-1789.262	1	1831.935	-77.60907	4.590616E-007	0.0006519	8
	52	141	1.878005	502.5346	-2201.229	1	2257.864	-77.13992	5.038526E-007	0.0006255	8
	53	145	1.512097	629.8488	-2657.024	1	2730.657	-76.66417	4.672663E-007	0.0007308	8
	54	151	1.201923	812.5921	-3238.719	1	3339.103	-75.91528	5.023429E-007	0.0006341	8
	55	157	0.956633	1043.528	-3925.862	1	4062.185	-75.11449	4.270111E-007	4.373761E-006	8
