EXPLAIN
TAG	EISPOT
TITLE	LABEL	Potentiostatic EIS	Test Identifier
DATE	LABEL	9/22/2020	Date
TIME	LABEL	4:22:20	Time
NOTES	NOTES	1	Notes...
	
PSTAT	PSTAT	REF3000-16137	Potentiostat
VDC	POTEN	0.00000E+000	T	DC Voltage (V)
FREQINIT	QUANT	3.00000E+005	Initial Freq. (Hz)
FREQFINAL	QUANT	1.00000E+000	Final Freq. (Hz)
PTSPERDEC	QUANT	1.00000E+001	Points/decade
VAC	QUANT	5.00000E+001	AC Voltage (mV rms)
AREA	QUANT	1.00000E+000	Sample Area (cm^2)
SPEED	SELECTOR	2	Optimize for:
ZGUESS	QUANT	1.00000E+003	Estimated Z (ohms)
EOC	QUANT	0	Open Circuit (V)
SEQUENCER	TOGGLE	TRUE	Run as Sequence
PSTATMODEL	IQUANT	5	Pstat Model
PSTATSECTION	LABEL	REF3000-16137	Pstat Section
PSTATSERIALNO	LABEL	16137	Pstat Serial Number
CTRLMODE	IQUANT	1	Control Mode
IESTAB	IQUANT	0	I/E Stability
CASPEED	IQUANT	1	Control Amp Speed
CONVENTION	IQUANT	1	Current Convention
ICHRANGE	IQUANT	2	Ich Range
ICHRANGEMODE	TOGGLE	F	Ich Auto Range
ICHOFFSETENABLE	TOGGLE	T	Ich Offset Enable
ICHOFFSET	QUANT	0	Ich Offset (V)
ICHFILTER	IQUANT	3	Ich Filter
VCHRANGE	IQUANT	2	Vch Range
VCHRANGEMODE	TOGGLE	F	Vch Auto Range
VCHOFFSETENABLE	TOGGLE	T	Vch Offset Enable
VCHOFFSET	QUANT	0	Vch Offset (V)
VCHFILTER	IQUANT	3	Vch Filter
ACHRANGE	IQUANT	2	Ach Range
ACHOFFSETENABLE	TOGGLE	F	Ach Offset Enable
ACHOFFSET	QUANT	0	Ach Offset (V)
ACHFILTER	IQUANT	3	Ach Filter
IERANGELOWERLIMIT	IQUANT	2	I/E Range Lower Limit
IERANGEMODE	TOGGLE	F	I/E AutoRange
IERANGE	IQUANT	11	I/E Range
POSFEEDENABLE	TOGGLE	F	Positive Feedback IR Comp
POSFEEDRESISTANCE	QUANT	0	Positive Feedback Resistance (ohm)
ACHSELECT	IQUANT	0	Ach Select
CABLEID	IQUANT	13	Cable ID
DCCALDATE	LABEL	7/31/2020	DC Calibration Date
ACCALDATE	LABEL	7/31/2020	AC Calibration Date
THERMOSELECT	IQUANT	1	Thermo Select
FRAMEWORKVERSION	QUANT	6.33	Framework Version
INSTRUMENTVERSION	LABEL	3.50	Instrument Version
COMPLIANCEVOLTAGE	IQUANT	0	Compliance Voltage
ZCURVE	TABLE
	Pt	Time	Freq	Zreal	Zimag	Zsig	Zmod	Zphz	Idc	Vdc	IERange
	#	s	Hz	ohm	ohm	V	ohm	°	A	V	#
	0	29	300046.9	220.1741	-4242.963	1	4248.672	-87.0295	-8.697718E-008	-0.0021737	9
	1	47	238359.4	393.0022	-5262.832	1	5277.485	-85.72936	1.455391E-006	0.0016764	9
	2	74	189328.1	249.0056	-6018.226	1	6023.375	-87.63072	-2.065441E-005	0.0010987	9
	3	81	150421.9	826.2396	-8076.327	1	8118.48	-84.15874	-9.164621E-005	0.0022198	9
	4	89	119484.4	1186.56	-10348.38	1	10416.19	-83.45895	4.926872E-005	0.0002223	9
	5	99	94921.88	1933.444	-12286.11	1	12437.31	-81.05681	1.617133E-005	-0.0093058	8
	6	108	75421.88	2693.707	-14913.02	1	15154.34	-79.76118	-2.491835E-005	0.0110714	8
	7	116	59859.37	3681.4	-18784.14	1	19141.49	-78.91146	2.72516E-005	-0.0074006	8
	8	125	47578.12	4558.25	-23252.66	1	23695.23	-78.90888	-1.207668E-005	0.0102237	8
	9	133	37828.12	10365.59	-28374.77	1	30208.82	-69.93225	-6.660642E-006	0.0119691	7
	10	141	30046.88	9909.48	-35001.25	1	36376.98	-74.19223	-1.206359E-005	0.0102927	8
	11	149	23859.38	17356.24	-41071.7	1	44588.38	-67.09187	7.492908E-006	-0.0241378	7
	12	155	18984.38	24017.33	-49936.79	1	55412.23	-64.31456	4.726683E-006	-0.0005457	7
	13	160	15046.87	31486.43	-58001.2	1	65996.48	-61.50431	-6.598042E-006	0.011808	7
	14	165	11953.13	42043.12	-66151.64	1	78381.52	-57.56173	3.199322E-006	-0.0237591	7
	15	171	9515.62	56402.37	-76806.28	1	95291.3	-53.70846	6.618701E-006	-0.0263949	7
	16	177	7546.875	68900.78	-80885.51	1	106253.4	-49.57462	7.362898E-006	-0.0180336	7
	17	184	5928.309	85263.77	-83762.13	1	119524.1	-44.49099	3.399591E-006	-0.0240383	7
	18	190	4733.456	125381.2	-75333.2	1	146272.1	-30.99886	2.117999E-007	0.010231	6
	19	195	3796.875	138882.2	-69366.35	1	155241.6	-26.54038	1.555671E-007	-0.0201596	6
	20	200	2987.132	150979	-61414.74	1	162992.1	-22.13535	3.928986E-007	-0.0248785	6
	21	204	2390.625	162309.3	-53222.88	1	170812.8	-18.15484	-3.919008E-007	0.0245925	6
	22	208	1884.191	170477.5	-46808.46	1	176786.9	-15.35349	1.780003E-007	-0.0207166	6
	23	213	1516.544	176005.5	-41323.33	1	180791.4	-13.21284	-7.352882E-007	0.0226995	6
	24	217	1193.986	183384.3	-34854.11	1	186667.2	-10.76131	2.080034E-007	0.0103804	6
	25	221	946.5144	189682.6	-30439.34	1	192109.4	-9.116821	-7.461389E-007	0.0231638	6
	26	224	751.7689	186209	-27021.7	1	188159.4	-8.256834	-2.153538E-007	0.0218453	6
	27	227	597.4265	189728.1	-20569.17	1	190839.8	-6.187496	7.179494E-007	-0.0152942	6
	28	229	477.4305	192025.8	-15521.62	1	192652.1	-4.621223	-1.092183E-008	0.0006841	6
	29	231	376.6741	193540	-12465.43	1	193941	-3.685189	-1.135582E-008	0.0006893	6
	30	234	298.2954	195100.7	-10036.5	1	195358.7	-2.944852	-1.127365E-008	0.0006849	6
	31	236	237.7717	195639.4	-8276.47	1	195814.4	-2.422437	-1.057557E-008	0.0006163	6
	32	239	189.0121	196944.3	-6831.303	1	197062.7	-1.986592	-1.105196E-008	0.0005968	6
	33	241	150.2404	197769.2	-5490.608	1	197845.4	-1.590277	-1.107116E-008	0.0006815	6
	34	244	119.1737	200179.4	-4713.035	1	200234.9	-1.348726	-1.018394E-008	0.0006122	6
	35	246	95.0169	199517	-3604.398	1	199549.6	-1.034971	-1.054383E-008	0.0006046	6
	36	249	75.60484	200422	-2920.308	1	200443.3	-0.8347861	-9.905284E-009	0.0006437	6
	37	251	54.50582	201612.9	-1712.374	1	201620.2	-0.4866229	-1.076636E-008	0.0005945	6
	38	254	45.95588	202007.3	-2358.205	1	202021	-0.6688326	-1.12611E-008	0.0006984	6
	39	256	37.20238	202870	-2098.588	1	202880.8	-0.592675	-1.083977E-008	0.0006594	6
	40	259	30.04808	203696.2	-1809.855	1	203704.2	-0.5090638	-1.05883E-008	0.000646	6
	41	261	23.91582	205017.4	-1864.091	1	205025.9	-0.5209391	-9.802211E-009	0.0005904	6
	42	264	18.60119	205637.2	-1919.527	1	205646.1	-0.5348138	-1.091008E-008	0.0006297	6
	43	266	15.02404	206115.9	-1767.943	1	206123.5	-0.4914379	-1.149969E-008	0.0006315	6
	44	269	12.01923	207225.8	-1919.062	1	207234.7	-0.5305853	-1.35781E-008	0.0006982	6
	45	271	9.450605	207855.3	-2034.245	1	207865.2	-0.5607265	-1.271427E-008	0.0006453	6
	46	274	7.512019	208934.4	-2452.48	1	208948.8	-0.6725093	-1.163071E-008	0.0006759	6
	47	277	5.978954	210245.7	-2883.259	1	210265.4	-0.7856913	-9.505866E-009	0.0006089	6
	48	281	4.734848	211573.9	-3464.622	1	211602.3	-0.9381612	-1.240669E-008	0.0006069	6
	49	284	3.75601	213181.9	-4109.215	1	213221.5	-1.104275	-7.702094E-009	0.0006347	6
	50	290	3.004808	215334	-4887.229	1	215389.5	-1.300164	-8.065449E-009	0.0006059	6
	51	296	2.372217	217358.1	-5892.787	1	217438	-1.552963	-8.307796E-009	0.0006035	6
	52	300	1.878005	219260	-7227.683	1	219379.1	-1.888014	-5.573864E-009	0.0006431	6
	53	305	1.512097	221226.2	-8744.365	1	221399	-2.263541	-6.242749E-009	0.0006684	6
	54	311	1.201923	223579.3	-10929.1	1	223846.3	-2.798529	-7.789283E-009	0.0006682	6
	55	317	0.956633	226548.3	-12933.12	1	226917.2	-3.267338	-1.833907E-008	8.828209E-006	6
