EXPLAIN
TAG	EISPOT
TITLE	LABEL	Potentiostatic EIS	Test Identifier
DATE	LABEL	9/22/2020	Date
TIME	LABEL	4:50:03	Time
NOTES	NOTES	1	Notes...
	
PSTAT	PSTAT	REF3000-16137	Potentiostat
VDC	POTEN	0.00000E+000	T	DC Voltage (V)
FREQINIT	QUANT	3.00000E+005	Initial Freq. (Hz)
FREQFINAL	QUANT	1.00000E+000	Final Freq. (Hz)
PTSPERDEC	QUANT	1.00000E+001	Points/decade
VAC	QUANT	5.00000E+001	AC Voltage (mV rms)
AREA	QUANT	1.00000E+000	Sample Area (cm^2)
SPEED	SELECTOR	2	Optimize for:
ZGUESS	QUANT	1.00000E+003	Estimated Z (ohms)
EOC	QUANT	0	Open Circuit (V)
SEQUENCER	TOGGLE	TRUE	Run as Sequence
PSTATMODEL	IQUANT	5	Pstat Model
PSTATSECTION	LABEL	REF3000-16137	Pstat Section
PSTATSERIALNO	LABEL	16137	Pstat Serial Number
CTRLMODE	IQUANT	1	Control Mode
IESTAB	IQUANT	0	I/E Stability
CASPEED	IQUANT	1	Control Amp Speed
CONVENTION	IQUANT	1	Current Convention
ICHRANGE	IQUANT	2	Ich Range
ICHRANGEMODE	TOGGLE	F	Ich Auto Range
ICHOFFSETENABLE	TOGGLE	T	Ich Offset Enable
ICHOFFSET	QUANT	0	Ich Offset (V)
ICHFILTER	IQUANT	3	Ich Filter
VCHRANGE	IQUANT	2	Vch Range
VCHRANGEMODE	TOGGLE	F	Vch Auto Range
VCHOFFSETENABLE	TOGGLE	T	Vch Offset Enable
VCHOFFSET	QUANT	0	Vch Offset (V)
VCHFILTER	IQUANT	3	Vch Filter
ACHRANGE	IQUANT	2	Ach Range
ACHOFFSETENABLE	TOGGLE	F	Ach Offset Enable
ACHOFFSET	QUANT	0	Ach Offset (V)
ACHFILTER	IQUANT	3	Ach Filter
IERANGELOWERLIMIT	IQUANT	2	I/E Range Lower Limit
IERANGEMODE	TOGGLE	F	I/E AutoRange
IERANGE	IQUANT	11	I/E Range
POSFEEDENABLE	TOGGLE	F	Positive Feedback IR Comp
POSFEEDRESISTANCE	QUANT	0	Positive Feedback Resistance (ohm)
ACHSELECT	IQUANT	0	Ach Select
CABLEID	IQUANT	13	Cable ID
DCCALDATE	LABEL	7/31/2020	DC Calibration Date
ACCALDATE	LABEL	7/31/2020	AC Calibration Date
THERMOSELECT	IQUANT	1	Thermo Select
FRAMEWORKVERSION	QUANT	6.33	Framework Version
INSTRUMENTVERSION	LABEL	3.50	Instrument Version
COMPLIANCEVOLTAGE	IQUANT	0	Compliance Voltage
ZCURVE	TABLE
	Pt	Time	Freq	Zreal	Zimag	Zsig	Zmod	Zphz	Idc	Vdc	IERange
	#	s	Hz	ohm	ohm	V	ohm	°	A	V	#
	0	14	300046.9	2.637199	-4431.295	1	4431.296	-89.9659	2.811285E-005	-0.0021882	9
	1	29	238359.4	96.5574	-5491.662	1	5492.51	-88.9927	7.774761E-005	-0.0016471	9
	2	43	189328.1	317.4097	-6880.317	1	6887.635	-87.35864	-1.637148E-005	0.0017998	9
	3	55	150421.9	81.00267	-7980.411	1	7980.822	-89.41846	2.478464E-005	0.001183	9
	4	65	119484.4	687.3508	-10733.92	1	10755.9	-86.33604	-8.553852E-005	0.0223491	8
	5	72	94921.88	790.7432	-13130.26	1	13154.05	-86.55364	2.602596E-005	-0.0050994	8
	6	81	75421.88	995.92	-16906.9	1	16936.21	-86.62882	8.340779E-006	0.0041912	8
	7	89	59859.37	1099.736	-20864.83	1	20893.79	-86.98286	8.05841E-006	-0.0077252	8
	8	98	47578.12	4432.053	-27157.14	1	27516.42	-80.73103	-5.324306E-006	0.0264852	7
	9	104	37828.12	4874.353	-33464.92	1	33818.05	-81.71283	-6.485724E-006	0.0256498	7
	10	112	30046.88	2707.788	-41011.54	1	41100.83	-86.22253	-1.188046E-006	-0.0051524	8
	11	120	23859.38	6330.633	-51916.16	1	52300.71	-83.0477	5.352445E-006	-0.0266317	7
	12	126	18984.38	7080.978	-64239.57	1	64628.66	-83.70982	2.747641E-006	0.0082554	7
	13	131	15046.87	8115.997	-80070.2	1	80480.47	-84.21221	7.612531E-006	-0.0242796	7
	14	136	11953.13	11622.62	-102320	1	102978	-83.51949	2.756522E-006	0.0083361	7
	15	142	9515.62	14726.32	-125434.3	1	126295.8	-83.30398	-1.083839E-006	-0.0131064	7
	16	147	7546.875	1645.979	-162468.5	1	162476.9	-89.41956	2.317334E-005	-0.0028558	8
	17	154	5928.309	-52879.7	-213873.5	1	220313.8	-103.8877	-2.644643E-005	0.0076114	8
	18	162	4733.456	176364.4	-224124.8	1	285195.2	-51.8007	-2.000853E-005	0.0113825	8
	19	169	3796.875	71543.01	-280647	1	289622.4	-75.69866	-2.492457E-005	0.0111327	8
	20	176	2987.132	19717.33	-186756.5	1	187794.5	-83.97317	1.618927E-005	-0.0092627	8
	21	184	2390.625	214103.9	-505486.3	1	548959.8	-67.04441	5.212267E-006	-0.0268082	7
	22	190	1884.191	-39859.19	-514643.4	1	516184.7	-94.42873	-6.667146E-006	0.011963	7
	23	198	1516.544	445232.9	844190.8	1	954406	62.19248	2.307825E-005	-0.0027484	8
	24	205	1193.986	-190810.9	-343548.1	1	392981	-119.0483	-1.223177E-005	0.0103295	8
	25	214	946.5144	340841.1	-300776.3	1	454575.7	-41.42689	-6.846558E-006	0.0125642	7
	26	219	751.7689	1400537	203141.2	1	1415193	8.252924	5.19452E-006	-0.026487	7
	27	225	597.4265	-230263.9	-715526.8	1	751664.9	-107.8387	-5.336349E-006	0.0041055	7
	28	230	477.4305	1068485	-1573588	1	1902062	-55.82304	-9.44874E-008	0.0006608	7
	29	236	376.6741	1672385	-1604756	1	2317782	-43.81777	-1.001864E-009	0.0006786	5
	30	239	298.2954	2022700	-1650373	1	2610565	-39.21188	-1.090653E-009	0.0006613	5
	31	241	237.7717	2202596	-1740839	1	2807481	-38.32135	-1.012224E-008	0.0006487	6
	32	245	189.0121	2707263	-1556908	1	3123017	-29.90258	-1.125924E-009	0.0006809	5
	33	249	150.2404	2928725	-1573769	1	3324782	-28.25164	-9.985547E-009	0.0006517	6
	34	253	119.1737	3583598	-1449229	1	3865545	-22.01871	-1.11861E-009	0.0006826	5
	35	257	95.0169	3468933	-1149344	1	3654380	-18.33133	-1.067255E-009	0.0006817	5
	36	261	75.60484	3588233	-968790	1	3716715	-15.10909	-1.05795E-009	0.0006727	5
	37	265	54.50582	3817539	-755363.3	1	3891552	-11.19235	-1.006313E-009	0.000573	5
	38	269	45.95588	4188559	-244062.4	1	4195664	-3.334787	-1.273421E-010	0.0005981	4
	39	272	37.20238	4176937	-205396.9	1	4181984	-2.815197	-8.474705E-011	0.0005955	4
	40	275	30.04808	4162612	-110528.6	1	4164079	-1.521001	-1.597306E-010	0.000597	4
	41	277	23.91582	4202848	-88769.96	1	4203785	-1.209986	-9.896114E-011	0.0005946	4
	42	280	18.60119	4165495	-139947.4	1	4167845	-1.924232	-2.384999E-010	0.0006819	4
	43	283	15.02404	4186597	-56697.75	1	4186981	-0.7758911	-1.551749E-010	0.0005816	4
	44	285	12.01923	4207023	-53203.62	1	4207360	-0.7245457	-1.488635E-010	0.0006029	4
	45	288	9.450605	4226610	-49152.29	1	4226896	-0.6662766	-1.29757E-010	0.0006867	4
	46	290	7.512019	4259465	-43171.93	1	4259684	-0.5807031	-1.179345E-010	0.0006695	4
	47	293	5.978954	4270614	-27453.25	1	4270702	-0.3683155	-1.531866E-010	0.000676	4
	48	298	4.734848	4318619	-27976.41	1	4318709	-0.3711622	-1.453447E-010	0.0006181	4
	49	301	3.75601	4364399	-31346.86	1	4364511	-0.4115142	-1.697616E-010	0.0006693	4
	50	307	3.004808	4418367	-22517.01	1	4418425	-0.2919899	-1.707272E-010	0.0007203	4
	51	313	2.372217	4463600	-20429.14	1	4463647	-0.2622313	-1.439965E-010	0.000719	4
	52	317	1.878005	4505659	-21216.63	1	4505709	-0.2697972	-1.91384E-010	0.0006201	4
	53	322	1.512097	4553425	-22356.5	1	4553481	-0.2813098	-1.961693E-010	0.0006911	4
	54	328	1.201923	4608956	-23634.15	1	4609016	-0.2938031	-1.919634E-010	0.0005995	4
	55	334	0.956633	4672147	-28284.58	1	4672233	-0.3468571	-3.411025E-010	-2.947124E-006	4
