EXPLAIN
TAG	EISPOT
TITLE	LABEL	Potentiostatic EIS	Test Identifier
DATE	LABEL	9/22/2020	Date
TIME	LABEL	3:14:00	Time
NOTES	NOTES	1	Notes...
	
PSTAT	PSTAT	REF3000-16137	Potentiostat
VDC	POTEN	0.00000E+000	T	DC Voltage (V)
FREQINIT	QUANT	3.00000E+005	Initial Freq. (Hz)
FREQFINAL	QUANT	1.00000E+000	Final Freq. (Hz)
PTSPERDEC	QUANT	1.00000E+001	Points/decade
VAC	QUANT	5.00000E+001	AC Voltage (mV rms)
AREA	QUANT	1.00000E+000	Sample Area (cm^2)
SPEED	SELECTOR	2	Optimize for:
ZGUESS	QUANT	1.00000E+003	Estimated Z (ohms)
EOC	QUANT	0	Open Circuit (V)
SEQUENCER	TOGGLE	TRUE	Run as Sequence
PSTATMODEL	IQUANT	5	Pstat Model
PSTATSECTION	LABEL	REF3000-16137	Pstat Section
PSTATSERIALNO	LABEL	16137	Pstat Serial Number
CTRLMODE	IQUANT	1	Control Mode
IESTAB	IQUANT	0	I/E Stability
CASPEED	IQUANT	1	Control Amp Speed
CONVENTION	IQUANT	1	Current Convention
ICHRANGE	IQUANT	2	Ich Range
ICHRANGEMODE	TOGGLE	F	Ich Auto Range
ICHOFFSETENABLE	TOGGLE	T	Ich Offset Enable
ICHOFFSET	QUANT	0	Ich Offset (V)
ICHFILTER	IQUANT	3	Ich Filter
VCHRANGE	IQUANT	2	Vch Range
VCHRANGEMODE	TOGGLE	F	Vch Auto Range
VCHOFFSETENABLE	TOGGLE	T	Vch Offset Enable
VCHOFFSET	QUANT	0	Vch Offset (V)
VCHFILTER	IQUANT	3	Vch Filter
ACHRANGE	IQUANT	2	Ach Range
ACHOFFSETENABLE	TOGGLE	F	Ach Offset Enable
ACHOFFSET	QUANT	0	Ach Offset (V)
ACHFILTER	IQUANT	3	Ach Filter
IERANGELOWERLIMIT	IQUANT	2	I/E Range Lower Limit
IERANGEMODE	TOGGLE	F	I/E AutoRange
IERANGE	IQUANT	11	I/E Range
POSFEEDENABLE	TOGGLE	F	Positive Feedback IR Comp
POSFEEDRESISTANCE	QUANT	0	Positive Feedback Resistance (ohm)
ACHSELECT	IQUANT	0	Ach Select
CABLEID	IQUANT	13	Cable ID
DCCALDATE	LABEL	7/31/2020	DC Calibration Date
ACCALDATE	LABEL	7/31/2020	AC Calibration Date
THERMOSELECT	IQUANT	1	Thermo Select
FRAMEWORKVERSION	QUANT	6.33	Framework Version
INSTRUMENTVERSION	LABEL	3.50	Instrument Version
COMPLIANCEVOLTAGE	IQUANT	0	Compliance Voltage
ZCURVE	TABLE
	Pt	Time	Freq	Zreal	Zimag	Zsig	Zmod	Zphz	Idc	Vdc	IERange
	#	s	Hz	ohm	ohm	V	ohm	°	A	V	#
	0	19	300046.9	1215.31	-476.4189	1	1305.356	-21.40589	-1.989269E-005	0.0009995	9
	1	43	238359.4	1289.52	-417.7496	1	1355.498	-17.95012	-1.999053E-005	0.0015452	9
	2	57	189328.1	1336.891	-348.3436	1	1381.528	-14.6044	-6.019576E-005	0.0005176	9
	3	63	150421.9	1389.737	-293.1318	1	1420.315	-11.91059	-1.976681E-005	0.0016253	9
	4	70	119484.4	1439.854	-209.8002	1	1455.058	-8.290192	1.339459E-005	-0.0133302	8
	5	76	94921.88	1462.748	-169.8951	1	1472.581	-6.625099	-1.990233E-005	0.0048421	8
	6	79	75421.88	1476.698	-138.5614	1	1483.184	-5.36048	1.180456E-005	-0.0070826	8
	7	84	59859.37	1484.17	-118.0831	1	1488.86	-4.548967	2.222805E-005	-0.0062342	8
	8	87	47578.12	1494.045	-95.4956	1	1497.094	-3.657227	-1.400379E-005	0.0012299	8
	9	91	37828.12	1506.139	-77.25591	1	1508.119	-2.936357	-1.98348E-005	0.0048038	8
	10	94	30046.88	1512.625	-58.21675	1	1513.745	-2.204068	-2.105536E-005	0.0066189	8
	11	98	23859.38	1517.718	-47.285	1	1518.455	-1.784491	-2.173695E-005	0.0067482	8
	12	100	18984.38	1522.699	-40.19088	1	1523.229	-1.511943	-1.73472E-005	0.0030192	8
	13	105	15046.87	1530.9	-32.28394	1	1531.241	-1.208086	-4.31686E-007	0.0059721	8
	14	108	11953.13	1533.038	-30.37849	1	1533.339	-1.135218	1.528533E-005	-0.0001604	8
	15	111	9515.62	1540.446	-20.92856	1	1540.588	-0.7783747	-5.997606E-007	0.0059735	8
	16	115	7546.875	1538.858	-20.8109	1	1538.999	-0.774798	-2.188769E-006	-0.0036323	8
	17	118	5928.309	1547.763	-15.0066	1	1547.836	-0.5555035	-2.286536E-007	0.0059349	8
	18	122	4733.456	1554.098	-18.54215	1	1554.208	-0.6835713	-8.295127E-006	0.0081005	8
	19	126	3796.875	1561.731	-13.23168	1	1561.787	-0.4854236	2.159796E-005	-0.004403	8
	20	131	2987.132	1567.3	-8.30012	1	1567.322	-0.3034247	-3.729392E-007	0.0059971	8
	21	135	2390.625	1579.561	-9.260045	1	1579.588	-0.3358879	-1.877045E-005	0.0089776	8
	22	139	1884.191	1587.14	-8.344052	1	1587.162	-0.3012177	1.745251E-005	-0.0077534	8
	23	143	1516.544	1583.778	-12.19297	1	1583.825	-0.4410922	1.548087E-005	-0.0002005	8
	24	148	1193.986	1590.215	-18.91339	1	1590.328	-0.681421	-8.451886E-006	0.0081257	8
	25	152	946.5144	1601.067	-15.7846	1	1601.145	-0.5648493	-9.661143E-006	-0.0010044	8
	26	155	751.7689	1611.963	-23.30113	1	1612.132	-0.82816	5.205822E-006	-0.0057493	8
	27	157	597.4265	1602.774	-26.25339	1	1602.989	-0.9384196	-1.967354E-005	0.0092575	8
	28	160	477.4305	1609.806	-26.00275	1	1610.016	-0.9254025	-2.538706E-007	0.000624	8
	29	162	376.6741	1613.965	-31.56883	1	1614.274	-1.120551	-2.653192E-007	0.0006172	8
	30	165	298.2954	1618.277	-38.49813	1	1618.735	-1.362785	-2.657187E-007	0.0006388	8
	31	167	237.7717	1622.748	-46.93642	1	1623.427	-1.656763	-2.562857E-007	0.0006354	8
	32	169	189.0121	1627.62	-57.57272	1	1628.638	-2.025841	-2.398235E-007	0.0006292	8
	33	172	150.2404	1632.808	-70.59599	1	1634.333	-2.475696	-2.906235E-007	0.0006358	8
	34	174	119.1737	1638.42	-87.21356	1	1640.74	-3.046994	-3.102279E-007	0.0006358	8
	35	177	95.0169	1644.376	-106.9653	1	1647.851	-3.721799	-2.893018E-007	0.0006476	8
	36	179	75.60484	1651.301	-131.7904	1	1656.552	-4.563106	-2.495628E-007	0.0006198	8
	37	182	54.50582	1661.313	-177.6363	1	1670.783	-6.103177	-2.42333E-007	0.0006218	8
	38	184	45.95588	1668.917	-207.6845	1	1681.79	-7.093572	-2.701003E-007	0.0006391	8
	39	187	37.20238	1678.398	-252.5044	1	1697.285	-8.555628	-1.727682E-007	0.0006228	8
	40	189	30.04808	1689.677	-306.3334	1	1717.221	-10.27594	-2.798236E-007	0.0006532	8
	41	191	23.91582	1702.733	-377.7124	1	1744.123	-12.50724	-1.948253E-007	0.0006431	8
	42	194	18.60119	1721.986	-477.574	1	1786.984	-15.50077	-4.831926E-007	0.0006534	8
	43	196	15.02404	1740.773	-577.0995	1	1833.94	-18.34134	-2.590702E-007	0.0006588	8
	44	198	12.01923	1763.92	-704.919	1	1899.559	-21.78323	-3.582418E-007	0.0006494	8
	45	201	9.450605	1797.348	-877.0148	1	1999.904	-26.01003	-3.517093E-007	0.0006459	8
	46	203	7.512019	1834.713	-1078.667	1	2128.308	-30.45217	-3.507559E-007	0.0006419	8
	47	206	5.978954	1881.757	-1325.333	1	2301.634	-35.15726	-3.384253E-007	0.0006627	8
	48	209	4.734848	1943.219	-1633.497	1	2538.585	-40.05088	-2.390419E-007	0.0006199	8
	49	212	3.75601	2017.157	-2010.132	1	2847.727	-44.90006	-2.820441E-007	0.000645	8
	50	216	3.004808	2104.531	-2450.373	1	3230.074	-49.34199	-2.499576E-007	0.0005975	8
	51	219	2.372217	2217.933	-3022.872	1	3749.264	-53.73186	-2.783337E-007	0.000615	8
	52	224	1.878005	2371.935	-3728.288	1	4418.847	-57.5355	-7.195322E-008	0.0006092	7
	53	228	1.512097	2537.176	-4516.451	1	5180.308	-60.67433	-6.332176E-008	0.000508	7
	54	234	1.201923	2756.009	-5533.07	1	6181.46	-63.52221	-7.031147E-008	0.0006135	7
	55	240	0.956633	3018.876	-6758.632	1	7402.21	-65.93114	-6.879717E-008	-3.181722E-005	7
