EXPLAIN
TAG	EISPOT
TITLE	LABEL	Potentiostatic EIS	Test Identifier
DATE	LABEL	9/22/2020	Date
TIME	LABEL	2:07:23	Time
NOTES	NOTES	1	Notes...
	
PSTAT	PSTAT	REF3000-16137	Potentiostat
VDC	POTEN	0.00000E+000	T	DC Voltage (V)
FREQINIT	QUANT	3.00000E+005	Initial Freq. (Hz)
FREQFINAL	QUANT	1.00000E+000	Final Freq. (Hz)
PTSPERDEC	QUANT	1.00000E+001	Points/decade
VAC	QUANT	5.00000E+001	AC Voltage (mV rms)
AREA	QUANT	1.00000E+000	Sample Area (cm^2)
SPEED	SELECTOR	2	Optimize for:
ZGUESS	QUANT	1.00000E+003	Estimated Z (ohms)
EOC	QUANT	0	Open Circuit (V)
SEQUENCER	TOGGLE	TRUE	Run as Sequence
PSTATMODEL	IQUANT	5	Pstat Model
PSTATSECTION	LABEL	REF3000-16137	Pstat Section
PSTATSERIALNO	LABEL	16137	Pstat Serial Number
CTRLMODE	IQUANT	1	Control Mode
IESTAB	IQUANT	0	I/E Stability
CASPEED	IQUANT	1	Control Amp Speed
CONVENTION	IQUANT	1	Current Convention
ICHRANGE	IQUANT	2	Ich Range
ICHRANGEMODE	TOGGLE	F	Ich Auto Range
ICHOFFSETENABLE	TOGGLE	T	Ich Offset Enable
ICHOFFSET	QUANT	0	Ich Offset (V)
ICHFILTER	IQUANT	3	Ich Filter
VCHRANGE	IQUANT	2	Vch Range
VCHRANGEMODE	TOGGLE	F	Vch Auto Range
VCHOFFSETENABLE	TOGGLE	T	Vch Offset Enable
VCHOFFSET	QUANT	0	Vch Offset (V)
VCHFILTER	IQUANT	3	Vch Filter
ACHRANGE	IQUANT	2	Ach Range
ACHOFFSETENABLE	TOGGLE	F	Ach Offset Enable
ACHOFFSET	QUANT	0	Ach Offset (V)
ACHFILTER	IQUANT	3	Ach Filter
IERANGELOWERLIMIT	IQUANT	2	I/E Range Lower Limit
IERANGEMODE	TOGGLE	F	I/E AutoRange
IERANGE	IQUANT	11	I/E Range
POSFEEDENABLE	TOGGLE	F	Positive Feedback IR Comp
POSFEEDRESISTANCE	QUANT	0	Positive Feedback Resistance (ohm)
ACHSELECT	IQUANT	0	Ach Select
CABLEID	IQUANT	13	Cable ID
DCCALDATE	LABEL	7/31/2020	DC Calibration Date
ACCALDATE	LABEL	7/31/2020	AC Calibration Date
THERMOSELECT	IQUANT	1	Thermo Select
FRAMEWORKVERSION	QUANT	6.33	Framework Version
INSTRUMENTVERSION	LABEL	3.50	Instrument Version
COMPLIANCEVOLTAGE	IQUANT	0	Compliance Voltage
ZCURVE	TABLE
	Pt	Time	Freq	Zreal	Zimag	Zsig	Zmod	Zphz	Idc	Vdc	IERange
	#	s	Hz	ohm	ohm	V	ohm	°	A	V	#
	0	7	300046.9	104.4603	0.4482822	1	104.4613	0.2458783	-8.20299E-005	0.0026544	9
	1	10	238359.4	104.5459	0.1435945	1	104.546	0.0786961	1.830836E-005	-0.0016628	9
	2	14	189328.1	104.8537	-0.0846748	1	104.8537	-0.0462693	-8.236565E-006	-0.0012428	9
	3	16	150421.9	105.1389	-0.2413321	1	105.1392	-0.1315145	1.571818E-005	-0.001155	9
	4	19	119484.4	105.291	-0.1600013	1	105.2911	-0.0870672	9.067278E-006	0.000986	9
	5	21	94921.88	105.5016	0.0417261	1	105.5016	0.0226606	-1.855615E-005	0.0007841	9
	6	24	75421.88	105.6288	-0.1040996	1	105.6289	-0.0564662	-1.614228E-005	0.0002876	9
	7	26	59859.37	105.8058	-0.2378711	1	105.8061	-0.1288113	-1.773305E-005	0.0008483	9
	8	29	47578.12	105.9674	-0.3129187	1	105.9679	-0.1691923	1.799505E-006	0.0004242	9
	9	31	37828.12	106.139	-0.3714412	1	106.1396	-0.20051	2.390349E-005	-0.0004515	9
	10	34	30046.88	106.3313	-0.4383532	1	106.3322	-0.2362018	2.314242E-005	-0.00042	9
	11	36	23859.38	106.3869	-0.5222483	1	106.3882	-0.28126	-1.411753E-005	0.0004026	9
	12	39	18984.38	106.647	-0.684042	1	106.6492	-0.3674946	-2.059653E-005	0.0006011	9
	13	41	15046.87	106.777	-0.6751773	1	106.7791	-0.3622906	-9.39205E-006	0.000902	9
	14	43	11953.13	106.8853	-0.998425	1	106.89	-0.5351892	-2.078518E-005	0.0007464	9
	15	46	9515.62	107.1405	-1.205295	1	107.1473	-0.644531	1.428243E-006	-0.0003418	9
	16	48	7546.875	107.2383	-1.436539	1	107.2479	-0.7674754	2.142833E-005	-0.0002624	9
	17	50	5928.309	107.399	-1.768549	1	107.4135	-0.9434097	1.677129E-006	0.0005041	9
	18	53	4733.456	107.665	-2.092089	1	107.6853	-1.113201	-8.731709E-006	-2.918118E-005	9
	19	55	3796.875	107.8103	-2.690186	1	107.8438	-1.429403	1.063507E-005	0.0001605	9
	20	57	2987.132	107.9508	-3.294494	1	108.001	-1.748038	-1.458444E-005	0.0001594	9
	21	60	2390.625	108.2562	-4.04288	1	108.3317	-2.138744	1.092021E-005	0.0001998	9
	22	62	1884.191	108.3466	-5.15535	1	108.4691	-2.724195	2.141302E-005	-0.0002515	9
	23	64	1516.544	108.7366	-6.091341	1	108.9071	-3.206315	-1.729641E-005	0.000375	9
	24	66	1193.986	109.0462	-7.693429	1	109.3173	-4.035645	2.418243E-005	-0.0005796	9
	25	69	946.5144	109.3659	-9.453702	1	109.7738	-4.940424	1.786753E-005	-0.0006793	9
	26	71	751.7689	109.7957	-11.67246	1	110.4144	-6.068359	5.419203E-006	-0.0005074	9
	27	74	597.4265	110.3477	-14.3867	1	111.2816	-7.428099	1.019027E-005	0.0002146	9
	28	76	477.4305	110.8476	-17.76979	1	112.2629	-9.107502	1.167595E-006	6.138779E-005	9
	29	78	376.6741	111.5423	-22.11396	1	113.7133	-11.21383	1.126541E-006	5.89836E-005	9
	30	81	298.2954	112.3779	-27.43109	1	115.6774	-13.71748	1.128279E-006	6.388794E-005	9
	31	83	237.7717	113.3786	-33.80814	1	118.3118	-16.60396	1.17506E-006	5.436125E-005	9
	32	86	189.0121	114.625	-41.75858	1	121.9945	-20.01699	1.147916E-006	5.873594E-005	9
	33	88	150.2404	116.1671	-51.55441	1	127.0931	-23.93142	1.159633E-006	5.271402E-005	9
	34	90	119.1737	118.1041	-63.7352	1	134.2041	-28.35365	1.150748E-006	6.26519E-005	9
	35	93	95.0169	120.4658	-78.36965	1	143.7143	-33.04623	1.199279E-006	5.431077E-005	9
	36	95	75.60484	123.4364	-96.4884	1	156.6734	-38.01421	1.179046E-006	5.566586E-005	9
	37	98	54.50582	128.958	-129.8332	1	182.9941	-45.19377	1.181017E-006	5.603115E-005	9
	38	100	45.95588	132.7008	-151.5195	1	201.4141	-48.78811	1.223886E-006	5.662678E-005	9
	39	103	37.20238	138.2655	-183.3696	1	229.6558	-52.98274	1.135611E-006	6.508367E-005	9
	40	105	30.04808	145.2243	-222.2636	1	265.5018	-56.83989	1.106123E-006	5.490143E-005	9
	41	108	23.91582	154.5568	-272.7551	1	313.5014	-60.46192	1.280012E-006	5.796279E-005	9
	42	110	18.60119	167.4942	-341.3238	1	380.2055	-63.86192	1.311845E-006	8.701704E-005	9
	43	112	15.02404	180.4859	-410.852	1	448.7477	-66.28428	1.160284E-007	0.0006308	8
	44	114	12.01923	197.8026	-500.3909	1	538.0678	-68.4313	1.991072E-007	0.0006392	8
	45	117	9.450605	220.627	-618.582	1	656.7495	-70.37042	2.161152E-007	0.0006343	8
	46	119	7.512019	246.7809	-756.8373	1	796.0549	-71.94048	2.047914E-007	0.0006572	8
	47	122	5.978954	278.286	-925.4857	1	966.42	-73.2644	1.812707E-007	0.0006389	8
	48	125	4.734848	317.295	-1137.12	1	1180.558	-74.4091	1.988321E-007	0.0006614	8
	49	128	3.75601	364.6777	-1396.814	1	1443.634	-75.36793	1.709022E-007	0.0006324	8
	50	132	3.004808	420.382	-1702.63	1	1753.759	-76.13096	1.590554E-007	0.0006714	8
	51	136	2.372217	495.1263	-2103.062	1	2160.56	-76.75204	1.766749E-007	0.0007104	8
	52	140	1.878005	586.6989	-2591.048	1	2656.642	-77.24149	1.622186E-007	0.0006136	8
	53	145	1.512097	699.1412	-3139.927	1	3216.821	-77.4472	1.969053E-007	0.0007033	8
	54	150	1.201923	845.0804	-3863.687	1	3955.027	-77.66235	1.888376E-007	0.000601	8
	55	156	0.956633	1037.586	-4746.632	1	4858.714	-77.66944	-2.351439E-008	-2.86571E-005	7
