EXPLAIN
TAG	EISPOT
TITLE	LABEL	Potentiostatic EIS	Test Identifier
DATE	LABEL	9/21/2020	Date
TIME	LABEL	23:32:16	Time
NOTES	NOTES	1	Notes...
	
PSTAT	PSTAT	REF3000-16137	Potentiostat
VDC	POTEN	0.00000E+000	T	DC Voltage (V)
FREQINIT	QUANT	3.00000E+005	Initial Freq. (Hz)
FREQFINAL	QUANT	1.00000E+000	Final Freq. (Hz)
PTSPERDEC	QUANT	1.00000E+001	Points/decade
VAC	QUANT	5.00000E+001	AC Voltage (mV rms)
AREA	QUANT	1.00000E+000	Sample Area (cm^2)
SPEED	SELECTOR	2	Optimize for:
ZGUESS	QUANT	1.00000E+003	Estimated Z (ohms)
EOC	QUANT	0	Open Circuit (V)
SEQUENCER	TOGGLE	TRUE	Run as Sequence
PSTATMODEL	IQUANT	5	Pstat Model
PSTATSECTION	LABEL	REF3000-16137	Pstat Section
PSTATSERIALNO	LABEL	16137	Pstat Serial Number
CTRLMODE	IQUANT	1	Control Mode
IESTAB	IQUANT	0	I/E Stability
CASPEED	IQUANT	1	Control Amp Speed
CONVENTION	IQUANT	1	Current Convention
ICHRANGE	IQUANT	2	Ich Range
ICHRANGEMODE	TOGGLE	F	Ich Auto Range
ICHOFFSETENABLE	TOGGLE	T	Ich Offset Enable
ICHOFFSET	QUANT	0	Ich Offset (V)
ICHFILTER	IQUANT	3	Ich Filter
VCHRANGE	IQUANT	2	Vch Range
VCHRANGEMODE	TOGGLE	F	Vch Auto Range
VCHOFFSETENABLE	TOGGLE	T	Vch Offset Enable
VCHOFFSET	QUANT	0	Vch Offset (V)
VCHFILTER	IQUANT	3	Vch Filter
ACHRANGE	IQUANT	2	Ach Range
ACHOFFSETENABLE	TOGGLE	F	Ach Offset Enable
ACHOFFSET	QUANT	0	Ach Offset (V)
ACHFILTER	IQUANT	3	Ach Filter
IERANGELOWERLIMIT	IQUANT	2	I/E Range Lower Limit
IERANGEMODE	TOGGLE	F	I/E AutoRange
IERANGE	IQUANT	11	I/E Range
POSFEEDENABLE	TOGGLE	F	Positive Feedback IR Comp
POSFEEDRESISTANCE	QUANT	0	Positive Feedback Resistance (ohm)
ACHSELECT	IQUANT	0	Ach Select
CABLEID	IQUANT	13	Cable ID
DCCALDATE	LABEL	7/31/2020	DC Calibration Date
ACCALDATE	LABEL	7/31/2020	AC Calibration Date
THERMOSELECT	IQUANT	1	Thermo Select
FRAMEWORKVERSION	QUANT	6.33	Framework Version
INSTRUMENTVERSION	LABEL	3.50	Instrument Version
COMPLIANCEVOLTAGE	IQUANT	0	Compliance Voltage
ZCURVE	TABLE
	Pt	Time	Freq	Zreal	Zimag	Zsig	Zmod	Zphz	Idc	Vdc	IERange
	#	s	Hz	ohm	ohm	V	ohm	°	A	V	#
	0	11	300046.9	6.188408	2.22526	1	6.576335	19.77784	1.049668E-005	0.0001608	10
	1	14	238359.4	6.143928	1.770546	1	6.393956	16.07583	6.514342E-005	-0.0002633	10
	2	17	189328.1	6.128834	1.398712	1	6.286414	12.85577	1.513439E-005	0.0001664	10
	3	19	150421.9	6.123948	1.101861	1	6.222285	10.19989	-8.881255E-005	0.0003973	10
	4	22	119484.4	6.110196	0.8475194	1	6.168694	7.896869	1.334639E-005	0.0005666	10
	5	24	94921.88	6.109841	0.6648814	1	6.145911	6.210568	1.690782E-005	0.0005045	10
	6	27	75421.88	6.108291	0.4866574	1	6.127646	4.555225	1.208056E-005	0.0005067	10
	7	29	59859.37	6.108661	0.3331363	1	6.117738	3.121538	1.952291E-005	0.0005683	10
	8	32	47578.12	6.114191	0.2012062	1	6.117501	1.884813	-1.348106E-005	0.0006623	10
	9	35	37828.12	6.120249	0.080966	1	6.120785	0.7579327	-2.988792E-005	0.0006298	10
	10	37	30046.88	6.129236	-0.031596	1	6.129318	-0.2953547	-1.927469E-005	0.0006843	10
	11	40	23859.38	6.137623	-0.1443098	1	6.139319	-1.346909	-3.046329E-005	0.0006509	10
	12	42	18984.38	6.148292	-0.2600082	1	6.153787	-2.421567	2.161687E-005	0.0006469	10
	13	44	15046.87	6.160585	-0.389442	1	6.172883	-3.617145	1.011628E-005	0.0006183	10
	14	47	11953.13	6.176931	-0.5338426	1	6.199957	-4.939526	-1.516843E-005	0.0006755	10
	15	49	9515.62	6.195717	-0.7019795	1	6.235358	-6.464089	-2.426065E-005	0.0006945	10
	16	51	7546.875	6.218903	-0.9049084	1	6.284394	-8.278967	-2.580743E-005	0.0006966	10
	17	53	5928.309	6.247479	-1.161365	1	6.354507	-10.53071	1.62173E-005	0.0006468	10
	18	56	4733.456	6.282851	-1.452794	1	6.44863	-13.01977	-2.41466E-005	0.0007227	10
	19	58	3796.875	6.3249	-1.800887	1	6.576287	-15.89323	-2.801427E-005	0.0006568	10
	20	60	2987.132	6.382839	-2.264062	1	6.772489	-19.53015	1.046933E-005	0.0006173	10
	21	63	2390.625	6.451731	-2.79352	1	7.030547	-23.41202	3.069914E-006	0.0006236	10
	22	65	1884.191	6.543067	-3.493813	1	7.417442	-28.10096	-2.742373E-005	0.0006771	10
	23	67	1516.544	6.650637	-4.277635	1	7.907537	-32.74879	1.455645E-005	0.0006181	10
	24	70	1193.986	6.800357	-5.341076	1	8.647078	-38.14648	1.268792E-005	0.0006494	10
	25	72	946.5144	6.986462	-6.617322	1	9.62287	-43.44566	-1.090714E-005	0.0006619	10
	26	75	751.7689	7.223436	-8.177543	1	10.91101	-48.545	1.292085E-005	0.0006506	10
	27	77	597.4265	7.532328	-10.08915	1	12.59075	-53.25582	8.758354E-006	0.0006091	10
	28	79	477.4305	7.91168	-12.37706	1	14.68967	-57.41242	-3.451281E-006	0.0006671	10
	29	81	376.6741	8.423985	-15.33741	1	17.49856	-61.22246	-4.052824E-006	0.0006533	10
	30	84	298.2954	9.061551	-18.91614	1	20.97455	-64.4038	-3.767305E-006	0.0006601	10
	31	86	237.7717	9.83216	-23.16685	1	25.16693	-67.00333	-4.541448E-006	0.0006577	10
	32	89	189.0121	10.78894	-28.41706	1	30.39622	-69.21003	-3.700311E-006	0.000664	10
	33	91	150.2404	11.95133	-34.83957	1	36.83245	-71.06603	-4.037267E-006	0.0007091	10
	34	93	119.1737	13.35609	-42.73757	1	44.77594	-72.64524	5.343894E-007	7.369669E-005	9
	35	96	95.0169	15.03943	-52.26488	1	54.38568	-73.94662	5.799643E-007	6.559954E-005	9
	36	98	75.60484	17.11356	-64.06658	1	66.3129	-75.04426	4.384779E-007	6.127486E-005	9
	37	101	54.50582	20.95521	-85.83393	1	88.35488	-76.28037	3.911406E-007	6.401884E-005	9
	38	103	45.95588	23.52163	-100.0387	1	102.7668	-76.76865	4.782427E-007	6.780611E-005	9
	39	106	37.20238	27.38858	-120.912	1	123.9752	-77.23694	6.320396E-007	6.457607E-005	9
	40	108	30.04808	32.34966	-146.508	1	150.037	-77.54861	4.967314E-007	6.352118E-005	9
	41	110	23.91582	39.10865	-179.7361	1	183.9418	-77.7244	4.65119E-007	6.240005E-005	9
	42	113	18.60119	49.08547	-225.156	1	230.4444	-77.70158	3.19271E-007	7.065001E-005	9
	43	115	15.02404	60.35146	-272.3698	1	278.976	-77.50631	4.579326E-007	5.294191E-005	9
	44	117	12.01923	75.71125	-331.9137	1	340.4393	-77.15038	7.443654E-007	6.610564E-005	9
	45	120	9.450605	97.6878	-409.6148	1	421.1024	-76.58626	6.399156E-007	5.524978E-005	9
	46	122	7.512019	125.7248	-497.6923	1	513.3267	-75.8228	6.962593E-008	0.0006438	8
	47	125	5.978954	162.6445	-604.017	1	625.5316	-74.92934	7.286053E-008	0.0006444	8
	48	128	4.734848	213.0363	-734.3824	1	764.6581	-73.82314	-5.630331E-008	0.0006354	8
	49	131	3.75601	278.5417	-886.4938	1	929.2238	-72.55697	8.710255E-008	0.000658	8
	50	135	3.004808	360.1209	-1057.488	1	1117.125	-71.19405	-3.070141E-008	0.0006679	8
	51	138	2.372217	473.6345	-1265.808	1	1351.518	-69.48538	-4.393388E-009	0.0006096	8
	52	143	1.878005	617.9381	-1508.48	1	1630.141	-67.72389	8.728802E-008	0.0006353	8
	53	147	1.512097	784.0738	-1760.801	1	1927.483	-65.99689	2.440564E-008	0.0007216	8
	54	153	1.201923	1012.326	-2060.321	1	2295.589	-63.83308	6.862045E-008	0.000657	8
	55	159	0.956633	1292.698	-2387.011	1	2714.57	-61.56201	-1.821819E-007	2.943545E-006	8
