EXPLAIN
TAG	EISPOT
TITLE	LABEL	Potentiostatic EIS	Test Identifier
DATE	LABEL	9/22/2020	Date
TIME	LABEL	2:04:38	Time
NOTES	NOTES	1	Notes...
	
PSTAT	PSTAT	REF3000-16137	Potentiostat
VDC	POTEN	0.00000E+000	T	DC Voltage (V)
FREQINIT	QUANT	3.00000E+005	Initial Freq. (Hz)
FREQFINAL	QUANT	1.00000E+000	Final Freq. (Hz)
PTSPERDEC	QUANT	1.00000E+001	Points/decade
VAC	QUANT	5.00000E+001	AC Voltage (mV rms)
AREA	QUANT	1.00000E+000	Sample Area (cm^2)
SPEED	SELECTOR	2	Optimize for:
ZGUESS	QUANT	1.00000E+003	Estimated Z (ohms)
EOC	QUANT	0	Open Circuit (V)
SEQUENCER	TOGGLE	TRUE	Run as Sequence
PSTATMODEL	IQUANT	5	Pstat Model
PSTATSECTION	LABEL	REF3000-16137	Pstat Section
PSTATSERIALNO	LABEL	16137	Pstat Serial Number
CTRLMODE	IQUANT	1	Control Mode
IESTAB	IQUANT	0	I/E Stability
CASPEED	IQUANT	1	Control Amp Speed
CONVENTION	IQUANT	1	Current Convention
ICHRANGE	IQUANT	2	Ich Range
ICHRANGEMODE	TOGGLE	F	Ich Auto Range
ICHOFFSETENABLE	TOGGLE	T	Ich Offset Enable
ICHOFFSET	QUANT	0	Ich Offset (V)
ICHFILTER	IQUANT	3	Ich Filter
VCHRANGE	IQUANT	2	Vch Range
VCHRANGEMODE	TOGGLE	F	Vch Auto Range
VCHOFFSETENABLE	TOGGLE	T	Vch Offset Enable
VCHOFFSET	QUANT	0	Vch Offset (V)
VCHFILTER	IQUANT	3	Vch Filter
ACHRANGE	IQUANT	2	Ach Range
ACHOFFSETENABLE	TOGGLE	F	Ach Offset Enable
ACHOFFSET	QUANT	0	Ach Offset (V)
ACHFILTER	IQUANT	3	Ach Filter
IERANGELOWERLIMIT	IQUANT	2	I/E Range Lower Limit
IERANGEMODE	TOGGLE	F	I/E AutoRange
IERANGE	IQUANT	11	I/E Range
POSFEEDENABLE	TOGGLE	F	Positive Feedback IR Comp
POSFEEDRESISTANCE	QUANT	0	Positive Feedback Resistance (ohm)
ACHSELECT	IQUANT	0	Ach Select
CABLEID	IQUANT	13	Cable ID
DCCALDATE	LABEL	7/31/2020	DC Calibration Date
ACCALDATE	LABEL	7/31/2020	AC Calibration Date
THERMOSELECT	IQUANT	1	Thermo Select
FRAMEWORKVERSION	QUANT	6.33	Framework Version
INSTRUMENTVERSION	LABEL	3.50	Instrument Version
COMPLIANCEVOLTAGE	IQUANT	0	Compliance Voltage
ZCURVE	TABLE
	Pt	Time	Freq	Zreal	Zimag	Zsig	Zmod	Zphz	Idc	Vdc	IERange
	#	s	Hz	ohm	ohm	V	ohm	°	A	V	#
	0	7	300046.9	96.0715	0.6182336	1	96.0735	0.3687015	4.128534E-006	-0.0016219	9
	1	10	238359.4	96.3098	0.4558346	1	96.3109	0.271179	2.754786E-005	6.4942E-005	9
	2	13	189328.1	96.6084	0.351603	1	96.609	0.2085251	6.495172E-005	-0.0022267	9
	3	16	150421.9	96.6493	0.1542491	1	96.6494	0.0914421	1.459895E-005	-0.0011509	9
	4	18	119484.4	96.9189	0.0621915	1	96.919	0.0367659	-1.14015E-005	0.0008571	9
	5	21	94921.88	97.109	0.2059294	1	97.1092	0.1215013	-1.687148E-005	0.000726	9
	6	23	75421.88	97.2332	0.0349215	1	97.2333	0.0205779	-1.85092E-005	0.0003874	9
	7	26	59859.37	97.4042	-0.1128996	1	97.4043	-0.0664105	-1.988198E-005	0.0006829	9
	8	28	47578.12	97.5831	-0.2285916	1	97.5833	-0.134217	-1.742261E-005	0.0007575	9
	9	31	37828.12	97.6466	-0.3344357	1	97.6472	-0.196235	8.764401E-006	0.0001072	9
	10	33	30046.88	97.8448	-0.3691178	1	97.8455	-0.2161464	1.043224E-005	0.0001399	9
	11	36	23859.38	97.9811	-0.3971855	1	97.9819	-0.2322583	-9.703899E-006	0.0006655	9
	12	38	18984.38	98.1373	-0.596014	1	98.1391	-0.3479683	1.18852E-005	-0.000624	9
	13	41	15046.87	98.2398	-0.7907042	1	98.243	-0.4611473	-1.795307E-005	0.0007916	9
	14	43	11953.13	98.3506	-0.866339	1	98.3544	-0.5046873	5.192545E-007	0.0004991	9
	15	45	9515.62	98.5723	-1.132811	1	98.5788	-0.6584246	-8.389241E-006	2.619299E-005	9
	16	48	7546.875	98.716	-1.447744	1	98.7266	-0.8402253	1.917992E-005	-0.0007422	9
	17	50	5928.309	98.8561	-1.745698	1	98.8715	-1.01168	-2.299815E-006	-0.0002818	9
	18	52	4733.456	99.0065	-2.118056	1	99.0292	-1.225547	2.298711E-005	-0.0004189	9
	19	55	3796.875	99.2098	-2.589749	1	99.2436	-1.495296	-1.688253E-005	0.0008359	9
	20	57	2987.132	99.4506	-3.218318	1	99.5026	-1.853501	1.82443E-005	-0.0007165	9
	21	59	2390.625	99.6062	-3.968848	1	99.6852	-2.281766	2.300118E-005	-0.0004683	9
	22	61	1884.191	99.8654	-4.822128	1	99.9817	-2.764454	-1.961208E-005	0.000605	9
	23	64	1516.544	100.0339	-6.03901	1	100.216	-3.454733	1.714868E-005	-0.0006767	9
	24	66	1193.986	100.4035	-7.516202	1	100.6845	-4.281173	1.875402E-005	-0.0007194	9
	25	69	946.5144	100.7695	-9.355824	1	101.2029	-5.30435	-5.978342E-006	0.0007197	9
	26	71	751.7689	101.2028	-11.51974	1	101.8563	-6.493929	4.624129E-006	-0.0004704	9
	27	73	597.4265	101.6218	-14.26056	1	102.6175	-7.988143	-6.508456E-006	0.0007325	9
	28	76	477.4305	102.1247	-17.60337	1	103.6307	-9.78005	1.126367E-006	6.767255E-005	9
	29	78	376.6741	102.8054	-21.90784	1	105.1138	-12.02979	1.084529E-006	6.03986E-005	9
	30	80	298.2954	103.6216	-27.17178	1	107.1249	-14.69336	1.199277E-006	6.104937E-005	9
	31	83	237.7717	104.6058	-33.49046	1	109.8362	-17.75292	1.145154E-006	6.136466E-005	9
	32	85	189.0121	105.8364	-41.35878	1	113.6305	-21.34458	1.180625E-006	6.440986E-005	9
	33	87	150.2404	107.3591	-51.05655	1	118.8812	-25.43427	1.129883E-006	6.46535E-005	9
	34	90	119.1737	109.2733	-63.10688	1	126.1869	-30.00705	1.119596E-006	6.571825E-005	9
	35	92	95.0169	111.6115	-77.59184	1	135.9324	-34.80687	1.162619E-006	5.823948E-005	9
	36	95	75.60484	114.5533	-95.5235	1	149.1549	-39.824	1.190685E-006	5.995468E-005	9
	37	97	54.50582	120.0384	-128.5188	1	175.8587	-46.95407	1.104949E-006	6.082616E-005	9
	38	100	45.95588	123.7443	-149.9751	1	194.4355	-50.474	1.145767E-006	5.996288E-005	9
	39	102	37.20238	129.2749	-181.4895	1	222.8238	-54.53773	1.171448E-006	6.792549E-005	9
	40	105	30.04808	136.2103	-219.9366	1	258.6993	-58.2294	1.202339E-006	5.968027E-005	9
	41	107	23.91582	145.4728	-269.8265	1	306.5431	-61.66936	1.169145E-006	5.963455E-005	9
	42	110	18.60119	158.3158	-337.5645	1	372.8454	-64.8737	1.026985E-006	6.244695E-005	9
	43	112	15.02404	171.1502	-406.2557	1	440.8356	-67.15495	1.250765E-007	0.0006256	8
	44	114	12.01923	188.274	-494.6971	1	529.3131	-69.16395	9.428484E-008	0.0006352	8
	45	117	9.450605	210.5308	-611.4876	1	646.715	-71.00179	1.410816E-007	0.0006445	8
	46	119	7.512019	236.2192	-748.562	1	784.9487	-72.48618	1.711867E-007	0.0006532	8
	47	122	5.978954	267.1885	-915.061	1	953.271	-73.72273	1.510642E-007	0.0006426	8
	48	125	4.734848	305.0099	-1125.481	1	1166.078	-74.83681	2.207357E-007	0.0006608	8
	49	128	3.75601	351.9386	-1381.41	1	1425.537	-75.70695	1.72593E-007	0.0006243	8
	50	132	3.004808	407.3729	-1684.178	1	1732.746	-76.40234	1.92839E-007	0.0006706	8
	51	135	2.372217	481.5912	-2082.1	1	2137.07	-76.97647	2.041365E-007	0.0007233	8
	52	140	1.878005	573.8358	-2565.272	1	2628.671	-77.39086	1.843953E-007	0.0006148	8
	53	144	1.512097	686.0823	-3108.165	1	3182.986	-77.55239	2.173632E-007	0.000698	8
	54	150	1.201923	833.3522	-3824.92	1	3914.65	-77.70879	2.0541E-007	0.0006042	8
	55	156	0.956633	1028.289	-4697.729	1	4808.954	-77.65322	-2.315075E-008	-2.488352E-005	7
