EXPLAIN
TAG	EISPOT
TITLE	LABEL	Potentiostatic EIS	Test Identifier
DATE	LABEL	9/22/2020	Date
TIME	LABEL	2:38:58	Time
NOTES	NOTES	1	Notes...
	
PSTAT	PSTAT	REF3000-16137	Potentiostat
VDC	POTEN	0.00000E+000	T	DC Voltage (V)
FREQINIT	QUANT	3.00000E+005	Initial Freq. (Hz)
FREQFINAL	QUANT	1.00000E+000	Final Freq. (Hz)
PTSPERDEC	QUANT	1.00000E+001	Points/decade
VAC	QUANT	5.00000E+001	AC Voltage (mV rms)
AREA	QUANT	1.00000E+000	Sample Area (cm^2)
SPEED	SELECTOR	2	Optimize for:
ZGUESS	QUANT	1.00000E+003	Estimated Z (ohms)
EOC	QUANT	0	Open Circuit (V)
SEQUENCER	TOGGLE	TRUE	Run as Sequence
PSTATMODEL	IQUANT	5	Pstat Model
PSTATSECTION	LABEL	REF3000-16137	Pstat Section
PSTATSERIALNO	LABEL	16137	Pstat Serial Number
CTRLMODE	IQUANT	1	Control Mode
IESTAB	IQUANT	0	I/E Stability
CASPEED	IQUANT	1	Control Amp Speed
CONVENTION	IQUANT	1	Current Convention
ICHRANGE	IQUANT	2	Ich Range
ICHRANGEMODE	TOGGLE	F	Ich Auto Range
ICHOFFSETENABLE	TOGGLE	T	Ich Offset Enable
ICHOFFSET	QUANT	0	Ich Offset (V)
ICHFILTER	IQUANT	3	Ich Filter
VCHRANGE	IQUANT	2	Vch Range
VCHRANGEMODE	TOGGLE	F	Vch Auto Range
VCHOFFSETENABLE	TOGGLE	T	Vch Offset Enable
VCHOFFSET	QUANT	0	Vch Offset (V)
VCHFILTER	IQUANT	3	Vch Filter
ACHRANGE	IQUANT	2	Ach Range
ACHOFFSETENABLE	TOGGLE	F	Ach Offset Enable
ACHOFFSET	QUANT	0	Ach Offset (V)
ACHFILTER	IQUANT	3	Ach Filter
IERANGELOWERLIMIT	IQUANT	2	I/E Range Lower Limit
IERANGEMODE	TOGGLE	F	I/E AutoRange
IERANGE	IQUANT	11	I/E Range
POSFEEDENABLE	TOGGLE	F	Positive Feedback IR Comp
POSFEEDRESISTANCE	QUANT	0	Positive Feedback Resistance (ohm)
ACHSELECT	IQUANT	0	Ach Select
CABLEID	IQUANT	13	Cable ID
DCCALDATE	LABEL	7/31/2020	DC Calibration Date
ACCALDATE	LABEL	7/31/2020	AC Calibration Date
THERMOSELECT	IQUANT	1	Thermo Select
FRAMEWORKVERSION	QUANT	6.33	Framework Version
INSTRUMENTVERSION	LABEL	3.50	Instrument Version
COMPLIANCEVOLTAGE	IQUANT	0	Compliance Voltage
ZCURVE	TABLE
	Pt	Time	Freq	Zreal	Zimag	Zsig	Zmod	Zphz	Idc	Vdc	IERange
	#	s	Hz	ohm	ohm	V	ohm	°	A	V	#
	0	9	300046.9	304.1619	-21.5787	1	304.9264	-4.058039	8.618943E-006	0.0011471	9
	1	17	238359.4	305.6016	-23.72289	1	306.521	-4.43879	2.780262E-005	0.0003562	10
	2	21	189328.1	306.7979	-13.35919	1	307.0886	-2.493309	2.210033E-005	-0.0004357	9
	3	25	150421.9	307.316	-11.39789	1	307.5273	-2.124041	-3.026431E-005	-0.0006556	9
	4	32	119484.4	311.6818	-13.08233	1	311.9562	-2.403485	-5.602566E-005	0.0007125	10
	5	39	94921.88	312.614	-8.407683	1	312.7271	-1.540586	-1.706758E-005	0.001041	9
	6	42	75421.88	313.3843	-6.808403	1	313.4583	-1.244579	-1.878919E-005	0.0002991	9
	7	44	59859.37	314.1584	-5.861498	1	314.2131	-1.068888	1.913217E-005	-7.480581E-005	9
	8	47	47578.12	314.2345	-4.550609	1	314.2675	-0.8296748	1.053791E-005	0.000245	9
	9	50	37828.12	315.4487	-4.352711	1	315.4787	-0.7905442	-1.166521E-006	-0.0004405	9
	10	52	30046.88	315.7598	-3.432311	1	315.7784	-0.622781	-1.559349E-005	0.0001193	9
	11	55	23859.38	316.7996	-3.190154	1	316.8156	-0.5769457	-9.851588E-006	0.0009543	9
	12	57	18984.38	317.4114	-2.663377	1	317.4226	-0.4807536	-1.456737E-005	8.893431E-005	9
	13	59	15046.87	318.127	-1.744593	1	318.1318	-0.3142042	6.657688E-006	-0.0006657	9
	14	61	11953.13	318.0671	-2.311054	1	318.0755	-0.4163	7.659645E-006	-0.0006927	9
	15	64	9515.62	318.5718	-2.20399	1	318.5794	-0.3963857	1.669089E-005	-0.0008303	9
	16	66	7546.875	319.5402	-2.837554	1	319.5528	-0.5087798	-1.851838E-005	0.0003451	9
	17	68	5928.309	319.7847	-2.166939	1	319.792	-0.3882442	-8.760005E-006	0.0008853	9
	18	71	4733.456	320.7392	-2.696252	1	320.7505	-0.4816381	-1.93948E-005	0.0003375	9
	19	73	3796.875	320.5692	-3.0095	1	320.5833	-0.5378764	-2.422032E-005	0.0006722	9
	20	75	2987.132	321.2285	-3.945612	1	321.2527	-0.7037219	-9.75349E-006	-0.0000994	9
	21	78	2390.625	321.7619	-4.72468	1	321.7966	-0.8412579	2.553196E-005	-0.0001665	9
	22	80	1884.191	323.5562	-6.952746	1	323.6309	-1.231012	7.624832E-006	-0.0006565	9
	23	83	1516.544	323.602	-7.918148	1	323.6988	-1.401679	-2.495639E-005	0.0007108	9
	24	85	1193.986	324.5392	-8.728435	1	324.6566	-1.54059	-2.410038E-005	0.0008563	9
	25	88	946.5144	325.2447	-10.77233	1	325.423	-1.896982	1.590188E-005	-0.0008248	9
	26	90	751.7689	325.5898	-13.56418	1	325.8723	-2.385581	-1.046882E-005	0.0009375	9
	27	93	597.4265	326.8677	-16.5584	1	327.2868	-2.899999	1.133853E-005	0.0002928	9
	28	95	477.4305	327.9939	-20.20542	1	328.6157	-3.525139	9.659657E-007	6.907032E-005	9
	29	97	376.6741	329.1179	-25.09006	1	330.0729	-4.359469	9.8612E-007	6.332358E-005	9
	30	100	298.2954	330.3897	-31.075	1	331.8478	-5.373182	1.083786E-006	6.704764E-005	9
	31	102	237.7717	331.8247	-38.275	1	334.0249	-6.57982	1.020624E-006	6.79882E-005	9
	32	105	189.0121	333.5212	-47.27996	1	336.8557	-8.068487	9.891658E-007	6.517152E-005	9
	33	107	150.2404	335.5199	-58.39858	1	340.5642	-9.87365	1.017005E-006	0.0001059	9
	34	109	119.1737	337.9153	-72.28086	1	345.5593	-12.07375	9.241128E-007	7.151916E-005	9
	35	112	95.0169	340.7654	-89.02428	1	352.2021	-14.64118	1.02694E-006	6.541557E-005	9
	36	114	75.60484	342.8454	-109.3286	1	359.8551	-17.68675	-7.925863E-008	0.0006449	8
	37	117	54.50582	349.0906	-147.4825	1	378.9661	-22.9029	-8.892936E-008	0.0006357	8
	38	119	45.95588	353.4518	-172.3168	1	393.2191	-25.99042	-1.078261E-007	0.0006479	8
	39	122	37.20238	359.7147	-208.8158	1	415.9311	-30.13533	-9.407583E-008	0.0006431	8
	40	124	30.04808	367.4803	-253.4465	1	446.4044	-34.59354	-3.432434E-008	0.0006258	8
	41	127	23.91582	377.6238	-311.5047	1	489.5252	-39.51948	-1.177236E-007	0.0006275	8
	42	129	18.60119	391.5703	-390.7	1	553.149	-44.93626	-1.518507E-008	0.000639	8
	43	131	15.02404	406.6955	-473.3966	1	624.1038	-49.3341	-1.062324E-007	0.0006358	8
	44	134	12.01923	426.1719	-578.4243	1	718.4686	-53.61793	-2.360331E-009	0.0006569	8
	45	136	9.450605	452.164	-717.0208	1	847.6858	-57.76386	-6.560015E-008	0.0006239	8
	46	139	7.512019	484.0977	-879.7576	1	1004.153	-61.17765	-9.767082E-008	0.0006309	8
	47	141	5.978954	522.9315	-1077.034	1	1197.272	-64.10207	-7.22597E-008	0.0006441	8
	48	144	4.734848	572.1768	-1322.969	1	1441.4	-66.61179	-4.251179E-008	0.0006744	8
	49	148	3.75601	633.1685	-1621.939	1	1741.146	-68.67545	-7.341568E-008	0.0006299	8
	50	151	3.004808	703.4344	-1971.429	1	2093.168	-70.36287	-8.714412E-008	0.0006771	8
	51	155	2.372217	791.1647	-2425.012	1	2550.809	-71.93099	-7.181258E-008	0.0006894	8
	52	159	1.878005	902.2036	-2977.608	1	3111.289	-73.14339	-5.040541E-008	0.000615	8
	53	164	1.512097	1022.745	-3603.605	1	3745.928	-74.15545	-5.501071E-008	0.0007479	8
	54	169	1.201923	1180.564	-4424.893	1	4579.673	-75.06142	-8.352757E-009	0.0006001	7
	55	175	0.956633	1366.581	-5416.014	1	5585.763	-75.8386	-3.883234E-008	-2.824763E-005	7
