EXPLAIN
TAG	EISPOT
TITLE	LABEL	Potentiostatic EIS	Test Identifier
DATE	LABEL	9/22/2020	Date
TIME	LABEL	0:36:01	Time
NOTES	NOTES	1	Notes...
	
PSTAT	PSTAT	REF3000-16137	Potentiostat
VDC	POTEN	0.00000E+000	T	DC Voltage (V)
FREQINIT	QUANT	3.00000E+005	Initial Freq. (Hz)
FREQFINAL	QUANT	1.00000E+000	Final Freq. (Hz)
PTSPERDEC	QUANT	1.00000E+001	Points/decade
VAC	QUANT	5.00000E+001	AC Voltage (mV rms)
AREA	QUANT	1.00000E+000	Sample Area (cm^2)
SPEED	SELECTOR	2	Optimize for:
ZGUESS	QUANT	1.00000E+003	Estimated Z (ohms)
EOC	QUANT	0	Open Circuit (V)
SEQUENCER	TOGGLE	TRUE	Run as Sequence
PSTATMODEL	IQUANT	5	Pstat Model
PSTATSECTION	LABEL	REF3000-16137	Pstat Section
PSTATSERIALNO	LABEL	16137	Pstat Serial Number
CTRLMODE	IQUANT	1	Control Mode
IESTAB	IQUANT	0	I/E Stability
CASPEED	IQUANT	1	Control Amp Speed
CONVENTION	IQUANT	1	Current Convention
ICHRANGE	IQUANT	2	Ich Range
ICHRANGEMODE	TOGGLE	F	Ich Auto Range
ICHOFFSETENABLE	TOGGLE	T	Ich Offset Enable
ICHOFFSET	QUANT	0	Ich Offset (V)
ICHFILTER	IQUANT	3	Ich Filter
VCHRANGE	IQUANT	2	Vch Range
VCHRANGEMODE	TOGGLE	F	Vch Auto Range
VCHOFFSETENABLE	TOGGLE	T	Vch Offset Enable
VCHOFFSET	QUANT	0	Vch Offset (V)
VCHFILTER	IQUANT	3	Vch Filter
ACHRANGE	IQUANT	2	Ach Range
ACHOFFSETENABLE	TOGGLE	F	Ach Offset Enable
ACHOFFSET	QUANT	0	Ach Offset (V)
ACHFILTER	IQUANT	3	Ach Filter
IERANGELOWERLIMIT	IQUANT	2	I/E Range Lower Limit
IERANGEMODE	TOGGLE	F	I/E AutoRange
IERANGE	IQUANT	11	I/E Range
POSFEEDENABLE	TOGGLE	F	Positive Feedback IR Comp
POSFEEDRESISTANCE	QUANT	0	Positive Feedback Resistance (ohm)
ACHSELECT	IQUANT	0	Ach Select
CABLEID	IQUANT	13	Cable ID
DCCALDATE	LABEL	7/31/2020	DC Calibration Date
ACCALDATE	LABEL	7/31/2020	AC Calibration Date
THERMOSELECT	IQUANT	1	Thermo Select
FRAMEWORKVERSION	QUANT	6.33	Framework Version
INSTRUMENTVERSION	LABEL	3.50	Instrument Version
COMPLIANCEVOLTAGE	IQUANT	0	Compliance Voltage
ZCURVE	TABLE
	Pt	Time	Freq	Zreal	Zimag	Zsig	Zmod	Zphz	Idc	Vdc	IERange
	#	s	Hz	ohm	ohm	V	ohm	°	A	V	#
	0	8	300046.9	13.74755	2.139139	1	13.91298	8.844382	-0.0001019	0.0001745	10
	1	12	238359.4	13.74097	1.684457	1	13.84383	6.98882	-4.743079E-005	0.0003615	10
	2	15	189328.1	13.73712	1.321541	1	13.80054	5.495071	-2.595897E-005	0.0003311	10
	3	17	150421.9	13.73459	1.043975	1	13.77421	4.346733	2.670539E-005	0.0004677	10
	4	20	119484.4	13.73421	0.7945392	1	13.75717	3.310935	6.989218E-005	0.000276	10
	5	22	94921.88	13.73835	0.616317	1	13.75216	2.568628	-1.692977E-005	0.0006085	10
	6	25	75421.88	13.74907	0.4370609	1	13.75602	1.820728	4.75985E-006	0.0005543	10
	7	27	59859.37	13.76185	0.2860267	1	13.76483	1.190665	-2.179815E-005	0.0007024	10
	8	30	47578.12	13.7736	0.1555664	1	13.77448	0.6471017	1.479967E-005	0.0006105	10
	9	32	37828.12	13.79014	0.0371358	1	13.79019	0.1542926	-1.880582E-005	0.0006248	10
	10	35	30046.88	13.8062	-0.0784957	1	13.80643	-0.3257539	-1.022097E-005	0.0006414	10
	11	37	23859.38	13.82326	-0.1949538	1	13.82464	-0.8080069	-2.611929E-005	0.0007045	10
	12	40	18984.38	13.84158	-0.3193366	1	13.84526	-1.321626	2.485549E-005	0.0006441	10
	13	42	15046.87	13.86306	-0.4575308	1	13.8706	-1.890281	-2.009712E-005	0.0007187	10
	14	44	11953.13	13.8893	-0.6145107	1	13.90289	-2.533312	2.024492E-005	0.000646	10
	15	47	9515.62	13.91316	-0.8004387	1	13.93617	-3.292657	-2.811522E-005	0.0007177	10
	16	49	7546.875	13.94636	-1.025532	1	13.98402	-4.20562	-2.42249E-005	0.0006876	10
	17	51	5928.309	13.98557	-1.310102	1	14.0468	-5.35158	1.427353E-005	0.0006608	10
	18	54	4733.456	14.03047	-1.633848	1	14.12528	-6.642175	-2.187199E-005	0.0006956	10
	19	56	3796.875	14.08348	-2.02005	1	14.22761	-8.162494	-2.007444E-005	0.0006442	10
	20	58	2987.132	14.15114	-2.535704	1	14.37652	-10.15887	-2.784257E-005	0.0006859	10
	21	61	2390.625	14.22948	-3.13086	1	14.56985	-12.40885	1.337829E-005	0.0006017	10
	22	63	1884.191	14.33254	-3.911565	1	14.85672	-15.26513	-2.862767E-005	0.0006863	10
	23	65	1516.544	14.44923	-4.792588	1	15.22331	-18.34989	3.895484E-006	0.000666	10
	24	68	1193.986	14.61091	-5.987576	1	15.79018	-22.28391	1.435653E-005	0.0006558	10
	25	70	946.5144	14.80768	-7.426276	1	16.56554	-26.63445	-1.763791E-005	0.0006695	10
	26	72	751.7689	15.05668	-9.18577	1	17.63752	-31.38651	-2.547702E-005	0.0006715	10
	27	75	597.4265	15.36844	-11.34728	1	19.10366	-36.44027	3.960353E-006	0.0006011	10
	28	77	477.4305	15.75139	-13.9502	1	21.04078	-41.52967	-2.583374E-006	0.0006656	10
	29	79	376.6741	16.2694	-17.3378	1	23.77589	-46.82087	-2.462744E-006	0.0006529	10
	30	82	298.2954	16.92284	-21.46204	1	27.33133	-51.74419	-2.912703E-006	0.0006612	10
	31	84	237.7717	17.73228	-26.38527	1	31.79019	-56.09684	-3.04071E-006	0.0006622	10
	32	87	189.0121	18.77413	-32.48543	1	37.52027	-59.97533	-2.603239E-006	0.0006647	10
	33	89	150.2404	20.06816	-39.90216	1	44.66446	-63.30062	1.059832E-006	6.364494E-005	9
	34	91	119.1737	21.73296	-49.10704	1	53.70124	-66.12759	1.032008E-006	5.520088E-005	9
	35	94	95.0169	23.74377	-60.08842	1	64.60947	-68.43869	9.872906E-007	6.184395E-005	9
	36	96	75.60484	26.21948	-73.60238	1	78.13303	-70.3925	1.02054E-006	5.197067E-005	9
	37	99	54.50582	30.68956	-98.3583	1	103.035	-72.67114	6.258846E-007	0.000097	9
	38	101	45.95588	33.55516	-114.4258	1	119.2443	-73.65632	1.066477E-006	5.914221E-005	9
	39	104	37.20238	37.71385	-138.0366	1	143.0959	-74.7188	1.090304E-006	5.694911E-005	9
	40	106	30.04808	42.78521	-167.0094	1	172.4028	-75.63074	1.08542E-006	5.915251E-005	9
	41	108	23.91582	49.4376	-204.8014	1	210.6839	-76.42883	1.068039E-006	6.096258E-005	9
	42	111	18.60119	58.62288	-256.5132	1	263.1266	-77.12685	1.046947E-006	5.900949E-005	9
	43	113	15.02404	68.61094	-310.7176	1	318.2026	-77.54808	1.058532E-006	6.188731E-005	9
	44	115	12.01923	81.89857	-379.7202	1	388.4518	-77.82881	1.221864E-006	6.015543E-005	9
	45	118	9.450605	100.0572	-469.2973	1	479.8452	-77.96438	3.097105E-007	0.0006349	8
	46	120	7.512019	123.3159	-576.1909	1	589.2391	-77.91985	3.115593E-007	0.0006297	8
	47	123	5.978954	153.3687	-706.0099	1	722.4763	-77.74388	3.413354E-007	0.0006444	8
	48	126	4.734848	194.912	-867.9472	1	889.5634	-77.34325	3.909508E-007	0.0006279	8
	49	129	3.75601	248.8419	-1063.071	1	1091.806	-76.8255	3.951404E-007	0.0006455	8
	50	133	3.004808	317.3286	-1287.975	1	1326.49	-76.15924	4.361423E-007	0.0006121	8
	51	137	2.372217	412.3586	-1576.466	1	1629.504	-75.34148	4.04435E-007	0.0005811	8
	52	141	1.878005	539.6514	-1916.114	1	1990.657	-74.27074	4.002152E-007	0.0006436	8
	53	146	1.512097	689.3577	-2288.917	1	2390.472	-73.23917	4.142469E-007	0.0005344	8
	54	151	1.201923	894.6873	-2753.018	1	2894.749	-71.99666	4.069832E-007	0.0006521	8
	55	157	0.956633	1152.439	-3290.898	1	3486.85	-70.70026	3.836103E-007	-3.496148E-006	8
