EXPLAIN
TAG	EISPOT
TITLE	LABEL	Potentiostatic EIS	Test Identifier
DATE	LABEL	9/22/2020	Date
TIME	LABEL	3:01:56	Time
NOTES	NOTES	1	Notes...
	
PSTAT	PSTAT	REF3000-16137	Potentiostat
VDC	POTEN	0.00000E+000	T	DC Voltage (V)
FREQINIT	QUANT	3.00000E+005	Initial Freq. (Hz)
FREQFINAL	QUANT	1.00000E+000	Final Freq. (Hz)
PTSPERDEC	QUANT	1.00000E+001	Points/decade
VAC	QUANT	5.00000E+001	AC Voltage (mV rms)
AREA	QUANT	1.00000E+000	Sample Area (cm^2)
SPEED	SELECTOR	2	Optimize for:
ZGUESS	QUANT	1.00000E+003	Estimated Z (ohms)
EOC	QUANT	0	Open Circuit (V)
SEQUENCER	TOGGLE	TRUE	Run as Sequence
PSTATMODEL	IQUANT	5	Pstat Model
PSTATSECTION	LABEL	REF3000-16137	Pstat Section
PSTATSERIALNO	LABEL	16137	Pstat Serial Number
CTRLMODE	IQUANT	1	Control Mode
IESTAB	IQUANT	0	I/E Stability
CASPEED	IQUANT	1	Control Amp Speed
CONVENTION	IQUANT	1	Current Convention
ICHRANGE	IQUANT	2	Ich Range
ICHRANGEMODE	TOGGLE	F	Ich Auto Range
ICHOFFSETENABLE	TOGGLE	T	Ich Offset Enable
ICHOFFSET	QUANT	0	Ich Offset (V)
ICHFILTER	IQUANT	3	Ich Filter
VCHRANGE	IQUANT	2	Vch Range
VCHRANGEMODE	TOGGLE	F	Vch Auto Range
VCHOFFSETENABLE	TOGGLE	T	Vch Offset Enable
VCHOFFSET	QUANT	0	Vch Offset (V)
VCHFILTER	IQUANT	3	Vch Filter
ACHRANGE	IQUANT	2	Ach Range
ACHOFFSETENABLE	TOGGLE	F	Ach Offset Enable
ACHOFFSET	QUANT	0	Ach Offset (V)
ACHFILTER	IQUANT	3	Ach Filter
IERANGELOWERLIMIT	IQUANT	2	I/E Range Lower Limit
IERANGEMODE	TOGGLE	F	I/E AutoRange
IERANGE	IQUANT	11	I/E Range
POSFEEDENABLE	TOGGLE	F	Positive Feedback IR Comp
POSFEEDRESISTANCE	QUANT	0	Positive Feedback Resistance (ohm)
ACHSELECT	IQUANT	0	Ach Select
CABLEID	IQUANT	13	Cable ID
DCCALDATE	LABEL	7/31/2020	DC Calibration Date
ACCALDATE	LABEL	7/31/2020	AC Calibration Date
THERMOSELECT	IQUANT	1	Thermo Select
FRAMEWORKVERSION	QUANT	6.33	Framework Version
INSTRUMENTVERSION	LABEL	3.50	Instrument Version
COMPLIANCEVOLTAGE	IQUANT	0	Compliance Voltage
ZCURVE	TABLE
	Pt	Time	Freq	Zreal	Zimag	Zsig	Zmod	Zphz	Idc	Vdc	IERange
	#	s	Hz	ohm	ohm	V	ohm	°	A	V	#
	0	24	300046.9	760.1592	-168.3652	1	778.5814	-12.48865	-2.191649E-005	0.0013576	9
	1	40	238359.4	784.3626	-143.5751	1	797.3948	-10.37297	2.786988E-005	-0.0019531	9
	2	56	189328.1	806.0673	-122.1672	1	815.2725	-8.618138	1.963849E-005	-0.0004015	9
	3	65	150421.9	815.9469	-101.8025	1	822.2731	-7.11182	3.953435E-007	-0.0017907	9
	4	74	119484.4	829.4656	-56.40597	1	831.3813	-3.890283	-6.547877E-006	0.0106887	8
	5	81	94921.88	837.4961	-46.06803	1	838.7621	-3.148488	-2.295861E-006	-0.0029914	8
	6	83	75421.88	839.8128	-36.0395	1	840.5858	-2.457268	-1.845934E-005	0.0059135	8
	7	86	59859.37	840.3862	-30.69715	1	840.9467	-2.091937	1.76763E-005	-0.0026207	8
	8	89	47578.12	840.9414	-23.85031	1	841.2795	-1.624555	1.909059E-005	-0.0053807	8
	9	91	37828.12	844.0627	-20.43308	1	844.3101	-1.386746	1.442249E-005	-0.0063498	8
	10	94	30046.88	850.2664	-16.97146	1	850.4358	-1.143481	-1.281972E-005	0.0013927	8
	11	97	23859.38	851.5378	-15.1819	1	851.6731	-1.021407	7.831528E-007	0.0050413	8
	12	100	18984.38	854.3793	-12.84675	1	854.4759	-0.8614545	1.458264E-005	-0.0065282	8
	13	103	15046.87	854.8353	-8.836182	1	854.8809	-0.5922286	1.927185E-005	-0.004181	8
	14	105	11953.13	858.5974	-7.461225	1	858.6298	-0.4978887	-2.500059E-006	-0.0029976	8
	15	108	9515.62	858.782	-7.683176	1	858.8164	-0.5125885	-1.230303E-005	0.0078348	8
	16	111	7546.875	863.4307	-6.594726	1	863.4559	-0.4376062	-1.749399E-005	0.0069835	8
	17	114	5928.309	863.687	-5.914214	1	863.7073	-0.3923345	-1.783605E-005	0.0045549	8
	18	117	4733.456	867.4325	-7.180623	1	867.4622	-0.4742847	1.935864E-005	-0.0041499	8
	19	119	3796.875	866.7706	-7.147109	1	866.8	-0.4724317	1.795798E-005	-0.0064245	8
	20	122	2987.132	867.6186	-5.270908	1	867.6346	-0.3480759	4.102855E-006	-0.0048832	8
	21	125	2390.625	871.7295	-6.846191	1	871.7563	-0.4499674	-1.813993E-006	-0.003145	8
	22	128	1884.191	875.0937	-10.81277	1	875.1605	-0.7079181	1.458472E-005	-0.0065475	8
	23	130	1516.544	878.8171	-9.69387	1	878.8706	-0.6319804	4.060244E-006	-0.0048753	8
	24	133	1193.986	878.8383	-10.97219	1	878.9067	-0.7152935	-1.64573E-005	0.0079889	8
	25	136	946.5144	881.6633	-13.74836	1	881.7704	-0.8933784	-2.406391E-006	-0.003075	8
	26	139	751.7689	878.7502	-11.76397	1	878.8289	-0.766982	-2.811825E-006	-0.0027628	8
	27	142	597.4265	886.3586	-19.51266	1	886.5734	-1.261129	1.065837E-005	-0.0062726	8
	28	144	477.4305	887.0671	-23.12548	1	887.3685	-1.49334	-1.849102E-007	0.0006309	8
	29	146	376.6741	889.4952	-28.45066	1	889.9501	-1.831991	-2.122086E-007	0.0006317	8
	30	149	298.2954	892.0012	-35.04342	1	892.6893	-2.249782	-1.800844E-007	0.0006302	8
	31	151	237.7717	894.7529	-43.03312	1	895.7872	-2.753517	-2.172107E-007	0.0006336	8
	32	154	189.0121	897.7587	-53.04405	1	899.3243	-3.381389	-2.248645E-007	0.0006514	8
	33	156	150.2404	901.071	-65.39957	1	903.4412	-4.151238	-1.898119E-007	0.0006356	8
	34	158	119.1737	904.8091	-80.80565	1	908.4102	-5.103367	-2.153439E-007	0.0006447	8
	35	161	95.0169	909.0101	-99.4645	1	914.4357	-6.244498	-1.730679E-007	0.0006321	8
	36	163	75.60484	913.9557	-122.6377	1	922.147	-7.642493	-1.77757E-007	0.0006234	8
	37	166	54.50582	921.706	-165.5554	1	936.4564	-10.1828	-1.779151E-007	0.0006172	8
	38	168	45.95588	927.4102	-193.5668	1	947.3952	-11.78939	-1.712106E-007	0.0006276	8
	39	171	37.20238	935.0285	-235.0109	1	964.11	-14.10853	-2.515416E-007	0.0006395	8
	40	173	30.04808	944.4294	-285.6729	1	986.689	-16.82962	-1.847471E-007	0.0006315	8
	41	176	23.91582	956.288	-351.7373	1	1018.924	-20.1943	-1.879511E-007	0.0006231	8
	42	178	18.60119	972.542	-442.054	1	1068.293	-24.44344	-2.197763E-007	0.0006313	8
	43	180	15.02404	989.93	-536.5983	1	1126.01	-28.4602	-3.362507E-007	0.0006453	8
	44	183	12.01923	1011.204	-656.2728	1	1205.499	-32.98362	-2.174582E-007	0.0006375	8
	45	185	9.450605	1040.889	-814.3569	1	1321.6	-38.03844	-2.809135E-007	0.0006474	8
	46	188	7.512019	1075.584	-1000.657	1	1469.08	-42.9332	-2.286815E-007	0.0006392	8
	47	190	5.978954	1118.058	-1227.215	1	1660.154	-47.66483	-2.57912E-007	0.000646	8
	48	193	4.734848	1172.87	-1513.103	1	1914.446	-52.21924	-1.88746E-007	0.0006649	8
	49	197	3.75601	1241.646	-1857.754	1	2234.488	-56.24286	-2.194075E-007	0.000622	8
	50	200	3.004808	1323.777	-2263.747	1	2622.391	-59.68207	-2.127514E-007	0.0006617	8
	51	204	2.372217	1433.632	-2792.67	1	3139.157	-62.82607	-1.989967E-007	0.0007019	8
	52	208	1.878005	1567.401	-3428.659	1	3769.941	-65.43263	-2.063157E-007	0.0006111	8
	53	213	1.512097	1728.166	-4149.366	1	4494.864	-67.38879	-3.268744E-008	0.0007057	7
	54	218	1.201923	1921.026	-5080.353	1	5431.42	-69.28696	-3.539412E-008	0.0005862	7
	55	224	0.956633	2152.173	-6201.943	1	6564.75	-70.86242	-5.789594E-008	-2.900392E-005	7
