EXPLAIN
TAG	EISPOT
TITLE	LABEL	Potentiostatic EIS	Test Identifier
DATE	LABEL	9/21/2020	Date
TIME	LABEL	23:43:27	Time
NOTES	NOTES	1	Notes...
	
PSTAT	PSTAT	REF3000-16137	Potentiostat
VDC	POTEN	0.00000E+000	T	DC Voltage (V)
FREQINIT	QUANT	3.00000E+005	Initial Freq. (Hz)
FREQFINAL	QUANT	1.00000E+000	Final Freq. (Hz)
PTSPERDEC	QUANT	1.00000E+001	Points/decade
VAC	QUANT	5.00000E+001	AC Voltage (mV rms)
AREA	QUANT	1.00000E+000	Sample Area (cm^2)
SPEED	SELECTOR	2	Optimize for:
ZGUESS	QUANT	1.00000E+003	Estimated Z (ohms)
EOC	QUANT	0	Open Circuit (V)
SEQUENCER	TOGGLE	TRUE	Run as Sequence
PSTATMODEL	IQUANT	5	Pstat Model
PSTATSECTION	LABEL	REF3000-16137	Pstat Section
PSTATSERIALNO	LABEL	16137	Pstat Serial Number
CTRLMODE	IQUANT	1	Control Mode
IESTAB	IQUANT	0	I/E Stability
CASPEED	IQUANT	1	Control Amp Speed
CONVENTION	IQUANT	1	Current Convention
ICHRANGE	IQUANT	2	Ich Range
ICHRANGEMODE	TOGGLE	F	Ich Auto Range
ICHOFFSETENABLE	TOGGLE	T	Ich Offset Enable
ICHOFFSET	QUANT	0	Ich Offset (V)
ICHFILTER	IQUANT	3	Ich Filter
VCHRANGE	IQUANT	2	Vch Range
VCHRANGEMODE	TOGGLE	F	Vch Auto Range
VCHOFFSETENABLE	TOGGLE	T	Vch Offset Enable
VCHOFFSET	QUANT	0	Vch Offset (V)
VCHFILTER	IQUANT	3	Vch Filter
ACHRANGE	IQUANT	2	Ach Range
ACHOFFSETENABLE	TOGGLE	F	Ach Offset Enable
ACHOFFSET	QUANT	0	Ach Offset (V)
ACHFILTER	IQUANT	3	Ach Filter
IERANGELOWERLIMIT	IQUANT	2	I/E Range Lower Limit
IERANGEMODE	TOGGLE	F	I/E AutoRange
IERANGE	IQUANT	11	I/E Range
POSFEEDENABLE	TOGGLE	F	Positive Feedback IR Comp
POSFEEDRESISTANCE	QUANT	0	Positive Feedback Resistance (ohm)
ACHSELECT	IQUANT	0	Ach Select
CABLEID	IQUANT	13	Cable ID
DCCALDATE	LABEL	7/31/2020	DC Calibration Date
ACCALDATE	LABEL	7/31/2020	AC Calibration Date
THERMOSELECT	IQUANT	1	Thermo Select
FRAMEWORKVERSION	QUANT	6.33	Framework Version
INSTRUMENTVERSION	LABEL	3.50	Instrument Version
COMPLIANCEVOLTAGE	IQUANT	0	Compliance Voltage
ZCURVE	TABLE
	Pt	Time	Freq	Zreal	Zimag	Zsig	Zmod	Zphz	Idc	Vdc	IERange
	#	s	Hz	ohm	ohm	V	ohm	°	A	V	#
	0	9	300046.9	6.917215	2.238008	1	7.270251	17.92856	-0.0000985	0.0002407	10
	1	12	238359.4	6.89877	1.767204	1	7.12152	14.36805	-2.77904E-005	-6.757176E-005	10
	2	16	189328.1	6.877536	1.394122	1	7.017413	11.45897	-6.809846E-006	0.0003061	10
	3	18	150421.9	6.861659	1.095554	1	6.948568	9.071458	1.026726E-005	0.0003871	10
	4	21	119484.4	6.862713	0.8427548	1	6.914265	7.000984	1.067288E-005	0.0006035	10
	5	23	94921.88	6.864083	0.6611563	1	6.895852	5.501822	-4.024098E-007	0.0005233	10
	6	26	75421.88	6.862106	0.4833091	1	6.879106	4.02878	6.746242E-006	0.0005888	10
	7	28	59859.37	6.863649	0.328616	1	6.871511	2.741099	2.012053E-005	0.0006011	10
	8	31	47578.12	6.868442	0.1942994	1	6.871189	1.620392	1.898112E-005	0.0005829	10
	9	33	37828.12	6.876083	0.0749992	1	6.876492	0.6249147	-9.599752E-006	0.0006245	10
	10	36	30046.88	6.886068	-0.0385006	1	6.886176	-0.3203419	1.963927E-005	0.0006107	10
	11	38	23859.38	6.895895	-0.1509903	1	6.897548	-1.25433	7.813303E-006	0.0006621	10
	12	41	18984.38	6.906373	-0.2686203	1	6.911595	-2.227371	1.696647E-005	0.0006281	10
	13	43	15046.87	6.919616	-0.3995513	1	6.931141	-3.304694	1.204578E-005	0.0006286	10
	14	45	11953.13	6.93618	-0.5480537	1	6.957798	-4.51777	1.539002E-005	0.0006676	10
	15	48	9515.62	6.956028	-0.7176953	1	6.992954	-5.890707	-2.825175E-005	0.0006522	10
	16	50	7546.875	6.980769	-0.9231075	1	7.041538	-7.532849	-2.336386E-005	0.0007327	10
	17	52	5928.309	7.010668	-1.184367	1	7.110007	-9.58889	2.06029E-005	0.0006252	10
	18	54	4733.456	7.047259	-1.481009	1	7.201198	-11.86822	-1.838226E-005	0.0006605	10
	19	57	3796.875	7.089447	-1.835325	1	7.32316	-14.51416	8.096851E-006	0.0006092	10
	20	59	2987.132	7.148646	-2.307372	1	7.511798	-17.88855	-2.025085E-005	0.000659	10
	21	61	2390.625	7.218516	-2.848819	1	7.760331	-21.53689	-1.287802E-005	0.0007069	10
	22	64	1884.191	7.31181	-3.561778	1	8.133192	-25.97195	-2.78315E-005	0.0006718	10
	23	66	1516.544	7.419249	-4.361165	1	8.606103	-30.44776	1.736717E-005	0.0006495	10
	24	68	1193.986	7.569278	-5.444015	1	9.323694	-35.72464	2.036654E-005	0.0006486	10
	25	71	946.5144	7.763712	-6.742933	1	10.28311	-40.97494	3.640858E-006	0.0006209	10
	26	73	751.7689	7.996175	-8.345305	1	11.55781	-46.22392	-2.765312E-005	0.0006894	10
	27	75	597.4265	8.301872	-10.29856	1	13.22806	-51.12704	1.837631E-005	0.0006327	10
	28	78	477.4305	8.68203	-12.63719	1	15.3322	-55.51008	-3.712558E-006	0.0006666	10
	29	80	376.6741	9.197259	-15.67044	1	18.17009	-59.59057	-3.301147E-006	0.0006605	10
	30	82	298.2954	9.8426	-19.34022	1	21.70071	-63.02761	-3.794236E-006	0.0006633	10
	31	85	237.7717	10.62766	-23.69976	1	25.97356	-65.84715	-3.654802E-006	0.000665	10
	32	87	189.0121	11.60961	-29.08485	1	31.31631	-68.23993	-3.281793E-006	0.0006665	10
	33	90	150.2404	12.80729	-35.66287	1	37.89283	-70.24572	-4.058297E-006	0.0006682	10
	34	92	119.1737	14.25604	-43.74643	1	46.0107	-71.9503	6.22565E-007	6.738809E-005	9
	35	94	95.0169	15.98987	-53.48511	1	55.82412	-73.35548	6.701877E-007	6.53709E-005	9
	36	97	75.60484	18.11525	-65.53841	1	67.99593	-74.54884	6.472958E-007	6.760308E-005	9
	37	99	54.50582	22.02577	-87.76496	1	90.48659	-75.91183	6.092838E-007	6.334551E-005	9
	38	102	45.95588	24.61073	-102.2538	1	105.1738	-76.46727	6.06589E-007	6.856396E-005	9
	39	104	37.20238	28.47641	-123.5736	1	126.8123	-77.02325	6.565491E-007	6.980026E-005	9
	40	107	30.04808	33.3998	-149.7236	1	153.4038	-77.42457	6.782917E-007	5.731681E-005	9
	41	109	23.91582	40.16701	-183.8608	1	188.1972	-77.67654	3.723144E-007	0.0000978	9
	42	111	18.60119	49.86091	-230.245	1	235.582	-77.78094	6.149501E-007	6.252505E-005	9
	43	114	15.02404	60.85827	-278.5687	1	285.139	-77.67635	8.280846E-007	8.089708E-005	9
	44	116	12.01923	75.85386	-339.8506	1	348.2129	-77.41795	5.248389E-007	5.244709E-005	9
	45	119	9.450605	97.4358	-419.9622	1	431.1172	-76.93786	8.437659E-007	7.607026E-005	9
	46	121	7.512019	124.396	-511.107	1	526.0273	-76.32101	3.382798E-008	0.000644	8
	47	124	5.978954	160.3463	-621.4466	1	641.7997	-75.53204	1.396716E-008	0.0006685	8
	48	127	4.734848	209.0911	-757.1761	1	785.5156	-74.56273	2.21641E-007	0.0006611	8
	49	130	3.75601	273.4958	-916.8422	1	956.765	-73.39006	3.071893E-008	0.0006294	8
	50	133	3.004808	353.8787	-1096.794	1	1152.47	-72.11778	1.346021E-007	0.0006282	8
	51	137	2.372217	465.6776	-1318.27	1	1398.103	-70.54428	1.159929E-007	0.0006675	8
	52	141	1.878005	608.6821	-1577.7	1	1691.044	-68.90321	3.528272E-008	0.0006289	8
	53	146	1.512097	772.962	-1848.022	1	2003.161	-67.30217	9.930831E-008	0.0005908	8
	54	152	1.201923	1001.839	-2175.77	1	2395.34	-65.27615	7.02786E-008	0.0006195	8
	55	158	0.956633	1285.939	-2536.557	1	2843.899	-63.1167	9.236561E-009	-1.08691E-007	8
