EXPLAIN
TAG	EISPOT
TITLE	LABEL	Potentiostatic EIS	Test Identifier
DATE	LABEL	9/22/2020	Date
TIME	LABEL	0:11:06	Time
NOTES	NOTES	1	Notes...
	
PSTAT	PSTAT	REF3000-16137	Potentiostat
VDC	POTEN	0.00000E+000	T	DC Voltage (V)
FREQINIT	QUANT	3.00000E+005	Initial Freq. (Hz)
FREQFINAL	QUANT	1.00000E+000	Final Freq. (Hz)
PTSPERDEC	QUANT	1.00000E+001	Points/decade
VAC	QUANT	5.00000E+001	AC Voltage (mV rms)
AREA	QUANT	1.00000E+000	Sample Area (cm^2)
SPEED	SELECTOR	2	Optimize for:
ZGUESS	QUANT	1.00000E+003	Estimated Z (ohms)
EOC	QUANT	0	Open Circuit (V)
SEQUENCER	TOGGLE	TRUE	Run as Sequence
PSTATMODEL	IQUANT	5	Pstat Model
PSTATSECTION	LABEL	REF3000-16137	Pstat Section
PSTATSERIALNO	LABEL	16137	Pstat Serial Number
CTRLMODE	IQUANT	1	Control Mode
IESTAB	IQUANT	0	I/E Stability
CASPEED	IQUANT	1	Control Amp Speed
CONVENTION	IQUANT	1	Current Convention
ICHRANGE	IQUANT	2	Ich Range
ICHRANGEMODE	TOGGLE	F	Ich Auto Range
ICHOFFSETENABLE	TOGGLE	T	Ich Offset Enable
ICHOFFSET	QUANT	0	Ich Offset (V)
ICHFILTER	IQUANT	3	Ich Filter
VCHRANGE	IQUANT	2	Vch Range
VCHRANGEMODE	TOGGLE	F	Vch Auto Range
VCHOFFSETENABLE	TOGGLE	T	Vch Offset Enable
VCHOFFSET	QUANT	0	Vch Offset (V)
VCHFILTER	IQUANT	3	Vch Filter
ACHRANGE	IQUANT	2	Ach Range
ACHOFFSETENABLE	TOGGLE	F	Ach Offset Enable
ACHOFFSET	QUANT	0	Ach Offset (V)
ACHFILTER	IQUANT	3	Ach Filter
IERANGELOWERLIMIT	IQUANT	2	I/E Range Lower Limit
IERANGEMODE	TOGGLE	F	I/E AutoRange
IERANGE	IQUANT	11	I/E Range
POSFEEDENABLE	TOGGLE	F	Positive Feedback IR Comp
POSFEEDRESISTANCE	QUANT	0	Positive Feedback Resistance (ohm)
ACHSELECT	IQUANT	0	Ach Select
CABLEID	IQUANT	13	Cable ID
DCCALDATE	LABEL	7/31/2020	DC Calibration Date
ACCALDATE	LABEL	7/31/2020	AC Calibration Date
THERMOSELECT	IQUANT	1	Thermo Select
FRAMEWORKVERSION	QUANT	6.33	Framework Version
INSTRUMENTVERSION	LABEL	3.50	Instrument Version
COMPLIANCEVOLTAGE	IQUANT	0	Compliance Voltage
ZCURVE	TABLE
	Pt	Time	Freq	Zreal	Zimag	Zsig	Zmod	Zphz	Idc	Vdc	IERange
	#	s	Hz	ohm	ohm	V	ohm	°	A	V	#
	0	8	300046.9	9.61299	2.169117	1	9.85468	12.71551	2.67876E-005	0.0000979	10
	1	12	238359.4	9.58651	1.735624	1	9.74236	10.26216	-9.983378E-006	2.774954E-005	10
	2	15	189328.1	9.56647	1.369296	1	9.66397	8.145702	-1.500384E-005	0.0003578	10
	3	17	150421.9	9.55799	1.07745	1	9.61853	6.431667	1.960559E-005	0.0004307	10
	4	20	119484.4	9.56234	0.8233233	1	9.59772	4.921065	6.115498E-006	0.0005176	10
	5	22	94921.88	9.56344	0.6462715	1	9.58525	3.866016	-1.548918E-005	0.0005933	10
	6	25	75421.88	9.56471	0.4667271	1	9.57609	2.793633	-1.863186E-005	0.0006543	10
	7	27	59859.37	9.56931	0.3106024	1	9.57435	1.859063	3.074577E-006	0.0005886	10
	8	30	47578.12	9.57984	0.1772667	1	9.58148	1.060088	2.148674E-005	0.0006016	10
	9	32	37828.12	9.58983	0.0587342	1	9.59001	0.3509113	2.616679E-005	0.0006219	10
	10	35	30046.88	9.60253	-0.0555285	1	9.60269	-0.3313203	-2.575946E-005	0.0006949	10
	11	37	23859.38	9.61378	-0.1727328	1	9.61533	-1.029335	-1.903616E-005	0.0006266	10
	12	40	18984.38	9.6279	-0.2922375	1	9.63234	-1.738576	-5.577872E-006	0.0006149	10
	13	42	15046.87	9.64484	-0.4271614	1	9.6543	-2.535921	2.13715E-005	0.0006284	10
	14	44	11953.13	9.66355	-0.5799353	1	9.68093	-3.434355	1.667967E-005	0.0006018	10
	15	47	9515.62	9.68546	-0.7576984	1	9.71506	-4.473165	-1.922912E-005	0.0006628	10
	16	49	7546.875	9.71303	-0.972584	1	9.76161	-5.718071	4.510356E-006	0.0006075	10
	17	51	5928.309	9.7463	-1.244999	1	9.8255	-7.279574	1.322293E-005	0.0006555	10
	18	54	4733.456	9.78563	-1.554086	1	9.90827	-9.023952	2.08637E-005	0.000634	10
	19	56	3796.875	9.83437	-1.922397	1	10.0205	-11.06056	-1.724729E-005	0.0006767	10
	20	58	2987.132	9.89667	-2.417939	1	10.18777	-13.72945	-1.8705E-005	0.000655	10
	21	61	2390.625	9.96949	-2.98437	1	10.4066	-16.66508	-2.571456E-005	0.0007087	10
	22	63	1884.191	10.06546	-3.732223	1	10.73513	-20.34452	-4.646788E-006	0.0006234	10
	23	65	1516.544	10.17568	-4.570314	1	11.15492	-24.1868	1.655848E-005	0.0006076	10
	24	67	1193.986	10.33171	-5.708173	1	11.80371	-28.92023	1.117968E-005	0.0005982	10
	25	70	946.5144	10.52095	-7.084244	1	12.68373	-33.95421	-1.893941E-005	0.0006403	10
	26	72	751.7689	10.76298	-8.758377	1	13.87627	-39.13699	2.220742E-005	0.0006277	10
	27	75	597.4265	11.06423	-10.81997	1	15.47543	-44.36051	5.165685E-006	0.0006601	10
	28	77	477.4305	11.44872	-13.28702	1	17.53904	-49.25027	-2.784699E-006	0.0006696	10
	29	79	376.6741	11.96362	-16.49928	1	20.38025	-54.05416	-3.035586E-006	0.0006606	10
	30	82	298.2954	12.61485	-20.39957	1	23.98493	-58.26786	-3.067732E-006	0.0006593	10
	31	84	237.7717	13.42228	-25.04461	1	28.41461	-61.81159	-2.78201E-006	0.0006622	10
	32	86	189.0121	14.44737	-30.78042	1	34.00237	-64.8561	-2.823721E-006	0.0006576	10
	33	89	150.2404	15.72114	-37.78774	1	40.92759	-67.41084	-3.043997E-006	0.0006575	10
	34	91	119.1737	17.28014	-46.37856	1	49.49318	-69.56516	1.027222E-006	6.340393E-005	9
	35	93	95.0169	19.15378	-56.69896	1	59.84679	-71.33424	9.235758E-007	6.734062E-005	9
	36	96	75.60484	21.43756	-69.43102	1	72.66522	-72.84138	8.380575E-007	5.997827E-005	9
	37	99	54.50582	25.56985	-92.8514	1	96.3078	-74.60326	7.721636E-007	6.505458E-005	9
	38	101	45.95588	28.24726	-108.0958	1	111.7256	-75.35513	9.724217E-007	6.664229E-005	9
	39	103	37.20238	32.17725	-130.5268	1	134.4344	-76.15166	8.947127E-007	6.088458E-005	9
	40	106	30.04808	37.0889	-158.0789	1	162.3715	-76.79594	8.57379E-007	5.78963E-005	9
	41	108	23.91582	43.62489	-193.9297	1	198.7759	-77.32223	8.193093E-007	5.974399E-005	9
	42	111	18.60119	53.00273	-243.104	1	248.8149	-77.70056	1.065304E-006	5.346261E-005	9
	43	113	15.02404	63.31671	-294.6111	1	301.3382	-77.87071	7.935016E-007	5.231718E-005	9
	44	115	12.01923	77.17532	-359.7136	1	367.8993	-77.89095	9.810252E-007	6.292859E-005	9
	45	118	9.450605	96.6581	-443.8861	1	454.2881	-77.71538	2.284368E-007	0.0006325	8
	46	120	7.512019	121.5243	-544.2016	1	557.6052	-77.41195	2.887946E-007	0.0006246	8
	47	123	5.978954	154.5583	-664.8376	1	682.5667	-76.91261	2.92416E-007	0.0006389	8
	48	126	4.734848	199.688	-813.7781	1	837.9202	-76.21295	2.634972E-007	0.0006115	8
	49	129	3.75601	258.6938	-992.006	1	1025.182	-75.38401	3.898574E-007	0.0006628	8
	50	133	3.004808	333.1818	-1195.834	1	1241.382	-74.43117	3.373657E-007	0.000637	8
	51	136	2.372217	437.9522	-1450.668	1	1515.335	-73.2011	3.208069E-007	0.0006126	8
	52	140	1.878005	573.6836	-1753.344	1	1844.811	-71.88222	3.846087E-007	0.0006179	8
	53	145	1.512097	732.0566	-2077.498	1	2202.704	-70.58886	3.412369E-007	0.0007313	8
	54	151	1.201923	950.59	-2475.035	1	2651.305	-68.98965	3.796162E-007	0.0006377	8
	55	157	0.956633	1222.99	-2929.559	1	3174.589	-67.34115	2.42132E-007	-1.617401E-006	8
