EXPLAIN
TAG	EISPOT
TITLE	LABEL	Potentiostatic EIS	Test Identifier
DATE	LABEL	9/21/2020	Date
TIME	LABEL	23:29:28	Time
NOTES	NOTES	1	Notes...
	
PSTAT	PSTAT	REF3000-16137	Potentiostat
VDC	POTEN	0.00000E+000	T	DC Voltage (V)
FREQINIT	QUANT	3.00000E+005	Initial Freq. (Hz)
FREQFINAL	QUANT	1.00000E+000	Final Freq. (Hz)
PTSPERDEC	QUANT	1.00000E+001	Points/decade
VAC	QUANT	5.00000E+001	AC Voltage (mV rms)
AREA	QUANT	1.00000E+000	Sample Area (cm^2)
SPEED	SELECTOR	2	Optimize for:
ZGUESS	QUANT	1.00000E+003	Estimated Z (ohms)
EOC	QUANT	0	Open Circuit (V)
SEQUENCER	TOGGLE	TRUE	Run as Sequence
PSTATMODEL	IQUANT	5	Pstat Model
PSTATSECTION	LABEL	REF3000-16137	Pstat Section
PSTATSERIALNO	LABEL	16137	Pstat Serial Number
CTRLMODE	IQUANT	1	Control Mode
IESTAB	IQUANT	0	I/E Stability
CASPEED	IQUANT	1	Control Amp Speed
CONVENTION	IQUANT	1	Current Convention
ICHRANGE	IQUANT	2	Ich Range
ICHRANGEMODE	TOGGLE	F	Ich Auto Range
ICHOFFSETENABLE	TOGGLE	T	Ich Offset Enable
ICHOFFSET	QUANT	0	Ich Offset (V)
ICHFILTER	IQUANT	3	Ich Filter
VCHRANGE	IQUANT	2	Vch Range
VCHRANGEMODE	TOGGLE	F	Vch Auto Range
VCHOFFSETENABLE	TOGGLE	T	Vch Offset Enable
VCHOFFSET	QUANT	0	Vch Offset (V)
VCHFILTER	IQUANT	3	Vch Filter
ACHRANGE	IQUANT	2	Ach Range
ACHOFFSETENABLE	TOGGLE	F	Ach Offset Enable
ACHOFFSET	QUANT	0	Ach Offset (V)
ACHFILTER	IQUANT	3	Ach Filter
IERANGELOWERLIMIT	IQUANT	2	I/E Range Lower Limit
IERANGEMODE	TOGGLE	F	I/E AutoRange
IERANGE	IQUANT	11	I/E Range
POSFEEDENABLE	TOGGLE	F	Positive Feedback IR Comp
POSFEEDRESISTANCE	QUANT	0	Positive Feedback Resistance (ohm)
ACHSELECT	IQUANT	0	Ach Select
CABLEID	IQUANT	13	Cable ID
DCCALDATE	LABEL	7/31/2020	DC Calibration Date
ACCALDATE	LABEL	7/31/2020	AC Calibration Date
THERMOSELECT	IQUANT	1	Thermo Select
FRAMEWORKVERSION	QUANT	6.33	Framework Version
INSTRUMENTVERSION	LABEL	3.50	Instrument Version
COMPLIANCEVOLTAGE	IQUANT	0	Compliance Voltage
ZCURVE	TABLE
	Pt	Time	Freq	Zreal	Zimag	Zsig	Zmod	Zphz	Idc	Vdc	IERange
	#	s	Hz	ohm	ohm	V	ohm	°	A	V	#
	0	11	300046.9	6.020986	2.246556	1	6.426452	20.4616	-5.210997E-006	7.816753E-005	10
	1	14	238359.4	5.982652	1.772003	1	6.239561	16.49878	1.737586E-005	-0.0001002	10
	2	17	189328.1	5.958069	1.398227	1	6.119937	13.20706	5.96027E-005	-4.603438E-005	10
	3	19	150421.9	5.947677	1.104987	1	6.049451	10.52468	6.213778E-005	0.0001581	10
	4	22	119484.4	5.943289	0.8486563	1	6.003574	8.126466	-2.506864E-005	0.0004479	10
	5	24	94921.88	5.944603	0.6650697	1	5.981691	6.383585	2.275625E-005	0.0004877	10
	6	27	75421.88	5.942616	0.4883675	1	5.962649	4.698042	1.849139E-005	0.0005635	10
	7	30	59859.37	5.943593	0.3346908	1	5.953009	3.22299	-1.680815E-006	0.000561	10
	8	32	47578.12	5.946908	0.2020708	1	5.95034	1.946112	-1.863885E-005	0.0006128	10
	9	35	37828.12	5.953746	0.0822839	1	5.954315	0.7918074	1.178253E-005	0.0005803	10
	10	37	30046.88	5.962077	-0.03017	1	5.962153	-0.2899319	-9.695773E-006	0.000634	10
	11	40	23859.38	5.971541	-0.1419468	1	5.973228	-1.361695	-2.312484E-005	0.0007299	10
	12	42	18984.38	5.981538	-0.2578447	1	5.987093	-2.468307	7.075111E-006	0.0006683	10
	13	44	15046.87	5.994314	-0.3866808	1	6.006773	-3.690918	-1.47309E-005	0.0007127	10
	14	47	11953.13	6.008096	-0.5310745	1	6.031522	-5.051425	1.127084E-005	0.000636	10
	15	49	9515.62	6.027161	-0.6987637	1	6.067531	-6.613109	-3.145227E-005	0.0006563	10
	16	51	7546.875	6.05038	-0.9005383	1	6.117031	-8.465753	1.586265E-005	0.0006628	10
	17	53	5928.309	6.079665	-1.155365	1	6.188472	-10.76004	-5.55824E-006	0.0006316	10
	18	56	4733.456	6.114859	-1.445862	1	6.283471	-13.30329	-2.420285E-005	0.0007186	10
	19	58	3796.875	6.15718	-1.790268	1	6.41217	-16.21237	-1.545358E-005	0.0006765	10
	20	60	2987.132	6.214666	-2.253069	1	6.610476	-19.92764	-6.933147E-006	0.0006314	10
	21	63	2390.625	6.281604	-2.780997	1	6.869679	-23.87997	1.618683E-005	0.0006327	10
	22	65	1884.191	6.375057	-3.477539	1	7.261861	-28.61209	1.60525E-005	0.0006208	10
	23	67	1516.544	6.481989	-4.256753	1	7.754749	-33.2931	-2.476457E-005	0.0006778	10
	24	70	1193.986	6.63232	-5.312043	1	8.49738	-38.69238	2.256895E-006	0.0006238	10
	25	72	946.5144	6.821454	-6.577404	1	9.475995	-43.95652	1.082862E-005	0.0006191	10
	26	74	751.7689	7.060191	-8.13523	1	10.77164	-49.04679	-1.198598E-005	0.0006522	10
	27	77	597.4265	7.360049	-10.0419	1	12.45031	-53.76106	-1.571777E-005	0.0006888	10
	28	79	477.4305	7.741863	-12.31002	1	14.54211	-57.8339	-3.895702E-006	0.0006725	10
	29	81	376.6741	8.252887	-15.25179	1	17.34149	-61.58177	-3.429604E-006	0.000665	10
	30	84	298.2954	8.888478	-18.80691	1	20.80156	-64.70375	-3.276891E-006	0.0006679	10
	31	86	237.7717	9.65425	-23.02949	1	24.97122	-67.25596	-3.264784E-006	0.0006614	10
	32	89	189.0121	10.60486	-28.24813	1	30.17317	-69.42297	-3.144387E-006	0.0006646	10
	33	91	150.2404	11.75639	-34.62936	1	36.57055	-71.24805	-3.935452E-006	0.0006637	10
	34	93	119.1737	13.15094	-42.48333	1	44.47224	-72.79981	4.79023E-007	6.404854E-005	9
	35	96	95.0169	14.82141	-51.9582	1	54.03081	-74.07887	4.702056E-007	6.479606E-005	9
	36	98	75.60484	16.88075	-63.69704	1	65.89592	-75.15691	4.533983E-007	6.402501E-005	9
	37	101	54.50582	20.71574	-85.35571	1	87.83358	-76.35814	3.474892E-007	5.396119E-005	9
	38	103	45.95588	23.27184	-99.4754	1	102.1613	-76.8327	6.144015E-007	5.904857E-005	9
	39	106	37.20238	27.15092	-120.2591	1	123.2859	-77.27762	4.454332E-007	6.566957E-005	9
	40	108	30.04808	32.11536	-145.733	1	149.2297	-77.5723	3.501932E-007	6.388581E-005	9
	41	110	23.91582	38.89851	-178.7455	1	182.9291	-77.72275	2.59354E-007	7.094687E-005	9
	42	113	18.60119	48.92867	-223.8986	1	229.1824	-77.67291	9.780541E-008	0.0001064	9
	43	115	15.02404	60.1297	-270.7652	1	277.3615	-77.47933	3.999943E-007	6.315012E-005	9
	44	117	12.01923	75.62303	-329.8292	1	338.3875	-77.08646	4.52944E-007	6.883997E-005	9
	45	120	9.450605	97.9483	-407.0934	1	418.711	-76.47155	5.723042E-007	7.770075E-005	9
	46	122	7.512019	125.7049	-494.1358	1	509.8744	-75.72709	1.055532E-008	0.0006679	8
	47	125	5.978954	163.0757	-599.6599	1	621.4384	-74.7865	-4.740338E-008	0.0006508	8
	48	128	4.734848	213.3232	-728.2486	1	758.8497	-73.6733	7.728168E-008	0.0006689	8
	49	131	3.75601	279.1612	-878.6369	1	921.9185	-72.37387	-1.594567E-007	0.0006591	8
	50	135	3.004808	361.2104	-1047.466	1	1107.998	-70.97366	-4.647333E-008	0.0006351	8
	51	138	2.372217	473.3995	-1254.021	1	1340.401	-69.31821	-8.571075E-008	0.0006314	8
	52	143	1.878005	619.2224	-1491.709	1	1615.126	-67.4562	-1.18375E-007	0.0006443	8
	53	147	1.512097	786.7888	-1739.906	1	1909.531	-65.66743	-5.306186E-008	0.0005408	8
	54	153	1.201923	1013.136	-2032.951	1	2271.417	-63.51029	-1.138402E-007	0.000649	8
	55	159	0.956633	1291.565	-2350.844	1	2682.277	-61.2154	-1.663466E-007	7.293454E-006	8
