EXPLAIN
TAG	EISPOT
TITLE	LABEL	Potentiostatic EIS	Test Identifier
DATE	LABEL	9/21/2020	Date
TIME	LABEL	23:57:17	Time
NOTES	NOTES	1	Notes...
	
PSTAT	PSTAT	REF3000-16137	Potentiostat
VDC	POTEN	0.00000E+000	T	DC Voltage (V)
FREQINIT	QUANT	3.00000E+005	Initial Freq. (Hz)
FREQFINAL	QUANT	1.00000E+000	Final Freq. (Hz)
PTSPERDEC	QUANT	1.00000E+001	Points/decade
VAC	QUANT	5.00000E+001	AC Voltage (mV rms)
AREA	QUANT	1.00000E+000	Sample Area (cm^2)
SPEED	SELECTOR	2	Optimize for:
ZGUESS	QUANT	1.00000E+003	Estimated Z (ohms)
EOC	QUANT	0	Open Circuit (V)
SEQUENCER	TOGGLE	TRUE	Run as Sequence
PSTATMODEL	IQUANT	5	Pstat Model
PSTATSECTION	LABEL	REF3000-16137	Pstat Section
PSTATSERIALNO	LABEL	16137	Pstat Serial Number
CTRLMODE	IQUANT	1	Control Mode
IESTAB	IQUANT	0	I/E Stability
CASPEED	IQUANT	1	Control Amp Speed
CONVENTION	IQUANT	1	Current Convention
ICHRANGE	IQUANT	2	Ich Range
ICHRANGEMODE	TOGGLE	F	Ich Auto Range
ICHOFFSETENABLE	TOGGLE	T	Ich Offset Enable
ICHOFFSET	QUANT	0	Ich Offset (V)
ICHFILTER	IQUANT	3	Ich Filter
VCHRANGE	IQUANT	2	Vch Range
VCHRANGEMODE	TOGGLE	F	Vch Auto Range
VCHOFFSETENABLE	TOGGLE	T	Vch Offset Enable
VCHOFFSET	QUANT	0	Vch Offset (V)
VCHFILTER	IQUANT	3	Vch Filter
ACHRANGE	IQUANT	2	Ach Range
ACHOFFSETENABLE	TOGGLE	F	Ach Offset Enable
ACHOFFSET	QUANT	0	Ach Offset (V)
ACHFILTER	IQUANT	3	Ach Filter
IERANGELOWERLIMIT	IQUANT	2	I/E Range Lower Limit
IERANGEMODE	TOGGLE	F	I/E AutoRange
IERANGE	IQUANT	11	I/E Range
POSFEEDENABLE	TOGGLE	F	Positive Feedback IR Comp
POSFEEDRESISTANCE	QUANT	0	Positive Feedback Resistance (ohm)
ACHSELECT	IQUANT	0	Ach Select
CABLEID	IQUANT	13	Cable ID
DCCALDATE	LABEL	7/31/2020	DC Calibration Date
ACCALDATE	LABEL	7/31/2020	AC Calibration Date
THERMOSELECT	IQUANT	1	Thermo Select
FRAMEWORKVERSION	QUANT	6.33	Framework Version
INSTRUMENTVERSION	LABEL	3.50	Instrument Version
COMPLIANCEVOLTAGE	IQUANT	0	Compliance Voltage
ZCURVE	TABLE
	Pt	Time	Freq	Zreal	Zimag	Zsig	Zmod	Zphz	Idc	Vdc	IERange
	#	s	Hz	ohm	ohm	V	ohm	°	A	V	#
	0	8	300046.9	8.074715	2.217664	1	8.373712	15.35724	-1.949457E-005	8.328779E-005	10
	1	11	238359.4	8.063882	1.754543	1	8.252552	12.27512	-9.322237E-005	0.0001036	10
	2	15	189328.1	8.046019	1.38227	1	8.163889	9.748	3.129592E-005	0.0004396	10
	3	17	150421.9	8.04795	1.083562	1	8.120566	7.668095	-8.156601E-005	0.0005623	10
	4	20	119484.4	8.032733	0.8339091	1	8.075903	5.926866	7.282852E-005	0.0002811	10
	5	22	94921.88	8.035357	0.6564888	1	8.062129	4.670692	-1.940795E-005	0.0005484	10
	6	25	75421.88	8.034226	0.4760863	1	8.04832	3.391226	2.155748E-005	0.0005491	10
	7	27	59859.37	8.037784	0.3204029	1	8.044168	2.282722	1.679342E-005	0.0005682	10
	8	30	47578.12	8.044046	0.1869446	1	8.046219	1.331321	1.822711E-006	0.0005958	10
	9	32	37828.12	8.054422	0.0667893	1	8.054699	0.4751001	1.585125E-005	0.0006453	10
	10	35	30046.88	8.063994	-0.0469843	1	8.064132	-0.3338262	2.058605E-005	0.0006141	10
	11	37	23859.38	8.07529	-0.1608752	1	8.076892	-1.14129	2.211288E-005	0.0006491	10
	12	40	18984.38	8.08659	-0.2796354	1	8.091423	-1.980507	2.069114E-005	0.0006178	10
	13	42	15046.87	8.102361	-0.4127683	1	8.112868	-2.916367	2.22847E-005	0.0006398	10
	14	44	11953.13	8.118662	-0.5633352	1	8.138183	-3.96926	1.859365E-005	0.0006297	10
	15	47	9515.62	8.139747	-0.7364274	1	8.172992	-5.169647	1.926077E-005	0.0006303	10
	16	49	7546.875	8.166228	-0.947154	1	8.220972	-6.615849	-2.269756E-005	0.0007434	10
	17	51	5928.309	8.198426	-1.212977	1	8.287672	-8.415997	-2.639413E-005	0.0006737	10
	18	54	4733.456	8.235825	-1.516237	1	8.374233	-10.4315	-1.872912E-005	0.0006572	10
	19	56	3796.875	8.280736	-1.87755	1	8.490924	-12.77508	-2.331078E-005	0.0007399	10
	20	58	2987.132	8.340597	-2.361192	1	8.668379	-15.80662	2.12301E-005	0.0006325	10
	21	61	2390.625	8.41108	-2.916334	1	8.902319	-19.12272	1.488452E-005	0.0006658	10
	22	63	1884.191	8.505868	-3.644291	1	9.253683	-23.19244	-7.980035E-006	0.0006751	10
	23	65	1516.544	8.61505	-4.464158	1	9.70298	-27.39234	4.129901E-006	0.0006586	10
	24	68	1193.986	8.767101	-5.57313	1	10.38854	-32.44358	2.194792E-005	0.0006333	10
	25	70	946.5144	8.961611	-6.90462	1	11.31301	-37.61304	-1.125094E-005	0.0006547	10
	26	72	751.7689	9.195095	-8.547406	1	12.5542	-42.90935	1.757501E-005	0.0006481	10
	27	75	597.4265	9.50343	-10.55321	1	14.2016	-47.99616	1.874349E-005	0.0006211	10
	28	77	477.4305	9.88088	-12.9564	1	16.29418	-52.66994	-3.448701E-006	0.0006655	10
	29	79	376.6741	10.39725	-16.07836	1	19.14723	-57.11082	-4.023319E-006	0.0006639	10
	30	82	298.2954	11.04688	-19.86215	1	22.72748	-60.91818	-3.620643E-006	0.0006575	10
	31	84	237.7717	11.84529	-24.35931	1	27.08666	-64.06757	-3.804908E-006	0.0006572	10
	32	86	189.0121	12.85222	-29.91611	1	32.56	-66.75122	-3.554719E-006	0.0006633	10
	33	89	150.2404	14.0909	-36.69869	1	39.31091	-68.99511	-3.254848E-006	0.0006552	10
	34	91	119.1737	15.59546	-45.02509	1	47.64952	-70.89532	5.888746E-007	0.0001051	9
	35	94	95.0169	17.39632	-55.03941	1	57.72321	-72.4598	8.446226E-007	5.692254E-005	9
	36	96	75.60484	19.59331	-67.41409	1	70.20369	-73.79396	7.725151E-007	6.138436E-005	9
	37	99	54.50582	23.59525	-90.21458	1	93.24917	-75.34286	5.958109E-007	5.274016E-005	9
	38	101	45.95588	26.21305	-105.0642	1	108.2849	-75.99097	8.448526E-007	6.288452E-005	9
	39	103	37.20238	30.10384	-126.9366	1	130.4574	-76.65841	9.204924E-007	5.523015E-005	9
	40	106	30.04808	34.99039	-153.7272	1	157.6591	-77.17717	8.674026E-007	5.655506E-005	9
	41	108	23.91582	41.66078	-188.7993	1	193.3411	-77.55642	7.810308E-007	5.985326E-005	9
	42	111	18.60119	51.13044	-236.479	1	241.9434	-77.79957	1.007107E-006	5.64313E-005	9
	43	113	15.02404	61.80464	-286.4801	1	293.0711	-77.82571	9.855694E-007	7.583221E-005	9
	44	115	12.01923	76.24488	-349.6357	1	357.8525	-77.69813	7.077142E-007	6.493397E-005	9
	45	118	9.450605	96.5054	-430.9438	1	441.6174	-77.37746	2.865283E-007	0.0006518	8
	46	120	7.512019	122.7128	-527.5176	1	541.6025	-76.90458	1.494898E-007	0.0006423	8
	47	123	5.978954	157.2448	-642.9323	1	661.8821	-76.25671	1.46208E-007	0.0006426	8
	48	126	4.734848	204.7523	-785.4647	1	811.7132	-75.38947	2.325277E-007	0.0006339	8
	49	129	3.75601	266.289	-954.656	1	991.099	-74.41424	1.854006E-007	0.0006386	8
	50	133	3.004808	344.308	-1146.602	1	1197.182	-73.28575	3.103756E-007	0.0006063	8
	51	136	2.372217	452.4999	-1387.105	1	1459.047	-71.9327	2.383226E-007	0.0005753	8
	52	140	1.878005	592.3489	-1663.728	1	1766.032	-70.40238	2.701233E-007	0.000652	8
	53	145	1.512097	758.3633	-1957.86	1	2099.603	-68.82648	2.639604E-007	0.0005553	8
	54	151	1.201923	979.512	-2322.008	1	2520.151	-67.12812	2.617309E-007	0.000667	8
	55	157	0.956633	1259.486	-2730.734	1	3007.194	-65.23962	1.695496E-007	1.419492E-006	8
