EXPLAIN
TAG	EISPOT
TITLE	LABEL	Potentiostatic EIS	Test Identifier
DATE	LABEL	9/22/2020	Date
TIME	LABEL	0:27:43	Time
NOTES	NOTES	1	Notes...
	
PSTAT	PSTAT	REF3000-16137	Potentiostat
VDC	POTEN	0.00000E+000	T	DC Voltage (V)
FREQINIT	QUANT	3.00000E+005	Initial Freq. (Hz)
FREQFINAL	QUANT	1.00000E+000	Final Freq. (Hz)
PTSPERDEC	QUANT	1.00000E+001	Points/decade
VAC	QUANT	5.00000E+001	AC Voltage (mV rms)
AREA	QUANT	1.00000E+000	Sample Area (cm^2)
SPEED	SELECTOR	2	Optimize for:
ZGUESS	QUANT	1.00000E+003	Estimated Z (ohms)
EOC	QUANT	0	Open Circuit (V)
SEQUENCER	TOGGLE	TRUE	Run as Sequence
PSTATMODEL	IQUANT	5	Pstat Model
PSTATSECTION	LABEL	REF3000-16137	Pstat Section
PSTATSERIALNO	LABEL	16137	Pstat Serial Number
CTRLMODE	IQUANT	1	Control Mode
IESTAB	IQUANT	0	I/E Stability
CASPEED	IQUANT	1	Control Amp Speed
CONVENTION	IQUANT	1	Current Convention
ICHRANGE	IQUANT	2	Ich Range
ICHRANGEMODE	TOGGLE	F	Ich Auto Range
ICHOFFSETENABLE	TOGGLE	T	Ich Offset Enable
ICHOFFSET	QUANT	0	Ich Offset (V)
ICHFILTER	IQUANT	3	Ich Filter
VCHRANGE	IQUANT	2	Vch Range
VCHRANGEMODE	TOGGLE	F	Vch Auto Range
VCHOFFSETENABLE	TOGGLE	T	Vch Offset Enable
VCHOFFSET	QUANT	0	Vch Offset (V)
VCHFILTER	IQUANT	3	Vch Filter
ACHRANGE	IQUANT	2	Ach Range
ACHOFFSETENABLE	TOGGLE	F	Ach Offset Enable
ACHOFFSET	QUANT	0	Ach Offset (V)
ACHFILTER	IQUANT	3	Ach Filter
IERANGELOWERLIMIT	IQUANT	2	I/E Range Lower Limit
IERANGEMODE	TOGGLE	F	I/E AutoRange
IERANGE	IQUANT	11	I/E Range
POSFEEDENABLE	TOGGLE	F	Positive Feedback IR Comp
POSFEEDRESISTANCE	QUANT	0	Positive Feedback Resistance (ohm)
ACHSELECT	IQUANT	0	Ach Select
CABLEID	IQUANT	13	Cable ID
DCCALDATE	LABEL	7/31/2020	DC Calibration Date
ACCALDATE	LABEL	7/31/2020	AC Calibration Date
THERMOSELECT	IQUANT	1	Thermo Select
FRAMEWORKVERSION	QUANT	6.33	Framework Version
INSTRUMENTVERSION	LABEL	3.50	Instrument Version
COMPLIANCEVOLTAGE	IQUANT	0	Compliance Voltage
ZCURVE	TABLE
	Pt	Time	Freq	Zreal	Zimag	Zsig	Zmod	Zphz	Idc	Vdc	IERange
	#	s	Hz	ohm	ohm	V	ohm	°	A	V	#
	0	8	300046.9	12.13225	2.158354	1	12.32275	10.08751	-5.600994E-006	7.674789E-005	10
	1	11	238359.4	12.0967	1.704871	1	12.21625	8.022247	-0.0001006	0.0002458	10
	2	14	189328.1	12.08993	1.344113	1	12.16442	6.343874	-9.154735E-005	0.0004328	10
	3	17	150421.9	12.0757	1.034402	1	12.11992	4.895996	2.441163E-005	0.0004743	10
	4	19	119484.4	12.08483	0.8074741	1	12.11178	3.822658	1.134141E-005	0.0005028	10
	5	22	94921.88	12.08575	0.6294433	1	12.10213	2.981352	-1.202591E-005	0.0006674	10
	6	24	75421.88	12.09015	0.44947	1	12.09851	2.129078	-3.862116E-006	0.000611	10
	7	27	59859.37	12.10213	0.2958311	1	12.10575	1.40029	-2.249652E-005	0.0006669	10
	8	29	47578.12	12.11411	0.1647598	1	12.11523	0.7792119	-1.248876E-005	0.0006128	10
	9	32	37828.12	12.12654	0.0453461	1	12.12663	0.2142515	-1.276763E-005	0.0006137	10
	10	34	30046.88	12.13954	-0.0697518	1	12.13974	-0.3292084	2.209475E-005	0.0006082	10
	11	37	23859.38	12.15563	-0.1868889	1	12.15706	-0.8808347	1.699282E-005	0.0006702	10
	12	39	18984.38	12.17219	-0.3085777	1	12.1761	-1.452197	-4.157799E-006	0.0006233	10
	13	42	15046.87	12.19151	-0.4458645	1	12.19966	-2.094472	4.42199E-006	0.0006098	10
	14	44	11953.13	12.21305	-0.6025507	1	12.22791	-2.82449	-1.954327E-005	0.0006482	10
	15	46	9515.62	12.23789	-0.7854001	1	12.26306	-3.672079	3.851713E-006	0.0006363	10
	16	49	7546.875	12.2696	-1.004882	1	12.31069	-4.682079	-1.13455E-005	0.0006549	10
	17	51	5928.309	12.30681	-1.286707	1	12.37389	-5.968725	1.540468E-005	0.0006611	10
	18	53	4733.456	12.34946	-1.604043	1	12.45319	-7.400584	5.03365E-006	0.0006617	10
	19	55	3796.875	12.40048	-1.984976	1	12.55834	-9.094332	-2.936746E-005	0.0006534	10
	20	58	2987.132	12.46406	-2.494476	1	12.71123	-11.31728	-2.764027E-005	0.0006891	10
	21	60	2390.625	12.53999	-3.078855	1	12.91243	-13.79456	-2.497484E-005	0.0006486	10
	22	62	1884.191	12.6409	-3.847394	1	13.21344	-16.92818	-2.899249E-005	0.000679	10
	23	65	1516.544	12.75707	-4.711973	1	13.59947	-20.27229	-1.112908E-005	0.0006522	10
	24	67	1193.986	12.91412	-5.887347	1	14.19279	-24.50751	2.230769E-005	0.0006533	10
	25	70	946.5144	13.11308	-7.295681	1	15.006	-29.0901	-1.643648E-005	0.0006766	10
	26	72	751.7689	13.35234	-9.035828	1	16.12238	-34.08709	1.405707E-005	0.0006609	10
	27	74	597.4265	13.66486	-11.16312	1	17.64493	-39.24614	-2.594973E-005	0.0006793	10
	28	77	477.4305	14.04457	-13.71671	1	19.63156	-44.32336	-3.387967E-006	0.0006711	10
	29	79	376.6741	14.56024	-17.04356	1	22.41614	-49.49288	-3.274311E-006	0.0006645	10
	30	81	298.2954	15.21288	-21.0892	1	26.00357	-54.19487	-2.800394E-006	0.0006678	10
	31	84	237.7717	16.02311	-25.91831	1	30.47128	-58.27499	-3.101861E-006	0.0006593	10
	32	86	189.0121	17.06127	-31.89308	1	36.16981	-61.85535	-3.225939E-006	0.0006566	10
	33	88	150.2404	18.3462	-39.15151	1	43.23683	-64.89245	9.972152E-007	6.081927E-005	9
	34	91	119.1737	19.98616	-48.15259	1	52.13558	-67.45866	9.471506E-007	6.793506E-005	9
	35	93	95.0169	21.952	-58.89616	1	62.85418	-69.55838	9.535942E-007	6.390883E-005	9
	36	96	75.60484	24.36147	-72.12501	1	76.12817	-71.33672	9.539854E-007	6.306418E-005	9
	37	98	54.50582	28.70325	-96.3923	1	100.5751	-73.41776	9.537882E-007	5.671458E-005	9
	38	101	45.95588	31.49082	-112.1639	1	116.5007	-74.31754	1.009997E-006	6.4736E-005	9
	39	103	37.20238	35.55927	-135.3696	1	139.9621	-75.2819	1.06257E-006	5.558161E-005	9
	40	106	30.04808	40.54168	-163.8093	1	168.7516	-76.09902	9.585419E-007	5.981063E-005	9
	41	108	23.91582	47.15485	-200.9761	1	206.4339	-76.79559	9.682038E-007	5.377521E-005	9
	42	110	18.60119	56.30288	-251.763	1	257.9819	-77.39411	8.33682E-007	6.256407E-005	9
	43	113	15.02404	66.35569	-305.0979	1	312.2304	-77.72984	1.141951E-006	7.882721E-005	9
	44	115	12.01923	79.8115	-372.7459	1	381.1947	-77.91444	1.018665E-006	6.065007E-005	9
	45	117	9.450605	98.3618	-460.4135	1	470.8032	-77.94073	3.960319E-007	0.0006427	8
	46	120	7.512019	121.9302	-565.3417	1	578.3409	-77.82914	3.897691E-007	0.0006585	8
	47	123	5.978954	153.078	-691.9437	1	708.6741	-77.52544	4.094687E-007	0.0006312	8
	48	126	4.734848	195.7818	-849.5238	1	871.7919	-77.02217	4.339985E-007	0.0006804	8
	49	129	3.75601	251.2886	-1039.447	1	1069.39	-76.40937	4.209861E-007	0.0006455	8
	50	132	3.004808	321.2788	-1257.62	1	1298.009	-75.6694	3.626682E-007	0.0006679	8
	51	136	2.372217	419.9639	-1532.513	1	1589.014	-74.6751	3.94514E-007	0.0006392	8
	52	140	1.878005	550.457	-1861.92	1	1941.585	-73.53024	4.438632E-007	0.0006248	8
	53	145	1.512097	699.2814	-2214.933	1	2322.698	-72.47845	3.935897E-007	0.0006887	8
	54	151	1.201923	911.3878	-2659.608	1	2811.431	-71.08457	4.389659E-007	0.0006551	8
	55	157	0.956633	1175.681	-3169.68	1	3380.695	-69.64945	3.326521E-007	9.836949E-007	8
