EXPLAIN
TAG	EISPOT
TITLE	LABEL	Potentiostatic EIS	Test Identifier
DATE	LABEL	9/22/2020	Date
TIME	LABEL	0:19:24	Time
NOTES	NOTES	1	Notes...
	
PSTAT	PSTAT	REF3000-16137	Potentiostat
VDC	POTEN	0.00000E+000	T	DC Voltage (V)
FREQINIT	QUANT	3.00000E+005	Initial Freq. (Hz)
FREQFINAL	QUANT	1.00000E+000	Final Freq. (Hz)
PTSPERDEC	QUANT	1.00000E+001	Points/decade
VAC	QUANT	5.00000E+001	AC Voltage (mV rms)
AREA	QUANT	1.00000E+000	Sample Area (cm^2)
SPEED	SELECTOR	2	Optimize for:
ZGUESS	QUANT	1.00000E+003	Estimated Z (ohms)
EOC	QUANT	0	Open Circuit (V)
SEQUENCER	TOGGLE	TRUE	Run as Sequence
PSTATMODEL	IQUANT	5	Pstat Model
PSTATSECTION	LABEL	REF3000-16137	Pstat Section
PSTATSERIALNO	LABEL	16137	Pstat Serial Number
CTRLMODE	IQUANT	1	Control Mode
IESTAB	IQUANT	0	I/E Stability
CASPEED	IQUANT	1	Control Amp Speed
CONVENTION	IQUANT	1	Current Convention
ICHRANGE	IQUANT	2	Ich Range
ICHRANGEMODE	TOGGLE	F	Ich Auto Range
ICHOFFSETENABLE	TOGGLE	T	Ich Offset Enable
ICHOFFSET	QUANT	0	Ich Offset (V)
ICHFILTER	IQUANT	3	Ich Filter
VCHRANGE	IQUANT	2	Vch Range
VCHRANGEMODE	TOGGLE	F	Vch Auto Range
VCHOFFSETENABLE	TOGGLE	T	Vch Offset Enable
VCHOFFSET	QUANT	0	Vch Offset (V)
VCHFILTER	IQUANT	3	Vch Filter
ACHRANGE	IQUANT	2	Ach Range
ACHOFFSETENABLE	TOGGLE	F	Ach Offset Enable
ACHOFFSET	QUANT	0	Ach Offset (V)
ACHFILTER	IQUANT	3	Ach Filter
IERANGELOWERLIMIT	IQUANT	2	I/E Range Lower Limit
IERANGEMODE	TOGGLE	F	I/E AutoRange
IERANGE	IQUANT	11	I/E Range
POSFEEDENABLE	TOGGLE	F	Positive Feedback IR Comp
POSFEEDRESISTANCE	QUANT	0	Positive Feedback Resistance (ohm)
ACHSELECT	IQUANT	0	Ach Select
CABLEID	IQUANT	13	Cable ID
DCCALDATE	LABEL	7/31/2020	DC Calibration Date
ACCALDATE	LABEL	7/31/2020	AC Calibration Date
THERMOSELECT	IQUANT	1	Thermo Select
FRAMEWORKVERSION	QUANT	6.33	Framework Version
INSTRUMENTVERSION	LABEL	3.50	Instrument Version
COMPLIANCEVOLTAGE	IQUANT	0	Compliance Voltage
ZCURVE	TABLE
	Pt	Time	Freq	Zreal	Zimag	Zsig	Zmod	Zphz	Idc	Vdc	IERange
	#	s	Hz	ohm	ohm	V	ohm	°	A	V	#
	0	8	300046.9	10.76255	2.186167	1	10.98234	11.48212	-3.44201E-005	7.063567E-005	10
	1	11	238359.4	10.7225	1.723984	1	10.86021	9.133954	2.685697E-005	0.0003058	10
	2	15	189328.1	10.71165	1.35736	1	10.79731	7.221923	6.303019E-005	9.15108E-005	10
	3	17	150421.9	10.70627	1.04894	1	10.75753	5.595661	6.946634E-005	0.0002098	10
	4	20	119484.4	10.70723	0.8168687	1	10.73835	4.362718	2.392423E-005	0.0006818	10
	5	22	94921.88	10.70912	0.6385012	1	10.72813	3.412062	2.041644E-005	0.0005591	10
	6	25	75421.88	10.71248	0.4589792	1	10.7223	2.453354	-8.76944E-006	0.0006004	10
	7	27	59859.37	10.72204	0.3033094	1	10.72633	1.620374	1.12172E-005	0.0005698	10
	8	30	47578.12	10.73308	0.1718835	1	10.73446	0.9174768	2.442862E-005	0.0006178	10
	9	32	37828.12	10.74523	0.0522184	1	10.74536	0.2784368	-2.326009E-005	0.0006982	10
	10	35	30046.88	10.75746	-0.0621575	1	10.75764	-0.3310559	-2.442643E-005	0.0006813	10
	11	37	23859.38	10.77054	-0.1785996	1	10.77202	-0.950005	2.083394E-005	0.0006549	10
	12	40	18984.38	10.78485	-0.2998304	1	10.78902	-1.592474	1.646458E-006	0.0006241	10
	13	42	15046.87	10.80217	-0.4358833	1	10.81096	-2.310715	4.894603E-006	0.0006086	10
	14	44	11953.13	10.82524	-0.5915245	1	10.84139	-3.127707	-1.463742E-005	0.0006331	10
	15	47	9515.62	10.8464	-0.7708171	1	10.87375	-4.064984	2.139636E-005	0.0006084	10
	16	49	7546.875	10.87612	-0.989542	1	10.92104	-5.19863	2.440002E-005	0.0006424	10
	17	51	5928.309	10.91121	-1.264913	1	10.98428	-6.612659	2.159402E-005	0.0006429	10
	18	54	4733.456	10.95291	-1.578958	1	11.06613	-8.203176	-2.84863E-005	0.0006813	10
	19	56	3796.875	11.00012	-1.954265	1	11.17237	-10.07398	-1.714268E-005	0.0006566	10
	20	58	2987.132	11.06331	-2.455767	1	11.33259	-12.51525	2.064644E-005	0.0006436	10
	21	61	2390.625	11.13953	-3.030309	1	11.54435	-15.21803	-7.140374E-006	0.0007127	10
	22	63	1884.191	11.23493	-3.788792	1	11.85659	-18.63581	5.234392E-006	0.0006555	10
	23	65	1516.544	11.35056	-4.640654	1	12.26258	-22.23709	-1.615916E-005	0.0006913	10
	24	67	1193.986	11.50623	-5.794045	1	12.88271	-26.72787	1.584163E-005	0.0006101	10
	25	70	946.5144	11.69756	-7.193558	1	13.73245	-31.58995	-3.160243E-005	0.0006614	10
	26	72	751.7689	11.94265	-8.885556	1	14.88556	-36.64994	1.71332E-005	0.0006084	10
	27	75	597.4265	12.25112	-10.98296	1	16.45343	-41.87579	1.001999E-005	0.0006042	10
	28	77	477.4305	12.62869	-13.49657	1	18.48354	-46.90266	-3.884441E-006	0.0006654	10
	29	79	376.6741	13.14426	-16.76542	1	21.30378	-51.90319	-3.562471E-006	0.0006597	10
	30	82	298.2954	13.79641	-20.73606	1	24.90633	-56.36283	-3.371522E-006	0.000662	10
	31	84	237.7717	14.60569	-25.47242	1	29.36273	-60.17036	-2.953487E-006	0.0006671	10
	32	87	189.0121	15.63798	-31.32474	1	35.01122	-63.47065	-2.841987E-006	0.0006695	10
	33	89	150.2404	16.90885	-38.43163	1	41.9869	-66.25184	9.556825E-007	6.426362E-005	9
	34	91	119.1737	18.51983	-47.24234	1	50.74272	-68.59394	9.604285E-007	6.529842E-005	9
	35	94	95.0169	20.44065	-57.76497	1	61.27489	-70.51322	9.311655E-007	6.528693E-005	9
	36	96	75.60484	22.78725	-70.73771	1	74.31744	-72.14432	9.065673E-007	6.436107E-005	9
	37	99	54.50582	27.01133	-94.56008	1	98.3424	-74.05788	8.743051E-007	6.130455E-005	9
	38	101	45.95588	29.73636	-110.0612	1	114.0076	-74.88081	8.839136E-007	6.568118E-005	9
	39	104	37.20238	33.7217	-132.8723	1	137.0847	-75.75954	9.650197E-007	6.723203E-005	9
	40	106	30.04808	38.67414	-160.865	1	165.4486	-76.48186	8.129177E-007	5.95044E-005	9
	41	108	23.91582	45.22474	-197.4111	1	202.5251	-77.09681	1.053665E-006	5.485305E-005	9
	42	111	18.60119	54.43098	-247.3006	1	253.2199	-77.58709	7.387681E-007	8.99855E-005	9
	43	113	15.02404	64.70039	-299.7047	1	306.609	-77.81791	9.506377E-007	5.180941E-005	9
	44	115	12.01923	78.29784	-366.0917	1	374.3711	-77.92775	1.082371E-006	6.041564E-005	9
	45	118	9.450605	97.3175	-452.0688	1	462.425	-77.85126	3.314656E-007	0.0006325	8
	46	120	7.512019	121.5018	-554.4697	1	567.626	-77.64005	3.08415E-007	0.0006271	8
	47	123	5.978954	153.6348	-678.1456	1	695.3309	-77.23505	3.268162E-007	0.0006396	8
	48	126	4.734848	196.9768	-831.5078	1	854.5204	-76.67281	2.86853E-007	0.0006111	8
	49	129	3.75601	254.8372	-1015.217	1	1046.713	-75.90891	4.174429E-007	0.0006577	8
	50	133	3.004808	327.5223	-1226	1	1268.994	-75.04288	3.812511E-007	0.0006258	8
	51	137	2.372217	431.1714	-1492.729	1	1553.753	-73.88876	3.49825E-007	0.0005669	8
	52	141	1.878005	561.2218	-1807.149	1	1892.289	-72.74747	4.260596E-007	0.0006397	8
	53	145	1.512097	715.115	-2141.655	1	2257.891	-71.53544	3.760783E-007	0.000629	8
	54	151	1.201923	929.7573	-2565.656	1	2728.926	-70.0802	4.084686E-007	0.0006635	8
	55	157	0.956633	1199.919	-3048.208	1	3275.878	-68.51305	3.032071E-007	1.639298E-006	8
