EXPLAIN
TAG	EISPOT
TITLE	LABEL	Potentiostatic EIS	Test Identifier
DATE	LABEL	9/22/2020	Date
TIME	LABEL	5:13:08	Time
NOTES	NOTES	1	Notes...
	
PSTAT	PSTAT	REF3000-16137	Potentiostat
VDC	POTEN	0.00000E+000	T	DC Voltage (V)
FREQINIT	QUANT	3.00000E+005	Initial Freq. (Hz)
FREQFINAL	QUANT	1.00000E+000	Final Freq. (Hz)
PTSPERDEC	QUANT	1.00000E+001	Points/decade
VAC	QUANT	5.00000E+001	AC Voltage (mV rms)
AREA	QUANT	1.00000E+000	Sample Area (cm^2)
SPEED	SELECTOR	2	Optimize for:
ZGUESS	QUANT	1.00000E+003	Estimated Z (ohms)
EOC	QUANT	0	Open Circuit (V)
SEQUENCER	TOGGLE	TRUE	Run as Sequence
PSTATMODEL	IQUANT	5	Pstat Model
PSTATSECTION	LABEL	REF3000-16137	Pstat Section
PSTATSERIALNO	LABEL	16137	Pstat Serial Number
CTRLMODE	IQUANT	1	Control Mode
IESTAB	IQUANT	0	I/E Stability
CASPEED	IQUANT	1	Control Amp Speed
CONVENTION	IQUANT	1	Current Convention
ICHRANGE	IQUANT	2	Ich Range
ICHRANGEMODE	TOGGLE	F	Ich Auto Range
ICHOFFSETENABLE	TOGGLE	T	Ich Offset Enable
ICHOFFSET	QUANT	0	Ich Offset (V)
ICHFILTER	IQUANT	3	Ich Filter
VCHRANGE	IQUANT	2	Vch Range
VCHRANGEMODE	TOGGLE	F	Vch Auto Range
VCHOFFSETENABLE	TOGGLE	T	Vch Offset Enable
VCHOFFSET	QUANT	0	Vch Offset (V)
VCHFILTER	IQUANT	3	Vch Filter
ACHRANGE	IQUANT	2	Ach Range
ACHOFFSETENABLE	TOGGLE	F	Ach Offset Enable
ACHOFFSET	QUANT	0	Ach Offset (V)
ACHFILTER	IQUANT	3	Ach Filter
IERANGELOWERLIMIT	IQUANT	2	I/E Range Lower Limit
IERANGEMODE	TOGGLE	F	I/E AutoRange
IERANGE	IQUANT	11	I/E Range
POSFEEDENABLE	TOGGLE	F	Positive Feedback IR Comp
POSFEEDRESISTANCE	QUANT	0	Positive Feedback Resistance (ohm)
ACHSELECT	IQUANT	0	Ach Select
CABLEID	IQUANT	13	Cable ID
DCCALDATE	LABEL	7/31/2020	DC Calibration Date
ACCALDATE	LABEL	7/31/2020	AC Calibration Date
THERMOSELECT	IQUANT	1	Thermo Select
FRAMEWORKVERSION	QUANT	6.33	Framework Version
INSTRUMENTVERSION	LABEL	3.50	Instrument Version
COMPLIANCEVOLTAGE	IQUANT	0	Compliance Voltage
ZCURVE	TABLE
	Pt	Time	Freq	Zreal	Zimag	Zsig	Zmod	Zphz	Idc	Vdc	IERange
	#	s	Hz	ohm	ohm	V	ohm	°	A	V	#
	0	14	300046.9	-39.76017	-4509.873	1	4510.048	-90.50512	2.000075E-005	-0.0010378	9
	1	28	238359.4	28.76744	-5567.575	1	5567.649	-89.70396	2.840283E-005	-0.0020972	9
	2	42	189328.1	225.551	-7182.837	1	7186.378	-88.20142	-2.9143E-005	-0.0011116	9
	3	49	150421.9	-20.678	-8365.17	1	8365.195	-90.14163	1.139696E-006	0.0016531	9
	4	57	119484.4	296.5846	-10986.39	1	10990.39	-88.45364	-6.095691E-005	0.0070429	8
	5	64	94921.88	710.1815	-13729.83	1	13748.18	-87.03899	-2.393767E-005	0.0052034	8
	6	73	75421.88	764.9025	-16946.28	1	16963.53	-87.4156	2.298878E-005	-0.0027141	8
	7	81	59859.37	804.7381	-21220.4	1	21235.66	-87.82822	1.722479E-005	0.0003994	8
	8	90	47578.12	540.2037	-26827.38	1	26832.81	-88.84644	2.30742E-005	-0.0027934	8
	9	99	37828.12	-613.6276	-35173.48	1	35178.83	-90.99947	-9.374798E-006	-0.0021834	8
	10	109	30046.88	4795.14	-43201.96	1	43467.26	-83.66646	-7.315352E-006	0.0187728	7
	11	117	23859.38	1758.709	-53699.33	1	53728.12	-88.12418	2.609926E-005	-0.0090012	8
	12	123	18984.38	2773.658	-63790.93	1	63851.2	-87.51032	-2.04979E-005	0.0114942	8
	13	131	15046.87	5487.757	-81933.72	1	82117.29	-86.16817	-2.045099E-005	0.0027669	8
	14	137	11953.13	-218.4322	-104985.6	1	104985.9	-90.11921	2.259447E-005	-0.0096969	8
	15	145	9515.62	7490.094	-132587.8	1	132799.2	-86.76671	2.451562E-005	-0.0001458	9
	16	152	7546.875	32541.96	-176714.5	1	179685.8	-79.56588	-1.35273E-006	-0.0049748	8
	17	160	5928.309	16285.65	-212702.9	1	213325.4	-85.62167	2.787176E-006	0.0084024	7
	18	165	4733.456	23190.67	-261125.6	1	262153.4	-84.92486	5.321192E-006	-0.0266208	7
	19	171	3796.875	10973.72	-325302.1	1	325487.2	-88.06792	1.32164E-006	-0.0198435	7
	20	178	2987.132	58303.13	-433440.3	1	437343.9	-82.33899	7.628301E-007	-0.0226196	6
	21	184	2390.625	50171.95	-515990.8	1	518424.3	-84.44635	1.587091E-007	-0.0209767	6
	22	189	1884.191	54253.69	-671958.3	1	674144.9	-85.38397	-2.163403E-007	0.0223619	6
	23	194	1516.544	52490.39	-850443.1	1	852061.5	-86.46812	-2.107949E-007	0.0222014	6
	24	200	1193.986	53882.47	-1047125	1	1048511	-87.0543	5.899216E-007	-0.0275867	6
	25	205	946.5144	35965.33	-1276028	1	1276535	-88.38552	7.286257E-007	-0.0274975	6
	26	210	751.7689	-651845.1	-420944	1	775948.4	-147.1467	-5.363412E-006	0.0270436	7
	27	216	597.4265	442092.7	-1507289	1	1570785	-73.65342	-6.784331E-006	0.0124654	7
	28	221	477.4305	178753.1	-2520713	1	2527043	-85.94373	-9.305466E-008	0.0005763	7
	29	227	376.6741	624334.4	-3268924	1	3328011	-79.18725	-9.178449E-010	0.00061	5
	30	231	298.2954	751350.4	-4032120	1	4101526	-79.44449	-1.030716E-009	0.0006585	5
	31	235	237.7717	816725.4	-5023012	1	5088977	-80.76471	-9.27207E-010	0.0005972	5
	32	239	189.0121	1087451	-6203838	1	6298425	-80.05781	-9.781161E-010	0.0006011	5
	33	242	150.2404	1403103	-7728946	1	7855273	-79.71066	-9.93166E-010	0.0006003	5
	34	245	119.1737	4554286	-1.002481E+007	1	1.101083E+007	-65.56763	-1.014094E-009	0.0006574	5
	35	247	95.0169	2246850	-1.169259E+007	1	1.190651E+007	-79.12262	-1.030297E-009	0.0006712	5
	36	250	75.60484	3721601	-1.368043E+007	1	1.41776E+007	-74.78162	-1.014984E-009	0.0006763	5
	37	253	54.50582	6222271	-1.920232E+007	1	2.018529E+007	-72.04574	-9.611989E-010	0.0005862	5
	38	256	45.95588	9228236	-2.140993E+007	1	2.331406E+007	-66.6827	-5.803882E-011	0.0006069	4
	39	259	37.20238	1.117855E+007	-2.726444E+007	1	2.94671E+007	-67.70613	-1.39598E-010	0.000645	4
	40	262	30.04808	1.386145E+007	-3.14884E+007	1	3.440435E+007	-66.24051	-1.06614E-009	0.0006806	5
	41	266	23.91582	2.065395E+007	-3.203415E+007	1	3.811525E+007	-57.18819	-8.922683E-010	0.0006402	5
	42	270	18.60119	2.724791E+007	-2.865275E+007	1	3.954021E+007	-46.4396	8.152174E-011	0.0006903	4
	43	273	15.02404	3.812479E+007	-4.452557E+007	1	5.861762E+007	-49.42838	-9.332401E-011	0.0006038	4
	44	277	12.01923	4.645482E+007	-4.763982E+007	1	6.654024E+007	-45.72153	-1.005012E-010	0.0006425	4
	45	280	9.450605	5.469013E+007	-4.43436E+007	1	7.040856E+007	-39.03568	-1.208079E-010	0.0006511	4
	46	284	7.512019	6.792557E+007	-4.748517E+007	1	8.287777E+007	-34.95649	-9.317291E-011	0.0007104	4
	47	289	5.978954	7.752589E+007	-4.544663E+007	1	8.986467E+007	-30.37936	-1.0131E-010	0.0006141	4
	48	294	4.734848	9.647108E+007	-3.040864E+007	1	1.011502E+008	-17.49537	-1.091007E-011	0.0007997	3
	49	299	3.75601	1.020486E+008	-2.595861E+007	1	1.052985E+008	-14.27192	-7.829072E-012	0.0007743	3
	50	305	3.004808	1.052226E+008	-2.248017E+007	1	1.075972E+008	-12.05959	-9.481267E-012	0.0007478	3
	51	311	2.372217	1.083876E+008	-1.871409E+007	1	1.099913E+008	-9.79605	-1.012003E-011	0.0007314	3
	52	315	1.878005	1.111904E+008	-1.571634E+007	1	1.122956E+008	-8.045244	-1.007725E-011	0.0006955	3
	53	322	1.512097	1.137818E+008	-1.331657E+007	1	1.145584E+008	-6.675303	-9.252263E-012	0.0007971	3
	54	327	1.201923	1.161896E+008	-1.118048E+007	1	1.167263E+008	-5.496432	-9.961003E-012	0.0007128	3
	55	333	0.956633	1.186955E+008	-9401534	1	1.190673E+008	-4.52878	-1.441102E-011	7.876721E-005	3
