EXPLAIN
TAG	EISPOT
TITLE	LABEL	Potentiostatic EIS	Test Identifier
DATE	LABEL	8/9/2020	Date
TIME	LABEL	16:17:33	Time
NOTES	NOTES	1	Notes...
	
PSTAT	PSTAT	REF3000-16137	Potentiostat
VDC	POTEN	0.00000E+000	T	DC Voltage (V)
FREQINIT	QUANT	3.00000E+005	Initial Freq. (Hz)
FREQFINAL	QUANT	1.00000E+000	Final Freq. (Hz)
PTSPERDEC	QUANT	1.00000E+001	Points/decade
VAC	QUANT	5.00000E+001	AC Voltage (mV rms)
AREA	QUANT	1.00000E+000	Sample Area (cm^2)
SPEED	SELECTOR	2	Optimize for:
ZGUESS	QUANT	1.00000E+003	Estimated Z (ohms)
EOC	QUANT	0	Open Circuit (V)
SEQUENCER	TOGGLE	TRUE	Run as Sequence
PSTATMODEL	IQUANT	5	Pstat Model
PSTATSECTION	LABEL	REF3000-16137	Pstat Section
PSTATSERIALNO	LABEL	16137	Pstat Serial Number
CTRLMODE	IQUANT	1	Control Mode
IESTAB	IQUANT	0	I/E Stability
CASPEED	IQUANT	1	Control Amp Speed
CONVENTION	IQUANT	1	Current Convention
ICHRANGE	IQUANT	2	Ich Range
ICHRANGEMODE	TOGGLE	F	Ich Auto Range
ICHOFFSETENABLE	TOGGLE	T	Ich Offset Enable
ICHOFFSET	QUANT	0	Ich Offset (V)
ICHFILTER	IQUANT	3	Ich Filter
VCHRANGE	IQUANT	2	Vch Range
VCHRANGEMODE	TOGGLE	F	Vch Auto Range
VCHOFFSETENABLE	TOGGLE	T	Vch Offset Enable
VCHOFFSET	QUANT	0	Vch Offset (V)
VCHFILTER	IQUANT	3	Vch Filter
ACHRANGE	IQUANT	2	Ach Range
ACHOFFSETENABLE	TOGGLE	F	Ach Offset Enable
ACHOFFSET	QUANT	0	Ach Offset (V)
ACHFILTER	IQUANT	3	Ach Filter
IERANGELOWERLIMIT	IQUANT	2	I/E Range Lower Limit
IERANGEMODE	TOGGLE	F	I/E AutoRange
IERANGE	IQUANT	11	I/E Range
POSFEEDENABLE	TOGGLE	F	Positive Feedback IR Comp
POSFEEDRESISTANCE	QUANT	0	Positive Feedback Resistance (ohm)
ACHSELECT	IQUANT	0	Ach Select
CABLEID	IQUANT	13	Cable ID
DCCALDATE	LABEL	7/31/2020	DC Calibration Date
ACCALDATE	LABEL	7/31/2020	AC Calibration Date
THERMOSELECT	IQUANT	1	Thermo Select
FRAMEWORKVERSION	QUANT	6.33	Framework Version
INSTRUMENTVERSION	LABEL	3.50	Instrument Version
COMPLIANCEVOLTAGE	IQUANT	0	Compliance Voltage
ZCURVE	TABLE
	Pt	Time	Freq	Zreal	Zimag	Zsig	Zmod	Zphz	Idc	Vdc	IERange
	#	s	Hz	ohm	ohm	V	ohm	°	A	V	#
	0	10	300046.9	4.995209	1.328889	1	5.168952	14.8975	-2.847957E-006	6.045558E-005	10
	1	14	238359.4	5.005342	1.0417	1	5.112591	11.75645	-4.577948E-005	-7.39497E-005	10
	2	17	189328.1	5.026253	0.8135446	1	5.091667	9.194103	2.68624E-005	0.0001327	10
	3	19	150421.9	5.055702	0.6269408	1	5.094426	7.068972	-1.088505E-006	0.0002729	10
	4	22	119484.4	5.072099	0.4735985	1	5.094162	5.334427	7.480251E-005	0.0002919	10
	5	24	94921.88	5.102534	0.3641753	1	5.115513	4.082362	-4.430176E-006	0.0005517	10
	6	27	75421.88	5.128583	0.2476823	1	5.134561	2.764922	1.428439E-005	0.0005094	10
	7	29	59859.37	5.157185	0.1446616	1	5.159214	1.606754	1.866986E-005	0.0005908	10
	8	32	47578.12	5.188886	0.0499708	1	5.189127	0.5517614	-9.558281E-006	0.0006208	10
	9	35	37828.12	5.222564	-0.0403852	1	5.22272	-0.4430501	-2.392037E-005	0.0006712	10
	10	37	30046.88	5.258358	-0.1301845	1	5.259969	-1.418218	1.86109E-005	0.0006544	10
	11	40	23859.38	5.294044	-0.224077	1	5.298784	-2.423669	1.216846E-005	0.0006289	10
	12	42	18984.38	5.331067	-0.3261396	1	5.341033	-3.500831	-2.388173E-005	0.0007077	10
	13	44	15046.87	5.36946	-0.4452521	1	5.387889	-4.740297	2.382451E-005	0.0006565	10
	14	46	11953.13	5.411347	-0.5819729	1	5.442552	-6.138382	-2.04586E-005	0.0006982	10
	15	49	9515.62	5.456123	-0.7451454	1	5.50677	-7.776802	-2.967347E-005	0.0006664	10
	16	51	7546.875	5.506487	-0.9448681	1	5.586965	-9.73666	-2.35143E-008	0.0006927	10
	17	53	5928.309	5.562975	-1.199661	1	5.690859	-12.16952	1.528847E-005	0.0006543	10
	18	56	4733.456	5.625575	-1.491859	1	5.820028	-14.85252	-1.115233E-005	0.0006534	10
	19	58	3796.875	5.694782	-1.843055	1	5.985599	-17.93362	1.765314E-005	0.0006274	10
	20	60	2987.132	5.780206	-2.312897	1	6.225775	-21.80837	-5.901183E-006	0.0006787	10
	21	63	2390.625	5.875462	-2.852119	1	6.531128	-25.89327	-1.854473E-005	0.000662	10
	22	65	1884.191	5.994453	-3.56278	1	6.973297	-30.72497	3.605839E-006	0.0006306	10
	23	67	1516.544	6.127182	-4.363508	1	7.522138	-35.45679	1.643055E-005	0.0006289	10
	24	70	1193.986	6.302615	-5.451286	1	8.333035	-40.85733	-2.711438E-005	0.0006876	10
	25	72	946.5144	6.519045	-6.757843	1	9.389696	-46.03041	-2.053213E-005	0.0007025	10
	26	74	751.7689	6.777977	-8.364799	1	10.76619	-50.98223	1.046014E-005	0.0006259	10
	27	77	597.4265	7.100119	-10.34633	1	12.54824	-55.54034	-2.686141E-005	0.0006814	10
	28	79	477.4305	7.495387	-12.7114	1	14.75671	-59.4739	-1.776933E-006	0.0006736	10
	29	81	376.6741	8.021077	-15.79544	1	17.71535	-63.0781	-2.440976E-006	0.0006693	10
	30	84	298.2954	8.678684	-19.54589	1	21.386	-66.05801	-2.238787E-006	0.0006743	10
	31	86	237.7717	9.487823	-24.02626	1	25.83176	-68.45124	-2.422773E-006	0.0006714	10
	32	89	189.0121	10.52176	-29.59057	1	31.40556	-70.42572	-2.188129E-006	0.0006704	10
	33	91	150.2404	11.82847	-36.41278	1	38.28581	-72.00393	-2.028709E-006	0.0006712	10
	34	93	119.1737	13.4907	-44.81091	1	46.79761	-73.24513	1.557644E-006	7.536655E-005	9
	35	96	95.0169	15.58308	-54.90627	1	57.07479	-74.1554	1.382302E-006	7.69891E-005	9
	36	98	75.60484	18.27781	-67.33675	1	69.77332	-74.81361	1.356684E-006	6.853284E-005	9
	37	101	54.50582	23.49494	-89.95366	1	92.97136	-75.36197	1.423677E-006	6.851149E-005	9
	38	103	45.95588	27.05381	-104.5373	1	107.9813	-75.49043	1.415903E-006	7.165022E-005	9
	39	106	37.20238	32.43851	-125.6764	1	129.7952	-75.52718	1.441738E-006	6.670492E-005	9
	40	108	30.04808	39.22945	-151.1722	1	156.1794	-75.45253	1.365346E-006	7.130793E-005	9
	41	111	23.91582	48.31907	-183.8148	1	190.0595	-75.27196	1.553624E-006	7.054058E-005	9
	42	113	18.60119	60.85337	-227.2025	1	235.2108	-75.00597	1.421137E-006	7.334513E-005	9
	43	115	15.02404	73.99503	-271.6238	1	281.5222	-74.76141	1.70054E-006	8.658727E-005	9
	44	117	12.01923	90.62125	-326.6855	1	339.0215	-74.4962	1.445115E-006	7.908719E-005	9
	45	120	9.450605	112.1969	-397.8005	1	413.3199	-74.24926	1.677693E-006	7.484933E-005	9
	46	122	7.512019	135.7842	-477.7238	1	496.6461	-74.13318	5.389767E-007	0.0006668	8
	47	125	5.978954	163.7579	-574.7336	1	597.608	-74.09624	4.635738E-007	0.0006521	8
	48	128	4.734848	196.7826	-695.414	1	722.7199	-74.19998	5.51074E-007	0.0006484	8
	49	131	3.75601	233.3297	-840.9746	1	872.7434	-74.49325	4.899819E-007	0.000649	8
	50	135	3.004808	273.1037	-1011.498	1	1047.719	-74.89046	5.447431E-007	0.000619	8
	51	138	2.372217	320.3073	-1234.223	1	1275.109	-75.45147	5.087976E-007	0.0005884	8
	52	143	1.878005	374.4537	-1506.979	1	1552.804	-76.04577	4.739683E-007	0.000714	8
	53	147	1.512097	434.1498	-1818.104	1	1869.221	-76.56969	4.723344E-007	0.0005554	8
	54	153	1.201923	503.3164	-2230.671	1	2286.749	-77.28502	5.063788E-007	0.000672	8
	55	159	0.956633	587.7662	-2737.074	1	2799.472	-77.88022	4.952745E-007	1.095675E-005	8
