EXPLAIN
TAG	EISPOT
TITLE	LABEL	Potentiostatic EIS	Test Identifier
DATE	LABEL	8/9/2020	Date
TIME	LABEL	16:41:48	Time
NOTES	NOTES	1	Notes...
	
PSTAT	PSTAT	REF3000-16137	Potentiostat
VDC	POTEN	0.00000E+000	T	DC Voltage (V)
FREQINIT	QUANT	3.00000E+005	Initial Freq. (Hz)
FREQFINAL	QUANT	1.00000E+000	Final Freq. (Hz)
PTSPERDEC	QUANT	1.00000E+001	Points/decade
VAC	QUANT	5.00000E+001	AC Voltage (mV rms)
AREA	QUANT	1.00000E+000	Sample Area (cm^2)
SPEED	SELECTOR	2	Optimize for:
ZGUESS	QUANT	1.00000E+003	Estimated Z (ohms)
EOC	QUANT	0	Open Circuit (V)
SEQUENCER	TOGGLE	TRUE	Run as Sequence
PSTATMODEL	IQUANT	5	Pstat Model
PSTATSECTION	LABEL	REF3000-16137	Pstat Section
PSTATSERIALNO	LABEL	16137	Pstat Serial Number
CTRLMODE	IQUANT	1	Control Mode
IESTAB	IQUANT	0	I/E Stability
CASPEED	IQUANT	1	Control Amp Speed
CONVENTION	IQUANT	1	Current Convention
ICHRANGE	IQUANT	2	Ich Range
ICHRANGEMODE	TOGGLE	F	Ich Auto Range
ICHOFFSETENABLE	TOGGLE	T	Ich Offset Enable
ICHOFFSET	QUANT	0	Ich Offset (V)
ICHFILTER	IQUANT	3	Ich Filter
VCHRANGE	IQUANT	2	Vch Range
VCHRANGEMODE	TOGGLE	F	Vch Auto Range
VCHOFFSETENABLE	TOGGLE	T	Vch Offset Enable
VCHOFFSET	QUANT	0	Vch Offset (V)
VCHFILTER	IQUANT	3	Vch Filter
ACHRANGE	IQUANT	2	Ach Range
ACHOFFSETENABLE	TOGGLE	F	Ach Offset Enable
ACHOFFSET	QUANT	0	Ach Offset (V)
ACHFILTER	IQUANT	3	Ach Filter
IERANGELOWERLIMIT	IQUANT	2	I/E Range Lower Limit
IERANGEMODE	TOGGLE	F	I/E AutoRange
IERANGE	IQUANT	11	I/E Range
POSFEEDENABLE	TOGGLE	F	Positive Feedback IR Comp
POSFEEDRESISTANCE	QUANT	0	Positive Feedback Resistance (ohm)
ACHSELECT	IQUANT	0	Ach Select
CABLEID	IQUANT	13	Cable ID
DCCALDATE	LABEL	7/31/2020	DC Calibration Date
ACCALDATE	LABEL	7/31/2020	AC Calibration Date
THERMOSELECT	IQUANT	1	Thermo Select
FRAMEWORKVERSION	QUANT	6.33	Framework Version
INSTRUMENTVERSION	LABEL	3.50	Instrument Version
COMPLIANCEVOLTAGE	IQUANT	0	Compliance Voltage
ZCURVE	TABLE
	Pt	Time	Freq	Zreal	Zimag	Zsig	Zmod	Zphz	Idc	Vdc	IERange
	#	s	Hz	ohm	ohm	V	ohm	°	A	V	#
	0	14	300046.9	589.4484	-4236.561	1	4277.371	-82.07908	1.200616E-006	-0.00215	9
	1	28	238359.4	817.4951	-5203.873	1	5267.693	-81.07217	5.249596E-005	2.415471E-005	9
	2	42	189328.1	1112.096	-6446.529	1	6541.75	-80.2122	7.923414E-005	-0.0016267	9
	3	51	150421.9	1485.053	-8003.724	1	8140.33	-79.48858	-2.2066E-005	0.0017138	9
	4	60	119484.4	1653.427	-10189.72	1	10323	-80.78327	7.877825E-005	-0.0014561	9
	5	72	94921.88	2787.466	-12415.6	1	12724.66	-77.34617	-1.350299E-006	-0.005154	8
	6	80	75421.88	3624.652	-15477.7	1	15896.45	-76.81968	-9.879993E-006	-0.0021167	8
	7	88	59859.37	4328.667	-18468.47	1	18968.97	-76.80904	2.748755E-005	-0.0075689	8
	8	96	47578.12	6266.263	-23759.78	1	24572.2	-75.22556	-1.641143E-005	0.0006804	8
	9	105	37828.12	7720.952	-29814.94	1	30798.43	-75.48148	-1.215571E-005	0.0104023	8
	10	115	30046.88	13655.37	-36803.28	1	39254.95	-69.6433	-1.157323E-006	-0.0130909	7
	11	122	23859.38	16547.2	-45185.88	1	48120.4	-69.88712	-3.825568E-006	0.0256008	7
	12	127	18984.38	21791.97	-55850.18	1	59951.09	-68.68496	-7.092128E-006	0.0117718	7
	13	133	15046.87	28638.9	-66959.86	1	72827.26	-66.84348	-6.773945E-006	0.0121929	7
	14	138	11953.13	36349.01	-80138.05	1	87996.35	-65.60191	8.031037E-007	0.0143171	7
	15	144	9515.62	48775.07	-99017.4	1	110378.6	-63.77555	1.357486E-006	-0.0205982	7
	16	150	7546.875	60864.46	-121495.7	1	135888.5	-63.39097	-5.406677E-006	0.0269148	7
	17	156	5928.309	90755.88	-140935.2	1	167628.6	-57.22029	-1.750737E-006	0.0221327	7
	18	162	4733.456	104417.4	-154801.7	1	186725.9	-55.99942	4.973398E-006	-0.0008127	7
	19	167	3796.875	145300.7	-206796.1	1	252738.8	-54.90706	1.198199E-006	-0.0199269	7
	20	173	2987.132	210432.5	-222036	1	305911.5	-46.53693	7.313885E-007	-0.0159379	6
	21	179	2390.625	260538.3	-252948.8	1	363129.8	-44.15321	-5.625547E-007	0.026527	6
	22	184	1884.191	382778.5	-199569.9	1	431679.8	-27.53626	-3.724514E-006	0.0256242	7
	23	191	1516.544	327768.9	-321071.9	1	458824.1	-44.40864	-6.562704E-006	0.026049	7
	24	197	1193.986	426331	-609407.2	1	743730.6	-55.02401	6.682119E-006	-0.0103366	7
	25	204	946.5144	12472.35	-420271.4	1	420456.4	-88.30014	-7.495633E-006	0.0192648	7
	26	210	751.7689	636028	90790.4	1	642475.3	8.123857	-1.160426E-006	-0.013566	7
	27	216	597.4265	939661.3	-503793.9	1	1066195	-28.19772	7.301762E-007	-0.0157135	6
	28	219	477.4305	943527.8	-499961.6	1	1067805	-27.91846	-1.019621E-008	0.0007098	6
	29	224	376.6741	1160498	-384802.3	1	1222632	-18.34469	-1.169346E-009	0.0006324	5
	30	227	298.2954	1262876	-362273.8	1	1313811	-16.00629	-1.064719E-009	0.0006876	5
	31	229	237.7717	1360473	-339984.3	1	1402311	-14.03093	-1.106021E-009	0.000621	5
	32	232	189.0121	1462247	-323826.4	1	1497674	-12.48708	-1.087177E-009	0.0006059	5
	33	235	150.2404	1561809	-319833.4	1	1594221	-11.57324	-1.139819E-009	0.0006317	5
	34	238	119.1737	1614866	-287396	1	1640241	-10.09121	-1.18303E-009	0.0007032	5
	35	240	95.0169	1805566	-263382	1	1824675	-8.299329	-1.164654E-009	0.0006071	5
	36	243	75.60484	1931976	-256889	1	1948980	-7.574018	-1.099173E-009	0.0006054	5
	37	246	54.50582	2047584	-212800.1	1	2058612	-5.933302	-1.192214E-009	0.0006999	5
	38	249	45.95588	2189888	-195514.7	1	2198599	-5.101878	-1.038982E-009	0.0006082	5
	39	251	37.20238	2330502	-178135.1	1	2337300	-4.370981	-1.196566E-009	0.0006944	5
	40	254	30.04808	2481547	-182445.7	1	2488245	-4.204876	-1.112797E-009	0.0006851	5
	41	257	23.91582	2698466	-163617.5	1	2703421	-3.469797	-1.145166E-009	0.0006269	5
	42	261	18.60119	2956697	-121690.8	1	2959200	-2.356831	-1.048725E-008	0.0007181	6
	43	264	15.02404	3174919	-162844.7	1	3179093	-2.936184	-1.089784E-009	0.0007023	5
	44	268	12.01923	3441597	-172367.6	1	3445910	-2.867184	-1.05187E-008	0.00066	6
	45	272	9.450605	3755584	-151207.8	1	3758627	-2.305605	-1.149799E-009	0.0006979	5
	46	276	7.512019	4033468	-38351.24	1	4033650	-0.5447665	-1.678914E-010	0.0006948	4
	47	279	5.978954	4365475	-56319.5	1	4365839	-0.7391385	-1.373585E-010	0.000704	4
	48	283	4.734848	4768608	-59960.17	1	4768984	-0.7203955	-1.60423E-010	0.0007042	4
	49	287	3.75601	5287431	-71470.37	1	5287915	-0.7744216	-1.596014E-010	0.0006534	4
	50	292	3.004808	6048442	-75348.56	1	6048911	-0.7137262	-1.354362E-010	0.0006585	4
	51	299	2.372217	6815754	-85865.87	1	6816295	-0.7217824	-1.278773E-010	0.000728	4
	52	303	1.878005	7558150	-100540.8	1	7558819	-0.7621209	-1.371781E-010	0.0006455	4
	53	308	1.512097	8521135	-120907.7	1	8521993	-0.8129242	-1.35679E-010	0.0006958	4
	54	313	1.201923	9.762977E+006	-131631.4	1	9.763864E+006	-0.7724556	-1.263155E-010	0.0006357	4
	55	319	0.956633	1.138166E+007	-173906.2	1	1.138298E+007	-0.8753837	-1.691984E-010	2.289731E-005	4
