EXPLAIN
TAG	EISPOT
TITLE	LABEL	Potentiostatic EIS	Test Identifier
DATE	LABEL	8/9/2020	Date
TIME	LABEL	16:20:21	Time
NOTES	NOTES	1	Notes...
	
PSTAT	PSTAT	REF3000-16137	Potentiostat
VDC	POTEN	0.00000E+000	T	DC Voltage (V)
FREQINIT	QUANT	3.00000E+005	Initial Freq. (Hz)
FREQFINAL	QUANT	1.00000E+000	Final Freq. (Hz)
PTSPERDEC	QUANT	1.00000E+001	Points/decade
VAC	QUANT	5.00000E+001	AC Voltage (mV rms)
AREA	QUANT	1.00000E+000	Sample Area (cm^2)
SPEED	SELECTOR	2	Optimize for:
ZGUESS	QUANT	1.00000E+003	Estimated Z (ohms)
EOC	QUANT	0	Open Circuit (V)
SEQUENCER	TOGGLE	TRUE	Run as Sequence
PSTATMODEL	IQUANT	5	Pstat Model
PSTATSECTION	LABEL	REF3000-16137	Pstat Section
PSTATSERIALNO	LABEL	16137	Pstat Serial Number
CTRLMODE	IQUANT	1	Control Mode
IESTAB	IQUANT	0	I/E Stability
CASPEED	IQUANT	1	Control Amp Speed
CONVENTION	IQUANT	1	Current Convention
ICHRANGE	IQUANT	2	Ich Range
ICHRANGEMODE	TOGGLE	F	Ich Auto Range
ICHOFFSETENABLE	TOGGLE	T	Ich Offset Enable
ICHOFFSET	QUANT	0	Ich Offset (V)
ICHFILTER	IQUANT	3	Ich Filter
VCHRANGE	IQUANT	2	Vch Range
VCHRANGEMODE	TOGGLE	F	Vch Auto Range
VCHOFFSETENABLE	TOGGLE	T	Vch Offset Enable
VCHOFFSET	QUANT	0	Vch Offset (V)
VCHFILTER	IQUANT	3	Vch Filter
ACHRANGE	IQUANT	2	Ach Range
ACHOFFSETENABLE	TOGGLE	F	Ach Offset Enable
ACHOFFSET	QUANT	0	Ach Offset (V)
ACHFILTER	IQUANT	3	Ach Filter
IERANGELOWERLIMIT	IQUANT	2	I/E Range Lower Limit
IERANGEMODE	TOGGLE	F	I/E AutoRange
IERANGE	IQUANT	11	I/E Range
POSFEEDENABLE	TOGGLE	F	Positive Feedback IR Comp
POSFEEDRESISTANCE	QUANT	0	Positive Feedback Resistance (ohm)
ACHSELECT	IQUANT	0	Ach Select
CABLEID	IQUANT	13	Cable ID
DCCALDATE	LABEL	7/31/2020	DC Calibration Date
ACCALDATE	LABEL	7/31/2020	AC Calibration Date
THERMOSELECT	IQUANT	1	Thermo Select
FRAMEWORKVERSION	QUANT	6.33	Framework Version
INSTRUMENTVERSION	LABEL	3.50	Instrument Version
COMPLIANCEVOLTAGE	IQUANT	0	Compliance Voltage
ZCURVE	TABLE
	Pt	Time	Freq	Zreal	Zimag	Zsig	Zmod	Zphz	Idc	Vdc	IERange
	#	s	Hz	ohm	ohm	V	ohm	°	A	V	#
	0	10	300046.9	7.477761	1.276115	1	7.585867	9.6845	2.687714E-005	0.0002799	10
	1	14	238359.4	7.517687	1.017028	1	7.586169	7.704465	4.745134E-005	0.000105	10
	2	17	189328.1	7.569681	0.7933426	1	7.61114	5.983058	-5.930173E-005	0.0004127	10
	3	19	150421.9	7.621269	0.6186641	1	7.646338	4.640866	1.293812E-005	0.0005602	10
	4	22	119484.4	7.666187	0.4578889	1	7.679849	3.418123	6.915872E-005	0.000345	10
	5	24	94921.88	7.721665	0.3547706	1	7.729811	2.630595	-2.116873E-005	0.0006646	10
	6	27	75421.88	7.771556	0.2354256	1	7.775121	1.735144	-2.440595E-005	0.0005986	10
	7	29	59859.37	7.827221	0.127604	1	7.828261	0.9339871	9.675276E-008	0.0006596	10
	8	32	47578.12	7.885696	0.0306881	1	7.885756	0.2229717	-3.035783E-005	0.0006365	10
	9	35	37828.12	7.946395	-0.0604896	1	7.946626	-0.4361388	-1.273895E-005	0.0006251	10
	10	37	30046.88	8.008737	-0.1517161	1	8.010174	-1.085272	-2.722256E-005	0.0006481	10
	11	40	23859.38	8.070056	-0.2490763	1	8.073899	-1.76783	2.206913E-005	0.0006614	10
	12	42	18984.38	8.130335	-0.3555454	1	8.138105	-2.503991	1.865532E-005	0.0006287	10
	13	44	15046.87	8.194375	-0.4808429	1	8.20847	-3.358244	1.786166E-005	0.0006213	10
	14	46	11953.13	8.262953	-0.6253766	1	8.286585	-4.328146	-1.836974E-005	0.0007231	10
	15	49	9515.62	8.334343	-0.796841	1	8.372349	-5.461411	-2.387793E-005	0.0007103	10
	16	51	7546.875	8.410166	-1.009867	1	8.47058	-6.84712	-2.823225E-005	0.0007171	10
	17	53	5928.309	8.494347	-1.279138	1	8.590117	-8.563657	1.98771E-005	0.0006659	10
	18	56	4733.456	8.583894	-1.590157	1	8.729939	-10.49501	-4.913858E-006	0.0006896	10
	19	58	3796.875	8.682607	-1.959515	1	8.900975	-12.71761	-1.065398E-005	0.0006702	10
	20	60	2987.132	8.796314	-2.461275	1	9.134168	-15.63202	-2.623087E-005	0.000731	10
	21	63	2390.625	8.920088	-3.032859	1	9.421581	-18.7782	9.989607E-006	0.0006147	10
	22	65	1884.191	9.067233	-3.79377	1	9.82891	-22.70465	1.649375E-005	0.0006178	10
	23	67	1516.544	9.229921	-4.646976	1	10.33372	-26.72382	1.756238E-005	0.0006314	10
	24	70	1193.986	9.43755	-5.808592	1	11.08184	-31.61133	-2.732848E-005	0.0007045	10
	25	72	946.5144	9.68674	-7.201348	1	12.0703	-36.62798	4.169652E-006	0.0006379	10
	26	74	751.7689	9.97079	-8.9243	1	13.38132	-41.82996	2.058517E-005	0.0006354	10
	27	77	597.4265	10.31933	-11.04378	1	15.11469	-46.94222	-2.285391E-005	0.000699	10
	28	79	477.4305	10.74267	-13.57834	1	17.31405	-51.65027	-5.864305E-006	0.0007317	10
	29	81	376.6741	11.29447	-16.89262	1	20.32057	-56.23318	-2.086871E-006	0.0006732	10
	30	84	298.2954	11.97694	-20.93414	1	24.11815	-60.22505	-2.34904E-006	0.0006751	10
	31	86	237.7717	12.81366	-25.77554	1	28.78486	-63.56689	-2.069583E-006	0.0006697	10
	32	89	189.0121	13.87287	-31.78983	1	34.68501	-66.42387	-1.760434E-006	0.0006681	10
	33	91	150.2404	15.20509	-39.18127	1	42.02816	-68.79024	-2.012249E-006	0.0006658	10
	34	93	119.1737	16.87839	-48.29485	1	51.15928	-70.73618	1.494277E-006	7.508355E-005	9
	35	96	95.0169	18.97172	-59.2787	1	62.24059	-72.25311	1.436812E-006	6.986865E-005	9
	36	98	75.60484	21.64066	-72.84879	1	75.99516	-73.45528	1.449022E-006	6.63687E-005	9
	37	101	54.50582	26.74466	-97.6788	1	101.274	-74.68758	1.337452E-006	6.718329E-005	9
	38	103	45.95588	30.23945	-113.8029	1	117.752	-75.11936	1.588779E-006	6.952469E-005	9
	39	106	37.20238	35.51957	-137.3096	1	141.8294	-75.49653	1.657151E-006	6.17536E-005	9
	40	108	30.04808	42.21389	-165.8342	1	171.1227	-75.7184	1.463449E-006	6.974517E-005	9
	41	110	23.91582	51.27521	-202.5137	1	208.9042	-75.79166	1.342705E-006	7.055628E-005	9
	42	113	18.60119	64.10751	-251.9654	1	259.9929	-75.72512	1.519955E-006	6.971263E-005	9
	43	115	15.02404	77.99913	-302.8186	1	312.7027	-75.55589	1.676854E-006	8.956917E-005	9
	44	117	12.01923	95.8194	-366.1462	1	378.4764	-75.33474	1.659473E-006	7.834513E-005	9
	45	120	9.450605	119.1038	-446.3091	1	461.928	-75.05803	5.074486E-007	0.000648	8
	46	122	7.512019	147.279	-540.2865	1	560.0005	-74.75198	6.197575E-007	0.0006612	8
	47	125	5.978954	180.6151	-652.5003	1	677.0365	-74.52766	4.827523E-007	0.000655	8
	48	128	4.734848	221.2489	-790.7968	1	821.1642	-74.36945	5.733098E-007	0.0006695	8
	49	131	3.75601	268.9999	-955.6	1	992.74	-74.27818	4.641754E-007	0.0006455	8
	50	135	3.004808	322.1588	-1146.408	1	1190.814	-74.30379	5.343459E-007	0.0006112	8
	51	138	2.372217	386.3069	-1392.366	1	1444.963	-74.49352	5.000882E-007	0.0005814	8
	52	143	1.878005	459.6812	-1689.431	1	1750.853	-74.77875	4.954492E-007	0.0006535	8
	53	147	1.512097	536.8815	-2027.042	1	2096.936	-75.16529	4.88636E-007	0.0005463	8
	54	153	1.201923	626.8102	-2468.067	1	2546.418	-75.74998	4.51619E-007	0.000725	8
	55	159	0.956633	728.785	-3008.928	1	3095.929	-76.38474	4.918815E-007	6.358732E-006	8
