EXPLAIN
TAG	EISPOT
TITLE	LABEL	Potentiostatic EIS	Test Identifier
DATE	LABEL	8/9/2020	Date
TIME	LABEL	16:28:41	Time
NOTES	NOTES	1	Notes...
	
PSTAT	PSTAT	REF3000-16137	Potentiostat
VDC	POTEN	0.00000E+000	T	DC Voltage (V)
FREQINIT	QUANT	3.00000E+005	Initial Freq. (Hz)
FREQFINAL	QUANT	1.00000E+000	Final Freq. (Hz)
PTSPERDEC	QUANT	1.00000E+001	Points/decade
VAC	QUANT	5.00000E+001	AC Voltage (mV rms)
AREA	QUANT	1.00000E+000	Sample Area (cm^2)
SPEED	SELECTOR	2	Optimize for:
ZGUESS	QUANT	1.00000E+003	Estimated Z (ohms)
EOC	QUANT	0	Open Circuit (V)
SEQUENCER	TOGGLE	TRUE	Run as Sequence
PSTATMODEL	IQUANT	5	Pstat Model
PSTATSECTION	LABEL	REF3000-16137	Pstat Section
PSTATSERIALNO	LABEL	16137	Pstat Serial Number
CTRLMODE	IQUANT	1	Control Mode
IESTAB	IQUANT	0	I/E Stability
CASPEED	IQUANT	1	Control Amp Speed
CONVENTION	IQUANT	1	Current Convention
ICHRANGE	IQUANT	2	Ich Range
ICHRANGEMODE	TOGGLE	F	Ich Auto Range
ICHOFFSETENABLE	TOGGLE	T	Ich Offset Enable
ICHOFFSET	QUANT	0	Ich Offset (V)
ICHFILTER	IQUANT	3	Ich Filter
VCHRANGE	IQUANT	2	Vch Range
VCHRANGEMODE	TOGGLE	F	Vch Auto Range
VCHOFFSETENABLE	TOGGLE	T	Vch Offset Enable
VCHOFFSET	QUANT	0	Vch Offset (V)
VCHFILTER	IQUANT	3	Vch Filter
ACHRANGE	IQUANT	2	Ach Range
ACHOFFSETENABLE	TOGGLE	F	Ach Offset Enable
ACHOFFSET	QUANT	0	Ach Offset (V)
ACHFILTER	IQUANT	3	Ach Filter
IERANGELOWERLIMIT	IQUANT	2	I/E Range Lower Limit
IERANGEMODE	TOGGLE	F	I/E AutoRange
IERANGE	IQUANT	11	I/E Range
POSFEEDENABLE	TOGGLE	F	Positive Feedback IR Comp
POSFEEDRESISTANCE	QUANT	0	Positive Feedback Resistance (ohm)
ACHSELECT	IQUANT	0	Ach Select
CABLEID	IQUANT	13	Cable ID
DCCALDATE	LABEL	7/31/2020	DC Calibration Date
ACCALDATE	LABEL	7/31/2020	AC Calibration Date
THERMOSELECT	IQUANT	1	Thermo Select
FRAMEWORKVERSION	QUANT	6.33	Framework Version
INSTRUMENTVERSION	LABEL	3.50	Instrument Version
COMPLIANCEVOLTAGE	IQUANT	0	Compliance Voltage
ZCURVE	TABLE
	Pt	Time	Freq	Zreal	Zimag	Zsig	Zmod	Zphz	Idc	Vdc	IERange
	#	s	Hz	ohm	ohm	V	ohm	°	A	V	#
	0	7	300046.9	43.98301	1.443895	1	44.0067	1.880258	4.048604E-005	-0.0011123	9
	1	10	238359.4	44.74181	1.133361	1	44.75616	1.451057	6.794715E-006	-0.0013396	9
	2	13	189328.1	45.38225	0.8997083	1	45.39117	1.135747	-5.718276E-005	0.0018079	9
	3	16	150421.9	45.96515	0.6000414	1	45.96907	0.747912	1.130378E-006	-0.0009616	9
	4	18	119484.4	46.49547	0.4745398	1	46.49789	0.5847492	-5.958513E-005	0.0021235	9
	5	21	94921.88	47.16318	0.4996893	1	47.16583	0.6070204	1.819091E-005	-0.000227	9
	6	23	75421.88	47.72103	0.3228666	1	47.72212	0.3876406	-8.23772E-006	-2.342711E-005	9
	7	26	59859.37	48.30305	0.1771563	1	48.30337	0.2101371	1.845894E-005	-0.000562	9
	8	28	47578.12	48.8971	0.041355	1	48.89712	0.0484582	6.416054E-006	-0.0003845	9
	9	31	37828.12	49.52645	-0.0998495	1	49.52655	-0.1155129	-1.274055E-005	0.0001779	9
	10	33	30046.88	50.1569	-0.2233656	1	50.15739	-0.2551557	1.630994E-005	-0.0001766	9
	11	36	23859.38	50.78599	-0.3540344	1	50.78722	-0.3994084	2.134887E-005	-0.0003982	9
	12	38	18984.38	51.37924	-0.4799783	1	51.38148	-0.5352342	3.424939E-006	-0.0003347	9
	13	41	15046.87	51.97275	-0.6172283	1	51.97642	-0.6804125	1.641818E-005	-0.0005499	9
	14	43	11953.13	52.61446	-0.8376376	1	52.62112	-0.9120886	2.020186E-005	-0.0004833	9
	15	45	9515.62	53.24414	-1.035869	1	53.25421	-1.114554	3.80906E-006	-0.0003476	9
	16	47	7546.875	53.88414	-1.298675	1	53.89979	-1.380632	1.050016E-005	0.0001558	9
	17	50	5928.309	54.55861	-1.631036	1	54.58299	-1.712354	-1.367881E-005	0.0006958	9
	18	52	4733.456	55.25007	-2.015739	1	55.28683	-2.089448	-9.058795E-006	6.134085E-005	9
	19	54	3796.875	55.93139	-2.47756	1	55.98623	-2.53634	2.224428E-006	-0.0003391	9
	20	57	2987.132	56.65823	-3.114296	1	56.74376	-3.146174	1.066038E-005	-0.000502	9
	21	59	2390.625	57.41136	-3.850979	1	57.54037	-3.837478	-1.507018E-005	0.0006971	9
	22	61	1884.191	58.2582	-4.803286	1	58.45588	-4.713275	-1.449046E-005	0.0007263	9
	23	64	1516.544	59.03209	-5.897267	1	59.32592	-5.704884	1.713845E-005	-0.0001252	9
	24	66	1193.986	59.93162	-7.353019	1	60.381	-6.99467	-2.652146E-006	-0.00017	9
	25	68	946.5144	60.89059	-9.132459	1	61.57163	-8.529726	2.19065E-005	-0.0003907	9
	26	71	751.7689	61.87595	-11.33322	1	62.90528	-10.37927	-1.73108E-005	0.0006875	9
	27	73	597.4265	62.90578	-14.01884	1	64.44894	-12.56333	1.73275E-005	-0.000124	9
	28	75	477.4305	64.05831	-17.26862	1	66.3451	-15.08696	1.467916E-006	7.346254E-005	9
	29	78	376.6741	65.34423	-21.52541	1	68.79834	-18.23269	1.394576E-006	7.506822E-005	9
	30	80	298.2954	66.76543	-26.73437	1	71.91904	-21.82227	1.406463E-006	7.128352E-005	9
	31	82	237.7717	68.39523	-33.00262	1	75.9413	-25.75861	1.434639E-006	7.198912E-005	9
	32	85	189.0121	70.25267	-40.82818	1	81.25502	-30.16352	1.409809E-006	7.305212E-005	9
	33	87	150.2404	72.39305	-50.49434	1	88.26342	-34.89587	1.398284E-006	7.526577E-005	9
	34	90	119.1737	74.89605	-62.55064	1	97.5807	-39.86749	9.979257E-007	0.0001284	9
	35	92	95.0169	77.81785	-77.09668	1	109.5423	-44.73328	1.461367E-006	7.089527E-005	9
	36	94	75.60484	81.34191	-95.1818	1	125.2042	-49.48296	1.458479E-006	7.664989E-005	9
	37	97	54.50582	87.2399	-128.5601	1	155.3657	-55.83948	1.416937E-006	6.405823E-005	9
	38	100	45.95588	91.50077	-150.4522	1	176.0916	-58.69322	1.42918E-006	7.907959E-005	9
	39	102	37.20238	97.4282	-182.6349	1	206.997	-61.92191	1.334229E-006	7.417535E-005	9
	40	104	30.04808	104.7113	-222.1331	1	245.5759	-64.76129	1.423739E-006	6.999247E-005	9
	41	107	23.91582	114.2401	-273.7345	1	296.6166	-67.34732	1.428E-006	7.236877E-005	9
	42	109	18.60119	127.2009	-344.1201	1	366.8769	-69.71362	1.428866E-006	7.83448E-005	9
	43	111	15.02404	140.624	-415.9971	1	439.1226	-71.32265	3.047101E-007	0.0006579	8
	44	114	12.01923	158.6685	-509.314	1	533.4571	-72.69642	3.700706E-007	0.0006526	8
	45	116	9.450605	183.0748	-633.0079	1	658.9502	-73.86938	1.922886E-007	0.00065	8
	46	119	7.512019	212.3808	-778.3433	1	806.7986	-74.73766	2.109689E-007	0.0006381	8
	47	121	5.978954	249.6414	-955.705	1	987.772	-75.36076	3.335268E-007	0.0006453	8
	48	124	4.734848	298.5177	-1178.361	1	1215.585	-75.78416	3.042207E-007	0.0006721	8
	49	128	3.75601	359.0513	-1449.952	1	1493.746	-76.09164	2.797803E-007	0.0007082	8
	50	131	3.004808	433.4681	-1767.394	1	1819.773	-76.21973	2.192509E-007	0.0007362	8
	51	135	2.372217	532.9134	-2179.18	1	2243.395	-76.25815	2.791749E-007	0.0007099	8
	52	139	1.878005	660.9373	-2676.646	1	2757.041	-76.12957	2.729437E-007	0.0006267	8
	53	144	1.512097	811.0105	-3234.331	1	3334.462	-75.92329	2.808931E-007	0.0007291	8
	54	149	1.201923	1002.851	-3961.787	1	4086.743	-75.79504	2.705009E-007	0.0006219	8
	55	155	0.956633	1245.351	-4846.011	1	5003.471	-75.58772	-3.518953E-010	-1.428364E-005	7
