EXPLAIN
TAG	EISPOT
TITLE	LABEL	Potentiostatic EIS	Test Identifier
DATE	LABEL	8/9/2020	Date
TIME	LABEL	16:00:33	Time
NOTES	NOTES	1	Notes...
	
PSTAT	PSTAT	REF3000-16137	Potentiostat
VDC	POTEN	0.00000E+000	T	DC Voltage (V)
FREQINIT	QUANT	3.00000E+005	Initial Freq. (Hz)
FREQFINAL	QUANT	1.00000E+000	Final Freq. (Hz)
PTSPERDEC	QUANT	1.00000E+001	Points/decade
VAC	QUANT	5.00000E+001	AC Voltage (mV rms)
AREA	QUANT	1.00000E+000	Sample Area (cm^2)
SPEED	SELECTOR	2	Optimize for:
ZGUESS	QUANT	1.00000E+003	Estimated Z (ohms)
EOC	QUANT	0	Open Circuit (V)
SEQUENCER	TOGGLE	TRUE	Run as Sequence
PSTATMODEL	IQUANT	5	Pstat Model
PSTATSECTION	LABEL	REF3000-16137	Pstat Section
PSTATSERIALNO	LABEL	16137	Pstat Serial Number
CTRLMODE	IQUANT	1	Control Mode
IESTAB	IQUANT	0	I/E Stability
CASPEED	IQUANT	1	Control Amp Speed
CONVENTION	IQUANT	1	Current Convention
ICHRANGE	IQUANT	2	Ich Range
ICHRANGEMODE	TOGGLE	F	Ich Auto Range
ICHOFFSETENABLE	TOGGLE	T	Ich Offset Enable
ICHOFFSET	QUANT	0	Ich Offset (V)
ICHFILTER	IQUANT	3	Ich Filter
VCHRANGE	IQUANT	2	Vch Range
VCHRANGEMODE	TOGGLE	F	Vch Auto Range
VCHOFFSETENABLE	TOGGLE	T	Vch Offset Enable
VCHOFFSET	QUANT	0	Vch Offset (V)
VCHFILTER	IQUANT	3	Vch Filter
ACHRANGE	IQUANT	2	Ach Range
ACHOFFSETENABLE	TOGGLE	F	Ach Offset Enable
ACHOFFSET	QUANT	0	Ach Offset (V)
ACHFILTER	IQUANT	1	Ach Filter
IERANGELOWERLIMIT	IQUANT	2	I/E Range Lower Limit
IERANGEMODE	TOGGLE	F	I/E AutoRange
IERANGE	IQUANT	11	I/E Range
POSFEEDENABLE	TOGGLE	F	Positive Feedback IR Comp
POSFEEDRESISTANCE	QUANT	0	Positive Feedback Resistance (ohm)
ACHSELECT	IQUANT	0	Ach Select
CABLEID	IQUANT	13	Cable ID
DCCALDATE	LABEL	7/31/2020	DC Calibration Date
ACCALDATE	LABEL	7/31/2020	AC Calibration Date
THERMOSELECT	IQUANT	1	Thermo Select
FRAMEWORKVERSION	QUANT	6.33	Framework Version
INSTRUMENTVERSION	LABEL	3.50	Instrument Version
COMPLIANCEVOLTAGE	IQUANT	0	Compliance Voltage
ZCURVE	TABLE
	Pt	Time	Freq	Zreal	Zimag	Zsig	Zmod	Zphz	Idc	Vdc	IERange
	#	s	Hz	ohm	ohm	V	ohm	°	A	V	#
	0	9	300046.9	2.107404	1.096187	1	2.375453	27.48164	-0.0001216	0.0008901	12
	1	13	238359.4	2.045337	0.8737713	1	2.224158	23.13225	4.475261E-006	-0.0002812	12
	2	17	189328.1	1.966739	0.8221583	1	2.131667	22.68645	-1.85912E-005	1.299673E-005	11
	3	20	150421.9	1.961919	0.6363953	1	2.062553	17.9717	1.621634E-005	0.0002324	11
	4	22	119484.4	1.954255	0.487536	1	2.014151	14.00788	-0.0001058	0.0002477	11
	5	25	94921.88	1.951357	0.3627554	1	1.984789	10.53101	-3.268227E-005	0.0004586	11
	6	27	75421.88	1.952357	0.2546071	1	1.968889	7.430019	9.084068E-006	0.0005173	11
	7	30	59859.37	1.954147	0.1600747	1	1.960692	4.68295	2.209477E-005	0.0005748	11
	8	32	47578.12	1.95762	0.0763221	1	1.959107	2.232671	-4.494666E-005	0.0005842	11
	9	35	37828.12	1.962103	-0.0029654	1	1.962105	-0.0865938	2.474272E-005	0.000653	11
	10	37	30046.88	1.968123	-0.0812884	1	1.969801	-2.365115	1.092356E-005	0.0006768	11
	11	40	23859.38	1.97482	-0.1629127	1	1.981528	-4.715936	2.014934E-005	0.0006891	11
	12	42	18984.38	1.983237	-0.2503816	1	1.99898	-7.195463	-2.367526E-005	0.0006811	11
	13	45	15046.87	1.989133	-0.3510338	1	2.01987	-10.00827	-2.646409E-005	0.0006929	11
	14	47	11953.13	2.001027	-0.4664997	1	2.054685	-13.12298	9.478076E-006	0.0007082	11
	15	49	9515.62	2.016	-0.6013901	1	2.103788	-16.6103	-1.132498E-005	0.0006773	11
	16	52	7546.875	2.035735	-0.7662365	1	2.175164	-20.62599	1.531326E-005	0.0006969	11
	17	54	5928.309	2.061314	-0.976309	1	2.280832	-25.34383	2.508588E-005	0.0007113	11
	18	56	4733.456	2.092114	-1.215415	1	2.419541	-30.15448	2.87808E-005	0.000711	11
	19	58	3796.875	2.131454	-1.500342	1	2.606554	-35.14191	-6.394972E-006	0.0006983	11
	20	61	2987.132	2.183829	-1.882153	1	2.882987	-40.75671	-3.167104E-005	0.0006801	11
	21	63	2390.625	2.248703	-2.315872	1	3.227992	-45.84306	-1.657225E-005	0.0006972	11
	22	65	1884.191	2.334356	-2.887989	1	3.713448	-51.05146	2.99826E-005	0.0007087	11
	23	68	1516.544	2.438869	-3.529469	1	4.290132	-55.35546	2.152551E-005	0.000657	10
	24	70	1193.986	2.58175	-4.391728	1	5.09438	-59.55016	-1.508658E-005	0.000673	10
	25	72	946.5144	2.757165	-5.426384	1	6.086675	-63.06472	2.187391E-005	0.0006529	10
	26	75	751.7689	2.98683	-6.68436	1	7.321326	-65.92306	1.805603E-005	0.0006432	10
	27	77	597.4265	3.267119	-8.220348	1	8.845801	-68.325	-1.920723E-005	0.0006796	10
	28	79	477.4305	3.624687	-10.05271	1	10.68622	-70.17231	-1.460104E-006	0.0006728	10
	29	82	376.6741	4.103216	-12.42366	1	13.08372	-71.72295	-9.861883E-007	0.0006742	10
	30	84	298.2954	4.714521	-15.29577	1	16.00585	-72.86945	-6.719931E-007	0.0006737	10
	31	86	237.7717	5.482425	-18.70269	1	19.48968	-73.66225	-1.118127E-006	0.0006693	10
	32	89	189.0121	6.468495	-22.88124	1	23.77799	-74.21448	-1.137001E-006	0.0006677	10
	33	91	150.2404	7.722651	-27.94185	1	28.98942	-74.55011	-1.396336E-006	0.0006645	10
	34	94	119.1737	9.316386	-34.10219	1	35.35186	-74.72019	-1.08773E-006	0.0006692	10
	35	96	95.0169	11.13548	-41.13823	1	42.61869	-74.85388	1.21546E-006	6.814439E-005	9
	36	99	75.60484	13.52557	-49.87601	1	51.67744	-74.82722	1.070617E-006	6.894709E-005	9
	37	101	54.50582	17.90363	-65.53359	1	67.9352	-74.7198	8.883655E-007	6.458567E-005	9
	38	104	45.95588	20.71644	-75.49295	1	78.28382	-74.65488	1.420509E-006	7.3564E-005	9
	39	106	37.20238	24.76658	-89.83871	1	93.19	-74.58762	1.257868E-006	6.693912E-005	9
	40	108	30.04808	29.64377	-107.1626	1	111.1872	-74.53727	1.107293E-006	7.529167E-005	9
	41	111	23.91582	35.73827	-129.3065	1	134.1543	-74.55004	9.657032E-007	7.227478E-005	9
	42	113	18.60119	43.57557	-158.817	1	164.6866	-74.657	5.809687E-007	0.0001276	9
	43	115	15.02404	51.35485	-189.4174	1	196.2556	-74.83063	1.486235E-006	7.441254E-005	9
	44	118	12.01923	60.86213	-227.9949	1	235.9786	-75.05369	1.235734E-006	6.725164E-005	9
	45	120	9.450605	72.87614	-279.0013	1	288.362	-75.36121	1.371937E-006	7.625522E-005	9
	46	123	7.512019	86.63134	-339.0471	1	349.9399	-75.66679	1.521248E-006	9.478354E-005	9
	47	125	5.978954	103.5003	-412.284	1	425.0769	-75.90762	1.361146E-006	7.291224E-005	9
	48	128	4.734848	124.5778	-502.9694	1	518.1678	-76.08868	5.230416E-007	0.0006611	8
	49	132	3.75601	152.1377	-615.3413	1	633.8697	-76.11262	3.87413E-007	0.0006503	8
	50	135	3.004808	187.2846	-747.3627	1	770.4716	-75.93172	4.984109E-007	0.0006153	8
	51	139	2.372217	236.7314	-919.056	1	949.0552	-75.55568	4.010687E-007	0.0005779	8
	52	143	1.878005	305.8063	-1124.723	1	1165.555	-74.78928	4.399035E-007	0.0006514	8
	53	148	1.512097	393.2352	-1350.664	1	1406.743	-73.76749	4.028007E-007	0.0005794	8
	54	153	1.201923	518.4833	-1641.564	1	1721.499	-72.47143	4.221208E-007	0.0006666	8
	55	159	0.956633	691.1488	-1976.151	1	2093.528	-70.72298	2.803294E-007	2.250778E-006	8
