EXPLAIN
TAG	EISPOT
TITLE	LABEL	Potentiostatic EIS	Test Identifier
DATE	LABEL	8/9/2020	Date
TIME	LABEL	16:37:12	Time
NOTES	NOTES	1	Notes...
	
PSTAT	PSTAT	REF3000-16137	Potentiostat
VDC	POTEN	0.00000E+000	T	DC Voltage (V)
FREQINIT	QUANT	3.00000E+005	Initial Freq. (Hz)
FREQFINAL	QUANT	1.00000E+000	Final Freq. (Hz)
PTSPERDEC	QUANT	1.00000E+001	Points/decade
VAC	QUANT	5.00000E+001	AC Voltage (mV rms)
AREA	QUANT	1.00000E+000	Sample Area (cm^2)
SPEED	SELECTOR	2	Optimize for:
ZGUESS	QUANT	1.00000E+003	Estimated Z (ohms)
EOC	QUANT	0	Open Circuit (V)
SEQUENCER	TOGGLE	TRUE	Run as Sequence
PSTATMODEL	IQUANT	5	Pstat Model
PSTATSECTION	LABEL	REF3000-16137	Pstat Section
PSTATSERIALNO	LABEL	16137	Pstat Serial Number
CTRLMODE	IQUANT	1	Control Mode
IESTAB	IQUANT	0	I/E Stability
CASPEED	IQUANT	1	Control Amp Speed
CONVENTION	IQUANT	1	Current Convention
ICHRANGE	IQUANT	2	Ich Range
ICHRANGEMODE	TOGGLE	F	Ich Auto Range
ICHOFFSETENABLE	TOGGLE	T	Ich Offset Enable
ICHOFFSET	QUANT	0	Ich Offset (V)
ICHFILTER	IQUANT	3	Ich Filter
VCHRANGE	IQUANT	2	Vch Range
VCHRANGEMODE	TOGGLE	F	Vch Auto Range
VCHOFFSETENABLE	TOGGLE	T	Vch Offset Enable
VCHOFFSET	QUANT	0	Vch Offset (V)
VCHFILTER	IQUANT	3	Vch Filter
ACHRANGE	IQUANT	2	Ach Range
ACHOFFSETENABLE	TOGGLE	F	Ach Offset Enable
ACHOFFSET	QUANT	0	Ach Offset (V)
ACHFILTER	IQUANT	3	Ach Filter
IERANGELOWERLIMIT	IQUANT	2	I/E Range Lower Limit
IERANGEMODE	TOGGLE	F	I/E AutoRange
IERANGE	IQUANT	11	I/E Range
POSFEEDENABLE	TOGGLE	F	Positive Feedback IR Comp
POSFEEDRESISTANCE	QUANT	0	Positive Feedback Resistance (ohm)
ACHSELECT	IQUANT	0	Ach Select
CABLEID	IQUANT	13	Cable ID
DCCALDATE	LABEL	7/31/2020	DC Calibration Date
ACCALDATE	LABEL	7/31/2020	AC Calibration Date
THERMOSELECT	IQUANT	1	Thermo Select
FRAMEWORKVERSION	QUANT	6.33	Framework Version
INSTRUMENTVERSION	LABEL	3.50	Instrument Version
COMPLIANCEVOLTAGE	IQUANT	0	Compliance Voltage
ZCURVE	TABLE
	Pt	Time	Freq	Zreal	Zimag	Zsig	Zmod	Zphz	Idc	Vdc	IERange
	#	s	Hz	ohm	ohm	V	ohm	°	A	V	#
	0	15	300046.9	1316.313	-516.8172	1	1414.135	-21.43621	-1.46818E-005	0.0016628	9
	1	25	238359.4	1621.865	-623.8834	1	1737.722	-21.04025	2.93157E-005	-0.0020783	9
	2	47	189328.1	1844.905	-653.0458	1	1957.075	-19.49257	-2.127919E-005	0.0016085	9
	3	54	150421.9	2069.822	-633.711	1	2164.66	-17.02286	2.141823E-005	-0.0009385	9
	4	62	119484.4	2293.337	-543.8553	1	2356.942	-13.34101	1.810802E-005	-0.0125144	8
	5	69	94921.88	2495.837	-579.1536	1	2562.152	-13.06415	-2.358164E-005	0.0004399	9
	6	76	75421.88	2722.926	-486.5412	1	2766.053	-10.13088	-2.427811E-005	0.0091473	8
	7	82	59859.37	2926.835	-454.9895	1	2961.99	-8.836156	-2.205785E-005	0.0101984	8
	8	88	47578.12	3134.479	-418.0658	1	3162.236	-7.597073	-2.223637E-005	0.0102648	8
	9	93	37828.12	3388.624	-433.8596	1	3416.285	-7.296124	-1.22472E-005	0.0010822	9
	10	101	30046.88	3698.563	-374.3103	1	3717.456	-5.7789	2.489032E-005	-0.0050669	8
	11	109	23859.38	3975.58	-357.6042	1	3991.631	-5.139935	2.586069E-005	-0.0072462	8
	12	114	18984.38	4240.722	-320.449	1	4252.812	-4.321328	-2.167795E-005	0.0051303	8
	13	119	15046.87	4506.997	-287.6237	1	4516.166	-3.651501	-2.318894E-005	0.0106106	8
	14	125	11953.13	4810.911	-267.4301	1	4818.338	-3.181698	-2.330494E-005	0.0051727	8
	15	130	9515.62	5104.809	-231.1057	1	5110.037	-2.592133	-1.021577E-005	0.009509	8
	16	135	7546.875	5414.451	-219.2185	1	5418.887	-2.318506	2.343313E-005	-0.0031025	8
	17	141	5928.309	5813.926	-210.0785	1	5817.721	-2.069406	2.631127E-005	-0.0072678	8
	18	146	4733.456	6172.271	-194.6793	1	6175.341	-1.806564	-2.35006E-005	0.0107392	8
	19	152	3796.875	6571.187	-181.2881	1	6573.687	-1.580294	2.654295E-005	-0.0072995	8
	20	157	2987.132	6955.307	-194.0782	1	6958.014	-1.598344	7.029648E-006	-0.0072779	8
	21	162	2390.625	7333.502	-80.68354	1	7333.946	-0.6303455	3.564903E-006	-0.0227903	7
	22	166	1884.191	7690.686	-95.9694	1	7691.284	-0.7149369	-5.132715E-006	0.024188	7
	23	170	1516.544	8098.744	-58.30323	1	8098.954	-0.4124678	3.554235E-006	-0.0228124	7
	24	174	1193.986	8550.202	-44.82024	1	8550.319	-0.3003423	7.041445E-006	-0.0215068	7
	25	179	946.5144	8917.762	-130.9928	1	8918.724	-0.8415556	-2.040554E-006	0.0209686	7
	26	182	751.7689	9374.448	-15.36122	1	9374.461	-0.0938863	4.631628E-008	0.0160129	7
	27	184	597.4265	9337.889	-112.0916	1	9338.562	-0.6877428	3.541952E-006	-0.0231235	7
	28	187	477.4305	9795.27	-69.73746	1	9795.52	-0.4079105	-8.483162E-008	0.0005811	7
	29	189	376.6741	10081.01	-71.27943	1	10081.27	-0.4051123	-9.349166E-008	0.0006337	7
	30	192	298.2954	10374.78	-76.3876	1	10375.06	-0.4218509	-8.967986E-008	0.0005804	7
	31	194	237.7717	10690.04	-84.19186	1	10690.37	-0.4512367	-8.977598E-008	0.0006087	7
	32	196	189.0121	11018.96	-95.6535	1	11019.38	-0.4973614	-8.520339E-008	0.000664	7
	33	199	150.2404	11360.21	-105.5458	1	11360.7	-0.5323104	-8.800782E-008	0.0006079	7
	34	201	119.1737	11711.95	-128.1071	1	11712.65	-0.6266847	-1.139086E-007	0.0006656	7
	35	204	95.0169	12077.83	-153.4512	1	12078.8	-0.7279148	-7.940449E-008	0.0005839	7
	36	206	75.60484	12473.04	-183.8575	1	12474.4	-0.8445007	-8.821385E-008	0.0006582	7
	37	209	54.50582	12895.38	-241.2677	1	12897.64	-1.071857	-1.050088E-007	0.0006147	7
	38	211	45.95588	13302.09	-278.988	1	13305.02	-1.201502	-8.018075E-008	0.0005914	7
	39	213	37.20238	13710.74	-338.8262	1	13714.92	-1.415632	-7.917679E-008	0.0005728	7
	40	216	30.04808	14142.75	-408.3385	1	14148.64	-1.653821	-8.772789E-008	0.0005735	7
	41	218	23.91582	14599.73	-510.09	1	14608.64	-2.001004	-1.258051E-007	0.0005757	7
	42	221	18.60119	15058.35	-647.626	1	15072.27	-2.462646	-1.860814E-008	0.0005848	7
	43	223	15.02404	15523.81	-750.0605	1	15541.92	-2.766196	-2.077229E-008	0.0006234	7
	44	225	12.01923	16005.13	-932.489	1	16032.28	-3.33439	-1.630198E-007	0.0006938	7
	45	228	9.450605	16570.08	-1188.659	1	16612.66	-4.103098	-1.242966E-007	0.0006577	7
	46	230	7.512019	17126.2	-1455.913	1	17187.98	-4.85908	-9.214546E-009	0.0005744	7
	47	233	5.978954	17847.6	-1830.515	1	17941.22	-5.855989	-3.498067E-008	0.0006699	7
	48	236	4.734848	18658.38	-2276.889	1	18796.79	-6.957428	-3.418467E-008	0.0006444	7
	49	239	3.75601	19595.38	-2822.512	1	19797.62	-8.196487	-1.302257E-007	0.0005685	7
	50	243	3.004808	20688.92	-3450.628	1	20974.71	-9.468989	-1.246833E-007	0.0006709	7
	51	246	2.372217	21898.05	-4302.869	1	22316.8	-11.11673	-1.209917E-007	0.0006565	7
	52	250	1.878005	23397.93	-5360.274	1	24004.08	-12.90333	-1.198872E-007	0.0006095	7
	53	255	1.512097	25214.83	-6523.457	1	26045.02	-14.50524	-1.106549E-007	0.0005639	7
	54	261	1.201923	27428.97	-8169.142	1	28619.63	-16.58506	-1.058322E-007	0.0006627	7
	55	267	0.956633	30182.89	-10135.71	1	31839.28	-18.56255	-1.074347E-007	-2.305137E-005	7
