EXPLAIN
TAG	EISPOT
TITLE	LABEL	Potentiostatic EIS	Test Identifier
DATE	LABEL	8/9/2020	Date
TIME	LABEL	16:14:45	Time
NOTES	NOTES	1	Notes...
	
PSTAT	PSTAT	REF3000-16137	Potentiostat
VDC	POTEN	0.00000E+000	T	DC Voltage (V)
FREQINIT	QUANT	3.00000E+005	Initial Freq. (Hz)
FREQFINAL	QUANT	1.00000E+000	Final Freq. (Hz)
PTSPERDEC	QUANT	1.00000E+001	Points/decade
VAC	QUANT	5.00000E+001	AC Voltage (mV rms)
AREA	QUANT	1.00000E+000	Sample Area (cm^2)
SPEED	SELECTOR	2	Optimize for:
ZGUESS	QUANT	1.00000E+003	Estimated Z (ohms)
EOC	QUANT	0	Open Circuit (V)
SEQUENCER	TOGGLE	TRUE	Run as Sequence
PSTATMODEL	IQUANT	5	Pstat Model
PSTATSECTION	LABEL	REF3000-16137	Pstat Section
PSTATSERIALNO	LABEL	16137	Pstat Serial Number
CTRLMODE	IQUANT	1	Control Mode
IESTAB	IQUANT	0	I/E Stability
CASPEED	IQUANT	1	Control Amp Speed
CONVENTION	IQUANT	1	Current Convention
ICHRANGE	IQUANT	2	Ich Range
ICHRANGEMODE	TOGGLE	F	Ich Auto Range
ICHOFFSETENABLE	TOGGLE	T	Ich Offset Enable
ICHOFFSET	QUANT	0	Ich Offset (V)
ICHFILTER	IQUANT	3	Ich Filter
VCHRANGE	IQUANT	2	Vch Range
VCHRANGEMODE	TOGGLE	F	Vch Auto Range
VCHOFFSETENABLE	TOGGLE	T	Vch Offset Enable
VCHOFFSET	QUANT	0	Vch Offset (V)
VCHFILTER	IQUANT	3	Vch Filter
ACHRANGE	IQUANT	2	Ach Range
ACHOFFSETENABLE	TOGGLE	F	Ach Offset Enable
ACHOFFSET	QUANT	0	Ach Offset (V)
ACHFILTER	IQUANT	3	Ach Filter
IERANGELOWERLIMIT	IQUANT	2	I/E Range Lower Limit
IERANGEMODE	TOGGLE	F	I/E AutoRange
IERANGE	IQUANT	11	I/E Range
POSFEEDENABLE	TOGGLE	F	Positive Feedback IR Comp
POSFEEDRESISTANCE	QUANT	0	Positive Feedback Resistance (ohm)
ACHSELECT	IQUANT	0	Ach Select
CABLEID	IQUANT	13	Cable ID
DCCALDATE	LABEL	7/31/2020	DC Calibration Date
ACCALDATE	LABEL	7/31/2020	AC Calibration Date
THERMOSELECT	IQUANT	1	Thermo Select
FRAMEWORKVERSION	QUANT	6.33	Framework Version
INSTRUMENTVERSION	LABEL	3.50	Instrument Version
COMPLIANCEVOLTAGE	IQUANT	0	Compliance Voltage
ZCURVE	TABLE
	Pt	Time	Freq	Zreal	Zimag	Zsig	Zmod	Zphz	Idc	Vdc	IERange
	#	s	Hz	ohm	ohm	V	ohm	°	A	V	#
	0	10	300046.9	3.646959	1.329377	1	3.881695	20.02764	1.71988E-005	-7.102072E-005	10
	1	14	238359.4	3.640819	1.051669	1	3.789666	16.11163	2.281365E-005	-0.0004287	10
	2	17	189328.1	3.648138	0.8248442	1	3.740225	12.74036	-2.191117E-005	-8.130448E-005	10
	3	19	150421.9	3.663148	0.6423773	1	3.719046	9.94637	-7.813358E-005	0.0002647	10
	4	22	119484.4	3.669045	0.4837772	1	3.700801	7.511332	-1.160734E-005	0.000329	10
	5	24	94921.88	3.684836	0.3669685	1	3.703064	5.687267	2.242509E-005	0.0004199	10
	6	27	75421.88	3.699222	0.2530088	1	3.707864	3.912659	1.655127E-005	0.0004479	10
	7	29	59859.37	3.716188	0.1523075	1	3.719308	2.346947	-1.193116E-005	0.0005745	10
	8	32	47578.12	3.733513	0.0607295	1	3.734007	0.9318935	2.387184E-005	0.0005672	10
	9	34	37828.12	3.753571	-0.0256525	1	3.753659	-0.3915626	1.66295E-005	0.0005772	10
	10	37	30046.88	3.774583	-0.1128274	1	3.776269	-1.712138	3.297792E-006	0.0006037	10
	11	40	23859.38	3.797678	-0.2042536	1	3.803167	-3.078619	1.586576E-005	0.0006104	10
	12	42	18984.38	3.821134	-0.3028739	1	3.833118	-4.53195	2.588757E-006	0.0006269	10
	13	44	15046.87	3.847444	-0.4165427	1	3.869927	-6.179048	-7.322195E-006	0.0006328	10
	14	46	11953.13	3.876338	-0.5473359	1	3.914789	-8.036988	-1.92914E-005	0.0006932	10
	15	49	9515.62	3.90769	-0.7024537	1	3.970325	-10.19076	8.973459E-006	0.0006706	10
	16	51	7546.875	3.943468	-0.8924989	1	4.043204	-12.75253	-2.046943E-005	0.0006623	10
	17	53	5928.309	3.986674	-1.134524	1	4.144963	-15.88525	-2.404346E-005	0.0007395	10
	18	56	4733.456	4.03414	-1.411611	1	4.273983	-19.28577	-4.480206E-006	0.0006489	10
	19	58	3796.875	4.089789	-1.742639	1	4.445579	-23.07862	-7.639302E-006	0.0006657	10
	20	60	2987.132	4.159444	-2.188332	1	4.699975	-27.74938	1.570878E-005	0.000628	10
	21	63	2390.625	4.23948	-2.699743	1	5.026112	-32.4894	-3.261387E-005	0.0006681	10
	22	65	1884.191	4.343113	-3.372497	1	5.498761	-37.82991	5.462726E-006	0.0006619	10
	23	67	1516.544	4.462572	-4.127851	1	6.078956	-42.76863	-2.633074E-005	0.000688	10
	24	70	1193.986	4.622486	-5.153529	1	6.922878	-48.10931	-2.363151E-005	0.0006822	10
	25	72	946.5144	4.82554	-6.383065	1	8.001835	-52.91105	-1.160235E-006	0.0006553	10
	26	74	751.7689	5.070468	-7.897821	1	9.385373	-57.29919	3.690813E-006	0.000639	10
	27	77	597.4265	5.378754	-9.7559	1	11.14041	-61.13059	-2.440225E-005	0.0006813	10
	28	79	477.4305	5.760745	-11.97138	1	13.28534	-64.30269	-2.28035E-006	0.0006775	10
	29	81	376.6741	6.27283	-14.85449	1	16.12465	-67.10638	-2.293403E-006	0.000674	10
	30	84	298.2954	6.914096	-18.35653	1	19.61548	-69.36082	-2.607647E-006	0.0006767	10
	31	86	237.7717	7.706449	-22.53417	1	23.81551	-71.11986	-3.095132E-006	0.0006754	10
	32	88	189.0121	8.726668	-27.71465	1	29.05609	-72.52205	-2.008446E-006	0.0006679	10
	33	91	150.2404	10.0281	-34.0535	1	35.49934	-73.59132	-2.269374E-006	0.000669	10
	34	93	119.1737	11.70045	-41.83216	1	43.43766	-74.3737	1.467226E-006	7.788627E-005	9
	35	96	95.0169	13.81667	-51.14507	1	52.97847	-74.88259	1.329843E-006	6.982985E-005	9
	36	98	75.60484	16.5483	-62.55396	1	64.70583	-75.18217	1.299576E-006	6.808744E-005	9
	37	101	54.50582	21.82909	-83.15862	1	85.97595	-75.29173	1.257184E-006	6.695888E-005	9
	38	103	45.95588	25.38099	-96.3462	1	99.6332	-75.24157	1.426215E-006	7.755607E-005	9
	39	106	37.20238	30.72524	-115.3952	1	119.4157	-75.09029	1.393697E-006	7.868678E-005	9
	40	108	30.04808	37.34511	-138.2149	1	143.1713	-74.87996	1.299985E-006	7.311057E-005	9
	41	110	23.91582	45.99605	-167.2322	1	173.4424	-74.62146	1.373795E-006	7.299353E-005	9
	42	113	18.60119	57.69638	-205.6781	1	213.6174	-74.33025	1.4973E-006	7.166543E-005	9
	43	115	15.02404	69.68032	-244.8975	1	254.6176	-74.11744	1.404209E-006	7.330615E-005	9
	44	117	12.01923	84.29237	-293.4109	1	305.2788	-73.97147	1.625114E-006	7.204313E-005	9
	45	120	9.450605	102.4865	-356.4311	1	370.8727	-73.9582	1.531504E-006	6.584518E-005	9
	46	122	7.512019	122.1799	-427.6186	1	444.7309	-74.05421	5.683227E-007	0.0006555	8
	47	125	5.978954	144.3219	-514.9731	1	534.8141	-74.3444	5.683388E-007	0.0006484	8
	48	128	4.734848	170.2215	-624.7573	1	647.5315	-74.75912	5.073836E-007	0.0006571	8
	49	131	3.75601	198.6249	-758.6239	1	784.1952	-75.32801	5.718999E-007	0.0006514	8
	50	135	3.004808	229.8051	-917.2484	1	945.5977	-75.93478	5.147066E-007	0.0006851	8
	51	138	2.372217	267.5728	-1125.104	1	1156.483	-76.6224	4.767977E-007	0.0006915	8
	52	143	1.878005	314.6656	-1382.992	1	1418.338	-77.18198	5.212634E-007	0.0006242	8
	53	147	1.512097	366.3701	-1678.218	1	1717.743	-77.68503	5.223965E-007	0.0007471	8
	54	153	1.201923	433.0972	-2065.49	1	2110.407	-78.15764	5.326671E-007	0.0006265	8
	55	159	0.956633	515.6039	-2541.259	1	2593.038	-78.53077	4.882676E-007	1.237967E-005	8
