EXPLAIN
TAG	EISPOT
TITLE	LABEL	Potentiostatic EIS	Test Identifier
DATE	LABEL	8/9/2020	Date
TIME	LABEL	16:25:55	Time
NOTES	NOTES	1	Notes...
	
PSTAT	PSTAT	REF3000-16137	Potentiostat
VDC	POTEN	0.00000E+000	T	DC Voltage (V)
FREQINIT	QUANT	3.00000E+005	Initial Freq. (Hz)
FREQFINAL	QUANT	1.00000E+000	Final Freq. (Hz)
PTSPERDEC	QUANT	1.00000E+001	Points/decade
VAC	QUANT	5.00000E+001	AC Voltage (mV rms)
AREA	QUANT	1.00000E+000	Sample Area (cm^2)
SPEED	SELECTOR	2	Optimize for:
ZGUESS	QUANT	1.00000E+003	Estimated Z (ohms)
EOC	QUANT	0	Open Circuit (V)
SEQUENCER	TOGGLE	TRUE	Run as Sequence
PSTATMODEL	IQUANT	5	Pstat Model
PSTATSECTION	LABEL	REF3000-16137	Pstat Section
PSTATSERIALNO	LABEL	16137	Pstat Serial Number
CTRLMODE	IQUANT	1	Control Mode
IESTAB	IQUANT	0	I/E Stability
CASPEED	IQUANT	1	Control Amp Speed
CONVENTION	IQUANT	1	Current Convention
ICHRANGE	IQUANT	2	Ich Range
ICHRANGEMODE	TOGGLE	F	Ich Auto Range
ICHOFFSETENABLE	TOGGLE	T	Ich Offset Enable
ICHOFFSET	QUANT	0	Ich Offset (V)
ICHFILTER	IQUANT	3	Ich Filter
VCHRANGE	IQUANT	2	Vch Range
VCHRANGEMODE	TOGGLE	F	Vch Auto Range
VCHOFFSETENABLE	TOGGLE	T	Vch Offset Enable
VCHOFFSET	QUANT	0	Vch Offset (V)
VCHFILTER	IQUANT	3	Vch Filter
ACHRANGE	IQUANT	2	Ach Range
ACHOFFSETENABLE	TOGGLE	F	Ach Offset Enable
ACHOFFSET	QUANT	0	Ach Offset (V)
ACHFILTER	IQUANT	3	Ach Filter
IERANGELOWERLIMIT	IQUANT	2	I/E Range Lower Limit
IERANGEMODE	TOGGLE	F	I/E AutoRange
IERANGE	IQUANT	11	I/E Range
POSFEEDENABLE	TOGGLE	F	Positive Feedback IR Comp
POSFEEDRESISTANCE	QUANT	0	Positive Feedback Resistance (ohm)
ACHSELECT	IQUANT	0	Ach Select
CABLEID	IQUANT	13	Cable ID
DCCALDATE	LABEL	7/31/2020	DC Calibration Date
ACCALDATE	LABEL	7/31/2020	AC Calibration Date
THERMOSELECT	IQUANT	1	Thermo Select
FRAMEWORKVERSION	QUANT	6.33	Framework Version
INSTRUMENTVERSION	LABEL	3.50	Instrument Version
COMPLIANCEVOLTAGE	IQUANT	0	Compliance Voltage
ZCURVE	TABLE
	Pt	Time	Freq	Zreal	Zimag	Zsig	Zmod	Zphz	Idc	Vdc	IERange
	#	s	Hz	ohm	ohm	V	ohm	°	A	V	#
	0	8	300046.9	21.73713	1.026868	1	21.76137	2.704658	7.665376E-005	1.80176E-005	10
	1	11	238359.4	22.01998	0.8347738	1	22.0358	2.171034	1.441943E-005	0.0002862	10
	2	14	189328.1	22.26329	0.6336201	1	22.2723	1.630216	6.882747E-005	0.0004259	10
	3	17	150421.9	22.47374	0.4757367	1	22.47877	1.212688	2.80989E-005	0.0007372	10
	4	19	119484.4	22.71959	0.3492189	1	22.72227	0.8806142	1.600738E-005	0.0005984	10
	5	22	94921.88	22.94744	0.2465548	1	22.94876	0.6155811	2.116292E-005	0.0005686	10
	6	25	75421.88	23.18505	0.1417137	1	23.18549	0.3502039	-2.552548E-005	0.0006833	10
	7	27	59859.37	23.42491	0.044356	1	23.42495	0.1084917	-1.045755E-005	0.000621	10
	8	30	47578.12	23.6719	-0.0440122	1	23.67194	-0.1065276	-1.331397E-005	0.0006254	10
	9	32	37828.12	23.92373	-0.1323167	1	23.92409	-0.3168867	-1.016432E-005	0.0006245	10
	10	35	30046.88	24.17706	-0.2266597	1	24.17813	-0.5371317	1.458086E-005	0.0005872	10
	11	37	23859.38	24.42666	-0.3297054	1	24.42889	-0.7733181	-1.247831E-005	0.0007289	10
	12	40	18984.38	24.66709	-0.4471656	1	24.67114	-1.038545	2.344292E-005	0.0006297	10
	13	42	15046.87	24.91394	-0.5804758	1	24.92071	-1.334706	-3.078877E-005	0.0006601	10
	14	44	11953.13	25.16578	-0.7483047	1	25.1769	-1.703189	2.34783E-005	0.0006345	10
	15	46	9515.62	25.42413	-0.9445665	1	25.44167	-2.127695	-2.739038E-005	0.0007132	10
	16	49	7546.875	25.69745	-1.187387	1	25.72486	-2.645551	2.060408E-005	0.0005976	10
	17	51	5928.309	25.97286	-1.498918	1	26.01607	-3.30293	-2.256967E-005	0.0007113	10
	18	53	4733.456	26.25167	-1.853312	1	26.31701	-4.038259	1.375519E-005	0.0006044	10
	19	56	3796.875	26.55572	-2.282607	1	26.65364	-4.912807	2.376226E-005	0.0006164	10
	20	58	2987.132	26.87456	-2.854249	1	27.0257	-6.06245	6.821218E-006	0.0006077	10
	21	60	2390.625	27.20519	-3.520519	1	27.43204	-7.37345	2.187804E-005	0.0006195	10
	22	63	1884.191	27.57434	-4.403097	1	27.92368	-9.072451	2.587045E-005	0.0006462	10
	23	65	1516.544	27.94226	-5.379185	1	28.45532	-10.89675	-3.975951E-006	0.0006275	10
	24	67	1193.986	28.38256	-6.732367	1	29.1701	-13.34399	6.027446E-006	0.0006774	10
	25	70	946.5144	28.86785	-8.35755	1	30.0533	-16.1463	-1.12452E-005	0.00064	10
	26	72	751.7689	29.38405	-10.35628	1	31.15565	-19.41478	-2.812338E-005	0.0007103	10
	27	74	597.4265	29.97061	-12.81403	1	32.59504	-23.14928	-2.269693E-005	0.0007281	10
	28	77	477.4305	30.62801	-15.78232	1	34.45514	-27.26162	-2.528105E-006	0.000675	10
	29	79	376.6741	31.41813	-19.66175	1	37.06323	-32.0387	-1.958275E-006	0.0006723	10
	30	81	298.2954	32.30214	-24.37392	1	40.46624	-37.03677	1.471994E-006	7.649173E-005	9
	31	84	237.7717	33.38288	-30.06175	1	44.92355	-42.00348	1.362325E-006	7.270372E-005	9
	32	86	189.0121	34.68347	-37.1598	1	50.83103	-46.97411	1.420839E-006	7.202702E-005	9
	33	88	150.2404	36.25543	-45.92028	1	58.5075	-51.70786	1.480246E-006	7.678273E-005	9
	34	91	119.1737	38.18793	-56.84052	1	68.47746	-56.10508	1.452285E-006	7.616745E-005	9
	35	93	95.0169	40.51867	-69.99697	1	80.87854	-59.93503	1.381797E-006	7.0985E-005	9
	36	96	75.60484	43.43679	-86.32471	1	96.637	-63.28941	1.375199E-006	7.0134E-005	9
	37	98	54.50582	48.72934	-116.3713	1	126.1619	-67.27898	9.614067E-007	0.0001264	9
	38	101	45.95588	52.40121	-135.9969	1	145.7431	-68.92773	1.430822E-006	7.885299E-005	9
	39	103	37.20238	57.75497	-164.79	1	174.6178	-70.68565	1.358153E-006	8.070851E-005	9
	40	106	30.04808	64.45876	-200.0571	1	210.1851	-72.14097	1.403884E-006	6.956261E-005	9
	41	108	23.91582	73.34187	-245.8454	1	256.5521	-73.38883	1.52722E-006	7.182203E-005	9
	42	110	18.60119	85.74177	-308.3481	1	320.0471	-74.46045	1.415977E-006	7.053277E-005	9
	43	113	15.02404	99.31	-373.5563	1	386.5317	-75.11227	1.590923E-006	8.691277E-005	9
	44	115	12.01923	116.5126	-454.2035	1	468.9094	-75.61267	2.795567E-007	0.0006476	8
	45	117	9.450605	140.7962	-562.5926	1	579.9431	-75.94957	5.069505E-007	0.0006463	8
	46	120	7.512019	170.5141	-689.42	1	710.1936	-76.10783	4.78506E-007	0.0006484	8
	47	123	5.978954	208.018	-842.2602	1	867.5677	-76.12695	4.786266E-007	0.0006544	8
	48	126	4.734848	256.4888	-1033.556	1	1064.905	-76.06293	3.711314E-007	0.0006458	8
	49	129	3.75601	317.6435	-1263.039	1	1302.369	-75.88336	4.770934E-007	0.0006613	8
	50	132	3.004808	391.5279	-1529.143	1	1578.472	-75.6383	3.939415E-007	0.0006908	8
	51	136	2.372217	488.4486	-1871.532	1	1934.221	-75.37273	4.330667E-007	0.0007212	8
	52	140	1.878005	608.0223	-2279.931	1	2359.614	-75.06763	4.254102E-007	0.0006192	8
	53	145	1.512097	743.5063	-2733.185	1	2832.508	-74.78211	4.352172E-007	0.0007161	8
	54	150	1.201923	911.6308	-3323.308	1	3446.077	-74.66029	4.254184E-007	0.0006221	8
	55	157	0.956633	1113.411	-4027.305	1	4178.381	-74.54571	3.914581E-007	9.637411E-006	8
