EXPLAIN
TAG	EISPOT
TITLE	LABEL	Potentiostatic EIS	Test Identifier
DATE	LABEL	8/9/2020	Date
TIME	LABEL	16:11:57	Time
NOTES	NOTES	1	Notes...
	
PSTAT	PSTAT	REF3000-16137	Potentiostat
VDC	POTEN	0.00000E+000	T	DC Voltage (V)
FREQINIT	QUANT	3.00000E+005	Initial Freq. (Hz)
FREQFINAL	QUANT	1.00000E+000	Final Freq. (Hz)
PTSPERDEC	QUANT	1.00000E+001	Points/decade
VAC	QUANT	5.00000E+001	AC Voltage (mV rms)
AREA	QUANT	1.00000E+000	Sample Area (cm^2)
SPEED	SELECTOR	2	Optimize for:
ZGUESS	QUANT	1.00000E+003	Estimated Z (ohms)
EOC	QUANT	0	Open Circuit (V)
SEQUENCER	TOGGLE	TRUE	Run as Sequence
PSTATMODEL	IQUANT	5	Pstat Model
PSTATSECTION	LABEL	REF3000-16137	Pstat Section
PSTATSERIALNO	LABEL	16137	Pstat Serial Number
CTRLMODE	IQUANT	1	Control Mode
IESTAB	IQUANT	0	I/E Stability
CASPEED	IQUANT	1	Control Amp Speed
CONVENTION	IQUANT	1	Current Convention
ICHRANGE	IQUANT	2	Ich Range
ICHRANGEMODE	TOGGLE	F	Ich Auto Range
ICHOFFSETENABLE	TOGGLE	T	Ich Offset Enable
ICHOFFSET	QUANT	0	Ich Offset (V)
ICHFILTER	IQUANT	3	Ich Filter
VCHRANGE	IQUANT	2	Vch Range
VCHRANGEMODE	TOGGLE	F	Vch Auto Range
VCHOFFSETENABLE	TOGGLE	T	Vch Offset Enable
VCHOFFSET	QUANT	0	Vch Offset (V)
VCHFILTER	IQUANT	3	Vch Filter
ACHRANGE	IQUANT	2	Ach Range
ACHOFFSETENABLE	TOGGLE	F	Ach Offset Enable
ACHOFFSET	QUANT	0	Ach Offset (V)
ACHFILTER	IQUANT	3	Ach Filter
IERANGELOWERLIMIT	IQUANT	2	I/E Range Lower Limit
IERANGEMODE	TOGGLE	F	I/E AutoRange
IERANGE	IQUANT	11	I/E Range
POSFEEDENABLE	TOGGLE	F	Positive Feedback IR Comp
POSFEEDRESISTANCE	QUANT	0	Positive Feedback Resistance (ohm)
ACHSELECT	IQUANT	0	Ach Select
CABLEID	IQUANT	13	Cable ID
DCCALDATE	LABEL	7/31/2020	DC Calibration Date
ACCALDATE	LABEL	7/31/2020	AC Calibration Date
THERMOSELECT	IQUANT	1	Thermo Select
FRAMEWORKVERSION	QUANT	6.33	Framework Version
INSTRUMENTVERSION	LABEL	3.50	Instrument Version
COMPLIANCEVOLTAGE	IQUANT	0	Compliance Voltage
ZCURVE	TABLE
	Pt	Time	Freq	Zreal	Zimag	Zsig	Zmod	Zphz	Idc	Vdc	IERange
	#	s	Hz	ohm	ohm	V	ohm	°	A	V	#
	0	10	300046.9	2.880679	1.294235	1	3.158062	24.19348	2.634378E-005	-0.000096	11
	1	13	238359.4	2.875844	1.02605	1	3.053401	19.6355	1.360582E-005	-8.773636E-005	11
	2	16	189328.1	2.871318	0.8073419	1	2.982661	15.70464	-0.0000961	0.0001525	11
	3	19	150421.9	2.866594	0.6225349	1	2.933413	12.2526	-6.234955E-005	0.0003247	11
	4	22	119484.4	2.873753	0.4728934	1	2.912402	9.344621	-0.0001647	0.0002899	11
	5	24	94921.88	2.879213	0.3475971	1	2.900119	6.883801	-5.221702E-005	0.0005199	11
	6	27	75421.88	2.887839	0.2389373	1	2.897707	4.729831	2.191177E-005	0.0006153	11
	7	29	59859.37	2.89779	0.1436317	1	2.901348	2.837597	1.947171E-005	0.0006537	11
	8	32	47578.12	2.909155	0.0573462	1	2.90972	1.129286	1.841437E-006	0.0006534	11
	9	34	37828.12	2.921358	-0.0247908	1	2.921463	-0.4862033	2.59591E-005	0.0006814	11
	10	37	30046.88	2.935448	-0.1070022	1	2.937398	-2.087607	-4.937383E-005	0.0006354	11
	11	39	23859.38	2.950234	-0.1934807	1	2.956572	-3.752169	2.211458E-006	0.0006652	11
	12	42	18984.38	2.967492	-0.2873949	1	2.981377	-5.531714	-2.873995E-005	0.0006941	11
	13	44	15046.87	2.985377	-0.3959336	1	3.011518	-7.554726	-4.418409E-005	0.0006555	11
	14	46	11953.13	3.006259	-0.5213147	1	3.051125	-9.83782	-2.033995E-005	0.0006598	11
	15	49	9515.62	3.030805	-0.6688565	1	3.103731	-12.44491	-6.294164E-006	0.0006903	11
	16	51	7546.875	3.059046	-0.8512379	1	3.175275	-15.55024	-3.703231E-005	0.0007247	11
	17	53	5928.309	3.094049	-1.082001	1	3.277784	-19.27493	-1.356854E-005	0.000689	11
	18	55	4733.456	3.134	-1.346529	1	3.411026	-23.25086	2.998334E-005	0.0007156	11
	19	58	3796.875	3.181466	-1.662244	1	3.589538	-27.58605	2.44408E-005	0.0007056	11
	20	60	2987.132	3.247526	-2.087936	1	3.860816	-32.73824	-3.747372E-006	0.0006493	10
	21	62	2390.625	3.320931	-2.573246	1	4.201211	-37.77055	-1.91907E-005	0.0007533	10
	22	65	1884.191	3.416625	-3.214311	1	4.690962	-43.25241	1.999048E-005	0.0006593	10
	23	67	1516.544	3.527838	-3.932477	1	5.282994	-48.10461	1.603063E-005	0.0006586	10
	24	69	1193.986	3.682077	-4.904059	1	6.132494	-53.09996	1.677151E-005	0.0006371	10
	25	72	946.5144	3.873701	-6.070632	1	7.201259	-57.45784	1.809295E-005	0.0006489	10
	26	74	751.7689	4.111775	-7.504502	1	8.557117	-61.28132	-2.383991E-005	0.0006811	10
	27	77	597.4265	4.41643	-9.249002	1	10.24934	-64.47536	-2.692216E-006	0.0006455	10
	28	79	477.4305	4.789842	-11.34384	1	12.31362	-67.10851	-1.17107E-006	0.0006724	10
	29	81	376.6741	5.292689	-14.05934	1	15.02257	-69.37097	-7.718112E-007	0.0006684	10
	30	83	298.2954	5.92434	-17.35304	1	18.33646	-71.15006	-1.347318E-006	0.0006682	10
	31	86	237.7717	6.706972	-21.27221	1	22.30449	-72.50032	-1.34639E-006	0.0006676	10
	32	88	189.0121	7.720594	-26.11741	1	27.23466	-73.53174	-1.289343E-006	0.0006703	10
	33	91	150.2404	9.02704	-32.04047	1	33.28782	-74.26542	-1.295234E-006	0.0006708	10
	34	93	119.1737	10.72363	-39.32201	1	40.75802	-74.74564	-1.825668E-006	0.0006699	10
	35	95	95.0169	12.83387	-47.90212	1	49.59155	-75.00163	1.365172E-006	7.458415E-005	9
	36	98	75.60484	15.56366	-58.41415	1	60.45197	-75.08089	1.244664E-006	7.900917E-005	9
	37	100	54.50582	20.76825	-77.27874	1	80.02077	-74.95749	1.165296E-006	6.931179E-005	9
	38	103	45.95588	24.22521	-89.30986	1	92.53709	-74.82375	1.444884E-006	8.1095E-005	9
	39	105	37.20238	29.33506	-106.5925	1	110.5554	-74.61269	1.343116E-006	7.925326E-005	9
	40	108	30.04808	35.55257	-127.1856	1	132.0612	-74.38257	8.922732E-007	0.0001261	9
	41	110	23.91582	43.51278	-153.3426	1	159.3967	-74.15808	1.274897E-006	7.069688E-005	9
	42	113	18.60119	54.10893	-188.1699	1	195.795	-73.95722	1.315284E-006	7.557198E-005	9
	43	115	15.02404	64.63232	-223.6224	1	232.7753	-73.87942	1.563051E-006	7.654847E-005	9
	44	117	12.01923	77.24693	-267.7664	1	278.6861	-73.90788	1.328175E-006	7.561117E-005	9
	45	120	9.450605	92.7479	-325.6042	1	338.5561	-74.10047	1.580505E-006	8.455603E-005	9
	46	122	7.512019	109.2042	-392.8195	1	407.7165	-74.46402	1.603071E-006	8.493988E-005	9
	47	125	5.978954	127.1696	-473.0179	1	489.8143	-74.952	5.994504E-007	0.0006459	8
	48	128	4.734848	148.5415	-576.4778	1	595.3077	-75.55086	4.59553E-007	0.000691	8
	49	131	3.75601	173.2573	-702.8873	1	723.9259	-76.15299	5.924845E-007	0.000668	8
	50	135	3.004808	201.412	-853.3083	1	876.7565	-76.71918	5.32648E-007	0.000646	8
	51	138	2.372217	239.4427	-1051.261	1	1078.185	-77.16879	4.707246E-007	0.0005855	8
	52	143	1.878005	283.2462	-1297.37	1	1327.93	-77.68424	5.470499E-007	0.0006466	8
	53	147	1.512097	335.2713	-1573.34	1	1608.666	-77.97047	4.773996E-007	0.0006387	8
	54	153	1.201923	408.2639	-1943.977	1	1986.385	-78.13941	5.387092E-007	0.0006709	8
	55	159	0.956633	503.7194	-2392.407	1	2444.861	-78.11008	4.798744E-007	6.980245E-006	8
