EXPLAIN
TAG	EISPOT
TITLE	LABEL	Potentiostatic EIS	Test Identifier
DATE	LABEL	2/24/2021	Date
TIME	LABEL	12:13:57	Time
NOTES	NOTES	1	Notes...
	
PSTAT	PSTAT	REF3000-16137	Potentiostat
VDC	POTEN	0.00000E+000	T	DC Voltage (V)
FREQINIT	QUANT	3.00000E+005	Initial Freq. (Hz)
FREQFINAL	QUANT	1.00000E+000	Final Freq. (Hz)
PTSPERDEC	QUANT	1.00000E+001	Points/decade
VAC	QUANT	5.00000E+001	AC Voltage (mV rms)
AREA	QUANT	1.00000E+000	Sample Area (cm^2)
SPEED	SELECTOR	2	Optimize for:
ZGUESS	QUANT	1.00000E+003	Estimated Z (ohms)
EOC	QUANT	0	Open Circuit (V)
SEQUENCER	TOGGLE	TRUE	Run as Sequence
PSTATMODEL	IQUANT	5	Pstat Model
PSTATSECTION	LABEL	REF3000-16137	Pstat Section
PSTATSERIALNO	LABEL	16137	Pstat Serial Number
CTRLMODE	IQUANT	1	Control Mode
IESTAB	IQUANT	0	I/E Stability
CASPEED	IQUANT	1	Control Amp Speed
CONVENTION	IQUANT	1	Current Convention
ICHRANGE	IQUANT	2	Ich Range
ICHRANGEMODE	TOGGLE	F	Ich Auto Range
ICHOFFSETENABLE	TOGGLE	T	Ich Offset Enable
ICHOFFSET	QUANT	0	Ich Offset (V)
ICHFILTER	IQUANT	3	Ich Filter
VCHRANGE	IQUANT	2	Vch Range
VCHRANGEMODE	TOGGLE	F	Vch Auto Range
VCHOFFSETENABLE	TOGGLE	T	Vch Offset Enable
VCHOFFSET	QUANT	0	Vch Offset (V)
VCHFILTER	IQUANT	3	Vch Filter
ACHRANGE	IQUANT	2	Ach Range
ACHOFFSETENABLE	TOGGLE	F	Ach Offset Enable
ACHOFFSET	QUANT	0	Ach Offset (V)
ACHFILTER	IQUANT	3	Ach Filter
IERANGELOWERLIMIT	IQUANT	2	I/E Range Lower Limit
IERANGEMODE	TOGGLE	F	I/E AutoRange
IERANGE	IQUANT	11	I/E Range
POSFEEDENABLE	TOGGLE	F	Positive Feedback IR Comp
POSFEEDRESISTANCE	QUANT	0	Positive Feedback Resistance (ohm)
ACHSELECT	IQUANT	0	Ach Select
CABLEID	IQUANT	13	Cable ID
DCCALDATE	LABEL	7/31/2020	DC Calibration Date
ACCALDATE	LABEL	7/31/2020	AC Calibration Date
THERMOSELECT	IQUANT	1	Thermo Select
FRAMEWORKVERSION	QUANT	6.33	Framework Version
INSTRUMENTVERSION	LABEL	3.50	Instrument Version
COMPLIANCEVOLTAGE	IQUANT	0	Compliance Voltage
ZCURVE	TABLE
	Pt	Time	Freq	Zreal	Zimag	Zsig	Zmod	Zphz	Idc	Vdc	IERange
	#	s	Hz	ohm	ohm	V	ohm	°	A	V	#
	0	10	300046.9	2.666619	2.21451	1	3.466254	39.70815	6.927961E-006	-0.0000957	11
	1	13	238359.4	2.6238	1.76216	1	3.160622	33.88556	-0.0000956	-0.0001043	11
	2	16	189328.1	2.594187	1.386574	1	2.941495	28.12418	1.683821E-005	0.0001931	11
	3	18	150421.9	2.575115	1.082839	1	2.793521	22.80682	-4.530184E-005	0.0002749	11
	4	21	119484.4	2.568677	0.8414603	1	2.702991	18.13802	-4.050499E-005	0.0004722	11
	5	25	94921.88	2.566054	0.6411142	1	2.644931	14.02785	4.888088E-006	0.0005438	11
	6	27	75421.88	2.57549	0.3994082	1	2.606277	8.815235	-9.235145E-005	0.0005585	12
	7	31	59859.37	2.567783	0.3268191	1	2.588498	7.253421	8.457673E-006	0.0006342	11
	8	33	47578.12	2.572524	0.2023914	1	2.580473	4.498438	7.239119E-006	0.0006691	11
	9	36	37828.12	2.577312	0.0887784	1	2.578841	1.972836	-5.662606E-005	0.0006242	11
	10	39	30046.88	2.584514	-0.0194967	1	2.584588	-0.4322123	1.509118E-005	0.0007056	11
	11	41	23859.38	2.592887	-0.1273172	1	2.596011	-2.811109	3.247216E-006	0.0006985	11
	12	43	18984.38	2.603578	-0.2389706	1	2.614522	-5.244226	-3.500907E-005	0.000695	11
	13	46	15046.87	2.615941	-0.3628503	1	2.640986	-7.896958	-2.850018E-005	0.0007304	11
	14	48	11953.13	2.631062	-0.5019269	1	2.67851	-10.80052	-1.941422E-005	0.0007105	11
	15	50	9515.62	2.649221	-0.6624971	1	2.730801	-14.04015	-5.093202E-005	0.000674	11
	16	53	7546.875	2.672863	-0.8554976	1	2.806435	-17.7482	-2.339827E-005	0.0006903	11
	17	55	5928.309	2.70355	-1.097923	1	2.917981	-22.10228	-4.19874E-005	0.000685	11
	18	57	4733.456	2.738417	-1.372934	1	3.063311	-26.62738	-3.264426E-005	0.0006874	11
	19	60	3796.875	2.781167	-1.698308	1	3.258702	-31.41016	1.863506E-005	0.000712	11
	20	62	2987.132	2.837756	-2.135518	1	3.551521	-36.96284	-2.818062E-005	0.0006847	11
	21	64	2390.625	2.905937	-2.636278	1	3.923574	-42.21444	1.012799E-005	0.0006475	10
	22	66	1884.191	2.994313	-3.292449	1	4.450408	-47.7151	-2.386613E-005	0.0006824	10
	23	69	1516.544	3.094725	-4.027624	1	5.079279	-52.46223	2.180982E-005	0.0006714	10
	24	71	1193.986	3.232766	-5.026202	1	5.976076	-57.25158	-1.403985E-005	0.0006874	10
	25	74	946.5144	3.400661	-6.226301	1	7.094457	-61.35765	-2.95751E-005	0.0006776	10
	26	76	751.7689	3.612041	-7.693029	1	8.498796	-64.84895	-2.1801E-005	0.000683	10
	27	78	597.4265	3.879255	-9.498664	1	10.26027	-67.7849	2.119882E-005	0.0006615	10
	28	81	477.4305	4.194358	-11.66032	1	12.39176	-70.21573	-1.640652E-006	0.0006806	10
	29	83	376.6741	4.61587	-14.4817	1	15.19954	-72.32094	-1.363784E-006	0.0006817	10
	30	85	298.2954	5.138738	-17.92151	1	18.64369	-74.00051	-1.375966E-006	0.0006805	10
	31	87	237.7717	5.778754	-22.04193	1	22.78686	-75.30933	-1.445162E-006	0.0006766	10
	32	90	189.0121	6.59678	-27.17214	1	27.96145	-76.3539	-1.629156E-006	0.0006776	10
	33	92	150.2404	7.640187	-33.49855	1	34.35877	-77.15202	-1.339113E-006	0.0006821	10
	34	95	119.1737	8.992601	-41.35512	1	42.32154	-77.73211	-1.506657E-006	0.0006767	10
	35	97	95.0169	10.68595	-50.7279	1	51.84119	-78.10442	1.299713E-006	8.007491E-005	9
	36	100	75.60484	12.91357	-62.35243	1	63.67563	-78.29912	1.09421E-006	0.0000963	9
	37	102	54.50582	17.31321	-83.57463	1	85.34908	-78.29623	9.639456E-007	8.011294E-005	9
	38	105	45.95588	20.34995	-97.2577	1	99.3639	-78.18208	1.312939E-006	8.848577E-005	9
	39	107	37.20238	24.93284	-117.0473	1	119.6734	-77.97487	1.207189E-006	8.78959E-005	9
	40	109	30.04808	30.7383	-140.9081	1	144.2218	-77.69403	1.202208E-006	8.086455E-005	9
	41	112	23.91582	38.33458	-171.4084	1	175.6427	-77.39355	1.048196E-006	8.59623E-005	9
	42	114	18.60119	48.45734	-212.0697	1	217.5354	-77.12904	1.400435E-006	8.287633E-005	9
	43	117	15.02404	58.75374	-253.9148	1	260.6237	-76.97153	1.252661E-006	7.579353E-005	9
	44	119	12.01923	71.3897	-306.39	1	314.5971	-76.88394	1.379287E-006	8.587123E-005	9
	45	121	9.450605	86.87337	-374.9122	1	384.8456	-76.95386	1.305957E-006	7.131409E-005	9
	46	124	7.512019	103.7565	-453.3373	1	465.0593	-77.1086	6.716347E-007	0.0006453	8
	47	127	5.978954	123.3846	-550.6467	1	564.3009	-77.37022	7.180868E-007	0.0006585	8
	48	130	4.734848	146.7027	-672.7245	1	688.5346	-77.69797	7.366583E-007	0.0006338	8
	49	133	3.75601	172.966	-822.4952	1	840.4853	-78.12408	7.478843E-007	0.0006776	8
	50	136	3.004808	202.586	-1000.087	1	1020.399	-78.54864	7.349986E-007	0.0006321	8
	51	140	2.372217	240.178	-1234.828	1	1257.969	-78.99322	6.976701E-007	0.0005803	8
	52	144	1.878005	284.4321	-1522.82	1	1549.155	-79.4202	7.130204E-007	0.0006681	8
	53	149	1.512097	338.3811	-1851.559	1	1882.225	-79.64322	6.752504E-007	0.000567	8
	54	154	1.201923	405.6493	-2286.255	1	2321.964	-79.93874	7.020656E-007	0.000681	8
	55	161	0.956633	494.3315	-2818.695	1	2861.713	-80.05285	6.848453E-007	1.623732E-005	8
