EXPLAIN
TAG	EISPOT
TITLE	LABEL	Potentiostatic EIS	Test Identifier
DATE	LABEL	2/24/2021	Date
TIME	LABEL	13:04:07	Time
NOTES	NOTES	1	Notes...
	
PSTAT	PSTAT	REF3000-16137	Potentiostat
VDC	POTEN	0.00000E+000	T	DC Voltage (V)
FREQINIT	QUANT	3.00000E+005	Initial Freq. (Hz)
FREQFINAL	QUANT	1.00000E+000	Final Freq. (Hz)
PTSPERDEC	QUANT	1.00000E+001	Points/decade
VAC	QUANT	5.00000E+001	AC Voltage (mV rms)
AREA	QUANT	1.00000E+000	Sample Area (cm^2)
SPEED	SELECTOR	2	Optimize for:
ZGUESS	QUANT	1.00000E+003	Estimated Z (ohms)
EOC	QUANT	0	Open Circuit (V)
SEQUENCER	TOGGLE	TRUE	Run as Sequence
PSTATMODEL	IQUANT	5	Pstat Model
PSTATSECTION	LABEL	REF3000-16137	Pstat Section
PSTATSERIALNO	LABEL	16137	Pstat Serial Number
CTRLMODE	IQUANT	1	Control Mode
IESTAB	IQUANT	0	I/E Stability
CASPEED	IQUANT	1	Control Amp Speed
CONVENTION	IQUANT	1	Current Convention
ICHRANGE	IQUANT	2	Ich Range
ICHRANGEMODE	TOGGLE	F	Ich Auto Range
ICHOFFSETENABLE	TOGGLE	T	Ich Offset Enable
ICHOFFSET	QUANT	0	Ich Offset (V)
ICHFILTER	IQUANT	3	Ich Filter
VCHRANGE	IQUANT	2	Vch Range
VCHRANGEMODE	TOGGLE	F	Vch Auto Range
VCHOFFSETENABLE	TOGGLE	T	Vch Offset Enable
VCHOFFSET	QUANT	0	Vch Offset (V)
VCHFILTER	IQUANT	3	Vch Filter
ACHRANGE	IQUANT	2	Ach Range
ACHOFFSETENABLE	TOGGLE	F	Ach Offset Enable
ACHOFFSET	QUANT	0	Ach Offset (V)
ACHFILTER	IQUANT	3	Ach Filter
IERANGELOWERLIMIT	IQUANT	2	I/E Range Lower Limit
IERANGEMODE	TOGGLE	F	I/E AutoRange
IERANGE	IQUANT	11	I/E Range
POSFEEDENABLE	TOGGLE	F	Positive Feedback IR Comp
POSFEEDRESISTANCE	QUANT	0	Positive Feedback Resistance (ohm)
ACHSELECT	IQUANT	0	Ach Select
CABLEID	IQUANT	13	Cable ID
DCCALDATE	LABEL	7/31/2020	DC Calibration Date
ACCALDATE	LABEL	7/31/2020	AC Calibration Date
THERMOSELECT	IQUANT	1	Thermo Select
FRAMEWORKVERSION	QUANT	6.33	Framework Version
INSTRUMENTVERSION	LABEL	3.50	Instrument Version
COMPLIANCEVOLTAGE	IQUANT	0	Compliance Voltage
ZCURVE	TABLE
	Pt	Time	Freq	Zreal	Zimag	Zsig	Zmod	Zphz	Idc	Vdc	IERange
	#	s	Hz	ohm	ohm	V	ohm	°	A	V	#
	0	7	300046.9	77.2318	0.973716	1	77.23795	0.7223304	6.471056E-005	-0.0019051	9
	1	10	238359.4	77.87933	0.6615096	1	77.88214	0.4866605	-4.954989E-005	0.0005234	9
	2	13	189328.1	78.45574	0.4889693	1	78.45727	0.3570869	6.568377E-005	-0.0021881	9
	3	16	150421.9	78.72446	0.23475	1	78.72482	0.1708509	3.85666E-007	-0.0009448	9
	4	18	119484.4	79.41595	0.1223871	1	79.41604	0.0882979	-6.577166E-005	0.0018534	9
	5	21	94921.88	79.92599	0.3081444	1	79.92658	0.2208955	-3.06227E-007	-0.0002856	9
	6	23	75421.88	80.3289	0.0965861	1	80.32896	0.0688914	1.702912E-005	-0.0006621	9
	7	26	59859.37	80.81831	-0.0633103	1	80.81834	-0.0448835	2.111622E-005	-0.0006561	9
	8	28	47578.12	81.32285	-0.1925099	1	81.32307	-0.135632	3.368361E-006	0.0003811	9
	9	31	37828.12	81.81176	-0.3029224	1	81.81232	-0.2121467	-1.709103E-005	0.000464	9
	10	33	30046.88	82.25095	-0.4054401	1	82.25195	-0.2824261	1.760607E-005	-0.000625	9
	11	36	23859.38	82.73256	-0.5054349	1	82.7341	-0.3500306	1.795862E-005	-6.424321E-005	9
	12	38	18984.38	83.1824	-0.6106836	1	83.18465	-0.4206294	-4.808906E-006	0.0006746	9
	13	41	15046.87	83.59725	-0.7432939	1	83.60056	-0.5094244	-1.820297E-005	0.0004968	9
	14	43	11953.13	84.0535	-0.9421932	1	84.05878	-0.6422271	1.994713E-005	-0.0001707	9
	15	45	9515.62	84.55253	-1.15745	1	84.56045	-0.7842799	2.115258E-005	-0.0006304	9
	16	48	7546.875	84.94147	-1.385591	1	84.95277	-0.934543	-1.904736E-005	0.0005882	9
	17	50	5928.309	85.48071	-1.749824	1	85.49862	-1.172704	2.087612E-005	-0.0005967	9
	18	52	4733.456	85.99805	-2.151781	1	86.02496	-1.433315	5.296914E-006	-0.0004234	9
	19	54	3796.875	86.57496	-2.656511	1	86.61571	-1.757542	2.446715E-005	-0.0004942	9
	20	57	2987.132	87.02637	-3.310555	1	87.08931	-2.178528	1.73414E-005	-0.0006265	9
	21	59	2390.625	87.5381	-4.039899	1	87.63127	-2.642335	2.169003E-005	-0.0002181	9
	22	61	1884.191	88.12601	-4.981787	1	88.26672	-3.235502	-1.855326E-005	0.0007405	9
	23	64	1516.544	88.63157	-6.135961	1	88.84371	-3.960266	-4.992563E-006	0.0006658	9
	24	66	1193.986	89.23603	-7.694647	1	89.56716	-4.928312	2.287885E-005	-0.0004007	9
	25	69	946.5144	89.96394	-9.51764	1	90.466	-6.039084	1.195879E-005	-0.0005624	9
	26	71	751.7689	90.68964	-11.84522	1	91.45994	-7.44143	-1.670096E-005	0.0008228	9
	27	73	597.4265	91.401	-14.62438	1	92.56358	-9.090412	-1.586996E-005	0.0003722	9
	28	75	477.4305	92.23666	-18.10612	1	93.99699	-11.10598	1.280261E-006	9.307142E-005	9
	29	78	376.6741	93.20022	-22.61156	1	95.9039	-13.63719	1.326526E-006	8.134425E-005	9
	30	80	298.2954	94.29366	-28.138	1	98.4024	-16.61553	1.415754E-006	0.0000952	9
	31	82	237.7717	95.5593	-34.78947	1	101.6951	-20.00462	1.245424E-006	8.91875E-005	9
	32	85	189.0121	97.0556	-43.1077	1	106.1982	-23.94862	1.255913E-006	0.0001062	9
	33	87	150.2404	98.8307	-53.37839	1	112.3243	-28.37345	1.34015E-006	8.520724E-005	9
	34	90	119.1737	100.9747	-66.18684	1	120.7335	-33.24402	1.357173E-006	8.007367E-005	9
	35	92	95.0169	103.5121	-81.61963	1	131.82	-38.25591	1.331807E-006	7.762502E-005	9
	36	95	75.60484	106.6204	-100.7939	1	146.7219	-43.39093	1.334189E-006	7.261865E-005	9
	37	97	54.50582	112.0402	-136.2011	1	176.3626	-50.55899	1.308156E-006	7.348179E-005	9
	38	100	45.95588	115.8173	-159.3585	1	196.9994	-53.9914	1.234666E-006	8.955558E-005	9
	39	102	37.20238	121.1957	-193.4665	1	228.293	-57.93521	1.402094E-006	7.807163E-005	9
	40	104	30.04808	127.869	-235.3077	1	267.8063	-61.47981	1.331103E-006	7.833859E-005	9
	41	107	23.91582	136.5457	-289.9366	1	320.4808	-64.78191	1.437655E-006	7.199376E-005	9
	42	109	18.60119	148.3923	-364.615	1	393.6551	-67.85448	1.348443E-006	8.061068E-005	9
	43	111	15.02404	160.2931	-440.9488	1	469.1798	-70.02285	3.162847E-007	0.000669	8
	44	114	12.01923	176.0831	-540.1203	1	568.0978	-71.94366	2.756898E-007	0.0006575	8
	45	116	9.450605	197.1833	-671.8569	1	700.195	-73.64356	2.756508E-007	0.0006757	8
	46	119	7.512019	222.071	-827.5148	1	856.7941	-74.9781	3.240852E-007	0.0006787	8
	47	121	5.978954	252.8944	-1018.053	1	1048.993	-76.04954	2.987059E-007	0.0006666	8
	48	124	4.734848	292.4793	-1258.308	1	1291.853	-76.91461	3.309676E-007	0.000666	8
	49	128	3.75601	341.2317	-1553.227	1	1590.269	-77.60941	2.937292E-007	0.000659	8
	50	131	3.004808	399.6722	-1900.487	1	1942.058	-78.12376	2.855398E-007	0.0006792	8
	51	135	2.372217	481.6232	-2355.733	1	2404.462	-78.44527	2.962479E-007	0.000728	8
	52	139	1.878005	578.5418	-2915.735	1	2972.578	-78.77711	2.676499E-007	0.0006422	8
	53	144	1.512097	694.1945	-3539.305	1	3606.742	-78.90295	3.091106E-007	0.0006564	8
	54	149	1.201923	858.4359	-4377.54	1	4460.915	-78.90508	1.913249E-008	0.0006099	7
	55	155	0.956633	1064.208	-5377.129	1	5481.428	-78.80505	7.456473E-009	-2.984352E-006	7
