EXPLAIN
TAG	EISPOT
TITLE	LABEL	Potentiostatic EIS	Test Identifier
DATE	LABEL	2/24/2021	Date
TIME	LABEL	12:25:16	Time
NOTES	NOTES	1	Notes...
	
PSTAT	PSTAT	REF3000-16137	Potentiostat
VDC	POTEN	0.00000E+000	T	DC Voltage (V)
FREQINIT	QUANT	3.00000E+005	Initial Freq. (Hz)
FREQFINAL	QUANT	1.00000E+000	Final Freq. (Hz)
PTSPERDEC	QUANT	1.00000E+001	Points/decade
VAC	QUANT	5.00000E+001	AC Voltage (mV rms)
AREA	QUANT	1.00000E+000	Sample Area (cm^2)
SPEED	SELECTOR	2	Optimize for:
ZGUESS	QUANT	1.00000E+003	Estimated Z (ohms)
EOC	QUANT	0	Open Circuit (V)
SEQUENCER	TOGGLE	TRUE	Run as Sequence
PSTATMODEL	IQUANT	5	Pstat Model
PSTATSECTION	LABEL	REF3000-16137	Pstat Section
PSTATSERIALNO	LABEL	16137	Pstat Serial Number
CTRLMODE	IQUANT	1	Control Mode
IESTAB	IQUANT	0	I/E Stability
CASPEED	IQUANT	1	Control Amp Speed
CONVENTION	IQUANT	1	Current Convention
ICHRANGE	IQUANT	2	Ich Range
ICHRANGEMODE	TOGGLE	F	Ich Auto Range
ICHOFFSETENABLE	TOGGLE	T	Ich Offset Enable
ICHOFFSET	QUANT	0	Ich Offset (V)
ICHFILTER	IQUANT	3	Ich Filter
VCHRANGE	IQUANT	2	Vch Range
VCHRANGEMODE	TOGGLE	F	Vch Auto Range
VCHOFFSETENABLE	TOGGLE	T	Vch Offset Enable
VCHOFFSET	QUANT	0	Vch Offset (V)
VCHFILTER	IQUANT	3	Vch Filter
ACHRANGE	IQUANT	2	Ach Range
ACHOFFSETENABLE	TOGGLE	F	Ach Offset Enable
ACHOFFSET	QUANT	0	Ach Offset (V)
ACHFILTER	IQUANT	3	Ach Filter
IERANGELOWERLIMIT	IQUANT	2	I/E Range Lower Limit
IERANGEMODE	TOGGLE	F	I/E AutoRange
IERANGE	IQUANT	11	I/E Range
POSFEEDENABLE	TOGGLE	F	Positive Feedback IR Comp
POSFEEDRESISTANCE	QUANT	0	Positive Feedback Resistance (ohm)
ACHSELECT	IQUANT	0	Ach Select
CABLEID	IQUANT	13	Cable ID
DCCALDATE	LABEL	7/31/2020	DC Calibration Date
ACCALDATE	LABEL	7/31/2020	AC Calibration Date
THERMOSELECT	IQUANT	1	Thermo Select
FRAMEWORKVERSION	QUANT	6.33	Framework Version
INSTRUMENTVERSION	LABEL	3.50	Instrument Version
COMPLIANCEVOLTAGE	IQUANT	0	Compliance Voltage
ZCURVE	TABLE
	Pt	Time	Freq	Zreal	Zimag	Zsig	Zmod	Zphz	Idc	Vdc	IERange
	#	s	Hz	ohm	ohm	V	ohm	°	A	V	#
	0	10	300046.9	3.833731	2.23349	1	4.436888	30.22462	1.561663E-005	1.413082E-006	10
	1	13	238359.4	3.792782	1.77431	1	4.187287	25.07077	4.480815E-005	-0.0002691	10
	2	16	189328.1	3.781999	1.400189	1	4.03287	20.31579	7.488318E-005	-0.0002107	10
	3	19	150421.9	3.767531	1.089855	1	3.921999	16.13387	-1.656033E-005	0.0001637	10
	4	21	119484.4	3.771002	0.848893	1	3.865369	12.68642	-9.594306E-006	0.0003721	10
	5	24	94921.88	3.773588	0.6563061	1	3.830235	9.86625	1.085334E-005	0.0004398	10
	6	26	75421.88	3.77615	0.4813983	1	3.806712	7.265099	3.537448E-005	0.0004801	10
	7	29	59859.37	3.782118	0.3316801	1	3.796633	5.011841	7.1572E-006	0.0005734	10
	8	31	47578.12	3.789675	0.2012233	1	3.795013	3.039425	2.664578E-005	0.0005872	10
	9	34	37828.12	3.798137	0.0821562	1	3.799025	1.239152	1.322377E-005	0.0006011	10
	10	36	30046.88	3.810476	-0.0310441	1	3.810602	-0.4667801	-1.884934E-005	0.0006568	10
	11	39	23859.38	3.822237	-0.1446746	1	3.824974	-2.167654	1.89609E-005	0.0006284	10
	12	41	18984.38	3.836936	-0.2623206	1	3.845893	-3.911067	-1.286697E-005	0.0006717	10
	13	43	15046.87	3.852343	-0.3931926	1	3.872357	-5.82776	-3.302315E-005	0.0006684	10
	14	46	11953.13	3.871168	-0.5401914	1	3.908676	-7.943884	1.809609E-005	0.0006481	10
	15	48	9515.62	3.893124	-0.7105281	1	3.957432	-10.34313	1.921039E-007	0.0006685	10
	16	50	7546.875	3.920792	-0.9169856	1	4.026595	-13.1636	1.608529E-005	0.0006613	10
	17	53	5928.309	3.955326	-1.176634	1	4.12663	-16.56673	-1.93969E-005	0.0007053	10
	18	55	4733.456	3.995063	-1.471491	1	4.257442	-20.22013	4.124626E-006	0.0006562	10
	19	57	3796.875	4.042299	-1.823362	1	4.434504	-24.27873	2.007327E-005	0.0006672	10
	20	60	2987.132	4.10552	-2.290746	1	4.701363	-29.1601	-1.132651E-005	0.0006715	10
	21	62	2390.625	4.177817	-2.824604	1	5.043069	-34.06245	1.962018E-005	0.0006732	10
	22	64	1884.191	4.271983	-3.530693	1	5.542169	-39.57293	1.383547E-005	0.0006816	10
	23	67	1516.544	4.378733	-4.320344	1	6.151315	-44.61544	1.409639E-005	0.0006811	10
	24	69	1193.986	4.527042	-5.393354	1	7.041476	-49.99077	-2.390454E-005	0.0006901	10
	25	71	946.5144	4.708406	-6.684913	1	8.176622	-54.84169	-2.11789E-005	0.0007015	10
	26	74	751.7689	4.926181	-8.2666	1	9.62309	-59.2087	2.092639E-005	0.0006636	10
	27	76	597.4265	5.202413	-10.2165	1	11.46481	-63.01403	-2.181184E-005	0.0006962	10
	28	78	477.4305	5.538739	-12.5454	1	13.71367	-66.17875	-2.480007E-006	0.0006829	10
	29	81	376.6741	5.980343	-15.58876	1	16.69653	-69.0116	-2.178839E-006	0.000684	10
	30	83	298.2954	6.523696	-19.29624	1	20.36918	-71.32057	-1.955811E-006	0.0006819	10
	31	85	237.7717	7.182698	-23.74157	1	24.8043	-73.1675	-2.762021E-006	0.0006798	10
	32	88	189.0121	8.014943	-29.28465	1	30.36165	-74.6935	-2.211954E-006	0.0006776	10
	33	90	150.2404	9.059306	-36.11498	1	37.23389	-75.91814	-2.663687E-006	0.0006773	10
	34	93	119.1737	10.37474	-44.56716	1	45.75879	-76.89557	1.276329E-006	8.161661E-005	9
	35	95	95.0169	12.02128	-54.79673	1	56.09985	-77.6265	1.214734E-006	7.880833E-005	9
	36	97	75.60484	14.14203	-67.47662	1	68.94267	-78.16304	1.175454E-006	8.107139E-005	9
	37	100	54.50582	18.28113	-90.83626	1	92.65757	-78.62102	1.036793E-006	7.599137E-005	9
	38	103	45.95588	21.14087	-106.0148	1	108.1021	-78.72234	1.272397E-006	8.586085E-005	9
	39	105	37.20238	25.53984	-128.2252	1	130.744	-78.73528	1.242439E-006	7.852112E-005	9
	40	107	30.04808	31.17846	-155.1405	1	158.2424	-78.63668	1.115624E-006	7.58516E-005	9
	41	110	23.91582	38.89407	-189.8156	1	193.7594	-78.42012	1.071789E-006	7.541546E-005	9
	42	112	18.60119	49.90577	-236.5782	1	241.7847	-78.0882	1.416058E-006	7.986862E-005	9
	43	114	15.02404	61.58162	-284.5687	1	291.1557	-77.78929	1.326988E-006	7.729056E-005	9
	44	117	12.01923	76.46667	-344.3959	1	352.7827	-77.48161	1.382581E-006	7.870983E-005	9
	45	119	9.450605	95.2277	-420.3607	1	431.0121	-77.23576	7.029115E-007	0.0006456	8
	46	122	7.512019	116.6288	-510.037	1	523.2017	-77.11978	6.547154E-007	0.0006444	8
	47	124	5.978954	141.6967	-618.0801	1	634.1143	-77.08789	7.072566E-007	0.0006638	8
	48	127	4.734848	170.7756	-753.2476	1	772.3641	-77.2259	6.548588E-007	0.0006445	8
	49	131	3.75601	204.3627	-916.8405	1	939.3405	-77.43425	7.394511E-007	0.0006865	8
	50	134	3.004808	240.9693	-1109.314	1	1135.184	-77.7444	6.797393E-007	0.0006833	8
	51	138	2.372217	287.0336	-1358.781	1	1388.767	-78.072	6.359571E-007	0.0006417	8
	52	142	1.878005	338.8417	-1670.751	1	1704.765	-78.53545	7.334055E-007	0.000626	8
	53	147	1.512097	392.7286	-2024.129	1	2061.876	-79.0197	6.775127E-007	0.0007569	8
	54	152	1.201923	464.3246	-2487.733	1	2530.694	-79.42764	7.031168E-007	0.0006451	8
	55	158	0.956633	547.5938	-3057.411	1	3106.062	-79.84577	6.638228E-007	2.02156E-005	8
