EXPLAIN
TAG	EISPOT
TITLE	LABEL	Potentiostatic EIS	Test Identifier
DATE	LABEL	2/24/2021	Date
TIME	LABEL	12:39:16	Time
NOTES	NOTES	1	Notes...
	
PSTAT	PSTAT	REF3000-16137	Potentiostat
VDC	POTEN	0.00000E+000	T	DC Voltage (V)
FREQINIT	QUANT	3.00000E+005	Initial Freq. (Hz)
FREQFINAL	QUANT	1.00000E+000	Final Freq. (Hz)
PTSPERDEC	QUANT	1.00000E+001	Points/decade
VAC	QUANT	5.00000E+001	AC Voltage (mV rms)
AREA	QUANT	1.00000E+000	Sample Area (cm^2)
SPEED	SELECTOR	2	Optimize for:
ZGUESS	QUANT	1.00000E+003	Estimated Z (ohms)
EOC	QUANT	0	Open Circuit (V)
SEQUENCER	TOGGLE	TRUE	Run as Sequence
PSTATMODEL	IQUANT	5	Pstat Model
PSTATSECTION	LABEL	REF3000-16137	Pstat Section
PSTATSERIALNO	LABEL	16137	Pstat Serial Number
CTRLMODE	IQUANT	1	Control Mode
IESTAB	IQUANT	0	I/E Stability
CASPEED	IQUANT	1	Control Amp Speed
CONVENTION	IQUANT	1	Current Convention
ICHRANGE	IQUANT	2	Ich Range
ICHRANGEMODE	TOGGLE	F	Ich Auto Range
ICHOFFSETENABLE	TOGGLE	T	Ich Offset Enable
ICHOFFSET	QUANT	0	Ich Offset (V)
ICHFILTER	IQUANT	3	Ich Filter
VCHRANGE	IQUANT	2	Vch Range
VCHRANGEMODE	TOGGLE	F	Vch Auto Range
VCHOFFSETENABLE	TOGGLE	T	Vch Offset Enable
VCHOFFSET	QUANT	0	Vch Offset (V)
VCHFILTER	IQUANT	3	Vch Filter
ACHRANGE	IQUANT	2	Ach Range
ACHOFFSETENABLE	TOGGLE	F	Ach Offset Enable
ACHOFFSET	QUANT	0	Ach Offset (V)
ACHFILTER	IQUANT	3	Ach Filter
IERANGELOWERLIMIT	IQUANT	2	I/E Range Lower Limit
IERANGEMODE	TOGGLE	F	I/E AutoRange
IERANGE	IQUANT	11	I/E Range
POSFEEDENABLE	TOGGLE	F	Positive Feedback IR Comp
POSFEEDRESISTANCE	QUANT	0	Positive Feedback Resistance (ohm)
ACHSELECT	IQUANT	0	Ach Select
CABLEID	IQUANT	13	Cable ID
DCCALDATE	LABEL	7/31/2020	DC Calibration Date
ACCALDATE	LABEL	7/31/2020	AC Calibration Date
THERMOSELECT	IQUANT	1	Thermo Select
FRAMEWORKVERSION	QUANT	6.33	Framework Version
INSTRUMENTVERSION	LABEL	3.50	Instrument Version
COMPLIANCEVOLTAGE	IQUANT	0	Compliance Voltage
ZCURVE	TABLE
	Pt	Time	Freq	Zreal	Zimag	Zsig	Zmod	Zphz	Idc	Vdc	IERange
	#	s	Hz	ohm	ohm	V	ohm	°	A	V	#
	0	8	300046.9	7.745321	2.20252	1	8.052397	15.87404	-4.659891E-005	0.0001191	10
	1	11	238359.4	7.731884	1.730492	1	7.92317	12.61561	1.104694E-005	4.605883E-005	10
	2	14	189328.1	7.738864	1.365378	1	7.858389	10.0058	3.073132E-005	0.0004265	10
	3	17	150421.9	7.737012	1.058981	1	7.809148	7.793766	-1.699431E-005	0.0004507	10
	4	19	119484.4	7.758275	0.8199023	1	7.801479	6.032683	5.582212E-005	0.0004587	10
	5	22	94921.88	7.778126	0.6415951	1	7.804543	4.715487	1.353274E-005	0.0005585	10
	6	25	75421.88	7.797072	0.4631196	1	7.810814	3.399181	-2.086799E-005	0.000651	10
	7	27	59859.37	7.817182	0.3071662	1	7.823214	2.250207	2.167623E-005	0.0006397	10
	8	30	47578.12	7.841688	0.1714885	1	7.843563	1.252792	-1.017161E-005	0.000644	10
	9	32	37828.12	7.868789	0.0499848	1	7.868948	0.363954	-5.647787E-006	0.0006241	10
	10	35	30046.88	7.895891	-0.0660324	1	7.896167	-0.4791469	8.137826E-006	0.0006982	10
	11	37	23859.38	7.924021	-0.1840339	1	7.926158	-1.330445	-1.951731E-005	0.0007179	10
	12	39	18984.38	7.952618	-0.3078932	1	7.958576	-2.217153	1.784056E-005	0.0006994	10
	13	42	15046.87	7.982295	-0.4478212	1	7.994846	-3.211031	5.162683E-006	0.0006428	10
	14	44	11953.13	8.014525	-0.6045747	1	8.037296	-4.31393	2.263632E-005	0.0006479	10
	15	46	9515.62	8.052093	-0.7897681	1	8.090731	-5.601787	1.22543E-005	0.0006538	10
	16	49	7546.875	8.09409	-1.013907	1	8.157347	-7.139969	1.221445E-005	0.0006342	10
	17	51	5928.309	8.142384	-1.29911	1	8.245368	-9.065085	3.9534E-006	0.0006341	10
	18	53	4733.456	8.196622	-1.624506	1	8.356053	-11.2103	-5.17629E-006	0.0006862	10
	19	56	3796.875	8.258938	-2.014671	1	8.501115	-13.7089	-3.063126E-005	0.0006734	10
	20	58	2987.132	8.33698	-2.534314	1	8.713666	-16.90847	-2.160237E-005	0.0007174	10
	21	60	2390.625	8.425567	-3.128153	1	8.98752	-20.36841	2.031926E-005	0.0006471	10
	22	63	1884.191	8.53993	-3.914823	1	9.39448	-24.62738	4.52441E-006	0.0006446	10
	23	65	1516.544	8.667671	-4.798982	1	9.90751	-28.97174	-5.528676E-006	0.0006852	10
	24	67	1193.986	8.839973	-5.993107	1	10.68	-34.13552	-2.04028E-005	0.0007029	10
	25	70	946.5144	9.040441	-7.437008	1	11.70635	-39.44201	-2.945028E-005	0.0006734	10
	26	72	751.7689	9.290619	-9.199335	1	13.07453	-44.71714	1.909919E-005	0.0006731	10
	27	74	597.4265	9.60065	-11.37151	1	14.88233	-49.82653	-2.25344E-005	0.0007133	10
	28	77	477.4305	9.97105	-13.98556	1	17.17608	-54.51289	-2.818542E-006	0.0006856	10
	29	79	376.6741	10.45888	-17.3947	1	20.2969	-58.98285	-2.206647E-006	0.0006759	10
	30	81	298.2954	11.061	-21.55415	1	24.22658	-62.83434	-2.418489E-006	0.000681	10
	31	84	237.7717	11.79254	-26.5392	1	29.04123	-66.04231	-2.507658E-006	0.0006829	10
	32	86	189.0121	12.70661	-32.74356	1	35.12262	-68.79053	-1.996551E-006	0.0006813	10
	33	88	150.2404	13.82302	-40.33892	1	42.64158	-71.08484	1.3218E-006	8.491411E-005	9
	34	91	119.1737	15.238	-49.84366	1	52.12089	-73.00077	1.347901E-006	8.417529E-005	9
	35	93	95.0169	16.95663	-61.29088	1	63.59323	-74.53545	1.306467E-006	8.371373E-005	9
	36	96	75.60484	19.11509	-75.50595	1	77.88797	-75.79347	1.310437E-006	8.017347E-005	9
	37	98	54.50582	23.16259	-101.7629	1	104.3657	-77.17718	1.128091E-006	8.287644E-005	9
	38	101	45.95588	25.88537	-118.9237	1	121.7082	-77.72032	1.3595E-006	8.238419E-005	9
	39	103	37.20238	29.99407	-144.1909	1	147.2775	-78.24911	1.340575E-006	7.795448E-005	9
	40	105	30.04808	35.21977	-175.1612	1	178.667	-78.6311	1.268544E-006	8.781112E-005	9
	41	108	23.91582	42.26266	-215.4294	1	219.5358	-78.90075	1.245368E-006	8.510295E-005	9
	42	110	18.60119	52.48187	-270.5868	1	275.6294	-79.02344	1.523471E-006	8.119682E-005	9
	43	113	15.02404	63.91224	-327.9465	1	334.1163	-78.97208	1.38128E-006	7.976426E-005	9
	44	115	12.01923	79.11566	-400.4268	1	408.1677	-78.82354	1.43811E-006	8.126193E-005	9
	45	117	9.450605	99.9476	-493.4599	1	503.4801	-78.54995	5.371828E-007	0.000659	8
	46	120	7.512019	125.4606	-603.1478	1	616.0581	-78.24948	5.724371E-007	0.0006505	8
	47	123	5.978954	157.4256	-734.798	1	751.4725	-77.90756	5.909668E-007	0.00066	8
	48	126	4.734848	197.9602	-897.4103	1	918.985	-77.56031	6.927211E-007	0.0006204	8
	49	129	3.75601	245.3489	-1092.562	1	1119.772	-77.34346	6.36726E-007	0.000664	8
	50	132	3.004808	299.375	-1318.441	1	1352.003	-77.20692	6.818519E-007	0.0006279	8
	51	136	2.372217	366.6002	-1609.825	1	1651.04	-77.17101	6.546154E-007	0.0005903	8
	52	140	1.878005	443.839	-1961.068	1	2010.667	-77.24737	6.446114E-007	0.0006672	8
	53	145	1.512097	527.4952	-2357.867	1	2416.151	-77.3896	6.367789E-007	0.0005579	8
	54	150	1.201923	624.7944	-2874.848	1	2941.958	-77.73851	6.505389E-007	0.0006811	8
	55	157	0.956633	734.7215	-3503.906	1	3580.108	-78.15743	6.415271E-007	1.187541E-005	8
