EXPLAIN
TAG	EISPOT
TITLE	LABEL	Potentiostatic EIS	Test Identifier
DATE	LABEL	2/24/2021	Date
TIME	LABEL	13:26:37	Time
NOTES	NOTES	1	Notes...
	
PSTAT	PSTAT	REF3000-16137	Potentiostat
VDC	POTEN	0.00000E+000	T	DC Voltage (V)
FREQINIT	QUANT	3.00000E+005	Initial Freq. (Hz)
FREQFINAL	QUANT	1.00000E+000	Final Freq. (Hz)
PTSPERDEC	QUANT	1.00000E+001	Points/decade
VAC	QUANT	5.00000E+001	AC Voltage (mV rms)
AREA	QUANT	1.00000E+000	Sample Area (cm^2)
SPEED	SELECTOR	2	Optimize for:
ZGUESS	QUANT	1.00000E+003	Estimated Z (ohms)
EOC	QUANT	0	Open Circuit (V)
SEQUENCER	TOGGLE	TRUE	Run as Sequence
PSTATMODEL	IQUANT	5	Pstat Model
PSTATSECTION	LABEL	REF3000-16137	Pstat Section
PSTATSERIALNO	LABEL	16137	Pstat Serial Number
CTRLMODE	IQUANT	1	Control Mode
IESTAB	IQUANT	0	I/E Stability
CASPEED	IQUANT	1	Control Amp Speed
CONVENTION	IQUANT	1	Current Convention
ICHRANGE	IQUANT	2	Ich Range
ICHRANGEMODE	TOGGLE	F	Ich Auto Range
ICHOFFSETENABLE	TOGGLE	T	Ich Offset Enable
ICHOFFSET	QUANT	0	Ich Offset (V)
ICHFILTER	IQUANT	3	Ich Filter
VCHRANGE	IQUANT	2	Vch Range
VCHRANGEMODE	TOGGLE	F	Vch Auto Range
VCHOFFSETENABLE	TOGGLE	T	Vch Offset Enable
VCHOFFSET	QUANT	0	Vch Offset (V)
VCHFILTER	IQUANT	3	Vch Filter
ACHRANGE	IQUANT	2	Ach Range
ACHOFFSETENABLE	TOGGLE	F	Ach Offset Enable
ACHOFFSET	QUANT	0	Ach Offset (V)
ACHFILTER	IQUANT	3	Ach Filter
IERANGELOWERLIMIT	IQUANT	2	I/E Range Lower Limit
IERANGEMODE	TOGGLE	F	I/E AutoRange
IERANGE	IQUANT	11	I/E Range
POSFEEDENABLE	TOGGLE	F	Positive Feedback IR Comp
POSFEEDRESISTANCE	QUANT	0	Positive Feedback Resistance (ohm)
ACHSELECT	IQUANT	0	Ach Select
CABLEID	IQUANT	13	Cable ID
DCCALDATE	LABEL	7/31/2020	DC Calibration Date
ACCALDATE	LABEL	7/31/2020	AC Calibration Date
THERMOSELECT	IQUANT	1	Thermo Select
FRAMEWORKVERSION	QUANT	6.33	Framework Version
INSTRUMENTVERSION	LABEL	3.50	Instrument Version
COMPLIANCEVOLTAGE	IQUANT	0	Compliance Voltage
ZCURVE	TABLE
	Pt	Time	Freq	Zreal	Zimag	Zsig	Zmod	Zphz	Idc	Vdc	IERange
	#	s	Hz	ohm	ohm	V	ohm	°	A	V	#
	0	14	300046.9	1638.274	-1998.102	1	2583.864	-50.65117	8.630423E-005	-0.0034786	9
	1	33	238359.4	2044.885	-2186.972	1	2994.061	-46.92302	1.637852E-005	-0.000949	9
	2	48	189328.1	2490.73	-2266.533	1	3367.626	-42.30179	-6.061849E-005	0.000475	9
	3	56	150421.9	2934.825	-2331.909	1	3748.466	-38.46943	-1.355647E-005	0.0018283	9
	4	63	119484.4	3609.503	-2331.842	1	4297.208	-32.86361	-8.580673E-005	0.0311949	8
	5	70	94921.88	4116.754	-2207.16	1	4671.105	-28.19757	2.035915E-005	-0.008921	8
	6	78	75421.88	4589.349	-2127.752	1	5058.602	-24.87378	-2.285433E-005	0.0053975	8
	7	85	59859.37	5057.784	-2006.57	1	5441.277	-21.63967	-2.455754E-005	0.0092881	8
	8	93	47578.12	5469.292	-1881.164	1	5783.765	-18.98067	2.272804E-005	-0.0030522	8
	9	100	37828.12	5859.894	-1671.014	1	6093.492	-15.91609	-1.993541E-006	-0.0044446	8
	10	108	30046.88	6465.654	-1068.116	1	6553.286	-9.380457	-4.746536E-006	0.0225045	7
	11	111	23859.38	6642.441	-902.8071	1	6703.513	-7.739926	-5.675376E-006	0.021586	7
	12	114	18984.38	6807.092	-782.2119	1	6851.887	-6.555182	1.949416E-006	0.0083141	7
	13	118	15046.87	6954.58	-652.4139	1	6985.115	-5.359272	-1.864715E-006	0.0192971	7
	14	121	11953.13	7101.592	-562.3232	1	7123.82	-4.527388	3.882491E-006	0.0007734	7
	15	125	9515.62	7227.743	-488.6006	1	7244.239	-3.867352	2.023696E-006	0.0083722	7
	16	128	7546.875	7392.311	-401.8398	1	7403.225	-3.111488	1.942785E-006	0.0083613	7
	17	132	5928.309	7552.315	-333.6111	1	7559.68	-2.529303	6.40548E-006	-0.0148181	7
	18	136	4733.456	7675.258	-310.2411	1	7681.526	-2.314689	6.590027E-006	-0.0201762	7
	19	141	3796.875	7860.84	-275.7704	1	7865.676	-2.009201	-4.640205E-006	0.0224373	7
	20	145	2987.132	7994.404	-227.2197	1	7997.633	-1.628042	1.430454E-006	-0.0176038	7
	21	149	2390.625	8211.725	-191.4579	1	8213.956	-1.33562	6.059779E-006	-0.0229694	7
	22	153	1884.191	8336.114	-185.1049	1	8338.169	-1.272054	-5.711075E-006	0.0220641	7
	23	158	1516.544	8532.591	-136.2291	1	8533.679	-0.9146915	-5.720541E-006	0.0221441	7
	24	162	1193.986	8685.41	-138.5701	1	8686.516	-0.9140393	-5.73268E-006	0.0221669	7
	25	167	946.5144	8776.063	-99.8281	1	8776.631	-0.651714	3.292103E-006	-0.0214425	7
	26	169	751.7689	8858.248	-74.5891	1	8858.563	-0.4824362	-3.425159E-006	0.0222149	7
	27	172	597.4265	9056.153	-68.41402	1	9056.412	-0.4328283	-6.284355E-006	0.0199429	7
	28	174	477.4305	9123.604	-86.11129	1	9124.01	-0.5407586	-6.493508E-008	0.0006048	7
	29	177	376.6741	9221.921	-83.7093	1	9222.301	-0.5200714	-7.557871E-008	0.0006568	7
	30	179	298.2954	9320.341	-83.78678	1	9320.718	-0.5150563	-7.201259E-008	0.0006319	7
	31	181	237.7717	9424.477	-89.31775	1	9424.899	-0.5429879	-6.031963E-008	0.000651	7
	32	184	189.0121	9530.78	-97.6399	1	9531.28	-0.5869572	-5.63333E-008	0.0006673	7
	33	186	150.2404	9638.29	-110.2286	1	9638.92	-0.6552364	-5.286666E-008	0.000656	7
	34	189	119.1737	9742.76	-126.2439	1	9743.58	-0.742381	-7.151841E-008	0.0006201	7
	35	191	95.0169	9851.76	-147.0555	1	9852.85	-0.8551807	-6.926582E-008	0.000598	7
	36	193	75.60484	9970.1	-174.8828	1	9971.63	-1.004907	-7.827998E-008	0.0006584	7
	37	196	54.50582	10090.83	-225.1664	1	10093.34	-1.278283	-5.297963E-008	0.0006521	7
	38	199	45.95588	10207.33	-263.099	1	10210.72	-1.476501	-9.073435E-008	0.0006523	7
	39	201	37.20238	10320.88	-318.6315	1	10325.79	-1.768303	-1.030772E-007	0.0006071	7
	40	203	30.04808	10443.56	-381.1019	1	10450.51	-2.089886	-6.149521E-008	0.0005911	7
	41	206	23.91582	10568.65	-470.8972	1	10579.14	-2.551186	-3.030938E-008	0.0006717	7
	42	208	18.60119	10707.99	-581.4872	1	10723.76	-3.108341	3.701499E-008	0.0006638	7
	43	210	15.02404	10833.3	-691.6743	1	10855.36	-3.653209	-1.869504E-007	0.0006698	7
	44	213	12.01923	10963.49	-861.5322	1	10997.29	-4.493181	5.892818E-009	0.0005946	7
	45	215	9.450605	11099.68	-1067.756	1	11150.92	-5.494773	-1.354601E-007	0.0006931	7
	46	218	7.512019	11218.6	-1342.318	1	11298.62	-6.823065	-1.75446E-007	0.0006758	7
	47	220	5.978954	11424.8	-1665.561	1	11545.57	-8.294419	-1.043538E-007	0.0006647	7
	48	223	4.734848	11668.6	-2089.781	1	11854.26	-10.15371	-8.530302E-009	0.0006257	7
	49	227	3.75601	11914.12	-2593.08	1	12193.04	-12.2788	-9.902553E-008	0.0005798	7
	50	230	3.004808	12149.66	-3180.466	1	12559.05	-14.66938	-3.513672E-008	0.0006201	7
	51	234	2.372217	12503.16	-3927.419	1	13105.48	-17.43824	-8.594534E-008	0.0005774	7
	52	238	1.878005	12849.08	-4897.748	1	13750.88	-20.8656	-6.081712E-008	0.0006402	7
	53	243	1.512097	13275.04	-5998.25	1	14567.28	-24.31556	-5.558752E-008	0.0005342	7
	54	248	1.201923	13826.15	-7444.531	1	15702.97	-28.29974	-6.31219E-008	0.0006645	7
	55	254	0.956633	14455.4	-9222.611	1	17146.87	-32.53806	-6.924127E-008	-1.06581E-005	7
