EXPLAIN
TAG	EISPOT
TITLE	LABEL	Potentiostatic EIS	Test Identifier
DATE	LABEL	2/24/2021	Date
TIME	LABEL	13:06:52	Time
NOTES	NOTES	1	Notes...
	
PSTAT	PSTAT	REF3000-16137	Potentiostat
VDC	POTEN	0.00000E+000	T	DC Voltage (V)
FREQINIT	QUANT	3.00000E+005	Initial Freq. (Hz)
FREQFINAL	QUANT	1.00000E+000	Final Freq. (Hz)
PTSPERDEC	QUANT	1.00000E+001	Points/decade
VAC	QUANT	5.00000E+001	AC Voltage (mV rms)
AREA	QUANT	1.00000E+000	Sample Area (cm^2)
SPEED	SELECTOR	2	Optimize for:
ZGUESS	QUANT	1.00000E+003	Estimated Z (ohms)
EOC	QUANT	0	Open Circuit (V)
SEQUENCER	TOGGLE	TRUE	Run as Sequence
PSTATMODEL	IQUANT	5	Pstat Model
PSTATSECTION	LABEL	REF3000-16137	Pstat Section
PSTATSERIALNO	LABEL	16137	Pstat Serial Number
CTRLMODE	IQUANT	1	Control Mode
IESTAB	IQUANT	0	I/E Stability
CASPEED	IQUANT	1	Control Amp Speed
CONVENTION	IQUANT	1	Current Convention
ICHRANGE	IQUANT	2	Ich Range
ICHRANGEMODE	TOGGLE	F	Ich Auto Range
ICHOFFSETENABLE	TOGGLE	T	Ich Offset Enable
ICHOFFSET	QUANT	0	Ich Offset (V)
ICHFILTER	IQUANT	3	Ich Filter
VCHRANGE	IQUANT	2	Vch Range
VCHRANGEMODE	TOGGLE	F	Vch Auto Range
VCHOFFSETENABLE	TOGGLE	T	Vch Offset Enable
VCHOFFSET	QUANT	0	Vch Offset (V)
VCHFILTER	IQUANT	3	Vch Filter
ACHRANGE	IQUANT	2	Ach Range
ACHOFFSETENABLE	TOGGLE	F	Ach Offset Enable
ACHOFFSET	QUANT	0	Ach Offset (V)
ACHFILTER	IQUANT	3	Ach Filter
IERANGELOWERLIMIT	IQUANT	2	I/E Range Lower Limit
IERANGEMODE	TOGGLE	F	I/E AutoRange
IERANGE	IQUANT	11	I/E Range
POSFEEDENABLE	TOGGLE	F	Positive Feedback IR Comp
POSFEEDRESISTANCE	QUANT	0	Positive Feedback Resistance (ohm)
ACHSELECT	IQUANT	0	Ach Select
CABLEID	IQUANT	13	Cable ID
DCCALDATE	LABEL	7/31/2020	DC Calibration Date
ACCALDATE	LABEL	7/31/2020	AC Calibration Date
THERMOSELECT	IQUANT	1	Thermo Select
FRAMEWORKVERSION	QUANT	6.33	Framework Version
INSTRUMENTVERSION	LABEL	3.50	Instrument Version
COMPLIANCEVOLTAGE	IQUANT	0	Compliance Voltage
ZCURVE	TABLE
	Pt	Time	Freq	Zreal	Zimag	Zsig	Zmod	Zphz	Idc	Vdc	IERange
	#	s	Hz	ohm	ohm	V	ohm	°	A	V	#
	0	7	300046.9	111.4564	-0.9185677	1	111.4602	-0.4721924	7.098255E-005	-0.0028105	9
	1	10	238359.4	112.5789	-1.039202	1	112.5837	-0.5288756	6.994572E-005	-0.0024902	9
	2	13	189328.1	113.6393	-1.014077	1	113.6438	-0.5112737	-3.097344E-005	-0.000488	9
	3	15	150421.9	114.2994	-1.22286	1	114.3059	-0.6129694	-7.892191E-005	0.0028867	9
	4	18	119484.4	115.0366	-0.8002505	1	115.0394	-0.3985709	2.050491E-005	-0.0003746	9
	5	20	94921.88	115.839	-0.5971489	1	115.8405	-0.2953567	2.315351E-005	-0.0006866	9
	6	23	75421.88	116.5894	-0.6677682	1	116.5913	-0.3281591	-1.582567E-006	-0.0003123	9
	7	26	59859.37	117.3081	-0.6852472	1	117.3101	-0.3346856	1.907548E-005	-0.0007003	9
	8	28	47578.12	118.0807	-0.7024207	1	118.0828	-0.3408284	2.291251E-005	-0.0006914	9
	9	31	37828.12	118.8698	-0.7440319	1	118.8722	-0.358622	2.398563E-005	-0.0005996	9
	10	33	30046.88	119.5649	-0.7310153	1	119.5671	-0.3502999	5.502014E-006	-0.0005019	9
	11	36	23859.38	120.2741	-0.7656932	1	120.2765	-0.3647536	-9.534616E-006	-7.361165E-006	9
	12	38	18984.38	120.9723	-0.8840709	1	120.9755	-0.4187127	1.313245E-005	-0.0006623	9
	13	40	15046.87	121.5207	-1.029667	1	121.525	-0.485466	2.501648E-005	-0.0004858	9
	14	43	11953.13	122.6569	-1.129828	1	122.6621	-0.5277531	9.970675E-006	-0.0005091	9
	15	45	9515.62	123.1321	-1.289446	1	123.1388	-0.5999824	2.283682E-005	-0.0001993	9
	16	47	7546.875	123.8077	-1.525672	1	123.8171	-0.7060158	2.328186E-005	-0.0007132	9
	17	50	5928.309	124.6224	-1.939845	1	124.6375	-0.8917812	2.435576E-005	-0.00043	9
	18	52	4733.456	125.2991	-2.284703	1	125.32	-1.044615	2.248638E-005	-0.0002357	9
	19	54	3796.875	126.1278	-2.707444	1	126.1569	-1.229715	-2.354888E-006	-0.0002632	9
	20	56	2987.132	126.8484	-3.494498	1	126.8966	-1.57802	2.023117E-006	0.0005187	9
	21	59	2390.625	127.6891	-4.17862	1	127.7575	-1.874332	1.376544E-005	-0.000671	9
	22	61	1884.191	128.4975	-5.330388	1	128.608	-2.375406	-1.434852E-005	0.0001719	9
	23	63	1516.544	129.2869	-6.421941	1	129.4463	-2.84366	2.332701E-005	-0.0006758	9
	24	66	1193.986	130.1492	-8.010568	1	130.3955	-3.522061	2.247754E-005	-0.0002314	9
	25	68	946.5144	131.0587	-10.01988	1	131.4412	-4.371951	2.24031E-005	-0.0002699	9
	26	71	751.7689	132.0908	-12.27034	1	132.6595	-5.30716	-2.17037E-006	-0.0002656	9
	27	73	597.4265	133.1334	-15.13382	1	133.9908	-6.485209	2.507968E-005	-0.00058	9
	28	75	477.4305	134.2923	-18.75721	1	135.5959	-7.951317	1.288853E-006	8.255095E-005	9
	29	77	376.6741	135.531	-23.41587	1	137.539	-9.8023	1.283995E-006	8.31411E-005	9
	30	80	298.2954	136.8922	-29.14113	1	139.9595	-12.01754	1.258647E-006	8.696056E-005	9
	31	82	237.7717	138.4382	-36.04575	1	143.054	-14.5943	1.306805E-006	8.3094E-005	9
	32	85	189.0121	140.2122	-44.69278	1	147.1628	-17.67974	1.266851E-006	8.731965E-005	9
	33	87	150.2404	142.2644	-55.3949	1	152.6688	-21.27493	1.280913E-006	8.841685E-005	9
	34	89	119.1737	144.6857	-68.75767	1	160.1923	-25.41804	1.149185E-006	9.435077E-005	9
	35	92	95.0169	147.5276	-84.88017	1	170.203	-29.91401	1.326334E-006	8.271995E-005	9
	36	94	75.60484	150.9848	-104.9249	1	183.8631	-34.79688	1.404261E-006	7.499362E-005	9
	37	97	54.50582	156.7924	-141.9201	1	211.4832	-42.14972	1.221444E-006	7.817889E-005	9
	38	99	45.95588	160.9443	-166.1415	1	231.3138	-45.91032	1.26857E-006	0.0000989	9
	39	102	37.20238	166.6955	-201.7645	1	261.718	-50.43688	1.282084E-006	7.948762E-005	9
	40	104	30.04808	173.7657	-245.5775	1	300.8369	-54.71754	1.311227E-006	7.712116E-005	9
	41	106	23.91582	182.9463	-302.7408	1	353.7249	-58.85543	1.314478E-006	7.591537E-005	9
	42	109	18.60119	194.5208	-379.4043	1	426.3637	-62.85575	1.614402E-007	0.0006549	8
	43	111	15.02404	207.7173	-461.0021	1	505.6377	-65.74474	2.07662E-007	0.0006504	8
	44	113	12.01923	224.5937	-564.9938	1	607.9969	-68.32143	1.380836E-007	0.000667	8
	45	116	9.450605	247.024	-703.089	1	745.2214	-70.64153	2.22931E-007	0.0006661	8
	46	118	7.512019	273.237	-866.3845	1	908.4495	-72.49597	2.205655E-007	0.0006572	8
	47	121	5.978954	305.727	-1065.238	1	1108.242	-73.98634	1.955313E-007	0.000657	8
	48	124	4.734848	346.2181	-1317.244	1	1361.983	-75.27373	2.487976E-007	0.0006777	8
	49	127	3.75601	396.633	-1624.721	1	1672.434	-76.28107	1.515076E-007	0.0006522	8
	50	131	3.004808	456.4266	-1988.467	1	2040.178	-77.07243	2.136794E-007	0.0006412	8
	51	135	2.372217	535.643	-2462.426	1	2520.011	-77.72783	2.064946E-007	0.000635	8
	52	139	1.878005	639.2036	-3049.882	1	3116.145	-78.1631	1.832422E-007	0.00066	8
	53	143	1.512097	756.5258	-3713.9	1	3790.17	-78.48631	1.977005E-007	0.0005539	8
	54	149	1.201923	916.1191	-4587.351	1	4677.933	-78.70629	4.113132E-009	0.0006519	7
	55	155	0.956633	1112.22	-5642.583	1	5751.154	-78.84927	2.996969E-010	-6.317296E-007	7
