EXPLAIN
TAG	EISPOT
TITLE	LABEL	Potentiostatic EIS	Test Identifier
DATE	LABEL	2/24/2021	Date
TIME	LABEL	13:31:01	Time
NOTES	NOTES	1	Notes...
	
PSTAT	PSTAT	REF3000-16137	Potentiostat
VDC	POTEN	0.00000E+000	T	DC Voltage (V)
FREQINIT	QUANT	3.00000E+005	Initial Freq. (Hz)
FREQFINAL	QUANT	1.00000E+000	Final Freq. (Hz)
PTSPERDEC	QUANT	1.00000E+001	Points/decade
VAC	QUANT	5.00000E+001	AC Voltage (mV rms)
AREA	QUANT	1.00000E+000	Sample Area (cm^2)
SPEED	SELECTOR	2	Optimize for:
ZGUESS	QUANT	1.00000E+003	Estimated Z (ohms)
EOC	QUANT	0	Open Circuit (V)
SEQUENCER	TOGGLE	TRUE	Run as Sequence
PSTATMODEL	IQUANT	5	Pstat Model
PSTATSECTION	LABEL	REF3000-16137	Pstat Section
PSTATSERIALNO	LABEL	16137	Pstat Serial Number
CTRLMODE	IQUANT	1	Control Mode
IESTAB	IQUANT	0	I/E Stability
CASPEED	IQUANT	1	Control Amp Speed
CONVENTION	IQUANT	1	Current Convention
ICHRANGE	IQUANT	2	Ich Range
ICHRANGEMODE	TOGGLE	F	Ich Auto Range
ICHOFFSETENABLE	TOGGLE	T	Ich Offset Enable
ICHOFFSET	QUANT	0	Ich Offset (V)
ICHFILTER	IQUANT	3	Ich Filter
VCHRANGE	IQUANT	2	Vch Range
VCHRANGEMODE	TOGGLE	F	Vch Auto Range
VCHOFFSETENABLE	TOGGLE	T	Vch Offset Enable
VCHOFFSET	QUANT	0	Vch Offset (V)
VCHFILTER	IQUANT	3	Vch Filter
ACHRANGE	IQUANT	2	Ach Range
ACHOFFSETENABLE	TOGGLE	F	Ach Offset Enable
ACHOFFSET	QUANT	0	Ach Offset (V)
ACHFILTER	IQUANT	3	Ach Filter
IERANGELOWERLIMIT	IQUANT	2	I/E Range Lower Limit
IERANGEMODE	TOGGLE	F	I/E AutoRange
IERANGE	IQUANT	11	I/E Range
POSFEEDENABLE	TOGGLE	F	Positive Feedback IR Comp
POSFEEDRESISTANCE	QUANT	0	Positive Feedback Resistance (ohm)
ACHSELECT	IQUANT	0	Ach Select
CABLEID	IQUANT	13	Cable ID
DCCALDATE	LABEL	7/31/2020	DC Calibration Date
ACCALDATE	LABEL	7/31/2020	AC Calibration Date
THERMOSELECT	IQUANT	1	Thermo Select
FRAMEWORKVERSION	QUANT	6.33	Framework Version
INSTRUMENTVERSION	LABEL	3.50	Instrument Version
COMPLIANCEVOLTAGE	IQUANT	0	Compliance Voltage
ZCURVE	TABLE
	Pt	Time	Freq	Zreal	Zimag	Zsig	Zmod	Zphz	Idc	Vdc	IERange
	#	s	Hz	ohm	ohm	V	ohm	°	A	V	#
	0	31	300046.9	1056.026	-3314.284	1	3478.458	-72.32663	3.52991E-006	-0.002062	9
	1	46	238359.4	1432.504	-3975.541	1	4225.754	-70.18443	2.767784E-005	0.0009764	9
	2	66	189328.1	1853.419	-4882.037	1	5222.016	-69.21121	2.627768E-005	0.0011036	9
	3	78	150421.9	2626.413	-5765.88	1	6335.883	-65.51028	7.818709E-005	-0.001516	9
	4	86	119484.4	3712.355	-6519.123	1	7502.036	-60.34039	4.901761E-005	-0.002658	8
	5	93	94921.88	4796.927	-7462.159	1	8870.982	-57.26572	-2.04059E-005	0.0030844	8
	6	102	75421.88	6035.739	-8609.891	1	10514.77	-54.96862	-9.979437E-006	-0.0017414	8
	7	110	59859.37	7935.331	-9542.16	1	12410.57	-50.25284	2.556021E-005	-0.0088388	8
	8	119	47578.12	9944.96	-10498.58	1	14461.07	-46.55121	-1.004477E-005	-0.0017008	8
	9	128	37828.12	13482.66	-10187.76	1	16898.89	-37.07541	6.283472E-006	-0.0247166	7
	10	134	30046.88	15785.53	-10316.47	1	18857.69	-33.16621	4.94715E-006	-0.0246076	7
	11	140	23859.38	18010.79	-10192.13	1	20694.64	-29.5051	6.070167E-006	-0.0093271	7
	12	145	18984.38	20097.68	-9798.9	1	22359.23	-25.9922	-4.936268E-006	0.024663	7
	13	149	15046.87	22143.3	-9076.83	1	23931.46	-22.28937	-6.214803E-006	0.0113778	7
	14	153	11953.13	23878.07	-8467.108	1	25334.84	-19.52439	4.971891E-006	-0.0246542	7
	15	158	9515.62	25736.16	-7709.227	1	26866	-16.67551	-3.114603E-006	-0.0044884	7
	16	164	7546.875	27423.79	-6985.947	1	28299.61	-14.29158	5.015943E-006	-0.0247635	7
	17	169	5928.309	28857.05	-6080.559	1	29490.72	-11.89891	6.12369E-006	-0.0093975	7
	18	174	4733.456	30044.08	-5562.845	1	30554.74	-10.48987	4.606406E-006	-0.0007895	7
	19	180	3796.875	31166.22	-5271.618	1	31608.91	-9.60044	-1.876912E-005	0.011016	8
	20	186	2987.132	33697.97	-4403.404	1	33984.46	-7.44481	2.340445E-005	-0.0029719	8
	21	193	2390.625	35944.37	-2270.361	1	36016	-3.614182	2.685712E-005	-0.0072133	8
	22	200	1884.191	40245.71	-1413.886	1	40270.54	-2.012051	1.56821E-005	-0.0089853	8
	23	208	1516.544	37991.5	-2934.768	1	38104.68	-4.417213	5.059323E-007	0.0148927	7
	24	213	1193.986	38514.2	-2935.656	1	38625.91	-4.358811	-1.586445E-006	0.0203001	7
	25	219	946.5144	40117.48	-2278.766	1	40182.15	-3.251039	4.995452E-006	-0.0250074	7
	26	223	751.7689	39814.71	-2252.552	1	39878.38	-3.238107	7.128457E-006	-0.0228853	7
	27	226	597.4265	39719.84	-3268.526	1	39854.09	-4.704243	5.019342E-006	-0.0248731	7
	28	230	477.4305	42428.41	-1317.961	1	42448.87	-1.779216	-6.950635E-008	0.0006417	7
	29	233	376.6741	43105.01	-623.6363	1	43109.52	-0.8288882	-1.307822E-008	0.0007104	6
	30	236	298.2954	43639.58	-575.8578	1	43643.38	-0.7560179	-1.205312E-008	0.000707	6
	31	238	237.7717	44229.89	-497.0409	1	44232.69	-0.6438438	-1.13726E-008	0.00063	6
	32	241	189.0121	44803.9	-450.6547	1	44806.17	-0.5762833	-9.203448E-009	0.0006299	6
	33	243	150.2404	45401.11	-431.7259	1	45403.16	-0.5448176	-1.15658E-008	0.0006279	6
	34	245	119.1737	45977.08	-362.5274	1	45978.51	-0.4517655	-9.614674E-009	0.0006323	6
	35	248	95.0169	46583.06	-376.2452	1	46584.58	-0.4627603	-1.250223E-008	0.0007184	6
	36	250	75.60484	47227.34	-386.0709	1	47228.92	-0.4683672	-8.398592E-009	0.0006297	6
	37	253	54.50582	47821.82	-436.564	1	47823.82	-0.523037	-1.282344E-008	0.0007172	6
	38	255	45.95588	48547.8	-455.3725	1	48549.94	-0.5374117	-7.608829E-009	0.0007249	6
	39	258	37.20238	49130.15	-514.4789	1	49132.85	-0.5999655	-8.519609E-009	0.0006883	6
	40	260	30.04808	49799.88	-565.7073	1	49803.1	-0.6508297	-9.452126E-009	0.0006902	6
	41	262	23.91582	50440.54	-673.0128	1	50445.03	-0.7644349	-1.557139E-008	0.0006313	6
	42	265	18.60119	51120.13	-726.5206	1	51125.29	-0.8142343	-2.274823E-008	0.0007193	6
	43	267	15.02404	51765.71	-919.7684	1	51773.88	-1.017919	-7.360457E-010	0.0007222	6
	44	269	12.01923	52436.64	-1105.781	1	52448.3	-1.208072	-7.769558E-009	0.0006826	6
	45	272	9.450605	53150.94	-1376.684	1	53168.76	-1.483709	6.046246E-009	0.000659	6
	46	274	7.512019	53932.37	-1627.759	1	53956.93	-1.728747	-1.20906E-008	0.0007034	6
	47	277	5.978954	54787.54	-2042.313	1	54825.59	-2.134824	-2.609087E-008	0.0006713	6
	48	280	4.734848	55787.8	-2494.117	1	55843.53	-2.55983	-1.811231E-008	0.0006513	6
	49	283	3.75601	56912.38	-3057.514	1	56994.45	-3.075155	-1.39331E-009	0.0007258	6
	50	287	3.004808	58196.72	-3797.996	1	58320.52	-3.733904	1.365847E-008	0.0006028	6
	51	290	2.372217	59484.58	-4598.18	1	59662.04	-4.420195	-3.753928E-009	0.0005955	6
	52	295	1.878005	61151.05	-5816.478	1	61427.05	-5.433431	1.047772E-008	0.0006755	6
	53	299	1.512097	63100.95	-7036.282	1	63492.04	-6.362673	1.123871E-008	0.0006705	6
	54	305	1.201923	65148.37	-8723.306	1	65729.8	-7.626489	-2.39277E-009	0.0006936	6
	55	311	0.956633	67995.35	-10736.18	1	68837.73	-8.972684	-2.810282E-008	3.243182E-005	6
