EXPLAIN
TAG	EISPOT
TITLE	LABEL	Potentiostatic EIS	Test Identifier
DATE	LABEL	2/24/2021	Date
TIME	LABEL	11:59:38	Time
NOTES	NOTES	1	Notes...
	
PSTAT	PSTAT	REF3000-16137	Potentiostat
VDC	POTEN	0.00000E+000	T	DC Voltage (V)
FREQINIT	QUANT	3.00000E+005	Initial Freq. (Hz)
FREQFINAL	QUANT	1.00000E+000	Final Freq. (Hz)
PTSPERDEC	QUANT	1.00000E+001	Points/decade
VAC	QUANT	5.00000E+001	AC Voltage (mV rms)
AREA	QUANT	1.00000E+000	Sample Area (cm^2)
SPEED	SELECTOR	2	Optimize for:
ZGUESS	QUANT	1.00000E+003	Estimated Z (ohms)
EOC	QUANT	0	Open Circuit (V)
SEQUENCER	TOGGLE	TRUE	Run as Sequence
PSTATMODEL	IQUANT	5	Pstat Model
PSTATSECTION	LABEL	REF3000-16137	Pstat Section
PSTATSERIALNO	LABEL	16137	Pstat Serial Number
CTRLMODE	IQUANT	1	Control Mode
IESTAB	IQUANT	0	I/E Stability
CASPEED	IQUANT	1	Control Amp Speed
CONVENTION	IQUANT	1	Current Convention
ICHRANGE	IQUANT	2	Ich Range
ICHRANGEMODE	TOGGLE	F	Ich Auto Range
ICHOFFSETENABLE	TOGGLE	T	Ich Offset Enable
ICHOFFSET	QUANT	0	Ich Offset (V)
ICHFILTER	IQUANT	3	Ich Filter
VCHRANGE	IQUANT	2	Vch Range
VCHRANGEMODE	TOGGLE	F	Vch Auto Range
VCHOFFSETENABLE	TOGGLE	T	Vch Offset Enable
VCHOFFSET	QUANT	0	Vch Offset (V)
VCHFILTER	IQUANT	3	Vch Filter
ACHRANGE	IQUANT	2	Ach Range
ACHOFFSETENABLE	TOGGLE	F	Ach Offset Enable
ACHOFFSET	QUANT	0	Ach Offset (V)
ACHFILTER	IQUANT	3	Ach Filter
IERANGELOWERLIMIT	IQUANT	2	I/E Range Lower Limit
IERANGEMODE	TOGGLE	F	I/E AutoRange
IERANGE	IQUANT	11	I/E Range
POSFEEDENABLE	TOGGLE	F	Positive Feedback IR Comp
POSFEEDRESISTANCE	QUANT	0	Positive Feedback Resistance (ohm)
ACHSELECT	IQUANT	0	Ach Select
CABLEID	IQUANT	13	Cable ID
DCCALDATE	LABEL	7/31/2020	DC Calibration Date
ACCALDATE	LABEL	7/31/2020	AC Calibration Date
THERMOSELECT	IQUANT	1	Thermo Select
FRAMEWORKVERSION	QUANT	6.33	Framework Version
INSTRUMENTVERSION	LABEL	3.50	Instrument Version
COMPLIANCEVOLTAGE	IQUANT	0	Compliance Voltage
ZCURVE	TABLE
	Pt	Time	Freq	Zreal	Zimag	Zsig	Zmod	Zphz	Idc	Vdc	IERange
	#	s	Hz	ohm	ohm	V	ohm	°	A	V	#
	0	10	300046.9	1.962338	2.236458	1	2.975317	48.73528	-0.0001422	-0.0005533	11
	1	13	238359.4	1.933503	1.777542	1	2.626421	42.59349	-3.405388E-005	-6.247848E-005	11
	2	17	189328.1	1.978991	1.260822	1	2.346503	32.50135	2.077055E-005	-5.562404E-005	12
	3	21	150421.9	1.887333	1.102722	1	2.185869	30.29668	-2.728028E-005	0.0002696	11
	4	23	119484.4	1.869967	0.8547048	1	2.056039	24.5637	-0.0000955	0.0003676	11
	5	26	94921.88	1.863293	0.6525378	1	1.974251	19.30059	1.102907E-005	0.0004856	11
	6	28	75421.88	1.860633	0.4836704	1	1.92247	14.5715	-1.486703E-005	0.0004997	11
	7	31	59859.37	1.861513	0.3400907	1	1.892325	10.35352	-3.792781E-005	0.0005937	11
	8	34	47578.12	1.862641	0.2160893	1	1.875134	6.617434	1.380242E-005	0.0006389	11
	9	36	37828.12	1.865432	0.1042337	1	1.868342	3.198159	-1.550793E-005	0.0006098	11
	10	39	30046.88	1.87052	-0.0011662	1	1.87052	-0.035722	-1.985487E-005	0.0006375	11
	11	41	23859.38	1.877155	-0.1052019	1	1.880101	-3.207688	-9.30127E-006	0.0006728	11
	12	43	18984.38	1.886497	-0.2119343	1	1.898364	-6.409893	-1.38556E-005	0.000701	11
	13	46	15046.87	1.896598	-0.3296439	1	1.925033	-9.85996	2.398513E-005	0.0007206	11
	14	48	11953.13	1.910347	-0.4608056	1	1.965138	-13.56157	-2.39329E-005	0.0006967	11
	15	50	9515.62	1.927189	-0.6105685	1	2.021596	-17.57915	2.296935E-005	0.0007412	11
	16	53	7546.875	1.948203	-0.7901183	1	2.102328	-22.07563	-3.983821E-005	0.000696	11
	17	55	5928.309	1.975725	-1.015233	1	2.221303	-27.19651	5.235901E-006	0.0007181	11
	18	57	4733.456	2.008132	-1.270511	1	2.376298	-32.32083	-2.232433E-005	0.0007046	11
	19	60	3796.875	2.046734	-1.5743	1	2.582158	-37.56665	2.03107E-005	0.0007387	11
	20	62	2987.132	2.100267	-1.977374	1	2.884637	-43.27374	2.290033E-005	0.0007326	11
	21	64	2390.625	2.163042	-2.437085	1	3.258548	-48.40924	2.562589E-005	0.0007249	11
	22	67	1884.191	2.246582	-3.044585	1	3.783733	-53.5766	-1.761519E-005	0.0006997	11
	23	69	1516.544	2.344256	-3.725689	1	4.401852	-57.82132	5.830706E-006	0.0006836	10
	24	71	1193.986	2.476514	-4.644144	1	5.263193	-61.931	5.610915E-006	0.000683	10
	25	74	946.5144	2.63646	-5.749815	1	6.325448	-65.36714	1.054745E-005	0.0006541	10
	26	76	751.7689	2.83893	-7.09794	1	7.644624	-68.2003	-2.452731E-005	0.0006832	10
	27	78	597.4265	3.092742	-8.754571	1	9.284803	-70.54313	5.495443E-006	0.0006467	10
	28	81	477.4305	3.402075	-10.74676	1	11.2724	-72.43391	-1.217055E-006	0.0006789	10
	29	83	376.6741	3.815212	-13.33869	1	13.87359	-74.03809	-7.622581E-007	0.0006742	10
	30	85	298.2954	4.333896	-16.49456	1	17.05442	-75.27847	-1.642429E-006	0.0006769	10
	31	88	237.7717	4.977973	-20.26921	1	20.87153	-76.20165	-2.40322E-006	0.0006783	10
	32	90	189.0121	5.81443	-24.95992	1	25.62821	-76.88677	-2.432804E-006	0.0006816	10
	33	92	150.2404	6.89912	-30.71667	1	31.48193	-77.34116	-1.593846E-006	0.0006774	10
	34	95	119.1737	8.321354	-37.82972	1	38.73413	-77.59429	-2.199266E-006	0.0006788	10
	35	97	95.0169	10.11411	-46.24773	1	47.34077	-77.66396	1.232036E-006	7.605174E-005	9
	36	100	75.60484	12.46032	-56.59758	1	57.95296	-77.58404	1.121702E-006	7.595454E-005	9
	37	102	54.50582	16.97229	-75.25236	1	77.14257	-77.29026	9.667742E-007	7.48978E-005	9
	38	105	45.95588	19.9489	-87.11733	1	89.37219	-77.10226	1.301535E-006	8.402474E-005	9
	39	107	37.20238	24.31117	-104.2382	1	107.0357	-76.87175	1.236483E-006	7.891167E-005	9
	40	110	30.04808	29.56172	-124.8931	1	128.344	-76.68339	1.096032E-006	8.635294E-005	9
	41	112	23.91582	36.12532	-151.2255	1	155.4806	-76.56476	1.200841E-006	7.450914E-005	9
	42	114	18.60119	44.65443	-186.6462	1	191.9136	-76.5451	1.412933E-006	7.287652E-005	9
	43	117	15.02404	53.10839	-223.3474	1	229.5747	-76.62439	1.462277E-006	9.014191E-005	9
	44	119	12.01923	63.23184	-269.578	1	276.8945	-76.79942	1.176625E-006	7.128798E-005	9
	45	121	9.450605	75.65499	-330.6866	1	339.2304	-77.11356	1.360747E-006	7.682177E-005	9
	46	124	7.512019	89.51732	-402.9955	1	412.818	-77.47623	1.496698E-006	7.581271E-005	9
	47	127	5.978954	104.9792	-489.1411	1	500.2795	-77.88696	8.300426E-007	0.0006566	8
	48	130	4.734848	124.004	-600.8715	1	613.5336	-78.33936	7.432047E-007	0.0006375	8
	49	133	3.75601	147.2716	-738.2484	1	752.7946	-78.71828	8.270084E-007	0.0006759	8
	50	136	3.004808	174.9798	-902.0082	1	918.8236	-79.0216	7.686435E-007	0.0006794	8
	51	140	2.372217	212.9458	-1116.094	1	1136.227	-79.19804	7.165859E-007	0.000674	8
	52	144	1.878005	264.5126	-1383.008	1	1408.076	-79.17243	7.734192E-007	0.0006322	8
	53	149	1.512097	325.2182	-1685.724	1	1716.809	-79.08038	7.468853E-007	0.0007555	8
	54	154	1.201923	415.3026	-2080.045	1	2121.099	-78.70878	7.736346E-007	0.0006462	8
	55	161	0.956633	535.6163	-2559.207	1	2614.656	-78.17919	6.905871E-007	1.881624E-005	8
