EXPLAIN
TAG	EISPOT
TITLE	LABEL	Potentiostatic EIS	Test Identifier
DATE	LABEL	2/24/2021	Date
TIME	LABEL	11:45:26	Time
NOTES	NOTES	1	Notes...
	
PSTAT	PSTAT	REF3000-16137	Potentiostat
VDC	POTEN	0.00000E+000	T	DC Voltage (V)
FREQINIT	QUANT	3.00000E+005	Initial Freq. (Hz)
FREQFINAL	QUANT	1.00000E+000	Final Freq. (Hz)
PTSPERDEC	QUANT	1.00000E+001	Points/decade
VAC	QUANT	5.00000E+001	AC Voltage (mV rms)
AREA	QUANT	1.00000E+000	Sample Area (cm^2)
SPEED	SELECTOR	2	Optimize for:
ZGUESS	QUANT	1.00000E+003	Estimated Z (ohms)
EOC	QUANT	0	Open Circuit (V)
SEQUENCER	TOGGLE	TRUE	Run as Sequence
PSTATMODEL	IQUANT	5	Pstat Model
PSTATSECTION	LABEL	REF3000-16137	Pstat Section
PSTATSERIALNO	LABEL	16137	Pstat Serial Number
CTRLMODE	IQUANT	1	Control Mode
IESTAB	IQUANT	0	I/E Stability
CASPEED	IQUANT	1	Control Amp Speed
CONVENTION	IQUANT	1	Current Convention
ICHRANGE	IQUANT	2	Ich Range
ICHRANGEMODE	TOGGLE	F	Ich Auto Range
ICHOFFSETENABLE	TOGGLE	T	Ich Offset Enable
ICHOFFSET	QUANT	0	Ich Offset (V)
ICHFILTER	IQUANT	3	Ich Filter
VCHRANGE	IQUANT	2	Vch Range
VCHRANGEMODE	TOGGLE	F	Vch Auto Range
VCHOFFSETENABLE	TOGGLE	T	Vch Offset Enable
VCHOFFSET	QUANT	0	Vch Offset (V)
VCHFILTER	IQUANT	3	Vch Filter
ACHRANGE	IQUANT	2	Ach Range
ACHOFFSETENABLE	TOGGLE	F	Ach Offset Enable
ACHOFFSET	QUANT	0	Ach Offset (V)
ACHFILTER	IQUANT	3	Ach Filter
IERANGELOWERLIMIT	IQUANT	2	I/E Range Lower Limit
IERANGEMODE	TOGGLE	F	I/E AutoRange
IERANGE	IQUANT	11	I/E Range
POSFEEDENABLE	TOGGLE	F	Positive Feedback IR Comp
POSFEEDRESISTANCE	QUANT	0	Positive Feedback Resistance (ohm)
ACHSELECT	IQUANT	0	Ach Select
CABLEID	IQUANT	13	Cable ID
DCCALDATE	LABEL	7/31/2020	DC Calibration Date
ACCALDATE	LABEL	7/31/2020	AC Calibration Date
THERMOSELECT	IQUANT	1	Thermo Select
FRAMEWORKVERSION	QUANT	6.33	Framework Version
INSTRUMENTVERSION	LABEL	3.50	Instrument Version
COMPLIANCEVOLTAGE	IQUANT	0	Compliance Voltage
ZCURVE	TABLE
	Pt	Time	Freq	Zreal	Zimag	Zsig	Zmod	Zphz	Idc	Vdc	IERange
	#	s	Hz	ohm	ohm	V	ohm	°	A	V	#
	0	10	300046.9	1.647099	2.242553	1	2.782441	53.70364	-5.080684E-006	-0.0003242	11
	1	14	238359.4	1.734658	1.637359	1	2.385368	43.34719	-0.0001995	-0.0003386	12
	2	18	189328.1	1.643262	1.296818	1	2.093334	38.27955	-8.441911E-005	-2.192042E-005	12
	3	21	150421.9	1.548112	1.113662	1	1.907064	35.73003	-0.0001225	0.0002095	11
	4	24	119484.4	1.534464	0.8621795	1	1.760095	29.33061	-0.0001069	0.0001054	11
	5	26	94921.88	1.525056	0.6610407	1	1.662158	23.43448	1.343532E-005	0.0004306	11
	6	29	75421.88	1.521322	0.4911064	1	1.598626	17.89088	-6.406495E-006	0.0004472	11
	7	32	59859.37	1.521854	0.3495097	1	1.561472	12.93429	-2.211628E-005	0.0005287	11
	8	34	47578.12	1.522177	0.2262232	1	1.538895	8.453322	1.402541E-005	0.000597	11
	9	37	37828.12	1.525024	0.1169146	1	1.529499	4.383952	-9.847618E-006	0.0006125	11
	10	39	30046.88	1.529155	0.0139457	1	1.529219	0.5225146	-5.105138E-005	0.0006259	11
	11	42	23859.38	1.535029	-0.0869039	1	1.537487	-3.240278	-4.921178E-005	0.000641	11
	12	44	18984.38	1.542903	-0.1895504	1	1.554503	-7.003869	-1.641753E-005	0.0006591	11
	13	46	15046.87	1.553477	-0.3015869	1	1.582481	-10.98655	-3.039299E-005	0.0006962	11
	14	49	11953.13	1.566076	-0.4255264	1	1.622858	-15.20112	-3.352565E-005	0.0006993	11
	15	51	9515.62	1.581147	-0.5666828	1	1.67963	-19.71767	1.9634E-005	0.0007388	11
	16	53	7546.875	1.601254	-0.7352362	1	1.761984	-24.66282	-2.056603E-005	0.000711	11
	17	56	5928.309	1.626669	-0.9466715	1	1.882084	-30.19809	-3.626778E-005	0.0007013	11
	18	58	4733.456	1.657264	-1.18556	1	2.037665	-35.57886	-4.06194E-005	0.0006944	11
	19	60	3796.875	1.69451	-1.469241	1	2.242773	-40.92724	2.185955E-005	0.000738	11
	20	62	2987.132	1.74652	-1.844923	1	2.540487	-46.56947	4.189024E-006	0.0007143	11
	21	65	2390.625	1.80752	-2.272921	1	2.904014	-51.50684	2.064662E-005	0.0007086	11
	22	67	1884.191	1.888566	-2.836681	1	3.40785	-56.34567	1.073887E-005	0.0007185	11
	23	69	1516.544	1.981639	-3.465755	1	3.992287	-60.24008	3.255049E-006	0.0007137	11
	24	72	1193.986	2.111665	-4.320762	1	4.80917	-63.95407	1.250055E-005	0.0006554	10
	25	74	946.5144	2.267191	-5.346444	1	5.807291	-67.02034	-1.511373E-005	0.0007005	10
	26	77	751.7689	2.465617	-6.593603	1	7.039522	-69.49718	1.810121E-005	0.0006583	10
	27	79	597.4265	2.713992	-8.12993	1	8.570969	-71.53959	2.180898E-005	0.0006656	10
	28	81	477.4305	3.020147	-9.97159	1	10.41892	-73.14975	-1.864574E-006	0.0006817	10
	29	83	376.6741	3.434099	-12.36445	1	12.83249	-74.47792	-1.813363E-006	0.0006817	10
	30	86	298.2954	3.960876	-15.27218	1	15.77746	-75.46055	-2.109385E-006	0.0006836	10
	31	88	237.7717	4.621722	-18.7375	1	19.29908	-76.14421	-2.05497E-006	0.0006829	10
	32	91	189.0121	5.487441	-23.02339	1	23.6683	-76.59412	-1.95629E-006	0.0006848	10
	33	93	150.2404	6.612053	-28.25115	1	29.0146	-76.82729	-1.157274E-006	0.0006799	10
	34	95	119.1737	8.076971	-34.65961	1	35.58829	-76.88208	-1.498641E-006	0.000682	10
	35	98	95.0169	9.89429	-42.18095	1	43.32585	-76.79892	1.259929E-006	8.244692E-005	9
	36	100	75.60484	12.20711	-51.35899	1	52.78976	-76.62991	1.121155E-006	7.65407E-005	9
	37	103	54.50582	16.46458	-67.80566	1	69.77599	-76.35158	1.063938E-006	7.832565E-005	9
	38	105	45.95588	19.17426	-78.26894	1	80.58337	-76.23483	1.484333E-006	8.51651E-005	9
	39	108	37.20238	23.04163	-93.4155	1	96.2152	-76.14415	1.270073E-006	8.278855E-005	9
	40	110	30.04808	27.52662	-111.6113	1	114.9556	-76.14566	1.230783E-006	8.059755E-005	9
	41	112	23.91582	33.09114	-135.0392	1	139.0346	-76.23109	1.058508E-006	8.264981E-005	9
	42	115	18.60119	40.38177	-166.9744	1	171.7881	-76.4044	1.219979E-006	8.955567E-005	9
	43	117	15.02404	47.52039	-200.1085	1	205.6735	-76.64124	1.417618E-006	8.287629E-005	9
	44	119	12.01923	56.14983	-242.1558	1	248.5805	-76.94526	1.125327E-006	7.571526E-005	9
	45	122	9.450605	67.25488	-298.2714	1	305.7598	-77.29333	1.367309E-006	7.958526E-005	9
	46	124	7.512019	79.69772	-364.7733	1	373.3782	-77.67537	1.500709E-006	0.000096	9
	47	127	5.978954	94.6489	-444.3126	1	454.2819	-77.97442	8.193343E-007	0.0006537	8
	48	130	4.734848	114.3787	-547.6837	1	559.4997	-78.20384	9.436262E-007	0.0006849	8
	49	133	3.75601	140.3334	-674.3977	1	688.8437	-78.24523	7.872995E-007	0.0006488	8
	50	137	3.004808	173.5952	-824.4954	1	842.5722	-78.1102	8.764862E-007	0.0006443	8
	51	140	2.372217	223.0185	-1019.261	1	1043.374	-77.65795	9.031264E-007	0.0006513	8
	52	145	1.878005	290.385	-1260.33	1	1293.351	-77.02526	7.663323E-007	0.0006571	8
	53	149	1.512097	374.8644	-1528.962	1	1574.245	-76.2242	8.347764E-007	0.0005591	8
	54	155	1.201923	504.0604	-1872.025	1	1938.699	-74.92998	7.750354E-007	0.0006613	8
	55	161	0.956633	680.9197	-2275.679	1	2375.367	-73.34197	7.384872E-007	1.725152E-005	8
