EXPLAIN
TAG	EISPOT
TITLE	LABEL	Potentiostatic EIS	Test Identifier
DATE	LABEL	2/24/2021	Date
TIME	LABEL	12:47:34	Time
NOTES	NOTES	1	Notes...
	
PSTAT	PSTAT	REF3000-16137	Potentiostat
VDC	POTEN	0.00000E+000	T	DC Voltage (V)
FREQINIT	QUANT	3.00000E+005	Initial Freq. (Hz)
FREQFINAL	QUANT	1.00000E+000	Final Freq. (Hz)
PTSPERDEC	QUANT	1.00000E+001	Points/decade
VAC	QUANT	5.00000E+001	AC Voltage (mV rms)
AREA	QUANT	1.00000E+000	Sample Area (cm^2)
SPEED	SELECTOR	2	Optimize for:
ZGUESS	QUANT	1.00000E+003	Estimated Z (ohms)
EOC	QUANT	0	Open Circuit (V)
SEQUENCER	TOGGLE	TRUE	Run as Sequence
PSTATMODEL	IQUANT	5	Pstat Model
PSTATSECTION	LABEL	REF3000-16137	Pstat Section
PSTATSERIALNO	LABEL	16137	Pstat Serial Number
CTRLMODE	IQUANT	1	Control Mode
IESTAB	IQUANT	0	I/E Stability
CASPEED	IQUANT	1	Control Amp Speed
CONVENTION	IQUANT	1	Current Convention
ICHRANGE	IQUANT	2	Ich Range
ICHRANGEMODE	TOGGLE	F	Ich Auto Range
ICHOFFSETENABLE	TOGGLE	T	Ich Offset Enable
ICHOFFSET	QUANT	0	Ich Offset (V)
ICHFILTER	IQUANT	3	Ich Filter
VCHRANGE	IQUANT	2	Vch Range
VCHRANGEMODE	TOGGLE	F	Vch Auto Range
VCHOFFSETENABLE	TOGGLE	T	Vch Offset Enable
VCHOFFSET	QUANT	0	Vch Offset (V)
VCHFILTER	IQUANT	3	Vch Filter
ACHRANGE	IQUANT	2	Ach Range
ACHOFFSETENABLE	TOGGLE	F	Ach Offset Enable
ACHOFFSET	QUANT	0	Ach Offset (V)
ACHFILTER	IQUANT	3	Ach Filter
IERANGELOWERLIMIT	IQUANT	2	I/E Range Lower Limit
IERANGEMODE	TOGGLE	F	I/E AutoRange
IERANGE	IQUANT	11	I/E Range
POSFEEDENABLE	TOGGLE	F	Positive Feedback IR Comp
POSFEEDRESISTANCE	QUANT	0	Positive Feedback Resistance (ohm)
ACHSELECT	IQUANT	0	Ach Select
CABLEID	IQUANT	13	Cable ID
DCCALDATE	LABEL	7/31/2020	DC Calibration Date
ACCALDATE	LABEL	7/31/2020	AC Calibration Date
THERMOSELECT	IQUANT	1	Thermo Select
FRAMEWORKVERSION	QUANT	6.33	Framework Version
INSTRUMENTVERSION	LABEL	3.50	Instrument Version
COMPLIANCEVOLTAGE	IQUANT	0	Compliance Voltage
ZCURVE	TABLE
	Pt	Time	Freq	Zreal	Zimag	Zsig	Zmod	Zphz	Idc	Vdc	IERange
	#	s	Hz	ohm	ohm	V	ohm	°	A	V	#
	0	8	300046.9	14.02559	2.066684	1	14.17703	8.382273	2.143916E-005	0.0001851	10
	1	11	238359.4	14.0413	1.645632	1	14.13741	6.684536	1.37178E-005	0.0002684	10
	2	14	189328.1	14.08293	1.295105	1	14.14236	5.2543	1.374465E-005	0.000424	10
	3	17	150421.9	14.13131	1.018455	1	14.16796	4.122227	2.563509E-005	0.0007317	10
	4	19	119484.4	14.16704	0.7728368	1	14.1881	3.122491	-4.517141E-005	0.0006697	10
	5	22	94921.88	14.20614	0.5919629	1	14.21847	2.386106	2.406179E-005	0.0005946	10
	6	24	75421.88	14.25782	0.4156339	1	14.26387	1.669773	1.251076E-005	0.000596	10
	7	27	59859.37	14.31355	0.265909	1	14.31602	1.064286	-2.496156E-005	0.0006985	10
	8	29	47578.12	14.36947	0.1361403	1	14.37011	0.5428199	2.204985E-005	0.0006838	10
	9	32	37828.12	14.42369	0.014734	1	14.42369	0.0585283	2.162957E-005	0.0006316	10
	10	34	30046.88	14.48146	-0.1018893	1	14.48181	-0.4031176	-2.540345E-006	0.0006409	10
	11	37	23859.38	14.54141	-0.2229246	1	14.54312	-0.8782946	2.798335E-005	0.0006832	10
	12	39	18984.38	14.59788	-0.3502724	1	14.60208	-1.374534	-2.546852E-005	0.0007254	10
	13	42	15046.87	14.65543	-0.4962509	1	14.66383	-1.939364	-2.231411E-005	0.000702	10
	14	44	11953.13	14.71959	-0.6629116	1	14.73451	-2.578631	-9.676077E-006	0.0006715	10
	15	46	9515.62	14.78457	-0.8569533	1	14.80938	-3.317306	1.808338E-005	0.0007098	10
	16	48	7546.875	14.85285	-1.093278	1	14.89303	-4.209797	-2.996661E-005	0.0006748	10
	17	51	5928.309	14.9311	-1.397044	1	14.99631	-5.345379	-2.604661E-005	0.0007066	10
	18	53	4733.456	15.01351	-1.741779	1	15.11421	-6.617536	-1.129312E-005	0.000664	10
	19	55	3796.875	15.10155	-2.154059	1	15.2544	-8.117815	-2.389601E-005	0.0007328	10
	20	58	2987.132	15.20947	-2.714036	1	15.44972	-10.11759	2.276738E-005	0.0006538	10
	21	60	2390.625	15.32458	-3.356435	1	15.68785	-12.35401	-3.974965E-006	0.0006476	10
	22	62	1884.191	15.46689	-4.201011	1	16.02726	-15.19569	1.593747E-005	0.0006861	10
	23	65	1516.544	15.62296	-5.152053	1	16.45055	-18.25123	-2.785214E-006	0.0006496	10
	24	67	1193.986	15.82484	-6.447223	1	17.08778	-22.16655	1.294998E-005	0.0006309	10
	25	69	946.5144	16.07012	-8.004135	1	17.95313	-26.47678	-2.299293E-005	0.0007457	10
	26	72	751.7689	16.35293	-9.92921	1	19.13132	-31.26539	-1.54622E-005	0.0006993	10
	27	74	597.4265	16.69917	-12.2834	1	20.73027	-36.33706	-4.808447E-006	0.0006963	10
	28	76	477.4305	17.11789	-15.10736	1	22.831	-41.42995	-2.191942E-006	0.0006827	10
	29	79	376.6741	17.65588	-18.80183	1	25.79222	-46.80034	-1.905497E-006	0.0006786	10
	30	81	298.2954	18.31475	-23.31652	1	29.64946	-51.85094	-2.023185E-006	0.0006839	10
	31	83	237.7717	19.10722	-28.72928	1	34.503	-56.37299	-1.773802E-006	0.0006833	10
	32	86	189.0121	20.10156	-35.47596	1	40.7752	-60.46304	-1.964523E-006	0.0006805	10
	33	88	150.2404	21.31131	-43.73841	1	48.65409	-64.02259	1.333053E-006	7.880072E-005	9
	34	91	119.1737	22.85913	-54.07206	1	58.70543	-67.08363	1.350433E-006	8.134305E-005	9
	35	93	95.0169	24.73128	-66.50446	1	70.95407	-69.60114	1.302671E-006	8.041001E-005	9
	36	95	75.60484	27.06742	-81.93288	1	86.28813	-71.71847	1.338877E-006	7.892372E-005	9
	37	98	54.50582	31.37139	-110.3891	1	114.7602	-74.13541	1.316748E-006	7.692902E-005	9
	38	101	45.95588	34.22995	-128.9842	1	133.449	-75.13738	1.414104E-006	8.540761E-005	9
	39	103	37.20238	38.44767	-156.3772	1	161.0343	-76.18696	1.35073E-006	8.334529E-005	9
	40	105	30.04808	43.70771	-189.9764	1	194.9395	-77.04347	1.336183E-006	8.371656E-005	9
	41	108	23.91582	50.69571	-233.9264	1	239.3567	-77.77215	1.336923E-006	8.73059E-005	9
	42	110	18.60119	60.46632	-294.067	1	300.2192	-78.38074	1.26638E-006	8.908725E-005	9
	43	112	15.02404	71.18325	-357.1993	1	364.2231	-78.72965	1.555053E-006	0.0000976	9
	44	115	12.01923	85.07196	-435.5244	1	443.7553	-78.94746	4.761027E-007	0.0006683	8
	45	117	9.450605	104.8031	-541.5365	1	551.5845	-79.047	4.787212E-007	0.0006699	8
	46	120	7.512019	129.1219	-665.7862	1	678.1915	-79.02437	5.666107E-007	0.0006484	8
	47	122	5.978954	160.843	-816.5625	1	832.2529	-78.85677	5.666719E-007	0.0006635	8
	48	125	4.734848	202.8171	-1004.024	1	1024.304	-78.57969	5.78918E-007	0.0006411	8
	49	129	3.75601	255.5246	-1230.057	1	1256.317	-78.26463	6.440445E-007	0.0006787	8
	50	132	3.004808	319.1608	-1491.716	1	1525.477	-77.92333	6.230168E-007	0.0006393	8
	51	136	2.372217	403.5904	-1827.957	1	1871.98	-77.54954	5.993915E-007	0.0005827	8
	52	140	1.878005	500.7357	-2229.413	1	2284.955	-77.3412	6.324981E-007	0.0006661	8
	53	145	1.512097	607.6169	-2671.34	1	2739.572	-77.18565	5.904166E-007	0.0006402	8
	54	150	1.201923	741.074	-3254.116	1	3337.434	-77.17059	6.272132E-007	0.0006631	8
	55	156	0.956633	894.6802	-3950.257	1	4050.306	-77.23857	5.959781E-007	1.560626E-005	8
