EXPLAIN
TAG	EISPOT
TITLE	LABEL	Potentiostatic EIS	Test Identifier
DATE	LABEL	2/24/2021	Date
TIME	LABEL	12:58:38	Time
NOTES	NOTES	1	Notes...
	
PSTAT	PSTAT	REF3000-16137	Potentiostat
VDC	POTEN	0.00000E+000	T	DC Voltage (V)
FREQINIT	QUANT	3.00000E+005	Initial Freq. (Hz)
FREQFINAL	QUANT	1.00000E+000	Final Freq. (Hz)
PTSPERDEC	QUANT	1.00000E+001	Points/decade
VAC	QUANT	5.00000E+001	AC Voltage (mV rms)
AREA	QUANT	1.00000E+000	Sample Area (cm^2)
SPEED	SELECTOR	2	Optimize for:
ZGUESS	QUANT	1.00000E+003	Estimated Z (ohms)
EOC	QUANT	0	Open Circuit (V)
SEQUENCER	TOGGLE	TRUE	Run as Sequence
PSTATMODEL	IQUANT	5	Pstat Model
PSTATSECTION	LABEL	REF3000-16137	Pstat Section
PSTATSERIALNO	LABEL	16137	Pstat Serial Number
CTRLMODE	IQUANT	1	Control Mode
IESTAB	IQUANT	0	I/E Stability
CASPEED	IQUANT	1	Control Amp Speed
CONVENTION	IQUANT	1	Current Convention
ICHRANGE	IQUANT	2	Ich Range
ICHRANGEMODE	TOGGLE	F	Ich Auto Range
ICHOFFSETENABLE	TOGGLE	T	Ich Offset Enable
ICHOFFSET	QUANT	0	Ich Offset (V)
ICHFILTER	IQUANT	3	Ich Filter
VCHRANGE	IQUANT	2	Vch Range
VCHRANGEMODE	TOGGLE	F	Vch Auto Range
VCHOFFSETENABLE	TOGGLE	T	Vch Offset Enable
VCHOFFSET	QUANT	0	Vch Offset (V)
VCHFILTER	IQUANT	3	Vch Filter
ACHRANGE	IQUANT	2	Ach Range
ACHOFFSETENABLE	TOGGLE	F	Ach Offset Enable
ACHOFFSET	QUANT	0	Ach Offset (V)
ACHFILTER	IQUANT	3	Ach Filter
IERANGELOWERLIMIT	IQUANT	2	I/E Range Lower Limit
IERANGEMODE	TOGGLE	F	I/E AutoRange
IERANGE	IQUANT	11	I/E Range
POSFEEDENABLE	TOGGLE	F	Positive Feedback IR Comp
POSFEEDRESISTANCE	QUANT	0	Positive Feedback Resistance (ohm)
ACHSELECT	IQUANT	0	Ach Select
CABLEID	IQUANT	13	Cable ID
DCCALDATE	LABEL	7/31/2020	DC Calibration Date
ACCALDATE	LABEL	7/31/2020	AC Calibration Date
THERMOSELECT	IQUANT	1	Thermo Select
FRAMEWORKVERSION	QUANT	6.33	Framework Version
INSTRUMENTVERSION	LABEL	3.50	Instrument Version
COMPLIANCEVOLTAGE	IQUANT	0	Compliance Voltage
ZCURVE	TABLE
	Pt	Time	Freq	Zreal	Zimag	Zsig	Zmod	Zphz	Idc	Vdc	IERange
	#	s	Hz	ohm	ohm	V	ohm	°	A	V	#
	0	6	300046.9	39.99312	2.157416	1	40.05127	3.087809	4.865558E-005	-0.0018698	9
	1	10	238359.4	40.28988	1.700559	1	40.32575	2.416911	2.176284E-005	-0.0004985	9
	2	13	189328.1	40.50146	1.316973	1	40.52286	1.862412	1.566789E-005	-0.0006613	9
	3	15	150421.9	40.75554	0.954693	1	40.76672	1.3419	2.599241E-006	-0.0009625	9
	4	18	119484.4	40.93536	0.7455646	1	40.94215	1.043425	8.003545E-006	-0.000806	9
	5	20	94921.88	41.18458	0.69977	1	41.19052	0.973423	1.824134E-005	-0.0005524	9
	6	23	75421.88	41.36833	0.4842354	1	41.37117	0.6706429	9.719683E-006	-1.482198E-005	9
	7	26	59859.37	41.56856	0.3003634	1	41.56964	0.4139969	-1.357745E-005	0.0003009	9
	8	28	47578.12	41.76623	0.153859	1	41.76651	0.211066	3.697165E-006	-0.0003093	9
	9	31	37828.12	41.9763	-0.0012579	1	41.9763	-0.0017169	-1.928904E-006	0.0004354	9
	10	33	30046.88	42.18978	-0.1475258	1	42.19004	-0.2003465	3.833598E-006	0.0002932	9
	11	36	23859.38	42.40257	-0.2850997	1	42.40353	-0.3852305	1.425349E-005	-0.0004874	9
	12	38	18984.38	42.60627	-0.4296333	1	42.60844	-0.57774	-1.549885E-005	0.0005678	9
	13	40	15046.87	42.79901	-0.5806643	1	42.80295	-0.7772978	-3.67676E-006	0.0004484	9
	14	43	11953.13	43.03141	-0.7600845	1	43.03812	-1.011938	-3.427024E-006	0.0004372	9
	15	45	9515.62	43.23819	-0.986293	1	43.24944	-1.30673	1.456144E-005	-0.0001287	9
	16	47	7546.875	43.45979	-1.25333	1	43.47786	-1.651886	1.671025E-005	-0.0002474	9
	17	50	5928.309	43.69005	-1.586641	1	43.71885	-2.07983	-8.223037E-006	0.0005796	9
	18	52	4733.456	43.91116	-1.956837	1	43.95474	-2.551615	1.889742E-005	-0.0003299	9
	19	54	3796.875	44.16502	-2.421211	1	44.23134	-3.137924	-1.150004E-005	0.0004806	9
	20	57	2987.132	44.41739	-3.033743	1	44.52087	-3.907279	1.804608E-005	-0.0002158	9
	21	59	2390.625	44.68531	-3.743883	1	44.84188	-4.789245	-1.466603E-005	0.0004484	9
	22	61	1884.191	44.94897	-4.698224	1	45.19384	-5.967088	3.142762E-006	0.0003083	9
	23	63	1516.544	45.28421	-5.725987	1	45.64479	-7.206552	-1.336785E-005	0.000347	9
	24	66	1193.986	45.6373	-7.184676	1	46.19938	-8.94664	-8.727763E-006	0.0006026	9
	25	68	946.5144	46.03081	-8.941461	1	46.8912	-10.99278	1.517835E-005	-0.0001349	9
	26	71	751.7689	46.45061	-11.09733	1	47.75783	-13.43645	1.906034E-005	-0.0003369	9
	27	73	597.4265	46.94842	-13.75466	1	48.92182	-16.3292	1.546411E-005	-0.0001054	9
	28	75	477.4305	47.53378	-16.97941	1	50.47535	-19.6571	1.433028E-006	7.927838E-005	9
	29	78	376.6741	48.24397	-21.18719	1	52.69134	-23.70953	1.385635E-006	8.831463E-005	9
	30	80	298.2954	49.08438	-26.32924	1	55.70013	-28.20945	1.404384E-006	8.867931E-005	9
	31	82	237.7717	50.08375	-32.49888	1	59.70393	-32.97916	1.467452E-006	7.862919E-005	9
	32	85	189.0121	51.29829	-40.1923	1	65.16852	-38.07876	1.370257E-006	8.42923E-005	9
	33	87	150.2404	52.77571	-49.68277	1	72.48209	-43.27092	1.324007E-006	7.754412E-005	9
	34	89	119.1737	54.59454	-61.51265	1	82.24578	-48.40987	1.335596E-006	8.755394E-005	9
	35	92	95.0169	56.78232	-75.76721	1	94.68317	-53.15096	1.427329E-006	7.638642E-005	9
	36	94	75.60484	59.50951	-93.47476	1	110.8103	-57.51765	1.309424E-006	7.551705E-005	9
	37	97	54.50582	64.46667	-126.1403	1	141.6592	-62.92973	1.258162E-006	7.717319E-005	9
	38	99	45.95588	67.8443	-147.4718	1	162.3293	-65.29524	1.360671E-006	7.125153E-005	9
	39	102	37.20238	72.73612	-178.8353	1	193.0611	-67.86737	1.356297E-006	7.732953E-005	9
	40	104	30.04808	78.76967	-217.2975	1	231.1338	-70.07458	1.37804E-006	7.58584E-005	9
	41	107	23.91582	86.63504	-267.48	1	281.1604	-72.0532	1.305208E-006	7.607184E-005	9
	42	109	18.60119	97.3629	-336.1902	1	350.0049	-73.84863	1.50718E-006	8.740759E-005	9
	43	111	15.02404	108.7778	-408.1483	1	422.3951	-75.07668	1.427381E-006	0.0000962	9
	44	114	12.01923	122.7951	-497.9286	1	512.8464	-76.14661	4.927558E-007	0.0006533	8
	45	116	9.450605	142.2581	-619.4577	1	635.5826	-77.06631	4.004553E-007	0.0006451	8
	46	118	7.512019	165.6895	-763.5704	1	781.3404	-77.75702	4.551481E-007	0.0006603	8
	47	121	5.978954	194.8151	-939.1901	1	959.182	-78.28139	4.588124E-007	0.0006566	8
	48	124	4.734848	232.7607	-1161.952	1	1185.036	-78.67251	3.954761E-007	0.0006477	8
	49	127	3.75601	280.9129	-1432.77	1	1460.048	-78.90714	4.818555E-007	0.0006709	8
	50	131	3.004808	340.2863	-1752.84	1	1785.565	-79.01359	4.179407E-007	0.0006841	8
	51	135	2.372217	422.3879	-2166.007	1	2206.807	-78.96537	4.354287E-007	0.0006614	8
	52	139	1.878005	530.4846	-2675.86	1	2727.937	-78.78661	4.605842E-007	0.0006373	8
	53	144	1.512097	654.5943	-3245.947	1	3311.293	-78.59836	4.486407E-007	0.0007562	8
	54	149	1.201923	825.4543	-3976.863	1	4061.627	-78.27396	4.599766E-007	0.0006344	8
	55	155	0.956633	1035.424	-4863.354	1	4972.355	-77.98099	2.598161E-008	-1.722925E-005	7
