EXPLAIN
TAG	EISPOT
TITLE	LABEL	Potentiostatic EIS	Test Identifier
DATE	LABEL	2/24/2021	Date
TIME	LABEL	11:51:07	Time
NOTES	NOTES	1	Notes...
	
PSTAT	PSTAT	REF3000-16137	Potentiostat
VDC	POTEN	0.00000E+000	T	DC Voltage (V)
FREQINIT	QUANT	3.00000E+005	Initial Freq. (Hz)
FREQFINAL	QUANT	1.00000E+000	Final Freq. (Hz)
PTSPERDEC	QUANT	1.00000E+001	Points/decade
VAC	QUANT	5.00000E+001	AC Voltage (mV rms)
AREA	QUANT	1.00000E+000	Sample Area (cm^2)
SPEED	SELECTOR	2	Optimize for:
ZGUESS	QUANT	1.00000E+003	Estimated Z (ohms)
EOC	QUANT	0	Open Circuit (V)
SEQUENCER	TOGGLE	TRUE	Run as Sequence
PSTATMODEL	IQUANT	5	Pstat Model
PSTATSECTION	LABEL	REF3000-16137	Pstat Section
PSTATSERIALNO	LABEL	16137	Pstat Serial Number
CTRLMODE	IQUANT	1	Control Mode
IESTAB	IQUANT	0	I/E Stability
CASPEED	IQUANT	1	Control Amp Speed
CONVENTION	IQUANT	1	Current Convention
ICHRANGE	IQUANT	2	Ich Range
ICHRANGEMODE	TOGGLE	F	Ich Auto Range
ICHOFFSETENABLE	TOGGLE	T	Ich Offset Enable
ICHOFFSET	QUANT	0	Ich Offset (V)
ICHFILTER	IQUANT	3	Ich Filter
VCHRANGE	IQUANT	2	Vch Range
VCHRANGEMODE	TOGGLE	F	Vch Auto Range
VCHOFFSETENABLE	TOGGLE	T	Vch Offset Enable
VCHOFFSET	QUANT	0	Vch Offset (V)
VCHFILTER	IQUANT	3	Vch Filter
ACHRANGE	IQUANT	2	Ach Range
ACHOFFSETENABLE	TOGGLE	F	Ach Offset Enable
ACHOFFSET	QUANT	0	Ach Offset (V)
ACHFILTER	IQUANT	3	Ach Filter
IERANGELOWERLIMIT	IQUANT	2	I/E Range Lower Limit
IERANGEMODE	TOGGLE	F	I/E AutoRange
IERANGE	IQUANT	11	I/E Range
POSFEEDENABLE	TOGGLE	F	Positive Feedback IR Comp
POSFEEDRESISTANCE	QUANT	0	Positive Feedback Resistance (ohm)
ACHSELECT	IQUANT	0	Ach Select
CABLEID	IQUANT	13	Cable ID
DCCALDATE	LABEL	7/31/2020	DC Calibration Date
ACCALDATE	LABEL	7/31/2020	AC Calibration Date
THERMOSELECT	IQUANT	1	Thermo Select
FRAMEWORKVERSION	QUANT	6.33	Framework Version
INSTRUMENTVERSION	LABEL	3.50	Instrument Version
COMPLIANCEVOLTAGE	IQUANT	0	Compliance Voltage
ZCURVE	TABLE
	Pt	Time	Freq	Zreal	Zimag	Zsig	Zmod	Zphz	Idc	Vdc	IERange
	#	s	Hz	ohm	ohm	V	ohm	°	A	V	#
	0	10	300046.9	1.751464	2.241081	1	2.844305	51.99142	1.090995E-005	-0.000304	11
	1	13	238359.4	1.829719	1.622974	1	2.445796	41.57327	-0.0001225	-0.0003106	12
	2	17	189328.1	1.758941	1.29189	1	2.182396	36.29618	-0.0002162	-4.586147E-005	12
	3	21	150421.9	1.651732	1.106494	1	1.988101	33.8181	7.888728E-005	0.0001665	11
	4	23	119484.4	1.641212	0.858517	1	1.852196	27.61403	-4.789946E-005	0.0002679	11
	5	26	94921.88	1.635075	0.6584442	1	1.762674	21.93463	-2.318668E-005	0.0004144	11
	6	29	75421.88	1.631827	0.4881854	1	1.703286	16.65534	-2.510051E-005	0.0004462	11
	7	31	59859.37	1.631657	0.345247	1	1.667783	11.94716	1.61463E-005	0.0005468	11
	8	34	47578.12	1.633921	0.2231004	1	1.649082	7.775254	-2.992437E-005	0.0005958	11
	9	36	37828.12	1.636301	0.1122766	1	1.640149	3.92526	7.299103E-006	0.0006507	11
	10	39	30046.88	1.640691	0.0082851	1	1.640712	0.2893291	-3.33694E-005	0.000641	11
	11	41	23859.38	1.646736	-0.0939759	1	1.649415	-3.266213	2.343069E-005	0.0007006	11
	12	44	18984.38	1.654857	-0.1981524	1	1.666678	-6.828079	1.685303E-005	0.000709	11
	13	46	15046.87	1.664783	-0.3124249	1	1.693845	-10.6289	8.056913E-006	0.0007073	11
	14	48	11953.13	1.677764	-0.4389513	1	1.734234	-14.6616	-4.909467E-005	0.0006715	11
	15	50	9515.62	1.694587	-0.5834333	1	1.79221	-18.9982	-2.744034E-005	0.0007082	11
	16	53	7546.875	1.714751	-0.7563179	1	1.874136	-23.80064	-2.336274E-005	0.0007107	11
	17	55	5928.309	1.740523	-0.973012	1	1.994034	-29.20667	-6.715796E-006	0.0007001	11
	18	57	4733.456	1.771505	-1.21834	1	2.150019	-34.51796	1.286021E-005	0.000718	11
	19	60	3796.875	1.80937	-1.509624	1	2.356435	-39.83949	1.593816E-005	0.0007379	11
	20	62	2987.132	1.86193	-1.896348	1	2.657615	-45.52468	-3.180798E-005	0.0006986	11
	21	64	2390.625	1.922855	-2.337399	1	3.026683	-50.55766	-2.696826E-005	0.0006755	11
	22	67	1884.191	2.005876	-2.917143	1	3.540235	-55.48693	2.742414E-005	0.0007328	11
	23	69	1516.544	2.102303	-3.568283	1	4.141536	-59.49495	2.328475E-005	0.0006698	10
	24	71	1193.986	2.231721	-4.446496	1	4.975128	-63.34767	-2.16833E-005	0.0006929	10
	25	74	946.5144	2.388692	-5.50216	1	5.998301	-66.53255	-8.460355E-006	0.0007018	10
	26	76	751.7689	2.590515	-6.790966	1	7.268287	-69.1199	2.208002E-005	0.0006645	10
	27	78	597.4265	2.834576	-8.372476	1	8.839297	-71.29601	-1.920566E-005	0.0006949	10
	28	81	477.4305	3.146428	-10.27019	1	10.74136	-72.96676	-1.205791E-006	0.000682	10
	29	83	376.6741	3.560234	-12.73968	1	13.2278	-74.38643	-1.555562E-006	0.000675	10
	30	85	298.2954	4.082747	-15.74382	1	16.26458	-75.46207	-9.184957E-007	0.0006744	10
	31	88	237.7717	4.737301	-19.32906	1	19.90112	-76.229	-1.491423E-006	0.0006738	10
	32	90	189.0121	5.592125	-23.77328	1	24.42214	-76.76311	-1.63697E-006	0.0006778	10
	33	93	150.2404	6.704074	-29.2083	1	29.9678	-77.07301	-1.687059E-006	0.0006812	10
	34	95	119.1737	8.159791	-35.89096	1	36.80683	-77.19155	-1.347378E-006	0.0006854	10
	35	97	95.0169	9.97923	-43.75788	1	44.88137	-77.15309	1.237833E-006	8.090639E-005	9
	36	100	75.60484	12.32242	-53.3803	1	54.78411	-77.00142	1.102016E-006	7.547811E-005	9
	37	102	54.50582	16.6995	-70.63261	1	72.57987	-76.69796	9.947989E-007	7.734897E-005	9
	38	105	45.95588	19.53303	-81.62202	1	83.92671	-76.54161	1.428011E-006	8.27906E-005	9
	39	107	37.20238	23.58758	-97.4695	1	100.2829	-76.39598	1.25269E-006	7.720274E-005	9
	40	110	30.04808	28.32901	-116.524	1	119.9182	-76.33549	1.135807E-006	8.148333E-005	9
	41	112	23.91582	34.40659	-141.2577	1	145.3876	-76.31084	1.177091E-006	7.52436E-005	9
	42	114	18.60119	41.92966	-174.2769	1	179.25	-76.47219	1.150844E-006	7.729061E-005	9
	43	117	15.02404	49.51112	-208.6914	1	214.4841	-76.65358	1.380904E-006	7.867062E-005	9
	44	119	12.01923	58.57774	-252.2743	1	258.9859	-76.92765	1.35799E-006	7.854033E-005	9
	45	122	9.450605	69.88019	-310.2798	1	318.0515	-77.3078	1.284571E-006	7.50642E-005	9
	46	124	7.512019	82.84396	-379.0213	1	387.9694	-77.67057	1.489928E-006	9.485537E-005	9
	47	127	5.978954	97.5546	-461.2179	1	471.4221	-78.0571	8.711136E-007	0.0006551	8
	48	130	4.734848	116.8371	-568.134	1	580.0234	-78.3791	7.966266E-007	0.0006608	8
	49	133	3.75601	141.1547	-699.3513	1	713.4542	-78.58892	8.391877E-007	0.0006545	8
	50	136	3.004808	171.9813	-854.9199	1	872.0468	-78.62581	8.14167E-007	0.0006853	8
	51	140	2.372217	215.7378	-1060.287	1	1082.013	-78.49896	7.905212E-007	0.0007344	8
	52	144	1.878005	274.7759	-1310.005	1	1338.512	-78.15385	7.766643E-007	0.0006303	8
	53	149	1.512097	351.5114	-1591.377	1	1629.736	-77.54422	8.063103E-007	0.0007286	8
	54	155	1.201923	460.8001	-1959.589	1	2013.039	-76.76723	8.05229E-007	0.0006244	8
	55	161	0.956633	613.8225	-2399.314	1	2476.587	-75.64967	7.656924E-007	-4.148111E-005	8
