EXPLAIN
TAG	EISPOT
TITLE	LABEL	Potentiostatic EIS	Test Identifier
DATE	LABEL	2/24/2021	Date
TIME	LABEL	11:42:37	Time
NOTES	NOTES	1	Notes...
	
PSTAT	PSTAT	REF3000-16137	Potentiostat
VDC	POTEN	0.00000E+000	T	DC Voltage (V)
FREQINIT	QUANT	3.00000E+005	Initial Freq. (Hz)
FREQFINAL	QUANT	1.00000E+000	Final Freq. (Hz)
PTSPERDEC	QUANT	1.00000E+001	Points/decade
VAC	QUANT	5.00000E+001	AC Voltage (mV rms)
AREA	QUANT	1.00000E+000	Sample Area (cm^2)
SPEED	SELECTOR	2	Optimize for:
ZGUESS	QUANT	1.00000E+003	Estimated Z (ohms)
EOC	QUANT	0	Open Circuit (V)
SEQUENCER	TOGGLE	TRUE	Run as Sequence
PSTATMODEL	IQUANT	5	Pstat Model
PSTATSECTION	LABEL	REF3000-16137	Pstat Section
PSTATSERIALNO	LABEL	16137	Pstat Serial Number
CTRLMODE	IQUANT	1	Control Mode
IESTAB	IQUANT	0	I/E Stability
CASPEED	IQUANT	1	Control Amp Speed
CONVENTION	IQUANT	1	Current Convention
ICHRANGE	IQUANT	2	Ich Range
ICHRANGEMODE	TOGGLE	F	Ich Auto Range
ICHOFFSETENABLE	TOGGLE	T	Ich Offset Enable
ICHOFFSET	QUANT	0	Ich Offset (V)
ICHFILTER	IQUANT	3	Ich Filter
VCHRANGE	IQUANT	2	Vch Range
VCHRANGEMODE	TOGGLE	F	Vch Auto Range
VCHOFFSETENABLE	TOGGLE	T	Vch Offset Enable
VCHOFFSET	QUANT	0	Vch Offset (V)
VCHFILTER	IQUANT	3	Vch Filter
ACHRANGE	IQUANT	2	Ach Range
ACHOFFSETENABLE	TOGGLE	F	Ach Offset Enable
ACHOFFSET	QUANT	0	Ach Offset (V)
ACHFILTER	IQUANT	3	Ach Filter
IERANGELOWERLIMIT	IQUANT	2	I/E Range Lower Limit
IERANGEMODE	TOGGLE	F	I/E AutoRange
IERANGE	IQUANT	11	I/E Range
POSFEEDENABLE	TOGGLE	F	Positive Feedback IR Comp
POSFEEDRESISTANCE	QUANT	0	Positive Feedback Resistance (ohm)
ACHSELECT	IQUANT	0	Ach Select
CABLEID	IQUANT	13	Cable ID
DCCALDATE	LABEL	7/31/2020	DC Calibration Date
ACCALDATE	LABEL	7/31/2020	AC Calibration Date
THERMOSELECT	IQUANT	1	Thermo Select
FRAMEWORKVERSION	QUANT	6.33	Framework Version
INSTRUMENTVERSION	LABEL	3.50	Instrument Version
COMPLIANCEVOLTAGE	IQUANT	0	Compliance Voltage
ZCURVE	TABLE
	Pt	Time	Freq	Zreal	Zimag	Zsig	Zmod	Zphz	Idc	Vdc	IERange
	#	s	Hz	ohm	ohm	V	ohm	°	A	V	#
	0	10	300046.9	1.594223	2.237533	1	2.74738	54.53045	5.947431E-005	-0.0003169	11
	1	13	238359.4	1.684331	1.641084	1	2.351623	44.25491	-0.0001862	-0.0003636	12
	2	17	189328.1	1.524775	1.410086	1	2.076844	42.76212	7.745682E-005	-5.491616E-005	11
	3	20	150421.9	1.502927	1.114902	1	1.871309	36.56877	-0.0001111	-5.029912E-005	11
	4	23	119484.4	1.491718	0.8632652	1	1.723499	30.0582	-6.785629E-005	0.0002527	11
	5	25	94921.88	1.481617	0.6622909	1	1.622904	24.08491	1.413861E-005	0.0004261	11
	6	28	75421.88	1.478756	0.4940729	1	1.559111	18.47519	-3.464649E-005	0.0004467	11
	7	30	59859.37	1.477126	0.350929	1	1.518239	13.36432	-4.528616E-005	0.0005014	11
	8	33	47578.12	1.478763	0.2283858	1	1.496296	8.779611	-7.078461E-006	0.0005785	11
	9	35	37828.12	1.480556	0.1189722	1	1.485328	4.594214	-5.225047E-005	0.0005836	11
	10	38	30046.88	1.485136	0.0166033	1	1.485228	0.64052	1.557996E-005	0.0006809	11
	11	40	23859.38	1.490635	-0.0836737	1	1.492981	-3.21281	-5.15865E-005	0.0006474	11
	12	43	18984.38	1.498689	-0.1855189	1	1.510128	-7.056602	-1.105868E-005	0.0006948	11
	13	45	15046.87	1.508351	-0.2966092	1	1.537238	-11.12496	1.411135E-005	0.0007342	11
	14	47	11953.13	1.520526	-0.4192737	1	1.577273	-15.41579	-3.018991E-005	0.0006995	11
	15	50	9515.62	1.536244	-0.5585405	1	1.634629	-19.98002	-1.049631E-005	0.0007146	11
	16	52	7546.875	1.555956	-0.7254296	1	1.716755	-24.99623	-8.215335E-006	0.000709	11
	17	54	5928.309	1.580983	-0.9341364	1	1.836333	-30.57706	-2.018328E-005	0.0006996	11
	18	56	4733.456	1.61118	-1.169862	1	1.9911	-35.98302	1.506377E-005	0.0007345	11
	19	59	3796.875	1.648178	-1.449399	1	2.194823	-41.32822	-5.118141E-005	0.0006845	11
	20	61	2987.132	1.699844	-1.82055	1	2.490757	-46.96376	1.629751E-005	0.0007353	11
	21	63	2390.625	1.759401	-2.244696	1	2.852043	-51.91051	9.822451E-006	0.0007222	11
	22	66	1884.191	1.840704	-2.799321	1	3.350282	-56.67292	-3.646517E-005	0.0006858	11
	23	68	1516.544	1.931965	-3.419287	1	3.927341	-60.5327	-3.011957E-005	0.0006956	11
	24	70	1193.986	2.061546	-4.262467	1	4.734828	-64.18922	-2.345049E-005	0.0006914	10
	25	73	946.5144	2.216527	-5.270108	1	5.717257	-67.18912	-2.70745E-005	0.0006843	10
	26	75	751.7689	2.413925	-6.506217	1	6.939589	-69.64423	-1.420524E-005	0.000677	10
	27	77	597.4265	2.661526	-8.019143	1	8.449283	-71.63917	1.530328E-005	0.0006846	10
	28	80	477.4305	2.967318	-9.82957	1	10.26769	-73.20216	-1.700525E-006	0.0006864	10
	29	82	376.6741	3.382329	-12.18589	1	12.64658	-74.48741	-1.460966E-006	0.0006871	10
	30	84	298.2954	3.910225	-15.04737	1	15.54713	-75.43324	-1.653684E-006	0.0006856	10
	31	87	237.7717	4.573749	-18.45403	1	19.01237	-76.07999	-1.804448E-006	0.0006783	10
	32	89	189.0121	5.44336	-22.66305	1	23.3076	-76.49416	-2.086146E-006	0.0006826	10
	33	92	150.2404	6.568751	-27.78446	1	28.55039	-76.69847	-2.485523E-006	0.0006787	10
	34	94	119.1737	8.037113	-34.06967	1	35.00483	-76.72647	-1.829364E-006	0.0006756	10
	35	96	95.0169	9.84462	-41.42764	1	42.58129	-76.63251	1.21741E-006	7.891403E-005	9
	36	99	75.60484	12.13431	-50.40216	1	51.84225	-76.46365	1.075459E-006	8.325117E-005	9
	37	101	54.50582	16.31749	-66.47354	1	68.44701	-76.20811	1.117353E-006	7.011299E-005	9
	38	104	45.95588	18.96178	-76.7063	1	79.01522	-76.11486	1.431133E-006	8.299359E-005	9
	39	106	37.20238	22.71849	-91.47961	1	94.25842	-76.05305	1.277789E-006	8.314977E-005	9
	40	109	30.04808	27.14195	-109.4256	1	112.7415	-76.06949	1.204942E-006	7.651556E-005	9
	41	111	23.91582	32.68663	-132.5124	1	136.4842	-76.14355	1.203496E-006	8.007155E-005	9
	42	114	18.60119	39.66111	-163.6947	1	168.4308	-76.38042	1.483629E-006	7.643106E-005	9
	43	116	15.02404	46.61008	-196.2348	1	201.6943	-76.63859	1.537923E-006	8.748584E-005	9
	44	118	12.01923	55.0972	-237.5269	1	243.8334	-76.94051	1.228312E-006	7.687367E-005	9
	45	121	9.450605	66.15828	-292.7964	1	300.1777	-77.26765	1.392298E-006	7.609928E-005	9
	46	123	7.512019	78.65122	-358.1078	1	366.6432	-77.61281	1.574206E-006	8.539596E-005	9
	47	126	5.978954	93.74667	-436.3775	1	446.3337	-77.87547	9.301042E-007	0.0006598	8
	48	129	4.734848	114.145	-537.9692	1	549.9454	-78.02077	8.335379E-007	0.0006467	8
	49	132	3.75601	141.109	-662.2183	1	677.0855	-77.97102	1.010083E-006	0.0006264	8
	50	136	3.004808	175.8291	-809.4412	1	828.3181	-77.74445	8.587863E-007	0.0006805	8
	51	139	2.372217	227.6382	-999.659	1	1025.25	-77.1716	8.121609E-007	0.0006416	8
	52	143	1.878005	299.3981	-1234.395	1	1270.185	-76.36639	9.098635E-007	0.0006486	8
	53	148	1.512097	388.7043	-1493.681	1	1543.429	-75.41331	8.499496E-007	0.0007335	8
	54	154	1.201923	527.1681	-1824.023	1	1898.675	-73.87997	9.109722E-007	0.0006503	8
	55	160	0.956633	714.6108	-2208.125	1	2320.881	-72.06698	7.227759E-007	1.488148E-005	8
