EXPLAIN
TAG	EISPOT
TITLE	LABEL	Potentiostatic EIS	Test Identifier
DATE	LABEL	2/24/2021	Date
TIME	LABEL	12:50:20	Time
NOTES	NOTES	1	Notes...
	
PSTAT	PSTAT	REF3000-16137	Potentiostat
VDC	POTEN	0.00000E+000	T	DC Voltage (V)
FREQINIT	QUANT	3.00000E+005	Initial Freq. (Hz)
FREQFINAL	QUANT	1.00000E+000	Final Freq. (Hz)
PTSPERDEC	QUANT	1.00000E+001	Points/decade
VAC	QUANT	5.00000E+001	AC Voltage (mV rms)
AREA	QUANT	1.00000E+000	Sample Area (cm^2)
SPEED	SELECTOR	2	Optimize for:
ZGUESS	QUANT	1.00000E+003	Estimated Z (ohms)
EOC	QUANT	0	Open Circuit (V)
SEQUENCER	TOGGLE	TRUE	Run as Sequence
PSTATMODEL	IQUANT	5	Pstat Model
PSTATSECTION	LABEL	REF3000-16137	Pstat Section
PSTATSERIALNO	LABEL	16137	Pstat Serial Number
CTRLMODE	IQUANT	1	Control Mode
IESTAB	IQUANT	0	I/E Stability
CASPEED	IQUANT	1	Control Amp Speed
CONVENTION	IQUANT	1	Current Convention
ICHRANGE	IQUANT	2	Ich Range
ICHRANGEMODE	TOGGLE	F	Ich Auto Range
ICHOFFSETENABLE	TOGGLE	T	Ich Offset Enable
ICHOFFSET	QUANT	0	Ich Offset (V)
ICHFILTER	IQUANT	3	Ich Filter
VCHRANGE	IQUANT	2	Vch Range
VCHRANGEMODE	TOGGLE	F	Vch Auto Range
VCHOFFSETENABLE	TOGGLE	T	Vch Offset Enable
VCHOFFSET	QUANT	0	Vch Offset (V)
VCHFILTER	IQUANT	3	Vch Filter
ACHRANGE	IQUANT	2	Ach Range
ACHOFFSETENABLE	TOGGLE	F	Ach Offset Enable
ACHOFFSET	QUANT	0	Ach Offset (V)
ACHFILTER	IQUANT	3	Ach Filter
IERANGELOWERLIMIT	IQUANT	2	I/E Range Lower Limit
IERANGEMODE	TOGGLE	F	I/E AutoRange
IERANGE	IQUANT	11	I/E Range
POSFEEDENABLE	TOGGLE	F	Positive Feedback IR Comp
POSFEEDRESISTANCE	QUANT	0	Positive Feedback Resistance (ohm)
ACHSELECT	IQUANT	0	Ach Select
CABLEID	IQUANT	13	Cable ID
DCCALDATE	LABEL	7/31/2020	DC Calibration Date
ACCALDATE	LABEL	7/31/2020	AC Calibration Date
THERMOSELECT	IQUANT	1	Thermo Select
FRAMEWORKVERSION	QUANT	6.33	Framework Version
INSTRUMENTVERSION	LABEL	3.50	Instrument Version
COMPLIANCEVOLTAGE	IQUANT	0	Compliance Voltage
ZCURVE	TABLE
	Pt	Time	Freq	Zreal	Zimag	Zsig	Zmod	Zphz	Idc	Vdc	IERange
	#	s	Hz	ohm	ohm	V	ohm	°	A	V	#
	0	8	300046.9	17.67176	2.026871	1	17.78761	6.542976	-0.0001019	0.0003108	10
	1	11	238359.4	17.74012	1.583524	1	17.81065	5.100834	-0.0000997	0.0002565	10
	2	14	189328.1	17.79595	1.242716	1	17.83928	3.994561	-4.303557E-006	0.0003438	10
	3	16	150421.9	17.8775	0.978899	1	17.90428	3.134153	1.010105E-005	0.0007169	10
	4	19	119484.4	17.92405	0.7369079	1	17.93919	2.354265	5.967847E-005	0.000582	10
	5	21	94921.88	17.98309	0.5573459	1	17.99172	1.775187	2.027815E-005	0.000607	10
	6	24	75421.88	18.05505	0.3887055	1	18.05923	1.233325	-1.404406E-005	0.0007065	10
	7	26	59859.37	18.12705	0.2418637	1	18.12866	0.7644347	2.531914E-005	0.0006621	10
	8	29	47578.12	18.20053	0.1141908	1	18.20089	0.3594712	2.200496E-005	0.0006214	10
	9	31	37828.12	18.27626	-0.0042666	1	18.27626	-0.0133759	-1.957289E-005	0.000645	10
	10	34	30046.88	18.35285	-0.1211297	1	18.35325	-0.3781495	-2.978888E-005	0.0006686	10
	11	36	23859.38	18.42827	-0.2427282	1	18.42986	-0.7546287	-5.227191E-006	0.0006386	10
	12	39	18984.38	18.50373	-0.3711311	1	18.50745	-1.149033	-2.570912E-005	0.0006659	10
	13	41	15046.87	18.57895	-0.5174541	1	18.58616	-1.595368	2.544059E-006	0.0006317	10
	14	43	11953.13	18.66146	-0.6866456	1	18.67409	-2.107239	6.5867E-006	0.0007282	10
	15	46	9515.62	18.74557	-0.8859507	1	18.76649	-2.705893	-3.544503E-006	0.0006384	10
	16	48	7546.875	18.83671	-1.128142	1	18.87046	-3.427384	-2.609501E-005	0.0006704	10
	17	50	5928.309	18.93046	-1.436352	1	18.98487	-4.339014	-2.708166E-005	0.0006936	10
	18	53	4733.456	19.03185	-1.786942	1	19.11556	-5.3639	-2.474279E-005	0.000694	10
	19	55	3796.875	19.13797	-2.215339	1	19.26576	-6.602955	-1.352182E-005	0.000659	10
	20	57	2987.132	19.26582	-2.78194	1	19.46563	-8.216586	-3.400753E-006	0.0006418	10
	21	60	2390.625	19.40003	-3.441505	1	19.70292	-10.05944	-1.843859E-005	0.0006597	10
	22	62	1884.191	19.55509	-4.30915	1	20.02425	-12.42706	-5.34591E-006	0.000693	10
	23	64	1516.544	19.7356	-5.284647	1	20.43089	-14.99055	-2.623014E-005	0.0007112	10
	24	67	1193.986	19.95244	-6.619018	1	21.02169	-18.35274	2.383064E-005	0.0006785	10
	25	69	946.5144	20.21353	-8.216511	1	21.81966	-22.12104	5.627473E-006	0.0006282	10
	26	71	751.7689	20.52101	-10.19967	1	22.91604	-26.429	-3.234843E-006	0.000649	10
	27	74	597.4265	20.88733	-12.62323	1	24.40545	-31.14661	-2.890411E-005	0.0007041	10
	28	76	477.4305	21.33536	-15.54115	1	26.39555	-36.07042	-1.400497E-006	0.0006872	10
	29	78	376.6741	21.90128	-19.34852	1	29.22381	-41.45875	-1.623476E-006	0.0006749	10
	30	81	298.2954	22.58599	-23.99676	1	32.95408	-46.7347	-1.719826E-006	0.0006796	10
	31	83	237.7717	23.40929	-29.57393	1	37.71753	-51.63657	-1.970937E-006	0.0006806	10
	32	85	189.0121	24.40738	-36.48594	1	43.89697	-56.21933	1.33979E-006	8.257361E-005	9
	33	88	150.2404	25.68192	-45.05178	1	51.85773	-60.31455	1.241262E-006	8.104019E-005	9
	34	90	119.1737	27.28008	-55.71489	1	62.03508	-63.91191	1.333543E-006	8.091336E-005	9
	35	93	95.0169	29.2193	-68.54813	1	74.51586	-66.91341	1.249887E-006	7.940543E-005	9
	36	95	75.60484	31.63795	-84.46307	1	90.19406	-69.46519	1.259741E-006	7.730612E-005	9
	37	98	54.50582	36.09027	-113.8151	1	119.4001	-72.4064	1.205428E-006	7.549327E-005	9
	38	100	45.95588	39.03993	-132.979	1	138.5913	-73.63884	1.293099E-006	8.439973E-005	9
	39	102	37.20238	43.36647	-161.2023	1	166.9336	-74.94283	1.265482E-006	8.639182E-005	9
	40	105	30.04808	48.73028	-195.8242	1	201.7963	-76.02594	1.30936E-006	7.915881E-005	9
	41	107	23.91582	55.77674	-240.9934	1	247.3638	-76.96862	1.266929E-006	7.991541E-005	9
	42	110	18.60119	65.63586	-303.0481	1	310.0746	-77.77931	1.220056E-006	8.674339E-005	9
	43	112	15.02404	76.37488	-368.1104	1	375.95	-78.27868	1.309735E-006	7.782425E-005	9
	44	114	12.01923	89.9805	-449.1523	1	458.0767	-78.67166	6.87466E-007	0.00066	8
	45	117	9.450605	109.3667	-558.814	1	569.4156	-78.92649	4.686727E-007	0.0006613	8
	46	119	7.512019	133.386	-687.9498	1	700.7615	-79.02711	5.018831E-007	0.0006626	8
	47	122	5.978954	163.8911	-844.7944	1	860.5451	-79.02094	5.176078E-007	0.0006601	8
	48	125	4.734848	205.1119	-1041.971	1	1061.967	-78.86372	5.908424E-007	0.0006587	8
	49	128	3.75601	257.1285	-1279.691	1	1305.268	-78.63883	5.441551E-007	0.0006603	8
	50	132	3.004808	321.244	-1555.982	1	1588.797	-78.33476	6.010564E-007	0.0006274	8
	51	135	2.372217	405.9887	-1910.789	1	1953.443	-78.00465	5.769625E-007	0.0006008	8
	52	140	1.878005	513.0132	-2335.236	1	2390.923	-77.60987	5.76522E-007	0.0006744	8
	53	144	1.512097	632.6313	-2807.1	1	2877.504	-77.29953	5.754061E-007	0.0005665	8
	54	150	1.201923	777.4703	-3415.032	1	3502.414	-77.17458	5.820138E-007	0.0006832	8
	55	156	0.956633	945.6263	-4143.365	1	4249.904	-77.14378	5.686898E-007	1.652746E-005	8
