EXPLAIN
TAG	EISPOT
TITLE	LABEL	Potentiostatic EIS	Test Identifier
DATE	LABEL	2/24/2021	Date
TIME	LABEL	12:28:04	Time
NOTES	NOTES	1	Notes...
	
PSTAT	PSTAT	REF3000-16137	Potentiostat
VDC	POTEN	0.00000E+000	T	DC Voltage (V)
FREQINIT	QUANT	3.00000E+005	Initial Freq. (Hz)
FREQFINAL	QUANT	1.00000E+000	Final Freq. (Hz)
PTSPERDEC	QUANT	1.00000E+001	Points/decade
VAC	QUANT	5.00000E+001	AC Voltage (mV rms)
AREA	QUANT	1.00000E+000	Sample Area (cm^2)
SPEED	SELECTOR	2	Optimize for:
ZGUESS	QUANT	1.00000E+003	Estimated Z (ohms)
EOC	QUANT	0	Open Circuit (V)
SEQUENCER	TOGGLE	TRUE	Run as Sequence
PSTATMODEL	IQUANT	5	Pstat Model
PSTATSECTION	LABEL	REF3000-16137	Pstat Section
PSTATSERIALNO	LABEL	16137	Pstat Serial Number
CTRLMODE	IQUANT	1	Control Mode
IESTAB	IQUANT	0	I/E Stability
CASPEED	IQUANT	1	Control Amp Speed
CONVENTION	IQUANT	1	Current Convention
ICHRANGE	IQUANT	2	Ich Range
ICHRANGEMODE	TOGGLE	F	Ich Auto Range
ICHOFFSETENABLE	TOGGLE	T	Ich Offset Enable
ICHOFFSET	QUANT	0	Ich Offset (V)
ICHFILTER	IQUANT	3	Ich Filter
VCHRANGE	IQUANT	2	Vch Range
VCHRANGEMODE	TOGGLE	F	Vch Auto Range
VCHOFFSETENABLE	TOGGLE	T	Vch Offset Enable
VCHOFFSET	QUANT	0	Vch Offset (V)
VCHFILTER	IQUANT	3	Vch Filter
ACHRANGE	IQUANT	2	Ach Range
ACHOFFSETENABLE	TOGGLE	F	Ach Offset Enable
ACHOFFSET	QUANT	0	Ach Offset (V)
ACHFILTER	IQUANT	3	Ach Filter
IERANGELOWERLIMIT	IQUANT	2	I/E Range Lower Limit
IERANGEMODE	TOGGLE	F	I/E AutoRange
IERANGE	IQUANT	11	I/E Range
POSFEEDENABLE	TOGGLE	F	Positive Feedback IR Comp
POSFEEDRESISTANCE	QUANT	0	Positive Feedback Resistance (ohm)
ACHSELECT	IQUANT	0	Ach Select
CABLEID	IQUANT	13	Cable ID
DCCALDATE	LABEL	7/31/2020	DC Calibration Date
ACCALDATE	LABEL	7/31/2020	AC Calibration Date
THERMOSELECT	IQUANT	1	Thermo Select
FRAMEWORKVERSION	QUANT	6.33	Framework Version
INSTRUMENTVERSION	LABEL	3.50	Instrument Version
COMPLIANCEVOLTAGE	IQUANT	0	Compliance Voltage
ZCURVE	TABLE
	Pt	Time	Freq	Zreal	Zimag	Zsig	Zmod	Zphz	Idc	Vdc	IERange
	#	s	Hz	ohm	ohm	V	ohm	°	A	V	#
	0	10	300046.9	4.302644	2.226687	1	4.844676	27.36229	8.901199E-006	3.87472E-005	10
	1	13	238359.4	4.272348	1.768283	1	4.623827	22.48418	9.558741E-006	-0.0002711	10
	2	16	189328.1	4.259159	1.397098	1	4.482446	18.16063	-2.999313E-006	-1.669154E-005	10
	3	19	150421.9	4.257036	1.101707	1	4.397285	14.50962	-1.172629E-005	0.0002867	10
	4	21	119484.4	4.252118	0.8455964	1	4.335382	11.24738	-8.007511E-005	0.0004963	10
	5	24	94921.88	4.255491	0.6552818	1	4.305647	8.753934	3.101065E-005	0.0004897	10
	6	26	75421.88	4.259317	0.4795327	1	4.286226	6.423562	-2.3602E-005	0.0005152	10
	7	29	59859.37	4.267657	0.3287368	1	4.2803	4.404784	-7.45846E-006	0.0005809	10
	8	31	47578.12	4.275971	0.1972252	1	4.280518	2.640843	2.240046E-005	0.0005781	10
	9	34	37828.12	4.286757	0.0776755	1	4.287461	1.038079	-1.822362E-005	0.0006212	10
	10	36	30046.88	4.300284	-0.0369657	1	4.300443	-0.4925083	1.303009E-005	0.0006173	10
	11	39	23859.38	4.314926	-0.1515059	1	4.317585	-2.010946	-2.513397E-005	0.0006741	10
	12	41	18984.38	4.32979	-0.2701495	1	4.33821	-3.570239	-7.32525E-006	0.0006523	10
	13	43	15046.87	4.348392	-0.4023016	1	4.366963	-5.285805	-7.496362E-006	0.0006791	10
	14	46	11953.13	4.36867	-0.5515921	1	4.403354	-7.196137	-2.084261E-006	0.0006672	10
	15	48	9515.62	4.392082	-0.7247183	1	4.451472	-9.369699	-2.895243E-005	0.0006769	10
	16	50	7546.875	4.420644	-0.9341816	1	4.518272	-11.93233	3.091864E-006	0.0006505	10
	17	53	5928.309	4.456902	-1.198376	1	4.615201	-15.0498	-2.867041E-006	0.0006595	10
	18	55	4733.456	4.497984	-1.499249	1	4.741267	-18.43404	-2.645656E-005	0.0006946	10
	19	57	3796.875	4.547146	-1.857445	1	4.911888	-22.21932	2.184817E-005	0.0006731	10
	20	60	2987.132	4.612363	-2.335007	1	5.169734	-26.8508	-2.147647E-005	0.0007005	10
	21	62	2390.625	4.686207	-2.880788	1	5.500861	-31.5806	-2.571753E-005	0.0006846	10
	22	64	1884.191	4.784297	-3.599079	1	5.986891	-36.95301	-2.448406E-005	0.0006974	10
	23	67	1516.544	4.894812	-4.403905	1	6.584342	-41.978	3.913614E-006	0.0006525	10
	24	69	1193.986	5.044413	-5.498547	1	7.461911	-47.46646	-1.835201E-005	0.0006785	10
	25	71	946.5144	5.225657	-6.815162	1	8.588011	-52.52012	5.42744E-007	0.0006654	10
	26	74	751.7689	5.453207	-8.431854	1	10.0416	-57.10768	-2.181583E-005	0.0007158	10
	27	76	597.4265	5.731422	-10.42179	1	11.89382	-61.19158	-6.87005E-006	0.000685	10
	28	78	477.4305	6.073324	-12.79918	1	14.16701	-64.61525	-3.657858E-006	0.0007067	10
	29	81	376.6741	6.523643	-15.90437	1	17.19032	-67.69758	-2.599812E-006	0.0006803	10
	30	83	298.2954	7.076455	-19.69086	1	20.92382	-70.2327	-2.881952E-006	0.0006862	10
	31	85	237.7717	7.74443	-24.22799	1	25.43564	-72.27363	-2.805536E-006	0.0006831	10
	32	88	189.0121	8.586919	-29.88645	1	31.09558	-73.96968	-2.349936E-006	0.0006813	10
	33	90	150.2404	9.63919	-36.85768	1	38.09727	-75.34399	-2.859695E-006	0.0006842	10
	34	93	119.1737	10.95961	-45.48803	1	46.78967	-76.45368	1.298192E-006	8.120615E-005	9
	35	95	95.0169	12.60395	-55.93322	1	57.33572	-77.30112	1.214784E-006	8.21397E-005	9
	36	97	75.60484	14.7117	-68.8951	1	70.44835	-77.94623	1.090695E-006	7.97281E-005	9
	37	100	54.50582	18.80078	-92.79649	1	94.68188	-78.54678	9.668704E-007	8.205607E-005	9
	38	103	45.95588	21.60887	-108.356	1	110.4896	-78.72176	1.257789E-006	8.502461E-005	9
	39	105	37.20238	25.92373	-131.1477	1	133.6853	-78.81859	1.17682E-006	8.564001E-005	9
	40	107	30.04808	31.48186	-158.9201	1	162.0084	-78.79485	1.241072E-006	7.730338E-005	9
	41	110	23.91582	39.09736	-194.6746	1	198.5619	-78.6441	1.152251E-006	7.925926E-005	9
	42	112	18.60119	50.12561	-243.1855	1	248.2977	-78.35326	1.273101E-006	8.174354E-005	9
	43	114	15.02404	61.92038	-292.894	1	299.3677	-78.06293	1.338978E-006	7.904851E-005	9
	44	117	12.01923	77.24276	-355.0372	1	363.3427	-77.72587	1.41655E-006	8.072822E-005	9
	45	119	9.450605	96.8624	-433.9984	1	444.6762	-77.41858	6.066199E-007	0.000657	8
	46	122	7.512019	119.5652	-526.9797	1	540.3734	-77.21671	6.720257E-007	0.0006711	8
	47	124	5.978954	145.8911	-638.3839	1	654.8421	-77.12714	6.462769E-007	0.0006646	8
	48	127	4.734848	177.3339	-777.7873	1	797.7471	-77.15623	7.576439E-007	0.0006709	8
	49	131	3.75601	213.1405	-945.6559	1	969.378	-77.2984	6.589317E-007	0.0006491	8
	50	134	3.004808	252.793	-1143.345	1	1170.958	-77.5325	7.239323E-007	0.0006389	8
	51	138	2.372217	300.7465	-1399.157	1	1431.114	-77.86894	7.222344E-007	0.0006229	8
	52	142	1.878005	357.3972	-1716.398	1	1753.213	-78.23765	6.418704E-007	0.0006613	8
	53	147	1.512097	414.5976	-2076.559	1	2117.543	-78.70901	6.667865E-007	0.0005565	8
	54	152	1.201923	488.1277	-2548.57	1	2594.894	-79.15745	6.623884E-007	0.0006601	8
	55	158	0.956633	573.2144	-3127.593	1	3179.687	-79.61429	6.745273E-007	1.379253E-005	8
