EXPLAIN
TAG	EISPOT
TITLE	LABEL	Potentiostatic EIS	Test Identifier
DATE	LABEL	2/24/2021	Date
TIME	LABEL	12:05:18	Time
NOTES	NOTES	1	Notes...
	
PSTAT	PSTAT	REF3000-16137	Potentiostat
VDC	POTEN	0.00000E+000	T	DC Voltage (V)
FREQINIT	QUANT	3.00000E+005	Initial Freq. (Hz)
FREQFINAL	QUANT	1.00000E+000	Final Freq. (Hz)
PTSPERDEC	QUANT	1.00000E+001	Points/decade
VAC	QUANT	5.00000E+001	AC Voltage (mV rms)
AREA	QUANT	1.00000E+000	Sample Area (cm^2)
SPEED	SELECTOR	2	Optimize for:
ZGUESS	QUANT	1.00000E+003	Estimated Z (ohms)
EOC	QUANT	0	Open Circuit (V)
SEQUENCER	TOGGLE	TRUE	Run as Sequence
PSTATMODEL	IQUANT	5	Pstat Model
PSTATSECTION	LABEL	REF3000-16137	Pstat Section
PSTATSERIALNO	LABEL	16137	Pstat Serial Number
CTRLMODE	IQUANT	1	Control Mode
IESTAB	IQUANT	0	I/E Stability
CASPEED	IQUANT	1	Control Amp Speed
CONVENTION	IQUANT	1	Current Convention
ICHRANGE	IQUANT	2	Ich Range
ICHRANGEMODE	TOGGLE	F	Ich Auto Range
ICHOFFSETENABLE	TOGGLE	T	Ich Offset Enable
ICHOFFSET	QUANT	0	Ich Offset (V)
ICHFILTER	IQUANT	3	Ich Filter
VCHRANGE	IQUANT	2	Vch Range
VCHRANGEMODE	TOGGLE	F	Vch Auto Range
VCHOFFSETENABLE	TOGGLE	T	Vch Offset Enable
VCHOFFSET	QUANT	0	Vch Offset (V)
VCHFILTER	IQUANT	3	Vch Filter
ACHRANGE	IQUANT	2	Ach Range
ACHOFFSETENABLE	TOGGLE	F	Ach Offset Enable
ACHOFFSET	QUANT	0	Ach Offset (V)
ACHFILTER	IQUANT	3	Ach Filter
IERANGELOWERLIMIT	IQUANT	2	I/E Range Lower Limit
IERANGEMODE	TOGGLE	F	I/E AutoRange
IERANGE	IQUANT	11	I/E Range
POSFEEDENABLE	TOGGLE	F	Positive Feedback IR Comp
POSFEEDRESISTANCE	QUANT	0	Positive Feedback Resistance (ohm)
ACHSELECT	IQUANT	0	Ach Select
CABLEID	IQUANT	13	Cable ID
DCCALDATE	LABEL	7/31/2020	DC Calibration Date
ACCALDATE	LABEL	7/31/2020	AC Calibration Date
THERMOSELECT	IQUANT	1	Thermo Select
FRAMEWORKVERSION	QUANT	6.33	Framework Version
INSTRUMENTVERSION	LABEL	3.50	Instrument Version
COMPLIANCEVOLTAGE	IQUANT	0	Compliance Voltage
ZCURVE	TABLE
	Pt	Time	Freq	Zreal	Zimag	Zsig	Zmod	Zphz	Idc	Vdc	IERange
	#	s	Hz	ohm	ohm	V	ohm	°	A	V	#
	0	10	300046.9	2.173385	2.225668	1	3.11082	45.68093	-3.327311E-005	-0.0002641	11
	1	14	238359.4	2.145185	1.77201	1	2.782416	39.55809	-4.100482E-005	-0.0002172	11
	2	17	189328.1	2.19306	1.246958	1	2.522779	29.62224	-0.0001213	7.378469E-006	12
	3	20	150421.9	2.149632	0.974561	1	2.36023	24.38772	-0.0001197	0.0002565	12
	4	24	119484.4	2.114698	0.7577306	1	2.246354	19.71342	-0.0001269	0.0003132	12
	5	28	94921.88	2.080003	0.6487013	1	2.178813	17.32141	-3.445954E-005	0.0005097	11
	6	30	75421.88	2.076475	0.478637	1	2.130925	12.98022	-1.789424E-005	0.0005065	11
	7	33	59859.37	2.077187	0.3349634	1	2.104021	9.160554	-1.168392E-005	0.0005768	11
	8	35	47578.12	2.080623	0.2111374	1	2.091309	5.794425	-1.196916E-005	0.0006217	11
	9	38	37828.12	2.084734	0.0989717	1	2.087082	2.718047	-3.581889E-005	0.0006477	11
	10	40	30046.88	2.089198	-0.0077242	1	2.089212	-0.2118337	-5.146603E-005	0.0006324	11
	11	43	23859.38	2.096764	-0.113285	1	2.099822	-3.092597	-2.151925E-005	0.0006693	11
	12	45	18984.38	2.105739	-0.2221512	1	2.117424	-6.022314	1.850075E-005	0.0007237	11
	13	47	15046.87	2.117406	-0.3422207	1	2.144883	-9.180902	-3.194052E-005	0.0007003	11
	14	50	11953.13	2.131486	-0.4762313	1	2.18404	-12.59457	-2.962839E-005	0.0007066	11
	15	52	9515.62	2.148092	-0.6298548	1	2.23853	-16.34198	-5.294686E-005	0.0006618	11
	16	54	7546.875	2.169909	-0.8141661	1	2.317622	-20.56647	6.39982E-006	0.0007099	11
	17	57	5928.309	2.198766	-1.046175	1	2.434965	-25.44516	-2.234781E-005	0.0006935	11
	18	59	4733.456	2.232548	-1.308748	1	2.587874	-30.37937	-3.583945E-005	0.0007146	11
	19	61	3796.875	2.271783	-1.620218	1	2.790359	-35.49617	-3.766195E-005	0.000671	11
	20	64	2987.132	2.326599	-2.036408	1	3.091928	-41.19477	-3.267847E-006	0.0007081	11
	21	66	2390.625	2.39019	-2.509789	1	3.465841	-46.3982	2.094653E-005	0.0007092	11
	22	68	1884.191	2.474901	-3.137179	1	3.995876	-51.73031	-4.022348E-005	0.0006867	11
	23	70	1516.544	2.575609	-3.839398	1	4.623282	-56.14484	-2.070994E-006	0.0006545	10
	24	73	1193.986	2.709282	-4.788635	1	5.50193	-60.49998	-2.38503E-005	0.0006874	10
	25	75	946.5144	2.870769	-5.929668	1	6.588041	-64.16669	2.208557E-005	0.000678	10
	26	78	751.7689	3.080088	-7.320291	1	7.941889	-67.18057	1.317971E-005	0.0006503	10
	27	80	597.4265	3.332685	-9.034229	1	9.62933	-69.75122	-2.186719E-005	0.0006776	10
	28	82	477.4305	3.645512	-11.09004	1	11.67385	-71.80331	-1.546046E-006	0.0006811	10
	29	85	376.6741	4.060822	-13.76855	1	14.3549	-73.56738	-1.217078E-006	0.0006776	10
	30	87	298.2954	4.579263	-17.03224	1	17.63708	-74.9514	-1.044374E-006	0.0006789	10
	31	89	237.7717	5.220264	-20.93861	1	21.57954	-76.00082	-1.72862E-006	0.000679	10
	32	92	189.0121	6.046984	-25.79737	1	26.49661	-76.80786	-1.681882E-006	0.000681	10
	33	94	150.2404	7.112883	-31.77398	1	32.56038	-77.38187	-1.619818E-006	0.0006853	10
	34	97	119.1737	8.50712	-39.17646	1	40.08947	-77.7485	-1.518277E-006	0.0006817	10
	35	99	95.0169	10.26389	-47.96651	1	49.05235	-77.92197	1.216968E-006	8.09511E-005	9
	36	101	75.60484	12.57604	-58.81842	1	60.14784	-77.93123	1.157174E-006	8.011852E-005	9
	37	104	54.50582	17.08957	-78.46129	1	80.30086	-77.71238	1.033666E-006	7.94588E-005	9
	38	106	45.95588	20.13829	-91.02729	1	93.22831	-77.52518	1.460274E-006	7.950942E-005	9
	39	109	37.20238	24.63928	-109.149	1	111.8955	-77.27927	1.269487E-006	7.560116E-005	9
	40	111	30.04808	30.19638	-130.9057	1	134.3433	-77.01063	1.075852E-006	0.0001023	9
	41	114	23.91582	37.18543	-158.6637	1	162.963	-76.80986	1.073819E-006	7.954045E-005	9
	42	116	18.60119	46.3159	-195.9605	1	201.3596	-76.702	1.43168E-006	7.623589E-005	9
	43	118	15.02404	55.40686	-234.4353	1	240.8938	-76.70261	1.31815E-006	7.395748E-005	9
	44	120	12.01923	66.42225	-282.8958	1	290.589	-76.78664	1.388935E-006	7.808472E-005	9
	45	123	9.450605	79.87335	-346.7006	1	355.7823	-77.02649	1.257563E-006	8.073741E-005	9
	46	125	7.512019	94.67617	-419.8768	1	430.4185	-77.29314	7.011301E-007	0.000642	8
	47	128	5.978954	111.5049	-511.0519	1	523.0749	-77.6917	7.767601E-007	0.0006535	8
	48	131	4.734848	131.5177	-626.7717	1	640.4214	-78.14935	7.260448E-007	0.0006423	8
	49	134	3.75601	155.1051	-768.4193	1	783.9169	-78.58821	7.933575E-007	0.0006724	8
	50	138	3.004808	182.2747	-937.1539	1	954.715	-78.99349	7.605283E-007	0.0006616	8
	51	142	2.372217	220.3137	-1158.351	1	1179.116	-79.23119	6.771004E-007	0.0006246	8
	52	146	1.878005	266.0883	-1435.356	1	1459.811	-79.49765	7.514631E-007	0.0006548	8
	53	150	1.512097	319.1349	-1745.633	1	1774.565	-79.63966	6.918902E-007	0.000694	8
	54	156	1.201923	399.5126	-2159.803	1	2196.442	-79.52009	7.465845E-007	0.0006702	8
	55	162	0.956633	505.009	-2660.852	1	2708.352	-79.25352	6.89696E-007	1.064554E-005	8
