EXPLAIN
TAG	EISPOT
TITLE	LABEL	Potentiostatic EIS	Test Identifier
DATE	LABEL	2/24/2021	Date
TIME	LABEL	11:56:47	Time
NOTES	NOTES	1	Notes...
	
PSTAT	PSTAT	REF3000-16137	Potentiostat
VDC	POTEN	0.00000E+000	T	DC Voltage (V)
FREQINIT	QUANT	3.00000E+005	Initial Freq. (Hz)
FREQFINAL	QUANT	1.00000E+000	Final Freq. (Hz)
PTSPERDEC	QUANT	1.00000E+001	Points/decade
VAC	QUANT	5.00000E+001	AC Voltage (mV rms)
AREA	QUANT	1.00000E+000	Sample Area (cm^2)
SPEED	SELECTOR	2	Optimize for:
ZGUESS	QUANT	1.00000E+003	Estimated Z (ohms)
EOC	QUANT	0	Open Circuit (V)
SEQUENCER	TOGGLE	TRUE	Run as Sequence
PSTATMODEL	IQUANT	5	Pstat Model
PSTATSECTION	LABEL	REF3000-16137	Pstat Section
PSTATSERIALNO	LABEL	16137	Pstat Serial Number
CTRLMODE	IQUANT	1	Control Mode
IESTAB	IQUANT	0	I/E Stability
CASPEED	IQUANT	1	Control Amp Speed
CONVENTION	IQUANT	1	Current Convention
ICHRANGE	IQUANT	2	Ich Range
ICHRANGEMODE	TOGGLE	F	Ich Auto Range
ICHOFFSETENABLE	TOGGLE	T	Ich Offset Enable
ICHOFFSET	QUANT	0	Ich Offset (V)
ICHFILTER	IQUANT	3	Ich Filter
VCHRANGE	IQUANT	2	Vch Range
VCHRANGEMODE	TOGGLE	F	Vch Auto Range
VCHOFFSETENABLE	TOGGLE	T	Vch Offset Enable
VCHOFFSET	QUANT	0	Vch Offset (V)
VCHFILTER	IQUANT	3	Vch Filter
ACHRANGE	IQUANT	2	Ach Range
ACHOFFSETENABLE	TOGGLE	F	Ach Offset Enable
ACHOFFSET	QUANT	0	Ach Offset (V)
ACHFILTER	IQUANT	3	Ach Filter
IERANGELOWERLIMIT	IQUANT	2	I/E Range Lower Limit
IERANGEMODE	TOGGLE	F	I/E AutoRange
IERANGE	IQUANT	11	I/E Range
POSFEEDENABLE	TOGGLE	F	Positive Feedback IR Comp
POSFEEDRESISTANCE	QUANT	0	Positive Feedback Resistance (ohm)
ACHSELECT	IQUANT	0	Ach Select
CABLEID	IQUANT	13	Cable ID
DCCALDATE	LABEL	7/31/2020	DC Calibration Date
ACCALDATE	LABEL	7/31/2020	AC Calibration Date
THERMOSELECT	IQUANT	1	Thermo Select
FRAMEWORKVERSION	QUANT	6.33	Framework Version
INSTRUMENTVERSION	LABEL	3.50	Instrument Version
COMPLIANCEVOLTAGE	IQUANT	0	Compliance Voltage
ZCURVE	TABLE
	Pt	Time	Freq	Zreal	Zimag	Zsig	Zmod	Zphz	Idc	Vdc	IERange
	#	s	Hz	ohm	ohm	V	ohm	°	A	V	#
	0	11	300046.9	1.888859	2.239909	1	2.930014	49.85991	-6.503788E-006	-0.0002729	11
	1	14	238359.4	1.980598	1.603686	1	2.548446	38.99702	-7.857118E-005	-0.000215	12
	2	18	189328.1	1.898087	1.272123	1	2.284957	33.83052	-9.033024E-005	2.774399E-005	12
	3	22	150421.9	1.793778	1.10526	1	2.106951	31.63985	1.501332E-005	0.0002969	11
	4	24	119484.4	1.784917	0.8551259	1	1.979184	25.59835	-1.177213E-005	0.000344	11
	5	27	94921.88	1.776316	0.6546924	1	1.893125	20.23225	-3.822055E-005	0.0004343	11
	6	29	75421.88	1.774358	0.4854975	1	1.83958	15.30265	1.542758E-005	0.0005198	11
	7	32	59859.37	1.774516	0.3423266	1	1.807234	10.91895	-3.286932E-005	0.0005556	11
	8	34	47578.12	1.776269	0.2184937	1	1.789657	7.012561	-2.964331E-005	0.0005966	11
	9	37	37828.12	1.779034	0.1071403	1	1.782258	3.44641	1.146263E-005	0.0006654	11
	10	39	30046.88	1.783659	0.0022159	1	1.783661	0.0711812	-4.409892E-005	0.0006429	11
	11	42	23859.38	1.789707	-0.1013052	1	1.792572	-3.239733	-4.746194E-005	0.000645	11
	12	44	18984.38	1.798137	-0.2073532	1	1.810053	-6.578043	-4.564979E-005	0.0006673	11
	13	47	15046.87	1.809392	-0.3236922	1	1.838117	-10.14267	-2.301879E-005	0.0006953	11
	14	49	11953.13	1.822247	-0.4533868	1	1.877803	-13.97187	1.629815E-005	0.0007273	11
	15	51	9515.62	1.838774	-0.6012666	1	1.934583	-18.1074	2.6602E-005	0.0007388	11
	16	53	7546.875	1.859223	-0.7779823	1	2.015432	-22.70662	1.58292E-005	0.0007165	11
	17	56	5928.309	1.886776	-1.000702	1	2.135726	-27.94045	-2.33867E-005	0.0007095	11
	18	58	4733.456	1.918143	-1.252433	1	2.290821	-33.14214	1.836772E-005	0.0007353	11
	19	60	3796.875	1.957078	-1.551776	1	2.497632	-38.41106	-2.273839E-005	0.0007141	11
	20	63	2987.132	2.009964	-1.949814	1	2.800309	-44.12974	-2.670588E-005	0.0007038	11
	21	65	2390.625	2.071599	-2.403233	1	3.172862	-49.23848	-1.508719E-005	0.0006786	11
	22	67	1884.191	2.155191	-3.000926	1	3.694646	-54.31503	-3.402008E-005	0.0007057	11
	23	70	1516.544	2.252846	-3.671172	1	4.307298	-58.46428	2.3066E-005	0.0006688	10
	24	72	1193.986	2.385471	-4.575845	1	5.160313	-62.46616	-4.024801E-007	0.0006604	10
	25	74	946.5144	2.544422	-5.664143	1	6.209396	-65.80963	-1.325999E-005	0.0007028	10
	26	77	751.7689	2.746685	-6.993376	1	7.513427	-68.55733	6.165498E-006	0.0006559	10
	27	79	597.4265	2.994751	-8.625242	1	9.130352	-70.8526	-2.1493E-005	0.0006884	10
	28	81	477.4305	3.304682	-10.58311	1	11.08707	-72.65849	-1.337724E-006	0.0006864	10
	29	84	376.6741	3.717557	-13.1331	1	13.64912	-74.19489	-9.297711E-007	0.0006776	10
	30	86	298.2954	4.236794	-16.23757	1	16.78122	-75.37614	-9.671288E-007	0.0006864	10
	31	88	237.7717	4.883008	-19.94851	1	20.53745	-76.24556	-2.02042E-006	0.0006849	10
	32	91	189.0121	5.726614	-24.55559	1	25.2145	-76.87267	-1.539308E-006	0.0006847	10
	33	93	150.2404	6.819612	-30.20668	1	30.96693	-77.2779	-1.638755E-006	0.0007025	10
	34	96	119.1737	8.254399	-37.17455	1	38.07994	-77.4809	-1.499617E-006	0.0006844	10
	35	98	95.0169	10.05994	-45.40754	1	46.50858	-77.50802	1.195536E-006	8.073909E-005	9
	36	101	75.60484	12.41169	-55.51016	1	56.88082	-77.39636	1.10468E-006	8.011836E-005	9
	37	103	54.50582	16.89392	-73.67806	1	75.59009	-77.08568	9.990981E-007	7.560128E-005	9
	38	106	45.95588	19.82839	-85.2462	1	87.52188	-76.90575	1.641509E-006	7.48293E-005	9
	39	108	37.20238	24.0932	-101.9267	1	104.7356	-76.70067	1.331105E-006	8.06204E-005	9
	40	110	30.04808	29.17448	-121.9371	1	125.3786	-76.54444	1.108989E-006	8.03111E-005	9
	41	113	23.91582	35.58181	-147.6597	1	151.8864	-76.45164	9.571097E-007	7.810291E-005	9
	42	115	18.60119	43.78489	-182.3348	1	187.5182	-76.49697	1.301612E-006	8.248571E-005	9
	43	117	15.02404	51.86299	-218.1571	1	224.2371	-76.62718	1.359033E-006	8.993339E-005	9
	44	120	12.01923	61.61427	-263.4419	1	270.5512	-76.83617	1.265809E-006	8.656157E-005	9
	45	122	9.450605	73.85418	-323.7084	1	332.0264	-77.14793	1.25517E-006	8.194854E-005	9
	46	125	7.512019	87.06534	-394.2566	1	403.7557	-77.547	1.466473E-006	7.063681E-005	9
	47	127	5.978954	102.1766	-479.2725	1	490.0431	-77.96522	8.191528E-007	0.0006604	8
	48	130	4.734848	121.0495	-589.4268	1	601.7283	-78.39464	7.58043E-007	0.0006486	8
	49	134	3.75601	144.4392	-724.5609	1	738.8174	-78.72603	8.57167E-007	0.0006778	8
	50	137	3.004808	172.9438	-885.2528	1	901.9879	-78.94587	7.846305E-007	0.0006581	8
	51	141	2.372217	214.3933	-1096.895	1	1117.65	-78.94069	7.339447E-007	0.0005944	8
	52	145	1.878005	265.606	-1358.411	1	1384.134	-78.93671	7.989006E-007	0.0006654	8
	53	150	1.512097	331.5375	-1650.47	1	1683.439	-78.64189	7.35483E-007	0.0006198	8
	54	155	1.201923	426.0197	-2039.776	1	2083.79	-78.20301	7.858049E-007	0.0006893	8
	55	161	0.956633	557.716	-2507.494	1	2568.769	-77.46041	7.248083E-007	1.860595E-005	8
