EXPLAIN
TAG	EISPOT
TITLE	LABEL	Potentiostatic EIS	Test Identifier
DATE	LABEL	2/24/2021	Date
TIME	LABEL	13:09:36	Time
NOTES	NOTES	1	Notes...
	
PSTAT	PSTAT	REF3000-16137	Potentiostat
VDC	POTEN	0.00000E+000	T	DC Voltage (V)
FREQINIT	QUANT	3.00000E+005	Initial Freq. (Hz)
FREQFINAL	QUANT	1.00000E+000	Final Freq. (Hz)
PTSPERDEC	QUANT	1.00000E+001	Points/decade
VAC	QUANT	5.00000E+001	AC Voltage (mV rms)
AREA	QUANT	1.00000E+000	Sample Area (cm^2)
SPEED	SELECTOR	2	Optimize for:
ZGUESS	QUANT	1.00000E+003	Estimated Z (ohms)
EOC	QUANT	0	Open Circuit (V)
SEQUENCER	TOGGLE	TRUE	Run as Sequence
PSTATMODEL	IQUANT	5	Pstat Model
PSTATSECTION	LABEL	REF3000-16137	Pstat Section
PSTATSERIALNO	LABEL	16137	Pstat Serial Number
CTRLMODE	IQUANT	1	Control Mode
IESTAB	IQUANT	0	I/E Stability
CASPEED	IQUANT	1	Control Amp Speed
CONVENTION	IQUANT	1	Current Convention
ICHRANGE	IQUANT	2	Ich Range
ICHRANGEMODE	TOGGLE	F	Ich Auto Range
ICHOFFSETENABLE	TOGGLE	T	Ich Offset Enable
ICHOFFSET	QUANT	0	Ich Offset (V)
ICHFILTER	IQUANT	3	Ich Filter
VCHRANGE	IQUANT	2	Vch Range
VCHRANGEMODE	TOGGLE	F	Vch Auto Range
VCHOFFSETENABLE	TOGGLE	T	Vch Offset Enable
VCHOFFSET	QUANT	0	Vch Offset (V)
VCHFILTER	IQUANT	3	Vch Filter
ACHRANGE	IQUANT	2	Ach Range
ACHOFFSETENABLE	TOGGLE	F	Ach Offset Enable
ACHOFFSET	QUANT	0	Ach Offset (V)
ACHFILTER	IQUANT	3	Ach Filter
IERANGELOWERLIMIT	IQUANT	2	I/E Range Lower Limit
IERANGEMODE	TOGGLE	F	I/E AutoRange
IERANGE	IQUANT	11	I/E Range
POSFEEDENABLE	TOGGLE	F	Positive Feedback IR Comp
POSFEEDRESISTANCE	QUANT	0	Positive Feedback Resistance (ohm)
ACHSELECT	IQUANT	0	Ach Select
CABLEID	IQUANT	13	Cable ID
DCCALDATE	LABEL	7/31/2020	DC Calibration Date
ACCALDATE	LABEL	7/31/2020	AC Calibration Date
THERMOSELECT	IQUANT	1	Thermo Select
FRAMEWORKVERSION	QUANT	6.33	Framework Version
INSTRUMENTVERSION	LABEL	3.50	Instrument Version
COMPLIANCEVOLTAGE	IQUANT	0	Compliance Voltage
ZCURVE	TABLE
	Pt	Time	Freq	Zreal	Zimag	Zsig	Zmod	Zphz	Idc	Vdc	IERange
	#	s	Hz	ohm	ohm	V	ohm	°	A	V	#
	0	7	300046.9	165.7298	-6.13076	1	165.8432	-2.118548	-7.240989E-005	0.0030402	9
	1	11	238359.4	167.4491	-5.24251	1	167.5312	-1.793235	-7.160695E-005	0.002977	9
	2	14	189328.1	168.9768	-5.261208	1	169.0587	-1.783367	3.055536E-005	0.0004928	9
	3	17	150421.9	170.7914	-4.198302	1	170.843	-1.408131	-1.604862E-005	0.0011022	9
	4	19	119484.4	171.969	-3.546604	1	172.0056	-1.181472	-7.356442E-005	0.0031805	9
	5	22	94921.88	173.1689	-2.715497	1	173.1902	-0.898393	-2.066198E-006	-0.0003396	9
	6	24	75421.88	174.4184	-2.364943	1	174.4344	-0.7768271	-2.226261E-005	0.0006262	9
	7	27	59859.37	175.5753	-2.09326	1	175.5878	-0.6830645	7.30089E-006	-0.0005937	9
	8	29	47578.12	176.8339	-1.919715	1	176.8443	-0.6219807	1.475716E-005	-0.0007498	9
	9	32	37828.12	178.0946	-1.723476	1	178.1029	-0.5544516	2.608241E-005	-0.0006356	9
	10	34	30046.88	179.3081	-1.482513	1	179.3143	-0.4737086	-1.499878E-005	0.0009062	9
	11	37	23859.38	180.5215	-1.37173	1	180.5267	-0.4353657	2.088588E-005	-0.0007787	9
	12	39	18984.38	181.4657	-1.408301	1	181.4712	-0.4446463	-1.510573E-005	0.0009098	9
	13	42	15046.87	182.6479	-1.598735	1	182.6549	-0.5015028	1.446312E-005	-0.0006719	9
	14	44	11953.13	183.9048	-1.532149	1	183.9111	-0.477332	2.120203E-005	-0.0007992	9
	15	46	9515.62	184.974	-1.715587	1	184.9819	-0.5313888	-7.617663E-006	0.0007817	9
	16	49	7546.875	186.1731	-1.758936	1	186.1814	-0.541306	-2.102579E-005	0.0004234	9
	17	51	5928.309	187.3317	-2.245063	1	187.3452	-0.6866241	2.355918E-005	-0.0002341	9
	18	53	4733.456	188.4496	-2.59129	1	188.4674	-0.7878004	1.136423E-005	0.0002689	9
	19	56	3796.875	189.9479	-3.135097	1	189.9738	-0.945583	-1.696792E-005	0.0003241	9
	20	58	2987.132	190.6607	-3.856452	1	190.6997	-1.158751	1.487559E-005	-0.0007274	9
	21	60	2390.625	192.0512	-4.366973	1	192.1009	-1.302601	2.43049E-005	-0.0006979	9
	22	62	1884.191	193.0217	-5.429564	1	193.0981	-1.611264	-1.797823E-006	-0.0003219	9
	23	65	1516.544	194.7414	-6.790689	1	194.8598	-1.997111	7.379401E-006	-0.0005801	9
	24	67	1193.986	196.1474	-8.148578	1	196.3166	-2.378878	7.414179E-006	-0.0005825	9
	25	70	946.5144	197.4281	-10.4107	1	197.7024	-3.018502	1.846567E-006	0.0006121	9
	26	72	751.7689	199.1327	-12.69163	1	199.5368	-3.646787	2.586537E-005	-0.0004437	9
	27	74	597.4265	200.3458	-16.04408	1	200.9872	-4.578587	1.507784E-005	-0.0007213	9
	28	77	477.4305	202.1476	-19.52223	1	203.0881	-5.516183	1.196414E-006	8.900905E-005	9
	29	79	376.6741	203.8689	-24.33765	1	205.3164	-6.807691	1.111872E-006	9.430406E-005	9
	30	81	298.2954	205.7231	-30.26649	1	207.9377	-8.369454	1.163865E-006	0.0000954	9
	31	83	237.7717	207.7584	-37.426	1	211.1025	-10.21185	1.240515E-006	8.764178E-005	9
	32	86	189.0121	210.0282	-46.4141	1	215.0956	-12.4615	1.192345E-006	8.643103E-005	9
	33	88	150.2404	212.5587	-57.55137	1	220.212	-15.1499	1.205267E-006	8.529173E-005	9
	34	91	119.1737	215.5028	-71.49515	1	227.0529	-18.35376	1.321337E-006	0.0000964	9
	35	93	95.0169	218.8176	-88.34039	1	235.9771	-21.98476	1.148278E-006	8.080609E-005	9
	36	96	75.60484	222.8291	-109.343	1	248.211	-26.13734	1.270944E-006	7.931368E-005	9
	37	98	54.50582	229.2126	-148.1467	1	272.921	-32.87574	1.270716E-006	7.479022E-005	9
	38	101	45.95588	233.939	-173.5226	1	291.2688	-36.56591	1.232343E-006	8.264185E-005	9
	39	103	37.20238	240.2955	-210.9281	1	319.7383	-41.27623	1.30291E-006	7.882381E-005	9
	40	105	30.04808	247.9916	-256.8123	1	357.0048	-46.00105	1.324227E-006	8.276572E-005	9
	41	108	23.91582	256.6983	-315.4637	1	406.7079	-50.86414	1.209289E-007	0.0006428	8
	42	110	18.60119	269.737	-397.364	1	480.2668	-55.83072	1.219545E-008	0.0006631	8
	43	112	15.02404	283.8366	-483.1505	1	560.3549	-59.56703	7.341467E-008	0.0006557	8
	44	115	12.01923	301.6352	-592.5653	1	664.9191	-63.02241	4.331287E-008	0.000663	8
	45	117	9.450605	325.4516	-737.968	1	806.5453	-66.20202	1.586884E-007	0.0006522	8
	46	120	7.512019	353.6592	-909.1973	1	975.559	-68.74498	1.47531E-007	0.0006701	8
	47	122	5.978954	388.0082	-1118.841	1	1184.211	-70.87373	1.359378E-007	0.0006542	8
	48	125	4.734848	431.5598	-1382.579	1	1448.367	-72.6647	1.203592E-007	0.0006954	8
	49	129	3.75601	484.9189	-1705.975	1	1773.555	-74.13233	9.462565E-008	0.0006358	8
	50	132	3.004808	548.0382	-2087.304	1	2158.051	-75.28859	1.218297E-007	0.0006544	8
	51	136	2.372217	632.3073	-2583.436	1	2659.69	-76.24698	1.244104E-007	0.0006753	8
	52	140	1.878005	736.4192	-3202.237	1	3285.823	-77.04885	9.420176E-008	0.0006473	8
	53	145	1.512097	850.3533	-3898.244	1	3989.913	-77.6944	1.141088E-007	0.0005664	8
	54	150	1.201923	1015.644	-4818.808	1	4924.677	-78.09816	-1.036056E-008	0.0006361	7
	55	156	0.956633	1210.696	-5928.527	1	6050.886	-78.45803	-9.928232E-009	-5.557541E-006	7
