EXPLAIN
TAG	EISPOT
TITLE	LABEL	Potentiostatic EIS	Test Identifier
DATE	LABEL	2/24/2021	Date
TIME	LABEL	13:15:22	Time
NOTES	NOTES	1	Notes...
	
PSTAT	PSTAT	REF3000-16137	Potentiostat
VDC	POTEN	0.00000E+000	T	DC Voltage (V)
FREQINIT	QUANT	3.00000E+005	Initial Freq. (Hz)
FREQFINAL	QUANT	1.00000E+000	Final Freq. (Hz)
PTSPERDEC	QUANT	1.00000E+001	Points/decade
VAC	QUANT	5.00000E+001	AC Voltage (mV rms)
AREA	QUANT	1.00000E+000	Sample Area (cm^2)
SPEED	SELECTOR	2	Optimize for:
ZGUESS	QUANT	1.00000E+003	Estimated Z (ohms)
EOC	QUANT	0	Open Circuit (V)
SEQUENCER	TOGGLE	TRUE	Run as Sequence
PSTATMODEL	IQUANT	5	Pstat Model
PSTATSECTION	LABEL	REF3000-16137	Pstat Section
PSTATSERIALNO	LABEL	16137	Pstat Serial Number
CTRLMODE	IQUANT	1	Control Mode
IESTAB	IQUANT	0	I/E Stability
CASPEED	IQUANT	1	Control Amp Speed
CONVENTION	IQUANT	1	Current Convention
ICHRANGE	IQUANT	2	Ich Range
ICHRANGEMODE	TOGGLE	F	Ich Auto Range
ICHOFFSETENABLE	TOGGLE	T	Ich Offset Enable
ICHOFFSET	QUANT	0	Ich Offset (V)
ICHFILTER	IQUANT	3	Ich Filter
VCHRANGE	IQUANT	2	Vch Range
VCHRANGEMODE	TOGGLE	F	Vch Auto Range
VCHOFFSETENABLE	TOGGLE	T	Vch Offset Enable
VCHOFFSET	QUANT	0	Vch Offset (V)
VCHFILTER	IQUANT	3	Vch Filter
ACHRANGE	IQUANT	2	Ach Range
ACHOFFSETENABLE	TOGGLE	F	Ach Offset Enable
ACHOFFSET	QUANT	0	Ach Offset (V)
ACHFILTER	IQUANT	3	Ach Filter
IERANGELOWERLIMIT	IQUANT	2	I/E Range Lower Limit
IERANGEMODE	TOGGLE	F	I/E AutoRange
IERANGE	IQUANT	11	I/E Range
POSFEEDENABLE	TOGGLE	F	Positive Feedback IR Comp
POSFEEDRESISTANCE	QUANT	0	Positive Feedback Resistance (ohm)
ACHSELECT	IQUANT	0	Ach Select
CABLEID	IQUANT	13	Cable ID
DCCALDATE	LABEL	7/31/2020	DC Calibration Date
ACCALDATE	LABEL	7/31/2020	AC Calibration Date
THERMOSELECT	IQUANT	1	Thermo Select
FRAMEWORKVERSION	QUANT	6.33	Framework Version
INSTRUMENTVERSION	LABEL	3.50	Instrument Version
COMPLIANCEVOLTAGE	IQUANT	0	Compliance Voltage
ZCURVE	TABLE
	Pt	Time	Freq	Zreal	Zimag	Zsig	Zmod	Zphz	Idc	Vdc	IERange
	#	s	Hz	ohm	ohm	V	ohm	°	A	V	#
	0	9	300046.9	418.0723	-59.1889	1	422.2413	-8.05814	-1.744192E-005	0.0009422	9
	1	17	238359.4	432.4864	-51.5943	1	435.553	-6.803059	-5.883271E-005	0.0005863	9
	2	24	189328.1	445.7306	-47.40738	1	448.2446	-6.071087	-2.973871E-005	-0.0007619	9
	3	31	150421.9	455.5952	-38.46441	1	457.2161	-4.82585	-2.953395E-005	-0.000713	9
	4	36	119484.4	463.2914	-18.0967	1	463.6447	-2.236903	6.013764E-006	-0.003963	8
	5	39	94921.88	468.564	-13.00808	1	468.7445	-1.590213	1.429682E-005	-0.0051266	8
	6	42	75421.88	473.6521	-11.73603	1	473.7975	-1.41937	1.132761E-005	-0.0051943	8
	7	45	59859.37	476.6592	-9.64999	1	476.7569	-1.159798	1.589974E-005	-0.004453	8
	8	47	47578.12	481.0262	-9.145228	1	481.1132	-1.089171	7.676848E-006	-0.0047048	8
	9	50	37828.12	484.1806	-7.98042	1	484.2464	-0.9442819	1.085909E-005	-0.0044681	8
	10	52	30046.88	488.5992	-6.155522	1	488.6379	-0.7217916	1.460431E-005	-0.0049843	8
	11	55	23859.38	493.0781	-5.744339	1	493.1115	-0.6674632	6.608277E-006	0.0019505	8
	12	57	18984.38	496.4165	-5.268646	1	496.4444	-0.6080778	-7.885544E-006	2.46827E-005	8
	13	59	15046.87	501.6919	-2.902408	1	501.7003	-0.3314661	3.432187E-006	0.0033329	8
	14	62	11953.13	504.0946	-2.857344	1	504.1027	-0.3247645	9.335855E-006	-0.0051076	8
	15	64	9515.62	507.7787	-3.724315	1	507.7924	-0.4202298	-1.478725E-005	0.0050666	8
	16	67	7546.875	511.2816	-2.500851	1	511.2877	-0.2802507	6.86449E-006	0.0020378	8
	17	69	5928.309	515.53	-3.522636	1	515.542	-0.3914981	-1.345767E-005	0.0029052	8
	18	71	4733.456	518.5675	-4.322269	1	518.5855	-0.4775502	-1.154414E-005	0.0016818	8
	19	74	3796.875	525.1149	-3.851883	1	525.129	-0.4202751	1.636381E-005	-0.0046089	8
	20	76	2987.132	525.8694	-4.472348	1	525.8885	-0.4872701	-1.399437E-005	0.0030701	8
	21	78	2390.625	531.0988	-6.015521	1	531.1328	-0.6489362	-2.284393E-006	-0.0021939	8
	22	81	1884.191	533.4196	-7.896714	1	533.4781	-0.8481416	-1.291259E-005	0.0066739	8
	23	83	1516.544	538.6472	-9.075385	1	538.7236	-0.965255	1.674088E-005	-0.0035825	8
	24	85	1193.986	543.124	-11.02531	1	543.2359	-1.162933	8.309377E-006	-0.004989	8
	25	88	946.5144	548.6245	-12.44222	1	548.7656	-1.299185	1.688027E-005	-0.0035767	8
	26	90	751.7689	552.0533	-13.98868	1	552.2305	-1.451528	-1.392078E-005	0.0029274	8
	27	93	597.4265	556.9971	-17.72253	1	557.2789	-1.822422	-8.181005E-006	8.940896E-006	8
	28	95	477.4305	561.1199	-21.79133	1	561.5428	-2.223989	-2.164311E-008	0.0006611	8
	29	97	376.6741	565.7343	-26.98901	1	566.3777	-2.731291	9.786765E-009	0.0006425	8
	30	100	298.2954	570.5272	-33.3944	1	571.5037	-3.349845	-4.179039E-009	0.0006617	8
	31	102	237.7717	575.682	-41.14673	1	577.1506	-4.088249	2.135135E-009	0.000658	8
	32	104	189.0121	581.032	-50.89707	1	583.257	-5.0062	7.176318E-009	0.0006553	8
	33	107	150.2404	586.6241	-63.02464	1	590	-6.132117	2.846845E-009	0.000648	8
	34	109	119.1737	592.5778	-78.2372	1	597.7203	-7.521179	-1.957942E-008	0.000677	8
	35	112	95.0169	598.9575	-96.6787	1	606.7098	-9.169125	2.687544E-009	0.0006579	8
	36	114	75.60484	606.1426	-119.726	1	617.8537	-11.1733	1.727649E-009	0.0006509	8
	37	117	54.50582	615.6343	-162.6322	1	636.7534	-14.79779	-3.438073E-009	0.0006539	8
	38	119	45.95588	623.4495	-190.7997	1	651.9922	-17.01614	-4.602634E-008	0.0006854	8
	39	122	37.20238	632.7452	-232.4921	1	674.1061	-20.17505	2.501693E-008	0.0006659	8
	40	124	30.04808	643.5967	-283.722	1	703.3597	-23.78972	-5.394428E-008	0.0006804	8
	41	126	23.91582	656.7473	-350.8802	1	744.6031	-28.11424	-8.260142E-008	0.00067	8
	42	129	18.60119	673.194	-443.0764	1	805.9199	-33.35173	6.676193E-008	0.0006561	8
	43	131	15.02404	691.0624	-539.5199	1	876.7263	-37.97955	5.560439E-008	0.0006736	8
	44	133	12.01923	712.5659	-662.6664	1	973.076	-42.92197	-6.890376E-008	0.0006506	8
	45	136	9.450605	740.7025	-826.9887	1	1110.203	-48.1504	-3.902841E-008	0.0006909	8
	46	138	7.512019	773.9835	-1020.66	1	1280.936	-52.82634	-6.274416E-008	0.0006464	8
	47	141	5.978954	814.8403	-1258.551	1	1499.305	-57.07923	-6.16867E-009	0.0006474	8
	48	144	4.734848	865.8258	-1558.601	1	1782.945	-60.94719	-7.774769E-008	0.0006536	8
	49	147	3.75601	929.8597	-1925.023	1	2137.839	-64.21769	-2.449469E-008	0.0006887	8
	50	151	3.004808	1005.98	-2357.394	1	2563.065	-66.8904	-1.352912E-008	0.0006507	8
	51	154	2.372217	1109.225	-2923.183	1	3126.561	-69.22035	-4.073323E-008	0.0005906	8
	52	159	1.878005	1226.503	-3618.758	1	3820.958	-71.27698	-1.810783E-008	0.0006635	8
	53	163	1.512097	1363.972	-4405.207	1	4611.537	-72.79605	-2.801633E-008	0.0006371	7
	54	169	1.201923	1547.591	-5444.686	1	5660.357	-74.13279	-7.726965E-009	0.0006562	7
	55	175	0.956633	1768.881	-6698.831	1	6928.44	-75.20821	-2.919877E-008	-8.06114E-006	7
