EXPLAIN
TAG	EISPOT
TITLE	LABEL	Potentiostatic EIS	Test Identifier
DATE	LABEL	2/24/2021	Date
TIME	LABEL	12:44:48	Time
NOTES	NOTES	1	Notes...
	
PSTAT	PSTAT	REF3000-16137	Potentiostat
VDC	POTEN	0.00000E+000	T	DC Voltage (V)
FREQINIT	QUANT	3.00000E+005	Initial Freq. (Hz)
FREQFINAL	QUANT	1.00000E+000	Final Freq. (Hz)
PTSPERDEC	QUANT	1.00000E+001	Points/decade
VAC	QUANT	5.00000E+001	AC Voltage (mV rms)
AREA	QUANT	1.00000E+000	Sample Area (cm^2)
SPEED	SELECTOR	2	Optimize for:
ZGUESS	QUANT	1.00000E+003	Estimated Z (ohms)
EOC	QUANT	0	Open Circuit (V)
SEQUENCER	TOGGLE	TRUE	Run as Sequence
PSTATMODEL	IQUANT	5	Pstat Model
PSTATSECTION	LABEL	REF3000-16137	Pstat Section
PSTATSERIALNO	LABEL	16137	Pstat Serial Number
CTRLMODE	IQUANT	1	Control Mode
IESTAB	IQUANT	0	I/E Stability
CASPEED	IQUANT	1	Control Amp Speed
CONVENTION	IQUANT	1	Current Convention
ICHRANGE	IQUANT	2	Ich Range
ICHRANGEMODE	TOGGLE	F	Ich Auto Range
ICHOFFSETENABLE	TOGGLE	T	Ich Offset Enable
ICHOFFSET	QUANT	0	Ich Offset (V)
ICHFILTER	IQUANT	3	Ich Filter
VCHRANGE	IQUANT	2	Vch Range
VCHRANGEMODE	TOGGLE	F	Vch Auto Range
VCHOFFSETENABLE	TOGGLE	T	Vch Offset Enable
VCHOFFSET	QUANT	0	Vch Offset (V)
VCHFILTER	IQUANT	3	Vch Filter
ACHRANGE	IQUANT	2	Ach Range
ACHOFFSETENABLE	TOGGLE	F	Ach Offset Enable
ACHOFFSET	QUANT	0	Ach Offset (V)
ACHFILTER	IQUANT	3	Ach Filter
IERANGELOWERLIMIT	IQUANT	2	I/E Range Lower Limit
IERANGEMODE	TOGGLE	F	I/E AutoRange
IERANGE	IQUANT	11	I/E Range
POSFEEDENABLE	TOGGLE	F	Positive Feedback IR Comp
POSFEEDRESISTANCE	QUANT	0	Positive Feedback Resistance (ohm)
ACHSELECT	IQUANT	0	Ach Select
CABLEID	IQUANT	13	Cable ID
DCCALDATE	LABEL	7/31/2020	DC Calibration Date
ACCALDATE	LABEL	7/31/2020	AC Calibration Date
THERMOSELECT	IQUANT	1	Thermo Select
FRAMEWORKVERSION	QUANT	6.33	Framework Version
INSTRUMENTVERSION	LABEL	3.50	Instrument Version
COMPLIANCEVOLTAGE	IQUANT	0	Compliance Voltage
ZCURVE	TABLE
	Pt	Time	Freq	Zreal	Zimag	Zsig	Zmod	Zphz	Idc	Vdc	IERange
	#	s	Hz	ohm	ohm	V	ohm	°	A	V	#
	0	8	300046.9	11.31967	2.133295	1	11.51893	10.67274	9.734174E-006	0.0001138	10
	1	11	238359.4	11.31453	1.686581	1	11.43954	8.478268	5.845315E-005	0.0001292	10
	2	14	189328.1	11.34211	1.327147	1	11.41949	6.673867	-0.0001014	0.0003976	10
	3	17	150421.9	11.37688	1.047195	1	11.42497	5.259024	8.541947E-006	0.0006505	10
	4	19	119484.4	11.3958	0.7951732	1	11.42351	3.9915	-2.479761E-005	0.0005591	10
	5	22	94921.88	11.42799	0.6156926	1	11.44457	3.083876	2.232401E-005	0.000584	10
	6	24	75421.88	11.46239	0.4371509	1	11.47072	2.18408	1.953473E-006	0.000609	10
	7	27	59859.37	11.50313	0.2817325	1	11.50658	1.402997	-1.1042E-005	0.0006425	10
	8	29	47578.12	11.54638	0.1499072	1	11.54736	0.7438319	-3.837506E-006	0.0006996	10
	9	32	37828.12	11.58804	0.0294635	1	11.58808	0.1456788	5.013309E-006	0.0006191	10
	10	34	30046.88	11.6327	-0.0873602	1	11.63303	-0.4302765	-2.289612E-005	0.000722	10
	11	37	23859.38	11.67644	-0.2067475	1	11.67827	-1.014395	-2.319766E-005	0.0007241	10
	12	39	18984.38	11.72102	-0.3333656	1	11.72576	-1.62915	-2.490063E-005	0.0007165	10
	13	42	15046.87	11.76725	-0.4769096	1	11.77692	-2.320844	-4.453074E-006	0.0006456	10
	14	44	11953.13	11.81561	-0.6407384	1	11.83297	-3.104002	-1.289146E-005	0.0006543	10
	15	46	9515.62	11.87006	-0.8314355	1	11.89914	-4.006727	-2.194074E-005	0.0007407	10
	16	48	7546.875	11.92382	-1.064717	1	11.97126	-5.102594	1.812087E-005	0.0006307	10
	17	51	5928.309	11.99001	-1.360994	1	12.06701	-6.475962	-1.470772E-005	0.0006966	10
	18	53	4733.456	12.05879	-1.700641	1	12.17812	-8.027435	1.513361E-005	0.0006795	10
	19	55	3796.875	12.13676	-2.106635	1	12.31823	-9.84699	-1.935188E-005	0.0006612	10
	20	58	2987.132	12.2283	-2.651239	1	12.51241	-12.23306	5.035998E-006	0.0006862	10
	21	60	2390.625	12.33428	-3.272634	1	12.76106	-14.8598	-2.563338E-005	0.000719	10
	22	62	1884.191	12.46219	-4.099152	1	13.11904	-18.20744	2.197134E-005	0.0006538	10
	23	65	1516.544	12.60639	-5.029252	1	13.57256	-21.74927	2.251896E-005	0.0006715	10
	24	67	1193.986	12.79631	-6.288544	1	14.25803	-26.17108	1.521016E-005	0.0006834	10
	25	69	946.5144	13.02495	-7.801511	1	15.18265	-30.92021	-2.585288E-005	0.0007289	10
	26	72	751.7689	13.29487	-9.66707	1	16.43794	-36.02195	1.963127E-005	0.0006728	10
	27	74	597.4265	13.63039	-11.95346	1	18.12933	-41.24984	-4.388972E-006	0.0006491	10
	28	76	477.4305	14.02304	-14.70446	1	20.31913	-46.35882	-2.21707E-006	0.0006825	10
	29	79	376.6741	14.54073	-18.29747	1	23.37157	-51.52636	-2.219719E-006	0.0006818	10
	30	81	298.2954	15.17428	-22.68255	1	27.29023	-56.21809	-1.913315E-006	0.0006831	10
	31	83	237.7717	15.94528	-27.94535	1	32.17444	-60.29143	-2.101839E-006	0.000685	10
	32	86	189.0121	16.91182	-34.49664	1	38.41911	-63.88381	-2.174759E-006	0.0006825	10
	33	88	150.2404	18.08856	-42.51707	1	46.20495	-66.95305	1.202528E-006	8.729642E-005	9
	34	91	119.1737	19.58625	-52.547	1	56.07859	-69.55768	1.317138E-006	8.730993E-005	9
	35	93	95.0169	21.40129	-64.61803	1	68.06985	-71.67529	1.25195E-006	8.231825E-005	9
	36	96	75.60484	23.6625	-79.60182	1	83.04435	-73.44485	1.293566E-006	7.945445E-005	9
	37	98	54.50582	27.8539	-107.2585	1	110.8162	-75.44245	1.263729E-006	8.028835E-005	9
	38	101	45.95588	30.63777	-125.33	1	129.0205	-76.26307	1.341921E-006	8.908701E-005	9
	39	103	37.20238	34.77578	-151.9471	1	155.8758	-77.10887	1.345263E-006	8.483948E-005	9
	40	105	30.04808	39.97071	-184.6152	1	188.8926	-77.78355	1.300637E-006	8.353379E-005	9
	41	108	23.91582	46.94997	-227.3488	1	232.146	-78.33183	1.215059E-006	8.47122E-005	9
	42	110	18.60119	56.76911	-285.6608	1	291.247	-78.7601	1.444962E-006	8.557192E-005	9
	43	112	15.02404	67.7198	-346.8913	1	353.4395	-78.9537	1.438058E-006	9.038947E-005	9
	44	115	12.01923	81.84848	-422.8916	1	430.7395	-79.04613	7.306141E-007	0.0006586	8
	45	117	9.450605	102.1331	-525.0707	1	534.9116	-78.99268	4.965999E-007	0.0006711	8
	46	120	7.512019	127.3983	-644.3998	1	656.8724	-78.8168	5.213216E-007	0.0006474	8
	47	122	5.978954	159.3649	-788.7427	1	804.6815	-78.57721	5.661751E-007	0.000659	8
	48	125	4.734848	200.9544	-968.3	1	988.932	-78.27565	6.8854E-007	0.0006757	8
	49	129	3.75601	253.282	-1182.89	1	1209.703	-77.91425	5.890588E-007	0.0006522	8
	50	132	3.004808	314.5024	-1431.098	1	1465.249	-77.60554	6.578086E-007	0.0006291	8
	51	136	2.372217	391.5905	-1748.233	1	1791.553	-77.3746	6.444897E-007	0.0006096	8
	52	140	1.878005	485.7912	-2131.046	1	2185.715	-77.15835	6.158906E-007	0.0006614	8
	53	145	1.512097	583.9205	-2559.981	1	2625.732	-77.15091	6.200942E-007	0.0005523	8
	54	150	1.201923	705.3465	-3111.986	1	3190.92	-77.22941	6.175006E-007	0.0006437	8
	55	156	0.956633	840.6046	-3780.565	1	3872.891	-77.46427	6.16318E-007	1.289903E-005	8
