EXPLAIN
TAG	EISPOT
TITLE	LABEL	Potentiostatic EIS	Test Identifier
DATE	LABEL	2/24/2021	Date
TIME	LABEL	12:02:28	Time
NOTES	NOTES	1	Notes...
	
PSTAT	PSTAT	REF3000-16137	Potentiostat
VDC	POTEN	0.00000E+000	T	DC Voltage (V)
FREQINIT	QUANT	3.00000E+005	Initial Freq. (Hz)
FREQFINAL	QUANT	1.00000E+000	Final Freq. (Hz)
PTSPERDEC	QUANT	1.00000E+001	Points/decade
VAC	QUANT	5.00000E+001	AC Voltage (mV rms)
AREA	QUANT	1.00000E+000	Sample Area (cm^2)
SPEED	SELECTOR	2	Optimize for:
ZGUESS	QUANT	1.00000E+003	Estimated Z (ohms)
EOC	QUANT	0	Open Circuit (V)
SEQUENCER	TOGGLE	TRUE	Run as Sequence
PSTATMODEL	IQUANT	5	Pstat Model
PSTATSECTION	LABEL	REF3000-16137	Pstat Section
PSTATSERIALNO	LABEL	16137	Pstat Serial Number
CTRLMODE	IQUANT	1	Control Mode
IESTAB	IQUANT	0	I/E Stability
CASPEED	IQUANT	1	Control Amp Speed
CONVENTION	IQUANT	1	Current Convention
ICHRANGE	IQUANT	2	Ich Range
ICHRANGEMODE	TOGGLE	F	Ich Auto Range
ICHOFFSETENABLE	TOGGLE	T	Ich Offset Enable
ICHOFFSET	QUANT	0	Ich Offset (V)
ICHFILTER	IQUANT	3	Ich Filter
VCHRANGE	IQUANT	2	Vch Range
VCHRANGEMODE	TOGGLE	F	Vch Auto Range
VCHOFFSETENABLE	TOGGLE	T	Vch Offset Enable
VCHOFFSET	QUANT	0	Vch Offset (V)
VCHFILTER	IQUANT	3	Vch Filter
ACHRANGE	IQUANT	2	Ach Range
ACHOFFSETENABLE	TOGGLE	F	Ach Offset Enable
ACHOFFSET	QUANT	0	Ach Offset (V)
ACHFILTER	IQUANT	3	Ach Filter
IERANGELOWERLIMIT	IQUANT	2	I/E Range Lower Limit
IERANGEMODE	TOGGLE	F	I/E AutoRange
IERANGE	IQUANT	11	I/E Range
POSFEEDENABLE	TOGGLE	F	Positive Feedback IR Comp
POSFEEDRESISTANCE	QUANT	0	Positive Feedback Resistance (ohm)
ACHSELECT	IQUANT	0	Ach Select
CABLEID	IQUANT	13	Cable ID
DCCALDATE	LABEL	7/31/2020	DC Calibration Date
ACCALDATE	LABEL	7/31/2020	AC Calibration Date
THERMOSELECT	IQUANT	1	Thermo Select
FRAMEWORKVERSION	QUANT	6.33	Framework Version
INSTRUMENTVERSION	LABEL	3.50	Instrument Version
COMPLIANCEVOLTAGE	IQUANT	0	Compliance Voltage
ZCURVE	TABLE
	Pt	Time	Freq	Zreal	Zimag	Zsig	Zmod	Zphz	Idc	Vdc	IERange
	#	s	Hz	ohm	ohm	V	ohm	°	A	V	#
	0	10	300046.9	2.059122	2.231205	1	3.036158	47.29688	-4.640166E-005	-0.000342	11
	1	13	238359.4	2.024559	1.774302	1	2.692023	41.23098	-0.000114	-0.0004274	11
	2	17	189328.1	2.077509	1.251872	1	2.425537	31.07246	-0.0001408	-1.385658E-005	12
	3	20	150421.9	2.030462	0.991627	1	2.259668	26.02972	-8.968697E-005	0.0002443	12
	4	24	119484.4	1.968632	0.8523161	1	2.145216	23.41013	-0.0001528	0.0002215	11
	5	26	94921.88	1.9638	0.6509908	1	2.068889	18.34012	-3.485775E-005	0.0004659	11
	6	29	75421.88	1.960983	0.4817587	1	2.019294	13.80262	5.76796E-007	0.0005337	11
	7	31	59859.37	1.960413	0.337519	1	1.989256	9.76869	-3.889621E-005	0.0005375	11
	8	34	47578.12	1.96369	0.2140097	1	1.975317	6.219743	-4.296258E-005	0.0006129	11
	9	36	37828.12	1.966847	0.1016775	1	1.969474	2.959311	1.481793E-005	0.0006767	11
	10	39	30046.88	1.9726	-0.0040546	1	1.972604	-0.1177685	-3.384617E-005	0.0006651	11
	11	41	23859.38	1.979293	-0.1090234	1	1.982293	-3.15278	-3.751779E-005	0.0006778	11
	12	44	18984.38	1.987812	-0.2170231	1	1.999624	-6.230698	-1.959739E-005	0.000691	11
	13	46	15046.87	1.998109	-0.3357598	1	2.026123	-9.5388	-4.008028E-005	0.0006627	11
	14	48	11953.13	2.012561	-0.4680431	1	2.066269	-13.09204	-8.35626E-006	0.0007036	11
	15	51	9515.62	2.029442	-0.6196379	1	2.121929	-16.97871	1.204807E-005	0.0007075	11
	16	53	7546.875	2.051516	-0.8018619	1	2.202658	-21.3487	-2.191816E-005	0.0007033	11
	17	55	5928.309	2.07871	-1.030293	1	2.32003	-26.36488	1.766456E-005	0.0007372	11
	18	58	4733.456	2.11131	-1.288881	1	2.47363	-31.40261	2.073461E-005	0.0007355	11
	19	60	3796.875	2.151241	-1.595496	1	2.678329	-36.56297	2.16786E-005	0.0007273	11
	20	62	2987.132	2.204617	-2.006627	1	2.981088	-42.30824	-2.594418E-005	0.0006881	11
	21	65	2390.625	2.268581	-2.474422	1	3.356967	-47.48501	-2.566601E-005	0.0007061	11
	22	67	1884.191	2.351902	-3.089083	1	3.882509	-52.71583	2.711098E-005	0.0007357	11
	23	69	1516.544	2.451687	-3.781285	1	4.506538	-57.04168	-8.679049E-006	0.0006685	10
	24	72	1193.986	2.585441	-4.714468	1	5.376868	-61.25939	1.802002E-005	0.0006616	10
	25	74	946.5144	2.746743	-5.835736	1	6.449838	-64.79475	-2.367553E-005	0.0006817	10
	26	76	751.7689	2.952928	-7.209896	1	7.791173	-67.72767	-9.459946E-006	0.0006694	10
	27	79	597.4265	3.202791	-8.895122	1	9.454156	-70.198	-3.522601E-006	0.0006826	10
	28	81	477.4305	3.514455	-10.91555	1	11.46737	-72.15311	-1.579015E-006	0.0006752	10
	29	83	376.6741	3.928735	-13.54995	1	14.10801	-73.83076	-1.819457E-006	0.0006796	10
	30	86	298.2954	4.446806	-16.759	1	17.33892	-75.13966	-1.749176E-006	0.0006753	10
	31	88	237.7717	5.089499	-20.59869	1	21.21813	-76.12139	-1.902692E-006	0.0006741	10
	32	90	189.0121	5.920839	-25.37151	1	26.05321	-76.86422	-2.500178E-006	0.0006823	10
	33	93	150.2404	6.996707	-31.23825	1	32.01222	-77.37532	-1.93848E-006	0.0006782	10
	34	95	119.1737	8.404757	-38.49395	1	39.40081	-77.68335	-1.584667E-006	0.0006788	10
	35	98	95.0169	10.18074	-47.09616	1	48.18398	-77.8021	1.146884E-006	7.542658E-005	9
	36	100	75.60484	12.51538	-57.69696	1	59.03875	-77.76125	1.157562E-006	7.817341E-005	9
	37	103	54.50582	17.03494	-76.84141	1	78.70699	-77.50027	1.066865E-006	7.278838E-005	9
	38	105	45.95588	20.05221	-89.05714	1	91.28672	-77.31082	1.32825E-006	7.791553E-005	9
	39	108	37.20238	24.53246	-106.708	1	109.4918	-77.05254	1.243024E-006	8.378458E-005	9
	40	110	30.04808	29.86038	-127.7597	1	131.2029	-76.84481	1.191855E-006	7.831935E-005	9
	41	112	23.91582	36.78925	-154.9812	1	159.2879	-76.64636	1.084912E-006	9.010281E-005	9
	42	115	18.60119	45.50504	-191.1412	1	196.4833	-76.60886	1.385201E-006	7.772042E-005	9
	43	117	15.02404	54.2956	-228.6774	1	235.0348	-76.6434	1.419442E-006	8.924332E-005	9
	44	119	12.01923	64.816	-275.9492	1	283.4591	-76.78175	1.066608E-006	7.911331E-005	9
	45	122	9.450605	77.77448	-338.3524	1	347.176	-77.05473	1.288721E-006	8.533685E-005	9
	46	124	7.512019	92.10013	-412.0935	1	422.2599	-77.40181	1.373407E-006	8.646965E-005	9
	47	127	5.978954	108.0651	-499.7161	1	511.2672	-77.79752	7.503978E-007	0.0006592	8
	48	130	4.734848	127.3762	-613.2295	1	626.3187	-78.26574	8.51321E-007	0.0006808	8
	49	133	3.75601	150.7772	-752.9546	1	767.9026	-78.67644	7.377333E-007	0.0006457	8
	50	137	3.004808	178.0294	-919.2021	1	936.2836	-79.03877	8.030227E-007	0.0006364	8
	51	140	2.372217	214.8573	-1137.472	1	1157.586	-79.30341	7.784161E-007	0.0006179	8
	52	145	1.878005	264.604	-1408.407	1	1433.048	-79.35961	7.158288E-007	0.0006567	8
	53	149	1.512097	322.0872	-1716.874	1	1746.824	-79.37476	7.287188E-007	0.0005526	8
	54	155	1.201923	406.5291	-2119.273	1	2157.912	-79.14116	7.123648E-007	0.0006716	8
	55	161	0.956633	517.9744	-2609.923	1	2660.826	-78.77474	7.029943E-007	1.17742E-005	8
