EXPLAIN
TAG	EISPOT
TITLE	LABEL	Potentiostatic EIS	Test Identifier
DATE	LABEL	10/5/2021	Date
TIME	LABEL	19:05:21	Time
NOTES	NOTES	1	Notes...
	
PSTAT	PSTAT	REF3000-16137	Potentiostat
VDC	POTEN	0.00000E+000	T	DC Voltage (V)
FREQINIT	QUANT	3.00000E+005	Initial Freq. (Hz)
FREQFINAL	QUANT	1.00000E+000	Final Freq. (Hz)
PTSPERDEC	QUANT	1.00000E+001	Points/decade
VAC	QUANT	5.00000E+001	AC Voltage (mV rms)
AREA	QUANT	1.00000E+000	Sample Area (cm^2)
SPEED	SELECTOR	2	Optimize for:
ZGUESS	QUANT	1.00000E+003	Estimated Z (ohms)
EOC	QUANT	0	Open Circuit (V)
SEQUENCER	TOGGLE	TRUE	Run as Sequence
PSTATMODEL	IQUANT	5	Pstat Model
PSTATSECTION	LABEL	REF3000-16137	Pstat Section
PSTATSERIALNO	LABEL	16137	Pstat Serial Number
CTRLMODE	IQUANT	1	Control Mode
IESTAB	IQUANT	0	I/E Stability
CASPEED	IQUANT	1	Control Amp Speed
CONVENTION	IQUANT	1	Current Convention
ICHRANGE	IQUANT	2	Ich Range
ICHRANGEMODE	TOGGLE	F	Ich Auto Range
ICHOFFSETENABLE	TOGGLE	T	Ich Offset Enable
ICHOFFSET	QUANT	0	Ich Offset (V)
ICHFILTER	IQUANT	3	Ich Filter
VCHRANGE	IQUANT	2	Vch Range
VCHRANGEMODE	TOGGLE	F	Vch Auto Range
VCHOFFSETENABLE	TOGGLE	T	Vch Offset Enable
VCHOFFSET	QUANT	0	Vch Offset (V)
VCHFILTER	IQUANT	3	Vch Filter
ACHRANGE	IQUANT	2	Ach Range
ACHOFFSETENABLE	TOGGLE	F	Ach Offset Enable
ACHOFFSET	QUANT	0	Ach Offset (V)
ACHFILTER	IQUANT	3	Ach Filter
IERANGELOWERLIMIT	IQUANT	2	I/E Range Lower Limit
IERANGEMODE	TOGGLE	F	I/E AutoRange
IERANGE	IQUANT	11	I/E Range
POSFEEDENABLE	TOGGLE	F	Positive Feedback IR Comp
POSFEEDRESISTANCE	QUANT	0	Positive Feedback Resistance (ohm)
ACHSELECT	IQUANT	0	Ach Select
CABLEID	IQUANT	13	Cable ID
DCCALDATE	LABEL	9/10/2021	DC Calibration Date
ACCALDATE	LABEL	9/10/2021	AC Calibration Date
THERMOSELECT	IQUANT	1	Thermo Select
FRAMEWORKVERSION	QUANT	6.33	Framework Version
INSTRUMENTVERSION	LABEL	3.50	Instrument Version
COMPLIANCEVOLTAGE	IQUANT	0	Compliance Voltage
ZCURVE	TABLE
	Pt	Time	Freq	Zreal	Zimag	Zsig	Zmod	Zphz	Idc	Vdc	IERange
	#	s	Hz	ohm	ohm	V	ohm	°	A	V	#
	0	18	300046.9	1444.517	-1822.349	1	2325.421	-51.59729	2.150895E-005	-0.0024925	9
	1	48	238359.4	1796.084	-2070.136	1	2740.69	-49.05455	2.748086E-005	-0.0018369	9
	2	70	189328.1	2193.721	-2267.365	1	3154.895	-45.94576	2.713272E-005	0.0007822	9
	3	79	150421.9	2726.273	-2370.133	1	3612.492	-41.00263	-5.647619E-006	-0.0019031	9
	4	90	119484.4	3287.123	-2353.286	1	4042.664	-35.59928	-8.623998E-005	0.0314834	8
	5	97	94921.88	3840.965	-2409.902	1	4534.384	-32.10502	-1.733865E-005	0.0007312	8
	6	104	75421.88	4321.251	-2374.035	1	4930.441	-28.78378	2.586478E-005	-0.0084303	8
	7	112	59859.37	4875.917	-2241.808	1	5366.588	-24.69162	-2.136467E-005	0.0028193	8
	8	119	47578.12	5355.66	-2077.587	1	5744.516	-21.20245	-2.399206E-005	0.0050208	8
	9	127	37828.12	5867.502	-1948.277	1	6182.505	-18.3685	-1.712929E-005	0.000653	8
	10	134	30046.88	6283.14	-1829.562	1	6544.092	-16.23482	2.613538E-005	-0.0084363	8
	11	142	23859.38	6658.503	-1668.241	1	6864.306	-14.06552	2.020722E-005	-0.0102089	8
	12	147	18984.38	7004.682	-1444.218	1	7152.017	-11.64994	2.3487E-005	-0.004277	8
	13	153	15046.87	7403.7	-1303.245	1	7517.527	-9.98329	-2.753874E-005	0.0005076	9
	14	159	11953.13	7678.565	-1153.066	1	7764.658	-8.540113	1.372273E-005	-0.0095317	8
	15	165	9515.62	8041.754	-986.597	1	8102.048	-6.994342	-9.197017E-007	0.0005493	9
	16	172	7546.875	8301.872	-712.0942	1	8332.356	-4.902554	2.501914E-006	0.0062177	7
	17	176	5928.309	8431.954	-610.004	1	8453.99	-4.137815	1.054808E-006	-0.0177978	7
	18	181	4733.456	8667.221	-473.3853	1	8680.139	-3.126268	6.57164E-006	-0.0218228	7
	19	185	3796.875	8865.024	-421.1779	1	8875.023	-2.720081	-6.317998E-006	0.0199722	7
	20	188	2987.132	9087.845	-322.5241	1	9093.566	-2.032552	5.87881E-006	-0.0241272	7
	21	193	2390.625	9233.544	-301.8173	1	9238.476	-1.872163	-4.756477E-006	0.0028145	7
	22	196	1884.191	9440.694	-354.8961	1	9447.362	-2.152858	4.395793E-007	0.0131855	7
	23	201	1516.544	9607.6	-193.6184	1	9609.55	-1.154504	2.955393E-006	-0.0219724	7
	24	205	1193.986	9794.89	-234.1189	1	9797.69	-1.369231	-5.977078E-006	0.0102696	7
	25	209	946.5144	9984.24	-182.9525	1	9985.92	-1.049778	2.904762E-006	-0.021964	7
	26	212	751.7689	10131.83	-147.4567	1	10132.9	-0.8338133	-3.213295E-006	0.0213754	7
	27	215	597.4265	10108.32	-80.25058	1	10108.63	-0.4548654	4.686807E-007	0.013141	7
	28	217	477.4305	10348.25	-133.122	1	10349.1	-0.737024	-1.205883E-007	-9.227246E-005	7
	29	220	376.6741	10460.65	-127.4137	1	10461.42	-0.6978445	-1.148624E-007	-0.0001204	7
	30	222	298.2954	10576.63	-129.2498	1	10577.42	-0.7001377	-1.272604E-007	-6.71426E-005	7
	31	224	237.7717	10697.14	-133.9204	1	10697.98	-0.7172642	-1.128384E-007	-7.197564E-005	7
	32	227	189.0121	10824.27	-146.1785	1	10825.25	-0.7737154	-1.19629E-007	-0.0001485	7
	33	229	150.2404	10950.21	-162.797	1	10951.42	-0.8517551	-1.208604E-007	-8.488072E-005	7
	34	232	119.1737	11079.31	-191.7364	1	11080.97	-0.99145	-1.279515E-007	-0.0001185	7
	35	234	95.0169	11213.46	-218.7688	1	11215.59	-1.117669	-1.105085E-007	-7.335445E-005	7
	36	236	75.60484	11354.52	-258.9065	1	11357.47	-1.306235	-1.161079E-007	-0.0001292	7
	37	239	54.50582	11511.22	-331.4553	1	11515.99	-1.649325	-1.049721E-007	-0.0001191	7
	38	241	45.95588	11647.95	-382.4121	1	11654.22	-1.880394	-1.430558E-007	-0.0001118	7
	39	244	37.20238	11789.75	-462.1422	1	11798.8	-2.244768	-1.482501E-007	-0.0001251	7
	40	246	30.04808	11947.86	-550.9843	1	11960.56	-2.640366	-1.395538E-007	-0.0001399	7
	41	249	23.91582	12098.84	-669.8758	1	12117.37	-3.169055	-1.123812E-007	-0.0001069	7
	42	251	18.60119	12273.42	-836.6036	1	12301.9	-3.89947	-9.389066E-008	-0.0001458	7
	43	253	15.02404	12439.35	-1009.614	1	12480.25	-4.640121	-1.519202E-007	-0.0001455	7
	44	256	12.01923	12634.74	-1211.05	1	12692.64	-5.47512	-5.084742E-008	-6.701699E-005	7
	45	258	9.450605	12829.69	-1506.056	1	12917.78	-6.695215	-9.695231E-008	-0.0001603	7
	46	261	7.512019	13047.39	-1832.477	1	13175.45	-7.994767	-6.009775E-008	-8.714623E-005	7
	47	263	5.978954	13319.29	-2253.095	1	13508.51	-9.60128	-6.66977E-008	-0.0001173	7
	48	266	4.734848	13680.61	-2768.199	1	13957.87	-11.43905	-1.304346E-007	-0.0001648	7
	49	270	3.75601	14066.87	-3376.183	1	14466.36	-13.49625	-8.412011E-008	-6.011115E-005	7
	50	273	3.004808	14476.07	-4066.103	1	15036.29	-15.68922	-1.238086E-007	-3.84444E-005	7
	51	277	2.372217	15039.47	-4971.471	1	15839.86	-18.29191	-7.995411E-008	-0.0001076	7
	52	281	1.878005	15663.97	-6034.928	1	16786.31	-21.0704	-8.416311E-008	-0.0001293	7
	53	286	1.512097	16366	-7210.275	1	17883.91	-23.77657	-9.459204E-008	-5.25346E-005	7
	54	291	1.201923	17212.33	-8750.379	1	19308.9	-26.9478	-9.801707E-008	-0.0001012	7
	55	297	0.956633	18222.68	-10566.47	1	21064.57	-30.10743	-1.30406E-007	-0.0006552	7
