EXPLAIN
TAG	EISPOT
TITLE	LABEL	Potentiostatic EIS	Test Identifier
DATE	LABEL	10/5/2021	Date
TIME	LABEL	19:10:28	Time
NOTES	NOTES	1	Notes...
	
PSTAT	PSTAT	REF3000-16137	Potentiostat
VDC	POTEN	0.00000E+000	T	DC Voltage (V)
FREQINIT	QUANT	3.00000E+005	Initial Freq. (Hz)
FREQFINAL	QUANT	1.00000E+000	Final Freq. (Hz)
PTSPERDEC	QUANT	1.00000E+001	Points/decade
VAC	QUANT	5.00000E+001	AC Voltage (mV rms)
AREA	QUANT	1.00000E+000	Sample Area (cm^2)
SPEED	SELECTOR	2	Optimize for:
ZGUESS	QUANT	1.00000E+003	Estimated Z (ohms)
EOC	QUANT	0	Open Circuit (V)
SEQUENCER	TOGGLE	TRUE	Run as Sequence
PSTATMODEL	IQUANT	5	Pstat Model
PSTATSECTION	LABEL	REF3000-16137	Pstat Section
PSTATSERIALNO	LABEL	16137	Pstat Serial Number
CTRLMODE	IQUANT	1	Control Mode
IESTAB	IQUANT	0	I/E Stability
CASPEED	IQUANT	1	Control Amp Speed
CONVENTION	IQUANT	1	Current Convention
ICHRANGE	IQUANT	2	Ich Range
ICHRANGEMODE	TOGGLE	F	Ich Auto Range
ICHOFFSETENABLE	TOGGLE	T	Ich Offset Enable
ICHOFFSET	QUANT	0	Ich Offset (V)
ICHFILTER	IQUANT	3	Ich Filter
VCHRANGE	IQUANT	2	Vch Range
VCHRANGEMODE	TOGGLE	F	Vch Auto Range
VCHOFFSETENABLE	TOGGLE	T	Vch Offset Enable
VCHOFFSET	QUANT	0	Vch Offset (V)
VCHFILTER	IQUANT	3	Vch Filter
ACHRANGE	IQUANT	2	Ach Range
ACHOFFSETENABLE	TOGGLE	F	Ach Offset Enable
ACHOFFSET	QUANT	0	Ach Offset (V)
ACHFILTER	IQUANT	3	Ach Filter
IERANGELOWERLIMIT	IQUANT	2	I/E Range Lower Limit
IERANGEMODE	TOGGLE	F	I/E AutoRange
IERANGE	IQUANT	11	I/E Range
POSFEEDENABLE	TOGGLE	F	Positive Feedback IR Comp
POSFEEDRESISTANCE	QUANT	0	Positive Feedback Resistance (ohm)
ACHSELECT	IQUANT	0	Ach Select
CABLEID	IQUANT	13	Cable ID
DCCALDATE	LABEL	9/10/2021	DC Calibration Date
ACCALDATE	LABEL	9/10/2021	AC Calibration Date
THERMOSELECT	IQUANT	1	Thermo Select
FRAMEWORKVERSION	QUANT	6.33	Framework Version
INSTRUMENTVERSION	LABEL	3.50	Instrument Version
COMPLIANCEVOLTAGE	IQUANT	0	Compliance Voltage
ZCURVE	TABLE
	Pt	Time	Freq	Zreal	Zimag	Zsig	Zmod	Zphz	Idc	Vdc	IERange
	#	s	Hz	ohm	ohm	V	ohm	°	A	V	#
	0	20	300046.9	900.513	-3034.017	1	3164.835	-73.46882	-8.131631E-005	0.0034895	9
	1	35	238359.4	1256.164	-3636.443	1	3847.293	-70.94316	8.126706E-005	-0.0036852	9
	2	52	189328.1	1399.246	-4098.251	1	4330.537	-71.14881	2.753969E-005	-0.0021292	9
	3	64	150421.9	2245.261	-4908.727	1	5397.852	-65.42056	8.837942E-005	-0.0030168	9
	4	73	119484.4	3011.728	-6200.494	1	6893.231	-64.09305	7.808606E-005	-0.0017507	9
	5	81	94921.88	4183.084	-7138.659	1	8273.974	-59.63071	-3.347922E-006	-0.0053014	8
	6	89	75421.88	5311.41	-8179.894	1	9753.04	-57.00333	-2.747153E-005	0.000495	9
	7	98	59859.37	6948.95	-9457.863	1	11736.23	-53.69426	-1.761128E-005	0.00051	8
	8	106	47578.12	8875.939	-10827.8	1	14000.84	-50.6573	-1.836612E-007	0.0062946	8
	9	114	37828.12	12431.33	-10861.05	1	16507.59	-41.14317	6.201322E-006	-0.0261105	7
	10	120	30046.88	14721.02	-11328.43	1	18575.3	-37.57977	2.828558E-006	0.005835	7
	11	127	23859.38	17166.35	-11648.08	1	20745.15	-34.15851	-6.768317E-006	0.0219583	7
	12	131	18984.38	19690.15	-11478.96	1	22791.86	-30.24133	8.269166E-007	0.0129289	7
	13	135	15046.87	22089.61	-11137.28	1	24738.43	-26.75663	-6.769511E-006	0.0220578	7
	14	139	11953.13	24452.39	-10664.82	1	26676.91	-23.56425	-6.761873E-006	0.0220239	7
	15	145	9515.62	26965.65	-9998.9	1	28759.77	-20.34486	-6.628686E-006	0.0221896	7
	16	150	7546.875	28452.59	-10071.5	1	30182.52	-19.49268	-2.50613E-005	0.0002792	9
	17	156	5928.309	27279.07	-9801.46	1	28986.49	-19.76354	2.396614E-005	-0.004159	8
	18	163	4733.456	32207.39	-8423.496	1	33290.71	-14.65679	2.133131E-005	-0.0106026	8
	19	169	3796.875	34006.21	-7528.726	1	34829.64	-12.48351	1.009376E-005	0.002726	8
	20	177	2987.132	36622.9	-5921.837	1	37098.58	-9.185093	6.218099E-006	-0.0263494	7
	21	182	2390.625	38122.77	-5568.969	1	38527.38	-8.310974	2.880029E-006	0.0058036	7
	22	188	1884.191	38211.6	-4076.112	1	38428.39	-6.088837	-2.191817E-005	0.0026907	8
	23	194	1516.544	42145.66	-5140.876	1	42458.04	-6.954515	-1.859228E-005	0.0104851	8
	24	200	1193.986	43809.1	-3020.462	1	43913.1	-3.944072	7.728809E-007	-0.0186504	7
	25	206	946.5144	45322.7	-3423.075	1	45451.78	-4.319162	4.940333E-006	-0.0029869	7
	26	210	751.7689	44710.25	-632.4799	1	44714.72	-0.8104633	7.166299E-007	-0.0186151	7
	27	214	597.4265	45244.01	-1142.888	1	45258.44	-1.447014	-1.327285E-006	0.0192568	7
	28	217	477.4305	47499.3	-1928.008	1	47538.42	-2.324374	-1.262163E-007	-9.157792E-005	7
	29	220	376.6741	48285.94	-1062.117	1	48297.62	-1.260098	-1.703499E-008	-0.0001005	6
	30	222	298.2954	48954.67	-927.8591	1	48963.46	-1.085822	-1.738248E-008	-0.0001457	6
	31	224	237.7717	49597.86	-808.5727	1	49604.45	-0.9339858	-1.563807E-008	-0.000098	6
	32	227	189.0121	50263.51	-725.144	1	50268.74	-0.8265401	-1.663509E-008	-0.0001181	6
	33	229	150.2404	50974.34	-669.9876	1	50978.75	-0.7530308	-1.648451E-008	-0.0001911	6
	34	232	119.1737	51526.3	-619.4539	1	51530.02	-0.6887819	-1.533973E-008	-9.353354E-005	6
	35	234	95.0169	52367.75	-605.569	1	52371.25	-0.6625261	-1.757617E-008	-0.0001058	6
	36	236	75.60484	53109	-580.7085	1	53112.18	-0.6264629	-1.336831E-008	-0.0001764	6
	37	239	54.50582	53796.4	-698.554	1	53800.94	-0.7439521	-1.276533E-008	-0.0001243	6
	38	241	45.95588	54607.19	-653.0059	1	54611.09	-0.685124	-1.873676E-008	-0.0001776	6
	39	244	37.20238	55351.08	-736.5718	1	55355.98	-0.7624055	-1.754608E-008	-0.0001478	6
	40	246	30.04808	56154.39	-832.9209	1	56160.57	-0.8497884	-1.751783E-008	-0.0001543	6
	41	249	23.91582	57025.18	-911.1837	1	57032.46	-0.9154297	-1.315576E-008	-0.0001732	6
	42	251	18.60119	57803.21	-1040.601	1	57812.58	-1.031355	-7.006064E-009	-0.0000998	6
	43	254	15.02404	58575.68	-1339.93	1	58591.01	-1.310423	-1.14542E-008	-0.0001111	6
	44	256	12.01923	59433.87	-1584.756	1	59455	-1.527383	-1.945194E-008	-0.0000951	6
	45	259	9.450605	60355.89	-1948.464	1	60387.34	-1.849033	-1.996968E-008	-0.000154	6
	46	261	7.512019	61394.43	-2384.168	1	61440.71	-2.223885	-2.316361E-008	-0.0001308	6
	47	264	5.978954	62622.19	-2871.69	1	62688	-2.625596	-8.34198E-009	-0.0001218	6
	48	268	4.734848	63961.6	-3562.279	1	64060.72	-3.18774	-2.778839E-008	-0.0001959	6
	49	271	3.75601	65783.53	-4305.874	1	65924.3	-3.744964	-7.455812E-009	-0.0001775	6
	50	277	3.004808	68040.12	-5261.913	1	68243.28	-4.422193	-3.241613E-009	-0.0001301	6
	51	282	2.372217	70128.79	-6349.994	1	70415.69	-5.173887	-1.525454E-008	-0.0002181	6
	52	287	1.878005	72224.91	-7914.011	1	72657.21	-6.253211	-5.845389E-009	-0.000135	6
	53	291	1.512097	74724.08	-9630.51	1	75342.12	-7.343854	-2.007944E-009	-0.0002286	6
	54	297	1.201923	77685.2	-11609.84	1	78547.94	-8.499788	-1.565739E-008	-0.0001217	6
	55	303	0.956633	81373.28	-14282.78	1	82617.24	-9.95525	-2.755995E-008	-0.0006893	6
