EXPLAIN
TAG	EISPOT
TITLE	LABEL	Potentiostatic EIS	Test Identifier
DATE	LABEL	10/5/2021	Date
TIME	LABEL	17:32:17	Time
NOTES	NOTES	1	Notes...
	
PSTAT	PSTAT	REF3000-16137	Potentiostat
VDC	POTEN	0.00000E+000	T	DC Voltage (V)
FREQINIT	QUANT	3.00000E+005	Initial Freq. (Hz)
FREQFINAL	QUANT	1.00000E+000	Final Freq. (Hz)
PTSPERDEC	QUANT	1.00000E+001	Points/decade
VAC	QUANT	5.00000E+001	AC Voltage (mV rms)
AREA	QUANT	1.00000E+000	Sample Area (cm^2)
SPEED	SELECTOR	2	Optimize for:
ZGUESS	QUANT	1.00000E+003	Estimated Z (ohms)
EOC	QUANT	0	Open Circuit (V)
SEQUENCER	TOGGLE	TRUE	Run as Sequence
PSTATMODEL	IQUANT	5	Pstat Model
PSTATSECTION	LABEL	REF3000-16137	Pstat Section
PSTATSERIALNO	LABEL	16137	Pstat Serial Number
CTRLMODE	IQUANT	1	Control Mode
IESTAB	IQUANT	0	I/E Stability
CASPEED	IQUANT	1	Control Amp Speed
CONVENTION	IQUANT	1	Current Convention
ICHRANGE	IQUANT	2	Ich Range
ICHRANGEMODE	TOGGLE	F	Ich Auto Range
ICHOFFSETENABLE	TOGGLE	T	Ich Offset Enable
ICHOFFSET	QUANT	0	Ich Offset (V)
ICHFILTER	IQUANT	3	Ich Filter
VCHRANGE	IQUANT	2	Vch Range
VCHRANGEMODE	TOGGLE	F	Vch Auto Range
VCHOFFSETENABLE	TOGGLE	T	Vch Offset Enable
VCHOFFSET	QUANT	0	Vch Offset (V)
VCHFILTER	IQUANT	3	Vch Filter
ACHRANGE	IQUANT	2	Ach Range
ACHOFFSETENABLE	TOGGLE	F	Ach Offset Enable
ACHOFFSET	QUANT	0	Ach Offset (V)
ACHFILTER	IQUANT	3	Ach Filter
IERANGELOWERLIMIT	IQUANT	2	I/E Range Lower Limit
IERANGEMODE	TOGGLE	F	I/E AutoRange
IERANGE	IQUANT	11	I/E Range
POSFEEDENABLE	TOGGLE	F	Positive Feedback IR Comp
POSFEEDRESISTANCE	QUANT	0	Positive Feedback Resistance (ohm)
ACHSELECT	IQUANT	0	Ach Select
CABLEID	IQUANT	13	Cable ID
DCCALDATE	LABEL	9/10/2021	DC Calibration Date
ACCALDATE	LABEL	9/10/2021	AC Calibration Date
THERMOSELECT	IQUANT	1	Thermo Select
FRAMEWORKVERSION	QUANT	6.33	Framework Version
INSTRUMENTVERSION	LABEL	3.50	Instrument Version
COMPLIANCEVOLTAGE	IQUANT	0	Compliance Voltage
ZCURVE	TABLE
	Pt	Time	Freq	Zreal	Zimag	Zsig	Zmod	Zphz	Idc	Vdc	IERange
	#	s	Hz	ohm	ohm	V	ohm	°	A	V	#
	0	9	300046.9	1.928219	2.00512	1	2.781823	46.12005	-0.0002539	0.000124	12
	1	14	238359.4	1.805199	1.600559	1	2.412577	41.56144	-0.0001179	-0.0010699	12
	2	18	189328.1	1.731651	1.263882	1	2.143831	36.12461	-0.0001916	-0.0008467	12
	3	21	150421.9	1.629369	1.075356	1	1.952238	33.42414	-0.0001733	-0.0003209	11
	4	24	119484.4	1.623927	0.8305352	1	1.823987	27.08685	-0.0001458	-1.113602E-005	11
	5	27	94921.88	1.618993	0.6229103	1	1.734692	21.04432	-2.087721E-005	0.000099	11
	6	29	75421.88	1.618795	0.4488963	1	1.679882	15.49884	-3.418476E-005	0.0001101	11
	7	32	59859.37	1.624695	0.3020565	1	1.652535	10.53194	-5.715149E-005	0.0002073	11
	8	34	47578.12	1.631605	0.1735004	1	1.640804	6.069865	-7.318154E-005	0.0002163	11
	9	37	37828.12	1.643828	0.0585857	1	1.644872	2.041146	-5.916686E-005	0.0002946	11
	10	39	30046.88	1.658592	-0.0495829	1	1.659333	-1.712322	-7.498993E-005	0.0003106	11
	11	42	23859.38	1.675601	-0.1551207	1	1.682766	-5.289148	-7.588443E-005	0.0003034	11
	12	44	18984.38	1.697072	-0.2609304	1	1.717014	-8.740965	-4.948828E-005	0.0003563	11
	13	46	15046.87	1.721931	-0.3745653	1	1.7622	-12.27216	-3.168493E-005	0.0003639	11
	14	49	11953.13	1.749066	-0.4977005	1	1.818499	-15.88381	-8.099348E-005	0.0003216	11
	15	51	9515.62	1.779791	-0.6357123	1	1.889917	-19.6559	-1.952962E-005	0.0003794	11
	16	53	7546.875	1.814977	-0.7997647	1	1.983372	-23.78056	-4.990998E-005	0.0003644	11
	17	56	5928.309	1.854586	-1.002757	1	2.108319	-28.39967	-3.065374E-005	0.0003546	11
	18	58	4733.456	1.896805	-1.23213	1	2.261861	-33.00702	-4.412913E-005	0.0003672	11
	19	60	3796.875	1.944074	-1.504632	1	2.45832	-37.73837	-2.742744E-005	0.0003249	11
	20	63	2987.132	2.00282	-1.869398	1	2.739697	-43.02658	-1.929961E-005	0.0003793	11
	21	65	2390.625	2.068043	-2.288646	1	3.084591	-47.89872	-3.668822E-005	0.0003806	11
	22	67	1884.191	2.155515	-2.840046	1	3.565404	-52.80252	-8.120984E-005	0.0003352	11
	23	69	1516.544	2.257442	-3.462732	1	4.133588	-56.89866	4.994546E-006	-0.0001483	10
	24	72	1193.986	2.397525	-4.306017	1	4.928479	-60.8916	5.551484E-006	-0.0001479	10
	25	74	946.5144	2.572552	-5.322148	1	5.911285	-64.20239	8.563346E-006	-0.0001385	10
	26	77	751.7689	2.806097	-6.559141	1	7.134179	-66.83805	-3.313902E-006	-0.0001554	10
	27	79	597.4265	3.101022	-8.075282	1	8.650232	-68.99251	-2.606353E-005	-0.0001338	10
	28	81	477.4305	3.488806	-9.88892	1	10.4863	-70.56718	-1.875817E-006	-0.0001308	10
	29	84	376.6741	4.025347	-12.2242	1	12.8699	-71.77363	-2.672597E-006	-0.0001363	10
	30	86	298.2954	4.726585	-15.03728	1	15.76263	-72.55079	-2.141393E-006	-0.0001294	10
	31	88	237.7717	5.629493	-18.35401	1	19.19794	-72.94832	-2.342638E-006	-0.0001323	10
	32	91	189.0121	6.835599	-22.40436	1	23.42394	-73.03299	-2.188918E-006	-0.0001296	10
	33	93	150.2404	8.428955	-27.26649	1	28.5396	-72.82193	-2.278106E-006	-0.0001258	10
	34	96	119.1737	10.54587	-33.14067	1	34.77815	-72.34813	-2.856672E-006	-0.0001294	10
	35	98	95.0169	13.24099	-39.94046	1	42.07807	-71.6587	-2.767282E-006	-0.000133	10
	36	100	75.60484	16.73213	-47.95781	1	50.79287	-70.76649	-1.117346E-006	-0.0001518	9
	37	103	54.50582	23.54308	-61.92327	1	66.24777	-69.18331	-1.259913E-006	-0.0001503	9
	38	106	45.95588	28.14683	-70.51096	1	75.92127	-68.23892	-1.017985E-006	-0.0001389	9
	39	108	37.20238	35.12	-82.48556	1	89.65089	-66.93707	-5.746247E-007	-0.000145	9
	40	110	30.04808	43.82792	-96.1831	1	105.698	-65.50258	-1.415127E-006	-0.0001376	9
	41	113	23.91582	55.73336	-112.8015	1	125.8189	-63.70678	-1.572564E-006	-0.0001456	9
	42	115	18.60119	72.47416	-133.2616	1	151.6943	-61.46049	-1.31423E-006	-0.0001333	9
	43	117	15.02404	90.58337	-152.1938	1	177.111	-59.23956	-1.16984E-006	-0.0001783	9
	44	120	12.01923	113.9594	-172.468	1	206.7171	-56.545	-6.000938E-007	-0.0001416	9
	45	122	9.450605	144.6081	-193.9452	1	241.922	-53.29131	-8.594813E-007	-0.0001288	9
	46	125	7.512019	179.3614	-212.7378	1	278.2587	-49.86542	-9.151885E-007	-0.0001348	9
	47	127	5.978954	217.7128	-228.3227	1	315.4839	-46.36264	-9.643379E-007	-0.000138	9
	48	130	4.734848	260.515	-239.8695	1	354.1263	-42.63736	-7.504489E-007	-0.0001622	9
	49	134	3.75601	303.4494	-245.9833	1	390.6269	-39.02904	-3.057341E-007	-0.0001193	8
	50	137	3.004808	345.6296	-248.6893	1	425.8006	-35.73597	3.319132E-007	-0.0001911	8
	51	141	2.372217	390.0245	-247.4769	1	461.9133	-32.3958	-6.75972E-007	-0.0001861	8
	52	145	1.878005	431.1432	-242.4764	1	494.6507	-29.35355	-5.289198E-007	-0.0001204	8
	53	150	1.512097	466.6722	-237.2814	1	523.5317	-26.95125	-2.883623E-007	-0.0002305	8
	54	155	1.201923	502.3651	-230.9648	1	552.9153	-24.69084	-7.696786E-007	-0.0001321	8
	55	161	0.956633	535.4062	-225.0655	1	580.7877	-22.80014	-1.616647E-006	-0.0006717	8
