EXPLAIN
TAG	EISPOT
TITLE	LABEL	Potentiostatic EIS	Test Identifier
DATE	LABEL	10/5/2021	Date
TIME	LABEL	18:06:25	Time
NOTES	NOTES	1	Notes...
	
PSTAT	PSTAT	REF3000-16137	Potentiostat
VDC	POTEN	0.00000E+000	T	DC Voltage (V)
FREQINIT	QUANT	3.00000E+005	Initial Freq. (Hz)
FREQFINAL	QUANT	1.00000E+000	Final Freq. (Hz)
PTSPERDEC	QUANT	1.00000E+001	Points/decade
VAC	QUANT	5.00000E+001	AC Voltage (mV rms)
AREA	QUANT	1.00000E+000	Sample Area (cm^2)
SPEED	SELECTOR	2	Optimize for:
ZGUESS	QUANT	1.00000E+003	Estimated Z (ohms)
EOC	QUANT	0	Open Circuit (V)
SEQUENCER	TOGGLE	TRUE	Run as Sequence
PSTATMODEL	IQUANT	5	Pstat Model
PSTATSECTION	LABEL	REF3000-16137	Pstat Section
PSTATSERIALNO	LABEL	16137	Pstat Serial Number
CTRLMODE	IQUANT	1	Control Mode
IESTAB	IQUANT	0	I/E Stability
CASPEED	IQUANT	1	Control Amp Speed
CONVENTION	IQUANT	1	Current Convention
ICHRANGE	IQUANT	2	Ich Range
ICHRANGEMODE	TOGGLE	F	Ich Auto Range
ICHOFFSETENABLE	TOGGLE	T	Ich Offset Enable
ICHOFFSET	QUANT	0	Ich Offset (V)
ICHFILTER	IQUANT	3	Ich Filter
VCHRANGE	IQUANT	2	Vch Range
VCHRANGEMODE	TOGGLE	F	Vch Auto Range
VCHOFFSETENABLE	TOGGLE	T	Vch Offset Enable
VCHOFFSET	QUANT	0	Vch Offset (V)
VCHFILTER	IQUANT	3	Vch Filter
ACHRANGE	IQUANT	2	Ach Range
ACHOFFSETENABLE	TOGGLE	F	Ach Offset Enable
ACHOFFSET	QUANT	0	Ach Offset (V)
ACHFILTER	IQUANT	3	Ach Filter
IERANGELOWERLIMIT	IQUANT	2	I/E Range Lower Limit
IERANGEMODE	TOGGLE	F	I/E AutoRange
IERANGE	IQUANT	11	I/E Range
POSFEEDENABLE	TOGGLE	F	Positive Feedback IR Comp
POSFEEDRESISTANCE	QUANT	0	Positive Feedback Resistance (ohm)
ACHSELECT	IQUANT	0	Ach Select
CABLEID	IQUANT	13	Cable ID
DCCALDATE	LABEL	9/10/2021	DC Calibration Date
ACCALDATE	LABEL	9/10/2021	AC Calibration Date
THERMOSELECT	IQUANT	1	Thermo Select
FRAMEWORKVERSION	QUANT	6.33	Framework Version
INSTRUMENTVERSION	LABEL	3.50	Instrument Version
COMPLIANCEVOLTAGE	IQUANT	0	Compliance Voltage
ZCURVE	TABLE
	Pt	Time	Freq	Zreal	Zimag	Zsig	Zmod	Zphz	Idc	Vdc	IERange
	#	s	Hz	ohm	ohm	V	ohm	°	A	V	#
	0	10	300046.9	3.639859	2.204145	1	4.255211	31.19733	2.36901E-005	-0.0008167	10
	1	13	238359.4	3.621176	1.755444	1	4.024239	25.8628	-2.713728E-005	-0.0012508	10
	2	16	189328.1	3.608322	1.368701	1	3.859188	20.77263	2.716629E-005	-0.0009662	10
	3	19	150421.9	3.606861	1.073003	1	3.763082	16.56718	-1.404112E-005	-0.0006251	10
	4	21	119484.4	3.601811	0.8102984	1	3.691832	12.67873	-0.000099	-0.000514	10
	5	24	94921.88	3.608788	0.6057236	1	3.659269	9.5281	2.078646E-005	-0.0003681	10
	6	26	75421.88	3.614017	0.4217355	1	3.638541	6.655993	3.414119E-005	-0.0003557	10
	7	29	59859.37	3.624954	0.2634533	1	3.634515	4.156817	-1.027505E-005	-0.000243	10
	8	32	47578.12	3.637104	0.1204006	1	3.639096	1.895993	-1.606763E-007	-0.0002484	10
	9	34	37828.12	3.653831	-0.0133095	1	3.653855	-0.2087058	2.369724E-005	-0.0002128	10
	10	37	30046.88	3.674143	-0.1447943	1	3.676995	-2.256801	1.294305E-005	-0.0001939	10
	11	39	23859.38	3.700494	-0.2788024	1	3.710981	-4.308635	-9.403586E-006	-0.0001779	10
	12	42	18984.38	3.733305	-0.4196868	1	3.756821	-6.414087	2.621209E-006	-0.0001782	10
	13	44	15046.87	3.773866	-0.5752463	1	3.817457	-8.66682	-1.92184E-005	-0.0001104	10
	14	46	11953.13	3.822705	-0.7475593	1	3.895115	-11.06499	1.689355E-006	-0.0001451	10
	15	48	9515.62	3.880826	-0.9418819	1	3.993488	-13.64199	2.114553E-005	-0.0001566	10
	16	51	7546.875	3.953031	-1.170755	1	4.122756	-16.49752	-6.313954E-006	-0.0001606	10
	17	53	5928.309	4.040663	-1.448249	1	4.292363	-19.71862	-1.993316E-005	-0.0001152	10
	18	55	4733.456	4.13579	-1.753132	1	4.492019	-22.97175	1.869741E-005	-0.0001566	10
	19	58	3796.875	4.241076	-2.106438	1	4.735378	-26.41246	3.717391E-006	-0.0001509	10
	20	60	2987.132	4.370496	-2.568049	1	5.069133	-30.43797	-2.608557E-005	-0.0001163	10
	21	62	2390.625	4.503888	-3.086795	1	5.460156	-34.42527	2.246221E-005	-0.0001304	10
	22	65	1884.191	4.662094	-3.759429	1	5.989026	-38.88208	-1.694243E-005	-0.0001317	10
	23	67	1516.544	4.822265	-4.511389	1	6.603549	-43.09235	2.105139E-005	-0.0001497	10
	24	69	1193.986	5.020639	-5.53181	1	7.470458	-47.7733	-1.526696E-005	-0.0001671	10
	25	72	946.5144	5.241758	-6.761545	1	8.555379	-52.21605	-2.082651E-005	-0.0001022	10
	26	74	751.7689	5.491748	-8.282178	1	9.93749	-56.45243	5.608097E-006	-0.00014	10
	27	76	597.4265	5.800074	-10.16117	1	11.70001	-60.28194	-2.444104E-005	-0.0001223	10
	28	79	477.4305	6.169667	-12.42704	1	13.8743	-63.59693	-9.800126E-007	-0.0001253	10
	29	81	376.6741	6.653848	-15.38756	1	16.76457	-66.61552	-1.400987E-006	-0.000124	10
	30	83	298.2954	7.262604	-19.00836	1	20.34854	-69.08943	-1.532926E-006	-0.000123	10
	31	86	237.7717	8.023503	-23.34973	1	24.68981	-71.0361	-1.550858E-006	-0.0001228	10
	32	88	189.0121	9.024432	-28.75571	1	30.13854	-72.57653	-1.473291E-006	-0.0001183	10
	33	91	150.2404	10.32681	-35.39252	1	36.86833	-73.73384	-1.890177E-006	-0.0001204	10
	34	93	119.1737	12.04076	-43.56156	1	45.19501	-74.54878	7.089756E-007	-0.0001372	9
	35	95	95.0169	14.26622	-53.3665	1	55.24046	-75.03335	5.994266E-007	-0.0001377	9
	36	98	75.60484	17.22881	-65.40121	1	67.63247	-75.24172	8.933417E-007	-0.0001833	9
	37	100	54.50582	23.20915	-87.19855	1	90.23442	-75.09545	4.665973E-007	-0.0001432	9
	38	103	45.95588	27.41167	-101.1095	1	104.7594	-74.83122	7.474845E-007	-0.0001321	9
	39	105	37.20238	33.98232	-121.1908	1	125.8651	-74.33633	8.617648E-007	-0.0001477	9
	40	108	30.04808	42.52824	-145.0889	1	151.1934	-73.66316	4.705203E-007	-0.0001369	9
	41	110	23.91582	54.30747	-175.2685	1	183.4894	-72.78425	3.935224E-007	-0.0001424	9
	42	112	18.60119	71.08692	-214.48	1	225.9536	-71.66282	1.063313E-006	-0.00014	9
	43	115	15.02404	89.55877	-253.8066	1	269.1442	-70.56399	7.255784E-007	-0.0001429	9
	44	117	12.01923	113.8541	-301.4225	1	322.2084	-69.30731	1.057555E-006	-0.0001353	9
	45	119	9.450605	147.0774	-360.8745	1	389.695	-67.82625	3.631212E-007	-0.0001329	9
	46	122	7.512019	186.8783	-424.7978	1	464.0869	-66.2542	1.621126E-007	-0.0001249	8
	47	125	5.978954	237.2055	-498.5945	1	552.1439	-64.55731	2.381485E-007	-0.0001209	8
	48	128	4.734848	303.0992	-583.3011	1	657.3502	-62.54238	3.64444E-007	-0.0001426	8
	49	131	3.75601	385.1683	-675.4901	1	777.587	-60.30796	6.797516E-007	-0.0001094	8
	50	134	3.004808	481.9882	-768.9194	1	907.4964	-57.91894	9.274949E-007	-0.0001525	8
	51	138	2.372217	607.6259	-870.6733	1	1061.735	-55.08957	5.451748E-007	-0.0001914	8
	52	142	1.878005	751.4322	-967.662	1	1225.161	-52.16908	6.615857E-007	-0.0001099	8
	53	147	1.512097	902.1625	-1052.965	1	1386.59	-49.4106	7.130972E-007	-0.0002256	8
	54	153	1.201923	1078.016	-1138.774	1	1568.096	-46.56998	5.353077E-007	-0.0000992	8
	55	159	0.956633	1263.917	-1217.417	1	1754.876	-43.9264	3.91226E-007	-0.0006683	8
