EXPLAIN
TAG	EISPOT
TITLE	LABEL	Potentiostatic EIS	Test Identifier
DATE	LABEL	10/5/2021	Date
TIME	LABEL	18:39:57	Time
NOTES	NOTES	1	Notes...
	
PSTAT	PSTAT	REF3000-16137	Potentiostat
VDC	POTEN	0.00000E+000	T	DC Voltage (V)
FREQINIT	QUANT	3.00000E+005	Initial Freq. (Hz)
FREQFINAL	QUANT	1.00000E+000	Final Freq. (Hz)
PTSPERDEC	QUANT	1.00000E+001	Points/decade
VAC	QUANT	5.00000E+001	AC Voltage (mV rms)
AREA	QUANT	1.00000E+000	Sample Area (cm^2)
SPEED	SELECTOR	2	Optimize for:
ZGUESS	QUANT	1.00000E+003	Estimated Z (ohms)
EOC	QUANT	0	Open Circuit (V)
SEQUENCER	TOGGLE	TRUE	Run as Sequence
PSTATMODEL	IQUANT	5	Pstat Model
PSTATSECTION	LABEL	REF3000-16137	Pstat Section
PSTATSERIALNO	LABEL	16137	Pstat Serial Number
CTRLMODE	IQUANT	1	Control Mode
IESTAB	IQUANT	0	I/E Stability
CASPEED	IQUANT	1	Control Amp Speed
CONVENTION	IQUANT	1	Current Convention
ICHRANGE	IQUANT	2	Ich Range
ICHRANGEMODE	TOGGLE	F	Ich Auto Range
ICHOFFSETENABLE	TOGGLE	T	Ich Offset Enable
ICHOFFSET	QUANT	0	Ich Offset (V)
ICHFILTER	IQUANT	3	Ich Filter
VCHRANGE	IQUANT	2	Vch Range
VCHRANGEMODE	TOGGLE	F	Vch Auto Range
VCHOFFSETENABLE	TOGGLE	T	Vch Offset Enable
VCHOFFSET	QUANT	0	Vch Offset (V)
VCHFILTER	IQUANT	3	Vch Filter
ACHRANGE	IQUANT	2	Ach Range
ACHOFFSETENABLE	TOGGLE	F	Ach Offset Enable
ACHOFFSET	QUANT	0	Ach Offset (V)
ACHFILTER	IQUANT	3	Ach Filter
IERANGELOWERLIMIT	IQUANT	2	I/E Range Lower Limit
IERANGEMODE	TOGGLE	F	I/E AutoRange
IERANGE	IQUANT	11	I/E Range
POSFEEDENABLE	TOGGLE	F	Positive Feedback IR Comp
POSFEEDRESISTANCE	QUANT	0	Positive Feedback Resistance (ohm)
ACHSELECT	IQUANT	0	Ach Select
CABLEID	IQUANT	13	Cable ID
DCCALDATE	LABEL	9/10/2021	DC Calibration Date
ACCALDATE	LABEL	9/10/2021	AC Calibration Date
THERMOSELECT	IQUANT	1	Thermo Select
FRAMEWORKVERSION	QUANT	6.33	Framework Version
INSTRUMENTVERSION	LABEL	3.50	Instrument Version
COMPLIANCEVOLTAGE	IQUANT	0	Compliance Voltage
ZCURVE	TABLE
	Pt	Time	Freq	Zreal	Zimag	Zsig	Zmod	Zphz	Idc	Vdc	IERange
	#	s	Hz	ohm	ohm	V	ohm	°	A	V	#
	0	7	300046.9	45.58313	1.830719	1	45.61988	2.299888	-8.426679E-006	-0.0001478	9
	1	10	238359.4	45.95562	1.303461	1	45.9741	1.624672	-6.330758E-006	-2.771009E-005	9
	2	13	189328.1	46.15697	1.097946	1	46.17003	1.36265	5.22183E-005	-0.0023008	9
	3	16	150421.9	46.60738	0.7194666	1	46.61294	0.8843904	3.902946E-005	-0.0008436	9
	4	18	119484.4	46.84214	0.4615543	1	46.84441	0.5645398	-7.050913E-006	0.0004584	9
	5	21	94921.88	47.15692	0.3931954	1	47.15856	0.4777224	-1.493745E-005	0.0003516	9
	6	23	75421.88	47.4016	0.2127928	1	47.40207	0.2572075	-1.678886E-005	0.0002384	9
	7	26	59859.37	47.64879	0.0496598	1	47.64882	0.0597139	1.383927E-005	-0.0007868	9
	8	28	47578.12	47.903	-0.1144778	1	47.90313	-0.1369242	2.725256E-006	-0.0005495	9
	9	31	37828.12	48.18887	-0.281548	1	48.1897	-0.3347522	-4.140865E-006	0.0002167	9
	10	34	30046.88	48.4525	-0.4374471	1	48.45448	-0.5172735	1.881083E-005	-0.0004778	9
	11	36	23859.38	48.72504	-0.5913916	1	48.72863	-0.6953833	2.258152E-006	4.382602E-005	9
	12	38	18984.38	48.9937	-0.7782106	1	48.99988	-0.9100035	-3.483804E-006	-0.0003471	9
	13	41	15046.87	49.2536	-0.984496	1	49.26344	-1.145093	2.041652E-005	-0.0006151	9
	14	43	11953.13	49.53119	-1.260525	1	49.54723	-1.457812	-9.122174E-006	0.0004325	9
	15	45	9515.62	49.82397	-1.553879	1	49.8482	-1.786326	-9.033971E-006	-0.0001196	9
	16	48	7546.875	50.14933	-1.927356	1	50.18635	-2.200928	-1.441721E-005	0.0004281	9
	17	50	5928.309	50.45194	-2.390094	1	50.50852	-2.712284	-1.480327E-005	9.009103E-005	9
	18	52	4733.456	50.80626	-2.940505	1	50.89128	-3.312402	-1.717979E-005	0.0003448	9
	19	55	3796.875	51.15017	-3.592942	1	51.2762	-4.018028	1.958222E-005	-0.0004788	9
	20	57	2987.132	51.57373	-4.467622	1	51.76687	-4.950941	-1.467562E-005	8.523924E-005	9
	21	59	2390.625	52.03305	-5.44271	1	52.31693	-5.971482	1.900993E-005	-0.0007037	9
	22	62	1884.191	52.5083	-6.759851	1	52.94164	-7.335835	3.117468E-006	8.770027E-005	9
	23	64	1516.544	53.1447	-8.141368	1	53.76468	-8.709572	-1.611019E-005	0.0004248	9
	24	66	1193.986	53.89447	-10.0634	1	54.82596	-10.57671	-3.617407E-006	0.0002904	9
	25	69	946.5144	54.78785	-12.27009	1	56.14503	-12.62346	-1.700666E-005	0.000374	9
	26	71	751.7689	55.74897	-14.96334	1	57.72217	-15.0244	1.036257E-005	-0.0001373	9
	27	73	597.4265	56.94082	-18.13248	1	59.75821	-17.66378	1.428353E-005	-0.0007596	9
	28	76	477.4305	58.37234	-21.82769	1	62.31997	-20.50273	7.423585E-007	-0.0001394	9
	29	78	376.6741	60.04961	-26.47593	1	65.62721	-23.79273	7.519938E-007	-0.0001395	9
	30	80	298.2954	61.96654	-31.97393	1	69.72936	-27.29315	6.41667E-007	-0.0001361	9
	31	83	237.7717	64.10911	-38.38926	1	74.72425	-30.91365	7.465041E-007	-0.0001386	9
	32	85	189.0121	66.55042	-46.20336	1	81.01672	-34.77074	6.802577E-007	-0.000138	9
	33	88	150.2404	69.28426	-55.66661	1	88.87677	-38.78022	7.235113E-007	-0.0001414	9
	34	90	119.1737	72.34923	-67.31705	1	98.8231	-42.93653	8.025038E-007	-0.0001371	9
	35	93	95.0169	75.70221	-81.25097	1	111.052	-47.02473	8.095934E-007	-0.0001373	9
	36	95	75.60484	79.5022	-98.5222	1	126.5987	-51.09831	7.090437E-007	-0.0001366	9
	37	98	54.50582	85.727	-130.4636	1	156.1085	-56.69128	7.657781E-007	-0.0001413	9
	38	100	45.95588	89.71429	-151.4474	1	176.0254	-59.35838	7.483373E-007	-0.0001292	9
	39	103	37.20238	95.3299	-182.4327	1	205.8385	-62.41076	1.061945E-006	-0.0001733	9
	40	105	30.04808	102.1151	-220.6316	1	243.1168	-65.16386	7.619694E-007	-0.0001371	9
	41	107	23.91582	110.9714	-270.7046	1	292.5673	-67.70954	7.592257E-007	-0.0001344	9
	42	110	18.60119	123.2432	-339.3724	1	361.0575	-70.04149	8.058299E-007	-0.0001416	9
	43	112	15.02404	136.0458	-409.7425	1	431.7376	-71.63242	3.739499E-007	-0.0001199	8
	44	114	12.01923	153.6105	-501.0634	1	524.0809	-72.95608	1.987574E-007	-0.000129	8
	45	117	9.450605	177.9891	-622.1052	1	647.0665	-74.03377	2.431237E-007	-0.0001193	8
	46	119	7.512019	208.5381	-764.3343	1	792.2721	-74.73907	3.668628E-007	-0.0001205	8
	47	122	5.978954	247.8533	-937.3403	1	969.556	-75.18873	2.926858E-007	-0.000121	8
	48	125	4.734848	300.065	-1154.106	1	1192.476	-75.4259	3.600887E-007	-0.0001003	8
	49	128	3.75601	368.7871	-1415.356	1	1462.613	-75.39565	2.617998E-007	-0.0001365	8
	50	132	3.004808	455.5052	-1719.005	1	1778.332	-75.15874	3.283927E-007	-0.0001311	8
	51	135	2.372217	578.7084	-2106.315	1	2184.368	-74.63711	3.153106E-007	-8.162839E-005	8
	52	140	1.878005	735.4038	-2574.75	1	2677.715	-74.05952	2.684924E-007	-0.0001385	8
	53	144	1.512097	919.9903	-3080.278	1	3214.731	-73.37063	3.103708E-007	-0.0001674	8
	54	150	1.201923	1179.644	-3728.835	1	3910.981	-72.44485	2.860631E-007	-0.0001461	8
	55	156	0.956633	1505.257	-4489.192	1	4734.833	-71.46334	-1.558374E-009	-0.0006557	7
