EXPLAIN
TAG	EISPOT
TITLE	LABEL	Potentiostatic EIS	Test Identifier
DATE	LABEL	10/5/2021	Date
TIME	LABEL	19:00:53	Time
NOTES	NOTES	1	Notes...
	
PSTAT	PSTAT	REF3000-16137	Potentiostat
VDC	POTEN	0.00000E+000	T	DC Voltage (V)
FREQINIT	QUANT	3.00000E+005	Initial Freq. (Hz)
FREQFINAL	QUANT	1.00000E+000	Final Freq. (Hz)
PTSPERDEC	QUANT	1.00000E+001	Points/decade
VAC	QUANT	5.00000E+001	AC Voltage (mV rms)
AREA	QUANT	1.00000E+000	Sample Area (cm^2)
SPEED	SELECTOR	2	Optimize for:
ZGUESS	QUANT	1.00000E+003	Estimated Z (ohms)
EOC	QUANT	0	Open Circuit (V)
SEQUENCER	TOGGLE	TRUE	Run as Sequence
PSTATMODEL	IQUANT	5	Pstat Model
PSTATSECTION	LABEL	REF3000-16137	Pstat Section
PSTATSERIALNO	LABEL	16137	Pstat Serial Number
CTRLMODE	IQUANT	1	Control Mode
IESTAB	IQUANT	0	I/E Stability
CASPEED	IQUANT	1	Control Amp Speed
CONVENTION	IQUANT	1	Current Convention
ICHRANGE	IQUANT	2	Ich Range
ICHRANGEMODE	TOGGLE	F	Ich Auto Range
ICHOFFSETENABLE	TOGGLE	T	Ich Offset Enable
ICHOFFSET	QUANT	0	Ich Offset (V)
ICHFILTER	IQUANT	3	Ich Filter
VCHRANGE	IQUANT	2	Vch Range
VCHRANGEMODE	TOGGLE	F	Vch Auto Range
VCHOFFSETENABLE	TOGGLE	T	Vch Offset Enable
VCHOFFSET	QUANT	0	Vch Offset (V)
VCHFILTER	IQUANT	3	Vch Filter
ACHRANGE	IQUANT	2	Ach Range
ACHOFFSETENABLE	TOGGLE	F	Ach Offset Enable
ACHOFFSET	QUANT	0	Ach Offset (V)
ACHFILTER	IQUANT	3	Ach Filter
IERANGELOWERLIMIT	IQUANT	2	I/E Range Lower Limit
IERANGEMODE	TOGGLE	F	I/E AutoRange
IERANGE	IQUANT	11	I/E Range
POSFEEDENABLE	TOGGLE	F	Positive Feedback IR Comp
POSFEEDRESISTANCE	QUANT	0	Positive Feedback Resistance (ohm)
ACHSELECT	IQUANT	0	Ach Select
CABLEID	IQUANT	13	Cable ID
DCCALDATE	LABEL	9/10/2021	DC Calibration Date
ACCALDATE	LABEL	9/10/2021	AC Calibration Date
THERMOSELECT	IQUANT	1	Thermo Select
FRAMEWORKVERSION	QUANT	6.33	Framework Version
INSTRUMENTVERSION	LABEL	3.50	Instrument Version
COMPLIANCEVOLTAGE	IQUANT	0	Compliance Voltage
ZCURVE	TABLE
	Pt	Time	Freq	Zreal	Zimag	Zsig	Zmod	Zphz	Idc	Vdc	IERange
	#	s	Hz	ohm	ohm	V	ohm	°	A	V	#
	0	15	300046.9	1087.688	-575.9319	1	1230.757	-27.90128	-6.994229E-006	-0.0021063	9
	1	31	238359.4	1224.056	-575.1193	1	1352.433	-25.16635	-2.065133E-005	0.0013769	9
	2	47	189328.1	1383.849	-552.3097	1	1489.995	-21.75749	3.987049E-006	0.0013645	9
	3	55	150421.9	1463.978	-515.0813	1	1551.947	-19.38375	-1.414216E-005	0.0016085	9
	4	64	119484.4	1597.942	-416.0501	1	1651.217	-14.59387	-9.282146E-006	0.0128339	8
	5	71	94921.88	1692.093	-376.2494	1	1733.42	-12.53618	-4.115642E-006	-0.0041214	8
	6	77	75421.88	1748.709	-327.747	1	1779.158	-10.61535	1.724249E-005	-0.0090108	8
	7	80	59859.37	1804.721	-283.5625	1	1826.862	-8.929459	3.875497E-006	-0.0066423	8
	8	83	47578.12	1853.548	-248.5768	1	1870.142	-7.638281	9.956115E-006	0.0017406	8
	9	89	37828.12	1918.53	-214.1062	1	1930.44	-6.367808	-2.217126E-005	0.0080768	8
	10	96	30046.88	1993.649	-183.6315	1	2002.088	-5.262567	-1.619367E-005	0.0009829	8
	11	103	23859.38	2044.175	-160.3769	1	2050.457	-4.485985	2.102891E-005	-0.00868	8
	12	107	18984.38	2087.49	-138.7848	1	2092.099	-3.803657	1.157243E-005	-0.008392	8
	13	111	15046.87	2125.413	-111.3885	1	2128.33	-3.000008	-1.633841E-005	0.0009669	8
	14	114	11953.13	2159.056	-98.5859	1	2161.306	-2.614399	-1.62483E-005	0.0009503	8
	15	119	9515.62	2202.841	-81.49572	1	2204.348	-2.118733	9.71777E-006	0.0018135	8
	16	123	7546.875	2236.92	-73.63889	1	2238.132	-1.885483	1.165818E-005	-0.0084953	8
	17	127	5928.309	2268.167	-59.75554	1	2268.954	-1.509125	1.167499E-005	-0.0084783	8
	18	131	4733.456	2321.656	-59.5966	1	2322.421	-1.470452	-3.965547E-006	-0.0043366	8
	19	135	3796.875	2357.726	-44.59925	1	2358.148	-1.08369	-2.301466E-005	0.0083674	8
	20	140	2987.132	2423.978	-52.31057	1	2424.542	-1.236278	-2.774377E-005	0.0007374	9
	21	145	2390.625	2470.587	-37.79677	1	2470.876	-0.8764827	2.788484E-005	-0.001072	9
	22	150	1884.191	2509.729	-26.46939	1	2509.869	-0.6042596	8.055104E-006	-0.0009737	9
	23	156	1516.544	2573.963	-31.19269	1	2574.152	-0.6943075	1.189339E-005	-0.0086131	8
	24	161	1193.986	2634.224	-44.52367	1	2634.6	-0.968321	8.141266E-006	-0.0009739	9
	25	167	946.5144	2658.409	-10.55682	1	2658.43	-0.2275263	9.919281E-006	0.0019498	8
	26	170	751.7689	2729.534	-78.23737	1	2730.655	-1.641835	1.976654E-005	-0.000251	9
	27	174	597.4265	2781.868	-64.23893	1	2782.61	-1.322839	1.717893E-005	-0.0011437	9
	28	178	477.4305	2798.626	-46.69899	1	2799.016	-0.955971	-4.761245E-007	-0.0001228	8
	29	181	376.6741	2826.336	-53.91344	1	2826.85	-1.092806	-4.83744E-007	-0.0001198	8
	30	183	298.2954	2853.896	-63.56585	1	2854.604	-1.275959	-5.070372E-007	-0.0001079	8
	31	186	237.7717	2884.09	-75.72055	1	2885.084	-1.503931	-4.742578E-007	-0.0001382	8
	32	188	189.0121	2914.762	-91.37211	1	2916.194	-1.795523	-4.660283E-007	-0.0001302	8
	33	191	150.2404	2946.681	-110.6664	1	2948.759	-2.150805	-5.099417E-007	-0.0001122	8
	34	193	119.1737	2979.845	-135.673	1	2982.932	-2.606889	-5.091029E-007	-0.000115	8
	35	195	95.0169	3014.5	-164.071	1	3018.961	-3.115379	-4.949041E-007	-0.0001119	8
	36	198	75.60484	3051.984	-200.4059	1	3058.557	-3.756885	-4.401954E-007	-0.0001499	8
	37	201	54.50582	3097.105	-267.2987	1	3108.619	-4.932745	-4.712524E-007	-0.0001176	8
	38	203	45.95588	3136.161	-309.5822	1	3151.404	-5.637617	-5.430301E-007	-0.0001259	8
	39	205	37.20238	3178.405	-373.8826	1	3200.319	-6.708994	-5.274608E-007	-0.0001091	8
	40	208	30.04808	3227.848	-450.3244	1	3259.11	-7.9422	-4.406537E-007	-0.000129	8
	41	210	23.91582	3280.028	-550.2362	1	3325.86	-9.5229	-5.773766E-007	-0.0001325	8
	42	213	18.60119	3347.649	-683.807	1	3416.775	-11.5447	-4.615882E-007	-0.0001324	8
	43	215	15.02404	3419.457	-822.1352	1	3516.901	-13.51895	-3.186037E-007	-0.000143	8
	44	217	12.01923	3497.901	-986.765	1	3634.421	-15.75387	-6.623598E-007	-0.0001209	8
	45	220	9.450605	3598.828	-1217.604	1	3799.227	-18.69239	-1.617274E-008	-7.053894E-005	7
	46	222	7.512019	3715.668	-1472.917	1	3996.958	-21.62372	-6.941765E-008	-0.0001295	7
	47	225	5.978954	3846.192	-1775.857	1	4236.374	-24.78364	-6.274774E-008	-7.565324E-005	7
	48	228	4.734848	3995.985	-2147.198	1	4536.337	-28.25087	-3.780634E-008	-0.0001195	7
	49	231	3.75601	4173.269	-2591.768	1	4912.579	-31.84194	-1.279728E-007	-9.385209E-005	7
	50	235	3.004808	4370.41	-3107.93	1	5362.808	-35.41778	-1.051994E-007	-0.0001197	7
	51	238	2.372217	4607.785	-3765.04	1	5950.396	-39.2524	-8.633372E-008	-3.608476E-005	7
	52	243	1.878005	4868.79	-4580.986	1	6685.099	-43.25553	-1.089391E-007	-0.0001326	7
	53	247	1.512097	5148.541	-5487.958	1	7524.969	-46.82772	-9.351469E-008	-0.000106	7
	54	253	1.201923	5505.821	-6688.44	1	8663.1	-50.53932	-9.994659E-008	-0.0001411	7
	55	259	0.956633	5909.994	-8144.584	1	10062.92	-54.03405	-1.0235E-007	-0.0006539	7
