EXPLAIN
TAG	EISPOT
TITLE	LABEL	Potentiostatic EIS	Test Identifier
DATE	LABEL	10/5/2021	Date
TIME	LABEL	17:43:38	Time
NOTES	NOTES	1	Notes...
	
PSTAT	PSTAT	REF3000-16137	Potentiostat
VDC	POTEN	0.00000E+000	T	DC Voltage (V)
FREQINIT	QUANT	3.00000E+005	Initial Freq. (Hz)
FREQFINAL	QUANT	1.00000E+000	Final Freq. (Hz)
PTSPERDEC	QUANT	1.00000E+001	Points/decade
VAC	QUANT	5.00000E+001	AC Voltage (mV rms)
AREA	QUANT	1.00000E+000	Sample Area (cm^2)
SPEED	SELECTOR	2	Optimize for:
ZGUESS	QUANT	1.00000E+003	Estimated Z (ohms)
EOC	QUANT	0	Open Circuit (V)
SEQUENCER	TOGGLE	TRUE	Run as Sequence
PSTATMODEL	IQUANT	5	Pstat Model
PSTATSECTION	LABEL	REF3000-16137	Pstat Section
PSTATSERIALNO	LABEL	16137	Pstat Serial Number
CTRLMODE	IQUANT	1	Control Mode
IESTAB	IQUANT	0	I/E Stability
CASPEED	IQUANT	1	Control Amp Speed
CONVENTION	IQUANT	1	Current Convention
ICHRANGE	IQUANT	2	Ich Range
ICHRANGEMODE	TOGGLE	F	Ich Auto Range
ICHOFFSETENABLE	TOGGLE	T	Ich Offset Enable
ICHOFFSET	QUANT	0	Ich Offset (V)
ICHFILTER	IQUANT	3	Ich Filter
VCHRANGE	IQUANT	2	Vch Range
VCHRANGEMODE	TOGGLE	F	Vch Auto Range
VCHOFFSETENABLE	TOGGLE	T	Vch Offset Enable
VCHOFFSET	QUANT	0	Vch Offset (V)
VCHFILTER	IQUANT	3	Vch Filter
ACHRANGE	IQUANT	2	Ach Range
ACHOFFSETENABLE	TOGGLE	F	Ach Offset Enable
ACHOFFSET	QUANT	0	Ach Offset (V)
ACHFILTER	IQUANT	3	Ach Filter
IERANGELOWERLIMIT	IQUANT	2	I/E Range Lower Limit
IERANGEMODE	TOGGLE	F	I/E AutoRange
IERANGE	IQUANT	11	I/E Range
POSFEEDENABLE	TOGGLE	F	Positive Feedback IR Comp
POSFEEDRESISTANCE	QUANT	0	Positive Feedback Resistance (ohm)
ACHSELECT	IQUANT	0	Ach Select
CABLEID	IQUANT	13	Cable ID
DCCALDATE	LABEL	9/10/2021	DC Calibration Date
ACCALDATE	LABEL	9/10/2021	AC Calibration Date
THERMOSELECT	IQUANT	1	Thermo Select
FRAMEWORKVERSION	QUANT	6.33	Framework Version
INSTRUMENTVERSION	LABEL	3.50	Instrument Version
COMPLIANCEVOLTAGE	IQUANT	0	Compliance Voltage
ZCURVE	TABLE
	Pt	Time	Freq	Zreal	Zimag	Zsig	Zmod	Zphz	Idc	Vdc	IERange
	#	s	Hz	ohm	ohm	V	ohm	°	A	V	#
	0	10	300046.9	2.014204	2.213314	1	2.99262	47.69655	-3.045617E-005	-0.0005737	11
	1	13	238359.4	1.96549	1.748511	1	2.630674	41.65647	-4.710064E-005	-0.0003422	11
	2	18	189328.1	2.017994	1.24184	1	2.369487	31.60745	-0.0001842	-0.0008331	12
	3	21	150421.9	1.974505	0.966246	1	2.198249	26.07533	-0.0001153	-0.0005623	12
	4	25	119484.4	1.911832	0.8212746	1	2.080768	23.24713	-2.782846E-005	0.0001019	11
	5	27	94921.88	1.907449	0.6125018	1	2.003377	17.80236	-6.729143E-005	0.0001189	11
	6	30	75421.88	1.909787	0.438056	1	1.959383	12.91871	-7.223639E-005	0.0001739	11
	7	32	59859.37	1.914348	0.2873772	1	1.935798	8.537351	-1.922125E-005	0.0002597	11
	8	35	47578.12	1.922937	0.155761	1	1.929236	4.630939	-6.245582E-005	0.0002692	11
	9	37	37828.12	1.935011	0.0356665	1	1.935339	1.055967	-9.437131E-005	0.0002703	11
	10	40	30046.88	1.951339	-0.0784897	1	1.952917	-2.303395	-8.561401E-005	0.0002933	11
	11	43	23859.38	1.972102	-0.19088	1	1.981318	-5.528446	-2.775542E-005	0.0003598	11
	12	45	18984.38	1.996993	-0.3050521	1	2.020158	-8.68512	-6.712721E-005	0.0003479	11
	13	47	15046.87	2.026342	-0.4283456	1	2.071121	-11.93596	-3.83015E-005	0.0003712	11
	14	50	11953.13	2.060193	-0.5622575	1	2.13554	-15.26512	-8.821942E-005	0.0003278	11
	15	52	9515.62	2.098421	-0.7123182	1	2.216025	-18.75001	-3.880929E-005	0.0002977	11
	16	54	7546.875	2.142059	-0.8889455	1	2.31919	-22.53824	-2.820854E-005	0.0003857	11
	17	56	5928.309	2.192479	-1.106616	1	2.455924	-26.78156	-1.544394E-005	0.0003692	11
	18	59	4733.456	2.245467	-1.350856	1	2.620483	-31.0308	-1.937465E-005	0.0003889	11
	19	61	3796.875	2.301736	-1.63976	1	2.826093	-35.46613	-5.117211E-005	0.0003307	11
	20	63	2987.132	2.3713	-2.026364	1	3.119169	-40.51513	-4.457663E-005	0.0003446	11
	21	66	2390.625	2.445572	-2.469305	1	3.475383	-45.27666	-4.058337E-005	0.0003661	11
	22	68	1884.191	2.539391	-3.052829	1	3.970928	-50.24579	-2.440809E-005	0.0003684	11
	23	70	1516.544	2.646017	-3.714506	1	4.560588	-54.53595	-2.68028E-005	-0.0001264	10
	24	73	1193.986	2.787132	-4.611688	1	5.388484	-58.8528	5.928788E-006	-0.0001454	10
	25	75	946.5144	2.959491	-5.696916	1	6.419769	-62.54858	-1.34302E-005	-0.0001439	10
	26	77	751.7689	3.184948	-7.020507	1	7.709177	-65.59794	2.195664E-005	-0.0001454	10
	27	80	597.4265	3.476048	-8.65053	1	9.322799	-68.10822	-7.484176E-007	-0.0001488	10
	28	82	477.4305	3.844413	-10.61211	1	11.287	-70.08624	-8.645734E-007	-0.0001226	10
	29	84	376.6741	4.353875	-13.14599	1	13.84822	-71.67543	-6.31962E-007	-0.0001264	10
	30	87	298.2954	5.018132	-16.21554	1	16.97425	-72.80457	-1.200473E-006	-0.000121	10
	31	89	237.7717	5.871008	-19.85783	1	20.70754	-73.52958	-1.412475E-006	-0.0001317	10
	32	92	189.0121	7.012619	-24.33985	1	25.32993	-73.92764	-1.726064E-006	-0.0001281	10
	33	94	150.2404	8.526505	-29.77364	1	30.97048	-74.01947	-1.984002E-006	-0.0001297	10
	34	96	119.1737	10.55278	-36.39009	1	37.88931	-73.82835	-1.603543E-006	-0.0001727	10
	35	99	95.0169	13.14514	-44.09066	1	46.00848	-73.39864	4.047409E-007	-0.0001865	9
	36	101	75.60484	16.59048	-53.38568	1	55.90416	-72.7365	-2.037526E-007	-0.0001422	9
	37	104	54.50582	23.39431	-69.70053	1	73.52182	-71.44617	-1.602951E-007	-0.0001466	9
	38	106	45.95588	28.04854	-79.82195	1	84.60652	-70.63909	3.171399E-007	-0.0001372	9
	39	109	37.20238	35.10318	-94.03725	1	100.3755	-69.52989	-2.980926E-007	-0.0001327	9
	40	111	30.04808	44.0862	-110.6176	1	119.0791	-68.27044	1.782924E-007	-0.0001409	9
	41	114	23.91582	56.02539	-130.7553	1	142.2526	-66.80608	-5.045282E-007	-0.000143	9
	42	116	18.60119	73.10966	-156.5016	1	172.7361	-64.96039	-3.354029E-007	-0.0001362	9
	43	118	15.02404	91.47353	-181.2148	1	202.9932	-63.21629	-5.010135E-007	-0.00014	9
	44	121	12.01923	115.6369	-209.438	1	239.2408	-61.09562	9.373024E-008	-0.000141	9
	45	123	9.450605	148.5195	-242.0565	1	283.9884	-58.46782	-5.91389E-007	-0.0001361	9
	46	125	7.512019	187.0871	-273.9951	1	331.7753	-55.67427	2.286033E-008	-0.0001564	9
	47	128	5.978954	232.9457	-304.7132	1	383.5542	-52.60299	-4.333906E-009	-0.0001803	9
	48	131	4.734848	285.9193	-331.7719	1	437.9754	-49.2454	-3.073126E-007	-0.0001547	8
	49	134	3.75601	345.6004	-355.5493	1	495.8376	-45.81295	7.572635E-007	-0.0001103	8
	50	138	3.004808	406.9372	-373.7024	1	552.4955	-42.56217	9.237634E-007	-0.0001527	8
	51	142	2.372217	475.2914	-386.4977	1	612.603	-39.11734	3.290651E-007	-0.0002038	8
	52	146	1.878005	542.635	-393.8525	1	670.5017	-35.9727	6.028403E-007	-0.000119	8
	53	151	1.512097	603.8348	-396.8371	1	722.5623	-33.31271	7.505612E-007	-0.0002074	8
	54	156	1.201923	668.4765	-396.5046	1	777.2238	-30.67416	3.334885E-007	-0.0000988	8
	55	162	0.956633	730.0636	-394.5768	1	829.8697	-28.38985	-3.547877E-007	-0.000672	8
