EXPLAIN
TAG	EISPOT
TITLE	LABEL	Potentiostatic EIS	Test Identifier
DATE	LABEL	10/5/2021	Date
TIME	LABEL	19:21:08	Time
NOTES	NOTES	1	Notes...
	
PSTAT	PSTAT	REF3000-16137	Potentiostat
VDC	POTEN	0.00000E+000	T	DC Voltage (V)
FREQINIT	QUANT	3.00000E+005	Initial Freq. (Hz)
FREQFINAL	QUANT	1.00000E+000	Final Freq. (Hz)
PTSPERDEC	QUANT	1.00000E+001	Points/decade
VAC	QUANT	5.00000E+001	AC Voltage (mV rms)
AREA	QUANT	1.00000E+000	Sample Area (cm^2)
SPEED	SELECTOR	2	Optimize for:
ZGUESS	QUANT	1.00000E+003	Estimated Z (ohms)
EOC	QUANT	0	Open Circuit (V)
SEQUENCER	TOGGLE	TRUE	Run as Sequence
PSTATMODEL	IQUANT	5	Pstat Model
PSTATSECTION	LABEL	REF3000-16137	Pstat Section
PSTATSERIALNO	LABEL	16137	Pstat Serial Number
CTRLMODE	IQUANT	1	Control Mode
IESTAB	IQUANT	0	I/E Stability
CASPEED	IQUANT	1	Control Amp Speed
CONVENTION	IQUANT	1	Current Convention
ICHRANGE	IQUANT	2	Ich Range
ICHRANGEMODE	TOGGLE	F	Ich Auto Range
ICHOFFSETENABLE	TOGGLE	T	Ich Offset Enable
ICHOFFSET	QUANT	0	Ich Offset (V)
ICHFILTER	IQUANT	3	Ich Filter
VCHRANGE	IQUANT	2	Vch Range
VCHRANGEMODE	TOGGLE	F	Vch Auto Range
VCHOFFSETENABLE	TOGGLE	T	Vch Offset Enable
VCHOFFSET	QUANT	0	Vch Offset (V)
VCHFILTER	IQUANT	3	Vch Filter
ACHRANGE	IQUANT	2	Ach Range
ACHOFFSETENABLE	TOGGLE	F	Ach Offset Enable
ACHOFFSET	QUANT	0	Ach Offset (V)
ACHFILTER	IQUANT	3	Ach Filter
IERANGELOWERLIMIT	IQUANT	2	I/E Range Lower Limit
IERANGEMODE	TOGGLE	F	I/E AutoRange
IERANGE	IQUANT	11	I/E Range
POSFEEDENABLE	TOGGLE	F	Positive Feedback IR Comp
POSFEEDRESISTANCE	QUANT	0	Positive Feedback Resistance (ohm)
ACHSELECT	IQUANT	0	Ach Select
CABLEID	IQUANT	13	Cable ID
DCCALDATE	LABEL	9/10/2021	DC Calibration Date
ACCALDATE	LABEL	9/10/2021	AC Calibration Date
THERMOSELECT	IQUANT	1	Thermo Select
FRAMEWORKVERSION	QUANT	6.33	Framework Version
INSTRUMENTVERSION	LABEL	3.50	Instrument Version
COMPLIANCEVOLTAGE	IQUANT	0	Compliance Voltage
ZCURVE	TABLE
	Pt	Time	Freq	Zreal	Zimag	Zsig	Zmod	Zphz	Idc	Vdc	IERange
	#	s	Hz	ohm	ohm	V	ohm	°	A	V	#
	0	17	300046.9	145.4609	-3831.162	1	3833.922	-87.82565	2.157716E-005	-0.0008573	9
	1	33	238359.4	225.8677	-4663.152	1	4668.619	-87.22695	-8.946916E-005	0.003658	9
	2	51	189328.1	1107.538	-5597.543	1	5706.061	-78.80794	-2.235184E-005	0.0014651	9
	3	61	150421.9	-24.15623	-7116.815	1	7116.856	-90.19447	7.770227E-005	-0.0017868	9
	4	71	119484.4	845.2411	-9065.148	1	9104.469	-84.6731	1.939035E-005	-0.0192501	8
	5	78	94921.88	843.5746	-11684.66	1	11715.07	-85.8707	1.518967E-005	-0.0101717	8
	6	87	75421.88	1247.944	-14348.26	1	14402.43	-85.02919	2.607485E-005	-0.0102147	8
	7	95	59859.37	1404.427	-17902.85	1	17957.85	-85.5145	-1.906435E-005	0.0106364	8
	8	104	47578.12	2244.921	-22248.23	1	22361.2	-84.23817	-2.524568E-005	0.0050217	8
	9	112	37828.12	4898.765	-29138.12	1	29547.04	-80.45655	7.466434E-006	-0.0202386	7
	10	120	30046.88	6404.08	-35558.23	1	36130.32	-79.79041	-1.173076E-006	0.0198022	7
	11	127	23859.38	4422.6	-43881.79	1	44104.09	-84.24491	2.411277E-005	-0.0041073	8
	12	134	18984.38	8961.767	-54436.45	1	55169.2	-80.65136	-1.569776E-006	-0.0126527	7
	13	140	15046.87	11282.79	-67960.7	1	68890.92	-80.57377	-6.316192E-006	0.0252902	7
	14	145	11953.13	13233.24	-84873.91	1	85899.36	-81.138	-6.939516E-006	0.0127886	7
	15	151	9515.62	18240.16	-103508.5	1	105103.3	-80.006	-6.328986E-006	0.0253343	7
	16	156	7546.875	45386.83	-169066.9	1	175053	-74.97297	-1.053219E-005	0.0091388	8
	17	164	5928.309	35736.62	-173944.7	1	177577.8	-78.39024	2.984309E-006	-0.0244017	7
	18	170	4733.456	36941.92	-207294.2	1	210560.2	-79.89539	-6.284173E-006	0.0253271	7
	19	176	3796.875	62465.9	-250246.3	1	257924.8	-75.98438	-1.342578E-006	0.0199516	7
	20	182	2987.132	99825.7	-310007.8	1	325683.9	-72.15091	-7.433144E-007	0.0178006	6
	21	187	2390.625	131862.9	-365398.1	1	388463.1	-70.15677	-6.64945E-007	0.0255877	6
	22	193	1884.191	56372.2	-521099.4	1	524139.7	-83.82579	-6.30161E-006	0.0253276	7
	23	199	1516.544	74135.27	-513143.3	1	518470.9	-81.7792	4.923961E-006	-0.0270701	7
	24	206	1193.986	184225.5	-565734.5	1	594974.4	-71.96271	-3.325988E-006	0.0238984	7
	25	212	946.5144	342693.8	-759812.4	1	833519.1	-65.72347	6.930317E-007	-0.0278423	6
	26	217	751.7689	470529	-926120.8	1	1038796	-63.0665	-9.755767E-008	-0.014484	6
	27	221	597.4265	584452.8	-1043229	1	1195789	-60.74096	-3.253696E-007	-0.0065608	6
	28	225	477.4305	1067903	-1146770	1	1567003	-47.03951	-1.226638E-009	-4.241909E-005	5
	29	228	376.6741	1300291	-1239275	1	1796262	-43.62366	-1.272106E-009	-2.092925E-005	5
	30	231	298.2954	1560172	-1311400	1	2038113	-40.04868	-1.369858E-009	-7.525121E-005	5
	31	234	237.7717	1847023	-1352314	1	2289158	-36.21005	-1.312248E-009	-0.0000964	5
	32	237	189.0121	2118780	-1358212	1	2516738	-32.66129	-1.326014E-009	-3.900253E-005	5
	33	239	150.2404	2319089	-1435243	1	2727287	-31.75263	-1.319179E-008	-0.0001647	6
	34	243	119.1737	2883591	-1083370	1	3080387	-20.59129	-1.465691E-009	-1.234292E-005	5
	35	247	95.0169	2957191	-1329668	1	3242375	-24.21053	-1.327273E-008	-0.0001428	6
	36	251	75.60484	3189544	-1309326	1	3447829	-22.31844	-1.290099E-008	-0.0001892	6
	37	255	54.50582	3557757	-978101	1	3689758	-15.37203	-1.308992E-009	-0.0000996	5
	38	260	45.95588	3765193	-864402.5	1	3863142	-12.92976	-1.312871E-009	-0.0001078	5
	39	263	37.20238	3927675	-903327.4	1	4030215	-12.95224	-1.46795E-009	-6.71371E-005	5
	40	267	30.04808	4191400	-769253.1	1	4261406	-10.39983	-1.415922E-009	-3.656136E-005	5
	41	271	23.91582	4358301	-731086.7	1	4419194	-9.52247	-1.231573E-009	-9.468847E-005	5
	42	275	18.60119	4716353	-921607.5	1	4805553	-11.05666	-7.895933E-010	-0.0000957	5
	43	279	15.02404	4743248	-501743.2	1	4769712	-6.038321	-1.38752E-009	-3.186085E-005	5
	44	283	12.01923	4938411	-445898.3	1	4958501	-5.159352	-1.388737E-009	-6.319508E-005	5
	45	286	9.450605	5098191	-390834.4	1	5113150	-4.3838	-1.344447E-009	-7.271353E-005	5
	46	290	7.512019	5296331	-329121.9	1	5306548	-3.555872	-1.424802E-009	-1.497115E-005	5
	47	295	5.978954	5557807	-298947.1	1	5565841	-3.078897	-1.402198E-009	-1.105962E-005	5
	48	301	4.734848	5781756	-181737	1	5784611	-1.800376	-1.764747E-010	0.0004736	4
	49	304	3.75601	6003470	-141041.2	1	6005126	-1.345818	-1.430087E-010	0.0003768	4
	50	310	3.004808	6308323	-155192.4	1	6310232	-1.409261	-1.706953E-010	0.0005133	4
	51	316	2.372217	6605910	-138400.5	1	6607360	-1.200229	-1.63211E-010	0.0004993	4
	52	320	1.878005	6861156	-126648	1	6862325	-1.057485	-1.79872E-010	0.0004096	4
	53	325	1.512097	7160665	-117769.9	1	7161634	-0.9422464	-1.678766E-010	0.0005305	4
	54	331	1.201923	7525060	-119685.1	1	7526011	-0.911205	-1.7672E-010	0.0004106	4
	55	337	0.956633	7938258	-119457.5	1	7939157	-0.8621407	-2.535649E-010	-0.0001206	4
