EXPLAIN
TAG	EISPOT
TITLE	LABEL	Potentiostatic EIS	Test Identifier
DATE	LABEL	10/5/2021	Date
TIME	LABEL	17:57:57	Time
NOTES	NOTES	1	Notes...
	
PSTAT	PSTAT	REF3000-16137	Potentiostat
VDC	POTEN	0.00000E+000	T	DC Voltage (V)
FREQINIT	QUANT	3.00000E+005	Initial Freq. (Hz)
FREQFINAL	QUANT	1.00000E+000	Final Freq. (Hz)
PTSPERDEC	QUANT	1.00000E+001	Points/decade
VAC	QUANT	5.00000E+001	AC Voltage (mV rms)
AREA	QUANT	1.00000E+000	Sample Area (cm^2)
SPEED	SELECTOR	2	Optimize for:
ZGUESS	QUANT	1.00000E+003	Estimated Z (ohms)
EOC	QUANT	0	Open Circuit (V)
SEQUENCER	TOGGLE	TRUE	Run as Sequence
PSTATMODEL	IQUANT	5	Pstat Model
PSTATSECTION	LABEL	REF3000-16137	Pstat Section
PSTATSERIALNO	LABEL	16137	Pstat Serial Number
CTRLMODE	IQUANT	1	Control Mode
IESTAB	IQUANT	0	I/E Stability
CASPEED	IQUANT	1	Control Amp Speed
CONVENTION	IQUANT	1	Current Convention
ICHRANGE	IQUANT	2	Ich Range
ICHRANGEMODE	TOGGLE	F	Ich Auto Range
ICHOFFSETENABLE	TOGGLE	T	Ich Offset Enable
ICHOFFSET	QUANT	0	Ich Offset (V)
ICHFILTER	IQUANT	3	Ich Filter
VCHRANGE	IQUANT	2	Vch Range
VCHRANGEMODE	TOGGLE	F	Vch Auto Range
VCHOFFSETENABLE	TOGGLE	T	Vch Offset Enable
VCHOFFSET	QUANT	0	Vch Offset (V)
VCHFILTER	IQUANT	3	Vch Filter
ACHRANGE	IQUANT	2	Ach Range
ACHOFFSETENABLE	TOGGLE	F	Ach Offset Enable
ACHOFFSET	QUANT	0	Ach Offset (V)
ACHFILTER	IQUANT	3	Ach Filter
IERANGELOWERLIMIT	IQUANT	2	I/E Range Lower Limit
IERANGEMODE	TOGGLE	F	I/E AutoRange
IERANGE	IQUANT	11	I/E Range
POSFEEDENABLE	TOGGLE	F	Positive Feedback IR Comp
POSFEEDRESISTANCE	QUANT	0	Positive Feedback Resistance (ohm)
ACHSELECT	IQUANT	0	Ach Select
CABLEID	IQUANT	13	Cable ID
DCCALDATE	LABEL	9/10/2021	DC Calibration Date
ACCALDATE	LABEL	9/10/2021	AC Calibration Date
THERMOSELECT	IQUANT	1	Thermo Select
FRAMEWORKVERSION	QUANT	6.33	Framework Version
INSTRUMENTVERSION	LABEL	3.50	Instrument Version
COMPLIANCEVOLTAGE	IQUANT	0	Compliance Voltage
ZCURVE	TABLE
	Pt	Time	Freq	Zreal	Zimag	Zsig	Zmod	Zphz	Idc	Vdc	IERange
	#	s	Hz	ohm	ohm	V	ohm	°	A	V	#
	0	10	300046.9	2.73767	2.227706	1	3.52952	39.13606	2.271964E-005	-0.0010421	10
	1	13	238359.4	2.693164	1.76771	1	3.221479	33.27966	-2.888156E-005	-0.0014494	10
	2	16	189328.1	2.764085	1.169698	1	3.001393	22.93697	-0.0001699	-0.0011306	12
	3	20	150421.9	2.671489	1.054313	1	2.872008	21.53686	-0.0001087	-2.160406E-005	11
	4	23	119484.4	2.667387	0.8022234	1	2.785411	16.7388	3.265466E-005	5.959961E-005	11
	5	25	94921.88	2.66751	0.5937713	1	2.732796	12.5491	-8.333306E-005	0.0001717	11
	6	28	75421.88	2.670163	0.4162705	1	2.702416	8.860917	-2.010855E-005	0.0002441	11
	7	30	59859.37	2.677714	0.2641091	1	2.690707	5.632995	-4.957883E-005	0.0002794	11
	8	33	47578.12	2.688031	0.1277539	1	2.691065	2.721045	-5.312146E-005	0.0003044	11
	9	35	37828.12	2.702027	0.0010011	1	2.702028	0.0212277	-2.44242E-005	0.0003406	11
	10	38	30046.88	2.720702	-0.1216858	1	2.723422	-2.560896	-9.268465E-005	0.0003069	11
	11	40	23859.38	2.744986	-0.2456557	1	2.755956	-5.113921	-7.94331E-005	0.0003478	11
	12	43	18984.38	2.772992	-0.3742169	1	2.798129	-7.685665	-8.748641E-005	0.0003069	11
	13	45	15046.87	2.809883	-0.514884	1	2.856667	-10.38371	-4.370398E-005	0.0003668	11
	14	47	11953.13	2.852411	-0.6694096	1	2.929908	-13.20728	-1.614995E-005	0.0003722	11
	15	50	9515.62	2.903836	-0.8432083	1	3.023782	-16.1921	-8.338827E-005	0.0002955	11
	16	52	7546.875	2.964469	-1.04502	1	3.143269	-19.41833	-6.41118E-005	0.0003603	11
	17	54	5928.309	3.035609	-1.293622	1	3.299754	-23.08124	-7.509609E-005	0.0003097	11
	18	56	4733.456	3.110479	-1.568379	1	3.483517	-26.75835	-7.517439E-005	0.0003406	11
	19	59	3796.875	3.192014	-1.887969	1	3.708555	-30.60288	-4.698437E-005	0.0003338	11
	20	61	2987.132	3.294614	-2.313171	1	4.025573	-35.07296	2.058621E-005	-0.0001461	10
	21	63	2390.625	3.39738	-2.793492	1	4.398385	-39.42871	-1.742236E-005	-0.000114	10
	22	66	1884.191	3.518845	-3.426023	1	4.911201	-44.23426	-1.387489E-005	-0.0001373	10
	23	68	1516.544	3.644263	-4.136555	1	5.51287	-48.62028	1.690406E-005	-0.0001449	10
	24	70	1193.986	3.80577	-5.103734	1	6.366474	-53.28871	-1.358173E-005	-0.000171	10
	25	73	946.5144	3.991453	-6.278464	1	7.439813	-57.55436	1.133732E-005	-0.0001567	10
	26	75	751.7689	4.224799	-7.717849	1	8.79853	-61.30343	-9.061712E-006	-0.0001383	10
	27	77	597.4265	4.507354	-9.50264	1	10.51743	-64.62377	-1.989375E-005	-0.0001214	10
	28	80	477.4305	4.868989	-11.64795	1	12.62465	-67.31445	1.700575E-007	-0.0001249	10
	29	82	376.6741	5.353579	-14.44213	1	15.40246	-69.66067	-5.659967E-007	-0.0001272	10
	30	84	298.2954	5.975607	-17.84645	1	18.82029	-71.48767	1.049574E-007	-0.000121	10
	31	87	237.7717	6.764172	-21.91482	1	22.93498	-72.84677	-4.811837E-007	-0.0001273	10
	32	89	189.0121	7.812889	-26.95433	1	28.06381	-73.83543	-6.607303E-007	-0.000121	10
	33	92	150.2404	9.197468	-33.12318	1	34.37643	-74.48138	-8.353895E-007	-0.0001293	10
	34	94	119.1737	11.04595	-40.7181	1	42.18977	-74.82217	-7.43551E-007	-0.000122	10
	35	96	95.0169	13.42242	-49.6702	1	51.45182	-74.8781	6.172272E-007	-0.0001375	9
	36	99	75.60484	16.60978	-60.63203	1	62.86595	-74.68002	4.077557E-007	-0.0001404	9
	37	101	54.50582	23.01978	-80.25024	1	83.4866	-73.99447	3.335055E-007	-0.0001415	9
	38	104	45.95588	27.48369	-92.63674	1	96.6277	-73.4753	7.40851E-007	-0.0001311	9
	39	106	37.20238	34.3833	-110.298	1	115.5329	-72.68612	7.286704E-007	-0.0001391	9
	40	109	30.04808	43.30574	-131.1943	1	138.1569	-71.73254	6.957001E-007	-0.0001392	9
	41	111	23.91582	55.32887	-157.1158	1	166.5733	-70.60011	4.12272E-007	-0.0001371	9
	42	113	18.60119	72.42626	-190.6335	1	203.9281	-69.19701	1.622141E-007	-0.0001369	9
	43	116	15.02404	90.93494	-223.6381	1	241.419	-67.87253	3.571209E-007	-0.0001332	9
	44	118	12.01923	115.3391	-263.1588	1	287.325	-66.33279	2.54821E-007	-0.0001368	9
	45	120	9.450605	148.5114	-311.6895	1	345.2622	-64.52351	2.165516E-007	-0.0001241	9
	46	123	7.512019	189.2354	-363.5567	1	409.8579	-62.50251	9.593817E-008	-0.0001322	9
	47	126	5.978954	238.3708	-418.1353	1	481.3084	-60.31338	5.681997E-008	-0.0001184	8
	48	129	4.734848	302.3619	-479.4891	1	566.862	-57.7648	7.23836E-007	-0.000105	8
	49	132	3.75601	378.924	-540.6317	1	660.2015	-54.97372	1.334886E-007	-0.0001299	8
	50	135	3.004808	465.602	-597.4785	1	757.4733	-52.07149	6.670824E-007	-0.0001387	8
	51	139	2.372217	569.3089	-653.5313	1	866.727	-48.93999	3.285221E-007	-0.0001526	8
	52	143	1.878005	684.4393	-702.3148	1	980.665	-45.73851	3.219133E-007	-0.000123	8
	53	148	1.512097	796.0237	-741.438	1	1087.835	-42.96664	5.719465E-007	-0.0002265	8
	54	153	1.201923	920.4307	-777.252	1	1204.705	-40.17921	4.074406E-007	-0.0001153	8
	55	160	0.956633	1047.159	-807.0001	1	1322.041	-37.61988	2.506615E-007	-0.0006722	8
