EXPLAIN
TAG	EISPOT
TITLE	LABEL	Potentiostatic EIS	Test Identifier
DATE	LABEL	10/5/2021	Date
TIME	LABEL	18:25:59	Time
NOTES	NOTES	1	Notes...
	
PSTAT	PSTAT	REF3000-16137	Potentiostat
VDC	POTEN	0.00000E+000	T	DC Voltage (V)
FREQINIT	QUANT	3.00000E+005	Initial Freq. (Hz)
FREQFINAL	QUANT	1.00000E+000	Final Freq. (Hz)
PTSPERDEC	QUANT	1.00000E+001	Points/decade
VAC	QUANT	5.00000E+001	AC Voltage (mV rms)
AREA	QUANT	1.00000E+000	Sample Area (cm^2)
SPEED	SELECTOR	2	Optimize for:
ZGUESS	QUANT	1.00000E+003	Estimated Z (ohms)
EOC	QUANT	0	Open Circuit (V)
SEQUENCER	TOGGLE	TRUE	Run as Sequence
PSTATMODEL	IQUANT	5	Pstat Model
PSTATSECTION	LABEL	REF3000-16137	Pstat Section
PSTATSERIALNO	LABEL	16137	Pstat Serial Number
CTRLMODE	IQUANT	1	Control Mode
IESTAB	IQUANT	0	I/E Stability
CASPEED	IQUANT	1	Control Amp Speed
CONVENTION	IQUANT	1	Current Convention
ICHRANGE	IQUANT	2	Ich Range
ICHRANGEMODE	TOGGLE	F	Ich Auto Range
ICHOFFSETENABLE	TOGGLE	T	Ich Offset Enable
ICHOFFSET	QUANT	0	Ich Offset (V)
ICHFILTER	IQUANT	3	Ich Filter
VCHRANGE	IQUANT	2	Vch Range
VCHRANGEMODE	TOGGLE	F	Vch Auto Range
VCHOFFSETENABLE	TOGGLE	T	Vch Offset Enable
VCHOFFSET	QUANT	0	Vch Offset (V)
VCHFILTER	IQUANT	3	Vch Filter
ACHRANGE	IQUANT	2	Ach Range
ACHOFFSETENABLE	TOGGLE	F	Ach Offset Enable
ACHOFFSET	QUANT	0	Ach Offset (V)
ACHFILTER	IQUANT	3	Ach Filter
IERANGELOWERLIMIT	IQUANT	2	I/E Range Lower Limit
IERANGEMODE	TOGGLE	F	I/E AutoRange
IERANGE	IQUANT	11	I/E Range
POSFEEDENABLE	TOGGLE	F	Positive Feedback IR Comp
POSFEEDRESISTANCE	QUANT	0	Positive Feedback Resistance (ohm)
ACHSELECT	IQUANT	0	Ach Select
CABLEID	IQUANT	13	Cable ID
DCCALDATE	LABEL	9/10/2021	DC Calibration Date
ACCALDATE	LABEL	9/10/2021	AC Calibration Date
THERMOSELECT	IQUANT	1	Thermo Select
FRAMEWORKVERSION	QUANT	6.33	Framework Version
INSTRUMENTVERSION	LABEL	3.50	Instrument Version
COMPLIANCEVOLTAGE	IQUANT	0	Compliance Voltage
ZCURVE	TABLE
	Pt	Time	Freq	Zreal	Zimag	Zsig	Zmod	Zphz	Idc	Vdc	IERange
	#	s	Hz	ohm	ohm	V	ohm	°	A	V	#
	0	7	300046.9	11.44072	2.044976	1	11.62205	10.13433	7.64792E-005	-0.0008794	10
	1	11	238359.4	11.4606	1.629694	1	11.57589	8.093184	-2.093488E-005	-0.0005766	10
	2	14	189328.1	11.48637	1.275741	1	11.557	6.337619	-1.453988E-005	-0.0004424	10
	3	16	150421.9	11.50418	0.974589	1	11.54539	4.842309	-2.31328E-005	-0.0003358	10
	4	19	119484.4	11.55355	0.7289631	1	11.57652	3.610252	1.27821E-005	-0.0002605	10
	5	21	94921.88	11.59424	0.5307946	1	11.60638	2.621222	-1.028001E-007	-0.0001602	10
	6	24	75421.88	11.63581	0.3457608	1	11.64095	1.702057	-9.447706E-006	-0.0001379	10
	7	26	59859.37	11.68273	0.1815356	1	11.68414	0.8902357	-3.008473E-005	-0.0001672	10
	8	29	47578.12	11.73292	0.0351966	1	11.73297	0.1718765	-2.805519E-005	-0.0001629	10
	9	32	37828.12	11.78462	-0.105767	1	11.7851	-0.5142161	-3.062258E-005	-0.0001588	10
	10	34	30046.88	11.83911	-0.2472304	1	11.84169	-1.196306	-3.027883E-005	-0.0001527	10
	11	37	23859.38	11.89742	-0.3990715	1	11.90411	-1.921134	-2.907738E-005	-0.000153	10
	12	39	18984.38	11.95787	-0.5635119	1	11.97114	-2.698055	-1.734786E-005	-0.0001595	10
	13	41	15046.87	12.02438	-0.7545736	1	12.04803	-3.59081	5.301851E-006	-0.0001767	10
	14	44	11953.13	12.10324	-0.973809	1	12.14235	-4.600029	-2.285366E-005	-8.709373E-005	10
	15	46	9515.62	12.19245	-1.231236	1	12.25446	-5.766378	2.408238E-005	-0.0001315	10
	16	48	7546.875	12.29821	-1.542116	1	12.39452	-7.147216	2.609156E-005	-0.0001483	10
	17	51	5928.309	12.42665	-1.930413	1	12.57569	-8.830014	2.188487E-005	-0.0001534	10
	18	53	4733.456	12.57766	-2.366457	1	12.79834	-10.6555	-2.770093E-005	-0.0001249	10
	19	55	3796.875	12.75289	-2.876649	1	13.0733	-12.71138	-2.719551E-005	-0.0001391	10
	20	58	2987.132	12.98288	-3.531281	1	13.45456	-15.21607	2.40964E-005	-0.0001576	10
	21	60	2390.625	13.23863	-4.254584	1	13.9055	-17.81618	5.378405E-006	-0.0001752	10
	22	62	1884.191	13.56184	-5.186738	1	14.51984	-20.9294	-2.150692E-005	-0.0001059	10
	23	65	1516.544	13.90823	-6.189324	1	15.22322	-23.98963	1.841327E-005	-0.0001752	10
	24	67	1193.986	14.34353	-7.508844	1	16.19011	-27.63207	6.677411E-006	-0.0001327	10
	25	69	946.5144	14.82773	-9.057594	1	17.37532	-31.41888	2.003109E-005	-0.0001611	10
	26	72	751.7689	15.37026	-10.90675	1	18.84681	-35.35953	-2.07032E-005	-0.0001006	10
	27	74	597.4265	15.96853	-13.13955	1	20.6795	-39.44893	1.346753E-005	-0.000176	10
	28	76	477.4305	16.62864	-15.8167	1	22.9495	-43.56649	-1.877529E-006	-0.00012	10
	29	79	376.6741	17.39071	-19.27541	1	25.96109	-47.9425	-1.093747E-006	-0.000131	10
	30	81	298.2954	18.24043	-23.50009	1	29.7484	-52.18191	-1.343504E-006	-0.0001654	10
	31	83	237.7717	19.18832	-28.58002	1	34.42396	-56.123	-2.080016E-006	-0.000122	10
	32	86	189.0121	20.30926	-34.9426	1	40.41598	-59.83409	-1.699919E-006	-0.0001213	10
	33	88	150.2404	21.62634	-42.77549	1	47.93163	-63.17985	7.463046E-007	-0.0001343	9
	34	91	119.1737	23.28825	-52.62489	1	57.54756	-66.12903	8.077873E-007	-0.0001346	9
	35	93	95.0169	25.31633	-64.52335	1	69.31218	-68.57699	7.393652E-007	-0.0001361	9
	36	96	75.60484	27.90183	-79.31728	1	84.08177	-70.61941	7.756155E-007	-0.0001374	9
	37	98	54.50582	32.88017	-106.6071	1	111.5624	-72.85899	7.91263E-007	-0.0001454	9
	38	101	45.95588	36.31876	-124.4109	1	129.6037	-73.72611	7.659903E-007	-0.0001351	9
	39	103	37.20238	41.60822	-150.5262	1	156.171	-74.54823	8.016146E-007	-0.0001332	9
	40	105	30.04808	48.43042	-182.3881	1	188.7086	-75.12914	7.682845E-007	-0.0001417	9
	41	108	23.91582	57.92539	-223.7231	1	231.1004	-75.484	6.80688E-007	-0.0001424	9
	42	110	18.60119	71.75828	-279.5696	1	288.632	-75.60442	8.531736E-007	-0.0001375	9
	43	112	15.02404	87.57072	-337.4177	1	348.5962	-75.4509	7.636842E-007	-0.0001348	9
	44	115	12.01923	108.9728	-409.757	1	423.9998	-75.1072	6.288637E-007	-0.0001389	9
	45	117	9.450605	138.9018	-501.4029	1	520.287	-74.51587	6.978806E-007	-0.0001302	8
	46	120	7.512019	176.989	-608.302	1	633.527	-73.77734	6.782901E-007	-0.0001297	8
	47	123	5.978954	225.8038	-733.8239	1	767.7791	-72.89643	6.523757E-007	-0.0001254	8
	48	126	4.734848	290.0486	-886.579	1	932.8186	-71.88425	5.929904E-007	-0.0001298	8
	49	129	3.75601	370.3038	-1063.566	1	1126.187	-70.80331	7.08777E-007	-0.000115	8
	50	132	3.004808	468.0472	-1263.23	1	1347.152	-69.66951	6.195008E-007	-0.0001288	8
	51	136	2.372217	600.6528	-1510.465	1	1625.511	-68.31422	6.035822E-007	-0.0001818	8
	52	140	1.878005	764.1332	-1799.933	1	1955.418	-66.99712	7.015702E-007	-0.0001252	8
	53	145	1.512097	952.867	-2103.411	1	2309.176	-65.62898	6.463624E-007	-0.0001071	8
	54	150	1.201923	1215.278	-2477.203	1	2759.246	-63.86813	6.625366E-007	-0.0001082	8
	55	157	0.956633	1541.746	-2890.059	1	3275.579	-61.92163	4.627369E-007	-0.0006781	8
