EXPLAIN
TAG	EISPOT
TITLE	LABEL	Potentiostatic EIS	Test Identifier
DATE	LABEL	10/5/2021	Date
TIME	LABEL	18:03:35	Time
NOTES	NOTES	1	Notes...
	
PSTAT	PSTAT	REF3000-16137	Potentiostat
VDC	POTEN	0.00000E+000	T	DC Voltage (V)
FREQINIT	QUANT	3.00000E+005	Initial Freq. (Hz)
FREQFINAL	QUANT	1.00000E+000	Final Freq. (Hz)
PTSPERDEC	QUANT	1.00000E+001	Points/decade
VAC	QUANT	5.00000E+001	AC Voltage (mV rms)
AREA	QUANT	1.00000E+000	Sample Area (cm^2)
SPEED	SELECTOR	2	Optimize for:
ZGUESS	QUANT	1.00000E+003	Estimated Z (ohms)
EOC	QUANT	0	Open Circuit (V)
SEQUENCER	TOGGLE	TRUE	Run as Sequence
PSTATMODEL	IQUANT	5	Pstat Model
PSTATSECTION	LABEL	REF3000-16137	Pstat Section
PSTATSERIALNO	LABEL	16137	Pstat Serial Number
CTRLMODE	IQUANT	1	Control Mode
IESTAB	IQUANT	0	I/E Stability
CASPEED	IQUANT	1	Control Amp Speed
CONVENTION	IQUANT	1	Current Convention
ICHRANGE	IQUANT	2	Ich Range
ICHRANGEMODE	TOGGLE	F	Ich Auto Range
ICHOFFSETENABLE	TOGGLE	T	Ich Offset Enable
ICHOFFSET	QUANT	0	Ich Offset (V)
ICHFILTER	IQUANT	3	Ich Filter
VCHRANGE	IQUANT	2	Vch Range
VCHRANGEMODE	TOGGLE	F	Vch Auto Range
VCHOFFSETENABLE	TOGGLE	T	Vch Offset Enable
VCHOFFSET	QUANT	0	Vch Offset (V)
VCHFILTER	IQUANT	3	Vch Filter
ACHRANGE	IQUANT	2	Ach Range
ACHOFFSETENABLE	TOGGLE	F	Ach Offset Enable
ACHOFFSET	QUANT	0	Ach Offset (V)
ACHFILTER	IQUANT	3	Ach Filter
IERANGELOWERLIMIT	IQUANT	2	I/E Range Lower Limit
IERANGEMODE	TOGGLE	F	I/E AutoRange
IERANGE	IQUANT	11	I/E Range
POSFEEDENABLE	TOGGLE	F	Positive Feedback IR Comp
POSFEEDRESISTANCE	QUANT	0	Positive Feedback Resistance (ohm)
ACHSELECT	IQUANT	0	Ach Select
CABLEID	IQUANT	13	Cable ID
DCCALDATE	LABEL	9/10/2021	DC Calibration Date
ACCALDATE	LABEL	9/10/2021	AC Calibration Date
THERMOSELECT	IQUANT	1	Thermo Select
FRAMEWORKVERSION	QUANT	6.33	Framework Version
INSTRUMENTVERSION	LABEL	3.50	Instrument Version
COMPLIANCEVOLTAGE	IQUANT	0	Compliance Voltage
ZCURVE	TABLE
	Pt	Time	Freq	Zreal	Zimag	Zsig	Zmod	Zphz	Idc	Vdc	IERange
	#	s	Hz	ohm	ohm	V	ohm	°	A	V	#
	0	11	300046.9	3.278314	2.235016	1	3.9677	34.28452	-5.361498E-005	-0.0008928	10
	1	14	238359.4	3.252705	1.755666	1	3.696275	28.35821	-1.310531E-006	-0.0013324	10
	2	17	189328.1	3.235302	1.377452	1	3.516327	23.06222	-8.392314E-005	-0.0009317	10
	3	20	150421.9	3.233417	1.074562	1	3.407297	18.38321	-7.406233E-005	-0.000597	10
	4	22	119484.4	3.251691	0.654534	1	3.316913	11.381	-4.033536E-005	-0.0005584	12
	5	26	94921.88	3.228468	0.5820919	1	3.280524	10.22061	-3.227104E-005	0.0002951	11
	6	28	75421.88	3.23357	0.4065124	1	3.259022	7.165421	-8.846979E-005	0.0002675	11
	7	31	59859.37	3.241775	0.252172	1	3.251569	4.447981	-7.02566E-005	0.0003118	11
	8	33	47578.12	3.253243	0.1141007	1	3.255243	2.008707	-4.539911E-005	0.0003372	11
	9	36	37828.12	3.2688	-0.0150428	1	3.268834	-0.2636689	-2.474231E-005	0.0003806	11
	10	38	30046.88	3.289257	-0.1414095	1	3.292295	-2.461706	-7.298557E-005	0.0003078	11
	11	41	23859.38	3.313838	-0.2705007	1	3.32486	-4.666572	-6.002865E-005	0.0003638	11
	12	43	18984.38	3.344861	-0.4059852	1	3.369409	-6.920471	-6.500319E-005	0.0003674	11
	13	45	15046.87	3.383626	-0.5559165	1	3.428989	-9.33012	-7.785769E-005	0.0003635	11
	14	48	11953.13	3.42966	-0.7216007	1	3.504751	-11.88173	-7.820139E-005	0.0003232	11
	15	50	9515.62	3.48961	-0.9068622	1	3.60552	-14.56751	2.223297E-005	-0.0001429	10
	16	52	7546.875	3.557392	-1.125304	1	3.731133	-17.55364	1.983393E-005	-0.0001542	10
	17	55	5928.309	3.639877	-1.392735	1	3.897232	-20.93847	-2.443201E-005	-0.0001128	10
	18	57	4733.456	3.728061	-1.686446	1	4.091765	-24.34035	-1.502104E-005	-0.0001347	10
	19	59	3796.875	3.825884	-2.027012	1	4.329684	-27.91533	-1.796213E-005	-0.0001036	10
	20	62	2987.132	3.942389	-2.473658	1	4.654183	-32.10628	2.174325E-005	-0.0001466	10
	21	64	2390.625	4.063782	-2.976201	1	5.037073	-36.21801	1.318853E-005	-0.0001505	10
	22	66	1884.191	4.207834	-3.635999	1	5.561147	-40.83037	-1.352628E-005	-0.0001197	10
	23	69	1516.544	4.354941	-4.370835	1	6.170065	-45.10436	1.253568E-005	-0.0001592	10
	24	71	1193.986	4.537293	-5.371561	1	7.031408	-49.81262	2.119534E-005	-0.0001483	10
	25	74	946.5144	4.748116	-6.576912	1	8.111743	-54.17308	1.495343E-005	-0.0001582	10
	26	76	751.7689	4.985178	-8.07569	1	9.490458	-58.31268	-1.27194E-005	-0.0001215	10
	27	78	597.4265	5.283275	-9.92071	1	11.23982	-61.96246	-2.279195E-005	-0.0001179	10
	28	80	477.4305	5.64532	-12.14638	1	13.39418	-65.07223	-6.510545E-007	-0.000113	10
	29	83	376.6741	6.127001	-15.05042	1	16.24978	-67.84885	-8.463464E-007	-0.0001203	10
	30	85	298.2954	6.738173	-18.59744	1	19.78049	-70.08368	-3.498654E-007	-0.0001184	10
	31	87	237.7717	7.507425	-22.8452	1	24.04713	-71.80836	-9.96784E-007	-0.0001174	10
	32	90	189.0121	8.522294	-28.12951	1	29.39215	-73.14496	-1.868868E-006	-0.0001192	10
	33	92	150.2404	9.84956	-34.60534	1	35.97977	-74.1123	-2.278954E-006	-0.0001148	10
	34	95	119.1737	11.60342	-42.56319	1	44.11649	-74.7508	6.911028E-007	-0.0001279	9
	35	97	95.0169	13.88405	-52.09506	1	53.91347	-75.07676	6.65435E-007	-0.0001347	9
	36	100	75.60484	16.92359	-63.76636	1	65.97391	-75.13637	5.351008E-007	-0.0001311	9
	37	102	54.50582	23.06521	-84.82643	1	87.90636	-74.78844	4.788019E-007	-0.0001397	9
	38	105	45.95588	27.37572	-98.2367	1	101.9798	-74.42839	7.910782E-007	-0.0001373	9
	39	107	37.20238	34.07589	-117.4797	1	122.3219	-73.8248	5.491953E-007	-0.0001331	9
	40	109	30.04808	42.76499	-140.348	1	146.7188	-73.05367	4.940227E-007	-0.0001346	9
	41	112	23.91582	54.68911	-169.0199	1	177.6474	-72.07018	4.819531E-007	-0.0001389	9
	42	114	18.60119	71.60683	-206.2702	1	218.3459	-70.85553	4.18443E-007	-0.0001376	9
	43	116	15.02404	90.08759	-243.4241	1	259.5594	-69.69125	1.117866E-006	-0.0001253	9
	44	119	12.01923	114.5006	-288.1213	1	310.0392	-68.32692	2.634528E-007	-0.0001382	9
	45	121	9.450605	147.6615	-343.6937	1	374.0712	-66.75013	5.037847E-007	-0.0001208	9
	46	124	7.512019	187.5012	-403.1207	1	444.5931	-65.05573	2.420016E-007	-0.0001118	8
	47	126	5.978954	237.9805	-470.7552	1	527.4895	-63.18207	2.41412E-007	-0.0001174	8
	48	129	4.734848	303.4343	-547.7984	1	626.2231	-61.01723	7.120071E-007	-0.0001104	8
	49	133	3.75601	383.8145	-628.6859	1	736.5864	-58.59582	2.022362E-007	-0.000133	8
	50	136	3.004808	478.347	-709.1011	1	855.3597	-55.9971	4.56129E-007	-0.0001189	8
	51	140	2.372217	596.9877	-792.2131	1	991.966	-52.99943	4.37991E-007	-6.222608E-005	8
	52	144	1.878005	731.2997	-872.6353	1	1138.548	-50.03578	2.981378E-007	-0.0001366	8
	53	149	1.512097	866.9446	-940.1293	1	1278.842	-47.31915	3.931909E-007	-0.0001319	8
	54	154	1.201923	1025.037	-1004.717	1	1435.325	-44.42642	5.027923E-007	-0.0001512	8
	55	160	0.956633	1190.883	-1063.414	1	1596.575	-41.76367	2.635062E-007	-0.0006668	8
