EXPLAIN
TAG	EISPOT
TITLE	LABEL	Potentiostatic EIS	Test Identifier
DATE	LABEL	10/5/2021	Date
TIME	LABEL	18:54:06	Time
NOTES	NOTES	1	Notes...
	
PSTAT	PSTAT	REF3000-16137	Potentiostat
VDC	POTEN	0.00000E+000	T	DC Voltage (V)
FREQINIT	QUANT	3.00000E+005	Initial Freq. (Hz)
FREQFINAL	QUANT	1.00000E+000	Final Freq. (Hz)
PTSPERDEC	QUANT	1.00000E+001	Points/decade
VAC	QUANT	5.00000E+001	AC Voltage (mV rms)
AREA	QUANT	1.00000E+000	Sample Area (cm^2)
SPEED	SELECTOR	2	Optimize for:
ZGUESS	QUANT	1.00000E+003	Estimated Z (ohms)
EOC	QUANT	0	Open Circuit (V)
SEQUENCER	TOGGLE	TRUE	Run as Sequence
PSTATMODEL	IQUANT	5	Pstat Model
PSTATSECTION	LABEL	REF3000-16137	Pstat Section
PSTATSERIALNO	LABEL	16137	Pstat Serial Number
CTRLMODE	IQUANT	1	Control Mode
IESTAB	IQUANT	0	I/E Stability
CASPEED	IQUANT	1	Control Amp Speed
CONVENTION	IQUANT	1	Current Convention
ICHRANGE	IQUANT	2	Ich Range
ICHRANGEMODE	TOGGLE	F	Ich Auto Range
ICHOFFSETENABLE	TOGGLE	T	Ich Offset Enable
ICHOFFSET	QUANT	0	Ich Offset (V)
ICHFILTER	IQUANT	3	Ich Filter
VCHRANGE	IQUANT	2	Vch Range
VCHRANGEMODE	TOGGLE	F	Vch Auto Range
VCHOFFSETENABLE	TOGGLE	T	Vch Offset Enable
VCHOFFSET	QUANT	0	Vch Offset (V)
VCHFILTER	IQUANT	3	Vch Filter
ACHRANGE	IQUANT	2	Ach Range
ACHOFFSETENABLE	TOGGLE	F	Ach Offset Enable
ACHOFFSET	QUANT	0	Ach Offset (V)
ACHFILTER	IQUANT	3	Ach Filter
IERANGELOWERLIMIT	IQUANT	2	I/E Range Lower Limit
IERANGEMODE	TOGGLE	F	I/E AutoRange
IERANGE	IQUANT	11	I/E Range
POSFEEDENABLE	TOGGLE	F	Positive Feedback IR Comp
POSFEEDRESISTANCE	QUANT	0	Positive Feedback Resistance (ohm)
ACHSELECT	IQUANT	0	Ach Select
CABLEID	IQUANT	13	Cable ID
DCCALDATE	LABEL	9/10/2021	DC Calibration Date
ACCALDATE	LABEL	9/10/2021	AC Calibration Date
THERMOSELECT	IQUANT	1	Thermo Select
FRAMEWORKVERSION	QUANT	6.33	Framework Version
INSTRUMENTVERSION	LABEL	3.50	Instrument Version
COMPLIANCEVOLTAGE	IQUANT	0	Compliance Voltage
ZCURVE	TABLE
	Pt	Time	Freq	Zreal	Zimag	Zsig	Zmod	Zphz	Idc	Vdc	IERange
	#	s	Hz	ohm	ohm	V	ohm	°	A	V	#
	0	17	300046.9	370.2783	-57.07432	1	374.6512	-8.762551	8.529609E-005	-0.0032246	9
	1	22	238359.4	381.2777	-50.59422	1	384.6199	-7.55879	8.084236E-006	-0.0021441	9
	2	28	189328.1	391.9596	-42.90368	1	394.3007	-6.246695	8.438425E-005	-0.0030064	9
	3	32	150421.9	406.1239	-40.26532	1	408.1151	-5.662109	5.120077E-005	-0.0003901	9
	4	41	119484.4	414.9529	-32.17142	1	416.1982	-4.433291	7.614053E-005	-0.0032853	9
	5	48	94921.88	421.3114	-28.04701	1	422.2439	-3.808603	2.794174E-005	-0.0008903	9
	6	50	75421.88	426.8729	-13.57814	1	427.0887	-1.821873	1.368608E-005	-0.0058726	8
	7	53	59859.37	430.4924	-11.87598	1	430.6562	-1.580216	6.653548E-006	-0.0052367	8
	8	55	47578.12	434.3952	-9.95162	1	434.5092	-1.312367	1.464525E-005	-0.003181	8
	9	58	37828.12	437.9049	-8.398841	1	437.9854	-1.098775	-3.528365E-006	-0.0023976	8
	10	60	30046.88	442.1017	-7.015461	1	442.1573	-0.9091181	-3.10963E-006	-0.0024734	8
	11	63	23859.38	445.0052	-6.863367	1	445.0581	-0.8836094	7.493164E-006	0.0006611	8
	12	65	18984.38	449.0698	-5.978604	1	449.1096	-0.7627512	7.630059E-006	0.0007287	8
	13	67	15046.87	451.3588	-5.673421	1	451.3945	-0.7201498	-8.63729E-006	-0.0005284	8
	14	70	11953.13	456.3549	-4.82383	1	456.3804	-0.6056137	-4.430324E-006	-0.0018644	8
	15	72	9515.62	460.069	-4.070595	1	460.087	-0.5069278	1.48993E-005	-0.0052034	8
	16	75	7546.875	463.2742	-6.033674	1	463.3134	-0.7461769	1.070745E-005	-0.0059395	8
	17	77	5928.309	467.549	-3.947514	1	467.5657	-0.4837365	1.642071E-006	-0.0042314	8
	18	79	4733.456	471.5842	-5.082163	1	471.6116	-0.6174406	1.526628E-005	-0.0033156	8
	19	82	3796.875	473.3546	-7.391655	1	473.4123	-0.894628	1.625347E-005	-0.0034859	8
	20	84	2987.132	477.5993	-6.933325	1	477.6497	-0.8317062	6.767167E-006	-0.0053776	8
	21	86	2390.625	481.7023	-8.741015	1	481.7816	-1.039581	1.120098E-005	-0.0060426	8
	22	89	1884.191	485.4106	-13.47508	1	485.5977	-1.590132	1.26591E-005	-0.0015504	8
	23	91	1516.544	490.804	-12.58229	1	490.9652	-1.468518	1.607037E-005	-0.0055832	8
	24	93	1193.986	493.4614	-14.48054	1	493.6739	-1.680852	1.61079E-005	-0.0055528	8
	25	96	946.5144	497.7711	-16.98446	1	498.0608	-1.954233	1.446203E-005	-0.0061179	8
	26	98	751.7689	502.0352	-20.47428	1	502.4525	-2.335375	1.127082E-005	-0.0061354	8
	27	100	597.4265	505.9118	-25.01604	1	506.5299	-2.830823	1.601027E-005	-0.0034409	8
	28	103	477.4305	511.936	-30.96202	1	512.8715	-3.461048	-1.681791E-007	-0.0001289	8
	29	105	376.6741	516.978	-38.10487	1	518.3804	-4.215474	-1.980556E-007	-0.0001273	8
	30	107	298.2954	522.5039	-46.83384	1	524.5986	-5.121933	-1.95755E-007	-0.0001221	8
	31	110	237.7717	528.6372	-57.2618	1	531.7294	-6.182156	-1.630479E-007	-0.0001441	8
	32	112	189.0121	535.5468	-70.14481	1	540.121	-7.462005	-1.820279E-007	-0.0001378	8
	33	115	150.2404	543.3109	-85.8373	1	550.0498	-8.977911	-2.115402E-007	-0.0001121	8
	34	117	119.1737	552.1932	-105.0624	1	562.0991	-10.77256	-2.059516E-007	-0.0001191	8
	35	119	95.0169	562.3755	-127.7275	1	576.698	-12.79602	-1.898128E-007	-0.0001243	8
	36	122	75.60484	574.4625	-155.1959	1	595.0571	-15.11804	-1.747683E-007	-0.0001321	8
	37	124	54.50582	593.3359	-204.0363	1	627.4379	-18.97707	-2.214391E-007	-0.0001238	8
	38	127	45.95588	606.9727	-234.9831	1	650.8709	-21.16339	-2.576137E-007	-0.0001114	8
	39	129	37.20238	624.4919	-279.3056	1	684.1065	-24.0967	-2.26663E-007	-0.0001373	8
	40	132	30.04808	644.7316	-332.3108	1	725.3339	-27.26771	-1.875388E-007	-0.0001239	8
	41	134	23.91582	668.6755	-399.7639	1	779.0623	-30.87285	-2.051025E-007	-0.000163	8
	42	136	18.60119	697.6421	-489.8152	1	852.4221	-35.07273	-2.37561E-007	-0.0001231	8
	43	139	15.02404	726.4127	-582.8286	1	931.324	-38.7414	-2.230708E-007	-0.0001366	8
	44	141	12.01923	759.6229	-700.2792	1	1033.159	-42.67226	-1.431817E-007	-0.0001398	8
	45	144	9.450605	799.029	-854.731	1	1170.048	-46.92911	-2.600318E-007	-0.0001329	8
	46	146	7.512019	842.3788	-1037.555	1	1336.459	-50.92725	-2.255847E-007	-0.0001249	8
	47	149	5.978954	891.4208	-1261.267	1	1544.482	-54.74862	-2.302226E-007	-0.0001192	8
	48	152	4.734848	950.878	-1545.794	1	1814.841	-58.40271	-2.164772E-007	-0.0001078	8
	49	155	3.75601	1020.188	-1894.716	1	2151.914	-61.70025	-2.156344E-007	-0.0001331	8
	50	159	3.004808	1100.164	-2307.875	1	2556.687	-64.51287	-2.23676E-007	-0.0001338	8
	51	162	2.372217	1204.787	-2848.193	1	3092.526	-67.07162	-2.217542E-007	-0.0001256	8
	52	166	1.878005	1339.615	-3519.637	1	3765.955	-69.16259	-2.455132E-007	-0.0001295	8
	53	171	1.512097	1489.561	-4284.657	1	4536.196	-70.82999	-3.387184E-008	-0.0001752	7
	54	177	1.201923	1701.619	-5280.507	1	5547.906	-72.13871	-5.434179E-008	-0.0001149	7
	55	183	0.956633	1959.61	-6485.78	1	6775.354	-73.18836	-5.218396E-008	-0.0006576	7
