EXPLAIN
TAG	EISPOT
TITLE	LABEL	Potentiostatic EIS	Test Identifier
DATE	LABEL	10/5/2021	Date
TIME	LABEL	17:29:27	Time
NOTES	NOTES	1	Notes...
	
PSTAT	PSTAT	REF3000-16137	Potentiostat
VDC	POTEN	0.00000E+000	T	DC Voltage (V)
FREQINIT	QUANT	3.00000E+005	Initial Freq. (Hz)
FREQFINAL	QUANT	1.00000E+000	Final Freq. (Hz)
PTSPERDEC	QUANT	1.00000E+001	Points/decade
VAC	QUANT	5.00000E+001	AC Voltage (mV rms)
AREA	QUANT	1.00000E+000	Sample Area (cm^2)
SPEED	SELECTOR	2	Optimize for:
ZGUESS	QUANT	1.00000E+003	Estimated Z (ohms)
EOC	QUANT	0	Open Circuit (V)
SEQUENCER	TOGGLE	TRUE	Run as Sequence
PSTATMODEL	IQUANT	5	Pstat Model
PSTATSECTION	LABEL	REF3000-16137	Pstat Section
PSTATSERIALNO	LABEL	16137	Pstat Serial Number
CTRLMODE	IQUANT	1	Control Mode
IESTAB	IQUANT	0	I/E Stability
CASPEED	IQUANT	1	Control Amp Speed
CONVENTION	IQUANT	1	Current Convention
ICHRANGE	IQUANT	2	Ich Range
ICHRANGEMODE	TOGGLE	F	Ich Auto Range
ICHOFFSETENABLE	TOGGLE	T	Ich Offset Enable
ICHOFFSET	QUANT	0	Ich Offset (V)
ICHFILTER	IQUANT	3	Ich Filter
VCHRANGE	IQUANT	2	Vch Range
VCHRANGEMODE	TOGGLE	F	Vch Auto Range
VCHOFFSETENABLE	TOGGLE	T	Vch Offset Enable
VCHOFFSET	QUANT	0	Vch Offset (V)
VCHFILTER	IQUANT	3	Vch Filter
ACHRANGE	IQUANT	2	Ach Range
ACHOFFSETENABLE	TOGGLE	F	Ach Offset Enable
ACHOFFSET	QUANT	0	Ach Offset (V)
ACHFILTER	IQUANT	3	Ach Filter
IERANGELOWERLIMIT	IQUANT	2	I/E Range Lower Limit
IERANGEMODE	TOGGLE	F	I/E AutoRange
IERANGE	IQUANT	11	I/E Range
POSFEEDENABLE	TOGGLE	F	Positive Feedback IR Comp
POSFEEDRESISTANCE	QUANT	0	Positive Feedback Resistance (ohm)
ACHSELECT	IQUANT	0	Ach Select
CABLEID	IQUANT	13	Cable ID
DCCALDATE	LABEL	9/10/2021	DC Calibration Date
ACCALDATE	LABEL	9/10/2021	AC Calibration Date
THERMOSELECT	IQUANT	1	Thermo Select
FRAMEWORKVERSION	QUANT	6.33	Framework Version
INSTRUMENTVERSION	LABEL	3.50	Instrument Version
COMPLIANCEVOLTAGE	IQUANT	0	Compliance Voltage
ZCURVE	TABLE
	Pt	Time	Freq	Zreal	Zimag	Zsig	Zmod	Zphz	Idc	Vdc	IERange
	#	s	Hz	ohm	ohm	V	ohm	°	A	V	#
	0	10	300046.9	1.666349	2.225317	1	2.780063	53.17361	-0.0001607	-0.0006998	11
	1	13	238359.4	1.762018	1.605508	1	2.383771	42.33904	-0.0001175	-0.0010716	12
	2	18	189328.1	1.679379	1.274077	1	2.107981	37.18612	-0.0002515	-0.0010654	12
	3	21	150421.9	1.579478	1.08163	1	1.914334	34.40343	1.879001E-005	-0.000177	11
	4	24	119484.4	1.574773	0.8318049	1	1.780957	27.8433	-7.872657E-005	-3.465083E-005	11
	5	26	94921.88	1.569061	0.6253732	1	1.689095	21.73051	-5.598759E-005	6.811723E-005	11
	6	29	75421.88	1.570729	0.4528201	1	1.634697	16.08156	-5.91669E-005	0.0001179	11
	7	31	59859.37	1.574276	0.3054046	1	1.603626	10.97883	-8.386034E-005	0.0001689	11
	8	34	47578.12	1.582934	0.178241	1	1.592937	6.424539	-7.779829E-005	0.0002477	11
	9	36	37828.12	1.593048	0.0632943	1	1.594305	2.275256	-2.75603E-005	0.0002853	11
	10	39	30046.88	1.607704	-0.0433388	1	1.608288	-1.544146	-3.122016E-005	0.0003363	11
	11	41	23859.38	1.62516	-0.1470662	1	1.6318	-5.170806	-3.769237E-005	0.0003353	11
	12	44	18984.38	1.645494	-0.2511122	1	1.664545	-8.676734	-4.56134E-005	0.0003552	11
	13	46	15046.87	1.66922	-0.3626338	1	1.708157	-12.2569	-5.825288E-005	0.0003665	11
	14	48	11953.13	1.695533	-0.4838162	1	1.763211	-15.92597	-5.93545E-005	0.0003689	11
	15	51	9515.62	1.724432	-0.6200189	1	1.832509	-19.77603	-3.657507E-005	0.0003741	11
	16	53	7546.875	1.757201	-0.7807028	1	1.922824	-23.95499	-7.444695E-005	0.0003555	11
	17	55	5928.309	1.795462	-0.980623	1	2.045802	-28.64193	-2.942725E-005	0.0003579	11
	18	58	4733.456	1.835787	-1.206696	1	2.196867	-33.31764	-7.100194E-005	0.0003444	11
	19	60	3796.875	1.881531	-1.474593	1	2.39052	-38.0865	-4.862882E-005	0.0003662	11
	20	62	2987.132	1.938617	-1.834932	1	2.669309	-43.42609	-7.228298E-005	0.0003432	11
	21	65	2390.625	2.003752	-2.245687	1	3.009673	-48.25854	-4.229945E-005	0.0003391	11
	22	67	1884.191	2.090221	-2.790243	1	3.486328	-53.16246	-1.495661E-005	0.0003757	11
	23	69	1516.544	2.191228	-3.404433	1	4.04866	-57.23306	-2.669665E-005	-0.0001306	10
	24	71	1193.986	2.330573	-4.233281	1	4.832415	-61.16564	-2.089991E-005	-0.000129	10
	25	74	946.5144	2.507336	-5.229337	1	5.79937	-64.38345	-3.229117E-005	-0.0001414	10
	26	76	751.7689	2.737964	-6.44637	1	7.003723	-66.98763	-2.119523E-005	-0.0001296	10
	27	79	597.4265	3.038615	-7.933252	1	8.495274	-69.04203	-1.680574E-005	-0.0001751	10
	28	81	477.4305	3.428953	-9.71167	1	10.29924	-70.55312	-2.935659E-006	-0.0001231	10
	29	83	376.6741	3.969319	-11.99822	1	12.63775	-71.69447	-2.901731E-006	-0.0001293	10
	30	86	298.2954	4.677011	-14.74923	1	15.47302	-72.40608	-3.107447E-006	-0.0001241	10
	31	88	237.7717	5.58747	-17.98762	1	18.83545	-72.74371	-3.287302E-006	-0.000127	10
	32	90	189.0121	6.803752	-21.93457	1	22.96555	-72.76694	-3.372417E-006	-0.0001217	10
	33	93	150.2404	8.407385	-26.66257	1	27.95669	-72.49861	7.196916E-007	-0.0001751	10
	34	95	119.1737	10.53012	-32.36349	1	34.0335	-71.97665	-3.719298E-006	-0.0001275	10
	35	98	95.0169	13.22729	-38.94737	1	41.13221	-71.2415	-3.499309E-006	-0.0001224	10
	36	100	75.60484	16.71373	-46.69261	1	49.59383	-70.30505	-1.492472E-006	-0.0001386	9
	37	103	54.50582	23.48764	-60.15296	1	64.5759	-68.67109	-1.623745E-006	-0.0001485	9
	38	105	45.95588	28.0539	-68.39124	1	73.92147	-67.69669	-1.569034E-006	-0.0001341	9
	39	107	37.20238	34.97206	-79.87604	1	87.19648	-66.35479	-1.176236E-006	-0.0001408	9
	40	110	30.04808	43.68737	-93.01714	1	102.7656	-64.84196	-1.122638E-006	-0.000141	9
	41	112	23.91582	55.47926	-108.8664	1	122.1878	-62.99622	-1.275404E-006	-0.0001421	9
	42	115	18.60119	72.21149	-128.1251	1	147.0733	-60.59433	-7.341973E-007	-0.0001813	9
	43	117	15.02404	90.1823	-145.6248	1	171.2876	-58.23096	-6.133737E-007	-0.0001273	9
	44	119	12.01923	113.2786	-164.212	1	199.4934	-55.40086	-2.017035E-006	-0.0001396	9
	45	122	9.450605	143.1969	-183.4218	1	232.6992	-52.02092	-1.598581E-006	-0.0001277	9
	46	124	7.512019	176.1419	-199.3511	1	266.0204	-48.53695	-1.469163E-006	-0.0001535	9
	47	127	5.978954	212.9457	-212.1857	1	300.6138	-44.89758	-1.049167E-006	-0.0001327	9
	48	130	4.734848	252.7971	-220.8874	1	335.7047	-41.14611	-1.114749E-006	-0.0001621	9
	49	133	3.75601	293.3586	-225.3016	1	369.8919	-37.52454	-1.229202E-007	-0.0001253	9
	50	137	3.004808	330.5217	-225.0763	1	399.8799	-34.25381	-1.79066E-008	-0.0001426	8
	51	140	2.372217	369.7959	-221.6568	1	431.1389	-30.9386	-5.39442E-007	-0.0002	8
	52	145	1.878005	406.1555	-216.2733	1	460.1483	-28.0348	-1.096003E-007	-0.0001227	8
	53	149	1.512097	437.1019	-210.5039	1	485.1494	-25.715	-1.473287E-007	-0.0001868	8
	54	155	1.201923	468.082	-203.8792	1	510.5561	-23.53616	-5.688792E-007	-0.0001027	8
	55	161	0.956633	496.981	-197.7242	1	534.8691	-21.69517	-2.212976E-006	-0.0006759	8
