EXPLAIN
TAG	EISPOT
TITLE	LABEL	Potentiostatic EIS	Test Identifier
DATE	LABEL	10/5/2021	Date
TIME	LABEL	18:42:42	Time
NOTES	NOTES	1	Notes...
	
PSTAT	PSTAT	REF3000-16137	Potentiostat
VDC	POTEN	0.00000E+000	T	DC Voltage (V)
FREQINIT	QUANT	3.00000E+005	Initial Freq. (Hz)
FREQFINAL	QUANT	1.00000E+000	Final Freq. (Hz)
PTSPERDEC	QUANT	1.00000E+001	Points/decade
VAC	QUANT	5.00000E+001	AC Voltage (mV rms)
AREA	QUANT	1.00000E+000	Sample Area (cm^2)
SPEED	SELECTOR	2	Optimize for:
ZGUESS	QUANT	1.00000E+003	Estimated Z (ohms)
EOC	QUANT	0	Open Circuit (V)
SEQUENCER	TOGGLE	TRUE	Run as Sequence
PSTATMODEL	IQUANT	5	Pstat Model
PSTATSECTION	LABEL	REF3000-16137	Pstat Section
PSTATSERIALNO	LABEL	16137	Pstat Serial Number
CTRLMODE	IQUANT	1	Control Mode
IESTAB	IQUANT	0	I/E Stability
CASPEED	IQUANT	1	Control Amp Speed
CONVENTION	IQUANT	1	Current Convention
ICHRANGE	IQUANT	2	Ich Range
ICHRANGEMODE	TOGGLE	F	Ich Auto Range
ICHOFFSETENABLE	TOGGLE	T	Ich Offset Enable
ICHOFFSET	QUANT	0	Ich Offset (V)
ICHFILTER	IQUANT	3	Ich Filter
VCHRANGE	IQUANT	2	Vch Range
VCHRANGEMODE	TOGGLE	F	Vch Auto Range
VCHOFFSETENABLE	TOGGLE	T	Vch Offset Enable
VCHOFFSET	QUANT	0	Vch Offset (V)
VCHFILTER	IQUANT	3	Vch Filter
ACHRANGE	IQUANT	2	Ach Range
ACHOFFSETENABLE	TOGGLE	F	Ach Offset Enable
ACHOFFSET	QUANT	0	Ach Offset (V)
ACHFILTER	IQUANT	3	Ach Filter
IERANGELOWERLIMIT	IQUANT	2	I/E Range Lower Limit
IERANGEMODE	TOGGLE	F	I/E AutoRange
IERANGE	IQUANT	11	I/E Range
POSFEEDENABLE	TOGGLE	F	Positive Feedback IR Comp
POSFEEDRESISTANCE	QUANT	0	Positive Feedback Resistance (ohm)
ACHSELECT	IQUANT	0	Ach Select
CABLEID	IQUANT	13	Cable ID
DCCALDATE	LABEL	9/10/2021	DC Calibration Date
ACCALDATE	LABEL	9/10/2021	AC Calibration Date
THERMOSELECT	IQUANT	1	Thermo Select
FRAMEWORKVERSION	QUANT	6.33	Framework Version
INSTRUMENTVERSION	LABEL	3.50	Instrument Version
COMPLIANCEVOLTAGE	IQUANT	0	Compliance Voltage
ZCURVE	TABLE
	Pt	Time	Freq	Zreal	Zimag	Zsig	Zmod	Zphz	Idc	Vdc	IERange
	#	s	Hz	ohm	ohm	V	ohm	°	A	V	#
	0	7	300046.9	64.39397	0.9262278	1	64.40063	0.8240723	2.954099E-005	-0.0004921	9
	1	10	238359.4	65.06362	0.5891151	1	65.06629	0.5187675	8.506709E-006	-0.0016957	9
	2	14	189328.1	65.5228	0.3561415	1	65.52377	0.3114214	1.216738E-005	-0.001451	9
	3	16	150421.9	65.82716	0.1146237	1	65.82726	0.0997681	6.515796E-006	-0.0008374	9
	4	19	119484.4	66.38751	0.0573385	1	66.38754	0.049486	-4.788492E-006	0.0003643	9
	5	21	94921.88	66.90692	0.0633739	1	66.90695	0.0542702	-1.649608E-005	0.0004052	9
	6	24	75421.88	67.27737	-0.0702101	1	67.2774	-0.0597934	1.549257E-005	-0.0008901	9
	7	26	59859.37	67.66806	-0.2287807	1	67.66845	-0.1937121	-1.765384E-005	0.0004773	9
	8	29	47578.12	68.08683	-0.362572	1	68.0878	-0.3051052	1.684531E-005	-0.0004201	9
	9	31	37828.12	68.49873	-0.4934228	1	68.5005	-0.4127165	-1.512303E-005	0.0005348	9
	10	34	30046.88	68.93416	-0.6489438	1	68.93721	-0.5393646	2.179967E-005	-0.0005138	9
	11	36	23859.38	69.33954	-0.7556578	1	69.34366	-0.6243809	1.588402E-005	-0.0008349	9
	12	39	18984.38	69.72366	-0.9088619	1	69.72958	-0.7468197	-1.909431E-005	0.0004227	9
	13	41	15046.87	70.19058	-1.11831	1	70.19949	-0.9127865	2.926013E-006	-0.0005942	9
	14	43	11953.13	70.5192	-1.415774	1	70.53342	-1.15014	1.00973E-005	-0.0007506	9
	15	46	9515.62	70.97379	-1.671458	1	70.99347	-1.349087	2.28301E-005	-0.000661	9
	16	48	7546.875	71.38526	-2.054447	1	71.41482	-1.648501	2.044295E-005	-0.000468	9
	17	50	5928.309	71.85095	-2.541886	1	71.8959	-2.026119	1.94667E-005	-0.0008236	9
	18	53	4733.456	72.32886	-3.115225	1	72.39591	-2.466222	2.071441E-005	-0.0005085	9
	19	55	3796.875	72.77997	-3.800452	1	72.87913	-2.989178	2.212953E-005	-0.0008022	9
	20	57	2987.132	73.39075	-4.660593	1	73.53858	-3.633621	-4.632359E-006	0.0003747	9
	21	60	2390.625	73.95632	-5.722025	1	74.17735	-4.42418	-1.903142E-005	0.0002564	9
	22	62	1884.191	74.71407	-7.096834	1	75.05036	-5.426051	2.03478E-005	-0.0004964	9
	23	64	1516.544	75.33146	-8.587566	1	75.81936	-6.503477	1.576372E-005	-0.0008395	9
	24	67	1193.986	76.21075	-10.6135	1	76.94625	-7.928308	3.453839E-006	-0.0006128	9
	25	69	946.5144	77.17508	-13.03633	1	78.26838	-9.58783	-1.933702E-005	0.0002753	9
	26	72	751.7689	78.32392	-15.93439	1	79.92835	-11.49944	-1.878532E-005	0.0005204	9
	27	74	597.4265	79.68694	-19.33479	1	81.99904	-13.63837	-4.941082E-006	0.0003939	9
	28	76	477.4305	81.28706	-23.41945	1	84.59348	-16.07211	7.374858E-007	-0.000138	9
	29	79	376.6741	83.20886	-28.51997	1	87.96081	-18.91923	7.301949E-007	-0.0001404	9
	30	81	298.2954	85.44185	-34.54793	1	92.16219	-22.01567	6.139714E-007	-0.0001361	9
	31	83	237.7717	87.99378	-41.5499	1	97.3103	-25.27627	6.718932E-007	-0.0001405	9
	32	86	189.0121	90.93919	-50.02396	1	103.7898	-28.81438	7.071944E-007	-0.00014	9
	33	88	150.2404	94.28263	-60.1992	1	111.8622	-32.55812	6.159509E-007	-0.0001368	9
	34	91	119.1737	98.0626	-72.61011	1	122.0184	-36.51797	6.181339E-007	-0.0001355	9
	35	93	95.0169	102.2053	-87.33203	1	134.4351	-40.51312	6.584868E-007	-0.0001385	9
	36	95	75.60484	106.8687	-105.441	1	150.129	-44.6147	6.818584E-007	-0.0001342	9
	37	98	54.50582	114.2996	-138.6679	1	179.7031	-50.50232	6.408864E-007	-0.0001396	9
	38	101	45.95588	118.9637	-160.4266	1	199.7224	-53.44137	6.681886E-007	-0.0001418	9
	39	103	37.20238	125.3092	-192.5376	1	229.724	-56.94272	6.823851E-007	-0.0001362	9
	40	105	30.04808	132.7176	-232.0435	1	267.3166	-60.23254	6.431649E-007	-0.0001374	9
	41	108	23.91582	142.1267	-283.9682	1	317.5499	-63.41193	5.782711E-007	-0.0001426	9
	42	110	18.60119	154.7603	-355.2946	1	387.5371	-66.46287	5.838174E-007	-0.0001334	9
	43	112	15.02404	167.4819	-428.5431	1	460.108	-68.65359	2.645846E-007	-0.0001234	8
	44	115	12.01923	185.0788	-523.8416	1	555.5756	-70.54115	2.602769E-007	-0.0001393	8
	45	117	9.450605	209.1046	-650.6939	1	683.4671	-72.18486	2.746638E-007	-0.0001348	8
	46	120	7.512019	238.7057	-800.2819	1	835.1237	-73.39137	2.691558E-007	-0.0001252	8
	47	122	5.978954	276.4927	-982.052	1	1020.232	-74.27565	2.591925E-007	-0.0001368	8
	48	125	4.734848	326.3971	-1210.542	1	1253.773	-74.91024	1.808972E-007	-0.0001572	8
	49	129	3.75601	391.8563	-1488.076	1	1538.805	-75.24717	2.650382E-007	-0.0001037	8
	50	132	3.004808	474.5277	-1812.908	1	1873.983	-75.33193	2.3514E-007	-0.000147	8
	51	136	2.372217	590.4813	-2233.091	1	2309.841	-75.18865	2.117838E-007	-0.0002017	8
	52	140	1.878005	737.5891	-2737.179	1	2834.817	-74.91871	2.312168E-007	-0.0001182	8
	53	145	1.512097	919.6693	-3291.829	1	3417.884	-74.39073	2.057186E-007	-0.0001881	8
	54	150	1.201923	1165.574	-4010.221	1	4176.174	-73.79346	2.199564E-007	-0.0000965	8
	55	156	0.956633	1486.446	-4863.6	1	5085.679	-73.00545	-4.208692E-009	-0.0006636	7
