EXPLAIN
TAG	EISPOT
TITLE	LABEL	Potentiostatic EIS	Test Identifier
DATE	LABEL	10/5/2021	Date
TIME	LABEL	17:26:37	Time
NOTES	NOTES	1	Notes...
	
PSTAT	PSTAT	REF3000-16137	Potentiostat
VDC	POTEN	0.00000E+000	T	DC Voltage (V)
FREQINIT	QUANT	3.00000E+005	Initial Freq. (Hz)
FREQFINAL	QUANT	1.00000E+000	Final Freq. (Hz)
PTSPERDEC	QUANT	1.00000E+001	Points/decade
VAC	QUANT	5.00000E+001	AC Voltage (mV rms)
AREA	QUANT	1.00000E+000	Sample Area (cm^2)
SPEED	SELECTOR	2	Optimize for:
ZGUESS	QUANT	1.00000E+003	Estimated Z (ohms)
EOC	QUANT	0	Open Circuit (V)
SEQUENCER	TOGGLE	TRUE	Run as Sequence
PSTATMODEL	IQUANT	5	Pstat Model
PSTATSECTION	LABEL	REF3000-16137	Pstat Section
PSTATSERIALNO	LABEL	16137	Pstat Serial Number
CTRLMODE	IQUANT	1	Control Mode
IESTAB	IQUANT	0	I/E Stability
CASPEED	IQUANT	1	Control Amp Speed
CONVENTION	IQUANT	1	Current Convention
ICHRANGE	IQUANT	2	Ich Range
ICHRANGEMODE	TOGGLE	F	Ich Auto Range
ICHOFFSETENABLE	TOGGLE	T	Ich Offset Enable
ICHOFFSET	QUANT	0	Ich Offset (V)
ICHFILTER	IQUANT	3	Ich Filter
VCHRANGE	IQUANT	2	Vch Range
VCHRANGEMODE	TOGGLE	F	Vch Auto Range
VCHOFFSETENABLE	TOGGLE	T	Vch Offset Enable
VCHOFFSET	QUANT	0	Vch Offset (V)
VCHFILTER	IQUANT	3	Vch Filter
ACHRANGE	IQUANT	2	Ach Range
ACHOFFSETENABLE	TOGGLE	F	Ach Offset Enable
ACHOFFSET	QUANT	0	Ach Offset (V)
ACHFILTER	IQUANT	3	Ach Filter
IERANGELOWERLIMIT	IQUANT	2	I/E Range Lower Limit
IERANGEMODE	TOGGLE	F	I/E AutoRange
IERANGE	IQUANT	11	I/E Range
POSFEEDENABLE	TOGGLE	F	Positive Feedback IR Comp
POSFEEDRESISTANCE	QUANT	0	Positive Feedback Resistance (ohm)
ACHSELECT	IQUANT	0	Ach Select
CABLEID	IQUANT	13	Cable ID
DCCALDATE	LABEL	9/10/2021	DC Calibration Date
ACCALDATE	LABEL	9/10/2021	AC Calibration Date
THERMOSELECT	IQUANT	1	Thermo Select
FRAMEWORKVERSION	QUANT	6.33	Framework Version
INSTRUMENTVERSION	LABEL	3.50	Instrument Version
COMPLIANCEVOLTAGE	IQUANT	0	Compliance Voltage
ZCURVE	TABLE
	Pt	Time	Freq	Zreal	Zimag	Zsig	Zmod	Zphz	Idc	Vdc	IERange
	#	s	Hz	ohm	ohm	V	ohm	°	A	V	#
	0	10	300046.9	1.635473	2.224654	1	2.761133	53.67823	-3.725545E-005	-0.0006487	11
	1	13	238359.4	1.726303	1.61452	1	2.363641	43.08361	-0.0001772	-0.0010992	12
	2	17	189328.1	1.643536	1.278655	1	2.082347	37.88256	-0.0001949	-0.000846	12
	3	21	150421.9	1.54744	1.085175	1	1.89002	35.04087	-4.711396E-005	-9.153558E-005	11
	4	23	119484.4	1.53001	0.8312483	1	1.741236	28.51506	-4.098923E-005	-6.136687E-005	11
	5	26	94921.88	1.528642	0.6276461	1	1.652478	22.3226	-7.446638E-005	5.438343E-005	11
	6	29	75421.88	1.528737	0.4542516	1	1.594798	16.54888	-2.142396E-005	0.0001285	11
	7	31	59859.37	1.533441	0.3087967	1	1.564224	11.38567	-7.086928E-005	0.0001823	11
	8	34	47578.12	1.54109	0.1821023	1	1.551812	6.739084	-2.377183E-005	0.0002003	11
	9	36	37828.12	1.551655	0.0686281	1	1.553172	2.532482	-6.688899E-005	0.0002838	11
	10	39	30046.88	1.565184	-0.0372869	1	1.565628	-1.364683	-3.327861E-005	0.000315	11
	11	41	23859.38	1.581936	-0.1396186	1	1.588085	-5.043745	-3.227851E-005	0.0003393	11
	12	44	18984.38	1.600844	-0.2420701	1	1.619042	-8.598786	-7.081448E-005	0.000315	11
	13	46	15046.87	1.624022	-0.3519301	1	1.661717	-12.2271	-2.337304E-005	0.0003785	11
	14	48	11953.13	1.649189	-0.4710268	1	1.715135	-15.93994	-6.440096E-005	0.0003489	11
	15	50	9515.62	1.677214	-0.6046948	1	1.782892	-19.82602	-3.013041E-005	0.0003783	11
	16	53	7546.875	1.708211	-0.7625711	1	1.870695	-24.0567	-9.26018E-005	0.0003351	11
	17	55	5928.309	1.745247	-0.95966	1	1.991692	-28.8051	-6.683821E-005	0.0003481	11
	18	57	4733.456	1.784041	-1.1823	1	2.140242	-33.53279	-7.124407E-005	0.0003534	11
	19	60	3796.875	1.826954	-1.446985	1	2.330564	-38.37994	-0.0000986	0.0003291	11
	20	62	2987.132	1.883653	-1.801182	1	2.606224	-43.71786	-2.574008E-005	0.0003589	11
	21	64	2390.625	1.947997	-2.207814	1	2.944339	-48.57741	-4.214076E-005	0.0003576	11
	22	67	1884.191	2.033429	-2.742363	1	3.413999	-53.44352	-8.606487E-005	0.0003421	11
	23	69	1516.544	2.132095	-3.342724	1	3.964799	-57.46898	-7.038942E-005	0.0003457	11
	24	71	1193.986	2.274695	-4.160147	1	4.741419	-61.33094	-2.786335E-005	-0.00013	10
	25	74	946.5144	2.449226	-5.140378	1	5.694048	-64.52369	1.865309E-005	-0.0001436	10
	26	76	751.7689	2.682306	-6.332099	1	6.87679	-67.04226	-5.959563E-006	-0.0001323	10
	27	78	597.4265	2.986212	-7.789272	1	8.342075	-69.02442	-1.099605E-005	-0.0001401	10
	28	81	477.4305	3.376732	-9.53156	1	10.11203	-70.49237	-3.249877E-006	-0.0001277	10
	29	83	376.6741	3.920597	-11.76878	1	12.40465	-71.57526	-3.568345E-006	-0.0001279	10
	30	85	298.2954	4.632366	-14.45661	1	15.18066	-72.23286	-3.345268E-006	-0.0001273	10
	31	88	237.7717	5.547051	-17.61596	1	18.46867	-72.52142	-3.199148E-006	-0.0001275	10
	32	90	189.0121	6.768698	-21.46015	1	22.50229	-72.49432	-3.4105E-006	-0.0001245	10
	33	92	150.2404	8.373015	-26.0594	1	27.37151	-72.18753	-3.506525E-006	-0.000125	10
	34	95	119.1737	10.49744	-31.58859	1	33.28717	-71.61745	-3.519418E-006	-0.0001243	10
	35	97	95.0169	13.1877	-37.96021	1	40.18573	-70.84234	-3.26914E-006	-0.0001249	10
	36	100	75.60484	16.65529	-45.44225	1	48.39832	-69.87132	-2.06149E-006	-0.0001462	9
	37	102	54.50582	23.37414	-58.41439	1	62.91734	-68.19151	-2.03036E-006	-0.0001451	9
	38	105	45.95588	27.904	-66.35017	1	71.97901	-67.19049	-1.72324E-006	-0.0001329	9
	39	107	37.20238	34.76816	-77.38275	1	84.83463	-65.80556	-1.358446E-006	-0.000145	9
	40	110	30.04808	43.47302	-90.00102	1	99.9504	-64.21815	-1.497342E-006	-0.0001391	9
	41	112	23.91582	55.2515	-105.117	1	118.7531	-62.27272	-1.601474E-006	-0.0001404	9
	42	114	18.60119	71.74071	-123.2151	1	142.5788	-59.79035	-1.427892E-006	-0.0001426	9
	43	117	15.02404	89.47643	-139.5275	1	165.7527	-57.32869	-5.369494E-007	-0.0001369	9
	44	119	12.01923	112.2503	-156.4901	1	192.5858	-54.34813	-2.247747E-006	-0.000142	9
	45	121	9.450605	141.319	-173.5283	1	223.7926	-50.84112	-1.721031E-006	-0.0001295	9
	46	124	7.512019	173.2003	-187.1688	1	255.0108	-47.21977	-1.741278E-006	-0.0001333	9
	47	127	5.978954	207.7504	-197.4871	1	286.6381	-43.5492	-1.500469E-006	-0.0001361	9
	48	130	4.734848	244.7807	-204.1771	1	318.7568	-39.83224	-1.266049E-007	-0.0001107	9
	49	133	3.75601	282.1559	-206.3924	1	349.5852	-36.18486	-1.767299E-006	-0.0001565	9
	50	136	3.004808	317.222	-205.1005	1	377.7513	-32.88476	-1.121653E-006	-0.000148	9
	51	140	2.372217	350.8416	-199.8232	1	403.7563	-29.66384	-1.601706E-006	-8.139076E-005	8
	52	144	1.878005	383.4344	-193.3311	1	429.4169	-26.75766	-2.075669E-006	-0.0001316	8
	53	149	1.512097	410.787	-187.4255	1	451.5244	-24.5253	-1.83928E-006	-0.0002002	8
	54	154	1.201923	437.7102	-180.8376	1	473.5953	-22.44771	-1.990156E-006	-0.0001343	8
	55	161	0.956633	462.7021	-174.9551	1	494.6741	-20.71241	-2.83553E-006	-0.00067	8
