EXPLAIN
TAG	EISPOT
TITLE	LABEL	Potentiostatic EIS	Test Identifier
DATE	LABEL	10/5/2021	Date
TIME	LABEL	18:50:59	Time
NOTES	NOTES	1	Notes...
	
PSTAT	PSTAT	REF3000-16137	Potentiostat
VDC	POTEN	0.00000E+000	T	DC Voltage (V)
FREQINIT	QUANT	3.00000E+005	Initial Freq. (Hz)
FREQFINAL	QUANT	1.00000E+000	Final Freq. (Hz)
PTSPERDEC	QUANT	1.00000E+001	Points/decade
VAC	QUANT	5.00000E+001	AC Voltage (mV rms)
AREA	QUANT	1.00000E+000	Sample Area (cm^2)
SPEED	SELECTOR	2	Optimize for:
ZGUESS	QUANT	1.00000E+003	Estimated Z (ohms)
EOC	QUANT	0	Open Circuit (V)
SEQUENCER	TOGGLE	TRUE	Run as Sequence
PSTATMODEL	IQUANT	5	Pstat Model
PSTATSECTION	LABEL	REF3000-16137	Pstat Section
PSTATSERIALNO	LABEL	16137	Pstat Serial Number
CTRLMODE	IQUANT	1	Control Mode
IESTAB	IQUANT	0	I/E Stability
CASPEED	IQUANT	1	Control Amp Speed
CONVENTION	IQUANT	1	Current Convention
ICHRANGE	IQUANT	2	Ich Range
ICHRANGEMODE	TOGGLE	F	Ich Auto Range
ICHOFFSETENABLE	TOGGLE	T	Ich Offset Enable
ICHOFFSET	QUANT	0	Ich Offset (V)
ICHFILTER	IQUANT	3	Ich Filter
VCHRANGE	IQUANT	2	Vch Range
VCHRANGEMODE	TOGGLE	F	Vch Auto Range
VCHOFFSETENABLE	TOGGLE	T	Vch Offset Enable
VCHOFFSET	QUANT	0	Vch Offset (V)
VCHFILTER	IQUANT	3	Vch Filter
ACHRANGE	IQUANT	2	Ach Range
ACHOFFSETENABLE	TOGGLE	F	Ach Offset Enable
ACHOFFSET	QUANT	0	Ach Offset (V)
ACHFILTER	IQUANT	3	Ach Filter
IERANGELOWERLIMIT	IQUANT	2	I/E Range Lower Limit
IERANGEMODE	TOGGLE	F	I/E AutoRange
IERANGE	IQUANT	11	I/E Range
POSFEEDENABLE	TOGGLE	F	Positive Feedback IR Comp
POSFEEDRESISTANCE	QUANT	0	Positive Feedback Resistance (ohm)
ACHSELECT	IQUANT	0	Ach Select
CABLEID	IQUANT	13	Cable ID
DCCALDATE	LABEL	9/10/2021	DC Calibration Date
ACCALDATE	LABEL	9/10/2021	AC Calibration Date
THERMOSELECT	IQUANT	1	Thermo Select
FRAMEWORKVERSION	QUANT	6.33	Framework Version
INSTRUMENTVERSION	LABEL	3.50	Instrument Version
COMPLIANCEVOLTAGE	IQUANT	0	Compliance Voltage
ZCURVE	TABLE
	Pt	Time	Freq	Zreal	Zimag	Zsig	Zmod	Zphz	Idc	Vdc	IERange
	#	s	Hz	ohm	ohm	V	ohm	°	A	V	#
	0	7	300046.9	215.8619	-17.91978	1	216.6044	-4.745529	-1.098509E-005	-0.0017631	9
	1	11	238359.4	219.0428	-15.43152	1	219.5857	-4.029817	1.723368E-005	-0.0013682	9
	2	16	189328.1	222.895	-13.11755	1	223.2807	-3.368017	7.047135E-005	-0.0032492	9
	3	19	150421.9	225.3465	-11.79885	1	225.6551	-2.997196	-9.372987E-005	0.0032316	9
	4	23	119484.4	229.2833	-9.314219	1	229.4724	-2.326258	-1.616203E-005	0.0010012	9
	5	28	94921.88	232.359	-8.201698	1	232.5037	-2.02156	-1.160949E-005	-0.0002766	9
	6	31	75421.88	234.5159	-6.986104	1	234.6199	-1.706306	2.540243E-005	-0.0010655	9
	7	33	59859.37	236.4752	-5.792359	1	236.5462	-1.403155	-2.464011E-005	0.0005259	9
	8	36	47578.12	239.0234	-5.058195	1	239.0769	-1.212308	6.01295E-006	-0.0008515	9
	9	39	37828.12	241.7094	-4.468013	1	241.7507	-1.058995	-2.469444E-005	0.000477	9
	10	43	30046.88	244.4471	-3.573078	1	244.4732	-0.8374317	1.146313E-005	-2.452093E-005	9
	11	47	23859.38	247.1006	-3.451513	1	247.1247	-0.8002581	6.499784E-006	-0.0008616	9
	12	50	18984.38	249.7892	-3.46841	1	249.8132	-0.7955207	-2.395555E-005	0.0002574	9
	13	54	15046.87	251.7476	-3.030175	1	251.7658	-0.6896108	2.164824E-005	-0.0010664	9
	14	57	11953.13	254.9042	-3.53322	1	254.9287	-0.7941241	1.942764E-005	-0.0003447	9
	15	61	9515.62	257.4388	-3.332088	1	257.4604	-0.7415506	-2.484962E-005	0.0007213	9
	16	64	7546.875	259.5303	-3.447535	1	259.5532	-0.7610577	1.49373E-005	-0.0010343	9
	17	68	5928.309	262.6584	-3.713522	1	262.6846	-0.8100064	-2.261144E-005	0.0003085	9
	18	71	4733.456	264.532	-4.48691	1	264.5701	-0.97174	-2.524963E-005	0.0006995	9
	19	73	3796.875	266.5986	-5.030915	1	266.646	-1.081086	-2.428202E-005	0.0003633	9
	20	76	2987.132	268.8287	-6.554907	1	268.9086	-1.396778	-2.486039E-005	0.0005129	9
	21	78	2390.625	271.3044	-7.23594	1	271.4009	-1.527769	1.189466E-005	7.125516E-005	9
	22	82	1884.191	272.4257	-8.909616	1	272.5714	-1.873177	6.081846E-006	-0.0008452	9
	23	84	1516.544	275.7755	-10.10408	1	275.9605	-2.098309	-2.204032E-005	0.000776	9
	24	86	1193.986	279.4047	-12.8284	1	279.699	-2.628793	2.722374E-005	-0.000897	9
	25	90	946.5144	281.4077	-15.72631	1	281.8467	-3.198617	2.661365E-005	-0.0006908	9
	26	92	751.7689	284.4339	-19.22859	1	285.0831	-3.867483	2.410159E-005	-0.0004836	9
	27	95	597.4265	287.6227	-23.68534	1	288.5963	-4.707607	2.651561E-005	-0.000704	9
	28	97	477.4305	290.2129	-28.72161	1	291.6307	-5.652007	3.75483E-007	-0.0001356	9
	29	99	376.6741	293.5425	-35.37255	1	295.6661	-6.871143	3.191425E-007	-0.0001349	9
	30	102	298.2954	297.3346	-43.42404	1	300.4888	-8.308983	3.863597E-007	-0.0001324	9
	31	104	237.7717	301.7093	-52.97409	1	306.3246	-9.95848	3.628867E-007	-0.000139	9
	32	107	189.0121	306.8002	-64.63914	1	313.5356	-11.89753	3.570097E-007	-0.0001717	9
	33	109	150.2404	312.751	-78.69247	1	322.4991	-14.12324	2.379015E-007	-0.000136	9
	34	112	119.1737	319.7383	-95.7116	1	333.7563	-16.66474	2.928549E-007	-0.0001318	9
	35	114	95.0169	327.773	-115.5807	1	347.5544	-19.42389	3.132914E-007	-0.0001354	9
	36	116	75.60484	337.2781	-139.4963	1	364.9873	-22.46971	3.664667E-007	-0.0001377	9
	37	119	54.50582	350.9253	-181.1949	1	394.9432	-27.30888	-1.128082E-007	-0.0001407	8
	38	122	45.95588	360.9829	-208.0968	1	416.6689	-29.96228	-1.346888E-007	-0.000124	8
	39	124	37.20238	374.0659	-246.8786	1	448.19	-33.42429	-1.063528E-007	-0.0001242	8
	40	126	30.04808	388.7589	-293.6474	1	487.1984	-37.06542	-1.258139E-007	-0.0001095	8
	41	129	23.91582	406.0472	-353.8179	1	538.5735	-41.06797	-1.400136E-007	-0.0001363	8
	42	131	18.60119	427.0259	-435.6087	1	610.0049	-45.57005	-3.195181E-008	-0.000133	8
	43	133	15.02404	447.4957	-520.9875	1	686.7899	-49.33949	-8.362804E-008	-0.0001245	8
	44	136	12.01923	471.4101	-629.7977	1	786.6846	-53.18476	-9.832705E-008	-0.0001215	8
	45	138	9.450605	500.9794	-774.9401	1	922.7744	-57.11834	-1.500494E-007	-0.0001034	8
	46	141	7.512019	534.2873	-947.2319	1	1087.525	-60.57478	-1.100798E-007	-0.0000967	8
	47	143	5.978954	574.6357	-1158.912	1	1293.554	-63.62592	-1.150365E-007	-0.0001175	8
	48	146	4.734848	624.4233	-1427.72	1	1558.297	-66.3775	-6.57084E-008	-0.0001081	8
	49	150	3.75601	687.4971	-1755.979	1	1885.766	-68.61877	-1.378642E-007	-0.0001257	8
	50	153	3.004808	763.1605	-2145.324	1	2277.022	-70.4179	-1.333968E-007	-0.0000991	8
	51	157	2.372217	862.2661	-2656.591	1	2793.023	-72.01781	-1.171628E-007	-6.918798E-005	8
	52	161	1.878005	993.252	-3278.462	1	3425.619	-73.14514	-1.271607E-007	-0.0001492	8
	53	166	1.512097	1150.699	-3981.144	1	4144.106	-73.87874	-1.174394E-007	-2.983765E-005	8
	54	171	1.201923	1358.41	-4909.958	1	5094.406	-74.53513	-1.622551E-008	-0.0001646	7
	55	177	0.956633	1623.167	-6025.747	1	6240.536	-74.92397	-4.463783E-008	-0.0006531	7
