EXPLAIN
TAG	EISPOT
TITLE	LABEL	Potentiostatic EIS	Test Identifier
DATE	LABEL	10/5/2021	Date
TIME	LABEL	17:40:48	Time
NOTES	NOTES	1	Notes...
	
PSTAT	PSTAT	REF3000-16137	Potentiostat
VDC	POTEN	0.00000E+000	T	DC Voltage (V)
FREQINIT	QUANT	3.00000E+005	Initial Freq. (Hz)
FREQFINAL	QUANT	1.00000E+000	Final Freq. (Hz)
PTSPERDEC	QUANT	1.00000E+001	Points/decade
VAC	QUANT	5.00000E+001	AC Voltage (mV rms)
AREA	QUANT	1.00000E+000	Sample Area (cm^2)
SPEED	SELECTOR	2	Optimize for:
ZGUESS	QUANT	1.00000E+003	Estimated Z (ohms)
EOC	QUANT	0	Open Circuit (V)
SEQUENCER	TOGGLE	TRUE	Run as Sequence
PSTATMODEL	IQUANT	5	Pstat Model
PSTATSECTION	LABEL	REF3000-16137	Pstat Section
PSTATSERIALNO	LABEL	16137	Pstat Serial Number
CTRLMODE	IQUANT	1	Control Mode
IESTAB	IQUANT	0	I/E Stability
CASPEED	IQUANT	1	Control Amp Speed
CONVENTION	IQUANT	1	Current Convention
ICHRANGE	IQUANT	2	Ich Range
ICHRANGEMODE	TOGGLE	F	Ich Auto Range
ICHOFFSETENABLE	TOGGLE	T	Ich Offset Enable
ICHOFFSET	QUANT	0	Ich Offset (V)
ICHFILTER	IQUANT	3	Ich Filter
VCHRANGE	IQUANT	2	Vch Range
VCHRANGEMODE	TOGGLE	F	Vch Auto Range
VCHOFFSETENABLE	TOGGLE	T	Vch Offset Enable
VCHOFFSET	QUANT	0	Vch Offset (V)
VCHFILTER	IQUANT	3	Vch Filter
ACHRANGE	IQUANT	2	Ach Range
ACHOFFSETENABLE	TOGGLE	F	Ach Offset Enable
ACHOFFSET	QUANT	0	Ach Offset (V)
ACHFILTER	IQUANT	3	Ach Filter
IERANGELOWERLIMIT	IQUANT	2	I/E Range Lower Limit
IERANGEMODE	TOGGLE	F	I/E AutoRange
IERANGE	IQUANT	11	I/E Range
POSFEEDENABLE	TOGGLE	F	Positive Feedback IR Comp
POSFEEDRESISTANCE	QUANT	0	Positive Feedback Resistance (ohm)
ACHSELECT	IQUANT	0	Ach Select
CABLEID	IQUANT	13	Cable ID
DCCALDATE	LABEL	9/10/2021	DC Calibration Date
ACCALDATE	LABEL	9/10/2021	AC Calibration Date
THERMOSELECT	IQUANT	1	Thermo Select
FRAMEWORKVERSION	QUANT	6.33	Framework Version
INSTRUMENTVERSION	LABEL	3.50	Instrument Version
COMPLIANCEVOLTAGE	IQUANT	0	Compliance Voltage
ZCURVE	TABLE
	Pt	Time	Freq	Zreal	Zimag	Zsig	Zmod	Zphz	Idc	Vdc	IERange
	#	s	Hz	ohm	ohm	V	ohm	°	A	V	#
	0	10	300046.9	1.92095	2.214693	1	2.931709	49.06274	-2.769153E-005	-0.000588	11
	1	13	238359.4	1.996467	1.577251	1	2.544327	38.30947	-4.103064E-005	-0.0010347	12
	2	17	189328.1	1.923525	1.241536	1	2.289402	32.84015	-7.394892E-005	-0.0008478	12
	3	21	150421.9	1.828002	1.068217	1	2.117234	30.30045	-8.569132E-005	-0.0001595	11
	4	23	119484.4	1.821792	0.8240536	1	1.999498	24.33873	-0.0001427	-0.0001365	11
	5	26	94921.88	1.817965	0.6137885	1	1.918784	18.65591	-2.034978E-005	0.0001304	11
	6	28	75421.88	1.819298	0.4413382	1	1.872064	13.63581	-1.954122E-005	0.0001175	11
	7	31	59859.37	1.82424	0.2916312	1	1.847404	9.082705	-3.249338E-005	0.0002006	11
	8	33	47578.12	1.831705	0.1601347	1	1.838691	4.996314	-2.427938E-005	0.0002667	11
	9	36	37828.12	1.844509	0.0419383	1	1.844985	1.302501	-4.403151E-005	0.0003054	11
	10	38	30046.88	1.860264	-0.0706787	1	1.861607	-2.175843	-5.096427E-005	0.0003223	11
	11	41	23859.38	1.880386	-0.181288	1	1.889104	-5.506869	-2.713831E-005	0.0003459	11
	12	43	18984.38	1.903799	-0.2930081	1	1.926215	-8.74957	-7.755627E-005	0.000331	11
	13	46	15046.87	1.931928	-0.4132656	1	1.975635	-12.07437	-2.192E-005	0.0003812	11
	14	48	11953.13	1.964578	-0.5445245	1	2.038645	-15.49184	-2.504484E-005	0.0003866	11
	15	50	9515.62	2.000891	-0.6908404	1	2.116796	-19.04807	-2.564617E-005	0.0003277	11
	16	53	7546.875	2.041375	-0.8639446	1	2.216667	-22.93891	-5.418301E-005	0.0003617	11
	17	55	5928.309	2.088881	-1.077524	1	2.350422	-27.28639	-7.204103E-005	0.0003478	11
	18	57	4733.456	2.138188	-1.317548	1	2.511529	-31.64131	-3.082555E-005	0.0003738	11
	19	60	3796.875	2.191725	-1.603233	1	2.715514	-36.18523	-2.132526E-005	0.0003952	11
	20	62	2987.132	2.258143	-1.982638	1	3.005006	-41.28296	-7.689822E-005	0.0003489	11
	21	64	2390.625	2.328686	-2.418068	1	3.357057	-46.07876	-7.500246E-005	0.0003284	11
	22	66	1884.191	2.421329	-2.99461	1	3.851042	-51.04229	-6.069188E-005	0.0003679	11
	23	69	1516.544	2.525605	-3.646076	1	4.435375	-55.28999	2.34181E-005	-0.0001452	10
	24	71	1193.986	2.666683	-4.528828	1	5.255615	-59.5094	1.82333E-005	-0.0001518	10
	25	74	946.5144	2.840758	-5.59477	1	6.27466	-63.08071	-1.840326E-005	-0.0001373	10
	26	76	751.7689	3.065294	-6.900092	1	7.550318	-66.04732	1.511861E-005	-0.0001428	10
	27	78	597.4265	3.35685	-8.507268	1	9.145603	-68.4665	-2.579093E-005	-0.0001304	10
	28	81	477.4305	3.730017	-10.42418	1	11.07143	-70.31158	-6.345545E-007	-0.0001224	10
	29	83	376.6741	4.245972	-12.90756	1	13.58799	-71.79126	-7.326333E-007	-0.0001263	10
	30	85	298.2954	4.919997	-15.91198	1	16.65526	-72.81835	-9.88711E-007	-0.000125	10
	31	87	237.7717	5.785646	-19.47117	1	20.31256	-73.45126	-1.607769E-006	-0.0001255	10
	32	90	189.0121	6.94542	-23.84316	1	24.83416	-73.75937	-9.800342E-007	-0.0001234	10
	33	92	150.2404	8.48266	-29.13401	1	30.3438	-73.76655	-1.693063E-006	-0.0001258	10
	34	95	119.1737	10.53552	-35.55938	1	37.08728	-73.49651	-1.864364E-006	-0.0001242	10
	35	97	95.0169	13.15957	-43.01485	1	44.98279	-72.98951	-1.859487E-007	-0.0001475	9
	36	100	75.60484	16.63104	-51.98949	1	54.58479	-72.26093	-3.713157E-007	-0.0001387	9
	37	102	54.50582	23.45293	-67.67226	1	71.62106	-70.88541	-2.526689E-007	-0.0001459	9
	38	105	45.95588	28.10369	-77.3844	1	82.3296	-70.0405	-7.345095E-008	-0.000133	9
	39	107	37.20238	35.18588	-91.02413	1	97.5881	-68.86572	-4.17317E-007	-0.0001374	9
	40	109	30.04808	44.10549	-106.839	1	115.5848	-67.56808	-1.421891E-007	-0.000131	9
	41	112	23.91582	56.16998	-126.1918	1	138.1284	-66.0054	-7.162308E-007	-0.0001406	9
	42	114	18.60119	72.99249	-150.3912	1	167.1689	-64.11035	-8.95513E-007	-0.0001352	9
	43	117	15.02404	91.43868	-173.48	1	196.1029	-62.20697	-1.018272E-007	-0.0001402	9
	44	119	12.01923	115.5797	-199.6982	1	230.7337	-59.93895	7.031851E-007	-0.0001333	9
	45	121	9.450605	147.8752	-229.1936	1	272.7577	-57.16999	-6.661365E-007	-0.0001421	9
	46	124	7.512019	185.8137	-257.5045	1	317.5458	-54.18601	-5.882813E-007	-0.0001438	9
	47	127	5.978954	229.9858	-283.9526	1	365.4074	-50.99445	-3.600798E-007	-0.0001395	9
	48	130	4.734848	280.4406	-306.1582	1	415.1864	-47.51035	-3.216586E-007	-0.0001468	8
	49	133	3.75601	336.1797	-324.8002	1	467.4526	-44.01368	3.229291E-007	-0.0001178	8
	50	136	3.004808	392.2202	-337.9562	1	517.7365	-40.74981	8.335766E-007	-0.0001534	8
	51	140	2.372217	454.0172	-345.9613	1	570.8072	-37.30742	1.252804E-007	-0.0001952	8
	52	144	1.878005	513.8281	-348.7018	1	620.9769	-34.16219	3.771934E-007	-0.0001148	8
	53	149	1.512097	567.431	-348.3918	1	665.8489	-31.54913	5.558732E-007	-0.0002195	8
	54	154	1.201923	623.1229	-345.4207	1	712.4588	-29.00127	1.675218E-007	-0.0001057	8
	55	161	0.956633	675.7347	-341.4586	1	757.1072	-26.80813	-6.005592E-007	-0.0006729	8
