EXPLAIN
TAG	EISPOT
TITLE	LABEL	Potentiostatic EIS	Test Identifier
DATE	LABEL	10/5/2021	Date
TIME	LABEL	18:28:46	Time
NOTES	NOTES	1	Notes...
	
PSTAT	PSTAT	REF3000-16137	Potentiostat
VDC	POTEN	0.00000E+000	T	DC Voltage (V)
FREQINIT	QUANT	3.00000E+005	Initial Freq. (Hz)
FREQFINAL	QUANT	1.00000E+000	Final Freq. (Hz)
PTSPERDEC	QUANT	1.00000E+001	Points/decade
VAC	QUANT	5.00000E+001	AC Voltage (mV rms)
AREA	QUANT	1.00000E+000	Sample Area (cm^2)
SPEED	SELECTOR	2	Optimize for:
ZGUESS	QUANT	1.00000E+003	Estimated Z (ohms)
EOC	QUANT	0	Open Circuit (V)
SEQUENCER	TOGGLE	TRUE	Run as Sequence
PSTATMODEL	IQUANT	5	Pstat Model
PSTATSECTION	LABEL	REF3000-16137	Pstat Section
PSTATSERIALNO	LABEL	16137	Pstat Serial Number
CTRLMODE	IQUANT	1	Control Mode
IESTAB	IQUANT	0	I/E Stability
CASPEED	IQUANT	1	Control Amp Speed
CONVENTION	IQUANT	1	Current Convention
ICHRANGE	IQUANT	2	Ich Range
ICHRANGEMODE	TOGGLE	F	Ich Auto Range
ICHOFFSETENABLE	TOGGLE	T	Ich Offset Enable
ICHOFFSET	QUANT	0	Ich Offset (V)
ICHFILTER	IQUANT	3	Ich Filter
VCHRANGE	IQUANT	2	Vch Range
VCHRANGEMODE	TOGGLE	F	Vch Auto Range
VCHOFFSETENABLE	TOGGLE	T	Vch Offset Enable
VCHOFFSET	QUANT	0	Vch Offset (V)
VCHFILTER	IQUANT	3	Vch Filter
ACHRANGE	IQUANT	2	Ach Range
ACHOFFSETENABLE	TOGGLE	F	Ach Offset Enable
ACHOFFSET	QUANT	0	Ach Offset (V)
ACHFILTER	IQUANT	3	Ach Filter
IERANGELOWERLIMIT	IQUANT	2	I/E Range Lower Limit
IERANGEMODE	TOGGLE	F	I/E AutoRange
IERANGE	IQUANT	11	I/E Range
POSFEEDENABLE	TOGGLE	F	Positive Feedback IR Comp
POSFEEDRESISTANCE	QUANT	0	Positive Feedback Resistance (ohm)
ACHSELECT	IQUANT	0	Ach Select
CABLEID	IQUANT	13	Cable ID
DCCALDATE	LABEL	9/10/2021	DC Calibration Date
ACCALDATE	LABEL	9/10/2021	AC Calibration Date
THERMOSELECT	IQUANT	1	Thermo Select
FRAMEWORKVERSION	QUANT	6.33	Framework Version
INSTRUMENTVERSION	LABEL	3.50	Instrument Version
COMPLIANCEVOLTAGE	IQUANT	0	Compliance Voltage
ZCURVE	TABLE
	Pt	Time	Freq	Zreal	Zimag	Zsig	Zmod	Zphz	Idc	Vdc	IERange
	#	s	Hz	ohm	ohm	V	ohm	°	A	V	#
	0	8	300046.9	14.39701	1.976522	1	14.53206	7.817094	4.820057E-005	-0.0005512	10
	1	11	238359.4	14.46105	1.567332	1	14.54573	6.185746	-9.343838E-005	-0.000507	10
	2	14	189328.1	14.50523	1.221055	1	14.55653	4.811833	5.336842E-006	-0.000339	10
	3	17	150421.9	14.54738	0.9408135	1	14.57777	3.700301	-5.556447E-005	-0.0001963	10
	4	19	119484.4	14.61014	0.6957846	1	14.6267	2.72656	7.444324E-005	-0.000447	10
	5	22	94921.88	14.66311	0.489169	1	14.67126	1.910709	2.012291E-005	-0.0002363	10
	6	24	75421.88	14.72281	0.3104414	1	14.72608	1.207945	2.526819E-005	-0.0002181	10
	7	27	59859.37	14.78736	0.1526183	1	14.78815	0.5913209	2.216297E-005	-0.0001759	10
	8	29	47578.12	14.85289	0.0081822	1	14.85289	0.0315634	1.35004E-005	-0.0002083	10
	9	32	37828.12	14.9219	-0.1292072	1	14.92246	-0.4961058	2.335778E-005	-0.000182	10
	10	35	30046.88	14.99174	-0.2724059	1	14.99422	-1.040972	-1.631632E-005	-0.000142	10
	11	37	23859.38	15.06506	-0.4248876	1	15.07105	-1.615514	2.74033E-006	-0.0001837	10
	12	39	18984.38	15.14081	-0.5929139	1	15.15241	-2.242556	-1.347085E-005	-0.0001637	10
	13	42	15046.87	15.22268	-0.7882351	1	15.24307	-2.964146	-2.328645E-005	-7.672665E-005	10
	14	44	11953.13	15.31626	-1.012542	1	15.3497	-3.782261	-2.983751E-005	-0.0001383	10
	15	46	9515.62	15.41712	-1.281	1	15.47024	-4.749763	-1.704634E-005	-0.0001482	10
	16	49	7546.875	15.53375	-1.604217	1	15.61636	-5.896205	-1.830172E-005	-6.467985E-005	10
	17	51	5928.309	15.67721	-2.009263	1	15.80544	-7.303475	5.275287E-006	-0.000179	10
	18	53	4733.456	15.83795	-2.46794	1	16.02908	-8.856858	-2.778611E-005	-0.0001145	10
	19	56	3796.875	16.02861	-3.006976	1	16.30823	-10.62522	-1.240063E-005	-0.0001489	10
	20	58	2987.132	16.27068	-3.707225	1	16.68768	-12.83554	-2.632999E-005	-0.0001069	10
	21	60	2390.625	16.54915	-4.478303	1	17.14438	-15.14194	-1.319514E-006	-0.0001538	10
	22	63	1884.191	16.90357	-5.47163	1	17.76709	-17.93659	2.619778E-005	-0.0001578	10
	23	65	1516.544	17.2834	-6.54975	1	18.48284	-20.7548	7.734416E-006	-0.0001326	10
	24	67	1193.986	17.77534	-7.955127	1	19.47426	-24.11029	-2.468118E-005	-0.0001184	10
	25	70	946.5144	18.32696	-9.5891	1	20.68401	-27.61963	1.953188E-005	-0.0001844	10
	26	72	751.7689	18.9411	-11.55128	1	22.18552	-31.37703	2.46481E-005	-0.0001563	10
	27	75	597.4265	19.63628	-13.89999	1	24.05812	-35.29363	-1.220229E-005	-0.0001392	10
	28	77	477.4305	20.41157	-16.69593	1	26.37018	-39.28194	-1.993631E-006	-0.0001288	10
	29	79	376.6741	21.29759	-20.28176	1	29.40982	-43.60048	-1.709887E-006	-0.0001258	10
	30	82	298.2954	22.27228	-24.63749	1	33.21235	-47.88643	-1.703888E-006	-0.0001239	10
	31	84	237.7717	23.34055	-29.86023	1	37.90006	-51.98668	-1.900284E-006	-0.0001245	10
	32	86	189.0121	24.54738	-36.34736	1	43.86005	-55.96667	7.784978E-007	-0.0001392	9
	33	89	150.2404	25.98987	-44.42404	1	51.46814	-59.67063	8.414777E-007	-0.0001347	9
	34	91	119.1737	27.73051	-54.53574	1	61.18111	-63.04743	8.907911E-007	-0.0001395	9
	35	94	95.0169	29.81331	-66.76531	1	73.11935	-65.93738	8.008518E-007	-0.000135	9
	36	96	75.60484	32.42941	-81.99223	1	88.17252	-68.4203	1.131292E-006	-0.0001817	9
	37	99	54.50582	37.37591	-110.1559	1	116.324	-71.25792	7.009343E-007	-0.0001378	9
	38	101	45.95588	40.76866	-128.5471	1	134.8571	-72.40359	6.777963E-007	-0.0001309	9
	39	104	37.20238	45.94666	-155.5813	1	162.224	-73.54694	7.875533E-007	-0.0001334	9
	40	106	30.04808	52.58405	-188.5989	1	195.7923	-74.42078	1.149438E-006	-0.000187	9
	41	108	23.91582	61.73031	-231.5411	1	239.6287	-75.07182	7.936479E-007	-0.0001374	9
	42	111	18.60119	75.11118	-289.9457	1	299.5166	-75.47665	9.232034E-007	-0.0001419	9
	43	113	15.02404	90.09395	-350.5528	1	361.945	-75.58662	8.778157E-007	-0.0001293	9
	44	115	12.01923	110.1404	-425.0249	1	439.0639	-75.47202	3.895088E-007	-0.0001343	8
	45	118	9.450605	139.2213	-523.9913	1	542.171	-75.12063	6.719951E-007	-0.0001318	8
	46	120	7.512019	175.9256	-638.1048	1	661.912	-74.58646	6.345764E-007	-0.0001332	8
	47	123	5.978954	223.5348	-773.0785	1	804.7473	-73.87283	6.313281E-007	-0.0001194	8
	48	126	4.734848	286.4193	-937.9554	1	980.712	-73.01913	4.987548E-007	-0.0001455	8
	49	129	3.75601	366.9974	-1131.017	1	1189.07	-72.02257	6.481181E-007	-0.0001102	8
	50	133	3.004808	464.9165	-1348.166	1	1426.078	-70.97318	5.844583E-007	-0.0001242	8
	51	137	2.372217	597.5474	-1621.106	1	1727.729	-69.76588	5.459438E-007	-0.0001997	8
	52	141	1.878005	760.6472	-1936.001	1	2080.068	-68.55033	5.631287E-007	-0.0001142	8
	53	146	1.512097	951.745	-2277.515	1	2468.379	-67.32056	5.823662E-007	-0.0002339	8
	54	151	1.201923	1206.961	-2698.133	1	2955.787	-65.89951	5.382936E-007	-0.0001093	8
	55	157	0.956633	1526.615	-3176.437	1	3524.245	-64.33078	4.977427E-007	-0.0006722	8
