EXPLAIN
TAG	EISPOT
TITLE	LABEL	Potentiostatic EIS	Test Identifier
DATE	LABEL	2/26/2021	Date
TIME	LABEL	1:51:44	Time
NOTES	NOTES	1	Notes...
	
PSTAT	PSTAT	REF3000-16137	Potentiostat
VDC	POTEN	0.00000E+000	T	DC Voltage (V)
FREQINIT	QUANT	3.00000E+005	Initial Freq. (Hz)
FREQFINAL	QUANT	1.00000E+000	Final Freq. (Hz)
PTSPERDEC	QUANT	1.00000E+001	Points/decade
VAC	QUANT	5.00000E+001	AC Voltage (mV rms)
AREA	QUANT	1.00000E+000	Sample Area (cm^2)
SPEED	SELECTOR	2	Optimize for:
ZGUESS	QUANT	1.00000E+003	Estimated Z (ohms)
EOC	QUANT	0	Open Circuit (V)
SEQUENCER	TOGGLE	TRUE	Run as Sequence
PSTATMODEL	IQUANT	5	Pstat Model
PSTATSECTION	LABEL	REF3000-16137	Pstat Section
PSTATSERIALNO	LABEL	16137	Pstat Serial Number
CTRLMODE	IQUANT	1	Control Mode
IESTAB	IQUANT	0	I/E Stability
CASPEED	IQUANT	1	Control Amp Speed
CONVENTION	IQUANT	1	Current Convention
ICHRANGE	IQUANT	2	Ich Range
ICHRANGEMODE	TOGGLE	F	Ich Auto Range
ICHOFFSETENABLE	TOGGLE	T	Ich Offset Enable
ICHOFFSET	QUANT	0	Ich Offset (V)
ICHFILTER	IQUANT	3	Ich Filter
VCHRANGE	IQUANT	2	Vch Range
VCHRANGEMODE	TOGGLE	F	Vch Auto Range
VCHOFFSETENABLE	TOGGLE	T	Vch Offset Enable
VCHOFFSET	QUANT	0	Vch Offset (V)
VCHFILTER	IQUANT	3	Vch Filter
ACHRANGE	IQUANT	2	Ach Range
ACHOFFSETENABLE	TOGGLE	F	Ach Offset Enable
ACHOFFSET	QUANT	0	Ach Offset (V)
ACHFILTER	IQUANT	3	Ach Filter
IERANGELOWERLIMIT	IQUANT	2	I/E Range Lower Limit
IERANGEMODE	TOGGLE	F	I/E AutoRange
IERANGE	IQUANT	11	I/E Range
POSFEEDENABLE	TOGGLE	F	Positive Feedback IR Comp
POSFEEDRESISTANCE	QUANT	0	Positive Feedback Resistance (ohm)
ACHSELECT	IQUANT	0	Ach Select
CABLEID	IQUANT	13	Cable ID
DCCALDATE	LABEL	7/31/2020	DC Calibration Date
ACCALDATE	LABEL	7/31/2020	AC Calibration Date
THERMOSELECT	IQUANT	1	Thermo Select
FRAMEWORKVERSION	QUANT	6.33	Framework Version
INSTRUMENTVERSION	LABEL	3.50	Instrument Version
COMPLIANCEVOLTAGE	IQUANT	0	Compliance Voltage
ZCURVE	TABLE
	Pt	Time	Freq	Zreal	Zimag	Zsig	Zmod	Zphz	Idc	Vdc	IERange
	#	s	Hz	ohm	ohm	V	ohm	°	A	V	#
	0	8	300046.9	16.29181	1.802701	1	16.39125	6.314135	1.510282E-005	0.0002484	10
	1	11	238359.4	16.40781	1.395648	1	16.46706	4.861874	-2.530632E-005	0.0002914	10
	2	15	189328.1	16.54851	1.048395	1	16.58169	3.625003	-8.646461E-005	0.0005614	10
	3	17	150421.9	16.6736	0.769621	1	16.69135	2.642786	2.121707E-005	0.0005263	10
	4	20	119484.4	16.81332	0.5133205	1	16.82115	1.74873	1.960663E-005	0.0005786	10
	5	22	94921.88	16.95313	0.3158433	1	16.95607	1.067319	-3.579287E-006	0.0006078	10
	6	25	75421.88	17.10496	0.12341	1	17.1054	0.4133742	2.302908E-005	0.0006041	10
	7	27	59859.37	17.26268	-0.046143	1	17.26274	-0.1531507	-3.071968E-005	0.0006441	10
	8	30	47578.12	17.42474	-0.2030797	1	17.42592	-0.6677335	-1.100172E-005	0.0006528	10
	9	32	37828.12	17.59448	-0.3570989	1	17.5981	-1.16272	2.151906E-005	0.0006961	10
	10	35	30046.88	17.76797	-0.51324	1	17.77538	-1.654568	6.987052E-006	0.0007147	10
	11	37	23859.38	17.94561	-0.6823213	1	17.95858	-2.177429	-1.93651E-005	0.000653	10
	12	40	18984.38	18.12367	-0.8612432	1	18.14412	-2.720669	2.22573E-005	0.0006502	10
	13	42	15046.87	18.3085	-1.070644	1	18.33978	-3.346729	4.186886E-006	0.0006276	10
	14	44	11953.13	18.50726	-1.311296	1	18.55366	-4.052807	1.646948E-005	0.0007175	10
	15	47	9515.62	18.7158	-1.591828	1	18.78337	-4.861457	2.341502E-005	0.0007035	10
	16	49	7546.875	18.94053	-1.929517	1	19.03856	-5.816789	4.750912E-006	0.0006267	10
	17	51	5928.309	19.18932	-2.360532	1	19.33397	-7.01288	-2.706682E-005	0.0007129	10
	18	54	4733.456	19.45297	-2.846009	1	19.66005	-8.323439	-1.175633E-005	0.0006716	10
	19	56	3796.875	19.73963	-3.422679	1	20.03416	-9.83679	2.622731E-005	0.0006425	10
	20	58	2987.132	20.08512	-4.176047	1	20.51467	-11.74545	-1.978535E-005	0.0006843	10
	21	61	2390.625	20.46625	-5.028377	1	21.07491	-13.80365	-1.395769E-005	0.0007454	10
	22	63	1884.191	20.92987	-6.134852	1	21.81046	-16.33663	-2.869396E-005	0.0006964	10
	23	65	1516.544	21.44622	-7.346332	1	22.66956	-18.90872	4.193208E-006	0.0006978	10
	24	68	1193.986	22.1081	-8.940109	1	23.8473	-22.0175	-2.676417E-005	0.0007088	10
	25	70	946.5144	22.89384	-10.80561	1	25.31579	-25.26673	-2.406135E-005	0.0006889	10
	26	72	751.7689	23.81135	-12.99156	1	27.12491	-28.61706	1.996984E-005	0.0006762	10
	27	75	597.4265	24.8821	-15.57384	1	29.3541	-32.04267	-2.829913E-005	0.0006921	10
	28	77	477.4305	26.12046	-18.55369	1	32.03932	-35.38666	-2.784244E-006	0.0006908	10
	29	79	376.6741	27.61108	-22.29123	1	35.4862	-38.91495	-2.4038E-006	0.0006785	10
	30	82	298.2954	29.24644	-26.65521	1	39.57088	-42.34604	1.285729E-006	8.431285E-005	9
	31	84	237.7717	31.07705	-31.76685	1	44.44003	-45.62888	1.205139E-006	8.599013E-005	9
	32	86	189.0121	33.13033	-37.99019	1	50.40708	-48.9091	1.139414E-006	8.65968E-005	9
	33	89	150.2404	35.40024	-45.5283	1	57.67151	-52.13338	1.175972E-006	8.682145E-005	9
	34	91	119.1737	37.91454	-54.81032	1	66.64596	-55.3268	1.264701E-006	8.467324E-005	9
	35	94	95.0169	40.62157	-65.92094	1	77.43179	-58.35794	1.271932E-006	8.236287E-005	9
	36	96	75.60484	43.63178	-79.68546	1	90.8488	-61.29709	1.253415E-006	8.730587E-005	9
	37	99	54.50582	48.39081	-105.1485	1	115.7492	-65.28745	1.195667E-006	8.196816E-005	9
	38	101	45.95588	51.32723	-121.8933	1	132.259	-67.16485	1.276224E-006	8.898556E-005	9
	39	104	37.20238	55.28524	-146.6598	1	156.734	-69.34544	1.240876E-006	8.95364E-005	9
	40	106	30.04808	59.84379	-177.2509	1	187.0806	-71.34418	1.192574E-006	9.246606E-005	9
	41	108	23.91582	65.53407	-217.4909	1	227.1497	-73.23147	1.228183E-006	8.039983E-005	9
	42	111	18.60119	73.0582	-273.0961	1	282.6995	-75.02304	1.29888E-006	8.311072E-005	9
	43	113	15.02404	80.88857	-331.7929	1	341.5107	-76.299	1.336256E-006	8.79155E-005	9
	44	115	12.01923	90.95453	-407.0024	1	417.0416	-77.40285	1.376917E-006	8.650886E-005	9
	45	118	9.450605	103.867	-505.3875	1	515.9504	-78.38631	5.530017E-007	0.0006286	8
	46	120	7.512019	119.7385	-623.9053	1	635.2914	-79.13602	5.476475E-007	0.0006142	8
	47	123	5.978954	139.1459	-769.1601	1	781.645	-79.74574	5.146948E-007	0.0006676	8
	48	126	4.734848	164.275	-952.708	1	966.767	-80.21672	5.497294E-007	0.000646	8
	49	129	3.75601	194.1343	-1178.241	1	1194.127	-80.64365	5.392226E-007	0.0006667	8
	50	133	3.004808	229.0472	-1444.435	1	1462.482	-80.9895	5.67041E-007	0.0006286	8
	51	137	2.372217	272.9476	-1791.259	1	1811.935	-81.33605	5.701743E-007	0.0006199	8
	52	141	1.878005	329.4478	-2221.301	1	2245.598	-81.56379	5.402041E-007	0.000661	8
	53	145	1.512097	387.188	-2710.109	1	2737.628	-81.86929	5.533627E-007	0.000551	8
	54	151	1.201923	464.5431	-3349.923	1	3381.98	-82.10499	5.373455E-007	0.0006754	8
	55	157	0.956633	552.0419	-4134.138	1	4170.833	-82.39414	5.362684E-007	1.432156E-005	8
