EXPLAIN
TAG	EISPOT
TITLE	LABEL	Potentiostatic EIS	Test Identifier
DATE	LABEL	2/26/2021	Date
TIME	LABEL	2:20:43	Time
NOTES	NOTES	1	Notes...
	
PSTAT	PSTAT	REF3000-16137	Potentiostat
VDC	POTEN	0.00000E+000	T	DC Voltage (V)
FREQINIT	QUANT	3.00000E+005	Initial Freq. (Hz)
FREQFINAL	QUANT	1.00000E+000	Final Freq. (Hz)
PTSPERDEC	QUANT	1.00000E+001	Points/decade
VAC	QUANT	5.00000E+001	AC Voltage (mV rms)
AREA	QUANT	1.00000E+000	Sample Area (cm^2)
SPEED	SELECTOR	2	Optimize for:
ZGUESS	QUANT	1.00000E+003	Estimated Z (ohms)
EOC	QUANT	0	Open Circuit (V)
SEQUENCER	TOGGLE	TRUE	Run as Sequence
PSTATMODEL	IQUANT	5	Pstat Model
PSTATSECTION	LABEL	REF3000-16137	Pstat Section
PSTATSERIALNO	LABEL	16137	Pstat Serial Number
CTRLMODE	IQUANT	1	Control Mode
IESTAB	IQUANT	0	I/E Stability
CASPEED	IQUANT	1	Control Amp Speed
CONVENTION	IQUANT	1	Current Convention
ICHRANGE	IQUANT	2	Ich Range
ICHRANGEMODE	TOGGLE	F	Ich Auto Range
ICHOFFSETENABLE	TOGGLE	T	Ich Offset Enable
ICHOFFSET	QUANT	0	Ich Offset (V)
ICHFILTER	IQUANT	3	Ich Filter
VCHRANGE	IQUANT	2	Vch Range
VCHRANGEMODE	TOGGLE	F	Vch Auto Range
VCHOFFSETENABLE	TOGGLE	T	Vch Offset Enable
VCHOFFSET	QUANT	0	Vch Offset (V)
VCHFILTER	IQUANT	3	Vch Filter
ACHRANGE	IQUANT	2	Ach Range
ACHOFFSETENABLE	TOGGLE	F	Ach Offset Enable
ACHOFFSET	QUANT	0	Ach Offset (V)
ACHFILTER	IQUANT	3	Ach Filter
IERANGELOWERLIMIT	IQUANT	2	I/E Range Lower Limit
IERANGEMODE	TOGGLE	F	I/E AutoRange
IERANGE	IQUANT	11	I/E Range
POSFEEDENABLE	TOGGLE	F	Positive Feedback IR Comp
POSFEEDRESISTANCE	QUANT	0	Positive Feedback Resistance (ohm)
ACHSELECT	IQUANT	0	Ach Select
CABLEID	IQUANT	13	Cable ID
DCCALDATE	LABEL	7/31/2020	DC Calibration Date
ACCALDATE	LABEL	7/31/2020	AC Calibration Date
THERMOSELECT	IQUANT	1	Thermo Select
FRAMEWORKVERSION	QUANT	6.33	Framework Version
INSTRUMENTVERSION	LABEL	3.50	Instrument Version
COMPLIANCEVOLTAGE	IQUANT	0	Compliance Voltage
ZCURVE	TABLE
	Pt	Time	Freq	Zreal	Zimag	Zsig	Zmod	Zphz	Idc	Vdc	IERange
	#	s	Hz	ohm	ohm	V	ohm	°	A	V	#
	0	19	300046.9	1027.259	-479.0341	1	1133.462	-25.0007	2.536359E-005	-0.0020148	9
	1	32	238359.4	1137.142	-469.1104	1	1230.104	-22.41784	2.415794E-005	-0.0016071	9
	2	45	189328.1	1237.519	-435.7646	1	1312	-19.39857	2.258802E-005	-0.0004673	9
	3	51	150421.9	1331.7	-422.7961	1	1397.205	-17.61391	-8.733994E-005	0.0040994	9
	4	61	119484.4	1437.418	-336.1016	1	1476.19	-13.16063	-7.714438E-006	0.0124329	8
	5	67	94921.88	1505.191	-284.8391	1	1531.905	-10.71582	-2.123903E-005	0.0067773	8
	6	70	75421.88	1554.917	-258.21	1	1576.21	-9.42852	-2.575998E-006	-0.0034533	8
	7	76	59859.37	1598.724	-221.6754	1	1614.019	-7.894169	2.221242E-005	-0.006324	8
	8	79	47578.12	1637.086	-184.1742	1	1647.414	-6.418854	-7.595351E-006	0.0079369	8
	9	82	37828.12	1673.569	-156.758	1	1680.895	-5.351102	-7.520057E-006	0.0078876	8
	10	88	30046.88	1715.031	-131.5346	1	1720.067	-4.385726	-1.41114E-005	0.0089898	8
	11	94	23859.38	1745.044	-114.8108	1	1748.817	-3.764208	-9.921991E-006	-0.0008511	8
	12	98	18984.38	1771.513	-96.649	1	1774.147	-3.122808	1.168216E-005	-0.0071263	8
	13	102	15046.87	1801.463	-74.63603	1	1803.008	-2.372453	2.22198E-005	-0.0047161	8
	14	105	11953.13	1818.687	-70.40526	1	1820.049	-2.216935	1.757842E-005	-0.0077346	8
	15	109	9515.62	1847.515	-58.21539	1	1848.432	-1.804799	-1.438733E-005	0.0012593	8
	16	113	7546.875	1870.766	-60.78574	1	1871.753	-1.861025	1.764702E-005	-0.0078238	8
	17	116	5928.309	1889.799	-54.49592	1	1890.585	-1.651774	1.205114E-005	-0.0072547	8
	18	120	4733.456	1921.863	-44.69334	1	1922.383	-1.332185	1.765111E-005	-0.0078365	8
	19	125	3796.875	1943.718	-42.00458	1	1944.172	-1.237993	-1.488935E-005	0.0092703	8
	20	128	2987.132	1968.424	-43.67601	1	1968.909	-1.271088	8.941242E-006	0.002871	8
	21	132	2390.625	2001.393	-45.54501	1	2001.911	-1.303635	5.171402E-006	-0.0058688	8
	22	136	1884.191	2050.663	-55.10876	1	2051.403	-1.539376	1.62632E-005	-0.0003614	8
	23	140	1516.544	2069.616	-48.08408	1	2070.174	-1.330933	2.266099E-005	-0.0047714	8
	24	145	1193.986	2101.454	-62.95912	1	2102.397	-1.716056	-1.508862E-005	0.0014562	8
	25	149	946.5144	2135.969	-57.16468	1	2136.734	-1.533034	1.648305E-005	-0.0003127	8
	26	152	751.7689	2160.394	-59.74693	1	2161.219	-1.584144	-1.468587E-005	0.0092769	8
	27	155	597.4265	2186.669	-81.41151	1	2188.184	-2.132185	-8.147445E-006	0.0083098	8
	28	157	477.4305	2209.59	-68.70303	1	2210.658	-1.78093	-1.348519E-007	0.0006545	8
	29	159	376.6741	2232.948	-73.93775	1	2234.171	-1.896495	-1.580456E-007	0.0006543	8
	30	162	298.2954	2256.183	-80.66591	1	2257.625	-2.047639	-1.803444E-007	0.0006814	8
	31	164	237.7717	2279.878	-89.73313	1	2281.643	-2.253926	-1.552398E-007	0.0006708	8
	32	167	189.0121	2304.104	-101.4227	1	2306.336	-2.520434	-1.772022E-007	0.000664	8
	33	169	150.2404	2329.364	-116.4768	1	2332.275	-2.862616	-1.262949E-007	0.0006409	8
	34	171	119.1737	2355.543	-135.7316	1	2359.45	-3.297863	-1.266301E-007	0.00066	8
	35	174	95.0169	2383.075	-158.7627	1	2388.358	-3.811466	-1.169245E-007	0.00065	8
	36	176	75.60484	2412.789	-187.1844	1	2420.039	-4.436128	-1.533795E-007	0.00065	8
	37	179	54.50582	2450.832	-239.4391	1	2462.5	-5.579922	-1.454913E-007	0.0006629	8
	38	181	45.95588	2481.819	-272.9363	1	2496.781	-6.275846	-5.28547E-008	0.0006658	8
	39	184	37.20238	2516.192	-321.8294	1	2536.69	-7.28875	-6.924052E-008	0.0006533	8
	40	186	30.04808	2554.939	-380.0164	1	2583.046	-8.460033	-1.881717E-007	0.0006568	8
	41	189	23.91582	2596.378	-455.8504	1	2636.092	-9.95802	-3.300391E-010	0.0006533	8
	42	191	18.60119	2648.846	-556.2515	1	2706.621	-11.85965	-2.045052E-007	0.0006887	8
	43	193	15.02404	2705.744	-657.7043	1	2784.533	-13.66232	1.175042E-007	0.0006481	8
	44	195	12.01923	2759.505	-781.3634	1	2867.995	-15.80965	-3.39834E-007	0.0006362	8
	45	198	9.450605	2832.001	-949.3491	1	2986.887	-18.53229	-2.85897E-007	0.0006473	8
	46	200	7.512019	2913.475	-1144.885	1	3130.351	-21.45294	-2.558605E-007	0.0006667	8
	47	203	5.978954	3005.24	-1381.971	1	3307.765	-24.69552	-2.248274E-007	0.0006489	8
	48	206	4.734848	3115.214	-1665.708	1	3532.583	-28.13346	-1.771709E-007	0.0006493	8
	49	209	3.75601	3248.311	-2015.154	1	3822.613	-31.81421	-7.926515E-009	0.00061	7
	50	213	3.004808	3385.959	-2418.257	1	4160.852	-35.53448	-1.316373E-008	0.0005884	7
	51	217	2.372217	3556.101	-2932.322	1	4609.161	-39.50862	-5.216268E-008	0.0005383	7
	52	221	1.878005	3737.103	-3568.583	1	5167.274	-43.6786	-3.247936E-008	0.0006418	7
	53	226	1.512097	3940.188	-4275.21	1	5813.992	-47.33521	-4.976228E-008	0.0005389	7
	54	231	1.201923	4179.723	-5217.214	1	6685.014	-51.30036	-4.058512E-008	0.000659	7
	55	237	0.956633	4456.993	-6359.944	1	7766.187	-54.97757	-5.27174E-008	-1.353327E-005	7
