EXPLAIN
TAG	EISPOT
TITLE	LABEL	Potentiostatic EIS	Test Identifier
DATE	LABEL	2/26/2021	Date
TIME	LABEL	1:54:30	Time
NOTES	NOTES	1	Notes...
	
PSTAT	PSTAT	REF3000-16137	Potentiostat
VDC	POTEN	0.00000E+000	T	DC Voltage (V)
FREQINIT	QUANT	3.00000E+005	Initial Freq. (Hz)
FREQFINAL	QUANT	1.00000E+000	Final Freq. (Hz)
PTSPERDEC	QUANT	1.00000E+001	Points/decade
VAC	QUANT	5.00000E+001	AC Voltage (mV rms)
AREA	QUANT	1.00000E+000	Sample Area (cm^2)
SPEED	SELECTOR	2	Optimize for:
ZGUESS	QUANT	1.00000E+003	Estimated Z (ohms)
EOC	QUANT	0	Open Circuit (V)
SEQUENCER	TOGGLE	TRUE	Run as Sequence
PSTATMODEL	IQUANT	5	Pstat Model
PSTATSECTION	LABEL	REF3000-16137	Pstat Section
PSTATSERIALNO	LABEL	16137	Pstat Serial Number
CTRLMODE	IQUANT	1	Control Mode
IESTAB	IQUANT	0	I/E Stability
CASPEED	IQUANT	1	Control Amp Speed
CONVENTION	IQUANT	1	Current Convention
ICHRANGE	IQUANT	2	Ich Range
ICHRANGEMODE	TOGGLE	F	Ich Auto Range
ICHOFFSETENABLE	TOGGLE	T	Ich Offset Enable
ICHOFFSET	QUANT	0	Ich Offset (V)
ICHFILTER	IQUANT	3	Ich Filter
VCHRANGE	IQUANT	2	Vch Range
VCHRANGEMODE	TOGGLE	F	Vch Auto Range
VCHOFFSETENABLE	TOGGLE	T	Vch Offset Enable
VCHOFFSET	QUANT	0	Vch Offset (V)
VCHFILTER	IQUANT	3	Vch Filter
ACHRANGE	IQUANT	2	Ach Range
ACHOFFSETENABLE	TOGGLE	F	Ach Offset Enable
ACHOFFSET	QUANT	0	Ach Offset (V)
ACHFILTER	IQUANT	3	Ach Filter
IERANGELOWERLIMIT	IQUANT	2	I/E Range Lower Limit
IERANGEMODE	TOGGLE	F	I/E AutoRange
IERANGE	IQUANT	11	I/E Range
POSFEEDENABLE	TOGGLE	F	Positive Feedback IR Comp
POSFEEDRESISTANCE	QUANT	0	Positive Feedback Resistance (ohm)
ACHSELECT	IQUANT	0	Ach Select
CABLEID	IQUANT	13	Cable ID
DCCALDATE	LABEL	7/31/2020	DC Calibration Date
ACCALDATE	LABEL	7/31/2020	AC Calibration Date
THERMOSELECT	IQUANT	1	Thermo Select
FRAMEWORKVERSION	QUANT	6.33	Framework Version
INSTRUMENTVERSION	LABEL	3.50	Instrument Version
COMPLIANCEVOLTAGE	IQUANT	0	Compliance Voltage
ZCURVE	TABLE
	Pt	Time	Freq	Zreal	Zimag	Zsig	Zmod	Zphz	Idc	Vdc	IERange
	#	s	Hz	ohm	ohm	V	ohm	°	A	V	#
	0	7	300046.9	25.32199	0.9259262	1	25.33891	2.09415	6.76653E-005	-0.0002885	11
	1	12	238359.4	25.59184	0.96604	1	25.61007	2.161773	2.065169E-005	0.0004084	10
	2	15	189328.1	25.88591	0.6787328	1	25.89481	1.501961	-1.645083E-005	0.0005924	10
	3	18	150421.9	26.16472	0.4111051	1	26.16795	0.9001684	3.153362E-005	0.0005853	10
	4	22	119484.4	26.38057	0.2108717	1	26.38141	0.457981	7.485145E-005	0.0003717	10
	5	24	94921.88	26.59719	0.0351322	1	26.59722	0.0756819	-2.476769E-005	0.0007182	10
	6	27	75421.88	26.82901	-0.1387471	1	26.82936	-0.2963044	-2.422435E-005	0.0006877	10
	7	30	59859.37	27.05618	-0.3043698	1	27.0579	-0.6445243	-2.495116E-005	0.0007299	10
	8	32	47578.12	27.29376	-0.4605395	1	27.29765	-0.966685	7.108121E-006	0.0007224	10
	9	35	37828.12	27.53856	-0.62445	1	27.54564	-1.298987	2.09808E-005	0.0006362	10
	10	37	30046.88	27.79177	-0.7919344	1	27.80305	-1.632218	-1.172078E-005	0.0006552	10
	11	40	23859.38	28.04931	-0.9748	1	28.06625	-1.990405	-1.65875E-005	0.0006703	10
	12	42	18984.38	28.30832	-1.181381	1	28.33296	-2.389717	-2.503401E-005	0.0007418	10
	13	44	15046.87	28.57862	-1.423823	1	28.61407	-2.852189	-1.248159E-005	0.0006521	10
	14	47	11953.13	28.86279	-1.707906	1	28.91328	-3.386429	1.309657E-005	0.0006108	10
	15	49	9515.62	29.16192	-2.026476	1	29.23225	-3.975121	1.320288E-005	0.0006104	10
	16	51	7546.875	29.48393	-2.429616	1	29.58386	-4.710802	-2.190098E-005	0.0007558	10
	17	54	5928.309	29.83716	-2.922996	1	29.98	-5.595124	-2.234532E-005	0.000722	10
	18	56	4733.456	30.20673	-3.481915	1	30.40675	-6.575436	2.364798E-005	0.0006494	10
	19	58	3796.875	30.61563	-4.15364	1	30.89611	-7.726177	-1.534878E-005	0.0007529	10
	20	61	2987.132	31.1008	-5.034229	1	31.5056	-9.194613	-2.769605E-005	0.0006968	10
	21	63	2390.625	31.61765	-6.003401	1	32.18255	-10.75106	-2.395988E-005	0.0007089	10
	22	65	1884.191	32.24941	-7.265666	1	33.05774	-12.69653	-2.644068E-005	0.000714	10
	23	68	1516.544	32.93546	-8.643924	1	34.05088	-14.70564	2.502474E-005	0.0006656	10
	24	70	1193.986	33.81294	-10.44715	1	35.39008	-17.16953	2.394105E-005	0.0006542	10
	25	72	946.5144	34.78207	-12.52526	1	36.96856	-19.8043	-1.330028E-005	0.0003665	9
	26	75	751.7689	35.96053	-14.96999	1	38.95202	-22.60146	-1.304036E-005	0.0004612	9
	27	77	597.4265	37.34519	-17.84728	1	41.39069	-25.54315	-2.467411E-006	0.0003921	9
	28	79	477.4305	38.91379	-21.13244	1	44.28164	-28.50452	1.266894E-006	8.605787E-005	9
	29	82	376.6741	40.81426	-25.23415	1	47.98506	-31.72718	1.197367E-006	8.961653E-005	9
	30	84	298.2954	42.95114	-30.02512	1	52.40523	-34.95558	1.201274E-006	9.24207E-005	9
	31	86	237.7717	45.31067	-35.54981	1	57.59207	-38.11699	1.262057E-006	8.374108E-005	9
	32	89	189.0121	47.97591	-42.21534	1	63.9048	-41.34544	1.202991E-006	8.817907E-005	9
	33	91	150.2404	50.93811	-50.21178	1	71.52562	-44.58858	1.219524E-006	8.123586E-005	9
	34	94	119.1737	54.23717	-59.95769	1	80.84921	-47.86779	1.209728E-006	8.805202E-005	9
	35	96	95.0169	57.79815	-71.51583	1	91.95184	-51.05531	1.251898E-006	8.189413E-005	9
	36	98	75.60484	61.75053	-85.72279	1	105.6481	-54.23286	1.25365E-006	7.980604E-005	9
	37	101	54.50582	67.95226	-111.7419	1	130.7813	-58.69546	1.277203E-006	8.123564E-005	9
	38	104	45.95588	71.69424	-128.757	1	147.3718	-60.89015	1.28763E-006	8.955613E-005	9
	39	106	37.20238	76.64861	-153.823	1	171.8619	-63.51334	1.353954E-006	8.174368E-005	9
	40	108	30.04808	82.21612	-184.71	1	202.1813	-66.00571	1.163472E-006	9.227703E-005	9
	41	111	23.91582	88.9018	-225.2885	1	242.1951	-68.46516	1.317863E-006	8.547787E-005	9
	42	113	18.60119	97.4295	-281.3365	1	297.7293	-70.89854	1.219703E-006	8.393115E-005	9
	43	115	15.02404	106.0836	-340.5018	1	356.6443	-72.69553	1.44143E-006	9.352725E-005	9
	44	118	12.01923	116.2488	-414.6683	1	430.6549	-74.3396	4.803999E-007	0.0006635	8
	45	120	9.450605	130.2939	-515.8228	1	532.0241	-75.82394	4.459202E-007	0.0006616	8
	46	123	7.512019	146.5948	-636.188	1	652.8593	-77.02401	4.979969E-007	0.0006625	8
	47	125	5.978954	166.771	-783.2089	1	800.7676	-77.97937	5.159698E-007	0.0006619	8
	48	128	4.734848	191.7865	-969.873	1	988.654	-78.81441	4.53598E-007	0.0006402	8
	49	132	3.75601	223.0044	-1198.533	1	1219.103	-79.45982	5.237694E-007	0.000674	8
	50	135	3.004808	259.1162	-1468.485	1	1491.171	-79.99309	4.79936E-007	0.0006731	8
	51	139	2.372217	308.8536	-1820.405	1	1846.42	-80.37078	4.549296E-007	0.0006353	8
	52	143	1.878005	364.7811	-2259.006	1	2288.269	-80.82714	5.227102E-007	0.0006518	8
	53	148	1.512097	422.9161	-2752.186	1	2784.49	-81.26395	4.899479E-007	0.0007383	8
	54	153	1.201923	506.1482	-3404.168	1	3441.59	-81.54295	5.139349E-007	0.0006621	8
	55	159	0.956633	600.1287	-4197.38	1	4240.065	-81.86317	4.898191E-007	-3.943548E-005	8
