EXPLAIN
TAG	EISPOT
TITLE	LABEL	Potentiostatic EIS	Test Identifier
DATE	LABEL	2/26/2021	Date
TIME	LABEL	1:18:00	Time
NOTES	NOTES	1	Notes...
	
PSTAT	PSTAT	REF3000-16137	Potentiostat
VDC	POTEN	0.00000E+000	T	DC Voltage (V)
FREQINIT	QUANT	3.00000E+005	Initial Freq. (Hz)
FREQFINAL	QUANT	1.00000E+000	Final Freq. (Hz)
PTSPERDEC	QUANT	1.00000E+001	Points/decade
VAC	QUANT	5.00000E+001	AC Voltage (mV rms)
AREA	QUANT	1.00000E+000	Sample Area (cm^2)
SPEED	SELECTOR	2	Optimize for:
ZGUESS	QUANT	1.00000E+003	Estimated Z (ohms)
EOC	QUANT	0	Open Circuit (V)
SEQUENCER	TOGGLE	TRUE	Run as Sequence
PSTATMODEL	IQUANT	5	Pstat Model
PSTATSECTION	LABEL	REF3000-16137	Pstat Section
PSTATSERIALNO	LABEL	16137	Pstat Serial Number
CTRLMODE	IQUANT	1	Control Mode
IESTAB	IQUANT	0	I/E Stability
CASPEED	IQUANT	1	Control Amp Speed
CONVENTION	IQUANT	1	Current Convention
ICHRANGE	IQUANT	2	Ich Range
ICHRANGEMODE	TOGGLE	F	Ich Auto Range
ICHOFFSETENABLE	TOGGLE	T	Ich Offset Enable
ICHOFFSET	QUANT	0	Ich Offset (V)
ICHFILTER	IQUANT	3	Ich Filter
VCHRANGE	IQUANT	2	Vch Range
VCHRANGEMODE	TOGGLE	F	Vch Auto Range
VCHOFFSETENABLE	TOGGLE	T	Vch Offset Enable
VCHOFFSET	QUANT	0	Vch Offset (V)
VCHFILTER	IQUANT	3	Vch Filter
ACHRANGE	IQUANT	2	Ach Range
ACHOFFSETENABLE	TOGGLE	F	Ach Offset Enable
ACHOFFSET	QUANT	0	Ach Offset (V)
ACHFILTER	IQUANT	3	Ach Filter
IERANGELOWERLIMIT	IQUANT	2	I/E Range Lower Limit
IERANGEMODE	TOGGLE	F	I/E AutoRange
IERANGE	IQUANT	11	I/E Range
POSFEEDENABLE	TOGGLE	F	Positive Feedback IR Comp
POSFEEDRESISTANCE	QUANT	0	Positive Feedback Resistance (ohm)
ACHSELECT	IQUANT	0	Ach Select
CABLEID	IQUANT	13	Cable ID
DCCALDATE	LABEL	7/31/2020	DC Calibration Date
ACCALDATE	LABEL	7/31/2020	AC Calibration Date
THERMOSELECT	IQUANT	1	Thermo Select
FRAMEWORKVERSION	QUANT	6.33	Framework Version
INSTRUMENTVERSION	LABEL	3.50	Instrument Version
COMPLIANCEVOLTAGE	IQUANT	0	Compliance Voltage
ZCURVE	TABLE
	Pt	Time	Freq	Zreal	Zimag	Zsig	Zmod	Zphz	Idc	Vdc	IERange
	#	s	Hz	ohm	ohm	V	ohm	°	A	V	#
	0	10	300046.9	2.809317	2.247613	1	3.597781	38.6618	-1.089224E-005	-0.0001418	10
	1	14	238359.4	2.788648	1.777384	1	3.30691	32.51197	1.066873E-005	-0.0005638	10
	2	17	189328.1	2.853201	1.184147	1	3.089168	22.53962	-0.0001042	-0.0001675	12
	3	20	150421.9	2.767808	1.084899	1	2.972838	21.40371	-3.745626E-005	0.000385	11
	4	23	119484.4	2.751426	0.840679	1	2.876992	16.99017	-4.751524E-005	0.000455	11
	5	25	94921.88	2.743614	0.6383479	1	2.816896	13.0978	1.128555E-005	0.0005785	11
	6	28	75421.88	2.742749	0.4722331	1	2.783106	9.76913	-3.478639E-005	0.0005845	11
	7	30	59859.37	2.742531	0.3295592	1	2.762261	6.852153	8.841982E-006	0.0006697	11
	8	33	47578.12	2.743671	0.2054207	1	2.75135	4.281788	-4.247518E-005	0.0006185	11
	9	36	37828.12	2.748524	0.0935944	1	2.750118	1.950317	-4.369651E-005	0.0006579	11
	10	39	30046.88	2.752934	-0.0128154	1	2.752963	-0.2667208	-4.92649E-005	0.0006478	11
	11	42	23859.38	2.759445	-0.1189739	1	2.762008	-2.468787	1.174653E-005	0.0007116	11
	12	44	18984.38	2.767128	-0.2284887	1	2.776545	-4.720349	-5.692836E-005	0.0006652	11
	13	46	15046.87	2.776333	-0.3501137	1	2.798322	-7.187432	-2.047503E-005	0.000672	11
	14	48	11953.13	2.788647	-0.4867554	1	2.830809	-9.90117	-3.362709E-005	0.0006902	11
	15	51	9515.62	2.803636	-0.6442269	1	2.8767	-12.94094	-3.278658E-005	0.0007132	11
	16	53	7546.875	2.820714	-0.8342296	1	2.941491	-16.47565	-1.4003E-005	0.0006992	11
	17	55	5928.309	2.845387	-1.074309	1	3.041441	-20.68461	1.208327E-005	0.0007391	11
	18	58	4733.456	2.873187	-1.347807	1	3.173608	-25.1312	-1.515906E-005	0.0007036	11
	19	60	3796.875	2.907112	-1.673989	1	3.35463	-29.93444	1.320268E-005	0.0007457	11
	20	62	2987.132	2.953396	-2.109116	1	3.629176	-35.53186	1.665235E-005	0.0007412	11
	21	65	2390.625	3.01003	-2.612091	1	3.985385	-40.9513	-1.362551E-005	0.0006691	10
	22	67	1884.191	3.084074	-3.272533	1	4.496775	-46.69819	-1.081009E-005	0.0006791	10
	23	69	1516.544	3.16837	-4.016813	1	5.11599	-51.73444	-2.676982E-005	0.0006949	10
	24	72	1193.986	3.287253	-5.028759	1	6.007865	-56.82772	-2.081666E-005	0.0007007	10
	25	74	946.5144	3.442219	-6.242678	1	7.128807	-61.12762	7.324248E-006	0.0006627	10
	26	76	751.7689	3.623651	-7.739035	1	8.54538	-64.90958	-1.128884E-005	0.0006785	10
	27	79	597.4265	3.860972	-9.57992	1	10.3287	-68.04921	1.82178E-005	0.0006791	10
	28	81	477.4305	4.148743	-11.78122	1	12.49036	-70.60034	-3.310648E-006	0.0006926	10
	29	83	376.6741	4.526712	-14.65449	1	15.3377	-72.83429	-2.306414E-006	0.0006885	10
	30	86	298.2954	4.985691	-18.15898	1	18.83098	-74.6473	-2.692703E-006	0.0006887	10
	31	88	237.7717	5.5328	-22.36081	1	23.03514	-76.10227	-2.735803E-006	0.0006907	10
	32	90	189.0121	6.205699	-27.60444	1	28.29339	-77.33009	-1.982642E-006	0.0006874	10
	33	93	150.2404	7.029071	-34.09426	1	34.8113	-78.35078	-2.079149E-006	0.0006873	10
	34	95	119.1737	8.050467	-42.20158	1	42.96258	-79.19989	-2.034254E-006	0.0006848	10
	35	98	95.0169	9.275053	-51.94397	1	52.76554	-79.87603	1.064294E-006	8.544343E-005	9
	36	100	75.60484	10.83183	-64.14596	1	65.05407	-80.41533	9.706275E-007	8.662625E-005	9
	37	103	54.50582	13.78668	-86.76475	1	87.85326	-80.97134	8.631721E-007	7.751514E-005	9
	38	105	45.95588	15.77367	-101.5735	1	102.7909	-81.17286	1.10366E-006	8.955586E-005	9
	39	107	37.20238	18.77432	-123.3406	1	124.7613	-81.34515	1.020874E-006	9.03662E-005	9
	40	110	30.04808	22.56891	-150.2282	1	151.9141	-81.4563	9.955843E-007	7.858625E-005	9
	41	112	23.91582	27.5292	-184.904	1	186.9421	-81.53179	1.09038E-006	6.999369E-005	9
	42	115	18.60119	34.60998	-232.8866	1	235.4443	-81.54697	1.012575E-006	8.725102E-005	9
	43	117	15.02404	42.04848	-283.0232	1	286.1297	-81.54944	1.091735E-006	7.792844E-005	9
	44	119	12.01923	51.65465	-346.761	1	350.5872	-81.52734	1.151909E-006	8.450384E-005	9
	45	122	9.450605	64.11895	-430.0518	1	434.8055	-81.51991	6.281621E-007	0.0006595	8
	46	124	7.512019	79.33537	-529.9343	1	535.84	-81.4856	6.042901E-007	0.0006607	8
	47	127	5.978954	97.8806	-652.2668	1	659.57	-81.46574	6.281899E-007	0.0006598	8
	48	130	4.734848	121.8725	-807.7964	1	816.9381	-81.42047	5.769965E-007	0.0006533	8
	49	133	3.75601	152.5215	-998.348	1	1009.931	-81.31387	6.268952E-007	0.0006665	8
	50	137	3.004808	189.9718	-1224.552	1	1239.2	-81.18167	5.706567E-007	0.0006947	8
	51	140	2.372217	242.5021	-1519.58	1	1538.808	-80.93291	5.390755E-007	0.0006868	8
	52	145	1.878005	315.5569	-1886.516	1	1912.726	-80.50407	5.783984E-007	0.0006453	8
	53	149	1.512097	405.3904	-2302.473	1	2337.889	-80.01443	5.792627E-007	0.0007621	8
	54	155	1.201923	535.8685	-2843.357	1	2893.412	-79.32703	5.879699E-007	0.0006368	8
	55	161	0.956633	715.3333	-3499.79	1	3572.147	-78.44824	5.246707E-007	1.662944E-005	8
