EXPLAIN
TAG	EISPOT
TITLE	LABEL	Potentiostatic EIS	Test Identifier
DATE	LABEL	2/26/2021	Date
TIME	LABEL	1:48:58	Time
NOTES	NOTES	1	Notes...
	
PSTAT	PSTAT	REF3000-16137	Potentiostat
VDC	POTEN	0.00000E+000	T	DC Voltage (V)
FREQINIT	QUANT	3.00000E+005	Initial Freq. (Hz)
FREQFINAL	QUANT	1.00000E+000	Final Freq. (Hz)
PTSPERDEC	QUANT	1.00000E+001	Points/decade
VAC	QUANT	5.00000E+001	AC Voltage (mV rms)
AREA	QUANT	1.00000E+000	Sample Area (cm^2)
SPEED	SELECTOR	2	Optimize for:
ZGUESS	QUANT	1.00000E+003	Estimated Z (ohms)
EOC	QUANT	0	Open Circuit (V)
SEQUENCER	TOGGLE	TRUE	Run as Sequence
PSTATMODEL	IQUANT	5	Pstat Model
PSTATSECTION	LABEL	REF3000-16137	Pstat Section
PSTATSERIALNO	LABEL	16137	Pstat Serial Number
CTRLMODE	IQUANT	1	Control Mode
IESTAB	IQUANT	0	I/E Stability
CASPEED	IQUANT	1	Control Amp Speed
CONVENTION	IQUANT	1	Current Convention
ICHRANGE	IQUANT	2	Ich Range
ICHRANGEMODE	TOGGLE	F	Ich Auto Range
ICHOFFSETENABLE	TOGGLE	T	Ich Offset Enable
ICHOFFSET	QUANT	0	Ich Offset (V)
ICHFILTER	IQUANT	3	Ich Filter
VCHRANGE	IQUANT	2	Vch Range
VCHRANGEMODE	TOGGLE	F	Vch Auto Range
VCHOFFSETENABLE	TOGGLE	T	Vch Offset Enable
VCHOFFSET	QUANT	0	Vch Offset (V)
VCHFILTER	IQUANT	3	Vch Filter
ACHRANGE	IQUANT	2	Ach Range
ACHOFFSETENABLE	TOGGLE	F	Ach Offset Enable
ACHOFFSET	QUANT	0	Ach Offset (V)
ACHFILTER	IQUANT	3	Ach Filter
IERANGELOWERLIMIT	IQUANT	2	I/E Range Lower Limit
IERANGEMODE	TOGGLE	F	I/E AutoRange
IERANGE	IQUANT	11	I/E Range
POSFEEDENABLE	TOGGLE	F	Positive Feedback IR Comp
POSFEEDRESISTANCE	QUANT	0	Positive Feedback Resistance (ohm)
ACHSELECT	IQUANT	0	Ach Select
CABLEID	IQUANT	13	Cable ID
DCCALDATE	LABEL	7/31/2020	DC Calibration Date
ACCALDATE	LABEL	7/31/2020	AC Calibration Date
THERMOSELECT	IQUANT	1	Thermo Select
FRAMEWORKVERSION	QUANT	6.33	Framework Version
INSTRUMENTVERSION	LABEL	3.50	Instrument Version
COMPLIANCEVOLTAGE	IQUANT	0	Compliance Voltage
ZCURVE	TABLE
	Pt	Time	Freq	Zreal	Zimag	Zsig	Zmod	Zphz	Idc	Vdc	IERange
	#	s	Hz	ohm	ohm	V	ohm	°	A	V	#
	0	8	300046.9	10.21678	2.094399	1	10.42924	11.58491	-6.775972E-006	6.400389E-005	10
	1	11	238359.4	10.26926	1.635251	1	10.39864	9.04767	-7.29662E-006	8.542382E-005	10
	2	15	189328.1	10.33734	1.264116	1	10.41435	6.971879	1.329877E-005	0.000318	10
	3	17	150421.9	10.3986	0.966364	1	10.44341	5.309369	-0.0001065	0.0004661	10
	4	20	119484.4	10.48614	0.7138101	1	10.51041	3.894217	-3.133255E-005	0.0005567	10
	5	22	94921.88	10.56575	0.5264132	1	10.57885	2.852267	1.403963E-005	0.0005947	10
	6	25	75421.88	10.65137	0.3349408	1	10.65663	1.801119	-1.271198E-006	0.0006661	10
	7	27	59859.37	10.74445	0.1652185	1	10.74572	0.8809736	-2.589774E-005	0.0006382	10
	8	30	47578.12	10.84176	0.0162691	1	10.84177	0.0859779	-2.530915E-005	0.0007043	10
	9	32	37828.12	10.94235	-0.1237233	1	10.94305	-0.6478061	1.238112E-005	0.0006167	10
	10	35	30046.88	11.0473	-0.261514	1	11.05039	-1.356065	-2.500767E-005	0.0007075	10
	11	37	23859.38	11.15399	-0.4057288	1	11.16137	-2.083227	-4.88355E-006	0.000645	10
	12	40	18984.38	11.26174	-0.5594163	1	11.27562	-2.843777	6.124946E-006	0.000634	10
	13	42	15046.87	11.37707	-0.734062	1	11.40072	-3.691675	1.228618E-005	0.0006251	10
	14	44	11953.13	11.50203	-0.9360391	1	11.54006	-4.652496	5.651575E-006	0.0006372	10
	15	47	9515.62	11.63148	-1.16928	1	11.6901	-5.7405	2.163699E-005	0.0006627	10
	16	49	7546.875	11.77645	-1.453034	1	11.86575	-7.033871	-3.033066E-005	0.0006717	10
	17	51	5928.309	11.9368	-1.807574	1	12.07288	-8.610807	-2.136969E-005	0.0007028	10
	18	54	4733.456	12.11124	-2.212751	1	12.31172	-10.35388	-4.197647E-006	0.0006544	10
	19	56	3796.875	12.30443	-2.690848	1	12.59522	-12.33577	-3.107903E-005	0.0006746	10
	20	58	2987.132	12.53772	-3.322465	1	12.97048	-14.84209	1.941686E-005	0.0006782	10
	21	61	2390.625	12.79713	-4.040854	1	13.41995	-17.52416	-2.997522E-005	0.00068	10
	22	63	1884.191	13.11971	-4.968194	1	14.02889	-20.74076	-2.207429E-005	0.0007133	10
	23	65	1516.544	13.47214	-5.989218	1	14.74345	-23.96817	1.163781E-005	0.0006303	10
	24	68	1193.986	13.93138	-7.349887	1	15.75132	-27.81513	-2.065103E-005	0.0006931	10
	25	70	946.5144	14.46159	-8.954092	1	17.00922	-31.76428	-1.72856E-005	0.0006803	10
	26	72	751.7689	15.09748	-10.85453	1	18.59447	-35.71474	-2.779974E-005	0.0007071	10
	27	75	597.4265	15.83194	-13.13701	1	20.57259	-39.68518	2.020124E-005	0.0006785	10
	28	77	477.4305	16.6731	-15.80718	1	22.97519	-43.47286	-2.877646E-006	0.0006806	10
	29	79	376.6741	17.68345	-19.20902	1	26.10921	-47.36794	-2.866356E-006	0.0006827	10
	30	82	298.2954	18.81635	-23.28458	1	29.93704	-51.0582	-2.249038E-006	0.0006892	10
	31	84	237.7717	20.05793	-28.0979	1	34.52264	-54.47853	-2.981E-006	0.0006823	10
	32	86	189.0121	21.45686	-34.04159	1	40.23962	-57.77624	-2.489385E-006	0.0006835	10
	33	89	150.2404	22.98793	-41.28405	1	47.2527	-60.88991	1.200255E-006	7.656126E-005	9
	34	91	119.1737	24.74205	-50.34876	1	56.09962	-63.82988	1.169303E-006	7.800316E-005	9
	35	94	95.0169	26.67383	-61.28934	1	66.84217	-66.48077	1.171321E-006	8.037617E-005	9
	36	96	75.60484	28.88978	-74.92966	1	80.30612	-68.91542	1.176231E-006	7.811083E-005	9
	37	99	54.50582	32.5564	-100.2948	1	105.4465	-72.0162	1.135807E-006	7.386259E-005	9
	38	101	45.95588	34.91998	-116.991	1	122.0914	-73.38046	1.536985E-006	5.596252E-005	9
	39	104	37.20238	38.22987	-141.7346	1	146.7999	-74.90492	1.140005E-006	8.113791E-005	9
	40	106	30.04808	42.21703	-172.2812	1	177.3784	-76.23115	1.177665E-006	7.697142E-005	9
	41	108	23.91582	47.35371	-212.3316	1	217.5479	-77.42776	1.178342E-006	8.463397E-005	9
	42	111	18.60119	54.43489	-267.6698	1	273.1488	-78.50475	1.469178E-006	5.869688E-005	9
	43	113	15.02404	61.89948	-326.0389	1	331.8628	-79.25016	1.270689E-006	7.283744E-005	9
	44	115	12.01923	71.62189	-400.5195	1	406.8729	-79.86139	1.316805E-006	8.383969E-005	9
	45	118	9.450605	84.40969	-497.7933	1	504.8992	-80.37603	5.677854E-007	0.000653	8
	46	120	7.512019	99.8861	-614.7348	1	622.797	-80.77087	5.492556E-007	0.0006493	8
	47	123	5.978954	119.0528	-758.1878	1	767.4779	-81.07612	5.852526E-007	0.0006643	8
	48	126	4.734848	143.6367	-939.0745	1	949.996	-81.30369	5.862366E-007	0.0006474	8
	49	129	3.75601	172.7507	-1160.699	1	1173.484	-81.53462	6.027395E-007	0.0006763	8
	50	133	3.004808	206.8555	-1422.988	1	1437.944	-81.72902	5.974407E-007	0.0006392	8
	51	136	2.372217	251.656	-1767.584	1	1785.409	-81.89709	5.864053E-007	0.0005827	8
	52	141	1.878005	301.047	-2190.276	1	2210.868	-82.1739	6.058172E-007	0.0006664	8
	53	145	1.512097	358.6437	-2666.106	1	2690.12	-82.33858	5.679487E-007	0.0006287	8
	54	151	1.201923	429.0298	-3305.388	1	3333.115	-82.60452	6.077935E-007	0.0006839	8
	55	157	0.956633	514.7595	-4083.9	1	4116.214	-82.81598	5.890597E-007	1.548802E-005	8
