EXPLAIN
TAG	EISPOT
TITLE	LABEL	Potentiostatic EIS	Test Identifier
DATE	LABEL	2/26/2021	Date
TIME	LABEL	1:46:10	Time
NOTES	NOTES	1	Notes...
	
PSTAT	PSTAT	REF3000-16137	Potentiostat
VDC	POTEN	0.00000E+000	T	DC Voltage (V)
FREQINIT	QUANT	3.00000E+005	Initial Freq. (Hz)
FREQFINAL	QUANT	1.00000E+000	Final Freq. (Hz)
PTSPERDEC	QUANT	1.00000E+001	Points/decade
VAC	QUANT	5.00000E+001	AC Voltage (mV rms)
AREA	QUANT	1.00000E+000	Sample Area (cm^2)
SPEED	SELECTOR	2	Optimize for:
ZGUESS	QUANT	1.00000E+003	Estimated Z (ohms)
EOC	QUANT	0	Open Circuit (V)
SEQUENCER	TOGGLE	TRUE	Run as Sequence
PSTATMODEL	IQUANT	5	Pstat Model
PSTATSECTION	LABEL	REF3000-16137	Pstat Section
PSTATSERIALNO	LABEL	16137	Pstat Serial Number
CTRLMODE	IQUANT	1	Control Mode
IESTAB	IQUANT	0	I/E Stability
CASPEED	IQUANT	1	Control Amp Speed
CONVENTION	IQUANT	1	Current Convention
ICHRANGE	IQUANT	2	Ich Range
ICHRANGEMODE	TOGGLE	F	Ich Auto Range
ICHOFFSETENABLE	TOGGLE	T	Ich Offset Enable
ICHOFFSET	QUANT	0	Ich Offset (V)
ICHFILTER	IQUANT	3	Ich Filter
VCHRANGE	IQUANT	2	Vch Range
VCHRANGEMODE	TOGGLE	F	Vch Auto Range
VCHOFFSETENABLE	TOGGLE	T	Vch Offset Enable
VCHOFFSET	QUANT	0	Vch Offset (V)
VCHFILTER	IQUANT	3	Vch Filter
ACHRANGE	IQUANT	2	Ach Range
ACHOFFSETENABLE	TOGGLE	F	Ach Offset Enable
ACHOFFSET	QUANT	0	Ach Offset (V)
ACHFILTER	IQUANT	3	Ach Filter
IERANGELOWERLIMIT	IQUANT	2	I/E Range Lower Limit
IERANGEMODE	TOGGLE	F	I/E AutoRange
IERANGE	IQUANT	11	I/E Range
POSFEEDENABLE	TOGGLE	F	Positive Feedback IR Comp
POSFEEDRESISTANCE	QUANT	0	Positive Feedback Resistance (ohm)
ACHSELECT	IQUANT	0	Ach Select
CABLEID	IQUANT	13	Cable ID
DCCALDATE	LABEL	7/31/2020	DC Calibration Date
ACCALDATE	LABEL	7/31/2020	AC Calibration Date
THERMOSELECT	IQUANT	1	Thermo Select
FRAMEWORKVERSION	QUANT	6.33	Framework Version
INSTRUMENTVERSION	LABEL	3.50	Instrument Version
COMPLIANCEVOLTAGE	IQUANT	0	Compliance Voltage
ZCURVE	TABLE
	Pt	Time	Freq	Zreal	Zimag	Zsig	Zmod	Zphz	Idc	Vdc	IERange
	#	s	Hz	ohm	ohm	V	ohm	°	A	V	#
	0	10	300046.9	6.873843	2.171503	1	7.208685	17.53175	3.058309E-005	0.0001819	10
	1	13	238359.4	6.878453	1.727053	1	7.091955	14.09455	1.805154E-005	9.309006E-007	10
	2	17	189328.1	6.898512	1.356459	1	7.030608	11.12419	1.665256E-005	0.0002175	10
	3	19	150421.9	6.917948	1.064573	1	6.99938	8.748371	3.794839E-005	0.0003722	10
	4	22	119484.4	6.953525	0.81137	1	7.000702	6.655445	-2.462772E-005	0.0004908	10
	5	24	94921.88	6.990912	0.6280774	1	7.01907	5.133783	1.723638E-005	0.0005389	10
	6	27	75421.88	7.02524	0.4468124	1	7.039434	3.639168	-1.494348E-005	0.0006451	10
	7	29	59859.37	7.064294	0.2883804	1	7.070178	2.337645	1.169189E-005	0.0005804	10
	8	32	47578.12	7.107738	0.1491691	1	7.109303	1.202282	-1.165037E-005	0.000617	10
	9	34	37828.12	7.154244	0.0228021	1	7.154281	0.1826135	-1.389315E-005	0.0006318	10
	10	37	30046.88	7.203456	-0.0988288	1	7.204134	-0.7860279	-2.675497E-005	0.0006506	10
	11	39	23859.38	7.253453	-0.221653	1	7.256839	-1.750316	-2.095393E-005	0.000649	10
	12	42	18984.38	7.304418	-0.351649	1	7.312877	-2.756203	1.762574E-005	0.000694	10
	13	44	15046.87	7.359717	-0.4976343	1	7.376522	-3.868221	2.117158E-005	0.000654	10
	14	46	11953.13	7.419222	-0.6639982	1	7.448876	-5.114176	-2.263343E-005	0.0006663	10
	15	49	9515.62	7.484923	-0.8562399	1	7.533739	-6.525999	-2.362556E-005	0.000714	10
	16	51	7546.875	7.556952	-1.08888	1	7.634997	-8.199304	1.194185E-005	0.000642	10
	17	53	5928.309	7.642815	-1.383799	1	7.767079	-10.26273	-2.186716E-005	0.0007047	10
	18	56	4733.456	7.736606	-1.7159	1	7.924606	-12.50519	-1.226166E-005	0.0006663	10
	19	58	3796.875	7.841973	-2.1114	1	8.121241	-15.06917	1.108953E-005	0.0006575	10
	20	60	2987.132	7.974388	-2.634773	1	8.398386	-18.28378	1.446584E-005	0.0006838	10
	21	63	2390.625	8.120354	-3.229122	1	8.738843	-21.68563	-2.970638E-005	0.0006818	10
	22	65	1884.191	8.299901	-4.002546	1	9.214594	-25.74524	-6.248913E-006	0.0006945	10
	23	67	1516.544	8.49829	-4.862179	1	9.7909	-29.77544	3.778378E-006	0.0006912	10
	24	69	1193.986	8.749495	-6.016099	1	10.61824	-34.51218	1.048835E-005	0.0006425	10
	25	72	946.5144	9.03522	-7.398774	1	11.67806	-39.31341	-2.468033E-005	0.0007248	10
	26	74	751.7689	9.359418	-9.085778	1	13.04416	-44.15006	1.466639E-005	0.0006864	10
	27	77	597.4265	9.74358	-11.14988	1	14.80733	-48.85066	2.736978E-006	0.0006394	10
	28	79	477.4305	10.18091	-13.63079	1	17.01321	-53.24376	-6.668024E-007	0.0006707	10
	29	81	376.6741	10.72182	-16.859	1	19.97958	-57.54485	-2.945306E-006	0.0006807	10
	30	84	298.2954	11.35507	-20.80047	1	23.69804	-61.36967	-3.217029E-006	0.0006844	10
	31	86	237.7717	12.09251	-25.53405	1	28.25273	-64.65853	-3.133717E-006	0.0006794	10
	32	88	189.0121	12.97644	-31.43492	1	34.00798	-67.569	-3.213832E-006	0.0006849	10
	33	91	150.2404	14.03117	-38.72092	1	41.18474	-70.08118	-3.085718E-006	0.0006816	10
	34	93	119.1737	15.28541	-47.75835	1	50.14482	-72.25234	1.098601E-006	8.799347E-005	9
	35	95	95.0169	16.77487	-58.72559	1	61.07447	-74.05809	1.182817E-006	8.184405E-005	9
	36	98	75.60484	18.57504	-72.38894	1	74.73413	-75.60838	1.116395E-006	7.543104E-005	9
	37	101	54.50582	21.77471	-97.7595	1	100.1552	-77.44306	1.086007E-006	7.554232E-005	9
	38	103	45.95588	23.87738	-114.3998	1	116.865	-78.21055	1.251226E-006	8.52435E-005	9
	39	105	37.20238	26.92327	-139.0356	1	141.6183	-79.04071	1.138933E-006	8.883323E-005	9
	40	108	30.04808	30.6895	-169.3855	1	172.1432	-79.73048	1.197846E-006	7.904199E-005	9
	41	110	23.91582	35.6931	-209.3079	1	212.3295	-80.32249	1.140064E-006	7.796213E-005	9
	42	113	18.60119	42.56717	-263.9941	1	267.4039	-80.8403	1.299662E-006	7.9556E-005	9
	43	115	15.02404	49.97423	-321.6642	1	325.523	-81.16904	1.311636E-006	9.339711E-005	9
	44	117	12.01923	59.66842	-395.2994	1	399.7774	-81.4163	1.260846E-006	8.878777E-005	9
	45	120	9.450605	72.37435	-491.3633	1	496.6648	-81.62099	6.23816E-007	0.0006739	8
	46	122	7.512019	87.56641	-606.7328	1	613.0193	-81.78752	6.415655E-007	0.0006835	8
	47	125	5.978954	106.5603	-747.9845	1	755.5368	-81.89202	6.498766E-007	0.0006594	8
	48	128	4.734848	130.4231	-926.1557	1	935.2938	-81.98421	6.382378E-007	0.0006899	8
	49	131	3.75601	158.7279	-1145.247	1	1156.195	-82.10925	6.471727E-007	0.0006537	8
	50	135	3.004808	191.3669	-1404.233	1	1417.212	-82.23962	6.157907E-007	0.0007013	8
	51	138	2.372217	231.7604	-1742.894	1	1758.236	-82.42556	6.006887E-007	0.0007134	8
	52	143	1.878005	283.6504	-2161.733	1	2180.263	-82.52467	6.347017E-007	0.0006366	8
	53	147	1.512097	340.1289	-2639.703	1	2661.526	-82.65782	6.330985E-007	0.0007566	8
	54	153	1.201923	409.0955	-3268.099	1	3293.605	-82.86492	6.358279E-007	0.0006382	8
	55	159	0.956633	490.7752	-4038.933	1	4068.641	-83.07189	6.118515E-007	1.675994E-005	8
