EXPLAIN
TAG	EISPOT
TITLE	LABEL	Potentiostatic EIS	Test Identifier
DATE	LABEL	2/26/2021	Date
TIME	LABEL	2:11:07	Time
NOTES	NOTES	1	Notes...
	
PSTAT	PSTAT	REF3000-16137	Potentiostat
VDC	POTEN	0.00000E+000	T	DC Voltage (V)
FREQINIT	QUANT	3.00000E+005	Initial Freq. (Hz)
FREQFINAL	QUANT	1.00000E+000	Final Freq. (Hz)
PTSPERDEC	QUANT	1.00000E+001	Points/decade
VAC	QUANT	5.00000E+001	AC Voltage (mV rms)
AREA	QUANT	1.00000E+000	Sample Area (cm^2)
SPEED	SELECTOR	2	Optimize for:
ZGUESS	QUANT	1.00000E+003	Estimated Z (ohms)
EOC	QUANT	0	Open Circuit (V)
SEQUENCER	TOGGLE	TRUE	Run as Sequence
PSTATMODEL	IQUANT	5	Pstat Model
PSTATSECTION	LABEL	REF3000-16137	Pstat Section
PSTATSERIALNO	LABEL	16137	Pstat Serial Number
CTRLMODE	IQUANT	1	Control Mode
IESTAB	IQUANT	0	I/E Stability
CASPEED	IQUANT	1	Control Amp Speed
CONVENTION	IQUANT	1	Current Convention
ICHRANGE	IQUANT	2	Ich Range
ICHRANGEMODE	TOGGLE	F	Ich Auto Range
ICHOFFSETENABLE	TOGGLE	T	Ich Offset Enable
ICHOFFSET	QUANT	0	Ich Offset (V)
ICHFILTER	IQUANT	3	Ich Filter
VCHRANGE	IQUANT	2	Vch Range
VCHRANGEMODE	TOGGLE	F	Vch Auto Range
VCHOFFSETENABLE	TOGGLE	T	Vch Offset Enable
VCHOFFSET	QUANT	0	Vch Offset (V)
VCHFILTER	IQUANT	3	Vch Filter
ACHRANGE	IQUANT	2	Ach Range
ACHOFFSETENABLE	TOGGLE	F	Ach Offset Enable
ACHOFFSET	QUANT	0	Ach Offset (V)
ACHFILTER	IQUANT	3	Ach Filter
IERANGELOWERLIMIT	IQUANT	2	I/E Range Lower Limit
IERANGEMODE	TOGGLE	F	I/E AutoRange
IERANGE	IQUANT	11	I/E Range
POSFEEDENABLE	TOGGLE	F	Positive Feedback IR Comp
POSFEEDRESISTANCE	QUANT	0	Positive Feedback Resistance (ohm)
ACHSELECT	IQUANT	0	Ach Select
CABLEID	IQUANT	13	Cable ID
DCCALDATE	LABEL	7/31/2020	DC Calibration Date
ACCALDATE	LABEL	7/31/2020	AC Calibration Date
THERMOSELECT	IQUANT	1	Thermo Select
FRAMEWORKVERSION	QUANT	6.33	Framework Version
INSTRUMENTVERSION	LABEL	3.50	Instrument Version
COMPLIANCEVOLTAGE	IQUANT	0	Compliance Voltage
ZCURVE	TABLE
	Pt	Time	Freq	Zreal	Zimag	Zsig	Zmod	Zphz	Idc	Vdc	IERange
	#	s	Hz	ohm	ohm	V	ohm	°	A	V	#
	0	8	300046.9	264.0851	-41.83192	1	267.3777	-9.001048	1.371804E-005	0.0003738	10
	1	14	238359.4	272.1619	-36.01811	1	274.5349	-7.538758	1.85345E-005	0.0008017	10
	2	21	189328.1	279.3435	-26.67842	1	280.6146	-5.455429	-5.725581E-006	-0.0015156	9
	3	25	150421.9	284.5877	-23.33064	1	285.5424	-4.686655	-5.482243E-006	-0.0014464	9
	4	30	119484.4	289.7467	-21.60494	1	290.5511	-4.264364	1.626913E-005	0.0006187	10
	5	34	94921.88	293.848	-16.03514	1	294.2852	-3.123505	-9.222727E-006	0.0009386	9
	6	38	75421.88	296.5549	-13.40387	1	296.8576	-2.587929	1.568632E-005	-0.0008018	9
	7	40	59859.37	299.0393	-11.34201	1	299.2543	-2.172082	-9.770754E-006	-6.119637E-005	9
	8	43	47578.12	301.7618	-9.5954	1	301.9144	-1.821273	-9.604651E-006	-0.0001046	9
	9	45	37828.12	304.0826	-8.762341	1	304.2088	-1.650559	-1.77069E-005	0.0002512	9
	10	48	30046.88	306.3887	-6.906192	1	306.4666	-1.291264	2.870759E-007	0.0005938	9
	11	50	23859.38	309.0991	-6.924976	1	309.1767	-1.283425	-2.065108E-005	0.0006765	9
	12	53	18984.38	310.5852	-6.285764	1	310.6488	-1.15942	2.711647E-005	-0.0004513	9
	13	55	15046.87	313.2805	-6.22853	1	313.3424	-1.138984	9.377779E-006	0.0003985	9
	14	57	11953.13	315.1099	-6.45388	1	315.176	-1.173332	-1.704481E-005	0.0009869	9
	15	60	9515.62	317.6298	-6.476204	1	317.6958	-1.168051	-1.326829E-006	-0.0003731	9
	16	62	7546.875	320.3267	-6.336237	1	320.3894	-1.133194	2.821278E-005	-0.0004407	9
	17	64	5928.309	322.2558	-7.33848	1	322.3394	-1.304527	-2.199106E-005	0.0009941	9
	18	67	4733.456	324.593	-8.550665	1	324.7056	-1.508978	-1.126164E-006	-0.0003722	9
	19	69	3796.875	327.1973	-8.945556	1	327.3195	-1.566073	-9.623786E-006	-9.040673E-005	9
	20	71	2987.132	329.9407	-10.11697	1	330.0958	-1.75631	2.805843E-005	-0.0006458	9
	21	74	2390.625	332.9402	-11.15887	1	333.1271	-1.919615	2.618727E-005	-0.0007679	9
	22	76	1884.191	336.8846	-14.64356	1	337.2027	-2.488942	-8.989307E-006	0.0009066	9
	23	78	1516.544	338.7993	-14.61729	1	339.1145	-2.470459	-1.84651E-005	0.0002862	9
	24	81	1193.986	342.6992	-17.4233	1	343.1418	-2.91049	2.767458E-005	-0.0006217	9
	25	83	946.5144	346.4672	-20.4468	1	347.07	-3.377399	2.002793E-005	-6.516872E-005	9
	26	86	751.7689	349.9627	-24.33288	1	350.8076	-3.97737	-1.711215E-005	0.0010381	9
	27	88	597.4265	353.6686	-27.2937	1	354.7202	-4.412947	1.681291E-005	-0.0008004	9
	28	91	477.4305	357.476	-32.7463	1	358.9727	-5.233926	1.195712E-006	8.146566E-005	9
	29	93	376.6741	360.4694	-38.84891	1	362.5568	-6.151202	4.580738E-008	0.0006599	8
	30	95	298.2954	365.4241	-46.3468	1	368.3515	-7.22824	2.501089E-008	0.0006629	8
	31	98	237.7717	370.9104	-55.108	1	374.9819	-8.450897	5.872001E-008	0.000649	8
	32	100	189.0121	377.1122	-65.71508	1	382.795	-9.88503	6.772726E-008	0.0006429	8
	33	102	150.2404	384.1014	-78.40503	1	392.022	-11.53705	2.583356E-008	0.0006636	8
	34	105	119.1737	392.0427	-93.73711	1	403.0932	-13.44692	7.719017E-008	0.0006505	8
	35	107	95.0169	400.9335	-111.613	1	416.1792	-15.55628	6.152207E-008	0.0006504	8
	36	110	75.60484	411.1856	-133.1356	1	432.2021	-17.94116	2.462405E-008	0.0006561	8
	37	112	54.50582	427.2289	-171.3542	1	460.3116	-21.85488	2.954775E-008	0.0006476	8
	38	115	45.95588	438.0057	-195.6392	1	479.7121	-24.06836	7.638529E-008	0.000662	8
	39	117	37.20238	451.9795	-230.5593	1	507.3884	-27.02658	9.326306E-008	0.0006564	8
	40	120	30.04808	468.0053	-272.4377	1	541.5268	-30.20477	6.120844E-008	0.0006468	8
	41	122	23.91582	487.008	-325.9787	1	586.0366	-33.79636	-1.76225E-008	0.0006641	8
	42	125	18.60119	510.6343	-397.903	1	647.3594	-37.92689	-6.990717E-008	0.0006584	8
	43	127	15.02404	533.473	-471.7021	1	712.107	-41.48343	7.404687E-009	0.0006576	8
	44	129	12.01923	560.4152	-565.0259	1	795.8137	-45.23473	9.397297E-008	0.0006701	8
	45	132	9.450605	593.0268	-687.4578	1	907.8981	-49.21772	-9.296052E-009	0.0006489	8
	46	134	7.512019	628.4357	-831.8769	1	1042.569	-52.93103	3.400535E-008	0.0006741	8
	47	137	5.978954	668.3811	-1006.72	1	1208.395	-56.41905	-5.35394E-009	0.0006743	8
	48	140	4.734848	714.7153	-1227.919	1	1420.776	-59.79828	8.096782E-008	0.0006837	8
	49	143	3.75601	768.9565	-1498.389	1	1684.181	-62.83361	2.828984E-008	0.0006442	8
	50	147	3.004808	828.1091	-1819.434	1	1999.026	-65.52751	1.919132E-008	0.0006952	8
	51	150	2.372217	899.6393	-2241.329	1	2415.141	-68.13013	3.398177E-008	0.000712	8
	52	155	1.878005	987.278	-2759.979	1	2931.246	-70.31725	3.658559E-008	0.000632	8
	53	159	1.512097	1086.243	-3349.024	1	3520.78	-72.02972	5.604464E-008	0.0007459	8
	54	165	1.201923	1207.2	-4137.447	1	4309.965	-73.73412	-4.617293E-009	0.0006087	7
	55	171	0.956633	1353.699	-5093.545	1	5270.36	-75.11669	-2.039057E-008	-8.739073E-006	7
