EXPLAIN
TAG	EISPOT
TITLE	LABEL	Potentiostatic EIS	Test Identifier
DATE	LABEL	2/26/2021	Date
TIME	LABEL	1:03:39	Time
NOTES	NOTES	1	Notes...
	
PSTAT	PSTAT	REF3000-16137	Potentiostat
VDC	POTEN	0.00000E+000	T	DC Voltage (V)
FREQINIT	QUANT	3.00000E+005	Initial Freq. (Hz)
FREQFINAL	QUANT	1.00000E+000	Final Freq. (Hz)
PTSPERDEC	QUANT	1.00000E+001	Points/decade
VAC	QUANT	5.00000E+001	AC Voltage (mV rms)
AREA	QUANT	1.00000E+000	Sample Area (cm^2)
SPEED	SELECTOR	2	Optimize for:
ZGUESS	QUANT	1.00000E+003	Estimated Z (ohms)
EOC	QUANT	0	Open Circuit (V)
SEQUENCER	TOGGLE	TRUE	Run as Sequence
PSTATMODEL	IQUANT	5	Pstat Model
PSTATSECTION	LABEL	REF3000-16137	Pstat Section
PSTATSERIALNO	LABEL	16137	Pstat Serial Number
CTRLMODE	IQUANT	1	Control Mode
IESTAB	IQUANT	0	I/E Stability
CASPEED	IQUANT	1	Control Amp Speed
CONVENTION	IQUANT	1	Current Convention
ICHRANGE	IQUANT	2	Ich Range
ICHRANGEMODE	TOGGLE	F	Ich Auto Range
ICHOFFSETENABLE	TOGGLE	T	Ich Offset Enable
ICHOFFSET	QUANT	0	Ich Offset (V)
ICHFILTER	IQUANT	3	Ich Filter
VCHRANGE	IQUANT	2	Vch Range
VCHRANGEMODE	TOGGLE	F	Vch Auto Range
VCHOFFSETENABLE	TOGGLE	T	Vch Offset Enable
VCHOFFSET	QUANT	0	Vch Offset (V)
VCHFILTER	IQUANT	3	Vch Filter
ACHRANGE	IQUANT	2	Ach Range
ACHOFFSETENABLE	TOGGLE	F	Ach Offset Enable
ACHOFFSET	QUANT	0	Ach Offset (V)
ACHFILTER	IQUANT	3	Ach Filter
IERANGELOWERLIMIT	IQUANT	2	I/E Range Lower Limit
IERANGEMODE	TOGGLE	F	I/E AutoRange
IERANGE	IQUANT	11	I/E Range
POSFEEDENABLE	TOGGLE	F	Positive Feedback IR Comp
POSFEEDRESISTANCE	QUANT	0	Positive Feedback Resistance (ohm)
ACHSELECT	IQUANT	0	Ach Select
CABLEID	IQUANT	13	Cable ID
DCCALDATE	LABEL	7/31/2020	DC Calibration Date
ACCALDATE	LABEL	7/31/2020	AC Calibration Date
THERMOSELECT	IQUANT	1	Thermo Select
FRAMEWORKVERSION	QUANT	6.33	Framework Version
INSTRUMENTVERSION	LABEL	3.50	Instrument Version
COMPLIANCEVOLTAGE	IQUANT	0	Compliance Voltage
ZCURVE	TABLE
	Pt	Time	Freq	Zreal	Zimag	Zsig	Zmod	Zphz	Idc	Vdc	IERange
	#	s	Hz	ohm	ohm	V	ohm	°	A	V	#
	0	10	300046.9	2.440181	2.221993	1	3.300263	42.32054	-0.0001428	-0.0002297	11
	1	13	238359.4	2.402751	1.760818	1	2.978875	36.23524	-7.487373E-005	-0.0001113	11
	2	16	189328.1	2.367936	1.392927	1	2.747247	30.46597	-5.347261E-005	5.784185E-005	11
	3	19	150421.9	2.398089	0.961199	1	2.583551	21.84184	-0.0001185	0.0003095	12
	4	23	119484.4	2.371403	0.744237	1	2.485446	17.42385	-8.499096E-005	0.0005497	12
	5	26	94921.88	2.350361	0.565749	1	2.417492	13.53405	-0.0001315	0.0004537	12
	6	30	75421.88	2.340562	0.4144411	1	2.376971	10.04123	-0.0001334	0.0005557	12
	7	33	59859.37	2.334818	0.2858558	1	2.352252	6.980083	-0.0001608	0.0005353	12
	8	37	47578.12	2.330347	0.2155771	1	2.340297	5.28531	-5.410704E-005	0.0006109	11
	9	39	37828.12	2.333585	0.1054253	1	2.335965	2.586716	-2.474604E-005	0.0006738	11
	10	42	30046.88	2.337108	0.0008777	1	2.337109	0.0215175	-1.28056E-005	0.0006825	11
	11	47	23859.38	2.342638	-0.1021004	1	2.344862	-2.495572	-1.0005E-005	0.0006985	11
	12	49	18984.38	2.348791	-0.2082667	1	2.358007	-5.067149	-2.028536E-005	0.0006961	11
	13	51	15046.87	2.357784	-0.3253966	1	2.380132	-7.857727	4.510417E-006	0.0007335	11
	14	53	11953.13	2.36758	-0.4560913	1	2.411111	-10.9039	-4.612142E-005	0.0006683	11
	15	56	9515.62	2.381172	-0.6064126	1	2.457176	-14.28779	-5.480432E-005	0.0006842	11
	16	58	7546.875	2.39814	-0.7874861	1	2.524126	-18.17882	4.651001E-006	0.0007218	11
	17	60	5928.309	2.420408	-1.014911	1	2.62458	-22.74899	1.789996E-005	0.0007412	11
	18	63	4733.456	2.447163	-1.273978	1	2.758918	-27.50121	-4.526058E-005	0.0006913	11
	19	65	3796.875	2.47976	-1.582313	1	2.941586	-32.5416	-3.930561E-005	0.0007128	11
	20	67	2987.132	2.52287	-1.994643	1	3.216127	-38.33076	1.314327E-005	0.0007306	11
	21	70	2390.625	2.574673	-2.466619	1	3.56555	-43.77212	-1.470358E-005	0.0006865	11
	22	72	1884.191	2.649168	-3.093575	1	4.072874	-49.42507	-1.607138E-005	0.0006804	10
	23	74	1516.544	2.732208	-3.794918	1	4.676148	-54.24744	-1.867748E-005	0.0007031	10
	24	76	1193.986	2.847997	-4.746912	1	5.535726	-59.03757	-2.514397E-005	0.0006973	10
	25	79	946.5144	2.990468	-5.894558	1	6.609744	-63.10009	6.979768E-006	0.0007006	10
	26	81	751.7689	3.170802	-7.293349	1	7.952793	-66.50288	-4.471668E-006	0.0006968	10
	27	84	597.4265	3.396719	-9.016757	1	9.63533	-69.35802	-2.544579E-005	0.0006908	10
	28	86	477.4305	3.668274	-11.0836	1	11.67486	-71.68731	-2.018204E-006	0.0006835	10
	29	88	376.6741	4.020182	-13.78031	1	14.35475	-73.73625	-1.630261E-006	0.0006813	10
	30	90	298.2954	4.444172	-17.07291	1	17.64186	-75.40939	-2.072957E-006	0.0006885	10
	31	93	237.7717	4.947858	-21.02798	1	21.60225	-76.75922	-2.678313E-006	0.0006847	10
	32	95	189.0121	5.572473	-25.97173	1	26.56281	-77.89026	-2.662268E-006	0.0006826	10
	33	98	150.2404	6.344922	-32.09681	1	32.71793	-78.81789	-2.301922E-006	0.0006847	10
	34	100	119.1737	7.317405	-39.75085	1	40.41874	-79.56966	-2.803912E-006	0.0006836	10
	35	102	95.0169	8.50663	-48.94514	1	49.67886	-80.14052	9.890841E-007	8.479066E-005	9
	36	105	75.60484	10.03835	-60.44744	1	61.2753	-80.57109	8.853973E-007	8.25251E-005	9
	37	108	54.50582	12.97683	-81.72625	1	82.75009	-80.97766	7.237289E-007	8.141172E-005	9
	38	110	45.95588	14.95791	-95.614	1	96.7769	-81.10868	1.092958E-006	8.9751E-005	9
	39	112	37.20238	17.98828	-116.1193	1	117.5043	-81.19418	1.007008E-006	8.625518E-005	9
	40	115	30.04808	21.73648	-141.1087	1	142.7731	-81.24295	9.049653E-007	8.207551E-005	9
	41	117	23.91582	26.88638	-174.0723	1	176.1364	-81.21975	8.508689E-007	7.749389E-005	9
	42	120	18.60119	33.91372	-218.5475	1	221.1632	-81.17932	9.715628E-007	7.994677E-005	9
	43	122	15.02404	41.54314	-265.4476	1	268.6788	-81.10524	9.994252E-007	7.7655E-005	9
	44	124	12.01923	51.59272	-325.0846	1	329.1532	-80.98206	1.109582E-006	8.460811E-005	9
	45	127	9.450605	65.23805	-404.6392	1	409.8645	-80.84129	1.08738E-006	7.687086E-005	9
	46	129	7.512019	81.69148	-496.0806	1	502.7618	-80.64881	5.686358E-007	0.0006752	8
	47	132	5.978954	103.1583	-610.1388	1	618.798	-80.40355	5.393773E-007	0.0006656	8
	48	135	4.734848	131.9168	-754.0336	1	765.486	-80.07664	6.092532E-007	0.0006927	8
	49	138	3.75601	170.4829	-930.2352	1	945.7282	-79.61473	5.211319E-007	0.0006542	8
	50	142	3.004808	219.7155	-1137.259	1	1158.289	-79.06532	5.238205E-007	0.0006838	8
	51	145	2.372217	293.8165	-1405.915	1	1436.288	-78.19588	5.248478E-007	0.0007194	8
	52	149	1.878005	391.894	-1734.316	1	1778.042	-77.26702	4.507198E-007	0.0006515	8
	53	154	1.512097	515.4633	-2096.428	1	2158.869	-76.18631	5.162465E-007	0.0005957	8
	54	160	1.201923	706.6334	-2560.277	1	2656.002	-74.57056	4.802255E-007	0.0006584	8
	55	166	0.956633	963.567	-3097.845	1	3244.242	-72.72199	4.564875E-007	1.953492E-005	8
