EXPLAIN
TAG	EISPOT
TITLE	LABEL	Potentiostatic EIS	Test Identifier
DATE	LABEL	2/26/2021	Date
TIME	LABEL	1:20:50	Time
NOTES	NOTES	1	Notes...
	
PSTAT	PSTAT	REF3000-16137	Potentiostat
VDC	POTEN	0.00000E+000	T	DC Voltage (V)
FREQINIT	QUANT	3.00000E+005	Initial Freq. (Hz)
FREQFINAL	QUANT	1.00000E+000	Final Freq. (Hz)
PTSPERDEC	QUANT	1.00000E+001	Points/decade
VAC	QUANT	5.00000E+001	AC Voltage (mV rms)
AREA	QUANT	1.00000E+000	Sample Area (cm^2)
SPEED	SELECTOR	2	Optimize for:
ZGUESS	QUANT	1.00000E+003	Estimated Z (ohms)
EOC	QUANT	0	Open Circuit (V)
SEQUENCER	TOGGLE	TRUE	Run as Sequence
PSTATMODEL	IQUANT	5	Pstat Model
PSTATSECTION	LABEL	REF3000-16137	Pstat Section
PSTATSERIALNO	LABEL	16137	Pstat Serial Number
CTRLMODE	IQUANT	1	Control Mode
IESTAB	IQUANT	0	I/E Stability
CASPEED	IQUANT	1	Control Amp Speed
CONVENTION	IQUANT	1	Current Convention
ICHRANGE	IQUANT	2	Ich Range
ICHRANGEMODE	TOGGLE	F	Ich Auto Range
ICHOFFSETENABLE	TOGGLE	T	Ich Offset Enable
ICHOFFSET	QUANT	0	Ich Offset (V)
ICHFILTER	IQUANT	3	Ich Filter
VCHRANGE	IQUANT	2	Vch Range
VCHRANGEMODE	TOGGLE	F	Vch Auto Range
VCHOFFSETENABLE	TOGGLE	T	Vch Offset Enable
VCHOFFSET	QUANT	0	Vch Offset (V)
VCHFILTER	IQUANT	3	Vch Filter
ACHRANGE	IQUANT	2	Ach Range
ACHOFFSETENABLE	TOGGLE	F	Ach Offset Enable
ACHOFFSET	QUANT	0	Ach Offset (V)
ACHFILTER	IQUANT	3	Ach Filter
IERANGELOWERLIMIT	IQUANT	2	I/E Range Lower Limit
IERANGEMODE	TOGGLE	F	I/E AutoRange
IERANGE	IQUANT	11	I/E Range
POSFEEDENABLE	TOGGLE	F	Positive Feedback IR Comp
POSFEEDRESISTANCE	QUANT	0	Positive Feedback Resistance (ohm)
ACHSELECT	IQUANT	0	Ach Select
CABLEID	IQUANT	13	Cable ID
DCCALDATE	LABEL	7/31/2020	DC Calibration Date
ACCALDATE	LABEL	7/31/2020	AC Calibration Date
THERMOSELECT	IQUANT	1	Thermo Select
FRAMEWORKVERSION	QUANT	6.33	Framework Version
INSTRUMENTVERSION	LABEL	3.50	Instrument Version
COMPLIANCEVOLTAGE	IQUANT	0	Compliance Voltage
ZCURVE	TABLE
	Pt	Time	Freq	Zreal	Zimag	Zsig	Zmod	Zphz	Idc	Vdc	IERange
	#	s	Hz	ohm	ohm	V	ohm	°	A	V	#
	0	10	300046.9	2.938581	2.255021	1	3.704103	37.50207	-1.946483E-005	-0.0001934	10
	1	14	238359.4	2.907274	1.781596	1	3.40974	31.50023	-2.790875E-006	-0.0005643	10
	2	17	189328.1	2.962759	1.174321	1	3.187	21.62142	-0.0001227	-0.0001427	12
	3	20	150421.9	2.877402	1.07445	1	3.071463	20.47613	5.55914E-005	0.0004569	11
	4	23	119484.4	2.867	0.8377441	1	2.986889	16.28849	-9.086459E-007	0.000525	11
	5	25	94921.88	2.860145	0.6378763	1	2.930412	12.57249	1.32073E-005	0.0006033	11
	6	28	75421.88	2.857878	0.4693909	1	2.896169	9.327243	7.950359E-006	0.0006132	11
	7	31	59859.37	2.858154	0.3266516	1	2.876759	6.519909	1.02155E-005	0.0006509	11
	8	33	47578.12	2.860753	0.2035028	1	2.867982	4.068944	-5.64827E-005	0.0006203	11
	9	36	37828.12	2.865439	0.0910995	1	2.866887	1.820963	-3.969852E-005	0.000669	11
	10	38	30046.88	2.870374	-0.0159714	1	2.870418	-0.3188033	-1.160037E-005	0.000699	11
	11	41	23859.38	2.876899	-0.1227141	1	2.879515	-2.44247	-1.156019E-005	0.0007091	11
	12	43	18984.38	2.884254	-0.2328281	1	2.893636	-4.615128	-4.142139E-007	0.0007145	11
	13	45	15046.87	2.893747	-0.3555158	1	2.915504	-7.004065	9.22334E-006	0.0007261	11
	14	48	11953.13	2.906475	-0.4936967	1	2.948107	-9.6403	-3.692995E-005	0.0006885	11
	15	50	9515.62	2.921041	-0.6526655	1	2.993068	-12.59506	-4.510827E-005	0.0006801	11
	16	52	7546.875	2.940688	-0.8446389	1	3.059585	-16.02538	-3.671434E-005	0.0007074	11
	17	55	5928.309	2.96406	-1.087419	1	3.157235	-20.14647	-4.586287E-005	0.0006867	11
	18	57	4733.456	2.99286	-1.363695	1	3.288902	-24.49636	-3.869935E-005	0.0006943	11
	19	59	3796.875	3.026602	-1.693739	1	3.468295	-29.23213	4.580719E-006	0.0007416	11
	20	61	2987.132	3.073642	-2.133727	1	3.741666	-34.76844	-1.185542E-005	0.0007057	11
	21	64	2390.625	3.132189	-2.641496	1	4.09733	-40.14223	-1.279124E-005	0.0007011	10
	22	66	1884.191	3.205048	-3.31172	1	4.608668	-45.93777	-2.586517E-005	0.0006909	10
	23	68	1516.544	3.290153	-4.064516	1	5.229283	-51.01045	-2.680492E-005	0.0006896	10
	24	71	1193.986	3.410533	-5.086811	1	6.124327	-56.1595	1.1478E-005	0.0006502	10
	25	73	946.5144	3.55687	-6.324476	1	7.256054	-60.6467	-2.833536E-005	0.0006739	10
	26	76	751.7689	3.74729	-7.836864	1	8.686692	-64.44465	-4.903956E-006	0.0006881	10
	27	78	597.4265	3.984092	-9.70054	1	10.48682	-67.67164	-2.086575E-005	0.0006964	10
	28	80	477.4305	4.277514	-11.92943	1	12.67314	-70.27378	-2.315935E-006	0.0006822	10
	29	82	376.6741	4.660103	-14.84124	1	15.55567	-72.56788	-2.894045E-006	0.0006874	10
	30	85	298.2954	5.126945	-18.39164	1	19.09288	-74.42339	-2.522581E-006	0.0006861	10
	31	87	237.7717	5.68024	-22.64914	1	23.35056	-75.92102	-1.413904E-006	0.0006848	10
	32	90	189.0121	6.363358	-27.95855	1	28.67356	-77.17792	-2.430849E-006	0.0006856	10
	33	92	150.2404	7.197784	-34.52913	1	35.27136	-78.22501	-2.069921E-006	0.0006792	10
	34	94	119.1737	8.219162	-42.68549	1	43.4696	-79.101	1.204551E-006	8.612812E-005	9
	35	97	95.0169	9.463042	-52.59593	1	53.44044	-79.80048	1.010115E-006	8.530923E-005	9
	36	99	75.60484	11.02466	-64.95073	1	65.87975	-80.36649	9.525008E-007	8.307138E-005	9
	37	102	54.50582	13.98199	-87.85605	1	88.96169	-80.95741	9.001791E-007	8.268075E-005	9
	38	104	45.95588	15.96225	-102.842	1	104.0734	-81.17744	1.170296E-006	8.972785E-005	9
	39	107	37.20238	18.95647	-124.9919	1	126.4212	-81.37615	9.602319E-007	9.051306E-005	9
	40	109	30.04808	22.74222	-152.2117	1	153.9014	-81.5022	1.036533E-006	8.126809E-005	9
	41	111	23.91582	27.7057	-187.4273	1	189.464	-81.59137	1.026479E-006	7.530614E-005	9
	42	114	18.60119	34.81395	-236.0751	1	238.6283	-81.61107	1.112959E-006	8.037655E-005	9
	43	116	15.02404	42.15221	-287.0036	1	290.0825	-81.64471	1.147054E-006	7.953028E-005	9
	44	118	12.01923	51.83567	-351.7703	1	355.5689	-81.61742	1.129269E-006	9.037634E-005	9
	45	121	9.450605	64.19617	-435.9398	1	440.6412	-81.62287	5.711443E-007	0.0006705	8
	46	123	7.512019	79.35712	-537.512	1	543.3385	-81.60164	5.823842E-007	0.0006621	8
	47	126	5.978954	97.6335	-661.5443	1	668.71	-81.60465	5.657142E-007	0.0006673	8
	48	129	4.734848	120.6884	-819.2958	1	828.1372	-81.62017	6.583927E-007	0.00068	8
	49	132	3.75601	150.478	-1012.29	1	1023.413	-81.54484	6.218388E-007	0.0005931	8
	50	136	3.004808	185.9534	-1241.962	1	1255.806	-81.48462	6.198766E-007	0.0006453	8
	51	140	2.372217	236.8567	-1541.538	1	1559.629	-81.26484	6.127386E-007	0.0006581	8
	52	144	1.878005	304.4997	-1916.143	1	1940.187	-80.97047	5.477456E-007	0.0006651	8
	53	148	1.512097	383.737	-2340.162	1	2371.416	-80.68758	5.91688E-007	0.0005595	8
	54	154	1.201923	506.585	-2895.041	1	2939.029	-80.07466	5.701795E-007	0.0006611	8
	55	160	0.956633	671.2832	-3567.524	1	3630.131	-79.34354	5.643892E-007	2.239017E-005	8
