EXPLAIN
TAG	EISPOT
TITLE	LABEL	Potentiostatic EIS	Test Identifier
DATE	LABEL	2/26/2021	Date
TIME	LABEL	2:38:53	Time
NOTES	NOTES	1	Notes...
	
PSTAT	PSTAT	REF3000-16137	Potentiostat
VDC	POTEN	0.00000E+000	T	DC Voltage (V)
FREQINIT	QUANT	3.00000E+005	Initial Freq. (Hz)
FREQFINAL	QUANT	1.00000E+000	Final Freq. (Hz)
PTSPERDEC	QUANT	1.00000E+001	Points/decade
VAC	QUANT	5.00000E+001	AC Voltage (mV rms)
AREA	QUANT	1.00000E+000	Sample Area (cm^2)
SPEED	SELECTOR	2	Optimize for:
ZGUESS	QUANT	1.00000E+003	Estimated Z (ohms)
EOC	QUANT	0	Open Circuit (V)
SEQUENCER	TOGGLE	TRUE	Run as Sequence
PSTATMODEL	IQUANT	5	Pstat Model
PSTATSECTION	LABEL	REF3000-16137	Pstat Section
PSTATSERIALNO	LABEL	16137	Pstat Serial Number
CTRLMODE	IQUANT	1	Control Mode
IESTAB	IQUANT	0	I/E Stability
CASPEED	IQUANT	1	Control Amp Speed
CONVENTION	IQUANT	1	Current Convention
ICHRANGE	IQUANT	2	Ich Range
ICHRANGEMODE	TOGGLE	F	Ich Auto Range
ICHOFFSETENABLE	TOGGLE	T	Ich Offset Enable
ICHOFFSET	QUANT	0	Ich Offset (V)
ICHFILTER	IQUANT	3	Ich Filter
VCHRANGE	IQUANT	2	Vch Range
VCHRANGEMODE	TOGGLE	F	Vch Auto Range
VCHOFFSETENABLE	TOGGLE	T	Vch Offset Enable
VCHOFFSET	QUANT	0	Vch Offset (V)
VCHFILTER	IQUANT	3	Vch Filter
ACHRANGE	IQUANT	2	Ach Range
ACHOFFSETENABLE	TOGGLE	F	Ach Offset Enable
ACHOFFSET	QUANT	0	Ach Offset (V)
ACHFILTER	IQUANT	3	Ach Filter
IERANGELOWERLIMIT	IQUANT	2	I/E Range Lower Limit
IERANGEMODE	TOGGLE	F	I/E AutoRange
IERANGE	IQUANT	11	I/E Range
POSFEEDENABLE	TOGGLE	F	Positive Feedback IR Comp
POSFEEDRESISTANCE	QUANT	0	Positive Feedback Resistance (ohm)
ACHSELECT	IQUANT	0	Ach Select
CABLEID	IQUANT	13	Cable ID
DCCALDATE	LABEL	7/31/2020	DC Calibration Date
ACCALDATE	LABEL	7/31/2020	AC Calibration Date
THERMOSELECT	IQUANT	1	Thermo Select
FRAMEWORKVERSION	QUANT	6.33	Framework Version
INSTRUMENTVERSION	LABEL	3.50	Instrument Version
COMPLIANCEVOLTAGE	IQUANT	0	Compliance Voltage
ZCURVE	TABLE
	Pt	Time	Freq	Zreal	Zimag	Zsig	Zmod	Zphz	Idc	Vdc	IERange
	#	s	Hz	ohm	ohm	V	ohm	°	A	V	#
	0	18	300046.9	415.0109	-4099.77	1	4120.722	-84.21976	2.232483E-005	-0.0005026	9
	1	32	238359.4	583.1572	-5107.878	1	5141.059	-83.48685	2.52999E-005	-0.0015515	9
	2	45	189328.1	973.237	-5965.7	1	6044.565	-80.73446	8.369896E-005	-0.003335	9
	3	55	150421.9	1641.002	-7800.361	1	7971.105	-78.11964	1.954208E-005	-0.0008259	9
	4	66	119484.4	1809.892	-9524.61	1	9695.04	-79.24078	2.147377E-005	-0.0139931	8
	5	73	94921.88	2642.715	-11953.13	1	12241.78	-77.53304	8.668369E-006	0.0040069	8
	6	82	75421.88	3382.016	-14311.27	1	14705.46	-76.70389	2.606074E-005	-0.008867	8
	7	91	59859.37	4814.313	-17690.08	1	18333.48	-74.77579	-1.94097E-005	0.0112738	8
	8	99	47578.12	6643.732	-21430.57	1	22436.77	-72.77595	-2.365391E-005	0.0052336	8
	9	108	37828.12	11915.95	-26426.82	1	28989.08	-65.72921	6.361659E-006	-0.0098136	7
	10	115	30046.88	12683.74	-31855.64	1	34287.89	-68.28939	-2.597127E-005	0.0075384	8
	11	124	23859.38	17823.3	-37656.24	1	41661.29	-64.67106	-1.141332E-006	-0.0048995	8
	12	130	18984.38	25942.66	-44182.3	1	51235.7	-59.57969	4.783553E-006	-0.0007336	7
	13	136	15046.87	33616.27	-50513.19	1	60676.48	-56.35644	1.160137E-006	-0.0191954	7
	14	141	11953.13	44282.2	-57193.41	1	72332.56	-52.25105	-9.899049E-007	-0.0128518	7
	15	146	9515.62	55548.97	-61492.3	1	82867.3	-47.90697	7.401069E-006	-0.0179602	7
	16	152	7546.875	69741.6	-66310.09	1	96233.7	-43.55519	5.04333E-006	-0.0256197	7
	17	158	5928.309	87874.55	-66136.17	1	109981.5	-36.96586	4.817944E-006	-0.0007825	7
	18	164	4733.456	91385.73	-43687.35	1	101291.3	-25.55033	-1.140529E-006	-0.0050155	8
	19	171	3796.875	124934.3	-56423.9	1	137084.8	-24.30529	-7.295415E-007	0.0226707	6
	20	176	2987.132	136981.2	-51289.72	1	146268.5	-20.52736	-2.726827E-007	-0.0069772	6
	21	180	2390.625	145142.5	-46554.51	1	152425.9	-17.78367	-4.273045E-008	-0.0144598	6
	22	184	1884.191	152331.6	-38926.4	1	157226.5	-14.33445	1.80215E-007	-0.0205172	6
	23	188	1516.544	161568.6	-37398.46	1	165840.4	-13.0328	-3.891928E-007	0.0246599	6
	24	193	1193.986	165331.5	-35620.64	1	169125.2	-12.15851	-6.264604E-007	0.0097912	6
	25	197	946.5144	173418.4	-30959	1	176160.2	-10.12193	-6.365784E-007	0.0100417	6
	26	200	751.7689	177294.8	-31182.18	1	180016	-9.97503	3.938978E-007	-0.0245829	6
	27	202	597.4265	185202.6	-24311.08	1	186791.5	-7.478313	-7.283901E-007	0.0227362	6
	28	205	477.4305	186552.6	-25215.21	1	188249	-7.697679	-8.45985E-009	0.0006995	6
	29	207	376.6741	191291.6	-24265.61	1	192824.5	-7.229439	-8.667127E-009	0.0006984	6
	30	210	298.2954	196663	-23224.24	1	198029.5	-6.734956	-7.478217E-009	0.0006655	6
	31	212	237.7717	201902.5	-23139.79	1	203224.2	-6.538068	-7.604434E-009	0.0006217	6
	32	214	189.0121	207685.5	-22489.21	1	208899.6	-6.180186	-8.045149E-009	0.0006975	6
	33	217	150.2404	213794.8	-21346.94	1	214857.9	-5.701959	-8.419771E-009	0.0007171	6
	34	220	119.1737	219172.7	-20254.77	1	220106.6	-5.279974	-7.817627E-009	0.0006207	6
	35	222	95.0169	225124	-17926.71	1	225836.7	-4.552876	-7.826593E-009	0.0006961	6
	36	225	75.60484	230465.2	-15834.2	1	231008.5	-3.930351	-8.020203E-009	0.000663	6
	37	227	54.50582	234605.8	-12592.6	1	234943.5	-3.072435	-7.764529E-009	0.0006151	6
	38	230	45.95588	240188	-12467.3	1	240511.3	-2.971354	-7.957266E-009	0.0006861	6
	39	232	37.20238	245205	-11047.24	1	245453.8	-2.579605	-6.781146E-008	0.0005863	7
	40	236	30.04808	250900.3	-9694.31	1	251087.5	-2.212699	-7.949724E-009	0.0006323	6
	41	240	23.91582	255004.1	-8617.744	1	255149.7	-1.935547	-8.587698E-009	0.0006625	6
	42	242	18.60119	257977.4	-7284.384	1	258080.3	-1.617404	-7.610003E-009	0.0006585	6
	43	245	15.02404	262105.1	-6626.693	1	262188.9	-1.448276	-7.787925E-009	0.0007312	6
	44	247	12.01923	265801.7	-5945.583	1	265868.2	-1.281407	-7.131803E-009	0.0007186	6
	45	250	9.450605	269506.7	-5547.457	1	269563.8	-1.179195	-6.857264E-009	0.0006597	6
	46	252	7.512019	273625	-5368.624	1	273677.7	-1.12402	-7.246467E-009	0.0006897	6
	47	255	5.978954	278963.1	-5272.055	1	279012.9	-1.08269	-7.145902E-009	0.0006686	6
	48	259	4.734848	284649.4	-5292.96	1	284698.7	-1.065273	-8.179816E-009	0.0007086	6
	49	263	3.75601	291619.3	-5834.696	1	291677.7	-1.146216	-7.97968E-009	0.000682	6
	50	269	3.004808	300771.6	-6287.839	1	300837.3	-1.197634	-6.54506E-009	0.0006889	6
	51	275	2.372217	309120.2	-6810.453	1	309195.2	-1.262121	-8.078568E-009	0.0006285	6
	52	279	1.878005	316462.1	-7699.081	1	316555.8	-1.393651	-7.454094E-009	0.0006803	6
	53	284	1.512097	324986.8	-8888.529	1	325108.3	-1.566674	-6.826981E-009	0.0005659	6
	54	289	1.201923	335205.5	-10624.98	1	335373.9	-1.815491	-8.477543E-009	0.0006749	6
	55	296	0.956633	346634.9	-12570.46	1	346862.8	-2.076879	-1.047518E-008	2.709037E-005	6
