EXPLAIN
TAG	EISPOT
TITLE	LABEL	Potentiostatic EIS	Test Identifier
DATE	LABEL	2/26/2021	Date
TIME	LABEL	2:17:11	Time
NOTES	NOTES	1	Notes...
	
PSTAT	PSTAT	REF3000-16137	Potentiostat
VDC	POTEN	0.00000E+000	T	DC Voltage (V)
FREQINIT	QUANT	3.00000E+005	Initial Freq. (Hz)
FREQFINAL	QUANT	1.00000E+000	Final Freq. (Hz)
PTSPERDEC	QUANT	1.00000E+001	Points/decade
VAC	QUANT	5.00000E+001	AC Voltage (mV rms)
AREA	QUANT	1.00000E+000	Sample Area (cm^2)
SPEED	SELECTOR	2	Optimize for:
ZGUESS	QUANT	1.00000E+003	Estimated Z (ohms)
EOC	QUANT	0	Open Circuit (V)
SEQUENCER	TOGGLE	TRUE	Run as Sequence
PSTATMODEL	IQUANT	5	Pstat Model
PSTATSECTION	LABEL	REF3000-16137	Pstat Section
PSTATSERIALNO	LABEL	16137	Pstat Serial Number
CTRLMODE	IQUANT	1	Control Mode
IESTAB	IQUANT	0	I/E Stability
CASPEED	IQUANT	1	Control Amp Speed
CONVENTION	IQUANT	1	Current Convention
ICHRANGE	IQUANT	2	Ich Range
ICHRANGEMODE	TOGGLE	F	Ich Auto Range
ICHOFFSETENABLE	TOGGLE	T	Ich Offset Enable
ICHOFFSET	QUANT	0	Ich Offset (V)
ICHFILTER	IQUANT	3	Ich Filter
VCHRANGE	IQUANT	2	Vch Range
VCHRANGEMODE	TOGGLE	F	Vch Auto Range
VCHOFFSETENABLE	TOGGLE	T	Vch Offset Enable
VCHOFFSET	QUANT	0	Vch Offset (V)
VCHFILTER	IQUANT	3	Vch Filter
ACHRANGE	IQUANT	2	Ach Range
ACHOFFSETENABLE	TOGGLE	F	Ach Offset Enable
ACHOFFSET	QUANT	0	Ach Offset (V)
ACHFILTER	IQUANT	3	Ach Filter
IERANGELOWERLIMIT	IQUANT	2	I/E Range Lower Limit
IERANGEMODE	TOGGLE	F	I/E AutoRange
IERANGE	IQUANT	11	I/E Range
POSFEEDENABLE	TOGGLE	F	Positive Feedback IR Comp
POSFEEDRESISTANCE	QUANT	0	Positive Feedback Resistance (ohm)
ACHSELECT	IQUANT	0	Ach Select
CABLEID	IQUANT	13	Cable ID
DCCALDATE	LABEL	7/31/2020	DC Calibration Date
ACCALDATE	LABEL	7/31/2020	AC Calibration Date
THERMOSELECT	IQUANT	1	Thermo Select
FRAMEWORKVERSION	QUANT	6.33	Framework Version
INSTRUMENTVERSION	LABEL	3.50	Instrument Version
COMPLIANCEVOLTAGE	IQUANT	0	Compliance Voltage
ZCURVE	TABLE
	Pt	Time	Freq	Zreal	Zimag	Zsig	Zmod	Zphz	Idc	Vdc	IERange
	#	s	Hz	ohm	ohm	V	ohm	°	A	V	#
	0	14	300046.9	633.0809	-188.5996	1	660.5765	-16.58919	-1.86361E-005	0.0009606	9
	1	22	238359.4	681.9783	-178.2852	1	704.8972	-14.65059	6.129035E-006	0.0014013	9
	2	37	189328.1	729.7243	-165.0344	1	748.1537	-12.74363	-1.223493E-005	0.0016494	9
	3	48	150421.9	770.4653	-153.802	1	785.6664	-11.28912	-1.228404E-005	0.0017646	9
	4	55	119484.4	798.5022	-103.5686	1	805.1908	-7.390208	9.881027E-006	0.0080462	8
	5	59	94921.88	818.0973	-85.10945	1	822.5125	-5.93931	1.8215E-005	-0.0028264	8
	6	62	75421.88	830.5219	-71.3265	1	833.579	-4.908606	-1.333871E-005	0.0017558	8
	7	64	59859.37	842.0406	-61.07547	1	844.2527	-4.148552	-3.33905E-006	-0.0024343	8
	8	68	47578.12	852.6426	-51.57884	1	854.2013	-3.46177	-1.681687E-005	0.0044125	8
	9	70	37828.12	860.6974	-42.00965	1	861.722	-2.794323	-1.351716E-005	0.0017513	8
	10	73	30046.88	868.6316	-38.15298	1	869.4691	-2.514991	1.770966E-005	-0.0025442	8
	11	75	23859.38	878.2013	-30.29847	1	878.7238	-1.975955	6.192956E-007	0.0050009	8
	12	78	18984.38	884.8719	-24.90486	1	885.2224	-1.612173	8.6174E-006	0.0021562	8
	13	80	15046.87	893.2274	-21.60434	1	893.4886	-1.385533	1.981346E-005	-0.0042489	8
	14	83	11953.13	903.4348	-21.48176	1	903.6901	-1.362115	-1.639669E-005	0.0032216	8
	15	85	9515.62	907.2441	-19.27493	1	907.4488	-1.217099	1.465486E-005	-0.0065307	8
	16	88	7546.875	915.6716	-17.62154	1	915.8412	-1.102486	-1.857564E-005	0.0073619	8
	17	91	5928.309	924.2255	-18.11029	1	924.4029	-1.122573	1.842023E-005	-0.0028215	8
	18	94	4733.456	932.3009	-18.59386	1	932.4863	-1.142559	1.463731E-005	-0.0065946	8
	19	97	3796.875	944.938	-18.5478	1	945.1201	-1.124491	2.035084E-005	-0.0044583	8
	20	100	2987.132	953.223	-16.64026	1	953.368	-1.000102	-1.86496E-005	0.0061901	8
	21	103	2390.625	966.674	-21.27217	1	966.909	-1.26062	3.682515E-006	-0.0045313	8
	22	106	1884.191	976.029	-16.72926	1	976.172	-0.98196	-3.168282E-006	-0.0026875	8
	23	109	1516.544	987.891	-27.59773	1	988.277	-1.600198	1.482775E-005	-0.0066916	8
	24	112	1193.986	1000.143	-26.92263	1	1000.506	-1.54196	1.861817E-005	-0.0028222	8
	25	115	946.5144	1011.276	-31.71611	1	1011.773	-1.796348	9.870788E-006	-0.0060668	8
	26	118	751.7689	1024.441	-32.36667	1	1024.952	-1.809628	3.74655E-006	-0.004822	8
	27	120	597.4265	1031.424	-40.43621	1	1032.216	-2.245088	8.525644E-006	0.0022828	8
	28	123	477.4305	1042.204	-44.02183	1	1043.134	-2.418688	-5.254181E-008	0.0006372	8
	29	125	376.6741	1052.892	-50.58279	1	1054.107	-2.750474	-5.590057E-008	0.0006471	8
	30	128	298.2954	1063.732	-58.70875	1	1065.35	-3.159025	-1.066604E-007	0.000669	8
	31	130	237.7717	1075.382	-68.4528	1	1077.558	-3.642216	-5.974398E-008	0.0006431	8
	32	132	189.0121	1087.738	-80.5854	1	1090.719	-4.237033	-1.176063E-007	0.0006636	8
	33	135	150.2404	1100.948	-95.3505	1	1105.069	-4.949902	-7.200791E-008	0.0006491	8
	34	137	119.1737	1115.079	-113.4902	1	1120.839	-5.811424	-1.056346E-007	0.0006695	8
	35	140	95.0169	1130.526	-134.957	1	1138.553	-6.807492	-4.160395E-008	0.0006417	8
	36	142	75.60484	1147.849	-161.0964	1	1159.099	-7.989067	-2.170598E-008	0.000618	8
	37	145	54.50582	1172.399	-208.0532	1	1190.717	-10.06291	-5.258251E-008	0.0006581	8
	38	147	45.95588	1190.852	-237.9078	1	1214.384	-11.29778	-1.125581E-007	0.0006072	8
	39	150	37.20238	1212.759	-281.1302	1	1244.917	-13.05125	-1.614408E-007	0.0006549	8
	40	152	30.04808	1238.428	-332.4144	1	1282.265	-15.02498	-5.248472E-008	0.000635	8
	41	154	23.91582	1268.153	-398.6418	1	1329.333	-17.45046	-1.689049E-007	0.0006429	8
	42	157	18.60119	1306.533	-486.8549	1	1394.294	-20.43696	-3.078549E-007	0.0006136	8
	43	159	15.02404	1341.695	-574.6247	1	1459.568	-23.18462	-1.461492E-007	0.0006396	8
	44	161	12.01923	1384.416	-685.3289	1	1544.76	-26.33684	1.051716E-007	0.00064	8
	45	164	9.450605	1436.388	-831.6616	1	1659.781	-30.07063	2.00971E-008	0.0006426	8
	46	166	7.512019	1490.739	-1001.23	1	1795.763	-33.88661	3.252773E-008	0.0006523	8
	47	169	5.978954	1556.866	-1204.464	1	1968.391	-37.7272	-5.237082E-008	0.0006691	8
	48	172	4.734848	1634.333	-1457.954	1	2190.131	-41.73547	-1.025033E-007	0.0006497	8
	49	175	3.75601	1719.288	-1766.099	1	2464.762	-45.76947	-8.108205E-008	0.000679	8
	50	179	3.004808	1812.44	-2127.188	1	2794.614	-49.56782	-1.065244E-007	0.0006892	8
	51	183	2.372217	1923.808	-2594.412	1	3229.862	-53.44233	-9.258631E-008	0.0006412	8
	52	187	1.878005	2055.759	-3174.965	1	3782.4	-57.07734	-6.964784E-008	0.0006495	8
	53	191	1.512097	2193.88	-3838.052	1	4420.832	-60.24717	-2.93249E-008	0.0006807	7
	54	197	1.201923	2368.686	-4701.91	1	5264.848	-63.26236	-1.509171E-008	0.0006391	7
	55	203	0.956633	2566.386	-5755.116	1	6301.404	-65.96642	-4.04989E-008	-1.322506E-005	7
