EXPLAIN
TAG	EISPOT
TITLE	LABEL	Potentiostatic EIS	Test Identifier
DATE	LABEL	2/26/2021	Date
TIME	LABEL	2:24:50	Time
NOTES	NOTES	1	Notes...
	
PSTAT	PSTAT	REF3000-16137	Potentiostat
VDC	POTEN	0.00000E+000	T	DC Voltage (V)
FREQINIT	QUANT	3.00000E+005	Initial Freq. (Hz)
FREQFINAL	QUANT	1.00000E+000	Final Freq. (Hz)
PTSPERDEC	QUANT	1.00000E+001	Points/decade
VAC	QUANT	5.00000E+001	AC Voltage (mV rms)
AREA	QUANT	1.00000E+000	Sample Area (cm^2)
SPEED	SELECTOR	2	Optimize for:
ZGUESS	QUANT	1.00000E+003	Estimated Z (ohms)
EOC	QUANT	0	Open Circuit (V)
SEQUENCER	TOGGLE	TRUE	Run as Sequence
PSTATMODEL	IQUANT	5	Pstat Model
PSTATSECTION	LABEL	REF3000-16137	Pstat Section
PSTATSERIALNO	LABEL	16137	Pstat Serial Number
CTRLMODE	IQUANT	1	Control Mode
IESTAB	IQUANT	0	I/E Stability
CASPEED	IQUANT	1	Control Amp Speed
CONVENTION	IQUANT	1	Current Convention
ICHRANGE	IQUANT	2	Ich Range
ICHRANGEMODE	TOGGLE	F	Ich Auto Range
ICHOFFSETENABLE	TOGGLE	T	Ich Offset Enable
ICHOFFSET	QUANT	0	Ich Offset (V)
ICHFILTER	IQUANT	3	Ich Filter
VCHRANGE	IQUANT	2	Vch Range
VCHRANGEMODE	TOGGLE	F	Vch Auto Range
VCHOFFSETENABLE	TOGGLE	T	Vch Offset Enable
VCHOFFSET	QUANT	0	Vch Offset (V)
VCHFILTER	IQUANT	3	Vch Filter
ACHRANGE	IQUANT	2	Ach Range
ACHOFFSETENABLE	TOGGLE	F	Ach Offset Enable
ACHOFFSET	QUANT	0	Ach Offset (V)
ACHFILTER	IQUANT	3	Ach Filter
IERANGELOWERLIMIT	IQUANT	2	I/E Range Lower Limit
IERANGEMODE	TOGGLE	F	I/E AutoRange
IERANGE	IQUANT	11	I/E Range
POSFEEDENABLE	TOGGLE	F	Positive Feedback IR Comp
POSFEEDRESISTANCE	QUANT	0	Positive Feedback Resistance (ohm)
ACHSELECT	IQUANT	0	Ach Select
CABLEID	IQUANT	13	Cable ID
DCCALDATE	LABEL	7/31/2020	DC Calibration Date
ACCALDATE	LABEL	7/31/2020	AC Calibration Date
THERMOSELECT	IQUANT	1	Thermo Select
FRAMEWORKVERSION	QUANT	6.33	Framework Version
INSTRUMENTVERSION	LABEL	3.50	Instrument Version
COMPLIANCEVOLTAGE	IQUANT	0	Compliance Voltage
ZCURVE	TABLE
	Pt	Time	Freq	Zreal	Zimag	Zsig	Zmod	Zphz	Idc	Vdc	IERange
	#	s	Hz	ohm	ohm	V	ohm	°	A	V	#
	0	31	300046.9	1584.016	-1322.352	1	2063.425	-39.85546	-1.632075E-005	0.0016283	9
	1	47	238359.4	1859.707	-1367.549	1	2308.397	-36.32917	8.016972E-007	-0.0019906	9
	2	60	189328.1	2153.758	-1407.727	1	2573.008	-33.1692	1.24872E-006	0.0016286	9
	3	66	150421.9	2424.64	-1460.695	1	2830.637	-31.06636	-1.373991E-005	0.0018262	9
	4	74	119484.4	2729.093	-1326.189	1	3034.259	-25.91721	7.686479E-005	-0.0014376	9
	5	81	94921.88	3020.493	-1169.764	1	3239.094	-21.17018	8.972564E-006	0.0033666	8
	6	88	75421.88	3252.98	-1078.814	1	3427.203	-18.34751	2.494114E-005	-0.0069689	8
	7	94	59859.37	3488.242	-989.553	1	3625.886	-15.83771	-4.573722E-007	0.0066929	8
	8	101	47578.12	3945.067	-519.3104	1	3979.1	-7.499036	1.750684E-006	-0.0169474	7
	9	104	37828.12	4013.378	-421.8069	1	4035.483	-5.999772	1.976719E-006	-0.0175741	7
	10	108	30046.88	4069.429	-367.8223	1	4086.019	-5.164742	6.06671E-006	-0.0173958	7
	11	110	23859.38	4044.313	-542.7967	1	4080.575	-7.644122	-2.189733E-005	0.0051281	8
	12	116	18984.38	4174.618	-473.6406	1	4201.401	-6.472941	2.445968E-005	-0.0050422	8
	13	121	15046.87	4263.482	-398.6864	1	4282.083	-5.342303	-1.566252E-005	0.0011687	8
	14	127	11953.13	4375.891	-337.6801	1	4388.9	-4.412673	-1.481927E-006	-0.0043987	8
	15	132	9515.62	4477.775	-181.9922	1	4481.472	-2.327417	1.516463E-006	0.0089248	7
	16	135	7546.875	4518.843	-147.1324	1	4521.238	-1.864878	4.662757E-006	-0.0213692	7
	17	137	5928.309	4585.931	-138.5506	1	4588.023	-1.7305	1.67352E-006	-0.0169771	7
	18	141	4733.456	4640.609	-120.0769	1	4642.163	-1.482212	-1.824609E-007	-0.0123119	7
	19	144	3796.875	4709.854	-110.8111	1	4711.158	-1.347777	-2.822453E-007	0.0147587	7
	20	148	2987.132	4763.746	-125.1017	1	4765.389	-1.50431	-4.655383E-006	0.0214019	7
	21	152	2390.625	4824.11	-113.5332	1	4825.446	-1.348181	-4.602831E-006	0.0217063	7
	22	154	1884.191	4917.376	-128.7584	1	4919.062	-1.499912	-2.118831E-006	-0.0060643	7
	23	158	1516.544	4976.558	-130.784	1	4978.276	-1.505387	-4.665608E-006	0.0213836	7
	24	161	1193.986	5067.396	-132.6994	1	5069.133	-1.500056	-4.661524E-006	0.0215276	7
	25	165	946.5144	5158.99	-131.032	1	5160.654	-1.454929	5.749544E-006	-0.0209526	7
	26	168	751.7689	5201.125	-135.487	1	5202.889	-1.492193	-3.543547E-006	0.021484	7
	27	171	597.4265	5265.768	-181.2163	1	5268.885	-1.971001	6.210516E-006	-0.0183363	7
	28	173	477.4305	5345.865	-160.1479	1	5348.264	-1.715915	-7.427775E-008	0.0006697	7
	29	176	376.6741	5414.172	-160.3245	1	5416.545	-1.696147	-7.385908E-008	0.0006013	7
	30	178	298.2954	5479.077	-160.6796	1	5481.432	-1.679777	-7.348414E-008	0.0005883	7
	31	180	237.7717	5542.8	-163.4901	1	5545.211	-1.689502	-6.472783E-008	0.0006197	7
	32	183	189.0121	5606.196	-169.2685	1	5608.75	-1.729412	-4.952554E-008	0.000619	7
	33	185	150.2404	5668.799	-179.1602	1	5671.63	-1.810208	-7.489107E-008	0.0006603	7
	34	188	119.1737	5730.806	-194.1493	1	5734.093	-1.940335	-5.520153E-008	0.0006199	7
	35	190	95.0169	5793.848	-214.7696	1	5797.827	-2.1229	-7.92825E-008	0.0006486	7
	36	192	75.60484	5862.175	-242.9717	1	5867.208	-2.373401	-7.786054E-008	0.0006671	7
	37	195	54.50582	5938.093	-297.5434	1	5945.542	-2.868553	-3.466462E-008	0.0006281	7
	38	198	45.95588	6006.802	-331.8455	1	6015.961	-3.162088	-1.30644E-008	0.0006434	7
	39	200	37.20238	6074.73	-389.1427	1	6087.182	-3.665316	-1.291027E-007	0.0006032	7
	40	202	30.04808	6151.277	-451.0178	1	6167.789	-4.19348	-1.217125E-007	0.0006665	7
	41	205	23.91582	6231.136	-536.5266	1	6254.192	-4.921266	-8.559132E-008	0.0006507	7
	42	207	18.60119	6323.373	-652.1364	1	6356.912	-5.88816	7.27936E-009	0.0006337	7
	43	209	15.02404	6418.342	-774.0929	1	6464.854	-6.877019	-1.747887E-007	0.000619	7
	44	212	12.01923	6501.781	-916.5888	1	6566.071	-8.024394	-1.262934E-007	0.0005832	7
	45	214	9.450605	6618.517	-1120.427	1	6712.684	-9.60832	2.044395E-008	0.000583	7
	46	217	7.512019	6744.92	-1357.383	1	6880.148	-11.37852	6.663637E-008	0.0006338	7
	47	219	5.978954	6897.656	-1624.784	1	7086.437	-13.25473	3.338243E-008	0.0005925	7
	48	222	4.734848	7070.724	-1957.06	1	7336.568	-15.47122	1.932449E-008	0.0006544	7
	49	226	3.75601	7285.857	-2350.87	1	7655.737	-17.88293	-4.345801E-008	0.0006034	7
	50	229	3.004808	7499.857	-2825.498	1	8014.443	-20.64341	-8.737626E-008	0.0006505	7
	51	233	2.372217	7785.93	-3420.75	1	8504.248	-23.7183	-1.559561E-008	0.0006218	7
	52	237	1.878005	8093	-4132.733	1	9087.141	-27.05137	-2.999995E-008	0.0006054	7
	53	242	1.512097	8430.164	-4940.677	1	9771.28	-30.37334	-3.811281E-008	0.0007068	7
	54	247	1.201923	8830.163	-5996.571	1	10673.83	-34.18046	-3.987489E-008	0.000618	7
	55	254	0.956633	9284.938	-7268.467	1	11791.55	-38.05467	-7.278273E-008	-1.957396E-005	7
