EXPLAIN
TAG	EISPOT
TITLE	LABEL	Potentiostatic EIS	Test Identifier
DATE	LABEL	2/26/2021	Date
TIME	LABEL	1:43:22	Time
NOTES	NOTES	1	Notes...
	
PSTAT	PSTAT	REF3000-16137	Potentiostat
VDC	POTEN	0.00000E+000	T	DC Voltage (V)
FREQINIT	QUANT	3.00000E+005	Initial Freq. (Hz)
FREQFINAL	QUANT	1.00000E+000	Final Freq. (Hz)
PTSPERDEC	QUANT	1.00000E+001	Points/decade
VAC	QUANT	5.00000E+001	AC Voltage (mV rms)
AREA	QUANT	1.00000E+000	Sample Area (cm^2)
SPEED	SELECTOR	2	Optimize for:
ZGUESS	QUANT	1.00000E+003	Estimated Z (ohms)
EOC	QUANT	0	Open Circuit (V)
SEQUENCER	TOGGLE	TRUE	Run as Sequence
PSTATMODEL	IQUANT	5	Pstat Model
PSTATSECTION	LABEL	REF3000-16137	Pstat Section
PSTATSERIALNO	LABEL	16137	Pstat Serial Number
CTRLMODE	IQUANT	1	Control Mode
IESTAB	IQUANT	0	I/E Stability
CASPEED	IQUANT	1	Control Amp Speed
CONVENTION	IQUANT	1	Current Convention
ICHRANGE	IQUANT	2	Ich Range
ICHRANGEMODE	TOGGLE	F	Ich Auto Range
ICHOFFSETENABLE	TOGGLE	T	Ich Offset Enable
ICHOFFSET	QUANT	0	Ich Offset (V)
ICHFILTER	IQUANT	3	Ich Filter
VCHRANGE	IQUANT	2	Vch Range
VCHRANGEMODE	TOGGLE	F	Vch Auto Range
VCHOFFSETENABLE	TOGGLE	T	Vch Offset Enable
VCHOFFSET	QUANT	0	Vch Offset (V)
VCHFILTER	IQUANT	3	Vch Filter
ACHRANGE	IQUANT	2	Ach Range
ACHOFFSETENABLE	TOGGLE	F	Ach Offset Enable
ACHOFFSET	QUANT	0	Ach Offset (V)
ACHFILTER	IQUANT	3	Ach Filter
IERANGELOWERLIMIT	IQUANT	2	I/E Range Lower Limit
IERANGEMODE	TOGGLE	F	I/E AutoRange
IERANGE	IQUANT	11	I/E Range
POSFEEDENABLE	TOGGLE	F	Positive Feedback IR Comp
POSFEEDRESISTANCE	QUANT	0	Positive Feedback Resistance (ohm)
ACHSELECT	IQUANT	0	Ach Select
CABLEID	IQUANT	13	Cable ID
DCCALDATE	LABEL	7/31/2020	DC Calibration Date
ACCALDATE	LABEL	7/31/2020	AC Calibration Date
THERMOSELECT	IQUANT	1	Thermo Select
FRAMEWORKVERSION	QUANT	6.33	Framework Version
INSTRUMENTVERSION	LABEL	3.50	Instrument Version
COMPLIANCEVOLTAGE	IQUANT	0	Compliance Voltage
ZCURVE	TABLE
	Pt	Time	Freq	Zreal	Zimag	Zsig	Zmod	Zphz	Idc	Vdc	IERange
	#	s	Hz	ohm	ohm	V	ohm	°	A	V	#
	0	10	300046.9	4.714452	2.227786	1	5.214315	25.2928	1.080347E-005	4.990268E-005	10
	1	13	238359.4	4.715071	1.765692	1	5.034834	20.52983	-2.458972E-005	-0.0002216	10
	2	16	189328.1	4.749218	1.387695	1	4.947805	16.28806	1.904743E-005	0.0001587	10
	3	19	150421.9	4.792817	1.093256	1	4.915923	12.8495	-1.428357E-005	0.0003254	10
	4	22	119484.4	4.828801	0.8369784	1	4.900801	9.83341	-1.91776E-005	0.0003961	10
	5	24	94921.88	4.878864	0.6492901	1	4.921879	7.580507	-1.215293E-005	0.0005265	10
	6	27	75421.88	4.922588	0.4712003	1	4.945089	5.467811	1.76102E-005	0.000506	10
	7	29	59859.37	4.965804	0.3199994	1	4.976103	3.687077	-2.848765E-005	0.000585	10
	8	32	47578.12	5.008616	0.185668	1	5.012057	2.122966	2.175598E-005	0.0006052	10
	9	34	37828.12	5.050744	0.0630352	1	5.051137	0.7150364	3.29026E-006	0.0006059	10
	10	37	30046.88	5.092348	-0.0543905	1	5.092638	-0.6119435	2.163523E-005	0.0006629	10
	11	39	23859.38	5.131654	-0.1716689	1	5.134524	-1.915998	4.240611E-007	0.0006528	10
	12	42	18984.38	5.171395	-0.2940896	1	5.17975	-3.254821	2.091927E-005	0.0006768	10
	13	44	15046.87	5.211602	-0.4307565	1	5.229373	-4.72495	2.069237E-006	0.0006568	10
	14	46	11953.13	5.254607	-0.585982	1	5.287179	-6.363206	-2.060468E-005	0.0007228	10
	15	49	9515.62	5.300972	-0.766458	1	5.356096	-8.227278	-1.44669E-005	0.0006641	10
	16	51	7546.875	5.352648	-0.984595	1	5.442451	-10.42279	-2.231938E-005	0.0006775	10
	17	53	5928.309	5.413195	-1.258594	1	5.557584	-13.089	-1.222018E-005	0.0006657	10
	18	55	4733.456	5.480014	-1.570966	1	5.700745	-15.99611	-2.55668E-005	0.000705	10
	19	58	3796.875	5.557922	-1.939659	1	5.886661	-19.23847	-2.004692E-005	0.0007087	10
	20	60	2987.132	5.65202	-2.431274	1	6.152758	-23.27545	1.008813E-005	0.0006474	10
	21	62	2390.625	5.756794	-2.991602	1	6.487709	-27.4593	2.226447E-005	0.0006699	10
	22	65	1884.191	5.886017	-3.722496	1	6.96435	-32.3105	-7.30343E-006	0.0006894	10
	23	67	1516.544	6.026272	-4.539505	1	7.544737	-36.9902	9.566286E-006	0.000644	10
	24	69	1193.986	6.203611	-5.647502	1	8.389223	-42.31339	-4.791936E-006	0.0006604	10
	25	72	946.5144	6.41004	-6.979513	1	9.476402	-47.43539	-2.515648E-006	0.000664	10
	26	74	751.7689	6.640506	-8.624578	1	10.88484	-52.40548	1.834576E-005	0.0006751	10
	27	76	597.4265	6.927394	-10.65151	1	12.70604	-56.96134	1.028947E-005	0.0006457	10
	28	79	477.4305	7.260588	-13.0914	1	14.97	-60.98692	-2.644051E-006	0.0006806	10
	29	81	376.6741	7.694531	-16.28286	1	18.00937	-64.70673	-3.19612E-006	0.0006865	10
	30	83	298.2954	8.222095	-20.18614	1	21.7964	-67.83825	-1.418558E-006	0.0006778	10
	31	86	237.7717	8.854894	-24.8659	1	26.39549	-70.39888	-3.448892E-006	0.0006917	10
	32	88	189.0121	9.6389	-30.70987	1	32.18702	-72.57449	-3.10339E-006	0.0006827	10
	33	91	150.2404	10.59299	-37.91594	1	39.36787	-74.39065	-2.928837E-006	0.0006806	10
	34	93	119.1737	11.74728	-46.849	1	48.29935	-75.92344	1.251136E-006	8.2222E-005	9
	35	95	95.0169	13.12693	-57.68521	1	59.15995	-77.18	1.355122E-006	6.81947E-005	9
	36	98	75.60484	14.81461	-71.17911	1	72.70445	-78.2428	1.046166E-006	7.911067E-005	9
	37	100	54.50582	17.86824	-96.2471	1	97.8917	-79.4828	1.00105E-006	7.62164E-005	9
	38	103	45.95588	19.87384	-112.6952	1	114.4342	-79.9987	1.203341E-006	8.040746E-005	9
	39	105	37.20238	22.8201	-137.0147	1	138.902	-80.54406	1.121549E-006	9.141142E-005	9
	40	108	30.04808	26.53159	-167.0692	1	169.1628	-80.97644	1.126041E-006	8.600159E-005	9
	41	110	23.91582	31.38705	-206.224	1	208.5988	-81.34606	1.073351E-006	7.994668E-005	9
	42	112	18.60119	38.2738	-260.3163	1	263.1149	-81.63584	1.209042E-006	8.463417E-005	9
	43	115	15.02404	45.69963	-317.1996	1	320.4747	-81.80168	1.205057E-006	7.744682E-005	9
	44	117	12.01923	55.2402	-389.6951	1	393.5909	-81.93194	1.335319E-006	8.412625E-005	9
	45	119	9.450605	67.8519	-484.2195	1	488.9503	-82.02329	5.765056E-007	0.0006661	8
	46	122	7.512019	83.24479	-597.8998	1	603.6671	-82.07374	5.963021E-007	0.000658	8
	47	125	5.978954	101.611	-736.5497	1	743.5256	-82.14532	5.941837E-007	0.0006616	8
	48	128	4.734848	125.0287	-912.5521	1	921.0773	-82.19848	6.711646E-007	0.0006587	8
	49	131	3.75601	152.3673	-1127.756	1	1138.003	-82.30556	6.053613E-007	0.0006575	8
	50	134	3.004808	184.2348	-1382.982	1	1395.199	-82.41198	6.454139E-007	0.0006269	8
	51	138	2.372217	224.6167	-1717.765	1	1732.388	-82.55021	6.370479E-007	0.0005963	8
	52	142	1.878005	276.1268	-2131.135	1	2148.949	-82.61743	6.228894E-007	0.0006685	8
	53	147	1.512097	334.0753	-2603.133	1	2624.482	-82.68687	6.126276E-007	0.0005591	8
	54	152	1.201923	404.511	-3225.06	1	3250.329	-82.85088	6.243879E-007	0.0006831	8
	55	159	0.956633	492.4794	-3988.827	1	4019.114	-82.96161	6.151606E-007	1.350673E-005	8
