EXPLAIN
TAG	EISPOT
TITLE	LABEL	Potentiostatic EIS	Test Identifier
DATE	LABEL	2/26/2021	Date
TIME	LABEL	1:00:44	Time
NOTES	NOTES	1	Notes...
	
PSTAT	PSTAT	REF3000-16137	Potentiostat
VDC	POTEN	0.00000E+000	T	DC Voltage (V)
FREQINIT	QUANT	3.00000E+005	Initial Freq. (Hz)
FREQFINAL	QUANT	1.00000E+000	Final Freq. (Hz)
PTSPERDEC	QUANT	1.00000E+001	Points/decade
VAC	QUANT	5.00000E+001	AC Voltage (mV rms)
AREA	QUANT	1.00000E+000	Sample Area (cm^2)
SPEED	SELECTOR	2	Optimize for:
ZGUESS	QUANT	1.00000E+003	Estimated Z (ohms)
EOC	QUANT	0	Open Circuit (V)
SEQUENCER	TOGGLE	TRUE	Run as Sequence
PSTATMODEL	IQUANT	5	Pstat Model
PSTATSECTION	LABEL	REF3000-16137	Pstat Section
PSTATSERIALNO	LABEL	16137	Pstat Serial Number
CTRLMODE	IQUANT	1	Control Mode
IESTAB	IQUANT	0	I/E Stability
CASPEED	IQUANT	1	Control Amp Speed
CONVENTION	IQUANT	1	Current Convention
ICHRANGE	IQUANT	2	Ich Range
ICHRANGEMODE	TOGGLE	F	Ich Auto Range
ICHOFFSETENABLE	TOGGLE	T	Ich Offset Enable
ICHOFFSET	QUANT	0	Ich Offset (V)
ICHFILTER	IQUANT	3	Ich Filter
VCHRANGE	IQUANT	2	Vch Range
VCHRANGEMODE	TOGGLE	F	Vch Auto Range
VCHOFFSETENABLE	TOGGLE	T	Vch Offset Enable
VCHOFFSET	QUANT	0	Vch Offset (V)
VCHFILTER	IQUANT	3	Vch Filter
ACHRANGE	IQUANT	2	Ach Range
ACHOFFSETENABLE	TOGGLE	F	Ach Offset Enable
ACHOFFSET	QUANT	0	Ach Offset (V)
ACHFILTER	IQUANT	0	Ach Filter
IERANGELOWERLIMIT	IQUANT	2	I/E Range Lower Limit
IERANGEMODE	TOGGLE	F	I/E AutoRange
IERANGE	IQUANT	11	I/E Range
POSFEEDENABLE	TOGGLE	F	Positive Feedback IR Comp
POSFEEDRESISTANCE	QUANT	0	Positive Feedback Resistance (ohm)
ACHSELECT	IQUANT	0	Ach Select
CABLEID	IQUANT	13	Cable ID
DCCALDATE	LABEL	7/31/2020	DC Calibration Date
ACCALDATE	LABEL	7/31/2020	AC Calibration Date
THERMOSELECT	IQUANT	1	Thermo Select
FRAMEWORKVERSION	QUANT	6.33	Framework Version
INSTRUMENTVERSION	LABEL	3.50	Instrument Version
COMPLIANCEVOLTAGE	IQUANT	0	Compliance Voltage
ZCURVE	TABLE
	Pt	Time	Freq	Zreal	Zimag	Zsig	Zmod	Zphz	Idc	Vdc	IERange
	#	s	Hz	ohm	ohm	V	ohm	°	A	V	#
	0	10	300046.9	2.437788	2.222163	1	3.298609	42.3507	-0.0001461	-0.0002383	11
	1	13	238359.4	2.399281	1.760152	1	2.975682	36.26439	-5.269213E-005	-0.0001881	11
	2	16	189328.1	2.363049	1.394049	1	2.743606	30.53791	-0.0001343	-0.0001392	11
	3	19	150421.9	2.39123	0.961253	1	2.577205	21.89969	-0.0001394	0.0003143	12
	4	23	119484.4	2.360386	0.7434775	1	2.474709	17.48345	-0.0000972	0.0003527	12
	5	26	94921.88	2.341218	0.566569	1	2.408797	13.6039	-0.0002	0.0005281	12
	6	30	75421.88	2.32847	0.4152532	1	2.365208	10.11167	-8.024304E-005	0.0005544	12
	7	33	59859.37	2.321863	0.2869813	1	2.339531	7.045999	-0.0000981	0.0005707	12
	8	37	47578.12	2.315726	0.2162562	1	2.325802	5.335147	-3.172213E-005	0.0006361	11
	9	40	37828.12	2.316152	0.1057301	1	2.318564	2.613683	-4.097518E-005	0.0006236	11
	10	42	30046.88	2.318818	0.0015493	1	2.318819	0.0382818	5.213697E-007	0.0006893	11
	11	45	23859.38	2.323289	-0.1012995	1	2.325496	-2.496616	1.207124E-005	0.0007187	11
	12	47	18984.38	2.328851	-0.2069145	1	2.338025	-5.077301	6.345196E-006	0.0007267	11
	13	49	15046.87	2.335574	-0.3235861	1	2.357883	-7.887928	6.188927E-006	0.0007135	11
	14	51	11953.13	2.346025	-0.4540338	1	2.389556	-10.95323	-3.723462E-005	0.0006882	11
	15	54	9515.62	2.357729	-0.6031912	1	2.433665	-14.3505	5.718989E-006	0.0007076	11
	16	56	7546.875	2.374278	-0.7837614	1	2.500295	-18.26832	-4.493795E-005	0.0006905	11
	17	58	5928.309	2.39609	-1.010277	1	2.600367	-22.86203	-2.946428E-005	0.0007093	11
	18	61	4733.456	2.4211	-1.267461	1	2.732797	-27.63234	1.652057E-006	0.0007243	11
	19	63	3796.875	2.452145	-1.574924	1	2.914344	-32.71116	-4.483632E-005	0.0006877	11
	20	65	2987.132	2.496173	-1.984645	1	3.188996	-38.48733	-2.494892E-005	0.0007063	11
	21	68	2390.625	2.546405	-2.45552	1	3.537479	-43.95905	-3.909543E-005	0.0006894	11
	22	70	1884.191	2.620887	-3.077013	1	4.041912	-49.57686	-1.575351E-005	0.0006769	10
	23	72	1516.544	2.702703	-3.772568	1	4.640783	-54.38184	2.05842E-005	0.000677	10
	24	75	1193.986	2.818819	-4.716011	1	5.494224	-59.13271	2.066955E-005	0.0006665	10
	25	77	946.5144	2.966135	-5.849135	1	6.558227	-63.11013	7.846124E-006	0.0006578	10
	26	79	751.7689	3.139662	-7.242566	1	7.89381	-66.5632	-2.246327E-005	0.0006875	10
	27	82	597.4265	3.357781	-8.949679	1	9.55884	-69.43469	-5.539634E-006	0.0006884	10
	28	84	477.4305	3.62745	-11.00125	1	11.58386	-71.75101	-2.476508E-006	0.0006882	10
	29	86	376.6741	3.971984	-13.67607	1	14.2412	-73.80495	-2.700454E-006	0.0006818	10
	30	89	298.2954	4.386683	-16.94368	1	17.50232	-75.48495	-2.565088E-006	0.0006848	10
	31	91	237.7717	4.879335	-20.86907	1	21.43189	-76.84024	-2.468494E-006	0.0006857	10
	32	93	189.0121	5.490231	-25.7794	1	26.35754	-77.97736	-2.408383E-006	0.0006888	10
	33	96	150.2404	6.248368	-31.86301	1	32.46989	-78.90504	-1.857045E-006	0.0006834	10
	34	98	119.1737	7.204164	-39.46723	1	40.11935	-79.65538	-2.202592E-006	0.0006831	10
	35	100	95.0169	8.377698	-48.60133	1	49.3181	-80.2197	8.796115E-007	7.968985E-005	9
	36	103	75.60484	9.88868	-60.03108	1	60.84009	-80.6459	7.550142E-007	8.033757E-005	9
	37	105	54.50582	12.80422	-81.17094	1	82.17463	-81.0358	6.5811E-007	7.652902E-005	9
	38	108	45.95588	14.77359	-94.96442	1	96.1067	-81.15739	9.83982E-007	9.275108E-005	9
	39	110	37.20238	17.7601	-115.2453	1	116.6058	-81.23924	8.917834E-007	8.280788E-005	9
	40	113	30.04808	21.56264	-140.2538	1	141.9017	-81.25977	7.63832E-007	8.37944E-005	9
	41	115	23.91582	26.57216	-172.7895	1	174.8207	-81.25735	6.885379E-007	8.280585E-005	9
	42	118	18.60119	33.64106	-217.0297	1	219.6215	-81.18889	1.086006E-006	8.213402E-005	9
	43	120	15.02404	41.28933	-263.5818	1	266.7961	-81.09713	1.001118E-006	7.434803E-005	9
	44	122	12.01923	51.25457	-322.8596	1	326.9026	-80.97946	9.015006E-007	7.999886E-005	9
	45	126	9.450605	64.93187	-401.5538	1	406.7697	-80.81469	9.631516E-007	0.0000965	9
	46	129	7.512019	81.76099	-492.5476	1	499.2875	-80.57507	4.205154E-007	0.0006459	8
	47	132	5.978954	103.6261	-605.8478	1	614.6462	-80.29388	4.354766E-007	0.0006696	8
	48	135	4.734848	133.3583	-748.3088	1	760.0991	-79.89524	4.428792E-007	0.0006339	8
	49	138	3.75601	172.8969	-922.5491	1	938.6108	-79.38521	5.802809E-007	0.0006421	8
	50	141	3.004808	224.0022	-1127.26	1	1149.301	-78.76094	4.614377E-007	0.0006874	8
	51	145	2.372217	299.0403	-1390.714	1	1422.501	-77.86467	4.439011E-007	0.0006743	8
	52	149	1.878005	404.3903	-1712.851	1	1759.94	-76.71617	4.999957E-007	0.0006443	8
	53	154	1.512097	537.1699	-2068.115	1	2136.738	-75.4398	4.734667E-007	0.000766	8
	54	159	1.201923	731.7463	-2514.963	1	2619.254	-73.77728	5.05464E-007	0.0006437	8
	55	166	0.956633	995.631	-3033.932	1	3193.122	-71.83195	3.707958E-007	2.522553E-005	8
