EXPLAIN
TAG	EISPOT
TITLE	LABEL	Potentiostatic EIS	Test Identifier
DATE	LABEL	2/26/2021	Date
TIME	LABEL	2:33:51	Time
NOTES	NOTES	1	Notes...
	
PSTAT	PSTAT	REF3000-16137	Potentiostat
VDC	POTEN	0.00000E+000	T	DC Voltage (V)
FREQINIT	QUANT	3.00000E+005	Initial Freq. (Hz)
FREQFINAL	QUANT	1.00000E+000	Final Freq. (Hz)
PTSPERDEC	QUANT	1.00000E+001	Points/decade
VAC	QUANT	5.00000E+001	AC Voltage (mV rms)
AREA	QUANT	1.00000E+000	Sample Area (cm^2)
SPEED	SELECTOR	2	Optimize for:
ZGUESS	QUANT	1.00000E+003	Estimated Z (ohms)
EOC	QUANT	0	Open Circuit (V)
SEQUENCER	TOGGLE	TRUE	Run as Sequence
PSTATMODEL	IQUANT	5	Pstat Model
PSTATSECTION	LABEL	REF3000-16137	Pstat Section
PSTATSERIALNO	LABEL	16137	Pstat Serial Number
CTRLMODE	IQUANT	1	Control Mode
IESTAB	IQUANT	0	I/E Stability
CASPEED	IQUANT	1	Control Amp Speed
CONVENTION	IQUANT	1	Current Convention
ICHRANGE	IQUANT	2	Ich Range
ICHRANGEMODE	TOGGLE	F	Ich Auto Range
ICHOFFSETENABLE	TOGGLE	T	Ich Offset Enable
ICHOFFSET	QUANT	0	Ich Offset (V)
ICHFILTER	IQUANT	3	Ich Filter
VCHRANGE	IQUANT	2	Vch Range
VCHRANGEMODE	TOGGLE	F	Vch Auto Range
VCHOFFSETENABLE	TOGGLE	T	Vch Offset Enable
VCHOFFSET	QUANT	0	Vch Offset (V)
VCHFILTER	IQUANT	3	Vch Filter
ACHRANGE	IQUANT	2	Ach Range
ACHOFFSETENABLE	TOGGLE	F	Ach Offset Enable
ACHOFFSET	QUANT	0	Ach Offset (V)
ACHFILTER	IQUANT	3	Ach Filter
IERANGELOWERLIMIT	IQUANT	2	I/E Range Lower Limit
IERANGEMODE	TOGGLE	F	I/E AutoRange
IERANGE	IQUANT	11	I/E Range
POSFEEDENABLE	TOGGLE	F	Positive Feedback IR Comp
POSFEEDRESISTANCE	QUANT	0	Positive Feedback Resistance (ohm)
ACHSELECT	IQUANT	0	Ach Select
CABLEID	IQUANT	13	Cable ID
DCCALDATE	LABEL	7/31/2020	DC Calibration Date
ACCALDATE	LABEL	7/31/2020	AC Calibration Date
THERMOSELECT	IQUANT	1	Thermo Select
FRAMEWORKVERSION	QUANT	6.33	Framework Version
INSTRUMENTVERSION	LABEL	3.50	Instrument Version
COMPLIANCEVOLTAGE	IQUANT	0	Compliance Voltage
ZCURVE	TABLE
	Pt	Time	Freq	Zreal	Zimag	Zsig	Zmod	Zphz	Idc	Vdc	IERange
	#	s	Hz	ohm	ohm	V	ohm	°	A	V	#
	0	14	300046.9	965.853	-3667.646	1	3792.69	-75.24646	-1.408725E-005	0.0017383	9
	1	28	238359.4	1322.325	-4418.561	1	4612.182	-73.33936	2.25851E-005	-0.0005432	9
	2	42	189328.1	2261.216	-5609.152	1	6047.784	-68.04417	4.951359E-005	8.812455E-005	9
	3	50	150421.9	2557.905	-6605.24	1	7083.225	-68.83092	-2.81956E-005	-0.0010112	9
	4	57	119484.4	3358.704	-7518.889	1	8234.961	-65.92958	-2.117909E-005	0.0016533	9
	5	67	94921.88	4911.007	-8623.686	1	9924.01	-60.3394	2.568983E-005	-0.0050622	8
	6	76	75421.88	6516.796	-10022.01	1	11954.47	-56.96612	-9.685798E-006	-0.0019654	8
	7	84	59859.37	8324.027	-11409.94	1	14123.6	-53.88768	-2.358919E-005	0.0052733	8
	8	93	47578.12	12598.14	-12152.6	1	17504.25	-43.96873	-6.770356E-006	0.0219561	7
	9	100	37828.12	15039.21	-12882.61	1	19802.51	-40.58341	-6.833634E-006	0.022104	7
	10	107	30046.88	17741.14	-13238.43	1	22136.04	-36.73029	3.411408E-006	-0.0231645	7
	11	113	23859.38	20541.88	-13379.7	1	24515	-33.07772	1.375111E-006	-0.0187058	7
	12	117	18984.38	23698.23	-13028.51	1	27043.45	-28.80055	-1.699155E-006	0.0207701	7
	13	123	15046.87	26038.38	-13092.77	1	29144.77	-26.69444	2.520898E-005	-0.0049458	8
	14	129	11953.13	29263.13	-12875.32	1	31970.37	-23.74874	2.602299E-005	-0.0089209	8
	15	137	9515.62	31477.27	-11682.8	1	33575.38	-20.36243	-9.372542E-006	-0.0001687	9
	16	145	7546.875	33689.33	-9521.27	1	35008.93	-15.78133	5.179636E-006	-0.0253322	7
	17	150	5928.309	34622.9	-7230.876	1	35369.91	-11.79647	2.57742E-005	-0.0088165	8
	18	157	4733.456	37962.39	-7780.893	1	38751.58	-11.5831	-1.596441E-005	0.0007877	8
	19	163	3796.875	39342.15	-6393.152	1	39858.21	-9.229961	-5.078875E-006	0.0034174	7
	20	169	2987.132	40096.65	-5089.658	1	40418.39	-7.234138	-9.522907E-007	-0.0126508	7
	21	174	2390.625	42394.91	-4519.03	1	42635.08	-6.084393	-3.410359E-006	0.0238507	7
	22	179	1884.191	42556.69	-5484.148	1	42908.6	-7.343059	2.616452E-006	0.008089	7
	23	185	1516.544	44412.97	-4428.844	1	44633.25	-5.694686	-1.681647E-006	0.0208623	7
	24	190	1193.986	44966.25	-3985.761	1	45142.55	-5.065399	-3.162122E-006	-0.0049093	7
	25	196	946.5144	46864.75	-3472.634	1	46993.23	-4.237818	3.45165E-006	-0.0235961	7
	26	199	751.7689	45622.21	-4026.245	1	45799.53	-5.043392	6.55327E-006	-0.025703	7
	27	203	597.4265	46814.4	-2030.953	1	46858.44	-2.48411	3.46297E-006	-0.0235317	7
	28	207	477.4305	49959.15	-3483.075	1	50080.42	-3.98812	-6.202605E-008	0.0005857	7
	29	210	376.6741	51089.36	-2863.559	1	51169.55	-3.208073	-1.018459E-008	0.0006541	6
	30	213	298.2954	52097.55	-2876.735	1	52176.92	-3.160562	-1.190285E-008	0.0006962	6
	31	215	237.7717	53196.03	-2833.66	1	53271.45	-3.049165	-1.061561E-008	0.0006592	6
	32	217	189.0121	54249.18	-2713.743	1	54317.01	-2.863758	-1.087645E-008	0.0007186	6
	33	220	150.2404	55284.74	-2546.449	1	55343.36	-2.637215	-1.101879E-008	0.0006217	6
	34	222	119.1737	56273.48	-2264.738	1	56319.04	-2.304636	-1.042794E-008	0.0006396	6
	35	225	95.0169	57156.17	-2107.535	1	57195.01	-2.111726	-1.167825E-008	0.000713	6
	36	227	75.60484	58047.63	-1908.997	1	58079.02	-1.883592	-9.346714E-009	0.0007137	6
	37	230	54.50582	58996.77	-1734.994	1	59022.27	-1.684486	-1.156108E-008	0.0006423	6
	38	232	45.95588	59680.89	-1520.171	1	59700.25	-1.459103	-7.74314E-009	0.0006248	6
	39	235	37.20238	60432.39	-1443.778	1	60449.63	-1.368581	-7.55885E-009	0.0006809	6
	40	237	30.04808	61228.86	-1402.193	1	61244.92	-1.311893	-1.124958E-008	0.0006268	6
	41	240	23.91582	62001.17	-1335.802	1	62015.56	-1.234235	-1.35833E-008	0.0006923	6
	42	242	18.60119	62855.32	-1381.522	1	62870.5	-1.259124	-4.822314E-009	0.0007086	6
	43	244	15.02404	63509.55	-1494.57	1	63527.13	-1.348093	-6.667234E-009	0.000724	6
	44	247	12.01923	64315.89	-1627.619	1	64336.48	-1.449654	-1.181938E-008	0.0006392	6
	45	249	9.450605	65116.38	-1822.923	1	65141.89	-1.603568	-1.307752E-008	0.0007012	6
	46	252	7.512019	66058.24	-2097.495	1	66091.53	-1.818656	-1.736326E-008	0.0006179	6
	47	255	5.978954	67142.67	-2411.991	1	67185.98	-2.057373	-4.103327E-009	0.0007088	6
	48	259	4.734848	68357.55	-2849.9	1	68416.93	-2.387341	-1.724483E-008	0.0006968	6
	49	262	3.75601	69814.84	-3383.975	1	69896.8	-2.774995	1.837189E-009	0.0007264	6
	50	267	3.004808	71662.5	-3986.367	1	71773.29	-3.183909	-3.171805E-009	0.0007141	6
	51	272	2.372217	73445.14	-4769.678	1	73599.85	-3.715688	-2.425354E-009	0.0005656	6
	52	277	1.878005	75271.28	-5827.138	1	75496.5	-4.426732	7.256576E-009	0.0006757	6
	53	281	1.512097	77348.41	-6943.583	1	77659.45	-5.129704	6.867731E-009	0.0006252	6
	54	287	1.201923	79649.57	-8292.668	1	80080.1	-5.943901	-6.779817E-009	0.0006423	6
	55	293	0.956633	82683.28	-10054.3	1	83292.34	-6.933136	-2.637394E-008	2.350374E-005	6
