EXPLAIN
TAG	EISPOT
TITLE	LABEL	Potentiostatic EIS	Test Identifier
DATE	LABEL	2/26/2021	Date
TIME	LABEL	2:14:07	Time
NOTES	NOTES	1	Notes...
	
PSTAT	PSTAT	REF3000-16137	Potentiostat
VDC	POTEN	0.00000E+000	T	DC Voltage (V)
FREQINIT	QUANT	3.00000E+005	Initial Freq. (Hz)
FREQFINAL	QUANT	1.00000E+000	Final Freq. (Hz)
PTSPERDEC	QUANT	1.00000E+001	Points/decade
VAC	QUANT	5.00000E+001	AC Voltage (mV rms)
AREA	QUANT	1.00000E+000	Sample Area (cm^2)
SPEED	SELECTOR	2	Optimize for:
ZGUESS	QUANT	1.00000E+003	Estimated Z (ohms)
EOC	QUANT	0	Open Circuit (V)
SEQUENCER	TOGGLE	TRUE	Run as Sequence
PSTATMODEL	IQUANT	5	Pstat Model
PSTATSECTION	LABEL	REF3000-16137	Pstat Section
PSTATSERIALNO	LABEL	16137	Pstat Serial Number
CTRLMODE	IQUANT	1	Control Mode
IESTAB	IQUANT	0	I/E Stability
CASPEED	IQUANT	1	Control Amp Speed
CONVENTION	IQUANT	1	Current Convention
ICHRANGE	IQUANT	2	Ich Range
ICHRANGEMODE	TOGGLE	F	Ich Auto Range
ICHOFFSETENABLE	TOGGLE	T	Ich Offset Enable
ICHOFFSET	QUANT	0	Ich Offset (V)
ICHFILTER	IQUANT	3	Ich Filter
VCHRANGE	IQUANT	2	Vch Range
VCHRANGEMODE	TOGGLE	F	Vch Auto Range
VCHOFFSETENABLE	TOGGLE	T	Vch Offset Enable
VCHOFFSET	QUANT	0	Vch Offset (V)
VCHFILTER	IQUANT	3	Vch Filter
ACHRANGE	IQUANT	2	Ach Range
ACHOFFSETENABLE	TOGGLE	F	Ach Offset Enable
ACHOFFSET	QUANT	0	Ach Offset (V)
ACHFILTER	IQUANT	3	Ach Filter
IERANGELOWERLIMIT	IQUANT	2	I/E Range Lower Limit
IERANGEMODE	TOGGLE	F	I/E AutoRange
IERANGE	IQUANT	11	I/E Range
POSFEEDENABLE	TOGGLE	F	Positive Feedback IR Comp
POSFEEDRESISTANCE	QUANT	0	Positive Feedback Resistance (ohm)
ACHSELECT	IQUANT	0	Ach Select
CABLEID	IQUANT	13	Cable ID
DCCALDATE	LABEL	7/31/2020	DC Calibration Date
ACCALDATE	LABEL	7/31/2020	AC Calibration Date
THERMOSELECT	IQUANT	1	Thermo Select
FRAMEWORKVERSION	QUANT	6.33	Framework Version
INSTRUMENTVERSION	LABEL	3.50	Instrument Version
COMPLIANCEVOLTAGE	IQUANT	0	Compliance Voltage
ZCURVE	TABLE
	Pt	Time	Freq	Zreal	Zimag	Zsig	Zmod	Zphz	Idc	Vdc	IERange
	#	s	Hz	ohm	ohm	V	ohm	°	A	V	#
	0	10	300046.9	406.8961	-81.9356	1	415.0637	-11.38524	-2.673512E-005	-0.0009304	9
	1	14	238359.4	421.9623	-71.83969	1	428.034	-9.66205	-2.029642E-005	0.0014389	9
	2	20	189328.1	438.313	-64.38271	1	443.0163	-8.356278	2.216626E-005	-0.001416	9
	3	27	150421.9	451.0954	-54.91006	1	454.4251	-6.940244	2.633154E-005	0.0009275	9
	4	33	119484.4	463.2098	-32.95939	1	464.381	-4.069984	-2.188214E-005	0.0140708	8
	5	39	94921.88	472.3869	-25.01115	1	473.0485	-3.030771	1.507572E-005	-0.0047017	8
	6	41	75421.88	478.1608	-22.72129	1	478.7003	-2.720539	-1.631576E-005	0.0054581	8
	7	44	59859.37	480.7887	-19.43116	1	481.1812	-2.31436	1.706685E-005	-0.0029237	8
	8	47	47578.12	484.9022	-15.61129	1	485.1534	-1.843984	-1.158894E-005	0.001826	8
	9	49	37828.12	489.6932	-14.15012	1	489.8976	-1.655152	1.639344E-005	-0.0051558	8
	10	52	30046.88	492.4347	-12.01462	1	492.5812	-1.397648	9.193792E-006	0.001232	8
	11	54	23859.38	497.5338	-12.38914	1	497.688	-1.426433	1.510893E-005	-0.0037711	8
	12	57	18984.38	500.401	-9.95373	1	500.5	-1.139549	1.530941E-005	-0.0024168	8
	13	59	15046.87	503.4951	-9.81848	1	503.5909	-1.117163	-3.130363E-006	-0.0017845	8
	14	61	11953.13	510.2199	-7.065057	1	510.2688	-0.7933287	-2.515241E-006	-0.0018909	8
	15	64	9515.62	511.3999	-8.171104	1	511.4652	-0.9153892	-1.440406E-005	0.0061026	8
	16	66	7546.875	515.3685	-10.79598	1	515.4816	-1.200061	-1.161396E-005	0.0017896	8
	17	68	5928.309	518.9577	-10.17586	1	519.0574	-1.123327	1.621172E-005	-0.0046146	8
	18	70	4733.456	522.9935	-8.44951	1	523.0618	-0.925593	-1.54536E-005	0.0053572	8
	19	73	3796.875	526.5567	-11.46651	1	526.6815	-1.247499	-1.32815E-005	0.0024795	8
	20	75	2987.132	532.3693	-12.39724	1	532.5136	-1.334001	1.575248E-005	-0.0025203	8
	21	78	2390.625	536.5169	-14.88025	1	536.7232	-1.588686	-1.4805E-005	0.004194	8
	22	80	1884.191	542.513	-18.66843	1	542.8341	-1.970829	-1.163161E-005	0.0017453	8
	23	82	1516.544	546.9117	-17.77862	1	547.2006	-1.861876	1.461626E-005	-0.0051378	8
	24	85	1193.986	551.9212	-20.1681	1	552.2896	-2.09275	7.658848E-006	0.0017588	8
	25	87	946.5144	555.4756	-22.18507	1	555.9185	-2.287113	-1.49004E-005	0.0062967	8
	26	89	751.7689	563.6309	-27.54688	1	564.3036	-2.798046	1.277048E-005	-0.0005714	8
	27	92	597.4265	566.9236	-30.49829	1	567.7434	-3.079323	-8.246879E-006	6.696353E-005	8
	28	94	477.4305	574.018	-36.15394	1	575.1555	-3.603956	1.237361E-008	0.000653	8
	29	97	376.6741	580.3232	-42.71726	1	581.8932	-4.209918	-1.640053E-008	0.0006713	8
	30	99	298.2954	587.0604	-50.64733	1	589.2411	-4.930857	2.356603E-009	0.0006495	8
	31	101	237.7717	594.3839	-59.97985	1	597.4026	-5.762266	8.445674E-009	0.0006515	8
	32	104	189.0121	602.4379	-71.36823	1	606.6505	-6.756098	2.555397E-008	0.0006452	8
	33	106	150.2404	611.3241	-85.11254	1	617.2206	-7.926142	-3.188284E-008	0.0006629	8
	34	109	119.1737	621.2413	-101.7974	1	629.5264	-9.305862	-2.255777E-008	0.000642	8
	35	111	95.0169	632.2361	-121.3343	1	643.7737	-10.86372	-1.049788E-008	0.0006647	8
	36	113	75.60484	644.7923	-144.9402	1	660.8818	-12.6687	3.636584E-008	0.0006424	8
	37	116	54.50582	663.8249	-186.9752	1	689.6544	-15.73059	-1.846588E-008	0.0006657	8
	38	119	45.95588	677.2169	-213.6668	1	710.1241	-17.51086	6.063359E-009	0.0006718	8
	39	121	37.20238	694.2165	-252.0755	1	738.5652	-19.95636	-8.065802E-008	0.0006758	8
	40	123	30.04808	713.7598	-297.9731	1	773.4604	-22.65906	-4.334021E-008	0.0006501	8
	41	126	23.91582	736.9824	-356.4962	1	818.6773	-25.81417	3.740478E-008	0.0006361	8
	42	128	18.60119	765.6732	-435.271	1	880.7476	-29.61742	-2.555945E-007	0.0006764	8
	43	130	15.02404	793.6037	-514.5529	1	945.8179	-32.95837	-7.98663E-008	0.0006561	8
	44	133	12.01923	826.6513	-614.6536	1	1030.122	-36.63251	9.271145E-008	0.0006596	8
	45	135	9.450605	866.1899	-746.1714	1	1143.266	-40.74295	-7.445561E-008	0.0006225	8
	46	138	7.512019	910.0771	-899.9484	1	1279.901	-44.67938	-9.897831E-008	0.0006673	8
	47	140	5.978954	959.395	-1086.795	1	1449.676	-48.56274	-2.789674E-008	0.0006575	8
	48	143	4.734848	1016.518	-1321.327	1	1667.097	-52.42834	-2.830052E-008	0.0006266	8
	49	147	3.75601	1081.193	-1605.932	1	1935.974	-56.0496	-2.619499E-009	0.0006819	8
	50	150	3.004808	1152.975	-1941.452	1	2258.005	-59.29508	-1.985294E-008	0.0006575	8
	51	154	2.372217	1243.587	-2381.414	1	2686.567	-62.4262	-3.273153E-008	0.0005836	8
	52	158	1.878005	1341.124	-2926.829	1	3219.463	-65.38193	-2.45231E-009	0.0006607	8
	53	163	1.512097	1447.737	-3537.69	1	3822.459	-67.74403	-3.270835E-008	0.0006417	8
	54	168	1.201923	1590.098	-4366.572	1	4647.081	-69.99078	-6.580623E-009	0.0006567	7
	55	174	0.956633	1754.523	-5364.834	1	5644.448	-71.89011	-2.801692E-008	-1.746953E-005	7
