EXPLAIN
TAG	EISPOT
TITLE	LABEL	Potentiostatic EIS	Test Identifier
DATE	LABEL	2/26/2021	Date
TIME	LABEL	1:26:29	Time
NOTES	NOTES	1	Notes...
	
PSTAT	PSTAT	REF3000-16137	Potentiostat
VDC	POTEN	0.00000E+000	T	DC Voltage (V)
FREQINIT	QUANT	3.00000E+005	Initial Freq. (Hz)
FREQFINAL	QUANT	1.00000E+000	Final Freq. (Hz)
PTSPERDEC	QUANT	1.00000E+001	Points/decade
VAC	QUANT	5.00000E+001	AC Voltage (mV rms)
AREA	QUANT	1.00000E+000	Sample Area (cm^2)
SPEED	SELECTOR	2	Optimize for:
ZGUESS	QUANT	1.00000E+003	Estimated Z (ohms)
EOC	QUANT	0	Open Circuit (V)
SEQUENCER	TOGGLE	TRUE	Run as Sequence
PSTATMODEL	IQUANT	5	Pstat Model
PSTATSECTION	LABEL	REF3000-16137	Pstat Section
PSTATSERIALNO	LABEL	16137	Pstat Serial Number
CTRLMODE	IQUANT	1	Control Mode
IESTAB	IQUANT	0	I/E Stability
CASPEED	IQUANT	1	Control Amp Speed
CONVENTION	IQUANT	1	Current Convention
ICHRANGE	IQUANT	2	Ich Range
ICHRANGEMODE	TOGGLE	F	Ich Auto Range
ICHOFFSETENABLE	TOGGLE	T	Ich Offset Enable
ICHOFFSET	QUANT	0	Ich Offset (V)
ICHFILTER	IQUANT	3	Ich Filter
VCHRANGE	IQUANT	2	Vch Range
VCHRANGEMODE	TOGGLE	F	Vch Auto Range
VCHOFFSETENABLE	TOGGLE	T	Vch Offset Enable
VCHOFFSET	QUANT	0	Vch Offset (V)
VCHFILTER	IQUANT	3	Vch Filter
ACHRANGE	IQUANT	2	Ach Range
ACHOFFSETENABLE	TOGGLE	F	Ach Offset Enable
ACHOFFSET	QUANT	0	Ach Offset (V)
ACHFILTER	IQUANT	3	Ach Filter
IERANGELOWERLIMIT	IQUANT	2	I/E Range Lower Limit
IERANGEMODE	TOGGLE	F	I/E AutoRange
IERANGE	IQUANT	11	I/E Range
POSFEEDENABLE	TOGGLE	F	Positive Feedback IR Comp
POSFEEDRESISTANCE	QUANT	0	Positive Feedback Resistance (ohm)
ACHSELECT	IQUANT	0	Ach Select
CABLEID	IQUANT	13	Cable ID
DCCALDATE	LABEL	7/31/2020	DC Calibration Date
ACCALDATE	LABEL	7/31/2020	AC Calibration Date
THERMOSELECT	IQUANT	1	Thermo Select
FRAMEWORKVERSION	QUANT	6.33	Framework Version
INSTRUMENTVERSION	LABEL	3.50	Instrument Version
COMPLIANCEVOLTAGE	IQUANT	0	Compliance Voltage
ZCURVE	TABLE
	Pt	Time	Freq	Zreal	Zimag	Zsig	Zmod	Zphz	Idc	Vdc	IERange
	#	s	Hz	ohm	ohm	V	ohm	°	A	V	#
	0	10	300046.9	3.202828	2.249304	1	3.913755	35.07986	-0.0000955	-6.899191E-005	10
	1	13	238359.4	3.184525	1.782568	1	3.649486	29.23834	-2.531821E-005	-0.000522	10
	2	16	189328.1	3.157191	1.408394	1	3.457084	24.04122	-0.0001026	-0.0002003	10
	3	20	150421.9	3.204821	0.9031323	1	3.329643	15.73807	-0.0001878	9.019261E-005	12
	4	24	119484.4	3.144969	0.8330475	1	3.253429	14.83594	3.3093E-005	0.0006718	11
	5	27	94921.88	3.139596	0.6338031	1	3.202932	11.41314	4.52137E-006	0.0006023	11
	6	29	75421.88	3.137927	0.4664124	1	3.1724	8.454381	-4.762128E-005	0.0005721	11
	7	32	59859.37	3.13957	0.3227769	1	3.156119	5.869912	1.164689E-005	0.0006787	11
	8	34	47578.12	3.142416	0.1982146	1	3.148661	3.609271	1.236487E-005	0.0006999	11
	9	37	37828.12	3.146972	0.0850425	1	3.148121	1.547961	1.724655E-005	0.0007216	11
	10	39	30046.88	3.152419	-0.0227001	1	3.152501	-0.4125706	-5.788181E-005	0.0006513	11
	11	42	23859.38	3.159477	-0.1306684	1	3.162178	-2.368267	1.651956E-005	0.0007182	11
	12	44	18984.38	3.16853	-0.2426103	1	3.177804	-4.378522	2.144183E-005	0.0007433	11
	13	46	15046.87	3.179115	-0.3674522	1	3.20028	-6.593171	1.850933E-005	0.0007436	11
	14	49	11953.13	3.191761	-0.5077125	1	3.23189	-9.038299	1.593137E-005	0.0007428	11
	15	51	9515.62	3.207244	-0.6702865	1	3.276538	-11.80442	1.514627E-005	0.0007404	11
	16	53	7546.875	3.225837	-0.8662019	1	3.340109	-15.03051	-1.873298E-005	0.0006807	11
	17	56	5928.309	3.251761	-1.114705	1	3.437516	-18.92174	1.854057E-005	0.0007437	11
	18	58	4733.456	3.281028	-1.397354	1	3.566195	-23.06862	1.662431E-005	0.0007364	11
	19	60	3796.875	3.319363	-1.735932	1	3.745882	-27.60828	-2.98507E-005	0.0006809	10
	20	63	2987.132	3.36826	-2.188193	1	4.016636	-33.0098	-2.235997E-005	0.0006873	10
	21	65	2390.625	3.423538	-2.707651	1	4.364858	-38.34022	7.73288E-006	0.0006976	10
	22	67	1884.191	3.498416	-3.391676	1	4.872615	-44.11245	2.04787E-005	0.0006803	10
	23	70	1516.544	3.585648	-4.163584	1	5.494752	-49.26521	-1.932275E-005	0.0006946	10
	24	72	1193.986	3.706197	-5.212429	1	6.395726	-54.58601	2.042996E-005	0.0006754	10
	25	74	946.5144	3.852828	-6.482237	1	7.540801	-59.27415	2.018806E-005	0.0006678	10
	26	77	751.7689	4.047661	-8.034714	1	8.996676	-63.26233	-2.270459E-005	0.000686	10
	27	79	597.4265	4.291185	-9.94742	1	10.83353	-66.66528	2.180884E-005	0.0006678	10
	28	81	477.4305	4.586823	-12.2414	1	13.07253	-69.45915	-1.94013E-006	0.000685	10
	29	84	376.6741	4.978563	-15.23397	1	16.02685	-71.90226	-2.24826E-006	0.0006857	10
	30	86	298.2954	5.456123	-18.88575	1	19.6581	-73.88591	8.04396E-007	0.0006677	10
	31	88	237.7717	6.02934	-23.25626	1	24.02512	-75.46568	-1.835202E-006	0.0006834	10
	32	91	189.0121	6.736178	-28.71488	1	29.49441	-76.7978	-2.054256E-006	0.0006921	10
	33	93	150.2404	7.595329	-35.45211	1	36.2566	-77.90764	-2.189175E-006	0.0006902	10
	34	96	119.1737	8.641956	-43.81579	1	44.6599	-78.84254	1.209237E-006	8.992691E-005	9
	35	98	95.0169	9.90887	-53.97816	1	54.88012	-79.59792	1.076078E-006	8.547653E-005	9
	36	100	75.60484	11.48763	-66.64671	1	67.6295	-80.22025	1.024524E-006	9.08528E-005	9
	37	103	54.50582	14.45928	-90.16425	1	91.31628	-80.88927	9.773231E-007	7.714403E-005	9
	38	105	45.95588	16.44346	-105.5705	1	106.8434	-81.14685	1.233102E-006	8.875132E-005	9
	39	108	37.20238	19.43773	-128.3184	1	129.7823	-81.38629	1.081905E-006	8.611863E-005	9
	40	110	30.04808	23.19641	-156.2562	1	157.9686	-81.55605	1.085616E-006	8.62158E-005	9
	41	113	23.91582	28.1616	-192.6165	1	194.6643	-81.68198	9.780462E-007	8.327454E-005	9
	42	115	18.60119	35.21993	-242.6848	1	245.2271	-81.74253	1.030542E-006	8.857928E-005	9
	43	117	15.02404	42.61351	-295.1898	1	298.2498	-81.78555	1.271783E-006	8.925679E-005	9
	44	120	12.01923	52.30701	-361.9784	1	365.7382	-81.7775	1.166987E-006	7.860558E-005	9
	45	122	9.450605	64.73238	-448.7939	1	453.4383	-81.79247	6.119127E-007	0.0006461	8
	46	125	7.512019	79.5172	-553.2233	1	558.9088	-81.82065	5.892719E-007	0.0006493	8
	47	127	5.978954	97.8415	-681.1899	1	688.1807	-81.82632	5.884526E-007	0.0006719	8
	48	130	4.734848	120.3473	-843.0547	1	851.6013	-81.87583	6.03045E-007	0.0006339	8
	49	134	3.75601	148.9516	-1042.439	1	1053.027	-81.86819	6.044983E-007	0.0006843	8
	50	137	3.004808	182.7381	-1279.23	1	1292.216	-81.87029	6.684249E-007	0.0005866	8
	51	141	2.372217	228.008	-1591.184	1	1607.437	-81.84534	5.997155E-007	0.0005914	8
	52	145	1.878005	287.4445	-1974.173	1	1994.989	-81.71581	5.978932E-007	0.0006728	8
	53	150	1.512097	361.8392	-2409.681	1	2436.697	-81.46024	5.793187E-007	0.000582	8
	54	155	1.201923	460.4898	-2987.659	1	3022.938	-81.23792	6.026291E-007	0.0006881	8
	55	161	0.956633	597.0753	-3693.332	1	3741.283	-80.81684	5.752413E-007	1.607869E-005	8
