EXPLAIN
TAG	EISPOT
TITLE	LABEL	Potentiostatic EIS	Test Identifier
DATE	LABEL	2/26/2021	Date
TIME	LABEL	1:12:21	Time
NOTES	NOTES	1	Notes...
	
PSTAT	PSTAT	REF3000-16137	Potentiostat
VDC	POTEN	0.00000E+000	T	DC Voltage (V)
FREQINIT	QUANT	3.00000E+005	Initial Freq. (Hz)
FREQFINAL	QUANT	1.00000E+000	Final Freq. (Hz)
PTSPERDEC	QUANT	1.00000E+001	Points/decade
VAC	QUANT	5.00000E+001	AC Voltage (mV rms)
AREA	QUANT	1.00000E+000	Sample Area (cm^2)
SPEED	SELECTOR	2	Optimize for:
ZGUESS	QUANT	1.00000E+003	Estimated Z (ohms)
EOC	QUANT	0	Open Circuit (V)
SEQUENCER	TOGGLE	TRUE	Run as Sequence
PSTATMODEL	IQUANT	5	Pstat Model
PSTATSECTION	LABEL	REF3000-16137	Pstat Section
PSTATSERIALNO	LABEL	16137	Pstat Serial Number
CTRLMODE	IQUANT	1	Control Mode
IESTAB	IQUANT	0	I/E Stability
CASPEED	IQUANT	1	Control Amp Speed
CONVENTION	IQUANT	1	Current Convention
ICHRANGE	IQUANT	2	Ich Range
ICHRANGEMODE	TOGGLE	F	Ich Auto Range
ICHOFFSETENABLE	TOGGLE	T	Ich Offset Enable
ICHOFFSET	QUANT	0	Ich Offset (V)
ICHFILTER	IQUANT	3	Ich Filter
VCHRANGE	IQUANT	2	Vch Range
VCHRANGEMODE	TOGGLE	F	Vch Auto Range
VCHOFFSETENABLE	TOGGLE	T	Vch Offset Enable
VCHOFFSET	QUANT	0	Vch Offset (V)
VCHFILTER	IQUANT	3	Vch Filter
ACHRANGE	IQUANT	2	Ach Range
ACHOFFSETENABLE	TOGGLE	F	Ach Offset Enable
ACHOFFSET	QUANT	0	Ach Offset (V)
ACHFILTER	IQUANT	3	Ach Filter
IERANGELOWERLIMIT	IQUANT	2	I/E Range Lower Limit
IERANGEMODE	TOGGLE	F	I/E AutoRange
IERANGE	IQUANT	11	I/E Range
POSFEEDENABLE	TOGGLE	F	Positive Feedback IR Comp
POSFEEDRESISTANCE	QUANT	0	Positive Feedback Resistance (ohm)
ACHSELECT	IQUANT	0	Ach Select
CABLEID	IQUANT	13	Cable ID
DCCALDATE	LABEL	7/31/2020	DC Calibration Date
ACCALDATE	LABEL	7/31/2020	AC Calibration Date
THERMOSELECT	IQUANT	1	Thermo Select
FRAMEWORKVERSION	QUANT	6.33	Framework Version
INSTRUMENTVERSION	LABEL	3.50	Instrument Version
COMPLIANCEVOLTAGE	IQUANT	0	Compliance Voltage
ZCURVE	TABLE
	Pt	Time	Freq	Zreal	Zimag	Zsig	Zmod	Zphz	Idc	Vdc	IERange
	#	s	Hz	ohm	ohm	V	ohm	°	A	V	#
	0	10	300046.9	2.65592	2.197796	1	3.44735	39.60804	5.976656E-005	-0.0002475	11
	1	13	238359.4	2.615791	1.749759	1	3.147065	33.77942	-1.095786E-006	-6.935072E-005	11
	2	17	189328.1	2.584558	1.389773	1	2.93452	28.2679	-0.0001466	0.000107	11
	3	19	150421.9	2.563082	1.087138	1	2.784108	22.98436	2.641143E-006	0.0003744	11
	4	22	119484.4	2.585392	0.7325854	1	2.687179	15.82038	-0.0002002	0.0003723	12
	5	25	94921.88	2.54949	0.641777	1	2.629026	14.12937	9.640871E-006	0.0005825	11
	6	28	75421.88	2.557519	0.4051487	1	2.589411	9.001691	-0.0001151	0.000536	12
	7	31	59859.37	2.548222	0.3335916	1	2.569965	7.458263	-3.842721E-005	0.0006254	11
	8	34	47578.12	2.549326	0.2098872	1	2.557951	4.706573	1.585173E-005	0.000691	11
	9	37	37828.12	2.552941	0.0987221	1	2.554849	2.214522	-3.920875E-005	0.0006586	11
	10	39	30046.88	2.557438	-0.006977	1	2.557448	-0.15631	-3.205116E-005	0.0006844	11
	11	42	23859.38	2.56267	-0.111716	1	2.565104	-2.49615	-1.29092E-005	0.0006979	11
	12	44	18984.38	2.56985	-0.2201097	1	2.579259	-4.895483	1.020058E-005	0.0007386	11
	13	46	15046.87	2.578892	-0.3398434	1	2.601187	-7.507115	-4.563476E-005	0.0006817	11
	14	48	11953.13	2.589918	-0.4735921	1	2.632862	-10.36261	1.367529E-005	0.0007254	11
	15	51	9515.62	2.604131	-0.6285815	1	2.67892	-13.5704	-6.208208E-006	0.0007116	11
	16	53	7546.875	2.622431	-0.8148265	1	2.746104	-17.26076	-2.514497E-005	0.0007127	11
	17	55	5928.309	2.645025	-1.049613	1	2.845671	-21.64443	8.638253E-006	0.0007268	11
	18	58	4733.456	2.672528	-1.316988	1	2.979406	-26.23349	-3.900009E-005	0.0006927	11
	19	60	3796.875	2.705559	-1.636269	1	3.16187	-31.16474	1.603062E-005	0.0007399	11
	20	62	2987.132	2.75088	-2.061379	1	3.437531	-36.84615	8.474117E-006	0.0007199	11
	21	65	2390.625	2.805292	-2.548709	1	3.790195	-42.25628	7.71802E-006	0.0007157	11
	22	67	1884.191	2.879519	-3.199095	1	4.304165	-48.00949	-1.654957E-005	0.0006759	10
	23	69	1516.544	2.963767	-3.924709	1	4.918054	-52.94151	-2.749877E-006	0.0006582	10
	24	72	1193.986	3.081172	-4.9131	1	5.799325	-57.90678	-2.609659E-005	0.0006905	10
	25	74	946.5144	3.22896	-6.09939	1	6.901357	-62.10368	9.341675E-007	0.0006802	10
	26	76	751.7689	3.415455	-7.557806	1	8.293718	-65.68127	1.701529E-005	0.0006634	10
	27	79	597.4265	3.648841	-9.344681	1	10.0318	-68.67072	4.640007E-006	0.0006601	10
	28	81	477.4305	3.927924	-11.49516	1	12.14772	-71.13457	-1.819471E-006	0.0006862	10
	29	83	376.6741	4.296454	-14.29564	1	14.92732	-73.27222	-1.710986E-006	0.0006834	10
	30	86	298.2954	4.743128	-17.71137	1	18.33548	-75.0079	-1.934078E-006	0.0006898	10
	31	88	237.7717	5.273529	-21.81154	1	22.44	-76.40804	-1.57796E-006	0.0006857	10
	32	90	189.0121	5.928762	-26.92852	1	27.57346	-77.58347	-2.292198E-006	0.0006877	10
	33	93	150.2404	6.733335	-33.26492	1	33.93955	-78.55706	-2.245097E-006	0.0006903	10
	34	95	119.1737	7.737837	-41.18217	1	41.90281	-79.3586	-1.875085E-006	0.0006706	10
	35	98	95.0169	8.949224	-50.69254	1	51.47643	-79.9882	1.052361E-006	8.173239E-005	9
	36	100	75.60484	10.49843	-62.60141	1	63.47562	-80.47993	8.786839E-007	8.49466E-005	9
	37	103	54.50582	13.45574	-84.65228	1	85.71502	-80.96822	7.652349E-007	8.002479E-005	9
	38	105	45.95588	15.45533	-99.0936	1	100.2917	-81.13518	1.141393E-006	8.629035E-005	9
	39	107	37.20238	18.44054	-120.3011	1	121.7063	-81.28516	9.584777E-007	8.532748E-005	9
	40	110	30.04808	22.23654	-146.4163	1	148.0952	-81.36436	9.149253E-007	8.690621E-005	9
	41	112	23.91582	27.25154	-180.1839	1	182.2331	-81.3996	1.029448E-006	8.024363E-005	9
	42	115	18.60119	34.32154	-226.8858	1	229.467	-81.39795	1.008279E-006	8.131396E-005	9
	43	117	15.02404	41.79771	-275.4431	1	278.5963	-81.37135	1.093038E-006	8.544141E-005	9
	44	119	12.01923	51.54927	-337.6241	1	341.5368	-81.31898	1.184147E-006	8.81888E-005	9
	45	122	9.450605	64.48984	-420.2495	1	425.1689	-81.27567	1.100083E-006	7.527867E-005	9
	46	124	7.512019	79.94175	-515.6172	1	521.7776	-81.18698	5.689797E-007	0.0006604	8
	47	127	5.978954	99.4251	-634.3513	1	642.0957	-81.09221	5.92322E-007	0.0006658	8
	48	130	4.734848	124.8137	-785.0192	1	794.8796	-80.9659	5.417411E-007	0.0006348	8
	49	133	3.75601	158.2919	-969.628	1	982.464	-80.72825	6.078473E-007	0.0006805	8
	50	137	3.004808	200.1242	-1188.249	1	1204.984	-80.43999	5.911564E-007	0.0006555	8
	51	140	2.372217	262.4838	-1474.686	1	1497.864	-79.90745	5.308003E-007	0.0005965	8
	52	145	1.878005	342.4742	-1826.892	1	1858.715	-79.3824	5.821271E-007	0.0006676	8
	53	149	1.512097	443.5352	-2219.221	1	2263.11	-78.69774	5.488097E-007	0.000684	8
	54	155	1.201923	599.8843	-2736.897	1	2801.868	-77.63718	5.847124E-007	0.0006742	8
	55	161	0.956633	814.4318	-3350.71	1	3448.269	-76.33847	4.974485E-007	2.045604E-005	8
