EXPLAIN
TAG	EISPOT
TITLE	LABEL	Potentiostatic EIS	Test Identifier
DATE	LABEL	2/26/2021	Date
TIME	LABEL	1:37:46	Time
NOTES	NOTES	1	Notes...
	
PSTAT	PSTAT	REF3000-16137	Potentiostat
VDC	POTEN	0.00000E+000	T	DC Voltage (V)
FREQINIT	QUANT	3.00000E+005	Initial Freq. (Hz)
FREQFINAL	QUANT	1.00000E+000	Final Freq. (Hz)
PTSPERDEC	QUANT	1.00000E+001	Points/decade
VAC	QUANT	5.00000E+001	AC Voltage (mV rms)
AREA	QUANT	1.00000E+000	Sample Area (cm^2)
SPEED	SELECTOR	2	Optimize for:
ZGUESS	QUANT	1.00000E+003	Estimated Z (ohms)
EOC	QUANT	0	Open Circuit (V)
SEQUENCER	TOGGLE	TRUE	Run as Sequence
PSTATMODEL	IQUANT	5	Pstat Model
PSTATSECTION	LABEL	REF3000-16137	Pstat Section
PSTATSERIALNO	LABEL	16137	Pstat Serial Number
CTRLMODE	IQUANT	1	Control Mode
IESTAB	IQUANT	0	I/E Stability
CASPEED	IQUANT	1	Control Amp Speed
CONVENTION	IQUANT	1	Current Convention
ICHRANGE	IQUANT	2	Ich Range
ICHRANGEMODE	TOGGLE	F	Ich Auto Range
ICHOFFSETENABLE	TOGGLE	T	Ich Offset Enable
ICHOFFSET	QUANT	0	Ich Offset (V)
ICHFILTER	IQUANT	3	Ich Filter
VCHRANGE	IQUANT	2	Vch Range
VCHRANGEMODE	TOGGLE	F	Vch Auto Range
VCHOFFSETENABLE	TOGGLE	T	Vch Offset Enable
VCHOFFSET	QUANT	0	Vch Offset (V)
VCHFILTER	IQUANT	3	Vch Filter
ACHRANGE	IQUANT	2	Ach Range
ACHOFFSETENABLE	TOGGLE	F	Ach Offset Enable
ACHOFFSET	QUANT	0	Ach Offset (V)
ACHFILTER	IQUANT	3	Ach Filter
IERANGELOWERLIMIT	IQUANT	2	I/E Range Lower Limit
IERANGEMODE	TOGGLE	F	I/E AutoRange
IERANGE	IQUANT	11	I/E Range
POSFEEDENABLE	TOGGLE	F	Positive Feedback IR Comp
POSFEEDRESISTANCE	QUANT	0	Positive Feedback Resistance (ohm)
ACHSELECT	IQUANT	0	Ach Select
CABLEID	IQUANT	13	Cable ID
DCCALDATE	LABEL	7/31/2020	DC Calibration Date
ACCALDATE	LABEL	7/31/2020	AC Calibration Date
THERMOSELECT	IQUANT	1	Thermo Select
FRAMEWORKVERSION	QUANT	6.33	Framework Version
INSTRUMENTVERSION	LABEL	3.50	Instrument Version
COMPLIANCEVOLTAGE	IQUANT	0	Compliance Voltage
ZCURVE	TABLE
	Pt	Time	Freq	Zreal	Zimag	Zsig	Zmod	Zphz	Idc	Vdc	IERange
	#	s	Hz	ohm	ohm	V	ohm	°	A	V	#
	0	10	300046.9	4.019809	2.230881	1	4.597357	29.02904	-2.361808E-005	5.283259E-006	10
	1	13	238359.4	4.005907	1.764634	1	4.377354	23.77387	7.628611E-005	-0.0004898	10
	2	17	189328.1	3.9892	1.396183	1	4.226469	19.28957	-1.320236E-005	3.556436E-005	10
	3	19	150421.9	3.972962	1.098439	1	4.122013	15.45499	7.533318E-005	3.414921E-005	10
	4	22	119484.4	3.972067	0.8450799	1	4.060969	12.01092	-2.262149E-005	0.0003463	10
	5	24	94921.88	3.97309	0.6558645	1	4.026861	9.373661	-1.149716E-005	0.0004493	10
	6	27	75421.88	3.973463	0.4800311	1	4.002354	6.888479	1.338205E-005	0.0004883	10
	7	29	59859.37	3.976886	0.3313639	1	3.990667	4.763023	-2.282161E-005	0.0005581	10
	8	32	47578.12	3.982421	0.2016334	1	3.987522	2.89846	-1.176852E-005	0.0005794	10
	9	34	37828.12	3.98877	0.083069	1	3.989635	1.193052	-2.370835E-005	0.0006358	10
	10	37	30046.88	3.997975	-0.029898	1	3.998087	-0.4284666	-1.835597E-005	0.0006618	10
	11	39	23859.38	4.007212	-0.1431358	1	4.009767	-2.045709	2.092554E-005	0.0006618	10
	12	42	18984.38	4.018656	-0.260063	1	4.027062	-3.702671	-1.996097E-005	0.0006996	10
	13	44	15046.87	4.030517	-0.390432	1	4.049383	-5.53292	2.305513E-005	0.000653	10
	14	46	11953.13	4.04603	-0.5373423	1	4.081555	-7.565028	-9.671594E-007	0.0006605	10
	15	49	9515.62	4.064245	-0.7077209	1	4.125404	-9.87806	-1.752992E-005	0.0007086	10
	16	51	7546.875	4.085112	-0.9140476	1	4.186122	-12.61225	-1.980704E-005	0.0006757	10
	17	53	5928.309	4.113249	-1.175108	1	4.277815	-15.94403	1.693531E-005	0.0006577	10
	18	56	4733.456	4.144923	-1.472608	1	4.398745	-19.55911	2.016077E-005	0.0006775	10
	19	58	3796.875	4.184711	-1.82795	1	4.566531	-23.59649	-2.126319E-005	0.0007137	10
	20	60	2987.132	4.235575	-2.303465	1	4.821415	-28.53901	2.157234E-005	0.0006693	10
	21	62	2390.625	4.296068	-2.84943	1	5.155138	-33.55491	-2.254437E-005	0.0007162	10
	22	65	1884.191	4.374503	-3.570609	1	5.646727	-39.22242	4.161253E-006	0.0006578	10
	23	67	1516.544	4.464111	-4.383397	1	6.256393	-44.47731	-2.506372E-005	0.0007069	10
	24	69	1193.986	4.589531	-5.487748	1	7.153962	-50.09348	1.908765E-005	0.0006701	10
	25	72	946.5144	4.749306	-6.820719	1	8.311324	-55.15028	-9.147851E-006	0.0006817	10
	26	74	751.7689	4.937803	-8.464557	1	9.79952	-59.74283	-2.693953E-005	0.000693	10
	27	77	597.4265	5.183929	-10.48887	1	11.69998	-63.69996	3.635331E-006	0.0006878	10
	28	79	477.4305	5.494166	-12.92069	1	14.0403	-66.96371	-3.340181E-006	0.0006842	10
	29	81	376.6741	5.901913	-16.09386	1	17.1419	-69.86109	-3.085881E-006	0.0006926	10
	30	83	298.2954	6.407182	-19.96337	1	20.96635	-72.20612	-3.284701E-006	0.0006873	10
	31	86	237.7717	7.015418	-24.60048	1	25.58124	-74.08323	-3.471215E-006	0.0006818	10
	32	88	189.0121	7.773165	-30.38195	1	31.36057	-75.64883	-2.644143E-006	0.0006873	10
	33	91	150.2404	8.696565	-37.50821	1	38.50319	-76.94619	-3.284013E-006	0.0006808	10
	34	93	119.1737	9.81965	-46.34352	1	47.37243	-78.03664	1.191762E-006	8.260294E-005	9
	35	95	95.0169	11.16641	-57.06141	1	58.14372	-78.92765	1.104589E-006	8.149798E-005	9
	36	98	75.60484	12.81942	-70.42255	1	71.57984	-79.68309	1.049839E-006	8.554014E-005	9
	37	100	54.50582	15.86306	-95.2181	1	96.5304	-80.54155	1.011499E-006	8.064961E-005	9
	38	103	45.95588	17.87156	-111.4976	1	112.9208	-80.89371	1.228964E-006	8.71341E-005	9
	39	105	37.20238	20.85501	-135.5432	1	137.1382	-81.25293	1.210898E-006	8.179233E-005	9
	40	108	30.04808	24.64524	-165.1897	1	167.018	-81.51443	1.099808E-006	8.283091E-005	9
	41	110	23.91582	29.69489	-204.0773	1	206.2264	-81.72111	9.444549E-007	8.022775E-005	9
	42	112	18.60119	36.65649	-257.131	1	259.7307	-81.8866	1.119206E-006	8.139201E-005	9
	43	115	15.02404	44.21679	-313.0013	1	316.109	-81.9592	1.320581E-006	5.863206E-005	9
	44	117	12.01923	54.02639	-384.2709	1	388.0502	-81.99699	1.177324E-006	8.519423E-005	9
	45	119	9.450605	66.87803	-477.1121	1	481.7765	-82.02069	6.604047E-007	0.0006628	8
	46	122	7.512019	82.35849	-588.5026	1	594.2375	-82.03343	6.50458E-007	0.0006709	8
	47	125	5.978954	100.8061	-724.5723	1	731.551	-82.07957	6.434148E-007	0.0006644	8
	48	128	4.734848	124.2282	-897.1882	1	905.748	-82.11672	6.216009E-007	0.0006728	8
	49	131	3.75601	151.8484	-1108.5	1	1118.853	-82.19986	6.516384E-007	0.0006639	8
	50	134	3.004808	183.8151	-1359.46	1	1371.831	-82.29963	6.177207E-007	0.0006948	8
	51	138	2.372217	225.2895	-1687.008	1	1701.985	-82.39351	5.788475E-007	0.000685	8
	52	142	1.878005	279.0883	-2095.833	1	2114.333	-82.41492	6.327357E-007	0.0006412	8
	53	147	1.512097	339.0546	-2561.577	1	2583.919	-82.46007	6.31402E-007	0.000764	8
	54	152	1.201923	418.7878	-3173.506	1	3201.019	-82.48247	6.42437E-007	0.0006366	8
	55	159	0.956633	518.5632	-3925.395	1	3959.499	-82.47453	6.147613E-007	2.107971E-005	8
