EXPLAIN
TAG	EISPOT
TITLE	LABEL	Potentiostatic EIS	Test Identifier
DATE	LABEL	3/1/2021	Date
TIME	LABEL	2:29:21	Time
NOTES	NOTES	1	Notes...
	
PSTAT	PSTAT	REF3000-16137	Potentiostat
VDC	POTEN	0.00000E+000	T	DC Voltage (V)
FREQINIT	QUANT	3.00000E+005	Initial Freq. (Hz)
FREQFINAL	QUANT	1.00000E+000	Final Freq. (Hz)
PTSPERDEC	QUANT	1.00000E+001	Points/decade
VAC	QUANT	5.00000E+001	AC Voltage (mV rms)
AREA	QUANT	1.00000E+000	Sample Area (cm^2)
SPEED	SELECTOR	2	Optimize for:
ZGUESS	QUANT	1.00000E+003	Estimated Z (ohms)
EOC	QUANT	0	Open Circuit (V)
SEQUENCER	TOGGLE	TRUE	Run as Sequence
PSTATMODEL	IQUANT	5	Pstat Model
PSTATSECTION	LABEL	REF3000-16137	Pstat Section
PSTATSERIALNO	LABEL	16137	Pstat Serial Number
CTRLMODE	IQUANT	1	Control Mode
IESTAB	IQUANT	0	I/E Stability
CASPEED	IQUANT	1	Control Amp Speed
CONVENTION	IQUANT	1	Current Convention
ICHRANGE	IQUANT	2	Ich Range
ICHRANGEMODE	TOGGLE	F	Ich Auto Range
ICHOFFSETENABLE	TOGGLE	T	Ich Offset Enable
ICHOFFSET	QUANT	0	Ich Offset (V)
ICHFILTER	IQUANT	3	Ich Filter
VCHRANGE	IQUANT	2	Vch Range
VCHRANGEMODE	TOGGLE	F	Vch Auto Range
VCHOFFSETENABLE	TOGGLE	T	Vch Offset Enable
VCHOFFSET	QUANT	0	Vch Offset (V)
VCHFILTER	IQUANT	3	Vch Filter
ACHRANGE	IQUANT	2	Ach Range
ACHOFFSETENABLE	TOGGLE	F	Ach Offset Enable
ACHOFFSET	QUANT	0	Ach Offset (V)
ACHFILTER	IQUANT	3	Ach Filter
IERANGELOWERLIMIT	IQUANT	2	I/E Range Lower Limit
IERANGEMODE	TOGGLE	F	I/E AutoRange
IERANGE	IQUANT	11	I/E Range
POSFEEDENABLE	TOGGLE	F	Positive Feedback IR Comp
POSFEEDRESISTANCE	QUANT	0	Positive Feedback Resistance (ohm)
ACHSELECT	IQUANT	0	Ach Select
CABLEID	IQUANT	13	Cable ID
DCCALDATE	LABEL	7/31/2020	DC Calibration Date
ACCALDATE	LABEL	7/31/2020	AC Calibration Date
THERMOSELECT	IQUANT	1	Thermo Select
FRAMEWORKVERSION	QUANT	6.33	Framework Version
INSTRUMENTVERSION	LABEL	3.50	Instrument Version
COMPLIANCEVOLTAGE	IQUANT	0	Compliance Voltage
ZCURVE	TABLE
	Pt	Time	Freq	Zreal	Zimag	Zsig	Zmod	Zphz	Idc	Vdc	IERange
	#	s	Hz	ohm	ohm	V	ohm	°	A	V	#
	0	16	300046.9	544.4942	-3468.61	1	3511.086	-81.07864	-2.873173E-005	-0.0012033	9
	1	33	238359.4	759.5433	-4211.949	1	4279.886	-79.77768	-2.038888E-005	0.0015853	9
	2	53	189328.1	953.897	-5188.29	1	5275.25	-79.58219	1.366744E-006	-0.0019436	9
	3	60	150421.9	1192.695	-6209.277	1	6322.788	-79.1269	5.07141E-005	0.0001449	9
	4	68	119484.4	1820.509	-7629.762	1	7843.948	-76.5798	6.6705E-005	-0.0258832	8
	5	75	94921.88	2279.942	-9344.376	1	9618.5	-76.28826	-1.882704E-005	0.0111818	8
	6	84	75421.88	2773.332	-11519.57	1	11848.71	-76.46367	2.209612E-005	-0.0095564	8
	7	92	59859.37	3765.538	-14069.83	1	14565	-75.01695	-2.073533E-005	0.0031348	8
	8	101	47578.12	4845.562	-17209.24	1	17878.4	-74.27451	-2.397339E-005	0.0054584	8
	9	110	37828.12	8390.265	-21164.08	1	22766.53	-68.3747	-6.753876E-006	0.0222792	7
	10	117	30046.88	10322.85	-25442.61	1	27457.01	-67.91609	-3.194375E-006	-0.004348	7
	11	123	23859.38	10777.41	-30629.9	1	32470.65	-70.61512	-1.640868E-005	0.0009009	8
	12	130	18984.38	16856.62	-36560.89	1	40259.71	-65.24764	6.420633E-006	-0.025402	7
	13	135	15046.87	22177.92	-43563.45	1	48883.89	-63.0196	-6.816146E-006	0.022449	7
	14	141	11953.13	28634.36	-52772.39	1	60040.42	-61.51569	9.195716E-006	0.0038248	8
	15	147	9515.62	38436.58	-58408.17	1	69920.56	-56.65234	-6.089237E-006	0.0243022	7
	16	152	7546.875	50097.32	-66230.23	1	83043.27	-52.89571	7.193615E-006	-0.0230265	7
	17	158	5928.309	64308.41	-65011.86	1	91444.59	-45.31166	-3.391854E-006	0.023535	7
	18	163	4733.456	72475.29	-73002.8	1	102869.2	-45.20776	-5.033491E-006	0.0038288	7
	19	168	3796.875	102735.2	-76188.72	1	127903.3	-36.56073	2.662769E-005	-0.0054483	8
	20	176	2987.132	130230.6	-78201.06	1	151906	-30.98403	1.580268E-005	-0.0090678	8
	21	183	2390.625	122671.3	-68349.81	1	140427.7	-29.12561	-6.069905E-006	0.0243742	7
	22	190	1884.191	138180.5	-54886.64	1	148682.2	-21.66346	-1.541946E-006	0.0202592	7
	23	196	1516.544	149306.2	-47649.32	1	156725.2	-17.69988	-3.406863E-006	0.0236093	7
	24	203	1193.986	155848.1	-56309.88	1	165708.8	-19.86543	2.705244E-006	0.0075486	7
	25	210	946.5144	172261.9	-46379.22	1	178396.2	-15.0688	4.647455E-006	-0.0010573	7
	26	213	751.7689	196367.8	-78763.93	1	211575.2	-21.85593	4.984373E-007	0.0149853	7
	27	218	597.4265	178350.2	-41199.19	1	183046.9	-13.00726	-6.925019E-007	0.0168438	6
	28	221	477.4305	184944.7	-37942.22	1	188796.6	-11.59362	-6.146582E-009	0.0006466	6
	29	223	376.6741	189905	-36702.66	1	193419.2	-10.93861	-6.246272E-009	0.0006247	6
	30	225	298.2954	194898.3	-35847.15	1	198167.6	-10.42179	-6.841379E-009	0.0007071	6
	31	227	237.7717	199370.1	-36465.41	1	202677.5	-10.36501	-6.532808E-009	0.0007028	6
	32	230	189.0121	204330	-37415.29	1	207727.4	-10.37659	-7.15594E-009	0.0007131	6
	33	232	150.2404	209766.7	-39226.25	1	213402.8	-10.59195	-6.127898E-009	0.0006198	6
	34	235	119.1737	214865.4	-42473.65	1	219023.2	-11.18182	-6.735737E-009	0.0007156	6
	35	238	95.0169	221105.2	-44857.89	1	225609.7	-11.46853	-6.02168E-009	0.0006566	6
	36	240	75.60484	227158	-48042.52	1	232182.8	-11.94173	-6.060466E-009	0.0006757	6
	37	243	54.50582	237054.7	-56980.5	1	243806.7	-13.5157	-5.601045E-009	0.0006284	6
	38	245	45.95588	243511.3	-59647.09	1	250710	-13.76338	-7.44213E-009	0.0006896	6
	39	249	37.20238	251249.4	-65914.23	1	259751.7	-14.70004	-5.634742E-009	0.0006419	6
	40	251	30.04808	260338.2	-72694.8	1	270297.1	-15.60145	-6.080519E-009	0.0006314	6
	41	254	23.91582	270389.1	-81449.15	1	282390.2	-16.76385	-6.690783E-009	0.0007136	6
	42	257	18.60119	282322.9	-90875.77	1	296588.3	-17.84264	-5.980834E-009	0.0007207	6
	43	259	15.02404	294180.5	-103010	1	311694.1	-19.29816	-6.020424E-009	0.0006607	6
	44	261	12.01923	307688.4	-116062.3	1	328850.5	-20.66684	-7.406356E-009	0.0007039	6
	45	264	9.450605	323404.1	-131529.6	1	349127.8	-22.13175	-8.434527E-009	0.0007129	6
	46	266	7.512019	340922.3	-149217.1	1	372147.5	-23.63835	-7.725977E-009	0.0006838	6
	47	269	5.978954	362287.5	-169335.7	1	399908.5	-25.05171	-1.215733E-009	0.0006233	5
	48	274	4.734848	385587.7	-193303.6	1	431328.3	-26.62562	-9.123472E-011	0.0006997	5
	49	277	3.75601	412532.6	-220442.2	1	467737.1	-28.11841	-3.012013E-010	0.0007202	5
	50	283	3.004808	443192.3	-250905.1	1	509286.5	-29.51557	-7.404559E-010	0.0006376	5
	51	289	2.372217	479360.9	-288024.2	1	559235.9	-30.99957	-1.72973E-010	0.0006745	5
	52	293	1.878005	518684.3	-329427.1	1	614455.6	-32.42047	-2.133907E-010	0.0006384	5
	53	298	1.512097	560616.4	-373664.3	1	673732.8	-33.68441	-5.147092E-010	0.0007486	5
	54	304	1.201923	611669	-428659.7	1	746919.1	-35.0229	-3.18082E-010	0.0006538	5
	55	310	0.956633	670403.7	-491432.6	1	831232.3	-36.2429	-1.536185E-009	2.598879E-005	5
