EXPLAIN
TAG	EISPOT
TITLE	LABEL	Potentiostatic EIS	Test Identifier
DATE	LABEL	3/1/2021	Date
TIME	LABEL	1:29:03	Time
NOTES	NOTES	1	Notes...
	
PSTAT	PSTAT	REF3000-16137	Potentiostat
VDC	POTEN	0.00000E+000	T	DC Voltage (V)
FREQINIT	QUANT	3.00000E+005	Initial Freq. (Hz)
FREQFINAL	QUANT	1.00000E+000	Final Freq. (Hz)
PTSPERDEC	QUANT	1.00000E+001	Points/decade
VAC	QUANT	5.00000E+001	AC Voltage (mV rms)
AREA	QUANT	1.00000E+000	Sample Area (cm^2)
SPEED	SELECTOR	2	Optimize for:
ZGUESS	QUANT	1.00000E+003	Estimated Z (ohms)
EOC	QUANT	0	Open Circuit (V)
SEQUENCER	TOGGLE	TRUE	Run as Sequence
PSTATMODEL	IQUANT	5	Pstat Model
PSTATSECTION	LABEL	REF3000-16137	Pstat Section
PSTATSERIALNO	LABEL	16137	Pstat Serial Number
CTRLMODE	IQUANT	1	Control Mode
IESTAB	IQUANT	0	I/E Stability
CASPEED	IQUANT	1	Control Amp Speed
CONVENTION	IQUANT	1	Current Convention
ICHRANGE	IQUANT	2	Ich Range
ICHRANGEMODE	TOGGLE	F	Ich Auto Range
ICHOFFSETENABLE	TOGGLE	T	Ich Offset Enable
ICHOFFSET	QUANT	0	Ich Offset (V)
ICHFILTER	IQUANT	3	Ich Filter
VCHRANGE	IQUANT	2	Vch Range
VCHRANGEMODE	TOGGLE	F	Vch Auto Range
VCHOFFSETENABLE	TOGGLE	T	Vch Offset Enable
VCHOFFSET	QUANT	0	Vch Offset (V)
VCHFILTER	IQUANT	3	Vch Filter
ACHRANGE	IQUANT	2	Ach Range
ACHOFFSETENABLE	TOGGLE	F	Ach Offset Enable
ACHOFFSET	QUANT	0	Ach Offset (V)
ACHFILTER	IQUANT	3	Ach Filter
IERANGELOWERLIMIT	IQUANT	2	I/E Range Lower Limit
IERANGEMODE	TOGGLE	F	I/E AutoRange
IERANGE	IQUANT	11	I/E Range
POSFEEDENABLE	TOGGLE	F	Positive Feedback IR Comp
POSFEEDRESISTANCE	QUANT	0	Positive Feedback Resistance (ohm)
ACHSELECT	IQUANT	0	Ach Select
CABLEID	IQUANT	13	Cable ID
DCCALDATE	LABEL	7/31/2020	DC Calibration Date
ACCALDATE	LABEL	7/31/2020	AC Calibration Date
THERMOSELECT	IQUANT	1	Thermo Select
FRAMEWORKVERSION	QUANT	6.33	Framework Version
INSTRUMENTVERSION	LABEL	3.50	Instrument Version
COMPLIANCEVOLTAGE	IQUANT	0	Compliance Voltage
ZCURVE	TABLE
	Pt	Time	Freq	Zreal	Zimag	Zsig	Zmod	Zphz	Idc	Vdc	IERange
	#	s	Hz	ohm	ohm	V	ohm	°	A	V	#
	0	22	300046.9	1058.269	-2281.524	1	2515.012	-65.1161	8.486529E-005	-0.0018364	9
	1	39	238359.4	1436.969	-2623.202	1	2990.998	-61.28642	-2.029672E-005	0.0014948	9
	2	56	189328.1	1926.898	-3142.646	1	3686.347	-58.48565	2.312139E-005	0.0010198	9
	3	66	150421.9	2459.942	-3286.729	1	4105.35	-53.18709	2.112384E-005	-0.0003071	9
	4	73	119484.4	3257.253	-3400.367	1	4708.736	-46.23146	-3.755251E-005	0.0219237	8
	5	81	94921.88	3987.915	-3457.543	1	5278.074	-40.92546	-2.058601E-005	0.0033565	8
	6	88	75421.88	4720.429	-3435.496	1	5838.243	-36.04687	9.978927E-006	0.0034012	8
	7	96	59859.37	5435.932	-3314.005	1	6366.473	-31.36849	-2.267776E-005	0.010723	8
	8	103	47578.12	6005.199	-3148.912	1	6780.712	-27.67091	1.831601E-005	-0.0003301	8
	9	111	37828.12	6654.581	-2858.102	1	7242.389	-23.24323	-2.067062E-005	0.0033792	8
	10	118	30046.88	6948.19	-2560.661	1	7405.021	-20.23068	1.004492E-005	0.0033071	8
	11	127	23859.38	7561.658	-1861.318	1	7787.373	-13.82856	2.322694E-006	0.0070196	7
	12	131	18984.38	7742.985	-1705.155	1	7928.517	-12.4194	6.379882E-006	-0.0199057	7
	13	134	15046.87	7910.247	-1533.728	1	8057.563	-10.973	6.351413E-006	-0.0153341	7
	14	138	11953.13	8081.898	-1437.651	1	8208.771	-10.08657	4.067658E-006	-0.0007602	7
	15	142	9515.62	8238.772	-1387.274	1	8354.753	-9.55801	3.02513E-006	-0.0204134	7
	16	146	7546.875	8371.639	-1312.043	1	8473.83	-8.907212	3.102631E-007	0.0136938	7
	17	150	5928.309	8496.78	-1286.269	1	8593.589	-8.608252	4.531016E-006	-0.0221045	7
	18	154	4733.456	8642.224	-1333.526	1	8744.502	-8.77176	5.773501E-006	-0.0223902	7
	19	159	3796.875	8799.863	-1384.541	1	8908.117	-8.941425	5.654597E-006	-0.0221762	7
	20	163	2987.132	8936.035	-1448.035	1	9052.598	-9.204455	-5.542191E-006	0.0101388	7
	21	167	2390.625	9099.882	-1536.681	1	9228.718	-9.58501	6.437682E-006	-0.0201928	7
	22	170	1884.191	9303.187	-1623.289	1	9443.746	-9.89775	5.775574E-006	-0.022399	7
	23	175	1516.544	9467.864	-1839.409	1	9644.89	-10.99442	4.039752E-006	-0.0003809	7
	24	179	1193.986	9724.19	-1918.643	1	9911.66	-11.16145	2.989664E-006	-0.0202335	7
	25	183	946.5144	9994.19	-2190.344	1	10231.4	-12.3616	-8.246705E-007	-0.0108415	7
	26	186	751.7689	10265.44	-2440.789	1	10551.62	-13.37473	6.337123E-006	-0.0152217	7
	27	189	597.4265	10441.31	-2723.741	1	10790.73	-14.62046	-3.119779E-006	0.021073	7
	28	191	477.4305	10790.65	-3013.858	1	11203.63	-15.6052	-4.258722E-008	0.0006394	7
	29	193	376.6741	11153.3	-3394.532	1	11658.43	-16.92775	-5.017311E-008	0.0006621	7
	30	196	298.2954	11553.9	-3826.056	1	12170.92	-18.32221	-4.142019E-008	0.0005965	7
	31	198	237.7717	11988.01	-4306.913	1	12738.2	-19.76176	-4.558014E-008	0.0006074	7
	32	201	189.0121	12479.9	-4862.888	1	13393.87	-21.28875	-4.245764E-008	0.000599	7
	33	203	150.2404	13033.85	-5502.187	1	14147.63	-22.88684	-4.25374E-008	0.0006201	7
	34	205	119.1737	13658.83	-6245.149	1	15018.84	-24.57104	-4.500267E-008	0.0006033	7
	35	208	95.0169	14347.04	-7068.38	1	15993.74	-26.22815	-4.979623E-008	0.0006749	7
	36	210	75.60484	15133.25	-8024.442	1	17129.13	-27.93488	-5.074294E-008	0.000652	7
	37	213	54.50582	16443.94	-9672.93	1	19077.96	-30.46562	-4.984172E-008	0.0006692	7
	38	215	45.95588	17221.19	-10631.5	1	20238.53	-31.68912	-4.478724E-008	0.0006788	7
	39	218	37.20238	18292.91	-12004.57	1	21880.13	-33.27455	-4.464133E-008	0.0005929	7
	40	220	30.04808	19522.52	-13571.27	1	23776.21	-34.80548	-3.936413E-008	0.0006082	7
	41	222	23.91582	20999.39	-15484.66	1	26091.17	-36.40455	-5.061265E-008	0.0006712	7
	42	225	18.60119	22945.27	-17947.6	1	29130.77	-38.03222	-3.476474E-008	0.0006043	7
	43	227	15.02404	24743.39	-20284.39	1	31995.18	-39.34457	-4.393176E-008	0.0006324	7
	44	229	12.01923	26930.83	-23120.8	1	35494.23	-40.64692	-4.740343E-008	0.0006389	7
	45	232	9.450605	29663.77	-26526.48	1	39794.39	-41.8043	-5.222661E-008	0.0006667	7
	46	234	7.512019	32679.21	-30369.78	1	44612.27	-42.90224	-7.126014E-009	0.0006598	6
	47	237	5.978954	36063.36	-34670.78	1	50026.28	-43.87214	-6.588586E-009	0.000647	6
	48	242	4.734848	40094.21	-39682.26	1	56411.23	-44.70414	-8.654019E-009	0.0007089	6
	49	245	3.75601	44690.35	-45343.78	1	63665.42	-45.41582	-8.053608E-009	0.0006374	6
	50	252	3.004808	49750.98	-51551.55	1	71643.02	-46.01828	-8.690528E-009	0.0006362	6
	51	258	2.372217	55952.6	-58992.71	1	81307.03	-46.51503	-1.115948E-008	0.0006941	6
	52	262	1.878005	63190.26	-67362.19	1	92361.64	-46.83032	-1.152055E-008	0.0006775	6
	53	267	1.512097	70760.49	-76024.52	1	103859.4	-47.05387	-9.648534E-009	0.0005721	6
	54	272	1.201923	80006.37	-86419.94	1	117768.5	-47.20692	-1.084013E-008	0.000687	6
	55	278	0.956633	90519.29	-97958	1	133377.3	-47.26014	-1.192824E-008	3.115022E-005	6
