EXPLAIN
TAG	EISPOT
TITLE	LABEL	Potentiostatic EIS	Test Identifier
DATE	LABEL	3/1/2021	Date
TIME	LABEL	1:38:10	Time
NOTES	NOTES	1	Notes...
	
PSTAT	PSTAT	REF3000-16137	Potentiostat
VDC	POTEN	0.00000E+000	T	DC Voltage (V)
FREQINIT	QUANT	3.00000E+005	Initial Freq. (Hz)
FREQFINAL	QUANT	1.00000E+000	Final Freq. (Hz)
PTSPERDEC	QUANT	1.00000E+001	Points/decade
VAC	QUANT	5.00000E+001	AC Voltage (mV rms)
AREA	QUANT	1.00000E+000	Sample Area (cm^2)
SPEED	SELECTOR	2	Optimize for:
ZGUESS	QUANT	1.00000E+003	Estimated Z (ohms)
EOC	QUANT	0	Open Circuit (V)
SEQUENCER	TOGGLE	TRUE	Run as Sequence
PSTATMODEL	IQUANT	5	Pstat Model
PSTATSECTION	LABEL	REF3000-16137	Pstat Section
PSTATSERIALNO	LABEL	16137	Pstat Serial Number
CTRLMODE	IQUANT	1	Control Mode
IESTAB	IQUANT	0	I/E Stability
CASPEED	IQUANT	1	Control Amp Speed
CONVENTION	IQUANT	1	Current Convention
ICHRANGE	IQUANT	2	Ich Range
ICHRANGEMODE	TOGGLE	F	Ich Auto Range
ICHOFFSETENABLE	TOGGLE	T	Ich Offset Enable
ICHOFFSET	QUANT	0	Ich Offset (V)
ICHFILTER	IQUANT	3	Ich Filter
VCHRANGE	IQUANT	2	Vch Range
VCHRANGEMODE	TOGGLE	F	Vch Auto Range
VCHOFFSETENABLE	TOGGLE	T	Vch Offset Enable
VCHOFFSET	QUANT	0	Vch Offset (V)
VCHFILTER	IQUANT	3	Vch Filter
ACHRANGE	IQUANT	2	Ach Range
ACHOFFSETENABLE	TOGGLE	F	Ach Offset Enable
ACHOFFSET	QUANT	0	Ach Offset (V)
ACHFILTER	IQUANT	3	Ach Filter
IERANGELOWERLIMIT	IQUANT	2	I/E Range Lower Limit
IERANGEMODE	TOGGLE	F	I/E AutoRange
IERANGE	IQUANT	11	I/E Range
POSFEEDENABLE	TOGGLE	F	Positive Feedback IR Comp
POSFEEDRESISTANCE	QUANT	0	Positive Feedback Resistance (ohm)
ACHSELECT	IQUANT	0	Ach Select
CABLEID	IQUANT	13	Cable ID
DCCALDATE	LABEL	7/31/2020	DC Calibration Date
ACCALDATE	LABEL	7/31/2020	AC Calibration Date
THERMOSELECT	IQUANT	1	Thermo Select
FRAMEWORKVERSION	QUANT	6.33	Framework Version
INSTRUMENTVERSION	LABEL	3.50	Instrument Version
COMPLIANCEVOLTAGE	IQUANT	0	Compliance Voltage
ZCURVE	TABLE
	Pt	Time	Freq	Zreal	Zimag	Zsig	Zmod	Zphz	Idc	Vdc	IERange
	#	s	Hz	ohm	ohm	V	ohm	°	A	V	#
	0	14	300046.9	971.914	-2430.977	1	2618.066	-68.20827	-2.034773E-005	0.0015383	9
	1	28	238359.4	1362.624	-2838.368	1	3148.504	-64.35559	-2.004628E-005	0.0015215	9
	2	42	189328.1	1768.874	-3231.759	1	3684.18	-61.30631	2.72756E-005	-0.0019273	9
	3	49	150421.9	2316.424	-3640.533	1	4315.009	-57.53193	2.492019E-005	0.0010365	9
	4	57	119484.4	3154.932	-4049.219	1	5133.203	-52.07621	8.978245E-005	-0.0024826	9
	5	66	94921.88	4154.176	-4214.92	1	5918	-45.41586	-1.062664E-005	-0.001482	8
	6	74	75421.88	5027.434	-4298.646	1	6614.639	-40.53169	-1.680145E-005	0.0012475	8
	7	81	59859.37	5900.649	-4272.924	1	7285.296	-35.90998	2.612471E-005	-0.0055003	8
	8	89	47578.12	6894.518	-4054.047	1	7998.104	-30.45596	-2.379254E-005	0.0056441	8
	9	97	37828.12	7440.89	-3742.814	1	8329.195	-26.70268	2.614007E-005	-0.0054767	8
	10	106	30046.88	8094.762	-3401.401	1	8780.359	-22.79204	-2.516499E-006	-0.0044189	8
	11	115	23859.38	8963.7	-2604.339	1	9334.372	-16.20085	-1.47708E-006	0.0183152	7
	12	119	18984.38	9211.132	-2345.075	1	9504.96	-14.28357	5.5965E-006	-0.0085026	7
	13	122	15046.87	9473.363	-2097.396	1	9702.77	-12.48387	4.144504E-006	-0.0006602	7
	14	126	11953.13	9731.38	-1957.785	1	9926.36	-11.37507	4.179733E-006	-0.0007551	7
	15	130	9515.62	9929.65	-1815.449	1	10094.25	-10.36102	-6.211437E-006	0.0162924	7
	16	134	7546.875	10133.91	-1741.442	1	10282.45	-9.75065	5.888899E-006	-0.022946	7
	17	137	5928.309	10221.58	-1631.704	1	10351	-9.069781	6.421049E-006	-0.0156477	7
	18	142	4733.456	10483.92	-1661.029	1	10614.69	-9.002875	5.827548E-006	-0.0227835	7
	19	146	3796.875	10634.13	-1641.744	1	10760.12	-8.776286	4.15738E-006	-0.0005885	7
	20	150	2987.132	10859.8	-1728.43	1	10996.49	-9.04326	-4.472614E-006	0.0033358	7
	21	154	2390.625	10972.09	-1731.729	1	11107.91	-8.969026	2.998075E-006	-0.0203666	7
	22	158	1884.191	11320.05	-1898.798	1	11478.19	-9.52202	5.827512E-006	-0.0228084	7
	23	163	1516.544	11381.02	-2041.666	1	11562.7	-10.17024	2.370399E-006	0.00699	7
	24	167	1193.986	11730.2	-2212.058	1	11936.95	-10.67931	6.438833E-006	-0.0157042	7
	25	171	946.5144	12045.42	-2548.93	1	12312.15	-11.9481	-5.633768E-006	0.0105487	7
	26	174	751.7689	12332.67	-2731.212	1	12631.48	-12.48727	-4.541498E-006	0.0034629	7
	27	177	597.4265	12648.55	-2915.369	1	12980.19	-12.97945	-1.42456E-006	0.0182531	7
	28	179	477.4305	12958.12	-3370.782	1	13389.37	-14.58113	-4.430142E-008	0.000589	7
	29	181	376.6741	13367.65	-3788.055	1	13894	-15.82139	-5.128339E-008	0.0006556	7
	30	184	298.2954	13816.05	-4258.082	1	14457.34	-17.1292	-5.092663E-008	0.0006709	7
	31	186	237.7717	14307.11	-4789.066	1	15087.36	-18.50711	-4.966176E-008	0.0006329	7
	32	190	189.0121	14866.73	-5400.604	1	15817.27	-19.96445	-5.293559E-008	0.0006463	7
	33	192	150.2404	15487.82	-6103.367	1	16647.04	-21.50817	-4.93196E-008	0.0006311	7
	34	194	119.1737	16189.75	-6903.172	1	17600.05	-23.09299	-5.088962E-008	0.0006521	7
	35	197	95.0169	16971.92	-7818.468	1	18686.21	-24.73414	-4.491939E-008	0.0005936	7
	36	199	75.60484	17857.74	-8872.683	1	19940.5	-26.42065	-4.431379E-008	0.0006343	7
	37	202	54.50582	19278.53	-10634.58	1	22017.18	-28.88237	-5.100583E-008	0.0006635	7
	38	204	45.95588	20193.11	-11716.83	1	23346.22	-30.12397	-4.066054E-008	0.000589	7
	39	209	37.20238	21398.06	-13208.51	1	25146.41	-31.68604	-4.986907E-008	0.0006597	7
	40	211	30.04808	22784.15	-14909.6	1	27228.91	-33.20013	-4.471341E-008	0.0005869	7
	41	213	23.91582	24412.95	-16977.01	1	29735.69	-34.81514	-4.545042E-008	0.0006552	7
	42	216	18.60119	26533.78	-19587.44	1	32980.44	-36.43503	-4.586006E-008	0.0005924	7
	43	218	15.02404	28576.63	-22189.67	1	36180.18	-37.82923	-4.857729E-008	0.0006106	7
	44	220	12.01923	31093.29	-25221.99	1	40036.75	-39.04797	-1.514066E-008	0.0007047	6
	45	223	9.450605	34066.56	-28981.09	1	44726.21	-40.38847	-7.009318E-009	0.0006478	6
	46	227	7.512019	37358.11	-33031.81	1	49867.12	-41.48291	-1.292985E-008	0.0007089	6
	47	230	5.978954	41118.45	-37682.5	1	55773.63	-42.50333	-1.011702E-008	0.0007084	6
	48	234	4.734848	45519.07	-43035.23	1	62641.98	-43.39335	-1.224405E-008	0.0006357	6
	49	237	3.75601	50582.99	-49112.2	1	70502.81	-44.15478	-7.973171E-009	0.0007094	6
	50	243	3.004808	56174.39	-55735.56	1	79132.9	-44.77533	-7.823863E-009	0.0006766	6
	51	249	2.372217	63072.78	-63619.64	1	89585.91	-45.24731	-8.68918E-009	0.0005943	6
	52	253	1.878005	70777.61	-72624.61	1	101409.1	-45.73792	-6.465915E-009	0.0006701	6
	53	258	1.512097	78911.41	-81782.76	1	113646.1	-46.02367	-6.973359E-009	0.0006324	6
	54	263	1.201923	89080.59	-92838.59	1	128663.7	-46.18342	-7.863137E-009	0.0006959	6
	55	270	0.956633	100687.1	-105138.8	1	145574.9	-46.23903	-1.247759E-008	2.755833E-005	6
