EXPLAIN
TAG	EISPOT
TITLE	LABEL	Potentiostatic EIS	Test Identifier
DATE	LABEL	3/1/2021	Date
TIME	LABEL	2:57:20	Time
NOTES	NOTES	1	Notes...
	
PSTAT	PSTAT	REF3000-16137	Potentiostat
VDC	POTEN	0.00000E+000	T	DC Voltage (V)
FREQINIT	QUANT	3.00000E+005	Initial Freq. (Hz)
FREQFINAL	QUANT	1.00000E+000	Final Freq. (Hz)
PTSPERDEC	QUANT	1.00000E+001	Points/decade
VAC	QUANT	5.00000E+001	AC Voltage (mV rms)
AREA	QUANT	1.00000E+000	Sample Area (cm^2)
SPEED	SELECTOR	2	Optimize for:
ZGUESS	QUANT	1.00000E+003	Estimated Z (ohms)
EOC	QUANT	0	Open Circuit (V)
SEQUENCER	TOGGLE	TRUE	Run as Sequence
PSTATMODEL	IQUANT	5	Pstat Model
PSTATSECTION	LABEL	REF3000-16137	Pstat Section
PSTATSERIALNO	LABEL	16137	Pstat Serial Number
CTRLMODE	IQUANT	1	Control Mode
IESTAB	IQUANT	0	I/E Stability
CASPEED	IQUANT	1	Control Amp Speed
CONVENTION	IQUANT	1	Current Convention
ICHRANGE	IQUANT	2	Ich Range
ICHRANGEMODE	TOGGLE	F	Ich Auto Range
ICHOFFSETENABLE	TOGGLE	T	Ich Offset Enable
ICHOFFSET	QUANT	0	Ich Offset (V)
ICHFILTER	IQUANT	3	Ich Filter
VCHRANGE	IQUANT	2	Vch Range
VCHRANGEMODE	TOGGLE	F	Vch Auto Range
VCHOFFSETENABLE	TOGGLE	T	Vch Offset Enable
VCHOFFSET	QUANT	0	Vch Offset (V)
VCHFILTER	IQUANT	3	Vch Filter
ACHRANGE	IQUANT	2	Ach Range
ACHOFFSETENABLE	TOGGLE	F	Ach Offset Enable
ACHOFFSET	QUANT	0	Ach Offset (V)
ACHFILTER	IQUANT	3	Ach Filter
IERANGELOWERLIMIT	IQUANT	2	I/E Range Lower Limit
IERANGEMODE	TOGGLE	F	I/E AutoRange
IERANGE	IQUANT	11	I/E Range
POSFEEDENABLE	TOGGLE	F	Positive Feedback IR Comp
POSFEEDRESISTANCE	QUANT	0	Positive Feedback Resistance (ohm)
ACHSELECT	IQUANT	0	Ach Select
CABLEID	IQUANT	13	Cable ID
DCCALDATE	LABEL	7/31/2020	DC Calibration Date
ACCALDATE	LABEL	7/31/2020	AC Calibration Date
THERMOSELECT	IQUANT	1	Thermo Select
FRAMEWORKVERSION	QUANT	6.33	Framework Version
INSTRUMENTVERSION	LABEL	3.50	Instrument Version
COMPLIANCEVOLTAGE	IQUANT	0	Compliance Voltage
ZCURVE	TABLE
	Pt	Time	Freq	Zreal	Zimag	Zsig	Zmod	Zphz	Idc	Vdc	IERange
	#	s	Hz	ohm	ohm	V	ohm	°	A	V	#
	0	15	300046.9	78.67658	-4399.64	1	4400.343	-88.97552	-0.0001059	0.0037647	9
	1	31	238359.4	233.9978	-5459.183	1	5464.196	-87.54562	-2.889068E-005	-0.0011082	9
	2	47	189328.1	554.8933	-7397.21	1	7417.994	-85.71006	1.994142E-005	-0.0008977	9
	3	54	150421.9	-280.1676	-8375.481	1	8380.166	-91.91589	1.815422E-005	-0.0019464	9
	4	62	119484.4	810.9697	-10253.42	1	10285.44	-85.47774	-8.444036E-005	0.0220693	8
	5	69	94921.88	1016.016	-12661.04	1	12701.74	-85.41199	-9.585699E-006	-0.0019897	8
	6	78	75421.88	1371.221	-15709.04	1	15768.77	-85.01138	8.713057E-006	0.0041234	8
	7	86	59859.37	1595.008	-19674.96	1	19739.51	-85.36529	-2.445624E-005	0.0110151	8
	8	95	47578.12	4856.257	-25807.82	1	26260.74	-79.34326	2.778504E-006	0.0080577	7
	9	102	37828.12	5624.686	-31753.72	1	32248.04	-79.95512	-5.251897E-006	0.0262761	7
	10	110	30046.88	6341.431	-39302.69	1	39811	-80.8344	-3.39914E-006	-0.004848	7
	11	117	23859.38	7162.411	-48162.95	1	48692.61	-81.54142	6.557477E-006	-0.0102367	7
	12	123	18984.38	5931.816	-59873.93	1	60167.05	-84.34207	1.662594E-005	-0.0092265	8
	13	129	15046.87	10287.03	-75464.38	1	76162.3	-82.23749	6.593447E-006	-0.0104605	7
	14	134	11953.13	11522.87	-93825.02	1	94529.95	-82.99844	-3.365946E-006	-0.0047078	7
	15	140	9515.62	14531.79	-116025.9	1	116932.4	-82.86111	5.00605E-006	-0.0009702	7
	16	145	7546.875	18227.25	-142355.5	1	143517.7	-82.70353	6.754266E-006	-0.026619	7
	17	150	5928.309	13694.22	-168003.7	1	168560.8	-85.34004	-6.407874E-006	0.025562	7
	18	156	4733.456	36213.69	-204489.9	1	207671.8	-79.95745	7.481762E-006	-0.0183061	7
	19	161	3796.875	29658.85	-273694	1	275296.3	-83.81528	6.440481E-006	-0.0099648	7
	20	167	2987.132	24984.27	-323785.5	1	324748	-85.58763	3.407385E-006	-0.0240501	7
	21	174	2390.625	77048.29	-497498.4	1	503429.3	-81.19646	2.651216E-005	-0.0090846	8
	22	181	1884.191	-2046.184	-557805.1	1	557808.8	-90.21017	-2.615408E-005	0.007616	8
	23	190	1516.544	284260.9	-247897.2	1	377170.1	-41.09092	2.625727E-005	-0.0051515	8
	24	198	1193.986	-89467.55	-405664.2	1	415412.9	-102.4372	-1.829642E-006	0.0076846	8
	25	207	946.5144	186835.8	-1006535	1	1023729	-79.48428	7.710899E-009	0.0165573	6
	26	210	751.7689	317521.9	-1121412	1	1165497	-74.1908	-6.388883E-007	0.0099371	6
	27	214	597.4265	245852.6	-1466856	1	1487316	-80.48537	7.094679E-007	-0.0265653	6
	28	218	477.4305	405598	-1801588	1	1846681	-77.31233	-7.044002E-009	0.0006724	6
	29	223	376.6741	773949.4	-2244004	1	2373721	-70.97086	-6.662111E-010	0.0006058	5
	30	225	298.2954	689216.9	-2726822	1	2812574	-75.81531	-7.126877E-009	0.0007084	6
	31	229	237.7717	1132684	-3283597	1	3473469	-70.96801	-7.953094E-010	0.000704	5
	32	233	189.0121	1181447	-4037414	1	4206725	-73.68923	-6.519289E-009	0.0006289	6
	33	237	150.2404	1867408	-4918214	1	5260801	-69.20862	-6.493576E-010	0.0006299	5
	34	241	119.1737	2306875	-5438508	1	5907541	-67.0146	-8.434664E-010	0.000707	5
	35	245	95.0169	2944853	-7063694	1	7652969	-67.36875	-7.159819E-010	0.000624	5
	36	249	75.60484	3606815	-8638785	1	9361502	-67.33878	-7.432565E-010	0.0006774	5
	37	252	54.50582	5956584	-1.050615E+007	1	1.207726E+007	-60.44844	-7.552504E-010	0.0007027	5
	38	255	45.95588	9.786165E+006	-1.106538E+007	1	1.477199E+007	-48.51063	-6.649021E-011	0.0006522	4
	39	257	37.20238	9.967114E+006	-1.192704E+007	1	1.554341E+007	-50.11537	-1.3346E-011	0.0006784	4
	40	260	30.04808	1.303626E+007	-1.312868E+007	1	1.850152E+007	-45.20238	-9.087346E-011	0.0006594	4
	41	263	23.91582	1.72429E+007	-1.395624E+007	1	2.21832E+007	-38.98639	3.209653E-011	0.0007189	4
	42	266	18.60119	2.029351E+007	-2.170567E+007	1	2.971468E+007	-46.92576	3.024034E-010	0.0006135	4
	43	268	15.02404	1.992218E+007	-1.433606E+007	1	2.454416E+007	-35.73891	-8.021823E-010	0.0006715	5
	44	272	12.01923	2.284788E+007	-1.458752E+007	1	2.710759E+007	-32.55671	-7.294682E-010	0.0006204	5
	45	275	9.450605	2.630209E+007	-1.319923E+007	1	2.942821E+007	-26.64896	-6.470331E-010	0.0006263	5
	46	280	7.512019	2.814751E+007	-1.369397E+007	1	3.130187E+007	-25.94325	-7.173482E-010	0.0005984	5
	47	284	5.978954	3.059736E+007	-1.181844E+007	1	3.280051E+007	-21.11939	-8.0052E-010	0.0006766	5
	48	289	4.734848	3.326781E+007	-1.211383E+007	1	3.540469E+007	-20.00812	-6.871777E-010	0.0006376	5
	49	296	3.75601	3.50703E+007	-1.225366E+007	1	3.71494E+007	-19.25955	-7.156843E-010	0.000641	5
	50	302	3.004808	3.755163E+007	-1.098844E+007	1	3.912634E+007	-16.31064	-8.011855E-011	0.0006596	4
	51	310	2.372217	4.22696E+007	-8003044	1	4.302055E+007	-10.7211	-9.077804E-012	0.0007756	3
	52	314	1.878005	4.370271E+007	-8139898	1	4.44543E+007	-10.55079	-1.733216E-011	0.0007079	3
	53	319	1.512097	4.513102E+007	-8386281	1	4.590358E+007	-10.52668	-2.470261E-011	0.0008278	3
	54	324	1.201923	4.684356E+007	-8696362	1	4.764395E+007	-10.51705	-1.393887E-011	0.0006996	3
	55	331	0.956633	4.882381E+007	-9167607	1	4.967705E+007	-10.63455	-4.168748E-011	0.0000952	3
