EXPLAIN
TAG	EISPOT
TITLE	LABEL	Potentiostatic EIS	Test Identifier
DATE	LABEL	3/1/2021	Date
TIME	LABEL	1:57:38	Time
NOTES	NOTES	1	Notes...
	
PSTAT	PSTAT	REF3000-16137	Potentiostat
VDC	POTEN	0.00000E+000	T	DC Voltage (V)
FREQINIT	QUANT	3.00000E+005	Initial Freq. (Hz)
FREQFINAL	QUANT	1.00000E+000	Final Freq. (Hz)
PTSPERDEC	QUANT	1.00000E+001	Points/decade
VAC	QUANT	5.00000E+001	AC Voltage (mV rms)
AREA	QUANT	1.00000E+000	Sample Area (cm^2)
SPEED	SELECTOR	2	Optimize for:
ZGUESS	QUANT	1.00000E+003	Estimated Z (ohms)
EOC	QUANT	0	Open Circuit (V)
SEQUENCER	TOGGLE	TRUE	Run as Sequence
PSTATMODEL	IQUANT	5	Pstat Model
PSTATSECTION	LABEL	REF3000-16137	Pstat Section
PSTATSERIALNO	LABEL	16137	Pstat Serial Number
CTRLMODE	IQUANT	1	Control Mode
IESTAB	IQUANT	0	I/E Stability
CASPEED	IQUANT	1	Control Amp Speed
CONVENTION	IQUANT	1	Current Convention
ICHRANGE	IQUANT	2	Ich Range
ICHRANGEMODE	TOGGLE	F	Ich Auto Range
ICHOFFSETENABLE	TOGGLE	T	Ich Offset Enable
ICHOFFSET	QUANT	0	Ich Offset (V)
ICHFILTER	IQUANT	3	Ich Filter
VCHRANGE	IQUANT	2	Vch Range
VCHRANGEMODE	TOGGLE	F	Vch Auto Range
VCHOFFSETENABLE	TOGGLE	T	Vch Offset Enable
VCHOFFSET	QUANT	0	Vch Offset (V)
VCHFILTER	IQUANT	3	Vch Filter
ACHRANGE	IQUANT	2	Ach Range
ACHOFFSETENABLE	TOGGLE	F	Ach Offset Enable
ACHOFFSET	QUANT	0	Ach Offset (V)
ACHFILTER	IQUANT	3	Ach Filter
IERANGELOWERLIMIT	IQUANT	2	I/E Range Lower Limit
IERANGEMODE	TOGGLE	F	I/E AutoRange
IERANGE	IQUANT	11	I/E Range
POSFEEDENABLE	TOGGLE	F	Positive Feedback IR Comp
POSFEEDRESISTANCE	QUANT	0	Positive Feedback Resistance (ohm)
ACHSELECT	IQUANT	0	Ach Select
CABLEID	IQUANT	13	Cable ID
DCCALDATE	LABEL	7/31/2020	DC Calibration Date
ACCALDATE	LABEL	7/31/2020	AC Calibration Date
THERMOSELECT	IQUANT	1	Thermo Select
FRAMEWORKVERSION	QUANT	6.33	Framework Version
INSTRUMENTVERSION	LABEL	3.50	Instrument Version
COMPLIANCEVOLTAGE	IQUANT	0	Compliance Voltage
ZCURVE	TABLE
	Pt	Time	Freq	Zreal	Zimag	Zsig	Zmod	Zphz	Idc	Vdc	IERange
	#	s	Hz	ohm	ohm	V	ohm	°	A	V	#
	0	22	300046.9	773.3962	-2746.321	1	2853.142	-74.27216	9.155984E-005	-0.0027902	9
	1	38	238359.4	1050.192	-3289.278	1	3452.862	-72.2929	8.336352E-005	-0.0033876	9
	2	53	189328.1	1274.496	-3912.11	1	4114.48	-71.95531	-3.047192E-007	0.0016894	9
	3	62	150421.9	1890.485	-4682.834	1	5050.037	-68.01581	5.037302E-005	0.0001308	9
	4	72	119484.4	2765.969	-5580.07	1	6227.982	-63.63298	8.004101E-006	-0.0172498	8
	5	79	94921.88	3828.26	-6302.356	1	7373.959	-58.72412	-1.785839E-005	0.0109357	8
	6	86	75421.88	4939.137	-7216.955	1	8745.257	-55.61305	1.508114E-005	-0.0089118	8
	7	95	59859.37	6398.492	-7941.081	1	10198.11	-51.14001	-2.340041E-007	0.0071366	8
	8	104	47578.12	9409.605	-7906.94	1	12290.66	-40.04051	1.042893E-006	-0.016919	7
	9	110	37828.12	10972.08	-7951.359	1	13550.3	-35.93047	3.026163E-006	-0.0212416	7
	10	115	30046.88	12514.52	-7789.335	1	14740.66	-31.89911	4.667346E-006	-0.0233117	7
	11	120	23859.38	13993.25	-7393.093	1	15826.21	-27.84896	1.104128E-006	-0.0170303	7
	12	124	18984.38	15244.72	-6856.227	1	16715.54	-24.21556	-6.31728E-006	0.0212426	7
	13	129	15046.87	16250.12	-6239.574	1	17406.86	-21.00534	6.001039E-006	-0.0237696	7
	14	133	11953.13	17230.81	-5612.041	1	18121.69	-18.04033	-1.466331E-006	0.0189286	7
	15	137	9515.62	17994.91	-5065.027	1	18694.15	-15.72032	5.840244E-006	-0.0093294	7
	16	141	7546.875	18678.3	-4535.548	1	19221.08	-13.64865	-5.48556E-006	0.0222073	7
	17	146	5928.309	19209.33	-4080.998	1	19638.05	-11.99409	4.644065E-006	-0.0232372	7
	18	150	4733.456	19646.9	-3881.129	1	20026.58	-11.17457	6.676866E-006	-0.016524	7
	19	154	3796.875	19994.59	-3635.717	1	20322.45	-10.30578	-5.93212E-006	0.0111995	7
	20	158	2987.132	20503.59	-3578.022	1	20813.44	-9.89884	6.676184E-006	-0.0165174	7
	21	163	2390.625	20797.19	-3501.726	1	21089.93	-9.55753	6.68149E-006	-0.0165837	7
	22	167	1884.191	21390.98	-3567.221	1	21686.38	-9.467682	-6.338008E-006	0.021034	7
	23	171	1516.544	21386.91	-3704.855	1	21705.43	-9.82782	-6.349663E-006	0.021077	7
	24	175	1193.986	22078.36	-3963.212	1	22431.25	-10.17659	-4.730703E-006	0.0038335	7
	25	180	946.5144	22966.98	-4020.402	1	23316.21	-9.9291	4.617931E-006	-0.0230967	7
	26	182	751.7689	23510.91	-4248.451	1	23891.67	-10.24289	3.006831E-006	-0.0212314	7
	27	185	597.4265	25454.23	-6439.267	1	26256.09	-14.19652	-2.592847E-005	0.00791	8
	28	190	477.4305	24035.68	-5205.746	1	24592.96	-12.2206	-1.628263E-007	0.0006406	8
	29	193	376.6741	24748.83	-5748.785	1	25407.74	-13.07705	-4.498149E-008	0.0005791	7
	30	196	298.2954	25462.93	-6393.551	1	26253.34	-14.09514	-5.013899E-008	0.0006718	7
	31	198	237.7717	26214.65	-7131.327	1	27167.33	-15.21824	-5.204867E-008	0.0006526	7
	32	200	189.0121	27077.33	-7982.698	1	28229.51	-16.4261	-4.850342E-008	0.0006529	7
	33	203	150.2404	28029.74	-8969.227	1	29429.8	-17.74413	-5.256462E-008	0.000663	7
	34	205	119.1737	29111.18	-10095.45	1	30812	-19.126	-5.242926E-008	0.0006675	7
	35	208	95.0169	30283.77	-11362.14	1	32345.09	-20.56554	-5.018859E-008	0.0006748	7
	36	210	75.60484	31621.43	-12819.07	1	34121.01	-22.06724	-4.730513E-008	0.0005872	7
	37	213	54.50582	33824.9	-15233.31	1	37096.87	-24.2448	-4.239549E-008	0.0006059	7
	38	215	45.95588	35230.07	-16749.15	1	39008.87	-25.42744	-1.026783E-008	0.0007104	6
	39	218	37.20238	37034.7	-18804.92	1	41535.46	-26.91985	-4.737586E-009	0.000621	6
	40	220	30.04808	39043.72	-21169.45	1	44413.49	-28.46648	-8.071226E-009	0.0006476	6
	41	223	23.91582	41482.88	-24001.19	1	47925.85	-30.05284	-1.012142E-008	0.000624	6
	42	225	18.60119	44490.3	-27618.85	1	52365.91	-31.83133	-6.047878E-009	0.0006821	6
	43	227	15.02404	47456.66	-31190.62	1	56788.99	-33.31469	-4.959483E-009	0.0006298	6
	44	230	12.01923	50944.87	-35357.12	1	62012.14	-34.7617	-8.208992E-009	0.0006715	6
	45	232	9.450605	55136.16	-40508.36	1	68417.27	-36.30461	-2.886453E-009	0.0007134	6
	46	235	7.512019	59942.36	-46099.52	1	75619.13	-37.5626	-7.926769E-009	0.0006382	6
	47	238	5.978954	65261.21	-52466.59	1	83736.3	-38.79746	-7.9271E-009	0.0006451	6
	48	242	4.734848	71510.21	-59948.47	1	93314.15	-39.97379	-3.63859E-009	0.0006522	6
	49	246	3.75601	78647.29	-68208.05	1	104104.4	-40.93396	-8.719396E-009	0.0006602	6
	50	251	3.004808	86571.61	-77383.68	1	116115.8	-41.79254	-7.321349E-009	0.0006592	6
	51	258	2.372217	96108.1	-88350.59	1	130547.3	-42.5918	-8.816089E-009	0.0006784	6
	52	262	1.878005	107117.7	-100717.5	1	147031.4	-43.23617	-9.342204E-009	0.0006571	6
	53	266	1.512097	118541.4	-113587.3	1	164177.2	-43.77737	-8.250232E-009	0.0005814	6
	54	272	1.201923	132468.5	-129059.3	1	184943.8	-44.25315	-8.669072E-009	0.0006657	6
	55	278	0.956633	148340.9	-146333.6	1	208371.2	-44.60971	-8.932425E-009	6.057763E-006	6
