EXPLAIN
TAG	EISPOT
TITLE	LABEL	Potentiostatic EIS	Test Identifier
DATE	LABEL	3/1/2021	Date
TIME	LABEL	1:42:49	Time
NOTES	NOTES	1	Notes...
	
PSTAT	PSTAT	REF3000-16137	Potentiostat
VDC	POTEN	0.00000E+000	T	DC Voltage (V)
FREQINIT	QUANT	3.00000E+005	Initial Freq. (Hz)
FREQFINAL	QUANT	1.00000E+000	Final Freq. (Hz)
PTSPERDEC	QUANT	1.00000E+001	Points/decade
VAC	QUANT	5.00000E+001	AC Voltage (mV rms)
AREA	QUANT	1.00000E+000	Sample Area (cm^2)
SPEED	SELECTOR	2	Optimize for:
ZGUESS	QUANT	1.00000E+003	Estimated Z (ohms)
EOC	QUANT	0	Open Circuit (V)
SEQUENCER	TOGGLE	TRUE	Run as Sequence
PSTATMODEL	IQUANT	5	Pstat Model
PSTATSECTION	LABEL	REF3000-16137	Pstat Section
PSTATSERIALNO	LABEL	16137	Pstat Serial Number
CTRLMODE	IQUANT	1	Control Mode
IESTAB	IQUANT	0	I/E Stability
CASPEED	IQUANT	1	Control Amp Speed
CONVENTION	IQUANT	1	Current Convention
ICHRANGE	IQUANT	2	Ich Range
ICHRANGEMODE	TOGGLE	F	Ich Auto Range
ICHOFFSETENABLE	TOGGLE	T	Ich Offset Enable
ICHOFFSET	QUANT	0	Ich Offset (V)
ICHFILTER	IQUANT	3	Ich Filter
VCHRANGE	IQUANT	2	Vch Range
VCHRANGEMODE	TOGGLE	F	Vch Auto Range
VCHOFFSETENABLE	TOGGLE	T	Vch Offset Enable
VCHOFFSET	QUANT	0	Vch Offset (V)
VCHFILTER	IQUANT	3	Vch Filter
ACHRANGE	IQUANT	2	Ach Range
ACHOFFSETENABLE	TOGGLE	F	Ach Offset Enable
ACHOFFSET	QUANT	0	Ach Offset (V)
ACHFILTER	IQUANT	3	Ach Filter
IERANGELOWERLIMIT	IQUANT	2	I/E Range Lower Limit
IERANGEMODE	TOGGLE	F	I/E AutoRange
IERANGE	IQUANT	11	I/E Range
POSFEEDENABLE	TOGGLE	F	Positive Feedback IR Comp
POSFEEDRESISTANCE	QUANT	0	Positive Feedback Resistance (ohm)
ACHSELECT	IQUANT	0	Ach Select
CABLEID	IQUANT	13	Cable ID
DCCALDATE	LABEL	7/31/2020	DC Calibration Date
ACCALDATE	LABEL	7/31/2020	AC Calibration Date
THERMOSELECT	IQUANT	1	Thermo Select
FRAMEWORKVERSION	QUANT	6.33	Framework Version
INSTRUMENTVERSION	LABEL	3.50	Instrument Version
COMPLIANCEVOLTAGE	IQUANT	0	Compliance Voltage
ZCURVE	TABLE
	Pt	Time	Freq	Zreal	Zimag	Zsig	Zmod	Zphz	Idc	Vdc	IERange
	#	s	Hz	ohm	ohm	V	ohm	°	A	V	#
	0	14	300046.9	925.8185	-2502.542	1	2668.306	-69.69799	-0.0001107	0.0037937	9
	1	36	238359.4	1289.594	-2951.647	1	3221.068	-66.39916	8.442834E-005	-0.0033836	9
	2	53	189328.1	1718.718	-3401.788	1	3811.319	-63.19528	2.372103E-005	0.0010485	9
	3	60	150421.9	2319.729	-4001.445	1	4625.225	-59.89815	-1.360288E-005	0.0017646	9
	4	69	119484.4	3227.192	-4363.265	1	5427.048	-53.51234	1.747727E-005	-0.0169055	8
	5	77	94921.88	4170.819	-4674.292	1	6264.562	-48.25782	-1.662735E-005	0.0011705	8
	6	84	75421.88	5106.353	-4907.881	1	7082.523	-43.8646	2.119413E-005	-0.0094017	8
	7	92	59859.37	6110.965	-5066.545	1	7938.122	-39.66182	2.912528E-005	-0.0008713	9
	8	100	47578.12	7166.19	-4830.396	1	8642.164	-33.98207	2.529579E-005	-0.0088818	8
	9	109	37828.12	7953.666	-4647.154	1	9211.777	-30.29682	1.46544E-005	-0.0087062	8
	10	118	30046.88	8820.927	-4171.445	1	9757.55	-25.30962	2.105465E-005	-0.0092618	8
	11	126	23859.38	9480.69	-3751.991	1	10196.12	-21.59122	1.484954E-005	-0.0087628	8
	12	133	18984.38	10125.07	-3489.446	1	10709.5	-19.0157	2.55271E-005	-0.0009583	9
	13	139	15046.87	10453.29	-3020.404	1	10880.9	-16.11628	-1.795464E-005	0.0109508	8
	14	146	11953.13	10803.42	-2766.653	1	11152.05	-14.3642	2.133747E-005	-0.009363	8
	15	152	9515.62	11133.39	-2483.238	1	11406.97	-12.57368	-1.04414E-005	-0.0015685	8
	16	159	7546.875	11500.77	-2070.905	1	11685.73	-10.20767	4.296124E-007	0.0136579	7
	17	163	5928.309	11821.52	-1978.915	1	11986.01	-9.50316	-3.132127E-006	0.0215179	7
	18	167	4733.456	11956	-1928.177	1	12110.48	-9.161367	1.093103E-006	-0.0166214	7
	19	172	3796.875	12147.13	-1924.06	1	12298.57	-9.000659	-5.759579E-006	0.010734	7
	20	176	2987.132	12367.52	-1998.774	1	12528	-9.180462	4.636073E-007	0.0135582	7
	21	180	2390.625	12600.11	-2018.732	1	12760.8	-9.102311	4.22099E-006	-0.0007908	7
	22	184	1884.191	12904.18	-2151.637	1	13082.34	-9.466383	4.219118E-006	-0.0007734	7
	23	189	1516.544	13007	-2289.414	1	13206.94	-9.98261	2.415472E-006	0.006974	7
	24	193	1193.986	13404.94	-2396.481	1	13617.48	-10.13603	5.865998E-006	-0.0229462	7
	25	197	946.5144	13675.36	-2756.066	1	13950.32	-11.39448	1.040724E-006	-0.0165506	7
	26	200	751.7689	13911.07	-3089.572	1	14250.03	-12.52184	5.592901E-006	-0.0084679	7
	27	203	597.4265	14330.88	-3256.86	1	14696.31	-12.80366	6.579889E-006	-0.0210342	7
	28	205	477.4305	14720.31	-3662.309	1	15169.04	-13.97114	-5.203776E-008	0.0006708	7
	29	207	376.6741	15164.97	-4104.57	1	15710.63	-15.14488	-4.491077E-008	0.0005824	7
	30	210	298.2954	15660.96	-4608.452	1	16324.93	-16.39724	-5.187196E-008	0.0006694	7
	31	212	237.7717	16191.93	-5174.569	1	16998.67	-17.72269	-4.760366E-008	0.0006576	7
	32	215	189.0121	16796.82	-5826.797	1	17778.78	-19.1316	-4.267934E-008	0.0005953	7
	33	217	150.2404	17479.02	-6579.566	1	18676.37	-20.62767	-5.220835E-008	0.0006565	7
	34	219	119.1737	18239.39	-7449.417	1	19702.01	-22.21631	-4.613455E-008	0.0006059	7
	35	222	95.0169	19088.53	-8414.486	1	20860.86	-23.78855	-4.54222E-008	0.0005822	7
	36	224	75.60484	20053.48	-9529.93	1	22202.74	-25.41827	-4.342234E-008	0.0005789	7
	37	227	54.50582	21587.17	-11399.43	1	24412.14	-27.83698	-4.909074E-008	0.0006254	7
	38	229	45.95588	22584.69	-12563.02	1	25843.71	-29.08556	-4.49765E-008	0.0006012	7
	39	232	37.20238	23872.66	-14138.18	1	27745.12	-30.63542	-4.565857E-008	0.0006123	7
	40	234	30.04808	25366.63	-15951.03	1	29965	-32.16247	-4.690657E-008	0.0006631	7
	41	236	23.91582	27149.5	-18168.24	1	32667.72	-33.79014	-5.166897E-008	0.0006253	7
	42	239	18.60119	29435.58	-20946.86	1	36127.89	-35.4363	-5.096631E-008	0.0005824	7
	43	241	15.02404	31681.68	-23637.09	1	39527.72	-36.72591	-9.617475E-009	0.0006432	6
	44	243	12.01923	34289.04	-26857.02	1	43554.99	-38.06996	-6.381377E-009	0.0006252	6
	45	246	9.450605	37472.3	-30834.46	1	48527.7	-39.4496	-8.895302E-009	0.0007158	6
	46	248	7.512019	41012.58	-35104.06	1	53984.5	-40.56134	-1.18258E-008	0.0006201	6
	47	254	5.978954	45091.05	-40023.45	1	60291.62	-41.59271	-8.840215E-009	0.0006944	6
	48	258	4.734848	49767.84	-45687.47	1	67558.74	-42.5523	-1.233152E-008	0.0006556	6
	49	261	3.75601	55196.47	-52110.84	1	75909.09	-43.35291	-7.274783E-009	0.0007243	6
	50	267	3.004808	61179.45	-59106	1	85067.29	-44.01245	-8.142831E-009	0.000645	6
	51	273	2.372217	68448.34	-67455.88	1	96101.4	-44.5816	-6.917696E-009	0.0006432	6
	52	277	1.878005	76876.3	-76863.2	1	108710.2	-44.99511	-6.36091E-009	0.0006503	6
	53	282	1.512097	85639.39	-86598.42	1	121792.4	-45.31902	-7.935568E-009	0.0007511	6
	54	287	1.201923	96361.2	-98207.8	1	137587.2	-45.54376	-6.979294E-009	0.0006608	6
	55	293	0.956633	108521.9	-111185.7	1	155368.2	-45.69462	-1.289519E-008	2.993948E-005	6
