EXPLAIN
TAG	EISPOT
TITLE	LABEL	Potentiostatic EIS	Test Identifier
DATE	LABEL	3/1/2021	Date
TIME	LABEL	1:52:49	Time
NOTES	NOTES	1	Notes...
	
PSTAT	PSTAT	REF3000-16137	Potentiostat
VDC	POTEN	0.00000E+000	T	DC Voltage (V)
FREQINIT	QUANT	3.00000E+005	Initial Freq. (Hz)
FREQFINAL	QUANT	1.00000E+000	Final Freq. (Hz)
PTSPERDEC	QUANT	1.00000E+001	Points/decade
VAC	QUANT	5.00000E+001	AC Voltage (mV rms)
AREA	QUANT	1.00000E+000	Sample Area (cm^2)
SPEED	SELECTOR	2	Optimize for:
ZGUESS	QUANT	1.00000E+003	Estimated Z (ohms)
EOC	QUANT	0	Open Circuit (V)
SEQUENCER	TOGGLE	TRUE	Run as Sequence
PSTATMODEL	IQUANT	5	Pstat Model
PSTATSECTION	LABEL	REF3000-16137	Pstat Section
PSTATSERIALNO	LABEL	16137	Pstat Serial Number
CTRLMODE	IQUANT	1	Control Mode
IESTAB	IQUANT	0	I/E Stability
CASPEED	IQUANT	1	Control Amp Speed
CONVENTION	IQUANT	1	Current Convention
ICHRANGE	IQUANT	2	Ich Range
ICHRANGEMODE	TOGGLE	F	Ich Auto Range
ICHOFFSETENABLE	TOGGLE	T	Ich Offset Enable
ICHOFFSET	QUANT	0	Ich Offset (V)
ICHFILTER	IQUANT	3	Ich Filter
VCHRANGE	IQUANT	2	Vch Range
VCHRANGEMODE	TOGGLE	F	Vch Auto Range
VCHOFFSETENABLE	TOGGLE	T	Vch Offset Enable
VCHOFFSET	QUANT	0	Vch Offset (V)
VCHFILTER	IQUANT	3	Vch Filter
ACHRANGE	IQUANT	2	Ach Range
ACHOFFSETENABLE	TOGGLE	F	Ach Offset Enable
ACHOFFSET	QUANT	0	Ach Offset (V)
ACHFILTER	IQUANT	3	Ach Filter
IERANGELOWERLIMIT	IQUANT	2	I/E Range Lower Limit
IERANGEMODE	TOGGLE	F	I/E AutoRange
IERANGE	IQUANT	11	I/E Range
POSFEEDENABLE	TOGGLE	F	Positive Feedback IR Comp
POSFEEDRESISTANCE	QUANT	0	Positive Feedback Resistance (ohm)
ACHSELECT	IQUANT	0	Ach Select
CABLEID	IQUANT	13	Cable ID
DCCALDATE	LABEL	7/31/2020	DC Calibration Date
ACCALDATE	LABEL	7/31/2020	AC Calibration Date
THERMOSELECT	IQUANT	1	Thermo Select
FRAMEWORKVERSION	QUANT	6.33	Framework Version
INSTRUMENTVERSION	LABEL	3.50	Instrument Version
COMPLIANCEVOLTAGE	IQUANT	0	Compliance Voltage
ZCURVE	TABLE
	Pt	Time	Freq	Zreal	Zimag	Zsig	Zmod	Zphz	Idc	Vdc	IERange
	#	s	Hz	ohm	ohm	V	ohm	°	A	V	#
	0	16	300046.9	821.0026	-2675.981	1	2799.093	-72.94376	-0.0001003	0.002167	9
	1	31	238359.4	1128.315	-3208.014	1	3400.654	-70.62232	2.436531E-005	0.0010389	9
	2	47	189328.1	1662.535	-4008.155	1	4339.277	-67.47191	-1.445412E-005	0.0017883	9
	3	55	150421.9	2152.288	-4514.702	1	5001.488	-64.51152	5.114531E-005	0.0001226	9
	4	62	119484.4	2988.311	-5049.495	1	5867.487	-59.38279	-3.869515E-005	0.0220993	8
	5	70	94921.88	3962.688	-5720.3	1	6958.788	-55.28806	-9.684144E-006	0.0095822	8
	6	77	75421.88	5125.502	-6402.286	1	8201.222	-51.32015	2.125003E-005	-0.0094037	8
	7	84	59859.37	6433.012	-6800.021	1	9360.766	-46.58865	-2.325074E-005	0.0108617	8
	8	93	47578.12	8014.473	-6898.866	1	10574.79	-40.7219	2.700817E-005	-0.0075355	8
	9	102	37828.12	9332.462	-6983.923	1	11656.33	-36.80925	-2.585646E-005	0.0098145	8
	10	110	30046.88	10646.63	-6483.553	1	12465.44	-31.34045	-2.100232E-005	0.0033493	8
	11	119	23859.38	11804.21	-5963.302	1	13224.99	-26.80219	-2.122667E-005	0.0034231	8
	12	124	18984.38	13015.6	-5567.258	1	14156.28	-23.15821	1.835299E-005	-0.0002112	8
	13	130	15046.87	13593.39	-4940.964	1	14463.52	-19.97533	-2.607841E-005	0.0079153	8
	14	136	11953.13	14302.1	-4519.608	1	14999.24	-17.53706	-2.249192E-006	-0.0045636	8
	15	142	9515.62	15189.37	-3719.033	1	15638.04	-13.75789	6.593748E-006	-0.0162417	7
	16	147	7546.875	15642.55	-3356.995	1	15998.72	-12.11233	3.087867E-006	-0.0211486	7
	17	151	5928.309	16122.04	-3193.539	1	16435.29	-11.20441	2.518329E-006	0.0068531	7
	18	155	4733.456	16284.02	-2942.482	1	16547.73	-10.24268	-3.142369E-006	0.0218583	7
	19	159	3796.875	16656.64	-2815.786	1	16892.97	-9.59507	-5.639386E-006	0.0225288	7
	20	164	2987.132	16891.47	-2986.752	1	17153.5	-10.0274	6.67276E-006	-0.021339	7
	21	168	2390.625	17231.5	-2834.162	1	17463.02	-9.340134	-1.441857E-006	0.0188321	7
	22	172	1884.191	17625.36	-2704.317	1	17831.62	-8.723052	-4.549489E-006	0.0231736	7
	23	176	1516.544	17810.41	-3081.102	1	18074.95	-9.81471	5.23879E-007	0.0136652	7
	24	181	1193.986	18265.51	-3222.824	1	18547.65	-10.00646	-5.623716E-006	0.0226757	7
	25	185	946.5144	18570.1	-3572.999	1	18910.71	-10.89096	-3.119625E-006	0.0218411	7
	26	188	751.7689	19229.52	-3879.867	1	19617.03	-11.40721	-5.842773E-006	0.0109272	7
	27	190	597.4265	19468.38	-4158.763	1	19907.62	-12.05808	2.510905E-006	0.0068999	7
	28	193	477.4305	20060.46	-4541.328	1	20568.08	-12.75573	-4.840483E-008	0.0006505	7
	29	195	376.6741	20619.34	-5058.813	1	21230.85	-13.78484	-4.481181E-008	0.0006158	7
	30	198	298.2954	21236.72	-5657.249	1	21977.33	-14.91661	-4.984844E-008	0.0006103	7
	31	200	237.7717	21903.84	-6320.267	1	22797.45	-16.09529	-4.494003E-008	0.0006201	7
	32	202	189.0121	22650.71	-7092.398	1	23735.13	-17.3864	-5.19551E-008	0.0006668	7
	33	205	150.2404	23498.3	-7986.103	1	24818.3	-18.77077	-5.096662E-008	0.0006764	7
	34	207	119.1737	24444.61	-9000.213	1	26048.85	-20.21311	-5.275015E-008	0.0006655	7
	35	210	95.0169	25483.17	-10151.94	1	27430.9	-21.72126	-5.143682E-008	0.000671	7
	36	212	75.60484	26683.7	-11485.55	1	29050.6	-23.28865	-5.004397E-008	0.0006108	7
	37	215	54.50582	28666.7	-13710.79	1	31776.8	-25.56098	-4.251025E-008	0.0005916	7
	38	217	45.95588	29767.7	-15065.42	1	33362.89	-26.84396	-4.534959E-008	0.0006501	7
	39	220	37.20238	31353.27	-16929.22	1	35631.82	-28.36686	-4.276865E-008	0.0005746	7
	40	222	30.04808	33274.64	-19019.31	1	38326.7	-29.75167	-7.873923E-009	0.0006967	6
	41	225	23.91582	35396.64	-21614.88	1	41474.39	-31.41024	-4.579153E-009	0.0006589	6
	42	227	18.60119	38154.41	-24898.77	1	45559.93	-33.12762	-4.611223E-009	0.0006849	6
	43	229	15.02404	40811.28	-28092.68	1	49545.52	-34.5418	-1.237029E-008	0.0006879	6
	44	232	12.01923	43907.95	-31867.39	1	54253.47	-35.97129	-9.988704E-009	0.000703	6
	45	234	9.450605	47760.7	-36455.74	1	60084.16	-37.35449	-9.641219E-009	0.0006914	6
	46	237	7.512019	51991.48	-41617.7	1	66596.9	-38.67628	-7.24692E-009	0.000612	6
	47	240	5.978954	56790.41	-47343.29	1	73936.04	-39.81625	-6.462598E-009	0.0006275	6
	48	244	4.734848	62480.11	-54072.32	1	82629.17	-40.87398	-8.327051E-009	0.0006456	6
	49	248	3.75601	68857.27	-61596.18	1	92387.3	-41.81418	-5.50007E-009	0.0006737	6
	50	253	3.004808	75982.59	-69833.29	1	103199	-42.58517	-6.79153E-009	0.0006487	6
	51	259	2.372217	84587.68	-79723.32	1	116236.3	-43.30428	-5.915661E-009	0.0006565	6
	52	264	1.878005	94525.5	-90835.73	1	131096.1	-43.85963	-5.246915E-009	0.0006573	6
	53	268	1.512097	104869.1	-102411.2	1	146579.6	-44.32063	-6.453997E-009	0.0007445	6
	54	274	1.201923	117491.7	-116248.2	1	165281.4	-44.69519	-5.899079E-009	0.0006592	6
	55	280	0.956633	131854.3	-131770.7	1	186411.1	-44.98182	-1.083215E-008	2.543557E-005	6
