EXPLAIN
TAG	EISPOT
TITLE	LABEL	Potentiostatic EIS	Test Identifier
DATE	LABEL	3/1/2021	Date
TIME	LABEL	2:13:21	Time
NOTES	NOTES	1	Notes...
	
PSTAT	PSTAT	REF3000-16137	Potentiostat
VDC	POTEN	0.00000E+000	T	DC Voltage (V)
FREQINIT	QUANT	3.00000E+005	Initial Freq. (Hz)
FREQFINAL	QUANT	1.00000E+000	Final Freq. (Hz)
PTSPERDEC	QUANT	1.00000E+001	Points/decade
VAC	QUANT	5.00000E+001	AC Voltage (mV rms)
AREA	QUANT	1.00000E+000	Sample Area (cm^2)
SPEED	SELECTOR	2	Optimize for:
ZGUESS	QUANT	1.00000E+003	Estimated Z (ohms)
EOC	QUANT	0	Open Circuit (V)
SEQUENCER	TOGGLE	TRUE	Run as Sequence
PSTATMODEL	IQUANT	5	Pstat Model
PSTATSECTION	LABEL	REF3000-16137	Pstat Section
PSTATSERIALNO	LABEL	16137	Pstat Serial Number
CTRLMODE	IQUANT	1	Control Mode
IESTAB	IQUANT	0	I/E Stability
CASPEED	IQUANT	1	Control Amp Speed
CONVENTION	IQUANT	1	Current Convention
ICHRANGE	IQUANT	2	Ich Range
ICHRANGEMODE	TOGGLE	F	Ich Auto Range
ICHOFFSETENABLE	TOGGLE	T	Ich Offset Enable
ICHOFFSET	QUANT	0	Ich Offset (V)
ICHFILTER	IQUANT	3	Ich Filter
VCHRANGE	IQUANT	2	Vch Range
VCHRANGEMODE	TOGGLE	F	Vch Auto Range
VCHOFFSETENABLE	TOGGLE	T	Vch Offset Enable
VCHOFFSET	QUANT	0	Vch Offset (V)
VCHFILTER	IQUANT	3	Vch Filter
ACHRANGE	IQUANT	2	Ach Range
ACHOFFSETENABLE	TOGGLE	F	Ach Offset Enable
ACHOFFSET	QUANT	0	Ach Offset (V)
ACHFILTER	IQUANT	3	Ach Filter
IERANGELOWERLIMIT	IQUANT	2	I/E Range Lower Limit
IERANGEMODE	TOGGLE	F	I/E AutoRange
IERANGE	IQUANT	11	I/E Range
POSFEEDENABLE	TOGGLE	F	Positive Feedback IR Comp
POSFEEDRESISTANCE	QUANT	0	Positive Feedback Resistance (ohm)
ACHSELECT	IQUANT	0	Ach Select
CABLEID	IQUANT	13	Cable ID
DCCALDATE	LABEL	7/31/2020	DC Calibration Date
ACCALDATE	LABEL	7/31/2020	AC Calibration Date
THERMOSELECT	IQUANT	1	Thermo Select
FRAMEWORKVERSION	QUANT	6.33	Framework Version
INSTRUMENTVERSION	LABEL	3.50	Instrument Version
COMPLIANCEVOLTAGE	IQUANT	0	Compliance Voltage
ZCURVE	TABLE
	Pt	Time	Freq	Zreal	Zimag	Zsig	Zmod	Zphz	Idc	Vdc	IERange
	#	s	Hz	ohm	ohm	V	ohm	°	A	V	#
	0	14	300046.9	633.9737	-3036.312	1	3101.792	-78.20624	-1.541415E-005	0.0017513	9
	1	32	238359.4	828.2463	-3697.267	1	3788.901	-77.3733	-2.135901E-005	0.0015073	9
	2	64	189328.1	860.9671	-4394.826	1	4478.365	-78.91586	2.211968E-005	-0.0004275	9
	3	71	150421.9	1260.926	-5653.819	1	5792.72	-77.42754	-1.473314E-005	0.0017632	9
	4	79	119484.4	2152.853	-6626.348	1	6967.299	-72.00139	-7.961385E-006	0.0170156	8
	5	86	94921.88	2818.241	-7953.676	1	8438.214	-70.48914	-1.050534E-005	0.0098435	8
	6	94	75421.88	3799.308	-9647.32	1	10368.48	-68.50448	-2.397387E-005	0.0055183	8
	7	102	59859.37	5057.48	-11441.59	1	12509.52	-66.15333	2.168296E-005	-0.0094978	8
	8	111	47578.12	8689.824	-13392.99	1	15965.13	-57.02314	-5.804967E-006	0.0233689	7
	9	118	37828.12	11013.65	-15169.03	1	18745.66	-54.01804	4.548267E-006	-0.0012214	7
	10	125	30046.88	13762.71	-16854.35	1	21759.62	-50.76605	6.95419E-006	-0.0222742	7
	11	131	23859.38	17008.56	-18243.5	1	24942.26	-47.00634	-5.777646E-006	0.0237728	7
	12	135	18984.38	19963.61	-20088.83	1	28321.49	-45.17913	-1.054683E-005	0.0098332	8
	13	142	15046.87	25346.48	-19517.36	1	31990.18	-37.59707	-3.229158E-006	0.0226799	7
	14	147	11953.13	29241.02	-19134.45	1	34945.16	-33.19954	-6.584639E-006	0.0218393	7
	15	152	9515.62	31713.74	-18628.08	1	36779.98	-30.4292	-1.993087E-006	-0.0047039	8
	16	159	7546.875	36176.3	-16952.47	1	39951.36	-25.10812	-6.700909E-006	0.0177377	7
	17	164	5928.309	41891.96	-15890.84	1	44804.63	-20.77319	2.638972E-005	-0.0053947	8
	18	170	4733.456	36854.79	-12077.38	1	38783.22	-18.14406	-2.370679E-005	0.010988	8
	19	177	3796.875	42310.06	-12951.77	1	44248.04	-17.02017	-2.372171E-005	0.0110074	8
	20	184	2987.132	49804.18	-8823.104	1	50579.68	-10.04605	1.832318E-005	-9.188461E-005	8
	21	190	2390.625	46557.18	-10599.09	1	47748.43	-12.82523	6.153909E-006	-0.0245605	7
	22	195	1884.191	46734	-9889.58	1	47768.93	-11.94833	4.779436E-006	-0.0240565	7
	23	201	1516.544	49232.86	-9656.64	1	50170.96	-11.09724	6.051522E-006	-0.009662	7
	24	206	1193.986	49740.21	-8554.934	1	50470.54	-9.75895	-1.068881E-006	-0.0113596	7
	25	212	946.5144	50954.68	-10240.21	1	51973.47	-11.3632	-4.774774E-006	0.024384	7
	26	215	751.7689	52912.84	-11526.88	1	54153.83	-12.28968	-3.218764E-006	0.0226143	7
	27	219	597.4265	49382.44	-9549.94	1	50297.38	-10.94517	-1.468592E-006	0.0195996	7
	28	223	477.4305	54185.79	-10011.45	1	55102.89	-10.46801	-4.736602E-008	0.0006228	7
	29	225	376.6741	55629.33	-10069.51	1	56533.33	-10.26006	-6.793387E-009	0.0006894	6
	30	227	298.2954	56955.89	-11014.32	1	58011.11	-10.94495	-6.763019E-009	0.0007074	6
	31	230	237.7717	58283.34	-12163.46	1	59539.04	-11.78816	-6.210194E-009	0.0007124	6
	32	232	189.0121	59810.42	-13474.07	1	61309.35	-12.69563	-6.387557E-009	0.0006707	6
	33	235	150.2404	61514.02	-15031.48	1	63323.93	-13.73163	-6.818139E-009	0.0007299	6
	34	237	119.1737	63490.82	-16805.66	1	65677.35	-14.82586	-6.277552E-009	0.0006291	6
	35	240	95.0169	65490.23	-18814.83	1	68139.33	-16.02894	-6.899076E-009	0.0006975	6
	36	242	75.60484	67803.16	-21124.25	1	71017.63	-17.30456	-5.287085E-009	0.0006229	6
	37	245	54.50582	71705.11	-24980.59	1	75931.89	-19.20729	-6.29854E-009	0.0006945	6
	38	247	45.95588	73773.38	-27315.12	1	78667.83	-20.31743	-7.262748E-009	0.0007087	6
	39	250	37.20238	76746.54	-30521.9	1	82593.09	-21.68759	-7.042018E-009	0.0006394	6
	40	252	30.04808	80226.23	-34210.48	1	87215.85	-23.09462	-6.244305E-009	0.0006695	6
	41	255	23.91582	84204.22	-38809.82	1	92717.59	-24.74503	-3.247779E-009	0.0006377	6
	42	257	18.60119	89177.69	-44320.87	1	99584.1	-26.42715	-3.613275E-009	0.0006252	6
	43	260	15.02404	94240.69	-49796.7	1	106588.1	-27.85193	-7.721408E-009	0.0006229	6
	44	262	12.01923	99836	-56349.74	1	114640.8	-29.44139	-6.503712E-009	0.0007038	6
	45	265	9.450605	106798.2	-64487.86	1	124757.9	-31.12481	-6.264964E-009	0.000672	6
	46	267	7.512019	114346.7	-73183.57	1	135760.9	-32.61983	-6.614639E-009	0.0006223	6
	47	270	5.978954	123020.9	-83133.75	1	148476.8	-34.04962	-5.632935E-009	0.0006414	6
	48	275	4.734848	132987.7	-94801.14	1	163318.7	-35.48342	-6.194257E-009	0.0006271	6
	49	278	3.75601	144474.6	-108145.2	1	180466.9	-36.81636	-6.275726E-009	0.0006254	6
	50	283	3.004808	157113.5	-122706.3	1	199352.7	-37.98999	-6.080829E-009	0.0006913	6
	51	290	2.372217	172345.5	-140417.1	1	222306	-39.17113	-7.344714E-009	0.0006656	6
	52	294	1.878005	189715.8	-160058.3	1	248215.1	-40.15347	-7.10975E-009	0.0006746	6
	53	299	1.512097	207898.6	-180768.5	1	275497.9	-41.00706	-6.32584E-009	0.000565	6
	54	304	1.201923	229962.6	-206198.6	1	308870	-41.88136	-6.824723E-009	0.0006789	6
	55	310	0.956633	255019.2	-234816.8	1	346660.8	-42.63828	-7.276942E-009	2.535094E-005	6
