EXPLAIN
TAG	EISPOT
TITLE	LABEL	Potentiostatic EIS	Test Identifier
DATE	LABEL	3/1/2021	Date
TIME	LABEL	2:18:41	Time
NOTES	NOTES	1	Notes...
	
PSTAT	PSTAT	REF3000-16137	Potentiostat
VDC	POTEN	0.00000E+000	T	DC Voltage (V)
FREQINIT	QUANT	3.00000E+005	Initial Freq. (Hz)
FREQFINAL	QUANT	1.00000E+000	Final Freq. (Hz)
PTSPERDEC	QUANT	1.00000E+001	Points/decade
VAC	QUANT	5.00000E+001	AC Voltage (mV rms)
AREA	QUANT	1.00000E+000	Sample Area (cm^2)
SPEED	SELECTOR	2	Optimize for:
ZGUESS	QUANT	1.00000E+003	Estimated Z (ohms)
EOC	QUANT	0	Open Circuit (V)
SEQUENCER	TOGGLE	TRUE	Run as Sequence
PSTATMODEL	IQUANT	5	Pstat Model
PSTATSECTION	LABEL	REF3000-16137	Pstat Section
PSTATSERIALNO	LABEL	16137	Pstat Serial Number
CTRLMODE	IQUANT	1	Control Mode
IESTAB	IQUANT	0	I/E Stability
CASPEED	IQUANT	1	Control Amp Speed
CONVENTION	IQUANT	1	Current Convention
ICHRANGE	IQUANT	2	Ich Range
ICHRANGEMODE	TOGGLE	F	Ich Auto Range
ICHOFFSETENABLE	TOGGLE	T	Ich Offset Enable
ICHOFFSET	QUANT	0	Ich Offset (V)
ICHFILTER	IQUANT	3	Ich Filter
VCHRANGE	IQUANT	2	Vch Range
VCHRANGEMODE	TOGGLE	F	Vch Auto Range
VCHOFFSETENABLE	TOGGLE	T	Vch Offset Enable
VCHOFFSET	QUANT	0	Vch Offset (V)
VCHFILTER	IQUANT	3	Vch Filter
ACHRANGE	IQUANT	2	Ach Range
ACHOFFSETENABLE	TOGGLE	F	Ach Offset Enable
ACHOFFSET	QUANT	0	Ach Offset (V)
ACHFILTER	IQUANT	3	Ach Filter
IERANGELOWERLIMIT	IQUANT	2	I/E Range Lower Limit
IERANGEMODE	TOGGLE	F	I/E AutoRange
IERANGE	IQUANT	11	I/E Range
POSFEEDENABLE	TOGGLE	F	Positive Feedback IR Comp
POSFEEDRESISTANCE	QUANT	0	Positive Feedback Resistance (ohm)
ACHSELECT	IQUANT	0	Ach Select
CABLEID	IQUANT	13	Cable ID
DCCALDATE	LABEL	7/31/2020	DC Calibration Date
ACCALDATE	LABEL	7/31/2020	AC Calibration Date
THERMOSELECT	IQUANT	1	Thermo Select
FRAMEWORKVERSION	QUANT	6.33	Framework Version
INSTRUMENTVERSION	LABEL	3.50	Instrument Version
COMPLIANCEVOLTAGE	IQUANT	0	Compliance Voltage
ZCURVE	TABLE
	Pt	Time	Freq	Zreal	Zimag	Zsig	Zmod	Zphz	Idc	Vdc	IERange
	#	s	Hz	ohm	ohm	V	ohm	°	A	V	#
	0	28	300046.9	604.2141	-3162.916	1	3220.11	-79.18504	8.786348E-005	-0.0036044	9
	1	44	238359.4	815.1157	-3857.831	1	3943.003	-78.06953	3.95702E-006	0.0015537	9
	2	60	189328.1	1112.418	-4772.441	1	4900.375	-76.87909	2.655769E-005	-0.00184	9
	3	73	150421.9	1274.156	-5688.533	1	5829.484	-77.37489	-2.891375E-005	-0.0009763	9
	4	81	119484.4	2035.375	-6793.068	1	7091.441	-73.32045	-9.057613E-005	0.0329516	8
	5	88	94921.88	2491.718	-8406.063	1	8767.586	-73.48917	-1.044007E-005	0.0097823	8
	6	97	75421.88	3273.63	-10241.92	1	10752.38	-72.27454	9.520756E-006	0.0036969	8
	7	105	59859.37	4448.302	-12444.89	1	13216	-70.33107	1.548707E-005	-0.0090084	8
	8	114	47578.12	6159.666	-14805.01	1	16035.26	-67.41011	-1.743984E-006	-0.0048018	8
	9	121	37828.12	10192.03	-17463.52	1	20220.09	-59.73138	-6.168762E-006	0.0116322	7
	10	128	30046.88	12933.29	-20249.03	1	24026.93	-57.43316	-6.152385E-006	0.0115912	7
	11	134	23859.38	16622.25	-23008.84	1	28384.96	-54.15457	-3.256395E-006	-0.003873	7
	12	140	18984.38	21064.84	-25469.36	1	33051.71	-50.40701	-3.178354E-006	-0.0043229	7
	13	145	15046.87	26058.09	-27136.21	1	37621.77	-46.16108	6.221406E-006	-0.0248596	7
	14	150	11953.13	31981.82	-28669.54	1	42950.89	-41.87408	-6.170467E-006	0.0115809	7
	15	155	9515.62	36855.39	-30523.78	1	47854.16	-39.63169	9.347261E-006	0.0036975	8
	16	162	7546.875	41418.25	-29498.07	1	50848.88	-35.45846	-1.577505E-006	-0.0047598	8
	17	168	5928.309	48486.92	-25719.07	1	54885.81	-27.94296	-6.603768E-006	0.0219514	7
	18	174	4733.456	53843.07	-24741.58	1	59255.57	-24.67939	6.237829E-006	-0.0247314	7
	19	179	3796.875	56803.67	-21319.27	1	60672.63	-20.57186	-4.929146E-006	0.0039906	7
	20	184	2987.132	59674.83	-21221.13	1	63335.79	-19.57603	6.1076E-006	-0.0097045	7
	21	190	2390.625	65287.56	-17044.22	1	67475.7	-14.63129	6.926792E-006	-0.0225484	7
	22	195	1884.191	64405.8	-18444.69	1	66994.88	-15.98079	-5.898905E-006	0.0237948	7
	23	201	1516.544	67701.76	-19050.22	1	70330.92	-15.71577	-6.192988E-006	0.0116377	7
	24	206	1193.986	70085.95	-14680.15	1	71606.89	-11.8301	-4.953989E-006	0.0040274	7
	25	212	946.5144	62388.58	-8975.169	1	63030.86	-8.186357	-1.068858E-005	0.0098443	8
	26	217	751.7689	71296.95	-17937.27	1	73518.7	-14.1217	-1.068783E-006	-0.0116186	7
	27	221	597.4265	94886.41	-11035.62	1	95526	-6.633897	2.568994E-005	-0.0089438	8
	28	227	477.4305	76224.84	-13959.91	1	77492.62	-10.37821	-2.024565E-007	0.0006487	8
	29	232	376.6741	78344.59	-13615.73	1	79518.95	-9.85913	-6.400614E-009	0.0007125	6
	30	234	298.2954	80030.77	-14679.94	1	81365.99	-10.39415	-5.849929E-009	0.0006431	6
	31	236	237.7717	81857.41	-15816.65	1	83371.48	-10.93604	-6.209186E-009	0.0007153	6
	32	239	189.0121	83823.27	-17290.93	1	85588.07	-11.6554	-5.661354E-009	0.0006324	6
	33	241	150.2404	86088.34	-19024.64	1	88165.41	-12.4615	-5.705049E-009	0.0006206	6
	34	244	119.1737	88350.91	-21112.63	1	90838.47	-13.43956	-6.29073E-009	0.0006599	6
	35	246	95.0169	91172.44	-23422.48	1	94133.02	-14.40789	-5.960481E-009	0.0006447	6
	36	249	75.60484	94094.98	-26190.61	1	97672	-15.55413	-6.021097E-009	0.0006257	6
	37	251	54.50582	98880.3	-31059.92	1	103643.8	-17.43836	-6.494242E-009	0.0007115	6
	38	254	45.95588	101521.8	-33499	1	106905.8	-18.26127	-7.078312E-009	0.0007179	6
	39	256	37.20238	105367.3	-37418.4	1	111814.2	-19.55114	-7.030405E-009	0.0006531	6
	40	258	30.04808	109611.6	-41797.51	1	117310.4	-20.87304	-6.093042E-009	0.0006528	6
	41	261	23.91582	114556	-47350.32	1	123956.2	-22.45716	-8.498939E-009	0.0006961	6
	42	264	18.60119	120561	-53847.07	1	132039.7	-24.06733	-7.338005E-009	0.0006351	6
	43	266	15.02404	126906.2	-60543.78	1	140608.5	-25.50464	-7.440164E-009	0.0006325	6
	44	268	12.01923	133886.7	-68135.12	1	150226.7	-26.9716	-7.823898E-009	0.0006288	6
	45	271	9.450605	142281.3	-77956.7	1	162238.1	-28.71858	-6.705112E-009	0.000623	6
	46	274	7.512019	151499.5	-88486.78	1	175448	-30.28805	-7.595756E-009	0.000697	6
	47	277	5.978954	162076.2	-100405.4	1	190656.6	-31.77801	-6.371994E-009	0.0007112	6
	48	281	4.734848	174148.1	-114334.6	1	208326.6	-33.28637	-7.687858E-009	0.0006862	6
	49	284	3.75601	188141.3	-130258.5	1	228832.7	-34.69655	-5.994897E-009	0.0007276	6
	50	290	3.004808	203551.4	-147947.7	1	251638	-36.01085	-5.131806E-009	0.0006435	6
	51	296	2.372217	221944.7	-169085.4	1	279014.9	-37.30145	-5.489501E-009	0.0006268	6
	52	300	1.878005	243043.8	-193202.5	1	310479.4	-38.48219	-5.020914E-009	0.0006547	6
	53	305	1.512097	264992	-218298.3	1	343329.2	-39.48142	-5.774317E-009	0.0007476	6
	54	310	1.201923	291524.5	-248969.5	1	383369.7	-40.4982	-5.499088E-009	0.0006631	6
	55	317	0.956633	322428.4	-283804.1	1	429540.3	-41.35449	-2.203755E-009	1.361132E-005	5
