EXPLAIN
TAG	EISPOT
TITLE	LABEL	Potentiostatic EIS	Test Identifier
DATE	LABEL	3/1/2021	Date
TIME	LABEL	1:33:51	Time
NOTES	NOTES	1	Notes...
	
PSTAT	PSTAT	REF3000-16137	Potentiostat
VDC	POTEN	0.00000E+000	T	DC Voltage (V)
FREQINIT	QUANT	3.00000E+005	Initial Freq. (Hz)
FREQFINAL	QUANT	1.00000E+000	Final Freq. (Hz)
PTSPERDEC	QUANT	1.00000E+001	Points/decade
VAC	QUANT	5.00000E+001	AC Voltage (mV rms)
AREA	QUANT	1.00000E+000	Sample Area (cm^2)
SPEED	SELECTOR	2	Optimize for:
ZGUESS	QUANT	1.00000E+003	Estimated Z (ohms)
EOC	QUANT	0	Open Circuit (V)
SEQUENCER	TOGGLE	TRUE	Run as Sequence
PSTATMODEL	IQUANT	5	Pstat Model
PSTATSECTION	LABEL	REF3000-16137	Pstat Section
PSTATSERIALNO	LABEL	16137	Pstat Serial Number
CTRLMODE	IQUANT	1	Control Mode
IESTAB	IQUANT	0	I/E Stability
CASPEED	IQUANT	1	Control Amp Speed
CONVENTION	IQUANT	1	Current Convention
ICHRANGE	IQUANT	2	Ich Range
ICHRANGEMODE	TOGGLE	F	Ich Auto Range
ICHOFFSETENABLE	TOGGLE	T	Ich Offset Enable
ICHOFFSET	QUANT	0	Ich Offset (V)
ICHFILTER	IQUANT	3	Ich Filter
VCHRANGE	IQUANT	2	Vch Range
VCHRANGEMODE	TOGGLE	F	Vch Auto Range
VCHOFFSETENABLE	TOGGLE	T	Vch Offset Enable
VCHOFFSET	QUANT	0	Vch Offset (V)
VCHFILTER	IQUANT	3	Vch Filter
ACHRANGE	IQUANT	2	Ach Range
ACHOFFSETENABLE	TOGGLE	F	Ach Offset Enable
ACHOFFSET	QUANT	0	Ach Offset (V)
ACHFILTER	IQUANT	3	Ach Filter
IERANGELOWERLIMIT	IQUANT	2	I/E Range Lower Limit
IERANGEMODE	TOGGLE	F	I/E AutoRange
IERANGE	IQUANT	11	I/E Range
POSFEEDENABLE	TOGGLE	F	Positive Feedback IR Comp
POSFEEDRESISTANCE	QUANT	0	Positive Feedback Resistance (ohm)
ACHSELECT	IQUANT	0	Ach Select
CABLEID	IQUANT	13	Cable ID
DCCALDATE	LABEL	7/31/2020	DC Calibration Date
ACCALDATE	LABEL	7/31/2020	AC Calibration Date
THERMOSELECT	IQUANT	1	Thermo Select
FRAMEWORKVERSION	QUANT	6.33	Framework Version
INSTRUMENTVERSION	LABEL	3.50	Instrument Version
COMPLIANCEVOLTAGE	IQUANT	0	Compliance Voltage
ZCURVE	TABLE
	Pt	Time	Freq	Zreal	Zimag	Zsig	Zmod	Zphz	Idc	Vdc	IERange
	#	s	Hz	ohm	ohm	V	ohm	°	A	V	#
	0	14	300046.9	1006.304	-2377.952	1	2582.112	-67.06284	2.132979E-005	-0.0010807	9
	1	28	238359.4	1379.693	-2758.704	1	3084.478	-63.42929	2.498673E-005	0.0008987	9
	2	42	189328.1	2007.351	-3134.23	1	3721.942	-57.36203	1.914512E-005	-0.0009027	9
	3	50	150421.9	2368.574	-3531.118	1	4251.933	-56.1474	1.181397E-006	0.0016989	9
	4	58	119484.4	3345.908	-3675.477	1	4970.335	-47.68737	2.897808E-005	0.0062299	8
	5	65	94921.88	4095.763	-3792.635	1	5582.056	-42.79938	-2.365508E-005	0.0056305	8
	6	73	75421.88	4901.75	-3885.75	1	6255.094	-38.40482	6.41216E-006	-0.0070196	8
	7	80	59859.37	5668.792	-3759.064	1	6801.895	-33.54898	-9.585891E-006	0.0094497	8
	8	88	47578.12	7083.933	-2999.443	1	7692.773	-22.94853	-2.726312E-006	-0.0041678	7
	9	91	37828.12	7480.644	-2708.206	1	7955.778	-19.9017	5.814979E-006	-0.0226158	7
	10	94	30046.88	7868.885	-2413.538	1	8230.706	-17.05178	2.280749E-006	0.0070669	7
	11	97	23859.38	8176.966	-2168.164	1	8459.533	-14.85053	-5.571976E-006	0.0220242	7
	12	101	18984.38	8405.723	-1966.253	1	8632.632	-13.16581	-5.44197E-006	0.0217293	7
	13	105	15046.87	8616.273	-1769.857	1	8796.167	-11.60759	-3.035612E-006	0.0211933	7
	14	110	11953.13	8799.492	-1646.773	1	8952.258	-10.59996	-4.418727E-006	0.0032556	7
	15	113	9515.62	8964.953	-1564.375	1	9100.421	-9.89839	4.547191E-006	-0.022201	7
	16	117	7546.875	9130.788	-1473.911	1	9248.984	-9.169707	-1.518643E-006	0.0184142	7
	17	121	5928.309	9241.708	-1481.336	1	9359.676	-9.106373	-5.471355E-006	0.0217841	7
	18	125	4733.456	9427.524	-1436.127	1	9536.28	-8.661474	5.514979E-006	-0.0083665	7
	19	129	3796.875	9600.77	-1502.284	1	9717.6	-8.893258	-6.132109E-006	0.0200983	7
	20	133	2987.132	9769.84	-1530.025	1	9888.92	-8.900626	3.70351E-007	0.0135511	7
	21	137	2390.625	9920.38	-1650.923	1	10056.81	-9.448424	3.462944E-007	0.0136417	7
	22	141	1884.191	10088.79	-1716.597	1	10233.79	-9.65634	3.741499E-007	0.0135565	7
	23	145	1516.544	10305.23	-1913.575	1	10481.39	-10.51942	3.77528E-007	0.0135606	7
	24	150	1193.986	10568.08	-2068.17	1	10768.55	-11.07282	2.302485E-006	0.0071145	7
	25	154	946.5144	10873.92	-2339.874	1	11122.82	-12.14385	-8.444984E-007	-0.0108382	7
	26	157	751.7689	11145.69	-2488.193	1	11420.05	-12.58451	2.993993E-006	-0.0204244	7
	27	159	597.4265	11378.71	-2884.638	1	11738.67	-14.22546	-6.1642E-006	0.0160696	7
	28	162	477.4305	11719.21	-3164.802	1	12139.03	-15.11238	-4.135459E-008	0.0005958	7
	29	164	376.6741	12101	-3561.392	1	12614.19	-16.39945	-4.943525E-008	0.0006462	7
	30	167	298.2954	12523.28	-4012.156	1	13150.28	-17.76421	-4.934061E-008	0.0006585	7
	31	169	237.7717	12979.71	-4512.157	1	13741.63	-19.16907	-5.065677E-008	0.0006653	7
	32	171	189.0121	13498.38	-5092.833	1	14427.17	-20.6711	-4.979484E-008	0.0006336	7
	33	174	150.2404	14078.78	-5757.016	1	15210.36	-22.24037	-4.26559E-008	0.0005834	7
	34	176	119.1737	14747.99	-6526.179	1	16127.44	-23.87001	-4.259927E-008	0.0005925	7
	35	180	95.0169	15471.26	-7392.126	1	17146.53	-25.53834	-4.940786E-008	0.0006307	7
	36	182	75.60484	16293.28	-8386.569	1	18325	-27.23604	-4.174337E-008	0.0005868	7
	37	185	54.50582	17695.96	-10073.43	1	20362.24	-29.65071	-4.232484E-008	0.0006076	7
	38	187	45.95588	18488.65	-11092.08	1	21560.71	-30.96122	-4.683185E-008	0.000633	7
	39	189	37.20238	19617.03	-12505.52	1	23264.04	-32.5168	-4.35036E-008	0.0006525	7
	40	192	30.04808	20913.58	-14134.41	1	25242.02	-34.05273	-4.042406E-008	0.0005913	7
	41	194	23.91582	22489.46	-16115.41	1	27667.35	-35.62448	-3.899207E-008	0.0006102	7
	42	197	18.60119	24401.28	-18674.59	1	30727.23	-37.42727	-5.038407E-008	0.0005939	7
	43	199	15.02404	26381.63	-21085.25	1	33772.45	-38.63324	-4.697814E-008	0.0006709	7
	44	201	12.01923	28690.9	-23996.96	1	37403.5	-39.90899	-4.523792E-008	0.000665	7
	45	204	9.450605	31574.48	-27554.39	1	41906.95	-41.11052	-1.528073E-008	0.0006268	6
	46	206	7.512019	34657.44	-31481.88	1	46821.44	-42.25116	-1.180283E-008	0.0006349	6
	47	209	5.978954	38222.78	-35923.31	1	52454.41	-43.22367	-7.796561E-009	0.0006224	6
	48	214	4.734848	42361.89	-41107.83	1	59028.66	-44.13925	-1.268076E-008	0.0006199	6
	49	217	3.75601	47175.5	-46955.18	1	66560.63	-44.86589	-7.291586E-009	0.0006958	6
	50	222	3.004808	52500.65	-53332.27	1	74837.48	-45.45021	-9.678812E-009	0.000719	6
	51	229	2.372217	59011.59	-61036.55	1	84898.92	-45.96637	-6.94729E-009	0.0006989	6
	52	233	1.878005	66468.64	-69530.51	1	96190.3	-46.28973	-8.00723E-009	0.0006465	6
	53	238	1.512097	74360.08	-78410.14	1	108062.8	-46.5186	-9.063657E-009	0.0007738	6
	54	243	1.201923	83976.94	-89111.67	1	122446	-46.6992	-7.341036E-009	0.0006491	6
	55	249	0.956633	94914.74	-101027.2	1	138619.3	-46.78678	-1.364997E-008	2.822056E-005	6
