EXPLAIN
TAG	EISPOT
TITLE	LABEL	Potentiostatic EIS	Test Identifier
DATE	LABEL	3/1/2021	Date
TIME	LABEL	2:24:07	Time
NOTES	NOTES	1	Notes...
	
PSTAT	PSTAT	REF3000-16137	Potentiostat
VDC	POTEN	0.00000E+000	T	DC Voltage (V)
FREQINIT	QUANT	3.00000E+005	Initial Freq. (Hz)
FREQFINAL	QUANT	1.00000E+000	Final Freq. (Hz)
PTSPERDEC	QUANT	1.00000E+001	Points/decade
VAC	QUANT	5.00000E+001	AC Voltage (mV rms)
AREA	QUANT	1.00000E+000	Sample Area (cm^2)
SPEED	SELECTOR	2	Optimize for:
ZGUESS	QUANT	1.00000E+003	Estimated Z (ohms)
EOC	QUANT	0	Open Circuit (V)
SEQUENCER	TOGGLE	TRUE	Run as Sequence
PSTATMODEL	IQUANT	5	Pstat Model
PSTATSECTION	LABEL	REF3000-16137	Pstat Section
PSTATSERIALNO	LABEL	16137	Pstat Serial Number
CTRLMODE	IQUANT	1	Control Mode
IESTAB	IQUANT	0	I/E Stability
CASPEED	IQUANT	1	Control Amp Speed
CONVENTION	IQUANT	1	Current Convention
ICHRANGE	IQUANT	2	Ich Range
ICHRANGEMODE	TOGGLE	F	Ich Auto Range
ICHOFFSETENABLE	TOGGLE	T	Ich Offset Enable
ICHOFFSET	QUANT	0	Ich Offset (V)
ICHFILTER	IQUANT	3	Ich Filter
VCHRANGE	IQUANT	2	Vch Range
VCHRANGEMODE	TOGGLE	F	Vch Auto Range
VCHOFFSETENABLE	TOGGLE	T	Vch Offset Enable
VCHOFFSET	QUANT	0	Vch Offset (V)
VCHFILTER	IQUANT	3	Vch Filter
ACHRANGE	IQUANT	2	Ach Range
ACHOFFSETENABLE	TOGGLE	F	Ach Offset Enable
ACHOFFSET	QUANT	0	Ach Offset (V)
ACHFILTER	IQUANT	3	Ach Filter
IERANGELOWERLIMIT	IQUANT	2	I/E Range Lower Limit
IERANGEMODE	TOGGLE	F	I/E AutoRange
IERANGE	IQUANT	11	I/E Range
POSFEEDENABLE	TOGGLE	F	Positive Feedback IR Comp
POSFEEDRESISTANCE	QUANT	0	Positive Feedback Resistance (ohm)
ACHSELECT	IQUANT	0	Ach Select
CABLEID	IQUANT	13	Cable ID
DCCALDATE	LABEL	7/31/2020	DC Calibration Date
ACCALDATE	LABEL	7/31/2020	AC Calibration Date
THERMOSELECT	IQUANT	1	Thermo Select
FRAMEWORKVERSION	QUANT	6.33	Framework Version
INSTRUMENTVERSION	LABEL	3.50	Instrument Version
COMPLIANCEVOLTAGE	IQUANT	0	Compliance Voltage
ZCURVE	TABLE
	Pt	Time	Freq	Zreal	Zimag	Zsig	Zmod	Zphz	Idc	Vdc	IERange
	#	s	Hz	ohm	ohm	V	ohm	°	A	V	#
	0	14	300046.9	582.3018	-3311.972	1	3362.772	-80.02833	6.576651E-006	-0.0020863	9
	1	29	238359.4	774.0669	-4033.115	1	4106.726	-79.13547	7.931956E-005	-0.0016837	9
	2	43	189328.1	988.708	-5258.001	1	5350.151	-79.35052	8.72876E-005	-0.0025669	9
	3	50	150421.9	1145.49	-5770.228	1	5882.829	-78.77177	2.073587E-005	-0.0003574	9
	4	58	119484.4	1808.666	-7326.75	1	7546.69	-76.13332	2.108245E-005	-0.014196	8
	5	65	94921.88	2274.289	-8819.273	1	9107.798	-75.53977	-1.053018E-006	0.007311	8
	6	73	75421.88	3100.207	-10729.64	1	11168.55	-73.88396	-2.614175E-005	0.0077898	8
	7	82	59859.37	4062.786	-13177.96	1	13790.03	-72.86539	1.810107E-005	5.303878E-005	8
	8	90	47578.12	5844.431	-16527.07	1	17530.01	-70.52499	1.802254E-005	7.539548E-006	8
	9	99	37828.12	6907.069	-18991.93	1	20208.93	-70.01446	2.379885E-005	-0.0030592	8
	10	108	30046.88	9472.65	-23210.09	1	25068.7	-67.79833	2.593559E-005	-0.00902	8
	11	116	23859.38	14030.2	-28020.84	1	31337.1	-63.4026	7.774913E-006	-0.0074924	8
	12	123	18984.38	17987.95	-31285.93	1	36088.44	-60.10312	-2.632244E-005	0.0097957	8
	13	129	15046.87	23917.28	-35609.55	1	42896.11	-56.11258	-2.397351E-005	0.0110636	8
	14	135	11953.13	30809.95	-38633.43	1	49414.52	-51.42783	-1.026301E-005	-0.0017474	8
	15	143	9515.62	40671.19	-42560.23	1	58868.66	-46.30018	4.951465E-006	-0.0250139	7
	16	148	7546.875	48970.36	-42286.68	1	64701.31	-40.81113	-1.076807E-006	-0.011394	7
	17	154	5928.309	58490.13	-40517.41	1	71153.04	-34.7112	-6.664555E-006	0.0221074	7
	18	159	4733.456	70521.52	-45659.28	1	84012.23	-32.92111	2.636498E-005	-0.0053516	8
	19	167	3796.875	70770.45	-43663.5	1	83156.23	-31.67349	-1.993124E-005	0.0010911	9
	20	174	2987.132	85924.95	-28968.29	1	90676.66	-18.63075	-2.605426E-005	0.0077617	8
	21	182	2390.625	89224.91	-37733.68	1	96875.8	-22.92376	2.642604E-005	-0.005371	8
	22	189	1884.191	104984.6	-35145.4	1	110711.2	-18.50886	-2.620209E-005	0.0097352	8
	23	197	1516.544	113584.1	-3882.294	1	113650.4	-1.957603	-1.192783E-006	0.0007746	9
	24	205	1193.986	102557.9	-21172.39	1	104720.6	-11.66446	-6.797969E-007	0.0164434	6
	25	209	946.5144	104243.5	-20089.22	1	106161.6	-10.908	6.703493E-007	-0.0145783	6
	26	212	751.7689	107601.7	-19485.16	1	109351.7	-10.26423	7.138494E-007	-0.0211787	6
	27	214	597.4265	109871.4	-20949.01	1	111850.8	-10.79493	1.773059E-007	-0.019556	6
	28	217	477.4305	111631.5	-19477.96	1	113318	-9.89758	-7.025395E-009	0.0006883	6
	29	219	376.6741	113988.3	-19848.21	1	115703.5	-9.87759	-6.127314E-009	0.0006213	6
	30	222	298.2954	116361.4	-20448.87	1	118144.6	-9.96714	-5.549301E-009	0.0006223	6
	31	224	237.7717	118912.3	-21723.71	1	120880.4	-10.35301	-6.545631E-009	0.000707	6
	32	226	189.0121	121618.6	-23291.09	1	123828.7	-10.84141	-6.377115E-009	0.0007067	6
	33	229	150.2404	124677.1	-25144.93	1	127187.4	-11.40248	-6.751605E-009	0.0007171	6
	34	232	119.1737	128146.5	-27560.77	1	131076.8	-12.13784	-5.84847E-009	0.0006277	6
	35	234	95.0169	131244.5	-30156.45	1	134664.5	-12.94041	-6.146498E-009	0.0006421	6
	36	236	75.60484	135085.3	-33490.05	1	139174.8	-13.9239	-6.383109E-009	0.0006641	6
	37	239	54.50582	141847.4	-38560.05	1	146995.1	-15.20789	-6.795661E-009	0.0006365	6
	38	242	45.95588	144832.1	-42286.84	1	150879.1	-16.2763	-4.997545E-009	0.0006508	6
	39	244	37.20238	149855	-46860.77	1	157011	-17.36485	-7.101566E-009	0.0006563	6
	40	246	30.04808	155341.5	-52237.64	1	163889.5	-18.58656	-6.421595E-009	0.000718	6
	41	249	23.91582	161589.8	-58340.11	1	171798.8	-19.85153	-5.278657E-009	0.0006248	6
	42	251	18.60119	170220.5	-66994.83	1	182929.8	-21.48345	-4.358617E-009	0.0007111	6
	43	254	15.02404	177248.8	-74900.29	1	192424.5	-22.90754	-7.013752E-009	0.0006215	6
	44	256	12.01923	186157	-84335.16	1	204369.4	-24.37206	-4.549282E-009	0.0006333	6
	45	259	9.450605	196734.5	-95965.8	1	218892.4	-26.00283	-8.172432E-009	0.0006783	6
	46	261	7.512019	208252.6	-108924.4	1	235018.4	-27.61135	-7.044192E-009	0.0006549	6
	47	264	5.978954	221656.4	-123552.5	1	253765.2	-29.13553	-5.702166E-009	0.0006328	6
	48	269	4.734848	236906.2	-140543.8	1	275458	-30.6784	-6.589388E-009	0.0006836	6
	49	272	3.75601	254406.3	-160204.9	1	300646.3	-32.19947	-5.709587E-009	0.0006292	6
	50	278	3.004808	273581.5	-181877.7	1	328521.4	-33.61605	-6.248685E-009	0.0006514	6
	51	284	2.372217	296767	-207649.7	1	362200.3	-34.98071	-6.747637E-009	0.0007441	6
	52	288	1.878005	323203.2	-237549	1	401110.8	-36.31527	-1.50277E-009	0.0006389	5
	53	293	1.512097	350102.4	-268680.6	1	441317.3	-37.50387	-1.548009E-009	0.0006708	5
	54	298	1.201923	383326.8	-306384.9	1	490725.1	-38.6346	-1.229123E-009	0.0006284	5
	55	305	0.956633	421449.5	-349420.5	1	547461.7	-39.66186	-1.787921E-009	1.712367E-005	5
