EXPLAIN
TAG	EISPOT
TITLE	LABEL	Potentiostatic EIS	Test Identifier
DATE	LABEL	8/9/2020	Date
TIME	LABEL	21:28:25	Time
NOTES	NOTES	1	Notes...
	
PSTAT	PSTAT	REF3000-16137	Potentiostat
VDC	POTEN	0.00000E+000	T	DC Voltage (V)
FREQINIT	QUANT	3.00000E+005	Initial Freq. (Hz)
FREQFINAL	QUANT	1.00000E+000	Final Freq. (Hz)
PTSPERDEC	QUANT	1.00000E+001	Points/decade
VAC	QUANT	5.00000E+001	AC Voltage (mV rms)
AREA	QUANT	1.00000E+000	Sample Area (cm^2)
SPEED	SELECTOR	2	Optimize for:
ZGUESS	QUANT	1.00000E+003	Estimated Z (ohms)
EOC	QUANT	0	Open Circuit (V)
SEQUENCER	TOGGLE	TRUE	Run as Sequence
PSTATMODEL	IQUANT	5	Pstat Model
PSTATSECTION	LABEL	REF3000-16137	Pstat Section
PSTATSERIALNO	LABEL	16137	Pstat Serial Number
CTRLMODE	IQUANT	1	Control Mode
IESTAB	IQUANT	0	I/E Stability
CASPEED	IQUANT	1	Control Amp Speed
CONVENTION	IQUANT	1	Current Convention
ICHRANGE	IQUANT	2	Ich Range
ICHRANGEMODE	TOGGLE	F	Ich Auto Range
ICHOFFSETENABLE	TOGGLE	T	Ich Offset Enable
ICHOFFSET	QUANT	0	Ich Offset (V)
ICHFILTER	IQUANT	3	Ich Filter
VCHRANGE	IQUANT	2	Vch Range
VCHRANGEMODE	TOGGLE	F	Vch Auto Range
VCHOFFSETENABLE	TOGGLE	T	Vch Offset Enable
VCHOFFSET	QUANT	0	Vch Offset (V)
VCHFILTER	IQUANT	3	Vch Filter
ACHRANGE	IQUANT	2	Ach Range
ACHOFFSETENABLE	TOGGLE	F	Ach Offset Enable
ACHOFFSET	QUANT	0	Ach Offset (V)
ACHFILTER	IQUANT	3	Ach Filter
IERANGELOWERLIMIT	IQUANT	2	I/E Range Lower Limit
IERANGEMODE	TOGGLE	F	I/E AutoRange
IERANGE	IQUANT	11	I/E Range
POSFEEDENABLE	TOGGLE	F	Positive Feedback IR Comp
POSFEEDRESISTANCE	QUANT	0	Positive Feedback Resistance (ohm)
ACHSELECT	IQUANT	0	Ach Select
CABLEID	IQUANT	13	Cable ID
DCCALDATE	LABEL	7/31/2020	DC Calibration Date
ACCALDATE	LABEL	7/31/2020	AC Calibration Date
THERMOSELECT	IQUANT	1	Thermo Select
FRAMEWORKVERSION	QUANT	6.33	Framework Version
INSTRUMENTVERSION	LABEL	3.50	Instrument Version
COMPLIANCEVOLTAGE	IQUANT	0	Compliance Voltage
ZCURVE	TABLE
	Pt	Time	Freq	Zreal	Zimag	Zsig	Zmod	Zphz	Idc	Vdc	IERange
	#	s	Hz	ohm	ohm	V	ohm	°	A	V	#
	0	17	300046.9	1694.389	-987.741	1	1961.271	-30.23998	3.422963E-005	-0.002228	9
	1	33	238359.4	2020.858	-1133.592	1	2317.088	-29.29007	-9.210685E-005	0.0022456	9
	2	50	189328.1	2358.506	-1200.439	1	2646.432	-26.97531	-6.228255E-005	0.0007313	9
	3	58	150421.9	2685.837	-1172.835	1	2930.744	-23.58965	-6.294901E-005	0.0007095	9
	4	65	119484.4	3042.785	-1155.978	1	3254.969	-20.80217	-1.758411E-007	-0.0018279	9
	5	73	94921.88	3381.766	-1003.84	1	3527.611	-16.53295	9.002498E-006	0.0035522	8
	6	79	75421.88	3690.383	-1050.324	1	3836.939	-15.88694	2.558387E-005	-0.0002453	9
	7	86	59859.37	4099.471	-918.9813	1	4201.213	-12.63515	2.481613E-005	-0.0086987	8
	8	93	47578.12	4460.113	-894.2075	1	4548.87	-11.33692	2.604384E-005	-0.0073569	8
	9	101	37828.12	4880.981	-850.7646	1	4954.571	-9.88744	1.770155E-005	-0.0002186	8
	10	108	30046.88	5328.051	-811.6561	1	5389.519	-8.66164	-2.556235E-005	0.0076085	8
	11	116	23859.38	5758.794	-758.5644	1	5808.54	-7.503958	-9.892703E-006	-0.0018169	8
	12	121	18984.38	6130.083	-693.9001	1	6169.231	-6.458156	1.336031E-005	-0.0083732	8
	13	126	15046.87	6508.26	-609.3071	1	6536.72	-5.348474	-1.796439E-006	-0.0047634	8
	14	132	11953.13	6913.914	-331.5188	1	6921.857	-2.745202	5.164159E-006	-0.0240849	7
	15	136	9515.62	7232.829	-308.5409	1	7239.407	-2.442665	6.292393E-006	-0.0239316	7
	16	140	7546.875	7573.569	-271.623	1	7578.438	-2.05401	-2.652103E-006	-0.0060071	7
	17	144	5928.309	7919.854	-230.0135	1	7923.194	-1.663553	-6.598792E-006	0.0204684	7
	18	148	4733.456	8338.258	-226.3515	1	8341.329	-1.554977	4.898267E-008	0.0160233	7
	19	152	3796.875	8655.098	-221.6661	1	8657.936	-1.467084	6.490633E-006	-0.0241739	7
	20	156	2987.132	9097.114	-168.4393	1	9098.674	-1.060749	-5.982228E-006	0.0099981	7
	21	160	2390.625	9482.527	-188.3484	1	9484.397	-1.137898	-4.634993E-006	0.0019629	7
	22	164	1884.191	9959.16	-143.8383	1	9960.2	-0.8274543	4.288441E-006	0.0004885	7
	23	168	1516.544	10498.34	-142.6362	1	10499.31	-0.7784038	2.224861E-006	0.0092371	7
	24	173	1193.986	11082.09	-168.7304	1	11083.38	-0.8722894	-3.725505E-006	0.0240149	7
	25	177	946.5144	11450.38	-26.59208	1	11450.42	-0.133062	7.199237E-006	-0.0168172	7
	26	180	751.7689	11907.25	-217.0535	1	11909.23	-1.04431	-6.979722E-006	0.0222796	7
	27	183	597.4265	12203.6	-97.909	1	12203.99	-0.4596721	-9.096102E-007	-0.0131876	7
	28	185	477.4305	12577.08	-106.3088	1	12577.53	-0.484286	-8.81476E-008	0.0006082	7
	29	187	376.6741	12926.31	-107.3087	1	12926.75	-0.4756343	-9.185175E-008	0.000572	7
	30	190	298.2954	13286.87	-112.1226	1	13287.34	-0.4834848	-9.244723E-008	0.0006258	7
	31	192	237.7717	13680.27	-119.1857	1	13680.79	-0.4991615	-8.685343E-008	0.0006093	7
	32	195	189.0121	14084.33	-131.7197	1	14084.95	-0.535827	-9.208256E-008	0.000665	7
	33	197	150.2404	14488.88	-151.6532	1	14489.67	-0.5996858	-9.440977E-008	0.0006539	7
	34	199	119.1737	14915.75	-179.1057	1	14916.83	-0.6879644	-1.042256E-007	0.0006677	7
	35	202	95.0169	15357.67	-205.0753	1	15359.04	-0.7650415	-9.697378E-008	0.0005705	7
	36	204	75.60484	15834.09	-246.014	1	15836	-0.8901322	-7.923695E-008	0.0006152	7
	37	207	54.50582	16346.61	-321.0677	1	16349.76	-1.125216	-8.2006E-008	0.0005826	7
	38	209	45.95588	16839.47	-369.9052	1	16843.53	-1.258389	-8.960765E-008	0.0006882	7
	39	212	37.20238	17338.22	-446.2164	1	17343.96	-1.474239	-8.055281E-008	0.0006663	7
	40	214	30.04808	17878.27	-537.6547	1	17886.36	-1.722541	-9.632912E-008	0.0006723	7
	41	216	23.91582	18436.48	-663.1987	1	18448.41	-2.06016	-7.972994E-008	0.0006156	7
	42	219	18.60119	18986.13	-841.4095	1	19004.77	-2.53752	-6.121128E-008	0.0006652	7
	43	221	15.02404	19544.62	-1005.882	1	19570.49	-2.946181	-1.053106E-007	0.0005887	7
	44	223	12.01923	20167.55	-1218.514	1	20204.33	-3.457582	-6.621799E-008	0.0006072	7
	45	226	9.450605	20846.23	-1550.031	1	20903.78	-4.252429	-6.262638E-008	0.0006766	7
	46	228	7.512019	21553.95	-1876.717	1	21635.5	-4.976232	-1.442808E-007	0.0007023	7
	47	231	5.978954	22455.83	-2370.615	1	22580.62	-6.026275	-1.328055E-007	0.0006758	7
	48	234	4.734848	23487.64	-2886.042	1	23664.29	-7.005099	-8.874921E-008	0.0006758	7
	49	237	3.75601	24703.22	-3588.627	1	24962.52	-8.265514	-1.206757E-007	0.0006873	7
	50	241	3.004808	26021.22	-4372.985	1	26386.11	-9.53968	-9.574234E-008	0.0006606	7
	51	245	2.372217	27631.36	-5431.53	1	28160.14	-11.12091	-1.178852E-007	0.0006325	7
	52	249	1.878005	29570.51	-6696.253	1	30319.22	-12.75945	-1.15999E-007	0.0006194	7
	53	253	1.512097	31844.83	-8105.044	1	32860.08	-14.27956	-1.006695E-007	0.0005199	7
	54	259	1.201923	34789.58	-10092.08	1	36223.82	-16.17686	-1.060487E-007	0.0006206	7
	55	265	0.956633	38319.87	-12441.8	1	40289.09	-17.98772	-1.091913E-007	-1.235082E-005	7
