EXPLAIN
TAG	EISPOT
TITLE	LABEL	Potentiostatic EIS	Test Identifier
DATE	LABEL	8/9/2020	Date
TIME	LABEL	21:06:00	Time
NOTES	NOTES	1	Notes...
	
PSTAT	PSTAT	REF3000-16137	Potentiostat
VDC	POTEN	0.00000E+000	T	DC Voltage (V)
FREQINIT	QUANT	3.00000E+005	Initial Freq. (Hz)
FREQFINAL	QUANT	1.00000E+000	Final Freq. (Hz)
PTSPERDEC	QUANT	1.00000E+001	Points/decade
VAC	QUANT	5.00000E+001	AC Voltage (mV rms)
AREA	QUANT	1.00000E+000	Sample Area (cm^2)
SPEED	SELECTOR	2	Optimize for:
ZGUESS	QUANT	1.00000E+003	Estimated Z (ohms)
EOC	QUANT	0	Open Circuit (V)
SEQUENCER	TOGGLE	TRUE	Run as Sequence
PSTATMODEL	IQUANT	5	Pstat Model
PSTATSECTION	LABEL	REF3000-16137	Pstat Section
PSTATSERIALNO	LABEL	16137	Pstat Serial Number
CTRLMODE	IQUANT	1	Control Mode
IESTAB	IQUANT	0	I/E Stability
CASPEED	IQUANT	1	Control Amp Speed
CONVENTION	IQUANT	1	Current Convention
ICHRANGE	IQUANT	2	Ich Range
ICHRANGEMODE	TOGGLE	F	Ich Auto Range
ICHOFFSETENABLE	TOGGLE	T	Ich Offset Enable
ICHOFFSET	QUANT	0	Ich Offset (V)
ICHFILTER	IQUANT	3	Ich Filter
VCHRANGE	IQUANT	2	Vch Range
VCHRANGEMODE	TOGGLE	F	Vch Auto Range
VCHOFFSETENABLE	TOGGLE	T	Vch Offset Enable
VCHOFFSET	QUANT	0	Vch Offset (V)
VCHFILTER	IQUANT	3	Vch Filter
ACHRANGE	IQUANT	2	Ach Range
ACHOFFSETENABLE	TOGGLE	F	Ach Offset Enable
ACHOFFSET	QUANT	0	Ach Offset (V)
ACHFILTER	IQUANT	3	Ach Filter
IERANGELOWERLIMIT	IQUANT	2	I/E Range Lower Limit
IERANGEMODE	TOGGLE	F	I/E AutoRange
IERANGE	IQUANT	11	I/E Range
POSFEEDENABLE	TOGGLE	F	Positive Feedback IR Comp
POSFEEDRESISTANCE	QUANT	0	Positive Feedback Resistance (ohm)
ACHSELECT	IQUANT	0	Ach Select
CABLEID	IQUANT	13	Cable ID
DCCALDATE	LABEL	7/31/2020	DC Calibration Date
ACCALDATE	LABEL	7/31/2020	AC Calibration Date
THERMOSELECT	IQUANT	1	Thermo Select
FRAMEWORKVERSION	QUANT	6.33	Framework Version
INSTRUMENTVERSION	LABEL	3.50	Instrument Version
COMPLIANCEVOLTAGE	IQUANT	0	Compliance Voltage
ZCURVE	TABLE
	Pt	Time	Freq	Zreal	Zimag	Zsig	Zmod	Zphz	Idc	Vdc	IERange
	#	s	Hz	ohm	ohm	V	ohm	°	A	V	#
	0	10	300046.9	4.902434	1.332767	1	5.080367	15.20876	-1.49885E-005	9.25381E-005	10
	1	13	238359.4	4.907285	1.045525	1	5.017426	12.02736	-0.0001097	-0.000215	10
	2	16	189328.1	4.919969	0.8168417	1	4.987317	9.42659	-1.78606E-005	0.0001421	10
	3	19	150421.9	4.933214	0.6387655	1	4.974396	7.37776	2.973388E-005	0.0003597	10
	4	21	119484.4	4.95038	0.4783508	1	4.973438	5.519304	2.326418E-005	0.0004965	10
	5	24	94921.88	4.974802	0.3693783	1	4.988496	4.246411	-7.078755E-006	0.0005338	10
	6	26	75421.88	4.993098	0.255092	1	4.99961	2.924636	3.550452E-006	0.0005388	10
	7	29	59859.37	5.014265	0.1547942	1	5.016654	1.768203	2.851241E-006	0.0005566	10
	8	31	47578.12	5.038233	0.0634966	1	5.038633	0.7220575	-2.275954E-005	0.0006512	10
	9	34	37828.12	5.062878	-0.0232736	1	5.062932	-0.2633815	1.584707E-005	0.0006084	10
	10	36	30046.88	5.091468	-0.1088264	1	5.092631	-1.224469	1.713095E-005	0.0006137	10
	11	39	23859.38	5.119696	-0.1971039	1	5.123489	-2.20475	2.036387E-005	0.0006268	10
	12	41	18984.38	5.149111	-0.2924967	1	5.157412	-3.251209	1.693991E-005	0.0006291	10
	13	43	15046.87	5.181402	-0.4019303	1	5.196968	-4.435649	-1.584099E-005	0.0007149	10
	14	46	11953.13	5.216342	-0.5283279	1	5.243029	-5.78338	-2.879227E-005	0.0007119	10
	15	48	9515.62	5.254637	-0.6761395	1	5.29796	-7.332234	1.342773E-005	0.0006453	10
	16	50	7546.875	5.299461	-0.8576552	1	5.368413	-9.192938	2.121769E-005	0.0006464	10
	17	53	5928.309	5.35166	-1.086808	1	5.460899	-11.47945	1.963114E-005	0.0006644	10
	18	55	4733.456	5.409321	-1.348304	1	5.574826	-13.9961	1.593608E-005	0.0006638	10
	19	57	3796.875	5.475526	-1.658798	1	5.721276	-16.85407	4.085466E-006	0.0006473	10
	20	60	2987.132	5.558461	-2.074256	1	5.932877	-20.46412	-1.985009E-005	0.0006979	10
	21	62	2390.625	5.651279	-2.547049	1	6.198743	-24.26123	-9.354036E-006	0.0007109	10
	22	64	1884.191	5.766297	-3.166714	1	6.578622	-28.77455	-1.788539E-005	0.0006784	10
	23	67	1516.544	5.892901	-3.860874	1	7.045043	-33.23177	2.239414E-005	0.0006664	10
	24	69	1193.986	6.058148	-4.798938	1	7.728581	-38.38436	-1.139082E-005	0.0006709	10
	25	71	946.5144	6.25157	-5.928095	1	8.61536	-43.47866	-2.170153E-005	0.0007267	10
	26	74	751.7689	6.483366	-7.309282	1	9.77034	-48.42683	2.309112E-005	0.0006463	10
	27	76	597.4265	6.760063	-9.010966	1	11.26481	-53.12262	-2.633412E-005	0.0007038	10
	28	78	477.4305	7.094004	-11.04892	1	13.13025	-57.29735	-1.377655E-006	0.0006865	10
	29	81	376.6741	7.527414	-13.714	1	15.64403	-61.23827	-1.055654E-006	0.0006775	10
	30	83	298.2954	8.061206	-16.96931	1	18.78671	-64.59013	-5.499761E-006	0.0007281	10
	31	85	237.7717	8.717851	-20.87837	1	22.62537	-67.33682	-1.864773E-006	0.0006741	10
	32	88	189.0121	9.56529	-25.75623	1	27.47505	-69.62612	-2.019757E-006	0.0006796	10
	33	90	150.2404	10.66832	-31.77675	1	33.51977	-71.4417	-1.660438E-006	0.0006788	10
	34	92	119.1737	12.12954	-39.25845	1	41.08955	-72.83061	-1.729487E-006	0.0006794	10
	35	95	95.0169	14.00779	-48.17044	1	50.16582	-73.78577	1.658284E-006	7.761396E-005	9
	36	97	75.60484	16.55222	-59.20246	1	61.47282	-74.37971	1.580726E-006	7.423596E-005	9
	37	100	54.50582	21.74416	-79.19955	1	82.13025	-74.64777	1.492026E-006	7.551318E-005	9
	38	102	45.95588	25.42942	-91.99797	1	95.4478	-74.54852	1.626433E-006	8.363418E-005	9
	39	105	37.20238	31.17323	-110.3687	1	114.6866	-74.22787	1.743276E-006	7.547408E-005	9
	40	107	30.04808	38.57582	-132.1505	1	137.6658	-73.72704	1.639606E-006	7.993352E-005	9
	41	110	23.91582	48.58647	-159.3818	1	166.6229	-73.04651	1.459414E-006	7.807187E-005	9
	42	112	18.60119	62.41892	-194.863	1	204.616	-72.23859	1.344188E-006	7.900902E-005	9
	43	114	15.02404	76.61968	-230.0242	1	242.4494	-71.57739	1.426211E-006	0.0001362	9
	44	116	12.01923	93.94412	-272.5916	1	288.3256	-70.98434	1.66929E-006	7.613164E-005	9
	45	119	9.450605	115.0996	-326.5847	1	346.2737	-70.58579	1.745189E-006	7.093319E-005	9
	46	121	7.512019	137.4621	-388.0163	1	411.646	-70.49235	1.85417E-006	8.730951E-005	9
	47	124	5.978954	161.0988	-459.9515	1	487.3481	-70.69711	7.625817E-007	0.0006522	8
	48	127	4.734848	188.4657	-551.4821	1	582.7965	-71.13245	8.051875E-007	0.0006795	8
	49	130	3.75601	219.0793	-663.9786	1	699.1877	-71.73972	7.472797E-007	0.0006481	8
	50	134	3.004808	252.5002	-797.5325	1	836.5491	-72.43212	7.350435E-007	0.0006958	8
	51	138	2.372217	294.3938	-973.76	1	1017.288	-73.17851	7.056968E-007	0.0007216	8
	52	142	1.878005	346.9778	-1190.57	1	1240.101	-73.75185	7.178307E-007	0.0006292	8
	53	147	1.512097	409.1175	-1439	1	1496.028	-74.12919	6.956573E-007	0.0007945	8
	54	152	1.201923	491.9897	-1765.695	1	1832.958	-74.43015	7.125827E-007	0.0006268	8
	55	158	0.956633	602.7167	-2164.963	1	2247.295	-74.44302	6.356379E-007	1.021941E-005	8
