EXPLAIN
TAG	EISPOT
TITLE	LABEL	Potentiostatic EIS	Test Identifier
DATE	LABEL	8/9/2020	Date
TIME	LABEL	20:54:47	Time
NOTES	NOTES	1	Notes...
	
PSTAT	PSTAT	REF3000-16137	Potentiostat
VDC	POTEN	0.00000E+000	T	DC Voltage (V)
FREQINIT	QUANT	3.00000E+005	Initial Freq. (Hz)
FREQFINAL	QUANT	1.00000E+000	Final Freq. (Hz)
PTSPERDEC	QUANT	1.00000E+001	Points/decade
VAC	QUANT	5.00000E+001	AC Voltage (mV rms)
AREA	QUANT	1.00000E+000	Sample Area (cm^2)
SPEED	SELECTOR	2	Optimize for:
ZGUESS	QUANT	1.00000E+003	Estimated Z (ohms)
EOC	QUANT	0	Open Circuit (V)
SEQUENCER	TOGGLE	TRUE	Run as Sequence
PSTATMODEL	IQUANT	5	Pstat Model
PSTATSECTION	LABEL	REF3000-16137	Pstat Section
PSTATSERIALNO	LABEL	16137	Pstat Serial Number
CTRLMODE	IQUANT	1	Control Mode
IESTAB	IQUANT	0	I/E Stability
CASPEED	IQUANT	1	Control Amp Speed
CONVENTION	IQUANT	1	Current Convention
ICHRANGE	IQUANT	2	Ich Range
ICHRANGEMODE	TOGGLE	F	Ich Auto Range
ICHOFFSETENABLE	TOGGLE	T	Ich Offset Enable
ICHOFFSET	QUANT	0	Ich Offset (V)
ICHFILTER	IQUANT	3	Ich Filter
VCHRANGE	IQUANT	2	Vch Range
VCHRANGEMODE	TOGGLE	F	Vch Auto Range
VCHOFFSETENABLE	TOGGLE	T	Vch Offset Enable
VCHOFFSET	QUANT	0	Vch Offset (V)
VCHFILTER	IQUANT	3	Vch Filter
ACHRANGE	IQUANT	2	Ach Range
ACHOFFSETENABLE	TOGGLE	F	Ach Offset Enable
ACHOFFSET	QUANT	0	Ach Offset (V)
ACHFILTER	IQUANT	3	Ach Filter
IERANGELOWERLIMIT	IQUANT	2	I/E Range Lower Limit
IERANGEMODE	TOGGLE	F	I/E AutoRange
IERANGE	IQUANT	11	I/E Range
POSFEEDENABLE	TOGGLE	F	Positive Feedback IR Comp
POSFEEDRESISTANCE	QUANT	0	Positive Feedback Resistance (ohm)
ACHSELECT	IQUANT	0	Ach Select
CABLEID	IQUANT	13	Cable ID
DCCALDATE	LABEL	7/31/2020	DC Calibration Date
ACCALDATE	LABEL	7/31/2020	AC Calibration Date
THERMOSELECT	IQUANT	1	Thermo Select
FRAMEWORKVERSION	QUANT	6.33	Framework Version
INSTRUMENTVERSION	LABEL	3.50	Instrument Version
COMPLIANCEVOLTAGE	IQUANT	0	Compliance Voltage
ZCURVE	TABLE
	Pt	Time	Freq	Zreal	Zimag	Zsig	Zmod	Zphz	Idc	Vdc	IERange
	#	s	Hz	ohm	ohm	V	ohm	°	A	V	#
	0	10	300046.9	3.149872	1.302907	1	3.408704	22.47184	-0.0001235	-0.0001444	11
	1	13	238359.4	3.135446	1.027059	1	3.299375	18.13693	-9.029225E-005	-8.028455E-005	11
	2	16	189328.1	3.118975	0.8043052	1	3.221011	14.4601	-2.166785E-005	0.0001916	11
	3	19	150421.9	3.118709	0.6264256	1	3.180999	11.35733	-0.0001111	0.0003743	11
	4	21	119484.4	3.108888	0.4745047	1	3.144891	8.677995	2.742436E-006	0.0005113	11
	5	24	94921.88	3.106856	0.3516884	1	3.126697	6.458251	-2.418097E-005	0.0005475	11
	6	27	75421.88	3.108297	0.2458213	1	3.118002	4.521854	2.895328E-005	0.0006283	11
	7	29	59859.37	3.10988	0.1532076	1	3.113652	2.820384	-4.321199E-005	0.0006015	11
	8	32	47578.12	3.113555	0.0701853	1	3.114346	1.291334	-2.525392E-005	0.0006591	11
	9	34	37828.12	3.117204	-0.0082703	1	3.117215	-0.1520117	1.788196E-005	0.0006736	11
	10	37	30046.88	3.122259	-0.0857725	1	3.123437	-1.573594	1.683682E-005	0.0006727	11
	11	39	23859.38	3.129393	-0.1664162	1	3.133815	-3.044032	-4.004846E-005	0.0006472	11
	12	42	18984.38	3.138132	-0.2531449	1	3.148326	-4.611914	-4.066485E-005	0.0007152	11
	13	44	15046.87	3.149036	-0.3522648	1	3.168678	-6.382818	2.322364E-006	0.0006828	11
	14	46	11953.13	3.161991	-0.4658259	1	3.19612	-8.380557	-3.834079E-005	0.0006545	11
	15	49	9515.62	3.178797	-0.5985762	1	3.234663	-10.66408	-2.024851E-005	0.0007077	11
	16	51	7546.875	3.197178	-0.7608822	1	3.28647	-13.38655	-1.598326E-005	0.0007092	11
	17	53	5928.309	3.224066	-0.964777	1	3.365322	-16.65941	6.264213E-006	0.0006903	11
	18	55	4733.456	3.255716	-1.197351	1	3.46891	-20.19196	-2.346927E-005	0.0006834	11
	19	58	3796.875	3.293872	-1.474298	1	3.60876	-24.11273	3.182775E-005	0.0007229	11
	20	60	2987.132	3.349099	-1.843346	1	3.822877	-28.82841	2.436977E-005	0.0006582	10
	21	62	2390.625	3.40884	-2.265848	1	4.093196	-33.61189	1.14279E-005	0.0006417	10
	22	65	1884.191	3.488443	-2.819303	1	4.485276	-38.94459	-1.871965E-005	0.000687	10
	23	67	1516.544	3.57822	-3.439212	1	4.963048	-43.86517	2.499317E-005	0.0006621	10
	24	69	1193.986	3.70172	-4.280424	1	5.659042	-49.14667	-2.122509E-005	0.0006859	10
	25	72	946.5144	3.850587	-5.294886	1	6.546971	-53.97432	-2.790177E-005	0.000673	10
	26	74	751.7689	4.043163	-6.535502	1	7.685048	-58.25716	-2.024813E-005	0.0006875	10
	27	76	597.4265	4.281928	-8.063489	1	9.129883	-62.0305	-2.372561E-005	0.0006886	10
	28	79	477.4305	4.585096	-9.89575	1	10.90637	-65.13982	8.721855E-007	0.0006888	10
	29	81	376.6741	5.001791	-12.28728	1	13.26631	-67.8502	5.761867E-007	0.000673	10
	30	83	298.2954	5.545183	-15.19805	1	16.17807	-69.95493	9.901875E-007	0.00068	10
	31	86	237.7717	6.248785	-18.66867	1	19.68671	-71.49355	4.581945E-007	0.0006741	10
	32	88	189.0121	7.200453	-22.96014	1	24.06272	-72.58823	5.864867E-007	0.0006758	10
	33	91	150.2404	8.479011	-28.18315	1	29.431	-73.25588	5.061813E-007	0.0006723	10
	34	93	119.1737	10.20361	-34.56007	1	36.03487	-73.55114	8.9316E-007	0.0006847	10
	35	95	95.0169	12.42528	-41.98499	1	43.78501	-73.51411	2.880387E-006	7.126962E-005	9
	36	98	75.60484	15.36868	-50.93684	1	53.20487	-73.21037	2.767047E-006	7.510318E-005	9
	37	100	54.50582	21.0467	-66.59219	1	69.83899	-72.46067	2.521728E-006	7.896026E-005	9
	38	103	45.95588	24.79342	-76.27327	1	80.20177	-71.99271	2.961244E-006	8.234517E-005	9
	39	105	37.20238	30.2092	-89.87508	1	94.81627	-71.42125	2.768778E-006	8.090361E-005	9
	40	108	30.04808	36.54237	-105.761	1	111.8961	-70.93903	2.672726E-006	7.409398E-005	9
	41	110	23.91582	44.35324	-125.6577	1	133.2556	-70.55856	2.534014E-006	8.039958E-005	9
	42	112	18.60119	53.93148	-151.8425	1	161.1358	-70.44596	3.00382E-006	8.584501E-005	9
	43	115	15.02404	63.05841	-178.5421	1	189.3506	-70.54754	2.940933E-006	7.365787E-005	9
	44	117	12.01923	73.75623	-212.174	1	224.6281	-70.83145	2.652285E-006	7.139232E-005	9
	45	119	9.450605	86.92131	-256.702	1	271.0188	-71.2935	2.829322E-006	8.169448E-005	9
	46	122	7.512019	101.6979	-309.2185	1	325.5127	-71.79465	2.996305E-006	0.0000971	9
	47	125	5.978954	119.8539	-373.6143	1	392.3679	-72.21398	2.901899E-006	7.84207E-005	9
	48	128	4.734848	142.9606	-452.8875	1	474.9156	-72.48093	2.002897E-006	0.000683	8
	49	131	3.75601	174.1016	-551.684	1	578.5037	-72.48524	1.855496E-006	0.0006495	8
	50	134	3.004808	214.7044	-667.2742	1	700.9657	-72.16373	1.84004E-006	0.0006789	8
	51	138	2.372217	275.4341	-815.1316	1	860.4089	-71.32981	1.836078E-006	0.0007195	8
	52	142	1.878005	357.935	-990.751	1	1053.425	-70.1364	1.700836E-006	0.0006323	8
	53	147	1.512097	463.0572	-1176.576	1	1264.418	-68.51721	1.769802E-006	0.000651	8
	54	152	1.201923	620.215	-1405.184	1	1535.972	-66.18447	1.719567E-006	0.0006276	8
	55	159	0.956633	829.6602	-1648.978	1	1845.931	-63.29138	1.546468E-006	1.238243E-005	8
