EXPLAIN
TAG	EISPOT
TITLE	LABEL	Potentiostatic EIS	Test Identifier
DATE	LABEL	8/9/2020	Date
TIME	LABEL	20:57:35	Time
NOTES	NOTES	1	Notes...
	
PSTAT	PSTAT	REF3000-16137	Potentiostat
VDC	POTEN	0.00000E+000	T	DC Voltage (V)
FREQINIT	QUANT	3.00000E+005	Initial Freq. (Hz)
FREQFINAL	QUANT	1.00000E+000	Final Freq. (Hz)
PTSPERDEC	QUANT	1.00000E+001	Points/decade
VAC	QUANT	5.00000E+001	AC Voltage (mV rms)
AREA	QUANT	1.00000E+000	Sample Area (cm^2)
SPEED	SELECTOR	2	Optimize for:
ZGUESS	QUANT	1.00000E+003	Estimated Z (ohms)
EOC	QUANT	0	Open Circuit (V)
SEQUENCER	TOGGLE	TRUE	Run as Sequence
PSTATMODEL	IQUANT	5	Pstat Model
PSTATSECTION	LABEL	REF3000-16137	Pstat Section
PSTATSERIALNO	LABEL	16137	Pstat Serial Number
CTRLMODE	IQUANT	1	Control Mode
IESTAB	IQUANT	0	I/E Stability
CASPEED	IQUANT	1	Control Amp Speed
CONVENTION	IQUANT	1	Current Convention
ICHRANGE	IQUANT	2	Ich Range
ICHRANGEMODE	TOGGLE	F	Ich Auto Range
ICHOFFSETENABLE	TOGGLE	T	Ich Offset Enable
ICHOFFSET	QUANT	0	Ich Offset (V)
ICHFILTER	IQUANT	3	Ich Filter
VCHRANGE	IQUANT	2	Vch Range
VCHRANGEMODE	TOGGLE	F	Vch Auto Range
VCHOFFSETENABLE	TOGGLE	T	Vch Offset Enable
VCHOFFSET	QUANT	0	Vch Offset (V)
VCHFILTER	IQUANT	3	Vch Filter
ACHRANGE	IQUANT	2	Ach Range
ACHOFFSETENABLE	TOGGLE	F	Ach Offset Enable
ACHOFFSET	QUANT	0	Ach Offset (V)
ACHFILTER	IQUANT	3	Ach Filter
IERANGELOWERLIMIT	IQUANT	2	I/E Range Lower Limit
IERANGEMODE	TOGGLE	F	I/E AutoRange
IERANGE	IQUANT	11	I/E Range
POSFEEDENABLE	TOGGLE	F	Positive Feedback IR Comp
POSFEEDRESISTANCE	QUANT	0	Positive Feedback Resistance (ohm)
ACHSELECT	IQUANT	0	Ach Select
CABLEID	IQUANT	13	Cable ID
DCCALDATE	LABEL	7/31/2020	DC Calibration Date
ACCALDATE	LABEL	7/31/2020	AC Calibration Date
THERMOSELECT	IQUANT	1	Thermo Select
FRAMEWORKVERSION	QUANT	6.33	Framework Version
INSTRUMENTVERSION	LABEL	3.50	Instrument Version
COMPLIANCEVOLTAGE	IQUANT	0	Compliance Voltage
ZCURVE	TABLE
	Pt	Time	Freq	Zreal	Zimag	Zsig	Zmod	Zphz	Idc	Vdc	IERange
	#	s	Hz	ohm	ohm	V	ohm	°	A	V	#
	0	10	300046.9	3.202976	1.285099	1	3.451164	21.86166	8.715112E-005	-0.0001496	11
	1	13	238359.4	3.180329	1.02107	1	3.340221	17.79964	2.023427E-005	-2.988107E-005	11
	2	16	189328.1	3.169183	0.800818	1	3.268797	14.18116	2.42592E-005	0.0002642	11
	3	19	150421.9	3.15832	0.6216279	1	3.218914	11.13476	-7.946392E-005	0.0003987	11
	4	21	119484.4	3.158253	0.4730951	1	3.19349	8.519361	-2.086615E-005	0.0004987	11
	5	24	94921.88	3.15846	0.3505908	1	3.177858	6.333935	-2.51543E-005	0.0005886	11
	6	27	75421.88	3.159839	0.2439835	1	3.169244	4.415271	-2.288152E-005	0.0005684	11
	7	29	59859.37	3.163281	0.1510012	1	3.166883	2.732975	-8.258487E-006	0.0006197	11
	8	32	47578.12	3.167858	0.0677658	1	3.168583	1.225467	3.418149E-005	0.0006948	11
	9	34	37828.12	3.173024	-0.0108907	1	3.173043	-0.1966546	-4.357711E-005	0.0006304	11
	10	37	30046.88	3.179582	-0.0890255	1	3.180828	-1.603813	-4.669525E-005	0.0006339	11
	11	39	23859.38	3.188556	-0.1702629	1	3.193099	-3.056584	-3.141721E-005	0.0006854	11
	12	42	18984.38	3.19784	-0.2576818	1	3.208206	-4.606937	2.083337E-005	0.0006918	11
	13	44	15046.87	3.210373	-0.3575529	1	3.230223	-6.355083	-8.849385E-006	0.0006716	11
	14	46	11953.13	3.225921	-0.4728108	1	3.260386	-8.338254	-4.900952E-005	0.0006464	11
	15	49	9515.62	3.241922	-0.6058874	1	3.298054	-10.58597	-1.036411E-005	0.0006933	11
	16	51	7546.875	3.264614	-0.7700674	1	3.354208	-13.27249	2.747962E-005	0.0007095	11
	17	53	5928.309	3.2944	-0.976745	1	3.436146	-16.51438	2.814292E-005	0.0007071	11
	18	56	4733.456	3.329135	-1.211889	1	3.542854	-20.00278	1.677109E-006	0.0006934	11
	19	58	3796.875	3.373613	-1.491876	1	3.688761	-23.85592	2.233169E-005	0.000649	10
	20	60	2987.132	3.429316	-1.866136	1	3.904186	-28.55377	-2.238418E-005	0.0007332	10
	21	62	2390.625	3.492529	-2.293274	1	4.178141	-33.28981	-2.669792E-005	0.0006672	10
	22	65	1884.191	3.576613	-2.85365	1	4.575531	-38.5851	-1.968444E-005	0.0006851	10
	23	67	1516.544	3.671709	-3.479872	1	5.058751	-43.46344	5.479163E-006	0.0006466	10
	24	69	1193.986	3.801127	-4.330134	1	5.761825	-48.72233	-9.490778E-006	0.0006644	10
	25	72	946.5144	3.960087	-5.351851	1	6.657672	-53.50051	-1.798617E-005	0.0007517	10
	26	74	751.7689	4.15194	-6.608028	1	7.804143	-57.85814	6.859859E-006	0.000658	10
	27	77	597.4265	4.398776	-8.151168	1	9.26233	-61.64649	-4.71466E-006	0.0006805	10
	28	79	477.4305	4.710809	-10.00186	1	11.05572	-64.77989	2.593721E-007	0.0006742	10
	29	81	376.6741	5.136248	-12.41727	1	13.43762	-67.52819	5.996063E-007	0.0006675	10
	30	83	298.2954	5.689271	-15.35748	1	16.37742	-69.67255	1.577835E-007	0.0006801	10
	31	86	237.7717	6.401669	-18.86472	1	19.92132	-71.25556	-3.263457E-007	0.0006735	10
	32	88	189.0121	7.365408	-23.20415	1	24.34506	-72.38964	-2.445017E-007	0.0006683	10
	33	91	150.2404	8.657001	-28.49018	1	29.7764	-73.09811	-1.826298E-007	0.000672	10
	34	93	119.1737	10.40275	-34.95079	1	36.46608	-73.42489	-2.727417E-008	0.0006722	10
	35	95	95.0169	12.65343	-42.47833	1	44.32288	-73.41228	2.354826E-006	7.045992E-005	9
	36	98	75.60484	15.64419	-51.5614	1	53.88245	-73.12173	2.263571E-006	7.474393E-005	9
	37	100	54.50582	21.43886	-67.45104	1	70.77618	-72.36749	2.116098E-006	6.882372E-005	9
	38	103	45.95588	25.28364	-77.28717	1	81.3177	-71.88506	2.527217E-006	7.857945E-005	9
	39	105	37.20238	30.84631	-91.0974	1	96.1781	-71.29349	2.397421E-006	7.580601E-005	9
	40	108	30.04808	37.37083	-107.1582	1	113.4877	-70.77407	2.30628E-006	7.318261E-005	9
	41	110	23.91582	45.41202	-127.2689	1	135.1281	-70.3626	2.186855E-006	7.333721E-005	9
	42	113	18.60119	55.28389	-153.5639	1	163.2121	-70.20084	2.616741E-006	6.510323E-005	9
	43	115	15.02404	64.60497	-180.4646	1	191.6801	-70.30302	2.597862E-006	8.406118E-005	9
	44	117	12.01923	75.4445	-214.234	1	227.1301	-70.59981	2.074858E-006	0.0001247	9
	45	120	9.450605	88.69312	-259.0496	1	273.8123	-71.09988	2.483354E-006	6.112835E-005	9
	46	122	7.512019	103.6331	-312.1592	1	328.9121	-71.63445	2.599129E-006	8.171766E-005	9
	47	125	5.978954	121.345	-376.9703	1	396.0192	-72.15688	2.512524E-006	0.0001303	9
	48	128	4.734848	144.0954	-457.5125	1	479.6678	-72.51797	1.531944E-006	0.0006508	8
	49	131	3.75601	173.9831	-557.7999	1	584.3038	-72.6768	1.638829E-006	0.0006593	8
	50	134	3.004808	213.1454	-675.6531	1	708.4758	-72.4913	1.506679E-006	0.0006838	8
	51	138	2.372217	270.1515	-827.3409	1	870.3303	-71.9166	1.498205E-006	0.0007014	8
	52	142	1.878005	351.3414	-1007.871	1	1067.354	-70.78156	1.533749E-006	0.0006276	8
	53	147	1.512097	453.8146	-1204.908	1	1287.537	-69.3617	1.495599E-006	0.0007494	8
	54	153	1.201923	603.78	-1445.183	1	1566.239	-67.32542	1.508864E-006	0.0006244	8
	55	159	0.956633	805.4092	-1711.595	1	1891.624	-64.80017	1.251766E-006	6.924136E-006	8
