EXPLAIN
TAG	EISPOT
TITLE	LABEL	Potentiostatic EIS	Test Identifier
DATE	LABEL	8/9/2020	Date
TIME	LABEL	21:22:37	Time
NOTES	NOTES	1	Notes...
	
PSTAT	PSTAT	REF3000-16137	Potentiostat
VDC	POTEN	0.00000E+000	T	DC Voltage (V)
FREQINIT	QUANT	3.00000E+005	Initial Freq. (Hz)
FREQFINAL	QUANT	1.00000E+000	Final Freq. (Hz)
PTSPERDEC	QUANT	1.00000E+001	Points/decade
VAC	QUANT	5.00000E+001	AC Voltage (mV rms)
AREA	QUANT	1.00000E+000	Sample Area (cm^2)
SPEED	SELECTOR	2	Optimize for:
ZGUESS	QUANT	1.00000E+003	Estimated Z (ohms)
EOC	QUANT	0	Open Circuit (V)
SEQUENCER	TOGGLE	TRUE	Run as Sequence
PSTATMODEL	IQUANT	5	Pstat Model
PSTATSECTION	LABEL	REF3000-16137	Pstat Section
PSTATSERIALNO	LABEL	16137	Pstat Serial Number
CTRLMODE	IQUANT	1	Control Mode
IESTAB	IQUANT	0	I/E Stability
CASPEED	IQUANT	1	Control Amp Speed
CONVENTION	IQUANT	1	Current Convention
ICHRANGE	IQUANT	2	Ich Range
ICHRANGEMODE	TOGGLE	F	Ich Auto Range
ICHOFFSETENABLE	TOGGLE	T	Ich Offset Enable
ICHOFFSET	QUANT	0	Ich Offset (V)
ICHFILTER	IQUANT	3	Ich Filter
VCHRANGE	IQUANT	2	Vch Range
VCHRANGEMODE	TOGGLE	F	Vch Auto Range
VCHOFFSETENABLE	TOGGLE	T	Vch Offset Enable
VCHOFFSET	QUANT	0	Vch Offset (V)
VCHFILTER	IQUANT	3	Vch Filter
ACHRANGE	IQUANT	2	Ach Range
ACHOFFSETENABLE	TOGGLE	F	Ach Offset Enable
ACHOFFSET	QUANT	0	Ach Offset (V)
ACHFILTER	IQUANT	3	Ach Filter
IERANGELOWERLIMIT	IQUANT	2	I/E Range Lower Limit
IERANGEMODE	TOGGLE	F	I/E AutoRange
IERANGE	IQUANT	11	I/E Range
POSFEEDENABLE	TOGGLE	F	Positive Feedback IR Comp
POSFEEDRESISTANCE	QUANT	0	Positive Feedback Resistance (ohm)
ACHSELECT	IQUANT	0	Ach Select
CABLEID	IQUANT	13	Cable ID
DCCALDATE	LABEL	7/31/2020	DC Calibration Date
ACCALDATE	LABEL	7/31/2020	AC Calibration Date
THERMOSELECT	IQUANT	1	Thermo Select
FRAMEWORKVERSION	QUANT	6.33	Framework Version
INSTRUMENTVERSION	LABEL	3.50	Instrument Version
COMPLIANCEVOLTAGE	IQUANT	0	Compliance Voltage
ZCURVE	TABLE
	Pt	Time	Freq	Zreal	Zimag	Zsig	Zmod	Zphz	Idc	Vdc	IERange
	#	s	Hz	ohm	ohm	V	ohm	°	A	V	#
	0	7	300046.9	155.0003	-3.287539	1	155.0351	-1.215055	4.951402E-005	-0.0005006	9
	1	11	238359.4	159.5506	-2.940835	1	159.5777	-1.055956	-2.390905E-005	0.001102	9
	2	14	189328.1	160.7713	-2.758308	1	160.795	-0.982911	3.174737E-005	0.0004428	9
	3	16	150421.9	163.2852	-2.268326	1	163.3009	-0.7958905	-7.578505E-005	0.0032324	9
	4	19	119484.4	166.4363	-2.374168	1	166.4533	-0.8172531	-6.241374E-006	-0.0012915	9
	5	21	94921.88	168.7853	-1.684552	1	168.7937	-0.5718182	2.768705E-005	-0.0006768	9
	6	24	75421.88	171.4826	-1.650329	1	171.4905	-0.5513912	-1.558713E-005	0.0008814	9
	7	26	59859.37	174.2196	-1.483262	1	174.226	-0.4877902	-1.894768E-005	0.0003343	9
	8	29	47578.12	176.8771	-1.355361	1	176.8823	-0.4390333	2.020722E-005	-5.979016E-005	9
	9	31	37828.12	179.7793	-1.308599	1	179.784	-0.4170442	-2.219288E-005	0.0009835	9
	10	34	30046.88	182.3974	-1.230778	1	182.4015	-0.3866138	-1.520548E-005	0.000111	9
	11	36	23859.38	185.263	-1.313356	1	185.2677	-0.4061711	1.483394E-006	0.0006333	9
	12	39	18984.38	187.9267	-1.185119	1	187.9305	-0.3613186	2.620459E-005	-0.0009371	9
	13	41	15046.87	190.9518	-1.460684	1	190.9574	-0.4382749	8.730543E-007	0.0006514	9
	14	43	11953.13	193.2776	-1.680904	1	193.2849	-0.4982798	2.668603E-005	-0.0004518	9
	15	46	9515.62	196.133	-1.684788	1	196.1403	-0.4921602	1.782222E-005	-0.000763	9
	16	48	7546.875	199.0555	-1.971376	1	199.0653	-0.5674188	8.245658E-006	-0.000649	9
	17	50	5928.309	201.7145	-2.311344	1	201.7278	-0.6564946	2.785055E-005	-0.0006622	9
	18	53	4733.456	205.1001	-2.997169	1	205.1219	-0.8372152	2.443161E-005	-0.0002514	9
	19	55	3796.875	207.6506	-3.270072	1	207.6764	-0.9022166	2.617022E-005	-0.0007788	9
	20	57	2987.132	210.8982	-4.000915	1	210.9362	-1.086818	-2.300993E-005	0.0006943	9
	21	60	2390.625	214.0049	-4.43648	1	214.0508	-1.187614	2.252231E-005	-0.0002236	9
	22	62	1884.191	217.674	-6.027153	1	217.7574	-1.586052	-1.168499E-006	-0.000378	9
	23	64	1516.544	220.6333	-7.351746	1	220.7558	-1.908453	2.800796E-005	-0.0006644	9
	24	66	1193.986	224.552	-8.770096	1	224.7232	-2.236606	-2.456864E-005	0.000727	9
	25	69	946.5144	228.1126	-11.13412	1	228.3842	-2.794374	-2.260387E-005	0.0005112	9
	26	71	751.7689	232.4017	-13.6479	1	232.8021	-3.360862	2.420023E-005	-0.0002416	9
	27	74	597.4265	235.8819	-16.71614	1	236.4734	-4.053578	-9.014189E-006	-0.0000991	9
	28	76	477.4305	239.8574	-20.77476	1	240.7554	-4.950203	1.247185E-006	7.420037E-005	9
	29	78	376.6741	244.2045	-25.80338	1	245.564	-6.031662	1.252576E-006	7.483386E-005	9
	30	81	298.2954	248.896	-31.93385	1	250.9362	-7.311221	1.273816E-006	7.400899E-005	9
	31	83	237.7717	254.0986	-39.26533	1	257.1145	-8.784318	1.275073E-006	7.230711E-005	9
	32	85	189.0121	259.7674	-48.34843	1	264.2285	-10.54336	1.216443E-006	7.222235E-005	9
	33	88	150.2404	266.0141	-59.45362	1	272.577	-12.59845	1.186334E-006	7.179566E-005	9
	34	90	119.1737	272.9565	-73.14816	1	282.5878	-15.0019	1.235064E-006	7.533745E-005	9
	35	93	95.0169	280.7254	-89.42201	1	294.6236	-17.66871	1.291166E-006	7.311088E-005	9
	36	95	75.60484	289.6843	-109.3341	1	309.6303	-20.67775	1.286526E-006	7.202521E-005	9
	37	98	54.50582	302.6141	-145.2056	1	335.6486	-25.63344	1.248423E-006	6.984938E-005	9
	38	100	45.95588	312.4405	-168.4077	1	354.9369	-28.32499	1.228547E-006	7.218926E-005	9
	39	102	37.20238	323.1683	-201.1801	1	380.672	-31.90326	-1.080098E-008	0.000655	8
	40	105	30.04808	336.945	-241.6919	1	414.6648	-35.65202	-1.670866E-008	0.0006495	8
	41	107	23.91582	353.1587	-294.0563	1	459.5544	-39.78233	-5.911921E-008	0.0006508	8
	42	110	18.60119	372.5249	-364.9735	1	521.5175	-44.41336	-9.724929E-008	0.000652	8
	43	112	15.02404	391.8819	-438.9333	1	588.4163	-48.24136	-9.534878E-009	0.000637	8
	44	114	12.01923	414.7987	-533.3137	1	675.6341	-52.12507	4.836517E-008	0.0006504	8
	45	117	9.450605	442.4317	-659.0592	1	793.7914	-56.12622	-7.821784E-009	0.0006321	8
	46	119	7.512019	473.7036	-808.1484	1	936.7491	-59.62291	-4.131446E-008	0.0006323	8
	47	122	5.978954	511.2415	-990.995	1	1115.096	-62.71138	-4.184716E-009	0.0006522	8
	48	125	4.734848	557.0286	-1224.42	1	1345.172	-65.53767	-7.115293E-008	0.0006288	8
	49	128	3.75601	612.528	-1510.059	1	1629.561	-67.92095	2.671289E-008	0.0006616	8
	50	132	3.004808	678.091	-1850.559	1	1970.882	-69.87591	-2.30917E-008	0.0006594	8
	51	135	2.372217	764.8918	-2294.899	1	2419.012	-71.56673	-5.322442E-008	0.0006514	8
	52	140	1.878005	877.9137	-2850.459	1	2982.591	-72.88168	-1.822783E-008	0.0006286	8
	53	144	1.512097	1005.294	-3481.187	1	3623.435	-73.8924	-4.509625E-008	0.0007364	8
	54	150	1.201923	1188.643	-4316.004	1	4476.691	-74.60226	4.964861E-009	0.0006154	7
	55	156	0.956633	1412.163	-5326.162	1	5510.19	-75.15044	-4.621585E-008	-1.829274E-005	7
