EXPLAIN
TAG	EISPOT
TITLE	LABEL	Potentiostatic EIS	Test Identifier
DATE	LABEL	8/9/2020	Date
TIME	LABEL	21:08:48	Time
NOTES	NOTES	1	Notes...
	
PSTAT	PSTAT	REF3000-16137	Potentiostat
VDC	POTEN	0.00000E+000	T	DC Voltage (V)
FREQINIT	QUANT	3.00000E+005	Initial Freq. (Hz)
FREQFINAL	QUANT	1.00000E+000	Final Freq. (Hz)
PTSPERDEC	QUANT	1.00000E+001	Points/decade
VAC	QUANT	5.00000E+001	AC Voltage (mV rms)
AREA	QUANT	1.00000E+000	Sample Area (cm^2)
SPEED	SELECTOR	2	Optimize for:
ZGUESS	QUANT	1.00000E+003	Estimated Z (ohms)
EOC	QUANT	0	Open Circuit (V)
SEQUENCER	TOGGLE	TRUE	Run as Sequence
PSTATMODEL	IQUANT	5	Pstat Model
PSTATSECTION	LABEL	REF3000-16137	Pstat Section
PSTATSERIALNO	LABEL	16137	Pstat Serial Number
CTRLMODE	IQUANT	1	Control Mode
IESTAB	IQUANT	0	I/E Stability
CASPEED	IQUANT	1	Control Amp Speed
CONVENTION	IQUANT	1	Current Convention
ICHRANGE	IQUANT	2	Ich Range
ICHRANGEMODE	TOGGLE	F	Ich Auto Range
ICHOFFSETENABLE	TOGGLE	T	Ich Offset Enable
ICHOFFSET	QUANT	0	Ich Offset (V)
ICHFILTER	IQUANT	3	Ich Filter
VCHRANGE	IQUANT	2	Vch Range
VCHRANGEMODE	TOGGLE	F	Vch Auto Range
VCHOFFSETENABLE	TOGGLE	T	Vch Offset Enable
VCHOFFSET	QUANT	0	Vch Offset (V)
VCHFILTER	IQUANT	3	Vch Filter
ACHRANGE	IQUANT	2	Ach Range
ACHOFFSETENABLE	TOGGLE	F	Ach Offset Enable
ACHOFFSET	QUANT	0	Ach Offset (V)
ACHFILTER	IQUANT	3	Ach Filter
IERANGELOWERLIMIT	IQUANT	2	I/E Range Lower Limit
IERANGEMODE	TOGGLE	F	I/E AutoRange
IERANGE	IQUANT	11	I/E Range
POSFEEDENABLE	TOGGLE	F	Positive Feedback IR Comp
POSFEEDRESISTANCE	QUANT	0	Positive Feedback Resistance (ohm)
ACHSELECT	IQUANT	0	Ach Select
CABLEID	IQUANT	13	Cable ID
DCCALDATE	LABEL	7/31/2020	DC Calibration Date
ACCALDATE	LABEL	7/31/2020	AC Calibration Date
THERMOSELECT	IQUANT	1	Thermo Select
FRAMEWORKVERSION	QUANT	6.33	Framework Version
INSTRUMENTVERSION	LABEL	3.50	Instrument Version
COMPLIANCEVOLTAGE	IQUANT	0	Compliance Voltage
ZCURVE	TABLE
	Pt	Time	Freq	Zreal	Zimag	Zsig	Zmod	Zphz	Idc	Vdc	IERange
	#	s	Hz	ohm	ohm	V	ohm	°	A	V	#
	0	10	300046.9	6.702675	1.283307	1	6.824421	10.83879	6.210301E-005	0.0001554	10
	1	13	238359.4	6.740542	1.023387	1	6.817788	8.633033	2.265918E-005	1.282811E-005	10
	2	16	189328.1	6.77608	0.8030878	1	6.823504	6.759055	-0.00011	0.0002172	10
	3	19	150421.9	6.818465	0.6235818	1	6.84692	5.225441	-1.475369E-005	0.0004603	10
	4	21	119484.4	6.847166	0.467046	1	6.863076	3.902108	-0.0001084	0.000486	10
	5	24	94921.88	6.889729	0.3628252	1	6.899276	3.014512	1.986464E-005	0.0005381	10
	6	26	75421.88	6.928044	0.2464384	1	6.932425	2.037217	-1.288503E-005	0.0005702	10
	7	29	59859.37	6.969504	0.1417322	1	6.970945	1.165009	1.91827E-005	0.0006285	10
	8	31	47578.12	7.013936	0.0475315	1	7.014097	0.388272	1.731919E-005	0.0005948	10
	9	34	37828.12	7.061792	-0.0400897	1	7.061906	-0.3252636	-1.526377E-005	0.0006737	10
	10	36	30046.88	7.110501	-0.1275044	1	7.111644	-1.027309	2.391903E-005	0.0006295	10
	11	39	23859.38	7.1597	-0.2186945	1	7.163039	-1.749567	-1.358186E-005	0.0006411	10
	12	41	18984.38	7.209039	-0.3180281	1	7.216051	-2.525976	-5.839513E-006	0.0006623	10
	13	44	15046.87	7.260609	-0.4340029	1	7.273568	-3.420785	-2.095468E-005	0.0006611	10
	14	46	11953.13	7.316032	-0.566365	1	7.337922	-4.42668	-8.218233E-006	0.0006573	10
	15	48	9515.62	7.376059	-0.7233247	1	7.41144	-5.600737	3.704213E-006	0.0006339	10
	16	51	7546.875	7.441929	-0.9156066	1	7.498043	-7.01405	2.495953E-005	0.0006599	10
	17	53	5928.309	7.516445	-1.159051	1	7.605284	-8.766078	4.388602E-006	0.0006401	10
	18	55	4733.456	7.597427	-1.437288	1	7.732185	-10.71266	-2.542932E-005	0.0006909	10
	19	57	3796.875	7.686605	-1.770164	1	7.8878	-12.96865	-2.464426E-005	0.0006735	10
	20	60	2987.132	7.795965	-2.211108	1	8.10346	-15.83451	-1.197341E-005	0.000666	10
	21	62	2390.625	7.915965	-2.712628	1	8.367846	-18.91546	1.237617E-005	0.0006341	10
	22	64	1884.191	8.061865	-3.375358	1	8.739949	-22.71819	-1.168283E-005	0.0006619	10
	23	67	1516.544	8.220921	-4.114261	1	9.192968	-26.58624	-2.611447E-005	0.0006875	10
	24	69	1193.986	8.423316	-5.109916	1	9.85208	-31.24265	1.779597E-005	0.0006345	10
	25	72	946.5144	8.654991	-6.309794	1	10.71085	-36.09337	-1.759808E-005	0.0006722	10
	26	74	751.7689	8.926379	-7.765903	1	11.83172	-41.0231	1.766267E-005	0.0006362	10
	27	76	597.4265	9.247415	-9.56577	1	13.30484	-45.96948	-2.706528E-005	0.0006942	10
	28	78	477.4305	9.61925	-11.71795	1	15.16049	-50.61747	-2.499987E-006	0.0006862	10
	29	81	376.6741	10.09284	-14.53112	1	17.69234	-55.2174	-1.918455E-006	0.0006733	10
	30	83	298.2954	10.66237	-17.96667	1	20.89228	-59.31286	-6.171617E-006	0.0007277	10
	31	85	237.7717	11.34541	-22.0941	1	24.83682	-62.81932	-1.826825E-006	0.0006723	10
	32	88	189.0121	12.20133	-27.25219	1	29.85891	-65.88101	-1.720587E-006	0.0006773	10
	33	90	150.2404	13.27567	-33.61898	1	36.14525	-68.45162	-2.065489E-006	0.0007238	10
	34	93	119.1737	14.64503	-41.5168	1	44.02411	-70.56974	1.568484E-006	8.127477E-005	9
	35	95	95.0169	16.39597	-51.08115	1	53.64803	-72.20447	1.468953E-006	7.177171E-005	9
	36	98	75.60484	18.70916	-62.93809	1	65.66	-73.44474	1.040932E-006	0.0001316	9
	37	100	54.50582	23.35898	-84.70135	1	87.8633	-74.58218	1.442522E-006	7.692917E-005	9
	38	103	45.95588	26.68394	-98.8135	1	102.353	-74.8881	1.438165E-006	8.491519E-005	9
	39	105	37.20238	31.89301	-119.3235	1	123.5122	-75.03568	1.383737E-006	7.814987E-005	9
	40	107	30.04808	38.76226	-144.0634	1	149.1871	-74.94043	1.561748E-006	7.349481E-005	9
	41	110	23.91582	48.33907	-175.531	1	182.0654	-74.6031	1.297707E-006	7.589958E-005	9
	42	112	18.60119	62.313	-217.2266	1	225.9874	-73.99408	1.45707E-006	8.225122E-005	9
	43	114	15.02404	77.53807	-259.0871	1	270.4409	-73.33892	1.76017E-006	9.161328E-005	9
	44	117	12.01923	97.0751	-310.0634	1	324.9044	-72.61562	1.301989E-006	8.278485E-005	9
	45	119	9.450605	122.5288	-374.1945	1	393.7447	-71.86913	1.801443E-006	7.920457E-005	9
	46	122	7.512019	150.5833	-444.5362	1	469.3482	-71.28658	6.707167E-007	0.0006532	8
	47	124	5.978954	182.6663	-528.4016	1	559.0842	-70.92993	6.51075E-007	0.0006557	8
	48	127	4.734848	219.6662	-631.3105	1	668.4357	-70.81452	5.413506E-007	0.0006503	8
	49	131	3.75601	259.8311	-753.6259	1	797.16	-70.9771	6.458852E-007	0.0006786	8
	50	134	3.004808	302.7346	-896.7178	1	946.4413	-71.34517	5.90723E-007	0.0006477	8
	51	138	2.372217	354.9202	-1083.521	1	1140.17	-71.86318	5.433721E-007	0.0005849	8
	52	142	1.878005	410.3166	-1314.646	1	1377.19	-72.66624	6.027005E-007	0.0006591	8
	53	147	1.512097	471.441	-1574.677	1	1643.735	-73.33288	4.882619E-007	0.0006816	8
	54	152	1.201923	549.2863	-1925.142	1	2001.97	-74.07536	5.831911E-007	0.0006839	8
	55	159	0.956633	645.3054	-2352.758	1	2439.65	-74.66232	5.484404E-007	1.931879E-005	8
