EXPLAIN
TAG	EISPOT
TITLE	LABEL	Potentiostatic EIS	Test Identifier
DATE	LABEL	8/9/2020	Date
TIME	LABEL	21:03:12	Time
NOTES	NOTES	1	Notes...
	
PSTAT	PSTAT	REF3000-16137	Potentiostat
VDC	POTEN	0.00000E+000	T	DC Voltage (V)
FREQINIT	QUANT	3.00000E+005	Initial Freq. (Hz)
FREQFINAL	QUANT	1.00000E+000	Final Freq. (Hz)
PTSPERDEC	QUANT	1.00000E+001	Points/decade
VAC	QUANT	5.00000E+001	AC Voltage (mV rms)
AREA	QUANT	1.00000E+000	Sample Area (cm^2)
SPEED	SELECTOR	2	Optimize for:
ZGUESS	QUANT	1.00000E+003	Estimated Z (ohms)
EOC	QUANT	0	Open Circuit (V)
SEQUENCER	TOGGLE	TRUE	Run as Sequence
PSTATMODEL	IQUANT	5	Pstat Model
PSTATSECTION	LABEL	REF3000-16137	Pstat Section
PSTATSERIALNO	LABEL	16137	Pstat Serial Number
CTRLMODE	IQUANT	1	Control Mode
IESTAB	IQUANT	0	I/E Stability
CASPEED	IQUANT	1	Control Amp Speed
CONVENTION	IQUANT	1	Current Convention
ICHRANGE	IQUANT	2	Ich Range
ICHRANGEMODE	TOGGLE	F	Ich Auto Range
ICHOFFSETENABLE	TOGGLE	T	Ich Offset Enable
ICHOFFSET	QUANT	0	Ich Offset (V)
ICHFILTER	IQUANT	3	Ich Filter
VCHRANGE	IQUANT	2	Vch Range
VCHRANGEMODE	TOGGLE	F	Vch Auto Range
VCHOFFSETENABLE	TOGGLE	T	Vch Offset Enable
VCHOFFSET	QUANT	0	Vch Offset (V)
VCHFILTER	IQUANT	3	Vch Filter
ACHRANGE	IQUANT	2	Ach Range
ACHOFFSETENABLE	TOGGLE	F	Ach Offset Enable
ACHOFFSET	QUANT	0	Ach Offset (V)
ACHFILTER	IQUANT	3	Ach Filter
IERANGELOWERLIMIT	IQUANT	2	I/E Range Lower Limit
IERANGEMODE	TOGGLE	F	I/E AutoRange
IERANGE	IQUANT	11	I/E Range
POSFEEDENABLE	TOGGLE	F	Positive Feedback IR Comp
POSFEEDRESISTANCE	QUANT	0	Positive Feedback Resistance (ohm)
ACHSELECT	IQUANT	0	Ach Select
CABLEID	IQUANT	13	Cable ID
DCCALDATE	LABEL	7/31/2020	DC Calibration Date
ACCALDATE	LABEL	7/31/2020	AC Calibration Date
THERMOSELECT	IQUANT	1	Thermo Select
FRAMEWORKVERSION	QUANT	6.33	Framework Version
INSTRUMENTVERSION	LABEL	3.50	Instrument Version
COMPLIANCEVOLTAGE	IQUANT	0	Compliance Voltage
ZCURVE	TABLE
	Pt	Time	Freq	Zreal	Zimag	Zsig	Zmod	Zphz	Idc	Vdc	IERange
	#	s	Hz	ohm	ohm	V	ohm	°	A	V	#
	0	10	300046.9	3.931014	1.341242	1	4.153529	18.83938	-1.641321E-006	-5.359331E-005	10
	1	13	238359.4	3.917831	1.050265	1	4.056163	15.00663	7.205921E-005	-0.0005131	10
	2	16	189328.1	3.920134	0.8257526	1	4.00616	11.89511	-1.361906E-005	-2.301706E-005	10
	3	18	150421.9	3.932036	0.6327603	1	3.982624	9.141909	2.264509E-005	0.000212	10
	4	21	119484.4	3.934659	0.4861492	1	3.964578	7.043518	-0.0001023	0.0003334	10
	5	24	94921.88	3.946888	0.3714573	1	3.964329	5.376496	4.022685E-005	0.0004317	10
	6	26	75421.88	3.957134	0.2596891	1	3.965646	3.754683	-1.58742E-005	0.0005592	10
	7	29	59859.37	3.96923	0.1606659	1	3.972481	2.317944	-1.46668E-005	0.0005483	10
	8	31	47578.12	3.982455	0.0717053	1	3.9831	1.031516	2.501979E-005	0.0005666	10
	9	34	37828.12	3.997794	-0.0119333	1	3.997812	-0.1710265	1.835077E-005	0.000583	10
	10	36	30046.88	4.015438	-0.095142	1	4.016565	-1.357316	-2.140616E-005	0.0006678	10
	11	39	23859.38	4.033278	-0.1815185	1	4.037361	-2.57687	1.48284E-005	0.0006208	10
	12	41	18984.38	4.053628	-0.2737732	1	4.062862	-3.863765	-2.11569E-005	0.0006873	10
	13	43	15046.87	4.07499	-0.3796131	1	4.092633	-5.322133	-2.806576E-005	0.0006622	10
	14	46	11953.13	4.0998	-0.5003587	1	4.13022	-6.958232	1.809305E-005	0.0006443	10
	15	48	9515.62	4.128535	-0.6422831	1	4.178196	-8.842716	-8.264229E-006	0.0006577	10
	16	50	7546.875	4.16245	-0.8153467	1	4.241554	-11.08285	2.289496E-005	0.0006706	10
	17	53	5928.309	4.20312	-1.033897	1	4.328413	-13.81943	1.743134E-005	0.0006422	10
	18	55	4733.456	4.249411	-1.283296	1	4.438957	-16.80399	-2.448477E-005	0.0006909	10
	19	57	3796.875	4.302643	-1.578781	1	4.583153	-20.14974	2.085445E-005	0.0006447	10
	20	60	2987.132	4.371936	-1.974644	1	4.797191	-24.30696	-2.742126E-005	0.0006892	10
	21	62	2390.625	4.449988	-2.425253	1	5.067963	-28.59048	-1.614951E-005	0.0007053	10
	22	64	1884.191	4.549237	-3.015486	1	5.457904	-33.53862	-1.274828E-005	0.0006626	10
	23	67	1516.544	4.659291	-3.678318	1	5.936246	-38.28963	1.025451E-005	0.0006396	10
	24	69	1193.986	4.806049	-4.574829	1	6.635297	-43.58806	1.980462E-005	0.0006464	10
	25	71	946.5144	4.978169	-5.657427	1	7.535824	-48.65432	-2.787134E-005	0.0007237	10
	26	74	751.7689	5.191128	-6.974643	1	8.694449	-53.34021	-2.715737E-005	0.0006901	10
	27	76	597.4265	5.455555	-8.599288	1	10.18385	-57.60817	1.100902E-005	0.0006439	10
	28	78	477.4305	5.770904	-10.55357	1	12.02835	-61.32928	-2.027775E-006	0.0006784	10
	29	81	376.6741	6.193898	-13.10402	1	14.49413	-64.70123	-1.727433E-006	0.0006761	10
	30	83	298.2954	6.728352	-16.218	1	17.55831	-67.46793	-2.21009E-006	0.0006804	10
	31	85	237.7717	7.401904	-19.9495	1	21.27841	-69.64353	-1.565112E-006	0.0006702	10
	32	88	189.0121	8.292927	-24.5947	1	25.95519	-71.36674	-2.125205E-006	0.0006727	10
	33	90	150.2404	9.474522	-30.30054	1	31.74727	-72.63632	-1.553425E-006	0.00068	10
	34	93	119.1737	11.06661	-37.34904	1	38.95408	-73.49532	-1.59971E-006	0.0006705	10
	35	95	95.0169	13.12896	-45.68004	1	47.52931	-73.96475	1.763076E-006	7.449454E-005	9
	36	97	75.60484	15.91728	-55.89205	1	58.11438	-74.10378	1.660569E-006	7.332167E-005	9
	37	100	54.50582	21.5479	-74.11588	1	77.18468	-73.78913	1.628247E-006	7.321819E-005	9
	38	102	45.95588	25.44851	-85.61373	1	89.31594	-73.44553	1.477771E-006	0.0001302	9
	39	105	37.20238	31.36473	-101.8929	1	106.611	-72.89055	1.833309E-006	7.65482E-005	9
	40	107	30.04808	38.77	-121.0248	1	127.0832	-72.23727	1.264053E-006	0.0001227	9
	41	110	23.91582	48.32012	-144.7071	1	152.5614	-71.53498	1.871256E-006	7.149374E-005	9
	42	112	18.60119	60.68373	-175.1806	1	185.3935	-70.89358	1.659397E-006	8.264232E-005	9
	43	114	15.02404	72.8587	-205.744	1	218.2636	-70.49977	2.008456E-006	9.021982E-005	9
	44	116	12.01923	86.93207	-243.2364	1	258.3043	-70.33324	1.800011E-006	7.450433E-005	9
	45	119	9.450605	103.7106	-291.8546	1	309.7337	-70.43731	1.745286E-006	0.0001286	9
	46	121	7.512019	121.4767	-348.4974	1	369.0624	-70.78284	1.874169E-006	7.284398E-005	9
	47	124	5.978954	140.41	-415.7669	1	438.8361	-71.33949	9.135709E-007	0.0006586	8
	48	127	4.734848	163.7065	-502.858	1	528.8346	-71.96722	9.783004E-007	0.0006367	8
	49	130	3.75601	190.9418	-610.3455	1	639.5157	-72.62812	9.295745E-007	0.0006718	8
	50	134	3.004808	223.6832	-737.846	1	771.0064	-73.13495	9.705736E-007	0.0006188	8
	51	138	2.372217	268.346	-905.9574	1	944.8642	-73.50063	9.100922E-007	0.0005774	8
	52	142	1.878005	326.933	-1111.06	1	1158.162	-73.60331	9.414975E-007	0.0006544	8
	53	147	1.512097	400.9681	-1341.841	1	1400.469	-73.36283	8.822416E-007	0.0005766	8
	54	152	1.201923	505.6244	-1645.457	1	1721.39	-72.91859	9.190001E-007	0.0006821	8
	55	158	0.956633	650.9798	-2006.887	1	2109.827	-72.02834	8.262197E-007	1.236042E-005	8
