EXPLAIN
TAG	EISPOT
TITLE	LABEL	Potentiostatic EIS	Test Identifier
DATE	LABEL	8/9/2020	Date
TIME	LABEL	21:25:22	Time
NOTES	NOTES	1	Notes...
	
PSTAT	PSTAT	REF3000-16137	Potentiostat
VDC	POTEN	0.00000E+000	T	DC Voltage (V)
FREQINIT	QUANT	3.00000E+005	Initial Freq. (Hz)
FREQFINAL	QUANT	1.00000E+000	Final Freq. (Hz)
PTSPERDEC	QUANT	1.00000E+001	Points/decade
VAC	QUANT	5.00000E+001	AC Voltage (mV rms)
AREA	QUANT	1.00000E+000	Sample Area (cm^2)
SPEED	SELECTOR	2	Optimize for:
ZGUESS	QUANT	1.00000E+003	Estimated Z (ohms)
EOC	QUANT	0	Open Circuit (V)
SEQUENCER	TOGGLE	TRUE	Run as Sequence
PSTATMODEL	IQUANT	5	Pstat Model
PSTATSECTION	LABEL	REF3000-16137	Pstat Section
PSTATSERIALNO	LABEL	16137	Pstat Serial Number
CTRLMODE	IQUANT	1	Control Mode
IESTAB	IQUANT	0	I/E Stability
CASPEED	IQUANT	1	Control Amp Speed
CONVENTION	IQUANT	1	Current Convention
ICHRANGE	IQUANT	2	Ich Range
ICHRANGEMODE	TOGGLE	F	Ich Auto Range
ICHOFFSETENABLE	TOGGLE	T	Ich Offset Enable
ICHOFFSET	QUANT	0	Ich Offset (V)
ICHFILTER	IQUANT	3	Ich Filter
VCHRANGE	IQUANT	2	Vch Range
VCHRANGEMODE	TOGGLE	F	Vch Auto Range
VCHOFFSETENABLE	TOGGLE	T	Vch Offset Enable
VCHOFFSET	QUANT	0	Vch Offset (V)
VCHFILTER	IQUANT	3	Vch Filter
ACHRANGE	IQUANT	2	Ach Range
ACHOFFSETENABLE	TOGGLE	F	Ach Offset Enable
ACHOFFSET	QUANT	0	Ach Offset (V)
ACHFILTER	IQUANT	3	Ach Filter
IERANGELOWERLIMIT	IQUANT	2	I/E Range Lower Limit
IERANGEMODE	TOGGLE	F	I/E AutoRange
IERANGE	IQUANT	11	I/E Range
POSFEEDENABLE	TOGGLE	F	Positive Feedback IR Comp
POSFEEDRESISTANCE	QUANT	0	Positive Feedback Resistance (ohm)
ACHSELECT	IQUANT	0	Ach Select
CABLEID	IQUANT	13	Cable ID
DCCALDATE	LABEL	7/31/2020	DC Calibration Date
ACCALDATE	LABEL	7/31/2020	AC Calibration Date
THERMOSELECT	IQUANT	1	Thermo Select
FRAMEWORKVERSION	QUANT	6.33	Framework Version
INSTRUMENTVERSION	LABEL	3.50	Instrument Version
COMPLIANCEVOLTAGE	IQUANT	0	Compliance Voltage
ZCURVE	TABLE
	Pt	Time	Freq	Zreal	Zimag	Zsig	Zmod	Zphz	Idc	Vdc	IERange
	#	s	Hz	ohm	ohm	V	ohm	°	A	V	#
	0	8	300046.9	452.4033	-49.39317	1	455.0917	-6.230846	8.484112E-005	-0.0033492	9
	1	14	238359.4	475.8104	-47.00742	1	478.1268	-5.642195	-2.095564E-005	0.0011706	9
	2	21	189328.1	498.836	-41.99074	1	500.6002	-4.811669	-3.137294E-005	-0.0008076	9
	3	26	150421.9	522.4767	-36.39928	1	523.7431	-3.985174	-8.49902E-005	0.0038176	9
	4	32	119484.4	545.1713	-32.62461	1	546.1466	-3.424659	7.722346E-005	-0.0015981	9
	5	37	94921.88	558.9421	-27.62717	1	559.6245	-2.829691	-1.923886E-005	0.0010626	9
	6	39	75421.88	570.8626	-10.64565	1	570.9619	-1.068349	1.715469E-005	-0.0049127	8
	7	42	59859.37	582.1485	-8.989529	1	582.2179	-0.8846903	3.115138E-006	-0.0042301	8
	8	44	47578.12	592.9755	-8.255022	1	593.033	-0.7975833	1.991027E-005	-0.0058818	8
	9	47	37828.12	603.5178	-6.389915	1	603.5516	-0.6066126	2.980664E-006	-0.0043944	8
	10	49	30046.88	616.9818	-6.260421	1	617.0135	-0.5813518	-1.487004E-005	0.0030776	8
	11	52	23859.38	627.9819	-5.635741	1	628.0072	-0.5141796	1.8247E-005	-0.0040263	8
	12	54	18984.38	640.032	-5.395493	1	640.0548	-0.482994	-7.864531E-006	-0.0005284	8
	13	57	15046.87	649.4381	-4.036403	1	649.4507	-0.3561015	-1.727965E-005	0.0055405	8
	14	59	11953.13	663.359	-5.231653	1	663.3796	-0.45186	-6.644512E-006	0.0068967	8
	15	61	9515.62	675.291	-4.419843	1	675.3054	-0.375001	1.815378E-005	-0.002837	8
	16	64	7546.875	688.9569	-4.931087	1	688.9745	-0.4100774	6.953441E-007	0.0047429	8
	17	66	5928.309	700.3718	-4.207274	1	700.3845	-0.3441831	-8.899484E-006	-0.0003033	8
	18	68	4733.456	714.661	-2.486887	1	714.6653	-0.1993778	7.931736E-006	0.0021253	8
	19	71	3796.875	727.7296	-4.08551	1	727.7411	-0.3216579	7.96012E-006	0.0024065	8
	20	73	2987.132	742.9719	-5.975273	1	742.9959	-0.4607853	3.745181E-007	0.0049832	8
	21	76	2390.625	756.7977	-8.467051	1	756.845	-0.6409983	-2.783634E-006	-0.0026036	8
	22	78	1884.191	773.9681	-7.000659	1	773.9998	-0.5182348	-1.343475E-005	0.0015319	8
	23	81	1516.544	785.5309	-10.27094	1	785.598	-0.7491084	-6.624783E-006	0.0070942	8
	24	83	1193.986	805.2997	-13.205	1	805.408	-0.9394305	3.644882E-006	-0.0048584	8
	25	86	946.5144	823.3938	-13.26292	1	823.5006	-0.9228194	8.523118E-006	0.0023428	8
	26	89	751.7689	841.2219	-17.13615	1	841.3964	-1.166985	-1.642924E-005	0.0081842	8
	27	91	597.4265	861.9336	-19.07878	1	862.1447	-1.268027	2.010033E-005	-0.0044045	8
	28	94	477.4305	877.3055	-25.97706	1	877.69	-1.696035	-1.945362E-007	0.0006633	8
	29	96	376.6741	894.6934	-32.14392	1	895.2706	-2.057598	-2.071911E-007	0.0006693	8
	30	98	298.2954	912.5857	-39.67328	1	913.4476	-2.48928	-1.910728E-007	0.0006513	8
	31	101	237.7717	932.1016	-48.81725	1	933.3791	-2.99803	-1.663384E-007	0.0006445	8
	32	103	189.0121	952.338	-60.24332	1	954.242	-3.619613	-1.842621E-007	0.000648	8
	33	106	150.2404	973.481	-74.37463	1	976.318	-4.36895	-2.322565E-007	0.0006535	8
	34	108	119.1737	995.678	-92.00211	1	999.92	-5.279222	-1.711282E-007	0.0006632	8
	35	110	95.0169	1019.279	-113.1342	1	1025.539	-6.333579	-2.110662E-007	0.0006467	8
	36	113	75.60484	1045.469	-139.3093	1	1054.709	-7.589985	-1.790529E-007	0.0006301	8
	37	115	54.50582	1077.282	-187.178	1	1093.422	-9.85675	-1.896023E-007	0.0006589	8
	38	118	45.95588	1105.331	-218.3842	1	1126.698	-11.17619	-2.193385E-007	0.0006579	8
	39	120	37.20238	1136.314	-263.7803	1	1166.529	-13.06899	-2.329486E-007	0.0006526	8
	40	123	30.04808	1171.655	-318.6583	1	1214.215	-15.21487	-1.453483E-007	0.0006239	8
	41	125	23.91582	1212.078	-389.8218	1	1273.222	-17.82855	-3.074876E-007	0.0006295	8
	42	128	18.60119	1260.245	-485.6122	1	1350.569	-21.07326	-4.833876E-007	0.0006459	8
	43	130	15.02404	1308.824	-581.9433	1	1432.368	-23.97139	-6.382503E-008	0.0006435	8
	44	132	12.01923	1364.265	-703.7731	1	1535.095	-27.2875	-1.919398E-007	0.0006434	8
	45	135	9.450605	1431.261	-861.9746	1	1670.781	-31.05838	-1.277716E-007	0.0006607	8
	46	137	7.512019	1508.171	-1047.41	1	1836.205	-34.77962	-1.54033E-007	0.0006664	8
	47	140	5.978954	1596.495	-1268.413	1	2039.036	-38.46709	-2.670746E-007	0.0006503	8
	48	143	4.734848	1701.877	-1546.855	1	2299.815	-42.26805	-2.251303E-007	0.0006393	8
	49	146	3.75601	1821.446	-1885.567	1	2621.646	-45.99096	-2.754382E-007	0.0006451	8
	50	150	3.004808	1953.799	-2284.104	1	3005.738	-49.45667	-1.970381E-007	0.0005965	8
	51	153	2.372217	2115.576	-2805.042	1	3513.392	-52.97622	-2.489167E-007	0.000584	8
	52	157	1.878005	2303.464	-3444.751	1	4143.942	-56.22982	-2.456879E-007	0.0006557	8
	53	162	1.512097	2529.519	-4182.145	1	4887.617	-58.83287	-6.059251E-008	0.0005248	7
	54	168	1.201923	2794.916	-5155.777	1	5864.605	-61.53814	-5.507914E-008	0.0006464	7
	55	174	0.956633	3118.105	-6349.002	1	7073.359	-63.84354	-6.63418E-008	-2.642221E-005	7
