EXPLAIN
TAG	EISPOT
TITLE	LABEL	Potentiostatic EIS	Test Identifier
DATE	LABEL	8/9/2020	Date
TIME	LABEL	21:00:23	Time
NOTES	NOTES	1	Notes...
	
PSTAT	PSTAT	REF3000-16137	Potentiostat
VDC	POTEN	0.00000E+000	T	DC Voltage (V)
FREQINIT	QUANT	3.00000E+005	Initial Freq. (Hz)
FREQFINAL	QUANT	1.00000E+000	Final Freq. (Hz)
PTSPERDEC	QUANT	1.00000E+001	Points/decade
VAC	QUANT	5.00000E+001	AC Voltage (mV rms)
AREA	QUANT	1.00000E+000	Sample Area (cm^2)
SPEED	SELECTOR	2	Optimize for:
ZGUESS	QUANT	1.00000E+003	Estimated Z (ohms)
EOC	QUANT	0	Open Circuit (V)
SEQUENCER	TOGGLE	TRUE	Run as Sequence
PSTATMODEL	IQUANT	5	Pstat Model
PSTATSECTION	LABEL	REF3000-16137	Pstat Section
PSTATSERIALNO	LABEL	16137	Pstat Serial Number
CTRLMODE	IQUANT	1	Control Mode
IESTAB	IQUANT	0	I/E Stability
CASPEED	IQUANT	1	Control Amp Speed
CONVENTION	IQUANT	1	Current Convention
ICHRANGE	IQUANT	2	Ich Range
ICHRANGEMODE	TOGGLE	F	Ich Auto Range
ICHOFFSETENABLE	TOGGLE	T	Ich Offset Enable
ICHOFFSET	QUANT	0	Ich Offset (V)
ICHFILTER	IQUANT	3	Ich Filter
VCHRANGE	IQUANT	2	Vch Range
VCHRANGEMODE	TOGGLE	F	Vch Auto Range
VCHOFFSETENABLE	TOGGLE	T	Vch Offset Enable
VCHOFFSET	QUANT	0	Vch Offset (V)
VCHFILTER	IQUANT	3	Vch Filter
ACHRANGE	IQUANT	2	Ach Range
ACHOFFSETENABLE	TOGGLE	F	Ach Offset Enable
ACHOFFSET	QUANT	0	Ach Offset (V)
ACHFILTER	IQUANT	3	Ach Filter
IERANGELOWERLIMIT	IQUANT	2	I/E Range Lower Limit
IERANGEMODE	TOGGLE	F	I/E AutoRange
IERANGE	IQUANT	11	I/E Range
POSFEEDENABLE	TOGGLE	F	Positive Feedback IR Comp
POSFEEDRESISTANCE	QUANT	0	Positive Feedback Resistance (ohm)
ACHSELECT	IQUANT	0	Ach Select
CABLEID	IQUANT	13	Cable ID
DCCALDATE	LABEL	7/31/2020	DC Calibration Date
ACCALDATE	LABEL	7/31/2020	AC Calibration Date
THERMOSELECT	IQUANT	1	Thermo Select
FRAMEWORKVERSION	QUANT	6.33	Framework Version
INSTRUMENTVERSION	LABEL	3.50	Instrument Version
COMPLIANCEVOLTAGE	IQUANT	0	Compliance Voltage
ZCURVE	TABLE
	Pt	Time	Freq	Zreal	Zimag	Zsig	Zmod	Zphz	Idc	Vdc	IERange
	#	s	Hz	ohm	ohm	V	ohm	°	A	V	#
	0	10	300046.9	3.409425	1.325096	1	3.657876	21.23895	7.317222E-005	-0.000239	10
	1	13	238359.4	3.392824	1.057984	1	3.553954	17.31904	2.246302E-005	-0.0004486	10
	2	17	189328.1	3.389988	0.8274305	1	3.489507	13.7166	6.377959E-005	-0.000286	10
	3	19	150421.9	3.397683	0.6136392	1	3.452652	10.23756	-1.516485E-005	0.0002069	11
	4	23	119484.4	3.396316	0.4703136	1	3.428725	7.884042	-5.075884E-005	0.0004977	11
	5	25	94921.88	3.397907	0.3466617	1	3.415544	5.825283	3.440978E-006	0.000594	11
	6	28	75421.88	3.403321	0.2407757	1	3.411828	4.046778	-8.60962E-006	0.0006241	11
	7	30	59859.37	3.410069	0.1476769	1	3.413265	2.47971	2.894477E-005	0.0006837	11
	8	33	47578.12	3.417872	0.0636846	1	3.418465	1.067459	2.762569E-005	0.0006786	11
	9	35	37828.12	3.427603	-0.0152566	1	3.427637	-0.2550272	-2.438015E-005	0.0006493	11
	10	38	30046.88	3.438217	-0.0941583	1	3.439506	-1.568698	2.585296E-005	0.0007011	11
	11	41	23859.38	3.450713	-0.176326	1	3.455215	-2.92518	1.520051E-006	0.0006759	11
	12	43	18984.38	3.464679	-0.2649283	1	3.474794	-4.372638	2.960441E-005	0.0007245	11
	13	45	15046.87	3.480051	-0.3662261	1	3.499268	-6.007457	1.928893E-005	0.0006976	11
	14	48	11953.13	3.502479	-0.4818295	1	3.535466	-7.832908	-3.032496E-005	0.000662	10
	15	50	9515.62	3.525366	-0.6190113	1	3.579299	-9.95892	-1.945005E-005	0.0006996	10
	16	52	7546.875	3.551963	-0.7861751	1	3.637927	-12.48038	1.338631E-005	0.0006459	10
	17	54	5928.309	3.586418	-0.998088	1	3.72271	-15.5517	-1.400981E-005	0.0006814	10
	18	57	4733.456	3.625643	-1.23874	1	3.831418	-18.86329	4.516005E-006	0.0006439	10
	19	59	3796.875	3.67195	-1.525669	1	3.97629	-22.56253	2.219735E-005	0.0006661	10
	20	61	2987.132	3.732713	-1.906552	1	4.19143	-27.05651	2.168802E-005	0.0006494	10
	21	64	2390.625	3.801632	-2.342829	1	4.465564	-31.64425	-2.653774E-006	0.0006484	10
	22	66	1884.191	3.892377	-2.913657	1	4.862098	-36.81686	2.412765E-005	0.0006503	10
	23	68	1516.544	3.992314	-3.55459	1	5.345435	-41.68053	-1.327328E-005	0.0006874	10
	24	71	1193.986	4.12843	-4.422536	1	6.050021	-46.96988	1.985063E-005	0.0006591	10
	25	73	946.5144	4.294954	-5.463384	1	6.949474	-51.82789	2.16184E-005	0.0006503	10
	26	75	751.7689	4.495633	-6.746835	1	8.107435	-56.32321	-1.58857E-005	0.0006763	10
	27	78	597.4265	4.750488	-8.321241	1	9.58176	-60.27852	-2.385064E-005	0.0006836	10
	28	80	477.4305	5.063344	-10.20997	1	11.39654	-63.62221	-6.841408E-007	0.0006766	10
	29	82	376.6741	5.490311	-12.67705	1	13.81489	-66.58302	-4.292345E-006	0.0007188	10
	30	85	298.2954	6.039571	-15.68404	1	16.80671	-68.93943	-5.522303E-007	0.0006769	10
	31	87	237.7717	6.743923	-19.27716	1	20.42277	-70.71812	-2.320434E-007	0.0006781	10
	32	89	189.0121	7.688396	-23.7328	1	24.94709	-72.04993	-1.141884E-006	0.0006817	10
	33	92	150.2404	8.953843	-29.17486	1	30.51793	-72.93861	-4.064356E-007	0.0006805	10
	34	94	119.1737	10.66325	-35.85485	1	37.40689	-73.43749	-7.706749E-007	0.0006783	10
	35	97	95.0169	12.87336	-43.67515	1	45.53287	-73.57699	2.161587E-006	8.45951E-005	9
	36	99	75.60484	15.83285	-53.16413	1	55.47165	-73.4159	2.047175E-006	7.67516E-005	9
	37	102	54.50582	21.66059	-69.86724	1	73.14788	-72.77525	1.98105E-006	7.566939E-005	9
	38	104	45.95588	25.57852	-80.2608	1	84.23809	-72.32331	1.72283E-006	0.0001336	9
	39	107	37.20238	31.36562	-94.88313	1	99.933	-71.70761	2.071082E-006	8.373556E-005	9
	40	109	30.04808	38.25769	-111.8677	1	118.2287	-71.1198	2.027662E-006	7.565651E-005	9
	41	111	23.91582	46.8106	-132.9645	1	140.9638	-70.60521	2.035928E-006	6.911879E-005	9
	42	114	18.60119	57.61213	-160.5919	1	170.6134	-70.26462	2.265597E-006	8.150919E-005	9
	43	116	15.02404	67.83306	-188.4881	1	200.3225	-70.20722	2.297366E-006	8.292812E-005	9
	44	118	12.01923	79.59134	-223.3826	1	237.1383	-70.38899	1.999084E-006	7.309778E-005	9
	45	121	9.450605	93.66976	-269.3538	1	285.1763	-70.82451	2.139122E-006	9.12355E-005	9
	46	123	7.512019	108.7936	-323.5191	1	341.3219	-71.41314	2.302473E-006	0.0001057	9
	47	126	5.978954	126.7377	-389.9731	1	410.0506	-71.99632	2.320456E-006	7.895066E-005	9
	48	129	4.734848	148.5484	-472.3727	1	495.1794	-72.54305	1.297046E-006	0.0006785	8
	49	132	3.75601	176.7612	-575.8217	1	602.3414	-72.93497	1.255365E-006	0.0006465	8
	50	136	3.004808	212.3711	-697.9245	1	729.5204	-73.07555	1.217555E-006	0.0006854	8
	51	140	2.372217	263.854	-857.8231	1	897.485	-72.90285	1.204325E-006	0.0007358	8
	52	144	1.878005	334.0347	-1049.756	1	1101.62	-72.34881	1.171103E-006	0.0006275	8
	53	149	1.512097	424.5717	-1262.335	1	1331.822	-71.41023	1.204464E-006	0.0007276	8
	54	154	1.201923	555.5186	-1533.926	1	1631.42	-70.0919	1.179293E-006	0.000625	8
	55	160	0.956633	735.6612	-1846.321	1	1987.485	-68.27533	1.018458E-006	9.158017E-006	8
