EXPLAIN
TAG	EISPOT
TITLE	LABEL	Potentiostatic EIS	Test Identifier
DATE	LABEL	11/20/2021	Date
TIME	LABEL	16:42:51	Time
NOTES	NOTES	1	Notes...
	
PSTAT	PSTAT	REF3000-16137	Potentiostat
VDC	POTEN	0.00000E+000	T	DC Voltage (V)
FREQINIT	QUANT	3.00000E+005	Initial Freq. (Hz)
FREQFINAL	QUANT	1.00000E+000	Final Freq. (Hz)
PTSPERDEC	QUANT	1.00000E+001	Points/decade
VAC	QUANT	5.00000E+001	AC Voltage (mV rms)
AREA	QUANT	1.00000E+000	Sample Area (cm^2)
SPEED	SELECTOR	2	Optimize for:
ZGUESS	QUANT	1.00000E+003	Estimated Z (ohms)
EOC	QUANT	0	Open Circuit (V)
SEQUENCER	TOGGLE	TRUE	Run as Sequence
PSTATMODEL	IQUANT	5	Pstat Model
PSTATSECTION	LABEL	REF3000-16137	Pstat Section
PSTATSERIALNO	LABEL	16137	Pstat Serial Number
CTRLMODE	IQUANT	1	Control Mode
IESTAB	IQUANT	0	I/E Stability
CASPEED	IQUANT	1	Control Amp Speed
CONVENTION	IQUANT	1	Current Convention
ICHRANGE	IQUANT	2	Ich Range
ICHRANGEMODE	TOGGLE	F	Ich Auto Range
ICHOFFSETENABLE	TOGGLE	T	Ich Offset Enable
ICHOFFSET	QUANT	0	Ich Offset (V)
ICHFILTER	IQUANT	3	Ich Filter
VCHRANGE	IQUANT	2	Vch Range
VCHRANGEMODE	TOGGLE	F	Vch Auto Range
VCHOFFSETENABLE	TOGGLE	T	Vch Offset Enable
VCHOFFSET	QUANT	0	Vch Offset (V)
VCHFILTER	IQUANT	3	Vch Filter
ACHRANGE	IQUANT	2	Ach Range
ACHOFFSETENABLE	TOGGLE	F	Ach Offset Enable
ACHOFFSET	QUANT	0	Ach Offset (V)
ACHFILTER	IQUANT	3	Ach Filter
IERANGELOWERLIMIT	IQUANT	2	I/E Range Lower Limit
IERANGEMODE	TOGGLE	F	I/E AutoRange
IERANGE	IQUANT	11	I/E Range
POSFEEDENABLE	TOGGLE	F	Positive Feedback IR Comp
POSFEEDRESISTANCE	QUANT	0	Positive Feedback Resistance (ohm)
ACHSELECT	IQUANT	0	Ach Select
CABLEID	IQUANT	13	Cable ID
DCCALDATE	LABEL	9/10/2021	DC Calibration Date
ACCALDATE	LABEL	9/10/2021	AC Calibration Date
THERMOSELECT	IQUANT	1	Thermo Select
FRAMEWORKVERSION	QUANT	6.33	Framework Version
INSTRUMENTVERSION	LABEL	3.50	Instrument Version
COMPLIANCEVOLTAGE	IQUANT	0	Compliance Voltage
ZCURVE	TABLE
	Pt	Time	Freq	Zreal	Zimag	Zsig	Zmod	Zphz	Idc	Vdc	IERange
	#	s	Hz	ohm	ohm	V	ohm	°	A	V	#
	0	7	300046.9	135.4924	-14.28765	1	136.2436	-6.019584	-4.081198E-005	-0.0006063	9
	1	10	238359.4	136.7498	-17.53296	1	137.8692	-7.306144	1.28242E-005	0.0004451	9
	2	14	189328.1	138.4336	-21.09987	1	140.0323	-8.666251	1.57822E-005	-0.0009212	9
	3	16	150421.9	140.4436	-25.66753	1	142.7698	-10.3571	1.457797E-005	-0.0016635	9
	4	19	119484.4	142.7386	-30.46219	1	145.953	-12.04691	-1.315032E-005	0.0008746	9
	5	21	94921.88	145.3458	-36.62095	1	149.8883	-14.14175	-3.845897E-006	-0.0004926	9
	6	24	75421.88	148.3343	-43.82908	1	154.6741	-16.46109	1.90183E-005	-0.0003181	9
	7	26	59859.37	152.2366	-52.71178	1	161.1041	-19.09836	-2.212461E-005	0.0005935	9
	8	29	47578.12	156.687	-62.80104	1	168.804	-21.84119	1.182955E-005	-0.0008961	9
	9	31	37828.12	161.8173	-75.0328	1	178.3669	-24.8766	1.831949E-005	-0.0009387	9
	10	34	30046.88	167.9001	-89.4222	1	190.2282	-28.0394	1.949822E-005	-0.0003187	9
	11	36	23859.38	175.4671	-106.3722	1	205.192	-31.2252	-1.614088E-005	4.389052E-006	9
	12	39	18984.38	183.8405	-126.8339	1	223.3476	-34.60229	-2.113531E-005	0.0003114	9
	13	41	15046.87	193.3786	-151.1017	1	245.4119	-38.00327	1.430204E-005	-0.0001011	9
	14	43	11953.13	206.3598	-179.8003	1	273.7015	-41.06549	-1.773965E-005	0.00013	9
	15	47	9515.62	219.7092	-214.7409	1	307.2227	-44.34481	-2.205491E-005	0.000448	9
	16	49	7546.875	236.5101	-255.6433	1	348.2679	-47.22633	-2.098048E-005	0.0002934	9
	17	52	5928.309	257.1385	-308.4019	1	401.5369	-50.17942	1.922513E-005	-0.0003469	9
	18	54	4733.456	278.6757	-363.4585	1	457.998	-52.52142	-4.706763E-006	-4.325419E-005	8
	19	56	3796.875	305.964	-430.4709	1	528.128	-54.59609	5.49034E-006	-0.0029892	8
	20	59	2987.132	339.4813	-518.9835	1	620.1543	-56.8102	6.001002E-007	-0.0019545	8
	21	61	2390.625	377.4808	-616.6745	1	723.0347	-58.52823	-3.642911E-006	0.0026177	8
	22	63	1884.191	427.2798	-744.8504	1	858.7026	-60.15947	8.149987E-006	-0.002855	8
	23	66	1516.544	480.4953	-874.1751	1	997.526	-61.20436	8.43626E-006	-0.002036	8
	24	68	1193.986	553.1785	-1053.12	1	1189.567	-62.28814	6.99372E-006	-0.0011139	8
	25	70	946.5144	634.73	-1260.544	1	1411.331	-63.27308	5.804923E-007	-0.0019801	8
	26	73	751.7689	739.1729	-1499.227	1	1671.544	-63.75505	4.679742E-006	-4.233432E-006	8
	27	76	597.4265	861.4614	-1789.499	1	1986.057	-64.29392	-5.522326E-006	0.0027418	8
	28	78	477.4305	1015.891	-2118.863	1	2349.812	-64.38457	1.250339E-007	-0.0001211	8
	29	81	376.6741	1208.727	-2531.96	1	2805.68	-64.48077	1.231763E-007	-0.0001289	8
	30	83	298.2954	1442.96	-3014.51	1	3342.065	-64.42089	1.195279E-007	-0.0001229	8
	31	85	237.7717	1723.523	-3564.371	1	3959.201	-64.19428	9.638472E-008	-0.0001195	8
	32	88	189.0121	2081.035	-4223.275	1	4708.159	-63.76805	1.004388E-008	-0.0001113	7
	33	90	150.2404	2513.271	-4978.482	1	5576.9	-63.21414	7.907176E-009	-0.0001086	7
	34	92	119.1737	3051.647	-5855.858	1	6603.305	-62.47475	1.044016E-008	-0.0001085	7
	35	95	95.0169	3695.014	-6837.458	1	7771.999	-61.61288	9.894829E-009	-0.00011	7
	36	97	75.60484	4485.355	-7957.211	1	9134.31	-60.59072	6.778582E-009	-0.0001108	7
	37	100	54.50582	5900.804	-9791.7	1	11432.28	-58.92544	8.353365E-009	-0.0001121	7
	38	102	45.95588	6803.513	-10871.77	1	12825.1	-57.96183	9.335833E-009	-0.0001122	7
	39	105	37.20238	8084.875	-12314.22	1	14731.1	-56.71319	3.411776E-009	-0.0000991	7
	40	107	30.04808	9594.92	-13900.98	1	16890.81	-55.38528	2.516538E-009	-9.398245E-005	7
	41	109	23.91582	11452.69	-15724.88	1	19453.43	-53.93353	1.016862E-008	-0.000108	7
	42	112	18.60119	13836.12	-17876.16	1	22605.21	-52.26019	1.603129E-008	-0.0001026	7
	43	114	15.02404	16162.2	-19843.83	1	25592.86	-50.83823	-5.228623E-009	-0.0001005	7
	44	116	12.01923	18894.57	-21971.01	1	28978.1	-49.30521	1.700538E-008	-0.0001058	7
	45	119	9.450605	22101.75	-24379.11	1	32906.36	-47.80501	3.924075E-009	-0.0001136	7
	46	121	7.512019	25531.35	-26791.62	1	37008.66	-46.37979	1.882876E-008	-9.278455E-005	7
	47	124	5.978954	29261.96	-29400.43	1	41480.68	-45.13525	8.680345E-009	-0.0001381	6
	48	127	4.734848	33375.26	-32241.95	1	46405.29	-44.01051	7.819963E-009	-0.0001061	6
	49	130	3.75601	37793.48	-35327.96	1	51734.05	-43.06883	-3.234653E-009	-0.0001495	6
	50	134	3.004808	42431.09	-38616.8	1	57372.94	-42.30553	-1.719149E-009	-0.000122	6
	51	137	2.372217	47696.52	-42367.27	1	63796.11	-41.61365	-1.573113E-009	-8.897029E-005	6
	52	142	1.878005	53448.23	-46638.29	1	70935.48	-41.10756	-3.178343E-009	-0.0001426	6
	53	146	1.512097	59133.99	-51037.92	1	78113.37	-40.79713	-1.061988E-009	-0.0002018	6
	54	152	1.201923	65723.55	-56355.22	1	86576.54	-40.61172	-1.15646E-009	-0.0001445	6
	55	158	0.956633	72918.36	-62385.48	1	95963.7	-40.54872	-2.477267E-009	-0.0006797	6
