EXPLAIN
TAG	EISPOT
TITLE	LABEL	Potentiostatic EIS	Test Identifier
DATE	LABEL	11/20/2021	Date
TIME	LABEL	17:39:36	Time
NOTES	NOTES	1	Notes...
	
PSTAT	PSTAT	REF3000-16137	Potentiostat
VDC	POTEN	0.00000E+000	T	DC Voltage (V)
FREQINIT	QUANT	3.00000E+005	Initial Freq. (Hz)
FREQFINAL	QUANT	1.00000E+000	Final Freq. (Hz)
PTSPERDEC	QUANT	1.00000E+001	Points/decade
VAC	QUANT	5.00000E+001	AC Voltage (mV rms)
AREA	QUANT	1.00000E+000	Sample Area (cm^2)
SPEED	SELECTOR	2	Optimize for:
ZGUESS	QUANT	1.00000E+003	Estimated Z (ohms)
EOC	QUANT	0	Open Circuit (V)
SEQUENCER	TOGGLE	TRUE	Run as Sequence
PSTATMODEL	IQUANT	5	Pstat Model
PSTATSECTION	LABEL	REF3000-16137	Pstat Section
PSTATSERIALNO	LABEL	16137	Pstat Serial Number
CTRLMODE	IQUANT	1	Control Mode
IESTAB	IQUANT	0	I/E Stability
CASPEED	IQUANT	1	Control Amp Speed
CONVENTION	IQUANT	1	Current Convention
ICHRANGE	IQUANT	2	Ich Range
ICHRANGEMODE	TOGGLE	F	Ich Auto Range
ICHOFFSETENABLE	TOGGLE	T	Ich Offset Enable
ICHOFFSET	QUANT	0	Ich Offset (V)
ICHFILTER	IQUANT	3	Ich Filter
VCHRANGE	IQUANT	2	Vch Range
VCHRANGEMODE	TOGGLE	F	Vch Auto Range
VCHOFFSETENABLE	TOGGLE	T	Vch Offset Enable
VCHOFFSET	QUANT	0	Vch Offset (V)
VCHFILTER	IQUANT	3	Vch Filter
ACHRANGE	IQUANT	2	Ach Range
ACHOFFSETENABLE	TOGGLE	F	Ach Offset Enable
ACHOFFSET	QUANT	0	Ach Offset (V)
ACHFILTER	IQUANT	3	Ach Filter
IERANGELOWERLIMIT	IQUANT	2	I/E Range Lower Limit
IERANGEMODE	TOGGLE	F	I/E AutoRange
IERANGE	IQUANT	11	I/E Range
POSFEEDENABLE	TOGGLE	F	Positive Feedback IR Comp
POSFEEDRESISTANCE	QUANT	0	Positive Feedback Resistance (ohm)
ACHSELECT	IQUANT	0	Ach Select
CABLEID	IQUANT	13	Cable ID
DCCALDATE	LABEL	9/10/2021	DC Calibration Date
ACCALDATE	LABEL	9/10/2021	AC Calibration Date
THERMOSELECT	IQUANT	1	Thermo Select
FRAMEWORKVERSION	QUANT	6.33	Framework Version
INSTRUMENTVERSION	LABEL	3.50	Instrument Version
COMPLIANCEVOLTAGE	IQUANT	0	Compliance Voltage
ZCURVE	TABLE
	Pt	Time	Freq	Zreal	Zimag	Zsig	Zmod	Zphz	Idc	Vdc	IERange
	#	s	Hz	ohm	ohm	V	ohm	°	A	V	#
	0	16	300046.9	-3.845589	-4703.96	1	4703.961	-90.04684	-5.005816E-006	-0.0020285	9
	1	37	238359.4	71.57658	-5903.841	1	5904.275	-89.3054	8.326275E-005	-0.002995	9
	2	55	189328.1	-15.59195	-7085.889	1	7085.906	-90.12608	-3.394113E-005	-0.000988	9
	3	66	150421.9	-82.80492	-9192.918	1	9193.291	-90.51608	-4.464069E-006	-0.0017824	9
	4	76	119484.4	367.7299	-11603.39	1	11609.22	-88.18481	-1.456161E-005	0.0015127	9
	5	89	94921.88	823.305	-13883.23	1	13907.62	-86.60621	1.771326E-005	-0.0008234	8
	6	98	75421.88	781.2767	-18311.23	1	18327.89	-87.55687	-2.525654E-006	-0.0054844	8
	7	106	59859.37	1176.588	-22468.78	1	22499.56	-87.00242	-1.683995E-005	0.0002907	8
	8	115	47578.12	4594.779	-29350.39	1	29707.87	-81.10261	6.703317E-006	-0.0120673	7
	9	123	37828.12	5129.206	-36161.41	1	36523.37	-81.92691	-3.256341E-006	0.0239575	7
	10	130	30046.88	2705.311	-43893.88	1	43977.16	-86.47315	-2.386756E-005	0.010172	8
	11	139	23859.38	1286.512	-55439.94	1	55454.86	-88.67066	-8.003934E-007	0.0063606	8
	12	145	18984.38	6742.822	-69332.21	1	69659.32	-84.44524	-3.818509E-006	-0.0048188	7
	13	151	15046.87	9001.717	-87565.31	1	88026.78	-84.13061	-5.136814E-006	0.025887	7
	14	156	11953.13	5453.653	-108231	1	108368.3	-87.11536	-1.048721E-005	0.0089723	8
	15	164	9515.62	12233.51	-138060.7	1	138601.7	-84.93626	-7.41352E-006	0.0191206	7
	16	170	7546.875	10258.73	-171948	1	172253.8	-86.58568	7.618751E-006	-0.0201909	7
	17	176	5928.309	-14549.67	-220823	1	221301.8	-93.76968	-6.889827E-006	0.0124293	7
	18	183	4733.456	680.5298	-262292.7	1	262293.6	-89.85134	5.180771E-006	-0.0028425	7
	19	189	3796.875	48354.17	-341980.1	1	345381.7	-81.95203	-6.88552E-006	0.0124881	7
	20	196	2987.132	47086.86	-387056.9	1	389910.5	-83.06384	3.120684E-006	-0.0247201	7
	21	202	2390.625	-49258.58	-563457.6	1	565606.7	-94.99621	2.136013E-005	-0.010368	8
	22	210	1884.191	63510.23	-322342.4	1	328539.5	-78.85394	2.122063E-005	-0.0102979	8
	23	218	1516.544	183383.4	-811149.3	1	831620.4	-77.26082	5.188948E-006	-0.0028441	7
	24	225	1193.986	693541.1	-1012174	1	1226986	-55.58107	-6.896151E-006	0.0123921	7
	25	234	946.5144	-130197.4	-709273.9	1	721124.8	-100.4017	3.09038E-006	-0.0247028	7
	26	241	751.7689	-349739.3	233434.1	1	420486.7	146.2788	-8.473262E-007	0.0064603	8
	27	249	597.4265	518351.8	-1518314	1	1604358	-71.15012	4.616063E-007	-0.000371	6
	28	253	477.4305	1207059	-1937656	1	2282871	-58.07924	-1.124079E-008	-0.0000957	6
	29	257	376.6741	1909569	-2055243	1	2805437	-47.10419	-1.1371E-009	-2.307912E-005	5
	30	259	298.2954	2352172	-2164734	1	3196683	-42.62377	-1.095019E-009	-0.0000978	5
	31	262	237.7717	2838623	-2202270	1	3592739	-37.80515	-1.097835E-009	-7.524955E-005	5
	32	265	189.0121	3292927	-2154210	1	3934970	-33.19243	-1.131019E-009	-3.124605E-005	5
	33	268	150.2404	3720110	-2076826	1	4260565	-29.17331	-1.137669E-009	-8.666803E-005	5
	34	271	119.1737	4340369	-1792553	1	4695961	-22.44041	-1.185623E-009	-3.190666E-005	5
	35	273	95.0169	4446275	-1729980	1	4770974	-21.26028	-1.093003E-009	-9.241803E-005	5
	36	276	75.60484	4725357	-1562108	1	4976864	-18.29285	-1.135729E-009	-0.0000978	5
	37	279	54.50582	5035228	-1334076	1	5208962	-14.83947	-1.143794E-009	-3.469965E-005	5
	38	282	45.95588	5619928	-667483.9	1	5659428	-6.773341	-1.809939E-010	0.000416	4
	39	285	37.20238	5678097	-660475.6	1	5716381	-6.634823	-1.433455E-010	0.0004178	4
	40	287	30.04808	5757471	-678519.1	1	5797315	-6.721316	-1.326619E-010	0.0004857	4
	41	290	23.91582	5863728	-719327.6	1	5907684	-6.993765	-1.525388E-010	0.0004118	4
	42	293	18.60119	5947923	-760045.3	1	5996286	-7.281981	-1.338131E-010	0.0004654	4
	43	295	15.02404	6094948	-870112.3	1	6156743	-8.124625	-1.886495E-011	0.0004496	4
	44	298	12.01923	6235039	-986390	1	6312581	-8.989756	-2.467823E-011	0.0003992	4
	45	300	9.450605	6400314	-1161150	1	6504789	-10.2828	-7.606944E-011	0.0004909	4
	46	303	7.512019	6592043	-1338155	1	6726491	-11.47487	-1.768738E-010	0.0005038	4
	47	306	5.978954	6851863	-1584346	1	7032651	-13.0196	-1.406451E-010	0.0004842	4
	48	310	4.734848	7149546	-1870519	1	7390186	-14.66153	-1.138738E-010	0.0004065	4
	49	315	3.75601	7511605	-2221591	1	7833242	-16.47582	-1.368253E-010	0.0004678	4
	50	320	3.004808	7968071	-2625718	1	8389550	-18.2386	-1.412688E-010	0.0005182	4
	51	327	2.372217	8447552	-3118557	1	9004806	-20.26248	-1.263077E-010	0.0005199	4
	52	331	1.878005	8950562	-3711115	1	9.689424E+006	-22.52006	-1.594547E-010	0.0004286	4
	53	336	1.512097	9.518963E+006	-4348851	1	1.046533E+007	-24.55385	-1.522348E-010	0.000484	4
	54	341	1.201923	1.021916E+007	-5147060	1	1.144218E+007	-26.73292	-1.28701E-010	0.0004159	4
	55	347	0.956633	1.105837E+007	-6110142	1	1.263414E+007	-28.9222	-1.57244E-010	-0.0001011	4
