EXPLAIN
TAG	EISPOT
TITLE	LABEL	Potentiostatic EIS	Test Identifier
DATE	LABEL	11/20/2021	Date
TIME	LABEL	16:31:50	Time
NOTES	NOTES	1	Notes...
	
PSTAT	PSTAT	REF3000-16137	Potentiostat
VDC	POTEN	0.00000E+000	T	DC Voltage (V)
FREQINIT	QUANT	3.00000E+005	Initial Freq. (Hz)
FREQFINAL	QUANT	1.00000E+000	Final Freq. (Hz)
PTSPERDEC	QUANT	1.00000E+001	Points/decade
VAC	QUANT	5.00000E+001	AC Voltage (mV rms)
AREA	QUANT	1.00000E+000	Sample Area (cm^2)
SPEED	SELECTOR	2	Optimize for:
ZGUESS	QUANT	1.00000E+003	Estimated Z (ohms)
EOC	QUANT	0	Open Circuit (V)
SEQUENCER	TOGGLE	TRUE	Run as Sequence
PSTATMODEL	IQUANT	5	Pstat Model
PSTATSECTION	LABEL	REF3000-16137	Pstat Section
PSTATSERIALNO	LABEL	16137	Pstat Serial Number
CTRLMODE	IQUANT	1	Control Mode
IESTAB	IQUANT	0	I/E Stability
CASPEED	IQUANT	1	Control Amp Speed
CONVENTION	IQUANT	1	Current Convention
ICHRANGE	IQUANT	2	Ich Range
ICHRANGEMODE	TOGGLE	F	Ich Auto Range
ICHOFFSETENABLE	TOGGLE	T	Ich Offset Enable
ICHOFFSET	QUANT	0	Ich Offset (V)
ICHFILTER	IQUANT	3	Ich Filter
VCHRANGE	IQUANT	2	Vch Range
VCHRANGEMODE	TOGGLE	F	Vch Auto Range
VCHOFFSETENABLE	TOGGLE	T	Vch Offset Enable
VCHOFFSET	QUANT	0	Vch Offset (V)
VCHFILTER	IQUANT	3	Vch Filter
ACHRANGE	IQUANT	2	Ach Range
ACHOFFSETENABLE	TOGGLE	F	Ach Offset Enable
ACHOFFSET	QUANT	0	Ach Offset (V)
ACHFILTER	IQUANT	3	Ach Filter
IERANGELOWERLIMIT	IQUANT	2	I/E Range Lower Limit
IERANGEMODE	TOGGLE	F	I/E AutoRange
IERANGE	IQUANT	11	I/E Range
POSFEEDENABLE	TOGGLE	F	Positive Feedback IR Comp
POSFEEDRESISTANCE	QUANT	0	Positive Feedback Resistance (ohm)
ACHSELECT	IQUANT	0	Ach Select
CABLEID	IQUANT	13	Cable ID
DCCALDATE	LABEL	9/10/2021	DC Calibration Date
ACCALDATE	LABEL	9/10/2021	AC Calibration Date
THERMOSELECT	IQUANT	1	Thermo Select
FRAMEWORKVERSION	QUANT	6.33	Framework Version
INSTRUMENTVERSION	LABEL	3.50	Instrument Version
COMPLIANCEVOLTAGE	IQUANT	0	Compliance Voltage
ZCURVE	TABLE
	Pt	Time	Freq	Zreal	Zimag	Zsig	Zmod	Zphz	Idc	Vdc	IERange
	#	s	Hz	ohm	ohm	V	ohm	°	A	V	#
	0	7	300046.9	69.63737	-9.81345	1	70.32543	-8.021424	1.052261E-005	-0.0016109	9
	1	10	238359.4	70.55409	-12.7232	1	71.69212	-10.22243	1.522635E-005	5.950454E-005	9
	2	13	189328.1	71.80742	-15.95277	1	73.55811	-12.52544	-6.958775E-005	0.0016924	9
	3	16	150421.9	73.1713	-19.64836	1	75.76344	-15.03081	9.855665E-006	-0.0009962	9
	4	18	119484.4	74.97601	-24.07163	1	78.74545	-17.79963	-1.324542E-006	0.0005029	9
	5	21	94921.88	77.07252	-29.056	1	82.36761	-20.65623	1.432172E-005	-0.0002016	9
	6	23	75421.88	79.46732	-35.08715	1	86.86865	-23.82287	8.868929E-006	-0.0007474	9
	7	26	59859.37	82.20443	-42.27738	1	92.43887	-27.21656	1.104262E-005	-0.000774	9
	8	28	47578.12	85.58728	-50.62108	1	99.4368	-30.60243	9.241592E-006	-0.0007283	9
	9	31	37828.12	89.6421	-60.34977	1	108.0639	-33.94963	-1.791913E-005	0.0003323	9
	10	33	30046.88	94.16247	-72.18537	1	118.6478	-37.47393	2.206403E-005	-0.0007615	9
	11	36	23859.38	99.6962	-86.20178	1	131.7956	-40.84816	1.595776E-005	-0.0008282	9
	12	38	18984.38	106.1877	-102.851	1	147.8315	-44.08552	-1.052532E-005	0.0004746	9
	13	41	15046.87	113.6	-122.9513	1	167.3976	-47.26382	-1.889784E-005	0.0004248	9
	14	43	11953.13	122.7372	-146.8251	1	191.3688	-50.10633	-1.09163E-005	-0.0001315	9
	15	45	9515.62	133.9238	-174.9598	1	220.3327	-52.56757	2.053099E-005	-0.0008116	9
	16	47	7546.875	147.5123	-207.9428	1	254.9511	-54.64853	-2.124437E-005	0.0005515	9
	17	50	5928.309	163.7469	-251.8377	1	300.3919	-56.96775	-1.898732E-005	0.0004432	9
	18	52	4733.456	182.2327	-300.7193	1	351.626	-58.78458	1.867014E-005	-0.0008144	9
	19	54	3796.875	204.1716	-353.5153	1	408.239	-59.99156	-2.522666E-006	0.0003811	9
	20	57	2987.132	232.4835	-426.5118	1	485.7581	-61.40603	-3.941707E-006	0.0005965	8
	21	59	2390.625	264.2968	-507.4551	1	572.1569	-62.48824	-4.558111E-006	0.0011737	8
	22	61	1884.191	306.6469	-607.8278	1	680.7987	-63.22923	-3.739036E-006	0.0014807	8
	23	64	1516.544	354.0266	-718.4376	1	800.929	-63.76717	4.888125E-007	-0.0010637	8
	24	66	1193.986	416.9476	-861.0244	1	956.665	-64.1616	3.553284E-006	-0.0017699	8
	25	68	946.5144	494.9103	-1023.9	1	1137.237	-64.20282	3.516905E-006	-0.0017379	8
	26	71	751.7689	583.8004	-1219.917	1	1352.413	-64.42621	-3.787576E-006	0.0015034	8
	27	73	597.4265	700.4976	-1448.572	1	1609.055	-64.1926	-3.852808E-006	0.001524	8
	28	75	477.4305	831.316	-1708.092	1	1899.649	-64.04816	3.291667E-007	-0.0001182	8
	29	78	376.6741	1006.645	-2026.464	1	2262.718	-63.58412	3.099581E-007	-0.0001179	8
	30	80	298.2954	1219.704	-2390.754	1	2683.912	-62.97044	3.140118E-007	-0.0001181	8
	31	82	237.7717	1473.222	-2797.599	1	3161.794	-62.2286	3.10505E-007	-0.0001117	8
	32	85	189.0121	1785.012	-3265.945	1	3721.917	-61.34106	3.02118E-007	-0.0001143	8
	33	87	150.2404	2171.045	-3805.802	1	4381.502	-60.29711	3.765597E-008	-0.0001002	7
	34	90	119.1737	2627.605	-4409.033	1	5132.629	-59.20677	3.264719E-008	-0.0000983	7
	35	92	95.0169	3160.002	-5064.777	1	5969.722	-58.03925	3.642487E-008	-0.000103	7
	36	94	75.60484	3794.209	-5799.944	1	6930.756	-56.80807	4.149384E-008	-0.0001373	7
	37	97	54.50582	4894.424	-6977.943	1	8523.326	-54.95366	3.421257E-008	-0.0001049	7
	38	99	45.95588	5577.727	-7655.728	1	9472.128	-53.92408	4.26518E-008	-0.0000999	7
	39	102	37.20238	6522.958	-8543.652	1	10749.09	-52.63878	3.730561E-008	-0.0001351	7
	40	104	30.04808	7610.329	-9499.966	1	12172.36	-51.30213	3.710771E-008	-0.0001097	7
	41	107	23.91582	8921.996	-10581.42	1	13840.82	-49.86322	2.814747E-008	-0.0001097	7
	42	109	18.60119	10521.3	-11840.21	1	15839.46	-48.37547	2.705911E-008	-9.333138E-005	7
	43	111	15.02404	12049.01	-13003.2	1	17727.43	-47.18122	5.491952E-008	-0.0001034	7
	44	113	12.01923	13783.06	-14268.44	1	19838.37	-45.99131	1.942989E-008	-0.0001143	7
	45	116	9.450605	15813.54	-15739.48	1	22311.41	-44.86552	1.810754E-008	-0.0000976	7
	46	118	7.512019	17906.7	-17296.52	1	24896.17	-44.00698	3.01653E-008	-0.000123	7
	47	121	5.978954	20227.56	-18948.51	1	27716.42	-43.13003	4.198321E-008	-0.0001085	7
	48	124	4.734848	22777.13	-20843.79	1	30874.93	-42.46224	3.040295E-008	-0.0001195	7
	49	127	3.75601	25491.59	-22908.21	1	34272.55	-41.94469	4.376695E-008	-9.139749E-005	7
	50	131	3.004808	28344.53	-25098.86	1	37859.81	-41.52463	3.536936E-008	-0.0001111	7
	51	135	2.372217	31667.52	-27762.58	1	42114.04	-41.2407	1.133704E-008	-0.0001047	6
	52	139	1.878005	35237.71	-30725.45	1	46752	-41.08673	9.134366E-009	-0.0001549	6
	53	143	1.512097	38866.43	-33898.73	1	51572.5	-41.09447	7.748328E-009	-3.082252E-005	6
	54	149	1.201923	43166.34	-37847.03	1	57408.46	-41.24337	8.696384E-009	-0.000159	6
	55	155	0.956633	47983.92	-42393.52	1	64028.65	-41.46041	6.334471E-010	-0.0006776	6
