EXPLAIN
TAG	EISPOT
TITLE	LABEL	Potentiostatic EIS	Test Identifier
DATE	LABEL	11/20/2021	Date
TIME	LABEL	17:09:14	Time
NOTES	NOTES	1	Notes...
	
PSTAT	PSTAT	REF3000-16137	Potentiostat
VDC	POTEN	0.00000E+000	T	DC Voltage (V)
FREQINIT	QUANT	3.00000E+005	Initial Freq. (Hz)
FREQFINAL	QUANT	1.00000E+000	Final Freq. (Hz)
PTSPERDEC	QUANT	1.00000E+001	Points/decade
VAC	QUANT	5.00000E+001	AC Voltage (mV rms)
AREA	QUANT	1.00000E+000	Sample Area (cm^2)
SPEED	SELECTOR	2	Optimize for:
ZGUESS	QUANT	1.00000E+003	Estimated Z (ohms)
EOC	QUANT	0	Open Circuit (V)
SEQUENCER	TOGGLE	TRUE	Run as Sequence
PSTATMODEL	IQUANT	5	Pstat Model
PSTATSECTION	LABEL	REF3000-16137	Pstat Section
PSTATSERIALNO	LABEL	16137	Pstat Serial Number
CTRLMODE	IQUANT	1	Control Mode
IESTAB	IQUANT	0	I/E Stability
CASPEED	IQUANT	1	Control Amp Speed
CONVENTION	IQUANT	1	Current Convention
ICHRANGE	IQUANT	2	Ich Range
ICHRANGEMODE	TOGGLE	F	Ich Auto Range
ICHOFFSETENABLE	TOGGLE	T	Ich Offset Enable
ICHOFFSET	QUANT	0	Ich Offset (V)
ICHFILTER	IQUANT	3	Ich Filter
VCHRANGE	IQUANT	2	Vch Range
VCHRANGEMODE	TOGGLE	F	Vch Auto Range
VCHOFFSETENABLE	TOGGLE	T	Vch Offset Enable
VCHOFFSET	QUANT	0	Vch Offset (V)
VCHFILTER	IQUANT	3	Vch Filter
ACHRANGE	IQUANT	2	Ach Range
ACHOFFSETENABLE	TOGGLE	F	Ach Offset Enable
ACHOFFSET	QUANT	0	Ach Offset (V)
ACHFILTER	IQUANT	3	Ach Filter
IERANGELOWERLIMIT	IQUANT	2	I/E Range Lower Limit
IERANGEMODE	TOGGLE	F	I/E AutoRange
IERANGE	IQUANT	11	I/E Range
POSFEEDENABLE	TOGGLE	F	Positive Feedback IR Comp
POSFEEDRESISTANCE	QUANT	0	Positive Feedback Resistance (ohm)
ACHSELECT	IQUANT	0	Ach Select
CABLEID	IQUANT	13	Cable ID
DCCALDATE	LABEL	9/10/2021	DC Calibration Date
ACCALDATE	LABEL	9/10/2021	AC Calibration Date
THERMOSELECT	IQUANT	1	Thermo Select
FRAMEWORKVERSION	QUANT	6.33	Framework Version
INSTRUMENTVERSION	LABEL	3.50	Instrument Version
COMPLIANCEVOLTAGE	IQUANT	0	Compliance Voltage
ZCURVE	TABLE
	Pt	Time	Freq	Zreal	Zimag	Zsig	Zmod	Zphz	Idc	Vdc	IERange
	#	s	Hz	ohm	ohm	V	ohm	°	A	V	#
	0	24	300046.9	1659.01	-762.6154	1	1825.896	-24.68735	-1.107767E-005	-0.002	9
	1	40	238359.4	1832.047	-719.907	1	1968.417	-21.45245	-3.117725E-005	-0.0009583	9
	2	64	189328.1	1990.924	-608.8991	1	2081.955	-17.00559	8.459553E-005	-0.0029108	9
	3	77	150421.9	2078.417	-592.1007	1	2161.111	-15.90123	7.52882E-005	-0.0017271	9
	4	86	119484.4	2190.466	-455.0633	1	2237.236	-11.7361	1.288634E-005	-0.0151101	8
	5	92	94921.88	2243.299	-404.0669	1	2279.399	-10.21073	1.644983E-005	-0.0012503	8
	6	95	75421.88	2282.377	-359.8728	1	2310.575	-8.960316	3.745524E-007	0.0052979	8
	7	99	59859.37	2321.476	-336.6128	1	2345.753	-8.25036	1.228095E-005	-0.0084727	8
	8	103	47578.12	2364.989	-322.8618	1	2386.925	-7.773808	3.464964E-007	0.0052423	8
	9	107	37828.12	2414.741	-337.4131	1	2438.2	-7.954471	2.802291E-005	-0.000932	9
	10	113	30046.88	2463.319	-328.8269	1	2485.169	-7.603427	-8.211158E-006	0.0075644	8
	11	120	23859.38	2518.052	-352.4434	1	2542.597	-7.967739	9.193925E-006	0.0020979	8
	12	125	18984.38	2571.446	-385.3356	1	2600.158	-8.522455	-2.169921E-005	0.0045133	8
	13	131	15046.87	2627.236	-435.9878	1	2663.166	-9.422322	9.270116E-006	0.002183	8
	14	136	11953.13	2695.693	-512.487	1	2743.976	-10.76423	-1.093336E-005	0.000789	9
	15	141	9515.62	2756.976	-582.9048	1	2817.923	-11.93818	2.693349E-005	-0.0006627	9
	16	147	7546.875	2829.301	-678.387	1	2909.493	-13.48338	-1.035953E-005	-0.0018578	8
	17	152	5928.309	2923.915	-816.0835	1	3035.667	-15.59476	2.128772E-005	-0.0038157	8
	18	158	4733.456	3015.12	-950.322	1	3161.339	-17.49409	-2.174997E-005	0.004524	8
	19	163	3796.875	3107.396	-1107.413	1	3298.829	-19.61504	-2.058482E-005	0.0090299	8
	20	168	2987.132	3249.962	-1338.11	1	3514.654	-22.37848	2.336616E-007	0.005429	8
	21	174	2390.625	3390.431	-1572.805	1	3737.477	-24.88637	2.239498E-005	-0.008867	8
	22	179	1884.191	3569.358	-1870.311	1	4029.688	-27.65413	-2.311304E-005	0.0081414	8
	23	184	1516.544	3754.585	-2201.113	1	4352.219	-30.38082	-1.573035E-005	0.0090346	8
	24	190	1193.986	3997.012	-2625.919	1	4782.421	-33.30373	-8.551908E-006	0.0078494	8
	25	195	946.5144	4244.684	-3214.932	1	5324.765	-37.14036	2.260461E-005	-0.0088875	8
	26	199	751.7689	4496.347	-3810.055	1	5893.526	-40.27683	1.853852E-005	-0.0092432	8
	27	203	597.4265	4574.261	-4523.774	1	6433.381	-44.68205	-1.577135E-005	0.0090952	8
	28	207	477.4305	5210.967	-5239.495	1	7389.62	-45.15641	-3.72547E-007	-0.0001305	8
	29	209	376.6741	5684.536	-6257.552	1	8454.047	-47.74711	-7.221596E-008	-0.0001428	7
	30	211	298.2954	6210.91	-7449.866	1	9699.27	-50.18223	-7.641837E-008	-0.0001219	7
	31	214	237.7717	6818.243	-8830.461	1	11156.41	-52.32728	-7.365165E-008	-9.015653E-005	7
	32	216	189.0121	7545.399	-10491.47	1	12923	-54.27656	-7.744963E-008	-6.399612E-005	7
	33	218	150.2404	8413.079	-12468.85	1	15041.68	-55.99137	-7.420702E-008	-8.527842E-005	7
	34	221	119.1737	9446.695	-14836.89	1	17589.01	-57.51496	-7.959134E-008	-7.174016E-005	7
	35	223	95.0169	10668.56	-17593.13	1	20575.14	-58.76717	-7.438276E-008	-9.074785E-005	7
	36	226	75.60484	12135.53	-20888.32	1	24157.67	-59.84462	-7.284154E-008	-0.0001443	7
	37	228	54.50582	14732.29	-26676.46	1	30474.16	-61.08997	-7.919494E-008	-7.104682E-005	7
	38	231	45.95588	16389.19	-30323.16	1	34468.82	-61.60948	-7.793364E-008	-6.115207E-005	7
	39	233	37.20238	18762.25	-35503.41	1	40156.12	-62.14518	-7.114552E-008	-0.000148	7
	40	236	30.04808	21686.92	-41679.95	1	46984.47	-62.51112	-9.040195E-009	-0.0001706	6
	41	238	23.91582	25337.13	-49372	1	55493.83	-62.83364	-8.574743E-009	-8.934418E-005	6
	42	240	18.60119	30220.39	-59476.31	1	66713.59	-63.06451	-1.094318E-008	-7.86412E-005	6
	43	243	15.02404	35324.73	-69585.7	1	78038.49	-63.08566	-8.504536E-009	-8.098468E-005	6
	44	245	12.01923	41794.29	-81965.69	1	92006.17	-62.98298	-9.83109E-009	-0.000161	6
	45	247	9.450605	50274.76	-97502	1	109700.4	-62.72309	-7.610131E-009	-0.0001008	6
	46	250	7.512019	60241.98	-114842.2	1	129683.6	-62.32015	-7.940214E-009	-6.995005E-005	6
	47	253	5.978954	72441.57	-134894.6	1	153115.4	-61.76316	-8.797089E-009	-0.0001076	6
	48	256	4.734848	87624.71	-158431.2	1	181048.4	-61.05401	-7.900279E-009	-0.0001194	6
	49	259	3.75601	106216.7	-185050.4	1	213367.4	-60.14469	-9.47897E-009	-0.0000996	6
	50	262	3.004808	127617.3	-214204.5	1	249338.6	-59.21465	-9.607763E-009	-8.445752E-005	6
	51	266	2.372217	155494.9	-248952.1	1	293523.1	-58.0112	-9.026422E-009	-5.282454E-005	6
	52	270	1.878005	187927.7	-287729.7	1	343664.4	-56.84985	-9.471417E-009	-0.0001492	6
	53	275	1.512097	223738.3	-327192.4	1	396375.7	-55.63519	-9.409217E-009	-9.162453E-005	6
	54	280	1.201923	270493.4	-375143.8	1	462492.7	-54.20691	-1.511125E-009	-7.874949E-005	5
	55	287	0.956633	324097.6	-426218.7	1	535445.3	-52.75057	-2.165905E-009	-0.0005945	5
