EXPLAIN
TAG	EISPOT
TITLE	LABEL	Potentiostatic EIS	Test Identifier
DATE	LABEL	11/20/2021	Date
TIME	LABEL	16:45:38	Time
NOTES	NOTES	1	Notes...
	
PSTAT	PSTAT	REF3000-16137	Potentiostat
VDC	POTEN	0.00000E+000	T	DC Voltage (V)
FREQINIT	QUANT	3.00000E+005	Initial Freq. (Hz)
FREQFINAL	QUANT	1.00000E+000	Final Freq. (Hz)
PTSPERDEC	QUANT	1.00000E+001	Points/decade
VAC	QUANT	5.00000E+001	AC Voltage (mV rms)
AREA	QUANT	1.00000E+000	Sample Area (cm^2)
SPEED	SELECTOR	2	Optimize for:
ZGUESS	QUANT	1.00000E+003	Estimated Z (ohms)
EOC	QUANT	0	Open Circuit (V)
SEQUENCER	TOGGLE	TRUE	Run as Sequence
PSTATMODEL	IQUANT	5	Pstat Model
PSTATSECTION	LABEL	REF3000-16137	Pstat Section
PSTATSERIALNO	LABEL	16137	Pstat Serial Number
CTRLMODE	IQUANT	1	Control Mode
IESTAB	IQUANT	0	I/E Stability
CASPEED	IQUANT	1	Control Amp Speed
CONVENTION	IQUANT	1	Current Convention
ICHRANGE	IQUANT	2	Ich Range
ICHRANGEMODE	TOGGLE	F	Ich Auto Range
ICHOFFSETENABLE	TOGGLE	T	Ich Offset Enable
ICHOFFSET	QUANT	0	Ich Offset (V)
ICHFILTER	IQUANT	3	Ich Filter
VCHRANGE	IQUANT	2	Vch Range
VCHRANGEMODE	TOGGLE	F	Vch Auto Range
VCHOFFSETENABLE	TOGGLE	T	Vch Offset Enable
VCHOFFSET	QUANT	0	Vch Offset (V)
VCHFILTER	IQUANT	3	Vch Filter
ACHRANGE	IQUANT	2	Ach Range
ACHOFFSETENABLE	TOGGLE	F	Ach Offset Enable
ACHOFFSET	QUANT	0	Ach Offset (V)
ACHFILTER	IQUANT	3	Ach Filter
IERANGELOWERLIMIT	IQUANT	2	I/E Range Lower Limit
IERANGEMODE	TOGGLE	F	I/E AutoRange
IERANGE	IQUANT	11	I/E Range
POSFEEDENABLE	TOGGLE	F	Positive Feedback IR Comp
POSFEEDRESISTANCE	QUANT	0	Positive Feedback Resistance (ohm)
ACHSELECT	IQUANT	0	Ach Select
CABLEID	IQUANT	13	Cable ID
DCCALDATE	LABEL	9/10/2021	DC Calibration Date
ACCALDATE	LABEL	9/10/2021	AC Calibration Date
THERMOSELECT	IQUANT	1	Thermo Select
FRAMEWORKVERSION	QUANT	6.33	Framework Version
INSTRUMENTVERSION	LABEL	3.50	Instrument Version
COMPLIANCEVOLTAGE	IQUANT	0	Compliance Voltage
ZCURVE	TABLE
	Pt	Time	Freq	Zreal	Zimag	Zsig	Zmod	Zphz	Idc	Vdc	IERange
	#	s	Hz	ohm	ohm	V	ohm	°	A	V	#
	0	7	300046.9	165.5287	-16.76741	1	166.3758	-5.784106	6.831862E-005	-0.0022006	9
	1	10	238359.4	167.4873	-19.95757	1	168.6722	-6.795249	1.492997E-005	-0.0010803	9
	2	13	189328.1	168.8365	-23.44446	1	170.4565	-7.905479	6.22799E-006	-0.0017786	9
	3	16	150421.9	171.6001	-28.07625	1	173.8817	-9.292086	-6.576215E-006	0.0011644	9
	4	19	119484.4	173.997	-33.43802	1	177.1809	-10.87824	-1.313296E-005	0.0010263	9
	5	21	94921.88	176.6467	-39.70839	1	181.0547	-12.66893	-1.428817E-005	0.0006388	9
	6	24	75421.88	180.2522	-47.1741	1	186.323	-14.66604	2.633251E-005	-0.0007905	9
	7	26	59859.37	184.1054	-56.37273	1	192.5427	-17.02449	2.701928E-006	-0.0006417	9
	8	29	47578.12	189.0316	-67.38678	1	200.6837	-19.62035	-1.835441E-005	0.0001584	9
	9	31	37828.12	194.7394	-80.39365	1	210.6812	-22.43215	-2.178073E-005	0.0003142	9
	10	34	30046.88	201.5609	-95.4136	1	223.0035	-25.33162	1.904564E-005	-0.0010121	9
	11	36	23859.38	209.3947	-114.0313	1	238.4308	-28.57165	2.392126E-005	-0.000659	9
	12	39	18984.38	218.9822	-135.2053	1	257.359	-31.69227	-2.246122E-005	0.0005152	9
	13	42	15046.87	229.623	-160.797	1	280.3255	-35.00222	1.309635E-005	-0.0009087	9
	14	44	11953.13	242.8071	-192.3635	1	309.7725	-38.38796	5.218213E-006	-0.0007674	9
	15	47	9515.62	257.7957	-228.9112	1	344.7592	-41.60367	1.831224E-005	-0.0009483	9
	16	49	7546.875	274.7662	-272.2462	1	386.8003	-44.73605	2.616143E-006	0.0003478	9
	17	51	5928.309	297.0986	-325.994	1	441.0665	-47.65514	1.468749E-006	0.0014537	8
	18	54	4733.456	320.6296	-387.6062	1	503.0327	-50.40229	9.722353E-006	-0.0023486	8
	19	56	3796.875	350.358	-458.302	1	576.8808	-52.60318	7.10293E-006	-0.0028971	8
	20	58	2987.132	386.3962	-550.9612	1	672.9489	-54.95752	-2.59312E-006	-0.0011758	8
	21	60	2390.625	427.4291	-654.6419	1	781.8259	-56.85865	-6.359083E-006	0.0031582	8
	22	63	1884.191	479.9787	-782.4353	1	917.9241	-58.4733	3.71203E-006	-0.0030158	8
	23	65	1516.544	538.6104	-930.0388	1	1074.743	-59.92372	3.861647E-006	-0.0030688	8
	24	68	1193.986	613.8115	-1117.682	1	1275.138	-61.22517	1.848178E-006	0.0013756	8
	25	70	946.5144	700.4318	-1338.982	1	1511.118	-62.38559	6.241026E-006	-0.0034295	8
	26	73	751.7689	812.1824	-1595.295	1	1790.141	-63.01885	7.968349E-006	-0.0012295	8
	27	75	597.4265	937.4302	-1897.089	1	2116.063	-63.70412	-2.412876E-006	-0.0013081	8
	28	78	477.4305	1095.666	-2252.866	1	2505.173	-64.06435	7.725114E-008	-0.0001533	8
	29	80	376.6741	1295.19	-2695.227	1	2990.278	-64.33342	4.315477E-008	-0.000121	8
	30	83	298.2954	1537.063	-3212.22	1	3561.028	-64.42867	3.631141E-008	-0.0001177	8
	31	85	237.7717	1832.712	-3812.056	1	4229.729	-64.32328	-4.206091E-010	-0.0001068	7
	32	87	189.0121	2192.797	-4516.933	1	5021.06	-64.10521	-2.177348E-009	-9.305823E-005	7
	33	90	150.2404	2636.813	-5339.488	1	5955.075	-63.71834	2.237098E-009	-0.0001119	7
	34	92	119.1737	3190.036	-6303.093	1	7064.369	-63.15574	2.488732E-009	-0.0001118	7
	35	94	95.0169	3856.901	-7388.751	1	8334.826	-62.43561	2.894039E-009	-0.0001432	7
	36	97	75.60484	4679.014	-8637.776	1	9823.66	-61.55595	2.037815E-009	-0.0001081	7
	37	99	54.50582	6174.495	-10708.68	1	12361.24	-60.03276	3.253584E-009	-0.0001098	7
	38	102	45.95588	7125.83	-11934.15	1	13899.69	-59.15876	-7.965786E-010	-9.482368E-005	7
	39	104	37.20238	8498.374	-13587.62	1	16026.41	-57.97609	5.118852E-009	-0.0001101	7
	40	107	30.04808	10128.72	-15417.86	1	18447.26	-56.6972	6.087608E-009	-0.0001449	7
	41	109	23.91582	12157.68	-17534.37	1	21336.9	-55.264	1.213567E-009	-0.0001018	7
	42	111	18.60119	14783.45	-20078.04	1	24933.47	-53.6358	-1.228616E-008	-0.0001003	7
	43	114	15.02404	17375.8	-22370.14	1	28325.63	-52.16206	4.98241E-009	-9.325349E-005	7
	44	116	12.01923	20452.84	-24912.24	1	32232.56	-50.61415	-7.067395E-009	-0.0001041	7
	45	118	9.450605	24142.64	-27738.56	1	36773.56	-48.96487	7.07449E-009	-0.0001021	7
	46	121	7.512019	28172.44	-30577.2	1	41577.05	-47.34395	-6.928981E-009	-0.0001223	6
	47	124	5.978954	32393.98	-33603.66	1	46675.21	-46.05006	-6.001425E-009	-0.0001366	6
	48	127	4.734848	37161.89	-36867.14	1	52346.85	-44.77188	-5.20245E-009	-0.0001523	6
	49	130	3.75601	42309.68	-40378.73	1	58485.47	-43.66226	5.059651E-009	-0.0001142	6
	50	133	3.004808	47672.16	-44086.15	1	64932.46	-42.76196	5.018306E-009	-0.0001481	6
	51	137	2.372217	53870.43	-48241.86	1	72313.9	-41.84497	8.486166E-010	-0.0001998	6
	52	141	1.878005	60388.93	-53025.56	1	80365	-41.28532	4.347035E-009	-0.0001351	6
	53	146	1.512097	66923.71	-57896.8	1	88491.94	-40.86362	3.387346E-009	-0.0001273	6
	54	151	1.201923	74554.57	-63710.94	1	98068.7	-40.51569	2.677684E-009	-0.0001438	6
	55	158	0.956633	82862.41	-70360.04	1	108704.7	-40.33521	-3.790941E-009	-0.0006783	6
