EXPLAIN
TAG	EISPOT
TITLE	LABEL	Potentiostatic EIS	Test Identifier
DATE	LABEL	11/20/2021	Date
TIME	LABEL	17:04:58	Time
NOTES	NOTES	1	Notes...
	
PSTAT	PSTAT	REF3000-16137	Potentiostat
VDC	POTEN	0.00000E+000	T	DC Voltage (V)
FREQINIT	QUANT	3.00000E+005	Initial Freq. (Hz)
FREQFINAL	QUANT	1.00000E+000	Final Freq. (Hz)
PTSPERDEC	QUANT	1.00000E+001	Points/decade
VAC	QUANT	5.00000E+001	AC Voltage (mV rms)
AREA	QUANT	1.00000E+000	Sample Area (cm^2)
SPEED	SELECTOR	2	Optimize for:
ZGUESS	QUANT	1.00000E+003	Estimated Z (ohms)
EOC	QUANT	0	Open Circuit (V)
SEQUENCER	TOGGLE	TRUE	Run as Sequence
PSTATMODEL	IQUANT	5	Pstat Model
PSTATSECTION	LABEL	REF3000-16137	Pstat Section
PSTATSERIALNO	LABEL	16137	Pstat Serial Number
CTRLMODE	IQUANT	1	Control Mode
IESTAB	IQUANT	0	I/E Stability
CASPEED	IQUANT	1	Control Amp Speed
CONVENTION	IQUANT	1	Current Convention
ICHRANGE	IQUANT	2	Ich Range
ICHRANGEMODE	TOGGLE	F	Ich Auto Range
ICHOFFSETENABLE	TOGGLE	T	Ich Offset Enable
ICHOFFSET	QUANT	0	Ich Offset (V)
ICHFILTER	IQUANT	3	Ich Filter
VCHRANGE	IQUANT	2	Vch Range
VCHRANGEMODE	TOGGLE	F	Vch Auto Range
VCHOFFSETENABLE	TOGGLE	T	Vch Offset Enable
VCHOFFSET	QUANT	0	Vch Offset (V)
VCHFILTER	IQUANT	3	Vch Filter
ACHRANGE	IQUANT	2	Ach Range
ACHOFFSETENABLE	TOGGLE	F	Ach Offset Enable
ACHOFFSET	QUANT	0	Ach Offset (V)
ACHFILTER	IQUANT	3	Ach Filter
IERANGELOWERLIMIT	IQUANT	2	I/E Range Lower Limit
IERANGEMODE	TOGGLE	F	I/E AutoRange
IERANGE	IQUANT	11	I/E Range
POSFEEDENABLE	TOGGLE	F	Positive Feedback IR Comp
POSFEEDRESISTANCE	QUANT	0	Positive Feedback Resistance (ohm)
ACHSELECT	IQUANT	0	Ach Select
CABLEID	IQUANT	13	Cable ID
DCCALDATE	LABEL	9/10/2021	DC Calibration Date
ACCALDATE	LABEL	9/10/2021	AC Calibration Date
THERMOSELECT	IQUANT	1	Thermo Select
FRAMEWORKVERSION	QUANT	6.33	Framework Version
INSTRUMENTVERSION	LABEL	3.50	Instrument Version
COMPLIANCEVOLTAGE	IQUANT	0	Compliance Voltage
ZCURVE	TABLE
	Pt	Time	Freq	Zreal	Zimag	Zsig	Zmod	Zphz	Idc	Vdc	IERange
	#	s	Hz	ohm	ohm	V	ohm	°	A	V	#
	0	14	300046.9	1053.189	-277.9731	1	1089.255	-14.78518	2.276758E-005	-0.0013694	9
	1	29	238359.4	1126.75	-262.4568	1	1156.913	-13.11225	2.042333E-005	-0.0013041	9
	2	55	189328.1	1165.026	-251.3043	1	1191.822	-12.17259	-3.439167E-005	-0.0008718	9
	3	67	150421.9	1212.729	-209.4161	1	1230.678	-9.79731	-7.00837E-006	-0.001714	9
	4	77	119484.4	1255.579	-161.0284	1	1265.862	-7.308309	-2.944907E-005	-0.0024669	8
	5	84	94921.88	1270.925	-151.7663	1	1279.955	-6.809676	1.537849E-005	-0.0014044	8
	6	86	75421.88	1291.679	-155.4145	1	1300.995	-6.860833	-1.958546E-005	0.0042141	8
	7	89	59859.37	1303.62	-154.982	1	1312.8	-6.779839	-1.77799E-005	0.0078905	8
	8	92	47578.12	1322.733	-170.4775	1	1333.674	-7.343955	1.636284E-005	-0.0083035	8
	9	95	37828.12	1336.537	-182.2496	1	1348.905	-7.764938	8.763562E-006	0.0018011	8
	10	97	30046.88	1354.302	-206.0685	1	1369.89	-8.651674	-1.789412E-005	0.0026826	8
	11	100	23859.38	1373.997	-233.6741	1	1393.726	-9.65188	-1.768085E-005	0.0025232	8
	12	103	18984.38	1399.728	-271.2434	1	1425.767	-10.96702	-2.07929E-005	0.0059722	8
	13	106	15046.87	1422.559	-316.4464	1	1457.331	-12.54117	-1.466742E-005	0.0007913	8
	14	109	11953.13	1457.252	-378.291	1	1505.552	-14.55232	1.990518E-005	-0.0037537	8
	15	112	9515.62	1494.801	-445.1701	1	1559.682	-16.58418	-1.954877E-005	0.0042023	8
	16	117	7546.875	1540.545	-532.6846	1	1630.04	-19.0742	-1.01494E-005	-0.0014148	8
	17	120	5928.309	1600.549	-637.3022	1	1722.762	-21.71133	1.640379E-005	-0.0082898	8
	18	124	4733.456	1657.88	-755.5325	1	1821.921	-24.4998	-3.322819E-006	-0.0039696	8
	19	128	3796.875	1731.759	-888.1061	1	1946.207	-27.15032	-3.325505E-006	-0.0039575	8
	20	132	2987.132	1824.908	-1069.031	1	2114.974	-30.36176	1.104767E-005	-0.0077355	8
	21	137	2390.625	1918.387	-1251.188	1	2290.345	-33.11274	1.992588E-005	-0.0037077	8
	22	140	1884.191	2025.682	-1486.194	1	2512.402	-36.26659	1.982898E-005	-0.0037162	8
	23	144	1516.544	2159.498	-1769.927	1	2792.145	-39.33809	-1.370895E-005	0.0080744	8
	24	150	1193.986	2328.578	-2125.188	1	3152.57	-42.38529	-1.057374E-005	0.0007404	9
	25	155	946.5144	2523.088	-2538.737	1	3579.268	-45.17713	-1.363514E-005	0.0080192	8
	26	159	751.7689	2780.98	-2995.901	1	4087.698	-47.13063	-1.491767E-005	0.0008346	8
	27	163	597.4265	2928.226	-3542.466	1	4596.039	-50.42264	4.078516E-006	-0.0062955	8
	28	166	477.4305	3275.097	-4229.613	1	5349.382	-52.24847	-6.21384E-008	-0.0001143	7
	29	169	376.6741	3628.893	-5056.839	1	6224.185	-54.33599	-6.468797E-008	-0.0001028	7
	30	171	298.2954	4045.649	-6031.6	1	7262.746	-56.14857	-5.683695E-008	-0.0001317	7
	31	173	237.7717	4529.76	-7159.371	1	8472.031	-57.67831	-5.764001E-008	-0.0001415	7
	32	176	189.0121	5115.212	-8515.245	1	9933.52	-59.00625	-5.892753E-008	-0.0001382	7
	33	178	150.2404	5814.935	-10124.4	1	11675.48	-60.12915	-6.562007E-008	-8.132641E-005	7
	34	181	119.1737	6658.666	-12058.55	1	13774.85	-61.09277	-5.736977E-008	-0.0001145	7
	35	183	95.0169	7654.102	-14293.49	1	16213.85	-61.83114	-5.778947E-008	-0.0001365	7
	36	185	75.60484	8856.207	-16970.5	1	19142.37	-62.4418	-6.346616E-008	-0.0001156	7
	37	188	54.50582	11004.19	-21670.28	1	24304.18	-63.0785	-6.263961E-008	-0.0001237	7
	38	191	45.95588	12394.87	-24628.01	1	27571.21	-63.28464	-6.544717E-008	-7.708956E-005	7
	39	193	37.20238	14407.98	-28822.68	1	32223.23	-63.4403	-5.823996E-008	-0.0001181	7
	40	195	30.04808	16847.51	-33776.09	1	37744.7	-63.48997	-6.437174E-008	-0.0001349	7
	41	198	23.91582	20081.2	-39957.02	1	44719.33	-63.31727	-8.357319E-009	-0.000148	6
	42	200	18.60119	24400.41	-47943.87	1	53795.86	-63.02678	-9.09995E-009	-9.36019E-005	6
	43	202	15.02404	28913.78	-55896.28	1	62931.72	-62.64858	-5.892812E-009	-0.0001369	6
	44	205	12.01923	34702.73	-65414.16	1	74049.26	-62.0537	-9.627549E-009	-0.0001604	6
	45	207	9.450605	42283.63	-77156.61	1	87983.23	-61.27623	-7.954705E-009	-9.473455E-005	6
	46	210	7.512019	51187.12	-90030.48	1	103564.5	-60.37947	-8.249569E-009	-0.0001399	6
	47	212	5.978954	61860.12	-104419.5	1	121367.7	-59.35669	-8.811395E-009	-0.0001204	6
	48	215	4.734848	75035.83	-121173.1	1	142524.8	-58.23236	-6.900533E-009	-8.558541E-005	6
	49	219	3.75601	90703.76	-139577.1	1	166460.1	-56.9823	-8.189226E-009	-0.0001808	6
	50	222	3.004808	108680.3	-159062.7	1	192645.6	-55.65699	-6.976717E-009	-0.000183	6
	51	226	2.372217	131199.3	-181684.8	1	224104	-54.16597	-8.208019E-009	-0.0001246	6
	52	230	1.878005	157960.3	-206203.3	1	259752.2	-52.54639	-8.623472E-009	-0.000146	6
	53	235	1.512097	186235.9	-230453	1	296297.8	-51.05729	-8.145116E-009	-0.0001957	6
	54	240	1.201923	221236.9	-257433.3	1	339437.3	-49.32439	-8.422494E-009	-0.000144	6
	55	246	0.956633	260354.4	-285473.7	1	386367.2	-47.63493	-8.810658E-009	-0.000679	6
