EXPLAIN
TAG	EISPOT
TITLE	LABEL	Potentiostatic EIS	Test Identifier
DATE	LABEL	11/20/2021	Date
TIME	LABEL	16:29:06	Time
NOTES	NOTES	1	Notes...
	
PSTAT	PSTAT	REF3000-16137	Potentiostat
VDC	POTEN	0.00000E+000	T	DC Voltage (V)
FREQINIT	QUANT	3.00000E+005	Initial Freq. (Hz)
FREQFINAL	QUANT	1.00000E+000	Final Freq. (Hz)
PTSPERDEC	QUANT	1.00000E+001	Points/decade
VAC	QUANT	5.00000E+001	AC Voltage (mV rms)
AREA	QUANT	1.00000E+000	Sample Area (cm^2)
SPEED	SELECTOR	2	Optimize for:
ZGUESS	QUANT	1.00000E+003	Estimated Z (ohms)
EOC	QUANT	0	Open Circuit (V)
SEQUENCER	TOGGLE	TRUE	Run as Sequence
PSTATMODEL	IQUANT	5	Pstat Model
PSTATSECTION	LABEL	REF3000-16137	Pstat Section
PSTATSERIALNO	LABEL	16137	Pstat Serial Number
CTRLMODE	IQUANT	1	Control Mode
IESTAB	IQUANT	0	I/E Stability
CASPEED	IQUANT	1	Control Amp Speed
CONVENTION	IQUANT	1	Current Convention
ICHRANGE	IQUANT	2	Ich Range
ICHRANGEMODE	TOGGLE	F	Ich Auto Range
ICHOFFSETENABLE	TOGGLE	T	Ich Offset Enable
ICHOFFSET	QUANT	0	Ich Offset (V)
ICHFILTER	IQUANT	3	Ich Filter
VCHRANGE	IQUANT	2	Vch Range
VCHRANGEMODE	TOGGLE	F	Vch Auto Range
VCHOFFSETENABLE	TOGGLE	T	Vch Offset Enable
VCHOFFSET	QUANT	0	Vch Offset (V)
VCHFILTER	IQUANT	3	Vch Filter
ACHRANGE	IQUANT	2	Ach Range
ACHOFFSETENABLE	TOGGLE	F	Ach Offset Enable
ACHOFFSET	QUANT	0	Ach Offset (V)
ACHFILTER	IQUANT	3	Ach Filter
IERANGELOWERLIMIT	IQUANT	2	I/E Range Lower Limit
IERANGEMODE	TOGGLE	F	I/E AutoRange
IERANGE	IQUANT	11	I/E Range
POSFEEDENABLE	TOGGLE	F	Positive Feedback IR Comp
POSFEEDRESISTANCE	QUANT	0	Positive Feedback Resistance (ohm)
ACHSELECT	IQUANT	0	Ach Select
CABLEID	IQUANT	13	Cable ID
DCCALDATE	LABEL	9/10/2021	DC Calibration Date
ACCALDATE	LABEL	9/10/2021	AC Calibration Date
THERMOSELECT	IQUANT	1	Thermo Select
FRAMEWORKVERSION	QUANT	6.33	Framework Version
INSTRUMENTVERSION	LABEL	3.50	Instrument Version
COMPLIANCEVOLTAGE	IQUANT	0	Compliance Voltage
ZCURVE	TABLE
	Pt	Time	Freq	Zreal	Zimag	Zsig	Zmod	Zphz	Idc	Vdc	IERange
	#	s	Hz	ohm	ohm	V	ohm	°	A	V	#
	0	7	300046.9	60.83196	-9.094152	1	61.50798	-8.502538	-3.525725E-006	0.0002513	9
	1	10	238359.4	61.82333	-12.08056	1	62.99258	-11.05654	1.492532E-006	0.0001645	9
	2	13	189328.1	63.01893	-15.18986	1	64.82375	-13.55187	-3.381963E-005	-0.0001816	9
	3	16	150421.9	64.43074	-19.00406	1	67.17496	-16.4336	-3.300838E-005	-5.708032E-005	9
	4	18	119484.4	66.10878	-23.14025	1	70.04172	-19.29173	-3.059538E-006	-0.0010414	9
	5	21	94921.88	68.1306	-27.94657	1	73.63959	-22.303	2.059875E-006	-0.0005662	9
	6	23	75421.88	70.34665	-33.83055	1	78.05868	-25.68346	-8.671577E-007	0.0001876	9
	7	26	59859.37	73.05286	-40.56154	1	83.55812	-29.04059	-1.073948E-005	-8.474262E-005	9
	8	28	47578.12	76.18089	-48.73201	1	90.43416	-32.60657	-1.578485E-005	7.914154E-005	9
	9	31	37828.12	79.9455	-58.12886	1	98.8446	-36.02113	2.098478E-005	-0.0005142	9
	10	33	30046.88	84.35191	-69.56828	1	109.3389	-39.51372	-1.63266E-005	0.0001403	9
	11	36	23859.38	89.7461	-82.80327	1	122.1096	-42.69584	-1.756302E-005	0.0003432	9
	12	38	18984.38	95.9443	-98.847	1	137.7536	-45.85373	-1.926562E-006	0.0003479	9
	13	40	15046.87	103.3888	-118.327	1	157.1321	-48.8545	1.395855E-005	-0.0007878	9
	14	43	11953.13	112.2435	-141.0517	1	180.2614	-51.48857	7.648988E-006	-0.000641	9
	15	45	9515.62	122.5088	-168.4651	1	208.3	-53.97512	1.928359E-005	-0.0004958	9
	16	47	7546.875	135.3171	-201.7071	1	242.8919	-56.14393	8.9556E-006	-0.0007426	9
	17	50	5928.309	150.8549	-243.5677	1	286.5003	-58.22778	-2.599035E-006	0.0003081	9
	18	52	4733.456	169.8836	-289.3681	1	335.5508	-59.58345	-1.083443E-005	-0.0001059	9
	19	54	3796.875	192.6353	-341.7266	1	392.2823	-60.58953	-1.702952E-005	0.0001878	9
	20	56	2987.132	218.63	-412.0487	1	466.4582	-62.04992	2.947896E-006	-0.0002123	8
	21	59	2390.625	249.812	-489.155	1	549.2527	-62.94655	5.408027E-006	-0.001346	8
	22	61	1884.191	291.4472	-586.1004	1	654.5649	-63.56045	-1.549446E-006	0.0011605	8
	23	63	1516.544	337.812	-691.8333	1	769.9028	-63.97442	4.808465E-006	-0.0016052	8
	24	66	1193.986	401.0369	-828.627	1	920.5723	-64.17406	5.834967E-007	-0.0009734	8
	25	68	946.5144	471.0942	-989.663	1	1096.067	-64.54487	-1.0328E-006	-0.0004659	8
	26	70	751.7689	563.1728	-1170.557	1	1298.987	-64.30708	1.421936E-006	0.0003569	8
	27	73	597.4265	672.8237	-1383.591	1	1538.511	-64.0669	-3.527318E-006	0.0005444	8
	28	75	477.4305	807.0331	-1631.176	1	1819.9	-63.67585	3.521597E-007	-0.0001191	8
	29	77	376.6741	978.698	-1930.085	1	2164.042	-63.11156	3.531232E-007	-0.0001197	8
	30	80	298.2954	1186.491	-2270.563	1	2561.878	-62.41051	3.736857E-007	-0.0001505	8
	31	82	237.7717	1432.198	-2649.179	1	3011.535	-61.60349	3.445592E-007	-0.000118	8
	32	84	189.0121	1732.25	-3083.618	1	3536.861	-60.67452	3.556508E-007	-0.0001218	8
	33	87	150.2404	2092.767	-3573.205	1	4140.95	-59.6432	3.455619E-007	-0.0001205	8
	34	89	119.1737	2538.528	-4140.165	1	4856.449	-58.4856	4.398363E-008	-0.0001047	7
	35	92	95.0169	3042.568	-4743.679	1	5635.575	-57.32413	4.196627E-008	-0.0001007	7
	36	94	75.60484	3642.977	-5419.653	1	6530.231	-56.09183	4.652063E-008	-0.0001392	7
	37	97	54.50582	4683.995	-6494.395	1	8007.307	-54.19948	4.385939E-008	-0.0001193	7
	38	99	45.95588	5324.424	-7110.815	1	8883.31	-53.17493	3.634295E-008	-0.0001037	7
	39	101	37.20238	6215.025	-7915.476	1	10063.86	-51.86192	4.148148E-008	-0.0001117	7
	40	104	30.04808	7218.456	-8775.957	1	11363.25	-50.56181	3.850618E-008	-0.0001017	7
	41	106	23.91582	8424.017	-9747.49	1	12883.23	-49.16562	3.024286E-008	-0.0001063	7
	42	109	18.60119	9912.66	-10899.88	1	14733.24	-47.71573	5.652508E-008	-0.0001051	7
	43	111	15.02404	11293.46	-11928.24	1	16426.36	-46.56582	4.331492E-008	-0.0001255	7
	44	113	12.01923	12878.18	-13088.42	1	18361.76	-45.46388	4.563401E-008	-0.0001093	7
	45	116	9.450605	14739.3	-14407.72	1	20611.39	-44.34822	2.248567E-008	-0.0001015	7
	46	118	7.512019	16652.06	-15817.99	1	22967.37	-43.52854	3.06347E-008	-0.0001176	7
	47	121	5.978954	18751.93	-17331.89	1	25534.87	-42.74635	4.491546E-008	-0.000103	7
	48	124	4.734848	21053.33	-19059.23	1	28398.89	-42.15402	3.761633E-008	-0.0001221	7
	49	127	3.75601	23520.54	-20954.07	1	31500.62	-41.69734	4.642349E-008	-9.330854E-005	7
	50	131	3.004808	26076.45	-22991.41	1	34764.72	-41.40239	3.775262E-008	-6.550601E-005	7
	51	134	2.372217	29115.98	-25464.74	1	38680.66	-41.17283	4.714664E-008	-3.83665E-005	7
	52	138	1.878005	32337.31	-28240.34	1	42932.72	-41.13087	6.95173E-009	-0.000187	6
	53	143	1.512097	35623.25	-31217.52	1	47366.13	-41.22887	6.520474E-009	-8.477312E-005	6
	54	149	1.201923	39639.73	-34919.29	1	52826.74	-41.37735	7.332514E-009	-0.0001655	6
	55	155	0.956633	44186.12	-39142.86	1	59030.3	-41.53655	2.000525E-009	-0.0006828	6
