EXPLAIN
TAG	EISPOT
TITLE	LABEL	Potentiostatic EIS	Test Identifier
DATE	LABEL	11/20/2021	Date
TIME	LABEL	16:20:52	Time
NOTES	NOTES	1	Notes...
	
PSTAT	PSTAT	REF3000-16137	Potentiostat
VDC	POTEN	0.00000E+000	T	DC Voltage (V)
FREQINIT	QUANT	3.00000E+005	Initial Freq. (Hz)
FREQFINAL	QUANT	1.00000E+000	Final Freq. (Hz)
PTSPERDEC	QUANT	1.00000E+001	Points/decade
VAC	QUANT	5.00000E+001	AC Voltage (mV rms)
AREA	QUANT	1.00000E+000	Sample Area (cm^2)
SPEED	SELECTOR	2	Optimize for:
ZGUESS	QUANT	1.00000E+003	Estimated Z (ohms)
EOC	QUANT	0	Open Circuit (V)
SEQUENCER	TOGGLE	TRUE	Run as Sequence
PSTATMODEL	IQUANT	5	Pstat Model
PSTATSECTION	LABEL	REF3000-16137	Pstat Section
PSTATSERIALNO	LABEL	16137	Pstat Serial Number
CTRLMODE	IQUANT	1	Control Mode
IESTAB	IQUANT	0	I/E Stability
CASPEED	IQUANT	1	Control Amp Speed
CONVENTION	IQUANT	1	Current Convention
ICHRANGE	IQUANT	2	Ich Range
ICHRANGEMODE	TOGGLE	F	Ich Auto Range
ICHOFFSETENABLE	TOGGLE	T	Ich Offset Enable
ICHOFFSET	QUANT	0	Ich Offset (V)
ICHFILTER	IQUANT	3	Ich Filter
VCHRANGE	IQUANT	2	Vch Range
VCHRANGEMODE	TOGGLE	F	Vch Auto Range
VCHOFFSETENABLE	TOGGLE	T	Vch Offset Enable
VCHOFFSET	QUANT	0	Vch Offset (V)
VCHFILTER	IQUANT	3	Vch Filter
ACHRANGE	IQUANT	2	Ach Range
ACHOFFSETENABLE	TOGGLE	F	Ach Offset Enable
ACHOFFSET	QUANT	0	Ach Offset (V)
ACHFILTER	IQUANT	3	Ach Filter
IERANGELOWERLIMIT	IQUANT	2	I/E Range Lower Limit
IERANGEMODE	TOGGLE	F	I/E AutoRange
IERANGE	IQUANT	11	I/E Range
POSFEEDENABLE	TOGGLE	F	Positive Feedback IR Comp
POSFEEDRESISTANCE	QUANT	0	Positive Feedback Resistance (ohm)
ACHSELECT	IQUANT	0	Ach Select
CABLEID	IQUANT	13	Cable ID
DCCALDATE	LABEL	9/10/2021	DC Calibration Date
ACCALDATE	LABEL	9/10/2021	AC Calibration Date
THERMOSELECT	IQUANT	1	Thermo Select
FRAMEWORKVERSION	QUANT	6.33	Framework Version
INSTRUMENTVERSION	LABEL	3.50	Instrument Version
COMPLIANCEVOLTAGE	IQUANT	0	Compliance Voltage
ZCURVE	TABLE
	Pt	Time	Freq	Zreal	Zimag	Zsig	Zmod	Zphz	Idc	Vdc	IERange
	#	s	Hz	ohm	ohm	V	ohm	°	A	V	#
	0	7	300046.9	43.69378	-8.254575	1	44.46667	-10.69816	3.968893E-005	-0.0014516	9
	1	10	238359.4	44.58034	-10.84119	1	45.8796	-13.66807	-5.82043E-005	0.0010052	9
	2	13	189328.1	45.57048	-13.89902	1	47.64296	-16.96173	-3.053676E-006	7.926905E-005	9
	3	15	150421.9	46.93016	-17.24261	1	49.99747	-20.17384	1.062285E-005	-0.0008521	9
	4	18	119484.4	48.34551	-21.15138	1	52.76997	-23.6296	5.90114E-006	0.0003741	9
	5	21	94921.88	50.14751	-25.56831	1	56.28953	-27.01531	5.187891E-006	9.479586E-007	9
	6	23	75421.88	52.12863	-30.87548	1	60.58622	-30.63801	1.909106E-005	-0.0005254	9
	7	26	59859.37	54.47698	-37.21777	1	65.97654	-34.34024	6.946816E-006	-0.0005778	9
	8	28	47578.12	57.30762	-44.6278	1	72.63474	-37.90936	6.986127E-007	-0.0004299	9
	9	31	37828.12	60.77033	-53.3606	1	80.87266	-41.28539	1.183162E-005	-0.0006883	9
	10	33	30046.88	64.6781	-63.83689	1	90.87577	-44.62497	1.265327E-005	-0.0001875	9
	11	36	23859.38	69.5113	-76.19437	1	103.1378	-47.62614	-1.094091E-005	0.0004591	9
	12	38	18984.38	74.99859	-91.15012	1	118.0387	-50.55235	7.078331E-006	-0.000582	9
	13	40	15046.87	82.04336	-108.959	1	136.3934	-53.02117	6.574622E-006	-0.0005907	9
	14	44	11953.13	90.27004	-130.4169	1	158.6104	-55.31038	1.773223E-005	-0.0007001	9
	15	46	9515.62	99.7014	-155.8942	1	185.0496	-57.39923	1.557405E-005	-0.0004242	9
	16	48	7546.875	111.4614	-186.7453	1	217.4797	-59.16858	1.221752E-005	-0.0006748	9
	17	50	5928.309	127.2014	-224.3725	1	257.921	-60.4502	-1.469412E-005	0.0001651	9
	18	53	4733.456	144.3619	-267.2418	1	303.7408	-61.62244	-1.126842E-006	0.0002109	9
	19	55	3796.875	166.3066	-314.4908	1	355.7561	-62.12957	-5.382612E-006	-0.0002277	9
	20	57	2987.132	192.2464	-379.0196	1	424.9877	-63.10495	1.159712E-005	-0.0006722	9
	21	60	2390.625	222.6374	-446.59	1	499.0091	-63.50248	-2.836686E-006	0.0004873	8
	22	62	1884.191	263.2449	-535.3776	1	596.5963	-63.81668	-3.100696E-006	0.0006517	8
	23	64	1516.544	306.4146	-629.4694	1	700.0869	-64.044	-1.030058E-006	0.0008106	8
	24	67	1193.986	366.4878	-750.1191	1	834.8604	-63.96112	-3.095179E-006	0.0006567	8
	25	69	946.5144	436.5436	-892.3016	1	993.364	-63.93058	4.035746E-006	-0.0012719	8
	26	71	751.7689	524.1992	-1051.119	1	1174.579	-63.4943	3.473707E-006	-0.0006927	8
	27	74	597.4265	628.0546	-1235.714	1	1386.161	-63.05794	3.99207E-006	-0.0012766	8
	28	76	477.4305	754.2121	-1445.794	1	1630.692	-62.45078	4.401213E-007	-0.0001046	8
	29	78	376.6741	913.8489	-1699.125	1	1929.286	-61.72708	4.512837E-007	-0.0001179	8
	30	81	298.2954	1104.643	-1985.54	1	2272.136	-60.91089	4.418053E-007	-0.0001081	8
	31	83	237.7717	1326.677	-2301.39	1	2656.402	-60.03794	4.390625E-007	-0.0001127	8
	32	85	189.0121	1596.601	-2662.964	1	3104.918	-59.05487	4.359588E-007	-0.0001083	8
	33	88	150.2404	1917.355	-3068.751	1	3618.492	-58.00286	4.528039E-007	-0.0001158	8
	34	90	119.1737	2315.217	-3536.584	1	4227.015	-56.78933	5.966688E-008	-0.0000984	7
	35	93	95.0169	2762.271	-4028.426	1	4884.501	-55.56178	5.377833E-008	-0.0000969	7
	36	95	75.60484	3291.373	-4571.178	1	5632.833	-54.24508	5.744216E-008	-0.0001043	7
	37	98	54.50582	4198.27	-5417.576	1	6853.875	-52.22664	5.886486E-008	-0.0001078	7
	38	100	45.95588	4746.055	-5894.167	1	7567.446	-51.15856	6.037742E-008	-9.475325E-005	7
	39	102	37.20238	5496.899	-6509.355	1	8519.836	-49.8202	5.832775E-008	-0.0000975	7
	40	105	30.04808	6336.023	-7165.148	1	9564.75	-48.5142	6.188196E-008	-0.0000999	7
	41	107	23.91582	7320.531	-7905.999	1	10774.74	-47.20197	5.548912E-008	-0.0001066	7
	42	110	18.60119	8516.808	-8780.676	1	12232.59	-45.87396	2.80045E-008	-9.395618E-005	7
	43	112	15.02404	9643.86	-9560.43	1	13579.61	-44.75108	7.083031E-008	-8.975085E-005	7
	44	114	12.01923	10900.57	-10428.61	1	15085.7	-43.73239	3.92601E-008	-0.0001031	7
	45	117	9.450605	12370.29	-11458.4	1	16861.76	-42.80844	4.045318E-008	-0.0001207	7
	46	119	7.512019	13855.04	-12541.93	1	18688.55	-42.15217	4.378823E-008	-0.0001126	7
	47	122	5.978954	15478.21	-13730.49	1	20690.61	-41.57577	5.241633E-008	-9.464845E-005	7
	48	125	4.734848	17241.87	-15096.94	1	22917.23	-41.20531	4.525678E-008	-0.0001223	7
	49	128	3.75601	19170.56	-16618.89	1	25371.2	-40.9219	6.287761E-008	-8.249345E-005	7
	50	132	3.004808	21199.8	-18321.66	1	28019.89	-40.8348	5.847971E-008	-9.197877E-005	7
	51	135	2.372217	23538.08	-20364.04	1	31124.52	-40.86483	6.270713E-008	-0.0001173	7
	52	139	1.878005	26187.32	-22707.05	1	34661.01	-40.92859	6.390341E-008	-0.0001179	7
	53	144	1.512097	28935.13	-25199.47	1	38369.97	-41.05246	6.17829E-008	-2.796869E-005	7
	54	150	1.201923	32321.95	-28212.17	1	42902.62	-41.11604	1.632087E-008	-0.0001434	6
	55	156	0.956633	36239.4	-31609.88	1	48088.24	-41.09661	4.498769E-009	-0.0006802	6
