EXPLAIN
TAG	EISPOT
TITLE	LABEL	Potentiostatic EIS	Test Identifier
DATE	LABEL	11/20/2021	Date
TIME	LABEL	16:48:25	Time
NOTES	NOTES	1	Notes...
	
PSTAT	PSTAT	REF3000-16137	Potentiostat
VDC	POTEN	0.00000E+000	T	DC Voltage (V)
FREQINIT	QUANT	3.00000E+005	Initial Freq. (Hz)
FREQFINAL	QUANT	1.00000E+000	Final Freq. (Hz)
PTSPERDEC	QUANT	1.00000E+001	Points/decade
VAC	QUANT	5.00000E+001	AC Voltage (mV rms)
AREA	QUANT	1.00000E+000	Sample Area (cm^2)
SPEED	SELECTOR	2	Optimize for:
ZGUESS	QUANT	1.00000E+003	Estimated Z (ohms)
EOC	QUANT	0	Open Circuit (V)
SEQUENCER	TOGGLE	TRUE	Run as Sequence
PSTATMODEL	IQUANT	5	Pstat Model
PSTATSECTION	LABEL	REF3000-16137	Pstat Section
PSTATSERIALNO	LABEL	16137	Pstat Serial Number
CTRLMODE	IQUANT	1	Control Mode
IESTAB	IQUANT	0	I/E Stability
CASPEED	IQUANT	1	Control Amp Speed
CONVENTION	IQUANT	1	Current Convention
ICHRANGE	IQUANT	2	Ich Range
ICHRANGEMODE	TOGGLE	F	Ich Auto Range
ICHOFFSETENABLE	TOGGLE	T	Ich Offset Enable
ICHOFFSET	QUANT	0	Ich Offset (V)
ICHFILTER	IQUANT	3	Ich Filter
VCHRANGE	IQUANT	2	Vch Range
VCHRANGEMODE	TOGGLE	F	Vch Auto Range
VCHOFFSETENABLE	TOGGLE	T	Vch Offset Enable
VCHOFFSET	QUANT	0	Vch Offset (V)
VCHFILTER	IQUANT	3	Vch Filter
ACHRANGE	IQUANT	2	Ach Range
ACHOFFSETENABLE	TOGGLE	F	Ach Offset Enable
ACHOFFSET	QUANT	0	Ach Offset (V)
ACHFILTER	IQUANT	3	Ach Filter
IERANGELOWERLIMIT	IQUANT	2	I/E Range Lower Limit
IERANGEMODE	TOGGLE	F	I/E AutoRange
IERANGE	IQUANT	11	I/E Range
POSFEEDENABLE	TOGGLE	F	Positive Feedback IR Comp
POSFEEDRESISTANCE	QUANT	0	Positive Feedback Resistance (ohm)
ACHSELECT	IQUANT	0	Ach Select
CABLEID	IQUANT	13	Cable ID
DCCALDATE	LABEL	9/10/2021	DC Calibration Date
ACCALDATE	LABEL	9/10/2021	AC Calibration Date
THERMOSELECT	IQUANT	1	Thermo Select
FRAMEWORKVERSION	QUANT	6.33	Framework Version
INSTRUMENTVERSION	LABEL	3.50	Instrument Version
COMPLIANCEVOLTAGE	IQUANT	0	Compliance Voltage
ZCURVE	TABLE
	Pt	Time	Freq	Zreal	Zimag	Zsig	Zmod	Zphz	Idc	Vdc	IERange
	#	s	Hz	ohm	ohm	V	ohm	°	A	V	#
	0	8	300046.9	206.2711	-20.73839	1	207.311	-5.741197	-8.673869E-005	0.001778	9
	1	11	238359.4	207.6881	-23.63171	1	209.0282	-6.491458	-6.737153E-005	0.0021263	9
	2	14	189328.1	210.0385	-27.45811	1	211.8257	-7.447978	2.03155E-005	-0.0015768	9
	3	17	150421.9	212.2777	-31.09885	1	214.5436	-8.334589	-6.956423E-005	0.0022957	9
	4	19	119484.4	215.8464	-36.48901	1	218.9089	-9.59518	3.060475E-005	0.0003841	9
	5	22	94921.88	218.66	-43.40152	1	222.9258	-11.22664	-1.117956E-005	-0.0002418	9
	6	25	75421.88	222.113	-51.36923	1	227.9758	-13.02214	7.811083E-006	-0.0008353	9
	7	27	59859.37	226.6606	-61.32365	1	234.8097	-15.13909	-1.463482E-005	0.0006021	9
	8	30	47578.12	232.1268	-72.70699	1	243.2471	-17.39165	-1.518201E-005	0.000683	9
	9	32	37828.12	238.5142	-86.45763	1	253.7005	-19.92478	5.654501E-006	-0.00078	9
	10	36	30046.88	246.4706	-103.2495	1	267.2231	-22.7294	1.963372E-006	0.0002868	9
	11	38	23859.38	254.9355	-122.7701	1	282.9569	-25.71423	2.274417E-005	-0.0004695	9
	12	41	18984.38	264.9985	-145.8769	1	302.4968	-28.832	-1.610009E-005	-6.074292E-005	9
	13	43	15046.87	276.4697	-172.7832	1	326.0208	-32.00383	-1.565232E-005	-4.509464E-005	9
	14	45	11953.13	291.302	-206.9355	1	357.3222	-35.38927	-7.451561E-006	0.0005365	9
	15	48	9515.62	307.1863	-245.8009	1	393.4228	-38.66571	2.624735E-005	-0.0008493	9
	16	50	7546.875	326.7149	-293.6782	1	439.3057	-41.95181	1.98507E-005	-0.0003711	9
	17	52	5928.309	349.5261	-348.8815	1	493.849	-44.94712	-6.188722E-006	-0.0001168	8
	18	54	4733.456	377.1658	-415.4036	1	561.083	-47.76212	-5.288927E-006	0.0035162	8
	19	57	3796.875	408.1392	-492.4673	1	639.6106	-50.34928	9.813742E-007	-0.0026687	8
	20	59	2987.132	446.3106	-589.3674	1	739.2883	-52.86443	4.533988E-006	-0.0036	8
	21	61	2390.625	492.1545	-698.262	1	854.2751	-54.82275	-2.930499E-006	-0.0013783	8
	22	64	1884.191	541.6852	-838.0519	1	997.875	-57.12289	1.071134E-005	-0.0037641	8
	23	66	1516.544	605.1458	-990.385	1	1160.631	-58.5742	1.085978E-005	-0.0025133	8
	24	69	1193.986	688.0824	-1190.838	1	1375.337	-59.98009	9.385279E-006	-0.0040285	8
	25	71	946.5144	780.8033	-1427.73	1	1627.288	-61.32644	1.075982E-005	-0.0025191	8
	26	74	751.7689	893.3893	-1697.854	1	1918.554	-62.24722	-8.545264E-006	0.0010598	8
	27	77	597.4265	1035.655	-2030.853	1	2279.681	-62.9802	-6.116673E-006	-0.0002082	8
	28	79	477.4305	1197.148	-2406.361	1	2687.701	-63.54996	7.274149E-009	-0.000127	8
	29	82	376.6741	1405.616	-2880.669	1	3205.31	-63.99005	-7.51494E-010	-0.0001311	8
	30	84	298.2954	1656.797	-3436.293	1	3814.851	-64.25912	1.152608E-008	-0.0001289	8
	31	86	237.7717	1963.276	-4082.763	1	4530.276	-64.31852	-3.978188E-009	-0.0001441	7
	32	89	189.0121	2334.837	-4845.81	1	5378.972	-64.27402	-8.084936E-009	-0.0001045	7
	33	91	150.2404	2792.238	-5741.292	1	6384.279	-64.06435	-5.830239E-009	-0.0001109	7
	34	94	119.1737	3363.807	-6799.208	1	7585.804	-63.67678	-5.941254E-009	-0.0001056	7
	35	96	95.0169	4049.658	-7997.416	1	8964.284	-63.14368	-3.610086E-009	-0.0001349	7
	36	98	75.60484	4902.567	-9390.467	1	10593.21	-62.43188	-6.622609E-009	-0.0001355	7
	37	101	54.50582	6463.604	-11726.6	1	13389.97	-61.13681	-4.943992E-009	-0.0001177	7
	38	104	45.95588	7469.164	-13120.71	1	15097.73	-60.34864	-8.922679E-009	-0.000104	7
	39	106	37.20238	8924.554	-15016.15	1	17468.04	-59.2757	-9.104342E-009	-8.946445E-005	7
	40	108	30.04808	10667.48	-17136.4	1	20185.42	-58.09755	-6.512494E-009	-0.0001134	7
	41	111	23.91582	12871.41	-19613.21	1	23459.56	-56.72461	-8.460246E-009	-0.0000992	7
	42	113	18.60119	15746.15	-22602.6	1	27546.66	-55.13692	-1.039644E-009	-0.0001158	7
	43	115	15.02404	18647.88	-25350.71	1	31470.65	-53.66195	-5.245447E-009	-9.031091E-005	7
	44	118	12.01923	22080.63	-28404.53	1	35977.37	-52.13983	-5.669419E-009	-9.419108E-005	7
	45	120	9.450605	26387.95	-31851.83	1	41362.58	-50.35963	-2.177456E-009	-0.0001391	6
	46	122	7.512019	30954.43	-35262.82	1	46921.67	-48.72267	6.643087E-009	-0.0001303	6
	47	125	5.978954	35928.86	-38899.76	1	52953.52	-47.2736	3.626276E-009	-0.0001219	6
	48	128	4.734848	41529.13	-42740.52	1	59593.8	-45.82357	4.780486E-009	-0.0001099	6
	49	131	3.75601	47577.88	-46838.45	1	66764.48	-44.55129	-5.872441E-009	-0.0001479	6
	50	135	3.004808	53953.43	-51069.25	1	74290.25	-43.42691	-1.99146E-009	-0.0001363	6
	51	139	2.372217	61145.75	-55897.02	1	82844.91	-42.43232	-3.906266E-009	-0.0001006	6
	52	143	1.878005	69019.83	-61219.45	1	92258.11	-41.5725	-4.824861E-009	-0.0001314	6
	53	147	1.512097	76760.78	-66653.27	1	101660.6	-40.96859	-2.825514E-009	-0.0002086	6
	54	153	1.201923	85647.52	-73159.18	1	112640	-40.50359	-3.201519E-009	-0.0001394	6
	55	159	0.956633	95249	-80461.16	1	124685.1	-40.18931	-4.243884E-009	-0.0006748	6
