EXPLAIN
TAG	EISPOT
TITLE	LABEL	Potentiostatic EIS	Test Identifier
DATE	LABEL	11/20/2021	Date
TIME	LABEL	16:01:34	Time
NOTES	NOTES	1	Notes...
	
PSTAT	PSTAT	REF3000-16137	Potentiostat
VDC	POTEN	0.00000E+000	T	DC Voltage (V)
FREQINIT	QUANT	3.00000E+005	Initial Freq. (Hz)
FREQFINAL	QUANT	1.00000E+000	Final Freq. (Hz)
PTSPERDEC	QUANT	1.00000E+001	Points/decade
VAC	QUANT	5.00000E+001	AC Voltage (mV rms)
AREA	QUANT	1.00000E+000	Sample Area (cm^2)
SPEED	SELECTOR	2	Optimize for:
ZGUESS	QUANT	1.00000E+003	Estimated Z (ohms)
EOC	QUANT	0	Open Circuit (V)
SEQUENCER	TOGGLE	TRUE	Run as Sequence
PSTATMODEL	IQUANT	5	Pstat Model
PSTATSECTION	LABEL	REF3000-16137	Pstat Section
PSTATSERIALNO	LABEL	16137	Pstat Serial Number
CTRLMODE	IQUANT	1	Control Mode
IESTAB	IQUANT	0	I/E Stability
CASPEED	IQUANT	1	Control Amp Speed
CONVENTION	IQUANT	1	Current Convention
ICHRANGE	IQUANT	2	Ich Range
ICHRANGEMODE	TOGGLE	F	Ich Auto Range
ICHOFFSETENABLE	TOGGLE	T	Ich Offset Enable
ICHOFFSET	QUANT	0	Ich Offset (V)
ICHFILTER	IQUANT	3	Ich Filter
VCHRANGE	IQUANT	2	Vch Range
VCHRANGEMODE	TOGGLE	F	Vch Auto Range
VCHOFFSETENABLE	TOGGLE	T	Vch Offset Enable
VCHOFFSET	QUANT	0	Vch Offset (V)
VCHFILTER	IQUANT	3	Vch Filter
ACHRANGE	IQUANT	2	Ach Range
ACHOFFSETENABLE	TOGGLE	F	Ach Offset Enable
ACHOFFSET	QUANT	0	Ach Offset (V)
ACHFILTER	IQUANT	3	Ach Filter
IERANGELOWERLIMIT	IQUANT	2	I/E Range Lower Limit
IERANGEMODE	TOGGLE	F	I/E AutoRange
IERANGE	IQUANT	11	I/E Range
POSFEEDENABLE	TOGGLE	F	Positive Feedback IR Comp
POSFEEDRESISTANCE	QUANT	0	Positive Feedback Resistance (ohm)
ACHSELECT	IQUANT	0	Ach Select
CABLEID	IQUANT	13	Cable ID
DCCALDATE	LABEL	9/10/2021	DC Calibration Date
ACCALDATE	LABEL	9/10/2021	AC Calibration Date
THERMOSELECT	IQUANT	1	Thermo Select
FRAMEWORKVERSION	QUANT	6.33	Framework Version
INSTRUMENTVERSION	LABEL	3.50	Instrument Version
COMPLIANCEVOLTAGE	IQUANT	0	Compliance Voltage
ZCURVE	TABLE
	Pt	Time	Freq	Zreal	Zimag	Zsig	Zmod	Zphz	Idc	Vdc	IERange
	#	s	Hz	ohm	ohm	V	ohm	°	A	V	#
	0	7	300046.9	32.04313	-10.62197	1	33.75779	-18.33984	3.700692E-005	-0.0004189	11
	1	11	238359.4	33.10911	-12.87965	1	35.52602	-21.25635	-9.37453E-005	-0.0006054	10
	2	14	189328.1	34.26451	-16.03798	1	37.83218	-25.0826	8.230032E-005	-0.0005702	10
	3	17	150421.9	35.74413	-19.31377	1	40.62837	-28.38386	3.663437E-005	-0.0009888	9
	4	19	119484.4	37.2693	-23.42237	1	44.01827	-32.14783	2.254132E-007	-0.0006921	9
	5	22	94921.88	39.15431	-28.20085	1	48.25296	-35.76328	1.297224E-005	-0.0002779	9
	6	24	75421.88	41.36591	-34.00115	1	53.5464	-39.41886	1.267024E-005	-0.000642	9
	7	27	59859.37	43.93223	-40.75402	1	59.92438	-42.85074	-5.936857E-006	-0.0001369	9
	8	29	47578.12	47.01247	-48.74982	1	67.72531	-46.03937	-1.000625E-005	3.993906E-005	9
	9	32	37828.12	50.57244	-58.3778	1	77.2369	-49.09775	-1.399339E-005	0.0001591	9
	10	34	30046.88	55.07455	-69.72443	1	88.85213	-51.69518	5.006781E-006	-7.180128E-005	9
	11	37	23859.38	60.65295	-82.83653	1	102.6678	-53.78839	-1.352976E-005	0.0003185	9
	12	39	18984.38	66.95246	-98.8338	1	119.3765	-55.88532	1.446304E-005	-0.0006381	9
	13	41	15046.87	75.0206	-117.8204	1	139.6773	-57.5136	1.695487E-005	-0.0006444	9
	14	44	11953.13	84.55942	-140.3273	1	163.8354	-58.92738	1.485731E-005	-0.0004453	9
	15	46	9515.62	95.899	-166.8921	1	192.4827	-60.11759	-1.385137E-005	0.000251	9
	16	48	7546.875	110.9569	-197.0486	1	226.1406	-60.61639	-5.335504E-006	0.000336	9
	17	51	5928.309	129.183	-235.755	1	268.8283	-61.27926	4.696492E-006	-0.0004842	9
	18	53	4733.456	150.03	-278.2406	1	316.112	-61.66603	-8.943526E-006	0.0003314	9
	19	55	3796.875	173.8717	-326.2469	1	369.6869	-61.94484	1.390356E-005	-0.0006205	9
	20	57	2987.132	205.5152	-386.5341	1	437.7729	-62.00099	1.714326E-005	-0.0005946	9
	21	60	2390.625	240.6204	-449.6917	1	510.0204	-61.84972	3.801808E-007	0.0002847	8
	22	62	1884.191	285.5204	-530.2827	1	602.2637	-61.70063	6.267696E-007	-0.0004619	8
	23	65	1516.544	334.2148	-617.0386	1	701.738	-61.55811	2.631902E-007	0.0002942	8
	24	67	1193.986	398.128	-725.5501	1	827.6042	-61.24529	-1.751555E-006	0.0006863	8
	25	69	946.5144	471.092	-852.3874	1	973.906	-61.07173	6.207549E-007	-0.0004666	8
	26	72	751.7689	564.3889	-991.098	1	1140.53	-60.34029	-1.264159E-006	0.0001215	8
	27	74	597.4265	674.2037	-1154.36	1	1336.824	-59.71294	-2.274122E-006	0.0005902	8
	28	76	477.4305	799.8823	-1334.328	1	1555.713	-59.0588	5.092564E-007	-0.0001151	8
	29	79	376.6741	961.615	-1548.96	1	1823.179	-58.16744	5.092477E-007	-0.0001156	8
	30	81	298.2954	1153.146	-1786.74	1	2126.543	-57.16218	5.029722E-007	-0.0001055	8
	31	83	237.7717	1374.527	-2043.276	1	2462.581	-56.07099	5.077846E-007	-0.0001132	8
	32	86	189.0121	1640.249	-2328.623	1	2848.316	-54.83969	4.993864E-007	-0.0001149	8
	33	88	150.2404	1952.911	-2638.251	1	3282.412	-53.49006	5.044971E-007	-0.000116	8
	34	91	119.1737	2321.403	-2971.761	1	3770.978	-52.00468	4.94703E-007	-0.0001124	8
	35	93	95.0169	2749.875	-3323.69	1	4313.784	-50.39713	4.62072E-008	-0.0000973	7
	36	95	75.60484	3224.822	-3686.343	1	4897.816	-48.82048	4.266126E-008	-0.0000958	7
	37	98	54.50582	4003.227	-4221.974	1	5818.152	-46.52341	4.877162E-008	-0.0000959	7
	38	100	45.95588	4456.283	-4510.831	1	6340.824	-45.34853	4.627529E-008	-9.274555E-005	7
	39	103	37.20238	5051.982	-4872.758	1	7018.995	-43.96545	5.163409E-008	-0.000099	7
	40	105	30.04808	5700.822	-5248.285	1	7748.797	-42.63326	3.621756E-008	-0.0000967	7
	41	108	23.91582	6440.899	-5663.692	1	8576.864	-41.32622	3.178182E-008	-0.0000998	7
	42	110	18.60119	7293.992	-6156.233	1	9544.71	-40.16484	7.626793E-008	-0.0000956	7
	43	112	15.02404	8066.352	-6591.004	1	10416.69	-39.25221	4.125884E-008	-0.0000979	7
	44	114	12.01923	8915.16	-7104.166	1	11399.53	-38.55006	3.63186E-008	-0.0000998	7
	45	117	9.450605	9875.2	-7704.025	1	12524.84	-37.95916	5.608073E-008	-0.0001201	7
	46	119	7.512019	10851.46	-8359.823	1	13698.21	-37.61018	2.731241E-008	-9.288888E-005	7
	47	122	5.978954	11883.39	-9130.863	1	14986.25	-37.53766	3.624001E-008	-9.214034E-005	7
	48	125	4.734848	13024.16	-10016.44	1	16430.39	-37.56266	3.49522E-008	-0.0001326	7
	49	128	3.75601	14284.38	-11046.92	1	18057.63	-37.71682	5.978006E-008	-0.0001135	7
	50	132	3.004808	15633.88	-12196.27	1	19828.45	-37.95842	5.06368E-008	-8.687968E-005	7
	51	135	2.372217	17258.32	-13583.99	1	21963.03	-38.20622	5.420054E-008	-0.0001372	7
	52	140	1.878005	19161.84	-15166.6	1	24437.71	-38.36162	5.851001E-008	-0.0001015	7
	53	144	1.512097	21204.22	-16776.67	1	27038.41	-38.35085	5.628831E-008	-5.128673E-005	7
	54	150	1.201923	23790.49	-18563.01	1	30175.7	-37.96386	5.795144E-008	-9.05593E-005	7
	55	156	0.956633	26767.98	-20369.81	1	33637.09	-37.27029	3.906071E-008	-0.0006449	7
