EXPLAIN
TAG	EISPOT
TITLE	LABEL	Potentiostatic EIS	Test Identifier
DATE	LABEL	11/20/2021	Date
TIME	LABEL	16:51:13	Time
NOTES	NOTES	1	Notes...
	
PSTAT	PSTAT	REF3000-16137	Potentiostat
VDC	POTEN	0.00000E+000	T	DC Voltage (V)
FREQINIT	QUANT	3.00000E+005	Initial Freq. (Hz)
FREQFINAL	QUANT	1.00000E+000	Final Freq. (Hz)
PTSPERDEC	QUANT	1.00000E+001	Points/decade
VAC	QUANT	5.00000E+001	AC Voltage (mV rms)
AREA	QUANT	1.00000E+000	Sample Area (cm^2)
SPEED	SELECTOR	2	Optimize for:
ZGUESS	QUANT	1.00000E+003	Estimated Z (ohms)
EOC	QUANT	0	Open Circuit (V)
SEQUENCER	TOGGLE	TRUE	Run as Sequence
PSTATMODEL	IQUANT	5	Pstat Model
PSTATSECTION	LABEL	REF3000-16137	Pstat Section
PSTATSERIALNO	LABEL	16137	Pstat Serial Number
CTRLMODE	IQUANT	1	Control Mode
IESTAB	IQUANT	0	I/E Stability
CASPEED	IQUANT	1	Control Amp Speed
CONVENTION	IQUANT	1	Current Convention
ICHRANGE	IQUANT	2	Ich Range
ICHRANGEMODE	TOGGLE	F	Ich Auto Range
ICHOFFSETENABLE	TOGGLE	T	Ich Offset Enable
ICHOFFSET	QUANT	0	Ich Offset (V)
ICHFILTER	IQUANT	3	Ich Filter
VCHRANGE	IQUANT	2	Vch Range
VCHRANGEMODE	TOGGLE	F	Vch Auto Range
VCHOFFSETENABLE	TOGGLE	T	Vch Offset Enable
VCHOFFSET	QUANT	0	Vch Offset (V)
VCHFILTER	IQUANT	3	Vch Filter
ACHRANGE	IQUANT	2	Ach Range
ACHOFFSETENABLE	TOGGLE	F	Ach Offset Enable
ACHOFFSET	QUANT	0	Ach Offset (V)
ACHFILTER	IQUANT	3	Ach Filter
IERANGELOWERLIMIT	IQUANT	2	I/E Range Lower Limit
IERANGEMODE	TOGGLE	F	I/E AutoRange
IERANGE	IQUANT	11	I/E Range
POSFEEDENABLE	TOGGLE	F	Positive Feedback IR Comp
POSFEEDRESISTANCE	QUANT	0	Positive Feedback Resistance (ohm)
ACHSELECT	IQUANT	0	Ach Select
CABLEID	IQUANT	13	Cable ID
DCCALDATE	LABEL	9/10/2021	DC Calibration Date
ACCALDATE	LABEL	9/10/2021	AC Calibration Date
THERMOSELECT	IQUANT	1	Thermo Select
FRAMEWORKVERSION	QUANT	6.33	Framework Version
INSTRUMENTVERSION	LABEL	3.50	Instrument Version
COMPLIANCEVOLTAGE	IQUANT	0	Compliance Voltage
ZCURVE	TABLE
	Pt	Time	Freq	Zreal	Zimag	Zsig	Zmod	Zphz	Idc	Vdc	IERange
	#	s	Hz	ohm	ohm	V	ohm	°	A	V	#
	0	10	300046.9	261.0066	-33.21618	1	263.1117	-7.252581	-3.698768E-006	-0.000591	10
	1	17	238359.4	265.4692	-29.2634	1	267.0772	-6.290475	1.921236E-005	-0.0017446	9
	2	21	189328.1	268.7868	-35.09947	1	271.0688	-7.439859	-3.501689E-006	-0.0003874	10
	3	26	150421.9	273.5814	-37.31213	1	276.114	-7.766312	1.740579E-005	-0.0017334	9
	4	34	119484.4	278.0713	-41.45977	1	281.1451	-8.480196	7.176957E-005	-0.0017148	9
	5	41	94921.88	282.8786	-48.59707	1	287.0226	-9.74796	-1.092185E-005	-0.0002603	9
	6	44	75421.88	287.2742	-56.8632	1	292.8479	-11.19643	-8.099173E-006	0.0005653	9
	7	47	59859.37	292.0733	-67.17493	1	299.6987	-12.95241	2.280692E-005	-0.0004398	9
	8	49	47578.12	298.1151	-79.4045	1	308.5088	-14.91475	-1.114239E-005	-0.0002484	9
	9	52	37828.12	305.0155	-94.67939	1	319.3723	-17.24479	2.130868E-005	-0.0003895	9
	10	55	30046.88	313.687	-112.6532	1	333.3021	-19.75453	1.123113E-005	-7.016703E-006	9
	11	57	23859.38	323.1477	-133.6294	1	349.6874	-22.46627	-2.105014E-005	0.0007996	9
	12	59	18984.38	334.5879	-159.04	1	370.4629	-25.4232	-1.122197E-005	-0.0002468	9
	13	62	15046.87	346.4934	-187.4179	1	393.9329	-28.4089	-1.085771E-005	0.0019281	8
	14	64	11953.13	363.0948	-222.5834	1	425.8887	-31.50902	-9.487472E-006	0.0010822	8
	15	66	9515.62	381.648	-266.2993	1	465.3714	-34.90585	6.891865E-007	-0.0027834	8
	16	69	7546.875	402.3207	-317.0168	1	512.2125	-38.23706	-2.62161E-006	0.0033811	8
	17	71	5928.309	430.0623	-379.2541	1	573.3997	-41.40773	1.839946E-006	0.0020759	8
	18	73	4733.456	458.4751	-451.4987	1	643.4675	-44.56074	1.086132E-005	-0.0046048	8
	19	76	3796.875	491.9886	-534.5529	1	726.4982	-47.37434	1.021244E-005	-0.0013826	8
	20	78	2987.132	535.857	-640.966	1	835.452	-50.10388	-9.18779E-006	0.0044124	8
	21	80	2390.625	583.655	-757.7068	1	956.438	-52.39325	-2.570645E-006	0.0034596	8
	22	83	1884.191	648.7115	-917.0487	1	1123.301	-54.72478	8.558805E-006	-0.0046363	8
	23	86	1516.544	711.3546	-1074.194	1	1288.378	-56.48661	1.10455E-005	-0.0047037	8
	24	89	1193.986	799.0948	-1292.915	1	1519.928	-58.28158	5.293354E-006	-0.0041967	8
	25	92	946.5144	906.4362	-1537.436	1	1784.751	-59.47739	-9.199929E-006	0.0044942	8
	26	94	751.7689	1025.235	-1840.58	1	2106.856	-60.88142	-9.252887E-006	0.0044664	8
	27	97	597.4265	1173.111	-2187.565	1	2482.263	-61.79697	-9.320119E-006	0.0044903	8
	28	99	477.4305	1345.652	-2605.749	1	2932.697	-62.68742	-6.789343E-008	-0.0001153	8
	29	103	376.6741	1566.976	-3120.633	1	3491.957	-63.33722	-7.596679E-008	-0.0001201	8
	30	105	298.2954	1832.518	-3724.558	1	4150.958	-63.80237	-6.149677E-008	-0.0001138	8
	31	107	237.7717	2154.317	-4428.717	1	4924.898	-64.05973	-1.476161E-008	-0.0001001	7
	32	110	189.0121	2542.676	-5263.683	1	5845.645	-64.21666	-1.331273E-008	-0.0001385	7
	33	112	150.2404	3018.46	-6247.999	1	6938.918	-64.21442	-1.627269E-008	-9.455554E-005	7
	34	115	119.1737	3610.815	-7418.312	1	8250.414	-64.0458	-1.296788E-008	-0.0001158	7
	35	117	95.0169	4322.248	-8753.554	1	9762.51	-63.72119	-1.389841E-008	-0.000103	7
	36	120	75.60484	5206.836	-10319.79	1	11558.95	-63.22684	-1.562602E-008	-0.000103	7
	37	122	54.50582	6835.878	-12980.51	1	14670.47	-62.22752	-1.631161E-008	-0.0001012	7
	38	125	45.95588	7898.764	-14591.08	1	16591.87	-61.57145	-1.681205E-008	-8.722999E-005	7
	39	127	37.20238	9451.957	-16801.16	1	19277.4	-60.63886	-1.877659E-008	-0.0001009	7
	40	129	30.04808	11319.79	-19293.84	1	22369.4	-59.59965	-1.218851E-008	-0.00015	7
	41	132	23.91582	13693.79	-22238.9	1	26116.83	-58.37698	-2.322329E-008	-9.34564E-005	7
	42	134	18.60119	16855.81	-25847.38	1	30857.82	-56.89049	-1.363859E-008	-0.000099	7
	43	136	15.02404	20045.4	-29247.09	1	35457.16	-55.57399	-1.291865E-008	-7.876131E-005	7
	44	139	12.01923	24009.37	-33037.98	1	40840.64	-53.99333	-7.900383E-009	-0.0001264	6
	45	141	9.450605	28876.71	-37325.64	1	47191.82	-52.27294	3.575458E-009	-0.0001423	6
	46	144	7.512019	34198.19	-41686.4	1	53919.12	-50.63564	4.492304E-009	-0.0001307	6
	47	146	5.978954	40180.7	-46273.06	1	61283.64	-49.03095	-4.149535E-011	-0.0001457	6
	48	150	4.734848	46947.9	-51132.39	1	69416.33	-47.44298	2.150707E-009	-0.0000986	6
	49	153	3.75601	54342.92	-56163.05	1	78150.12	-45.94362	-6.464723E-009	-0.0001574	6
	50	156	3.004808	62158.6	-61243.62	1	87260.95	-44.57518	-2.144066E-009	-0.0001248	6
	51	160	2.372217	71020.48	-67043.15	1	97666.2	-43.34988	-5.017695E-009	-0.0001201	6
	52	164	1.878005	80684.5	-73228.51	1	108960.6	-42.22659	-5.195957E-009	-0.000136	6
	53	169	1.512097	90121.17	-79577.11	1	120226.2	-41.44455	-3.93901E-009	-0.0001892	6
	54	174	1.201923	101005.6	-87004.73	1	133311.5	-40.74113	-4.218346E-009	-0.0001445	6
	55	181	0.956633	112741.6	-95291.1	1	147618	-40.20508	-5.195724E-009	-0.0006764	6
