EXPLAIN
TAG	EISPOT
TITLE	LABEL	Potentiostatic EIS	Test Identifier
DATE	LABEL	11/20/2021	Date
TIME	LABEL	17:01:05	Time
NOTES	NOTES	1	Notes...
	
PSTAT	PSTAT	REF3000-16137	Potentiostat
VDC	POTEN	0.00000E+000	T	DC Voltage (V)
FREQINIT	QUANT	3.00000E+005	Initial Freq. (Hz)
FREQFINAL	QUANT	1.00000E+000	Final Freq. (Hz)
PTSPERDEC	QUANT	1.00000E+001	Points/decade
VAC	QUANT	5.00000E+001	AC Voltage (mV rms)
AREA	QUANT	1.00000E+000	Sample Area (cm^2)
SPEED	SELECTOR	2	Optimize for:
ZGUESS	QUANT	1.00000E+003	Estimated Z (ohms)
EOC	QUANT	0	Open Circuit (V)
SEQUENCER	TOGGLE	TRUE	Run as Sequence
PSTATMODEL	IQUANT	5	Pstat Model
PSTATSECTION	LABEL	REF3000-16137	Pstat Section
PSTATSERIALNO	LABEL	16137	Pstat Serial Number
CTRLMODE	IQUANT	1	Control Mode
IESTAB	IQUANT	0	I/E Stability
CASPEED	IQUANT	1	Control Amp Speed
CONVENTION	IQUANT	1	Current Convention
ICHRANGE	IQUANT	2	Ich Range
ICHRANGEMODE	TOGGLE	F	Ich Auto Range
ICHOFFSETENABLE	TOGGLE	T	Ich Offset Enable
ICHOFFSET	QUANT	0	Ich Offset (V)
ICHFILTER	IQUANT	3	Ich Filter
VCHRANGE	IQUANT	2	Vch Range
VCHRANGEMODE	TOGGLE	F	Vch Auto Range
VCHOFFSETENABLE	TOGGLE	T	Vch Offset Enable
VCHOFFSET	QUANT	0	Vch Offset (V)
VCHFILTER	IQUANT	3	Vch Filter
ACHRANGE	IQUANT	2	Ach Range
ACHOFFSETENABLE	TOGGLE	F	Ach Offset Enable
ACHOFFSET	QUANT	0	Ach Offset (V)
ACHFILTER	IQUANT	3	Ach Filter
IERANGELOWERLIMIT	IQUANT	2	I/E Range Lower Limit
IERANGEMODE	TOGGLE	F	I/E AutoRange
IERANGE	IQUANT	11	I/E Range
POSFEEDENABLE	TOGGLE	F	Positive Feedback IR Comp
POSFEEDRESISTANCE	QUANT	0	Positive Feedback Resistance (ohm)
ACHSELECT	IQUANT	0	Ach Select
CABLEID	IQUANT	13	Cable ID
DCCALDATE	LABEL	9/10/2021	DC Calibration Date
ACCALDATE	LABEL	9/10/2021	AC Calibration Date
THERMOSELECT	IQUANT	1	Thermo Select
FRAMEWORKVERSION	QUANT	6.33	Framework Version
INSTRUMENTVERSION	LABEL	3.50	Instrument Version
COMPLIANCEVOLTAGE	IQUANT	0	Compliance Voltage
ZCURVE	TABLE
	Pt	Time	Freq	Zreal	Zimag	Zsig	Zmod	Zphz	Idc	Vdc	IERange
	#	s	Hz	ohm	ohm	V	ohm	°	A	V	#
	0	18	300046.9	694.6955	-124.8389	1	705.8234	-10.18749	-2.070904E-005	0.001079	9
	1	33	238359.4	718.5212	-116.1223	1	727.8441	-9.180359	1.880483E-005	-0.0013097	9
	2	43	189328.1	733.4144	-112.573	1	742.0036	-8.726322	1.849983E-005	-0.001212	9
	3	53	150421.9	755.8867	-101.4804	1	762.6683	-7.646437	-0.0000983	0.0033519	9
	4	62	119484.4	772.8788	-102.4169	1	779.6351	-7.54849	7.587657E-005	-0.0017123	9
	5	71	94921.88	785.2831	-83.46233	1	789.7059	-6.066798	3.479448E-006	-0.0053425	8
	6	73	75421.88	793.1172	-90.24975	1	798.2355	-6.491831	9.039196E-006	-0.00665	8
	7	76	59859.37	804.0063	-102.5522	1	810.5203	-7.268914	-9.511275E-006	-0.0009294	8
	8	78	47578.12	811.5115	-116.5868	1	819.8435	-8.175529	-1.830294E-005	0.0053537	8
	9	81	37828.12	824.403	-136.4012	1	835.6108	-9.394736	-3.505582E-006	-0.00326	8
	10	83	30046.88	836.7307	-158.9314	1	851.6909	-10.75484	-3.565346E-006	-0.0030808	8
	11	86	23859.38	852.5283	-186.789	1	872.7512	-12.35823	-1.861345E-005	0.0051954	8
	12	89	18984.38	870.9456	-223.3356	1	899.1246	-14.3824	1.881479E-005	-0.0062301	8
	13	91	15046.87	894.3826	-268.9356	1	933.9415	-16.73572	-3.187814E-006	-0.0033563	8
	14	94	11953.13	916.5544	-316.8883	1	969.789	-19.07225	1.897297E-005	-0.0047587	8
	15	97	9515.62	944.1787	-374.658	1	1015.796	-21.64359	1.756992E-005	-0.0034931	8
	16	99	7546.875	977.634	-448.7117	1	1075.691	-24.65404	1.913973E-005	-0.0050212	8
	17	102	5928.309	1017.798	-534.4398	1	1149.582	-27.7037	8.313782E-006	0.0013552	8
	18	105	4733.456	1068.056	-635.7064	1	1242.927	-30.76108	-1.767846E-005	0.0039639	8
	19	109	3796.875	1119.489	-753.6376	1	1349.528	-33.94836	1.431718E-005	-0.0073106	8
	20	111	2987.132	1186.354	-895.4092	1	1486.336	-37.04394	-1.767398E-005	0.0039391	8
	21	115	2390.625	1264.557	-1062.012	1	1651.355	-40.02452	1.16475E-006	0.0039617	8
	22	118	1884.191	1356.742	-1269.076	1	1857.769	-43.08782	-5.681366E-006	0.0059076	8
	23	122	1516.544	1453.205	-1485.192	1	2077.883	-45.62369	-1.156756E-005	0.0070003	8
	24	127	1193.986	1584.408	-1791.176	1	2391.372	-48.5052	3.233646E-006	-0.005458	8
	25	131	946.5144	1742.151	-2135.604	1	2756.065	-50.79364	-3.46746E-006	-0.0033983	8
	26	135	751.7689	1905.1	-2519.745	1	3158.88	-52.90823	1.922827E-005	-0.0063598	8
	27	139	597.4265	2139.059	-3001.261	1	3685.531	-54.52176	-1.78897E-005	0.0040267	8
	28	142	477.4305	2359.09	-3597.934	1	4302.375	-56.74799	-2.270212E-007	-0.0001311	8
	29	146	376.6741	2669.149	-4312.139	1	5071.381	-58.24311	-4.883827E-008	-0.0001014	7
	30	148	298.2954	3023.509	-5146.819	1	5969.2	-59.56781	-4.296061E-008	-0.0001315	7
	31	150	237.7717	3436.697	-6111.28	1	7011.322	-60.64864	-4.347437E-008	-0.0001235	7
	32	153	189.0121	3938.102	-7269.805	1	8267.933	-61.5553	-4.595248E-008	-9.307768E-005	7
	33	155	150.2404	4540.127	-8645.663	1	9765.26	-62.29453	-4.47659E-008	-0.0001048	7
	34	158	119.1737	5274.978	-10296.91	1	11569.43	-62.87451	-4.675024E-008	-0.0001297	7
	35	160	95.0169	6136.493	-12206.39	1	13662.09	-63.31005	-4.524658E-008	-0.0001252	7
	36	163	75.60484	7194.818	-14489.27	1	16177.28	-63.59275	-4.638972E-008	-0.0001039	7
	37	165	54.50582	9113.232	-18481.24	1	20606	-63.75176	-4.530007E-008	-0.0001101	7
	38	168	45.95588	10365.47	-20980.03	1	23400.96	-63.7077	-4.52374E-008	-0.0001143	7
	39	170	37.20238	12194.12	-24495.7	1	27363.04	-63.53557	-4.646419E-008	-0.0001362	7
	40	172	30.04808	14443.69	-28621.96	1	32059.9	-63.22282	-4.72722E-008	-0.0000988	7
	41	175	23.91582	17376.39	-33713.21	1	37927.82	-62.73261	-4.968649E-008	-0.0001415	7
	42	177	18.60119	21384.48	-40180.71	1	45516.87	-61.97776	-3.567886E-009	-0.0001431	6
	43	179	15.02404	25556.97	-46519.98	1	53077.93	-61.21666	-7.7549E-009	-0.0001625	6
	44	182	12.01923	30819.61	-53967.68	1	62147.88	-60.27039	-3.704824E-009	-0.0001022	6
	45	184	9.450605	37644.45	-62983.25	1	73375.71	-59.13367	-6.840802E-009	-0.0001298	6
	46	187	7.512019	45548.02	-72710.05	1	85798.45	-57.93559	-5.67481E-009	-0.0001347	6
	47	189	5.978954	54891.69	-83336.28	1	99789.9	-56.62802	-3.552814E-009	-0.0001638	6
	48	192	4.734848	66392.81	-95389.1	1	116220	-55.16126	-5.499403E-009	-0.0001384	6
	49	196	3.75601	79742.57	-108374	1	134550.4	-53.65403	-5.017355E-009	-0.000118	6
	50	199	3.004808	94719.05	-121586.6	1	154126.6	-52.0805	-7.331736E-009	-0.0000998	6
	51	203	2.372217	113257.8	-136568.8	1	177421.5	-50.33075	-5.205122E-009	-7.550819E-005	6
	52	207	1.878005	134071.8	-151697.5	1	202453.4	-48.52942	-5.463482E-009	-0.0001584	6
	53	212	1.512097	155595.5	-166358.6	1	227783	-46.91472	-6.337386E-009	-3.373834E-005	6
	54	217	1.201923	180934.5	-182786.5	1	257192.9	-45.29175	-5.303548E-009	-0.0001552	6
	55	223	0.956633	208384.9	-200192.9	1	288966.2	-43.85137	-8.586329E-009	-0.0006808	6
