EXPLAIN
TAG	EISPOT
TITLE	LABEL	Potentiostatic EIS	Test Identifier
DATE	LABEL	11/20/2021	Date
TIME	LABEL	16:04:19	Time
NOTES	NOTES	1	Notes...
	
PSTAT	PSTAT	REF3000-16137	Potentiostat
VDC	POTEN	0.00000E+000	T	DC Voltage (V)
FREQINIT	QUANT	3.00000E+005	Initial Freq. (Hz)
FREQFINAL	QUANT	1.00000E+000	Final Freq. (Hz)
PTSPERDEC	QUANT	1.00000E+001	Points/decade
VAC	QUANT	5.00000E+001	AC Voltage (mV rms)
AREA	QUANT	1.00000E+000	Sample Area (cm^2)
SPEED	SELECTOR	2	Optimize for:
ZGUESS	QUANT	1.00000E+003	Estimated Z (ohms)
EOC	QUANT	0	Open Circuit (V)
SEQUENCER	TOGGLE	TRUE	Run as Sequence
PSTATMODEL	IQUANT	5	Pstat Model
PSTATSECTION	LABEL	REF3000-16137	Pstat Section
PSTATSERIALNO	LABEL	16137	Pstat Serial Number
CTRLMODE	IQUANT	1	Control Mode
IESTAB	IQUANT	0	I/E Stability
CASPEED	IQUANT	1	Control Amp Speed
CONVENTION	IQUANT	1	Current Convention
ICHRANGE	IQUANT	2	Ich Range
ICHRANGEMODE	TOGGLE	F	Ich Auto Range
ICHOFFSETENABLE	TOGGLE	T	Ich Offset Enable
ICHOFFSET	QUANT	0	Ich Offset (V)
ICHFILTER	IQUANT	3	Ich Filter
VCHRANGE	IQUANT	2	Vch Range
VCHRANGEMODE	TOGGLE	F	Vch Auto Range
VCHOFFSETENABLE	TOGGLE	T	Vch Offset Enable
VCHOFFSET	QUANT	0	Vch Offset (V)
VCHFILTER	IQUANT	3	Vch Filter
ACHRANGE	IQUANT	2	Ach Range
ACHOFFSETENABLE	TOGGLE	F	Ach Offset Enable
ACHOFFSET	QUANT	0	Ach Offset (V)
ACHFILTER	IQUANT	3	Ach Filter
IERANGELOWERLIMIT	IQUANT	2	I/E Range Lower Limit
IERANGEMODE	TOGGLE	F	I/E AutoRange
IERANGE	IQUANT	11	I/E Range
POSFEEDENABLE	TOGGLE	F	Positive Feedback IR Comp
POSFEEDRESISTANCE	QUANT	0	Positive Feedback Resistance (ohm)
ACHSELECT	IQUANT	0	Ach Select
CABLEID	IQUANT	13	Cable ID
DCCALDATE	LABEL	9/10/2021	DC Calibration Date
ACCALDATE	LABEL	9/10/2021	AC Calibration Date
THERMOSELECT	IQUANT	1	Thermo Select
FRAMEWORKVERSION	QUANT	6.33	Framework Version
INSTRUMENTVERSION	LABEL	3.50	Instrument Version
COMPLIANCEVOLTAGE	IQUANT	0	Compliance Voltage
ZCURVE	TABLE
	Pt	Time	Freq	Zreal	Zimag	Zsig	Zmod	Zphz	Idc	Vdc	IERange
	#	s	Hz	ohm	ohm	V	ohm	°	A	V	#
	0	7	300046.9	31.63793	-9.90336	1	33.1517	-17.38125	-7.715308E-005	-0.0004462	11
	1	11	238359.4	32.7113	-12.14415	1	34.89283	-20.36756	-8.574806E-005	-0.0002189	10
	2	15	189328.1	33.76128	-15.16516	1	37.01089	-24.18903	2.700491E-005	-0.0003105	10
	3	17	150421.9	35.18134	-18.21457	1	39.61688	-27.37213	-2.535119E-005	0.000124	9
	4	20	119484.4	36.59208	-22.27336	1	42.83786	-31.3286	-9.5548E-007	0.0002015	9
	5	22	94921.88	38.4241	-26.88341	1	46.89488	-34.97855	-1.313206E-005	0.0002711	9
	6	25	75421.88	40.56408	-32.28548	1	51.84396	-38.51674	-3.072287E-008	-0.0003441	9
	7	27	59859.37	42.92559	-38.84781	1	57.89437	-42.14521	-1.40998E-005	0.0001623	9
	8	30	47578.12	45.8869	-46.57654	1	65.38335	-45.42733	4.619272E-006	-7.86685E-005	9
	9	32	37828.12	49.31084	-55.58872	1	74.30791	-48.42487	-5.774216E-006	-0.0001616	9
	10	35	30046.88	53.5423	-66.42709	1	85.31902	-51.1301	-1.021948E-005	3.451494E-006	9
	11	37	23859.38	58.64049	-79.33455	1	98.6543	-53.52987	-1.336212E-005	8.878622E-005	9
	12	40	18984.38	64.74628	-94.41377	1	114.4816	-55.55878	1.777848E-005	-0.0005383	9
	13	42	15046.87	72.04977	-113.0794	1	134.0826	-57.49632	-1.430774E-005	0.000316	9
	14	44	11953.13	81.61349	-134.3178	1	157.1688	-58.71651	1.533695E-005	-0.0004562	9
	15	46	9515.62	92.36929	-159.8653	1	184.632	-59.98091	1.454444E-005	-0.0004522	9
	16	49	7546.875	106.2496	-189.3725	1	217.1427	-60.70489	-4.546348E-006	0.0002926	9
	17	51	5928.309	123.2491	-227.522	1	258.7598	-61.55552	1.702948E-005	-0.0005889	9
	18	53	4733.456	142.7562	-267.8217	1	303.4927	-61.94117	9.787748E-006	-0.0005876	9
	19	56	3796.875	164.9911	-315.6764	1	356.1933	-62.40577	9.204265E-006	-0.0005674	9
	20	58	2987.132	196.1782	-373.6634	1	422.0311	-62.29994	-5.721008E-006	-0.0001713	9
	21	60	2390.625	228.9163	-436.57	1	492.9463	-62.32965	-8.303081E-007	0.0005798	8
	22	63	1884.191	270.9898	-516.7473	1	583.4923	-62.32683	2.887916E-006	-0.0006255	8
	23	65	1516.544	318.0877	-601.7273	1	680.6288	-62.13798	-2.21526E-006	0.0005758	8
	24	67	1193.986	379.9446	-710.5193	1	805.7268	-61.86471	1.559955E-006	-0.000708	8
	25	70	946.5144	452.6067	-834.3974	1	949.248	-61.52303	3.805944E-007	0.0002943	8
	26	72	751.7689	539.5488	-975.163	1	1114.475	-61.04464	-2.051743E-006	0.0003603	8
	27	74	597.4265	644.1536	-1135.729	1	1305.685	-60.4393	-2.626509E-007	-0.0001817	8
	28	77	477.4305	766.3879	-1319.548	1	1525.961	-59.85216	5.337596E-007	-0.0001407	8
	29	79	376.6741	922.7804	-1536.423	1	1792.238	-59.01084	5.122944E-007	-0.0001226	8
	30	81	298.2954	1108.529	-1777.959	1	2095.226	-58.05713	5.02868E-007	-0.0001062	8
	31	84	237.7717	1324.241	-2040.575	1	2432.604	-57.01825	5.068583E-007	-0.0001092	8
	32	86	189.0121	1584.123	-2334.959	1	2821.609	-55.84558	5.000866E-007	-0.0001095	8
	33	88	150.2404	1891.184	-2656.305	1	3260.757	-54.55065	5.132711E-007	-0.0001145	8
	34	91	119.1737	2253.668	-3006.897	1	3757.719	-53.14846	5.210105E-007	-0.0001143	8
	35	93	95.0169	2684.989	-3377.842	1	4314.972	-51.51941	5.518472E-008	-0.0001027	7
	36	96	75.60484	3163.681	-3764.344	1	4917.23	-49.95518	5.475387E-008	-0.0000968	7
	37	98	54.50582	3955.712	-4339.609	1	5871.956	-47.64969	5.069366E-008	-0.0001109	7
	38	101	45.95588	4416.523	-4649.382	1	6412.677	-46.47132	5.706947E-008	-0.0001005	7
	39	103	37.20238	5034.496	-5043.08	1	7125.925	-45.04881	6.201729E-008	-0.0001044	7
	40	106	30.04808	5708.059	-5452.957	1	7894.091	-43.69065	6.243792E-008	-0.0001053	7
	41	108	23.91582	6471.873	-5903.874	1	8760.187	-42.37219	5.281075E-008	-0.0001011	7
	42	110	18.60119	7379.054	-6435.77	1	9791.3	-41.09387	7.854146E-008	-0.000102	7
	43	113	15.02404	8182.318	-6910.029	1	10709.75	-40.18134	7.103343E-008	-0.0000978	7
	44	115	12.01923	9079.111	-7436.389	1	11735.85	-39.31973	3.008141E-008	-0.0001043	7
	45	117	9.450605	10084.12	-8082.348	1	12923.38	-38.71192	2.990301E-008	-0.0001046	7
	46	120	7.512019	11124.03	-8796.649	1	14181.86	-38.3362	5.751861E-008	-0.0001096	7
	47	122	5.978954	12210.13	-9582.14	1	15521.1	-38.12374	6.578546E-008	-0.0000985	7
	48	126	4.734848	13429.17	-10518.85	1	17058.4	-38.07101	5.851996E-008	-9.100113E-005	7
	49	129	3.75601	14735.01	-11598.17	1	18752.02	-38.20687	5.42302E-008	-0.0001072	7
	50	132	3.004808	16131.15	-12813.97	1	20601.26	-38.46229	5.013403E-008	-7.363239E-005	7
	51	136	2.372217	17838.36	-14267.68	1	22842.37	-38.65392	5.856491E-008	-2.402778E-005	7
	52	140	1.878005	19787.95	-15956.76	1	25420.09	-38.88229	5.167187E-008	-0.0001119	7
	53	145	1.512097	21888.84	-17665.74	1	28128.27	-38.90582	5.564767E-008	-0.0001191	7
	54	150	1.201923	24572.21	-19603.72	1	31434.05	-38.58288	5.706436E-008	-0.0001259	7
	55	156	0.956633	27695.25	-21560.69	1	35098.29	-37.90068	4.888118E-008	-0.0006457	7
