EXPLAIN
TAG	EISPOT
TITLE	LABEL	Potentiostatic EIS	Test Identifier
DATE	LABEL	11/20/2021	Date
TIME	LABEL	16:26:22	Time
NOTES	NOTES	1	Notes...
	
PSTAT	PSTAT	REF3000-16137	Potentiostat
VDC	POTEN	0.00000E+000	T	DC Voltage (V)
FREQINIT	QUANT	3.00000E+005	Initial Freq. (Hz)
FREQFINAL	QUANT	1.00000E+000	Final Freq. (Hz)
PTSPERDEC	QUANT	1.00000E+001	Points/decade
VAC	QUANT	5.00000E+001	AC Voltage (mV rms)
AREA	QUANT	1.00000E+000	Sample Area (cm^2)
SPEED	SELECTOR	2	Optimize for:
ZGUESS	QUANT	1.00000E+003	Estimated Z (ohms)
EOC	QUANT	0	Open Circuit (V)
SEQUENCER	TOGGLE	TRUE	Run as Sequence
PSTATMODEL	IQUANT	5	Pstat Model
PSTATSECTION	LABEL	REF3000-16137	Pstat Section
PSTATSERIALNO	LABEL	16137	Pstat Serial Number
CTRLMODE	IQUANT	1	Control Mode
IESTAB	IQUANT	0	I/E Stability
CASPEED	IQUANT	1	Control Amp Speed
CONVENTION	IQUANT	1	Current Convention
ICHRANGE	IQUANT	2	Ich Range
ICHRANGEMODE	TOGGLE	F	Ich Auto Range
ICHOFFSETENABLE	TOGGLE	T	Ich Offset Enable
ICHOFFSET	QUANT	0	Ich Offset (V)
ICHFILTER	IQUANT	3	Ich Filter
VCHRANGE	IQUANT	2	Vch Range
VCHRANGEMODE	TOGGLE	F	Vch Auto Range
VCHOFFSETENABLE	TOGGLE	T	Vch Offset Enable
VCHOFFSET	QUANT	0	Vch Offset (V)
VCHFILTER	IQUANT	3	Vch Filter
ACHRANGE	IQUANT	2	Ach Range
ACHOFFSETENABLE	TOGGLE	F	Ach Offset Enable
ACHOFFSET	QUANT	0	Ach Offset (V)
ACHFILTER	IQUANT	3	Ach Filter
IERANGELOWERLIMIT	IQUANT	2	I/E Range Lower Limit
IERANGEMODE	TOGGLE	F	I/E AutoRange
IERANGE	IQUANT	11	I/E Range
POSFEEDENABLE	TOGGLE	F	Positive Feedback IR Comp
POSFEEDRESISTANCE	QUANT	0	Positive Feedback Resistance (ohm)
ACHSELECT	IQUANT	0	Ach Select
CABLEID	IQUANT	13	Cable ID
DCCALDATE	LABEL	9/10/2021	DC Calibration Date
ACCALDATE	LABEL	9/10/2021	AC Calibration Date
THERMOSELECT	IQUANT	1	Thermo Select
FRAMEWORKVERSION	QUANT	6.33	Framework Version
INSTRUMENTVERSION	LABEL	3.50	Instrument Version
COMPLIANCEVOLTAGE	IQUANT	0	Compliance Voltage
ZCURVE	TABLE
	Pt	Time	Freq	Zreal	Zimag	Zsig	Zmod	Zphz	Idc	Vdc	IERange
	#	s	Hz	ohm	ohm	V	ohm	°	A	V	#
	0	6	300046.9	54.00681	-8.642703	1	54.69398	-9.091946	-6.444602E-005	0.0015897	9
	1	10	238359.4	54.87257	-11.61061	1	56.08747	-11.94713	-6.009906E-005	0.0016648	9
	2	13	189328.1	56.10505	-14.5994	1	57.97343	-14.58578	5.319032E-005	-0.0024342	9
	3	15	150421.9	57.34987	-18.15145	1	60.15382	-17.56277	5.027274E-005	-0.0023118	9
	4	18	119484.4	58.9416	-22.39136	1	63.05145	-20.80131	5.344503E-005	-0.0021049	9
	5	20	94921.88	60.81662	-26.97874	1	66.53205	-23.92246	1.970332E-005	-0.0005215	9
	6	23	75421.88	62.92307	-32.64948	1	70.88936	-27.42386	-1.549726E-005	0.0001087	9
	7	25	59859.37	65.57362	-39.21881	1	76.40691	-30.88315	9.05668E-007	-0.0004818	9
	8	28	47578.12	68.56979	-46.9729	1	83.116	-34.41262	-1.50626E-005	0.0001745	9
	9	30	37828.12	72.17686	-56.27579	1	91.52302	-37.94329	2.012493E-005	-0.0006815	9
	10	33	30046.88	76.49873	-67.13625	1	101.7808	-41.2706	7.451738E-006	-0.0006449	9
	11	35	23859.38	81.44868	-80.29311	1	114.3716	-44.59066	1.244438E-005	-0.0001593	9
	12	38	18984.38	87.2632	-96.0481	1	129.7694	-47.7437	-1.667841E-005	0.0004708	9
	13	40	15046.87	94.54029	-114.8162	1	148.7301	-50.53178	-1.092794E-005	-9.07034E-005	9
	14	42	11953.13	103.1007	-137.1876	1	171.6106	-53.07401	-4.229891E-006	-0.0003415	9
	15	45	9515.62	113.1766	-163.4987	1	198.8486	-55.30835	1.245618E-005	-0.0001477	9
	16	47	7546.875	126.1004	-195.6824	1	232.7937	-57.20171	8.091764E-006	-0.0006707	9
	17	49	5928.309	140.9431	-236.3361	1	275.1722	-59.18954	-1.578903E-005	0.0004752	9
	18	52	4733.456	159.002	-281.0827	1	322.9383	-60.50416	1.782952E-005	-0.0004151	9
	19	54	3796.875	179.721	-333.935	1	379.2258	-61.71124	1.787525E-005	-0.0003879	9
	20	56	2987.132	207.9585	-400.9243	1	451.6492	-62.58434	-1.739671E-005	0.0003128	9
	21	58	2390.625	238.196	-473.9819	1	530.4679	-63.31853	4.100092E-006	-0.0015795	8
	22	61	1884.191	278.0511	-566.2172	1	630.8046	-63.84583	-5.150369E-008	0.0007017	8
	23	63	1516.544	325.6889	-669.2386	1	744.2806	-64.04986	1.915698E-006	-0.0011713	8
	24	65	1193.986	386.5197	-799.9784	1	888.461	-64.2119	-3.229982E-006	0.00051	8
	25	68	946.5144	461.0684	-947.6653	1	1053.875	-64.05565	1.868037E-006	-0.0011557	8
	26	70	751.7689	545.9551	-1126.986	1	1252.263	-64.15267	-3.690509E-006	0.0009611	8
	27	73	597.4265	657.9671	-1331.861	1	1485.522	-63.70967	-3.193611E-006	0.0005095	8
	28	75	477.4305	786.1827	-1562.927	1	1749.521	-63.29672	3.903857E-007	-0.0001134	8
	29	77	376.6741	953.915	-1844.821	1	2076.853	-62.65753	3.782599E-007	-0.0001216	8
	30	79	298.2954	1155.839	-2164.802	1	2454.044	-61.90118	4.072334E-007	-0.0001479	8
	31	82	237.7717	1393.432	-2519.125	1	2878.826	-61.0512	3.83051E-007	-0.0001201	8
	32	84	189.0121	1681.847	-2924.886	1	3373.954	-60.10054	3.963156E-007	-0.0001159	8
	33	87	150.2404	2027.209	-3381.349	1	3942.473	-59.05619	3.914794E-007	-0.0001185	8
	34	89	119.1737	2452.146	-3907.727	1	4613.388	-57.89123	4.465066E-008	-0.0001102	7
	35	91	95.0169	2934.629	-4470.931	1	5348.016	-56.71991	4.973119E-008	-0.0001116	7
	36	94	75.60484	3506.428	-5096.359	1	6186.106	-55.47101	4.89621E-008	-0.0001098	7
	37	96	54.50582	4496.615	-6086.933	1	7567.714	-53.54552	5.061944E-008	-0.000109	7
	38	99	45.95588	5104.24	-6651.231	1	8384.041	-52.4969	4.000639E-008	-0.0001065	7
	39	101	37.20238	5936.995	-7382.44	1	9473.56	-51.19359	4.103806E-008	-0.0001027	7
	40	104	30.04808	6884.133	-8166.131	1	10680.68	-49.86877	4.469717E-008	-0.0001083	7
	41	106	23.91582	8005.563	-9050.219	1	12082.86	-48.50495	5.248276E-008	-0.000106	7
	42	108	18.60119	9365.07	-10094.2	1	13769.44	-47.14584	1.992606E-008	-0.0000951	7
	43	111	15.02404	10667.65	-11033.14	1	15346.96	-45.9649	6.219324E-008	-0.0000986	7
	44	113	12.01923	12120.51	-12076.11	1	17109.62	-44.89486	3.672615E-008	-0.0001131	7
	45	115	9.450605	13823.52	-13293.37	1	19178.21	-43.87998	3.269603E-008	-0.0001355	7
	46	118	7.512019	15615.49	-14572.06	1	21358.57	-43.02037	5.635508E-008	-0.0001179	7
	47	121	5.978954	17491.99	-15951.69	1	23673.33	-42.36302	5.76369E-008	-0.0001071	7
	48	124	4.734848	19609.46	-17525.92	1	26299.98	-41.78869	5.393533E-008	-9.174497E-005	7
	49	127	3.75601	21864.17	-19288.08	1	29156	-41.41801	4.265672E-008	-0.0001199	7
	50	130	3.004808	24224.87	-21220.86	1	32205.11	-41.21819	4.261159E-008	-9.445116E-005	7
	51	134	2.372217	26959.17	-23498.95	1	35763.07	-41.07702	4.795026E-008	-4.624074E-005	7
	52	138	1.878005	30004.99	-26155.32	1	39804.53	-41.07863	4.434336E-009	-0.0001476	6
	53	143	1.512097	33081.01	-28973.93	1	43975.47	-41.21343	7.09838E-009	-0.0002066	6
	54	148	1.201923	36817.88	-32414.93	1	49053.88	-41.3611	6.741418E-009	-0.0001425	6
	55	155	0.956633	41083.35	-36324.34	1	54838.85	-41.4819	3.991578E-009	-0.0006837	6
