EXPLAIN
TAG	EISPOT
TITLE	LABEL	Potentiostatic EIS	Test Identifier
DATE	LABEL	11/20/2021	Date
TIME	LABEL	16:57:44	Time
NOTES	NOTES	1	Notes...
	
PSTAT	PSTAT	REF3000-16137	Potentiostat
VDC	POTEN	0.00000E+000	T	DC Voltage (V)
FREQINIT	QUANT	3.00000E+005	Initial Freq. (Hz)
FREQFINAL	QUANT	1.00000E+000	Final Freq. (Hz)
PTSPERDEC	QUANT	1.00000E+001	Points/decade
VAC	QUANT	5.00000E+001	AC Voltage (mV rms)
AREA	QUANT	1.00000E+000	Sample Area (cm^2)
SPEED	SELECTOR	2	Optimize for:
ZGUESS	QUANT	1.00000E+003	Estimated Z (ohms)
EOC	QUANT	0	Open Circuit (V)
SEQUENCER	TOGGLE	TRUE	Run as Sequence
PSTATMODEL	IQUANT	5	Pstat Model
PSTATSECTION	LABEL	REF3000-16137	Pstat Section
PSTATSERIALNO	LABEL	16137	Pstat Serial Number
CTRLMODE	IQUANT	1	Control Mode
IESTAB	IQUANT	0	I/E Stability
CASPEED	IQUANT	1	Control Amp Speed
CONVENTION	IQUANT	1	Current Convention
ICHRANGE	IQUANT	2	Ich Range
ICHRANGEMODE	TOGGLE	F	Ich Auto Range
ICHOFFSETENABLE	TOGGLE	T	Ich Offset Enable
ICHOFFSET	QUANT	0	Ich Offset (V)
ICHFILTER	IQUANT	3	Ich Filter
VCHRANGE	IQUANT	2	Vch Range
VCHRANGEMODE	TOGGLE	F	Vch Auto Range
VCHOFFSETENABLE	TOGGLE	T	Vch Offset Enable
VCHOFFSET	QUANT	0	Vch Offset (V)
VCHFILTER	IQUANT	3	Vch Filter
ACHRANGE	IQUANT	2	Ach Range
ACHOFFSETENABLE	TOGGLE	F	Ach Offset Enable
ACHOFFSET	QUANT	0	Ach Offset (V)
ACHFILTER	IQUANT	3	Ach Filter
IERANGELOWERLIMIT	IQUANT	2	I/E Range Lower Limit
IERANGEMODE	TOGGLE	F	I/E AutoRange
IERANGE	IQUANT	11	I/E Range
POSFEEDENABLE	TOGGLE	F	Positive Feedback IR Comp
POSFEEDRESISTANCE	QUANT	0	Positive Feedback Resistance (ohm)
ACHSELECT	IQUANT	0	Ach Select
CABLEID	IQUANT	13	Cable ID
DCCALDATE	LABEL	9/10/2021	DC Calibration Date
ACCALDATE	LABEL	9/10/2021	AC Calibration Date
THERMOSELECT	IQUANT	1	Thermo Select
FRAMEWORKVERSION	QUANT	6.33	Framework Version
INSTRUMENTVERSION	LABEL	3.50	Instrument Version
COMPLIANCEVOLTAGE	IQUANT	0	Compliance Voltage
ZCURVE	TABLE
	Pt	Time	Freq	Zreal	Zimag	Zsig	Zmod	Zphz	Idc	Vdc	IERange
	#	s	Hz	ohm	ohm	V	ohm	°	A	V	#
	0	18	300046.9	486.0254	-67.99957	1	490.7592	-7.964526	7.637032E-005	-0.0020449	9
	1	23	238359.4	496.3563	-64.83094	1	500.5723	-7.441489	5.319638E-005	-0.000451	9
	2	31	189328.1	502.0954	-64.74507	1	506.2527	-7.347728	7.369239E-005	-0.001845	9
	3	36	150421.9	509.4276	-62.62716	1	513.2627	-7.008566	-1.163738E-005	0.0014514	9
	4	42	119484.4	521.7924	-50.29668	1	524.2109	-5.505852	2.074314E-005	0.0018149	8
	5	46	94921.88	527.2825	-56.9787	1	530.3521	-6.167511	-9.235427E-006	0.0057313	8
	6	48	75421.88	532.7756	-66.2073	1	536.8736	-7.083753	-9.160741E-006	0.0056629	8
	7	51	59859.37	538.7363	-80.29803	1	544.6876	-8.477462	-1.552737E-005	0.0046729	8
	8	53	47578.12	547.1113	-95.793	1	555.4341	-9.93117	-1.467381E-005	0.005355	8
	9	56	37828.12	555.2064	-113.8597	1	566.7611	-11.58932	-1.503469E-005	0.0054891	8
	10	59	30046.88	564.878	-134.6318	1	580.7003	-13.40565	-1.55754E-005	0.0046615	8
	11	61	23859.38	576.3955	-161.3366	1	598.5493	-15.63726	-1.500404E-005	0.0045077	8
	12	63	18984.38	592.7905	-193.535	1	623.5835	-18.08089	-3.398367E-006	-0.0026826	8
	13	66	15046.87	610.2795	-233.4041	1	653.39	-20.92957	1.500817E-005	-0.0061026	8
	14	68	11953.13	633.9207	-273.6773	1	690.4742	-23.35091	1.243418E-005	-0.0013794	8
	15	71	9515.62	655.2734	-327.4643	1	732.5408	-26.55299	-1.313152E-005	0.0061296	8
	16	73	7546.875	683.0034	-388.9983	1	786.011	-29.66328	-1.580458E-005	0.0047802	8
	17	75	5928.309	715.6251	-467.7906	1	854.9546	-33.17189	-1.308659E-005	0.0060913	8
	18	78	4733.456	756.588	-551.7226	1	936.3884	-36.10045	-9.469976E-006	0.0058999	8
	19	81	3796.875	796.1343	-652.4827	1	1029.351	-39.3368	-1.519337E-005	0.0057731	8
	20	84	2987.132	857.6727	-780.1223	1	1159.393	-42.28904	7.700652E-006	-0.0057652	8
	21	87	2390.625	918.0606	-923.0845	1	1301.891	-45.15634	1.200373E-005	-0.0063121	8
	22	91	1884.191	990.338	-1108.391	1	1486.372	-48.21947	-4.420152E-006	0.0049641	8
	23	95	1516.544	1084.992	-1304.906	1	1697.052	-50.25745	-1.601184E-005	0.0047682	8
	24	98	1193.986	1196.981	-1571.694	1	1975.597	-52.7076	1.600078E-005	-0.0033155	8
	25	103	946.5144	1313.986	-1868.667	1	2284.399	-54.88635	-1.610382E-005	0.0048045	8
	26	106	751.7689	1465.426	-2230.172	1	2668.547	-56.69145	1.699335E-005	-0.004522	8
	27	108	597.4265	1687.845	-2698.596	1	3182.961	-57.97595	6.775893E-006	-0.0008769	9
	28	112	477.4305	1855.031	-3162.217	1	3666.163	-59.60311	-1.655105E-007	-0.0001177	8
	29	114	376.6741	2127.255	-3791.055	1	4347.104	-60.70214	-3.578382E-008	-0.000102	7
	30	117	298.2954	2440.17	-4525.89	1	5141.8	-61.66831	-3.64168E-008	-0.0000983	7
	31	119	237.7717	2806.119	-5374.717	1	6063.158	-62.43111	-3.05682E-008	-0.0001143	7
	32	121	189.0121	3252.559	-6394.473	1	7174.15	-63.03976	-3.379385E-008	-0.000136	7
	33	124	150.2404	3792.217	-7603.317	1	8496.549	-63.49189	-3.718948E-008	-9.301236E-005	7
	34	126	119.1737	4453.643	-9051.463	1	10087.81	-63.80117	-3.406623E-008	-0.000125	7
	35	128	95.0169	5243.654	-10724.72	1	11937.99	-63.94453	-3.844664E-008	-8.607139E-005	7
	36	131	75.60484	6217.214	-12714.57	1	14153.24	-63.94213	-3.22087E-008	-0.0001191	7
	37	134	54.50582	8002.174	-16170.08	1	18041.79	-63.67033	-3.367363E-008	-0.0001182	7
	38	136	45.95588	9173.489	-18309.76	1	20479.26	-63.38838	-3.872853E-008	-0.0001047	7
	39	138	37.20238	10895.69	-21302.49	1	23927.22	-62.91138	-3.937214E-008	-7.697438E-005	7
	40	141	30.04808	12993.63	-24753.85	1	27956.89	-62.30441	-3.883244E-008	-0.0000975	7
	41	143	23.91582	15729.22	-28955.36	1	32951.8	-61.48817	-3.37034E-008	-0.0001101	7
	42	146	18.60119	19437.38	-34255.17	1	39385.63	-60.42817	-3.220257E-008	-0.0001209	7
	43	148	15.02404	23299	-39346.18	1	45727.07	-59.36794	-8.785367E-009	-0.0001464	6
	44	150	12.01923	28081.37	-45220.03	1	53229.83	-58.15997	-8.094985E-010	-0.0001513	6
	45	153	9.450605	34196.82	-52213.86	1	62415.63	-56.77771	-5.938328E-009	-0.0001148	6
	46	155	7.512019	41194.12	-59594.33	1	72446.12	-55.34613	-3.761174E-009	-0.0001575	6
	47	158	5.978954	49389.69	-67499.03	1	83638.87	-53.80671	-3.034713E-009	-0.0001188	6
	48	161	4.734848	59149.11	-76231.01	1	96487.2	-52.19143	-6.259065E-009	-0.0001592	6
	49	164	3.75601	70349.31	-85272.91	1	110546.4	-50.47771	-2.316816E-009	-0.000115	6
	50	168	3.004808	82495.58	-94238.91	1	125245.7	-48.8015	-5.772182E-009	-0.0001208	6
	51	171	2.372217	96943.2	-104282.9	1	142383	-47.08894	-2.868321E-009	-9.009505E-005	6
	52	175	1.878005	112762.8	-114309.7	1	160568.2	-45.39032	-3.361867E-009	-0.0001455	6
	53	180	1.512097	128632.2	-124223.9	1	178823.5	-44.0012	-4.381292E-009	-2.755258E-005	6
	54	186	1.201923	146912.1	-135529.8	1	199878.7	-42.69226	-2.902349E-009	-0.0001451	6
	55	192	0.956633	166379.1	-147755	1	222516.4	-41.60707	-7.686115E-009	-0.0006823	6
