EXPLAIN
TAG	EISPOT
TITLE	LABEL	Potentiostatic EIS	Test Identifier
DATE	LABEL	11/20/2021	Date
TIME	LABEL	16:07:05	Time
NOTES	NOTES	1	Notes...
	
PSTAT	PSTAT	REF3000-16137	Potentiostat
VDC	POTEN	0.00000E+000	T	DC Voltage (V)
FREQINIT	QUANT	3.00000E+005	Initial Freq. (Hz)
FREQFINAL	QUANT	1.00000E+000	Final Freq. (Hz)
PTSPERDEC	QUANT	1.00000E+001	Points/decade
VAC	QUANT	5.00000E+001	AC Voltage (mV rms)
AREA	QUANT	1.00000E+000	Sample Area (cm^2)
SPEED	SELECTOR	2	Optimize for:
ZGUESS	QUANT	1.00000E+003	Estimated Z (ohms)
EOC	QUANT	0	Open Circuit (V)
SEQUENCER	TOGGLE	TRUE	Run as Sequence
PSTATMODEL	IQUANT	5	Pstat Model
PSTATSECTION	LABEL	REF3000-16137	Pstat Section
PSTATSERIALNO	LABEL	16137	Pstat Serial Number
CTRLMODE	IQUANT	1	Control Mode
IESTAB	IQUANT	0	I/E Stability
CASPEED	IQUANT	1	Control Amp Speed
CONVENTION	IQUANT	1	Current Convention
ICHRANGE	IQUANT	2	Ich Range
ICHRANGEMODE	TOGGLE	F	Ich Auto Range
ICHOFFSETENABLE	TOGGLE	T	Ich Offset Enable
ICHOFFSET	QUANT	0	Ich Offset (V)
ICHFILTER	IQUANT	3	Ich Filter
VCHRANGE	IQUANT	2	Vch Range
VCHRANGEMODE	TOGGLE	F	Vch Auto Range
VCHOFFSETENABLE	TOGGLE	T	Vch Offset Enable
VCHOFFSET	QUANT	0	Vch Offset (V)
VCHFILTER	IQUANT	3	Vch Filter
ACHRANGE	IQUANT	2	Ach Range
ACHOFFSETENABLE	TOGGLE	F	Ach Offset Enable
ACHOFFSET	QUANT	0	Ach Offset (V)
ACHFILTER	IQUANT	3	Ach Filter
IERANGELOWERLIMIT	IQUANT	2	I/E Range Lower Limit
IERANGEMODE	TOGGLE	F	I/E AutoRange
IERANGE	IQUANT	11	I/E Range
POSFEEDENABLE	TOGGLE	F	Positive Feedback IR Comp
POSFEEDRESISTANCE	QUANT	0	Positive Feedback Resistance (ohm)
ACHSELECT	IQUANT	0	Ach Select
CABLEID	IQUANT	13	Cable ID
DCCALDATE	LABEL	9/10/2021	DC Calibration Date
ACCALDATE	LABEL	9/10/2021	AC Calibration Date
THERMOSELECT	IQUANT	1	Thermo Select
FRAMEWORKVERSION	QUANT	6.33	Framework Version
INSTRUMENTVERSION	LABEL	3.50	Instrument Version
COMPLIANCEVOLTAGE	IQUANT	0	Compliance Voltage
ZCURVE	TABLE
	Pt	Time	Freq	Zreal	Zimag	Zsig	Zmod	Zphz	Idc	Vdc	IERange
	#	s	Hz	ohm	ohm	V	ohm	°	A	V	#
	0	7	300046.9	32.13363	-9.55171	1	33.5232	-16.55457	-7.303231E-005	-0.0004612	11
	1	11	238359.4	33.19624	-11.68804	1	35.19376	-19.39662	-5.342761E-005	-0.0001929	10
	2	14	189328.1	34.22179	-14.66656	1	37.23223	-23.1987	1.964795E-005	-0.0003181	10
	3	17	150421.9	35.53133	-17.57767	1	39.64151	-26.32202	-3.71001E-005	0.0008596	9
	4	19	119484.4	37.03073	-21.47619	1	42.80773	-30.11185	3.988445E-005	-0.0009463	9
	5	22	94921.88	38.86432	-26.02379	1	46.77257	-33.8065	1.376764E-005	-0.0006559	9
	6	24	75421.88	40.80648	-31.40793	1	51.49395	-37.58476	4.910902E-008	2.860352E-005	9
	7	27	59859.37	43.24402	-37.67057	1	57.35083	-41.05965	1.078896E-005	-0.0005889	9
	8	29	47578.12	45.96363	-45.15234	1	64.43127	-44.48985	4.0135E-006	-0.0004241	9
	9	32	37828.12	49.41751	-53.90614	1	73.12976	-47.4875	-4.181655E-006	0.0002993	9
	10	34	30046.88	53.40173	-64.5685	1	83.79043	-50.40736	-5.490449E-006	-0.0001744	9
	11	37	23859.38	58.55068	-76.94418	1	96.6881	-52.73068	-3.134101E-007	-0.0003243	9
	12	39	18984.38	64.28351	-91.81178	1	112.0793	-55.00159	1.232361E-005	-0.0002362	9
	13	41	15046.87	71.44174	-109.5772	1	130.8093	-56.89659	-3.109982E-006	0.0002755	9
	14	44	11953.13	80.1787	-130.9395	1	153.5375	-58.51944	1.207238E-005	-0.0002341	9
	15	46	9515.62	90.73595	-156.0245	1	180.4901	-59.81989	1.594683E-005	-0.0005396	9
	16	48	7546.875	104.2144	-185.0813	1	212.4046	-60.61729	-1.263054E-005	0.0001412	9
	17	50	5928.309	120.2441	-222.5429	1	252.9506	-61.61682	-5.390812E-006	-0.0001689	9
	18	53	4733.456	138.9684	-263.6718	1	298.052	-62.2085	1.740989E-005	-0.0005996	9
	19	55	3796.875	159.3589	-310.5678	1	349.0668	-62.83668	-1.358756E-005	0.0003328	9
	20	57	2987.132	189.191	-369.2253	1	414.8741	-62.8694	-5.003159E-006	0.0002593	9
	21	60	2390.625	222.7143	-431.0178	1	485.1577	-62.67383	-1.580014E-006	0.0006074	8
	22	62	1884.191	263.4302	-511.8422	1	575.6544	-62.76645	7.016078E-007	-0.0004866	8
	23	66	1516.544	309.6128	-596.801	1	672.3328	-62.58029	-1.246517E-006	0.0001097	8
	24	68	1193.986	370.2711	-706.1171	1	797.3092	-62.32855	2.972176E-006	-0.0009825	8
	25	70	946.5144	439.9991	-831.7875	1	940.994	-62.12205	-2.624672E-006	0.0005478	8
	26	73	751.7689	525.3027	-969.924	1	1103.039	-61.56039	-2.219178E-006	0.0006971	8
	27	75	597.4265	629.8839	-1137.138	1	1299.937	-61.01704	2.091035E-006	-0.0002932	8
	28	77	477.4305	751.7209	-1318.46	1	1517.703	-60.31035	5.158097E-007	-0.0001072	8
	29	80	376.6741	906.3127	-1537.616	1	1784.843	-59.48374	5.245157E-007	-0.0001165	8
	30	82	298.2954	1089.86	-1782.503	1	2089.285	-58.5575	5.191862E-007	-0.0001079	8
	31	84	237.7717	1303.478	-2049.231	1	2428.663	-57.54033	5.115398E-007	-0.0001089	8
	32	87	189.0121	1561.19	-2349.654	1	2821.026	-56.39859	5.034661E-007	-0.0001075	8
	33	89	150.2404	1867.002	-2678.991	1	3265.378	-55.12716	5.142696E-007	-0.0001119	8
	34	93	119.1737	2230.302	-3038.029	1	3768.802	-53.71656	5.123169E-007	-0.0001117	8
	35	95	95.0169	2658.211	-3422.387	1	4333.454	-52.16306	5.872501E-008	-9.491631E-005	7
	36	97	75.60484	3136.821	-3820.981	1	4943.637	-50.61583	6.069784E-008	-0.0001295	7
	37	100	54.50582	3930.815	-4418.485	1	5913.909	-48.34276	5.819287E-008	-0.0000964	7
	38	102	45.95588	4388.436	-4741.674	1	6460.792	-47.21563	5.016686E-008	-8.420667E-005	7
	39	105	37.20238	4928.993	-5109.023	1	7099.091	-46.02748	4.523152E-008	-8.576303E-005	7
	40	107	30.04808	5583.971	-5541.224	1	7866.759	-44.77985	5.1696E-008	-0.0000964	7
	41	110	23.91582	6347.612	-6028.388	1	8754.064	-43.52245	4.949343E-008	-0.0001036	7
	42	112	18.60119	7254.792	-6608.13	1	9813.22	-42.32927	4.388391E-008	-0.0001026	7
	43	114	15.02404	8083.174	-7131.13	1	10779.18	-41.41935	3.86898E-008	-0.0000967	7
	44	116	12.01923	9007.684	-7711.011	1	11857.41	-40.56512	8.342715E-008	-0.0000961	7
	45	119	9.450605	10042.26	-8419.72	1	13104.91	-39.97744	6.476074E-008	-0.0001053	7
	46	121	7.512019	11097.45	-9169.104	1	14395.34	-39.56472	8.003445E-008	-8.840977E-005	7
	47	124	5.978954	12249.92	-10036.28	1	15836.27	-39.32755	6.634127E-008	-0.0001053	7
	48	127	4.734848	13516.49	-11050.04	1	17458.49	-39.26677	7.183097E-008	-6.984422E-005	7
	49	130	3.75601	14907.42	-12212.27	1	19270.98	-39.3246	5.224103E-008	-0.0001101	7
	50	134	3.004808	16387.65	-13483.7	1	21221.81	-39.44743	6.052542E-008	-0.0000981	7
	51	138	2.372217	18171.7	-15027.45	1	23580.4	-39.58973	6.402792E-008	-3.020188E-005	7
	52	142	1.878005	20219.59	-16826	1	26304.87	-39.76599	5.860003E-008	-0.000117	7
	53	146	1.512097	22396.18	-18631.02	1	29132.52	-39.75652	6.360786E-008	-6.729317E-005	7
	54	152	1.201923	25203.79	-20733.05	1	32635.72	-39.44127	6.547375E-008	-0.0001242	7
	55	158	0.956633	28460	-22908.06	1	36534.24	-38.83133	5.357992E-008	-0.000643	7
