EXPLAIN
TAG	EISPOT
TITLE	LABEL	Potentiostatic EIS	Test Identifier
DATE	LABEL	11/20/2021	Date
TIME	LABEL	17:34:17	Time
NOTES	NOTES	1	Notes...
	
PSTAT	PSTAT	REF3000-16137	Potentiostat
VDC	POTEN	0.00000E+000	T	DC Voltage (V)
FREQINIT	QUANT	3.00000E+005	Initial Freq. (Hz)
FREQFINAL	QUANT	1.00000E+000	Final Freq. (Hz)
PTSPERDEC	QUANT	1.00000E+001	Points/decade
VAC	QUANT	5.00000E+001	AC Voltage (mV rms)
AREA	QUANT	1.00000E+000	Sample Area (cm^2)
SPEED	SELECTOR	2	Optimize for:
ZGUESS	QUANT	1.00000E+003	Estimated Z (ohms)
EOC	QUANT	0	Open Circuit (V)
SEQUENCER	TOGGLE	TRUE	Run as Sequence
PSTATMODEL	IQUANT	5	Pstat Model
PSTATSECTION	LABEL	REF3000-16137	Pstat Section
PSTATSERIALNO	LABEL	16137	Pstat Serial Number
CTRLMODE	IQUANT	1	Control Mode
IESTAB	IQUANT	0	I/E Stability
CASPEED	IQUANT	1	Control Amp Speed
CONVENTION	IQUANT	1	Current Convention
ICHRANGE	IQUANT	2	Ich Range
ICHRANGEMODE	TOGGLE	F	Ich Auto Range
ICHOFFSETENABLE	TOGGLE	T	Ich Offset Enable
ICHOFFSET	QUANT	0	Ich Offset (V)
ICHFILTER	IQUANT	3	Ich Filter
VCHRANGE	IQUANT	2	Vch Range
VCHRANGEMODE	TOGGLE	F	Vch Auto Range
VCHOFFSETENABLE	TOGGLE	T	Vch Offset Enable
VCHOFFSET	QUANT	0	Vch Offset (V)
VCHFILTER	IQUANT	3	Vch Filter
ACHRANGE	IQUANT	2	Ach Range
ACHOFFSETENABLE	TOGGLE	F	Ach Offset Enable
ACHOFFSET	QUANT	0	Ach Offset (V)
ACHFILTER	IQUANT	3	Ach Filter
IERANGELOWERLIMIT	IQUANT	2	I/E Range Lower Limit
IERANGEMODE	TOGGLE	F	I/E AutoRange
IERANGE	IQUANT	11	I/E Range
POSFEEDENABLE	TOGGLE	F	Positive Feedback IR Comp
POSFEEDRESISTANCE	QUANT	0	Positive Feedback Resistance (ohm)
ACHSELECT	IQUANT	0	Ach Select
CABLEID	IQUANT	13	Cable ID
DCCALDATE	LABEL	9/10/2021	DC Calibration Date
ACCALDATE	LABEL	9/10/2021	AC Calibration Date
THERMOSELECT	IQUANT	1	Thermo Select
FRAMEWORKVERSION	QUANT	6.33	Framework Version
INSTRUMENTVERSION	LABEL	3.50	Instrument Version
COMPLIANCEVOLTAGE	IQUANT	0	Compliance Voltage
ZCURVE	TABLE
	Pt	Time	Freq	Zreal	Zimag	Zsig	Zmod	Zphz	Idc	Vdc	IERange
	#	s	Hz	ohm	ohm	V	ohm	°	A	V	#
	0	15	300046.9	65.48239	-4707.82	1	4708.275	-89.20311	2.719841E-005	0.0005347	9
	1	33	238359.4	129.4339	-5785.929	1	5787.376	-88.71848	-0.000095	0.0019107	9
	2	50	189328.1	259.6088	-6592.965	1	6598.074	-87.74505	1.937742E-005	-0.0011614	9
	3	60	150421.9	575.1815	-9135.203	1	9153.293	-86.39723	2.308795E-005	-0.0019767	9
	4	70	119484.4	710.2182	-11342.72	1	11364.94	-86.41714	-3.328143E-005	-0.0008509	9
	5	82	94921.88	1098.7	-13755.83	1	13799.64	-85.43339	6.448157E-006	-0.0080759	8
	6	91	75421.88	1612.047	-17346.37	1	17421.12	-84.69059	-2.090976E-005	0.0024146	8
	7	99	59859.37	2020.081	-21795.92	1	21889.33	-84.70486	2.32078E-005	-0.0038959	8
	8	108	47578.12	6075.227	-28548.9	1	29188.15	-77.98662	3.045696E-006	0.0064572	7
	9	115	37828.12	4846.757	-35409.12	1	35739.29	-82.20586	2.30596E-005	-0.0037898	8
	10	124	30046.88	5855.633	-42071.45	1	42477	-82.0763	-1.674615E-005	0.0002859	8
	11	133	23859.38	11807.27	-53847.43	1	55126.74	-77.63234	-6.20492E-006	0.0252643	7
	12	138	18984.38	15254.97	-66198.59	1	67933.55	-77.02316	3.089467E-006	0.0062075	7
	13	143	15046.87	20084.21	-80599.02	1	83063.69	-76.00762	-6.853877E-006	0.0123249	7
	14	149	11953.13	27113.86	-99986.3	1	103597.4	-74.82766	-1.465212E-006	0.0204164	7
	15	154	9515.62	41431.61	-125314.8	1	131986.3	-71.70507	-7.121277E-006	0.0230369	7
	16	159	7546.875	49769.89	-146897.1	1	155099.3	-71.28322	3.196095E-006	-0.0247713	7
	17	165	5928.309	76993.48	-188312.9	1	203444.7	-67.76234	6.572606E-006	-0.027654	7
	18	170	4733.456	112696.6	-226165.7	1	252688.5	-63.51328	7.477547E-006	-0.0254311	7
	19	175	3796.875	125302.7	-243980	1	274275.4	-62.81598	-1.442577E-006	0.0203028	7
	20	183	2987.132	232888.8	-255660.9	1	345831.9	-47.66873	5.562907E-007	-0.0280783	6
	21	188	2390.625	288515.9	-266616.2	1	392843	-42.74088	-3.742948E-007	0.024221	6
	22	194	1884.191	346546.8	-278782.9	1	444763.5	-38.81527	7.598749E-007	-0.0243141	6
	23	199	1516.544	413180.4	-264433	1	490553.7	-32.619	3.601724E-007	-0.025524	6
	24	204	1193.986	470019.8	-258164.4	1	536253.2	-28.77836	-1.755031E-007	0.0207945	6
	25	210	946.5144	531857.6	-268490.6	1	595784.9	-26.78541	-7.42898E-007	0.0232398	6
	26	214	751.7689	563682.3	-214286.5	1	603039.3	-20.81454	3.944506E-008	0.0152819	6
	27	217	597.4265	566122.9	-195101.2	1	598798.5	-19.01533	5.517526E-007	-0.0279494	6
	28	221	477.4305	627447	-174962.8	1	651384.4	-15.58106	-1.023427E-008	-0.0001593	6
	29	225	376.6741	688166.5	-94171.53	1	694580	-7.792191	-1.195505E-009	-1.137527E-005	5
	30	227	298.2954	697511.1	-87315.46	1	702954.9	-7.135254	-1.173077E-009	-3.588877E-006	5
	31	229	237.7717	706077.9	-86095.14	1	711307.6	-6.952004	-1.214017E-009	-1.088255E-005	5
	32	232	189.0121	716506.6	-88704.99	1	721976.7	-7.057425	-1.140853E-009	-6.925951E-005	5
	33	234	150.2404	730168.6	-94752.8	1	736290.9	-7.393862	-1.18375E-009	-4.0779E-006	5
	34	237	119.1737	735501.1	-108018	1	743390.8	-8.354909	-1.098093E-009	-0.0000961	5
	35	239	95.0169	757864.8	-114985.6	1	766538.2	-8.627297	-1.231671E-009	-4.688333E-006	5
	36	242	75.60484	775202.1	-131351.7	1	786251.6	-9.61696	-1.173686E-009	-6.517553E-005	5
	37	244	54.50582	798338.4	-159042	1	814026.2	-11.26675	-1.175215E-009	-2.20729E-005	5
	38	247	45.95588	816332.6	-181539.2	1	836274.8	-12.53763	-1.304808E-009	1.362429E-006	5
	39	249	37.20238	838118.3	-210217.3	1	864079.6	-14.08049	-1.394309E-009	-1.157478E-005	5
	40	252	30.04808	864366.6	-244535.6	1	898291.4	-15.7966	-1.156115E-009	-0.0001002	5
	41	254	23.91582	896426.4	-288124	1	941592.1	-17.81813	-1.12169E-009	-8.669883E-005	5
	42	257	18.60119	933508.4	-343880.9	1	994833	-20.22252	-1.270126E-009	-7.708136E-005	5
	43	260	15.02404	972585	-401682.8	1	1052270	-22.44088	-1.29017E-009	-9.439929E-005	5
	44	262	12.01923	1016925	-471853.7	1	1121063	-24.89133	-1.147682E-009	-5.28764E-005	5
	45	265	9.450605	1071379	-560201.1	1	1208999	-27.6041	-1.018532E-009	-4.805216E-005	5
	46	267	7.512019	1133086	-661000.4	1	1311794	-30.25772	-1.081516E-009	2.216308E-006	5
	47	270	5.978954	1208074	-779624.5	1	1437796	-32.83597	-1.127279E-009	-7.937988E-005	5
	48	274	4.734848	1295010	-923459.9	1	1590543	-35.49233	-1.076865E-009	2.081166E-005	5
	49	278	3.75601	1400061	-1096278	1	1778201	-38.06171	-1.174927E-009	-5.074163E-005	5
	50	283	3.004808	1524720	-1296398	1	2001354	-40.37296	-1.162368E-009	-6.01356E-005	5
	51	290	2.372217	1673368	-1546463	1	2278532	-42.74293	-1.15451E-009	1.559626E-005	5
	52	294	1.878005	1835984	-1838023	1	2597916	-45.03181	-1.216188E-009	-7.081043E-005	5
	53	299	1.512097	2018862	-2157762	1	2954952	-46.90476	-1.219019E-009	2.796714E-005	5
	54	304	1.201923	2249937	-2571583	1	3416907	-48.81657	-1.183561E-009	-8.132671E-005	5
	55	310	0.956633	2517765	-3057877	1	3961029	-50.53297	-1.278818E-009	-0.0005994	5
