June 16, 2026   19:10:02
A.C. Impedance
File: e:\chi_data\6.13Data Source:  Experiment
Instrument Model:  CHI660E
Header: 
Note: 

Init E (V) = 0
High Frequency (Hz) = 1e+6
Low Frequency (Hz) = 0.1
Imp SF
Amplitude (V) = 0.005
Quiet Time (sec) = 2
Cycles (.1-1Hz) = 1

Freq/Hz, Z'/ohm, Z"/ohm, Z/ohm, Phase/deg

8.252e+5, 2.559e+0, 1.436e+1, 1.459e+1, 79.9
6.816e+5, 1.996e+0, 1.163e+1, 1.180e+1, 80.3
5.625e+5, 1.527e+0, 9.657e+0, 9.777e+0, 81.0
4.639e+5, 1.229e+0, 7.933e+0, 8.028e+0, 81.2
3.828e+5, 1.028e+0, 6.629e+0, 6.709e+0, 81.2
3.164e+5, 8.858e-1, 5.499e+0, 5.570e+0, 80.8
2.607e+5, 7.753e-1, 4.576e+0, 4.641e+0, 80.4
2.158e+5, 6.883e-1, 3.775e+0, 3.837e+0, 79.7
1.777e+5, 6.307e-1, 3.104e+0, 3.168e+0, 78.5
1.465e+5, 5.910e-1, 2.537e+0, 2.605e+0, 76.9
1.211e+5, 5.564e-1, 1.939e+0, 2.017e+0, 74.0
9.961e+4, 5.318e-1, 1.360e+0, 1.460e+0, 68.6
8.252e+4, 5.157e-1, 9.586e-1, 1.089e+0, 61.7
6.812e+4, 5.079e-1, 6.937e-1, 8.597e-1, 53.8
5.625e+4, 5.056e-1, 5.249e-1, 7.289e-1, 46.1
4.644e+4, 5.071e-1, 3.899e-1, 6.397e-1, 37.6
3.833e+4, 5.116e-1, 2.676e-1, 5.773e-1, 27.6
3.164e+4, 5.184e-1, 1.454e-1, 5.384e-1, 15.7
2.612e+4, 5.273e-1, 2.559e-2, 5.279e-1, 2.8
2.153e+4, 5.390e-1, -9.265e-2, 5.469e-1, -9.8
1.777e+4, 5.525e-1, -2.091e-1, 5.907e-1, -20.7
1.470e+4, 5.677e-1, -3.285e-1, 6.559e-1, -30.1
1.211e+4, 5.860e-1, -4.550e-1, 7.419e-1, -37.8
1.001e+4, 6.079e-1, -5.941e-1, 8.501e-1, -44.3
8.252e+3, 6.339e-1, -7.502e-1, 9.821e-1, -49.8
6.812e+3, 6.648e-1, -9.259e-1, 1.140e+0, -54.3
5.625e+3, 7.010e-1, -1.127e+0, 1.327e+0, -58.1
4.643e+3, 7.442e-1, -1.358e+0, 1.549e+0, -61.3
3.833e+3, 7.956e-1, -1.626e+0, 1.811e+0, -63.9
3.164e+3, 8.580e-1, -1.940e+0, 2.121e+0, -66.1
2.612e+3, 9.335e-1, -2.308e+0, 2.490e+0, -68.0
2.153e+3, 1.032e+0, -2.753e+0, 2.940e+0, -69.5
1.777e+3, 1.155e+0, -3.281e+0, 3.479e+0, -70.6
1.470e+3, 1.300e+0, -3.899e+0, 4.110e+0, -71.6
1.211e+3, 1.474e+0, -4.620e+0, 4.849e+0, -72.3
1.001e+3, 1.684e+0, -5.460e+0, 5.714e+0, -72.9
8.252e+2, 1.940e+0, -6.438e+0, 6.724e+0, -73.2
6.836e+2, 2.252e+0, -7.587e+0, 7.914e+0, -73.5
5.615e+2, 2.631e+0, -8.936e+0, 9.315e+0, -73.6
4.639e+2, 3.088e+0, -1.051e+1, 1.096e+1, -73.6
3.809e+2, 3.621e+0, -1.232e+1, 1.285e+1, -73.6
3.174e+2, 4.245e+0, -1.443e+1, 1.504e+1, -73.6
2.588e+2, 4.964e+0, -1.688e+1, 1.759e+1, -73.6
2.148e+2, 5.798e+0, -1.976e+1, 2.059e+1, -73.6
1.758e+2, 6.748e+0, -2.312e+1, 2.408e+1, -73.7
1.465e+2, 7.779e+0, -2.692e+1, 2.802e+1, -73.9
1.221e+2, 8.976e+0, -3.159e+1, 3.284e+1, -74.1
9.766e+1, 1.040e+1, -3.702e+1, 3.845e+1, -74.3
8.254e+1, 1.199e+1, -4.320e+1, 4.483e+1, -74.5
6.813e+1, 1.371e+1, -5.060e+1, 5.242e+1, -74.8
5.623e+1, 1.555e+1, -5.940e+1, 6.140e+1, -75.3
4.642e+1, 1.762e+1, -6.993e+1, 7.212e+1, -75.9
3.831e+1, 1.997e+1, -8.254e+1, 8.492e+1, -76.4
3.162e+1, 2.268e+1, -9.756e+1, 1.002e+2, -76.9
2.610e+1, 2.583e+1, -1.153e+2, 1.182e+2, -77.4
2.154e+1, 2.949e+1, -1.366e+2, 1.397e+2, -77.8
1.778e+1, 3.369e+1, -1.620e+2, 1.654e+2, -78.3
1.468e+1, 3.852e+1, -1.921e+2, 1.960e+2, -78.7
1.212e+1, 4.425e+1, -2.280e+2, 2.322e+2, -79.0
1.000e+1, 5.117e+1, -2.706e+2, 2.754e+2, -79.3
8.254e+0, 5.931e+1, -3.214e+2, 3.269e+2, -79.5
6.813e+0, 6.856e+1, -3.820e+2, 3.881e+2, -79.8
5.623e+0, 7.907e+1, -4.542e+2, 4.610e+2, -80.1
4.642e+0, 9.111e+1, -5.405e+2, 5.482e+2, -80.4
3.831e+0, 1.052e+2, -6.432e+2, 6.518e+2, -80.7
3.162e+0, 1.216e+2, -7.662e+2, 7.758e+2, -81.0
2.610e+0, 1.405e+2, -9.136e+2, 9.243e+2, -81.3
2.154e+0, 1.599e+2, -1.092e+3, 1.104e+3, -81.7
1.778e+0, 1.809e+2, -1.308e+3, 1.320e+3, -82.1
1.468e+0, 2.079e+2, -1.567e+3, 1.580e+3, -82.4
1.212e+0, 2.457e+2, -1.881e+3, 1.897e+3, -82.6
1.000e+0, 2.976e+2, -2.238e+3, 2.258e+3, -82.4
8.254e-1, 3.617e+2, -2.644e+3, 2.668e+3, -82.2
6.813e-1, 4.367e+2, -3.127e+3, 3.157e+3, -82.1
5.623e-1, 5.242e+2, -3.709e+3, 3.746e+3, -82.0
4.642e-1, 6.299e+2, -4.409e+3, 4.454e+3, -81.9
3.831e-1, 7.598e+2, -5.241e+3, 5.296e+3, -81.8
3.162e-1, 9.208e+2, -6.228e+3, 6.296e+3, -81.6
2.610e-1, 1.120e+3, -7.396e+3, 7.480e+3, -81.4
2.154e-1, 1.365e+3, -8.775e+3, 8.880e+3, -81.2
1.778e-1, 1.663e+3, -1.039e+4, 1.052e+4, -80.9
1.468e-1, 2.010e+3, -1.226e+4, 1.242e+4, -80.7
1.212e-1, 2.452e+3, -1.451e+4, 1.471e+4, -80.4
1.000e-1, 3.009e+3, -1.719e+4, 1.745e+4, -80.1
