EXPLAIN
TAG	EISPOT
TITLE	LABEL	Potentiostatic EIS	Test Identifier
DATE	LABEL	9/7/2020	Date
TIME	LABEL	18:29:39	Time
NOTES	NOTES	1	Notes...
	
PSTAT	PSTAT	REF3000-16137	Potentiostat
VDC	POTEN	0.00000E+000	T	DC Voltage (V)
FREQINIT	QUANT	3.00000E+005	Initial Freq. (Hz)
FREQFINAL	QUANT	1.00000E+000	Final Freq. (Hz)
PTSPERDEC	QUANT	1.00000E+001	Points/decade
VAC	QUANT	5.00000E+001	AC Voltage (mV rms)
AREA	QUANT	1.00000E+000	Sample Area (cm^2)
SPEED	SELECTOR	2	Optimize for:
ZGUESS	QUANT	1.00000E+003	Estimated Z (ohms)
EOC	QUANT	0	Open Circuit (V)
SEQUENCER	TOGGLE	TRUE	Run as Sequence
PSTATMODEL	IQUANT	5	Pstat Model
PSTATSECTION	LABEL	REF3000-16137	Pstat Section
PSTATSERIALNO	LABEL	16137	Pstat Serial Number
CTRLMODE	IQUANT	1	Control Mode
IESTAB	IQUANT	0	I/E Stability
CASPEED	IQUANT	1	Control Amp Speed
CONVENTION	IQUANT	1	Current Convention
ICHRANGE	IQUANT	2	Ich Range
ICHRANGEMODE	TOGGLE	F	Ich Auto Range
ICHOFFSETENABLE	TOGGLE	T	Ich Offset Enable
ICHOFFSET	QUANT	0	Ich Offset (V)
ICHFILTER	IQUANT	3	Ich Filter
VCHRANGE	IQUANT	2	Vch Range
VCHRANGEMODE	TOGGLE	F	Vch Auto Range
VCHOFFSETENABLE	TOGGLE	T	Vch Offset Enable
VCHOFFSET	QUANT	0	Vch Offset (V)
VCHFILTER	IQUANT	3	Vch Filter
ACHRANGE	IQUANT	2	Ach Range
ACHOFFSETENABLE	TOGGLE	F	Ach Offset Enable
ACHOFFSET	QUANT	0	Ach Offset (V)
ACHFILTER	IQUANT	3	Ach Filter
IERANGELOWERLIMIT	IQUANT	2	I/E Range Lower Limit
IERANGEMODE	TOGGLE	F	I/E AutoRange
IERANGE	IQUANT	11	I/E Range
POSFEEDENABLE	TOGGLE	F	Positive Feedback IR Comp
POSFEEDRESISTANCE	QUANT	0	Positive Feedback Resistance (ohm)
ACHSELECT	IQUANT	0	Ach Select
CABLEID	IQUANT	13	Cable ID
DCCALDATE	LABEL	7/31/2020	DC Calibration Date
ACCALDATE	LABEL	7/31/2020	AC Calibration Date
THERMOSELECT	IQUANT	1	Thermo Select
FRAMEWORKVERSION	QUANT	6.33	Framework Version
INSTRUMENTVERSION	LABEL	3.50	Instrument Version
COMPLIANCEVOLTAGE	IQUANT	0	Compliance Voltage
ZCURVE	TABLE
	Pt	Time	Freq	Zreal	Zimag	Zsig	Zmod	Zphz	Idc	Vdc	IERange
	#	s	Hz	ohm	ohm	V	ohm	°	A	V	#
	0	14	300046.9	305.9649	-4202.917	1	4214.04	-85.83631	2.451875E-005	-0.001146	9
	1	31	238359.4	450.6667	-5334.485	1	5353.488	-85.17102	-3.466525E-005	-0.0010315	9
	2	45	189328.1	928.8395	-6472.14	1	6538.451	-81.83305	-8.998725E-005	0.0041915	9
	3	55	150421.9	1345.635	-7752.47	1	7868.387	-80.15299	-3.223358E-005	-0.0008428	9
	4	62	119484.4	2178.854	-9660.83	1	9903.49	-77.29045	-3.722231E-005	0.021942	8
	5	70	94921.88	3215.999	-11883.38	1	12310.87	-74.8568	-2.39049E-005	0.0112066	8
	6	78	75421.88	4368.149	-14355.56	1	15005.43	-73.0759	1.893859E-005	-0.0005011	8
	7	87	59859.37	6282.039	-17099.11	1	18216.57	-69.82718	-2.162281E-005	0.0034326	8
	8	96	47578.12	9034.908	-20407.58	1	22318.13	-66.11992	1.454791E-005	-0.0090624	8
	9	104	37828.12	15247.99	-24354.04	1	28733.61	-57.94944	8.417589E-007	-0.0186793	7
	10	111	30046.88	16571.59	-27224.58	1	31871.54	-58.67115	1.024376E-005	0.0033974	8
	11	119	23859.38	24599.73	-29305.44	1	38261.68	-49.98905	-6.703798E-006	0.0130965	7
	12	124	18984.38	30098.68	-32090.38	1	43996.85	-46.83437	7.384715E-006	-0.0246783	7
	13	131	15046.87	36330.17	-32803.5	1	48948.45	-42.07974	6.535954E-006	-0.0266963	7
	14	136	11953.13	43120.95	-33467.39	1	54584.64	-37.81605	-5.731104E-006	0.0050845	7
	15	141	9515.62	49330.82	-33877	1	59842.97	-34.47859	-7.307749E-006	0.0195338	7
	16	147	7546.875	54399.06	-32738.97	1	63490.93	-31.04078	-7.557007E-006	0.0204983	7
	17	152	5928.309	59762.7	-32939.98	1	68239.45	-28.86266	4.951295E-006	-0.0259954	7
	18	157	4733.456	65556.57	-31537.82	1	72748.18	-25.69118	-7.031129E-006	0.0235949	7
	19	163	3796.875	68670.77	-31534.33	1	75565.13	-24.66508	-6.290347E-006	0.0255654	7
	20	169	2987.132	73959.34	-31610.22	1	80431.27	-23.14186	-1.465316E-006	-0.0118253	7
	21	175	2390.625	77175.28	-30869.67	1	83120.16	-21.80112	-3.512223E-006	0.024709	7
	22	180	1884.191	79772.7	-32132.12	1	86000.91	-21.93937	6.532914E-006	-0.0267247	7
	23	185	1516.544	85648.05	-37061.97	1	93322.98	-23.3993	4.975841E-006	-0.0261065	7
	24	191	1193.986	92102.47	-35004.81	1	98530.2	-20.80998	4.965336E-006	-0.0260508	7
	25	196	946.5144	97073.2	-42733.25	1	106062.9	-23.7599	4.95622E-006	-0.025868	7
	26	201	751.7689	48607.29	-31924.45	1	58153.58	-33.29623	2.690518E-005	-0.0077305	8
	27	207	597.4265	122626	-61728.42	1	137286.3	-26.72013	6.680016E-006	-0.0112931	7
	28	212	477.4305	109605.7	-54095.71	1	122228.3	-26.26857	-9.570826E-008	0.0005415	7
	29	217	376.6741	124750.1	-54194.02	1	136013.2	-23.48112	-1.937473E-008	0.0006503	6
	30	219	298.2954	132419.3	-62693.38	1	146510.5	-25.33503	-1.695592E-008	0.0006843	6
	31	222	237.7717	140757.8	-71184.8	1	157734.1	-26.82689	-1.801481E-008	0.000681	6
	32	224	189.0121	150326.3	-79871.41	1	170227.6	-27.98261	-1.727217E-008	0.0005845	6
	33	227	150.2404	162975.2	-89832.45	1	186093.4	-28.8637	-1.746791E-008	0.0005879	6
	34	230	119.1737	164866.8	-100529.1	1	193098.8	-31.37316	-1.846653E-008	0.0006771	6
	35	233	95.0169	189259	-109450.7	1	218628.5	-30.0413	-1.855997E-008	0.000653	6
	36	236	75.60484	207293.3	-119628.6	1	239335.5	-29.98916	-1.755046E-008	0.000594	6
	37	238	54.50582	226890.9	-141537.7	1	267418	-31.95649	-9.68839E-008	0.0005526	7
	38	243	45.95588	247055.7	-146992.3	1	287477.4	-30.75165	-1.825031E-008	0.0006846	6
	39	247	37.20238	263402.8	-158171.8	1	307244.8	-30.98456	-1.741819E-008	0.0006001	6
	40	250	30.04808	285225.8	-173467.6	1	333833.4	-31.30698	-1.835087E-008	0.0006794	6
	41	254	23.91582	309812.5	-193908.7	1	365491.9	-32.04206	-1.682141E-008	0.0006808	6
	42	258	18.60119	326077.8	-214393.3	1	390245.1	-33.32456	-1.537585E-008	0.0005928	6
	43	262	15.02404	377784.1	-212678.9	1	433535.7	-29.37795	-9.594665E-009	0.0006045	5
	44	264	12.01923	406635.2	-234824.3	1	469568.6	-30.00564	-8.927375E-009	0.0006103	5
	45	267	9.450605	440716.3	-261117	1	512262.6	-30.64603	-9.007246E-009	0.000603	5
	46	270	7.512019	475563.3	-284405.9	1	554118.4	-30.88112	-8.752513E-009	0.0005814	5
	47	273	5.978954	515233.3	-313116.8	1	602915.8	-31.28783	-8.589144E-009	0.0005829	5
	48	277	4.734848	558171.8	-345568.5	1	656485.6	-31.76197	-8.890562E-009	0.000556	5
	49	282	3.75601	606891.4	-380621.9	1	716372.9	-32.09455	-8.94132E-009	0.0006737	5
	50	287	3.004808	654008.1	-417210.2	1	775751.9	-32.53495	-8.727167E-009	0.0005781	5
	51	294	2.372217	711924.1	-466446.7	1	851121.8	-33.23248	-8.974346E-009	0.0005854	5
	52	298	1.878005	773602.1	-518176.4	1	931110.6	-33.81508	-8.925078E-009	0.0006392	5
	53	303	1.512097	838581	-574032.1	1	1016234	-34.39273	-8.873243E-009	0.0005195	5
	54	308	1.201923	918381.5	-643180.9	1	1121207	-35.00516	-8.941654E-009	0.0006374	5
	55	314	0.956633	1011193	-719054.4	1	1240786	-35.41645	-9.179162E-009	-1.33424E-005	5
