EXPLAIN
TAG	EISPOT
TITLE	LABEL	Potentiostatic EIS	Test Identifier
DATE	LABEL	9/7/2020	Date
TIME	LABEL	18:45:55	Time
NOTES	NOTES	1	Notes...
	
PSTAT	PSTAT	REF3000-16137	Potentiostat
VDC	POTEN	0.00000E+000	T	DC Voltage (V)
FREQINIT	QUANT	3.00000E+005	Initial Freq. (Hz)
FREQFINAL	QUANT	1.00000E+000	Final Freq. (Hz)
PTSPERDEC	QUANT	1.00000E+001	Points/decade
VAC	QUANT	5.00000E+001	AC Voltage (mV rms)
AREA	QUANT	1.00000E+000	Sample Area (cm^2)
SPEED	SELECTOR	2	Optimize for:
ZGUESS	QUANT	1.00000E+003	Estimated Z (ohms)
EOC	QUANT	0	Open Circuit (V)
SEQUENCER	TOGGLE	TRUE	Run as Sequence
PSTATMODEL	IQUANT	5	Pstat Model
PSTATSECTION	LABEL	REF3000-16137	Pstat Section
PSTATSERIALNO	LABEL	16137	Pstat Serial Number
CTRLMODE	IQUANT	1	Control Mode
IESTAB	IQUANT	0	I/E Stability
CASPEED	IQUANT	1	Control Amp Speed
CONVENTION	IQUANT	1	Current Convention
ICHRANGE	IQUANT	2	Ich Range
ICHRANGEMODE	TOGGLE	F	Ich Auto Range
ICHOFFSETENABLE	TOGGLE	T	Ich Offset Enable
ICHOFFSET	QUANT	0	Ich Offset (V)
ICHFILTER	IQUANT	3	Ich Filter
VCHRANGE	IQUANT	2	Vch Range
VCHRANGEMODE	TOGGLE	F	Vch Auto Range
VCHOFFSETENABLE	TOGGLE	T	Vch Offset Enable
VCHOFFSET	QUANT	0	Vch Offset (V)
VCHFILTER	IQUANT	3	Vch Filter
ACHRANGE	IQUANT	2	Ach Range
ACHOFFSETENABLE	TOGGLE	F	Ach Offset Enable
ACHOFFSET	QUANT	0	Ach Offset (V)
ACHFILTER	IQUANT	3	Ach Filter
IERANGELOWERLIMIT	IQUANT	2	I/E Range Lower Limit
IERANGEMODE	TOGGLE	F	I/E AutoRange
IERANGE	IQUANT	11	I/E Range
POSFEEDENABLE	TOGGLE	F	Positive Feedback IR Comp
POSFEEDRESISTANCE	QUANT	0	Positive Feedback Resistance (ohm)
ACHSELECT	IQUANT	0	Ach Select
CABLEID	IQUANT	13	Cable ID
DCCALDATE	LABEL	7/31/2020	DC Calibration Date
ACCALDATE	LABEL	7/31/2020	AC Calibration Date
THERMOSELECT	IQUANT	1	Thermo Select
FRAMEWORKVERSION	QUANT	6.33	Framework Version
INSTRUMENTVERSION	LABEL	3.50	Instrument Version
COMPLIANCEVOLTAGE	IQUANT	0	Compliance Voltage
ZCURVE	TABLE
	Pt	Time	Freq	Zreal	Zimag	Zsig	Zmod	Zphz	Idc	Vdc	IERange
	#	s	Hz	ohm	ohm	V	ohm	°	A	V	#
	0	15	300046.9	71.23785	-4331.058	1	4331.644	-89.05768	1.998165E-005	-0.0023429	9
	1	36	238359.4	430.5748	-5311.941	1	5329.364	-85.36586	-2.041259E-005	0.0010569	9
	2	57	189328.1	470.5681	-6744.298	1	6760.694	-86.00879	-6.333815E-005	0.0006097	9
	3	65	150421.9	387.8634	-8411.554	1	8420.491	-87.35992	-6.20431E-005	0.000658	9
	4	72	119484.4	577.9838	-10462.86	1	10478.81	-86.83811	-2.00831E-005	0.0016609	9
	5	81	94921.88	1360.646	-12826.39	1	12898.35	-83.94461	-1.977033E-006	-0.0049354	8
	6	89	75421.88	1729.513	-15934.75	1	16028.33	-83.80553	-1.934593E-005	0.0112515	8
	7	98	59859.37	2102.125	-19934.22	1	20044.75	-83.98023	2.189554E-005	-0.009692	8
	8	106	47578.12	3571.539	-24949.39	1	25203.73	-81.85338	-2.683702E-005	0.0097933	8
	9	115	37828.12	4804.242	-31027.5	1	31397.23	-81.19832	9.095828E-006	0.0038534	8
	10	125	30046.88	6836.691	-38449.62	1	39052.71	-79.91766	2.369244E-005	-0.0030907	8
	11	133	23859.38	9304.233	-47755.68	1	48653.61	-78.97518	9.143299E-006	0.0038467	8
	12	140	18984.38	19006.65	-58551.81	1	61559.46	-72.01592	-6.656056E-006	0.0123255	7
	13	145	15046.87	25410.21	-71514.13	1	75894.33	-70.43899	-6.410799E-006	0.0257141	7
	14	150	11953.13	35673.45	-86286.84	1	93370.3	-67.5384	6.402007E-007	0.0152005	7
	15	157	9515.62	42642.78	-99228.2	1	108003	-66.74466	1.551768E-005	-0.009198	8
	16	164	7546.875	62922.9	-117098.4	1	132933.5	-61.74861	4.949558E-006	-0.0014963	7
	17	171	5928.309	81932.51	-137594.4	1	160141	-59.22772	6.583599E-006	-0.0106931	7
	18	176	4733.456	113582.9	-149702.2	1	187914.4	-52.81149	-7.139184E-006	0.0235117	7
	19	183	3796.875	130358.7	-154653.9	1	202265.3	-49.87225	-1.253013E-006	-0.0118147	7
	20	189	2987.132	203877.5	-163753.8	1	261498.3	-38.77134	-6.677585E-007	0.0258838	6
	21	193	2390.625	224750	-169570.9	1	281543.7	-37.03408	-6.595363E-007	0.0100724	6
	22	199	1884.191	263525.8	-159702.6	1	308140.8	-31.21681	-6.666343E-007	0.0259046	6
	23	204	1516.544	289442.1	-161939.9	1	331664.4	-29.22656	-3.870796E-007	0.0249074	6
	24	209	1193.986	243751.2	-116017.5	1	269953.1	-25.4529	-1.174071E-005	0.0010116	9
	25	217	946.5144	257100.3	-191065.1	1	320322.4	-36.61803	7.47284E-006	-0.0244513	7
	26	222	751.7689	351430.7	-143881	1	379743.7	-22.26493	7.525797E-006	-0.0245685	7
	27	228	597.4265	130224	22944.32	1	132229.9	9.99245	-1.004097E-005	-0.0020123	8
	28	234	477.4305	375550.9	-164742	1	410095.7	-23.68551	-9.328036E-008	0.0005432	7
	29	239	376.6741	414463.8	-160030.2	1	444285.8	-21.11226	-1.131319E-008	0.0005905	6
	30	243	298.2954	614036.4	-106455.4	1	623196.2	-9.8356	-2.516026E-009	0.0007116	5
	31	246	237.7717	607124.1	-111442.6	1	617267.4	-10.40132	-2.703245E-009	0.0005887	5
	32	248	189.0121	613412.6	-120920.9	1	625217.5	-11.15163	-2.652128E-009	0.0006037	5
	33	251	150.2404	616651.6	-144957	1	633460.1	-13.22841	-2.507736E-009	0.0005667	5
	34	254	119.1737	624580	-240015.1	1	669109.4	-21.02089	-2.171155E-009	0.000605	5
	35	257	95.0169	641044.8	-203344	1	672522.9	-17.5994	-2.868928E-009	0.0006627	5
	36	259	75.60484	684715.3	-250539.1	1	729112.4	-20.09771	-2.750715E-009	0.000661	5
	37	262	54.50582	724463.9	-305536.3	1	786257.2	-22.86716	-2.434619E-009	0.0006653	5
	38	266	45.95588	748345.7	-327608.6	1	816914.1	-23.6427	-2.309637E-009	0.0006615	5
	39	268	37.20238	801929.2	-372456.8	1	884202.8	-24.91256	-2.733356E-009	0.0006641	5
	40	271	30.04808	848724.1	-438640.7	1	955373	-27.33099	-2.387658E-009	0.0006032	5
	41	274	23.91582	893202.7	-493539.9	1	1020487	-28.92288	-2.941609E-009	0.0006682	5
	42	277	18.60119	899571.1	-588754.1	1	1075109	-33.20407	-4.663576E-009	0.0006292	5
	43	279	15.02404	1061700	-619155.2	1	1229048	-30.24961	-2.294296E-009	0.0006271	5
	44	281	12.01923	1151610	-683191.8	1	1339014	-30.6785	-2.169528E-009	0.0005848	5
	45	284	9.450605	1234092	-752645.4	1	1445496	-31.37808	-1.899807E-009	0.0006474	5
	46	287	7.512019	1350076	-833422.1	1	1586600	-31.68764	-2.115653E-009	0.000603	5
	47	290	5.978954	1478749	-929115.9	1	1746412	-32.14165	-2.095848E-009	0.0005763	5
	48	294	4.734848	1598925	-1015709	1	1894261	-32.42555	-2.311046E-009	0.000645	5
	49	299	3.75601	1761642	-1117975	1	2086444	-32.40007	-2.397855E-009	0.0006639	5
	50	304	3.004808	1913307	-1246367	1	2283457	-33.08102	-2.147935E-009	0.0006126	5
	51	311	2.372217	2095593	-1373367	1	2505523	-33.23921	-2.412468E-009	0.0005598	5
	52	315	1.878005	2292486	-1519308	1	2750234	-33.53378	-2.269373E-009	0.0006264	5
	53	323	1.512097	2497004	-1670162	1	3004076	-33.77724	-2.247521E-009	0.0005714	5
	54	328	1.201923	2732683	-1851605	1	3300908	-34.12069	-2.277489E-009	0.0006425	5
	55	336	0.956633	2990740	-2058927	1	3630937	-34.54484	-2.375602E-009	-1.988747E-005	5
