EXPLAIN
TAG	EISPOT
TITLE	LABEL	Potentiostatic EIS	Test Identifier
DATE	LABEL	9/7/2020	Date
TIME	LABEL	17:51:16	Time
NOTES	NOTES	1	Notes...
	
PSTAT	PSTAT	REF3000-16137	Potentiostat
VDC	POTEN	0.00000E+000	T	DC Voltage (V)
FREQINIT	QUANT	3.00000E+005	Initial Freq. (Hz)
FREQFINAL	QUANT	1.00000E+000	Final Freq. (Hz)
PTSPERDEC	QUANT	1.00000E+001	Points/decade
VAC	QUANT	5.00000E+001	AC Voltage (mV rms)
AREA	QUANT	1.00000E+000	Sample Area (cm^2)
SPEED	SELECTOR	2	Optimize for:
ZGUESS	QUANT	1.00000E+003	Estimated Z (ohms)
EOC	QUANT	0	Open Circuit (V)
SEQUENCER	TOGGLE	TRUE	Run as Sequence
PSTATMODEL	IQUANT	5	Pstat Model
PSTATSECTION	LABEL	REF3000-16137	Pstat Section
PSTATSERIALNO	LABEL	16137	Pstat Serial Number
CTRLMODE	IQUANT	1	Control Mode
IESTAB	IQUANT	0	I/E Stability
CASPEED	IQUANT	1	Control Amp Speed
CONVENTION	IQUANT	1	Current Convention
ICHRANGE	IQUANT	2	Ich Range
ICHRANGEMODE	TOGGLE	F	Ich Auto Range
ICHOFFSETENABLE	TOGGLE	T	Ich Offset Enable
ICHOFFSET	QUANT	0	Ich Offset (V)
ICHFILTER	IQUANT	3	Ich Filter
VCHRANGE	IQUANT	2	Vch Range
VCHRANGEMODE	TOGGLE	F	Vch Auto Range
VCHOFFSETENABLE	TOGGLE	T	Vch Offset Enable
VCHOFFSET	QUANT	0	Vch Offset (V)
VCHFILTER	IQUANT	3	Vch Filter
ACHRANGE	IQUANT	2	Ach Range
ACHOFFSETENABLE	TOGGLE	F	Ach Offset Enable
ACHOFFSET	QUANT	0	Ach Offset (V)
ACHFILTER	IQUANT	3	Ach Filter
IERANGELOWERLIMIT	IQUANT	2	I/E Range Lower Limit
IERANGEMODE	TOGGLE	F	I/E AutoRange
IERANGE	IQUANT	11	I/E Range
POSFEEDENABLE	TOGGLE	F	Positive Feedback IR Comp
POSFEEDRESISTANCE	QUANT	0	Positive Feedback Resistance (ohm)
ACHSELECT	IQUANT	0	Ach Select
CABLEID	IQUANT	13	Cable ID
DCCALDATE	LABEL	7/31/2020	DC Calibration Date
ACCALDATE	LABEL	7/31/2020	AC Calibration Date
THERMOSELECT	IQUANT	1	Thermo Select
FRAMEWORKVERSION	QUANT	6.33	Framework Version
INSTRUMENTVERSION	LABEL	3.50	Instrument Version
COMPLIANCEVOLTAGE	IQUANT	0	Compliance Voltage
ZCURVE	TABLE
	Pt	Time	Freq	Zreal	Zimag	Zsig	Zmod	Zphz	Idc	Vdc	IERange
	#	s	Hz	ohm	ohm	V	ohm	°	A	V	#
	0	21	300046.9	1411.651	-3050.367	1	3361.176	-65.16621	1.896778E-005	-0.0006352	9
	1	36	238359.4	1891.29	-3389.697	1	3881.626	-60.84055	-9.773428E-006	0.0010314	9
	2	51	189328.1	2571.215	-3848.472	1	4628.378	-56.2526	-0.0001007	0.0028877	9
	3	59	150421.9	3237.204	-4205.411	1	5307.068	-52.41196	2.812593E-006	-0.0016571	9
	4	68	119484.4	4239.629	-4361.304	1	6082.387	-45.81049	6.700373E-006	0.0131513	8
	5	76	94921.88	5074.727	-4546.706	1	6813.618	-41.85878	2.660638E-005	-0.0088946	8
	6	83	75421.88	5916.468	-4596.118	1	7491.921	-37.8413	6.798779E-007	-0.0060061	8
	7	91	59859.37	6755.871	-4562.604	1	8152.248	-34.03328	-2.134145E-005	0.0031096	8
	8	98	47578.12	7481.184	-4510.417	1	8735.673	-31.08584	-2.619009E-005	0.0090834	8
	9	107	37828.12	8173.767	-4459.778	1	9311.288	-28.61781	2.668165E-005	-0.008766	8
	10	115	30046.88	8784.701	-4529.034	1	9883.48	-27.27379	3.020609E-006	-0.0006901	9
	11	124	23859.38	11265.47	-3993.774	1	11952.45	-19.52017	2.208888E-006	-0.020852	7
	12	128	18984.38	11756.7	-3828.963	1	12364.51	-18.03957	2.038543E-006	-0.020997	7
	13	133	15046.87	12172.79	-3789.552	1	12749.02	-17.29207	-4.46952E-006	0.0244654	7
	14	137	11953.13	12651.31	-3865.625	1	13228.7	-16.99061	-6.877956E-006	0.0143055	7
	15	141	9515.62	12878.18	-3863.442	1	13445.22	-16.69919	1.28194E-006	0.0119575	7
	16	145	7546.875	13358.07	-4056.968	1	13960.56	-16.89401	-5.801401E-006	0.007041	7
	17	149	5928.309	13795.77	-4412.465	1	14484.23	-17.73646	-7.126561E-006	0.0202476	7
	18	154	4733.456	14310.89	-4813.668	1	15098.78	-18.59108	6.475042E-006	-0.0127348	7
	19	158	3796.875	14801.49	-5283.81	1	15716.32	-19.64546	6.942566E-006	-0.0245086	7
	20	162	2987.132	15595.95	-5935.049	1	16687.07	-20.83436	-6.792946E-006	0.0144195	7
	21	166	2390.625	16307.01	-6583.777	1	17585.92	-21.98586	1.3399E-007	-0.0161045	7
	22	171	1884.191	17390.71	-7364.891	1	18885.93	-22.95245	5.833466E-006	-0.0257912	7
	23	175	1516.544	18099.44	-8047.648	1	19807.94	-23.97161	-5.738658E-006	0.0246731	7
	24	179	1193.986	19349.2	-9024.521	1	21350.26	-25.00448	-2.091425E-006	-0.0091202	7
	25	184	946.5144	21367.75	-9658.58	1	23449.28	-24.32378	-2.0617E-006	-0.0094789	7
	26	186	751.7689	22996.42	-11509.17	1	25715.69	-26.5869	-4.415521E-006	0.0241973	7
	27	189	597.4265	25797.17	-14012.07	1	29356.98	-28.50918	2.347155E-005	-0.009717	8
	28	194	477.4305	25936.78	-12828.89	1	28936.09	-26.31799	-5.651227E-007	0.0006161	8
	29	197	376.6741	28280.22	-13365.86	1	31279.66	-25.29646	-1.866701E-007	0.0005697	7
	30	200	298.2954	30454.55	-14014.36	1	33524.35	-24.71061	-1.919731E-007	0.0005574	7
	31	202	237.7717	32665.29	-14812.06	1	35866.68	-24.3919	-1.905488E-007	0.0006336	7
	32	204	189.0121	35038.96	-15529.77	1	38326.27	-23.90361	-1.948891E-007	0.0006355	7
	33	207	150.2404	37601.04	-16217.63	1	40949.36	-23.33092	-1.941086E-007	0.0006353	7
	34	210	119.1737	40709.55	-14562.46	1	43235.78	-19.68294	-1.145878E-007	0.0006466	6
	35	212	95.0169	43310.93	-16098.48	1	46206.04	-20.38988	-1.13047E-007	0.0006002	6
	36	215	75.60484	46079.55	-16796.97	1	49045.53	-20.02787	-1.163403E-007	0.0006451	6
	37	217	54.50582	49416.12	-16938.71	1	52238.61	-18.92054	-1.154435E-007	0.0007288	6
	38	220	45.95588	51941.47	-17876.79	1	54931.74	-18.99202	-1.159052E-007	0.0006888	6
	39	222	37.20238	54348.01	-18227.43	1	57323.16	-18.54061	-1.142512E-007	0.0005975	6
	40	224	30.04808	57073.25	-18449.22	1	59981.08	-17.91369	-1.154344E-007	0.000723	6
	41	227	23.91582	59830.89	-18693.9	1	62683.31	-17.35118	-1.151287E-007	0.0005929	6
	42	230	18.60119	63379.77	-19101.44	1	66195.63	-16.77179	-1.070667E-007	0.0006175	6
	43	232	15.02404	65469.2	-19594.65	1	68338.62	-16.66222	-1.146557E-007	0.000639	6
	44	235	12.01923	68162.17	-20021.97	1	71041.97	-16.36964	-1.17936E-007	0.0006912	6
	45	237	9.450605	71023.3	-20604.02	1	73951.57	-16.17756	-1.167727E-007	0.0006231	6
	46	240	7.512019	73707.03	-21163.2	1	76685.12	-16.02015	-1.130838E-007	0.0006165	6
	47	243	5.978954	76455.5	-21803.63	1	79503.73	-15.91713	-1.153066E-007	0.0005982	6
	48	247	4.734848	79447.16	-22612.23	1	82602.45	-15.8874	-1.157012E-007	0.0006951	6
	49	251	3.75601	82400.25	-23330.51	1	85639.44	-15.80875	-1.160254E-007	0.0006597	6
	50	256	3.004808	85424.67	-24138.83	1	88769.69	-15.77894	-1.161791E-007	0.000656	6
	51	263	2.372217	89104.98	-25190.55	1	92597.31	-15.78594	-1.167873E-007	0.0005803	6
	52	267	1.878005	92592.41	-26127.64	1	96208.2	-15.75796	-1.154838E-007	0.000638	6
	53	271	1.512097	96128.4	-27150.23	1	99889	-15.77165	-1.172933E-007	0.0006856	6
	54	282	1.201923	100547.1	-28314.2	1	104457.7	-15.7273	-1.166674E-007	0.0006679	6
	55	295	0.956633	105600.4	-29655.95	1	109685.5	-15.68643	-1.242916E-007	1.403095E-005	6
