EXPLAIN
TAG	EISPOT
TITLE	LABEL	Potentiostatic EIS	Test Identifier
DATE	LABEL	9/7/2020	Date
TIME	LABEL	18:40:25	Time
NOTES	NOTES	1	Notes...
	
PSTAT	PSTAT	REF3000-16137	Potentiostat
VDC	POTEN	0.00000E+000	T	DC Voltage (V)
FREQINIT	QUANT	3.00000E+005	Initial Freq. (Hz)
FREQFINAL	QUANT	1.00000E+000	Final Freq. (Hz)
PTSPERDEC	QUANT	1.00000E+001	Points/decade
VAC	QUANT	5.00000E+001	AC Voltage (mV rms)
AREA	QUANT	1.00000E+000	Sample Area (cm^2)
SPEED	SELECTOR	2	Optimize for:
ZGUESS	QUANT	1.00000E+003	Estimated Z (ohms)
EOC	QUANT	0	Open Circuit (V)
SEQUENCER	TOGGLE	TRUE	Run as Sequence
PSTATMODEL	IQUANT	5	Pstat Model
PSTATSECTION	LABEL	REF3000-16137	Pstat Section
PSTATSERIALNO	LABEL	16137	Pstat Serial Number
CTRLMODE	IQUANT	1	Control Mode
IESTAB	IQUANT	0	I/E Stability
CASPEED	IQUANT	1	Control Amp Speed
CONVENTION	IQUANT	1	Current Convention
ICHRANGE	IQUANT	2	Ich Range
ICHRANGEMODE	TOGGLE	F	Ich Auto Range
ICHOFFSETENABLE	TOGGLE	T	Ich Offset Enable
ICHOFFSET	QUANT	0	Ich Offset (V)
ICHFILTER	IQUANT	3	Ich Filter
VCHRANGE	IQUANT	2	Vch Range
VCHRANGEMODE	TOGGLE	F	Vch Auto Range
VCHOFFSETENABLE	TOGGLE	T	Vch Offset Enable
VCHOFFSET	QUANT	0	Vch Offset (V)
VCHFILTER	IQUANT	3	Vch Filter
ACHRANGE	IQUANT	2	Ach Range
ACHOFFSETENABLE	TOGGLE	F	Ach Offset Enable
ACHOFFSET	QUANT	0	Ach Offset (V)
ACHFILTER	IQUANT	3	Ach Filter
IERANGELOWERLIMIT	IQUANT	2	I/E Range Lower Limit
IERANGEMODE	TOGGLE	F	I/E AutoRange
IERANGE	IQUANT	11	I/E Range
POSFEEDENABLE	TOGGLE	F	Positive Feedback IR Comp
POSFEEDRESISTANCE	QUANT	0	Positive Feedback Resistance (ohm)
ACHSELECT	IQUANT	0	Ach Select
CABLEID	IQUANT	13	Cable ID
DCCALDATE	LABEL	7/31/2020	DC Calibration Date
ACCALDATE	LABEL	7/31/2020	AC Calibration Date
THERMOSELECT	IQUANT	1	Thermo Select
FRAMEWORKVERSION	QUANT	6.33	Framework Version
INSTRUMENTVERSION	LABEL	3.50	Instrument Version
COMPLIANCEVOLTAGE	IQUANT	0	Compliance Voltage
ZCURVE	TABLE
	Pt	Time	Freq	Zreal	Zimag	Zsig	Zmod	Zphz	Idc	Vdc	IERange
	#	s	Hz	ohm	ohm	V	ohm	°	A	V	#
	0	17	300046.9	167.8606	-4258.815	1	4262.122	-87.74287	-9.498419E-005	0.0022201	9
	1	31	238359.4	280.1661	-5364.23	1	5371.542	-87.01024	2.678519E-005	-0.0015983	9
	2	53	189328.1	577.4445	-6416.92	1	6442.85	-84.85793	-8.403409E-005	0.0041114	9
	3	64	150421.9	709.0549	-8086.907	1	8117.932	-84.98916	1.82065E-005	-0.0008937	9
	4	73	119484.4	968.596	-10068.44	1	10114.93	-84.50499	5.140333E-005	0.0001548	9
	5	85	94921.88	1895.203	-12684.77	1	12825.57	-81.50243	-1.673451E-005	0.0009499	8
	6	94	75421.88	2411.187	-15700.49	1	15884.56	-81.26907	2.648689E-005	-0.0055745	8
	7	102	59859.37	3744.087	-19947.26	1	20295.6	-79.36931	1.527301E-005	-0.0090839	8
	8	111	47578.12	8114.905	-25137.45	1	26414.83	-72.10882	2.919624E-006	0.0076088	7
	9	117	37828.12	10561.56	-30356.07	1	32140.91	-70.81606	2.919931E-006	0.0074904	7
	10	125	30046.88	10624.47	-36266.1	1	37790.34	-73.67159	2.729564E-005	-0.0077059	8
	11	134	23859.38	14060.13	-44297.58	1	46475.4	-72.39047	2.722728E-005	-0.0077026	8
	12	140	18984.38	22102.38	-50920.97	1	55510.9	-66.53661	-1.637484E-005	0.0008533	8
	13	148	15046.87	33969.82	-59606.37	1	68606.62	-60.32108	-5.446659E-006	0.0045647	7
	14	153	11953.13	45275.2	-69014.43	1	82539.9	-56.73412	4.940749E-006	-0.0015402	7
	15	158	9515.62	55758.31	-75956.8	1	94225.39	-53.71838	-7.093915E-006	0.0235523	7
	16	164	7546.875	69927.23	-79476.86	1	105860.2	-48.65726	-2.287335E-006	-0.0048085	8
	17	171	5928.309	89040.66	-87629.12	1	124928.4	-44.54223	6.580525E-006	-0.0107603	7
	18	177	4733.456	104197.5	-90148.78	1	137782.1	-40.86546	7.024626E-007	0.0151244	7
	19	183	3796.875	148243.7	-91233.91	1	174068.4	-31.60948	-1.970951E-007	0.0214695	6
	20	187	2987.132	163505.3	-85997.63	1	184741.9	-27.74267	2.308161E-007	0.0095032	6
	21	192	2390.625	174071.5	-83547.09	1	193082.9	-25.63907	5.869351E-007	-0.0067456	6
	22	196	1884.191	188517.9	-76520.77	1	203456.2	-22.09259	-7.527124E-008	-0.0141144	6
	23	200	1516.544	196755.1	-77156.77	1	211342.7	-21.41244	2.305839E-007	0.0095071	6
	24	204	1193.986	208455.6	-72719.45	1	220775.5	-19.23126	-1.941894E-007	0.0215598	6
	25	209	946.5144	218503.4	-76427.99	1	231484.3	-19.27879	-5.016925E-007	0.002175	6
	26	211	751.7689	223526.6	-81532.86	1	237932.2	-20.03979	7.210855E-007	-0.0162875	6
	27	214	597.4265	241499	-88192.2	1	257098.5	-20.06152	1.555143E-007	-0.0203343	6
	28	218	477.4305	240767.3	-88016.78	1	256351	-20.08079	-1.366796E-008	0.0007171	6
	29	221	376.6741	237262.4	-106296.6	1	259985.5	-24.13299	-1.034658E-007	0.0005949	7
	30	225	298.2954	261558	-108616.8	1	283214	-22.55156	-1.235588E-008	0.0005972	6
	31	229	237.7717	265211.2	-130944.2	1	295775.8	-26.2772	-1.037308E-007	0.000632	7
	32	233	189.0121	289683.2	-137305.1	1	320576.1	-25.36019	-1.263924E-008	0.0006112	6
	33	237	150.2404	296678.9	-163125.4	1	338568	-28.80368	-1.013743E-007	0.000638	7
	34	241	119.1737	302880.8	-188000.8	1	356484.3	-31.82825	-1.389197E-008	0.0006523	6
	35	245	95.0169	352795.2	-200396.6	1	405737.9	-29.59767	-1.309953E-008	0.0005975	6
	36	249	75.60484	445456.8	-166791.5	1	475658.6	-20.52731	-4.10689E-009	0.0006063	5
	37	252	54.50582	479837.3	-213701.6	1	525273.4	-24.00641	-3.84684E-009	0.0005635	5
	38	255	45.95588	496151.5	-231209.9	1	547379.5	-24.98583	-4.341421E-009	0.0005772	5
	39	258	37.20238	526580.9	-265267.6	1	589622.2	-26.7369	-3.844801E-009	0.0005915	5
	40	261	30.04808	567256.4	-301200.7	1	642262.9	-27.96732	-3.859471E-009	0.0007114	5
	41	263	23.91582	610747	-345501.8	1	701700.4	-29.497	-3.050241E-009	0.0006571	5
	42	266	18.60119	623607.4	-404783.4	1	743462	-32.98759	-1.160827E-009	0.0006043	5
	43	269	15.02404	713538.7	-413674.7	1	824781.3	-30.10306	-3.936421E-009	0.000603	5
	44	271	12.01923	769981.9	-455504.9	1	894626.7	-30.60766	-3.353403E-009	0.0006275	5
	45	274	9.450605	837187.4	-505541.2	1	977985	-31.12596	-3.631935E-009	0.0005931	5
	46	276	7.512019	903346.8	-555687.9	1	1060577	-31.59748	-3.944602E-009	0.000692	5
	47	279	5.978954	984331	-612647.5	1	1159416	-31.89812	-3.774983E-009	0.0006691	5
	48	284	4.734848	1068800	-677200.3	1	1265280	-32.35868	-3.593604E-009	0.0006116	5
	49	289	3.75601	1171177	-742395.9	1	1386654	-32.37014	-3.520402E-009	0.0005885	5
	50	294	3.004808	1267146	-819805.9	1	1509218	-32.90168	-3.658549E-009	0.0007089	5
	51	301	2.372217	1386914	-909644	1	1658608	-33.25993	-3.460678E-009	0.0006798	5
	52	305	1.878005	1507724	-1005514	1	1812261	-33.69966	-3.612633E-009	0.0005967	5
	53	309	1.512097	1632561	-1106456	1	1972181	-34.12716	-3.561796E-009	0.0007244	5
	54	315	1.201923	1779141	-1233130	1	2164706	-34.72599	-3.436455E-009	0.0006055	5
	55	321	0.956633	1936973	-1379356	1	2377916	-35.45541	-3.762025E-009	-1.990962E-005	5
