EXPLAIN
TAG	EISPOT
TITLE	LABEL	Potentiostatic EIS	Test Identifier
DATE	LABEL	9/7/2020	Date
TIME	LABEL	17:35:34	Time
NOTES	NOTES	1	Notes...
	
PSTAT	PSTAT	REF3000-16137	Potentiostat
VDC	POTEN	0.00000E+000	T	DC Voltage (V)
FREQINIT	QUANT	3.00000E+005	Initial Freq. (Hz)
FREQFINAL	QUANT	1.00000E+000	Final Freq. (Hz)
PTSPERDEC	QUANT	1.00000E+001	Points/decade
VAC	QUANT	5.00000E+001	AC Voltage (mV rms)
AREA	QUANT	1.00000E+000	Sample Area (cm^2)
SPEED	SELECTOR	2	Optimize for:
ZGUESS	QUANT	1.00000E+003	Estimated Z (ohms)
EOC	QUANT	0	Open Circuit (V)
SEQUENCER	TOGGLE	TRUE	Run as Sequence
PSTATMODEL	IQUANT	5	Pstat Model
PSTATSECTION	LABEL	REF3000-16137	Pstat Section
PSTATSERIALNO	LABEL	16137	Pstat Serial Number
CTRLMODE	IQUANT	1	Control Mode
IESTAB	IQUANT	0	I/E Stability
CASPEED	IQUANT	1	Control Amp Speed
CONVENTION	IQUANT	1	Current Convention
ICHRANGE	IQUANT	2	Ich Range
ICHRANGEMODE	TOGGLE	F	Ich Auto Range
ICHOFFSETENABLE	TOGGLE	T	Ich Offset Enable
ICHOFFSET	QUANT	0	Ich Offset (V)
ICHFILTER	IQUANT	3	Ich Filter
VCHRANGE	IQUANT	2	Vch Range
VCHRANGEMODE	TOGGLE	F	Vch Auto Range
VCHOFFSETENABLE	TOGGLE	T	Vch Offset Enable
VCHOFFSET	QUANT	0	Vch Offset (V)
VCHFILTER	IQUANT	3	Vch Filter
ACHRANGE	IQUANT	2	Ach Range
ACHOFFSETENABLE	TOGGLE	F	Ach Offset Enable
ACHOFFSET	QUANT	0	Ach Offset (V)
ACHFILTER	IQUANT	3	Ach Filter
IERANGELOWERLIMIT	IQUANT	2	I/E Range Lower Limit
IERANGEMODE	TOGGLE	F	I/E AutoRange
IERANGE	IQUANT	11	I/E Range
POSFEEDENABLE	TOGGLE	F	Positive Feedback IR Comp
POSFEEDRESISTANCE	QUANT	0	Positive Feedback Resistance (ohm)
ACHSELECT	IQUANT	0	Ach Select
CABLEID	IQUANT	13	Cable ID
DCCALDATE	LABEL	7/31/2020	DC Calibration Date
ACCALDATE	LABEL	7/31/2020	AC Calibration Date
THERMOSELECT	IQUANT	1	Thermo Select
FRAMEWORKVERSION	QUANT	6.33	Framework Version
INSTRUMENTVERSION	LABEL	3.50	Instrument Version
COMPLIANCEVOLTAGE	IQUANT	0	Compliance Voltage
ZCURVE	TABLE
	Pt	Time	Freq	Zreal	Zimag	Zsig	Zmod	Zphz	Idc	Vdc	IERange
	#	s	Hz	ohm	ohm	V	ohm	°	A	V	#
	0	23	300046.9	1581.869	-2278.22	1	2773.553	-55.22604	0.000116	-0.002888	9
	1	46	238359.4	1981.001	-2369.203	1	3088.282	-50.09943	-5.898142E-005	0.0046908	9
	2	70	189328.1	2443.179	-2523.359	1	3512.33	-45.9249	-9.432599E-005	0.0017701	9
	3	79	150421.9	2882.57	-2606.102	1	3885.998	-42.11641	9.158346E-005	-0.0013477	9
	4	87	119484.4	3346.257	-2577.977	1	4224.146	-37.61088	-2.567562E-005	-0.0010993	9
	5	96	94921.88	4151.094	-2538.202	1	4865.599	-31.44386	-2.590497E-005	0.0020516	8
	6	103	75421.88	4521.865	-2499.675	1	5166.782	-28.9337	-1.100887E-005	0.0114529	8
	7	111	59859.37	4895.25	-2435.709	1	5467.737	-26.45337	-2.723045E-005	0.0131409	8
	8	118	47578.12	5230.809	-2372.5	1	5743.702	-24.39727	2.280445E-005	0.0001847	8
	9	126	37828.12	5553.427	-2347.987	1	6029.394	-22.91862	2.734602E-007	0.0086141	8
	10	133	30046.88	8903.599	-1510.63	1	9030.84	-9.6294	8.179123E-006	-0.0232573	7
	11	140	23859.38	8693.595	-1159.831	1	8770.621	-7.599082	7.687E-006	-0.0155029	7
	12	144	18984.38	8578.456	-960.979	1	8632.114	-6.39176	1.567372E-006	0.0140213	7
	13	148	15046.87	8416.135	-1036.036	1	8479.664	-7.01787	-5.397532E-006	-0.0014221	7
	14	152	11953.13	8524.884	-1269.072	1	8618.827	-8.467252	-5.721186E-006	0.0302597	7
	15	157	9515.62	8457.345	-1415.33	1	8574.954	-9.50037	-7.423992E-006	0.0314917	7
	16	161	7546.875	8697.245	-1733.692	1	8868.357	-11.27346	-8.800224E-006	0.0180224	7
	17	165	5928.309	8886.865	-2061.786	1	9122.901	-13.06175	-2.074327E-007	-0.019862	7
	18	169	4733.456	9092.777	-2373.373	1	9397.42	-14.6288	-9.161578E-006	0.025315	7
	19	174	3796.875	9355.659	-2703.221	1	9738.37	-16.1161	-8.722832E-006	0.030044	7
	20	178	2987.132	9869.23	-3053.521	1	10330.81	-17.19197	-8.65047E-006	0.0300402	7
	21	182	2390.625	10501.5	-3293.525	1	11005.86	-17.41269	5.394745E-006	-0.031735	7
	22	186	1884.191	11009.99	-3704.98	1	11616.66	-18.59864	-2.908207E-006	-0.0112781	7
	23	191	1516.544	11567.99	-4138.304	1	12285.92	-19.68403	8.457296E-006	-0.0240772	7
	24	195	1193.986	11988.92	-4430.609	1	12781.41	-20.28223	-2.573431E-005	0.0020743	8
	25	202	946.5144	12411.81	-4978.733	1	13373.14	-21.85713	-2.607933E-005	0.0021475	8
	26	207	751.7689	12945.76	-5325.355	1	13998.29	-22.36025	3.654249E-005	-0.0112991	8
	27	210	597.4265	14654.09	-5026.605	1	15492.22	-18.93286	5.071651E-006	-0.0310365	7
	28	214	477.4305	15567.04	-5252.625	1	16429.33	-18.6454	-4.215975E-007	0.0005438	7
	29	216	376.6741	16440.4	-5359.847	1	17292.04	-18.05684	-4.229153E-007	0.0005499	7
	30	219	298.2954	17240.75	-5416.143	1	18071.47	-17.43999	-4.239631E-007	0.0006468	7
	31	221	237.7717	18101.97	-5491.16	1	18916.51	-16.87496	-4.160163E-007	0.0005364	7
	32	223	189.0121	18933.33	-5538.944	1	19726.91	-16.30683	-4.24594E-007	0.0005641	7
	33	226	150.2404	19709.39	-5637.13	1	20499.69	-15.96118	-4.160246E-007	0.0005862	7
	34	229	119.1737	20295.53	-5698.462	1	21080.35	-15.68337	-4.099948E-007	0.0005386	7
	35	231	95.0169	21332.38	-5781.081	1	22101.84	-15.16298	-4.193619E-007	0.0005479	7
	36	234	75.60484	22140.99	-5896.917	1	22912.82	-14.91367	-4.161448E-007	0.0005396	7
	37	236	54.50582	23287.34	-5934.736	1	24031.67	-14.29738	-4.184287E-007	0.0006267	7
	38	239	45.95588	23726.53	-6219.629	1	24528.19	-14.68891	-7.552444E-007	0.0006007	8
	39	242	37.20238	24595.63	-6459.661	1	25429.75	-14.71552	-4.243039E-007	0.0006077	7
	40	246	30.04808	25332.92	-6701.85	1	26204.42	-14.81818	-4.114174E-007	0.0006369	7
	41	249	23.91582	26193.6	-7088.625	1	27135.83	-15.14291	-4.170693E-007	0.0006473	7
	42	251	18.60119	27193.89	-7695.944	1	28261.9	-15.80166	-4.180828E-007	0.0006109	7
	43	253	15.02404	28019.27	-8090.936	1	29164.07	-16.10677	-3.983968E-007	0.0005513	7
	44	256	12.01923	28950.5	-8664.994	1	30219.42	-16.66264	-4.062338E-007	0.0005705	7
	45	258	9.450605	30102.73	-9450.407	1	31551.3	-17.42908	-4.109265E-007	0.0005505	7
	46	261	7.512019	31217.74	-10204.72	1	32843.32	-18.10198	-4.208957E-007	0.0006483	7
	47	264	5.978954	32404.38	-10977.63	1	34213.33	-18.71484	-4.060423E-007	0.0005415	7
	48	268	4.734848	33836.97	-11891.87	1	35865.82	-19.36382	-4.209988E-007	0.0006287	7
	49	272	3.75601	35326.8	-12661.17	1	37527.17	-19.71774	-4.170963E-007	0.0006235	7
	50	277	3.004808	36901.93	-13360.99	1	39246.26	-19.90367	-4.071255E-007	0.0005262	7
	51	284	2.372217	38960.6	-14225.26	1	41476.33	-20.0581	-4.209713E-007	0.0005789	7
	52	291	1.878005	40557.91	-14622.17	1	43113.25	-19.82554	-4.153943E-007	0.0005959	7
	53	300	1.512097	42387.79	-15090.2	1	44993.77	-19.59591	-4.10489E-007	0.0004817	7
	54	310	1.201923	44790.59	-15691.32	1	47459.61	-19.30669	-3.227342E-007	0.0006889	6
	55	323	0.956633	47091.53	-16145.75	1	49782.5	-18.92474	-3.307396E-007	3.346856E-005	6
