EXPLAIN
TAG	EISPOT
TITLE	LABEL	Potentiostatic EIS	Test Identifier
DATE	LABEL	9/7/2020	Date
TIME	LABEL	18:12:22	Time
NOTES	NOTES	1	Notes...
	
PSTAT	PSTAT	REF3000-16137	Potentiostat
VDC	POTEN	0.00000E+000	T	DC Voltage (V)
FREQINIT	QUANT	3.00000E+005	Initial Freq. (Hz)
FREQFINAL	QUANT	1.00000E+000	Final Freq. (Hz)
PTSPERDEC	QUANT	1.00000E+001	Points/decade
VAC	QUANT	5.00000E+001	AC Voltage (mV rms)
AREA	QUANT	1.00000E+000	Sample Area (cm^2)
SPEED	SELECTOR	2	Optimize for:
ZGUESS	QUANT	1.00000E+003	Estimated Z (ohms)
EOC	QUANT	0	Open Circuit (V)
SEQUENCER	TOGGLE	TRUE	Run as Sequence
PSTATMODEL	IQUANT	5	Pstat Model
PSTATSECTION	LABEL	REF3000-16137	Pstat Section
PSTATSERIALNO	LABEL	16137	Pstat Serial Number
CTRLMODE	IQUANT	1	Control Mode
IESTAB	IQUANT	0	I/E Stability
CASPEED	IQUANT	1	Control Amp Speed
CONVENTION	IQUANT	1	Current Convention
ICHRANGE	IQUANT	2	Ich Range
ICHRANGEMODE	TOGGLE	F	Ich Auto Range
ICHOFFSETENABLE	TOGGLE	T	Ich Offset Enable
ICHOFFSET	QUANT	0	Ich Offset (V)
ICHFILTER	IQUANT	3	Ich Filter
VCHRANGE	IQUANT	2	Vch Range
VCHRANGEMODE	TOGGLE	F	Vch Auto Range
VCHOFFSETENABLE	TOGGLE	T	Vch Offset Enable
VCHOFFSET	QUANT	0	Vch Offset (V)
VCHFILTER	IQUANT	3	Vch Filter
ACHRANGE	IQUANT	2	Ach Range
ACHOFFSETENABLE	TOGGLE	F	Ach Offset Enable
ACHOFFSET	QUANT	0	Ach Offset (V)
ACHFILTER	IQUANT	3	Ach Filter
IERANGELOWERLIMIT	IQUANT	2	I/E Range Lower Limit
IERANGEMODE	TOGGLE	F	I/E AutoRange
IERANGE	IQUANT	11	I/E Range
POSFEEDENABLE	TOGGLE	F	Positive Feedback IR Comp
POSFEEDRESISTANCE	QUANT	0	Positive Feedback Resistance (ohm)
ACHSELECT	IQUANT	0	Ach Select
CABLEID	IQUANT	13	Cable ID
DCCALDATE	LABEL	7/31/2020	DC Calibration Date
ACCALDATE	LABEL	7/31/2020	AC Calibration Date
THERMOSELECT	IQUANT	1	Thermo Select
FRAMEWORKVERSION	QUANT	6.33	Framework Version
INSTRUMENTVERSION	LABEL	3.50	Instrument Version
COMPLIANCEVOLTAGE	IQUANT	0	Compliance Voltage
ZCURVE	TABLE
	Pt	Time	Freq	Zreal	Zimag	Zsig	Zmod	Zphz	Idc	Vdc	IERange
	#	s	Hz	ohm	ohm	V	ohm	°	A	V	#
	0	26	300046.9	811.8973	-3927.142	1	4010.19	-78.31924	0.0000953	-0.003118	9
	1	43	238359.4	1327.66	-4753.818	1	4935.733	-74.39587	8.607703E-005	-0.0037001	9
	2	59	189328.1	1807.698	-5713.322	1	5992.48	-72.4426	3.753795E-005	0.000708	9
	3	69	150421.9	2633.878	-6645.311	1	7148.25	-68.37904	2.157371E-005	-0.0018493	9
	4	78	119484.4	3858.355	-7769.398	1	8674.701	-63.59058	1.396054E-005	-0.0092001	8
	5	85	94921.88	5202.281	-8985.288	1	10382.64	-59.93011	4.415627E-006	-0.0069359	8
	6	94	75421.88	6908.297	-10064.44	1	12207.27	-55.53404	1.245388E-005	0.0025847	8
	7	102	59859.37	8605.118	-11128.04	1	14067.03	-52.28584	2.450629E-005	-0.0094548	8
	8	111	47578.12	11000.02	-11471.44	1	15893.22	-46.20181	-2.31407E-005	0.0041968	8
	9	118	37828.12	13196.56	-11992.31	1	17831.56	-42.26285	1.240113E-005	0.0025546	8
	10	126	30046.88	17941.21	-11916.32	1	21538.01	-33.5916	-6.855316E-006	0.0138496	7
	11	133	23859.38	20052	-11762.69	1	23247.44	-30.39628	2.900841E-006	-0.0229266	7
	12	137	18984.38	21623.53	-11358.52	1	24425.25	-27.71228	3.15849E-006	0.0056444	7
	13	142	15046.87	20665.95	-11669.32	1	23732.98	-29.45186	2.71504E-005	-0.0061717	8
	14	148	11953.13	22776.53	-11493.37	1	25512.11	-26.77619	-2.16366E-005	0.0109181	8
	15	156	9515.62	24646.64	-10969.96	1	26977.71	-23.99335	2.082007E-005	-0.0100726	8
	16	163	7546.875	24809.18	-11114.71	1	27185.15	-24.13276	2.046672E-005	-0.0011652	8
	17	170	5928.309	27344.58	-10895.9	1	29435.46	-21.72563	-2.195557E-005	0.000398	9
	18	176	4733.456	28470.11	-12205.48	1	30976.14	-23.20539	1.276504E-005	-0.0087852	8
	19	182	3796.875	31605.59	-11708.89	1	33704.77	-20.3281	3.037765E-006	-0.0229248	7
	20	188	2987.132	32820.71	-12675.7	1	35183.41	-21.11707	6.297726E-006	-0.0265882	7
	21	193	2390.625	33994.37	-13368.22	1	36528.43	-21.46714	6.329676E-006	-0.0266415	7
	22	198	1884.191	32817.81	-13983.35	1	35672.72	-23.07838	1.216535E-005	0.0026952	8
	23	205	1516.544	37612.81	-16741.87	1	41170.54	-23.99437	7.266003E-006	-0.0247676	7
	24	210	1193.986	40401.45	-17974.96	1	44219.64	-23.9847	3.230154E-006	0.0058295	7
	25	216	946.5144	43767.73	-20646.5	1	48393.1	-25.2546	5.233138E-006	-0.0031768	7
	26	220	751.7689	47326.51	-23948.82	1	53040.97	-26.84096	-7.245438E-006	0.0199722	7
	27	223	597.4265	50271.6	-23191.56	1	55363.19	-24.76507	4.698232E-006	-0.0258168	7
	28	227	477.4305	51996.3	-29475.33	1	59769.64	-29.54776	-1.21076E-007	0.0006358	7
	29	230	376.6741	60837.1	-28395.67	1	67137.67	-25.02078	-3.963101E-008	0.0006576	6
	30	233	298.2954	64868.96	-32022.16	1	72342.25	-26.27297	-3.869532E-008	0.0006128	6
	31	235	237.7717	69808.02	-35638.81	1	78379.1	-27.0455	-3.975993E-008	0.0006252	6
	32	238	189.0121	75058.87	-39389.24	1	84766.42	-27.6895	-4.077416E-008	0.0006913	6
	33	240	150.2404	81111.91	-43757.69	1	92162.23	-28.34567	-3.926398E-008	0.0006421	6
	34	243	119.1737	90089.48	-49886.93	1	102979.7	-28.97543	-3.962526E-008	0.0005952	6
	35	246	95.0169	93955.04	-52009.31	1	107389.6	-28.96695	-4.070491E-008	0.0007202	6
	36	248	75.60484	101257	-56710.74	1	116056.4	-29.25175	-3.873397E-008	0.0006812	6
	37	251	54.50582	114463.8	-64025.08	1	131153.2	-29.22038	-3.99116E-008	0.0006827	6
	38	254	45.95588	120185.1	-67695.23	1	137938.8	-29.39074	-3.891128E-008	0.0006234	6
	39	257	37.20238	129244.1	-71214.7	1	147565.5	-28.85518	-4.01173E-008	0.0006603	6
	40	259	30.04808	139876.6	-76952.34	1	159646.8	-28.81716	-3.86949E-008	0.0005916	6
	41	262	23.91582	150940.9	-81804.27	1	171683.1	-28.45602	-3.927345E-008	0.0006835	6
	42	265	18.60119	163316.9	-85239.43	1	184223.1	-27.56126	-4.258533E-008	0.0006127	6
	43	267	15.02404	176143.6	-94561.86	1	199921.3	-28.22892	-4.035213E-008	0.0006413	6
	44	269	12.01923	189185.6	-100612.1	1	214275.5	-28.00479	-3.908355E-008	0.0006029	6
	45	272	9.450605	203708.7	-107720.3	1	230436.3	-27.86969	-3.886858E-008	0.000623	6
	46	275	7.512019	219113.3	-115146	1	247526.2	-27.72234	-3.977004E-008	0.000612	6
	47	278	5.978954	235772.7	-123708.4	1	266256.6	-27.68571	-1.186196E-007	0.0005609	7
	48	283	4.734848	253797.1	-133100.7	1	286581.2	-27.6742	-1.281135E-007	0.0006209	7
	49	290	3.75601	273748.7	-142872	1	308789.2	-27.56047	-4.014174E-008	0.0006374	6
	50	297	3.004808	295145.2	-154503.9	1	333139.8	-27.63136	-1.196411E-007	0.0005676	7
	51	304	2.372217	320920.8	-166863.2	1	361709.2	-27.47223	-4.189131E-008	0.0006093	6
	52	309	1.878005	347974.6	-177633.8	1	390691.8	-27.04337	-4.188843E-008	0.0006544	6
	53	318	1.512097	377687.4	-189027.2	1	422349.4	-26.58732	-4.179516E-008	0.0005371	6
	54	328	1.201923	412722.2	-200597.8	1	458889	-25.92141	-4.152497E-008	0.000647	6
	55	341	0.956633	451938.5	-209200.5	1	498009.3	-24.83923	-3.335554E-008	2.091313E-005	5
