EXPLAIN
TAG	EISPOT
TITLE	LABEL	Potentiostatic EIS	Test Identifier
DATE	LABEL	9/7/2020	Date
TIME	LABEL	18:23:50	Time
NOTES	NOTES	1	Notes...
	
PSTAT	PSTAT	REF3000-16137	Potentiostat
VDC	POTEN	0.00000E+000	T	DC Voltage (V)
FREQINIT	QUANT	3.00000E+005	Initial Freq. (Hz)
FREQFINAL	QUANT	1.00000E+000	Final Freq. (Hz)
PTSPERDEC	QUANT	1.00000E+001	Points/decade
VAC	QUANT	5.00000E+001	AC Voltage (mV rms)
AREA	QUANT	1.00000E+000	Sample Area (cm^2)
SPEED	SELECTOR	2	Optimize for:
ZGUESS	QUANT	1.00000E+003	Estimated Z (ohms)
EOC	QUANT	0	Open Circuit (V)
SEQUENCER	TOGGLE	TRUE	Run as Sequence
PSTATMODEL	IQUANT	5	Pstat Model
PSTATSECTION	LABEL	REF3000-16137	Pstat Section
PSTATSERIALNO	LABEL	16137	Pstat Serial Number
CTRLMODE	IQUANT	1	Control Mode
IESTAB	IQUANT	0	I/E Stability
CASPEED	IQUANT	1	Control Amp Speed
CONVENTION	IQUANT	1	Current Convention
ICHRANGE	IQUANT	2	Ich Range
ICHRANGEMODE	TOGGLE	F	Ich Auto Range
ICHOFFSETENABLE	TOGGLE	T	Ich Offset Enable
ICHOFFSET	QUANT	0	Ich Offset (V)
ICHFILTER	IQUANT	3	Ich Filter
VCHRANGE	IQUANT	2	Vch Range
VCHRANGEMODE	TOGGLE	F	Vch Auto Range
VCHOFFSETENABLE	TOGGLE	T	Vch Offset Enable
VCHOFFSET	QUANT	0	Vch Offset (V)
VCHFILTER	IQUANT	3	Vch Filter
ACHRANGE	IQUANT	2	Ach Range
ACHOFFSETENABLE	TOGGLE	F	Ach Offset Enable
ACHOFFSET	QUANT	0	Ach Offset (V)
ACHFILTER	IQUANT	3	Ach Filter
IERANGELOWERLIMIT	IQUANT	2	I/E Range Lower Limit
IERANGEMODE	TOGGLE	F	I/E AutoRange
IERANGE	IQUANT	11	I/E Range
POSFEEDENABLE	TOGGLE	F	Positive Feedback IR Comp
POSFEEDRESISTANCE	QUANT	0	Positive Feedback Resistance (ohm)
ACHSELECT	IQUANT	0	Ach Select
CABLEID	IQUANT	13	Cable ID
DCCALDATE	LABEL	7/31/2020	DC Calibration Date
ACCALDATE	LABEL	7/31/2020	AC Calibration Date
THERMOSELECT	IQUANT	1	Thermo Select
FRAMEWORKVERSION	QUANT	6.33	Framework Version
INSTRUMENTVERSION	LABEL	3.50	Instrument Version
COMPLIANCEVOLTAGE	IQUANT	0	Compliance Voltage
ZCURVE	TABLE
	Pt	Time	Freq	Zreal	Zimag	Zsig	Zmod	Zphz	Idc	Vdc	IERange
	#	s	Hz	ohm	ohm	V	ohm	°	A	V	#
	0	18	300046.9	495.7309	-4145.283	1	4174.82	-83.18044	7.054446E-006	0.0012999	9
	1	41	238359.4	1100.179	-5082.38	1	5200.094	-77.78568	2.43359E-005	-0.0020296	9
	2	60	189328.1	1095.182	-6201.447	1	6297.41	-79.98477	8.327301E-005	-0.0018792	9
	3	76	150421.9	1727.792	-7691.086	1	7882.771	-77.33878	6.774949E-006	0.00152	9
	4	84	119484.4	2937.294	-9267.821	1	9722.15	-72.41479	1.087704E-005	0.0130472	8
	5	91	94921.88	4023.676	-11042.11	1	11752.37	-69.97858	2.461898E-005	-0.0036875	8
	6	100	75421.88	5627.558	-13260.64	1	14405.34	-67.00457	-2.494286E-005	0.006058	8
	7	108	59859.37	7431.648	-15091.85	1	16822.4	-63.78307	-2.289107E-005	0.0109375	8
	8	117	47578.12	10547.24	-17732.01	1	20631.74	-59.25524	-2.370192E-005	0.0111873	8
	9	125	37828.12	13637.73	-19613.87	1	23889.15	-55.1887	-2.489684E-005	0.00601	8
	10	134	30046.88	17652.46	-21406.2	1	27745.89	-50.48956	2.711185E-005	-0.007974	8
	11	144	23859.38	20782.25	-22376.08	1	30538.35	-47.11496	-2.32091E-006	-0.0047578	8
	12	151	18984.38	28908.05	-23214.48	1	37075.43	-38.76606	7.154612E-006	-0.0243284	7
	13	157	15046.87	32955.43	-23266.56	1	40340.96	-35.22212	-7.444238E-006	0.02023	7
	14	162	11953.13	34531.25	-23269.85	1	41640.04	-33.97516	-4.074493E-006	-0.0043137	8
	15	168	9515.62	38481.02	-22001.97	1	44326.91	-29.75927	-1.191823E-005	-0.0013496	8
	16	175	7546.875	43868.97	-22078.06	1	49111.38	-26.71487	-7.272113E-006	0.0195885	7
	17	180	5928.309	48072.62	-21243.47	1	52557.23	-23.84081	-5.552116E-006	0.0051681	7
	18	185	4733.456	49728.3	-22087.18	1	54412.75	-23.94874	6.641194E-006	-0.0114555	7
	19	191	3796.875	52461.97	-21844.02	1	56827.98	-22.60578	-6.764952E-006	0.0131802	7
	20	196	2987.132	55434.46	-21842.04	1	59582.33	-21.50521	-5.523872E-006	0.0050575	7
	21	202	2390.625	57558.95	-23569.03	1	62197.52	-22.26794	-6.794816E-006	0.0132339	7
	22	207	1884.191	60862.75	-23470.95	1	65231.59	-21.0885	7.450769E-006	-0.0193121	7
	23	212	1516.544	62820.13	-25411.32	1	67765.06	-22.02378	-1.308264E-006	0.0204448	7
	24	218	1193.986	66605.21	-25165.55	1	71200.84	-20.69814	8.767088E-007	0.0144421	7
	25	223	946.5144	82065.22	-24286.22	1	85583.41	-16.48549	-5.454152E-007	0.0263936	6
	26	226	751.7689	83197.15	-28161.19	1	87834.04	-18.70031	-1.924356E-007	0.0212362	6
	27	229	597.4265	85974.55	-32540.59	1	91926.68	-20.7312	-3.721898E-007	0.0244783	6
	28	231	477.4305	89929.17	-37448.07	1	97414.6	-22.60769	-2.279244E-008	0.0006582	6
	29	234	376.6741	95091.6	-43399.92	1	104527.3	-24.53202	-2.188377E-008	0.0005987	6
	30	236	298.2954	100828.3	-49542.99	1	112342.6	-26.16766	-2.417141E-008	0.0005883	6
	31	238	237.7717	108240.7	-55599.5	1	121685.5	-27.188	-2.331837E-008	0.0006123	6
	32	241	189.0121	116342.8	-62756.92	1	132189.6	-28.34303	-2.310298E-008	0.0006582	6
	33	244	150.2404	125097.1	-70445.89	1	143568.5	-29.38515	-2.321943E-008	0.0006835	6
	34	247	119.1737	129244.3	-72186.25	1	148036.9	-29.18448	-2.240378E-008	0.0006329	6
	35	249	95.0169	147057.8	-85247.01	1	169979.6	-30.10016	-2.275019E-008	0.0006777	6
	36	252	75.60484	160135.5	-92504.66	1	184933.7	-30.01353	-2.260862E-008	0.0005904	6
	37	255	54.50582	176087.5	-105880.8	1	205469.1	-31.01835	-2.164864E-008	0.0005822	6
	38	258	45.95588	188035	-111345.6	1	218529.2	-30.63206	-2.300964E-008	0.0006771	6
	39	260	37.20238	205096.6	-121274.1	1	238268.8	-30.59593	-2.123207E-008	0.0005876	6
	40	263	30.04808	218972	-133729.6	1	256578.2	-31.41305	-1.069006E-007	0.0006247	7
	41	267	23.91582	237715.8	-144389.2	1	278131.3	-31.2746	-1.04234E-007	0.0005495	7
	42	271	18.60119	260632.9	-167522.1	1	309827.7	-32.73093	-1.935409E-008	0.0006326	6
	43	275	15.02404	281552.4	-170850.2	1	329335	-31.25	-1.007992E-007	0.0005848	7
	44	278	12.01923	305444.6	-184572.1	1	356879.9	-31.14346	-2.193823E-008	0.0006565	6
	45	282	9.450605	331415.1	-201864.7	1	388053.2	-31.34556	-2.27163E-008	0.0006005	6
	46	286	7.512019	359190.2	-219015.9	1	420696.5	-31.37271	-2.3183E-008	0.0006535	6
	47	290	5.978954	393478.5	-230776.4	1	456161.2	-30.39176	-1.335209E-008	0.0006809	5
	48	295	4.734848	426145.6	-254680.9	1	496449.8	-30.86416	-1.333121E-008	0.0006029	5
	49	299	3.75601	460743.6	-279686.6	1	538989.1	-31.25913	-1.34597E-008	0.0005685	5
	50	305	3.004808	497931.1	-308319	1	585658.6	-31.7658	-1.371162E-008	0.000743	5
	51	311	2.372217	541109.8	-341842.8	1	640044	-32.2824	-1.363877E-008	0.0006952	5
	52	315	1.878005	589961.9	-379801.5	1	701644	-32.77234	-1.404614E-008	0.0006127	5
	53	320	1.512097	641225.1	-418755.7	1	765849.8	-33.14677	-1.395531E-008	0.0006218	5
	54	326	1.201923	706835.3	-463725.2	1	845373.9	-33.26721	-1.385074E-008	0.0006667	5
	55	338	0.956633	783367.5	-511893.9	1	935788.4	-33.16273	-1.418917E-008	-3.986E-006	5
