EXPLAIN
TAG	EISPOT
TITLE	LABEL	Potentiostatic EIS	Test Identifier
DATE	LABEL	9/7/2020	Date
TIME	LABEL	18:06:49	Time
NOTES	NOTES	1	Notes...
	
PSTAT	PSTAT	REF3000-16137	Potentiostat
VDC	POTEN	0.00000E+000	T	DC Voltage (V)
FREQINIT	QUANT	3.00000E+005	Initial Freq. (Hz)
FREQFINAL	QUANT	1.00000E+000	Final Freq. (Hz)
PTSPERDEC	QUANT	1.00000E+001	Points/decade
VAC	QUANT	5.00000E+001	AC Voltage (mV rms)
AREA	QUANT	1.00000E+000	Sample Area (cm^2)
SPEED	SELECTOR	2	Optimize for:
ZGUESS	QUANT	1.00000E+003	Estimated Z (ohms)
EOC	QUANT	0	Open Circuit (V)
SEQUENCER	TOGGLE	TRUE	Run as Sequence
PSTATMODEL	IQUANT	5	Pstat Model
PSTATSECTION	LABEL	REF3000-16137	Pstat Section
PSTATSERIALNO	LABEL	16137	Pstat Serial Number
CTRLMODE	IQUANT	1	Control Mode
IESTAB	IQUANT	0	I/E Stability
CASPEED	IQUANT	1	Control Amp Speed
CONVENTION	IQUANT	1	Current Convention
ICHRANGE	IQUANT	2	Ich Range
ICHRANGEMODE	TOGGLE	F	Ich Auto Range
ICHOFFSETENABLE	TOGGLE	T	Ich Offset Enable
ICHOFFSET	QUANT	0	Ich Offset (V)
ICHFILTER	IQUANT	3	Ich Filter
VCHRANGE	IQUANT	2	Vch Range
VCHRANGEMODE	TOGGLE	F	Vch Auto Range
VCHOFFSETENABLE	TOGGLE	T	Vch Offset Enable
VCHOFFSET	QUANT	0	Vch Offset (V)
VCHFILTER	IQUANT	3	Vch Filter
ACHRANGE	IQUANT	2	Ach Range
ACHOFFSETENABLE	TOGGLE	F	Ach Offset Enable
ACHOFFSET	QUANT	0	Ach Offset (V)
ACHFILTER	IQUANT	3	Ach Filter
IERANGELOWERLIMIT	IQUANT	2	I/E Range Lower Limit
IERANGEMODE	TOGGLE	F	I/E AutoRange
IERANGE	IQUANT	11	I/E Range
POSFEEDENABLE	TOGGLE	F	Positive Feedback IR Comp
POSFEEDRESISTANCE	QUANT	0	Positive Feedback Resistance (ohm)
ACHSELECT	IQUANT	0	Ach Select
CABLEID	IQUANT	13	Cable ID
DCCALDATE	LABEL	7/31/2020	DC Calibration Date
ACCALDATE	LABEL	7/31/2020	AC Calibration Date
THERMOSELECT	IQUANT	1	Thermo Select
FRAMEWORKVERSION	QUANT	6.33	Framework Version
INSTRUMENTVERSION	LABEL	3.50	Instrument Version
COMPLIANCEVOLTAGE	IQUANT	0	Compliance Voltage
ZCURVE	TABLE
	Pt	Time	Freq	Zreal	Zimag	Zsig	Zmod	Zphz	Idc	Vdc	IERange
	#	s	Hz	ohm	ohm	V	ohm	°	A	V	#
	0	21	300046.9	985.696	-3795.302	1	3921.213	-75.44109	1.793389E-005	-0.0016702	9
	1	35	238359.4	1593.943	-4748.104	1	5008.507	-71.44305	-8.183228E-005	0.0042095	9
	2	51	189328.1	2023.657	-5118.407	1	5503.933	-68.42772	8.332064E-005	-0.0020214	9
	3	62	150421.9	3068.475	-6133.582	1	6858.306	-63.42237	7.803392E-005	-0.0034746	9
	4	70	119484.4	4209.665	-6787.131	1	7986.641	-58.19107	-3.081478E-005	0.0208136	8
	5	77	94921.88	5302.617	-7727.177	1	9371.606	-55.54094	3.834588E-006	0.0005788	9
	6	86	75421.88	7063.85	-8303.034	1	10901.3	-49.61035	2.955949E-006	-0.0065956	8
	7	95	59859.37	8587.492	-8679.016	1	12209.44	-45.3037	-2.188366E-005	0.0110573	8
	8	104	47578.12	10325.78	-8996.356	1	13695.12	-41.06407	-2.188391E-005	0.0111264	8
	9	112	37828.12	12042.89	-8980.371	1	15022.6	-36.71185	2.406392E-005	-0.0093973	8
	10	121	30046.88	15986.2	-8833.205	1	18264.28	-28.92293	2.003934E-007	-0.016896	7
	11	128	23859.38	17288.63	-8566.925	1	19294.79	-26.35951	-3.991103E-006	-0.0020377	7
	12	132	18984.38	18424.65	-8193.364	1	20164.29	-23.97452	-3.039151E-006	0.0232407	7
	13	137	15046.87	19489.66	-8026.02	1	21077.57	-22.38231	6.985341E-006	-0.0248193	7
	14	141	11953.13	20514.68	-8055.915	1	22039.73	-21.43946	-4.293982E-006	-0.0017124	7
	15	145	9515.62	21364.18	-7766.369	1	22732.02	-19.97736	-5.580567E-006	0.0056554	7
	16	149	7546.875	22461.5	-7887.276	1	23806.05	-19.34854	-2.210487E-006	-0.0099531	7
	17	153	5928.309	23042.57	-8120.871	1	24431.71	-19.41394	-5.997512E-006	0.0254458	7
	18	159	4733.456	24126.19	-8691.825	1	25644.12	-19.81233	-5.739329E-006	0.0063375	7
	19	164	3796.875	24992.85	-9244.531	1	26647.77	-20.29878	4.582183E-007	-0.0172343	7
	20	170	2987.132	24791.28	-11215.33	1	27210.13	-24.34152	-2.641924E-005	0.0086549	8
	21	176	2390.625	26774.13	-12309.25	1	29468.15	-24.69033	1.305073E-005	0.0023181	8
	22	183	1884.191	28510.22	-12434.83	1	31103.98	-23.56458	-2.990221E-006	0.0233764	7
	23	188	1516.544	29789.04	-14037.98	1	32931.02	-25.232	5.246491E-006	-0.0036198	7
	24	193	1193.986	31742.66	-15366.68	1	35266.58	-25.83171	-6.82901E-006	0.0139932	7
	25	199	946.5144	45447.55	-20498.57	1	49856.51	-24.27718	1.468155E-005	0.0002052	9
	26	204	751.7689	36004.19	-19482.02	1	40937.16	-28.41801	4.519084E-007	-0.0174562	7
	27	208	597.4265	40450.93	-22811.58	1	46439.7	-29.42005	6.730115E-006	-0.012523	7
	28	211	477.4305	42871.32	-24225.21	1	49242.36	-29.4694	-1.378093E-007	0.0006321	7
	29	215	376.6741	50245.37	-22831.41	1	55189.41	-24.43697	-5.318006E-008	0.000624	6
	30	217	298.2954	53385.11	-25491.32	1	59158.91	-25.52442	-5.138736E-008	0.0006285	6
	31	219	237.7717	57548.57	-28463.51	1	64202.88	-26.31699	-5.146291E-008	0.0006608	6
	32	222	189.0121	61668.76	-31274.41	1	69145.67	-26.89118	-5.163433E-008	0.0006227	6
	33	224	150.2404	66238.66	-34095.5	1	74498.74	-27.23656	-5.200428E-008	0.0005883	6
	34	227	119.1737	72761.28	-39593.88	1	82836.46	-28.55332	-5.054756E-008	0.0005896	6
	35	230	95.0169	77153.76	-40376.28	1	87080.11	-27.62406	-5.299319E-008	0.0006864	6
	36	232	75.60484	83358.6	-44083.2	1	94297.32	-27.87159	-5.149733E-008	0.0006819	6
	37	235	54.50582	92119.12	-47052.6	1	103440.2	-27.05704	-5.231438E-008	0.0006702	6
	38	238	45.95588	98791.4	-51071.57	1	111211.7	-27.33733	-5.180304E-008	0.0006278	6
	39	240	37.20238	105724.2	-54287.75	1	118847.7	-27.17979	-5.228098E-008	0.000663	6
	40	243	30.04808	113035.9	-56876.23	1	126538.6	-26.71016	-5.167215E-008	0.000624	6
	41	245	23.91582	121683	-59845.61	1	135603.2	-26.18869	-5.295013E-008	0.000663	6
	42	248	18.60119	130906.2	-64171.16	1	145788.8	-26.11442	-5.238557E-008	0.0006083	6
	43	251	15.02404	140484.7	-67520.28	1	155868.3	-25.67005	-5.251142E-008	0.0006377	6
	44	253	12.01923	150046.1	-71023.03	1	166006.4	-25.33013	-5.511964E-008	0.0006902	6
	45	256	9.450605	160802.7	-74920.42	1	177399.5	-24.98153	-5.455205E-008	0.0006037	6
	46	258	7.512019	171930.3	-78989.07	1	189207	-24.67524	-5.497889E-008	0.0006663	6
	47	261	5.978954	183402.6	-83686.86	1	201593.6	-24.52728	-5.575668E-008	0.0006254	6
	48	266	4.734848	195967.3	-88371.28	1	214971.3	-24.27295	-5.389764E-008	0.0006402	6
	49	271	3.75601	209604.4	-93507.22	1	229516	-24.04226	-5.46936E-008	0.0005969	6
	50	276	3.004808	224362.9	-98584.5	1	245066.5	-23.72057	-5.623648E-008	0.0006796	6
	51	282	2.372217	241434.7	-103672.5	1	262752.2	-23.23877	-5.555832E-008	0.0006993	6
	52	290	1.878005	259336.4	-107858.3	1	280871.5	-22.58249	-5.636689E-008	0.0006165	6
	53	299	1.512097	278041.7	-111902.6	1	299715.5	-21.92316	-5.579454E-008	0.000733	6
	54	310	1.201923	299611.3	-115659.6	1	321160.5	-21.10819	-5.534737E-008	0.0006083	6
	55	323	0.956633	321509.3	-117566.8	1	342330.5	-20.08603	-5.74811E-008	5.216993E-007	6
