Z60W Data File: Version 1.1
CorrTest for Windows: SN CS310H1805157  V5.2.1111.9  2.5H6.220118
Sweep Frequency: Control Voltage
  Date:4-30-2026   Time:10:05:20
  Begin Information:            Cell Information
      Surface Area:           1
      Density:                7.8
      Weight:                 28
  End Information:              Cell Information
  Freq (Hz)     Ampl(mV)       Bias(V)      Time(Sec)       Z'(Ohm.cm^2)    Z''(Ohm.cm^2)        GD       Err      Range
End Comments
  3.07200E+05,	1.00000E+01,	-2.35952E-02,	4.98716E-02,	-4.42481E-01,	4.04506E+00,	0.00000E+00,	0,	0
  2.76480E+05,	1.00000E+01,	-2.35952E-02,	1.64416E+00,	1.60016E-01,	2.95639E+00,	0.00000E+00,	0,	0
  1.97486E+05,	1.00000E+01,	-2.35952E-02,	2.54435E+00,	1.03024E+00,	2.11144E+00,	0.00000E+00,	0,	0
  1.53600E+05,	1.00000E+01,	-2.35952E-02,	3.44556E+00,	1.40784E+00,	1.58406E+00,	0.00000E+00,	0,	0
  1.25673E+05,	1.00000E+01,	-2.35952E-02,	4.39798E+00,	1.58588E+00,	1.25164E+00,	0.00000E+00,	0,	0
  9.87429E+04,	1.00000E+01,	-2.35952E-02,	5.29967E+00,	1.76820E+00,	9.38251E-01,	0.00000E+00,	0,	0
  7.68000E+04,	1.00000E+01,	-2.35952E-02,	6.21680E+00,	1.85475E+00,	7.01124E-01,	0.00000E+00,	0,	0
  6.01043E+04,	1.00000E+01,	-2.35952E-02,	9.45535E+00,	1.94020E+00,	4.69536E-01,	0.00000E+00,	0,	0
  4.93714E+04,	1.00000E+01,	-2.35952E-02,	1.10282E+01,	1.95639E+00,	3.36538E-01,	0.00000E+00,	0,	0
  3.84000E+04,	1.00000E+01,	-2.35952E-02,	1.19726E+01,	1.97257E+00,	1.87932E-01,	0.00000E+00,	0,	0
  3.00522E+04,	1.00000E+01,	-2.35952E-02,	1.28929E+01,	1.97970E+00,	5.69816E-02,	0.00000E+00,	0,	0
  2.38345E+04,	1.00000E+01,	-2.35952E-02,	1.37498E+01,	1.99081E+00,	-6.32118E-02,	0.00000E+00,	0,	0
  1.86811E+04,	1.00000E+01,	-2.35952E-02,	1.45965E+01,	2.00763E+00,	-1.86862E-01,	0.00000E+00,	0,	0
  1.47064E+04,	1.00000E+01,	-2.35952E-02,	1.55641E+01,	2.02693E+00,	-3.17636E-01,	0.00000E+00,	0,	0
  1.15200E+04,	1.00000E+01,	-2.35952E-02,	1.65329E+01,	2.05123E+00,	-4.60201E-01,	0.00000E+00,	0,	0
  9.60000E+03,	1.00000E+01,	-2.35952E-02,	1.80963E+01,	2.07385E+00,	-5.78867E-01,	0.00000E+00,	0,	0
  7.51304E+03,	1.00000E+01,	-2.35952E-02,	1.89453E+01,	2.10887E+00,	-7.60181E-01,	0.00000E+00,	0,	0
  5.76000E+03,	1.00000E+01,	-2.35952E-02,	1.98493E+01,	2.15687E+00,	-9.93747E-01,	0.00000E+00,	0,	0
  4.54737E+03,	1.00000E+01,	-2.35952E-02,	2.07484E+01,	2.20867E+00,	-1.24820E+00,	0.00000E+00,	0,	0
  3.60000E+03,	1.00000E+01,	-2.35952E-02,	2.17409E+01,	2.27289E+00,	-1.54607E+00,	0.00000E+00,	0,	0
  2.88000E+03,	1.00000E+01,	-2.35952E-02,	2.26555E+01,	2.34561E+00,	-1.89164E+00,	0.00000E+00,	0,	0
  2.27368E+03,	1.00000E+01,	-2.35952E-02,	2.49794E+01,	2.45122E+00,	-2.31868E+00,	0.00000E+00,	0,	0
  1.78144E+03,	1.00000E+01,	-2.35952E-02,	2.58058E+01,	2.57403E+00,	-2.87465E+00,	0.00000E+00,	0,	0
  1.41639E+03,	1.00000E+01,	-2.35952E-02,	2.67124E+01,	2.71983E+00,	-3.51707E+00,	0.00000E+00,	0,	0
  1.12208E+03,	1.00000E+01,	-2.35952E-02,	2.77816E+01,	2.90547E+00,	-4.30987E+00,	0.00000E+00,	0,	0
  9.00000E+02,	1.00000E+01,	-2.35952E-02,	3.27795E+01,	3.12977E+00,	-5.24097E+00,	0.00000E+00,	0,	0
  7.20000E+02,	1.00000E+01,	-2.35952E-02,	3.41444E+01,	3.40657E+00,	-6.36039E+00,	0.00000E+00,	0,	0
  5.68421E+02,	1.00000E+01,	-2.35952E-02,	3.55019E+01,	3.78009E+00,	-7.80244E+00,	0.00000E+00,	0,	0
  4.40816E+02,	1.00000E+01,	-2.35952E-02,	3.69408E+01,	4.30101E+00,	-9.70433E+00,	0.00000E+00,	0,	0
  3.54098E+02,	1.00000E+01,	-2.35952E-02,	3.92780E+01,	4.87158E+00,	-1.16856E+01,	0.00000E+00,	0,	0
  2.76923E+02,	1.00000E+01,	-2.35952E-02,	4.19247E+01,	5.70084E+00,	-1.43731E+01,	0.00000E+00,	0,	0
  2.20408E+02,	1.00000E+01,	-2.35952E-02,	4.48529E+01,	6.68374E+00,	-1.73735E+01,	0.00000E+00,	0,	0
  1.74194E+02,	1.00000E+01,	-2.35952E-02,	4.81149E+01,	7.95105E+00,	-2.10473E+01,	0.00000E+00,	0,	0
  1.37580E+02,	1.00000E+01,	-2.35952E-02,	5.17917E+01,	9.53145E+00,	-2.54258E+01,	0.00000E+00,	0,	0
  1.09091E+02,	1.00000E+01,	-2.35952E-02,	5.58728E+01,	1.14115E+01,	-3.05343E+01,	0.00000E+00,	0,	0
  8.70968E+01,	1.00000E+01,	-2.35952E-02,	6.40066E+01,	1.36042E+01,	-3.65208E+01,	0.00000E+00,	0,	0
  6.83544E+01,	1.00000E+01,	-2.35952E-02,	6.90268E+01,	1.63358E+01,	-4.42523E+01,	0.00000E+00,	0,	0
  5.45455E+01,	1.00000E+01,	-2.35952E-02,	7.45437E+01,	1.93579E+01,	-5.18004E+01,	0.00000E+00,	0,	0
  4.28571E+01,	1.00000E+01,	-2.35952E-02,	7.80644E+01,	2.28746E+01,	-6.22696E+01,	0.00000E+00,	0,	0
  3.39623E+01,	1.00000E+01,	-2.35952E-02,	8.17930E+01,	2.61892E+01,	-7.44600E+01,	0.00000E+00,	0,	0
  2.68657E+01,	1.00000E+01,	-2.35952E-02,	8.56393E+01,	3.06391E+01,	-8.98313E+01,	0.00000E+00,	0,	0
  2.13439E+01,	1.00000E+01,	-2.35952E-02,	8.94936E+01,	3.55426E+01,	-1.08115E+02,	0.00000E+00,	0,	0
  1.73077E+01,	1.00000E+01,	-2.35952E-02,	9.61660E+01,	4.06816E+01,	-1.28529E+02,	0.00000E+00,	0,	0
  1.36364E+01,	1.00000E+01,	-2.35952E-02,	1.01260E+02,	4.72953E+01,	-1.56582E+02,	0.00000E+00,	0,	0
  1.07143E+01,	1.00000E+01,	-2.35952E-02,	1.04229E+02,	5.52248E+01,	-1.91532E+02,	0.00000E+00,	0,	0
  8.49057E+00,	1.00000E+01,	-2.35952E-02,	1.08436E+02,	6.43562E+01,	-2.33275E+02,	0.00000E+00,	0,	0
  6.71642E+00,	1.00000E+01,	-2.35952E-02,	1.11005E+02,	7.53928E+01,	-2.84797E+02,	0.00000E+00,	0,	0
  5.29412E+00,	1.00000E+01,	-2.35952E-02,	1.13937E+02,	8.89167E+01,	-3.48751E+02,	0.00000E+00,	0,	0
  4.16667E+00,	1.00000E+01,	-2.35952E-02,	1.17444E+02,	1.04967E+02,	-4.28150E+02,	0.00000E+00,	0,	0
  3.30882E+00,	1.00000E+01,	-2.35952E-02,	1.21727E+02,	1.22952E+02,	-5.21824E+02,	0.00000E+00,	0,	0
  2.61628E+00,	1.00000E+01,	-2.35952E-02,	1.25748E+02,	1.44292E+02,	-6.38799E+02,	0.00000E+00,	0,	0
  2.07373E+00,	1.00000E+01,	-2.35952E-02,	1.30549E+02,	1.67882E+02,	-7.81878E+02,	0.00000E+00,	0,	0
  1.64234E+00,	1.00000E+01,	-2.35952E-02,	1.36373E+02,	1.94788E+02,	-9.59413E+02,	0.00000E+00,	0,	0
  1.30058E+00,	1.00000E+01,	-2.35952E-02,	1.40551E+02,	2.25817E+02,	-1.18050E+03,	0.00000E+00,	0,	0
  1.03211E+00,	1.00000E+01,	-2.35952E-02,	1.44998E+02,	2.61695E+02,	-1.45397E+03,	0.00000E+00,	0,	0
  8.15217E-01,	1.00000E+01,	-2.35952E-02,	1.51960E+02,	3.05750E+02,	-1.80141E+03,	0.00000E+00,	0,	0
  6.46552E-01,	1.00000E+01,	-2.35952E-02,	1.61031E+02,	3.58163E+02,	-2.22703E+03,	0.00000E+00,	0,	0
  5.11364E-01,	1.00000E+01,	-2.35952E-02,	1.66119E+02,	4.17846E+02,	-2.76514E+03,	0.00000E+00,	0,	0
  4.07609E-01,	1.00000E+01,	-2.35952E-02,	1.72235E+02,	5.02096E+02,	-3.41243E+03,	0.00000E+00,	0,	0
  3.21429E-01,	1.00000E+01,	-2.35952E-02,	1.79424E+02,	6.13192E+02,	-4.27598E+03,	0.00000E+00,	0,	0
  2.54525E-01,	1.00000E+01,	-2.35952E-02,	1.88193E+02,	7.66077E+02,	-5.30794E+03,	0.00000E+00,	0,	0
  2.01613E-01,	1.00000E+01,	-2.35952E-02,	1.99050E+02,	9.67544E+02,	-6.58635E+03,	0.00000E+00,	0,	0
  1.59574E-01,	1.00000E+01,	-2.35952E-02,	2.12538E+02,	1.23781E+03,	-8.17685E+03,	0.00000E+00,	0,	0
  1.26689E-01,	1.00000E+01,	-2.35952E-02,	2.29440E+02,	1.60022E+03,	-1.01123E+04,	0.00000E+00,	0,	0
  1.00446E-01,	1.00000E+01,	-2.35952E-02,	2.50346E+02,	2.08784E+03,	-1.25144E+04,	0.00000E+00,	0,	0