Z60W Data File: Version 1.1
CorrTest for Windows: SN CS310H1805157  V5.2.1111.9  2.5H6.220118
Sweep Frequency: Control Voltage
  Date:4-30-2026   Time:14:49:13
  Begin Information:            Cell Information
      Surface Area:           1
      Density:                7.8
      Weight:                 28
  End Information:              Cell Information
  Freq (Hz)     Ampl(mV)       Bias(V)      Time(Sec)       Z'(Ohm.cm^2)    Z''(Ohm.cm^2)        GD       Err      Range
End Comments
  3.07200E+05,	1.00000E+01,	-3.65019E-02,	2.41471E-02,	1.57527E+02,	-1.41284E+01,	0.00000E+00,	0,	0
  2.76480E+05,	1.00000E+01,	-3.65019E-02,	1.62265E+00,	1.58444E+02,	-1.56747E+01,	0.00000E+00,	0,	0
  1.97486E+05,	1.00000E+01,	-3.65019E-02,	2.53318E+00,	1.66219E+02,	-1.80303E+01,	0.00000E+00,	0,	0
  1.53600E+05,	1.00000E+01,	-3.65019E-02,	3.43522E+00,	1.70662E+02,	-1.77914E+01,	0.00000E+00,	0,	0
  1.25673E+05,	1.00000E+01,	-3.65019E-02,	4.33134E+00,	1.74063E+02,	-1.68927E+01,	0.00000E+00,	0,	0
  9.87429E+04,	1.00000E+01,	-3.65019E-02,	5.26645E+00,	1.77147E+02,	-1.57787E+01,	0.00000E+00,	0,	0
  7.68000E+04,	1.00000E+01,	-3.65019E-02,	6.18370E+00,	1.79813E+02,	-1.46141E+01,	0.00000E+00,	0,	0
  6.01043E+04,	1.00000E+01,	-3.65019E-02,	7.17297E+00,	1.82437E+02,	-1.29154E+01,	0.00000E+00,	0,	0
  4.93714E+04,	1.00000E+01,	-3.65019E-02,	8.75856E+00,	1.83711E+02,	-1.24450E+01,	0.00000E+00,	0,	0
  3.84000E+04,	1.00000E+01,	-3.65019E-02,	9.66191E+00,	1.85194E+02,	-1.14695E+01,	0.00000E+00,	0,	0
  3.00522E+04,	1.00000E+01,	-3.65019E-02,	1.05347E+01,	1.85085E+02,	-1.19305E+01,	0.00000E+00,	0,	0
  2.38345E+04,	1.00000E+01,	-3.65019E-02,	1.13977E+01,	1.87613E+02,	-1.03541E+01,	0.00000E+00,	0,	0
  1.86811E+04,	1.00000E+01,	-3.65019E-02,	1.22425E+01,	1.89057E+02,	-1.03794E+01,	0.00000E+00,	0,	0
  1.47064E+04,	1.00000E+01,	-3.65019E-02,	1.32161E+01,	1.90907E+02,	-1.04104E+01,	0.00000E+00,	0,	0
  1.15200E+04,	1.00000E+01,	-3.65019E-02,	1.42514E+01,	1.91997E+02,	-1.12404E+01,	0.00000E+00,	0,	0
  9.60000E+03,	1.00000E+01,	-3.65019E-02,	1.58137E+01,	1.93751E+02,	-1.13824E+01,	0.00000E+00,	0,	0
  7.51304E+03,	1.00000E+01,	-3.65019E-02,	1.66896E+01,	1.95277E+02,	-1.15334E+01,	0.00000E+00,	0,	0
  5.76000E+03,	1.00000E+01,	-3.65019E-02,	1.75785E+01,	1.97478E+02,	-1.15662E+01,	0.00000E+00,	0,	0
  4.54737E+03,	1.00000E+01,	-3.65019E-02,	1.84469E+01,	1.99457E+02,	-1.13953E+01,	0.00000E+00,	0,	0
  3.60000E+03,	1.00000E+01,	-3.65019E-02,	1.94311E+01,	2.01876E+02,	-1.11438E+01,	0.00000E+00,	0,	0
  2.88000E+03,	1.00000E+01,	-3.65019E-02,	2.03206E+01,	2.03323E+02,	-1.11710E+01,	0.00000E+00,	0,	0
  2.27368E+03,	1.00000E+01,	-3.65019E-02,	2.26038E+01,	2.04846E+02,	-1.06231E+01,	0.00000E+00,	0,	0
  1.78144E+03,	1.00000E+01,	-3.65019E-02,	2.33986E+01,	2.06406E+02,	-1.04538E+01,	0.00000E+00,	0,	0
  1.41639E+03,	1.00000E+01,	-3.65019E-02,	2.43221E+01,	2.07177E+02,	-1.06798E+01,	0.00000E+00,	0,	0
  1.12208E+03,	1.00000E+01,	-3.65019E-02,	2.53611E+01,	2.07842E+02,	-1.14198E+01,	0.00000E+00,	0,	0
  9.00000E+02,	1.00000E+01,	-3.65019E-02,	3.03454E+01,	2.09811E+02,	-1.18711E+01,	0.00000E+00,	0,	0
  7.20000E+02,	1.00000E+01,	-3.65019E-02,	3.17133E+01,	2.10727E+02,	-1.31122E+01,	0.00000E+00,	0,	0
  5.68421E+02,	1.00000E+01,	-3.65019E-02,	3.31011E+01,	2.11636E+02,	-1.48156E+01,	0.00000E+00,	0,	0
  4.40816E+02,	1.00000E+01,	-3.65019E-02,	3.45559E+01,	2.12748E+02,	-1.72929E+01,	0.00000E+00,	0,	0
  3.54098E+02,	1.00000E+01,	-3.65019E-02,	3.69108E+01,	2.13665E+02,	-1.99833E+01,	0.00000E+00,	0,	0
  2.76923E+02,	1.00000E+01,	-3.65019E-02,	3.95552E+01,	2.15100E+02,	-2.38369E+01,	0.00000E+00,	0,	0
  2.20408E+02,	1.00000E+01,	-3.65019E-02,	4.25304E+01,	2.16667E+02,	-2.83146E+01,	0.00000E+00,	0,	0
  1.74194E+02,	1.00000E+01,	-3.65019E-02,	4.57890E+01,	2.18504E+02,	-3.40451E+01,	0.00000E+00,	0,	0
  1.37580E+02,	1.00000E+01,	-3.65019E-02,	4.94861E+01,	2.20540E+02,	-4.12034E+01,	0.00000E+00,	0,	0
  1.09091E+02,	1.00000E+01,	-3.65019E-02,	5.36015E+01,	2.23023E+02,	-4.98616E+01,	0.00000E+00,	0,	0
  8.70968E+01,	1.00000E+01,	-3.65019E-02,	5.92993E+01,	2.26125E+02,	-6.05254E+01,	0.00000E+00,	0,	0
  6.83544E+01,	1.00000E+01,	-3.65019E-02,	6.43233E+01,	2.30772E+02,	-7.49753E+01,	0.00000E+00,	0,	0
  5.45455E+01,	1.00000E+01,	-3.65019E-02,	6.97955E+01,	2.32262E+02,	-8.78856E+01,	0.00000E+00,	0,	0
  4.28571E+01,	1.00000E+01,	-3.65019E-02,	7.33241E+01,	2.36878E+02,	-1.08013E+02,	0.00000E+00,	0,	0
  3.39623E+01,	1.00000E+01,	-3.65019E-02,	7.70412E+01,	2.40741E+02,	-1.32758E+02,	0.00000E+00,	0,	0
  2.68657E+01,	1.00000E+01,	-3.65019E-02,	8.08902E+01,	2.48479E+02,	-1.62679E+02,	0.00000E+00,	0,	0
  2.13439E+01,	1.00000E+01,	-3.65019E-02,	8.47033E+01,	2.57068E+02,	-1.98538E+02,	0.00000E+00,	0,	0
  1.73077E+01,	1.00000E+01,	-3.65019E-02,	8.83811E+01,	2.66463E+02,	-2.38251E+02,	0.00000E+00,	0,	0
  1.36364E+01,	1.00000E+01,	-3.65019E-02,	9.34191E+01,	2.79671E+02,	-2.93085E+02,	0.00000E+00,	0,	0
  1.07143E+01,	1.00000E+01,	-3.65019E-02,	9.63680E+01,	2.96616E+02,	-3.61323E+02,	0.00000E+00,	0,	0
  8.49057E+00,	1.00000E+01,	-3.65019E-02,	1.00579E+02,	3.17710E+02,	-4.41716E+02,	0.00000E+00,	0,	0
  6.71642E+00,	1.00000E+01,	-3.65019E-02,	1.03108E+02,	3.45110E+02,	-5.40333E+02,	0.00000E+00,	0,	0
  5.29412E+00,	1.00000E+01,	-3.65019E-02,	1.06075E+02,	3.80489E+02,	-6.60563E+02,	0.00000E+00,	0,	0
  4.16667E+00,	1.00000E+01,	-3.65019E-02,	1.09572E+02,	4.26087E+02,	-8.06789E+02,	0.00000E+00,	0,	0
  3.30882E+00,	1.00000E+01,	-3.65019E-02,	1.13809E+02,	4.80572E+02,	-9.75169E+02,	0.00000E+00,	0,	0
  2.61628E+00,	1.00000E+01,	-3.65019E-02,	1.17798E+02,	5.48349E+02,	-1.17850E+03,	0.00000E+00,	0,	0
  2.07373E+00,	1.00000E+01,	-3.65019E-02,	1.22564E+02,	6.28296E+02,	-1.41881E+03,	0.00000E+00,	0,	0
  1.64234E+00,	1.00000E+01,	-3.65019E-02,	1.28390E+02,	7.22106E+02,	-1.70670E+03,	0.00000E+00,	0,	0
  1.30058E+00,	1.00000E+01,	-3.65019E-02,	1.32552E+02,	8.31204E+02,	-2.05140E+03,	0.00000E+00,	0,	0
  1.03211E+00,	1.00000E+01,	-3.65019E-02,	1.36961E+02,	9.55124E+02,	-2.46574E+03,	0.00000E+00,	0,	0
  8.15217E-01,	1.00000E+01,	-3.65019E-02,	1.43945E+02,	1.09436E+03,	-2.97504E+03,	0.00000E+00,	0,	0
  6.46552E-01,	1.00000E+01,	-3.65019E-02,	1.53039E+02,	1.25119E+03,	-3.59119E+03,	0.00000E+00,	0,	0
  5.11364E-01,	1.00000E+01,	-3.65019E-02,	1.58043E+02,	1.39642E+03,	-4.36866E+03,	0.00000E+00,	0,	0
  4.07609E-01,	1.00000E+01,	-3.65019E-02,	1.64118E+02,	1.60483E+03,	-5.27990E+03,	0.00000E+00,	0,	0
  3.21429E-01,	1.00000E+01,	-3.65019E-02,	1.71236E+02,	1.86395E+03,	-6.53776E+03,	0.00000E+00,	0,	0
  2.54525E-01,	1.00000E+01,	-3.65019E-02,	1.80008E+02,	2.17596E+03,	-7.95995E+03,	0.00000E+00,	0,	0
  2.01613E-01,	1.00000E+01,	-3.65019E-02,	1.90847E+02,	2.54467E+03,	-9.71678E+03,	0.00000E+00,	0,	0
  1.59574E-01,	1.00000E+01,	-3.65019E-02,	2.04299E+02,	2.99659E+03,	-1.18768E+04,	0.00000E+00,	0,	0
  1.26689E-01,	1.00000E+01,	-3.65019E-02,	2.38176E+02,	3.56281E+03,	-1.43040E+04,	0.00000E+00,	0,	0
  1.00446E-01,	1.00000E+01,	-3.65019E-02,	2.59046E+02,	4.12627E+03,	-1.78315E+04,	0.00000E+00,	0,	0