Z60W Data File: Version 1.1
CorrTest for Windows: SN CS310H1805157  V5.2.1111.9  2.5H6.220118
Sweep Frequency: Control Voltage
  Date:4-30-2026   Time:13:27:45
  Begin Information:            Cell Information
      Surface Area:           1
      Density:                7.8
      Weight:                 28
  End Information:              Cell Information
  Freq (Hz)     Ampl(mV)       Bias(V)      Time(Sec)       Z'(Ohm.cm^2)    Z''(Ohm.cm^2)        GD       Err      Range
End Comments
  3.07200E+05,	1.00000E+01,	-2.43766E-02,	2.59239E-02,	2.20318E-01,	4.42531E+00,	0.00000E+00,	0,	0
  2.76480E+05,	1.00000E+01,	-2.43766E-02,	1.66282E+00,	7.96747E-01,	3.30459E+00,	0.00000E+00,	0,	0
  1.97486E+05,	1.00000E+01,	-2.43766E-02,	2.56213E+00,	1.61471E+00,	2.34141E+00,	0.00000E+00,	0,	0
  1.53600E+05,	1.00000E+01,	-2.43766E-02,	3.47839E+00,	1.98085E+00,	1.75970E+00,	0.00000E+00,	0,	0
  1.25673E+05,	1.00000E+01,	-2.43766E-02,	4.38061E+00,	2.18125E+00,	1.36897E+00,	0.00000E+00,	0,	0
  9.87429E+04,	1.00000E+01,	-2.43766E-02,	5.28512E+00,	2.35018E+00,	1.04645E+00,	0.00000E+00,	0,	0
  7.68000E+04,	1.00000E+01,	-2.43766E-02,	6.18840E+00,	2.44837E+00,	7.71655E-01,	0.00000E+00,	0,	0
  6.01043E+04,	1.00000E+01,	-2.43766E-02,	9.42160E+00,	2.52923E+00,	5.07560E-01,	0.00000E+00,	0,	0
  4.93714E+04,	1.00000E+01,	-2.43766E-02,	1.09988E+01,	2.54734E+00,	3.59849E-01,	0.00000E+00,	0,	0
  3.84000E+04,	1.00000E+01,	-2.43766E-02,	1.18971E+01,	2.56326E+00,	1.93845E-01,	0.00000E+00,	0,	0
  3.00522E+04,	1.00000E+01,	-2.43766E-02,	1.27431E+01,	2.57391E+00,	4.38863E-02,	0.00000E+00,	0,	0
  2.38345E+04,	1.00000E+01,	-2.43766E-02,	1.36331E+01,	2.59088E+00,	-9.45100E-02,	0.00000E+00,	0,	0
  1.86811E+04,	1.00000E+01,	-2.43766E-02,	1.44716E+01,	2.61032E+00,	-2.39606E-01,	0.00000E+00,	0,	0
  1.47064E+04,	1.00000E+01,	-2.43766E-02,	1.54302E+01,	2.62935E+00,	-3.89017E-01,	0.00000E+00,	0,	0
  1.15200E+04,	1.00000E+01,	-2.43766E-02,	1.63982E+01,	2.66443E+00,	-5.55583E-01,	0.00000E+00,	0,	0
  9.60000E+03,	1.00000E+01,	-2.43766E-02,	1.80292E+01,	2.68999E+00,	-6.97566E-01,	0.00000E+00,	0,	0
  7.51304E+03,	1.00000E+01,	-2.43766E-02,	1.89146E+01,	2.73279E+00,	-9.10524E-01,	0.00000E+00,	0,	0
  5.76000E+03,	1.00000E+01,	-2.43766E-02,	1.98192E+01,	2.78862E+00,	-1.18435E+00,	0.00000E+00,	0,	0
  4.54737E+03,	1.00000E+01,	-2.43766E-02,	2.07004E+01,	2.85242E+00,	-1.48061E+00,	0.00000E+00,	0,	0
  3.60000E+03,	1.00000E+01,	-2.43766E-02,	2.17273E+01,	2.92896E+00,	-1.83126E+00,	0.00000E+00,	0,	0
  2.88000E+03,	1.00000E+01,	-2.43766E-02,	2.26242E+01,	3.01817E+00,	-2.24665E+00,	0.00000E+00,	0,	0
  2.27368E+03,	1.00000E+01,	-2.43766E-02,	2.49222E+01,	3.10745E+00,	-2.73883E+00,	0.00000E+00,	0,	0
  1.78144E+03,	1.00000E+01,	-2.43766E-02,	2.57385E+01,	3.25141E+00,	-3.39302E+00,	0.00000E+00,	0,	0
  1.41639E+03,	1.00000E+01,	-2.43766E-02,	2.66824E+01,	3.41929E+00,	-4.13888E+00,	0.00000E+00,	0,	0
  1.12208E+03,	1.00000E+01,	-2.43766E-02,	2.77192E+01,	3.63029E+00,	-5.07816E+00,	0.00000E+00,	0,	0
  9.00000E+02,	1.00000E+01,	-2.43766E-02,	3.26978E+01,	3.89309E+00,	-6.17145E+00,	0.00000E+00,	0,	0
  7.20000E+02,	1.00000E+01,	-2.43766E-02,	3.40779E+01,	4.20504E+00,	-7.48854E+00,	0.00000E+00,	0,	0
  5.68421E+02,	1.00000E+01,	-2.43766E-02,	3.54410E+01,	4.62401E+00,	-9.18822E+00,	0.00000E+00,	0,	0
  4.40816E+02,	1.00000E+01,	-2.43766E-02,	3.84496E+01,	5.21156E+00,	-1.14689E+01,	0.00000E+00,	0,	0
  3.54098E+02,	1.00000E+01,	-2.43766E-02,	4.08198E+01,	5.84254E+00,	-1.38423E+01,	0.00000E+00,	0,	0
  2.76923E+02,	1.00000E+01,	-2.43766E-02,	4.34402E+01,	6.75690E+00,	-1.70611E+01,	0.00000E+00,	0,	0
  2.20408E+02,	1.00000E+01,	-2.43766E-02,	4.63654E+01,	7.84744E+00,	-2.06948E+01,	0.00000E+00,	0,	0
  1.74194E+02,	1.00000E+01,	-2.43766E-02,	4.96453E+01,	9.28205E+00,	-2.51870E+01,	0.00000E+00,	0,	0
  1.37580E+02,	1.00000E+01,	-2.43766E-02,	5.33040E+01,	1.11068E+01,	-3.05792E+01,	0.00000E+00,	0,	0
  1.09091E+02,	1.00000E+01,	-2.43766E-02,	5.73861E+01,	1.33550E+01,	-3.69127E+01,	0.00000E+00,	0,	0
  8.70968E+01,	1.00000E+01,	-2.43766E-02,	6.30971E+01,	1.60061E+01,	-4.42136E+01,	0.00000E+00,	0,	0
  6.83544E+01,	1.00000E+01,	-2.43766E-02,	6.81257E+01,	1.94933E+01,	-5.37410E+01,	0.00000E+00,	0,	0
  5.45455E+01,	1.00000E+01,	-2.43766E-02,	7.35707E+01,	2.34726E+01,	-6.29502E+01,	0.00000E+00,	0,	0
  4.28571E+01,	1.00000E+01,	-2.43766E-02,	7.71195E+01,	2.82269E+01,	-7.55532E+01,	0.00000E+00,	0,	0
  3.39623E+01,	1.00000E+01,	-2.43766E-02,	8.08511E+01,	3.28393E+01,	-8.99984E+01,	0.00000E+00,	0,	0
  2.68657E+01,	1.00000E+01,	-2.43766E-02,	8.47132E+01,	3.88952E+01,	-1.07959E+02,	0.00000E+00,	0,	0
  2.13439E+01,	1.00000E+01,	-2.43766E-02,	8.85248E+01,	4.54670E+01,	-1.29118E+02,	0.00000E+00,	0,	0
  1.73077E+01,	1.00000E+01,	-2.43766E-02,	9.51944E+01,	5.22207E+01,	-1.52619E+02,	0.00000E+00,	0,	0
  1.36364E+01,	1.00000E+01,	-2.43766E-02,	1.00230E+02,	6.06612E+01,	-1.84743E+02,	0.00000E+00,	0,	0
  1.07143E+01,	1.00000E+01,	-2.43766E-02,	1.03146E+02,	7.05323E+01,	-2.24876E+02,	0.00000E+00,	0,	0
  8.49057E+00,	1.00000E+01,	-2.43766E-02,	1.07339E+02,	8.16533E+01,	-2.72817E+02,	0.00000E+00,	0,	0
  6.71642E+00,	1.00000E+01,	-2.43766E-02,	1.09846E+02,	9.49395E+01,	-3.32153E+02,	0.00000E+00,	0,	0
  5.29412E+00,	1.00000E+01,	-2.43766E-02,	1.12772E+02,	1.11206E+02,	-4.06059E+02,	0.00000E+00,	0,	0
  4.16667E+00,	1.00000E+01,	-2.43766E-02,	1.16240E+02,	1.30779E+02,	-4.98009E+02,	0.00000E+00,	0,	0
  3.30882E+00,	1.00000E+01,	-2.43766E-02,	1.20530E+02,	1.53254E+02,	-6.06377E+02,	0.00000E+00,	0,	0
  2.61628E+00,	1.00000E+01,	-2.43766E-02,	1.24479E+02,	1.80530E+02,	-7.41042E+02,	0.00000E+00,	0,	0
  2.07373E+00,	1.00000E+01,	-2.43766E-02,	1.29250E+02,	2.11715E+02,	-9.04678E+02,	0.00000E+00,	0,	0
  1.64234E+00,	1.00000E+01,	-2.43766E-02,	1.35103E+02,	2.47180E+02,	-1.10608E+03,	0.00000E+00,	0,	0
  1.30058E+00,	1.00000E+01,	-2.43766E-02,	1.39274E+02,	2.87499E+02,	-1.35441E+03,	0.00000E+00,	0,	0
  1.03211E+00,	1.00000E+01,	-2.43766E-02,	1.43679E+02,	3.31736E+02,	-1.65997E+03,	0.00000E+00,	0,	0
  8.15217E-01,	1.00000E+01,	-2.43766E-02,	1.50629E+02,	3.82338E+02,	-2.04722E+03,	0.00000E+00,	0,	0
  6.46552E-01,	1.00000E+01,	-2.43766E-02,	1.59733E+02,	4.38411E+02,	-2.52177E+03,	0.00000E+00,	0,	0
  5.11364E-01,	1.00000E+01,	-2.43766E-02,	1.64760E+02,	4.96375E+02,	-3.12487E+03,	0.00000E+00,	0,	0
  4.07609E-01,	1.00000E+01,	-2.43766E-02,	1.70845E+02,	5.76821E+02,	-3.85127E+03,	0.00000E+00,	0,	0
  3.21429E-01,	1.00000E+01,	-2.43766E-02,	1.77967E+02,	6.75430E+02,	-4.82892E+03,	0.00000E+00,	0,	0
  2.54525E-01,	1.00000E+01,	-2.43766E-02,	1.86787E+02,	8.08999E+02,	-5.99617E+03,	0.00000E+00,	0,	0
  2.01613E-01,	1.00000E+01,	-2.43766E-02,	1.97650E+02,	9.76126E+02,	-7.44999E+03,	0.00000E+00,	0,	0
  1.59574E-01,	1.00000E+01,	-2.43766E-02,	2.11115E+02,	1.19271E+03,	-9.26570E+03,	0.00000E+00,	0,	0
  1.26689E-01,	1.00000E+01,	-2.43766E-02,	2.44994E+02,	1.48924E+03,	-1.14182E+04,	0.00000E+00,	0,	0
  1.00446E-01,	1.00000E+01,	-2.43766E-02,	2.65845E+02,	1.79685E+03,	-1.42984E+04,	0.00000E+00,	0,	0