Z60W Data File: Version 1.1
CorrTest for Windows: SN CS310H1805157  V5.2.1111.9  2.5H6.220118
Sweep Frequency: Control Voltage
  Date:4-30-2026   Time:13:15:13
  Begin Information:            Cell Information
      Surface Area:           1
      Density:                7.8
      Weight:                 28
  End Information:              Cell Information
  Freq (Hz)     Ampl(mV)       Bias(V)      Time(Sec)       Z'(Ohm.cm^2)    Z''(Ohm.cm^2)        GD       Err      Range
End Comments
  3.07200E+05,	1.00000E+01,	-2.38568E-02,	5.28108E-02,	-9.11857E-02,	4.27018E+00,	0.00000E+00,	0,	0
  2.76480E+05,	1.00000E+01,	-2.38568E-02,	1.65979E+00,	5.95794E-01,	3.20065E+00,	0.00000E+00,	0,	0
  1.97486E+05,	1.00000E+01,	-2.38568E-02,	2.58934E+00,	1.43438E+00,	2.24948E+00,	0.00000E+00,	0,	0
  1.53600E+05,	1.00000E+01,	-2.38568E-02,	3.49373E+00,	1.80841E+00,	1.67956E+00,	0.00000E+00,	0,	0
  1.25673E+05,	1.00000E+01,	-2.38568E-02,	4.39760E+00,	1.99485E+00,	1.34335E+00,	0.00000E+00,	0,	0
  9.87429E+04,	1.00000E+01,	-2.38568E-02,	5.29353E+00,	2.17201E+00,	1.00897E+00,	0.00000E+00,	0,	0
  7.68000E+04,	1.00000E+01,	-2.38568E-02,	6.19520E+00,	2.26889E+00,	7.49939E-01,	0.00000E+00,	0,	0
  6.01043E+04,	1.00000E+01,	-2.38568E-02,	9.43752E+00,	2.34948E+00,	4.93143E-01,	0.00000E+00,	0,	0
  4.93714E+04,	1.00000E+01,	-2.38568E-02,	1.10114E+01,	2.36395E+00,	3.49054E-01,	0.00000E+00,	0,	0
  3.84000E+04,	1.00000E+01,	-2.38568E-02,	1.19275E+01,	2.38192E+00,	1.83677E-01,	0.00000E+00,	0,	0
  3.00522E+04,	1.00000E+01,	-2.38568E-02,	1.27750E+01,	2.39683E+00,	3.91804E-02,	0.00000E+00,	0,	0
  2.38345E+04,	1.00000E+01,	-2.38568E-02,	1.36489E+01,	2.40829E+00,	-9.54177E-02,	0.00000E+00,	0,	0
  1.86811E+04,	1.00000E+01,	-2.38568E-02,	1.45089E+01,	2.42685E+00,	-2.33404E-01,	0.00000E+00,	0,	0
  1.47064E+04,	1.00000E+01,	-2.38568E-02,	1.54735E+01,	2.44757E+00,	-3.80273E-01,	0.00000E+00,	0,	0
  1.15200E+04,	1.00000E+01,	-2.38568E-02,	1.64519E+01,	2.47737E+00,	-5.42860E-01,	0.00000E+00,	0,	0
  9.60000E+03,	1.00000E+01,	-2.38568E-02,	1.80645E+01,	2.50372E+00,	-6.78876E-01,	0.00000E+00,	0,	0
  7.51304E+03,	1.00000E+01,	-2.38568E-02,	1.89517E+01,	2.54674E+00,	-8.88879E-01,	0.00000E+00,	0,	0
  5.76000E+03,	1.00000E+01,	-2.38568E-02,	1.98519E+01,	2.60455E+00,	-1.15747E+00,	0.00000E+00,	0,	0
  4.54737E+03,	1.00000E+01,	-2.38568E-02,	2.07011E+01,	2.66400E+00,	-1.44355E+00,	0.00000E+00,	0,	0
  3.60000E+03,	1.00000E+01,	-2.38568E-02,	2.16908E+01,	2.73865E+00,	-1.78771E+00,	0.00000E+00,	0,	0
  2.88000E+03,	1.00000E+01,	-2.38568E-02,	2.25908E+01,	2.82405E+00,	-2.18115E+00,	0.00000E+00,	0,	0
  2.27368E+03,	1.00000E+01,	-2.38568E-02,	2.48695E+01,	2.91635E+00,	-2.67017E+00,	0.00000E+00,	0,	0
  1.78144E+03,	1.00000E+01,	-2.38568E-02,	2.56550E+01,	3.05914E+00,	-3.30958E+00,	0.00000E+00,	0,	0
  1.41639E+03,	1.00000E+01,	-2.38568E-02,	2.65732E+01,	3.22073E+00,	-4.04338E+00,	0.00000E+00,	0,	0
  1.12208E+03,	1.00000E+01,	-2.38568E-02,	2.75989E+01,	3.42915E+00,	-4.95626E+00,	0.00000E+00,	0,	0
  9.00000E+02,	1.00000E+01,	-2.38568E-02,	3.25809E+01,	3.68206E+00,	-6.02435E+00,	0.00000E+00,	0,	0
  7.20000E+02,	1.00000E+01,	-2.38568E-02,	3.39403E+01,	3.99153E+00,	-7.30676E+00,	0.00000E+00,	0,	0
  5.68421E+02,	1.00000E+01,	-2.38568E-02,	3.52990E+01,	4.40043E+00,	-8.96809E+00,	0.00000E+00,	0,	0
  4.40816E+02,	1.00000E+01,	-2.38568E-02,	3.83317E+01,	4.98212E+00,	-1.11932E+01,	0.00000E+00,	0,	0
  3.54098E+02,	1.00000E+01,	-2.38568E-02,	4.06709E+01,	5.60436E+00,	-1.35031E+01,	0.00000E+00,	0,	0
  2.76923E+02,	1.00000E+01,	-2.38568E-02,	4.32985E+01,	6.50944E+00,	-1.66382E+01,	0.00000E+00,	0,	0
  2.20408E+02,	1.00000E+01,	-2.38568E-02,	4.62223E+01,	7.58645E+00,	-2.01738E+01,	0.00000E+00,	0,	0
  1.74194E+02,	1.00000E+01,	-2.38568E-02,	4.94731E+01,	9.00264E+00,	-2.45368E+01,	0.00000E+00,	0,	0
  1.37580E+02,	1.00000E+01,	-2.38568E-02,	5.31347E+01,	1.08001E+01,	-2.97629E+01,	0.00000E+00,	0,	0
  1.09091E+02,	1.00000E+01,	-2.38568E-02,	5.72153E+01,	1.29980E+01,	-3.58841E+01,	0.00000E+00,	0,	0
  8.70968E+01,	1.00000E+01,	-2.38568E-02,	6.29229E+01,	1.55825E+01,	-4.29430E+01,	0.00000E+00,	0,	0
  6.83544E+01,	1.00000E+01,	-2.38568E-02,	6.79419E+01,	1.89568E+01,	-5.21650E+01,	0.00000E+00,	0,	0
  5.45455E+01,	1.00000E+01,	-2.38568E-02,	7.33892E+01,	2.27746E+01,	-6.10723E+01,	0.00000E+00,	0,	0
  4.28571E+01,	1.00000E+01,	-2.38568E-02,	7.69426E+01,	2.73081E+01,	-7.32797E+01,	0.00000E+00,	0,	0
  3.39623E+01,	1.00000E+01,	-2.38568E-02,	8.06884E+01,	3.16868E+01,	-8.73415E+01,	0.00000E+00,	0,	0
  2.68657E+01,	1.00000E+01,	-2.38568E-02,	8.45628E+01,	3.74379E+01,	-1.04848E+02,	0.00000E+00,	0,	0
  2.13439E+01,	1.00000E+01,	-2.38568E-02,	8.84349E+01,	4.36991E+01,	-1.25542E+02,	0.00000E+00,	0,	0
  1.73077E+01,	1.00000E+01,	-2.38568E-02,	9.51483E+01,	5.01394E+01,	-1.48533E+02,	0.00000E+00,	0,	0
  1.36364E+01,	1.00000E+01,	-2.38568E-02,	1.00180E+02,	5.82365E+01,	-1.80040E+02,	0.00000E+00,	0,	0
  1.07143E+01,	1.00000E+01,	-2.38568E-02,	1.03123E+02,	6.77265E+01,	-2.19350E+02,	0.00000E+00,	0,	0
  8.49057E+00,	1.00000E+01,	-2.38568E-02,	1.07349E+02,	7.84962E+01,	-2.66336E+02,	0.00000E+00,	0,	0
  6.71642E+00,	1.00000E+01,	-2.38568E-02,	1.09863E+02,	9.13751E+01,	-3.24454E+02,	0.00000E+00,	0,	0
  5.29412E+00,	1.00000E+01,	-2.38568E-02,	1.12833E+02,	1.07198E+02,	-3.96817E+02,	0.00000E+00,	0,	0
  4.16667E+00,	1.00000E+01,	-2.38568E-02,	1.16311E+02,	1.26181E+02,	-4.86855E+02,	0.00000E+00,	0,	0
  3.30882E+00,	1.00000E+01,	-2.38568E-02,	1.20556E+02,	1.48013E+02,	-5.92864E+02,	0.00000E+00,	0,	0
  2.61628E+00,	1.00000E+01,	-2.38568E-02,	1.24528E+02,	1.74334E+02,	-7.24758E+02,	0.00000E+00,	0,	0
  2.07373E+00,	1.00000E+01,	-2.38568E-02,	1.29344E+02,	2.04328E+02,	-8.84958E+02,	0.00000E+00,	0,	0
  1.64234E+00,	1.00000E+01,	-2.38568E-02,	1.35126E+02,	2.38159E+02,	-1.08245E+03,	0.00000E+00,	0,	0
  1.30058E+00,	1.00000E+01,	-2.38568E-02,	1.39287E+02,	2.76547E+02,	-1.32651E+03,	0.00000E+00,	0,	0
  1.03211E+00,	1.00000E+01,	-2.38568E-02,	1.43683E+02,	3.18930E+02,	-1.62717E+03,	0.00000E+00,	0,	0
  8.15217E-01,	1.00000E+01,	-2.38568E-02,	1.50664E+02,	3.67449E+02,	-2.00857E+03,	0.00000E+00,	0,	0
  6.46552E-01,	1.00000E+01,	-2.38568E-02,	1.59753E+02,	4.22449E+02,	-2.47599E+03,	0.00000E+00,	0,	0
  5.11364E-01,	1.00000E+01,	-2.38568E-02,	1.64772E+02,	4.79717E+02,	-3.06988E+03,	0.00000E+00,	0,	0
  4.07609E-01,	1.00000E+01,	-2.38568E-02,	1.70836E+02,	5.59312E+02,	-3.78528E+03,	0.00000E+00,	0,	0
  3.21429E-01,	1.00000E+01,	-2.38568E-02,	1.77994E+02,	6.58207E+02,	-4.74579E+03,	0.00000E+00,	0,	0
  2.54525E-01,	1.00000E+01,	-2.38568E-02,	1.86765E+02,	7.92968E+02,	-5.89372E+03,	0.00000E+00,	0,	0
  2.01613E-01,	1.00000E+01,	-2.38568E-02,	1.97626E+02,	9.62766E+02,	-7.32332E+03,	0.00000E+00,	0,	0
  1.59574E-01,	1.00000E+01,	-2.38568E-02,	2.11125E+02,	1.18406E+03,	-9.10991E+03,	0.00000E+00,	0,	0
  1.26689E-01,	1.00000E+01,	-2.38568E-02,	2.28037E+02,	1.46881E+03,	-1.12942E+04,	0.00000E+00,	0,	0
  1.00446E-01,	1.00000E+01,	-2.38568E-02,	2.48905E+02,	1.84213E+03,	-1.40226E+04,	0.00000E+00,	0,	0