Z60W Data File: Version 1.1
CorrTest for Windows: SN CS310H1805157  V5.2.1111.9  2.5H6.220118
Sweep Frequency: Control Voltage
  Date:4-30-2026   Time:13:53:55
  Begin Information:            Cell Information
      Surface Area:           1
      Density:                7.8
      Weight:                 28
  End Information:              Cell Information
  Freq (Hz)     Ampl(mV)       Bias(V)      Time(Sec)       Z'(Ohm.cm^2)    Z''(Ohm.cm^2)        GD       Err      Range
End Comments
  3.07200E+05,	1.00000E+01,	-2.50569E-02,	5.75233E-02,	5.81969E-01,	4.51229E+00,	0.00000E+00,	0,	0
  2.76480E+05,	1.00000E+01,	-2.50569E-02,	1.66316E+00,	1.10266E+00,	3.45405E+00,	0.00000E+00,	0,	0
  1.97486E+05,	1.00000E+01,	-2.50569E-02,	2.56903E+00,	2.00193E+00,	2.43354E+00,	0.00000E+00,	0,	0
  1.53600E+05,	1.00000E+01,	-2.50569E-02,	3.46934E+00,	2.29760E+00,	1.84156E+00,	0.00000E+00,	0,	0
  1.25673E+05,	1.00000E+01,	-2.50569E-02,	4.36333E+00,	2.48661E+00,	1.45179E+00,	0.00000E+00,	0,	0
  9.87429E+04,	1.00000E+01,	-2.50569E-02,	5.26043E+00,	2.66959E+00,	1.09832E+00,	0.00000E+00,	0,	0
  7.68000E+04,	1.00000E+01,	-2.50569E-02,	6.15642E+00,	2.76775E+00,	8.05717E-01,	0.00000E+00,	0,	0
  6.01043E+04,	1.00000E+01,	-2.50569E-02,	9.42115E+00,	2.85246E+00,	5.33798E-01,	0.00000E+00,	0,	0
  4.93714E+04,	1.00000E+01,	-2.50569E-02,	1.09984E+01,	2.86967E+00,	3.79909E-01,	0.00000E+00,	0,	0
  3.84000E+04,	1.00000E+01,	-2.50569E-02,	1.18915E+01,	2.88707E+00,	1.96919E-01,	0.00000E+00,	0,	0
  3.00522E+04,	1.00000E+01,	-2.50569E-02,	1.27517E+01,	2.89637E+00,	4.23522E-02,	0.00000E+00,	0,	0
  2.38345E+04,	1.00000E+01,	-2.50569E-02,	1.36239E+01,	2.91601E+00,	-1.03738E-01,	0.00000E+00,	0,	0
  1.86811E+04,	1.00000E+01,	-2.50569E-02,	1.44729E+01,	2.93432E+00,	-2.51829E-01,	0.00000E+00,	0,	0
  1.47064E+04,	1.00000E+01,	-2.50569E-02,	1.54801E+01,	2.95808E+00,	-4.13828E-01,	0.00000E+00,	0,	0
  1.15200E+04,	1.00000E+01,	-2.50569E-02,	1.65052E+01,	2.99030E+00,	-5.89678E-01,	0.00000E+00,	0,	0
  9.60000E+03,	1.00000E+01,	-2.50569E-02,	1.81158E+01,	3.02043E+00,	-7.32523E-01,	0.00000E+00,	0,	0
  7.51304E+03,	1.00000E+01,	-2.50569E-02,	1.89870E+01,	3.06578E+00,	-9.59109E-01,	0.00000E+00,	0,	0
  5.76000E+03,	1.00000E+01,	-2.50569E-02,	1.98790E+01,	3.12665E+00,	-1.24759E+00,	0.00000E+00,	0,	0
  4.54737E+03,	1.00000E+01,	-2.50569E-02,	2.07206E+01,	3.19493E+00,	-1.56277E+00,	0.00000E+00,	0,	0
  3.60000E+03,	1.00000E+01,	-2.50569E-02,	2.17126E+01,	3.27326E+00,	-1.93217E+00,	0.00000E+00,	0,	0
  2.88000E+03,	1.00000E+01,	-2.50569E-02,	2.26197E+01,	3.37129E+00,	-2.35979E+00,	0.00000E+00,	0,	0
  2.27368E+03,	1.00000E+01,	-2.50569E-02,	2.49061E+01,	3.46199E+00,	-2.88146E+00,	0.00000E+00,	0,	0
  1.78144E+03,	1.00000E+01,	-2.50569E-02,	2.56926E+01,	3.61383E+00,	-3.56847E+00,	0.00000E+00,	0,	0
  1.41639E+03,	1.00000E+01,	-2.50569E-02,	2.65775E+01,	3.79444E+00,	-4.35893E+00,	0.00000E+00,	0,	0
  1.12208E+03,	1.00000E+01,	-2.50569E-02,	2.76164E+01,	4.01735E+00,	-5.33872E+00,	0.00000E+00,	0,	0
  9.00000E+02,	1.00000E+01,	-2.50569E-02,	3.26460E+01,	4.28514E+00,	-6.48050E+00,	0.00000E+00,	0,	0
  7.20000E+02,	1.00000E+01,	-2.50569E-02,	3.40254E+01,	4.60865E+00,	-7.86302E+00,	0.00000E+00,	0,	0
  5.68421E+02,	1.00000E+01,	-2.50569E-02,	3.53971E+01,	5.04156E+00,	-9.64884E+00,	0.00000E+00,	0,	0
  4.40816E+02,	1.00000E+01,	-2.50569E-02,	3.84386E+01,	5.64885E+00,	-1.20468E+01,	0.00000E+00,	0,	0
  3.54098E+02,	1.00000E+01,	-2.50569E-02,	4.07842E+01,	6.29565E+00,	-1.45458E+01,	0.00000E+00,	0,	0
  2.76923E+02,	1.00000E+01,	-2.50569E-02,	4.34311E+01,	7.23098E+00,	-1.79430E+01,	0.00000E+00,	0,	0
  2.20408E+02,	1.00000E+01,	-2.50569E-02,	4.63673E+01,	8.34624E+00,	-2.17919E+01,	0.00000E+00,	0,	0
  1.74194E+02,	1.00000E+01,	-2.50569E-02,	4.96361E+01,	9.81232E+00,	-2.65584E+01,	0.00000E+00,	0,	0
  1.37580E+02,	1.00000E+01,	-2.50569E-02,	5.33010E+01,	1.16945E+01,	-3.23080E+01,	0.00000E+00,	0,	0
  1.09091E+02,	1.00000E+01,	-2.50569E-02,	5.74131E+01,	1.40255E+01,	-3.90740E+01,	0.00000E+00,	0,	0
  8.70968E+01,	1.00000E+01,	-2.50569E-02,	6.31271E+01,	1.68079E+01,	-4.69057E+01,	0.00000E+00,	0,	0
  6.83544E+01,	1.00000E+01,	-2.50569E-02,	6.81707E+01,	2.05227E+01,	-5.71339E+01,	0.00000E+00,	0,	0
  5.45455E+01,	1.00000E+01,	-2.50569E-02,	7.36400E+01,	2.48283E+01,	-6.70203E+01,	0.00000E+00,	0,	0
  4.28571E+01,	1.00000E+01,	-2.50569E-02,	7.71651E+01,	3.00413E+01,	-8.04853E+01,	0.00000E+00,	0,	0
  3.39623E+01,	1.00000E+01,	-2.50569E-02,	8.08990E+01,	3.51800E+01,	-9.58371E+01,	0.00000E+00,	0,	0
  2.68657E+01,	1.00000E+01,	-2.50569E-02,	8.47499E+01,	4.19328E+01,	-1.14815E+02,	0.00000E+00,	0,	0
  2.13439E+01,	1.00000E+01,	-2.50569E-02,	8.85801E+01,	4.92760E+01,	-1.37058E+02,	0.00000E+00,	0,	0
  1.73077E+01,	1.00000E+01,	-2.50569E-02,	9.52953E+01,	5.67690E+01,	-1.61645E+02,	0.00000E+00,	0,	0
  1.36364E+01,	1.00000E+01,	-2.50569E-02,	1.00348E+02,	6.60687E+01,	-1.95159E+02,	0.00000E+00,	0,	0
  1.07143E+01,	1.00000E+01,	-2.50569E-02,	1.03284E+02,	7.68233E+01,	-2.36979E+02,	0.00000E+00,	0,	0
  8.49057E+00,	1.00000E+01,	-2.50569E-02,	1.07536E+02,	8.87947E+01,	-2.87014E+02,	0.00000E+00,	0,	0
  6.71642E+00,	1.00000E+01,	-2.50569E-02,	1.10042E+02,	1.02965E+02,	-3.48722E+02,	0.00000E+00,	0,	0
  5.29412E+00,	1.00000E+01,	-2.50569E-02,	1.12994E+02,	1.20272E+02,	-4.25968E+02,	0.00000E+00,	0,	0
  4.16667E+00,	1.00000E+01,	-2.50569E-02,	1.16479E+02,	1.41083E+02,	-5.21935E+02,	0.00000E+00,	0,	0
  3.30882E+00,	1.00000E+01,	-2.50569E-02,	1.20754E+02,	1.65023E+02,	-6.35357E+02,	0.00000E+00,	0,	0
  2.61628E+00,	1.00000E+01,	-2.50569E-02,	1.24747E+02,	1.94402E+02,	-7.76246E+02,	0.00000E+00,	0,	0
  2.07373E+00,	1.00000E+01,	-2.50569E-02,	1.29519E+02,	2.28333E+02,	-9.47174E+02,	0.00000E+00,	0,	0
  1.64234E+00,	1.00000E+01,	-2.50569E-02,	1.35305E+02,	2.67362E+02,	-1.15714E+03,	0.00000E+00,	0,	0
  1.30058E+00,	1.00000E+01,	-2.50569E-02,	1.39482E+02,	3.12451E+02,	-1.41552E+03,	0.00000E+00,	0,	0
  1.03211E+00,	1.00000E+01,	-2.50569E-02,	1.43888E+02,	3.61418E+02,	-1.73185E+03,	0.00000E+00,	0,	0
  8.15217E-01,	1.00000E+01,	-2.50569E-02,	1.50826E+02,	4.16930E+02,	-2.13125E+03,	0.00000E+00,	0,	0
  6.46552E-01,	1.00000E+01,	-2.50569E-02,	1.59906E+02,	4.77847E+02,	-2.62045E+03,	0.00000E+00,	0,	0
  5.11364E-01,	1.00000E+01,	-2.50569E-02,	1.64924E+02,	5.37173E+02,	-3.24250E+03,	0.00000E+00,	0,	0
  4.07609E-01,	1.00000E+01,	-2.50569E-02,	1.70987E+02,	6.20018E+02,	-3.99228E+03,	0.00000E+00,	0,	0
  3.21429E-01,	1.00000E+01,	-2.50569E-02,	1.78111E+02,	7.19614E+02,	-5.00300E+03,	0.00000E+00,	0,	0
  2.54525E-01,	1.00000E+01,	-2.50569E-02,	1.86862E+02,	8.53182E+02,	-6.20854E+03,	0.00000E+00,	0,	0
  2.01613E-01,	1.00000E+01,	-2.50569E-02,	1.97697E+02,	1.01769E+03,	-7.71184E+03,	0.00000E+00,	0,	0
  1.59574E-01,	1.00000E+01,	-2.50569E-02,	2.11151E+02,	1.22937E+03,	-9.59546E+03,	0.00000E+00,	0,	0
  1.26689E-01,	1.00000E+01,	-2.50569E-02,	2.45027E+02,	1.51738E+03,	-1.18252E+04,	0.00000E+00,	0,	0
  1.00446E-01,	1.00000E+01,	-2.50569E-02,	2.65892E+02,	1.80759E+03,	-1.48196E+04,	0.00000E+00,	0,	0