Z60W Data File: Version 1.1
CorrTest for Windows: SN CS310H1805157  V5.2.1111.9  2.5H6.220118
Sweep Frequency: Control Voltage
  Date:4-30-2026   Time:15:59:46
  Begin Information:            Cell Information
      Surface Area:           1
      Density:                7.8
      Weight:                 28
  End Information:              Cell Information
  Freq (Hz)     Ampl(mV)       Bias(V)      Time(Sec)       Z'(Ohm.cm^2)    Z''(Ohm.cm^2)        GD       Err      Range
End Comments
  3.07200E+05,	1.00000E+01,	-4.26206E-02,	3.39889E-02,	3.73926E+02,	-1.07918E+02,	0.00000E+00,	0,	0
  2.76480E+05,	1.00000E+01,	-4.26206E-02,	1.63037E+00,	3.83514E+02,	-1.20303E+02,	0.00000E+00,	0,	0
  1.97486E+05,	1.00000E+01,	-4.26206E-02,	2.53043E+00,	4.23249E+02,	-1.56471E+02,	0.00000E+00,	0,	0
  1.53600E+05,	1.00000E+01,	-4.26206E-02,	3.43262E+00,	4.60952E+02,	-1.72088E+02,	0.00000E+00,	0,	0
  1.25673E+05,	1.00000E+01,	-4.26206E-02,	4.34729E+00,	5.02358E+02,	-1.78156E+02,	0.00000E+00,	0,	0
  9.87429E+04,	1.00000E+01,	-4.26206E-02,	5.29892E+00,	5.38020E+02,	-1.79823E+02,	0.00000E+00,	0,	0
  7.68000E+04,	1.00000E+01,	-4.26206E-02,	6.19366E+00,	5.78004E+02,	-1.68387E+02,	0.00000E+00,	0,	0
  6.01043E+04,	1.00000E+01,	-4.26206E-02,	7.19799E+00,	6.12125E+02,	-1.52292E+02,	0.00000E+00,	0,	0
  4.93714E+04,	1.00000E+01,	-4.26206E-02,	8.77735E+00,	6.35589E+02,	-1.36837E+02,	0.00000E+00,	0,	0
  3.84000E+04,	1.00000E+01,	-4.26206E-02,	9.67548E+00,	6.57349E+02,	-1.19690E+02,	0.00000E+00,	0,	0
  3.00522E+04,	1.00000E+01,	-4.26206E-02,	1.05360E+01,	6.53968E+02,	-6.88917E+01,	0.00000E+00,	0,	0
  2.38345E+04,	1.00000E+01,	-4.26206E-02,	1.14224E+01,	6.83879E+02,	-8.50463E+01,	0.00000E+00,	0,	0
  1.86811E+04,	1.00000E+01,	-4.26206E-02,	1.22852E+01,	6.83861E+02,	-8.18093E+01,	0.00000E+00,	0,	0
  1.47064E+04,	1.00000E+01,	-4.26206E-02,	1.32798E+01,	6.98334E+02,	-6.89511E+01,	0.00000E+00,	0,	0
  1.15200E+04,	1.00000E+01,	-4.26206E-02,	1.42502E+01,	7.02286E+02,	-6.00866E+01,	0.00000E+00,	0,	0
  9.60000E+03,	1.00000E+01,	-4.26206E-02,	1.58475E+01,	7.06859E+02,	-5.67337E+01,	0.00000E+00,	0,	0
  7.51304E+03,	1.00000E+01,	-4.26206E-02,	1.67330E+01,	7.11088E+02,	-5.07768E+01,	0.00000E+00,	0,	0
  5.76000E+03,	1.00000E+01,	-4.26206E-02,	1.76882E+01,	7.19865E+02,	-5.32899E+01,	0.00000E+00,	0,	0
  4.54737E+03,	1.00000E+01,	-4.26206E-02,	1.85581E+01,	7.24798E+02,	-5.56671E+01,	0.00000E+00,	0,	0
  3.60000E+03,	1.00000E+01,	-4.26206E-02,	1.95521E+01,	7.32637E+02,	-5.26348E+01,	0.00000E+00,	0,	0
  2.88000E+03,	1.00000E+01,	-4.26206E-02,	2.04251E+01,	7.49198E+02,	-4.85140E+01,	0.00000E+00,	0,	0
  2.27368E+03,	1.00000E+01,	-4.26206E-02,	2.27135E+01,	7.48367E+02,	-5.04052E+01,	0.00000E+00,	0,	0
  1.78144E+03,	1.00000E+01,	-4.26206E-02,	2.35424E+01,	7.63194E+02,	-5.39119E+01,	0.00000E+00,	0,	0
  1.41639E+03,	1.00000E+01,	-4.26206E-02,	2.44491E+01,	7.69732E+02,	-4.14258E+01,	0.00000E+00,	0,	0
  1.12208E+03,	1.00000E+01,	-4.26206E-02,	2.55160E+01,	7.68764E+02,	-2.54366E+01,	0.00000E+00,	0,	0
  9.00000E+02,	1.00000E+01,	-4.26206E-02,	3.05324E+01,	7.80239E+02,	-3.74381E+01,	0.00000E+00,	0,	0
  7.20000E+02,	1.00000E+01,	-4.26206E-02,	3.19012E+01,	7.83772E+02,	-3.53251E+01,	0.00000E+00,	0,	0
  5.68421E+02,	1.00000E+01,	-4.26206E-02,	3.32774E+01,	7.86844E+02,	-3.42262E+01,	0.00000E+00,	0,	0
  4.40816E+02,	1.00000E+01,	-4.26206E-02,	3.47541E+01,	7.90444E+02,	-3.44223E+01,	0.00000E+00,	0,	0
  3.54098E+02,	1.00000E+01,	-4.26206E-02,	3.71257E+01,	7.93273E+02,	-3.63303E+01,	0.00000E+00,	0,	0
  2.76923E+02,	1.00000E+01,	-4.26206E-02,	3.97679E+01,	7.96263E+02,	-3.96926E+01,	0.00000E+00,	0,	0
  2.20408E+02,	1.00000E+01,	-4.26206E-02,	4.26867E+01,	7.99485E+02,	-4.44312E+01,	0.00000E+00,	0,	0
  1.74194E+02,	1.00000E+01,	-4.26206E-02,	4.59420E+01,	8.03834E+02,	-5.11748E+01,	0.00000E+00,	0,	0
  1.37580E+02,	1.00000E+01,	-4.26206E-02,	4.96065E+01,	8.08071E+02,	-5.99277E+01,	0.00000E+00,	0,	0
  1.09091E+02,	1.00000E+01,	-4.26206E-02,	5.36736E+01,	8.13309E+02,	-7.11332E+01,	0.00000E+00,	0,	0
  8.70968E+01,	1.00000E+01,	-4.26206E-02,	5.93749E+01,	8.20452E+02,	-8.52793E+01,	0.00000E+00,	0,	0
  6.83544E+01,	1.00000E+01,	-4.26206E-02,	6.43966E+01,	8.32380E+02,	-1.04586E+02,	0.00000E+00,	0,	0
  5.45455E+01,	1.00000E+01,	-4.26206E-02,	6.98418E+01,	8.30339E+02,	-1.17357E+02,	0.00000E+00,	0,	0
  4.28571E+01,	1.00000E+01,	-4.26206E-02,	7.34141E+01,	8.38416E+02,	-1.42726E+02,	0.00000E+00,	0,	0
  3.39623E+01,	1.00000E+01,	-4.26206E-02,	7.71722E+01,	8.43805E+02,	-1.76645E+02,	0.00000E+00,	0,	0
  2.68657E+01,	1.00000E+01,	-4.26206E-02,	8.10205E+01,	8.58282E+02,	-2.12949E+02,	0.00000E+00,	0,	0
  2.13439E+01,	1.00000E+01,	-4.26206E-02,	8.48329E+01,	8.72068E+02,	-2.57072E+02,	0.00000E+00,	0,	0
  1.73077E+01,	1.00000E+01,	-4.26206E-02,	8.85415E+01,	8.85540E+02,	-3.05706E+02,	0.00000E+00,	0,	0
  1.36364E+01,	1.00000E+01,	-4.26206E-02,	9.35975E+01,	9.03987E+02,	-3.73410E+02,	0.00000E+00,	0,	0
  1.07143E+01,	1.00000E+01,	-4.26206E-02,	9.65177E+01,	9.24421E+02,	-4.58153E+02,	0.00000E+00,	0,	0
  8.49057E+00,	1.00000E+01,	-4.26206E-02,	1.00750E+02,	9.48489E+02,	-5.59823E+02,	0.00000E+00,	0,	0
  6.71642E+00,	1.00000E+01,	-4.26206E-02,	1.03262E+02,	9.76348E+02,	-6.84029E+02,	0.00000E+00,	0,	0
  5.29412E+00,	1.00000E+01,	-4.26206E-02,	1.06240E+02,	1.01080E+03,	-8.40347E+02,	0.00000E+00,	0,	0
  4.16667E+00,	1.00000E+01,	-4.26206E-02,	1.09749E+02,	1.05380E+03,	-1.03561E+03,	0.00000E+00,	0,	0
  3.30882E+00,	1.00000E+01,	-4.26206E-02,	1.16287E+02,	1.10592E+03,	-1.26599E+03,	0.00000E+00,	0,	0
  2.61628E+00,	1.00000E+01,	-4.26206E-02,	1.20248E+02,	1.17327E+03,	-1.55472E+03,	0.00000E+00,	0,	0
  2.07373E+00,	1.00000E+01,	-4.26206E-02,	1.25058E+02,	1.25805E+03,	-1.90463E+03,	0.00000E+00,	0,	0
  1.64234E+00,	1.00000E+01,	-4.26206E-02,	1.30857E+02,	1.36670E+03,	-2.33374E+03,	0.00000E+00,	0,	0
  1.30058E+00,	1.00000E+01,	-4.26206E-02,	1.35017E+02,	1.50636E+03,	-2.85385E+03,	0.00000E+00,	0,	0
  1.03211E+00,	1.00000E+01,	-4.26206E-02,	1.39405E+02,	1.68656E+03,	-3.48125E+03,	0.00000E+00,	0,	0
  8.15217E-01,	1.00000E+01,	-4.26206E-02,	1.46356E+02,	1.91180E+03,	-4.24274E+03,	0.00000E+00,	0,	0
  6.46552E-01,	1.00000E+01,	-4.26206E-02,	1.51189E+02,	2.19757E+03,	-5.14702E+03,	0.00000E+00,	0,	0
  5.11364E-01,	1.00000E+01,	-4.26206E-02,	1.56192E+02,	2.48614E+03,	-6.27336E+03,	0.00000E+00,	0,	0
  4.07609E-01,	1.00000E+01,	-4.26206E-02,	1.62249E+02,	2.89803E+03,	-7.54550E+03,	0.00000E+00,	0,	0
  3.21429E-01,	1.00000E+01,	-4.26206E-02,	1.69366E+02,	3.43179E+03,	-9.26256E+03,	0.00000E+00,	0,	0
  2.54525E-01,	1.00000E+01,	-4.26206E-02,	1.78141E+02,	4.04957E+03,	-1.11348E+04,	0.00000E+00,	0,	0
  2.01613E-01,	1.00000E+01,	-4.26206E-02,	1.88997E+02,	4.75337E+03,	-1.34108E+04,	0.00000E+00,	0,	0
  1.59574E-01,	1.00000E+01,	-4.26206E-02,	2.02487E+02,	5.56858E+03,	-1.61756E+04,	0.00000E+00,	0,	0
  1.26689E-01,	1.00000E+01,	-4.26206E-02,	2.36386E+02,	6.53432E+03,	-1.92189E+04,	0.00000E+00,	0,	0
  1.00446E-01,	1.00000E+01,	-4.26206E-02,	2.57281E+02,	7.50160E+03,	-2.39624E+04,	0.00000E+00,	0,	0