Z60W Data File: Version 1.1
CorrTest for Windows: SN CS310H1805157  V5.2.1111.9  2.5H6.220118
Sweep Frequency: Control Voltage
  Date:4-30-2026   Time:09:52:46
  Begin Information:            Cell Information
      Surface Area:           1
      Density:                7.8
      Weight:                 28
  End Information:              Cell Information
  Freq (Hz)     Ampl(mV)       Bias(V)      Time(Sec)       Z'(Ohm.cm^2)    Z''(Ohm.cm^2)        GD       Err      Range
End Comments
  3.07200E+05,	1.00000E+01,	-2.33626E-02,	3.12225E-02,	-3.49576E-01,	4.19413E+00,	0.00000E+00,	0,	0
  2.76480E+05,	1.00000E+01,	-2.33626E-02,	1.63667E+00,	2.61255E-01,	3.16018E+00,	0.00000E+00,	0,	0
  1.97486E+05,	1.00000E+01,	-2.33626E-02,	2.53647E+00,	1.17649E+00,	2.22245E+00,	0.00000E+00,	0,	0
  1.53600E+05,	1.00000E+01,	-2.33626E-02,	3.50108E+00,	1.55129E+00,	1.66630E+00,	0.00000E+00,	0,	0
  1.25673E+05,	1.00000E+01,	-2.33626E-02,	4.44303E+00,	1.74988E+00,	1.31027E+00,	0.00000E+00,	0,	0
  9.87429E+04,	1.00000E+01,	-2.33626E-02,	5.38233E+00,	1.93017E+00,	9.99020E-01,	0.00000E+00,	0,	0
  7.68000E+04,	1.00000E+01,	-2.33626E-02,	6.30424E+00,	2.03960E+00,	7.26776E-01,	0.00000E+00,	0,	0
  6.01043E+04,	1.00000E+01,	-2.33626E-02,	9.51989E+00,	2.11761E+00,	4.96402E-01,	0.00000E+00,	0,	0
  4.93714E+04,	1.00000E+01,	-2.33626E-02,	1.11183E+01,	2.13551E+00,	3.61035E-01,	0.00000E+00,	0,	0
  3.84000E+04,	1.00000E+01,	-2.33626E-02,	1.20482E+01,	2.15019E+00,	2.11492E-01,	0.00000E+00,	0,	0
  3.00522E+04,	1.00000E+01,	-2.33626E-02,	1.29152E+01,	2.16147E+00,	7.25657E-02,	0.00000E+00,	0,	0
  2.38345E+04,	1.00000E+01,	-2.33626E-02,	1.38146E+01,	2.17338E+00,	-4.60570E-02,	0.00000E+00,	0,	0
  1.86811E+04,	1.00000E+01,	-2.33626E-02,	1.46442E+01,	2.18782E+00,	-1.73270E-01,	0.00000E+00,	0,	0
  1.47064E+04,	1.00000E+01,	-2.33626E-02,	1.55971E+01,	2.20707E+00,	-3.01817E-01,	0.00000E+00,	0,	0
  1.15200E+04,	1.00000E+01,	-2.33626E-02,	1.65930E+01,	2.23136E+00,	-4.45292E-01,	0.00000E+00,	0,	0
  9.60000E+03,	1.00000E+01,	-2.33626E-02,	1.81879E+01,	2.25363E+00,	-5.62467E-01,	0.00000E+00,	0,	0
  7.51304E+03,	1.00000E+01,	-2.33626E-02,	1.90955E+01,	2.28574E+00,	-7.42075E-01,	0.00000E+00,	0,	0
  5.76000E+03,	1.00000E+01,	-2.33626E-02,	1.99980E+01,	2.33256E+00,	-9.74078E-01,	0.00000E+00,	0,	0
  4.54737E+03,	1.00000E+01,	-2.33626E-02,	2.09046E+01,	2.38520E+00,	-1.22510E+00,	0.00000E+00,	0,	0
  3.60000E+03,	1.00000E+01,	-2.33626E-02,	2.19570E+01,	2.44725E+00,	-1.51873E+00,	0.00000E+00,	0,	0
  2.88000E+03,	1.00000E+01,	-2.33626E-02,	2.28735E+01,	2.52116E+00,	-1.86015E+00,	0.00000E+00,	0,	0
  2.27368E+03,	1.00000E+01,	-2.33626E-02,	2.52229E+01,	2.31535E+00,	-2.27833E+00,	0.00000E+00,	0,	0
  1.78144E+03,	1.00000E+01,	-2.33626E-02,	2.60199E+01,	2.43583E+00,	-2.82811E+00,	0.00000E+00,	0,	0
  1.41639E+03,	1.00000E+01,	-2.33626E-02,	2.69182E+01,	2.57789E+00,	-3.45890E+00,	0.00000E+00,	0,	0
  1.12208E+03,	1.00000E+01,	-2.33626E-02,	2.79503E+01,	2.76039E+00,	-4.23391E+00,	0.00000E+00,	0,	0
  9.00000E+02,	1.00000E+01,	-2.33626E-02,	3.29842E+01,	2.98255E+00,	-5.15237E+00,	0.00000E+00,	0,	0
  7.20000E+02,	1.00000E+01,	-2.33626E-02,	3.44083E+01,	3.25416E+00,	-6.25253E+00,	0.00000E+00,	0,	0
  5.68421E+02,	1.00000E+01,	-2.33626E-02,	3.57720E+01,	3.62295E+00,	-7.67057E+00,	0.00000E+00,	0,	0
  4.40816E+02,	1.00000E+01,	-2.33626E-02,	3.72824E+01,	4.13760E+00,	-9.53767E+00,	0.00000E+00,	0,	0
  3.54098E+02,	1.00000E+01,	-2.33626E-02,	3.96388E+01,	4.70282E+00,	-1.14878E+01,	0.00000E+00,	0,	0
  2.76923E+02,	1.00000E+01,	-2.33626E-02,	4.22955E+01,	5.52060E+00,	-1.41139E+01,	0.00000E+00,	0,	0
  2.20408E+02,	1.00000E+01,	-2.33626E-02,	4.52044E+01,	6.48724E+00,	-1.70534E+01,	0.00000E+00,	0,	0
  1.74194E+02,	1.00000E+01,	-2.33626E-02,	4.84630E+01,	7.73729E+00,	-2.06548E+01,	0.00000E+00,	0,	0
  1.37580E+02,	1.00000E+01,	-2.33626E-02,	5.21313E+01,	9.28851E+00,	-2.49363E+01,	0.00000E+00,	0,	0
  1.09091E+02,	1.00000E+01,	-2.33626E-02,	5.61971E+01,	1.11274E+01,	-2.99373E+01,	0.00000E+00,	0,	0
  8.70968E+01,	1.00000E+01,	-2.33626E-02,	6.44011E+01,	1.32653E+01,	-3.57965E+01,	0.00000E+00,	0,	0
  6.83544E+01,	1.00000E+01,	-2.33626E-02,	6.94285E+01,	1.59240E+01,	-4.33738E+01,	0.00000E+00,	0,	0
  5.45455E+01,	1.00000E+01,	-2.33626E-02,	7.48805E+01,	1.88577E+01,	-5.07718E+01,	0.00000E+00,	0,	0
  4.28571E+01,	1.00000E+01,	-2.33626E-02,	7.84274E+01,	2.22637E+01,	-6.10551E+01,	0.00000E+00,	0,	0
  3.39623E+01,	1.00000E+01,	-2.33626E-02,	8.21761E+01,	2.54814E+01,	-7.30432E+01,	0.00000E+00,	0,	0
  2.68657E+01,	1.00000E+01,	-2.33626E-02,	8.60268E+01,	2.97985E+01,	-8.81581E+01,	0.00000E+00,	0,	0
  2.13439E+01,	1.00000E+01,	-2.33626E-02,	8.99000E+01,	3.45748E+01,	-1.06158E+02,	0.00000E+00,	0,	0
  1.73077E+01,	1.00000E+01,	-2.33626E-02,	9.65691E+01,	3.95960E+01,	-1.26263E+02,	0.00000E+00,	0,	0
  1.36364E+01,	1.00000E+01,	-2.33626E-02,	1.01598E+02,	4.60601E+01,	-1.53878E+02,	0.00000E+00,	0,	0
  1.07143E+01,	1.00000E+01,	-2.33626E-02,	1.04519E+02,	5.38519E+01,	-1.88327E+02,	0.00000E+00,	0,	0
  8.49057E+00,	1.00000E+01,	-2.33626E-02,	1.08722E+02,	6.28299E+01,	-2.29421E+02,	0.00000E+00,	0,	0
  6.71642E+00,	1.00000E+01,	-2.33626E-02,	1.11294E+02,	7.36261E+01,	-2.80025E+02,	0.00000E+00,	0,	0
  5.29412E+00,	1.00000E+01,	-2.33626E-02,	1.14243E+02,	8.67940E+01,	-3.42927E+02,	0.00000E+00,	0,	0
  4.16667E+00,	1.00000E+01,	-2.33626E-02,	1.17723E+02,	1.02504E+02,	-4.20935E+02,	0.00000E+00,	0,	0
  3.30882E+00,	1.00000E+01,	-2.33626E-02,	1.21967E+02,	1.20050E+02,	-5.13219E+02,	0.00000E+00,	0,	0
  2.61628E+00,	1.00000E+01,	-2.33626E-02,	1.25950E+02,	1.40799E+02,	-6.28274E+02,	0.00000E+00,	0,	0
  2.07373E+00,	1.00000E+01,	-2.33626E-02,	1.30717E+02,	1.63962E+02,	-7.69230E+02,	0.00000E+00,	0,	0
  1.64234E+00,	1.00000E+01,	-2.33626E-02,	1.36556E+02,	1.90098E+02,	-9.44517E+02,	0.00000E+00,	0,	0
  1.30058E+00,	1.00000E+01,	-2.33626E-02,	1.40774E+02,	2.20670E+02,	-1.16258E+03,	0.00000E+00,	0,	0
  1.03211E+00,	1.00000E+01,	-2.33626E-02,	1.45172E+02,	2.56199E+02,	-1.43248E+03,	0.00000E+00,	0,	0
  8.15217E-01,	1.00000E+01,	-2.33626E-02,	1.52151E+02,	3.00180E+02,	-1.77491E+03,	0.00000E+00,	0,	0
  6.46552E-01,	1.00000E+01,	-2.33626E-02,	1.61227E+02,	3.53430E+02,	-2.19432E+03,	0.00000E+00,	0,	0
  5.11364E-01,	1.00000E+01,	-2.33626E-02,	1.66285E+02,	4.14075E+02,	-2.72472E+03,	0.00000E+00,	0,	0
  4.07609E-01,	1.00000E+01,	-2.33626E-02,	1.72332E+02,	5.00774E+02,	-3.36225E+03,	0.00000E+00,	0,	0
  3.21429E-01,	1.00000E+01,	-2.33626E-02,	1.79538E+02,	6.15550E+02,	-4.21198E+03,	0.00000E+00,	0,	0
  2.54525E-01,	1.00000E+01,	-2.33626E-02,	1.88317E+02,	7.74107E+02,	-5.22617E+03,	0.00000E+00,	0,	0
  2.01613E-01,	1.00000E+01,	-2.33626E-02,	1.99157E+02,	9.83655E+02,	-6.48253E+03,	0.00000E+00,	0,	0
  1.59574E-01,	1.00000E+01,	-2.33626E-02,	2.12605E+02,	1.26846E+03,	-8.04203E+03,	0.00000E+00,	0,	0
  1.26689E-01,	1.00000E+01,	-2.33626E-02,	2.29536E+02,	1.65093E+03,	-9.93601E+03,	0.00000E+00,	0,	0
  1.00446E-01,	1.00000E+01,	-2.33626E-02,	2.50394E+02,	2.17008E+03,	-1.22835E+04,	0.00000E+00,	0,	0