Z60W Data File: Version 1.1
CorrTest for Windows: SN CS310H1805157  V5.2.1111.9  2.5H6.220118
Sweep Frequency: Control Voltage
  Date:4-30-2026   Time:16:37:54
  Begin Information:            Cell Information
      Surface Area:           1
      Density:                7.8
      Weight:                 28
  End Information:              Cell Information
  Freq (Hz)     Ampl(mV)       Bias(V)      Time(Sec)       Z'(Ohm.cm^2)    Z''(Ohm.cm^2)        GD       Err      Range
End Comments
  3.07200E+05,	1.00000E+01,	-4.41237E-02,	3.33250E-02,	5.67251E+02,	-2.63657E+02,	0.00000E+00,	0,	0
  2.76480E+05,	1.00000E+01,	-4.41237E-02,	1.63462E+00,	5.79759E+02,	-2.84470E+02,	0.00000E+00,	0,	0
  1.97486E+05,	1.00000E+01,	-4.41237E-02,	2.53577E+00,	6.51131E+02,	-3.59508E+02,	0.00000E+00,	0,	0
  1.53600E+05,	1.00000E+01,	-4.41237E-02,	3.42834E+00,	7.08074E+02,	-4.02447E+02,	0.00000E+00,	0,	0
  1.25673E+05,	1.00000E+01,	-4.41237E-02,	4.32123E+00,	7.69414E+02,	-4.40518E+02,	0.00000E+00,	0,	0
  9.87429E+04,	1.00000E+01,	-4.41237E-02,	5.21246E+00,	8.78285E+02,	-4.76027E+02,	0.00000E+00,	0,	0
  7.68000E+04,	1.00000E+01,	-4.41237E-02,	6.12171E+00,	9.92151E+02,	-4.80611E+02,	0.00000E+00,	0,	0
  6.01043E+04,	1.00000E+01,	-4.41237E-02,	7.16793E+00,	1.09894E+03,	-4.77402E+02,	0.00000E+00,	0,	0
  4.93714E+04,	1.00000E+01,	-4.41237E-02,	8.74697E+00,	1.18477E+03,	-4.44710E+02,	0.00000E+00,	0,	0
  3.84000E+04,	1.00000E+01,	-4.41237E-02,	9.65012E+00,	1.26825E+03,	-3.99763E+02,	0.00000E+00,	0,	0
  3.00522E+04,	1.00000E+01,	-4.41237E-02,	1.05426E+01,	1.42255E+03,	-2.31411E+02,	0.00000E+00,	0,	0
  2.38345E+04,	1.00000E+01,	-4.41237E-02,	1.14212E+01,	1.37874E+03,	-2.95639E+02,	0.00000E+00,	0,	0
  1.86811E+04,	1.00000E+01,	-4.41237E-02,	1.22617E+01,	1.45315E+03,	-2.34026E+02,	0.00000E+00,	0,	0
  1.47064E+04,	1.00000E+01,	-4.41237E-02,	1.32544E+01,	1.45852E+03,	-2.03826E+02,	0.00000E+00,	0,	0
  1.15200E+04,	1.00000E+01,	-4.41237E-02,	1.53509E+01,	1.45439E+03,	-1.76980E+02,	0.00000E+00,	0,	0
  9.60000E+03,	1.00000E+01,	-4.41237E-02,	1.69345E+01,	1.46887E+03,	-1.78778E+02,	0.00000E+00,	0,	0
  7.51304E+03,	1.00000E+01,	-4.41237E-02,	1.77818E+01,	1.47967E+03,	-1.45567E+02,	0.00000E+00,	0,	0
  5.76000E+03,	1.00000E+01,	-4.41237E-02,	1.86825E+01,	1.48515E+03,	-1.36983E+02,	0.00000E+00,	0,	0
  4.54737E+03,	1.00000E+01,	-4.41237E-02,	1.95492E+01,	1.51684E+03,	-1.27319E+02,	0.00000E+00,	0,	0
  3.60000E+03,	1.00000E+01,	-4.41237E-02,	2.05566E+01,	1.51913E+03,	-1.37792E+02,	0.00000E+00,	0,	0
  2.88000E+03,	1.00000E+01,	-4.41237E-02,	2.14681E+01,	1.54940E+03,	-1.23697E+02,	0.00000E+00,	0,	0
  2.27368E+03,	1.00000E+01,	-4.41237E-02,	2.25944E+01,	1.56419E+03,	-1.25476E+02,	0.00000E+00,	0,	0
  1.78144E+03,	1.00000E+01,	-4.41237E-02,	2.33685E+01,	1.56725E+03,	-1.06282E+02,	0.00000E+00,	0,	0
  1.41639E+03,	1.00000E+01,	-4.41237E-02,	2.42628E+01,	1.61017E+03,	-1.41047E+02,	0.00000E+00,	0,	0
  1.12208E+03,	1.00000E+01,	-4.41237E-02,	2.53313E+01,	1.62279E+03,	-8.09516E+01,	0.00000E+00,	0,	0
  9.00000E+02,	1.00000E+01,	-4.41237E-02,	3.03310E+01,	1.63190E+03,	-9.80316E+01,	0.00000E+00,	0,	0
  7.20000E+02,	1.00000E+01,	-4.41237E-02,	3.16955E+01,	1.64544E+03,	-8.98120E+01,	0.00000E+00,	0,	0
  5.68421E+02,	1.00000E+01,	-4.41237E-02,	3.31045E+01,	1.65419E+03,	-8.18101E+01,	0.00000E+00,	0,	0
  4.40816E+02,	1.00000E+01,	-4.41237E-02,	3.61379E+01,	1.66217E+03,	-7.29905E+01,	0.00000E+00,	0,	0
  3.54098E+02,	1.00000E+01,	-4.41237E-02,	3.84918E+01,	1.66649E+03,	-6.99067E+01,	0.00000E+00,	0,	0
  2.76923E+02,	1.00000E+01,	-4.41237E-02,	4.11305E+01,	1.67176E+03,	-6.92314E+01,	0.00000E+00,	0,	0
  2.20408E+02,	1.00000E+01,	-4.41237E-02,	4.40742E+01,	1.67589E+03,	-7.09568E+01,	0.00000E+00,	0,	0
  1.74194E+02,	1.00000E+01,	-4.41237E-02,	4.73493E+01,	1.68076E+03,	-7.67917E+01,	0.00000E+00,	0,	0
  1.37580E+02,	1.00000E+01,	-4.41237E-02,	5.10684E+01,	1.68493E+03,	-8.44793E+01,	0.00000E+00,	0,	0
  1.09091E+02,	1.00000E+01,	-4.41237E-02,	5.51480E+01,	1.68995E+03,	-9.55159E+01,	0.00000E+00,	0,	0
  8.70968E+01,	1.00000E+01,	-4.41237E-02,	6.08668E+01,	1.69878E+03,	-1.12702E+02,	0.00000E+00,	0,	0
  6.83544E+01,	1.00000E+01,	-4.41237E-02,	6.59035E+01,	1.71601E+03,	-1.36753E+02,	0.00000E+00,	0,	0
  5.45455E+01,	1.00000E+01,	-4.41237E-02,	7.13477E+01,	1.70328E+03,	-1.45833E+02,	0.00000E+00,	0,	0
  4.28571E+01,	1.00000E+01,	-4.41237E-02,	7.48770E+01,	1.71199E+03,	-1.75230E+02,	0.00000E+00,	0,	0
  3.39623E+01,	1.00000E+01,	-4.41237E-02,	7.85991E+01,	1.71474E+03,	-2.18679E+02,	0.00000E+00,	0,	0
  2.68657E+01,	1.00000E+01,	-4.41237E-02,	8.24357E+01,	1.73422E+03,	-2.60341E+02,	0.00000E+00,	0,	0
  2.13439E+01,	1.00000E+01,	-4.41237E-02,	8.62864E+01,	1.75174E+03,	-3.10871E+02,	0.00000E+00,	0,	0
  1.73077E+01,	1.00000E+01,	-4.41237E-02,	8.99514E+01,	1.76913E+03,	-3.67172E+02,	0.00000E+00,	0,	0
  1.36364E+01,	1.00000E+01,	-4.41237E-02,	9.49962E+01,	1.79097E+03,	-4.45047E+02,	0.00000E+00,	0,	0
  1.07143E+01,	1.00000E+01,	-4.41237E-02,	9.79267E+01,	1.81657E+03,	-5.42055E+02,	0.00000E+00,	0,	0
  8.49057E+00,	1.00000E+01,	-4.41237E-02,	1.02138E+02,	1.84880E+03,	-6.55851E+02,	0.00000E+00,	0,	0
  6.71642E+00,	1.00000E+01,	-4.41237E-02,	1.04648E+02,	1.88150E+03,	-7.97413E+02,	0.00000E+00,	0,	0
  5.29412E+00,	1.00000E+01,	-4.41237E-02,	1.07595E+02,	1.92257E+03,	-9.72388E+02,	0.00000E+00,	0,	0
  4.16667E+00,	1.00000E+01,	-4.41237E-02,	1.11067E+02,	1.97268E+03,	-1.19025E+03,	0.00000E+00,	0,	0
  3.30882E+00,	1.00000E+01,	-4.41237E-02,	1.15309E+02,	2.02935E+03,	-1.44813E+03,	0.00000E+00,	0,	0
  2.61628E+00,	1.00000E+01,	-4.41237E-02,	1.19306E+02,	2.09941E+03,	-1.77091E+03,	0.00000E+00,	0,	0
  2.07373E+00,	1.00000E+01,	-4.41237E-02,	1.24063E+02,	2.18436E+03,	-2.16431E+03,	0.00000E+00,	0,	0
  1.64234E+00,	1.00000E+01,	-4.41237E-02,	1.29852E+02,	2.28815E+03,	-2.64945E+03,	0.00000E+00,	0,	0
  1.30058E+00,	1.00000E+01,	-4.41237E-02,	1.34026E+02,	2.41860E+03,	-3.24398E+03,	0.00000E+00,	0,	0
  1.03211E+00,	1.00000E+01,	-4.41237E-02,	1.38485E+02,	2.58847E+03,	-3.97033E+03,	0.00000E+00,	0,	0
  8.15217E-01,	1.00000E+01,	-4.41237E-02,	1.45419E+02,	2.79439E+03,	-4.86891E+03,	0.00000E+00,	0,	0
  6.46552E-01,	1.00000E+01,	-4.41237E-02,	1.50233E+02,	3.06453E+03,	-5.95232E+03,	0.00000E+00,	0,	0
  5.11364E-01,	1.00000E+01,	-4.41237E-02,	1.55244E+02,	3.34913E+03,	-7.33278E+03,	0.00000E+00,	0,	0
  4.07609E-01,	1.00000E+01,	-4.41237E-02,	1.61296E+02,	3.77446E+03,	-8.89863E+03,	0.00000E+00,	0,	0
  3.21429E-01,	1.00000E+01,	-4.41237E-02,	1.68432E+02,	4.37719E+03,	-1.10383E+04,	0.00000E+00,	0,	0
  2.54525E-01,	1.00000E+01,	-4.41237E-02,	1.77209E+02,	5.09019E+03,	-1.33707E+04,	0.00000E+00,	0,	0
  2.01613E-01,	1.00000E+01,	-4.41237E-02,	1.88086E+02,	5.95741E+03,	-1.61907E+04,	0.00000E+00,	0,	0
  1.59574E-01,	1.00000E+01,	-4.41237E-02,	2.01537E+02,	7.02435E+03,	-1.95778E+04,	0.00000E+00,	0,	0
  1.26689E-01,	1.00000E+01,	-4.41237E-02,	2.35449E+02,	8.29024E+03,	-2.32083E+04,	0.00000E+00,	0,	0
  1.00446E-01,	1.00000E+01,	-4.41237E-02,	2.56309E+02,	9.67871E+03,	-2.87229E+04,	0.00000E+00,	0,	0