Z60W Data File: Version 1.1
CorrTest for Windows: SN CS310H1805157  V5.2.1111.9  2.5H6.220118
Sweep Frequency: Control Voltage
  Date:4-30-2026   Time:15:21:19
  Begin Information:            Cell Information
      Surface Area:           1
      Density:                7.8
      Weight:                 28
  End Information:              Cell Information
  Freq (Hz)     Ampl(mV)       Bias(V)      Time(Sec)       Z'(Ohm.cm^2)    Z''(Ohm.cm^2)        GD       Err      Range
End Comments
  3.07200E+05,	1.00000E+01,	-3.98639E-02,	7.54941E-02,	2.34762E+02,	-4.82629E+01,	0.00000E+00,	0,	0
  2.76480E+05,	1.00000E+01,	-3.98639E-02,	1.67559E+00,	2.38126E+02,	-5.21616E+01,	0.00000E+00,	0,	0
  1.97486E+05,	1.00000E+01,	-3.98639E-02,	2.57356E+00,	2.59186E+02,	-6.20481E+01,	0.00000E+00,	0,	0
  1.53600E+05,	1.00000E+01,	-3.98639E-02,	3.47861E+00,	2.75748E+02,	-6.29813E+01,	0.00000E+00,	0,	0
  1.25673E+05,	1.00000E+01,	-3.98639E-02,	4.37013E+00,	2.87880E+02,	-5.94446E+01,	0.00000E+00,	0,	0
  9.87429E+04,	1.00000E+01,	-3.98639E-02,	5.29781E+00,	3.00764E+02,	-5.64056E+01,	0.00000E+00,	0,	0
  7.68000E+04,	1.00000E+01,	-3.98639E-02,	6.19879E+00,	3.12007E+02,	-5.03212E+01,	0.00000E+00,	0,	0
  6.01043E+04,	1.00000E+01,	-3.98639E-02,	7.19236E+00,	3.19319E+02,	-4.42090E+01,	0.00000E+00,	0,	0
  4.93714E+04,	1.00000E+01,	-3.98639E-02,	8.79254E+00,	3.24431E+02,	-3.90477E+01,	0.00000E+00,	0,	0
  3.84000E+04,	1.00000E+01,	-3.98639E-02,	9.70155E+00,	3.29032E+02,	-3.49182E+01,	0.00000E+00,	0,	0
  3.00522E+04,	1.00000E+01,	-3.98639E-02,	1.05554E+01,	3.39381E+02,	-3.15851E+01,	0.00000E+00,	0,	0
  2.38345E+04,	1.00000E+01,	-3.98639E-02,	1.14412E+01,	3.35698E+02,	-2.57505E+01,	0.00000E+00,	0,	0
  1.86811E+04,	1.00000E+01,	-3.98639E-02,	1.23067E+01,	3.38032E+02,	-2.54464E+01,	0.00000E+00,	0,	0
  1.47064E+04,	1.00000E+01,	-3.98639E-02,	1.32771E+01,	3.37711E+02,	-2.29075E+01,	0.00000E+00,	0,	0
  1.15200E+04,	1.00000E+01,	-3.98639E-02,	1.42588E+01,	3.42640E+02,	-2.12697E+01,	0.00000E+00,	0,	0
  9.60000E+03,	1.00000E+01,	-3.98639E-02,	1.58221E+01,	3.45336E+02,	-2.10253E+01,	0.00000E+00,	0,	0
  7.51304E+03,	1.00000E+01,	-3.98639E-02,	1.67081E+01,	3.47580E+02,	-2.23532E+01,	0.00000E+00,	0,	0
  5.76000E+03,	1.00000E+01,	-3.98639E-02,	1.76118E+01,	3.50928E+02,	-2.32384E+01,	0.00000E+00,	0,	0
  4.54737E+03,	1.00000E+01,	-3.98639E-02,	1.84794E+01,	3.55839E+02,	-2.09952E+01,	0.00000E+00,	0,	0
  3.60000E+03,	1.00000E+01,	-3.98639E-02,	1.94811E+01,	3.60157E+02,	-2.22226E+01,	0.00000E+00,	0,	0
  2.88000E+03,	1.00000E+01,	-3.98639E-02,	2.04037E+01,	3.62621E+02,	-2.25119E+01,	0.00000E+00,	0,	0
  2.27368E+03,	1.00000E+01,	-3.98639E-02,	2.26850E+01,	3.65459E+02,	-1.88012E+01,	0.00000E+00,	0,	0
  1.78144E+03,	1.00000E+01,	-3.98639E-02,	2.34820E+01,	3.68733E+02,	-1.72103E+01,	0.00000E+00,	0,	0
  1.41639E+03,	1.00000E+01,	-3.98639E-02,	2.44000E+01,	3.72123E+02,	-1.66218E+01,	0.00000E+00,	0,	0
  1.12208E+03,	1.00000E+01,	-3.98639E-02,	2.54253E+01,	3.73189E+02,	-1.71228E+01,	0.00000E+00,	0,	0
  9.00000E+02,	1.00000E+01,	-3.98639E-02,	3.04025E+01,	3.75759E+02,	-1.70912E+01,	0.00000E+00,	0,	0
  7.20000E+02,	1.00000E+01,	-3.98639E-02,	3.18055E+01,	3.77194E+02,	-1.77097E+01,	0.00000E+00,	0,	0
  5.68421E+02,	1.00000E+01,	-3.98639E-02,	3.32046E+01,	3.78495E+02,	-1.90684E+01,	0.00000E+00,	0,	0
  4.40816E+02,	1.00000E+01,	-3.98639E-02,	3.46389E+01,	3.80074E+02,	-2.13956E+01,	0.00000E+00,	0,	0
  3.54098E+02,	1.00000E+01,	-3.98639E-02,	3.69945E+01,	3.81315E+02,	-2.39188E+01,	0.00000E+00,	0,	0
  2.76923E+02,	1.00000E+01,	-3.98639E-02,	3.96402E+01,	3.83415E+02,	-2.79540E+01,	0.00000E+00,	0,	0
  2.20408E+02,	1.00000E+01,	-3.98639E-02,	4.26089E+01,	3.85389E+02,	-3.27202E+01,	0.00000E+00,	0,	0
  1.74194E+02,	1.00000E+01,	-3.98639E-02,	4.58733E+01,	3.87852E+02,	-3.89023E+01,	0.00000E+00,	0,	0
  1.37580E+02,	1.00000E+01,	-3.98639E-02,	4.95888E+01,	3.90606E+02,	-4.68214E+01,	0.00000E+00,	0,	0
  1.09091E+02,	1.00000E+01,	-3.98639E-02,	5.36684E+01,	3.94149E+02,	-5.63849E+01,	0.00000E+00,	0,	0
  8.70968E+01,	1.00000E+01,	-3.98639E-02,	5.93618E+01,	3.98586E+02,	-6.82853E+01,	0.00000E+00,	0,	0
  6.83544E+01,	1.00000E+01,	-3.98639E-02,	6.44193E+01,	4.05365E+02,	-8.43486E+01,	0.00000E+00,	0,	0
  5.45455E+01,	1.00000E+01,	-3.98639E-02,	6.98814E+01,	4.06002E+02,	-9.73536E+01,	0.00000E+00,	0,	0
  4.28571E+01,	1.00000E+01,	-3.98639E-02,	7.34440E+01,	4.11560E+02,	-1.19256E+02,	0.00000E+00,	0,	0
  3.39623E+01,	1.00000E+01,	-3.98639E-02,	7.72100E+01,	4.15770E+02,	-1.46913E+02,	0.00000E+00,	0,	0
  2.68657E+01,	1.00000E+01,	-3.98639E-02,	8.11007E+01,	4.25418E+02,	-1.79066E+02,	0.00000E+00,	0,	0
  2.13439E+01,	1.00000E+01,	-3.98639E-02,	8.49029E+01,	4.35215E+02,	-2.17783E+02,	0.00000E+00,	0,	0
  1.73077E+01,	1.00000E+01,	-3.98639E-02,	8.85650E+01,	4.45487E+02,	-2.60813E+02,	0.00000E+00,	0,	0
  1.36364E+01,	1.00000E+01,	-3.98639E-02,	9.35836E+01,	4.59364E+02,	-3.20593E+02,	0.00000E+00,	0,	0
  1.07143E+01,	1.00000E+01,	-3.98639E-02,	9.65394E+01,	4.76109E+02,	-3.95340E+02,	0.00000E+00,	0,	0
  8.49057E+00,	1.00000E+01,	-3.98639E-02,	1.00738E+02,	4.97077E+02,	-4.84333E+02,	0.00000E+00,	0,	0
  6.71642E+00,	1.00000E+01,	-3.98639E-02,	1.03292E+02,	5.22936E+02,	-5.94796E+02,	0.00000E+00,	0,	0
  5.29412E+00,	1.00000E+01,	-3.98639E-02,	1.06220E+02,	5.56294E+02,	-7.31406E+02,	0.00000E+00,	0,	0
  4.16667E+00,	1.00000E+01,	-3.98639E-02,	1.09716E+02,	6.00381E+02,	-9.00418E+02,	0.00000E+00,	0,	0
  3.30882E+00,	1.00000E+01,	-3.98639E-02,	1.16300E+02,	6.54735E+02,	-1.09705E+03,	0.00000E+00,	0,	0
  2.61628E+00,	1.00000E+01,	-3.98639E-02,	1.20272E+02,	7.25767E+02,	-1.33945E+03,	0.00000E+00,	0,	0
  2.07373E+00,	1.00000E+01,	-3.98639E-02,	1.25052E+02,	8.14847E+02,	-1.62800E+03,	0.00000E+00,	0,	0
  1.64234E+00,	1.00000E+01,	-3.98639E-02,	1.30857E+02,	9.26180E+02,	-1.97400E+03,	0.00000E+00,	0,	0
  1.30058E+00,	1.00000E+01,	-3.98639E-02,	1.35017E+02,	1.06317E+03,	-2.38504E+03,	0.00000E+00,	0,	0
  1.03211E+00,	1.00000E+01,	-3.98639E-02,	1.39450E+02,	1.22879E+03,	-2.87392E+03,	0.00000E+00,	0,	0
  8.15217E-01,	1.00000E+01,	-3.98639E-02,	1.46394E+02,	1.42169E+03,	-3.46193E+03,	0.00000E+00,	0,	0
  6.46552E-01,	1.00000E+01,	-3.98639E-02,	1.51181E+02,	1.64714E+03,	-4.15593E+03,	0.00000E+00,	0,	0
  5.11364E-01,	1.00000E+01,	-3.98639E-02,	1.56187E+02,	1.84923E+03,	-5.03534E+03,	0.00000E+00,	0,	0
  4.07609E-01,	1.00000E+01,	-3.98639E-02,	1.62238E+02,	2.13038E+03,	-6.04060E+03,	0.00000E+00,	0,	0
  3.21429E-01,	1.00000E+01,	-3.98639E-02,	1.69362E+02,	2.47772E+03,	-7.43384E+03,	0.00000E+00,	0,	0
  2.54525E-01,	1.00000E+01,	-3.98639E-02,	1.78123E+02,	2.87170E+03,	-8.97952E+03,	0.00000E+00,	0,	0
  2.01613E-01,	1.00000E+01,	-3.98639E-02,	1.88951E+02,	3.31812E+03,	-1.08998E+04,	0.00000E+00,	0,	0
  1.59574E-01,	1.00000E+01,	-3.98639E-02,	2.02444E+02,	3.84895E+03,	-1.32708E+04,	0.00000E+00,	0,	0
  1.26689E-01,	1.00000E+01,	-3.98639E-02,	2.36335E+02,	4.50688E+03,	-1.59400E+04,	0.00000E+00,	0,	0
  1.00446E-01,	1.00000E+01,	-3.98639E-02,	2.57227E+02,	5.18626E+03,	-1.99706E+04,	0.00000E+00,	0,	0