Z60W Data File: Version 1.1
CorrTest for Windows: SN CS310H1805157  V5.2.1111.9  2.5H6.220118
Sweep Frequency: Control Voltage
  Date:4-30-2026   Time:08:52:28
  Begin Information:            Cell Information
      Surface Area:           1
      Density:                7.8
      Weight:                 28
  End Information:              Cell Information
  Freq (Hz)     Ampl(mV)       Bias(V)      Time(Sec)       Z'(Ohm.cm^2)    Z''(Ohm.cm^2)        GD       Err      Range
End Comments
  3.07200E+05,	1.00000E+01,	-2.26554E-02,	5.98985E-02,	-3.27784E-01,	4.16355E+00,	0.00000E+00,	0,	0
  2.76480E+05,	1.00000E+01,	-2.26554E-02,	1.67855E+00,	3.09473E-01,	3.13015E+00,	0.00000E+00,	0,	0
  1.97486E+05,	1.00000E+01,	-2.26554E-02,	2.61637E+00,	1.14253E+00,	2.18680E+00,	0.00000E+00,	0,	0
  1.53600E+05,	1.00000E+01,	-2.26554E-02,	3.55112E+00,	1.50115E+00,	1.64473E+00,	0.00000E+00,	0,	0
  1.25673E+05,	1.00000E+01,	-2.26554E-02,	4.44776E+00,	1.70628E+00,	1.29746E+00,	0.00000E+00,	0,	0
  9.87429E+04,	1.00000E+01,	-2.26554E-02,	5.34927E+00,	1.87154E+00,	9.78451E-01,	0.00000E+00,	0,	0
  7.68000E+04,	1.00000E+01,	-2.26554E-02,	6.27905E+00,	1.97549E+00,	7.36835E-01,	0.00000E+00,	0,	0
  6.01043E+04,	1.00000E+01,	-2.26554E-02,	9.49565E+00,	2.05473E+00,	4.94221E-01,	0.00000E+00,	0,	0
  4.93714E+04,	1.00000E+01,	-2.26554E-02,	1.11114E+01,	2.07028E+00,	3.61200E-01,	0.00000E+00,	0,	0
  3.84000E+04,	1.00000E+01,	-2.26554E-02,	1.20148E+01,	2.08573E+00,	2.13351E-01,	0.00000E+00,	0,	0
  3.00522E+04,	1.00000E+01,	-2.26554E-02,	1.28815E+01,	2.09563E+00,	8.21455E-02,	0.00000E+00,	0,	0
  2.38345E+04,	1.00000E+01,	-2.26554E-02,	1.37462E+01,	2.10789E+00,	-3.56297E-02,	0.00000E+00,	0,	0
  1.86811E+04,	1.00000E+01,	-2.26554E-02,	1.45968E+01,	2.12408E+00,	-1.58267E-01,	0.00000E+00,	0,	0
  1.47064E+04,	1.00000E+01,	-2.26554E-02,	1.55531E+01,	2.14089E+00,	-2.83281E-01,	0.00000E+00,	0,	0
  1.15200E+04,	1.00000E+01,	-2.26554E-02,	1.65215E+01,	2.16409E+00,	-4.22127E-01,	0.00000E+00,	0,	0
  9.60000E+03,	1.00000E+01,	-2.26554E-02,	1.81002E+01,	2.18340E+00,	-5.35043E-01,	0.00000E+00,	0,	0
  7.51304E+03,	1.00000E+01,	-2.26554E-02,	1.90092E+01,	2.21607E+00,	-7.09188E-01,	0.00000E+00,	0,	0
  5.76000E+03,	1.00000E+01,	-2.26554E-02,	1.99206E+01,	2.26305E+00,	-9.28691E-01,	0.00000E+00,	0,	0
  4.54737E+03,	1.00000E+01,	-2.26554E-02,	2.07853E+01,	2.31139E+00,	-1.16547E+00,	0.00000E+00,	0,	0
  3.60000E+03,	1.00000E+01,	-2.26554E-02,	2.17801E+01,	2.36848E+00,	-1.44872E+00,	0.00000E+00,	0,	0
  2.88000E+03,	1.00000E+01,	-2.26554E-02,	2.27054E+01,	2.43369E+00,	-1.77434E+00,	0.00000E+00,	0,	0
  2.27368E+03,	1.00000E+01,	-2.26554E-02,	2.49980E+01,	2.50619E+00,	-2.17893E+00,	0.00000E+00,	0,	0
  1.78144E+03,	1.00000E+01,	-2.26554E-02,	2.57804E+01,	2.62355E+00,	-2.70312E+00,	0.00000E+00,	0,	0
  1.41639E+03,	1.00000E+01,	-2.26554E-02,	2.66941E+01,	2.76018E+00,	-3.30783E+00,	0.00000E+00,	0,	0
  1.12208E+03,	1.00000E+01,	-2.26554E-02,	2.77454E+01,	2.94041E+00,	-4.05663E+00,	0.00000E+00,	0,	0
  9.00000E+02,	1.00000E+01,	-2.26554E-02,	3.27296E+01,	3.15160E+00,	-4.93175E+00,	0.00000E+00,	0,	0
  7.20000E+02,	1.00000E+01,	-2.26554E-02,	3.41341E+01,	3.41313E+00,	-5.98397E+00,	0.00000E+00,	0,	0
  5.68421E+02,	1.00000E+01,	-2.26554E-02,	3.55311E+01,	3.76958E+00,	-7.33871E+00,	0.00000E+00,	0,	0
  4.40816E+02,	1.00000E+01,	-2.26554E-02,	3.69647E+01,	4.26707E+00,	-9.12256E+00,	0.00000E+00,	0,	0
  3.54098E+02,	1.00000E+01,	-2.26554E-02,	3.93076E+01,	4.81250E+00,	-1.09804E+01,	0.00000E+00,	0,	0
  2.76923E+02,	1.00000E+01,	-2.26554E-02,	4.19456E+01,	5.60221E+00,	-1.34845E+01,	0.00000E+00,	0,	0
  2.20408E+02,	1.00000E+01,	-2.26554E-02,	4.49127E+01,	6.53326E+00,	-1.62794E+01,	0.00000E+00,	0,	0
  1.74194E+02,	1.00000E+01,	-2.26554E-02,	4.81809E+01,	7.73183E+00,	-1.96953E+01,	0.00000E+00,	0,	0
  1.37580E+02,	1.00000E+01,	-2.26554E-02,	5.18897E+01,	9.20660E+00,	-2.37564E+01,	0.00000E+00,	0,	0
  1.09091E+02,	1.00000E+01,	-2.26554E-02,	5.59495E+01,	1.09450E+01,	-2.84970E+01,	0.00000E+00,	0,	0
  8.70968E+01,	1.00000E+01,	-2.26554E-02,	6.40734E+01,	1.29519E+01,	-3.40587E+01,	0.00000E+00,	0,	0
  6.83544E+01,	1.00000E+01,	-2.26554E-02,	6.91161E+01,	1.54294E+01,	-4.12689E+01,	0.00000E+00,	0,	0
  5.45455E+01,	1.00000E+01,	-2.26554E-02,	7.45490E+01,	1.81537E+01,	-4.83333E+01,	0.00000E+00,	0,	0
  4.28571E+01,	1.00000E+01,	-2.26554E-02,	7.81196E+01,	2.13192E+01,	-5.81844E+01,	0.00000E+00,	0,	0
  3.39623E+01,	1.00000E+01,	-2.26554E-02,	8.18388E+01,	2.43005E+01,	-6.96927E+01,	0.00000E+00,	0,	0
  2.68657E+01,	1.00000E+01,	-2.26554E-02,	8.57133E+01,	2.83582E+01,	-8.42160E+01,	0.00000E+00,	0,	0
  2.13439E+01,	1.00000E+01,	-2.26554E-02,	8.95875E+01,	3.28632E+01,	-1.01534E+02,	0.00000E+00,	0,	0
  1.73077E+01,	1.00000E+01,	-2.26554E-02,	9.62542E+01,	3.76195E+01,	-1.20847E+02,	0.00000E+00,	0,	0
  1.36364E+01,	1.00000E+01,	-2.26554E-02,	1.01272E+02,	4.37769E+01,	-1.47329E+02,	0.00000E+00,	0,	0
  1.07143E+01,	1.00000E+01,	-2.26554E-02,	1.04218E+02,	5.12018E+01,	-1.80357E+02,	0.00000E+00,	0,	0
  8.49057E+00,	1.00000E+01,	-2.26554E-02,	1.08451E+02,	5.96800E+01,	-2.19590E+02,	0.00000E+00,	0,	0
  6.71642E+00,	1.00000E+01,	-2.26554E-02,	1.10993E+02,	6.99107E+01,	-2.68236E+02,	0.00000E+00,	0,	0
  5.29412E+00,	1.00000E+01,	-2.26554E-02,	1.13921E+02,	8.22926E+01,	-3.28551E+02,	0.00000E+00,	0,	0
  4.16667E+00,	1.00000E+01,	-2.26554E-02,	1.17386E+02,	9.68397E+01,	-4.03686E+02,	0.00000E+00,	0,	0
  3.30882E+00,	1.00000E+01,	-2.26554E-02,	1.21631E+02,	1.13163E+02,	-4.92447E+02,	0.00000E+00,	0,	0
  2.61628E+00,	1.00000E+01,	-2.26554E-02,	1.25608E+02,	1.32425E+02,	-6.03653E+02,	0.00000E+00,	0,	0
  2.07373E+00,	1.00000E+01,	-2.26554E-02,	1.30377E+02,	1.54361E+02,	-7.40121E+02,	0.00000E+00,	0,	0
  1.64234E+00,	1.00000E+01,	-2.26554E-02,	1.36206E+02,	1.79712E+02,	-9.09738E+02,	0.00000E+00,	0,	0
  1.30058E+00,	1.00000E+01,	-2.26554E-02,	1.40396E+02,	2.10024E+02,	-1.12122E+03,	0.00000E+00,	0,	0
  1.03211E+00,	1.00000E+01,	-2.26554E-02,	1.44795E+02,	2.45993E+02,	-1.38206E+03,	0.00000E+00,	0,	0
  8.15217E-01,	1.00000E+01,	-2.26554E-02,	1.51755E+02,	2.91228E+02,	-1.71330E+03,	0.00000E+00,	0,	0
  6.46552E-01,	1.00000E+01,	-2.26554E-02,	1.60837E+02,	3.47161E+02,	-2.11748E+03,	0.00000E+00,	0,	0
  5.11364E-01,	1.00000E+01,	-2.26554E-02,	1.65867E+02,	4.13499E+02,	-2.62827E+03,	0.00000E+00,	0,	0
  4.07609E-01,	1.00000E+01,	-2.26554E-02,	1.71923E+02,	5.07393E+02,	-3.24099E+03,	0.00000E+00,	0,	0
  3.21429E-01,	1.00000E+01,	-2.26554E-02,	1.79042E+02,	6.35725E+02,	-4.05541E+03,	0.00000E+00,	0,	0
  2.54525E-01,	1.00000E+01,	-2.26554E-02,	1.87848E+02,	8.14553E+02,	-5.02479E+03,	0.00000E+00,	0,	0
  2.01613E-01,	1.00000E+01,	-2.26554E-02,	1.98693E+02,	1.05430E+03,	-6.22247E+03,	0.00000E+00,	0,	0
  1.59574E-01,	1.00000E+01,	-2.26554E-02,	2.12148E+02,	1.38527E+03,	-7.70084E+03,	0.00000E+00,	0,	0
  1.26689E-01,	1.00000E+01,	-2.26554E-02,	2.29053E+02,	1.83565E+03,	-9.48420E+03,	0.00000E+00,	0,	0
  1.00446E-01,	1.00000E+01,	-2.26554E-02,	2.49926E+02,	2.46015E+03,	-1.16748E+04,	0.00000E+00,	0,	0