Z60W Data File: Version 1.1
CorrTest for Windows: SN CS310H1805157  V5.2.1111.9  2.5H6.220118
Sweep Frequency: Control Voltage
  Date:4-29-2026   Time:20:36:15
  Begin Information:            Cell Information
      Surface Area:           1
      Density:                7.8
      Weight:                 28
  End Information:              Cell Information
  Freq (Hz)     Ampl(mV)       Bias(V)      Time(Sec)       Z'(Ohm.cm^2)    Z''(Ohm.cm^2)        GD       Err      Range
End Comments
  3.07200E+05,	1.00000E+01,	-1.99951E-02,	2.40313E-02,	-4.41135E-01,	4.21891E+00,	0.00000E+00,	0,	0
  2.76480E+05,	1.00000E+01,	-1.99951E-02,	1.63783E+00,	1.73363E-01,	3.08777E+00,	0.00000E+00,	0,	0
  1.97486E+05,	1.00000E+01,	-1.99951E-02,	2.56635E+00,	1.09454E+00,	2.22150E+00,	0.00000E+00,	0,	0
  1.53600E+05,	1.00000E+01,	-1.99951E-02,	3.46825E+00,	1.46273E+00,	1.67166E+00,	0.00000E+00,	0,	0
  1.25673E+05,	1.00000E+01,	-1.99951E-02,	4.39239E+00,	1.66045E+00,	1.31482E+00,	0.00000E+00,	0,	0
  9.87429E+04,	1.00000E+01,	-1.99951E-02,	5.30611E+00,	1.83472E+00,	9.95979E-01,	0.00000E+00,	0,	0
  7.68000E+04,	1.00000E+01,	-1.99951E-02,	6.22974E+00,	1.94047E+00,	7.49847E-01,	0.00000E+00,	0,	0
  6.01043E+04,	1.00000E+01,	-1.99951E-02,	9.49027E+00,	2.02735E+00,	5.13605E-01,	0.00000E+00,	0,	0
  4.93714E+04,	1.00000E+01,	-1.99951E-02,	1.10517E+01,	2.04535E+00,	3.79325E-01,	0.00000E+00,	0,	0
  3.84000E+04,	1.00000E+01,	-1.99951E-02,	1.19455E+01,	2.05958E+00,	2.32652E-01,	0.00000E+00,	0,	0
  3.00522E+04,	1.00000E+01,	-1.99951E-02,	1.28172E+01,	2.07042E+00,	1.05860E-01,	0.00000E+00,	0,	0
  2.38345E+04,	1.00000E+01,	-1.99951E-02,	1.37012E+01,	2.08032E+00,	-6.37463E-03,	0.00000E+00,	0,	0
  1.86811E+04,	1.00000E+01,	-1.99951E-02,	1.45371E+01,	2.09535E+00,	-1.24526E-01,	0.00000E+00,	0,	0
  1.47064E+04,	1.00000E+01,	-1.99951E-02,	1.54989E+01,	2.11288E+00,	-2.43661E-01,	0.00000E+00,	0,	0
  1.15200E+04,	1.00000E+01,	-1.99951E-02,	1.64974E+01,	2.13650E+00,	-3.72402E-01,	0.00000E+00,	0,	0
  9.60000E+03,	1.00000E+01,	-1.99951E-02,	1.80836E+01,	2.15603E+00,	-4.77276E-01,	0.00000E+00,	0,	0
  7.51304E+03,	1.00000E+01,	-1.99951E-02,	1.89494E+01,	2.18725E+00,	-6.35540E-01,	0.00000E+00,	0,	0
  5.76000E+03,	1.00000E+01,	-1.99951E-02,	1.98457E+01,	2.22933E+00,	-8.38228E-01,	0.00000E+00,	0,	0
  4.54737E+03,	1.00000E+01,	-1.99951E-02,	2.07236E+01,	2.27401E+00,	-1.05606E+00,	0.00000E+00,	0,	0
  3.60000E+03,	1.00000E+01,	-1.99951E-02,	2.17368E+01,	2.33182E+00,	-1.31050E+00,	0.00000E+00,	0,	0
  2.88000E+03,	1.00000E+01,	-1.99951E-02,	2.26482E+01,	2.39510E+00,	-1.60313E+00,	0.00000E+00,	0,	0
  2.27368E+03,	1.00000E+01,	-1.99951E-02,	2.49328E+01,	2.17088E+00,	-1.96847E+00,	0.00000E+00,	0,	0
  1.78144E+03,	1.00000E+01,	-1.99951E-02,	2.57510E+01,	2.27333E+00,	-2.43847E+00,	0.00000E+00,	0,	0
  1.41639E+03,	1.00000E+01,	-1.99951E-02,	2.66551E+01,	2.39953E+00,	-2.98383E+00,	0.00000E+00,	0,	0
  1.12208E+03,	1.00000E+01,	-1.99951E-02,	2.76752E+01,	2.55947E+00,	-3.65584E+00,	0.00000E+00,	0,	0
  9.00000E+02,	1.00000E+01,	-1.99951E-02,	3.26524E+01,	2.75556E+00,	-4.43964E+00,	0.00000E+00,	0,	0
  7.20000E+02,	1.00000E+01,	-1.99951E-02,	3.40198E+01,	2.99350E+00,	-5.38406E+00,	0.00000E+00,	0,	0
  5.68421E+02,	1.00000E+01,	-1.99951E-02,	3.53789E+01,	3.31131E+00,	-6.59738E+00,	0.00000E+00,	0,	0
  4.40816E+02,	1.00000E+01,	-1.99951E-02,	3.68236E+01,	3.75175E+00,	-8.19315E+00,	0.00000E+00,	0,	0
  3.54098E+02,	1.00000E+01,	-1.99951E-02,	3.91449E+01,	4.23134E+00,	-9.85813E+00,	0.00000E+00,	0,	0
  2.76923E+02,	1.00000E+01,	-1.99951E-02,	4.17689E+01,	4.91581E+00,	-1.21018E+01,	0.00000E+00,	0,	0
  2.20408E+02,	1.00000E+01,	-1.99951E-02,	4.47025E+01,	5.71418E+00,	-1.46144E+01,	0.00000E+00,	0,	0
  1.74194E+02,	1.00000E+01,	-1.99951E-02,	4.79829E+01,	6.73228E+00,	-1.76990E+01,	0.00000E+00,	0,	0
  1.37580E+02,	1.00000E+01,	-1.99951E-02,	5.16333E+01,	7.97863E+00,	-2.13925E+01,	0.00000E+00,	0,	0
  1.09091E+02,	1.00000E+01,	-1.99951E-02,	5.57026E+01,	9.44463E+00,	-2.57361E+01,	0.00000E+00,	0,	0
  8.70968E+01,	1.00000E+01,	-1.99951E-02,	6.38294E+01,	1.11456E+01,	-3.08637E+01,	0.00000E+00,	0,	0
  6.83544E+01,	1.00000E+01,	-1.99951E-02,	6.88456E+01,	1.32475E+01,	-3.75404E+01,	0.00000E+00,	0,	0
  5.45455E+01,	1.00000E+01,	-1.99951E-02,	7.42869E+01,	1.55961E+01,	-4.41211E+01,	0.00000E+00,	0,	0
  4.28571E+01,	1.00000E+01,	-1.99951E-02,	7.78020E+01,	1.83144E+01,	-5.32908E+01,	0.00000E+00,	0,	0
  3.39623E+01,	1.00000E+01,	-1.99951E-02,	8.15435E+01,	2.08352E+01,	-6.40031E+01,	0.00000E+00,	0,	0
  2.68657E+01,	1.00000E+01,	-1.99951E-02,	8.54284E+01,	2.42555E+01,	-7.75473E+01,	0.00000E+00,	0,	0
  2.13439E+01,	1.00000E+01,	-1.99951E-02,	8.92333E+01,	2.79775E+01,	-9.37280E+01,	0.00000E+00,	0,	0
  1.73077E+01,	1.00000E+01,	-1.99951E-02,	9.59569E+01,	3.18034E+01,	-1.11831E+02,	0.00000E+00,	0,	0
  1.36364E+01,	1.00000E+01,	-1.99951E-02,	1.01018E+02,	3.65940E+01,	-1.36825E+02,	0.00000E+00,	0,	0
  1.07143E+01,	1.00000E+01,	-1.99951E-02,	1.03934E+02,	4.21985E+01,	-1.68239E+02,	0.00000E+00,	0,	0
  8.49057E+00,	1.00000E+01,	-1.99951E-02,	1.08141E+02,	4.83998E+01,	-2.06013E+02,	0.00000E+00,	0,	0
  6.71642E+00,	1.00000E+01,	-1.99951E-02,	1.10722E+02,	5.56593E+01,	-2.53120E+02,	0.00000E+00,	0,	0
  5.29412E+00,	1.00000E+01,	-1.99951E-02,	1.13663E+02,	6.43975E+01,	-3.12539E+02,	0.00000E+00,	0,	0
  4.16667E+00,	1.00000E+01,	-1.99951E-02,	1.17146E+02,	7.46449E+01,	-3.87405E+02,	0.00000E+00,	0,	0
  3.30882E+00,	1.00000E+01,	-1.99951E-02,	1.21417E+02,	8.64807E+01,	-4.77334E+02,	0.00000E+00,	0,	0
  2.61628E+00,	1.00000E+01,	-1.99951E-02,	1.25415E+02,	1.01400E+02,	-5.91223E+02,	0.00000E+00,	0,	0
  2.07373E+00,	1.00000E+01,	-1.99951E-02,	1.30217E+02,	1.19753E+02,	-7.31931E+02,	0.00000E+00,	0,	0
  1.64234E+00,	1.00000E+01,	-1.99951E-02,	1.36013E+02,	1.43123E+02,	-9.07482E+02,	0.00000E+00,	0,	0
  1.30058E+00,	1.00000E+01,	-1.99951E-02,	1.40169E+02,	1.74028E+02,	-1.12644E+03,	0.00000E+00,	0,	0
  1.03211E+00,	1.00000E+01,	-1.99951E-02,	1.44563E+02,	2.13997E+02,	-1.39599E+03,	0.00000E+00,	0,	0
  8.15217E-01,	1.00000E+01,	-1.99951E-02,	1.51498E+02,	2.68740E+02,	-1.73616E+03,	0.00000E+00,	0,	0
  6.46552E-01,	1.00000E+01,	-1.99951E-02,	1.60587E+02,	3.39620E+02,	-2.14923E+03,	0.00000E+00,	0,	0
  5.11364E-01,	1.00000E+01,	-1.99951E-02,	1.65596E+02,	4.30381E+02,	-2.66737E+03,	0.00000E+00,	0,	0
  4.07609E-01,	1.00000E+01,	-1.99951E-02,	1.71657E+02,	5.59956E+02,	-3.28562E+03,	0.00000E+00,	0,	0
  3.21429E-01,	1.00000E+01,	-1.99951E-02,	1.78780E+02,	7.45043E+02,	-4.09851E+03,	0.00000E+00,	0,	0
  2.54525E-01,	1.00000E+01,	-1.99951E-02,	1.87564E+02,	1.00591E+03,	-5.05763E+03,	0.00000E+00,	0,	0
  2.01613E-01,	1.00000E+01,	-1.99951E-02,	1.98430E+02,	1.42064E+03,	-6.25169E+03,	0.00000E+00,	0,	0
  1.59574E-01,	1.00000E+01,	-1.99951E-02,	2.11883E+02,	1.85277E+03,	-7.64417E+03,	0.00000E+00,	0,	0
  1.26689E-01,	1.00000E+01,	-1.99951E-02,	2.28839E+02,	2.53018E+03,	-9.32264E+03,	0.00000E+00,	0,	0
  1.00446E-01,	1.00000E+01,	-1.99951E-02,	2.49716E+02,	3.42189E+03,	-1.13738E+04,	0.00000E+00,	0,	0