Z60W Data File: Version 1.1
CorrTest for Windows: SN CS310H1805157  V5.2.1111.9  2.5H6.220118
Sweep Frequency: Control Voltage
  Date:4-29-2026   Time:20:30:36
  Begin Information:            Cell Information
      Surface Area:           1
      Density:                7.8
      Weight:                 28
  End Information:              Cell Information
  Freq (Hz)     Ampl(mV)       Bias(V)      Time(Sec)       Z'(Ohm.cm^2)    Z''(Ohm.cm^2)        GD       Err      Range
End Comments
  3.07200E+05,	1.00000E+01,	5.32345E-03,	2.29038E-02,	8.19477E-01,	4.91067E+00,	0.00000E+00,	0,	0
  2.76480E+05,	1.00000E+01,	5.32345E-03,	1.62724E+00,	1.49378E+00,	3.74234E+00,	0.00000E+00,	0,	0
  1.97486E+05,	1.00000E+01,	5.32345E-03,	2.52367E+00,	2.38944E+00,	2.61166E+00,	0.00000E+00,	0,	0
  1.53600E+05,	1.00000E+01,	5.32345E-03,	3.44268E+00,	2.71195E+00,	1.91147E+00,	0.00000E+00,	0,	0
  1.25673E+05,	1.00000E+01,	5.32345E-03,	4.33539E+00,	2.87490E+00,	1.53642E+00,	0.00000E+00,	0,	0
  9.87429E+04,	1.00000E+01,	5.32345E-03,	5.22999E+00,	3.04747E+00,	1.11838E+00,	0.00000E+00,	0,	0
  7.68000E+04,	1.00000E+01,	5.32345E-03,	6.13883E+00,	3.16246E+00,	8.02265E-01,	0.00000E+00,	0,	0
  6.01043E+04,	1.00000E+01,	5.32345E-03,	9.37947E+00,	3.24463E+00,	4.87986E-01,	0.00000E+00,	0,	0
  4.93714E+04,	1.00000E+01,	5.32345E-03,	1.09453E+01,	3.26629E+00,	3.08067E-01,	0.00000E+00,	0,	0
  3.84000E+04,	1.00000E+01,	5.32345E-03,	1.18430E+01,	3.29710E+00,	1.06511E-01,	0.00000E+00,	0,	0
  3.00522E+04,	1.00000E+01,	5.32345E-03,	1.27022E+01,	3.31316E+00,	-8.11645E-02,	0.00000E+00,	0,	0
  2.38345E+04,	1.00000E+01,	5.32345E-03,	1.35598E+01,	3.34434E+00,	-2.55467E-01,	0.00000E+00,	0,	0
  1.86811E+04,	1.00000E+01,	5.32345E-03,	1.44068E+01,	3.37781E+00,	-4.38282E-01,	0.00000E+00,	0,	0
  1.47064E+04,	1.00000E+01,	5.32345E-03,	1.53609E+01,	3.41780E+00,	-6.45862E-01,	0.00000E+00,	0,	0
  1.15200E+04,	1.00000E+01,	5.32345E-03,	1.63389E+01,	3.47008E+00,	-8.69787E-01,	0.00000E+00,	0,	0
  9.60000E+03,	1.00000E+01,	5.32345E-03,	1.79120E+01,	3.53453E+00,	-1.05684E+00,	0.00000E+00,	0,	0
  7.51304E+03,	1.00000E+01,	5.32345E-03,	1.87737E+01,	3.61481E+00,	-1.34690E+00,	0.00000E+00,	0,	0
  5.76000E+03,	1.00000E+01,	5.32345E-03,	1.96843E+01,	3.71320E+00,	-1.73047E+00,	0.00000E+00,	0,	0
  4.54737E+03,	1.00000E+01,	5.32345E-03,	2.05399E+01,	3.82533E+00,	-2.14314E+00,	0.00000E+00,	0,	0
  3.60000E+03,	1.00000E+01,	5.32345E-03,	2.15253E+01,	3.93106E+00,	-2.62994E+00,	0.00000E+00,	0,	0
  2.88000E+03,	1.00000E+01,	5.32345E-03,	2.24153E+01,	4.06230E+00,	-3.20288E+00,	0.00000E+00,	0,	0
  2.27368E+03,	1.00000E+01,	5.32345E-03,	2.47156E+01,	3.77739E+00,	-3.90203E+00,	0.00000E+00,	0,	0
  1.78144E+03,	1.00000E+01,	5.32345E-03,	2.54973E+01,	3.95754E+00,	-4.83042E+00,	0.00000E+00,	0,	0
  1.41639E+03,	1.00000E+01,	5.32345E-03,	2.63889E+01,	4.16102E+00,	-5.89579E+00,	0.00000E+00,	0,	0
  1.12208E+03,	1.00000E+01,	5.32345E-03,	2.74076E+01,	4.41713E+00,	-7.23875E+00,	0.00000E+00,	0,	0
  9.00000E+02,	1.00000E+01,	5.32345E-03,	3.24011E+01,	4.75375E+00,	-8.79707E+00,	0.00000E+00,	0,	0
  7.20000E+02,	1.00000E+01,	5.32345E-03,	3.37617E+01,	5.08677E+00,	-1.07177E+01,	0.00000E+00,	0,	0
  5.68421E+02,	1.00000E+01,	5.32345E-03,	3.51365E+01,	5.52721E+00,	-1.32159E+01,	0.00000E+00,	0,	0
  4.40816E+02,	1.00000E+01,	5.32345E-03,	3.81942E+01,	6.11761E+00,	-1.66130E+01,	0.00000E+00,	0,	0
  3.54098E+02,	1.00000E+01,	5.32345E-03,	4.05630E+01,	6.71471E+00,	-2.02005E+01,	0.00000E+00,	0,	0
  2.76923E+02,	1.00000E+01,	5.32345E-03,	4.31967E+01,	7.55394E+00,	-2.51580E+01,	0.00000E+00,	0,	0
  2.20408E+02,	1.00000E+01,	5.32345E-03,	4.61290E+01,	8.49462E+00,	-3.08675E+01,	0.00000E+00,	0,	0
  1.74194E+02,	1.00000E+01,	5.32345E-03,	4.93844E+01,	9.69785E+00,	-3.80970E+01,	0.00000E+00,	0,	0
  1.37580E+02,	1.00000E+01,	5.32345E-03,	5.30973E+01,	1.12036E+01,	-4.70791E+01,	0.00000E+00,	0,	0
  1.09091E+02,	1.00000E+01,	5.32345E-03,	5.71845E+01,	1.30087E+01,	-5.79872E+01,	0.00000E+00,	0,	0
  8.70968E+01,	1.00000E+01,	5.32345E-03,	6.29077E+01,	1.51271E+01,	-7.10824E+01,	0.00000E+00,	0,	0
  6.83544E+01,	1.00000E+01,	5.32345E-03,	6.79485E+01,	1.79514E+01,	-8.88687E+01,	0.00000E+00,	0,	0
  5.45455E+01,	1.00000E+01,	5.32345E-03,	7.34311E+01,	2.17794E+01,	-1.07224E+02,	0.00000E+00,	0,	0
  4.28571E+01,	1.00000E+01,	5.32345E-03,	7.69553E+01,	2.64156E+01,	-1.32884E+02,	0.00000E+00,	0,	0
  3.39623E+01,	1.00000E+01,	5.32345E-03,	8.07093E+01,	3.09536E+01,	-1.63079E+02,	0.00000E+00,	0,	0
  2.68657E+01,	1.00000E+01,	5.32345E-03,	8.45613E+01,	3.80913E+01,	-2.01501E+02,	0.00000E+00,	0,	0
  2.13439E+01,	1.00000E+01,	5.32345E-03,	8.83622E+01,	4.66873E+01,	-2.47381E+02,	0.00000E+00,	0,	0
  1.73077E+01,	1.00000E+01,	5.32345E-03,	9.50681E+01,	5.62856E+01,	-2.98473E+02,	0.00000E+00,	0,	0
  1.36364E+01,	1.00000E+01,	5.32345E-03,	1.00095E+02,	6.92979E+01,	-3.68541E+02,	0.00000E+00,	0,	0
  1.07143E+01,	1.00000E+01,	5.32345E-03,	1.03016E+02,	8.54957E+01,	-4.56116E+02,	0.00000E+00,	0,	0
  8.49057E+00,	1.00000E+01,	5.32345E-03,	1.07199E+02,	1.04467E+02,	-5.60147E+02,	0.00000E+00,	0,	0
  6.71642E+00,	1.00000E+01,	5.32345E-03,	1.09752E+02,	1.28067E+02,	-6.89220E+02,	0.00000E+00,	0,	0
  5.29412E+00,	1.00000E+01,	5.32345E-03,	1.12718E+02,	1.57730E+02,	-8.50416E+02,	0.00000E+00,	0,	0
  4.16667E+00,	1.00000E+01,	5.32345E-03,	1.16208E+02,	1.94034E+02,	-1.05169E+03,	0.00000E+00,	0,	0
  3.30882E+00,	1.00000E+01,	5.32345E-03,	1.22770E+02,	2.36884E+02,	-1.28871E+03,	0.00000E+00,	0,	0
  2.61628E+00,	1.00000E+01,	5.32345E-03,	1.26745E+02,	2.91217E+02,	-1.58751E+03,	0.00000E+00,	0,	0
  2.07373E+00,	1.00000E+01,	5.32345E-03,	1.31513E+02,	3.58295E+02,	-1.95223E+03,	0.00000E+00,	0,	0
  1.64234E+00,	1.00000E+01,	5.32345E-03,	1.37286E+02,	4.41947E+02,	-2.40225E+03,	0.00000E+00,	0,	0
  1.30058E+00,	1.00000E+01,	5.32345E-03,	1.41446E+02,	5.48371E+02,	-2.95961E+03,	0.00000E+00,	0,	0
  1.03211E+00,	1.00000E+01,	5.32345E-03,	1.45881E+02,	6.81672E+02,	-3.63977E+03,	0.00000E+00,	0,	0
  8.15217E-01,	1.00000E+01,	5.32345E-03,	1.52875E+02,	8.57340E+02,	-4.48931E+03,	0.00000E+00,	0,	0
  6.46552E-01,	1.00000E+01,	5.32345E-03,	1.57720E+02,	1.08606E+03,	-5.52179E+03,	0.00000E+00,	0,	0
  5.11364E-01,	1.00000E+01,	5.32345E-03,	1.62747E+02,	1.35920E+03,	-6.80711E+03,	0.00000E+00,	0,	0
  4.07609E-01,	1.00000E+01,	5.32345E-03,	1.68808E+02,	1.74507E+03,	-8.32881E+03,	0.00000E+00,	0,	0
  3.21429E-01,	1.00000E+01,	5.32345E-03,	1.75943E+02,	2.28852E+03,	-1.03290E+04,	0.00000E+00,	0,	0
  2.54525E-01,	1.00000E+01,	5.32345E-03,	1.84708E+02,	3.03676E+03,	-1.26444E+04,	0.00000E+00,	0,	0
  2.01613E-01,	1.00000E+01,	5.32345E-03,	1.95557E+02,	4.04309E+03,	-1.54280E+04,	0.00000E+00,	0,	0
  1.59574E-01,	1.00000E+01,	5.32345E-03,	2.09060E+02,	5.40871E+03,	-1.87542E+04,	0.00000E+00,	0,	0
  1.26689E-01,	1.00000E+01,	5.32345E-03,	2.42926E+02,	7.24085E+03,	-2.23918E+04,	0.00000E+00,	0,	0
  1.00446E-01,	1.00000E+01,	5.32345E-03,	2.63827E+02,	9.60404E+03,	-2.71625E+04,	0.00000E+00,	0,	0