Z60W Data File: Version 1.1
CorrTest for Windows: SN CS310H1805157  V5.2.1111.9  2.5H6.220118
Sweep Frequency: Control Voltage
  Date:4-29-2026   Time:20:25:08
  Begin Information:            Cell Information
      Surface Area:           1
      Density:                7.8
      Weight:                 28
  End Information:              Cell Information
  Freq (Hz)     Ampl(mV)       Bias(V)      Time(Sec)       Z'(Ohm.cm^2)    Z''(Ohm.cm^2)        GD       Err      Range
End Comments
  3.07200E+05,	1.00000E+01,	-2.15433E-02,	5.95040E-02,	5.11001E+00,	7.29778E+00,	0.00000E+00,	0,	0
  2.76480E+05,	1.00000E+01,	-2.15433E-02,	1.69422E+00,	5.28997E+00,	5.68777E+00,	0.00000E+00,	0,	0
  1.97486E+05,	1.00000E+01,	-2.15433E-02,	2.58746E+00,	5.95136E+00,	4.04818E+00,	0.00000E+00,	0,	0
  1.53600E+05,	1.00000E+01,	-2.15433E-02,	3.50376E+00,	6.18900E+00,	3.07041E+00,	0.00000E+00,	0,	0
  1.25673E+05,	1.00000E+01,	-2.15433E-02,	4.39287E+00,	6.26927E+00,	2.43778E+00,	0.00000E+00,	0,	0
  9.87429E+04,	1.00000E+01,	-2.15433E-02,	5.28981E+00,	6.35366E+00,	1.84844E+00,	0.00000E+00,	0,	0
  7.68000E+04,	1.00000E+01,	-2.15433E-02,	6.19095E+00,	6.36864E+00,	1.38613E+00,	0.00000E+00,	0,	0
  6.01043E+04,	1.00000E+01,	-2.15433E-02,	8.27653E+00,	6.21931E+00,	1.02105E+00,	0.00000E+00,	0,	0
  4.93714E+04,	1.00000E+01,	-2.15433E-02,	9.87130E+00,	6.08798E+00,	7.78288E-01,	0.00000E+00,	0,	0
  3.84000E+04,	1.00000E+01,	-2.15433E-02,	1.07645E+01,	6.02676E+00,	5.36696E-01,	0.00000E+00,	0,	0
  3.00522E+04,	1.00000E+01,	-2.15433E-02,	1.16363E+01,	5.97390E+00,	3.45722E-01,	0.00000E+00,	0,	0
  2.38345E+04,	1.00000E+01,	-2.15433E-02,	1.25434E+01,	5.91946E+00,	1.86622E-01,	0.00000E+00,	0,	0
  1.86811E+04,	1.00000E+01,	-2.15433E-02,	1.34063E+01,	5.83058E+00,	2.89375E-02,	0.00000E+00,	0,	0
  1.47064E+04,	1.00000E+01,	-2.15433E-02,	1.43636E+01,	5.76187E+00,	-1.25295E-01,	0.00000E+00,	0,	0
  1.15200E+04,	1.00000E+01,	-2.15433E-02,	1.53263E+01,	5.69517E+00,	-2.67914E-01,	0.00000E+00,	0,	0
  9.60000E+03,	1.00000E+01,	-2.15433E-02,	1.69007E+01,	5.58230E+00,	-3.85080E-01,	0.00000E+00,	0,	0
  7.51304E+03,	1.00000E+01,	-2.15433E-02,	1.77651E+01,	5.55229E+00,	-5.51334E-01,	0.00000E+00,	0,	0
  5.76000E+03,	1.00000E+01,	-2.15433E-02,	1.86385E+01,	5.53215E+00,	-7.60157E-01,	0.00000E+00,	0,	0
  4.54737E+03,	1.00000E+01,	-2.15433E-02,	1.94859E+01,	5.53456E+00,	-9.68346E-01,	0.00000E+00,	0,	0
  3.60000E+03,	1.00000E+01,	-2.15433E-02,	2.04773E+01,	5.53743E+00,	-1.21754E+00,	0.00000E+00,	0,	0
  2.88000E+03,	1.00000E+01,	-2.15433E-02,	2.13778E+01,	5.53869E+00,	-1.50613E+00,	0.00000E+00,	0,	0
  2.27368E+03,	1.00000E+01,	-2.15433E-02,	2.25087E+01,	5.56660E+00,	-1.86282E+00,	0.00000E+00,	0,	0
  1.78144E+03,	1.00000E+01,	-2.15433E-02,	2.33070E+01,	5.61077E+00,	-2.32051E+00,	0.00000E+00,	0,	0
  1.41639E+03,	1.00000E+01,	-2.15433E-02,	2.41974E+01,	5.68622E+00,	-2.84274E+00,	0.00000E+00,	0,	0
  1.12208E+03,	1.00000E+01,	-2.15433E-02,	2.52222E+01,	5.79593E+00,	-3.48629E+00,	0.00000E+00,	0,	0
  9.00000E+02,	1.00000E+01,	-2.15433E-02,	3.02086E+01,	5.79937E+00,	-4.23343E+00,	0.00000E+00,	0,	0
  7.20000E+02,	1.00000E+01,	-2.15433E-02,	3.15704E+01,	5.98559E+00,	-5.12830E+00,	0.00000E+00,	0,	0
  5.68421E+02,	1.00000E+01,	-2.15433E-02,	3.29362E+01,	6.25728E+00,	-6.26692E+00,	0.00000E+00,	0,	0
  4.40816E+02,	1.00000E+01,	-2.15433E-02,	3.43794E+01,	6.64832E+00,	-7.74759E+00,	0.00000E+00,	0,	0
  3.54098E+02,	1.00000E+01,	-2.15433E-02,	3.67059E+01,	7.03862E+00,	-9.27914E+00,	0.00000E+00,	0,	0
  2.76923E+02,	1.00000E+01,	-2.15433E-02,	3.93345E+01,	7.60445E+00,	-1.13160E+01,	0.00000E+00,	0,	0
  2.20408E+02,	1.00000E+01,	-2.15433E-02,	4.22982E+01,	8.22728E+00,	-1.35792E+01,	0.00000E+00,	0,	0
  1.74194E+02,	1.00000E+01,	-2.15433E-02,	4.55978E+01,	8.96568E+00,	-1.63716E+01,	0.00000E+00,	0,	0
  1.37580E+02,	1.00000E+01,	-2.15433E-02,	4.92592E+01,	9.79707E+00,	-1.97558E+01,	0.00000E+00,	0,	0
  1.09091E+02,	1.00000E+01,	-2.15433E-02,	5.33222E+01,	1.07040E+01,	-2.38285E+01,	0.00000E+00,	0,	0
  8.70968E+01,	1.00000E+01,	-2.15433E-02,	6.14488E+01,	1.15563E+01,	-2.87693E+01,	0.00000E+00,	0,	0
  6.83544E+01,	1.00000E+01,	-2.15433E-02,	6.64768E+01,	1.27687E+01,	-3.54170E+01,	0.00000E+00,	0,	0
  5.45455E+01,	1.00000E+01,	-2.15433E-02,	7.19379E+01,	1.41109E+01,	-4.22324E+01,	0.00000E+00,	0,	0
  4.28571E+01,	1.00000E+01,	-2.15433E-02,	7.54558E+01,	1.56598E+01,	-5.19512E+01,	0.00000E+00,	0,	0
  3.39623E+01,	1.00000E+01,	-2.15433E-02,	7.92430E+01,	1.69516E+01,	-6.35455E+01,	0.00000E+00,	0,	0
  2.68657E+01,	1.00000E+01,	-2.15433E-02,	8.30782E+01,	1.90289E+01,	-7.84670E+01,	0.00000E+00,	0,	0
  2.13439E+01,	1.00000E+01,	-2.15433E-02,	8.68928E+01,	2.13779E+01,	-9.65410E+01,	0.00000E+00,	0,	0
  1.73077E+01,	1.00000E+01,	-2.15433E-02,	9.35993E+01,	2.38811E+01,	-1.16949E+02,	0.00000E+00,	0,	0
  1.36364E+01,	1.00000E+01,	-2.15433E-02,	9.86634E+01,	2.71480E+01,	-1.45341E+02,	0.00000E+00,	0,	0
  1.07143E+01,	1.00000E+01,	-2.15433E-02,	1.01612E+02,	3.11959E+01,	-1.81309E+02,	0.00000E+00,	0,	0
  8.49057E+00,	1.00000E+01,	-2.15433E-02,	1.05813E+02,	3.58926E+01,	-2.24768E+02,	0.00000E+00,	0,	0
  6.71642E+00,	1.00000E+01,	-2.15433E-02,	1.08328E+02,	4.17190E+01,	-2.79359E+02,	0.00000E+00,	0,	0
  5.29412E+00,	1.00000E+01,	-2.15433E-02,	1.11259E+02,	4.92766E+01,	-3.48444E+02,	0.00000E+00,	0,	0
  4.16667E+00,	1.00000E+01,	-2.15433E-02,	1.14743E+02,	5.86810E+01,	-4.35803E+02,	0.00000E+00,	0,	0
  3.30882E+00,	1.00000E+01,	-2.15433E-02,	1.19027E+02,	7.01887E+01,	-5.40534E+02,	0.00000E+00,	0,	0
  2.61628E+00,	1.00000E+01,	-2.15433E-02,	1.23012E+02,	8.55527E+01,	-6.73137E+02,	0.00000E+00,	0,	0
  2.07373E+00,	1.00000E+01,	-2.15433E-02,	1.27808E+02,	1.05029E+02,	-8.36717E+02,	0.00000E+00,	0,	0
  1.64234E+00,	1.00000E+01,	-2.15433E-02,	1.33643E+02,	1.30497E+02,	-1.04051E+03,	0.00000E+00,	0,	0
  1.30058E+00,	1.00000E+01,	-2.15433E-02,	1.37817E+02,	1.64695E+02,	-1.29404E+03,	0.00000E+00,	0,	0
  1.03211E+00,	1.00000E+01,	-2.15433E-02,	1.42220E+02,	2.08740E+02,	-1.60590E+03,	0.00000E+00,	0,	0
  8.15217E-01,	1.00000E+01,	-2.15433E-02,	1.49184E+02,	2.69363E+02,	-1.99872E+03,	0.00000E+00,	0,	0
  6.46552E-01,	1.00000E+01,	-2.15433E-02,	1.58322E+02,	3.48072E+02,	-2.47571E+03,	0.00000E+00,	0,	0
  5.11364E-01,	1.00000E+01,	-2.15433E-02,	1.63339E+02,	4.47547E+02,	-3.07328E+03,	0.00000E+00,	0,	0
  4.07609E-01,	1.00000E+01,	-2.15433E-02,	1.69400E+02,	5.89279E+02,	-3.78670E+03,	0.00000E+00,	0,	0
  3.21429E-01,	1.00000E+01,	-2.15433E-02,	1.76568E+02,	7.96875E+02,	-4.72441E+03,	0.00000E+00,	0,	0
  2.54525E-01,	1.00000E+01,	-2.15433E-02,	1.85379E+02,	1.07084E+03,	-5.82988E+03,	0.00000E+00,	0,	0
  2.01613E-01,	1.00000E+01,	-2.15433E-02,	1.96267E+02,	1.45410E+03,	-7.18214E+03,	0.00000E+00,	0,	0
  1.59574E-01,	1.00000E+01,	-2.15433E-02,	2.09782E+02,	1.98855E+03,	-8.82276E+03,	0.00000E+00,	0,	0
  1.26689E-01,	1.00000E+01,	-2.15433E-02,	2.26686E+02,	2.71490E+03,	-1.07593E+04,	0.00000E+00,	0,	0
  1.00446E-01,	1.00000E+01,	-2.15433E-02,	2.47548E+02,	3.71679E+03,	-1.30715E+04,	0.00000E+00,	0,	0