Z60W Data File: Version 1.1
CorrTest for Windows: SN CS310H1805157  V5.2.1111.9  2.5H6.220118
Sweep Frequency: Control Voltage
  Date:4-29-2026   Time:20:14:24
  Begin Information:            Cell Information
      Surface Area:           1
      Density:                7.8
      Weight:                 28
  End Information:              Cell Information
  Freq (Hz)     Ampl(mV)       Bias(V)      Time(Sec)       Z'(Ohm.cm^2)    Z''(Ohm.cm^2)        GD       Err      Range
End Comments
  3.07200E+05,	1.00000E+01,	-1.42963E-02,	5.49675E-02,	-5.10122E-02,	4.26793E+00,	0.00000E+00,	0,	0
  2.76480E+05,	1.00000E+01,	-1.42963E-02,	1.68782E+00,	4.34366E-01,	3.38868E+00,	0.00000E+00,	0,	0
  1.97486E+05,	1.00000E+01,	-1.42963E-02,	2.58937E+00,	1.43222E+00,	2.36166E+00,	0.00000E+00,	0,	0
  1.53600E+05,	1.00000E+01,	-1.42963E-02,	3.48346E+00,	1.87961E+00,	1.75813E+00,	0.00000E+00,	0,	0
  1.25673E+05,	1.00000E+01,	-1.42963E-02,	4.37135E+00,	2.03156E+00,	1.40155E+00,	0.00000E+00,	0,	0
  9.87429E+04,	1.00000E+01,	-1.42963E-02,	5.26094E+00,	2.26352E+00,	1.06904E+00,	0.00000E+00,	0,	0
  7.68000E+04,	1.00000E+01,	-1.42963E-02,	6.16812E+00,	2.35292E+00,	7.90312E-01,	0.00000E+00,	0,	0
  6.01043E+04,	1.00000E+01,	-1.42963E-02,	9.44016E+00,	2.45416E+00,	5.60601E-01,	0.00000E+00,	0,	0
  4.93714E+04,	1.00000E+01,	-1.42963E-02,	1.10225E+01,	2.47832E+00,	4.19777E-01,	0.00000E+00,	0,	0
  3.84000E+04,	1.00000E+01,	-1.42963E-02,	1.19137E+01,	2.48834E+00,	2.59892E-01,	0.00000E+00,	0,	0
  3.00522E+04,	1.00000E+01,	-1.42963E-02,	1.27676E+01,	2.50611E+00,	1.24815E-01,	0.00000E+00,	0,	0
  2.38345E+04,	1.00000E+01,	-1.42963E-02,	1.36377E+01,	2.51640E+00,	5.92137E-03,	0.00000E+00,	0,	0
  1.86811E+04,	1.00000E+01,	-1.42963E-02,	1.45073E+01,	2.52685E+00,	-1.18663E-01,	0.00000E+00,	0,	0
  1.47064E+04,	1.00000E+01,	-1.42963E-02,	1.54998E+01,	2.54602E+00,	-2.36273E-01,	0.00000E+00,	0,	0
  1.15200E+04,	1.00000E+01,	-1.42963E-02,	1.64829E+01,	2.56954E+00,	-3.76112E-01,	0.00000E+00,	0,	0
  9.60000E+03,	1.00000E+01,	-1.42963E-02,	1.80586E+01,	2.58879E+00,	-4.81032E-01,	0.00000E+00,	0,	0
  7.51304E+03,	1.00000E+01,	-1.42963E-02,	1.89365E+01,	2.62345E+00,	-6.46384E-01,	0.00000E+00,	0,	0
  5.76000E+03,	1.00000E+01,	-1.42963E-02,	1.98397E+01,	2.66120E+00,	-8.47049E-01,	0.00000E+00,	0,	0
  4.54737E+03,	1.00000E+01,	-1.42963E-02,	2.07007E+01,	2.70747E+00,	-1.07079E+00,	0.00000E+00,	0,	0
  3.60000E+03,	1.00000E+01,	-1.42963E-02,	2.16986E+01,	2.76202E+00,	-1.33627E+00,	0.00000E+00,	0,	0
  2.88000E+03,	1.00000E+01,	-1.42963E-02,	2.25857E+01,	2.83211E+00,	-1.63220E+00,	0.00000E+00,	0,	0
  2.27368E+03,	1.00000E+01,	-1.42963E-02,	2.48911E+01,	2.31869E+00,	-2.00673E+00,	0.00000E+00,	0,	0
  1.78144E+03,	1.00000E+01,	-1.42963E-02,	2.57001E+01,	2.42196E+00,	-2.48617E+00,	0.00000E+00,	0,	0
  1.41639E+03,	1.00000E+01,	-1.42963E-02,	2.66049E+01,	2.55289E+00,	-3.04414E+00,	0.00000E+00,	0,	0
  1.12208E+03,	1.00000E+01,	-1.42963E-02,	2.76311E+01,	2.71453E+00,	-3.72532E+00,	0.00000E+00,	0,	0
  9.00000E+02,	1.00000E+01,	-1.42963E-02,	3.26355E+01,	2.91140E+00,	-4.52212E+00,	0.00000E+00,	0,	0
  7.20000E+02,	1.00000E+01,	-1.42963E-02,	3.40282E+01,	3.15337E+00,	-5.48355E+00,	0.00000E+00,	0,	0
  5.68421E+02,	1.00000E+01,	-1.42963E-02,	3.54238E+01,	3.47513E+00,	-6.71882E+00,	0.00000E+00,	0,	0
  4.40816E+02,	1.00000E+01,	-1.42963E-02,	3.69157E+01,	3.92362E+00,	-8.34613E+00,	0.00000E+00,	0,	0
  3.54098E+02,	1.00000E+01,	-1.42963E-02,	3.92917E+01,	4.40988E+00,	-1.00473E+01,	0.00000E+00,	0,	0
  2.76923E+02,	1.00000E+01,	-1.42963E-02,	4.19190E+01,	5.10363E+00,	-1.23389E+01,	0.00000E+00,	0,	0
  2.20408E+02,	1.00000E+01,	-1.42963E-02,	4.48329E+01,	5.91408E+00,	-1.49033E+01,	0.00000E+00,	0,	0
  1.74194E+02,	1.00000E+01,	-1.42963E-02,	4.81058E+01,	6.94689E+00,	-1.80577E+01,	0.00000E+00,	0,	0
  1.37580E+02,	1.00000E+01,	-1.42963E-02,	5.17641E+01,	8.21180E+00,	-2.18327E+01,	0.00000E+00,	0,	0
  1.09091E+02,	1.00000E+01,	-1.42963E-02,	5.58744E+01,	9.69842E+00,	-2.62695E+01,	0.00000E+00,	0,	0
  8.70968E+01,	1.00000E+01,	-1.42963E-02,	6.40093E+01,	1.14267E+01,	-3.15070E+01,	0.00000E+00,	0,	0
  6.83544E+01,	1.00000E+01,	-1.42963E-02,	6.90234E+01,	1.35699E+01,	-3.83301E+01,	0.00000E+00,	0,	0
  5.45455E+01,	1.00000E+01,	-1.42963E-02,	7.44786E+01,	1.59623E+01,	-4.50545E+01,	0.00000E+00,	0,	0
  4.28571E+01,	1.00000E+01,	-1.42963E-02,	7.79995E+01,	1.87401E+01,	-5.44223E+01,	0.00000E+00,	0,	0
  3.39623E+01,	1.00000E+01,	-1.42963E-02,	8.17183E+01,	2.13132E+01,	-6.53441E+01,	0.00000E+00,	0,	0
  2.68657E+01,	1.00000E+01,	-1.42963E-02,	8.56105E+01,	2.48092E+01,	-7.91697E+01,	0.00000E+00,	0,	0
  2.13439E+01,	1.00000E+01,	-1.42963E-02,	8.94312E+01,	2.86020E+01,	-9.56568E+01,	0.00000E+00,	0,	0
  1.73077E+01,	1.00000E+01,	-1.42963E-02,	9.61023E+01,	3.25031E+01,	-1.14107E+02,	0.00000E+00,	0,	0
  1.36364E+01,	1.00000E+01,	-1.42963E-02,	1.01178E+02,	3.73721E+01,	-1.39546E+02,	0.00000E+00,	0,	0
  1.07143E+01,	1.00000E+01,	-1.42963E-02,	1.04121E+02,	4.30566E+01,	-1.71519E+02,	0.00000E+00,	0,	0
  8.49057E+00,	1.00000E+01,	-1.42963E-02,	1.08326E+02,	4.93364E+01,	-2.10003E+02,	0.00000E+00,	0,	0
  6.71642E+00,	1.00000E+01,	-1.42963E-02,	1.10896E+02,	5.66613E+01,	-2.57987E+02,	0.00000E+00,	0,	0
  5.29412E+00,	1.00000E+01,	-1.42963E-02,	1.13816E+02,	6.54138E+01,	-3.18421E+02,	0.00000E+00,	0,	0
  4.16667E+00,	1.00000E+01,	-1.42963E-02,	1.17302E+02,	7.58374E+01,	-3.94785E+02,	0.00000E+00,	0,	0
  3.30882E+00,	1.00000E+01,	-1.42963E-02,	1.21589E+02,	8.77047E+01,	-4.86263E+02,	0.00000E+00,	0,	0
  2.61628E+00,	1.00000E+01,	-1.42963E-02,	1.25538E+02,	1.02711E+02,	-6.02030E+02,	0.00000E+00,	0,	0
  2.07373E+00,	1.00000E+01,	-1.42963E-02,	1.30322E+02,	1.20838E+02,	-7.45279E+02,	0.00000E+00,	0,	0
  1.64234E+00,	1.00000E+01,	-1.42963E-02,	1.36096E+02,	1.44274E+02,	-9.23882E+02,	0.00000E+00,	0,	0
  1.30058E+00,	1.00000E+01,	-1.42963E-02,	1.40262E+02,	1.75022E+02,	-1.14641E+03,	0.00000E+00,	0,	0
  1.03211E+00,	1.00000E+01,	-1.42963E-02,	1.44674E+02,	2.14233E+02,	-1.42049E+03,	0.00000E+00,	0,	0
  8.15217E-01,	1.00000E+01,	-1.42963E-02,	1.51647E+02,	2.68152E+02,	-1.76590E+03,	0.00000E+00,	0,	0
  6.46552E-01,	1.00000E+01,	-1.42963E-02,	1.60761E+02,	3.38174E+02,	-2.18507E+03,	0.00000E+00,	0,	0
  5.11364E-01,	1.00000E+01,	-1.42963E-02,	1.65805E+02,	4.25925E+02,	-2.71132E+03,	0.00000E+00,	0,	0
  4.07609E-01,	1.00000E+01,	-1.42963E-02,	1.71856E+02,	5.51791E+02,	-3.33899E+03,	0.00000E+00,	0,	0
  3.21429E-01,	1.00000E+01,	-1.42963E-02,	1.78983E+02,	7.29637E+02,	-4.16517E+03,	0.00000E+00,	0,	0
  2.54525E-01,	1.00000E+01,	-1.42963E-02,	1.87757E+02,	9.79888E+02,	-5.13817E+03,	0.00000E+00,	0,	0
  2.01613E-01,	1.00000E+01,	-1.42963E-02,	1.98630E+02,	1.32453E+03,	-6.32422E+03,	0.00000E+00,	0,	0
  1.59574E-01,	1.00000E+01,	-1.42963E-02,	2.12113E+02,	1.80768E+03,	-7.76484E+03,	0.00000E+00,	0,	0
  1.26689E-01,	1.00000E+01,	-1.42963E-02,	2.29031E+02,	2.47067E+03,	-9.45653E+03,	0.00000E+00,	0,	0
  1.00446E-01,	1.00000E+01,	-1.42963E-02,	2.49904E+02,	3.39065E+03,	-1.14645E+04,	0.00000E+00,	0,	0