Z60W Data File: Version 1.1
CorrTest for Windows: SN CS310H1805157  V5.2.1111.9  2.5H6.220118
Sweep Frequency: Control Voltage
  Date:4-29-2026   Time:20:19:30
  Begin Information:            Cell Information
      Surface Area:           1
      Density:                7.8
      Weight:                 28
  End Information:              Cell Information
  Freq (Hz)     Ampl(mV)       Bias(V)      Time(Sec)       Z'(Ohm.cm^2)    Z''(Ohm.cm^2)        GD       Err      Range
End Comments
  3.07200E+05,	1.00000E+01,	8.72198E-04,	5.35029E-02,	4.14995E-01,	4.48689E+00,	0.00000E+00,	0,	0
  2.76480E+05,	1.00000E+01,	8.72198E-04,	1.67105E+00,	1.13245E+00,	3.47924E+00,	0.00000E+00,	0,	0
  1.97486E+05,	1.00000E+01,	8.72198E-04,	2.57114E+00,	1.98507E+00,	2.38744E+00,	0.00000E+00,	0,	0
  1.53600E+05,	1.00000E+01,	8.72198E-04,	3.50683E+00,	2.30686E+00,	1.81889E+00,	0.00000E+00,	0,	0
  1.25673E+05,	1.00000E+01,	8.72198E-04,	4.40433E+00,	2.55938E+00,	1.38953E+00,	0.00000E+00,	0,	0
  9.87429E+04,	1.00000E+01,	8.72198E-04,	5.33857E+00,	2.70056E+00,	1.02156E+00,	0.00000E+00,	0,	0
  7.68000E+04,	1.00000E+01,	8.72198E-04,	6.29090E+00,	2.83404E+00,	7.07263E-01,	0.00000E+00,	0,	0
  6.01043E+04,	1.00000E+01,	8.72198E-04,	9.52677E+00,	2.93531E+00,	3.96324E-01,	0.00000E+00,	0,	0
  4.93714E+04,	1.00000E+01,	8.72198E-04,	1.11040E+01,	2.97042E+00,	2.20985E-01,	0.00000E+00,	0,	0
  3.84000E+04,	1.00000E+01,	8.72198E-04,	1.20027E+01,	3.00571E+00,	7.98028E-03,	0.00000E+00,	0,	0
  3.00522E+04,	1.00000E+01,	8.72198E-04,	1.28477E+01,	3.04644E+00,	-1.81001E-01,	0.00000E+00,	0,	0
  2.38345E+04,	1.00000E+01,	8.72198E-04,	1.37151E+01,	3.08712E+00,	-3.65923E-01,	0.00000E+00,	0,	0
  1.86811E+04,	1.00000E+01,	8.72198E-04,	1.45743E+01,	3.13068E+00,	-5.70245E-01,	0.00000E+00,	0,	0
  1.47064E+04,	1.00000E+01,	8.72198E-04,	1.55414E+01,	3.18407E+00,	-7.83497E-01,	0.00000E+00,	0,	0
  1.15200E+04,	1.00000E+01,	8.72198E-04,	1.65113E+01,	3.24680E+00,	-1.02299E+00,	0.00000E+00,	0,	0
  9.60000E+03,	1.00000E+01,	8.72198E-04,	1.80759E+01,	3.30283E+00,	-1.22756E+00,	0.00000E+00,	0,	0
  7.51304E+03,	1.00000E+01,	8.72198E-04,	1.89515E+01,	3.39311E+00,	-1.54703E+00,	0.00000E+00,	0,	0
  5.76000E+03,	1.00000E+01,	8.72198E-04,	1.98752E+01,	3.50695E+00,	-1.95633E+00,	0.00000E+00,	0,	0
  4.54737E+03,	1.00000E+01,	8.72198E-04,	2.07416E+01,	3.62263E+00,	-2.39194E+00,	0.00000E+00,	0,	0
  3.60000E+03,	1.00000E+01,	8.72198E-04,	2.17392E+01,	3.75812E+00,	-2.93692E+00,	0.00000E+00,	0,	0
  2.88000E+03,	1.00000E+01,	8.72198E-04,	2.26237E+01,	3.90807E+00,	-3.53948E+00,	0.00000E+00,	0,	0
  2.27368E+03,	1.00000E+01,	8.72198E-04,	2.49040E+01,	4.06008E+00,	-4.28995E+00,	0.00000E+00,	0,	0
  1.78144E+03,	1.00000E+01,	8.72198E-04,	2.56974E+01,	4.27343E+00,	-5.26988E+00,	0.00000E+00,	0,	0
  1.41639E+03,	1.00000E+01,	8.72198E-04,	2.66079E+01,	4.53591E+00,	-6.41486E+00,	0.00000E+00,	0,	0
  1.12208E+03,	1.00000E+01,	8.72198E-04,	2.76468E+01,	4.85884E+00,	-7.82012E+00,	0.00000E+00,	0,	0
  9.00000E+02,	1.00000E+01,	8.72198E-04,	3.26296E+01,	5.19693E+00,	-9.47783E+00,	0.00000E+00,	0,	0
  7.20000E+02,	1.00000E+01,	8.72198E-04,	3.39862E+01,	5.60790E+00,	-1.14816E+01,	0.00000E+00,	0,	0
  5.68421E+02,	1.00000E+01,	8.72198E-04,	3.53423E+01,	6.13020E+00,	-1.40873E+01,	0.00000E+00,	0,	0
  4.40816E+02,	1.00000E+01,	8.72198E-04,	3.83963E+01,	6.82859E+00,	-1.76089E+01,	0.00000E+00,	0,	0
  3.54098E+02,	1.00000E+01,	8.72198E-04,	4.07542E+01,	7.53158E+00,	-2.13104E+01,	0.00000E+00,	0,	0
  2.76923E+02,	1.00000E+01,	8.72198E-04,	4.33827E+01,	8.50968E+00,	-2.64264E+01,	0.00000E+00,	0,	0
  2.20408E+02,	1.00000E+01,	8.72198E-04,	4.62926E+01,	9.61113E+00,	-3.22993E+01,	0.00000E+00,	0,	0
  1.74194E+02,	1.00000E+01,	8.72198E-04,	4.95825E+01,	1.09991E+01,	-3.97270E+01,	0.00000E+00,	0,	0
  1.37580E+02,	1.00000E+01,	8.72198E-04,	5.32688E+01,	1.27129E+01,	-4.89089E+01,	0.00000E+00,	0,	0
  1.09091E+02,	1.00000E+01,	8.72198E-04,	5.73349E+01,	1.47729E+01,	-6.00415E+01,	0.00000E+00,	0,	0
  8.70968E+01,	1.00000E+01,	8.72198E-04,	6.30208E+01,	1.71714E+01,	-7.33705E+01,	0.00000E+00,	0,	0
  6.83544E+01,	1.00000E+01,	8.72198E-04,	6.80363E+01,	2.03720E+01,	-9.14433E+01,	0.00000E+00,	0,	0
  5.45455E+01,	1.00000E+01,	8.72198E-04,	7.35037E+01,	2.45929E+01,	-1.10008E+02,	0.00000E+00,	0,	0
  4.28571E+01,	1.00000E+01,	8.72198E-04,	7.70542E+01,	2.97028E+01,	-1.35965E+02,	0.00000E+00,	0,	0
  3.39623E+01,	1.00000E+01,	8.72198E-04,	8.07699E+01,	3.47460E+01,	-1.66469E+02,	0.00000E+00,	0,	0
  2.68657E+01,	1.00000E+01,	8.72198E-04,	8.46491E+01,	4.26389E+01,	-2.05228E+02,	0.00000E+00,	0,	0
  2.13439E+01,	1.00000E+01,	8.72198E-04,	8.84641E+01,	5.20804E+01,	-2.51420E+02,	0.00000E+00,	0,	0
  1.73077E+01,	1.00000E+01,	8.72198E-04,	9.51669E+01,	6.26060E+01,	-3.02768E+02,	0.00000E+00,	0,	0
  1.36364E+01,	1.00000E+01,	8.72198E-04,	1.00215E+02,	7.70421E+01,	-3.72926E+02,	0.00000E+00,	0,	0
  1.07143E+01,	1.00000E+01,	8.72198E-04,	1.03121E+02,	9.51420E+01,	-4.60301E+02,	0.00000E+00,	0,	0
  8.49057E+00,	1.00000E+01,	8.72198E-04,	1.07355E+02,	1.16612E+02,	-5.63996E+02,	0.00000E+00,	0,	0
  6.71642E+00,	1.00000E+01,	8.72198E-04,	1.09882E+02,	1.43224E+02,	-6.91593E+02,	0.00000E+00,	0,	0
  5.29412E+00,	1.00000E+01,	8.72198E-04,	1.12805E+02,	1.76630E+02,	-8.50626E+02,	0.00000E+00,	0,	0
  4.16667E+00,	1.00000E+01,	8.72198E-04,	1.16319E+02,	2.17545E+02,	-1.04740E+03,	0.00000E+00,	0,	0
  3.30882E+00,	1.00000E+01,	8.72198E-04,	1.22908E+02,	2.65483E+02,	-1.27839E+03,	0.00000E+00,	0,	0
  2.61628E+00,	1.00000E+01,	8.72198E-04,	1.26921E+02,	3.25928E+02,	-1.56820E+03,	0.00000E+00,	0,	0
  2.07373E+00,	1.00000E+01,	8.72198E-04,	1.31758E+02,	3.99985E+02,	-1.92048E+03,	0.00000E+00,	0,	0
  1.64234E+00,	1.00000E+01,	8.72198E-04,	1.37548E+02,	4.90172E+02,	-2.35466E+03,	0.00000E+00,	0,	0
  1.30058E+00,	1.00000E+01,	8.72198E-04,	1.41704E+02,	6.04014E+02,	-2.88875E+03,	0.00000E+00,	0,	0
  1.03211E+00,	1.00000E+01,	8.72198E-04,	1.46105E+02,	7.44992E+02,	-3.54133E+03,	0.00000E+00,	0,	0
  8.15217E-01,	1.00000E+01,	8.72198E-04,	1.53080E+02,	9.30132E+02,	-4.35402E+03,	0.00000E+00,	0,	0
  6.46552E-01,	1.00000E+01,	8.72198E-04,	1.57885E+02,	1.16872E+03,	-5.34016E+03,	0.00000E+00,	0,	0
  5.11364E-01,	1.00000E+01,	8.72198E-04,	1.62915E+02,	1.45470E+03,	-6.56667E+03,	0.00000E+00,	0,	0
  4.07609E-01,	1.00000E+01,	8.72198E-04,	1.68983E+02,	1.85984E+03,	-8.01154E+03,	0.00000E+00,	0,	0
  3.21429E-01,	1.00000E+01,	8.72198E-04,	1.76118E+02,	2.43573E+03,	-9.90635E+03,	0.00000E+00,	0,	0
  2.54525E-01,	1.00000E+01,	8.72198E-04,	1.84872E+02,	3.22508E+03,	-1.20823E+04,	0.00000E+00,	0,	0
  2.01613E-01,	1.00000E+01,	8.72198E-04,	1.95762E+02,	4.28693E+03,	-1.46726E+04,	0.00000E+00,	0,	0
  1.59574E-01,	1.00000E+01,	8.72198E-04,	2.09207E+02,	5.73592E+03,	-1.77237E+04,	0.00000E+00,	0,	0
  1.26689E-01,	1.00000E+01,	8.72198E-04,	2.43070E+02,	7.65378E+03,	-2.09284E+04,	0.00000E+00,	0,	0
  1.00446E-01,	1.00000E+01,	8.72198E-04,	2.63947E+02,	1.01360E+04,	-2.51529E+04,	0.00000E+00,	0,	0