EXPLAIN
TAG	EISPOT
TITLE	LABEL	Potentiostatic EIS	Test Identifier
DATE	LABEL	8/22/2020	Date
TIME	LABEL	3:20:08	Time
NOTES	NOTES	1	Notes...
	
PSTAT	PSTAT	REF3000-16137	Potentiostat
VDC	POTEN	0.00000E+000	T	DC Voltage (V)
FREQINIT	QUANT	3.00000E+005	Initial Freq. (Hz)
FREQFINAL	QUANT	1.00000E+000	Final Freq. (Hz)
PTSPERDEC	QUANT	1.00000E+001	Points/decade
VAC	QUANT	5.00000E+001	AC Voltage (mV rms)
AREA	QUANT	1.00000E+000	Sample Area (cm^2)
SPEED	SELECTOR	2	Optimize for:
ZGUESS	QUANT	1.00000E+003	Estimated Z (ohms)
EOC	QUANT	0	Open Circuit (V)
SEQUENCER	TOGGLE	TRUE	Run as Sequence
PSTATMODEL	IQUANT	5	Pstat Model
PSTATSECTION	LABEL	REF3000-16137	Pstat Section
PSTATSERIALNO	LABEL	16137	Pstat Serial Number
CTRLMODE	IQUANT	1	Control Mode
IESTAB	IQUANT	0	I/E Stability
CASPEED	IQUANT	1	Control Amp Speed
CONVENTION	IQUANT	1	Current Convention
ICHRANGE	IQUANT	2	Ich Range
ICHRANGEMODE	TOGGLE	F	Ich Auto Range
ICHOFFSETENABLE	TOGGLE	T	Ich Offset Enable
ICHOFFSET	QUANT	0	Ich Offset (V)
ICHFILTER	IQUANT	3	Ich Filter
VCHRANGE	IQUANT	2	Vch Range
VCHRANGEMODE	TOGGLE	F	Vch Auto Range
VCHOFFSETENABLE	TOGGLE	T	Vch Offset Enable
VCHOFFSET	QUANT	0	Vch Offset (V)
VCHFILTER	IQUANT	3	Vch Filter
ACHRANGE	IQUANT	2	Ach Range
ACHOFFSETENABLE	TOGGLE	F	Ach Offset Enable
ACHOFFSET	QUANT	0	Ach Offset (V)
ACHFILTER	IQUANT	3	Ach Filter
IERANGELOWERLIMIT	IQUANT	2	I/E Range Lower Limit
IERANGEMODE	TOGGLE	F	I/E AutoRange
IERANGE	IQUANT	11	I/E Range
POSFEEDENABLE	TOGGLE	F	Positive Feedback IR Comp
POSFEEDRESISTANCE	QUANT	0	Positive Feedback Resistance (ohm)
ACHSELECT	IQUANT	0	Ach Select
CABLEID	IQUANT	13	Cable ID
DCCALDATE	LABEL	7/31/2020	DC Calibration Date
ACCALDATE	LABEL	7/31/2020	AC Calibration Date
THERMOSELECT	IQUANT	1	Thermo Select
FRAMEWORKVERSION	QUANT	6.33	Framework Version
INSTRUMENTVERSION	LABEL	3.50	Instrument Version
COMPLIANCEVOLTAGE	IQUANT	0	Compliance Voltage
ZCURVE	TABLE
	Pt	Time	Freq	Zreal	Zimag	Zsig	Zmod	Zphz	Idc	Vdc	IERange
	#	s	Hz	ohm	ohm	V	ohm	°	A	V	#
	0	7	300046.9	86.76669	-4.995112	1	86.91035	-3.294851	2.296478E-005	-0.0008171	9
	1	10	238359.4	87.35518	-5.967403	1	87.55876	-3.907916	6.682791E-005	-0.0026908	9
	2	14	189328.1	88.02174	-7.706378	1	88.35845	-5.003535	3.190439E-006	-0.001356	9
	3	16	150421.9	89.01778	-9.23446	1	89.49548	-5.922522	6.751886E-005	-0.0021746	9
	4	19	119484.4	90.01307	-10.94987	1	90.67664	-6.935811	6.895343E-005	-0.0022867	9
	5	21	94921.88	91.10106	-12.76643	1	91.99122	-7.977187	1.77327E-005	-0.0006862	9
	6	24	75421.88	92.41234	-15.1026	1	93.63829	-9.281585	-1.862528E-005	0.0007482	9
	7	26	59859.37	93.91911	-17.77912	1	95.5871	-10.71939	-1.471915E-005	0.0007943	9
	8	29	47578.12	95.7082	-20.71983	1	97.9253	-12.21544	-1.294262E-005	0.0007511	9
	9	31	37828.12	97.6782	-24.05652	1	100.597	-13.83564	-1.043142E-005	-5.036872E-006	9
	10	34	30046.88	99.948	-27.91621	1	103.7734	-15.60544	-1.194501E-005	0.0007485	9
	11	36	23859.38	102.2924	-32.2625	1	107.2595	-17.50501	-9.693039E-006	4.729421E-005	9
	12	39	18984.38	104.7129	-37.44278	1	111.2059	-19.67582	5.558687E-006	-0.0004717	9
	13	41	15046.87	107.1008	-43.66245	1	115.659	-22.17955	-1.0967E-005	6.612212E-005	9
	14	43	11953.13	109.7171	-51.22059	1	121.0842	-25.02516	-1.475482E-005	0.0001976	9
	15	46	9515.62	111.9723	-60.35538	1	127.2029	-28.32558	-1.840655E-005	0.0005097	9
	16	48	7546.875	114.0832	-72.57425	1	135.2109	-32.46257	1.280849E-005	0.0001686	9
	17	50	5928.309	116.4212	-88.26102	1	146.0956	-37.16642	1.163632E-005	0.0001632	9
	18	53	4733.456	118.9549	-107.0123	1	160.0059	-41.97466	3.164274E-006	0.0004341	9
	19	55	3796.875	121.4055	-130.2163	1	178.0325	-47.00546	2.374034E-005	-0.0004829	9
	20	57	2987.132	124.4697	-162.088	1	204.3655	-52.47883	3.684466E-006	0.0004381	9
	21	60	2390.625	128.2812	-198.7757	1	236.5752	-57.16355	-4.973424E-006	0.0006306	9
	22	62	1884.191	133.7389	-247.3962	1	281.2312	-61.60497	1.17645E-005	0.000149	9
	23	64	1516.544	140.7274	-303.3336	1	334.3882	-65.11172	4.262336E-006	-0.0004355	9
	24	67	1193.986	149.5091	-379.2029	1	407.6124	-68.48207	-1.912658E-005	0.0005092	9
	25	69	946.5144	159.9495	-468.7792	1	495.3159	-71.16014	6.416331E-006	-0.0009212	8
	26	71	751.7689	175.268	-580.7565	1	606.6275	-73.20657	4.306173E-006	-0.0012961	8
	27	74	597.4265	194.7601	-720.3203	1	746.1855	-74.87014	-2.662394E-006	0.0024945	8
	28	76	477.4305	220.8333	-886.9543	1	914.0324	-76.01881	2.587782E-007	0.0006459	8
	29	78	376.6741	257.3138	-1103.872	1	1133.465	-76.87859	2.584844E-007	0.0006411	8
	30	81	298.2954	305.2725	-1367.356	1	1401.018	-77.41467	2.537365E-007	0.0006487	8
	31	83	237.7717	367.0636	-1681.039	1	1720.647	-77.6825	2.344284E-007	0.0006445	8
	32	85	189.0121	449.6638	-2068.78	1	2117.085	-77.73711	2.60751E-007	0.0006394	8
	33	88	150.2404	559.4224	-2542.047	1	2602.875	-77.58888	2.136845E-007	0.0006932	8
	34	90	119.1737	706.3376	-3123.9	1	3202.759	-77.25922	2.451668E-007	0.0006482	8
	35	93	95.0169	897.8394	-3814.121	1	3918.371	-76.7538	2.53235E-007	0.0006587	8
	36	95	75.60484	1158.11	-4663.901	1	4805.538	-76.05473	2.34411E-008	0.0006184	7
	37	98	54.50582	1685.336	-6171.078	1	6397.075	-74.72488	2.225154E-008	0.000616	7
	38	100	45.95588	2056.979	-7120.771	1	7411.918	-73.88757	3.050133E-008	0.00062	7
	39	103	37.20238	2650.491	-8478.016	1	8882.672	-72.63913	1.907283E-008	0.0006704	7
	40	105	30.04808	3427.422	-10050.34	1	10618.69	-71.16931	2.515455E-008	0.000613	7
	41	107	23.91582	4500.756	-11979.37	1	12796.95	-69.40835	2.402081E-008	0.0006228	7
	42	110	18.60119	6095.348	-14422.89	1	15658	-67.09029	2.498725E-008	0.0006149	7
	43	112	15.02404	7824.311	-16717.96	1	18458.33	-64.91955	2.827381E-008	0.0006363	7
	44	114	12.01923	10077.32	-19290.37	1	21763.98	-62.41736	1.729033E-008	0.0006218	7
	45	117	9.450605	13118.92	-22172.87	1	25763.19	-59.38866	2.998254E-008	0.0006192	7
	46	119	7.512019	16592.71	-24973.49	1	29983.21	-56.39942	2.49188E-008	0.0006475	7
	47	122	5.978954	20725.97	-27549.91	1	34475.55	-53.04562	2.249589E-008	0.0006232	7
	48	125	4.734848	25484.45	-29814.09	1	39221.64	-49.47689	2.868722E-008	0.0006465	7
	49	128	3.75601	30703	-31572.88	1	44039.99	-45.80026	-8.175091E-009	0.0006445	6
	50	132	3.004808	36030.37	-32642.53	1	48618.13	-42.17571	-8.528348E-009	0.0006863	6
	51	135	2.372217	41642.82	-32737.97	1	52970.74	-38.17306	-7.656211E-009	0.0007355	6
	52	140	1.878005	46361.84	-30440.18	1	55461.92	-33.28804	-1.101121E-008	0.0006415	6
	53	149	1.512097	49683.26	-28141.34	1	57099.57	-29.52786	-8.926563E-009	0.0006764	6
	54	159	1.201923	52753.09	-25770.23	1	58711.1	-26.03582	-9.272961E-009	0.0006317	6
	55	172	0.956633	55828.14	-23896.03	1	60727.27	-23.1723	-2.440816E-008	2.488703E-005	6
