EXPLAIN
TAG	EISPOT
TITLE	LABEL	Potentiostatic EIS	Test Identifier
DATE	LABEL	8/22/2020	Date
TIME	LABEL	1:39:52	Time
NOTES	NOTES	1	Notes...
	
PSTAT	PSTAT	REF3000-16137	Potentiostat
VDC	POTEN	0.00000E+000	T	DC Voltage (V)
FREQINIT	QUANT	3.00000E+005	Initial Freq. (Hz)
FREQFINAL	QUANT	1.00000E+000	Final Freq. (Hz)
PTSPERDEC	QUANT	1.00000E+001	Points/decade
VAC	QUANT	5.00000E+001	AC Voltage (mV rms)
AREA	QUANT	1.00000E+000	Sample Area (cm^2)
SPEED	SELECTOR	2	Optimize for:
ZGUESS	QUANT	1.00000E+003	Estimated Z (ohms)
EOC	QUANT	0	Open Circuit (V)
SEQUENCER	TOGGLE	TRUE	Run as Sequence
PSTATMODEL	IQUANT	5	Pstat Model
PSTATSECTION	LABEL	REF3000-16137	Pstat Section
PSTATSERIALNO	LABEL	16137	Pstat Serial Number
CTRLMODE	IQUANT	1	Control Mode
IESTAB	IQUANT	0	I/E Stability
CASPEED	IQUANT	1	Control Amp Speed
CONVENTION	IQUANT	1	Current Convention
ICHRANGE	IQUANT	2	Ich Range
ICHRANGEMODE	TOGGLE	F	Ich Auto Range
ICHOFFSETENABLE	TOGGLE	T	Ich Offset Enable
ICHOFFSET	QUANT	0	Ich Offset (V)
ICHFILTER	IQUANT	3	Ich Filter
VCHRANGE	IQUANT	2	Vch Range
VCHRANGEMODE	TOGGLE	F	Vch Auto Range
VCHOFFSETENABLE	TOGGLE	T	Vch Offset Enable
VCHOFFSET	QUANT	0	Vch Offset (V)
VCHFILTER	IQUANT	3	Vch Filter
ACHRANGE	IQUANT	2	Ach Range
ACHOFFSETENABLE	TOGGLE	F	Ach Offset Enable
ACHOFFSET	QUANT	0	Ach Offset (V)
ACHFILTER	IQUANT	3	Ach Filter
IERANGELOWERLIMIT	IQUANT	2	I/E Range Lower Limit
IERANGEMODE	TOGGLE	F	I/E AutoRange
IERANGE	IQUANT	11	I/E Range
POSFEEDENABLE	TOGGLE	F	Positive Feedback IR Comp
POSFEEDRESISTANCE	QUANT	0	Positive Feedback Resistance (ohm)
ACHSELECT	IQUANT	0	Ach Select
CABLEID	IQUANT	13	Cable ID
DCCALDATE	LABEL	7/31/2020	DC Calibration Date
ACCALDATE	LABEL	7/31/2020	AC Calibration Date
THERMOSELECT	IQUANT	1	Thermo Select
FRAMEWORKVERSION	QUANT	6.33	Framework Version
INSTRUMENTVERSION	LABEL	3.50	Instrument Version
COMPLIANCEVOLTAGE	IQUANT	0	Compliance Voltage
ZCURVE	TABLE
	Pt	Time	Freq	Zreal	Zimag	Zsig	Zmod	Zphz	Idc	Vdc	IERange
	#	s	Hz	ohm	ohm	V	ohm	°	A	V	#
	0	14	300046.9	318.125	-4747.23	1	4757.878	-86.16618	-1.421786E-005	0.0017579	9
	1	28	238359.4	678.8925	-5734.71	1	5774.755	-83.24857	2.575469E-005	0.0010712	9
	2	45	189328.1	994.705	-7161.435	1	7230.186	-82.09236	2.590685E-007	-0.0019406	9
	3	53	150421.9	1167.167	-8949.155	1	9024.946	-82.56931	7.929854E-005	-0.0015787	9
	4	61	119484.4	2822.686	-11130.52	1	11482.86	-75.76986	4.1065E-005	-0.0187092	8
	5	68	94921.88	3498.221	-13355.39	1	13805.94	-75.32208	8.490822E-006	0.0041235	8
	6	77	75421.88	5125.746	-16539.73	1	17315.77	-72.78152	-2.412607E-005	0.0052847	8
	7	85	59859.37	7554.988	-19637.01	1	21040.2	-68.95666	-1.21758E-005	0.010319	8
	8	93	47578.12	13731.18	-23804.29	1	27480.72	-60.02209	-6.618762E-006	0.0258681	7
	9	99	37828.12	13981.27	-28517.5	1	31760.41	-63.88268	-2.000536E-006	0.0076182	8
	10	108	30046.88	23421.01	-30924.56	1	38792.68	-52.86118	-2.002291E-006	0.022406	7
	11	115	23859.38	30332.37	-32925.92	1	44767.95	-47.34777	-5.302732E-006	0.0033372	7
	12	121	18984.38	33861.46	-36751.93	1	49973.02	-47.34402	2.278426E-005	-0.0098097	8
	13	127	15046.87	41929.43	-34734.55	1	54447.83	-39.63852	2.619526E-005	-0.0051895	8
	14	133	11953.13	55182.93	-36215.93	1	66005.68	-33.27644	-2.389543E-005	0.0052231	8
	15	140	9515.62	56780.32	-31773.96	1	65066.04	-29.23114	1.682985E-005	-0.0094992	8
	16	146	7546.875	65029.9	-27962.51	1	70786.94	-23.26744	6.62894E-006	-0.0099954	7
	17	152	5928.309	73310.75	-25195.84	1	77519.66	-18.9671	7.579249E-006	-0.0183292	7
	18	157	4733.456	75252.91	-22881.2	1	78654.62	-16.91228	7.583571E-006	-0.0183342	7
	19	164	3796.875	78683.29	-19437.65	1	81048.64	-13.87633	-6.683671E-006	0.0118398	7
	20	170	2987.132	84294.86	-17149.14	1	86021.6	-11.49945	6.893418E-006	-0.0270511	7
	21	177	2390.625	95964.3	-9558.2	1	96439.1	-5.687998	-2.050115E-005	0.0010997	9
	22	184	1884.191	94480.87	-19041.08	1	96380.5	-11.3944	1.731485E-005	0.0003352	8
	23	192	1516.544	91689.95	-13198.92	1	92635.09	-8.191551	6.889147E-006	-0.0270992	7
	24	198	1193.986	94518.92	-11592.66	1	95227.2	-6.992355	-1.610123E-005	0.0006595	8
	25	206	946.5144	97525.2	-5062.799	1	97656.5	-2.971712	-7.393387E-006	0.0190015	7
	26	211	751.7689	99504.8	-14432.09	1	100546	-8.252582	5.41296E-006	-0.026877	7
	27	216	597.4265	99494.8	-20679.45	1	101621.1	-11.74144	7.594679E-006	-0.0182467	7
	28	221	477.4305	101246.6	-9573.58	1	101698.2	-5.401659	-9.032047E-008	0.0006166	7
	29	225	376.6741	102848.2	-8683.863	1	103214.2	-4.826252	-1.028091E-008	0.0007087	6
	30	227	298.2954	104212.8	-9416.1	1	104637.3	-5.162916	-9.573442E-009	0.0006121	6
	31	230	237.7717	105727.5	-10444.48	1	106242.1	-5.641763	-9.33337E-009	0.0006118	6
	32	232	189.0121	107447.3	-11657.31	1	108077.9	-6.191988	-9.383834E-009	0.0006468	6
	33	235	150.2404	109095.6	-13227.16	1	109894.6	-6.913012	-9.653265E-009	0.0006629	6
	34	237	119.1737	111490.6	-14573.14	1	112439.1	-7.44701	-9.669434E-009	0.0006112	6
	35	239	95.0169	113253.3	-17243.95	1	114558.6	-8.65736	-9.417649E-009	0.0006269	6
	36	242	75.60484	115651.1	-19916.15	1	117353.5	-9.77101	-9.748712E-009	0.0006102	6
	37	244	54.50582	119000.8	-24232.28	1	121443	-11.50984	-1.027724E-008	0.0006568	6
	38	247	45.95588	121573.4	-27228.63	1	124585.3	-12.62413	-9.354142E-009	0.0007082	6
	39	249	37.20238	124460.8	-31241.88	1	128322	-14.09112	-1.078978E-008	0.0007107	6
	40	252	30.04808	127858.5	-35798.14	1	132775.4	-15.64132	-9.692505E-009	0.0006096	6
	41	255	23.91582	131509.7	-41516.69	1	137907.4	-17.52054	-1.015281E-008	0.0007308	6
	42	257	18.60119	135847.6	-48810.61	1	144350.5	-19.76357	-7.741384E-009	0.0006557	6
	43	259	15.02404	139519.5	-56833.14	1	150650.9	-22.16348	-1.067652E-008	0.0006415	6
	44	262	12.01923	143366.3	-66481.59	1	158030.7	-24.87802	-8.786638E-009	0.0006514	6
	45	264	9.450605	147156.8	-79646.87	1	167328.3	-28.42393	-8.251975E-009	0.0006168	6
	46	267	7.512019	151454	-95543.8	1	179072.4	-32.24553	-9.989193E-009	0.0007174	6
	47	270	5.978954	155773.6	-115446.6	1	193890	-36.54282	-1.009695E-008	0.0007036	6
	48	274	4.734848	160323	-141160.1	1	213611	-41.36305	-1.003477E-008	0.0007242	6
	49	277	3.75601	165716.7	-173383.7	1	239841.4	-46.29523	-1.02421E-008	0.0006885	6
	50	283	3.004808	172072.9	-212287.6	1	273267.4	-50.97298	-9.359272E-009	0.0006148	6
	51	289	2.372217	179651.6	-263774.4	1	319142	-55.742	-1.003347E-008	0.0007264	6
	52	293	1.878005	187218.3	-328648.9	1	378233.8	-60.33154	-1.027971E-008	0.0006382	6
	53	298	1.512097	196281.6	-402362.8	1	447685.5	-63.99584	-9.773017E-010	0.0006754	5
	54	304	1.201923	207981.5	-501007.3	1	542461.6	-67.45536	-1.147835E-009	0.0006118	5
	55	310	0.956633	222109.5	-621808.4	1	660286.6	-70.34331	-1.155501E-009	9.103132E-008	5
