EXPLAIN
TAG	EISPOT
TITLE	LABEL	Potentiostatic EIS	Test Identifier
DATE	LABEL	8/22/2020	Date
TIME	LABEL	1:45:11	Time
NOTES	NOTES	1	Notes...
	
PSTAT	PSTAT	REF3000-16137	Potentiostat
VDC	POTEN	0.00000E+000	T	DC Voltage (V)
FREQINIT	QUANT	3.00000E+005	Initial Freq. (Hz)
FREQFINAL	QUANT	1.00000E+000	Final Freq. (Hz)
PTSPERDEC	QUANT	1.00000E+001	Points/decade
VAC	QUANT	5.00000E+001	AC Voltage (mV rms)
AREA	QUANT	1.00000E+000	Sample Area (cm^2)
SPEED	SELECTOR	2	Optimize for:
ZGUESS	QUANT	1.00000E+003	Estimated Z (ohms)
EOC	QUANT	0	Open Circuit (V)
SEQUENCER	TOGGLE	TRUE	Run as Sequence
PSTATMODEL	IQUANT	5	Pstat Model
PSTATSECTION	LABEL	REF3000-16137	Pstat Section
PSTATSERIALNO	LABEL	16137	Pstat Serial Number
CTRLMODE	IQUANT	1	Control Mode
IESTAB	IQUANT	0	I/E Stability
CASPEED	IQUANT	1	Control Amp Speed
CONVENTION	IQUANT	1	Current Convention
ICHRANGE	IQUANT	2	Ich Range
ICHRANGEMODE	TOGGLE	F	Ich Auto Range
ICHOFFSETENABLE	TOGGLE	T	Ich Offset Enable
ICHOFFSET	QUANT	0	Ich Offset (V)
ICHFILTER	IQUANT	3	Ich Filter
VCHRANGE	IQUANT	2	Vch Range
VCHRANGEMODE	TOGGLE	F	Vch Auto Range
VCHOFFSETENABLE	TOGGLE	T	Vch Offset Enable
VCHOFFSET	QUANT	0	Vch Offset (V)
VCHFILTER	IQUANT	3	Vch Filter
ACHRANGE	IQUANT	2	Ach Range
ACHOFFSETENABLE	TOGGLE	F	Ach Offset Enable
ACHOFFSET	QUANT	0	Ach Offset (V)
ACHFILTER	IQUANT	3	Ach Filter
IERANGELOWERLIMIT	IQUANT	2	I/E Range Lower Limit
IERANGEMODE	TOGGLE	F	I/E AutoRange
IERANGE	IQUANT	11	I/E Range
POSFEEDENABLE	TOGGLE	F	Positive Feedback IR Comp
POSFEEDRESISTANCE	QUANT	0	Positive Feedback Resistance (ohm)
ACHSELECT	IQUANT	0	Ach Select
CABLEID	IQUANT	13	Cable ID
DCCALDATE	LABEL	7/31/2020	DC Calibration Date
ACCALDATE	LABEL	7/31/2020	AC Calibration Date
THERMOSELECT	IQUANT	1	Thermo Select
FRAMEWORKVERSION	QUANT	6.33	Framework Version
INSTRUMENTVERSION	LABEL	3.50	Instrument Version
COMPLIANCEVOLTAGE	IQUANT	0	Compliance Voltage
ZCURVE	TABLE
	Pt	Time	Freq	Zreal	Zimag	Zsig	Zmod	Zphz	Idc	Vdc	IERange
	#	s	Hz	ohm	ohm	V	ohm	°	A	V	#
	0	15	300046.9	98.7673	-4878.819	1	4879.818	-88.84026	1.601262E-005	-0.0023208	9
	1	47	238359.4	138.6713	-5934.373	1	5935.993	-88.66138	-2.126618E-005	0.0016028	9
	2	74	189328.1	520.9635	-7385.846	1	7404.196	-85.9653	1.466124E-006	-0.0019559	9
	3	83	150421.9	486.4165	-9044.428	1	9057.498	-86.92155	2.675656E-005	-0.001492	9
	4	94	119484.4	1397.088	-11505.87	1	11590.38	-83.07681	7.839397E-005	-0.0237152	8
	5	101	94921.88	1816.329	-14313.35	1	14428.13	-82.76796	-2.059684E-005	0.0028044	8
	6	110	75421.88	2029.716	-17999.13	1	18113.21	-83.56609	-9.663404E-006	-0.0020908	8
	7	118	59859.37	3187.929	-22667.19	1	22890.27	-81.99439	-1.061908E-006	-0.0051188	8
	8	127	47578.12	8267.055	-28440.13	1	29617.31	-73.79176	-5.371026E-006	0.0035206	7
	9	133	37828.12	7224.48	-34434.61	1	35184.31	-78.15104	2.270149E-005	-0.0097792	8
	10	142	30046.88	10934.09	-43151.14	1	44514.89	-75.78107	8.198695E-006	-0.0077299	8
	11	151	23859.38	18813.78	-51196.61	1	54544.02	-69.82258	1.382014E-006	-0.0203257	7
	12	157	18984.38	25406.19	-62752.55	1	67700.5	-67.95879	7.620023E-006	-0.0185893	7
	13	162	15046.87	35826.65	-73445.88	1	81718.09	-63.99704	-1.012821E-006	-0.0136162	7
	14	167	11953.13	49574.92	-86882.32	1	100031	-60.29099	-6.571515E-006	0.0262279	7
	15	173	9515.62	62162.63	-99891.2	1	117653.9	-58.10584	2.750503E-005	-0.0074811	8
	16	180	7546.875	86530.82	-104443.7	1	135632.1	-50.35851	-5.375189E-006	0.0035603	7
	17	187	5928.309	112564.5	-121235.4	1	165435.1	-47.12395	7.622999E-006	-0.0185432	7
	18	193	4733.456	135744.2	-104291.9	1	171182	-37.53498	-3.782388E-006	0.0256572	7
	19	200	3796.875	158708.5	-113102.9	1	194886.3	-35.4754	7.010233E-006	-0.0274882	7
	20	205	2987.132	201990.9	-109035.1	1	229540.8	-28.36025	6.650982E-006	-0.0101433	7
	21	212	2390.625	188784.8	-108049.5	1	217518.8	-29.78433	2.766219E-006	0.0085877	7
	22	217	1884.191	234924.2	-72537.65	1	245868.1	-17.15914	-6.567733E-007	0.0100426	6
	23	222	1516.544	241257.7	-61721.56	1	249027.7	-14.35033	-4.954198E-007	0.0012571	6
	24	228	1193.986	190475.2	-52401.14	1	197551.7	-15.38197	8.144655E-006	-0.0077692	8
	25	236	946.5144	290823.7	-167678	1	335699.8	-29.96613	-1.895917E-006	0.0225868	7
	26	240	751.7689	294074.1	-117047	1	316511.5	-21.70348	7.732633E-006	-0.0247526	7
	27	245	597.4265	322983.1	4709.381	1	323017.4	0.8353644	-7.317743E-006	0.0186155	7
	28	250	477.4305	287217.4	-38951.75	1	289846.6	-7.723201	-9.259487E-008	0.000634	7
	29	256	376.6741	293351.7	-31959.63	1	295087.5	-6.21765	-1.033298E-008	0.0006764	6
	30	259	298.2954	297395	-30265.44	1	298931	-5.8109	-9.507056E-009	0.0006055	6
	31	261	237.7717	301967.6	-28519.74	1	303311.4	-5.395373	-1.046167E-008	0.0006929	6
	32	264	189.0121	306355.6	-28492.34	1	307677.7	-5.31346	-9.083188E-009	0.0006443	6
	33	266	150.2404	311704.4	-28963.3	1	313047.2	-5.30863	-1.030585E-008	0.0007098	6
	34	269	119.1737	320021.8	-27313.74	1	321185.3	-4.87835	-9.006341E-009	0.0006333	6
	35	271	95.0169	320874.7	-31937.33	1	322460.2	-5.684049	-9.862087E-009	0.0006571	6
	36	274	75.60484	326127.1	-34545	1	327951.6	-6.046505	-9.885153E-009	0.0006066	6
	37	277	54.50582	331595.9	-40921.58	1	334111.3	-7.035186	-9.700276E-009	0.0006027	6
	38	279	45.95588	338787	-43721.1	1	341596.5	-7.353486	-9.239667E-009	0.0007042	6
	39	281	37.20238	344985.9	-50130.3	1	348609.1	-8.267848	-1.101999E-008	0.0006944	6
	40	284	30.04808	351626.3	-55871.63	1	356037.4	-9.02853	-9.897281E-009	0.000699	6
	41	287	23.91582	360312.1	-64011.09	1	365953.8	-10.07376	-1.041099E-008	0.0007042	6
	42	289	18.60119	369595.8	-74867.85	1	377102.4	-11.45127	-1.000468E-008	0.0006545	6
	43	292	15.02404	380201.3	-84462.01	1	389469.9	-12.52491	-8.849829E-011	0.0006909	5
	44	294	12.01923	390364.3	-97753.5	1	402417.8	-14.05868	-1.026534E-009	0.0006279	5
	45	297	9.450605	402033.9	-114158	1	417927.4	-15.85196	-5.182995E-010	0.0006007	5
	46	299	7.512019	414657.7	-133247.8	1	435541	-17.8145	-6.932659E-010	0.0006665	5
	47	302	5.978954	428626.2	-155924.3	1	456106.1	-19.99022	-7.46974E-010	0.000596	5
	48	307	4.734848	443190.9	-183363.3	1	479625.2	-22.47656	-1.432561E-009	0.0006124	5
	49	310	3.75601	459900.1	-217376.2	1	508685	-25.29821	-1.083617E-009	0.0006144	5
	50	316	3.004808	477621.4	-258062.6	1	542879.9	-28.3827	-1.05158E-009	0.0006526	5
	51	322	2.372217	496125.3	-311783.6	1	585960.1	-32.14679	-1.292602E-009	0.0005996	5
	52	326	1.878005	512281.5	-378821.5	1	637132.7	-36.48215	-1.10914E-009	0.0006511	5
	53	331	1.512097	530254.6	-456205.8	1	699495.3	-40.70714	-1.183818E-009	0.0005473	5
	54	336	1.201923	550540.5	-561053.8	1	786051	-45.54188	-1.100068E-009	0.0006612	5
	55	342	0.956633	573882.1	-690750.8	1	898040.8	-50.27988	-1.137703E-009	5.106622E-007	5
