EXPLAIN
TAG	EISPOT
TITLE	LABEL	Potentiostatic EIS	Test Identifier
DATE	LABEL	8/22/2020	Date
TIME	LABEL	0:13:02	Time
NOTES	NOTES	1	Notes...
	
PSTAT	PSTAT	REF3000-16137	Potentiostat
VDC	POTEN	0.00000E+000	T	DC Voltage (V)
FREQINIT	QUANT	3.00000E+005	Initial Freq. (Hz)
FREQFINAL	QUANT	1.00000E+000	Final Freq. (Hz)
PTSPERDEC	QUANT	1.00000E+001	Points/decade
VAC	QUANT	5.00000E+001	AC Voltage (mV rms)
AREA	QUANT	1.00000E+000	Sample Area (cm^2)
SPEED	SELECTOR	2	Optimize for:
ZGUESS	QUANT	1.00000E+003	Estimated Z (ohms)
EOC	QUANT	0	Open Circuit (V)
SEQUENCER	TOGGLE	TRUE	Run as Sequence
PSTATMODEL	IQUANT	5	Pstat Model
PSTATSECTION	LABEL	REF3000-16137	Pstat Section
PSTATSERIALNO	LABEL	16137	Pstat Serial Number
CTRLMODE	IQUANT	1	Control Mode
IESTAB	IQUANT	0	I/E Stability
CASPEED	IQUANT	1	Control Amp Speed
CONVENTION	IQUANT	1	Current Convention
ICHRANGE	IQUANT	2	Ich Range
ICHRANGEMODE	TOGGLE	F	Ich Auto Range
ICHOFFSETENABLE	TOGGLE	T	Ich Offset Enable
ICHOFFSET	QUANT	0	Ich Offset (V)
ICHFILTER	IQUANT	3	Ich Filter
VCHRANGE	IQUANT	2	Vch Range
VCHRANGEMODE	TOGGLE	F	Vch Auto Range
VCHOFFSETENABLE	TOGGLE	T	Vch Offset Enable
VCHOFFSET	QUANT	0	Vch Offset (V)
VCHFILTER	IQUANT	3	Vch Filter
ACHRANGE	IQUANT	2	Ach Range
ACHOFFSETENABLE	TOGGLE	F	Ach Offset Enable
ACHOFFSET	QUANT	0	Ach Offset (V)
ACHFILTER	IQUANT	3	Ach Filter
IERANGELOWERLIMIT	IQUANT	2	I/E Range Lower Limit
IERANGEMODE	TOGGLE	F	I/E AutoRange
IERANGE	IQUANT	11	I/E Range
POSFEEDENABLE	TOGGLE	F	Positive Feedback IR Comp
POSFEEDRESISTANCE	QUANT	0	Positive Feedback Resistance (ohm)
ACHSELECT	IQUANT	0	Ach Select
CABLEID	IQUANT	13	Cable ID
DCCALDATE	LABEL	7/31/2020	DC Calibration Date
ACCALDATE	LABEL	7/31/2020	AC Calibration Date
THERMOSELECT	IQUANT	1	Thermo Select
FRAMEWORKVERSION	QUANT	6.33	Framework Version
INSTRUMENTVERSION	LABEL	3.50	Instrument Version
COMPLIANCEVOLTAGE	IQUANT	0	Compliance Voltage
ZCURVE	TABLE
	Pt	Time	Freq	Zreal	Zimag	Zsig	Zmod	Zphz	Idc	Vdc	IERange
	#	s	Hz	ohm	ohm	V	ohm	°	A	V	#
	0	7	300046.9	92.63804	-4.929313	1	92.76909	-3.045863	-5.372988E-005	0.0006297	9
	1	11	238359.4	93.11465	-6.536977	1	93.34383	-4.015777	1.312802E-005	-0.0010954	9
	2	14	189328.1	94.10558	-7.838813	1	94.4315	-4.761635	7.000616E-005	-0.0022767	9
	3	16	150421.9	94.67503	-9.63301	1	95.1638	-5.809745	-1.083602E-005	0.0010397	9
	4	19	119484.4	95.8259	-11.34631	1	96.4953	-6.752695	4.584823E-005	-0.0003682	9
	5	21	94921.88	97.1025	-13.18106	1	97.9931	-7.730294	1.266991E-005	-0.0006611	9
	6	24	75421.88	98.5315	-15.53053	1	99.7479	-8.957263	2.193177E-005	-0.0002769	9
	7	26	59859.37	100.1119	-18.32362	1	101.775	-10.37212	-1.402581E-005	0.0006419	9
	8	29	47578.12	102.0016	-21.3921	1	104.2207	-11.84458	2.41703E-005	-0.0005171	9
	9	31	37828.12	104.6542	-24.86645	1	107.5678	-13.36596	-1.303836E-005	0.0001009	9
	10	34	30046.88	106.8756	-28.76521	1	110.6789	-15.064	2.392013E-005	-0.0004953	9
	11	36	23859.38	109.2675	-33.31018	1	114.232	-16.95383	-1.122526E-005	0.0008236	9
	12	39	18984.38	111.7404	-38.62604	1	118.2282	-19.06906	2.263886E-005	-0.0006733	9
	13	41	15046.87	114.4989	-45.03525	1	123.0373	-21.47094	-1.423329E-005	0.0001988	9
	14	43	11953.13	116.9696	-52.77933	1	128.326	-24.28596	1.933202E-005	-0.0001645	9
	15	46	9515.62	119.2094	-62.34267	1	134.5269	-27.60813	-1.928929E-005	0.0008019	9
	16	48	7546.875	121.3968	-74.856	1	142.6205	-31.65892	2.444911E-005	-0.0004758	9
	17	50	5928.309	123.9605	-91.05691	1	153.8102	-36.29966	-2.351918E-006	-0.0002589	9
	18	53	4733.456	126.1967	-110.6911	1	167.8634	-41.25501	-1.6978E-005	0.000831	9
	19	55	3796.875	128.9587	-134.3513	1	186.2273	-46.17325	2.217226E-005	-0.00069	9
	20	57	2987.132	131.9172	-167.1376	1	212.9252	-51.7169	2.404648E-005	-0.0005842	9
	21	60	2390.625	135.7996	-205.5059	1	246.3213	-56.54302	1.800252E-005	-0.0001999	9
	22	62	1884.191	141.1988	-256.7358	1	293.0024	-61.19022	1.235799E-005	-0.0006271	9
	23	64	1516.544	146.4234	-314.7494	1	347.1412	-65.05186	-5.026855E-006	0.000674	9
	24	67	1193.986	154.6104	-393.6656	1	422.9385	-68.5578	2.43552E-005	-0.0004657	9
	25	69	946.5144	164.7412	-488.2675	1	515.3104	-71.35563	-9.366096E-007	-0.000167	8
	26	71	751.7689	177.785	-606.5104	1	632.0304	-73.66268	6.65174E-006	-0.0010338	8
	27	74	597.4265	197.9184	-752.2784	1	777.8782	-75.25997	6.484887E-006	-0.001383	8
	28	76	477.4305	221.5116	-927.0809	1	953.177	-76.562	2.28208E-007	0.000643	8
	29	78	376.6741	255.2554	-1156.201	1	1184.042	-77.55046	2.196594E-007	0.0006415	8
	30	81	298.2954	299.4345	-1435.232	1	1466.135	-78.21534	2.339288E-007	0.000648	8
	31	83	237.7717	355.8634	-1768.475	1	1803.925	-78.62254	2.273919E-007	0.0006418	8
	32	85	189.0121	430.6556	-2181.673	1	2223.772	-78.83355	2.36495E-007	0.0006436	8
	33	88	150.2404	528.2744	-2687.564	1	2738.991	-78.87957	2.456935E-007	0.0006396	8
	34	90	119.1737	657.1297	-3313.712	1	3378.24	-78.78341	2.530617E-007	0.0006417	8
	35	93	95.0169	820.6883	-4060.476	1	4142.583	-78.57352	2.334664E-007	0.0006468	8
	36	95	75.60484	1039.381	-4988.56	1	5095.689	-78.23064	2.045808E-008	0.0006668	7
	37	98	54.50582	1472.248	-6659.485	1	6820.283	-77.53383	2.595483E-008	0.0006114	7
	38	100	45.95588	1776.427	-7736.396	1	7937.727	-77.06795	3.426553E-008	0.0006172	7
	39	103	37.20238	2256.376	-9295.229	1	9565.17	-76.35561	2.72958E-008	0.0006242	7
	40	105	30.04808	2882.576	-11159.99	1	11526.25	-75.51729	2.820025E-008	0.0006142	7
	41	107	23.91582	3765.469	-13517.45	1	14032.11	-74.4341	3.18039E-008	0.0006166	7
	42	110	18.60119	5088.879	-16653.95	1	17414.1	-73.00864	2.6917E-008	0.0006156	7
	43	112	15.02404	6554.304	-19749.22	1	20808.43	-71.64021	2.850821E-008	0.0006319	7
	44	114	12.01923	8563.526	-23481.8	1	24994.57	-69.9637	3.443941E-008	0.0006232	7
	45	117	9.450605	11328.32	-28066.51	1	30266.48	-68.01981	3.136809E-008	0.0006091	7
	46	119	7.512019	14732	-32955.58	1	36098.51	-65.91412	3.540727E-008	0.0006374	7
	47	122	5.978954	18977.95	-38344.26	1	42783.7	-63.66755	1.339368E-008	0.0006633	6
	48	125	4.734848	24322.32	-44258.43	1	50501.33	-61.20891	1.414405E-008	0.0006845	6
	49	128	3.75601	30770.14	-50425.42	1	59072.2	-58.608	6.441488E-009	0.0006479	6
	50	133	3.004808	38192.17	-56542.22	1	68232.43	-55.96243	1.143611E-008	0.0006282	6
	51	136	2.372217	47446.82	-62931.66	1	78813.67	-52.98583	6.897729E-009	0.0005881	6
	52	140	1.878005	58001.35	-68371.18	1	89659.22	-49.69104	6.974391E-009	0.0006658	6
	53	145	1.512097	68838.66	-72585.34	1	100037	-46.51756	7.949108E-009	0.0005624	6
	54	151	1.201923	81266.8	-76496.72	1	111606.6	-43.26815	5.430894E-009	0.0006833	6
	55	157	0.956633	94187.84	-77964.63	1	122269.5	-39.61649	1.668871E-009	5.469991E-005	6
