EXPLAIN
TAG	EISPOT
TITLE	LABEL	Potentiostatic EIS	Test Identifier
DATE	LABEL	8/22/2020	Date
TIME	LABEL	3:14:04	Time
NOTES	NOTES	1	Notes...
	
PSTAT	PSTAT	REF3000-16137	Potentiostat
VDC	POTEN	0.00000E+000	T	DC Voltage (V)
FREQINIT	QUANT	3.00000E+005	Initial Freq. (Hz)
FREQFINAL	QUANT	1.00000E+000	Final Freq. (Hz)
PTSPERDEC	QUANT	1.00000E+001	Points/decade
VAC	QUANT	5.00000E+001	AC Voltage (mV rms)
AREA	QUANT	1.00000E+000	Sample Area (cm^2)
SPEED	SELECTOR	2	Optimize for:
ZGUESS	QUANT	1.00000E+003	Estimated Z (ohms)
EOC	QUANT	0	Open Circuit (V)
SEQUENCER	TOGGLE	TRUE	Run as Sequence
PSTATMODEL	IQUANT	5	Pstat Model
PSTATSECTION	LABEL	REF3000-16137	Pstat Section
PSTATSERIALNO	LABEL	16137	Pstat Serial Number
CTRLMODE	IQUANT	1	Control Mode
IESTAB	IQUANT	0	I/E Stability
CASPEED	IQUANT	1	Control Amp Speed
CONVENTION	IQUANT	1	Current Convention
ICHRANGE	IQUANT	2	Ich Range
ICHRANGEMODE	TOGGLE	F	Ich Auto Range
ICHOFFSETENABLE	TOGGLE	T	Ich Offset Enable
ICHOFFSET	QUANT	0	Ich Offset (V)
ICHFILTER	IQUANT	3	Ich Filter
VCHRANGE	IQUANT	2	Vch Range
VCHRANGEMODE	TOGGLE	F	Vch Auto Range
VCHOFFSETENABLE	TOGGLE	T	Vch Offset Enable
VCHOFFSET	QUANT	0	Vch Offset (V)
VCHFILTER	IQUANT	3	Vch Filter
ACHRANGE	IQUANT	2	Ach Range
ACHOFFSETENABLE	TOGGLE	F	Ach Offset Enable
ACHOFFSET	QUANT	0	Ach Offset (V)
ACHFILTER	IQUANT	3	Ach Filter
IERANGELOWERLIMIT	IQUANT	2	I/E Range Lower Limit
IERANGEMODE	TOGGLE	F	I/E AutoRange
IERANGE	IQUANT	11	I/E Range
POSFEEDENABLE	TOGGLE	F	Positive Feedback IR Comp
POSFEEDRESISTANCE	QUANT	0	Positive Feedback Resistance (ohm)
ACHSELECT	IQUANT	0	Ach Select
CABLEID	IQUANT	13	Cable ID
DCCALDATE	LABEL	7/31/2020	DC Calibration Date
ACCALDATE	LABEL	7/31/2020	AC Calibration Date
THERMOSELECT	IQUANT	1	Thermo Select
FRAMEWORKVERSION	QUANT	6.33	Framework Version
INSTRUMENTVERSION	LABEL	3.50	Instrument Version
COMPLIANCEVOLTAGE	IQUANT	0	Compliance Voltage
ZCURVE	TABLE
	Pt	Time	Freq	Zreal	Zimag	Zsig	Zmod	Zphz	Idc	Vdc	IERange
	#	s	Hz	ohm	ohm	V	ohm	°	A	V	#
	0	7	300046.9	88.03844	-4.692691	1	88.16342	-3.051135	-6.987592E-005	0.0017206	9
	1	10	238359.4	88.51444	-6.259548	1	88.7355	-4.045098	-7.53563E-005	0.0024886	9
	2	13	189328.1	89.33133	-7.781488	1	89.6696	-4.978364	1.126996E-005	-0.0015917	9
	3	16	150421.9	90.06976	-9.471747	1	90.56641	-6.003168	1.751904E-005	-0.0005184	9
	4	18	119484.4	91.13979	-11.14425	1	91.8186	-6.971315	-8.820152E-006	0.0007904	9
	5	21	94921.88	92.27424	-12.94686	1	93.17809	-7.986946	-2.19877E-006	-0.0002985	9
	6	23	75421.88	93.57872	-15.2884	1	94.81937	-9.27871	-4.433505E-006	0.0006577	9
	7	26	59859.37	95.1436	-17.98356	1	96.8283	-10.70348	1.922844E-005	-0.0002	9
	8	28	47578.12	96.9257	-20.9053	1	99.1546	-12.17132	-4.475964E-006	0.0006829	9
	9	31	37828.12	98.8721	-24.28911	1	101.8119	-13.80206	1.810349E-005	-0.0006818	9
	10	34	30046.88	101.1028	-28.13022	1	104.9432	-15.54837	1.167928E-005	-0.0006093	9
	11	36	23859.38	103.5207	-32.61683	1	108.5376	-17.48835	1.243242E-005	8.695789E-005	9
	12	38	18984.38	105.9591	-37.74404	1	112.4808	-19.60658	2.206579E-005	-0.0002307	9
	13	41	15046.87	108.5	-44.01853	1	117.0892	-22.08243	1.904947E-005	-0.000106	9
	14	43	11953.13	110.8029	-51.45701	1	122.1684	-24.91022	2.773996E-007	-0.0002703	9
	15	45	9515.62	113.2184	-60.98213	1	128.5972	-28.30796	1.565303E-005	-0.0006907	9
	16	48	7546.875	115.6159	-73.12598	1	136.8007	-32.31298	-1.666404E-005	0.0007858	9
	17	50	5928.309	117.7158	-88.99487	1	147.5706	-37.08982	-1.883956E-005	0.0004885	9
	18	52	4733.456	120.0885	-107.8579	1	161.4144	-41.92871	1.8969E-005	-0.0001412	9
	19	55	3796.875	122.5999	-131.0457	1	179.4539	-46.9071	1.137275E-005	0.0001162	9
	20	57	2987.132	125.6773	-162.9064	1	205.7505	-52.35092	-9.828419E-006	1.499013E-005	9
	21	59	2390.625	129.8395	-199.4653	1	238.0015	-56.93837	-1.950349E-005	0.0006585	9
	22	62	1884.191	135.1634	-248.4659	1	282.8506	-61.45417	-1.883106E-005	0.0004836	9
	23	64	1516.544	140.4585	-304.8465	1	335.6486	-65.26205	-1.88506E-005	0.0004896	9
	24	66	1193.986	150.3038	-381.7697	1	410.2918	-68.5103	-1.907765E-005	0.0007643	9
	25	69	946.5144	160.1291	-472.4676	1	498.8656	-71.27741	5.004492E-006	3.669838E-005	8
	26	71	751.7689	175.6024	-586.4965	1	612.2208	-73.33183	3.015418E-006	0.0008599	8
	27	73	597.4265	195.7694	-725.7132	1	751.655	-74.90317	-5.13882E-006	0.0023057	8
	28	76	477.4305	221.2251	-893.7338	1	920.7066	-76.09708	2.48944E-007	0.0006426	8
	29	78	376.6741	257.5901	-1112.702	1	1142.128	-76.96565	2.457597E-007	0.0006411	8
	30	80	298.2954	305.545	-1378.894	1	1412.341	-77.50588	2.400046E-007	0.0006438	8
	31	83	237.7717	367.6252	-1695.878	1	1735.266	-77.76891	2.522283E-007	0.000642	8
	32	85	189.0121	451.2422	-2088.038	1	2136.24	-77.80544	2.322278E-007	0.0006481	8
	33	87	150.2404	562.5033	-2566.354	1	2627.277	-77.63719	2.575545E-007	0.0006439	8
	34	90	119.1737	713.5598	-3155.108	1	3234.791	-77.25636	2.591706E-007	0.0006383	8
	35	92	95.0169	909.7332	-3852.016	1	3957.984	-76.7119	2.477783E-007	0.0006457	8
	36	95	75.60484	1177.552	-4709.195	1	4854.188	-75.96085	1.795023E-008	0.0006149	7
	37	97	54.50582	1721.569	-6227.021	1	6460.619	-74.54561	1.694865E-008	0.0006134	7
	38	100	45.95588	2110.649	-7182.965	1	7486.643	-73.62505	2.736211E-008	0.0006231	7
	39	102	37.20238	2723.799	-8537.227	1	8961.212	-72.30473	1.792824E-008	0.0006251	7
	40	105	30.04808	3529.906	-10115.03	1	10713.27	-70.76222	1.917192E-008	0.0006219	7
	41	107	23.91582	4653.886	-12030.13	1	12898.94	-68.85091	1.30204E-008	0.000666	7
	42	109	18.60119	6285.603	-14438.39	1	15747.25	-66.47459	1.490874E-008	0.0006194	7
	43	112	15.02404	8064.801	-16692.96	1	18539.04	-64.21361	1.38488E-008	0.0006228	7
	44	114	12.01923	10391.87	-19172.98	1	21808.12	-61.54205	1.988288E-008	0.0006241	7
	45	116	9.450605	13482.39	-21939.1	1	25750.71	-58.42773	2.333872E-008	0.0006183	7
	46	119	7.512019	17018.17	-24535.29	1	29859.65	-55.25405	2.559525E-008	0.0006367	7
	47	122	5.978954	21127.81	-26886.33	1	34194.43	-51.83904	2.137678E-008	0.0006244	7
	48	125	4.734848	25911.93	-28855.88	1	38782.59	-48.07687	1.77206E-008	0.0006433	7
	49	128	3.75601	31008.61	-30241.18	1	43313.54	-44.28215	-2.932931E-009	0.0006776	6
	50	131	3.004808	36054.83	-30842.38	1	47446.85	-40.54467	-1.262731E-008	0.000702	6
	51	135	2.372217	41326.64	-30502.91	1	51364.57	-36.43078	-5.335957E-009	0.0007	6
	52	139	1.878005	45431.62	-27952.92	1	53342.27	-31.60292	-9.532806E-009	0.000648	6
	53	148	1.512097	48435.37	-25790.16	1	54873.65	-28.03376	-1.036182E-008	0.0007671	6
	54	159	1.201923	51148.12	-23548.36	1	56308.58	-24.72112	-9.066841E-009	0.0006466	6
	55	172	0.956633	54143.12	-21967.58	1	58429.89	-22.08396	-3.128085E-008	2.372841E-005	6
