EXPLAIN
TAG	EISPOT
TITLE	LABEL	Potentiostatic EIS	Test Identifier
DATE	LABEL	8/22/2020	Date
TIME	LABEL	3:04:54	Time
NOTES	NOTES	1	Notes...
	
PSTAT	PSTAT	REF3000-16137	Potentiostat
VDC	POTEN	0.00000E+000	T	DC Voltage (V)
FREQINIT	QUANT	3.00000E+005	Initial Freq. (Hz)
FREQFINAL	QUANT	1.00000E+000	Final Freq. (Hz)
PTSPERDEC	QUANT	1.00000E+001	Points/decade
VAC	QUANT	5.00000E+001	AC Voltage (mV rms)
AREA	QUANT	1.00000E+000	Sample Area (cm^2)
SPEED	SELECTOR	2	Optimize for:
ZGUESS	QUANT	1.00000E+003	Estimated Z (ohms)
EOC	QUANT	0	Open Circuit (V)
SEQUENCER	TOGGLE	TRUE	Run as Sequence
PSTATMODEL	IQUANT	5	Pstat Model
PSTATSECTION	LABEL	REF3000-16137	Pstat Section
PSTATSERIALNO	LABEL	16137	Pstat Serial Number
CTRLMODE	IQUANT	1	Control Mode
IESTAB	IQUANT	0	I/E Stability
CASPEED	IQUANT	1	Control Amp Speed
CONVENTION	IQUANT	1	Current Convention
ICHRANGE	IQUANT	2	Ich Range
ICHRANGEMODE	TOGGLE	F	Ich Auto Range
ICHOFFSETENABLE	TOGGLE	T	Ich Offset Enable
ICHOFFSET	QUANT	0	Ich Offset (V)
ICHFILTER	IQUANT	3	Ich Filter
VCHRANGE	IQUANT	2	Vch Range
VCHRANGEMODE	TOGGLE	F	Vch Auto Range
VCHOFFSETENABLE	TOGGLE	T	Vch Offset Enable
VCHOFFSET	QUANT	0	Vch Offset (V)
VCHFILTER	IQUANT	3	Vch Filter
ACHRANGE	IQUANT	2	Ach Range
ACHOFFSETENABLE	TOGGLE	F	Ach Offset Enable
ACHOFFSET	QUANT	0	Ach Offset (V)
ACHFILTER	IQUANT	3	Ach Filter
IERANGELOWERLIMIT	IQUANT	2	I/E Range Lower Limit
IERANGEMODE	TOGGLE	F	I/E AutoRange
IERANGE	IQUANT	11	I/E Range
POSFEEDENABLE	TOGGLE	F	Positive Feedback IR Comp
POSFEEDRESISTANCE	QUANT	0	Positive Feedback Resistance (ohm)
ACHSELECT	IQUANT	0	Ach Select
CABLEID	IQUANT	13	Cable ID
DCCALDATE	LABEL	7/31/2020	DC Calibration Date
ACCALDATE	LABEL	7/31/2020	AC Calibration Date
THERMOSELECT	IQUANT	1	Thermo Select
FRAMEWORKVERSION	QUANT	6.33	Framework Version
INSTRUMENTVERSION	LABEL	3.50	Instrument Version
COMPLIANCEVOLTAGE	IQUANT	0	Compliance Voltage
ZCURVE	TABLE
	Pt	Time	Freq	Zreal	Zimag	Zsig	Zmod	Zphz	Idc	Vdc	IERange
	#	s	Hz	ohm	ohm	V	ohm	°	A	V	#
	0	7	300046.9	109.3516	-6.474341	1	109.5431	-3.388334	1.580151E-005	-0.0015361	9
	1	10	238359.4	109.2636	-7.823494	1	109.5434	-4.095503	1.296777E-005	-0.0011413	9
	2	14	189328.1	109.6487	-9.37648	1	110.0488	-4.887693	-6.027511E-006	0.0013108	9
	3	16	150421.9	110.2198	-11.18631	1	110.786	-5.79516	1.306408E-005	-0.0008486	9
	4	19	119484.4	110.8728	-12.9534	1	111.6269	-6.663724	-8.890892E-006	-0.001078	9
	5	21	94921.88	111.7786	-14.91946	1	112.7698	-7.602527	2.379373E-005	-0.0007667	9
	6	24	75421.88	112.9351	-17.4845	1	114.2806	-8.800602	-1.793237E-005	0.0008831	9
	7	27	59859.37	114.2825	-20.39715	1	116.0885	-10.1196	2.224155E-005	-0.000851	9
	8	29	47578.12	115.945	-23.64623	1	118.3316	-11.52703	-5.519708E-006	0.0006603	9
	9	32	37828.12	117.8218	-27.22077	1	120.9254	-13.00899	-1.18008E-005	0.0008487	9
	10	34	30046.88	119.9446	-31.49185	1	124.0099	-14.71116	-2.100966E-005	0.0006204	9
	11	37	23859.38	122.3458	-36.297	1	127.6165	-16.52433	-5.060994E-006	0.0007431	9
	12	39	18984.38	124.8052	-41.95226	1	131.6675	-18.57965	1.288091E-005	0.0001729	9
	13	41	15046.87	127.4182	-48.59232	1	136.3694	-20.8749	1.168561E-005	0.0001316	9
	14	44	11953.13	129.8349	-56.8749	1	141.7457	-23.65609	2.442989E-005	-0.0004364	9
	15	46	9515.62	132.136	-66.99226	1	148.1481	-26.88478	-1.833609E-005	0.0008311	9
	16	48	7546.875	134.3467	-79.93549	1	156.3289	-30.75239	2.424154E-005	-0.0004864	9
	17	51	5928.309	136.4142	-97.0209	1	167.3974	-35.4213	-2.737277E-006	-0.0002689	9
	18	53	4733.456	138.4345	-117.5999	1	181.642	-40.34785	1.934796E-005	-0.0001229	9
	19	55	3796.875	140.61	-142.6134	1	200.2742	-45.4053	2.483986E-005	-0.0006313	9
	20	58	2987.132	143.43	-177.127	1	227.917	-51.0009	-1.013386E-005	1.245873E-005	9
	21	60	2390.625	146.6679	-217.6535	1	262.4586	-56.02556	1.170475E-005	0.0001383	9
	22	62	1884.191	150.6282	-272.8097	1	311.6311	-61.09531	2.483059E-005	-0.000469	9
	23	64	1516.544	156.4208	-332.7347	1	367.6682	-64.82147	2.423484E-005	-0.0004575	9
	24	67	1193.986	164.4895	-417.3831	1	448.6262	-68.49074	-1.766744E-005	0.0004158	9
	25	69	946.5144	176.3787	-516.0992	1	545.4062	-71.13196	1.128285E-006	-0.0009108	8
	26	72	751.7689	187.281	-641.9857	1	668.7449	-73.7369	-5.702719E-006	0.0017754	8
	27	74	597.4265	208.0287	-796.743	1	823.4533	-75.36683	5.869859E-006	-0.0016061	8
	28	76	477.4305	232.6483	-981.787	1	1008.975	-76.66885	1.544382E-007	0.0006455	8
	29	79	376.6741	268.4748	-1224.815	1	1253.894	-77.63652	1.670421E-007	0.0006413	8
	30	81	298.2954	316.2366	-1521.274	1	1553.796	-78.25682	1.560965E-007	0.000651	8
	31	83	237.7717	379.8029	-1874.229	1	1912.325	-78.54443	1.565103E-007	0.0006448	8
	32	86	189.0121	465.9996	-2313.732	1	2360.193	-78.61263	1.603976E-007	0.0006446	8
	33	88	150.2404	583.0272	-2850.833	1	2909.84	-78.44176	1.787051E-007	0.0006371	8
	34	90	119.1737	744.2143	-3512.32	1	3590.299	-78.03672	1.588437E-007	0.0006503	8
	35	93	95.0169	959.131	-4304.628	1	4410.188	-77.43889	-4.109946E-008	0.0006224	7
	36	95	75.60484	1250.485	-5260.867	1	5407.442	-76.62917	-4.287958E-008	0.0006152	7
	37	98	54.50582	1851.591	-6967.811	1	7209.631	-75.11843	-4.300866E-008	0.0006135	7
	38	100	45.95588	2286.409	-8041.878	1	8360.59	-74.12887	-4.027082E-008	0.0006271	7
	39	103	37.20238	2986.941	-9568.63	1	10024	-72.66373	-4.244995E-008	0.0006221	7
	40	105	30.04808	3923.994	-11341.4	1	12001.04	-70.91496	-4.711961E-008	0.0006214	7
	41	108	23.91582	5258.052	-13483.06	1	14472.04	-68.69547	-4.84319E-008	0.0006081	7
	42	110	18.60119	7200.714	-16148.12	1	17680.84	-65.96712	-4.847254E-008	0.0006301	7
	43	112	15.02404	9342.628	-18565.71	1	20783.89	-63.28756	-3.511786E-008	0.000624	7
	44	115	12.01923	12131.85	-21171.07	1	24400.74	-60.18562	-4.823294E-008	0.0006115	7
	45	117	9.450605	15838.67	-23944.49	1	28708.92	-56.51638	-5.095195E-008	0.0006234	7
	46	120	7.512019	19996.69	-26272.38	1	33016.75	-52.72416	-4.918956E-008	0.0006124	7
	47	122	5.978954	24744.18	-28066.32	1	37416.48	-48.59954	-4.979268E-008	0.0006278	7
	48	125	4.734848	29984.34	-29144.23	1	41814.43	-44.18598	-6.584747E-008	0.0006708	6
	49	129	3.75601	35205.36	-29429.38	1	45885.79	-39.89342	-6.881898E-008	0.0006726	6
	50	132	3.004808	39712.91	-28282.51	1	48754.64	-35.45749	-6.609292E-008	0.000642	6
	51	138	2.372217	44507.27	-27529.2	1	52333.1	-31.73815	-7.199043E-008	0.0006136	6
	52	143	1.878005	47799.08	-24902.32	1	53896.92	-27.51857	-6.983346E-008	0.0006796	6
	53	152	1.512097	50312.25	-22845.25	1	55256.02	-24.42135	-6.871669E-008	0.0005626	6
	54	162	1.201923	52843.62	-21010.76	1	56867.39	-21.68289	-6.799845E-008	0.0006887	6
	55	175	0.956633	54980.05	-19180.43	1	58229.67	-19.23192	-7.893855E-008	3.240593E-005	6
