EXPLAIN
TAG	EISPOT
TITLE	LABEL	Potentiostatic EIS	Test Identifier
DATE	LABEL	8/22/2020	Date
TIME	LABEL	1:25:03	Time
NOTES	NOTES	1	Notes...
	
PSTAT	PSTAT	REF3000-16137	Potentiostat
VDC	POTEN	0.00000E+000	T	DC Voltage (V)
FREQINIT	QUANT	3.00000E+005	Initial Freq. (Hz)
FREQFINAL	QUANT	1.00000E+000	Final Freq. (Hz)
PTSPERDEC	QUANT	1.00000E+001	Points/decade
VAC	QUANT	5.00000E+001	AC Voltage (mV rms)
AREA	QUANT	1.00000E+000	Sample Area (cm^2)
SPEED	SELECTOR	2	Optimize for:
ZGUESS	QUANT	1.00000E+003	Estimated Z (ohms)
EOC	QUANT	0	Open Circuit (V)
SEQUENCER	TOGGLE	TRUE	Run as Sequence
PSTATMODEL	IQUANT	5	Pstat Model
PSTATSECTION	LABEL	REF3000-16137	Pstat Section
PSTATSERIALNO	LABEL	16137	Pstat Serial Number
CTRLMODE	IQUANT	1	Control Mode
IESTAB	IQUANT	0	I/E Stability
CASPEED	IQUANT	1	Control Amp Speed
CONVENTION	IQUANT	1	Current Convention
ICHRANGE	IQUANT	2	Ich Range
ICHRANGEMODE	TOGGLE	F	Ich Auto Range
ICHOFFSETENABLE	TOGGLE	T	Ich Offset Enable
ICHOFFSET	QUANT	0	Ich Offset (V)
ICHFILTER	IQUANT	3	Ich Filter
VCHRANGE	IQUANT	2	Vch Range
VCHRANGEMODE	TOGGLE	F	Vch Auto Range
VCHOFFSETENABLE	TOGGLE	T	Vch Offset Enable
VCHOFFSET	QUANT	0	Vch Offset (V)
VCHFILTER	IQUANT	3	Vch Filter
ACHRANGE	IQUANT	2	Ach Range
ACHOFFSETENABLE	TOGGLE	F	Ach Offset Enable
ACHOFFSET	QUANT	0	Ach Offset (V)
ACHFILTER	IQUANT	3	Ach Filter
IERANGELOWERLIMIT	IQUANT	2	I/E Range Lower Limit
IERANGEMODE	TOGGLE	F	I/E AutoRange
IERANGE	IQUANT	11	I/E Range
POSFEEDENABLE	TOGGLE	F	Positive Feedback IR Comp
POSFEEDRESISTANCE	QUANT	0	Positive Feedback Resistance (ohm)
ACHSELECT	IQUANT	0	Ach Select
CABLEID	IQUANT	13	Cable ID
DCCALDATE	LABEL	7/31/2020	DC Calibration Date
ACCALDATE	LABEL	7/31/2020	AC Calibration Date
THERMOSELECT	IQUANT	1	Thermo Select
FRAMEWORKVERSION	QUANT	6.33	Framework Version
INSTRUMENTVERSION	LABEL	3.50	Instrument Version
COMPLIANCEVOLTAGE	IQUANT	0	Compliance Voltage
ZCURVE	TABLE
	Pt	Time	Freq	Zreal	Zimag	Zsig	Zmod	Zphz	Idc	Vdc	IERange
	#	s	Hz	ohm	ohm	V	ohm	°	A	V	#
	0	27	300046.9	2033.677	-3661.492	1	4188.361	-60.9512	2.787084E-005	-0.0021623	9
	1	41	238359.4	2923.207	-3996.611	1	4951.569	-53.81746	2.448392E-005	0.0009898	9
	2	55	189328.1	3609.594	-4410.289	1	5699.107	-50.70144	1.892193E-005	-0.0021185	9
	3	62	150421.9	4428.139	-4629.675	1	6406.427	-46.27462	2.470963E-005	0.0011212	9
	4	70	119484.4	5596.653	-4240.31	1	7021.592	-37.14943	-9.214613E-005	0.0328434	8
	5	77	94921.88	6583.094	-4089.947	1	7750.148	-31.85187	2.656858E-005	-0.0072852	8
	6	85	75421.88	7457.473	-3792.719	1	8366.518	-26.95696	8.342931E-006	0.0040368	8
	7	93	59859.37	8150.404	-3607.443	1	8913.064	-23.87462	-1.232111E-006	0.0007227	9
	8	102	47578.12	9450.165	-2167.416	1	9695.53	-12.91751	4.243574E-006	0.0012786	7
	9	106	37828.12	9670.12	-1781.217	1	9832.8	-10.43679	-6.105427E-006	0.0098886	7
	10	110	30046.88	9833.19	-1521.61	1	9950.23	-8.796309	1.693653E-006	-0.0199175	7
	11	114	23859.38	9960.17	-1325.707	1	10048.01	-7.581552	4.266048E-006	0.001057	7
	12	118	18984.38	10113.72	-1157.009	1	10179.69	-6.526264	6.052394E-006	-0.0082073	7
	13	122	15046.87	10268.51	-1044.959	1	10321.54	-5.810614	3.668308E-006	-0.023248	7
	14	127	11953.13	10366.76	-924.3864	1	10407.89	-5.095491	-6.107186E-008	0.0167412	7
	15	131	9515.62	10511.93	-861.4501	1	10547.17	-4.684907	5.981349E-006	-0.007864	7
	16	135	7546.875	10639.95	-856.663	1	10674.38	-4.603173	-6.163345E-006	0.0099403	7
	17	139	5928.309	10792.19	-791.0493	1	10821.14	-4.192186	-3.903807E-006	0.0245341	7
	18	144	4733.456	10891.25	-865.488	1	10925.58	-4.543539	7.33262E-006	-0.0223512	7
	19	148	3796.875	11052.06	-883.8882	1	11087.34	-4.572498	4.239447E-006	0.0012362	7
	20	152	2987.132	11235.97	-974.082	1	11278.11	-4.954767	-3.920831E-006	0.024665	7
	21	157	2390.625	11465.6	-1084.745	1	11516.8	-5.404587	-2.80906E-006	-0.0063761	7
	22	161	1884.191	11652.51	-1135.465	1	11707.7	-5.565548	-2.818283E-006	-0.0063668	7
	23	165	1516.544	11782.31	-1313.712	1	11855.32	-6.362126	1.691913E-008	0.0167251	7
	24	169	1193.986	11950.7	-1313.462	1	12022.67	-6.272017	-4.762762E-006	0.0017671	7
	25	174	946.5144	12008.94	-1675.617	1	12125.28	-7.943239	-6.824764E-007	-0.013446	7
	26	176	751.7689	12466.93	-1999.536	1	12626.26	-9.111903	-2.174188E-006	0.0224344	7
	27	179	597.4265	12647.78	-2180.736	1	12834.41	-9.78278	-6.806615E-006	0.016709	7
	28	182	477.4305	12939.4	-2597.511	1	13197.54	-11.35094	-9.683718E-008	0.0006514	7
	29	184	376.6741	13240.36	-3019.348	1	13580.26	-12.84613	-8.807034E-008	0.0005691	7
	30	186	298.2954	13560.48	-3504.912	1	14006.1	-14.49182	-9.143506E-008	0.0006179	7
	31	189	237.7717	13913.61	-4052.387	1	14491.74	-16.23838	-9.837782E-008	0.0006748	7
	32	191	189.0121	14295.26	-4708.469	1	15050.72	-18.23047	-9.24976E-008	0.0006617	7
	33	193	150.2404	14685.99	-5480.617	1	15675.32	-20.4649	-8.684636E-008	0.0005726	7
	34	196	119.1737	15085.24	-6434.216	1	16400.11	-23.09941	-9.212551E-008	0.0006008	7
	35	198	95.0169	15467.59	-7570.312	1	17220.8	-26.07854	-8.919949E-008	0.0005758	7
	36	201	75.60484	15841.51	-9002.058	1	18220.61	-29.60773	-8.943108E-008	0.0005934	7
	37	203	54.50582	16359.01	-11728.99	1	20129.24	-35.63956	-8.634895E-008	0.0005598	7
	38	206	45.95588	16665.6	-13550.86	1	21479.48	-39.1147	-9.606416E-008	0.0006783	7
	39	208	37.20238	17042.52	-16283.59	1	23571.23	-43.69544	-8.499147E-008	0.0006132	7
	40	211	30.04808	17486.47	-19723.26	1	26358.75	-48.44008	-9.425393E-008	0.0006619	7
	41	213	23.91582	18006.04	-24281.71	1	30229.44	-53.44132	-8.952601E-008	0.0005997	7
	42	215	18.60119	18680.87	-30590.39	1	35843.37	-58.58852	-8.338606E-008	0.0005676	7
	43	218	15.02404	19400.2	-37380.75	1	42115.18	-62.57119	-8.550607E-008	0.0005654	7
	44	220	12.01923	20406.52	-46149.8	1	50460.18	-66.14594	-9.709484E-009	0.0006984	6
	45	222	9.450605	21668.11	-57794.38	1	61722.74	-69.44811	-9.358944E-009	0.0007005	6
	46	225	7.512019	23202.27	-71736.15	1	75395.09	-72.07677	-9.674348E-009	0.0007174	6
	47	228	5.978954	25203.16	-88861.73	1	92366.7	-74.16548	-9.059924E-009	0.0006111	6
	48	231	4.734848	27808.15	-110780.4	1	114217.3	-75.90874	-9.985871E-009	0.0007419	6
	49	234	3.75601	31153.17	-137576.1	1	141059.2	-77.24094	-9.228313E-009	0.0006311	6
	50	239	3.004808	35291.84	-169560.5	1	173194.3	-78.24249	-9.702032E-009	0.0006676	6
	51	245	2.372217	41103.3	-211230	1	215192	-78.98841	-9.566284E-009	0.0006673	6
	52	249	1.878005	48453.12	-263421.5	1	267840.6	-79.57764	-9.981917E-009	0.0006462	6
	53	254	1.512097	56737.57	-321768.6	1	326732.6	-79.99981	-9.597874E-009	0.0006267	6
	54	259	1.201923	69216.39	-399692.3	1	405641.3	-80.17529	-9.840756E-009	0.0006329	6
	55	266	0.956633	85489.25	-494621.4	1	501955	-80.19401	-1.236173E-009	4.525541E-007	5
