EXPLAIN
TAG	EISPOT
TITLE	LABEL	Potentiostatic EIS	Test Identifier
DATE	LABEL	8/22/2020	Date
TIME	LABEL	3:01:37	Time
NOTES	NOTES	1	Notes...
	
PSTAT	PSTAT	REF3000-16137	Potentiostat
VDC	POTEN	0.00000E+000	T	DC Voltage (V)
FREQINIT	QUANT	3.00000E+005	Initial Freq. (Hz)
FREQFINAL	QUANT	1.00000E+000	Final Freq. (Hz)
PTSPERDEC	QUANT	1.00000E+001	Points/decade
VAC	QUANT	5.00000E+001	AC Voltage (mV rms)
AREA	QUANT	1.00000E+000	Sample Area (cm^2)
SPEED	SELECTOR	2	Optimize for:
ZGUESS	QUANT	1.00000E+003	Estimated Z (ohms)
EOC	QUANT	0	Open Circuit (V)
SEQUENCER	TOGGLE	TRUE	Run as Sequence
PSTATMODEL	IQUANT	5	Pstat Model
PSTATSECTION	LABEL	REF3000-16137	Pstat Section
PSTATSERIALNO	LABEL	16137	Pstat Serial Number
CTRLMODE	IQUANT	1	Control Mode
IESTAB	IQUANT	0	I/E Stability
CASPEED	IQUANT	1	Control Amp Speed
CONVENTION	IQUANT	1	Current Convention
ICHRANGE	IQUANT	2	Ich Range
ICHRANGEMODE	TOGGLE	F	Ich Auto Range
ICHOFFSETENABLE	TOGGLE	T	Ich Offset Enable
ICHOFFSET	QUANT	0	Ich Offset (V)
ICHFILTER	IQUANT	3	Ich Filter
VCHRANGE	IQUANT	2	Vch Range
VCHRANGEMODE	TOGGLE	F	Vch Auto Range
VCHOFFSETENABLE	TOGGLE	T	Vch Offset Enable
VCHOFFSET	QUANT	0	Vch Offset (V)
VCHFILTER	IQUANT	3	Vch Filter
ACHRANGE	IQUANT	2	Ach Range
ACHOFFSETENABLE	TOGGLE	F	Ach Offset Enable
ACHOFFSET	QUANT	0	Ach Offset (V)
ACHFILTER	IQUANT	3	Ach Filter
IERANGELOWERLIMIT	IQUANT	2	I/E Range Lower Limit
IERANGEMODE	TOGGLE	F	I/E AutoRange
IERANGE	IQUANT	11	I/E Range
POSFEEDENABLE	TOGGLE	F	Positive Feedback IR Comp
POSFEEDRESISTANCE	QUANT	0	Positive Feedback Resistance (ohm)
ACHSELECT	IQUANT	0	Ach Select
CABLEID	IQUANT	13	Cable ID
DCCALDATE	LABEL	7/31/2020	DC Calibration Date
ACCALDATE	LABEL	7/31/2020	AC Calibration Date
THERMOSELECT	IQUANT	1	Thermo Select
FRAMEWORKVERSION	QUANT	6.33	Framework Version
INSTRUMENTVERSION	LABEL	3.50	Instrument Version
COMPLIANCEVOLTAGE	IQUANT	0	Compliance Voltage
ZCURVE	TABLE
	Pt	Time	Freq	Zreal	Zimag	Zsig	Zmod	Zphz	Idc	Vdc	IERange
	#	s	Hz	ohm	ohm	V	ohm	°	A	V	#
	0	9	300046.9	221.1261	-14.88583	1	221.6266	-3.851243	1.68097E-005	-0.00157	9
	1	12	238359.4	218.4493	-15.35841	1	218.9885	-4.021649	-6.463355E-006	-0.0016815	9
	2	15	189328.1	217.2799	-16.5468	1	217.909	-4.354916	-5.288316E-006	-0.0015563	9
	3	18	150421.9	216.9206	-17.52414	1	217.6273	-4.618665	-9.256943E-005	0.0034122	9
	4	21	119484.4	216.279	-19.15515	1	217.1256	-5.061301	6.432224E-006	0.0013178	9
	5	24	94921.88	216.1142	-21.35201	1	217.1665	-5.642489	8.237337E-006	-0.0006618	9
	6	26	75421.88	216.5576	-24.55438	1	217.9452	-6.468853	2.707421E-005	-0.0006365	9
	7	29	59859.37	217.5373	-27.85318	1	219.3132	-7.296373	-1.396606E-006	-0.0004225	9
	8	31	47578.12	218.7798	-31.9367	1	221.0985	-8.305175	-1.573142E-005	9.178958E-005	9
	9	34	37828.12	220.6176	-36.5071	1	223.6178	-9.395979	-9.99954E-006	-8.584817E-005	9
	10	36	30046.88	222.6419	-41.52327	1	226.4809	-10.56443	2.695133E-005	-0.000382	9
	11	39	23859.38	225.1824	-47.52715	1	230.1433	-11.91797	-2.420975E-005	0.0006921	9
	12	41	18984.38	228.2632	-54.5011	1	234.6795	-13.42877	-1.996588E-005	0.0003697	9
	13	43	15046.87	231.823	-62.75994	1	240.1681	-15.14821	2.48304E-005	-0.0002633	9
	14	46	11953.13	234.2778	-70.78378	1	244.7375	-16.81146	1.812509E-006	0.0006214	9
	15	49	9515.62	237.0996	-81.08382	1	250.581	-18.87977	-1.560068E-005	0.0009984	9
	16	53	7546.875	239.219	-93.83212	1	256.9634	-21.41727	2.535802E-005	-0.0008081	9
	17	57	5928.309	242.403	-110.5646	1	266.4277	-24.51863	1.448322E-006	0.0005987	9
	18	59	4733.456	244.4112	-130.23	1	276.9417	-28.05011	-9.945658E-006	-6.039162E-005	9
	19	61	3796.875	246.5894	-155.4847	1	291.5164	-32.23311	1.147259E-005	0.0002115	9
	20	64	2987.132	248.5205	-189.642	1	312.6124	-37.34667	2.413418E-005	-0.0002618	9
	21	66	2390.625	250.4918	-229.7676	1	339.9107	-42.52909	-2.611231E-005	0.0009066	9
	22	69	1884.191	253.2304	-284.5472	1	380.9105	-48.33278	-2.144707E-005	0.0004974	9
	23	71	1516.544	256.7556	-348.8824	1	433.1771	-53.64926	-1.84972E-005	0.0003609	9
	24	73	1193.986	260.9566	-434.7586	1	507.0635	-59.02641	1.324062E-006	-0.0017836	8
	25	76	946.5144	270.3306	-540.1202	1	603.9938	-63.412	-7.144222E-006	0.0040485	8
	26	78	751.7689	280.134	-670.9882	1	727.1178	-67.33972	9.583849E-006	-0.0025379	8
	27	80	597.4265	296.6389	-835.6318	1	886.7216	-70.45576	9.644251E-006	-0.0025543	8
	28	83	477.4305	316.6324	-1033.458	1	1080.875	-72.9659	-5.708915E-008	0.0006584	8
	29	85	376.6741	347.8882	-1294.262	1	1340.202	-74.95492	-5.858237E-008	0.0006571	8
	30	87	298.2954	390.9331	-1613.188	1	1659.881	-76.3778	-4.400065E-008	0.000645	8
	31	90	237.7717	448.6413	-1996.816	1	2046.596	-77.33716	-1.774482E-008	0.0006356	8
	32	92	189.0121	530.3187	-2475.649	1	2531.813	-77.90917	-4.526944E-008	0.0006506	8
	33	94	150.2404	644.2664	-3064.539	1	3131.53	-78.12745	-2.454492E-008	0.0006486	8
	34	97	119.1737	803.7559	-3792.12	1	3876.364	-78.03302	-1.495006E-008	0.0006472	8
	35	99	95.0169	1027.102	-4672.229	1	4783.791	-77.60181	-1.193915E-007	0.0006172	7
	36	102	75.60484	1334.904	-5739.144	1	5892.346	-76.90603	-1.204864E-007	0.0006087	7
	37	104	54.50582	1996.948	-7650.767	1	7907.088	-75.37144	-1.227216E-007	0.0006098	7
	38	107	45.95588	2487.743	-8856.19	1	9198.966	-74.30971	-1.167283E-007	0.0006134	7
	39	109	37.20238	3281.733	-10558.8	1	11057.03	-72.73447	-1.180581E-007	0.0006124	7
	40	111	30.04808	4371.973	-12537.93	1	13278.32	-70.77634	-1.214544E-007	0.0006153	7
	41	114	23.91582	5905.223	-14910.21	1	16037.02	-68.39384	-1.218128E-007	0.0006127	7
	42	116	18.60119	8162.779	-17819.63	1	19600.26	-65.38853	-1.313389E-007	0.0006275	7
	43	119	15.02404	10696.91	-20413.9	1	23046.72	-62.3454	-1.280328E-007	0.0006188	7
	44	121	12.01923	14001.66	-23104.11	1	27015.67	-58.78311	-1.26676E-007	0.0006239	7
	45	123	9.450605	18317.66	-25848.23	1	31680.71	-54.67625	-1.312997E-007	0.000634	7
	46	126	7.512019	23096.81	-27977.15	1	36279.25	-50.45829	-1.291382E-007	0.0006077	7
	47	129	5.978954	28371.98	-29270.41	1	40764.28	-45.89295	-1.31987E-007	0.0006233	7
	48	132	4.734848	33900.84	-29901.95	1	45203.91	-41.41362	-1.454945E-007	0.0006581	6
	49	135	3.75601	39090.43	-28974.19	1	48657.64	-36.54618	-1.409262E-007	0.0006971	6
	50	140	3.004808	43677.49	-27877.7	1	51815.92	-32.54856	-1.412515E-007	0.0006741	6
	51	147	2.372217	48004.14	-26262.75	1	54718.64	-28.68278	-1.427361E-007	0.0006117	6
	52	154	1.878005	51369.69	-24020.46	1	56708.27	-25.06078	-1.416677E-007	0.0006759	6
	53	163	1.512097	54346.77	-22443.03	1	58798.48	-22.43866	-1.40283E-007	0.0007341	6
	54	174	1.201923	56842.04	-20607.62	1	60462.32	-19.9277	-1.387137E-007	0.0006953	6
	55	187	0.956633	59309.13	-19053.78	1	62294.61	-17.81025	-1.526735E-007	3.915992E-005	6
