EXPLAIN
TAG	EISPOT
TITLE	LABEL	Potentiostatic EIS	Test Identifier
DATE	LABEL	8/22/2020	Date
TIME	LABEL	2:40:01	Time
NOTES	NOTES	1	Notes...
	
PSTAT	PSTAT	REF3000-16137	Potentiostat
VDC	POTEN	0.00000E+000	T	DC Voltage (V)
FREQINIT	QUANT	3.00000E+005	Initial Freq. (Hz)
FREQFINAL	QUANT	1.00000E+000	Final Freq. (Hz)
PTSPERDEC	QUANT	1.00000E+001	Points/decade
VAC	QUANT	5.00000E+001	AC Voltage (mV rms)
AREA	QUANT	1.00000E+000	Sample Area (cm^2)
SPEED	SELECTOR	2	Optimize for:
ZGUESS	QUANT	1.00000E+003	Estimated Z (ohms)
EOC	QUANT	0	Open Circuit (V)
SEQUENCER	TOGGLE	TRUE	Run as Sequence
PSTATMODEL	IQUANT	5	Pstat Model
PSTATSECTION	LABEL	REF3000-16137	Pstat Section
PSTATSERIALNO	LABEL	16137	Pstat Serial Number
CTRLMODE	IQUANT	1	Control Mode
IESTAB	IQUANT	0	I/E Stability
CASPEED	IQUANT	1	Control Amp Speed
CONVENTION	IQUANT	1	Current Convention
ICHRANGE	IQUANT	2	Ich Range
ICHRANGEMODE	TOGGLE	F	Ich Auto Range
ICHOFFSETENABLE	TOGGLE	T	Ich Offset Enable
ICHOFFSET	QUANT	0	Ich Offset (V)
ICHFILTER	IQUANT	3	Ich Filter
VCHRANGE	IQUANT	2	Vch Range
VCHRANGEMODE	TOGGLE	F	Vch Auto Range
VCHOFFSETENABLE	TOGGLE	T	Vch Offset Enable
VCHOFFSET	QUANT	0	Vch Offset (V)
VCHFILTER	IQUANT	3	Vch Filter
ACHRANGE	IQUANT	2	Ach Range
ACHOFFSETENABLE	TOGGLE	F	Ach Offset Enable
ACHOFFSET	QUANT	0	Ach Offset (V)
ACHFILTER	IQUANT	3	Ach Filter
IERANGELOWERLIMIT	IQUANT	2	I/E Range Lower Limit
IERANGEMODE	TOGGLE	F	I/E AutoRange
IERANGE	IQUANT	11	I/E Range
POSFEEDENABLE	TOGGLE	F	Positive Feedback IR Comp
POSFEEDRESISTANCE	QUANT	0	Positive Feedback Resistance (ohm)
ACHSELECT	IQUANT	0	Ach Select
CABLEID	IQUANT	13	Cable ID
DCCALDATE	LABEL	7/31/2020	DC Calibration Date
ACCALDATE	LABEL	7/31/2020	AC Calibration Date
THERMOSELECT	IQUANT	1	Thermo Select
FRAMEWORKVERSION	QUANT	6.33	Framework Version
INSTRUMENTVERSION	LABEL	3.50	Instrument Version
COMPLIANCEVOLTAGE	IQUANT	0	Compliance Voltage
ZCURVE	TABLE
	Pt	Time	Freq	Zreal	Zimag	Zsig	Zmod	Zphz	Idc	Vdc	IERange
	#	s	Hz	ohm	ohm	V	ohm	°	A	V	#
	0	19	300046.9	-155.289	-4834.836	1	4837.329	-91.83964	3.386883E-005	-0.0016847	9
	1	34	238359.4	106.8137	-6017.568	1	6018.516	-88.98309	-1.652484E-005	0.0017227	9
	2	56	189328.1	103.2109	-7415.381	1	7416.1	-89.20258	2.01075E-005	-0.0020897	9
	3	64	150421.9	-142.4334	-9051.846	1	9052.966	-90.90149	2.560248E-005	-0.0014788	9
	4	74	119484.4	28.74687	-11667.87	1	11667.9	-89.85883	5.021837E-005	0.0002641	9
	5	83	94921.88	711.888	-14447.18	1	14464.71	-87.17902	-1.229959E-005	0.0104221	8
	6	91	75421.88	541.5495	-18320.72	1	18328.72	-88.30686	2.664873E-005	-0.0091868	8
	7	100	59859.37	671.8831	-23110.61	1	23120.38	-88.33474	-2.671685E-005	0.0076423	8
	8	108	47578.12	282.809	-28542.01	1	28543.41	-89.4323	-2.499032E-005	0.0110901	8
	9	117	37828.12	173.6055	-36383.38	1	36383.79	-89.72661	-2.741309E-005	0.0098639	8
	10	125	30046.88	2348.309	-45717.42	1	45777.7	-87.05955	-9.532605E-006	-0.002217	8
	11	135	23859.38	4791.068	-57763.86	1	57962.21	-85.25861	-6.861534E-006	0.0123266	7
	12	141	18984.38	5209.258	-71703.17	1	71892.15	-85.84474	-7.47844E-006	0.0190886	7
	13	146	15046.87	4238.586	-90836.06	1	90934.9	-87.32841	-5.528239E-006	0.0272821	7
	14	151	11953.13	5302.072	-112189.9	1	112315.1	-87.29423	-3.805027E-006	0.0256071	7
	15	157	9515.62	6191.073	-141902.2	1	142037.1	-87.50182	3.597772E-006	-0.0249865	7
	16	163	7546.875	2164.689	-182666.8	1	182679.6	-89.32105	-1.861645E-006	0.0224539	7
	17	169	5928.309	4865.595	-239424.2	1	239473.7	-88.83579	6.958851E-006	-0.0274401	7
	18	175	4733.456	15407.74	-299490.1	1	299886.2	-87.05492	4.999543E-006	-0.000626	7
	19	183	3796.875	38402.76	-368640.8	1	370635.7	-84.05273	-1.611169E-005	0.0006079	8
	20	191	2987.132	-26461.49	-406505.2	1	407365.5	-93.72442	-7.467616E-006	0.0190496	7
	21	199	2390.625	-433843.3	153802	1	460298.8	160.4801	-2.356591E-005	0.0050312	8
	22	206	1884.191	146375.8	-376113.6	1	403593	-68.73502	-2.728348E-005	0.009802	8
	23	215	1516.544	-308541.3	-618048.5	1	690783.4	-116.5292	-2.069528E-005	0.0028373	8
	24	223	1193.986	-140398.9	-827598.9	1	839423.4	-99.6283	-6.668718E-006	0.026354	7
	25	232	946.5144	334703.9	-2735488	1	2755888	-83.02418	7.692961E-006	-0.0187445	7
	26	237	751.7689	-3526336	49642.36	1	3526685	179.1935	7.731541E-006	-0.0245083	7
	27	243	597.4265	-5093231	1392443	1	5280142	164.7095	-7.375956E-006	0.0238863	7
	28	250	477.4305	62923.54	-2781121	1	2781833	-88.70389	-9.461462E-008	0.0005839	7
	29	259	376.6741	475896.7	-3661828	1	3692622	-82.59525	-1.104845E-009	0.0006608	5
	30	263	298.2954	499780.8	-4555300	1	4582634	-83.73888	-1.006781E-009	0.0006203	5
	31	265	237.7717	589685.9	-5600691	1	5631649	-83.98959	-9.376812E-010	0.0006143	5
	32	268	189.0121	551070.9	-7081798	1	7103207	-85.55049	-9.623822E-010	0.0006791	5
	33	271	150.2404	1066790	-8644569	1	8710144	-82.96494	-9.537903E-010	0.0006115	5
	34	274	119.1737	3201261	-8998410	1	9.550888E+006	-70.41655	-1.112694E-009	0.0006793	5
	35	277	95.0169	640304.9	-1.37444E+007	1	1.375931E+007	-87.33271	-1.019455E-009	0.0006824	5
	36	279	75.60484	170310	-1.67399E+007	1	1.674076E+007	-89.4171	-1.093564E-009	0.0006891	5
	37	282	54.50582	530713.3	-2.435002E+007	1	2.43558E+007	-88.75143	-1.015574E-009	0.0006164	5
	38	285	45.95588	1230152	-2.665047E+007	1	2.667885E+007	-87.35718	-1.005509E-009	0.0006957	5
	39	289	37.20238	2569241	-3.469955E+007	1	3.479454E+007	-85.7654	-1.034748E-009	0.000694	5
	40	293	30.04808	570713.9	-4.218997E+007	1	4.219383E+007	-89.22499	-9.763573E-010	0.0005969	5
	41	297	23.91582	1297255	-5.906204E+007	1	5.907629E+007	-88.74174	-4.404538E-011	0.000612	4
	42	301	18.60119	8802717	-8.682311E+007	1	8.726821E+007	-84.21075	-3.177325E-011	0.0006967	4
	43	304	15.02404	8484745	-8.687479E+007	1	8.728814E+007	-84.42182	-1.099694E-010	0.0006414	4
	44	308	12.01923	5779640	-1.090447E+008	1	1.091978E+008	-86.96602	-1.074029E-010	0.0006943	4
	45	312	9.450605	2985254	-1.424554E+008	1	1.424867E+008	-88.7995	-1.163859E-010	0.0006848	4
	46	316	7.512019	4920995	-1.735989E+008	1	1.736686E+008	-88.37627	-9.575406E-011	0.0007057	4
	47	320	5.978954	-8999209	-2.047354E+008	1	2.049331E+008	-92.51683	-1.128749E-010	0.0006531	4
	48	326	4.734848	5.19079E+007	-2.824919E+008	1	2.872213E+008	-79.58804	-1.210254E-011	0.0008255	3
	49	330	3.75601	2.144063E+007	-3.401495E+008	1	3.408246E+008	-86.39325	-1.070733E-009	0.0006981	5
	50	339	3.004808	-1.583244E+007	-4.558832E+008	1	4.561581E+008	-91.98904	-1.054815E-009	0.0006473	5
	51	348	2.372217	7.681998E+007	-5.37741E+008	1	5.432004E+008	-81.86991	-1.076261E-011	0.000646	3
	52	354	1.878005	8.565333E+007	-6.700108E+008	1	6.754635E+008	-82.7149	-1.058077E-011	0.0007264	3
	53	363	1.512097	1.055614E+008	-8.245734E+008	1	8.313029E+008	-82.70471	-1.044541E-011	0.0006455	3
	54	369	1.201923	1.352804E+008	-1.021114E+009	1	1.030036E+009	-82.45322	-1.042521E-011	0.0007418	3
	55	382	0.956633	1.764147E+008	-1.283062E+009	1	1.295133E+009	-82.1712	-1.042636E-011	7.57274E-005	3
