EXPLAIN
TAG	EISPOT
TITLE	LABEL	Potentiostatic EIS	Test Identifier
DATE	LABEL	8/22/2020	Date
TIME	LABEL	0:15:49	Time
NOTES	NOTES	1	Notes...
	
PSTAT	PSTAT	REF3000-16137	Potentiostat
VDC	POTEN	0.00000E+000	T	DC Voltage (V)
FREQINIT	QUANT	3.00000E+005	Initial Freq. (Hz)
FREQFINAL	QUANT	1.00000E+000	Final Freq. (Hz)
PTSPERDEC	QUANT	1.00000E+001	Points/decade
VAC	QUANT	5.00000E+001	AC Voltage (mV rms)
AREA	QUANT	1.00000E+000	Sample Area (cm^2)
SPEED	SELECTOR	2	Optimize for:
ZGUESS	QUANT	1.00000E+003	Estimated Z (ohms)
EOC	QUANT	0	Open Circuit (V)
SEQUENCER	TOGGLE	TRUE	Run as Sequence
PSTATMODEL	IQUANT	5	Pstat Model
PSTATSECTION	LABEL	REF3000-16137	Pstat Section
PSTATSERIALNO	LABEL	16137	Pstat Serial Number
CTRLMODE	IQUANT	1	Control Mode
IESTAB	IQUANT	0	I/E Stability
CASPEED	IQUANT	1	Control Amp Speed
CONVENTION	IQUANT	1	Current Convention
ICHRANGE	IQUANT	2	Ich Range
ICHRANGEMODE	TOGGLE	F	Ich Auto Range
ICHOFFSETENABLE	TOGGLE	T	Ich Offset Enable
ICHOFFSET	QUANT	0	Ich Offset (V)
ICHFILTER	IQUANT	3	Ich Filter
VCHRANGE	IQUANT	2	Vch Range
VCHRANGEMODE	TOGGLE	F	Vch Auto Range
VCHOFFSETENABLE	TOGGLE	T	Vch Offset Enable
VCHOFFSET	QUANT	0	Vch Offset (V)
VCHFILTER	IQUANT	3	Vch Filter
ACHRANGE	IQUANT	2	Ach Range
ACHOFFSETENABLE	TOGGLE	F	Ach Offset Enable
ACHOFFSET	QUANT	0	Ach Offset (V)
ACHFILTER	IQUANT	3	Ach Filter
IERANGELOWERLIMIT	IQUANT	2	I/E Range Lower Limit
IERANGEMODE	TOGGLE	F	I/E AutoRange
IERANGE	IQUANT	11	I/E Range
POSFEEDENABLE	TOGGLE	F	Positive Feedback IR Comp
POSFEEDRESISTANCE	QUANT	0	Positive Feedback Resistance (ohm)
ACHSELECT	IQUANT	0	Ach Select
CABLEID	IQUANT	13	Cable ID
DCCALDATE	LABEL	7/31/2020	DC Calibration Date
ACCALDATE	LABEL	7/31/2020	AC Calibration Date
THERMOSELECT	IQUANT	1	Thermo Select
FRAMEWORKVERSION	QUANT	6.33	Framework Version
INSTRUMENTVERSION	LABEL	3.50	Instrument Version
COMPLIANCEVOLTAGE	IQUANT	0	Compliance Voltage
ZCURVE	TABLE
	Pt	Time	Freq	Zreal	Zimag	Zsig	Zmod	Zphz	Idc	Vdc	IERange
	#	s	Hz	ohm	ohm	V	ohm	°	A	V	#
	0	7	300046.9	95.4973	-5.265807	1	95.6424	-3.156144	-9.881564E-006	-0.0013551	9
	1	10	238359.4	95.9169	-6.87323	1	96.1628	-4.098707	9.420329E-006	-0.0014395	9
	2	13	189328.1	96.6481	-8.47944	1	97.0194	-5.014018	2.062717E-005	-0.0007688	9
	3	16	150421.9	97.5257	-9.83207	1	98.02	-5.756838	-3.437248E-005	-0.0002104	9
	4	18	119484.4	98.6354	-11.5618	1	99.3107	-6.685565	6.83058E-005	-0.002457	9
	5	21	94921.88	99.98	-13.54861	1	100.8938	-7.717325	-6.340931E-006	-0.0001929	9
	6	23	75421.88	101.4353	-15.95575	1	102.6826	-8.939361	1.85899E-005	-0.0001808	9
	7	26	59859.37	103.1158	-18.77819	1	104.8116	-10.32091	2.325741E-005	-0.0004394	9
	8	28	47578.12	104.9271	-21.88684	1	107.1855	-11.78243	3.770319E-006	-0.0005101	9
	9	31	37828.12	107.0642	-25.3328	1	110.0205	-13.31211	1.954029E-005	-0.0001171	9
	10	34	30046.88	109.4265	-29.2843	1	113.2772	-14.9822	-1.684039E-005	0.0004021	9
	11	36	23859.38	111.9857	-33.99422	1	117.0316	-16.88612	2.252379E-005	-0.0006605	9
	12	38	18984.38	114.6383	-39.36364	1	121.2082	-18.95106	5.541739E-006	-0.0004869	9
	13	41	15046.87	117.2971	-45.88061	1	125.9509	-21.3629	2.307219E-005	-0.0006939	9
	14	43	11953.13	119.9641	-53.89618	1	131.515	-24.19291	-1.233103E-005	0.0007892	9
	15	45	9515.62	122.3921	-63.57153	1	137.9172	-27.44777	-1.547046E-005	0.0002259	9
	16	48	7546.875	124.7305	-76.32413	1	146.2295	-31.46298	6.111612E-006	0.0002997	9
	17	50	5928.309	127.0576	-92.85644	1	157.372	-36.16015	-1.748069E-005	0.0004067	9
	18	52	4733.456	129.6084	-112.5635	1	171.665	-40.97395	5.3273E-006	-0.0004768	9
	19	55	3796.875	132.3331	-136.7801	1	190.3178	-45.9467	1.819899E-005	-0.0006988	9
	20	57	2987.132	135.2551	-170.0629	1	217.2908	-51.50393	1.263991E-005	-0.0006417	9
	21	59	2390.625	139.3491	-208.7988	1	251.0281	-56.28146	-1.894494E-005	0.0005117	9
	22	62	1884.191	144.4873	-260.8829	1	298.2222	-61.02058	1.912711E-005	-0.0001313	9
	23	64	1516.544	149.5538	-320.3114	1	353.5049	-64.97208	-2.958712E-006	-0.0002459	9
	24	66	1193.986	157.6121	-399.4067	1	429.3802	-68.46504	6.791229E-006	-0.0010703	8
	25	69	946.5144	168.6901	-496.7973	1	524.6559	-71.24481	5.823065E-006	-0.0015343	8
	26	71	751.7689	181.288	-618.1703	1	644.2048	-73.65541	3.258654E-006	0.0008692	8
	27	73	597.4265	199.8054	-767.1745	1	792.7666	-75.402	6.812353E-006	-0.0010786	8
	28	76	477.4305	223.5709	-946.8969	1	972.933	-76.71525	2.15544E-007	0.0006478	8
	29	78	376.6741	256.6954	-1181.684	1	1209.243	-77.74413	2.248152E-007	0.0006407	8
	30	80	298.2954	300.1357	-1467.763	1	1498.135	-78.44318	2.330696E-007	0.0006363	8
	31	83	237.7717	355.6849	-1809.642	1	1844.266	-78.88026	2.299421E-007	0.0006415	8
	32	85	189.0121	429.2795	-2234.202	1	2275.069	-79.12374	2.17307E-007	0.0006593	8
	33	87	150.2404	525.3303	-2754.493	1	2804.14	-79.20235	2.226161E-007	0.0006434	8
	34	90	119.1737	651.3953	-3399.676	1	3461.519	-79.1533	2.290656E-007	0.0006449	8
	35	92	95.0169	812.7815	-4169.612	1	4248.091	-78.96967	2.431649E-007	0.0006393	8
	36	95	75.60484	1027.874	-5128.617	1	5230.605	-78.66697	2.342685E-008	0.0006138	7
	37	97	54.50582	1455.381	-6861.395	1	7014.048	-78.0244	2.386102E-008	0.0006024	7
	38	100	45.95588	1752.353	-7976.513	1	8166.731	-77.60957	3.00529E-008	0.0006182	7
	39	102	37.20238	2223.795	-9597.23	1	9851.5	-76.95409	2.70048E-008	0.0006148	7
	40	104	30.04808	2845.336	-11537.46	1	11883.13	-76.14632	2.413566E-008	0.0006145	7
	41	107	23.91582	3739.309	-14046.58	1	14535.78	-75.09313	1.845966E-008	0.0006524	7
	42	109	18.60119	5028.149	-17298.79	1	18014.73	-73.79272	3.46673E-008	0.0006197	7
	43	111	15.02404	6506.834	-20580.55	1	21584.67	-72.45491	2.578414E-008	0.0006118	7
	44	114	12.01923	8498.676	-24514.09	1	25945.48	-70.87932	3.088978E-008	0.0006174	7
	45	116	9.450605	11305.71	-29406.18	1	31504.65	-68.96988	3.25701E-008	0.0006166	7
	46	119	7.512019	14761.93	-34736.72	1	37743.27	-66.97615	2.76471E-008	0.0006333	7
	47	121	5.978954	19068.88	-40507.76	1	44771.65	-64.79147	7.922715E-009	0.0006646	6
	48	124	4.734848	24545.21	-47006.39	1	53028.94	-62.4279	8.831585E-009	0.0006446	6
	49	128	3.75601	31162.45	-53980.55	1	62329.75	-60.00258	8.902957E-009	0.0006656	6
	50	131	3.004808	38783.75	-60901.14	1	72202	-57.50974	1.123598E-008	0.00063	6
	51	135	2.372217	48426.96	-68449.34	1	83847.98	-54.72112	7.154346E-009	0.0005841	6
	52	139	1.878005	59582.43	-75241.23	1	95975.6	-51.62481	9.136468E-009	0.0006661	6
	53	144	1.512097	71190.48	-81077.02	1	107896.1	-48.71493	8.501272E-009	0.0006224	6
	54	149	1.201923	84926.95	-86646.33	1	121326.7	-45.57416	6.846751E-009	0.0006897	6
	55	155	0.956633	99721.1	-90531.5	1	134685.7	-42.23466	2.010954E-009	1.803632E-005	6
