EXPLAIN
TAG	EISPOT
TITLE	LABEL	Potentiostatic EIS	Test Identifier
DATE	LABEL	8/22/2020	Date
TIME	LABEL	0:04:11	Time
NOTES	NOTES	1	Notes...
	
PSTAT	PSTAT	REF3000-16137	Potentiostat
VDC	POTEN	0.00000E+000	T	DC Voltage (V)
FREQINIT	QUANT	3.00000E+005	Initial Freq. (Hz)
FREQFINAL	QUANT	1.00000E+000	Final Freq. (Hz)
PTSPERDEC	QUANT	1.00000E+001	Points/decade
VAC	QUANT	5.00000E+001	AC Voltage (mV rms)
AREA	QUANT	1.00000E+000	Sample Area (cm^2)
SPEED	SELECTOR	2	Optimize for:
ZGUESS	QUANT	1.00000E+003	Estimated Z (ohms)
EOC	QUANT	0	Open Circuit (V)
SEQUENCER	TOGGLE	TRUE	Run as Sequence
PSTATMODEL	IQUANT	5	Pstat Model
PSTATSECTION	LABEL	REF3000-16137	Pstat Section
PSTATSERIALNO	LABEL	16137	Pstat Serial Number
CTRLMODE	IQUANT	1	Control Mode
IESTAB	IQUANT	0	I/E Stability
CASPEED	IQUANT	1	Control Amp Speed
CONVENTION	IQUANT	1	Current Convention
ICHRANGE	IQUANT	2	Ich Range
ICHRANGEMODE	TOGGLE	F	Ich Auto Range
ICHOFFSETENABLE	TOGGLE	T	Ich Offset Enable
ICHOFFSET	QUANT	0	Ich Offset (V)
ICHFILTER	IQUANT	3	Ich Filter
VCHRANGE	IQUANT	2	Vch Range
VCHRANGEMODE	TOGGLE	F	Vch Auto Range
VCHOFFSETENABLE	TOGGLE	T	Vch Offset Enable
VCHOFFSET	QUANT	0	Vch Offset (V)
VCHFILTER	IQUANT	3	Vch Filter
ACHRANGE	IQUANT	2	Ach Range
ACHOFFSETENABLE	TOGGLE	F	Ach Offset Enable
ACHOFFSET	QUANT	0	Ach Offset (V)
ACHFILTER	IQUANT	3	Ach Filter
IERANGELOWERLIMIT	IQUANT	2	I/E Range Lower Limit
IERANGEMODE	TOGGLE	F	I/E AutoRange
IERANGE	IQUANT	11	I/E Range
POSFEEDENABLE	TOGGLE	F	Positive Feedback IR Comp
POSFEEDRESISTANCE	QUANT	0	Positive Feedback Resistance (ohm)
ACHSELECT	IQUANT	0	Ach Select
CABLEID	IQUANT	13	Cable ID
DCCALDATE	LABEL	7/31/2020	DC Calibration Date
ACCALDATE	LABEL	7/31/2020	AC Calibration Date
THERMOSELECT	IQUANT	1	Thermo Select
FRAMEWORKVERSION	QUANT	6.33	Framework Version
INSTRUMENTVERSION	LABEL	3.50	Instrument Version
COMPLIANCEVOLTAGE	IQUANT	0	Compliance Voltage
ZCURVE	TABLE
	Pt	Time	Freq	Zreal	Zimag	Zsig	Zmod	Zphz	Idc	Vdc	IERange
	#	s	Hz	ohm	ohm	V	ohm	°	A	V	#
	0	7	300046.9	87.12019	-4.346694	1	87.22855	-2.856294	-7.392847E-005	0.0017054	9
	1	10	238359.4	87.67505	-5.838331	1	87.86922	-3.809734	2.16752E-005	-0.0008119	9
	2	13	189328.1	88.37489	-7.364686	1	88.68123	-4.763713	-4.193969E-007	0.0007988	9
	3	15	150421.9	89.10927	-8.954897	1	89.55809	-5.738584	-7.139117E-005	0.0019391	9
	4	18	119484.4	90.11657	-10.58387	1	90.73596	-6.698496	6.812698E-005	-0.0020706	9
	5	21	94921.88	91.27518	-12.36661	1	92.10913	-7.715857	6.265425E-006	-0.000485	9
	6	23	75421.88	92.59234	-14.65216	1	93.74448	-8.992138	2.241617E-006	0.0003797	9
	7	26	59859.37	94.11355	-17.26808	1	95.6846	-10.39706	1.15668E-005	8.793768E-005	9
	8	28	47578.12	95.8264	-20.08829	1	97.9093	-11.83959	-1.484016E-005	0.0002118	9
	9	31	37828.12	97.8037	-23.41127	1	100.5666	-13.4616	-1.70617E-005	0.0003669	9
	10	33	30046.88	99.9323	-27.13625	1	103.5512	-15.19212	-1.431575E-005	0.0001696	9
	11	36	23859.38	102.3109	-31.41306	1	107.0248	-17.06833	3.267702E-006	0.0004832	9
	12	38	18984.38	104.7532	-36.39137	1	110.8944	-19.15729	-1.233009E-005	0.0008405	9
	13	40	15046.87	107.1826	-42.31211	1	115.232	-21.54245	-1.212011E-005	0.0008541	9
	14	43	11953.13	109.5972	-49.62363	1	120.3081	-24.36016	-9.584925E-006	9.872743E-006	9
	15	45	9515.62	111.9619	-58.73285	1	126.4318	-27.68056	2.09847E-005	-0.0006554	9
	16	47	7546.875	114.0427	-70.25784	1	133.9474	-31.63581	-1.644234E-005	0.0008532	9
	17	50	5928.309	116.5379	-85.70684	1	144.6608	-36.33232	2.393157E-005	-0.0005874	9
	18	52	4733.456	118.6662	-103.9034	1	157.7262	-41.20518	-1.883863E-005	0.0007403	9
	19	54	3796.875	121.6156	-126.0848	1	175.1791	-46.03365	-1.975622E-006	-0.0002696	9
	20	56	2987.132	124.4603	-156.7641	1	200.1633	-51.55275	2.387814E-005	-0.0005856	9
	21	59	2390.625	128.0396	-192.569	1	231.2508	-56.37997	-5.460961E-006	0.0006312	9
	22	61	1884.191	134.499	-239.5711	1	274.744	-60.68946	1.212722E-005	-0.0006101	9
	23	63	1516.544	139.5359	-293.9099	1	325.351	-64.60361	2.378034E-005	-0.0005833	9
	24	66	1193.986	148.2391	-367.6294	1	396.3915	-68.03925	1.81433E-005	-0.0006859	9
	25	68	946.5144	158.7091	-455.052	1	481.9345	-70.7727	-9.653099E-007	-9.14795E-005	8
	26	71	751.7689	173.1702	-563.8588	1	589.8514	-72.92743	4.300914E-006	-0.0013045	8
	27	73	597.4265	192.6609	-699.0946	1	725.1562	-74.59252	2.86235E-006	-0.0011237	8
	28	75	477.4305	217.3593	-859.892	1	886.9382	-75.81421	2.427031E-007	0.000642	8
	29	77	376.6741	252.1647	-1070.293	1	1099.597	-76.74269	2.392673E-007	0.000642	8
	30	80	298.2954	297.6824	-1325.867	1	1358.874	-77.34585	2.425218E-007	0.0006444	8
	31	82	237.7717	355.8607	-1630.014	1	1668.407	-77.68456	2.426251E-007	0.0006359	8
	32	85	189.0121	432.9454	-2006.219	1	2052.403	-77.82223	2.541406E-007	0.000643	8
	33	87	150.2404	533.7179	-2464.964	1	2522.083	-77.78282	2.487791E-007	0.0006437	8
	34	89	119.1737	666.9999	-3030.662	1	3103.192	-77.588	2.642717E-007	0.0006418	8
	35	92	95.0169	837.556	-3702.516	1	3796.067	-77.2535	2.7259E-007	0.0006414	8
	36	94	75.60484	1065.232	-4532.523	1	4656.017	-76.77438	2.759279E-008	0.0006171	7
	37	97	54.50582	1516.125	-6015.975	1	6204.078	-75.85506	2.651346E-008	0.0006189	7
	38	99	45.95588	1833.141	-6962.906	1	7200.171	-75.25031	3.726329E-008	0.0006254	7
	39	102	37.20238	2328.124	-8323.17	1	8642.646	-74.37285	3.274522E-008	0.0006194	7
	40	104	30.04808	2979.846	-9935.28	1	10372.53	-73.30466	2.746125E-008	0.0006177	7
	41	106	23.91582	3876.405	-11955.34	1	12568.08	-72.03521	2.90413E-008	0.0006225	7
	42	109	18.60119	5197.192	-14576.12	1	15474.95	-70.37605	2.382705E-008	0.0006304	7
	43	111	15.02404	6671.493	-17145.09	1	18397.36	-68.738	2.818397E-008	0.000613	7
	44	113	12.01923	8624.024	-20165.29	1	21932	-66.84521	2.259521E-008	0.0006123	7
	45	116	9.450605	11308.18	-23766.14	1	26319.28	-64.5544	3.442802E-008	0.0006229	7
	46	118	7.512019	14537.14	-27597.1	1	31191.8	-62.22138	2.688325E-008	0.0006335	7
	47	121	5.978954	18468.67	-31526	1	36537.39	-59.63723	2.482624E-008	0.0006156	7
	48	124	4.734848	23417.95	-35646.71	1	42650.77	-56.69727	2.975682E-009	0.0006495	6
	49	127	3.75601	29223.17	-39558.31	1	49181.84	-53.54536	5.358826E-009	0.0006811	6
	50	131	3.004808	35643.93	-42919.65	1	55790.56	-50.29103	6.61542E-009	0.0006292	6
	51	135	2.372217	43264.64	-46005.32	1	63153.14	-46.75849	-7.971208E-010	0.0005919	6
	52	139	1.878005	51203.67	-45975.98	1	68815.74	-41.92079	-1.088187E-010	0.000679	6
	53	148	1.512097	58121.8	-45119.38	1	73579.23	-37.82184	-1.204954E-009	0.0005943	6
	54	158	1.201923	65352.44	-44294.95	1	78949.25	-34.12886	-2.248355E-009	0.0006855	6
	55	171	0.956633	72319.41	-42945.08	1	84109.31	-30.7029	-1.305724E-008	2.201086E-005	6
