EXPLAIN
TAG	EISPOT
TITLE	LABEL	Potentiostatic EIS	Test Identifier
DATE	LABEL	8/22/2020	Date
TIME	LABEL	2:08:42	Time
NOTES	NOTES	1	Notes...
	
PSTAT	PSTAT	REF3000-16137	Potentiostat
VDC	POTEN	0.00000E+000	T	DC Voltage (V)
FREQINIT	QUANT	3.00000E+005	Initial Freq. (Hz)
FREQFINAL	QUANT	1.00000E+000	Final Freq. (Hz)
PTSPERDEC	QUANT	1.00000E+001	Points/decade
VAC	QUANT	5.00000E+001	AC Voltage (mV rms)
AREA	QUANT	1.00000E+000	Sample Area (cm^2)
SPEED	SELECTOR	2	Optimize for:
ZGUESS	QUANT	1.00000E+003	Estimated Z (ohms)
EOC	QUANT	0	Open Circuit (V)
SEQUENCER	TOGGLE	TRUE	Run as Sequence
PSTATMODEL	IQUANT	5	Pstat Model
PSTATSECTION	LABEL	REF3000-16137	Pstat Section
PSTATSERIALNO	LABEL	16137	Pstat Serial Number
CTRLMODE	IQUANT	1	Control Mode
IESTAB	IQUANT	0	I/E Stability
CASPEED	IQUANT	1	Control Amp Speed
CONVENTION	IQUANT	1	Current Convention
ICHRANGE	IQUANT	2	Ich Range
ICHRANGEMODE	TOGGLE	F	Ich Auto Range
ICHOFFSETENABLE	TOGGLE	T	Ich Offset Enable
ICHOFFSET	QUANT	0	Ich Offset (V)
ICHFILTER	IQUANT	3	Ich Filter
VCHRANGE	IQUANT	2	Vch Range
VCHRANGEMODE	TOGGLE	F	Vch Auto Range
VCHOFFSETENABLE	TOGGLE	T	Vch Offset Enable
VCHOFFSET	QUANT	0	Vch Offset (V)
VCHFILTER	IQUANT	3	Vch Filter
ACHRANGE	IQUANT	2	Ach Range
ACHOFFSETENABLE	TOGGLE	F	Ach Offset Enable
ACHOFFSET	QUANT	0	Ach Offset (V)
ACHFILTER	IQUANT	3	Ach Filter
IERANGELOWERLIMIT	IQUANT	2	I/E Range Lower Limit
IERANGEMODE	TOGGLE	F	I/E AutoRange
IERANGE	IQUANT	11	I/E Range
POSFEEDENABLE	TOGGLE	F	Positive Feedback IR Comp
POSFEEDRESISTANCE	QUANT	0	Positive Feedback Resistance (ohm)
ACHSELECT	IQUANT	0	Ach Select
CABLEID	IQUANT	13	Cable ID
DCCALDATE	LABEL	7/31/2020	DC Calibration Date
ACCALDATE	LABEL	7/31/2020	AC Calibration Date
THERMOSELECT	IQUANT	1	Thermo Select
FRAMEWORKVERSION	QUANT	6.33	Framework Version
INSTRUMENTVERSION	LABEL	3.50	Instrument Version
COMPLIANCEVOLTAGE	IQUANT	0	Compliance Voltage
ZCURVE	TABLE
	Pt	Time	Freq	Zreal	Zimag	Zsig	Zmod	Zphz	Idc	Vdc	IERange
	#	s	Hz	ohm	ohm	V	ohm	°	A	V	#
	0	14	300046.9	-116.0314	-4783.226	1	4784.633	-91.38961	-2.098816E-005	0.0010283	9
	1	31	238359.4	75.43486	-6051.105	1	6051.576	-89.28577	2.381155E-005	-0.0022146	9
	2	47	189328.1	259.1946	-7166.354	1	7171.04	-87.92861	1.930951E-005	-0.0021657	9
	3	55	150421.9	25.86827	-9215.493	1	9215.529	-89.83917	8.776637E-005	-0.0024524	9
	4	62	119484.4	105.1808	-11124.98	1	11125.47	-89.45831	1.981903E-005	-0.0008001	9
	5	74	94921.88	601.6064	-14282.73	1	14295.39	-87.58806	-2.016297E-005	0.01146	8
	6	83	75421.88	603.6816	-18138.11	1	18148.15	-88.09376	2.62532E-005	-0.0052119	8
	7	91	59859.37	852.4982	-22444.26	1	22460.45	-87.82478	-1.96561E-005	0.0113994	8
	8	100	47578.12	661.6964	-28634.44	1	28642.08	-88.67622	-9.612693E-006	-0.0021901	8
	9	107	37828.12	4131.611	-37197.75	1	37426.5	-83.66205	6.609325E-007	0.0165797	7
	10	115	30046.88	4503.426	-46037.82	1	46257.55	-84.41309	-6.69719E-006	0.0263168	7
	11	122	23859.38	3813.249	-57856.82	1	57982.35	-86.22918	7.699818E-006	-0.0188098	7
	12	128	18984.38	4741.333	-72203.18	1	72358.69	-86.24298	-1.914161E-006	0.0224535	7
	13	133	15046.87	6366.152	-89724.61	1	89950.17	-85.94154	6.968914E-006	-0.0272808	7
	14	138	11953.13	9136.882	-120488.7	1	120834.7	-85.66345	2.27262E-005	-0.0098205	8
	15	146	9515.62	536.3781	-141062.7	1	141063.7	-89.78214	2.332159E-005	-0.0028463	8
	16	153	7546.875	21494.12	-174353.6	1	175673.5	-82.9721	-1.602702E-005	0.0005738	8
	17	161	5928.309	8264.883	-219202.7	1	219358.4	-87.84073	-6.860791E-006	0.0121881	7
	18	167	4733.456	484.4721	-248156.1	1	248156.6	-89.88815	-1.23192E-005	0.0104143	8
	19	176	3796.875	18040.01	-348238.9	1	348705.9	-87.03452	2.730451E-006	0.0088857	7
	20	184	2987.132	-271.5885	-482055.9	1	482056	-90.03228	-7.361329E-006	0.023841	7
	21	190	2390.625	-106129.8	-231748.4	1	254893.8	-114.6055	-1.628584E-005	0.0006183	8
	22	198	1884.191	205734	-619477.4	1	652747.1	-71.6282	2.85448E-006	0.008612	7
	23	206	1516.544	-104552.9	-746346	1	753633.6	-97.9745	-3.814076E-006	0.0258236	7
	24	212	1193.986	95784.6	-275649.9	1	291817.7	-70.83836	-2.372914E-005	0.0004635	9
	25	221	946.5144	-156677.8	-117869.2	1	196064	-143.0457	-1.094785E-006	-0.0052868	8
	26	228	751.7689	205306.3	-1561733	1	1575170	-82.5108	6.11761E-007	-0.0072802	6
	27	231	597.4265	256705.3	-1948963	1	1965796	-82.49655	4.358667E-007	0.0025468	6
	28	235	477.4305	129896.7	-2786983	1	2790008	-87.33147	-9.409833E-009	0.0006645	6
	29	239	376.6741	540873.7	-3631273	1	3671333	-81.52814	-9.086394E-010	0.0006115	5
	30	243	298.2954	618827	-4515870	1	4558073	-82.19714	-1.042783E-009	0.0006957	5
	31	246	237.7717	674989.1	-5522222	1	5563322	-83.03123	-1.000743E-009	0.0006085	5
	32	249	189.0121	814660.4	-7051591	1	7098493	-83.40991	-1.074559E-009	0.0006769	5
	33	251	150.2404	1135420	-8659033	1	8733157	-82.52969	-1.038991E-009	0.0006188	5
	34	254	119.1737	1736909	-1.670874E+007	1	1.679877E+007	-84.0653	-1.061914E-009	0.0006933	5
	35	257	95.0169	1573776	-1.348929E+007	1	1.358079E+007	-83.34547	-9.167555E-010	0.0006143	5
	36	260	75.60484	2696801	-1.703162E+007	1	1.724381E+007	-81.00244	-9.669964E-010	0.0005994	5
	37	263	54.50582	3661926	-2.406777E+007	1	2.434476E+007	-81.34876	-9.676421E-010	0.0006125	5
	38	266	45.95588	3136652	-2.739301E+007	1	2.757201E+007	-83.46777	-1.037959E-009	0.0006976	5
	39	270	37.20238	3713810	-3.573972E+007	1	3.593216E+007	-84.06754	-1.008459E-009	0.0006456	5
	40	273	30.04808	8879496	-4.209314E+007	1	4.30195E+007	-78.08817	-1.035417E-009	0.0006205	5
	41	277	23.91582	1.336899E+007	-5.020311E+007	1	5.195269E+007	-75.0883	-1.14803E-010	0.0006025	4
	42	281	18.60119	1.376157E+007	-6.168772E+007	1	6.320408E+007	-77.42413	-1.109831E-010	0.000687	4
	43	285	15.02404	2.711841E+007	-7.56523E+007	1	8.03659E+007	-70.27921	-1.059075E-010	0.0006062	4
	44	288	12.01923	3.747281E+007	-8.941096E+007	1	9.694602E+007	-67.26108	-1.114798E-010	0.0007073	4
	45	292	9.450605	5.269413E+007	-9.924685E+007	1	1.123682E+008	-62.03437	-1.135788E-010	0.0006236	4
	46	296	7.512019	7.542882E+007	-1.244751E+008	1	1.455457E+008	-58.78517	-1.04213E-010	0.0007461	4
	47	301	5.978954	9.751233E+007	-1.396879E+008	1	1.703566E+008	-55.08215	-1.003577E-010	0.0006212	4
	48	306	4.734848	1.585337E+008	-1.444164E+008	1	2.144505E+008	-42.33197	-1.092969E-011	0.000717	3
	49	311	3.75601	1.931976E+008	-1.506526E+008	1	2.449929E+008	-37.94657	-9.22309E-012	0.0007674	3
	50	317	3.004808	1.991013E+008	-1.847829E+008	1	2.716359E+008	-42.86392	-1.05554E-009	0.0006603	5
	51	326	2.372217	2.605608E+008	-1.587897E+008	1	3.051329E+008	-31.35876	-1.051519E-011	0.0007684	3
	52	331	1.878005	2.9885E+008	-1.578281E+008	1	3.379661E+008	-27.83935	-1.118133E-011	0.0006936	3
	53	342	1.512097	3.34275E+008	-1.541365E+008	1	3.681003E+008	-24.75475	-1.106205E-011	0.0008117	3
	54	347	1.201923	3.711268E+008	-1.467184E+008	1	3.990757E+008	-21.57049	-1.090524E-011	0.0006882	3
	55	356	0.956633	4.072962E+008	-1.391068E+008	1	4.303962E+008	-18.85694	-1.285839E-011	8.28344E-005	3
