EXPLAIN
TAG	EISPOT
TITLE	LABEL	Potentiostatic EIS	Test Identifier
DATE	LABEL	8/22/2020	Date
TIME	LABEL	2:27:20	Time
NOTES	NOTES	1	Notes...
	
PSTAT	PSTAT	REF3000-16137	Potentiostat
VDC	POTEN	0.00000E+000	T	DC Voltage (V)
FREQINIT	QUANT	3.00000E+005	Initial Freq. (Hz)
FREQFINAL	QUANT	1.00000E+000	Final Freq. (Hz)
PTSPERDEC	QUANT	1.00000E+001	Points/decade
VAC	QUANT	5.00000E+001	AC Voltage (mV rms)
AREA	QUANT	1.00000E+000	Sample Area (cm^2)
SPEED	SELECTOR	2	Optimize for:
ZGUESS	QUANT	1.00000E+003	Estimated Z (ohms)
EOC	QUANT	0	Open Circuit (V)
SEQUENCER	TOGGLE	TRUE	Run as Sequence
PSTATMODEL	IQUANT	5	Pstat Model
PSTATSECTION	LABEL	REF3000-16137	Pstat Section
PSTATSERIALNO	LABEL	16137	Pstat Serial Number
CTRLMODE	IQUANT	1	Control Mode
IESTAB	IQUANT	0	I/E Stability
CASPEED	IQUANT	1	Control Amp Speed
CONVENTION	IQUANT	1	Current Convention
ICHRANGE	IQUANT	2	Ich Range
ICHRANGEMODE	TOGGLE	F	Ich Auto Range
ICHOFFSETENABLE	TOGGLE	T	Ich Offset Enable
ICHOFFSET	QUANT	0	Ich Offset (V)
ICHFILTER	IQUANT	3	Ich Filter
VCHRANGE	IQUANT	2	Vch Range
VCHRANGEMODE	TOGGLE	F	Vch Auto Range
VCHOFFSETENABLE	TOGGLE	T	Vch Offset Enable
VCHOFFSET	QUANT	0	Vch Offset (V)
VCHFILTER	IQUANT	3	Vch Filter
ACHRANGE	IQUANT	2	Ach Range
ACHOFFSETENABLE	TOGGLE	F	Ach Offset Enable
ACHOFFSET	QUANT	0	Ach Offset (V)
ACHFILTER	IQUANT	3	Ach Filter
IERANGELOWERLIMIT	IQUANT	2	I/E Range Lower Limit
IERANGEMODE	TOGGLE	F	I/E AutoRange
IERANGE	IQUANT	11	I/E Range
POSFEEDENABLE	TOGGLE	F	Positive Feedback IR Comp
POSFEEDRESISTANCE	QUANT	0	Positive Feedback Resistance (ohm)
ACHSELECT	IQUANT	0	Ach Select
CABLEID	IQUANT	13	Cable ID
DCCALDATE	LABEL	7/31/2020	DC Calibration Date
ACCALDATE	LABEL	7/31/2020	AC Calibration Date
THERMOSELECT	IQUANT	1	Thermo Select
FRAMEWORKVERSION	QUANT	6.33	Framework Version
INSTRUMENTVERSION	LABEL	3.50	Instrument Version
COMPLIANCEVOLTAGE	IQUANT	0	Compliance Voltage
ZCURVE	TABLE
	Pt	Time	Freq	Zreal	Zimag	Zsig	Zmod	Zphz	Idc	Vdc	IERange
	#	s	Hz	ohm	ohm	V	ohm	°	A	V	#
	0	17	300046.9	-120.0614	-4838.764	1	4840.253	-91.42136	-2.20296E-005	0.0014756	9
	1	42	238359.4	0.4546195	-6260.909	1	6260.909	-89.99584	2.554521E-005	-0.0020176	9
	2	59	189328.1	108.1777	-7540.904	1	7541.68	-89.17812	2.084331E-005	-0.0004666	9
	3	66	150421.9	250.7488	-9101.119	1	9104.572	-88.42182	1.877248E-005	-0.0020785	9
	4	84	119484.4	339.4517	-11634.65	1	11639.6	-88.32882	-3.131707E-005	-0.0064939	8
	5	92	94921.88	680.375	-14413.39	1	14429.44	-87.29739	2.611793E-005	-0.0051203	8
	6	100	75421.88	744.4559	-18247.85	1	18263.03	-87.6638	8.147993E-006	0.0043341	8
	7	108	59859.37	869.272	-23046.9	1	23063.29	-87.83997	-2.055455E-005	0.0027401	8
	8	116	47578.12	1052.833	-29159	1	29178	-87.93214	-2.43123E-005	0.0053347	8
	9	124	37828.12	1144.111	-35847.23	1	35865.49	-88.17195	2.768456E-005	-0.0075091	8
	10	134	30046.88	1235.359	-45832.18	1	45848.82	-88.45602	3.024008E-005	-0.0007178	9
	11	143	23859.38	962.929	-59285.72	1	59293.54	-89.06947	8.614812E-006	0.0042001	8
	12	151	18984.38	5004.767	-71812.42	1	71986.61	-86.01337	-3.400543E-006	-0.0054592	7
	13	156	15046.87	3701.334	-89461.57	1	89538.11	-87.63083	3.592125E-006	-0.025104	7
	14	163	11953.13	3981.988	-114171.6	1	114241	-88.00249	-6.66133E-006	0.0264383	7
	15	169	9515.62	1787.793	-143530	1	143541.1	-89.28637	7.849592E-006	-0.0249628	7
	16	174	7546.875	5678.244	-178372.9	1	178463.3	-88.17669	-6.703047E-006	0.0264196	7
	17	181	5928.309	-13509.95	-238742.2	1	239124.1	-93.2388	6.744739E-006	-0.0103241	7
	18	186	4733.456	-6814.704	-307457.4	1	307532.9	-91.26974	-1.094669E-006	-0.0137298	7
	19	194	3796.875	47857.25	-361743.8	1	364895.8	-82.46376	2.630898E-005	-0.0051466	8
	20	201	2987.132	154433.2	-221020.3	1	269628.6	-55.0569	2.635766E-005	-0.0051841	8
	21	210	2390.625	-10341.65	-289251.3	1	289436.2	-92.04763	2.744109E-005	-0.0073929	8
	22	219	1884.191	-464996.6	-392820.8	1	608711.8	-139.8095	-1.142694E-006	-0.0051803	8
	23	227	1516.544	64840.37	-863866.9	1	866296.9	-85.70753	5.991844E-007	-0.0281087	6
	24	233	1193.986	88996.82	-1112711	1	1116264	-85.4271	-6.993528E-007	0.026783	6
	25	240	946.5144	6789.709	-1622436	1	1622451	-89.76022	7.454563E-007	-0.0280226	6
	26	244	751.7689	394308.2	-1660187	1	1706371	-76.63934	7.352299E-007	-0.0163012	6
	27	249	597.4265	-300898	-2240239	1	2260357	-97.6499	-7.4843E-007	0.0175445	6
	28	254	477.4305	87061.55	-2810473	1	2811821	-88.22569	-1.002041E-008	0.0006998	6
	29	259	376.6741	480231.6	-3663304	1	3694647	-82.53154	-1.019036E-009	0.0005917	5
	30	263	298.2954	510873	-4555882	1	4584436	-83.60188	-9.775699E-010	0.0006462	5
	31	266	237.7717	638693.6	-5627623	1	5663750	-83.52505	-9.724557E-010	0.0006297	5
	32	268	189.0121	541547.9	-7086984	1	7107645	-85.63026	-9.625535E-010	0.0006454	5
	33	271	150.2404	350016.3	-8711089	1	8718118	-87.69906	-9.664335E-010	0.0006154	5
	34	274	119.1737	-2970945	-1.067266E+007	1	1.107846E+007	-105.5556	-1.042452E-009	0.0006109	5
	35	277	95.0169	792627.9	-1.360218E+007	1	1.362525E+007	-86.66502	-1.107763E-009	0.0007151	5
	36	279	75.60484	-177431.4	-1.738534E+007	1	1.738625E+007	-90.58473	-9.650271E-010	0.000591	5
	37	282	54.50582	507113.6	-2.438601E+007	1	2.439128E+007	-88.80869	-1.044629E-009	0.00068	5
	38	286	45.95588	906507.9	-3.045264E+007	1	3.046613E+007	-88.29494	-1.002542E-009	0.0006499	5
	39	289	37.20238	2440855	-3.643816E+007	1	3.651982E+007	-86.16769	-9.494611E-010	0.0006341	5
	40	293	30.04808	6454499	-4.43843E+007	1	4.485116E+007	-81.72588	-8.981568E-011	0.0006056	4
	41	297	23.91582	8539184	-5.625762E+007	1	5.6902E+007	-81.36912	-1.286974E-010	0.0006868	4
	42	301	18.60119	-2653961	-5.95981E+007	1	5.965716E+007	-92.54975	-1.998789E-011	0.0006984	4
	43	305	15.02404	6661693	-8.387338E+007	1	8.413752E+007	-85.45879	-1.09903E-010	0.0006289	4
	44	308	12.01923	7556967	-1.065581E+008	1	1.068257E+008	-85.94344	-9.263636E-011	0.0006353	4
	45	312	9.450605	7567047	-1.321591E+008	1	1.323756E+008	-86.72298	-8.828442E-011	0.0006115	4
	46	316	7.512019	1.026199E+007	-1.714829E+008	1	1.717897E+008	-86.57536	-1.033443E-010	0.0006807	4
	47	320	5.978954	4359518	-2.36719E+008	1	2.367591E+008	-88.94494	-8.197505E-011	0.0006887	4
	48	326	4.734848	1.966984E+007	-2.746719E+008	1	2.753753E+008	-85.90392	-1.066653E-009	0.000708	5
	49	333	3.75601	4.292717E+007	-3.308617E+008	1	3.336348E+008	-82.60754	-1.076408E-009	0.0007144	5
	50	342	3.004808	9.901054E+006	-3.801612E+008	1	3.802901E+008	-88.5081	-1.068292E-009	0.0006809	5
	51	351	2.372217	7.45957E+007	-5.371447E+008	1	5.422997E+008	-82.09364	-1.069525E-011	0.0006517	3
	52	357	1.878005	8.692392E+007	-6.723287E+008	1	6.779245E+008	-82.63322	-1.047662E-011	0.0007251	3
	53	366	1.512097	1.039994E+008	-8.255221E+008	1	8.320472E+008	-82.8197	-1.050817E-011	0.0007294	3
	54	372	1.201923	1.309508E+008	-1.032059E+009	1	1.040333E+009	-82.76878	-1.030076E-011	0.0007458	3
	55	385	0.956633	1.73415E+008	-1.286196E+009	1	1.297834E+009	-82.32124	-1.039596E-011	9.092742E-005	3
