EXPLAIN
TAG	EISPOT
TITLE	LABEL	Potentiostatic EIS	Test Identifier
DATE	LABEL	8/22/2020	Date
TIME	LABEL	2:14:47	Time
NOTES	NOTES	1	Notes...
	
PSTAT	PSTAT	REF3000-16137	Potentiostat
VDC	POTEN	0.00000E+000	T	DC Voltage (V)
FREQINIT	QUANT	3.00000E+005	Initial Freq. (Hz)
FREQFINAL	QUANT	1.00000E+000	Final Freq. (Hz)
PTSPERDEC	QUANT	1.00000E+001	Points/decade
VAC	QUANT	5.00000E+001	AC Voltage (mV rms)
AREA	QUANT	1.00000E+000	Sample Area (cm^2)
SPEED	SELECTOR	2	Optimize for:
ZGUESS	QUANT	1.00000E+003	Estimated Z (ohms)
EOC	QUANT	0	Open Circuit (V)
SEQUENCER	TOGGLE	TRUE	Run as Sequence
PSTATMODEL	IQUANT	5	Pstat Model
PSTATSECTION	LABEL	REF3000-16137	Pstat Section
PSTATSERIALNO	LABEL	16137	Pstat Serial Number
CTRLMODE	IQUANT	1	Control Mode
IESTAB	IQUANT	0	I/E Stability
CASPEED	IQUANT	1	Control Amp Speed
CONVENTION	IQUANT	1	Current Convention
ICHRANGE	IQUANT	2	Ich Range
ICHRANGEMODE	TOGGLE	F	Ich Auto Range
ICHOFFSETENABLE	TOGGLE	T	Ich Offset Enable
ICHOFFSET	QUANT	0	Ich Offset (V)
ICHFILTER	IQUANT	3	Ich Filter
VCHRANGE	IQUANT	2	Vch Range
VCHRANGEMODE	TOGGLE	F	Vch Auto Range
VCHOFFSETENABLE	TOGGLE	T	Vch Offset Enable
VCHOFFSET	QUANT	0	Vch Offset (V)
VCHFILTER	IQUANT	3	Vch Filter
ACHRANGE	IQUANT	2	Ach Range
ACHOFFSETENABLE	TOGGLE	F	Ach Offset Enable
ACHOFFSET	QUANT	0	Ach Offset (V)
ACHFILTER	IQUANT	3	Ach Filter
IERANGELOWERLIMIT	IQUANT	2	I/E Range Lower Limit
IERANGEMODE	TOGGLE	F	I/E AutoRange
IERANGE	IQUANT	11	I/E Range
POSFEEDENABLE	TOGGLE	F	Positive Feedback IR Comp
POSFEEDRESISTANCE	QUANT	0	Positive Feedback Resistance (ohm)
ACHSELECT	IQUANT	0	Ach Select
CABLEID	IQUANT	13	Cable ID
DCCALDATE	LABEL	7/31/2020	DC Calibration Date
ACCALDATE	LABEL	7/31/2020	AC Calibration Date
THERMOSELECT	IQUANT	1	Thermo Select
FRAMEWORKVERSION	QUANT	6.33	Framework Version
INSTRUMENTVERSION	LABEL	3.50	Instrument Version
COMPLIANCEVOLTAGE	IQUANT	0	Compliance Voltage
ZCURVE	TABLE
	Pt	Time	Freq	Zreal	Zimag	Zsig	Zmod	Zphz	Idc	Vdc	IERange
	#	s	Hz	ohm	ohm	V	ohm	°	A	V	#
	0	14	300046.9	-77.97551	-4887.234	1	4887.856	-90.91407	-2.359264E-005	0.0010477	9
	1	31	238359.4	-50.84322	-6110.755	1	6110.967	-90.47671	3.886832E-006	0.0016773	9
	2	48	189328.1	270.0184	-7406.155	1	7411.076	-87.91199	2.816218E-005	-0.0015066	9
	3	58	150421.9	-127.1692	-9243.277	1	9244.152	-90.78822	7.677224E-005	-0.0015286	9
	4	66	119484.4	131.1349	-11487.19	1	11487.94	-89.34595	7.74857E-005	-0.0014359	9
	5	77	94921.88	589.6524	-14476.01	1	14488.01	-87.66746	2.340089E-005	-0.0027912	8
	6	85	75421.88	435.9599	-18153.41	1	18158.64	-88.62429	2.266293E-005	-0.0098448	8
	7	93	59859.37	2036.367	-22464.56	1	22556.67	-84.82041	-1.623148E-005	0.0006158	8
	8	101	47578.12	4006.674	-29999.39	1	30265.77	-82.39268	-6.836288E-006	0.0122761	7
	9	108	37828.12	972.726	-36001.07	1	36014.21	-88.45228	8.286654E-006	0.0042032	8
	10	116	30046.88	4395.222	-46184.43	1	46393.09	-84.56372	6.806763E-006	-0.0101813	7
	11	124	23859.38	4423.387	-57810.45	1	57979.43	-85.62452	1.347261E-006	-0.020184	7
	12	129	18984.38	5045.307	-72957.37	1	73131.61	-86.04405	-3.828878E-006	0.0257044	7
	13	135	15046.87	6152.592	-90460.69	1	90669.68	-86.10908	7.755081E-006	-0.0187228	7
	14	140	11953.13	4781.613	-111242.3	1	111345	-87.53873	7.003217E-006	-0.0276171	7
	15	146	9515.62	6216.41	-141677	1	141813.3	-87.48763	6.711624E-006	-0.0102114	7
	16	152	7546.875	9874.22	-179180.1	1	179452	-86.84575	-5.468119E-006	0.0272838	7
	17	157	5928.309	2725.015	-233403.3	1	233419.2	-89.33109	3.534774E-006	-0.0249818	7
	18	164	4733.456	11185.02	-294772	1	294984.1	-87.82697	-1.818526E-006	0.0224067	7
	19	169	3796.875	9675.67	-348501.3	1	348635.6	-88.40967	2.722041E-006	0.0088279	7
	20	176	2987.132	36948.24	-418539.9	1	420167.6	-84.95507	7.676923E-006	-0.0187601	7
	21	183	2390.625	96523.1	-511214.2	1	520246.7	-79.30777	4.005818E-007	0.0166018	7
	22	190	1884.191	22440.38	-681424.2	1	681793.6	-88.11384	-7.603083E-007	0.0235684	6
	23	196	1516.544	50461.59	-903486	1	904894.1	-86.80323	-7.47612E-007	0.0178699	6
	24	201	1193.986	438637.4	-240514.5	1	500249.9	-28.73692	8.264705E-006	0.0042603	8
	25	210	946.5144	-146266	108781.5	1	182283.2	143.3609	8.011571E-006	-0.0078006	8
	26	216	751.7689	-376653.3	-791136.9	1	876222.2	-115.4587	2.82769E-006	0.008558	7
	27	221	597.4265	149793.7	-910019.6	1	922265.6	-80.65266	6.696205E-006	-0.0101835	7
	28	226	477.4305	59187.5	-2792561	1	2793188	-88.78581	-9.691017E-008	0.000667	7
	29	232	376.6741	484639.8	-3644463	1	3676545	-82.42526	-1.110724E-009	0.0006859	5
	30	236	298.2954	510905.4	-4547678	1	4576286	-83.59003	-1.056168E-009	0.0006799	5
	31	238	237.7717	440389.5	-5647211	1	5664356	-85.54089	-1.038488E-009	0.0007109	5
	32	241	189.0121	596312.9	-7063550	1	7088676	-85.17447	-1.030964E-009	0.000696	5
	33	244	150.2404	530322.2	-9312288	1	9327376	-86.7406	-9.45782E-010	0.0006008	5
	34	247	119.1737	-3029237	-1.072156E+007	1	1.114128E+007	-105.777	-1.134007E-009	0.0007069	5
	35	249	95.0169	1167491	-1.369393E+007	1	1.374361E+007	-85.12697	-1.020493E-009	0.0006867	5
	36	252	75.60484	256129.8	-1.676548E+007	1	1.676743E+007	-89.12475	-1.035641E-009	0.000621	5
	37	255	54.50582	965637	-2.417417E+007	1	2.419345E+007	-87.71254	-9.595993E-010	0.0006132	5
	38	258	45.95588	545216.8	-2.705488E+007	1	2.706038E+007	-88.84552	-1.004671E-009	0.0006321	5
	39	262	37.20238	-444407	-3.360305E+007	1	3.360599E+007	-90.75771	-9.342709E-010	0.0005953	5
	40	266	30.04808	1842132	-4.239091E+007	1	4.243092E+007	-87.51173	-1.05774E-009	0.0006784	5
	41	270	23.91582	3901178	-5.08183E+007	1	5.096782E+007	-85.61018	-1.423128E-010	0.0006048	4
	42	274	18.60119	-2237560	-7.277058E+007	1	7.280497E+007	-91.76118	-1.337465E-010	0.0006512	4
	43	277	15.02404	9138748	-8.414529E+007	1	8.46401E+007	-83.80158	-9.517226E-011	0.0007017	4
	44	281	12.01923	1.172824E+007	-1.072401E+008	1	1.078795E+008	-83.75869	-9.50453E-011	0.00069	4
	45	285	9.450605	2.129293E+007	-1.396671E+008	1	1.412809E+008	-81.33173	-1.200669E-010	0.0007037	4
	46	289	7.512019	1.665971E+007	-1.5854E+008	1	1.594129E+008	-84.00126	-9.244779E-011	0.0006968	4
	47	293	5.978954	2.633032E+007	-1.917989E+008	1	1.935978E+008	-82.18324	-1.193928E-010	0.0006842	4
	48	298	4.734848	7.018118E+007	-2.742851E+008	1	2.831214E+008	-75.64768	-1.079496E-011	0.0007036	3
	49	303	3.75601	6.803511E+007	-3.56639E+008	1	3.630705E+008	-79.1996	-1.08387E-009	0.0007068	5
	50	312	3.004808	6.325496E+007	-3.995619E+008	1	4.045379E+008	-81.00412	-9.837907E-010	0.0006265	5
	51	321	2.372217	1.281654E+008	-5.111168E+008	1	5.26941E+008	-75.92301	-1.115631E-011	0.000662	3
	52	327	1.878005	1.6592E+008	-6.336502E+008	1	6.55013E+008	-75.32665	-1.097724E-011	0.0007319	3
	53	336	1.512097	2.131407E+008	-7.717438E+008	1	8.006356E+008	-74.56088	-1.081649E-011	0.000616	3
	54	342	1.201923	2.844064E+008	-9.505756E+008	1	9.922102E+008	-73.34314	-1.07366E-011	0.0007842	3
	55	355	0.956633	3.832343E+008	-1.16247E+009	1	1.224012E+009	-71.75404	-1.081488E-011	8.850849E-005	3
