EXPLAIN
TAG	EISPOT
TITLE	LABEL	Potentiostatic EIS	Test Identifier
DATE	LABEL	8/22/2020	Date
TIME	LABEL	3:47:27	Time
NOTES	NOTES	1	Notes...
	
PSTAT	PSTAT	REF3000-16137	Potentiostat
VDC	POTEN	0.00000E+000	T	DC Voltage (V)
FREQINIT	QUANT	3.00000E+005	Initial Freq. (Hz)
FREQFINAL	QUANT	1.00000E+000	Final Freq. (Hz)
PTSPERDEC	QUANT	1.00000E+001	Points/decade
VAC	QUANT	5.00000E+001	AC Voltage (mV rms)
AREA	QUANT	1.00000E+000	Sample Area (cm^2)
SPEED	SELECTOR	2	Optimize for:
ZGUESS	QUANT	1.00000E+003	Estimated Z (ohms)
EOC	QUANT	0	Open Circuit (V)
SEQUENCER	TOGGLE	TRUE	Run as Sequence
PSTATMODEL	IQUANT	5	Pstat Model
PSTATSECTION	LABEL	REF3000-16137	Pstat Section
PSTATSERIALNO	LABEL	16137	Pstat Serial Number
CTRLMODE	IQUANT	1	Control Mode
IESTAB	IQUANT	0	I/E Stability
CASPEED	IQUANT	1	Control Amp Speed
CONVENTION	IQUANT	1	Current Convention
ICHRANGE	IQUANT	2	Ich Range
ICHRANGEMODE	TOGGLE	F	Ich Auto Range
ICHOFFSETENABLE	TOGGLE	T	Ich Offset Enable
ICHOFFSET	QUANT	0	Ich Offset (V)
ICHFILTER	IQUANT	3	Ich Filter
VCHRANGE	IQUANT	2	Vch Range
VCHRANGEMODE	TOGGLE	F	Vch Auto Range
VCHOFFSETENABLE	TOGGLE	T	Vch Offset Enable
VCHOFFSET	QUANT	0	Vch Offset (V)
VCHFILTER	IQUANT	3	Vch Filter
ACHRANGE	IQUANT	2	Ach Range
ACHOFFSETENABLE	TOGGLE	F	Ach Offset Enable
ACHOFFSET	QUANT	0	Ach Offset (V)
ACHFILTER	IQUANT	3	Ach Filter
IERANGELOWERLIMIT	IQUANT	2	I/E Range Lower Limit
IERANGEMODE	TOGGLE	F	I/E AutoRange
IERANGE	IQUANT	11	I/E Range
POSFEEDENABLE	TOGGLE	F	Positive Feedback IR Comp
POSFEEDRESISTANCE	QUANT	0	Positive Feedback Resistance (ohm)
ACHSELECT	IQUANT	0	Ach Select
CABLEID	IQUANT	13	Cable ID
DCCALDATE	LABEL	7/31/2020	DC Calibration Date
ACCALDATE	LABEL	7/31/2020	AC Calibration Date
THERMOSELECT	IQUANT	1	Thermo Select
FRAMEWORKVERSION	QUANT	6.33	Framework Version
INSTRUMENTVERSION	LABEL	3.50	Instrument Version
COMPLIANCEVOLTAGE	IQUANT	0	Compliance Voltage
ZCURVE	TABLE
	Pt	Time	Freq	Zreal	Zimag	Zsig	Zmod	Zphz	Idc	Vdc	IERange
	#	s	Hz	ohm	ohm	V	ohm	°	A	V	#
	0	7	300046.9	86.20476	-4.873881	1	86.34243	-3.235968	2.818792E-005	-4.588527E-005	9
	1	10	238359.4	87.23009	-6.146648	1	87.44638	-4.030672	-5.259059E-005	0.0007572	9
	2	13	189328.1	87.727	-7.724404	1	88.06641	-5.031944	1.355483E-005	-0.0011582	9
	3	16	150421.9	88.54172	-9.017794	1	88.99976	-5.815406	6.565349E-005	-0.0023759	9
	4	18	119484.4	89.51427	-11.06064	1	90.19502	-7.043929	1.416285E-005	-0.0013053	9
	5	21	94921.88	90.78207	-12.87456	1	91.69045	-8.071761	-1.933257E-005	0.0004377	9
	6	23	75421.88	92.09041	-15.13257	1	93.32544	-9.331617	-1.866059E-006	0.0005156	9
	7	26	59859.37	93.62724	-17.88571	1	95.3203	-10.81497	-1.711341E-005	0.0003601	9
	8	29	47578.12	95.4024	-20.78717	1	97.6408	-12.29201	5.108609E-006	-0.0004695	9
	9	31	37828.12	97.3942	-24.12636	1	100.338	-13.91315	-1.439457E-005	0.0001676	9
	10	34	30046.88	99.5896	-27.91429	1	103.4277	-15.65783	-2.965854E-006	-0.0002247	9
	11	36	23859.38	101.9725	-32.41533	1	107.0007	-17.63458	8.164725E-006	-0.000477	9
	12	38	18984.38	104.3607	-37.42937	1	110.8698	-19.73057	4.687508E-006	-0.0004455	9
	13	41	15046.87	106.7826	-43.64515	1	115.3578	-22.23126	-8.899667E-006	-4.622777E-005	9
	14	43	11953.13	109.2529	-51.36638	1	120.7257	-25.18105	-1.201723E-005	0.000755	9
	15	45	9515.62	111.4306	-60.76778	1	126.9232	-28.60549	1.950271E-005	-0.0001147	9
	16	48	7546.875	113.644	-72.63708	1	134.8744	-32.58522	-1.740109E-005	0.0004372	9
	17	50	5928.309	115.9924	-88.79595	1	146.0786	-37.43523	-5.08443E-006	0.0006747	9
	18	52	4733.456	118.2726	-107.8646	1	160.0724	-42.36482	-1.18827E-005	0.0007946	9
	19	55	3796.875	120.7962	-131.2689	1	178.3907	-47.37914	2.47201E-005	-0.0005728	9
	20	57	2987.132	124.1627	-163.094	1	204.9781	-52.71816	-1.906822E-005	0.0007641	9
	21	59	2390.625	128.4021	-199.7598	1	237.468	-57.26781	-1.035752E-005	5.455193E-005	9
	22	62	1884.191	132.8289	-249.0492	1	282.257	-61.92704	-1.642107E-005	0.000816	9
	23	64	1516.544	140.0655	-305.4356	1	336.0197	-65.36494	-1.652441E-005	0.0003901	9
	24	66	1193.986	148.798	-382.1979	1	410.1415	-68.72794	2.396836E-005	-0.0005896	9
	25	69	946.5144	160.313	-473.1209	1	499.5435	-71.28149	6.128409E-006	-0.0006602	8
	26	71	751.7689	175.7784	-587.0385	1	612.7905	-73.33059	5.419808E-006	-0.0013455	8
	27	73	597.4265	194.4662	-726.602	1	752.1752	-75.01664	1.010944E-006	0.0015613	8
	28	76	477.4305	222.046	-894.1069	1	921.2663	-76.0531	2.531536E-007	0.0006499	8
	29	78	376.6741	259.064	-1112.267	1	1142.038	-76.88869	2.409336E-007	0.0006432	8
	30	80	298.2954	307.4937	-1377.081	1	1410.994	-77.41269	2.243462E-007	0.0006876	8
	31	83	237.7717	369.4355	-1692.012	1	1731.874	-77.68328	2.447566E-007	0.0006434	8
	32	85	189.0121	451.7369	-2081.361	1	2129.82	-77.75449	2.402937E-007	0.0006467	8
	33	88	150.2404	560.0016	-2556.249	1	2616.87	-77.64333	2.615515E-007	0.0006436	8
	34	90	119.1737	703.8427	-3141.655	1	3219.532	-77.37222	2.593952E-007	0.0006495	8
	35	92	95.0169	890.1997	-3835.184	1	3937.142	-76.93225	2.695763E-007	0.0006453	8
	36	95	75.60484	1142.216	-4691.547	1	4828.589	-76.31683	2.369265E-008	0.0006181	7
	37	97	54.50582	1648.79	-6215.293	1	6430.271	-75.14281	2.271934E-008	0.0006109	7
	38	100	45.95588	2010.149	-7183.125	1	7459.087	-74.36608	3.582492E-008	0.0006166	7
	39	102	37.20238	2577.72	-8562.479	1	8942.073	-73.24567	2.85546E-008	0.0006357	7
	40	105	30.04808	3320.186	-10171.45	1	10699.63	-71.92218	2.361868E-008	0.0006141	7
	41	107	23.91582	4364.206	-12167.84	1	12926.82	-70.26875	2.159257E-008	0.0006124	7
	42	109	18.60119	5902.097	-14707.26	1	15847.34	-68.13416	3.246797E-008	0.0006122	7
	43	112	15.02404	7590.385	-17121.87	1	18728.92	-66.09156	2.970617E-008	0.0006242	7
	44	114	12.01923	9831.04	-19868.75	1	22167.92	-63.67384	3.447066E-008	0.000614	7
	45	116	9.450605	12817.21	-23013.57	1	26342.08	-60.88474	2.059253E-008	0.0006258	7
	46	119	7.512019	16325.4	-26124.18	1	30805.7	-57.99811	2.775809E-008	0.0006248	7
	47	122	5.978954	20480.8	-29043.19	1	35538.29	-54.80911	2.587516E-008	0.0006112	7
	48	125	4.734848	25355.63	-31796.54	1	40668.51	-51.42997	8.22983E-009	0.0006946	6
	49	128	3.75601	30811.75	-34038	1	45912.41	-47.84809	-1.05669E-009	0.0006474	6
	50	131	3.004808	36399.41	-35666.28	1	50960.78	-44.41714	-5.309872E-009	0.0006977	6
	51	135	2.372217	42576.77	-36349.78	1	55982.93	-40.48893	4.466042E-010	0.0007328	6
	52	139	1.878005	47847.59	-34165.72	1	58793.61	-35.52885	-2.620136E-009	0.0006316	6
	53	148	1.512097	51686.11	-31576.24	1	60568.25	-31.42173	-2.714098E-009	0.0007494	6
	54	159	1.201923	55062.21	-28776.71	1	62128.46	-27.59254	-9.345665E-010	0.0006304	6
	55	172	0.956633	58471.91	-26713.64	1	64285.17	-24.5539	-2.0933E-008	2.354488E-005	6
