EXPLAIN
TAG	EISPOT
TITLE	LABEL	Potentiostatic EIS	Test Identifier
DATE	LABEL	8/22/2020	Date
TIME	LABEL	0:24:05	Time
NOTES	NOTES	1	Notes...
	
PSTAT	PSTAT	REF3000-16137	Potentiostat
VDC	POTEN	0.00000E+000	T	DC Voltage (V)
FREQINIT	QUANT	3.00000E+005	Initial Freq. (Hz)
FREQFINAL	QUANT	1.00000E+000	Final Freq. (Hz)
PTSPERDEC	QUANT	1.00000E+001	Points/decade
VAC	QUANT	5.00000E+001	AC Voltage (mV rms)
AREA	QUANT	1.00000E+000	Sample Area (cm^2)
SPEED	SELECTOR	2	Optimize for:
ZGUESS	QUANT	1.00000E+003	Estimated Z (ohms)
EOC	QUANT	0	Open Circuit (V)
SEQUENCER	TOGGLE	TRUE	Run as Sequence
PSTATMODEL	IQUANT	5	Pstat Model
PSTATSECTION	LABEL	REF3000-16137	Pstat Section
PSTATSERIALNO	LABEL	16137	Pstat Serial Number
CTRLMODE	IQUANT	1	Control Mode
IESTAB	IQUANT	0	I/E Stability
CASPEED	IQUANT	1	Control Amp Speed
CONVENTION	IQUANT	1	Current Convention
ICHRANGE	IQUANT	2	Ich Range
ICHRANGEMODE	TOGGLE	F	Ich Auto Range
ICHOFFSETENABLE	TOGGLE	T	Ich Offset Enable
ICHOFFSET	QUANT	0	Ich Offset (V)
ICHFILTER	IQUANT	3	Ich Filter
VCHRANGE	IQUANT	2	Vch Range
VCHRANGEMODE	TOGGLE	F	Vch Auto Range
VCHOFFSETENABLE	TOGGLE	T	Vch Offset Enable
VCHOFFSET	QUANT	0	Vch Offset (V)
VCHFILTER	IQUANT	3	Vch Filter
ACHRANGE	IQUANT	2	Ach Range
ACHOFFSETENABLE	TOGGLE	F	Ach Offset Enable
ACHOFFSET	QUANT	0	Ach Offset (V)
ACHFILTER	IQUANT	3	Ach Filter
IERANGELOWERLIMIT	IQUANT	2	I/E Range Lower Limit
IERANGEMODE	TOGGLE	F	I/E AutoRange
IERANGE	IQUANT	11	I/E Range
POSFEEDENABLE	TOGGLE	F	Positive Feedback IR Comp
POSFEEDRESISTANCE	QUANT	0	Positive Feedback Resistance (ohm)
ACHSELECT	IQUANT	0	Ach Select
CABLEID	IQUANT	13	Cable ID
DCCALDATE	LABEL	7/31/2020	DC Calibration Date
ACCALDATE	LABEL	7/31/2020	AC Calibration Date
THERMOSELECT	IQUANT	1	Thermo Select
FRAMEWORKVERSION	QUANT	6.33	Framework Version
INSTRUMENTVERSION	LABEL	3.50	Instrument Version
COMPLIANCEVOLTAGE	IQUANT	0	Compliance Voltage
ZCURVE	TABLE
	Pt	Time	Freq	Zreal	Zimag	Zsig	Zmod	Zphz	Idc	Vdc	IERange
	#	s	Hz	ohm	ohm	V	ohm	°	A	V	#
	0	7	300046.9	105.5535	-6.084058	1	105.7287	-3.298854	2.307999E-005	-0.0008649	9
	1	11	238359.4	106.3199	-7.403177	1	106.5773	-3.983143	1.460194E-005	-0.0014259	9
	2	14	189328.1	107.1591	-8.908743	1	107.5288	-4.752394	1.07347E-005	0.0007909	9
	3	16	150421.9	108.3405	-10.62601	1	108.8604	-5.601638	7.273738E-005	-0.0022292	9
	4	19	119484.4	109.3896	-12.6554	1	110.1192	-6.599275	-7.406116E-005	0.0020826	9
	5	21	94921.88	110.7636	-14.64913	1	111.7281	-7.53398	-2.014051E-005	0.0004988	9
	6	24	75421.88	112.3423	-17.2136	1	113.6534	-8.71137	-1.730603E-006	-0.0003324	9
	7	26	59859.37	114.1603	-20.15284	1	115.9254	-10.01134	-1.822133E-005	0.0003788	9
	8	29	47578.12	116.2007	-23.35589	1	118.5247	-11.3648	1.667904E-005	-0.00066	9
	9	31	37828.12	118.4574	-27.02682	1	121.5014	-12.85241	-1.474169E-005	0.0001966	9
	10	34	30046.88	121.1018	-31.29829	1	125.0808	-14.4908	-9.533834E-006	-8.747978E-006	9
	11	37	23859.38	123.9155	-36.26403	1	129.1129	-16.31218	-2.012086E-005	0.0008117	9
	12	39	18984.38	126.7469	-42.02426	1	133.5321	-18.34348	2.3301E-005	-0.0003309	9
	13	41	15046.87	129.5947	-48.99369	1	138.5466	-20.70926	1.324509E-005	-0.0006562	9
	14	43	11953.13	132.2963	-57.25735	1	144.1552	-23.40279	1.962075E-005	-9.046934E-005	9
	15	46	9515.62	135.0508	-67.6077	1	151.0282	-26.59298	2.527068E-005	-0.0005997	9
	16	48	7546.875	137.466	-80.7921	1	159.4498	-30.44379	-1.288794E-005	0.000798	9
	17	50	5928.309	140.2544	-98.2936	1	171.2686	-35.0237	-2.051036E-005	0.000644	9
	18	53	4733.456	142.5794	-118.877	1	185.6357	-39.82001	-1.706221E-005	0.0003828	9
	19	55	3796.875	145.0665	-144.7275	1	204.9154	-44.93299	2.337091E-005	-0.0006821	9
	20	57	2987.132	148.391	-180.202	1	233.4366	-50.52956	2.308945E-005	-0.0002828	9
	21	60	2390.625	152.1213	-221.0311	1	268.32	-55.46291	2.422717E-005	-0.0006162	9
	22	62	1884.191	157.5063	-275.3997	1	317.259	-60.23394	1.240404E-005	-0.0006424	9
	23	64	1516.544	162.1448	-338.9566	1	375.7426	-64.4352	1.255683E-005	0.0001695	9
	24	67	1193.986	169.2873	-423.1151	1	455.7243	-68.19377	-5.723484E-006	0.0028716	8
	25	69	946.5144	179.6327	-527.208	1	556.9705	-71.18477	3.224805E-006	0.000928	8
	26	71	751.7689	193.6238	-657.5578	1	685.4724	-73.59246	-4.595724E-006	0.002941	8
	27	74	597.4265	210.2742	-815.7794	1	842.4436	-75.54613	6.349945E-006	-0.001768	8
	28	76	477.4305	233.0118	-1008.004	1	1034.585	-76.98403	2.097203E-007	0.000639	8
	29	78	376.6741	264.7858	-1259.969	1	1287.491	-78.13184	1.830822E-007	0.0006611	8
	30	81	298.2954	306.425	-1567.588	1	1597.256	-78.93954	1.898004E-007	0.0006714	8
	31	83	237.7717	359.8138	-1936.283	1	1969.431	-79.47297	1.956979E-007	0.0006373	8
	32	85	189.0121	430.3984	-2395.172	1	2433.535	-79.813	1.985684E-007	0.0006435	8
	33	88	150.2404	522.4783	-2959.801	1	3005.562	-79.98901	2.113366E-007	0.0006426	8
	34	90	119.1737	642.8441	-3659.9	1	3715.927	-80.03789	2.026478E-007	0.0006409	8
	35	93	95.0169	799.7093	-4509.616	1	4579.975	-79.94404	1.708011E-008	0.0006201	7
	36	95	75.60484	1002.219	-5550.466	1	5640.223	-79.76469	1.600696E-008	0.0006124	7
	37	98	54.50582	1407.198	-7458.949	1	7590.529	-79.31621	1.698577E-008	0.0006093	7
	38	100	45.95588	1692.506	-8694.094	1	8857.305	-78.98384	2.352065E-008	0.000628	7
	39	102	37.20238	2145.748	-10506.43	1	10723.31	-78.45712	2.181915E-008	0.0006168	7
	40	105	30.04808	2747.845	-12690.26	1	12984.35	-77.78226	1.574538E-008	0.0006211	7
	41	107	23.91582	3581.348	-15485.88	1	15894.61	-76.97839	1.997846E-008	0.0006112	7
	42	110	18.60119	4846.076	-19231.47	1	19832.65	-75.85667	1.542828E-008	0.0006246	7
	43	112	15.02404	6295.13	-23013.62	1	23859.07	-74.70158	2.339212E-008	0.0006363	7
	44	114	12.01923	8278.88	-27648.93	1	28861.79	-73.3308	2.420581E-008	0.0006201	7
	45	117	9.450605	11092	-33504.84	1	35293.16	-71.68253	2.644438E-008	0.0006139	7
	46	119	7.512019	14591.31	-39881.76	1	42467.18	-69.90424	9.848583E-009	0.0006847	6
	47	122	5.978954	19036.08	-47124.85	1	50824.44	-68.00376	9.21384E-009	0.0006628	6
	48	125	4.734848	24701.58	-55449.97	1	60703.11	-65.98822	9.550869E-009	0.0006972	6
	49	128	3.75601	31680.74	-64611.61	1	71960.62	-63.88009	4.46267E-009	0.0006435	6
	50	132	3.004808	39841.44	-74310.29	1	84317.02	-61.80203	4.985984E-009	0.0006676	6
	51	135	2.372217	50308.03	-85304.16	1	99033.8	-59.47007	3.747927E-009	0.0006798	6
	52	139	1.878005	62987.93	-96786	1	115477.3	-56.94408	2.317418E-009	0.0006573	6
	53	144	1.512097	76489.68	-107826.6	1	132201.5	-54.64899	2.64022E-009	0.0005767	6
	54	150	1.201923	93468.8	-119341.9	1	151587.9	-51.93188	1.37782E-009	0.0006597	6
	55	156	0.956633	112567.5	-130233.4	1	172140	-49.16145	-3.45275E-010	3.576624E-005	6
