EXPLAIN
TAG	EISPOT
TITLE	LABEL	Potentiostatic EIS	Test Identifier
DATE	LABEL	8/22/2020	Date
TIME	LABEL	3:35:20	Time
NOTES	NOTES	1	Notes...
	
PSTAT	PSTAT	REF3000-16137	Potentiostat
VDC	POTEN	0.00000E+000	T	DC Voltage (V)
FREQINIT	QUANT	3.00000E+005	Initial Freq. (Hz)
FREQFINAL	QUANT	1.00000E+000	Final Freq. (Hz)
PTSPERDEC	QUANT	1.00000E+001	Points/decade
VAC	QUANT	5.00000E+001	AC Voltage (mV rms)
AREA	QUANT	1.00000E+000	Sample Area (cm^2)
SPEED	SELECTOR	2	Optimize for:
ZGUESS	QUANT	1.00000E+003	Estimated Z (ohms)
EOC	QUANT	0	Open Circuit (V)
SEQUENCER	TOGGLE	TRUE	Run as Sequence
PSTATMODEL	IQUANT	5	Pstat Model
PSTATSECTION	LABEL	REF3000-16137	Pstat Section
PSTATSERIALNO	LABEL	16137	Pstat Serial Number
CTRLMODE	IQUANT	1	Control Mode
IESTAB	IQUANT	0	I/E Stability
CASPEED	IQUANT	1	Control Amp Speed
CONVENTION	IQUANT	1	Current Convention
ICHRANGE	IQUANT	2	Ich Range
ICHRANGEMODE	TOGGLE	F	Ich Auto Range
ICHOFFSETENABLE	TOGGLE	T	Ich Offset Enable
ICHOFFSET	QUANT	0	Ich Offset (V)
ICHFILTER	IQUANT	3	Ich Filter
VCHRANGE	IQUANT	2	Vch Range
VCHRANGEMODE	TOGGLE	F	Vch Auto Range
VCHOFFSETENABLE	TOGGLE	T	Vch Offset Enable
VCHOFFSET	QUANT	0	Vch Offset (V)
VCHFILTER	IQUANT	3	Vch Filter
ACHRANGE	IQUANT	2	Ach Range
ACHOFFSETENABLE	TOGGLE	F	Ach Offset Enable
ACHOFFSET	QUANT	0	Ach Offset (V)
ACHFILTER	IQUANT	3	Ach Filter
IERANGELOWERLIMIT	IQUANT	2	I/E Range Lower Limit
IERANGEMODE	TOGGLE	F	I/E AutoRange
IERANGE	IQUANT	11	I/E Range
POSFEEDENABLE	TOGGLE	F	Positive Feedback IR Comp
POSFEEDRESISTANCE	QUANT	0	Positive Feedback Resistance (ohm)
ACHSELECT	IQUANT	0	Ach Select
CABLEID	IQUANT	13	Cable ID
DCCALDATE	LABEL	7/31/2020	DC Calibration Date
ACCALDATE	LABEL	7/31/2020	AC Calibration Date
THERMOSELECT	IQUANT	1	Thermo Select
FRAMEWORKVERSION	QUANT	6.33	Framework Version
INSTRUMENTVERSION	LABEL	3.50	Instrument Version
COMPLIANCEVOLTAGE	IQUANT	0	Compliance Voltage
ZCURVE	TABLE
	Pt	Time	Freq	Zreal	Zimag	Zsig	Zmod	Zphz	Idc	Vdc	IERange
	#	s	Hz	ohm	ohm	V	ohm	°	A	V	#
	0	7	300046.9	86.31516	-4.756923	1	86.44614	-3.154442	7.343321E-005	-0.0025109	9
	1	10	238359.4	86.99146	-5.953713	1	87.19495	-3.915229	6.508257E-005	-0.0027314	9
	2	13	189328.1	87.69711	-7.658376	1	88.03087	-4.99084	-1.013887E-005	0.0008165	9
	3	15	150421.9	88.42493	-9.397884	1	88.92294	-6.066675	-8.585211E-006	0.0009352	9
	4	18	119484.4	89.55877	-11.07633	1	90.24111	-7.050349	1.412561E-005	-0.0010602	9
	5	20	94921.88	90.72179	-12.80375	1	91.62085	-8.033211	5.015685E-006	-0.0005065	9
	6	23	75421.88	92.05467	-15.20228	1	93.30151	-9.377418	-1.894498E-005	0.0004327	9
	7	26	59859.37	93.62933	-17.7781	1	95.3022	-10.75119	-1.885179E-005	0.0006252	9
	8	28	47578.12	95.3799	-20.77295	1	97.6158	-12.28668	-1.660744E-005	0.0003536	9
	9	31	37828.12	97.3484	-24.05405	1	100.2762	-13.87935	-4.705983E-006	0.0007012	9
	10	33	30046.88	99.5671	-27.89578	1	103.4011	-15.65131	-5.256329E-006	0.0006295	9
	11	36	23859.38	101.9332	-32.311	1	106.9317	-17.58768	-6.050366E-006	0.0006507	9
	12	38	18984.38	104.381	-37.40675	1	110.8813	-19.71603	2.164004E-005	-0.0006702	9
	13	40	15046.87	106.8197	-43.59277	1	115.3723	-22.20021	-1.109988E-005	0.0008149	9
	14	43	11953.13	109.0352	-51.29373	1	120.4978	-25.19383	-4.66634E-006	-0.0002433	9
	15	45	9515.62	111.4795	-60.47717	1	126.8273	-28.47964	-1.81968E-005	0.000499	9
	16	47	7546.875	113.5653	-72.40157	1	134.6814	-32.51883	-1.774926E-005	0.0004913	9
	17	49	5928.309	115.9324	-88.62425	1	145.9266	-37.39602	2.231428E-005	-0.0002894	9
	18	52	4733.456	118.3303	-107.3491	1	159.7683	-42.21428	-1.935483E-005	0.0005201	9
	19	54	3796.875	120.9187	-130.7478	1	178.0908	-47.23661	2.1919E-005	-0.0006466	9
	20	56	2987.132	123.8635	-162.3859	1	204.2335	-52.66461	-1.168733E-005	0.0007802	9
	21	59	2390.625	128.2384	-199.307	1	236.9987	-57.24189	1.849131E-005	-0.0007033	9
	22	61	1884.191	133.8357	-248.1038	1	281.8998	-61.65605	-1.864762E-005	0.0007536	9
	23	65	1516.544	139.5632	-305.2692	1	335.6593	-65.43104	-1.156261E-005	0.0007989	9
	24	67	1193.986	148.5447	-380.9322	1	408.8702	-68.69669	-5.279975E-006	0.0006806	9
	25	70	946.5144	160.2589	-471.37	1	497.868	-71.22271	-9.797462E-007	-6.39475E-006	8
	26	72	751.7689	174.5023	-583.7472	1	609.2715	-73.35677	-5.357113E-006	0.0017671	8
	27	74	597.4265	195.1298	-724.1403	1	749.9698	-74.91905	6.488691E-006	-0.0009705	8
	28	76	477.4305	221.142	-890.7213	1	917.7626	-76.05693	2.488485E-007	0.0006448	8
	29	79	376.6741	257.8455	-1108.245	1	1137.845	-76.90252	2.386941E-007	0.0006431	8
	30	81	298.2954	305.9614	-1372.417	1	1406.108	-77.43221	2.508806E-007	0.0006412	8
	31	83	237.7717	367.6094	-1686.76	1	1726.353	-77.70531	2.447234E-007	0.0006339	8
	32	86	189.0121	449.8141	-2075.41	1	2123.596	-77.77113	2.387704E-007	0.0006449	8
	33	88	150.2404	558.1044	-2549.501	1	2609.873	-77.65231	2.393399E-007	0.0006443	8
	34	91	119.1737	702.2178	-3133.151	1	3210.879	-77.36734	2.474782E-007	0.000657	8
	35	93	95.0169	889.5898	-3825.624	1	3927.693	-76.90939	2.684816E-007	0.0006476	8
	36	96	75.60484	1143.261	-4679.572	1	4817.203	-76.27106	2.605523E-008	0.0006146	7
	37	98	54.50582	1653.511	-6199.206	1	6415.938	-75.06522	2.682984E-008	0.0006104	7
	38	101	45.95588	2017.043	-7161.013	1	7439.662	-74.26907	3.11818E-008	0.0006211	7
	39	103	37.20238	2589.996	-8534.266	1	8918.619	-73.1179	2.672643E-008	0.0006176	7
	40	105	30.04808	3340.767	-10140.39	1	10676.52	-71.76545	2.625222E-008	0.0006173	7
	41	108	23.91582	4391.143	-12120.06	1	12891	-70.08436	2.049724E-008	0.0006216	7
	42	110	18.60119	5933.846	-14641.29	1	15798.03	-67.93819	2.03699E-008	0.0006185	7
	43	113	15.02404	7636.521	-17023.05	1	18657.46	-65.83905	2.853555E-008	0.000618	7
	44	115	12.01923	9881.5	-19720.02	1	22057.27	-63.38503	3.421804E-008	0.0006179	7
	45	117	9.450605	12907.7	-22820.58	1	26218.07	-60.50678	3.164471E-008	0.0006115	7
	46	120	7.512019	16386.9	-25831.02	1	30590.39	-57.60944	3.214367E-008	0.0006066	7
	47	123	5.978954	20538.34	-28657.46	1	35257.24	-54.37143	2.992953E-008	0.0006232	7
	48	126	4.734848	25403.03	-31432.64	1	40414.42	-51.05577	2.208598E-008	0.0006058	7
	49	129	3.75601	30835.07	-33545.49	1	45564.26	-47.41073	5.708821E-009	0.0006647	6
	50	132	3.004808	36378.45	-34959.51	1	50453.54	-43.86051	-1.493088E-009	0.0007144	6
	51	136	2.372217	42421.03	-35483.32	1	55304.7	-39.91099	2.530179E-009	0.0006644	6
	52	140	1.878005	47650.22	-33272.98	1	58117.42	-34.92565	-1.567349E-009	0.0006411	6
	53	149	1.512097	51449.48	-30876.05	1	60003.16	-30.96896	-2.737957E-009	0.0007622	6
	54	160	1.201923	54799.08	-28217.97	1	61637.59	-27.24553	-2.825933E-009	0.0006347	6
	55	173	0.956633	58230.75	-26236.47	1	63868.39	-24.25444	-2.295245E-008	2.682682E-005	6
