EXPLAIN
TAG	EISPOT
TITLE	LABEL	Potentiostatic EIS	Test Identifier
DATE	LABEL	8/22/2020	Date
TIME	LABEL	3:08:00	Time
NOTES	NOTES	1	Notes...
	
PSTAT	PSTAT	REF3000-16137	Potentiostat
VDC	POTEN	0.00000E+000	T	DC Voltage (V)
FREQINIT	QUANT	3.00000E+005	Initial Freq. (Hz)
FREQFINAL	QUANT	1.00000E+000	Final Freq. (Hz)
PTSPERDEC	QUANT	1.00000E+001	Points/decade
VAC	QUANT	5.00000E+001	AC Voltage (mV rms)
AREA	QUANT	1.00000E+000	Sample Area (cm^2)
SPEED	SELECTOR	2	Optimize for:
ZGUESS	QUANT	1.00000E+003	Estimated Z (ohms)
EOC	QUANT	0	Open Circuit (V)
SEQUENCER	TOGGLE	TRUE	Run as Sequence
PSTATMODEL	IQUANT	5	Pstat Model
PSTATSECTION	LABEL	REF3000-16137	Pstat Section
PSTATSERIALNO	LABEL	16137	Pstat Serial Number
CTRLMODE	IQUANT	1	Control Mode
IESTAB	IQUANT	0	I/E Stability
CASPEED	IQUANT	1	Control Amp Speed
CONVENTION	IQUANT	1	Current Convention
ICHRANGE	IQUANT	2	Ich Range
ICHRANGEMODE	TOGGLE	F	Ich Auto Range
ICHOFFSETENABLE	TOGGLE	T	Ich Offset Enable
ICHOFFSET	QUANT	0	Ich Offset (V)
ICHFILTER	IQUANT	3	Ich Filter
VCHRANGE	IQUANT	2	Vch Range
VCHRANGEMODE	TOGGLE	F	Vch Auto Range
VCHOFFSETENABLE	TOGGLE	T	Vch Offset Enable
VCHOFFSET	QUANT	0	Vch Offset (V)
VCHFILTER	IQUANT	3	Vch Filter
ACHRANGE	IQUANT	2	Ach Range
ACHOFFSETENABLE	TOGGLE	F	Ach Offset Enable
ACHOFFSET	QUANT	0	Ach Offset (V)
ACHFILTER	IQUANT	3	Ach Filter
IERANGELOWERLIMIT	IQUANT	2	I/E Range Lower Limit
IERANGEMODE	TOGGLE	F	I/E AutoRange
IERANGE	IQUANT	11	I/E Range
POSFEEDENABLE	TOGGLE	F	Positive Feedback IR Comp
POSFEEDRESISTANCE	QUANT	0	Positive Feedback Resistance (ohm)
ACHSELECT	IQUANT	0	Ach Select
CABLEID	IQUANT	13	Cable ID
DCCALDATE	LABEL	7/31/2020	DC Calibration Date
ACCALDATE	LABEL	7/31/2020	AC Calibration Date
THERMOSELECT	IQUANT	1	Thermo Select
FRAMEWORKVERSION	QUANT	6.33	Framework Version
INSTRUMENTVERSION	LABEL	3.50	Instrument Version
COMPLIANCEVOLTAGE	IQUANT	0	Compliance Voltage
ZCURVE	TABLE
	Pt	Time	Freq	Zreal	Zimag	Zsig	Zmod	Zphz	Idc	Vdc	IERange
	#	s	Hz	ohm	ohm	V	ohm	°	A	V	#
	0	6	300046.9	94.09414	-5.279941	1	94.24216	-3.211692	-7.71509E-006	-0.0013486	9
	1	10	238359.4	94.6126	-6.752134	1	94.85323	-4.082057	-8.593195E-006	-0.0013725	9
	2	13	189328.1	95.0371	-8.107086	1	95.3822	-4.875782	6.541691E-006	-0.0006621	9
	3	15	150421.9	95.6557	-9.96305	1	96.1731	-5.946221	1.345882E-005	0.0006512	9
	4	18	119484.4	96.8523	-11.72449	1	97.5594	-6.902377	1.19751E-005	-0.0007481	9
	5	20	94921.88	98.0421	-13.5928	1	98.9799	-7.89331	-2.007017E-005	0.0004727	9
	6	23	75421.88	99.3462	-15.98163	1	100.6235	-9.138763	-1.02969E-005	1.201207E-006	9
	7	25	59859.37	100.8842	-18.7995	1	102.6209	-10.55583	-1.880152E-005	0.0007717	9
	8	28	47578.12	102.6638	-21.84559	1	104.9623	-12.01266	1.827976E-005	-0.0007033	9
	9	30	37828.12	104.6947	-25.26296	1	107.6995	-13.56621	-1.920706E-006	-0.0002792	9
	10	33	30046.88	106.8896	-29.30835	1	110.8349	-15.33324	2.250785E-005	-0.0006687	9
	11	36	23859.38	109.3391	-33.91102	1	114.477	-17.23104	-1.998736E-005	0.0007433	9
	12	38	18984.38	111.8334	-39.22986	1	118.5145	-19.33028	1.878449E-005	-0.0006948	9
	13	40	15046.87	114.3438	-45.6712	1	123.1275	-21.77275	2.294548E-005	-0.000325	9
	14	43	11953.13	116.9464	-53.49017	1	128.5988	-24.57892	3.683763E-006	0.0004436	9
	15	45	9515.62	119.2581	-63.17252	1	134.9565	-27.91074	-9.584533E-006	0.000748	9
	16	47	7546.875	121.143	-75.5546	1	142.773	-31.95101	-1.567763E-006	-0.0002732	9
	17	49	5928.309	123.4907	-92.01344	1	154.0014	-36.68995	-3.038816E-006	-0.0002259	9
	18	52	4733.456	125.7336	-111.4913	1	168.0454	-41.56425	-3.039598E-006	-0.0002393	9
	19	54	3796.875	128.1822	-135.4123	1	186.4596	-46.57117	2.444801E-005	-0.0005151	9
	20	56	2987.132	131.4156	-168.5021	1	213.6891	-52.04916	1.906806E-005	-0.0001189	9
	21	59	2390.625	134.8721	-206.9943	1	247.0569	-56.9128	2.661501E-006	0.0004216	9
	22	61	1884.191	139.2848	-257.6719	1	292.9079	-61.60653	-1.948687E-005	0.00051	9
	23	63	1516.544	146.1746	-315.9718	1	348.1454	-65.17384	-1.444E-005	0.0001826	9
	24	66	1193.986	154.7512	-395.1207	1	424.3446	-68.61194	-9.764211E-006	7.448603E-006	9
	25	68	946.5144	164.6386	-489.6497	1	516.5876	-71.41542	9.654168E-007	0.0016074	8
	26	70	751.7689	179.3585	-607.0483	1	632.9906	-73.5397	-4.716557E-006	0.0013422	8
	27	73	597.4265	198.8771	-753.7286	1	779.5248	-75.21895	7.437777E-007	0.0017172	8
	28	75	477.4305	224.2737	-928.8749	1	955.566	-76.42592	2.083746E-007	0.0006621	8
	29	77	376.6741	260.3913	-1157.658	1	1186.581	-77.32347	2.150852E-007	0.0006454	8
	30	80	298.2954	308.6511	-1436.101	1	1468.895	-77.87034	2.289553E-007	0.0006444	8
	31	82	237.7717	371.8966	-1768.01	1	1806.7	-78.12115	2.11824E-007	0.0006425	8
	32	85	189.0121	457.9292	-2178.975	1	2226.573	-78.13155	2.132546E-007	0.0006507	8
	33	87	150.2404	573.796	-2680.206	1	2740.939	-77.91615	2.302391E-007	0.0006446	8
	34	89	119.1737	731.6263	-3296.593	1	3376.803	-77.48692	2.217635E-007	0.0006483	8
	35	92	95.0169	940.1906	-4024.277	1	4132.646	-76.84988	2.256569E-007	0.0006485	8
	36	94	75.60484	1224.108	-4917.959	1	5068.014	-76.02279	-3.055281E-009	0.0006202	7
	37	97	54.50582	1803.448	-6500.262	1	6745.801	-74.49373	-5.329543E-009	0.0006295	7
	38	99	45.95588	2214.177	-7489.19	1	7809.645	-73.5297	2.584662E-009	0.0006366	7
	39	102	37.20238	2865.982	-8891.917	1	9342.379	-72.13519	9.647326E-010	0.000617	7
	40	104	30.04808	3718.319	-10513.81	1	11151.96	-70.52332	-4.995652E-009	0.0006232	7
	41	107	23.91582	4935.182	-12511.19	1	13449.38	-68.47268	-1.026955E-008	0.000625	7
	42	109	18.60119	6676.86	-14964.68	1	16386.65	-65.9548	-3.998223E-009	0.0006208	7
	43	111	15.02404	8580.959	-17244.03	1	19261.08	-63.54418	-4.980825E-010	0.0006095	7
	44	114	12.01923	11071.77	-19728.01	1	22622.52	-60.69796	4.586719E-009	0.0006178	7
	45	116	9.450605	14401.39	-22430.15	1	26655.43	-57.2973	1.868201E-009	0.0006248	7
	46	119	7.512019	18140.6	-24884.52	1	30794.81	-53.90828	5.969071E-009	0.0006344	7
	47	121	5.978954	22477.78	-26974.85	1	35112.58	-50.19601	-1.621813E-009	0.0006264	7
	48	124	4.734848	27401.03	-28494.47	1	39531.65	-46.12069	-2.23698E-008	0.0006729	6
	49	128	3.75601	32496.63	-29343.87	1	43784.63	-42.08147	-2.451358E-008	0.0006645	6
	50	131	3.004808	37371.36	-29441.64	1	47575.51	-38.23149	-3.014522E-008	0.0007091	6
	51	135	2.372217	42282.58	-28534.74	1	51010.28	-34.01376	-2.183309E-008	0.0007132	6
	52	139	1.878005	45693.37	-25615.94	1	52383.78	-29.27522	-2.748778E-008	0.0006444	6
	53	148	1.512097	48215.75	-23401.38	1	53594.62	-25.8895	-2.772852E-008	0.0007669	6
	54	159	1.201923	50512.3	-21219.5	1	54788.31	-22.78658	-2.716952E-008	0.0006385	6
	55	171	0.956633	53120.17	-19670.95	1	56645.38	-20.32011	-4.784784E-008	2.375536E-005	6
