EXPLAIN
TAG	EISPOT
TITLE	LABEL	Potentiostatic EIS	Test Identifier
DATE	LABEL	8/22/2020	Date
TIME	LABEL	0:40:38	Time
NOTES	NOTES	1	Notes...
	
PSTAT	PSTAT	REF3000-16137	Potentiostat
VDC	POTEN	0.00000E+000	T	DC Voltage (V)
FREQINIT	QUANT	3.00000E+005	Initial Freq. (Hz)
FREQFINAL	QUANT	1.00000E+000	Final Freq. (Hz)
PTSPERDEC	QUANT	1.00000E+001	Points/decade
VAC	QUANT	5.00000E+001	AC Voltage (mV rms)
AREA	QUANT	1.00000E+000	Sample Area (cm^2)
SPEED	SELECTOR	2	Optimize for:
ZGUESS	QUANT	1.00000E+003	Estimated Z (ohms)
EOC	QUANT	0	Open Circuit (V)
SEQUENCER	TOGGLE	TRUE	Run as Sequence
PSTATMODEL	IQUANT	5	Pstat Model
PSTATSECTION	LABEL	REF3000-16137	Pstat Section
PSTATSERIALNO	LABEL	16137	Pstat Serial Number
CTRLMODE	IQUANT	1	Control Mode
IESTAB	IQUANT	0	I/E Stability
CASPEED	IQUANT	1	Control Amp Speed
CONVENTION	IQUANT	1	Current Convention
ICHRANGE	IQUANT	2	Ich Range
ICHRANGEMODE	TOGGLE	F	Ich Auto Range
ICHOFFSETENABLE	TOGGLE	T	Ich Offset Enable
ICHOFFSET	QUANT	0	Ich Offset (V)
ICHFILTER	IQUANT	3	Ich Filter
VCHRANGE	IQUANT	2	Vch Range
VCHRANGEMODE	TOGGLE	F	Vch Auto Range
VCHOFFSETENABLE	TOGGLE	T	Vch Offset Enable
VCHOFFSET	QUANT	0	Vch Offset (V)
VCHFILTER	IQUANT	3	Vch Filter
ACHRANGE	IQUANT	2	Ach Range
ACHOFFSETENABLE	TOGGLE	F	Ach Offset Enable
ACHOFFSET	QUANT	0	Ach Offset (V)
ACHFILTER	IQUANT	3	Ach Filter
IERANGELOWERLIMIT	IQUANT	2	I/E Range Lower Limit
IERANGEMODE	TOGGLE	F	I/E AutoRange
IERANGE	IQUANT	11	I/E Range
POSFEEDENABLE	TOGGLE	F	Positive Feedback IR Comp
POSFEEDRESISTANCE	QUANT	0	Positive Feedback Resistance (ohm)
ACHSELECT	IQUANT	0	Ach Select
CABLEID	IQUANT	13	Cable ID
DCCALDATE	LABEL	7/31/2020	DC Calibration Date
ACCALDATE	LABEL	7/31/2020	AC Calibration Date
THERMOSELECT	IQUANT	1	Thermo Select
FRAMEWORKVERSION	QUANT	6.33	Framework Version
INSTRUMENTVERSION	LABEL	3.50	Instrument Version
COMPLIANCEVOLTAGE	IQUANT	0	Compliance Voltage
ZCURVE	TABLE
	Pt	Time	Freq	Zreal	Zimag	Zsig	Zmod	Zphz	Idc	Vdc	IERange
	#	s	Hz	ohm	ohm	V	ohm	°	A	V	#
	0	7	300046.9	140.5374	-8.026108	1	140.7664	-3.268617	-1.109828E-005	0.0006925	9
	1	10	238359.4	141.7225	-9.65482	1	142.0509	-3.897243	7.046723E-005	-0.0018229	9
	2	13	189328.1	142.7906	-11.4965	1	143.2527	-4.603127	1.178486E-005	-0.0009106	9
	3	16	150421.9	143.2792	-13.16006	1	143.8823	-5.247836	-2.920357E-005	-0.0004402	9
	4	18	119484.4	145.4436	-15.25205	1	146.2412	-5.986484	-8.423901E-005	0.0031616	9
	5	21	94921.88	147.222	-17.73885	1	148.2868	-6.870475	-1.993479E-005	0.0005582	9
	6	23	75421.88	149.1955	-20.7558	1	150.6323	-7.920052	2.437489E-005	-0.0004339	9
	7	26	59859.37	151.4845	-24.09484	1	153.3888	-9.037649	-2.725169E-006	-0.0003081	9
	8	28	47578.12	154.109	-27.74261	1	156.5862	-10.20505	-2.069484E-005	0.0005179	9
	9	31	37828.12	156.9794	-32.01	1	160.2097	-11.5253	-1.876598E-005	0.0009219	9
	10	33	30046.88	160.1899	-36.98552	1	164.4042	-13.00094	-1.968078E-005	0.0004819	9
	11	36	23859.38	163.7683	-42.70246	1	169.244	-14.61442	-2.237545E-005	0.0006538	9
	12	38	18984.38	167.4967	-49.46135	1	174.647	-16.45173	-1.296137E-005	7.39891E-005	9
	13	41	15046.87	171.2747	-57.13735	1	180.5539	-18.44873	-5.9992E-006	0.0007906	9
	14	43	11953.13	175.2181	-66.53106	1	187.424	-20.79198	-2.010227E-005	0.0005016	9
	15	45	9515.62	179.0634	-77.67607	1	195.1852	-23.45076	1.213995E-005	0.0002399	9
	16	47	7546.875	182.9953	-91.76476	1	204.7145	-26.63192	2.54209E-005	-0.0007375	9
	17	50	5928.309	186.2554	-110.6097	1	216.6232	-30.70438	1.41815E-005	-0.0007119	9
	18	52	4733.456	189.2865	-132.9091	1	231.2882	-35.07494	-9.555396E-006	-5.45951E-005	9
	19	54	3796.875	192.5318	-161.5719	1	251.3443	-40.00323	5.277228E-006	-0.0005087	9
	20	57	2987.132	195.9461	-199.3224	1	279.5072	-45.48938	-2.057933E-005	0.0004981	9
	21	59	2390.625	199.6463	-244.1629	1	315.3953	-50.72795	-5.807393E-006	0.0007938	9
	22	61	1884.191	205.1208	-306.3513	1	368.681	-56.19529	2.596053E-005	-0.0006182	9
	23	64	1516.544	209.9308	-372.4159	1	427.5097	-60.59005	-1.474162E-005	0.000158	9
	24	66	1193.986	215.8017	-466.5544	1	514.0461	-65.1774	-7.681339E-006	0.0030561	8
	25	69	946.5144	225.8905	-581.5872	1	623.9152	-68.77366	7.554145E-006	-0.002307	8
	26	71	751.7689	238.1446	-725.3772	1	763.469	-71.82476	-5.966247E-006	0.0035356	8
	27	73	597.4265	251.7099	-901.5923	1	936.0698	-74.40113	-6.196063E-006	0.001442	8
	28	76	477.4305	272.8917	-1118.258	1	1151.074	-76.28599	1.395182E-007	0.0006411	8
	29	78	376.6741	301.1738	-1401.519	1	1433.513	-77.87209	1.327652E-007	0.0006457	8
	30	80	298.2954	338.1212	-1749.117	1	1781.498	-79.05912	1.212988E-007	0.0006504	8
	31	83	237.7717	385.7015	-2167.586	1	2201.634	-79.91036	1.150343E-007	0.0006533	8
	32	85	189.0121	448.8894	-2691.184	1	2728.365	-80.53025	1.187409E-007	0.0006447	8
	33	87	150.2404	531.7072	-3338.48	1	3380.557	-80.95072	1.332699E-007	0.0006417	8
	34	90	119.1737	641.6537	-4144.425	1	4193.802	-81.19915	1.253561E-007	0.000648	8
	35	92	95.0169	782.5005	-5127.124	1	5186.492	-81.32249	8.100904E-009	0.00062	7
	36	95	75.60484	964.156	-6337.318	1	6410.241	-81.34939	7.172336E-009	0.0006219	7
	37	97	54.50582	1322.299	-8572.542	1	8673.924	-81.23134	2.688396E-009	0.0006233	7
	38	100	45.95588	1575.192	-10033.5	1	10156.4	-81.07778	9.506109E-009	0.0006203	7
	39	102	37.20238	1965.06	-12171.17	1	12328.78	-80.82862	7.108643E-009	0.0006238	7
	40	104	30.04808	2488.52	-14801.01	1	15008.75	-80.45602	5.702662E-009	0.0006276	7
	41	107	23.91582	3232.891	-18227.42	1	18511.9	-79.94238	5.668557E-009	0.000626	7
	42	109	18.60119	4316.297	-22833.7	1	23238.08	-79.29558	1.172112E-008	0.0006118	7
	43	111	15.02404	5590.558	-27609.25	1	28169.58	-78.55303	7.985291E-009	0.0006188	7
	44	114	12.01923	7331.063	-33581.5	1	34372.4	-77.68516	6.706609E-009	0.0006218	7
	45	116	9.450605	9871.67	-41306.63	1	42469.84	-76.55926	1.125681E-008	0.000626	7
	46	119	7.512019	13098.45	-50147.95	1	51830.36	-75.36161	3.223716E-009	0.0006825	6
	47	121	5.978954	17282.83	-60523.91	1	62943.15	-74.0631	2.695269E-009	0.0006689	6
	48	125	4.734848	22921.95	-72961.32	1	76477.25	-72.55907	2.27672E-009	0.0006831	6
	49	128	3.75601	30086.32	-87295.7	1	92334.85	-70.98357	1.546595E-009	0.0006628	6
	50	131	3.004808	38730.74	-102991.1	1	110032.9	-69.39078	4.393736E-010	0.0006963	6
	51	135	2.372217	50213.25	-122159.3	1	132076.7	-67.65502	1.110612E-009	0.0007374	6
	52	139	1.878005	63958.33	-143576.6	1	157178	-65.98872	2.500859E-011	0.0006425	6
	53	144	1.512097	79166.34	-165792.5	1	183723.9	-64.47541	4.692944E-010	0.0006913	6
	54	149	1.201923	98907.7	-192978.1	1	216848.6	-62.86334	4.576048E-010	0.0006307	6
	55	155	0.956633	122155.2	-222886.1	1	254165.5	-61.27457	-8.357602E-010	3.112858E-005	6
