EXPLAIN
TAG	EISPOT
TITLE	LABEL	Potentiostatic EIS	Test Identifier
DATE	LABEL	8/22/2020	Date
TIME	LABEL	3:50:29	Time
NOTES	NOTES	1	Notes...
	
PSTAT	PSTAT	REF3000-16137	Potentiostat
VDC	POTEN	0.00000E+000	T	DC Voltage (V)
FREQINIT	QUANT	3.00000E+005	Initial Freq. (Hz)
FREQFINAL	QUANT	1.00000E+000	Final Freq. (Hz)
PTSPERDEC	QUANT	1.00000E+001	Points/decade
VAC	QUANT	5.00000E+001	AC Voltage (mV rms)
AREA	QUANT	1.00000E+000	Sample Area (cm^2)
SPEED	SELECTOR	2	Optimize for:
ZGUESS	QUANT	1.00000E+003	Estimated Z (ohms)
EOC	QUANT	0	Open Circuit (V)
SEQUENCER	TOGGLE	TRUE	Run as Sequence
PSTATMODEL	IQUANT	5	Pstat Model
PSTATSECTION	LABEL	REF3000-16137	Pstat Section
PSTATSERIALNO	LABEL	16137	Pstat Serial Number
CTRLMODE	IQUANT	1	Control Mode
IESTAB	IQUANT	0	I/E Stability
CASPEED	IQUANT	1	Control Amp Speed
CONVENTION	IQUANT	1	Current Convention
ICHRANGE	IQUANT	2	Ich Range
ICHRANGEMODE	TOGGLE	F	Ich Auto Range
ICHOFFSETENABLE	TOGGLE	T	Ich Offset Enable
ICHOFFSET	QUANT	0	Ich Offset (V)
ICHFILTER	IQUANT	3	Ich Filter
VCHRANGE	IQUANT	2	Vch Range
VCHRANGEMODE	TOGGLE	F	Vch Auto Range
VCHOFFSETENABLE	TOGGLE	T	Vch Offset Enable
VCHOFFSET	QUANT	0	Vch Offset (V)
VCHFILTER	IQUANT	3	Vch Filter
ACHRANGE	IQUANT	2	Ach Range
ACHOFFSETENABLE	TOGGLE	F	Ach Offset Enable
ACHOFFSET	QUANT	0	Ach Offset (V)
ACHFILTER	IQUANT	3	Ach Filter
IERANGELOWERLIMIT	IQUANT	2	I/E Range Lower Limit
IERANGEMODE	TOGGLE	F	I/E AutoRange
IERANGE	IQUANT	11	I/E Range
POSFEEDENABLE	TOGGLE	F	Positive Feedback IR Comp
POSFEEDRESISTANCE	QUANT	0	Positive Feedback Resistance (ohm)
ACHSELECT	IQUANT	0	Ach Select
CABLEID	IQUANT	13	Cable ID
DCCALDATE	LABEL	7/31/2020	DC Calibration Date
ACCALDATE	LABEL	7/31/2020	AC Calibration Date
THERMOSELECT	IQUANT	1	Thermo Select
FRAMEWORKVERSION	QUANT	6.33	Framework Version
INSTRUMENTVERSION	LABEL	3.50	Instrument Version
COMPLIANCEVOLTAGE	IQUANT	0	Compliance Voltage
ZCURVE	TABLE
	Pt	Time	Freq	Zreal	Zimag	Zsig	Zmod	Zphz	Idc	Vdc	IERange
	#	s	Hz	ohm	ohm	V	ohm	°	A	V	#
	0	7	300046.9	86.19691	-4.869544	1	86.33435	-3.233388	-5.96199E-006	0.0006901	9
	1	10	238359.4	86.96017	-6.174098	1	87.17907	-4.061137	6.934752E-005	-0.0024983	9
	2	14	189328.1	87.69503	-7.74641	1	88.0365	-5.048035	7.144781E-006	-0.0015776	9
	3	16	150421.9	88.89133	-9.204146	1	89.36657	-5.911557	1.730423E-006	0.000731	9
	4	19	119484.4	89.50455	-11.19673	1	90.20217	-7.130474	-1.053922E-005	0.0008765	9
	5	21	94921.88	90.75887	-12.86127	1	91.66561	-8.065574	-1.871493E-005	0.0007398	9
	6	24	75421.88	92.05507	-15.178	1	93.29795	-9.362667	5.438349E-006	0.0003441	9
	7	26	59859.37	93.62785	-17.85932	1	95.3159	-10.79932	-9.953839E-006	-7.564174E-006	9
	8	29	47578.12	95.3947	-20.81345	1	97.6389	-12.30805	2.312058E-005	-0.0002957	9
	9	31	37828.12	97.4202	-24.12516	1	100.363	-13.90892	1.856041E-005	-0.0007269	9
	10	34	30046.88	99.622	-27.94743	1	103.4679	-15.67065	1.860743E-005	-0.0001659	9
	11	36	23859.38	101.9777	-32.31966	1	106.9767	-17.58491	2.27312E-005	-0.0003708	9
	12	39	18984.38	104.3941	-37.48744	1	110.9208	-19.75298	1.230415E-005	0.0001851	9
	13	41	15046.87	106.9219	-43.73272	1	115.5199	-22.24532	2.381377E-005	-0.0005966	9
	14	43	11953.13	109.3882	-51.38985	1	120.8582	-25.16383	-1.855888E-005	0.0004788	9
	15	46	9515.62	111.4784	-60.63283	1	126.9006	-28.54167	-1.407362E-005	0.0002137	9
	16	48	7546.875	113.5529	-72.91477	1	134.9475	-32.70539	2.266792E-005	-0.0006323	9
	17	50	5928.309	115.9707	-88.94607	1	146.1527	-37.48712	-1.704533E-005	0.0008381	9
	18	53	4733.456	118.2695	-107.7764	1	160.0107	-42.34222	-1.423345E-005	0.0002012	9
	19	55	3796.875	120.7275	-131.2986	1	178.3661	-47.40184	-2.001306E-005	0.0006141	9
	20	57	2987.132	124.2917	-162.9892	1	204.9729	-52.67172	-1.71622E-005	0.0004067	9
	21	60	2390.625	127.6737	-200.611	1	237.7926	-57.52634	-1.302269E-005	0.000781	9
	22	62	1884.191	133.9517	-249.8745	1	283.5143	-61.80531	1.166498E-005	0.0001549	9
	23	64	1516.544	139.6266	-305.8632	1	336.226	-65.4633	-1.993775E-005	0.0006486	9
	24	66	1193.986	149.3526	-382.5596	1	410.68	-68.67416	-1.674167E-005	0.0008309	9
	25	69	946.5144	160.2692	-473.4093	1	499.8025	-71.29685	5.963969E-006	-0.00119	8
	26	71	751.7689	175.5025	-586.4546	1	612.152	-73.33965	1.034119E-006	-0.0006637	8
	27	74	597.4265	196.249	-726.3019	1	752.3484	-74.87959	6.437219E-006	-0.0009757	8
	28	76	477.4305	222.2912	-894.7255	1	921.9257	-76.04757	2.569294E-007	0.0006429	8
	29	78	376.6741	259.4161	-1113.011	1	1142.843	-76.87997	2.35179E-007	0.0006421	8
	30	80	298.2954	307.8928	-1377.87	1	1411.851	-77.40386	2.508633E-007	0.0006414	8
	31	83	237.7717	369.9432	-1692.952	1	1732.901	-77.67351	2.516034E-007	0.0006366	8
	32	85	189.0121	452.28	-2082.479	1	2131.027	-77.7466	2.577142E-007	0.000634	8
	33	88	150.2404	560.4682	-2557.361	1	2618.057	-77.63857	2.451467E-007	0.0006426	8
	34	90	119.1737	704.4835	-3143.214	1	3221.194	-77.36716	2.512103E-007	0.000647	8
	35	92	95.0169	890.6839	-3836.744	1	3938.771	-76.93052	2.589867E-007	0.0006462	8
	36	95	75.60484	1143.085	-4693.375	1	4830.57	-76.31195	2.430509E-008	0.0006068	7
	37	98	54.50582	1650.404	-6218.2	1	6433.494	-75.13555	2.639235E-008	0.0006064	7
	38	100	45.95588	2008.529	-7184.39	1	7459.869	-74.38068	2.921064E-008	0.0006234	7
	39	102	37.20238	2573.542	-8559.078	1	8937.613	-73.26503	2.879584E-008	0.0006114	7
	40	105	30.04808	3320.639	-10173.33	1	10701.55	-71.92299	2.964166E-008	0.000612	7
	41	107	23.91582	4379.173	-12193.3	1	12955.84	-70.24446	2.219885E-008	0.0006085	7
	42	110	18.60119	5900.501	-14717.28	1	15856.05	-68.15299	1.94089E-008	0.0006241	7
	43	112	15.02404	7586.276	-17144.11	1	18747.59	-66.13058	2.284653E-008	0.0006147	7
	44	114	12.01923	9817.12	-19893.96	1	22184.35	-63.73494	2.868268E-008	0.000633	7
	45	117	9.450605	12784.76	-23075	1	26380.02	-61.01125	2.289144E-008	0.0006142	7
	46	119	7.512019	16293.85	-26221.5	1	30871.61	-58.14348	2.839035E-008	0.000604	7
	47	122	5.978954	20462.28	-29171.82	1	35632.85	-54.95264	2.791275E-008	0.0006125	7
	48	125	4.734848	25343.54	-32039.85	1	40851.52	-51.65599	-2.550688E-009	0.0006391	6
	49	128	3.75601	30802.65	-34229.54	1	46048.5	-48.01643	6.669167E-009	0.0006809	6
	50	132	3.004808	36472.28	-35850.5	1	51141.81	-44.50742	2.060144E-009	0.0007167	6
	51	135	2.372217	42607.68	-36471.61	1	56085.58	-40.56309	1.287108E-009	0.0006578	6
	52	140	1.878005	47971.48	-34249.84	1	58943.32	-35.52541	1.267208E-009	0.0006617	6
	53	149	1.512097	51739.42	-31676.83	1	60666.21	-31.47654	2.27546E-010	0.0006684	6
	54	159	1.201923	55189.62	-28916.87	1	62306.34	-27.65251	-5.220645E-010	0.0006766	6
	55	172	0.956633	58706.23	-26932.32	1	64589.25	-24.64396	-1.991764E-008	2.077543E-005	6
