EXPLAIN
TAG	EISPOT
TITLE	LABEL	Potentiostatic EIS	Test Identifier
DATE	LABEL	8/22/2020	Date
TIME	LABEL	1:10:44	Time
NOTES	NOTES	1	Notes...
	
PSTAT	PSTAT	REF3000-16137	Potentiostat
VDC	POTEN	0.00000E+000	T	DC Voltage (V)
FREQINIT	QUANT	3.00000E+005	Initial Freq. (Hz)
FREQFINAL	QUANT	1.00000E+000	Final Freq. (Hz)
PTSPERDEC	QUANT	1.00000E+001	Points/decade
VAC	QUANT	5.00000E+001	AC Voltage (mV rms)
AREA	QUANT	1.00000E+000	Sample Area (cm^2)
SPEED	SELECTOR	2	Optimize for:
ZGUESS	QUANT	1.00000E+003	Estimated Z (ohms)
EOC	QUANT	0	Open Circuit (V)
SEQUENCER	TOGGLE	TRUE	Run as Sequence
PSTATMODEL	IQUANT	5	Pstat Model
PSTATSECTION	LABEL	REF3000-16137	Pstat Section
PSTATSERIALNO	LABEL	16137	Pstat Serial Number
CTRLMODE	IQUANT	1	Control Mode
IESTAB	IQUANT	0	I/E Stability
CASPEED	IQUANT	1	Control Amp Speed
CONVENTION	IQUANT	1	Current Convention
ICHRANGE	IQUANT	2	Ich Range
ICHRANGEMODE	TOGGLE	F	Ich Auto Range
ICHOFFSETENABLE	TOGGLE	T	Ich Offset Enable
ICHOFFSET	QUANT	0	Ich Offset (V)
ICHFILTER	IQUANT	3	Ich Filter
VCHRANGE	IQUANT	2	Vch Range
VCHRANGEMODE	TOGGLE	F	Vch Auto Range
VCHOFFSETENABLE	TOGGLE	T	Vch Offset Enable
VCHOFFSET	QUANT	0	Vch Offset (V)
VCHFILTER	IQUANT	3	Vch Filter
ACHRANGE	IQUANT	2	Ach Range
ACHOFFSETENABLE	TOGGLE	F	Ach Offset Enable
ACHOFFSET	QUANT	0	Ach Offset (V)
ACHFILTER	IQUANT	3	Ach Filter
IERANGELOWERLIMIT	IQUANT	2	I/E Range Lower Limit
IERANGEMODE	TOGGLE	F	I/E AutoRange
IERANGE	IQUANT	11	I/E Range
POSFEEDENABLE	TOGGLE	F	Positive Feedback IR Comp
POSFEEDRESISTANCE	QUANT	0	Positive Feedback Resistance (ohm)
ACHSELECT	IQUANT	0	Ach Select
CABLEID	IQUANT	13	Cable ID
DCCALDATE	LABEL	7/31/2020	DC Calibration Date
ACCALDATE	LABEL	7/31/2020	AC Calibration Date
THERMOSELECT	IQUANT	1	Thermo Select
FRAMEWORKVERSION	QUANT	6.33	Framework Version
INSTRUMENTVERSION	LABEL	3.50	Instrument Version
COMPLIANCEVOLTAGE	IQUANT	0	Compliance Voltage
ZCURVE	TABLE
	Pt	Time	Freq	Zreal	Zimag	Zsig	Zmod	Zphz	Idc	Vdc	IERange
	#	s	Hz	ohm	ohm	V	ohm	°	A	V	#
	0	14	300046.9	1841.208	-843.7542	1	2025.331	-24.62015	2.572342E-005	0.0008624	9
	1	35	238359.4	1986.228	-789.9164	1	2137.539	-21.68755	2.586465E-005	-0.0015471	9
	2	58	189328.1	2094.828	-686.4617	1	2204.435	-18.14364	2.547454E-005	0.0009428	9
	3	64	150421.9	2200.854	-573.7252	1	2274.405	-14.61087	8.397507E-005	-0.0032756	9
	4	70	119484.4	2274.575	-440.4046	1	2316.819	-10.95805	-6.990485E-005	0.0328944	8
	5	78	94921.88	2333.25	-365.2942	1	2361.673	-8.898009	2.116096E-005	-0.0028519	8
	6	82	75421.88	2372.962	-327.7687	1	2395.492	-7.864299	2.099732E-005	-0.0028167	8
	7	87	59859.37	2418.279	-283.6507	1	2434.857	-6.689909	-2.328353E-005	0.0069958	8
	8	91	47578.12	2445.084	-257.7795	1	2458.635	-6.018328	2.119931E-005	-0.0028796	8
	9	99	37828.12	2485.831	-232.513	1	2496.681	-5.343632	-1.02151E-006	0.0067377	8
	10	104	30046.88	2527.957	-248.6151	1	2540.153	-5.616763	2.039072E-005	-4.611882E-005	9
	11	112	23859.38	2557.434	-219.5796	1	2566.843	-4.907343	-9.246231E-006	-0.0015054	8
	12	116	18984.38	2590.286	-218.7594	1	2599.508	-4.827387	1.36517E-005	-0.0080729	8
	13	121	15046.87	2632.708	-232.3439	1	2642.941	-5.043447	2.988853E-005	-0.0007234	9
	14	126	11953.13	2670.153	-243.0589	1	2681.193	-5.20119	2.051063E-005	-5.27152E-005	9
	15	132	9515.62	2699.25	-255.0923	1	2711.277	-5.398697	2.363178E-005	-0.004862	8
	16	137	7546.875	2738.43	-280.0311	1	2752.711	-5.838755	-9.388164E-006	-0.0015341	8
	17	142	5928.309	2800.042	-316.9511	1	2817.923	-6.458115	-2.690714E-005	0.0009194	9
	18	147	4733.456	2823.349	-358.6223	1	2846.034	-7.238955	-1.902946E-005	0.0029802	8
	19	153	3796.875	2886.493	-401.2429	1	2914.247	-7.913805	2.471815E-005	-0.006884	8
	20	158	2987.132	2945.858	-448.7987	1	2979.849	-8.662351	-2.378796E-005	0.0088456	8
	21	163	2390.625	3064.261	-521.7404	1	3108.362	-9.66287	6.708085E-006	-0.0067021	8
	22	169	1884.191	3055.873	-625.5088	1	3119.234	-11.56812	-1.89875E-005	0.0029661	8
	23	174	1516.544	3169.993	-690.6168	1	3244.35	-12.29045	-1.185723E-005	0.0010319	9
	24	179	1193.986	3260.063	-802.2255	1	3357.317	-13.82448	-2.376704E-005	0.0071088	8
	25	185	946.5144	3324.889	-975.557	1	3465.054	-16.35223	1.985751E-005	-0.0086748	8
	26	189	751.7689	3509.483	-1113.111	1	3681.778	-17.59759	-9.228067E-006	-0.0001912	9
	27	193	597.4265	3568.041	-1340.395	1	3811.505	-20.58954	2.493177E-005	-0.0068563	8
	28	196	477.4305	3616.425	-1506.269	1	3917.572	-22.61211	-3.431868E-007	0.0006251	8
	29	200	376.6741	3722.547	-1785.224	1	4128.483	-25.621	-7.873571E-008	0.000655	7
	30	202	298.2954	3810.14	-2130.136	1	4365.163	-29.20826	-7.924274E-008	0.0006154	7
	31	204	237.7717	3895.112	-2552.851	1	4657.139	-33.24077	-7.487639E-008	0.000573	7
	32	207	189.0121	3980.816	-3091.966	1	5040.55	-37.83708	-7.832234E-008	0.0006189	7
	33	209	150.2404	4072.082	-3773.324	1	5551.561	-42.81919	-8.334518E-008	0.0006768	7
	34	212	119.1737	4175.904	-4640.007	1	6242.422	-48.01348	-7.210453E-008	0.0005728	7
	35	214	95.0169	4292.617	-5704.344	1	7139.055	-53.03791	-7.800508E-008	0.0006111	7
	36	217	75.60484	4436.797	-7045.779	1	8326.354	-57.80097	-7.958403E-008	0.000651	7
	37	219	54.50582	4702.099	-9559.3	1	10653.17	-63.80802	-7.988195E-008	0.0006449	7
	38	222	45.95588	4889.608	-11220.05	1	12239.19	-66.4528	-7.19773E-008	0.0005707	7
	39	224	37.20238	5167.897	-13678.68	1	14622.36	-69.3031	-8.211733E-008	0.0006689	7
	40	226	30.04808	5521.409	-16720.12	1	17608.19	-71.72546	-7.852965E-008	0.0006147	7
	41	229	23.91582	5994.37	-20705.18	1	21555.44	-73.85371	-7.358909E-008	0.0005681	7
	42	231	18.60119	6676.631	-26196.75	1	27034.18	-75.70171	-7.309846E-008	0.0006032	7
	43	233	15.02404	7403.165	-31984.82	1	32830.41	-76.96789	-7.775242E-008	0.0006497	7
	44	236	12.01923	8384.511	-39391.94	1	40274.37	-77.984	-7.701461E-008	0.0006531	7
	45	238	9.450605	9773.17	-49337.7	1	50296.36	-78.79548	-7.9937E-009	0.0006866	6
	46	241	7.512019	11511.46	-61094.14	1	62169.18	-79.32933	-8.096151E-009	0.0006999	6
	47	243	5.978954	13730.6	-75485.01	1	76723.63	-79.6907	-7.425159E-009	0.0006141	6
	48	246	4.734848	16775.41	-93696.18	1	95186.1	-79.84929	-7.905776E-009	0.0007023	6
	49	250	3.75601	20887.85	-116024.3	1	117889.6	-79.79436	-8.805213E-009	0.000682	6
	50	253	3.004808	26228.78	-142299.1	1	144696.2	-79.55638	-7.739708E-009	0.0006449	6
	51	258	2.372217	33979.45	-176569.5	1	179809.3	-79.10703	-8.298795E-009	0.0007283	6
	52	262	1.878005	43991.32	-217902.2	1	222298.5	-78.58622	-8.827384E-009	0.000633	6
	53	267	1.512097	56333.21	-263386.6	1	269343.5	-77.92745	-8.440833E-009	0.000654	6
	54	272	1.201923	74007.69	-322829.1	1	331203.5	-77.0882	-8.565093E-009	0.0006295	6
	55	279	0.956633	96744.6	-392732.4	1	404472.8	-76.16144	-8.880275E-009	1.685819E-005	6
