EXPLAIN
TAG	EISPOT
TITLE	LABEL	Potentiostatic EIS	Test Identifier
DATE	LABEL	8/22/2020	Date
TIME	LABEL	1:02:07	Time
NOTES	NOTES	1	Notes...
	
PSTAT	PSTAT	REF3000-16137	Potentiostat
VDC	POTEN	0.00000E+000	T	DC Voltage (V)
FREQINIT	QUANT	3.00000E+005	Initial Freq. (Hz)
FREQFINAL	QUANT	1.00000E+000	Final Freq. (Hz)
PTSPERDEC	QUANT	1.00000E+001	Points/decade
VAC	QUANT	5.00000E+001	AC Voltage (mV rms)
AREA	QUANT	1.00000E+000	Sample Area (cm^2)
SPEED	SELECTOR	2	Optimize for:
ZGUESS	QUANT	1.00000E+003	Estimated Z (ohms)
EOC	QUANT	0	Open Circuit (V)
SEQUENCER	TOGGLE	TRUE	Run as Sequence
PSTATMODEL	IQUANT	5	Pstat Model
PSTATSECTION	LABEL	REF3000-16137	Pstat Section
PSTATSERIALNO	LABEL	16137	Pstat Serial Number
CTRLMODE	IQUANT	1	Control Mode
IESTAB	IQUANT	0	I/E Stability
CASPEED	IQUANT	1	Control Amp Speed
CONVENTION	IQUANT	1	Current Convention
ICHRANGE	IQUANT	2	Ich Range
ICHRANGEMODE	TOGGLE	F	Ich Auto Range
ICHOFFSETENABLE	TOGGLE	T	Ich Offset Enable
ICHOFFSET	QUANT	0	Ich Offset (V)
ICHFILTER	IQUANT	3	Ich Filter
VCHRANGE	IQUANT	2	Vch Range
VCHRANGEMODE	TOGGLE	F	Vch Auto Range
VCHOFFSETENABLE	TOGGLE	T	Vch Offset Enable
VCHOFFSET	QUANT	0	Vch Offset (V)
VCHFILTER	IQUANT	3	Vch Filter
ACHRANGE	IQUANT	2	Ach Range
ACHOFFSETENABLE	TOGGLE	F	Ach Offset Enable
ACHOFFSET	QUANT	0	Ach Offset (V)
ACHFILTER	IQUANT	3	Ach Filter
IERANGELOWERLIMIT	IQUANT	2	I/E Range Lower Limit
IERANGEMODE	TOGGLE	F	I/E AutoRange
IERANGE	IQUANT	11	I/E Range
POSFEEDENABLE	TOGGLE	F	Positive Feedback IR Comp
POSFEEDRESISTANCE	QUANT	0	Positive Feedback Resistance (ohm)
ACHSELECT	IQUANT	0	Ach Select
CABLEID	IQUANT	13	Cable ID
DCCALDATE	LABEL	7/31/2020	DC Calibration Date
ACCALDATE	LABEL	7/31/2020	AC Calibration Date
THERMOSELECT	IQUANT	1	Thermo Select
FRAMEWORKVERSION	QUANT	6.33	Framework Version
INSTRUMENTVERSION	LABEL	3.50	Instrument Version
COMPLIANCEVOLTAGE	IQUANT	0	Compliance Voltage
ZCURVE	TABLE
	Pt	Time	Freq	Zreal	Zimag	Zsig	Zmod	Zphz	Idc	Vdc	IERange
	#	s	Hz	ohm	ohm	V	ohm	°	A	V	#
	0	29	300046.9	1069.735	-256.7567	1	1100.117	-13.49676	-1.937818E-005	0.001002	9
	1	44	238359.4	1117.62	-220.615	1	1139.187	-11.16646	2.410455E-005	-0.0019724	9
	2	63	189328.1	1148.862	-198.6702	1	1165.913	-9.81101	-0.0001067	0.0037463	9
	3	74	150421.9	1176.865	-171.5309	1	1189.3	-8.292605	2.657945E-005	0.0009816	9
	4	83	119484.4	1203.724	-109.5798	1	1208.702	-5.201523	3.258708E-005	-0.0160232	8
	5	89	94921.88	1219.556	-98.604	1	1223.536	-4.622446	-1.994343E-006	-0.0034549	8
	6	94	75421.88	1225.599	-94.19669	1	1229.214	-4.394979	-8.360414E-006	0.0079735	8
	7	96	59859.37	1238.391	-93.51065	1	1241.917	-4.318198	2.056976E-005	-0.0060767	8
	8	99	47578.12	1247.973	-92.20519	1	1251.374	-4.225563	2.01457E-005	-0.0072438	8
	9	103	37828.12	1261.888	-91.83486	1	1265.225	-4.162405	-1.923553E-005	0.0047105	8
	10	107	30046.88	1275.065	-97.9798	1	1278.824	-4.394145	1.186373E-005	-0.0070858	8
	11	110	23859.38	1287.191	-105.0388	1	1291.47	-4.665177	-1.706041E-005	0.0026651	8
	12	113	18984.38	1301.293	-115.5337	1	1306.411	-5.073634	-1.682803E-005	0.0028788	8
	13	116	15046.87	1311.618	-129.3281	1	1317.979	-5.631274	-8.38368E-006	-0.00132	8
	14	119	11953.13	1332.065	-145.9242	1	1340.034	-6.25167	2.053626E-005	-0.0070239	8
	15	122	9515.62	1350.391	-162.1445	1	1360.091	-6.846854	1.548708E-005	-0.0002197	8
	16	125	7546.875	1369.75	-187.0542	1	1382.463	-7.776257	-1.756042E-005	0.002994	8
	17	129	5928.309	1399.759	-216.8289	1	1416.453	-8.805387	-2.158393E-006	-0.0035754	8
	18	133	4733.456	1422.092	-249.9014	1	1443.882	-9.96672	2.134675E-005	-0.0044283	8
	19	137	3796.875	1451.105	-287.3704	1	1479.287	-11.20166	2.035016E-005	-0.0072995	8
	20	140	2987.132	1486.371	-336.0687	1	1523.89	-12.74036	-2.182446E-006	-0.0035792	8
	21	144	2390.625	1525.93	-388.8749	1	1574.702	-14.29719	2.140536E-005	-0.0044411	8
	22	148	1884.191	1568.914	-455.1245	1	1633.594	-16.17686	2.051006E-005	-0.0071925	8
	23	152	1516.544	1603.752	-524.484	1	1687.336	-18.10959	7.914677E-006	0.0030095	8
	24	156	1193.986	1652.62	-615.7563	1	1763.607	-20.43509	-1.896703E-005	0.0089237	8
	25	161	946.5144	1694.934	-724.1318	1	1843.141	-23.13378	2.046792E-005	-0.0072082	8
	26	163	751.7689	1727.882	-863.4846	1	1931.626	-26.55295	-7.574839E-007	0.0060944	8
	27	166	597.4265	1796.884	-1009.04	1	2060.813	-29.31638	1.504404E-005	-0.0001844	8
	28	169	477.4305	1813.564	-1217.734	1	2184.466	-33.87975	-2.783837E-007	0.0006423	8
	29	171	376.6741	1853.13	-1487.03	1	2375.995	-38.74504	-3.065842E-007	0.0006489	8
	30	173	298.2954	1895.134	-1824.592	1	2630.716	-43.91356	-2.743063E-007	0.0006279	8
	31	176	237.7717	1941.629	-2238.174	1	2962.996	-49.05816	-2.956323E-007	0.0006294	8
	32	178	189.0121	1997.187	-2763.126	1	3409.343	-54.1406	-3.173759E-007	0.0006439	8
	33	180	150.2404	2065.491	-3419.315	1	3994.742	-58.86526	-2.965249E-007	0.0006319	8
	34	183	119.1737	2158.769	-4255.274	1	4771.545	-63.10059	-5.727953E-008	0.0005756	7
	35	185	95.0169	2269.561	-5264.37	1	5732.757	-66.67829	-6.212116E-008	0.0006043	7
	36	188	75.60484	2412.454	-6525.684	1	6957.333	-69.71135	-5.730353E-008	0.0006082	7
	37	190	54.50582	2688.08	-8870.25	1	9268.608	-73.14086	-6.510805E-008	0.0006308	7
	38	193	45.95588	2876.353	-10404.66	1	10794.92	-74.54662	-6.514816E-008	0.0006593	7
	39	195	37.20238	3162.579	-12677.58	1	13066.09	-75.99274	-5.70373E-008	0.0006055	7
	40	197	30.04808	3524.137	-15473.42	1	15869.67	-77.1695	-5.796766E-008	0.000608	7
	41	200	23.91582	4008.46	-19144.26	1	19559.41	-78.17415	-5.846509E-008	0.0006168	7
	42	202	18.60119	4705.456	-24168.78	1	24622.57	-78.98282	-6.388719E-008	0.00065	7
	43	205	15.02404	5498.587	-29509.41	1	30017.32	-79.44493	-6.481196E-008	0.0006348	7
	44	207	12.01923	6568.078	-36273.09	1	36862.94	-79.73649	-5.766207E-008	0.0005787	7
	45	209	9.450605	8097.352	-45352.95	1	46070.13	-79.87703	-5.528603E-009	0.0006414	6
	46	212	7.512019	10105.33	-56033.45	1	56937.37	-79.77691	-5.930035E-009	0.0006867	6
	47	215	5.978954	12732.21	-69026.78	1	70191.21	-79.54908	-5.346887E-009	0.0006612	6
	48	218	4.734848	16417.91	-85391.13	1	86955.13	-79.11671	-7.343945E-009	0.0006536	6
	49	221	3.75601	21389.89	-105069.2	1	107224.4	-78.49303	-6.052863E-009	0.0006362	6
	50	224	3.004808	27722.63	-127905	1	130874.9	-77.77065	-6.965077E-009	0.0006608	6
	51	229	2.372217	36663.11	-156836.5	1	161064.8	-76.84245	-6.614759E-009	0.0006748	6
	52	233	1.878005	48676.39	-191665.4	1	197749.9	-75.75012	-6.286816E-009	0.0006391	6
	53	238	1.512097	62677.08	-229445.1	1	237851.8	-74.72137	-6.795448E-009	0.0007578	6
	54	243	1.201923	81838.99	-276580.2	1	288434.1	-73.51672	-6.43002E-009	0.0006304	6
	55	249	0.956633	105289.5	-331408.3	1	347731.8	-72.37478	-7.53209E-009	8.975692E-006	6
