EXPLAIN
TAG	EISPOT
TITLE	LABEL	Potentiostatic EIS	Test Identifier
DATE	LABEL	8/22/2020	Date
TIME	LABEL	0:01:03	Time
NOTES	NOTES	1	Notes...
	
PSTAT	PSTAT	REF3000-16137	Potentiostat
VDC	POTEN	0.00000E+000	T	DC Voltage (V)
FREQINIT	QUANT	3.00000E+005	Initial Freq. (Hz)
FREQFINAL	QUANT	1.00000E+000	Final Freq. (Hz)
PTSPERDEC	QUANT	1.00000E+001	Points/decade
VAC	QUANT	5.00000E+001	AC Voltage (mV rms)
AREA	QUANT	1.00000E+000	Sample Area (cm^2)
SPEED	SELECTOR	2	Optimize for:
ZGUESS	QUANT	1.00000E+003	Estimated Z (ohms)
EOC	QUANT	0	Open Circuit (V)
SEQUENCER	TOGGLE	TRUE	Run as Sequence
PSTATMODEL	IQUANT	5	Pstat Model
PSTATSECTION	LABEL	REF3000-16137	Pstat Section
PSTATSERIALNO	LABEL	16137	Pstat Serial Number
CTRLMODE	IQUANT	1	Control Mode
IESTAB	IQUANT	0	I/E Stability
CASPEED	IQUANT	1	Control Amp Speed
CONVENTION	IQUANT	1	Current Convention
ICHRANGE	IQUANT	2	Ich Range
ICHRANGEMODE	TOGGLE	F	Ich Auto Range
ICHOFFSETENABLE	TOGGLE	T	Ich Offset Enable
ICHOFFSET	QUANT	0	Ich Offset (V)
ICHFILTER	IQUANT	3	Ich Filter
VCHRANGE	IQUANT	2	Vch Range
VCHRANGEMODE	TOGGLE	F	Vch Auto Range
VCHOFFSETENABLE	TOGGLE	T	Vch Offset Enable
VCHOFFSET	QUANT	0	Vch Offset (V)
VCHFILTER	IQUANT	3	Vch Filter
ACHRANGE	IQUANT	2	Ach Range
ACHOFFSETENABLE	TOGGLE	F	Ach Offset Enable
ACHOFFSET	QUANT	0	Ach Offset (V)
ACHFILTER	IQUANT	2	Ach Filter
IERANGELOWERLIMIT	IQUANT	2	I/E Range Lower Limit
IERANGEMODE	TOGGLE	F	I/E AutoRange
IERANGE	IQUANT	11	I/E Range
POSFEEDENABLE	TOGGLE	F	Positive Feedback IR Comp
POSFEEDRESISTANCE	QUANT	0	Positive Feedback Resistance (ohm)
ACHSELECT	IQUANT	0	Ach Select
CABLEID	IQUANT	13	Cable ID
DCCALDATE	LABEL	7/31/2020	DC Calibration Date
ACCALDATE	LABEL	7/31/2020	AC Calibration Date
THERMOSELECT	IQUANT	1	Thermo Select
FRAMEWORKVERSION	QUANT	6.33	Framework Version
INSTRUMENTVERSION	LABEL	3.50	Instrument Version
COMPLIANCEVOLTAGE	IQUANT	0	Compliance Voltage
ZCURVE	TABLE
	Pt	Time	Freq	Zreal	Zimag	Zsig	Zmod	Zphz	Idc	Vdc	IERange
	#	s	Hz	ohm	ohm	V	ohm	°	A	V	#
	0	6	300046.9	86.77464	-4.561399	1	86.89444	-3.009043	4.481873E-006	-0.0016088	9
	1	10	238359.4	87.20586	-5.703149	1	87.39215	-3.74174	6.797132E-005	-0.0024625	9
	2	13	189328.1	87.74242	-7.295386	1	88.04519	-4.752953	8.797101E-007	-0.0012981	9
	3	15	150421.9	88.7552	-8.853523	1	89.19569	-5.696533	-7.063146E-005	0.0019743	9
	4	18	119484.4	89.6826	-10.55637	1	90.30175	-6.71329	-1.476511E-005	-0.0005835	9
	5	20	94921.88	90.72036	-12.21744	1	91.53933	-7.669958	1.170885E-005	7.17041E-005	9
	6	23	75421.88	91.91718	-14.44763	1	93.0457	-8.932721	-1.701971E-005	0.0002527	9
	7	26	59859.37	93.42097	-17.06033	1	94.96596	-10.34919	-4.68794E-006	0.0006865	9
	8	28	47578.12	95.156	-19.92776	1	97.2202	-11.82806	1.233657E-005	-0.0006156	9
	9	31	37828.12	97.054	-23.1784	1	99.7833	-13.43177	2.202731E-005	-0.0006608	9
	10	33	30046.88	99.2318	-26.83291	1	102.7957	-15.13128	1.200047E-005	-0.0006095	9
	11	36	23859.38	101.534	-31.25641	1	106.2362	-17.11055	2.059192E-005	-0.0004451	9
	12	38	18984.38	103.9739	-36.02129	1	110.0368	-19.10842	2.230951E-005	-0.0003157	9
	13	40	15046.87	106.4299	-41.9687	1	114.4059	-21.5209	-2.631742E-006	-0.0002404	9
	14	43	11953.13	108.9166	-49.14304	1	119.4901	-24.28483	1.725758E-005	-0.0006706	9
	15	45	9515.62	111.1014	-58.0319	1	125.3444	-27.57953	-1.069812E-005	0.0008097	9
	16	47	7546.875	113.272	-69.42223	1	132.8533	-31.50332	-9.773894E-006	-3.462854E-006	9
	17	49	5928.309	115.5284	-84.59954	1	143.1918	-36.2147	1.162046E-005	0.000161	9
	18	52	4733.456	117.9977	-102.3788	1	156.2206	-40.94601	2.138975E-005	-0.0006458	9
	19	54	3796.875	120.4717	-124.3897	1	173.1653	-45.91669	2.245895E-005	-0.0002421	9
	20	56	2987.132	123.9133	-154.3061	1	197.9012	-51.23429	-1.474286E-005	0.0002037	9
	21	59	2390.625	127.4864	-189.4646	1	228.3629	-56.06429	2.204508E-005	-0.0002436	9
	22	61	1884.191	131.9556	-236.4288	1	270.7598	-60.83325	-1.138728E-005	0.000782	9
	23	63	1516.544	138.8586	-288.9157	1	320.5526	-64.33014	2.259267E-005	-0.0002867	9
	24	66	1193.986	148.4176	-361.3757	1	390.6663	-67.67196	4.803526E-006	-0.0004561	9
	25	68	946.5144	157.6537	-447.2638	1	474.2358	-70.58321	1.015945E-006	-0.0006838	8
	26	71	751.7689	173.0862	-554.1602	1	580.5621	-72.65435	-2.767451E-006	0.0005974	8
	27	73	597.4265	192.0311	-686.2529	1	712.6142	-74.36702	4.868056E-006	4.921393E-005	8
	28	75	477.4305	217.2443	-843.7684	1	871.2866	-75.5617	2.156739E-007	0.000683	8
	29	77	376.6741	252.2661	-1049.462	1	1079.356	-76.48386	2.351786E-007	0.0006454	8
	30	80	298.2954	298.02	-1299.231	1	1332.973	-77.08087	2.490318E-007	0.0006475	8
	31	82	237.7717	356.5484	-1596.205	1	1635.542	-77.4084	2.519385E-007	0.0006454	8
	32	85	189.0121	434.0822	-1963.195	1	2010.612	-77.53193	2.403329E-007	0.0006502	8
	33	87	150.2404	535.6175	-2410.303	1	2469.098	-77.47131	2.503221E-007	0.0006501	8
	34	89	119.1737	670.5689	-2961.555	1	3036.523	-77.24195	2.710036E-007	0.000647	8
	35	92	95.0169	842.4202	-3613.586	1	3710.482	-76.87726	2.659382E-007	0.00064	8
	36	94	75.60484	1072.313	-4418.776	1	4547.025	-76.3596	2.238483E-008	0.0006168	7
	37	97	54.50582	1528.751	-5853.845	1	6050.172	-75.36391	2.009429E-008	0.0006239	7
	38	99	45.95588	1848.53	-6767.767	1	7015.678	-74.72301	3.035991E-008	0.00062	7
	39	102	37.20238	2345.057	-8072.231	1	8405.963	-73.80093	2.299969E-008	0.0006264	7
	40	104	30.04808	2993.957	-9610.63	1	10066.18	-72.69686	2.492856E-008	0.0006135	7
	41	106	23.91582	3910.565	-11561.8	1	12205.23	-71.31284	1.928781E-008	0.0006156	7
	42	109	18.60119	5219.382	-14042.41	1	14981.03	-69.61055	2.111992E-008	0.0006272	7
	43	111	15.02404	6665.533	-16464.03	1	17762.14	-67.95923	2.019669E-008	0.0006158	7
	44	113	12.01923	8584.17	-19290.51	1	21114.25	-66.0112	2.256268E-008	0.000626	7
	45	116	9.450605	11194.71	-22679.95	1	25292.32	-63.72928	1.918135E-008	0.0006309	7
	46	118	7.512019	14362.51	-26213.44	1	29890.24	-61.28139	1.849701E-008	0.0006334	7
	47	121	5.978954	18165.94	-29828.2	1	34924.53	-58.6578	1.60472E-008	0.0006327	7
	48	124	4.734848	22908.47	-33516.54	1	40597.5	-55.6475	1.677119E-008	0.0005998	7
	49	127	3.75601	28497.22	-36876.36	1	46604.26	-52.30396	-5.549482E-009	0.0006686	6
	50	131	3.004808	34656.93	-38846.2	1	52058.91	-48.26201	-6.320422E-009	0.0006261	6
	51	137	2.372217	41602.66	-40244.82	1	57882.87	-44.04956	-1.177955E-008	0.0005961	6
	52	145	1.878005	48369.05	-39547.26	1	62478.4	-39.26995	-1.239999E-008	0.0006691	6
	53	154	1.512097	54183.18	-38387.43	1	66403.41	-35.31662	-1.255741E-008	0.0005711	6
	54	164	1.201923	60107.31	-37186.94	1	70680.67	-31.74407	-1.386614E-008	0.0006865	6
	55	177	0.956633	65380.42	-35091.94	1	74202.72	-28.224	-2.634419E-008	2.220373E-005	6
