EXPLAIN
TAG	EISPOT
TITLE	LABEL	Potentiostatic EIS	Test Identifier
DATE	LABEL	8/22/2020	Date
TIME	LABEL	2:46:34	Time
NOTES	NOTES	1	Notes...
	
PSTAT	PSTAT	REF3000-16137	Potentiostat
VDC	POTEN	0.00000E+000	T	DC Voltage (V)
FREQINIT	QUANT	3.00000E+005	Initial Freq. (Hz)
FREQFINAL	QUANT	1.00000E+000	Final Freq. (Hz)
PTSPERDEC	QUANT	1.00000E+001	Points/decade
VAC	QUANT	5.00000E+001	AC Voltage (mV rms)
AREA	QUANT	1.00000E+000	Sample Area (cm^2)
SPEED	SELECTOR	2	Optimize for:
ZGUESS	QUANT	1.00000E+003	Estimated Z (ohms)
EOC	QUANT	0	Open Circuit (V)
SEQUENCER	TOGGLE	TRUE	Run as Sequence
PSTATMODEL	IQUANT	5	Pstat Model
PSTATSECTION	LABEL	REF3000-16137	Pstat Section
PSTATSERIALNO	LABEL	16137	Pstat Serial Number
CTRLMODE	IQUANT	1	Control Mode
IESTAB	IQUANT	0	I/E Stability
CASPEED	IQUANT	1	Control Amp Speed
CONVENTION	IQUANT	1	Current Convention
ICHRANGE	IQUANT	2	Ich Range
ICHRANGEMODE	TOGGLE	F	Ich Auto Range
ICHOFFSETENABLE	TOGGLE	T	Ich Offset Enable
ICHOFFSET	QUANT	0	Ich Offset (V)
ICHFILTER	IQUANT	3	Ich Filter
VCHRANGE	IQUANT	2	Vch Range
VCHRANGEMODE	TOGGLE	F	Vch Auto Range
VCHOFFSETENABLE	TOGGLE	T	Vch Offset Enable
VCHOFFSET	QUANT	0	Vch Offset (V)
VCHFILTER	IQUANT	3	Vch Filter
ACHRANGE	IQUANT	2	Ach Range
ACHOFFSETENABLE	TOGGLE	F	Ach Offset Enable
ACHOFFSET	QUANT	0	Ach Offset (V)
ACHFILTER	IQUANT	3	Ach Filter
IERANGELOWERLIMIT	IQUANT	2	I/E Range Lower Limit
IERANGEMODE	TOGGLE	F	I/E AutoRange
IERANGE	IQUANT	11	I/E Range
POSFEEDENABLE	TOGGLE	F	Positive Feedback IR Comp
POSFEEDRESISTANCE	QUANT	0	Positive Feedback Resistance (ohm)
ACHSELECT	IQUANT	0	Ach Select
CABLEID	IQUANT	13	Cable ID
DCCALDATE	LABEL	7/31/2020	DC Calibration Date
ACCALDATE	LABEL	7/31/2020	AC Calibration Date
THERMOSELECT	IQUANT	1	Thermo Select
FRAMEWORKVERSION	QUANT	6.33	Framework Version
INSTRUMENTVERSION	LABEL	3.50	Instrument Version
COMPLIANCEVOLTAGE	IQUANT	0	Compliance Voltage
ZCURVE	TABLE
	Pt	Time	Freq	Zreal	Zimag	Zsig	Zmod	Zphz	Idc	Vdc	IERange
	#	s	Hz	ohm	ohm	V	ohm	°	A	V	#
	0	14	300046.9	-121.2612	-4758.96	1	4760.504	-91.45962	3.097688E-005	0.0009927	9
	1	30	238359.4	77.01656	-6016.21	1	6016.703	-89.26657	9.038964E-005	-0.0034931	9
	2	47	189328.1	114.9413	-7516.072	1	7516.951	-89.12386	8.838381E-005	-0.0025604	9
	3	55	150421.9	572.9811	-9326.211	1	9343.796	-86.4843	-2.851942E-005	-0.0010421	9
	4	65	119484.4	432.9986	-11652.61	1	11660.65	-87.87193	-6.060087E-005	0.0067472	8
	5	73	94921.88	679.4384	-14315.52	1	14331.64	-87.28268	1.744957E-005	0.000373	8
	6	81	75421.88	766.283	-18113.04	1	18129.24	-87.57751	-2.720466E-005	0.009787	8
	7	90	59859.37	769.5618	-23694.46	1	23706.96	-88.13977	-9.40957E-006	-0.0022686	8
	8	99	47578.12	4201.757	-29978.86	1	30271.88	-82.02155	-6.834313E-006	0.012171	7
	9	106	37828.12	867.361	-35938.86	1	35949.32	-88.61747	2.64664E-005	-0.0090864	8
	10	115	30046.88	648.3669	-44167.12	1	44171.88	-89.15897	-1.608449E-005	0.0005808	8
	11	124	23859.38	1959.278	-56212.88	1	56247.02	-88.00378	1.74245E-005	0.0001156	8
	12	132	18984.38	5026.745	-71341.18	1	71518.05	-85.96957	-6.667525E-006	0.0262537	7
	13	140	15046.87	4852.016	-89939.95	1	90070.73	-86.91204	1.331855E-006	-0.0202373	7
	14	145	11953.13	9478.385	-111350.9	1	111753.6	-85.13461	6.689535E-006	-0.0101765	7
	15	151	9515.62	5022.214	-143312.8	1	143400.8	-87.99297	5.204108E-006	-0.0272292	7
	16	156	7546.875	5207.611	-176183.2	1	176260.2	-88.30695	-1.109279E-006	-0.0135422	7
	17	162	5928.309	10346.74	-232137.5	1	232368	-87.44792	4.991482E-006	-0.0007021	7
	18	168	4733.456	-41981.77	-277905.5	1	281058.6	-98.5904	8.187134E-006	-0.0078305	8
	19	176	3796.875	20175.6	-319606.7	1	320242.8	-86.38792	-1.778992E-006	0.0230076	7
	20	183	2987.132	4510.085	-558294.3	1	558312.4	-89.53716	-1.097723E-006	-0.0136164	7
	21	189	2390.625	90566.7	-546401.6	1	553856.6	-80.58872	-7.655161E-007	0.0235916	6
	22	195	1884.191	298367.4	-641019.1	1	707056.3	-65.04	-6.820405E-006	0.0121189	7
	23	201	1516.544	53185.06	-754752.9	1	756624.4	-85.96921	3.550575E-006	-0.0250084	7
	24	208	1193.986	435667	-578401.7	1	724123.1	-53.012	-6.605977E-006	0.0262217	7
	25	215	946.5144	54247.03	349859.5	1	354040.1	81.18626	-1.429571E-006	-0.0050414	8
	26	221	751.7689	481051	-1250773	1	1340091	-68.96311	-2.883095E-007	-0.0072859	6
	27	225	597.4265	853739.8	-1065711	1	1365508	-51.30183	6.117341E-007	-0.0282725	6
	28	230	477.4305	1156727	-1039906	1	1555449	-41.95578	-9.893638E-009	0.0006238	6
	29	235	376.6741	1466187	-844012.4	1	1691763	-29.92693	-1.028873E-009	0.0006119	5
	30	238	298.2954	1526975	-723861.9	1	1689861	-25.36327	-1.033982E-009	0.0005934	5
	31	240	237.7717	1551732	-619421.1	1	1670795	-21.76092	-1.138343E-009	0.0006846	5
	32	243	189.0121	1526326	-519638.3	1	1612357	-18.80116	-1.093136E-009	0.0006794	5
	33	246	150.2404	1485654	-448833.1	1	1551973	-16.81017	-1.160696E-009	0.0007206	5
	34	249	119.1737	1359556	-418595.3	1	1422538	-17.11313	-1.028584E-009	0.0006029	5
	35	251	95.0169	1382261	-339783.5	1	1423410	-13.81047	-1.080405E-009	0.0005921	5
	36	254	75.60484	1323404	-316350.9	1	1360689	-13.4439	-1.077286E-009	0.0006665	5
	37	257	54.50582	1288574	-308632.8	1	1325019	-13.46946	-1.061492E-009	0.0006784	5
	38	260	45.95588	1214737	-291921.1	1	1249321	-13.51287	-1.189642E-009	0.0005962	5
	39	262	37.20238	1173966	-291417.9	1	1209595	-13.94096	-1.001565E-009	0.0006225	5
	40	265	30.04808	1126325	-286582.2	1	1162212	-14.27543	-1.064038E-009	0.0006185	5
	41	267	23.91582	1085350	-287091.7	1	1122678	-14.81628	-1.148239E-009	0.0005882	5
	42	270	18.60119	1056057	-290428.3	1	1095264	-15.3769	-1.505564E-009	0.0005993	5
	43	273	15.02404	1028820	-296966	1	1070821	-16.10064	-1.014322E-009	0.0006889	5
	44	275	12.01923	1000783	-301932.9	1	1045338	-16.78838	-1.20471E-009	0.000682	5
	45	278	9.450605	975002	-309896	1	1023066	-17.63241	-6.719801E-010	0.0006567	5
	46	280	7.512019	945308.5	-320814.1	1	998263	-18.74593	-9.961336E-010	0.0006439	5
	47	283	5.978954	899346.8	-327623.3	1	957163	-20.01619	-1.11916E-009	0.0006505	5
	48	287	4.734848	855224.1	-336521	1	919051	-21.47907	-7.925458E-010	0.0007106	5
	49	291	3.75601	806230.8	-341750	1	875671.9	-22.97141	-1.299378E-009	0.0006952	5
	50	297	3.004808	735279.1	-338682.4	1	809531.4	-24.73163	-9.310124E-010	0.0006313	5
	51	303	2.372217	685444.5	-341456.8	1	765785.1	-26.48037	-1.419007E-009	0.0005668	5
	52	307	1.878005	644301.9	-357715.3	1	736943.2	-29.03896	-1.084092E-009	0.0006551	5
	53	312	1.512097	590987.4	-379402.3	1	702290.7	-32.69966	-1.086072E-009	0.00056	5
	54	317	1.201923	534087	-419299.1	1	679014.5	-38.13462	-1.540129E-009	0.0006731	5
	55	323	0.956633	483275.6	-484776.2	1	684516.8	-45.08881	-1.593872E-009	-1.770448E-006	5
