EXPLAIN
TAG	EISPOT
TITLE	LABEL	Potentiostatic EIS	Test Identifier
DATE	LABEL	8/22/2020	Date
TIME	LABEL	3:41:25	Time
NOTES	NOTES	1	Notes...
	
PSTAT	PSTAT	REF3000-16137	Potentiostat
VDC	POTEN	0.00000E+000	T	DC Voltage (V)
FREQINIT	QUANT	3.00000E+005	Initial Freq. (Hz)
FREQFINAL	QUANT	1.00000E+000	Final Freq. (Hz)
PTSPERDEC	QUANT	1.00000E+001	Points/decade
VAC	QUANT	5.00000E+001	AC Voltage (mV rms)
AREA	QUANT	1.00000E+000	Sample Area (cm^2)
SPEED	SELECTOR	2	Optimize for:
ZGUESS	QUANT	1.00000E+003	Estimated Z (ohms)
EOC	QUANT	0	Open Circuit (V)
SEQUENCER	TOGGLE	TRUE	Run as Sequence
PSTATMODEL	IQUANT	5	Pstat Model
PSTATSECTION	LABEL	REF3000-16137	Pstat Section
PSTATSERIALNO	LABEL	16137	Pstat Serial Number
CTRLMODE	IQUANT	1	Control Mode
IESTAB	IQUANT	0	I/E Stability
CASPEED	IQUANT	1	Control Amp Speed
CONVENTION	IQUANT	1	Current Convention
ICHRANGE	IQUANT	2	Ich Range
ICHRANGEMODE	TOGGLE	F	Ich Auto Range
ICHOFFSETENABLE	TOGGLE	T	Ich Offset Enable
ICHOFFSET	QUANT	0	Ich Offset (V)
ICHFILTER	IQUANT	3	Ich Filter
VCHRANGE	IQUANT	2	Vch Range
VCHRANGEMODE	TOGGLE	F	Vch Auto Range
VCHOFFSETENABLE	TOGGLE	T	Vch Offset Enable
VCHOFFSET	QUANT	0	Vch Offset (V)
VCHFILTER	IQUANT	3	Vch Filter
ACHRANGE	IQUANT	2	Ach Range
ACHOFFSETENABLE	TOGGLE	F	Ach Offset Enable
ACHOFFSET	QUANT	0	Ach Offset (V)
ACHFILTER	IQUANT	3	Ach Filter
IERANGELOWERLIMIT	IQUANT	2	I/E Range Lower Limit
IERANGEMODE	TOGGLE	F	I/E AutoRange
IERANGE	IQUANT	11	I/E Range
POSFEEDENABLE	TOGGLE	F	Positive Feedback IR Comp
POSFEEDRESISTANCE	QUANT	0	Positive Feedback Resistance (ohm)
ACHSELECT	IQUANT	0	Ach Select
CABLEID	IQUANT	13	Cable ID
DCCALDATE	LABEL	7/31/2020	DC Calibration Date
ACCALDATE	LABEL	7/31/2020	AC Calibration Date
THERMOSELECT	IQUANT	1	Thermo Select
FRAMEWORKVERSION	QUANT	6.33	Framework Version
INSTRUMENTVERSION	LABEL	3.50	Instrument Version
COMPLIANCEVOLTAGE	IQUANT	0	Compliance Voltage
ZCURVE	TABLE
	Pt	Time	Freq	Zreal	Zimag	Zsig	Zmod	Zphz	Idc	Vdc	IERange
	#	s	Hz	ohm	ohm	V	ohm	°	A	V	#
	0	7	300046.9	86.24391	-4.694913	1	86.3716	-3.11597	-1.403222E-005	0.0006159	9
	1	10	238359.4	86.8835	-6.23007	1	87.10658	-4.101432	-3.284363E-005	-0.0004803	9
	2	14	189328.1	87.62779	-7.694553	1	87.96497	-5.018243	-5.086268E-005	0.0008456	9
	3	16	150421.9	88.63464	-9.331432	1	89.12449	-6.009946	-8.961062E-006	-0.0010226	9
	4	19	119484.4	89.51859	-10.99343	1	90.19109	-7.001215	-7.611111E-005	0.0022926	9
	5	21	94921.88	90.74337	-12.8614	1	91.65028	-8.067014	-1.804912E-005	0.0004219	9
	6	24	75421.88	92.08645	-15.17017	1	93.32764	-9.354788	2.415171E-005	-0.0006487	9
	7	26	59859.37	93.61975	-17.83608	1	95.3036	-10.78651	-1.240977E-005	0.0007479	9
	8	29	47578.12	95.4264	-20.77808	1	97.6623	-12.28381	-1.693464E-005	0.0007772	9
	9	31	37828.12	97.3641	-24.12394	1	100.3082	-13.91594	-8.862522E-006	3.581415E-005	9
	10	34	30046.88	99.5551	-27.9164	1	103.3951	-15.66411	5.589115E-006	-0.0004778	9
	11	37	23859.38	101.9569	-32.30641	1	106.9529	-17.5815	1.840788E-005	-7.705528E-005	9
	12	39	18984.38	104.3775	-37.43968	1	110.8891	-19.73265	1.26339E-005	0.0001713	9
	13	41	15046.87	106.8691	-43.7559	1	115.4798	-22.26588	-2.019367E-005	0.0004877	9
	14	43	11953.13	109.2167	-51.18979	1	120.6179	-25.11246	1.170069E-005	-0.0006017	9
	15	46	9515.62	111.4874	-60.67204	1	126.9273	-28.55526	2.252426E-005	-0.0003382	9
	16	48	7546.875	113.5793	-72.54696	1	134.7714	-32.56775	3.277233E-006	0.0005075	9
	17	50	5928.309	115.8511	-88.59586	1	145.8448	-37.40656	-1.976246E-005	0.0006428	9
	18	53	4733.456	118.0716	-107.7322	1	159.8347	-42.37829	2.960385E-006	0.0004509	9
	19	55	3796.875	120.917	-130.8107	1	178.1358	-47.25075	2.181112E-005	-0.0006785	9
	20	57	2987.132	124.0592	-162.5722	1	204.5004	-52.65268	1.204941E-005	-0.000608	9
	21	60	2390.625	128.2564	-199.3676	1	237.0594	-57.24618	-2.168339E-006	-0.0002726	9
	22	62	1884.191	134.0938	-249.0791	1	282.8808	-61.70383	-1.981747E-005	0.0006349	9
	23	64	1516.544	139.3067	-305.3795	1	335.653	-65.47868	-4.584578E-006	0.0006596	9
	24	67	1193.986	148.1582	-382.2336	1	409.9431	-68.81309	2.377799E-005	-0.0005867	9
	25	69	946.5144	160.6112	-471.7984	1	498.3871	-71.20022	-8.290477E-007	-7.790161E-005	8
	26	71	751.7689	175.0232	-585.4586	1	611.0605	-73.35593	-4.77538E-006	0.0025071	8
	27	74	597.4265	194.9578	-724.864	1	750.624	-74.94609	-5.257319E-006	0.0020991	8
	28	76	477.4305	221.5624	-892.5923	1	919.6798	-76.05959	2.348132E-007	0.0006474	8
	29	78	376.6741	258.4654	-1110.499	1	1140.18	-76.89783	2.379303E-007	0.0006478	8
	30	81	298.2954	306.5357	-1375.121	1	1408.873	-77.43335	2.242507E-007	0.0006826	8
	31	83	237.7717	368.4834	-1689.861	1	1729.57	-77.6989	2.529538E-007	0.0006402	8
	32	86	189.0121	450.7135	-2078.919	1	2127.216	-77.76748	2.395809E-007	0.0006502	8
	33	88	150.2404	558.8868	-2553.657	1	2614.1	-77.65504	2.421522E-007	0.0006429	8
	34	90	119.1737	703.4116	-3137.848	1	3215.723	-77.36488	2.668838E-007	0.0006478	8
	35	93	95.0169	889.7338	-3831.43	1	3933.381	-76.92651	2.702135E-007	0.0006448	8
	36	95	75.60484	1142.552	-4686.868	1	4824.122	-76.29981	2.363719E-008	0.0006236	7
	37	98	54.50582	1651.208	-6208.646	1	6424.466	-75.10677	2.637868E-008	0.0006146	7
	38	100	45.95588	2010.396	-7172.658	1	7449.075	-74.34256	2.806295E-008	0.0006243	7
	39	103	37.20238	2577.643	-8544.156	1	8924.509	-73.21223	2.880071E-008	0.0006211	7
	40	105	30.04808	3337.117	-10165.91	1	10699.62	-71.82677	2.757324E-008	0.0006187	7
	41	108	23.91582	4387.205	-12163.3	1	12930.33	-70.16603	2.103631E-008	0.0006188	7
	42	110	18.60119	5908.936	-14679.14	1	15823.8	-68.07326	2.047535E-008	0.0006251	7
	43	112	15.02404	7610.122	-17089.07	1	18706.96	-65.99558	2.760713E-008	0.0006149	7
	44	115	12.01923	9835.29	-19816.3	1	22122.81	-63.60373	1.773957E-008	0.0006234	7
	45	117	9.450605	12837.27	-22933.44	1	26281.89	-60.76155	2.207306E-008	0.0006341	7
	46	120	7.512019	16332.62	-26013.92	1	30716.09	-57.8777	2.82322E-008	0.0006528	7
	47	122	5.978954	20476.83	-28942.99	1	35454.16	-54.72103	3.109589E-008	0.0006192	7
	48	125	4.734848	25375.7	-31629.19	1	40550.36	-51.26036	8.071027E-009	0.0007072	6
	49	129	3.75601	30795.36	-33878.02	1	45782.91	-47.72894	-3.210122E-009	0.0006434	6
	50	132	3.004808	36436.2	-35488.7	1	50863	-44.24526	-3.919571E-009	0.0006721	6
	51	136	2.372217	42545.61	-36099.84	1	55797.2	-40.31452	-1.541831E-009	0.0007341	6
	52	140	1.878005	47874.54	-34023.51	1	58733.05	-35.40067	-4.547963E-009	0.0006406	6
	53	149	1.512097	51704.64	-31469.73	1	60528.62	-31.32654	-3.571473E-009	0.0007217	6
	54	160	1.201923	55073.86	-28715.28	1	62110.36	-27.53735	-2.864733E-009	0.0006233	6
	55	173	0.956633	58489.63	-26621.93	1	64263.24	-24.47296	-2.067418E-008	2.231074E-005	6
