EXPLAIN
TAG	EISPOT
TITLE	LABEL	Potentiostatic EIS	Test Identifier
DATE	LABEL	8/22/2020	Date
TIME	LABEL	2:52:07	Time
NOTES	NOTES	1	Notes...
	
PSTAT	PSTAT	REF3000-16137	Potentiostat
VDC	POTEN	0.00000E+000	T	DC Voltage (V)
FREQINIT	QUANT	3.00000E+005	Initial Freq. (Hz)
FREQFINAL	QUANT	1.00000E+000	Final Freq. (Hz)
PTSPERDEC	QUANT	1.00000E+001	Points/decade
VAC	QUANT	5.00000E+001	AC Voltage (mV rms)
AREA	QUANT	1.00000E+000	Sample Area (cm^2)
SPEED	SELECTOR	2	Optimize for:
ZGUESS	QUANT	1.00000E+003	Estimated Z (ohms)
EOC	QUANT	0	Open Circuit (V)
SEQUENCER	TOGGLE	TRUE	Run as Sequence
PSTATMODEL	IQUANT	5	Pstat Model
PSTATSECTION	LABEL	REF3000-16137	Pstat Section
PSTATSERIALNO	LABEL	16137	Pstat Serial Number
CTRLMODE	IQUANT	1	Control Mode
IESTAB	IQUANT	0	I/E Stability
CASPEED	IQUANT	1	Control Amp Speed
CONVENTION	IQUANT	1	Current Convention
ICHRANGE	IQUANT	2	Ich Range
ICHRANGEMODE	TOGGLE	F	Ich Auto Range
ICHOFFSETENABLE	TOGGLE	T	Ich Offset Enable
ICHOFFSET	QUANT	0	Ich Offset (V)
ICHFILTER	IQUANT	3	Ich Filter
VCHRANGE	IQUANT	2	Vch Range
VCHRANGEMODE	TOGGLE	F	Vch Auto Range
VCHOFFSETENABLE	TOGGLE	T	Vch Offset Enable
VCHOFFSET	QUANT	0	Vch Offset (V)
VCHFILTER	IQUANT	3	Vch Filter
ACHRANGE	IQUANT	2	Ach Range
ACHOFFSETENABLE	TOGGLE	F	Ach Offset Enable
ACHOFFSET	QUANT	0	Ach Offset (V)
ACHFILTER	IQUANT	3	Ach Filter
IERANGELOWERLIMIT	IQUANT	2	I/E Range Lower Limit
IERANGEMODE	TOGGLE	F	I/E AutoRange
IERANGE	IQUANT	11	I/E Range
POSFEEDENABLE	TOGGLE	F	Positive Feedback IR Comp
POSFEEDRESISTANCE	QUANT	0	Positive Feedback Resistance (ohm)
ACHSELECT	IQUANT	0	Ach Select
CABLEID	IQUANT	13	Cable ID
DCCALDATE	LABEL	7/31/2020	DC Calibration Date
ACCALDATE	LABEL	7/31/2020	AC Calibration Date
THERMOSELECT	IQUANT	1	Thermo Select
FRAMEWORKVERSION	QUANT	6.33	Framework Version
INSTRUMENTVERSION	LABEL	3.50	Instrument Version
COMPLIANCEVOLTAGE	IQUANT	0	Compliance Voltage
ZCURVE	TABLE
	Pt	Time	Freq	Zreal	Zimag	Zsig	Zmod	Zphz	Idc	Vdc	IERange
	#	s	Hz	ohm	ohm	V	ohm	°	A	V	#
	0	17	300046.9	315.5998	-4717.039	1	4727.585	-86.17226	-5.843689E-005	0.0004385	9
	1	34	238359.4	786.3993	-5764.59	1	5817.983	-82.23172	-9.307002E-005	0.0021917	9
	2	58	189328.1	1576.229	-6705.214	1	6887.989	-76.77137	-2.875785E-005	-0.0011024	9
	3	67	150421.9	2268.785	-8133.855	1	8444.347	-74.41457	-9.070527E-005	0.0021871	9
	4	80	119484.4	4231.78	-9085.211	1	10022.43	-65.02448	2.50159E-005	0.0011029	9
	5	88	94921.88	6557.595	-9415.808	1	11474.3	-55.1449	-2.382505E-005	0.0052593	8
	6	97	75421.88	8507.13	-8979.639	1	12369.53	-46.54781	2.705914E-005	-0.00738	8
	7	106	59859.37	10087.05	-7745.991	1	12718.05	-37.52119	2.216739E-005	-0.0096602	8
	8	114	47578.12	10799.67	-6157.446	1	12431.69	-29.68968	2.585646E-005	-0.0089619	8
	9	123	37828.12	10731.7	-4425.03	1	11608.2	-22.40795	-2.602926E-005	0.0075358	8
	10	132	30046.88	10230.38	-3223.828	1	10726.31	-17.49084	-9.751107E-006	-0.0019629	8
	11	139	23859.38	10217.53	-1964.589	1	10404.69	-10.88379	-6.679488E-006	0.0209529	7
	12	143	18984.38	9726.98	-1542.615	1	9848.54	-9.011569	-6.349099E-006	0.0237733	7
	13	147	15046.87	9270.112	-1267.508	1	9356.364	-7.785805	3.680662E-006	-0.0234558	7
	14	152	11953.13	8825.589	-1043.824	1	8887.103	-6.74518	-1.363421E-007	0.0166551	7
	15	156	9515.62	8430.106	-967.562	1	8485.45	-6.547451	1.74373E-006	-0.0195246	7
	16	160	7546.875	8047.46	-873.9959	1	8094.782	-6.198325	7.09085E-006	-0.021366	7
	17	163	5928.309	7671.521	-795.7134	1	7712.678	-5.921716	3.685607E-006	-0.0229494	7
	18	168	4733.456	7294.631	-797.4386	1	7338.089	-6.238719	3.906643E-006	0.001807	7
	19	172	3796.875	6990.659	-782.2878	1	7034.293	-6.385105	-2.353643E-007	-0.0138958	7
	20	176	2987.132	6699.399	-816.2479	1	6748.941	-6.94662	3.688479E-006	-0.0226818	7
	21	180	2390.625	6396.217	-898.3883	1	6459.001	-7.995245	6.801992E-006	-0.02003	7
	22	184	1884.191	5972.338	-968.876	1	6050.417	-9.214657	-1.085253E-005	0.0095907	8
	23	190	1516.544	5699.524	-974.505	1	5782.235	-9.70261	-2.471452E-005	0.0073017	8
	24	195	1193.986	5334.159	-1084.888	1	5443.366	-11.4963	-1.942602E-005	0.0029251	8
	25	201	946.5144	5175.076	-1323.555	1	5341.648	-14.3462	-2.217579E-005	0.0101164	8
	26	205	751.7689	5069.246	-1304.083	1	5234.299	-14.42674	-1.026622E-005	0.0092308	8
	27	209	597.4265	5064.446	-1468.092	1	5272.941	-16.16593	-9.527057E-006	-0.0015954	8
	28	212	477.4305	4948.554	-1655.964	1	5218.276	-18.50209	-3.729077E-007	0.0006448	8
	29	215	376.6741	4969.085	-1893.809	1	5317.736	-20.86276	-8.128556E-008	0.0005973	7
	30	217	298.2954	4965.278	-2179.144	1	5422.421	-23.69554	-8.068139E-008	0.0006157	7
	31	219	237.7717	4944.759	-2523.198	1	5551.321	-27.03418	-7.946836E-008	0.0005959	7
	32	222	189.0121	4921.425	-2967.786	1	5747.015	-31.0914	-8.322698E-008	0.0006547	7
	33	224	150.2404	4893.201	-3537.46	1	6037.966	-35.86444	-7.957486E-008	0.0006156	7
	34	227	119.1737	4875.764	-4275.343	1	6484.723	-41.2461	-7.378718E-008	0.0005879	7
	35	229	95.0169	4879.336	-5193.205	1	7125.819	-46.78481	-7.612221E-008	0.000622	7
	36	231	75.60484	4911.759	-6353.356	1	8030.599	-52.29251	-7.344551E-008	0.0006166	7
	37	234	54.50582	5113.792	-8539.862	1	9953.9	-59.08622	-7.879893E-008	0.0006509	7
	38	237	45.95588	5235.66	-9965.79	1	11257.4	-62.28421	-7.165541E-008	0.0005725	7
	39	239	37.20238	5505.785	-12072.19	1	13268.44	-65.48361	-7.07126E-008	0.0005831	7
	40	241	30.04808	5909.083	-14646.8	1	15793.86	-68.02895	-7.909217E-008	0.0006382	7
	41	244	23.91582	6544.346	-17982.31	1	19136.14	-70.00191	-7.722672E-008	0.0005921	7
	42	246	18.60119	7590.182	-22515.95	1	23760.87	-71.37091	-7.816506E-008	0.0006592	7
	43	248	15.02404	8818.387	-27157.71	1	28553.55	-72.01086	-7.486167E-008	0.0006029	7
	44	251	12.01923	10606.58	-32940.78	1	34606.28	-72.15199	-7.17648E-008	0.0005899	7
	45	253	9.450605	13294.34	-40316.19	1	42451.55	-71.74992	-6.98501E-008	0.0005982	7
	46	256	7.512019	16762.66	-48617.77	1	51426.39	-70.97659	-1.397229E-008	0.0006563	6
	47	258	5.978954	21418.01	-58084.16	1	61907.19	-69.759	-1.305818E-008	0.0006204	6
	48	261	4.734848	27672.99	-69002.47	1	74344.7	-68.14707	-1.45631E-008	0.000633	6
	49	265	3.75601	35797.05	-80923.76	1	88487.76	-66.13755	-1.303344E-008	0.000702	6
	50	268	3.004808	45615.02	-93270.64	1	103827.5	-63.93855	-1.313846E-008	0.0006021	6
	51	272	2.372217	58608.17	-106818.1	1	121840.2	-61.24763	-1.554406E-008	0.000583	6
	52	276	1.878005	74163.26	-119977.3	1	141048.7	-58.27796	-1.585605E-008	0.0006628	6
	53	281	1.512097	90969	-130606.8	1	159165	-55.14238	-1.734364E-008	0.0006061	6
	54	286	1.201923	111311	-140173.5	1	178993.8	-51.54712	-1.92245E-008	0.0006818	6
	55	292	0.956633	133686.5	-144486.6	1	196846.3	-47.22341	-2.432654E-008	2.02495E-005	6
