June 15, 2026   00:02:43
A.C. Impedance
File: e:\chi_data\Data Source:  Experiment
Instrument Model:  CHI660E
Ref. Electrode: 
Header: 
Note: 

Init E (V) = 0
High Frequency (Hz) = 1e+6
Low Frequency (Hz) = 0.1
Imp SF
Amplitude (V) = 0.005
Quiet Time (sec) = 2
Cycles (.1-1Hz) = 1

Freq/Hz	Z'/ohm	Z"/ohm	Z/ohm	Phase/deg

8.252e+5	2.532e+2	-3.431e+2	4.264e+2	-53.6
6.816e+5	3.148e+2	-4.141e+2	5.201e+2	-52.8
5.625e+5	3.891e+2	-4.775e+2	6.160e+2	-50.8
4.639e+5	4.734e+2	-5.359e+2	7.151e+2	-48.5
3.828e+5	5.727e+2	-5.844e+2	8.182e+2	-45.6
3.164e+5	6.811e+2	-6.200e+2	9.210e+2	-42.3
2.607e+5	7.952e+2	-6.429e+2	1.023e+3	-39.0
2.158e+5	9.069e+2	-6.508e+2	1.116e+3	-35.7
1.777e+5	1.016e+3	-6.445e+2	1.203e+3	-32.4
1.465e+5	1.121e+3	-6.249e+2	1.283e+3	-29.1
1.211e+5	1.219e+3	-5.880e+2	1.353e+3	-25.7
9.961e+4	1.310e+3	-5.443e+2	1.419e+3	-22.6
8.252e+4	1.389e+3	-4.975e+2	1.475e+3	-19.7
6.812e+4	1.451e+3	-4.497e+2	1.519e+3	-17.2
5.625e+4	1.501e+3	-4.039e+2	1.554e+3	-15.1
4.644e+4	1.545e+3	-3.583e+2	1.586e+3	-13.1
3.833e+4	1.587e+3	-3.160e+2	1.619e+3	-11.3
3.164e+4	1.626e+3	-2.792e+2	1.650e+3	-9.7
2.612e+4	1.653e+3	-2.457e+2	1.671e+3	-8.5
2.153e+4	1.673e+3	-2.145e+2	1.687e+3	-7.3
1.777e+4	1.710e+3	-2.185e+2	1.724e+3	-7.3
1.470e+4	1.740e+3	-2.134e+2	1.753e+3	-7.0
1.211e+4	1.744e+3	-1.772e+2	1.753e+3	-5.8
1.001e+4	1.744e+3	-1.437e+2	1.750e+3	-4.7
8.252e+3	1.744e+3	-1.135e+2	1.748e+3	-3.7
6.812e+3	1.751e+3	-9.992e+1	1.754e+3	-3.3
5.625e+3	1.760e+3	-9.179e+1	1.763e+3	-3.0
4.643e+3	1.772e+3	-9.114e+1	1.774e+3	-2.9
3.833e+3	1.782e+3	-9.408e+1	1.785e+3	-3.0
3.164e+3	1.793e+3	-9.694e+1	1.795e+3	-3.1
2.612e+3	1.804e+3	-1.010e+2	1.807e+3	-3.2
2.153e+3	1.815e+3	-1.070e+2	1.818e+3	-3.4
1.777e+3	1.827e+3	-1.155e+2	1.831e+3	-3.6
1.470e+3	1.841e+3	-1.258e+2	1.845e+3	-3.9
1.211e+3	1.857e+3	-1.374e+2	1.862e+3	-4.2
1.001e+3	1.876e+3	-1.473e+2	1.881e+3	-4.5
8.252e+2	1.894e+3	-1.581e+2	1.901e+3	-4.8
6.836e+2	1.911e+3	-1.739e+2	1.919e+3	-5.2
5.615e+2	1.932e+3	-1.929e+2	1.942e+3	-5.7
4.639e+2	1.956e+3	-2.144e+2	1.968e+3	-6.3
3.809e+2	1.984e+3	-2.368e+2	1.998e+3	-6.8
3.174e+2	2.016e+3	-2.603e+2	2.032e+3	-7.4
2.588e+2	2.049e+3	-2.862e+2	2.069e+3	-8.0
2.148e+2	2.083e+3	-3.145e+2	2.107e+3	-8.6
1.758e+2	2.121e+3	-3.444e+2	2.149e+3	-9.2
1.465e+2	2.160e+3	-3.788e+2	2.193e+3	-9.9
1.221e+2	2.203e+3	-4.179e+2	2.242e+3	-10.7
9.766e+1	2.251e+3	-4.530e+2	2.296e+3	-11.4
8.254e+1	2.301e+3	-4.899e+2	2.353e+3	-12.0
6.813e+1	2.355e+3	-5.379e+2	2.416e+3	-12.9
5.623e+1	2.411e+3	-5.962e+2	2.484e+3	-13.9
4.642e+1	2.471e+3	-6.640e+2	2.559e+3	-15.0
3.831e+1	2.537e+3	-7.400e+2	2.643e+3	-16.3
3.162e+1	2.608e+3	-8.255e+2	2.736e+3	-17.6
2.610e+1	2.685e+3	-9.213e+2	2.839e+3	-18.9
2.154e+1	2.770e+3	-1.030e+3	2.956e+3	-20.4
1.778e+1	2.862e+3	-1.154e+3	3.086e+3	-22.0
1.468e+1	2.963e+3	-1.297e+3	3.234e+3	-23.6
1.212e+1	3.077e+3	-1.459e+3	3.405e+3	-25.4
1.000e+1	3.206e+3	-1.646e+3	3.603e+3	-27.2
8.254e+0	3.348e+3	-1.867e+3	3.833e+3	-29.1
6.813e+0	3.504e+3	-2.125e+3	4.099e+3	-31.2
5.623e+0	3.677e+3	-2.429e+3	4.407e+3	-33.5
4.642e+0	3.873e+3	-2.791e+3	4.774e+3	-35.8
3.831e+0	4.085e+3	-3.209e+3	5.195e+3	-38.2
3.162e+0	4.323e+3	-3.711e+3	5.697e+3	-40.6
2.610e+0	4.585e+3	-4.300e+3	6.286e+3	-43.2
2.154e+0	4.912e+3	-5.087e+3	7.072e+3	-46.0
1.778e+0	5.283e+3	-6.057e+3	8.037e+3	-48.9
1.468e+0	5.619e+3	-7.074e+3	9.034e+3	-51.5
1.212e+0	5.940e+3	-8.164e+3	1.010e+4	-54.0
1.000e+0	6.279e+3	-9.362e+3	1.127e+4	-56.1
8.254e-1	6.645e+3	-1.069e+4	1.259e+4	-58.1
6.813e-1	7.029e+3	-1.221e+4	1.409e+4	-60.1
5.623e-1	7.458e+3	-1.404e+4	1.590e+4	-62.0
4.642e-1	7.949e+3	-1.618e+4	1.803e+4	-63.8
3.831e-1	8.519e+3	-1.874e+4	2.059e+4	-65.6
3.162e-1	9.186e+3	-2.174e+4	2.360e+4	-67.1
2.610e-1	9.968e+3	-2.521e+4	2.711e+4	-68.4
2.154e-1	1.089e+4	-2.933e+4	3.129e+4	-69.6
1.778e-1	1.196e+4	-3.426e+4	3.628e+4	-70.8
1.468e-1	1.324e+4	-4.006e+4	4.219e+4	-71.7
1.212e-1	1.477e+4	-4.688e+4	4.915e+4	-72.5
1.000e-1	1.655e+4	-5.481e+4	5.726e+4	-73.2
