EXPLAIN
TAG	EISPOT
TITLE	LABEL	Potentiostatic EIS	Test Identifier
DATE	LABEL	9/23/2020	Date
TIME	LABEL	14:21:41	Time
NOTES	NOTES	1	Notes...
	
PSTAT	PSTAT	REF3000-16137	Potentiostat
VDC	POTEN	0.00000E+000	T	DC Voltage (V)
FREQINIT	QUANT	3.00000E+005	Initial Freq. (Hz)
FREQFINAL	QUANT	1.00000E+000	Final Freq. (Hz)
PTSPERDEC	QUANT	1.00000E+001	Points/decade
VAC	QUANT	5.00000E+001	AC Voltage (mV rms)
AREA	QUANT	1.00000E+000	Sample Area (cm^2)
SPEED	SELECTOR	2	Optimize for:
ZGUESS	QUANT	1.00000E+003	Estimated Z (ohms)
EOC	QUANT	0	Open Circuit (V)
SEQUENCER	TOGGLE	TRUE	Run as Sequence
PSTATMODEL	IQUANT	5	Pstat Model
PSTATSECTION	LABEL	REF3000-16137	Pstat Section
PSTATSERIALNO	LABEL	16137	Pstat Serial Number
CTRLMODE	IQUANT	1	Control Mode
IESTAB	IQUANT	0	I/E Stability
CASPEED	IQUANT	1	Control Amp Speed
CONVENTION	IQUANT	1	Current Convention
ICHRANGE	IQUANT	2	Ich Range
ICHRANGEMODE	TOGGLE	F	Ich Auto Range
ICHOFFSETENABLE	TOGGLE	T	Ich Offset Enable
ICHOFFSET	QUANT	0	Ich Offset (V)
ICHFILTER	IQUANT	3	Ich Filter
VCHRANGE	IQUANT	2	Vch Range
VCHRANGEMODE	TOGGLE	F	Vch Auto Range
VCHOFFSETENABLE	TOGGLE	T	Vch Offset Enable
VCHOFFSET	QUANT	0	Vch Offset (V)
VCHFILTER	IQUANT	3	Vch Filter
ACHRANGE	IQUANT	2	Ach Range
ACHOFFSETENABLE	TOGGLE	F	Ach Offset Enable
ACHOFFSET	QUANT	0	Ach Offset (V)
ACHFILTER	IQUANT	3	Ach Filter
IERANGELOWERLIMIT	IQUANT	2	I/E Range Lower Limit
IERANGEMODE	TOGGLE	F	I/E AutoRange
IERANGE	IQUANT	11	I/E Range
POSFEEDENABLE	TOGGLE	F	Positive Feedback IR Comp
POSFEEDRESISTANCE	QUANT	0	Positive Feedback Resistance (ohm)
ACHSELECT	IQUANT	0	Ach Select
CABLEID	IQUANT	13	Cable ID
DCCALDATE	LABEL	7/31/2020	DC Calibration Date
ACCALDATE	LABEL	7/31/2020	AC Calibration Date
THERMOSELECT	IQUANT	1	Thermo Select
FRAMEWORKVERSION	QUANT	6.33	Framework Version
INSTRUMENTVERSION	LABEL	3.50	Instrument Version
COMPLIANCEVOLTAGE	IQUANT	0	Compliance Voltage
ZCURVE	TABLE
	Pt	Time	Freq	Zreal	Zimag	Zsig	Zmod	Zphz	Idc	Vdc	IERange
	#	s	Hz	ohm	ohm	V	ohm	°	A	V	#
	0	25	300046.9	1045.965	-3243.434	1	3407.918	-72.12616	-2.247138E-005	0.0014358	9
	1	39	238359.4	1467.415	-3852.184	1	4122.212	-69.14663	-2.360709E-005	0.0015103	9
	2	67	189328.1	1909.642	-4640.833	1	5018.372	-67.63348	2.097457E-005	-0.0003153	9
	3	75	150421.9	2795.921	-5352.952	1	6039.145	-62.42131	8.858677E-005	-0.0024981	9
	4	84	119484.4	3686.292	-6219.473	1	7229.84	-59.3447	8.691097E-005	-0.0024525	9
	5	96	94921.88	5052.573	-6702.752	1	8393.771	-52.99081	-1.392406E-006	0.0072958	8
	6	105	75421.88	6513.635	-7236.661	1	9736.36	-48.00999	2.528498E-005	-0.0088426	8
	7	114	59859.37	8128.43	-7466.403	1	11037.14	-42.56916	2.312365E-005	-0.0029711	8
	8	122	47578.12	11097.58	-6679.328	1	12952.59	-31.04258	6.828191E-006	-0.0164579	7
	9	128	37828.12	12428.87	-6130.437	1	13858.54	-26.25443	1.24242E-006	-0.0184122	7
	10	134	30046.88	13545.8	-5479.528	1	14612.12	-22.02424	2.371614E-006	0.0082497	7
	11	140	23859.38	14415.62	-4756.275	1	15179.99	-18.25974	-8.105305E-007	-0.0123275	7
	12	144	18984.38	15039.78	-3993.963	1	15561.07	-14.8722	-4.914368E-006	0.0241616	7
	13	149	15046.87	15458.36	-3333.198	1	15813.64	-12.16806	-6.051758E-006	0.0105789	7
	14	153	11953.13	15882.24	-2791.115	1	16125.63	-9.96727	-2.950695E-006	-0.0049856	7
	15	157	9515.62	16123.79	-2308.933	1	16288.27	-8.149374	3.269833E-006	-0.0223029	7
	16	161	7546.875	16296.9	-1828.699	1	16399.18	-6.402462	-4.764603E-006	0.0030037	7
	17	166	5928.309	16521.65	-1461.144	1	16586.14	-5.053982	-6.047124E-006	0.0106501	7
	18	170	4733.456	16498.42	-1372.203	1	16555.39	-4.754451	-2.983713E-006	-0.0048828	7
	19	174	3796.875	16640.79	-1064.624	1	16674.82	-3.660609	-8.767248E-007	-0.0125709	7
	20	178	2987.132	16585.35	-942.52	1	16612.11	-3.252533	2.401013E-006	0.0080385	7
	21	183	2390.625	17057.01	-733.0151	1	17072.75	-2.460739	4.96058E-006	-0.0244532	7
	22	187	1884.191	16824.25	-428.4017	1	16829.7	-1.458627	-6.585555E-006	0.0212072	7
	23	191	1516.544	17022.21	-655.6579	1	17034.83	-2.205817	4.935771E-006	-0.02433	7
	24	196	1193.986	16924.1	-529.6996	1	16932.39	-1.792689	-3.495566E-006	0.0231558	7
	25	200	946.5144	17241.68	-401.5808	1	17246.35	-1.334251	5.986266E-006	-0.0091464	7
	26	203	751.7689	17089.89	-932.9102	1	17115.33	-3.124585	-6.078765E-006	0.0106932	7
	27	205	597.4265	16918.65	-491.3638	1	16925.78	-1.663558	-6.679059E-006	0.0214513	7
	28	208	477.4305	17296.17	-597.9361	1	17306.5	-1.979952	-9.140643E-008	0.0006382	7
	29	210	376.6741	17372.77	-654.8287	1	17385.11	-2.158617	-9.158525E-008	0.0006261	7
	30	213	298.2954	17455.54	-724.5253	1	17470.57	-2.376806	-8.83924E-008	0.0006504	7
	31	215	237.7717	17547.59	-813.9995	1	17566.46	-2.655938	-8.334938E-008	0.0006483	7
	32	217	189.0121	17649.18	-921.6568	1	17673.22	-2.989325	-7.799512E-008	0.0005923	7
	33	220	150.2404	17766.37	-1048.841	1	17797.3	-3.378546	-8.950987E-008	0.0006374	7
	34	222	119.1737	17908.42	-1213.316	1	17949.47	-3.875931	-8.189172E-008	0.0005613	7
	35	225	95.0169	18042.68	-1377.675	1	18095.21	-4.366427	-8.367417E-008	0.00065	7
	36	227	75.60484	18207.87	-1584.185	1	18276.66	-4.972525	-8.060108E-008	0.000566	7
	37	230	54.50582	18469	-1931.936	1	18569.77	-5.971665	-8.633623E-008	0.0006496	7
	38	232	45.95588	18627.1	-2155.911	1	18751.45	-6.602068	-8.101749E-008	0.0006553	7
	39	234	37.20238	18832.87	-2469.061	1	18994.03	-7.469097	-6.749274E-008	0.0006264	7
	40	237	30.04808	19077.03	-2826.009	1	19285.21	-8.426332	-8.859837E-008	0.0006399	7
	41	239	23.91582	19356.29	-3284.608	1	19633	-9.63089	-7.182496E-008	0.000596	7
	42	242	18.60119	19727.14	-3899.435	1	20108.84	-11.18143	-4.357002E-008	0.000563	7
	43	244	15.02404	20056.25	-4452.774	1	20544.59	-12.51746	-1.185038E-007	0.0005742	7
	44	246	12.01923	20429.39	-5186.926	1	21077.57	-14.24611	-6.41515E-008	0.0006488	7
	45	249	9.450605	20861.9	-6180.413	1	21758.14	-16.50211	-9.686593E-008	0.0006237	7
	46	251	7.512019	21382.3	-7247.11	1	22577.05	-18.72308	-7.459982E-008	0.0006217	7
	47	254	5.978954	21952.01	-8581.488	1	23569.74	-21.35154	-7.056544E-008	0.0006506	7
	48	257	4.734848	22699.78	-10167.54	1	24872.86	-24.12826	-8.552408E-008	0.0006564	7
	49	260	3.75601	23530.23	-12071.91	1	26446.22	-27.15957	-8.330877E-008	0.0006527	7
	50	264	3.004808	24445.09	-14258.52	1	28299.61	-30.25448	-8.809169E-008	0.0006082	7
	51	267	2.372217	25673.83	-17030.3	1	30808.71	-33.55764	-7.814917E-008	0.0006402	7
	52	272	1.878005	27075.73	-20298.63	1	33839.76	-36.85883	-7.865159E-008	0.0005868	7
	53	276	1.512097	28643	-23891.52	1	37299.14	-39.83195	-8.1472E-008	0.0007062	7
	54	282	1.201923	30681.05	-28520.37	1	41889.59	-42.9098	-4.70058E-009	0.0006361	6
	55	288	0.956633	33055.36	-33913.8	1	47358.23	-45.73441	-1.629251E-008	1.728749E-005	6
