EXPLAIN
TAG	EISPOT
TITLE	LABEL	Potentiostatic EIS	Test Identifier
DATE	LABEL	9/23/2020	Date
TIME	LABEL	13:40:19	Time
NOTES	NOTES	1	Notes...
	
PSTAT	PSTAT	REF3000-16137	Potentiostat
VDC	POTEN	0.00000E+000	T	DC Voltage (V)
FREQINIT	QUANT	3.00000E+005	Initial Freq. (Hz)
FREQFINAL	QUANT	1.00000E+000	Final Freq. (Hz)
PTSPERDEC	QUANT	1.00000E+001	Points/decade
VAC	QUANT	5.00000E+001	AC Voltage (mV rms)
AREA	QUANT	1.00000E+000	Sample Area (cm^2)
SPEED	SELECTOR	2	Optimize for:
ZGUESS	QUANT	1.00000E+003	Estimated Z (ohms)
EOC	QUANT	0	Open Circuit (V)
SEQUENCER	TOGGLE	TRUE	Run as Sequence
PSTATMODEL	IQUANT	5	Pstat Model
PSTATSECTION	LABEL	REF3000-16137	Pstat Section
PSTATSERIALNO	LABEL	16137	Pstat Serial Number
CTRLMODE	IQUANT	1	Control Mode
IESTAB	IQUANT	0	I/E Stability
CASPEED	IQUANT	1	Control Amp Speed
CONVENTION	IQUANT	1	Current Convention
ICHRANGE	IQUANT	2	Ich Range
ICHRANGEMODE	TOGGLE	F	Ich Auto Range
ICHOFFSETENABLE	TOGGLE	T	Ich Offset Enable
ICHOFFSET	QUANT	0	Ich Offset (V)
ICHFILTER	IQUANT	3	Ich Filter
VCHRANGE	IQUANT	2	Vch Range
VCHRANGEMODE	TOGGLE	F	Vch Auto Range
VCHOFFSETENABLE	TOGGLE	T	Vch Offset Enable
VCHOFFSET	QUANT	0	Vch Offset (V)
VCHFILTER	IQUANT	3	Vch Filter
ACHRANGE	IQUANT	2	Ach Range
ACHOFFSETENABLE	TOGGLE	F	Ach Offset Enable
ACHOFFSET	QUANT	0	Ach Offset (V)
ACHFILTER	IQUANT	3	Ach Filter
IERANGELOWERLIMIT	IQUANT	2	I/E Range Lower Limit
IERANGEMODE	TOGGLE	F	I/E AutoRange
IERANGE	IQUANT	11	I/E Range
POSFEEDENABLE	TOGGLE	F	Positive Feedback IR Comp
POSFEEDRESISTANCE	QUANT	0	Positive Feedback Resistance (ohm)
ACHSELECT	IQUANT	0	Ach Select
CABLEID	IQUANT	13	Cable ID
DCCALDATE	LABEL	7/31/2020	DC Calibration Date
ACCALDATE	LABEL	7/31/2020	AC Calibration Date
THERMOSELECT	IQUANT	1	Thermo Select
FRAMEWORKVERSION	QUANT	6.33	Framework Version
INSTRUMENTVERSION	LABEL	3.50	Instrument Version
COMPLIANCEVOLTAGE	IQUANT	0	Compliance Voltage
ZCURVE	TABLE
	Pt	Time	Freq	Zreal	Zimag	Zsig	Zmod	Zphz	Idc	Vdc	IERange
	#	s	Hz	ohm	ohm	V	ohm	°	A	V	#
	0	14	300046.9	1697.236	-1716.788	1	2414.12	-45.32812	-6.362301E-005	0.0004319	9
	1	36	238359.4	2075.545	-1718.731	1	2694.796	-39.6277	-6.324847E-005	0.0005276	9
	2	53	189328.1	2389.111	-1629.967	1	2892.169	-34.30371	-9.232459E-005	0.0022151	9
	3	67	150421.9	2737.246	-1497.476	1	3120.088	-28.68192	-0.0001061	0.0038377	9
	4	78	119484.4	3026.206	-1367.266	1	3320.744	-24.31387	8.680227E-005	-0.0024632	9
	5	88	94921.88	3250.656	-1077.384	1	3424.547	-18.33705	2.208509E-005	-0.0029643	8
	6	94	75421.88	3374.946	-983.338	1	3515.283	-16.24423	-1.979791E-005	0.0011246	9
	7	102	59859.37	3518.411	-762.2067	1	3600.024	-12.22332	-2.443777E-005	0.0092107	8
	8	109	47578.12	3603.237	-630.1477	1	3657.923	-9.91978	-6.878136E-007	0.0068076	8
	9	117	37828.12	3830.436	-193.2491	1	3835.308	-2.888177	-3.736217E-006	0.0006419	7
	10	119	30046.88	3697.435	-432.837	1	3722.683	-6.676892	1.689859E-005	-0.0001955	8
	11	127	23859.38	3721.244	-347.2069	1	3737.407	-5.330492	-2.406332E-005	0.009131	8
	12	132	18984.38	3770.408	-310.1837	1	3783.146	-4.703014	-3.67721E-008	-0.0005366	9
	13	137	15046.87	3828.421	-90.22807	1	3829.484	-1.350094	-5.493565E-006	0.0203696	7
	14	140	11953.13	3791.504	-207.6891	1	3797.188	-3.135387	-7.409495E-007	0.0066871	8
	15	145	9515.62	3825.522	-78.83177	1	3826.334	-1.180516	5.716229E-006	-0.0209008	7
	16	148	7546.875	3819.398	-154.1052	1	3822.505	-2.310519	2.401571E-005	-0.0049265	8
	17	153	5928.309	3820.704	-144.6806	1	3823.443	-2.168613	-2.590276E-005	0.0006894	9
	18	159	4733.456	3910.552	-147.8375	1	3913.345	-2.165023	-2.690056E-005	0.0009018	9
	19	164	3796.875	3886.049	-136.0952	1	3888.431	-2.005764	2.867593E-005	-0.0008856	9
	20	169	2987.132	3932.282	-113.6223	1	3933.923	-1.655086	-1.533265E-005	3.396007E-005	9
	21	175	2390.625	3898.147	-124.2343	1	3900.127	-1.825403	-9.851141E-006	-0.0015203	8
	22	180	1884.191	3904.596	-83.5236	1	3905.489	-1.225433	1.387094E-005	-0.0083119	8
	23	185	1516.544	3918.946	-155.5681	1	3922.033	-2.273244	-9.803022E-006	-0.0015429	8
	24	191	1193.986	3983.108	-174.1953	1	3986.915	-2.50415	6.305112E-006	-0.0067907	8
	25	196	946.5144	3940.356	-98.8325	1	3941.595	-1.436799	-2.286721E-005	0.0053583	8
	26	200	751.7689	3961.379	-154.5523	1	3964.393	-2.234249	-2.445934E-005	0.0073074	8
	27	204	597.4265	4074.137	-253.075	1	4081.99	-3.5545	2.499746E-005	-0.0068861	8
	28	208	477.4305	4064.748	-266.9467	1	4073.505	-3.757425	-3.116876E-007	0.0006193	8
	29	211	376.6741	4110.045	-304.4635	1	4121.307	-4.236613	-7.423035E-008	0.0006166	7
	30	213	298.2954	4144.076	-353.4057	1	4159.118	-4.874375	-7.424946E-008	0.0006077	7
	31	216	237.7717	4181.674	-409.6146	1	4201.688	-5.594543	-7.527758E-008	0.0006207	7
	32	218	189.0121	4224.644	-475.5153	1	4251.321	-6.42204	-7.586122E-008	0.0006483	7
	33	220	150.2404	4273.001	-552.8989	1	4308.623	-7.372742	-6.978118E-008	0.0005672	7
	34	223	119.1737	4326.027	-644.8143	1	4373.819	-8.477784	-8.540358E-008	0.0006225	7
	35	225	95.0169	4385.052	-750.7078	1	4448.847	-9.71469	-8.047926E-008	0.0006223	7
	36	228	75.60484	4452.743	-877.4167	1	4538.367	-11.14737	-6.900929E-008	0.0006454	7
	37	230	54.50582	4561.503	-1101.992	1	4692.728	-13.58159	-6.919306E-008	0.0006011	7
	38	233	45.95588	4629.622	-1242.88	1	4793.553	-15.02744	-8.573566E-008	0.0006465	7
	39	235	37.20238	4721.507	-1447.251	1	4938.336	-17.04151	-5.260165E-008	0.0006179	7
	40	237	30.04808	4827.164	-1689.491	1	5114.283	-19.28987	-5.869498E-008	0.0006422	7
	41	240	23.91582	4955.093	-1999.476	1	5343.299	-21.97503	-1.034311E-007	0.0006519	7
	42	242	18.60119	5128.699	-2413.675	1	5668.278	-25.20268	-2.672194E-008	0.0005693	7
	43	245	15.02404	5293.927	-2834.842	1	6005.164	-28.16858	-5.441183E-008	0.00065	7
	44	247	12.01923	5504.472	-3353.973	1	6445.8	-31.3547	-9.713994E-008	0.0006179	7
	45	249	9.450605	5769.308	-4030.722	1	7037.871	-34.94004	-6.840413E-008	0.0005847	7
	46	252	7.512019	6077.364	-4808.511	1	7749.589	-38.35163	-5.82055E-008	0.0006079	7
	47	254	5.978954	6452.553	-5722.382	1	8624.447	-41.56789	-6.997823E-008	0.0006464	7
	48	258	4.734848	6909.515	-6845.234	1	9726.18	-44.73224	-5.143586E-008	0.0006212	7
	49	261	3.75601	7470.169	-8162.736	1	11064.98	-47.53665	-8.697184E-008	0.0006157	7
	50	264	3.004808	8127.366	-9666.86	1	12629.42	-49.94472	-7.748886E-008	0.0005962	7
	51	268	2.372217	8994.753	-11539.9	1	14631.3	-52.06544	-6.883304E-008	0.0006815	7
	52	272	1.878005	10002.11	-13760.11	1	17011.26	-53.98692	-7.702864E-008	0.0006077	7
	53	277	1.512097	11145.41	-16124.79	1	19601.76	-55.34789	-7.241222E-008	0.0006653	7
	54	282	1.201923	12625.19	-19134.51	1	22924.33	-56.58267	-7.030742E-008	0.0005695	7
	55	289	0.956633	14399.42	-22627.31	1	26820.48	-57.52841	-8.183314E-008	-3.538348E-005	7
