EXPLAIN
TAG	EISPOT
TITLE	LABEL	Potentiostatic EIS	Test Identifier
DATE	LABEL	9/23/2020	Date
TIME	LABEL	13:17:08	Time
NOTES	NOTES	1	Notes...
	
PSTAT	PSTAT	REF3000-16137	Potentiostat
VDC	POTEN	0.00000E+000	T	DC Voltage (V)
FREQINIT	QUANT	3.00000E+005	Initial Freq. (Hz)
FREQFINAL	QUANT	1.00000E+000	Final Freq. (Hz)
PTSPERDEC	QUANT	1.00000E+001	Points/decade
VAC	QUANT	5.00000E+001	AC Voltage (mV rms)
AREA	QUANT	1.00000E+000	Sample Area (cm^2)
SPEED	SELECTOR	2	Optimize for:
ZGUESS	QUANT	1.00000E+003	Estimated Z (ohms)
EOC	QUANT	0	Open Circuit (V)
SEQUENCER	TOGGLE	TRUE	Run as Sequence
PSTATMODEL	IQUANT	5	Pstat Model
PSTATSECTION	LABEL	REF3000-16137	Pstat Section
PSTATSERIALNO	LABEL	16137	Pstat Serial Number
CTRLMODE	IQUANT	1	Control Mode
IESTAB	IQUANT	0	I/E Stability
CASPEED	IQUANT	1	Control Amp Speed
CONVENTION	IQUANT	1	Current Convention
ICHRANGE	IQUANT	2	Ich Range
ICHRANGEMODE	TOGGLE	F	Ich Auto Range
ICHOFFSETENABLE	TOGGLE	T	Ich Offset Enable
ICHOFFSET	QUANT	0	Ich Offset (V)
ICHFILTER	IQUANT	3	Ich Filter
VCHRANGE	IQUANT	2	Vch Range
VCHRANGEMODE	TOGGLE	F	Vch Auto Range
VCHOFFSETENABLE	TOGGLE	T	Vch Offset Enable
VCHOFFSET	QUANT	0	Vch Offset (V)
VCHFILTER	IQUANT	3	Vch Filter
ACHRANGE	IQUANT	2	Ach Range
ACHOFFSETENABLE	TOGGLE	F	Ach Offset Enable
ACHOFFSET	QUANT	0	Ach Offset (V)
ACHFILTER	IQUANT	3	Ach Filter
IERANGELOWERLIMIT	IQUANT	2	I/E Range Lower Limit
IERANGEMODE	TOGGLE	F	I/E AutoRange
IERANGE	IQUANT	11	I/E Range
POSFEEDENABLE	TOGGLE	F	Positive Feedback IR Comp
POSFEEDRESISTANCE	QUANT	0	Positive Feedback Resistance (ohm)
ACHSELECT	IQUANT	0	Ach Select
CABLEID	IQUANT	13	Cable ID
DCCALDATE	LABEL	7/31/2020	DC Calibration Date
ACCALDATE	LABEL	7/31/2020	AC Calibration Date
THERMOSELECT	IQUANT	1	Thermo Select
FRAMEWORKVERSION	QUANT	6.33	Framework Version
INSTRUMENTVERSION	LABEL	3.50	Instrument Version
COMPLIANCEVOLTAGE	IQUANT	0	Compliance Voltage
ZCURVE	TABLE
	Pt	Time	Freq	Zreal	Zimag	Zsig	Zmod	Zphz	Idc	Vdc	IERange
	#	s	Hz	ohm	ohm	V	ohm	°	A	V	#
	0	14	300046.9	1425.111	-770.9561	1	1620.282	-28.41249	2.903127E-006	0.0015319	9
	1	27	238359.4	1550.762	-682.2902	1	1694.22	-23.7481	-2.126864E-005	0.0014021	9
	2	40	189328.1	1652.998	-598.2701	1	1757.933	-19.89672	-2.037448E-005	0.0014752	9
	3	46	150421.9	1749.849	-487.6828	1	1816.536	-15.57315	8.286323E-005	-0.0032845	9
	4	60	119484.4	1819.62	-364.7796	1	1855.824	-11.33583	6.524597E-006	-0.0146684	8
	5	67	94921.88	1847.894	-299.0031	1	1871.928	-9.191224	2.17703E-005	-0.0077174	8
	6	70	75421.88	1868.183	-242.3573	1	1883.838	-7.391636	1.26766E-008	0.0060729	8
	7	77	59859.37	1891.368	-202.5245	1	1902.18	-6.111847	2.282836E-005	-0.0048348	8
	8	82	47578.12	1902.914	-169.601	1	1910.457	-5.093143	2.067091E-005	-0.002781	8
	9	86	37828.12	1911.559	-138.797	1	1916.592	-4.152918	-2.54729E-006	-0.0038001	8
	10	90	30046.88	1916.247	-112.8941	1	1919.569	-3.371638	-2.2313E-005	0.0084632	8
	11	93	23859.38	1929.938	-93.16765	1	1932.185	-2.763805	1.803599E-005	-0.0080664	8
	12	96	18984.38	1935.987	-82.01552	1	1937.724	-2.425809	1.27666E-005	-0.0076536	8
	13	99	15046.87	1938.973	-70.66032	1	1940.26	-2.087057	5.38272E-006	-0.0061994	8
	14	104	11953.13	1943.994	-63.04461	1	1945.016	-1.857477	2.185675E-005	-0.0077595	8
	15	107	9515.62	1950.329	-58.77513	1	1951.214	-1.726144	1.843407E-005	-0.0081215	8
	16	110	7546.875	1960.865	-56.9674	1	1961.692	-1.664099	-2.247215E-005	0.0085775	8
	17	114	5928.309	1957.972	-57.72408	1	1958.823	-1.68868	-2.441865E-006	-0.0038279	8
	18	118	4733.456	1964.276	-54.05999	1	1965.02	-1.576473	2.187449E-005	-0.0077584	8
	19	123	3796.875	1978.173	-62.87094	1	1979.172	-1.82038	1.612067E-005	-0.0002831	8
	20	127	2987.132	1986.737	-65.14842	1	1987.805	-1.878151	-1.059993E-007	0.0061758	8
	21	131	2390.625	1994.443	-74.67789	1	1995.841	-2.144323	5.717836E-006	-0.0062113	8
	22	135	1884.191	1998.978	-90.23106	1	2001.013	-2.584497	-2.244233E-005	0.0085722	8
	23	139	1516.544	2020.001	-94.77121	1	2022.223	-2.686142	-1.562366E-005	0.0095764	8
	24	144	1193.986	2033.696	-105.8059	1	2036.446	-2.978209	-9.575488E-006	-0.0011916	8
	25	148	946.5144	2042.7	-120.9044	1	2046.275	-3.387302	-8.779331E-006	0.008411	8
	26	151	751.7689	2055.176	-141.1411	1	2060.017	-3.928672	2.15409E-005	-0.0076994	8
	27	153	597.4265	2067.474	-165.4877	1	2074.086	-4.576394	2.359684E-005	-0.0067551	8
	28	156	477.4305	2089.285	-195.387	1	2098.401	-5.342681	-3.087627E-007	0.0006533	8
	29	158	376.6741	2109.475	-228.1612	1	2121.778	-6.173125	-2.744513E-007	0.0006349	8
	30	160	298.2954	2131.803	-266.2984	1	2148.371	-7.120332	-2.757099E-007	0.0006302	8
	31	163	237.7717	2156.329	-310.1669	1	2178.522	-8.185296	-2.539653E-007	0.0006245	8
	32	165	189.0121	2184.091	-362.858	1	2214.028	-9.432782	-2.814321E-007	0.0006196	8
	33	168	150.2404	2215.789	-425.7018	1	2256.312	-10.87527	-2.843161E-007	0.000624	8
	34	170	119.1737	2251.772	-501.3581	1	2306.91	-12.55219	-3.143493E-007	0.0006486	8
	35	172	95.0169	2291.782	-589.1937	1	2366.308	-14.41792	-2.687407E-007	0.0006153	8
	36	175	75.60484	2338.765	-696.179	1	2440.182	-16.57666	-2.504263E-007	0.0006324	8
	37	177	54.50582	2416.807	-886.2979	1	2574.195	-20.13913	-2.6351E-007	0.000624	8
	38	180	45.95588	2466.023	-1007.401	1	2663.855	-22.22062	-2.595702E-007	0.0006154	8
	39	182	37.20238	2534.908	-1181.929	1	2796.911	-24.99781	-2.704499E-007	0.0006295	8
	40	185	30.04808	2616.784	-1390.348	1	2963.212	-27.98257	-3.160469E-007	0.0006393	8
	41	187	23.91582	2719.838	-1655.857	1	3184.24	-31.33335	-2.613653E-007	0.0006152	8
	42	189	18.60119	2858.455	-2010.312	1	3494.584	-35.11819	-3.012317E-007	0.0006107	8
	43	192	15.02404	3001.062	-2369.168	1	3823.523	-38.28909	-2.356875E-007	0.0006737	8
	44	194	12.01923	3183.138	-2820.356	1	4252.854	-41.54191	-8.267688E-008	0.0006397	7
	45	197	9.450605	3415.478	-3389.966	1	4812.209	-44.78521	-1.832792E-008	0.0005809	7
	46	199	7.512019	3688.25	-4042.032	1	5471.856	-47.62036	-2.408648E-008	0.0005745	7
	47	202	5.978954	4018.28	-4810.908	1	6268.286	-50.12989	-4.38766E-008	0.0006234	7
	48	205	4.734848	4435.191	-5743.748	1	7256.829	-52.3255	-5.601988E-008	0.0005689	7
	49	208	3.75601	4933.714	-6834.848	1	8429.513	-54.17648	-4.685789E-008	0.0006547	7
	50	212	3.004808	5514.918	-8060.837	1	9766.85	-55.62155	-6.915373E-008	0.000664	7
	51	215	2.372217	6263.328	-9591.29	1	11455.22	-56.85456	-4.994727E-008	0.000633	7
	52	219	1.878005	7181.06	-11360.32	1	13439.66	-57.7023	-5.307523E-008	0.0005833	7
	53	224	1.512097	8192.751	-13254.61	1	15582.23	-58.27955	-5.997483E-008	0.0007024	7
	54	230	1.201923	9473.923	-15622.65	1	18270.81	-58.76645	-5.326774E-008	0.0005759	7
	55	236	0.956633	10990.28	-18340.63	1	21381.42	-59.06864	-7.493307E-008	-3.006007E-005	7
