EXPLAIN
TAG	EISPOT
TITLE	LABEL	Potentiostatic EIS	Test Identifier
DATE	LABEL	9/23/2020	Date
TIME	LABEL	14:12:30	Time
NOTES	NOTES	1	Notes...
	
PSTAT	PSTAT	REF3000-16137	Potentiostat
VDC	POTEN	0.00000E+000	T	DC Voltage (V)
FREQINIT	QUANT	3.00000E+005	Initial Freq. (Hz)
FREQFINAL	QUANT	1.00000E+000	Final Freq. (Hz)
PTSPERDEC	QUANT	1.00000E+001	Points/decade
VAC	QUANT	5.00000E+001	AC Voltage (mV rms)
AREA	QUANT	1.00000E+000	Sample Area (cm^2)
SPEED	SELECTOR	2	Optimize for:
ZGUESS	QUANT	1.00000E+003	Estimated Z (ohms)
EOC	QUANT	0	Open Circuit (V)
SEQUENCER	TOGGLE	TRUE	Run as Sequence
PSTATMODEL	IQUANT	5	Pstat Model
PSTATSECTION	LABEL	REF3000-16137	Pstat Section
PSTATSERIALNO	LABEL	16137	Pstat Serial Number
CTRLMODE	IQUANT	1	Control Mode
IESTAB	IQUANT	0	I/E Stability
CASPEED	IQUANT	1	Control Amp Speed
CONVENTION	IQUANT	1	Current Convention
ICHRANGE	IQUANT	2	Ich Range
ICHRANGEMODE	TOGGLE	F	Ich Auto Range
ICHOFFSETENABLE	TOGGLE	T	Ich Offset Enable
ICHOFFSET	QUANT	0	Ich Offset (V)
ICHFILTER	IQUANT	3	Ich Filter
VCHRANGE	IQUANT	2	Vch Range
VCHRANGEMODE	TOGGLE	F	Vch Auto Range
VCHOFFSETENABLE	TOGGLE	T	Vch Offset Enable
VCHOFFSET	QUANT	0	Vch Offset (V)
VCHFILTER	IQUANT	3	Vch Filter
ACHRANGE	IQUANT	2	Ach Range
ACHOFFSETENABLE	TOGGLE	F	Ach Offset Enable
ACHOFFSET	QUANT	0	Ach Offset (V)
ACHFILTER	IQUANT	3	Ach Filter
IERANGELOWERLIMIT	IQUANT	2	I/E Range Lower Limit
IERANGEMODE	TOGGLE	F	I/E AutoRange
IERANGE	IQUANT	11	I/E Range
POSFEEDENABLE	TOGGLE	F	Positive Feedback IR Comp
POSFEEDRESISTANCE	QUANT	0	Positive Feedback Resistance (ohm)
ACHSELECT	IQUANT	0	Ach Select
CABLEID	IQUANT	13	Cable ID
DCCALDATE	LABEL	7/31/2020	DC Calibration Date
ACCALDATE	LABEL	7/31/2020	AC Calibration Date
THERMOSELECT	IQUANT	1	Thermo Select
FRAMEWORKVERSION	QUANT	6.33	Framework Version
INSTRUMENTVERSION	LABEL	3.50	Instrument Version
COMPLIANCEVOLTAGE	IQUANT	0	Compliance Voltage
ZCURVE	TABLE
	Pt	Time	Freq	Zreal	Zimag	Zsig	Zmod	Zphz	Idc	Vdc	IERange
	#	s	Hz	ohm	ohm	V	ohm	°	A	V	#
	0	26	300046.9	1211.281	-3023.78	1	3257.368	-68.16969	2.702259E-005	-0.0016922	9
	1	40	238359.4	1700.602	-3531.875	1	3919.973	-64.28914	1.987855E-005	-0.0010795	9
	2	54	189328.1	2248.937	-4147.878	1	4718.327	-61.53391	5.029906E-005	0.0001456	9
	3	62	150421.9	3082.747	-4464.985	1	5425.811	-55.37775	2.484957E-005	0.0011133	9
	4	70	119484.4	4181.786	-4873.471	1	6421.687	-49.36805	-3.297335E-005	-0.0048839	8
	5	78	94921.88	5213.273	-5067.386	1	7270.256	-44.187	1.738254E-005	1.723134E-005	8
	6	85	75421.88	6409.823	-5066.354	1	8170.298	-38.32301	-2.574914E-005	0.0095187	8
	7	94	59859.37	7498.895	-4862.811	1	8937.581	-32.96221	8.760233E-006	0.0037687	8
	8	103	47578.12	9373.778	-3787.356	1	10109.98	-22.00055	6.204169E-006	-0.0237545	7
	9	109	37828.12	9947.86	-3188.073	1	10446.23	-17.76953	-2.777819E-006	-0.0051021	7
	10	113	30046.88	10399.45	-2708.287	1	10746.32	-14.59707	-4.662816E-006	0.0028521	7
	11	119	23859.38	10669.25	-2262.573	1	10906.52	-11.97305	-5.853829E-006	0.0228391	7
	12	123	18984.38	10892.65	-1876.2	1	11053.05	-9.773	5.669563E-006	-0.0083127	7
	13	127	15046.87	11073.88	-1545.764	1	11181.24	-7.946375	-6.432536E-006	0.0203572	7
	14	132	11953.13	11174.21	-1246.699	1	11243.54	-6.366125	3.292218E-006	-0.0221242	7
	15	136	9515.62	11281.97	-1030.135	1	11328.9	-5.217103	-5.909821E-006	0.0229951	7
	16	140	7546.875	11337.83	-836.7982	1	11368.67	-4.221108	2.24741E-006	0.0082221	7
	17	144	5928.309	11423.22	-712.8125	1	11445.43	-3.570646	2.148439E-007	0.0149926	7
	18	149	4733.456	11466.24	-624.1162	1	11483.21	-3.115579	-4.860337E-006	0.0237519	7
	19	153	3796.875	11517.18	-459.2784	1	11526.33	-2.283613	-4.627156E-006	0.002739	7
	20	157	2987.132	11608.54	-400.6221	1	11615.45	-1.976549	4.881484E-006	-0.0238305	7
	21	161	2390.625	11608.96	-427.886	1	11616.84	-2.110867	-1.798524E-006	0.0200573	7
	22	166	1884.191	11736.21	-389.938	1	11742.68	-1.902965	-6.471953E-006	0.0207621	7
	23	170	1516.544	11654.07	-373.9522	1	11660.07	-1.837858	-4.620899E-006	0.0026721	7
	24	174	1193.986	11744.34	-368.9876	1	11750.13	-1.799547	3.261909E-006	-0.0220162	7
	25	179	946.5144	11741.26	-497.1501	1	11751.78	-2.424578	-1.789438E-006	0.0200822	7
	26	181	751.7689	11781.15	-449.7936	1	11789.73	-2.186439	-4.918167E-006	0.0239599	7
	27	184	597.4265	11929.23	-274.0997	1	11932.38	-1.316262	-2.760171E-006	-0.0053158	7
	28	187	477.4305	11949.05	-461.8624	1	11957.98	-2.213531	-8.742876E-008	0.000633	7
	29	189	376.6741	12010.29	-518.8469	1	12021.49	-2.473651	-8.508415E-008	0.0005869	7
	30	191	298.2954	12077.72	-589.618	1	12092.1	-2.794884	-7.619232E-008	0.0005596	7
	31	193	237.7717	12152.22	-671.2607	1	12170.75	-3.161673	-8.488402E-008	0.0006337	7
	32	196	189.0121	12235.61	-768.0275	1	12259.69	-3.591736	-8.12218E-008	0.0005794	7
	33	198	150.2404	12326.3	-881.3058	1	12357.77	-4.089573	-7.552627E-008	0.0005871	7
	34	201	119.1737	12432.29	-1018.888	1	12473.97	-4.685203	-8.384493E-008	0.0005789	7
	35	203	95.0169	12549.2	-1168.008	1	12603.44	-5.317447	-9.298814E-008	0.0006734	7
	36	206	75.60484	12679.31	-1348.814	1	12750.85	-6.07224	-8.862482E-008	0.0006475	7
	37	208	54.50582	12879.37	-1660.82	1	12986.01	-7.347852	-8.738509E-008	0.0005895	7
	38	211	45.95588	13014.92	-1850.221	1	13145.78	-8.09104	-7.131087E-008	0.0006376	7
	39	213	37.20238	13178.66	-2126.992	1	13349.2	-9.168287	-7.872269E-008	0.000663	7
	40	215	30.04808	13368.9	-2446.751	1	13590.96	-10.37138	-8.762373E-008	0.000637	7
	41	218	23.91582	13585.33	-2855.448	1	13882.18	-11.86999	-5.343363E-008	0.0005633	7
	42	220	18.60119	13897.18	-3396.657	1	14306.26	-13.73459	-1.288661E-007	0.0006472	7
	43	223	15.02404	14157.08	-3916.563	1	14688.85	-15.46414	-4.664823E-008	0.0006348	7
	44	225	12.01923	14467.85	-4612.512	1	15185.32	-17.68287	-7.153329E-008	0.0006321	7
	45	227	9.450605	14827.98	-5463.912	1	15802.63	-20.22817	-1.090451E-007	0.000561	7
	46	230	7.512019	15267.03	-6469.517	1	16581.22	-22.96516	-1.012811E-007	0.0005605	7
	47	233	5.978954	15791.01	-7693.269	1	17565.38	-25.97502	-9.659902E-008	0.0006523	7
	48	236	4.734848	16402.75	-9138.404	1	18776.6	-29.12333	-9.263367E-008	0.0006079	7
	49	239	3.75601	17143.37	-10877.64	1	20303.16	-32.39555	-7.17177E-008	0.0005725	7
	50	242	3.004808	17971.79	-12884.52	1	22113.26	-35.63788	-6.543697E-008	0.000531	7
	51	246	2.372217	19052.41	-15378.21	1	24484.36	-38.90884	-8.035899E-008	0.0005304	7
	52	250	1.878005	20317.49	-18402.64	1	27412.72	-42.16882	-7.528139E-008	0.0006077	7
	53	255	1.512097	21717.73	-21654.64	1	30668.93	-44.91666	-7.694306E-008	0.0005577	7
	54	260	1.201923	23572.26	-25816.16	1	34958.91	-47.60137	-7.814069E-008	0.0006284	7
	55	267	0.956633	25795.16	-30695.11	1	40094.64	-49.95741	-8.786071E-008	-3.734227E-005	7
