EXPLAIN
TAG	EISPOT
TITLE	LABEL	Potentiostatic EIS	Test Identifier
DATE	LABEL	9/23/2020	Date
TIME	LABEL	14:31:15	Time
NOTES	NOTES	1	Notes...
	
PSTAT	PSTAT	REF3000-16137	Potentiostat
VDC	POTEN	0.00000E+000	T	DC Voltage (V)
FREQINIT	QUANT	3.00000E+005	Initial Freq. (Hz)
FREQFINAL	QUANT	1.00000E+000	Final Freq. (Hz)
PTSPERDEC	QUANT	1.00000E+001	Points/decade
VAC	QUANT	5.00000E+001	AC Voltage (mV rms)
AREA	QUANT	1.00000E+000	Sample Area (cm^2)
SPEED	SELECTOR	2	Optimize for:
ZGUESS	QUANT	1.00000E+003	Estimated Z (ohms)
EOC	QUANT	0	Open Circuit (V)
SEQUENCER	TOGGLE	TRUE	Run as Sequence
PSTATMODEL	IQUANT	5	Pstat Model
PSTATSECTION	LABEL	REF3000-16137	Pstat Section
PSTATSERIALNO	LABEL	16137	Pstat Serial Number
CTRLMODE	IQUANT	1	Control Mode
IESTAB	IQUANT	0	I/E Stability
CASPEED	IQUANT	1	Control Amp Speed
CONVENTION	IQUANT	1	Current Convention
ICHRANGE	IQUANT	2	Ich Range
ICHRANGEMODE	TOGGLE	F	Ich Auto Range
ICHOFFSETENABLE	TOGGLE	T	Ich Offset Enable
ICHOFFSET	QUANT	0	Ich Offset (V)
ICHFILTER	IQUANT	3	Ich Filter
VCHRANGE	IQUANT	2	Vch Range
VCHRANGEMODE	TOGGLE	F	Vch Auto Range
VCHOFFSETENABLE	TOGGLE	T	Vch Offset Enable
VCHOFFSET	QUANT	0	Vch Offset (V)
VCHFILTER	IQUANT	3	Vch Filter
ACHRANGE	IQUANT	2	Ach Range
ACHOFFSETENABLE	TOGGLE	F	Ach Offset Enable
ACHOFFSET	QUANT	0	Ach Offset (V)
ACHFILTER	IQUANT	3	Ach Filter
IERANGELOWERLIMIT	IQUANT	2	I/E Range Lower Limit
IERANGEMODE	TOGGLE	F	I/E AutoRange
IERANGE	IQUANT	11	I/E Range
POSFEEDENABLE	TOGGLE	F	Positive Feedback IR Comp
POSFEEDRESISTANCE	QUANT	0	Positive Feedback Resistance (ohm)
ACHSELECT	IQUANT	0	Ach Select
CABLEID	IQUANT	13	Cable ID
DCCALDATE	LABEL	7/31/2020	DC Calibration Date
ACCALDATE	LABEL	7/31/2020	AC Calibration Date
THERMOSELECT	IQUANT	1	Thermo Select
FRAMEWORKVERSION	QUANT	6.33	Framework Version
INSTRUMENTVERSION	LABEL	3.50	Instrument Version
COMPLIANCEVOLTAGE	IQUANT	0	Compliance Voltage
ZCURVE	TABLE
	Pt	Time	Freq	Zreal	Zimag	Zsig	Zmod	Zphz	Idc	Vdc	IERange
	#	s	Hz	ohm	ohm	V	ohm	°	A	V	#
	0	23	300046.9	843.921	-3462.918	1	3564.268	-76.30386	2.412852E-005	0.0008958	9
	1	37	238359.4	1214.405	-4135.374	1	4310	-73.63445	-2.265535E-005	0.0014907	9
	2	56	189328.1	1611.528	-5010.086	1	5262.888	-72.16927	2.077336E-005	-0.0009631	9
	3	63	150421.9	2309.612	-5831.063	1	6271.81	-68.39209	-1.53193E-005	0.0018651	9
	4	71	119484.4	3368.044	-6986.921	1	7756.338	-64.26362	-3.237026E-005	-0.0052107	8
	5	78	94921.88	4517.047	-8096.027	1	9270.889	-60.84137	2.167878E-005	-0.0095162	8
	6	87	75421.88	5857.833	-9414.19	1	11087.88	-58.10871	-8.959979E-006	-0.0002174	9
	7	95	59859.37	7979.677	-10300.03	1	13029.43	-52.23422	-2.596284E-005	0.0076258	8
	8	104	47578.12	10352.82	-10813.98	1	14970.74	-46.24808	-1.609359E-005	0.0007915	8
	9	112	37828.12	12786.75	-11316.43	1	17075.2	-41.50922	-1.510702E-006	0.0073804	8
	10	121	30046.88	16383.67	-9971.19	1	19179.4	-31.32492	-4.938192E-006	0.0034723	7
	11	127	23859.38	18397.03	-9230.362	1	20582.76	-26.64435	-3.092687E-006	-0.0047245	7
	12	132	18984.38	19976.4	-8197.138	1	21592.82	-22.31036	-6.167626E-006	0.0109676	7
	13	136	15046.87	21318.53	-7098.933	1	22469.41	-18.41743	6.255264E-006	-0.0249948	7
	14	140	11953.13	22260.83	-5978.903	1	23049.77	-15.03393	6.004343E-006	-0.0090451	7
	15	144	9515.62	23000.4	-5062.288	1	23550.91	-12.41264	-6.601833E-006	0.0213794	7
	16	149	7546.875	23498.54	-4141.529	1	23860.71	-9.99551	-3.581746E-006	0.0235444	7
	17	153	5928.309	23651.59	-3304.73	1	23881.36	-7.954183	-2.40566E-005	0.0108836	8
	18	159	4733.456	25677.18	-1986.338	1	25753.9	-4.423483	-2.620276E-005	0.0096005	8
	19	167	3796.875	24099.65	-2512.917	1	24230.31	-5.95283	7.213148E-006	-0.0073793	8
	20	174	2987.132	24354.82	-2240.604	1	24457.67	-5.256322	-2.601299E-005	0.0076438	8
	21	181	2390.625	24971.41	-1439.879	1	25012.89	-3.300082	-1.604046E-005	0.0007991	8
	22	188	1884.191	25537.49	-1422.973	1	25577.11	-3.189276	2.583045E-005	-0.0052474	8
	23	196	1516.544	25132.93	-2132.876	1	25223.27	-4.850717	2.580612E-005	-0.0052382	8
	24	202	1193.986	25412.72	-1201.112	1	25441.09	-2.706025	-9.811289E-006	-0.0019124	8
	25	210	946.5144	25239.28	-914.9209	1	25255.86	-2.076056	2.538961E-006	0.0076775	7
	26	214	751.7689	24712.54	-1116.388	1	24737.74	-2.586576	-1.613585E-006	0.0074107	8
	27	219	597.4265	24114.73	-1011.496	1	24135.94	-2.401872	9.514755E-006	0.0004097	9
	28	224	477.4305	25977.08	-866.3101	1	25991.52	-1.91005	-8.331237E-008	0.0006002	7
	29	227	376.6741	26082.21	-898.8171	1	26097.69	-1.973685	-8.116275E-008	0.0005853	7
	30	229	298.2954	26196.87	-965.95	1	26214.67	-2.111695	-9.201674E-008	0.0006276	7
	31	232	237.7717	26316.05	-1041.584	1	26336.66	-2.266571	-8.851669E-008	0.0006435	7
	32	234	189.0121	26448.41	-1158.217	1	26473.76	-2.50747	-7.970907E-008	0.0005638	7
	33	236	150.2404	26598.36	-1303.022	1	26630.25	-2.804611	-8.315076E-008	0.0005626	7
	34	239	119.1737	26798.53	-1466.311	1	26838.62	-3.131879	-8.807798E-008	0.0005637	7
	35	241	95.0169	26962.9	-1669.411	1	27014.53	-3.542953	-8.825069E-008	0.0006314	7
	36	244	75.60484	27175.86	-1906.766	1	27242.67	-4.013521	-8.931675E-008	0.0006393	7
	37	246	54.50582	27490.76	-2305.717	1	27587.28	-4.794317	-8.062043E-008	0.0005592	7
	38	249	45.95588	27715.73	-2570.335	1	27834.66	-5.298409	-8.001662E-008	0.000644	7
	39	251	37.20238	27981.36	-2922.303	1	28133.55	-5.962214	-7.555384E-008	0.0005617	7
	40	254	30.04808	28291.61	-3343.192	1	28488.46	-6.739334	-8.546519E-008	0.0005715	7
	41	256	23.91582	28623.94	-3863.309	1	28883.48	-7.686633	-7.419153E-008	0.000638	7
	42	258	18.60119	29083.39	-4552.529	1	29437.55	-8.896521	-8.133756E-008	0.0005734	7
	43	261	15.02404	29557.52	-5201.01	1	30011.62	-9.97974	-1.152823E-007	0.0006497	7
	44	263	12.01923	29963.03	-5969.337	1	30551.86	-11.26714	-5.81376E-008	0.0005569	7
	45	265	9.450605	30524.91	-7034.721	1	31325.03	-12.97771	-5.626309E-008	0.0005462	7
	46	268	7.512019	31174.72	-8344.179	1	32272.1	-14.98446	-7.492373E-008	0.0006693	7
	47	271	5.978954	31883.96	-9733.19	1	33336.5	-16.97582	-9.187699E-008	0.0006469	7
	48	274	4.734848	32761.73	-11560.51	1	34741.57	-19.43622	-7.015059E-008	0.0005823	7
	49	277	3.75601	33702.15	-13660.5	1	36365.43	-22.0642	-9.957611E-008	0.0005975	7
	50	280	3.004808	34836.32	-16024.73	1	38345.29	-24.70246	-9.187273E-008	0.0006308	7
	51	284	2.372217	36254.61	-19109.53	1	40982.57	-27.79337	-1.589123E-008	0.0006739	6
	52	288	1.878005	37891.43	-22744.19	1	44193.42	-30.97413	-1.649324E-008	0.000641	6
	53	293	1.512097	39618.32	-26730.93	1	47792.82	-34.00798	-1.333504E-008	0.0005836	6
	54	298	1.201923	41806.77	-31804.69	1	52529.46	-37.26223	-1.279118E-008	0.0006367	6
	55	305	0.956633	44478.96	-37768.33	1	58350.88	-40.33552	-1.44299E-008	8.374192E-006	6
