EXPLAIN
TAG	EISPOT
TITLE	LABEL	Potentiostatic EIS	Test Identifier
DATE	LABEL	9/23/2020	Date
TIME	LABEL	13:30:04	Time
NOTES	NOTES	1	Notes...
	
PSTAT	PSTAT	REF3000-16137	Potentiostat
VDC	POTEN	0.00000E+000	T	DC Voltage (V)
FREQINIT	QUANT	3.00000E+005	Initial Freq. (Hz)
FREQFINAL	QUANT	1.00000E+000	Final Freq. (Hz)
PTSPERDEC	QUANT	1.00000E+001	Points/decade
VAC	QUANT	5.00000E+001	AC Voltage (mV rms)
AREA	QUANT	1.00000E+000	Sample Area (cm^2)
SPEED	SELECTOR	2	Optimize for:
ZGUESS	QUANT	1.00000E+003	Estimated Z (ohms)
EOC	QUANT	0	Open Circuit (V)
SEQUENCER	TOGGLE	TRUE	Run as Sequence
PSTATMODEL	IQUANT	5	Pstat Model
PSTATSECTION	LABEL	REF3000-16137	Pstat Section
PSTATSERIALNO	LABEL	16137	Pstat Serial Number
CTRLMODE	IQUANT	1	Control Mode
IESTAB	IQUANT	0	I/E Stability
CASPEED	IQUANT	1	Control Amp Speed
CONVENTION	IQUANT	1	Current Convention
ICHRANGE	IQUANT	2	Ich Range
ICHRANGEMODE	TOGGLE	F	Ich Auto Range
ICHOFFSETENABLE	TOGGLE	T	Ich Offset Enable
ICHOFFSET	QUANT	0	Ich Offset (V)
ICHFILTER	IQUANT	3	Ich Filter
VCHRANGE	IQUANT	2	Vch Range
VCHRANGEMODE	TOGGLE	F	Vch Auto Range
VCHOFFSETENABLE	TOGGLE	T	Vch Offset Enable
VCHOFFSET	QUANT	0	Vch Offset (V)
VCHFILTER	IQUANT	3	Vch Filter
ACHRANGE	IQUANT	2	Ach Range
ACHOFFSETENABLE	TOGGLE	F	Ach Offset Enable
ACHOFFSET	QUANT	0	Ach Offset (V)
ACHFILTER	IQUANT	3	Ach Filter
IERANGELOWERLIMIT	IQUANT	2	I/E Range Lower Limit
IERANGEMODE	TOGGLE	F	I/E AutoRange
IERANGE	IQUANT	11	I/E Range
POSFEEDENABLE	TOGGLE	F	Positive Feedback IR Comp
POSFEEDRESISTANCE	QUANT	0	Positive Feedback Resistance (ohm)
ACHSELECT	IQUANT	0	Ach Select
CABLEID	IQUANT	13	Cable ID
DCCALDATE	LABEL	7/31/2020	DC Calibration Date
ACCALDATE	LABEL	7/31/2020	AC Calibration Date
THERMOSELECT	IQUANT	1	Thermo Select
FRAMEWORKVERSION	QUANT	6.33	Framework Version
INSTRUMENTVERSION	LABEL	3.50	Instrument Version
COMPLIANCEVOLTAGE	IQUANT	0	Compliance Voltage
ZCURVE	TABLE
	Pt	Time	Freq	Zreal	Zimag	Zsig	Zmod	Zphz	Idc	Vdc	IERange
	#	s	Hz	ohm	ohm	V	ohm	°	A	V	#
	0	14	300046.9	1635.415	-1242.579	1	2053.92	-37.22737	-2.30309E-005	0.00113	9
	1	27	238359.4	1882.163	-1175.067	1	2218.855	-31.97724	1.823586E-005	-0.0010144	9
	2	46	189328.1	2117.077	-1077.752	1	2375.619	-26.97952	1.778926E-005	-0.0020806	9
	3	52	150421.9	2304.217	-942.3047	1	2489.448	-22.242	2.664986E-005	-0.0014566	9
	4	62	119484.4	2454.404	-716.7516	1	2556.919	-16.27921	3.620372E-005	-0.0170917	8
	5	70	94921.88	2550.516	-607.9998	1	2621.983	-13.4081	-1.912571E-005	0.0031024	8
	6	75	75421.88	2596.652	-561.5106	1	2656.67	-12.202	-1.383437E-006	0.0007863	9
	7	82	59859.37	2654.562	-416.406	1	2687.023	-8.915015	-2.130741E-005	0.0099302	8
	8	87	47578.12	2689.068	-337.4841	1	2710.163	-7.153349	-2.363209E-005	0.0088698	8
	9	92	37828.12	2709.385	-284.5187	1	2724.283	-5.994789	2.293577E-005	-0.0081488	8
	10	97	30046.88	2739.472	-251.4268	1	2750.986	-5.243875	-2.340636E-005	0.0004664	9
	11	105	23859.38	2745.366	-179.8092	1	2751.248	-3.747266	-1.90902E-005	0.0031517	8
	12	110	18984.38	2773.804	-175.7406	1	2779.366	-3.625256	-2.58549E-005	0.0006583	9
	13	116	15046.87	2772.147	-137.2847	1	2775.544	-2.835136	2.298126E-005	-0.0080969	8
	14	121	11953.13	2787.107	-113.6607	1	2789.423	-2.335279	2.438243E-005	-0.0068649	8
	15	126	9515.62	2798.575	-98.2205	1	2800.298	-2.010062	-2.147101E-005	0.0099662	8
	16	131	7546.875	2814.23	-96.8143	1	2815.895	-1.970296	-2.317366E-005	0.0004635	9
	17	136	5928.309	2818.529	-82.4521	1	2819.735	-1.675629	2.445234E-005	-0.0068756	8
	18	142	4733.456	2841.534	-62.76818	1	2842.227	-1.265432	-2.138707E-005	0.0099978	8
	19	147	3796.875	2847.579	-86.05965	1	2848.879	-1.731068	-9.399858E-006	0.0089052	8
	20	152	2987.132	2865.664	-91.81332	1	2867.135	-1.835078	1.992566E-005	-8.647208E-006	9
	21	158	2390.625	2863.962	-95.8715	1	2865.567	-1.917268	-9.39128E-006	0.0089575	8
	22	163	1884.191	2857.559	-101.8022	1	2859.372	-2.040332	2.298473E-005	-0.0081285	8
	23	168	1516.544	2904.722	-119.8151	1	2907.192	-2.362019	-2.200687E-005	0.005227	8
	24	174	1193.986	2940.952	-136.9112	1	2944.137	-2.665386	1.853821E-005	-0.0009324	9
	25	180	946.5144	2949.365	-184.0619	1	2955.103	-3.571043	-9.83903E-007	0.0067471	8
	26	183	751.7689	2933.678	-190.3398	1	2939.846	-3.7122	-2.18568E-005	0.0050557	8
	27	187	597.4265	2988.408	-192.4378	1	2994.597	-3.684461	2.359844E-005	-0.0047901	8
	28	191	477.4305	2999.115	-230.8073	1	3007.984	-4.400721	-3.335958E-007	0.0006583	8
	29	194	376.6741	3025.156	-267.9617	1	3037.001	-5.061923	-3.120073E-007	0.0006166	8
	30	196	298.2954	3053.519	-311.3077	1	3069.347	-5.82122	-2.81988E-007	0.0006146	8
	31	199	237.7717	3084.544	-360.6259	1	3105.553	-6.668398	-3.148858E-007	0.0006206	8
	32	201	189.0121	3119.72	-419.4091	1	3147.786	-7.656825	-2.819354E-007	0.0006123	8
	33	203	150.2404	3158.852	-488.9208	1	3196.466	-8.798311	-2.85731E-007	0.0006278	8
	34	206	119.1737	3203.567	-572.5687	1	3254.332	-10.13339	-2.952654E-007	0.0006286	8
	35	208	95.0169	3252.604	-669.0577	1	3320.704	-11.62356	-3.313336E-007	0.0006323	8
	36	211	75.60484	3308.83	-785.2303	1	3400.727	-13.35011	-2.996514E-007	0.0006331	8
	37	213	54.50582	3401.438	-992.457	1	3543.269	-16.26596	-3.058856E-007	0.0006373	8
	38	216	45.95588	3469.781	-1125.988	1	3647.907	-17.97891	-4.834504E-008	0.0006189	7
	39	218	37.20238	3549.523	-1316.501	1	3785.801	-20.34957	-4.309337E-008	0.0005965	7
	40	221	30.04808	3641.964	-1542.986	1	3955.339	-22.96085	-5.57989E-008	0.000637	7
	41	223	23.91582	3757.028	-1831.836	1	4179.819	-25.99274	-4.986778E-008	0.000575	7
	42	225	18.60119	3911.518	-2219.387	1	4497.294	-29.57048	-2.881555E-008	0.0006279	7
	43	228	15.02404	4064.128	-2607.835	1	4828.866	-32.68713	-4.237468E-008	0.0006166	7
	44	230	12.01923	4252.969	-3094.898	1	5259.861	-36.0435	-8.569283E-008	0.0006243	7
	45	232	9.450605	4505.124	-3722.562	1	5844.108	-39.56676	-9.529777E-008	0.0006481	7
	46	235	7.512019	4792.263	-4437.79	1	6531.444	-42.80068	-9.604356E-008	0.0006208	7
	47	238	5.978954	5144.969	-5290.916	1	7380.006	-45.80124	-6.601888E-008	0.0006069	7
	48	241	4.734848	5577.795	-6324.734	1	8432.915	-48.59087	-8.234895E-008	0.0005949	7
	49	244	3.75601	6110.622	-7534.801	1	9701.18	-50.95842	-4.369348E-008	0.0006188	7
	50	247	3.004808	6732.66	-8912.549	1	11169.7	-52.93211	-5.031921E-008	0.000585	7
	51	251	2.372217	7546.232	-10615.97	1	13024.76	-54.59335	-6.235636E-008	0.0005466	7
	52	255	1.878005	8511.125	-12646.14	1	15243.49	-56.05859	-5.056728E-008	0.0006013	7
	53	260	1.512097	9570.43	-14808.14	1	17631.62	-57.1256	-5.837836E-008	0.0006314	7
	54	265	1.201923	10977.39	-17507.7	1	20664.53	-57.91213	-5.693622E-008	0.00062	7
	55	272	0.956633	12648.42	-20627.18	1	24196.35	-58.48371	-7.734084E-008	-3.811803E-005	7
