EXPLAIN
TAG	EISPOT
TITLE	LABEL	Potentiostatic EIS	Test Identifier
DATE	LABEL	9/23/2020	Date
TIME	LABEL	13:45:17	Time
NOTES	NOTES	1	Notes...
	
PSTAT	PSTAT	REF3000-16137	Potentiostat
VDC	POTEN	0.00000E+000	T	DC Voltage (V)
FREQINIT	QUANT	3.00000E+005	Initial Freq. (Hz)
FREQFINAL	QUANT	1.00000E+000	Final Freq. (Hz)
PTSPERDEC	QUANT	1.00000E+001	Points/decade
VAC	QUANT	5.00000E+001	AC Voltage (mV rms)
AREA	QUANT	1.00000E+000	Sample Area (cm^2)
SPEED	SELECTOR	2	Optimize for:
ZGUESS	QUANT	1.00000E+003	Estimated Z (ohms)
EOC	QUANT	0	Open Circuit (V)
SEQUENCER	TOGGLE	TRUE	Run as Sequence
PSTATMODEL	IQUANT	5	Pstat Model
PSTATSECTION	LABEL	REF3000-16137	Pstat Section
PSTATSERIALNO	LABEL	16137	Pstat Serial Number
CTRLMODE	IQUANT	1	Control Mode
IESTAB	IQUANT	0	I/E Stability
CASPEED	IQUANT	1	Control Amp Speed
CONVENTION	IQUANT	1	Current Convention
ICHRANGE	IQUANT	2	Ich Range
ICHRANGEMODE	TOGGLE	F	Ich Auto Range
ICHOFFSETENABLE	TOGGLE	T	Ich Offset Enable
ICHOFFSET	QUANT	0	Ich Offset (V)
ICHFILTER	IQUANT	3	Ich Filter
VCHRANGE	IQUANT	2	Vch Range
VCHRANGEMODE	TOGGLE	F	Vch Auto Range
VCHOFFSETENABLE	TOGGLE	T	Vch Offset Enable
VCHOFFSET	QUANT	0	Vch Offset (V)
VCHFILTER	IQUANT	3	Vch Filter
ACHRANGE	IQUANT	2	Ach Range
ACHOFFSETENABLE	TOGGLE	F	Ach Offset Enable
ACHOFFSET	QUANT	0	Ach Offset (V)
ACHFILTER	IQUANT	3	Ach Filter
IERANGELOWERLIMIT	IQUANT	2	I/E Range Lower Limit
IERANGEMODE	TOGGLE	F	I/E AutoRange
IERANGE	IQUANT	11	I/E Range
POSFEEDENABLE	TOGGLE	F	Positive Feedback IR Comp
POSFEEDRESISTANCE	QUANT	0	Positive Feedback Resistance (ohm)
ACHSELECT	IQUANT	0	Ach Select
CABLEID	IQUANT	13	Cable ID
DCCALDATE	LABEL	7/31/2020	DC Calibration Date
ACCALDATE	LABEL	7/31/2020	AC Calibration Date
THERMOSELECT	IQUANT	1	Thermo Select
FRAMEWORKVERSION	QUANT	6.33	Framework Version
INSTRUMENTVERSION	LABEL	3.50	Instrument Version
COMPLIANCEVOLTAGE	IQUANT	0	Compliance Voltage
ZCURVE	TABLE
	Pt	Time	Freq	Zreal	Zimag	Zsig	Zmod	Zphz	Idc	Vdc	IERange
	#	s	Hz	ohm	ohm	V	ohm	°	A	V	#
	0	15	300046.9	1675.268	-1942.5	1	2565.118	-49.22458	2.342331E-005	0.0009389	9
	1	29	238359.4	2094.625	-2010.363	1	2903.276	-43.82407	2.768374E-005	-0.0021234	9
	2	43	189328.1	2592.183	-1956.857	1	3247.877	-37.0494	2.589692E-005	-0.0015472	9
	3	51	150421.9	2920.65	-1878.458	1	3472.579	-32.74768	1.076412E-006	0.0016895	9
	4	58	119484.4	3245.85	-1693.458	1	3661.058	-27.55241	1.868995E-005	-0.0019893	9
	5	66	94921.88	3595.157	-1502.155	1	3896.36	-22.67651	2.871845E-005	-0.0008883	9
	6	73	75421.88	3834.099	-1172.711	1	4009.435	-17.00696	-1.567691E-005	0.0009775	8
	7	81	59859.37	3974.167	-1001.228	1	4098.348	-14.14049	1.710936E-005	-0.0001003	8
	8	87	47578.12	4105.532	-837.9287	1	4190.169	-11.53549	-1.738887E-005	0.0104641	8
	9	95	37828.12	4210.917	-666.9097	1	4263.401	-8.999548	-1.9607E-005	0.003081	8
	10	102	30046.88	4254.413	-578.1655	1	4293.519	-7.738963	1.996496E-005	-0.0088162	8
	11	110	23859.38	4296.455	-470.0437	1	4322.09	-6.243482	2.394219E-005	-0.0083982	8
	12	115	18984.38	4326.509	-386.8021	1	4343.766	-5.108821	2.466277E-005	-0.0050933	8
	13	120	15046.87	4352.089	-311.3728	1	4363.213	-4.092288	-1.005625E-005	-0.0014313	8
	14	126	11953.13	4382.008	-257.481	1	4389.566	-3.362758	2.463308E-005	-0.0051388	8
	15	131	9515.62	4402.363	-222.4483	1	4407.98	-2.892655	-2.270686E-005	0.0053243	8
	16	137	7546.875	4419.021	-197.9619	1	4423.453	-2.565003	-2.432771E-005	0.0090829	8
	17	142	5928.309	4453.935	-173.7837	1	4457.324	-2.234434	-6.69964E-007	0.0068153	8
	18	148	4733.456	4456.682	-97.6885	1	4457.752	-1.255697	3.30739E-006	-0.0205267	7
	19	151	3796.875	4497.264	-98.6382	1	4498.346	-1.256463	3.202957E-006	-0.020212	7
	20	155	2987.132	4491.073	-110.9929	1	4492.444	-1.415726	4.741898E-006	-0.0218565	7
	21	159	2390.625	4536.301	-154.197	1	4538.921	-1.946837	1.715446E-005	-9.222311E-005	8
	22	164	1884.191	4535.796	-104.4004	1	4536.997	-1.318544	-9.839099E-006	-0.0015543	8
	23	169	1516.544	4547.575	-105.6615	1	4548.802	-1.33101	2.398439E-005	-0.0084701	8
	24	175	1193.986	4595.897	-207.1025	1	4600.562	-2.580144	-2.173658E-006	-0.0043616	8
	25	180	946.5144	4660.462	-190.6302	1	4664.359	-2.342304	5.202945E-006	-0.0067744	7
	26	183	751.7689	4609.399	-203.5809	1	4613.893	-2.528908	-2.091168E-007	0.0067379	8
	27	187	597.4265	4650.821	-225.4576	1	4656.283	-2.775352	-5.287193E-006	0.0082578	7
	28	189	477.4305	4686.644	-286.0381	1	4695.365	-3.492579	-3.769795E-007	0.0006641	8
	29	192	376.6741	4734.905	-325.0917	1	4746.052	-3.92768	-7.809864E-008	0.0005888	7
	30	194	298.2954	4772.008	-376.9155	1	4786.87	-4.516113	-7.594146E-008	0.0006539	7
	31	196	237.7717	4813.107	-435.9097	1	4832.806	-5.175001	-7.37492E-008	0.0006493	7
	32	199	189.0121	4859.605	-505.3846	1	4885.814	-5.937249	-7.710746E-008	0.0006478	7
	33	201	150.2404	4912.035	-586.68	1	4946.947	-6.810986	-7.823215E-008	0.0006461	7
	34	204	119.1737	4971.853	-682.6022	1	5018.492	-7.817454	-7.189241E-008	0.0006485	7
	35	206	95.0169	5035.793	-793.5812	1	5097.939	-8.955485	-7.198857E-008	0.0005757	7
	36	208	75.60484	5109.617	-925.9097	1	5192.831	-10.27107	-7.358609E-008	0.0006163	7
	37	211	54.50582	5227.625	-1158.898	1	5354.541	-12.4996	-7.272651E-008	0.0005661	7
	38	214	45.95588	5301.052	-1304.735	1	5459.257	-13.82723	-9.047513E-008	0.0006549	7
	39	216	37.20238	5400.643	-1516.348	1	5609.479	-15.68324	-8.729354E-008	0.0006518	7
	40	218	30.04808	5513.13	-1767.059	1	5789.396	-17.7716	-7.029259E-008	0.000647	7
	41	221	23.91582	5649.799	-2088.974	1	6023.624	-20.29152	-5.488704E-008	0.0006571	7
	42	223	18.60119	5831.762	-2519.984	1	6352.934	-23.36983	-2.399529E-008	0.0006663	7
	43	225	15.02404	6011.002	-2950.305	1	6696.002	-26.14261	-1.061702E-007	0.000596	7
	44	228	12.01923	6226.258	-3482.837	1	7134.175	-29.22173	-3.120129E-008	0.0006064	7
	45	230	9.450605	6499.16	-4188.228	1	7731.774	-32.79879	-8.176399E-008	0.0005751	7
	46	233	7.512019	6824.387	-4992.286	1	8455.482	-36.18682	-7.717165E-008	0.0006102	7
	47	235	5.978954	7204.649	-5942.017	1	9338.872	-39.51402	-5.420002E-008	0.0005727	7
	48	238	4.734848	7682.432	-7098.491	1	10459.84	-42.73763	-5.299187E-008	0.0006078	7
	49	242	3.75601	8262.259	-8473.131	1	11834.65	-45.72191	-7.098186E-008	0.0005586	7
	50	245	3.004808	8931.853	-10040.5	1	13438.36	-48.34426	-7.919008E-008	0.0006574	7
	51	249	2.372217	9814.39	-12013.92	1	15513.1	-50.75399	-6.535583E-008	0.0006703	7
	52	253	1.878005	10862.61	-14308.91	1	17965	-52.79604	-7.202738E-008	0.0005844	7
	53	258	1.512097	12053.13	-16795.14	1	20672.56	-54.33465	-7.289663E-008	0.0007034	7
	54	263	1.201923	13564.45	-19942.76	1	24118.62	-55.77768	-7.070653E-008	0.0006121	7
	55	269	0.956633	15378.16	-23604.83	1	28172.26	-56.91642	-8.309188E-008	-2.539746E-005	7
