EXPLAIN
TAG	EISPOT
TITLE	LABEL	Potentiostatic EIS	Test Identifier
DATE	LABEL	9/23/2020	Date
TIME	LABEL	15:45:53	Time
NOTES	NOTES	1	Notes...
	
PSTAT	PSTAT	REF3000-16137	Potentiostat
VDC	POTEN	0.00000E+000	T	DC Voltage (V)
FREQINIT	QUANT	3.00000E+005	Initial Freq. (Hz)
FREQFINAL	QUANT	1.00000E+000	Final Freq. (Hz)
PTSPERDEC	QUANT	1.00000E+001	Points/decade
VAC	QUANT	5.00000E+001	AC Voltage (mV rms)
AREA	QUANT	1.00000E+000	Sample Area (cm^2)
SPEED	SELECTOR	2	Optimize for:
ZGUESS	QUANT	1.00000E+003	Estimated Z (ohms)
EOC	QUANT	0	Open Circuit (V)
SEQUENCER	TOGGLE	TRUE	Run as Sequence
PSTATMODEL	IQUANT	5	Pstat Model
PSTATSECTION	LABEL	REF3000-16137	Pstat Section
PSTATSERIALNO	LABEL	16137	Pstat Serial Number
CTRLMODE	IQUANT	1	Control Mode
IESTAB	IQUANT	0	I/E Stability
CASPEED	IQUANT	1	Control Amp Speed
CONVENTION	IQUANT	1	Current Convention
ICHRANGE	IQUANT	2	Ich Range
ICHRANGEMODE	TOGGLE	F	Ich Auto Range
ICHOFFSETENABLE	TOGGLE	T	Ich Offset Enable
ICHOFFSET	QUANT	0	Ich Offset (V)
ICHFILTER	IQUANT	3	Ich Filter
VCHRANGE	IQUANT	2	Vch Range
VCHRANGEMODE	TOGGLE	F	Vch Auto Range
VCHOFFSETENABLE	TOGGLE	T	Vch Offset Enable
VCHOFFSET	QUANT	0	Vch Offset (V)
VCHFILTER	IQUANT	3	Vch Filter
ACHRANGE	IQUANT	2	Ach Range
ACHOFFSETENABLE	TOGGLE	F	Ach Offset Enable
ACHOFFSET	QUANT	0	Ach Offset (V)
ACHFILTER	IQUANT	3	Ach Filter
IERANGELOWERLIMIT	IQUANT	2	I/E Range Lower Limit
IERANGEMODE	TOGGLE	F	I/E AutoRange
IERANGE	IQUANT	11	I/E Range
POSFEEDENABLE	TOGGLE	F	Positive Feedback IR Comp
POSFEEDRESISTANCE	QUANT	0	Positive Feedback Resistance (ohm)
ACHSELECT	IQUANT	0	Ach Select
CABLEID	IQUANT	13	Cable ID
DCCALDATE	LABEL	7/31/2020	DC Calibration Date
ACCALDATE	LABEL	7/31/2020	AC Calibration Date
THERMOSELECT	IQUANT	1	Thermo Select
FRAMEWORKVERSION	QUANT	6.33	Framework Version
INSTRUMENTVERSION	LABEL	3.50	Instrument Version
COMPLIANCEVOLTAGE	IQUANT	0	Compliance Voltage
ZCURVE	TABLE
	Pt	Time	Freq	Zreal	Zimag	Zsig	Zmod	Zphz	Idc	Vdc	IERange
	#	s	Hz	ohm	ohm	V	ohm	°	A	V	#
	0	14	300046.9	101.2085	-4296.37	1	4297.562	-88.65055	2.189896E-006	0.0015808	9
	1	28	238359.4	216.735	-5315.419	1	5319.836	-87.66507	2.494926E-005	0.0009699	9
	2	48	189328.1	301.965	-6536.721	1	6543.691	-87.35509	1.932334E-005	-0.0021337	9
	3	55	150421.9	364.6297	-8101.291	1	8109.493	-87.42292	1.352015E-007	0.0016408	9
	4	65	119484.4	897.7672	-10202.94	1	10242.37	-84.97144	-1.821188E-005	0.017208	8
	5	72	94921.88	741.8399	-12702.09	1	12723.73	-86.65755	-1.66828E-006	0.0008111	9
	6	81	75421.88	1452.282	-15941.76	1	16007.78	-84.79477	-2.64019E-005	0.0075754	8
	7	89	59859.37	1578.368	-19860.82	1	19923.44	-85.45618	2.606049E-005	-0.0089847	8
	8	97	47578.12	2099.256	-25272.47	1	25359.51	-85.25163	-1.197763E-005	0.0102199	8
	9	105	37828.12	6118.007	-31692.71	1	32277.82	-79.07394	-3.359067E-006	-0.0048933	7
	10	112	30046.88	7264.662	-38991.61	1	39662.59	-79.44603	4.485921E-007	0.0158403	7
	11	120	23859.38	8923.927	-48476.84	1	49291.39	-79.5694	-5.230615E-006	0.0262249	7
	12	125	18984.38	9629.57	-60668.84	1	61428.3	-80.98105	5.00563E-006	-0.0008905	7
	13	130	15046.87	11735.37	-74738.53	1	75654.26	-81.07633	6.755005E-006	-0.026693	7
	14	136	11953.13	16519.49	-91957.48	1	93429.5	-79.81586	5.21565E-006	-0.0262792	7
	15	142	9515.62	22478.93	-112444.8	1	114669.7	-78.69498	6.488595E-006	-0.0101134	7
	16	149	7546.875	24041.78	-140751.5	1	142790.1	-80.30685	6.317247E-006	-0.009329	7
	17	154	5928.309	50725.18	-187502.2	1	194242.4	-74.86206	-1.685497E-006	0.0213993	7
	18	161	4733.456	58339.93	-186291.8	1	195213.2	-72.61131	7.417829E-006	-0.0182831	7
	19	166	3796.875	78542.28	-249460.2	1	261532.5	-72.52345	7.304683E-006	-0.0177226	7
	20	172	2987.132	32584.3	-171840.2	1	174902.2	-79.26306	-2.668628E-005	0.0096502	8
	21	180	2390.625	113461.1	-355565.6	1	373229.6	-72.30209	-6.409318E-006	0.0252981	7
	22	187	1884.191	229844.5	-367390.9	1	433364.3	-57.96936	4.846388E-006	-0.000859	7
	23	195	1516.544	407637.1	-496862.8	1	642682.3	-50.6338	-6.360424E-006	0.0253752	7
	24	202	1193.986	488692.1	-407539	1	636323.8	-39.82602	1.16772E-006	-0.0193495	7
	25	208	946.5144	493730.1	-671800.1	1	833717.4	-53.68649	1.523031E-008	0.0167502	6
	26	212	751.7689	564000.8	-755988.4	1	943194.3	-53.27543	7.062065E-007	-0.0268734	6
	27	216	597.4265	457886.7	-1096960	1	1188689	-67.34364	-6.446879E-006	0.0113037	7
	28	222	477.4305	973998	-762448.3	1	1236931	-38.05395	-9.839207E-008	0.000631	7
	29	228	376.6741	1261674	-612342.9	1	1402421	-25.88923	-1.007271E-009	0.0005775	5
	30	230	298.2954	1370747	-545844.1	1	1475430	-21.71291	-1.021237E-009	0.0005914	5
	31	233	237.7717	1457996	-472212.3	1	1532559	-17.94598	-1.103197E-009	0.0006938	5
	32	236	189.0121	1516514	-407078.7	1	1570200	-15.02573	-1.055408E-009	0.0005836	5
	33	239	150.2404	1567906	-350716.8	1	1606653	-12.60864	-1.101538E-009	0.0006787	5
	34	241	119.1737	1560850	-242279.8	1	1579542	-8.823207	-1.0606E-009	0.0006205	5
	35	244	95.0169	1633205	-244259.7	1	1651370	-8.506024	-1.113278E-009	0.0006643	5
	36	247	75.60484	1663201	-201220.3	1	1675329	-6.898332	-1.056949E-009	0.0006758	5
	37	250	54.50582	1658793	-172075.8	1	1667694	-5.922426	-1.034077E-009	0.0005873	5
	38	253	45.95588	1681142	-134055.9	1	1686479	-4.559175	-9.503449E-010	0.00059	5
	39	255	37.20238	1706542	-124807	1	1711100	-4.182849	-1.18032E-009	0.0006765	5
	40	258	30.04808	1706399	-115988	1	1710337	-3.888551	-1.113831E-009	0.0006797	5
	41	261	23.91582	1718080	-97124.9	1	1720823	-3.235548	-1.054965E-009	0.0006299	5
	42	264	18.60119	1743814	-125827.7	1	1748347	-4.127117	-1.364E-009	0.0005977	5
	43	266	15.02404	1744289	-89518.03	1	1746585	-2.937879	-1.013365E-009	0.0006734	5
	44	268	12.01923	1757118	-87998.8	1	1759320	-2.867054	-1.225678E-009	0.0006674	5
	45	271	9.450605	1771875	-89010.73	1	1774110	-2.875855	-1.038086E-009	0.0005985	5
	46	274	7.512019	1784301	-89621.88	1	1786550	-2.875437	-9.703319E-010	0.0005903	5
	47	277	5.978954	1803014	-96379	1	1805588	-3.059798	-8.327086E-010	0.0006043	5
	48	281	4.734848	1819658	-99813	1	1822394	-3.139677	-9.901212E-010	0.0005762	5
	49	285	3.75601	1840322	-107680.7	1	1843470	-3.348665	-1.117022E-009	0.0005828	5
	50	290	3.004808	1866383	-115373.9	1	1869946	-3.537341	-8.724036E-010	0.0006379	5
	51	297	2.372217	1892411	-122518.6	1	1896373	-3.704276	-1.237778E-009	0.0006017	5
	52	301	1.878005	1916200	-133113.2	1	1920818	-3.973799	-1.212931E-009	0.0006367	5
	53	306	1.512097	1941868	-144479.5	1	1947235	-4.255102	-1.098059E-009	0.0005403	5
	54	311	1.201923	1972090	-158914.1	1	1978483	-4.607029	-1.242349E-009	0.0006424	5
	55	317	0.956633	2004406	-175273	1	2012055	-4.997452	-1.536993E-009	-5.518556E-006	5
