EXPLAIN
TAG	EISPOT
TITLE	LABEL	Potentiostatic EIS	Test Identifier
DATE	LABEL	9/23/2020	Date
TIME	LABEL	13:00:53	Time
NOTES	NOTES	1	Notes...
	
PSTAT	PSTAT	REF3000-16137	Potentiostat
VDC	POTEN	0.00000E+000	T	DC Voltage (V)
FREQINIT	QUANT	3.00000E+005	Initial Freq. (Hz)
FREQFINAL	QUANT	1.00000E+000	Final Freq. (Hz)
PTSPERDEC	QUANT	1.00000E+001	Points/decade
VAC	QUANT	5.00000E+001	AC Voltage (mV rms)
AREA	QUANT	1.00000E+000	Sample Area (cm^2)
SPEED	SELECTOR	2	Optimize for:
ZGUESS	QUANT	1.00000E+003	Estimated Z (ohms)
EOC	QUANT	0	Open Circuit (V)
SEQUENCER	TOGGLE	TRUE	Run as Sequence
PSTATMODEL	IQUANT	5	Pstat Model
PSTATSECTION	LABEL	REF3000-16137	Pstat Section
PSTATSERIALNO	LABEL	16137	Pstat Serial Number
CTRLMODE	IQUANT	1	Control Mode
IESTAB	IQUANT	0	I/E Stability
CASPEED	IQUANT	1	Control Amp Speed
CONVENTION	IQUANT	1	Current Convention
ICHRANGE	IQUANT	2	Ich Range
ICHRANGEMODE	TOGGLE	F	Ich Auto Range
ICHOFFSETENABLE	TOGGLE	T	Ich Offset Enable
ICHOFFSET	QUANT	0	Ich Offset (V)
ICHFILTER	IQUANT	3	Ich Filter
VCHRANGE	IQUANT	2	Vch Range
VCHRANGEMODE	TOGGLE	F	Vch Auto Range
VCHOFFSETENABLE	TOGGLE	T	Vch Offset Enable
VCHOFFSET	QUANT	0	Vch Offset (V)
VCHFILTER	IQUANT	3	Vch Filter
ACHRANGE	IQUANT	2	Ach Range
ACHOFFSETENABLE	TOGGLE	F	Ach Offset Enable
ACHOFFSET	QUANT	0	Ach Offset (V)
ACHFILTER	IQUANT	3	Ach Filter
IERANGELOWERLIMIT	IQUANT	2	I/E Range Lower Limit
IERANGEMODE	TOGGLE	F	I/E AutoRange
IERANGE	IQUANT	11	I/E Range
POSFEEDENABLE	TOGGLE	F	Positive Feedback IR Comp
POSFEEDRESISTANCE	QUANT	0	Positive Feedback Resistance (ohm)
ACHSELECT	IQUANT	0	Ach Select
CABLEID	IQUANT	13	Cable ID
DCCALDATE	LABEL	7/31/2020	DC Calibration Date
ACCALDATE	LABEL	7/31/2020	AC Calibration Date
THERMOSELECT	IQUANT	1	Thermo Select
FRAMEWORKVERSION	QUANT	6.33	Framework Version
INSTRUMENTVERSION	LABEL	3.50	Instrument Version
COMPLIANCEVOLTAGE	IQUANT	0	Compliance Voltage
ZCURVE	TABLE
	Pt	Time	Freq	Zreal	Zimag	Zsig	Zmod	Zphz	Idc	Vdc	IERange
	#	s	Hz	ohm	ohm	V	ohm	°	A	V	#
	0	14	300046.9	1096.264	-393.498	1	1164.747	-19.74533	-2.009951E-005	0.001385	9
	1	33	238359.4	1141.29	-335.0406	1	1189.451	-16.3603	-2.002347E-005	0.0014521	9
	2	47	189328.1	1186.232	-282.3973	1	1219.383	-13.39071	2.749399E-006	0.0014967	9
	3	54	150421.9	1220.734	-243.8644	1	1244.854	-11.29719	-1.983834E-006	-0.0017595	9
	4	60	119484.4	1245.034	-155.1359	1	1254.662	-7.102657	5.349759E-006	-0.0131303	8
	5	66	94921.88	1250.832	-118.7513	1	1256.456	-5.423286	1.507303E-005	-0.0003807	8
	6	71	75421.88	1255.125	-99.8858	1	1259.093	-4.550144	2.091096E-005	-0.0043948	8
	7	74	59859.37	1262.721	-82.3463	1	1265.403	-3.731168	1.994919E-005	-0.0070344	8
	8	77	47578.12	1269.805	-68.89398	1	1271.672	-3.105571	1.987974E-005	-0.006906	8
	9	80	37828.12	1268.314	-56.06473	1	1269.553	-2.531063	-8.378433E-006	-0.0011543	8
	10	83	30046.88	1274.903	-48.15557	1	1275.812	-2.163145	-1.409288E-005	0.001429	8
	11	86	23859.38	1279.691	-43.20681	1	1280.42	-1.93377	-7.780292E-006	0.0077399	8
	12	89	18984.38	1280.709	-39.16568	1	1281.308	-1.751631	1.96997E-005	-0.0028595	8
	13	92	15046.87	1280.518	-37.88299	1	1281.078	-1.69455	2.126627E-005	-0.0059967	8
	14	95	11953.13	1286.869	-35.38137	1	1287.355	-1.574903	1.681736E-005	-0.007524	8
	15	98	9515.62	1292.89	-34.58536	1	1293.352	-1.532322	-1.730186E-005	0.0030654	8
	16	101	7546.875	1289.388	-34.00914	1	1289.837	-1.510894	1.52751E-005	-0.0002968	8
	17	103	5928.309	1298.508	-38.16749	1	1299.068	-1.68363	1.677721E-005	-0.0075194	8
	18	107	4733.456	1299.2	-37.35377	1	1299.737	-1.646878	5.96158E-008	0.0057255	8
	19	112	3796.875	1307.66	-43.3946	1	1308.38	-1.900659	4.682494E-006	-0.0055799	8
	20	115	2987.132	1313.594	-52.75785	1	1314.653	-2.299933	-2.074162E-005	0.0080394	8
	21	118	2390.625	1321.839	-61.38306	1	1323.264	-2.658769	2.188311E-005	-0.0062259	8
	22	121	1884.191	1323.8	-69.31225	1	1325.614	-2.997186	-1.852438E-005	0.0089019	8
	23	125	1516.544	1334.933	-76.18526	1	1337.105	-3.266354	2.137002E-005	-0.0044993	8
	24	129	1193.986	1347.004	-92.68154	1	1350.189	-3.936072	-2.081702E-005	0.006564	8
	25	133	946.5144	1358.861	-104.8057	1	1362.897	-4.410354	1.559508E-005	-0.0004767	8
	26	136	751.7689	1366.602	-121.3617	1	1371.981	-5.074862	1.540562E-005	-0.0003082	8
	27	138	597.4265	1382.544	-143.7978	1	1390.002	-5.937962	1.980993E-005	-0.0028123	8
	28	141	477.4305	1390.915	-166.0862	1	1400.796	-6.809328	-2.343495E-007	0.0006241	8
	29	143	376.6741	1406.875	-194.8795	1	1420.308	-7.886393	-2.785126E-007	0.000653	8
	30	146	298.2954	1424.475	-228.5418	1	1442.692	-9.11482	-2.283256E-007	0.0006273	8
	31	148	237.7717	1443.942	-267.6102	1	1468.531	-10.49967	-2.695263E-007	0.0006461	8
	32	150	189.0121	1466.17	-314.6934	1	1499.563	-12.11396	-2.354877E-007	0.0006213	8
	33	153	150.2404	1491.569	-370.9789	1	1537.011	-13.96705	-2.564074E-007	0.0006476	8
	34	155	119.1737	1520.734	-439.1036	1	1582.859	-16.10579	-2.640693E-007	0.0006394	8
	35	158	95.0169	1553.871	-519.0128	1	1638.258	-18.46998	-2.615362E-007	0.0006431	8
	36	160	75.60484	1592.742	-615.8121	1	1707.645	-21.13832	-2.793964E-007	0.0006813	8
	37	163	54.50582	1659.74	-788.9244	1	1837.7	-25.42314	-2.39765E-007	0.0006323	8
	38	165	45.95588	1702.72	-898.6635	1	1925.319	-27.82424	-2.41806E-007	0.0006508	8
	39	168	37.20238	1763.462	-1056.972	1	2055.964	-30.93734	-2.963915E-007	0.0006792	8
	40	170	30.04808	1836.665	-1246.337	1	2219.615	-34.16031	-2.417086E-007	0.000631	8
	41	172	23.91582	1930.13	-1486.558	1	2436.238	-37.60295	-2.612736E-007	0.0006406	8
	42	175	18.60119	2056.907	-1806.712	1	2737.714	-41.29489	-2.93205E-007	0.0006522	8
	43	177	15.02404	2188.742	-2129.278	1	3053.591	-44.21103	-2.162242E-007	0.0006695	8
	44	179	12.01923	2352.794	-2526.883	1	3452.648	-47.04323	-2.37479E-007	0.0006296	8
	45	182	9.450605	2571.348	-3033.951	1	3977.02	-49.71791	-2.721403E-007	0.0006418	8
	46	184	7.512019	2829.628	-3619.29	1	4594.133	-51.98104	-7.449432E-008	0.0005835	7
	47	187	5.978954	3139.386	-4294.439	1	5319.582	-53.83188	-7.841494E-008	0.0006082	7
	48	190	4.734848	3522.307	-5106.061	1	6203.104	-55.40097	-8.298121E-008	0.000598	7
	49	193	3.75601	3988.502	-6051.165	1	7247.396	-56.60994	-3.781463E-008	0.000648	7
	50	197	3.004808	4526.635	-7117.563	1	8435.054	-57.54441	-4.671265E-008	0.0006213	7
	51	200	2.372217	5219.619	-8419.433	1	9906.12	-58.2032	-4.830839E-008	0.0005737	7
	52	205	1.878005	6052.58	-9953.36	1	11649.16	-58.69645	-3.918643E-008	0.0006031	7
	53	209	1.512097	6952.77	-11574.94	1	13502.6	-59.00784	-4.991632E-008	0.0006839	7
	54	215	1.201923	8103.541	-13558.37	1	15795.46	-59.13416	-4.503097E-008	0.0006139	7
	55	221	0.956633	9434.438	-15825.68	1	18424.46	-59.19883	-7.309541E-008	-2.73384E-005	7
