EXPLAIN
TAG	EISPOT
TITLE	LABEL	Potentiostatic EIS	Test Identifier
DATE	LABEL	9/23/2020	Date
TIME	LABEL	15:29:10	Time
NOTES	NOTES	1	Notes...
	
PSTAT	PSTAT	REF3000-16137	Potentiostat
VDC	POTEN	0.00000E+000	T	DC Voltage (V)
FREQINIT	QUANT	3.00000E+005	Initial Freq. (Hz)
FREQFINAL	QUANT	1.00000E+000	Final Freq. (Hz)
PTSPERDEC	QUANT	1.00000E+001	Points/decade
VAC	QUANT	5.00000E+001	AC Voltage (mV rms)
AREA	QUANT	1.00000E+000	Sample Area (cm^2)
SPEED	SELECTOR	2	Optimize for:
ZGUESS	QUANT	1.00000E+003	Estimated Z (ohms)
EOC	QUANT	0	Open Circuit (V)
SEQUENCER	TOGGLE	TRUE	Run as Sequence
PSTATMODEL	IQUANT	5	Pstat Model
PSTATSECTION	LABEL	REF3000-16137	Pstat Section
PSTATSERIALNO	LABEL	16137	Pstat Serial Number
CTRLMODE	IQUANT	1	Control Mode
IESTAB	IQUANT	0	I/E Stability
CASPEED	IQUANT	1	Control Amp Speed
CONVENTION	IQUANT	1	Current Convention
ICHRANGE	IQUANT	2	Ich Range
ICHRANGEMODE	TOGGLE	F	Ich Auto Range
ICHOFFSETENABLE	TOGGLE	T	Ich Offset Enable
ICHOFFSET	QUANT	0	Ich Offset (V)
ICHFILTER	IQUANT	3	Ich Filter
VCHRANGE	IQUANT	2	Vch Range
VCHRANGEMODE	TOGGLE	F	Vch Auto Range
VCHOFFSETENABLE	TOGGLE	T	Vch Offset Enable
VCHOFFSET	QUANT	0	Vch Offset (V)
VCHFILTER	IQUANT	3	Vch Filter
ACHRANGE	IQUANT	2	Ach Range
ACHOFFSETENABLE	TOGGLE	F	Ach Offset Enable
ACHOFFSET	QUANT	0	Ach Offset (V)
ACHFILTER	IQUANT	3	Ach Filter
IERANGELOWERLIMIT	IQUANT	2	I/E Range Lower Limit
IERANGEMODE	TOGGLE	F	I/E AutoRange
IERANGE	IQUANT	11	I/E Range
POSFEEDENABLE	TOGGLE	F	Positive Feedback IR Comp
POSFEEDRESISTANCE	QUANT	0	Positive Feedback Resistance (ohm)
ACHSELECT	IQUANT	0	Ach Select
CABLEID	IQUANT	13	Cable ID
DCCALDATE	LABEL	7/31/2020	DC Calibration Date
ACCALDATE	LABEL	7/31/2020	AC Calibration Date
THERMOSELECT	IQUANT	1	Thermo Select
FRAMEWORKVERSION	QUANT	6.33	Framework Version
INSTRUMENTVERSION	LABEL	3.50	Instrument Version
COMPLIANCEVOLTAGE	IQUANT	0	Compliance Voltage
ZCURVE	TABLE
	Pt	Time	Freq	Zreal	Zimag	Zsig	Zmod	Zphz	Idc	Vdc	IERange
	#	s	Hz	ohm	ohm	V	ohm	°	A	V	#
	0	17	300046.9	194.8678	-4229.936	1	4234.422	-87.36232	-2.975791E-005	-0.0012268	9
	1	31	238359.4	282.4732	-5201.841	1	5209.505	-86.89175	2.984273E-005	-0.0021198	9
	2	45	189328.1	507.7525	-6488.649	1	6508.485	-85.52558	7.741141E-005	-0.0015634	9
	3	52	150421.9	-14.07092	-7734.833	1	7734.845	-90.10423	7.939766E-007	0.0016852	9
	4	60	119484.4	1297.046	-9877.85	1	9962.65	-82.51937	-7.717415E-005	0.0353761	8
	5	67	94921.88	1569.458	-12445.12	1	12543.69	-82.81236	-1.56984E-005	0.0005769	8
	6	76	75421.88	2080.906	-15227.97	1	15369.49	-82.21871	-9.595251E-006	-0.0020957	8
	7	84	59859.37	2552.208	-18719.58	1	18892.76	-82.23622	8.474472E-006	0.0041071	8
	8	93	47578.12	6270.261	-24030.48	1	24835.05	-75.37591	5.681854E-007	0.0158702	7
	9	99	37828.12	4234.211	-28106.89	1	28424.04	-81.433	2.605099E-005	-0.0090344	8
	10	108	30046.88	6502.599	-35781.11	1	36367.18	-79.69989	-2.396986E-005	0.0053018	8
	11	117	23859.38	8352.458	-44573.36	1	45349.18	-79.38661	-2.071409E-006	0.007738	8
	12	123	18984.38	14129.75	-54426.66	1	56230.87	-75.44667	-1.72611E-006	0.0212314	7
	13	128	15046.87	19080.22	-65717.37	1	68431.19	-73.81	-3.434643E-006	-0.0051741	7
	14	134	11953.13	24999.55	-80258.35	1	84061.77	-72.69879	-3.679339E-006	0.0247635	7
	15	139	9515.62	33395.65	-98947.2	1	104430.9	-71.34995	2.435985E-005	-0.0001565	9
	16	147	7546.875	36482.59	-108780.3	1	114735.1	-71.45965	1.591041E-005	-0.0090617	8
	17	154	5928.309	71350.04	-153795.4	1	169540.1	-65.11208	5.397706E-007	0.0155609	7
	18	161	4733.456	107502	-168436.8	1	199819	-57.45262	-5.501939E-007	0.0260515	6
	19	165	3796.875	136298.3	-191644.7	1	235170	-54.57944	-4.657265E-007	0.0010266	6
	20	169	2987.132	176253.6	-212516.9	1	276095.6	-50.32895	-2.04196E-007	0.0217674	6
	21	174	2390.625	239301	-236506	1	336452.2	-44.66343	-2.398579E-005	0.0053129	8
	22	181	1884.191	26313.91	-284393.9	1	285608.7	-84.71368	-2.045152E-005	0.0028643	8
	23	190	1516.544	165735.4	-245420.7	1	296141	-55.96839	-2.666478E-005	0.0096813	8
	24	198	1193.986	311847.8	-107524.7	1	329864.5	-19.02412	-2.6249E-005	0.0076113	8
	25	206	946.5144	49371.98	-216781.5	1	222332.7	-77.16974	2.269085E-005	-0.0027884	8
	26	212	751.7689	318971.7	-160641.2	1	357139.3	-26.73083	1.72893E-005	0.0004561	8
	27	219	597.4265	512896	16297.14	1	513154.8	1.819946	-1.492484E-006	0.0210287	7
	28	225	477.4305	505895	-133022.9	1	523091.7	-14.73219	-9.619353E-009	0.0007011	6
	29	229	376.6741	551051.7	-59305.18	1	554233.8	-6.142632	-1.298769E-009	0.0006809	5
	30	231	298.2954	552935	-49217.65	1	555121.1	-5.086586	-1.034085E-009	0.000618	5
	31	233	237.7717	552988.8	-38297.37	1	554313.4	-3.961707	-1.416724E-009	0.000675	5
	32	236	189.0121	554800.8	-32221.65	1	555735.6	-3.323883	-1.247006E-009	0.0006433	5
	33	238	150.2404	555856.4	-26538.7	1	556489.6	-2.733443	-1.246033E-009	0.000674	5
	34	241	119.1737	549327	-16231.93	1	549566.8	-1.692527	-1.46735E-009	0.0006813	5
	35	243	95.0169	559864.5	-21242.56	1	560267.4	-2.172893	-1.09099E-009	0.0005898	5
	36	246	75.60484	563004.5	-18027.57	1	563293.1	-1.834001	-1.223727E-009	0.0006681	5
	37	249	54.50582	558349.4	-17053.59	1	558609.8	-1.749434	-1.130648E-009	0.0006377	5
	38	251	45.95588	568844.4	-18374.57	1	569141.1	-1.850101	-1.233992E-009	0.0005946	5
	39	254	37.20238	571233.4	-19242.21	1	571557.4	-1.9293	-1.334333E-009	0.0006841	5
	40	256	30.04808	573232.6	-19412.69	1	573561.2	-1.939597	-1.356604E-009	0.0007088	5
	41	259	23.91582	575675.4	-21032.94	1	576059.6	-2.092434	-1.498952E-009	0.00065	5
	42	262	18.60119	580231.6	-25542.27	1	580793.5	-2.52058	-1.514328E-009	0.0005902	5
	43	264	15.02404	583563.9	-23966.12	1	584055.9	-2.351732	-1.25446E-009	0.00063	5
	44	266	12.01923	587707.6	-26365.12	1	588298.6	-2.568621	-7.336107E-010	0.0006742	5
	45	269	9.450605	592594.2	-29425.37	1	593324.3	-2.842697	-1.356431E-009	0.0006665	5
	46	271	7.512019	597070.3	-32912.55	1	597976.8	-3.155145	-1.189388E-009	0.0006846	5
	47	274	5.978954	603392.5	-37180.47	1	604536.9	-3.526053	-1.602885E-009	0.000585	5
	48	279	4.734848	610106.9	-41847.56	1	611540.4	-3.923803	-5.064344E-010	0.0007104	5
	49	282	3.75601	617801.9	-47162.4	1	619599.4	-4.365438	-4.913009E-011	0.0006259	5
	50	288	3.004808	626500.9	-52935.82	1	628733.4	-4.8297	-1.100962E-009	0.0007044	5
	51	294	2.372217	636444.9	-59854.4	1	639253.2	-5.372575	-1.246766E-010	0.0005978	5
	52	298	1.878005	646206.1	-67542.21	1	649726.3	-5.966955	2.195894E-010	0.0006632	5
	53	303	1.512097	656003	-76267.94	1	660421.6	-6.631525	-1.047049E-010	0.0006931	5
	54	309	1.201923	667577.1	-88015.42	1	673354.2	-7.510734	-7.3629E-011	0.0006442	5
	55	315	0.956633	681857.1	-99917.9	1	689139.1	-8.336666	-3.460292E-009	-1.086265E-006	5
