EXPLAIN
TAG	EISPOT
TITLE	LABEL	Potentiostatic EIS	Test Identifier
DATE	LABEL	9/23/2020	Date
TIME	LABEL	15:51:19	Time
NOTES	NOTES	1	Notes...
	
PSTAT	PSTAT	REF3000-16137	Potentiostat
VDC	POTEN	0.00000E+000	T	DC Voltage (V)
FREQINIT	QUANT	3.00000E+005	Initial Freq. (Hz)
FREQFINAL	QUANT	1.00000E+000	Final Freq. (Hz)
PTSPERDEC	QUANT	1.00000E+001	Points/decade
VAC	QUANT	5.00000E+001	AC Voltage (mV rms)
AREA	QUANT	1.00000E+000	Sample Area (cm^2)
SPEED	SELECTOR	2	Optimize for:
ZGUESS	QUANT	1.00000E+003	Estimated Z (ohms)
EOC	QUANT	0	Open Circuit (V)
SEQUENCER	TOGGLE	TRUE	Run as Sequence
PSTATMODEL	IQUANT	5	Pstat Model
PSTATSECTION	LABEL	REF3000-16137	Pstat Section
PSTATSERIALNO	LABEL	16137	Pstat Serial Number
CTRLMODE	IQUANT	1	Control Mode
IESTAB	IQUANT	0	I/E Stability
CASPEED	IQUANT	1	Control Amp Speed
CONVENTION	IQUANT	1	Current Convention
ICHRANGE	IQUANT	2	Ich Range
ICHRANGEMODE	TOGGLE	F	Ich Auto Range
ICHOFFSETENABLE	TOGGLE	T	Ich Offset Enable
ICHOFFSET	QUANT	0	Ich Offset (V)
ICHFILTER	IQUANT	3	Ich Filter
VCHRANGE	IQUANT	2	Vch Range
VCHRANGEMODE	TOGGLE	F	Vch Auto Range
VCHOFFSETENABLE	TOGGLE	T	Vch Offset Enable
VCHOFFSET	QUANT	0	Vch Offset (V)
VCHFILTER	IQUANT	3	Vch Filter
ACHRANGE	IQUANT	2	Ach Range
ACHOFFSETENABLE	TOGGLE	F	Ach Offset Enable
ACHOFFSET	QUANT	0	Ach Offset (V)
ACHFILTER	IQUANT	3	Ach Filter
IERANGELOWERLIMIT	IQUANT	2	I/E Range Lower Limit
IERANGEMODE	TOGGLE	F	I/E AutoRange
IERANGE	IQUANT	11	I/E Range
POSFEEDENABLE	TOGGLE	F	Positive Feedback IR Comp
POSFEEDRESISTANCE	QUANT	0	Positive Feedback Resistance (ohm)
ACHSELECT	IQUANT	0	Ach Select
CABLEID	IQUANT	13	Cable ID
DCCALDATE	LABEL	7/31/2020	DC Calibration Date
ACCALDATE	LABEL	7/31/2020	AC Calibration Date
THERMOSELECT	IQUANT	1	Thermo Select
FRAMEWORKVERSION	QUANT	6.33	Framework Version
INSTRUMENTVERSION	LABEL	3.50	Instrument Version
COMPLIANCEVOLTAGE	IQUANT	0	Compliance Voltage
ZCURVE	TABLE
	Pt	Time	Freq	Zreal	Zimag	Zsig	Zmod	Zphz	Idc	Vdc	IERange
	#	s	Hz	ohm	ohm	V	ohm	°	A	V	#
	0	21	300046.9	56.84594	-4332.394	1	4332.767	-89.24826	-8.847145E-005	0.0020983	9
	1	36	238359.4	121.7948	-5345.894	1	5347.281	-88.69486	-0.0001111	0.0037293	9
	2	52	189328.1	513.2536	-7005.835	1	7024.61	-85.80994	-1.407977E-005	0.0018405	9
	3	63	150421.9	-86.58134	-8900.756	1	8901.177	-90.55732	2.794308E-005	-0.0018813	9
	4	70	119484.4	449.5254	-10355.48	1	10365.23	-87.51438	1.989729E-005	-0.0008513	9
	5	79	94921.88	933.1763	-12830.19	1	12864.08	-85.84004	-2.489033E-005	0.0111133	8
	6	87	75421.88	1129.63	-16185.68	1	16225.05	-86.00769	2.312644E-005	-0.0028701	8
	7	96	59859.37	1404.968	-20159.98	1	20208.88	-86.01345	2.312763E-005	-0.002917	8
	8	105	47578.12	4769.747	-26120.95	1	26552.87	-79.65166	6.743416E-006	-0.0266807	7
	9	112	37828.12	2005.592	-31453.84	1	31517.71	-86.35159	2.716746E-005	-0.0074292	8
	10	121	30046.88	3266.159	-38771.01	1	38908.34	-85.18464	8.277362E-006	0.0041838	8
	11	130	23859.38	7407.458	-49532.81	1	50083.63	-81.49464	-1.82075E-006	0.0215411	7
	12	135	18984.38	8707.167	-61267.19	1	61882.82	-81.91141	4.862486E-006	-0.000868	7
	13	140	15046.87	11486.11	-76544.22	1	77401.22	-81.46596	4.630523E-007	0.015925	7
	14	146	11953.13	16545.02	-94436.17	1	95874.5	-80.06275	-7.147772E-006	0.0232088	7
	15	151	9515.62	18652.13	-118412.7	1	119872.7	-81.04844	-6.846959E-006	0.0230437	7
	16	157	7546.875	24271.81	-144502.6	1	146526.8	-80.46515	-5.288141E-006	0.0037316	7
	17	163	5928.309	20724.45	-182950	1	184120.1	-83.53712	2.825936E-006	0.0080644	7
	18	169	4733.456	28485.69	-231819.8	1	233563.3	-82.99469	-1.138535E-006	-0.0129261	7
	19	176	3796.875	92412.95	-276593	1	291622.8	-71.52493	6.097609E-007	-0.0066805	6
	20	180	2987.132	116324	-333194	1	352915.8	-70.755	4.214516E-007	0.0018543	6
	21	185	2390.625	142044.7	-400863.4	1	425286	-70.48838	-3.973875E-007	0.0250778	6
	22	191	1884.191	195328.6	-442916.1	1	484074.2	-66.20224	3.326398E-006	-0.0239212	7
	23	197	1516.544	152645	-581494.1	1	601195.3	-75.29144	1.16521E-006	-0.0193694	7
	24	204	1193.986	313347.6	-718144.1	1	783529	-66.42693	4.22832E-007	0.0018306	6
	25	209	946.5144	104923.3	-84732.7	1	134864.9	-38.92323	1.051055E-005	0.0003407	9
	26	216	751.7689	332254.4	-909788.1	1	968559	-69.93782	-3.302587E-006	-0.0048515	7
	27	221	597.4265	732266.9	-1265780	1	1462331	-59.95016	-5.110089E-006	0.0030365	7
	28	226	477.4305	1004628	-1106504	1	1494533	-47.76276	-8.839086E-008	0.0005849	7
	29	232	376.6741	1437267	-1018816	1	1761738	-35.33117	-1.114817E-009	0.000656	5
	30	235	298.2954	1649158	-971624	1	1914099	-30.50504	-1.074586E-009	0.0006655	5
	31	238	237.7717	1843317	-912409.8	1	2056772	-26.33461	-1.061169E-009	0.000606	5
	32	240	189.0121	1993367	-804731.6	1	2149676	-21.98416	-1.088358E-009	0.0006484	5
	33	243	150.2404	2128435	-692566.3	1	2238277	-18.02424	-1.019591E-009	0.0005866	5
	34	246	119.1737	2134714	-695408.5	1	2245127	-18.04364	-1.049423E-009	0.0006665	5
	35	249	95.0169	2293696	-504019.1	1	2348420	-12.39326	-9.567285E-010	0.00058	5
	36	251	75.60484	2338702	-408888.4	1	2374177	-9.91711	-1.159465E-009	0.0006647	5
	37	254	54.50582	2378747	-384804.8	1	2409671	-9.189013	-1.001402E-008	0.0006894	6
	38	259	45.95588	2403852	-305502.2	1	2423187	-7.242813	-1.078885E-009	0.0006048	5
	39	262	37.20238	2454279	-265875.2	1	2468638	-6.182814	-9.352367E-009	0.0006837	6
	40	266	30.04808	2477413	-259379.1	1	2490955	-5.976952	-9.62106E-009	0.0006268	6
	41	270	23.91582	2505330	-217464.3	1	2514750	-4.960878	-1.006867E-008	0.0006956	6
	42	274	18.60119	2549914	-157738.1	1	2554788	-3.539817	-9.674939E-009	0.0006676	6
	43	277	15.02404	2549035	-178529.9	1	2555280	-4.006353	-9.016071E-009	0.0006056	6
	44	281	12.01923	2565896	-173864.8	1	2571780	-3.876428	-9.540467E-009	0.0006352	6
	45	285	9.450605	2590438	-163791.8	1	2595611	-3.617961	-9.370726E-009	0.000605	6
	46	289	7.512019	2618532	-158974.3	1	2623353	-3.474231	-9.001515E-009	0.0006121	6
	47	293	5.978954	2647248	-156348.1	1	2651861	-3.379998	-9.514025E-009	0.0006503	6
	48	299	4.734848	2683419	-159462.7	1	2688153	-3.400814	-9.925866E-009	0.0006594	6
	49	305	3.75601	2718878	-166544.9	1	2723974	-3.505274	-1.032505E-008	0.0006709	6
	50	312	3.004808	2758759	-171638.1	1	2764094	-3.560107	-9.335063E-009	0.000634	6
	51	320	2.372217	2806236	-177253.4	1	2811828	-3.614235	-1.312512E-009	0.000605	5
	52	325	1.878005	2842885	-187198.9	1	2849042	-3.767386	-1.143917E-009	0.0006437	5
	53	330	1.512097	2880444	-200039.1	1	2887382	-3.97266	-9.84399E-010	0.000532	5
	54	335	1.201923	2925073	-212722	1	2932798	-4.159437	-1.11747E-009	0.000651	5
	55	342	0.956633	2974683	-229379.8	1	2983513	-4.409392	-1.360408E-009	-7.099669E-006	5
