EXPLAIN
TAG	EISPOT
TITLE	LABEL	Potentiostatic EIS	Test Identifier
DATE	LABEL	9/23/2020	Date
TIME	LABEL	13:34:45	Time
NOTES	NOTES	1	Notes...
	
PSTAT	PSTAT	REF3000-16137	Potentiostat
VDC	POTEN	0.00000E+000	T	DC Voltage (V)
FREQINIT	QUANT	3.00000E+005	Initial Freq. (Hz)
FREQFINAL	QUANT	1.00000E+000	Final Freq. (Hz)
PTSPERDEC	QUANT	1.00000E+001	Points/decade
VAC	QUANT	5.00000E+001	AC Voltage (mV rms)
AREA	QUANT	1.00000E+000	Sample Area (cm^2)
SPEED	SELECTOR	2	Optimize for:
ZGUESS	QUANT	1.00000E+003	Estimated Z (ohms)
EOC	QUANT	0	Open Circuit (V)
SEQUENCER	TOGGLE	TRUE	Run as Sequence
PSTATMODEL	IQUANT	5	Pstat Model
PSTATSECTION	LABEL	REF3000-16137	Pstat Section
PSTATSERIALNO	LABEL	16137	Pstat Serial Number
CTRLMODE	IQUANT	1	Control Mode
IESTAB	IQUANT	0	I/E Stability
CASPEED	IQUANT	1	Control Amp Speed
CONVENTION	IQUANT	1	Current Convention
ICHRANGE	IQUANT	2	Ich Range
ICHRANGEMODE	TOGGLE	F	Ich Auto Range
ICHOFFSETENABLE	TOGGLE	T	Ich Offset Enable
ICHOFFSET	QUANT	0	Ich Offset (V)
ICHFILTER	IQUANT	3	Ich Filter
VCHRANGE	IQUANT	2	Vch Range
VCHRANGEMODE	TOGGLE	F	Vch Auto Range
VCHOFFSETENABLE	TOGGLE	T	Vch Offset Enable
VCHOFFSET	QUANT	0	Vch Offset (V)
VCHFILTER	IQUANT	3	Vch Filter
ACHRANGE	IQUANT	2	Ach Range
ACHOFFSETENABLE	TOGGLE	F	Ach Offset Enable
ACHOFFSET	QUANT	0	Ach Offset (V)
ACHFILTER	IQUANT	3	Ach Filter
IERANGELOWERLIMIT	IQUANT	2	I/E Range Lower Limit
IERANGEMODE	TOGGLE	F	I/E AutoRange
IERANGE	IQUANT	11	I/E Range
POSFEEDENABLE	TOGGLE	F	Positive Feedback IR Comp
POSFEEDRESISTANCE	QUANT	0	Positive Feedback Resistance (ohm)
ACHSELECT	IQUANT	0	Ach Select
CABLEID	IQUANT	13	Cable ID
DCCALDATE	LABEL	7/31/2020	DC Calibration Date
ACCALDATE	LABEL	7/31/2020	AC Calibration Date
THERMOSELECT	IQUANT	1	Thermo Select
FRAMEWORKVERSION	QUANT	6.33	Framework Version
INSTRUMENTVERSION	LABEL	3.50	Instrument Version
COMPLIANCEVOLTAGE	IQUANT	0	Compliance Voltage
ZCURVE	TABLE
	Pt	Time	Freq	Zreal	Zimag	Zsig	Zmod	Zphz	Idc	Vdc	IERange
	#	s	Hz	ohm	ohm	V	ohm	°	A	V	#
	0	36	300046.9	1682.567	-1469.156	1	2233.708	-41.12627	-1.924712E-006	-0.0021113	9
	1	50	238359.4	1995.66	-1415.97	1	2446.964	-35.35664	8.126412E-005	-0.0034393	9
	2	87	189328.1	2258.362	-1356.824	1	2634.61	-30.99744	7.743821E-005	-0.0016025	9
	3	100	150421.9	2469.956	-1125.557	1	2714.325	-24.49872	1.995172E-005	-0.0003474	9
	4	108	119484.4	2731.619	-1050.103	1	2926.51	-21.02801	8.676109E-005	-0.0024197	9
	5	115	94921.88	2900.072	-802.8596	1	3009.153	-15.47428	-9.706547E-006	0.0090005	8
	6	121	75421.88	2987.948	-734.9037	1	3076.999	-13.81796	2.485756E-005	-0.0009533	9
	7	129	59859.37	3068.335	-566.5245	1	3120.197	-10.46104	-2.214975E-005	0.0052015	8
	8	136	47578.12	3118.824	-467.4715	1	3153.663	-8.524439	-9.532642E-006	0.0090434	8
	9	142	37828.12	3177.258	-382.5374	1	3200.203	-6.865287	2.409325E-005	-0.0049578	8
	10	149	30046.88	3190.732	-316.9426	1	3206.435	-5.67271	-6.55141E-007	0.0065996	8
	11	157	23859.38	3215.245	-259.941	1	3225.735	-4.622105	-2.257743E-005	0.005357	8
	12	162	18984.38	3239.473	-217.5719	1	3246.771	-3.842371	6.350106E-006	-0.0066065	8
	13	168	15046.87	3241.8	-168.0121	1	3246.151	-2.966802	4.529795E-009	0.0065714	8
	14	173	11953.13	3276.797	-157.3917	1	3280.574	-2.749927	2.885571E-005	-0.0008525	9
	15	178	9515.62	3277.589	-133.0178	1	3280.287	-2.324019	-2.415574E-005	0.0073471	8
	16	184	7546.875	3302.625	-129.4281	1	3305.16	-2.244243	-9.068212E-006	-0.0001865	9
	17	189	5928.309	3290.299	-113.4512	1	3292.255	-1.974806	2.194474E-005	-0.0029827	8
	18	194	4733.456	3291.825	-82.0237	1	3292.846	-1.427366	-4.682206E-007	0.0066365	8
	19	200	3796.875	3337.595	-104.9934	1	3339.246	-1.801805	-9.781931E-006	-0.0015348	8
	20	205	2987.132	3359.623	-96.1115	1	3360.998	-1.63866	-2.172862E-005	0.0101232	8
	21	210	2390.625	3349.9	-88.38603	1	3351.066	-1.51138	2.860521E-005	-0.0008463	9
	22	216	1884.191	3340.239	-146.3132	1	3343.442	-2.508136	-5.383641E-007	0.0066637	8
	23	221	1516.544	3406.481	-136.75	1	3409.225	-2.29885	-1.230653E-006	0.0007636	9
	24	226	1193.986	3427.075	-154.8259	1	3430.57	-2.586709	9.990839E-006	0.0003987	9
	25	232	946.5144	3398.459	-175.2676	1	3402.976	-2.952281	-9.119753E-006	0.0089609	8
	26	236	751.7689	3458.305	-226.3514	1	3465.705	-3.744755	-1.664177E-005	0.0102334	8
	27	240	597.4265	3472.599	-200.36	1	3478.375	-3.302157	1.358759E-005	-0.0082779	8
	28	243	477.4305	3510.902	-248.5223	1	3519.687	-4.048978	-3.0878E-007	0.000619	8
	29	247	376.6741	3540.198	-288.1082	1	3551.902	-4.652588	-3.452971E-007	0.0006474	8
	30	249	298.2954	3581.901	-331.3242	1	3597.192	-5.284795	-6.930044E-008	0.0006237	7
	31	251	237.7717	3616.343	-384.4391	1	3636.72	-6.068098	-6.496185E-008	0.0005784	7
	32	254	189.0121	3655.042	-446.9771	1	3682.271	-6.972114	-7.217152E-008	0.0006424	7
	33	256	150.2404	3698.329	-520.6672	1	3734.8	-8.013688	-6.848485E-008	0.0006511	7
	34	259	119.1737	3748.94	-608.2955	1	3797.97	-9.216375	-7.730159E-008	0.0006489	7
	35	261	95.0169	3801.979	-709.9637	1	3867.699	-10.57732	-6.798823E-008	0.0006479	7
	36	263	75.60484	3863.562	-831.456	1	3952.016	-12.14508	-7.531643E-008	0.0006421	7
	37	266	54.50582	3963.714	-1047.379	1	4099.76	-14.80163	-7.499297E-008	0.0006239	7
	38	269	45.95588	4027.022	-1183.854	1	4197.43	-16.38215	-4.902015E-008	0.0005995	7
	39	271	37.20238	4112.269	-1380.77	1	4337.889	-18.56043	-7.449492E-008	0.0005833	7
	40	273	30.04808	4211.286	-1615.588	1	4510.549	-20.98845	-6.172559E-008	0.0006625	7
	41	276	23.91582	4332.558	-1914.829	1	4736.838	-23.84364	-9.272886E-008	0.000618	7
	42	278	18.60119	4493.708	-2314.693	1	5054.82	-27.25283	-6.662176E-008	0.000573	7
	43	280	15.02404	4655.377	-2719.612	1	5391.552	-30.29293	-5.308229E-008	0.0006422	7
	44	283	12.01923	4852.938	-3225.619	1	5827.145	-33.61093	-7.275362E-008	0.0006118	7
	45	285	9.450605	5114.406	-3874.798	1	6416.479	-37.14845	-1.008721E-007	0.000628	7
	46	288	7.512019	5408.066	-4627.579	1	7117.701	-40.55297	-9.186823E-008	0.0006044	7
	47	290	5.978954	5771.266	-5510.713	1	7979.691	-43.67701	-8.130595E-008	0.0006035	7
	48	293	4.734848	6229.328	-6587.199	1	9066.186	-46.59943	-6.939965E-008	0.0006401	7
	49	297	3.75601	6769.914	-7862.952	1	10375.83	-49.27192	-7.66276E-008	0.0005651	7
	50	300	3.004808	7409.692	-9299.395	1	11890.43	-51.45241	-6.386696E-008	0.0006223	7
	51	304	2.372217	8239.124	-11110.79	1	13832.31	-53.44148	-7.268208E-008	0.0005601	7
	52	308	1.878005	9243.206	-13210.11	1	16122.77	-55.01924	-7.157799E-008	0.0006155	7
	53	313	1.512097	10368.67	-15482.19	1	18633.51	-56.18914	-6.741071E-008	0.0005037	7
	54	318	1.201923	11797.46	-18336.7	1	21804	-57.24359	-7.178982E-008	0.0006351	7
	55	324	0.956633	13502.46	-21637.16	1	25504.57	-58.03417	-7.714684E-008	-2.731451E-005	7
