EXPLAIN
TAG	EISPOT
TITLE	LABEL	Potentiostatic EIS	Test Identifier
DATE	LABEL	9/23/2020	Date
TIME	LABEL	14:03:36	Time
NOTES	NOTES	1	Notes...
	
PSTAT	PSTAT	REF3000-16137	Potentiostat
VDC	POTEN	0.00000E+000	T	DC Voltage (V)
FREQINIT	QUANT	3.00000E+005	Initial Freq. (Hz)
FREQFINAL	QUANT	1.00000E+000	Final Freq. (Hz)
PTSPERDEC	QUANT	1.00000E+001	Points/decade
VAC	QUANT	5.00000E+001	AC Voltage (mV rms)
AREA	QUANT	1.00000E+000	Sample Area (cm^2)
SPEED	SELECTOR	2	Optimize for:
ZGUESS	QUANT	1.00000E+003	Estimated Z (ohms)
EOC	QUANT	0	Open Circuit (V)
SEQUENCER	TOGGLE	TRUE	Run as Sequence
PSTATMODEL	IQUANT	5	Pstat Model
PSTATSECTION	LABEL	REF3000-16137	Pstat Section
PSTATSERIALNO	LABEL	16137	Pstat Serial Number
CTRLMODE	IQUANT	1	Control Mode
IESTAB	IQUANT	0	I/E Stability
CASPEED	IQUANT	1	Control Amp Speed
CONVENTION	IQUANT	1	Current Convention
ICHRANGE	IQUANT	2	Ich Range
ICHRANGEMODE	TOGGLE	F	Ich Auto Range
ICHOFFSETENABLE	TOGGLE	T	Ich Offset Enable
ICHOFFSET	QUANT	0	Ich Offset (V)
ICHFILTER	IQUANT	3	Ich Filter
VCHRANGE	IQUANT	2	Vch Range
VCHRANGEMODE	TOGGLE	F	Vch Auto Range
VCHOFFSETENABLE	TOGGLE	T	Vch Offset Enable
VCHOFFSET	QUANT	0	Vch Offset (V)
VCHFILTER	IQUANT	3	Vch Filter
ACHRANGE	IQUANT	2	Ach Range
ACHOFFSETENABLE	TOGGLE	F	Ach Offset Enable
ACHOFFSET	QUANT	0	Ach Offset (V)
ACHFILTER	IQUANT	3	Ach Filter
IERANGELOWERLIMIT	IQUANT	2	I/E Range Lower Limit
IERANGEMODE	TOGGLE	F	I/E AutoRange
IERANGE	IQUANT	11	I/E Range
POSFEEDENABLE	TOGGLE	F	Positive Feedback IR Comp
POSFEEDRESISTANCE	QUANT	0	Positive Feedback Resistance (ohm)
ACHSELECT	IQUANT	0	Ach Select
CABLEID	IQUANT	13	Cable ID
DCCALDATE	LABEL	7/31/2020	DC Calibration Date
ACCALDATE	LABEL	7/31/2020	AC Calibration Date
THERMOSELECT	IQUANT	1	Thermo Select
FRAMEWORKVERSION	QUANT	6.33	Framework Version
INSTRUMENTVERSION	LABEL	3.50	Instrument Version
COMPLIANCEVOLTAGE	IQUANT	0	Compliance Voltage
ZCURVE	TABLE
	Pt	Time	Freq	Zreal	Zimag	Zsig	Zmod	Zphz	Idc	Vdc	IERange
	#	s	Hz	ohm	ohm	V	ohm	°	A	V	#
	0	14	300046.9	1409.463	-2744.293	1	3085.082	-62.81506	3.29664E-005	-0.001725	9
	1	31	238359.4	1901.734	-3083.522	1	3622.802	-58.33617	1.960388E-005	-0.001006	9
	2	46	189328.1	2553.759	-3470.689	1	4308.987	-53.65409	-2.1833E-005	0.0011147	9
	3	53	150421.9	3267.964	-3541.537	1	4818.928	-47.30064	-8.74435E-005	0.0040844	9
	4	61	119484.4	4206.628	-3591.245	1	5531.072	-40.48775	7.368432E-006	0.0134682	8
	5	68	94921.88	4990.296	-3517.96	1	6105.662	-35.18232	-2.338115E-005	0.0054085	8
	6	76	75421.88	5704.426	-3310.541	1	6595.465	-30.12857	2.619224E-005	-0.0072869	8
	7	83	59859.37	6296.319	-2981.959	1	6966.757	-25.3424	2.618047E-005	-0.0072276	8
	8	91	47578.12	6820.284	-2593.427	1	7296.721	-20.81941	6.816384E-006	-0.007143	8
	9	98	37828.12	7673.033	-1621.66	1	7842.526	-11.93358	4.950389E-006	-0.0236076	7
	10	103	30046.88	7825.967	-1312.74	1	7935.304	-9.52223	2.09531E-006	0.0084133	7
	11	106	23859.38	7915.068	-1075.973	1	7987.867	-7.741324	-5.706373E-006	0.0097101	7
	12	110	18984.38	7971.314	-888.0457	1	8020.628	-6.356834	6.696821E-006	-0.0206529	7
	13	113	15046.87	8031.998	-721.3853	1	8064.328	-5.132189	3.322345E-006	-0.0215171	7
	14	117	11953.13	8058.048	-572.9172	1	8078.389	-4.066816	6.10051E-006	-0.0232407	7
	15	121	9515.62	8130.334	-477.8391	1	8144.364	-3.363541	6.029485E-006	-0.0233052	7
	16	125	7546.875	8138.9	-422.4161	1	8149.855	-2.971036	4.681277E-006	-0.0228822	7
	17	129	5928.309	8173.994	-346.4693	1	8181.333	-2.427131	-5.790798E-006	0.0222773	7
	18	134	4733.456	8216.046	-320.1534	1	8222.281	-2.231507	-5.698105E-006	0.0096841	7
	19	138	3796.875	8238.69	-267.839	1	8243.043	-1.862024	-6.274918E-006	0.0200705	7
	20	142	2987.132	8302.07	-249.3459	1	8305.813	-1.720315	-6.412927E-007	-0.0122838	7
	21	146	2390.625	8310.634	-259.1064	1	8314.672	-1.785772	-5.742945E-006	0.0098615	7
	22	150	1884.191	8341.395	-248.9845	1	8345.109	-1.709729	6.692173E-006	-0.0206649	7
	23	154	1516.544	8364.636	-227.9585	1	8367.741	-1.561075	-6.358294E-006	0.0159086	7
	24	158	1193.986	8382.207	-223.9649	1	8385.198	-1.530527	-6.346284E-006	0.0201411	7
	25	163	946.5144	8396.195	-314.8961	1	8402.099	-2.14785	-4.469385E-006	0.0023381	7
	26	165	751.7689	8440.887	-311.1224	1	8446.618	-2.110908	-4.830293E-006	0.0231955	7
	27	168	597.4265	8612.718	-443.0356	1	8624.105	-2.944682	8.304001E-008	0.0150096	7
	28	171	477.4305	8557.485	-379.564	1	8565.898	-2.539668	-8.474139E-008	0.0006455	7
	29	173	376.6741	8606.855	-434.0605	1	8617.794	-2.887092	-7.959709E-008	0.0006445	7
	30	175	298.2954	8662.089	-498.3511	1	8676.413	-3.292736	-7.888267E-008	0.0006519	7
	31	178	237.7717	8721.682	-571.5433	1	8740.389	-3.749307	-7.655743E-008	0.0005577	7
	32	180	189.0121	8789.835	-658.2491	1	8814.448	-4.282746	-7.700888E-008	0.0005741	7
	33	182	150.2404	8866.259	-758.1061	1	8898.61	-4.887167	-7.681749E-008	0.0005622	7
	34	185	119.1737	8951.187	-876.5804	1	8994.006	-5.593082	-6.905157E-008	0.0005644	7
	35	187	95.0169	9045.298	-1012.713	1	9101.813	-6.388239	-7.816686E-008	0.0005915	7
	36	190	75.60484	9151.573	-1173.776	1	9226.54	-7.308823	-8.231686E-008	0.0006352	7
	37	192	54.50582	9320.287	-1449.892	1	9432.388	-8.842231	-8.449742E-008	0.000642	7
	38	195	45.95588	9422.66	-1623.809	1	9561.55	-9.77776	-8.767487E-008	0.000568	7
	39	197	37.20238	9564.01	-1873.09	1	9745.71	-11.08099	-7.703326E-008	0.0006397	7
	40	200	30.04808	9721.27	-2165.826	1	9959.62	-12.55994	-9.55779E-008	0.0006421	7
	41	202	23.91582	9902.68	-2534.072	1	10221.77	-14.35384	-9.028196E-008	0.0006152	7
	42	204	18.60119	10151.52	-3027.208	1	10593.27	-16.60471	-1.207135E-007	0.000647	7
	43	207	15.02404	10369.68	-3535.92	1	10955.96	-18.82868	-1.072742E-007	0.0006279	7
	44	209	12.01923	10630.27	-4145.452	1	11409.97	-21.30413	-1.024029E-007	0.0005882	7
	45	211	9.450605	10981.89	-4953.916	1	12047.54	-24.28007	-9.33404E-008	0.0005732	7
	46	214	7.512019	11345.52	-5888.663	1	12782.69	-27.43065	-1.021021E-007	0.0005901	7
	47	217	5.978954	11819.58	-6991.117	1	13732.38	-30.60372	-8.196066E-008	0.0005928	7
	48	220	4.734848	12364.66	-8332.427	1	14910.21	-33.97565	-8.812179E-008	0.0005549	7
	49	223	3.75601	13032.54	-9934.61	1	16387.29	-37.318	-7.330939E-008	0.0006589	7
	50	226	3.004808	13794.36	-11778.09	1	18138.57	-40.49183	-6.244949E-008	0.0005282	7
	51	230	2.372217	14804.03	-14080.94	1	20431.15	-43.56598	-8.06384E-008	0.0005229	7
	52	234	1.878005	15963.21	-16830.18	1	23196.53	-46.51438	-7.34694E-008	0.0006115	7
	53	239	1.512097	17287.14	-19787.03	1	26274.93	-48.85759	-7.537857E-008	0.0005288	7
	54	244	1.201923	19011.63	-23581.58	1	30290.8	-51.124	-7.771601E-008	0.0006309	7
	55	251	0.956633	21077.41	-28000.88	1	35047.21	-53.02973	-8.477507E-008	-4.277756E-005	7
