EXPLAIN
TAG	EISPOT
TITLE	LABEL	Potentiostatic EIS	Test Identifier
DATE	LABEL	9/23/2020	Date
TIME	LABEL	14:17:06	Time
NOTES	NOTES	1	Notes...
	
PSTAT	PSTAT	REF3000-16137	Potentiostat
VDC	POTEN	0.00000E+000	T	DC Voltage (V)
FREQINIT	QUANT	3.00000E+005	Initial Freq. (Hz)
FREQFINAL	QUANT	1.00000E+000	Final Freq. (Hz)
PTSPERDEC	QUANT	1.00000E+001	Points/decade
VAC	QUANT	5.00000E+001	AC Voltage (mV rms)
AREA	QUANT	1.00000E+000	Sample Area (cm^2)
SPEED	SELECTOR	2	Optimize for:
ZGUESS	QUANT	1.00000E+003	Estimated Z (ohms)
EOC	QUANT	0	Open Circuit (V)
SEQUENCER	TOGGLE	TRUE	Run as Sequence
PSTATMODEL	IQUANT	5	Pstat Model
PSTATSECTION	LABEL	REF3000-16137	Pstat Section
PSTATSERIALNO	LABEL	16137	Pstat Serial Number
CTRLMODE	IQUANT	1	Control Mode
IESTAB	IQUANT	0	I/E Stability
CASPEED	IQUANT	1	Control Amp Speed
CONVENTION	IQUANT	1	Current Convention
ICHRANGE	IQUANT	2	Ich Range
ICHRANGEMODE	TOGGLE	F	Ich Auto Range
ICHOFFSETENABLE	TOGGLE	T	Ich Offset Enable
ICHOFFSET	QUANT	0	Ich Offset (V)
ICHFILTER	IQUANT	3	Ich Filter
VCHRANGE	IQUANT	2	Vch Range
VCHRANGEMODE	TOGGLE	F	Vch Auto Range
VCHOFFSETENABLE	TOGGLE	T	Vch Offset Enable
VCHOFFSET	QUANT	0	Vch Offset (V)
VCHFILTER	IQUANT	3	Vch Filter
ACHRANGE	IQUANT	2	Ach Range
ACHOFFSETENABLE	TOGGLE	F	Ach Offset Enable
ACHOFFSET	QUANT	0	Ach Offset (V)
ACHFILTER	IQUANT	3	Ach Filter
IERANGELOWERLIMIT	IQUANT	2	I/E Range Lower Limit
IERANGEMODE	TOGGLE	F	I/E AutoRange
IERANGE	IQUANT	11	I/E Range
POSFEEDENABLE	TOGGLE	F	Positive Feedback IR Comp
POSFEEDRESISTANCE	QUANT	0	Positive Feedback Resistance (ohm)
ACHSELECT	IQUANT	0	Ach Select
CABLEID	IQUANT	13	Cable ID
DCCALDATE	LABEL	7/31/2020	DC Calibration Date
ACCALDATE	LABEL	7/31/2020	AC Calibration Date
THERMOSELECT	IQUANT	1	Thermo Select
FRAMEWORKVERSION	QUANT	6.33	Framework Version
INSTRUMENTVERSION	LABEL	3.50	Instrument Version
COMPLIANCEVOLTAGE	IQUANT	0	Compliance Voltage
ZCURVE	TABLE
	Pt	Time	Freq	Zreal	Zimag	Zsig	Zmod	Zphz	Idc	Vdc	IERange
	#	s	Hz	ohm	ohm	V	ohm	°	A	V	#
	0	24	300046.9	1116.29	-3162.33	1	3353.571	-70.55718	2.614636E-006	-0.002149	9
	1	40	238359.4	1562.5	-3715.279	1	4030.472	-67.1903	-2.948976E-005	-0.001201	9
	2	54	189328.1	2163.294	-4301.915	1	4815.217	-63.30366	2.024443E-005	-0.0021302	9
	3	61	150421.9	2947.483	-5306.927	1	6070.513	-60.95208	8.074212E-005	-0.0032991	9
	4	69	119484.4	4067.398	-5509.118	1	6847.927	-53.56144	-3.300266E-005	-0.0049027	8
	5	76	94921.88	5192.589	-5893.101	1	7854.401	-48.61575	1.516474E-005	-0.0088567	8
	6	84	75421.88	6523.791	-6093.02	1	8926.631	-43.04453	1.514898E-005	-0.0088992	8
	7	92	59859.37	7868.887	-6078.812	1	9943.41	-37.68652	8.878109E-006	0.0037971	8
	8	101	47578.12	10312.82	-4998.843	1	11460.49	-25.86045	-6.604637E-006	0.0165182	7
	9	106	37828.12	11150.75	-4474.834	1	12015.13	-21.86575	-5.913361E-006	0.0230562	7
	10	112	30046.88	11868.33	-3858.11	1	12479.67	-18.00811	-1.803983E-006	0.0200833	7
	11	117	23859.38	12373.34	-3244.388	1	12791.62	-14.69265	-4.906096E-006	0.0239114	7
	12	121	18984.38	12739.82	-2723.334	1	13027.65	-12.06626	-4.903925E-006	0.0239722	7
	13	125	15046.87	13032.72	-2263.093	1	13227.75	-9.85101	2.330899E-006	0.0081015	7
	14	130	11953.13	13199	-1804.552	1	13321.79	-7.785142	-4.768106E-006	0.0028837	7
	15	134	9515.62	13355.9	-1517.366	1	13441.82	-6.481594	-5.944993E-006	0.0232221	7
	16	138	7546.875	13465.34	-1232.591	1	13521.64	-5.230167	-6.579245E-006	0.0167416	7
	17	142	5928.309	13487.17	-888.3574	1	13516.4	-3.768448	-4.679892E-006	0.0028155	7
	18	146	4733.456	13638.63	-888.8345	1	13667.57	-3.728713	-4.701035E-006	0.0029057	7
	19	151	3796.875	13687.46	-698.5347	1	13705.28	-2.921534	-2.887822E-006	-0.0050108	7
	20	155	2987.132	13747.44	-609.7394	1	13760.96	-2.539572	-4.694249E-006	0.0028745	7
	21	159	2390.625	13807.41	-495.001	1	13816.28	-2.053196	-3.525839E-006	0.0229494	7
	22	163	1884.191	13815.88	-547.3542	1	13826.72	-2.268744	5.851729E-006	-0.0086222	7
	23	168	1516.544	13915.84	-453.4221	1	13923.22	-1.866217	-2.917107E-006	-0.0049753	7
	24	172	1193.986	13973.79	-469.4406	1	13981.68	-1.924091	4.912177E-006	-0.0240556	7
	25	177	946.5144	14100.72	-420.2252	1	14106.98	-1.707006	-1.686047E-006	0.0198677	7
	26	179	751.7689	14035.37	-652.1283	1	14050.51	-2.660232	-6.526001E-006	0.0209916	7
	27	182	597.4265	14287.5	-439.1837	1	14294.24	-1.760662	5.817583E-006	-0.0083578	7
	28	184	477.4305	14221.62	-518.3277	1	14231.06	-2.087304	-8.369084E-008	0.000594	7
	29	187	376.6741	14288.78	-576.784	1	14300.42	-2.311558	-8.694011E-008	0.0006436	7
	30	189	298.2954	14363.41	-647.6689	1	14378	-2.58181	-7.914034E-008	0.0005766	7
	31	191	237.7717	14441.9	-732.6807	1	14460.47	-2.904297	-7.746748E-008	0.0005774	7
	32	194	189.0121	14535.32	-835.3914	1	14559.3	-3.289354	-7.767773E-008	0.0005623	7
	33	196	150.2404	14641.39	-957.668	1	14672.67	-3.742289	-7.870346E-008	0.0006167	7
	34	199	119.1737	14759.01	-1087.603	1	14799.03	-4.214552	-9.163721E-008	0.0006558	7
	35	201	95.0169	14884.56	-1261.11	1	14937.89	-4.842878	-8.878263E-008	0.0006498	7
	36	205	75.60484	15041.64	-1454.21	1	15111.77	-5.522136	-8.070495E-008	0.0005577	7
	37	207	54.50582	15263.57	-1781.443	1	15367.18	-6.65699	-8.402754E-008	0.0005664	7
	38	210	45.95588	15413.86	-1986.687	1	15541.37	-7.344342	-7.303985E-008	0.0006338	7
	39	212	37.20238	15603.57	-2279.906	1	15769.25	-8.312913	-9.238334E-008	0.0006349	7
	40	214	30.04808	15813.91	-2614.049	1	16028.5	-9.386154	-9.681676E-008	0.0006488	7
	41	217	23.91582	16045.5	-3043.826	1	16331.65	-10.74136	-1.013729E-007	0.0005563	7
	42	219	18.60119	16361.24	-3609.043	1	16754.56	-12.43939	-8.344259E-008	0.0006598	7
	43	221	15.02404	16686.4	-4181.858	1	17202.44	-14.06939	-5.03437E-008	0.0005938	7
	44	224	12.01923	16995.11	-4874.29	1	17680.28	-16.00318	-7.946195E-008	0.0006476	7
	45	226	9.450605	17398.49	-5786.277	1	18335.45	-18.39575	-5.34854E-008	0.0005607	7
	46	229	7.512019	17882.89	-6858.579	1	19153.01	-20.98319	-6.236041E-008	0.0005778	7
	47	231	5.978954	18436.12	-8098.063	1	20136.26	-23.71348	-6.659041E-008	0.0005684	7
	48	234	4.734848	19088.33	-9605.77	1	21369.02	-26.71279	-7.733645E-008	0.000667	7
	49	238	3.75601	19860.54	-11420.08	1	22909.81	-29.89948	-9.190335E-008	0.0006411	7
	50	241	3.004808	20750.05	-13520.79	1	24766.44	-33.08837	-9.375948E-008	0.0006503	7
	51	245	2.372217	21867.41	-16127.57	1	27171.35	-36.40939	-8.586903E-008	0.000666	7
	52	249	1.878005	23201.83	-19283.72	1	30169.3	-39.73097	-8.809614E-008	0.0005869	7
	53	254	1.512097	24658.14	-22695.49	1	33512.82	-42.62664	-8.625681E-008	0.0006278	7
	54	259	1.201923	26584.4	-27041.7	1	37920.76	-45.48859	-8.364061E-008	0.0005725	7
	55	265	0.956633	28947	-32203.31	1	43301.06	-48.04817	-1.590126E-008	7.882486E-006	6
