EXPLAIN
TAG	EISPOT
TITLE	LABEL	Potentiostatic EIS	Test Identifier
DATE	LABEL	9/23/2020	Date
TIME	LABEL	14:26:38	Time
NOTES	NOTES	1	Notes...
	
PSTAT	PSTAT	REF3000-16137	Potentiostat
VDC	POTEN	0.00000E+000	T	DC Voltage (V)
FREQINIT	QUANT	3.00000E+005	Initial Freq. (Hz)
FREQFINAL	QUANT	1.00000E+000	Final Freq. (Hz)
PTSPERDEC	QUANT	1.00000E+001	Points/decade
VAC	QUANT	5.00000E+001	AC Voltage (mV rms)
AREA	QUANT	1.00000E+000	Sample Area (cm^2)
SPEED	SELECTOR	2	Optimize for:
ZGUESS	QUANT	1.00000E+003	Estimated Z (ohms)
EOC	QUANT	0	Open Circuit (V)
SEQUENCER	TOGGLE	TRUE	Run as Sequence
PSTATMODEL	IQUANT	5	Pstat Model
PSTATSECTION	LABEL	REF3000-16137	Pstat Section
PSTATSERIALNO	LABEL	16137	Pstat Serial Number
CTRLMODE	IQUANT	1	Control Mode
IESTAB	IQUANT	0	I/E Stability
CASPEED	IQUANT	1	Control Amp Speed
CONVENTION	IQUANT	1	Current Convention
ICHRANGE	IQUANT	2	Ich Range
ICHRANGEMODE	TOGGLE	F	Ich Auto Range
ICHOFFSETENABLE	TOGGLE	T	Ich Offset Enable
ICHOFFSET	QUANT	0	Ich Offset (V)
ICHFILTER	IQUANT	3	Ich Filter
VCHRANGE	IQUANT	2	Vch Range
VCHRANGEMODE	TOGGLE	F	Vch Auto Range
VCHOFFSETENABLE	TOGGLE	T	Vch Offset Enable
VCHOFFSET	QUANT	0	Vch Offset (V)
VCHFILTER	IQUANT	3	Vch Filter
ACHRANGE	IQUANT	2	Ach Range
ACHOFFSETENABLE	TOGGLE	F	Ach Offset Enable
ACHOFFSET	QUANT	0	Ach Offset (V)
ACHFILTER	IQUANT	3	Ach Filter
IERANGELOWERLIMIT	IQUANT	2	I/E Range Lower Limit
IERANGEMODE	TOGGLE	F	I/E AutoRange
IERANGE	IQUANT	11	I/E Range
POSFEEDENABLE	TOGGLE	F	Positive Feedback IR Comp
POSFEEDRESISTANCE	QUANT	0	Positive Feedback Resistance (ohm)
ACHSELECT	IQUANT	0	Ach Select
CABLEID	IQUANT	13	Cable ID
DCCALDATE	LABEL	7/31/2020	DC Calibration Date
ACCALDATE	LABEL	7/31/2020	AC Calibration Date
THERMOSELECT	IQUANT	1	Thermo Select
FRAMEWORKVERSION	QUANT	6.33	Framework Version
INSTRUMENTVERSION	LABEL	3.50	Instrument Version
COMPLIANCEVOLTAGE	IQUANT	0	Compliance Voltage
ZCURVE	TABLE
	Pt	Time	Freq	Zreal	Zimag	Zsig	Zmod	Zphz	Idc	Vdc	IERange
	#	s	Hz	ohm	ohm	V	ohm	°	A	V	#
	0	14	300046.9	949.4774	-3370.089	1	3501.286	-74.26553	-6.289077E-005	0.0004374	9
	1	28	238359.4	1336.921	-3987.565	1	4205.714	-71.46511	-9.093931E-005	0.002157	9
	2	46	189328.1	1876.307	-4791.977	1	5146.219	-68.61709	-6.191016E-005	0.0005331	9
	3	56	150421.9	2249.171	-5592.165	1	6027.527	-68.08999	-8.681022E-005	0.0040787	9
	4	64	119484.4	3274.517	-6571.297	1	7341.962	-63.51265	2.668091E-005	-0.0014414	9
	5	73	94921.88	4808.058	-7449.264	1	8866.169	-57.16016	1.542768E-005	-0.009003	8
	6	81	75421.88	6352.984	-8303.899	1	10455.39	-52.58183	1.538394E-005	-0.0090387	8
	7	90	59859.37	8148.608	-8821.528	1	12009.13	-47.27077	2.575895E-005	-0.0052263	8
	8	98	47578.12	10225.14	-9290.451	1	13815.42	-42.25795	8.684719E-006	0.0038078	8
	9	107	37828.12	13452.77	-8097.092	1	15701.59	-31.04332	6.825142E-006	-0.0165324	7
	10	113	30046.88	15066.3	-7461.365	1	16812.65	-26.34625	-2.99157E-006	-0.0049801	7
	11	120	23859.38	16371.95	-6652.835	1	17672.04	-22.11465	3.255801E-007	0.0150636	7
	12	124	18984.38	17443.56	-5779.205	1	18375.99	-18.33049	-5.881317E-006	0.0232226	7
	13	128	15046.87	18232.16	-4874.347	1	18872.49	-14.9679	4.92551E-006	-0.0243903	7
	14	132	11953.13	18774.19	-4086.079	1	19213.7	-12.27857	7.030009E-006	-0.0221679	7
	15	137	9515.62	19257.56	-3422.988	1	19559.41	-10.07893	-2.9644E-006	-0.0051894	7
	16	141	7546.875	19491.7	-2708.087	1	19678.92	-7.909777	6.885041E-006	-0.0165144	7
	17	145	5928.309	19934.5	-1982.341	1	20032.82	-5.678978	1.256806E-006	-0.0182984	7
	18	149	4733.456	19909.75	-2002.164	1	20010.16	-5.742473	-3.034724E-006	-0.004839	7
	19	154	3796.875	20140.6	-1528.832	1	20198.54	-4.340881	-2.983717E-006	-0.0049567	7
	20	158	2987.132	20303.81	-1095.915	1	20333.36	-3.089591	-6.115344E-006	0.0108593	7
	21	162	2390.625	20228.66	-1095.445	1	20258.29	-3.099719	2.999177E-007	0.0151402	7
	22	166	1884.191	20680.54	-806.5665	1	20696.27	-2.233474	-4.938033E-006	0.0244041	7
	23	171	1516.544	20482.43	-878.0198	1	20501.24	-2.454594	7.044367E-006	-0.0222547	7
	24	175	1193.986	20355.81	-660.9204	1	20366.53	-1.859649	2.450851E-006	0.0079921	7
	25	180	946.5144	20707.94	-497.0169	1	20713.9	-1.374908	-3.483524E-006	0.0235593	7
	26	182	751.7689	20917.76	-227.6427	1	20919	-0.623511	-6.118298E-006	0.0238632	7
	27	185	597.4265	20978.74	-737.645	1	20991.7	-2.013779	-6.11797E-006	0.0106562	7
	28	187	477.4305	20849.43	-699.8661	1	20861.17	-1.922562	-8.276327E-008	0.0005659	7
	29	190	376.6741	20940.29	-749.3493	1	20953.69	-2.049458	-8.09147E-008	0.000559	7
	30	192	298.2954	21041.8	-820.6573	1	21057.8	-2.233477	-9.073365E-008	0.0006391	7
	31	194	237.7717	21142.41	-907.5114	1	21161.88	-2.457841	-8.662183E-008	0.0005925	7
	32	197	189.0121	21257.21	-1015.663	1	21281.46	-2.735494	-8.313007E-008	0.0005599	7
	33	199	150.2404	21385.79	-1154.562	1	21416.94	-3.090247	-8.521544E-008	0.0006496	7
	34	202	119.1737	21543.29	-1334.714	1	21584.59	-3.545228	-9.413537E-008	0.0006479	7
	35	204	95.0169	21699.63	-1503.806	1	21751.67	-3.964317	-8.786797E-008	0.0006476	7
	36	207	75.60484	21881.67	-1721.06	1	21949.25	-4.49723	-7.895726E-008	0.000562	7
	37	209	54.50582	22158.33	-2106.603	1	22258.24	-5.430813	-8.764682E-008	0.0006099	7
	38	212	45.95588	22358.35	-2332.403	1	22479.68	-5.955501	-7.828536E-008	0.0006438	7
	39	214	37.20238	22596.23	-2667.299	1	22753.11	-6.732142	-7.33299E-008	0.000575	7
	40	216	30.04808	22863.44	-3046.509	1	23065.52	-7.589842	-8.187028E-008	0.00067	7
	41	219	23.91582	23168.83	-3519.778	1	23434.67	-8.638248	-7.57345E-008	0.000643	7
	42	221	18.60119	23543.08	-4185.138	1	23912.18	-10.07989	-5.878151E-008	0.0005757	7
	43	224	15.02404	23962.11	-4776.805	1	24433.59	-11.27402	-4.80501E-008	0.000567	7
	44	226	12.01923	24339.61	-5510.081	1	24955.51	-12.7558	-5.681371E-008	0.000653	7
	45	228	9.450605	24865.65	-6590.757	1	25724.28	-14.84516	-8.857052E-008	0.0006403	7
	46	231	7.512019	25411.35	-7754.235	1	26568.12	-16.96949	-1.004181E-007	0.0006345	7
	47	234	5.978954	26075.98	-9093.651	1	27616.14	-19.22554	-8.621977E-008	0.00062	7
	48	237	4.734848	26800.29	-10773.59	1	28884.7	-21.8999	-9.667393E-008	0.0005701	7
	49	240	3.75601	27716.38	-12741.76	1	30504.92	-24.68916	-7.382449E-008	0.0005899	7
	50	243	3.004808	28732	-15056.89	1	32438.22	-27.65661	-7.871834E-008	0.00063	7
	51	247	2.372217	29995.54	-17889.62	1	34925.21	-30.81224	-8.487579E-008	0.0005369	7
	52	251	1.878005	31468.24	-21372.23	1	38039.75	-34.1831	-7.944296E-008	0.0006133	7
	53	256	1.512097	33139.63	-25159.36	1	41608.04	-37.2055	-5.733701E-009	0.0005964	6
	54	261	1.201923	35246.85	-29956.62	1	46257.32	-40.36152	-8.010991E-009	0.000677	6
	55	268	0.956633	37771.6	-35636.57	1	51929.36	-43.33406	-1.424752E-008	1.472941E-005	6
