EXPLAIN
TAG	EISPOT
TITLE	LABEL	Potentiostatic EIS	Test Identifier
DATE	LABEL	9/23/2020	Date
TIME	LABEL	15:07:38	Time
NOTES	NOTES	1	Notes...
	
PSTAT	PSTAT	REF3000-16137	Potentiostat
VDC	POTEN	0.00000E+000	T	DC Voltage (V)
FREQINIT	QUANT	3.00000E+005	Initial Freq. (Hz)
FREQFINAL	QUANT	1.00000E+000	Final Freq. (Hz)
PTSPERDEC	QUANT	1.00000E+001	Points/decade
VAC	QUANT	5.00000E+001	AC Voltage (mV rms)
AREA	QUANT	1.00000E+000	Sample Area (cm^2)
SPEED	SELECTOR	2	Optimize for:
ZGUESS	QUANT	1.00000E+003	Estimated Z (ohms)
EOC	QUANT	0	Open Circuit (V)
SEQUENCER	TOGGLE	TRUE	Run as Sequence
PSTATMODEL	IQUANT	5	Pstat Model
PSTATSECTION	LABEL	REF3000-16137	Pstat Section
PSTATSERIALNO	LABEL	16137	Pstat Serial Number
CTRLMODE	IQUANT	1	Control Mode
IESTAB	IQUANT	0	I/E Stability
CASPEED	IQUANT	1	Control Amp Speed
CONVENTION	IQUANT	1	Current Convention
ICHRANGE	IQUANT	2	Ich Range
ICHRANGEMODE	TOGGLE	F	Ich Auto Range
ICHOFFSETENABLE	TOGGLE	T	Ich Offset Enable
ICHOFFSET	QUANT	0	Ich Offset (V)
ICHFILTER	IQUANT	3	Ich Filter
VCHRANGE	IQUANT	2	Vch Range
VCHRANGEMODE	TOGGLE	F	Vch Auto Range
VCHOFFSETENABLE	TOGGLE	T	Vch Offset Enable
VCHOFFSET	QUANT	0	Vch Offset (V)
VCHFILTER	IQUANT	3	Vch Filter
ACHRANGE	IQUANT	2	Ach Range
ACHOFFSETENABLE	TOGGLE	F	Ach Offset Enable
ACHOFFSET	QUANT	0	Ach Offset (V)
ACHFILTER	IQUANT	3	Ach Filter
IERANGELOWERLIMIT	IQUANT	2	I/E Range Lower Limit
IERANGEMODE	TOGGLE	F	I/E AutoRange
IERANGE	IQUANT	11	I/E Range
POSFEEDENABLE	TOGGLE	F	Positive Feedback IR Comp
POSFEEDRESISTANCE	QUANT	0	Positive Feedback Resistance (ohm)
ACHSELECT	IQUANT	0	Ach Select
CABLEID	IQUANT	13	Cable ID
DCCALDATE	LABEL	7/31/2020	DC Calibration Date
ACCALDATE	LABEL	7/31/2020	AC Calibration Date
THERMOSELECT	IQUANT	1	Thermo Select
FRAMEWORKVERSION	QUANT	6.33	Framework Version
INSTRUMENTVERSION	LABEL	3.50	Instrument Version
COMPLIANCEVOLTAGE	IQUANT	0	Compliance Voltage
ZCURVE	TABLE
	Pt	Time	Freq	Zreal	Zimag	Zsig	Zmod	Zphz	Idc	Vdc	IERange
	#	s	Hz	ohm	ohm	V	ohm	°	A	V	#
	0	17	300046.9	382.9967	-4040.148	1	4058.261	-84.58467	2.177941E-005	-0.000478	9
	1	32	238359.4	523.9932	-4867.349	1	4895.473	-83.8555	-1.966959E-005	0.0015954	9
	2	54	189328.1	755.9212	-5978.954	1	6026.55	-82.7943	2.029612E-005	-0.0020931	9
	3	63	150421.9	1463.14	-7421.553	1	7564.405	-78.84731	-2.16816E-005	0.0015599	9
	4	70	119484.4	1693.682	-9274.323	1	9427.705	-79.65066	8.16083E-005	-0.0032765	9
	5	80	94921.88	2339.996	-11284.91	1	11524.96	-78.28538	-2.45317E-005	0.0109952	8
	6	89	75421.88	3059.377	-13768.65	1	14104.45	-77.47247	1.741911E-005	0.0002402	8
	7	98	59859.37	4259.262	-17155.02	1	17675.86	-76.0565	-2.633811E-005	0.0096236	8
	8	106	47578.12	8085.334	-21149.34	1	22642.16	-69.07829	6.508614E-006	-0.0258986	7
	9	114	37828.12	10221.89	-25352.2	1	27335.35	-68.04095	-6.997905E-006	0.0226656	7
	10	120	30046.88	10298.77	-30274.94	1	31978.69	-71.213	2.216594E-005	-0.0095684	8
	11	129	23859.38	15410.93	-35045.38	1	38284.14	-66.26288	-1.99493E-005	0.0113384	8
	12	136	18984.38	19912.22	-43316.25	1	47673.83	-65.31203	-2.631646E-005	0.0076031	8
	13	144	15046.87	27100.01	-50423.41	1	57244.48	-61.74423	-2.393576E-005	0.0053201	8
	14	151	11953.13	36161	-57996.6	1	68346.35	-58.05637	1.74524E-005	0.0001574	8
	15	157	9515.62	51295.86	-61919.84	1	80407.29	-50.36085	-5.024945E-006	0.0258098	7
	16	164	7546.875	65028.62	-65882.41	1	92570.05	-45.37367	-5.147544E-006	0.025789	7
	17	171	5928.309	83370.06	-67436.7	1	107230	-38.96883	-5.192361E-006	0.0036452	7
	18	176	4733.456	82021.9	-41423.42	1	91888.47	-26.79509	-9.665741E-006	-0.0020681	8
	19	184	3796.875	107833.7	-60665.06	1	123727	-29.36122	-5.198686E-006	0.0036918	7
	20	189	2987.132	113211.5	-45561.6	1	122035.7	-21.92215	-1.689744E-006	0.0211242	7
	21	196	2390.625	129471.4	-49770.96	1	138708.3	-21.02759	-7.148368E-006	0.0182374	7
	22	202	1884.191	137110.7	-48564.62	1	145457.4	-19.50415	1.179888E-006	-0.0190048	7
	23	208	1516.544	143589.5	-27894.07	1	146273.8	-10.9935	3.855884E-007	-0.0244419	6
	24	213	1193.986	145799.5	-21629.39	1	147395.2	-8.438296	4.115953E-007	0.0019235	6
	25	217	946.5144	147570.9	-19938.44	1	148911.8	-7.694689	5.881181E-007	-0.0070603	6
	26	220	751.7689	151200	-15992.81	1	152043.5	-6.037869	-3.936784E-007	0.0249492	6
	27	222	597.4265	150884.4	-12034.02	1	151363.6	-4.560061	-7.194411E-007	0.0171275	6
	28	225	477.4305	151329.8	-10588.86	1	151699.9	-4.002579	-9.853517E-009	0.0006873	6
	29	227	376.6741	152014.5	-8879.019	1	152273.6	-3.342793	-1.049912E-008	0.0006929	6
	30	230	298.2954	152643.2	-7349.843	1	152820.1	-2.75669	-9.818031E-009	0.0006075	6
	31	232	237.7717	153283.3	-6751.762	1	153432	-2.522111	-1.048984E-008	0.000669	6
	32	235	189.0121	153851.6	-6098.84	1	153972.4	-2.270077	-1.026426E-008	0.0006853	6
	33	237	150.2404	154545.1	-5794.384	1	154653.7	-2.147194	-9.649691E-009	0.0006018	6
	34	240	119.1737	155783.9	-6253.141	1	155909.4	-2.298609	-9.326541E-009	0.0006872	6
	35	242	95.0169	155858.2	-5396.019	1	155951.5	-1.982865	-9.74712E-009	0.000606	6
	36	245	75.60484	156720.7	-5671.238	1	156823.2	-2.072454	-1.046727E-008	0.000653	6
	37	247	54.50582	157811.7	-5612.987	1	157911.5	-2.037016	-1.022903E-008	0.0006883	6
	38	250	45.95588	158426.5	-6616.714	1	158564.6	-2.39158	-1.14453E-008	0.0006895	6
	39	252	37.20238	159324	-7130.201	1	159483.5	-2.562438	-1.149881E-008	0.0006305	6
	40	254	30.04808	160349	-7820.591	1	160539.6	-2.792234	-8.43974E-009	0.0006122	6
	41	257	23.91582	161436.9	-9003.502	1	161687.8	-3.192137	-6.807589E-009	0.0006076	6
	42	260	18.60119	162979.3	-10222.56	1	163299.5	-3.589067	-1.1547E-008	0.0006134	6
	43	262	15.02404	164194.1	-11347.66	1	164585.8	-3.953498	-1.267125E-008	0.0006761	6
	44	264	12.01923	165664.8	-12817.31	1	166159.9	-4.424102	-9.589954E-009	0.0006178	6
	45	267	9.450605	167379.9	-14439.19	1	168001.5	-4.930471	-1.527536E-008	0.0006377	6
	46	269	7.512019	169266.2	-16904.33	1	170108.2	-5.70312	-1.214575E-008	0.0006079	6
	47	272	5.978954	171573.5	-19214.44	1	172646.1	-6.389904	-9.960957E-009	0.0006857	6
	48	277	4.734848	173855.8	-22227.86	1	175271	-7.285867	-1.289607E-008	0.0006858	6
	49	280	3.75601	176950	-25519.7	1	178780.8	-8.206602	-1.001101E-008	0.0006207	6
	50	286	3.004808	180054.4	-29365.14	1	182433.3	-9.262837	-8.499803E-009	0.0006592	6
	51	292	2.372217	184169.8	-34115.23	1	187302.8	-10.4944	-1.418571E-008	0.0006589	6
	52	296	1.878005	187835.5	-39468.49	1	191937.3	-11.86651	-1.273792E-008	0.0006576	6
	53	301	1.512097	191581	-45651.68	1	196945	-13.40301	-1.020859E-008	0.0005401	6
	54	306	1.201923	196830.2	-53532.72	1	203980.1	-15.21494	-1.244734E-008	0.000666	6
	55	313	0.956633	202539	-62839.09	1	212063.1	-17.23686	-1.352603E-008	1.170657E-005	6
