EXPLAIN
TAG	EISPOT
TITLE	LABEL	Potentiostatic EIS	Test Identifier
DATE	LABEL	9/23/2020	Date
TIME	LABEL	13:08:53	Time
NOTES	NOTES	1	Notes...
	
PSTAT	PSTAT	REF3000-16137	Potentiostat
VDC	POTEN	0.00000E+000	T	DC Voltage (V)
FREQINIT	QUANT	3.00000E+005	Initial Freq. (Hz)
FREQFINAL	QUANT	1.00000E+000	Final Freq. (Hz)
PTSPERDEC	QUANT	1.00000E+001	Points/decade
VAC	QUANT	5.00000E+001	AC Voltage (mV rms)
AREA	QUANT	1.00000E+000	Sample Area (cm^2)
SPEED	SELECTOR	2	Optimize for:
ZGUESS	QUANT	1.00000E+003	Estimated Z (ohms)
EOC	QUANT	0	Open Circuit (V)
SEQUENCER	TOGGLE	TRUE	Run as Sequence
PSTATMODEL	IQUANT	5	Pstat Model
PSTATSECTION	LABEL	REF3000-16137	Pstat Section
PSTATSERIALNO	LABEL	16137	Pstat Serial Number
CTRLMODE	IQUANT	1	Control Mode
IESTAB	IQUANT	0	I/E Stability
CASPEED	IQUANT	1	Control Amp Speed
CONVENTION	IQUANT	1	Current Convention
ICHRANGE	IQUANT	2	Ich Range
ICHRANGEMODE	TOGGLE	F	Ich Auto Range
ICHOFFSETENABLE	TOGGLE	T	Ich Offset Enable
ICHOFFSET	QUANT	0	Ich Offset (V)
ICHFILTER	IQUANT	3	Ich Filter
VCHRANGE	IQUANT	2	Vch Range
VCHRANGEMODE	TOGGLE	F	Vch Auto Range
VCHOFFSETENABLE	TOGGLE	T	Vch Offset Enable
VCHOFFSET	QUANT	0	Vch Offset (V)
VCHFILTER	IQUANT	3	Vch Filter
ACHRANGE	IQUANT	2	Ach Range
ACHOFFSETENABLE	TOGGLE	F	Ach Offset Enable
ACHOFFSET	QUANT	0	Ach Offset (V)
ACHFILTER	IQUANT	3	Ach Filter
IERANGELOWERLIMIT	IQUANT	2	I/E Range Lower Limit
IERANGEMODE	TOGGLE	F	I/E AutoRange
IERANGE	IQUANT	11	I/E Range
POSFEEDENABLE	TOGGLE	F	Positive Feedback IR Comp
POSFEEDRESISTANCE	QUANT	0	Positive Feedback Resistance (ohm)
ACHSELECT	IQUANT	0	Ach Select
CABLEID	IQUANT	13	Cable ID
DCCALDATE	LABEL	7/31/2020	DC Calibration Date
ACCALDATE	LABEL	7/31/2020	AC Calibration Date
THERMOSELECT	IQUANT	1	Thermo Select
FRAMEWORKVERSION	QUANT	6.33	Framework Version
INSTRUMENTVERSION	LABEL	3.50	Instrument Version
COMPLIANCEVOLTAGE	IQUANT	0	Compliance Voltage
ZCURVE	TABLE
	Pt	Time	Freq	Zreal	Zimag	Zsig	Zmod	Zphz	Idc	Vdc	IERange
	#	s	Hz	ohm	ohm	V	ohm	°	A	V	#
	0	20	300046.9	1262.833	-554.9303	1	1379.382	-23.72227	-6.202276E-005	0.0004522	9
	1	50	238359.4	1348.036	-483.1015	1	1431.987	-19.71638	8.723786E-005	-0.0025889	9
	2	72	189328.1	1418.21	-411.5001	1	1476.703	-16.18033	4.921215E-005	2.532253E-005	9
	3	78	150421.9	1475.405	-342.1535	1	1514.559	-13.05637	-1.902336E-005	0.0015223	9
	4	88	119484.4	1511.059	-236.3155	1	1529.426	-8.888526	5.865191E-005	-0.0120819	8
	5	94	94921.88	1524.984	-193.5593	1	1537.219	-7.233611	2.217891E-005	-0.00466	8
	6	97	75421.88	1533.383	-159.5637	1	1541.663	-5.940813	1.716511E-005	-0.007683	8
	7	100	59859.37	1547.429	-126.9173	1	1552.625	-4.688801	-1.450052E-005	0.0014515	8
	8	104	47578.12	1553.511	-110.0199	1	1557.402	-4.050935	2.171128E-005	-0.0046535	8
	9	108	37828.12	1562.921	-89.38586	1	1565.475	-3.273269	1.580743E-005	-0.000453	8
	10	111	30046.88	1568.638	-73.61855	1	1570.365	-2.687006	1.561626E-005	-0.000282	8
	11	114	23859.38	1572.712	-62.9007	1	1573.969	-2.290327	-7.250819E-009	0.0060654	8
	12	117	18984.38	1575.496	-52.98897	1	1576.387	-1.926314	2.256253E-007	0.0059202	8
	13	120	15046.87	1580.58	-46.29593	1	1581.258	-1.67774	5.302202E-006	-0.0059424	8
	14	123	11953.13	1584.399	-47.11284	1	1585.099	-1.703215	1.643458E-005	-0.0003367	8
	15	127	9515.62	1586.871	-45.32317	1	1587.519	-1.635999	-2.155872E-005	0.008291	8
	16	130	7546.875	1591.412	-41.85349	1	1591.963	-1.506508	-1.471226E-005	0.0013379	8
	17	133	5928.309	1596.274	-46.64761	1	1596.955	-1.673868	-2.484326E-006	-0.003625	8
	18	137	4733.456	1600.809	-47.15089	1	1601.504	-1.687125	-2.504605E-006	-0.0036325	8
	19	142	3796.875	1608.739	-52.59008	1	1609.598	-1.872347	-2.799703E-007	0.0060526	8
	20	146	2987.132	1618.939	-60.99735	1	1620.087	-2.157734	2.114188E-005	-0.0075059	8
	21	150	2390.625	1623.68	-67.78769	1	1625.094	-2.390677	-2.24432E-006	-0.0036669	8
	22	153	1884.191	1632.785	-77.96513	1	1634.645	-2.733785	2.265815E-005	-0.0063785	8
	23	158	1516.544	1645.517	-86.20348	1	1647.774	-2.998804	-9.50297E-006	-0.0010251	8
	24	162	1193.986	1654.366	-97.6636	1	1657.246	-3.37847	-8.29465E-006	0.00819	8
	25	166	946.5144	1655.876	-121.3747	1	1660.319	-4.192248	-2.072416E-005	0.0051405	8
	26	169	751.7689	1670.153	-144.2354	1	1676.369	-4.935853	-2.218124E-006	-0.0037595	8
	27	172	597.4265	1681.4	-162.4018	1	1689.225	-5.516928	2.119175E-005	-0.0074045	8
	28	174	477.4305	1705.751	-179.767	1	1715.198	-6.016121	-2.352437E-007	0.0006214	8
	29	177	376.6741	1723.659	-210.4158	1	1736.455	-6.95995	-2.374396E-007	0.0006207	8
	30	179	298.2954	1743.57	-246.2206	1	1760.87	-8.037951	-2.901614E-007	0.0006425	8
	31	181	237.7717	1765.389	-287.5517	1	1788.654	-9.251261	-2.529933E-007	0.0006375	8
	32	184	189.0121	1790.271	-337.2818	1	1821.766	-10.6693	-2.666281E-007	0.0006452	8
	33	186	150.2404	1818.403	-396.6519	1	1861.161	-12.30529	-2.788275E-007	0.0006378	8
	34	188	119.1737	1850.74	-468.1644	1	1909.036	-14.19578	-2.631518E-007	0.0006271	8
	35	191	95.0169	1886.9	-552.1919	1	1966.039	-16.31185	-2.718928E-007	0.0006458	8
	36	193	75.60484	1929.282	-653.6115	1	2036.992	-18.7156	-2.855214E-007	0.0006456	8
	37	196	54.50582	2001.496	-835.1404	1	2168.743	-22.64873	-2.656228E-007	0.0006418	8
	38	198	45.95588	2047.239	-950.444	1	2257.107	-24.90341	-2.794987E-007	0.0006321	8
	39	201	37.20238	2111.599	-1116.683	1	2388.688	-27.87136	-2.777214E-007	0.0006317	8
	40	203	30.04808	2189.003	-1315.46	1	2553.854	-31.00334	-2.649143E-007	0.0006357	8
	41	206	23.91582	2286.702	-1568.045	1	2772.683	-34.43935	-2.456728E-007	0.0006296	8
	42	208	18.60119	2419.123	-1905.389	1	3079.393	-38.22526	-2.485992E-007	0.0006506	8
	43	210	15.02404	2552.706	-2246.76	1	3400.624	-41.35257	-2.52013E-007	0.0006264	8
	44	213	12.01923	2723.521	-2665.5	1	3810.834	-44.38316	-2.166135E-007	0.000628	8
	45	215	9.450605	2955.215	-3214.482	1	4366.485	-47.40631	-4.648417E-008	0.0006018	7
	46	217	7.512019	3217.705	-3826.496	1	4999.57	-49.93948	-1.566864E-008	0.0005865	7
	47	220	5.978954	3536.988	-4549.393	1	5762.574	-52.13623	-3.535792E-008	0.0006376	7
	48	223	4.734848	3939.566	-5421.331	1	6701.567	-53.99489	-4.730713E-008	0.0005892	7
	49	226	3.75601	4422.154	-6443.392	1	7814.905	-55.53786	-5.662018E-008	0.0006614	7
	50	230	3.004808	4980.616	-7588.041	1	9076.612	-56.72002	-6.813445E-008	0.0006196	7
	51	234	2.372217	5700.338	-9015.251	1	10666.24	-57.69485	-4.675443E-008	0.0006432	7
	52	238	1.878005	6578.061	-10658.01	1	12524.54	-58.31736	-4.525786E-008	0.0005802	7
	53	243	1.512097	7537.632	-12428.63	1	14535.71	-58.76431	-5.242541E-008	0.0007019	7
	54	248	1.201923	8758.191	-14598.21	1	17023.92	-59.03837	-4.661581E-008	0.0006005	7
	55	254	0.956633	10182.65	-17089.29	1	19892.97	-59.2114	-7.35925E-008	-2.95686E-005	7
