EXPLAIN
TAG	EISPOT
TITLE	LABEL	Potentiostatic EIS	Test Identifier
DATE	LABEL	9/23/2020	Date
TIME	LABEL	14:41:39	Time
NOTES	NOTES	1	Notes...
	
PSTAT	PSTAT	REF3000-16137	Potentiostat
VDC	POTEN	0.00000E+000	T	DC Voltage (V)
FREQINIT	QUANT	3.00000E+005	Initial Freq. (Hz)
FREQFINAL	QUANT	1.00000E+000	Final Freq. (Hz)
PTSPERDEC	QUANT	1.00000E+001	Points/decade
VAC	QUANT	5.00000E+001	AC Voltage (mV rms)
AREA	QUANT	1.00000E+000	Sample Area (cm^2)
SPEED	SELECTOR	2	Optimize for:
ZGUESS	QUANT	1.00000E+003	Estimated Z (ohms)
EOC	QUANT	0	Open Circuit (V)
SEQUENCER	TOGGLE	TRUE	Run as Sequence
PSTATMODEL	IQUANT	5	Pstat Model
PSTATSECTION	LABEL	REF3000-16137	Pstat Section
PSTATSERIALNO	LABEL	16137	Pstat Serial Number
CTRLMODE	IQUANT	1	Control Mode
IESTAB	IQUANT	0	I/E Stability
CASPEED	IQUANT	1	Control Amp Speed
CONVENTION	IQUANT	1	Current Convention
ICHRANGE	IQUANT	2	Ich Range
ICHRANGEMODE	TOGGLE	F	Ich Auto Range
ICHOFFSETENABLE	TOGGLE	T	Ich Offset Enable
ICHOFFSET	QUANT	0	Ich Offset (V)
ICHFILTER	IQUANT	3	Ich Filter
VCHRANGE	IQUANT	2	Vch Range
VCHRANGEMODE	TOGGLE	F	Vch Auto Range
VCHOFFSETENABLE	TOGGLE	T	Vch Offset Enable
VCHOFFSET	QUANT	0	Vch Offset (V)
VCHFILTER	IQUANT	3	Vch Filter
ACHRANGE	IQUANT	2	Ach Range
ACHOFFSETENABLE	TOGGLE	F	Ach Offset Enable
ACHOFFSET	QUANT	0	Ach Offset (V)
ACHFILTER	IQUANT	3	Ach Filter
IERANGELOWERLIMIT	IQUANT	2	I/E Range Lower Limit
IERANGEMODE	TOGGLE	F	I/E AutoRange
IERANGE	IQUANT	11	I/E Range
POSFEEDENABLE	TOGGLE	F	Positive Feedback IR Comp
POSFEEDRESISTANCE	QUANT	0	Positive Feedback Resistance (ohm)
ACHSELECT	IQUANT	0	Ach Select
CABLEID	IQUANT	13	Cable ID
DCCALDATE	LABEL	7/31/2020	DC Calibration Date
ACCALDATE	LABEL	7/31/2020	AC Calibration Date
THERMOSELECT	IQUANT	1	Thermo Select
FRAMEWORKVERSION	QUANT	6.33	Framework Version
INSTRUMENTVERSION	LABEL	3.50	Instrument Version
COMPLIANCEVOLTAGE	IQUANT	0	Compliance Voltage
ZCURVE	TABLE
	Pt	Time	Freq	Zreal	Zimag	Zsig	Zmod	Zphz	Idc	Vdc	IERange
	#	s	Hz	ohm	ohm	V	ohm	°	A	V	#
	0	14	300046.9	675.4271	-3681.707	1	3743.149	-79.60441	8.855818E-005	-0.0027072	9
	1	31	238359.4	975.917	-4379.19	1	4486.615	-77.43674	-9.331771E-005	0.0021543	9
	2	58	189328.1	1310.324	-5398.925	1	5555.658	-76.35803	2.801439E-005	-0.0019324	9
	3	68	150421.9	1999.97	-6409.09	1	6713.89	-72.66936	7.612308E-005	-0.001458	9
	4	75	119484.4	2498.418	-7866.317	1	8253.547	-72.37965	2.707808E-005	-0.0014086	9
	5	86	94921.88	3780.485	-9324.653	1	10061.87	-67.93094	-1.485821E-006	-0.0048934	8
	6	95	75421.88	4974.749	-11150.18	1	12209.61	-65.95555	2.67283E-005	-0.007364	8
	7	103	59859.37	6829.378	-13015.21	1	14698.17	-62.31298	-1.148568E-005	0.0100944	8
	8	112	47578.12	11442.4	-14500.6	1	18471.49	-51.72309	7.166934E-006	-0.0228433	7
	9	118	37828.12	14387.44	-15845.93	1	21403.08	-47.76187	-6.156793E-006	0.024222	7
	10	124	30046.88	18011.19	-16933.52	1	24721.39	-43.23361	5.096339E-007	0.0150902	7
	11	130	23859.38	20103.58	-17485.55	1	26643.92	-41.01587	-1.608432E-005	0.0007588	8
	12	137	18984.38	24776.14	-17532.23	1	30351.87	-35.28421	-1.590951E-006	0.0074181	8
	13	144	15046.87	27856.7	-16423.32	1	32337.61	-30.52209	-1.528952E-006	0.007519	8
	14	151	11953.13	31889.92	-14436.8	1	35005.55	-24.35662	-1.917401E-005	0.0111876	8
	15	157	9515.62	33495.09	-13701.4	1	36189.08	-22.24737	-2.051291E-005	0.0029621	8
	16	165	7546.875	36151.26	-11088.03	1	37813.46	-17.05141	-1.504683E-006	-0.0050398	8
	17	171	5928.309	36704.4	-8897.651	1	37767.46	-13.62643	-6.885568E-006	0.0177333	7
	18	177	4733.456	37811.17	-6988.561	1	38451.59	-10.47169	6.442063E-006	-0.025357	7
	19	182	3796.875	39074.86	-5537.006	1	39465.21	-8.06526	2.549503E-006	0.0080191	7
	20	187	2987.132	39203.63	-4959.101	1	39516.04	-7.209395	4.592142E-006	-0.0006368	7
	21	193	2390.625	39492.56	-3774.264	1	39672.5	-5.459119	5.070926E-006	-0.0251423	7
	22	198	1884.191	46266.21	2612.906	1	46339.94	3.232373	-1.922521E-005	0.0111719	8
	23	205	1516.544	40136.32	-4813.012	1	40423.87	-6.838064	-1.613071E-006	0.0075052	8
	24	212	1193.986	40927.59	-2139.589	1	40983.47	-2.992553	6.177179E-006	-0.0094296	7
	25	218	946.5144	43320.99	-244.1341	1	43321.68	-0.3228852	-3.215328E-006	-0.0045629	7
	26	221	751.7689	41719.75	-2463.921	1	41792.44	-3.379899	4.568588E-007	0.0151664	7
	27	225	597.4265	42463.08	-3560.791	1	42612.12	-4.79339	3.221096E-006	-0.0229564	7
	28	229	477.4305	41261.09	-1485.031	1	41287.81	-2.061246	-9.205493E-008	0.0006387	7
	29	232	376.6741	41528.02	-963.823	1	41539.2	-1.329538	-1.177591E-008	0.0006163	6
	30	235	298.2954	41677.36	-1075.636	1	41691.23	-1.478399	-1.140725E-008	0.0006029	6
	31	237	237.7717	41855.32	-1183.793	1	41872.06	-1.620064	-1.089007E-008	0.0007202	6
	32	239	189.0121	42044.72	-1337.082	1	42065.97	-1.821474	-9.315315E-009	0.0006485	6
	33	242	150.2404	42251.08	-1534.759	1	42278.95	-2.080338	-8.773097E-009	0.000621	6
	34	244	119.1737	42500.52	-1816.101	1	42539.3	-2.446833	-9.490218E-009	0.0006909	6
	35	247	95.0169	42732.73	-2000.139	1	42779.52	-2.679818	-1.336279E-008	0.0006933	6
	36	249	75.60484	43012.72	-2313.223	1	43074.88	-3.0784	-1.180277E-008	0.0005985	6
	37	252	54.50582	43473.88	-2831.759	1	43566.01	-3.726811	-1.108397E-008	0.0006713	6
	38	254	45.95588	43722.32	-3111.819	1	43832.92	-4.071009	-3.917991E-009	0.0006475	6
	39	257	37.20238	44093.23	-3564.016	1	44237.04	-4.621119	-5.365794E-009	0.0006882	6
	40	259	30.04808	44496.43	-4039.029	1	44679.37	-5.186637	-4.310188E-009	0.0006119	6
	41	261	23.91582	44980.84	-4649.8	1	45220.54	-5.901868	-5.009719E-009	0.0005973	6
	42	264	18.60119	45575.31	-5464.923	1	45901.79	-6.837675	-1.802707E-009	0.000602	6
	43	266	15.02404	46098.19	-6173.654	1	46509.75	-7.627893	-2.680652E-008	0.0006379	6
	44	268	12.01923	46661.7	-7169.224	1	47209.23	-8.734769	2.011819E-009	0.000597	6
	45	271	9.450605	47397.55	-8436.611	1	48142.54	-10.09276	-2.207552E-008	0.0005958	6
	46	273	7.512019	48209.69	-9883.23	1	49212.32	-11.5854	-2.631418E-008	0.0005835	6
	47	276	5.978954	49218.84	-11488.74	1	50541.92	-13.13882	-1.888363E-008	0.0006484	6
	48	279	4.734848	50235.83	-13391.29	1	51990.05	-14.92617	-1.45677E-008	0.0006363	6
	49	282	3.75601	51559.82	-15797.48	1	53925.65	-17.03461	-1.657528E-008	0.000679	6
	50	286	3.004808	52795.3	-18465.14	1	55931.26	-19.27726	-4.78267E-009	0.0006445	6
	51	290	2.372217	54590.05	-21879.13	1	58811.3	-21.8404	-1.695748E-008	0.0006357	6
	52	294	1.878005	56475.03	-25860.6	1	62114.4	-24.60361	-1.428014E-008	0.0006448	6
	53	299	1.512097	58523.95	-30309.57	1	65906.93	-27.37965	-1.173307E-008	0.0005765	6
	54	304	1.201923	61133.43	-36059.45	1	70975.91	-30.53416	-1.331566E-008	0.0006899	6
	55	310	0.956633	64172.5	-42786.72	1	77128.55	-33.69319	-1.385418E-008	5.910192E-006	6
