EXPLAIN
TAG	EISPOT
TITLE	LABEL	Potentiostatic EIS	Test Identifier
DATE	LABEL	9/23/2020	Date
TIME	LABEL	15:23:30	Time
NOTES	NOTES	1	Notes...
	
PSTAT	PSTAT	REF3000-16137	Potentiostat
VDC	POTEN	0.00000E+000	T	DC Voltage (V)
FREQINIT	QUANT	3.00000E+005	Initial Freq. (Hz)
FREQFINAL	QUANT	1.00000E+000	Final Freq. (Hz)
PTSPERDEC	QUANT	1.00000E+001	Points/decade
VAC	QUANT	5.00000E+001	AC Voltage (mV rms)
AREA	QUANT	1.00000E+000	Sample Area (cm^2)
SPEED	SELECTOR	2	Optimize for:
ZGUESS	QUANT	1.00000E+003	Estimated Z (ohms)
EOC	QUANT	0	Open Circuit (V)
SEQUENCER	TOGGLE	TRUE	Run as Sequence
PSTATMODEL	IQUANT	5	Pstat Model
PSTATSECTION	LABEL	REF3000-16137	Pstat Section
PSTATSERIALNO	LABEL	16137	Pstat Serial Number
CTRLMODE	IQUANT	1	Control Mode
IESTAB	IQUANT	0	I/E Stability
CASPEED	IQUANT	1	Control Amp Speed
CONVENTION	IQUANT	1	Current Convention
ICHRANGE	IQUANT	2	Ich Range
ICHRANGEMODE	TOGGLE	F	Ich Auto Range
ICHOFFSETENABLE	TOGGLE	T	Ich Offset Enable
ICHOFFSET	QUANT	0	Ich Offset (V)
ICHFILTER	IQUANT	3	Ich Filter
VCHRANGE	IQUANT	2	Vch Range
VCHRANGEMODE	TOGGLE	F	Vch Auto Range
VCHOFFSETENABLE	TOGGLE	T	Vch Offset Enable
VCHOFFSET	QUANT	0	Vch Offset (V)
VCHFILTER	IQUANT	3	Vch Filter
ACHRANGE	IQUANT	2	Ach Range
ACHOFFSETENABLE	TOGGLE	F	Ach Offset Enable
ACHOFFSET	QUANT	0	Ach Offset (V)
ACHFILTER	IQUANT	3	Ach Filter
IERANGELOWERLIMIT	IQUANT	2	I/E Range Lower Limit
IERANGEMODE	TOGGLE	F	I/E AutoRange
IERANGE	IQUANT	11	I/E Range
POSFEEDENABLE	TOGGLE	F	Positive Feedback IR Comp
POSFEEDRESISTANCE	QUANT	0	Positive Feedback Resistance (ohm)
ACHSELECT	IQUANT	0	Ach Select
CABLEID	IQUANT	13	Cable ID
DCCALDATE	LABEL	7/31/2020	DC Calibration Date
ACCALDATE	LABEL	7/31/2020	AC Calibration Date
THERMOSELECT	IQUANT	1	Thermo Select
FRAMEWORKVERSION	QUANT	6.33	Framework Version
INSTRUMENTVERSION	LABEL	3.50	Instrument Version
COMPLIANCEVOLTAGE	IQUANT	0	Compliance Voltage
ZCURVE	TABLE
	Pt	Time	Freq	Zreal	Zimag	Zsig	Zmod	Zphz	Idc	Vdc	IERange
	#	s	Hz	ohm	ohm	V	ohm	°	A	V	#
	0	23	300046.9	215.4275	-4196.769	1	4202.294	-87.06149	2.239049E-005	-0.0004713	9
	1	40	238359.4	348.6746	-5122.114	1	5133.968	-86.10574	7.77598E-005	-0.0015929	9
	2	62	189328.1	631.8725	-6299.285	1	6330.897	-84.2719	1.879928E-005	-0.0003727	9
	3	71	150421.9	512.6816	-8067.097	1	8083.372	-86.36362	2.687297E-005	-0.001485	9
	4	78	119484.4	1144.524	-9936.74	1	10002.44	-83.42957	2.780739E-005	-0.0018524	9
	5	87	94921.88	1782.925	-12101.26	1	12231.9	-81.61869	-2.038154E-005	0.0028689	8
	6	96	75421.88	2119.761	-14922.25	1	15072.06	-81.91502	-2.620592E-005	0.0075453	8
	7	103	59859.37	3075.603	-18531.03	1	18784.53	-80.5765	-2.05394E-005	0.002855	8
	8	112	47578.12	4140.227	-23022.52	1	23391.83	-79.80525	-2.467063E-005	0.0110644	8
	9	120	37828.12	8060.653	-28574.74	1	29689.89	-74.24677	-7.073738E-006	0.0229596	7
	10	128	30046.88	9931.86	-34777.15	1	36167.56	-74.06141	-6.619327E-006	0.011884	7
	11	135	23859.38	12824.75	-42487.73	1	44381.09	-73.20377	-5.221559E-006	0.0037671	7
	12	140	18984.38	13264.74	-50934.78	1	52633.69	-75.40292	-1.596371E-005	0.0006265	8
	13	147	15046.87	19915.5	-62433.98	1	65533.42	-72.30811	-1.705619E-006	0.0212456	7
	14	152	11953.13	27668.9	-77212.26	1	82020.13	-70.28493	4.810933E-006	-0.0008559	7
	15	158	9515.62	33388.48	-95962	1	101604.6	-70.81544	-9.648316E-006	-0.0020688	8
	16	165	7546.875	50642.76	-108088.5	1	119364.2	-64.89548	-6.60643E-006	0.0119861	7
	17	170	5928.309	43269.27	-195546.1	1	200276.1	-77.52298	-9.641926E-006	-0.002117	8
	18	178	4733.456	103775.6	-139801.3	1	174108.5	-53.4132	-1.698034E-006	0.0213163	7
	19	184	3796.875	117367.5	-169688	1	206323	-55.32969	-5.166674E-006	0.0037409	7
	20	190	2987.132	167083.3	-203713.5	1	263469.2	-50.64183	2.738545E-006	0.0080266	7
	21	196	2390.625	195728.3	-169758.3	1	259089.7	-40.93562	-5.217571E-006	0.0037182	7
	22	203	1884.191	269136.4	-159183.8	1	312688.1	-30.60267	1.156683E-006	-0.019207	7
	23	209	1516.544	286383.1	-154748.9	1	325518.8	-28.38485	-5.48596E-007	0.025995	6
	24	215	1193.986	314928.8	-125714.2	1	339093.2	-21.76103	-5.131087E-008	-0.0145994	6
	25	220	946.5144	142902.2	336270.2	1	365374.7	66.97633	2.656779E-005	-0.0071601	8
	26	226	751.7689	184400.7	-178925	1	256939.3	-44.13655	7.557464E-006	-0.0076717	8
	27	234	597.4265	329547	-75353.88	1	338052.4	-12.87977	-6.377851E-006	0.0115223	7
	28	240	477.4305	373497.9	-75634.81	1	381079.1	-11.44781	-9.268705E-008	0.0006517	7
	29	245	376.6741	381294.8	-57234.85	1	385566.5	-8.536736	-1.025853E-008	0.0006882	6
	30	247	298.2954	400258.6	-16151.97	1	400584.3	-2.310851	-1.20196E-009	0.0006725	5
	31	249	237.7717	398262.2	-12509.93	1	398458.6	-1.799142	-1.506972E-009	0.0006357	5
	32	252	189.0121	398488.2	-10624.23	1	398629.8	-1.52722	-1.393241E-009	0.000584	5
	33	254	150.2404	398655.6	-9755.51	1	398775	-1.401806	-1.321681E-009	0.0005893	5
	34	257	119.1737	405404.9	-8082.084	1	405485.4	-1.142088	-1.512734E-009	0.0006854	5
	35	260	95.0169	400493	-9193.008	1	400598.5	-1.31495	-1.555048E-009	0.0006161	5
	36	262	75.60484	402168.8	-10284.23	1	402300.3	-1.464844	-1.492804E-009	0.0006789	5
	37	265	54.50582	403278.9	-13480.01	1	403504.1	-1.914458	-1.595647E-009	0.0005997	5
	38	267	45.95588	406166.5	-10425.63	1	406300.3	-1.470367	-1.605349E-009	0.000697	5
	39	270	37.20238	407235.1	-11363.9	1	407393.7	-1.598424	-1.010704E-009	0.0005964	5
	40	272	30.04808	409867.8	-12892.51	1	410070.5	-1.801662	-1.365073E-009	0.0006036	5
	41	275	23.91582	412301.2	-14152.91	1	412544.1	-1.965998	-1.624422E-009	0.0006854	5
	42	278	18.60119	416080.3	-17138.13	1	416433.1	-2.35865	-1.272288E-009	0.0006833	5
	43	280	15.02404	418016.8	-18139.54	1	418410.3	-2.48475	-2.600593E-010	0.0006815	5
	44	282	12.01923	420891.7	-20376.09	1	421384.7	-2.771622	-1.85711E-010	0.000681	5
	45	285	9.450605	424185.5	-23313.68	1	424825.7	-3.145872	1.406177E-010	0.0006872	5
	46	287	7.512019	428116.3	-26583.15	1	428940.8	-3.553122	1.674835E-010	0.0006186	5
	47	290	5.978954	432525.4	-30080.24	1	433570.1	-3.978264	-1.026758E-009	0.0006804	5
	48	295	4.734848	437507.9	-34355.64	1	438854.7	-4.48998	-4.285813E-010	0.0006982	5
	49	298	3.75601	443387.4	-39069	1	445105.4	-5.035601	-6.761827E-010	0.000606	5
	50	304	3.004808	450127.6	-44449.58	1	452317	-5.639607	-1.625704E-010	0.0006583	5
	51	310	2.372217	457931.9	-50107.39	1	460665.2	-6.244521	-2.457266E-009	0.000593	5
	52	314	1.878005	464709.4	-57612.75	1	468267.1	-7.067233	-1.285229E-009	0.000641	5
	53	319	1.512097	472155.7	-66139.77	1	476765.6	-7.97413	9.575553E-011	0.0005333	5
	54	325	1.201923	481744.2	-75374.76	1	487605.2	-8.892528	-1.911108E-009	0.0006533	5
	55	331	0.956633	492765	-87475.47	1	500469.1	-10.06626	-3.256048E-009	-3.282182E-006	5
