EXPLAIN
TAG	EISPOT
TITLE	LABEL	Potentiostatic EIS	Test Identifier
DATE	LABEL	9/23/2020	Date
TIME	LABEL	15:18:17	Time
NOTES	NOTES	1	Notes...
	
PSTAT	PSTAT	REF3000-16137	Potentiostat
VDC	POTEN	0.00000E+000	T	DC Voltage (V)
FREQINIT	QUANT	3.00000E+005	Initial Freq. (Hz)
FREQFINAL	QUANT	1.00000E+000	Final Freq. (Hz)
PTSPERDEC	QUANT	1.00000E+001	Points/decade
VAC	QUANT	5.00000E+001	AC Voltage (mV rms)
AREA	QUANT	1.00000E+000	Sample Area (cm^2)
SPEED	SELECTOR	2	Optimize for:
ZGUESS	QUANT	1.00000E+003	Estimated Z (ohms)
EOC	QUANT	0	Open Circuit (V)
SEQUENCER	TOGGLE	TRUE	Run as Sequence
PSTATMODEL	IQUANT	5	Pstat Model
PSTATSECTION	LABEL	REF3000-16137	Pstat Section
PSTATSERIALNO	LABEL	16137	Pstat Serial Number
CTRLMODE	IQUANT	1	Control Mode
IESTAB	IQUANT	0	I/E Stability
CASPEED	IQUANT	1	Control Amp Speed
CONVENTION	IQUANT	1	Current Convention
ICHRANGE	IQUANT	2	Ich Range
ICHRANGEMODE	TOGGLE	F	Ich Auto Range
ICHOFFSETENABLE	TOGGLE	T	Ich Offset Enable
ICHOFFSET	QUANT	0	Ich Offset (V)
ICHFILTER	IQUANT	3	Ich Filter
VCHRANGE	IQUANT	2	Vch Range
VCHRANGEMODE	TOGGLE	F	Vch Auto Range
VCHOFFSETENABLE	TOGGLE	T	Vch Offset Enable
VCHOFFSET	QUANT	0	Vch Offset (V)
VCHFILTER	IQUANT	3	Vch Filter
ACHRANGE	IQUANT	2	Ach Range
ACHOFFSETENABLE	TOGGLE	F	Ach Offset Enable
ACHOFFSET	QUANT	0	Ach Offset (V)
ACHFILTER	IQUANT	3	Ach Filter
IERANGELOWERLIMIT	IQUANT	2	I/E Range Lower Limit
IERANGEMODE	TOGGLE	F	I/E AutoRange
IERANGE	IQUANT	11	I/E Range
POSFEEDENABLE	TOGGLE	F	Positive Feedback IR Comp
POSFEEDRESISTANCE	QUANT	0	Positive Feedback Resistance (ohm)
ACHSELECT	IQUANT	0	Ach Select
CABLEID	IQUANT	13	Cable ID
DCCALDATE	LABEL	7/31/2020	DC Calibration Date
ACCALDATE	LABEL	7/31/2020	AC Calibration Date
THERMOSELECT	IQUANT	1	Thermo Select
FRAMEWORKVERSION	QUANT	6.33	Framework Version
INSTRUMENTVERSION	LABEL	3.50	Instrument Version
COMPLIANCEVOLTAGE	IQUANT	0	Compliance Voltage
ZCURVE	TABLE
	Pt	Time	Freq	Zreal	Zimag	Zsig	Zmod	Zphz	Idc	Vdc	IERange
	#	s	Hz	ohm	ohm	V	ohm	°	A	V	#
	0	14	300046.9	269.1411	-4145.2	1	4153.928	-86.2851	2.254443E-005	-0.0005376	9
	1	28	238359.4	328.9167	-5070.57	1	5081.227	-86.28855	1.924153E-005	-0.0022436	9
	2	42	189328.1	669.1885	-6178.373	1	6214.507	-83.81831	5.744344E-007	0.0016521	9
	3	50	150421.9	807.8187	-7768.845	1	7810.731	-84.06361	-9.042367E-005	0.0022076	9
	4	57	119484.4	1449.069	-9731.45	1	9838.74	-81.53056	-3.153088E-005	-0.0058725	8
	5	66	94921.88	1754.105	-11863.48	1	11992.46	-81.58932	2.713723E-005	-0.0073841	8
	6	74	75421.88	2530.405	-14617.96	1	14835.35	-80.17928	-2.631753E-005	0.0076284	8
	7	83	59859.37	3139.027	-18047.06	1	18318.02	-80.13293	2.221356E-005	-0.0096297	8
	8	90	47578.12	7111.498	-22793.67	1	23877.29	-72.67237	-7.183243E-006	0.0184964	7
	9	98	37828.12	8665.29	-27585.25	1	28914.24	-72.56105	6.636032E-006	-0.0262489	7
	10	105	30046.88	11131.85	-33532.65	1	35332.09	-71.63536	-1.143499E-006	-0.0126215	7
	11	113	23859.38	10687.45	-41264.29	1	42625.85	-75.47946	7.735887E-006	-0.0076204	8
	12	119	18984.38	18233.96	-49080.12	1	52357.76	-69.61926	-3.29931E-006	-0.0048819	7
	13	125	15046.87	23290.95	-59638.27	1	64024.92	-68.66752	-1.044867E-006	-0.0127874	7
	14	130	11953.13	31048.48	-71024.21	1	77514.17	-66.38729	5.180601E-006	-0.0259364	7
	15	135	9515.62	42863.56	-82551.59	1	93016.39	-62.56014	1.227007E-006	-0.0192183	7
	16	141	7546.875	56726.52	-95536.4	1	111108.5	-59.2995	6.411507E-006	-0.0099799	7
	17	146	5928.309	80471.92	-116301.3	1	141427.4	-55.31962	1.181278E-006	-0.0192291	7
	18	152	4733.456	115358.9	-118681.8	1	165508.4	-45.81342	-5.161437E-006	0.0258553	7
	19	159	3796.875	130991.7	-124938.8	1	181020.8	-43.64518	-1.705089E-006	0.0212012	7
	20	165	2987.132	153798.6	-132118.8	1	202754.5	-40.66383	-7.172627E-006	0.0185576	7
	21	171	2390.625	180996.9	-124131.5	1	219473.2	-34.44316	7.322644E-006	-0.0180427	7
	22	176	1884.191	194887.2	-126200.1	1	232179.8	-32.92526	-3.335663E-006	-0.0048747	7
	23	184	1516.544	208271.8	-100074.8	1	231067.3	-25.66433	4.779398E-006	-0.0007374	7
	24	189	1193.986	229081.5	-93844.82	1	247558.5	-22.2768	-3.346175E-006	-0.00472	7
	25	195	946.5144	60518.8	-219690.6	1	227873.8	-74.59856	1.750399E-005	6.96746E-005	8
	26	201	751.7689	335278.8	-39981.98	1	337654.3	-6.800406	2.661025E-006	0.0083641	7
	27	207	597.4265	256863.3	-6368.125	1	256942.2	-1.420179	-7.078286E-006	0.0227552	7
	28	212	477.4305	269938.8	-39199.02	1	272770.1	-8.262424	-9.558022E-008	0.000655	7
	29	217	376.6741	274080.2	-29133.03	1	275624.2	-6.067403	-9.858992E-009	0.0007043	6
	30	221	298.2954	275720.1	-23881.85	1	276752.4	-4.950392	-9.597279E-009	0.0006362	6
	31	223	237.7717	277990.3	-20257.55	1	278727.5	-4.167858	-9.979278E-009	0.0006931	6
	32	226	189.0121	279547	-17053.4	1	280066.7	-3.490929	-9.42955E-009	0.0006079	6
	33	228	150.2404	280805.2	-14822.27	1	281196.1	-3.021547	-9.403694E-009	0.0006032	6
	34	231	119.1737	279862	-11389.78	1	280093.7	-2.330528	-9.847205E-009	0.000651	6
	35	233	95.0169	283844.3	-12213.73	1	284107	-2.4639	-9.14629E-009	0.0006368	6
	36	236	75.60484	285096.9	-11067.05	1	285311.6	-2.223024	-1.057705E-008	0.0006836	6
	37	238	54.50582	286956.3	-9421.357	1	287110.9	-1.880461	-9.426271E-009	0.0006027	6
	38	241	45.95588	287755.8	-11409.32	1	287981.9	-2.270548	-1.087722E-008	0.0007025	6
	39	243	37.20238	288942.9	-11903.18	1	289188	-2.359002	-1.04486E-008	0.0006942	6
	40	245	30.04808	290984.6	-12245.65	1	291242.2	-2.409785	-9.212755E-009	0.0006065	6
	41	248	23.91582	292665.8	-13136.15	1	292960.4	-2.569966	-8.886389E-009	0.0006293	6
	42	251	18.60119	294935.9	-15122.04	1	295323.3	-2.935116	-9.279468E-009	0.0006816	6
	43	253	15.02404	296949.4	-15822.04	1	297370.6	-3.049947	-8.434227E-009	0.0006978	6
	44	256	12.01923	299172.7	-17696.19	1	299695.6	-3.385125	-9.842289E-009	0.000615	6
	45	258	9.450605	301867.6	-20107.77	1	302536.6	-3.810913	-8.026192E-009	0.000612	6
	46	261	7.512019	304698.5	-22798.45	1	305550.2	-4.279068	-7.662646E-009	0.0006458	6
	47	264	5.978954	308351.5	-25770.74	1	309426.5	-4.777441	-8.453909E-009	0.0007178	6
	48	268	4.734848	312091.9	-29595.29	1	313492	-5.41709	-1.241446E-008	0.0006579	6
	49	271	3.75601	316597	-33508.86	1	318365.3	-6.041735	-7.35987E-009	0.0006625	6
	50	277	3.004808	321797.1	-38086.48	1	324043.1	-6.749874	-8.684762E-009	0.0006672	6
	51	283	2.372217	327263.9	-43333.86	1	330120.4	-7.542805	-1.022943E-008	0.0005814	6
	52	288	1.878005	333059.6	-50526.1	1	336870.3	-8.626163	-7.684553E-009	0.0006597	6
	53	292	1.512097	339316.9	-57838.88	1	344211.2	-9.67348	-7.230037E-009	0.0005942	6
	54	298	1.201923	345899	-66324.45	1	352200.3	-10.85444	-9.50932E-009	0.000684	6
	55	304	0.956633	355142.9	-76848.01	1	363362.3	-12.20977	-1.291293E-008	1.923432E-005	6
