EXPLAIN
TAG	EISPOT
TITLE	LABEL	Potentiostatic EIS	Test Identifier
DATE	LABEL	9/23/2020	Date
TIME	LABEL	15:39:48	Time
NOTES	NOTES	1	Notes...
	
PSTAT	PSTAT	REF3000-16137	Potentiostat
VDC	POTEN	0.00000E+000	T	DC Voltage (V)
FREQINIT	QUANT	3.00000E+005	Initial Freq. (Hz)
FREQFINAL	QUANT	1.00000E+000	Final Freq. (Hz)
PTSPERDEC	QUANT	1.00000E+001	Points/decade
VAC	QUANT	5.00000E+001	AC Voltage (mV rms)
AREA	QUANT	1.00000E+000	Sample Area (cm^2)
SPEED	SELECTOR	2	Optimize for:
ZGUESS	QUANT	1.00000E+003	Estimated Z (ohms)
EOC	QUANT	0	Open Circuit (V)
SEQUENCER	TOGGLE	TRUE	Run as Sequence
PSTATMODEL	IQUANT	5	Pstat Model
PSTATSECTION	LABEL	REF3000-16137	Pstat Section
PSTATSERIALNO	LABEL	16137	Pstat Serial Number
CTRLMODE	IQUANT	1	Control Mode
IESTAB	IQUANT	0	I/E Stability
CASPEED	IQUANT	1	Control Amp Speed
CONVENTION	IQUANT	1	Current Convention
ICHRANGE	IQUANT	2	Ich Range
ICHRANGEMODE	TOGGLE	F	Ich Auto Range
ICHOFFSETENABLE	TOGGLE	T	Ich Offset Enable
ICHOFFSET	QUANT	0	Ich Offset (V)
ICHFILTER	IQUANT	3	Ich Filter
VCHRANGE	IQUANT	2	Vch Range
VCHRANGEMODE	TOGGLE	F	Vch Auto Range
VCHOFFSETENABLE	TOGGLE	T	Vch Offset Enable
VCHOFFSET	QUANT	0	Vch Offset (V)
VCHFILTER	IQUANT	3	Vch Filter
ACHRANGE	IQUANT	2	Ach Range
ACHOFFSETENABLE	TOGGLE	F	Ach Offset Enable
ACHOFFSET	QUANT	0	Ach Offset (V)
ACHFILTER	IQUANT	3	Ach Filter
IERANGELOWERLIMIT	IQUANT	2	I/E Range Lower Limit
IERANGEMODE	TOGGLE	F	I/E AutoRange
IERANGE	IQUANT	11	I/E Range
POSFEEDENABLE	TOGGLE	F	Positive Feedback IR Comp
POSFEEDRESISTANCE	QUANT	0	Positive Feedback Resistance (ohm)
ACHSELECT	IQUANT	0	Ach Select
CABLEID	IQUANT	13	Cable ID
DCCALDATE	LABEL	7/31/2020	DC Calibration Date
ACCALDATE	LABEL	7/31/2020	AC Calibration Date
THERMOSELECT	IQUANT	1	Thermo Select
FRAMEWORKVERSION	QUANT	6.33	Framework Version
INSTRUMENTVERSION	LABEL	3.50	Instrument Version
COMPLIANCEVOLTAGE	IQUANT	0	Compliance Voltage
ZCURVE	TABLE
	Pt	Time	Freq	Zreal	Zimag	Zsig	Zmod	Zphz	Idc	Vdc	IERange
	#	s	Hz	ohm	ohm	V	ohm	°	A	V	#
	0	26	300046.9	130.8864	-4282.958	1	4284.957	-88.2496	8.921417E-005	-0.0027023	9
	1	56	238359.4	245.9584	-5310.016	1	5315.709	-87.34797	7.802669E-005	-0.0016618	9
	2	80	189328.1	240.1093	-6562	1	6566.392	-87.90443	-8.967534E-005	0.0022059	9
	3	90	150421.9	17.7733	-8041.413	1	8041.433	-89.87337	-8.983826E-005	0.0041948	9
	4	101	119484.4	780.0934	-10162.38	1	10192.28	-85.61042	1.929726E-005	-0.002004	9
	5	112	94921.88	1137.358	-12674.34	1	12725.27	-84.87218	7.529637E-006	-0.0075893	8
	6	119	75421.88	1370.61	-15735.5	1	15795.08	-85.02193	-2.290441E-006	0.0077311	8
	7	128	59859.37	2010.425	-19488.04	1	19591.46	-84.11009	8.401553E-006	0.0041732	8
	8	136	47578.12	5478.141	-25300.93	1	25887.2	-77.78294	-7.207729E-006	0.0185644	7
	9	143	37828.12	3003.494	-29759.79	1	29910.97	-84.23696	1.738858E-005	0.0002331	8
	10	151	30046.88	3970.406	-38306.14	1	38511.35	-84.08246	2.925808E-005	-0.000706	9
	11	161	23859.38	7079.079	-48829.48	1	49339.96	-81.75098	-1.603047E-005	0.0005546	8
	12	169	18984.38	11326.33	-57857.15	1	58955.37	-78.92365	-1.726593E-006	0.0214801	7
	13	174	15046.87	14981.58	-71857.65	1	73402.79	-78.22313	-1.08699E-006	-0.0129998	7
	14	179	11953.13	19675.41	-88463.82	1	90625.43	-77.46084	-6.436924E-006	0.0253485	7
	15	186	9515.62	23637.8	-107543.8	1	110111	-77.60368	7.480546E-006	-0.0240366	7
	16	191	7546.875	40071.3	-157011.6	1	162044.3	-75.68303	8.103869E-006	-0.0078004	8
	17	199	5928.309	51206.91	-165164.2	1	172920.1	-72.77466	-7.122766E-006	0.0232456	7
	18	205	4733.456	61631.49	-184616.2	1	194631.9	-71.53915	-6.403305E-006	0.0254127	7
	19	210	3796.875	76621.2	-237484.7	1	249539.1	-72.11841	-5.259772E-006	0.0035903	7
	20	217	2987.132	104734.9	-331744	1	347884.2	-72.47858	5.228346E-006	-0.026246	7
	21	224	2390.625	292780.4	-288196.3	1	410825.3	-44.54792	-5.123865E-006	0.0029831	7
	22	231	1884.191	88510.78	-635224.2	1	641361	-82.0676	4.986206E-007	0.0157998	7
	23	239	1516.544	309926	-439538.4	1	537817.9	-54.81169	-2.082465E-007	0.021848	6
	24	244	1193.986	420888.3	-512044.4	1	662824.6	-50.58061	-7.318611E-007	0.0227202	6
	25	250	946.5144	565652.4	-468313.8	1	734357.2	-39.62197	-4.940276E-007	0.0014474	6
	26	253	751.7689	658620.9	-555985.1	1	861917	-40.1699	-2.008973E-007	0.0217598	6
	27	258	597.4265	749487	-526258.8	1	915794.3	-35.07494	7.536613E-007	-0.0226498	6
	28	262	477.4305	854350.4	-462905.4	1	971698	-28.44979	-9.745563E-009	0.0006901	6
	29	267	376.6741	1015080	-326118	1	1066180	-17.81082	-9.50653E-010	0.0005905	5
	30	269	298.2954	1060731	-278471.2	1	1096675	-14.70978	-1.035833E-009	0.0006693	5
	31	272	237.7717	1090919	-230911.4	1	1115090	-11.95121	-1.048347E-009	0.0005957	5
	32	274	189.0121	1110039	-192227.1	1	1126560	-9.82457	-1.039697E-009	0.0005933	5
	33	277	150.2404	1126134	-158913.7	1	1137291	-8.032222	-1.126295E-009	0.0006708	5
	34	280	119.1737	1125281	-95600.2	1	1129335	-4.856	-1.243592E-009	0.0006512	5
	35	282	95.0169	1153947	-111786.6	1	1159349	-5.533164	-1.184009E-009	0.0006509	5
	36	285	75.60484	1168473	-95553.7	1	1172374	-4.675049	-1.135745E-009	0.0006677	5
	37	288	54.50582	1152301	-74496.85	1	1154707	-3.699053	-1.109952E-009	0.0006661	5
	38	291	45.95588	1180483	-67787.69	1	1182428	-3.286525	-1.083541E-009	0.000588	5
	39	293	37.20238	1189539	-66231.7	1	1191381	-3.186851	-1.292611E-009	0.0006551	5
	40	296	30.04808	1191584	-59047.26	1	1193046	-2.836892	-1.099171E-009	0.000599	5
	41	299	23.91582	1200171	-53593.82	1	1201367	-2.556854	-1.091218E-009	0.0006307	5
	42	301	18.60119	1210064	-48710.98	1	1211044	-2.30519	-1.186228E-009	0.0005908	5
	43	304	15.02404	1213002	-54417.51	1	1214222	-2.568673	-1.094543E-009	0.000582	5
	44	306	12.01923	1221411	-54932.28	1	1222645	-2.575111	-1.31571E-009	0.0006686	5
	45	309	9.450605	1230893	-57068.05	1	1232215	-2.65451	-1.437129E-009	0.0006659	5
	46	311	7.512019	1240461	-60906.12	1	1241955	-2.810943	-1.399392E-009	0.0005748	5
	47	315	5.978954	1252860	-65937.09	1	1254594	-3.012654	-9.726672E-010	0.000582	5
	48	319	4.734848	1265728	-71459.54	1	1267743	-3.231333	-1.365304E-009	0.000585	5
	49	322	3.75601	1280053	-77731.34	1	1282411	-3.475024	-1.42004E-009	0.0005682	5
	50	328	3.004808	1298316	-84355.27	1	1301053	-3.717445	-1.283543E-009	0.0005888	5
	51	334	2.372217	1316571	-93307.29	1	1319874	-4.053855	-1.459034E-009	0.0006749	5
	52	339	1.878005	1334320	-103262.5	1	1338309	-4.425281	-1.693704E-009	0.000616	5
	53	343	1.512097	1353165	-113499.6	1	1357917	-4.794584	-1.678265E-009	0.0006117	5
	54	349	1.201923	1373162	-127225.6	1	1379043	-5.293431	-1.382727E-009	0.0006117	5
	55	355	0.956633	1398509	-141595.5	1	1405659	-5.78135	-2.08349E-009	-6.252732E-006	5
