EXPLAIN
TAG	EISPOT
TITLE	LABEL	Potentiostatic EIS	Test Identifier
DATE	LABEL	9/23/2020	Date
TIME	LABEL	15:57:10	Time
NOTES	NOTES	1	Notes...
	
PSTAT	PSTAT	REF3000-16137	Potentiostat
VDC	POTEN	0.00000E+000	T	DC Voltage (V)
FREQINIT	QUANT	3.00000E+005	Initial Freq. (Hz)
FREQFINAL	QUANT	1.00000E+000	Final Freq. (Hz)
PTSPERDEC	QUANT	1.00000E+001	Points/decade
VAC	QUANT	5.00000E+001	AC Voltage (mV rms)
AREA	QUANT	1.00000E+000	Sample Area (cm^2)
SPEED	SELECTOR	2	Optimize for:
ZGUESS	QUANT	1.00000E+003	Estimated Z (ohms)
EOC	QUANT	0	Open Circuit (V)
SEQUENCER	TOGGLE	TRUE	Run as Sequence
PSTATMODEL	IQUANT	5	Pstat Model
PSTATSECTION	LABEL	REF3000-16137	Pstat Section
PSTATSERIALNO	LABEL	16137	Pstat Serial Number
CTRLMODE	IQUANT	1	Control Mode
IESTAB	IQUANT	0	I/E Stability
CASPEED	IQUANT	1	Control Amp Speed
CONVENTION	IQUANT	1	Current Convention
ICHRANGE	IQUANT	2	Ich Range
ICHRANGEMODE	TOGGLE	F	Ich Auto Range
ICHOFFSETENABLE	TOGGLE	T	Ich Offset Enable
ICHOFFSET	QUANT	0	Ich Offset (V)
ICHFILTER	IQUANT	3	Ich Filter
VCHRANGE	IQUANT	2	Vch Range
VCHRANGEMODE	TOGGLE	F	Vch Auto Range
VCHOFFSETENABLE	TOGGLE	T	Vch Offset Enable
VCHOFFSET	QUANT	0	Vch Offset (V)
VCHFILTER	IQUANT	3	Vch Filter
ACHRANGE	IQUANT	2	Ach Range
ACHOFFSETENABLE	TOGGLE	F	Ach Offset Enable
ACHOFFSET	QUANT	0	Ach Offset (V)
ACHFILTER	IQUANT	3	Ach Filter
IERANGELOWERLIMIT	IQUANT	2	I/E Range Lower Limit
IERANGEMODE	TOGGLE	F	I/E AutoRange
IERANGE	IQUANT	11	I/E Range
POSFEEDENABLE	TOGGLE	F	Positive Feedback IR Comp
POSFEEDRESISTANCE	QUANT	0	Positive Feedback Resistance (ohm)
ACHSELECT	IQUANT	0	Ach Select
CABLEID	IQUANT	13	Cable ID
DCCALDATE	LABEL	7/31/2020	DC Calibration Date
ACCALDATE	LABEL	7/31/2020	AC Calibration Date
THERMOSELECT	IQUANT	1	Thermo Select
FRAMEWORKVERSION	QUANT	6.33	Framework Version
INSTRUMENTVERSION	LABEL	3.50	Instrument Version
COMPLIANCEVOLTAGE	IQUANT	0	Compliance Voltage
ZCURVE	TABLE
	Pt	Time	Freq	Zreal	Zimag	Zsig	Zmod	Zphz	Idc	Vdc	IERange
	#	s	Hz	ohm	ohm	V	ohm	°	A	V	#
	0	19	300046.9	16.70605	-4360.714	1	4360.746	-89.7805	-1.821874E-006	0.0015875	9
	1	33	238359.4	119.5404	-5354.311	1	5355.645	-88.72102	-1.523972E-005	0.0018062	9
	2	48	189328.1	320.5504	-6852.834	1	6860.327	-87.32187	2.756455E-005	-0.0015175	9
	3	55	150421.9	522.1545	-8959.069	1	8974.272	-86.66444	2.733667E-005	-0.0018817	9
	4	63	119484.4	620.9692	-10431.2	1	10449.67	-86.5932	7.713416E-005	-0.0233105	8
	5	70	94921.88	912.4875	-13082.48	1	13114.26	-86.01015	-1.201147E-006	-0.0050938	8
	6	79	75421.88	959.712	-16009.61	1	16038.34	-86.56945	8.261856E-006	0.0041245	8
	7	88	59859.37	1394.488	-20363.8	1	20411.5	-86.08257	-2.651162E-005	0.0095877	8
	8	96	47578.12	1564.054	-25275.26	1	25323.6	-86.459	-1.198231E-005	0.0102456	8
	9	104	37828.12	5335.332	-32786.18	1	33217.46	-80.75721	-5.156816E-006	0.0259422	7
	10	111	30046.88	5807.478	-40384.61	1	40800.05	-81.81673	6.771297E-006	-0.0267923	7
	11	119	23859.38	6752.25	-50358.64	1	50809.3	-82.36314	7.453967E-006	-0.0183267	7
	12	124	18984.38	8475.846	-61790.84	1	62369.44	-82.18948	-3.373189E-006	-0.0049047	7
	13	129	15046.87	9835.8	-78023.27	1	78640.79	-82.81506	2.728903E-006	0.00819	7
	14	135	11953.13	12468.67	-95716.1	1	96524.8	-82.57803	-5.289447E-006	0.0036601	7
	15	140	9515.62	17449.87	-117717.8	1	119004.2	-81.56818	-3.362969E-006	-0.004938	7
	16	145	7546.875	21808.52	-150304.5	1	151878.4	-81.74425	4.85473E-007	0.015797	7
	17	151	5928.309	36871.17	-182741.2	1	186423.8	-78.59274	7.483629E-006	-0.0183189	7
	18	157	4733.456	-2674.176	-263531.2	1	263544.7	-90.58139	5.270535E-006	-0.0264244	7
	19	164	3796.875	48215.19	-281874.2	1	285968.2	-80.29337	-5.292493E-006	0.0037045	7
	20	171	2987.132	97462.2	-295152.8	1	310828	-71.7263	2.801327E-006	0.0081864	7
	21	178	2390.625	132981.8	-443151.7	1	462674.4	-73.29645	-6.674124E-006	0.0121055	7
	22	184	1884.191	108838.9	-498321.1	1	510068.4	-77.67944	2.806412E-006	0.0081272	7
	23	192	1516.544	-35748.36	-851232.4	1	851982.8	-92.40478	-3.397867E-006	-0.0049782	7
	24	198	1193.986	407649.4	-714659.2	1	822748.9	-60.29909	5.242905E-006	-0.026408	7
	25	206	946.5144	1584678	-548210.8	1	1676824	-19.08278	3.411223E-006	-0.0247359	7
	26	211	751.7689	-3926114	1.068879E+007	1	1.138704E+007	110.1689	-3.552493E-006	0.0244906	7
	27	217	597.4265	1691546	-1119454	1	2028424	-33.49634	-7.412721E-006	0.0189555	7
	28	224	477.4305	934216.1	-1436798	1	1713811	-56.96779	-8.637962E-008	0.0005958	7
	29	231	376.6741	1477573	-1491676	1	2099599	-45.27214	-1.119201E-009	0.0006305	5
	30	234	298.2954	1797279	-1557942	1	2378528	-40.91985	-9.833064E-010	0.0005847	5
	31	236	237.7717	1976542	-1685515	1	2597629	-40.4562	-9.741813E-009	0.0006893	6
	32	240	189.0121	2344117	-1602426	1	2839482	-34.35631	-9.938018E-009	0.0006479	6
	33	244	150.2404	2739174	-1354318	1	3055692	-26.30898	-9.966211E-010	0.0005827	5
	34	248	119.1737	2823343	-1069198	1	3019015	-20.74164	-1.100366E-009	0.0006316	5
	35	252	95.0169	3168165	-1070463	1	3344123	-18.66913	-1.043425E-009	0.0006773	5
	36	256	75.60484	3309420	-958383	1	3445396	-16.15062	-9.196639E-010	0.0006029	5
	37	260	54.50582	3498110	-710281.9	1	3569492	-11.47772	-1.069722E-009	0.0006658	5
	38	264	45.95588	3520218	-678298.4	1	3584972	-10.90645	-1.032311E-009	0.0006161	5
	39	268	37.20238	3641396	-584013.9	1	3687931	-9.11161	-1.04621E-009	0.0006257	5
	40	272	30.04808	3796726	-183781.1	1	3801172	-2.771248	-1.210229E-010	0.0006917	4
	41	275	23.91582	3781960	-190232.7	1	3786742	-2.879553	-2.145498E-010	0.0006717	4
	42	278	18.60119	3843460	-240021.8	1	3850948	-3.573447	-5.594476E-012	0.0006856	4
	43	280	15.02404	3830072	-150625.9	1	3833033	-2.25212	-1.249926E-010	0.0006184	4
	44	283	12.01923	3845115	-163412.9	1	3848586	-2.43354	-1.717018E-010	0.0006076	4
	45	285	9.450605	3878755	-164008.6	1	3882221	-2.421243	-1.667912E-010	0.0006113	4
	46	288	7.512019	3899158	-165120.3	1	3902653	-2.424895	-1.135043E-010	0.0006202	4
	47	291	5.978954	3931469	-185782.9	1	3935857	-2.705518	-1.203149E-010	0.0006432	4
	48	295	4.734848	3977628	-195567	1	3982433	-2.81478	-1.026336E-010	0.0006049	4
	49	299	3.75601	4024466	-211810.9	1	4030035	-3.012744	-1.05203E-010	0.000678	4
	50	304	3.004808	4082303	-226427.2	1	4088578	-3.17469	-4.198363E-011	0.0006048	4
	51	311	2.372217	4140090	-236749.1	1	4146854	-3.272868	-1.387488E-010	0.0005995	4
	52	315	1.878005	4193826	-253040.3	1	4201453	-3.452834	-1.163363E-010	0.0006425	4
	53	320	1.512097	4250744	-269084.3	1	4259252	-3.622155	-6.124329E-011	0.0005289	4
	54	325	1.201923	4315687	-286446	1	4325182	-3.797335	-1.270531E-010	0.0006482	4
	55	331	0.956633	4384809	-305581.1	1	4395444	-3.986546	-2.726626E-010	2.296703E-006	4
