EXPLAIN
TAG	EISPOT
TITLE	LABEL	Potentiostatic EIS	Test Identifier
DATE	LABEL	9/23/2020	Date
TIME	LABEL	14:57:18	Time
NOTES	NOTES	1	Notes...
	
PSTAT	PSTAT	REF3000-16137	Potentiostat
VDC	POTEN	0.00000E+000	T	DC Voltage (V)
FREQINIT	QUANT	3.00000E+005	Initial Freq. (Hz)
FREQFINAL	QUANT	1.00000E+000	Final Freq. (Hz)
PTSPERDEC	QUANT	1.00000E+001	Points/decade
VAC	QUANT	5.00000E+001	AC Voltage (mV rms)
AREA	QUANT	1.00000E+000	Sample Area (cm^2)
SPEED	SELECTOR	2	Optimize for:
ZGUESS	QUANT	1.00000E+003	Estimated Z (ohms)
EOC	QUANT	0	Open Circuit (V)
SEQUENCER	TOGGLE	TRUE	Run as Sequence
PSTATMODEL	IQUANT	5	Pstat Model
PSTATSECTION	LABEL	REF3000-16137	Pstat Section
PSTATSERIALNO	LABEL	16137	Pstat Serial Number
CTRLMODE	IQUANT	1	Control Mode
IESTAB	IQUANT	0	I/E Stability
CASPEED	IQUANT	1	Control Amp Speed
CONVENTION	IQUANT	1	Current Convention
ICHRANGE	IQUANT	2	Ich Range
ICHRANGEMODE	TOGGLE	F	Ich Auto Range
ICHOFFSETENABLE	TOGGLE	T	Ich Offset Enable
ICHOFFSET	QUANT	0	Ich Offset (V)
ICHFILTER	IQUANT	3	Ich Filter
VCHRANGE	IQUANT	2	Vch Range
VCHRANGEMODE	TOGGLE	F	Vch Auto Range
VCHOFFSETENABLE	TOGGLE	T	Vch Offset Enable
VCHOFFSET	QUANT	0	Vch Offset (V)
VCHFILTER	IQUANT	3	Vch Filter
ACHRANGE	IQUANT	2	Ach Range
ACHOFFSETENABLE	TOGGLE	F	Ach Offset Enable
ACHOFFSET	QUANT	0	Ach Offset (V)
ACHFILTER	IQUANT	3	Ach Filter
IERANGELOWERLIMIT	IQUANT	2	I/E Range Lower Limit
IERANGEMODE	TOGGLE	F	I/E AutoRange
IERANGE	IQUANT	11	I/E Range
POSFEEDENABLE	TOGGLE	F	Positive Feedback IR Comp
POSFEEDRESISTANCE	QUANT	0	Positive Feedback Resistance (ohm)
ACHSELECT	IQUANT	0	Ach Select
CABLEID	IQUANT	13	Cable ID
DCCALDATE	LABEL	7/31/2020	DC Calibration Date
ACCALDATE	LABEL	7/31/2020	AC Calibration Date
THERMOSELECT	IQUANT	1	Thermo Select
FRAMEWORKVERSION	QUANT	6.33	Framework Version
INSTRUMENTVERSION	LABEL	3.50	Instrument Version
COMPLIANCEVOLTAGE	IQUANT	0	Compliance Voltage
ZCURVE	TABLE
	Pt	Time	Freq	Zreal	Zimag	Zsig	Zmod	Zphz	Idc	Vdc	IERange
	#	s	Hz	ohm	ohm	V	ohm	°	A	V	#
	0	14	300046.9	493.4269	-3910.711	1	3941.717	-82.80881	-6.755704E-005	0.0004224	9
	1	29	238359.4	729.1711	-4737.886	1	4793.668	-81.2507	-8.832816E-005	0.0042054	9
	2	44	189328.1	931.7028	-5869.589	1	5943.076	-80.98047	-2.236352E-005	0.0011392	9
	3	54	150421.9	1209.295	-6977.133	1	7081.157	-80.16703	-2.218264E-005	0.0015721	9
	4	64	119484.4	1719.563	-8711.886	1	8879.969	-78.83441	-2.041548E-005	0.0015831	9
	5	76	94921.88	2912.246	-10604.06	1	10996.69	-74.6432	-2.051485E-005	0.0029071	8
	6	85	75421.88	3714.307	-12749.3	1	13279.33	-73.75735	2.677676E-005	-0.0073203	8
	7	93	59859.37	5207.014	-15848.69	1	16682.15	-71.8123	-1.419914E-006	-0.0050029	8
	8	101	47578.12	9376.056	-19075.47	1	21255.21	-63.82477	-3.582813E-006	0.0240962	7
	9	107	37828.12	12177.56	-22535.79	1	25615.52	-61.61475	-6.148984E-006	0.0245739	7
	10	113	30046.88	15551.27	-26056.06	1	30344.04	-59.16961	2.62542E-006	0.008035	7
	11	121	23859.38	18159.63	-30924.16	1	35861.9	-59.57722	1.744888E-005	0.0002271	8
	12	127	18984.38	23606.88	-33674.49	1	41124.89	-54.96833	2.218952E-005	-0.0096669	8
	13	135	15046.87	32589.13	-38314.61	1	50299.71	-49.61662	1.779877E-005	-3.780755E-005	8
	14	141	11953.13	41891.34	-38210.8	1	56700.53	-42.36922	-5.110936E-006	0.0256534	7
	15	147	9515.62	50192.77	-37306.99	1	62539	-36.62247	-3.58983E-006	0.0242685	7
	16	152	7546.875	57700.02	-35795.26	1	67901.34	-31.81415	7.243673E-006	-0.0235433	7
	17	157	5928.309	64808.68	-33412.79	1	72914.88	-27.27384	-7.028863E-006	0.0181626	7
	18	163	4733.456	92319.89	-32646.47	1	97922.2	-19.47478	2.191433E-005	-0.0095741	8
	19	170	3796.875	75430.11	-26779.51	1	80042.76	-19.54609	-2.628039E-005	0.0076375	8
	20	179	2987.132	88938.33	-16175.98	1	90397.39	-10.3082	1.871403E-005	-0.0009388	9
	21	187	2390.625	80835.58	-17239.67	1	82653.48	-12.03901	7.301123E-006	-0.0233076	7
	22	193	1884.191	81755.77	-17687.41	1	83647.18	-12.20749	1.184495E-006	-0.0189608	7
	23	200	1516.544	99072.6	-13728.28	1	100019.2	-7.88912	-1.521664E-005	2.803988E-005	9
	24	207	1193.986	86649.22	-10316.63	1	87261.22	-6.789787	4.543886E-007	0.0154962	7
	25	214	946.5144	87545.33	-5432.687	1	87713.73	-3.550976	-3.747025E-007	0.0239419	6
	26	216	751.7689	87600.25	-4478.428	1	87714.65	-2.926611	7.317531E-007	-0.0218354	6
	27	219	597.4265	86859.08	-3556.487	1	86931.86	-2.344694	4.201274E-007	0.0015405	6
	28	222	477.4305	87643.89	-3473.258	1	87712.69	-2.269399	-1.026972E-008	0.0006836	6
	29	224	376.6741	87934.49	-3111.39	1	87989.52	-2.026454	-1.025106E-008	0.0006873	6
	30	226	298.2954	88281.12	-2936.899	1	88329.95	-1.905389	-1.097266E-008	0.0006832	6
	31	229	237.7717	88593.01	-2783.862	1	88636.73	-1.799815	-1.043294E-008	0.0006465	6
	32	231	189.0121	88961.24	-2757.925	1	89003.98	-1.775682	-1.11603E-008	0.0006082	6
	33	233	150.2404	89320.16	-2831.359	1	89365.03	-1.81561	-9.745405E-009	0.0006231	6
	34	236	119.1737	89531.45	-3291.95	1	89591.95	-2.105739	-9.623558E-009	0.0006801	6
	35	239	95.0169	90142.8	-3259.843	1	90201.73	-2.07109	-8.914717E-009	0.0005949	6
	36	241	75.60484	90600.62	-3593.178	1	90671.84	-2.271133	-1.005169E-008	0.000645	6
	37	244	54.50582	91333.97	-3987.694	1	91420.98	-2.499979	-1.097357E-008	0.0006809	6
	38	246	45.95588	91790.91	-4581.354	1	91905.16	-2.857305	-1.25346E-008	0.0006109	6
	39	249	37.20238	92459.46	-5104.004	1	92600.23	-3.15967	-8.254018E-009	0.0006525	6
	40	251	30.04808	93091.48	-5759.835	1	93269.5	-3.54054	-8.201606E-009	0.0006886	6
	41	254	23.91582	93907.7	-6583.497	1	94138.19	-4.010219	-1.335389E-008	0.0006797	6
	42	256	18.60119	94866.62	-7778.345	1	95185	-4.687335	-1.365487E-008	0.0006914	6
	43	258	15.02404	95799.1	-8610.636	1	96185.3	-5.136068	-3.054105E-009	0.0006401	6
	44	261	12.01923	96736.8	-9815.34	1	97233.4	-5.793656	-3.061137E-009	0.0006193	6
	45	264	9.450605	97866.7	-11350.07	1	98522.6	-6.615313	-1.106765E-009	0.0006898	6
	46	266	7.512019	99172.1	-13168.75	1	100042.6	-7.563877	-3.075563E-009	0.0006547	6
	47	269	5.978954	100717.6	-15208.35	1	101859.3	-8.586789	-5.364417E-009	0.0006855	6
	48	273	4.734848	102592.7	-17721.81	1	104112.1	-9.80053	-5.222007E-009	0.0007059	6
	49	276	3.75601	104403.6	-20595.65	1	106415.7	-11.15942	-1.313215E-008	0.0006126	6
	50	282	3.004808	106643.9	-23859.99	1	109280.5	-12.61138	-1.223317E-008	0.0006326	6
	51	287	2.372217	109138	-27768.1	1	112615.2	-14.27494	-8.518404E-009	0.0007238	6
	52	291	1.878005	111834.6	-32813.37	1	116549.1	-16.35221	-1.202799E-008	0.0006354	6
	53	296	1.512097	114759.5	-38183.3	1	120945	-18.40355	-1.213222E-008	0.0007337	6
	54	302	1.201923	118451.5	-44826.35	1	126649.7	-20.72847	-8.012306E-009	0.0006126	6
	55	308	0.956633	122941.8	-53068.37	1	133906.5	-23.34765	-1.549625E-008	2.143903E-005	6
