June 15, 2026   14:36:53
A.C. Impedance
File: e:\chi_data\6.13Data Source:  Experiment
Instrument Model:  CHI660E
Header: 
Note: 

Init E (V) = 0
High Frequency (Hz) = 1e+6
Low Frequency (Hz) = 0.1
Imp SF
Amplitude (V) = 0.005
Quiet Time (sec) = 2
Cycles (.1-1Hz) = 1

Freq/Hz, Z'/ohm, Z"/ohm, Z/ohm, Phase/deg

8.252e+5, 2.771e+1, 1.081e+1, 2.975e+1, 21.3
6.816e+5, 2.769e+1, 8.230e+0, 2.888e+1, 16.6
5.625e+5, 2.743e+1, 6.717e+0, 2.824e+1, 13.8
4.639e+5, 2.757e+1, 5.117e+0, 2.804e+1, 10.5
3.828e+5, 2.771e+1, 4.020e+0, 2.800e+1, 8.3
3.164e+5, 2.793e+1, 2.985e+0, 2.809e+1, 6.1
2.607e+5, 2.808e+1, 2.152e+0, 2.816e+1, 4.4
2.158e+5, 2.822e+1, 1.353e+0, 2.825e+1, 2.7
1.777e+5, 2.840e+1, 5.689e-1, 2.841e+1, 1.1
1.465e+5, 2.860e+1, -1.149e-1, 2.860e+1, -0.2
1.211e+5, 2.877e+1, 5.685e-1, 2.878e+1, 1.1
9.961e+4, 2.901e+1, 1.836e+0, 2.907e+1, 3.6
8.252e+4, 2.928e+1, 2.103e+0, 2.935e+1, 4.1
6.812e+4, 2.958e+1, 1.521e+0, 2.962e+1, 2.9
5.625e+4, 2.992e+1, 3.610e-1, 2.992e+1, 0.7
4.644e+4, 3.031e+1, -8.538e-1, 3.032e+1, -1.6
3.833e+4, 3.077e+1, -1.928e+0, 3.083e+1, -3.6
3.164e+4, 3.132e+1, -2.826e+0, 3.145e+1, -5.2
2.612e+4, 3.193e+1, -3.618e+0, 3.213e+1, -6.5
2.153e+4, 3.259e+1, -4.353e+0, 3.288e+1, -7.6
1.777e+4, 3.331e+1, -5.099e+0, 3.370e+1, -8.7
1.470e+4, 3.407e+1, -5.823e+0, 3.456e+1, -9.7
1.211e+4, 3.487e+1, -6.513e+0, 3.547e+1, -10.6
1.001e+4, 3.573e+1, -7.232e+0, 3.646e+1, -11.4
8.252e+3, 3.665e+1, -7.980e+0, 3.751e+1, -12.3
6.812e+3, 3.763e+1, -8.755e+0, 3.864e+1, -13.1
5.625e+3, 3.868e+1, -9.565e+0, 3.985e+1, -13.9
4.643e+3, 3.980e+1, -1.042e+1, 4.115e+1, -14.7
3.833e+3, 4.100e+1, -1.134e+1, 4.254e+1, -15.5
3.164e+3, 4.227e+1, -1.234e+1, 4.403e+1, -16.3
2.612e+3, 4.359e+1, -1.343e+1, 4.561e+1, -17.1
2.153e+3, 4.498e+1, -1.462e+1, 4.729e+1, -18.0
1.777e+3, 4.646e+1, -1.595e+1, 4.912e+1, -18.9
1.470e+3, 4.802e+1, -1.745e+1, 5.109e+1, -20.0
1.211e+3, 4.967e+1, -1.914e+1, 5.323e+1, -21.1
1.001e+3, 5.141e+1, -2.100e+1, 5.553e+1, -22.2
8.252e+2, 5.324e+1, -2.309e+1, 5.803e+1, -23.4
6.836e+2, 5.518e+1, -2.554e+1, 6.081e+1, -24.8
5.615e+2, 5.724e+1, -2.844e+1, 6.392e+1, -26.4
4.639e+2, 5.943e+1, -3.184e+1, 6.742e+1, -28.2
3.809e+2, 6.173e+1, -3.575e+1, 7.134e+1, -30.1
3.174e+2, 6.419e+1, -4.034e+1, 7.582e+1, -32.1
2.588e+2, 6.685e+1, -4.575e+1, 8.100e+1, -34.4
2.148e+2, 6.970e+1, -5.216e+1, 8.706e+1, -36.8
1.758e+2, 7.274e+1, -5.965e+1, 9.407e+1, -39.4
1.465e+2, 7.592e+1, -6.821e+1, 1.021e+2, -41.9
1.221e+2, 7.947e+1, -7.878e+1, 1.119e+2, -44.8
9.766e+1, 8.360e+1, -9.093e+1, 1.235e+2, -47.4
8.254e+1, 8.829e+1, -1.049e+2, 1.371e+2, -49.9
6.813e+1, 9.336e+1, -1.220e+2, 1.536e+2, -52.6
5.623e+1, 9.872e+1, -1.423e+2, 1.732e+2, -55.3
4.642e+1, 1.046e+2, -1.668e+2, 1.969e+2, -57.9
3.831e+1, 1.113e+2, -1.959e+2, 2.253e+2, -60.4
3.162e+1, 1.190e+2, -2.304e+2, 2.593e+2, -62.7
2.610e+1, 1.279e+2, -2.713e+2, 2.999e+2, -64.8
2.154e+1, 1.381e+2, -3.197e+2, 3.483e+2, -66.6
1.778e+1, 1.500e+2, -3.771e+2, 4.058e+2, -68.3
1.468e+1, 1.637e+2, -4.452e+2, 4.744e+2, -69.8
1.212e+1, 1.801e+2, -5.256e+2, 5.556e+2, -71.1
1.000e+1, 1.999e+2, -6.212e+2, 6.525e+2, -72.2
8.254e+0, 2.232e+2, -7.353e+2, 7.684e+2, -73.1
6.813e+0, 2.503e+2, -8.709e+2, 9.062e+2, -74.0
5.623e+0, 2.822e+2, -1.032e+3, 1.070e+3, -74.7
4.642e+0, 3.194e+2, -1.224e+3, 1.265e+3, -75.4
3.831e+0, 3.648e+2, -1.450e+3, 1.495e+3, -75.9
3.162e+0, 4.201e+2, -1.719e+3, 1.770e+3, -76.3
2.610e+0, 4.880e+2, -2.037e+3, 2.095e+3, -76.5
2.154e+0, 5.638e+2, -2.421e+3, 2.486e+3, -76.9
1.778e+0, 6.497e+2, -2.877e+3, 2.950e+3, -77.3
1.468e+0, 7.579e+2, -3.402e+3, 3.485e+3, -77.4
1.212e+0, 8.944e+2, -4.007e+3, 4.106e+3, -77.4
1.000e+0, 1.064e+3, -4.707e+3, 4.825e+3, -77.3
8.254e-1, 1.267e+3, -5.514e+3, 5.657e+3, -77.1
6.813e-1, 1.495e+3, -6.449e+3, 6.620e+3, -76.9
5.623e-1, 1.747e+3, -7.543e+3, 7.743e+3, -77.0
4.642e-1, 2.027e+3, -8.830e+3, 9.059e+3, -77.1
3.831e-1, 2.337e+3, -1.035e+4, 1.061e+4, -77.3
3.162e-1, 2.683e+3, -1.215e+4, 1.244e+4, -77.5
2.610e-1, 3.073e+3, -1.428e+4, 1.460e+4, -77.9
2.154e-1, 3.511e+3, -1.680e+4, 1.716e+4, -78.2
1.778e-1, 4.005e+3, -1.982e+4, 2.022e+4, -78.6
1.468e-1, 4.585e+3, -2.337e+4, 2.382e+4, -78.9
1.212e-1, 5.261e+3, -2.757e+4, 2.807e+4, -79.2
1.000e-1, 6.030e+3, -3.248e+4, 3.304e+4, -79.5
