June 15, 2026   15:26:43
A.C. Impedance
File: e:\chi_data\6.13Data Source:  Experiment
Instrument Model:  CHI660E
Header: 
Note: 

Init E (V) = 0
High Frequency (Hz) = 1e+6
Low Frequency (Hz) = 0.1
Imp SF
Amplitude (V) = 0.005
Quiet Time (sec) = 2
Cycles (.1-1Hz) = 1

Freq/Hz, Z'/ohm, Z"/ohm, Z/ohm, Phase/deg

8.252e+5, 1.721e+2, -8.448e+1, 1.917e+2, -26.1
6.816e+5, 1.869e+2, -8.601e+1, 2.058e+2, -24.7
5.625e+5, 1.992e+2, -7.992e+1, 2.147e+2, -21.9
4.639e+5, 2.126e+2, -7.637e+1, 2.259e+2, -19.8
3.828e+5, 2.236e+2, -6.959e+1, 2.342e+2, -17.3
3.164e+5, 2.333e+2, -6.354e+1, 2.418e+2, -15.2
2.607e+5, 2.410e+2, -5.701e+1, 2.476e+2, -13.3
2.158e+5, 2.472e+2, -4.837e+1, 2.519e+2, -11.1
1.777e+5, 2.521e+2, -3.907e+1, 2.552e+2, -8.8
1.465e+5, 2.565e+2, -3.275e+1, 2.586e+2, -7.3
1.211e+5, 2.602e+2, -2.811e+1, 2.617e+2, -6.2
9.961e+4, 2.634e+2, -2.548e+1, 2.646e+2, -5.5
8.252e+4, 2.661e+2, -2.358e+1, 2.672e+2, -5.1
6.812e+4, 2.685e+2, -2.240e+1, 2.694e+2, -4.8
5.625e+4, 2.706e+2, -2.140e+1, 2.714e+2, -4.5
4.644e+4, 2.724e+2, -2.089e+1, 2.732e+2, -4.4
3.833e+4, 2.740e+2, -2.112e+1, 2.748e+2, -4.4
3.164e+4, 2.760e+2, -2.183e+1, 2.769e+2, -4.5
2.612e+4, 2.785e+2, -2.285e+1, 2.794e+2, -4.7
2.153e+4, 2.810e+2, -2.399e+1, 2.820e+2, -4.9
1.777e+4, 2.833e+2, -2.525e+1, 2.845e+2, -5.1
1.470e+4, 2.860e+2, -2.698e+1, 2.873e+2, -5.4
1.211e+4, 2.890e+2, -2.912e+1, 2.905e+2, -5.8
1.001e+4, 2.925e+2, -3.048e+1, 2.940e+2, -5.9
8.252e+3, 2.963e+2, -3.170e+1, 2.980e+2, -6.1
6.812e+3, 3.005e+2, -3.426e+1, 3.024e+2, -6.5
5.625e+3, 3.051e+2, -3.800e+1, 3.075e+2, -7.1
4.643e+3, 3.103e+2, -4.256e+1, 3.132e+2, -7.8
3.833e+3, 3.159e+2, -4.745e+1, 3.195e+2, -8.5
3.164e+3, 3.221e+2, -5.247e+1, 3.264e+2, -9.3
2.612e+3, 3.290e+2, -5.753e+1, 3.340e+2, -9.9
2.153e+3, 3.365e+2, -6.278e+1, 3.423e+2, -10.6
1.777e+3, 3.445e+2, -6.817e+1, 3.512e+2, -11.2
1.470e+3, 3.531e+2, -7.379e+1, 3.608e+2, -11.8
1.211e+3, 3.623e+2, -7.963e+1, 3.710e+2, -12.4
1.001e+3, 3.721e+2, -8.539e+1, 3.818e+2, -12.9
8.252e+2, 3.825e+2, -9.124e+1, 3.933e+2, -13.4
6.836e+2, 3.937e+2, -9.776e+1, 4.056e+2, -13.9
5.615e+2, 4.054e+2, -1.050e+2, 4.187e+2, -14.5
4.639e+2, 4.178e+2, -1.129e+2, 4.327e+2, -15.1
3.809e+2, 4.306e+2, -1.214e+2, 4.474e+2, -15.7
3.174e+2, 4.441e+2, -1.308e+2, 4.630e+2, -16.4
2.588e+2, 4.584e+2, -1.411e+2, 4.796e+2, -17.1
2.148e+2, 4.734e+2, -1.527e+2, 4.974e+2, -17.9
1.758e+2, 4.890e+2, -1.656e+2, 5.162e+2, -18.7
1.465e+2, 5.048e+2, -1.797e+2, 5.358e+2, -19.6
1.221e+2, 5.219e+2, -1.958e+2, 5.574e+2, -20.6
9.766e+1, 5.408e+2, -2.125e+2, 5.810e+2, -21.5
8.254e+1, 5.605e+2, -2.311e+2, 6.063e+2, -22.4
6.813e+1, 5.810e+2, -2.544e+2, 6.342e+2, -23.7
5.623e+1, 6.017e+2, -2.827e+2, 6.648e+2, -25.2
4.642e+1, 6.235e+2, -3.163e+2, 6.992e+2, -26.9
3.831e+1, 6.470e+2, -3.558e+2, 7.384e+2, -28.8
3.162e+1, 6.720e+2, -4.020e+2, 7.831e+2, -30.9
2.610e+1, 6.990e+2, -4.561e+2, 8.347e+2, -33.1
2.154e+1, 7.279e+2, -5.198e+2, 8.945e+2, -35.5
1.778e+1, 7.591e+2, -5.948e+2, 9.643e+2, -38.1
1.468e+1, 7.928e+2, -6.837e+2, 1.047e+3, -40.8
1.212e+1, 8.294e+2, -7.894e+2, 1.145e+3, -43.6
1.000e+1, 8.705e+2, -9.155e+2, 1.263e+3, -46.4
8.254e+0, 9.165e+2, -1.067e+3, 1.407e+3, -49.3
6.813e+0, 9.663e+2, -1.249e+3, 1.579e+3, -52.3
5.623e+0, 1.021e+3, -1.465e+3, 1.785e+3, -55.1
4.642e+0, 1.081e+3, -1.725e+3, 2.036e+3, -57.9
3.831e+0, 1.149e+3, -2.029e+3, 2.332e+3, -60.5
3.162e+0, 1.222e+3, -2.396e+3, 2.690e+3, -63.0
2.610e+0, 1.303e+3, -2.831e+3, 3.117e+3, -65.3
2.154e+0, 1.385e+3, -3.384e+3, 3.656e+3, -67.7
1.778e+0, 1.473e+3, -4.053e+3, 4.312e+3, -70.0
1.468e+0, 1.582e+3, -4.794e+3, 5.048e+3, -71.7
1.212e+0, 1.723e+3, -5.631e+3, 5.888e+3, -73.0
1.000e+0, 1.904e+3, -6.597e+3, 6.866e+3, -73.9
8.254e-1, 2.129e+3, -7.721e+3, 8.010e+3, -74.6
6.813e-1, 2.393e+3, -9.043e+3, 9.354e+3, -75.2
5.623e-1, 2.702e+3, -1.062e+4, 1.095e+4, -75.7
4.642e-1, 3.074e+3, -1.247e+4, 1.285e+4, -76.2
3.831e-1, 3.532e+3, -1.467e+4, 1.509e+4, -76.5
3.162e-1, 4.091e+3, -1.728e+4, 1.775e+4, -76.7
2.610e-1, 4.778e+3, -2.033e+4, 2.089e+4, -76.8
2.154e-1, 5.624e+3, -2.390e+4, 2.455e+4, -76.8
1.778e-1, 6.643e+3, -2.810e+4, 2.887e+4, -76.7
1.468e-1, 7.867e+3, -3.304e+4, 3.396e+4, -76.6
1.212e-1, 9.337e+3, -3.882e+4, 3.993e+4, -76.5
1.000e-1, 1.106e+4, -4.548e+4, 4.681e+4, -76.3
