June 15, 2026   16:14:29
A.C. Impedance
File: e:\chi_data\6.13Data Source:  Experiment
Instrument Model:  CHI660E
Header: 
Note: 

Init E (V) = 0
High Frequency (Hz) = 1e+6
Low Frequency (Hz) = 0.1
Imp SF
Amplitude (V) = 0.005
Quiet Time (sec) = 2
Cycles (.1-1Hz) = 1

Freq/Hz, Z'/ohm, Z"/ohm, Z/ohm, Phase/deg

8.252e+5, 2.210e+2, -4.082e+2, 4.642e+2, -61.6
6.816e+5, 2.771e+2, -5.043e+2, 5.754e+2, -61.2
5.625e+5, 3.490e+2, -5.971e+2, 6.916e+2, -59.7
4.639e+5, 4.343e+2, -6.943e+2, 8.189e+2, -58.0
3.828e+5, 5.404e+2, -7.891e+2, 9.564e+2, -55.6
3.164e+5, 6.656e+2, -8.789e+2, 1.102e+3, -52.9
2.607e+5, 8.055e+2, -9.583e+2, 1.252e+3, -50.0
2.158e+5, 9.602e+2, -1.025e+3, 1.404e+3, -46.9
1.777e+5, 1.136e+3, -1.079e+3, 1.567e+3, -43.5
1.465e+5, 1.320e+3, -1.115e+3, 1.728e+3, -40.2
1.211e+5, 1.504e+3, -1.119e+3, 1.874e+3, -36.6
9.961e+4, 1.687e+3, -1.102e+3, 2.015e+3, -33.2
8.252e+4, 1.871e+3, -1.069e+3, 2.155e+3, -29.7
6.812e+4, 2.050e+3, -1.015e+3, 2.287e+3, -26.4
5.625e+4, 2.203e+3, -9.444e+2, 2.397e+3, -23.2
4.644e+4, 2.334e+3, -8.729e+2, 2.492e+3, -20.5
3.833e+4, 2.475e+3, -8.043e+2, 2.602e+3, -18.0
3.164e+4, 2.610e+3, -7.284e+2, 2.710e+3, -15.6
2.612e+4, 2.718e+3, -6.512e+2, 2.795e+3, -13.5
2.153e+4, 2.800e+3, -5.870e+2, 2.861e+3, -11.8
1.777e+4, 2.838e+3, -5.467e+2, 2.890e+3, -10.9
1.470e+4, 2.873e+3, -5.029e+2, 2.917e+3, -9.9
1.211e+4, 2.929e+3, -4.551e+2, 2.964e+3, -8.8
1.001e+4, 2.951e+3, -4.034e+2, 2.978e+3, -7.8
8.252e+3, 2.949e+3, -3.473e+2, 2.969e+3, -6.7
6.812e+3, 2.957e+3, -3.079e+2, 2.973e+3, -5.9
5.625e+3, 2.969e+3, -2.871e+2, 2.983e+3, -5.5
4.643e+3, 2.984e+3, -2.855e+2, 2.997e+3, -5.5
3.833e+3, 3.007e+3, -2.885e+2, 3.021e+3, -5.5
3.164e+3, 3.040e+3, -2.959e+2, 3.054e+3, -5.6
2.612e+3, 3.075e+3, -3.072e+2, 3.091e+3, -5.7
2.153e+3, 3.109e+3, -3.221e+2, 3.126e+3, -5.9
1.777e+3, 3.145e+3, -3.407e+2, 3.163e+3, -6.2
1.470e+3, 3.185e+3, -3.644e+2, 3.206e+3, -6.5
1.211e+3, 3.230e+3, -3.952e+2, 3.254e+3, -7.0
1.001e+3, 3.280e+3, -4.237e+2, 3.307e+3, -7.4
8.252e+2, 3.335e+3, -4.505e+2, 3.366e+3, -7.7
6.836e+2, 3.395e+3, -4.840e+2, 3.430e+3, -8.1
5.615e+2, 3.462e+3, -5.218e+2, 3.501e+3, -8.6
4.639e+2, 3.536e+3, -5.644e+2, 3.581e+3, -9.1
3.809e+2, 3.615e+3, -6.096e+2, 3.666e+3, -9.6
3.174e+2, 3.697e+3, -6.549e+2, 3.755e+3, -10.0
2.588e+2, 3.783e+3, -7.000e+2, 3.847e+3, -10.5
2.148e+2, 3.875e+3, -7.449e+2, 3.946e+3, -10.9
1.758e+2, 3.967e+3, -7.932e+2, 4.045e+3, -11.3
1.465e+2, 4.060e+3, -8.442e+2, 4.147e+3, -11.7
1.221e+2, 4.170e+3, -8.968e+2, 4.266e+3, -12.1
9.766e+1, 4.288e+3, -9.404e+2, 4.390e+3, -12.4
8.254e+1, 4.408e+3, -9.825e+2, 4.516e+3, -12.6
6.813e+1, 4.532e+3, -1.041e+3, 4.650e+3, -12.9
5.623e+1, 4.658e+3, -1.113e+3, 4.789e+3, -13.4
4.642e+1, 4.788e+3, -1.196e+3, 4.935e+3, -14.0
3.831e+1, 4.927e+3, -1.286e+3, 5.092e+3, -14.6
3.162e+1, 5.075e+3, -1.382e+3, 5.259e+3, -15.2
2.610e+1, 5.230e+3, -1.486e+3, 5.437e+3, -15.9
2.154e+1, 5.392e+3, -1.604e+3, 5.626e+3, -16.6
1.778e+1, 5.563e+3, -1.737e+3, 5.828e+3, -17.3
1.468e+1, 5.746e+3, -1.883e+3, 6.046e+3, -18.1
1.212e+1, 5.940e+3, -2.043e+3, 6.281e+3, -19.0
1.000e+1, 6.151e+3, -2.227e+3, 6.541e+3, -19.9
8.254e+0, 6.378e+3, -2.448e+3, 6.832e+3, -21.0
6.813e+0, 6.620e+3, -2.709e+3, 7.153e+3, -22.3
5.623e+0, 6.877e+3, -3.016e+3, 7.510e+3, -23.7
4.642e+0, 7.162e+3, -3.380e+3, 7.920e+3, -25.3
3.831e+0, 7.461e+3, -3.804e+3, 8.375e+3, -27.0
3.162e+0, 7.797e+3, -4.320e+3, 8.914e+3, -29.0
2.610e+0, 8.164e+3, -4.936e+3, 9.541e+3, -31.2
2.154e+0, 8.657e+3, -5.767e+3, 1.040e+4, -33.7
1.778e+0, 9.232e+3, -6.807e+3, 1.147e+4, -36.4
1.468e+0, 9.731e+3, -7.946e+3, 1.256e+4, -39.2
1.212e+0, 1.017e+4, -9.190e+3, 1.371e+4, -42.1
1.000e+0, 1.059e+4, -1.057e+4, 1.496e+4, -44.9
8.254e-1, 1.098e+4, -1.208e+4, 1.633e+4, -47.7
6.813e-1, 1.135e+4, -1.379e+4, 1.786e+4, -50.5
5.623e-1, 1.175e+4, -1.580e+4, 1.969e+4, -53.4
4.642e-1, 1.223e+4, -1.828e+4, 2.199e+4, -56.2
3.831e-1, 1.280e+4, -2.118e+4, 2.475e+4, -58.9
3.162e-1, 1.344e+4, -2.449e+4, 2.793e+4, -61.2
2.610e-1, 1.420e+4, -2.841e+4, 3.176e+4, -63.4
2.154e-1, 1.510e+4, -3.304e+4, 3.633e+4, -65.4
1.778e-1, 1.618e+4, -3.853e+4, 4.179e+4, -67.2
1.468e-1, 1.748e+4, -4.508e+4, 4.835e+4, -68.8
1.212e-1, 1.904e+4, -5.293e+4, 5.625e+4, -70.2
1.000e-1, 2.088e+4, -6.211e+4, 6.553e+4, -71.4
