June 15, 2026   10:49:52
A.C. Impedance
File: e:\chi_data\6.13Data Source:  Experiment
Instrument Model:  CHI660E
Header: 
Note: 

Init E (V) = 0
High Frequency (Hz) = 1e+6
Low Frequency (Hz) = 0.1
Imp SF
Amplitude (V) = 0.005
Quiet Time (sec) = 2
Cycles (.1-1Hz) = 1

Freq/Hz, Z'/ohm, Z"/ohm, Z/ohm, Phase/deg

8.252e+5, 3.129e+0, 1.409e+1, 1.443e+1, 77.5
6.816e+5, 2.458e+0, 1.152e+1, 1.178e+1, 78.0
5.625e+5, 1.840e+0, 9.614e+0, 9.788e+0, 79.2
4.639e+5, 1.591e+0, 7.877e+0, 8.036e+0, 78.6
3.828e+5, 1.414e+0, 6.558e+0, 6.709e+0, 77.8
3.164e+5, 1.321e+0, 5.413e+0, 5.572e+0, 76.3
2.607e+5, 1.224e+0, 4.493e+0, 4.657e+0, 74.8
2.158e+5, 1.151e+0, 3.702e+0, 3.877e+0, 72.7
1.777e+5, 1.097e+0, 3.038e+0, 3.230e+0, 70.1
1.465e+5, 1.062e+0, 2.478e+0, 2.696e+0, 66.8
1.211e+5, 1.026e+0, 1.885e+0, 2.146e+0, 61.4
9.961e+4, 1.001e+0, 1.308e+0, 1.647e+0, 52.6
8.252e+4, 9.860e-1, 9.111e-1, 1.342e+0, 42.7
6.812e+4, 9.816e-1, 6.508e-1, 1.178e+0, 33.5
5.625e+4, 9.828e-1, 4.871e-1, 1.097e+0, 26.4
4.644e+4, 9.890e-1, 3.556e-1, 1.051e+0, 19.8
3.833e+4, 9.972e-1, 2.362e-1, 1.025e+0, 13.3
3.164e+4, 1.007e+0, 1.167e-1, 1.014e+0, 6.6
2.612e+4, 1.020e+0, 9.418e-5, 1.020e+0, 0.0
2.153e+4, 1.034e+0, -1.136e-1, 1.040e+0, -6.3
1.777e+4, 1.050e+0, -2.261e-1, 1.074e+0, -12.2
1.470e+4, 1.068e+0, -3.422e-1, 1.121e+0, -17.8
1.211e+4, 1.088e+0, -4.651e-1, 1.183e+0, -23.1
1.001e+4, 1.111e+0, -6.004e-1, 1.263e+0, -28.4
8.252e+3, 1.138e+0, -7.520e-1, 1.364e+0, -33.5
6.812e+3, 1.169e+0, -9.228e-1, 1.489e+0, -38.3
5.625e+3, 1.204e+0, -1.119e+0, 1.644e+0, -42.9
4.643e+3, 1.246e+0, -1.345e+0, 1.833e+0, -47.2
3.833e+3, 1.296e+0, -1.608e+0, 2.065e+0, -51.1
3.164e+3, 1.357e+0, -1.916e+0, 2.348e+0, -54.7
2.612e+3, 1.437e+0, -2.285e+0, 2.699e+0, -57.8
2.153e+3, 1.537e+0, -2.725e+0, 3.128e+0, -60.6
1.777e+3, 1.652e+0, -3.239e+0, 3.636e+0, -63.0
1.470e+3, 1.787e+0, -3.843e+0, 4.238e+0, -65.1
1.211e+3, 1.947e+0, -4.550e+0, 4.949e+0, -66.8
1.001e+3, 2.141e+0, -5.377e+0, 5.788e+0, -68.3
8.252e+2, 2.373e+0, -6.342e+0, 6.771e+0, -69.5
6.836e+2, 2.653e+0, -7.479e+0, 7.936e+0, -70.5
5.615e+2, 2.984e+0, -8.820e+0, 9.311e+0, -71.3
4.639e+2, 3.373e+0, -1.040e+1, 1.093e+1, -72.0
3.809e+2, 3.818e+0, -1.221e+1, 1.280e+1, -72.6
3.174e+2, 4.328e+0, -1.435e+1, 1.499e+1, -73.2
2.588e+2, 4.901e+0, -1.686e+1, 1.756e+1, -73.8
2.148e+2, 5.552e+0, -1.985e+1, 2.062e+1, -74.4
1.758e+2, 6.277e+0, -2.339e+1, 2.421e+1, -75.0
1.465e+2, 7.055e+0, -2.743e+1, 2.833e+1, -75.6
1.221e+2, 7.949e+0, -3.247e+1, 3.343e+1, -76.2
9.766e+1, 9.042e+0, -3.838e+1, 3.943e+1, -76.7
8.254e+1, 1.029e+1, -4.518e+1, 4.634e+1, -77.2
6.813e+1, 1.161e+1, -5.340e+1, 5.465e+1, -77.7
5.623e+1, 1.304e+1, -6.323e+1, 6.456e+1, -78.4
4.642e+1, 1.466e+1, -7.507e+1, 7.649e+1, -78.9
3.831e+1, 1.654e+1, -8.930e+1, 9.082e+1, -79.5
3.162e+1, 1.872e+1, -1.063e+2, 1.079e+2, -80.0
2.610e+1, 2.128e+1, -1.267e+2, 1.285e+2, -80.5
2.154e+1, 2.423e+1, -1.511e+2, 1.531e+2, -80.9
1.778e+1, 2.764e+1, -1.803e+2, 1.824e+2, -81.3
1.468e+1, 3.174e+1, -2.151e+2, 2.175e+2, -81.6
1.212e+1, 3.662e+1, -2.568e+2, 2.594e+2, -81.9
1.000e+1, 4.254e+1, -3.065e+2, 3.095e+2, -82.1
8.254e+0, 4.957e+1, -3.661e+2, 3.694e+2, -82.3
6.813e+0, 5.752e+1, -4.374e+2, 4.411e+2, -82.5
5.623e+0, 6.669e+1, -5.227e+2, 5.269e+2, -82.7
4.642e+0, 7.746e+1, -6.251e+2, 6.299e+2, -82.9
3.831e+0, 9.022e+1, -7.476e+2, 7.530e+2, -83.1
3.162e+0, 1.050e+2, -8.950e+2, 9.011e+2, -83.3
2.610e+0, 1.226e+2, -1.073e+3, 1.080e+3, -83.5
2.154e+0, 1.413e+2, -1.288e+3, 1.296e+3, -83.7
1.778e+0, 1.620e+2, -1.547e+3, 1.555e+3, -84.0
1.468e+0, 1.901e+2, -1.858e+3, 1.868e+3, -84.2
1.212e+0, 2.305e+2, -2.223e+3, 2.235e+3, -84.1
1.000e+0, 2.865e+2, -2.649e+3, 2.665e+3, -83.8
8.254e-1, 3.560e+2, -3.156e+3, 3.176e+3, -83.6
6.813e-1, 4.392e+2, -3.761e+3, 3.787e+3, -83.3
5.623e-1, 5.383e+2, -4.486e+3, 4.519e+3, -83.2
4.642e-1, 6.605e+2, -5.352e+3, 5.392e+3, -83.0
3.831e-1, 8.134e+2, -6.381e+3, 6.432e+3, -82.7
3.162e-1, 1.003e+3, -7.604e+3, 7.669e+3, -82.5
2.610e-1, 1.243e+3, -9.051e+3, 9.136e+3, -82.2
2.154e-1, 1.545e+3, -1.076e+4, 1.087e+4, -81.8
1.778e-1, 1.913e+3, -1.275e+4, 1.290e+4, -81.5
1.468e-1, 2.355e+3, -1.504e+4, 1.523e+4, -81.1
1.212e-1, 2.944e+3, -1.781e+4, 1.805e+4, -80.6
1.000e-1, 3.707e+3, -2.114e+4, 2.146e+4, -80.1
