June 15, 2026   16:01:31
A.C. Impedance
File: e:\chi_data\6.13Data Source:  Experiment
Instrument Model:  CHI660E
Header: 
Note: 

Init E (V) = 0
High Frequency (Hz) = 1e+6
Low Frequency (Hz) = 0.1
Imp SF
Amplitude (V) = 0.005
Quiet Time (sec) = 2
Cycles (.1-1Hz) = 1

Freq/Hz, Z'/ohm, Z"/ohm, Z/ohm, Phase/deg

8.252e+5, 2.378e+2, -2.981e+2, 3.813e+2, -51.4
6.816e+5, 2.917e+2, -3.625e+2, 4.653e+2, -51.2
5.625e+5, 3.574e+2, -4.180e+2, 5.500e+2, -49.5
4.639e+5, 4.348e+2, -4.664e+2, 6.377e+2, -47.0
3.828e+5, 5.219e+2, -5.062e+2, 7.270e+2, -44.1
3.164e+5, 6.149e+2, -5.348e+2, 8.149e+2, -41.0
2.607e+5, 7.108e+2, -5.539e+2, 9.011e+2, -37.9
2.158e+5, 8.072e+2, -5.596e+2, 9.822e+2, -34.7
1.777e+5, 9.010e+2, -5.525e+2, 1.057e+3, -31.5
1.465e+5, 9.896e+2, -5.345e+2, 1.125e+3, -28.4
1.211e+5, 1.073e+3, -5.063e+2, 1.187e+3, -25.3
9.961e+4, 1.151e+3, -4.708e+2, 1.243e+3, -22.2
8.252e+4, 1.218e+3, -4.305e+2, 1.292e+3, -19.5
6.812e+4, 1.274e+3, -3.886e+2, 1.332e+3, -17.0
5.625e+4, 1.318e+3, -3.463e+2, 1.363e+3, -14.7
4.644e+4, 1.353e+3, -3.108e+2, 1.388e+3, -12.9
3.833e+4, 1.383e+3, -2.809e+2, 1.411e+3, -11.5
3.164e+4, 1.413e+3, -2.514e+2, 1.435e+3, -10.1
2.612e+4, 1.439e+3, -2.222e+2, 1.456e+3, -8.8
2.153e+4, 1.458e+3, -1.993e+2, 1.471e+3, -7.8
1.777e+4, 1.455e+3, -1.746e+2, 1.466e+3, -6.8
1.470e+4, 1.457e+3, -1.530e+2, 1.465e+3, -6.0
1.211e+4, 1.483e+3, -1.417e+2, 1.490e+3, -5.5
1.001e+4, 1.506e+3, -1.340e+2, 1.512e+3, -5.1
8.252e+3, 1.524e+3, -1.324e+2, 1.530e+3, -5.0
6.812e+3, 1.537e+3, -1.311e+2, 1.543e+3, -4.9
5.625e+3, 1.549e+3, -1.345e+2, 1.555e+3, -5.0
4.643e+3, 1.561e+3, -1.425e+2, 1.567e+3, -5.2
3.833e+3, 1.574e+3, -1.519e+2, 1.582e+3, -5.5
3.164e+3, 1.591e+3, -1.630e+2, 1.599e+3, -5.9
2.612e+3, 1.609e+3, -1.760e+2, 1.619e+3, -6.2
2.153e+3, 1.629e+3, -1.910e+2, 1.641e+3, -6.7
1.777e+3, 1.652e+3, -2.080e+2, 1.665e+3, -7.2
1.470e+3, 1.678e+3, -2.265e+2, 1.693e+3, -7.7
1.211e+3, 1.706e+3, -2.462e+2, 1.723e+3, -8.2
1.001e+3, 1.736e+3, -2.659e+2, 1.756e+3, -8.7
8.252e+2, 1.769e+3, -2.860e+2, 1.792e+3, -9.2
6.836e+2, 1.804e+3, -3.083e+2, 1.831e+3, -9.7
5.615e+2, 1.845e+3, -3.329e+2, 1.875e+3, -10.2
4.639e+2, 1.890e+3, -3.585e+2, 1.923e+3, -10.7
3.809e+2, 1.934e+3, -3.843e+2, 1.972e+3, -11.2
3.174e+2, 1.984e+3, -4.107e+2, 2.026e+3, -11.7
2.588e+2, 2.039e+3, -4.378e+2, 2.085e+3, -12.1
2.148e+2, 2.096e+3, -4.681e+2, 2.147e+3, -12.6
1.758e+2, 2.155e+3, -5.015e+2, 2.213e+3, -13.1
1.465e+2, 2.214e+3, -5.343e+2, 2.278e+3, -13.6
1.221e+2, 2.278e+3, -5.674e+2, 2.348e+3, -14.0
9.766e+1, 2.347e+3, -5.967e+2, 2.422e+3, -14.3
8.254e+1, 2.418e+3, -6.272e+2, 2.498e+3, -14.5
6.813e+1, 2.492e+3, -6.681e+2, 2.580e+3, -15.0
5.623e+1, 2.566e+3, -7.182e+2, 2.665e+3, -15.6
4.642e+1, 2.644e+3, -7.766e+2, 2.756e+3, -16.4
3.831e+1, 2.727e+3, -8.422e+2, 2.854e+3, -17.2
3.162e+1, 2.815e+3, -9.149e+2, 2.960e+3, -18.0
2.610e+1, 2.907e+3, -9.955e+2, 3.073e+3, -18.9
2.154e+1, 3.004e+3, -1.086e+3, 3.194e+3, -19.9
1.778e+1, 3.107e+3, -1.189e+3, 3.326e+3, -20.9
1.468e+1, 3.216e+3, -1.309e+3, 3.472e+3, -22.1
1.212e+1, 3.333e+3, -1.444e+3, 3.632e+3, -23.4
1.000e+1, 3.460e+3, -1.602e+3, 3.813e+3, -24.8
8.254e+0, 3.599e+3, -1.792e+3, 4.021e+3, -26.5
6.813e+0, 3.748e+3, -2.018e+3, 4.257e+3, -28.3
5.623e+0, 3.908e+3, -2.290e+3, 4.529e+3, -30.4
4.642e+0, 4.087e+3, -2.618e+3, 4.853e+3, -32.6
3.831e+0, 4.273e+3, -3.004e+3, 5.223e+3, -35.1
3.162e+0, 4.482e+3, -3.477e+3, 5.672e+3, -37.8
2.610e+0, 4.707e+3, -4.044e+3, 6.206e+3, -40.7
2.154e+0, 4.996e+3, -4.821e+3, 6.943e+3, -44.0
1.778e+0, 5.324e+3, -5.793e+3, 7.868e+3, -47.4
1.468e+0, 5.600e+3, -6.823e+3, 8.827e+3, -50.6
1.212e+0, 5.845e+3, -7.925e+3, 9.847e+3, -53.6
1.000e+0, 6.092e+3, -9.146e+3, 1.099e+4, -56.3
8.254e-1, 6.356e+3, -1.051e+4, 1.228e+4, -58.8
6.813e-1, 6.640e+3, -1.208e+4, 1.378e+4, -61.2
5.623e-1, 6.973e+3, -1.393e+4, 1.558e+4, -63.4
4.642e-1, 7.365e+3, -1.613e+4, 1.774e+4, -65.5
3.831e-1, 7.834e+3, -1.881e+4, 2.038e+4, -67.4
3.162e-1, 8.407e+3, -2.191e+4, 2.347e+4, -69.0
2.610e-1, 9.099e+3, -2.554e+4, 2.711e+4, -70.4
2.154e-1, 9.930e+3, -2.984e+4, 3.145e+4, -71.6
1.778e-1, 1.093e+4, -3.497e+4, 3.664e+4, -72.6
1.468e-1, 1.212e+4, -4.113e+4, 4.288e+4, -73.6
1.212e-1, 1.357e+4, -4.844e+4, 5.031e+4, -74.3
1.000e-1, 1.531e+4, -5.696e+4, 5.898e+4, -75.0
