EXPLAIN
TAG	EISPOT
TITLE	LABEL	Potentiostatic EIS	Test Identifier
DATE	LABEL	9/1/2020	Date
TIME	LABEL	1:01:42	Time
NOTES	NOTES	1	Notes...
	
PSTAT	PSTAT	REF3000-16137	Potentiostat
VDC	POTEN	0.00000E+000	T	DC Voltage (V)
FREQINIT	QUANT	3.00000E+005	Initial Freq. (Hz)
FREQFINAL	QUANT	1.00000E+000	Final Freq. (Hz)
PTSPERDEC	QUANT	1.00000E+001	Points/decade
VAC	QUANT	5.00000E+001	AC Voltage (mV rms)
AREA	QUANT	1.00000E+000	Sample Area (cm^2)
SPEED	SELECTOR	2	Optimize for:
ZGUESS	QUANT	1.00000E+003	Estimated Z (ohms)
EOC	QUANT	0	Open Circuit (V)
SEQUENCER	TOGGLE	TRUE	Run as Sequence
PSTATMODEL	IQUANT	5	Pstat Model
PSTATSECTION	LABEL	REF3000-16137	Pstat Section
PSTATSERIALNO	LABEL	16137	Pstat Serial Number
CTRLMODE	IQUANT	1	Control Mode
IESTAB	IQUANT	0	I/E Stability
CASPEED	IQUANT	1	Control Amp Speed
CONVENTION	IQUANT	1	Current Convention
ICHRANGE	IQUANT	2	Ich Range
ICHRANGEMODE	TOGGLE	F	Ich Auto Range
ICHOFFSETENABLE	TOGGLE	T	Ich Offset Enable
ICHOFFSET	QUANT	0	Ich Offset (V)
ICHFILTER	IQUANT	3	Ich Filter
VCHRANGE	IQUANT	2	Vch Range
VCHRANGEMODE	TOGGLE	F	Vch Auto Range
VCHOFFSETENABLE	TOGGLE	T	Vch Offset Enable
VCHOFFSET	QUANT	0	Vch Offset (V)
VCHFILTER	IQUANT	3	Vch Filter
ACHRANGE	IQUANT	2	Ach Range
ACHOFFSETENABLE	TOGGLE	F	Ach Offset Enable
ACHOFFSET	QUANT	0	Ach Offset (V)
ACHFILTER	IQUANT	3	Ach Filter
IERANGELOWERLIMIT	IQUANT	2	I/E Range Lower Limit
IERANGEMODE	TOGGLE	F	I/E AutoRange
IERANGE	IQUANT	11	I/E Range
POSFEEDENABLE	TOGGLE	F	Positive Feedback IR Comp
POSFEEDRESISTANCE	QUANT	0	Positive Feedback Resistance (ohm)
ACHSELECT	IQUANT	0	Ach Select
CABLEID	IQUANT	13	Cable ID
DCCALDATE	LABEL	7/31/2020	DC Calibration Date
ACCALDATE	LABEL	7/31/2020	AC Calibration Date
THERMOSELECT	IQUANT	1	Thermo Select
FRAMEWORKVERSION	QUANT	6.33	Framework Version
INSTRUMENTVERSION	LABEL	3.50	Instrument Version
COMPLIANCEVOLTAGE	IQUANT	0	Compliance Voltage
ZCURVE	TABLE
	Pt	Time	Freq	Zreal	Zimag	Zsig	Zmod	Zphz	Idc	Vdc	IERange
	#	s	Hz	ohm	ohm	V	ohm	°	A	V	#
	0	10	300046.9	342.8143	-47.95546	1	346.1522	-7.963293	4.951329E-005	0.0005989	10
	1	19	238359.4	350.1976	-32.80259	1	351.7305	-5.351214	8.559241E-005	-0.0027812	9
	2	23	189328.1	355.7598	-28.54056	1	356.9028	-4.586687	-3.284483E-005	-0.0006069	9
	3	29	150421.9	359.5557	-23.65398	1	360.3329	-3.763876	-3.273479E-005	-0.0006146	9
	4	34	119484.4	363.7334	-19.88584	1	364.2766	-3.129328	-1.248857E-005	0.0014764	9
	5	41	94921.88	367.0081	-16.43086	1	367.3758	-2.563405	-2.238234E-005	0.0009971	9
	6	44	75421.88	368.7732	-13.88503	1	369.0345	-2.156279	2.269487E-005	-0.000905	9
	7	46	59859.37	370.7856	-11.69518	1	370.97	-1.806603	-1.093345E-005	-8.285581E-005	9
	8	49	47578.12	373.1037	-3.801663	1	373.1231	-0.5837832	7.666424E-006	0.0011173	8
	9	51	37828.12	374.9578	-4.62884	1	374.9864	-0.7072784	1.210367E-005	-0.0012338	8
	10	54	30046.88	376.2309	-3.772251	1	376.2498	-0.5744527	-8.430999E-006	0.0003768	8
	11	56	23859.38	377.8887	-3.833387	1	377.9081	-0.5812012	1.128065E-005	-0.0053939	8
	12	59	18984.38	379.6214	-4.027393	1	379.6428	-0.6078265	1.496174E-006	-0.0030243	8
	13	61	15046.87	381.9905	-5.578804	1	382.0313	-0.8367203	-3.467107E-006	-0.0013923	8
	14	63	11953.13	382.1311	-3.827306	1	382.1503	-0.5738375	1.046072E-005	-0.004033	8
	15	66	9515.62	384.6933	-4.568781	1	384.7204	-0.680437	-1.384353E-005	0.0050357	8
	16	68	7546.875	385.955	-5.668318	1	385.9966	-0.8414125	2.346566E-006	0.0035016	8
	17	70	5928.309	388.1854	-6.018363	1	388.2321	-0.8882332	1.030622E-005	-0.004746	8
	18	73	4733.456	389.6553	-5.897968	1	389.6999	-0.8671842	-1.109353E-005	0.0061049	8
	19	75	3796.875	392.0294	-10.01334	1	392.1573	-1.46315	8.126282E-006	-0.0048922	8
	20	77	2987.132	393.7569	-8.717341	1	393.8534	-1.268258	-1.140096E-005	0.0020206	8
	21	80	2390.625	396.5974	-10.27521	1	396.7305	-1.484111	1.494644E-005	-0.0044079	8
	22	82	1884.191	397.3	-9.88199	1	397.4229	-1.424816	-1.310914E-005	0.0058047	8
	23	84	1516.544	400.7105	-13.97076	1	400.954	-1.996807	1.180562E-005	-0.0006997	8
	24	86	1193.986	403.6613	-16.99179	1	404.0188	-2.410395	2.108728E-006	0.0034584	8
	25	89	946.5144	405.6789	-19.52074	1	406.1483	-2.754873	1.540989E-006	-0.0030331	8
	26	91	751.7689	408.9354	-24.19107	1	409.6503	-3.385456	-1.402917E-005	0.0041444	8
	27	94	597.4265	409.9581	-28.488	1	410.9467	-3.975095	1.511247E-005	-0.0034224	8
	28	96	477.4305	414.4999	-34.10696	1	415.9008	-4.703963	-7.482533E-008	0.0006461	8
	29	98	376.6741	417.8675	-41.27602	1	419.9011	-5.64125	-7.359272E-008	0.000643	8
	30	101	298.2954	421.4773	-50.001	1	424.4328	-6.765534	-7.311509E-008	0.0006527	8
	31	103	237.7717	425.488	-60.43975	1	429.7593	-8.084667	-6.197836E-008	0.0006466	8
	32	105	189.0121	429.9962	-73.43709	1	436.2221	-9.69178	-3.650199E-008	0.0006468	8
	33	108	150.2404	435.1005	-89.38333	1	444.1867	-11.60885	-4.041805E-008	0.0006325	8
	34	110	119.1737	441.0819	-109.1102	1	454.3768	-13.8943	-7.905692E-008	0.0006438	8
	35	112	95.0169	447.9723	-132.8034	1	467.2429	-16.51269	-6.206231E-008	0.0006414	8
	36	115	75.60484	456.3417	-161.8415	1	484.1905	-19.52705	-6.919682E-008	0.0006506	8
	37	118	54.50582	470.5202	-214.5314	1	517.1199	-24.51039	-9.024809E-008	0.0006494	8
	38	120	45.95588	480.3293	-248.3347	1	540.7276	-27.33938	-5.086962E-008	0.0006578	8
	39	122	37.20238	493.8248	-297.4372	1	576.4822	-31.06111	-1.777316E-008	0.000632	8
	40	125	30.04808	509.9069	-356.6901	1	622.2804	-34.97356	-9.225582E-008	0.0006576	8
	41	127	23.91582	529.8726	-432.8653	1	684.2056	-39.24619	-1.309568E-007	0.0006475	8
	42	130	18.60119	555.7943	-535.9368	1	772.0981	-43.95796	4.267064E-009	0.0006658	8
	43	132	15.02404	581.9777	-642.3564	1	866.787	-47.82329	-4.732969E-008	0.0006546	8
	44	134	12.01923	614.2538	-777.5244	1	990.884	-51.69083	-1.713563E-007	0.0006862	8
	45	137	9.450605	655.6317	-956.258	1	1159.432	-55.56461	-1.055565E-007	0.0006375	8
	46	139	7.512019	703.2346	-1165.803	1	1361.483	-58.90083	-1.284161E-007	0.00064	8
	47	142	5.978954	762.6867	-1421.172	1	1612.892	-61.77931	-5.470843E-008	0.0006427	8
	48	145	4.734848	837.2061	-1741.597	1	1932.375	-64.32587	-8.268892E-008	0.0006068	8
	49	148	3.75601	932.4313	-2131.143	1	2326.198	-66.36935	-5.516469E-008	0.0006722	8
	50	152	3.004808	1047.203	-2587.227	1	2791.125	-67.96392	-7.059742E-008	0.0006501	8
	51	155	2.372217	1208.327	-3172.994	1	3395.283	-69.15237	-6.893695E-008	0.0005874	8
	52	159	1.878005	1407.791	-3888.869	1	4135.84	-70.09947	-3.993542E-008	0.0006356	8
	53	164	1.512097	1640.905	-4684.514	1	4963.591	-70.69552	-3.123227E-008	0.0006705	7
	54	170	1.201923	1966.996	-5697.757	1	6027.729	-70.95415	-1.458847E-008	0.0006212	7
	55	176	0.956633	2364.898	-6895.19	1	7289.471	-71.06917	-5.163484E-008	-1.918029E-005	7
