EXPLAIN
TAG	EISPOT
TITLE	LABEL	Potentiostatic EIS	Test Identifier
DATE	LABEL	9/1/2020	Date
TIME	LABEL	2:00:00	Time
NOTES	NOTES	1	Notes...
	
PSTAT	PSTAT	REF3000-16137	Potentiostat
VDC	POTEN	0.00000E+000	T	DC Voltage (V)
FREQINIT	QUANT	3.00000E+005	Initial Freq. (Hz)
FREQFINAL	QUANT	1.00000E+000	Final Freq. (Hz)
PTSPERDEC	QUANT	1.00000E+001	Points/decade
VAC	QUANT	5.00000E+001	AC Voltage (mV rms)
AREA	QUANT	1.00000E+000	Sample Area (cm^2)
SPEED	SELECTOR	2	Optimize for:
ZGUESS	QUANT	1.00000E+003	Estimated Z (ohms)
EOC	QUANT	0	Open Circuit (V)
SEQUENCER	TOGGLE	TRUE	Run as Sequence
PSTATMODEL	IQUANT	5	Pstat Model
PSTATSECTION	LABEL	REF3000-16137	Pstat Section
PSTATSERIALNO	LABEL	16137	Pstat Serial Number
CTRLMODE	IQUANT	1	Control Mode
IESTAB	IQUANT	0	I/E Stability
CASPEED	IQUANT	1	Control Amp Speed
CONVENTION	IQUANT	1	Current Convention
ICHRANGE	IQUANT	2	Ich Range
ICHRANGEMODE	TOGGLE	F	Ich Auto Range
ICHOFFSETENABLE	TOGGLE	T	Ich Offset Enable
ICHOFFSET	QUANT	0	Ich Offset (V)
ICHFILTER	IQUANT	3	Ich Filter
VCHRANGE	IQUANT	2	Vch Range
VCHRANGEMODE	TOGGLE	F	Vch Auto Range
VCHOFFSETENABLE	TOGGLE	T	Vch Offset Enable
VCHOFFSET	QUANT	0	Vch Offset (V)
VCHFILTER	IQUANT	3	Vch Filter
ACHRANGE	IQUANT	2	Ach Range
ACHOFFSETENABLE	TOGGLE	F	Ach Offset Enable
ACHOFFSET	QUANT	0	Ach Offset (V)
ACHFILTER	IQUANT	3	Ach Filter
IERANGELOWERLIMIT	IQUANT	2	I/E Range Lower Limit
IERANGEMODE	TOGGLE	F	I/E AutoRange
IERANGE	IQUANT	11	I/E Range
POSFEEDENABLE	TOGGLE	F	Positive Feedback IR Comp
POSFEEDRESISTANCE	QUANT	0	Positive Feedback Resistance (ohm)
ACHSELECT	IQUANT	0	Ach Select
CABLEID	IQUANT	13	Cable ID
DCCALDATE	LABEL	7/31/2020	DC Calibration Date
ACCALDATE	LABEL	7/31/2020	AC Calibration Date
THERMOSELECT	IQUANT	1	Thermo Select
FRAMEWORKVERSION	QUANT	6.33	Framework Version
INSTRUMENTVERSION	LABEL	3.50	Instrument Version
COMPLIANCEVOLTAGE	IQUANT	0	Compliance Voltage
ZCURVE	TABLE
	Pt	Time	Freq	Zreal	Zimag	Zsig	Zmod	Zphz	Idc	Vdc	IERange
	#	s	Hz	ohm	ohm	V	ohm	°	A	V	#
	0	23	300046.9	114.2648	-4005.923	1	4007.552	-88.36614	-1.250883E-007	0.0015343	9
	1	37	238359.4	150.0573	-4937.938	1	4940.218	-88.25939	7.971944E-005	-0.0016502	9
	2	51	189328.1	288.3793	-6129.407	1	6136.187	-87.3063	4.964829E-005	0.000139	9
	3	59	150421.9	495.2059	-7718.542	1	7734.411	-86.32905	-0.0001075	0.0037771	9
	4	68	119484.4	616.9948	-9590.08	1	9609.91	-86.31885	2.706639E-005	-0.0014298	9
	5	80	94921.88	937.2922	-12014.12	1	12050.62	-85.53905	-2.70072E-005	0.0009465	9
	6	89	75421.88	1713.93	-15022.83	1	15120.29	-83.49136	-1.519702E-006	-0.0050558	8
	7	98	59859.37	2631.811	-18655.27	1	18840	-81.96993	-1.176031E-005	0.0102883	8
	8	106	47578.12	6086.683	-23995.9	1	24755.83	-75.76682	5.539991E-007	0.0154961	7
	9	112	37828.12	4616.805	-28768.23	1	29136.33	-80.88275	2.607931E-005	-0.0090572	8
	10	121	30046.88	6546.375	-36015.32	1	36605.44	-79.69802	7.699547E-006	-0.0076518	8
	11	130	23859.38	8941.645	-44268.5	1	45162.52	-78.58066	2.749072E-005	-0.0075326	8
	12	137	18984.38	14008.89	-53098.06	1	54914.96	-75.22041	2.7193E-005	-0.0075464	8
	13	143	15046.87	18441.77	-66801.21	1	69300.08	-74.5668	-2.485101E-005	0.0112067	8
	14	150	11953.13	31511.84	-80002.78	1	85985.12	-68.5013	4.823609E-006	-0.0257505	7
	15	156	9515.62	44117.91	-93956.78	1	103799.2	-64.84734	-1.151773E-006	-0.0123866	7
	16	163	7546.875	66354.36	-109347.7	1	127905.5	-58.74979	5.009009E-006	-0.0008307	7
	17	169	5928.309	81979.84	-121413.4	1	146498.9	-55.9723	5.60197E-007	0.015529	7
	18	176	4733.456	131591.3	-130793.3	1	185534.8	-44.82576	4.247944E-007	0.0016484	6
	19	180	3796.875	157946.9	-135822.2	1	208314.4	-40.69302	6.231037E-007	-0.0079626	6
	20	184	2987.132	186946.7	-135498.7	1	230887.3	-35.93455	-6.596729E-007	0.0254966	6
	21	189	2390.625	212423.7	-132566.5	1	250395.1	-31.9669	1.680255E-007	-0.0207877	6
	22	193	1884.191	241059.4	-143340.9	1	280457.2	-30.73694	7.394401E-006	-0.0183266	7
	23	199	1516.544	217608.2	-95953.7	1	237824.4	-23.79494	-9.705068E-006	-0.0021021	8
	24	208	1193.986	301859.3	-109112	1	320974.2	-19.87322	5.154253E-006	-0.0261123	7
	25	216	946.5144	262327.8	-84404.83	1	275572.2	-17.83575	-6.307249E-006	0.0252001	7
	26	221	751.7689	297124	-216461.2	1	367611.4	-36.07414	-5.268862E-006	0.003765	7
	27	227	597.4265	275800.5	-32046.65	1	277656.1	-6.627763	-1.716371E-006	0.0213777	7
	28	231	477.4305	330900.1	-97580.6	1	344988.2	-16.4305	-8.373673E-008	0.0006667	7
	29	235	376.6741	345210.6	-91546.61	1	357143	-14.85243	-9.15984E-009	0.0006767	6
	30	237	298.2954	354728.1	-92759.64	1	366655.6	-14.65442	-8.119519E-009	0.0006416	6
	31	239	237.7717	397594.3	-73401.27	1	404312.9	-10.4598	-8.906882E-010	0.0006026	5
	32	242	189.0121	405091.3	-82744.85	1	413455.8	-11.54455	-1.039452E-009	0.0006003	5
	33	244	150.2404	415949.1	-93572.43	1	426344.3	-12.67827	-9.478739E-010	0.0006916	5
	34	247	119.1737	433087	-92751.54	1	442907.7	-12.08808	-9.617537E-010	0.0006449	5
	35	249	95.0169	438123.9	-121347.9	1	454618.4	-15.48122	-9.824329E-010	0.0006413	5
	36	252	75.60484	453876.8	-139711.4	1	474893.1	-17.1093	-8.440144E-010	0.0006904	5
	37	255	54.50582	477854.1	-174361.1	1	508671.2	-20.0462	-8.910477E-010	0.0005971	5
	38	257	45.95588	493825.8	-184182.6	1	527055.2	-20.45404	-9.054242E-010	0.000686	5
	39	260	37.20238	514822.5	-208502.9	1	555441.8	-22.04793	-9.559659E-010	0.0006532	5
	40	262	30.04808	538102.1	-237023.6	1	587991.6	-23.77257	-8.558304E-010	0.000598	5
	41	265	23.91582	564610.6	-270063.8	1	625875	-25.56266	-1.074346E-009	0.0006228	5
	42	268	18.60119	605660.8	-309486.7	1	680152.3	-27.06659	-2.197332E-010	0.0006801	5
	43	270	15.02404	634110.4	-356558.5	1	727481.9	-29.34892	-7.544421E-010	0.0006572	5
	44	272	12.01923	672691.2	-407109.4	1	786289.7	-31.18212	-5.960231E-010	0.0006496	5
	45	275	9.450605	721283.8	-471547.7	1	861746.8	-33.17512	-6.96855E-010	0.0006131	5
	46	278	7.512019	773590.9	-543774	1	945586.1	-35.10423	-7.476728E-010	0.0006177	5
	47	281	5.978954	836754.6	-626741.9	1	1045449	-36.83377	-9.555454E-010	0.000691	5
	48	285	4.734848	909723.8	-726554.1	1	1164250	-38.61274	-7.912762E-010	0.0006315	5
	49	289	3.75601	997437	-840593.3	1	1304407	-40.12261	-8.487577E-010	0.0006221	5
	50	294	3.004808	1096705	-968850	1	1463363	-41.45801	-7.757757E-010	0.0005654	5
	51	301	2.372217	1221580	-1125647	1	1661126	-42.65958	-9.489566E-010	0.0005639	5
	52	305	1.878005	1364135	-1304639	1	1887577	-43.7229	-8.407931E-010	0.0006547	5
	53	310	1.512097	1524177	-1490773	1	2132023	-44.36522	-8.428194E-010	0.0005666	5
	54	315	1.201923	1731311	-1719269	1	2439944	-44.80005	-9.072764E-010	0.0006756	5
	55	321	0.956633	1980618	-1970649	1	2793977	-44.85545	-1.079809E-009	7.709593E-006	5
