EXPLAIN
TAG	EISPOT
TITLE	LABEL	Potentiostatic EIS	Test Identifier
DATE	LABEL	9/1/2020	Date
TIME	LABEL	1:08:00	Time
NOTES	NOTES	1	Notes...
	
PSTAT	PSTAT	REF3000-16137	Potentiostat
VDC	POTEN	0.00000E+000	T	DC Voltage (V)
FREQINIT	QUANT	3.00000E+005	Initial Freq. (Hz)
FREQFINAL	QUANT	1.00000E+000	Final Freq. (Hz)
PTSPERDEC	QUANT	1.00000E+001	Points/decade
VAC	QUANT	5.00000E+001	AC Voltage (mV rms)
AREA	QUANT	1.00000E+000	Sample Area (cm^2)
SPEED	SELECTOR	2	Optimize for:
ZGUESS	QUANT	1.00000E+003	Estimated Z (ohms)
EOC	QUANT	0	Open Circuit (V)
SEQUENCER	TOGGLE	TRUE	Run as Sequence
PSTATMODEL	IQUANT	5	Pstat Model
PSTATSECTION	LABEL	REF3000-16137	Pstat Section
PSTATSERIALNO	LABEL	16137	Pstat Serial Number
CTRLMODE	IQUANT	1	Control Mode
IESTAB	IQUANT	0	I/E Stability
CASPEED	IQUANT	1	Control Amp Speed
CONVENTION	IQUANT	1	Current Convention
ICHRANGE	IQUANT	2	Ich Range
ICHRANGEMODE	TOGGLE	F	Ich Auto Range
ICHOFFSETENABLE	TOGGLE	T	Ich Offset Enable
ICHOFFSET	QUANT	0	Ich Offset (V)
ICHFILTER	IQUANT	3	Ich Filter
VCHRANGE	IQUANT	2	Vch Range
VCHRANGEMODE	TOGGLE	F	Vch Auto Range
VCHOFFSETENABLE	TOGGLE	T	Vch Offset Enable
VCHOFFSET	QUANT	0	Vch Offset (V)
VCHFILTER	IQUANT	3	Vch Filter
ACHRANGE	IQUANT	2	Ach Range
ACHOFFSETENABLE	TOGGLE	F	Ach Offset Enable
ACHOFFSET	QUANT	0	Ach Offset (V)
ACHFILTER	IQUANT	3	Ach Filter
IERANGELOWERLIMIT	IQUANT	2	I/E Range Lower Limit
IERANGEMODE	TOGGLE	F	I/E AutoRange
IERANGE	IQUANT	11	I/E Range
POSFEEDENABLE	TOGGLE	F	Positive Feedback IR Comp
POSFEEDRESISTANCE	QUANT	0	Positive Feedback Resistance (ohm)
ACHSELECT	IQUANT	0	Ach Select
CABLEID	IQUANT	13	Cable ID
DCCALDATE	LABEL	7/31/2020	DC Calibration Date
ACCALDATE	LABEL	7/31/2020	AC Calibration Date
THERMOSELECT	IQUANT	1	Thermo Select
FRAMEWORKVERSION	QUANT	6.33	Framework Version
INSTRUMENTVERSION	LABEL	3.50	Instrument Version
COMPLIANCEVOLTAGE	IQUANT	0	Compliance Voltage
ZCURVE	TABLE
	Pt	Time	Freq	Zreal	Zimag	Zsig	Zmod	Zphz	Idc	Vdc	IERange
	#	s	Hz	ohm	ohm	V	ohm	°	A	V	#
	0	22	300046.9	622.9219	-145.6216	1	639.7166	-13.15785	-6.715588E-006	-0.0018801	9
	1	36	238359.4	653.6783	-127.3428	1	665.9666	-11.0237	2.724304E-005	-0.0019259	9
	2	52	189328.1	677.4929	-111.9693	1	686.6832	-9.384447	-1.524446E-005	0.001456	9
	3	63	150421.9	693.6554	-93.70597	1	699.9562	-7.693517	-1.613891E-005	0.0015651	9
	4	68	119484.4	715.2279	-55.97446	1	717.4149	-4.474905	6.345822E-006	-0.0099446	8
	5	73	94921.88	720.9213	-45.06635	1	722.3285	-3.577028	-1.358235E-005	0.001766	8
	6	75	75421.88	725.9955	-37.03392	1	726.9395	-2.920197	-5.112518E-006	-0.0021515	8
	7	78	59859.37	730.8533	-30.94978	1	731.5084	-2.424882	-1.761943E-005	0.004951	8
	8	80	47578.12	734.5248	-28.00024	1	735.0583	-2.18307	1.369423E-005	-0.0065683	8
	9	83	37828.12	738.2931	-23.76255	1	738.6754	-1.843474	1.320112E-005	-0.0061776	8
	10	85	30046.88	742.7753	-20.24323	1	743.0511	-1.561124	-4.491432E-006	-0.0022151	8
	11	88	23859.38	747.9987	-16.9383	1	748.1905	-1.297231	2.410097E-006	-0.0042574	8
	12	90	18984.38	751.1592	-16.4362	1	751.3391	-1.253496	1.65519E-005	-0.0061515	8
	13	93	15046.87	754.7695	-13.3248	1	754.8871	-1.011402	2.598508E-006	-0.0042183	8
	14	95	11953.13	759.0643	-14.59026	1	759.2045	-1.101168	-1.330481E-005	0.0017808	8
	15	98	9515.62	764.2253	-14.61906	1	764.3651	-1.095892	1.804648E-005	-0.0029182	8
	16	100	7546.875	767.7494	-13.44568	1	767.8671	-1.003325	-1.018717E-005	0.0071079	8
	17	103	5928.309	774.8932	-12.94563	1	775.0014	-0.957114	-1.115467E-005	0.0077048	8
	18	106	4733.456	777.8002	-17.01426	1	777.9863	-1.253136	-1.423045E-005	0.0020108	8
	19	108	3796.875	787.2327	-16.87713	1	787.4136	-1.22815	-9.741208E-006	-5.920642E-005	8
	20	110	2987.132	786.2535	-19.19625	1	786.4878	-1.398589	-1.861928E-005	0.0062893	8
	21	113	2390.625	795.3221	-24.10894	1	795.6875	-1.7363	9.92103E-006	0.0018898	8
	22	116	1884.191	798.9069	-23.87345	1	799.2635	-1.71164	-4.901126E-006	0.006482	8
	23	118	1516.544	804.4803	-26.83007	1	804.9276	-1.910153	-1.769117E-005	0.0073194	8
	24	121	1193.986	813.6988	-30.63842	1	814.2754	-2.156354	-1.809102E-005	0.0049574	8
	25	124	946.5144	819.585	-34.30439	1	820.3026	-2.396762	1.532206E-005	-0.0009287	8
	26	126	751.7689	827.8152	-34.77397	1	828.5452	-2.405406	9.124312E-006	0.0018967	8
	27	129	597.4265	830.6328	-41.3372	1	831.6608	-2.849026	1.820527E-006	0.0046362	8
	28	132	477.4305	840.7549	-48.89116	1	842.1753	-3.328087	-1.378656E-007	0.0006425	8
	29	134	376.6741	848.2348	-56.73161	1	850.1298	-3.826356	-1.296023E-007	0.0006294	8
	30	136	298.2954	855.9728	-66.21704	1	858.5302	-4.423524	-1.2232E-007	0.0006318	8
	31	139	237.7717	864.0778	-77.49252	1	867.5457	-5.124709	-1.29093E-007	0.0006341	8
	32	141	189.0121	872.5898	-91.53158	1	877.3774	-5.988225	-1.526342E-007	0.000637	8
	33	143	150.2404	881.6583	-108.8505	1	888.3523	-7.038184	-1.465799E-007	0.0006462	8
	34	146	119.1737	891.4987	-130.1583	1	900.9501	-8.306461	-1.416882E-007	0.0006383	8
	35	148	95.0169	901.8861	-156.4259	1	915.3511	-9.83967	-1.680455E-007	0.0006447	8
	36	151	75.60484	913.9186	-188.7847	1	933.2132	-11.67122	-1.683827E-007	0.0006347	8
	37	153	54.50582	932.2767	-248.1934	1	964.749	-14.90768	-1.691559E-007	0.0006641	8
	38	156	45.95588	945.4227	-287.0056	1	988.026	-16.88692	-1.422285E-007	0.0006386	8
	39	158	37.20238	962.893	-343.539	1	1022.341	-19.63528	-1.641657E-007	0.0006378	8
	40	160	30.04808	983.737	-411.9949	1	1066.526	-22.72423	-1.052349E-007	0.0006375	8
	41	163	23.91582	1009.66	-500.0496	1	1126.705	-26.34761	-2.176667E-007	0.0006625	8
	42	165	18.60119	1043.892	-619.29	1	1213.767	-30.67858	-2.186201E-008	0.0006377	8
	43	167	15.02404	1078.658	-741.0151	1	1308.666	-34.48824	-2.276269E-007	0.0006482	8
	44	170	12.01923	1120.735	-894.2625	1	1433.79	-38.58723	-1.417612E-007	0.0006544	8
	45	172	9.450605	1174.522	-1094.644	1	1605.536	-42.98395	-2.30332E-007	0.0006686	8
	46	175	7.512019	1234.447	-1329.238	1	1814.038	-47.11752	-2.207657E-007	0.0006321	8
	47	177	5.978954	1307.225	-1614.214	1	2077.143	-50.9987	-1.685281E-007	0.0006443	8
	48	180	4.734848	1396.134	-1969.652	1	2414.274	-54.67012	-1.841418E-007	0.0006229	8
	49	184	3.75601	1504.426	-2405.868	1	2837.516	-57.98164	-1.484511E-007	0.0006266	8
	50	187	3.004808	1631.672	-2914.204	1	3339.901	-60.75541	-1.059691E-007	0.0005964	8
	51	191	2.372217	1796.321	-3576.342	1	4002.123	-63.33059	-1.636024E-007	0.0006014	8
	52	195	1.878005	2016.862	-4387.566	1	4828.92	-65.31286	-5.160993E-008	0.0006218	7
	53	200	1.512097	2267.973	-5290.857	1	5756.463	-66.79717	-4.514609E-008	0.0005028	7
	54	205	1.201923	2600.127	-6455.088	1	6959.083	-68.06029	-5.168467E-008	0.0006312	7
	55	212	0.956633	3017.912	-7848.139	1	8408.393	-68.96632	-5.562211E-008	-3.183386E-005	7
