EXPLAIN
TAG	EISPOT
TITLE	LABEL	Potentiostatic EIS	Test Identifier
DATE	LABEL	9/1/2020	Date
TIME	LABEL	2:11:07	Time
NOTES	NOTES	1	Notes...
	
PSTAT	PSTAT	REF3000-16137	Potentiostat
VDC	POTEN	0.00000E+000	T	DC Voltage (V)
FREQINIT	QUANT	3.00000E+005	Initial Freq. (Hz)
FREQFINAL	QUANT	1.00000E+000	Final Freq. (Hz)
PTSPERDEC	QUANT	1.00000E+001	Points/decade
VAC	QUANT	5.00000E+001	AC Voltage (mV rms)
AREA	QUANT	1.00000E+000	Sample Area (cm^2)
SPEED	SELECTOR	2	Optimize for:
ZGUESS	QUANT	1.00000E+003	Estimated Z (ohms)
EOC	QUANT	0	Open Circuit (V)
SEQUENCER	TOGGLE	TRUE	Run as Sequence
PSTATMODEL	IQUANT	5	Pstat Model
PSTATSECTION	LABEL	REF3000-16137	Pstat Section
PSTATSERIALNO	LABEL	16137	Pstat Serial Number
CTRLMODE	IQUANT	1	Control Mode
IESTAB	IQUANT	0	I/E Stability
CASPEED	IQUANT	1	Control Amp Speed
CONVENTION	IQUANT	1	Current Convention
ICHRANGE	IQUANT	2	Ich Range
ICHRANGEMODE	TOGGLE	F	Ich Auto Range
ICHOFFSETENABLE	TOGGLE	T	Ich Offset Enable
ICHOFFSET	QUANT	0	Ich Offset (V)
ICHFILTER	IQUANT	3	Ich Filter
VCHRANGE	IQUANT	2	Vch Range
VCHRANGEMODE	TOGGLE	F	Vch Auto Range
VCHOFFSETENABLE	TOGGLE	T	Vch Offset Enable
VCHOFFSET	QUANT	0	Vch Offset (V)
VCHFILTER	IQUANT	3	Vch Filter
ACHRANGE	IQUANT	2	Ach Range
ACHOFFSETENABLE	TOGGLE	F	Ach Offset Enable
ACHOFFSET	QUANT	0	Ach Offset (V)
ACHFILTER	IQUANT	3	Ach Filter
IERANGELOWERLIMIT	IQUANT	2	I/E Range Lower Limit
IERANGEMODE	TOGGLE	F	I/E AutoRange
IERANGE	IQUANT	11	I/E Range
POSFEEDENABLE	TOGGLE	F	Positive Feedback IR Comp
POSFEEDRESISTANCE	QUANT	0	Positive Feedback Resistance (ohm)
ACHSELECT	IQUANT	0	Ach Select
CABLEID	IQUANT	13	Cable ID
DCCALDATE	LABEL	7/31/2020	DC Calibration Date
ACCALDATE	LABEL	7/31/2020	AC Calibration Date
THERMOSELECT	IQUANT	1	Thermo Select
FRAMEWORKVERSION	QUANT	6.33	Framework Version
INSTRUMENTVERSION	LABEL	3.50	Instrument Version
COMPLIANCEVOLTAGE	IQUANT	0	Compliance Voltage
ZCURVE	TABLE
	Pt	Time	Freq	Zreal	Zimag	Zsig	Zmod	Zphz	Idc	Vdc	IERange
	#	s	Hz	ohm	ohm	V	ohm	°	A	V	#
	0	16	300046.9	2.832363	-4070.191	1	4070.192	-89.96013	9.032385E-005	-0.0036672	9
	1	37	238359.4	148.0821	-5012.782	1	5014.968	-88.30792	2.347778E-005	-0.0004273	9
	2	55	189328.1	300.2028	-6220.03	1	6227.271	-87.23683	-2.223051E-005	0.0015238	9
	3	62	150421.9	306.9943	-7824.744	1	7830.764	-87.75322	8.411644E-005	-0.0033846	9
	4	75	119484.4	415.4629	-9822.65	1	9831.43	-87.57803	2.247443E-005	-0.0146565	8
	5	82	94921.88	744.3946	-12190.42	1	12213.13	-86.50564	-1.897989E-006	0.0077719	8
	6	91	75421.88	897.478	-15325.33	1	15351.58	-86.64848	-1.318712E-006	-0.0050751	8
	7	99	59859.37	803.8787	-19297.44	1	19314.17	-87.61459	2.253859E-005	-0.0097449	8
	8	108	47578.12	4115.375	-25223.94	1	25557.46	-80.73363	-6.383655E-006	0.0254947	7
	9	115	37828.12	2005.036	-29896.63	1	29963.79	-86.16317	8.571693E-006	0.0040031	8
	10	124	30046.88	2907.91	-38110.94	1	38221.71	-85.63672	2.343283E-005	-0.0029052	8
	11	132	23859.38	2714.333	-46220.4	1	46300.03	-86.63911	-9.645162E-006	-0.0021365	8
	12	140	18984.38	7389.521	-59637.32	1	60093.39	-82.93661	2.857343E-006	0.0076624	7
	13	145	15046.87	9779.45	-75085.6	1	75719.78	-82.57934	6.613066E-006	-0.0265951	7
	14	151	11953.13	11278.21	-92266.82	1	92953.56	-83.03104	-6.544278E-006	0.0119096	7
	15	156	9515.62	15907.15	-117274.8	1	118348.7	-82.27554	3.037713E-006	0.0077035	7
	16	162	7546.875	23195.38	-145642.6	1	147478.2	-80.95094	6.697268E-006	-0.0266847	7
	17	169	5928.309	35280.22	-183107.2	1	186475.1	-79.09417	2.818697E-006	0.007894	7
	18	174	4733.456	35159.8	-232008.7	1	234657.7	-81.38267	5.154387E-006	-0.026126	7
	19	180	3796.875	55166.98	-310900.9	1	315757.4	-79.93803	7.299203E-006	-0.0178198	7
	20	187	2987.132	61413.9	-329902.5	1	335570.1	-79.45466	-6.641767E-006	0.0121984	7
	21	194	2390.625	159672.1	-460572.8	1	487465.3	-70.87952	5.289002E-007	0.0155429	7
	22	201	1884.191	237497.7	-492230.7	1	546531.1	-64.24303	-4.831392E-007	0.0016558	6
	23	207	1516.544	317014.4	-582158.8	1	662877.8	-61.42951	-6.357773E-007	0.0100804	6
	24	212	1193.986	423199.8	-676968	1	798363.1	-57.98885	7.053982E-007	-0.0264629	6
	25	218	946.5144	514328.4	-826147.2	1	973166	-58.09515	-6.645782E-007	0.0254653	6
	26	222	751.7689	637973.4	-373706.4	1	739369	-30.36054	5.428896E-007	0.0156502	7
	27	228	597.4265	645452.2	-416152.8	1	767978.9	-32.81174	-5.372953E-006	0.0040109	7
	28	234	477.4305	1038277	-858063	1	1346957	-39.57133	-8.497926E-008	0.0006634	7
	29	240	376.6741	1372948	-733991.9	1	1556833	-28.12942	-9.288343E-010	0.0006879	5
	30	243	298.2954	1495042	-689252.1	1	1646274	-24.7509	-8.092518E-010	0.0005955	5
	31	246	237.7717	1598243	-633369.1	1	1719167	-21.61797	-9.056386E-010	0.0006872	5
	32	249	189.0121	1691146	-601495.1	1	1794930	-19.5791	-7.867423E-010	0.000594	5
	33	251	150.2404	1765878	-555674.1	1	1851242	-17.46738	-8.894485E-010	0.00064	5
	34	254	119.1737	1876033	-644497.7	1	1983653	-18.95979	-8.849503E-010	0.0006291	5
	35	257	95.0169	1901974	-525556.1	1	1973250	-15.44661	-8.589572E-010	0.0006084	5
	36	260	75.60484	1973837	-530439.4	1	2043868	-15.04201	-8.388422E-010	0.0006733	5
	37	263	54.50582	2053858	-544115	1	2124711	-14.83812	-8.523725E-010	0.0006741	5
	38	266	45.95588	2114309	-553056	1	2185446	-14.65885	-9.220112E-010	0.0006646	5
	39	269	37.20238	2178724	-597803	1	2259249	-15.34334	-8.263904E-010	0.0006831	5
	40	271	30.04808	2237591	-641439.6	1	2327715	-15.99576	-8.301406E-010	0.0006706	5
	41	274	23.91582	2310980	-707042.2	1	2416720	-17.01144	-9.810233E-010	0.0006866	5
	42	277	18.60119	2403673	-828500.6	1	2542451	-19.01811	-8.245514E-009	0.000648	6
	43	280	15.02404	2497791	-898508.1	1	2654482	-19.78473	-8.118239E-009	0.000603	6
	44	284	12.01923	2621079	-1018204	1	2811902	-21.22954	-8.22525E-009	0.000645	6
	45	288	9.450605	2782893	-1135041	1	3005463	-22.18876	-7.444151E-010	0.0006322	5
	46	292	7.512019	2920511	-1307980	1	3200031	-24.12569	-8.650336E-009	0.0006761	6
	47	296	5.978954	3116789	-1473051	1	3447354	-25.29627	-7.588216E-010	0.0005951	5
	48	302	4.734848	3334262	-1685448	1	3736046	-26.8163	-7.741127E-010	0.0006746	5
	49	308	3.75601	3739615	-1847076	1	4170900	-26.28575	-3.523571E-011	0.0006707	4
	50	313	3.004808	3984353	-2118728	1	4512658	-28.00235	-6.243916E-011	0.000711	4
	51	320	2.372217	4280673	-2443713	1	4929086	-29.72081	1.770567E-012	0.0007057	4
	52	324	1.878005	4587120	-2816797	1	5382938	-31.55269	-2.449901E-011	0.0006189	4
	53	329	1.512097	4915406	-3219626	1	5875985	-33.22509	-4.066932E-011	0.000743	4
	54	334	1.201923	5320908	-3733677	1	6500185	-35.05731	-6.934741E-012	0.0006259	4
	55	340	0.956633	5776524	-4328222	1	7218153	-36.84341	-1.096808E-010	7.486756E-006	4
