EXPLAIN
TAG	EISPOT
TITLE	LABEL	Potentiostatic EIS	Test Identifier
DATE	LABEL	9/1/2020	Date
TIME	LABEL	2:05:31	Time
NOTES	NOTES	1	Notes...
	
PSTAT	PSTAT	REF3000-16137	Potentiostat
VDC	POTEN	0.00000E+000	T	DC Voltage (V)
FREQINIT	QUANT	3.00000E+005	Initial Freq. (Hz)
FREQFINAL	QUANT	1.00000E+000	Final Freq. (Hz)
PTSPERDEC	QUANT	1.00000E+001	Points/decade
VAC	QUANT	5.00000E+001	AC Voltage (mV rms)
AREA	QUANT	1.00000E+000	Sample Area (cm^2)
SPEED	SELECTOR	2	Optimize for:
ZGUESS	QUANT	1.00000E+003	Estimated Z (ohms)
EOC	QUANT	0	Open Circuit (V)
SEQUENCER	TOGGLE	TRUE	Run as Sequence
PSTATMODEL	IQUANT	5	Pstat Model
PSTATSECTION	LABEL	REF3000-16137	Pstat Section
PSTATSERIALNO	LABEL	16137	Pstat Serial Number
CTRLMODE	IQUANT	1	Control Mode
IESTAB	IQUANT	0	I/E Stability
CASPEED	IQUANT	1	Control Amp Speed
CONVENTION	IQUANT	1	Current Convention
ICHRANGE	IQUANT	2	Ich Range
ICHRANGEMODE	TOGGLE	F	Ich Auto Range
ICHOFFSETENABLE	TOGGLE	T	Ich Offset Enable
ICHOFFSET	QUANT	0	Ich Offset (V)
ICHFILTER	IQUANT	3	Ich Filter
VCHRANGE	IQUANT	2	Vch Range
VCHRANGEMODE	TOGGLE	F	Vch Auto Range
VCHOFFSETENABLE	TOGGLE	T	Vch Offset Enable
VCHOFFSET	QUANT	0	Vch Offset (V)
VCHFILTER	IQUANT	3	Vch Filter
ACHRANGE	IQUANT	2	Ach Range
ACHOFFSETENABLE	TOGGLE	F	Ach Offset Enable
ACHOFFSET	QUANT	0	Ach Offset (V)
ACHFILTER	IQUANT	3	Ach Filter
IERANGELOWERLIMIT	IQUANT	2	I/E Range Lower Limit
IERANGEMODE	TOGGLE	F	I/E AutoRange
IERANGE	IQUANT	11	I/E Range
POSFEEDENABLE	TOGGLE	F	Positive Feedback IR Comp
POSFEEDRESISTANCE	QUANT	0	Positive Feedback Resistance (ohm)
ACHSELECT	IQUANT	0	Ach Select
CABLEID	IQUANT	13	Cable ID
DCCALDATE	LABEL	7/31/2020	DC Calibration Date
ACCALDATE	LABEL	7/31/2020	AC Calibration Date
THERMOSELECT	IQUANT	1	Thermo Select
FRAMEWORKVERSION	QUANT	6.33	Framework Version
INSTRUMENTVERSION	LABEL	3.50	Instrument Version
COMPLIANCEVOLTAGE	IQUANT	0	Compliance Voltage
ZCURVE	TABLE
	Pt	Time	Freq	Zreal	Zimag	Zsig	Zmod	Zphz	Idc	Vdc	IERange
	#	s	Hz	ohm	ohm	V	ohm	°	A	V	#
	0	21	300046.9	49.69618	-4043.436	1	4043.741	-89.29584	-1.750554E-005	0.0014471	9
	1	37	238359.4	170.3498	-5002.958	1	5005.858	-88.04984	1.551442E-006	0.0016086	9
	2	51	189328.1	258.9253	-6200.411	1	6205.815	-87.60875	8.293281E-005	-0.0034125	9
	3	59	150421.9	266.088	-7908.861	1	7913.336	-88.07305	-2.761408E-005	-0.0010331	9
	4	68	119484.4	704.8745	-9801.24	1	9826.55	-85.88655	5.057402E-005	-0.002357	8
	5	75	94921.88	941.6638	-12147.67	1	12184.11	-85.56741	7.484533E-006	-0.0075886	8
	6	84	75421.88	1274.188	-15105.92	1	15159.56	-85.1785	-2.067911E-005	0.0028623	8
	7	93	59859.37	1336.518	-19015.09	1	19062	-85.97945	2.343739E-005	-0.0029195	8
	8	101	47578.12	4961.05	-24806.24	1	25297.46	-78.69051	-3.3815E-006	-0.0046095	7
	9	109	37828.12	5747.309	-30700.25	1	31233.59	-79.39655	3.3388E-006	-0.0237304	7
	10	116	30046.88	3703.481	-37787.3	1	37968.35	-84.4024	-2.073294E-005	0.0030043	8
	11	125	23859.38	7069.078	-47635.35	1	48157.02	-81.55892	2.253818E-005	-0.0097172	8
	12	131	18984.38	8998.547	-56784.93	1	57493.49	-80.99538	1.769934E-005	0.0002697	8
	13	138	15046.87	15159.52	-71756.25	1	73340.1	-78.07087	1.175862E-006	-0.0191418	7
	14	144	11953.13	20519.32	-90193.71	1	92498.37	-77.1832	5.171786E-006	-0.0260256	7
	15	150	9515.62	28250.59	-111163.2	1	114696.7	-75.74093	7.342173E-006	-0.0180293	7
	16	155	7546.875	39723.29	-132944.5	1	138752.3	-73.36407	-1.627771E-006	0.0210678	7
	17	160	5928.309	65142.46	-166893.4	1	179156.2	-68.67812	2.827873E-006	0.0078214	7
	18	166	4733.456	112957.8	-197552.1	1	227566	-60.23964	7.133416E-007	-0.015747	6
	19	171	3796.875	142969.5	-224090.8	1	265813.8	-57.46219	-5.167229E-008	-0.014457	6
	20	176	2987.132	264962.9	-376288.2	1	460215.3	-54.84876	-2.412707E-005	0.0053445	8
	21	183	2390.625	-75113.97	-207618	1	220788	-109.8896	-2.653208E-005	0.007775	8
	22	191	1884.191	266875	-154195.5	1	308218.3	-30.01854	2.62822E-005	-0.0051909	8
	23	200	1516.544	267214.5	-240664.8	1	359615.3	-42.00755	2.631485E-005	-0.0052498	8
	24	208	1193.986	166727.3	-173667.7	1	240745.6	-46.16806	-1.606324E-005	0.0006887	8
	25	217	946.5144	467013.9	-317825.8	1	564902.8	-34.2372	2.801419E-006	0.0079543	7
	26	223	751.7689	803696.6	532256.5	1	963963	33.51493	3.274771E-006	-0.0235097	7
	27	228	597.4265	399141.6	-294043.9	1	495757.8	-36.37873	5.205453E-006	-0.0261394	7
	28	234	477.4305	625328.9	-261538.2	1	677818.9	-22.69668	-8.563671E-008	0.0006484	7
	29	239	376.6741	734427.7	-180921.7	1	756383.9	-13.83891	-9.076283E-010	0.0006082	5
	30	241	298.2954	751526.6	-171370.4	1	770817.8	-12.8455	-8.315536E-010	0.0005938	5
	31	244	237.7717	767554.4	-168438.7	1	785818.9	-12.37728	-7.466001E-010	0.0005911	5
	32	246	189.0121	784694.6	-171594.8	1	803237.4	-12.3351	-9.190737E-010	0.0006269	5
	33	249	150.2404	803649.7	-182901.1	1	824200	-12.82144	-8.303989E-010	0.0005935	5
	34	252	119.1737	791017.6	-206528.7	1	817534.7	-14.63283	-8.435622E-010	0.0006471	5
	35	254	95.0169	849616.2	-206001.2	1	874233.5	-13.62914	-8.871002E-010	0.0007061	5
	36	257	75.60484	876220.4	-229389.2	1	905749.2	-14.67045	-8.578264E-010	0.0006187	5
	37	259	54.50582	908447	-272488.9	1	948433.5	-16.69663	-8.524478E-010	0.0005939	5
	38	262	45.95588	937010.4	-284322.3	1	979198	-16.87966	-9.328356E-010	0.0006999	5
	39	264	37.20238	971660	-316202.1	1	1021816	-18.02616	-8.949781E-010	0.0006895	5
	40	267	30.04808	1009472	-357951.7	1	1071057	-19.52416	-9.037451E-010	0.0006923	5
	41	270	23.91582	1055310	-407026.6	1	1131083	-21.09132	-1.01902E-009	0.0006906	5
	42	272	18.60119	1102253	-469090.7	1	1197918	-23.05337	-7.625776E-010	0.0005959	5
	43	275	15.02404	1162773	-523998.9	1	1275388	-24.25852	-9.317564E-010	0.000708	5
	44	277	12.01923	1224282	-594380.1	1	1360939	-25.89623	-6.831502E-010	0.0006215	5
	45	280	9.450605	1296183	-682543	1	1464908	-27.77035	-7.889749E-010	0.0006717	5
	46	283	7.512019	1377521	-780577.6	1	1583309	-29.53822	-7.926225E-010	0.0006156	5
	47	286	5.978954	1470028	-894536.4	1	1720807	-31.32121	-8.558323E-010	0.0006959	5
	48	290	4.734848	1573876	-1031384	1	1881711	-33.23741	-9.227467E-010	0.0006133	5
	49	294	3.75601	1694620	-1190734	1	2071131	-35.09401	-8.726131E-010	0.0005807	5
	50	300	3.004808	1834493	-1373622	1	2291768	-36.82495	-8.17403E-010	0.0005895	5
	51	306	2.372217	2000247	-1596183	1	2559060	-38.58961	-9.330824E-010	0.000695	5
	52	310	1.878005	2191844	-1859112	1	2874105	-40.30445	-9.90334E-010	0.0006309	5
	53	315	1.512097	2395472	-2138688	1	3211273	-41.75862	-9.558985E-010	0.0006267	5
	54	321	1.201923	2655839	-2485581	1	3637525	-43.10334	-9.440076E-010	0.0006246	5
	55	327	0.956633	2960619	-2882788	1	4132279	-44.23689	-9.979741E-010	8.577984E-006	5
