EXPLAIN
TAG	EISPOT
TITLE	LABEL	Potentiostatic EIS	Test Identifier
DATE	LABEL	9/1/2020	Date
TIME	LABEL	2:22:25	Time
NOTES	NOTES	1	Notes...
	
PSTAT	PSTAT	REF3000-16137	Potentiostat
VDC	POTEN	0.00000E+000	T	DC Voltage (V)
FREQINIT	QUANT	3.00000E+005	Initial Freq. (Hz)
FREQFINAL	QUANT	1.00000E+000	Final Freq. (Hz)
PTSPERDEC	QUANT	1.00000E+001	Points/decade
VAC	QUANT	5.00000E+001	AC Voltage (mV rms)
AREA	QUANT	1.00000E+000	Sample Area (cm^2)
SPEED	SELECTOR	2	Optimize for:
ZGUESS	QUANT	1.00000E+003	Estimated Z (ohms)
EOC	QUANT	0	Open Circuit (V)
SEQUENCER	TOGGLE	TRUE	Run as Sequence
PSTATMODEL	IQUANT	5	Pstat Model
PSTATSECTION	LABEL	REF3000-16137	Pstat Section
PSTATSERIALNO	LABEL	16137	Pstat Serial Number
CTRLMODE	IQUANT	1	Control Mode
IESTAB	IQUANT	0	I/E Stability
CASPEED	IQUANT	1	Control Amp Speed
CONVENTION	IQUANT	1	Current Convention
ICHRANGE	IQUANT	2	Ich Range
ICHRANGEMODE	TOGGLE	F	Ich Auto Range
ICHOFFSETENABLE	TOGGLE	T	Ich Offset Enable
ICHOFFSET	QUANT	0	Ich Offset (V)
ICHFILTER	IQUANT	3	Ich Filter
VCHRANGE	IQUANT	2	Vch Range
VCHRANGEMODE	TOGGLE	F	Vch Auto Range
VCHOFFSETENABLE	TOGGLE	T	Vch Offset Enable
VCHOFFSET	QUANT	0	Vch Offset (V)
VCHFILTER	IQUANT	3	Vch Filter
ACHRANGE	IQUANT	2	Ach Range
ACHOFFSETENABLE	TOGGLE	F	Ach Offset Enable
ACHOFFSET	QUANT	0	Ach Offset (V)
ACHFILTER	IQUANT	3	Ach Filter
IERANGELOWERLIMIT	IQUANT	2	I/E Range Lower Limit
IERANGEMODE	TOGGLE	F	I/E AutoRange
IERANGE	IQUANT	11	I/E Range
POSFEEDENABLE	TOGGLE	F	Positive Feedback IR Comp
POSFEEDRESISTANCE	QUANT	0	Positive Feedback Resistance (ohm)
ACHSELECT	IQUANT	0	Ach Select
CABLEID	IQUANT	13	Cable ID
DCCALDATE	LABEL	7/31/2020	DC Calibration Date
ACCALDATE	LABEL	7/31/2020	AC Calibration Date
THERMOSELECT	IQUANT	1	Thermo Select
FRAMEWORKVERSION	QUANT	6.33	Framework Version
INSTRUMENTVERSION	LABEL	3.50	Instrument Version
COMPLIANCEVOLTAGE	IQUANT	0	Compliance Voltage
ZCURVE	TABLE
	Pt	Time	Freq	Zreal	Zimag	Zsig	Zmod	Zphz	Idc	Vdc	IERange
	#	s	Hz	ohm	ohm	V	ohm	°	A	V	#
	0	14	300046.9	-9.81792	-4124.669	1	4124.681	-90.13638	1.220735E-006	-0.0021775	9
	1	28	238359.4	45.48727	-5038.075	1	5038.28	-89.4827	-1.385932E-006	-0.002032	9
	2	50	189328.1	131.0524	-6266.235	1	6267.605	-88.80189	8.302158E-005	-0.0034244	9
	3	57	150421.9	296.6118	-7923.852	1	7929.401	-87.85626	8.155275E-007	0.00174	9
	4	66	119484.4	119.8998	-9913.98	1	9914.7	-89.3071	2.011315E-005	-0.0020363	9
	5	75	94921.88	270.5328	-12506.83	1	12509.75	-88.76084	1.933655E-005	-0.0009626	9
	6	83	75421.88	589.7485	-15524.18	1	15535.38	-87.82443	2.334977E-005	-0.002828	8
	7	92	59859.37	778.3498	-19579.75	1	19595.22	-87.72353	1.607224E-005	-0.0092744	8
	8	100	47578.12	3579.108	-25651.37	1	25899.86	-82.05686	7.447804E-006	-0.018426	7
	9	107	37828.12	328.901	-30760.26	1	30762.02	-89.3874	-2.467463E-005	0.0110667	8
	10	115	30046.88	165.8883	-39216.39	1	39216.74	-89.75764	8.474986E-006	0.0041167	8
	11	124	23859.38	3834.098	-49350.32	1	49499.04	-85.55753	5.368769E-006	-0.026209	7
	12	129	18984.38	5000.394	-61669.75	1	61872.14	-85.3644	-7.282261E-006	0.0188865	7
	13	135	15046.87	5698.484	-76780.34	1	76991.52	-85.7554	7.390928E-006	-0.0185471	7
	14	140	11953.13	3429.224	-98091.6	1	98151.6	-87.99779	-7.259207E-006	0.0236443	7
	15	146	9515.62	3181.017	-121416.7	1	121458.4	-88.49924	2.865779E-006	0.0077511	7
	16	153	7546.875	7724.52	-150013.9	1	150212.7	-87.05233	-7.213302E-006	0.0188967	7
	17	159	5928.309	6723.994	-198636.2	1	198750	-88.06123	4.902811E-006	-0.0010597	7
	18	166	4733.456	-2839.82	-258779.4	1	258795	-90.62873	6.65469E-006	-0.0265326	7
	19	172	3796.875	-7403.221	-334733.7	1	334815.5	-91.26699	6.557075E-006	-0.010376	7
	20	180	2987.132	33237.78	-390292.9	1	391705.6	-85.13237	-1.62854E-006	0.0213044	7
	21	186	2390.625	44460.8	-500041.6	1	502014.3	-84.91895	-6.616808E-007	0.0257978	6
	22	192	1884.191	59781.43	-598539.1	1	601517.2	-84.29628	-2.015042E-007	0.0216775	6
	23	197	1516.544	83680.17	-749054.4	1	753714	-83.62566	3.860725E-007	-0.0247107	6
	24	202	1193.986	5311.273	-304525.9	1	304572.2	-89.0008	-2.65718E-005	0.0077083	8
	25	211	946.5144	-393220.2	-125349.2	1	412716.1	-162.319	8.061253E-006	-0.0077287	8
	26	219	751.7689	-40520.8	-803258.6	1	804279.9	-92.88787	6.572297E-006	-0.0104001	7
	27	225	597.4265	163479.4	-249288.2	1	298110.9	-56.74375	-2.598734E-005	0.0007005	9
	28	233	477.4305	337156.4	-2227355	1	2252729	-81.39244	-4.085968E-007	0.0006478	8
	29	239	376.6741	868602.5	-2922484	1	3048833	-73.44733	-8.105918E-010	0.0005954	5
	30	242	298.2954	1108732	-3580284	1	3748029	-72.79344	-8.134331E-010	0.000598	5
	31	246	237.7717	1426666	-4303672	1	4533980	-71.65965	-8.96956E-010	0.0006964	5
	32	249	189.0121	1985123	-5254401	1	5616890	-69.30334	-8.253813E-010	0.0006382	5
	33	252	150.2404	3023816	-6350650	1	7033792	-64.53888	-8.386969E-010	0.0006469	5
	34	255	119.1737	3230046	-5951523	1	6771545	-61.51017	-8.150746E-010	0.0006166	5
	35	258	95.0169	5074485	-8513255	1	9.910898E+006	-59.20216	-9.09681E-010	0.0006859	5
	36	260	75.60484	6584614	-9.853548E+006	1	1.185114E+007	-56.24725	-9.07581E-010	0.0006803	5
	37	263	54.50582	9.659586E+006	-1.084482E+007	1	1.4523E+007	-48.30822	-8.583888E-010	0.0005914	5
	38	266	45.95588	1.362322E+007	-9.926923E+006	1	1.685633E+007	-36.07995	-8.474977E-011	0.0006245	4
	39	269	37.20238	1.554035E+007	-1.076897E+007	1	1.890696E+007	-34.72073	-1.685795E-011	0.0006503	4
	40	272	30.04808	1.690161E+007	-1.012646E+007	1	1.970304E+007	-30.92759	-6.495619E-011	0.0006452	4
	41	275	23.91582	1.927214E+007	-9.807173E+006	1	2.162397E+007	-26.97055	-9.41713E-011	0.0006978	4
	42	277	18.60119	1.869659E+007	-8523664	1	2.054788E+007	-24.50796	-1.665518E-010	0.0006004	4
	43	280	15.02404	2.187602E+007	-8647412	1	2.352314E+007	-21.56848	-6.960731E-011	0.0007093	4
	44	282	12.01923	2.307656E+007	-8276969	1	2.451603E+007	-19.73161	-4.638877E-011	0.0006532	4
	45	285	9.450605	2.37866E+007	-8599620	1	2.529339E+007	-19.87655	-8.78752E-010	0.0006031	5
	46	289	7.512019	2.514293E+007	-8450991	1	2.65252E+007	-18.57842	-9.449534E-010	0.0006782	5
	47	293	5.978954	2.639429E+007	-8433337	1	2.770884E+007	-17.71939	-8.257874E-010	0.0005969	5
	48	299	4.734848	2.756509E+007	-8321773	1	2.879386E+007	-16.79882	-9.278899E-010	0.0007133	5
	49	305	3.75601	2.931746E+007	-8834195	1	3.061955E+007	-16.76906	-9.615306E-010	0.0006836	5
	50	312	3.004808	3.094141E+007	-9283684	1	3.230414E+007	-16.70139	-9.079872E-010	0.0006564	5
	51	319	2.372217	3.281679E+007	-9.661692E+006	1	3.42095E+007	-16.40512	-5.144883E-011	0.0006889	4
	52	324	1.878005	3.437161E+007	-1.060575E+007	1	3.597067E+007	-17.1482	-5.537447E-011	0.0006274	4
	53	328	1.512097	3.889594E+007	-1.0028E+007	1	4.016784E+007	-14.45695	1.550986E-011	0.0008089	3
	54	334	1.201923	4.078708E+007	-1.171629E+007	1	4.243651E+007	-16.02697	2.207337E-011	0.0007074	3
	55	340	0.956633	4.30669E+007	-1.365488E+007	1	4.51798E+007	-17.59185	-1.652801E-011	7.948516E-005	3
