EXPLAIN
TAG	EISPOT
TITLE	LABEL	Potentiostatic EIS	Test Identifier
DATE	LABEL	9/1/2020	Date
TIME	LABEL	0:47:28	Time
NOTES	NOTES	1	Notes...
	
PSTAT	PSTAT	REF3000-16137	Potentiostat
VDC	POTEN	0.00000E+000	T	DC Voltage (V)
FREQINIT	QUANT	3.00000E+005	Initial Freq. (Hz)
FREQFINAL	QUANT	1.00000E+000	Final Freq. (Hz)
PTSPERDEC	QUANT	1.00000E+001	Points/decade
VAC	QUANT	5.00000E+001	AC Voltage (mV rms)
AREA	QUANT	1.00000E+000	Sample Area (cm^2)
SPEED	SELECTOR	2	Optimize for:
ZGUESS	QUANT	1.00000E+003	Estimated Z (ohms)
EOC	QUANT	0	Open Circuit (V)
SEQUENCER	TOGGLE	TRUE	Run as Sequence
PSTATMODEL	IQUANT	5	Pstat Model
PSTATSECTION	LABEL	REF3000-16137	Pstat Section
PSTATSERIALNO	LABEL	16137	Pstat Serial Number
CTRLMODE	IQUANT	1	Control Mode
IESTAB	IQUANT	0	I/E Stability
CASPEED	IQUANT	1	Control Amp Speed
CONVENTION	IQUANT	1	Current Convention
ICHRANGE	IQUANT	2	Ich Range
ICHRANGEMODE	TOGGLE	F	Ich Auto Range
ICHOFFSETENABLE	TOGGLE	T	Ich Offset Enable
ICHOFFSET	QUANT	0	Ich Offset (V)
ICHFILTER	IQUANT	3	Ich Filter
VCHRANGE	IQUANT	2	Vch Range
VCHRANGEMODE	TOGGLE	F	Vch Auto Range
VCHOFFSETENABLE	TOGGLE	T	Vch Offset Enable
VCHOFFSET	QUANT	0	Vch Offset (V)
VCHFILTER	IQUANT	3	Vch Filter
ACHRANGE	IQUANT	2	Ach Range
ACHOFFSETENABLE	TOGGLE	F	Ach Offset Enable
ACHOFFSET	QUANT	0	Ach Offset (V)
ACHFILTER	IQUANT	3	Ach Filter
IERANGELOWERLIMIT	IQUANT	2	I/E Range Lower Limit
IERANGEMODE	TOGGLE	F	I/E AutoRange
IERANGE	IQUANT	11	I/E Range
POSFEEDENABLE	TOGGLE	F	Positive Feedback IR Comp
POSFEEDRESISTANCE	QUANT	0	Positive Feedback Resistance (ohm)
ACHSELECT	IQUANT	0	Ach Select
CABLEID	IQUANT	13	Cable ID
DCCALDATE	LABEL	7/31/2020	DC Calibration Date
ACCALDATE	LABEL	7/31/2020	AC Calibration Date
THERMOSELECT	IQUANT	1	Thermo Select
FRAMEWORKVERSION	QUANT	6.33	Framework Version
INSTRUMENTVERSION	LABEL	3.50	Instrument Version
COMPLIANCEVOLTAGE	IQUANT	0	Compliance Voltage
ZCURVE	TABLE
	Pt	Time	Freq	Zreal	Zimag	Zsig	Zmod	Zphz	Idc	Vdc	IERange
	#	s	Hz	ohm	ohm	V	ohm	°	A	V	#
	0	7	300046.9	123.0708	-2.322164	1	123.0927	-1.080958	-7.055979E-005	0.0027173	9
	1	10	238359.4	123.4193	-2.256409	1	123.44	-1.047391	-7.712723E-005	0.0019875	9
	2	13	189328.1	123.6132	-1.940902	1	123.6285	-0.8995509	-7.851313E-005	0.0021715	9
	3	16	150421.9	124.088	-1.630024	1	124.0987	-0.7525958	6.927936E-005	-0.0016651	9
	4	18	119484.4	124.3998	-1.408465	1	124.4078	-0.6486802	1.509317E-005	0.0008009	9
	5	21	94921.88	124.5966	-1.106335	1	124.6015	-0.5087352	2.489782E-005	-0.0007117	9
	6	23	75421.88	124.8272	-1.118983	1	124.8322	-0.5136003	1.861462E-005	-0.0007822	9
	7	26	59859.37	125.1312	-1.095281	1	125.136	-0.5015008	-1.66715E-005	0.0002217	9
	8	28	47578.12	125.3818	-1.075241	1	125.3864	-0.4913412	-2.218199E-005	0.0006598	9
	9	31	37828.12	125.6423	-1.067177	1	125.6468	-0.4866454	2.377693E-005	-0.000569	9
	10	33	30046.88	125.8334	-1.141937	1	125.8386	-0.5199444	2.508042E-005	-0.0005367	9
	11	36	23859.38	126.0785	-1.270299	1	126.0849	-0.5772617	-1.696698E-005	0.000257	9
	12	38	18984.38	126.374	-1.385999	1	126.3816	-0.6283625	-4.562911E-006	-0.0002299	9
	13	40	15046.87	126.6506	-1.609816	1	126.6609	-0.7282293	-2.076308E-005	0.0005559	9
	14	43	11953.13	126.9339	-1.925885	1	126.9485	-0.8692451	2.515124E-005	-0.0006733	9
	15	45	9515.62	127.2295	-2.183085	1	127.2482	-0.983021	2.094846E-005	-0.0004386	9
	16	47	7546.875	127.4856	-2.55762	1	127.5112	-1.149315	2.633653E-005	-0.000518	9
	17	50	5928.309	127.7207	-3.021785	1	127.7564	-1.355327	-1.917274E-005	0.0004479	9
	18	52	4733.456	128.1706	-3.736061	1	128.2251	-1.669649	-2.093822E-005	0.0008364	9
	19	54	3796.875	128.5685	-4.292546	1	128.6401	-1.912237	-2.198181E-005	0.0006798	9
	20	57	2987.132	128.9531	-5.245291	1	129.0597	-2.329277	1.260171E-005	0.0001688	9
	21	59	2390.625	129.3537	-6.390211	1	129.5115	-2.828173	-4.201846E-006	-0.0002594	9
	22	61	1884.191	129.8296	-8.005026	1	130.0761	-3.528274	-3.858048E-006	-0.0002611	9
	23	64	1516.544	130.4098	-9.51117	1	130.7561	-4.171365	-2.191103E-005	0.000722	9
	24	66	1193.986	131.0527	-11.61951	1	131.5668	-5.066759	2.375283E-005	-0.0003194	9
	25	68	946.5144	131.8297	-14.29512	1	132.6025	-6.188761	2.340599E-005	-0.0007675	9
	26	71	751.7689	132.7055	-17.30614	1	133.8292	-7.430017	-2.066765E-005	0.0008243	9
	27	73	597.4265	133.6453	-21.36548	1	135.3423	-9.082848	-2.21971E-005	0.0007339	9
	28	75	477.4305	134.6718	-26.04847	1	137.1679	-10.94707	1.285556E-006	7.800214E-005	9
	29	78	376.6741	136.1058	-32.13733	1	139.8485	-13.28536	1.254569E-006	6.77506E-005	9
	30	80	298.2954	137.8409	-39.4987	1	143.3885	-15.98981	1.20735E-006	7.665658E-005	9
	31	82	237.7717	139.941	-48.22476	1	148.0173	-19.01435	9.273708E-007	0.0001195	9
	32	85	189.0121	142.5369	-58.95245	1	154.247	-22.46972	1.297121E-006	7.425332E-005	9
	33	87	150.2404	145.7187	-71.96933	1	162.5224	-26.28441	1.265223E-006	6.549397E-005	9
	34	90	119.1737	149.6276	-87.88824	1	173.5303	-30.42911	1.212655E-006	7.615771E-005	9
	35	92	95.0169	154.1925	-106.7518	1	187.54	-34.69594	1.179302E-006	7.014765E-005	9
	36	94	75.60484	159.6887	-129.8002	1	205.7877	-39.10533	1.202636E-006	6.86342E-005	9
	37	97	54.50582	169.2428	-171.6991	1	241.0886	-45.41278	9.046728E-007	0.000116	9
	38	100	45.95588	175.365	-198.8309	1	265.1162	-48.58833	1.251444E-006	7.222033E-005	9
	39	102	37.20238	183.9893	-238.5038	1	301.2244	-52.35228	1.244077E-006	7.811086E-005	9
	40	104	30.04808	194.3042	-286.9614	1	346.5559	-55.89771	1.190871E-006	0.0001084	9
	41	107	23.91582	207.5703	-350.0192	1	406.9384	-59.33097	1.249341E-006	6.183756E-005	9
	42	109	18.60119	224.6227	-434.343	1	488.9879	-62.65402	-2.932496E-008	0.0006458	8
	43	111	15.02404	243.8352	-523.7469	1	577.7252	-65.03523	8.039345E-008	0.0006515	8
	44	114	12.01923	269.0484	-637.3278	1	691.7902	-67.11292	-1.045462E-009	0.0006457	8
	45	116	9.450605	303.629	-787.3686	1	843.8838	-68.91211	1.5945E-007	0.0006459	8
	46	119	7.512019	346.5027	-962.575	1	1023.042	-70.20241	1.769362E-007	0.0006533	8
	47	121	5.978954	401.0782	-1174.224	1	1240.833	-71.14144	1.321852E-007	0.0006745	8
	48	124	4.734848	474.6817	-1436.453	1	1512.852	-71.71365	1.158393E-007	0.0006587	8
	49	128	3.75601	567.6578	-1750.455	1	1840.198	-72.03255	1.188894E-007	0.0006813	8
	50	131	3.004808	682.0714	-2110.535	1	2218.012	-72.09048	1.020773E-007	0.0006778	8
	51	135	2.372217	839.083	-2568.281	1	2701.875	-71.90727	1.371346E-007	0.0007201	8
	52	139	1.878005	1032.159	-3112.244	1	3278.935	-71.65217	1.153686E-007	0.0006192	8
	53	144	1.512097	1258.292	-3700.517	1	3908.596	-71.22035	1.405699E-007	0.0006631	8
	54	149	1.201923	1572.182	-4466.963	1	4735.559	-70.61009	-4.574274E-008	0.0005864	7
	55	155	0.956633	1970.355	-5349.746	1	5701.059	-69.78084	-7.771829E-008	-1.889698E-005	7
