EXPLAIN
TAG	EISPOT
TITLE	LABEL	Potentiostatic EIS	Test Identifier
DATE	LABEL	9/1/2020	Date
TIME	LABEL	1:24:45	Time
NOTES	NOTES	1	Notes...
	
PSTAT	PSTAT	REF3000-16137	Potentiostat
VDC	POTEN	0.00000E+000	T	DC Voltage (V)
FREQINIT	QUANT	3.00000E+005	Initial Freq. (Hz)
FREQFINAL	QUANT	1.00000E+000	Final Freq. (Hz)
PTSPERDEC	QUANT	1.00000E+001	Points/decade
VAC	QUANT	5.00000E+001	AC Voltage (mV rms)
AREA	QUANT	1.00000E+000	Sample Area (cm^2)
SPEED	SELECTOR	2	Optimize for:
ZGUESS	QUANT	1.00000E+003	Estimated Z (ohms)
EOC	QUANT	0	Open Circuit (V)
SEQUENCER	TOGGLE	TRUE	Run as Sequence
PSTATMODEL	IQUANT	5	Pstat Model
PSTATSECTION	LABEL	REF3000-16137	Pstat Section
PSTATSERIALNO	LABEL	16137	Pstat Serial Number
CTRLMODE	IQUANT	1	Control Mode
IESTAB	IQUANT	0	I/E Stability
CASPEED	IQUANT	1	Control Amp Speed
CONVENTION	IQUANT	1	Current Convention
ICHRANGE	IQUANT	2	Ich Range
ICHRANGEMODE	TOGGLE	F	Ich Auto Range
ICHOFFSETENABLE	TOGGLE	T	Ich Offset Enable
ICHOFFSET	QUANT	0	Ich Offset (V)
ICHFILTER	IQUANT	3	Ich Filter
VCHRANGE	IQUANT	2	Vch Range
VCHRANGEMODE	TOGGLE	F	Vch Auto Range
VCHOFFSETENABLE	TOGGLE	T	Vch Offset Enable
VCHOFFSET	QUANT	0	Vch Offset (V)
VCHFILTER	IQUANT	3	Vch Filter
ACHRANGE	IQUANT	2	Ach Range
ACHOFFSETENABLE	TOGGLE	F	Ach Offset Enable
ACHOFFSET	QUANT	0	Ach Offset (V)
ACHFILTER	IQUANT	3	Ach Filter
IERANGELOWERLIMIT	IQUANT	2	I/E Range Lower Limit
IERANGEMODE	TOGGLE	F	I/E AutoRange
IERANGE	IQUANT	11	I/E Range
POSFEEDENABLE	TOGGLE	F	Positive Feedback IR Comp
POSFEEDRESISTANCE	QUANT	0	Positive Feedback Resistance (ohm)
ACHSELECT	IQUANT	0	Ach Select
CABLEID	IQUANT	13	Cable ID
DCCALDATE	LABEL	7/31/2020	DC Calibration Date
ACCALDATE	LABEL	7/31/2020	AC Calibration Date
THERMOSELECT	IQUANT	1	Thermo Select
FRAMEWORKVERSION	QUANT	6.33	Framework Version
INSTRUMENTVERSION	LABEL	3.50	Instrument Version
COMPLIANCEVOLTAGE	IQUANT	0	Compliance Voltage
ZCURVE	TABLE
	Pt	Time	Freq	Zreal	Zimag	Zsig	Zmod	Zphz	Idc	Vdc	IERange
	#	s	Hz	ohm	ohm	V	ohm	°	A	V	#
	0	14	300046.9	1507.368	-1975.49	1	2484.898	-52.6551	-4.667245E-007	-0.0020645	9
	1	28	238359.4	1904.236	-2118.204	1	2848.315	-48.0449	2.78238E-005	0.0008369	9
	2	42	189328.1	2337.232	-2219.777	1	3223.362	-43.52356	1.968248E-005	-0.0004672	9
	3	49	150421.9	2839.477	-2224.087	1	3606.826	-38.07066	-1.370982E-005	0.0017712	9
	4	56	119484.4	3309.514	-2217.784	1	3983.899	-33.82698	2.611814E-005	-0.0014577	9
	5	64	94921.88	3817.831	-1998.166	1	4309.118	-27.62654	-2.338536E-005	0.0056697	8
	6	71	75421.88	4184.419	-1842.213	1	4571.992	-23.76175	2.559294E-005	-0.0055033	8
	7	78	59859.37	4528.686	-1668.231	1	4826.178	-20.22227	2.02241E-005	-0.0091495	8
	8	86	47578.12	4822.086	-1488.909	1	5046.718	-17.15905	-9.385785E-006	0.0092305	8
	9	93	37828.12	5083.493	-1310.641	1	5249.731	-14.45731	-9.372759E-006	0.0092859	8
	10	101	30046.88	5286.547	-1142.252	1	5408.542	-12.19234	5.902607E-006	-0.0068457	8
	11	108	23859.38	5479.871	-1043.379	1	5578.317	-10.78021	-1.707754E-005	0.010634	8
	12	114	18984.38	5610.956	-858.371	1	5676.234	-8.697746	9.98728E-006	0.0033128	8
	13	119	15046.87	5744.861	-739.6838	1	5792.285	-7.336795	6.038761E-006	-0.0069287	8
	14	124	11953.13	5969.799	-478.5074	1	5988.946	-4.582728	-3.411707E-006	0.0216094	7
	15	127	9515.62	6054.97	-450.0905	1	6071.676	-4.251209	6.440094E-006	-0.0197827	7
	16	132	7546.875	6119.132	-418.5842	1	6133.433	-3.913268	4.774637E-006	-0.0228403	7
	17	135	5928.309	6162.094	-563.1048	1	6187.769	-5.221304	2.046033E-005	-0.0092449	8
	18	142	4733.456	6313.693	-543.8522	1	6337.073	-4.923221	2.625782E-005	-0.0074934	8
	19	147	3796.875	6362.662	-479.8747	1	6380.732	-4.313107	2.47194E-005	-0.0088144	8
	20	153	2987.132	6482.653	-511.3279	1	6502.788	-4.509943	-2.256763E-005	0.0106689	8
	21	158	2390.625	6643.048	-397.3133	1	6654.919	-3.422719	2.545748E-005	-0.0053027	8
	22	163	1884.191	6722.242	-554.5782	1	6745.079	-4.716164	-2.070756E-005	0.003408	8
	23	169	1516.544	7013.948	-565.8366	1	7036.735	-4.612237	6.002404E-006	-0.0069362	8
	24	174	1193.986	7113.925	-579.9949	1	7137.529	-4.660988	-6.551807E-007	-0.011797	7
	25	179	946.5144	7218.115	-633.6768	1	7245.876	-5.017122	-5.622661E-006	0.0219961	7
	26	181	751.7689	7407.88	-707.3035	1	7441.57	-5.45406	-2.661372E-006	-0.0048166	7
	27	184	597.4265	7585.365	-647.6356	1	7612.962	-4.880057	1.303342E-006	-0.0171913	7
	28	186	477.4305	7680.529	-764.0063	1	7718.435	-5.680704	-7.545463E-008	0.0006356	7
	29	189	376.6741	7843.008	-811.5944	1	7884.888	-5.907939	-6.534572E-008	0.0006007	7
	30	191	298.2954	8011.611	-856.4734	1	8057.261	-6.101974	-7.42358E-008	0.0006449	7
	31	193	237.7717	8190.231	-902.239	1	8239.776	-6.286377	-6.927703E-008	0.0005741	7
	32	196	189.0121	8376.426	-942.8709	1	8429.324	-6.422319	-8.260579E-008	0.0006644	7
	33	198	150.2404	8568.05	-983.143	1	8624.271	-6.54579	-8.360549E-008	0.000638	7
	34	201	119.1737	8786.887	-1034.093	1	8847.526	-6.712037	-9.195477E-008	0.000608	7
	35	203	95.0169	8975.401	-1042.744	1	9035.771	-6.626801	-6.340176E-008	0.0006074	7
	36	205	75.60484	9180.978	-1069.995	1	9243.118	-6.647532	-7.782375E-008	0.0006356	7
	37	208	54.50582	9444.731	-1103.578	1	9508.99	-6.664554	-5.464964E-008	0.000571	7
	38	211	45.95588	9608.78	-1136.946	1	9675.81	-6.748072	-1.080944E-007	0.0006244	7
	39	213	37.20238	9791.66	-1185.014	1	9863.1	-6.90054	-1.19238E-007	0.0006653	7
	40	215	30.04808	9968.41	-1230.367	1	10044.05	-7.036237	-3.905234E-008	0.0005738	7
	41	218	23.91582	10147.27	-1317.206	1	10232.4	-7.396146	-1.399073E-007	0.0006758	7
	42	220	18.60119	10343.53	-1440.523	1	10443.35	-7.928478	-2.129612E-010	0.0005736	7
	43	222	15.02404	10516.96	-1547.474	1	10630.2	-8.370482	2.852509E-008	0.0005999	7
	44	225	12.01923	10668.81	-1745.035	1	10810.58	-9.289278	-5.669289E-008	0.0005833	7
	45	227	9.450605	10850.01	-2000.652	1	11032.92	-10.44752	-8.466919E-008	0.0006211	7
	46	230	7.512019	11019.8	-2317.647	1	11260.88	-11.87716	-1.252143E-007	0.0005873	7
	47	232	5.978954	11232.02	-2746.467	1	11562.93	-13.74041	-1.18719E-007	0.0006408	7
	48	235	4.734848	11509.77	-3278.671	1	11967.64	-15.90013	-4.696728E-008	0.0006198	7
	49	239	3.75601	11799.68	-3945.58	1	12441.87	-18.48891	-1.082562E-007	0.0006376	7
	50	242	3.004808	12121.84	-4694.503	1	12999.13	-21.17021	-7.425057E-008	0.0005925	7
	51	246	2.372217	12531.18	-5699.752	1	13766.54	-24.4582	-9.02696E-008	0.000644	7
	52	250	1.878005	13029.76	-6904.441	1	14746.05	-27.91901	-9.167614E-008	0.0006123	7
	53	255	1.512097	13578.39	-8245.297	1	15885.77	-31.26766	-8.255872E-008	0.0005402	7
	54	260	1.201923	14258.63	-9985.25	1	17407.29	-35.00336	-8.128642E-008	0.0006117	7
	55	266	0.956633	15065.67	-12061.79	1	19299.25	-38.68125	-8.21038E-008	-1.875106E-005	7
