EXPLAIN
TAG	EISPOT
TITLE	LABEL	Potentiostatic EIS	Test Identifier
DATE	LABEL	9/1/2020	Date
TIME	LABEL	1:34:02	Time
NOTES	NOTES	1	Notes...
	
PSTAT	PSTAT	REF3000-16137	Potentiostat
VDC	POTEN	0.00000E+000	T	DC Voltage (V)
FREQINIT	QUANT	3.00000E+005	Initial Freq. (Hz)
FREQFINAL	QUANT	1.00000E+000	Final Freq. (Hz)
PTSPERDEC	QUANT	1.00000E+001	Points/decade
VAC	QUANT	5.00000E+001	AC Voltage (mV rms)
AREA	QUANT	1.00000E+000	Sample Area (cm^2)
SPEED	SELECTOR	2	Optimize for:
ZGUESS	QUANT	1.00000E+003	Estimated Z (ohms)
EOC	QUANT	0	Open Circuit (V)
SEQUENCER	TOGGLE	TRUE	Run as Sequence
PSTATMODEL	IQUANT	5	Pstat Model
PSTATSECTION	LABEL	REF3000-16137	Pstat Section
PSTATSERIALNO	LABEL	16137	Pstat Serial Number
CTRLMODE	IQUANT	1	Control Mode
IESTAB	IQUANT	0	I/E Stability
CASPEED	IQUANT	1	Control Amp Speed
CONVENTION	IQUANT	1	Current Convention
ICHRANGE	IQUANT	2	Ich Range
ICHRANGEMODE	TOGGLE	F	Ich Auto Range
ICHOFFSETENABLE	TOGGLE	T	Ich Offset Enable
ICHOFFSET	QUANT	0	Ich Offset (V)
ICHFILTER	IQUANT	3	Ich Filter
VCHRANGE	IQUANT	2	Vch Range
VCHRANGEMODE	TOGGLE	F	Vch Auto Range
VCHOFFSETENABLE	TOGGLE	T	Vch Offset Enable
VCHOFFSET	QUANT	0	Vch Offset (V)
VCHFILTER	IQUANT	3	Vch Filter
ACHRANGE	IQUANT	2	Ach Range
ACHOFFSETENABLE	TOGGLE	F	Ach Offset Enable
ACHOFFSET	QUANT	0	Ach Offset (V)
ACHFILTER	IQUANT	3	Ach Filter
IERANGELOWERLIMIT	IQUANT	2	I/E Range Lower Limit
IERANGEMODE	TOGGLE	F	I/E AutoRange
IERANGE	IQUANT	11	I/E Range
POSFEEDENABLE	TOGGLE	F	Positive Feedback IR Comp
POSFEEDRESISTANCE	QUANT	0	Positive Feedback Resistance (ohm)
ACHSELECT	IQUANT	0	Ach Select
CABLEID	IQUANT	13	Cable ID
DCCALDATE	LABEL	7/31/2020	DC Calibration Date
ACCALDATE	LABEL	7/31/2020	AC Calibration Date
THERMOSELECT	IQUANT	1	Thermo Select
FRAMEWORKVERSION	QUANT	6.33	Framework Version
INSTRUMENTVERSION	LABEL	3.50	Instrument Version
COMPLIANCEVOLTAGE	IQUANT	0	Compliance Voltage
ZCURVE	TABLE
	Pt	Time	Freq	Zreal	Zimag	Zsig	Zmod	Zphz	Idc	Vdc	IERange
	#	s	Hz	ohm	ohm	V	ohm	°	A	V	#
	0	14	300046.9	940.0021	-3170.764	1	3307.166	-73.48706	-3.081497E-005	-0.0012066	9
	1	38	238359.4	1315.441	-3786.671	1	4008.648	-70.84343	-2.003957E-005	0.0015119	9
	2	53	189328.1	1907.197	-4531.823	1	4916.79	-67.17643	-1.967405E-005	0.0012112	9
	3	61	150421.9	2621.33	-5226.203	1	5846.757	-63.36282	1.880187E-005	-0.0020559	9
	4	68	119484.4	3654.906	-5881.265	1	6924.422	-58.14116	7.015579E-005	-0.0145144	8
	5	76	94921.88	4826.294	-6601.385	1	8177.493	-53.82934	6.728437E-006	-0.0073174	8
	6	83	75421.88	6183.778	-7246.237	1	9526.13	-49.52329	2.681952E-005	-0.0075104	8
	7	92	59859.37	7721.067	-7681.283	1	10891.14	-44.85201	-2.27759E-006	-0.0047122	8
	8	100	47578.12	10771.19	-7285.4	1	13003.68	-34.07356	-1.504307E-006	0.0198307	7
	9	106	37828.12	12201.54	-7116.082	1	14125.02	-30.25124	4.065108E-007	0.0147996	7
	10	112	30046.88	13537.7	-6738.86	1	15122.22	-26.46342	-1.017426E-006	-0.0118923	7
	11	118	23859.38	14748.07	-6278.121	1	16028.74	-23.05902	-6.175018E-006	0.0111752	7
	12	123	18984.38	15832.2	-5769.539	1	16850.7	-20.02265	-4.941172E-006	0.0246055	7
	13	127	15046.87	16684.82	-5155.364	1	17463.13	-17.17038	-1.196694E-006	-0.011229	7
	14	131	11953.13	17422.17	-4707.181	1	18046.87	-15.11937	1.195753E-006	-0.0181121	7
	15	135	9515.62	18126.91	-4223.707	1	18612.48	-13.11632	1.167961E-006	-0.0184665	7
	16	139	7546.875	18626.85	-3855.759	1	19021.74	-11.69506	7.077101E-006	-0.0226032	7
	17	144	5928.309	19199.28	-3546.884	1	19524.16	-10.46684	-3.41369E-006	0.0233386	7
	18	148	4733.456	19705.02	-3293.165	1	19978.31	-9.487765	-6.657492E-006	0.021754	7
	19	152	3796.875	20123.53	-3274.99	1	20388.28	-9.243524	4.810084E-006	-0.0241551	7
	20	156	2987.132	20592.01	-3199.958	1	20839.16	-8.833004	3.201988E-006	-0.0224754	7
	21	161	2390.625	21122.74	-3138.515	1	21354.64	-8.451439	4.563817E-006	-0.0008336	7
	22	165	1884.191	21569.32	-3290.857	1	21818.92	-8.674788	-4.875781E-006	0.0245003	7
	23	169	1516.544	21895.31	-3541.052	1	22179.8	-9.186701	-3.130901E-006	-0.0045228	7
	24	173	1193.986	22497.03	-3937.958	1	22839.08	-9.92866	1.143185E-006	-0.0181594	7
	25	178	946.5144	23334.69	-4166.712	1	23703.78	-10.1242	-6.227371E-006	0.0112888	7
	26	180	751.7689	25642.64	-4657.881	1	26062.25	-10.29529	1.529545E-005	-0.0090549	8
	27	185	597.4265	24729.74	-4622.856	1	25158.11	-10.58839	3.206281E-006	-0.0223888	7
	28	189	477.4305	25525.7	-5303.967	1	26070.93	-11.73841	-8.220049E-008	0.0006232	7
	29	192	376.6741	26418.55	-5790.446	1	27045.69	-12.36266	-7.423919E-008	0.0005692	7
	30	195	298.2954	27365.36	-6319.052	1	28085.46	-13.00251	-7.384309E-008	0.0005698	7
	31	197	237.7717	28439.31	-6862.494	1	29255.57	-13.56631	-7.17881E-008	0.000584	7
	32	200	189.0121	29591.78	-7431.707	1	30510.72	-14.09775	-8.33186E-008	0.0006655	7
	33	202	150.2404	30878.14	-8027.774	1	31904.62	-14.57327	-7.676469E-008	0.0006332	7
	34	205	119.1737	32613.25	-8671.337	1	33746.35	-14.88954	-8.12024E-008	0.0006548	7
	35	207	95.0169	33887.45	-9239.507	1	35124.46	-15.25114	-8.13559E-008	0.0006548	7
	36	210	75.60484	35587.7	-9827.29	1	36919.64	-15.43712	-7.632775E-008	0.0006188	7
	37	212	54.50582	38394.12	-10153.67	1	39714.05	-14.81327	-1.003517E-008	0.0007041	6
	38	215	45.95588	40003.84	-10442.71	1	41344.38	-14.63016	-1.523054E-008	0.0007119	6
	39	217	37.20238	41832.54	-10772.66	1	43197.35	-14.44097	-1.092389E-008	0.0007046	6
	40	219	30.04808	43795.93	-10996.8	1	45155.43	-14.09511	-1.084138E-008	0.0006482	6
	41	222	23.91582	45867.59	-11142.31	1	47201.56	-13.654	-5.682982E-009	0.0006456	6
	42	225	18.60119	48229.85	-11130.91	1	49497.63	-12.99569	-5.850975E-009	0.0006278	6
	43	227	15.02404	50160.21	-11064.21	1	51365.98	-12.43897	-1.635132E-008	0.0007076	6
	44	229	12.01923	52168.25	-10861.54	1	53286.96	-11.76109	-2.363608E-008	0.0007028	6
	45	232	9.450605	54122.67	-10619.32	1	55154.63	-11.10089	-2.816938E-008	0.0007052	6
	46	234	7.512019	56004.21	-10485.13	1	56977.28	-10.60418	-1.566191E-008	0.0006872	6
	47	237	5.978954	57854.34	-10392.72	1	58780.38	-10.18377	-3.754177E-009	0.0006895	6
	48	242	4.734848	59624.98	-10509.02	1	60544.01	-9.99583	-2.554431E-008	0.0006827	6
	49	245	3.75601	61520.32	-10717.07	1	62446.82	-9.88197	-2.40737E-009	0.0007245	6
	50	251	3.004808	63642.02	-11231.08	1	64625.41	-10.0081	-3.323491E-009	0.000635	6
	51	257	2.372217	65623.05	-11984.95	1	66708.5	-10.35004	-6.350633E-009	0.0005799	6
	52	261	1.878005	67504.06	-13203.31	1	68783.18	-11.06692	1.948125E-009	0.0006597	6
	53	266	1.512097	69569.98	-14618.36	1	71089.23	-11.86661	4.015057E-009	0.0006525	6
	54	271	1.201923	71687.14	-16680.46	1	73602.2	-13.09874	-2.647804E-009	0.0006752	6
	55	277	0.956633	74506.63	-19214.57	1	76944.38	-14.46096	-2.505215E-008	1.47629E-005	6
