EXPLAIN
TAG	EISPOT
TITLE	LABEL	Potentiostatic EIS	Test Identifier
DATE	LABEL	9/1/2020	Date
TIME	LABEL	0:44:42	Time
NOTES	NOTES	1	Notes...
	
PSTAT	PSTAT	REF3000-16137	Potentiostat
VDC	POTEN	0.00000E+000	T	DC Voltage (V)
FREQINIT	QUANT	3.00000E+005	Initial Freq. (Hz)
FREQFINAL	QUANT	1.00000E+000	Final Freq. (Hz)
PTSPERDEC	QUANT	1.00000E+001	Points/decade
VAC	QUANT	5.00000E+001	AC Voltage (mV rms)
AREA	QUANT	1.00000E+000	Sample Area (cm^2)
SPEED	SELECTOR	2	Optimize for:
ZGUESS	QUANT	1.00000E+003	Estimated Z (ohms)
EOC	QUANT	0	Open Circuit (V)
SEQUENCER	TOGGLE	TRUE	Run as Sequence
PSTATMODEL	IQUANT	5	Pstat Model
PSTATSECTION	LABEL	REF3000-16137	Pstat Section
PSTATSERIALNO	LABEL	16137	Pstat Serial Number
CTRLMODE	IQUANT	1	Control Mode
IESTAB	IQUANT	0	I/E Stability
CASPEED	IQUANT	1	Control Amp Speed
CONVENTION	IQUANT	1	Current Convention
ICHRANGE	IQUANT	2	Ich Range
ICHRANGEMODE	TOGGLE	F	Ich Auto Range
ICHOFFSETENABLE	TOGGLE	T	Ich Offset Enable
ICHOFFSET	QUANT	0	Ich Offset (V)
ICHFILTER	IQUANT	3	Ich Filter
VCHRANGE	IQUANT	2	Vch Range
VCHRANGEMODE	TOGGLE	F	Vch Auto Range
VCHOFFSETENABLE	TOGGLE	T	Vch Offset Enable
VCHOFFSET	QUANT	0	Vch Offset (V)
VCHFILTER	IQUANT	3	Vch Filter
ACHRANGE	IQUANT	2	Ach Range
ACHOFFSETENABLE	TOGGLE	F	Ach Offset Enable
ACHOFFSET	QUANT	0	Ach Offset (V)
ACHFILTER	IQUANT	3	Ach Filter
IERANGELOWERLIMIT	IQUANT	2	I/E Range Lower Limit
IERANGEMODE	TOGGLE	F	I/E AutoRange
IERANGE	IQUANT	11	I/E Range
POSFEEDENABLE	TOGGLE	F	Positive Feedback IR Comp
POSFEEDRESISTANCE	QUANT	0	Positive Feedback Resistance (ohm)
ACHSELECT	IQUANT	0	Ach Select
CABLEID	IQUANT	13	Cable ID
DCCALDATE	LABEL	7/31/2020	DC Calibration Date
ACCALDATE	LABEL	7/31/2020	AC Calibration Date
THERMOSELECT	IQUANT	1	Thermo Select
FRAMEWORKVERSION	QUANT	6.33	Framework Version
INSTRUMENTVERSION	LABEL	3.50	Instrument Version
COMPLIANCEVOLTAGE	IQUANT	0	Compliance Voltage
ZCURVE	TABLE
	Pt	Time	Freq	Zreal	Zimag	Zsig	Zmod	Zphz	Idc	Vdc	IERange
	#	s	Hz	ohm	ohm	V	ohm	°	A	V	#
	0	7	300046.9	120.4729	-2.462837	1	120.4981	-1.171139	1.674298E-005	-0.0017304	9
	1	10	238359.4	120.4228	-2.017045	1	120.4397	-0.959597	6.905091E-005	-0.0019712	9
	2	13	189328.1	120.4827	-1.901583	1	120.4977	-0.9042267	-6.925285E-005	0.0028577	9
	3	15	150421.9	120.8304	-1.510539	1	120.8399	-0.716235	6.596736E-005	-0.0026275	9
	4	18	119484.4	120.7003	-1.248509	1	120.7068	-0.5926393	6.857236E-005	-0.0026386	9
	5	21	94921.88	120.7145	-0.8366546	1	120.7174	-0.3971024	1.841772E-005	-0.000158	9
	6	23	75421.88	120.6879	-0.983184	1	120.6919	-0.46675	-2.134147E-005	0.0007028	9
	7	26	59859.37	120.7672	-1.057111	1	120.7718	-0.501514	2.049743E-005	-0.0002152	9
	8	28	47578.12	120.6773	-0.990917	1	120.6813	-0.4704624	-1.868223E-005	0.0004151	9
	9	31	37828.12	120.6719	-1.055432	1	120.6765	-0.5011129	-1.650385E-005	0.0009153	9
	10	33	30046.88	120.6962	-1.08038	1	120.7011	-0.512854	1.867774E-005	-0.000746	9
	11	36	23859.38	120.7485	-1.188964	1	120.7543	-0.5641513	1.795791E-005	-0.0001227	9
	12	38	18984.38	120.7425	-1.345997	1	120.75	-0.6386881	-1.956372E-005	0.0004881	9
	13	40	15046.87	120.8038	-1.437775	1	120.8124	-0.681887	2.116289E-005	-0.0006436	9
	14	43	11953.13	120.7351	-1.685915	1	120.7468	-0.8000124	-2.058864E-005	0.0007996	9
	15	45	9515.62	120.9249	-2.092351	1	120.943	-0.991284	-2.031882E-005	0.0009683	9
	16	47	7546.875	121.0671	-2.545128	1	121.0938	-1.204321	-4.498152E-006	-0.0002316	9
	17	50	5928.309	121.1503	-3.000142	1	121.1875	-1.418571	2.481533E-005	-0.0006425	9
	18	52	4733.456	121.2763	-3.585068	1	121.3293	-1.693236	-1.702377E-005	0.0002486	9
	19	54	3796.875	121.4111	-4.293186	1	121.4869	-2.025178	1.292856E-005	0.0001162	9
	20	56	2987.132	121.6389	-5.249795	1	121.7522	-2.471286	4.600721E-006	0.0004584	9
	21	59	2390.625	121.8052	-6.348319	1	121.9705	-2.983479	-1.889432E-005	0.0004292	9
	22	61	1884.191	122.0672	-7.823028	1	122.3176	-3.66695	-2.206055E-005	0.0007274	9
	23	63	1516.544	122.3912	-9.329512	1	122.7463	-4.359053	2.233522E-005	-0.0007171	9
	24	66	1193.986	122.7514	-11.41039	1	123.2806	-5.310682	1.226214E-005	-0.0006687	9
	25	68	946.5144	123.2487	-14.07916	1	124.0503	-6.516859	1.139501E-005	-0.0006532	9
	26	71	751.7689	123.831	-17.19546	1	125.0192	-7.905671	1.229746E-005	-0.0006698	9
	27	73	597.4265	124.5485	-21.12398	1	126.3271	-9.62602	-2.094587E-005	0.0005761	9
	28	75	477.4305	125.4991	-25.7066	1	128.1048	-11.57605	1.175148E-006	7.843654E-005	9
	29	78	376.6741	126.7134	-31.70472	1	130.6196	-14.04746	1.267154E-006	6.861877E-005	9
	30	80	298.2954	128.2253	-38.95704	1	134.0126	-16.89968	1.221237E-006	7.247293E-005	9
	31	82	237.7717	130.094	-47.54616	1	138.5103	-20.07611	1.233762E-006	7.240787E-005	9
	32	85	189.0121	132.4525	-58.0868	1	144.6296	-23.67977	1.248493E-006	7.556218E-005	9
	33	87	150.2404	135.3743	-70.85989	1	152.7984	-27.62921	1.251552E-006	6.899655E-005	9
	34	89	119.1737	138.9996	-86.48551	1	163.709	-31.88985	1.237557E-006	7.094276E-005	9
	35	92	95.0169	143.2582	-105.0054	1	177.6205	-36.24067	1.234264E-006	6.234637E-005	9
	36	94	75.60484	148.4041	-127.6324	1	195.7391	-40.6966	1.198653E-006	6.555613E-005	9
	37	97	54.50582	157.476	-168.8527	1	230.8894	-46.99666	1.134928E-006	6.496637E-005	9
	38	99	45.95588	163.2141	-195.5034	1	254.6771	-50.14351	1.186467E-006	6.890798E-005	9
	39	102	37.20238	171.457	-234.5863	1	290.5654	-53.83727	1.250805E-006	6.976104E-005	9
	40	104	30.04808	181.3876	-282.3198	1	335.5681	-57.27966	1.155634E-006	6.721915E-005	9
	41	107	23.91582	194.2833	-344.4286	1	395.4453	-60.57377	1.154771E-006	6.983757E-005	9
	42	109	18.60119	211.1825	-427.4391	1	476.7622	-63.70765	5.324673E-008	0.0006466	8
	43	111	15.02404	230.1722	-515.676	1	564.7131	-65.94638	6.062899E-009	0.000642	8
	44	113	12.01923	255.2383	-627.1537	1	677.103	-67.85471	1.011339E-007	0.0006499	8
	45	116	9.450605	290.0739	-774.2986	1	826.8502	-69.46265	9.484585E-008	0.0006437	8
	46	118	7.512019	333.4987	-946.4289	1	1003.469	-70.58877	1.248703E-007	0.0006613	8
	47	121	5.978954	389.1219	-1152.514	1	1216.431	-71.34384	9.186769E-008	0.0006506	8
	48	124	4.734848	463.5664	-1406.909	1	1481.312	-71.76331	1.167528E-007	0.0006274	8
	49	127	3.75601	558.2108	-1712.003	1	1800.709	-71.94108	1.166909E-007	0.0006547	8
	50	131	3.004808	673.9193	-2060.41	1	2167.823	-71.8881	1.67231E-007	0.0006153	8
	51	135	2.372217	827.9563	-2502.383	1	2635.798	-71.69231	1.285672E-007	0.0005959	8
	52	139	1.878005	1030.902	-3023.5	1	3194.418	-71.17252	1.252732E-007	0.000649	8
	53	144	1.512097	1264.771	-3592.768	1	3808.888	-70.60629	1.423463E-007	0.0005654	8
	54	149	1.201923	1586.478	-4313.708	1	4596.193	-69.80769	-7.130649E-008	0.0006338	7
	55	155	0.956633	1998.519	-5138.613	1	5513.567	-68.74786	-8.998779E-008	-1.947764E-005	7
