EXPLAIN
TAG	EISPOT
TITLE	LABEL	Potentiostatic EIS	Test Identifier
DATE	LABEL	9/1/2020	Date
TIME	LABEL	1:19:40	Time
NOTES	NOTES	1	Notes...
	
PSTAT	PSTAT	REF3000-16137	Potentiostat
VDC	POTEN	0.00000E+000	T	DC Voltage (V)
FREQINIT	QUANT	3.00000E+005	Initial Freq. (Hz)
FREQFINAL	QUANT	1.00000E+000	Final Freq. (Hz)
PTSPERDEC	QUANT	1.00000E+001	Points/decade
VAC	QUANT	5.00000E+001	AC Voltage (mV rms)
AREA	QUANT	1.00000E+000	Sample Area (cm^2)
SPEED	SELECTOR	2	Optimize for:
ZGUESS	QUANT	1.00000E+003	Estimated Z (ohms)
EOC	QUANT	0	Open Circuit (V)
SEQUENCER	TOGGLE	TRUE	Run as Sequence
PSTATMODEL	IQUANT	5	Pstat Model
PSTATSECTION	LABEL	REF3000-16137	Pstat Section
PSTATSERIALNO	LABEL	16137	Pstat Serial Number
CTRLMODE	IQUANT	1	Control Mode
IESTAB	IQUANT	0	I/E Stability
CASPEED	IQUANT	1	Control Amp Speed
CONVENTION	IQUANT	1	Current Convention
ICHRANGE	IQUANT	2	Ich Range
ICHRANGEMODE	TOGGLE	F	Ich Auto Range
ICHOFFSETENABLE	TOGGLE	T	Ich Offset Enable
ICHOFFSET	QUANT	0	Ich Offset (V)
ICHFILTER	IQUANT	3	Ich Filter
VCHRANGE	IQUANT	2	Vch Range
VCHRANGEMODE	TOGGLE	F	Vch Auto Range
VCHOFFSETENABLE	TOGGLE	T	Vch Offset Enable
VCHOFFSET	QUANT	0	Vch Offset (V)
VCHFILTER	IQUANT	3	Vch Filter
ACHRANGE	IQUANT	2	Ach Range
ACHOFFSETENABLE	TOGGLE	F	Ach Offset Enable
ACHOFFSET	QUANT	0	Ach Offset (V)
ACHFILTER	IQUANT	3	Ach Filter
IERANGELOWERLIMIT	IQUANT	2	I/E Range Lower Limit
IERANGEMODE	TOGGLE	F	I/E AutoRange
IERANGE	IQUANT	11	I/E Range
POSFEEDENABLE	TOGGLE	F	Positive Feedback IR Comp
POSFEEDRESISTANCE	QUANT	0	Positive Feedback Resistance (ohm)
ACHSELECT	IQUANT	0	Ach Select
CABLEID	IQUANT	13	Cable ID
DCCALDATE	LABEL	7/31/2020	DC Calibration Date
ACCALDATE	LABEL	7/31/2020	AC Calibration Date
THERMOSELECT	IQUANT	1	Thermo Select
FRAMEWORKVERSION	QUANT	6.33	Framework Version
INSTRUMENTVERSION	LABEL	3.50	Instrument Version
COMPLIANCEVOLTAGE	IQUANT	0	Compliance Voltage
ZCURVE	TABLE
	Pt	Time	Freq	Zreal	Zimag	Zsig	Zmod	Zphz	Idc	Vdc	IERange
	#	s	Hz	ohm	ohm	V	ohm	°	A	V	#
	0	14	300046.9	1447.275	-1139.704	1	1842.154	-38.21982	1.899594E-005	-0.000621	9
	1	39	238359.4	1699.724	-1146.444	1	2050.218	-33.99921	-1.918376E-005	0.0010961	9
	2	64	189328.1	1940.892	-1112.381	1	2237.063	-29.81826	-9.371478E-005	0.002297	9
	3	71	150421.9	2143.125	-1004.249	1	2366.749	-25.10737	-6.367847E-005	0.0007174	9
	4	81	119484.4	2343.127	-949.3996	1	2528.162	-22.05705	-8.51181E-005	0.0040421	9
	5	88	94921.88	2537.49	-766.8903	1	2650.844	-16.81607	1.783079E-005	-0.0006157	8
	6	93	75421.88	2666.619	-679.1812	1	2751.752	-14.28928	2.279647E-005	-0.0082951	8
	7	101	59859.37	2787.071	-583.0807	1	2847.411	-11.81637	1.302076E-005	-0.0080889	8
	8	108	47578.12	2876.388	-552.8408	1	2929.034	-10.87956	-1.598095E-005	5.061961E-005	9
	9	116	37828.12	2957.316	-433.1745	1	2988.872	-8.333172	1.006099E-005	0.0029179	8
	10	121	30046.88	3030.193	-400.971	1	3056.607	-7.537885	-2.69958E-005	0.0009116	9
	11	128	23859.38	3093.856	-329.9398	1	3111.399	-6.08722	-1.605608E-005	0.0101072	8
	12	133	18984.38	3142.489	-278.2465	1	3154.783	-5.059966	-2.374947E-005	0.009203	8
	13	139	15046.87	3205.968	-247.813	1	3215.531	-4.420026	-1.122041E-005	0.0010648	9
	14	144	11953.13	3246.469	-226.4577	1	3254.357	-3.990209	5.282682E-006	-0.0064735	8
	15	149	9515.62	3294.396	-200.9977	1	3300.522	-3.491401	1.986332E-005	-0.0089086	8
	16	155	7546.875	3345.965	-192.1852	1	3351.48	-3.287337	-2.316652E-005	0.0091316	8
	17	160	5928.309	3376.538	-189.4074	1	3381.846	-3.210651	6.798264E-007	0.006378	8
	18	165	4733.456	3446.169	-188.1751	1	3451.303	-3.125483	-2.023511E-005	0.0034945	8
	19	171	3796.875	3504.281	-183.1044	1	3509.061	-2.991078	5.49112E-006	-0.0065555	8
	20	176	2987.132	3555.385	-177.9393	1	3559.835	-2.865139	6.588312E-007	0.0063973	8
	21	181	2390.625	3638.694	-143.8925	1	3641.538	-2.264587	-8.104673E-006	0.0087498	8
	22	187	1884.191	3674.04	-192.8565	1	3679.098	-3.004794	-8.69988E-006	0.0089726	8
	23	192	1516.544	3760.917	-195.781	1	3766.009	-2.97994	-1.080286E-005	-0.0011564	8
	24	198	1193.986	3825.724	-225.9881	1	3832.393	-3.380572	-2.029112E-005	0.0034966	8
	25	203	946.5144	3895.156	-257.6347	1	3903.667	-3.784164	2.105994E-005	1.681807E-005	9
	26	207	751.7689	3991.673	-274.9576	1	4001.131	-3.94047	1.792284E-005	-0.000492	8
	27	211	597.4265	4043.145	-315.4242	1	4055.43	-4.46087	1.830589E-005	-0.0006226	8
	28	214	477.4305	4116.279	-303.0848	1	4127.422	-4.211133	-2.572388E-007	0.0006512	8
	29	218	376.6741	4210.262	-301.3243	1	4221.031	-4.093624	-7.302371E-008	0.0005866	7
	30	220	298.2954	4276.881	-320.8185	1	4288.896	-4.289851	-6.770235E-008	0.0005821	7
	31	222	237.7717	4344.658	-339.6519	1	4357.915	-4.470115	-7.689883E-008	0.0006579	7
	32	225	189.0121	4416.474	-360.1907	1	4431.137	-4.662505	-7.48534E-008	0.0005873	7
	33	227	150.2404	4488.259	-381.3147	1	4504.428	-4.85609	-6.731176E-008	0.0006069	7
	34	230	119.1737	4566.683	-400.5074	1	4584.212	-5.012133	-7.915041E-008	0.0006635	7
	35	232	95.0169	4635.408	-430.7744	1	4655.381	-5.309321	-5.576969E-008	0.0006026	7
	36	234	75.60484	4709.996	-462.7599	1	4732.675	-5.611335	-8.783181E-008	0.0006589	7
	37	237	54.50582	4803.77	-518.1931	1	4831.638	-6.156813	-7.980187E-008	0.0005722	7
	38	240	45.95588	4864.997	-560.0176	1	4897.123	-6.566507	-1.010909E-007	0.000657	7
	39	242	37.20238	4931.648	-619.4586	1	4970.401	-7.159361	-7.554293E-008	0.0005929	7
	40	244	30.04808	5001.069	-694.434	1	5049.052	-7.905376	-9.029261E-008	0.0006566	7
	41	247	23.91582	5072.251	-796.3524	1	5134.385	-8.922701	-1.436715E-007	0.0006597	7
	42	249	18.60119	5162.77	-951.978	1	5249.805	-10.44759	1.022478E-007	0.0006009	7
	43	251	15.02404	5235.404	-1085.932	1	5346.84	-11.71817	-1.824361E-007	0.0006038	7
	44	254	12.01923	5312.47	-1286.478	1	5466.019	-13.6128	4.541871E-008	0.0006227	7
	45	256	9.450605	5412.138	-1569.01	1	5634.983	-16.16718	-1.595052E-007	0.0006514	7
	46	259	7.512019	5540.039	-1892.639	1	5854.409	-18.86167	-1.155058E-007	0.0006209	7
	47	261	5.978954	5680.309	-2270.86	1	6117.41	-21.79042	-3.958066E-008	0.0006341	7
	48	264	4.734848	5858.756	-2759.221	1	6475.981	-25.21841	-7.693779E-008	0.0006126	7
	49	268	3.75601	6064.168	-3345.21	1	6925.646	-28.88268	-4.430383E-008	0.0006255	7
	50	271	3.004808	6293.767	-4019.498	1	7467.788	-32.56423	-8.030472E-008	0.0006697	7
	51	275	2.372217	6595.225	-4891.748	1	8211.345	-36.56472	-4.977552E-008	0.000645	7
	52	279	1.878005	6943.919	-5937.085	1	9136.027	-40.53061	-5.748666E-008	0.0005891	7
	53	284	1.512097	7337.604	-7112.11	1	10218.74	-44.10595	-5.90032E-008	0.0007123	7
	54	289	1.201923	7820.992	-8633.499	1	11649.26	-47.82692	-5.832856E-008	0.0005912	7
	55	295	0.956633	8396.887	-10473.58	1	13423.99	-51.28013	-7.909382E-008	-1.853956E-005	7
