EXPLAIN
TAG	EISPOT
TITLE	LABEL	Potentiostatic EIS	Test Identifier
DATE	LABEL	9/1/2020	Date
TIME	LABEL	0:52:57	Time
NOTES	NOTES	1	Notes...
	
PSTAT	PSTAT	REF3000-16137	Potentiostat
VDC	POTEN	0.00000E+000	T	DC Voltage (V)
FREQINIT	QUANT	3.00000E+005	Initial Freq. (Hz)
FREQFINAL	QUANT	1.00000E+000	Final Freq. (Hz)
PTSPERDEC	QUANT	1.00000E+001	Points/decade
VAC	QUANT	5.00000E+001	AC Voltage (mV rms)
AREA	QUANT	1.00000E+000	Sample Area (cm^2)
SPEED	SELECTOR	2	Optimize for:
ZGUESS	QUANT	1.00000E+003	Estimated Z (ohms)
EOC	QUANT	0	Open Circuit (V)
SEQUENCER	TOGGLE	TRUE	Run as Sequence
PSTATMODEL	IQUANT	5	Pstat Model
PSTATSECTION	LABEL	REF3000-16137	Pstat Section
PSTATSERIALNO	LABEL	16137	Pstat Serial Number
CTRLMODE	IQUANT	1	Control Mode
IESTAB	IQUANT	0	I/E Stability
CASPEED	IQUANT	1	Control Amp Speed
CONVENTION	IQUANT	1	Current Convention
ICHRANGE	IQUANT	2	Ich Range
ICHRANGEMODE	TOGGLE	F	Ich Auto Range
ICHOFFSETENABLE	TOGGLE	T	Ich Offset Enable
ICHOFFSET	QUANT	0	Ich Offset (V)
ICHFILTER	IQUANT	3	Ich Filter
VCHRANGE	IQUANT	2	Vch Range
VCHRANGEMODE	TOGGLE	F	Vch Auto Range
VCHOFFSETENABLE	TOGGLE	T	Vch Offset Enable
VCHOFFSET	QUANT	0	Vch Offset (V)
VCHFILTER	IQUANT	3	Vch Filter
ACHRANGE	IQUANT	2	Ach Range
ACHOFFSETENABLE	TOGGLE	F	Ach Offset Enable
ACHOFFSET	QUANT	0	Ach Offset (V)
ACHFILTER	IQUANT	3	Ach Filter
IERANGELOWERLIMIT	IQUANT	2	I/E Range Lower Limit
IERANGEMODE	TOGGLE	F	I/E AutoRange
IERANGE	IQUANT	11	I/E Range
POSFEEDENABLE	TOGGLE	F	Positive Feedback IR Comp
POSFEEDRESISTANCE	QUANT	0	Positive Feedback Resistance (ohm)
ACHSELECT	IQUANT	0	Ach Select
CABLEID	IQUANT	13	Cable ID
DCCALDATE	LABEL	7/31/2020	DC Calibration Date
ACCALDATE	LABEL	7/31/2020	AC Calibration Date
THERMOSELECT	IQUANT	1	Thermo Select
FRAMEWORKVERSION	QUANT	6.33	Framework Version
INSTRUMENTVERSION	LABEL	3.50	Instrument Version
COMPLIANCEVOLTAGE	IQUANT	0	Compliance Voltage
ZCURVE	TABLE
	Pt	Time	Freq	Zreal	Zimag	Zsig	Zmod	Zphz	Idc	Vdc	IERange
	#	s	Hz	ohm	ohm	V	ohm	°	A	V	#
	0	7	300046.9	167.1294	-7.206447	1	167.2847	-2.469006	1.74697E-005	-0.001561	9
	1	10	238359.4	167.9787	-6.179639	1	168.0923	-2.10686	1.899881E-005	-0.0006809	9
	2	14	189328.1	169.5529	-5.076772	1	169.6289	-1.715044	1.464323E-005	-0.001332	9
	3	16	150421.9	170.3519	-4.340011	1	170.4071	-1.459394	7.465826E-005	-0.0022847	9
	4	19	119484.4	170.9068	-3.539717	1	170.9435	-1.186505	-2.594915E-006	0.0013586	9
	5	22	94921.88	171.4468	-2.976634	1	171.4727	-0.994661	2.623666E-005	-0.0005675	9
	6	24	75421.88	172.1218	-2.64981	1	172.1422	-0.881997	1.381388E-005	-0.0007664	9
	7	27	59859.37	172.7328	-2.357962	1	172.7489	-0.7820919	-2.311406E-005	0.0006841	9
	8	29	47578.12	173.3995	-2.074627	1	173.4119	-0.6854787	-1.64639E-005	0.0001889	9
	9	32	37828.12	173.926	-1.749821	1	173.9348	-0.5764177	1.303507E-005	-0.0008008	9
	10	34	30046.88	174.6742	-1.901501	1	174.6846	-0.6236963	-1.9177E-005	0.0004168	9
	11	37	23859.38	175.3374	-2.031862	1	175.3492	-0.6639306	-1.416408E-005	0.0009747	9
	12	39	18984.38	175.8564	-1.961665	1	175.8674	-0.6391036	-2.280885E-005	0.0008814	9
	13	41	15046.87	176.6376	-2.529794	1	176.6557	-0.8205311	6.84374E-006	0.0003237	9
	14	44	11953.13	176.9221	-2.220879	1	176.936	-0.7191883	-2.391056E-006	-0.0003604	9
	15	46	9515.62	177.7561	-2.73138	1	177.777	-0.8803313	-2.026913E-005	0.0009351	9
	16	48	7546.875	178.3333	-3.011943	1	178.3587	-0.9676	3.39371E-006	0.000555	9
	17	51	5928.309	179.0887	-3.66727	1	179.1262	-1.173104	-1.115284E-005	-1.609548E-005	9
	18	53	4733.456	179.7623	-4.228702	1	179.812	-1.347569	1.376732E-005	0.0001732	9
	19	55	3796.875	180.5073	-5.180133	1	180.5816	-1.643802	1.456053E-005	-0.0007792	9
	20	58	2987.132	181.4914	-5.981431	1	181.59	-1.887619	1.345359E-005	0.0001882	9
	21	60	2390.625	182.2952	-7.223538	1	182.4383	-2.269186	-2.157262E-005	0.0005595	9
	22	62	1884.191	182.9869	-8.521886	1	183.1852	-2.666396	2.503835E-005	-0.0003125	9
	23	64	1516.544	183.9835	-10.41161	1	184.2778	-3.238909	-1.39227E-005	0.0009349	9
	24	67	1193.986	185.0651	-12.79355	1	185.5068	-3.954564	-1.134996E-005	-9.947413E-006	9
	25	69	946.5144	186.4475	-15.40483	1	187.0828	-4.723215	-1.647061E-005	0.0002092	9
	26	72	751.7689	187.5576	-18.89351	1	188.5068	-5.752255	-1.649933E-005	0.0001974	9
	27	74	597.4265	188.9102	-23.05371	1	190.3116	-6.957706	-1.413362E-005	0.0009477	9
	28	76	477.4305	190.4528	-27.92502	1	192.4892	-8.341517	1.166122E-006	7.325422E-005	9
	29	79	376.6741	192.288	-34.36554	1	195.3348	-10.13287	1.240073E-006	6.880094E-005	9
	30	81	298.2954	194.4331	-42.18763	1	198.9573	-12.24214	9.249957E-007	0.0001218	9
	31	83	237.7717	196.9189	-51.50287	1	203.5426	-14.65703	1.152964E-006	7.044931E-005	9
	32	86	189.0121	199.9505	-63.00637	1	209.6425	-17.49016	1.131705E-006	7.007376E-005	9
	33	88	150.2404	203.6167	-77.00873	1	217.6927	-20.71683	1.137759E-006	7.177631E-005	9
	34	91	119.1737	208.1314	-94.19736	1	228.4553	-24.35084	1.136003E-006	7.308143E-005	9
	35	93	95.0169	213.4126	-114.5633	1	242.2182	-28.22761	1.225727E-006	6.789903E-005	9
	36	95	75.60484	219.8727	-139.4244	1	260.352	-32.37936	1.236951E-006	6.426751E-005	9
	37	98	54.50582	230.9143	-184.358	1	295.4814	-38.60326	1.213895E-006	6.641141E-005	9
	38	100	45.95588	238.1011	-213.3026	1	319.6719	-41.85553	1.155951E-006	7.13298E-005	9
	39	103	37.20238	248.0908	-255.5193	1	356.1449	-45.84508	1.224781E-006	7.595267E-005	9
	40	105	30.04808	258.8025	-305.5639	1	400.4348	-49.73651	7.153275E-008	0.0006362	8
	41	108	23.91582	273.5617	-372.0096	1	461.7653	-53.67065	-4.207958E-010	0.0006772	8
	42	110	18.60119	293.0302	-462.5066	1	547.5208	-57.64289	-7.846101E-008	0.0006575	8
	43	112	15.02404	313.5816	-557.1367	1	639.3237	-60.62724	-5.429644E-008	0.0006343	8
	44	115	12.01923	339.6045	-677.1941	1	757.5771	-63.3668	6.620183E-008	0.0006496	8
	45	117	9.450605	374.9201	-836.1017	1	916.3139	-65.84785	-3.602225E-008	0.0006513	8
	46	120	7.512019	417.8286	-1022.803	1	1104.856	-67.77933	-8.328064E-009	0.0006403	8
	47	122	5.978954	471.8456	-1249.155	1	1335.3	-69.30685	7.393832E-010	0.000648	8
	48	125	4.734848	544.1493	-1532.347	1	1626.095	-70.44962	4.61313E-008	0.0006479	8
	49	129	3.75601	635.4203	-1872.988	1	1977.838	-71.26025	2.856619E-008	0.0006438	8
	50	132	3.004808	749.1793	-2266.513	1	2387.122	-71.70908	9.045212E-008	0.0006067	8
	51	136	2.372217	902.3868	-2772.251	1	2915.421	-71.96957	4.650121E-008	0.0005826	8
	52	140	1.878005	1099.109	-3370.084	1	3544.786	-71.93694	6.373293E-008	0.000653	8
	53	145	1.512097	1331.679	-4032.273	1	4246.48	-71.72393	-3.392418E-008	0.0005621	7
	54	150	1.201923	1632.374	-4880.373	1	5146.133	-71.50608	-2.723813E-008	0.0006489	7
	55	156	0.956633	2012.088	-5878.035	1	6212.874	-71.10361	-5.115881E-008	-1.77025E-005	7
