EXPLAIN
TAG	EISPOT
TITLE	LABEL	Potentiostatic EIS	Test Identifier
DATE	LABEL	9/1/2020	Date
TIME	LABEL	0:50:12	Time
NOTES	NOTES	1	Notes...
	
PSTAT	PSTAT	REF3000-16137	Potentiostat
VDC	POTEN	0.00000E+000	T	DC Voltage (V)
FREQINIT	QUANT	3.00000E+005	Initial Freq. (Hz)
FREQFINAL	QUANT	1.00000E+000	Final Freq. (Hz)
PTSPERDEC	QUANT	1.00000E+001	Points/decade
VAC	QUANT	5.00000E+001	AC Voltage (mV rms)
AREA	QUANT	1.00000E+000	Sample Area (cm^2)
SPEED	SELECTOR	2	Optimize for:
ZGUESS	QUANT	1.00000E+003	Estimated Z (ohms)
EOC	QUANT	0	Open Circuit (V)
SEQUENCER	TOGGLE	TRUE	Run as Sequence
PSTATMODEL	IQUANT	5	Pstat Model
PSTATSECTION	LABEL	REF3000-16137	Pstat Section
PSTATSERIALNO	LABEL	16137	Pstat Serial Number
CTRLMODE	IQUANT	1	Control Mode
IESTAB	IQUANT	0	I/E Stability
CASPEED	IQUANT	1	Control Amp Speed
CONVENTION	IQUANT	1	Current Convention
ICHRANGE	IQUANT	2	Ich Range
ICHRANGEMODE	TOGGLE	F	Ich Auto Range
ICHOFFSETENABLE	TOGGLE	T	Ich Offset Enable
ICHOFFSET	QUANT	0	Ich Offset (V)
ICHFILTER	IQUANT	3	Ich Filter
VCHRANGE	IQUANT	2	Vch Range
VCHRANGEMODE	TOGGLE	F	Vch Auto Range
VCHOFFSETENABLE	TOGGLE	T	Vch Offset Enable
VCHOFFSET	QUANT	0	Vch Offset (V)
VCHFILTER	IQUANT	3	Vch Filter
ACHRANGE	IQUANT	2	Ach Range
ACHOFFSETENABLE	TOGGLE	F	Ach Offset Enable
ACHOFFSET	QUANT	0	Ach Offset (V)
ACHFILTER	IQUANT	3	Ach Filter
IERANGELOWERLIMIT	IQUANT	2	I/E Range Lower Limit
IERANGEMODE	TOGGLE	F	I/E AutoRange
IERANGE	IQUANT	11	I/E Range
POSFEEDENABLE	TOGGLE	F	Positive Feedback IR Comp
POSFEEDRESISTANCE	QUANT	0	Positive Feedback Resistance (ohm)
ACHSELECT	IQUANT	0	Ach Select
CABLEID	IQUANT	13	Cable ID
DCCALDATE	LABEL	7/31/2020	DC Calibration Date
ACCALDATE	LABEL	7/31/2020	AC Calibration Date
THERMOSELECT	IQUANT	1	Thermo Select
FRAMEWORKVERSION	QUANT	6.33	Framework Version
INSTRUMENTVERSION	LABEL	3.50	Instrument Version
COMPLIANCEVOLTAGE	IQUANT	0	Compliance Voltage
ZCURVE	TABLE
	Pt	Time	Freq	Zreal	Zimag	Zsig	Zmod	Zphz	Idc	Vdc	IERange
	#	s	Hz	ohm	ohm	V	ohm	°	A	V	#
	0	7	300046.9	139.5339	-3.977884	1	139.5906	-1.632967	-5.433803E-006	0.0010416	9
	1	10	238359.4	140.4186	-3.32219	1	140.4579	-1.355319	7.128209E-005	-0.003011	9
	2	13	189328.1	140.8966	-3.08545	1	140.9303	-1.254502	5.65659E-005	-0.0007238	9
	3	15	150421.9	141.2542	-2.660076	1	141.2793	-1.078857	7.151913E-005	-0.0018257	9
	4	18	119484.4	142.0051	-2.186616	1	142.0219	-0.8821796	4.979927E-005	-0.0002322	9
	5	21	94921.88	142.4023	-1.755732	1	142.4131	-0.7063856	-1.890421E-005	0.0008692	9
	6	23	75421.88	142.8626	-1.648566	1	142.8721	-0.6611363	2.533817E-005	-0.0007041	9
	7	26	59859.37	143.2907	-1.502541	1	143.2985	-0.6007797	-1.874793E-005	0.0008795	9
	8	28	47578.12	143.8131	-1.421549	1	143.8201	-0.5663332	-1.653155E-005	0.0002117	9
	9	31	37828.12	144.2227	-1.42296	1	144.2297	-0.5652853	-2.215273E-005	0.0007272	9
	10	33	30046.88	144.6836	-1.445482	1	144.6908	-0.5724024	-1.809834E-005	0.0009296	9
	11	36	23859.38	145.0624	-1.495203	1	145.0701	-0.5905447	-1.843631E-005	0.0008775	9
	12	38	18984.38	145.5309	-1.581816	1	145.5395	-0.6227393	2.629857E-005	-0.0005495	9
	13	40	15046.87	145.9918	-1.820014	1	146.0031	-0.7142437	-2.164934E-005	0.0005297	9
	14	43	11953.13	146.5042	-2.055262	1	146.5186	-0.803732	2.65412E-005	-0.0006504	9
	15	45	9515.62	146.8232	-2.349878	1	146.842	-0.9169303	-1.918946E-005	0.000995	9
	16	47	7546.875	147.3528	-2.594029	1	147.3757	-1.008542	4.722585E-006	-0.0005172	9
	17	50	5928.309	147.8602	-3.262824	1	147.8962	-1.264138	2.448731E-005	-0.0003206	9
	18	52	4733.456	148.4674	-3.857888	1	148.5175	-1.488482	2.461698E-005	-0.0003113	9
	19	54	3796.875	148.8732	-4.524021	1	148.9419	-1.740592	-1.41051E-005	0.0009885	9
	20	57	2987.132	149.602	-5.541262	1	149.7046	-2.121267	1.994025E-005	-0.0007925	9
	21	59	2390.625	150.3225	-6.903289	1	150.4809	-2.629358	-8.672889E-006	0.0008769	9
	22	61	1884.191	150.7223	-8.153212	1	150.9427	-3.096355	2.646113E-005	-0.0006671	9
	23	63	1516.544	151.5324	-9.87304	1	151.8537	-3.727816	1.262429E-005	-0.0006999	9
	24	66	1193.986	152.3858	-11.98819	1	152.8567	-4.498191	2.630787E-005	-0.0005208	9
	25	68	946.5144	153.2709	-14.72957	1	153.977	-5.489357	-2.170706E-005	0.0008963	9
	26	71	751.7689	154.2461	-17.97912	1	155.2904	-6.648468	-1.895069E-005	0.0004256	9
	27	73	597.4265	155.6879	-21.82326	1	157.21	-7.979338	1.367022E-005	0.0001634	9
	28	75	477.4305	156.8193	-26.8345	1	159.0987	-9.71025	1.29953E-006	7.249015E-005	9
	29	78	376.6741	158.4467	-33.08105	1	161.8632	-11.793	1.189904E-006	7.242942E-005	9
	30	80	298.2954	160.3715	-40.65215	1	165.4437	-14.22415	1.175321E-006	7.116222E-005	9
	31	82	237.7717	162.6609	-49.64306	1	170.0676	-16.97185	1.214287E-006	6.556634E-005	9
	32	85	189.0121	165.4657	-60.72551	1	176.2569	-20.15301	1.169301E-006	7.075723E-005	9
	33	87	150.2404	168.8895	-74.18526	1	184.4644	-23.71363	1.256109E-006	7.653521E-005	9
	34	90	119.1737	173.0847	-90.67464	1	195.3975	-27.6489	1.162368E-006	7.725153E-005	9
	35	92	95.0169	177.995	-110.1724	1	209.3327	-31.75599	1.110781E-006	7.669316E-005	9
	36	94	75.60484	183.9391	-134.01	1	227.5792	-36.07543	1.153735E-006	7.632138E-005	9
	37	97	54.50582	194.1502	-177.196	1	262.855	-42.38592	1.105341E-006	6.622604E-005	9
	38	99	45.95588	200.7776	-205.1342	1	287.0395	-45.61493	1.179301E-006	7.436854E-005	9
	39	102	37.20238	209.9899	-245.8996	1	323.3611	-49.5038	1.212185E-006	7.260307E-005	9
	40	104	30.04808	220.9295	-295.6146	1	369.0499	-53.22716	1.126253E-006	7.447808E-005	9
	41	107	23.91582	233.8577	-358.757	1	428.2476	-56.90146	4.652828E-008	0.0006472	8
	42	109	18.60119	252.3885	-446.6636	1	513.0383	-60.53126	-6.029839E-008	0.000689	8
	43	111	15.02404	272.0213	-538.5461	1	603.3469	-63.20152	1.758545E-007	0.0006532	8
	44	113	12.01923	297.3758	-655.0108	1	719.3549	-65.58189	7.681311E-008	0.0006483	8
	45	116	9.450605	332.2167	-809.244	1	874.7822	-67.68051	-3.808395E-009	0.0006488	8
	46	118	7.512019	374.902	-989.819	1	1058.439	-69.25542	2.690301E-008	0.0006433	8
	47	121	5.978954	428.8153	-1208.3	1	1282.136	-70.46066	5.101706E-008	0.0006489	8
	48	124	4.734848	501.6074	-1480.718	1	1563.374	-71.28571	9.76984E-008	0.0006519	8
	49	127	3.75601	593.6748	-1807.143	1	1902.161	-71.81384	8.325909E-008	0.0006478	8
	50	131	3.004808	707.392	-2182.916	1	2294.673	-72.04465	1.016646E-007	0.0006237	8
	51	135	2.372217	864.2191	-2662.012	1	2798.782	-72.01404	9.135795E-008	0.0005718	8
	52	139	1.878005	1056.142	-3234.454	1	3402.518	-71.91666	1.199858E-007	0.000647	8
	53	143	1.512097	1278.358	-3854.127	1	4060.603	-71.65007	9.287897E-008	0.0006454	8
	54	149	1.201923	1589.453	-4664.532	1	4927.902	-71.1833	-1.665051E-008	0.0006466	7
	55	155	0.956633	1975.182	-5603.805	1	5941.714	-70.58389	-6.192998E-008	-2.288559E-005	7
