EXPLAIN
TAG	EISPOT
TITLE	LABEL	Potentiostatic EIS	Test Identifier
DATE	LABEL	9/1/2020	Date
TIME	LABEL	1:38:49	Time
NOTES	NOTES	1	Notes...
	
PSTAT	PSTAT	REF3000-16137	Potentiostat
VDC	POTEN	0.00000E+000	T	DC Voltage (V)
FREQINIT	QUANT	3.00000E+005	Initial Freq. (Hz)
FREQFINAL	QUANT	1.00000E+000	Final Freq. (Hz)
PTSPERDEC	QUANT	1.00000E+001	Points/decade
VAC	QUANT	5.00000E+001	AC Voltage (mV rms)
AREA	QUANT	1.00000E+000	Sample Area (cm^2)
SPEED	SELECTOR	2	Optimize for:
ZGUESS	QUANT	1.00000E+003	Estimated Z (ohms)
EOC	QUANT	0	Open Circuit (V)
SEQUENCER	TOGGLE	TRUE	Run as Sequence
PSTATMODEL	IQUANT	5	Pstat Model
PSTATSECTION	LABEL	REF3000-16137	Pstat Section
PSTATSERIALNO	LABEL	16137	Pstat Serial Number
CTRLMODE	IQUANT	1	Control Mode
IESTAB	IQUANT	0	I/E Stability
CASPEED	IQUANT	1	Control Amp Speed
CONVENTION	IQUANT	1	Current Convention
ICHRANGE	IQUANT	2	Ich Range
ICHRANGEMODE	TOGGLE	F	Ich Auto Range
ICHOFFSETENABLE	TOGGLE	T	Ich Offset Enable
ICHOFFSET	QUANT	0	Ich Offset (V)
ICHFILTER	IQUANT	3	Ich Filter
VCHRANGE	IQUANT	2	Vch Range
VCHRANGEMODE	TOGGLE	F	Vch Auto Range
VCHOFFSETENABLE	TOGGLE	T	Vch Offset Enable
VCHOFFSET	QUANT	0	Vch Offset (V)
VCHFILTER	IQUANT	3	Vch Filter
ACHRANGE	IQUANT	2	Ach Range
ACHOFFSETENABLE	TOGGLE	F	Ach Offset Enable
ACHOFFSET	QUANT	0	Ach Offset (V)
ACHFILTER	IQUANT	3	Ach Filter
IERANGELOWERLIMIT	IQUANT	2	I/E Range Lower Limit
IERANGEMODE	TOGGLE	F	I/E AutoRange
IERANGE	IQUANT	11	I/E Range
POSFEEDENABLE	TOGGLE	F	Positive Feedback IR Comp
POSFEEDRESISTANCE	QUANT	0	Positive Feedback Resistance (ohm)
ACHSELECT	IQUANT	0	Ach Select
CABLEID	IQUANT	13	Cable ID
DCCALDATE	LABEL	7/31/2020	DC Calibration Date
ACCALDATE	LABEL	7/31/2020	AC Calibration Date
THERMOSELECT	IQUANT	1	Thermo Select
FRAMEWORKVERSION	QUANT	6.33	Framework Version
INSTRUMENTVERSION	LABEL	3.50	Instrument Version
COMPLIANCEVOLTAGE	IQUANT	0	Compliance Voltage
ZCURVE	TABLE
	Pt	Time	Freq	Zreal	Zimag	Zsig	Zmod	Zphz	Idc	Vdc	IERange
	#	s	Hz	ohm	ohm	V	ohm	°	A	V	#
	0	25	300046.9	713.1166	-3523.853	1	3595.285	-78.55965	-9.203685E-005	0.0042026	9
	1	56	238359.4	990.865	-4202.428	1	4317.663	-76.73289	2.051435E-005	-0.0004298	9
	2	72	189328.1	1377.643	-5228.769	1	5407.21	-75.23952	8.921902E-005	-0.002528	9
	3	82	150421.9	2067.331	-6242.472	1	6575.889	-71.67658	2.353382E-005	-0.0003795	9
	4	93	119484.4	3087.107	-7239.309	1	7870.058	-66.90482	-1.737796E-005	0.0170455	8
	5	101	94921.88	4208.123	-8781.629	1	9737.83	-64.39644	-2.099262E-005	0.0031168	8
	6	109	75421.88	5557.922	-10284.57	1	11690.29	-61.61262	2.619717E-005	-0.0053032	8
	7	118	59859.37	7713.452	-11615.28	1	13943.17	-56.41273	-1.020035E-005	-0.0018705	8
	8	127	47578.12	11836.78	-12552.34	1	17253.13	-46.68054	-1.219568E-006	-0.0121177	7
	9	133	37828.12	14267.09	-13386.5	1	19563.95	-43.1761	6.335787E-006	-0.0099617	7
	10	139	30046.88	16997.39	-13664.42	1	21808.88	-38.79624	7.222803E-006	-0.023023	7
	11	146	23859.38	19728.09	-13260.09	1	23770.31	-33.90672	-3.2654E-006	-0.0044686	7
	12	150	18984.38	21713.65	-14670.25	1	26204.94	-34.04387	9.20994E-006	0.0038888	8
	13	156	15046.87	25138.07	-12771.77	1	28196.47	-26.93352	7.102316E-006	-0.0173076	7
	14	162	11953.13	27120.72	-12345.38	1	29798.35	-24.47507	-1.033719E-005	-0.0018154	8
	15	168	9515.62	29179.06	-10867.37	1	31137.07	-20.42721	-6.311583E-006	0.0246224	7
	16	173	7546.875	30805.76	-9929.07	1	32366.36	-17.86477	-1.427743E-006	0.0198596	7
	17	179	5928.309	32284.57	-8998.355	1	33515.13	-15.57422	-1.587471E-006	0.0204989	7
	18	184	4733.456	33641.33	-9284.114	1	34898.91	-15.42809	3.208527E-006	-0.0229193	7
	19	189	3796.875	34677.68	-8070.341	1	35604.38	-13.10093	-6.865803E-006	0.0226488	7
	20	195	2987.132	35956.29	-7740.275	1	36779.98	-12.14861	-1.585263E-006	0.0205244	7
	21	200	2390.625	36910.01	-7951.148	1	37756.71	-12.15687	5.017378E-007	0.0150011	7
	22	206	1884.191	38255.3	-8296.424	1	39144.59	-12.23625	-4.983914E-006	0.0252027	7
	23	211	1516.544	41020.88	-10330.6	1	42301.7	-14.13529	-1.657407E-005	0.0008975	8
	24	217	1193.986	41196.32	-8286.415	1	42021.45	-11.37297	-4.974682E-006	0.0251945	7
	25	223	946.5144	42824.09	-9450.141	1	43854.39	-12.44422	2.69109E-006	0.007705	7
	26	227	751.7689	42457.41	-10904.33	1	43835.33	-14.40395	-3.451949E-006	0.0239636	7
	27	230	597.4265	43533.88	-9691.83	1	44599.67	-12.55092	-3.281158E-006	-0.004426	7
	28	234	477.4305	45616.42	-12059.66	1	47183.61	-14.80855	-8.065174E-008	0.0006095	7
	29	237	376.6741	48717.03	-12361.88	1	50260.97	-14.23822	-1.046849E-008	0.00061	6
	30	240	298.2954	50469.75	-13851.65	1	52336.07	-15.34719	-9.941314E-009	0.000621	6
	31	242	237.7717	52474.34	-15542.55	1	54727.75	-16.49894	-1.187631E-008	0.0006806	6
	32	245	189.0121	54773.41	-17397.33	1	57469.94	-17.62107	-1.0638E-008	0.0007096	6
	33	247	150.2404	57288.11	-19530.53	1	60525.77	-18.82515	-1.112793E-008	0.0007063	6
	34	250	119.1737	59684.75	-21117.88	1	63310.62	-19.48499	-9.732487E-009	0.0006154	6
	35	252	95.0169	63564.85	-24174.55	1	68006.61	-20.82247	-1.139396E-008	0.0007309	6
	36	255	75.60484	67378.33	-26788.92	1	72508.52	-21.68225	-1.032842E-008	0.0006124	6
	37	257	54.50582	73019.75	-30584.13	1	79166.11	-22.72624	-9.87402E-009	0.0006161	6
	38	260	45.95588	77242.58	-33059.59	1	84019.95	-23.17078	-1.021137E-008	0.0006932	6
	39	262	37.20238	82212.73	-35799.24	1	89668.95	-23.53055	-1.019154E-008	0.0006135	6
	40	264	30.04808	88108.1	-38492.54	1	96149.4	-23.59949	-9.963596E-009	0.0006935	6
	41	267	23.91582	94976.45	-41344.07	1	103585	-23.52391	-1.170293E-008	0.0006907	6
	42	270	18.60119	103151.1	-44412.13	1	112305.8	-23.29449	-1.05113E-008	0.0006139	6
	43	272	15.02404	110679.4	-46230.18	1	119946.5	-22.67002	-8.590444E-009	0.000651	6
	44	275	12.01923	119180.4	-47909.75	1	128449.6	-21.89981	-1.113183E-008	0.0006957	6
	45	277	9.450605	128685.9	-48988.79	1	137695.2	-20.84107	-1.360815E-008	0.0006848	6
	46	280	7.512019	137995.5	-49445.78	1	146586.6	-19.71334	-1.25054E-008	0.0006561	6
	47	283	5.978954	147568.7	-49456.5	1	155635.7	-18.52818	-1.099446E-008	0.000711	6
	48	287	4.734848	157146.5	-48923.44	1	164585.9	-17.29261	-1.146248E-008	0.0006173	6
	49	291	3.75601	166728.8	-48248.8	1	173569.7	-16.13964	-1.159236E-008	0.0006387	6
	50	296	3.004808	176425.6	-47777.12	1	182780.3	-15.15261	-1.277942E-008	0.0007267	6
	51	303	2.372217	185881.2	-46919.68	1	191711.5	-14.16653	-9.812162E-009	0.0007371	6
	52	307	1.878005	194437.8	-46468.35	1	199913.4	-13.44091	-1.34535E-008	0.0006379	6
	53	312	1.512097	202761.2	-46564.58	1	208039.3	-12.93384	-1.505962E-008	0.0007097	6
	54	317	1.201923	211607.8	-46878.42	1	216738.2	-12.49125	-1.024672E-008	0.000663	6
	55	323	0.956633	221416.9	-48481.14	1	226662.5	-12.35049	-1.772976E-008	2.27908E-005	6
