Z60W Data File: Version 1.1
CorrTest for Windows: SN CS310H1805157  V5.2.1111.9  2.5H6.220118
Sweep Frequency: Control Voltage
  Date:4-29-2026   Time:13:03:29
  Begin Information:            Cell Information
      Surface Area:           1
      Density:                7.8
      Weight:                 28
  End Information:              Cell Information
  Freq (Hz)     Ampl(mV)       Bias(V)      Time(Sec)       Z'(Ohm.cm^2)    Z''(Ohm.cm^2)        GD       Err      Range
End Comments
  3.07200E+05,	1.00000E+01,	5.50987E-02,	2.25577E-02,	-1.28638E+00,	2.81348E+00,	0.00000E+00,	0,	0
  2.76480E+05,	1.00000E+01,	5.50987E-02,	1.63780E+00,	-7.19931E-01,	2.25184E+00,	0.00000E+00,	0,	0
  1.97486E+05,	1.00000E+01,	5.50987E-02,	2.53233E+00,	2.41134E-02,	1.63504E+00,	0.00000E+00,	0,	0
  1.53600E+05,	1.00000E+01,	5.50987E-02,	3.43677E+00,	3.04843E-01,	1.23172E+00,	0.00000E+00,	0,	0
  1.25673E+05,	1.00000E+01,	5.50987E-02,	4.34182E+00,	4.75032E-01,	9.56874E-01,	0.00000E+00,	0,	0
  9.87429E+04,	1.00000E+01,	5.50987E-02,	5.24565E+00,	5.92213E-01,	7.15773E-01,	0.00000E+00,	0,	0
  7.68000E+04,	1.00000E+01,	5.50987E-02,	6.13861E+00,	6.71570E-01,	5.16426E-01,	0.00000E+00,	0,	0
  6.01043E+04,	1.00000E+01,	5.50987E-02,	9.33203E+00,	7.30730E-01,	2.89675E-01,	0.00000E+00,	0,	0
  4.93714E+04,	1.00000E+01,	5.50987E-02,	1.09244E+01,	7.55396E-01,	1.71864E-01,	0.00000E+00,	0,	0
  3.84000E+04,	1.00000E+01,	5.50987E-02,	1.18529E+01,	7.76406E-01,	3.69645E-02,	0.00000E+00,	0,	0
  3.00522E+04,	1.00000E+01,	5.50987E-02,	1.27233E+01,	7.95607E-01,	-9.41768E-02,	0.00000E+00,	0,	0
  2.38345E+04,	1.00000E+01,	5.50987E-02,	1.35859E+01,	8.14955E-01,	-2.15842E-01,	0.00000E+00,	0,	0
  1.86811E+04,	1.00000E+01,	5.50987E-02,	1.44125E+01,	8.39092E-01,	-3.51507E-01,	0.00000E+00,	0,	0
  1.47064E+04,	1.00000E+01,	5.50987E-02,	1.53659E+01,	8.65889E-01,	-4.97001E-01,	0.00000E+00,	0,	0
  1.15200E+04,	1.00000E+01,	5.50987E-02,	1.63240E+01,	9.01387E-01,	-6.63685E-01,	0.00000E+00,	0,	0
  9.60000E+03,	1.00000E+01,	5.50987E-02,	1.79346E+01,	9.30135E-01,	-8.06754E-01,	0.00000E+00,	0,	0
  7.51304E+03,	1.00000E+01,	5.50987E-02,	1.88164E+01,	9.77752E-01,	-1.02746E+00,	0.00000E+00,	0,	0
  5.76000E+03,	1.00000E+01,	5.50987E-02,	1.97113E+01,	1.03810E+00,	-1.31987E+00,	0.00000E+00,	0,	0
  4.54737E+03,	1.00000E+01,	5.50987E-02,	2.06044E+01,	1.10661E+00,	-1.63426E+00,	0.00000E+00,	0,	0
  3.60000E+03,	1.00000E+01,	5.50987E-02,	2.15936E+01,	1.18380E+00,	-2.01764E+00,	0.00000E+00,	0,	0
  2.88000E+03,	1.00000E+01,	5.50987E-02,	2.24839E+01,	1.27798E+00,	-2.45936E+00,	0.00000E+00,	0,	0
  2.27368E+03,	1.00000E+01,	5.50987E-02,	2.47747E+01,	1.38122E+00,	-3.00688E+00,	0.00000E+00,	0,	0
  1.78144E+03,	1.00000E+01,	5.50987E-02,	2.55602E+01,	1.53058E+00,	-3.72595E+00,	0.00000E+00,	0,	0
  1.41639E+03,	1.00000E+01,	5.50987E-02,	2.64536E+01,	1.70155E+00,	-4.56459E+00,	0.00000E+00,	0,	0
  1.12208E+03,	1.00000E+01,	5.50987E-02,	2.75062E+01,	1.92855E+00,	-5.59747E+00,	0.00000E+00,	0,	0
  9.00000E+02,	1.00000E+01,	5.50987E-02,	3.24796E+01,	2.19355E+00,	-6.81682E+00,	0.00000E+00,	0,	0
  7.20000E+02,	1.00000E+01,	5.50987E-02,	3.38485E+01,	2.52527E+00,	-8.28900E+00,	0.00000E+00,	0,	0
  5.68421E+02,	1.00000E+01,	5.50987E-02,	3.52044E+01,	2.97392E+00,	-1.01903E+01,	0.00000E+00,	0,	0
  4.40816E+02,	1.00000E+01,	5.50987E-02,	3.82328E+01,	3.60721E+00,	-1.27417E+01,	0.00000E+00,	0,	0
  3.54098E+02,	1.00000E+01,	5.50987E-02,	4.05604E+01,	4.29353E+00,	-1.53969E+01,	0.00000E+00,	0,	0
  2.76923E+02,	1.00000E+01,	5.50987E-02,	4.31898E+01,	5.28280E+00,	-1.90068E+01,	0.00000E+00,	0,	0
  2.20408E+02,	1.00000E+01,	5.50987E-02,	4.61559E+01,	6.45489E+00,	-2.30924E+01,	0.00000E+00,	0,	0
  1.74194E+02,	1.00000E+01,	5.50987E-02,	4.94621E+01,	7.99613E+00,	-2.81589E+01,	0.00000E+00,	0,	0
  1.37580E+02,	1.00000E+01,	5.50987E-02,	5.31855E+01,	9.97646E+00,	-3.42940E+01,	0.00000E+00,	0,	0
  1.09091E+02,	1.00000E+01,	5.50987E-02,	5.72599E+01,	1.24479E+01,	-4.15529E+01,	0.00000E+00,	0,	0
  8.70968E+01,	1.00000E+01,	5.50987E-02,	6.29616E+01,	1.54407E+01,	-4.99984E+01,	0.00000E+00,	0,	0
  6.83544E+01,	1.00000E+01,	5.50987E-02,	6.80419E+01,	1.95303E+01,	-6.10631E+01,	0.00000E+00,	0,	0
  5.45455E+01,	1.00000E+01,	5.50987E-02,	7.35059E+01,	2.44810E+01,	-7.18066E+01,	0.00000E+00,	0,	0
  4.28571E+01,	1.00000E+01,	5.50987E-02,	7.70978E+01,	3.07107E+01,	-8.63324E+01,	0.00000E+00,	0,	0
  3.39623E+01,	1.00000E+01,	5.50987E-02,	8.08332E+01,	3.72823E+01,	-1.02705E+02,	0.00000E+00,	0,	0
  2.68657E+01,	1.00000E+01,	5.50987E-02,	8.46884E+01,	4.61340E+01,	-1.22599E+02,	0.00000E+00,	0,	0
  2.13439E+01,	1.00000E+01,	5.50987E-02,	8.84971E+01,	5.62359E+01,	-1.45310E+02,	0.00000E+00,	0,	0
  1.73077E+01,	1.00000E+01,	5.50987E-02,	9.51796E+01,	6.68859E+01,	-1.69780E+02,	0.00000E+00,	0,	0
  1.36364E+01,	1.00000E+01,	5.50987E-02,	1.00207E+02,	8.04591E+01,	-2.02099E+02,	0.00000E+00,	0,	0
  1.07143E+01,	1.00000E+01,	5.50987E-02,	1.03110E+02,	9.61633E+01,	-2.41128E+02,	0.00000E+00,	0,	0
  8.49057E+00,	1.00000E+01,	5.50987E-02,	1.07320E+02,	1.13313E+02,	-2.86289E+02,	0.00000E+00,	0,	0
  6.71642E+00,	1.00000E+01,	5.50987E-02,	1.09819E+02,	1.32841E+02,	-3.41120E+02,	0.00000E+00,	0,	0
  5.29412E+00,	1.00000E+01,	5.50987E-02,	1.12756E+02,	1.54981E+02,	-4.08138E+02,	0.00000E+00,	0,	0
  4.16667E+00,	1.00000E+01,	5.50987E-02,	1.16252E+02,	1.79508E+02,	-4.90770E+02,	0.00000E+00,	0,	0
  3.30882E+00,	1.00000E+01,	5.50987E-02,	1.20517E+02,	2.05615E+02,	-5.88030E+02,	0.00000E+00,	0,	0
  2.61628E+00,	1.00000E+01,	5.50987E-02,	1.24468E+02,	2.35134E+02,	-7.09483E+02,	0.00000E+00,	0,	0
  2.07373E+00,	1.00000E+01,	5.50987E-02,	1.29269E+02,	2.67454E+02,	-8.58275E+02,	0.00000E+00,	0,	0
  1.64234E+00,	1.00000E+01,	5.50987E-02,	1.35049E+02,	3.03697E+02,	-1.04304E+03,	0.00000E+00,	0,	0
  1.30058E+00,	1.00000E+01,	5.50987E-02,	1.39241E+02,	3.45648E+02,	-1.27171E+03,	0.00000E+00,	0,	0
  1.03211E+00,	1.00000E+01,	5.50987E-02,	1.43640E+02,	3.93137E+02,	-1.55361E+03,	0.00000E+00,	0,	0
  8.15217E-01,	1.00000E+01,	5.50987E-02,	1.50596E+02,	4.49346E+02,	-1.90902E+03,	0.00000E+00,	0,	0
  6.46552E-01,	1.00000E+01,	5.50987E-02,	1.59704E+02,	5.01086E+02,	-2.34653E+03,	0.00000E+00,	0,	0
  5.11364E-01,	1.00000E+01,	5.50987E-02,	1.64717E+02,	5.74433E+02,	-2.91388E+03,	0.00000E+00,	0,	0
  4.07609E-01,	1.00000E+01,	5.50987E-02,	1.70769E+02,	6.65538E+02,	-3.57550E+03,	0.00000E+00,	0,	0
  3.21429E-01,	1.00000E+01,	5.50987E-02,	1.77892E+02,	7.72384E+02,	-4.46881E+03,	0.00000E+00,	0,	0
  2.54525E-01,	1.00000E+01,	5.50987E-02,	1.86705E+02,	9.10988E+02,	-5.52022E+03,	0.00000E+00,	0,	0
  2.01613E-01,	1.00000E+01,	5.50987E-02,	1.97578E+02,	1.07244E+03,	-6.82897E+03,	0.00000E+00,	0,	0
  1.59574E-01,	1.00000E+01,	5.50987E-02,	2.11040E+02,	1.27065E+03,	-8.45952E+03,	0.00000E+00,	0,	0
  1.26689E-01,	1.00000E+01,	5.50987E-02,	2.27946E+02,	1.50683E+03,	-1.04570E+04,	0.00000E+00,	0,	0
  1.00446E-01,	1.00000E+01,	5.50987E-02,	2.48832E+02,	1.78747E+03,	-1.29508E+04,	0.00000E+00,	0,	0