Z60W Data File: Version 1.1
CorrTest for Windows: SN CS310H1805157  V5.2.1111.9  2.5H6.220118
Sweep Frequency: Control Voltage
  Date:4-29-2026   Time:09:47:58
  Begin Information:            Cell Information
      Surface Area:           1
      Density:                7.8
      Weight:                 28
  End Information:              Cell Information
  Freq (Hz)     Ampl(mV)       Bias(V)      Time(Sec)       Z'(Ohm.cm^2)    Z''(Ohm.cm^2)        GD       Err      Range
End Comments
  3.07200E+05,	1.00000E+01,	4.64819E-02,	3.34667E-02,	-1.53487E+00,	2.78355E+00,	0.00000E+00,	0,	0
  2.76480E+05,	1.00000E+01,	4.64819E-02,	1.65587E+00,	-9.13953E-01,	2.16507E+00,	0.00000E+00,	0,	0
  1.97486E+05,	1.00000E+01,	4.64819E-02,	2.59928E+00,	-2.56616E-01,	1.54951E+00,	0.00000E+00,	0,	0
  1.53600E+05,	1.00000E+01,	4.64819E-02,	3.50783E+00,	7.81718E-02,	1.18222E+00,	0.00000E+00,	0,	0
  1.25673E+05,	1.00000E+01,	4.64819E-02,	4.44805E+00,	2.22378E-01,	9.36416E-01,	0.00000E+00,	0,	0
  9.87429E+04,	1.00000E+01,	4.64819E-02,	5.35207E+00,	3.59926E-01,	7.05689E-01,	0.00000E+00,	0,	0
  7.68000E+04,	1.00000E+01,	4.64819E-02,	6.26943E+00,	4.43851E-01,	5.19317E-01,	0.00000E+00,	0,	0
  6.01043E+04,	1.00000E+01,	4.64819E-02,	9.52070E+00,	5.03629E-01,	3.16265E-01,	0.00000E+00,	0,	0
  4.93714E+04,	1.00000E+01,	4.64819E-02,	1.10983E+01,	5.21829E-01,	2.14006E-01,	0.00000E+00,	0,	0
  3.84000E+04,	1.00000E+01,	4.64819E-02,	1.20120E+01,	5.38338E-01,	9.03556E-02,	0.00000E+00,	0,	0
  3.00522E+04,	1.00000E+01,	4.64819E-02,	1.28938E+01,	5.52273E-01,	-2.27821E-02,	0.00000E+00,	0,	0
  2.38345E+04,	1.00000E+01,	4.64819E-02,	1.37687E+01,	5.65563E-01,	-1.27039E-01,	0.00000E+00,	0,	0
  1.86811E+04,	1.00000E+01,	4.64819E-02,	1.46405E+01,	5.80879E-01,	-2.41763E-01,	0.00000E+00,	0,	0
  1.47064E+04,	1.00000E+01,	4.64819E-02,	1.56031E+01,	6.00248E-01,	-3.62728E-01,	0.00000E+00,	0,	0
  1.15200E+04,	1.00000E+01,	4.64819E-02,	1.66039E+01,	6.24583E-01,	-5.00437E-01,	0.00000E+00,	0,	0
  9.60000E+03,	1.00000E+01,	4.64819E-02,	1.81840E+01,	6.45084E-01,	-6.16705E-01,	0.00000E+00,	0,	0
  7.51304E+03,	1.00000E+01,	4.64819E-02,	1.90504E+01,	6.79329E-01,	-7.98032E-01,	0.00000E+00,	0,	0
  5.76000E+03,	1.00000E+01,	4.64819E-02,	1.99606E+01,	7.24280E-01,	-1.03555E+00,	0.00000E+00,	0,	0
  4.54737E+03,	1.00000E+01,	4.64819E-02,	2.08962E+01,	7.76204E-01,	-1.29474E+00,	0.00000E+00,	0,	0
  3.60000E+03,	1.00000E+01,	4.64819E-02,	2.18951E+01,	8.39184E-01,	-1.60309E+00,	0.00000E+00,	0,	0
  2.88000E+03,	1.00000E+01,	4.64819E-02,	2.27948E+01,	9.14425E-01,	-1.96221E+00,	0.00000E+00,	0,	0
  2.27368E+03,	1.00000E+01,	4.64819E-02,	2.50622E+01,	1.00761E+00,	-2.41049E+00,	0.00000E+00,	0,	0
  1.78144E+03,	1.00000E+01,	4.64819E-02,	2.58559E+01,	1.14220E+00,	-2.98302E+00,	0.00000E+00,	0,	0
  1.41639E+03,	1.00000E+01,	4.64819E-02,	2.67861E+01,	1.29627E+00,	-3.66198E+00,	0.00000E+00,	0,	0
  1.12208E+03,	1.00000E+01,	4.64819E-02,	2.78119E+01,	1.50031E+00,	-4.48721E+00,	0.00000E+00,	0,	0
  9.00000E+02,	1.00000E+01,	4.64819E-02,	3.28128E+01,	1.74846E+00,	-5.44265E+00,	0.00000E+00,	0,	0
  7.20000E+02,	1.00000E+01,	4.64819E-02,	3.41946E+01,	2.06270E+00,	-6.59472E+00,	0.00000E+00,	0,	0
  5.68421E+02,	1.00000E+01,	4.64819E-02,	3.55599E+01,	2.48837E+00,	-8.06983E+00,	0.00000E+00,	0,	0
  4.40816E+02,	1.00000E+01,	4.64819E-02,	3.70286E+01,	3.07730E+00,	-1.00000E+01,	0.00000E+00,	0,	0
  3.54098E+02,	1.00000E+01,	4.64819E-02,	3.93890E+01,	3.72633E+00,	-1.20073E+01,	0.00000E+00,	0,	0
  2.76923E+02,	1.00000E+01,	4.64819E-02,	4.20437E+01,	4.66074E+00,	-1.47013E+01,	0.00000E+00,	0,	0
  2.20408E+02,	1.00000E+01,	4.64819E-02,	4.49941E+01,	5.75396E+00,	-1.76880E+01,	0.00000E+00,	0,	0
  1.74194E+02,	1.00000E+01,	4.64819E-02,	4.82438E+01,	7.16845E+00,	-2.13339E+01,	0.00000E+00,	0,	0
  1.37580E+02,	1.00000E+01,	4.64819E-02,	5.19414E+01,	8.92367E+00,	-2.56512E+01,	0.00000E+00,	0,	0
  1.09091E+02,	1.00000E+01,	4.64819E-02,	5.60074E+01,	1.10183E+01,	-3.06649E+01,	0.00000E+00,	0,	0
  8.70968E+01,	1.00000E+01,	4.64819E-02,	6.41513E+01,	1.34844E+01,	-3.65126E+01,	0.00000E+00,	0,	0
  6.83544E+01,	1.00000E+01,	4.64819E-02,	6.91751E+01,	1.66226E+01,	-4.40046E+01,	0.00000E+00,	0,	0
  5.45455E+01,	1.00000E+01,	4.64819E-02,	7.46450E+01,	2.01518E+01,	-5.11942E+01,	0.00000E+00,	0,	0
  4.28571E+01,	1.00000E+01,	4.64819E-02,	7.81774E+01,	2.44077E+01,	-6.10373E+01,	0.00000E+00,	0,	0
  3.39623E+01,	1.00000E+01,	4.64819E-02,	8.19443E+01,	2.86594E+01,	-7.22682E+01,	0.00000E+00,	0,	0
  2.68657E+01,	1.00000E+01,	4.64819E-02,	8.57907E+01,	3.42579E+01,	-8.60709E+01,	0.00000E+00,	0,	0
  2.13439E+01,	1.00000E+01,	4.64819E-02,	8.95967E+01,	4.04261E+01,	-1.02076E+02,	0.00000E+00,	0,	0
  1.73077E+01,	1.00000E+01,	4.64819E-02,	9.62725E+01,	4.67246E+01,	-1.19578E+02,	0.00000E+00,	0,	0
  1.36364E+01,	1.00000E+01,	4.64819E-02,	1.01333E+02,	5.44965E+01,	-1.43162E+02,	0.00000E+00,	0,	0
  1.07143E+01,	1.00000E+01,	4.64819E-02,	1.04314E+02,	6.31625E+01,	-1.72215E+02,	0.00000E+00,	0,	0
  8.49057E+00,	1.00000E+01,	4.64819E-02,	1.08510E+02,	7.23848E+01,	-2.06725E+02,	0.00000E+00,	0,	0
  6.71642E+00,	1.00000E+01,	4.64819E-02,	1.11007E+02,	8.25789E+01,	-2.49472E+02,	0.00000E+00,	0,	0
  5.29412E+00,	1.00000E+01,	4.64819E-02,	1.13954E+02,	9.41953E+01,	-3.03026E+02,	0.00000E+00,	0,	0
  4.16667E+00,	1.00000E+01,	4.64819E-02,	1.17462E+02,	1.07264E+02,	-3.70328E+02,	0.00000E+00,	0,	0
  3.30882E+00,	1.00000E+01,	4.64819E-02,	1.21691E+02,	1.21595E+02,	-4.50778E+02,	0.00000E+00,	0,	0
  2.61628E+00,	1.00000E+01,	4.64819E-02,	1.25675E+02,	1.38629E+02,	-5.52178E+02,	0.00000E+00,	0,	0
  2.07373E+00,	1.00000E+01,	4.64819E-02,	1.30493E+02,	1.58178E+02,	-6.77121E+02,	0.00000E+00,	0,	0
  1.64234E+00,	1.00000E+01,	4.64819E-02,	1.36275E+02,	1.81370E+02,	-8.32731E+02,	0.00000E+00,	0,	0
  1.30058E+00,	1.00000E+01,	4.64819E-02,	1.40435E+02,	2.09855E+02,	-1.02577E+03,	0.00000E+00,	0,	0
  1.03211E+00,	1.00000E+01,	4.64819E-02,	1.44843E+02,	2.43560E+02,	-1.26330E+03,	0.00000E+00,	0,	0
  8.15217E-01,	1.00000E+01,	4.64819E-02,	1.51804E+02,	2.85155E+02,	-1.56258E+03,	0.00000E+00,	0,	0
  6.46552E-01,	1.00000E+01,	4.64819E-02,	1.60938E+02,	3.24901E+02,	-1.93050E+03,	0.00000E+00,	0,	0
  5.11364E-01,	1.00000E+01,	4.64819E-02,	1.65947E+02,	3.83806E+02,	-2.40919E+03,	0.00000E+00,	0,	0
  4.07609E-01,	1.00000E+01,	4.64819E-02,	1.71992E+02,	4.56566E+02,	-2.96649E+03,	0.00000E+00,	0,	0
  3.21429E-01,	1.00000E+01,	4.64819E-02,	1.79110E+02,	5.43592E+02,	-3.71481E+03,	0.00000E+00,	0,	0
  2.54525E-01,	1.00000E+01,	4.64819E-02,	1.87888E+02,	6.59212E+02,	-4.60231E+03,	0.00000E+00,	0,	0
  2.01613E-01,	1.00000E+01,	4.64819E-02,	1.98728E+02,	7.98816E+02,	-5.70241E+03,	0.00000E+00,	0,	0
  1.59574E-01,	1.00000E+01,	4.64819E-02,	2.12187E+02,	9.81640E+02,	-7.07575E+03,	0.00000E+00,	0,	0
  1.26689E-01,	1.00000E+01,	4.64819E-02,	2.29095E+02,	1.21239E+03,	-8.75692E+03,	0.00000E+00,	0,	0
  1.00446E-01,	1.00000E+01,	4.64819E-02,	2.49975E+02,	1.49926E+03,	-1.08530E+04,	0.00000E+00,	0,	0