Z60W Data File: Version 1.1
CorrTest for Windows: SN CS310H1805157  V5.2.1111.9  2.5H6.220118
Sweep Frequency: Control Voltage
  Date:4-29-2026   Time:12:36:26
  Begin Information:            Cell Information
      Surface Area:           1
      Density:                7.8
      Weight:                 28
  End Information:              Cell Information
  Freq (Hz)     Ampl(mV)       Bias(V)      Time(Sec)       Z'(Ohm.cm^2)    Z''(Ohm.cm^2)        GD       Err      Range
End Comments
  3.07200E+05,	1.00000E+01,	4.61562E-02,	6.92700E-02,	-1.41062E+00,	2.84633E+00,	0.00000E+00,	0,	0
  2.76480E+05,	1.00000E+01,	4.61562E-02,	1.67522E+00,	-8.48886E-01,	2.21495E+00,	0.00000E+00,	0,	0
  1.97486E+05,	1.00000E+01,	4.61562E-02,	2.58988E+00,	-7.44739E-02,	1.58188E+00,	0.00000E+00,	0,	0
  1.53600E+05,	1.00000E+01,	4.61562E-02,	3.48929E+00,	2.08038E-01,	1.19977E+00,	0.00000E+00,	0,	0
  1.25673E+05,	1.00000E+01,	4.61562E-02,	4.41099E+00,	3.58776E-01,	9.39442E-01,	0.00000E+00,	0,	0
  9.87429E+04,	1.00000E+01,	4.61562E-02,	5.30346E+00,	4.89246E-01,	7.13526E-01,	0.00000E+00,	0,	0
  7.68000E+04,	1.00000E+01,	4.61562E-02,	6.20338E+00,	5.72658E-01,	5.03701E-01,	0.00000E+00,	0,	0
  6.01043E+04,	1.00000E+01,	4.61562E-02,	9.43014E+00,	6.21298E-01,	2.95431E-01,	0.00000E+00,	0,	0
  4.93714E+04,	1.00000E+01,	4.61562E-02,	1.10376E+01,	6.41315E-01,	1.83990E-01,	0.00000E+00,	0,	0
  3.84000E+04,	1.00000E+01,	4.61562E-02,	1.19842E+01,	6.59880E-01,	5.29985E-02,	0.00000E+00,	0,	0
  3.00522E+04,	1.00000E+01,	4.61562E-02,	1.28410E+01,	6.77902E-01,	-7.19638E-02,	0.00000E+00,	0,	0
  2.38345E+04,	1.00000E+01,	4.61562E-02,	1.37215E+01,	6.96143E-01,	-1.88818E-01,	0.00000E+00,	0,	0
  1.86811E+04,	1.00000E+01,	4.61562E-02,	1.45556E+01,	7.16918E-01,	-3.16329E-01,	0.00000E+00,	0,	0
  1.47064E+04,	1.00000E+01,	4.61562E-02,	1.55358E+01,	7.41651E-01,	-4.53581E-01,	0.00000E+00,	0,	0
  1.15200E+04,	1.00000E+01,	4.61562E-02,	1.64991E+01,	7.72540E-01,	-6.10857E-01,	0.00000E+00,	0,	0
  9.60000E+03,	1.00000E+01,	4.61562E-02,	1.80816E+01,	7.98785E-01,	-7.45648E-01,	0.00000E+00,	0,	0
  7.51304E+03,	1.00000E+01,	4.61562E-02,	1.89739E+01,	8.41477E-01,	-9.53446E-01,	0.00000E+00,	0,	0
  5.76000E+03,	1.00000E+01,	4.61562E-02,	1.98768E+01,	8.96830E-01,	-1.22821E+00,	0.00000E+00,	0,	0
  4.54737E+03,	1.00000E+01,	4.61562E-02,	2.07925E+01,	9.58327E-01,	-1.52527E+00,	0.00000E+00,	0,	0
  3.60000E+03,	1.00000E+01,	4.61562E-02,	2.17896E+01,	1.03133E+00,	-1.88498E+00,	0.00000E+00,	0,	0
  2.88000E+03,	1.00000E+01,	4.61562E-02,	2.26821E+01,	1.11419E+00,	-2.29904E+00,	0.00000E+00,	0,	0
  2.27368E+03,	1.00000E+01,	4.61562E-02,	2.49916E+01,	1.21669E+00,	-2.82161E+00,	0.00000E+00,	0,	0
  1.78144E+03,	1.00000E+01,	4.61562E-02,	2.58184E+01,	1.35721E+00,	-3.50042E+00,	0.00000E+00,	0,	0
  1.41639E+03,	1.00000E+01,	4.61562E-02,	2.67347E+01,	1.52817E+00,	-4.28135E+00,	0.00000E+00,	0,	0
  1.12208E+03,	1.00000E+01,	4.61562E-02,	2.77677E+01,	1.74438E+00,	-5.26261E+00,	0.00000E+00,	0,	0
  9.00000E+02,	1.00000E+01,	4.61562E-02,	3.27638E+01,	2.00400E+00,	-6.39809E+00,	0.00000E+00,	0,	0
  7.20000E+02,	1.00000E+01,	4.61562E-02,	3.41548E+01,	2.33151E+00,	-7.77400E+00,	0.00000E+00,	0,	0
  5.68421E+02,	1.00000E+01,	4.61562E-02,	3.55185E+01,	2.77610E+00,	-9.54439E+00,	0.00000E+00,	0,	0
  4.40816E+02,	1.00000E+01,	4.61562E-02,	3.85713E+01,	3.40154E+00,	-1.19148E+01,	0.00000E+00,	0,	0
  3.54098E+02,	1.00000E+01,	4.61562E-02,	4.09037E+01,	4.08455E+00,	-1.43815E+01,	0.00000E+00,	0,	0
  2.76923E+02,	1.00000E+01,	4.61562E-02,	4.35479E+01,	5.06725E+00,	-1.77107E+01,	0.00000E+00,	0,	0
  2.20408E+02,	1.00000E+01,	4.61562E-02,	4.64766E+01,	6.23129E+00,	-2.14632E+01,	0.00000E+00,	0,	0
  1.74194E+02,	1.00000E+01,	4.61562E-02,	4.97341E+01,	7.76124E+00,	-2.61020E+01,	0.00000E+00,	0,	0
  1.37580E+02,	1.00000E+01,	4.61562E-02,	5.33890E+01,	9.71372E+00,	-3.16700E+01,	0.00000E+00,	0,	0
  1.09091E+02,	1.00000E+01,	4.61562E-02,	5.74737E+01,	1.21318E+01,	-3.82110E+01,	0.00000E+00,	0,	0
  8.70968E+01,	1.00000E+01,	4.61562E-02,	6.31620E+01,	1.50290E+01,	-4.57750E+01,	0.00000E+00,	0,	0
  6.83544E+01,	1.00000E+01,	4.61562E-02,	6.81795E+01,	1.89180E+01,	-5.56250E+01,	0.00000E+00,	0,	0
  5.45455E+01,	1.00000E+01,	4.61562E-02,	7.36757E+01,	2.34931E+01,	-6.51052E+01,	0.00000E+00,	0,	0
  4.28571E+01,	1.00000E+01,	4.61562E-02,	7.72289E+01,	2.91542E+01,	-7.79410E+01,	0.00000E+00,	0,	0
  3.39623E+01,	1.00000E+01,	4.61562E-02,	8.09656E+01,	3.49974E+01,	-9.24513E+01,	0.00000E+00,	0,	0
  2.68657E+01,	1.00000E+01,	4.61562E-02,	8.48460E+01,	4.27664E+01,	-1.10126E+02,	0.00000E+00,	0,	0
  2.13439E+01,	1.00000E+01,	4.61562E-02,	8.86583E+01,	5.15242E+01,	-1.30410E+02,	0.00000E+00,	0,	0
  1.73077E+01,	1.00000E+01,	4.61562E-02,	9.53370E+01,	6.06741E+01,	-1.52377E+02,	0.00000E+00,	0,	0
  1.36364E+01,	1.00000E+01,	4.61562E-02,	1.00354E+02,	7.22136E+01,	-1.81539E+02,	0.00000E+00,	0,	0
  1.07143E+01,	1.00000E+01,	4.61562E-02,	1.03259E+02,	8.54368E+01,	-2.16968E+02,	0.00000E+00,	0,	0
  8.49057E+00,	1.00000E+01,	4.61562E-02,	1.07445E+02,	9.96986E+01,	-2.58260E+02,	0.00000E+00,	0,	0
  6.71642E+00,	1.00000E+01,	4.61562E-02,	1.09950E+02,	1.15689E+02,	-3.08693E+02,	0.00000E+00,	0,	0
  5.29412E+00,	1.00000E+01,	4.61562E-02,	1.12917E+02,	1.33576E+02,	-3.70857E+02,	0.00000E+00,	0,	0
  4.16667E+00,	1.00000E+01,	4.61562E-02,	1.16456E+02,	1.53454E+02,	-4.48213E+02,	0.00000E+00,	0,	0
  3.30882E+00,	1.00000E+01,	4.61562E-02,	1.20692E+02,	1.74553E+02,	-5.40019E+02,	0.00000E+00,	0,	0
  2.61628E+00,	1.00000E+01,	4.61562E-02,	1.24668E+02,	1.98690E+02,	-6.55309E+02,	0.00000E+00,	0,	0
  2.07373E+00,	1.00000E+01,	4.61562E-02,	1.29456E+02,	2.25511E+02,	-7.97069E+02,	0.00000E+00,	0,	0
  1.64234E+00,	1.00000E+01,	4.61562E-02,	1.35284E+02,	2.56142E+02,	-9.73400E+02,	0.00000E+00,	0,	0
  1.30058E+00,	1.00000E+01,	4.61562E-02,	1.39469E+02,	2.92407E+02,	-1.19207E+03,	0.00000E+00,	0,	0
  1.03211E+00,	1.00000E+01,	4.61562E-02,	1.43879E+02,	3.34129E+02,	-1.46162E+03,	0.00000E+00,	0,	0
  8.15217E-01,	1.00000E+01,	4.61562E-02,	1.50872E+02,	3.84482E+02,	-1.80157E+03,	0.00000E+00,	0,	0
  6.46552E-01,	1.00000E+01,	4.61562E-02,	1.59957E+02,	4.29843E+02,	-2.21571E+03,	0.00000E+00,	0,	0
  5.11364E-01,	1.00000E+01,	4.61562E-02,	1.64961E+02,	4.99075E+02,	-2.75807E+03,	0.00000E+00,	0,	0
  4.07609E-01,	1.00000E+01,	4.61562E-02,	1.71056E+02,	5.82809E+02,	-3.39035E+03,	0.00000E+00,	0,	0
  3.21429E-01,	1.00000E+01,	4.61562E-02,	1.78205E+02,	6.82352E+02,	-4.23891E+03,	0.00000E+00,	0,	0
  2.54525E-01,	1.00000E+01,	4.61562E-02,	1.87006E+02,	8.09126E+02,	-5.24140E+03,	0.00000E+00,	0,	0
  2.01613E-01,	1.00000E+01,	4.61562E-02,	1.97856E+02,	9.62411E+02,	-6.48802E+03,	0.00000E+00,	0,	0
  1.59574E-01,	1.00000E+01,	4.61562E-02,	2.11318E+02,	1.15110E+03,	-8.04112E+03,	0.00000E+00,	0,	0
  1.26689E-01,	1.00000E+01,	4.61562E-02,	2.28215E+02,	1.38159E+03,	-9.94079E+03,	0.00000E+00,	0,	0
  1.00446E-01,	1.00000E+01,	4.61562E-02,	2.49081E+02,	1.64947E+03,	-1.23202E+04,	0.00000E+00,	0,	0