Z60W Data File: Version 1.1
CorrTest for Windows: SN CS310H1805157  V5.2.1111.9  2.5H6.220118
Sweep Frequency: Control Voltage
  Date:4-29-2026   Time:08:25:23
  Begin Information:            Cell Information
      Surface Area:           1
      Density:                7.8
      Weight:                 28
  End Information:              Cell Information
  Freq (Hz)     Ampl(mV)       Bias(V)      Time(Sec)       Z'(Ohm.cm^2)    Z''(Ohm.cm^2)        GD       Err      Range
End Comments
  3.07200E+05,	1.00000E+01,	3.58320E-02,	2.42975E-02,	-1.59438E+00,	2.78843E+00,	0.00000E+00,	0,	0
  2.76480E+05,	1.00000E+01,	3.58320E-02,	1.62814E+00,	-9.90351E-01,	2.19358E+00,	0.00000E+00,	0,	0
  1.97486E+05,	1.00000E+01,	3.58320E-02,	2.56217E+00,	-2.35392E-01,	1.54973E+00,	0.00000E+00,	0,	0
  1.53600E+05,	1.00000E+01,	3.58320E-02,	3.45560E+00,	5.20589E-02,	1.17765E+00,	0.00000E+00,	0,	0
  1.25673E+05,	1.00000E+01,	3.58320E-02,	4.38502E+00,	1.96145E-01,	9.32998E-01,	0.00000E+00,	0,	0
  9.87429E+04,	1.00000E+01,	3.58320E-02,	5.27533E+00,	3.35955E-01,	7.07114E-01,	0.00000E+00,	0,	0
  7.68000E+04,	1.00000E+01,	3.58320E-02,	6.16975E+00,	4.15234E-01,	5.20990E-01,	0.00000E+00,	0,	0
  6.01043E+04,	1.00000E+01,	3.58320E-02,	9.37335E+00,	4.72137E-01,	3.25716E-01,	0.00000E+00,	0,	0
  4.93714E+04,	1.00000E+01,	3.58320E-02,	1.09380E+01,	4.86929E-01,	2.21956E-01,	0.00000E+00,	0,	0
  3.84000E+04,	1.00000E+01,	3.58320E-02,	1.18426E+01,	5.03952E-01,	1.04403E-01,	0.00000E+00,	0,	0
  3.00522E+04,	1.00000E+01,	3.58320E-02,	1.27144E+01,	5.16224E-01,	-2.96559E-03,	0.00000E+00,	0,	0
  2.38345E+04,	1.00000E+01,	3.58320E-02,	1.35852E+01,	5.27987E-01,	-1.03632E-01,	0.00000E+00,	0,	0
  1.86811E+04,	1.00000E+01,	3.58320E-02,	1.44473E+01,	5.43914E-01,	-2.13072E-01,	0.00000E+00,	0,	0
  1.47064E+04,	1.00000E+01,	3.58320E-02,	1.53977E+01,	5.60505E-01,	-3.27467E-01,	0.00000E+00,	0,	0
  1.15200E+04,	1.00000E+01,	3.58320E-02,	1.63533E+01,	5.82699E-01,	-4.57237E-01,	0.00000E+00,	0,	0
  9.60000E+03,	1.00000E+01,	3.58320E-02,	1.79375E+01,	6.01089E-01,	-5.67240E-01,	0.00000E+00,	0,	0
  7.51304E+03,	1.00000E+01,	3.58320E-02,	1.88567E+01,	6.32397E-01,	-7.37055E-01,	0.00000E+00,	0,	0
  5.76000E+03,	1.00000E+01,	3.58320E-02,	1.97645E+01,	6.75310E-01,	-9.60094E-01,	0.00000E+00,	0,	0
  4.54737E+03,	1.00000E+01,	3.58320E-02,	2.06319E+01,	7.23060E-01,	-1.20179E+00,	0.00000E+00,	0,	0
  3.60000E+03,	1.00000E+01,	3.58320E-02,	2.16184E+01,	7.84353E-01,	-1.49104E+00,	0.00000E+00,	0,	0
  2.88000E+03,	1.00000E+01,	3.58320E-02,	2.25038E+01,	8.55796E-01,	-1.82603E+00,	0.00000E+00,	0,	0
  2.27368E+03,	1.00000E+01,	3.58320E-02,	2.47850E+01,	9.44626E-01,	-2.24397E+00,	0.00000E+00,	0,	0
  1.78144E+03,	1.00000E+01,	3.58320E-02,	2.55736E+01,	1.07035E+00,	-2.77911E+00,	0.00000E+00,	0,	0
  1.41639E+03,	1.00000E+01,	3.58320E-02,	2.64694E+01,	1.22290E+00,	-3.39775E+00,	0.00000E+00,	0,	0
  1.12208E+03,	1.00000E+01,	3.58320E-02,	2.75104E+01,	1.41263E+00,	-4.16348E+00,	0.00000E+00,	0,	0
  9.00000E+02,	1.00000E+01,	3.58320E-02,	3.25399E+01,	1.66282E+00,	-5.04806E+00,	0.00000E+00,	0,	0
  7.20000E+02,	1.00000E+01,	3.58320E-02,	3.39230E+01,	1.96542E+00,	-6.10668E+00,	0.00000E+00,	0,	0
  5.68421E+02,	1.00000E+01,	3.58320E-02,	3.52789E+01,	2.37494E+00,	-7.45982E+00,	0.00000E+00,	0,	0
  4.40816E+02,	1.00000E+01,	3.58320E-02,	3.67264E+01,	2.94735E+00,	-9.22466E+00,	0.00000E+00,	0,	0
  3.54098E+02,	1.00000E+01,	3.58320E-02,	3.90556E+01,	3.57283E+00,	-1.10532E+01,	0.00000E+00,	0,	0
  2.76923E+02,	1.00000E+01,	3.58320E-02,	4.17320E+01,	4.46834E+00,	-1.34945E+01,	0.00000E+00,	0,	0
  2.20408E+02,	1.00000E+01,	3.58320E-02,	4.46666E+01,	5.51052E+00,	-1.61889E+01,	0.00000E+00,	0,	0
  1.74194E+02,	1.00000E+01,	3.58320E-02,	4.79333E+01,	6.83833E+00,	-1.94548E+01,	0.00000E+00,	0,	0
  1.37580E+02,	1.00000E+01,	3.58320E-02,	5.15860E+01,	8.46899E+00,	-2.33198E+01,	0.00000E+00,	0,	0
  1.09091E+02,	1.00000E+01,	3.58320E-02,	5.56930E+01,	1.03928E+01,	-2.77916E+01,	0.00000E+00,	0,	0
  8.70968E+01,	1.00000E+01,	3.58320E-02,	6.38724E+01,	1.26301E+01,	-3.30182E+01,	0.00000E+00,	0,	0
  6.83544E+01,	1.00000E+01,	3.58320E-02,	6.89494E+01,	1.54432E+01,	-3.97073E+01,	0.00000E+00,	0,	0
  5.45455E+01,	1.00000E+01,	3.58320E-02,	7.44339E+01,	1.85694E+01,	-4.61412E+01,	0.00000E+00,	0,	0
  4.28571E+01,	1.00000E+01,	3.58320E-02,	7.80183E+01,	2.23107E+01,	-5.49765E+01,	0.00000E+00,	0,	0
  3.39623E+01,	1.00000E+01,	3.58320E-02,	8.17827E+01,	2.59977E+01,	-6.50826E+01,	0.00000E+00,	0,	0
  2.68657E+01,	1.00000E+01,	3.58320E-02,	8.56719E+01,	3.08303E+01,	-7.75628E+01,	0.00000E+00,	0,	0
  2.13439E+01,	1.00000E+01,	3.58320E-02,	8.95110E+01,	3.60773E+01,	-9.21016E+01,	0.00000E+00,	0,	0
  1.73077E+01,	1.00000E+01,	3.58320E-02,	9.62104E+01,	4.14006E+01,	-1.08081E+02,	0.00000E+00,	0,	0
  1.36364E+01,	1.00000E+01,	3.58320E-02,	1.01237E+02,	4.79059E+01,	-1.29770E+02,	0.00000E+00,	0,	0
  1.07143E+01,	1.00000E+01,	3.58320E-02,	1.04211E+02,	5.51580E+01,	-1.56689E+02,	0.00000E+00,	0,	0
  8.49057E+00,	1.00000E+01,	3.58320E-02,	1.08409E+02,	6.28691E+01,	-1.88745E+02,	0.00000E+00,	0,	0
  6.71642E+00,	1.00000E+01,	3.58320E-02,	1.10927E+02,	7.15395E+01,	-2.28845E+02,	0.00000E+00,	0,	0
  5.29412E+00,	1.00000E+01,	3.58320E-02,	1.13901E+02,	8.15102E+01,	-2.79086E+02,	0.00000E+00,	0,	0
  4.16667E+00,	1.00000E+01,	3.58320E-02,	1.17371E+02,	9.29197E+01,	-3.42201E+02,	0.00000E+00,	0,	0
  3.30882E+00,	1.00000E+01,	3.58320E-02,	1.21636E+02,	1.05638E+02,	-4.17764E+02,	0.00000E+00,	0,	0
  2.61628E+00,	1.00000E+01,	3.58320E-02,	1.25592E+02,	1.20997E+02,	-5.12991E+02,	0.00000E+00,	0,	0
  2.07373E+00,	1.00000E+01,	3.58320E-02,	1.30362E+02,	1.38978E+02,	-6.30292E+02,	0.00000E+00,	0,	0
  1.64234E+00,	1.00000E+01,	3.58320E-02,	1.36153E+02,	1.60696E+02,	-7.76197E+02,	0.00000E+00,	0,	0
  1.30058E+00,	1.00000E+01,	3.58320E-02,	1.40327E+02,	1.87512E+02,	-9.57256E+02,	0.00000E+00,	0,	0
  1.03211E+00,	1.00000E+01,	3.58320E-02,	1.44761E+02,	2.19857E+02,	-1.17972E+03,	0.00000E+00,	0,	0
  8.15217E-01,	1.00000E+01,	3.58320E-02,	1.51694E+02,	2.59929E+02,	-1.45986E+03,	0.00000E+00,	0,	0
  6.46552E-01,	1.00000E+01,	3.58320E-02,	1.60826E+02,	2.99047E+02,	-1.80096E+03,	0.00000E+00,	0,	0
  5.11364E-01,	1.00000E+01,	3.58320E-02,	1.65843E+02,	3.58531E+02,	-2.24787E+03,	0.00000E+00,	0,	0
  4.07609E-01,	1.00000E+01,	3.58320E-02,	1.71892E+02,	4.32488E+02,	-2.76900E+03,	0.00000E+00,	0,	0
  3.21429E-01,	1.00000E+01,	3.58320E-02,	1.79066E+02,	5.24718E+02,	-3.46687E+03,	0.00000E+00,	0,	0
  2.54525E-01,	1.00000E+01,	3.58320E-02,	1.87839E+02,	6.49911E+02,	-4.29485E+03,	0.00000E+00,	0,	0
  2.01613E-01,	1.00000E+01,	3.58320E-02,	1.98672E+02,	8.08796E+02,	-5.32020E+03,	0.00000E+00,	0,	0
  1.59574E-01,	1.00000E+01,	3.58320E-02,	2.12140E+02,	1.01798E+03,	-6.59658E+03,	0.00000E+00,	0,	0
  1.26689E-01,	1.00000E+01,	3.58320E-02,	2.29076E+02,	1.29067E+03,	-8.15112E+03,	0.00000E+00,	0,	0
  1.00446E-01,	1.00000E+01,	3.58320E-02,	2.49936E+02,	1.65848E+03,	-1.00932E+04,	0.00000E+00,	0,	0