Z60W Data File: Version 1.1
CorrTest for Windows: SN CS310H1805157  V5.2.1111.9  2.5H6.220118
Sweep Frequency: Control Voltage
  Date:4-29-2026   Time:09:30:43
  Begin Information:            Cell Information
      Surface Area:           1
      Density:                7.8
      Weight:                 28
  End Information:              Cell Information
  Freq (Hz)     Ampl(mV)       Bias(V)      Time(Sec)       Z'(Ohm.cm^2)    Z''(Ohm.cm^2)        GD       Err      Range
End Comments
  3.07200E+05,	1.00000E+01,	4.56611E-02,	2.65239E-02,	-1.52356E+00,	2.71506E+00,	0.00000E+00,	0,	0
  2.76480E+05,	1.00000E+01,	4.56611E-02,	1.63645E+00,	-9.61587E-01,	2.19121E+00,	0.00000E+00,	0,	0
  1.97486E+05,	1.00000E+01,	4.56611E-02,	2.54026E+00,	-2.38113E-01,	1.54287E+00,	0.00000E+00,	0,	0
  1.53600E+05,	1.00000E+01,	4.56611E-02,	3.44002E+00,	6.13622E-02,	1.18883E+00,	0.00000E+00,	0,	0
  1.25673E+05,	1.00000E+01,	4.56611E-02,	4.36811E+00,	2.09843E-01,	9.44206E-01,	0.00000E+00,	0,	0
  9.87429E+04,	1.00000E+01,	4.56611E-02,	5.35107E+00,	3.43247E-01,	7.10848E-01,	0.00000E+00,	0,	0
  7.68000E+04,	1.00000E+01,	4.56611E-02,	6.24481E+00,	4.29525E-01,	5.16225E-01,	0.00000E+00,	0,	0
  6.01043E+04,	1.00000E+01,	4.56611E-02,	9.45365E+00,	4.91395E-01,	3.19785E-01,	0.00000E+00,	0,	0
  4.93714E+04,	1.00000E+01,	4.56611E-02,	1.10361E+01,	5.09199E-01,	2.15627E-01,	0.00000E+00,	0,	0
  3.84000E+04,	1.00000E+01,	4.56611E-02,	1.19433E+01,	5.25264E-01,	9.35201E-02,	0.00000E+00,	0,	0
  3.00522E+04,	1.00000E+01,	4.56611E-02,	1.28056E+01,	5.39312E-01,	-1.72744E-02,	0.00000E+00,	0,	0
  2.38345E+04,	1.00000E+01,	4.56611E-02,	1.36614E+01,	5.52644E-01,	-1.19513E-01,	0.00000E+00,	0,	0
  1.86811E+04,	1.00000E+01,	4.56611E-02,	1.45002E+01,	5.67936E-01,	-2.33121E-01,	0.00000E+00,	0,	0
  1.47064E+04,	1.00000E+01,	4.56611E-02,	1.54623E+01,	5.86962E-01,	-3.52236E-01,	0.00000E+00,	0,	0
  1.15200E+04,	1.00000E+01,	4.56611E-02,	1.64600E+01,	6.10111E-01,	-4.87462E-01,	0.00000E+00,	0,	0
  9.60000E+03,	1.00000E+01,	4.56611E-02,	1.80234E+01,	6.30827E-01,	-6.02001E-01,	0.00000E+00,	0,	0
  7.51304E+03,	1.00000E+01,	4.56611E-02,	1.88824E+01,	6.63355E-01,	-7.80075E-01,	0.00000E+00,	0,	0
  5.76000E+03,	1.00000E+01,	4.56611E-02,	1.98125E+01,	7.08901E-01,	-1.01347E+00,	0.00000E+00,	0,	0
  4.54737E+03,	1.00000E+01,	4.56611E-02,	2.06955E+01,	7.58725E-01,	-1.26712E+00,	0.00000E+00,	0,	0
  3.60000E+03,	1.00000E+01,	4.56611E-02,	2.17065E+01,	8.20970E-01,	-1.57124E+00,	0.00000E+00,	0,	0
  2.88000E+03,	1.00000E+01,	4.56611E-02,	2.26264E+01,	8.98435E-01,	-1.91954E+00,	0.00000E+00,	0,	0
  2.27368E+03,	1.00000E+01,	4.56611E-02,	2.49093E+01,	9.87332E-01,	-2.35469E+00,	0.00000E+00,	0,	0
  1.78144E+03,	1.00000E+01,	4.56611E-02,	2.56983E+01,	1.11614E+00,	-2.92892E+00,	0.00000E+00,	0,	0
  1.41639E+03,	1.00000E+01,	4.56611E-02,	2.65906E+01,	1.27647E+00,	-3.58258E+00,	0.00000E+00,	0,	0
  1.12208E+03,	1.00000E+01,	4.56611E-02,	2.76054E+01,	1.47342E+00,	-4.38875E+00,	0.00000E+00,	0,	0
  9.00000E+02,	1.00000E+01,	4.56611E-02,	3.25923E+01,	1.72066E+00,	-5.32599E+00,	0.00000E+00,	0,	0
  7.20000E+02,	1.00000E+01,	4.56611E-02,	3.39955E+01,	2.03273E+00,	-6.44906E+00,	0.00000E+00,	0,	0
  5.68421E+02,	1.00000E+01,	4.56611E-02,	3.53806E+01,	2.45232E+00,	-7.88944E+00,	0.00000E+00,	0,	0
  4.40816E+02,	1.00000E+01,	4.56611E-02,	3.68730E+01,	3.03793E+00,	-9.76872E+00,	0.00000E+00,	0,	0
  3.54098E+02,	1.00000E+01,	4.56611E-02,	3.92194E+01,	3.67927E+00,	-1.17197E+01,	0.00000E+00,	0,	0
  2.76923E+02,	1.00000E+01,	4.56611E-02,	4.18635E+01,	4.60121E+00,	-1.43368E+01,	0.00000E+00,	0,	0
  2.20408E+02,	1.00000E+01,	4.56611E-02,	4.48384E+01,	5.68083E+00,	-1.72368E+01,	0.00000E+00,	0,	0
  1.74194E+02,	1.00000E+01,	4.56611E-02,	4.81184E+01,	7.07101E+00,	-2.07668E+01,	0.00000E+00,	0,	0
  1.37580E+02,	1.00000E+01,	4.56611E-02,	5.17910E+01,	8.78823E+00,	-2.49488E+01,	0.00000E+00,	0,	0
  1.09091E+02,	1.00000E+01,	4.56611E-02,	5.58805E+01,	1.08350E+01,	-2.97923E+01,	0.00000E+00,	0,	0
  8.70968E+01,	1.00000E+01,	4.56611E-02,	6.40220E+01,	1.32316E+01,	-3.54524E+01,	0.00000E+00,	0,	0
  6.83544E+01,	1.00000E+01,	4.56611E-02,	6.90908E+01,	1.62741E+01,	-4.27070E+01,	0.00000E+00,	0,	0
  5.45455E+01,	1.00000E+01,	4.56611E-02,	7.45358E+01,	1.96758E+01,	-4.96575E+01,	0.00000E+00,	0,	0
  4.28571E+01,	1.00000E+01,	4.56611E-02,	7.81021E+01,	2.37719E+01,	-5.91941E+01,	0.00000E+00,	0,	0
  3.39623E+01,	1.00000E+01,	4.56611E-02,	8.18782E+01,	2.78531E+01,	-7.00807E+01,	0.00000E+00,	0,	0
  2.68657E+01,	1.00000E+01,	4.56611E-02,	8.57668E+01,	3.32121E+01,	-8.34754E+01,	0.00000E+00,	0,	0
  2.13439E+01,	1.00000E+01,	4.56611E-02,	8.96151E+01,	3.90970E+01,	-9.90394E+01,	0.00000E+00,	0,	0
  1.73077E+01,	1.00000E+01,	4.56611E-02,	9.62740E+01,	4.50947E+01,	-1.16071E+02,	0.00000E+00,	0,	0
  1.36364E+01,	1.00000E+01,	4.56611E-02,	1.01358E+02,	5.24624E+01,	-1.39061E+02,	0.00000E+00,	0,	0
  1.07143E+01,	1.00000E+01,	4.56611E-02,	1.04262E+02,	6.06878E+01,	-1.67495E+02,	0.00000E+00,	0,	0
  8.49057E+00,	1.00000E+01,	4.56611E-02,	1.08457E+02,	6.93623E+01,	-2.01174E+02,	0.00000E+00,	0,	0
  6.71642E+00,	1.00000E+01,	4.56611E-02,	1.10962E+02,	7.90838E+01,	-2.43164E+02,	0.00000E+00,	0,	0
  5.29412E+00,	1.00000E+01,	4.56611E-02,	1.13903E+02,	9.01935E+01,	-2.95793E+02,	0.00000E+00,	0,	0
  4.16667E+00,	1.00000E+01,	4.56611E-02,	1.17415E+02,	1.02696E+02,	-3.61879E+02,	0.00000E+00,	0,	0
  3.30882E+00,	1.00000E+01,	4.56611E-02,	1.21641E+02,	1.16454E+02,	-4.40880E+02,	0.00000E+00,	0,	0
  2.61628E+00,	1.00000E+01,	4.56611E-02,	1.25687E+02,	1.32851E+02,	-5.40556E+02,	0.00000E+00,	0,	0
  2.07373E+00,	1.00000E+01,	4.56611E-02,	1.30469E+02,	1.52024E+02,	-6.63295E+02,	0.00000E+00,	0,	0
  1.64234E+00,	1.00000E+01,	4.56611E-02,	1.36262E+02,	1.74601E+02,	-8.16044E+02,	0.00000E+00,	0,	0
  1.30058E+00,	1.00000E+01,	4.56611E-02,	1.40434E+02,	2.02451E+02,	-1.00563E+03,	0.00000E+00,	0,	0
  1.03211E+00,	1.00000E+01,	4.56611E-02,	1.44822E+02,	2.35602E+02,	-1.23898E+03,	0.00000E+00,	0,	0
  8.15217E-01,	1.00000E+01,	4.56611E-02,	1.51753E+02,	2.76391E+02,	-1.53265E+03,	0.00000E+00,	0,	0
  6.46552E-01,	1.00000E+01,	4.56611E-02,	1.60834E+02,	3.15132E+02,	-1.89423E+03,	0.00000E+00,	0,	0
  5.11364E-01,	1.00000E+01,	4.56611E-02,	1.65844E+02,	3.74123E+02,	-2.36350E+03,	0.00000E+00,	0,	0
  4.07609E-01,	1.00000E+01,	4.56611E-02,	1.71896E+02,	4.45654E+02,	-2.91150E+03,	0.00000E+00,	0,	0
  3.21429E-01,	1.00000E+01,	4.56611E-02,	1.79031E+02,	5.33672E+02,	-3.64407E+03,	0.00000E+00,	0,	0
  2.54525E-01,	1.00000E+01,	4.56611E-02,	1.87825E+02,	6.49306E+02,	-4.51496E+03,	0.00000E+00,	0,	0
  2.01613E-01,	1.00000E+01,	4.56611E-02,	1.98669E+02,	7.95510E+02,	-5.59668E+03,	0.00000E+00,	0,	0
  1.59574E-01,	1.00000E+01,	4.56611E-02,	2.12180E+02,	9.78680E+02,	-6.94632E+03,	0.00000E+00,	0,	0
  1.26689E-01,	1.00000E+01,	4.56611E-02,	2.29075E+02,	1.21324E+03,	-8.59180E+03,	0.00000E+00,	0,	0
  1.00446E-01,	1.00000E+01,	4.56611E-02,	2.50004E+02,	1.52034E+03,	-1.06500E+04,	0.00000E+00,	0,	0