Z60W Data File: Version 1.1
CorrTest for Windows: SN CS310H1805157  V5.2.1111.9  2.5H6.220118
Sweep Frequency: Control Voltage
  Date:4-29-2026   Time:15:22:26
  Begin Information:            Cell Information
      Surface Area:           1
      Density:                7.8
      Weight:                 28
  End Information:              Cell Information
  Freq (Hz)     Ampl(mV)       Bias(V)      Time(Sec)       Z'(Ohm.cm^2)    Z''(Ohm.cm^2)        GD       Err      Range
End Comments
  1.06338E+05,	1.00000E+01,	3.91043E-02,	3.36191E-02,	-4.44114E+01,	-6.99734E+02,	0.00000E+00,	0,	0
  8.13176E+04,	1.00000E+01,	3.91043E-02,	9.31739E-01,	-1.41600E+01,	-1.04202E+03,	0.00000E+00,	0,	0
  6.28364E+04,	1.00000E+01,	3.91043E-02,	1.84509E+00,	1.83918E+02,	-1.31431E+03,	0.00000E+00,	0,	0
  5.31692E+04,	1.00000E+01,	3.91043E-02,	3.42901E+00,	3.97309E+02,	-1.58279E+03,	0.00000E+00,	0,	0
  4.06588E+04,	1.00000E+01,	3.91043E-02,	4.30662E+00,	8.09981E+02,	-1.81752E+03,	0.00000E+00,	0,	0
  3.14182E+04,	1.00000E+01,	3.91043E-02,	5.27551E+00,	1.63595E+03,	-1.81699E+03,	0.00000E+00,	0,	0
  2.46857E+04,	1.00000E+01,	3.91043E-02,	6.13264E+00,	1.92931E+03,	-1.97985E+03,	0.00000E+00,	0,	0
  1.97486E+04,	1.00000E+01,	3.91043E-02,	7.10171E+00,	2.17512E+03,	-2.12139E+03,	0.00000E+00,	0,	0
  1.57091E+04,	1.00000E+01,	3.91043E-02,	8.02797E+00,	2.68067E+03,	-2.25918E+03,	0.00000E+00,	0,	0
  1.23429E+04,	1.00000E+01,	3.91043E-02,	8.88808E+00,	2.88996E+03,	-1.80231E+03,	0.00000E+00,	0,	0
  1.01647E+04,	1.00000E+01,	3.91043E-02,	1.05046E+01,	3.11010E+03,	-1.55552E+03,	0.00000E+00,	0,	0
  7.85455E+03,	1.00000E+01,	3.91043E-02,	1.14405E+01,	3.00240E+03,	-1.53148E+03,	0.00000E+00,	0,	0
  6.17143E+03,	1.00000E+01,	3.91043E-02,	1.23340E+01,	3.10653E+03,	-1.22391E+03,	0.00000E+00,	0,	0
  4.80000E+03,	1.00000E+01,	3.91043E-02,	1.31925E+01,	3.37347E+03,	-7.39601E+02,	0.00000E+00,	0,	0
  3.84000E+03,	1.00000E+01,	3.91043E-02,	1.41587E+01,	4.43470E+03,	-5.05233E+02,	0.00000E+00,	0,	0
  3.03158E+03,	1.00000E+01,	3.91043E-02,	1.50177E+01,	-1.04710E+03,	1.88256E+01,	0.00000E+00,	0,	0
  2.36712E+03,	1.00000E+01,	3.91043E-02,	1.60167E+01,	4.44715E+03,	5.00758E+01,	0.00000E+00,	0,	0
  1.87826E+03,	1.00000E+01,	3.91043E-02,	1.67948E+01,	3.98252E+03,	-9.13726E+02,	0.00000E+00,	0,	0
  1.48966E+03,	1.00000E+01,	3.91043E-02,	1.76860E+01,	4.17204E+03,	-5.84710E+02,	0.00000E+00,	0,	0
  1.17551E+03,	1.00000E+01,	3.91043E-02,	1.86895E+01,	3.69448E+03,	-4.45033E+02,	0.00000E+00,	0,	0
  9.39130E+02,	1.00000E+01,	3.91043E-02,	2.66815E+01,	3.77831E+03,	-3.36383E+02,	0.00000E+00,	0,	0
  7.44828E+02,	1.00000E+01,	3.91043E-02,	2.80879E+01,	3.85692E+03,	-3.26807E+02,	0.00000E+00,	0,	0
  5.83784E+02,	1.00000E+01,	3.91043E-02,	2.94504E+01,	3.88838E+03,	-3.34635E+02,	0.00000E+00,	0,	0
  4.59574E+02,	1.00000E+01,	3.91043E-02,	3.08121E+01,	3.91646E+03,	-3.36252E+02,	0.00000E+00,	0,	0
  3.66102E+02,	1.00000E+01,	3.91043E-02,	3.31543E+01,	3.97404E+03,	-3.21640E+02,	0.00000E+00,	0,	0
  2.88000E+02,	1.00000E+01,	3.91043E-02,	3.57434E+01,	4.02018E+03,	-3.15922E+02,	0.00000E+00,	0,	0
  2.27368E+02,	1.00000E+01,	3.91043E-02,	3.86206E+01,	4.08811E+03,	-3.14685E+02,	0.00000E+00,	0,	0
  1.80000E+02,	1.00000E+01,	3.91043E-02,	4.18304E+01,	4.09063E+03,	-3.27240E+02,	0.00000E+00,	0,	0
  1.42105E+02,	1.00000E+01,	3.91043E-02,	4.54215E+01,	4.10526E+03,	-3.63958E+02,	0.00000E+00,	0,	0
  1.12500E+02,	1.00000E+01,	3.91043E-02,	4.94199E+01,	4.14464E+03,	-3.86635E+02,	0.00000E+00,	0,	0
  9.00000E+01,	1.00000E+01,	3.91043E-02,	5.49828E+01,	4.20096E+03,	-4.31183E+02,	0.00000E+00,	0,	0
  7.10526E+01,	1.00000E+01,	3.91043E-02,	5.99283E+01,	4.26464E+03,	-4.74125E+02,	0.00000E+00,	0,	0
  5.62500E+01,	1.00000E+01,	3.91043E-02,	6.53512E+01,	4.25415E+03,	-4.83280E+02,	0.00000E+00,	0,	0
  4.42623E+01,	1.00000E+01,	3.91043E-02,	6.88764E+01,	4.30473E+03,	-5.54364E+02,	0.00000E+00,	0,	0
  3.50649E+01,	1.00000E+01,	3.91043E-02,	7.26039E+01,	4.37562E+03,	-6.36901E+02,	0.00000E+00,	0,	0
  2.76923E+01,	1.00000E+01,	3.91043E-02,	7.64556E+01,	4.44296E+03,	-7.23735E+02,	0.00000E+00,	0,	0
  2.18623E+01,	1.00000E+01,	3.91043E-02,	8.03168E+01,	4.51241E+03,	-8.41196E+02,	0.00000E+00,	0,	0
  1.73077E+01,	1.00000E+01,	3.91043E-02,	8.39092E+01,	4.58702E+03,	-9.87826E+02,	0.00000E+00,	0,	0
  1.40625E+01,	1.00000E+01,	3.91043E-02,	8.90111E+01,	4.66008E+03,	-1.10876E+03,	0.00000E+00,	0,	0
  1.09756E+01,	1.00000E+01,	3.91043E-02,	9.21314E+01,	4.78008E+03,	-1.31765E+03,	0.00000E+00,	0,	0
  8.65385E+00,	1.00000E+01,	3.91043E-02,	9.93496E+01,	2.99468E+05,	-7.69922E+04,	0.00000E+00,	0,	0
  6.81818E+00,	1.00000E+01,	3.91043E-02,	1.01829E+02,	3.10608E+05,	-1.00474E+05,	0.00000E+00,	0,	0
  5.35714E+00,	1.00000E+01,	3.91043E-02,	1.04741E+02,	3.17033E+05,	-1.24756E+05,	0.00000E+00,	0,	0
  4.24528E+00,	1.00000E+01,	3.91043E-02,	1.08169E+02,	3.26234E+05,	-1.54672E+05,	0.00000E+00,	0,	0
  3.35821E+00,	1.00000E+01,	3.91043E-02,	1.12253E+02,	3.36569E+05,	-1.89715E+05,	0.00000E+00,	0,	0
  2.66272E+00,	1.00000E+01,	3.91043E-02,	1.16198E+02,	3.45457E+05,	-2.32266E+05,	0.00000E+00,	0,	0
  2.10280E+00,	1.00000E+01,	3.91043E-02,	1.20931E+02,	3.61484E+05,	-2.83242E+05,	0.00000E+00,	0,	0
  1.66667E+00,	1.00000E+01,	3.91043E-02,	1.26658E+02,	3.76910E+05,	-3.42019E+05,	0.00000E+00,	0,	0
  1.31579E+00,	1.00000E+01,	3.91043E-02,	1.30810E+02,	3.81356E+05,	-4.18583E+05,	0.00000E+00,	0,	0
  1.04167E+00,	1.00000E+01,	3.91043E-02,	1.35204E+02,	4.11105E+05,	-4.72005E+05,	0.00000E+00,	0,	0
  8.27206E-01,	1.00000E+01,	3.91043E-02,	1.42121E+02,	3.84558E+05,	-6.20842E+05,	0.00000E+00,	0,	0
  6.54070E-01,	1.00000E+01,	3.91043E-02,	1.46731E+02,	4.13247E+05,	-7.30500E+05,	0.00000E+00,	0,	0
  5.16055E-01,	1.00000E+01,	3.91043E-02,	1.51728E+02,	5.14112E+05,	-9.98668E+05,	0.00000E+00,	0,	0
  4.07609E-01,	1.00000E+01,	3.91043E-02,	1.57789E+02,	5.46750E+05,	-1.21847E+06,	0.00000E+00,	0,	0
  3.23276E-01,	1.00000E+01,	3.91043E-02,	1.64885E+02,	6.49089E+05,	-1.44743E+06,	0.00000E+00,	0,	0
  2.55682E-01,	1.00000E+01,	3.91043E-02,	1.73630E+02,	6.66718E+05,	-1.77158E+06,	0.00000E+00,	0,	0
  2.02703E-01,	1.00000E+01,	3.91043E-02,	1.84424E+02,	6.38151E+05,	-2.14947E+06,	0.00000E+00,	0,	0
  1.60256E-01,	1.00000E+01,	3.91043E-02,	1.97833E+02,	5.57372E+05,	-2.55400E+06,	0.00000E+00,	0,	0
  1.26689E-01,	1.00000E+01,	3.91043E-02,	2.14586E+02,	6.42573E+05,	-2.86886E+06,	0.00000E+00,	0,	0
  1.00446E-01,	1.00000E+01,	3.91043E-02,	2.35514E+02,	8.07986E+05,	-2.99067E+06,	0.00000E+00,	0,	0