Z60W Data File: Version 1.1
CorrTest for Windows: SN CS310H1805157  V5.2.1111.9  2.5H6.220118
Sweep Frequency: Control Voltage
  Date:4-29-2026   Time:14:00:50
  Begin Information:            Cell Information
      Surface Area:           1
      Density:                7.8
      Weight:                 28
  End Information:              Cell Information
  Freq (Hz)     Ampl(mV)       Bias(V)      Time(Sec)       Z'(Ohm.cm^2)    Z''(Ohm.cm^2)        GD       Err      Range
End Comments
  3.07200E+05,	1.00000E+01,	4.90202E-02,	3.25097E-02,	1.01183E+01,	8.60709E+00,	0.00000E+00,	0,	0
  2.76480E+05,	1.00000E+01,	4.90202E-02,	1.62561E+00,	1.04423E+01,	7.40337E+00,	0.00000E+00,	0,	0
  1.97486E+05,	1.00000E+01,	4.90202E-02,	2.51953E+00,	1.08310E+01,	5.24978E+00,	0.00000E+00,	0,	0
  1.53600E+05,	1.00000E+01,	4.90202E-02,	3.42689E+00,	1.10040E+01,	3.99613E+00,	0.00000E+00,	0,	0
  1.25673E+05,	1.00000E+01,	4.90202E-02,	4.32843E+00,	1.10968E+01,	3.16203E+00,	0.00000E+00,	0,	0
  9.87429E+04,	1.00000E+01,	4.90202E-02,	5.23183E+00,	1.12020E+01,	2.35059E+00,	0.00000E+00,	0,	0
  7.68000E+04,	1.00000E+01,	4.90202E-02,	6.14818E+00,	1.12908E+01,	1.68132E+00,	0.00000E+00,	0,	0
  6.01043E+04,	1.00000E+01,	4.90202E-02,	8.27572E+00,	1.13662E+01,	1.09853E+00,	0.00000E+00,	0,	0
  4.93714E+04,	1.00000E+01,	4.90202E-02,	9.84513E+00,	1.14459E+01,	7.25237E-01,	0.00000E+00,	0,	0
  3.84000E+04,	1.00000E+01,	4.90202E-02,	1.07516E+01,	1.15036E+01,	3.05858E-01,	0.00000E+00,	0,	0
  3.00522E+04,	1.00000E+01,	4.90202E-02,	1.16173E+01,	1.15956E+01,	-5.35934E-02,	0.00000E+00,	0,	0
  2.38345E+04,	1.00000E+01,	4.90202E-02,	1.24863E+01,	1.16720E+01,	-3.79058E-01,	0.00000E+00,	0,	0
  1.86811E+04,	1.00000E+01,	4.90202E-02,	1.33576E+01,	1.17579E+01,	-6.97719E-01,	0.00000E+00,	0,	0
  1.47064E+04,	1.00000E+01,	4.90202E-02,	1.43503E+01,	1.18775E+01,	-1.03793E+00,	0.00000E+00,	0,	0
  1.15200E+04,	1.00000E+01,	4.90202E-02,	1.53171E+01,	1.20364E+01,	-1.42150E+00,	0.00000E+00,	0,	0
  9.60000E+03,	1.00000E+01,	4.90202E-02,	1.69313E+01,	1.21728E+01,	-1.70617E+00,	0.00000E+00,	0,	0
  7.51304E+03,	1.00000E+01,	4.90202E-02,	1.78079E+01,	1.23523E+01,	-2.13726E+00,	0.00000E+00,	0,	0
  5.76000E+03,	1.00000E+01,	4.90202E-02,	1.87040E+01,	1.25987E+01,	-2.70420E+00,	0.00000E+00,	0,	0
  4.54737E+03,	1.00000E+01,	4.90202E-02,	1.95760E+01,	1.28367E+01,	-3.28441E+00,	0.00000E+00,	0,	0
  3.60000E+03,	1.00000E+01,	4.90202E-02,	2.05674E+01,	1.31222E+01,	-3.92344E+00,	0.00000E+00,	0,	0
  2.88000E+03,	1.00000E+01,	4.90202E-02,	2.14935E+01,	1.34334E+01,	-4.67428E+00,	0.00000E+00,	0,	0
  2.27368E+03,	1.00000E+01,	4.90202E-02,	2.37769E+01,	1.38451E+01,	-5.61026E+00,	0.00000E+00,	0,	0
  1.78144E+03,	1.00000E+01,	4.90202E-02,	2.45733E+01,	1.43253E+01,	-6.74384E+00,	0.00000E+00,	0,	0
  1.41639E+03,	1.00000E+01,	4.90202E-02,	2.54689E+01,	1.47757E+01,	-8.00164E+00,	0.00000E+00,	0,	0
  1.12208E+03,	1.00000E+01,	4.90202E-02,	2.64995E+01,	1.53528E+01,	-9.56979E+00,	0.00000E+00,	0,	0
  9.00000E+02,	1.00000E+01,	4.90202E-02,	3.15070E+01,	1.60717E+01,	-1.13845E+01,	0.00000E+00,	0,	0
  7.20000E+02,	1.00000E+01,	4.90202E-02,	3.28741E+01,	1.67589E+01,	-1.35314E+01,	0.00000E+00,	0,	0
  5.68421E+02,	1.00000E+01,	4.90202E-02,	3.42307E+01,	1.75794E+01,	-1.62895E+01,	0.00000E+00,	0,	0
  4.40816E+02,	1.00000E+01,	4.90202E-02,	3.57072E+01,	1.85799E+01,	-1.99559E+01,	0.00000E+00,	0,	0
  3.54098E+02,	1.00000E+01,	4.90202E-02,	3.80456E+01,	1.95713E+01,	-2.38519E+01,	0.00000E+00,	0,	0
  2.76923E+02,	1.00000E+01,	4.90202E-02,	4.06809E+01,	2.08470E+01,	-2.92096E+01,	0.00000E+00,	0,	0
  2.20408E+02,	1.00000E+01,	4.90202E-02,	4.35874E+01,	2.22311E+01,	-3.53810E+01,	0.00000E+00,	0,	0
  1.74194E+02,	1.00000E+01,	4.90202E-02,	4.68699E+01,	2.38882E+01,	-4.32137E+01,	0.00000E+00,	0,	0
  1.37580E+02,	1.00000E+01,	4.90202E-02,	5.05717E+01,	2.58557E+01,	-5.29389E+01,	0.00000E+00,	0,	0
  1.09091E+02,	1.00000E+01,	4.90202E-02,	5.46525E+01,	2.81551E+01,	-6.48075E+01,	0.00000E+00,	0,	0
  8.70968E+01,	1.00000E+01,	4.90202E-02,	6.03631E+01,	3.08475E+01,	-7.91159E+01,	0.00000E+00,	0,	0
  6.83544E+01,	1.00000E+01,	4.90202E-02,	6.54188E+01,	3.43817E+01,	-9.85916E+01,	0.00000E+00,	0,	0
  5.45455E+01,	1.00000E+01,	4.90202E-02,	7.08659E+01,	3.87978E+01,	-1.18662E+02,	0.00000E+00,	0,	0
  4.28571E+01,	1.00000E+01,	4.90202E-02,	7.43848E+01,	4.42794E+01,	-1.46903E+02,	0.00000E+00,	0,	0
  3.39623E+01,	1.00000E+01,	4.90202E-02,	7.81297E+01,	4.97751E+01,	-1.80363E+02,	0.00000E+00,	0,	0
  2.68657E+01,	1.00000E+01,	4.90202E-02,	8.19724E+01,	5.86148E+01,	-2.22842E+02,	0.00000E+00,	0,	0
  2.13439E+01,	1.00000E+01,	4.90202E-02,	8.57844E+01,	6.95424E+01,	-2.73649E+02,	0.00000E+00,	0,	0
  1.73077E+01,	1.00000E+01,	4.90202E-02,	9.24584E+01,	8.22249E+01,	-3.30310E+02,	0.00000E+00,	0,	0
  1.36364E+01,	1.00000E+01,	4.90202E-02,	9.74981E+01,	1.00127E+02,	-4.07677E+02,	0.00000E+00,	0,	0
  1.07143E+01,	1.00000E+01,	4.90202E-02,	1.00418E+02,	1.23499E+02,	-5.03637E+02,	0.00000E+00,	0,	0
  8.49057E+00,	1.00000E+01,	4.90202E-02,	1.04613E+02,	1.52509E+02,	-6.17168E+02,	0.00000E+00,	0,	0
  6.71642E+00,	1.00000E+01,	4.90202E-02,	1.07127E+02,	1.90155E+02,	-7.55775E+02,	0.00000E+00,	0,	0
  5.29412E+00,	1.00000E+01,	4.90202E-02,	1.10080E+02,	2.39794E+02,	-9.26435E+02,	0.00000E+00,	0,	0
  4.16667E+00,	1.00000E+01,	4.90202E-02,	1.13553E+02,	3.04137E+02,	-1.13504E+03,	0.00000E+00,	0,	0
  3.30882E+00,	1.00000E+01,	4.90202E-02,	1.20078E+02,	3.83667E+02,	-1.37642E+03,	0.00000E+00,	0,	0
  2.61628E+00,	1.00000E+01,	4.90202E-02,	1.24076E+02,	4.88035E+02,	-1.67092E+03,	0.00000E+00,	0,	0
  2.07373E+00,	1.00000E+01,	4.90202E-02,	1.28849E+02,	6.18928E+02,	-2.01852E+03,	0.00000E+00,	0,	0
  1.64234E+00,	1.00000E+01,	4.90202E-02,	1.34629E+02,	7.84254E+02,	-2.43078E+03,	0.00000E+00,	0,	0
  1.30058E+00,	1.00000E+01,	4.90202E-02,	1.38793E+02,	9.89824E+02,	-2.91395E+03,	0.00000E+00,	0,	0
  1.03211E+00,	1.00000E+01,	4.90202E-02,	1.43198E+02,	1.24219E+03,	-3.48140E+03,	0.00000E+00,	0,	0
  8.15217E-01,	1.00000E+01,	4.90202E-02,	1.50163E+02,	1.54203E+03,	-4.14733E+03,	0.00000E+00,	0,	0
  6.46552E-01,	1.00000E+01,	4.90202E-02,	1.54970E+02,	1.89896E+03,	-4.92043E+03,	0.00000E+00,	0,	0
  5.11364E-01,	1.00000E+01,	4.90202E-02,	1.60005E+02,	2.24280E+03,	-5.87714E+03,	0.00000E+00,	0,	0
  4.07609E-01,	1.00000E+01,	4.90202E-02,	1.66110E+02,	2.70810E+03,	-6.94327E+03,	0.00000E+00,	0,	0
  3.21429E-01,	1.00000E+01,	4.90202E-02,	1.73248E+02,	3.29029E+03,	-8.39269E+03,	0.00000E+00,	0,	0
  2.54525E-01,	1.00000E+01,	4.90202E-02,	1.82008E+02,	3.94373E+03,	-9.93918E+03,	0.00000E+00,	0,	0
  2.01613E-01,	1.00000E+01,	4.90202E-02,	1.92837E+02,	4.67328E+03,	-1.18221E+04,	0.00000E+00,	0,	0
  1.59574E-01,	1.00000E+01,	4.90202E-02,	2.06308E+02,	5.50812E+03,	-1.41029E+04,	0.00000E+00,	0,	0
  1.26689E-01,	1.00000E+01,	4.90202E-02,	2.40192E+02,	6.49153E+03,	-1.66117E+04,	0.00000E+00,	0,	0
  1.00446E-01,	1.00000E+01,	4.90202E-02,	2.61049E+02,	7.50513E+03,	-2.06531E+04,	0.00000E+00,	0,	0