Z60W Data File: Version 1.1
CorrTest for Windows: SN CS310H1805157  V5.2.1111.9  2.5H6.220118
Sweep Frequency: Control Voltage
  Date:4-29-2026   Time:10:21:04
  Begin Information:            Cell Information
      Surface Area:           1
      Density:                7.8
      Weight:                 28
  End Information:              Cell Information
  Freq (Hz)     Ampl(mV)       Bias(V)      Time(Sec)       Z'(Ohm.cm^2)    Z''(Ohm.cm^2)        GD       Err      Range
End Comments
  3.07200E+05,	1.00000E+01,	5.01357E-02,	4.53119E-02,	-1.45950E+00,	2.82285E+00,	0.00000E+00,	0,	0
  2.76480E+05,	1.00000E+01,	5.01357E-02,	1.64012E+00,	-8.95458E-01,	2.16271E+00,	0.00000E+00,	0,	0
  1.97486E+05,	1.00000E+01,	5.01357E-02,	2.58943E+00,	-1.63996E-01,	1.58018E+00,	0.00000E+00,	0,	0
  1.53600E+05,	1.00000E+01,	5.01357E-02,	3.50563E+00,	1.40336E-01,	1.20673E+00,	0.00000E+00,	0,	0
  1.25673E+05,	1.00000E+01,	5.01357E-02,	4.40437E+00,	2.96874E-01,	9.45894E-01,	0.00000E+00,	0,	0
  9.87429E+04,	1.00000E+01,	5.01357E-02,	5.31968E+00,	4.30193E-01,	7.19400E-01,	0.00000E+00,	0,	0
  7.68000E+04,	1.00000E+01,	5.01357E-02,	6.21575E+00,	5.05674E-01,	5.31810E-01,	0.00000E+00,	0,	0
  6.01043E+04,	1.00000E+01,	5.01357E-02,	9.43186E+00,	5.60445E-01,	3.15669E-01,	0.00000E+00,	0,	0
  4.93714E+04,	1.00000E+01,	5.01357E-02,	1.10570E+01,	5.80427E-01,	2.07843E-01,	0.00000E+00,	0,	0
  3.84000E+04,	1.00000E+01,	5.01357E-02,	1.19801E+01,	5.98279E-01,	8.52326E-02,	0.00000E+00,	0,	0
  3.00522E+04,	1.00000E+01,	5.01357E-02,	1.28620E+01,	6.12801E-01,	-3.22577E-02,	0.00000E+00,	0,	0
  2.38345E+04,	1.00000E+01,	5.01357E-02,	1.37249E+01,	6.27932E-01,	-1.40142E-01,	0.00000E+00,	0,	0
  1.86811E+04,	1.00000E+01,	5.01357E-02,	1.45690E+01,	6.45236E-01,	-2.57697E-01,	0.00000E+00,	0,	0
  1.47064E+04,	1.00000E+01,	5.01357E-02,	1.55732E+01,	6.65639E-01,	-3.83036E-01,	0.00000E+00,	0,	0
  1.15200E+04,	1.00000E+01,	5.01357E-02,	1.65374E+01,	6.90098E-01,	-5.24517E-01,	0.00000E+00,	0,	0
  9.60000E+03,	1.00000E+01,	5.01357E-02,	1.81019E+01,	7.12656E-01,	-6.45671E-01,	0.00000E+00,	0,	0
  7.51304E+03,	1.00000E+01,	5.01357E-02,	1.90420E+01,	7.48848E-01,	-8.33572E-01,	0.00000E+00,	0,	0
  5.76000E+03,	1.00000E+01,	5.01357E-02,	1.99824E+01,	7.96337E-01,	-1.07999E+00,	0.00000E+00,	0,	0
  4.54737E+03,	1.00000E+01,	5.01357E-02,	2.08969E+01,	8.49257E-01,	-1.34626E+00,	0.00000E+00,	0,	0
  3.60000E+03,	1.00000E+01,	5.01357E-02,	2.18883E+01,	9.15279E-01,	-1.66943E+00,	0.00000E+00,	0,	0
  2.88000E+03,	1.00000E+01,	5.01357E-02,	2.28162E+01,	9.94502E-01,	-2.04352E+00,	0.00000E+00,	0,	0
  2.27368E+03,	1.00000E+01,	5.01357E-02,	2.50986E+01,	1.08592E+00,	-2.50785E+00,	0.00000E+00,	0,	0
  1.78144E+03,	1.00000E+01,	5.01357E-02,	2.58862E+01,	1.21940E+00,	-3.10978E+00,	0.00000E+00,	0,	0
  1.41639E+03,	1.00000E+01,	5.01357E-02,	2.68258E+01,	1.38021E+00,	-3.80679E+00,	0.00000E+00,	0,	0
  1.12208E+03,	1.00000E+01,	5.01357E-02,	2.78691E+01,	1.58783E+00,	-4.66589E+00,	0.00000E+00,	0,	0
  9.00000E+02,	1.00000E+01,	5.01357E-02,	3.28598E+01,	1.84060E+00,	-5.67120E+00,	0.00000E+00,	0,	0
  7.20000E+02,	1.00000E+01,	5.01357E-02,	3.42451E+01,	2.15629E+00,	-6.87834E+00,	0.00000E+00,	0,	0
  5.68421E+02,	1.00000E+01,	5.01357E-02,	3.56140E+01,	2.58604E+00,	-8.42259E+00,	0.00000E+00,	0,	0
  4.40816E+02,	1.00000E+01,	5.01357E-02,	3.70740E+01,	3.18342E+00,	-1.04523E+01,	0.00000E+00,	0,	0
  3.54098E+02,	1.00000E+01,	5.01357E-02,	3.94196E+01,	3.83960E+00,	-1.25651E+01,	0.00000E+00,	0,	0
  2.76923E+02,	1.00000E+01,	5.01357E-02,	4.20520E+01,	4.78667E+00,	-1.54111E+01,	0.00000E+00,	0,	0
  2.20408E+02,	1.00000E+01,	5.01357E-02,	4.49651E+01,	5.90259E+00,	-1.85823E+01,	0.00000E+00,	0,	0
  1.74194E+02,	1.00000E+01,	5.01357E-02,	4.82202E+01,	7.35356E+00,	-2.24656E+01,	0.00000E+00,	0,	0
  1.37580E+02,	1.00000E+01,	5.01357E-02,	5.19170E+01,	9.16707E+00,	-2.70741E+01,	0.00000E+00,	0,	0
  1.09091E+02,	1.00000E+01,	5.01357E-02,	5.60346E+01,	1.13573E+01,	-3.24371E+01,	0.00000E+00,	0,	0
  8.70968E+01,	1.00000E+01,	5.01357E-02,	6.42199E+01,	1.39616E+01,	-3.87043E+01,	0.00000E+00,	0,	0
  6.83544E+01,	1.00000E+01,	5.01357E-02,	6.92889E+01,	1.73022E+01,	-4.67275E+01,	0.00000E+00,	0,	0
  5.45455E+01,	1.00000E+01,	5.01357E-02,	7.47302E+01,	2.10879E+01,	-5.44144E+01,	0.00000E+00,	0,	0
  4.28571E+01,	1.00000E+01,	5.01357E-02,	7.82486E+01,	2.56757E+01,	-6.49187E+01,	0.00000E+00,	0,	0
  3.39623E+01,	1.00000E+01,	5.01357E-02,	8.19970E+01,	3.03051E+01,	-7.68749E+01,	0.00000E+00,	0,	0
  2.68657E+01,	1.00000E+01,	5.01357E-02,	8.58810E+01,	3.64071E+01,	-9.15359E+01,	0.00000E+00,	0,	0
  2.13439E+01,	1.00000E+01,	5.01357E-02,	8.96813E+01,	4.31753E+01,	-1.08491E+02,	0.00000E+00,	0,	0
  1.73077E+01,	1.00000E+01,	5.01357E-02,	9.63921E+01,	5.01417E+01,	-1.26976E+02,	0.00000E+00,	0,	0
  1.36364E+01,	1.00000E+01,	5.01357E-02,	1.01452E+02,	5.87735E+01,	-1.51755E+02,	0.00000E+00,	0,	0
  1.07143E+01,	1.00000E+01,	5.01357E-02,	1.04427E+02,	6.84569E+01,	-1.82203E+02,	0.00000E+00,	0,	0
  8.49057E+00,	1.00000E+01,	5.01357E-02,	1.08660E+02,	7.87019E+01,	-2.18119E+02,	0.00000E+00,	0,	0
  6.71642E+00,	1.00000E+01,	5.01357E-02,	1.11188E+02,	9.01369E+01,	-2.62582E+02,	0.00000E+00,	0,	0
  5.29412E+00,	1.00000E+01,	5.01357E-02,	1.14162E+02,	1.03031E+02,	-3.18083E+02,	0.00000E+00,	0,	0
  4.16667E+00,	1.00000E+01,	5.01357E-02,	1.17670E+02,	1.17376E+02,	-3.87726E+02,	0.00000E+00,	0,	0
  3.30882E+00,	1.00000E+01,	5.01357E-02,	1.21910E+02,	1.33010E+02,	-4.70895E+02,	0.00000E+00,	0,	0
  2.61628E+00,	1.00000E+01,	5.01357E-02,	1.25888E+02,	1.51383E+02,	-5.75678E+02,	0.00000E+00,	0,	0
  2.07373E+00,	1.00000E+01,	5.01357E-02,	1.30690E+02,	1.72297E+02,	-7.04800E+02,	0.00000E+00,	0,	0
  1.64234E+00,	1.00000E+01,	5.01357E-02,	1.36485E+02,	1.96855E+02,	-8.65506E+02,	0.00000E+00,	0,	0
  1.30058E+00,	1.00000E+01,	5.01357E-02,	1.40698E+02,	2.26684E+02,	-1.06509E+03,	0.00000E+00,	0,	0
  1.03211E+00,	1.00000E+01,	5.01357E-02,	1.45149E+02,	2.61930E+02,	-1.31094E+03,	0.00000E+00,	0,	0
  8.15217E-01,	1.00000E+01,	5.01357E-02,	1.52116E+02,	3.05078E+02,	-1.62061E+03,	0.00000E+00,	0,	0
  6.46552E-01,	1.00000E+01,	5.01357E-02,	1.61194E+02,	3.45973E+02,	-2.00280E+03,	0.00000E+00,	0,	0
  5.11364E-01,	1.00000E+01,	5.01357E-02,	1.66202E+02,	4.06467E+02,	-2.49732E+03,	0.00000E+00,	0,	0
  4.07609E-01,	1.00000E+01,	5.01357E-02,	1.72265E+02,	4.81004E+02,	-3.07370E+03,	0.00000E+00,	0,	0
  3.21429E-01,	1.00000E+01,	5.01357E-02,	1.79416E+02,	5.69035E+02,	-3.84744E+03,	0.00000E+00,	0,	0
  2.54525E-01,	1.00000E+01,	5.01357E-02,	1.88254E+02,	6.86422E+02,	-4.76433E+03,	0.00000E+00,	0,	0
  2.01613E-01,	1.00000E+01,	5.01357E-02,	1.99099E+02,	8.25357E+02,	-5.90570E+03,	0.00000E+00,	0,	0
  1.59574E-01,	1.00000E+01,	5.01357E-02,	2.12547E+02,	1.00287E+03,	-7.32724E+03,	0.00000E+00,	0,	0
  1.26689E-01,	1.00000E+01,	5.01357E-02,	2.29456E+02,	1.22380E+03,	-9.06456E+03,	0.00000E+00,	0,	0
  1.00446E-01,	1.00000E+01,	5.01357E-02,	2.50324E+02,	1.50054E+03,	-1.12376E+04,	0.00000E+00,	0,	0