Z60W Data File: Version 1.1
CorrTest for Windows: SN CS310H1805157  V5.2.1111.9  2.5H6.220118
Sweep Frequency: Control Voltage
  Date:4-29-2026   Time:09:18:45
  Begin Information:            Cell Information
      Surface Area:           1
      Density:                7.8
      Weight:                 28
  End Information:              Cell Information
  Freq (Hz)     Ampl(mV)       Bias(V)      Time(Sec)       Z'(Ohm.cm^2)    Z''(Ohm.cm^2)        GD       Err      Range
End Comments
  3.07200E+05,	1.00000E+01,	4.33334E-02,	7.36703E-02,	-1.56151E+00,	2.77882E+00,	0.00000E+00,	0,	0
  2.76480E+05,	1.00000E+01,	4.33334E-02,	1.66480E+00,	-9.42156E-01,	2.19742E+00,	0.00000E+00,	0,	0
  1.97486E+05,	1.00000E+01,	4.33334E-02,	2.61875E+00,	-2.43653E-01,	1.55283E+00,	0.00000E+00,	0,	0
  1.53600E+05,	1.00000E+01,	4.33334E-02,	3.55854E+00,	6.79501E-02,	1.17893E+00,	0.00000E+00,	0,	0
  1.25673E+05,	1.00000E+01,	4.33334E-02,	4.46643E+00,	2.14432E-01,	9.46592E-01,	0.00000E+00,	0,	0
  9.87429E+04,	1.00000E+01,	4.33334E-02,	5.37551E+00,	3.51647E-01,	7.02221E-01,	0.00000E+00,	0,	0
  7.68000E+04,	1.00000E+01,	4.33334E-02,	6.32763E+00,	4.29341E-01,	5.23955E-01,	0.00000E+00,	0,	0
  6.01043E+04,	1.00000E+01,	4.33334E-02,	9.55378E+00,	4.88025E-01,	3.23352E-01,	0.00000E+00,	0,	0
  4.93714E+04,	1.00000E+01,	4.33334E-02,	1.11560E+01,	5.06455E-01,	2.19418E-01,	0.00000E+00,	0,	0
  3.84000E+04,	1.00000E+01,	4.33334E-02,	1.20496E+01,	5.19697E-01,	9.86513E-02,	0.00000E+00,	0,	0
  3.00522E+04,	1.00000E+01,	4.33334E-02,	1.29030E+01,	5.34448E-01,	-1.29505E-02,	0.00000E+00,	0,	0
  2.38345E+04,	1.00000E+01,	4.33334E-02,	1.37701E+01,	5.47201E-01,	-1.14906E-01,	0.00000E+00,	0,	0
  1.86811E+04,	1.00000E+01,	4.33334E-02,	1.46388E+01,	5.62037E-01,	-2.26073E-01,	0.00000E+00,	0,	0
  1.47064E+04,	1.00000E+01,	4.33334E-02,	1.56211E+01,	5.79877E-01,	-3.43876E-01,	0.00000E+00,	0,	0
  1.15200E+04,	1.00000E+01,	4.33334E-02,	1.66297E+01,	6.02756E-01,	-4.77886E-01,	0.00000E+00,	0,	0
  9.60000E+03,	1.00000E+01,	4.33334E-02,	1.82165E+01,	6.23189E-01,	-5.90221E-01,	0.00000E+00,	0,	0
  7.51304E+03,	1.00000E+01,	4.33334E-02,	1.91124E+01,	6.55700E-01,	-7.65608E-01,	0.00000E+00,	0,	0
  5.76000E+03,	1.00000E+01,	4.33334E-02,	2.00191E+01,	7.00154E-01,	-9.95834E-01,	0.00000E+00,	0,	0
  4.54737E+03,	1.00000E+01,	4.33334E-02,	2.09082E+01,	7.49467E-01,	-1.24678E+00,	0.00000E+00,	0,	0
  3.60000E+03,	1.00000E+01,	4.33334E-02,	2.19097E+01,	8.09897E-01,	-1.54491E+00,	0.00000E+00,	0,	0
  2.88000E+03,	1.00000E+01,	4.33334E-02,	2.28223E+01,	8.82415E-01,	-1.89080E+00,	0.00000E+00,	0,	0
  2.27368E+03,	1.00000E+01,	4.33334E-02,	2.51022E+01,	9.77359E-01,	-2.32085E+00,	0.00000E+00,	0,	0
  1.78144E+03,	1.00000E+01,	4.33334E-02,	2.59355E+01,	1.10465E+00,	-2.87999E+00,	0.00000E+00,	0,	0
  1.41639E+03,	1.00000E+01,	4.33334E-02,	2.68345E+01,	1.25737E+00,	-3.52016E+00,	0.00000E+00,	0,	0
  1.12208E+03,	1.00000E+01,	4.33334E-02,	2.78590E+01,	1.45507E+00,	-4.31756E+00,	0.00000E+00,	0,	0
  9.00000E+02,	1.00000E+01,	4.33334E-02,	3.28476E+01,	1.70393E+00,	-5.23661E+00,	0.00000E+00,	0,	0
  7.20000E+02,	1.00000E+01,	4.33334E-02,	3.42784E+01,	2.01133E+00,	-6.34147E+00,	0.00000E+00,	0,	0
  5.68421E+02,	1.00000E+01,	4.33334E-02,	3.56389E+01,	2.42983E+00,	-7.75020E+00,	0.00000E+00,	0,	0
  4.40816E+02,	1.00000E+01,	4.33334E-02,	3.71160E+01,	3.01026E+00,	-9.59724E+00,	0.00000E+00,	0,	0
  3.54098E+02,	1.00000E+01,	4.33334E-02,	3.95039E+01,	3.64657E+00,	-1.15084E+01,	0.00000E+00,	0,	0
  2.76923E+02,	1.00000E+01,	4.33334E-02,	4.21626E+01,	4.56065E+00,	-1.40652E+01,	0.00000E+00,	0,	0
  2.20408E+02,	1.00000E+01,	4.33334E-02,	4.50843E+01,	5.62941E+00,	-1.69023E+01,	0.00000E+00,	0,	0
  1.74194E+02,	1.00000E+01,	4.33334E-02,	4.83812E+01,	6.99860E+00,	-2.03471E+01,	0.00000E+00,	0,	0
  1.37580E+02,	1.00000E+01,	4.33334E-02,	5.20294E+01,	8.68830E+00,	-2.44233E+01,	0.00000E+00,	0,	0
  1.09091E+02,	1.00000E+01,	4.33334E-02,	5.61319E+01,	1.06945E+01,	-2.91532E+01,	0.00000E+00,	0,	0
  8.70968E+01,	1.00000E+01,	4.33334E-02,	6.42764E+01,	1.30418E+01,	-3.46725E+01,	0.00000E+00,	0,	0
  6.83544E+01,	1.00000E+01,	4.33334E-02,	6.93031E+01,	1.60101E+01,	-4.17517E+01,	0.00000E+00,	0,	0
  5.45455E+01,	1.00000E+01,	4.33334E-02,	7.47483E+01,	1.93234E+01,	-4.85345E+01,	0.00000E+00,	0,	0
  4.28571E+01,	1.00000E+01,	4.33334E-02,	7.82664E+01,	2.33077E+01,	-5.78462E+01,	0.00000E+00,	0,	0
  3.39623E+01,	1.00000E+01,	4.33334E-02,	8.19867E+01,	2.72586E+01,	-6.84766E+01,	0.00000E+00,	0,	0
  2.68657E+01,	1.00000E+01,	4.33334E-02,	8.58119E+01,	3.24461E+01,	-8.15879E+01,	0.00000E+00,	0,	0
  2.13439E+01,	1.00000E+01,	4.33334E-02,	8.96160E+01,	3.81197E+01,	-9.68210E+01,	0.00000E+00,	0,	0
  1.73077E+01,	1.00000E+01,	4.33334E-02,	9.63020E+01,	4.39022E+01,	-1.13536E+02,	0.00000E+00,	0,	0
  1.36364E+01,	1.00000E+01,	4.33334E-02,	1.01323E+02,	5.09742E+01,	-1.36118E+02,	0.00000E+00,	0,	0
  1.07143E+01,	1.00000E+01,	4.33334E-02,	1.04278E+02,	5.88738E+01,	-1.64075E+02,	0.00000E+00,	0,	0
  8.49057E+00,	1.00000E+01,	4.33334E-02,	1.08523E+02,	6.72746E+01,	-1.97438E+02,	0.00000E+00,	0,	0
  6.71642E+00,	1.00000E+01,	4.33334E-02,	1.11041E+02,	7.66379E+01,	-2.38740E+02,	0.00000E+00,	0,	0
  5.29412E+00,	1.00000E+01,	4.33334E-02,	1.14000E+02,	8.73355E+01,	-2.90601E+02,	0.00000E+00,	0,	0
  4.16667E+00,	1.00000E+01,	4.33334E-02,	1.17463E+02,	9.94894E+01,	-3.55854E+02,	0.00000E+00,	0,	0
  3.30882E+00,	1.00000E+01,	4.33334E-02,	1.21740E+02,	1.12905E+02,	-4.33826E+02,	0.00000E+00,	0,	0
  2.61628E+00,	1.00000E+01,	4.33334E-02,	1.25748E+02,	1.28970E+02,	-5.32211E+02,	0.00000E+00,	0,	0
  2.07373E+00,	1.00000E+01,	4.33334E-02,	1.30560E+02,	1.47684E+02,	-6.53396E+02,	0.00000E+00,	0,	0
  1.64234E+00,	1.00000E+01,	4.33334E-02,	1.36334E+02,	1.69979E+02,	-8.04165E+02,	0.00000E+00,	0,	0
  1.30058E+00,	1.00000E+01,	4.33334E-02,	1.40492E+02,	1.97447E+02,	-9.91261E+02,	0.00000E+00,	0,	0
  1.03211E+00,	1.00000E+01,	4.33334E-02,	1.44902E+02,	2.30321E+02,	-1.22144E+03,	0.00000E+00,	0,	0
  8.15217E-01,	1.00000E+01,	4.33334E-02,	1.51844E+02,	2.70853E+02,	-1.51135E+03,	0.00000E+00,	0,	0
  6.46552E-01,	1.00000E+01,	4.33334E-02,	1.60927E+02,	3.09036E+02,	-1.86721E+03,	0.00000E+00,	0,	0
  5.11364E-01,	1.00000E+01,	4.33334E-02,	1.65952E+02,	3.67627E+02,	-2.33110E+03,	0.00000E+00,	0,	0
  4.07609E-01,	1.00000E+01,	4.33334E-02,	1.72006E+02,	4.39708E+02,	-2.87073E+03,	0.00000E+00,	0,	0
  3.21429E-01,	1.00000E+01,	4.33334E-02,	1.79165E+02,	5.28093E+02,	-3.59289E+03,	0.00000E+00,	0,	0
  2.54525E-01,	1.00000E+01,	4.33334E-02,	1.87934E+02,	6.46852E+02,	-4.45209E+03,	0.00000E+00,	0,	0
  2.01613E-01,	1.00000E+01,	4.33334E-02,	1.98848E+02,	7.92229E+02,	-5.52018E+03,	0.00000E+00,	0,	0
  1.59574E-01,	1.00000E+01,	4.33334E-02,	2.12306E+02,	9.85972E+02,	-6.84862E+03,	0.00000E+00,	0,	0
  1.26689E-01,	1.00000E+01,	4.33334E-02,	2.29241E+02,	1.22338E+03,	-8.46871E+03,	0.00000E+00,	0,	0
  1.00446E-01,	1.00000E+01,	4.33334E-02,	2.50175E+02,	1.54364E+03,	-1.05010E+04,	0.00000E+00,	0,	0