Z60W Data File: Version 1.1
CorrTest for Windows: SN CS310H1805157  V5.2.1111.9  2.5H6.220118
Sweep Frequency: Control Voltage
  Date:4-28-2026   Time:20:46:55
  Begin Information:            Cell Information
      Surface Area:           1
      Density:                7.8
      Weight:                 28
  End Information:              Cell Information
  Freq (Hz)     Ampl(mV)       Bias(V)      Time(Sec)       Z'(Ohm.cm^2)    Z''(Ohm.cm^2)        GD       Err      Range
End Comments
  3.07200E+05,	1.00000E+01,	5.27811E-03,	3.53740E-02,	-1.26699E+00,	2.95100E+00,	0.00000E+00,	0,	0
  2.76480E+05,	1.00000E+01,	5.27811E-03,	1.68914E+00,	-7.08168E-01,	2.33580E+00,	0.00000E+00,	0,	0
  1.97486E+05,	1.00000E+01,	5.27811E-03,	2.58016E+00,	6.11628E-02,	1.67511E+00,	0.00000E+00,	0,	0
  1.53600E+05,	1.00000E+01,	5.27811E-03,	3.50471E+00,	3.23384E-01,	1.27580E+00,	0.00000E+00,	0,	0
  1.25673E+05,	1.00000E+01,	5.27811E-03,	4.39345E+00,	4.92141E-01,	1.01555E+00,	0.00000E+00,	0,	0
  9.87429E+04,	1.00000E+01,	5.27811E-03,	5.32331E+00,	6.22670E-01,	7.64847E-01,	0.00000E+00,	0,	0
  7.68000E+04,	1.00000E+01,	5.27811E-03,	6.24895E+00,	7.14452E-01,	5.70395E-01,	0.00000E+00,	0,	0
  6.01043E+04,	1.00000E+01,	5.27811E-03,	9.47232E+00,	8.41770E-01,	3.65466E-01,	0.00000E+00,	0,	0
  4.93714E+04,	1.00000E+01,	5.27811E-03,	1.10903E+01,	8.64768E-01,	2.56644E-01,	0.00000E+00,	0,	0
  3.84000E+04,	1.00000E+01,	5.27811E-03,	1.20066E+01,	8.81631E-01,	1.30361E-01,	0.00000E+00,	0,	0
  3.00522E+04,	1.00000E+01,	5.27811E-03,	1.28872E+01,	8.95579E-01,	1.51855E-02,	0.00000E+00,	0,	0
  2.38345E+04,	1.00000E+01,	5.27811E-03,	1.37479E+01,	9.08383E-01,	-8.93129E-02,	0.00000E+00,	0,	0
  1.86811E+04,	1.00000E+01,	5.27811E-03,	1.45931E+01,	9.22871E-01,	-2.01291E-01,	0.00000E+00,	0,	0
  1.47064E+04,	1.00000E+01,	5.27811E-03,	1.55453E+01,	9.39818E-01,	-3.19520E-01,	0.00000E+00,	0,	0
  1.15200E+04,	1.00000E+01,	5.27811E-03,	1.65026E+01,	9.62395E-01,	-4.51691E-01,	0.00000E+00,	0,	0
  9.60000E+03,	1.00000E+01,	5.27811E-03,	1.80829E+01,	9.81736E-01,	-5.62948E-01,	0.00000E+00,	0,	0
  7.51304E+03,	1.00000E+01,	5.27811E-03,	1.89725E+01,	1.01282E+00,	-7.34159E-01,	0.00000E+00,	0,	0
  5.76000E+03,	1.00000E+01,	5.27811E-03,	1.98907E+01,	1.05608E+00,	-9.57628E-01,	0.00000E+00,	0,	0
  4.54737E+03,	1.00000E+01,	5.27811E-03,	2.07513E+01,	1.10305E+00,	-1.20025E+00,	0.00000E+00,	0,	0
  3.60000E+03,	1.00000E+01,	5.27811E-03,	2.17356E+01,	1.16339E+00,	-1.49216E+00,	0.00000E+00,	0,	0
  2.88000E+03,	1.00000E+01,	5.27811E-03,	2.26540E+01,	1.23564E+00,	-1.82934E+00,	0.00000E+00,	0,	0
  2.27368E+03,	1.00000E+01,	5.27811E-03,	2.49379E+01,	1.34710E+00,	-2.24469E+00,	0.00000E+00,	0,	0
  1.78144E+03,	1.00000E+01,	5.27811E-03,	2.57273E+01,	1.47250E+00,	-2.78098E+00,	0.00000E+00,	0,	0
  1.41639E+03,	1.00000E+01,	5.27811E-03,	2.66348E+01,	1.62059E+00,	-3.40896E+00,	0.00000E+00,	0,	0
  1.12208E+03,	1.00000E+01,	5.27811E-03,	2.76935E+01,	1.82485E+00,	-4.17412E+00,	0.00000E+00,	0,	0
  9.00000E+02,	1.00000E+01,	5.27811E-03,	3.26954E+01,	2.07044E+00,	-5.05554E+00,	0.00000E+00,	0,	0
  7.20000E+02,	1.00000E+01,	5.27811E-03,	3.40925E+01,	2.37523E+00,	-6.11432E+00,	0.00000E+00,	0,	0
  5.68421E+02,	1.00000E+01,	5.27811E-03,	3.54802E+01,	2.78788E+00,	-7.46934E+00,	0.00000E+00,	0,	0
  4.40816E+02,	1.00000E+01,	5.27811E-03,	3.69322E+01,	3.36410E+00,	-9.23291E+00,	0.00000E+00,	0,	0
  3.54098E+02,	1.00000E+01,	5.27811E-03,	3.92799E+01,	3.99353E+00,	-1.10540E+01,	0.00000E+00,	0,	0
  2.76923E+02,	1.00000E+01,	5.27811E-03,	4.19325E+01,	4.89432E+00,	-1.34764E+01,	0.00000E+00,	0,	0
  2.20408E+02,	1.00000E+01,	5.27811E-03,	4.48534E+01,	5.94672E+00,	-1.61658E+01,	0.00000E+00,	0,	0
  1.74194E+02,	1.00000E+01,	5.27811E-03,	4.81219E+01,	7.28275E+00,	-1.94101E+01,	0.00000E+00,	0,	0
  1.37580E+02,	1.00000E+01,	5.27811E-03,	5.18013E+01,	8.91670E+00,	-2.32366E+01,	0.00000E+00,	0,	0
  1.09091E+02,	1.00000E+01,	5.27811E-03,	5.59092E+01,	1.08401E+01,	-2.76600E+01,	0.00000E+00,	0,	0
  8.70968E+01,	1.00000E+01,	5.27811E-03,	6.40460E+01,	1.30599E+01,	-3.28073E+01,	0.00000E+00,	0,	0
  6.83544E+01,	1.00000E+01,	5.27811E-03,	6.90905E+01,	1.58357E+01,	-3.94219E+01,	0.00000E+00,	0,	0
  5.45455E+01,	1.00000E+01,	5.27811E-03,	7.46051E+01,	1.88872E+01,	-4.57413E+01,	0.00000E+00,	0,	0
  4.28571E+01,	1.00000E+01,	5.27811E-03,	7.81688E+01,	2.25330E+01,	-5.44868E+01,	0.00000E+00,	0,	0
  3.39623E+01,	1.00000E+01,	5.27811E-03,	8.18933E+01,	2.60902E+01,	-6.45119E+01,	0.00000E+00,	0,	0
  2.68657E+01,	1.00000E+01,	5.27811E-03,	8.57337E+01,	3.07738E+01,	-7.69217E+01,	0.00000E+00,	0,	0
  2.13439E+01,	1.00000E+01,	5.27811E-03,	8.95391E+01,	3.58662E+01,	-9.14096E+01,	0.00000E+00,	0,	0
  1.73077E+01,	1.00000E+01,	5.27811E-03,	9.62288E+01,	4.10170E+01,	-1.07331E+02,	0.00000E+00,	0,	0
  1.36364E+01,	1.00000E+01,	5.27811E-03,	1.01282E+02,	4.73144E+01,	-1.28960E+02,	0.00000E+00,	0,	0
  1.07143E+01,	1.00000E+01,	5.27811E-03,	1.04202E+02,	5.43707E+01,	-1.55877E+02,	0.00000E+00,	0,	0
  8.49057E+00,	1.00000E+01,	5.27811E-03,	1.08390E+02,	6.18369E+01,	-1.87954E+02,	0.00000E+00,	0,	0
  6.71642E+00,	1.00000E+01,	5.27811E-03,	1.10965E+02,	7.03131E+01,	-2.28054E+02,	0.00000E+00,	0,	0
  5.29412E+00,	1.00000E+01,	5.27811E-03,	1.13901E+02,	8.00686E+01,	-2.78256E+02,	0.00000E+00,	0,	0
  4.16667E+00,	1.00000E+01,	5.27811E-03,	1.17432E+02,	9.12465E+01,	-3.41457E+02,	0.00000E+00,	0,	0
  3.30882E+00,	1.00000E+01,	5.27811E-03,	1.21684E+02,	1.03812E+02,	-4.17140E+02,	0.00000E+00,	0,	0
  2.61628E+00,	1.00000E+01,	5.27811E-03,	1.25673E+02,	1.19096E+02,	-5.12494E+02,	0.00000E+00,	0,	0
  2.07373E+00,	1.00000E+01,	5.27811E-03,	1.30448E+02,	1.37026E+02,	-6.29784E+02,	0.00000E+00,	0,	0
  1.64234E+00,	1.00000E+01,	5.27811E-03,	1.36285E+02,	1.58710E+02,	-7.75597E+02,	0.00000E+00,	0,	0
  1.30058E+00,	1.00000E+01,	5.27811E-03,	1.40468E+02,	1.85885E+02,	-9.56544E+02,	0.00000E+00,	0,	0
  1.03211E+00,	1.00000E+01,	5.27811E-03,	1.44879E+02,	2.18421E+02,	-1.17865E+03,	0.00000E+00,	0,	0
  8.15217E-01,	1.00000E+01,	5.27811E-03,	1.51822E+02,	2.59178E+02,	-1.45806E+03,	0.00000E+00,	0,	0
  6.46552E-01,	1.00000E+01,	5.27811E-03,	1.60905E+02,	3.03526E+02,	-1.79454E+03,	0.00000E+00,	0,	0
  5.11364E-01,	1.00000E+01,	5.27811E-03,	1.65955E+02,	3.58176E+02,	-2.22928E+03,	0.00000E+00,	0,	0
  4.07609E-01,	1.00000E+01,	5.27811E-03,	1.72010E+02,	4.35953E+02,	-2.74605E+03,	0.00000E+00,	0,	0
  3.21429E-01,	1.00000E+01,	5.27811E-03,	1.79128E+02,	5.40342E+02,	-3.43861E+03,	0.00000E+00,	0,	0
  2.54525E-01,	1.00000E+01,	5.27811E-03,	1.87935E+02,	6.66242E+02,	-4.24397E+03,	0.00000E+00,	0,	0
  2.01613E-01,	1.00000E+01,	5.27811E-03,	1.98794E+02,	8.27290E+02,	-5.25924E+03,	0.00000E+00,	0,	0
  1.59574E-01,	1.00000E+01,	5.27811E-03,	2.12246E+02,	1.06663E+03,	-6.50161E+03,	0.00000E+00,	0,	0
  1.26689E-01,	1.00000E+01,	5.27811E-03,	2.29153E+02,	1.35988E+03,	-8.00359E+03,	0.00000E+00,	0,	0
  1.00446E-01,	1.00000E+01,	5.27811E-03,	2.50072E+02,	1.84500E+03,	-9.94059E+03,	0.00000E+00,	0,	0