Z60W Data File: Version 1.1
CorrTest for Windows: SN CS310H1805157  V5.2.1111.9  2.5H6.220118
Sweep Frequency: Control Voltage
  Date:4-29-2026   Time:15:11:43
  Begin Information:            Cell Information
      Surface Area:           1
      Density:                7.8
      Weight:                 28
  End Information:              Cell Information
  Freq (Hz)     Ampl(mV)       Bias(V)      Time(Sec)       Z'(Ohm.cm^2)    Z''(Ohm.cm^2)        GD       Err      Range
End Comments
  1.02857E+03,	1.00000E+01,	4.00232E-02,	3.32675E-02,	2.55287E+03,	-2.06335E+02,	0.00000E+00,	0,	0
  8.00000E+02,	1.00000E+01,	4.00232E-02,	4.26813E+00,	2.58645E+03,	-1.87621E+02,	0.00000E+00,	0,	0
  6.35294E+02,	1.00000E+01,	4.00232E-02,	5.66034E+00,	2.61552E+03,	-1.89297E+02,	0.00000E+00,	0,	0
  5.02326E+02,	1.00000E+01,	4.00232E-02,	7.03247E+00,	2.64184E+03,	-1.92095E+02,	0.00000E+00,	0,	0
  3.92727E+02,	1.00000E+01,	4.00232E-02,	8.41078E+00,	2.67134E+03,	-1.95739E+02,	0.00000E+00,	0,	0
  3.08571E+02,	1.00000E+01,	4.00232E-02,	1.09207E+01,	2.70116E+03,	-2.01897E+02,	0.00000E+00,	0,	0
  2.42697E+02,	1.00000E+01,	4.00232E-02,	1.37340E+01,	2.73199E+03,	-2.14857E+02,	0.00000E+00,	0,	0
  1.92857E+02,	1.00000E+01,	4.00232E-02,	1.69511E+01,	2.76258E+03,	-2.31165E+02,	0.00000E+00,	0,	0
  1.52113E+02,	1.00000E+01,	4.00232E-02,	2.04075E+01,	2.79706E+03,	-2.53472E+02,	0.00000E+00,	0,	0
  1.20000E+02,	1.00000E+01,	4.00232E-02,	2.43109E+01,	2.83510E+03,	-2.83170E+02,	0.00000E+00,	0,	0
  9.47368E+01,	1.00000E+01,	4.00232E-02,	2.97768E+01,	2.88296E+03,	-3.21279E+02,	0.00000E+00,	0,	0
  7.50000E+01,	1.00000E+01,	4.00232E-02,	3.45948E+01,	2.93840E+03,	-3.69911E+02,	0.00000E+00,	0,	0
  5.93407E+01,	1.00000E+01,	4.00232E-02,	3.98345E+01,	2.96500E+03,	-3.99496E+02,	0.00000E+00,	0,	0
  4.65517E+01,	1.00000E+01,	4.00232E-02,	4.56196E+01,	3.02212E+03,	-4.62133E+02,	0.00000E+00,	0,	0
  3.67347E+01,	1.00000E+01,	4.00232E-02,	4.93798E+01,	3.05482E+03,	-5.48936E+02,	0.00000E+00,	0,	0
  2.90323E+01,	1.00000E+01,	4.00232E-02,	5.31753E+01,	3.13532E+03,	-6.31925E+02,	0.00000E+00,	0,	0
  2.28814E+01,	1.00000E+01,	4.00232E-02,	5.70526E+01,	3.20994E+03,	-7.33087E+02,	0.00000E+00,	0,	0
  1.87500E+01,	1.00000E+01,	4.00232E-02,	6.07635E+01,	3.27729E+03,	-8.33457E+02,	0.00000E+00,	0,	0
  1.45161E+01,	1.00000E+01,	4.00232E-02,	6.60771E+01,	3.37345E+03,	-9.89114E+02,	0.00000E+00,	0,	0
  1.15385E+01,	1.00000E+01,	4.00232E-02,	6.97599E+01,	3.46307E+03,	-1.15800E+03,	0.00000E+00,	0,	0
  9.00000E+00,	1.00000E+01,	4.00232E-02,	7.39286E+01,	3.57374E+03,	-1.37736E+03,	0.00000E+00,	0,	0
  7.03125E+00,	1.00000E+01,	4.00232E-02,	7.64601E+01,	3.68612E+03,	-1.64512E+03,	0.00000E+00,	0,	0
  5.55556E+00,	1.00000E+01,	4.00232E-02,	7.93125E+01,	3.81118E+03,	-1.95781E+03,	0.00000E+00,	0,	0
  4.41176E+00,	1.00000E+01,	4.00232E-02,	8.26692E+01,	3.94645E+03,	-2.32652E+03,	0.00000E+00,	0,	0
  3.46154E+00,	1.00000E+01,	4.00232E-02,	8.66680E+01,	4.11036E+03,	-2.80256E+03,	0.00000E+00,	0,	0
  2.74390E+00,	1.00000E+01,	4.00232E-02,	9.04999E+01,	4.28493E+03,	-3.35785E+03,	0.00000E+00,	0,	0
  2.16346E+00,	1.00000E+01,	4.00232E-02,	9.51194E+01,	4.48904E+03,	-4.05744E+03,	0.00000E+00,	0,	0
  1.70455E+00,	1.00000E+01,	4.00232E-02,	1.00715E+02,	4.72233E+03,	-4.92314E+03,	0.00000E+00,	0,	0
  1.34731E+00,	1.00000E+01,	4.00232E-02,	1.04900E+02,	4.97649E+03,	-5.97445E+03,	0.00000E+00,	0,	0
  1.06132E+00,	1.00000E+01,	4.00232E-02,	1.09210E+02,	5.28607E+03,	-7.29636E+03,	0.00000E+00,	0,	0
  8.39552E-01,	1.00000E+01,	4.00232E-02,	1.16082E+02,	5.63081E+03,	-8.90230E+03,	0.00000E+00,	0,	0
  6.61765E-01,	1.00000E+01,	4.00232E-02,	1.20685E+02,	6.04349E+03,	-1.09187E+04,	0.00000E+00,	0,	0
  5.23256E-01,	1.00000E+01,	4.00232E-02,	1.25618E+02,	6.40054E+03,	-1.35101E+04,	0.00000E+00,	0,	0
  4.13603E-01,	1.00000E+01,	4.00232E-02,	1.31601E+02,	6.99445E+03,	-1.65856E+04,	0.00000E+00,	0,	0
  3.27035E-01,	1.00000E+01,	4.00232E-02,	1.38641E+02,	7.79531E+03,	-2.07500E+04,	0.00000E+00,	0,	0
  2.58028E-01,	1.00000E+01,	4.00232E-02,	1.56432E+02,	8.75694E+03,	-2.50080E+04,	0.00000E+00,	0,	0
  2.03804E-01,	1.00000E+01,	4.00232E-02,	1.67176E+02,	9.73288E+03,	-3.16469E+04,	0.00000E+00,	0,	0
  1.60944E-01,	1.00000E+01,	4.00232E-02,	1.80569E+02,	1.12459E+04,	-3.86745E+04,	0.00000E+00,	0,	0
  1.26689E-01,	1.00000E+01,	4.00232E-02,	1.97290E+02,	1.30368E+04,	-4.78459E+04,	0.00000E+00,	0,	0
  1.00446E-01,	1.00000E+01,	4.00232E-02,	2.18211E+02,	1.52552E+04,	-5.88199E+04,	0.00000E+00,	0,	0