Z60W Data File: Version 1.1
CorrTest for Windows: SN CS310H1805157  V5.2.1111.9  2.5H6.220118
Sweep Frequency: Control Voltage
  Date:4-29-2026   Time:13:19:49
  Begin Information:            Cell Information
      Surface Area:           1
      Density:                7.8
      Weight:                 28
  End Information:              Cell Information
  Freq (Hz)     Ampl(mV)       Bias(V)      Time(Sec)       Z'(Ohm.cm^2)    Z''(Ohm.cm^2)        GD       Err      Range
End Comments
  3.07200E+05,	1.00000E+01,	5.88565E-02,	2.27962E-02,	-1.13087E+00,	2.97511E+00,	0.00000E+00,	0,	0
  2.76480E+05,	1.00000E+01,	5.88565E-02,	1.63062E+00,	-5.68677E-01,	2.33400E+00,	0.00000E+00,	0,	0
  1.97486E+05,	1.00000E+01,	5.88565E-02,	2.53980E+00,	1.74888E-01,	1.65981E+00,	0.00000E+00,	0,	0
  1.53600E+05,	1.00000E+01,	5.88565E-02,	3.43515E+00,	4.36396E-01,	1.24047E+00,	0.00000E+00,	0,	0
  1.25673E+05,	1.00000E+01,	5.88565E-02,	4.35100E+00,	6.23374E-01,	9.84507E-01,	0.00000E+00,	0,	0
  9.87429E+04,	1.00000E+01,	5.88565E-02,	5.24918E+00,	7.51620E-01,	7.22124E-01,	0.00000E+00,	0,	0
  7.68000E+04,	1.00000E+01,	5.88565E-02,	6.15782E+00,	8.34566E-01,	5.05590E-01,	0.00000E+00,	0,	0
  6.01043E+04,	1.00000E+01,	5.88565E-02,	9.38469E+00,	8.99347E-01,	2.82223E-01,	0.00000E+00,	0,	0
  4.93714E+04,	1.00000E+01,	5.88565E-02,	1.09596E+01,	9.26258E-01,	1.57469E-01,	0.00000E+00,	0,	0
  3.84000E+04,	1.00000E+01,	5.88565E-02,	1.18690E+01,	9.53814E-01,	7.16175E-03,	0.00000E+00,	0,	0
  3.00522E+04,	1.00000E+01,	5.88565E-02,	1.27159E+01,	9.75054E-01,	-1.26627E-01,	0.00000E+00,	0,	0
  2.38345E+04,	1.00000E+01,	5.88565E-02,	1.35802E+01,	9.99077E-01,	-2.56972E-01,	0.00000E+00,	0,	0
  1.86811E+04,	1.00000E+01,	5.88565E-02,	1.44300E+01,	1.02861E+00,	-4.02223E-01,	0.00000E+00,	0,	0
  1.47064E+04,	1.00000E+01,	5.88565E-02,	1.54294E+01,	1.06315E+00,	-5.58733E-01,	0.00000E+00,	0,	0
  1.15200E+04,	1.00000E+01,	5.88565E-02,	1.64078E+01,	1.10573E+00,	-7.38230E-01,	0.00000E+00,	0,	0
  9.60000E+03,	1.00000E+01,	5.88565E-02,	1.79928E+01,	1.14109E+00,	-8.90262E-01,	0.00000E+00,	0,	0
  7.51304E+03,	1.00000E+01,	5.88565E-02,	1.88840E+01,	1.19771E+00,	-1.12744E+00,	0.00000E+00,	0,	0
  5.76000E+03,	1.00000E+01,	5.88565E-02,	1.98227E+01,	1.27054E+00,	-1.43832E+00,	0.00000E+00,	0,	0
  4.54737E+03,	1.00000E+01,	5.88565E-02,	2.06874E+01,	1.34705E+00,	-1.77671E+00,	0.00000E+00,	0,	0
  3.60000E+03,	1.00000E+01,	5.88565E-02,	2.16932E+01,	1.43627E+00,	-2.18192E+00,	0.00000E+00,	0,	0
  2.88000E+03,	1.00000E+01,	5.88565E-02,	2.26042E+01,	1.53878E+00,	-2.65259E+00,	0.00000E+00,	0,	0
  2.27368E+03,	1.00000E+01,	5.88565E-02,	2.48682E+01,	1.66047E+00,	-3.23285E+00,	0.00000E+00,	0,	0
  1.78144E+03,	1.00000E+01,	5.88565E-02,	2.56680E+01,	1.81278E+00,	-4.00504E+00,	0.00000E+00,	0,	0
  1.41639E+03,	1.00000E+01,	5.88565E-02,	2.65756E+01,	1.99232E+00,	-4.88756E+00,	0.00000E+00,	0,	0
  1.12208E+03,	1.00000E+01,	5.88565E-02,	2.76135E+01,	2.22295E+00,	-5.99862E+00,	0.00000E+00,	0,	0
  9.00000E+02,	1.00000E+01,	5.88565E-02,	3.26150E+01,	2.50017E+00,	-7.30288E+00,	0.00000E+00,	0,	0
  7.20000E+02,	1.00000E+01,	5.88565E-02,	3.39952E+01,	2.82825E+00,	-8.88043E+00,	0.00000E+00,	0,	0
  5.68421E+02,	1.00000E+01,	5.88565E-02,	3.54270E+01,	3.26867E+00,	-1.09329E+01,	0.00000E+00,	0,	0
  4.40816E+02,	1.00000E+01,	5.88565E-02,	3.84389E+01,	3.88234E+00,	-1.37030E+01,	0.00000E+00,	0,	0
  3.54098E+02,	1.00000E+01,	5.88565E-02,	4.07684E+01,	4.54019E+00,	-1.65995E+01,	0.00000E+00,	0,	0
  2.76923E+02,	1.00000E+01,	5.88565E-02,	4.33994E+01,	5.49625E+00,	-2.05781E+01,	0.00000E+00,	0,	0
  2.20408E+02,	1.00000E+01,	5.88565E-02,	4.63224E+01,	6.62359E+00,	-2.51047E+01,	0.00000E+00,	0,	0
  1.74194E+02,	1.00000E+01,	5.88565E-02,	4.95929E+01,	8.10982E+00,	-3.07651E+01,	0.00000E+00,	0,	0
  1.37580E+02,	1.00000E+01,	5.88565E-02,	5.32590E+01,	1.00241E+01,	-3.76887E+01,	0.00000E+00,	0,	0
  1.09091E+02,	1.00000E+01,	5.88565E-02,	5.73223E+01,	1.24246E+01,	-4.59701E+01,	0.00000E+00,	0,	0
  8.70968E+01,	1.00000E+01,	5.88565E-02,	6.30441E+01,	1.53629E+01,	-5.57380E+01,	0.00000E+00,	0,	0
  6.83544E+01,	1.00000E+01,	5.88565E-02,	6.80820E+01,	1.94478E+01,	-6.87012E+01,	0.00000E+00,	0,	0
  5.45455E+01,	1.00000E+01,	5.88565E-02,	7.35462E+01,	2.45697E+01,	-8.15819E+01,	0.00000E+00,	0,	0
  4.28571E+01,	1.00000E+01,	5.88565E-02,	7.70645E+01,	3.11815E+01,	-9.90845E+01,	0.00000E+00,	0,	0
  3.39623E+01,	1.00000E+01,	5.88565E-02,	8.07880E+01,	3.83716E+01,	-1.18999E+02,	0.00000E+00,	0,	0
  2.68657E+01,	1.00000E+01,	5.88565E-02,	8.46359E+01,	4.84727E+01,	-1.43327E+02,	0.00000E+00,	0,	0
  2.13439E+01,	1.00000E+01,	5.88565E-02,	8.84716E+01,	6.03979E+01,	-1.71179E+02,	0.00000E+00,	0,	0
  1.73077E+01,	1.00000E+01,	5.88565E-02,	9.51518E+01,	7.33755E+01,	-2.01410E+02,	0.00000E+00,	0,	0
  1.36364E+01,	1.00000E+01,	5.88565E-02,	1.00170E+02,	9.04729E+01,	-2.41045E+02,	0.00000E+00,	0,	0
  1.07143E+01,	1.00000E+01,	5.88565E-02,	1.03111E+02,	1.10828E+02,	-2.88381E+02,	0.00000E+00,	0,	0
  8.49057E+00,	1.00000E+01,	5.88565E-02,	1.07312E+02,	1.33780E+02,	-3.43038E+02,	0.00000E+00,	0,	0
  6.71642E+00,	1.00000E+01,	5.88565E-02,	1.09857E+02,	1.60426E+02,	-4.08100E+02,	0.00000E+00,	0,	0
  5.29412E+00,	1.00000E+01,	5.88565E-02,	1.12844E+02,	1.91796E+02,	-4.87002E+02,	0.00000E+00,	0,	0
  4.16667E+00,	1.00000E+01,	5.88565E-02,	1.16321E+02,	2.27948E+02,	-5.83012E+02,	0.00000E+00,	0,	0
  3.30882E+00,	1.00000E+01,	5.88565E-02,	1.20566E+02,	2.68124E+02,	-6.94265E+02,	0.00000E+00,	0,	0
  2.61628E+00,	1.00000E+01,	5.88565E-02,	1.24525E+02,	3.14974E+02,	-8.30316E+02,	0.00000E+00,	0,	0
  2.07373E+00,	1.00000E+01,	5.88565E-02,	1.29287E+02,	3.67690E+02,	-9.94297E+02,	0.00000E+00,	0,	0
  1.64234E+00,	1.00000E+01,	5.88565E-02,	1.35055E+02,	4.27776E+02,	-1.19455E+03,	0.00000E+00,	0,	0
  1.30058E+00,	1.00000E+01,	5.88565E-02,	1.39225E+02,	4.94288E+02,	-1.43703E+03,	0.00000E+00,	0,	0
  1.03211E+00,	1.00000E+01,	5.88565E-02,	1.43634E+02,	5.67342E+02,	-1.73262E+03,	0.00000E+00,	0,	0
  8.15217E-01,	1.00000E+01,	5.88565E-02,	1.50583E+02,	6.50238E+02,	-2.10297E+03,	0.00000E+00,	0,	0
  6.46552E-01,	1.00000E+01,	5.88565E-02,	1.59681E+02,	7.31876E+02,	-2.55800E+03,	0.00000E+00,	0,	0
  5.11364E-01,	1.00000E+01,	5.88565E-02,	1.64686E+02,	8.20878E+02,	-3.14445E+03,	0.00000E+00,	0,	0
  4.07609E-01,	1.00000E+01,	5.88565E-02,	1.70740E+02,	9.36306E+02,	-3.83134E+03,	0.00000E+00,	0,	0
  3.21429E-01,	1.00000E+01,	5.88565E-02,	1.77857E+02,	1.06996E+03,	-4.78111E+03,	0.00000E+00,	0,	0
  2.54525E-01,	1.00000E+01,	5.88565E-02,	1.86627E+02,	1.23429E+03,	-5.87567E+03,	0.00000E+00,	0,	0
  2.01613E-01,	1.00000E+01,	5.88565E-02,	1.97462E+02,	1.42026E+03,	-7.24543E+03,	0.00000E+00,	0,	0
  1.59574E-01,	1.00000E+01,	5.88565E-02,	2.10969E+02,	1.63748E+03,	-8.95276E+03,	0.00000E+00,	0,	0
  1.26689E-01,	1.00000E+01,	5.88565E-02,	2.27871E+02,	1.88172E+03,	-1.10434E+04,	0.00000E+00,	0,	0
  1.00446E-01,	1.00000E+01,	5.88565E-02,	2.48735E+02,	2.14974E+03,	-1.36699E+04,	0.00000E+00,	0,	0