Z60W Data File: Version 1.1
CorrTest for Windows: SN CS310H1805157  V5.2.1111.9  2.5H6.220118
Sweep Frequency: Control Voltage
  Date:4-29-2026   Time:07:49:23
  Begin Information:            Cell Information
      Surface Area:           1
      Density:                7.8
      Weight:                 28
  End Information:              Cell Information
  Freq (Hz)     Ampl(mV)       Bias(V)      Time(Sec)       Z'(Ohm.cm^2)    Z''(Ohm.cm^2)        GD       Err      Range
End Comments
  3.07200E+05,	1.00000E+01,	-1.20831E-02,	2.40365E-02,	-1.04853E+00,	3.08569E+00,	0.00000E+00,	0,	0
  2.76480E+05,	1.00000E+01,	-1.20831E-02,	1.61948E+00,	-4.56377E-01,	2.41033E+00,	0.00000E+00,	0,	0
  1.97486E+05,	1.00000E+01,	-1.20831E-02,	2.51662E+00,	2.71227E-01,	1.75788E+00,	0.00000E+00,	0,	0
  1.53600E+05,	1.00000E+01,	-1.20831E-02,	3.40415E+00,	5.41279E-01,	1.32559E+00,	0.00000E+00,	0,	0
  1.25673E+05,	1.00000E+01,	-1.20831E-02,	4.33226E+00,	7.05363E-01,	1.06500E+00,	0.00000E+00,	0,	0
  9.87429E+04,	1.00000E+01,	-1.20831E-02,	5.28137E+00,	8.28906E-01,	7.97755E-01,	0.00000E+00,	0,	0
  7.68000E+04,	1.00000E+01,	-1.20831E-02,	6.17891E+00,	9.14437E-01,	5.97569E-01,	0.00000E+00,	0,	0
  6.01043E+04,	1.00000E+01,	-1.20831E-02,	9.43536E+00,	6.43182E-01,	3.46474E-01,	0.00000E+00,	0,	0
  4.93714E+04,	1.00000E+01,	-1.20831E-02,	1.10217E+01,	6.61276E-01,	2.41322E-01,	0.00000E+00,	0,	0
  3.84000E+04,	1.00000E+01,	-1.20831E-02,	1.19527E+01,	6.75033E-01,	1.18224E-01,	0.00000E+00,	0,	0
  3.00522E+04,	1.00000E+01,	-1.20831E-02,	1.28332E+01,	6.85540E-01,	9.98503E-03,	0.00000E+00,	0,	0
  2.38345E+04,	1.00000E+01,	-1.20831E-02,	1.37007E+01,	6.98300E-01,	-9.27264E-02,	0.00000E+00,	0,	0
  1.86811E+04,	1.00000E+01,	-1.20831E-02,	1.45527E+01,	7.12312E-01,	-2.01463E-01,	0.00000E+00,	0,	0
  1.47064E+04,	1.00000E+01,	-1.20831E-02,	1.55420E+01,	7.29018E-01,	-3.17030E-01,	0.00000E+00,	0,	0
  1.15200E+04,	1.00000E+01,	-1.20831E-02,	1.65135E+01,	7.50522E-01,	-4.46911E-01,	0.00000E+00,	0,	0
  9.60000E+03,	1.00000E+01,	-1.20831E-02,	1.80865E+01,	7.69255E-01,	-5.56197E-01,	0.00000E+00,	0,	0
  7.51304E+03,	1.00000E+01,	-1.20831E-02,	1.89891E+01,	7.99722E-01,	-7.24732E-01,	0.00000E+00,	0,	0
  5.76000E+03,	1.00000E+01,	-1.20831E-02,	1.99232E+01,	8.42283E-01,	-9.46216E-01,	0.00000E+00,	0,	0
  4.54737E+03,	1.00000E+01,	-1.20831E-02,	2.08045E+01,	8.88107E-01,	-1.18723E+00,	0.00000E+00,	0,	0
  3.60000E+03,	1.00000E+01,	-1.20831E-02,	2.18370E+01,	9.48136E-01,	-1.47334E+00,	0.00000E+00,	0,	0
  2.88000E+03,	1.00000E+01,	-1.20831E-02,	2.27346E+01,	1.01821E+00,	-1.80377E+00,	0.00000E+00,	0,	0
  2.27368E+03,	1.00000E+01,	-1.20831E-02,	2.50002E+01,	1.10203E+00,	-2.21154E+00,	0.00000E+00,	0,	0
  1.78144E+03,	1.00000E+01,	-1.20831E-02,	2.57875E+01,	1.22880E+00,	-2.75302E+00,	0.00000E+00,	0,	0
  1.41639E+03,	1.00000E+01,	-1.20831E-02,	2.66853E+01,	1.38155E+00,	-3.36132E+00,	0.00000E+00,	0,	0
  1.12208E+03,	1.00000E+01,	-1.20831E-02,	2.77212E+01,	1.57831E+00,	-4.11250E+00,	0.00000E+00,	0,	0
  9.00000E+02,	1.00000E+01,	-1.20831E-02,	3.26985E+01,	1.82261E+00,	-4.98578E+00,	0.00000E+00,	0,	0
  7.20000E+02,	1.00000E+01,	-1.20831E-02,	3.40969E+01,	2.12770E+00,	-6.02805E+00,	0.00000E+00,	0,	0
  5.68421E+02,	1.00000E+01,	-1.20831E-02,	3.55120E+01,	2.53976E+00,	-7.35681E+00,	0.00000E+00,	0,	0
  4.40816E+02,	1.00000E+01,	-1.20831E-02,	3.69668E+01,	3.11485E+00,	-9.08968E+00,	0.00000E+00,	0,	0
  3.54098E+02,	1.00000E+01,	-1.20831E-02,	3.93407E+01,	3.74369E+00,	-1.08768E+01,	0.00000E+00,	0,	0
  2.76923E+02,	1.00000E+01,	-1.20831E-02,	4.19753E+01,	4.64053E+00,	-1.32562E+01,	0.00000E+00,	0,	0
  2.20408E+02,	1.00000E+01,	-1.20831E-02,	4.49408E+01,	5.68214E+00,	-1.58815E+01,	0.00000E+00,	0,	0
  1.74194E+02,	1.00000E+01,	-1.20831E-02,	4.82305E+01,	7.00136E+00,	-1.90585E+01,	0.00000E+00,	0,	0
  1.37580E+02,	1.00000E+01,	-1.20831E-02,	5.19228E+01,	8.61386E+00,	-2.28039E+01,	0.00000E+00,	0,	0
  1.09091E+02,	1.00000E+01,	-1.20831E-02,	5.59955E+01,	1.05010E+01,	-2.71395E+01,	0.00000E+00,	0,	0
  8.70968E+01,	1.00000E+01,	-1.20831E-02,	6.41484E+01,	1.26851E+01,	-3.22009E+01,	0.00000E+00,	0,	0
  6.83544E+01,	1.00000E+01,	-1.20831E-02,	6.91855E+01,	1.54191E+01,	-3.86890E+01,	0.00000E+00,	0,	0
  5.45455E+01,	1.00000E+01,	-1.20831E-02,	7.46396E+01,	1.84339E+01,	-4.49096E+01,	0.00000E+00,	0,	0
  4.28571E+01,	1.00000E+01,	-1.20831E-02,	7.81752E+01,	2.20295E+01,	-5.34860E+01,	0.00000E+00,	0,	0
  3.39623E+01,	1.00000E+01,	-1.20831E-02,	8.19009E+01,	2.55478E+01,	-6.33213E+01,	0.00000E+00,	0,	0
  2.68657E+01,	1.00000E+01,	-1.20831E-02,	8.57553E+01,	3.01445E+01,	-7.54777E+01,	0.00000E+00,	0,	0
  2.13439E+01,	1.00000E+01,	-1.20831E-02,	8.96305E+01,	3.51348E+01,	-8.96886E+01,	0.00000E+00,	0,	0
  1.73077E+01,	1.00000E+01,	-1.20831E-02,	9.63025E+01,	4.01570E+01,	-1.05324E+02,	0.00000E+00,	0,	0
  1.36364E+01,	1.00000E+01,	-1.20831E-02,	1.01332E+02,	4.62928E+01,	-1.26605E+02,	0.00000E+00,	0,	0
  1.07143E+01,	1.00000E+01,	-1.20831E-02,	1.04280E+02,	5.31368E+01,	-1.53112E+02,	0.00000E+00,	0,	0
  8.49057E+00,	1.00000E+01,	-1.20831E-02,	1.08492E+02,	6.04091E+01,	-1.84741E+02,	0.00000E+00,	0,	0
  6.71642E+00,	1.00000E+01,	-1.20831E-02,	1.10998E+02,	6.86074E+01,	-2.24185E+02,	0.00000E+00,	0,	0
  5.29412E+00,	1.00000E+01,	-1.20831E-02,	1.13961E+02,	7.81555E+01,	-2.73848E+02,	0.00000E+00,	0,	0
  4.16667E+00,	1.00000E+01,	-1.20831E-02,	1.17469E+02,	8.90519E+01,	-3.36303E+02,	0.00000E+00,	0,	0
  3.30882E+00,	1.00000E+01,	-1.20831E-02,	1.21728E+02,	1.01306E+02,	-4.10978E+02,	0.00000E+00,	0,	0
  2.61628E+00,	1.00000E+01,	-1.20831E-02,	1.25702E+02,	1.16292E+02,	-5.05189E+02,	0.00000E+00,	0,	0
  2.07373E+00,	1.00000E+01,	-1.20831E-02,	1.30506E+02,	1.33850E+02,	-6.21267E+02,	0.00000E+00,	0,	0
  1.64234E+00,	1.00000E+01,	-1.20831E-02,	1.36306E+02,	1.55160E+02,	-7.65526E+02,	0.00000E+00,	0,	0
  1.30058E+00,	1.00000E+01,	-1.20831E-02,	1.40474E+02,	1.81802E+02,	-9.44430E+02,	0.00000E+00,	0,	0
  1.03211E+00,	1.00000E+01,	-1.20831E-02,	1.44931E+02,	2.13908E+02,	-1.16443E+03,	0.00000E+00,	0,	0
  8.15217E-01,	1.00000E+01,	-1.20831E-02,	1.51871E+02,	2.54404E+02,	-1.44124E+03,	0.00000E+00,	0,	0
  6.46552E-01,	1.00000E+01,	-1.20831E-02,	1.60950E+02,	2.96649E+02,	-1.76078E+03,	0.00000E+00,	0,	0
  5.11364E-01,	1.00000E+01,	-1.20831E-02,	1.65946E+02,	3.55766E+02,	-2.19487E+03,	0.00000E+00,	0,	0
  4.07609E-01,	1.00000E+01,	-1.20831E-02,	1.72054E+02,	4.33117E+02,	-2.70248E+03,	0.00000E+00,	0,	0
  3.21429E-01,	1.00000E+01,	-1.20831E-02,	1.79194E+02,	5.31466E+02,	-3.38300E+03,	0.00000E+00,	0,	0
  2.54525E-01,	1.00000E+01,	-1.20831E-02,	1.87964E+02,	6.66192E+02,	-4.18788E+03,	0.00000E+00,	0,	0
  2.01613E-01,	1.00000E+01,	-1.20831E-02,	1.98855E+02,	8.41541E+02,	-5.18488E+03,	0.00000E+00,	0,	0
  1.59574E-01,	1.00000E+01,	-1.20831E-02,	2.12327E+02,	1.07697E+03,	-6.42151E+03,	0.00000E+00,	0,	0
  1.26689E-01,	1.00000E+01,	-1.20831E-02,	2.29233E+02,	1.38848E+03,	-7.92028E+03,	0.00000E+00,	0,	0
  1.00446E-01,	1.00000E+01,	-1.20831E-02,	2.50084E+02,	1.81698E+03,	-9.77836E+03,	0.00000E+00,	0,	0