Z60W Data File: Version 1.1
CorrTest for Windows: SN CS310H1805157  V5.2.1111.9  2.5H6.220118
Sweep Frequency: Control Voltage
  Date:4-28-2026   Time:20:42:05
  Begin Information:            Cell Information
      Surface Area:           1
      Density:                7.8
      Weight:                 28
  End Information:              Cell Information
  Freq (Hz)     Ampl(mV)       Bias(V)      Time(Sec)       Z'(Ohm.cm^2)    Z''(Ohm.cm^2)        GD       Err      Range
End Comments
  3.07200E+05,	1.00000E+01,	-1.08030E-02,	6.92861E-02,	-7.42666E-01,	3.28534E+00,	0.00000E+00,	0,	0
  2.76480E+05,	1.00000E+01,	-1.08030E-02,	1.67336E+00,	-1.67470E-01,	2.59286E+00,	0.00000E+00,	0,	0
  1.97486E+05,	1.00000E+01,	-1.08030E-02,	2.60023E+00,	5.68904E-01,	1.85511E+00,	0.00000E+00,	0,	0
  1.53600E+05,	1.00000E+01,	-1.08030E-02,	3.50126E+00,	8.55402E-01,	1.43179E+00,	0.00000E+00,	0,	0
  1.25673E+05,	1.00000E+01,	-1.08030E-02,	4.42090E+00,	1.00416E+00,	1.12684E+00,	0.00000E+00,	0,	0
  9.87429E+04,	1.00000E+01,	-1.08030E-02,	5.34351E+00,	1.13175E+00,	8.60407E-01,	0.00000E+00,	0,	0
  7.68000E+04,	1.00000E+01,	-1.08030E-02,	6.27673E+00,	1.21548E+00,	6.42596E-01,	0.00000E+00,	0,	0
  6.01043E+04,	1.00000E+01,	-1.08030E-02,	9.48823E+00,	8.87527E-01,	3.67748E-01,	0.00000E+00,	0,	0
  4.93714E+04,	1.00000E+01,	-1.08030E-02,	1.10566E+01,	9.19496E-01,	2.56607E-01,	0.00000E+00,	0,	0
  3.84000E+04,	1.00000E+01,	-1.08030E-02,	1.19887E+01,	9.43245E-01,	1.27464E-01,	0.00000E+00,	0,	0
  3.00522E+04,	1.00000E+01,	-1.08030E-02,	1.28675E+01,	9.58651E-01,	9.84181E-03,	0.00000E+00,	0,	0
  2.38345E+04,	1.00000E+01,	-1.08030E-02,	1.37720E+01,	9.71409E-01,	-9.87099E-02,	0.00000E+00,	0,	0
  1.86811E+04,	1.00000E+01,	-1.08030E-02,	1.46255E+01,	9.88449E-01,	-2.13807E-01,	0.00000E+00,	0,	0
  1.47064E+04,	1.00000E+01,	-1.08030E-02,	1.55870E+01,	1.00676E+00,	-3.36233E-01,	0.00000E+00,	0,	0
  1.15200E+04,	1.00000E+01,	-1.08030E-02,	1.65718E+01,	1.02924E+00,	-4.73174E-01,	0.00000E+00,	0,	0
  9.60000E+03,	1.00000E+01,	-1.08030E-02,	1.81719E+01,	1.04912E+00,	-5.88576E-01,	0.00000E+00,	0,	0
  7.51304E+03,	1.00000E+01,	-1.08030E-02,	1.90551E+01,	1.08202E+00,	-7.66825E-01,	0.00000E+00,	0,	0
  5.76000E+03,	1.00000E+01,	-1.08030E-02,	1.99836E+01,	1.12728E+00,	-9.99129E-01,	0.00000E+00,	0,	0
  4.54737E+03,	1.00000E+01,	-1.08030E-02,	2.08596E+01,	1.17550E+00,	-1.25140E+00,	0.00000E+00,	0,	0
  3.60000E+03,	1.00000E+01,	-1.08030E-02,	2.18543E+01,	1.23683E+00,	-1.55430E+00,	0.00000E+00,	0,	0
  2.88000E+03,	1.00000E+01,	-1.08030E-02,	2.27473E+01,	1.31123E+00,	-1.90221E+00,	0.00000E+00,	0,	0
  2.27368E+03,	1.00000E+01,	-1.08030E-02,	2.50157E+01,	1.41918E+00,	-2.33666E+00,	0.00000E+00,	0,	0
  1.78144E+03,	1.00000E+01,	-1.08030E-02,	2.58499E+01,	1.55720E+00,	-2.89910E+00,	0.00000E+00,	0,	0
  1.41639E+03,	1.00000E+01,	-1.08030E-02,	2.67500E+01,	1.71580E+00,	-3.54371E+00,	0.00000E+00,	0,	0
  1.12208E+03,	1.00000E+01,	-1.08030E-02,	2.77685E+01,	1.91997E+00,	-4.34069E+00,	0.00000E+00,	0,	0
  9.00000E+02,	1.00000E+01,	-1.08030E-02,	3.27566E+01,	2.17081E+00,	-5.26165E+00,	0.00000E+00,	0,	0
  7.20000E+02,	1.00000E+01,	-1.08030E-02,	3.41752E+01,	2.48371E+00,	-6.36922E+00,	0.00000E+00,	0,	0
  5.68421E+02,	1.00000E+01,	-1.08030E-02,	3.55398E+01,	2.90868E+00,	-7.78222E+00,	0.00000E+00,	0,	0
  4.40816E+02,	1.00000E+01,	-1.08030E-02,	3.69927E+01,	3.49847E+00,	-9.62778E+00,	0.00000E+00,	0,	0
  3.54098E+02,	1.00000E+01,	-1.08030E-02,	3.93563E+01,	4.14813E+00,	-1.15344E+01,	0.00000E+00,	0,	0
  2.76923E+02,	1.00000E+01,	-1.08030E-02,	4.20027E+01,	5.07586E+00,	-1.40779E+01,	0.00000E+00,	0,	0
  2.20408E+02,	1.00000E+01,	-1.08030E-02,	4.49149E+01,	6.16247E+00,	-1.68992E+01,	0.00000E+00,	0,	0
  1.74194E+02,	1.00000E+01,	-1.08030E-02,	4.81653E+01,	7.54895E+00,	-2.03022E+01,	0.00000E+00,	0,	0
  1.37580E+02,	1.00000E+01,	-1.08030E-02,	5.18159E+01,	9.25664E+00,	-2.43206E+01,	0.00000E+00,	0,	0
  1.09091E+02,	1.00000E+01,	-1.08030E-02,	5.58876E+01,	1.12713E+01,	-2.89651E+01,	0.00000E+00,	0,	0
  8.70968E+01,	1.00000E+01,	-1.08030E-02,	6.40311E+01,	1.36036E+01,	-3.43359E+01,	0.00000E+00,	0,	0
  6.83544E+01,	1.00000E+01,	-1.08030E-02,	6.90623E+01,	1.65340E+01,	-4.12358E+01,	0.00000E+00,	0,	0
  5.45455E+01,	1.00000E+01,	-1.08030E-02,	7.45310E+01,	1.97606E+01,	-4.78084E+01,	0.00000E+00,	0,	0
  4.28571E+01,	1.00000E+01,	-1.08030E-02,	7.81015E+01,	2.36173E+01,	-5.68966E+01,	0.00000E+00,	0,	0
  3.39623E+01,	1.00000E+01,	-1.08030E-02,	8.18642E+01,	2.73950E+01,	-6.72834E+01,	0.00000E+00,	0,	0
  2.68657E+01,	1.00000E+01,	-1.08030E-02,	8.57092E+01,	3.23599E+01,	-8.01214E+01,	0.00000E+00,	0,	0
  2.13439E+01,	1.00000E+01,	-1.08030E-02,	8.95191E+01,	3.77592E+01,	-9.50803E+01,	0.00000E+00,	0,	0
  1.73077E+01,	1.00000E+01,	-1.08030E-02,	9.61954E+01,	4.31919E+01,	-1.11426E+02,	0.00000E+00,	0,	0
  1.36364E+01,	1.00000E+01,	-1.08030E-02,	1.01265E+02,	4.98536E+01,	-1.33650E+02,	0.00000E+00,	0,	0
  1.07143E+01,	1.00000E+01,	-1.08030E-02,	1.04215E+02,	5.72935E+01,	-1.61279E+02,	0.00000E+00,	0,	0
  8.49057E+00,	1.00000E+01,	-1.08030E-02,	1.08427E+02,	6.51636E+01,	-1.94176E+02,	0.00000E+00,	0,	0
  6.71642E+00,	1.00000E+01,	-1.08030E-02,	1.10941E+02,	7.39743E+01,	-2.35184E+02,	0.00000E+00,	0,	0
  5.29412E+00,	1.00000E+01,	-1.08030E-02,	1.13892E+02,	8.41279E+01,	-2.86700E+02,	0.00000E+00,	0,	0
  4.16667E+00,	1.00000E+01,	-1.08030E-02,	1.17358E+02,	9.57459E+01,	-3.51516E+02,	0.00000E+00,	0,	0
  3.30882E+00,	1.00000E+01,	-1.08030E-02,	1.21613E+02,	1.08648E+02,	-4.28996E+02,	0.00000E+00,	0,	0
  2.61628E+00,	1.00000E+01,	-1.08030E-02,	1.25630E+02,	1.24330E+02,	-5.26568E+02,	0.00000E+00,	0,	0
  2.07373E+00,	1.00000E+01,	-1.08030E-02,	1.30399E+02,	1.42656E+02,	-6.46658E+02,	0.00000E+00,	0,	0
  1.64234E+00,	1.00000E+01,	-1.08030E-02,	1.36260E+02,	1.64639E+02,	-7.95813E+02,	0.00000E+00,	0,	0
  1.30058E+00,	1.00000E+01,	-1.08030E-02,	1.40419E+02,	1.92187E+02,	-9.80945E+02,	0.00000E+00,	0,	0
  1.03211E+00,	1.00000E+01,	-1.08030E-02,	1.44822E+02,	2.25219E+02,	-1.20822E+03,	0.00000E+00,	0,	0
  8.15217E-01,	1.00000E+01,	-1.08030E-02,	1.51772E+02,	2.65991E+02,	-1.49385E+03,	0.00000E+00,	0,	0
  6.46552E-01,	1.00000E+01,	-1.08030E-02,	1.60852E+02,	3.10445E+02,	-1.83221E+03,	0.00000E+00,	0,	0
  5.11364E-01,	1.00000E+01,	-1.08030E-02,	1.65873E+02,	3.66066E+02,	-2.27763E+03,	0.00000E+00,	0,	0
  4.07609E-01,	1.00000E+01,	-1.08030E-02,	1.71919E+02,	4.40651E+02,	-2.79998E+03,	0.00000E+00,	0,	0
  3.21429E-01,	1.00000E+01,	-1.08030E-02,	1.79095E+02,	5.39375E+02,	-3.49741E+03,	0.00000E+00,	0,	0
  2.54525E-01,	1.00000E+01,	-1.08030E-02,	1.87920E+02,	6.65975E+02,	-4.33977E+03,	0.00000E+00,	0,	0
  2.01613E-01,	1.00000E+01,	-1.08030E-02,	1.98759E+02,	8.28716E+02,	-5.34217E+03,	0.00000E+00,	0,	0
  1.59574E-01,	1.00000E+01,	-1.08030E-02,	2.12264E+02,	1.03196E+03,	-6.63529E+03,	0.00000E+00,	0,	0
  1.26689E-01,	1.00000E+01,	-1.08030E-02,	2.29178E+02,	1.31171E+03,	-8.18789E+03,	0.00000E+00,	0,	0
  1.00446E-01,	1.00000E+01,	-1.08030E-02,	2.50068E+02,	1.71138E+03,	-1.00854E+04,	0.00000E+00,	0,	0