Z60W Data File: Version 1.1
CorrTest for Windows: SN CS310H1805157  V5.2.1111.9  2.5H6.220118
Sweep Frequency: Control Voltage
  Date:4-29-2026   Time:12:23:10
  Begin Information:            Cell Information
      Surface Area:           1
      Density:                7.8
      Weight:                 28
  End Information:              Cell Information
  Freq (Hz)     Ampl(mV)       Bias(V)      Time(Sec)       Z'(Ohm.cm^2)    Z''(Ohm.cm^2)        GD       Err      Range
End Comments
  3.07200E+05,	1.00000E+01,	4.28231E-02,	3.46156E-02,	-1.41030E+00,	2.85540E+00,	0.00000E+00,	0,	0
  2.76480E+05,	1.00000E+01,	4.28231E-02,	1.62133E+00,	-8.05422E-01,	2.20580E+00,	0.00000E+00,	0,	0
  1.97486E+05,	1.00000E+01,	4.28231E-02,	2.51355E+00,	-1.02512E-01,	1.58333E+00,	0.00000E+00,	0,	0
  1.53600E+05,	1.00000E+01,	4.28231E-02,	3.42913E+00,	1.81454E-01,	1.19085E+00,	0.00000E+00,	0,	0
  1.25673E+05,	1.00000E+01,	4.28231E-02,	4.36367E+00,	3.47835E-01,	9.46781E-01,	0.00000E+00,	0,	0
  9.87429E+04,	1.00000E+01,	4.28231E-02,	5.32443E+00,	4.76680E-01,	7.13776E-01,	0.00000E+00,	0,	0
  7.68000E+04,	1.00000E+01,	4.28231E-02,	6.20933E+00,	5.53767E-01,	5.09163E-01,	0.00000E+00,	0,	0
  6.01043E+04,	1.00000E+01,	4.28231E-02,	9.47904E+00,	6.08708E-01,	3.00212E-01,	0.00000E+00,	0,	0
  4.93714E+04,	1.00000E+01,	4.28231E-02,	1.10885E+01,	6.30597E-01,	1.90904E-01,	0.00000E+00,	0,	0
  3.84000E+04,	1.00000E+01,	4.28231E-02,	1.19993E+01,	6.48626E-01,	5.86435E-02,	0.00000E+00,	0,	0
  3.00522E+04,	1.00000E+01,	4.28231E-02,	1.28588E+01,	6.64675E-01,	-6.25087E-02,	0.00000E+00,	0,	0
  2.38345E+04,	1.00000E+01,	4.28231E-02,	1.37567E+01,	6.81067E-01,	-1.77641E-01,	0.00000E+00,	0,	0
  1.86811E+04,	1.00000E+01,	4.28231E-02,	1.46051E+01,	7.01493E-01,	-3.02866E-01,	0.00000E+00,	0,	0
  1.47064E+04,	1.00000E+01,	4.28231E-02,	1.55498E+01,	7.25566E-01,	-4.38480E-01,	0.00000E+00,	0,	0
  1.15200E+04,	1.00000E+01,	4.28231E-02,	1.65122E+01,	7.54591E-01,	-5.92494E-01,	0.00000E+00,	0,	0
  9.60000E+03,	1.00000E+01,	4.28231E-02,	1.80925E+01,	7.80133E-01,	-7.24058E-01,	0.00000E+00,	0,	0
  7.51304E+03,	1.00000E+01,	4.28231E-02,	1.89683E+01,	8.20288E-01,	-9.28518E-01,	0.00000E+00,	0,	0
  5.76000E+03,	1.00000E+01,	4.28231E-02,	1.99075E+01,	8.75529E-01,	-1.19756E+00,	0.00000E+00,	0,	0
  4.54737E+03,	1.00000E+01,	4.28231E-02,	2.07756E+01,	9.33837E-01,	-1.48844E+00,	0.00000E+00,	0,	0
  3.60000E+03,	1.00000E+01,	4.28231E-02,	2.17577E+01,	1.00341E+00,	-1.84123E+00,	0.00000E+00,	0,	0
  2.88000E+03,	1.00000E+01,	4.28231E-02,	2.26539E+01,	1.08623E+00,	-2.24943E+00,	0.00000E+00,	0,	0
  2.27368E+03,	1.00000E+01,	4.28231E-02,	2.49356E+01,	1.18975E+00,	-2.75465E+00,	0.00000E+00,	0,	0
  1.78144E+03,	1.00000E+01,	4.28231E-02,	2.57527E+01,	1.32470E+00,	-3.41985E+00,	0.00000E+00,	0,	0
  1.41639E+03,	1.00000E+01,	4.28231E-02,	2.66386E+01,	1.49817E+00,	-4.18550E+00,	0.00000E+00,	0,	0
  1.12208E+03,	1.00000E+01,	4.28231E-02,	2.76609E+01,	1.70540E+00,	-5.14320E+00,	0.00000E+00,	0,	0
  9.00000E+02,	1.00000E+01,	4.28231E-02,	3.26776E+01,	1.96792E+00,	-6.25299E+00,	0.00000E+00,	0,	0
  7.20000E+02,	1.00000E+01,	4.28231E-02,	3.40474E+01,	2.29435E+00,	-7.59279E+00,	0.00000E+00,	0,	0
  5.68421E+02,	1.00000E+01,	4.28231E-02,	3.54036E+01,	2.73672E+00,	-9.31906E+00,	0.00000E+00,	0,	0
  4.40816E+02,	1.00000E+01,	4.28231E-02,	3.84275E+01,	3.35968E+00,	-1.16258E+01,	0.00000E+00,	0,	0
  3.54098E+02,	1.00000E+01,	4.28231E-02,	4.08114E+01,	4.03647E+00,	-1.40133E+01,	0.00000E+00,	0,	0
  2.76923E+02,	1.00000E+01,	4.28231E-02,	4.34740E+01,	5.01880E+00,	-1.72571E+01,	0.00000E+00,	0,	0
  2.20408E+02,	1.00000E+01,	4.28231E-02,	4.64287E+01,	6.17729E+00,	-2.08904E+01,	0.00000E+00,	0,	0
  1.74194E+02,	1.00000E+01,	4.28231E-02,	4.97406E+01,	7.69574E+00,	-2.53677E+01,	0.00000E+00,	0,	0
  1.37580E+02,	1.00000E+01,	4.28231E-02,	5.34607E+01,	9.63400E+00,	-3.07405E+01,	0.00000E+00,	0,	0
  1.09091E+02,	1.00000E+01,	4.28231E-02,	5.75319E+01,	1.20204E+01,	-3.70339E+01,	0.00000E+00,	0,	0
  8.70968E+01,	1.00000E+01,	4.28231E-02,	6.32170E+01,	1.48635E+01,	-4.42912E+01,	0.00000E+00,	0,	0
  6.83544E+01,	1.00000E+01,	4.28231E-02,	6.82828E+01,	1.86583E+01,	-5.37360E+01,	0.00000E+00,	0,	0
  5.45455E+01,	1.00000E+01,	4.28231E-02,	7.37393E+01,	2.30760E+01,	-6.28047E+01,	0.00000E+00,	0,	0
  4.28571E+01,	1.00000E+01,	4.28231E-02,	7.73209E+01,	2.85155E+01,	-7.51055E+01,	0.00000E+00,	0,	0
  3.39623E+01,	1.00000E+01,	4.28231E-02,	8.10683E+01,	3.40892E+01,	-8.90304E+01,	0.00000E+00,	0,	0
  2.68657E+01,	1.00000E+01,	4.28231E-02,	8.49391E+01,	4.14927E+01,	-1.06011E+02,	0.00000E+00,	0,	0
  2.13439E+01,	1.00000E+01,	4.28231E-02,	8.87520E+01,	4.97998E+01,	-1.25547E+02,	0.00000E+00,	0,	0
  1.73077E+01,	1.00000E+01,	4.28231E-02,	9.54836E+01,	5.84453E+01,	-1.46724E+02,	0.00000E+00,	0,	0
  1.36364E+01,	1.00000E+01,	4.28231E-02,	1.00515E+02,	6.93229E+01,	-1.74896E+02,	0.00000E+00,	0,	0
  1.07143E+01,	1.00000E+01,	4.28231E-02,	1.03472E+02,	8.17341E+01,	-2.09194E+02,	0.00000E+00,	0,	0
  8.49057E+00,	1.00000E+01,	4.28231E-02,	1.07695E+02,	9.50521E+01,	-2.49374E+02,	0.00000E+00,	0,	0
  6.71642E+00,	1.00000E+01,	4.28231E-02,	1.10194E+02,	1.09911E+02,	-2.98360E+02,	0.00000E+00,	0,	0
  5.29412E+00,	1.00000E+01,	4.28231E-02,	1.13140E+02,	1.26560E+02,	-3.59160E+02,	0.00000E+00,	0,	0
  4.16667E+00,	1.00000E+01,	4.28231E-02,	1.16601E+02,	1.45001E+02,	-4.34849E+02,	0.00000E+00,	0,	0
  3.30882E+00,	1.00000E+01,	4.28231E-02,	1.20868E+02,	1.64688E+02,	-5.25047E+02,	0.00000E+00,	0,	0
  2.61628E+00,	1.00000E+01,	4.28231E-02,	1.24890E+02,	1.87371E+02,	-6.38302E+02,	0.00000E+00,	0,	0
  2.07373E+00,	1.00000E+01,	4.28231E-02,	1.29676E+02,	2.12664E+02,	-7.77697E+02,	0.00000E+00,	0,	0
  1.64234E+00,	1.00000E+01,	4.28231E-02,	1.35473E+02,	2.41714E+02,	-9.51095E+02,	0.00000E+00,	0,	0
  1.30058E+00,	1.00000E+01,	4.28231E-02,	1.39664E+02,	2.76429E+02,	-1.16636E+03,	0.00000E+00,	0,	0
  1.03211E+00,	1.00000E+01,	4.28231E-02,	1.44118E+02,	3.16576E+02,	-1.43154E+03,	0.00000E+00,	0,	0
  8.15217E-01,	1.00000E+01,	4.28231E-02,	1.51079E+02,	3.65252E+02,	-1.76580E+03,	0.00000E+00,	0,	0
  6.46552E-01,	1.00000E+01,	4.28231E-02,	1.60169E+02,	4.11111E+02,	-2.17155E+03,	0.00000E+00,	0,	0
  5.11364E-01,	1.00000E+01,	4.28231E-02,	1.65186E+02,	4.77258E+02,	-2.70477E+03,	0.00000E+00,	0,	0
  4.07609E-01,	1.00000E+01,	4.28231E-02,	1.71231E+02,	5.59377E+02,	-3.32545E+03,	0.00000E+00,	0,	0
  3.21429E-01,	1.00000E+01,	4.28231E-02,	1.78356E+02,	6.55119E+02,	-4.15989E+03,	0.00000E+00,	0,	0
  2.54525E-01,	1.00000E+01,	4.28231E-02,	1.87164E+02,	7.81470E+02,	-5.14702E+03,	0.00000E+00,	0,	0
  2.01613E-01,	1.00000E+01,	4.28231E-02,	1.98003E+02,	9.31994E+02,	-6.37064E+03,	0.00000E+00,	0,	0
  1.59574E-01,	1.00000E+01,	4.28231E-02,	2.11501E+02,	1.11561E+03,	-7.89893E+03,	0.00000E+00,	0,	0
  1.26689E-01,	1.00000E+01,	4.28231E-02,	2.28384E+02,	1.33832E+03,	-9.76993E+03,	0.00000E+00,	0,	0
  1.00446E-01,	1.00000E+01,	4.28231E-02,	2.49256E+02,	1.61812E+03,	-1.21087E+04,	0.00000E+00,	0,	0