Z60W Data File: Version 1.1
CorrTest for Windows: SN CS310H1805157  V5.2.1111.9  2.5H6.220118
Sweep Frequency: Control Voltage
  Date:4-29-2026   Time:14:31:55
  Begin Information:            Cell Information
      Surface Area:           1
      Density:                7.8
      Weight:                 28
  End Information:              Cell Information
  Freq (Hz)     Ampl(mV)       Bias(V)      Time(Sec)       Z'(Ohm.cm^2)    Z''(Ohm.cm^2)        GD       Err      Range
End Comments
  3.07200E+05,	1.00000E+01,	4.44560E-02,	6.85767E-02,	1.51825E+02,	3.10154E+01,	0.00000E+00,	0,	0
  2.76480E+05,	1.00000E+01,	4.44560E-02,	1.67132E+00,	1.48588E+02,	2.72840E+01,	0.00000E+00,	0,	0
  1.97486E+05,	1.00000E+01,	4.44560E-02,	2.59171E+00,	1.45011E+02,	1.94679E+01,	0.00000E+00,	0,	0
  1.53600E+05,	1.00000E+01,	4.44560E-02,	3.50544E+00,	1.43555E+02,	1.40174E+01,	0.00000E+00,	0,	0
  1.25673E+05,	1.00000E+01,	4.44560E-02,	4.41422E+00,	1.42558E+02,	1.07862E+01,	0.00000E+00,	0,	0
  9.87429E+04,	1.00000E+01,	4.44560E-02,	5.31277E+00,	1.42988E+02,	7.33957E+00,	0.00000E+00,	0,	0
  7.68000E+04,	1.00000E+01,	4.44560E-02,	6.21007E+00,	1.43210E+02,	4.86577E+00,	0.00000E+00,	0,	0
  6.01043E+04,	1.00000E+01,	4.44560E-02,	7.20797E+00,	1.43423E+02,	3.14453E+00,	0.00000E+00,	0,	0
  4.93714E+04,	1.00000E+01,	4.44560E-02,	8.81385E+00,	1.44668E+02,	1.64907E+00,	0.00000E+00,	0,	0
  3.84000E+04,	1.00000E+01,	4.44560E-02,	9.75019E+00,	1.45404E+02,	3.58958E-01,	0.00000E+00,	0,	0
  3.00522E+04,	1.00000E+01,	4.44560E-02,	1.06116E+01,	1.45488E+02,	1.05541E+00,	0.00000E+00,	0,	0
  2.38345E+04,	1.00000E+01,	4.44560E-02,	1.14983E+01,	1.46461E+02,	-1.30194E+00,	0.00000E+00,	0,	0
  1.86811E+04,	1.00000E+01,	4.44560E-02,	1.23700E+01,	1.47042E+02,	-2.70726E+00,	0.00000E+00,	0,	0
  1.47064E+04,	1.00000E+01,	4.44560E-02,	1.33597E+01,	1.46963E+02,	-3.16903E+00,	0.00000E+00,	0,	0
  1.15200E+04,	1.00000E+01,	4.44560E-02,	1.43418E+01,	1.48050E+02,	-4.13917E+00,	0.00000E+00,	0,	0
  9.60000E+03,	1.00000E+01,	4.44560E-02,	1.59211E+01,	1.48619E+02,	-4.74322E+00,	0.00000E+00,	0,	0
  7.51304E+03,	1.00000E+01,	4.44560E-02,	1.67803E+01,	1.49344E+02,	-5.76926E+00,	0.00000E+00,	0,	0
  5.76000E+03,	1.00000E+01,	4.44560E-02,	1.77112E+01,	1.50335E+02,	-7.05490E+00,	0.00000E+00,	0,	0
  4.54737E+03,	1.00000E+01,	4.44560E-02,	1.85920E+01,	1.51674E+02,	-8.54349E+00,	0.00000E+00,	0,	0
  3.60000E+03,	1.00000E+01,	4.44560E-02,	1.96107E+01,	1.52416E+02,	-9.76783E+00,	0.00000E+00,	0,	0
  2.88000E+03,	1.00000E+01,	4.44560E-02,	2.05322E+01,	1.53639E+02,	-1.17312E+01,	0.00000E+00,	0,	0
  2.27368E+03,	1.00000E+01,	4.44560E-02,	2.28378E+01,	1.54927E+02,	-1.36011E+01,	0.00000E+00,	0,	0
  1.78144E+03,	1.00000E+01,	4.44560E-02,	2.36712E+01,	1.56856E+02,	-1.55569E+01,	0.00000E+00,	0,	0
  1.41639E+03,	1.00000E+01,	4.44560E-02,	2.45712E+01,	1.58664E+02,	-1.76956E+01,	0.00000E+00,	0,	0
  1.12208E+03,	1.00000E+01,	4.44560E-02,	2.56096E+01,	1.61324E+02,	-2.14373E+01,	0.00000E+00,	0,	0
  9.00000E+02,	1.00000E+01,	4.44560E-02,	3.06007E+01,	1.63961E+02,	-2.42959E+01,	0.00000E+00,	0,	0
  7.20000E+02,	1.00000E+01,	4.44560E-02,	3.19646E+01,	1.66423E+02,	-2.80865E+01,	0.00000E+00,	0,	0
  5.68421E+02,	1.00000E+01,	4.44560E-02,	3.33488E+01,	1.69278E+02,	-3.28734E+01,	0.00000E+00,	0,	0
  4.40816E+02,	1.00000E+01,	4.44560E-02,	3.47953E+01,	1.72757E+02,	-3.90878E+01,	0.00000E+00,	0,	0
  3.54098E+02,	1.00000E+01,	4.44560E-02,	3.71543E+01,	1.76242E+02,	-4.54109E+01,	0.00000E+00,	0,	0
  2.76923E+02,	1.00000E+01,	4.44560E-02,	3.98199E+01,	1.80989E+02,	-5.39323E+01,	0.00000E+00,	0,	0
  2.20408E+02,	1.00000E+01,	4.44560E-02,	4.27388E+01,	1.85837E+02,	-6.33247E+01,	0.00000E+00,	0,	0
  1.74194E+02,	1.00000E+01,	4.44560E-02,	4.60062E+01,	1.91579E+02,	-7.49962E+01,	0.00000E+00,	0,	0
  1.37580E+02,	1.00000E+01,	4.44560E-02,	4.96726E+01,	1.98122E+02,	-8.89670E+01,	0.00000E+00,	0,	0
  1.09091E+02,	1.00000E+01,	4.44560E-02,	5.37376E+01,	2.05540E+02,	-1.05732E+02,	0.00000E+00,	0,	0
  8.70968E+01,	1.00000E+01,	4.44560E-02,	5.94373E+01,	2.14136E+02,	-1.25492E+02,	0.00000E+00,	0,	0
  6.83544E+01,	1.00000E+01,	4.44560E-02,	6.44478E+01,	2.24889E+02,	-1.51972E+02,	0.00000E+00,	0,	0
  5.45455E+01,	1.00000E+01,	4.44560E-02,	6.98892E+01,	2.33592E+02,	-1.76786E+02,	0.00000E+00,	0,	0
  4.28571E+01,	1.00000E+01,	4.44560E-02,	7.34277E+01,	2.45235E+02,	-2.13206E+02,	0.00000E+00,	0,	0
  3.39623E+01,	1.00000E+01,	4.44560E-02,	7.71531E+01,	2.55822E+02,	-2.56887E+02,	0.00000E+00,	0,	0
  2.68657E+01,	1.00000E+01,	4.44560E-02,	8.09849E+01,	2.71466E+02,	-3.11101E+02,	0.00000E+00,	0,	0
  2.13439E+01,	1.00000E+01,	4.44560E-02,	8.48056E+01,	2.88244E+02,	-3.75830E+02,	0.00000E+00,	0,	0
  1.73077E+01,	1.00000E+01,	4.44560E-02,	8.85248E+01,	3.05351E+02,	-4.47845E+02,	0.00000E+00,	0,	0
  1.36364E+01,	1.00000E+01,	4.44560E-02,	9.35411E+01,	3.27977E+02,	-5.47927E+02,	0.00000E+00,	0,	0
  1.07143E+01,	1.00000E+01,	4.44560E-02,	9.64497E+01,	3.53860E+02,	-6.73448E+02,	0.00000E+00,	0,	0
  8.49057E+00,	1.00000E+01,	4.44560E-02,	1.00658E+02,	3.84044E+02,	-8.23908E+02,	0.00000E+00,	0,	0
  6.71642E+00,	1.00000E+01,	4.44560E-02,	1.03160E+02,	4.19906E+02,	-1.01179E+03,	0.00000E+00,	0,	0
  5.29412E+00,	1.00000E+01,	4.44560E-02,	1.06134E+02,	4.64316E+02,	-1.24631E+03,	0.00000E+00,	0,	0
  4.16667E+00,	1.00000E+01,	4.44560E-02,	1.09610E+02,	5.19818E+02,	-1.54121E+03,	0.00000E+00,	0,	0
  3.30882E+00,	1.00000E+01,	4.44560E-02,	1.16129E+02,	5.86753E+02,	-1.88970E+03,	0.00000E+00,	0,	0
  2.61628E+00,	1.00000E+01,	4.44560E-02,	1.20102E+02,	6.72048E+02,	-2.32909E+03,	0.00000E+00,	0,	0
  2.07373E+00,	1.00000E+01,	4.44560E-02,	1.24873E+02,	7.78538E+02,	-2.86557E+03,	0.00000E+00,	0,	0
  1.64234E+00,	1.00000E+01,	4.44560E-02,	1.30690E+02,	9.14328E+02,	-3.52806E+03,	0.00000E+00,	0,	0
  1.30058E+00,	1.00000E+01,	4.44560E-02,	1.34845E+02,	1.09009E+03,	-4.33990E+03,	0.00000E+00,	0,	0
  1.03211E+00,	1.00000E+01,	4.44560E-02,	1.39256E+02,	1.31410E+03,	-5.32991E+03,	0.00000E+00,	0,	0
  8.15217E-01,	1.00000E+01,	4.44560E-02,	1.46197E+02,	1.60444E+03,	-6.55598E+03,	0.00000E+00,	0,	0
  6.46552E-01,	1.00000E+01,	4.44560E-02,	1.50986E+02,	1.97718E+03,	-8.03351E+03,	0.00000E+00,	0,	0
  5.11364E-01,	1.00000E+01,	4.44560E-02,	1.55990E+02,	2.39848E+03,	-9.86238E+03,	0.00000E+00,	0,	0
  4.07609E-01,	1.00000E+01,	4.44560E-02,	1.62053E+02,	2.99013E+03,	-1.20056E+04,	0.00000E+00,	0,	0
  3.21429E-01,	1.00000E+01,	4.44560E-02,	1.69193E+02,	3.78746E+03,	-1.48409E+04,	0.00000E+00,	0,	0
  2.54525E-01,	1.00000E+01,	4.44560E-02,	1.77964E+02,	4.82715E+03,	-1.80750E+04,	0.00000E+00,	0,	0
  2.01613E-01,	1.00000E+01,	4.44560E-02,	1.88806E+02,	6.14748E+03,	-2.19839E+04,	0.00000E+00,	0,	0
  1.59574E-01,	1.00000E+01,	4.44560E-02,	2.02253E+02,	7.83791E+03,	-2.66867E+04,	0.00000E+00,	0,	0
  1.26689E-01,	1.00000E+01,	4.44560E-02,	2.36170E+02,	9.97403E+03,	-3.20518E+04,	0.00000E+00,	0,	0
  1.00446E-01,	1.00000E+01,	4.44560E-02,	2.57026E+02,	1.24382E+04,	-3.94254E+04,	0.00000E+00,	0,	0