Z60W Data File: Version 1.1
CorrTest for Windows: SN CS310H1805157  V5.2.1111.9  2.5H6.220118
Sweep Frequency: Control Voltage
  Date:4-29-2026   Time:16:02:06
  Begin Information:            Cell Information
      Surface Area:           1
      Density:                7.8
      Weight:                 28
  End Information:              Cell Information
  Freq (Hz)     Ampl(mV)       Bias(V)      Time(Sec)       Z'(Ohm.cm^2)    Z''(Ohm.cm^2)        GD       Err      Range
End Comments
  3.07200E+05,	1.00000E+01,	4.09284E-02,	2.11186E-02,	4.85917E+02,	-5.45405E+02,	0.00000E+00,	0,	0
  2.76480E+05,	1.00000E+01,	4.09284E-02,	1.61535E+00,	4.94269E+02,	-6.05279E+02,	0.00000E+00,	0,	0
  1.97486E+05,	1.00000E+01,	4.09284E-02,	2.51259E+00,	5.46886E+02,	-8.14908E+02,	0.00000E+00,	0,	0
  1.53600E+05,	1.00000E+01,	4.09284E-02,	3.41946E+00,	6.08507E+02,	-1.01327E+03,	0.00000E+00,	0,	0
  1.25673E+05,	1.00000E+01,	4.09284E-02,	4.31372E+00,	6.71521E+02,	-1.21096E+03,	0.00000E+00,	0,	0
  9.87429E+04,	1.00000E+01,	4.09284E-02,	5.20804E+00,	7.87463E+02,	-1.48551E+03,	0.00000E+00,	0,	0
  7.68000E+04,	1.00000E+01,	4.09284E-02,	6.13066E+00,	9.85657E+02,	-1.82834E+03,	0.00000E+00,	0,	0
  6.01043E+04,	1.00000E+01,	4.09284E-02,	8.25509E+00,	1.18979E+03,	-2.15217E+03,	0.00000E+00,	0,	0
  4.93714E+04,	1.00000E+01,	4.09284E-02,	9.85403E+00,	1.45411E+03,	-2.49233E+03,	0.00000E+00,	0,	0
  3.84000E+04,	1.00000E+01,	4.09284E-02,	1.07532E+01,	1.88487E+03,	-2.86965E+03,	0.00000E+00,	0,	0
  3.00522E+04,	1.00000E+01,	4.09284E-02,	1.16017E+01,	3.22149E+03,	-3.36836E+03,	0.00000E+00,	0,	0
  2.38345E+04,	1.00000E+01,	4.09284E-02,	1.24742E+01,	3.11508E+03,	-3.82783E+03,	0.00000E+00,	0,	0
  1.86811E+04,	1.00000E+01,	4.09284E-02,	1.33020E+01,	3.79619E+03,	-2.44974E+03,	0.00000E+00,	0,	0
  1.47064E+04,	1.00000E+01,	4.09284E-02,	1.42531E+01,	4.85493E+03,	-4.34244E+03,	0.00000E+00,	0,	0
  1.15200E+04,	1.00000E+01,	4.09284E-02,	1.52615E+01,	5.83140E+03,	-4.32341E+03,	0.00000E+00,	0,	0
  9.60000E+03,	1.00000E+01,	4.09284E-02,	1.68857E+01,	6.48440E+03,	-4.34249E+03,	0.00000E+00,	0,	0
  7.51304E+03,	1.00000E+01,	4.09284E-02,	1.77580E+01,	7.34334E+03,	-4.10256E+03,	0.00000E+00,	0,	0
  5.76000E+03,	1.00000E+01,	4.09284E-02,	1.86546E+01,	8.14791E+03,	-3.79998E+03,	0.00000E+00,	0,	0
  4.54737E+03,	1.00000E+01,	4.09284E-02,	1.95165E+01,	8.66508E+03,	-3.29893E+03,	0.00000E+00,	0,	0
  3.60000E+03,	1.00000E+01,	4.09284E-02,	2.05133E+01,	9.24483E+03,	-3.09073E+03,	0.00000E+00,	0,	0
  2.88000E+03,	1.00000E+01,	4.09284E-02,	2.14353E+01,	9.99929E+03,	-3.24046E+03,	0.00000E+00,	0,	0
  2.27368E+03,	1.00000E+01,	4.09284E-02,	2.25700E+01,	9.93768E+03,	-2.19659E+03,	0.00000E+00,	0,	0
  1.78144E+03,	1.00000E+01,	4.09284E-02,	2.33684E+01,	9.29042E+03,	-1.98219E+03,	0.00000E+00,	0,	0
  1.41639E+03,	1.00000E+01,	4.09284E-02,	2.42930E+01,	9.56495E+03,	-2.37980E+03,	0.00000E+00,	0,	0
  1.12208E+03,	1.00000E+01,	4.09284E-02,	2.53953E+01,	1.05284E+04,	-1.12174E+02,	0.00000E+00,	0,	0
  9.00000E+02,	1.00000E+01,	4.09284E-02,	3.03905E+01,	1.07769E+04,	-1.59345E+03,	0.00000E+00,	0,	0
  7.20000E+02,	1.00000E+01,	4.09284E-02,	3.17655E+01,	1.09473E+04,	-1.48327E+03,	0.00000E+00,	0,	0
  5.68421E+02,	1.00000E+01,	4.09284E-02,	3.31394E+01,	1.11527E+04,	-1.46425E+03,	0.00000E+00,	0,	0
  4.40816E+02,	1.00000E+01,	4.09284E-02,	3.77731E+01,	1.14084E+04,	-1.29072E+03,	0.00000E+00,	0,	0
  3.54098E+02,	1.00000E+01,	4.09284E-02,	4.01354E+01,	1.16203E+04,	-1.24966E+03,	0.00000E+00,	0,	0
  2.76923E+02,	1.00000E+01,	4.09284E-02,	4.27705E+01,	1.18421E+04,	-1.18595E+03,	0.00000E+00,	0,	0
  2.20408E+02,	1.00000E+01,	4.09284E-02,	4.57495E+01,	1.20388E+04,	-1.11841E+03,	0.00000E+00,	0,	0
  1.74194E+02,	1.00000E+01,	4.09284E-02,	4.90417E+01,	1.22277E+04,	-1.05816E+03,	0.00000E+00,	0,	0
  1.37580E+02,	1.00000E+01,	4.09284E-02,	5.27086E+01,	1.24030E+04,	-9.99589E+02,	0.00000E+00,	0,	0
  1.09091E+02,	1.00000E+01,	4.09284E-02,	5.67913E+01,	1.25608E+04,	-9.69183E+02,	0.00000E+00,	0,	0
  8.70968E+01,	1.00000E+01,	4.09284E-02,	6.24962E+01,	1.27475E+04,	-9.74911E+02,	0.00000E+00,	0,	0
  6.83544E+01,	1.00000E+01,	4.09284E-02,	6.75544E+01,	1.29830E+04,	-1.01071E+03,	0.00000E+00,	0,	0
  5.45455E+01,	1.00000E+01,	4.09284E-02,	7.30113E+01,	1.29898E+04,	-9.46294E+02,	0.00000E+00,	0,	0
  4.28571E+01,	1.00000E+01,	4.09284E-02,	7.65674E+01,	1.31259E+04,	-1.00339E+03,	0.00000E+00,	0,	0
  3.39623E+01,	1.00000E+01,	4.09284E-02,	8.02846E+01,	1.32171E+04,	-1.15437E+03,	0.00000E+00,	0,	0
  2.68657E+01,	1.00000E+01,	4.09284E-02,	8.41240E+01,	1.34288E+04,	-1.25140E+03,	0.00000E+00,	0,	0
  2.13439E+01,	1.00000E+01,	4.09284E-02,	8.79165E+01,	1.36174E+04,	-1.38242E+03,	0.00000E+00,	0,	0
  1.73077E+01,	1.00000E+01,	4.09284E-02,	9.15891E+01,	1.37937E+04,	-1.53181E+03,	0.00000E+00,	0,	0
  1.36364E+01,	1.00000E+01,	4.09284E-02,	9.66318E+01,	1.40332E+04,	-1.74790E+03,	0.00000E+00,	0,	0
  1.07143E+01,	1.00000E+01,	4.09284E-02,	9.95861E+01,	1.42506E+04,	-2.00296E+03,	0.00000E+00,	0,	0
  8.49057E+00,	1.00000E+01,	4.09284E-02,	1.03788E+02,	1.45230E+04,	-2.30745E+03,	0.00000E+00,	0,	0
  6.71642E+00,	1.00000E+01,	4.09284E-02,	1.06307E+02,	1.47365E+04,	-2.67972E+03,	0.00000E+00,	0,	0
  5.29412E+00,	1.00000E+01,	4.09284E-02,	1.09285E+02,	1.50312E+04,	-3.12840E+03,	0.00000E+00,	0,	0
  4.16667E+00,	1.00000E+01,	4.09284E-02,	1.12763E+02,	1.53614E+04,	-3.66756E+03,	0.00000E+00,	0,	0
  3.30882E+00,	1.00000E+01,	4.09284E-02,	1.17001E+02,	1.57246E+04,	-4.29822E+03,	0.00000E+00,	0,	0
  2.61628E+00,	1.00000E+01,	4.09284E-02,	1.20958E+02,	1.61280E+04,	-5.06456E+03,	0.00000E+00,	0,	0
  2.07373E+00,	1.00000E+01,	4.09284E-02,	1.25728E+02,	1.65898E+04,	-5.97966E+03,	0.00000E+00,	0,	0
  1.64234E+00,	1.00000E+01,	4.09284E-02,	1.31510E+02,	1.71177E+04,	-7.09310E+03,	0.00000E+00,	0,	0
  1.30058E+00,	1.00000E+01,	4.09284E-02,	1.35702E+02,	1.76405E+04,	-8.43765E+03,	0.00000E+00,	0,	0
  1.03211E+00,	1.00000E+01,	4.09284E-02,	1.40128E+02,	1.83457E+04,	-9.96559E+03,	0.00000E+00,	0,	0
  8.15217E-01,	1.00000E+01,	4.09284E-02,	1.47086E+02,	1.89603E+04,	-1.20451E+04,	0.00000E+00,	0,	0
  6.46552E-01,	1.00000E+01,	4.09284E-02,	1.51913E+02,	1.97083E+04,	-1.43714E+04,	0.00000E+00,	0,	0
  5.11364E-01,	1.00000E+01,	4.09284E-02,	1.56915E+02,	2.05373E+04,	-1.82623E+04,	0.00000E+00,	0,	0
  4.07609E-01,	1.00000E+01,	4.09284E-02,	1.62962E+02,	2.15456E+04,	-2.17724E+04,	0.00000E+00,	0,	0
  3.21429E-01,	1.00000E+01,	4.09284E-02,	1.70088E+02,	2.36612E+04,	-2.70886E+04,	0.00000E+00,	0,	0
  2.54525E-01,	1.00000E+01,	4.09284E-02,	1.78877E+02,	2.49852E+04,	-3.25319E+04,	0.00000E+00,	0,	0
  2.01613E-01,	1.00000E+01,	4.09284E-02,	1.89747E+02,	2.66326E+04,	-3.95253E+04,	0.00000E+00,	0,	0
  1.59574E-01,	1.00000E+01,	4.09284E-02,	2.03212E+02,	2.86113E+04,	-4.81841E+04,	0.00000E+00,	0,	0
  1.26689E-01,	1.00000E+01,	4.09284E-02,	2.20124E+02,	3.09618E+04,	-5.86770E+04,	0.00000E+00,	0,	0
  1.00446E-01,	1.00000E+01,	4.09284E-02,	2.40983E+02,	3.39134E+04,	-7.19987E+04,	0.00000E+00,	0,	0