Z60W Data File: Version 1.1
CorrTest for Windows: SN CS310H1805157  V5.2.1111.9  2.5H6.220118
Sweep Frequency: Control Voltage
  Date:4-29-2026   Time:15:16:25
  Begin Information:            Cell Information
      Surface Area:           1
      Density:                7.8
      Weight:                 28
  End Information:              Cell Information
  Freq (Hz)     Ampl(mV)       Bias(V)      Time(Sec)       Z'(Ohm.cm^2)    Z''(Ohm.cm^2)        GD       Err      Range
End Comments
  1.06338E+05,	1.00000E+01,	3.95245E-02,	4.21434E-02,	-1.09671E+02,	-6.71020E+02,	0.00000E+00,	0,	0
  8.13176E+04,	1.00000E+01,	3.95245E-02,	9.59976E-01,	-2.22262E+01,	-9.25382E+02,	0.00000E+00,	0,	0
  6.28364E+04,	1.00000E+01,	3.95245E-02,	1.83894E+00,	2.60647E+02,	-1.30599E+03,	0.00000E+00,	0,	0
  5.31692E+04,	1.00000E+01,	3.95245E-02,	3.43003E+00,	3.75878E+02,	-1.42825E+03,	0.00000E+00,	0,	0
  4.06588E+04,	1.00000E+01,	3.95245E-02,	4.34568E+00,	7.59282E+02,	-1.64659E+03,	0.00000E+00,	0,	0
  3.14182E+04,	1.00000E+01,	3.95245E-02,	5.27167E+00,	1.18214E+03,	-1.82863E+03,	0.00000E+00,	0,	0
  2.46857E+04,	1.00000E+01,	3.95245E-02,	6.15525E+00,	1.54253E+03,	-1.92565E+03,	0.00000E+00,	0,	0
  1.97486E+04,	1.00000E+01,	3.95245E-02,	7.12411E+00,	2.08758E+03,	-1.77938E+03,	0.00000E+00,	0,	0
  1.57091E+04,	1.00000E+01,	3.95245E-02,	8.06046E+00,	2.42951E+03,	-1.67859E+03,	0.00000E+00,	0,	0
  1.23429E+04,	1.00000E+01,	3.95245E-02,	8.90548E+00,	2.69587E+03,	-1.44488E+03,	0.00000E+00,	0,	0
  1.01647E+04,	1.00000E+01,	3.95245E-02,	1.05733E+01,	2.89104E+03,	-1.32413E+03,	0.00000E+00,	0,	0
  7.85455E+03,	1.00000E+01,	3.95245E-02,	1.15296E+01,	3.71223E+03,	-6.55333E+02,	0.00000E+00,	0,	0
  6.17143E+03,	1.00000E+01,	3.95245E-02,	1.24174E+01,	3.33312E+03,	-1.06790E+03,	0.00000E+00,	0,	0
  4.80000E+03,	1.00000E+01,	3.95245E-02,	1.32515E+01,	2.78609E+03,	-6.85866E+02,	0.00000E+00,	0,	0
  3.84000E+03,	1.00000E+01,	3.95245E-02,	1.42172E+01,	3.26030E+03,	-8.25728E+02,	0.00000E+00,	0,	0
  3.03158E+03,	1.00000E+01,	3.95245E-02,	1.50724E+01,	3.37939E+03,	-7.20309E+02,	0.00000E+00,	0,	0
  2.36712E+03,	1.00000E+01,	3.95245E-02,	1.60746E+01,	3.55516E+03,	-5.03019E+02,	0.00000E+00,	0,	0
  1.87826E+03,	1.00000E+01,	3.95245E-02,	1.68537E+01,	3.96022E+03,	-4.02745E+01,	0.00000E+00,	0,	0
  1.48966E+03,	1.00000E+01,	3.95245E-02,	1.77424E+01,	3.31929E+03,	-9.04024E+01,	0.00000E+00,	0,	0
  1.17551E+03,	1.00000E+01,	3.95245E-02,	1.87526E+01,	3.20350E+03,	-3.42114E+02,	0.00000E+00,	0,	0
  9.39130E+02,	1.00000E+01,	3.95245E-02,	2.67512E+01,	3.41596E+03,	-3.07070E+02,	0.00000E+00,	0,	0
  7.44828E+02,	1.00000E+01,	3.95245E-02,	2.81338E+01,	3.47134E+03,	-3.10009E+02,	0.00000E+00,	0,	0
  5.83784E+02,	1.00000E+01,	3.95245E-02,	2.95000E+01,	3.48609E+03,	-2.89142E+02,	0.00000E+00,	0,	0
  4.59574E+02,	1.00000E+01,	3.95245E-02,	3.08720E+01,	3.51106E+03,	-2.71042E+02,	0.00000E+00,	0,	0
  3.66102E+02,	1.00000E+01,	3.95245E-02,	3.32070E+01,	3.56359E+03,	-2.84503E+02,	0.00000E+00,	0,	0
  2.88000E+02,	1.00000E+01,	3.95245E-02,	3.57876E+01,	3.60125E+03,	-2.81781E+02,	0.00000E+00,	0,	0
  2.27368E+02,	1.00000E+01,	3.95245E-02,	3.86933E+01,	3.67002E+03,	-2.91502E+02,	0.00000E+00,	0,	0
  1.80000E+02,	1.00000E+01,	3.95245E-02,	4.19185E+01,	3.67262E+03,	-3.01820E+02,	0.00000E+00,	0,	0
  1.42105E+02,	1.00000E+01,	3.95245E-02,	4.55333E+01,	3.71439E+03,	-3.29843E+02,	0.00000E+00,	0,	0
  1.12500E+02,	1.00000E+01,	3.95245E-02,	4.95468E+01,	3.74388E+03,	-3.57132E+02,	0.00000E+00,	0,	0
  9.00000E+01,	1.00000E+01,	3.95245E-02,	5.51093E+01,	3.81619E+03,	-3.96959E+02,	0.00000E+00,	0,	0
  7.10526E+01,	1.00000E+01,	3.95245E-02,	6.00529E+01,	3.88135E+03,	-4.51398E+02,	0.00000E+00,	0,	0
  5.62500E+01,	1.00000E+01,	3.95245E-02,	6.54599E+01,	3.87833E+03,	-4.62498E+02,	0.00000E+00,	0,	0
  4.42623E+01,	1.00000E+01,	3.95245E-02,	6.89798E+01,	3.92649E+03,	-5.30329E+02,	0.00000E+00,	0,	0
  3.50649E+01,	1.00000E+01,	3.95245E-02,	7.27074E+01,	3.99765E+03,	-6.23454E+02,	0.00000E+00,	0,	0
  2.76923E+01,	1.00000E+01,	3.95245E-02,	7.65966E+01,	4.07003E+03,	-7.05173E+02,	0.00000E+00,	0,	0
  2.18623E+01,	1.00000E+01,	3.95245E-02,	8.04104E+01,	4.14813E+03,	-8.15054E+02,	0.00000E+00,	0,	0
  1.73077E+01,	1.00000E+01,	3.95245E-02,	8.40102E+01,	4.22435E+03,	-9.43515E+02,	0.00000E+00,	0,	0
  1.40625E+01,	1.00000E+01,	3.95245E-02,	8.90922E+01,	4.30068E+03,	-1.08871E+03,	0.00000E+00,	0,	0
  1.09756E+01,	1.00000E+01,	3.95245E-02,	9.22127E+01,	4.42242E+03,	-1.28656E+03,	0.00000E+00,	0,	0
  8.65385E+00,	1.00000E+01,	3.95245E-02,	9.93968E+01,	2.80059E+05,	-7.76205E+04,	0.00000E+00,	0,	0
  6.81818E+00,	1.00000E+01,	3.95245E-02,	1.01870E+02,	2.89038E+05,	-9.74846E+04,	0.00000E+00,	0,	0
  5.35714E+00,	1.00000E+01,	3.95245E-02,	1.04799E+02,	2.96335E+05,	-1.23499E+05,	0.00000E+00,	0,	0
  4.24528E+00,	1.00000E+01,	3.95245E-02,	1.08239E+02,	3.04990E+05,	-1.51706E+05,	0.00000E+00,	0,	0
  3.35821E+00,	1.00000E+01,	3.95245E-02,	1.12349E+02,	3.16187E+05,	-1.86092E+05,	0.00000E+00,	0,	0
  2.66272E+00,	1.00000E+01,	3.95245E-02,	1.16298E+02,	3.24003E+05,	-2.29023E+05,	0.00000E+00,	0,	0
  2.10280E+00,	1.00000E+01,	3.95245E-02,	1.21029E+02,	3.40721E+05,	-2.79149E+05,	0.00000E+00,	0,	0
  1.66667E+00,	1.00000E+01,	3.95245E-02,	1.26749E+02,	3.56220E+05,	-3.36910E+05,	0.00000E+00,	0,	0
  1.31579E+00,	1.00000E+01,	3.95245E-02,	1.30875E+02,	3.59638E+05,	-4.14016E+05,	0.00000E+00,	0,	0
  1.04167E+00,	1.00000E+01,	3.95245E-02,	1.35296E+02,	3.89804E+05,	-4.66718E+05,	0.00000E+00,	0,	0
  8.27206E-01,	1.00000E+01,	3.95245E-02,	1.42176E+02,	3.64224E+05,	-6.14902E+05,	0.00000E+00,	0,	0
  6.54070E-01,	1.00000E+01,	3.95245E-02,	1.46765E+02,	3.92198E+05,	-7.24783E+05,	0.00000E+00,	0,	0
  5.16055E-01,	1.00000E+01,	3.95245E-02,	1.51737E+02,	4.93797E+05,	-9.90241E+05,	0.00000E+00,	0,	0
  4.07609E-01,	1.00000E+01,	3.95245E-02,	1.57820E+02,	5.28022E+05,	-1.21015E+06,	0.00000E+00,	0,	0
  3.23276E-01,	1.00000E+01,	3.95245E-02,	1.64942E+02,	6.30623E+05,	-1.43706E+06,	0.00000E+00,	0,	0
  2.55682E-01,	1.00000E+01,	3.95245E-02,	1.73687E+02,	6.50433E+05,	-1.76049E+06,	0.00000E+00,	0,	0
  2.02703E-01,	1.00000E+01,	3.95245E-02,	1.84475E+02,	6.24070E+05,	-2.13833E+06,	0.00000E+00,	0,	0
  1.60256E-01,	1.00000E+01,	3.95245E-02,	1.97914E+02,	5.18868E+05,	-2.54911E+06,	0.00000E+00,	0,	0
  1.26689E-01,	1.00000E+01,	3.95245E-02,	2.14655E+02,	6.18864E+05,	-2.86684E+06,	0.00000E+00,	0,	0
  1.00446E-01,	1.00000E+01,	3.95245E-02,	2.35566E+02,	7.94055E+05,	-2.99225E+06,	0.00000E+00,	0,	0