Z60W Data File: Version 1.1
CorrTest for Windows: SN CS310H1805157  V5.2.1111.9  2.5H6.220118
Sweep Frequency: Control Voltage
  Date:4-29-2026   Time:13:53:26
  Begin Information:            Cell Information
      Surface Area:           1
      Density:                7.8
      Weight:                 28
  End Information:              Cell Information
  Freq (Hz)     Ampl(mV)       Bias(V)      Time(Sec)       Z'(Ohm.cm^2)    Z''(Ohm.cm^2)        GD       Err      Range
End Comments
  3.07200E+05,	1.00000E+01,	5.04494E-02,	2.41703E-02,	5.36045E+00,	6.30678E+00,	0.00000E+00,	0,	0
  2.76480E+05,	1.00000E+01,	5.04494E-02,	1.68387E+00,	5.77496E+00,	5.35387E+00,	0.00000E+00,	0,	0
  1.97486E+05,	1.00000E+01,	5.04494E-02,	2.58250E+00,	6.33510E+00,	3.76876E+00,	0.00000E+00,	0,	0
  1.53600E+05,	1.00000E+01,	5.04494E-02,	3.50010E+00,	6.55524E+00,	2.87188E+00,	0.00000E+00,	0,	0
  1.25673E+05,	1.00000E+01,	5.04494E-02,	4.43575E+00,	6.69236E+00,	2.26287E+00,	0.00000E+00,	0,	0
  9.87429E+04,	1.00000E+01,	5.04494E-02,	5.34788E+00,	6.79321E+00,	1.66491E+00,	0.00000E+00,	0,	0
  7.68000E+04,	1.00000E+01,	5.04494E-02,	6.25290E+00,	6.88953E+00,	1.17037E+00,	0.00000E+00,	0,	0
  6.01043E+04,	1.00000E+01,	5.04494E-02,	8.35589E+00,	6.95561E+00,	7.37090E-01,	0.00000E+00,	0,	0
  4.93714E+04,	1.00000E+01,	5.04494E-02,	9.94199E+00,	7.00979E+00,	4.61027E-01,	0.00000E+00,	0,	0
  3.84000E+04,	1.00000E+01,	5.04494E-02,	1.08378E+01,	7.06786E+00,	1.40295E-01,	0.00000E+00,	0,	0
  3.00522E+04,	1.00000E+01,	5.04494E-02,	1.16901E+01,	7.12849E+00,	-1.31255E-01,	0.00000E+00,	0,	0
  2.38345E+04,	1.00000E+01,	5.04494E-02,	1.25615E+01,	7.18585E+00,	-3.89672E-01,	0.00000E+00,	0,	0
  1.86811E+04,	1.00000E+01,	5.04494E-02,	1.33947E+01,	7.26774E+00,	-6.59349E-01,	0.00000E+00,	0,	0
  1.47064E+04,	1.00000E+01,	5.04494E-02,	1.43723E+01,	7.35613E+00,	-9.43700E-01,	0.00000E+00,	0,	0
  1.15200E+04,	1.00000E+01,	5.04494E-02,	1.53410E+01,	7.47568E+00,	-1.24734E+00,	0.00000E+00,	0,	0
  9.60000E+03,	1.00000E+01,	5.04494E-02,	1.69119E+01,	7.56430E+00,	-1.50347E+00,	0.00000E+00,	0,	0
  7.51304E+03,	1.00000E+01,	5.04494E-02,	1.78063E+01,	7.72017E+00,	-1.87741E+00,	0.00000E+00,	0,	0
  5.76000E+03,	1.00000E+01,	5.04494E-02,	1.87061E+01,	7.90320E+00,	-2.36170E+00,	0.00000E+00,	0,	0
  4.54737E+03,	1.00000E+01,	5.04494E-02,	1.95772E+01,	8.10182E+00,	-2.85536E+00,	0.00000E+00,	0,	0
  3.60000E+03,	1.00000E+01,	5.04494E-02,	2.05750E+01,	8.32730E+00,	-3.43228E+00,	0.00000E+00,	0,	0
  2.88000E+03,	1.00000E+01,	5.04494E-02,	2.14855E+01,	8.57701E+00,	-4.08255E+00,	0.00000E+00,	0,	0
  2.27368E+03,	1.00000E+01,	5.04494E-02,	2.26215E+01,	8.87458E+00,	-4.90352E+00,	0.00000E+00,	0,	0
  1.78144E+03,	1.00000E+01,	5.04494E-02,	2.34050E+01,	9.23992E+00,	-5.92497E+00,	0.00000E+00,	0,	0
  1.41639E+03,	1.00000E+01,	5.04494E-02,	2.43063E+01,	9.63448E+00,	-7.06989E+00,	0.00000E+00,	0,	0
  1.12208E+03,	1.00000E+01,	5.04494E-02,	2.53406E+01,	1.00395E+01,	-8.50835E+00,	0.00000E+00,	0,	0
  9.00000E+02,	1.00000E+01,	5.04494E-02,	3.03222E+01,	1.05715E+01,	-1.01596E+01,	0.00000E+00,	0,	0
  7.20000E+02,	1.00000E+01,	5.04494E-02,	3.17093E+01,	1.11055E+01,	-1.21555E+01,	0.00000E+00,	0,	0
  5.68421E+02,	1.00000E+01,	5.04494E-02,	3.30701E+01,	1.17463E+01,	-1.47442E+01,	0.00000E+00,	0,	0
  4.40816E+02,	1.00000E+01,	5.04494E-02,	3.61027E+01,	1.25940E+01,	-1.82580E+01,	0.00000E+00,	0,	0
  3.54098E+02,	1.00000E+01,	5.04494E-02,	3.84483E+01,	1.33917E+01,	-2.19382E+01,	0.00000E+00,	0,	0
  2.76923E+02,	1.00000E+01,	5.04494E-02,	4.10825E+01,	1.44665E+01,	-2.70475E+01,	0.00000E+00,	0,	0
  2.20408E+02,	1.00000E+01,	5.04494E-02,	4.40322E+01,	1.56429E+01,	-3.29296E+01,	0.00000E+00,	0,	0
  1.74194E+02,	1.00000E+01,	5.04494E-02,	4.72859E+01,	1.70893E+01,	-4.03931E+01,	0.00000E+00,	0,	0
  1.37580E+02,	1.00000E+01,	5.04494E-02,	5.09438E+01,	1.88500E+01,	-4.96741E+01,	0.00000E+00,	0,	0
  1.09091E+02,	1.00000E+01,	5.04494E-02,	5.50088E+01,	2.09564E+01,	-6.09951E+01,	0.00000E+00,	0,	0
  8.70968E+01,	1.00000E+01,	5.04494E-02,	6.07153E+01,	2.34443E+01,	-7.46020E+01,	0.00000E+00,	0,	0
  6.83544E+01,	1.00000E+01,	5.04494E-02,	6.57235E+01,	2.68133E+01,	-9.31287E+01,	0.00000E+00,	0,	0
  5.45455E+01,	1.00000E+01,	5.04494E-02,	7.11732E+01,	3.11880E+01,	-1.12204E+02,	0.00000E+00,	0,	0
  4.28571E+01,	1.00000E+01,	5.04494E-02,	7.47071E+01,	3.67145E+01,	-1.38952E+02,	0.00000E+00,	0,	0
  3.39623E+01,	1.00000E+01,	5.04494E-02,	7.84261E+01,	4.24360E+01,	-1.70453E+02,	0.00000E+00,	0,	0
  2.68657E+01,	1.00000E+01,	5.04494E-02,	8.22510E+01,	5.15280E+01,	-2.10367E+02,	0.00000E+00,	0,	0
  2.13439E+01,	1.00000E+01,	5.04494E-02,	8.60564E+01,	6.28746E+01,	-2.57824E+02,	0.00000E+00,	0,	0
  1.73077E+01,	1.00000E+01,	5.04494E-02,	9.27669E+01,	7.60855E+01,	-3.10542E+02,	0.00000E+00,	0,	0
  1.36364E+01,	1.00000E+01,	5.04494E-02,	9.78232E+01,	9.48210E+01,	-3.82085E+02,	0.00000E+00,	0,	0
  1.07143E+01,	1.00000E+01,	5.04494E-02,	1.00735E+02,	1.19359E+02,	-4.70261E+02,	0.00000E+00,	0,	0
  8.49057E+00,	1.00000E+01,	5.04494E-02,	1.04956E+02,	1.49795E+02,	-5.73934E+02,	0.00000E+00,	0,	0
  6.71642E+00,	1.00000E+01,	5.04494E-02,	1.07524E+02,	1.89323E+02,	-6.99333E+02,	0.00000E+00,	0,	0
  5.29412E+00,	1.00000E+01,	5.04494E-02,	1.10473E+02,	2.41282E+02,	-8.52646E+02,	0.00000E+00,	0,	0
  4.16667E+00,	1.00000E+01,	5.04494E-02,	1.13940E+02,	3.08055E+02,	-1.03790E+03,	0.00000E+00,	0,	0
  3.30882E+00,	1.00000E+01,	5.04494E-02,	1.20468E+02,	3.89243E+02,	-1.24885E+03,	0.00000E+00,	0,	0
  2.61628E+00,	1.00000E+01,	5.04494E-02,	1.24443E+02,	4.93361E+02,	-1.50318E+03,	0.00000E+00,	0,	0
  2.07373E+00,	1.00000E+01,	5.04494E-02,	1.29215E+02,	6.20547E+02,	-1.79926E+03,	0.00000E+00,	0,	0
  1.64234E+00,	1.00000E+01,	5.04494E-02,	1.34995E+02,	7.74578E+02,	-2.14758E+03,	0.00000E+00,	0,	0
  1.30058E+00,	1.00000E+01,	5.04494E-02,	1.39172E+02,	9.59583E+02,	-2.55364E+03,	0.00000E+00,	0,	0
  1.03211E+00,	1.00000E+01,	5.04494E-02,	1.43614E+02,	1.17934E+03,	-3.03051E+03,	0.00000E+00,	0,	0
  8.15217E-01,	1.00000E+01,	5.04494E-02,	1.50615E+02,	1.43110E+03,	-3.59252E+03,	0.00000E+00,	0,	0
  6.46552E-01,	1.00000E+01,	5.04494E-02,	1.55425E+02,	1.72389E+03,	-4.24892E+03,	0.00000E+00,	0,	0
  5.11364E-01,	1.00000E+01,	5.04494E-02,	1.60471E+02,	1.99193E+03,	-5.07539E+03,	0.00000E+00,	0,	0
  4.07609E-01,	1.00000E+01,	5.04494E-02,	1.66525E+02,	2.35889E+03,	-5.99951E+03,	0.00000E+00,	0,	0
  3.21429E-01,	1.00000E+01,	5.04494E-02,	1.73648E+02,	2.81309E+03,	-7.27691E+03,	0.00000E+00,	0,	0
  2.54525E-01,	1.00000E+01,	5.04494E-02,	1.82430E+02,	3.31018E+03,	-8.64731E+03,	0.00000E+00,	0,	0
  2.01613E-01,	1.00000E+01,	5.04494E-02,	1.93257E+02,	3.85504E+03,	-1.03343E+04,	0.00000E+00,	0,	0
  1.59574E-01,	1.00000E+01,	5.04494E-02,	2.06723E+02,	4.46909E+03,	-1.23971E+04,	0.00000E+00,	0,	0
  1.26689E-01,	1.00000E+01,	5.04494E-02,	2.40661E+02,	5.19385E+03,	-1.46696E+04,	0.00000E+00,	0,	0
  1.00446E-01,	1.00000E+01,	5.04494E-02,	2.61534E+02,	5.90638E+03,	-1.83451E+04,	0.00000E+00,	0,	0