Z60W Data File: Version 1.1
CorrTest for Windows: SN CS310H1805157  V5.2.1111.9  2.5H6.220118
Sweep Frequency: Control Voltage
  Date:4-29-2026   Time:15:50:22
  Begin Information:            Cell Information
      Surface Area:           1
      Density:                7.8
      Weight:                 28
  End Information:              Cell Information
  Freq (Hz)     Ampl(mV)       Bias(V)      Time(Sec)       Z'(Ohm.cm^2)    Z''(Ohm.cm^2)        GD       Err      Range
End Comments
  3.07200E+05,	1.00000E+01,	4.23933E-02,	3.96883E-02,	4.80585E+02,	-5.41541E+02,	0.00000E+00,	0,	0
  2.76480E+05,	1.00000E+01,	4.23933E-02,	1.66007E+00,	4.91829E+02,	-5.93120E+02,	0.00000E+00,	0,	0
  1.97486E+05,	1.00000E+01,	4.23933E-02,	2.56588E+00,	5.46964E+02,	-7.88816E+02,	0.00000E+00,	0,	0
  1.53600E+05,	1.00000E+01,	4.23933E-02,	3.46807E+00,	6.17693E+02,	-9.82680E+02,	0.00000E+00,	0,	0
  1.25673E+05,	1.00000E+01,	4.23933E-02,	4.36333E+00,	6.64961E+02,	-1.14383E+03,	0.00000E+00,	0,	0
  9.87429E+04,	1.00000E+01,	4.23933E-02,	5.27114E+00,	8.07662E+02,	-1.42144E+03,	0.00000E+00,	0,	0
  7.68000E+04,	1.00000E+01,	4.23933E-02,	6.18190E+00,	1.00491E+03,	-1.75102E+03,	0.00000E+00,	0,	0
  6.01043E+04,	1.00000E+01,	4.23933E-02,	8.31975E+00,	1.21844E+03,	-2.04212E+03,	0.00000E+00,	0,	0
  4.93714E+04,	1.00000E+01,	4.23933E-02,	9.89585E+00,	1.50453E+03,	-2.34069E+03,	0.00000E+00,	0,	0
  3.84000E+04,	1.00000E+01,	4.23933E-02,	1.08102E+01,	1.94017E+03,	-2.70690E+03,	0.00000E+00,	0,	0
  3.00522E+04,	1.00000E+01,	4.23933E-02,	1.16882E+01,	1.70752E+03,	-3.13146E+03,	0.00000E+00,	0,	0
  2.38345E+04,	1.00000E+01,	4.23933E-02,	1.25495E+01,	3.10379E+03,	-3.39120E+03,	0.00000E+00,	0,	0
  1.86811E+04,	1.00000E+01,	4.23933E-02,	1.34052E+01,	3.22620E+03,	-2.57028E+03,	0.00000E+00,	0,	0
  1.47064E+04,	1.00000E+01,	4.23933E-02,	1.43821E+01,	4.55892E+03,	-3.71122E+03,	0.00000E+00,	0,	0
  1.15200E+04,	1.00000E+01,	4.23933E-02,	1.53776E+01,	5.40429E+03,	-3.56425E+03,	0.00000E+00,	0,	0
  9.60000E+03,	1.00000E+01,	4.23933E-02,	1.69478E+01,	5.83020E+03,	-3.39535E+03,	0.00000E+00,	0,	0
  7.51304E+03,	1.00000E+01,	4.23933E-02,	1.78082E+01,	6.61222E+03,	-3.17570E+03,	0.00000E+00,	0,	0
  5.76000E+03,	1.00000E+01,	4.23933E-02,	1.87145E+01,	7.19907E+03,	-2.75901E+03,	0.00000E+00,	0,	0
  4.54737E+03,	1.00000E+01,	4.23933E-02,	1.95761E+01,	7.61339E+03,	-2.32313E+03,	0.00000E+00,	0,	0
  3.60000E+03,	1.00000E+01,	4.23933E-02,	2.05742E+01,	7.92636E+03,	-2.13562E+03,	0.00000E+00,	0,	0
  2.88000E+03,	1.00000E+01,	4.23933E-02,	2.14596E+01,	8.35052E+03,	-1.78033E+03,	0.00000E+00,	0,	0
  2.27368E+03,	1.00000E+01,	4.23933E-02,	2.26110E+01,	8.53725E+03,	-1.63678E+03,	0.00000E+00,	0,	0
  1.78144E+03,	1.00000E+01,	4.23933E-02,	2.34370E+01,	9.05715E+03,	-1.34310E+03,	0.00000E+00,	0,	0
  1.41639E+03,	1.00000E+01,	4.23933E-02,	2.43894E+01,	8.70206E+03,	-4.40256E+02,	0.00000E+00,	0,	0
  1.12208E+03,	1.00000E+01,	4.23933E-02,	2.54612E+01,	8.23600E+03,	-1.42903E+03,	0.00000E+00,	0,	0
  9.00000E+02,	1.00000E+01,	4.23933E-02,	3.04513E+01,	8.90596E+03,	-1.15576E+03,	0.00000E+00,	0,	0
  7.20000E+02,	1.00000E+01,	4.23933E-02,	3.18141E+01,	9.04321E+03,	-1.11311E+03,	0.00000E+00,	0,	0
  5.68421E+02,	1.00000E+01,	4.23933E-02,	3.31706E+01,	9.19239E+03,	-1.06751E+03,	0.00000E+00,	0,	0
  4.40816E+02,	1.00000E+01,	4.23933E-02,	3.61934E+01,	9.33633E+03,	-1.00404E+03,	0.00000E+00,	0,	0
  3.54098E+02,	1.00000E+01,	4.23933E-02,	3.85216E+01,	9.46530E+03,	-9.59883E+02,	0.00000E+00,	0,	0
  2.76923E+02,	1.00000E+01,	4.23933E-02,	4.11591E+01,	9.61125E+03,	-9.03072E+02,	0.00000E+00,	0,	0
  2.20408E+02,	1.00000E+01,	4.23933E-02,	4.40946E+01,	9.72291E+03,	-8.51180E+02,	0.00000E+00,	0,	0
  1.74194E+02,	1.00000E+01,	4.23933E-02,	4.73633E+01,	9.82600E+03,	-8.07051E+02,	0.00000E+00,	0,	0
  1.37580E+02,	1.00000E+01,	4.23933E-02,	5.10130E+01,	9.91338E+03,	-7.76065E+02,	0.00000E+00,	0,	0
  1.09091E+02,	1.00000E+01,	4.23933E-02,	5.50790E+01,	9.99561E+03,	-7.74695E+02,	0.00000E+00,	0,	0
  8.70968E+01,	1.00000E+01,	4.23933E-02,	6.31951E+01,	1.00559E+04,	-7.71663E+02,	0.00000E+00,	0,	0
  6.83544E+01,	1.00000E+01,	4.23933E-02,	6.82334E+01,	1.01817E+04,	-8.22585E+02,	0.00000E+00,	0,	0
  5.45455E+01,	1.00000E+01,	4.23933E-02,	7.36876E+01,	1.01259E+04,	-7.90273E+02,	0.00000E+00,	0,	0
  4.28571E+01,	1.00000E+01,	4.23933E-02,	7.72597E+01,	1.01961E+04,	-8.55397E+02,	0.00000E+00,	0,	0
  3.39623E+01,	1.00000E+01,	4.23933E-02,	8.10455E+01,	1.02326E+04,	-9.93200E+02,	0.00000E+00,	0,	0
  2.68657E+01,	1.00000E+01,	4.23933E-02,	8.48965E+01,	1.03601E+04,	-1.09156E+03,	0.00000E+00,	0,	0
  2.13439E+01,	1.00000E+01,	4.23933E-02,	8.86928E+01,	1.04715E+04,	-1.22048E+03,	0.00000E+00,	0,	0
  1.73077E+01,	1.00000E+01,	4.23933E-02,	9.23971E+01,	1.05773E+04,	-1.36353E+03,	0.00000E+00,	0,	0
  1.36364E+01,	1.00000E+01,	4.23933E-02,	9.74262E+01,	1.07063E+04,	-1.56277E+03,	0.00000E+00,	0,	0
  1.07143E+01,	1.00000E+01,	4.23933E-02,	1.00339E+02,	1.08534E+04,	-1.80367E+03,	0.00000E+00,	0,	0
  8.49057E+00,	1.00000E+01,	4.23933E-02,	1.04540E+02,	1.10153E+04,	-2.08615E+03,	0.00000E+00,	0,	0
  6.71642E+00,	1.00000E+01,	4.23933E-02,	1.07045E+02,	1.11910E+04,	-2.42996E+03,	0.00000E+00,	0,	0
  5.29412E+00,	1.00000E+01,	4.23933E-02,	1.09959E+02,	1.13919E+04,	-2.84034E+03,	0.00000E+00,	0,	0
  4.16667E+00,	1.00000E+01,	4.23933E-02,	1.13472E+02,	1.16249E+04,	-3.34229E+03,	0.00000E+00,	0,	0
  3.30882E+00,	1.00000E+01,	4.23933E-02,	1.17716E+02,	1.18777E+04,	-3.92034E+03,	0.00000E+00,	0,	0
  2.61628E+00,	1.00000E+01,	4.23933E-02,	1.21706E+02,	1.21607E+04,	-4.63637E+03,	0.00000E+00,	0,	0
  2.07373E+00,	1.00000E+01,	4.23933E-02,	1.26486E+02,	1.24839E+04,	-5.48669E+03,	0.00000E+00,	0,	0
  1.64234E+00,	1.00000E+01,	4.23933E-02,	1.32283E+02,	1.28446E+04,	-6.52624E+03,	0.00000E+00,	0,	0
  1.30058E+00,	1.00000E+01,	4.23933E-02,	1.36442E+02,	1.32373E+04,	-7.77711E+03,	0.00000E+00,	0,	0
  1.03211E+00,	1.00000E+01,	4.23933E-02,	1.40851E+02,	1.37539E+04,	-9.24995E+03,	0.00000E+00,	0,	0
  8.15217E-01,	1.00000E+01,	4.23933E-02,	1.47790E+02,	1.41942E+04,	-1.11673E+04,	0.00000E+00,	0,	0
  6.46552E-01,	1.00000E+01,	4.23933E-02,	1.52598E+02,	1.47612E+04,	-1.33904E+04,	0.00000E+00,	0,	0
  5.11364E-01,	1.00000E+01,	4.23933E-02,	1.57644E+02,	1.52822E+04,	-1.68339E+04,	0.00000E+00,	0,	0
  4.07609E-01,	1.00000E+01,	4.23933E-02,	1.63743E+02,	1.60416E+04,	-2.01811E+04,	0.00000E+00,	0,	0
  3.21429E-01,	1.00000E+01,	4.23933E-02,	1.70881E+02,	1.75474E+04,	-2.52460E+04,	0.00000E+00,	0,	0
  2.54525E-01,	1.00000E+01,	4.23933E-02,	1.79715E+02,	1.85845E+04,	-3.04765E+04,	0.00000E+00,	0,	0
  2.01613E-01,	1.00000E+01,	4.23933E-02,	1.90587E+02,	1.98256E+04,	-3.70863E+04,	0.00000E+00,	0,	0
  1.59574E-01,	1.00000E+01,	4.23933E-02,	2.04021E+02,	2.13230E+04,	-4.52282E+04,	0.00000E+00,	0,	0
  1.26689E-01,	1.00000E+01,	4.23933E-02,	2.20894E+02,	2.31067E+04,	-5.50835E+04,	0.00000E+00,	0,	0
  1.00446E-01,	1.00000E+01,	4.23933E-02,	2.41739E+02,	2.53268E+04,	-6.74885E+04,	0.00000E+00,	0,	0