Z60W Data File: Version 1.1
CorrTest for Windows: SN CS310H1805157  V5.2.1111.9  2.5H6.220118
Sweep Frequency: Control Voltage
  Date:4-29-2026   Time:13:28:13
  Begin Information:            Cell Information
      Surface Area:           1
      Density:                7.8
      Weight:                 28
  End Information:              Cell Information
  Freq (Hz)     Ampl(mV)       Bias(V)      Time(Sec)       Z'(Ohm.cm^2)    Z''(Ohm.cm^2)        GD       Err      Range
End Comments
  3.07200E+05,	1.00000E+01,	5.68723E-02,	3.15070E-02,	-2.02115E-01,	3.45860E+00,	0.00000E+00,	0,	0
  2.76480E+05,	1.00000E+01,	5.68723E-02,	1.61855E+00,	2.94932E-01,	2.80739E+00,	0.00000E+00,	0,	0
  1.97486E+05,	1.00000E+01,	5.68723E-02,	2.51306E+00,	1.03315E+00,	1.97077E+00,	0.00000E+00,	0,	0
  1.53600E+05,	1.00000E+01,	5.68723E-02,	3.41249E+00,	1.30748E+00,	1.47553E+00,	0.00000E+00,	0,	0
  1.25673E+05,	1.00000E+01,	5.68723E-02,	4.32062E+00,	1.45609E+00,	1.15288E+00,	0.00000E+00,	0,	0
  9.87429E+04,	1.00000E+01,	5.68723E-02,	5.20903E+00,	1.59206E+00,	8.54942E-01,	0.00000E+00,	0,	0
  7.68000E+04,	1.00000E+01,	5.68723E-02,	6.10907E+00,	1.67761E+00,	5.97504E-01,	0.00000E+00,	0,	0
  6.01043E+04,	1.00000E+01,	5.68723E-02,	9.31860E+00,	1.74555E+00,	3.21182E-01,	0.00000E+00,	0,	0
  4.93714E+04,	1.00000E+01,	5.68723E-02,	1.09032E+01,	1.77525E+00,	1.77751E-01,	0.00000E+00,	0,	0
  3.84000E+04,	1.00000E+01,	5.68723E-02,	1.18342E+01,	1.80157E+00,	4.68223E-03,	0.00000E+00,	0,	0
  3.00522E+04,	1.00000E+01,	5.68723E-02,	1.27256E+01,	1.83675E+00,	-1.63299E-01,	0.00000E+00,	0,	0
  2.38345E+04,	1.00000E+01,	5.68723E-02,	1.35734E+01,	1.87172E+00,	-3.15049E-01,	0.00000E+00,	0,	0
  1.86811E+04,	1.00000E+01,	5.68723E-02,	1.44233E+01,	1.91143E+00,	-4.84038E-01,	0.00000E+00,	0,	0
  1.47064E+04,	1.00000E+01,	5.68723E-02,	1.54202E+01,	1.96035E+00,	-6.62324E-01,	0.00000E+00,	0,	0
  1.15200E+04,	1.00000E+01,	5.68723E-02,	1.63991E+01,	2.02001E+00,	-8.66755E-01,	0.00000E+00,	0,	0
  9.60000E+03,	1.00000E+01,	5.68723E-02,	1.79732E+01,	2.07082E+00,	-1.03600E+00,	0.00000E+00,	0,	0
  7.51304E+03,	1.00000E+01,	5.68723E-02,	1.88366E+01,	2.14480E+00,	-1.29623E+00,	0.00000E+00,	0,	0
  5.76000E+03,	1.00000E+01,	5.68723E-02,	1.97429E+01,	2.24366E+00,	-1.63864E+00,	0.00000E+00,	0,	0
  4.54737E+03,	1.00000E+01,	5.68723E-02,	2.06157E+01,	2.34035E+00,	-2.00305E+00,	0.00000E+00,	0,	0
  3.60000E+03,	1.00000E+01,	5.68723E-02,	2.16059E+01,	2.45595E+00,	-2.44390E+00,	0.00000E+00,	0,	0
  2.88000E+03,	1.00000E+01,	5.68723E-02,	2.25066E+01,	2.57474E+00,	-2.94944E+00,	0.00000E+00,	0,	0
  2.27368E+03,	1.00000E+01,	5.68723E-02,	2.47806E+01,	2.71300E+00,	-3.57707E+00,	0.00000E+00,	0,	0
  1.78144E+03,	1.00000E+01,	5.68723E-02,	2.55781E+01,	2.90036E+00,	-4.40415E+00,	0.00000E+00,	0,	0
  1.41639E+03,	1.00000E+01,	5.68723E-02,	2.64680E+01,	3.09300E+00,	-5.35749E+00,	0.00000E+00,	0,	0
  1.12208E+03,	1.00000E+01,	5.68723E-02,	2.75102E+01,	3.34105E+00,	-6.54612E+00,	0.00000E+00,	0,	0
  9.00000E+02,	1.00000E+01,	5.68723E-02,	3.24907E+01,	3.63313E+00,	-7.94993E+00,	0.00000E+00,	0,	0
  7.20000E+02,	1.00000E+01,	5.68723E-02,	3.38550E+01,	3.96462E+00,	-9.65539E+00,	0.00000E+00,	0,	0
  5.68421E+02,	1.00000E+01,	5.68723E-02,	3.52184E+01,	4.39531E+00,	-1.18783E+01,	0.00000E+00,	0,	0
  4.40816E+02,	1.00000E+01,	5.68723E-02,	3.82376E+01,	4.98482E+00,	-1.49019E+01,	0.00000E+00,	0,	0
  3.54098E+02,	1.00000E+01,	5.68723E-02,	4.05693E+01,	5.60432E+00,	-1.80773E+01,	0.00000E+00,	0,	0
  2.76923E+02,	1.00000E+01,	5.68723E-02,	4.32128E+01,	6.48523E+00,	-2.24735E+01,	0.00000E+00,	0,	0
  2.20408E+02,	1.00000E+01,	5.68723E-02,	4.61357E+01,	7.51381E+00,	-2.75122E+01,	0.00000E+00,	0,	0
  1.74194E+02,	1.00000E+01,	5.68723E-02,	4.93902E+01,	8.87051E+00,	-3.38775E+01,	0.00000E+00,	0,	0
  1.37580E+02,	1.00000E+01,	5.68723E-02,	5.30524E+01,	1.06068E+01,	-4.17159E+01,	0.00000E+00,	0,	0
  1.09091E+02,	1.00000E+01,	5.68723E-02,	5.71288E+01,	1.27853E+01,	-5.11941E+01,	0.00000E+00,	0,	0
  8.70968E+01,	1.00000E+01,	5.68723E-02,	6.28126E+01,	1.54541E+01,	-6.24636E+01,	0.00000E+00,	0,	0
  6.83544E+01,	1.00000E+01,	5.68723E-02,	6.78391E+01,	1.91647E+01,	-7.76089E+01,	0.00000E+00,	0,	0
  5.45455E+01,	1.00000E+01,	5.68723E-02,	7.32836E+01,	2.40102E+01,	-9.29668E+01,	0.00000E+00,	0,	0
  4.28571E+01,	1.00000E+01,	5.68723E-02,	7.68309E+01,	3.02771E+01,	-1.14152E+02,	0.00000E+00,	0,	0
  3.39623E+01,	1.00000E+01,	5.68723E-02,	8.05831E+01,	3.71652E+01,	-1.38689E+02,	0.00000E+00,	0,	0
  2.68657E+01,	1.00000E+01,	5.68723E-02,	8.44219E+01,	4.74669E+01,	-1.69183E+02,	0.00000E+00,	0,	0
  2.13439E+01,	1.00000E+01,	5.68723E-02,	8.82253E+01,	6.02494E+01,	-2.04598E+02,	0.00000E+00,	0,	0
  1.73077E+01,	1.00000E+01,	5.68723E-02,	9.49033E+01,	7.48552E+01,	-2.43083E+02,	0.00000E+00,	0,	0
  1.36364E+01,	1.00000E+01,	5.68723E-02,	9.99582E+01,	9.52213E+01,	-2.93748E+02,	0.00000E+00,	0,	0
  1.07143E+01,	1.00000E+01,	5.68723E-02,	1.02885E+02,	1.20873E+02,	-3.54230E+02,	0.00000E+00,	0,	0
  8.49057E+00,	1.00000E+01,	5.68723E-02,	1.07071E+02,	1.50879E+02,	-4.22974E+02,	0.00000E+00,	0,	0
  6.71642E+00,	1.00000E+01,	5.68723E-02,	1.09596E+02,	1.87208E+02,	-5.03985E+02,	0.00000E+00,	0,	0
  5.29412E+00,	1.00000E+01,	5.68723E-02,	1.12548E+02,	2.30755E+02,	-6.00141E+02,	0.00000E+00,	0,	0
  4.16667E+00,	1.00000E+01,	5.68723E-02,	1.16053E+02,	2.81934E+02,	-7.14828E+02,	0.00000E+00,	0,	0
  3.30882E+00,	1.00000E+01,	5.68723E-02,	1.20309E+02,	3.38874E+02,	-8.45798E+02,	0.00000E+00,	0,	0
  2.61628E+00,	1.00000E+01,	5.68723E-02,	1.24314E+02,	4.05270E+02,	-1.00317E+03,	0.00000E+00,	0,	0
  2.07373E+00,	1.00000E+01,	5.68723E-02,	1.29094E+02,	4.79993E+02,	-1.18992E+03,	0.00000E+00,	0,	0
  1.64234E+00,	1.00000E+01,	5.68723E-02,	1.34874E+02,	5.64543E+02,	-1.41425E+03,	0.00000E+00,	0,	0
  1.30058E+00,	1.00000E+01,	5.68723E-02,	1.39091E+02,	6.59618E+02,	-1.68315E+03,	0.00000E+00,	0,	0
  1.03211E+00,	1.00000E+01,	5.68723E-02,	1.43483E+02,	7.66185E+02,	-2.00769E+03,	0.00000E+00,	0,	0
  8.15217E-01,	1.00000E+01,	5.68723E-02,	1.50477E+02,	8.83161E+02,	-2.40788E+03,	0.00000E+00,	0,	0
  6.46552E-01,	1.00000E+01,	5.68723E-02,	1.59562E+02,	1.01216E+03,	-2.89372E+03,	0.00000E+00,	0,	0
  5.11364E-01,	1.00000E+01,	5.68723E-02,	1.64624E+02,	1.12214E+03,	-3.50797E+03,	0.00000E+00,	0,	0
  4.07609E-01,	1.00000E+01,	5.68723E-02,	1.70726E+02,	1.27970E+03,	-4.23042E+03,	0.00000E+00,	0,	0
  3.21429E-01,	1.00000E+01,	5.68723E-02,	1.77848E+02,	1.46636E+03,	-5.23686E+03,	0.00000E+00,	0,	0
  2.54525E-01,	1.00000E+01,	5.68723E-02,	1.86601E+02,	1.68270E+03,	-6.37948E+03,	0.00000E+00,	0,	0
  2.01613E-01,	1.00000E+01,	5.68723E-02,	1.97447E+02,	1.92655E+03,	-7.80372E+03,	0.00000E+00,	0,	0
  1.59574E-01,	1.00000E+01,	5.68723E-02,	2.10910E+02,	2.21507E+03,	-9.57962E+03,	0.00000E+00,	0,	0
  1.26689E-01,	1.00000E+01,	5.68723E-02,	2.44791E+02,	2.59004E+03,	-1.16159E+04,	0.00000E+00,	0,	0
  1.00446E-01,	1.00000E+01,	5.68723E-02,	2.65654E+02,	2.93629E+03,	-1.45962E+04,	0.00000E+00,	0,	0