Z60W Data File: Version 1.1
CorrTest for Windows: SN CS310H1805157  V5.2.1111.9  2.5H6.220118
Sweep Frequency: Control Voltage
  Date:4-29-2026   Time:13:11:19
  Begin Information:            Cell Information
      Surface Area:           1
      Density:                7.8
      Weight:                 28
  End Information:              Cell Information
  Freq (Hz)     Ampl(mV)       Bias(V)      Time(Sec)       Z'(Ohm.cm^2)    Z''(Ohm.cm^2)        GD       Err      Range
End Comments
  3.07200E+05,	1.00000E+01,	5.84208E-02,	2.47219E-02,	-1.25500E+00,	2.90322E+00,	0.00000E+00,	0,	0
  2.76480E+05,	1.00000E+01,	5.84208E-02,	1.63057E+00,	-6.82740E-01,	2.30090E+00,	0.00000E+00,	0,	0
  1.97486E+05,	1.00000E+01,	5.84208E-02,	2.54902E+00,	4.64088E-02,	1.64350E+00,	0.00000E+00,	0,	0
  1.53600E+05,	1.00000E+01,	5.84208E-02,	3.48930E+00,	3.45932E-01,	1.22115E+00,	0.00000E+00,	0,	0
  1.25673E+05,	1.00000E+01,	5.84208E-02,	4.39095E+00,	4.95174E-01,	9.66242E-01,	0.00000E+00,	0,	0
  9.87429E+04,	1.00000E+01,	5.84208E-02,	5.28965E+00,	6.33631E-01,	7.15411E-01,	0.00000E+00,	0,	0
  7.68000E+04,	1.00000E+01,	5.84208E-02,	6.19244E+00,	7.12833E-01,	5.10236E-01,	0.00000E+00,	0,	0
  6.01043E+04,	1.00000E+01,	5.84208E-02,	9.40693E+00,	7.70116E-01,	2.89709E-01,	0.00000E+00,	0,	0
  4.93714E+04,	1.00000E+01,	5.84208E-02,	1.09867E+01,	7.94420E-01,	1.67314E-01,	0.00000E+00,	0,	0
  3.84000E+04,	1.00000E+01,	5.84208E-02,	1.18949E+01,	8.12607E-01,	3.00932E-02,	0.00000E+00,	0,	0
  3.00522E+04,	1.00000E+01,	5.84208E-02,	1.27874E+01,	8.34338E-01,	-1.01533E-01,	0.00000E+00,	0,	0
  2.38345E+04,	1.00000E+01,	5.84208E-02,	1.36624E+01,	8.56928E-01,	-2.27570E-01,	0.00000E+00,	0,	0
  1.86811E+04,	1.00000E+01,	5.84208E-02,	1.44918E+01,	8.82893E-01,	-3.65012E-01,	0.00000E+00,	0,	0
  1.47064E+04,	1.00000E+01,	5.84208E-02,	1.54520E+01,	9.11333E-01,	-5.13912E-01,	0.00000E+00,	0,	0
  1.15200E+04,	1.00000E+01,	5.84208E-02,	1.64278E+01,	9.46963E-01,	-6.84359E-01,	0.00000E+00,	0,	0
  9.60000E+03,	1.00000E+01,	5.84208E-02,	1.79867E+01,	9.78044E-01,	-8.30826E-01,	0.00000E+00,	0,	0
  7.51304E+03,	1.00000E+01,	5.84208E-02,	1.89073E+01,	1.02721E+00,	-1.05715E+00,	0.00000E+00,	0,	0
  5.76000E+03,	1.00000E+01,	5.84208E-02,	1.98518E+01,	1.09097E+00,	-1.35373E+00,	0.00000E+00,	0,	0
  4.54737E+03,	1.00000E+01,	5.84208E-02,	2.07275E+01,	1.15843E+00,	-1.67877E+00,	0.00000E+00,	0,	0
  3.60000E+03,	1.00000E+01,	5.84208E-02,	2.17142E+01,	1.24283E+00,	-2.06729E+00,	0.00000E+00,	0,	0
  2.88000E+03,	1.00000E+01,	5.84208E-02,	2.26652E+01,	1.33777E+00,	-2.51823E+00,	0.00000E+00,	0,	0
  2.27368E+03,	1.00000E+01,	5.84208E-02,	2.49334E+01,	1.44686E+00,	-3.07888E+00,	0.00000E+00,	0,	0
  1.78144E+03,	1.00000E+01,	5.84208E-02,	2.57311E+01,	1.59798E+00,	-3.81730E+00,	0.00000E+00,	0,	0
  1.41639E+03,	1.00000E+01,	5.84208E-02,	2.66303E+01,	1.76880E+00,	-4.66575E+00,	0.00000E+00,	0,	0
  1.12208E+03,	1.00000E+01,	5.84208E-02,	2.76970E+01,	2.00116E+00,	-5.72853E+00,	0.00000E+00,	0,	0
  9.00000E+02,	1.00000E+01,	5.84208E-02,	3.26984E+01,	2.26824E+00,	-6.97391E+00,	0.00000E+00,	0,	0
  7.20000E+02,	1.00000E+01,	5.84208E-02,	3.40745E+01,	2.60451E+00,	-8.47995E+00,	0.00000E+00,	0,	0
  5.68421E+02,	1.00000E+01,	5.84208E-02,	3.54475E+01,	3.05193E+00,	-1.04274E+01,	0.00000E+00,	0,	0
  4.40816E+02,	1.00000E+01,	5.84208E-02,	3.84824E+01,	3.68603E+00,	-1.30480E+01,	0.00000E+00,	0,	0
  3.54098E+02,	1.00000E+01,	5.84208E-02,	4.08420E+01,	4.37302E+00,	-1.57745E+01,	0.00000E+00,	0,	0
  2.76923E+02,	1.00000E+01,	5.84208E-02,	4.35284E+01,	5.36623E+00,	-1.94958E+01,	0.00000E+00,	0,	0
  2.20408E+02,	1.00000E+01,	5.84208E-02,	4.64485E+01,	6.53899E+00,	-2.36961E+01,	0.00000E+00,	0,	0
  1.74194E+02,	1.00000E+01,	5.84208E-02,	4.97301E+01,	8.08631E+00,	-2.89322E+01,	0.00000E+00,	0,	0
  1.37580E+02,	1.00000E+01,	5.84208E-02,	5.34310E+01,	1.00692E+01,	-3.52762E+01,	0.00000E+00,	0,	0
  1.09091E+02,	1.00000E+01,	5.84208E-02,	5.75113E+01,	1.25480E+01,	-4.27948E+01,	0.00000E+00,	0,	0
  8.70968E+01,	1.00000E+01,	5.84208E-02,	6.32534E+01,	1.55634E+01,	-5.15697E+01,	0.00000E+00,	0,	0
  6.83544E+01,	1.00000E+01,	5.84208E-02,	6.83003E+01,	1.97033E+01,	-6.31069E+01,	0.00000E+00,	0,	0
  5.45455E+01,	1.00000E+01,	5.84208E-02,	7.37606E+01,	2.47599E+01,	-7.43477E+01,	0.00000E+00,	0,	0
  4.28571E+01,	1.00000E+01,	5.84208E-02,	7.73149E+01,	3.11762E+01,	-8.95479E+01,	0.00000E+00,	0,	0
  3.39623E+01,	1.00000E+01,	5.84208E-02,	8.10296E+01,	3.79930E+01,	-1.06696E+02,	0.00000E+00,	0,	0
  2.68657E+01,	1.00000E+01,	5.84208E-02,	8.48953E+01,	4.72473E+01,	-1.27496E+02,	0.00000E+00,	0,	0
  2.13439E+01,	1.00000E+01,	5.84208E-02,	8.87045E+01,	5.78692E+01,	-1.51222E+02,	0.00000E+00,	0,	0
  1.73077E+01,	1.00000E+01,	5.84208E-02,	9.53921E+01,	6.91036E+01,	-1.76732E+02,	0.00000E+00,	0,	0
  1.36364E+01,	1.00000E+01,	5.84208E-02,	1.00432E+02,	8.35093E+01,	-2.10384E+02,	0.00000E+00,	0,	0
  1.07143E+01,	1.00000E+01,	5.84208E-02,	1.03342E+02,	1.00234E+02,	-2.50901E+02,	0.00000E+00,	0,	0
  8.49057E+00,	1.00000E+01,	5.84208E-02,	1.07538E+02,	1.18551E+02,	-2.97702E+02,	0.00000E+00,	0,	0
  6.71642E+00,	1.00000E+01,	5.84208E-02,	1.10093E+02,	1.39453E+02,	-3.54288E+02,	0.00000E+00,	0,	0
  5.29412E+00,	1.00000E+01,	5.84208E-02,	1.13028E+02,	1.63200E+02,	-4.23308E+02,	0.00000E+00,	0,	0
  4.16667E+00,	1.00000E+01,	5.84208E-02,	1.16491E+02,	1.89885E+02,	-5.08192E+02,	0.00000E+00,	0,	0
  3.30882E+00,	1.00000E+01,	5.84208E-02,	1.20730E+02,	2.18156E+02,	-6.07747E+02,	0.00000E+00,	0,	0
  2.61628E+00,	1.00000E+01,	5.84208E-02,	1.24756E+02,	2.50058E+02,	-7.31702E+02,	0.00000E+00,	0,	0
  2.07373E+00,	1.00000E+01,	5.84208E-02,	1.29548E+02,	2.84894E+02,	-8.83323E+02,	0.00000E+00,	0,	0
  1.64234E+00,	1.00000E+01,	5.84208E-02,	1.35334E+02,	3.24016E+02,	-1.07118E+03,	0.00000E+00,	0,	0
  1.30058E+00,	1.00000E+01,	5.84208E-02,	1.39517E+02,	3.68532E+02,	-1.30372E+03,	0.00000E+00,	0,	0
  1.03211E+00,	1.00000E+01,	5.84208E-02,	1.43908E+02,	4.18936E+02,	-1.59022E+03,	0.00000E+00,	0,	0
  8.15217E-01,	1.00000E+01,	5.84208E-02,	1.50887E+02,	4.77902E+02,	-1.95089E+03,	0.00000E+00,	0,	0
  6.46552E-01,	1.00000E+01,	5.84208E-02,	1.60021E+02,	5.33551E+02,	-2.39608E+03,	0.00000E+00,	0,	0
  5.11364E-01,	1.00000E+01,	5.84208E-02,	1.65042E+02,	6.08760E+02,	-2.97203E+03,	0.00000E+00,	0,	0
  4.07609E-01,	1.00000E+01,	5.84208E-02,	1.71091E+02,	7.03998E+02,	-3.64363E+03,	0.00000E+00,	0,	0
  3.21429E-01,	1.00000E+01,	5.84208E-02,	1.78225E+02,	8.13909E+02,	-4.55242E+03,	0.00000E+00,	0,	0
  2.54525E-01,	1.00000E+01,	5.84208E-02,	1.87002E+02,	9.56098E+02,	-5.62264E+03,	0.00000E+00,	0,	0
  2.01613E-01,	1.00000E+01,	5.84208E-02,	1.97848E+02,	1.12205E+03,	-6.94920E+03,	0.00000E+00,	0,	0
  1.59574E-01,	1.00000E+01,	5.84208E-02,	2.11309E+02,	1.32759E+03,	-8.60531E+03,	0.00000E+00,	0,	0
  1.26689E-01,	1.00000E+01,	5.84208E-02,	2.28223E+02,	1.56683E+03,	-1.06325E+04,	0.00000E+00,	0,	0
  1.00446E-01,	1.00000E+01,	5.84208E-02,	2.49103E+02,	1.85958E+03,	-1.31645E+04,	0.00000E+00,	0,	0