Z60W Data File: Version 1.1
CorrTest for Windows: SN CS310H1805157  V5.2.1111.9  2.5H6.220118
Sweep Frequency: Control Voltage
  Date:4-29-2026   Time:14:49:37
  Begin Information:            Cell Information
      Surface Area:           1
      Density:                7.8
      Weight:                 28
  End Information:              Cell Information
  Freq (Hz)     Ampl(mV)       Bias(V)      Time(Sec)       Z'(Ohm.cm^2)    Z''(Ohm.cm^2)        GD       Err      Range
End Comments
  3.07200E+05,	1.00000E+01,	4.31151E-02,	2.26378E-02,	3.81725E+02,	-1.02888E+02,	0.00000E+00,	0,	0
  2.76480E+05,	1.00000E+01,	4.31151E-02,	1.63941E+00,	3.89007E+02,	-1.04692E+02,	0.00000E+00,	0,	0
  1.97486E+05,	1.00000E+01,	4.31151E-02,	2.54802E+00,	4.17693E+02,	-1.15582E+02,	0.00000E+00,	0,	0
  1.53600E+05,	1.00000E+01,	4.31151E-02,	3.44344E+00,	4.44178E+02,	-1.14937E+02,	0.00000E+00,	0,	0
  1.25673E+05,	1.00000E+01,	4.31151E-02,	4.35038E+00,	4.61508E+02,	-1.11718E+02,	0.00000E+00,	0,	0
  9.87429E+04,	1.00000E+01,	4.31151E-02,	5.25599E+00,	4.86287E+02,	-1.08225E+02,	0.00000E+00,	0,	0
  7.68000E+04,	1.00000E+01,	4.31151E-02,	6.15857E+00,	5.05454E+02,	-1.00916E+02,	0.00000E+00,	0,	0
  6.01043E+04,	1.00000E+01,	4.31151E-02,	7.15270E+00,	5.24082E+02,	-8.98528E+01,	0.00000E+00,	0,	0
  4.93714E+04,	1.00000E+01,	4.31151E-02,	8.71360E+00,	5.34270E+02,	-8.35357E+01,	0.00000E+00,	0,	0
  3.84000E+04,	1.00000E+01,	4.31151E-02,	9.63787E+00,	5.44657E+02,	-6.87536E+01,	0.00000E+00,	0,	0
  3.00522E+04,	1.00000E+01,	4.31151E-02,	1.04956E+01,	5.73124E+02,	-6.18915E+01,	0.00000E+00,	0,	0
  2.38345E+04,	1.00000E+01,	4.31151E-02,	1.13557E+01,	5.62719E+02,	-5.48916E+01,	0.00000E+00,	0,	0
  1.86811E+04,	1.00000E+01,	4.31151E-02,	1.22117E+01,	5.66105E+02,	-3.84329E+01,	0.00000E+00,	0,	0
  1.47064E+04,	1.00000E+01,	4.31151E-02,	1.31859E+01,	5.74355E+02,	-3.99321E+01,	0.00000E+00,	0,	0
  1.15200E+04,	1.00000E+01,	4.31151E-02,	1.41681E+01,	5.79787E+02,	-3.53094E+01,	0.00000E+00,	0,	0
  9.60000E+03,	1.00000E+01,	4.31151E-02,	1.57720E+01,	5.81538E+02,	-3.36614E+01,	0.00000E+00,	0,	0
  7.51304E+03,	1.00000E+01,	4.31151E-02,	1.66337E+01,	5.84299E+02,	-3.23592E+01,	0.00000E+00,	0,	0
  5.76000E+03,	1.00000E+01,	4.31151E-02,	1.75213E+01,	5.86410E+02,	-3.07975E+01,	0.00000E+00,	0,	0
  4.54737E+03,	1.00000E+01,	4.31151E-02,	1.83786E+01,	5.92363E+02,	-2.45375E+01,	0.00000E+00,	0,	0
  3.60000E+03,	1.00000E+01,	4.31151E-02,	1.93666E+01,	5.94555E+02,	-2.81544E+01,	0.00000E+00,	0,	0
  2.88000E+03,	1.00000E+01,	4.31151E-02,	2.02779E+01,	5.98161E+02,	-3.09892E+01,	0.00000E+00,	0,	0
  2.27368E+03,	1.00000E+01,	4.31151E-02,	2.25552E+01,	6.02748E+02,	-3.30169E+01,	0.00000E+00,	0,	0
  1.78144E+03,	1.00000E+01,	4.31151E-02,	2.33421E+01,	6.06062E+02,	-3.61473E+01,	0.00000E+00,	0,	0
  1.41639E+03,	1.00000E+01,	4.31151E-02,	2.42724E+01,	6.05446E+02,	-4.16266E+01,	0.00000E+00,	0,	0
  1.12208E+03,	1.00000E+01,	4.31151E-02,	2.53032E+01,	6.11402E+02,	-4.26561E+01,	0.00000E+00,	0,	0
  9.00000E+02,	1.00000E+01,	4.31151E-02,	3.02745E+01,	6.24750E+02,	-4.73957E+01,	0.00000E+00,	0,	0
  7.20000E+02,	1.00000E+01,	4.31151E-02,	3.16338E+01,	6.30774E+02,	-5.29936E+01,	0.00000E+00,	0,	0
  5.68421E+02,	1.00000E+01,	4.31151E-02,	3.30070E+01,	6.37510E+02,	-5.93392E+01,	0.00000E+00,	0,	0
  4.40816E+02,	1.00000E+01,	4.31151E-02,	3.44609E+01,	6.44814E+02,	-6.78923E+01,	0.00000E+00,	0,	0
  3.54098E+02,	1.00000E+01,	4.31151E-02,	3.68002E+01,	6.52919E+02,	-7.69595E+01,	0.00000E+00,	0,	0
  2.76923E+02,	1.00000E+01,	4.31151E-02,	3.94367E+01,	6.62780E+02,	-8.86025E+01,	0.00000E+00,	0,	0
  2.20408E+02,	1.00000E+01,	4.31151E-02,	4.23683E+01,	6.73253E+02,	-1.01945E+02,	0.00000E+00,	0,	0
  1.74194E+02,	1.00000E+01,	4.31151E-02,	4.56220E+01,	6.85534E+02,	-1.18091E+02,	0.00000E+00,	0,	0
  1.37580E+02,	1.00000E+01,	4.31151E-02,	4.93135E+01,	6.98941E+02,	-1.37515E+02,	0.00000E+00,	0,	0
  1.09091E+02,	1.00000E+01,	4.31151E-02,	5.34101E+01,	7.14841E+02,	-1.60992E+02,	0.00000E+00,	0,	0
  8.70968E+01,	1.00000E+01,	4.31151E-02,	5.91017E+01,	7.33428E+02,	-1.87958E+02,	0.00000E+00,	0,	0
  6.83544E+01,	1.00000E+01,	4.31151E-02,	6.41474E+01,	7.57853E+02,	-2.24234E+02,	0.00000E+00,	0,	0
  5.45455E+01,	1.00000E+01,	4.31151E-02,	6.96004E+01,	7.71708E+02,	-2.53266E+02,	0.00000E+00,	0,	0
  4.28571E+01,	1.00000E+01,	4.31151E-02,	7.31213E+01,	7.94925E+02,	-2.99960E+02,	0.00000E+00,	0,	0
  3.39623E+01,	1.00000E+01,	4.31151E-02,	7.68492E+01,	8.15804E+02,	-3.57299E+02,	0.00000E+00,	0,	0
  2.68657E+01,	1.00000E+01,	4.31151E-02,	8.06890E+01,	8.48505E+02,	-4.23426E+02,	0.00000E+00,	0,	0
  2.13439E+01,	1.00000E+01,	4.31151E-02,	8.44888E+01,	8.81804E+02,	-5.01448E+02,	0.00000E+00,	0,	0
  1.73077E+01,	1.00000E+01,	4.31151E-02,	9.11779E+01,	9.16703E+02,	-5.86323E+02,	0.00000E+00,	0,	0
  1.36364E+01,	1.00000E+01,	4.31151E-02,	9.62361E+01,	9.59103E+02,	-7.03888E+02,	0.00000E+00,	0,	0
  1.07143E+01,	1.00000E+01,	4.31151E-02,	9.91674E+01,	1.00494E+03,	-8.48898E+02,	0.00000E+00,	0,	0
  8.49057E+00,	1.00000E+01,	4.31151E-02,	1.03375E+02,	1.05554E+03,	-1.02145E+03,	0.00000E+00,	0,	0
  6.71642E+00,	1.00000E+01,	4.31151E-02,	1.05884E+02,	1.11114E+03,	-1.23456E+03,	0.00000E+00,	0,	0
  5.29412E+00,	1.00000E+01,	4.31151E-02,	1.08881E+02,	1.17501E+03,	-1.50059E+03,	0.00000E+00,	0,	0
  4.16667E+00,	1.00000E+01,	4.31151E-02,	1.12370E+02,	1.25002E+03,	-1.83494E+03,	0.00000E+00,	0,	0
  3.30882E+00,	1.00000E+01,	4.31151E-02,	1.16596E+02,	1.33531E+03,	-2.23302E+03,	0.00000E+00,	0,	0
  2.61628E+00,	1.00000E+01,	4.31151E-02,	1.20573E+02,	1.43666E+03,	-2.73147E+03,	0.00000E+00,	0,	0
  2.07373E+00,	1.00000E+01,	4.31151E-02,	1.25323E+02,	1.55699E+03,	-3.34420E+03,	0.00000E+00,	0,	0
  1.64234E+00,	1.00000E+01,	4.31151E-02,	1.31100E+02,	1.70294E+03,	-4.10369E+03,	0.00000E+00,	0,	0
  1.30058E+00,	1.00000E+01,	4.31151E-02,	1.35265E+02,	1.88176E+03,	-5.04054E+03,	0.00000E+00,	0,	0
  1.03211E+00,	1.00000E+01,	4.31151E-02,	1.39667E+02,	2.09795E+03,	-6.18894E+03,	0.00000E+00,	0,	0
  8.15217E-01,	1.00000E+01,	4.31151E-02,	1.46600E+02,	2.37222E+03,	-7.63000E+03,	0.00000E+00,	0,	0
  6.46552E-01,	1.00000E+01,	4.31151E-02,	1.51406E+02,	2.71242E+03,	-9.37936E+03,	0.00000E+00,	0,	0
  5.11364E-01,	1.00000E+01,	4.31151E-02,	1.56398E+02,	3.07573E+03,	-1.15820E+04,	0.00000E+00,	0,	0
  4.07609E-01,	1.00000E+01,	4.31151E-02,	1.62476E+02,	3.59770E+03,	-1.41833E+04,	0.00000E+00,	0,	0
  3.21429E-01,	1.00000E+01,	4.31151E-02,	1.69607E+02,	4.29298E+03,	-1.76772E+04,	0.00000E+00,	0,	0
  2.54525E-01,	1.00000E+01,	4.31151E-02,	1.78414E+02,	5.20376E+03,	-2.17245E+04,	0.00000E+00,	0,	0
  2.01613E-01,	1.00000E+01,	4.31151E-02,	1.89240E+02,	6.34777E+03,	-2.67052E+04,	0.00000E+00,	0,	0
  1.59574E-01,	1.00000E+01,	4.31151E-02,	2.02725E+02,	7.84001E+03,	-3.28205E+04,	0.00000E+00,	0,	0
  1.26689E-01,	1.00000E+01,	4.31151E-02,	2.36614E+02,	9.79171E+03,	-3.99003E+04,	0.00000E+00,	0,	0
  1.00446E-01,	1.00000E+01,	4.31151E-02,	2.57493E+02,	1.20010E+04,	-4.96632E+04,	0.00000E+00,	0,	0