Z60W Data File: Version 1.1
CorrTest for Windows: SN CS310H1805157  V5.2.1111.9  2.5H6.220118
Sweep Frequency: Control Voltage
  Date:4-29-2026   Time:14:24:17
  Begin Information:            Cell Information
      Surface Area:           1
      Density:                7.8
      Weight:                 28
  End Information:              Cell Information
  Freq (Hz)     Ampl(mV)       Bias(V)      Time(Sec)       Z'(Ohm.cm^2)    Z''(Ohm.cm^2)        GD       Err      Range
End Comments
  3.07200E+05,	1.00000E+01,	4.53915E-02,	2.16814E-02,	8.27410E+01,	2.96878E+01,	0.00000E+00,	0,	0
  2.76480E+05,	1.00000E+01,	4.53915E-02,	1.63314E+00,	8.14533E+01,	2.64987E+01,	0.00000E+00,	0,	0
  1.97486E+05,	1.00000E+01,	4.53915E-02,	2.57431E+00,	7.91200E+01,	1.87787E+01,	0.00000E+00,	0,	0
  1.53600E+05,	1.00000E+01,	4.53915E-02,	3.48166E+00,	7.79958E+01,	1.43363E+01,	0.00000E+00,	0,	0
  1.25673E+05,	1.00000E+01,	4.53915E-02,	4.38509E+00,	7.76534E+01,	1.15782E+01,	0.00000E+00,	0,	0
  9.87429E+04,	1.00000E+01,	4.53915E-02,	5.28326E+00,	7.73896E+01,	8.73957E+00,	0.00000E+00,	0,	0
  7.68000E+04,	1.00000E+01,	4.53915E-02,	6.18304E+00,	7.73686E+01,	6.22042E+00,	0.00000E+00,	0,	0
  6.01043E+04,	1.00000E+01,	4.53915E-02,	7.17725E+00,	7.75334E+01,	4.36791E+00,	0.00000E+00,	0,	0
  4.93714E+04,	1.00000E+01,	4.53915E-02,	8.75743E+00,	7.77834E+01,	3.22078E+00,	0.00000E+00,	0,	0
  3.84000E+04,	1.00000E+01,	4.53915E-02,	9.65563E+00,	7.82582E+01,	2.08306E+00,	0.00000E+00,	0,	0
  3.00522E+04,	1.00000E+01,	4.53915E-02,	1.05221E+01,	7.81495E+01,	1.05407E+00,	0.00000E+00,	0,	0
  2.38345E+04,	1.00000E+01,	4.53915E-02,	1.14391E+01,	7.86410E+01,	7.48676E-02,	0.00000E+00,	0,	0
  1.86811E+04,	1.00000E+01,	4.53915E-02,	1.22746E+01,	7.86737E+01,	-8.28558E-01,	0.00000E+00,	0,	0
  1.47064E+04,	1.00000E+01,	4.53915E-02,	1.32419E+01,	7.91303E+01,	-1.68018E+00,	0.00000E+00,	0,	0
  1.15200E+04,	1.00000E+01,	4.53915E-02,	1.42095E+01,	7.95906E+01,	-2.53340E+00,	0.00000E+00,	0,	0
  9.60000E+03,	1.00000E+01,	4.53915E-02,	1.57728E+01,	8.02193E+01,	-3.07143E+00,	0.00000E+00,	0,	0
  7.51304E+03,	1.00000E+01,	4.53915E-02,	1.66489E+01,	8.06658E+01,	-4.06054E+00,	0.00000E+00,	0,	0
  5.76000E+03,	1.00000E+01,	4.53915E-02,	1.75754E+01,	8.11079E+01,	-5.15694E+00,	0.00000E+00,	0,	0
  4.54737E+03,	1.00000E+01,	4.53915E-02,	1.84418E+01,	8.16988E+01,	-6.21153E+00,	0.00000E+00,	0,	0
  3.60000E+03,	1.00000E+01,	4.53915E-02,	1.94478E+01,	8.26103E+01,	-7.20429E+00,	0.00000E+00,	0,	0
  2.88000E+03,	1.00000E+01,	4.53915E-02,	2.03439E+01,	8.36950E+01,	-8.76467E+00,	0.00000E+00,	0,	0
  2.27368E+03,	1.00000E+01,	4.53915E-02,	2.14829E+01,	8.45829E+01,	-1.02608E+01,	0.00000E+00,	0,	0
  1.78144E+03,	1.00000E+01,	4.53915E-02,	2.22747E+01,	8.54533E+01,	-1.22058E+01,	0.00000E+00,	0,	0
  1.41639E+03,	1.00000E+01,	4.53915E-02,	2.31666E+01,	8.64989E+01,	-1.41934E+01,	0.00000E+00,	0,	0
  1.12208E+03,	1.00000E+01,	4.53915E-02,	2.41990E+01,	8.79911E+01,	-1.65650E+01,	0.00000E+00,	0,	0
  9.00000E+02,	1.00000E+01,	4.53915E-02,	2.91819E+01,	9.02388E+01,	-1.94258E+01,	0.00000E+00,	0,	0
  7.20000E+02,	1.00000E+01,	4.53915E-02,	3.05501E+01,	9.19883E+01,	-2.27075E+01,	0.00000E+00,	0,	0
  5.68421E+02,	1.00000E+01,	4.53915E-02,	3.19302E+01,	9.40561E+01,	-2.67834E+01,	0.00000E+00,	0,	0
  4.40816E+02,	1.00000E+01,	4.53915E-02,	3.33860E+01,	9.66030E+01,	-3.20625E+01,	0.00000E+00,	0,	0
  3.54098E+02,	1.00000E+01,	4.53915E-02,	3.57302E+01,	9.92967E+01,	-3.75579E+01,	0.00000E+00,	0,	0
  2.76923E+02,	1.00000E+01,	4.53915E-02,	3.83981E+01,	1.02618E+02,	-4.48784E+01,	0.00000E+00,	0,	0
  2.20408E+02,	1.00000E+01,	4.53915E-02,	4.13616E+01,	1.06157E+02,	-5.30416E+01,	0.00000E+00,	0,	0
  1.74194E+02,	1.00000E+01,	4.53915E-02,	4.46172E+01,	1.10306E+02,	-6.31810E+01,	0.00000E+00,	0,	0
  1.37580E+02,	1.00000E+01,	4.53915E-02,	4.82787E+01,	1.15019E+02,	-7.55221E+01,	0.00000E+00,	0,	0
  1.09091E+02,	1.00000E+01,	4.53915E-02,	5.23380E+01,	1.20252E+02,	-9.03104E+01,	0.00000E+00,	0,	0
  8.70968E+01,	1.00000E+01,	4.53915E-02,	6.04644E+01,	1.26850E+02,	-1.08228E+02,	0.00000E+00,	0,	0
  6.83544E+01,	1.00000E+01,	4.53915E-02,	6.54854E+01,	1.34306E+02,	-1.32142E+02,	0.00000E+00,	0,	0
  5.45455E+01,	1.00000E+01,	4.53915E-02,	7.09296E+01,	1.41017E+02,	-1.55490E+02,	0.00000E+00,	0,	0
  4.28571E+01,	1.00000E+01,	4.53915E-02,	7.44931E+01,	1.49611E+02,	-1.89325E+02,	0.00000E+00,	0,	0
  3.39623E+01,	1.00000E+01,	4.53915E-02,	7.82658E+01,	1.57452E+02,	-2.29814E+02,	0.00000E+00,	0,	0
  2.68657E+01,	1.00000E+01,	4.53915E-02,	8.20975E+01,	1.69384E+02,	-2.80750E+02,	0.00000E+00,	0,	0
  2.13439E+01,	1.00000E+01,	4.53915E-02,	8.59040E+01,	1.82675E+02,	-3.41988E+02,	0.00000E+00,	0,	0
  1.73077E+01,	1.00000E+01,	4.53915E-02,	8.95753E+01,	1.96555E+02,	-4.10011E+02,	0.00000E+00,	0,	0
  1.36364E+01,	1.00000E+01,	4.53915E-02,	9.45881E+01,	2.15550E+02,	-5.04650E+02,	0.00000E+00,	0,	0
  1.07143E+01,	1.00000E+01,	4.53915E-02,	9.75072E+01,	2.38229E+02,	-6.23465E+02,	0.00000E+00,	0,	0
  8.49057E+00,	1.00000E+01,	4.53915E-02,	1.01695E+02,	2.65539E+02,	-7.65918E+02,	0.00000E+00,	0,	0
  6.71642E+00,	1.00000E+01,	4.53915E-02,	1.04211E+02,	2.98856E+02,	-9.43174E+02,	0.00000E+00,	0,	0
  5.29412E+00,	1.00000E+01,	4.53915E-02,	1.07143E+02,	3.41657E+02,	-1.16420E+03,	0.00000E+00,	0,	0
  4.16667E+00,	1.00000E+01,	4.53915E-02,	1.10609E+02,	3.96093E+02,	-1.44137E+03,	0.00000E+00,	0,	0
  3.30882E+00,	1.00000E+01,	4.53915E-02,	1.17165E+02,	4.63176E+02,	-1.76818E+03,	0.00000E+00,	0,	0
  2.61628E+00,	1.00000E+01,	4.53915E-02,	1.21194E+02,	5.50810E+02,	-2.17785E+03,	0.00000E+00,	0,	0
  2.07373E+00,	1.00000E+01,	4.53915E-02,	1.25966E+02,	6.61853E+02,	-2.67682E+03,	0.00000E+00,	0,	0
  1.64234E+00,	1.00000E+01,	4.53915E-02,	1.31756E+02,	8.04866E+02,	-3.28825E+03,	0.00000E+00,	0,	0
  1.30058E+00,	1.00000E+01,	4.53915E-02,	1.35981E+02,	9.91256E+02,	-4.03374E+03,	0.00000E+00,	0,	0
  1.03211E+00,	1.00000E+01,	4.53915E-02,	1.40390E+02,	1.22972E+03,	-4.93752E+03,	0.00000E+00,	0,	0
  8.15217E-01,	1.00000E+01,	4.53915E-02,	1.47357E+02,	1.54011E+03,	-6.04769E+03,	0.00000E+00,	0,	0
  6.46552E-01,	1.00000E+01,	4.53915E-02,	1.52175E+02,	1.93739E+03,	-7.37622E+03,	0.00000E+00,	0,	0
  5.11364E-01,	1.00000E+01,	4.53915E-02,	1.57190E+02,	2.38753E+03,	-9.00811E+03,	0.00000E+00,	0,	0
  4.07609E-01,	1.00000E+01,	4.53915E-02,	1.63236E+02,	3.01785E+03,	-1.08976E+04,	0.00000E+00,	0,	0
  3.21429E-01,	1.00000E+01,	4.53915E-02,	1.70380E+02,	3.86177E+03,	-1.33780E+04,	0.00000E+00,	0,	0
  2.54525E-01,	1.00000E+01,	4.53915E-02,	1.79155E+02,	4.94190E+03,	-1.61475E+04,	0.00000E+00,	0,	0
  2.01613E-01,	1.00000E+01,	4.53915E-02,	1.90017E+02,	6.27078E+03,	-1.94511E+04,	0.00000E+00,	0,	0
  1.59574E-01,	1.00000E+01,	4.53915E-02,	2.03487E+02,	7.92736E+03,	-2.33803E+04,	0.00000E+00,	0,	0
  1.26689E-01,	1.00000E+01,	4.53915E-02,	2.37376E+02,	9.95404E+03,	-2.77759E+04,	0.00000E+00,	0,	0
  1.00446E-01,	1.00000E+01,	4.53915E-02,	2.58234E+02,	1.22094E+04,	-3.40274E+04,	0.00000E+00,	0,	0