Z60W Data File: Version 1.1
CorrTest for Windows: SN CS310H1805157  V5.2.1111.9  2.5H6.220118
Sweep Frequency: Control Voltage
  Date:4-29-2026   Time:17:57:10
  Begin Information:            Cell Information
      Surface Area:           1
      Density:                7.8
      Weight:                 28
  End Information:              Cell Information
  Freq (Hz)     Ampl(mV)       Bias(V)      Time(Sec)       Z'(Ohm.cm^2)    Z''(Ohm.cm^2)        GD       Err      Range
End Comments
  3.07200E+05,	1.00000E+01,	3.66089E-02,	2.23624E-02,	4.84177E+02,	-4.24675E+02,	0.00000E+00,	0,	0
  2.76480E+05,	1.00000E+01,	3.66089E-02,	1.65230E+00,	5.03467E+02,	-4.62331E+02,	0.00000E+00,	0,	0
  1.97486E+05,	1.00000E+01,	3.66089E-02,	2.58917E+00,	5.74500E+02,	-6.07050E+02,	0.00000E+00,	0,	0
  1.53600E+05,	1.00000E+01,	3.66089E-02,	3.48340E+00,	6.66548E+02,	-7.16881E+02,	0.00000E+00,	0,	0
  1.25673E+05,	1.00000E+01,	3.66089E-02,	4.37304E+00,	7.55195E+02,	-8.41273E+02,	0.00000E+00,	0,	0
  9.87429E+04,	1.00000E+01,	3.66089E-02,	5.26619E+00,	9.09306E+02,	-9.49475E+02,	0.00000E+00,	0,	0
  7.68000E+04,	1.00000E+01,	3.66089E-02,	6.17276E+00,	1.10578E+03,	-1.08206E+03,	0.00000E+00,	0,	0
  6.01043E+04,	1.00000E+01,	3.66089E-02,	8.33497E+00,	1.32123E+03,	-1.15601E+03,	0.00000E+00,	0,	0
  4.93714E+04,	1.00000E+01,	3.66089E-02,	9.90142E+00,	1.51614E+03,	-1.20621E+03,	0.00000E+00,	0,	0
  3.84000E+04,	1.00000E+01,	3.66089E-02,	1.08097E+01,	1.79415E+03,	-1.24350E+03,	0.00000E+00,	0,	0
  3.00522E+04,	1.00000E+01,	3.66089E-02,	1.16896E+01,	2.39704E+03,	-9.92543E+02,	0.00000E+00,	0,	0
  2.38345E+04,	1.00000E+01,	3.66089E-02,	1.25583E+01,	2.29690E+03,	-1.13042E+03,	0.00000E+00,	0,	0
  1.86811E+04,	1.00000E+01,	3.66089E-02,	1.34039E+01,	2.40706E+03,	-1.25817E+03,	0.00000E+00,	0,	0
  1.47064E+04,	1.00000E+01,	3.66089E-02,	1.43637E+01,	2.65341E+03,	-9.38817E+02,	0.00000E+00,	0,	0
  1.15200E+04,	1.00000E+01,	3.66089E-02,	1.53606E+01,	2.83593E+03,	-8.17589E+02,	0.00000E+00,	0,	0
  9.60000E+03,	1.00000E+01,	3.66089E-02,	1.69357E+01,	2.93051E+03,	-7.21111E+02,	0.00000E+00,	0,	0
  7.51304E+03,	1.00000E+01,	3.66089E-02,	1.78177E+01,	2.98662E+03,	-6.13802E+02,	0.00000E+00,	0,	0
  5.76000E+03,	1.00000E+01,	3.66089E-02,	1.87091E+01,	3.06074E+03,	-5.31140E+02,	0.00000E+00,	0,	0
  4.54737E+03,	1.00000E+01,	3.66089E-02,	1.95809E+01,	3.12515E+03,	-4.47443E+02,	0.00000E+00,	0,	0
  3.60000E+03,	1.00000E+01,	3.66089E-02,	2.05783E+01,	3.12671E+03,	-3.92838E+02,	0.00000E+00,	0,	0
  2.88000E+03,	1.00000E+01,	3.66089E-02,	2.14677E+01,	3.15127E+03,	-3.93358E+02,	0.00000E+00,	0,	0
  2.27368E+03,	1.00000E+01,	3.66089E-02,	2.26300E+01,	3.19667E+03,	-3.08085E+02,	0.00000E+00,	0,	0
  1.78144E+03,	1.00000E+01,	3.66089E-02,	2.34271E+01,	3.25295E+03,	-3.50723E+02,	0.00000E+00,	0,	0
  1.41639E+03,	1.00000E+01,	3.66089E-02,	2.43484E+01,	3.24541E+03,	-3.52699E+02,	0.00000E+00,	0,	0
  1.12208E+03,	1.00000E+01,	3.66089E-02,	2.53924E+01,	3.24579E+03,	-2.77970E+02,	0.00000E+00,	0,	0
  9.00000E+02,	1.00000E+01,	3.66089E-02,	3.04099E+01,	3.31692E+03,	-2.72321E+02,	0.00000E+00,	0,	0
  7.20000E+02,	1.00000E+01,	3.66089E-02,	3.17742E+01,	3.34647E+03,	-2.63638E+02,	0.00000E+00,	0,	0
  5.68421E+02,	1.00000E+01,	3.66089E-02,	3.31289E+01,	3.37744E+03,	-2.61105E+02,	0.00000E+00,	0,	0
  4.40816E+02,	1.00000E+01,	3.66089E-02,	3.61815E+01,	3.40397E+03,	-2.51753E+02,	0.00000E+00,	0,	0
  3.54098E+02,	1.00000E+01,	3.66089E-02,	3.85356E+01,	3.42842E+03,	-2.50283E+02,	0.00000E+00,	0,	0
  2.76923E+02,	1.00000E+01,	3.66089E-02,	4.11725E+01,	3.45081E+03,	-2.52071E+02,	0.00000E+00,	0,	0
  2.20408E+02,	1.00000E+01,	3.66089E-02,	4.40938E+01,	3.47025E+03,	-2.59042E+02,	0.00000E+00,	0,	0
  1.74194E+02,	1.00000E+01,	3.66089E-02,	4.73480E+01,	3.49053E+03,	-2.73147E+02,	0.00000E+00,	0,	0
  1.37580E+02,	1.00000E+01,	3.66089E-02,	5.10133E+01,	3.50695E+03,	-2.93768E+02,	0.00000E+00,	0,	0
  1.09091E+02,	1.00000E+01,	3.66089E-02,	5.50666E+01,	3.52466E+03,	-3.22990E+02,	0.00000E+00,	0,	0
  8.70968E+01,	1.00000E+01,	3.66089E-02,	6.07619E+01,	3.54741E+03,	-3.61192E+02,	0.00000E+00,	0,	0
  6.83544E+01,	1.00000E+01,	3.66089E-02,	6.57675E+01,	3.59074E+03,	-4.16355E+02,	0.00000E+00,	0,	0
  5.45455E+01,	1.00000E+01,	3.66089E-02,	7.12439E+01,	3.57139E+03,	-4.37616E+02,	0.00000E+00,	0,	0
  4.28571E+01,	1.00000E+01,	3.66089E-02,	7.47696E+01,	3.60469E+03,	-5.02933E+02,	0.00000E+00,	0,	0
  3.39623E+01,	1.00000E+01,	3.66089E-02,	7.84878E+01,	3.62475E+03,	-5.94661E+02,	0.00000E+00,	0,	0
  2.68657E+01,	1.00000E+01,	3.66089E-02,	8.23118E+01,	3.68209E+03,	-6.80620E+02,	0.00000E+00,	0,	0
  2.13439E+01,	1.00000E+01,	3.66089E-02,	8.61302E+01,	3.73464E+03,	-7.83123E+02,	0.00000E+00,	0,	0
  1.73077E+01,	1.00000E+01,	3.66089E-02,	8.98015E+01,	3.78579E+03,	-8.95363E+02,	0.00000E+00,	0,	0
  1.36364E+01,	1.00000E+01,	3.66089E-02,	9.48345E+01,	3.84581E+03,	-1.04612E+03,	0.00000E+00,	0,	0
  1.07143E+01,	1.00000E+01,	3.66089E-02,	9.77379E+01,	3.92002E+03,	-1.23252E+03,	0.00000E+00,	0,	0
  8.49057E+00,	1.00000E+01,	3.66089E-02,	1.01937E+02,	3.99935E+03,	-1.44747E+03,	0.00000E+00,	0,	0
  6.71642E+00,	1.00000E+01,	3.66089E-02,	1.04492E+02,	4.09535E+03,	-1.71489E+03,	0.00000E+00,	0,	0
  5.29412E+00,	1.00000E+01,	3.66089E-02,	1.07447E+02,	4.20555E+03,	-2.04025E+03,	0.00000E+00,	0,	0
  4.16667E+00,	1.00000E+01,	3.66089E-02,	1.10925E+02,	4.33127E+03,	-2.44207E+03,	0.00000E+00,	0,	0
  3.30882E+00,	1.00000E+01,	3.66089E-02,	1.15199E+02,	4.46312E+03,	-2.91065E+03,	0.00000E+00,	0,	0
  2.61628E+00,	1.00000E+01,	3.66089E-02,	1.19159E+02,	4.61594E+03,	-3.49374E+03,	0.00000E+00,	0,	0
  2.07373E+00,	1.00000E+01,	3.66089E-02,	1.23947E+02,	4.78779E+03,	-4.19904E+03,	0.00000E+00,	0,	0
  1.64234E+00,	1.00000E+01,	3.66089E-02,	1.29739E+02,	4.98053E+03,	-5.06824E+03,	0.00000E+00,	0,	0
  1.30058E+00,	1.00000E+01,	3.66089E-02,	1.33912E+02,	5.20878E+03,	-6.13644E+03,	0.00000E+00,	0,	0
  1.03211E+00,	1.00000E+01,	3.66089E-02,	1.38337E+02,	5.48204E+03,	-7.44390E+03,	0.00000E+00,	0,	0
  8.15217E-01,	1.00000E+01,	3.66089E-02,	1.45313E+02,	5.77288E+03,	-9.08457E+03,	0.00000E+00,	0,	0
  6.46552E-01,	1.00000E+01,	3.66089E-02,	1.54401E+02,	6.11706E+03,	-1.10656E+04,	0.00000E+00,	0,	0
  5.11364E-01,	1.00000E+01,	3.66089E-02,	1.59406E+02,	6.43536E+03,	-1.36577E+04,	0.00000E+00,	0,	0
  4.07609E-01,	1.00000E+01,	3.66089E-02,	1.65479E+02,	6.96507E+03,	-1.66233E+04,	0.00000E+00,	0,	0
  3.21429E-01,	1.00000E+01,	3.66089E-02,	1.72658E+02,	7.71392E+03,	-2.08204E+04,	0.00000E+00,	0,	0
  2.54525E-01,	1.00000E+01,	3.66089E-02,	1.81420E+02,	8.53823E+03,	-2.54715E+04,	0.00000E+00,	0,	0
  2.01613E-01,	1.00000E+01,	3.66089E-02,	1.92298E+02,	9.54109E+03,	-3.12149E+04,	0.00000E+00,	0,	0
  1.59574E-01,	1.00000E+01,	3.66089E-02,	2.05764E+02,	1.08051E+04,	-3.83194E+04,	0.00000E+00,	0,	0
  1.26689E-01,	1.00000E+01,	3.66089E-02,	2.22669E+02,	1.23864E+04,	-4.68815E+04,	0.00000E+00,	0,	0
  1.00446E-01,	1.00000E+01,	3.66089E-02,	2.43539E+02,	1.43964E+04,	-5.74855E+04,	0.00000E+00,	0,	0