Z60W Data File: Version 1.1
CorrTest for Windows: SN CS310H1805157  V5.2.1111.9  2.5H6.220118
Sweep Frequency: Control Voltage
  Date:4-29-2026   Time:17:49:10
  Begin Information:            Cell Information
      Surface Area:           1
      Density:                7.8
      Weight:                 28
  End Information:              Cell Information
  Freq (Hz)     Ampl(mV)       Bias(V)      Time(Sec)       Z'(Ohm.cm^2)    Z''(Ohm.cm^2)        GD       Err      Range
End Comments
  3.07200E+05,	1.00000E+01,	3.69418E-02,	4.58208E-02,	4.85783E+02,	-4.21015E+02,	0.00000E+00,	0,	0
  2.76480E+05,	1.00000E+01,	3.69418E-02,	1.64828E+00,	5.01573E+02,	-4.58311E+02,	0.00000E+00,	0,	0
  1.97486E+05,	1.00000E+01,	3.69418E-02,	2.60529E+00,	5.77038E+02,	-5.96084E+02,	0.00000E+00,	0,	0
  1.53600E+05,	1.00000E+01,	3.69418E-02,	3.51539E+00,	6.71508E+02,	-7.09736E+02,	0.00000E+00,	0,	0
  1.25673E+05,	1.00000E+01,	3.69418E-02,	4.42644E+00,	7.53513E+02,	-7.99649E+02,	0.00000E+00,	0,	0
  9.87429E+04,	1.00000E+01,	3.69418E-02,	5.33513E+00,	9.06163E+02,	-9.27335E+02,	0.00000E+00,	0,	0
  7.68000E+04,	1.00000E+01,	3.69418E-02,	6.25038E+00,	1.09534E+03,	-1.04612E+03,	0.00000E+00,	0,	0
  6.01043E+04,	1.00000E+01,	3.69418E-02,	8.36284E+00,	1.30658E+03,	-1.13667E+03,	0.00000E+00,	0,	0
  4.93714E+04,	1.00000E+01,	3.69418E-02,	9.93297E+00,	1.52496E+03,	-1.19164E+03,	0.00000E+00,	0,	0
  3.84000E+04,	1.00000E+01,	3.69418E-02,	1.08253E+01,	1.78516E+03,	-1.20438E+03,	0.00000E+00,	0,	0
  3.00522E+04,	1.00000E+01,	3.69418E-02,	1.16925E+01,	1.95992E+03,	-9.21949E+02,	0.00000E+00,	0,	0
  2.38345E+04,	1.00000E+01,	3.69418E-02,	1.25667E+01,	2.27847E+03,	-1.11304E+03,	0.00000E+00,	0,	0
  1.86811E+04,	1.00000E+01,	3.69418E-02,	1.34138E+01,	2.61915E+03,	-1.05564E+03,	0.00000E+00,	0,	0
  1.47064E+04,	1.00000E+01,	3.69418E-02,	1.44201E+01,	2.64611E+03,	-8.91419E+02,	0.00000E+00,	0,	0
  1.15200E+04,	1.00000E+01,	3.69418E-02,	1.53668E+01,	2.78244E+03,	-7.91381E+02,	0.00000E+00,	0,	0
  9.60000E+03,	1.00000E+01,	3.69418E-02,	1.69283E+01,	2.87889E+03,	-7.28417E+02,	0.00000E+00,	0,	0
  7.51304E+03,	1.00000E+01,	3.69418E-02,	1.78105E+01,	2.97712E+03,	-6.22043E+02,	0.00000E+00,	0,	0
  5.76000E+03,	1.00000E+01,	3.69418E-02,	1.87078E+01,	3.06325E+03,	-5.00394E+02,	0.00000E+00,	0,	0
  4.54737E+03,	1.00000E+01,	3.69418E-02,	1.96078E+01,	3.07570E+03,	-4.42405E+02,	0.00000E+00,	0,	0
  3.60000E+03,	1.00000E+01,	3.69418E-02,	2.06082E+01,	3.10670E+03,	-3.83190E+02,	0.00000E+00,	0,	0
  2.88000E+03,	1.00000E+01,	3.69418E-02,	2.15078E+01,	3.13121E+03,	-3.14969E+02,	0.00000E+00,	0,	0
  2.27368E+03,	1.00000E+01,	3.69418E-02,	2.26331E+01,	3.17664E+03,	-3.09713E+02,	0.00000E+00,	0,	0
  1.78144E+03,	1.00000E+01,	3.69418E-02,	2.34534E+01,	3.24917E+03,	-2.93733E+02,	0.00000E+00,	0,	0
  1.41639E+03,	1.00000E+01,	3.69418E-02,	2.43722E+01,	3.17306E+03,	-3.87956E+02,	0.00000E+00,	0,	0
  1.12208E+03,	1.00000E+01,	3.69418E-02,	2.54028E+01,	3.35012E+03,	-3.06557E+02,	0.00000E+00,	0,	0
  9.00000E+02,	1.00000E+01,	3.69418E-02,	3.03967E+01,	3.32110E+03,	-2.71341E+02,	0.00000E+00,	0,	0
  7.20000E+02,	1.00000E+01,	3.69418E-02,	3.17623E+01,	3.35709E+03,	-2.66477E+02,	0.00000E+00,	0,	0
  5.68421E+02,	1.00000E+01,	3.69418E-02,	3.31355E+01,	3.39407E+03,	-2.58351E+02,	0.00000E+00,	0,	0
  4.40816E+02,	1.00000E+01,	3.69418E-02,	3.61575E+01,	3.43267E+03,	-2.56718E+02,	0.00000E+00,	0,	0
  3.54098E+02,	1.00000E+01,	3.69418E-02,	3.85270E+01,	3.46709E+03,	-2.54459E+02,	0.00000E+00,	0,	0
  2.76923E+02,	1.00000E+01,	3.69418E-02,	4.11744E+01,	3.50073E+03,	-2.57316E+02,	0.00000E+00,	0,	0
  2.20408E+02,	1.00000E+01,	3.69418E-02,	4.41315E+01,	3.53060E+03,	-2.63752E+02,	0.00000E+00,	0,	0
  1.74194E+02,	1.00000E+01,	3.69418E-02,	4.74243E+01,	3.56099E+03,	-2.77056E+02,	0.00000E+00,	0,	0
  1.37580E+02,	1.00000E+01,	3.69418E-02,	5.10769E+01,	3.59530E+03,	-3.00094E+02,	0.00000E+00,	0,	0
  1.09091E+02,	1.00000E+01,	3.69418E-02,	5.51372E+01,	3.63222E+03,	-3.30038E+02,	0.00000E+00,	0,	0
  8.70968E+01,	1.00000E+01,	3.69418E-02,	6.08565E+01,	3.67518E+03,	-3.69290E+02,	0.00000E+00,	0,	0
  6.83544E+01,	1.00000E+01,	3.69418E-02,	6.58874E+01,	3.73869E+03,	-4.27035E+02,	0.00000E+00,	0,	0
  5.45455E+01,	1.00000E+01,	3.69418E-02,	7.13335E+01,	3.74046E+03,	-4.48708E+02,	0.00000E+00,	0,	0
  4.28571E+01,	1.00000E+01,	3.69418E-02,	7.48600E+01,	3.78885E+03,	-5.14642E+02,	0.00000E+00,	0,	0
  3.39623E+01,	1.00000E+01,	3.69418E-02,	7.85931E+01,	3.82438E+03,	-6.09389E+02,	0.00000E+00,	0,	0
  2.68657E+01,	1.00000E+01,	3.69418E-02,	8.24705E+01,	3.89826E+03,	-6.97644E+02,	0.00000E+00,	0,	0
  2.13439E+01,	1.00000E+01,	3.69418E-02,	8.63002E+01,	3.96949E+03,	-8.02742E+02,	0.00000E+00,	0,	0
  1.73077E+01,	1.00000E+01,	3.69418E-02,	8.99709E+01,	4.03791E+03,	-9.16422E+02,	0.00000E+00,	0,	0
  1.36364E+01,	1.00000E+01,	3.69418E-02,	9.49951E+01,	4.12221E+03,	-1.07330E+03,	0.00000E+00,	0,	0
  1.07143E+01,	1.00000E+01,	3.69418E-02,	9.79100E+01,	4.21528E+03,	-1.26490E+03,	0.00000E+00,	0,	0
  8.49057E+00,	1.00000E+01,	3.69418E-02,	1.02110E+02,	4.31906E+03,	-1.48609E+03,	0.00000E+00,	0,	0
  6.71642E+00,	1.00000E+01,	3.69418E-02,	1.04624E+02,	4.42654E+03,	-1.75917E+03,	0.00000E+00,	0,	0
  5.29412E+00,	1.00000E+01,	3.69418E-02,	1.07574E+02,	4.55395E+03,	-2.09085E+03,	0.00000E+00,	0,	0
  4.16667E+00,	1.00000E+01,	3.69418E-02,	1.11040E+02,	4.70047E+03,	-2.50008E+03,	0.00000E+00,	0,	0
  3.30882E+00,	1.00000E+01,	3.69418E-02,	1.15286E+02,	4.85802E+03,	-2.98015E+03,	0.00000E+00,	0,	0
  2.61628E+00,	1.00000E+01,	3.69418E-02,	1.19278E+02,	5.03789E+03,	-3.57434E+03,	0.00000E+00,	0,	0
  2.07373E+00,	1.00000E+01,	3.69418E-02,	1.24106E+02,	5.24040E+03,	-4.29504E+03,	0.00000E+00,	0,	0
  1.64234E+00,	1.00000E+01,	3.69418E-02,	1.29883E+02,	5.47000E+03,	-5.18237E+03,	0.00000E+00,	0,	0
  1.30058E+00,	1.00000E+01,	3.69418E-02,	1.34055E+02,	5.72829E+03,	-6.27105E+03,	0.00000E+00,	0,	0
  1.03211E+00,	1.00000E+01,	3.69418E-02,	1.38459E+02,	6.03813E+03,	-7.60168E+03,	0.00000E+00,	0,	0
  8.15217E-01,	1.00000E+01,	3.69418E-02,	1.45396E+02,	6.37543E+03,	-9.27312E+03,	0.00000E+00,	0,	0
  6.46552E-01,	1.00000E+01,	3.69418E-02,	1.54474E+02,	6.77879E+03,	-1.12989E+04,	0.00000E+00,	0,	0
  5.11364E-01,	1.00000E+01,	3.69418E-02,	1.59527E+02,	7.12404E+03,	-1.39655E+04,	0.00000E+00,	0,	0
  4.07609E-01,	1.00000E+01,	3.69418E-02,	1.65570E+02,	7.69882E+03,	-1.69872E+04,	0.00000E+00,	0,	0
  3.21429E-01,	1.00000E+01,	3.69418E-02,	1.72719E+02,	8.52673E+03,	-2.13114E+04,	0.00000E+00,	0,	0
  2.54525E-01,	1.00000E+01,	3.69418E-02,	1.81493E+02,	9.41019E+03,	-2.60672E+04,	0.00000E+00,	0,	0
  2.01613E-01,	1.00000E+01,	3.69418E-02,	1.92358E+02,	1.04843E+04,	-3.19679E+04,	0.00000E+00,	0,	0
  1.59574E-01,	1.00000E+01,	3.69418E-02,	2.05842E+02,	1.18214E+04,	-3.92703E+04,	0.00000E+00,	0,	0
  1.26689E-01,	1.00000E+01,	3.69418E-02,	2.22759E+02,	1.34740E+04,	-4.81336E+04,	0.00000E+00,	0,	0
  1.00446E-01,	1.00000E+01,	3.69418E-02,	2.43663E+02,	1.55523E+04,	-5.91574E+04,	0.00000E+00,	0,	0