Z60W Data File: Version 1.1
CorrTest for Windows: SN CS310H1805157  V5.2.1111.9  2.5H6.220118
Sweep Frequency: Control Voltage
  Date:4-29-2026   Time:16:25:49
  Begin Information:            Cell Information
      Surface Area:           1
      Density:                7.8
      Weight:                 28
  End Information:              Cell Information
  Freq (Hz)     Ampl(mV)       Bias(V)      Time(Sec)       Z'(Ohm.cm^2)    Z''(Ohm.cm^2)        GD       Err      Range
End Comments
  3.07200E+05,	1.00000E+01,	3.93298E-02,	6.01686E-02,	4.92667E+02,	-4.72056E+02,	0.00000E+00,	0,	0
  2.76480E+05,	1.00000E+01,	3.93298E-02,	1.65658E+00,	5.00313E+02,	-5.06526E+02,	0.00000E+00,	0,	0
  1.97486E+05,	1.00000E+01,	3.93298E-02,	2.55388E+00,	5.78882E+02,	-6.72881E+02,	0.00000E+00,	0,	0
  1.53600E+05,	1.00000E+01,	3.93298E-02,	3.45228E+00,	6.52898E+02,	-8.14766E+02,	0.00000E+00,	0,	0
  1.25673E+05,	1.00000E+01,	3.93298E-02,	4.37508E+00,	7.41686E+02,	-9.41966E+02,	0.00000E+00,	0,	0
  9.87429E+04,	1.00000E+01,	3.93298E-02,	5.31829E+00,	8.95760E+02,	-1.10541E+03,	0.00000E+00,	0,	0
  7.68000E+04,	1.00000E+01,	3.93298E-02,	6.21061E+00,	1.09330E+03,	-1.29394E+03,	0.00000E+00,	0,	0
  6.01043E+04,	1.00000E+01,	3.93298E-02,	8.34206E+00,	1.33306E+03,	-1.43611E+03,	0.00000E+00,	0,	0
  4.93714E+04,	1.00000E+01,	3.93298E-02,	9.91391E+00,	1.58476E+03,	-1.54745E+03,	0.00000E+00,	0,	0
  3.84000E+04,	1.00000E+01,	3.93298E-02,	1.08268E+01,	1.92048E+03,	-1.67626E+03,	0.00000E+00,	0,	0
  3.00522E+04,	1.00000E+01,	3.93298E-02,	1.16839E+01,	2.50954E+03,	-2.40254E+03,	0.00000E+00,	0,	0
  2.38345E+04,	1.00000E+01,	3.93298E-02,	1.25424E+01,	2.67278E+03,	-1.69036E+03,	0.00000E+00,	0,	0
  1.86811E+04,	1.00000E+01,	3.93298E-02,	1.34008E+01,	3.32072E+03,	-1.13974E+03,	0.00000E+00,	0,	0
  1.47064E+04,	1.00000E+01,	3.93298E-02,	1.43567E+01,	3.31264E+03,	-1.51051E+03,	0.00000E+00,	0,	0
  1.15200E+04,	1.00000E+01,	3.93298E-02,	1.53343E+01,	3.57571E+03,	-1.31583E+03,	0.00000E+00,	0,	0
  9.60000E+03,	1.00000E+01,	3.93298E-02,	1.69383E+01,	3.71699E+03,	-1.22051E+03,	0.00000E+00,	0,	0
  7.51304E+03,	1.00000E+01,	3.93298E-02,	1.78333E+01,	3.89491E+03,	-1.07225E+03,	0.00000E+00,	0,	0
  5.76000E+03,	1.00000E+01,	3.93298E-02,	1.87733E+01,	4.02982E+03,	-8.89512E+02,	0.00000E+00,	0,	0
  4.54737E+03,	1.00000E+01,	3.93298E-02,	1.96447E+01,	4.16724E+03,	-7.57024E+02,	0.00000E+00,	0,	0
  3.60000E+03,	1.00000E+01,	3.93298E-02,	2.06696E+01,	4.21179E+03,	-6.78156E+02,	0.00000E+00,	0,	0
  2.88000E+03,	1.00000E+01,	3.93298E-02,	2.15760E+01,	4.16471E+03,	-6.01552E+02,	0.00000E+00,	0,	0
  2.27368E+03,	1.00000E+01,	3.93298E-02,	2.26982E+01,	4.32049E+03,	-6.35348E+02,	0.00000E+00,	0,	0
  1.78144E+03,	1.00000E+01,	3.93298E-02,	2.34819E+01,	4.37772E+03,	-6.04190E+02,	0.00000E+00,	0,	0
  1.41639E+03,	1.00000E+01,	3.93298E-02,	2.44105E+01,	4.35689E+03,	-5.05410E+02,	0.00000E+00,	0,	0
  1.12208E+03,	1.00000E+01,	3.93298E-02,	2.54598E+01,	4.45552E+03,	-7.46833E+02,	0.00000E+00,	0,	0
  9.00000E+02,	1.00000E+01,	3.93298E-02,	3.04627E+01,	4.50946E+03,	-4.19543E+02,	0.00000E+00,	0,	0
  7.20000E+02,	1.00000E+01,	3.93298E-02,	3.18343E+01,	4.56291E+03,	-4.09874E+02,	0.00000E+00,	0,	0
  5.68421E+02,	1.00000E+01,	3.93298E-02,	3.31965E+01,	4.61571E+03,	-3.93757E+02,	0.00000E+00,	0,	0
  4.40816E+02,	1.00000E+01,	3.93298E-02,	3.62233E+01,	4.67809E+03,	-3.83110E+02,	0.00000E+00,	0,	0
  3.54098E+02,	1.00000E+01,	3.93298E-02,	3.85796E+01,	4.72356E+03,	-3.72341E+02,	0.00000E+00,	0,	0
  2.76923E+02,	1.00000E+01,	3.93298E-02,	4.12093E+01,	4.77198E+03,	-3.62906E+02,	0.00000E+00,	0,	0
  2.20408E+02,	1.00000E+01,	3.93298E-02,	4.41266E+01,	4.81303E+03,	-3.62754E+02,	0.00000E+00,	0,	0
  1.74194E+02,	1.00000E+01,	3.93298E-02,	4.73792E+01,	4.85597E+03,	-3.69097E+02,	0.00000E+00,	0,	0
  1.37580E+02,	1.00000E+01,	3.93298E-02,	5.10796E+01,	4.89283E+03,	-3.83882E+02,	0.00000E+00,	0,	0
  1.09091E+02,	1.00000E+01,	3.93298E-02,	5.51584E+01,	4.93218E+03,	-4.15494E+02,	0.00000E+00,	0,	0
  8.70968E+01,	1.00000E+01,	3.93298E-02,	6.08525E+01,	4.98532E+03,	-4.52464E+02,	0.00000E+00,	0,	0
  6.83544E+01,	1.00000E+01,	3.93298E-02,	6.59037E+01,	5.06358E+03,	-5.12173E+02,	0.00000E+00,	0,	0
  5.45455E+01,	1.00000E+01,	3.93298E-02,	7.13753E+01,	5.05616E+03,	-5.24764E+02,	0.00000E+00,	0,	0
  4.28571E+01,	1.00000E+01,	3.93298E-02,	7.49020E+01,	5.11038E+03,	-5.96948E+02,	0.00000E+00,	0,	0
  3.39623E+01,	1.00000E+01,	3.93298E-02,	7.86098E+01,	5.15096E+03,	-7.04449E+02,	0.00000E+00,	0,	0
  2.68657E+01,	1.00000E+01,	3.93298E-02,	8.24657E+01,	5.24166E+03,	-8.00314E+02,	0.00000E+00,	0,	0
  2.13439E+01,	1.00000E+01,	3.93298E-02,	8.62817E+01,	5.32528E+03,	-9.11911E+02,	0.00000E+00,	0,	0
  1.73077E+01,	1.00000E+01,	3.93298E-02,	8.99626E+01,	5.40528E+03,	-1.03716E+03,	0.00000E+00,	0,	0
  1.36364E+01,	1.00000E+01,	3.93298E-02,	9.50129E+01,	5.50916E+03,	-1.20554E+03,	0.00000E+00,	0,	0
  1.07143E+01,	1.00000E+01,	3.93298E-02,	9.79241E+01,	5.62128E+03,	-1.41002E+03,	0.00000E+00,	0,	0
  8.49057E+00,	1.00000E+01,	3.93298E-02,	1.02136E+02,	5.74401E+03,	-1.64855E+03,	0.00000E+00,	0,	0
  6.71642E+00,	1.00000E+01,	3.93298E-02,	1.04649E+02,	5.87251E+03,	-1.93892E+03,	0.00000E+00,	0,	0
  5.29412E+00,	1.00000E+01,	3.93298E-02,	1.07588E+02,	6.02563E+03,	-2.29552E+03,	0.00000E+00,	0,	0
  4.16667E+00,	1.00000E+01,	3.93298E-02,	1.11081E+02,	6.20058E+03,	-2.72952E+03,	0.00000E+00,	0,	0
  3.30882E+00,	1.00000E+01,	3.93298E-02,	1.15332E+02,	6.38907E+03,	-3.23816E+03,	0.00000E+00,	0,	0
  2.61628E+00,	1.00000E+01,	3.93298E-02,	1.19315E+02,	6.60124E+03,	-3.86552E+03,	0.00000E+00,	0,	0
  2.07373E+00,	1.00000E+01,	3.93298E-02,	1.24149E+02,	6.84599E+03,	-4.62437E+03,	0.00000E+00,	0,	0
  1.64234E+00,	1.00000E+01,	3.93298E-02,	1.29996E+02,	7.11964E+03,	-5.55500E+03,	0.00000E+00,	0,	0
  1.30058E+00,	1.00000E+01,	3.93298E-02,	1.34172E+02,	7.42279E+03,	-6.68862E+03,	0.00000E+00,	0,	0
  1.03211E+00,	1.00000E+01,	3.93298E-02,	1.38581E+02,	7.79018E+03,	-8.06788E+03,	0.00000E+00,	0,	0
  8.15217E-01,	1.00000E+01,	3.93298E-02,	1.45518E+02,	8.16924E+03,	-9.80934E+03,	0.00000E+00,	0,	0
  6.46552E-01,	1.00000E+01,	3.93298E-02,	1.54609E+02,	8.63355E+03,	-1.19158E+04,	0.00000E+00,	0,	0
  5.11364E-01,	1.00000E+01,	3.93298E-02,	1.59659E+02,	9.00356E+03,	-1.47608E+04,	0.00000E+00,	0,	0
  4.07609E-01,	1.00000E+01,	3.93298E-02,	1.65714E+02,	9.63888E+03,	-1.78913E+04,	0.00000E+00,	0,	0
  3.21429E-01,	1.00000E+01,	3.93298E-02,	1.72851E+02,	1.06352E+04,	-2.24697E+04,	0.00000E+00,	0,	0
  2.54525E-01,	1.00000E+01,	3.93298E-02,	1.81649E+02,	1.15817E+04,	-2.74013E+04,	0.00000E+00,	0,	0
  2.01613E-01,	1.00000E+01,	3.93298E-02,	1.92483E+02,	1.27259E+04,	-3.35547E+04,	0.00000E+00,	0,	0
  1.59574E-01,	1.00000E+01,	3.93298E-02,	2.05963E+02,	1.41404E+04,	-4.11699E+04,	0.00000E+00,	0,	0
  1.26689E-01,	1.00000E+01,	3.93298E-02,	2.22863E+02,	1.58757E+04,	-5.04314E+04,	0.00000E+00,	0,	0
  1.00446E-01,	1.00000E+01,	3.93298E-02,	2.43722E+02,	1.80479E+04,	-6.19975E+04,	0.00000E+00,	0,	0