Z60W Data File: Version 1.1
CorrTest for Windows: SN CS310H1805157  V5.2.1111.9  2.5H6.220118
Sweep Frequency: Control Voltage
  Date:4-29-2026   Time:16:40:55
  Begin Information:            Cell Information
      Surface Area:           1
      Density:                7.8
      Weight:                 28
  End Information:              Cell Information
  Freq (Hz)     Ampl(mV)       Bias(V)      Time(Sec)       Z'(Ohm.cm^2)    Z''(Ohm.cm^2)        GD       Err      Range
End Comments
  3.07200E+05,	1.00000E+01,	3.91225E-02,	9.06610E-02,	4.78518E+02,	-5.32580E+02,	0.00000E+00,	0,	0
  2.76480E+05,	1.00000E+01,	3.91225E-02,	1.70895E+00,	4.94627E+02,	-5.75528E+02,	0.00000E+00,	0,	0
  1.97486E+05,	1.00000E+01,	3.91225E-02,	2.61235E+00,	5.58250E+02,	-7.72568E+02,	0.00000E+00,	0,	0
  1.53600E+05,	1.00000E+01,	3.91225E-02,	3.51430E+00,	6.23075E+02,	-9.49075E+02,	0.00000E+00,	0,	0
  1.25673E+05,	1.00000E+01,	3.91225E-02,	4.41641E+00,	6.91579E+02,	-1.13660E+03,	0.00000E+00,	0,	0
  9.87429E+04,	1.00000E+01,	3.91225E-02,	5.31510E+00,	8.26274E+02,	-1.37252E+03,	0.00000E+00,	0,	0
  7.68000E+04,	1.00000E+01,	3.91225E-02,	6.20200E+00,	1.01902E+03,	-1.65112E+03,	0.00000E+00,	0,	0
  6.01043E+04,	1.00000E+01,	3.91225E-02,	8.30153E+00,	1.27209E+03,	-1.94147E+03,	0.00000E+00,	0,	0
  4.93714E+04,	1.00000E+01,	3.91225E-02,	9.90660E+00,	1.53674E+03,	-2.19985E+03,	0.00000E+00,	0,	0
  3.84000E+04,	1.00000E+01,	3.91225E-02,	1.08456E+01,	1.92156E+03,	-2.56962E+03,	0.00000E+00,	0,	0
  3.00522E+04,	1.00000E+01,	3.91225E-02,	1.17213E+01,	3.44598E+03,	-2.99098E+03,	0.00000E+00,	0,	0
  2.38345E+04,	1.00000E+01,	3.91225E-02,	1.25798E+01,	3.06969E+03,	-3.05770E+03,	0.00000E+00,	0,	0
  1.86811E+04,	1.00000E+01,	3.91225E-02,	1.34271E+01,	3.87766E+03,	-4.22690E+03,	0.00000E+00,	0,	0
  1.47064E+04,	1.00000E+01,	3.91225E-02,	1.44284E+01,	4.38492E+03,	-3.14104E+03,	0.00000E+00,	0,	0
  1.15200E+04,	1.00000E+01,	3.91225E-02,	1.54311E+01,	5.10123E+03,	-3.14055E+03,	0.00000E+00,	0,	0
  9.60000E+03,	1.00000E+01,	3.91225E-02,	1.70137E+01,	5.53704E+03,	-2.88875E+03,	0.00000E+00,	0,	0
  7.51304E+03,	1.00000E+01,	3.91225E-02,	1.78972E+01,	6.08418E+03,	-2.65333E+03,	0.00000E+00,	0,	0
  5.76000E+03,	1.00000E+01,	3.91225E-02,	1.88383E+01,	6.55141E+03,	-2.46468E+03,	0.00000E+00,	0,	0
  4.54737E+03,	1.00000E+01,	3.91225E-02,	1.97331E+01,	6.82487E+03,	-1.89619E+03,	0.00000E+00,	0,	0
  3.60000E+03,	1.00000E+01,	3.91225E-02,	2.07660E+01,	7.20807E+03,	-1.75098E+03,	0.00000E+00,	0,	0
  2.88000E+03,	1.00000E+01,	3.91225E-02,	2.16860E+01,	7.05468E+03,	-1.64342E+03,	0.00000E+00,	0,	0
  2.27368E+03,	1.00000E+01,	3.91225E-02,	2.28201E+01,	7.64583E+03,	-1.20806E+03,	0.00000E+00,	0,	0
  1.78144E+03,	1.00000E+01,	3.91225E-02,	2.36252E+01,	8.01767E+03,	-1.68856E+03,	0.00000E+00,	0,	0
  1.41639E+03,	1.00000E+01,	3.91225E-02,	2.45313E+01,	7.87199E+03,	-1.20934E+03,	0.00000E+00,	0,	0
  1.12208E+03,	1.00000E+01,	3.91225E-02,	2.55843E+01,	7.75470E+03,	-9.41192E+02,	0.00000E+00,	0,	0
  9.00000E+02,	1.00000E+01,	3.91225E-02,	3.05616E+01,	8.05999E+03,	-1.00582E+03,	0.00000E+00,	0,	0
  7.20000E+02,	1.00000E+01,	3.91225E-02,	3.19405E+01,	8.20080E+03,	-9.66279E+02,	0.00000E+00,	0,	0
  5.68421E+02,	1.00000E+01,	3.91225E-02,	3.33322E+01,	8.34085E+03,	-9.34955E+02,	0.00000E+00,	0,	0
  4.40816E+02,	1.00000E+01,	3.91225E-02,	3.63614E+01,	8.49247E+03,	-8.79787E+02,	0.00000E+00,	0,	0
  3.54098E+02,	1.00000E+01,	3.91225E-02,	3.87001E+01,	8.62929E+03,	-8.45031E+02,	0.00000E+00,	0,	0
  2.76923E+02,	1.00000E+01,	3.91225E-02,	4.13277E+01,	8.76860E+03,	-8.00554E+02,	0.00000E+00,	0,	0
  2.20408E+02,	1.00000E+01,	3.91225E-02,	4.42706E+01,	8.89568E+03,	-7.57715E+02,	0.00000E+00,	0,	0
  1.74194E+02,	1.00000E+01,	3.91225E-02,	4.75272E+01,	9.00812E+03,	-7.25149E+02,	0.00000E+00,	0,	0
  1.37580E+02,	1.00000E+01,	3.91225E-02,	5.11912E+01,	9.12231E+03,	-7.05537E+02,	0.00000E+00,	0,	0
  1.09091E+02,	1.00000E+01,	3.91225E-02,	5.52522E+01,	9.22951E+03,	-7.04278E+02,	0.00000E+00,	0,	0
  8.70968E+01,	1.00000E+01,	3.91225E-02,	6.33952E+01,	9.36212E+03,	-7.17357E+02,	0.00000E+00,	0,	0
  6.83544E+01,	1.00000E+01,	3.91225E-02,	6.84196E+01,	9.52927E+03,	-7.74993E+02,	0.00000E+00,	0,	0
  5.45455E+01,	1.00000E+01,	3.91225E-02,	7.38858E+01,	9.52920E+03,	-7.48788E+02,	0.00000E+00,	0,	0
  4.28571E+01,	1.00000E+01,	3.91225E-02,	7.74101E+01,	9.63042E+03,	-8.20587E+02,	0.00000E+00,	0,	0
  3.39623E+01,	1.00000E+01,	3.91225E-02,	8.11347E+01,	9.69592E+03,	-9.59144E+02,	0.00000E+00,	0,	0
  2.68657E+01,	1.00000E+01,	3.91225E-02,	8.50295E+01,	9.85604E+03,	-1.05765E+03,	0.00000E+00,	0,	0
  2.13439E+01,	1.00000E+01,	3.91225E-02,	8.88574E+01,	1.00008E+04,	-1.18718E+03,	0.00000E+00,	0,	0
  1.73077E+01,	1.00000E+01,	3.91225E-02,	9.25293E+01,	1.01365E+04,	-1.32742E+03,	0.00000E+00,	0,	0
  1.36364E+01,	1.00000E+01,	3.91225E-02,	9.75813E+01,	1.03115E+04,	-1.52543E+03,	0.00000E+00,	0,	0
  1.07143E+01,	1.00000E+01,	3.91225E-02,	1.00496E+02,	1.04848E+04,	-1.77298E+03,	0.00000E+00,	0,	0
  8.49057E+00,	1.00000E+01,	3.91225E-02,	1.04686E+02,	1.06726E+04,	-2.04307E+03,	0.00000E+00,	0,	0
  6.71642E+00,	1.00000E+01,	3.91225E-02,	1.07208E+02,	1.08810E+04,	-2.38556E+03,	0.00000E+00,	0,	0
  5.29412E+00,	1.00000E+01,	3.91225E-02,	1.10122E+02,	1.11011E+04,	-2.79911E+03,	0.00000E+00,	0,	0
  4.16667E+00,	1.00000E+01,	3.91225E-02,	1.13590E+02,	1.13618E+04,	-3.29704E+03,	0.00000E+00,	0,	0
  3.30882E+00,	1.00000E+01,	3.91225E-02,	1.17836E+02,	1.16479E+04,	-3.87859E+03,	0.00000E+00,	0,	0
  2.61628E+00,	1.00000E+01,	3.91225E-02,	1.21804E+02,	1.19664E+04,	-4.59054E+03,	0.00000E+00,	0,	0
  2.07373E+00,	1.00000E+01,	3.91225E-02,	1.26576E+02,	1.23277E+04,	-5.44543E+03,	0.00000E+00,	0,	0
  1.64234E+00,	1.00000E+01,	3.91225E-02,	1.32384E+02,	1.27375E+04,	-6.48417E+03,	0.00000E+00,	0,	0
  1.30058E+00,	1.00000E+01,	3.91225E-02,	1.36541E+02,	1.31644E+04,	-7.73898E+03,	0.00000E+00,	0,	0
  1.03211E+00,	1.00000E+01,	3.91225E-02,	1.40986E+02,	1.37191E+04,	-9.21762E+03,	0.00000E+00,	0,	0
  8.15217E-01,	1.00000E+01,	3.91225E-02,	1.47937E+02,	1.42247E+04,	-1.11413E+04,	0.00000E+00,	0,	0
  6.46552E-01,	1.00000E+01,	3.91225E-02,	1.52749E+02,	1.48304E+04,	-1.33716E+04,	0.00000E+00,	0,	0
  5.11364E-01,	1.00000E+01,	3.91225E-02,	1.57760E+02,	1.54034E+04,	-1.68288E+04,	0.00000E+00,	0,	0
  4.07609E-01,	1.00000E+01,	3.91225E-02,	1.63840E+02,	1.62252E+04,	-2.01988E+04,	0.00000E+00,	0,	0
  3.21429E-01,	1.00000E+01,	3.91225E-02,	1.70999E+02,	1.78165E+04,	-2.52889E+04,	0.00000E+00,	0,	0
  2.54525E-01,	1.00000E+01,	3.91225E-02,	1.79772E+02,	1.89308E+04,	-3.05478E+04,	0.00000E+00,	0,	0
  2.01613E-01,	1.00000E+01,	3.91225E-02,	1.90678E+02,	2.02806E+04,	-3.71943E+04,	0.00000E+00,	0,	0
  1.59574E-01,	1.00000E+01,	3.91225E-02,	2.04140E+02,	2.19234E+04,	-4.54399E+04,	0.00000E+00,	0,	0
  1.26689E-01,	1.00000E+01,	3.91225E-02,	2.21037E+02,	2.38669E+04,	-5.54112E+04,	0.00000E+00,	0,	0
  1.00446E-01,	1.00000E+01,	3.91225E-02,	2.41915E+02,	2.62844E+04,	-6.79807E+04,	0.00000E+00,	0,	0