Z60W Data File: Version 1.1
CorrTest for Windows: SN CS310H1805157  V5.2.1111.9  2.5H6.220118
Sweep Frequency: Control Voltage
  Date:4-29-2026   Time:17:03:20
  Begin Information:            Cell Information
      Surface Area:           1
      Density:                7.8
      Weight:                 28
  End Information:              Cell Information
  Freq (Hz)     Ampl(mV)       Bias(V)      Time(Sec)       Z'(Ohm.cm^2)    Z''(Ohm.cm^2)        GD       Err      Range
End Comments
  3.07200E+05,	1.00000E+01,	3.87849E-02,	2.33937E-02,	4.71725E+02,	-6.10624E+02,	0.00000E+00,	0,	0
  2.76480E+05,	1.00000E+01,	3.87849E-02,	1.62417E+00,	4.84399E+02,	-6.64248E+02,	0.00000E+00,	0,	0
  1.97486E+05,	1.00000E+01,	3.87849E-02,	2.52853E+00,	5.29487E+02,	-8.90099E+02,	0.00000E+00,	0,	0
  1.53600E+05,	1.00000E+01,	3.87849E-02,	3.42108E+00,	5.60738E+02,	-1.12695E+03,	0.00000E+00,	0,	0
  1.25673E+05,	1.00000E+01,	3.87849E-02,	4.37304E+00,	6.31437E+02,	-1.38683E+03,	0.00000E+00,	0,	0
  9.87429E+04,	1.00000E+01,	3.87849E-02,	5.29302E+00,	7.12322E+02,	-1.67032E+03,	0.00000E+00,	0,	0
  7.68000E+04,	1.00000E+01,	3.87849E-02,	6.18953E+00,	8.57267E+02,	-2.07640E+03,	0.00000E+00,	0,	0
  6.01043E+04,	1.00000E+01,	3.87849E-02,	8.32283E+00,	1.03935E+03,	-2.55866E+03,	0.00000E+00,	0,	0
  4.93714E+04,	1.00000E+01,	3.87849E-02,	9.92194E+00,	1.20855E+03,	-3.01775E+03,	0.00000E+00,	0,	0
  3.84000E+04,	1.00000E+01,	3.87849E-02,	1.08190E+01,	1.52881E+03,	-3.76347E+03,	0.00000E+00,	0,	0
  3.00522E+04,	1.00000E+01,	3.87849E-02,	1.16837E+01,	5.53020E+02,	-4.68451E+03,	0.00000E+00,	0,	0
  2.38345E+04,	1.00000E+01,	3.87849E-02,	1.25749E+01,	2.73624E+03,	-5.35570E+03,	0.00000E+00,	0,	0
  1.86811E+04,	1.00000E+01,	3.87849E-02,	1.34148E+01,	6.24675E+03,	-5.20956E+03,	0.00000E+00,	0,	0
  1.47064E+04,	1.00000E+01,	3.87849E-02,	1.43629E+01,	4.84676E+03,	-6.99924E+03,	0.00000E+00,	0,	0
  1.15200E+04,	1.00000E+01,	3.87849E-02,	1.53299E+01,	6.25837E+03,	-8.15584E+03,	0.00000E+00,	0,	0
  9.60000E+03,	1.00000E+01,	3.87849E-02,	1.69215E+01,	7.24511E+03,	-8.39899E+03,	0.00000E+00,	0,	0
  7.51304E+03,	1.00000E+01,	3.87849E-02,	1.78029E+01,	9.30557E+03,	-9.39146E+03,	0.00000E+00,	0,	0
  5.76000E+03,	1.00000E+01,	3.87849E-02,	1.87329E+01,	1.11420E+04,	-9.53592E+03,	0.00000E+00,	0,	0
  4.54737E+03,	1.00000E+01,	3.87849E-02,	1.96316E+01,	1.35968E+04,	-8.81033E+03,	0.00000E+00,	0,	0
  3.60000E+03,	1.00000E+01,	3.87849E-02,	2.06522E+01,	1.49974E+04,	-8.29142E+03,	0.00000E+00,	0,	0
  2.88000E+03,	1.00000E+01,	3.87849E-02,	2.15452E+01,	1.74988E+04,	-8.87235E+03,	0.00000E+00,	0,	0
  2.27368E+03,	1.00000E+01,	3.87849E-02,	2.26892E+01,	1.77796E+04,	-5.83869E+03,	0.00000E+00,	0,	0
  1.78144E+03,	1.00000E+01,	3.87849E-02,	2.34755E+01,	1.76110E+04,	-6.76563E+03,	0.00000E+00,	0,	0
  1.41639E+03,	1.00000E+01,	3.87849E-02,	2.43744E+01,	1.81563E+04,	-7.61069E+03,	0.00000E+00,	0,	0
  1.12208E+03,	1.00000E+01,	3.87849E-02,	2.53941E+01,	2.50103E+04,	-2.10038E+03,	0.00000E+00,	0,	0
  9.00000E+02,	1.00000E+01,	3.87849E-02,	3.03788E+01,	2.10697E+04,	-5.05672E+03,	0.00000E+00,	0,	0
  7.20000E+02,	1.00000E+01,	3.87849E-02,	3.17473E+01,	2.14889E+04,	-5.16591E+03,	0.00000E+00,	0,	0
  5.68421E+02,	1.00000E+01,	3.87849E-02,	3.31088E+01,	2.22296E+04,	-4.31229E+03,	0.00000E+00,	0,	0
  4.40816E+02,	1.00000E+01,	3.87849E-02,	3.77194E+01,	2.27193E+04,	-3.86031E+03,	0.00000E+00,	0,	0
  3.54098E+02,	1.00000E+01,	3.87849E-02,	4.00762E+01,	2.32616E+04,	-3.70333E+03,	0.00000E+00,	0,	0
  2.76923E+02,	1.00000E+01,	3.87849E-02,	4.27028E+01,	2.38653E+04,	-3.50561E+03,	0.00000E+00,	0,	0
  2.20408E+02,	1.00000E+01,	3.87849E-02,	4.56388E+01,	2.43997E+04,	-3.28946E+03,	0.00000E+00,	0,	0
  1.74194E+02,	1.00000E+01,	3.87849E-02,	4.89146E+01,	2.49404E+04,	-3.03442E+03,	0.00000E+00,	0,	0
  1.37580E+02,	1.00000E+01,	3.87849E-02,	5.25812E+01,	2.53647E+04,	-2.77184E+03,	0.00000E+00,	0,	0
  1.09091E+02,	1.00000E+01,	3.87849E-02,	5.66430E+01,	2.57534E+04,	-2.53232E+03,	0.00000E+00,	0,	0
  8.70968E+01,	1.00000E+01,	3.87849E-02,	6.23286E+01,	2.60984E+04,	-2.35840E+03,	0.00000E+00,	0,	0
  6.83544E+01,	1.00000E+01,	3.87849E-02,	6.73508E+01,	2.65169E+04,	-2.22747E+03,	0.00000E+00,	0,	0
  5.45455E+01,	1.00000E+01,	3.87849E-02,	7.27906E+01,	2.64122E+04,	-1.92254E+03,	0.00000E+00,	0,	0
  4.28571E+01,	1.00000E+01,	3.87849E-02,	7.63625E+01,	2.65996E+04,	-1.81762E+03,	0.00000E+00,	0,	0
  3.39623E+01,	1.00000E+01,	3.87849E-02,	8.00887E+01,	2.66569E+04,	-1.94807E+03,	0.00000E+00,	0,	0
  2.68657E+01,	1.00000E+01,	3.87849E-02,	8.39310E+01,	2.69379E+04,	-1.96251E+03,	0.00000E+00,	0,	0
  2.13439E+01,	1.00000E+01,	3.87849E-02,	8.77326E+01,	2.71398E+04,	-2.03821E+03,	0.00000E+00,	0,	0
  1.73077E+01,	1.00000E+01,	3.87849E-02,	9.13994E+01,	2.73335E+04,	-2.16174E+03,	0.00000E+00,	0,	0
  1.36364E+01,	1.00000E+01,	3.87849E-02,	9.64267E+01,	2.75524E+04,	-2.38030E+03,	0.00000E+00,	0,	0
  1.07143E+01,	1.00000E+01,	3.87849E-02,	9.93290E+01,	2.77941E+04,	-2.65876E+03,	0.00000E+00,	0,	0
  8.49057E+00,	1.00000E+01,	3.87849E-02,	1.03540E+02,	2.80755E+04,	-2.98518E+03,	0.00000E+00,	0,	0
  6.71642E+00,	1.00000E+01,	3.87849E-02,	1.06046E+02,	2.83290E+04,	-3.43095E+03,	0.00000E+00,	0,	0
  5.29412E+00,	1.00000E+01,	3.87849E-02,	1.09003E+02,	2.86594E+04,	-3.94484E+03,	0.00000E+00,	0,	0
  4.16667E+00,	1.00000E+01,	3.87849E-02,	1.12511E+02,	2.90307E+04,	-4.57783E+03,	0.00000E+00,	0,	0
  3.30882E+00,	1.00000E+01,	3.87849E-02,	1.16739E+02,	2.94520E+04,	-5.30330E+03,	0.00000E+00,	0,	0
  2.61628E+00,	1.00000E+01,	3.87849E-02,	1.20713E+02,	2.98991E+04,	-6.19396E+03,	0.00000E+00,	0,	0
  2.07373E+00,	1.00000E+01,	3.87849E-02,	1.25482E+02,	3.04130E+04,	-7.24568E+03,	0.00000E+00,	0,	0
  1.64234E+00,	1.00000E+01,	3.87849E-02,	1.31281E+02,	3.10102E+04,	-8.51084E+03,	0.00000E+00,	0,	0
  1.30058E+00,	1.00000E+01,	3.87849E-02,	1.35493E+02,	3.15888E+04,	-1.00424E+04,	0.00000E+00,	0,	0
  1.03211E+00,	1.00000E+01,	3.87849E-02,	1.39892E+02,	3.24675E+04,	-1.16230E+04,	0.00000E+00,	0,	0
  8.15217E-01,	1.00000E+01,	3.87849E-02,	1.46834E+02,	3.29890E+04,	-1.40756E+04,	0.00000E+00,	0,	0
  6.46552E-01,	1.00000E+01,	3.87849E-02,	1.51661E+02,	3.39036E+04,	-1.66126E+04,	0.00000E+00,	0,	0
  5.11364E-01,	1.00000E+01,	3.87849E-02,	1.56671E+02,	3.52373E+04,	-2.14003E+04,	0.00000E+00,	0,	0
  4.07609E-01,	1.00000E+01,	3.87849E-02,	1.62734E+02,	3.64385E+04,	-2.51232E+04,	0.00000E+00,	0,	0
  3.21429E-01,	1.00000E+01,	3.87849E-02,	1.69880E+02,	3.93221E+04,	-3.05718E+04,	0.00000E+00,	0,	0
  2.54525E-01,	1.00000E+01,	3.87849E-02,	1.78649E+02,	4.06748E+04,	-3.62984E+04,	0.00000E+00,	0,	0
  2.01613E-01,	1.00000E+01,	3.87849E-02,	1.89526E+02,	4.24637E+04,	-4.37411E+04,	0.00000E+00,	0,	0
  1.59574E-01,	1.00000E+01,	3.87849E-02,	2.02980E+02,	4.44822E+04,	-5.29175E+04,	0.00000E+00,	0,	0
  1.26689E-01,	1.00000E+01,	3.87849E-02,	2.19895E+02,	4.67045E+04,	-6.39026E+04,	0.00000E+00,	0,	0
  1.00446E-01,	1.00000E+01,	3.87849E-02,	2.40776E+02,	4.94915E+04,	-7.78897E+04,	0.00000E+00,	0,	0