EXPLAIN
TAG	EISPOT
TITLE	LABEL	Potentiostatic EIS	Test Identifier
DATE	LABEL	8/6/2020	Date
TIME	LABEL	0:06:52	Time
NOTES	NOTES	1	Notes...
	
PSTAT	PSTAT	REF3000-16137	Potentiostat
VDC	POTEN	0.00000E+000	T	DC Voltage (V)
FREQINIT	QUANT	3.00000E+005	Initial Freq. (Hz)
FREQFINAL	QUANT	1.00000E+000	Final Freq. (Hz)
PTSPERDEC	QUANT	1.00000E+001	Points/decade
VAC	QUANT	5.00000E+001	AC Voltage (mV rms)
AREA	QUANT	1.00000E+000	Sample Area (cm^2)
SPEED	SELECTOR	2	Optimize for:
ZGUESS	QUANT	1.00000E+003	Estimated Z (ohms)
EOC	QUANT	0	Open Circuit (V)
SEQUENCER	TOGGLE	TRUE	Run as Sequence
PSTATMODEL	IQUANT	5	Pstat Model
PSTATSECTION	LABEL	REF3000-16137	Pstat Section
PSTATSERIALNO	LABEL	16137	Pstat Serial Number
CTRLMODE	IQUANT	1	Control Mode
IESTAB	IQUANT	0	I/E Stability
CASPEED	IQUANT	1	Control Amp Speed
CONVENTION	IQUANT	1	Current Convention
ICHRANGE	IQUANT	2	Ich Range
ICHRANGEMODE	TOGGLE	F	Ich Auto Range
ICHOFFSETENABLE	TOGGLE	T	Ich Offset Enable
ICHOFFSET	QUANT	0	Ich Offset (V)
ICHFILTER	IQUANT	3	Ich Filter
VCHRANGE	IQUANT	2	Vch Range
VCHRANGEMODE	TOGGLE	F	Vch Auto Range
VCHOFFSETENABLE	TOGGLE	T	Vch Offset Enable
VCHOFFSET	QUANT	0	Vch Offset (V)
VCHFILTER	IQUANT	3	Vch Filter
ACHRANGE	IQUANT	2	Ach Range
ACHOFFSETENABLE	TOGGLE	F	Ach Offset Enable
ACHOFFSET	QUANT	0	Ach Offset (V)
ACHFILTER	IQUANT	3	Ach Filter
IERANGELOWERLIMIT	IQUANT	2	I/E Range Lower Limit
IERANGEMODE	TOGGLE	F	I/E AutoRange
IERANGE	IQUANT	11	I/E Range
POSFEEDENABLE	TOGGLE	F	Positive Feedback IR Comp
POSFEEDRESISTANCE	QUANT	0	Positive Feedback Resistance (ohm)
ACHSELECT	IQUANT	0	Ach Select
CABLEID	IQUANT	13	Cable ID
DCCALDATE	LABEL	7/31/2020	DC Calibration Date
ACCALDATE	LABEL	7/31/2020	AC Calibration Date
THERMOSELECT	IQUANT	1	Thermo Select
FRAMEWORKVERSION	QUANT	6.33	Framework Version
INSTRUMENTVERSION	LABEL	3.50	Instrument Version
COMPLIANCEVOLTAGE	IQUANT	0	Compliance Voltage
ZCURVE	TABLE
	Pt	Time	Freq	Zreal	Zimag	Zsig	Zmod	Zphz	Idc	Vdc	IERange
	#	s	Hz	ohm	ohm	V	ohm	°	A	V	#
	0	7	300046.9	46.31438	1.211597	1	46.33023	1.498532	-7.65493E-006	0.0000977	9
	1	10	238359.4	46.95535	0.8258544	1	46.96261	1.007619	-5.992903E-005	0.0012061	9
	2	13	189328.1	47.51031	0.6801851	1	47.51518	0.8202235	6.620095E-005	-0.0021034	9
	3	16	150421.9	48.03116	0.383736	1	48.03269	0.4577442	-6.301117E-005	0.0021579	9
	4	19	119484.4	48.48656	0.2531305	1	48.48722	0.2991175	1.045698E-005	-0.0008893	9
	5	21	94921.88	49.0437	0.3111338	1	49.04469	0.3634802	4.784732E-006	-0.0004001	9
	6	24	75421.88	49.53586	0.1412088	1	49.53606	0.1633291	-1.389304E-005	0.0004892	9
	7	26	59859.37	50.01326	-0.0037877	1	50.01326	-0.0043392	2.072412E-005	-0.0002786	9
	8	29	47578.12	50.52385	-0.1588023	1	50.52409	-0.1800866	-1.26254E-005	0.0006684	9
	9	31	37828.12	51.06005	-0.3027031	1	51.06094	-0.3396669	-1.617761E-005	0.0006119	9
	10	34	30046.88	51.5937	-0.4354575	1	51.59554	-0.4835723	1.388635E-005	-0.0005053	9
	11	36	23859.38	52.13675	-0.6087424	1	52.1403	-0.6689482	-2.613789E-006	-0.0001343	9
	12	39	18984.38	52.63332	-0.7774803	1	52.63906	-0.8462908	-1.397255E-005	0.0006677	9
	13	41	15046.87	53.18307	-0.992547	1	53.19234	-1.069178	1.182316E-005	-0.0004935	9
	14	43	11953.13	53.7014	-1.215731	1	53.71516	-1.296882	1.747271E-005	-0.0005893	9
	15	45	9515.62	54.26724	-1.520368	1	54.28854	-1.604797	5.099503E-006	-0.0003477	9
	16	48	7546.875	54.85469	-1.888723	1	54.88719	-1.971994	-1.350281E-005	0.0001943	9
	17	50	5928.309	55.43613	-2.333528	1	55.48522	-2.410385	-1.686215E-005	0.0004773	9
	18	52	4733.456	56.08871	-2.875219	1	56.16235	-2.934527	-9.544067E-006	0.0006817	9
	19	55	3796.875	56.75808	-3.492893	1	56.86546	-3.521542	-1.301746E-005	0.000233	9
	20	57	2987.132	57.44797	-4.332693	1	57.61113	-4.313049	2.223663E-005	-0.0003995	9
	21	59	2390.625	58.18496	-5.244746	1	58.42086	-5.150676	2.117547E-005	-0.0005677	9
	22	62	1884.191	59.00233	-6.491534	1	59.35836	-6.278524	4.747269E-006	-0.0003397	9
	23	64	1516.544	59.8259	-7.799983	1	60.33223	-7.42821	2.261621E-005	-0.0004169	9
	24	66	1193.986	60.80642	-9.6471	1	61.56693	-9.014994	-1.766195E-005	0.0005994	9
	25	69	946.5144	61.84331	-11.84424	1	62.9673	-10.84201	2.133998E-005	-0.0002343	9
	26	71	751.7689	63.02258	-14.49432	1	64.66785	-12.95201	2.257892E-005	-0.0004161	9
	27	73	597.4265	64.32712	-17.74141	1	66.72882	-15.41885	1.757264E-005	-0.0005977	9
	28	76	477.4305	65.73578	-21.58061	1	69.18754	-18.17466	1.951996E-006	7.806277E-005	9
	29	78	376.6741	67.42371	-26.55032	1	72.46294	-21.49368	1.936633E-006	7.591919E-005	9
	30	80	298.2954	69.35632	-32.54732	1	76.61349	-25.13958	2.033062E-006	7.849699E-005	9
	31	83	237.7717	71.5829	-39.65965	1	81.8352	-28.98812	2.017458E-006	7.525361E-005	9
	32	85	189.0121	74.18851	-48.4222	1	88.59258	-33.13213	1.992669E-006	7.804266E-005	9
	33	87	150.2404	77.22858	-59.09575	1	97.2449	-37.42342	1.932031E-006	7.197773E-005	9
	34	90	119.1737	80.81491	-72.2315	1	108.3902	-41.79	1.919824E-006	7.362846E-005	9
	35	92	95.0169	84.93586	-87.88158	1	122.2181	-45.97653	2.02834E-006	7.457307E-005	9
	36	95	75.60484	89.81826	-107.1325	1	139.8024	-50.02405	1.938907E-006	7.824373E-005	9
	37	97	54.50582	97.8686	-142.1507	1	172.5836	-55.45319	1.98105E-006	7.573749E-005	9
	38	100	45.95588	103.219	-165.0075	1	194.632	-57.97232	1.945703E-006	8.297794E-005	9
	39	102	37.20238	110.4638	-198.4091	1	227.0868	-60.89324	2.005853E-006	6.920483E-005	9
	40	104	30.04808	118.949	-239.2753	1	267.2106	-63.56702	1.958787E-006	7.570865E-005	9
	41	107	23.91582	129.4377	-292.5517	1	319.9072	-66.13331	1.898149E-006	7.311883E-005	9
	42	109	18.60119	142.8445	-365.3694	1	392.3001	-68.64653	1.980072E-006	6.486856E-005	9
	43	112	15.02404	155.847	-440.0518	1	466.8339	-70.4981	3.235629E-007	0.0006556	8
	44	114	12.01923	172.5605	-537.2634	1	564.2952	-72.1938	2.564859E-007	0.000653	8
	45	116	9.450605	194.0416	-666.9869	1	694.6392	-73.77909	2.470404E-007	0.0006616	8
	46	119	7.512019	219.183	-820.7501	1	849.5128	-75.04797	2.416959E-007	0.0006501	8
	47	122	5.978954	248.6962	-1009.537	1	1039.719	-76.16093	2.354215E-007	0.000663	8
	48	125	4.734848	286.5654	-1249.474	1	1281.915	-77.08267	2.940413E-007	0.0006368	8
	49	128	3.75601	331.7832	-1544.695	1	1579.925	-77.87769	2.636943E-007	0.0006576	8
	50	131	3.004808	385.4289	-1895.069	1	1933.867	-78.50369	2.848732E-007	0.0006125	8
	51	135	2.372217	455.285	-2356.616	1	2400.193	-79.06549	2.779958E-007	0.000574	8
	52	139	1.878005	542.2438	-2923.155	1	2973.023	-79.49111	2.828189E-007	0.0006574	8
	53	144	1.512097	644.6875	-3567.743	1	3625.522	-79.75724	2.622138E-007	0.0005875	8
	54	149	1.201923	773.8047	-4437.941	1	4504.896	-80.10927	2.633347E-008	0.0006437	7
	55	156	0.956633	934.4073	-5493.635	1	5572.535	-80.34699	1.636003E-008	-1.315942E-005	7
