EXPLAIN
TAG	EISPOT
TITLE	LABEL	Potentiostatic EIS	Test Identifier
DATE	LABEL	8/6/2020	Date
TIME	LABEL	0:09:37	Time
NOTES	NOTES	1	Notes...
	
PSTAT	PSTAT	REF3000-16137	Potentiostat
VDC	POTEN	0.00000E+000	T	DC Voltage (V)
FREQINIT	QUANT	3.00000E+005	Initial Freq. (Hz)
FREQFINAL	QUANT	1.00000E+000	Final Freq. (Hz)
PTSPERDEC	QUANT	1.00000E+001	Points/decade
VAC	QUANT	5.00000E+001	AC Voltage (mV rms)
AREA	QUANT	1.00000E+000	Sample Area (cm^2)
SPEED	SELECTOR	2	Optimize for:
ZGUESS	QUANT	1.00000E+003	Estimated Z (ohms)
EOC	QUANT	0	Open Circuit (V)
SEQUENCER	TOGGLE	TRUE	Run as Sequence
PSTATMODEL	IQUANT	5	Pstat Model
PSTATSECTION	LABEL	REF3000-16137	Pstat Section
PSTATSERIALNO	LABEL	16137	Pstat Serial Number
CTRLMODE	IQUANT	1	Control Mode
IESTAB	IQUANT	0	I/E Stability
CASPEED	IQUANT	1	Control Amp Speed
CONVENTION	IQUANT	1	Current Convention
ICHRANGE	IQUANT	2	Ich Range
ICHRANGEMODE	TOGGLE	F	Ich Auto Range
ICHOFFSETENABLE	TOGGLE	T	Ich Offset Enable
ICHOFFSET	QUANT	0	Ich Offset (V)
ICHFILTER	IQUANT	3	Ich Filter
VCHRANGE	IQUANT	2	Vch Range
VCHRANGEMODE	TOGGLE	F	Vch Auto Range
VCHOFFSETENABLE	TOGGLE	T	Vch Offset Enable
VCHOFFSET	QUANT	0	Vch Offset (V)
VCHFILTER	IQUANT	3	Vch Filter
ACHRANGE	IQUANT	2	Ach Range
ACHOFFSETENABLE	TOGGLE	F	Ach Offset Enable
ACHOFFSET	QUANT	0	Ach Offset (V)
ACHFILTER	IQUANT	3	Ach Filter
IERANGELOWERLIMIT	IQUANT	2	I/E Range Lower Limit
IERANGEMODE	TOGGLE	F	I/E AutoRange
IERANGE	IQUANT	11	I/E Range
POSFEEDENABLE	TOGGLE	F	Positive Feedback IR Comp
POSFEEDRESISTANCE	QUANT	0	Positive Feedback Resistance (ohm)
ACHSELECT	IQUANT	0	Ach Select
CABLEID	IQUANT	13	Cable ID
DCCALDATE	LABEL	7/31/2020	DC Calibration Date
ACCALDATE	LABEL	7/31/2020	AC Calibration Date
THERMOSELECT	IQUANT	1	Thermo Select
FRAMEWORKVERSION	QUANT	6.33	Framework Version
INSTRUMENTVERSION	LABEL	3.50	Instrument Version
COMPLIANCEVOLTAGE	IQUANT	0	Compliance Voltage
ZCURVE	TABLE
	Pt	Time	Freq	Zreal	Zimag	Zsig	Zmod	Zphz	Idc	Vdc	IERange
	#	s	Hz	ohm	ohm	V	ohm	°	A	V	#
	0	7	300046.9	93.91166	-0.5320941	1	93.91317	-0.3246287	7.060722E-005	-0.0025851	9
	1	10	238359.4	95.56	-0.8685672	1	95.5639	-0.5207604	1.16265E-005	-0.0016244	9
	2	13	189328.1	96.9919	-0.9129884	1	96.9962	-0.5393112	-8.011277E-005	0.0028729	9
	3	16	150421.9	98.3216	-0.7954636	1	98.3248	-0.4635372	-6.61294E-005	0.0026454	9
	4	18	119484.4	99.6965	-0.7630264	1	99.6994	-0.4385042	-9.12713E-006	-0.0009484	9
	5	21	94921.88	100.9266	-0.4807819	1	100.9277	-0.2729366	1.375357E-005	-0.0006928	9
	6	23	75421.88	102.1892	-0.5743651	1	102.1908	-0.3220337	-1.517396E-005	0.0001595	9
	7	26	59859.37	103.4955	-0.7178857	1	103.498	-0.3974198	-1.308347E-005	0.0008208	9
	8	28	47578.12	104.8578	-0.7624466	1	104.8606	-0.4166043	2.058763E-005	-0.0001028	9
	9	31	37828.12	106.2188	-0.7747838	1	106.2216	-0.4179208	-1.703291E-005	0.0008904	9
	10	33	30046.88	107.6393	-0.8994293	1	107.6431	-0.4787499	-1.662853E-005	0.0008706	9
	11	36	23859.38	108.9865	-0.992504	1	108.991	-0.5217593	2.423991E-005	-0.0007121	9
	12	38	18984.38	110.3148	-1.116509	1	110.3205	-0.5798774	-5.31285E-006	0.0007558	9
	13	41	15046.87	111.7399	-1.275079	1	111.7472	-0.6537812	-8.153245E-006	-3.953258E-005	9
	14	43	11953.13	113.0745	-1.582908	1	113.0856	-0.8020199	-1.981878E-005	0.0005403	9
	15	45	9515.62	114.3515	-1.903984	1	114.3674	-0.953902	1.274256E-005	0.000136	9
	16	48	7546.875	115.6517	-2.321816	1	115.675	-1.150112	1.940249E-005	-0.0007072	9
	17	50	5928.309	117.3336	-2.77889	1	117.3665	-1.356721	2.042599E-005	-0.0007245	9
	18	52	4733.456	118.8151	-3.480122	1	118.866	-1.677727	1.312276E-005	0.0001741	9
	19	54	3796.875	120.2839	-4.161531	1	120.3559	-1.981505	2.602546E-005	-0.0004869	9
	20	57	2987.132	121.8931	-5.14509	1	122.0017	-2.417011	-1.790831E-005	0.0008749	9
	21	59	2390.625	123.7029	-6.187718	1	123.8576	-2.863594	-1.898627E-005	0.0009344	9
	22	61	1884.191	125.1953	-7.742461	1	125.4345	-3.538839	2.067449E-005	-9.301612E-005	9
	23	64	1516.544	127.2724	-9.362091	1	127.6162	-4.207071	-2.081222E-005	0.0008016	9
	24	66	1193.986	129.2797	-11.42783	1	129.7838	-5.051595	2.626408E-005	-0.0004618	9
	25	69	946.5144	131.4352	-14.05943	1	132.185	-6.105631	2.452926E-006	0.0005062	9
	26	71	751.7689	133.5872	-17.1465	1	134.6831	-7.314174	-6.064934E-006	0.0007701	9
	27	73	597.4265	135.9789	-21.13151	1	137.611	-8.833274	2.503882E-005	-0.0007167	9
	28	76	477.4305	138.5868	-25.6169	1	140.9345	-10.47256	1.706963E-006	8.594486E-005	9
	29	78	376.6741	141.4779	-31.54704	1	144.9525	-12.57029	1.809645E-006	7.683022E-005	9
	30	80	298.2954	144.6696	-38.72051	1	149.7617	-14.9839	1.881255E-006	7.592763E-005	9
	31	82	237.7717	148.2684	-47.26431	1	155.6195	-17.681	1.934209E-006	7.13474E-005	9
	32	85	189.0121	152.3221	-57.81847	1	162.9264	-20.78577	1.849225E-006	8.017143E-005	9
	33	87	150.2404	156.9448	-70.70503	1	172.1362	-24.252	1.865695E-006	7.478405E-005	9
	34	90	119.1737	162.2713	-86.60126	1	183.9341	-28.08803	1.814169E-006	8.094268E-005	9
	35	92	95.0169	168.3052	-105.5435	1	198.6607	-32.09166	1.865742E-006	7.373624E-005	9
	36	95	75.60484	175.4188	-128.835	1	217.647	-36.29514	1.808057E-006	7.134528E-005	9
	37	97	54.50582	186.6916	-171.1056	1	253.2407	-42.50572	1.827352E-006	7.551292E-005	9
	38	100	45.95588	194.6582	-198.6826	1	278.1485	-45.58619	1.886338E-006	7.498567E-005	9
	39	102	37.20238	205.1232	-238.7847	1	314.7915	-49.33644	1.826676E-006	8.076709E-005	9
	40	104	30.04808	217.3855	-287.6742	1	360.573	-52.92292	1.895606E-006	7.538279E-005	9
	41	107	23.91582	231.4403	-349.5977	1	419.265	-56.49469	1.516447E-007	0.000657	8
	42	109	18.60119	250.3997	-435.4412	1	502.3037	-60.09902	1.744478E-007	0.0006486	8
	43	111	15.02404	269.5344	-525.3073	1	590.4206	-62.83771	1.753856E-007	0.0006641	8
	44	114	12.01923	292.8383	-639.335	1	703.2095	-65.39053	1.181378E-007	0.0006526	8
	45	116	9.450605	322.2114	-791.0779	1	854.1806	-67.8386	9.343977E-008	0.0006624	8
	46	119	7.512019	355.4864	-970.291	1	1033.361	-69.87862	1.156718E-007	0.0006424	8
	47	121	5.978954	394.2125	-1190.272	1	1253.855	-71.67538	1.206486E-007	0.0006531	8
	48	124	4.734848	442.6147	-1469.254	1	1534.476	-73.235	1.214965E-007	0.0006443	8
	49	128	3.75601	498.7575	-1813.26	1	1880.604	-74.62049	1.055719E-007	0.0006546	8
	50	131	3.004808	564.2677	-2221.252	1	2291.803	-75.74657	1.316857E-007	0.0006255	8
	51	135	2.372217	647.6408	-2758.247	1	2833.261	-76.78622	1.22848E-007	0.0005813	8
	52	139	1.878005	750.2711	-3420.046	1	3501.374	-77.62677	1.261138E-007	0.0006629	8
	53	144	1.512097	870.6018	-4173.875	1	4263.705	-78.21797	1.033652E-007	0.0005838	8
	54	149	1.201923	1017.129	-5192.239	1	5290.926	-78.91645	6.914716E-009	0.0006555	7
	55	155	0.956633	1200.148	-6430.202	1	6541.242	-79.42782	-4.911078E-009	-8.816733E-006	7
