EXPLAIN
TAG	EISPOT
TITLE	LABEL	Potentiostatic EIS	Test Identifier
DATE	LABEL	8/5/2020	Date
TIME	LABEL	23:53:00	Time
NOTES	NOTES	1	Notes...
	
PSTAT	PSTAT	REF3000-16137	Potentiostat
VDC	POTEN	0.00000E+000	T	DC Voltage (V)
FREQINIT	QUANT	3.00000E+005	Initial Freq. (Hz)
FREQFINAL	QUANT	1.00000E+000	Final Freq. (Hz)
PTSPERDEC	QUANT	1.00000E+001	Points/decade
VAC	QUANT	5.00000E+001	AC Voltage (mV rms)
AREA	QUANT	1.00000E+000	Sample Area (cm^2)
SPEED	SELECTOR	2	Optimize for:
ZGUESS	QUANT	1.00000E+003	Estimated Z (ohms)
EOC	QUANT	0	Open Circuit (V)
SEQUENCER	TOGGLE	TRUE	Run as Sequence
PSTATMODEL	IQUANT	5	Pstat Model
PSTATSECTION	LABEL	REF3000-16137	Pstat Section
PSTATSERIALNO	LABEL	16137	Pstat Serial Number
CTRLMODE	IQUANT	1	Control Mode
IESTAB	IQUANT	0	I/E Stability
CASPEED	IQUANT	1	Control Amp Speed
CONVENTION	IQUANT	1	Current Convention
ICHRANGE	IQUANT	2	Ich Range
ICHRANGEMODE	TOGGLE	F	Ich Auto Range
ICHOFFSETENABLE	TOGGLE	T	Ich Offset Enable
ICHOFFSET	QUANT	0	Ich Offset (V)
ICHFILTER	IQUANT	3	Ich Filter
VCHRANGE	IQUANT	2	Vch Range
VCHRANGEMODE	TOGGLE	F	Vch Auto Range
VCHOFFSETENABLE	TOGGLE	T	Vch Offset Enable
VCHOFFSET	QUANT	0	Vch Offset (V)
VCHFILTER	IQUANT	3	Vch Filter
ACHRANGE	IQUANT	2	Ach Range
ACHOFFSETENABLE	TOGGLE	F	Ach Offset Enable
ACHOFFSET	QUANT	0	Ach Offset (V)
ACHFILTER	IQUANT	3	Ach Filter
IERANGELOWERLIMIT	IQUANT	2	I/E Range Lower Limit
IERANGEMODE	TOGGLE	F	I/E AutoRange
IERANGE	IQUANT	11	I/E Range
POSFEEDENABLE	TOGGLE	F	Positive Feedback IR Comp
POSFEEDRESISTANCE	QUANT	0	Positive Feedback Resistance (ohm)
ACHSELECT	IQUANT	0	Ach Select
CABLEID	IQUANT	13	Cable ID
DCCALDATE	LABEL	7/31/2020	DC Calibration Date
ACCALDATE	LABEL	7/31/2020	AC Calibration Date
THERMOSELECT	IQUANT	1	Thermo Select
FRAMEWORKVERSION	QUANT	6.33	Framework Version
INSTRUMENTVERSION	LABEL	3.50	Instrument Version
COMPLIANCEVOLTAGE	IQUANT	0	Compliance Voltage
ZCURVE	TABLE
	Pt	Time	Freq	Zreal	Zimag	Zsig	Zmod	Zphz	Idc	Vdc	IERange
	#	s	Hz	ohm	ohm	V	ohm	°	A	V	#
	0	8	300046.9	7.413234	1.172711	1	7.505417	8.989218	6.392324E-005	-7.767724E-005	10
	1	11	238359.4	7.440103	0.9329606	1	7.498369	7.147367	-5.661317E-005	0.0001328	10
	2	14	189328.1	7.461115	0.7218867	1	7.495956	5.526348	7.548577E-005	0.0001017	10
	3	17	150421.9	7.484269	0.5411655	1	7.503808	4.135692	9.990386E-006	0.0004125	10
	4	20	119484.4	7.50506	0.403979	1	7.515925	3.081118	7.392082E-005	0.0003625	10
	5	22	94921.88	7.534903	0.3062293	1	7.541123	2.327302	6.030243E-006	0.0005524	10
	6	25	75421.88	7.557941	0.190581	1	7.560344	1.444464	5.584975E-006	0.0005593	10
	7	27	59859.37	7.582018	0.0862505	1	7.582509	0.6517494	-2.951023E-005	0.0006203	10
	8	30	47578.12	7.61122	-0.0092913	1	7.611226	-0.0699433	2.028259E-005	0.000608	10
	9	32	37828.12	7.645083	-0.0997324	1	7.645734	-0.7473983	2.669688E-005	0.0006376	10
	10	35	30046.88	7.681162	-0.1895355	1	7.6835	-1.413507	-2.190577E-005	0.0007105	10
	11	37	23859.38	7.719577	-0.2857476	1	7.724864	-2.11989	1.319094E-005	0.0006219	10
	12	40	18984.38	7.760363	-0.3903237	1	7.770173	-2.879385	-2.405837E-005	0.0006635	10
	13	42	15046.87	7.806374	-0.511236	1	7.823096	-3.746925	-2.722999E-005	0.0007128	10
	14	44	11953.13	7.854435	-0.6506615	1	7.881339	-4.73557	-3.033988E-005	0.0006636	10
	15	47	9515.62	7.910552	-0.8126228	1	7.952181	-5.865217	-2.186947E-005	0.0007194	10
	16	49	7546.875	7.975713	-1.01071	1	8.039498	-7.222221	2.08114E-005	0.0006793	10
	17	51	5928.309	8.052907	-1.258897	1	8.150714	-8.885038	-2.552466E-005	0.000681	10
	18	54	4733.456	8.138047	-1.539433	1	8.282371	-10.71178	7.106295E-006	0.0006605	10
	19	56	3796.875	8.236046	-1.870729	1	8.445832	-12.79699	-1.753311E-005	0.0006539	10
	20	58	2987.132	8.362082	-2.305604	1	8.674112	-15.41466	-1.810419E-005	0.0006653	10
	21	61	2390.625	8.505175	-2.795515	1	8.952815	-18.19487	-2.362092E-005	0.0007154	10
	22	63	1884.191	8.679783	-3.433764	1	9.334311	-21.58399	-2.450526E-005	0.0006948	10
	23	65	1516.544	8.877657	-4.135702	1	9.79371	-24.9787	-1.321009E-005	0.000693	10
	24	67	1193.986	9.13138	-5.069358	1	10.44416	-29.03719	1.967121E-005	0.000628	10
	25	70	946.5144	9.425591	-6.178117	1	11.26991	-33.24332	-7.855941E-006	0.0006609	10
	26	72	751.7689	9.77385	-7.512392	1	12.32738	-37.54665	-1.389554E-005	0.0006876	10
	27	75	597.4265	10.18766	-9.126184	1	13.67756	-41.85423	2.543434E-005	0.0006493	10
	28	77	477.4305	10.66615	-11.04294	1	15.35295	-45.99435	-7.622801E-007	0.0006744	10
	29	79	376.6741	11.26673	-13.51171	1	17.59277	-50.17698	-5.071047E-007	0.0006688	10
	30	82	298.2954	11.97567	-16.49401	1	20.38306	-54.01803	-1.255335E-006	0.0006729	10
	31	84	237.7717	12.80245	-20.03206	1	23.77365	-57.41743	-7.309486E-007	0.0006678	10
	32	86	189.0121	13.81224	-24.41653	1	28.05254	-60.50351	-9.255294E-007	0.0006797	10
	33	89	150.2404	15.03467	-29.7699	1	33.35098	-63.20489	-1.104185E-006	0.0006684	10
	34	91	119.1737	16.5389	-36.39446	1	39.97614	-65.56132	-7.978274E-007	0.0006782	10
	35	94	95.0169	18.324	-44.24675	1	47.89096	-67.50399	2.824978E-006	7.237428E-005	9
	36	96	75.60484	20.56567	-53.97998	1	57.76492	-69.14381	2.71626E-006	7.389969E-005	9
	37	99	54.50582	24.72614	-71.71946	1	75.86213	-70.97775	2.738214E-006	6.416554E-005	9
	38	101	45.95588	27.48814	-83.27151	1	87.69117	-71.73181	2.889532E-006	7.608755E-005	9
	39	103	37.20238	31.6201	-100.102	1	104.9773	-72.46977	2.726107E-006	8.127494E-005	9
	40	106	30.04808	36.79782	-120.5275	1	126.0196	-73.02222	2.651636E-006	8.122278E-005	9
	41	108	23.91582	43.73011	-146.9669	1	153.3349	-73.4296	2.789305E-006	7.24467E-005	9
	42	111	18.60119	53.63465	-182.8484	1	190.5524	-73.65208	2.894453E-006	7.432186E-005	9
	43	113	15.02404	64.50022	-219.9149	1	229.1786	-73.65379	3.049649E-006	8.473811E-005	9
	44	115	12.01923	79.15068	-266.3758	1	277.8865	-73.45126	2.645644E-006	7.137893E-005	9
	45	118	9.450605	99.9861	-327.2218	1	342.1569	-73.0089	2.963078E-006	7.803302E-005	9
	46	120	7.512019	126.1053	-397.4357	1	416.9624	-72.39591	2.928443E-006	0.0000955	9
	47	123	5.978954	160.1189	-478.5531	1	504.6297	-71.5003	1.220234E-006	0.0006605	8
	48	126	4.734848	207.5798	-579.7765	1	615.8167	-70.3009	1.322574E-006	0.0006463	8
	49	129	3.75601	269.7101	-698.3949	1	748.6648	-68.88416	1.242608E-006	0.0006513	8
	50	133	3.004808	349.7333	-830.0002	1	900.6741	-67.15113	1.318572E-006	0.0006198	8
	51	136	2.372217	460.8461	-990.075	1	1092.075	-65.03963	1.286676E-006	0.0006017	8
	52	141	1.878005	608.3071	-1163.455	1	1312.884	-62.39739	1.293558E-006	0.000666	8
	53	145	1.512097	780.114	-1340.727	1	1551.17	-59.80663	1.252103E-006	0.0005705	8
	54	151	1.201923	1009.714	-1544.12	1	1844.947	-56.81895	1.292935E-006	0.0006788	8
	55	157	0.956633	1290.696	-1745.626	1	2170.969	-53.5212	1.154885E-006	1.217148E-005	8
