EXPLAIN
TAG	EISPOT
TITLE	LABEL	Potentiostatic EIS	Test Identifier
DATE	LABEL	8/6/2020	Date
TIME	LABEL	0:15:25	Time
NOTES	NOTES	1	Notes...
	
PSTAT	PSTAT	REF3000-16137	Potentiostat
VDC	POTEN	0.00000E+000	T	DC Voltage (V)
FREQINIT	QUANT	3.00000E+005	Initial Freq. (Hz)
FREQFINAL	QUANT	1.00000E+000	Final Freq. (Hz)
PTSPERDEC	QUANT	1.00000E+001	Points/decade
VAC	QUANT	5.00000E+001	AC Voltage (mV rms)
AREA	QUANT	1.00000E+000	Sample Area (cm^2)
SPEED	SELECTOR	2	Optimize for:
ZGUESS	QUANT	1.00000E+003	Estimated Z (ohms)
EOC	QUANT	0	Open Circuit (V)
SEQUENCER	TOGGLE	TRUE	Run as Sequence
PSTATMODEL	IQUANT	5	Pstat Model
PSTATSECTION	LABEL	REF3000-16137	Pstat Section
PSTATSERIALNO	LABEL	16137	Pstat Serial Number
CTRLMODE	IQUANT	1	Control Mode
IESTAB	IQUANT	0	I/E Stability
CASPEED	IQUANT	1	Control Amp Speed
CONVENTION	IQUANT	1	Current Convention
ICHRANGE	IQUANT	2	Ich Range
ICHRANGEMODE	TOGGLE	F	Ich Auto Range
ICHOFFSETENABLE	TOGGLE	T	Ich Offset Enable
ICHOFFSET	QUANT	0	Ich Offset (V)
ICHFILTER	IQUANT	3	Ich Filter
VCHRANGE	IQUANT	2	Vch Range
VCHRANGEMODE	TOGGLE	F	Vch Auto Range
VCHOFFSETENABLE	TOGGLE	T	Vch Offset Enable
VCHOFFSET	QUANT	0	Vch Offset (V)
VCHFILTER	IQUANT	3	Vch Filter
ACHRANGE	IQUANT	2	Ach Range
ACHOFFSETENABLE	TOGGLE	F	Ach Offset Enable
ACHOFFSET	QUANT	0	Ach Offset (V)
ACHFILTER	IQUANT	3	Ach Filter
IERANGELOWERLIMIT	IQUANT	2	I/E Range Lower Limit
IERANGEMODE	TOGGLE	F	I/E AutoRange
IERANGE	IQUANT	11	I/E Range
POSFEEDENABLE	TOGGLE	F	Positive Feedback IR Comp
POSFEEDRESISTANCE	QUANT	0	Positive Feedback Resistance (ohm)
ACHSELECT	IQUANT	0	Ach Select
CABLEID	IQUANT	13	Cable ID
DCCALDATE	LABEL	7/31/2020	DC Calibration Date
ACCALDATE	LABEL	7/31/2020	AC Calibration Date
THERMOSELECT	IQUANT	1	Thermo Select
FRAMEWORKVERSION	QUANT	6.33	Framework Version
INSTRUMENTVERSION	LABEL	3.50	Instrument Version
COMPLIANCEVOLTAGE	IQUANT	0	Compliance Voltage
ZCURVE	TABLE
	Pt	Time	Freq	Zreal	Zimag	Zsig	Zmod	Zphz	Idc	Vdc	IERange
	#	s	Hz	ohm	ohm	V	ohm	°	A	V	#
	0	17	300046.9	776.767	-219.6908	1	807.2366	-15.79234	5.413194E-005	-0.0002237	9
	1	23	238359.4	861.9414	-223.438	1	890.4311	-14.53269	2.738507E-005	0.0008254	9
	2	33	189328.1	958.492	-220.591	1	983.548	-12.96059	-0.000095	0.0023251	9
	3	44	150421.9	1041.689	-209.726	1	1062.592	-11.38333	-3.148093E-005	-0.0008831	9
	4	52	119484.4	1125.873	-157.4739	1	1136.833	-7.962206	3.105732E-006	-0.0122385	8
	5	58	94921.88	1182.377	-141.1981	1	1190.778	-6.809947	-1.985658E-005	0.0051496	8
	6	61	75421.88	1221.749	-124.3016	1	1228.056	-5.80932	1.666514E-005	-0.0075519	8
	7	65	59859.37	1259.764	-109.9181	1	1264.55	-4.986593	1.610233E-005	-0.0005428	8
	8	67	47578.12	1296.009	-91.20853	1	1299.214	-4.025637	-2.127071E-005	0.0068395	8
	9	70	37828.12	1335.533	-81.15958	1	1337.997	-3.477555	2.017489E-005	-0.0030047	8
	10	74	30046.88	1378.939	-66.34412	1	1380.534	-2.754516	-9.778954E-006	-0.0007764	8
	11	77	23859.38	1416.371	-56.56093	1	1417.5	-2.286817	-9.863376E-006	-0.0007861	8
	12	80	18984.38	1460.088	-50.08963	1	1460.946	-1.964813	-7.568712E-006	0.0079867	8
	13	83	15046.87	1494.704	-47.58291	1	1495.461	-1.823357	2.294334E-005	-0.0066034	8
	14	85	11953.13	1536.222	-36.02922	1	1536.644	-1.34352	9.293834E-006	0.0027627	8
	15	89	9515.62	1585.683	-33.82295	1	1586.044	-1.221946	-1.465608E-005	0.0013455	8
	16	93	7546.875	1641.173	-30.23857	1	1641.451	-1.055554	-2.64839E-006	-0.0036062	8
	17	96	5928.309	1697.679	-23.27202	1	1697.839	-0.7853693	9.321556E-006	0.0027987	8
	18	100	4733.456	1760.502	-24.9247	1	1760.679	-0.8111233	-1.489669E-005	0.0094972	8
	19	105	3796.875	1831.799	-24.74176	1	1831.966	-0.773836	2.367906E-005	-0.0051051	8
	20	108	2987.132	1899.405	-23.52942	1	1899.55	-0.7097316	2.32448E-005	-0.0049435	8
	21	113	2390.625	1966.564	-25.35664	1	1966.728	-0.7387237	2.348466E-005	-0.0049894	8
	22	116	1884.191	2024.863	-16.66581	1	2024.931	-0.4715674	-1.919881E-005	0.0033673	8
	23	120	1516.544	2115.318	-24.1133	1	2115.455	-0.6531077	-1.550925E-005	0.0013987	8
	24	125	1193.986	2217.275	-31.07106	1	2217.493	-0.8028433	-1.584297E-005	0.0014902	8
	25	129	946.5144	2267.987	-24.68149	1	2268.122	-0.6234996	8.855335E-006	0.003165	8
	26	132	751.7689	2339.033	-32.51126	1	2339.259	-0.7963282	1.759223E-005	-0.0006814	8
	27	135	597.4265	2369.888	-46.15693	1	2370.337	-1.115776	-9.81744E-006	-0.0012421	8
	28	137	477.4305	2474.562	-49.95811	1	2475.066	-1.156568	-1.890068E-007	0.0006384	8
	29	141	376.6741	2531.678	-59.70903	1	2532.382	-1.351057	-1.838822E-007	0.0006374	8
	30	143	298.2954	2589.513	-72.0902	1	2590.517	-1.594662	-2.070808E-007	0.0006386	8
	31	145	237.7717	2651.864	-87.00061	1	2653.29	-1.879049	-1.864613E-007	0.0006369	8
	32	148	189.0121	2716.642	-105.6342	1	2718.695	-2.226773	-2.397239E-007	0.0006702	8
	33	150	150.2404	2783.949	-128.3922	1	2786.908	-2.640537	-2.261563E-007	0.0006597	8
	34	152	119.1737	2854.484	-157.8237	1	2858.844	-3.164646	-2.010151E-007	0.0006593	8
	35	155	95.0169	2927.6	-191.9422	1	2933.886	-3.751114	-2.48727E-007	0.0006676	8
	36	157	75.60484	3007.226	-234.3999	1	3016.347	-4.456939	-2.294303E-007	0.0006601	8
	37	160	54.50582	3097.172	-311.4519	1	3112.792	-5.742365	-1.795266E-007	0.000645	8
	38	162	45.95588	3180.118	-362.1861	1	3200.676	-6.497464	-2.821676E-007	0.0006667	8
	39	165	37.20238	3268.18	-436.3102	1	3297.176	-7.604166	-2.686952E-007	0.0006719	8
	40	167	30.04808	3361.638	-525.5308	1	3402.469	-8.88523	-2.745386E-007	0.0006515	8
	41	170	23.91582	3463.084	-644.3344	1	3522.516	-10.53982	-1.733271E-007	0.0006639	8
	42	172	18.60119	3591.351	-810.2327	1	3681.614	-12.71346	1.276827E-007	0.0005783	7
	43	174	15.02404	3702.147	-962.801	1	3825.294	-14.57773	4.587475E-008	0.0006038	7
	44	177	12.01923	3824.494	-1175.596	1	4001.098	-17.08669	-1.406425E-007	0.0006118	7
	45	179	9.450605	3971.794	-1450.849	1	4228.488	-20.06664	-1.717711E-007	0.0006705	7
	46	182	7.512019	4138.26	-1776.461	1	4503.444	-23.23276	-1.53688E-007	0.000636	7
	47	184	5.978954	4341.537	-2173.522	1	4855.218	-26.59411	-1.037078E-007	0.0006434	7
	48	187	4.734848	4580.06	-2668.975	1	5300.979	-30.23098	-7.311229E-008	0.000666	7
	49	191	3.75601	4856.211	-3277.91	1	5858.966	-34.01908	-8.622661E-008	0.000583	7
	50	194	3.004808	5162.94	-3986.862	1	6523.114	-37.67559	-5.354548E-008	0.0005931	7
	51	198	2.372217	5538.299	-4908.04	1	7400.109	-41.54736	-7.450364E-008	0.0006405	7
	52	202	1.878005	5996.478	-6049.352	1	8517.771	-45.25149	-7.79926E-008	0.0006302	7
	53	207	1.512097	6521.763	-7353.28	1	9828.74	-48.42958	-7.119726E-008	0.0005267	7
	54	212	1.201923	7181.129	-9057.909	1	11559.17	-51.59255	-7.767058E-008	0.0006286	7
	55	218	0.956633	7956.9	-11154.54	1	13701.68	-54.4985	-7.643229E-008	-1.892209E-005	7
