EXPLAIN
TAG	EISPOT
TITLE	LABEL	Potentiostatic EIS	Test Identifier
DATE	LABEL	8/5/2020	Date
TIME	LABEL	23:58:32	Time
NOTES	NOTES	1	Notes...
	
PSTAT	PSTAT	REF3000-16137	Potentiostat
VDC	POTEN	0.00000E+000	T	DC Voltage (V)
FREQINIT	QUANT	3.00000E+005	Initial Freq. (Hz)
FREQFINAL	QUANT	1.00000E+000	Final Freq. (Hz)
PTSPERDEC	QUANT	1.00000E+001	Points/decade
VAC	QUANT	5.00000E+001	AC Voltage (mV rms)
AREA	QUANT	1.00000E+000	Sample Area (cm^2)
SPEED	SELECTOR	2	Optimize for:
ZGUESS	QUANT	1.00000E+003	Estimated Z (ohms)
EOC	QUANT	0	Open Circuit (V)
SEQUENCER	TOGGLE	TRUE	Run as Sequence
PSTATMODEL	IQUANT	5	Pstat Model
PSTATSECTION	LABEL	REF3000-16137	Pstat Section
PSTATSERIALNO	LABEL	16137	Pstat Serial Number
CTRLMODE	IQUANT	1	Control Mode
IESTAB	IQUANT	0	I/E Stability
CASPEED	IQUANT	1	Control Amp Speed
CONVENTION	IQUANT	1	Current Convention
ICHRANGE	IQUANT	2	Ich Range
ICHRANGEMODE	TOGGLE	F	Ich Auto Range
ICHOFFSETENABLE	TOGGLE	T	Ich Offset Enable
ICHOFFSET	QUANT	0	Ich Offset (V)
ICHFILTER	IQUANT	3	Ich Filter
VCHRANGE	IQUANT	2	Vch Range
VCHRANGEMODE	TOGGLE	F	Vch Auto Range
VCHOFFSETENABLE	TOGGLE	T	Vch Offset Enable
VCHOFFSET	QUANT	0	Vch Offset (V)
VCHFILTER	IQUANT	3	Vch Filter
ACHRANGE	IQUANT	2	Ach Range
ACHOFFSETENABLE	TOGGLE	F	Ach Offset Enable
ACHOFFSET	QUANT	0	Ach Offset (V)
ACHFILTER	IQUANT	3	Ach Filter
IERANGELOWERLIMIT	IQUANT	2	I/E Range Lower Limit
IERANGEMODE	TOGGLE	F	I/E AutoRange
IERANGE	IQUANT	11	I/E Range
POSFEEDENABLE	TOGGLE	F	Positive Feedback IR Comp
POSFEEDRESISTANCE	QUANT	0	Positive Feedback Resistance (ohm)
ACHSELECT	IQUANT	0	Ach Select
CABLEID	IQUANT	13	Cable ID
DCCALDATE	LABEL	7/31/2020	DC Calibration Date
ACCALDATE	LABEL	7/31/2020	AC Calibration Date
THERMOSELECT	IQUANT	1	Thermo Select
FRAMEWORKVERSION	QUANT	6.33	Framework Version
INSTRUMENTVERSION	LABEL	3.50	Instrument Version
COMPLIANCEVOLTAGE	IQUANT	0	Compliance Voltage
ZCURVE	TABLE
	Pt	Time	Freq	Zreal	Zimag	Zsig	Zmod	Zphz	Idc	Vdc	IERange
	#	s	Hz	ohm	ohm	V	ohm	°	A	V	#
	0	8	300046.9	11.96869	1.111169	1	12.02016	5.304112	2.276426E-005	0.0001672	10
	1	11	238359.4	12.00984	0.8741952	1	12.04162	4.163211	2.66302E-005	0.0003476	10
	2	14	189328.1	12.06681	0.6684936	1	12.08532	3.170907	7.003552E-005	0.0001509	10
	3	17	150421.9	12.13623	0.5078108	1	12.14685	2.396003	-1.018188E-005	0.0006254	10
	4	20	119484.4	12.1876	0.3610051	1	12.19295	1.696644	2.450604E-005	0.0005564	10
	5	22	94921.88	12.24701	0.2607203	1	12.24979	1.219555	1.480041E-005	0.0005674	10
	6	25	75421.88	12.31224	0.1424418	1	12.31307	0.6628322	-2.261762E-005	0.0006884	10
	7	27	59859.37	12.38386	0.0329259	1	12.3839	0.1523361	-2.666909E-006	0.0006095	10
	8	30	47578.12	12.45611	-0.0656189	1	12.45628	-0.3018321	-2.492253E-005	0.0007045	10
	9	32	37828.12	12.52725	-0.1621982	1	12.5283	-0.7418033	-2.415657E-005	0.0007145	10
	10	35	30046.88	12.60356	-0.2652167	1	12.60635	-1.205497	1.428838E-005	0.0006099	10
	11	37	23859.38	12.68027	-0.3763549	1	12.68586	-1.70006	4.46103E-006	0.0006272	10
	12	40	18984.38	12.75946	-0.5011837	1	12.76929	-2.249388	-8.155906E-006	0.0006535	10
	13	42	15046.87	12.84557	-0.6446689	1	12.86174	-2.87304	-2.470924E-005	0.0007274	10
	14	44	11953.13	12.93599	-0.8152964	1	12.96166	-3.606322	-1.689815E-005	0.0006774	10
	15	47	9515.62	13.03786	-1.014026	1	13.07724	-4.447255	-2.49272E-005	0.0007104	10
	16	49	7546.875	13.14896	-1.260009	1	13.20919	-5.4737	1.433836E-005	0.0006351	10
	17	51	5928.309	13.27435	-1.566757	1	13.36649	-6.731418	1.718501E-005	0.0006674	10
	18	54	4733.456	13.40831	-1.913693	1	13.54419	-8.122648	1.711626E-005	0.0006643	10
	19	56	3796.875	13.56076	-2.327875	1	13.75912	-9.7406	1.517267E-005	0.0006236	10
	20	58	2987.132	13.74099	-2.871783	1	14.03787	-11.80456	-1.472254E-005	0.0006986	10
	21	61	2390.625	13.94365	-3.486274	1	14.37287	-14.03765	-2.406397E-005	0.0007043	10
	22	63	1884.191	14.19177	-4.298837	1	14.82856	-16.85212	-6.170129E-006	0.0006915	10
	23	65	1516.544	14.45885	-5.187654	1	15.36132	-19.73735	2.189168E-005	0.0006604	10
	24	68	1193.986	14.80669	-6.377	1	16.12155	-23.30075	-3.092137E-006	0.0006487	10
	25	70	946.5144	15.21841	-7.791178	1	17.09686	-27.11052	-1.84605E-005	0.0007377	10
	26	72	751.7689	15.68853	-9.498038	1	18.33965	-31.19125	1.710893E-005	0.00067	10
	27	75	597.4265	16.24492	-11.5572	1	19.93656	-35.42939	-1.91565E-005	0.0006765	10
	28	77	477.4305	16.87812	-14.00111	1	21.92948	-39.67714	-1.757077E-006	0.0006811	10
	29	79	376.6741	17.67134	-17.14354	1	24.62067	-44.13145	-2.287419E-006	0.0006757	10
	30	82	298.2954	18.59749	-20.9329	1	28.00094	-48.38104	-1.117004E-006	0.0006765	10
	31	84	237.7717	19.65853	-25.4253	1	32.13882	-52.28924	-1.035004E-006	0.0006707	10
	32	86	189.0121	20.91664	-30.98153	1	37.38129	-55.97543	-1.193589E-006	0.0006815	10
	33	89	150.2404	22.3762	-37.73822	1	43.87331	-59.33493	2.157339E-006	7.895064E-005	9
	34	91	119.1737	24.15364	-46.16	1	52.09745	-62.37877	2.15682E-006	7.900909E-005	9
	35	93	95.0169	26.22758	-56.25355	1	62.06728	-65.00325	2.046809E-006	7.54879E-005	9
	36	96	75.60484	28.74149	-68.75255	1	74.51836	-67.313	2.013587E-006	7.650931E-005	9
	37	99	54.50582	33.24704	-91.69219	1	97.5337	-70.06966	2.077038E-006	7.045473E-005	9
	38	101	45.95588	36.19235	-106.7202	1	112.6902	-71.26649	2.195526E-006	7.8556E-005	9
	39	103	37.20238	40.49342	-128.7324	1	134.9509	-72.53877	2.085924E-006	7.913637E-005	9
	40	106	30.04808	45.76078	-155.6356	1	162.2236	-73.61534	2.24802E-006	7.192592E-005	9
	41	108	23.91582	52.66634	-190.7031	1	197.8419	-74.56149	2.148108E-006	7.036875E-005	9
	42	111	18.60119	62.10952	-238.481	1	246.4362	-75.40228	2.014056E-006	7.06893E-005	9
	43	113	15.02404	72.19974	-288.3693	1	297.2703	-75.94367	2.162375E-006	7.054574E-005	9
	44	115	12.01923	85.13309	-351.7788	1	361.9337	-76.39556	2.164237E-006	7.15874E-005	9
	45	118	9.450605	102.3892	-433.7827	1	445.7028	-76.71909	6.003709E-007	0.0006603	8
	46	120	7.512019	123.4668	-531.9053	1	546.047	-76.93183	6.255704E-007	0.0006741	8
	47	123	5.978954	149.8851	-651.3939	1	668.4156	-77.04185	6.16963E-007	0.000658	8
	48	126	4.734848	184.6163	-801.3843	1	822.3746	-77.02701	6.15663E-007	0.0006793	8
	49	129	3.75601	228.3492	-984.726	1	1010.856	-76.94437	6.022486E-007	0.0006513	8
	50	133	3.004808	282.3891	-1199.178	1	1231.978	-76.74908	5.640361E-007	0.0006923	8
	51	136	2.372217	356.4121	-1478.786	1	1521.131	-76.4492	5.79709E-007	0.0007227	8
	52	140	1.878005	452.4563	-1815.074	1	1870.618	-76.00275	5.627477E-007	0.0006238	8
	53	145	1.512097	567.7972	-2193.018	1	2265.33	-75.48422	5.996871E-007	0.0007031	8
	54	151	1.201923	724.1783	-2690.753	1	2786.5	-74.93658	5.676184E-007	0.0006192	8
	55	157	0.956633	929.018	-3287.306	1	3416.059	-74.2193	5.381196E-007	1.375306E-005	8
