EXPLAIN
TAG	EISPOT
TITLE	LABEL	Potentiostatic EIS	Test Identifier
DATE	LABEL	8/5/2020	Date
TIME	LABEL	23:41:08	Time
NOTES	NOTES	1	Notes...
	
PSTAT	PSTAT	REF3000-16137	Potentiostat
VDC	POTEN	0.00000E+000	T	DC Voltage (V)
FREQINIT	QUANT	3.00000E+005	Initial Freq. (Hz)
FREQFINAL	QUANT	1.00000E+000	Final Freq. (Hz)
PTSPERDEC	QUANT	1.00000E+001	Points/decade
VAC	QUANT	5.00000E+001	AC Voltage (mV rms)
AREA	QUANT	1.00000E+000	Sample Area (cm^2)
SPEED	SELECTOR	2	Optimize for:
ZGUESS	QUANT	1.00000E+003	Estimated Z (ohms)
EOC	QUANT	0	Open Circuit (V)
SEQUENCER	TOGGLE	TRUE	Run as Sequence
PSTATMODEL	IQUANT	5	Pstat Model
PSTATSECTION	LABEL	REF3000-16137	Pstat Section
PSTATSERIALNO	LABEL	16137	Pstat Serial Number
CTRLMODE	IQUANT	1	Control Mode
IESTAB	IQUANT	0	I/E Stability
CASPEED	IQUANT	1	Control Amp Speed
CONVENTION	IQUANT	1	Current Convention
ICHRANGE	IQUANT	2	Ich Range
ICHRANGEMODE	TOGGLE	F	Ich Auto Range
ICHOFFSETENABLE	TOGGLE	T	Ich Offset Enable
ICHOFFSET	QUANT	0	Ich Offset (V)
ICHFILTER	IQUANT	3	Ich Filter
VCHRANGE	IQUANT	2	Vch Range
VCHRANGEMODE	TOGGLE	F	Vch Auto Range
VCHOFFSETENABLE	TOGGLE	T	Vch Offset Enable
VCHOFFSET	QUANT	0	Vch Offset (V)
VCHFILTER	IQUANT	3	Vch Filter
ACHRANGE	IQUANT	2	Ach Range
ACHOFFSETENABLE	TOGGLE	F	Ach Offset Enable
ACHOFFSET	QUANT	0	Ach Offset (V)
ACHFILTER	IQUANT	2	Ach Filter
IERANGELOWERLIMIT	IQUANT	2	I/E Range Lower Limit
IERANGEMODE	TOGGLE	F	I/E AutoRange
IERANGE	IQUANT	11	I/E Range
POSFEEDENABLE	TOGGLE	F	Positive Feedback IR Comp
POSFEEDRESISTANCE	QUANT	0	Positive Feedback Resistance (ohm)
ACHSELECT	IQUANT	0	Ach Select
CABLEID	IQUANT	13	Cable ID
DCCALDATE	LABEL	7/31/2020	DC Calibration Date
ACCALDATE	LABEL	7/31/2020	AC Calibration Date
THERMOSELECT	IQUANT	1	Thermo Select
FRAMEWORKVERSION	QUANT	6.33	Framework Version
INSTRUMENTVERSION	LABEL	3.50	Instrument Version
COMPLIANCEVOLTAGE	IQUANT	0	Compliance Voltage
ZCURVE	TABLE
	Pt	Time	Freq	Zreal	Zimag	Zsig	Zmod	Zphz	Idc	Vdc	IERange
	#	s	Hz	ohm	ohm	V	ohm	°	A	V	#
	0	10	300046.9	2.905189	1.208478	1	3.146512	22.58595	3.51501E-005	-0.0001203	11
	1	13	238359.4	2.837773	0.956892	1	2.994761	18.63402	-0.0001079	-0.0001396	11
	2	16	189328.1	3.112402	0.7365386	1	3.198364	13.31391	-0.0000995	0.0001388	11
	3	19	150421.9	6.864244	0.4596786	1	6.879619	3.831212	9.105848E-005	0.000402	11
	4	21	119484.4	7.265389	0.3555757	1	7.274086	2.801879	-1.629451E-005	0.0006147	10
	5	24	94921.88	7.287025	0.2653139	1	7.291853	2.085166	2.635518E-005	0.0005515	10
	6	26	75421.88	7.039068	0.1677208	1	7.041066	1.364936	-2.728774E-005	0.0005859	10
	7	29	59859.37	7.101658	0.0666967	1	7.101972	0.5380896	8.181428E-007	0.0006117	10
	8	31	47578.12	7.062298	-0.0185351	1	7.062323	-0.1503732	2.170244E-005	0.0006069	10
	9	34	37828.12	6.998487	-0.0957872	1	6.999143	-0.7841496	-1.977589E-005	0.0006822	10
	10	37	30046.88	6.944499	-0.1732122	1	6.946659	-1.428796	-2.308497E-005	0.0006558	10
	11	39	23859.38	6.877841	-0.2532641	1	6.882503	-2.108861	-3.084057E-005	0.0006561	10
	12	41	18984.38	6.826415	-0.3408946	1	6.834921	-2.858837	-9.831349E-006	0.0007104	10
	13	44	15046.87	6.798896	-0.4417372	1	6.813231	-3.717391	-2.752056E-005	0.0006676	10
	14	46	11953.13	6.787459	-0.5585384	1	6.810401	-4.704257	-2.220618E-005	0.0006588	10
	15	48	9515.62	6.787656	-0.694153	1	6.823059	-5.839166	2.73992E-005	0.0006625	10
	16	51	7546.875	6.795895	-0.8587725	1	6.84994	-7.202085	2.642195E-005	0.0006595	10
	17	53	5928.309	6.822896	-1.064946	1	6.905507	-8.871384	-1.737765E-005	0.0006761	10
	18	55	4733.456	6.864927	-1.297768	1	6.986517	-10.70505	-2.361388E-005	0.0006839	10
	19	58	3796.875	6.923786	-1.569976	1	7.099552	-12.77585	2.458926E-005	0.0006483	10
	20	60	2987.132	6.989846	-1.91994	1	7.248732	-15.35897	-2.593863E-005	0.0006852	10
	21	62	2390.625	7.08049	-2.319784	1	7.450821	-18.14037	-2.030085E-005	0.0007187	10
	22	65	1884.191	7.20273	-2.834891	1	7.740538	-21.48388	6.687579E-006	0.0006431	10
	23	67	1516.544	7.316683	-3.398271	1	8.067348	-24.91275	-2.527935E-005	0.0006996	10
	24	69	1193.986	7.494533	-4.151276	1	8.567446	-28.98239	-2.689703E-006	0.0006508	10
	25	72	946.5144	7.718215	-5.040589	1	9.218371	-33.14763	-1.577001E-005	0.0007187	10
	26	74	751.7689	7.979946	-6.115451	1	10.05377	-37.46484	-2.915459E-006	0.0006508	10
	27	76	597.4265	8.300316	-7.426506	1	11.13769	-41.81981	2.209319E-005	0.000657	10
	28	79	477.4305	8.68826	-8.97564	1	12.49192	-45.93208	1.994726E-007	0.0006774	10
	29	81	376.6741	9.191899	-10.97349	1	14.31463	-50.04892	-2.484323E-007	0.0006694	10
	30	83	298.2954	9.80052	-13.37908	1	16.58463	-53.77628	9.876041E-008	0.0006753	10
	31	86	237.7717	10.52009	-16.22334	1	19.33569	-57.03845	4.810756E-007	0.0006802	10
	32	88	189.0121	11.39194	-19.71794	1	22.77221	-59.98305	5.025125E-007	0.00068	10
	33	90	150.2404	12.53104	-23.97384	1	27.05128	-62.4041	2.863722E-007	0.0006778	10
	34	93	119.1737	14.00006	-29.21327	1	32.3947	-64.39458	6.611438E-007	0.0006802	10
	35	95	95.0169	15.84752	-35.39563	1	38.78136	-65.88073	1.746508E-007	0.0006736	10
	36	98	75.60484	18.25014	-42.89599	1	46.61688	-66.95263	4.195902E-006	7.56731E-005	9
	37	100	54.50582	23.08383	-56.42281	1	60.96226	-67.74944	4.260355E-006	6.756404E-005	9
	38	103	45.95588	26.47475	-65.03983	1	70.22174	-67.851	4.554397E-006	8.059489E-005	9
	39	105	37.20238	31.65402	-77.26312	1	83.49591	-67.72152	4.758755E-006	8.230017E-005	9
	40	107	30.04808	38.70489	-91.71883	1	99.5511	-67.1205	4.7678E-006	7.908735E-005	9
	41	110	23.91582	48.68166	-109.7152	1	120.0305	-66.07269	4.821015E-006	7.115005E-005	9
	42	112	18.60119	63.64454	-132.6179	1	147.0991	-64.36323	4.946239E-006	8.639206E-005	9
	43	114	15.02404	80.46947	-154.1315	1	173.8731	-62.4317	4.923715E-006	8.429542E-005	9
	44	117	12.01923	103.3595	-178.2267	1	206.029	-59.88916	4.80927E-006	7.540239E-005	9
	45	119	9.450605	134.9588	-204.7847	1	245.2563	-56.61401	5.033049E-006	8.806174E-005	9
	46	122	7.512019	172.4753	-228.7119	1	286.4557	-52.97947	5.317352E-006	9.339037E-005	9
	47	124	5.978954	216.9304	-247.9923	1	329.4829	-48.8223	5.5718E-006	7.990196E-005	9
	48	127	4.734848	268.3262	-261.4633	1	374.6492	-44.25784	5.86793E-006	0.0001055	9
	49	131	3.75601	320.9009	-264.7399	1	416.0104	-39.52227	4.488003E-006	0.00064	8
	50	134	3.004808	371.7354	-258.0474	1	452.5214	-34.76721	5.071771E-006	0.0006333	8
	51	141	2.372217	423.3416	-244.8641	1	489.0568	-30.04543	5.303963E-006	0.0006969	8
	52	145	1.878005	467.2457	-223.5782	1	517.9824	-25.57123	5.437787E-006	0.0006356	8
	53	150	1.512097	500.3851	-200.9028	1	539.2098	-21.87529	5.817018E-006	0.0006188	8
	54	160	1.201923	530.0894	-174.9254	1	558.2057	-18.26249	6.04352E-006	0.000632	8
	55	173	0.956633	555.7437	-151.3941	1	575.9958	-15.23858	5.031878E-006	8.098275E-006	8
