EXPLAIN
TAG	EISPOT
TITLE	LABEL	Potentiostatic EIS	Test Identifier
DATE	LABEL	8/5/2020	Date
TIME	LABEL	23:44:11	Time
NOTES	NOTES	1	Notes...
	
PSTAT	PSTAT	REF3000-16137	Potentiostat
VDC	POTEN	0.00000E+000	T	DC Voltage (V)
FREQINIT	QUANT	3.00000E+005	Initial Freq. (Hz)
FREQFINAL	QUANT	1.00000E+000	Final Freq. (Hz)
PTSPERDEC	QUANT	1.00000E+001	Points/decade
VAC	QUANT	5.00000E+001	AC Voltage (mV rms)
AREA	QUANT	1.00000E+000	Sample Area (cm^2)
SPEED	SELECTOR	2	Optimize for:
ZGUESS	QUANT	1.00000E+003	Estimated Z (ohms)
EOC	QUANT	0	Open Circuit (V)
SEQUENCER	TOGGLE	TRUE	Run as Sequence
PSTATMODEL	IQUANT	5	Pstat Model
PSTATSECTION	LABEL	REF3000-16137	Pstat Section
PSTATSERIALNO	LABEL	16137	Pstat Serial Number
CTRLMODE	IQUANT	1	Control Mode
IESTAB	IQUANT	0	I/E Stability
CASPEED	IQUANT	1	Control Amp Speed
CONVENTION	IQUANT	1	Current Convention
ICHRANGE	IQUANT	2	Ich Range
ICHRANGEMODE	TOGGLE	F	Ich Auto Range
ICHOFFSETENABLE	TOGGLE	T	Ich Offset Enable
ICHOFFSET	QUANT	0	Ich Offset (V)
ICHFILTER	IQUANT	3	Ich Filter
VCHRANGE	IQUANT	2	Vch Range
VCHRANGEMODE	TOGGLE	F	Vch Auto Range
VCHOFFSETENABLE	TOGGLE	T	Vch Offset Enable
VCHOFFSET	QUANT	0	Vch Offset (V)
VCHFILTER	IQUANT	3	Vch Filter
ACHRANGE	IQUANT	2	Ach Range
ACHOFFSETENABLE	TOGGLE	F	Ach Offset Enable
ACHOFFSET	QUANT	0	Ach Offset (V)
ACHFILTER	IQUANT	3	Ach Filter
IERANGELOWERLIMIT	IQUANT	2	I/E Range Lower Limit
IERANGEMODE	TOGGLE	F	I/E AutoRange
IERANGE	IQUANT	11	I/E Range
POSFEEDENABLE	TOGGLE	F	Positive Feedback IR Comp
POSFEEDRESISTANCE	QUANT	0	Positive Feedback Resistance (ohm)
ACHSELECT	IQUANT	0	Ach Select
CABLEID	IQUANT	13	Cable ID
DCCALDATE	LABEL	7/31/2020	DC Calibration Date
ACCALDATE	LABEL	7/31/2020	AC Calibration Date
THERMOSELECT	IQUANT	1	Thermo Select
FRAMEWORKVERSION	QUANT	6.33	Framework Version
INSTRUMENTVERSION	LABEL	3.50	Instrument Version
COMPLIANCEVOLTAGE	IQUANT	0	Compliance Voltage
ZCURVE	TABLE
	Pt	Time	Freq	Zreal	Zimag	Zsig	Zmod	Zphz	Idc	Vdc	IERange
	#	s	Hz	ohm	ohm	V	ohm	°	A	V	#
	0	11	300046.9	6.014573	1.197386	1	6.132603	11.25929	2.09956E-005	0.0001617	10
	1	14	238359.4	5.986911	0.9432508	1	6.060761	8.953475	1.310221E-005	3.562782E-005	10
	2	17	189328.1	5.980707	0.7291906	1	6.024995	6.951411	5.939284E-005	7.895838E-006	10
	3	19	150421.9	5.988119	0.5631421	1	6.01454	5.37248	-1.053571E-005	0.0004253	10
	4	22	119484.4	5.985842	0.4123432	1	6.000027	3.940676	1.456011E-005	0.0004778	10
	5	25	94921.88	5.9958	0.3136214	1	6.003997	2.994233	1.796127E-005	0.00052	10
	6	27	75421.88	6.002558	0.2028511	1	6.005984	1.935523	-1.974148E-005	0.0006181	10
	7	30	59859.37	6.011458	0.1031122	1	6.012342	0.982676	2.143803E-005	0.0005747	10
	8	32	47578.12	6.022761	0.0136667	1	6.022777	0.1300136	1.312281E-006	0.0006152	10
	9	35	37828.12	6.039104	-0.0701098	1	6.03951	-0.665134	-7.26745E-006	0.0006418	10
	10	37	30046.88	6.057007	-0.1527559	1	6.058933	-1.444677	-2.752796E-005	0.0006486	10
	11	40	23859.38	6.076262	-0.2381559	1	6.080928	-2.244529	-1.621911E-005	0.0006458	10
	12	42	18984.38	6.096885	-0.3298105	1	6.105799	-3.096393	2.928189E-005	0.0006524	10
	13	44	15046.87	6.123741	-0.434307	1	6.139122	-4.05673	-8.053368E-006	0.0007057	10
	14	47	11953.13	6.15501	-0.5528135	1	6.179785	-5.132262	-7.237819E-006	0.0006665	10
	15	49	9515.62	6.192357	-0.6920745	1	6.230911	-6.377067	-1.460989E-005	0.0007186	10
	16	51	7546.875	6.240571	-0.8598391	1	6.299527	-7.844941	-4.754481E-006	0.0006419	10
	17	54	5928.309	6.302027	-1.069374	1	6.392113	-9.63063	-2.50918E-005	0.0006939	10
	18	56	4733.456	6.377232	-1.302545	1	6.508895	-11.54384	-2.267566E-005	0.0006873	10
	19	58	3796.875	6.455786	-1.578725	1	6.646018	-13.74166	-1.907673E-005	0.0006687	10
	20	61	2987.132	6.558398	-1.938863	1	6.83899	-16.46929	-1.050398E-005	0.0006663	10
	21	63	2390.625	6.676005	-2.345154	1	7.07593	-19.35541	-1.697999E-005	0.0007241	10
	22	65	1884.191	6.828012	-2.868227	1	7.405975	-22.7857	2.400257E-005	0.0006519	10
	23	68	1516.544	6.990441	-3.445754	1	7.793554	-26.23978	-2.629098E-005	0.0006932	10
	24	70	1193.986	7.204092	-4.214273	1	8.346199	-30.32692	-4.507291E-006	0.000681	10
	25	72	946.5144	7.44714	-5.125618	1	9.040567	-34.53834	-2.94658E-005	0.0006663	10
	26	75	751.7689	7.737671	-6.213966	1	9.92396	-38.76724	-1.635178E-006	0.0006625	10
	27	77	597.4265	8.078978	-7.538115	1	11.04957	-43.01648	-9.452678E-006	0.0006656	10
	28	79	477.4305	8.485643	-9.10912	1	12.44919	-47.02945	-2.779223E-007	0.0006842	10
	29	82	376.6741	9.007479	-11.13009	1	14.3183	-51.01709	3.348671E-007	0.0006771	10
	30	84	298.2954	9.60907	-13.55434	1	16.61489	-54.66604	1.142932E-006	0.000673	10
	31	86	237.7717	10.33549	-16.42574	1	19.40689	-57.82086	1.018432E-006	0.0006725	10
	32	89	189.0121	11.25577	-19.96876	1	22.92256	-60.59138	3.980326E-007	0.0006737	10
	33	91	150.2404	12.41277	-24.26532	1	27.25587	-62.90827	1.019383E-006	0.0006745	10
	34	94	119.1737	13.88975	-29.56669	1	32.66672	-64.83695	1.576794E-006	0.0006693	10
	35	96	95.0169	15.67491	-35.81131	1	39.09159	-66.3606	1.598348E-006	0.0006744	10
	36	98	75.60484	18.00661	-43.40506	1	46.99189	-67.46886	4.856553E-006	7.362647E-005	9
	37	101	54.50582	22.6898	-57.15148	1	61.4908	-68.34634	4.814122E-006	7.477102E-005	9
	38	103	45.95588	25.96021	-65.94274	1	70.86874	-68.51153	5.042404E-006	7.493069E-005	9
	39	106	37.20238	31.10629	-78.54704	1	84.48218	-68.39539	4.987251E-006	7.221235E-005	9
	40	108	30.04808	37.88285	-93.43994	1	100.8272	-67.93115	5.016223E-006	7.749888E-005	9
	41	111	23.91582	47.48345	-112.1162	1	121.7568	-67.04638	4.797265E-006	8.010305E-005	9
	42	113	18.60119	61.85931	-136.2259	1	149.613	-65.5775	4.718523E-006	7.717325E-005	9
	43	115	15.02404	78.2108	-159.308	1	177.4711	-63.8517	4.473101E-006	0.0001243	9
	44	118	12.01923	100.3739	-185.7321	1	211.1192	-61.61217	5.219526E-006	8.300647E-005	9
	45	120	9.450605	131.4515	-215.855	1	252.7308	-58.65939	5.191728E-006	7.043536E-005	9
	46	123	7.512019	169.4175	-244.5691	1	297.5169	-55.28895	5.303005E-006	7.707557E-005	9
	47	125	5.978954	215.1337	-270.0728	1	345.2852	-51.46	5.498437E-006	7.964002E-005	9
	48	128	4.734848	270.053	-291.1216	1	397.0899	-47.15008	5.556758E-006	6.700198E-005	9
	49	132	3.75601	328.8631	-302.3588	1	446.7346	-42.59563	4.336861E-006	0.0006731	8
	50	135	3.004808	388.3479	-303.2669	1	492.7321	-37.98683	4.737033E-006	0.0006582	8
	51	141	2.372217	452.0787	-296.6628	1	540.7254	-33.27365	4.71423E-006	0.0006296	8
	52	146	1.878005	509.734	-278.918	1	581.0543	-28.68674	4.952494E-006	0.0006449	8
	53	150	1.512097	557.4814	-259.2064	1	614.7955	-24.93653	5.146595E-006	0.0007267	8
	54	161	1.201923	605.0248	-235.0954	1	649.0954	-21.23471	5.551291E-006	0.0006633	8
	55	174	0.956633	648.1381	-211.3989	1	681.7422	-18.06443	4.762312E-006	9.047901E-006	8
