EXPLAIN
TAG	EISPOT
TITLE	LABEL	Potentiostatic EIS	Test Identifier
DATE	LABEL	8/6/2020	Date
TIME	LABEL	0:12:22	Time
NOTES	NOTES	1	Notes...
	
PSTAT	PSTAT	REF3000-16137	Potentiostat
VDC	POTEN	0.00000E+000	T	DC Voltage (V)
FREQINIT	QUANT	3.00000E+005	Initial Freq. (Hz)
FREQFINAL	QUANT	1.00000E+000	Final Freq. (Hz)
PTSPERDEC	QUANT	1.00000E+001	Points/decade
VAC	QUANT	5.00000E+001	AC Voltage (mV rms)
AREA	QUANT	1.00000E+000	Sample Area (cm^2)
SPEED	SELECTOR	2	Optimize for:
ZGUESS	QUANT	1.00000E+003	Estimated Z (ohms)
EOC	QUANT	0	Open Circuit (V)
SEQUENCER	TOGGLE	TRUE	Run as Sequence
PSTATMODEL	IQUANT	5	Pstat Model
PSTATSECTION	LABEL	REF3000-16137	Pstat Section
PSTATSERIALNO	LABEL	16137	Pstat Serial Number
CTRLMODE	IQUANT	1	Control Mode
IESTAB	IQUANT	0	I/E Stability
CASPEED	IQUANT	1	Control Amp Speed
CONVENTION	IQUANT	1	Current Convention
ICHRANGE	IQUANT	2	Ich Range
ICHRANGEMODE	TOGGLE	F	Ich Auto Range
ICHOFFSETENABLE	TOGGLE	T	Ich Offset Enable
ICHOFFSET	QUANT	0	Ich Offset (V)
ICHFILTER	IQUANT	3	Ich Filter
VCHRANGE	IQUANT	2	Vch Range
VCHRANGEMODE	TOGGLE	F	Vch Auto Range
VCHOFFSETENABLE	TOGGLE	T	Vch Offset Enable
VCHOFFSET	QUANT	0	Vch Offset (V)
VCHFILTER	IQUANT	3	Vch Filter
ACHRANGE	IQUANT	2	Ach Range
ACHOFFSETENABLE	TOGGLE	F	Ach Offset Enable
ACHOFFSET	QUANT	0	Ach Offset (V)
ACHFILTER	IQUANT	3	Ach Filter
IERANGELOWERLIMIT	IQUANT	2	I/E Range Lower Limit
IERANGEMODE	TOGGLE	F	I/E AutoRange
IERANGE	IQUANT	11	I/E Range
POSFEEDENABLE	TOGGLE	F	Positive Feedback IR Comp
POSFEEDRESISTANCE	QUANT	0	Positive Feedback Resistance (ohm)
ACHSELECT	IQUANT	0	Ach Select
CABLEID	IQUANT	13	Cable ID
DCCALDATE	LABEL	7/31/2020	DC Calibration Date
ACCALDATE	LABEL	7/31/2020	AC Calibration Date
THERMOSELECT	IQUANT	1	Thermo Select
FRAMEWORKVERSION	QUANT	6.33	Framework Version
INSTRUMENTVERSION	LABEL	3.50	Instrument Version
COMPLIANCEVOLTAGE	IQUANT	0	Compliance Voltage
ZCURVE	TABLE
	Pt	Time	Freq	Zreal	Zimag	Zsig	Zmod	Zphz	Idc	Vdc	IERange
	#	s	Hz	ohm	ohm	V	ohm	°	A	V	#
	0	13	300046.9	234.2107	-16.6236	1	234.7999	-4.05988	2.243217E-005	-0.002004	9
	1	16	238359.4	239.7692	-14.31618	1	240.1962	-3.41697	-6.722871E-006	-0.0016675	9
	2	19	189328.1	247.3399	-16.44254	1	247.8858	-3.803285	2.43249E-005	0.0005713	10
	3	25	150421.9	255.7229	-13.97943	1	256.1047	-3.129036	-0.0001059	0.0006031	10
	4	29	119484.4	262.5864	-9.64951	1	262.7636	-2.104555	-7.734531E-006	0.0014584	9
	5	33	94921.88	269.8308	-8.590673	1	269.9675	-1.823525	-1.585649E-005	0.0001286	9
	6	37	75421.88	275.9824	-7.30935	1	276.0791	-1.517115	-1.953646E-005	0.0003248	9
	7	41	59859.37	280.735	-6.194911	1	280.8034	-1.264127	9.936106E-006	-0.000699	9
	8	43	47578.12	285.3381	-5.519958	1	285.3915	-1.108267	-2.350456E-005	0.0007181	9
	9	46	37828.12	293.0844	-4.978881	1	293.1267	-0.97324	-2.34663E-005	0.0008241	9
	10	50	30046.88	300.2488	-4.172569	1	300.2778	-0.7961902	1.720501E-005	-0.0008291	9
	11	54	23859.38	305.1105	-3.725625	1	305.1333	-0.699589	2.845157E-005	-0.0004468	9
	12	56	18984.38	309.7413	-3.533392	1	309.7614	-0.6535767	1.757909E-005	-0.0008466	9
	13	58	15046.87	314.3817	-3.340427	1	314.3994	-0.6087669	9.821267E-006	-0.0006884	9
	14	60	11953.13	320.0559	-3.308733	1	320.073	-0.5923017	1.970241E-005	-0.0007554	9
	15	63	9515.62	324.7771	-4.048597	1	324.8023	-0.7141991	-2.246743E-005	0.0005313	9
	16	65	7546.875	329.7727	-3.665837	1	329.7931	-0.6368882	-2.197746E-005	0.0009181	9
	17	68	5928.309	334.3817	-4.092149	1	334.4067	-0.7011484	-9.273033E-006	-0.0001108	9
	18	70	4733.456	339.901	-5.079638	1	339.939	-0.8561909	8.778641E-006	-0.0006635	9
	19	72	3796.875	345.9611	-5.783437	1	346.0095	-0.957725	-2.4936E-005	0.0009424	9
	20	75	2987.132	350.917	-6.999766	1	350.9868	-1.142732	-9.954361E-006	-8.948099E-005	9
	21	77	2390.625	356.959	-7.989218	1	357.0484	-1.282142	2.709889E-005	-0.0002912	9
	22	79	1884.191	363.0068	-10.04568	1	363.1458	-1.585173	2.090853E-005	-2.576728E-005	9
	23	82	1516.544	370.1125	-12.62549	1	370.3278	-1.953748	-9.152068E-006	0.0009554	9
	24	84	1193.986	374.4965	-14.25538	1	374.7677	-2.179938	1.493562E-005	-0.0031491	8
	25	87	946.5144	382.0572	-17.19018	1	382.4438	-2.576213	-1.699723E-005	0.0010845	9
	26	89	751.7689	389.095	-20.64728	1	389.6424	-3.037545	7.039508E-006	0.001591	8
	27	92	597.4265	395.5812	-26.34554	1	396.4576	-3.810248	-1.062822E-005	0.0016677	8
	28	94	477.4305	402.6266	-31.93384	1	403.891	-4.534852	-1.177435E-008	0.0006536	8
	29	96	376.6741	410.4554	-39.33912	1	412.3362	-5.474656	1.585382E-008	0.0006463	8
	30	98	298.2954	418.7894	-48.3035	1	421.5659	-6.579466	7.963216E-009	0.0006552	8
	31	101	237.7717	427.899	-58.98774	1	431.9457	-7.849001	-2.261112E-008	0.0006545	8
	32	103	189.0121	437.6729	-72.22377	1	443.5919	-9.370373	-3.596541E-008	0.0006734	8
	33	106	150.2404	448.2822	-88.38454	1	456.9122	-11.15354	-1.172945E-008	0.0006489	8
	34	108	119.1737	459.8408	-108.4137	1	472.448	-13.266	-4.410214E-010	0.0006547	8
	35	110	95.0169	472.3562	-132.3338	1	490.5432	-15.65057	-2.185833E-008	0.00066	8
	36	113	75.60484	486.646	-161.8631	1	512.8586	-18.39761	-3.755838E-008	0.000656	8
	37	116	54.50582	506.4749	-215.5323	1	550.4281	-23.05236	3.827516E-009	0.0006469	8
	38	118	45.95588	522.1312	-250.5706	1	579.143	-25.63633	-3.545667E-008	0.0006482	8
	39	120	37.20238	541.0133	-301.6368	1	619.4192	-29.14144	-4.022196E-008	0.0006582	8
	40	123	30.04808	562.715	-363.7437	1	670.043	-32.87896	-6.573406E-008	0.0007001	8
	41	125	23.91582	588.5123	-444.0166	1	737.2228	-37.03357	2.428056E-008	0.0006575	8
	42	128	18.60119	619.9521	-552.8961	1	830.6833	-41.72775	-5.193977E-008	0.0006587	8
	43	130	15.02404	652.5679	-666.3741	1	932.684	-45.59973	2.229954E-008	0.0006626	8
	44	132	12.01923	691.372	-809.9162	1	1064.875	-49.5148	-4.826662E-008	0.0006344	8
	45	135	9.450605	739.6885	-999.37	1	1243.334	-53.49284	2.577064E-008	0.000639	8
	46	137	7.512019	793.8692	-1222.692	1	1457.808	-57.00516	-1.833371E-008	0.0006742	8
	47	140	5.978954	858.7829	-1495.831	1	1724.824	-60.13911	-4.893312E-008	0.0006569	8
	48	143	4.734848	936.0851	-1839.566	1	2064.039	-63.03019	-3.835241E-008	0.0006862	8
	49	146	3.75601	1029.057	-2260.722	1	2483.913	-65.52547	-4.50497E-008	0.0006224	8
	50	150	3.004808	1134.475	-2759.476	1	2983.578	-67.65147	-5.728109E-008	0.0006588	8
	51	153	2.372217	1271.701	-3411.325	1	3640.654	-69.55516	-4.518906E-008	0.0007138	8
	52	157	1.878005	1430.032	-4230.643	1	4465.796	-71.32384	-3.610389E-008	0.0006054	7
	53	162	1.512097	1600.207	-5150.619	1	5393.472	-72.7409	-1.55395E-008	0.0005695	7
	54	168	1.201923	1833.85	-6375.375	1	6633.884	-73.95234	-3.360377E-008	0.0006056	7
	55	174	0.956633	2107.126	-7870.872	1	8148.043	-75.01269	-3.188045E-008	-1.784018E-005	7
