June 30, 2026   14:33:29
A.C. Impedance
File: e:\chi_data\atp-r0.186-n1.029-fulltemp-fe3_t13.0_f0.1_1000000_v0.txt
Data Source:  Experiment
Instrument Model:  CHI660E
Header: 
Note: 

Init E (V) = 0
High Frequency (Hz) = 1e+6
Low Frequency (Hz) = 0.1
Imp SF
Amplitude (V) = 0.005
Quiet Time (sec) = 2
Cycles (.1-1Hz) = 1

Freq/Hz, Z'/ohm, Z"/ohm, Z/ohm, Phase/deg

8.252e+5, 4.114e+0, 1.390e+1, 1.449e+1, 73.5
6.816e+5, 3.580e+0, 1.123e+1, 1.178e+1, 72.3
5.625e+5, 2.964e+0, 9.403e+0, 9.859e+0, 72.5
4.639e+5, 2.718e+0, 7.695e+0, 8.161e+0, 70.5
3.828e+5, 2.521e+0, 6.423e+0, 6.899e+0, 68.6
3.164e+5, 2.424e+0, 5.296e+0, 5.825e+0, 65.4
2.607e+5, 2.323e+0, 4.394e+0, 4.970e+0, 62.1
2.158e+5, 2.250e+0, 3.614e+0, 4.257e+0, 58.1
1.777e+5, 2.193e+0, 2.964e+0, 3.687e+0, 53.5
1.465e+5, 2.158e+0, 2.413e+0, 3.238e+0, 48.2
1.211e+5, 2.127e+0, 1.964e+0, 2.895e+0, 42.7
9.961e+4, 2.111e+0, 1.588e+0, 2.641e+0, 37.0
8.252e+4, 2.093e+0, 1.184e+0, 2.405e+0, 29.5
6.812e+4, 2.078e+0, 7.854e-1, 2.221e+0, 20.7
5.625e+4, 2.070e+0, 5.011e-1, 2.130e+0, 13.6
4.644e+4, 2.069e+0, 3.097e-1, 2.092e+0, 8.5
3.833e+4, 2.077e+0, 1.862e-1, 2.086e+0, 5.1
3.164e+4, 2.091e+0, 7.856e-2, 2.093e+0, 2.2
2.612e+4, 2.107e+0, -2.566e-2, 2.107e+0, -0.7
2.153e+4, 2.120e+0, -1.357e-1, 2.124e+0, -3.7
1.777e+4, 2.135e+0, -2.490e-1, 2.150e+0, -6.7
1.470e+4, 2.152e+0, -3.673e-1, 2.183e+0, -9.7
1.211e+4, 2.168e+0, -4.964e-1, 2.224e+0, -12.9
1.001e+4, 2.186e+0, -6.391e-1, 2.277e+0, -16.3
8.252e+3, 2.207e+0, -7.967e-1, 2.346e+0, -19.8
6.812e+3, 2.233e+0, -9.755e-1, 2.437e+0, -23.6
5.625e+3, 2.274e+0, -1.180e+0, 2.562e+0, -27.4
4.643e+3, 2.327e+0, -1.420e+0, 2.726e+0, -31.4
3.833e+3, 2.382e+0, -1.708e+0, 2.931e+0, -35.6
3.164e+3, 2.440e+0, -2.050e+0, 3.187e+0, -40.0
2.612e+3, 2.505e+0, -2.455e+0, 3.507e+0, -44.4
2.153e+3, 2.581e+0, -2.934e+0, 3.908e+0, -48.7
1.777e+3, 2.672e+0, -3.500e+0, 4.403e+0, -52.6
1.470e+3, 2.781e+0, -4.169e+0, 5.012e+0, -56.3
1.211e+3, 2.910e+0, -4.962e+0, 5.752e+0, -59.6
1.001e+3, 3.066e+0, -5.899e+0, 6.648e+0, -62.5
8.252e+2, 3.252e+0, -7.005e+0, 7.723e+0, -65.1
6.836e+2, 3.477e+0, -8.328e+0, 9.024e+0, -67.3
5.615e+2, 3.747e+0, -9.909e+0, 1.059e+1, -69.3
4.639e+2, 4.072e+0, -1.180e+1, 1.248e+1, -71.0
3.809e+2, 4.458e+0, -1.401e+1, 1.470e+1, -72.3
3.174e+2, 4.922e+0, -1.663e+1, 1.735e+1, -73.5
2.588e+2, 5.493e+0, -1.977e+1, 2.052e+1, -74.5
2.148e+2, 6.196e+0, -2.354e+1, 2.434e+1, -75.3
1.758e+2, 7.036e+0, -2.797e+1, 2.884e+1, -75.9
1.465e+2, 8.014e+0, -3.303e+1, 3.399e+1, -76.4
1.221e+2, 9.265e+0, -3.931e+1, 4.038e+1, -76.7
9.766e+1, 1.087e+1, -4.661e+1, 4.787e+1, -76.9
8.254e+1, 1.278e+1, -5.492e+1, 5.638e+1, -76.9
6.813e+1, 1.498e+1, -6.484e+1, 6.654e+1, -77.0
5.623e+1, 1.752e+1, -7.657e+1, 7.855e+1, -77.1
4.642e+1, 2.056e+1, -9.055e+1, 9.285e+1, -77.2
3.831e+1, 2.418e+1, -1.071e+2, 1.098e+2, -77.3
3.162e+1, 2.853e+1, -1.266e+2, 1.298e+2, -77.3
2.610e+1, 3.374e+1, -1.496e+2, 1.533e+2, -77.3
2.154e+1, 3.994e+1, -1.765e+2, 1.810e+2, -77.3
1.778e+1, 4.719e+1, -2.082e+2, 2.135e+2, -77.2
1.468e+1, 5.564e+1, -2.454e+2, 2.516e+2, -77.2
1.212e+1, 6.554e+1, -2.891e+2, 2.965e+2, -77.2
1.000e+1, 7.713e+1, -3.406e+2, 3.492e+2, -77.2
8.254e+0, 9.025e+1, -4.013e+2, 4.113e+2, -77.3
6.813e+0, 1.048e+2, -4.732e+2, 4.847e+2, -77.5
5.623e+0, 1.211e+2, -5.584e+2, 5.713e+2, -77.8
4.642e+0, 1.391e+2, -6.598e+2, 6.743e+2, -78.1
3.831e+0, 1.596e+2, -7.800e+2, 7.962e+2, -78.4
3.162e+0, 1.822e+2, -9.241e+2, 9.419e+2, -78.8
2.610e+0, 2.076e+2, -1.097e+3, 1.117e+3, -79.3
2.154e+0, 2.311e+2, -1.307e+3, 1.327e+3, -80.0
1.778e+0, 2.558e+2, -1.560e+3, 1.581e+3, -80.7
1.468e+0, 2.874e+2, -1.860e+3, 1.882e+3, -81.2
1.212e+0, 3.271e+2, -2.208e+3, 2.232e+3, -81.6
1.000e+0, 3.788e+2, -2.614e+3, 2.642e+3, -81.8
8.254e-1, 4.408e+2, -3.097e+3, 3.128e+3, -81.9
6.813e-1, 5.109e+2, -3.670e+3, 3.706e+3, -82.1
5.623e-1, 5.894e+2, -4.359e+3, 4.399e+3, -82.3
4.642e-1, 6.813e+2, -5.185e+3, 5.229e+3, -82.5
3.831e-1, 7.907e+2, -6.173e+3, 6.223e+3, -82.7
3.162e-1, 9.231e+2, -7.353e+3, 7.411e+3, -82.8
2.610e-1, 1.085e+3, -8.761e+3, 8.828e+3, -82.9
2.154e-1, 1.279e+3, -1.044e+4, 1.052e+4, -83.0
1.778e-1, 1.510e+3, -1.242e+4, 1.251e+4, -83.1
1.468e-1, 1.776e+3, -1.471e+4, 1.481e+4, -83.1
1.212e-1, 2.125e+3, -1.751e+4, 1.764e+4, -83.1
1.000e-1, 2.585e+3, -2.091e+4, 2.107e+4, -83.0
