June 30, 2026   17:21:29
A.C. Impedance
File: e:\chi_data\atp-r0.186-n1.029-fulltemp-fe3_t-20.0_f0.1_1000000_v0.txt
Data Source:  Experiment
Instrument Model:  CHI660E
Header: 
Note: 

Init E (V) = 0
High Frequency (Hz) = 1e+6
Low Frequency (Hz) = 0.1
Imp SF
Amplitude (V) = 0.005
Quiet Time (sec) = 2
Cycles (.1-1Hz) = 1

Freq/Hz, Z'/ohm, Z"/ohm, Z/ohm, Phase/deg

8.252e+5, 6.007e+0, 1.371e+1, 1.497e+1, 66.3
6.816e+5, 5.508e+0, 1.103e+1, 1.233e+1, 63.5
5.625e+5, 4.909e+0, 9.221e+0, 1.045e+1, 62.0
4.639e+5, 4.668e+0, 7.527e+0, 8.857e+0, 58.2
3.828e+5, 4.465e+0, 6.292e+0, 7.715e+0, 54.6
3.164e+5, 4.368e+0, 5.193e+0, 6.786e+0, 49.9
2.607e+5, 4.270e+0, 4.316e+0, 6.071e+0, 45.3
2.158e+5, 4.203e+0, 3.545e+0, 5.498e+0, 40.1
1.777e+5, 4.152e+0, 2.893e+0, 5.060e+0, 34.9
1.465e+5, 4.122e+0, 2.339e+0, 4.739e+0, 29.6
1.211e+5, 4.091e+0, 1.899e+0, 4.510e+0, 24.9
9.961e+4, 4.069e+0, 1.535e+0, 4.349e+0, 20.7
8.252e+4, 4.057e+0, 1.234e+0, 4.241e+0, 16.9
6.812e+4, 4.058e+0, 9.723e-1, 4.173e+0, 13.5
5.625e+4, 4.064e+0, 7.419e-1, 4.131e+0, 10.3
4.644e+4, 4.072e+0, 5.365e-1, 4.107e+0, 7.5
3.833e+4, 4.084e+0, 3.523e-1, 4.099e+0, 4.9
3.164e+4, 4.098e+0, 1.829e-1, 4.102e+0, 2.6
2.612e+4, 4.112e+0, 2.318e-2, 4.112e+0, 0.3
2.153e+4, 4.128e+0, -1.285e-1, 4.130e+0, -1.8
1.777e+4, 4.148e+0, -2.775e-1, 4.157e+0, -3.8
1.470e+4, 4.172e+0, -4.292e-1, 4.194e+0, -5.9
1.211e+4, 4.201e+0, -5.885e-1, 4.242e+0, -8.0
1.001e+4, 4.230e+0, -7.641e-1, 4.298e+0, -10.2
8.252e+3, 4.259e+0, -9.628e-1, 4.366e+0, -12.7
6.812e+3, 4.293e+0, -1.189e+0, 4.455e+0, -15.5
5.625e+3, 4.335e+0, -1.450e+0, 4.571e+0, -18.5
4.643e+3, 4.382e+0, -1.752e+0, 4.719e+0, -21.8
3.833e+3, 4.438e+0, -2.104e+0, 4.912e+0, -25.4
3.164e+3, 4.504e+0, -2.520e+0, 5.161e+0, -29.2
2.612e+3, 4.579e+0, -3.013e+0, 5.481e+0, -33.3
2.153e+3, 4.669e+0, -3.597e+0, 5.893e+0, -37.6
1.777e+3, 4.775e+0, -4.287e+0, 6.417e+0, -41.9
1.470e+3, 4.901e+0, -5.106e+0, 7.078e+0, -46.2
1.211e+3, 5.052e+0, -6.082e+0, 7.907e+0, -50.3
1.001e+3, 5.235e+0, -7.240e+0, 8.934e+0, -54.1
8.252e+2, 5.451e+0, -8.608e+0, 1.019e+1, -57.7
6.836e+2, 5.707e+0, -1.024e+1, 1.173e+1, -60.9
5.615e+2, 6.013e+0, -1.220e+1, 1.360e+1, -63.8
4.639e+2, 6.384e+0, -1.453e+1, 1.587e+1, -66.3
3.809e+2, 6.827e+0, -1.726e+1, 1.856e+1, -68.4
3.174e+2, 7.379e+0, -2.055e+1, 2.183e+1, -70.2
2.588e+2, 8.058e+0, -2.449e+1, 2.579e+1, -71.8
2.148e+2, 8.874e+0, -2.920e+1, 3.052e+1, -73.1
1.758e+2, 9.844e+0, -3.473e+1, 3.610e+1, -74.2
1.465e+2, 1.097e+1, -4.107e+1, 4.251e+1, -75.0
1.221e+2, 1.240e+1, -4.893e+1, 5.048e+1, -75.8
9.766e+1, 1.428e+1, -5.811e+1, 5.984e+1, -76.2
8.254e+1, 1.656e+1, -6.858e+1, 7.055e+1, -76.4
6.813e+1, 1.918e+1, -8.115e+1, 8.339e+1, -76.7
5.623e+1, 2.218e+1, -9.604e+1, 9.856e+1, -77.0
4.642e+1, 2.571e+1, -1.137e+2, 1.166e+2, -77.3
3.831e+1, 3.002e+1, -1.348e+2, 1.381e+2, -77.4
3.162e+1, 3.524e+1, -1.598e+2, 1.636e+2, -77.6
2.610e+1, 4.149e+1, -1.892e+2, 1.937e+2, -77.6
2.154e+1, 4.894e+1, -2.239e+2, 2.292e+2, -77.7
1.778e+1, 5.793e+1, -2.647e+2, 2.710e+2, -77.7
1.468e+1, 6.874e+1, -3.129e+2, 3.204e+2, -77.6
1.212e+1, 8.153e+1, -3.695e+2, 3.784e+2, -77.6
1.000e+1, 9.709e+1, -4.360e+2, 4.467e+2, -77.4
8.254e+0, 1.156e+2, -5.143e+2, 5.272e+2, -77.3
6.813e+0, 1.365e+2, -6.064e+2, 6.216e+2, -77.3
5.623e+0, 1.604e+2, -7.147e+2, 7.325e+2, -77.4
4.642e+0, 1.873e+2, -8.428e+2, 8.633e+2, -77.5
3.831e+0, 2.181e+2, -9.939e+2, 1.018e+3, -77.6
3.162e+0, 2.524e+2, -1.174e+3, 1.201e+3, -77.9
2.610e+0, 2.912e+2, -1.389e+3, 1.419e+3, -78.2
2.154e+0, 3.289e+2, -1.650e+3, 1.682e+3, -78.7
1.778e+0, 3.667e+2, -1.961e+3, 1.995e+3, -79.4
1.468e+0, 4.130e+2, -2.323e+3, 2.360e+3, -79.9
1.212e+0, 4.716e+2, -2.747e+3, 2.787e+3, -80.3
1.000e+0, 5.445e+2, -3.246e+3, 3.292e+3, -80.5
8.254e-1, 6.281e+2, -3.834e+3, 3.885e+3, -80.7
6.813e-1, 7.185e+2, -4.530e+3, 4.587e+3, -81.0
5.623e-1, 8.168e+2, -5.361e+3, 5.423e+3, -81.3
4.642e-1, 9.278e+2, -6.352e+3, 6.419e+3, -81.7
3.831e-1, 1.056e+3, -7.541e+3, 7.615e+3, -82.0
3.162e-1, 1.206e+3, -8.967e+3, 9.048e+3, -82.3
2.610e-1, 1.381e+3, -1.067e+4, 1.076e+4, -82.6
2.154e-1, 1.588e+3, -1.270e+4, 1.280e+4, -82.9
1.778e-1, 1.831e+3, -1.509e+4, 1.520e+4, -83.1
1.468e-1, 2.102e+3, -1.787e+4, 1.799e+4, -83.3
1.212e-1, 2.451e+3, -2.127e+4, 2.141e+4, -83.4
1.000e-1, 2.905e+3, -2.540e+4, 2.556e+4, -83.5
