EXPLAIN
TAG	EISPOT
TITLE	LABEL	Potentiostatic EIS	Test Identifier
DATE	LABEL	9/6/2020	Date
TIME	LABEL	15:53:46	Time
NOTES	NOTES	1	Notes...
	
PSTAT	PSTAT	REF3000-16137	Potentiostat
VDC	POTEN	0.00000E+000	T	DC Voltage (V)
FREQINIT	QUANT	3.00000E+005	Initial Freq. (Hz)
FREQFINAL	QUANT	1.00000E+000	Final Freq. (Hz)
PTSPERDEC	QUANT	1.00000E+001	Points/decade
VAC	QUANT	5.00000E+001	AC Voltage (mV rms)
AREA	QUANT	1.00000E+000	Sample Area (cm^2)
SPEED	SELECTOR	2	Optimize for:
ZGUESS	QUANT	1.00000E+003	Estimated Z (ohms)
EOC	QUANT	0	Open Circuit (V)
SEQUENCER	TOGGLE	TRUE	Run as Sequence
PSTATMODEL	IQUANT	5	Pstat Model
PSTATSECTION	LABEL	REF3000-16137	Pstat Section
PSTATSERIALNO	LABEL	16137	Pstat Serial Number
CTRLMODE	IQUANT	1	Control Mode
IESTAB	IQUANT	0	I/E Stability
CASPEED	IQUANT	1	Control Amp Speed
CONVENTION	IQUANT	1	Current Convention
ICHRANGE	IQUANT	2	Ich Range
ICHRANGEMODE	TOGGLE	F	Ich Auto Range
ICHOFFSETENABLE	TOGGLE	T	Ich Offset Enable
ICHOFFSET	QUANT	0	Ich Offset (V)
ICHFILTER	IQUANT	3	Ich Filter
VCHRANGE	IQUANT	2	Vch Range
VCHRANGEMODE	TOGGLE	F	Vch Auto Range
VCHOFFSETENABLE	TOGGLE	T	Vch Offset Enable
VCHOFFSET	QUANT	0	Vch Offset (V)
VCHFILTER	IQUANT	3	Vch Filter
ACHRANGE	IQUANT	2	Ach Range
ACHOFFSETENABLE	TOGGLE	F	Ach Offset Enable
ACHOFFSET	QUANT	0	Ach Offset (V)
ACHFILTER	IQUANT	3	Ach Filter
IERANGELOWERLIMIT	IQUANT	2	I/E Range Lower Limit
IERANGEMODE	TOGGLE	F	I/E AutoRange
IERANGE	IQUANT	11	I/E Range
POSFEEDENABLE	TOGGLE	F	Positive Feedback IR Comp
POSFEEDRESISTANCE	QUANT	0	Positive Feedback Resistance (ohm)
ACHSELECT	IQUANT	0	Ach Select
CABLEID	IQUANT	13	Cable ID
DCCALDATE	LABEL	7/31/2020	DC Calibration Date
ACCALDATE	LABEL	7/31/2020	AC Calibration Date
THERMOSELECT	IQUANT	1	Thermo Select
FRAMEWORKVERSION	QUANT	6.33	Framework Version
INSTRUMENTVERSION	LABEL	3.50	Instrument Version
COMPLIANCEVOLTAGE	IQUANT	0	Compliance Voltage
ZCURVE	TABLE
	Pt	Time	Freq	Zreal	Zimag	Zsig	Zmod	Zphz	Idc	Vdc	IERange
	#	s	Hz	ohm	ohm	V	ohm	°	A	V	#
	0	14	300046.9	53.65987	-4210.392	1	4210.733	-89.26983	2.947536E-005	-0.0023137	9
	1	28	238359.4	294.67	-5193.899	1	5202.251	-86.75287	1.776831E-005	-0.0023939	9
	2	42	189328.1	245.9067	-6329.214	1	6333.99	-87.77502	-6.00184E-005	0.0005987	9
	3	52	150421.9	330.1066	-7896.018	1	7902.916	-87.60605	-8.796431E-005	0.0040362	9
	4	59	119484.4	501.7323	-10010.8	1	10023.37	-87.13079	-1.351725E-005	0.0017373	9
	5	68	94921.88	967.24	-12416.21	1	12453.82	-85.54558	-1.973473E-005	0.0113665	8
	6	76	75421.88	1188.87	-15666.16	1	15711.2	-85.66026	2.615841E-005	-0.0092477	8
	7	85	59859.37	1520.561	-19438.3	1	19497.68	-85.52715	9.018379E-006	0.0039645	8
	8	94	47578.12	5142.706	-25739.01	1	26247.74	-78.70097	8.538983E-007	-0.0190409	7
	9	100	37828.12	3547.105	-30899.99	1	31102.91	-83.45151	-2.69451E-005	0.0077739	8
	10	109	30046.88	4326.522	-38439.09	1	38681.81	-83.57809	-2.679318E-005	0.0077287	8
	11	118	23859.38	7568.649	-48568.71	1	49154.89	-81.14262	-2.720943E-005	0.0098677	8
	12	126	18984.38	10203.76	-59818.3	1	60682.34	-80.3197	1.775914E-005	1.901505E-005	8
	13	133	15046.87	14122.3	-74142.48	1	75475.47	-79.21576	-1.61348E-006	0.0212518	7
	14	139	11953.13	20477.39	-95514.1	1	97684.5	-77.89946	-2.753484E-005	0.0080799	8
	15	146	9515.62	21152.68	-113493	1	115447.4	-79.44242	2.736288E-005	-0.007665	8
	16	154	7546.875	35037.88	-135428.7	1	139887.8	-75.49459	1.789872E-005	-4.231331E-005	8
	17	163	5928.309	57693.55	-170292.8	1	179800.4	-71.28412	-1.555591E-006	0.0211718	7
	18	169	4733.456	107097.1	-217205.5	1	242173.5	-63.75356	2.302726E-007	0.0095825	6
	19	174	3796.875	140820.9	-255609.8	1	291833.7	-61.14869	-1.975145E-005	0.0113763	8
	20	182	2987.132	126575.2	-264809.8	1	293505.6	-64.45288	7.493562E-006	-0.0189564	7
	21	189	2390.625	205213.5	-349385.6	1	405194.8	-59.57192	-1.28517E-006	-0.0124383	7
	22	197	1884.191	293068.1	-347306.5	1	454434.5	-49.84128	-7.306828E-008	-0.0142478	6
	23	202	1516.544	367495.8	-385000.5	1	532239.1	-46.33259	-6.45697E-007	0.0103049	6
	24	208	1193.986	440392.3	-405652.3	1	598748	-42.64866	-6.669803E-007	0.0256959	6
	25	213	946.5144	528710.3	-403272.8	1	664953.7	-37.33451	7.006882E-007	-0.0265394	6
	26	217	751.7689	548757.4	-416925.6	1	689174.6	-37.22622	4.305674E-007	0.0013234	6
	27	221	597.4265	649152.2	-393649.9	1	759183	-31.23288	6.000495E-007	-0.0077279	6
	28	224	477.4305	718873	-409625.4	1	827388.3	-29.67519	-1.115511E-008	0.0006242	6
	29	229	376.6741	1029445	-384576.4	1	1098934	-20.4845	-1.753031E-009	0.0005257	5
	30	232	298.2954	1067825	-357286.8	1	1126013	-18.49988	-1.445076E-009	0.0005757	5
	31	235	237.7717	1117428	-349937.2	1	1170940	-17.38864	-1.590573E-009	0.0006021	5
	32	237	189.0121	1134641	-352555.9	1	1188152	-17.26108	-1.58788E-009	0.0005915	5
	33	240	150.2404	1148330	-382282.3	1	1210290	-18.41275	-1.425188E-009	0.0005542	5
	34	243	119.1737	1025570	-346676.3	1	1082580	-18.67694	-1.151613E-009	0.0005769	5
	35	246	95.0169	1241828	-438309.1	1	1316910	-19.44072	-1.105959E-009	0.0005866	5
	36	249	75.60484	1250251	-481171.9	1	1339647	-21.04973	-1.001412E-009	0.000586	5
	37	251	54.50582	1367377	-583061.2	1	1486500	-23.09381	-1.410765E-009	0.0005304	5
	38	255	45.95588	1472619	-633929.4	1	1603270	-23.29079	-1.765791E-009	0.0006029	5
	39	257	37.20238	1449010	-672303.8	1	1597380	-24.89011	-1.018268E-009	0.0006115	5
	40	260	30.04808	1589990	-802695.8	1	1781120	-26.78661	-1.446638E-009	0.0005492	5
	41	263	23.91582	1733446	-859396.3	1	1934786	-26.37099	-8.361353E-010	0.0005428	5
	42	266	18.60119	1966650	-1041162	1	2225249	-27.89713	-6.112625E-010	0.0006379	5
	43	268	15.02404	1971236	-1167718	1	2291143	-30.64158	-1.627463E-009	0.0006514	5
	44	270	12.01923	2104896	-1332668	1	2491303	-32.33904	-1.353181E-009	0.0005381	5
	45	273	9.450605	2241937	-1546052	1	2723336	-34.59037	-1.090308E-008	0.0005834	6
	46	277	7.512019	2485645	-1678098	1	2999074	-34.02391	-1.043475E-008	0.0005311	6
	47	281	5.978954	2718243	-1874609	1	3301970	-34.5917	-1.122816E-008	0.0006228	6
	48	287	4.734848	2991963	-2098903	1	3654756	-35.05019	-1.138137E-008	0.0006248	6
	49	293	3.75601	3344711	-2356752	1	4091622	-35.16931	-1.108143E-008	0.0006114	6
	50	300	3.004808	3706391	-2586711	1	4519779	-34.91141	-1.449197E-009	0.0006101	5
	51	308	2.372217	4660808	-2908541	1	5493883	-31.96591	-2.938458E-010	0.000582	4
	52	312	1.878005	5078865	-3280262	1	6046072	-32.85701	-2.718573E-010	0.0005634	4
	53	319	1.512097	5504169	-3654716	1	6607028	-33.58379	-2.590399E-010	0.0004654	4
	54	324	1.201923	6001935	-4111178	1	7274958	-34.41019	-2.726637E-010	0.0005717	4
	55	332	0.956633	6561076	-4621445	1	8025301	-35.15983	-3.081165E-010	-7.298919E-005	4
