EXPLAIN
TAG	EISPOT
TITLE	LABEL	Potentiostatic EIS	Test Identifier
DATE	LABEL	9/6/2020	Date
TIME	LABEL	15:26:29	Time
NOTES	NOTES	1	Notes...
	
PSTAT	PSTAT	REF3000-16137	Potentiostat
VDC	POTEN	0.00000E+000	T	DC Voltage (V)
FREQINIT	QUANT	3.00000E+005	Initial Freq. (Hz)
FREQFINAL	QUANT	1.00000E+000	Final Freq. (Hz)
PTSPERDEC	QUANT	1.00000E+001	Points/decade
VAC	QUANT	5.00000E+001	AC Voltage (mV rms)
AREA	QUANT	1.00000E+000	Sample Area (cm^2)
SPEED	SELECTOR	2	Optimize for:
ZGUESS	QUANT	1.00000E+003	Estimated Z (ohms)
EOC	QUANT	0	Open Circuit (V)
SEQUENCER	TOGGLE	TRUE	Run as Sequence
PSTATMODEL	IQUANT	5	Pstat Model
PSTATSECTION	LABEL	REF3000-16137	Pstat Section
PSTATSERIALNO	LABEL	16137	Pstat Serial Number
CTRLMODE	IQUANT	1	Control Mode
IESTAB	IQUANT	0	I/E Stability
CASPEED	IQUANT	1	Control Amp Speed
CONVENTION	IQUANT	1	Current Convention
ICHRANGE	IQUANT	2	Ich Range
ICHRANGEMODE	TOGGLE	F	Ich Auto Range
ICHOFFSETENABLE	TOGGLE	T	Ich Offset Enable
ICHOFFSET	QUANT	0	Ich Offset (V)
ICHFILTER	IQUANT	3	Ich Filter
VCHRANGE	IQUANT	2	Vch Range
VCHRANGEMODE	TOGGLE	F	Vch Auto Range
VCHOFFSETENABLE	TOGGLE	T	Vch Offset Enable
VCHOFFSET	QUANT	0	Vch Offset (V)
VCHFILTER	IQUANT	3	Vch Filter
ACHRANGE	IQUANT	2	Ach Range
ACHOFFSETENABLE	TOGGLE	F	Ach Offset Enable
ACHOFFSET	QUANT	0	Ach Offset (V)
ACHFILTER	IQUANT	3	Ach Filter
IERANGELOWERLIMIT	IQUANT	2	I/E Range Lower Limit
IERANGEMODE	TOGGLE	F	I/E AutoRange
IERANGE	IQUANT	11	I/E Range
POSFEEDENABLE	TOGGLE	F	Positive Feedback IR Comp
POSFEEDRESISTANCE	QUANT	0	Positive Feedback Resistance (ohm)
ACHSELECT	IQUANT	0	Ach Select
CABLEID	IQUANT	13	Cable ID
DCCALDATE	LABEL	7/31/2020	DC Calibration Date
ACCALDATE	LABEL	7/31/2020	AC Calibration Date
THERMOSELECT	IQUANT	1	Thermo Select
FRAMEWORKVERSION	QUANT	6.33	Framework Version
INSTRUMENTVERSION	LABEL	3.50	Instrument Version
COMPLIANCEVOLTAGE	IQUANT	0	Compliance Voltage
ZCURVE	TABLE
	Pt	Time	Freq	Zreal	Zimag	Zsig	Zmod	Zphz	Idc	Vdc	IERange
	#	s	Hz	ohm	ohm	V	ohm	°	A	V	#
	0	14	300046.9	557.3121	-3860.326	1	3900.348	-81.78502	3.8864E-005	0.0005945	9
	1	32	238359.4	798.7287	-4730.563	1	4797.519	-80.41632	9.123151E-005	-0.0029836	9
	2	47	189328.1	1171.557	-5682.439	1	5801.953	-78.35047	-1.515796E-005	0.0014999	9
	3	57	150421.9	1870.123	-6816.34	1	7068.228	-74.65791	-7.078288E-006	0.0015612	9
	4	64	119484.4	2825.182	-8167.525	1	8642.345	-70.91928	-7.552972E-005	0.0365982	8
	5	72	94921.88	3980.973	-10109.74	1	10865.31	-68.50667	-1.279537E-005	-0.0011357	8
	6	80	75421.88	5355.886	-11905.24	1	13054.51	-65.77814	1.354303E-005	-0.00909	8
	7	89	59859.37	7598.433	-13986.54	1	15917.27	-61.4862	4.713182E-006	-0.0071495	8
	8	98	47578.12	12493.62	-16541.95	1	20729.84	-52.93738	4.781275E-006	-0.0258011	7
	9	104	37828.12	15590.72	-18102.21	1	23890.6	-49.26297	-6.093221E-006	0.0257009	7
	10	110	30046.88	18950.74	-19188.71	1	26969.19	-45.35749	3.231801E-006	0.0058603	7
	11	118	23859.38	19879.69	-20527.9	1	28576.16	-45.91906	1.360178E-005	-0.0090705	8
	12	124	18984.38	26180.02	-20436.56	1	33212.14	-37.9762	2.843264E-006	0.0068078	7
	13	130	15046.87	27367.93	-20129.59	1	33973.58	-36.33512	-1.277801E-005	-0.0011311	8
	14	136	11953.13	33166.26	-20337.82	1	38905.37	-31.51697	4.80194E-006	-0.0259615	7
	15	141	9515.62	36210.43	-20211.43	1	41469.23	-29.16878	6.684241E-006	-0.0120925	7
	16	147	7546.875	39740.54	-20496.82	1	44714.98	-27.28315	6.388685E-006	-0.0267624	7
	17	152	5928.309	43005.07	-20094.69	1	47468.23	-25.04496	-3.861107E-006	-0.0029831	7
	18	157	4733.456	45381.17	-20350.4	1	49735.2	-24.15302	-1.706224E-006	-0.0110596	7
	19	163	3796.875	47805.7	-20226.61	1	51908.58	-22.93325	-6.199964E-006	0.0256247	7
	20	168	2987.132	51015.68	-20458.51	1	54965	-21.85197	-7.262524E-006	0.0197574	7
	21	173	2390.625	52132.91	-21619.88	1	56438.11	-22.52412	7.472784E-006	-0.0198864	7
	22	179	1884.191	56518.23	-23749.81	1	61305.5	-22.79288	3.224181E-006	0.0060582	7
	23	184	1516.544	58023.71	-23873.86	1	62743.23	-22.36472	1.043378E-006	0.0138766	7
	24	190	1193.986	61029.58	-26906.07	1	66697.42	-23.79121	3.266215E-006	0.005905	7
	25	195	946.5144	62314.57	-29051.32	1	68753.8	-24.99514	-1.093154E-006	0.019921	7
	26	199	751.7689	67924.38	-31256.63	1	74770.98	-24.71038	-3.127588E-006	0.0238403	7
	27	203	597.4265	85278.74	-40270.37	1	94308.89	-25.27764	4.740422E-007	-0.0176658	7
	28	206	477.4305	85778.21	-34134.84	1	92320.58	-21.69974	-2.313246E-008	0.0005184	6
	29	209	376.6741	90640.98	-38932.48	1	98648.5	-23.24469	-2.382023E-008	0.0005769	6
	30	211	298.2954	96265.7	-43247.44	1	105534	-24.19204	-2.246218E-008	0.0005324	6
	31	214	237.7717	102726.6	-48500.64	1	113600.5	-25.27354	-2.340359E-008	0.0005851	6
	32	216	189.0121	110052.9	-54110.39	1	122635.9	-26.18225	-2.307337E-008	0.000525	6
	33	219	150.2404	117586.3	-60360.64	1	132173.9	-27.17282	-2.313708E-008	0.0005504	6
	34	222	119.1737	134889.4	-64359.52	1	149456.7	-25.50712	-2.243131E-008	0.0005839	6
	35	225	95.0169	136531.1	-71114.58	1	153941.6	-27.51353	-2.323507E-008	0.0005461	6
	36	227	75.60484	147968.9	-79130.32	1	167798.7	-28.13683	-2.358189E-008	0.0005702	6
	37	230	54.50582	165908.3	-85629.38	1	186702.8	-27.29939	-2.384961E-008	0.0006324	6
	38	233	45.95588	175583.4	-92763.84	1	198581.6	-27.84829	-2.263759E-008	0.0005886	6
	39	236	37.20238	187318.1	-100953	1	212790	-28.32194	-2.201924E-008	0.0006	6
	40	239	30.04808	200671.7	-105827.1	1	226866.8	-27.80557	-2.29013E-008	0.0005219	6
	41	242	23.91582	216738.5	-113421.5	1	244622.2	-27.62353	-2.285145E-008	0.0005134	6
	42	244	18.60119	235382.5	-129531.1	1	268669.4	-28.824	-1.156735E-007	0.000571	7
	43	248	15.02404	251860	-133014.4	1	284826.8	-27.8398	-2.293637E-008	0.0005683	6
	44	251	12.01923	270793.8	-145127.2	1	307231.5	-28.1883	-1.078157E-007	0.0005164	7
	45	255	9.450605	294666.7	-157239.5	1	333995.1	-28.08519	-2.27708E-008	0.00058	6
	46	259	7.512019	319042.4	-170619.2	1	361799.6	-28.13722	-1.133272E-007	0.000525	7
	47	264	5.978954	347622.6	-184061.9	1	393344.9	-27.90067	-2.358077E-008	0.0005476	6
	48	269	4.734848	377516.2	-197964.6	1	426272.7	-27.67194	-2.312642E-008	0.0006031	6
	49	274	3.75601	413933.7	-210021.6	1	464166.1	-26.90232	-1.349168E-008	0.0006604	5
	50	280	3.004808	450871.6	-224586.6	1	503710.5	-26.47866	-1.340978E-008	0.0005123	5
	51	286	2.372217	491683.7	-238711	1	546567.3	-25.89644	-1.388872E-008	0.0004856	5
	52	290	1.878005	534428.9	-252040.8	1	590879.7	-25.24892	-1.350034E-008	0.0005653	5
	53	295	1.512097	577380.7	-263312.4	1	634587.9	-24.51519	-1.34399E-008	0.0004766	5
	54	300	1.201923	626933.2	-274452.7	1	684375.3	-23.64237	-1.368593E-008	0.0005852	5
	55	307	0.956633	678806.5	-284080.1	1	735853.1	-22.70928	-1.465892E-008	-7.797628E-005	5
