EXPLAIN
TAG	EISPOT
TITLE	LABEL	Potentiostatic EIS	Test Identifier
DATE	LABEL	9/6/2020	Date
TIME	LABEL	14:28:39	Time
NOTES	NOTES	1	Notes...
	
PSTAT	PSTAT	REF3000-16137	Potentiostat
VDC	POTEN	0.00000E+000	T	DC Voltage (V)
FREQINIT	QUANT	3.00000E+005	Initial Freq. (Hz)
FREQFINAL	QUANT	1.00000E+000	Final Freq. (Hz)
PTSPERDEC	QUANT	1.00000E+001	Points/decade
VAC	QUANT	5.00000E+001	AC Voltage (mV rms)
AREA	QUANT	1.00000E+000	Sample Area (cm^2)
SPEED	SELECTOR	2	Optimize for:
ZGUESS	QUANT	1.00000E+003	Estimated Z (ohms)
EOC	QUANT	0	Open Circuit (V)
SEQUENCER	TOGGLE	TRUE	Run as Sequence
PSTATMODEL	IQUANT	5	Pstat Model
PSTATSECTION	LABEL	REF3000-16137	Pstat Section
PSTATSERIALNO	LABEL	16137	Pstat Serial Number
CTRLMODE	IQUANT	1	Control Mode
IESTAB	IQUANT	0	I/E Stability
CASPEED	IQUANT	1	Control Amp Speed
CONVENTION	IQUANT	1	Current Convention
ICHRANGE	IQUANT	2	Ich Range
ICHRANGEMODE	TOGGLE	F	Ich Auto Range
ICHOFFSETENABLE	TOGGLE	T	Ich Offset Enable
ICHOFFSET	QUANT	0	Ich Offset (V)
ICHFILTER	IQUANT	3	Ich Filter
VCHRANGE	IQUANT	2	Vch Range
VCHRANGEMODE	TOGGLE	F	Vch Auto Range
VCHOFFSETENABLE	TOGGLE	T	Vch Offset Enable
VCHOFFSET	QUANT	0	Vch Offset (V)
VCHFILTER	IQUANT	3	Vch Filter
ACHRANGE	IQUANT	2	Ach Range
ACHOFFSETENABLE	TOGGLE	F	Ach Offset Enable
ACHOFFSET	QUANT	0	Ach Offset (V)
ACHFILTER	IQUANT	1	Ach Filter
IERANGELOWERLIMIT	IQUANT	2	I/E Range Lower Limit
IERANGEMODE	TOGGLE	F	I/E AutoRange
IERANGE	IQUANT	11	I/E Range
POSFEEDENABLE	TOGGLE	F	Positive Feedback IR Comp
POSFEEDRESISTANCE	QUANT	0	Positive Feedback Resistance (ohm)
ACHSELECT	IQUANT	0	Ach Select
CABLEID	IQUANT	13	Cable ID
DCCALDATE	LABEL	7/31/2020	DC Calibration Date
ACCALDATE	LABEL	7/31/2020	AC Calibration Date
THERMOSELECT	IQUANT	1	Thermo Select
FRAMEWORKVERSION	QUANT	6.33	Framework Version
INSTRUMENTVERSION	LABEL	3.50	Instrument Version
COMPLIANCEVOLTAGE	IQUANT	0	Compliance Voltage
ZCURVE	TABLE
	Pt	Time	Freq	Zreal	Zimag	Zsig	Zmod	Zphz	Idc	Vdc	IERange
	#	s	Hz	ohm	ohm	V	ohm	°	A	V	#
	0	16	300046.9	452.9675	-79.95656	1	459.9702	-10.01057	5.175049E-005	0.0007102	9
	1	23	238359.4	456.8018	-65.72328	1	461.5057	-8.187359	-3.879693E-005	-0.00166	9
	2	33	189328.1	460.2577	-55.76426	1	463.6236	-6.908215	-0.0001029	0.0014141	9
	3	41	150421.9	463.3924	-46.36198	1	465.7059	-5.713377	0.0001358	-0.0055041	9
	4	47	119484.4	465.6732	-39.0867	1	467.3108	-4.797926	-0.0001021	0.001466	9
	5	56	94921.88	467.2	-34.0839	1	468.4417	-4.172539	2.143005E-005	-0.0017465	9
	6	61	75421.88	501.3755	1.540261	1	501.3779	0.1760161	2.414351E-005	-0.0029697	8
	7	64	59859.37	497.7509	2.689116	1	497.7581	0.3095394	2.627775E-005	-0.0090603	8
	8	67	47578.12	494.3752	3.838396	1	494.39	0.4448433	-2.026994E-005	0.0002993	8
	9	70	37828.12	492.481	1.729604	1	492.4841	0.2012233	-8.187761E-006	0.0093941	8
	10	72	30046.88	486.3952	2.406529	1	486.4012	0.283479	-1.865472E-006	-0.0054626	8
	11	75	23859.38	485.9203	1.251213	1	485.9219	0.1475326	1.583248E-005	-0.0097274	8
	12	77	18984.38	484.2054	-1.84453	1	484.2089	-0.2182613	-1.015019E-005	-0.0027326	8
	13	79	15046.87	484.9734	-4.738356	1	484.9966	-0.5597815	-3.060895E-005	0.0097404	8
	14	82	11953.13	484.9014	-6.474147	1	484.9446	-0.7649375	-1.338026E-006	0.0072581	8
	15	84	9515.62	486.4136	-10.60269	1	486.5291	-1.248718	2.192791E-005	-0.0100937	8
	16	87	7546.875	487.1382	-12.23503	1	487.2918	-1.438747	-2.765656E-005	0.0103106	8
	17	89	5928.309	489.9097	-13.96476	1	490.1087	-1.63276	-1.496756E-006	0.0071928	8
	18	92	4733.456	493.0745	-14.95497	1	493.3012	-1.737251	2.252601E-005	-0.0025965	8
	19	94	3796.875	495.4239	-18.4763	1	495.7683	-2.135795	2.776971E-005	-0.0102112	8
	20	96	2987.132	495.5097	-20.89596	1	495.9501	-2.414768	-2.512841E-005	0.0042227	8
	21	99	2390.625	499.1423	-23.5782	1	499.6989	-2.704495	2.335276E-005	-0.0024299	8
	22	102	1884.191	501.0554	-25.35246	1	501.6964	-2.896588	-1.130747E-005	-0.0023851	8
	23	104	1516.544	503.7468	-29.66141	1	504.6193	-3.369776	-2.897681E-005	0.0070276	8
	24	107	1193.986	506.6454	-34.92928	1	507.848	-3.94386	2.860543E-005	-0.0063677	8
	25	109	946.5144	509.7018	-38.87791	1	511.1824	-4.361835	2.222875E-005	-0.0099862	8
	26	112	751.7689	512.1775	-44.72392	1	514.1265	-4.990474	7.484959E-006	0.0044195	8
	27	115	597.4265	515.6549	-54.59168	1	518.5366	-6.043315	-2.631291E-005	0.0098648	8
	28	117	477.4305	520.0515	-62.53608	1	523.798	-6.856881	-7.962077E-007	0.000481	8
	29	119	376.6741	524.4751	-74.10265	1	529.6842	-8.042042	-7.824411E-007	0.0004749	8
	30	122	298.2954	529.3633	-88.09052	1	536.6428	-9.447926	-8.345896E-007	0.0005167	8
	31	124	237.7717	534.8091	-104.6164	1	544.9453	-11.06812	-7.943083E-007	0.0005049	8
	32	127	189.0121	541.1804	-125.0349	1	555.4367	-13.00941	-8.390155E-007	0.0005181	8
	33	129	150.2404	548.5394	-149.9135	1	568.6559	-15.28543	-7.864774E-007	0.00048	8
	34	131	119.1737	557.4468	-180.7565	1	586.0204	-17.96569	-7.682985E-007	0.0004986	8
	35	134	95.0169	567.6331	-217.0484	1	607.7148	-20.92558	-8.338078E-007	0.0005169	8
	36	136	75.60484	580.1317	-261.6974	1	636.4262	-24.28014	-7.609375E-007	0.0004773	8
	37	139	54.50582	602.5568	-342.8575	1	693.2719	-29.64006	-8.163801E-007	0.0004955	8
	38	141	45.95588	617.4705	-394.8815	1	732.9401	-32.59951	-8.1987E-007	0.0005046	8
	39	144	37.20238	638.9963	-470.5655	1	793.5667	-36.36843	-7.587967E-007	0.0004855	8
	40	146	30.04808	665.4758	-561.7117	1	870.8491	-40.16689	-8.154067E-007	0.0005219	8
	41	148	23.91582	700.3185	-679.0201	1	975.456	-44.11536	-8.508824E-007	0.0005232	8
	42	151	18.60119	749.1752	-836.295	1	1122.788	-48.14517	-7.383669E-007	0.0004988	8
	43	153	15.02404	800.8332	-997.471	1	1279.172	-51.24028	-7.47442E-007	0.0005133	8
	44	155	12.01923	867.8715	-1197.992	1	1479.319	-54.07897	-7.561002E-007	0.0004841	8
	45	158	9.450605	959.181	-1457.196	1	1744.548	-56.64558	-8.28985E-007	0.0004875	8
	46	160	7.512019	1072.041	-1753.459	1	2055.21	-58.55894	-7.321769E-007	0.0004946	8
	47	163	5.978954	1212.097	-2101.785	1	2426.248	-60.02801	-7.80527E-007	0.0005197	8
	48	166	4.734848	1397.814	-2523.963	1	2885.182	-61.02156	-7.938047E-007	0.0005418	8
	49	169	3.75601	1630.155	-3017.681	1	3429.84	-61.62203	-7.810801E-007	0.0004734	8
	50	173	3.004808	1911.241	-3569.65	1	4049.104	-61.83477	-8.15383E-007	0.0005434	8
	51	176	2.372217	2300.712	-4248.751	1	4831.683	-61.56432	-5.941675E-007	0.0005337	7
	52	180	1.878005	2776.793	-5014.775	1	5732.238	-61.02572	-6.161782E-007	0.0004575	7
	53	185	1.512097	3311.937	-5817.507	1	6694.2	-60.34692	-5.948164E-007	0.0004666	7
	54	191	1.201923	4039.061	-6776.319	1	7888.759	-59.20272	-5.846424E-007	0.0004475	7
	55	203	0.956633	4914.342	-7832.058	1	9246.183	-57.89317	-5.978159E-007	-0.0001562	7
