EXPLAIN
TAG	EISPOT
TITLE	LABEL	Potentiostatic EIS	Test Identifier
DATE	LABEL	9/6/2020	Date
TIME	LABEL	14:43:12	Time
NOTES	NOTES	1	Notes...
	
PSTAT	PSTAT	REF3000-16137	Potentiostat
VDC	POTEN	0.00000E+000	T	DC Voltage (V)
FREQINIT	QUANT	3.00000E+005	Initial Freq. (Hz)
FREQFINAL	QUANT	1.00000E+000	Final Freq. (Hz)
PTSPERDEC	QUANT	1.00000E+001	Points/decade
VAC	QUANT	5.00000E+001	AC Voltage (mV rms)
AREA	QUANT	1.00000E+000	Sample Area (cm^2)
SPEED	SELECTOR	2	Optimize for:
ZGUESS	QUANT	1.00000E+003	Estimated Z (ohms)
EOC	QUANT	0	Open Circuit (V)
SEQUENCER	TOGGLE	TRUE	Run as Sequence
PSTATMODEL	IQUANT	5	Pstat Model
PSTATSECTION	LABEL	REF3000-16137	Pstat Section
PSTATSERIALNO	LABEL	16137	Pstat Serial Number
CTRLMODE	IQUANT	1	Control Mode
IESTAB	IQUANT	0	I/E Stability
CASPEED	IQUANT	1	Control Amp Speed
CONVENTION	IQUANT	1	Current Convention
ICHRANGE	IQUANT	2	Ich Range
ICHRANGEMODE	TOGGLE	F	Ich Auto Range
ICHOFFSETENABLE	TOGGLE	T	Ich Offset Enable
ICHOFFSET	QUANT	0	Ich Offset (V)
ICHFILTER	IQUANT	3	Ich Filter
VCHRANGE	IQUANT	2	Vch Range
VCHRANGEMODE	TOGGLE	F	Vch Auto Range
VCHOFFSETENABLE	TOGGLE	T	Vch Offset Enable
VCHOFFSET	QUANT	0	Vch Offset (V)
VCHFILTER	IQUANT	3	Vch Filter
ACHRANGE	IQUANT	2	Ach Range
ACHOFFSETENABLE	TOGGLE	F	Ach Offset Enable
ACHOFFSET	QUANT	0	Ach Offset (V)
ACHFILTER	IQUANT	3	Ach Filter
IERANGELOWERLIMIT	IQUANT	2	I/E Range Lower Limit
IERANGEMODE	TOGGLE	F	I/E AutoRange
IERANGE	IQUANT	11	I/E Range
POSFEEDENABLE	TOGGLE	F	Positive Feedback IR Comp
POSFEEDRESISTANCE	QUANT	0	Positive Feedback Resistance (ohm)
ACHSELECT	IQUANT	0	Ach Select
CABLEID	IQUANT	13	Cable ID
DCCALDATE	LABEL	7/31/2020	DC Calibration Date
ACCALDATE	LABEL	7/31/2020	AC Calibration Date
THERMOSELECT	IQUANT	1	Thermo Select
FRAMEWORKVERSION	QUANT	6.33	Framework Version
INSTRUMENTVERSION	LABEL	3.50	Instrument Version
COMPLIANCEVOLTAGE	IQUANT	0	Compliance Voltage
ZCURVE	TABLE
	Pt	Time	Freq	Zreal	Zimag	Zsig	Zmod	Zphz	Idc	Vdc	IERange
	#	s	Hz	ohm	ohm	V	ohm	°	A	V	#
	0	17	300046.9	876.0118	-327.9106	1	935.3726	-20.52199	0.000106	-0.0038065	9
	1	33	238359.4	933.6749	-300.0684	1	980.709	-17.81659	9.030204E-007	-0.0010068	9
	2	50	189328.1	987.372	-265.623	1	1022.477	-15.05724	-6.291958E-006	-0.00159	9
	3	61	150421.9	1029.041	-231.1371	1	1054.68	-12.65933	-0.0001086	0.0050972	9
	4	70	119484.4	1064.106	-203.9368	1	1083.472	-10.84923	1.418037E-005	0.0010783	9
	5	81	94921.88	1145.713	-137.919	1	1153.984	-6.864141	-3.343114E-006	0.0072342	8
	6	85	75421.88	1161.555	-116.5364	1	1167.387	-5.729194	-1.033876E-005	-0.002436	8
	7	88	59859.37	1170.527	-101.2268	1	1174.896	-4.942626	-2.593887E-005	0.0067493	8
	8	92	47578.12	1181.33	-84.10262	1	1184.32	-4.072199	7.075804E-006	-0.0076721	8
	9	95	37828.12	1190.667	-75.39292	1	1193.052	-3.623125	1.548857E-005	0.0010354	8
	10	99	30046.88	1203.585	-65.20171	1	1205.349	-3.100849	-1.06919E-005	0.0092919	8
	11	103	23859.38	1207.971	-61.72211	1	1209.547	-2.925024	-2.425636E-005	0.0043436	8
	12	106	18984.38	1218.645	-56.3622	1	1219.947	-2.648037	2.390928E-005	-0.00307	8
	13	109	15046.87	1230.342	-56.957	1	1231.659	-2.650538	-2.269757E-005	0.0103267	8
	14	113	11953.13	1239.2	-58.01028	1	1240.557	-2.680212	7.283395E-006	-0.0079003	8
	15	116	9515.62	1253.927	-59.94921	1	1255.359	-2.73718	-2.207725E-005	0.0101667	8
	16	120	7546.875	1269.512	-62.69952	1	1271.059	-2.827466	2.340353E-005	-0.0032388	8
	17	123	5928.309	1282.022	-67.37054	1	1283.791	-3.008138	-2.171609E-005	0.0101643	8
	18	127	4733.456	1302.976	-69.16582	1	1304.811	-3.038577	-1.086661E-005	-0.0022993	8
	19	132	3796.875	1319.989	-69.86063	1	1321.837	-3.029561	2.748057E-005	-0.0098176	8
	20	136	2987.132	1338.926	-73.35565	1	1340.934	-3.135926	-2.710893E-005	0.0069165	8
	21	140	2390.625	1359.035	-75.36434	1	1361.123	-3.174047	-2.670364E-005	0.0084612	8
	22	144	1884.191	1370.506	-78.23978	1	1372.737	-3.26737	2.915799E-005	-0.008737	8
	23	148	1516.544	1389.862	-82.35666	1	1392.3	-3.391112	-2.476868E-005	0.0044849	8
	24	152	1193.986	1413.993	-85.82745	1	1416.596	-3.473514	-2.503932E-005	0.0045481	8
	25	157	946.5144	1435.942	-92.20896	1	1438.9	-3.674201	2.825901E-005	-0.0065567	8
	26	159	751.7689	1441.583	-100.3364	1	1445.071	-3.981453	-2.715123E-005	0.0085572	8
	27	162	597.4265	1468.469	-104.492	1	1472.182	-4.07014	6.661886E-006	-0.007679	8
	28	165	477.4305	1476.537	-114.2772	1	1480.952	-4.42561	-5.194048E-007	0.0004908	8
	29	167	376.6741	1492.884	-126.5602	1	1498.239	-4.845701	-5.267481E-007	0.0005097	8
	30	169	298.2954	1509.651	-141.4557	1	1516.264	-5.353039	-5.237967E-007	0.0005162	8
	31	172	237.7717	1526.62	-160.0354	1	1534.986	-5.984452	-5.38919E-007	0.0004973	8
	32	174	189.0121	1544.608	-183.0483	1	1555.416	-6.758483	-5.33618E-007	0.0004951	8
	33	176	150.2404	1563.723	-211.334	1	1577.939	-7.696775	-5.849422E-007	0.0005353	8
	34	179	119.1737	1584.642	-247.8024	1	1603.9	-8.887793	-5.414593E-007	0.0005189	8
	35	181	95.0169	1605.904	-288.9978	1	1631.701	-10.20173	-5.309511E-007	0.0004913	8
	36	184	75.60484	1630.273	-341.3563	1	1665.627	-11.82608	-5.60163E-007	0.0005333	8
	37	186	54.50582	1668.288	-436.9889	1	1724.571	-14.6782	-5.646314E-007	0.0005297	8
	38	189	45.95588	1692.774	-499.1834	1	1764.842	-16.4303	-5.460001E-007	0.0004973	8
	39	191	37.20238	1725.986	-589.5647	1	1823.901	-18.85921	-5.914066E-007	0.0005439	8
	40	193	30.04808	1764.106	-699.6182	1	1897.771	-21.63254	-5.578676E-007	0.0005263	8
	41	196	23.91582	1811.995	-841.5663	1	1997.888	-24.91213	-5.97668E-007	0.0005159	8
	42	198	18.60119	1872.051	-1034.307	1	2138.777	-28.92061	-6.424382E-007	0.0005275	8
	43	200	15.02404	1937.776	-1230.624	1	2295.52	-32.41841	-5.450502E-007	0.0005414	8
	44	203	12.01923	2017.244	-1477.35	1	2500.367	-36.21758	-5.910492E-007	0.0004916	8
	45	205	9.450605	2125.119	-1800.701	1	2785.436	-40.27598	-5.59915E-007	0.0005004	8
	46	208	7.512019	2249.03	-2172.985	1	3127.299	-44.01478	-5.866689E-007	0.0004822	8
	47	210	5.978954	2406.686	-2619.851	1	3557.493	-47.42834	-5.98816E-007	0.0005288	8
	48	213	4.734848	2606.339	-3169.772	1	4103.712	-50.57132	-6.042641E-007	0.0005028	8
	49	217	3.75601	2867.392	-3829.132	1	4783.742	-53.17281	-2.71226E-007	0.0005351	7
	50	220	3.004808	3177.078	-4574.508	1	5569.556	-55.21933	-3.044289E-007	0.0005551	7
	51	224	2.372217	3593.447	-5513.65	1	6581.276	-56.90625	-2.846709E-007	0.0005372	7
	52	228	1.878005	4128.51	-6600.851	1	7785.617	-57.97603	-2.900481E-007	0.0004719	7
	53	233	1.512097	4750.556	-7781.512	1	9117.001	-58.59624	-2.924008E-007	0.000596	7
	54	238	1.201923	5574.852	-9238.409	1	10790.14	-58.89142	-2.847462E-007	0.0004706	7
	55	244	0.956633	6597.529	-10900.32	1	12741.45	-58.81516	-3.198926E-007	-0.0001371	7
