EXPLAIN
TAG	EISPOT
TITLE	LABEL	Potentiostatic EIS	Test Identifier
DATE	LABEL	9/6/2020	Date
TIME	LABEL	14:32:13	Time
NOTES	NOTES	1	Notes...
	
PSTAT	PSTAT	REF3000-16137	Potentiostat
VDC	POTEN	0.00000E+000	T	DC Voltage (V)
FREQINIT	QUANT	3.00000E+005	Initial Freq. (Hz)
FREQFINAL	QUANT	1.00000E+000	Final Freq. (Hz)
PTSPERDEC	QUANT	1.00000E+001	Points/decade
VAC	QUANT	5.00000E+001	AC Voltage (mV rms)
AREA	QUANT	1.00000E+000	Sample Area (cm^2)
SPEED	SELECTOR	2	Optimize for:
ZGUESS	QUANT	1.00000E+003	Estimated Z (ohms)
EOC	QUANT	0	Open Circuit (V)
SEQUENCER	TOGGLE	TRUE	Run as Sequence
PSTATMODEL	IQUANT	5	Pstat Model
PSTATSECTION	LABEL	REF3000-16137	Pstat Section
PSTATSERIALNO	LABEL	16137	Pstat Serial Number
CTRLMODE	IQUANT	1	Control Mode
IESTAB	IQUANT	0	I/E Stability
CASPEED	IQUANT	1	Control Amp Speed
CONVENTION	IQUANT	1	Current Convention
ICHRANGE	IQUANT	2	Ich Range
ICHRANGEMODE	TOGGLE	F	Ich Auto Range
ICHOFFSETENABLE	TOGGLE	T	Ich Offset Enable
ICHOFFSET	QUANT	0	Ich Offset (V)
ICHFILTER	IQUANT	3	Ich Filter
VCHRANGE	IQUANT	2	Vch Range
VCHRANGEMODE	TOGGLE	F	Vch Auto Range
VCHOFFSETENABLE	TOGGLE	T	Vch Offset Enable
VCHOFFSET	QUANT	0	Vch Offset (V)
VCHFILTER	IQUANT	3	Vch Filter
ACHRANGE	IQUANT	2	Ach Range
ACHOFFSETENABLE	TOGGLE	F	Ach Offset Enable
ACHOFFSET	QUANT	0	Ach Offset (V)
ACHFILTER	IQUANT	3	Ach Filter
IERANGELOWERLIMIT	IQUANT	2	I/E Range Lower Limit
IERANGEMODE	TOGGLE	F	I/E AutoRange
IERANGE	IQUANT	11	I/E Range
POSFEEDENABLE	TOGGLE	F	Positive Feedback IR Comp
POSFEEDRESISTANCE	QUANT	0	Positive Feedback Resistance (ohm)
ACHSELECT	IQUANT	0	Ach Select
CABLEID	IQUANT	13	Cable ID
DCCALDATE	LABEL	7/31/2020	DC Calibration Date
ACCALDATE	LABEL	7/31/2020	AC Calibration Date
THERMOSELECT	IQUANT	1	Thermo Select
FRAMEWORKVERSION	QUANT	6.33	Framework Version
INSTRUMENTVERSION	LABEL	3.50	Instrument Version
COMPLIANCEVOLTAGE	IQUANT	0	Compliance Voltage
ZCURVE	TABLE
	Pt	Time	Freq	Zreal	Zimag	Zsig	Zmod	Zphz	Idc	Vdc	IERange
	#	s	Hz	ohm	ohm	V	ohm	°	A	V	#
	0	16	300046.9	467.3986	-84.42793	1	474.9626	-10.23914	4.135453E-005	0.0008154	9
	1	24	238359.4	474.1954	-74.14172	1	479.9565	-8.886402	-4.65421E-005	0.0045171	9
	2	35	189328.1	483.8005	-61.74449	1	487.7246	-7.272992	0.0000988	-0.0012426	9
	3	43	150421.9	491.4955	-52.57259	1	494.2992	-6.105402	0.000136	-0.0038699	9
	4	53	119484.4	496.4275	-43.65855	1	498.3436	-5.025973	6.61556E-005	-0.0049322	9
	5	59	94921.88	501.8519	-37.71581	1	503.2671	-4.297886	1.450989E-006	0.0009638	9
	6	63	75421.88	538.509	-1.823344	1	538.5121	-0.1939977	3.046234E-005	-0.0088282	8
	7	66	59859.37	537.0488	1.001306	1	537.0497	0.1068255	-2.315662E-005	0.0102778	8
	8	68	47578.12	533.4268	2.219773	1	533.4315	0.2384261	2.972624E-005	-0.0106933	8
	9	71	37828.12	531.1038	2.003922	1	531.1075	0.2161833	2.24761E-005	-0.0102409	8
	10	73	30046.88	532.8168	1.030049	1	532.8177	0.1107649	1.200359E-006	0.0069096	8
	11	76	23859.38	529.947	-1.131435	1	529.9482	-0.1223261	2.470366E-005	-0.0106036	8
	12	79	18984.38	531.8585	-2.816635	1	531.866	-0.3034261	-1.49875E-006	0.0064257	8
	13	82	15046.87	532.3699	-4.985013	1	532.3932	-0.5364914	-2.088799E-006	0.0073953	8
	14	86	11953.13	535.9636	-8.659751	1	536.0335	-0.9256674	2.700337E-005	-0.0117523	8
	15	89	9515.62	538.6398	-11.49134	1	538.7623	-1.222162	1.505415E-005	-0.0098911	8
	16	92	7546.875	538.9132	-12.648	1	539.0616	-1.344454	-2.961089E-005	0.0088892	8
	17	94	5928.309	543.9265	-16.59921	1	544.1797	-1.747974	2.39314E-005	-0.0104088	8
	18	96	4733.456	547.8496	-17.80557	1	548.1389	-1.861505	3.115772E-005	-0.0089959	8
	19	99	3796.875	548.2539	-21.4362	1	548.6728	-2.239069	-1.770101E-005	-0.0001109	8
	20	103	2987.132	554.4733	-23.78309	1	554.9832	-2.456089	2.835593E-005	-0.0101271	8
	21	105	2390.625	557.0966	-25.43407	1	557.6768	-2.614006	2.503415E-005	-0.01082	8
	22	108	1884.191	563.2548	-27.79667	1	563.9403	-2.825259	-2.403505E-006	0.0076155	8
	23	110	1516.544	567.3437	-32.80315	1	568.2912	-3.309091	1.633637E-005	-0.009722	8
	24	113	1193.986	571.1059	-35.82961	1	572.2287	-3.589874	2.818237E-005	-0.0057374	8
	25	116	946.5144	578.4539	-44.1077	1	580.1331	-4.360424	-2.419172E-005	0.0109263	8
	26	118	751.7689	580.7115	-48.07215	1	582.6979	-4.732238	2.88804E-005	-0.0103814	8
	27	121	597.4265	587.6445	-59.09978	1	590.6089	-5.742963	1.718212E-005	-0.009901	8
	28	123	477.4305	592.2017	-66.32452	1	595.9041	-6.390298	-7.292335E-007	0.0005043	8
	29	125	376.6741	598.2616	-78.22878	1	603.3545	-7.449738	-6.675806E-007	0.0004846	8
	30	128	298.2954	604.748	-92.57633	1	611.7928	-8.703415	-6.615739E-007	0.0004684	8
	31	130	237.7717	611.91	-109.6821	1	621.6624	-10.16209	-7.195314E-007	0.0005004	8
	32	133	189.0121	620.0005	-130.7288	1	633.6329	-11.90657	-6.682868E-007	0.0004722	8
	33	135	150.2404	629.1241	-156.3994	1	648.2731	-13.96064	-7.054226E-007	0.0004986	8
	34	137	119.1737	639.925	-188.1839	1	667.0211	-16.38713	-6.549089E-007	0.0004765	8
	35	140	95.0169	651.6867	-225.7813	1	689.6904	-19.109	-7.175113E-007	0.000525	8
	36	142	75.60484	665.9942	-272.0441	1	719.4138	-22.21895	-7.154409E-007	0.0005153	8
	37	145	54.50582	690.6799	-356.2422	1	777.1404	-27.284	-6.454072E-007	0.0004676	8
	38	147	45.95588	707.0551	-410.1974	1	817.4282	-30.12013	-6.860212E-007	0.0004734	8
	39	150	37.20238	730.3611	-488.8814	1	878.8813	-33.79714	-7.302147E-007	0.0005108	8
	40	152	30.04808	758.6583	-583.7402	1	957.243	-37.57603	-6.692981E-007	0.0005034	8
	41	154	23.91582	795.5151	-705.6441	1	1063.38	-41.57392	-6.597096E-007	0.0004733	8
	42	157	18.60119	845.4804	-870.5693	1	1213.56	-45.83761	-8.04065E-007	0.0005052	8
	43	159	15.02404	899.5014	-1038.25	1	1373.706	-49.09557	-6.214884E-007	0.0004899	8
	44	161	12.01923	967.987	-1248.124	1	1579.497	-52.20451	-6.851034E-007	0.0004902	8
	45	164	9.450605	1062.046	-1521.457	1	1855.472	-55.08321	-7.123443E-007	0.0005059	8
	46	166	7.512019	1175.403	-1832.954	1	2177.451	-57.3295	-7.708134E-007	0.0004997	8
	47	169	5.978954	1317.543	-2204.179	1	2567.942	-59.13123	-7.11046E-007	0.0005075	8
	48	172	4.734848	1503.88	-2653.549	1	3050.078	-60.45791	-6.837819E-007	0.0004679	8
	49	175	3.75601	1739.397	-3181.203	1	3625.68	-61.33134	-6.585452E-007	0.0005293	8
	50	179	3.004808	2028.775	-3785.739	1	4295.084	-61.81318	-4.630467E-007	0.0004417	7
	51	182	2.372217	2417.224	-4516.326	1	5122.516	-61.84346	-4.71615E-007	0.0004366	7
	52	187	1.878005	2907.016	-5363.433	1	6100.586	-61.54202	-4.522449E-007	0.0004533	7
	53	191	1.512097	3456.803	-6258.844	1	7150.008	-61.08783	-4.668418E-007	0.0005346	7
	54	197	1.201923	4207.33	-7331.368	1	8452.845	-60.14932	-4.56933E-007	0.0005042	7
	55	203	0.956633	5116.065	-8520.317	1	9938.31	-59.01709	-5.080748E-007	-0.0001616	7
