EXPLAIN
TAG	EISPOT
TITLE	LABEL	Potentiostatic EIS	Test Identifier
DATE	LABEL	9/6/2020	Date
TIME	LABEL	15:48:12	Time
NOTES	NOTES	1	Notes...
	
PSTAT	PSTAT	REF3000-16137	Potentiostat
VDC	POTEN	0.00000E+000	T	DC Voltage (V)
FREQINIT	QUANT	3.00000E+005	Initial Freq. (Hz)
FREQFINAL	QUANT	1.00000E+000	Final Freq. (Hz)
PTSPERDEC	QUANT	1.00000E+001	Points/decade
VAC	QUANT	5.00000E+001	AC Voltage (mV rms)
AREA	QUANT	1.00000E+000	Sample Area (cm^2)
SPEED	SELECTOR	2	Optimize for:
ZGUESS	QUANT	1.00000E+003	Estimated Z (ohms)
EOC	QUANT	0	Open Circuit (V)
SEQUENCER	TOGGLE	TRUE	Run as Sequence
PSTATMODEL	IQUANT	5	Pstat Model
PSTATSECTION	LABEL	REF3000-16137	Pstat Section
PSTATSERIALNO	LABEL	16137	Pstat Serial Number
CTRLMODE	IQUANT	1	Control Mode
IESTAB	IQUANT	0	I/E Stability
CASPEED	IQUANT	1	Control Amp Speed
CONVENTION	IQUANT	1	Current Convention
ICHRANGE	IQUANT	2	Ich Range
ICHRANGEMODE	TOGGLE	F	Ich Auto Range
ICHOFFSETENABLE	TOGGLE	T	Ich Offset Enable
ICHOFFSET	QUANT	0	Ich Offset (V)
ICHFILTER	IQUANT	3	Ich Filter
VCHRANGE	IQUANT	2	Vch Range
VCHRANGEMODE	TOGGLE	F	Vch Auto Range
VCHOFFSETENABLE	TOGGLE	T	Vch Offset Enable
VCHOFFSET	QUANT	0	Vch Offset (V)
VCHFILTER	IQUANT	3	Vch Filter
ACHRANGE	IQUANT	2	Ach Range
ACHOFFSETENABLE	TOGGLE	F	Ach Offset Enable
ACHOFFSET	QUANT	0	Ach Offset (V)
ACHFILTER	IQUANT	3	Ach Filter
IERANGELOWERLIMIT	IQUANT	2	I/E Range Lower Limit
IERANGEMODE	TOGGLE	F	I/E AutoRange
IERANGE	IQUANT	11	I/E Range
POSFEEDENABLE	TOGGLE	F	Positive Feedback IR Comp
POSFEEDRESISTANCE	QUANT	0	Positive Feedback Resistance (ohm)
ACHSELECT	IQUANT	0	Ach Select
CABLEID	IQUANT	13	Cable ID
DCCALDATE	LABEL	7/31/2020	DC Calibration Date
ACCALDATE	LABEL	7/31/2020	AC Calibration Date
THERMOSELECT	IQUANT	1	Thermo Select
FRAMEWORKVERSION	QUANT	6.33	Framework Version
INSTRUMENTVERSION	LABEL	3.50	Instrument Version
COMPLIANCEVOLTAGE	IQUANT	0	Compliance Voltage
ZCURVE	TABLE
	Pt	Time	Freq	Zreal	Zimag	Zsig	Zmod	Zphz	Idc	Vdc	IERange
	#	s	Hz	ohm	ohm	V	ohm	°	A	V	#
	0	18	300046.9	85.23161	-4116.762	1	4117.645	-88.81394	1.667215E-005	-0.0024083	9
	1	32	238359.4	197.4128	-5126.758	1	5130.557	-87.79484	1.952593E-005	-0.0023078	9
	2	55	189328.1	297.6418	-6323.929	1	6330.93	-87.30531	-3.131695E-005	-0.0010017	9
	3	66	150421.9	531.2371	-7722.557	1	7740.808	-86.0648	2.701279E-006	0.0016447	9
	4	74	119484.4	1143.537	-9985.54	1	10050.8	-83.46699	7.784955E-005	-0.023892	8
	5	81	94921.88	1303.878	-12274.69	1	12343.74	-83.93649	2.365604E-005	-0.0032919	8
	6	90	75421.88	1654.417	-15390.72	1	15479.38	-83.86458	-2.709411E-005	0.007907	8
	7	98	59859.37	2254.861	-19477.78	1	19607.87	-83.3965	2.653839E-005	-0.0056119	8
	8	107	47578.12	6106.151	-25103.73	1	25835.68	-76.32904	-1.354505E-006	-0.0123274	7
	9	114	37828.12	7533.613	-30570.72	1	31485.3	-76.15631	2.964744E-006	0.0072416	7
	10	122	30046.88	9399.75	-37809.95	1	38960.85	-76.03899	6.766962E-007	0.0151526	7
	11	129	23859.38	12902.81	-46744.59	1	48492.68	-74.56901	3.197253E-006	0.0060887	7
	12	135	18984.38	16198.92	-56108.13	1	58399.71	-73.8961	5.035843E-006	-0.0269033	7
	13	140	15046.87	23117.39	-70625.84	1	74313.02	-71.87559	7.659864E-006	-0.019171	7
	14	145	11953.13	30554.82	-82616.55	1	88085.71	-69.70364	7.298502E-006	-0.0237884	7
	15	152	9515.62	41290.67	-97722.6	1	106087.8	-67.09451	6.60031E-006	-0.0269876	7
	16	158	7546.875	57483.6	-116216	1	129655.4	-63.68174	-3.645131E-006	0.0255202	7
	17	164	5928.309	83203.62	-128778.8	1	153319.4	-57.13362	1.041692E-006	-0.0192004	7
	18	171	4733.456	132508.6	-160076.6	1	207805.4	-50.38263	-4.987921E-007	0.0020383	6
	19	175	3796.875	160360.3	-170068.6	1	233749.3	-46.68293	-5.136908E-007	0.0032677	6
	20	179	2987.132	194147.6	-174945.2	1	261341	-42.02182	-1.965196E-007	0.0216467	6
	21	184	2390.625	225329.4	-284204.1	1	362691.7	-51.59109	7.122766E-006	-0.0180101	7
	22	190	1884.191	219362.3	-183546.6	1	286023	-39.92016	-5.123489E-006	0.0262002	7
	23	197	1516.544	168699.6	-357048.8	1	394896.7	-64.71004	1.555058E-005	-0.0093556	8
	24	204	1193.986	409500.1	-254718.5	1	482257	-31.88256	1.022068E-006	-0.0192641	7
	25	212	946.5144	353906.1	-190755.7	1	402041.3	-28.3247	-7.467935E-008	-0.0144199	6
	26	216	751.7689	350759.3	-179446.4	1	393996.4	-27.09402	-5.031505E-007	0.0018963	6
	27	219	597.4265	390966.9	-150959.4	1	419098.9	-21.11247	4.421074E-007	0.0011928	6
	28	223	477.4305	416602.2	-179212.4	1	453513.5	-23.27623	-1.090422E-008	0.0005304	6
	29	227	376.6741	634153.6	-147111	1	650993.4	-13.06047	-1.415806E-009	0.0005458	5
	30	230	298.2954	638982.9	-141886.5	1	654546.4	-12.51944	-2.063054E-009	0.0005292	5
	31	232	237.7717	641386.1	-144111.6	1	657376.8	-12.66335	-1.886921E-009	0.0005154	5
	32	235	189.0121	653125.7	-161670	1	672837.6	-13.90312	-2.195147E-009	0.0005207	5
	33	238	150.2404	664899	-177145.1	1	688092.3	-14.91844	-2.142658E-009	0.0005766	5
	34	241	119.1737	601528.5	-207314.8	1	636251.5	-19.01634	-1.527095E-009	0.0005278	5
	35	243	95.0169	700158.6	-253078.2	1	744493.6	-19.87282	-1.663899E-009	0.0005543	5
	36	246	75.60484	713337.8	-289978.8	1	770024.9	-22.12222	-1.501363E-009	0.0005888	5
	37	249	54.50582	777353.4	-354496.7	1	854368.9	-24.51442	-1.984917E-009	0.00051	5
	38	252	45.95588	803714.3	-404440.6	1	899738.3	-26.7122	-1.941203E-009	0.0005796	5
	39	255	37.20238	886537.1	-448368.9	1	993470	-26.82815	-1.716156E-009	0.0006057	5
	40	258	30.04808	929507.9	-509932.6	1	1060196	-28.74939	-1.861515E-009	0.000513	5
	41	260	23.91582	990723	-611728.1	1	1164364	-31.69351	-2.668845E-009	0.0005835	5
	42	263	18.60119	1078690	-700617	1	1286249	-33.00402	-1.687699E-009	0.0005778	5
	43	265	15.02404	1175669	-743027.1	1	1390786	-32.29305	-2.057024E-009	0.0005181	5
	44	268	12.01923	1275847	-822478.3	1	1517978	-32.80796	-2.009033E-009	0.0005123	5
	45	270	9.450605	1389234	-930806.4	1	1672236	-33.82264	-1.975787E-009	0.000618	5
	46	273	7.512019	1511728	-1037809	1	1833676	-34.4698	-2.071641E-009	0.0005478	5
	47	276	5.978954	1660305	-1132918	1	2010004	-34.30788	-2.085248E-009	0.0006006	5
	48	281	4.734848	1819614	-1286536	1	2228491	-35.26174	-1.937261E-009	0.000503	5
	49	285	3.75601	1998074	-1454780	1	2471575	-36.05802	-1.765152E-009	0.000594	5
	50	291	3.004808	2173313	-1582877	1	2688641	-36.06676	-1.17171E-008	0.0005896	6
	51	299	2.372217	2428600	-1779425	1	3010723	-36.23009	-1.831697E-009	0.000627	5
	52	304	1.878005	2667622	-1989623	1	3327883	-36.7171	-1.926289E-009	0.000585	5
	53	311	1.512097	2915491	-2212912	1	3660200	-37.19919	-1.940792E-009	0.0006899	5
	54	317	1.201923	3218038	-2489850	1	4068799	-37.72972	-1.885329E-009	0.0005267	5
	55	325	0.956633	4165961	-3117954	1	5203544	-36.81249	-6.60617E-010	-6.734243E-005	4
