EXPLAIN
TAG	EISPOT
TITLE	LABEL	Potentiostatic EIS	Test Identifier
DATE	LABEL	9/6/2020	Date
TIME	LABEL	15:01:30	Time
NOTES	NOTES	1	Notes...
	
PSTAT	PSTAT	REF3000-16137	Potentiostat
VDC	POTEN	0.00000E+000	T	DC Voltage (V)
FREQINIT	QUANT	3.00000E+005	Initial Freq. (Hz)
FREQFINAL	QUANT	1.00000E+000	Final Freq. (Hz)
PTSPERDEC	QUANT	1.00000E+001	Points/decade
VAC	QUANT	5.00000E+001	AC Voltage (mV rms)
AREA	QUANT	1.00000E+000	Sample Area (cm^2)
SPEED	SELECTOR	2	Optimize for:
ZGUESS	QUANT	1.00000E+003	Estimated Z (ohms)
EOC	QUANT	0	Open Circuit (V)
SEQUENCER	TOGGLE	TRUE	Run as Sequence
PSTATMODEL	IQUANT	5	Pstat Model
PSTATSECTION	LABEL	REF3000-16137	Pstat Section
PSTATSERIALNO	LABEL	16137	Pstat Serial Number
CTRLMODE	IQUANT	1	Control Mode
IESTAB	IQUANT	0	I/E Stability
CASPEED	IQUANT	1	Control Amp Speed
CONVENTION	IQUANT	1	Current Convention
ICHRANGE	IQUANT	2	Ich Range
ICHRANGEMODE	TOGGLE	F	Ich Auto Range
ICHOFFSETENABLE	TOGGLE	T	Ich Offset Enable
ICHOFFSET	QUANT	0	Ich Offset (V)
ICHFILTER	IQUANT	3	Ich Filter
VCHRANGE	IQUANT	2	Vch Range
VCHRANGEMODE	TOGGLE	F	Vch Auto Range
VCHOFFSETENABLE	TOGGLE	T	Vch Offset Enable
VCHOFFSET	QUANT	0	Vch Offset (V)
VCHFILTER	IQUANT	3	Vch Filter
ACHRANGE	IQUANT	2	Ach Range
ACHOFFSETENABLE	TOGGLE	F	Ach Offset Enable
ACHOFFSET	QUANT	0	Ach Offset (V)
ACHFILTER	IQUANT	3	Ach Filter
IERANGELOWERLIMIT	IQUANT	2	I/E Range Lower Limit
IERANGEMODE	TOGGLE	F	I/E AutoRange
IERANGE	IQUANT	11	I/E Range
POSFEEDENABLE	TOGGLE	F	Positive Feedback IR Comp
POSFEEDRESISTANCE	QUANT	0	Positive Feedback Resistance (ohm)
ACHSELECT	IQUANT	0	Ach Select
CABLEID	IQUANT	13	Cable ID
DCCALDATE	LABEL	7/31/2020	DC Calibration Date
ACCALDATE	LABEL	7/31/2020	AC Calibration Date
THERMOSELECT	IQUANT	1	Thermo Select
FRAMEWORKVERSION	QUANT	6.33	Framework Version
INSTRUMENTVERSION	LABEL	3.50	Instrument Version
COMPLIANCEVOLTAGE	IQUANT	0	Compliance Voltage
ZCURVE	TABLE
	Pt	Time	Freq	Zreal	Zimag	Zsig	Zmod	Zphz	Idc	Vdc	IERange
	#	s	Hz	ohm	ohm	V	ohm	°	A	V	#
	0	18	300046.9	1516.922	-2102.576	1	2592.659	-54.1911	2.782398E-006	0.0012198	9
	1	35	238359.4	1913.181	-2276.702	1	2973.824	-49.95866	-9.01936E-006	0.0009727	9
	2	68	189328.1	2376.695	-2468.737	1	3426.856	-46.08823	0.0000979	-0.0032842	9
	3	80	150421.9	2859.7	-2507.735	1	3803.501	-41.24826	-5.165565E-005	-9.207071E-005	9
	4	89	119484.4	3363.628	-2569.602	1	4232.83	-37.37757	1.423928E-005	-0.0015125	9
	5	96	94921.88	4005.816	-2450.823	1	4696.072	-31.45897	-2.344416E-006	0.0077404	8
	6	103	75421.88	4452.343	-2383.182	1	5050.041	-28.15857	7.338655E-006	0.0045509	8
	7	111	59859.37	4900.853	-2291.054	1	5409.925	-25.05518	-2.636826E-005	0.0094864	8
	8	118	47578.12	5269.524	-2166.194	1	5697.393	-22.34656	2.762107E-005	-0.0059664	8
	9	126	37828.12	5605.463	-2052.816	1	5969.529	-20.11359	8.110561E-006	-0.0080077	8
	10	133	30046.88	7114.511	-1514.344	1	7273.892	-12.01624	-2.231013E-006	-0.0083873	7
	11	137	23859.38	7290.125	-1325.166	1	7409.587	-10.30248	3.348322E-006	0.0035367	7
	12	141	18984.38	7410.668	-1191.938	1	7505.912	-9.137243	-2.08253E-006	-0.0081831	7
	13	145	15046.87	7499.325	-1091.117	1	7578.285	-8.278183	5.601864E-006	-0.0250939	7
	14	148	11953.13	7690.576	-1040.089	1	7760.589	-7.702063	-2.298376E-006	-0.0090289	7
	15	153	9515.62	7782.332	-1054.698	1	7853.476	-7.717971	6.927542E-006	-0.0201311	7
	16	156	7546.875	7907.682	-1047.481	1	7976.757	-7.545683	5.135814E-006	-0.0048084	7
	17	160	5928.309	8069.613	-1086.948	1	8142.488	-7.671367	-2.812115E-008	-0.0150672	7
	18	164	4733.456	8284.598	-1129.557	1	8361.247	-7.764077	5.601732E-006	-0.0251981	7
	19	169	3796.875	8446.847	-1205.367	1	8532.416	-8.121293	2.129541E-006	-0.0202781	7
	20	172	2987.132	8702.278	-1296.729	1	8798.36	-8.475297	6.38476E-006	-0.0130199	7
	21	177	2390.625	8906.017	-1349.21	1	9007.636	-8.614477	2.109077E-006	-0.0204113	7
	22	181	1884.191	9234.633	-1378.917	1	9337.016	-8.492671	2.07825E-006	-0.0203308	7
	23	185	1516.544	9525.5	-1485.512	1	9640.64	-8.863941	3.370906E-006	0.0036003	7
	24	190	1193.986	9857.41	-1564.18	1	9980.75	-9.016548	-6.584677E-006	0.0142977	7
	25	194	946.5144	10229.23	-1547.478	1	10345.61	-8.602479	5.090886E-006	-0.0050216	7
	26	197	751.7689	10519.79	-1572.132	1	10636.61	-8.499676	7.062947E-006	-0.0204728	7
	27	199	597.4265	10869.79	-1623.161	1	10990.31	-8.493093	-2.62445E-006	0.0216803	7
	28	202	477.4305	11045.56	-1623.624	1	11164.25	-8.362217	-1.678398E-007	0.0005436	7
	29	204	376.6741	11345.68	-1622.68	1	11461.13	-8.139349	-1.604498E-007	0.000506	7
	30	206	298.2954	11621.78	-1618.655	1	11733.96	-7.929019	-1.656896E-007	0.0005562	7
	31	209	237.7717	11924.09	-1617.237	1	12033.26	-7.723766	-1.624734E-007	0.0005332	7
	32	211	189.0121	12213.18	-1615.136	1	12319.51	-7.533387	-1.710025E-007	0.0005487	7
	33	214	150.2404	12494.9	-1620.036	1	12599.48	-7.387519	-1.615617E-007	0.0004709	7
	34	217	119.1737	12844.17	-1593.623	1	12942.65	-7.072751	-1.596251E-007	0.0004892	7
	35	219	95.0169	13050.1	-1638.401	1	13152.55	-7.155874	-1.715697E-007	0.0004903	7
	36	221	75.60484	13309.59	-1662.011	1	13412.96	-7.117864	-1.69345E-007	0.0004819	7
	37	224	54.50582	13674.73	-1783.144	1	13790.5	-7.429278	-1.65722E-007	0.0005409	7
	38	226	45.95588	13887.47	-1793.72	1	14002.83	-7.359638	-1.669816E-007	0.0004723	7
	39	229	37.20238	14137.32	-1881.258	1	14261.94	-7.579837	-1.618537E-007	0.0005542	7
	40	231	30.04808	14399.76	-2001.554	1	14538.2	-7.913361	-1.773422E-007	0.0005502	7
	41	234	23.91582	14685.98	-2141.419	1	14841.28	-8.296052	-1.501513E-007	0.0005414	7
	42	236	18.60119	15006.54	-2392.965	1	15196.13	-9.060193	-1.94646E-007	0.0004768	7
	43	239	15.02404	15291.29	-2598.106	1	15510.44	-9.6429	-1.331645E-007	0.000552	7
	44	241	12.01923	15588.54	-2886.885	1	15853.6	-10.4919	-1.493637E-007	0.0004693	7
	45	244	9.450605	15917.89	-3293.808	1	16255.11	-11.69092	-1.473688E-007	0.0005001	7
	46	246	7.512019	16269.02	-3721.811	1	16689.3	-12.88564	-1.869975E-007	0.0004766	7
	47	249	5.978954	16691.42	-4294.531	1	17235.03	-14.42867	-1.704487E-007	0.0005142	7
	48	253	4.734848	17140.28	-4983.337	1	17850.01	-16.21118	-1.834404E-007	0.0005275	7
	49	257	3.75601	17682.29	-5826.36	1	18617.46	-18.23718	-1.677643E-007	0.0005692	7
	50	262	3.004808	18314.34	-6818.836	1	19542.56	-20.42142	-1.627641E-007	0.00053	7
	51	269	2.372217	19057.42	-8065.258	1	20693.8	-22.93849	-1.739066E-007	0.0004377	7
	52	273	1.878005	19822.02	-9599.86	1	22024.3	-25.84104	-1.630844E-007	0.0005198	7
	53	278	1.512097	20700.66	-11278.12	1	23573.57	-28.58242	-1.65304E-007	0.0004325	7
	54	283	1.201923	21838.46	-13440.61	1	25643.1	-31.61047	-1.689624E-007	0.000537	7
	55	289	0.956633	23203.69	-16011.67	1	28191.93	-34.60756	-1.830403E-007	-0.0001297	7
