EXPLAIN
TAG	EISPOT
TITLE	LABEL	Potentiostatic EIS	Test Identifier
DATE	LABEL	9/6/2020	Date
TIME	LABEL	14:35:45	Time
NOTES	NOTES	1	Notes...
	
PSTAT	PSTAT	REF3000-16137	Potentiostat
VDC	POTEN	0.00000E+000	T	DC Voltage (V)
FREQINIT	QUANT	3.00000E+005	Initial Freq. (Hz)
FREQFINAL	QUANT	1.00000E+000	Final Freq. (Hz)
PTSPERDEC	QUANT	1.00000E+001	Points/decade
VAC	QUANT	5.00000E+001	AC Voltage (mV rms)
AREA	QUANT	1.00000E+000	Sample Area (cm^2)
SPEED	SELECTOR	2	Optimize for:
ZGUESS	QUANT	1.00000E+003	Estimated Z (ohms)
EOC	QUANT	0	Open Circuit (V)
SEQUENCER	TOGGLE	TRUE	Run as Sequence
PSTATMODEL	IQUANT	5	Pstat Model
PSTATSECTION	LABEL	REF3000-16137	Pstat Section
PSTATSERIALNO	LABEL	16137	Pstat Serial Number
CTRLMODE	IQUANT	1	Control Mode
IESTAB	IQUANT	0	I/E Stability
CASPEED	IQUANT	1	Control Amp Speed
CONVENTION	IQUANT	1	Current Convention
ICHRANGE	IQUANT	2	Ich Range
ICHRANGEMODE	TOGGLE	F	Ich Auto Range
ICHOFFSETENABLE	TOGGLE	T	Ich Offset Enable
ICHOFFSET	QUANT	0	Ich Offset (V)
ICHFILTER	IQUANT	3	Ich Filter
VCHRANGE	IQUANT	2	Vch Range
VCHRANGEMODE	TOGGLE	F	Vch Auto Range
VCHOFFSETENABLE	TOGGLE	T	Vch Offset Enable
VCHOFFSET	QUANT	0	Vch Offset (V)
VCHFILTER	IQUANT	3	Vch Filter
ACHRANGE	IQUANT	2	Ach Range
ACHOFFSETENABLE	TOGGLE	F	Ach Offset Enable
ACHOFFSET	QUANT	0	Ach Offset (V)
ACHFILTER	IQUANT	3	Ach Filter
IERANGELOWERLIMIT	IQUANT	2	I/E Range Lower Limit
IERANGEMODE	TOGGLE	F	I/E AutoRange
IERANGE	IQUANT	11	I/E Range
POSFEEDENABLE	TOGGLE	F	Positive Feedback IR Comp
POSFEEDRESISTANCE	QUANT	0	Positive Feedback Resistance (ohm)
ACHSELECT	IQUANT	0	Ach Select
CABLEID	IQUANT	13	Cable ID
DCCALDATE	LABEL	7/31/2020	DC Calibration Date
ACCALDATE	LABEL	7/31/2020	AC Calibration Date
THERMOSELECT	IQUANT	1	Thermo Select
FRAMEWORKVERSION	QUANT	6.33	Framework Version
INSTRUMENTVERSION	LABEL	3.50	Instrument Version
COMPLIANCEVOLTAGE	IQUANT	0	Compliance Voltage
ZCURVE	TABLE
	Pt	Time	Freq	Zreal	Zimag	Zsig	Zmod	Zphz	Idc	Vdc	IERange
	#	s	Hz	ohm	ohm	V	ohm	°	A	V	#
	0	17	300046.9	557.0251	-122.9469	1	570.4323	-12.44679	-0.0001426	0.0058291	9
	1	25	238359.4	574.0014	-105.718	1	583.6556	-10.43564	-0.0001383	0.0046659	9
	2	40	189328.1	587.0592	-90.38596	1	593.9766	-8.752755	0.0001384	-0.0053023	9
	3	48	150421.9	597.3673	-78.03098	1	602.4421	-7.442112	7.325537E-005	0.0001137	9
	4	56	119484.4	607.7032	-66.58839	1	611.3405	-6.253173	6.933071E-005	-0.00505	9
	5	63	94921.88	665.605	-19.95135	1	665.9039	-1.716913	9.963146E-006	-0.009224	8
	6	66	75421.88	665.1467	-12.59293	1	665.2659	-1.084626	1.157522E-006	-0.0069513	8
	7	68	59859.37	662.3132	-9.68431	1	662.384	-0.8377167	9.46596E-006	-0.0089595	8
	8	71	47578.12	660.577	-6.022503	1	660.6044	-0.5223532	7.044508E-006	0.0049545	8
	9	74	37828.12	659.3527	-4.579068	1	659.3686	-0.397901	2.354959E-005	-0.0018413	8
	10	77	30046.88	659.0856	-4.974675	1	659.1044	-0.4324514	-2.953941E-005	0.0072991	8
	11	79	23859.38	658.4979	-5.784809	1	658.5233	-0.5033222	1.579769E-005	0.0018039	8
	12	82	18984.38	661.9365	-8.515805	1	661.9912	-0.7370689	-1.644957E-005	0.010363	8
	13	85	15046.87	663.7006	-10.84813	1	663.7892	-0.936411	-2.619312E-005	0.0042289	8
	14	89	11953.13	665.5468	-13.67022	1	665.6871	-1.17668	-3.101165E-005	0.0094327	8
	15	92	9515.62	670.4623	-16.58431	1	670.6674	-1.416959	2.488208E-005	-0.0023842	8
	16	94	7546.875	674.7155	-19.2237	1	674.9893	-1.632004	3.270824E-005	-0.0093993	8
	17	97	5928.309	678.9641	-22.25824	1	679.3289	-1.877635	1.542794E-005	0.0017718	8
	18	100	4733.456	685.8926	-23.97998	1	686.3117	-2.002343	1.833125E-005	-0.0104441	8
	19	103	3796.875	691.8404	-29.11232	1	692.4526	-2.409558	3.09155E-005	-0.0109746	8
	20	105	2987.132	698.8678	-29.77561	1	699.5018	-2.43964	-1.879434E-005	-5.894835E-006	8
	21	108	2390.625	703.4019	-32.03513	1	704.131	-2.607628	-9.338188E-006	-0.0034783	8
	22	111	1884.191	710.65	-36.62665	1	711.5933	-2.950393	1.584576E-005	0.0017687	8
	23	114	1516.544	715.5472	-37.66464	1	716.5378	-3.013128	3.044683E-005	-0.006248	8
	24	117	1193.986	721.7709	-44.93068	1	723.1681	-3.5621	3.282958E-005	-0.0093402	8
	25	120	946.5144	727.9188	-50.29314	1	729.6541	-3.952382	9.308305E-006	-0.0089473	8
	26	123	751.7689	734.6779	-54.62841	1	736.7061	-4.252514	9.455896E-006	-0.0088941	8
	27	125	597.4265	741.8558	-59.848	1	744.266	-4.612255	-9.205103E-006	-0.0036547	8
	28	128	477.4305	749.7242	-73.85503	1	753.3531	-5.626032	-6.560707E-007	0.000518	8
	29	130	376.6741	757.481	-86.12712	1	762.3617	-6.486787	-6.260209E-007	0.000478	8
	30	133	298.2954	765.6063	-100.9621	1	772.2347	-7.512365	-6.009886E-007	0.000485	8
	31	135	237.7717	774.4641	-118.5594	1	783.4865	-8.703594	-6.566679E-007	0.0005118	8
	32	137	189.0121	784.1743	-140.3642	1	796.6376	-10.14825	-6.625642E-007	0.0005208	8
	33	140	150.2404	794.9849	-166.8592	1	812.3071	-11.85373	-6.270301E-007	0.0005097	8
	34	142	119.1737	807.6153	-200.0493	1	832.0229	-13.91235	-5.884981E-007	0.0004942	8
	35	145	95.0169	821.0522	-238.9055	1	855.1039	-16.22366	-6.197513E-007	0.0004751	8
	36	147	75.60484	837.1545	-286.9674	1	884.9734	-18.92116	-6.140268E-007	0.0004908	8
	37	150	54.50582	864.1662	-374.6686	1	941.8916	-23.43966	-6.280059E-007	0.0005058	8
	38	152	45.95588	882.1022	-430.8686	1	981.709	-26.0335	-5.728656E-007	0.0004769	8
	39	154	37.20238	907.2509	-512.8801	1	1042.185	-29.48001	-6.433654E-007	0.0005074	8
	40	157	30.04808	937.4236	-612.0617	1	1119.546	-33.14128	-6.494549E-007	0.0005068	8
	41	159	23.91582	976.209	-739.8555	1	1224.896	-37.15799	-6.344145E-007	0.0004738	8
	42	162	18.60119	1028.544	-911.306	1	1374.184	-41.54143	-5.492027E-007	0.0004713	8
	43	164	15.02404	1084.4	-1088.24	1	1536.29	-45.10126	-6.716278E-007	0.0004841	8
	44	166	12.01923	1155.332	-1308.129	1	1745.277	-48.54924	-6.614987E-007	0.000526	8
	45	169	9.450605	1251.356	-1593.939	1	2026.459	-51.86555	-6.312377E-007	0.0005232	8
	46	171	7.512019	1367.611	-1925.13	1	2361.458	-54.61004	-6.628663E-007	0.0005053	8
	47	174	5.978954	1513.456	-2315.436	1	2766.187	-56.82985	-6.438242E-007	0.0004968	8
	48	177	4.734848	1704.522	-2793.271	1	3272.272	-58.60744	-6.558786E-007	0.000493	8
	49	180	3.75601	1944.03	-3356.804	1	3879.096	-59.92353	-5.959333E-007	0.0004973	8
	50	184	3.004808	2241.46	-4003.606	1	4588.355	-60.75726	-3.770481E-007	0.000412	7
	51	187	2.372217	2635.595	-4802.569	1	5478.232	-61.24252	-4.130526E-007	0.0004171	7
	52	191	1.878005	3136.504	-5706.932	1	6512.044	-61.207	-3.996315E-007	0.0004875	7
	53	196	1.512097	3717.412	-6670.603	1	7636.497	-60.86983	-3.980648E-007	0.0003813	7
	54	202	1.201923	4478.51	-7864.327	1	9050.121	-60.33972	-4.014699E-007	0.0005042	7
	55	208	0.956633	5421.387	-9189.674	1	10669.66	-59.4618	-4.203072E-007	-0.0001646	7
