EXPLAIN
TAG	EISPOT
TITLE	LABEL	Potentiostatic EIS	Test Identifier
DATE	LABEL	9/6/2020	Date
TIME	LABEL	14:56:28	Time
NOTES	NOTES	1	Notes...
	
PSTAT	PSTAT	REF3000-16137	Potentiostat
VDC	POTEN	0.00000E+000	T	DC Voltage (V)
FREQINIT	QUANT	3.00000E+005	Initial Freq. (Hz)
FREQFINAL	QUANT	1.00000E+000	Final Freq. (Hz)
PTSPERDEC	QUANT	1.00000E+001	Points/decade
VAC	QUANT	5.00000E+001	AC Voltage (mV rms)
AREA	QUANT	1.00000E+000	Sample Area (cm^2)
SPEED	SELECTOR	2	Optimize for:
ZGUESS	QUANT	1.00000E+003	Estimated Z (ohms)
EOC	QUANT	0	Open Circuit (V)
SEQUENCER	TOGGLE	TRUE	Run as Sequence
PSTATMODEL	IQUANT	5	Pstat Model
PSTATSECTION	LABEL	REF3000-16137	Pstat Section
PSTATSERIALNO	LABEL	16137	Pstat Serial Number
CTRLMODE	IQUANT	1	Control Mode
IESTAB	IQUANT	0	I/E Stability
CASPEED	IQUANT	1	Control Amp Speed
CONVENTION	IQUANT	1	Current Convention
ICHRANGE	IQUANT	2	Ich Range
ICHRANGEMODE	TOGGLE	F	Ich Auto Range
ICHOFFSETENABLE	TOGGLE	T	Ich Offset Enable
ICHOFFSET	QUANT	0	Ich Offset (V)
ICHFILTER	IQUANT	3	Ich Filter
VCHRANGE	IQUANT	2	Vch Range
VCHRANGEMODE	TOGGLE	F	Vch Auto Range
VCHOFFSETENABLE	TOGGLE	T	Vch Offset Enable
VCHOFFSET	QUANT	0	Vch Offset (V)
VCHFILTER	IQUANT	3	Vch Filter
ACHRANGE	IQUANT	2	Ach Range
ACHOFFSETENABLE	TOGGLE	F	Ach Offset Enable
ACHOFFSET	QUANT	0	Ach Offset (V)
ACHFILTER	IQUANT	3	Ach Filter
IERANGELOWERLIMIT	IQUANT	2	I/E Range Lower Limit
IERANGEMODE	TOGGLE	F	I/E AutoRange
IERANGE	IQUANT	11	I/E Range
POSFEEDENABLE	TOGGLE	F	Positive Feedback IR Comp
POSFEEDRESISTANCE	QUANT	0	Positive Feedback Resistance (ohm)
ACHSELECT	IQUANT	0	Ach Select
CABLEID	IQUANT	13	Cable ID
DCCALDATE	LABEL	7/31/2020	DC Calibration Date
ACCALDATE	LABEL	7/31/2020	AC Calibration Date
THERMOSELECT	IQUANT	1	Thermo Select
FRAMEWORKVERSION	QUANT	6.33	Framework Version
INSTRUMENTVERSION	LABEL	3.50	Instrument Version
COMPLIANCEVOLTAGE	IQUANT	0	Compliance Voltage
ZCURVE	TABLE
	Pt	Time	Freq	Zreal	Zimag	Zsig	Zmod	Zphz	Idc	Vdc	IERange
	#	s	Hz	ohm	ohm	V	ohm	°	A	V	#
	0	21	300046.9	1495.072	-1486.039	1	2107.974	-44.8264	0.0001008	-0.0029557	9
	1	36	238359.4	1846.563	-1567.976	1	2422.467	-40.33565	9.458458E-005	-0.0027167	9
	2	56	189328.1	2102.851	-1543.314	1	2608.409	-36.2755	0.0000979	-0.0034279	9
	3	66	150421.9	2409.854	-1525.736	1	2852.239	-32.33887	9.56082E-006	-0.0011524	9
	4	80	119484.4	2822.07	-1369.693	1	3136.899	-25.88964	4.637883E-005	-0.0017693	8
	5	87	94921.88	3065.891	-1298.444	1	3329.511	-22.95328	-2.513835E-005	0.0060295	8
	6	95	75421.88	3276.757	-1204.879	1	3491.256	-20.18872	-1.044558E-005	0.0095181	8
	7	101	59859.37	3486.352	-1102.601	1	3656.553	-17.55019	1.475992E-005	-0.0092195	8
	8	107	47578.12	3651.964	-1000.342	1	3786.493	-15.31865	-2.527197E-005	0.0060528	8
	9	114	37828.12	3796.14	-909.3021	1	3903.526	-13.47045	-2.530566E-005	0.0060558	8
	10	121	30046.88	3939.33	-840.8754	1	4028.075	-12.04932	-1.840181E-005	0.0012964	8
	11	128	23859.38	4047.422	-790.1352	1	4123.825	-11.04632	-2.281387E-005	0.0107088	8
	12	133	18984.38	4169.948	-735.2448	1	4234.271	-9.99961	1.762772E-005	0.000287	8
	13	138	15046.87	4296.904	-694.6344	1	4352.689	-9.182949	-2.545352E-005	0.0060735	8
	14	144	11953.13	4393.399	-681.833	1	4445.993	-8.821636	-2.525802E-005	0.0094069	8
	15	149	9515.62	4510.152	-673.2755	1	4560.128	-8.490416	2.743221E-005	-0.0060727	8
	16	154	7546.875	4608.101	-679.8418	1	4657.98	-8.392414	6.989973E-006	-0.0076676	8
	17	160	5928.309	4734.64	-681.809	1	4783.479	-8.19451	1.511367E-005	-0.0092143	8
	18	165	4733.456	4828.071	-678.3318	1	4875.49	-7.997564	8.216296E-006	0.0041981	8
	19	170	3796.875	5026.659	-712.4218	1	5076.893	-8.06673	2.142398E-005	-0.0096548	8
	20	176	2987.132	5124.347	-699.1312	1	5171.82	-7.769081	2.778867E-005	-0.0062678	8
	21	181	2390.625	5336.94	-689.389	1	5381.281	-7.360315	-2.176628E-006	0.0075772	8
	22	186	1884.191	5610.622	-524.7266	1	5635.106	-5.342977	-6.15449E-006	0.0218934	7
	23	191	1516.544	5734.017	-562.4504	1	5761.537	-5.602228	-5.233003E-006	0.0227878	7
	24	195	1193.986	5874.354	-579.4056	1	5902.859	-5.633039	6.350785E-006	-0.022903	7
	25	199	946.5144	6063.625	-652.3923	1	6098.62	-6.140895	1.381295E-006	0.0104013	7
	26	202	751.7689	6120.54	-608.4188	1	6150.706	-5.676899	6.077E-006	-0.0121344	7
	27	205	597.4265	6245.525	-606.8312	1	6274.937	-5.549585	-7.59852E-007	0.0164947	7
	28	207	477.4305	6360.022	-627.1796	1	6390.871	-5.631889	-1.725538E-007	0.0005457	7
	29	209	376.6741	6478.999	-635.0162	1	6510.043	-5.597765	-1.79824E-007	0.0005178	7
	30	212	298.2954	6600.91	-645.1651	1	6632.364	-5.582291	-1.778291E-007	0.0005414	7
	31	214	237.7717	6711.392	-656.1322	1	6743.388	-5.583718	-1.67985E-007	0.0004652	7
	32	217	189.0121	6828.232	-670.9818	1	6861.12	-5.612199	-1.719275E-007	0.0004743	7
	33	219	150.2404	6936.828	-692.4267	1	6971.301	-5.700321	-1.728966E-007	0.0005488	7
	34	221	119.1737	7033.124	-712.669	1	7069.139	-5.786053	-1.808458E-007	0.0005552	7
	35	224	95.0169	7167.614	-758.5637	1	7207.643	-6.041245	-1.629603E-007	0.0004642	7
	36	226	75.60484	7281.612	-806.615	1	7326.152	-6.321125	-1.612191E-007	0.0004847	7
	37	229	54.50582	7418.547	-908.2579	1	7473.94	-6.980025	-1.653843E-007	0.0004804	7
	38	231	45.95588	7533.947	-973.651	1	7596.601	-7.363812	-2.029535E-007	0.0005525	7
	39	234	37.20238	7645.023	-1073.836	1	7720.072	-7.995579	-2.019062E-007	0.0005341	7
	40	236	30.04808	7766.685	-1192.932	1	7857.766	-8.732164	-1.898946E-007	0.0005381	7
	41	238	23.91582	7892.179	-1360.005	1	8008.502	-9.77736	-2.250527E-007	0.0005473	7
	42	241	18.60119	8032.069	-1584.623	1	8186.89	-11.16039	-1.119086E-007	0.0005237	7
	43	243	15.02404	8201.206	-1796.463	1	8395.657	-12.35542	-2.226316E-007	0.0004685	7
	44	245	12.01923	8354.675	-2093.028	1	8612.86	-14.06438	-1.913634E-007	0.0004955	7
	45	248	9.450605	8534.025	-2483.301	1	8887.99	-16.22438	-1.166071E-007	0.0005035	7
	46	250	7.512019	8763.176	-2924.682	1	9238.345	-18.45627	-1.941432E-007	0.0005477	7
	47	253	5.978954	9008.488	-3475.32	1	9655.61	-21.09576	-2.004823E-007	0.0005344	7
	48	257	4.734848	9307.237	-4158.374	1	10193.96	-24.07458	-1.49821E-007	0.000498	7
	49	261	3.75601	9670.08	-4959.072	1	10867.51	-27.14994	-1.905841E-007	0.0004733	7
	50	266	3.004808	10106.44	-5896.981	1	11701.04	-30.26304	-1.764987E-007	0.0004673	7
	51	272	2.372217	10643.71	-7105.201	1	12797.37	-33.72505	-1.903727E-007	0.0005206	7
	52	277	1.878005	11277.52	-8534.264	1	14142.7	-37.11662	-1.93278E-007	0.0005009	7
	53	281	1.512097	11998.58	-10115.83	1	15693.82	-40.13377	-1.84297E-007	0.0004043	7
	54	287	1.201923	12941.58	-12130.23	1	17737.73	-43.1465	-1.875557E-007	0.0005137	7
	55	293	0.956633	14107.4	-14489.54	1	20222.9	-45.76561	-1.91622E-007	-0.0001304	7
