EXPLAIN
TAG	EISPOT
TITLE	LABEL	Potentiostatic EIS	Test Identifier
DATE	LABEL	9/6/2020	Date
TIME	LABEL	15:42:22	Time
NOTES	NOTES	1	Notes...
	
PSTAT	PSTAT	REF3000-16137	Potentiostat
VDC	POTEN	0.00000E+000	T	DC Voltage (V)
FREQINIT	QUANT	3.00000E+005	Initial Freq. (Hz)
FREQFINAL	QUANT	1.00000E+000	Final Freq. (Hz)
PTSPERDEC	QUANT	1.00000E+001	Points/decade
VAC	QUANT	5.00000E+001	AC Voltage (mV rms)
AREA	QUANT	1.00000E+000	Sample Area (cm^2)
SPEED	SELECTOR	2	Optimize for:
ZGUESS	QUANT	1.00000E+003	Estimated Z (ohms)
EOC	QUANT	0	Open Circuit (V)
SEQUENCER	TOGGLE	TRUE	Run as Sequence
PSTATMODEL	IQUANT	5	Pstat Model
PSTATSECTION	LABEL	REF3000-16137	Pstat Section
PSTATSERIALNO	LABEL	16137	Pstat Serial Number
CTRLMODE	IQUANT	1	Control Mode
IESTAB	IQUANT	0	I/E Stability
CASPEED	IQUANT	1	Control Amp Speed
CONVENTION	IQUANT	1	Current Convention
ICHRANGE	IQUANT	2	Ich Range
ICHRANGEMODE	TOGGLE	F	Ich Auto Range
ICHOFFSETENABLE	TOGGLE	T	Ich Offset Enable
ICHOFFSET	QUANT	0	Ich Offset (V)
ICHFILTER	IQUANT	3	Ich Filter
VCHRANGE	IQUANT	2	Vch Range
VCHRANGEMODE	TOGGLE	F	Vch Auto Range
VCHOFFSETENABLE	TOGGLE	T	Vch Offset Enable
VCHOFFSET	QUANT	0	Vch Offset (V)
VCHFILTER	IQUANT	3	Vch Filter
ACHRANGE	IQUANT	2	Ach Range
ACHOFFSETENABLE	TOGGLE	F	Ach Offset Enable
ACHOFFSET	QUANT	0	Ach Offset (V)
ACHFILTER	IQUANT	3	Ach Filter
IERANGELOWERLIMIT	IQUANT	2	I/E Range Lower Limit
IERANGEMODE	TOGGLE	F	I/E AutoRange
IERANGE	IQUANT	11	I/E Range
POSFEEDENABLE	TOGGLE	F	Positive Feedback IR Comp
POSFEEDRESISTANCE	QUANT	0	Positive Feedback Resistance (ohm)
ACHSELECT	IQUANT	0	Ach Select
CABLEID	IQUANT	13	Cable ID
DCCALDATE	LABEL	7/31/2020	DC Calibration Date
ACCALDATE	LABEL	7/31/2020	AC Calibration Date
THERMOSELECT	IQUANT	1	Thermo Select
FRAMEWORKVERSION	QUANT	6.33	Framework Version
INSTRUMENTVERSION	LABEL	3.50	Instrument Version
COMPLIANCEVOLTAGE	IQUANT	0	Compliance Voltage
ZCURVE	TABLE
	Pt	Time	Freq	Zreal	Zimag	Zsig	Zmod	Zphz	Idc	Vdc	IERange
	#	s	Hz	ohm	ohm	V	ohm	°	A	V	#
	0	20	300046.9	166.2412	-4131.287	1	4134.63	-87.69569	-0.000097	0.0021555	9
	1	42	238359.4	363.2197	-5189.707	1	5202.402	-85.99648	2.527557E-005	0.0008669	9
	2	59	189328.1	467.0492	-6246.324	1	6263.761	-85.72385	8.937871E-005	-0.0027059	9
	3	68	150421.9	334.0294	-7954.801	1	7961.811	-87.59551	5.231574E-005	-2.287438E-005	9
	4	75	119484.4	822.3138	-9652	1	9686.97	-85.13038	-9.386254E-005	0.0022562	9
	5	85	94921.88	1819.337	-11977.87	1	12115.26	-81.36327	9.624776E-006	0.003687	8
	6	94	75421.88	2365.753	-15009.36	1	15194.66	-81.04282	2.592214E-005	-0.0093692	8
	7	102	59859.37	3543.853	-18439.39	1	18776.85	-79.12102	-2.69384E-005	0.0079514	8
	8	110	47578.12	7747.963	-24015.61	1	25234.51	-72.11916	2.988794E-006	0.0072992	7
	9	118	37828.12	9987.91	-28964.63	1	30638.34	-70.97421	-5.483656E-006	0.0046086	7
	10	125	30046.88	13057.87	-34946.88	1	37306.73	-69.51184	7.578387E-006	-0.0248807	7
	11	132	23859.38	18442.39	-41000.98	1	44957.78	-65.78161	9.187083E-007	0.0147155	7
	12	138	18984.38	23374.6	-49941.07	1	55140.57	-64.91836	-6.758347E-006	0.0127607	7
	13	143	15046.87	30603.94	-57850.79	1	65447.04	-62.12049	6.610192E-006	-0.0270475	7
	14	149	11953.13	39569.79	-67207.77	1	77991.36	-59.51178	7.364219E-006	-0.0241147	7
	15	154	9515.62	52858.75	-74026.81	1	90961.62	-54.47131	-1.379486E-006	-0.0122679	7
	16	160	7546.875	65588.15	-82858.52	1	105675.6	-51.63599	2.837505E-006	-0.0229526	7
	17	166	5928.309	93390.18	-94256.79	1	132687.9	-45.26461	-2.708564E-005	0.0099611	8
	18	173	4733.456	106818.8	-114794.4	1	156805.6	-47.06114	-2.145274E-005	0.0031491	8
	19	181	3796.875	107935.2	-106079.9	1	151337.2	-44.50332	2.225709E-005	-0.0100149	8
	20	189	2987.132	104304.6	-109908.6	1	151523.5	-46.49855	-1.094896E-005	0.009991	8
	21	197	2390.625	187670	-98921.1	1	212144.8	-27.79377	-1.266172E-006	0.0202529	7
	22	203	1884.191	192446	-86637.19	1	211048.5	-24.23678	2.331091E-007	0.0093712	6
	23	207	1516.544	200638.2	-87601.41	1	218928.5	-23.58675	-6.648598E-007	0.0258425	6
	24	212	1193.986	211833.4	-87708.16	1	229273	-22.49166	-3.831985E-007	0.024918	6
	25	216	946.5144	221834.1	-89053.27	1	239041.5	-21.87254	-2.06006E-007	0.0217604	6
	26	219	751.7689	223559.9	-82823.14	1	238408.7	-20.32836	-2.674692E-005	0.0078132	8
	27	225	597.4265	25020.99	-147132.8	1	149245.2	-80.34877	9.914522E-006	0.0035224	8
	28	232	477.4305	238545.4	-109803.2	1	262603.6	-24.71677	-9.949616E-008	0.0004815	7
	29	237	376.6741	266343.8	-110727.1	1	288443.2	-22.57413	-1.268451E-008	0.0006443	6
	30	241	298.2954	267123.7	-131158.8	1	297586.4	-26.15122	-1.06263E-007	0.0006008	7
	31	245	237.7717	295886.6	-137732.5	1	326372.7	-24.96154	-1.204618E-008	0.0005387	6
	32	249	189.0121	301044.6	-161274	1	341521.8	-28.17861	-1.038152E-007	0.000578	7
	33	253	150.2404	326192.4	-171055.2	1	368322.4	-27.67251	-1.316785E-008	0.0006326	6
	34	257	119.1737	369358.5	-232038.5	1	436196.8	-32.13787	-1.246159E-008	0.0005436	6
	35	259	95.0169	451098.3	-161202.3	1	479036.4	-19.66462	-3.555058E-009	0.0005796	5
	36	262	75.60484	472609	-202241	1	514062.9	-23.16727	-3.403375E-009	0.0005986	5
	37	265	54.50582	514504.9	-241113.2	1	568199.7	-25.10926	-3.074172E-009	0.000594	5
	38	268	45.95588	542024.3	-259712.4	1	601033.2	-25.60154	-2.967434E-009	0.0005119	5
	39	271	37.20238	559116.9	-304429.9	1	636623.4	-28.56756	-3.648473E-009	0.0006446	5
	40	274	30.04808	609542.8	-341194.4	1	698538.6	-29.23812	-3.033457E-009	0.0006104	5
	41	276	23.91582	660690.1	-386754.8	1	765565.6	-30.34386	-3.458E-009	0.0005769	5
	42	279	18.60119	733915.9	-420343.9	1	845766.9	-29.80154	-4.326545E-009	0.0005851	5
	43	283	15.02404	772249.1	-487675.7	1	913343.5	-32.27243	-2.950702E-009	0.000539	5
	44	285	12.01923	836834.5	-538179.4	1	994952	-32.74561	-3.425467E-009	0.0005755	5
	45	287	9.450605	918745.1	-606551.6	1	1100907	-33.43262	-3.038614E-009	0.0005025	5
	46	290	7.512019	999372	-676096.9	1	1206587	-34.07922	-2.717553E-009	0.0005848	5
	47	293	5.978954	1084316	-739303.6	1	1312368	-34.28679	-3.031102E-009	0.0005446	5
	48	298	4.734848	1183864	-827109.6	1	1444176	-34.94018	-2.997696E-009	0.0006138	5
	49	302	3.75601	1296620	-913357.8	1	1586016	-35.16142	-2.861879E-009	0.0005008	5
	50	308	3.004808	1413717	-1031233	1	1749867	-36.10881	-2.843981E-009	0.0005282	5
	51	314	2.372217	1558537	-1156072	1	1940500	-36.56683	-3.068833E-009	0.0005682	5
	52	318	1.878005	1719200	-1299686	1	2155187	-37.08867	-3.026113E-009	0.0005578	5
	53	325	1.512097	1889239	-1452851	1	2383275	-37.56078	-2.996799E-009	0.0004581	5
	54	330	1.201923	2094978	-1634984	1	2657462	-37.96955	-2.973638E-009	0.0005589	5
	55	337	0.956633	2330757	-1837865	1	2968194	-38.25673	-3.02725E-009	-8.310256E-005	5
