EXPLAIN
TAG	EISPOT
TITLE	LABEL	Potentiostatic EIS	Test Identifier
DATE	LABEL	9/6/2020	Date
TIME	LABEL	14:47:26	Time
NOTES	NOTES	1	Notes...
	
PSTAT	PSTAT	REF3000-16137	Potentiostat
VDC	POTEN	0.00000E+000	T	DC Voltage (V)
FREQINIT	QUANT	3.00000E+005	Initial Freq. (Hz)
FREQFINAL	QUANT	1.00000E+000	Final Freq. (Hz)
PTSPERDEC	QUANT	1.00000E+001	Points/decade
VAC	QUANT	5.00000E+001	AC Voltage (mV rms)
AREA	QUANT	1.00000E+000	Sample Area (cm^2)
SPEED	SELECTOR	2	Optimize for:
ZGUESS	QUANT	1.00000E+003	Estimated Z (ohms)
EOC	QUANT	0	Open Circuit (V)
SEQUENCER	TOGGLE	TRUE	Run as Sequence
PSTATMODEL	IQUANT	5	Pstat Model
PSTATSECTION	LABEL	REF3000-16137	Pstat Section
PSTATSERIALNO	LABEL	16137	Pstat Serial Number
CTRLMODE	IQUANT	1	Control Mode
IESTAB	IQUANT	0	I/E Stability
CASPEED	IQUANT	1	Control Amp Speed
CONVENTION	IQUANT	1	Current Convention
ICHRANGE	IQUANT	2	Ich Range
ICHRANGEMODE	TOGGLE	F	Ich Auto Range
ICHOFFSETENABLE	TOGGLE	T	Ich Offset Enable
ICHOFFSET	QUANT	0	Ich Offset (V)
ICHFILTER	IQUANT	3	Ich Filter
VCHRANGE	IQUANT	2	Vch Range
VCHRANGEMODE	TOGGLE	F	Vch Auto Range
VCHOFFSETENABLE	TOGGLE	T	Vch Offset Enable
VCHOFFSET	QUANT	0	Vch Offset (V)
VCHFILTER	IQUANT	3	Vch Filter
ACHRANGE	IQUANT	2	Ach Range
ACHOFFSETENABLE	TOGGLE	F	Ach Offset Enable
ACHOFFSET	QUANT	0	Ach Offset (V)
ACHFILTER	IQUANT	3	Ach Filter
IERANGELOWERLIMIT	IQUANT	2	I/E Range Lower Limit
IERANGEMODE	TOGGLE	F	I/E AutoRange
IERANGE	IQUANT	11	I/E Range
POSFEEDENABLE	TOGGLE	F	Positive Feedback IR Comp
POSFEEDRESISTANCE	QUANT	0	Positive Feedback Resistance (ohm)
ACHSELECT	IQUANT	0	Ach Select
CABLEID	IQUANT	13	Cable ID
DCCALDATE	LABEL	7/31/2020	DC Calibration Date
ACCALDATE	LABEL	7/31/2020	AC Calibration Date
THERMOSELECT	IQUANT	1	Thermo Select
FRAMEWORKVERSION	QUANT	6.33	Framework Version
INSTRUMENTVERSION	LABEL	3.50	Instrument Version
COMPLIANCEVOLTAGE	IQUANT	0	Compliance Voltage
ZCURVE	TABLE
	Pt	Time	Freq	Zreal	Zimag	Zsig	Zmod	Zphz	Idc	Vdc	IERange
	#	s	Hz	ohm	ohm	V	ohm	°	A	V	#
	0	16	300046.9	1098.822	-563.5455	1	1234.906	-27.15162	1.198371E-005	0.0008747	9
	1	32	238359.4	1200.868	-528.0219	1	1311.827	-23.7351	4.620067E-006	-0.00144	9
	2	51	189328.1	1302.911	-480.7087	1	1388.762	-20.25152	2.025443E-005	0.0009009	9
	3	61	150421.9	1381.123	-429.4427	1	1446.348	-17.27242	-2.597377E-006	-0.000846	9
	4	67	119484.4	1548.807	-336.4906	1	1584.938	-12.25747	7.047105E-005	-0.0316087	8
	5	73	94921.88	1590.426	-285.6443	1	1615.874	-10.18191	-2.315582E-005	0.010977	8
	6	77	75421.88	1620.295	-248.1187	1	1639.182	-8.706176	3.121469E-005	-0.0074092	8
	7	81	59859.37	1654.002	-206.0235	1	1666.783	-7.100227	-2.703993E-005	0.0108121	8
	8	85	47578.12	1669.055	-186.2549	1	1679.415	-6.367463	2.804811E-005	-0.0105939	8
	9	88	37828.12	1693.318	-157.8056	1	1700.655	-5.324196	9.792767E-006	0.0041466	8
	10	92	30046.88	1712.394	-139.9341	1	1718.102	-4.671739	-2.702145E-005	0.010418	8
	11	96	23859.38	1726.331	-128.4665	1	1731.105	-4.255872	3.115063E-005	-0.0074178	8
	12	100	18984.38	1750.979	-122.5328	1	1755.261	-4.003009	-1.393171E-005	-0.0018345	8
	13	104	15046.87	1768.04	-118.8938	1	1772.033	-3.847124	-9.473767E-006	0.009797	8
	14	108	11953.13	1791.911	-117.3002	1	1795.746	-3.745294	-2.776414E-005	0.0052684	8
	15	113	9515.62	1822.137	-118.8386	1	1826.008	-3.731508	-2.766747E-005	0.0109729	8
	16	117	7546.875	1850.733	-124.6413	1	1854.925	-3.85288	3.096922E-005	-0.0096005	8
	17	121	5928.309	1871.139	-129.8515	1	1875.639	-3.969795	-2.330342E-005	0.0113014	8
	18	125	4733.456	1910.33	-131.2593	1	1914.834	-3.930632	-3.725977E-006	-0.0055097	8
	19	129	3796.875	1938.054	-134.2303	1	1942.697	-3.961998	-2.218506E-005	0.0018016	8
	20	133	2987.132	1967.79	-139.5017	1	1972.729	-4.05506	3.22773E-005	-0.0099853	8
	21	138	2390.625	2004.17	-140.3816	1	2009.081	-4.006725	-2.229173E-005	0.0018966	8
	22	142	1884.191	2031.168	-147.1051	1	2036.488	-4.14235	5.039361E-008	0.0075737	8
	23	146	1516.544	2065.864	-137.1672	1	2070.413	-3.798693	-2.345316E-005	0.0114495	8
	24	150	1193.986	2105.485	-149.4059	1	2110.779	-4.058924	3.243101E-005	-0.0100707	8
	25	155	946.5144	2142.961	-152.828	1	2148.404	-4.079216	-2.735762E-005	0.011	8
	26	157	751.7689	2156.184	-150.3285	1	2161.418	-3.988191	2.873095E-005	-0.004537	8
	27	160	597.4265	2179.786	-163.7807	1	2185.93	-4.29691	-2.941938E-005	0.0058253	8
	28	163	477.4305	2216.332	-168.1145	1	2222.698	-4.337726	-5.507833E-007	0.0005432	8
	29	165	376.6741	2243.297	-179.1431	1	2250.439	-4.565783	-5.795571E-007	0.0005448	8
	30	167	298.2954	2269.859	-193.5152	1	2278.093	-4.872928	-5.22921E-007	0.0005227	8
	31	170	237.7717	2297.535	-210.7071	1	2307.177	-5.239941	-5.840668E-007	0.0005303	8
	32	172	189.0121	2325.657	-233.0523	1	2337.305	-5.722463	-5.250942E-007	0.0004967	8
	33	174	150.2404	2354.276	-261.0445	1	2368.704	-6.32717	-5.847281E-007	0.0005233	8
	34	177	119.1737	2381.95	-296.2914	1	2400.307	-7.090617	-5.29147E-007	0.0005328	8
	35	179	95.0169	2416.332	-339.8502	1	2440.115	-8.005973	-5.190373E-007	0.0005006	8
	36	182	75.60484	2450.929	-393.8773	1	2482.376	-9.129676	-5.776524E-007	0.0005335	8
	37	184	54.50582	2501.116	-494.4568	1	2549.523	-11.18286	-5.174839E-007	0.000493	8
	38	187	45.95588	2533.321	-557.1256	1	2593.859	-12.403	-5.472541E-007	0.0005268	8
	39	189	37.20238	2575.327	-653.0433	1	2656.835	-14.22896	-5.157809E-007	0.0005304	8
	40	191	30.04808	2622.154	-767.51	1	2732.172	-16.31487	-5.883317E-007	0.0005331	8
	41	194	23.91582	2679.984	-917.364	1	2832.644	-18.89618	-5.406852E-007	0.0004964	8
	42	196	18.60119	2748.589	-1118.535	1	2967.467	-22.14381	-6.378492E-007	0.0005487	8
	43	198	15.02404	2825.33	-1326.452	1	3121.212	-25.14938	-4.863626E-007	0.000514	8
	44	201	12.01923	2914.29	-1588.881	1	3319.281	-28.59937	-6.329368E-007	0.0005451	8
	45	203	9.450605	3028.077	-1931.352	1	3591.569	-32.53033	-5.486639E-007	0.0005887	8
	46	206	7.512019	3177.612	-2336.539	1	3944.19	-36.32753	-2.847976E-007	0.0004631	7
	47	208	5.978954	3340.458	-2811.933	1	4366.42	-40.09002	-2.851775E-007	0.0005059	7
	48	211	4.734848	3554.944	-3400.43	1	4919.406	-43.72738	-2.865006E-007	0.0005161	7
	49	215	3.75601	3819.186	-4100.6	1	5603.668	-47.03504	-2.574548E-007	0.0006016	7
	50	218	3.004808	4139.345	-4906.974	1	6419.702	-49.85024	-2.419391E-007	0.0004242	7
	51	222	2.372217	4576.542	-5917.327	1	7480.608	-52.28114	-2.632761E-007	0.0004271	7
	52	226	1.878005	5117.388	-7119.948	1	8768.199	-54.2937	-2.509343E-007	0.0005563	7
	53	231	1.512097	5744.127	-8409.841	1	10184.32	-55.66597	-2.559256E-007	0.0004829	7
	54	236	1.201923	6611.395	-10033.52	1	12015.91	-56.61789	-2.529625E-007	0.0005158	7
	55	242	0.956633	7690.465	-11886.38	1	14157.31	-57.09722	-2.831642E-007	-0.0000992	7
