EXPLAIN
TAG	EISPOT
TITLE	LABEL	Potentiostatic EIS	Test Identifier
DATE	LABEL	9/6/2020	Date
TIME	LABEL	15:31:45	Time
NOTES	NOTES	1	Notes...
	
PSTAT	PSTAT	REF3000-16137	Potentiostat
VDC	POTEN	0.00000E+000	T	DC Voltage (V)
FREQINIT	QUANT	3.00000E+005	Initial Freq. (Hz)
FREQFINAL	QUANT	1.00000E+000	Final Freq. (Hz)
PTSPERDEC	QUANT	1.00000E+001	Points/decade
VAC	QUANT	5.00000E+001	AC Voltage (mV rms)
AREA	QUANT	1.00000E+000	Sample Area (cm^2)
SPEED	SELECTOR	2	Optimize for:
ZGUESS	QUANT	1.00000E+003	Estimated Z (ohms)
EOC	QUANT	0	Open Circuit (V)
SEQUENCER	TOGGLE	TRUE	Run as Sequence
PSTATMODEL	IQUANT	5	Pstat Model
PSTATSECTION	LABEL	REF3000-16137	Pstat Section
PSTATSERIALNO	LABEL	16137	Pstat Serial Number
CTRLMODE	IQUANT	1	Control Mode
IESTAB	IQUANT	0	I/E Stability
CASPEED	IQUANT	1	Control Amp Speed
CONVENTION	IQUANT	1	Current Convention
ICHRANGE	IQUANT	2	Ich Range
ICHRANGEMODE	TOGGLE	F	Ich Auto Range
ICHOFFSETENABLE	TOGGLE	T	Ich Offset Enable
ICHOFFSET	QUANT	0	Ich Offset (V)
ICHFILTER	IQUANT	3	Ich Filter
VCHRANGE	IQUANT	2	Vch Range
VCHRANGEMODE	TOGGLE	F	Vch Auto Range
VCHOFFSETENABLE	TOGGLE	T	Vch Offset Enable
VCHOFFSET	QUANT	0	Vch Offset (V)
VCHFILTER	IQUANT	3	Vch Filter
ACHRANGE	IQUANT	2	Ach Range
ACHOFFSETENABLE	TOGGLE	F	Ach Offset Enable
ACHOFFSET	QUANT	0	Ach Offset (V)
ACHFILTER	IQUANT	3	Ach Filter
IERANGELOWERLIMIT	IQUANT	2	I/E Range Lower Limit
IERANGEMODE	TOGGLE	F	I/E AutoRange
IERANGE	IQUANT	11	I/E Range
POSFEEDENABLE	TOGGLE	F	Positive Feedback IR Comp
POSFEEDRESISTANCE	QUANT	0	Positive Feedback Resistance (ohm)
ACHSELECT	IQUANT	0	Ach Select
CABLEID	IQUANT	13	Cable ID
DCCALDATE	LABEL	7/31/2020	DC Calibration Date
ACCALDATE	LABEL	7/31/2020	AC Calibration Date
THERMOSELECT	IQUANT	1	Thermo Select
FRAMEWORKVERSION	QUANT	6.33	Framework Version
INSTRUMENTVERSION	LABEL	3.50	Instrument Version
COMPLIANCEVOLTAGE	IQUANT	0	Compliance Voltage
ZCURVE	TABLE
	Pt	Time	Freq	Zreal	Zimag	Zsig	Zmod	Zphz	Idc	Vdc	IERange
	#	s	Hz	ohm	ohm	V	ohm	°	A	V	#
	0	26	300046.9	361.4324	-3954.326	1	3970.809	-84.77757	-6.903096E-005	0.0006843	9
	1	40	238359.4	450.3616	-4809.54	1	4830.58	-84.65047	-6.28434E-006	-0.0019339	9
	2	56	189328.1	828.341	-5977.052	1	6034.177	-82.10982	2.468841E-005	-0.0015895	9
	3	65	150421.9	1431.336	-7216.672	1	7357.247	-78.78169	2.507996E-005	-0.0020198	9
	4	72	119484.4	2149.334	-9021.667	1	9274.164	-76.59958	1.731815E-005	-0.0178711	8
	5	80	94921.88	3187.553	-10994.37	1	11447.12	-73.83176	5.82492E-007	0.0069585	8
	6	88	75421.88	4110.61	-13464.7	1	14078.18	-73.0232	2.661649E-005	-0.0004016	9
	7	97	59859.37	6164.71	-16062.05	1	17204.45	-69.0029	-2.687443E-005	0.0081807	8
	8	105	47578.12	8449.53	-18727.38	1	20545.3	-65.71578	2.507022E-005	-0.0038654	8
	9	114	37828.12	12086.95	-22143.76	1	25227.77	-61.37251	2.543933E-005	-0.0093962	8
	10	123	30046.88	15368.15	-25116.63	1	29445.29	-58.53872	2.752517E-005	-0.0080731	8
	11	132	23859.38	19386.53	-28228.98	1	34244.89	-55.52028	2.763459E-005	-0.0082053	8
	12	140	18984.38	26229.64	-30588.26	1	40294.36	-49.38668	-2.45548E-005	0.0009893	9
	13	146	15046.87	31920.19	-30183.43	1	43931.05	-43.39811	1.084983E-005	0.0031592	8
	14	153	11953.13	39737.55	-31869.35	1	50938.48	-38.72947	7.48555E-006	-0.0195821	7
	15	158	9515.62	45522.08	-32791.64	1	56103.04	-35.76694	5.032383E-006	-0.002262	7
	16	163	7546.875	51253.07	-33078.59	1	61000.58	-32.83809	9.491077E-007	0.0140882	7
	17	169	5928.309	56658.4	-33980.22	1	66066.85	-30.95274	8.987491E-007	0.0143622	7
	18	174	4733.456	84252.14	-32770.91	1	90401.09	-21.25416	-3.286563E-007	-0.0056848	6
	19	178	3796.875	88400.37	-30266.67	1	93438.2	-18.90026	-6.601587E-007	0.0257055	6
	20	183	2987.132	91211.96	-28273.26	1	95493.5	-17.22203	6.083885E-007	-0.0085721	6
	21	187	2390.625	94291.26	-27909.13	1	98334.9	-16.48815	-5.379991E-007	0.0260482	6
	22	191	1884.191	96356.4	-27529.66	1	100211.9	-15.945	-7.414779E-007	0.0183295	6
	23	195	1516.544	98830	-28406.89	1	102831.5	-16.03634	-1.03818E-007	-0.0134904	6
	24	200	1193.986	101947.3	-31001.46	1	106556.7	-16.91416	2.429511E-007	0.0087893	6
	25	204	946.5144	104544.3	-33324.22	1	109727	-17.68004	2.423251E-007	0.0086601	6
	26	207	751.7689	108594.4	-36880.6	1	114686.1	-18.75842	6.902745E-007	-0.027264	6
	27	209	597.4265	113163.3	-42571.65	1	120906.1	-20.61613	1.328978E-007	-0.0199836	6
	28	212	477.4305	116823.1	-47485.79	1	126105.3	-22.12057	-1.895267E-008	0.0005235	6
	29	214	376.6741	123037.3	-54088.38	1	134401.4	-23.73074	-1.93569E-008	0.0005855	6
	30	217	298.2954	130853.6	-62131.99	1	144855.3	-25.39932	-1.936562E-008	0.0005686	6
	31	221	237.7717	138524.9	-69124.77	1	154814.1	-26.51947	-1.846354E-008	0.0005735	6
	32	223	189.0121	149009	-77343.38	1	167885.9	-27.43165	-1.836349E-008	0.0005245	6
	33	226	150.2404	158637.7	-85887.88	1	180395.8	-28.43151	-1.903966E-008	0.0005794	6
	34	229	119.1737	162615.3	-93527.39	1	187592.9	-29.90515	-1.929191E-008	0.000597	6
	35	232	95.0169	186221.8	-105110	1	213838	-29.44189	-1.886428E-008	0.000522	6
	36	234	75.60484	203322.5	-117086	1	234625.6	-29.93607	-1.880597E-008	0.0005148	6
	37	237	54.50582	225707.9	-133513.7	1	262240.3	-30.60573	-1.826932E-008	0.0005124	6
	38	241	45.95588	238826.2	-147596.9	1	280754	-31.71646	-1.046738E-007	0.0004779	7
	39	244	37.20238	262624.5	-153730.5	1	304310.2	-30.3431	-1.972083E-008	0.0005863	6
	40	248	30.04808	280258.9	-168275.6	1	326897.2	-30.98183	-1.878152E-008	0.0006195	6
	41	253	23.91582	302123.7	-183668	1	353571.3	-31.29639	-1.781295E-008	0.0005586	6
	42	256	18.60119	325928.4	-200473.7	1	382647.4	-31.59506	-1.939912E-008	0.0005279	6
	43	260	15.02404	360563.8	-217769.1	1	421224	-31.13065	-1.834912E-008	0.0005742	6
	44	264	12.01923	397279.3	-225036.6	1	456587.7	-29.52913	-9.595225E-009	0.000519	5
	45	266	9.450605	430729.3	-251713.5	1	498886.2	-30.30155	-9.106284E-009	0.0005372	5
	46	269	7.512019	464965.6	-279581.3	1	542548.3	-31.01827	-8.547391E-009	0.0005222	5
	47	272	5.978954	506525.3	-308866.5	1	593267.6	-31.37379	-8.226608E-009	0.000644	5
	48	276	4.734848	551222.8	-343351.2	1	649412.4	-31.91837	-8.192178E-009	0.0006004	5
	49	281	3.75601	602665.9	-379645.1	1	712275.6	-32.20858	-8.033497E-009	0.0005791	5
	50	287	3.004808	660951.6	-421870.8	1	784112.2	-32.54919	-8.162463E-009	0.0005791	5
	51	293	2.372217	731990.4	-463612.9	1	866456.5	-32.34851	-7.918012E-009	0.0005432	5
	52	297	1.878005	810234.5	-506958.8	1	955765	-32.03397	-7.868596E-009	0.0005459	5
	53	302	1.512097	890947.4	-548806.6	1	1046411	-31.63228	-7.994732E-009	0.0006933	5
	54	307	1.201923	987224	-593065.6	1	1151667	-30.99496	-7.877374E-009	0.0005534	5
	55	314	0.956633	1093797	-636140.4	1	1265333	-30.18181	-8.52669E-009	-8.510431E-005	5
