EXPLAIN
TAG	EISPOT
TITLE	LABEL	Potentiostatic EIS	Test Identifier
DATE	LABEL	9/6/2020	Date
TIME	LABEL	15:06:28	Time
NOTES	NOTES	1	Notes...
	
PSTAT	PSTAT	REF3000-16137	Potentiostat
VDC	POTEN	0.00000E+000	T	DC Voltage (V)
FREQINIT	QUANT	3.00000E+005	Initial Freq. (Hz)
FREQFINAL	QUANT	1.00000E+000	Final Freq. (Hz)
PTSPERDEC	QUANT	1.00000E+001	Points/decade
VAC	QUANT	5.00000E+001	AC Voltage (mV rms)
AREA	QUANT	1.00000E+000	Sample Area (cm^2)
SPEED	SELECTOR	2	Optimize for:
ZGUESS	QUANT	1.00000E+003	Estimated Z (ohms)
EOC	QUANT	0	Open Circuit (V)
SEQUENCER	TOGGLE	TRUE	Run as Sequence
PSTATMODEL	IQUANT	5	Pstat Model
PSTATSECTION	LABEL	REF3000-16137	Pstat Section
PSTATSERIALNO	LABEL	16137	Pstat Serial Number
CTRLMODE	IQUANT	1	Control Mode
IESTAB	IQUANT	0	I/E Stability
CASPEED	IQUANT	1	Control Amp Speed
CONVENTION	IQUANT	1	Current Convention
ICHRANGE	IQUANT	2	Ich Range
ICHRANGEMODE	TOGGLE	F	Ich Auto Range
ICHOFFSETENABLE	TOGGLE	T	Ich Offset Enable
ICHOFFSET	QUANT	0	Ich Offset (V)
ICHFILTER	IQUANT	3	Ich Filter
VCHRANGE	IQUANT	2	Vch Range
VCHRANGEMODE	TOGGLE	F	Vch Auto Range
VCHOFFSETENABLE	TOGGLE	T	Vch Offset Enable
VCHOFFSET	QUANT	0	Vch Offset (V)
VCHFILTER	IQUANT	3	Vch Filter
ACHRANGE	IQUANT	2	Ach Range
ACHOFFSETENABLE	TOGGLE	F	Ach Offset Enable
ACHOFFSET	QUANT	0	Ach Offset (V)
ACHFILTER	IQUANT	3	Ach Filter
IERANGELOWERLIMIT	IQUANT	2	I/E Range Lower Limit
IERANGEMODE	TOGGLE	F	I/E AutoRange
IERANGE	IQUANT	11	I/E Range
POSFEEDENABLE	TOGGLE	F	Positive Feedback IR Comp
POSFEEDRESISTANCE	QUANT	0	Positive Feedback Resistance (ohm)
ACHSELECT	IQUANT	0	Ach Select
CABLEID	IQUANT	13	Cable ID
DCCALDATE	LABEL	7/31/2020	DC Calibration Date
ACCALDATE	LABEL	7/31/2020	AC Calibration Date
THERMOSELECT	IQUANT	1	Thermo Select
FRAMEWORKVERSION	QUANT	6.33	Framework Version
INSTRUMENTVERSION	LABEL	3.50	Instrument Version
COMPLIANCEVOLTAGE	IQUANT	0	Compliance Voltage
ZCURVE	TABLE
	Pt	Time	Freq	Zreal	Zimag	Zsig	Zmod	Zphz	Idc	Vdc	IERange
	#	s	Hz	ohm	ohm	V	ohm	°	A	V	#
	0	14	300046.9	1365.156	-2663.356	1	2992.844	-62.86169	-5.098803E-006	0.0011752	9
	1	28	238359.4	1844.033	-3009.087	1	3529.173	-58.49914	1.342508E-005	-0.0020386	9
	2	44	189328.1	2422.929	-3337.345	1	4124.131	-54.02016	4.492107E-005	0.0003172	9
	3	52	150421.9	2954.23	-3658.161	1	4702.086	-51.07661	-4.774366E-005	-0.0002282	9
	4	63	119484.4	3924.712	-3804.594	1	5466.104	-44.10967	-2.429451E-005	0.0204062	8
	5	71	94921.88	4694.916	-3861.849	1	6079.154	-39.43934	-2.510274E-005	0.0054643	8
	6	78	75421.88	5401.214	-3891.099	1	6656.858	-35.76942	2.746309E-005	-0.0056448	8
	7	86	59859.37	6141.894	-3836.882	1	7241.859	-31.9933	-9.130858E-006	-0.0028475	8
	8	93	47578.12	8581.399	-3676.838	1	9335.929	-23.19349	6.551038E-006	-0.0131708	7
	9	97	37828.12	9140.696	-3423.986	1	9760.94	-20.53529	6.930385E-006	-0.0247973	7
	10	103	30046.88	9638.54	-3082.898	1	10119.58	-17.73693	-6.605739E-006	0.0235151	7
	11	109	23859.38	10039.53	-2833.325	1	10431.67	-15.75997	-4.125756E-006	-0.0008917	7
	12	114	18984.38	10417.67	-2670.985	1	10754.63	-14.3803	7.339596E-006	-0.0210627	7
	13	118	15046.87	10731.1	-2508.804	1	11020.47	-13.15873	-5.746986E-006	0.0246716	7
	14	122	11953.13	11012.4	-2411.826	1	11273.41	-12.3533	5.616675E-006	-0.0256537	7
	15	126	9515.62	11273.22	-2313.924	1	11508.24	-11.59934	-4.298664E-006	0.0242745	7
	16	130	7546.875	11568.74	-2348.115	1	11804.63	-11.4735	-6.659362E-006	0.0236915	7
	17	135	5928.309	11939.94	-2444.211	1	12187.55	-11.56912	-6.783054E-006	0.0147125	7
	18	139	4733.456	12318.15	-2550.914	1	12579.51	-11.69977	7.140892E-006	-0.0202976	7
	19	143	3796.875	12673.85	-2656.962	1	12949.36	-11.8401	5.826138E-006	-0.025981	7
	20	147	2987.132	13096.42	-2802.07	1	13392.83	-12.07674	6.896922E-006	-0.024725	7
	21	152	2390.625	13565.28	-2955.795	1	13883.58	-12.29228	-2.120608E-006	-0.0088792	7
	22	156	1884.191	14131.14	-3137.085	1	14475.17	-12.51656	5.279596E-006	-0.0047859	7
	23	160	1516.544	14700.35	-3353.214	1	15077.94	-12.84957	1.433872E-006	0.0114807	7
	24	165	1193.986	15366.67	-3483.089	1	15756.47	-12.77116	-7.057041E-006	0.0204653	7
	25	169	946.5144	16039.65	-3570.973	1	16432.35	-12.5513	-6.79603E-006	0.0242057	7
	26	172	751.7689	17199.72	-3750.947	1	17603.97	-12.30255	2.253842E-006	-0.0207751	7
	27	174	597.4265	17144.03	-3726.15	1	17544.28	-12.26218	2.092239E-006	-0.0207994	7
	28	177	477.4305	18030.34	-3878.104	1	18442.69	-12.13868	-1.451419E-007	0.0004766	7
	29	179	376.6741	18724.04	-3913.546	1	19128.66	-11.80554	-1.463616E-007	0.000506	7
	30	181	298.2954	19421.08	-3973.588	1	19823.41	-11.56323	-1.439717E-007	0.0005098	7
	31	184	237.7717	20087.39	-3946.948	1	20471.49	-11.11636	-1.464533E-007	0.0005081	7
	32	186	189.0121	20780.08	-3935.64	1	21149.49	-10.7245	-1.469655E-007	0.0004809	7
	33	189	150.2404	21490.2	-3935.61	1	21847.6	-10.37787	-1.432977E-007	0.0005091	7
	34	192	119.1737	22354.12	-3846.666	1	22682.67	-9.76376	-1.46694E-007	0.0005103	7
	35	194	95.0169	22821.8	-3909.26	1	23154.2	-9.72014	-1.445403E-007	0.0004871	7
	36	196	75.60484	23438.6	-3943.014	1	23767.95	-9.5493	-1.488325E-007	0.0005258	7
	37	199	54.50582	24321.72	-3817.123	1	24619.44	-8.919413	-1.558723E-007	0.0005526	7
	38	201	45.95588	24827.68	-4004.51	1	25148.56	-9.162448	-1.324307E-007	0.0004736	7
	39	204	37.20238	25422.38	-4049.636	1	25742.9	-9.05084	-1.577194E-007	0.0005156	7
	40	206	30.04808	26047.99	-4151.123	1	26376.69	-9.054767	-1.471338E-007	0.0004712	7
	41	209	23.91582	26719.21	-4274.361	1	27058.94	-9.088789	-1.360951E-007	0.0004635	7
	42	212	18.60119	27501.91	-4529.732	1	27872.46	-9.352989	-1.742375E-007	0.0005339	7
	43	214	15.02404	28058.57	-4684.542	1	28446.94	-9.478439	-1.643004E-007	0.0005233	7
	44	216	12.01923	28728.58	-4968.272	1	29155.02	-9.81159	-1.531452E-007	0.0005814	7
	45	219	9.450605	29445.39	-5355.175	1	29928.4	-10.30761	-1.395606E-007	0.0005337	7
	46	221	7.512019	30163.62	-5767.272	1	30710.02	-10.82429	-1.643971E-007	0.0005333	7
	47	224	5.978954	30974.27	-6334.163	1	31615.29	-11.5575	-1.577131E-007	0.0004714	7
	48	229	4.734848	31878.84	-7076	1	32654.71	-12.51479	-1.370905E-007	0.0005825	7
	49	232	3.75601	32833.25	-7892.997	1	33768.64	-13.51721	-1.644755E-007	0.0005455	7
	50	237	3.004808	33966.05	-8865.469	1	35103.98	-14.62839	-1.562606E-007	0.0005355	7
	51	244	2.372217	35228.37	-10202.2	1	36675.92	-16.15111	-1.683153E-007	0.0005417	7
	52	248	1.878005	36469.65	-11687.46	1	38296.63	-17.76914	-1.684949E-007	0.0005642	7
	53	253	1.512097	37825.64	-13383.47	1	40123.52	-19.4848	-7.810483E-008	0.0004706	6
	54	258	1.201923	39412.5	-15658.09	1	42408.98	-21.6673	-7.928645E-008	0.0005666	6
	55	264	0.956633	41248.72	-18324.12	1	45135.69	-23.95246	-8.17826E-008	-7.705368E-005	6
