June 16, 2026   09:10:39
A.C. Impedance
File: e:\chi_data\6.13Data Source:  Experiment
Instrument Model:  CHI660E
Header: 
Note: 

Init E (V) = 0
High Frequency (Hz) = 1e+6
Low Frequency (Hz) = 0.1
Imp SF
Amplitude (V) = 0.005
Quiet Time (sec) = 2
Cycles (.1-1Hz) = 1

Freq/Hz, Z'/ohm, Z"/ohm, Z/ohm, Phase/deg

8.252e+5, 1.498e+2, -8.346e+1, 1.715e+2, -29.1
6.816e+5, 1.653e+2, -8.420e+1, 1.855e+2, -27.0
5.625e+5, 1.786e+2, -7.843e+1, 1.951e+2, -23.7
4.639e+5, 1.924e+2, -7.654e+1, 2.071e+2, -21.7
3.828e+5, 2.041e+2, -7.101e+1, 2.161e+2, -19.2
3.164e+5, 2.146e+2, -6.555e+1, 2.244e+2, -17.0
2.607e+5, 2.232e+2, -5.850e+1, 2.307e+2, -14.7
2.158e+5, 2.300e+2, -5.201e+1, 2.358e+2, -12.7
1.777e+5, 2.359e+2, -4.625e+1, 2.404e+2, -11.1
1.465e+5, 2.411e+2, -4.075e+1, 2.445e+2, -9.6
1.211e+5, 2.446e+2, -3.387e+1, 2.470e+2, -7.9
9.961e+4, 2.473e+2, -2.732e+1, 2.488e+2, -6.3
8.252e+4, 2.496e+2, -2.257e+1, 2.506e+2, -5.2
6.812e+4, 2.518e+2, -1.899e+1, 2.526e+2, -4.3
5.625e+4, 2.537e+2, -1.645e+1, 2.542e+2, -3.7
4.644e+4, 2.549e+2, -1.494e+1, 2.553e+2, -3.4
3.833e+4, 2.561e+2, -1.410e+1, 2.564e+2, -3.2
3.164e+4, 2.575e+2, -1.358e+1, 2.579e+2, -3.0
2.612e+4, 2.590e+2, -1.313e+1, 2.593e+2, -2.9
2.153e+4, 2.605e+2, -1.272e+1, 2.608e+2, -2.8
1.777e+4, 2.620e+2, -1.240e+1, 2.623e+2, -2.7
1.470e+4, 2.633e+2, -1.248e+1, 2.636e+2, -2.7
1.211e+4, 2.646e+2, -1.296e+1, 2.649e+2, -2.8
1.001e+4, 2.658e+2, -1.233e+1, 2.661e+2, -2.7
8.252e+3, 2.671e+2, -1.132e+1, 2.673e+2, -2.4
6.812e+3, 2.686e+2, -1.166e+1, 2.689e+2, -2.5
5.625e+3, 2.704e+2, -1.313e+1, 2.707e+2, -2.8
4.643e+3, 2.724e+2, -1.535e+1, 2.728e+2, -3.2
3.833e+3, 2.746e+2, -1.784e+1, 2.751e+2, -3.7
3.164e+3, 2.770e+2, -2.042e+1, 2.778e+2, -4.2
2.612e+3, 2.797e+2, -2.306e+1, 2.807e+2, -4.7
2.153e+3, 2.827e+2, -2.587e+1, 2.839e+2, -5.2
1.777e+3, 2.860e+2, -2.883e+1, 2.874e+2, -5.8
1.470e+3, 2.896e+2, -3.198e+1, 2.914e+2, -6.3
1.211e+3, 2.936e+2, -3.536e+1, 2.957e+2, -6.9
1.001e+3, 2.977e+2, -3.870e+1, 3.002e+2, -7.4
8.252e+2, 3.022e+2, -4.216e+1, 3.051e+2, -7.9
6.836e+2, 3.070e+2, -4.621e+1, 3.105e+2, -8.6
5.615e+2, 3.122e+2, -5.083e+1, 3.163e+2, -9.2
4.639e+2, 3.178e+2, -5.607e+1, 3.227e+2, -10.0
3.809e+2, 3.238e+2, -6.179e+1, 3.296e+2, -10.8
3.174e+2, 3.301e+2, -6.817e+1, 3.371e+2, -11.7
2.588e+2, 3.370e+2, -7.536e+1, 3.453e+2, -12.6
2.148e+2, 3.444e+2, -8.342e+1, 3.544e+2, -13.6
1.758e+2, 3.524e+2, -9.249e+1, 3.643e+2, -14.7
1.465e+2, 3.607e+2, -1.025e+2, 3.750e+2, -15.9
1.221e+2, 3.701e+2, -1.140e+2, 3.873e+2, -17.1
9.766e+1, 3.807e+2, -1.261e+2, 4.010e+2, -18.3
8.254e+1, 3.922e+2, -1.395e+2, 4.163e+2, -19.6
6.813e+1, 4.049e+2, -1.564e+2, 4.340e+2, -21.1
5.623e+1, 4.185e+2, -1.764e+2, 4.542e+2, -22.9
4.642e+1, 4.338e+2, -2.000e+2, 4.777e+2, -24.8
3.831e+1, 4.513e+2, -2.273e+2, 5.053e+2, -26.7
3.162e+1, 4.715e+2, -2.584e+2, 5.377e+2, -28.7
2.610e+1, 4.953e+2, -2.938e+2, 5.759e+2, -30.7
2.154e+1, 5.234e+2, -3.340e+2, 6.209e+2, -32.5
1.778e+1, 5.569e+2, -3.793e+2, 6.738e+2, -34.3
1.468e+1, 5.970e+2, -4.301e+2, 7.358e+2, -35.8
1.212e+1, 6.455e+2, -4.860e+2, 8.080e+2, -37.0
1.000e+1, 7.045e+2, -5.461e+2, 8.914e+2, -37.8
8.254e+0, 7.762e+2, -6.099e+2, 9.871e+2, -38.2
6.813e+0, 8.611e+2, -6.754e+2, 1.094e+3, -38.1
5.623e+0, 9.604e+2, -7.398e+2, 1.212e+3, -37.6
4.642e+0, 1.075e+3, -8.003e+2, 1.340e+3, -36.7
3.831e+0, 1.204e+3, -8.515e+2, 1.474e+3, -35.3
3.162e+0, 1.345e+3, -8.899e+2, 1.613e+3, -33.5
2.610e+0, 1.495e+3, -9.118e+2, 1.752e+3, -31.4
2.154e+0, 1.656e+3, -9.165e+2, 1.893e+3, -29.0
1.778e+0, 1.819e+3, -9.027e+2, 2.031e+3, -26.4
1.468e+0, 1.967e+3, -8.677e+2, 2.150e+3, -23.8
1.212e+0, 2.097e+3, -8.149e+2, 2.249e+3, -21.2
1.000e+0, 2.210e+3, -7.472e+2, 2.333e+3, -18.7
8.254e-1, 2.306e+3, -6.733e+2, 2.402e+3, -16.3
6.813e-1, 2.384e+3, -6.016e+2, 2.459e+3, -14.2
5.623e-1, 2.448e+3, -5.340e+2, 2.506e+3, -12.3
4.642e-1, 2.501e+3, -4.710e+2, 2.545e+3, -10.7
3.831e-1, 2.543e+3, -4.124e+2, 2.577e+3, -9.2
3.162e-1, 2.577e+3, -3.584e+2, 2.602e+3, -7.9
2.610e-1, 2.605e+3, -3.094e+2, 2.623e+3, -6.8
2.154e-1, 2.626e+3, -2.662e+2, 2.640e+3, -5.8
1.778e-1, 2.643e+3, -2.288e+2, 2.653e+3, -4.9
1.468e-1, 2.657e+3, -1.966e+2, 2.664e+3, -4.2
1.212e-1, 2.669e+3, -1.685e+2, 2.674e+3, -3.6
1.000e-1, 2.679e+3, -1.446e+2, 2.683e+3, -3.1
