EXPLAIN
TAG	EISPOT
TITLE	LABEL	Potentiostatic EIS	Test Identifier
DATE	LABEL	11/20/2021	Date
TIME	LABEL	15:58:49	Time
NOTES	NOTES	1	Notes...
	
PSTAT	PSTAT	REF3000-16137	Potentiostat
VDC	POTEN	0.00000E+000	T	DC Voltage (V)
FREQINIT	QUANT	3.00000E+005	Initial Freq. (Hz)
FREQFINAL	QUANT	1.00000E+000	Final Freq. (Hz)
PTSPERDEC	QUANT	1.00000E+001	Points/decade
VAC	QUANT	5.00000E+001	AC Voltage (mV rms)
AREA	QUANT	1.00000E+000	Sample Area (cm^2)
SPEED	SELECTOR	2	Optimize for:
ZGUESS	QUANT	1.00000E+003	Estimated Z (ohms)
EOC	QUANT	0	Open Circuit (V)
SEQUENCER	TOGGLE	TRUE	Run as Sequence
PSTATMODEL	IQUANT	5	Pstat Model
PSTATSECTION	LABEL	REF3000-16137	Pstat Section
PSTATSERIALNO	LABEL	16137	Pstat Serial Number
CTRLMODE	IQUANT	1	Control Mode
IESTAB	IQUANT	0	I/E Stability
CASPEED	IQUANT	1	Control Amp Speed
CONVENTION	IQUANT	1	Current Convention
ICHRANGE	IQUANT	2	Ich Range
ICHRANGEMODE	TOGGLE	F	Ich Auto Range
ICHOFFSETENABLE	TOGGLE	T	Ich Offset Enable
ICHOFFSET	QUANT	0	Ich Offset (V)
ICHFILTER	IQUANT	3	Ich Filter
VCHRANGE	IQUANT	2	Vch Range
VCHRANGEMODE	TOGGLE	F	Vch Auto Range
VCHOFFSETENABLE	TOGGLE	T	Vch Offset Enable
VCHOFFSET	QUANT	0	Vch Offset (V)
VCHFILTER	IQUANT	3	Vch Filter
ACHRANGE	IQUANT	2	Ach Range
ACHOFFSETENABLE	TOGGLE	F	Ach Offset Enable
ACHOFFSET	QUANT	0	Ach Offset (V)
ACHFILTER	IQUANT	3	Ach Filter
IERANGELOWERLIMIT	IQUANT	2	I/E Range Lower Limit
IERANGEMODE	TOGGLE	F	I/E AutoRange
IERANGE	IQUANT	11	I/E Range
POSFEEDENABLE	TOGGLE	F	Positive Feedback IR Comp
POSFEEDRESISTANCE	QUANT	0	Positive Feedback Resistance (ohm)
ACHSELECT	IQUANT	0	Ach Select
CABLEID	IQUANT	13	Cable ID
DCCALDATE	LABEL	9/10/2021	DC Calibration Date
ACCALDATE	LABEL	9/10/2021	AC Calibration Date
THERMOSELECT	IQUANT	1	Thermo Select
FRAMEWORKVERSION	QUANT	6.33	Framework Version
INSTRUMENTVERSION	LABEL	3.50	Instrument Version
COMPLIANCEVOLTAGE	IQUANT	0	Compliance Voltage
ZCURVE	TABLE
	Pt	Time	Freq	Zreal	Zimag	Zsig	Zmod	Zphz	Idc	Vdc	IERange
	#	s	Hz	ohm	ohm	V	ohm	°	A	V	#
	0	6	300046.9	34.22675	-10.61212	1	35.83417	-17.22623	3.819011E-005	-0.0016792	9
	1	9	238359.4	35.18692	-13.67561	1	37.75105	-21.23892	8.17323E-006	-0.0003576	9
	2	13	189328.1	36.28673	-17.02977	1	40.08416	-25.1412	-3.943613E-005	0.0006218	9
	3	15	150421.9	37.75219	-20.94969	1	43.17542	-29.02706	-6.874573E-006	-0.0007083	9
	4	18	119484.4	39.34877	-25.57591	1	46.9303	-33.02306	1.627149E-006	0.0002183	9
	5	20	94921.88	41.53629	-30.7175	1	51.66071	-36.48419	1.002326E-005	-0.0006292	9
	6	23	75421.88	43.80054	-36.79317	1	57.20337	-40.03081	1.858906E-005	-0.0006171	9
	7	25	59859.37	46.57891	-44.2239	1	64.22887	-43.51435	-9.788184E-006	0.0003203	9
	8	28	47578.12	49.97895	-52.64594	1	72.59126	-46.48865	-3.974249E-006	0.0003122	9
	9	30	37828.12	53.95301	-62.82922	1	82.81568	-49.3465	9.564537E-006	-0.0005744	9
	10	33	30046.88	58.83887	-75.02051	1	95.342	-51.89278	-3.646589E-007	0.0001076	9
	11	35	23859.38	64.64021	-89.19362	1	110.1538	-54.06849	-6.205512E-006	-0.000159	9
	12	38	18984.38	71.69608	-105.8704	1	127.8627	-55.8939	1.696323E-005	-0.0006314	9
	13	40	15046.87	80.67751	-125.681	1	149.3472	-57.30268	-3.673608E-006	0.0002865	9
	14	42	11953.13	91.54317	-149.3395	1	175.164	-58.49224	5.065993E-006	-0.0004989	9
	15	44	9515.62	104.2534	-176.9833	1	205.4066	-59.49945	8.511886E-006	-0.0005937	9
	16	47	7546.875	120.3462	-209.2798	1	241.4151	-60.09898	-1.211152E-005	0.0003067	9
	17	49	5928.309	139.9144	-250.603	1	287.0155	-60.8249	-1.07089E-005	1.218581E-005	9
	18	51	4733.456	162.2709	-293.8511	1	335.6789	-61.09157	-1.32525E-005	0.0001148	9
	19	54	3796.875	188.1231	-343.3375	1	391.4984	-61.28057	1.745291E-005	-0.0004341	9
	20	56	2987.132	222.1772	-405.0561	1	461.9883	-61.25481	-3.960619E-007	-0.0001798	8
	21	58	2390.625	259.2842	-473.4645	1	539.812	-61.29348	2.367541E-007	-0.0003756	8
	22	61	1884.191	307.9139	-556.8757	1	636.3344	-61.06043	2.977113E-006	-0.00065	8
	23	63	1516.544	360.6825	-644.466	1	738.5312	-60.76596	1.461031E-006	-0.0007091	8
	24	65	1193.986	429.8839	-757.1713	1	870.6943	-60.41426	3.552742E-006	-0.0009629	8
	25	68	946.5144	513.2341	-879.4689	1	1018.271	-59.73333	6.174036E-007	-0.0004604	8
	26	70	751.7689	605.5165	-1028.511	1	1193.518	-59.51336	-1.739546E-006	0.0006995	8
	27	72	597.4265	720.8791	-1191.592	1	1392.68	-58.82725	-1.807753E-006	0.0007188	8
	28	75	477.4305	856.5273	-1370.552	1	1616.184	-57.99665	4.904992E-007	-0.0001149	8
	29	77	376.6741	1027.336	-1584.002	1	1887.983	-57.03377	4.806217E-007	-0.000106	8
	30	79	298.2954	1227.981	-1818.39	1	2194.193	-55.96836	4.781392E-007	-0.0001044	8
	31	82	237.7717	1458.097	-2068.938	1	2531.116	-54.8255	4.813134E-007	-0.0001114	8
	32	84	189.0121	1732.342	-2346.468	1	2916.662	-53.56242	4.75114E-007	-0.0001083	8
	33	86	150.2404	2051.844	-2644.017	1	3346.773	-52.18737	4.855162E-007	-0.0001132	8
	34	89	119.1737	2425.027	-2963.363	1	3829.135	-50.7053	4.80881E-007	-0.0001169	8
	35	91	95.0169	2858.513	-3298.327	1	4364.638	-49.08599	2.966697E-008	-0.0001	7
	36	94	75.60484	3332.804	-3641.624	1	4936.497	-47.53534	3.074747E-008	-0.0000991	7
	37	96	54.50582	4104.784	-4147.629	1	5835.416	-45.29747	3.131791E-008	-0.000104	7
	38	99	45.95588	4549.863	-4415.887	1	6340.451	-44.14389	3.270914E-008	-0.0000987	7
	39	101	37.20238	5137.836	-4753.359	1	6999.414	-42.774	4.52657E-008	-0.0001365	7
	40	103	30.04808	5769.887	-5102.376	1	7702.327	-41.48669	2.85838E-008	-0.0000994	7
	41	106	23.91582	6485.976	-5486.793	1	8495.457	-40.22946	2.908644E-008	-0.0001058	7
	42	108	18.60119	7307.732	-5944.405	1	9420.133	-39.1263	6.355259E-008	-0.000104	7
	43	111	15.02404	8063.811	-6354.078	1	10266.42	-38.23721	4.077747E-009	-0.0001051	7
	44	113	12.01923	8866.44	-6822.577	1	11187.55	-37.57768	4.008176E-008	-0.0000982	7
	45	115	9.450605	9788.1	-7388.232	1	12263.48	-37.04616	5.337656E-008	-0.000103	7
	46	118	7.512019	10730.04	-8023.858	1	13398.36	-36.78891	2.71399E-008	-8.355914E-005	7
	47	120	5.978954	11708.14	-8732.07	1	14605.81	-36.71601	2.135303E-008	-0.0000967	7
	48	123	4.734848	12805.33	-9574.6	1	15989.04	-36.78564	2.675573E-008	-0.0001023	7
	49	127	3.75601	14008.5	-10568.32	1	17547.86	-37.03169	3.100084E-008	-8.945294E-005	7
	50	130	3.004808	15286.71	-11655.1	1	19223.03	-37.32311	4.264665E-008	-0.0001281	7
	51	134	2.372217	16878.98	-12993.19	1	21300.78	-37.58854	3.375274E-008	-0.0001655	7
	52	138	1.878005	18672.22	-14470.74	1	23623.17	-37.77523	4.244348E-008	-8.311829E-005	7
	53	143	1.512097	20632.34	-15949.31	1	26078.22	-37.70491	4.299381E-008	-0.000153	7
	54	148	1.201923	23125.99	-17646.17	1	29089.49	-37.34526	4.24512E-008	-6.997868E-005	7
	55	154	0.956633	25983.8	-19307.76	1	32372.02	-36.61489	2.781506E-008	-0.0006436	7
