EXPLAIN
TAG	EISPOT
TITLE	LABEL	Potentiostatic EIS	Test Identifier
DATE	LABEL	11/20/2021	Date
TIME	LABEL	16:34:34	Time
NOTES	NOTES	1	Notes...
	
PSTAT	PSTAT	REF3000-16137	Potentiostat
VDC	POTEN	0.00000E+000	T	DC Voltage (V)
FREQINIT	QUANT	3.00000E+005	Initial Freq. (Hz)
FREQFINAL	QUANT	1.00000E+000	Final Freq. (Hz)
PTSPERDEC	QUANT	1.00000E+001	Points/decade
VAC	QUANT	5.00000E+001	AC Voltage (mV rms)
AREA	QUANT	1.00000E+000	Sample Area (cm^2)
SPEED	SELECTOR	2	Optimize for:
ZGUESS	QUANT	1.00000E+003	Estimated Z (ohms)
EOC	QUANT	0	Open Circuit (V)
SEQUENCER	TOGGLE	TRUE	Run as Sequence
PSTATMODEL	IQUANT	5	Pstat Model
PSTATSECTION	LABEL	REF3000-16137	Pstat Section
PSTATSERIALNO	LABEL	16137	Pstat Serial Number
CTRLMODE	IQUANT	1	Control Mode
IESTAB	IQUANT	0	I/E Stability
CASPEED	IQUANT	1	Control Amp Speed
CONVENTION	IQUANT	1	Current Convention
ICHRANGE	IQUANT	2	Ich Range
ICHRANGEMODE	TOGGLE	F	Ich Auto Range
ICHOFFSETENABLE	TOGGLE	T	Ich Offset Enable
ICHOFFSET	QUANT	0	Ich Offset (V)
ICHFILTER	IQUANT	3	Ich Filter
VCHRANGE	IQUANT	2	Vch Range
VCHRANGEMODE	TOGGLE	F	Vch Auto Range
VCHOFFSETENABLE	TOGGLE	T	Vch Offset Enable
VCHOFFSET	QUANT	0	Vch Offset (V)
VCHFILTER	IQUANT	3	Vch Filter
ACHRANGE	IQUANT	2	Ach Range
ACHOFFSETENABLE	TOGGLE	F	Ach Offset Enable
ACHOFFSET	QUANT	0	Ach Offset (V)
ACHFILTER	IQUANT	3	Ach Filter
IERANGELOWERLIMIT	IQUANT	2	I/E Range Lower Limit
IERANGEMODE	TOGGLE	F	I/E AutoRange
IERANGE	IQUANT	11	I/E Range
POSFEEDENABLE	TOGGLE	F	Positive Feedback IR Comp
POSFEEDRESISTANCE	QUANT	0	Positive Feedback Resistance (ohm)
ACHSELECT	IQUANT	0	Ach Select
CABLEID	IQUANT	13	Cable ID
DCCALDATE	LABEL	9/10/2021	DC Calibration Date
ACCALDATE	LABEL	9/10/2021	AC Calibration Date
THERMOSELECT	IQUANT	1	Thermo Select
FRAMEWORKVERSION	QUANT	6.33	Framework Version
INSTRUMENTVERSION	LABEL	3.50	Instrument Version
COMPLIANCEVOLTAGE	IQUANT	0	Compliance Voltage
ZCURVE	TABLE
	Pt	Time	Freq	Zreal	Zimag	Zsig	Zmod	Zphz	Idc	Vdc	IERange
	#	s	Hz	ohm	ohm	V	ohm	°	A	V	#
	0	7	300046.9	80.3186	-10.34493	1	80.98206	-7.339215	-8.699077E-006	0.0004598	9
	1	10	238359.4	81.48597	-13.40475	1	82.58118	-9.341708	-6.952191E-005	0.0015117	9
	2	13	189328.1	82.49321	-16.87818	1	84.20216	-11.56317	1.445826E-005	-0.0010404	9
	3	16	150421.9	84.18621	-20.84408	1	86.72828	-13.90648	-1.015898E-005	0.0005598	9
	4	19	119484.4	86.14346	-25.30375	1	89.78294	-16.36961	-3.488455E-005	-5.492068E-005	9
	5	21	94921.88	88.29768	-30.47589	1	93.4091	-19.04208	2.217214E-005	-0.0007942	9
	6	24	75421.88	90.92209	-36.72795	1	98.06	-21.99623	-1.507737E-005	3.575549E-005	9
	7	26	59859.37	93.9336	-44.18856	1	103.8082	-25.19339	-1.674747E-005	0.000498	9
	8	29	47578.12	97.5184	-52.85416	1	110.9207	-28.45733	-1.522068E-005	4.802893E-005	9
	9	31	37828.12	101.6679	-63.14709	1	119.6825	-31.84489	-3.41804E-006	0.000424	9
	10	34	30046.88	106.5813	-75.42666	1	130.5709	-35.28672	1.611013E-005	-0.0008412	9
	11	36	23859.38	112.5048	-90.13225	1	144.1567	-38.69965	1.194309E-005	-0.0001658	9
	12	38	18984.38	119.3777	-106.9763	1	160.2965	-41.86402	-1.846537E-005	0.000155	9
	13	41	15046.87	127.6696	-128.0421	1	180.8156	-45.08347	-4.732428E-006	-0.0003716	9
	14	43	11953.13	137.0197	-153.3261	1	205.629	-48.21447	2.086291E-005	-0.0005531	9
	15	45	9515.62	148.2448	-182.7881	1	235.3466	-50.95727	-1.942756E-005	0.0004325	9
	16	48	7546.875	162.1033	-218.8332	1	272.3333	-53.47037	-1.107738E-005	0.0005121	9
	17	50	5928.309	179.5097	-263.1381	1	318.5363	-55.69865	-4.684443E-006	-0.0003788	9
	18	52	4733.456	198.1933	-311.6745	1	369.3529	-57.54779	-1.573212E-005	4.587265E-005	9
	19	55	3796.875	222.4964	-368.9413	1	430.8391	-58.9072	1.975448E-005	-0.0008698	9
	20	57	2987.132	250.0554	-444.832	1	510.2971	-60.65816	1.469187E-006	0.000583	8
	21	59	2390.625	284.1344	-527.9018	1	599.5104	-61.70938	5.823251E-006	-0.0014778	8
	22	63	1884.191	326.3877	-635.7662	1	714.6521	-62.82508	1.461297E-006	0.000579	8
	23	65	1516.544	376.0601	-750.3607	1	839.3226	-63.38123	5.044071E-006	-0.0020814	8
	24	67	1193.986	438.7101	-901.3181	1	1002.417	-64.04583	-2.098796E-006	0.0015428	8
	25	70	946.5144	515.7748	-1076.677	1	1193.842	-64.40357	4.474248E-007	-0.0012296	8
	26	72	751.7689	606.9676	-1280.894	1	1417.427	-64.64548	5.168141E-006	-0.000942	8
	27	74	597.4265	722.8719	-1516.716	1	1680.17	-64.51738	-4.459892E-006	0.0006719	8
	28	77	477.4305	862.308	-1794.251	1	1990.707	-64.3313	2.622103E-007	-0.0001156	8
	29	79	376.6741	1041.293	-2133.775	1	2374.297	-63.98739	2.723397E-007	-0.000122	8
	30	82	298.2954	1259.228	-2524.462	1	2821.092	-63.4895	2.666003E-007	-0.0001173	8
	31	84	237.7717	1519.47	-2962.658	1	3329.585	-62.84789	2.747031E-007	-0.0001236	8
	32	86	189.0121	1841.694	-3470.836	1	3929.191	-62.04869	2.702553E-007	-0.0001186	8
	33	89	150.2404	2242.992	-4058.064	1	4636.69	-61.06949	3.048503E-008	-0.0001036	7
	34	91	119.1737	2721.013	-4717.286	1	5445.797	-60.0229	3.221929E-008	-0.0001109	7
	35	94	95.0169	3282.904	-5437.753	1	6351.899	-58.8796	3.138333E-008	-0.0001167	7
	36	96	75.60484	3954.468	-6246.753	1	7393.223	-57.6644	3.031302E-008	-0.0001106	7
	37	99	54.50582	5129.058	-7549.184	1	9126.742	-55.80707	2.927296E-008	-0.0001144	7
	38	101	45.95588	5856.122	-8301.832	1	10159.46	-54.80081	3.591723E-008	-0.00011	7
	39	103	37.20238	6874.809	-9294.412	1	11560.67	-53.51073	3.580364E-008	-0.0001125	7
	40	106	30.04808	8050.528	-10367.14	1	13125.87	-52.16912	3.245193E-008	-0.0001106	7
	41	108	23.91582	9468.474	-11581.61	1	14959.47	-50.73249	2.278007E-008	-0.0001122	7
	42	111	18.60119	11233.44	-13006.45	1	17185.98	-49.18342	9.398304E-009	-0.0000951	7
	43	113	15.02404	12913.78	-14282.6	1	19255.09	-47.88133	3.417657E-008	-0.000097	7
	44	115	12.01923	14843.13	-15707.53	1	21611.22	-46.62068	4.476282E-008	-0.0001032	7
	45	118	9.450605	17076.25	-17359.72	1	24350.73	-45.47164	3.242351E-008	-0.0001191	7
	46	120	7.512019	19445.22	-19040.95	1	27215.33	-44.39816	3.941448E-008	-0.0001055	7
	47	123	5.978954	21966.22	-20891.85	1	30314.76	-43.564	3.759635E-008	-0.0001042	7
	48	126	4.734848	24785.45	-22928.34	1	33764.29	-42.77106	3.740237E-008	-0.0001147	7
	49	129	3.75601	27818.52	-25182.1	1	37523.44	-42.15228	2.401777E-008	-0.0001273	7
	50	132	3.004808	31031.31	-27591.17	1	41523.67	-41.64157	1.732992E-009	-0.0001325	6
	51	136	2.372217	34662.49	-30422.13	1	46119.35	-41.27236	3.186295E-009	-8.384785E-005	6
	52	140	1.878005	38622.64	-33731.56	1	51278.91	-41.13274	5.348581E-010	-0.000154	6
	53	145	1.512097	42550.44	-37154.18	1	56488.7	-41.1268	2.936568E-009	-0.0001445	6
	54	151	1.201923	47285.03	-41352.27	1	62816.27	-41.17074	3.37343E-009	-0.0001632	6
	55	157	0.956633	52539.66	-46170.7	1	69943.91	-41.3083	3.404638E-010	-0.0006801	6
