EXPLAIN
TAG	EISPOT
TITLE	LABEL	Potentiostatic EIS	Test Identifier
DATE	LABEL	11/20/2021	Date
TIME	LABEL	16:40:05	Time
NOTES	NOTES	1	Notes...
	
PSTAT	PSTAT	REF3000-16137	Potentiostat
VDC	POTEN	0.00000E+000	T	DC Voltage (V)
FREQINIT	QUANT	3.00000E+005	Initial Freq. (Hz)
FREQFINAL	QUANT	1.00000E+000	Final Freq. (Hz)
PTSPERDEC	QUANT	1.00000E+001	Points/decade
VAC	QUANT	5.00000E+001	AC Voltage (mV rms)
AREA	QUANT	1.00000E+000	Sample Area (cm^2)
SPEED	SELECTOR	2	Optimize for:
ZGUESS	QUANT	1.00000E+003	Estimated Z (ohms)
EOC	QUANT	0	Open Circuit (V)
SEQUENCER	TOGGLE	TRUE	Run as Sequence
PSTATMODEL	IQUANT	5	Pstat Model
PSTATSECTION	LABEL	REF3000-16137	Pstat Section
PSTATSERIALNO	LABEL	16137	Pstat Serial Number
CTRLMODE	IQUANT	1	Control Mode
IESTAB	IQUANT	0	I/E Stability
CASPEED	IQUANT	1	Control Amp Speed
CONVENTION	IQUANT	1	Current Convention
ICHRANGE	IQUANT	2	Ich Range
ICHRANGEMODE	TOGGLE	F	Ich Auto Range
ICHOFFSETENABLE	TOGGLE	T	Ich Offset Enable
ICHOFFSET	QUANT	0	Ich Offset (V)
ICHFILTER	IQUANT	3	Ich Filter
VCHRANGE	IQUANT	2	Vch Range
VCHRANGEMODE	TOGGLE	F	Vch Auto Range
VCHOFFSETENABLE	TOGGLE	T	Vch Offset Enable
VCHOFFSET	QUANT	0	Vch Offset (V)
VCHFILTER	IQUANT	3	Vch Filter
ACHRANGE	IQUANT	2	Ach Range
ACHOFFSETENABLE	TOGGLE	F	Ach Offset Enable
ACHOFFSET	QUANT	0	Ach Offset (V)
ACHFILTER	IQUANT	3	Ach Filter
IERANGELOWERLIMIT	IQUANT	2	I/E Range Lower Limit
IERANGEMODE	TOGGLE	F	I/E AutoRange
IERANGE	IQUANT	11	I/E Range
POSFEEDENABLE	TOGGLE	F	Positive Feedback IR Comp
POSFEEDRESISTANCE	QUANT	0	Positive Feedback Resistance (ohm)
ACHSELECT	IQUANT	0	Ach Select
CABLEID	IQUANT	13	Cable ID
DCCALDATE	LABEL	9/10/2021	DC Calibration Date
ACCALDATE	LABEL	9/10/2021	AC Calibration Date
THERMOSELECT	IQUANT	1	Thermo Select
FRAMEWORKVERSION	QUANT	6.33	Framework Version
INSTRUMENTVERSION	LABEL	3.50	Instrument Version
COMPLIANCEVOLTAGE	IQUANT	0	Compliance Voltage
ZCURVE	TABLE
	Pt	Time	Freq	Zreal	Zimag	Zsig	Zmod	Zphz	Idc	Vdc	IERange
	#	s	Hz	ohm	ohm	V	ohm	°	A	V	#
	0	7	300046.9	112.1182	-12.54247	1	112.8176	-6.383039	1.612912E-005	0.0003944	9
	1	10	238359.4	113.409	-15.70092	1	114.4907	-7.882214	-3.877537E-006	0.0006241	9
	2	13	189328.1	115.7087	-19.33681	1	117.3133	-9.487388	-7.877389E-005	0.0025672	9
	3	15	150421.9	116.5996	-23.34685	1	118.914	-11.32265	-3.493186E-005	-0.0002566	9
	4	18	119484.4	118.8127	-28.45781	1	122.1732	-13.46963	6.665994E-005	-0.0023951	9
	5	20	94921.88	121.3016	-34.24301	1	126.0423	-15.76418	-1.550862E-005	-2.453654E-005	9
	6	23	75421.88	124.2337	-41.12567	1	130.8638	-18.31634	-2.020918E-005	0.0006086	9
	7	26	59859.37	127.62	-49.434	1	136.8597	-21.17403	2.395645E-005	-0.0006755	9
	8	28	47578.12	131.8988	-58.94561	1	144.471	-24.07989	-1.126901E-005	-0.0001638	9
	9	31	37828.12	136.7005	-70.38567	1	153.7569	-27.24347	1.502991E-005	-0.0001157	9
	10	33	30046.88	142.3239	-84.09122	1	165.3101	-30.57647	-2.0803E-005	0.0005663	9
	11	36	23859.38	148.9317	-100.2983	1	179.5561	-33.95837	-2.120492E-005	0.0004315	9
	12	38	18984.38	156.8907	-118.958	1	196.8901	-37.17022	-2.044013E-005	0.0003576	9
	13	40	15046.87	166.4921	-141.936	1	218.7817	-40.44789	-1.623134E-005	0.0006377	9
	14	44	11953.13	177.3348	-169.5583	1	245.3521	-43.71578	-1.737687E-005	0.0001403	9
	15	46	9515.62	189.9131	-202.6543	1	277.7332	-46.85893	-5.191075E-006	0.000441	9
	16	48	7546.875	205.6472	-239.6129	1	315.7612	-49.36224	-1.10635E-005	-0.0001818	9
	17	50	5928.309	224.7309	-290.3063	1	367.1263	-52.25596	-2.053742E-005	0.0003323	9
	18	53	4733.456	246.1526	-345.5918	1	424.2933	-54.5391	-1.111531E-005	-0.0001779	9
	19	55	3796.875	270.0877	-408.32	1	489.5637	-56.51692	7.316108E-006	-0.0026009	8
	20	58	2987.132	302.1918	-490.5294	1	576.1414	-58.36476	-5.689387E-006	0.0007989	8
	21	60	2390.625	338.0879	-583.3281	1	674.2219	-59.90409	7.679219E-006	-0.0018561	8
	22	62	1884.191	384.7511	-701.3059	1	799.9146	-61.2499	-6.502978E-006	0.0020608	8
	23	65	1516.544	437.8363	-828.9018	1	937.4321	-62.15642	7.563197E-006	-0.0018858	8
	24	67	1193.986	505.4138	-995.352	1	1116.319	-63.07973	7.651302E-006	-0.0022128	8
	25	69	946.5144	586.513	-1191.348	1	1327.896	-63.7885	-6.701575E-006	0.0016931	8
	26	72	751.7689	688.7175	-1416.812	1	1575.337	-64.07544	2.857495E-006	-0.0022687	8
	27	75	597.4265	804.1396	-1685.717	1	1867.694	-64.4974	-4.11174E-006	-2.094245E-005	8
	28	77	477.4305	952.609	-1999.221	1	2214.577	-64.52267	1.881538E-007	-0.0001267	8
	29	80	376.6741	1139.662	-2386.326	1	2644.5	-64.47178	1.824511E-007	-0.0001347	8
	30	82	298.2954	1368.055	-2836.321	1	3149.014	-64.25039	1.804797E-007	-0.0001264	8
	31	84	237.7717	1641.154	-3346.858	1	3727.579	-63.87867	1.659026E-007	-0.0001159	8
	32	87	189.0121	1989.867	-3955.246	1	4427.588	-63.29323	1.491128E-008	-0.0001101	7
	33	89	150.2404	2410.049	-4647.322	1	5235.068	-62.58926	1.89754E-008	-0.0001135	7
	34	91	119.1737	2931.707	-5445.402	1	6184.441	-61.70277	1.776955E-008	-0.0001086	7
	35	94	95.0169	3549.663	-6331.024	1	7258.235	-60.72163	1.896827E-008	-0.0001173	7
	36	96	75.60484	4301.974	-7333.175	1	8501.908	-59.60218	1.6143E-008	-0.0001237	7
	37	99	54.50582	5641.524	-8962.19	1	10589.98	-57.81038	1.601085E-008	-0.000113	7
	38	101	45.95588	6481.305	-9914.67	1	11845.17	-56.82701	1.942137E-008	-0.0001001	7
	39	104	37.20238	7672.717	-11181.3	1	13560.68	-55.54172	1.988308E-008	-0.0001015	7
	40	106	30.04808	9053.285	-12560.41	1	15483.09	-54.21672	1.931145E-008	-0.0001161	7
	41	109	23.91582	10768.58	-14143.65	1	17776.54	-52.71537	6.009108E-009	-0.0001023	7
	42	111	18.60119	12928.36	-16004.23	1	20573.71	-51.06842	2.363317E-008	-0.000113	7
	43	113	15.02404	14999.1	-17683.13	1	23187.63	-49.69488	2.309144E-008	-0.0001021	7
	44	115	12.01923	17422.02	-19505.3	1	26153.08	-48.22896	3.77303E-009	-0.0001141	7
	45	118	9.450605	20258.93	-21583.7	1	29602.04	-46.81343	2.721254E-008	-0.0001137	7
	46	120	7.512019	23247	-23739.64	1	33226.4	-45.60072	1.124795E-008	-0.000103	7
	47	123	5.978954	26460.3	-26002.67	1	37098.34	-44.50023	7.497632E-009	-0.0001095	7
	48	126	4.734848	30140.8	-28521.05	1	41496	-43.41838	1.815876E-009	-0.000151	6
	49	129	3.75601	34015.61	-31286.29	1	46215.72	-42.60669	1.252921E-009	-0.0001498	6
	50	133	3.004808	37991.88	-34187.17	1	51109.15	-41.98262	8.684871E-009	-0.0001812	6
	51	137	2.372217	42697.23	-37563.44	1	56868.85	-41.34011	1.937408E-009	-0.0002169	6
	52	141	1.878005	47577.34	-41428.23	1	63086.46	-41.0479	6.092238E-009	-0.0001304	6
	53	145	1.512097	52518.03	-45428.17	1	69439.63	-40.85985	5.553867E-009	-0.0001674	6
	54	151	1.201923	58381.93	-50310.55	1	77068.8	-40.75307	4.402368E-009	-0.0001114	6
	55	157	0.956633	64798.38	-55916.14	1	85588.81	-40.79173	-1.493391E-009	-0.0006921	6
