EXPLAIN
TAG	EISPOT
TITLE	LABEL	Potentiostatic EIS	Test Identifier
DATE	LABEL	11/20/2021	Date
TIME	LABEL	16:37:20	Time
NOTES	NOTES	1	Notes...
	
PSTAT	PSTAT	REF3000-16137	Potentiostat
VDC	POTEN	0.00000E+000	T	DC Voltage (V)
FREQINIT	QUANT	3.00000E+005	Initial Freq. (Hz)
FREQFINAL	QUANT	1.00000E+000	Final Freq. (Hz)
PTSPERDEC	QUANT	1.00000E+001	Points/decade
VAC	QUANT	5.00000E+001	AC Voltage (mV rms)
AREA	QUANT	1.00000E+000	Sample Area (cm^2)
SPEED	SELECTOR	2	Optimize for:
ZGUESS	QUANT	1.00000E+003	Estimated Z (ohms)
EOC	QUANT	0	Open Circuit (V)
SEQUENCER	TOGGLE	TRUE	Run as Sequence
PSTATMODEL	IQUANT	5	Pstat Model
PSTATSECTION	LABEL	REF3000-16137	Pstat Section
PSTATSERIALNO	LABEL	16137	Pstat Serial Number
CTRLMODE	IQUANT	1	Control Mode
IESTAB	IQUANT	0	I/E Stability
CASPEED	IQUANT	1	Control Amp Speed
CONVENTION	IQUANT	1	Current Convention
ICHRANGE	IQUANT	2	Ich Range
ICHRANGEMODE	TOGGLE	F	Ich Auto Range
ICHOFFSETENABLE	TOGGLE	T	Ich Offset Enable
ICHOFFSET	QUANT	0	Ich Offset (V)
ICHFILTER	IQUANT	3	Ich Filter
VCHRANGE	IQUANT	2	Vch Range
VCHRANGEMODE	TOGGLE	F	Vch Auto Range
VCHOFFSETENABLE	TOGGLE	T	Vch Offset Enable
VCHOFFSET	QUANT	0	Vch Offset (V)
VCHFILTER	IQUANT	3	Vch Filter
ACHRANGE	IQUANT	2	Ach Range
ACHOFFSETENABLE	TOGGLE	F	Ach Offset Enable
ACHOFFSET	QUANT	0	Ach Offset (V)
ACHFILTER	IQUANT	3	Ach Filter
IERANGELOWERLIMIT	IQUANT	2	I/E Range Lower Limit
IERANGEMODE	TOGGLE	F	I/E AutoRange
IERANGE	IQUANT	11	I/E Range
POSFEEDENABLE	TOGGLE	F	Positive Feedback IR Comp
POSFEEDRESISTANCE	QUANT	0	Positive Feedback Resistance (ohm)
ACHSELECT	IQUANT	0	Ach Select
CABLEID	IQUANT	13	Cable ID
DCCALDATE	LABEL	9/10/2021	DC Calibration Date
ACCALDATE	LABEL	9/10/2021	AC Calibration Date
THERMOSELECT	IQUANT	1	Thermo Select
FRAMEWORKVERSION	QUANT	6.33	Framework Version
INSTRUMENTVERSION	LABEL	3.50	Instrument Version
COMPLIANCEVOLTAGE	IQUANT	0	Compliance Voltage
ZCURVE	TABLE
	Pt	Time	Freq	Zreal	Zimag	Zsig	Zmod	Zphz	Idc	Vdc	IERange
	#	s	Hz	ohm	ohm	V	ohm	°	A	V	#
	0	7	300046.9	94.34451	-11.43012	1	95.0344	-6.90789	1.233941E-005	-0.001221	9
	1	10	238359.4	95.532	-14.20254	1	96.582	-8.456102	6.034648E-005	-0.0031051	9
	2	13	189328.1	96.8651	-17.90309	1	98.5057	-10.47152	-2.836522E-006	0.0007576	9
	3	16	150421.9	98.4647	-22.02462	1	100.8979	-12.60839	-1.208128E-006	0.0007341	9
	4	18	119484.4	100.4421	-26.66004	1	103.92	-14.86509	1.158267E-006	-0.0013258	9
	5	21	94921.88	102.8427	-32.16926	1	107.7565	-17.36972	-1.912243E-005	0.0005728	9
	6	23	75421.88	105.5364	-38.86839	1	112.4663	-20.21844	2.227132E-005	-0.0008503	9
	7	26	59859.37	108.7592	-46.73664	1	118.376	-23.25445	3.296877E-006	0.0001266	9
	8	28	47578.12	112.5229	-55.8638	1	125.6271	-26.40284	3.606584E-006	-0.0006491	9
	9	31	37828.12	117.1365	-66.59968	1	134.746	-29.62103	2.111532E-005	-0.0005556	9
	10	33	30046.88	122.53	-79.35786	1	145.9838	-32.92953	1.061175E-005	-0.0008056	9
	11	36	23859.38	128.6147	-94.78784	1	159.7701	-36.38988	-1.673083E-005	0.0005812	9
	12	38	18984.38	135.9491	-112.5034	1	176.463	-39.60914	-1.881011E-005	0.000587	9
	13	40	15046.87	144.6649	-134.0507	1	197.2245	-42.81907	-1.505307E-005	2.334973E-005	9
	14	43	11953.13	155.2224	-160.0538	1	222.9601	-45.87796	-1.796549E-005	0.000169	9
	15	45	9515.62	166.8117	-191.1251	1	253.6828	-48.88594	3.286139E-006	0.0002555	9
	16	47	7546.875	181.88	-228.8142	1	292.2948	-51.51949	2.398909E-005	-0.0006707	9
	17	50	5928.309	198.8517	-275.4866	1	339.757	-54.17749	-1.096318E-005	0.0005497	9
	18	52	4733.456	220.113	-327.7292	1	394.7862	-56.11348	-4.306208E-006	0.000424	9
	19	54	3796.875	243.078	-387.4523	1	457.3907	-57.89686	-3.927961E-007	0.0013857	8
	20	57	2987.132	273.6184	-466.6241	1	540.9298	-59.61355	4.235441E-006	-0.0022397	8
	21	59	2390.625	308.5426	-552.9547	1	633.212	-60.83897	6.722171E-006	-0.0019677	8
	22	61	1884.191	358.3291	-663.7208	1	754.2712	-61.63631	-3.616803E-006	3.816638E-005	8
	23	63	1516.544	403.0494	-786.4215	1	883.6898	-62.86438	-5.658686E-007	0.0013495	8
	24	66	1193.986	470.2386	-944.8687	1	1055.415	-63.54156	-1.625879E-006	-0.0007362	8
	25	68	946.5144	546.7418	-1131.811	1	1256.95	-64.21629	6.934053E-006	-0.0019831	8
	26	71	751.7689	647.0933	-1342.002	1	1489.865	-64.25732	-5.585201E-006	0.0017882	8
	27	73	597.4265	766.6425	-1594.402	1	1769.141	-64.32018	-5.072698E-006	0.0007498	8
	28	76	477.4305	902.4207	-1890.046	1	2094.43	-64.4774	2.434183E-007	-0.0001521	8
	29	78	376.6741	1085.059	-2252.2	1	2499.952	-64.27629	2.170663E-007	-0.0001248	8
	30	80	298.2954	1308.043	-2671.2	1	2974.271	-63.90976	2.21702E-007	-0.0001228	8
	31	83	237.7717	1574.931	-3143.681	1	3516.126	-63.3899	2.176636E-007	-0.0001179	8
	32	85	189.0121	1906.947	-3694.877	1	4157.952	-62.70149	2.237277E-007	-0.000131	8
	33	87	150.2404	2322.284	-4336.17	1	4918.879	-61.82823	2.422759E-008	-0.000107	7
	34	90	119.1737	2824.491	-5060.333	1	5795.232	-60.83135	2.395722E-008	-0.0001062	7
	35	92	95.0169	3413.475	-5856.516	1	6778.687	-59.76419	2.52704E-008	-0.0001141	7
	36	95	75.60484	4125.456	-6754.638	1	7914.829	-58.58512	2.54917E-008	-0.0001096	7
	37	97	54.50582	5379.26	-8210.945	1	9816.11	-56.76987	2.525331E-008	-0.0001046	7
	38	100	45.95588	6160.576	-9059.261	1	10955.5	-55.78309	1.820182E-008	-0.0001064	7
	39	102	37.20238	7260.201	-10178.4	1	12502.41	-54.49994	2.107649E-008	-0.0001044	7
	40	104	30.04808	8537.188	-11396.34	1	14239.39	-53.16252	2.761058E-008	-0.0001121	7
	41	107	23.91582	10101.4	-12782.47	1	16292.01	-51.6823	1.462664E-008	-0.000101	7
	42	109	18.60119	12047.64	-14402.33	1	18776.91	-50.0873	1.19765E-008	-0.0001013	7
	43	111	15.02404	13930.7	-15864.25	1	21112.53	-48.71303	3.703601E-008	-0.000105	7
	44	114	12.01923	16065.48	-17467.96	1	23732.45	-47.39492	3.298375E-008	-0.0001127	7
	45	116	9.450605	18584.37	-19288.4	1	26784.72	-46.06496	8.580607E-009	-0.0001065	7
	46	119	7.512019	21231.26	-21177.03	1	29987.22	-44.92674	9.365775E-009	-0.0001123	7
	47	121	5.978954	24080.49	-23245.32	1	33469.62	-43.98899	1.442771E-008	-0.0001055	7
	48	124	4.734848	27292.07	-25490.27	1	37344.48	-43.04488	1.975273E-008	-0.0001154	7
	49	128	3.75601	30752.96	-27940.39	1	41550.09	-42.2565	6.813641E-009	-0.0001213	6
	50	131	3.004808	34289.71	-30602.48	1	45959.72	-41.7479	9.473947E-009	-0.0001499	6
	51	135	2.372217	38441.54	-33668.33	1	51100.96	-41.21291	3.056859E-009	-0.000214	6
	52	139	1.878005	42782.54	-37184.98	1	56683.93	-40.99594	5.343042E-009	-0.0001228	6
	53	144	1.512097	47183.23	-40834.54	1	62399.65	-40.87442	5.825848E-009	-0.0002134	6
	54	149	1.201923	52427.05	-45372.63	1	69334.48	-40.87433	4.081696E-009	-0.0001116	6
	55	155	0.956633	58166.15	-50591.68	1	77089.68	-41.01605	-1.848179E-010	-0.0006875	6
