EXPLAIN
TAG	EISPOT
TITLE	LABEL	Potentiostatic EIS	Test Identifier
DATE	LABEL	11/20/2021	Date
TIME	LABEL	16:23:37	Time
NOTES	NOTES	1	Notes...
	
PSTAT	PSTAT	REF3000-16137	Potentiostat
VDC	POTEN	0.00000E+000	T	DC Voltage (V)
FREQINIT	QUANT	3.00000E+005	Initial Freq. (Hz)
FREQFINAL	QUANT	1.00000E+000	Final Freq. (Hz)
PTSPERDEC	QUANT	1.00000E+001	Points/decade
VAC	QUANT	5.00000E+001	AC Voltage (mV rms)
AREA	QUANT	1.00000E+000	Sample Area (cm^2)
SPEED	SELECTOR	2	Optimize for:
ZGUESS	QUANT	1.00000E+003	Estimated Z (ohms)
EOC	QUANT	0	Open Circuit (V)
SEQUENCER	TOGGLE	TRUE	Run as Sequence
PSTATMODEL	IQUANT	5	Pstat Model
PSTATSECTION	LABEL	REF3000-16137	Pstat Section
PSTATSERIALNO	LABEL	16137	Pstat Serial Number
CTRLMODE	IQUANT	1	Control Mode
IESTAB	IQUANT	0	I/E Stability
CASPEED	IQUANT	1	Control Amp Speed
CONVENTION	IQUANT	1	Current Convention
ICHRANGE	IQUANT	2	Ich Range
ICHRANGEMODE	TOGGLE	F	Ich Auto Range
ICHOFFSETENABLE	TOGGLE	T	Ich Offset Enable
ICHOFFSET	QUANT	0	Ich Offset (V)
ICHFILTER	IQUANT	3	Ich Filter
VCHRANGE	IQUANT	2	Vch Range
VCHRANGEMODE	TOGGLE	F	Vch Auto Range
VCHOFFSETENABLE	TOGGLE	T	Vch Offset Enable
VCHOFFSET	QUANT	0	Vch Offset (V)
VCHFILTER	IQUANT	3	Vch Filter
ACHRANGE	IQUANT	2	Ach Range
ACHOFFSETENABLE	TOGGLE	F	Ach Offset Enable
ACHOFFSET	QUANT	0	Ach Offset (V)
ACHFILTER	IQUANT	3	Ach Filter
IERANGELOWERLIMIT	IQUANT	2	I/E Range Lower Limit
IERANGEMODE	TOGGLE	F	I/E AutoRange
IERANGE	IQUANT	11	I/E Range
POSFEEDENABLE	TOGGLE	F	Positive Feedback IR Comp
POSFEEDRESISTANCE	QUANT	0	Positive Feedback Resistance (ohm)
ACHSELECT	IQUANT	0	Ach Select
CABLEID	IQUANT	13	Cable ID
DCCALDATE	LABEL	9/10/2021	DC Calibration Date
ACCALDATE	LABEL	9/10/2021	AC Calibration Date
THERMOSELECT	IQUANT	1	Thermo Select
FRAMEWORKVERSION	QUANT	6.33	Framework Version
INSTRUMENTVERSION	LABEL	3.50	Instrument Version
COMPLIANCEVOLTAGE	IQUANT	0	Compliance Voltage
ZCURVE	TABLE
	Pt	Time	Freq	Zreal	Zimag	Zsig	Zmod	Zphz	Idc	Vdc	IERange
	#	s	Hz	ohm	ohm	V	ohm	°	A	V	#
	0	7	300046.9	48.31548	-8.372423	1	49.03553	-9.83096	-7.564562E-006	-8.596347E-005	9
	1	10	238359.4	49.19828	-11.25364	1	50.46895	-12.8842	3.006699E-005	-0.0008156	9
	2	13	189328.1	50.25433	-14.33627	1	52.25922	-15.92209	1.415098E-005	-0.0001256	9
	3	16	150421.9	51.47252	-17.76443	1	54.45177	-19.04081	-5.848189E-005	0.001779	9
	4	18	119484.4	53.00158	-21.71724	1	57.27832	-22.28122	-3.148217E-005	0.000108	9
	5	21	94921.88	54.91801	-26.22406	1	60.85795	-25.52508	1.284641E-005	-0.0007375	9
	6	23	75421.88	57.07176	-31.65581	1	65.26313	-29.01568	6.807687E-006	-0.0006344	9
	7	26	59859.37	59.5348	-38.09794	1	70.6813	-32.61629	6.988105E-006	-0.0006205	9
	8	28	47578.12	62.33901	-45.72828	1	77.31253	-36.26161	-1.032596E-005	-6.648493E-005	9
	9	31	37828.12	65.86012	-54.74492	1	85.64205	-39.73439	4.494128E-006	5.498287E-006	9
	10	33	30046.88	69.9669	-65.31093	1	95.7125	-43.02878	1.75724E-005	-0.0003724	9
	11	36	23859.38	74.80477	-78.21092	1	108.2252	-46.2752	-1.640382E-005	0.0002473	9
	12	38	18984.38	80.51796	-93.30637	1	123.2446	-49.20772	8.155195E-006	-0.0006242	9
	13	40	15046.87	87.60588	-111.4349	1	141.7481	-51.82692	-1.403292E-005	0.0004736	9
	14	43	11953.13	95.4186	-133.6919	1	164.2505	-54.48378	1.664779E-005	-0.0004509	9
	15	45	9515.62	105.5022	-159.7009	1	191.4029	-56.55031	-1.748287E-005	0.0003733	9
	16	47	7546.875	117.632	-191.2407	1	224.5224	-58.40436	-2.736105E-006	0.0002464	9
	17	50	5928.309	133.1031	-229.7432	1	265.5153	-59.91387	1.54589E-006	-0.000474	9
	18	52	4733.456	150.748	-273.6393	1	312.4155	-61.14961	-1.465198E-005	0.0001003	9
	19	54	3796.875	171.1944	-324.8982	1	367.2415	-62.21449	1.981509E-005	-0.0007004	9
	20	57	2987.132	198.1391	-389.601	1	437.0905	-63.04351	5.549318E-006	2.175606E-005	9
	21	59	2390.625	229.0082	-459.7358	1	513.6163	-63.52073	2.486707E-006	-0.0001571	8
	22	61	1884.191	271.0572	-549.5218	1	612.7366	-63.74472	-3.293712E-006	0.0008649	8
	23	64	1516.544	315.0387	-646.8662	1	719.5035	-64.03285	-1.984341E-006	0.000097	8
	24	66	1193.986	375.6749	-773.8424	1	860.2114	-64.10496	-1.986228E-006	9.442402E-005	8
	25	69	946.5144	448.1329	-916.4146	1	1020.117	-63.94105	-3.025726E-006	0.0010041	8
	26	71	751.7689	536.1855	-1085.798	1	1210.972	-63.71906	-3.501054E-006	0.0007383	8
	27	73	597.4265	642.9894	-1281.802	1	1434.033	-63.36031	6.531038E-007	-0.0007762	8
	28	75	477.4305	769.1758	-1501.736	1	1687.259	-62.87888	4.059314E-007	-0.0001105	8
	29	78	376.6741	932.864	-1768.685	1	1999.62	-62.19133	4.027546E-007	-0.0001223	8
	30	80	298.2954	1129.057	-2070.737	1	2358.542	-61.39885	4.176752E-007	-0.000119	8
	31	82	237.7717	1358.732	-2404.9	1	2762.191	-60.53421	4.247414E-007	-0.0001248	8
	32	85	189.0121	1637.17	-2786.873	1	3232.179	-59.56756	4.118758E-007	-0.0001154	8
	33	87	150.2404	1968.728	-3216.925	1	3771.538	-58.53376	4.175363E-007	-0.0001541	8
	34	90	119.1737	2377.952	-3712.399	1	4408.691	-57.35868	5.417936E-008	-0.000106	7
	35	92	95.0169	2842.201	-4239.365	1	5103.952	-56.16088	5.190375E-008	-0.0001121	7
	36	95	75.60484	3391.932	-4823.45	1	5896.683	-54.88446	5.473028E-008	-0.0001117	7
	37	97	54.50582	4339.553	-5740.909	1	7196.51	-52.91436	5.576513E-008	-0.0001158	7
	38	100	45.95588	4917.396	-6259.639	1	7960.142	-51.84782	4.365728E-008	-0.0001091	7
	39	102	37.20238	5706.596	-6930.223	1	8977.373	-50.53072	4.102633E-008	-0.0001083	7
	40	104	30.04808	6600.827	-7648.376	1	10102.9	-49.20461	4.713667E-008	-0.0001121	7
	41	107	23.91582	7654.925	-8458.187	1	11407.84	-47.85391	5.297029E-008	-0.000108	7
	42	109	18.60119	8931.376	-9411.434	1	12974.77	-46.49917	7.361167E-008	-0.0001022	7
	43	111	15.02404	10132.44	-10265.94	1	14424.14	-45.37499	5.276712E-008	-0.0001035	7
	44	114	12.01923	11507.8	-11223.18	1	16074.49	-44.28264	3.0041E-008	-0.0001052	7
	45	116	9.450605	13068.82	-12343.24	1	17976.36	-43.36449	5.82175E-008	-0.0001233	7
	46	119	7.512019	14711.04	-13489.8	1	19959.69	-42.52035	3.604382E-008	-0.0001036	7
	47	121	5.978954	16445.06	-14779.88	1	22110.74	-41.94739	4.129116E-008	-0.0001046	7
	48	124	4.734848	18396.96	-16237.7	1	24537.95	-41.43256	4.808588E-008	-0.0001203	7
	49	128	3.75601	20479.3	-17884.31	1	27189.15	-41.13029	5.484111E-008	-9.367001E-005	7
	50	131	3.004808	22649.21	-19693.04	1	30013.37	-41.00632	5.707463E-008	-0.0001183	7
	51	135	2.372217	25191	-21830.82	1	33334.23	-40.91258	5.615739E-008	-0.0001658	7
	52	139	1.878005	27982.03	-24355.97	1	37097.27	-41.03679	5.935009E-008	-0.0001229	7
	53	144	1.512097	30864.96	-26972.74	1	40989.93	-41.15004	1.449085E-008	-0.0001383	6
	54	149	1.201923	34435.66	-30213.78	1	45811.43	-41.26365	1.363334E-008	-0.0001086	6
	55	155	0.956633	38549.47	-33870.12	1	51315.17	-41.30301	4.715388E-009	-0.0006802	6
