EXPLAIN
TAG	EISPOT
TITLE	LABEL	Potentiostatic EIS	Test Identifier
DATE	LABEL	11/20/2021	Date
TIME	LABEL	15:50:18	Time
NOTES	NOTES	1	Notes...
	
PSTAT	PSTAT	REF3000-16137	Potentiostat
VDC	POTEN	0.00000E+000	T	DC Voltage (V)
FREQINIT	QUANT	3.00000E+005	Initial Freq. (Hz)
FREQFINAL	QUANT	1.00000E+000	Final Freq. (Hz)
PTSPERDEC	QUANT	1.00000E+001	Points/decade
VAC	QUANT	5.00000E+001	AC Voltage (mV rms)
AREA	QUANT	1.00000E+000	Sample Area (cm^2)
SPEED	SELECTOR	2	Optimize for:
ZGUESS	QUANT	1.00000E+003	Estimated Z (ohms)
EOC	QUANT	0	Open Circuit (V)
SEQUENCER	TOGGLE	TRUE	Run as Sequence
PSTATMODEL	IQUANT	5	Pstat Model
PSTATSECTION	LABEL	REF3000-16137	Pstat Section
PSTATSERIALNO	LABEL	16137	Pstat Serial Number
CTRLMODE	IQUANT	1	Control Mode
IESTAB	IQUANT	0	I/E Stability
CASPEED	IQUANT	1	Control Amp Speed
CONVENTION	IQUANT	1	Current Convention
ICHRANGE	IQUANT	2	Ich Range
ICHRANGEMODE	TOGGLE	F	Ich Auto Range
ICHOFFSETENABLE	TOGGLE	T	Ich Offset Enable
ICHOFFSET	QUANT	0	Ich Offset (V)
ICHFILTER	IQUANT	3	Ich Filter
VCHRANGE	IQUANT	2	Vch Range
VCHRANGEMODE	TOGGLE	F	Vch Auto Range
VCHOFFSETENABLE	TOGGLE	T	Vch Offset Enable
VCHOFFSET	QUANT	0	Vch Offset (V)
VCHFILTER	IQUANT	3	Vch Filter
ACHRANGE	IQUANT	2	Ach Range
ACHOFFSETENABLE	TOGGLE	F	Ach Offset Enable
ACHOFFSET	QUANT	0	Ach Offset (V)
ACHFILTER	IQUANT	0	Ach Filter
IERANGELOWERLIMIT	IQUANT	2	I/E Range Lower Limit
IERANGEMODE	TOGGLE	F	I/E AutoRange
IERANGE	IQUANT	11	I/E Range
POSFEEDENABLE	TOGGLE	F	Positive Feedback IR Comp
POSFEEDRESISTANCE	QUANT	0	Positive Feedback Resistance (ohm)
ACHSELECT	IQUANT	0	Ach Select
CABLEID	IQUANT	13	Cable ID
DCCALDATE	LABEL	9/10/2021	DC Calibration Date
ACCALDATE	LABEL	9/10/2021	AC Calibration Date
THERMOSELECT	IQUANT	1	Thermo Select
FRAMEWORKVERSION	QUANT	6.33	Framework Version
INSTRUMENTVERSION	LABEL	3.50	Instrument Version
COMPLIANCEVOLTAGE	IQUANT	0	Compliance Voltage
ZCURVE	TABLE
	Pt	Time	Freq	Zreal	Zimag	Zsig	Zmod	Zphz	Idc	Vdc	IERange
	#	s	Hz	ohm	ohm	V	ohm	°	A	V	#
	0	7	300046.9	115.8793	-43.73226	1	123.8568	-20.67626	9.019774E-006	-0.0018878	9
	1	10	238359.4	117.5072	-50.16091	1	127.7657	-23.11643	1.540069E-005	-0.0011554	9
	2	14	189328.1	119.7279	-57.87664	1	132.983	-25.7992	-4.147334E-005	-0.000172	9
	3	16	150421.9	123.8976	-66.51574	1	140.6235	-28.22959	-1.99662E-005	-0.0008905	9
	4	19	119484.4	126.9857	-76.00171	1	147.992	-30.90077	1.233816E-005	-0.001069	9
	5	22	94921.88	131.8168	-87.62916	1	158.2863	-33.61515	-2.030972E-005	0.0006679	9
	6	25	75421.88	137.43	-99.9598	1	169.9381	-36.03028	-2.204114E-005	0.000557	9
	7	27	59859.37	144.39	-115.2529	1	184.7477	-38.59705	1.788835E-005	-0.0009081	9
	8	30	47578.12	152.7917	-132.514	1	202.2505	-40.93462	2.44361E-005	-0.000797	9
	9	32	37828.12	162.7127	-152.3214	1	222.8839	-43.11079	8.897011E-006	-0.0008204	9
	10	35	30046.88	175.1444	-175.1107	1	247.6678	-44.99449	-2.140779E-005	0.0004258	9
	11	37	23859.38	189.4285	-202.4598	1	277.2601	-46.90453	-1.247779E-005	-0.0001382	9
	12	40	18984.38	207.0605	-233.4405	1	312.0393	-48.42714	1.431107E-006	-0.0006041	9
	13	42	15046.87	228.3466	-270.2827	1	353.8289	-49.80741	2.320355E-005	-0.0007693	9
	14	44	11953.13	253.5172	-312.9838	1	402.7776	-50.99249	2.023693E-005	-0.0004632	9
	15	47	9515.62	283.36	-355.5989	1	454.6905	-51.45031	1.84243E-007	0.0008978	8
	16	49	7546.875	319.0712	-408.4627	1	518.3129	-52.00478	-2.807267E-006	-0.0002014	8
	17	51	5928.309	362.5114	-473.5516	1	596.3771	-52.56536	-5.038884E-006	0.0018296	8
	18	53	4733.456	409.8412	-540.6981	1	678.472	-52.83841	3.029522E-006	-0.0019716	8
	19	56	3796.875	463.1338	-611.8099	1	767.3359	-52.87465	2.753623E-006	-0.0018531	8
	20	58	2987.132	529.9059	-700.7371	1	878.5401	-52.90298	-5.318315E-006	0.0010494	8
	21	60	2390.625	603.8686	-799.2662	1	1001.74	-52.92791	-5.256234E-006	0.00104	8
	22	63	1884.191	693.2599	-909.3463	1	1143.468	-52.67912	-2.468786E-006	-0.0002585	8
	23	65	1516.544	792.1755	-1024.794	1	1295.278	-52.29563	-5.526798E-006	0.0013516	8
	24	67	1193.986	917.8826	-1167.632	1	1485.218	-51.8289	4.279432E-006	-0.0020465	8
	25	70	946.5144	1058.823	-1324.282	1	1695.532	-51.3561	-5.453054E-006	0.0012855	8
	26	72	751.7689	1213.528	-1464.627	1	1902.047	-50.35629	-3.884595E-006	0.0004191	8
	27	75	597.4265	1394.945	-1642.658	1	2155.04	-49.66209	2.808001E-006	-0.0017419	8
	28	77	477.4305	1606.424	-1829.979	1	2435.041	-48.72213	1.934831E-007	-0.0001165	8
	29	80	376.6741	1855.9	-2038.373	1	2756.688	-47.68272	1.853447E-007	-0.0001183	8
	30	82	298.2954	2132.861	-2257.428	1	3105.653	-46.62523	2.067431E-007	-0.0001159	8
	31	84	237.7717	2434.717	-2483.574	1	3477.929	-45.56915	1.922711E-007	-0.0001211	8
	32	87	189.0121	2775.828	-2726.063	1	3890.584	-44.48177	1.975131E-007	-0.0001243	8
	33	89	150.2404	3178.698	-2984.078	1	4359.913	-43.19121	-1.043012E-007	-0.0001122	7
	34	92	119.1737	3607.745	-3250.494	1	4856.083	-42.01811	-1.114812E-007	-0.0001103	7
	35	94	95.0169	4062.441	-3516.854	1	5373.238	-40.88273	-1.019788E-007	-0.0001056	7
	36	96	75.60484	4567.812	-3787.586	1	5933.862	-39.6652	-1.041452E-007	-0.0001137	7
	37	99	54.50582	5367.766	-4173.724	1	6799.476	-37.86697	-9.920452E-008	-0.0001051	7
	38	101	45.95588	5824.942	-4382.625	1	7289.538	-36.95742	-1.065476E-007	-0.0001004	7
	39	104	37.20238	6391.125	-4632.111	1	7893.221	-35.93357	-1.096521E-007	-0.0001006	7
	40	106	30.04808	6987.246	-4889.826	1	8528.306	-34.98516	-1.13568E-007	-0.0001064	7
	41	109	23.91582	7640.834	-5181.305	1	9231.916	-34.14148	-1.23302E-007	-0.000108	7
	42	111	18.60119	8395.27	-5544.809	1	10061.09	-33.44349	-7.794094E-008	-0.0001039	7
	43	113	15.02404	9050.167	-5881.929	1	10793.64	-33.02084	-8.083683E-008	-0.0001104	7
	44	115	12.01923	9775.19	-6275.052	1	11615.96	-32.69788	-1.26789E-007	-0.0001158	7
	45	118	9.450605	10574.48	-6769.024	1	12555.45	-32.62445	-1.096911E-007	-8.477685E-005	7
	46	120	7.512019	11383.89	-7314.985	1	13531.52	-32.72373	-1.178792E-007	-0.0000972	7
	47	123	5.978954	12236.01	-7960.952	1	14597.83	-33.04871	-1.109717E-007	-0.0000985	7
	48	126	4.734848	13198.03	-8740.729	1	15829.98	-33.51552	-9.056178E-008	-9.129984E-005	7
	49	129	3.75601	14237.78	-9653.83	1	17202.06	-34.13896	-1.046282E-007	-0.0001196	7
	50	133	3.004808	15393.17	-10638.45	1	18711.66	-34.64893	-8.623679E-008	-0.0001405	7
	51	137	2.372217	16810.36	-11869.8	1	20578.64	-35.22593	-9.61486E-008	-0.0001532	7
	52	141	1.878005	18401.19	-13187.11	1	22638.55	-35.62707	-8.775479E-008	-8.892898E-005	7
	53	145	1.512097	20141.03	-14510.77	1	24823.85	-35.77118	-8.638422E-008	-0.0002081	7
	54	151	1.201923	22288.42	-16026.9	1	27452.41	-35.71873	-8.141777E-008	-8.61048E-005	7
	55	164	0.956633	24762.55	-17507.45	1	30326.46	-35.26081	-8.829453E-008	-0.0006483	7
