EXPLAIN
TAG	EISPOT
TITLE	LABEL	Potentiostatic EIS	Test Identifier
DATE	LABEL	11/20/2021	Date
TIME	LABEL	17:23:33	Time
NOTES	NOTES	1	Notes...
	
PSTAT	PSTAT	REF3000-16137	Potentiostat
VDC	POTEN	0.00000E+000	T	DC Voltage (V)
FREQINIT	QUANT	3.00000E+005	Initial Freq. (Hz)
FREQFINAL	QUANT	1.00000E+000	Final Freq. (Hz)
PTSPERDEC	QUANT	1.00000E+001	Points/decade
VAC	QUANT	5.00000E+001	AC Voltage (mV rms)
AREA	QUANT	1.00000E+000	Sample Area (cm^2)
SPEED	SELECTOR	2	Optimize for:
ZGUESS	QUANT	1.00000E+003	Estimated Z (ohms)
EOC	QUANT	0	Open Circuit (V)
SEQUENCER	TOGGLE	TRUE	Run as Sequence
PSTATMODEL	IQUANT	5	Pstat Model
PSTATSECTION	LABEL	REF3000-16137	Pstat Section
PSTATSERIALNO	LABEL	16137	Pstat Serial Number
CTRLMODE	IQUANT	1	Control Mode
IESTAB	IQUANT	0	I/E Stability
CASPEED	IQUANT	1	Control Amp Speed
CONVENTION	IQUANT	1	Current Convention
ICHRANGE	IQUANT	2	Ich Range
ICHRANGEMODE	TOGGLE	F	Ich Auto Range
ICHOFFSETENABLE	TOGGLE	T	Ich Offset Enable
ICHOFFSET	QUANT	0	Ich Offset (V)
ICHFILTER	IQUANT	3	Ich Filter
VCHRANGE	IQUANT	2	Vch Range
VCHRANGEMODE	TOGGLE	F	Vch Auto Range
VCHOFFSETENABLE	TOGGLE	T	Vch Offset Enable
VCHOFFSET	QUANT	0	Vch Offset (V)
VCHFILTER	IQUANT	3	Vch Filter
ACHRANGE	IQUANT	2	Ach Range
ACHOFFSETENABLE	TOGGLE	F	Ach Offset Enable
ACHOFFSET	QUANT	0	Ach Offset (V)
ACHFILTER	IQUANT	3	Ach Filter
IERANGELOWERLIMIT	IQUANT	2	I/E Range Lower Limit
IERANGEMODE	TOGGLE	F	I/E AutoRange
IERANGE	IQUANT	11	I/E Range
POSFEEDENABLE	TOGGLE	F	Positive Feedback IR Comp
POSFEEDRESISTANCE	QUANT	0	Positive Feedback Resistance (ohm)
ACHSELECT	IQUANT	0	Ach Select
CABLEID	IQUANT	13	Cable ID
DCCALDATE	LABEL	9/10/2021	DC Calibration Date
ACCALDATE	LABEL	9/10/2021	AC Calibration Date
THERMOSELECT	IQUANT	1	Thermo Select
FRAMEWORKVERSION	QUANT	6.33	Framework Version
INSTRUMENTVERSION	LABEL	3.50	Instrument Version
COMPLIANCEVOLTAGE	IQUANT	0	Compliance Voltage
ZCURVE	TABLE
	Pt	Time	Freq	Zreal	Zimag	Zsig	Zmod	Zphz	Idc	Vdc	IERange
	#	s	Hz	ohm	ohm	V	ohm	°	A	V	#
	0	17	300046.9	913.9847	-4374.466	1	4468.929	-78.19861	-7.048732E-005	0.0005239	9
	1	35	238359.4	1429.761	-5268.33	1	5458.894	-74.81633	-2.128177E-005	0.0009076	9
	2	55	189328.1	2163.277	-6332.791	1	6692.085	-71.13987	8.58122E-005	-0.0028753	9
	3	67	150421.9	2492.052	-6791.904	1	7234.659	-69.85115	2.647303E-005	0.0006838	9
	4	76	119484.4	4431.667	-8852.154	1	9899.51	-63.40601	3.705286E-005	-0.018415	8
	5	83	94921.88	5879.339	-10513.62	1	12045.86	-60.78556	-2.548693E-006	-0.0053655	8
	6	92	75421.88	7993.031	-11808.08	1	14259.01	-55.90546	2.644037E-005	-0.0082951	8
	7	101	59859.37	10463.87	-13046.81	1	16724.58	-51.26952	-2.597006E-005	0.0089061	8
	8	109	47578.12	15690.44	-13111.38	1	20447.45	-39.88311	1.069929E-006	-0.0195326	7
	9	117	37828.12	18446.26	-13126.21	1	22639.83	-35.43535	-1.535521E-006	0.0200885	7
	10	123	30046.88	21284.5	-12799.02	1	24836.36	-31.01977	6.473163E-006	-0.0269816	7
	11	129	23859.38	23971.55	-12172.78	1	26885.16	-26.92151	9.927577E-007	-0.0198255	7
	12	135	18984.38	26223.18	-11093.41	1	28473.12	-22.93023	2.907829E-006	0.0065944	7
	13	140	15046.87	28378.42	-10281.56	1	30183.53	-19.91556	-1.268304E-006	-0.0134112	7
	14	145	11953.13	30297.54	-10240.91	1	31981.52	-18.67583	2.507813E-005	-0.0097208	8
	15	152	9515.62	31736.66	-8674.268	1	32900.74	-15.28673	6.463387E-006	-0.0080307	8
	16	160	7546.875	33172.68	-7424.073	1	33993.28	-12.61497	6.340009E-007	0.0144943	7
	17	165	5928.309	31962.78	-4082.412	1	32222.44	-7.278632	2.559283E-005	-0.0061231	8
	18	171	4733.456	34559.95	-8697.126	1	35637.48	-14.12536	6.460486E-006	-0.0080275	8
	19	178	3796.875	36417.27	-5814.656	1	36878.55	-9.071704	-6.664512E-006	0.0118416	7
	20	183	2987.132	37418.16	-5606.228	1	37835.81	-8.521037	6.493372E-006	-0.0270538	7
	21	189	2390.625	38986.63	-6375.116	1	39504.42	-9.286848	1.463634E-005	-0.0096605	8
	22	195	1884.191	39561.34	-4979.34	1	39873.47	-7.173741	-1.328431E-006	-0.0129441	7
	23	201	1516.544	40743.64	-6041.436	1	41189.11	-8.434319	-5.421847E-006	0.0036859	7
	24	206	1193.986	42893.25	-7800.132	1	43596.7	-10.3066	6.547771E-006	-0.0115047	7
	25	212	946.5144	40212.93	-11725.8	1	41887.63	-16.25631	-1.05806E-005	-0.0024002	8
	26	216	751.7689	45723.81	-8393.173	1	46487.76	-10.40156	-3.590581E-006	-0.0047377	7
	27	220	597.4265	48815.96	-10292.54	1	49889.22	-11.90607	-5.022918E-006	0.0252963	7
	28	224	477.4305	47376.85	-12927.99	1	49109.05	-15.26303	-9.473667E-008	-0.0001062	7
	29	227	376.6741	49036.14	-14717.4	1	51197.12	-16.70627	-1.007237E-008	-0.0001734	6
	30	230	298.2954	50674.28	-17569.16	1	53633.55	-19.12182	-1.082427E-008	-0.0001371	6
	31	232	237.7717	52507.05	-20815.27	1	56482.44	-21.62477	-1.022679E-008	-0.0001815	6
	32	235	189.0121	54689.58	-24690.81	1	60004.89	-24.29784	-1.085523E-008	-0.000143	6
	33	237	150.2404	57213.68	-29261.34	1	64262.2	-27.087	-9.963911E-009	-0.0001747	6
	34	239	119.1737	60152.09	-34740.55	1	69463.52	-30.00837	-9.810731E-009	-0.0001556	6
	35	242	95.0169	63423.44	-40934.03	1	75485.95	-32.83854	-1.00318E-008	-0.0001553	6
	36	244	75.60484	67318.15	-48404.85	1	82914.19	-35.71787	-1.05732E-008	-9.07035E-005	6
	37	247	54.50582	73782.53	-61449.97	1	96020.6	-39.78931	-1.061843E-008	-0.000141	6
	38	249	45.95588	77994.59	-69737.52	1	104625.4	-41.80094	-1.010373E-008	-0.0001239	6
	39	252	37.20238	83787.63	-81480.69	1	116873.7	-44.20027	-1.084428E-008	-0.000141	6
	40	254	30.04808	90589.9	-95366.1	1	131534.1	-46.47129	-1.084796E-008	-8.651844E-005	6
	41	257	23.91582	98875.5	-112735	1	149951.8	-48.74724	-1.012426E-008	-9.285997E-005	6
	42	259	18.60119	109719.5	-135641.4	1	174461.9	-51.03082	-1.065775E-008	-0.0001789	6
	43	261	15.02404	120786.8	-158919.9	1	199612	-52.76342	-1.014186E-008	-0.0001241	6
	44	263	12.01923	134430.9	-187580.1	1	230776.9	-54.37239	-1.013548E-008	-0.0001482	6
	45	266	9.450605	151515.6	-223837.3	1	270296.3	-55.90591	-1.112344E-008	-8.106275E-005	6
	46	268	7.512019	171475.8	-265584.7	1	316131.6	-57.15153	-1.145747E-008	-9.276841E-005	6
	47	271	5.978954	194602.1	-314496.9	1	369835.5	-58.25191	-1.078838E-008	-0.0001489	6
	48	274	4.734848	224426.6	-374154.9	1	436301.7	-59.04372	-1.348221E-009	-3.024848E-005	5
	49	277	3.75601	258447.9	-444144.3	1	513867.2	-59.80484	-1.103279E-009	-5.430424E-006	5
	50	281	3.004808	297946.7	-524049.3	1	602826.6	-60.37973	-1.119403E-009	-3.005166E-005	5
	51	286	2.372217	348597.3	-625357.6	1	715955.4	-60.8631	-1.262422E-009	-0.0001217	5
	52	290	1.878005	407685.4	-742799.7	1	847324.4	-61.23983	-1.098099E-009	-4.026413E-005	5
	53	295	1.512097	474129.4	-870615	1	991347	-61.42767	-1.143057E-009	-0.0001093	5
	54	300	1.201923	559466.6	-1035478	1	1176953	-61.61774	-1.166869E-009	-1.719372E-005	5
	55	307	0.956633	661748.5	-1227472	1	1394488	-61.67022	-1.328202E-009	-0.0006055	5
