EXPLAIN
TAG	EISPOT
TITLE	LABEL	Potentiostatic EIS	Test Identifier
DATE	LABEL	11/20/2021	Date
TIME	LABEL	17:18:40	Time
NOTES	NOTES	1	Notes...
	
PSTAT	PSTAT	REF3000-16137	Potentiostat
VDC	POTEN	0.00000E+000	T	DC Voltage (V)
FREQINIT	QUANT	3.00000E+005	Initial Freq. (Hz)
FREQFINAL	QUANT	1.00000E+000	Final Freq. (Hz)
PTSPERDEC	QUANT	1.00000E+001	Points/decade
VAC	QUANT	5.00000E+001	AC Voltage (mV rms)
AREA	QUANT	1.00000E+000	Sample Area (cm^2)
SPEED	SELECTOR	2	Optimize for:
ZGUESS	QUANT	1.00000E+003	Estimated Z (ohms)
EOC	QUANT	0	Open Circuit (V)
SEQUENCER	TOGGLE	TRUE	Run as Sequence
PSTATMODEL	IQUANT	5	Pstat Model
PSTATSECTION	LABEL	REF3000-16137	Pstat Section
PSTATSERIALNO	LABEL	16137	Pstat Serial Number
CTRLMODE	IQUANT	1	Control Mode
IESTAB	IQUANT	0	I/E Stability
CASPEED	IQUANT	1	Control Amp Speed
CONVENTION	IQUANT	1	Current Convention
ICHRANGE	IQUANT	2	Ich Range
ICHRANGEMODE	TOGGLE	F	Ich Auto Range
ICHOFFSETENABLE	TOGGLE	T	Ich Offset Enable
ICHOFFSET	QUANT	0	Ich Offset (V)
ICHFILTER	IQUANT	3	Ich Filter
VCHRANGE	IQUANT	2	Vch Range
VCHRANGEMODE	TOGGLE	F	Vch Auto Range
VCHOFFSETENABLE	TOGGLE	T	Vch Offset Enable
VCHOFFSET	QUANT	0	Vch Offset (V)
VCHFILTER	IQUANT	3	Vch Filter
ACHRANGE	IQUANT	2	Ach Range
ACHOFFSETENABLE	TOGGLE	F	Ach Offset Enable
ACHOFFSET	QUANT	0	Ach Offset (V)
ACHFILTER	IQUANT	3	Ach Filter
IERANGELOWERLIMIT	IQUANT	2	I/E Range Lower Limit
IERANGEMODE	TOGGLE	F	I/E AutoRange
IERANGE	IQUANT	11	I/E Range
POSFEEDENABLE	TOGGLE	F	Positive Feedback IR Comp
POSFEEDRESISTANCE	QUANT	0	Positive Feedback Resistance (ohm)
ACHSELECT	IQUANT	0	Ach Select
CABLEID	IQUANT	13	Cable ID
DCCALDATE	LABEL	9/10/2021	DC Calibration Date
ACCALDATE	LABEL	9/10/2021	AC Calibration Date
THERMOSELECT	IQUANT	1	Thermo Select
FRAMEWORKVERSION	QUANT	6.33	Framework Version
INSTRUMENTVERSION	LABEL	3.50	Instrument Version
COMPLIANCEVOLTAGE	IQUANT	0	Compliance Voltage
ZCURVE	TABLE
	Pt	Time	Freq	Zreal	Zimag	Zsig	Zmod	Zphz	Idc	Vdc	IERange
	#	s	Hz	ohm	ohm	V	ohm	°	A	V	#
	0	19	300046.9	1886.286	-3554.261	1	4023.785	-62.04461	-2.266741E-005	0.0009363	9
	1	39	238359.4	2533.887	-4059.694	1	4785.572	-58.02935	-6.540863E-005	0.0006129	9
	2	57	189328.1	3711.031	-4616.481	1	5923.145	-51.20539	2.517377E-005	-0.0017319	9
	3	68	150421.9	4339.16	-5120.856	1	6712.04	-49.72371	7.728328E-005	-0.0017834	9
	4	76	119484.4	5505.888	-4785.968	1	7295.224	-40.99865	-3.544915E-005	0.0185786	8
	5	84	94921.88	6569.569	-4659.273	1	8054.071	-35.34505	2.262475E-005	-0.0039272	8
	6	92	75421.88	7695.059	-4722.028	1	9028.371	-31.53512	-2.802711E-006	-0.0051767	8
	7	101	59859.37	8545.146	-4267.625	1	9551.55	-26.5385	-2.545468E-005	0.0088337	8
	8	109	47578.12	9473.596	-4088.135	1	10318.04	-23.34162	2.577334E-005	-0.0081218	8
	9	117	37828.12	10087.85	-3534.848	1	10689.24	-19.31079	-1.656009E-005	0.0004011	8
	10	126	30046.88	10805.58	-3438.786	1	11339.57	-17.65323	2.780679E-005	-0.0009175	9
	11	135	23859.38	11685.15	-2221.177	1	11894.38	-10.76269	-5.047644E-006	0.0243011	7
	12	140	18984.38	12026.96	-2063.842	1	12202.75	-9.7372	7.051827E-006	-0.0177909	7
	13	144	15046.87	12294.21	-1843.009	1	12431.58	-8.525653	6.960027E-006	-0.0180329	7
	14	148	11953.13	12476.87	-1711.462	1	12593.7	-7.810564	-9.052841E-007	-0.0133768	7
	15	153	9515.62	12721.51	-1663.073	1	12829.76	-7.447993	-1.688212E-006	0.01986	7
	16	157	7546.875	13000.11	-1707.266	1	13111.74	-7.481669	-6.371751E-006	0.0107543	7
	17	161	5928.309	13281.74	-1802.669	1	13403.51	-7.729264	6.20601E-006	-0.0103529	7
	18	165	4733.456	13549.45	-1940.875	1	13687.76	-8.151814	-6.805105E-006	0.0215442	7
	19	170	3796.875	13798.73	-2121.177	1	13960.82	-8.739249	-6.955814E-006	0.0170338	7
	20	174	2987.132	14129.48	-2539.107	1	14355.81	-10.18748	-6.365146E-006	0.0107431	7
	21	178	2390.625	14445.25	-2762.855	1	14707.1	-10.82784	5.063234E-006	-0.0259821	7
	22	182	1884.191	14819.15	-3343.494	1	15191.64	-12.71418	7.167959E-006	-0.023694	7
	23	187	1516.544	15319.28	-3788.911	1	15780.88	-13.89215	-3.246982E-006	-0.0054709	7
	24	191	1193.986	15734.86	-4520.315	1	16371.29	-16.02831	4.709992E-006	-0.0016862	7
	25	196	946.5144	16298.39	-5471.641	1	17192.34	-18.55775	-6.824096E-006	0.0217036	7
	26	198	751.7689	16607.03	-6186.271	1	17721.83	-20.43082	-1.619936E-006	0.020074	7
	27	201	597.4265	17254.16	-7367.861	1	18761.43	-23.12342	3.308286E-006	-0.0238375	7
	28	203	477.4305	18240.31	-8822.893	1	20262.09	-25.81319	-9.080598E-008	-0.0001501	7
	29	206	376.6741	19107.48	-10481.34	1	21793.45	-28.74681	-8.923824E-008	-0.0001555	7
	30	208	298.2954	20110.71	-12428.36	1	23641.17	-31.71595	-9.69764E-008	-5.906103E-005	7
	31	210	237.7717	21248.1	-14671.06	1	25820.96	-34.62371	-9.642661E-008	-5.79078E-005	7
	32	213	189.0121	22589.96	-17370.42	1	28496.28	-37.55828	-9.895623E-008	-6.484577E-005	7
	33	215	150.2404	24148.47	-20556.12	1	31712.82	-40.40572	-9.33633E-008	-0.0001367	7
	34	218	119.1737	26002.2	-24407.33	1	35662.76	-43.18786	-8.934894E-008	-0.0001348	7
	35	220	95.0169	28102.35	-28830.49	1	40260.89	-45.73275	-9.187197E-008	-0.0001488	7
	36	223	75.60484	30718.87	-34122.64	1	45913	-48.00491	-9.909995E-009	-0.0001642	6
	37	225	54.50582	34999.84	-43462.43	1	55802.96	-51.15587	-9.917025E-009	-0.0001869	6
	38	228	45.95588	37733.8	-49382.19	1	62148.53	-52.61592	-1.02796E-008	-0.000144	6
	39	230	37.20238	41583.87	-57794.07	1	71199.52	-54.26431	-9.942208E-009	-0.0001853	6
	40	232	30.04808	46162.09	-67765.45	1	81994.48	-55.73716	-1.051617E-008	-8.96567E-005	6
	41	235	23.91582	51961.15	-80312.66	1	95656.1	-57.09771	-9.57439E-009	-0.0001099	6
	42	237	18.60119	59557.77	-96845.9	1	113693.7	-58.40953	-9.033944E-009	-0.0001765	6
	43	239	15.02404	67314.74	-113438.7	1	131907.6	-59.31502	-1.036076E-008	-0.0001723	6
	44	242	12.01923	76877.74	-133849.3	1	154356.1	-60.12864	-9.150943E-009	-0.0001612	6
	45	244	9.450605	89275.53	-159822.1	1	183066.2	-60.81258	-9.488503E-009	-0.0001807	6
	46	247	7.512019	103473.5	-189296.5	1	215731.2	-61.33804	-9.729954E-009	-0.0001337	6
	47	249	5.978954	120260.5	-224129.3	1	254355.1	-61.78343	-9.506143E-009	-0.0001346	6
	48	252	4.734848	140976.1	-266118.7	1	301153.5	-62.08764	-9.10958E-009	-0.0001332	6
	49	256	3.75601	166173.7	-315642.3	1	356712.4	-62.2349	-1.065423E-008	-0.0000963	6
	50	259	3.004808	195352.5	-371845.3	1	420037.5	-62.28438	-9.968812E-009	-0.0001448	6
	51	263	2.372217	233907.1	-442754.7	1	500743.8	-62.15252	-1.165568E-009	1.621019E-005	5
	52	267	1.878005	279756.8	-523933.7	1	593944.8	-61.89981	-1.221269E-009	-7.828048E-005	5
	53	272	1.512097	332046.1	-612176.8	1	696430.3	-61.52449	-1.246101E-009	4.666436E-005	5
	54	277	1.201923	398890.1	-721952.6	1	824820.5	-61.07866	-1.122363E-009	-7.592794E-005	5
	55	283	0.956633	479939.3	-848455.9	1	974792	-60.50481	-1.563025E-009	-0.000595	5
