EXPLAIN
TAG	EISPOT
TITLE	LABEL	Potentiostatic EIS	Test Identifier
DATE	LABEL	11/20/2021	Date
TIME	LABEL	16:18:06	Time
NOTES	NOTES	1	Notes...
	
PSTAT	PSTAT	REF3000-16137	Potentiostat
VDC	POTEN	0.00000E+000	T	DC Voltage (V)
FREQINIT	QUANT	3.00000E+005	Initial Freq. (Hz)
FREQFINAL	QUANT	1.00000E+000	Final Freq. (Hz)
PTSPERDEC	QUANT	1.00000E+001	Points/decade
VAC	QUANT	5.00000E+001	AC Voltage (mV rms)
AREA	QUANT	1.00000E+000	Sample Area (cm^2)
SPEED	SELECTOR	2	Optimize for:
ZGUESS	QUANT	1.00000E+003	Estimated Z (ohms)
EOC	QUANT	0	Open Circuit (V)
SEQUENCER	TOGGLE	TRUE	Run as Sequence
PSTATMODEL	IQUANT	5	Pstat Model
PSTATSECTION	LABEL	REF3000-16137	Pstat Section
PSTATSERIALNO	LABEL	16137	Pstat Serial Number
CTRLMODE	IQUANT	1	Control Mode
IESTAB	IQUANT	0	I/E Stability
CASPEED	IQUANT	1	Control Amp Speed
CONVENTION	IQUANT	1	Current Convention
ICHRANGE	IQUANT	2	Ich Range
ICHRANGEMODE	TOGGLE	F	Ich Auto Range
ICHOFFSETENABLE	TOGGLE	T	Ich Offset Enable
ICHOFFSET	QUANT	0	Ich Offset (V)
ICHFILTER	IQUANT	3	Ich Filter
VCHRANGE	IQUANT	2	Vch Range
VCHRANGEMODE	TOGGLE	F	Vch Auto Range
VCHOFFSETENABLE	TOGGLE	T	Vch Offset Enable
VCHOFFSET	QUANT	0	Vch Offset (V)
VCHFILTER	IQUANT	3	Vch Filter
ACHRANGE	IQUANT	2	Ach Range
ACHOFFSETENABLE	TOGGLE	F	Ach Offset Enable
ACHOFFSET	QUANT	0	Ach Offset (V)
ACHFILTER	IQUANT	3	Ach Filter
IERANGELOWERLIMIT	IQUANT	2	I/E Range Lower Limit
IERANGEMODE	TOGGLE	F	I/E AutoRange
IERANGE	IQUANT	11	I/E Range
POSFEEDENABLE	TOGGLE	F	Positive Feedback IR Comp
POSFEEDRESISTANCE	QUANT	0	Positive Feedback Resistance (ohm)
ACHSELECT	IQUANT	0	Ach Select
CABLEID	IQUANT	13	Cable ID
DCCALDATE	LABEL	9/10/2021	DC Calibration Date
ACCALDATE	LABEL	9/10/2021	AC Calibration Date
THERMOSELECT	IQUANT	1	Thermo Select
FRAMEWORKVERSION	QUANT	6.33	Framework Version
INSTRUMENTVERSION	LABEL	3.50	Instrument Version
COMPLIANCEVOLTAGE	IQUANT	0	Compliance Voltage
ZCURVE	TABLE
	Pt	Time	Freq	Zreal	Zimag	Zsig	Zmod	Zphz	Idc	Vdc	IERange
	#	s	Hz	ohm	ohm	V	ohm	°	A	V	#
	0	7	300046.9	40.13406	-7.971543	1	40.91806	-11.23405	-3.870802E-005	0.0003661	9
	1	10	238359.4	40.87167	-10.65885	1	42.23866	-14.61651	-3.923605E-005	0.0004002	9
	2	14	189328.1	41.85163	-13.65731	1	44.02364	-18.0729	1.874554E-008	5.602924E-005	9
	3	16	150421.9	43.01962	-16.94022	1	46.23482	-21.49347	-5.258445E-006	-0.0008494	9
	4	19	119484.4	44.52993	-20.76332	1	49.13278	-24.9986	-5.220332E-005	0.0014363	9
	5	21	94921.88	46.22929	-25.14938	1	52.62736	-28.54681	-5.014806E-006	-0.0002644	9
	6	24	75421.88	48.2239	-30.30186	1	56.95391	-32.14352	1.247116E-005	-0.0002252	9
	7	26	59859.37	50.53613	-36.4753	1	62.32454	-35.8205	5.878156E-006	3.132597E-005	9
	8	29	47578.12	53.33217	-43.87018	1	69.05732	-39.44016	1.073573E-005	-0.0002446	9
	9	31	37828.12	56.54104	-52.38887	1	77.08102	-42.81707	1.874738E-005	-0.0004813	9
	10	34	30046.88	60.58607	-62.65612	1	87.15768	-45.96228	5.94065E-006	-0.0005464	9
	11	36	23859.38	65.08788	-74.92103	1	99.2451	-49.01742	1.85731E-005	-0.0006225	9
	12	39	18984.38	70.6311	-89.54503	1	114.0485	-51.73442	1.126885E-005	-0.0006381	9
	13	41	15046.87	77.33542	-107.21	1	132.1921	-54.19537	4.984752E-007	-0.0004047	9
	14	43	11953.13	85.35121	-128.3105	1	154.1052	-56.36845	-1.35996E-005	8.088823E-005	9
	15	45	9515.62	94.87389	-153.2824	1	180.268	-58.24464	-1.818916E-006	0.0001663	9
	16	48	7546.875	106.5251	-183.1044	1	211.8368	-59.81032	6.736874E-006	-0.0005578	9
	17	50	5928.309	122.1539	-220.6158	1	252.1764	-61.02692	-1.072959E-006	0.0002001	9
	18	52	4733.456	138.7761	-261.665	1	296.1881	-62.06041	5.332086E-006	1.209776E-006	9
	19	55	3796.875	160.4089	-309.3635	1	348.4778	-62.59269	1.72128E-005	-0.0006841	9
	20	57	2987.132	187.4344	-371.6482	1	416.238	-63.23668	1.500421E-005	-0.0006883	9
	21	59	2390.625	216.7752	-438.0664	1	488.7675	-63.6717	2.643655E-006	-0.0010983	8
	22	62	1884.191	257.5229	-522.6469	1	582.6473	-63.76923	-2.586761E-006	0.0008189	8
	23	64	1516.544	300.919	-613.4419	1	683.2739	-63.87011	3.284518E-006	-0.0006433	8
	24	66	1193.986	360.1746	-730.5276	1	814.4915	-63.75516	2.304969E-006	-0.0002703	8
	25	69	946.5144	433.3061	-860.9941	1	963.88	-63.2856	7.247307E-007	-0.0006173	8
	26	71	751.7689	517.0501	-1019.397	1	1143.027	-63.10534	1.161757E-006	0.0001554	8
	27	73	597.4265	622.5676	-1194.847	1	1347.312	-62.47851	-2.959801E-006	0.0006338	8
	28	76	477.4305	742.5266	-1395.789	1	1581.003	-61.98808	4.750925E-007	-0.0001097	8
	29	78	376.6741	898.6041	-1637.235	1	1867.626	-61.23962	4.678449E-007	-0.0001159	8
	30	80	298.2954	1084.457	-1909.543	1	2195.997	-60.40715	4.551287E-007	-0.0001096	8
	31	83	237.7717	1300.697	-2209.682	1	2564.08	-59.51743	4.733675E-007	-0.0001197	8
	32	85	189.0121	1562.817	-2552.635	1	2993.049	-58.5235	4.634401E-007	-0.0001141	8
	33	87	150.2404	1874.277	-2935.8	1	3483.079	-57.44498	4.658255E-007	-0.0001136	8
	34	90	119.1737	2247.672	-3366.749	1	4048.089	-56.27258	4.748618E-007	-0.0001099	8
	35	92	95.0169	2694.445	-3836.548	1	4688.191	-54.91926	5.802295E-008	-0.0000959	7
	36	95	75.60484	3204.895	-4341.214	1	5396.063	-53.56346	5.85726E-008	-0.000096	7
	37	97	54.50582	4072.986	-5124.537	1	6545.998	-51.52229	5.773688E-008	-0.000104	7
	38	100	45.95588	4595.355	-5561.053	1	7214.055	-50.4315	6.91801E-008	-0.0001251	7
	39	102	37.20238	5305.057	-6126.444	1	8104.132	-49.10981	4.886056E-008	-9.189601E-005	7
	40	105	30.04808	6099.247	-6728.995	1	9081.86	-47.81044	6.842188E-008	-0.0000995	7
	41	107	23.91582	7026.935	-7407.065	1	10209.92	-46.50858	6.760825E-008	-0.0001039	7
	42	109	18.60119	8149.29	-8207.753	1	11566.25	-45.20478	7.762742E-008	-9.465964E-005	7
	43	112	15.02404	9189.273	-8925.339	1	12810.33	-44.16525	5.806422E-008	-8.885219E-005	7
	44	114	12.01923	10369.28	-9724.39	1	14215.68	-43.16179	8.242971E-008	-0.0001324	7
	45	116	9.450605	11714.27	-10663.46	1	15840.88	-42.3115	7.78784E-008	-0.0001009	7
	46	119	7.512019	13113.12	-11680.2	1	17560.78	-41.69229	5.87198E-008	-7.876814E-005	7
	47	122	5.978954	14604.15	-12778.13	1	19405.2	-41.18481	5.454505E-008	-0.000099	7
	48	125	4.734848	16263.1	-14070.19	1	21504.85	-40.86506	6.352482E-008	-9.151272E-005	7
	49	128	3.75601	18034.84	-15526.38	1	23797.56	-40.72551	5.266514E-008	-0.0001088	7
	50	131	3.004808	19916.54	-17097.37	1	26248.59	-40.64447	6.435702E-008	-0.0001279	7
	51	135	2.372217	22145.64	-19052.42	1	29213.42	-40.7062	5.906967E-008	-0.0001521	7
	52	139	1.878005	24593.89	-21237.38	1	32494.4	-40.81135	6.295011E-008	-9.458E-005	7
	53	144	1.512097	27195.5	-23550.87	1	35975.53	-40.89204	6.311238E-008	-0.000195	7
	54	149	1.201923	30448.41	-26398.11	1	40298.46	-40.92458	1.405882E-008	-0.0001013	6
	55	156	0.956633	34245.41	-29537.33	1	45223.91	-40.7784	6.998885E-009	-0.0006769	6
