EXPLAIN
TAG	EISPOT
TITLE	LABEL	Potentiostatic EIS	Test Identifier
DATE	LABEL	11/20/2021	Date
TIME	LABEL	16:54:23	Time
NOTES	NOTES	1	Notes...
	
PSTAT	PSTAT	REF3000-16137	Potentiostat
VDC	POTEN	0.00000E+000	T	DC Voltage (V)
FREQINIT	QUANT	3.00000E+005	Initial Freq. (Hz)
FREQFINAL	QUANT	1.00000E+000	Final Freq. (Hz)
PTSPERDEC	QUANT	1.00000E+001	Points/decade
VAC	QUANT	5.00000E+001	AC Voltage (mV rms)
AREA	QUANT	1.00000E+000	Sample Area (cm^2)
SPEED	SELECTOR	2	Optimize for:
ZGUESS	QUANT	1.00000E+003	Estimated Z (ohms)
EOC	QUANT	0	Open Circuit (V)
SEQUENCER	TOGGLE	TRUE	Run as Sequence
PSTATMODEL	IQUANT	5	Pstat Model
PSTATSECTION	LABEL	REF3000-16137	Pstat Section
PSTATSERIALNO	LABEL	16137	Pstat Serial Number
CTRLMODE	IQUANT	1	Control Mode
IESTAB	IQUANT	0	I/E Stability
CASPEED	IQUANT	1	Control Amp Speed
CONVENTION	IQUANT	1	Current Convention
ICHRANGE	IQUANT	2	Ich Range
ICHRANGEMODE	TOGGLE	F	Ich Auto Range
ICHOFFSETENABLE	TOGGLE	T	Ich Offset Enable
ICHOFFSET	QUANT	0	Ich Offset (V)
ICHFILTER	IQUANT	3	Ich Filter
VCHRANGE	IQUANT	2	Vch Range
VCHRANGEMODE	TOGGLE	F	Vch Auto Range
VCHOFFSETENABLE	TOGGLE	T	Vch Offset Enable
VCHOFFSET	QUANT	0	Vch Offset (V)
VCHFILTER	IQUANT	3	Vch Filter
ACHRANGE	IQUANT	2	Ach Range
ACHOFFSETENABLE	TOGGLE	F	Ach Offset Enable
ACHOFFSET	QUANT	0	Ach Offset (V)
ACHFILTER	IQUANT	3	Ach Filter
IERANGELOWERLIMIT	IQUANT	2	I/E Range Lower Limit
IERANGEMODE	TOGGLE	F	I/E AutoRange
IERANGE	IQUANT	11	I/E Range
POSFEEDENABLE	TOGGLE	F	Positive Feedback IR Comp
POSFEEDRESISTANCE	QUANT	0	Positive Feedback Resistance (ohm)
ACHSELECT	IQUANT	0	Ach Select
CABLEID	IQUANT	13	Cable ID
DCCALDATE	LABEL	9/10/2021	DC Calibration Date
ACCALDATE	LABEL	9/10/2021	AC Calibration Date
THERMOSELECT	IQUANT	1	Thermo Select
FRAMEWORKVERSION	QUANT	6.33	Framework Version
INSTRUMENTVERSION	LABEL	3.50	Instrument Version
COMPLIANCEVOLTAGE	IQUANT	0	Compliance Voltage
ZCURVE	TABLE
	Pt	Time	Freq	Zreal	Zimag	Zsig	Zmod	Zphz	Idc	Vdc	IERange
	#	s	Hz	ohm	ohm	V	ohm	°	A	V	#
	0	11	300046.9	349.1141	-39.89948	1	351.3867	-6.519918	-1.637556E-005	0.0010855	9
	1	21	238359.4	355.539	-41.02062	1	357.8976	-6.58145	-0.0000964	0.0031899	9
	2	27	189328.1	359.8721	-40.03547	1	362.0922	-6.348004	2.030579E-005	-0.0018542	9
	3	33	150421.9	369.8419	-47.63968	1	372.8975	-7.339906	7.283588E-005	-0.0017379	9
	4	42	119484.4	374.0057	-51.19786	1	377.4937	-7.794805	-1.716966E-005	0.0011955	9
	5	49	94921.88	379.8823	-57.06123	1	384.1439	-8.5424	9.24741E-007	0.0003464	9
	6	52	75421.88	385.8137	-56.89114	1	389.9857	-8.388246	-3.178838E-006	-0.0021916	8
	7	54	59859.37	391.4248	-69.29177	1	397.5106	-10.03875	-7.398238E-006	0.004826	8
	8	57	47578.12	398.0174	-84.34825	1	406.8568	-11.96515	-1.085977E-005	0.0051315	8
	9	59	37828.12	405.406	-101.0742	1	417.8158	-13.99935	-1.347564E-005	0.003987	8
	10	62	30046.88	414.7997	-120.8594	1	432.0483	-16.24444	1.410263E-005	-0.004898	8
	11	64	23859.38	425.5183	-145.8895	1	449.8329	-18.92435	-1.338523E-005	0.003116	8
	12	67	18984.38	438.1162	-172.7695	1	470.9513	-21.52161	-7.787625E-006	0.0050426	8
	13	69	15046.87	453.1726	-207.6485	1	498.481	-24.61776	1.448066E-005	-0.0048695	8
	14	71	11953.13	472.2897	-247.7066	1	533.3068	-27.67612	6.154373E-006	-0.004834	8
	15	74	9515.62	491.1249	-293.2516	1	572.0141	-30.8415	-1.156515E-005	0.0044342	8
	16	76	7546.875	516.547	-346.7845	1	622.1578	-33.87549	1.27073E-005	-0.0053667	8
	17	79	5928.309	547.7545	-419.5681	1	689.9799	-37.45134	1.139551E-005	-0.0014175	8
	18	81	4733.456	581.567	-494.3215	1	763.2653	-40.36394	1.475021E-005	-0.0040714	8
	19	83	3796.875	617.9107	-586.7448	1	852.105	-43.51802	-1.372521E-005	0.0041188	8
	20	86	2987.132	667.8817	-701.8763	1	968.863	-46.42167	1.869259E-006	0.0026009	8
	21	88	2390.625	719.6582	-834.8654	1	1102.229	-49.23849	-1.300556E-005	0.0022472	8
	22	91	1884.191	786.0289	-1009.274	1	1279.248	-52.08833	-7.811699E-006	0.0050046	8
	23	94	1516.544	860.1234	-1178.11	1	1458.682	-53.86728	-3.432809E-006	0.0041589	8
	24	97	1193.986	959.131	-1417.982	1	1711.901	-55.92537	-1.104478E-005	0.0011288	8
	25	101	946.5144	1068.694	-1689.796	1	1999.38	-57.68912	1.026569E-005	-0.0055377	8
	26	104	751.7689	1213.179	-2024.909	1	2360.521	-59.07301	-7.800608E-006	-0.0005062	8
	27	107	597.4265	1360.065	-2405.439	1	2763.316	-60.51565	1.422058E-005	-0.0030357	8
	28	110	477.4305	1558.349	-2856.979	1	3254.348	-61.38959	-1.366118E-007	-0.0001106	8
	29	114	376.6741	1798.066	-3421.481	1	3865.175	-62.27706	-1.336819E-007	-0.0001282	8
	30	116	298.2954	2091.773	-4091.456	1	4595.164	-62.92144	-2.534598E-008	-0.0001041	7
	31	118	237.7717	2427.808	-4858.546	1	5431.365	-63.44877	-2.616238E-008	-0.0000957	7
	32	121	189.0121	2840.171	-5778.84	1	6439.065	-63.82691	-2.114304E-008	-0.0001126	7
	33	123	150.2404	3342.961	-6868.097	1	7638.465	-64.04607	-2.315839E-008	-0.0001015	7
	34	126	119.1737	3963.632	-8169.594	1	9080.344	-64.11878	-2.521243E-008	-0.0001066	7
	35	128	95.0169	4707.975	-9663.46	1	10749.3	-64.02495	-2.674308E-008	-8.38733E-005	7
	36	130	75.60484	5631.646	-11431.12	1	12743.07	-63.77241	-2.694286E-008	-0.0000968	7
	37	133	54.50582	7335.766	-14470.1	1	16223.36	-63.11681	-2.256088E-008	-0.0001183	7
	38	136	45.95588	8449.944	-16333.95	1	18390.2	-62.64639	-2.910782E-008	-7.978499E-005	7
	39	138	37.20238	10080.16	-18908.69	1	21427.74	-61.93806	-2.69791E-008	-8.730609E-005	7
	40	140	30.04808	12069.85	-21854.49	1	24965.97	-61.0889	-2.755693E-008	-0.0000951	7
	41	143	23.91582	14647.87	-25403.26	1	29323.8	-60.03167	-2.693753E-008	-0.0001159	7
	42	145	18.60119	18083.88	-29790.05	1	34849.3	-58.74039	-2.003727E-008	-0.0001248	7
	43	147	15.02404	21573.12	-33914.88	1	40194.76	-57.53972	-3.211376E-008	-0.0000964	7
	44	150	12.01923	26007.68	-38682.01	1	46612.2	-56.08526	-9.846436E-009	-0.0001193	6
	45	152	9.450605	31509.09	-44230.6	1	54306.25	-54.5346	4.924781E-011	-0.0001593	6
	46	155	7.512019	37702.25	-49930.2	1	62565.84	-52.94358	-1.32032E-009	-0.0001375	6
	47	157	5.978954	44791.4	-55899.3	1	71631.01	-51.29525	-1.412667E-009	-0.0001262	6
	48	160	4.734848	53091.91	-62335.03	1	81880.45	-49.57834	-2.18272E-009	-0.000147	6
	49	164	3.75601	62214.98	-68991.67	1	92900.78	-47.95664	1.44882E-010	-9.320149E-005	6
	50	167	3.004808	72000.91	-75545.35	1	104361.1	-46.37613	-3.986231E-009	-0.0001148	6
	51	171	2.372217	83278.27	-82910.86	1	117513.7	-44.87333	-7.007732E-010	-0.0001224	6
	52	175	1.878005	95591.3	-90542.48	1	131664.8	-43.44626	-6.28214E-010	-0.000141	6
	53	180	1.512097	107699.8	-98238.1	1	145773.7	-42.36944	-1.916488E-009	-5.109187E-005	6
	54	185	1.201923	121584.4	-107131.2	1	162049	-41.38414	-1.060018E-009	-0.0001345	6
	55	191	0.956633	136452	-116942.1	1	179707	-40.59723	-6.771681E-009	-0.0006843	6
