EXPLAIN
TAG	EISPOT
TITLE	LABEL	Potentiostatic EIS	Test Identifier
DATE	LABEL	11/20/2021	Date
TIME	LABEL	17:14:10	Time
NOTES	NOTES	1	Notes...
	
PSTAT	PSTAT	REF3000-16137	Potentiostat
VDC	POTEN	0.00000E+000	T	DC Voltage (V)
FREQINIT	QUANT	3.00000E+005	Initial Freq. (Hz)
FREQFINAL	QUANT	1.00000E+000	Final Freq. (Hz)
PTSPERDEC	QUANT	1.00000E+001	Points/decade
VAC	QUANT	5.00000E+001	AC Voltage (mV rms)
AREA	QUANT	1.00000E+000	Sample Area (cm^2)
SPEED	SELECTOR	2	Optimize for:
ZGUESS	QUANT	1.00000E+003	Estimated Z (ohms)
EOC	QUANT	0	Open Circuit (V)
SEQUENCER	TOGGLE	TRUE	Run as Sequence
PSTATMODEL	IQUANT	5	Pstat Model
PSTATSECTION	LABEL	REF3000-16137	Pstat Section
PSTATSERIALNO	LABEL	16137	Pstat Serial Number
CTRLMODE	IQUANT	1	Control Mode
IESTAB	IQUANT	0	I/E Stability
CASPEED	IQUANT	1	Control Amp Speed
CONVENTION	IQUANT	1	Current Convention
ICHRANGE	IQUANT	2	Ich Range
ICHRANGEMODE	TOGGLE	F	Ich Auto Range
ICHOFFSETENABLE	TOGGLE	T	Ich Offset Enable
ICHOFFSET	QUANT	0	Ich Offset (V)
ICHFILTER	IQUANT	3	Ich Filter
VCHRANGE	IQUANT	2	Vch Range
VCHRANGEMODE	TOGGLE	F	Vch Auto Range
VCHOFFSETENABLE	TOGGLE	T	Vch Offset Enable
VCHOFFSET	QUANT	0	Vch Offset (V)
VCHFILTER	IQUANT	3	Vch Filter
ACHRANGE	IQUANT	2	Ach Range
ACHOFFSETENABLE	TOGGLE	F	Ach Offset Enable
ACHOFFSET	QUANT	0	Ach Offset (V)
ACHFILTER	IQUANT	3	Ach Filter
IERANGELOWERLIMIT	IQUANT	2	I/E Range Lower Limit
IERANGEMODE	TOGGLE	F	I/E AutoRange
IERANGE	IQUANT	11	I/E Range
POSFEEDENABLE	TOGGLE	F	Positive Feedback IR Comp
POSFEEDRESISTANCE	QUANT	0	Positive Feedback Resistance (ohm)
ACHSELECT	IQUANT	0	Ach Select
CABLEID	IQUANT	13	Cable ID
DCCALDATE	LABEL	9/10/2021	DC Calibration Date
ACCALDATE	LABEL	9/10/2021	AC Calibration Date
THERMOSELECT	IQUANT	1	Thermo Select
FRAMEWORKVERSION	QUANT	6.33	Framework Version
INSTRUMENTVERSION	LABEL	3.50	Instrument Version
COMPLIANCEVOLTAGE	IQUANT	0	Compliance Voltage
ZCURVE	TABLE
	Pt	Time	Freq	Zreal	Zimag	Zsig	Zmod	Zphz	Idc	Vdc	IERange
	#	s	Hz	ohm	ohm	V	ohm	°	A	V	#
	0	19	300046.9	2245.074	-2055.818	1	3044.133	-42.48038	-3.055371E-005	-0.0010886	9
	1	35	238359.4	2647.155	-2050.238	1	3348.269	-37.758	-3.370513E-005	-0.0009857	9
	2	52	189328.1	3120.049	-2105.134	1	3763.814	-34.00801	-6.372363E-005	0.000645	9
	3	60	150421.9	3487.903	-1854.922	1	3950.469	-28.00475	-6.050705E-006	-0.0017974	9
	4	68	119484.4	3925.307	-1580.226	1	4231.448	-21.92842	-5.817518E-005	0.0076466	8
	5	76	94921.88	4169.411	-1419.902	1	4404.555	-18.80639	-2.1908E-005	0.0095859	8
	6	83	75421.88	4401.628	-1262.132	1	4579.007	-15.99982	-2.876755E-006	-0.0049634	8
	7	91	59859.37	4608.828	-1135.041	1	4746.537	-13.83521	-1.071545E-005	-0.0020152	8
	8	98	47578.12	4756.068	-1028.922	1	4866.094	-12.20717	2.513232E-005	-0.0078877	8
	9	106	37828.12	4912.417	-958.1	1	5004.977	-11.03622	-2.768355E-006	-0.0049605	8
	10	113	30046.88	5256.61	-470.6766	1	5277.641	-5.116616	-4.267232E-006	0.0011171	7
	11	117	23859.38	5320.865	-468.8202	1	5341.479	-5.035315	-4.429031E-006	0.0010087	7
	12	122	18984.38	5403.84	-511.1603	1	5427.962	-5.403646	1.510827E-006	-0.0189115	7
	13	126	15046.87	5468.606	-575.27	1	5498.781	-6.005143	-4.789208E-007	-0.0138381	7
	14	129	11953.13	5541.788	-635.3068	1	5578.085	-6.539799	-4.39554E-006	0.0012916	7
	15	133	9515.62	5625.552	-725.5586	1	5672.149	-7.349183	1.566917E-006	-0.0190102	7
	16	136	7546.875	5706.79	-853.2185	1	5770.219	-8.503271	-1.981063E-006	0.0195708	7
	17	139	5928.309	5815.164	-1020.233	1	5903.982	-9.9509	-2.633491E-006	-0.0064387	7
	18	143	4733.456	5955.573	-1189.942	1	6073.287	-11.29909	1.455891E-006	-0.0189054	7
	19	149	3796.875	6114.637	-1381.016	1	6268.652	-12.72695	-3.624175E-006	0.0221428	7
	20	152	2987.132	6301.393	-1665.225	1	6517.708	-14.80277	1.449643E-006	-0.0189529	7
	21	156	2390.625	6469.623	-1981.091	1	6766.146	-17.02534	6.690581E-006	-0.016059	7
	22	159	1884.191	6704.024	-2325.325	1	7095.85	-19.12936	6.552043E-006	-0.015957	7
	23	164	1516.544	6932.212	-2816.48	1	7482.521	-22.11136	-1.884755E-006	0.0194624	7
	24	168	1193.986	7254.594	-3360.101	1	7994.961	-24.8521	6.142127E-006	-0.0241815	7
	25	172	946.5144	7559.09	-4009.53	1	8556.646	-27.9426	6.578623E-006	-0.016086	7
	26	175	751.7689	7960.136	-4700.403	1	9244.325	-30.56154	-6.228363E-007	-0.0134548	7
	27	178	597.4265	8266.31	-5677.52	1	10028.27	-34.48231	6.612615E-006	-0.016125	7
	28	180	477.4305	8914.955	-6594.965	1	11089.18	-36.49271	-8.433258E-008	-8.46855E-005	7
	29	183	376.6741	9513.98	-7855.078	1	12337.67	-39.54429	-8.98649E-008	-7.639612E-005	7
	30	185	298.2954	10204.91	-9332.201	1	13828.6	-42.44233	-8.376745E-008	-0.0001272	7
	31	187	237.7717	10998.68	-11041.06	1	15584.47	-45.11017	-9.006186E-008	-7.340431E-005	7
	32	190	189.0121	11936.13	-13094.02	1	17717.92	-47.6486	-8.11578E-008	-0.0001148	7
	33	192	150.2404	13043.75	-15534.63	1	20284.58	-49.9813	-8.696274E-008	-0.0001264	7
	34	195	119.1737	14347.06	-18456.73	1	23377.1	-52.14082	-8.996484E-008	-6.051951E-005	7
	35	197	95.0169	15888.1	-21875.38	1	27036.34	-54.00908	-8.249805E-008	-0.0001055	7
	36	199	75.60484	17730.71	-25964.82	1	31441.21	-55.67183	-8.399864E-008	-0.000146	7
	37	202	54.50582	20933.79	-33137.65	1	39196.02	-57.71848	-8.186311E-008	-0.0001407	7
	38	204	45.95588	23076.21	-37695.96	1	44198.38	-58.52642	-9.412116E-009	-9.021138E-005	6
	39	207	37.20238	26009.92	-44149.32	1	51241.38	-59.49616	-9.92697E-009	-0.0001041	6
	40	209	30.04808	29484.73	-51736.31	1	59548.26	-60.32101	-9.775139E-009	-0.000125	6
	41	212	23.91582	33900.75	-61326.86	1	70073.14	-61.06671	-1.013615E-008	-8.739085E-005	6
	42	214	18.60119	39752.55	-73852.45	1	83871.63	-61.70776	-7.963782E-009	-0.0001816	6
	43	216	15.02404	45702.93	-86576.71	1	97899.4	-62.1709	-1.004531E-008	-0.0001578	6
	44	219	12.01923	53245.67	-102112.1	1	115160.7	-62.46051	-8.48031E-009	-0.0001793	6
	45	221	9.450605	63018.42	-121882.4	1	137210.2	-62.65909	-1.025199E-008	-9.386572E-005	6
	46	224	7.512019	74330.52	-144198.3	1	162228.8	-62.73006	-1.048186E-008	-0.0001366	6
	47	226	5.978954	88120.64	-170487.3	1	191914.5	-62.66668	-9.266503E-009	-0.0001777	6
	48	229	4.734848	105405.3	-201747.8	1	227623.5	-62.41471	-9.75455E-009	-0.0001885	6
	49	233	3.75601	126422.7	-238201.8	1	269671.7	-62.04341	-8.705022E-009	-0.0001687	6
	50	236	3.004808	151045.5	-278810.8	1	317096.5	-61.55341	-9.385427E-009	-0.0001099	6
	51	240	2.372217	183573.8	-328377.2	1	376205.9	-60.79336	-9.609185E-009	-0.000204	6
	52	244	1.878005	222710.7	-385713.3	1	445392.8	-59.99788	-7.551388E-010	-4.824762E-005	5
	53	249	1.512097	265773.2	-444531.1	1	517922.1	-59.12594	-9.421255E-010	-8.942272E-005	5
	54	254	1.201923	321826	-517312.6	1	609249	-58.11379	-1.015917E-009	-2.007945E-005	5
	55	260	0.956633	388336.5	-598447.5	1	713403.6	-57.0202	-1.649063E-009	-0.0005968	5
