EXPLAIN
TAG	EISPOT
TITLE	LABEL	Potentiostatic EIS	Test Identifier
DATE	LABEL	11/20/2021	Date
TIME	LABEL	16:12:38	Time
NOTES	NOTES	1	Notes...
	
PSTAT	PSTAT	REF3000-16137	Potentiostat
VDC	POTEN	0.00000E+000	T	DC Voltage (V)
FREQINIT	QUANT	3.00000E+005	Initial Freq. (Hz)
FREQFINAL	QUANT	1.00000E+000	Final Freq. (Hz)
PTSPERDEC	QUANT	1.00000E+001	Points/decade
VAC	QUANT	5.00000E+001	AC Voltage (mV rms)
AREA	QUANT	1.00000E+000	Sample Area (cm^2)
SPEED	SELECTOR	2	Optimize for:
ZGUESS	QUANT	1.00000E+003	Estimated Z (ohms)
EOC	QUANT	0	Open Circuit (V)
SEQUENCER	TOGGLE	TRUE	Run as Sequence
PSTATMODEL	IQUANT	5	Pstat Model
PSTATSECTION	LABEL	REF3000-16137	Pstat Section
PSTATSERIALNO	LABEL	16137	Pstat Serial Number
CTRLMODE	IQUANT	1	Control Mode
IESTAB	IQUANT	0	I/E Stability
CASPEED	IQUANT	1	Control Amp Speed
CONVENTION	IQUANT	1	Current Convention
ICHRANGE	IQUANT	2	Ich Range
ICHRANGEMODE	TOGGLE	F	Ich Auto Range
ICHOFFSETENABLE	TOGGLE	T	Ich Offset Enable
ICHOFFSET	QUANT	0	Ich Offset (V)
ICHFILTER	IQUANT	3	Ich Filter
VCHRANGE	IQUANT	2	Vch Range
VCHRANGEMODE	TOGGLE	F	Vch Auto Range
VCHOFFSETENABLE	TOGGLE	T	Vch Offset Enable
VCHOFFSET	QUANT	0	Vch Offset (V)
VCHFILTER	IQUANT	3	Vch Filter
ACHRANGE	IQUANT	2	Ach Range
ACHOFFSETENABLE	TOGGLE	F	Ach Offset Enable
ACHOFFSET	QUANT	0	Ach Offset (V)
ACHFILTER	IQUANT	3	Ach Filter
IERANGELOWERLIMIT	IQUANT	2	I/E Range Lower Limit
IERANGEMODE	TOGGLE	F	I/E AutoRange
IERANGE	IQUANT	11	I/E Range
POSFEEDENABLE	TOGGLE	F	Positive Feedback IR Comp
POSFEEDRESISTANCE	QUANT	0	Positive Feedback Resistance (ohm)
ACHSELECT	IQUANT	0	Ach Select
CABLEID	IQUANT	13	Cable ID
DCCALDATE	LABEL	9/10/2021	DC Calibration Date
ACCALDATE	LABEL	9/10/2021	AC Calibration Date
THERMOSELECT	IQUANT	1	Thermo Select
FRAMEWORKVERSION	QUANT	6.33	Framework Version
INSTRUMENTVERSION	LABEL	3.50	Instrument Version
COMPLIANCEVOLTAGE	IQUANT	0	Compliance Voltage
ZCURVE	TABLE
	Pt	Time	Freq	Zreal	Zimag	Zsig	Zmod	Zphz	Idc	Vdc	IERange
	#	s	Hz	ohm	ohm	V	ohm	°	A	V	#
	0	7	300046.9	35.00301	-8.061599	1	35.91935	-12.96972	6.314248E-006	-0.0013268	9
	1	10	238359.4	35.80573	-10.55814	1	37.32994	-16.42936	6.541175E-007	-0.0013847	9
	2	13	189328.1	36.77736	-13.54518	1	39.19242	-20.21885	2.19235E-006	-0.0010348	9
	3	15	150421.9	37.8942	-16.77423	1	41.44086	-23.87704	2.783788E-006	-0.0009125	9
	4	18	119484.4	39.33469	-20.5473	1	44.37803	-27.58125	3.320407E-005	-0.0005971	9
	5	21	94921.88	41.08121	-24.89936	1	48.03795	-31.22009	8.707819E-007	-0.0004008	9
	6	23	75421.88	42.91784	-30.05971	1	52.39778	-35.00745	-5.086566E-006	-0.0002203	9
	7	26	59859.37	45.19586	-36.16732	1	57.88558	-38.66803	-4.473929E-006	-0.0002178	9
	8	28	47578.12	47.93439	-43.32708	1	64.61379	-42.10989	1.223689E-005	-0.000219	9
	9	31	37828.12	51.20438	-51.79902	1	72.83562	-45.33077	2.937348E-008	0.0001938	9
	10	33	30046.88	55.17139	-61.98755	1	82.98396	-48.32964	5.087554E-006	-0.0004996	9
	11	36	23859.38	59.86858	-74.05283	1	95.2264	-51.04593	-1.16553E-007	-0.0003569	9
	12	38	18984.38	65.16895	-88.53196	1	109.9313	-53.64297	1.460491E-005	-0.0006434	9
	13	40	15046.87	71.79111	-105.8363	1	127.8878	-55.8501	1.024378E-005	-0.0005756	9
	14	43	11953.13	79.9181	-126.4747	1	149.6087	-57.71162	1.06207E-005	-0.0002797	9
	15	45	9515.62	90.04832	-149.9717	1	174.9291	-59.01789	-1.201246E-005	0.0003997	9
	16	47	7546.875	101.6778	-179.4418	1	206.2468	-60.46264	1.6682E-005	-0.0004034	9
	17	49	5928.309	117.1207	-216.0349	1	245.7404	-61.53621	-1.252859E-005	0.0003666	9
	18	52	4733.456	134.9323	-256.4743	1	289.803	-62.25094	1.639461E-005	-0.0004317	9
	19	54	3796.875	157.3315	-301.3011	1	339.9052	-62.42762	6.803551E-007	-0.0003843	9
	20	56	2987.132	183.0044	-361.1519	1	404.872	-63.12757	-1.397533E-005	0.0001626	9
	21	59	2390.625	213.1658	-424.71	1	475.2034	-63.34752	-2.566559E-006	0.0007414	8
	22	61	1884.191	253.1948	-505.0473	1	564.9605	-63.37407	3.746535E-006	-0.0009969	8
	23	63	1516.544	297.5479	-590.8309	1	661.5254	-63.26976	3.674111E-006	-0.000974	8
	24	66	1193.986	356.4915	-701.5146	1	786.8984	-63.0615	1.893181E-007	0.0003619	8
	25	68	946.5144	428.0458	-824.7118	1	929.1785	-62.56957	3.383424E-006	-0.0010476	8
	26	70	751.7689	508.448	-970.457	1	1095.585	-62.34876	1.130076E-006	7.7059E-005	8
	27	73	597.4265	610.7543	-1133.27	1	1287.37	-61.6784	1.689622E-006	-0.0008035	8
	28	75	477.4305	730.1362	-1321.791	1	1510.043	-61.08444	4.992399E-007	-0.000116	8
	29	77	376.6741	881.4393	-1545.446	1	1779.14	-60.3019	4.969831E-007	-0.0001176	8
	30	80	298.2954	1061.09	-1796.599	1	2086.548	-59.43346	5.003336E-007	-0.0001116	8
	31	82	237.7717	1270.018	-2072.142	1	2430.374	-58.49583	5.030863E-007	-0.0001165	8
	32	85	189.0121	1522.888	-2385.017	1	2829.752	-57.44085	5.110514E-007	-0.0001181	8
	33	87	150.2404	1823.309	-2732.128	1	3284.658	-56.28249	5.050738E-007	-0.0001161	8
	34	89	119.1737	2182.294	-3114.792	1	3803.201	-54.98404	5.028304E-007	-0.0001173	8
	35	92	95.0169	2606.118	-3531.79	1	4389.236	-53.57628	6.612996E-008	-0.000101	7
	36	94	75.60484	3086.354	-3972.517	1	5030.554	-52.15542	6.544654E-008	-0.0001074	7
	37	97	54.50582	3891.624	-4649.845	1	6063.48	-50.07281	6.982326E-008	-0.0001106	7
	38	99	45.95588	4370.489	-5024.315	1	6659.198	-48.98104	5.438654E-008	-0.0000982	7
	39	102	37.20238	5012.599	-5508.096	1	7447.5	-47.69649	7.309485E-008	-0.0001079	7
	40	104	30.04808	5728.365	-6020.34	1	8310.153	-46.4236	6.11794E-008	-0.0001079	7
	41	106	23.91582	6561.024	-6597.437	1	9304.473	-45.15855	5.06654E-008	-0.0001041	7
	42	109	18.60119	7557.148	-7267.744	1	10484.78	-43.88164	4.071585E-008	-0.0000973	7
	43	111	15.02404	8480.624	-7882.435	1	11578.16	-42.90635	6.624031E-008	-0.0001003	7
	44	113	12.01923	9512.9	-8560.95	1	12797.86	-41.98501	3.854264E-008	-0.0001088	7
	45	116	9.450605	10688.75	-9373.523	1	14216.62	-41.24922	4.238391E-008	-9.467907E-005	7
	46	118	7.512019	11877.04	-10256.98	1	15692.98	-40.81381	4.957364E-008	-0.0001199	7
	47	121	5.978954	13190.01	-11226.56	1	17320.85	-40.40247	6.688705E-008	-9.39953E-005	7
	48	124	4.734848	14614.47	-12373.69	1	19149.18	-40.25373	5.496748E-008	-0.0001179	7
	49	127	3.75601	16173.92	-13655.81	1	21167.83	-40.17477	7.426672E-008	-8.535123E-005	7
	50	131	3.004808	17819.68	-15068.42	1	23336.63	-40.21804	6.148155E-008	-6.549997E-005	7
	51	134	2.372217	19802.42	-16819.03	1	25981.06	-40.34264	7.217799E-008	-4.441693E-005	7
	52	138	1.878005	22023.94	-18776.95	1	28941.8	-40.44992	6.922107E-008	-0.0001218	7
	53	143	1.512097	24427.24	-20853.32	1	32117.76	-40.48709	6.938541E-008	-1.032622E-006	7
	54	149	1.201923	27413.54	-23301.61	1	35978.71	-40.36466	7.135572E-008	-0.000108	7
	55	155	0.956633	30916.55	-25924.19	1	40347.2	-39.98056	5.635946E-008	-0.0006422	7
