EXPLAIN
TAG	EISPOT
TITLE	LABEL	Potentiostatic EIS	Test Identifier
DATE	LABEL	11/20/2021	Date
TIME	LABEL	17:28:49	Time
NOTES	NOTES	1	Notes...
	
PSTAT	PSTAT	REF3000-16137	Potentiostat
VDC	POTEN	0.00000E+000	T	DC Voltage (V)
FREQINIT	QUANT	3.00000E+005	Initial Freq. (Hz)
FREQFINAL	QUANT	1.00000E+000	Final Freq. (Hz)
PTSPERDEC	QUANT	1.00000E+001	Points/decade
VAC	QUANT	5.00000E+001	AC Voltage (mV rms)
AREA	QUANT	1.00000E+000	Sample Area (cm^2)
SPEED	SELECTOR	2	Optimize for:
ZGUESS	QUANT	1.00000E+003	Estimated Z (ohms)
EOC	QUANT	0	Open Circuit (V)
SEQUENCER	TOGGLE	TRUE	Run as Sequence
PSTATMODEL	IQUANT	5	Pstat Model
PSTATSECTION	LABEL	REF3000-16137	Pstat Section
PSTATSERIALNO	LABEL	16137	Pstat Serial Number
CTRLMODE	IQUANT	1	Control Mode
IESTAB	IQUANT	0	I/E Stability
CASPEED	IQUANT	1	Control Amp Speed
CONVENTION	IQUANT	1	Current Convention
ICHRANGE	IQUANT	2	Ich Range
ICHRANGEMODE	TOGGLE	F	Ich Auto Range
ICHOFFSETENABLE	TOGGLE	T	Ich Offset Enable
ICHOFFSET	QUANT	0	Ich Offset (V)
ICHFILTER	IQUANT	3	Ich Filter
VCHRANGE	IQUANT	2	Vch Range
VCHRANGEMODE	TOGGLE	F	Vch Auto Range
VCHOFFSETENABLE	TOGGLE	T	Vch Offset Enable
VCHOFFSET	QUANT	0	Vch Offset (V)
VCHFILTER	IQUANT	3	Vch Filter
ACHRANGE	IQUANT	2	Ach Range
ACHOFFSETENABLE	TOGGLE	F	Ach Offset Enable
ACHOFFSET	QUANT	0	Ach Offset (V)
ACHFILTER	IQUANT	3	Ach Filter
IERANGELOWERLIMIT	IQUANT	2	I/E Range Lower Limit
IERANGEMODE	TOGGLE	F	I/E AutoRange
IERANGE	IQUANT	11	I/E Range
POSFEEDENABLE	TOGGLE	F	Positive Feedback IR Comp
POSFEEDRESISTANCE	QUANT	0	Positive Feedback Resistance (ohm)
ACHSELECT	IQUANT	0	Ach Select
CABLEID	IQUANT	13	Cable ID
DCCALDATE	LABEL	9/10/2021	DC Calibration Date
ACCALDATE	LABEL	9/10/2021	AC Calibration Date
THERMOSELECT	IQUANT	1	Thermo Select
FRAMEWORKVERSION	QUANT	6.33	Framework Version
INSTRUMENTVERSION	LABEL	3.50	Instrument Version
COMPLIANCEVOLTAGE	IQUANT	0	Compliance Voltage
ZCURVE	TABLE
	Pt	Time	Freq	Zreal	Zimag	Zsig	Zmod	Zphz	Idc	Vdc	IERange
	#	s	Hz	ohm	ohm	V	ohm	°	A	V	#
	0	21	300046.9	313.5659	-4631.044	1	4641.648	-86.12644	7.995307E-005	-0.0020175	9
	1	37	238359.4	486.7616	-5720.416	1	5741.088	-85.13631	5.03566E-005	-0.0002693	9
	2	60	189328.1	344.9758	-7352.694	1	7360.782	-87.31375	5.095505E-005	-0.000242	9
	3	67	150421.9	98.4675	-7650.892	1	7651.525	-89.26264	-1.352845E-005	0.0016089	9
	4	83	119484.4	1847.972	-11134.73	1	11287.04	-80.57682	-2.113678E-005	0.0014484	9
	5	94	94921.88	2912.635	-13412.1	1	13724.72	-77.74762	2.575566E-005	-0.0061176	8
	6	101	75421.88	3882.235	-16797.26	1	17240.06	-76.98614	-7.063587E-007	0.0063365	8
	7	110	59859.37	5560.688	-20394.87	1	21139.34	-74.74893	-1.049648E-005	-0.0024565	8
	8	118	47578.12	10979.42	-25172.18	1	27462.45	-66.43447	3.193507E-006	-0.0244615	7
	9	125	37828.12	13198.4	-29218.13	1	32060.83	-65.69038	-1.057692E-005	-0.0024128	8
	10	133	30046.88	19013.67	-35608.64	1	40367	-61.89947	7.435488E-006	-0.0197404	7
	11	141	23859.38	25343.53	-40990.73	1	48192.68	-58.27255	-3.42251E-006	0.0239494	7
	12	146	18984.38	33058.84	-46388.04	1	56962.59	-54.5241	-5.50778E-006	0.0039141	7
	13	152	15046.87	43062.55	-50643.81	1	66476.91	-49.6254	6.673246E-006	-0.0118548	7
	14	157	11953.13	55415.55	-55632.22	1	78522.78	-45.11179	6.463334E-006	-0.0273939	7
	15	162	9515.62	66421.84	-56035.82	1	86901.52	-40.15216	5.056892E-006	-0.0270253	7
	16	169	7546.875	81004.98	-55839.51	1	98386.3	-34.57983	-3.246015E-006	0.0237178	7
	17	175	5928.309	93401.07	-50793.84	1	106319.2	-28.53846	7.456368E-006	-0.0252691	7
	18	180	4733.456	101030.5	-46423.9	1	111186	-24.67897	-2.373695E-005	0.0101908	8
	19	188	3796.875	110345.3	-56593.42	1	124011.7	-27.15219	2.574866E-005	-0.0061695	8
	20	196	2987.132	101164	-57382.56	1	116305.3	-29.5629	6.504828E-006	-0.008066	8
	21	203	2390.625	126055.1	-37133.43	1	131410.8	-16.41397	-5.474556E-006	0.0039869	7
	22	209	1884.191	129485.1	-28518.34	1	132588.4	-12.42076	6.540598E-006	-0.0275099	7
	23	215	1516.544	132980	-36823.21	1	137984.2	-15.47783	8.825555E-007	-0.0196585	7
	24	220	1193.986	147997.9	-23080.33	1	149786.8	-8.8639	-7.37761E-007	0.0229319	6
	25	225	946.5144	153344.3	-20956.39	1	154769.7	-7.781964	-7.393634E-007	0.0228999	6
	26	227	751.7689	153441	-22693.57	1	155110.1	-8.412925	-7.385456E-007	0.022903	6
	27	230	597.4265	157782.5	-25173.65	1	159778.1	-9.064941	-7.448564E-007	0.023008	6
	28	233	477.4305	159133.1	-24549.34	1	161015.6	-8.76984	-1.028537E-008	-0.0001614	6
	29	235	376.6741	162239.4	-26898.93	1	164454.2	-9.413877	-1.049915E-008	-0.0001335	6
	30	237	298.2954	165551	-30197.78	1	168282.6	-10.33754	-1.032753E-008	-0.0001807	6
	31	240	237.7717	169183.7	-34439.37	1	172653.4	-11.50604	-1.027122E-008	-0.0001791	6
	32	242	189.0121	173288.7	-39768.06	1	177793.3	-12.92502	-1.098806E-008	-8.530101E-005	6
	33	245	150.2404	177858.8	-46347.38	1	183798.4	-14.60562	-1.068144E-008	-0.0001688	6
	34	247	119.1737	183413.7	-55108.12	1	191513.7	-16.72332	-1.025951E-008	-0.0001481	6
	35	249	95.0169	189705	-63975.09	1	200201.9	-18.63589	-1.06307E-008	-0.0001077	6
	36	252	75.60484	196991.4	-75349.49	1	210910.3	-20.93192	-1.024921E-008	-0.0001649	6
	37	254	54.50582	208313.1	-94977.87	1	228943.5	-24.51005	-1.092744E-008	-8.96369E-005	6
	38	257	45.95588	216305.7	-107668	1	241620.7	-26.46222	-1.097127E-008	-9.448444E-005	6
	39	259	37.20238	226464	-125416.2	1	258872.9	-28.97776	-1.051832E-008	-0.0001106	6
	40	262	30.04808	238299.8	-146373.4	1	279664.1	-31.55993	-1.028997E-008	-0.0001778	6
	41	264	23.91582	253126	-172567.6	1	306353.3	-34.28405	-1.125786E-008	-9.292198E-005	6
	42	266	18.60119	270841.3	-206489.3	1	340577.2	-37.32188	-1.090764E-008	-0.0001681	6
	43	269	15.02404	288974.3	-241668.6	1	376709.2	-39.90567	-1.140211E-008	-7.981254E-005	6
	44	271	12.01923	312909.9	-283634	1	422327.9	-42.19042	-1.211224E-009	-7.982893E-005	5
	45	274	9.450605	340445	-338711.9	1	480238	-44.85379	-1.306582E-009	-4.45139E-005	5
	46	276	7.512019	371963.6	-400542.5	1	546618	-47.11869	-1.259315E-009	-9.182309E-005	5
	47	279	5.978954	409069.8	-474196.1	1	626258.8	-49.21699	-1.210345E-009	-1.406594E-005	5
	48	283	4.734848	453669.3	-563696.2	1	723580.8	-51.17248	-1.318202E-009	-0.0001279	5
	49	286	3.75601	507682.7	-670106	1	840704.4	-52.85186	-1.100336E-009	6.354691E-006	5
	50	292	3.004808	570808.8	-793286.3	1	977305	-54.26311	-1.139936E-009	-7.472742E-005	5
	51	298	2.372217	649576.4	-947879.3	1	1149097	-55.57738	-1.18507E-009	-0.0001211	5
	52	303	1.878005	738764.8	-1130142	1	1350183	-56.82767	-1.057521E-009	-4.936172E-005	5
	53	307	1.512097	837344.9	-1329120	1	1570893	-57.78909	-1.135396E-009	-4.267941E-005	5
	54	313	1.201923	967302	-1582904	1	1855063	-58.57117	-1.115064E-009	-2.46821E-005	5
	55	319	0.956633	1120598	-1881219	1	2189686	-59.21873	-1.281355E-009	-0.0005963	5
