EXPLAIN
TAG	EISPOT
TITLE	LABEL	Potentiostatic EIS	Test Identifier
DATE	LABEL	11/20/2021	Date
TIME	LABEL	16:09:52	Time
NOTES	NOTES	1	Notes...
	
PSTAT	PSTAT	REF3000-16137	Potentiostat
VDC	POTEN	0.00000E+000	T	DC Voltage (V)
FREQINIT	QUANT	3.00000E+005	Initial Freq. (Hz)
FREQFINAL	QUANT	1.00000E+000	Final Freq. (Hz)
PTSPERDEC	QUANT	1.00000E+001	Points/decade
VAC	QUANT	5.00000E+001	AC Voltage (mV rms)
AREA	QUANT	1.00000E+000	Sample Area (cm^2)
SPEED	SELECTOR	2	Optimize for:
ZGUESS	QUANT	1.00000E+003	Estimated Z (ohms)
EOC	QUANT	0	Open Circuit (V)
SEQUENCER	TOGGLE	TRUE	Run as Sequence
PSTATMODEL	IQUANT	5	Pstat Model
PSTATSECTION	LABEL	REF3000-16137	Pstat Section
PSTATSERIALNO	LABEL	16137	Pstat Serial Number
CTRLMODE	IQUANT	1	Control Mode
IESTAB	IQUANT	0	I/E Stability
CASPEED	IQUANT	1	Control Amp Speed
CONVENTION	IQUANT	1	Current Convention
ICHRANGE	IQUANT	2	Ich Range
ICHRANGEMODE	TOGGLE	F	Ich Auto Range
ICHOFFSETENABLE	TOGGLE	T	Ich Offset Enable
ICHOFFSET	QUANT	0	Ich Offset (V)
ICHFILTER	IQUANT	3	Ich Filter
VCHRANGE	IQUANT	2	Vch Range
VCHRANGEMODE	TOGGLE	F	Vch Auto Range
VCHOFFSETENABLE	TOGGLE	T	Vch Offset Enable
VCHOFFSET	QUANT	0	Vch Offset (V)
VCHFILTER	IQUANT	3	Vch Filter
ACHRANGE	IQUANT	2	Ach Range
ACHOFFSETENABLE	TOGGLE	F	Ach Offset Enable
ACHOFFSET	QUANT	0	Ach Offset (V)
ACHFILTER	IQUANT	3	Ach Filter
IERANGELOWERLIMIT	IQUANT	2	I/E Range Lower Limit
IERANGEMODE	TOGGLE	F	I/E AutoRange
IERANGE	IQUANT	11	I/E Range
POSFEEDENABLE	TOGGLE	F	Positive Feedback IR Comp
POSFEEDRESISTANCE	QUANT	0	Positive Feedback Resistance (ohm)
ACHSELECT	IQUANT	0	Ach Select
CABLEID	IQUANT	13	Cable ID
DCCALDATE	LABEL	9/10/2021	DC Calibration Date
ACCALDATE	LABEL	9/10/2021	AC Calibration Date
THERMOSELECT	IQUANT	1	Thermo Select
FRAMEWORKVERSION	QUANT	6.33	Framework Version
INSTRUMENTVERSION	LABEL	3.50	Instrument Version
COMPLIANCEVOLTAGE	IQUANT	0	Compliance Voltage
ZCURVE	TABLE
	Pt	Time	Freq	Zreal	Zimag	Zsig	Zmod	Zphz	Idc	Vdc	IERange
	#	s	Hz	ohm	ohm	V	ohm	°	A	V	#
	0	7	300046.9	32.89969	-9.28888	1	34.18586	-15.76647	-3.118249E-005	-0.0002289	11
	1	12	238359.4	33.90324	-11.29613	1	35.73559	-18.42741	-8.698483E-005	-0.0002183	10
	2	15	189328.1	34.92391	-14.09445	1	37.66076	-21.97782	1.451083E-005	-0.0003398	10
	3	17	150421.9	36.27405	-17.01	1	40.06428	-25.12331	4.506097E-005	-0.0015273	9
	4	20	119484.4	37.63612	-20.83752	1	43.01953	-28.97144	1.584125E-005	-0.0001534	9
	5	22	94921.88	39.40061	-25.08583	1	46.70875	-32.48435	-1.198054E-005	0.0001781	9
	6	25	75421.88	41.29663	-30.24358	1	51.18678	-36.21717	1.68163E-005	-0.0004323	9
	7	27	59859.37	43.60131	-36.37479	1	56.78203	-39.83686	1.214955E-005	-0.0002379	9
	8	30	47578.12	46.372	-43.56509	1	63.62609	-43.21239	-1.296403E-005	0.0001488	9
	9	32	37828.12	49.66528	-52.11842	1	71.99284	-46.38065	-1.015589E-005	4.383739E-005	9
	10	35	30046.88	53.53444	-62.54119	1	82.32458	-49.43691	4.68509E-006	-7.766452E-005	9
	11	37	23859.38	58.32051	-74.6296	1	94.71462	-51.99358	1.660935E-005	-0.0006071	9
	12	40	18984.38	63.97927	-88.79147	1	109.4407	-54.22512	-1.16371E-005	0.0004039	9
	13	42	15046.87	70.69946	-106.5057	1	127.8354	-56.42343	5.906161E-006	-0.0005117	9
	14	44	11953.13	79.34069	-126.9032	1	149.6642	-57.98612	9.291745E-006	-0.0005923	9
	15	47	9515.62	89.18929	-150.9188	1	175.3032	-59.41796	-4.561192E-006	0.0002987	9
	16	49	7546.875	101.298	-180.8851	1	207.3179	-60.75061	1.418963E-005	-0.0004314	9
	17	51	5928.309	117.3026	-216.64	1	246.3591	-61.56607	1.592995E-005	-0.0006274	9
	18	53	4733.456	135.089	-256.0794	1	289.5266	-62.18711	1.627567E-005	-0.0006359	9
	19	56	3796.875	157.3024	-300.6463	1	339.3114	-62.3808	-1.167034E-005	0.0004066	9
	20	58	2987.132	184.0496	-361.4544	1	405.615	-63.01518	1.590927E-005	-0.0004343	9
	21	60	2390.625	215.6976	-421.9173	1	473.8562	-62.92243	2.390855E-006	-0.0009129	8
	22	63	1884.191	255.5356	-501.516	1	562.8648	-62.99996	2.090299E-007	0.0003342	8
	23	65	1516.544	300.2939	-585.9711	1	658.4364	-62.86612	-1.257337E-006	8.748597E-005	8
	24	67	1193.986	359.0084	-694.9093	1	782.1675	-62.67794	-1.318057E-006	0.0001069	8
	25	70	946.5144	427.6765	-818.6904	1	923.6672	-62.41784	-2.450569E-006	0.0005929	8
	26	72	751.7689	512.9008	-958.804	1	1087.37	-61.85598	-2.586032E-006	0.0005469	8
	27	74	597.4265	611.328	-1123.892	1	1279.397	-61.45654	2.039336E-006	-0.000272	8
	28	77	477.4305	732.1476	-1303.526	1	1495.066	-60.67852	5.008023E-007	-0.0001133	8
	29	79	376.6741	883.3074	-1521.746	1	1759.529	-59.86669	5.033976E-007	-0.0001166	8
	30	81	298.2954	1062.824	-1766.249	1	2061.366	-58.96297	5.148723E-007	-0.0001131	8
	31	84	237.7717	1271.652	-2033.726	1	2398.571	-57.98302	5.101672E-007	-0.0001124	8
	32	86	189.0121	1523.894	-2335.587	1	2788.767	-56.87687	4.994929E-007	-0.0001131	8
	33	88	150.2404	1822.736	-2668.501	1	3231.604	-55.66474	4.984454E-007	-0.0001119	8
	34	91	119.1737	2179.145	-3034.039	1	3735.514	-54.31287	4.967439E-007	-0.0001085	8
	35	93	95.0169	2597.314	-3428.314	1	4301.09	-52.85219	6.512484E-008	-0.0001034	7
	36	96	75.60484	3067.197	-3841.021	1	4915.398	-51.39135	6.334555E-008	-0.0001005	7
	37	98	54.50582	3850.491	-4472.447	1	5901.615	-49.27365	6.324002E-008	-0.0001067	7
	38	101	45.95588	4312.588	-4823.04	1	6469.94	-48.19807	6.647604E-008	-0.0000967	7
	39	103	37.20238	4934.624	-5272.495	1	7221.476	-46.89589	6.287378E-008	-0.0001002	7
	40	105	30.04808	5620.013	-5749.02	1	8039.637	-45.65012	7.026309E-008	-0.0001016	7
	41	108	23.91582	6418.664	-6281.196	1	8980.683	-44.37983	7.949773E-008	-0.0001015	7
	42	110	18.60119	7371.598	-6909.431	1	10103.5	-43.14643	4.504802E-008	-9.38001E-005	7
	43	113	15.02404	8240.951	-7481.87	1	11130.66	-42.23597	4.16795E-008	-9.443829E-005	7
	44	115	12.01923	9217.571	-8110.788	1	12277.97	-41.34541	8.567984E-008	-0.000097	7
	45	117	9.450605	10314.09	-8866.816	1	13601.5	-40.68498	4.580788E-008	-0.0000994	7
	46	120	7.512019	11450.35	-9694.88	1	15003.38	-40.25421	5.774517E-008	-0.0001146	7
	47	123	5.978954	12675.03	-10603.12	1	16525.21	-39.9137	6.495788E-008	-0.0000991	7
	48	126	4.734848	14011.51	-11686.61	1	18245.53	-39.83055	5.365732E-008	-0.0001245	7
	49	129	3.75601	15481.29	-12904.05	1	20154.03	-39.81206	7.532749E-008	-8.287242E-005	7
	50	132	3.004808	17044.84	-14249.51	1	22216.55	-39.89567	6.581271E-008	-8.239153E-005	7
	51	136	2.372217	18913.6	-15909.55	1	24715.14	-40.06955	7.226321E-008	-7.553094E-005	7
	52	140	1.878005	21064.16	-17763.35	1	27554.23	-40.14085	7.060729E-008	-0.0001156	7
	53	145	1.512097	23368.17	-19699.95	1	30564.02	-40.13173	6.930154E-008	1.141894E-005	7
	54	150	1.201923	26254.5	-21973.99	1	34236.75	-39.92802	7.129529E-008	-0.000118	7
	55	156	0.956633	29639.23	-24375.25	1	38374.95	-39.43382	5.647495E-008	-0.0006416	7
