EXPLAIN
TAG	EISPOT
TITLE	LABEL	Potentiostatic EIS	Test Identifier
DATE	LABEL	11/20/2021	Date
TIME	LABEL	16:15:22	Time
NOTES	NOTES	1	Notes...
	
PSTAT	PSTAT	REF3000-16137	Potentiostat
VDC	POTEN	0.00000E+000	T	DC Voltage (V)
FREQINIT	QUANT	3.00000E+005	Initial Freq. (Hz)
FREQFINAL	QUANT	1.00000E+000	Final Freq. (Hz)
PTSPERDEC	QUANT	1.00000E+001	Points/decade
VAC	QUANT	5.00000E+001	AC Voltage (mV rms)
AREA	QUANT	1.00000E+000	Sample Area (cm^2)
SPEED	SELECTOR	2	Optimize for:
ZGUESS	QUANT	1.00000E+003	Estimated Z (ohms)
EOC	QUANT	0	Open Circuit (V)
SEQUENCER	TOGGLE	TRUE	Run as Sequence
PSTATMODEL	IQUANT	5	Pstat Model
PSTATSECTION	LABEL	REF3000-16137	Pstat Section
PSTATSERIALNO	LABEL	16137	Pstat Serial Number
CTRLMODE	IQUANT	1	Control Mode
IESTAB	IQUANT	0	I/E Stability
CASPEED	IQUANT	1	Control Amp Speed
CONVENTION	IQUANT	1	Current Convention
ICHRANGE	IQUANT	2	Ich Range
ICHRANGEMODE	TOGGLE	F	Ich Auto Range
ICHOFFSETENABLE	TOGGLE	T	Ich Offset Enable
ICHOFFSET	QUANT	0	Ich Offset (V)
ICHFILTER	IQUANT	3	Ich Filter
VCHRANGE	IQUANT	2	Vch Range
VCHRANGEMODE	TOGGLE	F	Vch Auto Range
VCHOFFSETENABLE	TOGGLE	T	Vch Offset Enable
VCHOFFSET	QUANT	0	Vch Offset (V)
VCHFILTER	IQUANT	3	Vch Filter
ACHRANGE	IQUANT	2	Ach Range
ACHOFFSETENABLE	TOGGLE	F	Ach Offset Enable
ACHOFFSET	QUANT	0	Ach Offset (V)
ACHFILTER	IQUANT	3	Ach Filter
IERANGELOWERLIMIT	IQUANT	2	I/E Range Lower Limit
IERANGEMODE	TOGGLE	F	I/E AutoRange
IERANGE	IQUANT	11	I/E Range
POSFEEDENABLE	TOGGLE	F	Positive Feedback IR Comp
POSFEEDRESISTANCE	QUANT	0	Positive Feedback Resistance (ohm)
ACHSELECT	IQUANT	0	Ach Select
CABLEID	IQUANT	13	Cable ID
DCCALDATE	LABEL	9/10/2021	DC Calibration Date
ACCALDATE	LABEL	9/10/2021	AC Calibration Date
THERMOSELECT	IQUANT	1	Thermo Select
FRAMEWORKVERSION	QUANT	6.33	Framework Version
INSTRUMENTVERSION	LABEL	3.50	Instrument Version
COMPLIANCEVOLTAGE	IQUANT	0	Compliance Voltage
ZCURVE	TABLE
	Pt	Time	Freq	Zreal	Zimag	Zsig	Zmod	Zphz	Idc	Vdc	IERange
	#	s	Hz	ohm	ohm	V	ohm	°	A	V	#
	0	7	300046.9	37.11313	-7.868637	1	37.9381	-11.97045	-4.789736E-005	0.0007959	9
	1	10	238359.4	37.9256	-10.56327	1	39.3692	-15.56391	-5.088672E-005	0.0009135	9
	2	13	189328.1	38.94338	-13.50867	1	41.21979	-19.13062	-1.258599E-006	-0.0010461	9
	3	16	150421.9	40.1141	-16.86431	1	43.5149	-22.8023	3.855258E-005	-0.0010742	9
	4	18	119484.4	41.4869	-20.65252	1	46.34317	-26.4645	-6.690286E-007	0.0002907	9
	5	21	94921.88	43.27804	-24.93534	1	49.94757	-29.94909	1.112098E-005	-0.0002983	9
	6	23	75421.88	45.20112	-30.06577	1	54.28712	-33.63008	1.052451E-005	-0.0002944	9
	7	26	59859.37	47.46681	-36.0746	1	59.61942	-37.2347	1.08632E-006	0.0001928	9
	8	28	47578.12	50.15097	-43.28424	1	66.24685	-40.79679	1.798917E-006	0.0001557	9
	9	31	37828.12	53.43409	-51.84491	1	74.45198	-44.13519	1.366522E-005	-0.0006438	9
	10	33	30046.88	57.25021	-62.07704	1	84.44611	-47.31638	3.985104E-006	-0.0004637	9
	11	36	23859.38	61.91609	-74.03608	1	96.514	-50.09439	-9.455325E-006	0.0004159	9
	12	38	18984.38	67.27923	-88.57905	1	111.2328	-52.78192	1.066765E-005	-0.0006085	9
	13	41	15046.87	73.9082	-106.1917	1	129.3797	-55.16254	-1.384473E-005	0.0003666	9
	14	43	11953.13	82.01514	-126.999	1	151.1794	-57.14588	-1.393988E-005	0.0003767	9
	15	45	9515.62	91.9204	-150.8996	1	176.6919	-58.65233	2.335744E-008	0.000206	9
	16	48	7546.875	104.1408	-180.1344	1	208.0714	-59.96658	-5.994591E-006	-0.000178	9
	17	50	5928.309	119.1058	-217.3478	1	247.8432	-61.27743	-5.270197E-006	-0.000209	9
	18	52	4733.456	136.4489	-258.1917	1	292.0295	-62.14449	-1.487895E-005	0.0002894	9
	19	54	3796.875	157.9901	-304.5884	1	343.1253	-62.58421	-9.92429E-006	0.0004622	9
	20	57	2987.132	183.8434	-366.1347	1	409.6987	-63.33787	1.14037E-005	-0.0002393	9
	21	59	2390.625	214.1592	-429.9144	1	480.3026	-63.52009	3.985691E-007	0.0003836	8
	22	61	1884.191	254.0152	-512.7635	1	572.2326	-63.6469	1.21615E-007	0.0004205	8
	23	64	1516.544	298.4362	-600.9397	1	670.964	-63.59028	3.17137E-006	-0.0010925	8
	24	66	1193.986	357.2772	-714.6076	1	798.9437	-63.43666	-1.543672E-006	0.0007721	8
	25	68	946.5144	427.1261	-844.8533	1	946.6857	-63.18056	-2.750732E-006	0.0006708	8
	26	71	751.7689	512.6193	-991.112	1	1115.833	-62.65127	7.196228E-007	-0.0005855	8
	27	73	597.4265	611.706	-1162.802	1	1313.885	-62.25285	2.204471E-006	-0.000269	8
	28	75	477.4305	734.8844	-1355.416	1	1541.82	-61.53418	4.88173E-007	-0.0001165	8
	29	78	376.6741	888.25	-1587.015	1	1818.682	-60.76432	4.793023E-007	-0.000117	8
	30	80	298.2954	1070.363	-1847.904	1	2135.515	-59.91925	4.89258E-007	-0.0001126	8
	31	82	237.7717	1282.464	-2134.805	1	2490.403	-59.00505	4.986112E-007	-0.00011	8
	32	85	189.0121	1539.226	-2461.623	1	2903.24	-57.9827	4.789388E-007	-0.0001134	8
	33	87	150.2404	1844.431	-2825.749	1	3374.431	-56.86659	4.787992E-007	-0.00011	8
	34	90	119.1737	2209.861	-3230.452	1	3913.988	-55.62506	4.853913E-007	-0.0001399	8
	35	92	95.0169	2644.385	-3673.709	1	4526.468	-54.25315	6.153207E-008	-0.000099	7
	36	94	75.60484	3138.3	-4144.356	1	5198.521	-52.86529	6.261114E-008	-0.0001011	7
	37	97	54.50582	3975.476	-4871.336	1	6287.633	-50.78226	6.258175E-008	-0.0001025	7
	38	100	45.95588	4471.947	-5274.016	1	6914.734	-49.7047	6.900505E-008	-0.0000986	7
	39	102	37.20238	5147.635	-5796.134	1	7751.988	-48.39123	5.143784E-008	-9.374141E-005	7
	40	104	30.04808	5897.22	-6351.142	1	8666.846	-47.1224	5.687847E-008	-0.0001255	7
	41	107	23.91582	6774.615	-6971.988	1	9721.32	-45.82259	4.756996E-008	-0.0000978	7
	42	109	18.60119	7825.211	-7713.083	1	10987.52	-44.58654	8.468629E-008	-9.239385E-005	7
	43	111	15.02404	8804.496	-8368.187	1	12146.84	-43.54459	6.872347E-008	-0.0000995	7
	44	114	12.01923	9901.6	-9102.939	1	13450.1	-42.59358	8.122654E-008	-0.0000998	7
	45	116	9.450605	11160.39	-9974.3	1	14968	-41.78791	8.187955E-008	-0.0000984	7
	46	118	7.512019	12461.05	-10919.6	1	16568.5	-41.22803	6.053758E-008	-8.395658E-005	7
	47	121	5.978954	13829.85	-11951.02	1	18278.18	-40.83183	5.218058E-008	-0.0000993	7
	48	124	4.734848	15376.66	-13153.16	1	20234.8	-40.5436	6.260187E-008	-0.0001349	7
	49	127	3.75601	17038.86	-14519.19	1	22385.92	-40.43505	6.280679E-008	-8.467431E-005	7
	50	131	3.004808	18779.46	-16020.63	1	24684.58	-40.46726	6.840798E-008	-0.0001227	7
	51	135	2.372217	20889.71	-17847.66	1	27475.79	-40.50977	6.366803E-008	-0.0001684	7
	52	139	1.878005	23195.97	-19957.31	1	30599.79	-40.70798	6.976067E-008	-8.529363E-005	7
	53	143	1.512097	25653.47	-22147.63	1	33891.27	-40.80531	6.82142E-008	-0.0001306	7
	54	149	1.201923	28788.93	-24802.11	1	37999.3	-40.74541	6.866767E-008	-7.492636E-005	7
	55	155	0.956633	32462.38	-27642.12	1	42636.75	-40.4148	7.022594E-009	-0.0006736	6
