EXPLAIN
TAG	EISPOT
TITLE	LABEL	Potentiostatic EIS	Test Identifier
DATE	LABEL	11/20/2021	Date
TIME	LABEL	15:56:04	Time
NOTES	NOTES	1	Notes...
	
PSTAT	PSTAT	REF3000-16137	Potentiostat
VDC	POTEN	0.00000E+000	T	DC Voltage (V)
FREQINIT	QUANT	3.00000E+005	Initial Freq. (Hz)
FREQFINAL	QUANT	1.00000E+000	Final Freq. (Hz)
PTSPERDEC	QUANT	1.00000E+001	Points/decade
VAC	QUANT	5.00000E+001	AC Voltage (mV rms)
AREA	QUANT	1.00000E+000	Sample Area (cm^2)
SPEED	SELECTOR	2	Optimize for:
ZGUESS	QUANT	1.00000E+003	Estimated Z (ohms)
EOC	QUANT	0	Open Circuit (V)
SEQUENCER	TOGGLE	TRUE	Run as Sequence
PSTATMODEL	IQUANT	5	Pstat Model
PSTATSECTION	LABEL	REF3000-16137	Pstat Section
PSTATSERIALNO	LABEL	16137	Pstat Serial Number
CTRLMODE	IQUANT	1	Control Mode
IESTAB	IQUANT	0	I/E Stability
CASPEED	IQUANT	1	Control Amp Speed
CONVENTION	IQUANT	1	Current Convention
ICHRANGE	IQUANT	2	Ich Range
ICHRANGEMODE	TOGGLE	F	Ich Auto Range
ICHOFFSETENABLE	TOGGLE	T	Ich Offset Enable
ICHOFFSET	QUANT	0	Ich Offset (V)
ICHFILTER	IQUANT	3	Ich Filter
VCHRANGE	IQUANT	2	Vch Range
VCHRANGEMODE	TOGGLE	F	Vch Auto Range
VCHOFFSETENABLE	TOGGLE	T	Vch Offset Enable
VCHOFFSET	QUANT	0	Vch Offset (V)
VCHFILTER	IQUANT	3	Vch Filter
ACHRANGE	IQUANT	2	Ach Range
ACHOFFSETENABLE	TOGGLE	F	Ach Offset Enable
ACHOFFSET	QUANT	0	Ach Offset (V)
ACHFILTER	IQUANT	3	Ach Filter
IERANGELOWERLIMIT	IQUANT	2	I/E Range Lower Limit
IERANGEMODE	TOGGLE	F	I/E AutoRange
IERANGE	IQUANT	11	I/E Range
POSFEEDENABLE	TOGGLE	F	Positive Feedback IR Comp
POSFEEDRESISTANCE	QUANT	0	Positive Feedback Resistance (ohm)
ACHSELECT	IQUANT	0	Ach Select
CABLEID	IQUANT	13	Cable ID
DCCALDATE	LABEL	9/10/2021	DC Calibration Date
ACCALDATE	LABEL	9/10/2021	AC Calibration Date
THERMOSELECT	IQUANT	1	Thermo Select
FRAMEWORKVERSION	QUANT	6.33	Framework Version
INSTRUMENTVERSION	LABEL	3.50	Instrument Version
COMPLIANCEVOLTAGE	IQUANT	0	Compliance Voltage
ZCURVE	TABLE
	Pt	Time	Freq	Zreal	Zimag	Zsig	Zmod	Zphz	Idc	Vdc	IERange
	#	s	Hz	ohm	ohm	V	ohm	°	A	V	#
	0	7	300046.9	39.1242	-12.97056	1	41.21818	-18.34153	2.484682E-006	-0.0014682	9
	1	10	238359.4	40.06482	-16.3481	1	43.27182	-22.19749	-1.026145E-006	-6.753951E-005	9
	2	13	189328.1	41.45885	-20.24207	1	46.13651	-26.02371	4.972213E-005	-0.0023018	9
	3	16	150421.9	43.09209	-24.65153	1	49.64501	-29.77242	3.145786E-005	-0.0005616	9
	4	18	119484.4	45.01487	-29.73937	1	53.95154	-33.45101	-5.389486E-005	0.001587	9
	5	21	94921.88	47.49781	-35.66718	1	59.39857	-36.90371	5.06736E-006	-0.0005613	9
	6	23	75421.88	50.2155	-42.61311	1	65.8595	-40.31809	-5.230595E-006	-0.0001872	9
	7	26	59859.37	53.40457	-50.83652	1	73.73195	-43.58876	1.803432E-005	-0.0004317	9
	8	29	47578.12	57.2703	-60.57612	1	83.36279	-46.60684	-6.404243E-006	-0.000179	9
	9	31	37828.12	62.20921	-71.84999	1	95.039	-49.11331	-6.769094E-006	-0.0001627	9
	10	34	30046.88	67.80173	-85.37524	1	109.023	-51.54475	1.905908E-005	-0.0005304	9
	11	36	23859.38	74.78228	-101.1653	1	125.8046	-53.52786	-4.708601E-006	0.0003368	9
	12	38	18984.38	83.0032	-120.4266	1	146.2604	-55.42371	1.184576E-005	-0.0003074	9
	13	41	15046.87	93.62603	-142.0984	1	170.1699	-56.61985	-9.232846E-007	-0.0003604	9
	14	43	11953.13	105.8676	-168.1265	1	198.6819	-57.80178	-9.09637E-006	0.0004222	9
	15	45	9515.62	120.2719	-199.1613	1	232.6597	-58.87255	1.826445E-005	-0.0005797	9
	16	48	7546.875	138.327	-235.1919	1	272.8545	-59.53829	1.04054E-005	-0.0006326	9
	17	50	5928.309	161.8972	-277.8849	1	321.6065	-59.77469	-1.5501E-005	0.0003193	9
	18	52	4733.456	187.2304	-325.8083	1	375.7742	-60.11556	-5.110854E-006	0.0003004	9
	19	55	3796.875	216.8346	-377.7246	1	435.5378	-60.14182	3.767831E-006	-0.0010546	8
	20	57	2987.132	256.2372	-444.138	1	512.7534	-60.018	-6.438079E-007	-0.0001631	8
	21	59	2390.625	298.5799	-516.2529	1	596.3782	-59.95664	1.199466E-006	3.147916E-005	8
	22	61	1884.191	353.8555	-603.4321	1	699.5313	-59.61243	-2.89908E-006	0.0006631	8
	23	64	1516.544	412.9269	-696.9378	1	810.0808	-59.35379	-2.561404E-006	0.0007035	8
	24	66	1193.986	490.2147	-814.249	1	950.427	-58.95016	-2.878674E-006	0.0006498	8
	25	69	946.5144	578.1173	-949.0007	1	1111.225	-58.65084	-2.564849E-006	0.0007958	8
	26	71	751.7689	687.3401	-1093.263	1	1291.379	-57.8422	1.371854E-006	-0.0007655	8
	27	73	597.4265	814.6198	-1261.589	1	1501.736	-57.14929	-1.897106E-006	0.0007807	8
	28	75	477.4305	964.307	-1445.04	1	1737.247	-56.28395	4.441488E-007	-0.0001141	8
	29	78	376.6741	1150.797	-1658.073	1	2018.302	-55.23714	4.441315E-007	-0.0001191	8
	30	80	298.2954	1368.043	-1889.853	1	2333.042	-54.09966	4.411109E-007	-0.0001146	8
	31	82	237.7717	1614.393	-2134.546	1	2676.295	-52.89917	4.458254E-007	-0.0001161	8
	32	85	189.0121	1904.318	-2402.479	1	3065.67	-51.59801	4.370955E-007	-0.0001129	8
	33	87	150.2404	2237.891	-2687.205	1	3497.031	-50.21264	4.414974E-007	-0.0001164	8
	34	90	119.1737	2625.956	-2989.132	1	3978.763	-48.70066	4.347742E-007	-0.0001072	8
	35	92	95.0169	3068.11	-3301.325	1	4506.889	-47.09694	1.05033E-008	-0.0001045	7
	36	95	75.60484	3548.146	-3618.358	1	5067.727	-45.56132	9.688144E-009	-0.0001007	7
	37	97	54.50582	4320.87	-4081.25	1	5943.611	-43.36643	9.972352E-009	-0.0001013	7
	38	100	45.95588	4760.837	-4323.548	1	6431.068	-42.24412	-6.969641E-009	-9.36518E-005	7
	39	102	37.20238	5333.585	-4627.5	1	7061.224	-40.94541	1.243443E-008	-0.0000961	7
	40	104	30.04808	5947.271	-4940.504	1	7731.663	-39.71701	1.761984E-008	-0.0001021	7
	41	107	23.91582	6632.624	-5291.696	1	8484.913	-38.58387	1.068416E-008	-0.0001011	7
	42	109	18.60119	7422.721	-5708.606	1	9364.025	-37.56287	-2.283344E-008	-9.415181E-005	7
	43	111	15.02404	8141.346	-6085.9	1	10164.63	-36.77921	-1.118584E-008	-0.0001045	7
	44	114	12.01923	8919.129	-6527.822	1	11052.75	-36.20003	-2.195829E-008	-0.0001035	7
	45	116	9.450605	9786.56	-7068.202	1	12072.13	-35.83815	-6.979215E-009	-9.348767E-005	7
	46	119	7.512019	10660.88	-7669.87	1	13133.21	-35.73277	-4.626946E-009	-0.0001133	7
	47	121	5.978954	11608	-8339.329	1	14293.01	-35.69393	1.346573E-008	-0.0001029	7
	48	124	4.734848	12656.52	-9164.251	1	15625.98	-35.90729	2.824931E-009	-0.0001035	7
	49	128	3.75601	13796.76	-10104.34	1	17101.12	-36.21795	1.496296E-008	-0.0000964	7
	50	131	3.004808	15016.65	-11160.67	1	18709.9	-36.62046	4.596284E-009	-9.417265E-005	7
	51	135	2.372217	16548.65	-12431.61	1	20697.89	-36.91445	1.810792E-008	-3.016298E-005	7
	52	139	1.878005	18273.66	-13853.79	1	22931.5	-37.16681	1.089797E-008	-0.000132	7
	53	144	1.512097	20144.92	-15269.55	1	25277.99	-37.16159	1.288655E-008	-5.361463E-005	7
	54	149	1.201923	22518.89	-16854.96	1	28128.11	-36.81416	1.586159E-008	-0.0001305	7
	55	155	0.956633	25257.61	-18392.18	1	31244.51	-36.0615	5.880964E-009	-0.0006501	7
