EXPLAIN
TAG	EISPOT
TITLE	LABEL	Potentiostatic EIS	Test Identifier
DATE	LABEL	11/20/2021	Date
TIME	LABEL	15:53:12	Time
NOTES	NOTES	1	Notes...
	
PSTAT	PSTAT	REF3000-16137	Potentiostat
VDC	POTEN	0.00000E+000	T	DC Voltage (V)
FREQINIT	QUANT	3.00000E+005	Initial Freq. (Hz)
FREQFINAL	QUANT	1.00000E+000	Final Freq. (Hz)
PTSPERDEC	QUANT	1.00000E+001	Points/decade
VAC	QUANT	5.00000E+001	AC Voltage (mV rms)
AREA	QUANT	1.00000E+000	Sample Area (cm^2)
SPEED	SELECTOR	2	Optimize for:
ZGUESS	QUANT	1.00000E+003	Estimated Z (ohms)
EOC	QUANT	0	Open Circuit (V)
SEQUENCER	TOGGLE	TRUE	Run as Sequence
PSTATMODEL	IQUANT	5	Pstat Model
PSTATSECTION	LABEL	REF3000-16137	Pstat Section
PSTATSERIALNO	LABEL	16137	Pstat Serial Number
CTRLMODE	IQUANT	1	Control Mode
IESTAB	IQUANT	0	I/E Stability
CASPEED	IQUANT	1	Control Amp Speed
CONVENTION	IQUANT	1	Current Convention
ICHRANGE	IQUANT	2	Ich Range
ICHRANGEMODE	TOGGLE	F	Ich Auto Range
ICHOFFSETENABLE	TOGGLE	T	Ich Offset Enable
ICHOFFSET	QUANT	0	Ich Offset (V)
ICHFILTER	IQUANT	3	Ich Filter
VCHRANGE	IQUANT	2	Vch Range
VCHRANGEMODE	TOGGLE	F	Vch Auto Range
VCHOFFSETENABLE	TOGGLE	T	Vch Offset Enable
VCHOFFSET	QUANT	0	Vch Offset (V)
VCHFILTER	IQUANT	3	Vch Filter
ACHRANGE	IQUANT	2	Ach Range
ACHOFFSETENABLE	TOGGLE	F	Ach Offset Enable
ACHOFFSET	QUANT	0	Ach Offset (V)
ACHFILTER	IQUANT	3	Ach Filter
IERANGELOWERLIMIT	IQUANT	2	I/E Range Lower Limit
IERANGEMODE	TOGGLE	F	I/E AutoRange
IERANGE	IQUANT	11	I/E Range
POSFEEDENABLE	TOGGLE	F	Positive Feedback IR Comp
POSFEEDRESISTANCE	QUANT	0	Positive Feedback Resistance (ohm)
ACHSELECT	IQUANT	0	Ach Select
CABLEID	IQUANT	13	Cable ID
DCCALDATE	LABEL	9/10/2021	DC Calibration Date
ACCALDATE	LABEL	9/10/2021	AC Calibration Date
THERMOSELECT	IQUANT	1	Thermo Select
FRAMEWORKVERSION	QUANT	6.33	Framework Version
INSTRUMENTVERSION	LABEL	3.50	Instrument Version
COMPLIANCEVOLTAGE	IQUANT	0	Compliance Voltage
ZCURVE	TABLE
	Pt	Time	Freq	Zreal	Zimag	Zsig	Zmod	Zphz	Idc	Vdc	IERange
	#	s	Hz	ohm	ohm	V	ohm	°	A	V	#
	0	7	300046.9	51.19334	-18.18296	1	54.32658	-19.55413	5.24042E-005	-0.0015079	9
	1	10	238359.4	52.42121	-22.33584	1	56.98134	-23.07808	-3.050965E-006	0.000099	9
	2	13	189328.1	54.22739	-27.03938	1	60.59487	-26.50221	5.13165E-006	-0.0010834	9
	3	16	150421.9	56.27013	-32.45359	1	64.95817	-29.97404	5.058468E-006	-0.0009252	9
	4	18	119484.4	58.71139	-38.80423	1	70.3761	-33.46198	4.698015E-005	-0.0010062	9
	5	21	94921.88	61.68431	-46.00478	1	76.9506	-36.71595	-6.180982E-006	-0.0002656	9
	6	23	75421.88	65.20823	-54.45582	1	84.95616	-39.86548	1.724317E-005	-0.0003946	9
	7	26	59859.37	69.37909	-64.68507	1	94.85577	-42.99471	1.238653E-005	-0.0002752	9
	8	28	47578.12	74.37876	-76.13412	1	106.4359	-45.66818	2.057255E-005	-0.0005474	9
	9	31	37828.12	80.58669	-89.79762	1	120.6558	-48.09438	1.132666E-005	-0.0007322	9
	10	34	30046.88	87.83381	-105.8038	1	137.5108	-50.302	7.142233E-006	2.760354E-005	9
	11	36	23859.38	96.5577	-125.1235	1	158.0483	-52.34266	1.216917E-005	-0.0002678	9
	12	38	18984.38	106.9703	-147.4117	1	182.1342	-54.03323	5.754845E-006	-5.078184E-005	9
	13	41	15046.87	119.8035	-173.3953	1	210.7577	-55.35836	-1.726102E-005	0.0003119	9
	14	43	11953.13	135.8058	-203.9766	1	245.0503	-56.34469	1.807705E-005	-0.0007655	9
	15	45	9515.62	153.9494	-238.9494	1	284.2486	-57.20728	-6.969663E-006	-0.0002248	9
	16	48	7546.875	177.7832	-278.6831	1	330.5619	-57.46455	1.131101E-005	-0.0007414	9
	17	50	5928.309	204.6424	-328.9296	1	387.3928	-58.11234	6.958165E-006	-3.267293E-005	9
	18	52	4733.456	236.7841	-381.2485	1	448.7952	-58.15659	2.351218E-006	-0.0012006	8
	19	55	3796.875	272.5171	-441.3871	1	518.7371	-58.30838	-2.388003E-006	0.0002555	8
	20	57	2987.132	320.0185	-515.9105	1	607.1041	-58.18874	1.651524E-006	1.31746E-005	8
	21	59	2390.625	371.4365	-596.1791	1	702.4205	-58.07592	-3.731646E-006	0.0008512	8
	22	61	1884.191	439.0592	-691.4471	1	819.0678	-57.58503	1.262266E-006	-0.0009299	8
	23	64	1516.544	507.5704	-792.6929	1	941.2703	-57.3681	3.163347E-006	-0.0013041	8
	24	66	1193.986	599.7086	-918.3785	1	1096.845	-56.85514	-6.961795E-007	0.0007127	8
	25	69	946.5144	708.6857	-1051.58	1	1268.091	-56.02299	-3.048583E-006	0.0006019	8
	26	71	751.7689	833.5417	-1214.229	1	1472.802	-55.53125	4.608849E-007	0.0003913	8
	27	73	597.4265	977.41	-1382.6	1	1693.196	-54.74212	-2.332898E-006	0.000974	8
	28	76	477.4305	1149.779	-1568.377	1	1944.685	-53.75483	3.61612E-007	-0.0001166	8
	29	78	376.6741	1358.423	-1780.713	1	2239.699	-52.66167	3.613169E-007	-0.0001224	8
	30	80	298.2954	1596.792	-2008.734	1	2566.078	-51.51796	3.647454E-007	-0.0001197	8
	31	82	237.7717	1863.601	-2247.633	1	2919.737	-50.33652	3.581953E-007	-0.0001257	8
	32	85	189.0121	2171.471	-2505.762	1	3315.74	-49.08809	3.551538E-007	-0.0001203	8
	33	87	150.2404	2521.735	-2778.817	1	3752.462	-47.77672	3.578544E-007	-0.0001185	8
	34	90	119.1737	2944.95	-3070.413	1	4254.429	-46.19484	-5.079037E-008	-0.0001042	7
	35	92	95.0169	3377.272	-3357.362	1	4762.126	-44.83062	-4.731027E-008	-0.0001076	7
	36	95	75.60484	3865.952	-3654.909	1	5320.146	-43.39264	-4.184743E-008	-0.0001057	7
	37	97	54.50582	4646.072	-4083.452	1	6185.513	-41.31237	-3.939859E-008	-0.0001091	7
	38	100	45.95588	5085.609	-4306.396	1	6663.968	-40.25728	-3.399255E-008	-0.0001009	7
	39	102	37.20238	5652.846	-4587.179	1	7279.896	-39.05869	-6.164749E-008	-0.0000964	7
	40	104	30.04808	6255.407	-4872.479	1	7929.134	-37.91584	-3.441011E-008	-0.0001057	7
	41	107	23.91582	6926.45	-5193.404	1	8657.202	-36.8623	-3.652072E-008	-0.000108	7
	42	109	18.60119	7696.849	-5582.328	1	9508.09	-35.95242	-1.604805E-008	-0.0001053	7
	43	111	15.02404	8381.197	-5931.344	1	10267.68	-35.28691	-5.063649E-008	-0.0001067	7
	44	114	12.01923	9131.397	-6342.637	1	11118.07	-34.78371	-7.33443E-008	-0.0001074	7
	45	116	9.450605	9967.06	-6856.869	1	12097.89	-34.52614	-6.038453E-008	-9.309725E-005	7
	46	119	7.512019	10797.63	-7430.894	1	13107.52	-34.53563	-6.392926E-008	-0.0001157	7
	47	121	5.978954	11704.62	-8091.675	1	14229.31	-34.657	-5.050595E-008	-0.0000967	7
	48	124	4.734848	12697.03	-8883.93	1	15496.42	-34.97992	-5.058873E-008	-0.0001295	7
	49	128	3.75601	13790.86	-9785.78	1	16910.04	-35.3589	-2.396036E-008	-8.640812E-005	7
	50	131	3.004808	14979.66	-10809.2	1	18472.38	-35.81392	-2.970512E-008	-0.0001002	7
	51	135	2.372217	16420.46	-12038.5	1	20360.68	-36.24664	-2.619275E-008	-0.0001252	7
	52	139	1.878005	18104.44	-13399.04	1	22523.43	-36.50503	-2.207259E-008	-0.0001168	7
	53	144	1.512097	19923.36	-14774.88	1	24803.98	-36.5601	-2.307586E-008	-1.380599E-005	7
	54	149	1.201923	22193.4	-16279.8	1	27524.15	-36.26162	-2.031194E-008	-0.0001097	7
	55	162	0.956633	24806.21	-17785.25	1	30523.16	-35.6393	-3.489941E-008	-0.0006535	7
