EXPLAIN
TAG	EISPOT
TITLE	LABEL	Potentiostatic EIS	Test Identifier
DATE	LABEL	11/20/2021	Date
TIME	LABEL	17:45:32	Time
NOTES	NOTES	1	Notes...
	
PSTAT	PSTAT	REF3000-16137	Potentiostat
VDC	POTEN	0.00000E+000	T	DC Voltage (V)
FREQINIT	QUANT	3.00000E+005	Initial Freq. (Hz)
FREQFINAL	QUANT	1.00000E+000	Final Freq. (Hz)
PTSPERDEC	QUANT	1.00000E+001	Points/decade
VAC	QUANT	5.00000E+001	AC Voltage (mV rms)
AREA	QUANT	1.00000E+000	Sample Area (cm^2)
SPEED	SELECTOR	2	Optimize for:
ZGUESS	QUANT	1.00000E+003	Estimated Z (ohms)
EOC	QUANT	0	Open Circuit (V)
SEQUENCER	TOGGLE	TRUE	Run as Sequence
PSTATMODEL	IQUANT	5	Pstat Model
PSTATSECTION	LABEL	REF3000-16137	Pstat Section
PSTATSERIALNO	LABEL	16137	Pstat Serial Number
CTRLMODE	IQUANT	1	Control Mode
IESTAB	IQUANT	0	I/E Stability
CASPEED	IQUANT	1	Control Amp Speed
CONVENTION	IQUANT	1	Current Convention
ICHRANGE	IQUANT	2	Ich Range
ICHRANGEMODE	TOGGLE	F	Ich Auto Range
ICHOFFSETENABLE	TOGGLE	T	Ich Offset Enable
ICHOFFSET	QUANT	0	Ich Offset (V)
ICHFILTER	IQUANT	3	Ich Filter
VCHRANGE	IQUANT	2	Vch Range
VCHRANGEMODE	TOGGLE	F	Vch Auto Range
VCHOFFSETENABLE	TOGGLE	T	Vch Offset Enable
VCHOFFSET	QUANT	0	Vch Offset (V)
VCHFILTER	IQUANT	3	Vch Filter
ACHRANGE	IQUANT	2	Ach Range
ACHOFFSETENABLE	TOGGLE	F	Ach Offset Enable
ACHOFFSET	QUANT	0	Ach Offset (V)
ACHFILTER	IQUANT	3	Ach Filter
IERANGELOWERLIMIT	IQUANT	2	I/E Range Lower Limit
IERANGEMODE	TOGGLE	F	I/E AutoRange
IERANGE	IQUANT	11	I/E Range
POSFEEDENABLE	TOGGLE	F	Positive Feedback IR Comp
POSFEEDRESISTANCE	QUANT	0	Positive Feedback Resistance (ohm)
ACHSELECT	IQUANT	0	Ach Select
CABLEID	IQUANT	13	Cable ID
DCCALDATE	LABEL	9/10/2021	DC Calibration Date
ACCALDATE	LABEL	9/10/2021	AC Calibration Date
THERMOSELECT	IQUANT	1	Thermo Select
FRAMEWORKVERSION	QUANT	6.33	Framework Version
INSTRUMENTVERSION	LABEL	3.50	Instrument Version
COMPLIANCEVOLTAGE	IQUANT	0	Compliance Voltage
ZCURVE	TABLE
	Pt	Time	Freq	Zreal	Zimag	Zsig	Zmod	Zphz	Idc	Vdc	IERange
	#	s	Hz	ohm	ohm	V	ohm	°	A	V	#
	0	18	300046.9	-49.84787	-4795.824	1	4796.083	-90.59551	-2.063136E-005	0.0011671	9
	1	32	238359.4	-11.28487	-5919.914	1	5919.924	-90.10922	-2.384732E-005	0.0012271	9
	2	53	189328.1	829.0413	-6530.969	1	6583.378	-82.76556	8.401475E-005	-0.0028727	9
	3	64	150421.9	-513.5961	-9607.5	1	9621.22	-93.05999	2.413578E-005	-0.0019765	9
	4	75	119484.4	207.0142	-11517.05	1	11518.91	-88.97025	4.973188E-005	-0.0001383	9
	5	87	94921.88	453.7394	-14727.3	1	14734.29	-88.23531	-2.638252E-005	0.0071264	8
	6	96	75421.88	452.9222	-17932.48	1	17938.2	-88.55318	-2.641902E-005	0.0090032	8
	7	104	59859.37	791.9635	-22812.1	1	22825.84	-88.01167	-2.39439E-005	0.0102377	8
	8	113	47578.12	4063.594	-29468.2	1	29747.06	-82.14857	8.324151E-007	-0.0199272	7
	9	120	37828.12	2024.159	-36024.46	1	36081.28	-86.78402	-1.057503E-005	-0.0003289	9
	10	129	30046.88	4782.984	-46094.07	1	46341.56	-84.07587	3.186334E-006	0.0061428	7
	11	136	23859.38	4787.58	-57098.98	1	57299.34	-85.20713	6.516475E-006	-0.0279791	7
	12	142	18984.38	4492.135	-71840.73	1	71981.04	-86.422	-1.305273E-006	0.0202652	7
	13	147	15046.87	5506.012	-89476.88	1	89646.13	-86.47871	7.499378E-006	-0.025703	7
	14	152	11953.13	-4872.195	-109113.7	1	109222.5	-92.5567	2.627679E-005	-0.0080859	8
	15	160	9515.62	18908.82	-143277.6	1	144519.9	-82.48193	9.219729E-006	0.0029738	8
	16	167	7546.875	2428.024	-176413.6	1	176430.3	-89.21147	3.176719E-006	-0.0248985	7
	17	174	5928.309	-13455.34	-199157.2	1	199611.2	-93.86511	7.552128E-006	-0.0200143	7
	18	179	4733.456	-1026.026	-287023.8	1	287025.6	-90.20481	5.015113E-006	-0.0273325	7
	19	184	3796.875	47759.33	-259923.5	1	264274.8	-79.58839	-2.386768E-005	0.0101543	8
	20	192	2987.132	291780.7	-240416.5	1	378068.9	-39.48727	6.570894E-006	-0.0081436	8
	21	201	2390.625	70431.43	-413104.1	1	419065.1	-80.32449	-4.889163E-006	0.0261188	7
	22	207	1884.191	84828.77	-632192.1	1	637858	-82.35759	-1.511776E-006	-0.0130291	7
	23	214	1516.544	79300.7	-855708.6	1	859375.3	-84.70538	-3.706889E-007	0.0243226	6
	24	219	1193.986	103578.8	-1071366	1	1076361	-84.47785	6.995161E-007	-0.0281254	6
	25	225	946.5144	112546.7	-1166823	1	1172238	-84.49054	-7.434425E-007	0.0177342	6
	26	229	751.7689	-55414.78	-1653972	1	1654900	-91.91892	7.606926E-007	-0.0243583	6
	27	232	597.4265	-354928.3	-2417208	1	2443127	-98.3533	6.274425E-007	-0.0093413	6
	28	236	477.4305	264043.4	-2712858	1	2725678	-84.4409	-1.191524E-008	-0.0001257	6
	29	242	376.6741	746455.5	-3493140	1	3572005	-77.93777	-1.298181E-009	-9.873032E-006	5
	30	246	298.2954	925346.7	-4329354	1	4427141	-77.93526	-1.252269E-009	-1.287379E-005	5
	31	249	237.7717	1106242	-5356874	1	5469906	-78.33193	-1.213313E-009	-0.0000996	5
	32	251	189.0121	1516136	-6630916	1	6802037	-77.1209	-1.235691E-009	-5.479043E-005	5
	33	254	150.2404	1907644	-8103312	1	8324829	-76.7529	-1.297858E-009	-5.650411E-006	5
	34	257	119.1737	1746455	-1.010349E+007	1	1.025332E+007	-80.19296	-1.298287E-009	-6.402689E-006	5
	35	260	95.0169	3978226	-1.223007E+007	1	1.286083E+007	-71.98121	-1.301943E-009	-8.903753E-007	5
	36	263	75.60484	5487155	-1.470089E+007	1	1.569156E+007	-69.53175	-1.275695E-009	-6.371841E-005	5
	37	266	54.50582	9089224	-1.89348E+007	1	2.100335E+007	-64.35772	-1.306844E-009	-1.32152E-005	5
	38	269	45.95588	1.456223E+007	-2.108974E+007	1	2.562881E+007	-55.37536	-1.159086E-010	0.0004148	4
	39	271	37.20238	1.849697E+007	-2.377071E+007	1	3.01195E+007	-52.11205	-1.043612E-010	0.0004724	4
	40	275	30.04808	2.264655E+007	-2.54145E+007	1	3.404061E+007	-48.29617	-1.281677E-010	0.0004639	4
	41	279	23.91582	2.673321E+007	-2.88741E+007	1	3.934944E+007	-47.2048	-1.30582E-009	-5.163171E-005	5
	42	283	18.60119	3.321646E+007	-2.987207E+007	1	4.467296E+007	-41.96553	-1.601286E-010	0.0004341	4
	43	287	15.02404	4.038852E+007	-2.843727E+007	1	4.939546E+007	-35.1491	-1.190497E-010	0.0004074	4
	44	290	12.01923	4.623261E+007	-2.722428E+007	1	5.365273E+007	-30.49189	-1.029784E-010	0.0004498	4
	45	294	9.450605	5.251203E+007	-2.608255E+007	1	5.863287E+007	-26.41344	-1.22373E-010	0.0004091	4
	46	298	7.512019	5.777358E+007	-2.414823E+007	1	6.261728E+007	-22.68397	-1.248347E-010	0.0004844	4
	47	302	5.978954	6.268278E+007	-2.246421E+007	1	6.658658E+007	-19.71663	-1.204399E-010	0.0004502	4
	48	308	4.734848	7.370305E+007	-1.416947E+007	1	7.505274E+007	-10.88238	1.054478E-012	-0.0001089	3
	49	313	3.75601	7.669338E+007	-1.343515E+007	1	7.786128E+007	-9.93625	-6.905713E-012	-9.470066E-005	3
	50	318	3.004808	8.03437E+007	-1.338485E+007	1	8.145099E+007	-9.458319	-1.009301E-011	-7.59851E-005	3
	51	325	2.372217	8.388758E+007	-1.345263E+007	1	8.49594E+007	-9.110665	-2.547666E-012	-3.15078E-005	3
	52	329	1.878005	8.727023E+007	-1.402987E+007	1	8.839078E+007	-9.132925	-1.151898E-011	-0.0001328	3
	53	334	1.512097	9.131541E+007	-1.504589E+007	1	9.254665E+007	-9.356462	-1.334999E-011	-4.974627E-005	3
	54	339	1.201923	9.608011E+007	-1.640706E+007	1	9.747091E+007	-9.6906	-6.068659E-012	-0.0001443	3
	55	345	0.956633	1.020981E+008	-1.841032E+007	1	1.037447E+008	-10.22172	-1.718191E-011	-0.0006551	3
