EXPLAIN
TAG	EISPOT
TITLE	LABEL	Potentiostatic EIS	Test Identifier
DATE	LABEL	9/11/2020	Date
TIME	LABEL	18:23:44	Time
NOTES	NOTES	1	Notes...
	
PSTAT	PSTAT	REF3000-16137	Potentiostat
VDC	POTEN	0.00000E+000	T	DC Voltage (V)
FREQINIT	QUANT	3.00000E+005	Initial Freq. (Hz)
FREQFINAL	QUANT	1.00000E+000	Final Freq. (Hz)
PTSPERDEC	QUANT	1.00000E+001	Points/decade
VAC	QUANT	5.00000E+001	AC Voltage (mV rms)
AREA	QUANT	1.00000E+000	Sample Area (cm^2)
SPEED	SELECTOR	2	Optimize for:
ZGUESS	QUANT	1.00000E+003	Estimated Z (ohms)
EOC	QUANT	0	Open Circuit (V)
SEQUENCER	TOGGLE	TRUE	Run as Sequence
PSTATMODEL	IQUANT	5	Pstat Model
PSTATSECTION	LABEL	REF3000-16137	Pstat Section
PSTATSERIALNO	LABEL	16137	Pstat Serial Number
CTRLMODE	IQUANT	1	Control Mode
IESTAB	IQUANT	0	I/E Stability
CASPEED	IQUANT	1	Control Amp Speed
CONVENTION	IQUANT	1	Current Convention
ICHRANGE	IQUANT	2	Ich Range
ICHRANGEMODE	TOGGLE	F	Ich Auto Range
ICHOFFSETENABLE	TOGGLE	T	Ich Offset Enable
ICHOFFSET	QUANT	0	Ich Offset (V)
ICHFILTER	IQUANT	3	Ich Filter
VCHRANGE	IQUANT	2	Vch Range
VCHRANGEMODE	TOGGLE	F	Vch Auto Range
VCHOFFSETENABLE	TOGGLE	T	Vch Offset Enable
VCHOFFSET	QUANT	0	Vch Offset (V)
VCHFILTER	IQUANT	3	Vch Filter
ACHRANGE	IQUANT	2	Ach Range
ACHOFFSETENABLE	TOGGLE	F	Ach Offset Enable
ACHOFFSET	QUANT	0	Ach Offset (V)
ACHFILTER	IQUANT	3	Ach Filter
IERANGELOWERLIMIT	IQUANT	2	I/E Range Lower Limit
IERANGEMODE	TOGGLE	F	I/E AutoRange
IERANGE	IQUANT	11	I/E Range
POSFEEDENABLE	TOGGLE	F	Positive Feedback IR Comp
POSFEEDRESISTANCE	QUANT	0	Positive Feedback Resistance (ohm)
ACHSELECT	IQUANT	0	Ach Select
CABLEID	IQUANT	13	Cable ID
DCCALDATE	LABEL	7/31/2020	DC Calibration Date
ACCALDATE	LABEL	7/31/2020	AC Calibration Date
THERMOSELECT	IQUANT	1	Thermo Select
FRAMEWORKVERSION	QUANT	6.33	Framework Version
INSTRUMENTVERSION	LABEL	3.50	Instrument Version
COMPLIANCEVOLTAGE	IQUANT	0	Compliance Voltage
ZCURVE	TABLE
	Pt	Time	Freq	Zreal	Zimag	Zsig	Zmod	Zphz	Idc	Vdc	IERange
	#	s	Hz	ohm	ohm	V	ohm	°	A	V	#
	0	11	300046.9	130.5934	5.82077	1	130.7231	2.55208	0.0001582	0.0075224	9
	1	15	238359.4	127.8023	4.068281	1	127.867	1.823259	2.759051E-005	-0.0122955	9
	2	20	189328.1	127.9221	3.347621	1	127.9658	1.499044	-0.000205	-0.0059686	9
	3	27	150421.9	128.9983	1.96179	1	129.0132	0.8712801	3.18192E-005	0.0101838	9
	4	33	119484.4	130.5054	1.16206	1	130.5106	0.5101654	3.175638E-005	-0.0118291	9
	5	37	94921.88	131.2293	1.311598	1	131.2358	0.5726355	-0.0002207	0.0050751	9
	6	40	75421.88	132.0105	0.7727357	1	132.0128	0.3353822	-8.812008E-005	-0.0021801	9
	7	43	59859.37	132.5294	0.104867	1	132.5295	0.0453366	0.0002373	-0.0054963	9
	8	46	47578.12	133.4597	0.1566898	1	133.4597	0.0672687	0.0001278	-0.0079876	9
	9	49	37828.12	134.6816	0.0064005	1	134.6816	0.0027229	-7.81059E-005	-0.0025891	9
	10	55	30046.88	135.69	-0.330029	1	135.6904	-0.1393561	0.0002354	-0.0070693	9
	11	58	23859.38	136.6446	-0.3501799	1	136.6451	-0.1468319	0.0002315	-0.0053401	9
	12	62	18984.38	137.9045	-0.4640498	1	137.9053	-0.1928	0.0001233	-0.0078177	9
	13	66	15046.87	139.3798	-0.4040687	1	139.3803	-0.1661028	7.472904E-005	0.0029137	9
	14	69	11953.13	139.8851	-0.9111547	1	139.888	-0.3731962	-0.0002276	0.0067916	9
	15	72	9515.62	140.7486	-0.7869253	1	140.7508	-0.3203373	-0.0001389	0.0083835	9
	16	75	7546.875	141.6604	-1.296345	1	141.6663	-0.5243034	0.0002336	-0.0054387	9
	17	78	5928.309	142.4227	-1.443234	1	142.43	-0.5805842	-7.226218E-005	0.0072775	9
	18	82	4733.456	143.6852	-2.152855	1	143.7013	-0.8584065	-0.0001471	0.0001636	9
	19	86	3796.875	144.6529	-2.538725	1	144.6752	-1.005464	0.0002198	-0.0080594	9
	20	89	2987.132	146.014	-3.254963	1	146.0503	-1.277034	-0.0002226	0.0050522	9
	21	93	2390.625	146.7813	-4.186465	1	146.841	-1.633735	6.048449E-005	-0.0068719	9
	22	96	1884.191	148.3793	-4.72752	1	148.4546	-1.824886	0.0002364	-0.0054801	9
	23	100	1516.544	149.5021	-5.924324	1	149.6194	-2.269274	-8.515943E-005	-0.0025146	9
	24	104	1193.986	150.6277	-7.790375	1	150.8291	-2.960665	-8.38174E-005	-0.002559	9
	25	108	946.5144	152.5298	-9.68171	1	152.8368	-3.631931	7.157719E-005	0.0031774	9
	26	110	751.7689	152.6838	-11.43583	1	153.1115	-4.283387	6.623939E-006	0.0053561	9
	27	113	597.4265	154.2819	-14.53607	1	154.9652	-5.382382	0.0001932	-0.0087665	9
	28	116	477.4305	155.2423	-17.59974	1	156.2367	-6.467978	4.370137E-007	3.770791E-005	9
	29	118	376.6741	156.3988	-21.99457	1	157.9378	-8.005084	4.51943E-007	2.861074E-005	9
	30	120	298.2954	157.6723	-27.39783	1	160.0349	-9.85754	1.292267E-007	6.757717E-005	9
	31	123	237.7717	159.0749	-33.92482	1	162.6521	-12.03873	3.051545E-007	6.171034E-005	9
	32	125	189.0121	160.6685	-42.11807	1	166.0973	-14.68915	3.879185E-007	3.655854E-005	9
	33	128	150.2404	162.4936	-52.28657	1	170.6988	-17.83693	4.675029E-007	3.521426E-005	9
	34	130	119.1737	164.633	-65.02005	1	177.0074	-21.55101	3.014993E-007	6.095303E-005	9
	35	132	95.0169	167.1115	-80.45033	1	185.4683	-25.70696	9.356507E-008	4.23913E-005	9
	36	135	75.60484	170.1319	-99.6774	1	197.1812	-30.3653	-3.046536E-008	6.617321E-005	9
	37	137	54.50582	175.2641	-135.3471	1	221.4415	-37.677	5.142297E-008	4.884374E-005	9
	38	140	45.95588	178.9948	-158.6859	1	239.2077	-41.55824	4.674634E-007	3.922098E-005	9
	39	142	37.20238	184.2504	-193.1706	1	266.9514	-46.35391	3.401264E-007	3.109976E-005	9
	40	145	30.04808	190.7265	-235.5196	1	303.0612	-50.99904	7.566938E-008	4.862527E-005	9
	41	147	23.91582	199.2333	-290.9035	1	352.5887	-55.59364	4.448602E-007	2.946294E-005	9
	42	149	18.60119	210.3853	-365.9175	1	422.0872	-60.10313	-2.928983E-007	0.000678	8
	43	152	15.02404	223.1804	-445.3864	1	498.1752	-63.38483	-2.535128E-007	0.0006248	8
	44	154	12.01923	239.724	-546.2566	1	596.5433	-66.30579	-1.677639E-007	0.0005699	8
	45	156	9.450605	262.0523	-679.6903	1	728.4575	-68.91602	-1.416593E-007	0.0005702	8
	46	159	7.512019	289.8185	-837.6776	1	886.3963	-70.91547	-1.560456E-007	0.0005795	8
	47	162	5.978954	323.5868	-1029.299	1	1078.965	-72.54812	-1.423882E-007	0.0006224	8
	48	165	4.734848	366.8679	-1271.363	1	1323.236	-73.90383	-1.914622E-007	0.0005779	8
	49	168	3.75601	420.4494	-1563.237	1	1618.792	-74.94594	-2.299365E-007	0.0006694	8
	50	171	3.004808	483.7586	-1908.011	1	1968.383	-75.77298	-1.853158E-007	0.0005768	8
	51	175	2.372217	568.0729	-2360.231	1	2427.632	-76.46715	-1.873543E-007	0.000543	8
	52	179	1.878005	666.9962	-2911.536	1	2986.959	-77.09691	-1.546588E-007	0.0006253	8
	53	184	1.512097	786.1716	-3529.183	1	3615.688	-77.44167	-1.865595E-007	0.0005666	8
	54	190	1.201923	946.8501	-4385.379	1	4486.432	-77.81625	-3.947698E-008	0.0006175	7
	55	196	0.956633	1142.833	-5383.571	1	5503.536	-78.01508	-5.58114E-008	-3.544966E-005	7
