EXPLAIN
TAG	EISPOT
TITLE	LABEL	Potentiostatic EIS	Test Identifier
DATE	LABEL	9/11/2020	Date
TIME	LABEL	17:38:47	Time
NOTES	NOTES	1	Notes...
	
PSTAT	PSTAT	REF3000-16137	Potentiostat
VDC	POTEN	0.00000E+000	T	DC Voltage (V)
FREQINIT	QUANT	3.00000E+005	Initial Freq. (Hz)
FREQFINAL	QUANT	1.00000E+000	Final Freq. (Hz)
PTSPERDEC	QUANT	1.00000E+001	Points/decade
VAC	QUANT	5.00000E+001	AC Voltage (mV rms)
AREA	QUANT	1.00000E+000	Sample Area (cm^2)
SPEED	SELECTOR	2	Optimize for:
ZGUESS	QUANT	1.00000E+003	Estimated Z (ohms)
EOC	QUANT	0	Open Circuit (V)
SEQUENCER	TOGGLE	TRUE	Run as Sequence
PSTATMODEL	IQUANT	5	Pstat Model
PSTATSECTION	LABEL	REF3000-16137	Pstat Section
PSTATSERIALNO	LABEL	16137	Pstat Serial Number
CTRLMODE	IQUANT	1	Control Mode
IESTAB	IQUANT	0	I/E Stability
CASPEED	IQUANT	1	Control Amp Speed
CONVENTION	IQUANT	1	Current Convention
ICHRANGE	IQUANT	2	Ich Range
ICHRANGEMODE	TOGGLE	F	Ich Auto Range
ICHOFFSETENABLE	TOGGLE	T	Ich Offset Enable
ICHOFFSET	QUANT	0	Ich Offset (V)
ICHFILTER	IQUANT	3	Ich Filter
VCHRANGE	IQUANT	2	Vch Range
VCHRANGEMODE	TOGGLE	F	Vch Auto Range
VCHOFFSETENABLE	TOGGLE	T	Vch Offset Enable
VCHOFFSET	QUANT	0	Vch Offset (V)
VCHFILTER	IQUANT	3	Vch Filter
ACHRANGE	IQUANT	2	Ach Range
ACHOFFSETENABLE	TOGGLE	F	Ach Offset Enable
ACHOFFSET	QUANT	0	Ach Offset (V)
ACHFILTER	IQUANT	3	Ach Filter
IERANGELOWERLIMIT	IQUANT	2	I/E Range Lower Limit
IERANGEMODE	TOGGLE	F	I/E AutoRange
IERANGE	IQUANT	11	I/E Range
POSFEEDENABLE	TOGGLE	F	Positive Feedback IR Comp
POSFEEDRESISTANCE	QUANT	0	Positive Feedback Resistance (ohm)
ACHSELECT	IQUANT	0	Ach Select
CABLEID	IQUANT	13	Cable ID
DCCALDATE	LABEL	7/31/2020	DC Calibration Date
ACCALDATE	LABEL	7/31/2020	AC Calibration Date
THERMOSELECT	IQUANT	1	Thermo Select
FRAMEWORKVERSION	QUANT	6.33	Framework Version
INSTRUMENTVERSION	LABEL	3.50	Instrument Version
COMPLIANCEVOLTAGE	IQUANT	0	Compliance Voltage
ZCURVE	TABLE
	Pt	Time	Freq	Zreal	Zimag	Zsig	Zmod	Zphz	Idc	Vdc	IERange
	#	s	Hz	ohm	ohm	V	ohm	°	A	V	#
	0	10	300046.9	5.811965	2.297982	1	6.249773	21.57326	-1.744135E-005	-0.0004464	10
	1	13	238359.4	5.773211	1.822758	1	6.054124	17.52231	-0.0004878	0.0013664	10
	2	16	189328.1	5.756233	1.436017	1	5.932652	14.00775	1.182685E-005	0.0006297	10
	3	19	150421.9	5.767889	1.131927	1	5.877907	11.10298	0.0002077	0.0004661	10
	4	21	119484.4	5.760087	0.8668683	1	5.824951	8.55854	-4.797457E-005	-9.884416E-006	10
	5	24	94921.88	5.764896	0.6827851	1	5.80519	6.754554	0.0001889	8.568182E-005	10
	6	26	75421.88	5.76806	0.5030198	1	5.789952	4.984029	-0.0000957	0.0009778	10
	7	29	59859.37	5.77588	0.3493566	1	5.786436	3.461343	-0.0001106	0.0010545	10
	8	32	47578.12	5.78426	0.2157626	1	5.788283	2.136238	-1.947979E-006	0.0003215	10
	9	34	37828.12	5.796955	0.0966465	1	5.79776	0.955143	-0.0001799	0.0009549	10
	10	37	30046.88	5.809963	-0.0165816	1	5.809987	-0.1635217	0.0001069	0.0001627	10
	11	39	23859.38	5.822295	-0.1281494	1	5.823705	-1.260883	0.0001453	0.0001242	10
	12	41	18984.38	5.838377	-0.2417525	1	5.84338	-2.371119	5.487277E-005	0.0007809	10
	13	44	15046.87	5.855299	-0.3691614	1	5.866925	-3.607575	-0.0001118	0.0011789	10
	14	46	11953.13	5.870064	-0.5138147	1	5.892509	-5.002428	0.0001891	0.0002548	10
	15	48	9515.62	5.892363	-0.6805826	1	5.931537	-6.588611	-6.733218E-005	0.0005217	10
	16	51	7546.875	5.915241	-0.8789662	1	5.980189	-8.451935	4.259566E-005	0.0003279	10
	17	53	5928.309	5.947048	-1.135026	1	6.054392	-10.80526	-6.170837E-005	0.0010324	10
	18	55	4733.456	5.978872	-1.426503	1	6.146692	-13.41936	4.777175E-005	0.0002632	10
	19	58	3796.875	6.018372	-1.772307	1	6.273904	-16.40879	-0.0001205	0.0010969	10
	20	60	2987.132	6.0709	-2.238864	1	6.470575	-20.24327	-0.0001576	0.0011526	10
	21	62	2390.625	6.132786	-2.773384	1	6.73073	-24.33355	8.143386E-005	0.0006159	10
	22	64	1884.191	6.211679	-3.485346	1	7.122682	-29.29659	0.0001534	0.0004222	10
	23	67	1516.544	6.309588	-4.279056	1	7.623727	-34.14446	0.0001456	0.0001354	10
	24	69	1193.986	6.436583	-5.363603	1	8.378415	-39.80444	-1.18643E-005	0.00095	10
	25	72	946.5144	6.600387	-6.677733	1	9.389208	-45.33375	-0.00018	0.0011175	10
	26	74	751.7689	6.812541	-8.276114	1	10.71936	-50.54025	-0.0001739	0.0010163	10
	27	76	597.4265	7.083733	-10.25721	1	12.46553	-55.37064	0.0000979	0.0001937	10
	28	79	477.4305	7.420701	-12.63539	1	14.65332	-59.5745	-3.027694E-006	0.0006583	10
	29	81	376.6741	7.883847	-15.72979	1	17.59492	-63.37975	-3.598862E-006	0.0006577	10
	30	83	298.2954	8.471488	-19.49148	1	21.25286	-66.50903	-3.271697E-006	0.0006625	10
	31	86	237.7717	9.200216	-23.98074	1	25.68502	-69.01068	-3.060549E-006	0.0006569	10
	32	88	189.0121	10.13049	-29.54725	1	31.23566	-71.07536	-3.40238E-006	0.0006591	10
	33	90	150.2404	11.29328	-36.36622	1	38.0794	-72.74818	-2.960275E-006	0.0006562	10
	34	93	119.1737	12.7433	-44.76139	1	46.54002	-74.10867	1.728022E-007	5.394115E-005	9
	35	95	95.0169	14.52081	-54.882	1	56.77048	-75.18013	1.013233E-007	5.511476E-005	9
	36	98	75.60484	16.75569	-67.40376	1	69.45517	-76.03999	2.445103E-008	5.254841E-005	9
	37	100	54.50582	20.99821	-90.44762	1	92.85309	-76.92982	-1.731674E-007	5.511342E-005	9
	38	103	45.95588	23.87507	-105.4443	1	108.1134	-77.242	7.788531E-008	5.735318E-005	9
	39	105	37.20238	28.26024	-127.4432	1	130.5389	-77.4971	7.182891E-008	5.608985E-005	9
	40	107	30.04808	33.95581	-154.3197	1	158.0113	-77.59064	5.711393E-007	-5.345187E-006	9
	41	110	23.91582	41.77043	-189.0083	1	193.5689	-77.53806	1.251657E-009	5.16501E-005	9
	42	112	18.60119	53.23241	-236.0749	1	242.0022	-77.29292	3.993442E-007	4.572858E-005	9
	43	114	15.02404	65.91563	-284.5853	1	292.1192	-76.95911	6.695841E-008	5.558501E-005	9
	44	117	12.01923	83.07253	-345.167	1	355.0229	-76.46779	2.841552E-007	5.624907E-005	9
	45	119	9.450605	106.3454	-421.8809	1	435.0779	-75.85194	-1.223447E-007	0.0006412	8
	46	122	7.512019	135.0995	-511.3997	1	528.9437	-75.2019	-5.911398E-008	0.0006197	8
	47	124	5.978954	171.0584	-617.7722	1	641.0176	-74.52282	-4.354367E-009	0.000638	8
	48	127	4.734848	216.9038	-747.7382	1	778.5626	-73.82362	-4.251111E-008	0.0006143	8
	49	131	3.75601	274.0557	-901.4188	1	942.1583	-73.08931	8.59489E-008	0.0006578	8
	50	134	3.004808	341.9186	-1077.672	1	1130.613	-72.39705	4.388407E-008	0.0006387	8
	51	138	2.372217	434.1026	-1299.82	1	1370.393	-71.53216	4.411616E-009	0.0005879	8
	52	142	1.878005	547.914	-1567.656	1	1660.649	-70.73489	8.048186E-008	0.0006246	8
	53	147	1.512097	678.4493	-1858.569	1	1978.528	-69.94597	2.597149E-008	0.0006916	8
	54	152	1.201923	864.3375	-2226.154	1	2388.063	-68.78056	6.925943E-008	0.0006384	8
	55	158	0.956633	1100.127	-2652.19	1	2871.305	-67.47135	-3.691132E-008	-2.072115E-007	8
