EXPLAIN
TAG	EISPOT
TITLE	LABEL	Potentiostatic EIS	Test Identifier
DATE	LABEL	9/11/2020	Date
TIME	LABEL	17:35:59	Time
NOTES	NOTES	1	Notes...
	
PSTAT	PSTAT	REF3000-16137	Potentiostat
VDC	POTEN	0.00000E+000	T	DC Voltage (V)
FREQINIT	QUANT	3.00000E+005	Initial Freq. (Hz)
FREQFINAL	QUANT	1.00000E+000	Final Freq. (Hz)
PTSPERDEC	QUANT	1.00000E+001	Points/decade
VAC	QUANT	5.00000E+001	AC Voltage (mV rms)
AREA	QUANT	1.00000E+000	Sample Area (cm^2)
SPEED	SELECTOR	2	Optimize for:
ZGUESS	QUANT	1.00000E+003	Estimated Z (ohms)
EOC	QUANT	0	Open Circuit (V)
SEQUENCER	TOGGLE	TRUE	Run as Sequence
PSTATMODEL	IQUANT	5	Pstat Model
PSTATSECTION	LABEL	REF3000-16137	Pstat Section
PSTATSERIALNO	LABEL	16137	Pstat Serial Number
CTRLMODE	IQUANT	1	Control Mode
IESTAB	IQUANT	0	I/E Stability
CASPEED	IQUANT	1	Control Amp Speed
CONVENTION	IQUANT	1	Current Convention
ICHRANGE	IQUANT	2	Ich Range
ICHRANGEMODE	TOGGLE	F	Ich Auto Range
ICHOFFSETENABLE	TOGGLE	T	Ich Offset Enable
ICHOFFSET	QUANT	0	Ich Offset (V)
ICHFILTER	IQUANT	3	Ich Filter
VCHRANGE	IQUANT	2	Vch Range
VCHRANGEMODE	TOGGLE	F	Vch Auto Range
VCHOFFSETENABLE	TOGGLE	T	Vch Offset Enable
VCHOFFSET	QUANT	0	Vch Offset (V)
VCHFILTER	IQUANT	3	Vch Filter
ACHRANGE	IQUANT	2	Ach Range
ACHOFFSETENABLE	TOGGLE	F	Ach Offset Enable
ACHOFFSET	QUANT	0	Ach Offset (V)
ACHFILTER	IQUANT	3	Ach Filter
IERANGELOWERLIMIT	IQUANT	2	I/E Range Lower Limit
IERANGEMODE	TOGGLE	F	I/E AutoRange
IERANGE	IQUANT	11	I/E Range
POSFEEDENABLE	TOGGLE	F	Positive Feedback IR Comp
POSFEEDRESISTANCE	QUANT	0	Positive Feedback Resistance (ohm)
ACHSELECT	IQUANT	0	Ach Select
CABLEID	IQUANT	13	Cable ID
DCCALDATE	LABEL	7/31/2020	DC Calibration Date
ACCALDATE	LABEL	7/31/2020	AC Calibration Date
THERMOSELECT	IQUANT	1	Thermo Select
FRAMEWORKVERSION	QUANT	6.33	Framework Version
INSTRUMENTVERSION	LABEL	3.50	Instrument Version
COMPLIANCEVOLTAGE	IQUANT	0	Compliance Voltage
ZCURVE	TABLE
	Pt	Time	Freq	Zreal	Zimag	Zsig	Zmod	Zphz	Idc	Vdc	IERange
	#	s	Hz	ohm	ohm	V	ohm	°	A	V	#
	0	10	300046.9	5.282082	2.290021	1	5.757133	23.43891	0.0004952	-0.0010621	10
	1	13	238359.4	5.258605	1.829165	1	5.567655	19.17984	-0.0004806	0.0012511	10
	2	17	189328.1	5.242691	1.439575	1	5.436744	15.35426	-0.0002177	0.0001035	10
	3	19	150421.9	5.229953	1.122787	1	5.349117	12.11658	-0.000269	0.0012994	10
	4	22	119484.4	5.234238	0.8681031	1	5.305737	9.41684	0.0004082	-0.0009587	10
	5	24	94921.88	5.241784	0.6828721	1	5.286077	7.422392	-0.0001663	0.0008364	10
	6	27	75421.88	5.243458	0.5037034	1	5.267596	5.487179	5.850528E-005	0.0001593	10
	7	29	59859.37	5.248314	0.3509846	1	5.260037	3.825997	4.262577E-005	0.0006511	10
	8	32	47578.12	5.256908	0.219065	1	5.261471	2.38624	-0.0001768	0.0010185	10
	9	34	37828.12	5.265602	0.0998337	1	5.266548	1.086175	0.0001531	0.0003518	10
	10	37	30046.88	5.279883	-0.0116748	1	5.279896	-0.1266913	-0.0001099	0.0010693	10
	11	39	23859.38	5.291934	-0.1226512	1	5.293355	-1.327707	-1.08914E-005	0.0009235	10
	12	42	18984.38	5.304208	-0.2361926	1	5.309464	-2.549656	-0.0001261	0.0010625	10
	13	44	15046.87	5.319303	-0.3604603	1	5.331502	-3.876697	-6.640796E-005	0.0010402	10
	14	46	11953.13	5.336492	-0.5044385	1	5.360281	-5.399909	-0.0001761	0.0009786	10
	15	49	9515.62	5.353469	-0.6699296	1	5.395224	-7.132877	-0.0001815	0.0009656	10
	16	51	7546.875	5.375944	-0.8694991	1	5.445806	-9.187394	0.0001088	0.0002027	10
	17	53	5928.309	5.405302	-1.120635	1	5.520246	-11.71272	-0.0001112	0.0006894	10
	18	55	4733.456	5.435686	-1.408795	1	5.615281	-14.52994	-5.32091E-005	0.0005165	10
	19	58	3796.875	5.476808	-1.750432	1	5.749734	-17.7243	-0.0001547	0.0010732	10
	20	60	2987.132	5.525252	-2.209289	1	5.950577	-21.79415	-0.0001163	0.0010877	10
	21	62	2390.625	5.584719	-2.739191	1	6.220309	-26.12701	-0.0001572	0.0008355	10
	22	65	1884.191	5.66817	-3.434241	1	6.62738	-31.2109	-5.873597E-005	0.0005206	10
	23	67	1516.544	5.75849	-4.219831	1	7.13913	-36.23402	-5.276303E-005	0.0005131	10
	24	69	1193.986	5.888284	-5.290403	1	7.915823	-41.93851	5.443367E-005	0.0002887	10
	25	72	946.5144	6.051099	-6.588201	1	8.9454	-47.4333	0.0001721	0.0001932	10
	26	74	751.7689	6.260453	-8.170495	1	10.29321	-52.53969	-0.0001574	0.0008596	10
	27	76	597.4265	6.535389	-10.11289	1	12.04084	-57.12771	0.0001809	0.0003136	10
	28	79	477.4305	6.874615	-12.45114	1	14.22291	-61.09571	-3.967727E-006	0.0006517	10
	29	81	376.6741	7.33979	-15.49229	1	17.14303	-64.64979	-3.981639E-006	0.0006552	10
	30	83	298.2954	7.927407	-19.18602	1	20.75926	-67.55024	-3.211785E-006	0.0006559	10
	31	86	237.7717	8.65294	-23.59128	1	25.12811	-69.8577	-3.120255E-006	0.0006565	10
	32	88	189.0121	9.57741	-29.05355	1	30.59143	-71.75536	-2.870015E-006	0.000658	10
	33	91	150.2404	10.72997	-35.74525	1	37.32098	-73.29136	-2.794004E-006	0.0006584	10
	34	93	119.1737	12.1659	-43.99026	1	45.64156	-74.54075	4.14968E-007	1.793492E-006	9
	35	95	95.0169	13.92794	-53.9262	1	55.6958	-75.51825	-8.962232E-008	5.348525E-005	9
	36	98	75.60484	16.15577	-66.22872	1	68.17076	-76.29106	-7.709991E-008	4.900948E-005	9
	37	100	54.50582	20.41732	-88.87106	1	91.18626	-77.06134	-2.855613E-007	5.161693E-005	9
	38	103	45.95588	23.32628	-103.5833	1	106.1773	-77.30907	2.601342E-008	5.400963E-005	9
	39	105	37.20238	27.78951	-125.1544	1	128.2025	-77.48104	-1.250283E-007	5.841376E-005	9
	40	108	30.04808	33.5527	-151.4289	1	155.1016	-77.50659	-2.629083E-007	6.369057E-005	9
	41	110	23.91582	41.6367	-185.544	1	190.1584	-77.35216	-1.94358E-007	5.097849E-005	9
	42	112	18.60119	53.27538	-231.2271	1	237.2851	-77.02531	2.108543E-009	5.498587E-005	9
	43	115	15.02404	66.25919	-278.463	1	286.2375	-76.61559	1.3181E-007	7.131387E-005	9
	44	117	12.01923	83.55849	-337.1522	1	347.3523	-76.08051	-7.529509E-008	5.84107E-005	9
	45	119	9.450605	107.7062	-413.1352	1	426.9441	-75.38798	-1.742372E-007	5.467356E-005	9
	46	122	7.512019	136.0557	-498.0275	1	516.2775	-74.72025	-8.155346E-008	0.0006208	8
	47	125	5.978954	172.2625	-600.3539	1	624.5792	-73.98997	-3.459163E-008	0.0006358	8
	48	128	4.734848	218.562	-725.1898	1	757.4098	-73.22793	-1.054614E-007	0.0006126	8
	49	131	3.75601	276.1102	-873.6834	1	916.2748	-72.4619	-3.153421E-008	0.0006523	8
	50	134	3.004808	344.9151	-1043.086	1	1098.633	-71.7026	-2.750414E-009	0.0006065	8
	51	138	2.372217	438.6226	-1257.521	1	1331.821	-70.77126	-6.596839E-008	0.0005716	8
	52	142	1.878005	554.4102	-1512.944	1	1611.326	-69.87491	1.403364E-008	0.000634	8
	53	147	1.512097	690.3232	-1787.197	1	1915.886	-68.88043	-5.166057E-008	0.0006353	8
	54	152	1.201923	883.1364	-2137.306	1	2312.576	-67.54955	-6.173788E-010	0.0006514	8
	55	159	0.956633	1130.902	-2535.584	1	2776.351	-65.96254	-1.218461E-007	-6.540454E-006	8
