EXPLAIN
TAG	EISPOT
TITLE	LABEL	Potentiostatic EIS	Test Identifier
DATE	LABEL	9/11/2020	Date
TIME	LABEL	17:22:00	Time
NOTES	NOTES	1	Notes...
	
PSTAT	PSTAT	REF3000-16137	Potentiostat
VDC	POTEN	0.00000E+000	T	DC Voltage (V)
FREQINIT	QUANT	3.00000E+005	Initial Freq. (Hz)
FREQFINAL	QUANT	1.00000E+000	Final Freq. (Hz)
PTSPERDEC	QUANT	1.00000E+001	Points/decade
VAC	QUANT	5.00000E+001	AC Voltage (mV rms)
AREA	QUANT	1.00000E+000	Sample Area (cm^2)
SPEED	SELECTOR	2	Optimize for:
ZGUESS	QUANT	1.00000E+003	Estimated Z (ohms)
EOC	QUANT	0	Open Circuit (V)
SEQUENCER	TOGGLE	TRUE	Run as Sequence
PSTATMODEL	IQUANT	5	Pstat Model
PSTATSECTION	LABEL	REF3000-16137	Pstat Section
PSTATSERIALNO	LABEL	16137	Pstat Serial Number
CTRLMODE	IQUANT	1	Control Mode
IESTAB	IQUANT	0	I/E Stability
CASPEED	IQUANT	1	Control Amp Speed
CONVENTION	IQUANT	1	Current Convention
ICHRANGE	IQUANT	2	Ich Range
ICHRANGEMODE	TOGGLE	F	Ich Auto Range
ICHOFFSETENABLE	TOGGLE	T	Ich Offset Enable
ICHOFFSET	QUANT	0	Ich Offset (V)
ICHFILTER	IQUANT	3	Ich Filter
VCHRANGE	IQUANT	2	Vch Range
VCHRANGEMODE	TOGGLE	F	Vch Auto Range
VCHOFFSETENABLE	TOGGLE	T	Vch Offset Enable
VCHOFFSET	QUANT	0	Vch Offset (V)
VCHFILTER	IQUANT	3	Vch Filter
ACHRANGE	IQUANT	2	Ach Range
ACHOFFSETENABLE	TOGGLE	F	Ach Offset Enable
ACHOFFSET	QUANT	0	Ach Offset (V)
ACHFILTER	IQUANT	3	Ach Filter
IERANGELOWERLIMIT	IQUANT	2	I/E Range Lower Limit
IERANGEMODE	TOGGLE	F	I/E AutoRange
IERANGE	IQUANT	11	I/E Range
POSFEEDENABLE	TOGGLE	F	Positive Feedback IR Comp
POSFEEDRESISTANCE	QUANT	0	Positive Feedback Resistance (ohm)
ACHSELECT	IQUANT	0	Ach Select
CABLEID	IQUANT	13	Cable ID
DCCALDATE	LABEL	7/31/2020	DC Calibration Date
ACCALDATE	LABEL	7/31/2020	AC Calibration Date
THERMOSELECT	IQUANT	1	Thermo Select
FRAMEWORKVERSION	QUANT	6.33	Framework Version
INSTRUMENTVERSION	LABEL	3.50	Instrument Version
COMPLIANCEVOLTAGE	IQUANT	0	Compliance Voltage
ZCURVE	TABLE
	Pt	Time	Freq	Zreal	Zimag	Zsig	Zmod	Zphz	Idc	Vdc	IERange
	#	s	Hz	ohm	ohm	V	ohm	°	A	V	#
	0	10	300046.9	3.682798	2.302527	1	4.343343	32.01409	0.0001784	-7.846381E-005	10
	1	13	238359.4	3.665693	1.820287	1	4.092768	26.40779	0.0001154	-0.000913	10
	2	16	189328.1	3.646302	1.437722	1	3.919511	21.51912	0.0003858	-0.000627	10
	3	19	150421.9	3.644979	1.126266	1	3.815016	17.17069	-9.41698E-005	9.295782E-005	10
	4	21	119484.4	3.631779	0.8765658	1	3.736066	13.56938	-0.0001229	0.0002709	10
	5	24	94921.88	3.629447	0.6824377	1	3.693048	10.64888	0.0001141	0.0001118	10
	6	26	75421.88	3.629093	0.5066961	1	3.664294	7.948289	0.0001069	0.0001673	10
	7	29	59859.37	3.631373	0.357592	1	3.648937	5.623953	1.116945E-007	0.0006799	10
	8	31	47578.12	3.63421	0.2289627	1	3.641415	3.604987	-0.0000953	0.0006215	10
	9	34	37828.12	3.639063	0.1133837	1	3.640829	1.784609	9.333998E-005	0.0005367	10
	10	36	30046.88	3.644964	0.0042539	1	3.644966	0.0668679	-0.00016	0.0009009	10
	11	39	23859.38	3.653185	-0.1036404	1	3.654655	-1.625039	-0.0001283	0.0009538	10
	12	41	18984.38	3.660658	-0.2146305	1	3.666945	-3.355506	0.0001289	0.0003095	10
	13	43	15046.87	3.671742	-0.3360764	1	3.68709	-5.229739	-7.448927E-005	0.000869	10
	14	46	11953.13	3.68347	-0.4714558	1	3.713519	-7.293763	0.0001517	0.0003156	10
	15	48	9515.62	3.698527	-0.6284781	1	3.751545	-9.64396	0.0001159	0.0003653	10
	16	50	7546.875	3.716189	-0.8153616	1	3.804586	-12.37506	0.0001115	0.0003422	10
	17	53	5928.309	3.739985	-1.055398	1	3.886045	-15.7587	0.0001336	0.0004679	10
	18	55	4733.456	3.76888	-1.326967	1	3.99566	-19.39642	-0.0001626	0.0009786	10
	19	57	3796.875	3.803399	-1.651052	1	4.146302	-23.46562	8.915441E-005	0.0003753	10
	20	60	2987.132	3.850079	-2.08498	1	4.378384	-28.43742	0.0001472	0.0003435	10
	21	62	2390.625	3.907347	-2.582881	1	4.683869	-33.46598	-6.010456E-005	0.0009105	10
	22	64	1884.191	3.985806	-3.237807	1	5.135177	-39.08813	9.043396E-005	0.0003646	10
	23	67	1516.544	4.077181	-3.978481	1	5.696641	-44.29803	-0.0001111	0.0009495	10
	24	69	1193.986	4.208349	-4.979478	1	6.519617	-49.79756	-0.0001124	0.0009524	10
	25	71	946.5144	4.371661	-6.185405	1	7.574342	-54.74846	-1.872668E-006	0.0004998	10
	26	74	751.7689	4.590681	-7.659764	1	8.93008	-59.06473	8.880196E-005	0.0005828	10
	27	76	597.4265	4.869523	-9.463928	1	10.64322	-62.77259	0.0001509	0.0003263	10
	28	78	477.4305	5.215521	-11.6258	1	12.74209	-65.83823	-3.586688E-006	0.000656	10
	29	81	376.6741	5.681726	-14.42684	1	15.50535	-68.50398	-4.108371E-006	0.0006572	10
	30	83	298.2954	6.261715	-17.82457	1	18.89244	-70.64378	-4.094494E-006	0.0006549	10
	31	85	237.7717	6.969221	-21.87344	1	22.95686	-72.3273	-4.353406E-006	0.0006558	10
	32	88	189.0121	7.862623	-26.89463	1	28.02038	-73.70376	-3.748133E-006	0.0006523	10
	33	90	150.2404	8.984368	-33.06333	1	34.26226	-74.79797	-4.168177E-006	0.0006529	10
	34	93	119.1737	10.41379	-40.71237	1	42.02314	-75.65199	-3.792014E-006	0.0006585	10
	35	95	95.0169	12.17744	-49.81949	1	51.28617	-76.26444	-5.362975E-007	5.317826E-005	9
	36	97	75.60484	14.48022	-61.13936	1	62.83071	-76.67561	-5.223034E-007	5.017374E-005	9
	37	100	54.50582	19.02489	-81.86504	1	84.04659	-76.91707	-6.498861E-007	4.314059E-005	9
	38	103	45.95588	22.18671	-95.2664	1	97.8159	-76.89001	-2.684165E-007	4.854875E-005	9
	39	105	37.20238	27.0778	-114.7268	1	117.8789	-76.72009	-4.1348E-007	5.679265E-005	9
	40	107	30.04808	33.42769	-138.2321	1	142.2164	-76.40555	-6.294146E-007	5.593633E-005	9
	41	110	23.91582	42.26725	-168.3538	1	173.5786	-75.9065	-7.090052E-007	5.872843E-005	9
	42	112	18.60119	54.95556	-208.4588	1	215.581	-75.23125	-3.084107E-007	6.311093E-005	9
	43	114	15.02404	68.78075	-249.1391	1	258.4591	-74.56657	-2.784656E-007	6.403543E-005	9
	44	117	12.01923	87.1452	-299.4558	1	311.8783	-73.77438	-5.485375E-007	5.447854E-005	9
	45	119	9.450605	112.0336	-363.9754	1	380.8275	-72.89135	-3.47161E-007	8.033592E-006	9
	46	122	7.512019	141.7406	-435.5588	1	458.0414	-71.97395	-4.622659E-007	0.0006192	8
	47	124	5.978954	179.2219	-521.7628	1	551.6855	-71.04276	-4.116127E-007	0.0006436	8
	48	127	4.734848	228.0338	-626.4957	1	666.7056	-69.99936	-4.184924E-007	0.0006118	8
	49	130	3.75601	290.8305	-749.0803	1	803.5569	-68.78129	-2.580344E-007	0.0006543	8
	50	134	3.004808	368.8029	-887.1069	1	960.716	-67.42555	-4.551345E-007	0.0006678	8
	51	138	2.372217	476.3065	-1055.985	1	1158.435	-65.72205	-5.056418E-007	0.0006907	8
	52	142	1.878005	618.303	-1245.11	1	1390.179	-63.59169	-5.166618E-007	0.0006111	8
	53	147	1.512097	787.5703	-1437.886	1	1639.446	-61.28925	-5.203441E-007	0.0007256	8
	54	152	1.201923	1016.386	-1657.785	1	1944.554	-58.48758	-5.148739E-007	0.0006037	8
	55	158	0.956633	1301.802	-1877.089	1	2284.327	-55.25785	-7.672736E-007	-5.973407E-007	8
