EXPLAIN
TAG	EISPOT
TITLE	LABEL	Potentiostatic EIS	Test Identifier
DATE	LABEL	9/11/2020	Date
TIME	LABEL	18:35:53	Time
NOTES	NOTES	1	Notes...
	
PSTAT	PSTAT	REF3000-16137	Potentiostat
VDC	POTEN	0.00000E+000	T	DC Voltage (V)
FREQINIT	QUANT	3.00000E+005	Initial Freq. (Hz)
FREQFINAL	QUANT	1.00000E+000	Final Freq. (Hz)
PTSPERDEC	QUANT	1.00000E+001	Points/decade
VAC	QUANT	5.00000E+001	AC Voltage (mV rms)
AREA	QUANT	1.00000E+000	Sample Area (cm^2)
SPEED	SELECTOR	2	Optimize for:
ZGUESS	QUANT	1.00000E+003	Estimated Z (ohms)
EOC	QUANT	0	Open Circuit (V)
SEQUENCER	TOGGLE	TRUE	Run as Sequence
PSTATMODEL	IQUANT	5	Pstat Model
PSTATSECTION	LABEL	REF3000-16137	Pstat Section
PSTATSERIALNO	LABEL	16137	Pstat Serial Number
CTRLMODE	IQUANT	1	Control Mode
IESTAB	IQUANT	0	I/E Stability
CASPEED	IQUANT	1	Control Amp Speed
CONVENTION	IQUANT	1	Current Convention
ICHRANGE	IQUANT	2	Ich Range
ICHRANGEMODE	TOGGLE	F	Ich Auto Range
ICHOFFSETENABLE	TOGGLE	T	Ich Offset Enable
ICHOFFSET	QUANT	0	Ich Offset (V)
ICHFILTER	IQUANT	3	Ich Filter
VCHRANGE	IQUANT	2	Vch Range
VCHRANGEMODE	TOGGLE	F	Vch Auto Range
VCHOFFSETENABLE	TOGGLE	T	Vch Offset Enable
VCHOFFSET	QUANT	0	Vch Offset (V)
VCHFILTER	IQUANT	3	Vch Filter
ACHRANGE	IQUANT	2	Ach Range
ACHOFFSETENABLE	TOGGLE	F	Ach Offset Enable
ACHOFFSET	QUANT	0	Ach Offset (V)
ACHFILTER	IQUANT	3	Ach Filter
IERANGELOWERLIMIT	IQUANT	2	I/E Range Lower Limit
IERANGEMODE	TOGGLE	F	I/E AutoRange
IERANGE	IQUANT	11	I/E Range
POSFEEDENABLE	TOGGLE	F	Positive Feedback IR Comp
POSFEEDRESISTANCE	QUANT	0	Positive Feedback Resistance (ohm)
ACHSELECT	IQUANT	0	Ach Select
CABLEID	IQUANT	13	Cable ID
DCCALDATE	LABEL	7/31/2020	DC Calibration Date
ACCALDATE	LABEL	7/31/2020	AC Calibration Date
THERMOSELECT	IQUANT	1	Thermo Select
FRAMEWORKVERSION	QUANT	6.33	Framework Version
INSTRUMENTVERSION	LABEL	3.50	Instrument Version
COMPLIANCEVOLTAGE	IQUANT	0	Compliance Voltage
ZCURVE	TABLE
	Pt	Time	Freq	Zreal	Zimag	Zsig	Zmod	Zphz	Idc	Vdc	IERange
	#	s	Hz	ohm	ohm	V	ohm	°	A	V	#
	0	16	300046.9	650.2919	-141.0377	1	665.4105	-12.237	0.0001615	-0.015453	9
	1	30	238359.4	711.676	-113.2972	1	720.6379	-9.045454	0.0001333	0.0098756	9
	2	43	189328.1	694.1672	-115.9776	1	703.7889	-9.48505	0.0001329	0.009908	9
	3	51	150421.9	715.8542	-103.3851	1	723.2812	-8.217948	-0.0003633	-0.0017089	9
	4	58	119484.4	741.0392	-117.4847	1	750.2944	-9.00872	-0.0004268	0.0061705	10
	5	67	94921.88	767.0978	-76.39603	1	770.8926	-5.687389	-0.00022	0.0097152	9
	6	75	75421.88	784.3011	-67.01451	1	787.1589	-4.883769	0.0002271	-0.002914	9
	7	84	59859.37	806.0319	-68.44047	1	808.9324	-4.853364	-0.000282	0.0014578	10
	8	93	47578.12	830.3085	-58.0749	1	832.337	-4.000966	-0.0001444	5.335048E-005	10
	9	101	37828.12	852.2418	-41.83871	1	853.2682	-2.810538	-0.000261	0.0072438	9
	10	110	30046.88	877.0976	-34.76897	1	877.7864	-2.27007	0.0002651	-0.0058012	9
	11	119	23859.38	888.5096	-32.41356	1	889.1006	-2.08927	0.0001629	-0.0096107	9
	12	124	18984.38	911.2372	-25.41308	1	911.5915	-1.597482	0.0002727	-0.0077861	9
	13	131	15046.87	941.0914	-27.74509	1	941.5002	-1.688695	0.0002927	-0.0003109	10
	14	138	11953.13	944.629	-26.07885	1	944.989	-1.581392	0.0002255	-0.0098951	9
	15	144	9515.62	965.225	-15.4858	1	965.35	-0.9191585	0.0001628	-0.0095825	9
	16	151	7546.875	983.239	-15.3748	1	983.36	-0.8958542	-1.628541E-005	0.0071385	9
	17	156	5928.309	1005.16	-0.0030689	1	1005.16	-0.0001749	-7.289198E-005	-0.0052473	8
	18	161	4733.456	1024.219	0.0341298	1	1024.219	0.0019093	-0.0001023	0.0456368	8
	19	165	3796.875	1024.441	-11.97188	1	1024.511	-0.6695431	6.892876E-006	-0.0064782	9
	20	171	2987.132	1054.368	1.583278	1	1054.369	0.0860374	-0.0001185	0.0415739	8
	21	176	2390.625	1061.436	-26.15876	1	1061.758	-1.411751	3.862227E-005	-0.0005284	10
	22	182	1884.191	1091.682	-9.210089	1	1091.721	-0.4833705	7.797337E-005	-0.0464055	8
	23	187	1516.544	1102.677	-5.027387	1	1102.688	-0.2612244	3.716968E-005	0.0240675	8
	24	191	1193.986	1114.438	-9.73908	1	1114.481	-0.5006952	0.0001045	-0.0467696	8
	25	196	946.5144	1152.266	6.472683	1	1152.284	0.3218473	4.098846E-005	0.0241227	8
	26	198	751.7689	1123.56	-2.805476	1	1123.563	-0.1430646	0.0001573	0.0007243	9
	27	203	597.4265	1121.97	-42.02619	1	1122.757	-2.145154	-0.000287	0.0011223	10
	28	208	477.4305	1188.079	-21.84234	1	1188.28	-1.05324	-9.111527E-007	0.0005931	8
	29	212	376.6741	1192.785	-26.77316	1	1193.085	-1.285841	-7.199528E-007	0.0006449	8
	30	214	298.2954	1193.014	-33.79209	1	1193.493	-1.622468	-5.212707E-007	0.0005436	8
	31	216	237.7717	1203.153	-41.58645	1	1203.872	-1.979615	-6.902962E-007	0.0006006	8
	32	219	189.0121	1224.056	-51.76471	1	1225.15	-2.421567	-8.876227E-007	0.0005515	8
	33	221	150.2404	1237.577	-66.89938	1	1239.384	-3.094211	-7.258942E-007	0.0005458	8
	34	224	119.1737	1231.256	-78.75017	1	1233.772	-3.659608	-5.702362E-007	0.0006689	8
	35	226	95.0169	1244.421	-97.7787	1	1248.257	-4.492707	-7.158859E-007	0.0007052	8
	36	228	75.60484	1268.362	-122.4235	1	1274.256	-5.513165	-9.210009E-007	0.0005915	8
	37	231	54.50582	1272.733	-165.2731	1	1283.419	-7.398849	-6.686461E-007	0.0005651	8
	38	233	45.95588	1280.11	-192.7335	1	1294.537	-8.562151	-5.306493E-007	0.0006442	8
	39	236	37.20238	1301.603	-237.4414	1	1323.083	-10.33834	-7.257119E-007	0.0005612	8
	40	238	30.04808	1316.698	-289.9442	1	1348.244	-12.41865	-9.232003E-007	0.0007077	8
	41	241	23.91582	1325.747	-356.2901	1	1372.788	-15.04263	-7.382499E-007	0.0006608	8
	42	243	18.60119	1343.883	-450.2271	1	1417.296	-18.52186	-6.752082E-007	0.0005415	8
	43	245	15.02404	1374.46	-553.3345	1	1481.661	-21.92889	-6.159033E-007	0.0005702	8
	44	248	12.01923	1406.979	-687.9801	1	1566.176	-26.05755	-9.928783E-007	0.0007067	8
	45	250	9.450605	1425.761	-851.1028	1	1660.473	-30.83493	-5.245857E-007	0.0005375	8
	46	253	7.512019	1459.873	-1053.217	1	1800.138	-35.80834	-7.290648E-007	0.0006611	8
	47	255	5.978954	1514.465	-1308.967	1	2001.749	-40.83717	-8.902833E-007	0.0006682	8
	48	258	4.734848	1567.138	-1624.881	1	2257.468	-46.03635	-8.399159E-007	0.0006731	8
	49	262	3.75601	1631.782	-2002.964	1	2583.521	-50.83085	-7.048307E-007	0.0005321	8
	50	265	3.004808	1714.328	-2459.406	1	2997.932	-55.12159	-6.452436E-007	0.0005637	8
	51	269	2.372217	1819.828	-3061.603	1	3561.627	-59.27259	-7.178451E-007	0.0006502	8
	52	273	1.878005	1957.861	-3795.879	1	4271.056	-62.71595	-7.052646E-007	0.0005987	8
	53	278	1.512097	2446.864	-5363.071	1	5894.886	-65.47549	-4.015013E-007	0.0006725	7
	54	283	1.201923	2656.037	-6547.588	1	7065.794	-67.92001	-3.758608E-007	0.0005899	7
	55	290	0.956633	2925.179	-7990.325	1	8508.935	-69.89282	-3.878619E-007	-5.067658E-005	7
