EXPLAIN
TAG	EISPOT
TITLE	LABEL	Potentiostatic EIS	Test Identifier
DATE	LABEL	9/11/2020	Date
TIME	LABEL	17:10:44	Time
NOTES	NOTES	1	Notes...
	
PSTAT	PSTAT	REF3000-16137	Potentiostat
VDC	POTEN	0.00000E+000	T	DC Voltage (V)
FREQINIT	QUANT	3.00000E+005	Initial Freq. (Hz)
FREQFINAL	QUANT	1.00000E+000	Final Freq. (Hz)
PTSPERDEC	QUANT	1.00000E+001	Points/decade
VAC	QUANT	5.00000E+001	AC Voltage (mV rms)
AREA	QUANT	1.00000E+000	Sample Area (cm^2)
SPEED	SELECTOR	2	Optimize for:
ZGUESS	QUANT	1.00000E+003	Estimated Z (ohms)
EOC	QUANT	0	Open Circuit (V)
SEQUENCER	TOGGLE	TRUE	Run as Sequence
PSTATMODEL	IQUANT	5	Pstat Model
PSTATSECTION	LABEL	REF3000-16137	Pstat Section
PSTATSERIALNO	LABEL	16137	Pstat Serial Number
CTRLMODE	IQUANT	1	Control Mode
IESTAB	IQUANT	0	I/E Stability
CASPEED	IQUANT	1	Control Amp Speed
CONVENTION	IQUANT	1	Current Convention
ICHRANGE	IQUANT	2	Ich Range
ICHRANGEMODE	TOGGLE	F	Ich Auto Range
ICHOFFSETENABLE	TOGGLE	T	Ich Offset Enable
ICHOFFSET	QUANT	0	Ich Offset (V)
ICHFILTER	IQUANT	3	Ich Filter
VCHRANGE	IQUANT	2	Vch Range
VCHRANGEMODE	TOGGLE	F	Vch Auto Range
VCHOFFSETENABLE	TOGGLE	T	Vch Offset Enable
VCHOFFSET	QUANT	0	Vch Offset (V)
VCHFILTER	IQUANT	3	Vch Filter
ACHRANGE	IQUANT	2	Ach Range
ACHOFFSETENABLE	TOGGLE	F	Ach Offset Enable
ACHOFFSET	QUANT	0	Ach Offset (V)
ACHFILTER	IQUANT	1	Ach Filter
IERANGELOWERLIMIT	IQUANT	2	I/E Range Lower Limit
IERANGEMODE	TOGGLE	F	I/E AutoRange
IERANGE	IQUANT	11	I/E Range
POSFEEDENABLE	TOGGLE	F	Positive Feedback IR Comp
POSFEEDRESISTANCE	QUANT	0	Positive Feedback Resistance (ohm)
ACHSELECT	IQUANT	0	Ach Select
CABLEID	IQUANT	13	Cable ID
DCCALDATE	LABEL	7/31/2020	DC Calibration Date
ACCALDATE	LABEL	7/31/2020	AC Calibration Date
THERMOSELECT	IQUANT	1	Thermo Select
FRAMEWORKVERSION	QUANT	6.33	Framework Version
INSTRUMENTVERSION	LABEL	3.50	Instrument Version
COMPLIANCEVOLTAGE	IQUANT	0	Compliance Voltage
ZCURVE	TABLE
	Pt	Time	Freq	Zreal	Zimag	Zsig	Zmod	Zphz	Idc	Vdc	IERange
	#	s	Hz	ohm	ohm	V	ohm	°	A	V	#
	0	11	300046.9	3.425052	2.308537	1	4.130414	33.98056	-0.0001386	-0.000119	10
	1	14	238359.4	3.374084	1.831684	1	3.839206	28.49614	-1.780232E-005	-0.0002154	10
	2	17	189328.1	3.35488	1.438826	1	3.650403	23.21331	-0.0002292	5.972479E-005	10
	3	19	150421.9	3.333186	1.13111	1	3.519878	18.74454	-0.0002258	0.0002754	10
	4	22	119484.4	3.328948	0.851575	1	3.436142	14.34907	3.243211E-005	0.0002958	11
	5	26	94921.88	3.321936	0.6503849	1	3.385005	11.07753	-0.0001591	0.0005279	11
	6	28	75421.88	3.315136	0.4829663	1	3.350132	8.288836	4.095902E-005	0.0005894	11
	7	31	59859.37	3.313455	0.3405205	1	3.330906	5.867632	3.25512E-005	0.0005574	11
	8	33	47578.12	3.312248	0.217227	1	3.319363	3.752254	0.0002006	0.0006535	11
	9	36	37828.12	3.311671	0.1059784	1	3.313367	1.832924	-0.0001154	0.0005932	11
	10	38	30046.88	3.312558	0.001156	1	3.312558	0.0199947	0.0001933	0.0006239	11
	11	41	23859.38	3.316343	-0.1026528	1	3.317931	-1.772946	-0.0001074	0.0006186	11
	12	43	18984.38	3.321043	-0.2088176	1	3.327602	-3.597856	-0.0001422	0.0007283	11
	13	45	15046.87	3.325605	-0.3268854	1	3.341632	-5.61377	-0.0002353	0.0006809	11
	14	48	11953.13	3.333871	-0.4588526	1	3.365299	-7.836589	-0.000105	0.0006218	11
	15	50	9515.62	3.344662	-0.6108125	1	3.399978	-10.34948	5.517352E-005	0.0007347	11
	16	52	7546.875	3.358598	-0.7942685	1	3.451238	-13.30532	-7.316373E-005	0.0007353	11
	17	55	5928.309	3.377155	-1.026282	1	3.52965	-16.90348	-0.0001439	0.0007118	11
	18	57	4733.456	3.403563	-1.289138	1	3.639521	-20.74476	0.0001561	0.0003701	10
	19	59	3796.875	3.434737	-1.605763	1	3.791556	-25.05641	0.0001467	0.000449	10
	20	62	2987.132	3.477666	-2.026494	1	4.025027	-30.23007	0.0001241	0.0004947	10
	21	64	2390.625	3.529747	-2.509638	1	4.330981	-35.4127	0.0001577	0.0003959	10
	22	66	1884.191	3.604968	-3.145465	1	4.784323	-41.10588	3.364406E-005	0.0006934	10
	23	68	1516.544	3.696234	-3.860022	1	5.344335	-46.24173	-0.0001508	0.0009337	10
	24	71	1193.986	3.825225	-4.824893	1	6.157268	-51.59225	-5.388863E-005	0.0006041	10
	25	73	946.5144	3.985075	-5.988065	1	7.192895	-56.35612	1.030265E-006	0.0005024	10
	26	76	751.7689	4.201151	-7.406567	1	8.515099	-60.43724	0.0001264	0.0003655	10
	27	78	597.4265	4.471455	-9.149832	1	10.18397	-63.95558	-0.000134	0.0009251	10
	28	80	477.4305	4.814172	-11.22141	1	12.2105	-66.77986	-4.395646E-006	0.0006585	10
	29	82	376.6741	5.269157	-13.91195	1	14.87637	-69.25579	-4.16563E-006	0.0006516	10
	30	85	298.2954	5.833554	-17.17266	1	18.13645	-71.23737	-4.318419E-006	0.0006567	10
	31	87	237.7717	6.522469	-21.05884	1	22.0458	-72.79089	-4.692108E-006	0.0006509	10
	32	90	189.0121	7.395943	-25.87907	1	26.91517	-74.05067	-5.075175E-006	0.0006532	10
	33	92	150.2404	8.501451	-31.76681	1	32.88472	-75.01757	-5.071632E-006	0.0006553	10
	34	94	119.1737	9.92148	-39.12474	1	40.36312	-75.77055	-4.764397E-006	0.0006571	10
	35	97	95.0169	11.69503	-47.82518	1	49.23435	-76.25872	-1.38941E-006	5.266462E-005	9
	36	99	75.60484	14.02653	-58.60432	1	60.25953	-76.53987	-1.122333E-006	-1.257525E-005	9
	37	102	54.50582	18.67265	-78.36026	1	80.55431	-76.59682	-1.358133E-006	5.02305E-005	9
	38	104	45.95588	21.92138	-91.08607	1	93.68681	-76.46815	-1.085537E-006	5.990791E-005	9
	39	107	37.20238	26.9318	-109.453	1	112.7177	-76.17652	-1.207166E-006	5.557198E-005	9
	40	109	30.04808	33.47353	-131.4828	1	135.6768	-75.71678	-1.152483E-006	-1.237609E-005	9
	41	111	23.91582	42.45004	-159.5608	1	165.1111	-75.10195	-1.523156E-006	5.383764E-005	9
	42	114	18.60119	55.23742	-196.776	1	204.3819	-74.31992	-1.261459E-006	6.018121E-005	9
	43	116	15.02404	69.16069	-234.3835	1	244.3744	-73.56	-8.577162E-007	1.345083E-005	9
	44	118	12.01923	87.53956	-281.0459	1	294.3637	-72.69935	-1.262451E-006	5.671799E-005	9
	45	121	9.450605	112.447	-340.5223	1	358.6081	-71.72578	-1.020808E-006	6.983941E-005	9
	46	123	7.512019	142.058	-405.8806	1	430.0227	-70.70998	-8.082927E-007	0.0006469	8
	47	126	5.978954	179.873	-484.1914	1	516.5226	-69.6204	-1.134311E-006	0.0005765	8
	48	129	4.734848	230.3212	-578.2377	1	622.42	-68.28183	-1.16585E-006	0.0006632	8
	49	132	3.75601	295.6047	-687.2208	1	748.1006	-66.72527	-1.435834E-006	0.000618	8
	50	136	3.004808	377.4379	-806.6586	1	890.5939	-64.92497	-1.350135E-006	0.0006357	8
	51	140	2.372217	491.8843	-946.7875	1	1066.938	-62.54678	-1.368889E-006	0.0006744	8
	52	144	1.878005	639.7322	-1099.009	1	1271.644	-59.79636	-1.471151E-006	0.0006269	8
	53	148	1.512097	809.9734	-1241.185	1	1482.092	-56.8723	-1.359473E-006	0.000552	8
	54	154	1.201923	1035.496	-1383.173	1	1727.837	-53.18009	-1.392089E-006	0.0006286	8
	55	160	0.956633	1296.367	-1503.641	1	1985.322	-49.23368	-1.491893E-006	-4.365108E-006	8
