EXPLAIN
TAG	EISPOT
TITLE	LABEL	Potentiostatic EIS	Test Identifier
DATE	LABEL	9/11/2020	Date
TIME	LABEL	18:06:28	Time
NOTES	NOTES	1	Notes...
	
PSTAT	PSTAT	REF3000-16137	Potentiostat
VDC	POTEN	0.00000E+000	T	DC Voltage (V)
FREQINIT	QUANT	3.00000E+005	Initial Freq. (Hz)
FREQFINAL	QUANT	1.00000E+000	Final Freq. (Hz)
PTSPERDEC	QUANT	1.00000E+001	Points/decade
VAC	QUANT	5.00000E+001	AC Voltage (mV rms)
AREA	QUANT	1.00000E+000	Sample Area (cm^2)
SPEED	SELECTOR	2	Optimize for:
ZGUESS	QUANT	1.00000E+003	Estimated Z (ohms)
EOC	QUANT	0	Open Circuit (V)
SEQUENCER	TOGGLE	TRUE	Run as Sequence
PSTATMODEL	IQUANT	5	Pstat Model
PSTATSECTION	LABEL	REF3000-16137	Pstat Section
PSTATSERIALNO	LABEL	16137	Pstat Serial Number
CTRLMODE	IQUANT	1	Control Mode
IESTAB	IQUANT	0	I/E Stability
CASPEED	IQUANT	1	Control Amp Speed
CONVENTION	IQUANT	1	Current Convention
ICHRANGE	IQUANT	2	Ich Range
ICHRANGEMODE	TOGGLE	F	Ich Auto Range
ICHOFFSETENABLE	TOGGLE	T	Ich Offset Enable
ICHOFFSET	QUANT	0	Ich Offset (V)
ICHFILTER	IQUANT	3	Ich Filter
VCHRANGE	IQUANT	2	Vch Range
VCHRANGEMODE	TOGGLE	F	Vch Auto Range
VCHOFFSETENABLE	TOGGLE	T	Vch Offset Enable
VCHOFFSET	QUANT	0	Vch Offset (V)
VCHFILTER	IQUANT	3	Vch Filter
ACHRANGE	IQUANT	2	Ach Range
ACHOFFSETENABLE	TOGGLE	F	Ach Offset Enable
ACHOFFSET	QUANT	0	Ach Offset (V)
ACHFILTER	IQUANT	3	Ach Filter
IERANGELOWERLIMIT	IQUANT	2	I/E Range Lower Limit
IERANGEMODE	TOGGLE	F	I/E AutoRange
IERANGE	IQUANT	11	I/E Range
POSFEEDENABLE	TOGGLE	F	Positive Feedback IR Comp
POSFEEDRESISTANCE	QUANT	0	Positive Feedback Resistance (ohm)
ACHSELECT	IQUANT	0	Ach Select
CABLEID	IQUANT	13	Cable ID
DCCALDATE	LABEL	7/31/2020	DC Calibration Date
ACCALDATE	LABEL	7/31/2020	AC Calibration Date
THERMOSELECT	IQUANT	1	Thermo Select
FRAMEWORKVERSION	QUANT	6.33	Framework Version
INSTRUMENTVERSION	LABEL	3.50	Instrument Version
COMPLIANCEVOLTAGE	IQUANT	0	Compliance Voltage
ZCURVE	TABLE
	Pt	Time	Freq	Zreal	Zimag	Zsig	Zmod	Zphz	Idc	Vdc	IERange
	#	s	Hz	ohm	ohm	V	ohm	°	A	V	#
	0	7	300046.9	24.49767	1.497477	1	24.54339	3.497987	6.036997E-005	-0.0004522	11
	1	11	238359.4	24.64708	1.471367	1	24.69095	3.416357	-1.337407E-005	0.0002606	10
	2	16	189328.1	24.7357	0.9455183	1	24.75377	2.189056	-1.091208E-005	0.0005196	11
	3	19	150421.9	24.8771	0.920835	1	24.89413	2.119857	2.666769E-005	0.0006113	10
	4	23	119484.4	24.96025	0.5433866	1	24.96617	1.247137	1.540392E-005	0.0007052	11
	5	27	94921.88	25.06529	0.5242375	1	25.07078	1.198159	2.133376E-005	0.0005852	10
	6	29	75421.88	25.14669	0.3667165	1	25.14936	0.8354904	2.432159E-005	0.0005523	10
	7	32	59859.37	25.2331	0.2303082	1	25.23415	0.522937	1.254621E-005	0.0005484	10
	8	34	47578.12	25.31914	0.1137553	1	25.31939	0.2574202	6.23642E-006	0.0005637	10
	9	37	37828.12	25.4061	-0.0002557	1	25.4061	-0.0005767	-2.861798E-005	0.0006347	10
	10	39	30046.88	25.49179	-0.1096172	1	25.49202	-0.2463761	2.389894E-005	0.0005986	10
	11	42	23859.38	25.58007	-0.2240814	1	25.58105	-0.5018982	-2.52225E-005	0.0006867	10
	12	44	18984.38	25.66465	-0.3440821	1	25.66696	-0.7681097	-1.006502E-006	0.00059	10
	13	46	15046.87	25.75471	-0.4872563	1	25.75932	-1.083856	-2.334798E-005	0.0006981	10
	14	49	11953.13	25.83682	-0.6439976	1	25.84485	-1.427835	2.352752E-005	0.000662	10
	15	51	9515.62	25.93034	-0.8313207	1	25.94366	-1.836261	-3.089231E-006	0.0005982	10
	16	53	7546.875	26.02275	-1.069296	1	26.04471	-2.353006	-2.652499E-005	0.0006443	10
	17	56	5928.309	26.12596	-1.356034	1	26.16113	-2.971197	2.091811E-005	0.0005852	10
	18	58	4733.456	26.23485	-1.69064	1	26.28927	-3.687187	6.277271E-006	0.0005816	10
	19	60	3796.875	26.34392	-2.103049	1	26.42773	-4.564271	-1.940347E-006	0.0005986	10
	20	63	2987.132	26.47472	-2.644318	1	26.60645	-5.703836	2.180352E-005	0.0006374	10
	21	65	2390.625	26.60662	-3.270091	1	26.80682	-7.006808	-4.428101E-006	0.0006291	10
	22	67	1884.191	26.76275	-4.095394	1	27.07429	-8.700244	-2.587472E-005	0.0006601	10
	23	70	1516.544	26.9288	-5.042247	1	27.3968	-10.60547	-2.715103E-005	0.0006654	10
	24	72	1193.986	27.12606	-6.319269	1	27.8524	-13.1137	2.337907E-005	0.0006391	10
	25	74	946.5144	27.35596	-7.877609	1	28.46762	-16.06464	-1.391476E-005	0.0006211	10
	26	77	751.7689	27.62638	-9.79736	1	29.31221	-19.52643	5.311843E-006	0.0005813	10
	27	79	597.4265	27.949	-12.15958	1	30.47954	-23.51209	-1.813988E-005	0.0006471	10
	28	81	477.4305	28.33139	-15.02837	1	32.07054	-27.94369	-1.832668E-006	0.0006523	10
	29	84	376.6741	28.82875	-18.78107	1	34.40676	-33.08304	-2.018422E-006	0.0006452	10
	30	86	298.2954	29.44011	-23.37548	1	37.59166	-38.44962	-2.604139E-006	0.0006551	10
	31	88	237.7717	30.15656	-28.86478	1	41.74438	-43.74619	1.28967E-006	5.072275E-005	9
	32	91	189.0121	31.10587	-35.75907	1	47.395	-48.98086	1.318406E-006	5.338457E-005	9
	33	93	150.2404	32.30519	-44.27375	1	54.80684	-53.88292	1.310987E-006	4.667887E-005	9
	34	96	119.1737	33.84207	-54.89121	1	64.48512	-58.34493	1.295269E-006	5.683166E-005	9
	35	98	95.0169	35.75529	-67.67891	1	76.54329	-62.15216	7.867566E-007	0.0001105	9
	36	100	75.60484	38.21099	-83.53728	1	91.86162	-65.42006	1.225685E-006	5.342362E-005	9
	37	103	54.50582	42.89832	-112.706	1	120.594	-69.16211	1.248393E-006	4.67538E-005	9
	38	106	45.95588	46.0807	-131.672	1	139.5025	-70.71169	1.279584E-006	5.486891E-005	9
	39	108	37.20238	50.80596	-159.468	1	167.3658	-72.3283	1.337353E-006	5.255433E-005	9
	40	110	30.04808	56.68293	-193.3953	1	201.5309	-73.66447	1.205399E-006	6.003812E-005	9
	41	113	23.91582	64.39045	-237.5033	1	246.0772	-74.83096	1.194435E-006	5.150972E-005	9
	42	115	18.60119	74.91489	-297.7245	1	307.0051	-75.87617	1.408907E-006	4.768165E-005	9
	43	117	15.02404	86.05982	-360.7048	1	370.8291	-76.58079	1.462705E-006	6.259018E-005	9
	44	120	12.01923	100.0022	-438.8651	1	450.1144	-77.16344	3.532359E-007	0.0006794	8
	45	122	9.450605	119.2976	-544.7629	1	557.6724	-77.64779	5.364303E-007	0.0006369	8
	46	125	7.512019	143.0818	-669.6307	1	684.7465	-77.93884	5.726456E-007	0.000647	8
	47	127	5.978954	172.9786	-822.1179	1	840.1187	-78.11794	5.408424E-007	0.0006293	8
	48	130	4.734848	213.5928	-1013.156	1	1035.426	-78.09527	5.268673E-007	0.0006547	8
	49	134	3.75601	265.4997	-1245.529	1	1273.512	-77.9668	4.966917E-007	0.0006273	8
	50	137	3.004808	330.2363	-1516.102	1	1551.651	-77.71181	4.710396E-007	0.0006605	8
	51	141	2.372217	421.2784	-1864.512	1	1911.513	-77.26806	5.088625E-007	0.0006983	8
	52	145	1.878005	532.8588	-2284.051	1	2345.384	-76.86803	4.836274E-007	0.0006017	8
	53	150	1.512097	664.0089	-2742.81	1	2822.041	-76.39105	5.184946E-007	0.000627	8
	54	155	1.201923	842.9612	-3342.039	1	3446.71	-75.84359	4.90386E-007	0.0006044	8
	55	161	0.956633	1062.685	-4045.054	1	4182.315	-75.28033	4.712876E-007	-1.328925E-005	8
