EXPLAIN
TAG	EISPOT
TITLE	LABEL	Potentiostatic EIS	Test Identifier
DATE	LABEL	9/11/2020	Date
TIME	LABEL	18:03:42	Time
NOTES	NOTES	1	Notes...
	
PSTAT	PSTAT	REF3000-16137	Potentiostat
VDC	POTEN	0.00000E+000	T	DC Voltage (V)
FREQINIT	QUANT	3.00000E+005	Initial Freq. (Hz)
FREQFINAL	QUANT	1.00000E+000	Final Freq. (Hz)
PTSPERDEC	QUANT	1.00000E+001	Points/decade
VAC	QUANT	5.00000E+001	AC Voltage (mV rms)
AREA	QUANT	1.00000E+000	Sample Area (cm^2)
SPEED	SELECTOR	2	Optimize for:
ZGUESS	QUANT	1.00000E+003	Estimated Z (ohms)
EOC	QUANT	0	Open Circuit (V)
SEQUENCER	TOGGLE	TRUE	Run as Sequence
PSTATMODEL	IQUANT	5	Pstat Model
PSTATSECTION	LABEL	REF3000-16137	Pstat Section
PSTATSERIALNO	LABEL	16137	Pstat Serial Number
CTRLMODE	IQUANT	1	Control Mode
IESTAB	IQUANT	0	I/E Stability
CASPEED	IQUANT	1	Control Amp Speed
CONVENTION	IQUANT	1	Current Convention
ICHRANGE	IQUANT	2	Ich Range
ICHRANGEMODE	TOGGLE	F	Ich Auto Range
ICHOFFSETENABLE	TOGGLE	T	Ich Offset Enable
ICHOFFSET	QUANT	0	Ich Offset (V)
ICHFILTER	IQUANT	3	Ich Filter
VCHRANGE	IQUANT	2	Vch Range
VCHRANGEMODE	TOGGLE	F	Vch Auto Range
VCHOFFSETENABLE	TOGGLE	T	Vch Offset Enable
VCHOFFSET	QUANT	0	Vch Offset (V)
VCHFILTER	IQUANT	3	Vch Filter
ACHRANGE	IQUANT	2	Ach Range
ACHOFFSETENABLE	TOGGLE	F	Ach Offset Enable
ACHOFFSET	QUANT	0	Ach Offset (V)
ACHFILTER	IQUANT	3	Ach Filter
IERANGELOWERLIMIT	IQUANT	2	I/E Range Lower Limit
IERANGEMODE	TOGGLE	F	I/E AutoRange
IERANGE	IQUANT	11	I/E Range
POSFEEDENABLE	TOGGLE	F	Positive Feedback IR Comp
POSFEEDRESISTANCE	QUANT	0	Positive Feedback Resistance (ohm)
ACHSELECT	IQUANT	0	Ach Select
CABLEID	IQUANT	13	Cable ID
DCCALDATE	LABEL	7/31/2020	DC Calibration Date
ACCALDATE	LABEL	7/31/2020	AC Calibration Date
THERMOSELECT	IQUANT	1	Thermo Select
FRAMEWORKVERSION	QUANT	6.33	Framework Version
INSTRUMENTVERSION	LABEL	3.50	Instrument Version
COMPLIANCEVOLTAGE	IQUANT	0	Compliance Voltage
ZCURVE	TABLE
	Pt	Time	Freq	Zreal	Zimag	Zsig	Zmod	Zphz	Idc	Vdc	IERange
	#	s	Hz	ohm	ohm	V	ohm	°	A	V	#
	0	8	300046.9	20.16691	1.999895	1	20.26583	5.663342	-2.736381E-005	0.0002079	10
	1	11	238359.4	20.19643	1.573698	1	20.25765	4.455464	2.250016E-005	0.0002762	10
	2	15	189328.1	20.24936	1.242719	1	20.28746	3.511883	-5.347487E-005	0.0005738	10
	3	17	150421.9	20.30761	0.97714	1	20.33111	2.754774	5.272835E-005	0.0006945	10
	4	20	119484.4	20.34944	0.745204	1	20.36308	2.097256	6.375225E-005	0.000563	10
	5	22	94921.88	20.409	0.5652609	1	20.41682	1.586496	-2.612001E-005	0.0006568	10
	6	25	75421.88	20.46877	0.3997325	1	20.47267	1.118781	5.060253E-006	0.0005538	10
	7	27	59859.37	20.53218	0.259703	1	20.53383	0.7246716	-2.995444E-005	0.0006273	10
	8	30	47578.12	20.59681	0.1352613	1	20.59725	0.3762616	2.216005E-005	0.0006541	10
	9	32	37828.12	20.6624	0.0208919	1	20.66241	0.0579323	-2.579736E-005	0.000646	10
	10	35	30046.88	20.7289	-0.0913414	1	20.7291	-0.2524709	2.460869E-005	0.0005961	10
	11	37	23859.38	20.79557	-0.2065041	1	20.7966	-0.5689395	2.466964E-005	0.0006018	10
	12	40	18984.38	20.8602	-0.3260269	1	20.86274	-0.895411	1.933882E-005	0.0005748	10
	13	42	15046.87	20.92654	-0.4654295	1	20.93172	-1.274112	2.377362E-005	0.0005992	10
	14	44	11953.13	21.00138	-0.6245717	1	21.01066	-1.703449	6.835156E-006	0.0006855	10
	15	47	9515.62	21.06985	-0.810268	1	21.08542	-2.202298	1.868028E-005	0.0006097	10
	16	49	7546.875	21.14816	-1.034486	1	21.17344	-2.800456	-3.093286E-005	0.0006959	10
	17	51	5928.309	21.22875	-1.324223	1	21.27001	-3.569415	-2.926549E-006	0.0006037	10
	18	53	4733.456	21.31639	-1.6555	1	21.38058	-4.440864	-2.217498E-005	0.0006933	10
	19	56	3796.875	21.40969	-2.054506	1	21.50804	-5.481405	-1.263434E-005	0.0006217	10
	20	58	2987.132	21.51436	-2.589554	1	21.66965	-6.86333	-3.577254E-006	0.0006643	10
	21	60	2390.625	21.62851	-3.202789	1	21.86436	-8.423252	1.989037E-005	0.0005957	10
	22	63	1884.191	21.76101	-4.014521	1	22.12822	-10.45253	-5.476321E-006	0.0006619	10
	23	65	1516.544	21.90727	-4.937111	1	22.45671	-12.70023	-2.788153E-005	0.0006748	10
	24	67	1193.986	22.08675	-6.195648	1	22.93928	-15.66956	-2.587535E-005	0.0006833	10
	25	70	946.5144	22.29115	-7.709508	1	23.58669	-19.0782	1.858032E-005	0.0005719	10
	26	72	751.7689	22.55171	-9.5931	1	24.50729	-23.04406	4.509908E-006	0.0005824	10
	27	74	597.4265	22.85685	-11.91783	1	25.77732	-27.53807	-2.105683E-005	0.0007113	10
	28	77	477.4305	23.22044	-14.71809	1	27.49202	-32.36824	-1.681544E-006	0.0006516	10
	29	79	376.6741	23.70106	-18.38603	1	29.99644	-37.80241	-1.947411E-006	0.0006485	10
	30	81	298.2954	24.29703	-22.87504	1	33.37085	-43.27336	-1.841354E-006	0.000653	10
	31	84	237.7717	25.03039	-28.26889	1	37.75779	-48.47705	-1.752318E-006	0.0006464	10
	32	86	189.0121	25.93947	-34.96503	1	43.5363	-53.42942	1.252791E-006	5.063089E-005	9
	33	89	150.2404	27.12972	-43.27088	1	51.07241	-57.91335	1.331493E-006	4.311786E-005	9
	34	91	119.1737	28.66428	-53.61504	1	60.7965	-61.86964	1.239023E-006	4.945883E-005	9
	35	93	95.0169	30.57673	-66.06371	1	72.79664	-65.16356	8.135386E-007	0.0000961	9
	36	96	75.60484	33.03443	-81.47619	1	87.91839	-67.92996	1.234354E-006	4.351718E-005	9
	37	98	54.50582	37.69902	-109.7786	1	116.0713	-71.04704	1.225933E-006	4.384389E-005	9
	38	101	45.95588	40.83917	-128.1592	1	134.5088	-72.32501	1.220447E-006	4.882202E-005	9
	39	103	37.20238	45.47204	-155.0951	1	161.6236	-73.65948	1.266461E-006	4.66174E-005	9
	40	106	30.04808	51.22218	-188.0196	1	194.872	-74.76073	1.173045E-006	4.925032E-005	9
	41	108	23.91582	58.72095	-230.8459	1	238.1974	-75.72819	1.249118E-006	4.513482E-005	9
	42	110	18.60119	68.97221	-289.3061	1	297.4141	-76.59067	1.168536E-006	4.44781E-005	9
	43	113	15.02404	79.90741	-350.4603	1	359.4546	-77.15573	1.237606E-006	4.942653E-005	9
	44	115	12.01923	93.82021	-426.5898	1	436.7849	-77.59637	4.093115E-007	0.000624	8
	45	117	9.450605	113.3846	-529.649	1	541.6494	-77.91679	3.96813E-007	0.0006301	8
	46	120	7.512019	137.3343	-650.7322	1	665.0663	-78.08285	4.434766E-007	0.0006174	8
	47	123	5.978954	168.2233	-798.3314	1	815.8629	-78.10079	4.611053E-007	0.0006245	8
	48	126	4.734848	209.9971	-982.678	1	1004.866	-77.9374	4.858262E-007	0.0006072	8
	49	129	3.75601	263.6773	-1206.044	1	1234.531	-77.66747	5.388659E-007	0.0006414	8
	50	132	3.004808	330.1271	-1465.036	1	1501.771	-77.30123	5.605753E-007	0.0006017	8
	51	136	2.372217	423.2302	-1796.795	1	1845.968	-76.74574	5.190178E-007	0.0005619	8
	52	140	1.878005	536.0026	-2195.779	1	2260.253	-76.28204	5.60951E-007	0.0006321	8
	53	145	1.512097	668.105	-2629.454	1	2713.004	-75.74368	5.130527E-007	0.0006057	8
	54	150	1.201923	844.73	-3195.049	1	3304.831	-75.19058	5.430093E-007	0.0006514	8
	55	157	0.956633	1060.129	-3860.553	1	4003.467	-74.64476	4.98329E-007	-1.22821E-005	8
