EXPLAIN
TAG	EISPOT
TITLE	LABEL	Potentiostatic EIS	Test Identifier
DATE	LABEL	9/11/2020	Date
TIME	LABEL	17:30:23	Time
NOTES	NOTES	1	Notes...
	
PSTAT	PSTAT	REF3000-16137	Potentiostat
VDC	POTEN	0.00000E+000	T	DC Voltage (V)
FREQINIT	QUANT	3.00000E+005	Initial Freq. (Hz)
FREQFINAL	QUANT	1.00000E+000	Final Freq. (Hz)
PTSPERDEC	QUANT	1.00000E+001	Points/decade
VAC	QUANT	5.00000E+001	AC Voltage (mV rms)
AREA	QUANT	1.00000E+000	Sample Area (cm^2)
SPEED	SELECTOR	2	Optimize for:
ZGUESS	QUANT	1.00000E+003	Estimated Z (ohms)
EOC	QUANT	0	Open Circuit (V)
SEQUENCER	TOGGLE	TRUE	Run as Sequence
PSTATMODEL	IQUANT	5	Pstat Model
PSTATSECTION	LABEL	REF3000-16137	Pstat Section
PSTATSERIALNO	LABEL	16137	Pstat Serial Number
CTRLMODE	IQUANT	1	Control Mode
IESTAB	IQUANT	0	I/E Stability
CASPEED	IQUANT	1	Control Amp Speed
CONVENTION	IQUANT	1	Current Convention
ICHRANGE	IQUANT	2	Ich Range
ICHRANGEMODE	TOGGLE	F	Ich Auto Range
ICHOFFSETENABLE	TOGGLE	T	Ich Offset Enable
ICHOFFSET	QUANT	0	Ich Offset (V)
ICHFILTER	IQUANT	3	Ich Filter
VCHRANGE	IQUANT	2	Vch Range
VCHRANGEMODE	TOGGLE	F	Vch Auto Range
VCHOFFSETENABLE	TOGGLE	T	Vch Offset Enable
VCHOFFSET	QUANT	0	Vch Offset (V)
VCHFILTER	IQUANT	3	Vch Filter
ACHRANGE	IQUANT	2	Ach Range
ACHOFFSETENABLE	TOGGLE	F	Ach Offset Enable
ACHOFFSET	QUANT	0	Ach Offset (V)
ACHFILTER	IQUANT	3	Ach Filter
IERANGELOWERLIMIT	IQUANT	2	I/E Range Lower Limit
IERANGEMODE	TOGGLE	F	I/E AutoRange
IERANGE	IQUANT	11	I/E Range
POSFEEDENABLE	TOGGLE	F	Positive Feedback IR Comp
POSFEEDRESISTANCE	QUANT	0	Positive Feedback Resistance (ohm)
ACHSELECT	IQUANT	0	Ach Select
CABLEID	IQUANT	13	Cable ID
DCCALDATE	LABEL	7/31/2020	DC Calibration Date
ACCALDATE	LABEL	7/31/2020	AC Calibration Date
THERMOSELECT	IQUANT	1	Thermo Select
FRAMEWORKVERSION	QUANT	6.33	Framework Version
INSTRUMENTVERSION	LABEL	3.50	Instrument Version
COMPLIANCEVOLTAGE	IQUANT	0	Compliance Voltage
ZCURVE	TABLE
	Pt	Time	Freq	Zreal	Zimag	Zsig	Zmod	Zphz	Idc	Vdc	IERange
	#	s	Hz	ohm	ohm	V	ohm	°	A	V	#
	0	10	300046.9	4.489223	2.319023	1	5.052821	27.31977	-0.0004484	0.0007795	10
	1	13	238359.4	4.458905	1.826022	1	4.818318	22.2702	-0.0003428	0.0001835	10
	2	17	189328.1	4.438135	1.435639	1	4.664558	17.92526	-0.0002175	0.0001347	10
	3	19	150421.9	4.430887	1.116635	1	4.569423	14.14467	0.0003782	-0.0009469	10
	4	22	119484.4	4.427521	0.8742871	1	4.513017	11.17029	-0.0002743	0.0005914	10
	5	24	94921.88	4.429186	0.6815698	1	4.48132	8.74814	-0.000127	0.0006507	10
	6	27	75421.88	4.430071	0.5050562	1	4.458768	6.504001	5.962984E-005	0.0005768	10
	7	29	59859.37	4.433222	0.3547667	1	4.447395	4.57532	-0.0001027	0.000594	10
	8	32	47578.12	4.438005	0.2233444	1	4.443621	2.881003	0.0001647	0.0002576	10
	9	34	37828.12	4.446527	0.1061731	1	4.447795	1.367834	0.0000999	0.0005563	10
	10	37	30046.88	4.455238	-0.0059237	1	4.455242	-0.0761812	0.0001368	0.0004321	10
	11	39	23859.38	4.464539	-0.1149676	1	4.466019	-1.475113	-0.000174	0.0010109	10
	12	42	18984.38	4.475766	-0.2268035	1	4.481509	-2.900907	-6.188098E-005	0.0008978	10
	13	44	15046.87	4.487739	-0.3515923	1	4.50149	-4.479693	-0.0001619	0.0008932	10
	14	46	11953.13	4.50238	-0.4905508	1	4.529025	-6.218058	0.0001639	0.0003679	10
	15	49	9515.62	4.518881	-0.6516637	1	4.565628	-8.205998	0.0001676	0.0003154	10
	16	51	7546.875	4.540377	-0.8448582	1	4.618312	-10.54085	9.304473E-005	0.0005737	10
	17	53	5928.309	4.565474	-1.092217	1	4.694304	-13.45424	-0.0001045	0.0007079	10
	18	55	4733.456	4.596305	-1.373559	1	4.797154	-16.63824	4.113096E-005	0.000729	10
	19	58	3796.875	4.631515	-1.705864	1	4.935676	-20.21959	4.766637E-005	0.000359	10
	20	60	2987.132	4.682033	-2.155517	1	5.154385	-24.72042	-0.0001454	0.000851	10
	21	62	2390.625	4.73816	-2.672428	1	5.439856	-29.42397	0.0001725	0.0002973	10
	22	65	1884.191	4.820944	-3.351353	1	5.871377	-34.80569	-0.0001056	0.000703	10
	23	67	1516.544	4.910886	-4.116207	1	6.407805	-39.96907	-0.0001404	0.0008315	10
	24	69	1193.986	5.040111	-5.158368	1	7.211899	-45.66435	-0.0001596	0.0009372	10
	25	72	946.5144	5.203714	-6.414144	1	8.259532	-50.94802	0.0001054	0.0005989	10
	26	74	751.7689	5.419191	-7.948269	1	9.61991	-55.71353	0.0001007	0.0005821	10
	27	76	597.4265	5.690947	-9.84114	1	11.36815	-59.96	-0.0001138	0.0010252	10
	28	79	477.4305	6.035436	-12.10034	1	13.52201	-63.49079	-2.736895E-006	0.0006645	10
	29	81	376.6741	6.502033	-15.03822	1	16.38366	-66.61793	-2.917487E-006	0.0006577	10
	30	83	298.2954	7.088914	-18.60281	1	19.90771	-69.13981	-4.229916E-006	0.0006612	10
	31	86	237.7717	7.808625	-22.85021	1	24.1476	-71.13311	-3.970622E-006	0.0006548	10
	32	88	189.0121	8.718219	-28.11879	1	29.43932	-72.77397	-3.352488E-006	0.0006522	10
	33	91	150.2404	9.85048	-34.57685	1	35.95261	-74.09846	-2.939893E-006	0.0006529	10
	34	93	119.1737	11.26569	-42.53871	1	44.0052	-75.16666	-1.178986E-007	5.196876E-005	9
	35	95	95.0169	13.01771	-52.13868	1	53.73921	-75.9813	-1.780098E-007	5.368585E-005	9
	36	98	75.60484	15.25515	-64.02501	1	65.81733	-76.59811	-3.420015E-007	5.918165E-005	9
	37	100	54.50582	19.59377	-85.86022	1	88.06755	-77.14493	-3.141741E-007	5.126604E-005	9
	38	103	45.95588	22.591	-100.0413	1	102.5603	-77.27508	-1.532693E-007	5.865019E-005	9
	39	105	37.20238	27.20117	-120.752	1	123.7779	-77.30518	-3.748142E-007	5.887304E-005	9
	40	108	30.04808	33.25768	-145.9726	1	149.7133	-77.1651	-2.351769E-007	5.168517E-005	9
	41	110	23.91582	41.55389	-178.2447	1	183.0243	-76.87711	-2.920062E-007	5.227536E-005	9
	42	112	18.60119	53.66986	-221.7469	1	228.1494	-76.39423	-4.263707E-007	6.018147E-005	9
	43	115	15.02404	67.07887	-266.2726	1	274.5918	-75.86037	-3.763751E-007	5.520763E-005	9
	44	117	12.01923	84.94341	-321.367	1	332.4036	-75.19424	-1.018032E-007	6.320247E-005	9
	45	119	9.450605	109.3653	-392.3927	1	407.3485	-74.42611	-4.070257E-008	5.942948E-005	9
	46	122	7.512019	138.1257	-471.6617	1	491.4707	-73.67738	-2.279355E-007	0.0006247	8
	47	125	5.978954	174.6262	-566.8787	1	593.1659	-72.87862	-1.474594E-007	0.0006314	8
	48	128	4.734848	221.3182	-683.2615	1	718.2117	-72.05212	-2.806235E-007	0.0006112	8
	49	131	3.75601	279.7925	-821.0234	1	867.3887	-71.18166	-1.293503E-007	0.0006544	8
	50	134	3.004808	351.063	-978.306	1	1039.388	-70.25958	-2.090013E-007	0.0006562	8
	51	138	2.372217	448.009	-1174.546	1	1257.088	-69.12156	-2.386803E-007	0.0006466	8
	52	142	1.878005	575.8199	-1406.38	1	1519.695	-67.73414	-1.80189E-007	0.0006161	8
	53	147	1.512097	725.9379	-1655.287	1	1807.474	-66.31981	-1.977643E-007	0.0007295	8
	54	152	1.201923	936.346	-1955.939	1	2168.511	-64.41866	-1.637907E-007	0.0006243	8
	55	159	0.956633	1206.166	-2289.926	1	2588.165	-62.22301	-3.423713E-007	-1.650952E-006	8
