EXPLAIN
TAG	EISPOT
TITLE	LABEL	Potentiostatic EIS	Test Identifier
DATE	LABEL	9/11/2020	Date
TIME	LABEL	17:58:11	Time
NOTES	NOTES	1	Notes...
	
PSTAT	PSTAT	REF3000-16137	Potentiostat
VDC	POTEN	0.00000E+000	T	DC Voltage (V)
FREQINIT	QUANT	3.00000E+005	Initial Freq. (Hz)
FREQFINAL	QUANT	1.00000E+000	Final Freq. (Hz)
PTSPERDEC	QUANT	1.00000E+001	Points/decade
VAC	QUANT	5.00000E+001	AC Voltage (mV rms)
AREA	QUANT	1.00000E+000	Sample Area (cm^2)
SPEED	SELECTOR	2	Optimize for:
ZGUESS	QUANT	1.00000E+003	Estimated Z (ohms)
EOC	QUANT	0	Open Circuit (V)
SEQUENCER	TOGGLE	TRUE	Run as Sequence
PSTATMODEL	IQUANT	5	Pstat Model
PSTATSECTION	LABEL	REF3000-16137	Pstat Section
PSTATSERIALNO	LABEL	16137	Pstat Serial Number
CTRLMODE	IQUANT	1	Control Mode
IESTAB	IQUANT	0	I/E Stability
CASPEED	IQUANT	1	Control Amp Speed
CONVENTION	IQUANT	1	Current Convention
ICHRANGE	IQUANT	2	Ich Range
ICHRANGEMODE	TOGGLE	F	Ich Auto Range
ICHOFFSETENABLE	TOGGLE	T	Ich Offset Enable
ICHOFFSET	QUANT	0	Ich Offset (V)
ICHFILTER	IQUANT	3	Ich Filter
VCHRANGE	IQUANT	2	Vch Range
VCHRANGEMODE	TOGGLE	F	Vch Auto Range
VCHOFFSETENABLE	TOGGLE	T	Vch Offset Enable
VCHOFFSET	QUANT	0	Vch Offset (V)
VCHFILTER	IQUANT	3	Vch Filter
ACHRANGE	IQUANT	2	Ach Range
ACHOFFSETENABLE	TOGGLE	F	Ach Offset Enable
ACHOFFSET	QUANT	0	Ach Offset (V)
ACHFILTER	IQUANT	3	Ach Filter
IERANGELOWERLIMIT	IQUANT	2	I/E Range Lower Limit
IERANGEMODE	TOGGLE	F	I/E AutoRange
IERANGE	IQUANT	11	I/E Range
POSFEEDENABLE	TOGGLE	F	Positive Feedback IR Comp
POSFEEDRESISTANCE	QUANT	0	Positive Feedback Resistance (ohm)
ACHSELECT	IQUANT	0	Ach Select
CABLEID	IQUANT	13	Cable ID
DCCALDATE	LABEL	7/31/2020	DC Calibration Date
ACCALDATE	LABEL	7/31/2020	AC Calibration Date
THERMOSELECT	IQUANT	1	Thermo Select
FRAMEWORKVERSION	QUANT	6.33	Framework Version
INSTRUMENTVERSION	LABEL	3.50	Instrument Version
COMPLIANCEVOLTAGE	IQUANT	0	Compliance Voltage
ZCURVE	TABLE
	Pt	Time	Freq	Zreal	Zimag	Zsig	Zmod	Zphz	Idc	Vdc	IERange
	#	s	Hz	ohm	ohm	V	ohm	°	A	V	#
	0	8	300046.9	14.14522	2.230819	1	14.32005	8.962202	0.0005989	-0.0010196	10
	1	11	238359.4	14.18474	1.777264	1	14.29565	7.141604	0.0004996	-0.0016526	10
	2	14	189328.1	14.16391	1.37344	1	14.23035	5.538515	1.329333E-005	-0.0007849	10
	3	17	150421.9	14.21206	1.072305	1	14.25246	4.314811	0.0001556	0.0012776	10
	4	19	119484.4	14.22696	0.8291669	1	14.2511	3.335505	0.0005687	-0.0013098	10
	5	22	94921.88	14.26613	0.6446878	1	14.28069	2.587441	-0.0001311	0.0014382	10
	6	24	75421.88	14.29298	0.4557269	1	14.30024	1.826238	0.0002075	-0.0001803	10
	7	27	59859.37	14.33412	0.3040051	1	14.33734	1.214975	0.0001957	0.0003316	10
	8	29	47578.12	14.37615	0.1741707	1	14.3772	0.6941188	7.703443E-005	0.0009147	10
	9	32	37828.12	14.41861	0.0550661	1	14.41872	0.2188172	0.0001425	0.0006484	10
	10	34	30046.88	14.45703	-0.0586101	1	14.45715	-0.2322811	5.0619E-005	-6.793324E-005	10
	11	37	23859.38	14.5003	-0.1725265	1	14.50133	-0.6816807	-0.0002175	0.0010606	10
	12	39	18984.38	14.547	-0.2954118	1	14.55	-1.163369	0.0002155	-0.0001325	10
	13	42	15046.87	14.59455	-0.4333027	1	14.60099	-1.700574	0.0001113	-0.0001631	10
	14	44	11953.13	14.62737	-0.5841638	1	14.63902	-2.28697	0.0001051	-0.0001059	10
	15	46	9515.62	14.68345	-0.7703941	1	14.70365	-3.003373	0.0002272	0.0001646	10
	16	48	7546.875	14.71858	-0.987881	1	14.7517	-3.839814	0.0002275	-0.0000967	10
	17	51	5928.309	14.78959	-1.276862	1	14.8446	-4.934409	0.0001504	0.0006694	10
	18	53	4733.456	14.85778	-1.578033	1	14.94134	-6.062611	-6.108361E-005	0.001341	10
	19	55	3796.875	14.92703	-1.975107	1	15.05713	-7.537451	8.306838E-006	0.0006839	10
	20	58	2987.132	15.00719	-2.490313	1	15.21241	-9.42188	-2.510841E-005	0.000681	10
	21	60	2390.625	15.09686	-3.08426	1	15.40869	-11.54653	-7.564639E-007	0.0006919	10
	22	62	1884.191	15.20265	-3.872243	1	15.68805	-14.28987	6.085935E-006	0.0006485	10
	23	65	1516.544	15.325	-4.7583	1	16.04672	-17.24918	-2.500997E-005	0.0006598	10
	24	67	1193.986	15.47943	-5.969463	1	16.59057	-21.08856	-2.452702E-005	0.0007111	10
	25	69	946.5144	15.66411	-7.441556	1	17.34188	-25.41102	2.461646E-005	0.0006362	10
	26	72	751.7689	15.88987	-9.244261	1	18.38326	-30.18959	2.465519E-005	0.0006146	10
	27	74	597.4265	16.17666	-11.47782	1	19.83494	-35.35684	-2.6502E-005	0.000658	10
	28	76	477.4305	16.52399	-14.16236	1	21.76269	-40.59917	-2.346443E-006	0.0006525	10
	29	79	376.6741	16.98564	-17.67913	1	24.5166	-46.14608	-2.316931E-006	0.0006478	10
	30	81	298.2954	17.56848	-21.98378	1	28.1414	-51.36967	-1.890219E-006	0.0006545	10
	31	83	237.7717	18.28967	-27.1487	1	32.73475	-56.03245	-2.509218E-006	0.0006537	10
	32	86	189.0121	19.22066	-33.58879	1	38.69936	-60.22034	-2.416049E-006	0.0006524	10
	33	88	150.2404	20.38787	-41.47419	1	46.21443	-63.8222	1.178447E-006	4.872344E-005	9
	34	91	119.1737	21.92526	-51.32211	1	55.80929	-66.86739	1.267536E-006	4.838465E-005	9
	35	93	95.0169	23.83839	-63.13817	1	67.4885	-69.31551	1.203745E-006	4.484085E-005	9
	36	95	75.60484	26.2702	-77.73158	1	82.05073	-71.32678	1.260137E-006	4.245502E-005	9
	37	98	54.50582	30.83483	-104.4992	1	108.9535	-73.56013	1.161977E-006	4.142208E-005	9
	38	101	45.95588	33.8541	-121.8854	1	126.4996	-74.47718	1.257007E-006	4.786916E-005	9
	39	103	37.20238	38.30309	-147.388	1	152.2838	-75.43226	1.185021E-006	4.99667E-005	9
	40	105	30.04808	43.76299	-178.5824	1	183.8665	-76.23058	8.117464E-007	0.0001001	9
	41	108	23.91582	50.98726	-219.245	1	225.0957	-76.9081	1.260211E-006	4.938489E-005	9
	42	110	18.60119	61.08686	-274.8174	1	281.5248	-77.46795	1.121159E-006	5.154875E-005	9
	43	112	15.02404	72.05959	-333.1324	1	340.8368	-77.79444	1.461065E-006	5.860587E-005	9
	44	115	12.01923	86.672	-406.9947	1	416.121	-77.9781	1.126598E-006	5.097542E-005	9
	45	117	9.450605	106.7062	-502.8874	1	514.0836	-78.02026	3.874678E-007	0.0006329	8
	46	120	7.512019	132.1961	-617.0111	1	631.0139	-77.90707	4.240246E-007	0.0006296	8
	47	122	5.978954	164.9186	-754.6808	1	772.4903	-77.67307	4.430155E-007	0.0006258	8
	48	125	4.734848	208.6978	-926.6493	1	949.8598	-77.30775	5.596112E-007	0.0006292	8
	49	129	3.75601	264.3878	-1132.133	1	1162.595	-76.85526	4.827863E-007	0.0006203	8
	50	132	3.004808	333.6046	-1369	1	1409.061	-76.3048	5.577006E-007	0.0005986	8
	51	136	2.372217	426.29	-1671.741	1	1725.236	-75.69457	5.172232E-007	0.0005524	8
	52	140	1.878005	540.7401	-2029.926	1	2100.714	-75.0837	5.416875E-007	0.0006394	8
	53	145	1.512097	673.1241	-2422.923	1	2514.688	-74.47392	5.178527E-007	0.0005526	8
	54	150	1.201923	841.6062	-2931.407	1	3049.828	-73.98124	5.357647E-007	0.0006541	8
	55	156	0.956633	1048.165	-3532.804	1	3685.018	-73.47464	5.143257E-007	-9.422849E-006	8
