EXPLAIN
TAG	EISPOT
TITLE	LABEL	Potentiostatic EIS	Test Identifier
DATE	LABEL	9/11/2020	Date
TIME	LABEL	17:47:07	Time
NOTES	NOTES	1	Notes...
	
PSTAT	PSTAT	REF3000-16137	Potentiostat
VDC	POTEN	0.00000E+000	T	DC Voltage (V)
FREQINIT	QUANT	3.00000E+005	Initial Freq. (Hz)
FREQFINAL	QUANT	1.00000E+000	Final Freq. (Hz)
PTSPERDEC	QUANT	1.00000E+001	Points/decade
VAC	QUANT	5.00000E+001	AC Voltage (mV rms)
AREA	QUANT	1.00000E+000	Sample Area (cm^2)
SPEED	SELECTOR	2	Optimize for:
ZGUESS	QUANT	1.00000E+003	Estimated Z (ohms)
EOC	QUANT	0	Open Circuit (V)
SEQUENCER	TOGGLE	TRUE	Run as Sequence
PSTATMODEL	IQUANT	5	Pstat Model
PSTATSECTION	LABEL	REF3000-16137	Pstat Section
PSTATSERIALNO	LABEL	16137	Pstat Serial Number
CTRLMODE	IQUANT	1	Control Mode
IESTAB	IQUANT	0	I/E Stability
CASPEED	IQUANT	1	Control Amp Speed
CONVENTION	IQUANT	1	Current Convention
ICHRANGE	IQUANT	2	Ich Range
ICHRANGEMODE	TOGGLE	F	Ich Auto Range
ICHOFFSETENABLE	TOGGLE	T	Ich Offset Enable
ICHOFFSET	QUANT	0	Ich Offset (V)
ICHFILTER	IQUANT	3	Ich Filter
VCHRANGE	IQUANT	2	Vch Range
VCHRANGEMODE	TOGGLE	F	Vch Auto Range
VCHOFFSETENABLE	TOGGLE	T	Vch Offset Enable
VCHOFFSET	QUANT	0	Vch Offset (V)
VCHFILTER	IQUANT	3	Vch Filter
ACHRANGE	IQUANT	2	Ach Range
ACHOFFSETENABLE	TOGGLE	F	Ach Offset Enable
ACHOFFSET	QUANT	0	Ach Offset (V)
ACHFILTER	IQUANT	3	Ach Filter
IERANGELOWERLIMIT	IQUANT	2	I/E Range Lower Limit
IERANGEMODE	TOGGLE	F	I/E AutoRange
IERANGE	IQUANT	11	I/E Range
POSFEEDENABLE	TOGGLE	F	Positive Feedback IR Comp
POSFEEDRESISTANCE	QUANT	0	Positive Feedback Resistance (ohm)
ACHSELECT	IQUANT	0	Ach Select
CABLEID	IQUANT	13	Cable ID
DCCALDATE	LABEL	7/31/2020	DC Calibration Date
ACCALDATE	LABEL	7/31/2020	AC Calibration Date
THERMOSELECT	IQUANT	1	Thermo Select
FRAMEWORKVERSION	QUANT	6.33	Framework Version
INSTRUMENTVERSION	LABEL	3.50	Instrument Version
COMPLIANCEVOLTAGE	IQUANT	0	Compliance Voltage
ZCURVE	TABLE
	Pt	Time	Freq	Zreal	Zimag	Zsig	Zmod	Zphz	Idc	Vdc	IERange
	#	s	Hz	ohm	ohm	V	ohm	°	A	V	#
	0	8	300046.9	8.013793	2.293473	1	8.33552	15.97063	0.0003956	-0.0002139	10
	1	12	238359.4	8.006655	1.813681	1	8.209504	12.76334	-0.000218	-0.0001742	10
	2	15	189328.1	7.99797	1.424431	1	8.123824	10.09844	-0.0005257	0.0018532	10
	3	17	150421.9	7.996706	1.115548	1	8.074142	7.941561	-0.0002851	0.000443	10
	4	20	119484.4	8.011194	0.8591933	1	8.057137	6.121521	0.0001225	0.0010402	10
	5	22	94921.88	8.025007	0.6750094	1	8.053346	4.808016	-9.001784E-006	0.0001871	10
	6	25	75421.88	8.034369	0.4939946	1	8.049541	3.518412	5.231087E-005	6.959604E-005	10
	7	27	59859.37	8.04889	0.3383768	1	8.056	2.407307	-0.0001629	0.0011883	10
	8	30	47578.12	8.06516	0.203316	1	8.067722	1.444074	0.0001657	0.0003507	10
	9	32	37828.12	8.086367	0.082866	1	8.086791	0.5871249	-6.91867E-005	0.0004285	10
	10	35	30046.88	8.106631	-0.0290205	1	8.106683	-0.2051092	-0.0001949	0.0012138	10
	11	38	23859.38	8.127452	-0.1434113	1	8.128717	-1.010896	-6.291378E-005	0.0011193	10
	12	40	18984.38	8.147726	-0.2619056	1	8.151935	-1.841117	0.0001852	0.0003514	10
	13	42	15046.87	8.166061	-0.3947257	1	8.175596	-2.767372	-0.0001958	0.0010525	10
	14	45	11953.13	8.191753	-0.5415705	1	8.209636	-3.782416	0.0001528	2.312012E-005	10
	15	47	9515.62	8.221612	-0.711683	1	8.252357	-4.947332	-0.0001572	0.0011637	10
	16	49	7546.875	8.248384	-0.9210039	1	8.299644	-6.371182	0.0001151	2.515947E-005	10
	17	51	5928.309	8.291677	-1.185244	1	8.37596	-8.134967	1.175543E-006	0.0010274	10
	18	54	4733.456	8.32885	-1.488977	1	8.460897	-10.13589	0.0001939	2.658105E-005	10
	19	56	3796.875	8.37905	-1.84853	1	8.580533	-12.44093	-6.804853E-005	0.001143	10
	20	58	2987.132	8.431724	-2.332739	1	8.748465	-15.46475	5.072849E-005	0.0001459	10
	21	61	2390.625	8.503849	-2.895425	1	8.983258	-18.80289	0.0001914	3.58386E-005	10
	22	63	1884.191	8.592623	-3.614672	1	9.321964	-22.81511	-0.0001817	0.0009129	10
	23	65	1516.544	8.686589	-4.461332	1	9.76526	-27.18451	0.0001781	0.0003964	10
	24	68	1193.986	8.822658	-5.599479	1	10.44957	-32.40208	-0.0001955	0.0012524	10
	25	70	946.5144	8.99698	-6.970989	1	11.38158	-37.76904	0.0001703	0.0004356	10
	26	72	751.7689	9.204329	-8.653707	1	12.63354	-43.23394	0.0001748	0.0003836	10
	27	75	597.4265	9.473909	-10.72935	1	14.31342	-48.55582	-0.0001223	0.0012803	10
	28	77	477.4305	9.80793	-13.22527	1	16.46522	-53.43917	-2.998212E-006	0.0006629	10
	29	79	376.6741	10.26483	-16.48796	1	19.42214	-58.09503	-2.949635E-006	0.0006575	10
	30	82	298.2954	10.84588	-20.46555	1	23.16186	-62.07828	-2.071286E-006	0.0006567	10
	31	84	237.7717	11.57236	-25.22279	1	27.75083	-65.35408	-2.482467E-006	0.0006561	10
	32	87	189.0121	12.51346	-31.13666	1	33.55708	-68.10538	-2.618949E-006	0.0006541	10
	33	89	150.2404	13.7053	-38.38555	1	40.75887	-70.35123	-3.044255E-006	0.0006493	10
	34	91	119.1737	15.20045	-47.30788	1	49.68993	-72.18732	2.40765E-007	5.620689E-005	9
	35	94	95.0169	17.04275	-58.04527	1	60.49552	-73.63716	1.729617E-007	5.580639E-005	9
	36	96	75.60484	19.34809	-71.31464	1	73.89268	-74.8207	2.338863E-007	5.611089E-005	9
	37	99	54.50582	23.63109	-95.7071	1	98.5813	-76.13047	2.352925E-007	4.233998E-005	9
	38	101	45.95588	26.49056	-111.6031	1	114.704	-76.64716	8.057941E-007	-4.544188E-006	9
	39	104	37.20238	30.78262	-134.9496	1	138.4159	-77.15043	9.663222E-008	6.215413E-005	9
	40	106	30.04808	36.20862	-163.5497	1	167.5099	-77.51652	3.925737E-007	4.52399E-005	9
	41	108	23.91582	43.5746	-200.6245	1	205.302	-77.74597	2.290444E-007	4.654104E-005	9
	42	111	18.60119	54.27978	-251.3277	1	257.1224	-77.8129	3.880161E-007	6.076731E-005	9
	43	113	15.02404	66.19029	-304.002	1	311.1244	-77.71671	3.507433E-008	5.524649E-005	9
	44	115	12.01923	82.35978	-370.1547	1	379.2065	-77.45597	3.510756E-007	6.098868E-005	9
	45	118	9.450605	104.4298	-454.7597	1	466.5962	-77.06698	1.496155E-007	0.0006252	8
	46	120	7.512019	132.2063	-554.4609	1	570.0048	-76.58875	1.083791E-007	0.0006234	8
	47	123	5.978954	167.7157	-673.3458	1	693.9187	-76.01348	1.816712E-007	0.0006266	8
	48	126	4.734848	213.9118	-818.7352	1	846.2184	-75.35759	1.276079E-007	0.0006127	8
	49	129	3.75601	271.2824	-992.085	1	1028.507	-74.70651	1.854513E-007	0.0006529	8
	50	133	3.004808	339.2896	-1190.363	1	1237.773	-74.09084	1.924319E-007	0.0006198	8
	51	136	2.372217	430.9342	-1442.367	1	1505.366	-73.3655	1.594042E-007	0.0005606	8
	52	141	1.878005	539.4485	-1742.927	1	1824.5	-72.80233	2.171269E-007	0.0006349	8
	53	145	1.512097	664.2638	-2069.668	1	2173.654	-72.20587	1.57092E-007	0.0006152	8
	54	151	1.201923	833.283	-2495.408	1	2630.859	-71.53446	1.998339E-007	0.0006561	8
	55	157	0.956633	1045.001	-2995.168	1	3172.233	-70.76634	1.456511E-007	-1.377165E-005	8
