EXPLAIN
TAG	EISPOT
TITLE	LABEL	Potentiostatic EIS	Test Identifier
DATE	LABEL	9/11/2020	Date
TIME	LABEL	17:16:23	Time
NOTES	NOTES	1	Notes...
	
PSTAT	PSTAT	REF3000-16137	Potentiostat
VDC	POTEN	0.00000E+000	T	DC Voltage (V)
FREQINIT	QUANT	3.00000E+005	Initial Freq. (Hz)
FREQFINAL	QUANT	1.00000E+000	Final Freq. (Hz)
PTSPERDEC	QUANT	1.00000E+001	Points/decade
VAC	QUANT	5.00000E+001	AC Voltage (mV rms)
AREA	QUANT	1.00000E+000	Sample Area (cm^2)
SPEED	SELECTOR	2	Optimize for:
ZGUESS	QUANT	1.00000E+003	Estimated Z (ohms)
EOC	QUANT	0	Open Circuit (V)
SEQUENCER	TOGGLE	TRUE	Run as Sequence
PSTATMODEL	IQUANT	5	Pstat Model
PSTATSECTION	LABEL	REF3000-16137	Pstat Section
PSTATSERIALNO	LABEL	16137	Pstat Serial Number
CTRLMODE	IQUANT	1	Control Mode
IESTAB	IQUANT	0	I/E Stability
CASPEED	IQUANT	1	Control Amp Speed
CONVENTION	IQUANT	1	Current Convention
ICHRANGE	IQUANT	2	Ich Range
ICHRANGEMODE	TOGGLE	F	Ich Auto Range
ICHOFFSETENABLE	TOGGLE	T	Ich Offset Enable
ICHOFFSET	QUANT	0	Ich Offset (V)
ICHFILTER	IQUANT	3	Ich Filter
VCHRANGE	IQUANT	2	Vch Range
VCHRANGEMODE	TOGGLE	F	Vch Auto Range
VCHOFFSETENABLE	TOGGLE	T	Vch Offset Enable
VCHOFFSET	QUANT	0	Vch Offset (V)
VCHFILTER	IQUANT	3	Vch Filter
ACHRANGE	IQUANT	2	Ach Range
ACHOFFSETENABLE	TOGGLE	F	Ach Offset Enable
ACHOFFSET	QUANT	0	Ach Offset (V)
ACHFILTER	IQUANT	3	Ach Filter
IERANGELOWERLIMIT	IQUANT	2	I/E Range Lower Limit
IERANGEMODE	TOGGLE	F	I/E AutoRange
IERANGE	IQUANT	11	I/E Range
POSFEEDENABLE	TOGGLE	F	Positive Feedback IR Comp
POSFEEDRESISTANCE	QUANT	0	Positive Feedback Resistance (ohm)
ACHSELECT	IQUANT	0	Ach Select
CABLEID	IQUANT	13	Cable ID
DCCALDATE	LABEL	7/31/2020	DC Calibration Date
ACCALDATE	LABEL	7/31/2020	AC Calibration Date
THERMOSELECT	IQUANT	1	Thermo Select
FRAMEWORKVERSION	QUANT	6.33	Framework Version
INSTRUMENTVERSION	LABEL	3.50	Instrument Version
COMPLIANCEVOLTAGE	IQUANT	0	Compliance Voltage
ZCURVE	TABLE
	Pt	Time	Freq	Zreal	Zimag	Zsig	Zmod	Zphz	Idc	Vdc	IERange
	#	s	Hz	ohm	ohm	V	ohm	°	A	V	#
	0	10	300046.9	3.386131	2.306068	1	4.096807	34.25616	5.665901E-005	7.732453E-005	10
	1	13	238359.4	3.361977	1.825711	1	3.825717	28.50404	0.0002647	-0.0006499	10
	2	16	189328.1	3.341755	1.435322	1	3.63696	23.24407	0.0001472	-0.0006729	10
	3	19	150421.9	3.33035	1.120653	1	3.513844	18.59793	0.0003015	-0.000227	10
	4	21	119484.4	3.327306	0.8487593	1	3.433855	14.31034	0.0003293	-4.241822E-005	11
	5	25	94921.88	3.323188	0.650817	1	3.386316	11.08063	-0.0002151	0.000606	11
	6	27	75421.88	3.320579	0.4827729	1	3.35549	8.272168	0.0001733	0.000609	11
	7	30	59859.37	3.32053	0.3393955	1	3.33783	5.836005	-0.0001998	0.0006128	11
	8	32	47578.12	3.322388	0.2162527	1	3.329419	3.724102	0.0001808	0.0006599	11
	9	35	37828.12	3.32425	0.1046834	1	3.325898	1.803697	0.0001958	0.0006125	11
	10	37	30046.88	3.329584	-0.0002837	1	3.329584	-0.0048826	0.000209	0.0006586	11
	11	40	23859.38	3.335471	-0.1038837	1	3.337088	-1.783909	-7.19592E-005	0.0006709	11
	12	42	18984.38	3.342762	-0.2115654	1	3.349451	-3.621453	-0.0001438	0.0007273	11
	13	45	15046.87	3.350139	-0.3303732	1	3.36639	-5.632	-0.0001586	0.0006488	11
	14	47	11953.13	3.361184	-0.4630758	1	3.392934	-7.844351	4.377289E-005	0.0006246	11
	15	49	9515.62	3.373812	-0.6159354	1	3.429575	-10.34619	-0.000241	0.0006766	11
	16	52	7546.875	3.390763	-0.8005561	1	3.483987	-13.28421	-0.0002255	0.0006566	11
	17	54	5928.309	3.413011	-1.034523	1	3.566354	-16.86265	-0.0001987	0.0006672	11
	18	56	4733.456	3.442153	-1.299974	1	3.67945	-20.6897	-0.000134	0.0008025	10
	19	58	3796.875	3.475558	-1.619208	1	3.834233	-24.98007	0.0001263	0.0005032	10
	20	61	2987.132	3.521771	-2.043963	1	4.071935	-30.12999	-1.957263E-005	0.0007897	10
	21	63	2390.625	3.576719	-2.532452	1	4.382492	-35.29994	0.0001028	0.0003826	10
	22	65	1884.191	3.655843	-3.174023	1	4.841447	-40.9647	-1.526216E-005	0.0007745	10
	23	68	1516.544	3.748412	-3.892436	1	5.403856	-46.07985	0.000146	0.0003593	10
	24	70	1193.986	3.880641	-4.870755	1	6.227651	-51.45487	0.0001529	0.000346	10
	25	73	946.5144	4.049769	-6.043251	1	7.274717	-56.17274	0.0001221	0.0004859	10
	26	75	751.7689	4.258699	-7.488002	1	8.61433	-60.37153	2.871745E-005	0.0006967	10
	27	77	597.4265	4.537245	-9.240518	1	10.29436	-63.84821	0.0001508	0.0003794	10
	28	79	477.4305	4.886034	-11.33954	1	12.34741	-66.68953	-4.007625E-006	0.0006568	10
	29	82	376.6741	5.348083	-14.06173	1	15.04441	-69.17674	-4.151746E-006	0.0006594	10
	30	84	298.2954	5.922412	-17.36168	1	18.34402	-71.16447	-3.680473E-006	0.0006522	10
	31	86	237.7717	6.619296	-21.29294	1	22.29808	-72.7312	7.499668E-007	0.0005951	10
	32	89	189.0121	7.508057	-26.17367	1	27.22925	-73.99418	-3.848701E-006	0.0006579	10
	33	91	150.2404	8.627711	-32.16713	1	33.30407	-74.98578	-3.637496E-006	0.0006507	10
	34	94	119.1737	10.06538	-39.59787	1	40.85711	-75.73804	-3.523676E-006	0.0006589	10
	35	96	95.0169	11.85477	-48.44054	1	49.87004	-76.24838	-8.486077E-007	4.943936E-005	9
	36	99	75.60484	14.2109	-59.40887	1	61.08489	-76.54735	-1.093816E-006	6.236911E-005	9
	37	101	54.50582	18.89176	-79.42578	1	81.64162	-76.62057	-1.185588E-006	5.26717E-005	9
	38	104	45.95588	22.15298	-92.31087	1	94.93183	-76.50523	-7.943902E-007	5.994705E-005	9
	39	106	37.20238	27.23839	-111.0025	1	114.2956	-76.21288	-9.164679E-007	6.238829E-005	9
	40	108	30.04808	33.85276	-133.5517	1	137.7755	-75.77622	-8.217831E-007	5.027909E-005	9
	41	111	23.91582	42.80981	-162.0546	1	167.6137	-75.20226	-1.07335E-006	5.275944E-005	9
	42	113	18.60119	55.91034	-200.1343	1	207.7973	-74.39155	-1.020073E-006	5.299371E-005	9
	43	115	15.02404	70.08714	-238.5869	1	248.6683	-73.62936	-5.691971E-007	6.381414E-005	9
	44	118	12.01923	88.63203	-285.9234	1	299.3457	-72.77734	-7.606299E-007	5.954341E-005	9
	45	120	9.450605	113.9839	-346.316	1	364.5917	-71.78194	-8.482246E-007	4.73885E-005	9
	46	123	7.512019	144.0196	-413.4261	1	437.7931	-70.79389	-8.106424E-007	0.0006276	8
	47	125	5.978954	182.6573	-493.6013	1	526.3135	-69.69299	-7.485526E-007	0.0006402	8
	48	128	4.734848	233.42	-590.8302	1	635.2678	-68.44244	-8.920676E-007	0.0006251	8
	49	132	3.75601	299.0387	-702.889	1	763.8567	-66.95305	-6.824845E-007	0.0006569	8
	50	135	3.004808	381.0988	-826.9936	1	910.5793	-65.2586	-8.268367E-007	0.0006673	8
	51	139	2.372217	494.8039	-974.267	1	1092.715	-63.07521	-7.921229E-007	0.0006505	8
	52	143	1.878005	644.2493	-1134.868	1	1304.984	-60.417	-7.334926E-007	0.0006153	8
	53	148	1.512097	817.637	-1290.084	1	1527.366	-57.63406	-8.052546E-007	0.0007328	8
	54	153	1.201923	1046.563	-1451.845	1	1789.734	-54.21403	-7.13051E-007	0.0006247	8
	55	159	0.956633	1316.717	-1597.459	1	2070.174	-50.50271	-1.10313E-006	-4.900656E-006	8
