EXPLAIN
TAG	EISPOT
TITLE	LABEL	Potentiostatic EIS	Test Identifier
DATE	LABEL	9/11/2020	Date
TIME	LABEL	18:27:09	Time
NOTES	NOTES	1	Notes...
	
PSTAT	PSTAT	REF3000-16137	Potentiostat
VDC	POTEN	0.00000E+000	T	DC Voltage (V)
FREQINIT	QUANT	3.00000E+005	Initial Freq. (Hz)
FREQFINAL	QUANT	1.00000E+000	Final Freq. (Hz)
PTSPERDEC	QUANT	1.00000E+001	Points/decade
VAC	QUANT	5.00000E+001	AC Voltage (mV rms)
AREA	QUANT	1.00000E+000	Sample Area (cm^2)
SPEED	SELECTOR	2	Optimize for:
ZGUESS	QUANT	1.00000E+003	Estimated Z (ohms)
EOC	QUANT	0	Open Circuit (V)
SEQUENCER	TOGGLE	TRUE	Run as Sequence
PSTATMODEL	IQUANT	5	Pstat Model
PSTATSECTION	LABEL	REF3000-16137	Pstat Section
PSTATSERIALNO	LABEL	16137	Pstat Serial Number
CTRLMODE	IQUANT	1	Control Mode
IESTAB	IQUANT	0	I/E Stability
CASPEED	IQUANT	1	Control Amp Speed
CONVENTION	IQUANT	1	Current Convention
ICHRANGE	IQUANT	2	Ich Range
ICHRANGEMODE	TOGGLE	F	Ich Auto Range
ICHOFFSETENABLE	TOGGLE	T	Ich Offset Enable
ICHOFFSET	QUANT	0	Ich Offset (V)
ICHFILTER	IQUANT	3	Ich Filter
VCHRANGE	IQUANT	2	Vch Range
VCHRANGEMODE	TOGGLE	F	Vch Auto Range
VCHOFFSETENABLE	TOGGLE	T	Vch Offset Enable
VCHOFFSET	QUANT	0	Vch Offset (V)
VCHFILTER	IQUANT	3	Vch Filter
ACHRANGE	IQUANT	2	Ach Range
ACHOFFSETENABLE	TOGGLE	F	Ach Offset Enable
ACHOFFSET	QUANT	0	Ach Offset (V)
ACHFILTER	IQUANT	3	Ach Filter
IERANGELOWERLIMIT	IQUANT	2	I/E Range Lower Limit
IERANGEMODE	TOGGLE	F	I/E AutoRange
IERANGE	IQUANT	11	I/E Range
POSFEEDENABLE	TOGGLE	F	Positive Feedback IR Comp
POSFEEDRESISTANCE	QUANT	0	Positive Feedback Resistance (ohm)
ACHSELECT	IQUANT	0	Ach Select
CABLEID	IQUANT	13	Cable ID
DCCALDATE	LABEL	7/31/2020	DC Calibration Date
ACCALDATE	LABEL	7/31/2020	AC Calibration Date
THERMOSELECT	IQUANT	1	Thermo Select
FRAMEWORKVERSION	QUANT	6.33	Framework Version
INSTRUMENTVERSION	LABEL	3.50	Instrument Version
COMPLIANCEVOLTAGE	IQUANT	0	Compliance Voltage
ZCURVE	TABLE
	Pt	Time	Freq	Zreal	Zimag	Zsig	Zmod	Zphz	Idc	Vdc	IERange
	#	s	Hz	ohm	ohm	V	ohm	°	A	V	#
	0	18	300046.9	202.028	0.4986362	1	202.0286	0.1414146	-0.0006576	0.0216235	9
	1	28	238359.4	197.8779	-0.5502577	1	197.8787	-0.1593273	0.0001588	0.0088767	9
	2	41	189328.1	202.5762	-0.3190741	1	202.5764	-0.0902455	4.899082E-005	-0.0134223	9
	3	47	150421.9	204.9292	-1.741166	1	204.9366	-0.4867979	-1.299461E-006	0.0121426	9
	4	54	119484.4	207.3803	-1.827752	1	207.3883	-0.5049649	-0.0006547	0.0211002	9
	5	60	94921.88	209.491	-1.675022	1	209.4977	-0.4581085	0.0002509	-0.0072982	9
	6	64	75421.88	211.8014	-1.156229	1	211.8046	-0.312776	-8.279674E-005	-0.0029498	9
	7	67	59859.37	213.1517	-1.795507	1	213.1593	-0.4826258	0.0001979	-0.0090083	9
	8	71	47578.12	215.0911	-1.048672	1	215.0936	-0.2793421	-0.0002322	0.005033	9
	9	74	37828.12	217.0206	-1.300972	1	217.0246	-0.3434664	0.0001528	0.0002642	9
	10	78	30046.88	218.6168	-1.239799	1	218.6203	-0.324927	0.0002483	-0.0056043	9
	11	82	23859.38	220.6033	-1.088858	1	220.6059	-0.2827993	-0.0001532	-1.279686E-005	9
	12	86	18984.38	221.9167	-1.331085	1	221.9207	-0.3436634	7.244029E-005	-0.0074936	9
	13	89	15046.87	224.4112	-0.7751107	1	224.4126	-0.1978974	-0.0001491	0.0088936	9
	14	93	11953.13	226.2809	-0.968601	1	226.2829	-0.2452544	0.0001538	0.0003356	9
	15	97	9515.62	228.2915	-1.348766	1	228.2955	-0.3385044	-0.0002353	0.0068362	9
	16	101	7546.875	229.8919	-1.369866	1	229.896	-0.3414066	0.0002143	-0.0029378	9
	17	104	5928.309	232.3827	-1.845725	1	232.39	-0.4550684	-7.786568E-005	0.0077604	9
	18	109	4733.456	234.6735	-2.628573	1	234.6882	-0.641742	1.379083E-006	0.0058195	9
	19	113	3796.875	237.1163	-2.62275	1	237.1308	-0.6337245	1.78627E-006	0.0058253	9
	20	117	2987.132	239.2438	-3.186347	1	239.265	-0.7630436	-0.000221	0.0082111	9
	21	122	2390.625	242.4692	-4.707083	1	242.5148	-1.11215	-0.0001109	0.0018412	10
	22	127	1884.191	245.0575	-5.840881	1	245.1271	-1.365372	-0.0002571	0.0009452	10
	23	133	1516.544	249.1984	-6.786027	1	249.2908	-1.55986	-0.0002744	0.0011623	10
	24	138	1193.986	251.7554	-8.126041	1	251.8865	-1.848724	-0.0001378	0.0086212	9
	25	144	946.5144	254.1188	-10.16863	1	254.3222	-2.291483	-0.0002157	0.0080205	9
	26	148	751.7689	256.4107	-11.5161	1	256.6692	-2.57158	-0.0002247	0.0051296	9
	27	151	597.4265	258.7846	-13.8326	1	259.154	-3.059671	-0.0001409	0.0085478	9
	28	155	477.4305	262.0766	-18.50552	1	262.7291	-4.039016	-4.966555E-008	6.323689E-005	9
	29	158	376.6741	263.9832	-23.10125	1	264.9921	-5.00123	8.340826E-008	7.006812E-005	9
	30	161	298.2954	265.9293	-28.74927	1	267.4788	-6.170209	4.821517E-007	4.602361E-005	9
	31	163	237.7717	268.0567	-35.57129	1	270.4065	-7.559022	4.25399E-007	5.10632E-005	9
	32	166	189.0121	270.356	-44.124	1	273.933	-9.269349	1.001766E-007	6.739782E-005	9
	33	168	150.2404	272.9069	-54.77831	1	278.3502	-11.34968	2.893631E-007	3.214138E-005	9
	34	170	119.1737	275.7616	-68.15008	1	284.0579	-13.88159	3.980031E-007	3.658803E-005	9
	35	173	95.0169	278.9388	-84.30691	1	291.4009	-16.817	3.510296E-007	3.368048E-005	9
	36	175	75.60484	282.6998	-104.5242	1	301.4042	-20.29115	1.356207E-007	4.329103E-005	9
	37	178	54.50582	288.4985	-142.0414	1	321.5698	-26.21319	-2.257826E-008	6.142175E-005	9
	38	180	45.95588	292.8815	-166.7314	1	337.0148	-29.65197	2.41947E-007	-1.265366E-005	9
	39	183	37.20238	298.7714	-203.1288	1	361.2833	-34.21102	4.242581E-008	7.843312E-005	9
	40	185	30.04808	306.8681	-248.6295	1	394.9489	-39.01494	-4.036642E-007	0.0006589	8
	41	188	23.91582	314.872	-306.344	1	439.3075	-44.2135	-2.954916E-007	0.0006656	8
	42	190	18.60119	327.0105	-386.7729	1	506.4871	-49.786	-1.5451E-007	0.0006159	8
	43	192	15.02404	341.3139	-472.2688	1	582.6946	-54.14394	-3.025577E-007	0.0005827	8
	44	195	12.01923	359.0266	-581.285	1	683.2221	-58.29874	-3.479969E-007	0.0005555	8
	45	197	9.450605	380.8411	-722.52	1	816.7466	-62.20623	-1.917817E-007	0.0005916	8
	46	200	7.512019	409.0174	-891.5274	1	980.875	-65.35516	-2.655219E-007	0.0006655	8
	47	202	5.978954	444.8954	-1100.8	1	1187.305	-67.99359	-2.208249E-007	0.000565	8
	48	205	4.734848	491.0723	-1361.403	1	1447.263	-70.1651	-2.868064E-007	0.0005777	8
	49	209	3.75601	546.3972	-1676.29	1	1763.094	-71.9463	-2.189122E-007	0.0005814	8
	50	212	3.004808	614.295	-2049.566	1	2139.644	-73.3155	-2.894469E-007	0.0007235	8
	51	216	2.372217	703.8815	-2532.387	1	2628.39	-74.46664	-2.668956E-007	0.0006233	8
	52	220	1.878005	817.1964	-3130.188	1	3235.102	-75.36841	-2.362599E-007	0.0006021	8
	53	225	1.512097	936.8575	-3799.614	1	3913.408	-76.14906	-2.832282E-007	0.0006712	8
	54	230	1.201923	1119.602	-4746.733	1	4876.985	-76.72833	-6.023632E-008	0.0006081	7
	55	236	0.956633	1319.839	-5813.846	1	5961.777	-77.20969	-8.422999E-008	-4.627468E-005	7
