EXPLAIN
TAG	EISPOT
TITLE	LABEL	Potentiostatic EIS	Test Identifier
DATE	LABEL	9/11/2020	Date
TIME	LABEL	18:15:05	Time
NOTES	NOTES	1	Notes...
	
PSTAT	PSTAT	REF3000-16137	Potentiostat
VDC	POTEN	0.00000E+000	T	DC Voltage (V)
FREQINIT	QUANT	3.00000E+005	Initial Freq. (Hz)
FREQFINAL	QUANT	1.00000E+000	Final Freq. (Hz)
PTSPERDEC	QUANT	1.00000E+001	Points/decade
VAC	QUANT	5.00000E+001	AC Voltage (mV rms)
AREA	QUANT	1.00000E+000	Sample Area (cm^2)
SPEED	SELECTOR	2	Optimize for:
ZGUESS	QUANT	1.00000E+003	Estimated Z (ohms)
EOC	QUANT	0	Open Circuit (V)
SEQUENCER	TOGGLE	TRUE	Run as Sequence
PSTATMODEL	IQUANT	5	Pstat Model
PSTATSECTION	LABEL	REF3000-16137	Pstat Section
PSTATSERIALNO	LABEL	16137	Pstat Serial Number
CTRLMODE	IQUANT	1	Control Mode
IESTAB	IQUANT	0	I/E Stability
CASPEED	IQUANT	1	Control Amp Speed
CONVENTION	IQUANT	1	Current Convention
ICHRANGE	IQUANT	2	Ich Range
ICHRANGEMODE	TOGGLE	F	Ich Auto Range
ICHOFFSETENABLE	TOGGLE	T	Ich Offset Enable
ICHOFFSET	QUANT	0	Ich Offset (V)
ICHFILTER	IQUANT	3	Ich Filter
VCHRANGE	IQUANT	2	Vch Range
VCHRANGEMODE	TOGGLE	F	Vch Auto Range
VCHOFFSETENABLE	TOGGLE	T	Vch Offset Enable
VCHOFFSET	QUANT	0	Vch Offset (V)
VCHFILTER	IQUANT	3	Vch Filter
ACHRANGE	IQUANT	2	Ach Range
ACHOFFSETENABLE	TOGGLE	F	Ach Offset Enable
ACHOFFSET	QUANT	0	Ach Offset (V)
ACHFILTER	IQUANT	3	Ach Filter
IERANGELOWERLIMIT	IQUANT	2	I/E Range Lower Limit
IERANGEMODE	TOGGLE	F	I/E AutoRange
IERANGE	IQUANT	11	I/E Range
POSFEEDENABLE	TOGGLE	F	Positive Feedback IR Comp
POSFEEDRESISTANCE	QUANT	0	Positive Feedback Resistance (ohm)
ACHSELECT	IQUANT	0	Ach Select
CABLEID	IQUANT	13	Cable ID
DCCALDATE	LABEL	7/31/2020	DC Calibration Date
ACCALDATE	LABEL	7/31/2020	AC Calibration Date
THERMOSELECT	IQUANT	1	Thermo Select
FRAMEWORKVERSION	QUANT	6.33	Framework Version
INSTRUMENTVERSION	LABEL	3.50	Instrument Version
COMPLIANCEVOLTAGE	IQUANT	0	Compliance Voltage
ZCURVE	TABLE
	Pt	Time	Freq	Zreal	Zimag	Zsig	Zmod	Zphz	Idc	Vdc	IERange
	#	s	Hz	ohm	ohm	V	ohm	°	A	V	#
	0	7	300046.9	52.78968	5.629903	1	53.08904	6.087459	5.023808E-005	-0.0093927	9
	1	11	238359.4	51.40231	4.568366	1	51.60491	5.078803	-0.0000964	-0.0061321	9
	2	14	189328.1	51.03263	3.385751	1	51.14482	3.795717	0.0004368	-0.0158173	9
	3	17	150421.9	51.02353	2.686158	1	51.09418	3.013582	7.417365E-005	-0.0092114	9
	4	19	119484.4	51.3154	1.950761	1	51.35247	2.177057	-0.0003763	0.0069111	9
	5	22	94921.88	51.51925	1.669261	1	51.54628	1.855775	-0.0001168	0.0006563	9
	6	25	75421.88	51.64677	1.277035	1	51.66255	1.416425	-0.0001614	0.0030631	9
	7	28	59859.37	51.78146	0.9098103	1	51.78945	1.006594	2.922425E-005	-0.0043747	9
	8	30	47578.12	52.00656	0.638905	1	52.01048	0.7038482	8.345593E-005	-0.0055789	9
	9	33	37828.12	52.23444	0.3968375	1	52.23594	0.4352814	-0.000158	0.002387	9
	10	35	30046.88	52.40119	0.1606355	1	52.40144	0.1756392	0.0001763	-0.0055428	9
	11	38	23859.38	52.54306	0.0013125	1	52.54306	0.0014313	-8.471563E-005	-0.0008262	9
	12	40	18984.38	52.83545	-0.1907185	1	52.83579	-0.2068179	-0.0001622	0.0063782	9
	13	42	15046.87	53.10488	-0.4846757	1	53.10709	-0.5229105	1.022346E-005	0.0034834	9
	14	45	11953.13	53.27712	-0.5633135	1	53.2801	-0.6057813	0.0001323	-0.0010312	9
	15	47	9515.62	53.46618	-0.8180465	1	53.47243	-0.876572	-0.0001438	0.0029655	9
	16	49	7546.875	53.69519	-1.115204	1	53.70677	-1.189814	0.0001302	-0.006499	9
	17	52	5928.309	53.89476	-1.44811	1	53.91421	-1.539122	1.248742E-005	0.0036048	9
	18	54	4733.456	54.31038	-1.768044	1	54.33915	-1.864574	-0.0001579	0.0060292	9
	19	57	3796.875	54.42235	-2.186896	1	54.46627	-2.301124	-0.0001196	0.0015218	9
	20	59	2987.132	54.60218	-2.763944	1	54.67209	-2.89782	-8.961679E-005	0.0061047	9
	21	61	2390.625	54.91022	-3.498483	1	55.02156	-3.645546	8.525095E-005	-0.0058383	9
	22	64	1884.191	55.18325	-4.186077	1	55.3418	-4.338021	0.000182	-0.0045049	9
	23	66	1516.544	55.57462	-5.353038	1	55.83183	-5.50185	-2.505859E-005	-0.0029196	9
	24	69	1193.986	55.82296	-6.743312	1	56.22877	-6.887853	-0.0001767	0.0056258	9
	25	71	946.5144	56.39764	-8.245592	1	56.99723	-8.31797	-0.0001673	0.0063698	9
	26	74	751.7689	56.7508	-10.4481	1	57.70456	-10.43162	0.0001236	-0.0006283	9
	27	76	597.4265	57.11705	-13.1043	1	58.60103	-12.92168	0.0001274	-0.0061862	9
	28	78	477.4305	57.60181	-16.07174	1	59.80192	-15.58987	6.079183E-007	4.331555E-005	9
	29	80	376.6741	58.21633	-20.10114	1	61.58893	-19.04895	2.306921E-007	6.549367E-005	9
	30	83	298.2954	58.94377	-25.04683	1	64.04461	-23.02197	1.749671E-007	6.783749E-005	9
	31	85	237.7717	59.81048	-31.00957	1	67.37126	-27.40511	4.206564E-007	5.359103E-005	9
	32	88	189.0121	60.87206	-38.47015	1	72.00945	-32.29222	4.633998E-007	5.94978E-005	9
	33	90	150.2404	62.17052	-47.70113	1	78.3618	-37.49768	2.710985E-007	6.418523E-005	9
	34	92	119.1737	63.80301	-59.23397	1	87.06026	-42.87327	1.570778E-007	6.425357E-005	9
	35	95	95.0169	65.79985	-73.15046	1	98.3901	-48.02818	4.400757E-007	4.699526E-005	9
	36	97	75.60484	68.32332	-90.45427	1	113.3581	-52.93496	2.146722E-007	7.203264E-005	9
	37	100	54.50582	73.00779	-122.4604	1	142.5717	-59.19767	5.529436E-007	3.965441E-005	9
	38	102	45.95588	76.27196	-143.3658	1	162.392	-61.98661	2.400599E-007	5.832969E-005	9
	39	105	37.20238	81.13213	-174.1253	1	192.099	-65.01726	4.672084E-007	5.113855E-005	9
	40	107	30.04808	87.23864	-211.7879	1	229.0517	-67.6125	1.329589E-007	6.479712E-005	9
	41	110	23.91582	95.4117	-260.7726	1	277.6793	-69.9034	3.204433E-007	6.585298E-005	9
	42	112	18.60119	106.8389	-327.6217	1	344.602	-71.93861	1.378777E-007	6.119724E-005	9
	43	114	15.02404	119.069	-397.3835	1	414.8386	-73.32008	4.749722E-007	4.714762E-005	9
	44	117	12.01923	134.0627	-483.6212	1	501.8589	-74.50631	2.323592E-008	0.0006295	8
	45	119	9.450605	154.7356	-600.0568	1	619.6864	-75.54025	-5.822852E-008	0.0006445	8
	46	121	7.512019	179.1368	-737.5277	1	758.9711	-76.3479	9.209327E-010	0.0005632	8
	47	124	5.978954	209.1012	-904.7046	1	928.5546	-76.98595	-2.95469E-008	0.0006503	8
	48	127	4.734848	247.8689	-1115.876	1	1143.074	-77.47626	2.003732E-008	0.0006358	8
	49	130	3.75601	295.8396	-1374.809	1	1406.279	-77.85593	-1.365991E-008	0.000609	8
	50	134	3.004808	354.5321	-1679.345	1	1716.36	-78.07914	-5.838298E-008	0.000642	8
	51	138	2.372217	434.1415	-2073.327	1	2118.292	-78.17349	-4.367961E-008	0.0006453	8
	52	142	1.878005	541.2173	-2559.191	1	2615.793	-78.05904	-1.272433E-008	0.0006112	8
	53	147	1.512097	663.736	-3104.338	1	3174.502	-77.93135	-2.867833E-008	0.0007287	8
	54	152	1.201923	836.7566	-3804.446	1	3895.378	-77.59576	-3.191141E-010	0.0006099	8
	55	158	0.956633	1053.856	-4653.898	1	4771.727	-77.24079	-4.873982E-008	-3.536139E-005	7
