EXPLAIN
TAG	EISPOT
TITLE	LABEL	Potentiostatic EIS	Test Identifier
DATE	LABEL	9/11/2020	Date
TIME	LABEL	17:41:35	Time
NOTES	NOTES	1	Notes...
	
PSTAT	PSTAT	REF3000-16137	Potentiostat
VDC	POTEN	0.00000E+000	T	DC Voltage (V)
FREQINIT	QUANT	3.00000E+005	Initial Freq. (Hz)
FREQFINAL	QUANT	1.00000E+000	Final Freq. (Hz)
PTSPERDEC	QUANT	1.00000E+001	Points/decade
VAC	QUANT	5.00000E+001	AC Voltage (mV rms)
AREA	QUANT	1.00000E+000	Sample Area (cm^2)
SPEED	SELECTOR	2	Optimize for:
ZGUESS	QUANT	1.00000E+003	Estimated Z (ohms)
EOC	QUANT	0	Open Circuit (V)
SEQUENCER	TOGGLE	TRUE	Run as Sequence
PSTATMODEL	IQUANT	5	Pstat Model
PSTATSECTION	LABEL	REF3000-16137	Pstat Section
PSTATSERIALNO	LABEL	16137	Pstat Serial Number
CTRLMODE	IQUANT	1	Control Mode
IESTAB	IQUANT	0	I/E Stability
CASPEED	IQUANT	1	Control Amp Speed
CONVENTION	IQUANT	1	Current Convention
ICHRANGE	IQUANT	2	Ich Range
ICHRANGEMODE	TOGGLE	F	Ich Auto Range
ICHOFFSETENABLE	TOGGLE	T	Ich Offset Enable
ICHOFFSET	QUANT	0	Ich Offset (V)
ICHFILTER	IQUANT	3	Ich Filter
VCHRANGE	IQUANT	2	Vch Range
VCHRANGEMODE	TOGGLE	F	Vch Auto Range
VCHOFFSETENABLE	TOGGLE	T	Vch Offset Enable
VCHOFFSET	QUANT	0	Vch Offset (V)
VCHFILTER	IQUANT	3	Vch Filter
ACHRANGE	IQUANT	2	Ach Range
ACHOFFSETENABLE	TOGGLE	F	Ach Offset Enable
ACHOFFSET	QUANT	0	Ach Offset (V)
ACHFILTER	IQUANT	3	Ach Filter
IERANGELOWERLIMIT	IQUANT	2	I/E Range Lower Limit
IERANGEMODE	TOGGLE	F	I/E AutoRange
IERANGE	IQUANT	11	I/E Range
POSFEEDENABLE	TOGGLE	F	Positive Feedback IR Comp
POSFEEDRESISTANCE	QUANT	0	Positive Feedback Resistance (ohm)
ACHSELECT	IQUANT	0	Ach Select
CABLEID	IQUANT	13	Cable ID
DCCALDATE	LABEL	7/31/2020	DC Calibration Date
ACCALDATE	LABEL	7/31/2020	AC Calibration Date
THERMOSELECT	IQUANT	1	Thermo Select
FRAMEWORKVERSION	QUANT	6.33	Framework Version
INSTRUMENTVERSION	LABEL	3.50	Instrument Version
COMPLIANCEVOLTAGE	IQUANT	0	Compliance Voltage
ZCURVE	TABLE
	Pt	Time	Freq	Zreal	Zimag	Zsig	Zmod	Zphz	Idc	Vdc	IERange
	#	s	Hz	ohm	ohm	V	ohm	°	A	V	#
	0	9	300046.9	6.406022	2.316776	1	6.81209	19.88282	-0.0002514	0.0012097	10
	1	12	238359.4	6.384587	1.818071	1	6.638398	15.8948	0.0004413	-0.0006336	10
	2	15	189328.1	6.37393	1.429102	1	6.532176	12.63732	-0.0002031	0.0001148	10
	3	18	150421.9	6.365694	1.121432	1	6.463719	9.99117	-6.449079E-005	-8.831589E-005	10
	4	20	119484.4	6.379679	0.8669592	1	6.438316	7.73874	-0.0002323	0.000414	10
	5	23	94921.88	6.386378	0.6823788	1	6.42273	6.098864	-0.0001107	0.0010556	10
	6	25	75421.88	6.391985	0.5005496	1	6.411554	4.477634	-0.0001774	0.0009092	10
	7	28	59859.37	6.398216	0.3454063	1	6.407533	3.0901	0.0002105	0.0001006	10
	8	30	47578.12	6.411789	0.2119821	1	6.415293	1.893583	5.339671E-005	0.0001922	10
	9	33	37828.12	6.423748	0.092242	1	6.42441	0.8226841	5.056453E-005	0.0001924	10
	10	35	30046.88	6.441147	-0.020361	1	6.441179	-0.1811163	-7.830897E-005	0.0011011	10
	11	38	23859.38	6.455445	-0.1333362	1	6.456822	-1.183267	-7.664312E-005	0.0005214	10
	12	40	18984.38	6.472837	-0.2478935	1	6.477582	-2.193214	0.0001231	0.000597	10
	13	43	15046.87	6.485394	-0.3760665	1	6.496289	-3.318676	6.675775E-005	0.0006869	10
	14	45	11953.13	6.511979	-0.5212082	1	6.532804	-4.576106	-0.0001795	0.0010092	10
	15	47	9515.62	6.532934	-0.6899788	1	6.569269	-6.028969	0.0001253	3.74324E-005	10
	16	50	7546.875	6.555747	-0.897038	1	6.616834	-7.791527	0.0001425	0.0001193	10
	17	52	5928.309	6.590294	-1.151826	1	6.690193	-9.91379	-0.0001765	0.0010234	10
	18	54	4733.456	6.626291	-1.44456	1	6.781924	-12.29831	-0.0001779	0.0009983	10
	19	56	3796.875	6.66784	-1.79612	1	6.905515	-15.07595	-0.0001819	0.0010695	10
	20	59	2987.132	6.718546	-2.269037	1	7.09136	-18.66123	-0.0001884	0.0010694	10
	21	61	2390.625	6.78028	-2.811791	1	7.340189	-22.52385	0.0001034	0.000157	10
	22	63	1884.191	6.871092	-3.527249	1	7.723561	-27.17353	0.0001476	0.000123	10
	23	66	1516.544	6.959896	-4.336634	1	8.200399	-31.92657	4.490793E-005	0.0002423	10
	24	68	1193.986	7.092157	-5.434531	1	8.934921	-37.46198	-0.000166	0.0008972	10
	25	71	946.5144	7.256552	-6.768065	1	9.92292	-43.00515	0.0001617	0.0003853	10
	26	73	751.7689	7.466852	-8.396405	1	11.23626	-48.35358	-6.678014E-005	0.0005015	10
	27	75	597.4265	7.735301	-10.40452	1	12.96491	-53.37082	0.0001757	0.0001294	10
	28	77	477.4305	8.072389	-12.82401	1	15.15317	-57.81062	-3.353207E-006	0.0006635	10
	29	80	376.6741	8.532991	-15.97303	1	18.10938	-61.88832	-2.965252E-006	0.0006507	10
	30	82	298.2954	9.118775	-19.80516	1	21.80359	-65.27751	-2.798662E-006	0.0006503	10
	31	84	237.7717	9.84766	-24.38016	1	26.29388	-68.00518	-3.145914E-006	0.00066	10
	32	87	189.0121	10.78508	-30.05713	1	31.93351	-70.26102	-2.81904E-006	0.0006606	10
	33	89	150.2404	11.95877	-37.00978	1	38.89391	-72.09309	-2.21698E-006	0.0006481	10
	34	92	119.1737	13.42481	-45.56987	1	47.5062	-73.58512	1.356948E-007	6.375572E-005	9
	35	94	95.0169	15.21939	-55.88023	1	57.91571	-74.76461	3.960836E-008	5.477423E-005	9
	36	97	75.60484	17.4724	-68.63448	1	70.82356	-75.71749	1.124115E-007	5.09937E-005	9
	37	99	54.50582	21.71436	-92.11072	1	94.6356	-76.73517	9.614565E-008	5.019124E-005	9
	38	102	45.95588	24.57007	-107.3939	1	110.1687	-77.11339	1.839703E-007	5.90644E-005	9
	39	104	37.20238	28.91179	-129.8255	1	133.0058	-77.44525	2.029718E-007	5.898014E-005	9
	40	106	30.04808	34.48797	-157.3038	1	161.0401	-77.63389	2.013772E-007	5.229066E-005	9
	41	109	23.91582	42.19557	-192.8976	1	197.4587	-77.66113	3.221616E-007	4.535317E-005	9
	42	111	18.60119	53.36966	-241.0244	1	246.8624	-77.51453	1.298345E-007	5.900945E-005	9
	43	113	15.02404	65.82049	-290.9664	1	298.3183	-77.25346	4.477619E-007	6.721264E-005	9
	44	116	12.01923	82.67632	-353.2894	1	362.8344	-76.82874	2.59857E-008	5.822846E-005	9
	45	118	9.450605	105.6218	-432.7071	1	445.4115	-76.2826	-6.151952E-008	0.0006386	8
	46	121	7.512019	134.2804	-525.6491	1	542.5295	-75.6699	6.179977E-009	0.0006368	8
	47	123	5.978954	169.9545	-635.7152	1	658.0413	-75.03236	5.209498E-008	0.0005862	8
	48	126	4.734848	216.2186	-771.132	1	800.8715	-74.33698	1.321517E-007	0.0006434	8
	49	130	3.75601	272.9842	-931.1549	1	970.345	-73.66058	3.68382E-008	0.0006354	8
	50	133	3.004808	340.3725	-1114.347	1	1165.17	-73.01492	1.095635E-007	0.0006185	8
	51	137	2.372217	429.5997	-1346.063	1	1412.955	-72.29937	1.034167E-007	0.0006058	8
	52	141	1.878005	543.9173	-1623.687	1	1712.369	-71.47972	7.7445E-008	0.0006309	8
	53	146	1.512097	673.9204	-1929.344	1	2043.657	-70.74567	8.850957E-008	0.0005283	8
	54	151	1.201923	851.1074	-2313.765	1	2465.338	-69.8042	7.694228E-008	0.0006511	8
	55	157	0.956633	1075.532	-2765.5	1	2967.281	-68.74842	4.556683E-008	-5.206496E-006	8
