EXPLAIN
TAG	EISPOT
TITLE	LABEL	Potentiostatic EIS	Test Identifier
DATE	LABEL	9/11/2020	Date
TIME	LABEL	18:12:11	Time
NOTES	NOTES	1	Notes...
	
PSTAT	PSTAT	REF3000-16137	Potentiostat
VDC	POTEN	0.00000E+000	T	DC Voltage (V)
FREQINIT	QUANT	3.00000E+005	Initial Freq. (Hz)
FREQFINAL	QUANT	1.00000E+000	Final Freq. (Hz)
PTSPERDEC	QUANT	1.00000E+001	Points/decade
VAC	QUANT	5.00000E+001	AC Voltage (mV rms)
AREA	QUANT	1.00000E+000	Sample Area (cm^2)
SPEED	SELECTOR	2	Optimize for:
ZGUESS	QUANT	1.00000E+003	Estimated Z (ohms)
EOC	QUANT	0	Open Circuit (V)
SEQUENCER	TOGGLE	TRUE	Run as Sequence
PSTATMODEL	IQUANT	5	Pstat Model
PSTATSECTION	LABEL	REF3000-16137	Pstat Section
PSTATSERIALNO	LABEL	16137	Pstat Serial Number
CTRLMODE	IQUANT	1	Control Mode
IESTAB	IQUANT	0	I/E Stability
CASPEED	IQUANT	1	Control Amp Speed
CONVENTION	IQUANT	1	Current Convention
ICHRANGE	IQUANT	2	Ich Range
ICHRANGEMODE	TOGGLE	F	Ich Auto Range
ICHOFFSETENABLE	TOGGLE	T	Ich Offset Enable
ICHOFFSET	QUANT	0	Ich Offset (V)
ICHFILTER	IQUANT	3	Ich Filter
VCHRANGE	IQUANT	2	Vch Range
VCHRANGEMODE	TOGGLE	F	Vch Auto Range
VCHOFFSETENABLE	TOGGLE	T	Vch Offset Enable
VCHOFFSET	QUANT	0	Vch Offset (V)
VCHFILTER	IQUANT	3	Vch Filter
ACHRANGE	IQUANT	2	Ach Range
ACHOFFSETENABLE	TOGGLE	F	Ach Offset Enable
ACHOFFSET	QUANT	0	Ach Offset (V)
ACHFILTER	IQUANT	3	Ach Filter
IERANGELOWERLIMIT	IQUANT	2	I/E Range Lower Limit
IERANGEMODE	TOGGLE	F	I/E AutoRange
IERANGE	IQUANT	11	I/E Range
POSFEEDENABLE	TOGGLE	F	Positive Feedback IR Comp
POSFEEDRESISTANCE	QUANT	0	Positive Feedback Resistance (ohm)
ACHSELECT	IQUANT	0	Ach Select
CABLEID	IQUANT	13	Cable ID
DCCALDATE	LABEL	7/31/2020	DC Calibration Date
ACCALDATE	LABEL	7/31/2020	AC Calibration Date
THERMOSELECT	IQUANT	1	Thermo Select
FRAMEWORKVERSION	QUANT	6.33	Framework Version
INSTRUMENTVERSION	LABEL	3.50	Instrument Version
COMPLIANCEVOLTAGE	IQUANT	0	Compliance Voltage
ZCURVE	TABLE
	Pt	Time	Freq	Zreal	Zimag	Zsig	Zmod	Zphz	Idc	Vdc	IERange
	#	s	Hz	ohm	ohm	V	ohm	°	A	V	#
	0	6	300046.9	38.94064	1.724559	1	38.97881	2.535794	-0.0007761	0.0033122	10
	1	13	238359.4	39.11416	1.278777	1	39.13506	1.87253	-0.0005021	0.0002789	10
	2	17	189328.1	39.40776	0.9400914	1	39.41897	1.36656	0.0001454	-0.0013701	10
	3	24	150421.9	39.80838	2.278375	1	39.87353	3.275668	0.000218	-0.0139086	9
	4	27	119484.4	39.86891	1.775889	1	39.90844	2.550452	0.0001177	0.0034723	9
	5	29	94921.88	40.04501	1.527897	1	40.07415	2.185031	-7.180303E-005	-0.0008826	9
	6	32	75421.88	40.08863	1.069292	1	40.10289	1.5279	-2.707245E-005	0.0038456	9
	7	34	59859.37	40.27978	0.8309067	1	40.28835	1.181752	-7.739188E-005	-0.000777	9
	8	37	47578.12	40.42904	0.5507038	1	40.43279	0.7804056	1.941448E-005	0.00281	9
	9	40	37828.12	40.53438	0.347291	1	40.53587	0.4908875	0.0001405	-0.0025305	9
	10	42	30046.88	40.67612	0.1659847	1	40.67646	0.2338023	-0.0001156	0.0010859	9
	11	45	23859.38	40.82228	-0.0525868	1	40.82232	-0.0738078	7.576162E-005	-0.0050221	9
	12	47	18984.38	40.99886	-0.2112244	1	40.9994	-0.2951828	-0.0001117	0.0009353	9
	13	49	15046.87	41.11004	-0.311536	1	41.11122	-0.4341848	0.0001446	-0.0056389	9
	14	52	11953.13	41.28101	-0.6894897	1	41.28676	-0.956885	5.937141E-006	-0.0029566	9
	15	54	9515.62	41.50097	-0.7974074	1	41.50863	-1.100756	-7.383458E-005	-0.0006906	9
	16	56	7546.875	41.61069	-1.013065	1	41.62302	-1.394663	-0.0001675	0.0064481	9
	17	59	5928.309	41.80847	-1.40455	1	41.83206	-1.92412	-0.0001441	0.0026653	9
	18	61	4733.456	41.99827	-1.727662	1	42.03379	-2.35562	0.0001415	-0.0054385	9
	19	63	3796.875	42.14588	-2.166939	1	42.20155	-2.943282	-0.0001566	0.0050231	9
	20	65	2987.132	42.32768	-2.63888	1	42.40986	-3.567435	-7.421104E-005	0.005183	9
	21	68	2390.625	42.58796	-3.384129	1	42.72221	-4.543297	-0.0001418	0.0026185	9
	22	70	1884.191	42.8009	-4.358529	1	43.02225	-5.814538	-0.0001444	0.0026679	9
	23	72	1516.544	43.01445	-5.251598	1	43.33385	-6.960744	0.0001449	-0.0026264	9
	24	75	1193.986	43.29349	-6.467324	1	43.77388	-8.496205	-0.0001185	0.001231	9
	25	77	946.5144	43.53302	-8.231076	1	44.30434	-10.7069	2.402622E-005	0.0029079	9
	26	80	751.7689	43.96807	-10.18352	1	45.13198	-13.04043	-0.000159	0.004959	9
	27	82	597.4265	44.36115	-12.73141	1	46.15193	-16.0132	-2.09991E-005	-0.0026464	9
	28	84	477.4305	44.77866	-15.69782	1	47.4505	-19.31886	4.933454E-007	4.454794E-005	9
	29	87	376.6741	45.33771	-19.63075	1	49.4052	-23.4121	5.067951E-007	5.949566E-005	9
	30	89	298.2954	46.00933	-24.45494	1	52.10473	-27.9916	2.499662E-007	6.051994E-005	9
	31	91	237.7717	46.81991	-30.26356	1	55.74932	-32.87791	2.648128E-007	5.834565E-005	9
	32	94	189.0121	47.82803	-37.5278	1	60.79356	-38.11916	5.323403E-007	4.685167E-005	9
	33	96	150.2404	49.07645	-46.50723	1	67.61228	-43.4603	5.788825E-007	4.507128E-005	9
	34	99	119.1737	50.65682	-57.7159	1	76.79348	-48.72682	3.661423E-007	6.504456E-005	9
	35	101	95.0169	52.60583	-71.2488	1	88.56503	-53.56007	5.619405E-007	4.373628E-005	9
	36	103	75.60484	55.08836	-88.05891	1	103.8706	-57.97051	4.477757E-007	5.743146E-005	9
	37	106	54.50582	59.76725	-119.1047	1	133.2594	-63.35231	5.410304E-007	4.086544E-005	9
	38	109	45.95588	63.00371	-139.3466	1	152.9279	-65.67052	5.759696E-007	4.61187E-005	9
	39	111	37.20238	67.83852	-169.0971	1	182.1974	-68.14029	1.878368E-007	7.668509E-005	9
	40	113	30.04808	73.90733	-205.4733	1	218.3611	-70.2167	1.591955E-007	6.478406E-005	9
	41	116	23.91582	81.98178	-252.7356	1	265.6996	-72.0281	5.551124E-007	4.655653E-005	9
	42	118	18.60119	93.1934	-317.1035	1	330.5142	-73.62249	8.57335E-008	7.318884E-005	9
	43	120	15.02404	105.017	-384.2546	1	398.3468	-74.71431	4.697376E-007	6.170501E-005	9
	44	123	12.01923	119.5895	-467.5402	1	482.5924	-75.65226	-5.42444E-008	0.0006133	8
	45	125	9.450605	139.5786	-580.1845	1	596.738	-76.47305	5.554161E-008	0.0006395	8
	46	128	7.512019	163.4151	-713.1451	1	731.6286	-77.09366	2.002061E-008	0.0006505	8
	47	130	5.978954	192.8099	-875.1534	1	896.1413	-77.57534	4.475519E-008	0.0006112	8
	48	133	4.734848	230.916	-1079.4	1	1103.823	-77.92473	-1.572955E-008	0.0005826	8
	49	137	3.75601	279.5069	-1329.303	1	1358.37	-78.12564	5.488933E-008	0.000636	8
	50	140	3.004808	339.698	-1622.668	1	1657.844	-78.17615	1.277142E-008	0.0006513	8
	51	144	2.372217	425.5237	-2001.787	1	2046.515	-77.99916	1.017307E-008	0.0005973	8
	52	148	1.878005	532.4421	-2468.209	1	2524.986	-77.8267	6.223635E-008	0.0006206	8
	53	153	1.512097	656.0648	-2981.63	1	3052.956	-77.59064	2.081801E-008	0.0006662	8
	54	158	1.201923	834.7473	-3651.07	1	3745.279	-77.12177	5.127298E-008	0.0006383	8
	55	164	0.956633	1058.488	-4452.659	1	4576.742	-76.62783	-4.726922E-008	-3.785064E-005	7
