EXPLAIN
TAG	EISPOT
TITLE	LABEL	Potentiostatic EIS	Test Identifier
DATE	LABEL	9/11/2020	Date
TIME	LABEL	18:00:56	Time
NOTES	NOTES	1	Notes...
	
PSTAT	PSTAT	REF3000-16137	Potentiostat
VDC	POTEN	0.00000E+000	T	DC Voltage (V)
FREQINIT	QUANT	3.00000E+005	Initial Freq. (Hz)
FREQFINAL	QUANT	1.00000E+000	Final Freq. (Hz)
PTSPERDEC	QUANT	1.00000E+001	Points/decade
VAC	QUANT	5.00000E+001	AC Voltage (mV rms)
AREA	QUANT	1.00000E+000	Sample Area (cm^2)
SPEED	SELECTOR	2	Optimize for:
ZGUESS	QUANT	1.00000E+003	Estimated Z (ohms)
EOC	QUANT	0	Open Circuit (V)
SEQUENCER	TOGGLE	TRUE	Run as Sequence
PSTATMODEL	IQUANT	5	Pstat Model
PSTATSECTION	LABEL	REF3000-16137	Pstat Section
PSTATSERIALNO	LABEL	16137	Pstat Serial Number
CTRLMODE	IQUANT	1	Control Mode
IESTAB	IQUANT	0	I/E Stability
CASPEED	IQUANT	1	Control Amp Speed
CONVENTION	IQUANT	1	Current Convention
ICHRANGE	IQUANT	2	Ich Range
ICHRANGEMODE	TOGGLE	F	Ich Auto Range
ICHOFFSETENABLE	TOGGLE	T	Ich Offset Enable
ICHOFFSET	QUANT	0	Ich Offset (V)
ICHFILTER	IQUANT	3	Ich Filter
VCHRANGE	IQUANT	2	Vch Range
VCHRANGEMODE	TOGGLE	F	Vch Auto Range
VCHOFFSETENABLE	TOGGLE	T	Vch Offset Enable
VCHOFFSET	QUANT	0	Vch Offset (V)
VCHFILTER	IQUANT	3	Vch Filter
ACHRANGE	IQUANT	2	Ach Range
ACHOFFSETENABLE	TOGGLE	F	Ach Offset Enable
ACHOFFSET	QUANT	0	Ach Offset (V)
ACHFILTER	IQUANT	3	Ach Filter
IERANGELOWERLIMIT	IQUANT	2	I/E Range Lower Limit
IERANGEMODE	TOGGLE	F	I/E AutoRange
IERANGE	IQUANT	11	I/E Range
POSFEEDENABLE	TOGGLE	F	Positive Feedback IR Comp
POSFEEDRESISTANCE	QUANT	0	Positive Feedback Resistance (ohm)
ACHSELECT	IQUANT	0	Ach Select
CABLEID	IQUANT	13	Cable ID
DCCALDATE	LABEL	7/31/2020	DC Calibration Date
ACCALDATE	LABEL	7/31/2020	AC Calibration Date
THERMOSELECT	IQUANT	1	Thermo Select
FRAMEWORKVERSION	QUANT	6.33	Framework Version
INSTRUMENTVERSION	LABEL	3.50	Instrument Version
COMPLIANCEVOLTAGE	IQUANT	0	Compliance Voltage
ZCURVE	TABLE
	Pt	Time	Freq	Zreal	Zimag	Zsig	Zmod	Zphz	Idc	Vdc	IERange
	#	s	Hz	ohm	ohm	V	ohm	°	A	V	#
	0	8	300046.9	16.74195	2.057531	1	16.86791	7.006333	9.465499E-006	0.0004261	10
	1	12	238359.4	16.80121	1.63188	1	16.88028	5.547662	-0.0001012	0.0003101	10
	2	15	189328.1	16.83537	1.28325	1	16.88421	4.358852	2.245157E-005	0.0003868	10
	3	17	150421.9	16.87773	1.000879	1	16.90738	3.393766	-4.696808E-005	0.0006337	10
	4	20	119484.4	16.90945	0.7741222	1	16.92716	2.621196	-6.719255E-006	0.0004504	10
	5	22	94921.88	16.94932	0.59514	1	16.95976	2.010995	-2.317144E-005	0.000673	10
	6	25	75421.88	16.99481	0.424121	1	17.0001	1.429572	-6.461878E-006	0.0005924	10
	7	27	59859.37	17.04734	0.2783642	1	17.04962	0.9354932	-1.936044E-005	0.0007008	10
	8	30	47578.12	17.09892	0.1536569	1	17.09961	0.5148662	-2.491047E-007	0.000678	10
	9	33	37828.12	17.14873	0.0364969	1	17.14877	0.12194	4.572778E-006	0.0005715	10
	10	35	30046.88	17.20195	-0.0754739	1	17.20212	-0.2513846	-2.298044E-005	0.0007078	10
	11	38	23859.38	17.254	-0.1901591	1	17.25505	-0.6314405	-2.261719E-005	0.0007115	10
	12	40	18984.38	17.3035	-0.3119717	1	17.30631	-1.032897	-1.074864E-005	0.0006198	10
	13	42	15046.87	17.35732	-0.451973	1	17.3632	-1.491607	-3.018533E-005	0.000641	10
	14	45	11953.13	17.4191	-0.6094283	1	17.42976	-2.003744	2.829039E-005	0.0006118	10
	15	47	9515.62	17.47293	-0.7896979	1	17.49076	-2.587751	1.338848E-005	0.0006868	10
	16	49	7546.875	17.5365	-1.012837	1	17.56573	-3.305499	1.88896E-005	0.0006634	10
	17	51	5928.309	17.60574	-1.294847	1	17.65329	-4.206351	-2.789567E-005	0.0006719	10
	18	54	4733.456	17.68086	-1.621342	1	17.75504	-5.239395	1.869118E-005	0.0005882	10
	19	56	3796.875	17.75763	-2.013684	1	17.87144	-6.469605	-2.642313E-005	0.0006928	10
	20	58	2987.132	17.84911	-2.534056	1	18.02809	-8.080339	2.238463E-005	0.0006297	10
	21	61	2390.625	17.94847	-3.141134	1	18.22126	-9.92672	9.209139E-006	0.0006825	10
	22	63	1884.191	18.0636	-3.942916	1	18.48892	-12.31337	2.268617E-005	0.0006338	10
	23	65	1516.544	18.1969	-4.84247	1	18.83021	-14.90191	-5.097504E-006	0.0006105	10
	24	68	1193.986	18.36091	-6.080506	1	19.34155	-18.32311	2.015383E-005	0.0006372	10
	25	70	946.5144	18.56002	-7.576846	1	20.04702	-22.20699	2.04309E-005	0.0006621	10
	26	72	751.7689	18.79308	-9.413111	1	21.01872	-26.60545	-4.36237E-006	0.0006101	10
	27	75	597.4265	19.08543	-11.69282	1	22.38249	-31.49401	-3.371801E-006	0.0006693	10
	28	77	477.4305	19.4427	-14.43128	1	24.21323	-36.58453	-2.237945E-006	0.0006559	10
	29	79	376.6741	19.916	-18.02382	1	26.86085	-42.14483	-2.288438E-006	0.0006485	10
	30	82	298.2954	20.50234	-22.41601	1	30.37801	-47.55305	-2.217615E-006	0.0006548	10
	31	84	237.7717	21.22704	-27.69278	1	34.89237	-52.52915	-2.112494E-006	0.0006541	10
	32	87	189.0121	22.1335	-34.23879	1	40.76992	-57.11955	1.247222E-006	5.634377E-005	9
	33	89	150.2404	23.32102	-42.34845	1	48.34523	-61.1587	1.245822E-006	4.715422E-005	9
	34	91	119.1737	24.85834	-52.44039	1	58.03388	-64.63763	8.883683E-007	0.0001073	9
	35	94	95.0169	26.7708	-64.5677	1	69.89751	-67.48032	1.286601E-006	4.630341E-005	9
	36	96	75.60484	29.21997	-79.56126	1	84.7573	-69.83354	1.203106E-006	4.790035E-005	9
	37	99	54.50582	33.84559	-107.0676	1	112.2898	-72.45752	1.199963E-006	4.627542E-005	9
	38	101	45.95588	36.92528	-124.9299	1	130.2726	-73.534	1.336688E-006	4.836905E-005	9
	39	104	37.20238	41.46703	-151.0943	1	156.6812	-74.65333	1.315773E-006	4.922445E-005	9
	40	106	30.04808	47.0583	-183.1437	1	189.0928	-75.58973	1.27095E-006	5.324127E-005	9
	41	108	23.91582	54.39262	-224.774	1	231.2615	-76.39661	1.307863E-006	4.39626E-005	9
	42	111	18.60119	64.55505	-281.7634	1	289.064	-77.09563	1.225449E-006	5.373636E-005	9
	43	113	15.02404	75.38195	-341.4975	1	349.7184	-77.55218	1.18739E-006	0.0000973	9
	44	115	12.01923	89.73005	-417.351	1	426.888	-77.86617	1.338065E-006	5.221264E-005	9
	45	118	9.450605	109.3028	-515.9501	1	527.4008	-78.03886	4.064699E-007	0.0006353	8
	46	120	7.512019	133.7594	-633.4922	1	647.4597	-78.07735	4.872682E-007	0.0006113	8
	47	123	5.978954	165.7802	-776.2614	1	793.7662	-77.94488	4.809107E-007	0.0006273	8
	48	126	4.734848	208.1875	-953.93	1	976.383	-77.6887	4.752001E-007	0.0006022	8
	49	129	3.75601	263.7556	-1168.377	1	1197.778	-77.27898	5.553915E-007	0.0006438	8
	50	133	3.004808	331.4367	-1416.089	1	1454.359	-76.827	5.552138E-007	0.0006092	8
	51	136	2.372217	424.9328	-1734.245	1	1785.546	-76.23237	5.196015E-007	0.0005555	8
	52	141	1.878005	538.7878	-2111.444	1	2179.103	-75.68503	5.594498E-007	0.0006387	8
	53	145	1.512097	669.3473	-2523.609	1	2610.867	-75.14523	5.251252E-007	0.0006107	8
	54	151	1.201923	843.1577	-3060.588	1	3174.604	-74.59771	5.565317E-007	0.0006505	8
	55	157	0.956633	1054.959	-3691.67	1	3839.449	-74.0518	5.075208E-007	-1.307506E-005	8
