EXPLAIN
TAG	EISPOT
TITLE	LABEL	Potentiostatic EIS	Test Identifier
DATE	LABEL	9/11/2020	Date
TIME	LABEL	18:09:18	Time
NOTES	NOTES	1	Notes...
	
PSTAT	PSTAT	REF3000-16137	Potentiostat
VDC	POTEN	0.00000E+000	T	DC Voltage (V)
FREQINIT	QUANT	3.00000E+005	Initial Freq. (Hz)
FREQFINAL	QUANT	1.00000E+000	Final Freq. (Hz)
PTSPERDEC	QUANT	1.00000E+001	Points/decade
VAC	QUANT	5.00000E+001	AC Voltage (mV rms)
AREA	QUANT	1.00000E+000	Sample Area (cm^2)
SPEED	SELECTOR	2	Optimize for:
ZGUESS	QUANT	1.00000E+003	Estimated Z (ohms)
EOC	QUANT	0	Open Circuit (V)
SEQUENCER	TOGGLE	TRUE	Run as Sequence
PSTATMODEL	IQUANT	5	Pstat Model
PSTATSECTION	LABEL	REF3000-16137	Pstat Section
PSTATSERIALNO	LABEL	16137	Pstat Serial Number
CTRLMODE	IQUANT	1	Control Mode
IESTAB	IQUANT	0	I/E Stability
CASPEED	IQUANT	1	Control Amp Speed
CONVENTION	IQUANT	1	Current Convention
ICHRANGE	IQUANT	2	Ich Range
ICHRANGEMODE	TOGGLE	F	Ich Auto Range
ICHOFFSETENABLE	TOGGLE	T	Ich Offset Enable
ICHOFFSET	QUANT	0	Ich Offset (V)
ICHFILTER	IQUANT	3	Ich Filter
VCHRANGE	IQUANT	2	Vch Range
VCHRANGEMODE	TOGGLE	F	Vch Auto Range
VCHOFFSETENABLE	TOGGLE	T	Vch Offset Enable
VCHOFFSET	QUANT	0	Vch Offset (V)
VCHFILTER	IQUANT	3	Vch Filter
ACHRANGE	IQUANT	2	Ach Range
ACHOFFSETENABLE	TOGGLE	F	Ach Offset Enable
ACHOFFSET	QUANT	0	Ach Offset (V)
ACHFILTER	IQUANT	3	Ach Filter
IERANGELOWERLIMIT	IQUANT	2	I/E Range Lower Limit
IERANGEMODE	TOGGLE	F	I/E AutoRange
IERANGE	IQUANT	11	I/E Range
POSFEEDENABLE	TOGGLE	F	Positive Feedback IR Comp
POSFEEDRESISTANCE	QUANT	0	Positive Feedback Resistance (ohm)
ACHSELECT	IQUANT	0	Ach Select
CABLEID	IQUANT	13	Cable ID
DCCALDATE	LABEL	7/31/2020	DC Calibration Date
ACCALDATE	LABEL	7/31/2020	AC Calibration Date
THERMOSELECT	IQUANT	1	Thermo Select
FRAMEWORKVERSION	QUANT	6.33	Framework Version
INSTRUMENTVERSION	LABEL	3.50	Instrument Version
COMPLIANCEVOLTAGE	IQUANT	0	Compliance Voltage
ZCURVE	TABLE
	Pt	Time	Freq	Zreal	Zimag	Zsig	Zmod	Zphz	Idc	Vdc	IERange
	#	s	Hz	ohm	ohm	V	ohm	°	A	V	#
	0	6	300046.9	30.47469	1.318884	1	30.50322	2.478101	-0.0001295	-0.0005958	11
	1	11	238359.4	30.63607	1.344862	1	30.66557	2.513556	-1.060315E-005	0.0005483	10
	2	14	189328.1	30.74393	1.059413	1	30.76217	1.973589	4.879615E-006	0.0006041	10
	3	16	150421.9	30.92233	0.8235834	1	30.9333	1.525652	-0.0001952	-0.0006985	10
	4	22	119484.4	31.09432	0.4128214	1	31.09706	0.7606383	-0.0007738	0.0009431	11
	5	26	94921.88	31.29862	0.4661674	1	31.30209	0.8533108	0.0001662	-0.0004425	10
	6	30	75421.88	31.41766	0.3356528	1	31.41945	0.6121002	-3.374727E-005	0.0015511	10
	7	32	59859.37	31.53184	0.1872849	1	31.5324	0.3403071	0.0002858	-2.640636E-005	10
	8	35	47578.12	31.62668	0.092209	1	31.62681	0.167048	-0.0000964	8.581857E-005	10
	9	37	37828.12	31.78945	-0.0147628	1	31.78945	-0.0266078	-0.0001123	0.001745	10
	10	40	30046.88	31.89373	-0.1220705	1	31.89396	-0.2192936	0.0000979	-0.0004052	10
	11	42	23859.38	31.99768	-0.2509674	1	31.99866	-0.4493788	0.0002652	-0.000222	10
	12	45	18984.38	32.11573	-0.3720708	1	32.11789	-0.6637598	0.0001	0.00123	10
	13	47	15046.87	32.2505	-0.4685682	1	32.25391	-0.8323929	0.0002104	0.0007615	10
	14	50	11953.13	32.38471	-0.7000815	1	32.39228	-1.238407	0.0001451	0.0010529	10
	15	52	9515.62	32.50656	-0.8626139	1	32.518	-1.520079	-0.0001521	0.0003299	10
	16	54	7546.875	32.62714	-1.062489	1	32.64444	-1.865153	0.0002203	0.0006427	10
	17	57	5928.309	32.7657	-1.40056	1	32.79562	-2.447601	0.0001782	-0.0004746	10
	18	59	4733.456	32.93828	-1.744195	1	32.98442	-3.031178	0.0002121	0.000658	10
	19	61	3796.875	33.03187	-2.168429	1	33.10297	-3.755882	0.000276	2.742464E-005	10
	20	64	2987.132	33.13351	-2.670735	1	33.24098	-4.608377	0.0002182	0.0005957	10
	21	66	2390.625	33.32652	-3.358238	1	33.49529	-5.754142	0.0002723	4.366684E-005	10
	22	68	1884.191	33.50372	-4.091434	1	33.75261	-6.962419	5.888136E-005	0.0013779	10
	23	71	1516.544	33.72243	-5.173452	1	34.11696	-8.721903	0.0001394	0.0010575	10
	24	73	1193.986	33.9568	-6.463883	1	34.56655	-10.77766	1.700962E-005	-0.0002464	10
	25	75	946.5144	34.23825	-8.02024	1	35.16507	-13.18371	-2.173178E-005	0.0015998	10
	26	78	751.7689	34.39564	-9.93742	1	35.80241	-16.11481	0.0002271	0.0006104	10
	27	80	597.4265	34.85574	-12.44663	1	37.01137	-19.65113	0.0001058	-0.00044	10
	28	82	477.4305	35.21299	-15.33908	1	38.40888	-23.53835	3.314706E-007	4.623192E-005	9
	29	85	376.6741	35.73166	-19.17711	1	40.5526	-28.22237	4.250331E-007	4.872298E-005	9
	30	87	298.2954	36.36498	-23.88047	1	43.50504	-33.29245	4.884801E-007	4.86448E-005	9
	31	89	237.7717	37.13799	-29.53896	1	47.45293	-38.49817	1.892034E-007	6.981262E-005	9
	32	92	189.0121	38.10975	-36.61106	1	52.84622	-43.85097	4.514849E-007	4.726157E-005	9
	33	94	150.2404	39.32342	-45.34552	1	60.02122	-49.06833	7.520551E-007	-7.018129E-006	9
	34	97	119.1737	40.879	-56.25446	1	69.53889	-53.99484	4.840023E-007	4.864829E-005	9
	35	99	95.0169	42.79937	-69.39887	1	81.5352	-58.33722	1.581215E-007	6.997459E-005	9
	36	101	75.60484	45.26414	-85.71734	1	96.9345	-62.16313	6.797902E-007	-9.911342E-006	9
	37	104	54.50582	49.93949	-115.7986	1	126.1082	-66.67133	4.1565E-007	3.780863E-005	9
	38	107	45.95588	53.16086	-135.3892	1	145.4521	-68.56244	4.593378E-007	5.721242E-005	9
	39	109	37.20238	57.94863	-164.1157	1	174.046	-70.55206	4.919135E-007	5.134391E-005	9
	40	111	30.04808	63.94157	-199.226	1	209.2356	-72.20597	4.149654E-007	4.930909E-005	9
	41	114	23.91582	71.86282	-244.828	1	255.1569	-73.64179	3.265372E-007	4.590082E-005	9
	42	116	18.60119	82.71066	-306.9594	1	317.9074	-74.91972	4.903493E-007	4.143165E-005	9
	43	118	15.02404	94.2284	-371.8295	1	383.5833	-75.77957	5.22E-007	5.528586E-005	9
	44	121	12.01923	108.3367	-452.3984	1	465.1894	-76.53288	1.379781E-007	0.0006518	8
	45	123	9.450605	127.8357	-561.5785	1	575.9448	-77.17592	-1.648385E-008	0.0006224	8
	46	126	7.512019	151.4337	-690.0665	1	706.4871	-77.62276	-9.970325E-009	0.0006087	8
	47	128	5.978954	180.8337	-847.3041	1	866.3862	-77.95255	3.751513E-008	0.0006533	8
	48	131	4.734848	219.86	-1044.803	1	1067.685	-78.11652	4.87311E-008	0.0006104	8
	49	135	3.75601	270.2535	-1285.871	1	1313.964	-78.13081	1.093661E-007	0.0006588	8
	50	138	3.004808	332.6222	-1567.837	1	1602.732	-78.02209	8.53751E-008	0.0006315	8
	51	142	2.372217	421.5941	-1933.573	1	1979.001	-77.6998	7.833879E-008	0.00056	8
	52	146	1.878005	530.8187	-2373.836	1	2432.461	-77.39532	1.047199E-007	0.0006386	8
	53	151	1.512097	665.9749	-2861.149	1	2937.635	-76.89687	7.887322E-008	0.0005506	8
	54	156	1.201923	840.3432	-3490.99	1	3590.708	-76.46539	8.653525E-008	0.0006642	8
	55	162	0.956633	1063.453	-4247.871	1	4378.965	-75.9449	-4.529637E-008	-3.381216E-005	7
