EXPLAIN
TAG	EISPOT
TITLE	LABEL	Potentiostatic EIS	Test Identifier
DATE	LABEL	9/12/2020	Date
TIME	LABEL	22:03:43	Time
NOTES	NOTES	1	Notes...
	
PSTAT	PSTAT	REF3000-16137	Potentiostat
VDC	POTEN	0.00000E+000	T	DC Voltage (V)
FREQINIT	QUANT	3.00000E+005	Initial Freq. (Hz)
FREQFINAL	QUANT	1.00000E+000	Final Freq. (Hz)
PTSPERDEC	QUANT	1.00000E+001	Points/decade
VAC	QUANT	5.00000E+001	AC Voltage (mV rms)
AREA	QUANT	1.00000E+000	Sample Area (cm^2)
SPEED	SELECTOR	2	Optimize for:
ZGUESS	QUANT	1.00000E+003	Estimated Z (ohms)
EOC	QUANT	0	Open Circuit (V)
SEQUENCER	TOGGLE	TRUE	Run as Sequence
PSTATMODEL	IQUANT	5	Pstat Model
PSTATSECTION	LABEL	REF3000-16137	Pstat Section
PSTATSERIALNO	LABEL	16137	Pstat Serial Number
CTRLMODE	IQUANT	1	Control Mode
IESTAB	IQUANT	0	I/E Stability
CASPEED	IQUANT	1	Control Amp Speed
CONVENTION	IQUANT	1	Current Convention
ICHRANGE	IQUANT	2	Ich Range
ICHRANGEMODE	TOGGLE	F	Ich Auto Range
ICHOFFSETENABLE	TOGGLE	T	Ich Offset Enable
ICHOFFSET	QUANT	0	Ich Offset (V)
ICHFILTER	IQUANT	3	Ich Filter
VCHRANGE	IQUANT	2	Vch Range
VCHRANGEMODE	TOGGLE	F	Vch Auto Range
VCHOFFSETENABLE	TOGGLE	T	Vch Offset Enable
VCHOFFSET	QUANT	0	Vch Offset (V)
VCHFILTER	IQUANT	3	Vch Filter
ACHRANGE	IQUANT	2	Ach Range
ACHOFFSETENABLE	TOGGLE	F	Ach Offset Enable
ACHOFFSET	QUANT	0	Ach Offset (V)
ACHFILTER	IQUANT	3	Ach Filter
IERANGELOWERLIMIT	IQUANT	2	I/E Range Lower Limit
IERANGEMODE	TOGGLE	F	I/E AutoRange
IERANGE	IQUANT	11	I/E Range
POSFEEDENABLE	TOGGLE	F	Positive Feedback IR Comp
POSFEEDRESISTANCE	QUANT	0	Positive Feedback Resistance (ohm)
ACHSELECT	IQUANT	0	Ach Select
CABLEID	IQUANT	13	Cable ID
DCCALDATE	LABEL	7/31/2020	DC Calibration Date
ACCALDATE	LABEL	7/31/2020	AC Calibration Date
THERMOSELECT	IQUANT	1	Thermo Select
FRAMEWORKVERSION	QUANT	6.33	Framework Version
INSTRUMENTVERSION	LABEL	3.50	Instrument Version
COMPLIANCEVOLTAGE	IQUANT	0	Compliance Voltage
ZCURVE	TABLE
	Pt	Time	Freq	Zreal	Zimag	Zsig	Zmod	Zphz	Idc	Vdc	IERange
	#	s	Hz	ohm	ohm	V	ohm	°	A	V	#
	0	11	300046.9	2.307089	2.235568	1	3.212541	44.098	-9.515876E-006	-0.0002416	11
	1	14	238359.4	2.271345	1.788373	1	2.890898	38.21559	-0.000146	-0.0003916	11
	2	17	189328.1	2.317193	1.251603	1	2.633608	28.37515	-0.000184	-3.01995E-005	12
	3	20	150421.9	2.272157	0.983974	1	2.476066	23.41537	-0.0001131	0.0003002	12
	4	24	119484.4	2.245048	0.7638242	1	2.371428	18.78965	-1.039659E-005	0.0005087	12
	5	28	94921.88	2.226249	0.5832807	1	2.301391	14.68158	-9.494118E-005	0.0004908	12
	6	31	75421.88	2.205551	0.4929382	1	2.259965	12.59849	-2.456996E-005	0.0005173	11
	7	34	59859.37	2.205695	0.3509341	1	2.233438	9.040195	1.670394E-005	0.0005844	11
	8	36	47578.12	2.206625	0.2287817	1	2.218453	5.919248	-4.004122E-005	0.0005592	11
	9	39	37828.12	2.210471	0.1203897	1	2.213747	3.11744	-3.977563E-005	0.0006048	11
	10	42	30046.88	2.215652	0.018493	1	2.215729	0.478211	3.263764E-006	0.0006436	11
	11	44	23859.38	2.221873	-0.0808444	1	2.223344	-2.083829	-2.44259E-005	0.0006441	11
	12	46	18984.38	2.230397	-0.1819419	1	2.237806	-4.663507	2.639817E-005	0.0006945	11
	13	49	15046.87	2.240475	-0.2918918	1	2.259409	-7.422755	9.672939E-006	0.0006503	11
	14	51	11953.13	2.254683	-0.4134064	1	2.29227	-10.39003	2.548427E-005	0.0007077	11
	15	53	9515.62	2.271403	-0.5508658	1	2.337248	-13.6323	2.807789E-005	0.0006927	11
	16	56	7546.875	2.293372	-0.7158087	1	2.402486	-17.33422	-4.388513E-005	0.0006646	11
	17	58	5928.309	2.32226	-0.9209598	1	2.498211	-21.63224	5.661071E-006	0.0006735	11
	18	60	4733.456	2.35646	-1.152225	1	2.623075	-26.05698	9.267783E-006	0.000677	11
	19	63	3796.875	2.397841	-1.426313	1	2.789984	-30.74554	-4.234906E-005	0.0007159	11
	20	65	2987.132	2.455936	-1.7893	1	3.038621	-36.07563	-4.010238E-005	0.0006636	11
	21	67	2390.625	2.524095	-2.202671	1	3.350047	-41.10983	-4.827746E-005	0.0006444	11
	22	69	1884.191	2.620187	-2.742513	1	3.792988	-46.30672	-2.313501E-005	0.0006698	11
	23	72	1516.544	2.73424	-3.347504	1	4.322251	-50.75806	-1.40122E-005	0.0006525	10
	24	74	1193.986	2.893193	-4.15756	1	5.065162	-55.16644	2.338152E-005	0.0006383	10
	25	77	946.5144	3.094961	-5.125837	1	5.987737	-58.87658	-2.658465E-005	0.0006531	10
	26	79	751.7689	3.357511	-6.291811	1	7.131604	-61.9142	2.007497E-005	0.0006442	10
	27	81	597.4265	3.697003	-7.70605	1	8.546989	-64.37048	2.164963E-005	0.0006408	10
	28	84	477.4305	4.116944	-9.370098	1	10.23465	-66.28073	-3.577488E-007	0.0006535	10
	29	86	376.6741	4.687731	-11.49372	1	12.41291	-67.81183	-4.963334E-008	0.0006503	10
	30	88	298.2954	5.400946	-14.01563	1	15.02026	-68.92576	2.30706E-007	0.0006532	10
	31	90	237.7717	6.265775	-16.95004	1	18.07107	-69.71259	-3.971856E-007	0.0006491	10
	32	93	189.0121	7.339699	-20.49439	1	21.76905	-70.29593	-5.677219E-007	0.000652	10
	33	95	150.2404	8.63694	-24.71957	1	26.18499	-70.74075	-4.173322E-007	0.000658	10
	34	98	119.1737	10.19175	-29.82441	1	31.51772	-71.13342	-1.758949E-007	0.0006608	10
	35	100	95.0169	11.95586	-35.7868	1	37.73113	-71.52626	-3.527138E-007	0.0006525	10
	36	103	75.60484	13.97636	-42.96769	1	45.18364	-71.98154	2.260677E-006	5.473647E-005	9
	37	105	54.50582	17.35606	-56.0256	1	58.65237	-72.78765	2.234054E-006	5.111921E-005	9
	38	108	45.95588	19.36777	-64.46985	1	67.31621	-73.27889	2.59885E-006	5.997863E-005	9
	39	110	37.20238	22.15274	-76.88397	1	80.0118	-73.92661	2.447518E-006	5.465416E-005	9
	40	112	30.04808	25.36683	-92.1032	1	95.5326	-74.60152	2.362725E-006	5.03445E-005	9
	41	115	23.91582	29.36423	-112.0136	1	115.7986	-75.31052	2.464486E-006	5.225975E-005	9
	42	117	18.60119	34.79282	-139.3124	1	143.5914	-75.97742	2.508156E-006	5.928278E-005	9
	43	119	15.02404	40.46651	-168.043	1	172.8467	-76.46037	2.924399E-006	6.722545E-005	9
	44	122	12.01923	47.92355	-204.5852	1	210.1232	-76.81632	2.478341E-006	6.226452E-005	9
	45	124	9.450605	58.26523	-253.3493	1	259.9629	-77.04833	2.762335E-006	6.267165E-005	9
	46	127	7.512019	71.28018	-310.7169	1	318.7881	-77.07959	2.89628E-006	6.422424E-005	9
	47	129	5.978954	88.0488	-380.249	1	390.31	-76.96261	2.909412E-006	5.784314E-005	9
	48	132	4.734848	110.7258	-465.5926	1	478.5778	-76.62259	2.070033E-006	0.0006213	8
	49	136	3.75601	141.6245	-570.2692	1	587.592	-76.05295	2.273549E-006	0.0006409	8
	50	139	3.004808	181.5873	-691.3612	1	714.8107	-75.28356	2.126845E-006	0.0007011	8
	51	143	2.372217	240.0825	-844.4032	1	877.8704	-74.12838	2.135851E-006	0.0006031	8
	52	147	1.878005	317.8597	-1027.619	1	1075.656	-72.81229	2.270825E-006	0.0006228	8
	53	152	1.512097	410.4866	-1222.718	1	1289.782	-71.44225	2.165591E-006	0.0006578	8
	54	157	1.201923	544.9697	-1466.077	1	1564.089	-69.60891	2.211492E-006	0.000649	8
	55	164	0.956633	717.9648	-1739.481	1	1881.825	-67.57178	2.060738E-006	-3.893791E-006	8
