EXPLAIN
TAG	EISPOT
TITLE	LABEL	Potentiostatic EIS	Test Identifier
DATE	LABEL	9/12/2020	Date
TIME	LABEL	22:15:15	Time
NOTES	NOTES	1	Notes...
	
PSTAT	PSTAT	REF3000-16137	Potentiostat
VDC	POTEN	0.00000E+000	T	DC Voltage (V)
FREQINIT	QUANT	3.00000E+005	Initial Freq. (Hz)
FREQFINAL	QUANT	1.00000E+000	Final Freq. (Hz)
PTSPERDEC	QUANT	1.00000E+001	Points/decade
VAC	QUANT	5.00000E+001	AC Voltage (mV rms)
AREA	QUANT	1.00000E+000	Sample Area (cm^2)
SPEED	SELECTOR	2	Optimize for:
ZGUESS	QUANT	1.00000E+003	Estimated Z (ohms)
EOC	QUANT	0	Open Circuit (V)
SEQUENCER	TOGGLE	TRUE	Run as Sequence
PSTATMODEL	IQUANT	5	Pstat Model
PSTATSECTION	LABEL	REF3000-16137	Pstat Section
PSTATSERIALNO	LABEL	16137	Pstat Serial Number
CTRLMODE	IQUANT	1	Control Mode
IESTAB	IQUANT	0	I/E Stability
CASPEED	IQUANT	1	Control Amp Speed
CONVENTION	IQUANT	1	Current Convention
ICHRANGE	IQUANT	2	Ich Range
ICHRANGEMODE	TOGGLE	F	Ich Auto Range
ICHOFFSETENABLE	TOGGLE	T	Ich Offset Enable
ICHOFFSET	QUANT	0	Ich Offset (V)
ICHFILTER	IQUANT	3	Ich Filter
VCHRANGE	IQUANT	2	Vch Range
VCHRANGEMODE	TOGGLE	F	Vch Auto Range
VCHOFFSETENABLE	TOGGLE	T	Vch Offset Enable
VCHOFFSET	QUANT	0	Vch Offset (V)
VCHFILTER	IQUANT	3	Vch Filter
ACHRANGE	IQUANT	2	Ach Range
ACHOFFSETENABLE	TOGGLE	F	Ach Offset Enable
ACHOFFSET	QUANT	0	Ach Offset (V)
ACHFILTER	IQUANT	3	Ach Filter
IERANGELOWERLIMIT	IQUANT	2	I/E Range Lower Limit
IERANGEMODE	TOGGLE	F	I/E AutoRange
IERANGE	IQUANT	11	I/E Range
POSFEEDENABLE	TOGGLE	F	Positive Feedback IR Comp
POSFEEDRESISTANCE	QUANT	0	Positive Feedback Resistance (ohm)
ACHSELECT	IQUANT	0	Ach Select
CABLEID	IQUANT	13	Cable ID
DCCALDATE	LABEL	7/31/2020	DC Calibration Date
ACCALDATE	LABEL	7/31/2020	AC Calibration Date
THERMOSELECT	IQUANT	1	Thermo Select
FRAMEWORKVERSION	QUANT	6.33	Framework Version
INSTRUMENTVERSION	LABEL	3.50	Instrument Version
COMPLIANCEVOLTAGE	IQUANT	0	Compliance Voltage
ZCURVE	TABLE
	Pt	Time	Freq	Zreal	Zimag	Zsig	Zmod	Zphz	Idc	Vdc	IERange
	#	s	Hz	ohm	ohm	V	ohm	°	A	V	#
	0	10	300046.9	2.779765	2.280949	1	3.595806	39.37076	-1.925848E-005	-0.0002447	10
	1	13	238359.4	2.749956	1.797899	1	3.285529	33.17633	1.194434E-005	-0.000588	10
	2	16	189328.1	2.813292	1.209522	1	3.062279	23.26438	-0.0001393	-0.0003073	12
	3	20	150421.9	2.720005	1.10268	1	2.935018	22.06745	-2.000015E-005	0.0003481	11
	4	22	119484.4	2.709991	0.8524612	1	2.840905	17.46161	-2.217584E-006	0.0004949	11
	5	25	94921.88	2.703394	0.6517156	1	2.780841	13.55385	-1.987262E-005	0.0004994	11
	6	27	75421.88	2.701289	0.4822461	1	2.743998	10.12206	1.820772E-005	0.0005504	11
	7	30	59859.37	2.703043	0.340001	1	2.724343	7.169271	2.168479E-005	0.0006009	11
	8	32	47578.12	2.706313	0.2175068	1	2.715039	4.594994	6.002117E-006	0.0006189	11
	9	35	37828.12	2.710275	0.1072375	1	2.712396	2.265842	1.82668E-005	0.0006519	11
	10	37	30046.88	2.716245	0.0035522	1	2.716248	0.0749281	-3.920479E-005	0.0006152	11
	11	40	23859.38	2.724488	-0.0986154	1	2.726272	-2.072969	8.20078E-007	0.0006541	11
	12	42	18984.38	2.734467	-0.2032946	1	2.742014	-4.251846	-3.251236E-005	0.0006714	11
	13	44	15046.87	2.745574	-0.3184307	1	2.763978	-6.615589	-2.007583E-005	0.0006519	11
	14	47	11953.13	2.760833	-0.4458356	1	2.796599	-9.173269	-2.877601E-005	0.0006738	11
	15	49	9515.62	2.77838	-0.5919925	1	2.840748	-12.0282	2.42713E-005	0.0007055	11
	16	51	7546.875	2.800575	-0.7659921	1	2.90344	-15.29698	5.033104E-006	0.0006594	11
	17	54	5928.309	2.831276	-0.984691	1	2.997622	-19.17718	1.476898E-005	0.000687	11
	18	56	4733.456	2.866709	-1.231163	1	3.119901	-23.24203	2.286838E-005	0.0007017	11
	19	58	3796.875	2.910635	-1.523746	1	3.285361	-27.6325	-3.24678E-005	0.0006766	11
	20	61	2987.132	2.968728	-1.911518	1	3.530899	-32.77686	1.353472E-005	0.0006869	11
	21	63	2390.625	3.040711	-2.356015	1	3.846652	-37.76937	-1.39208E-005	0.0006292	10
	22	65	1884.191	3.136203	-2.935997	1	4.296027	-43.11159	1.197472E-005	0.0006116	10
	23	68	1516.544	3.246619	-3.585086	1	4.83667	-47.83632	-2.229434E-005	0.0006563	10
	24	70	1193.986	3.403164	-4.45948	1	5.609678	-52.65165	2.235949E-005	0.000632	10
	25	72	946.5144	3.599008	-5.509452	1	6.5808	-56.84573	1.949671E-005	0.0006261	10
	26	75	751.7689	3.857993	-6.780886	1	7.801571	-60.36224	2.185428E-005	0.0006342	10
	27	77	597.4265	4.194504	-8.329037	1	9.325595	-63.27017	-3.616306E-006	0.0006277	10
	28	79	477.4305	4.61092	-10.16298	1	11.16005	-65.59631	-1.050388E-006	0.0006518	10
	29	82	376.6741	5.186147	-12.51666	1	13.54854	-67.49384	-1.029616E-006	0.0006553	10
	30	84	298.2954	5.916459	-15.32845	1	16.43064	-68.89447	-1.262242E-006	0.000654	10
	31	86	237.7717	6.820612	-18.61746	1	19.82752	-69.8794	-2.054431E-006	0.0006518	10
	32	89	189.0121	7.971002	-22.60634	1	23.97047	-70.57733	-1.797103E-006	0.0006519	10
	33	91	150.2404	9.396761	-27.37708	1	28.94483	-71.056	-1.845566E-006	0.0006494	10
	34	94	119.1737	11.1537	-33.12336	1	34.95085	-71.38995	-1.493263E-006	0.000651	10
	35	96	95.0169	13.19024	-39.76953	1	41.89986	-71.65102	1.573025E-006	5.230176E-005	9
	36	98	75.60484	15.61234	-47.8175	1	50.30168	-71.91822	1.440666E-006	5.054818E-005	9
	37	101	54.50582	19.70907	-62.20386	1	65.25157	-72.41938	1.364696E-006	5.355046E-005	9
	38	103	45.95588	22.15366	-71.40897	1	74.76648	-72.76421	1.815245E-006	5.188477E-005	9
	39	106	37.20238	25.48682	-84.8362	1	88.58194	-73.27848	1.665354E-006	5.310156E-005	9
	40	108	30.04808	29.25121	-101.212	1	105.3542	-73.88021	1.592477E-006	4.774662E-005	9
	41	111	23.91582	33.80525	-122.5953	1	127.1708	-74.58398	1.427852E-006	5.049396E-005	9
	42	113	18.60119	39.5933	-151.756	1	156.8359	-75.37743	1.869536E-006	5.170497E-005	9
	43	115	15.02404	45.46336	-182.5244	1	188.1012	-76.01332	1.72684E-006	5.402247E-005	9
	44	117	12.01923	52.91689	-221.8589	1	228.0823	-76.58469	1.743114E-006	5.607987E-005	9
	45	120	9.450605	62.84109	-274.3042	1	281.4104	-77.09662	1.705097E-006	4.779879E-005	9
	46	122	7.512019	74.67947	-336.3394	1	344.5305	-77.48136	1.910064E-006	3.653593E-005	9
	47	125	5.978954	89.9341	-412.0534	1	421.7536	-77.6878	1.919805E-006	5.500269E-005	9
	48	128	4.734848	109.2572	-505.4732	1	517.1464	-77.80324	1.096181E-006	0.0006088	8
	49	131	3.75601	135.2648	-621.5228	1	636.0717	-77.72192	1.261153E-006	0.000639	8
	50	135	3.004808	168.0443	-757.5373	1	775.9521	-77.49262	1.168229E-006	0.0006547	8
	51	139	2.372217	214.6022	-933.4861	1	957.836	-77.05304	1.170369E-006	0.0006712	8
	52	143	1.878005	279.0739	-1146.209	1	1179.694	-76.31612	1.228561E-006	0.0006042	8
	53	147	1.512097	357.5382	-1382.308	1	1427.798	-75.49809	1.221637E-006	0.0007279	8
	54	153	1.201923	467.2285	-1683.869	1	1747.489	-74.49209	1.229589E-006	0.000606	8
	55	159	0.956633	612.5141	-2037.395	1	2127.476	-73.26734	1.132851E-006	-1.023167E-005	8
