EXPLAIN
TAG	EISPOT
TITLE	LABEL	Potentiostatic EIS	Test Identifier
DATE	LABEL	9/12/2020	Date
TIME	LABEL	23:32:26	Time
NOTES	NOTES	1	Notes...
	
PSTAT	PSTAT	REF3000-16137	Potentiostat
VDC	POTEN	0.00000E+000	T	DC Voltage (V)
FREQINIT	QUANT	3.00000E+005	Initial Freq. (Hz)
FREQFINAL	QUANT	1.00000E+000	Final Freq. (Hz)
PTSPERDEC	QUANT	1.00000E+001	Points/decade
VAC	QUANT	5.00000E+001	AC Voltage (mV rms)
AREA	QUANT	1.00000E+000	Sample Area (cm^2)
SPEED	SELECTOR	2	Optimize for:
ZGUESS	QUANT	1.00000E+003	Estimated Z (ohms)
EOC	QUANT	0	Open Circuit (V)
SEQUENCER	TOGGLE	TRUE	Run as Sequence
PSTATMODEL	IQUANT	5	Pstat Model
PSTATSECTION	LABEL	REF3000-16137	Pstat Section
PSTATSERIALNO	LABEL	16137	Pstat Serial Number
CTRLMODE	IQUANT	1	Control Mode
IESTAB	IQUANT	0	I/E Stability
CASPEED	IQUANT	1	Control Amp Speed
CONVENTION	IQUANT	1	Current Convention
ICHRANGE	IQUANT	2	Ich Range
ICHRANGEMODE	TOGGLE	F	Ich Auto Range
ICHOFFSETENABLE	TOGGLE	T	Ich Offset Enable
ICHOFFSET	QUANT	0	Ich Offset (V)
ICHFILTER	IQUANT	3	Ich Filter
VCHRANGE	IQUANT	2	Vch Range
VCHRANGEMODE	TOGGLE	F	Vch Auto Range
VCHOFFSETENABLE	TOGGLE	T	Vch Offset Enable
VCHOFFSET	QUANT	0	Vch Offset (V)
VCHFILTER	IQUANT	3	Vch Filter
ACHRANGE	IQUANT	2	Ach Range
ACHOFFSETENABLE	TOGGLE	F	Ach Offset Enable
ACHOFFSET	QUANT	0	Ach Offset (V)
ACHFILTER	IQUANT	3	Ach Filter
IERANGELOWERLIMIT	IQUANT	2	I/E Range Lower Limit
IERANGEMODE	TOGGLE	F	I/E AutoRange
IERANGE	IQUANT	11	I/E Range
POSFEEDENABLE	TOGGLE	F	Positive Feedback IR Comp
POSFEEDRESISTANCE	QUANT	0	Positive Feedback Resistance (ohm)
ACHSELECT	IQUANT	0	Ach Select
CABLEID	IQUANT	13	Cable ID
DCCALDATE	LABEL	7/31/2020	DC Calibration Date
ACCALDATE	LABEL	7/31/2020	AC Calibration Date
THERMOSELECT	IQUANT	1	Thermo Select
FRAMEWORKVERSION	QUANT	6.33	Framework Version
INSTRUMENTVERSION	LABEL	3.50	Instrument Version
COMPLIANCEVOLTAGE	IQUANT	0	Compliance Voltage
ZCURVE	TABLE
	Pt	Time	Freq	Zreal	Zimag	Zsig	Zmod	Zphz	Idc	Vdc	IERange
	#	s	Hz	ohm	ohm	V	ohm	°	A	V	#
	0	14	300046.9	1350.154	-672.0637	1	1508.173	-26.46267	-1.542759E-005	0.0017074	9
	1	27	238359.4	1500.524	-647.069	1	1634.096	-23.3271	-1.381524E-005	0.0017011	9
	2	39	189328.1	1634.989	-588.1543	1	1737.56	-19.78517	1.944085E-005	-0.0004436	9
	3	46	150421.9	1749.222	-551.6687	1	1834.152	-17.50421	2.620702E-005	0.0009701	9
	4	52	119484.4	1865.166	-410.6093	1	1909.828	-12.41541	1.530215E-005	-0.011528	8
	5	59	94921.88	1939.971	-354.6121	1	1972.115	-10.35888	-8.473899E-006	0.008488	8
	6	62	75421.88	2001.127	-300.1078	1	2023.505	-8.52905	-2.034936E-005	0.0095985	8
	7	66	59859.37	2043.715	-261.7217	1	2060.405	-7.297677	2.090549E-005	-0.0029491	8
	8	68	47578.12	2085.135	-218.3345	1	2096.534	-5.977658	1.841706E-005	-0.0082229	8
	9	72	37828.12	2123.352	-185.5736	1	2131.446	-4.99476	2.226256E-005	-0.0078809	8
	10	75	30046.88	2171.023	-151.3722	1	2176.294	-3.988431	-1.504503E-005	0.001227	8
	11	81	23859.38	2219.744	-126.9824	1	2223.373	-3.274087	-1.519401E-005	0.0011964	8
	12	85	18984.38	2255.449	-109.0259	1	2258.083	-2.76746	-2.302652E-005	0.0086583	8
	13	88	15046.87	2285.04	-93.44664	1	2286.95	-2.341805	1.301972E-005	-0.0078193	8
	14	92	11953.13	2317.113	-74.98664	1	2318.326	-1.853565	-1.52229E-005	0.0012379	8
	15	96	9515.62	2353.936	-58.13924	1	2354.654	-1.414846	-2.072931E-005	0.0097899	8
	16	99	7546.875	2389.285	-58.11416	1	2389.991	-1.393321	-2.66306E-006	-0.0038962	8
	17	103	5928.309	2453.705	-43.49506	1	2454.091	-1.015534	1.878959E-005	-0.0009419	9
	18	108	4733.456	2478.49	-37.419	1	2478.773	-0.8649572	2.1401E-005	-0.0029797	8
	19	114	3796.875	2537.084	-31.89012	1	2537.284	-0.720147	2.249731E-005	-0.0078696	8
	20	119	2987.132	2591.524	-26.9516	1	2591.665	-0.595849	1.316176E-005	-0.0079421	8
	21	125	2390.625	2646.574	-25.12069	1	2646.694	-0.5438224	8.847645E-006	0.0032541	8
	22	130	1884.191	2710.017	-32.33429	1	2710.21	-0.6835862	2.49685E-005	-0.000949	9
	23	135	1516.544	2750.692	-12.98854	1	2750.723	-0.2705439	2.154656E-005	-0.0029625	8
	24	140	1193.986	2809.653	-14.10595	1	2809.688	-0.2876529	2.307594E-005	-0.0081646	8
	25	146	946.5144	2848.563	6.279097	1	2848.57	0.1262971	1.315037E-005	-0.0079725	8
	26	150	751.7689	2915.587	-54.07758	1	2916.088	-1.062586	1.049055E-005	0.0003928	9
	27	153	597.4265	2956.153	-26.83641	1	2956.275	-0.5201254	-1.521392E-005	0.00113	8
	28	157	477.4305	2983.461	-31.23166	1	2983.625	-0.5997654	-3.392898E-007	0.000647	8
	29	160	376.6741	3011.716	-36.03663	1	3011.931	-0.6855389	-3.325977E-007	0.0006411	8
	30	163	298.2954	3039.599	-42.62903	1	3039.898	-0.8034953	-3.293123E-007	0.0006271	8
	31	165	237.7717	3068.97	-50.97762	1	3069.394	-0.951633	-3.412536E-007	0.0006445	8
	32	168	189.0121	3099.228	-61.43876	1	3099.837	-1.135676	-2.881087E-007	0.0006267	8
	33	170	150.2404	3129.882	-74.78867	1	3130.775	-1.368825	-3.361821E-007	0.0006452	8
	34	172	119.1737	3162.029	-91.41827	1	3163.35	-1.656032	-3.334899E-007	0.0006168	8
	35	175	95.0169	3193.021	-111.7751	1	3194.977	-2.004882	-3.016033E-007	0.000624	8
	36	177	75.60484	3227.495	-137.2717	1	3230.413	-2.435434	-3.044923E-007	0.0006741	8
	37	180	54.50582	3265.453	-184.7793	1	3270.677	-3.238693	-3.218814E-007	0.0006406	8
	38	182	45.95588	3300.029	-215.057	1	3307.029	-3.728592	-2.250589E-007	0.0006147	8
	39	185	37.20238	3334.961	-262.3844	1	3345.267	-4.498587	-3.088863E-007	0.0006151	8
	40	187	30.04808	3373.417	-319.9436	1	3388.555	-5.417874	-3.115557E-007	0.0006115	8
	41	189	23.91582	3411.706	-396.5721	1	3434.677	-6.630229	-1.962878E-007	0.0006344	8
	42	192	18.60119	3456.868	-497.7983	1	3492.526	-8.194416	-3.230346E-007	0.000644	8
	43	194	15.02404	3510.88	-601.7559	1	3562.076	-9.72585	-5.223311E-007	0.0006308	8
	44	196	12.01923	3552.356	-745.6902	1	3629.778	-11.85507	-3.28236E-007	0.0006386	8
	45	199	9.450605	3613.911	-931.9929	1	3732.152	-14.46094	4.435133E-008	0.0006087	7
	46	201	7.512019	3688.326	-1155.625	1	3865.129	-17.3968	-4.277434E-008	0.0006072	7
	47	204	5.978954	3763.504	-1422.166	1	4023.248	-20.70075	-1.318007E-007	0.0006709	7
	48	207	4.734848	3864.71	-1760.975	1	4247.001	-24.49663	-7.343017E-008	0.0005852	7
	49	210	3.75601	3980.802	-2178.682	1	4538	-28.69176	-9.064072E-008	0.0005646	7
	50	214	3.004808	4109.193	-2667.214	1	4898.928	-32.98698	-5.433922E-008	0.0005353	7
	51	217	2.372217	4279.117	-3304.991	1	5406.83	-37.68083	-8.700019E-008	0.0005429	7
	52	222	1.878005	4473.995	-4087.077	1	6059.771	-42.41227	-6.889036E-008	0.0006136	7
	53	226	1.512097	4706.694	-4965.396	1	6841.646	-46.53214	-7.628417E-008	0.0005115	7
	54	232	1.201923	4998.592	-6135.328	1	7913.796	-50.82951	-7.018674E-008	0.0006312	7
	55	238	0.956633	5358.669	-7550.994	1	9259.203	-54.63805	-8.432649E-008	-3.595299E-005	7
