EXPLAIN
TAG	EISPOT
TITLE	LABEL	Potentiostatic EIS	Test Identifier
DATE	LABEL	9/12/2020	Date
TIME	LABEL	21:58:01	Time
NOTES	NOTES	1	Notes...
	
PSTAT	PSTAT	REF3000-16137	Potentiostat
VDC	POTEN	0.00000E+000	T	DC Voltage (V)
FREQINIT	QUANT	3.00000E+005	Initial Freq. (Hz)
FREQFINAL	QUANT	1.00000E+000	Final Freq. (Hz)
PTSPERDEC	QUANT	1.00000E+001	Points/decade
VAC	QUANT	5.00000E+001	AC Voltage (mV rms)
AREA	QUANT	1.00000E+000	Sample Area (cm^2)
SPEED	SELECTOR	2	Optimize for:
ZGUESS	QUANT	1.00000E+003	Estimated Z (ohms)
EOC	QUANT	0	Open Circuit (V)
SEQUENCER	TOGGLE	TRUE	Run as Sequence
PSTATMODEL	IQUANT	5	Pstat Model
PSTATSECTION	LABEL	REF3000-16137	Pstat Section
PSTATSERIALNO	LABEL	16137	Pstat Serial Number
CTRLMODE	IQUANT	1	Control Mode
IESTAB	IQUANT	0	I/E Stability
CASPEED	IQUANT	1	Control Amp Speed
CONVENTION	IQUANT	1	Current Convention
ICHRANGE	IQUANT	2	Ich Range
ICHRANGEMODE	TOGGLE	F	Ich Auto Range
ICHOFFSETENABLE	TOGGLE	T	Ich Offset Enable
ICHOFFSET	QUANT	0	Ich Offset (V)
ICHFILTER	IQUANT	3	Ich Filter
VCHRANGE	IQUANT	2	Vch Range
VCHRANGEMODE	TOGGLE	F	Vch Auto Range
VCHOFFSETENABLE	TOGGLE	T	Vch Offset Enable
VCHOFFSET	QUANT	0	Vch Offset (V)
VCHFILTER	IQUANT	3	Vch Filter
ACHRANGE	IQUANT	2	Ach Range
ACHOFFSETENABLE	TOGGLE	F	Ach Offset Enable
ACHOFFSET	QUANT	0	Ach Offset (V)
ACHFILTER	IQUANT	3	Ach Filter
IERANGELOWERLIMIT	IQUANT	2	I/E Range Lower Limit
IERANGEMODE	TOGGLE	F	I/E AutoRange
IERANGE	IQUANT	11	I/E Range
POSFEEDENABLE	TOGGLE	F	Positive Feedback IR Comp
POSFEEDRESISTANCE	QUANT	0	Positive Feedback Resistance (ohm)
ACHSELECT	IQUANT	0	Ach Select
CABLEID	IQUANT	13	Cable ID
DCCALDATE	LABEL	7/31/2020	DC Calibration Date
ACCALDATE	LABEL	7/31/2020	AC Calibration Date
THERMOSELECT	IQUANT	1	Thermo Select
FRAMEWORKVERSION	QUANT	6.33	Framework Version
INSTRUMENTVERSION	LABEL	3.50	Instrument Version
COMPLIANCEVOLTAGE	IQUANT	0	Compliance Voltage
ZCURVE	TABLE
	Pt	Time	Freq	Zreal	Zimag	Zsig	Zmod	Zphz	Idc	Vdc	IERange
	#	s	Hz	ohm	ohm	V	ohm	°	A	V	#
	0	10	300046.9	2.160188	2.242275	1	3.113552	46.0682	-2.001959E-005	-0.0002867	11
	1	13	238359.4	2.122493	1.781502	1	2.771051	40.00821	5.252455E-005	-0.0000974	11
	2	16	189328.1	2.180283	1.26352	1	2.519943	30.0932	-4.35989E-005	4.841659E-005	12
	3	20	150421.9	2.127432	0.998303	1	2.350016	25.13845	-4.911802E-006	0.0002831	12
	4	24	119484.4	2.064967	0.8638161	1	2.238363	22.70051	-4.053996E-005	0.0003407	11
	5	26	94921.88	2.059956	0.6625122	1	2.163872	17.82856	1.391164E-005	0.0004579	11
	6	29	75421.88	2.055691	0.4952014	1	2.114496	13.5441	5.724864E-006	0.0004811	11
	7	31	59859.37	2.055766	0.3548698	1	2.086171	9.79397	-8.850979E-005	0.0005956	11
	8	34	47578.12	2.057016	0.2330275	1	2.070173	6.463156	1.649344E-005	0.0005932	11
	9	36	37828.12	2.060414	0.1258015	1	2.064251	3.493938	-2.622971E-005	0.0006018	11
	10	39	30046.88	2.065123	0.0251244	1	2.065276	0.6970301	2.324269E-005	0.0006661	11
	11	41	23859.38	2.071142	-0.0728438	1	2.072423	-2.014311	-4.545495E-005	0.000618	11
	12	44	18984.38	2.079253	-0.1720323	1	2.086357	-4.729742	-2.277701E-005	0.0006499	11
	13	46	15046.87	2.090432	-0.2795194	1	2.109037	-7.616053	-2.51363E-005	0.0006767	11
	14	48	11953.13	2.1033	-0.3979743	1	2.14062	-10.71451	9.86362E-007	0.0006748	11
	15	51	9515.62	2.119883	-0.5320879	1	2.185639	-14.09009	3.208525E-005	0.0007067	11
	16	53	7546.875	2.141239	-0.6911858	1	2.250032	-17.88993	2.059406E-005	0.0006819	11
	17	55	5928.309	2.169566	-0.8903494	1	2.345152	-22.31233	1.541477E-005	0.0006774	11
	18	58	4733.456	2.202802	-1.114341	1	2.468621	-26.83369	1.286026E-005	0.0006777	11
	19	60	3796.875	2.244425	-1.379795	1	2.63463	-31.58178	1.978105E-005	0.0007001	11
	20	62	2987.132	2.30244	-1.730431	1	2.880212	-36.92721	-3.554186E-005	0.0006709	11
	21	65	2390.625	2.371996	-2.127679	1	3.186437	-41.89209	7.86487E-006	0.000677	11
	22	67	1884.191	2.465945	-2.649891	1	3.619779	-47.05925	2.459487E-007	0.0006682	11
	23	69	1516.544	2.580742	-3.231854	1	4.135832	-51.39148	-2.198811E-005	0.0006644	10
	24	72	1193.986	2.742302	-4.010127	1	4.85812	-55.63396	2.996699E-007	0.0006276	10
	25	74	946.5144	2.945606	-4.933275	1	5.745763	-59.15903	1.48885E-005	0.0006337	10
	26	76	751.7689	3.207982	-6.049895	1	6.847801	-62.06504	1.430027E-005	0.0006214	10
	27	79	597.4265	3.54718	-7.400995	1	8.207145	-64.39233	-7.2043E-007	0.0006283	10
	28	81	477.4305	3.96352	-8.982439	1	9.81803	-66.19043	6.204503E-007	0.0006567	10
	29	83	376.6741	4.525494	-10.9961	1	11.89094	-67.63017	4.998163E-007	0.0006541	10
	30	86	298.2954	5.221656	-13.38243	1	14.36506	-68.68489	2.350484E-007	0.0006553	10
	31	88	237.7717	6.056282	-16.15421	1	17.25216	-69.44877	3.131472E-007	0.0006497	10
	32	90	189.0121	7.081208	-19.49895	1	20.74495	-70.04108	5.562396E-007	0.0006525	10
	33	93	150.2404	8.302607	-23.49003	1	24.91415	-70.53393	-1.875603E-007	0.0006537	10
	34	95	119.1737	9.74984	-28.31977	1	29.9511	-71.00259	5.615437E-007	0.00066	10
	35	98	95.0169	11.37529	-33.97871	1	35.83225	-71.49065	-1.517189E-007	0.000702	10
	36	100	75.60484	13.22693	-40.82513	1	42.91436	-72.0482	3.115992E-006	5.255649E-005	9
	37	103	54.50582	16.31963	-53.33804	1	55.77882	-72.98767	3.001088E-006	5.210538E-005	9
	38	105	45.95588	18.17628	-61.45984	1	64.09126	-73.52482	3.349883E-006	6.10565E-005	9
	39	107	37.20238	20.77622	-73.43968	1	76.32194	-74.20369	3.383967E-006	5.046494E-005	9
	40	110	30.04808	23.79674	-88.06154	1	91.22017	-74.87822	3.184663E-006	4.813058E-005	9
	41	112	23.91582	27.66492	-107.2567	1	110.7671	-75.53683	3.17568E-006	5.007214E-005	9
	42	115	18.60119	33.00912	-133.6454	1	137.6615	-76.12617	3.183099E-006	5.529907E-005	9
	43	117	15.02404	38.74654	-161.3582	1	165.9451	-76.49736	3.449225E-006	4.714787E-005	9
	44	119	12.01923	46.36158	-196.6057	1	201.9981	-76.73148	3.501173E-006	5.259019E-005	9
	45	122	9.450605	57.00166	-243.3759	1	249.962	-76.81821	3.660115E-006	4.557193E-005	9
	46	124	7.512019	70.81268	-298.4615	1	306.747	-76.65285	3.87027E-006	6.203682E-005	9
	47	127	5.978954	88.65771	-364.8361	1	375.4538	-76.34148	3.858487E-006	5.183031E-005	9
	48	130	4.734848	113.2939	-445.9412	1	460.1077	-75.74526	2.958732E-006	0.0006223	8
	49	133	3.75601	146.8432	-544.7216	1	564.1672	-74.91313	3.151358E-006	0.0006391	8
	50	137	3.004808	190.5899	-657.9457	1	684.9943	-73.84506	3.006111E-006	0.0006634	8
	51	140	2.372217	253.3277	-800.3732	1	839.5071	-72.4368	3.040919E-006	0.0006709	8
	52	145	1.878005	338.8841	-964.791	1	1022.577	-70.64611	3.10079E-006	0.0006052	8
	53	149	1.512097	441.421	-1139.977	1	1222.457	-68.83264	3.059826E-006	0.0007295	8
	54	155	1.201923	582.5012	-1351.554	1	1471.736	-66.68462	3.059273E-006	0.0006067	8
	55	161	0.956633	761.1198	-1583.481	1	1756.905	-64.32815	2.854645E-006	-6.677536E-006	8
