EXPLAIN
TAG	EISPOT
TITLE	LABEL	Potentiostatic EIS	Test Identifier
DATE	LABEL	9/12/2020	Date
TIME	LABEL	23:08:19	Time
NOTES	NOTES	1	Notes...
	
PSTAT	PSTAT	REF3000-16137	Potentiostat
VDC	POTEN	0.00000E+000	T	DC Voltage (V)
FREQINIT	QUANT	3.00000E+005	Initial Freq. (Hz)
FREQFINAL	QUANT	1.00000E+000	Final Freq. (Hz)
PTSPERDEC	QUANT	1.00000E+001	Points/decade
VAC	QUANT	5.00000E+001	AC Voltage (mV rms)
AREA	QUANT	1.00000E+000	Sample Area (cm^2)
SPEED	SELECTOR	2	Optimize for:
ZGUESS	QUANT	1.00000E+003	Estimated Z (ohms)
EOC	QUANT	0	Open Circuit (V)
SEQUENCER	TOGGLE	TRUE	Run as Sequence
PSTATMODEL	IQUANT	5	Pstat Model
PSTATSECTION	LABEL	REF3000-16137	Pstat Section
PSTATSERIALNO	LABEL	16137	Pstat Serial Number
CTRLMODE	IQUANT	1	Control Mode
IESTAB	IQUANT	0	I/E Stability
CASPEED	IQUANT	1	Control Amp Speed
CONVENTION	IQUANT	1	Current Convention
ICHRANGE	IQUANT	2	Ich Range
ICHRANGEMODE	TOGGLE	F	Ich Auto Range
ICHOFFSETENABLE	TOGGLE	T	Ich Offset Enable
ICHOFFSET	QUANT	0	Ich Offset (V)
ICHFILTER	IQUANT	3	Ich Filter
VCHRANGE	IQUANT	2	Vch Range
VCHRANGEMODE	TOGGLE	F	Vch Auto Range
VCHOFFSETENABLE	TOGGLE	T	Vch Offset Enable
VCHOFFSET	QUANT	0	Vch Offset (V)
VCHFILTER	IQUANT	3	Vch Filter
ACHRANGE	IQUANT	2	Ach Range
ACHOFFSETENABLE	TOGGLE	F	Ach Offset Enable
ACHOFFSET	QUANT	0	Ach Offset (V)
ACHFILTER	IQUANT	3	Ach Filter
IERANGELOWERLIMIT	IQUANT	2	I/E Range Lower Limit
IERANGEMODE	TOGGLE	F	I/E AutoRange
IERANGE	IQUANT	11	I/E Range
POSFEEDENABLE	TOGGLE	F	Positive Feedback IR Comp
POSFEEDRESISTANCE	QUANT	0	Positive Feedback Resistance (ohm)
ACHSELECT	IQUANT	0	Ach Select
CABLEID	IQUANT	13	Cable ID
DCCALDATE	LABEL	7/31/2020	DC Calibration Date
ACCALDATE	LABEL	7/31/2020	AC Calibration Date
THERMOSELECT	IQUANT	1	Thermo Select
FRAMEWORKVERSION	QUANT	6.33	Framework Version
INSTRUMENTVERSION	LABEL	3.50	Instrument Version
COMPLIANCEVOLTAGE	IQUANT	0	Compliance Voltage
ZCURVE	TABLE
	Pt	Time	Freq	Zreal	Zimag	Zsig	Zmod	Zphz	Idc	Vdc	IERange
	#	s	Hz	ohm	ohm	V	ohm	°	A	V	#
	0	7	300046.9	41.95767	2.32584	1	42.02208	3.17283	1.140029E-005	-7.743169E-005	9
	1	10	238359.4	42.29827	1.796983	1	42.33643	2.432668	7.621006E-006	-0.0014367	9
	2	13	189328.1	42.52765	1.374574	1	42.54986	1.851264	7.076499E-006	-0.0010854	9
	3	16	150421.9	42.74276	1.090956	1	42.75668	1.462086	-3.862956E-005	0.0005855	9
	4	18	119484.4	42.96093	0.8448484	1	42.96923	1.126605	5.213478E-005	-0.0017848	9
	5	21	94921.88	43.19012	0.7540209	1	43.1967	1.000178	-1.058625E-005	0.000463	9
	6	23	75421.88	43.36754	0.546128	1	43.37098	0.7214883	1.052758E-005	-0.000501	9
	7	26	59859.37	43.5522	0.3512303	1	43.55361	0.4620565	-7.800294E-006	-1.743133E-005	9
	8	28	47578.12	43.75702	0.1861725	1	43.75742	0.2437742	1.614033E-005	-0.000171	9
	9	31	37828.12	43.96383	0.0327126	1	43.96384	0.0426326	2.831922E-006	-0.000322	9
	10	33	30046.88	44.17976	-0.1156373	1	44.17991	-0.1499672	1.925684E-005	-0.0004884	9
	11	36	23859.38	44.39534	-0.2654746	1	44.39613	-0.3426124	-2.949245E-006	0.0004947	9
	12	38	18984.38	44.58989	-0.399544	1	44.59168	-0.5133802	1.391954E-005	-0.0005079	9
	13	40	15046.87	44.78939	-0.5505601	1	44.79278	-0.7042556	-1.63619E-005	0.0004924	9
	14	43	11953.13	44.99994	-0.7438545	1	45.00609	-0.9470199	-1.551869E-005	0.0003817	9
	15	45	9515.62	45.21473	-0.9393792	1	45.22449	-1.190203	-1.298116E-005	0.0005851	9
	16	47	7546.875	45.43871	-1.18741	1	45.45422	-1.496919	2.076039E-005	-0.0005405	9
	17	50	5928.309	45.66851	-1.51989	1	45.69379	-1.906153	1.412656E-005	-0.000522	9
	18	52	4733.456	45.90861	-1.877036	1	45.94696	-2.341312	1.417811E-005	-0.0005205	9
	19	54	3796.875	46.12844	-2.344838	1	46.188	-2.910001	-1.552689E-005	0.000386	9
	20	57	2987.132	46.40294	-2.928149	1	46.49524	-3.610729	-8.124523E-006	5.153618E-005	9
	21	59	2390.625	46.67625	-3.61786	1	46.81625	-4.432115	-1.26322E-005	0.0001895	9
	22	61	1884.191	47.01622	-4.504614	1	47.23153	-5.472791	-3.530984E-006	0.0005024	9
	23	64	1516.544	47.30241	-5.525359	1	47.62402	-6.662485	1.903202E-005	-0.0004579	9
	24	66	1193.986	47.67095	-6.925379	1	48.17137	-8.265797	3.268055E-006	0.0003029	9
	25	69	946.5144	48.09655	-8.604954	1	48.86025	-10.14347	1.417133E-005	-0.0005193	9
	26	71	751.7689	48.53501	-10.66442	1	49.69283	-12.39246	-1.52018E-005	0.0005995	9
	27	73	597.4265	49.07324	-13.19036	1	50.81504	-15.0449	1.956769E-005	-0.0003778	9
	28	76	477.4305	49.69131	-16.24382	1	52.27895	-18.10228	1.363591E-006	5.51119E-005	9
	29	78	376.6741	50.45391	-20.21951	1	54.35463	-21.83855	1.355429E-006	5.592776E-005	9
	30	80	298.2954	51.36063	-25.0613	1	57.14878	-26.00995	1.376692E-006	6.232523E-005	9
	31	82	237.7717	52.4371	-30.85238	1	60.84011	-30.47125	1.312384E-006	5.530965E-005	9
	32	85	189.0121	53.75277	-38.05486	1	65.85994	-35.297	1.41293E-006	5.811122E-005	9
	33	87	150.2404	55.34928	-46.91087	1	72.55461	-40.28269	1.327329E-006	6.309768E-005	9
	34	90	119.1737	57.32098	-57.92042	1	81.48908	-45.29802	1.403361E-006	5.806212E-005	9
	35	92	95.0169	59.70731	-71.15591	1	92.88771	-49.9998	1.354395E-006	6.079485E-005	9
	36	95	75.60484	62.69895	-87.55624	1	107.6906	-54.39358	1.36809E-006	5.253308E-005	9
	37	97	54.50582	68.2508	-117.737	1	136.0888	-59.89962	1.360885E-006	5.168575E-005	9
	38	100	45.95588	72.09795	-137.388	1	155.1566	-62.31059	1.433556E-006	5.780638E-005	9
	39	102	37.20238	77.8342	-166.1927	1	183.5161	-64.90456	1.292044E-006	5.966375E-005	9
	40	105	30.04808	85.12948	-201.3334	1	218.5914	-67.07998	1.415081E-006	5.030553E-005	9
	41	107	23.91582	94.98079	-246.8168	1	264.4615	-68.95213	1.508004E-006	5.554061E-005	9
	42	109	18.60119	109.0569	-308.4806	1	327.1906	-70.53001	1.664512E-006	5.248602E-005	9
	43	112	15.02404	124.5383	-372.1624	1	392.4469	-71.49799	1.291742E-006	4.926985E-005	9
	44	114	12.01923	144.2851	-450.349	1	472.8979	-72.23532	5.36997E-007	0.000636	8
	45	117	9.450605	171.9625	-554.0977	1	580.1683	-72.75843	2.520395E-007	0.0006311	8
	46	119	7.512019	204.9867	-673.886	1	704.3735	-73.08097	4.623874E-007	0.0006478	8
	47	122	5.978954	246.2861	-816.9146	1	853.2329	-73.22282	4.526072E-007	0.0006278	8
	48	125	4.734848	298.7492	-992.299	1	1036.296	-73.24465	4.162339E-007	0.0006615	8
	49	128	3.75601	361.3008	-1201.471	1	1254.62	-73.26316	3.892312E-007	0.0006292	8
	50	132	3.004808	432.6281	-1441.086	1	1504.624	-73.28973	3.691715E-007	0.0006669	8
	51	135	2.372217	520.525	-1747.701	1	1823.569	-73.41467	4.009073E-007	0.000696	8
	52	139	1.878005	622.8661	-2112.512	1	2202.424	-73.57205	3.94148E-007	0.0006071	8
	53	144	1.512097	731.4113	-2519.545	1	2623.561	-73.81226	3.666797E-007	0.0007815	8
	54	150	1.201923	856.1768	-3052.07	1	3169.885	-74.32995	4.058675E-007	0.0006051	8
	55	156	0.956633	997.476	-3696.756	1	3828.964	-74.89979	3.73509E-007	-3.263762E-006	8
