EXPLAIN
TAG	EISPOT
TITLE	LABEL	Potentiostatic EIS	Test Identifier
DATE	LABEL	9/12/2020	Date
TIME	LABEL	21:52:12	Time
NOTES	NOTES	1	Notes...
	
PSTAT	PSTAT	REF3000-16137	Potentiostat
VDC	POTEN	0.00000E+000	T	DC Voltage (V)
FREQINIT	QUANT	3.00000E+005	Initial Freq. (Hz)
FREQFINAL	QUANT	1.00000E+000	Final Freq. (Hz)
PTSPERDEC	QUANT	1.00000E+001	Points/decade
VAC	QUANT	5.00000E+001	AC Voltage (mV rms)
AREA	QUANT	1.00000E+000	Sample Area (cm^2)
SPEED	SELECTOR	2	Optimize for:
ZGUESS	QUANT	1.00000E+003	Estimated Z (ohms)
EOC	QUANT	0	Open Circuit (V)
SEQUENCER	TOGGLE	TRUE	Run as Sequence
PSTATMODEL	IQUANT	5	Pstat Model
PSTATSECTION	LABEL	REF3000-16137	Pstat Section
PSTATSERIALNO	LABEL	16137	Pstat Serial Number
CTRLMODE	IQUANT	1	Control Mode
IESTAB	IQUANT	0	I/E Stability
CASPEED	IQUANT	1	Control Amp Speed
CONVENTION	IQUANT	1	Current Convention
ICHRANGE	IQUANT	2	Ich Range
ICHRANGEMODE	TOGGLE	F	Ich Auto Range
ICHOFFSETENABLE	TOGGLE	T	Ich Offset Enable
ICHOFFSET	QUANT	0	Ich Offset (V)
ICHFILTER	IQUANT	3	Ich Filter
VCHRANGE	IQUANT	2	Vch Range
VCHRANGEMODE	TOGGLE	F	Vch Auto Range
VCHOFFSETENABLE	TOGGLE	T	Vch Offset Enable
VCHOFFSET	QUANT	0	Vch Offset (V)
VCHFILTER	IQUANT	3	Vch Filter
ACHRANGE	IQUANT	2	Ach Range
ACHOFFSETENABLE	TOGGLE	F	Ach Offset Enable
ACHOFFSET	QUANT	0	Ach Offset (V)
ACHFILTER	IQUANT	3	Ach Filter
IERANGELOWERLIMIT	IQUANT	2	I/E Range Lower Limit
IERANGEMODE	TOGGLE	F	I/E AutoRange
IERANGE	IQUANT	11	I/E Range
POSFEEDENABLE	TOGGLE	F	Positive Feedback IR Comp
POSFEEDRESISTANCE	QUANT	0	Positive Feedback Resistance (ohm)
ACHSELECT	IQUANT	0	Ach Select
CABLEID	IQUANT	13	Cable ID
DCCALDATE	LABEL	7/31/2020	DC Calibration Date
ACCALDATE	LABEL	7/31/2020	AC Calibration Date
THERMOSELECT	IQUANT	1	Thermo Select
FRAMEWORKVERSION	QUANT	6.33	Framework Version
INSTRUMENTVERSION	LABEL	3.50	Instrument Version
COMPLIANCEVOLTAGE	IQUANT	0	Compliance Voltage
ZCURVE	TABLE
	Pt	Time	Freq	Zreal	Zimag	Zsig	Zmod	Zphz	Idc	Vdc	IERange
	#	s	Hz	ohm	ohm	V	ohm	°	A	V	#
	0	10	300046.9	2.040621	2.242944	1	3.032315	47.70421	1.705499E-005	-0.0003	11
	1	13	238359.4	2.003659	1.791889	1	2.688032	41.80653	-0.0000981	-0.0004287	11
	2	16	189328.1	2.052164	1.276579	1	2.416822	31.88428	-0.0001173	-0.0001134	12
	3	20	150421.9	2.012242	1.000805	1	2.247382	26.44382	6.665077E-006	0.0002568	12
	4	24	119484.4	1.946988	0.8673322	1	2.131438	24.01171	-4.275594E-005	0.00035	11
	5	26	94921.88	1.936191	0.6660254	1	2.047541	18.98257	-3.442806E-005	0.0004125	11
	6	29	75421.88	1.933515	0.4993061	1	1.996944	14.47959	-3.973632E-005	0.0004505	11
	7	31	59859.37	1.933077	0.3584724	1	1.966033	10.50567	-3.611555E-005	0.0005107	11
	8	34	47578.12	1.934322	0.2378314	1	1.948888	7.009528	1.128693E-005	0.0005651	11
	9	36	37828.12	1.937768	0.1314093	1	1.942218	3.879563	1.921606E-005	0.0006422	11
	10	39	30046.88	1.942093	0.0319912	1	1.942357	0.9437208	1.803623E-005	0.0006601	11
	11	41	23859.38	1.94787	-0.0643914	1	1.948934	-1.893355	-4.161114E-005	0.0006285	11
	12	44	18984.38	1.955903	-0.1614394	1	1.962555	-4.718472	-5.918923E-006	0.0006568	11
	13	46	15046.87	1.965792	-0.2662949	1	1.983746	-7.714581	-4.2955E-005	0.000641	11
	14	48	11953.13	1.979368	-0.3815031	1	2.015798	-10.9094	7.478343E-006	0.0006842	11
	15	50	9515.62	1.995939	-0.5112416	1	2.060374	-14.36691	-2.371444E-005	0.0006803	11
	16	53	7546.875	2.016853	-0.6653917	1	2.12378	-18.25854	-8.887733E-006	0.0006858	11
	17	55	5928.309	2.044156	-0.8576979	1	2.216804	-22.76221	-2.89801E-005	0.0006719	11
	18	57	4733.456	2.077244	-1.073627	1	2.338294	-27.33225	-1.066899E-005	0.0006707	11
	19	60	3796.875	2.118917	-1.328597	1	2.500996	-32.08841	-2.356643E-005	0.0006765	11
	20	62	2987.132	2.176203	-1.666052	1	2.740728	-37.43686	9.959168E-006	0.0006797	11
	21	64	2390.625	2.244295	-2.049042	1	3.038985	-42.3961	-3.294051E-005	0.0006473	11
	22	67	1884.191	2.340454	-2.548208	1	3.459926	-47.43343	3.068335E-005	0.0007027	11
	23	69	1516.544	2.451885	-3.104075	1	3.955632	-51.69506	-3.382628E-005	0.0006619	11
	24	71	1193.986	2.614919	-3.848699	1	4.652987	-55.80666	2.426867E-005	0.0006359	10
	25	74	946.5144	2.818662	-4.730386	1	5.506488	-59.21085	-4.316948E-006	0.0006479	10
	26	76	751.7689	3.077987	-5.792308	1	6.559332	-62.01417	1.837731E-006	0.0006283	10
	27	78	597.4265	3.407484	-7.071999	1	7.850102	-64.27395	-1.968918E-005	0.000666	10
	28	81	477.4305	3.818455	-8.570709	1	9.382838	-65.98589	2.085633E-006	0.000659	10
	29	83	376.6741	4.36287	-10.47439	1	11.3467	-67.38694	1.819135E-006	0.0006571	10
	30	85	298.2954	5.030803	-12.72802	1	13.68618	-68.43339	1.931095E-006	0.0006584	10
	31	88	237.7717	5.823823	-15.34477	1	16.41276	-69.21667	1.373338E-006	0.0006565	10
	32	90	189.0121	6.788445	-18.50545	1	19.71128	-69.8552	2.101067E-006	0.0006538	10
	33	93	150.2404	7.928006	-22.28203	1	23.65042	-70.41431	-2.611179E-006	0.0007032	10
	34	95	119.1737	9.270505	-26.86466	1	28.41922	-70.96137	2.163569E-006	0.0006558	10
	35	97	95.0169	10.77247	-32.2529	1	34.00435	-71.53069	1.611033E-006	0.0006579	10
	36	100	75.60484	12.49658	-38.83551	1	40.79658	-72.16275	1.751895E-006	0.0006514	10
	37	102	54.50582	15.36266	-50.78506	1	53.05783	-73.16926	4.217682E-006	4.986866E-005	9
	38	105	45.95588	17.10737	-58.5927	1	61.03906	-73.72372	4.842032E-006	5.465007E-005	9
	39	107	37.20238	19.56271	-70.06538	1	72.74516	-74.39993	4.443156E-006	6.045468E-005	9
	40	110	30.04808	22.52464	-84.20698	1	87.16751	-75.02448	4.352928E-006	5.63728E-005	9
	41	112	23.91582	26.2575	-102.5456	1	105.8539	-75.63761	4.32918E-006	6.057214E-005	9
	42	114	18.60119	31.54961	-127.9332	1	131.766	-76.14671	4.938427E-006	5.736902E-005	9
	43	117	15.02404	37.33771	-154.4941	1	158.9419	-76.41344	5.089717E-006	6.611919E-005	9
	44	119	12.01923	45.05774	-188.2881	1	193.6043	-76.54208	4.476226E-006	0.0001163	9
	45	121	9.450605	56.05517	-232.9056	1	239.5563	-76.46756	4.694797E-006	5.307212E-005	9
	46	124	7.512019	70.27601	-285.4732	1	293.996	-76.17027	5.108217E-006	5.3339E-005	9
	47	127	5.978954	89.2343	-348.4275	1	359.6727	-75.63497	5.054724E-006	5.990533E-005	9
	48	130	4.734848	115.2445	-424.5513	1	439.9149	-74.81301	4.193427E-006	0.000605	8
	49	133	3.75601	151.1454	-517.1389	1	538.7742	-73.70782	4.46335E-006	0.0006445	8
	50	136	3.004808	197.6968	-622.2228	1	652.8746	-72.37356	4.297397E-006	0.000654	8
	51	140	2.372217	264.5179	-751.2348	1	796.4443	-70.60228	4.291017E-006	0.0006232	8
	52	144	1.878005	354.3379	-900.2008	1	967.428	-68.51437	4.427061E-006	0.0006093	8
	53	149	1.512097	460.731	-1054.719	1	1150.958	-66.40294	4.332025E-006	0.0007235	8
	54	154	1.201923	606.0438	-1234.893	1	1375.59	-63.85975	4.28397E-006	0.0006173	8
	55	167	0.956633	787.8356	-1428.158	1	1631.049	-61.11692	4.001221E-006	-1.105018E-005	8
