EXPLAIN
TAG	EISPOT
TITLE	LABEL	Potentiostatic EIS	Test Identifier
DATE	LABEL	9/12/2020	Date
TIME	LABEL	22:51:38	Time
NOTES	NOTES	1	Notes...
	
PSTAT	PSTAT	REF3000-16137	Potentiostat
VDC	POTEN	0.00000E+000	T	DC Voltage (V)
FREQINIT	QUANT	3.00000E+005	Initial Freq. (Hz)
FREQFINAL	QUANT	1.00000E+000	Final Freq. (Hz)
PTSPERDEC	QUANT	1.00000E+001	Points/decade
VAC	QUANT	5.00000E+001	AC Voltage (mV rms)
AREA	QUANT	1.00000E+000	Sample Area (cm^2)
SPEED	SELECTOR	2	Optimize for:
ZGUESS	QUANT	1.00000E+003	Estimated Z (ohms)
EOC	QUANT	0	Open Circuit (V)
SEQUENCER	TOGGLE	TRUE	Run as Sequence
PSTATMODEL	IQUANT	5	Pstat Model
PSTATSECTION	LABEL	REF3000-16137	Pstat Section
PSTATSERIALNO	LABEL	16137	Pstat Serial Number
CTRLMODE	IQUANT	1	Control Mode
IESTAB	IQUANT	0	I/E Stability
CASPEED	IQUANT	1	Control Amp Speed
CONVENTION	IQUANT	1	Current Convention
ICHRANGE	IQUANT	2	Ich Range
ICHRANGEMODE	TOGGLE	F	Ich Auto Range
ICHOFFSETENABLE	TOGGLE	T	Ich Offset Enable
ICHOFFSET	QUANT	0	Ich Offset (V)
ICHFILTER	IQUANT	3	Ich Filter
VCHRANGE	IQUANT	2	Vch Range
VCHRANGEMODE	TOGGLE	F	Vch Auto Range
VCHOFFSETENABLE	TOGGLE	T	Vch Offset Enable
VCHOFFSET	QUANT	0	Vch Offset (V)
VCHFILTER	IQUANT	3	Vch Filter
ACHRANGE	IQUANT	2	Ach Range
ACHOFFSETENABLE	TOGGLE	F	Ach Offset Enable
ACHOFFSET	QUANT	0	Ach Offset (V)
ACHFILTER	IQUANT	3	Ach Filter
IERANGELOWERLIMIT	IQUANT	2	I/E Range Lower Limit
IERANGEMODE	TOGGLE	F	I/E AutoRange
IERANGE	IQUANT	11	I/E Range
POSFEEDENABLE	TOGGLE	F	Positive Feedback IR Comp
POSFEEDRESISTANCE	QUANT	0	Positive Feedback Resistance (ohm)
ACHSELECT	IQUANT	0	Ach Select
CABLEID	IQUANT	13	Cable ID
DCCALDATE	LABEL	7/31/2020	DC Calibration Date
ACCALDATE	LABEL	7/31/2020	AC Calibration Date
THERMOSELECT	IQUANT	1	Thermo Select
FRAMEWORKVERSION	QUANT	6.33	Framework Version
INSTRUMENTVERSION	LABEL	3.50	Instrument Version
COMPLIANCEVOLTAGE	IQUANT	0	Compliance Voltage
ZCURVE	TABLE
	Pt	Time	Freq	Zreal	Zimag	Zsig	Zmod	Zphz	Idc	Vdc	IERange
	#	s	Hz	ohm	ohm	V	ohm	°	A	V	#
	0	8	300046.9	10.41864	2.156344	1	10.63945	11.6934	4.390459E-005	0.0001876	10
	1	11	238359.4	10.44074	1.721585	1	10.58173	9.363311	-3.002189E-005	0.0001151	10
	2	15	189328.1	10.44974	1.360465	1	10.53793	7.417686	-2.028763E-005	0.0003466	10
	3	17	150421.9	10.45995	1.067055	1	10.51423	5.824791	1.404458E-005	0.0004121	10
	4	20	119484.4	10.49135	0.8170059	1	10.52311	4.45288	-5.127552E-005	0.000616	10
	5	22	94921.88	10.51422	0.6397913	1	10.53367	3.48216	-2.581494E-005	0.0005831	10
	6	25	75421.88	10.53777	0.458032	1	10.54772	2.488837	2.330024E-005	0.0005588	10
	7	27	59859.37	10.56861	0.3025924	1	10.57294	1.640001	2.332091E-005	0.0005827	10
	8	30	47578.12	10.60414	0.1709751	1	10.60552	0.9237248	1.25003E-005	0.0005768	10
	9	32	37828.12	10.63677	0.0515405	1	10.63689	0.2776247	2.150581E-005	0.0006074	10
	10	35	30046.88	10.67376	-0.0630254	1	10.67394	-0.3383106	2.460985E-005	0.0006409	10
	11	37	23859.38	10.70788	-0.1793378	1	10.70938	-0.959512	-2.302441E-006	0.0006363	10
	12	40	18984.38	10.74574	-0.3017221	1	10.74998	-1.608345	-1.011587E-005	0.0006469	10
	13	42	15046.87	10.7842	-0.4396211	1	10.79316	-2.334387	-2.493422E-005	0.0007	10
	14	44	11953.13	10.82456	-0.5953192	1	10.84091	-3.14793	1.428602E-005	0.000631	10
	15	47	9515.62	10.87211	-0.7766058	1	10.89982	-4.085754	-1.891599E-005	0.0006435	10
	16	49	7546.875	10.92226	-0.994596	1	10.96745	-5.203082	-3.056339E-006	0.0006286	10
	17	51	5928.309	10.97935	-1.27499	1	11.05313	-6.623872	-1.077292E-005	0.0006426	10
	18	54	4733.456	11.044	-1.592145	1	11.15817	-8.203458	-2.134546E-005	0.0006947	10
	19	56	3796.875	11.11532	-1.971077	1	11.28873	-10.05571	-2.943778E-005	0.0006545	10
	20	58	2987.132	11.20645	-2.477624	1	11.47707	-12.46693	1.880282E-005	0.0006126	10
	21	61	2390.625	11.30925	-3.058615	1	11.71556	-15.13373	2.477736E-005	0.0006445	10
	22	63	1884.191	11.4377	-3.820936	1	12.05904	-18.47268	-2.559979E-005	0.0007199	10
	23	65	1516.544	11.58192	-4.675082	1	12.48988	-21.98164	2.328138E-005	0.0006495	10
	24	68	1193.986	11.77396	-5.829663	1	13.13816	-26.34147	2.227642E-005	0.0006241	10
	25	70	946.5144	12.00707	-7.222408	1	14.01188	-31.02745	2.216897E-005	0.0006646	10
	26	72	751.7689	12.2849	-8.916713	1	15.17981	-35.97316	-2.174298E-005	0.0006919	10
	27	75	597.4265	12.63136	-11.00041	1	16.74993	-41.05198	-2.757694E-005	0.0006771	10
	28	77	477.4305	13.04918	-13.49812	1	18.77447	-45.96883	-2.578123E-006	0.00066	10
	29	79	376.6741	13.60087	-16.75242	1	21.5784	-50.92773	-2.136377E-006	0.0006613	10
	30	82	298.2954	14.28809	-20.71665	1	25.16603	-55.40631	-2.028752E-006	0.0006666	10
	31	84	237.7717	15.14072	-25.45795	1	29.62007	-59.2586	-1.959218E-006	0.0006617	10
	32	87	189.0121	16.23877	-31.34122	1	35.29829	-62.61006	-2.079935E-006	0.000663	10
	33	89	150.2404	17.62657	-38.50933	1	42.35168	-65.40539	1.297189E-006	6.507715E-005	9
	34	92	119.1737	19.4596	-47.4174	1	51.2551	-67.68728	1.307572E-006	6.218309E-005	9
	35	94	95.0169	21.77056	-58.04042	1	61.98909	-69.43928	1.35858E-006	6.007522E-005	9
	36	96	75.60484	24.76842	-71.06359	1	75.25629	-70.78457	1.253257E-006	5.608778E-005	9
	37	99	54.50582	30.57053	-94.6331	1	99.4484	-72.09733	1.206604E-006	6.078684E-005	9
	38	102	45.95588	34.5151	-109.7165	1	115.0174	-72.53724	1.261618E-006	6.349378E-005	9
	39	104	37.20238	40.44189	-131.5061	1	137.5842	-72.90585	1.288919E-006	6.743729E-005	9
	40	106	30.04808	47.83308	-157.6078	1	164.7065	-73.11725	1.295234E-006	5.578675E-005	9
	41	109	23.91582	57.49963	-190.8098	1	199.2852	-73.23006	1.253023E-006	6.399364E-005	9
	42	111	18.60119	70.55531	-234.8156	1	245.1865	-73.27599	1.519565E-006	6.006405E-005	9
	43	113	15.02404	83.92228	-279.5671	1	291.8917	-73.29095	1.408373E-006	6.429593E-005	9
	44	116	12.01923	100.1611	-335.1398	1	349.787	-73.3605	1.428476E-006	5.963458E-005	9
	45	118	9.450605	120.2121	-407.2606	1	424.6318	-73.55486	1.38008E-006	4.816011E-005	9
	46	121	7.512019	141.4708	-488.6802	1	508.7458	-73.8545	6.901228E-007	0.0006549	8
	47	123	5.978954	165.4429	-589.2642	1	612.0487	-74.31729	6.63019E-007	0.0006386	8
	48	126	4.734848	193.2398	-715.2714	1	740.9149	-74.88172	6.814431E-007	0.000668	8
	49	129	3.75601	224.2537	-869.6494	1	898.0978	-75.54033	5.962068E-007	0.0006223	8
	50	133	3.004808	258.3412	-1052.168	1	1083.42	-76.20494	6.416718E-007	0.0006392	8
	51	137	2.372217	302.5218	-1290.326	1	1325.315	-76.80511	6.667004E-007	0.0006783	8
	52	141	1.878005	351.9829	-1587.419	1	1625.974	-77.49791	5.994099E-007	0.0006336	8
	53	146	1.512097	403.8168	-1920.886	1	1962.873	-78.12791	6.609891E-007	0.0005762	8
	54	151	1.201923	477.4425	-2362.597	1	2410.356	-78.57532	6.144199E-007	0.0006265	8
	55	157	0.956633	562.4149	-2898.708	1	2952.764	-79.01974	6.212149E-007	-1.610068E-006	8
