EXPLAIN
TAG	EISPOT
TITLE	LABEL	Potentiostatic EIS	Test Identifier
DATE	LABEL	9/12/2020	Date
TIME	LABEL	22:32:07	Time
NOTES	NOTES	1	Notes...
	
PSTAT	PSTAT	REF3000-16137	Potentiostat
VDC	POTEN	0.00000E+000	T	DC Voltage (V)
FREQINIT	QUANT	3.00000E+005	Initial Freq. (Hz)
FREQFINAL	QUANT	1.00000E+000	Final Freq. (Hz)
PTSPERDEC	QUANT	1.00000E+001	Points/decade
VAC	QUANT	5.00000E+001	AC Voltage (mV rms)
AREA	QUANT	1.00000E+000	Sample Area (cm^2)
SPEED	SELECTOR	2	Optimize for:
ZGUESS	QUANT	1.00000E+003	Estimated Z (ohms)
EOC	QUANT	0	Open Circuit (V)
SEQUENCER	TOGGLE	TRUE	Run as Sequence
PSTATMODEL	IQUANT	5	Pstat Model
PSTATSECTION	LABEL	REF3000-16137	Pstat Section
PSTATSERIALNO	LABEL	16137	Pstat Serial Number
CTRLMODE	IQUANT	1	Control Mode
IESTAB	IQUANT	0	I/E Stability
CASPEED	IQUANT	1	Control Amp Speed
CONVENTION	IQUANT	1	Current Convention
ICHRANGE	IQUANT	2	Ich Range
ICHRANGEMODE	TOGGLE	F	Ich Auto Range
ICHOFFSETENABLE	TOGGLE	T	Ich Offset Enable
ICHOFFSET	QUANT	0	Ich Offset (V)
ICHFILTER	IQUANT	3	Ich Filter
VCHRANGE	IQUANT	2	Vch Range
VCHRANGEMODE	TOGGLE	F	Vch Auto Range
VCHOFFSETENABLE	TOGGLE	T	Vch Offset Enable
VCHOFFSET	QUANT	0	Vch Offset (V)
VCHFILTER	IQUANT	3	Vch Filter
ACHRANGE	IQUANT	2	Ach Range
ACHOFFSETENABLE	TOGGLE	F	Ach Offset Enable
ACHOFFSET	QUANT	0	Ach Offset (V)
ACHFILTER	IQUANT	3	Ach Filter
IERANGELOWERLIMIT	IQUANT	2	I/E Range Lower Limit
IERANGEMODE	TOGGLE	F	I/E AutoRange
IERANGE	IQUANT	11	I/E Range
POSFEEDENABLE	TOGGLE	F	Positive Feedback IR Comp
POSFEEDRESISTANCE	QUANT	0	Positive Feedback Resistance (ohm)
ACHSELECT	IQUANT	0	Ach Select
CABLEID	IQUANT	13	Cable ID
DCCALDATE	LABEL	7/31/2020	DC Calibration Date
ACCALDATE	LABEL	7/31/2020	AC Calibration Date
THERMOSELECT	IQUANT	1	Thermo Select
FRAMEWORKVERSION	QUANT	6.33	Framework Version
INSTRUMENTVERSION	LABEL	3.50	Instrument Version
COMPLIANCEVOLTAGE	IQUANT	0	Compliance Voltage
ZCURVE	TABLE
	Pt	Time	Freq	Zreal	Zimag	Zsig	Zmod	Zphz	Idc	Vdc	IERange
	#	s	Hz	ohm	ohm	V	ohm	°	A	V	#
	0	10	300046.9	4.185891	2.264592	1	4.759208	28.41366	-0.0000977	2.345181E-005	10
	1	13	238359.4	4.168756	1.794331	1	4.538518	23.28819	-8.683601E-005	-0.0002252	10
	2	16	189328.1	4.152041	1.417583	1	4.387367	18.85085	-5.368577E-005	3.114701E-005	10
	3	19	150421.9	4.137998	1.113554	1	4.285211	15.06174	5.867478E-005	0.0001846	10
	4	21	119484.4	4.138157	0.858598	1	4.226291	11.7216	-8.768051E-005	0.0004274	10
	5	24	94921.88	4.139138	0.6677012	1	4.192647	9.163673	-1.682995E-005	0.0004278	10
	6	26	75421.88	4.141458	0.4914636	1	4.170517	6.767596	1.356796E-005	0.0004572	10
	7	29	59859.37	4.146913	0.3428591	1	4.161062	4.726359	-2.484452E-005	0.0005287	10
	8	31	47578.12	4.154776	0.2137797	1	4.160273	2.945497	-1.277251E-005	0.000605	10
	9	34	37828.12	4.163131	0.0962502	1	4.164244	1.324423	-1.019931E-007	0.0005731	10
	10	36	30046.88	4.173224	-0.0148096	1	4.173251	-0.2033256	-2.522104E-005	0.0006108	10
	11	39	23859.38	4.185403	-0.124577	1	4.187257	-1.704885	2.775475E-006	0.000603	10
	12	41	18984.38	4.199934	-0.2368354	1	4.206606	-3.227507	-7.925998E-006	0.0006339	10
	13	43	15046.87	4.215984	-0.3613831	1	4.231444	-4.899269	-1.876575E-005	0.0006647	10
	14	46	11953.13	4.234457	-0.5006862	1	4.263955	-6.743398	-1.335836E-005	0.0006576	10
	15	48	9515.62	4.255536	-0.66044	1	4.30648	-8.821671	-1.205065E-005	0.0006408	10
	16	50	7546.875	4.283387	-0.8533311	1	4.36756	-11.26689	9.644446E-006	0.0006058	10
	17	53	5928.309	4.318259	-1.095123	1	4.454958	-14.23036	-2.379651E-005	0.0006714	10
	18	55	4733.456	4.358543	-1.369601	1	4.568666	-17.44447	-1.399972E-005	0.0006706	10
	19	57	3796.875	4.408178	-1.693808	1	4.722395	-21.01888	-2.03094E-005	0.0007246	10
	20	60	2987.132	4.471985	-2.12718	1	4.952126	-25.43893	5.560419E-006	0.0006476	10
	21	62	2390.625	4.547609	-2.621238	1	5.248965	-29.95911	2.455953E-006	0.0006129	10
	22	64	1884.191	4.64762	-3.267337	1	5.681185	-35.10772	2.187236E-005	0.000632	10
	23	67	1516.544	4.761741	-3.991789	1	6.213579	-39.97326	1.401515E-005	0.0006469	10
	24	69	1193.986	4.919978	-4.973065	1	6.995539	-45.30745	-4.740301E-006	0.000661	10
	25	71	946.5144	5.119573	-6.150089	1	8.002101	-50.22469	-2.147653E-005	0.0006878	10
	26	74	751.7689	5.366769	-7.588161	1	9.294213	-54.72992	-2.364636E-005	0.0007133	10
	27	76	597.4265	5.685195	-9.352814	1	10.94516	-58.70628	-1.191577E-005	0.0006421	10
	28	78	477.4305	6.088461	-11.45706	1	12.97434	-62.01312	-1.763033E-006	0.0006564	10
	29	81	376.6741	6.640495	-14.1822	1	15.65985	-64.90972	-1.782163E-006	0.000655	10
	30	83	298.2954	7.349815	-17.47237	1	18.9553	-67.18577	-1.882886E-006	0.000662	10
	31	85	237.7717	8.242525	-21.36339	1	22.89833	-68.90215	-1.988625E-006	0.0006636	10
	32	88	189.0121	9.404558	-26.13299	1	27.77371	-70.20757	-2.479674E-006	0.0006622	10
	33	90	150.2404	10.89551	-31.90333	1	33.71253	-71.14413	-2.021925E-006	0.0006529	10
	34	93	119.1737	12.80642	-38.91819	1	40.97109	-71.7857	-2.262649E-006	0.0006605	10
	35	95	95.0169	15.12953	-47.0883	1	49.45918	-72.18772	1.31858E-006	5.352416E-005	9
	36	97	75.60484	18.04859	-56.98999	1	59.77969	-72.42713	1.218336E-006	5.488443E-005	9
	37	100	54.50582	23.34045	-74.57728	1	78.1444	-72.62144	1.135317E-006	5.340431E-005	9
	38	103	45.95588	26.67817	-85.69617	1	89.75277	-72.70805	1.328955E-006	6.236116E-005	9
	39	105	37.20238	31.35021	-101.6311	1	106.3566	-72.85655	1.278761E-006	5.872612E-005	9
	40	107	30.04808	36.74463	-120.8196	1	126.2836	-73.08401	1.361764E-006	5.835211E-005	9
	41	110	23.91582	43.16068	-145.2688	1	151.545	-73.45284	7.049446E-007	0.0001046	9
	42	112	18.60119	51.19633	-178.4521	1	185.6508	-73.99228	1.446915E-006	5.447846E-005	9
	43	114	15.02404	58.86265	-213.0581	1	221.0397	-74.55585	1.22753E-006	5.419183E-005	9
	44	117	12.01923	67.87573	-257.0202	1	265.8317	-75.20665	1.383768E-006	5.742073E-005	9
	45	119	9.450605	79.05261	-315.8284	1	325.5716	-75.94745	1.42083E-006	5.176357E-005	9
	46	121	7.512019	91.66383	-385.3139	1	396.067	-76.61842	1.441742E-006	7.208862E-005	9
	47	124	5.978954	106.1859	-468.8676	1	480.7414	-77.23931	6.913879E-007	0.0006325	8
	48	127	4.734848	124.6828	-576.5082	1	589.8369	-77.79646	7.927474E-007	0.0006627	8
	49	130	3.75601	147.6143	-708.5074	1	723.7215	-78.23105	6.687123E-007	0.0006199	8
	50	134	3.004808	174.9433	-864.3004	1	881.8278	-78.55734	7.487168E-007	0.0006355	8
	51	138	2.372217	213.4162	-1067.715	1	1088.835	-78.69662	7.417638E-007	0.0006796	8
	52	142	1.878005	259.1456	-1319.854	1	1345.054	-78.89162	6.707307E-007	0.0006216	8
	53	147	1.512097	311.5236	-1602.348	1	1632.35	-78.99798	7.441309E-007	0.0005709	8
	54	152	1.201923	390.4803	-1974.79	1	2013.025	-78.81503	6.844077E-007	0.0006285	8
	55	158	0.956633	489.5962	-2423.861	1	2472.814	-78.58047	6.902177E-007	-4.337432E-006	8
