EXPLAIN
TAG	EISPOT
TITLE	LABEL	Potentiostatic EIS	Test Identifier
DATE	LABEL	9/12/2020	Date
TIME	LABEL	23:28:24	Time
NOTES	NOTES	1	Notes...
	
PSTAT	PSTAT	REF3000-16137	Potentiostat
VDC	POTEN	0.00000E+000	T	DC Voltage (V)
FREQINIT	QUANT	3.00000E+005	Initial Freq. (Hz)
FREQFINAL	QUANT	1.00000E+000	Final Freq. (Hz)
PTSPERDEC	QUANT	1.00000E+001	Points/decade
VAC	QUANT	5.00000E+001	AC Voltage (mV rms)
AREA	QUANT	1.00000E+000	Sample Area (cm^2)
SPEED	SELECTOR	2	Optimize for:
ZGUESS	QUANT	1.00000E+003	Estimated Z (ohms)
EOC	QUANT	0	Open Circuit (V)
SEQUENCER	TOGGLE	TRUE	Run as Sequence
PSTATMODEL	IQUANT	5	Pstat Model
PSTATSECTION	LABEL	REF3000-16137	Pstat Section
PSTATSERIALNO	LABEL	16137	Pstat Serial Number
CTRLMODE	IQUANT	1	Control Mode
IESTAB	IQUANT	0	I/E Stability
CASPEED	IQUANT	1	Control Amp Speed
CONVENTION	IQUANT	1	Current Convention
ICHRANGE	IQUANT	2	Ich Range
ICHRANGEMODE	TOGGLE	F	Ich Auto Range
ICHOFFSETENABLE	TOGGLE	T	Ich Offset Enable
ICHOFFSET	QUANT	0	Ich Offset (V)
ICHFILTER	IQUANT	3	Ich Filter
VCHRANGE	IQUANT	2	Vch Range
VCHRANGEMODE	TOGGLE	F	Vch Auto Range
VCHOFFSETENABLE	TOGGLE	T	Vch Offset Enable
VCHOFFSET	QUANT	0	Vch Offset (V)
VCHFILTER	IQUANT	3	Vch Filter
ACHRANGE	IQUANT	2	Ach Range
ACHOFFSETENABLE	TOGGLE	F	Ach Offset Enable
ACHOFFSET	QUANT	0	Ach Offset (V)
ACHFILTER	IQUANT	3	Ach Filter
IERANGELOWERLIMIT	IQUANT	2	I/E Range Lower Limit
IERANGEMODE	TOGGLE	F	I/E AutoRange
IERANGE	IQUANT	11	I/E Range
POSFEEDENABLE	TOGGLE	F	Positive Feedback IR Comp
POSFEEDRESISTANCE	QUANT	0	Positive Feedback Resistance (ohm)
ACHSELECT	IQUANT	0	Ach Select
CABLEID	IQUANT	13	Cable ID
DCCALDATE	LABEL	7/31/2020	DC Calibration Date
ACCALDATE	LABEL	7/31/2020	AC Calibration Date
THERMOSELECT	IQUANT	1	Thermo Select
FRAMEWORKVERSION	QUANT	6.33	Framework Version
INSTRUMENTVERSION	LABEL	3.50	Instrument Version
COMPLIANCEVOLTAGE	IQUANT	0	Compliance Voltage
ZCURVE	TABLE
	Pt	Time	Freq	Zreal	Zimag	Zsig	Zmod	Zphz	Idc	Vdc	IERange
	#	s	Hz	ohm	ohm	V	ohm	°	A	V	#
	0	14	300046.9	755.6905	-179.1307	1	776.6312	-13.3354	-0.0000964	0.0020894	9
	1	37	238359.4	829.2991	-185.7164	1	849.8397	-12.62277	-8.741827E-005	0.0037855	9
	2	63	189328.1	883.1637	-161.3308	1	897.7782	-10.35229	1.923055E-005	-0.0008834	9
	3	73	150421.9	910.7379	-143.6958	1	922.0043	-8.966187	1.707871E-005	-0.001953	9
	4	79	119484.4	946.8524	-87.99121	1	950.932	-5.309262	-7.32647E-006	0.0113598	8
	5	86	94921.88	962.676	-71.98178	1	965.363	-4.276198	-2.586521E-006	-0.0030675	8
	6	88	75421.88	977.113	-62.60635	1	979.116	-3.66609	1.992835E-005	-0.0038804	8
	7	91	59859.37	990.345	-51.84438	1	991.701	-2.996688	3.134585E-007	0.0054451	8
	8	94	47578.12	1002.127	-43.29484	1	1003.062	-2.473808	-7.557398E-006	0.0074644	8
	9	96	37828.12	1011.405	-36.08367	1	1012.049	-2.043261	5.358226E-007	0.005309	8
	10	99	30046.88	1020.362	-28.69904	1	1020.766	-1.611095	-1.708675E-005	0.0084372	8
	11	102	23859.38	1028.637	-26.33312	1	1028.974	-1.466452	8.310812E-006	0.0023392	8
	12	104	18984.38	1038.89	-21.19946	1	1039.106	-1.169009	1.912896E-005	-0.0068585	8
	13	107	15046.87	1048.699	-16.02957	1	1048.821	-0.8757095	-1.656483E-005	0.0030098	8
	14	110	11953.13	1059.849	-13.04392	1	1059.93	-0.7051226	1.462157E-005	-0.0003577	8
	15	112	9515.62	1068.652	-12.41628	1	1068.724	-0.6656687	-1.994675E-005	0.0063513	8
	16	115	7546.875	1081.198	-11.23048	1	1081.256	-0.5951136	-2.033498E-005	0.0063546	8
	17	118	5928.309	1093.491	-8.916886	1	1093.527	-0.4672088	2.059416E-005	-0.0044163	8
	18	121	4733.456	1104.332	-9.333586	1	1104.372	-0.4842404	-1.973907E-005	0.0077271	8
	19	124	3796.875	1112.52	-7.564635	1	1112.545	-0.3895796	-1.440522E-005	0.0012668	8
	20	127	2987.132	1126.509	-9.157455	1	1126.546	-0.4657505	4.357109E-006	-0.005298	8
	21	131	2390.625	1138.509	-8.378289	1	1138.54	-0.4216321	-1.791617E-005	0.0087113	8
	22	134	1884.191	1156.017	-7.023808	1	1156.038	-0.3481174	1.094854E-005	-0.0067086	8
	23	137	1516.544	1164.941	-9.044687	1	1164.976	-0.4448396	-2.740446E-006	-0.0032163	8
	24	141	1193.986	1182.492	-9.6144	1	1182.531	-0.4658404	-1.717528E-005	0.0031107	8
	25	145	946.5144	1193.584	-9.73898	1	1193.624	-0.4674914	8.378061E-006	0.002664	8
	26	147	751.7689	1207.772	-19.28577	1	1207.926	-0.9148245	-9.371725E-006	-0.0007146	8
	27	150	597.4265	1214.126	-18.73382	1	1214.271	-0.8839971	-7.542599E-006	0.0076922	8
	28	152	477.4305	1226.635	-23.69244	1	1226.864	-1.106529	-2.166598E-007	0.0006377	8
	29	155	376.6741	1237.136	-28.96679	1	1237.475	-1.341301	-2.425344E-007	0.0006369	8
	30	157	298.2954	1247.861	-35.53618	1	1248.367	-1.63121	-2.674631E-007	0.0006563	8
	31	159	237.7717	1259.04	-43.50911	1	1259.791	-1.979204	-2.184926E-007	0.0006125	8
	32	162	189.0121	1270.624	-53.55273	1	1271.752	-2.413404	-2.576927E-007	0.0006408	8
	33	164	150.2404	1282.689	-66.06481	1	1284.39	-2.948409	-2.640367E-007	0.0006432	8
	34	167	119.1737	1295.193	-81.77008	1	1297.772	-3.612488	-2.559742E-007	0.0006222	8
	35	169	95.0169	1308.163	-100.7198	1	1312.035	-4.402706	-2.132754E-007	0.0006267	8
	36	172	75.60484	1322.395	-124.404	1	1328.234	-5.374272	-2.032304E-007	0.0006155	8
	37	174	54.50582	1339.317	-168.4439	1	1349.868	-7.168365	-2.646649E-007	0.0006317	8
	38	177	45.95588	1354.132	-197.2377	1	1368.421	-8.287208	-2.520624E-007	0.0006202	8
	39	179	37.20238	1370.014	-240.0183	1	1390.88	-9.93703	-2.043379E-007	0.0006276	8
	40	181	30.04808	1388.311	-292.4028	1	1418.769	-11.89367	-2.547668E-007	0.00064	8
	41	184	23.91582	1408.907	-361.2195	1	1454.476	-14.37991	-2.446803E-007	0.0006173	8
	42	186	18.60119	1433.741	-456.9917	1	1504.811	-17.6792	-6.978823E-008	0.0006561	8
	43	188	15.02404	1458.656	-553.3056	1	1560.072	-20.77302	-1.718763E-007	0.0006253	8
	44	191	12.01923	1488.993	-678.7098	1	1636.382	-24.50436	-1.476986E-007	0.0006399	8
	45	193	9.450605	1525.063	-846.9692	1	1744.47	-29.04633	-2.937059E-007	0.0006113	8
	46	196	7.512019	1569.148	-1044.768	1	1885.144	-33.65641	-3.059023E-007	0.0006227	8
	47	198	5.978954	1623.85	-1285.02	1	2070.789	-38.35603	-2.318377E-007	0.0006193	8
	48	201	4.734848	1690.217	-1589.684	1	2320.329	-43.24436	-2.982255E-007	0.0006264	8
	49	205	3.75601	1770.215	-1960.377	1	2641.352	-47.91805	-1.999819E-007	0.0006467	8
	50	208	3.004808	1865.323	-2397.91	1	3037.994	-52.12082	-2.239088E-007	0.0006407	8
	51	212	2.372217	1988.157	-2967.46	1	3571.917	-56.17847	-2.518451E-007	0.0006456	8
	52	216	1.878005	2153.278	-3675.509	1	4259.809	-59.63631	-3.65309E-008	0.000587	7
	53	221	1.512097	2332.786	-4471.119	1	5043.094	-62.44691	-5.042828E-008	0.0006868	7
	54	226	1.201923	2578.113	-5503.17	1	6077.133	-64.89795	-3.912213E-008	0.0005962	7
	55	232	0.956633	2877.177	-6754.617	1	7341.866	-66.92808	-7.578913E-008	-3.536398E-005	7
