EXPLAIN
TAG	EISPOT
TITLE	LABEL	Potentiostatic EIS	Test Identifier
DATE	LABEL	9/12/2020	Date
TIME	LABEL	23:05:33	Time
NOTES	NOTES	1	Notes...
	
PSTAT	PSTAT	REF3000-16137	Potentiostat
VDC	POTEN	0.00000E+000	T	DC Voltage (V)
FREQINIT	QUANT	3.00000E+005	Initial Freq. (Hz)
FREQFINAL	QUANT	1.00000E+000	Final Freq. (Hz)
PTSPERDEC	QUANT	1.00000E+001	Points/decade
VAC	QUANT	5.00000E+001	AC Voltage (mV rms)
AREA	QUANT	1.00000E+000	Sample Area (cm^2)
SPEED	SELECTOR	2	Optimize for:
ZGUESS	QUANT	1.00000E+003	Estimated Z (ohms)
EOC	QUANT	0	Open Circuit (V)
SEQUENCER	TOGGLE	TRUE	Run as Sequence
PSTATMODEL	IQUANT	5	Pstat Model
PSTATSECTION	LABEL	REF3000-16137	Pstat Section
PSTATSERIALNO	LABEL	16137	Pstat Serial Number
CTRLMODE	IQUANT	1	Control Mode
IESTAB	IQUANT	0	I/E Stability
CASPEED	IQUANT	1	Control Amp Speed
CONVENTION	IQUANT	1	Current Convention
ICHRANGE	IQUANT	2	Ich Range
ICHRANGEMODE	TOGGLE	F	Ich Auto Range
ICHOFFSETENABLE	TOGGLE	T	Ich Offset Enable
ICHOFFSET	QUANT	0	Ich Offset (V)
ICHFILTER	IQUANT	3	Ich Filter
VCHRANGE	IQUANT	2	Vch Range
VCHRANGEMODE	TOGGLE	F	Vch Auto Range
VCHOFFSETENABLE	TOGGLE	T	Vch Offset Enable
VCHOFFSET	QUANT	0	Vch Offset (V)
VCHFILTER	IQUANT	3	Vch Filter
ACHRANGE	IQUANT	2	Ach Range
ACHOFFSETENABLE	TOGGLE	F	Ach Offset Enable
ACHOFFSET	QUANT	0	Ach Offset (V)
ACHFILTER	IQUANT	3	Ach Filter
IERANGELOWERLIMIT	IQUANT	2	I/E Range Lower Limit
IERANGEMODE	TOGGLE	F	I/E AutoRange
IERANGE	IQUANT	11	I/E Range
POSFEEDENABLE	TOGGLE	F	Positive Feedback IR Comp
POSFEEDRESISTANCE	QUANT	0	Positive Feedback Resistance (ohm)
ACHSELECT	IQUANT	0	Ach Select
CABLEID	IQUANT	13	Cable ID
DCCALDATE	LABEL	7/31/2020	DC Calibration Date
ACCALDATE	LABEL	7/31/2020	AC Calibration Date
THERMOSELECT	IQUANT	1	Thermo Select
FRAMEWORKVERSION	QUANT	6.33	Framework Version
INSTRUMENTVERSION	LABEL	3.50	Instrument Version
COMPLIANCEVOLTAGE	IQUANT	0	Compliance Voltage
ZCURVE	TABLE
	Pt	Time	Freq	Zreal	Zimag	Zsig	Zmod	Zphz	Idc	Vdc	IERange
	#	s	Hz	ohm	ohm	V	ohm	°	A	V	#
	0	6	300046.9	31.7551	1.245488	1	31.77951	2.246085	-2.360321E-005	-0.0002271	11
	1	11	238359.4	31.92183	1.326913	1	31.94939	2.380276	1.658863E-005	0.0003347	10
	2	14	189328.1	32.06703	1.030507	1	32.08359	1.840625	-2.159619E-005	0.0005437	10
	3	16	150421.9	32.20755	0.7918583	1	32.21728	1.408396	6.602272E-005	0.0004937	10
	4	19	119484.4	32.33748	0.5973231	1	32.343	1.058221	7.382416E-005	0.0002654	10
	5	21	94921.88	32.48017	0.4431953	1	32.48319	0.7817585	-2.691314E-005	0.0006264	10
	6	24	75421.88	32.62914	0.3043123	1	32.63056	0.5343476	-1.153948E-005	0.0005999	10
	7	26	59859.37	32.76995	0.1717458	1	32.7704	0.3002818	2.153331E-005	0.0006075	10
	8	29	47578.12	32.91944	0.056615	1	32.91949	0.0985375	4.468754E-006	0.0005754	10
	9	32	37828.12	33.06861	-0.0526098	1	33.06866	-0.0911534	-2.845326E-005	0.0006455	10
	10	34	30046.88	33.21687	-0.167355	1	33.2173	-0.2886681	-1.744525E-005	0.0006281	10
	11	37	23859.38	33.35542	-0.2811017	1	33.35661	-0.4828468	-2.822023E-005	0.0006397	10
	12	39	18984.38	33.49884	-0.4103467	1	33.50135	-0.7018141	2.764968E-005	0.0006205	10
	13	41	15046.87	33.6445	-0.5612608	1	33.64919	-0.955725	-6.374506E-006	0.0006405	10
	14	44	11953.13	33.79578	-0.7164431	1	33.80337	-1.214442	-2.035715E-006	0.0005989	10
	15	46	9515.62	33.94379	-0.9219751	1	33.95631	-1.555875	6.886522E-006	0.0006991	10
	16	48	7546.875	34.11233	-1.152533	1	34.13179	-1.935083	-6.681769E-007	0.0006002	10
	17	50	5928.309	34.27389	-1.481336	1	34.30589	-2.474814	-1.083267E-005	0.0006233	10
	18	53	4733.456	34.44217	-1.845855	1	34.4916	-3.06771	-2.580902E-005	0.0006909	10
	19	55	3796.875	34.62278	-2.263203	1	34.69667	-3.739959	2.595256E-005	0.0006647	10
	20	57	2987.132	34.8243	-2.842407	1	34.94011	-4.666216	-2.701541E-005	0.0006957	10
	21	60	2390.625	35.03925	-3.505901	1	35.21421	-5.713792	1.445653E-005	0.0005722	10
	22	62	1884.191	35.22265	-4.399212	1	35.49631	-7.11922	-1.107133E-005	0.000186	9
	23	64	1516.544	35.49436	-5.370654	1	35.89838	-8.604161	1.263627E-005	-0.0004397	9
	24	67	1193.986	35.79984	-6.71105	1	36.42343	-10.61746	1.44384E-005	-0.0001363	9
	25	69	946.5144	36.15152	-8.322039	1	37.09702	-12.96359	-1.347965E-005	0.0004787	9
	26	72	751.7689	36.54918	-10.32142	1	37.97861	-15.76958	1.741124E-005	-0.0004085	9
	27	74	597.4265	37.01595	-12.77281	1	39.1577	-19.03763	-3.068923E-006	0.0004261	9
	28	76	477.4305	37.56981	-15.70957	1	40.722	-22.69192	1.290505E-006	5.318498E-005	9
	29	79	376.6741	38.26707	-19.53517	1	42.965	-27.04411	1.311944E-006	5.866238E-005	9
	30	81	298.2954	39.10137	-24.19195	1	45.98008	-31.745	1.267937E-006	6.203014E-005	9
	31	83	237.7717	40.09775	-29.76241	1	49.93627	-36.58452	1.251116E-006	5.209001E-005	9
	32	86	189.0121	41.327	-36.68785	1	55.26228	-41.59692	1.202209E-006	5.925358E-005	9
	33	88	150.2404	42.83478	-45.20955	1	62.27938	-46.54503	1.318738E-006	5.569613E-005	9
	34	91	119.1737	44.71753	-55.80096	1	71.50808	-51.29216	9.406097E-007	0.0001138	9
	35	93	95.0169	47.02137	-68.54181	1	83.12033	-55.54892	1.371194E-006	5.902631E-005	9
	36	95	75.60484	49.94802	-84.31245	1	97.9969	-59.35683	1.315443E-006	5.710327E-005	9
	37	98	54.50582	55.48389	-113.2887	1	126.1459	-63.90639	1.296339E-006	5.274969E-005	9
	38	101	45.95588	59.307	-132.1249	1	144.8251	-65.82608	1.271929E-006	5.952511E-005	9
	39	103	37.20238	65.07749	-159.6659	1	172.4189	-67.82491	9.735153E-007	0.0001096	9
	40	105	30.04808	72.43022	-193.1815	1	206.3135	-69.4473	1.217701E-006	5.394455E-005	9
	41	108	23.91582	82.40479	-236.4238	1	250.3732	-70.78415	1.45832E-006	4.624395E-005	9
	42	110	18.60119	96.6049	-294.8288	1	310.2524	-71.85786	1.574481E-006	5.065011E-005	9
	43	112	15.02404	112.0903	-354.9073	1	372.1873	-72.47233	1.383284E-006	6.770722E-005	9
	44	115	12.01923	131.8342	-428.2895	1	448.1207	-72.89081	3.181734E-007	0.0006355	8
	45	117	9.450605	159.0812	-525.4193	1	548.9738	-73.15526	5.188639E-007	0.0006473	8
	46	120	7.512019	191.6663	-637.0873	1	665.2941	-73.2562	5.699438E-007	0.0006445	8
	47	122	5.978954	230.9538	-770.0818	1	803.9687	-73.30558	5.264681E-007	0.0006324	8
	48	125	4.734848	280.1273	-933.014	1	974.159	-73.28819	4.871845E-007	0.0006547	8
	49	129	3.75601	336.9781	-1127.485	1	1176.766	-73.35987	4.935831E-007	0.0006355	8
	50	132	3.004808	400.7038	-1350.825	1	1409.003	-73.47772	4.43452E-007	0.0006691	8
	51	136	2.372217	476.7475	-1635.193	1	1703.275	-73.74574	4.577028E-007	0.0006458	8
	52	140	1.878005	565.7266	-1983.197	1	2062.309	-74.07867	4.935059E-007	0.0006137	8
	53	145	1.512097	654.3911	-2374.286	1	2462.815	-74.59094	4.708094E-007	0.0007245	8
	54	150	1.201923	764.5216	-2882.402	1	2982.069	-75.14505	4.886851E-007	0.0006334	8
	55	156	0.956633	886.0321	-3500.103	1	3610.509	-75.79431	4.446385E-007	-6.83816E-006	8
