EXPLAIN
TAG	EISPOT
TITLE	LABEL	Potentiostatic EIS	Test Identifier
DATE	LABEL	9/12/2020	Date
TIME	LABEL	22:20:53	Time
NOTES	NOTES	1	Notes...
	
PSTAT	PSTAT	REF3000-16137	Potentiostat
VDC	POTEN	0.00000E+000	T	DC Voltage (V)
FREQINIT	QUANT	3.00000E+005	Initial Freq. (Hz)
FREQFINAL	QUANT	1.00000E+000	Final Freq. (Hz)
PTSPERDEC	QUANT	1.00000E+001	Points/decade
VAC	QUANT	5.00000E+001	AC Voltage (mV rms)
AREA	QUANT	1.00000E+000	Sample Area (cm^2)
SPEED	SELECTOR	2	Optimize for:
ZGUESS	QUANT	1.00000E+003	Estimated Z (ohms)
EOC	QUANT	0	Open Circuit (V)
SEQUENCER	TOGGLE	TRUE	Run as Sequence
PSTATMODEL	IQUANT	5	Pstat Model
PSTATSECTION	LABEL	REF3000-16137	Pstat Section
PSTATSERIALNO	LABEL	16137	Pstat Serial Number
CTRLMODE	IQUANT	1	Control Mode
IESTAB	IQUANT	0	I/E Stability
CASPEED	IQUANT	1	Control Amp Speed
CONVENTION	IQUANT	1	Current Convention
ICHRANGE	IQUANT	2	Ich Range
ICHRANGEMODE	TOGGLE	F	Ich Auto Range
ICHOFFSETENABLE	TOGGLE	T	Ich Offset Enable
ICHOFFSET	QUANT	0	Ich Offset (V)
ICHFILTER	IQUANT	3	Ich Filter
VCHRANGE	IQUANT	2	Vch Range
VCHRANGEMODE	TOGGLE	F	Vch Auto Range
VCHOFFSETENABLE	TOGGLE	T	Vch Offset Enable
VCHOFFSET	QUANT	0	Vch Offset (V)
VCHFILTER	IQUANT	3	Vch Filter
ACHRANGE	IQUANT	2	Ach Range
ACHOFFSETENABLE	TOGGLE	F	Ach Offset Enable
ACHOFFSET	QUANT	0	Ach Offset (V)
ACHFILTER	IQUANT	3	Ach Filter
IERANGELOWERLIMIT	IQUANT	2	I/E Range Lower Limit
IERANGEMODE	TOGGLE	F	I/E AutoRange
IERANGE	IQUANT	11	I/E Range
POSFEEDENABLE	TOGGLE	F	Positive Feedback IR Comp
POSFEEDRESISTANCE	QUANT	0	Positive Feedback Resistance (ohm)
ACHSELECT	IQUANT	0	Ach Select
CABLEID	IQUANT	13	Cable ID
DCCALDATE	LABEL	7/31/2020	DC Calibration Date
ACCALDATE	LABEL	7/31/2020	AC Calibration Date
THERMOSELECT	IQUANT	1	Thermo Select
FRAMEWORKVERSION	QUANT	6.33	Framework Version
INSTRUMENTVERSION	LABEL	3.50	Instrument Version
COMPLIANCEVOLTAGE	IQUANT	0	Compliance Voltage
ZCURVE	TABLE
	Pt	Time	Freq	Zreal	Zimag	Zsig	Zmod	Zphz	Idc	Vdc	IERange
	#	s	Hz	ohm	ohm	V	ohm	°	A	V	#
	0	10	300046.9	3.093212	2.26653	1	3.834726	36.23184	-2.48472E-005	-0.000163	10
	1	13	238359.4	3.082614	1.800056	1	3.569694	30.28229	8.051991E-006	-0.0005526	10
	2	16	189328.1	3.060473	1.425247	1	3.376066	24.97117	-1.098886E-005	-0.0002602	10
	3	18	150421.9	3.100602	0.9217438	1	3.23471	16.5561	-8.541009E-005	8.67306E-005	12
	4	22	119484.4	3.040771	0.8475763	1	3.156688	15.57514	-3.607664E-005	0.000437	11
	5	25	94921.88	3.037798	0.6466622	1	3.105864	12.01729	6.607876E-006	0.00055	11
	6	27	75421.88	3.036221	0.4775783	1	3.073551	8.939023	1.658292E-005	0.0005735	11
	7	30	59859.37	3.038274	0.3356155	1	3.056754	6.303483	-4.750296E-005	0.0005624	11
	8	32	47578.12	3.042979	0.2122202	1	3.05037	3.989401	-1.131999E-005	0.0006193	11
	9	35	37828.12	3.048478	0.1008705	1	3.050147	1.895157	1.830577E-005	0.0006837	11
	10	37	30046.88	3.055939	-0.0039343	1	3.055942	-0.0737639	-3.526099E-005	0.0007117	11
	11	40	23859.38	3.063959	-0.1080987	1	3.065866	-2.020599	2.096535E-005	0.0007003	11
	12	42	18984.38	3.074599	-0.2145822	1	3.082078	-3.992311	-1.261245E-005	0.0006889	11
	13	44	15046.87	3.086312	-0.3323244	1	3.104152	-6.14575	-5.254273E-005	0.0006358	11
	14	47	11953.13	3.102289	-0.4628907	1	3.136633	-8.486458	-1.24444E-005	0.0006748	11
	15	49	9515.62	3.120636	-0.6132302	1	3.180317	-11.11743	-4.802049E-005	0.0006378	11
	16	51	7546.875	3.144659	-0.7932829	1	3.243174	-14.15824	-4.496134E-005	0.0006402	11
	17	54	5928.309	3.176538	-1.018648	1	3.335871	-17.77994	-2.10031E-005	0.0006738	11
	18	56	4733.456	3.213292	-1.273743	1	3.45654	-21.62328	-3.608005E-005	0.0006715	11
	19	58	3796.875	3.258186	-1.574876	1	3.618841	-25.79726	-2.376693E-005	0.0006876	11
	20	61	2987.132	3.320571	-1.978254	1	3.865189	-30.78467	-3.636538E-006	0.0006587	10
	21	63	2390.625	3.391746	-2.436629	1	4.176255	-35.69345	-9.557863E-006	0.0006898	10
	22	65	1884.191	3.486708	-3.037825	1	4.624447	-41.06429	-1.353261E-005	0.0006715	10
	23	68	1516.544	3.59747	-3.70856	1	5.16674	-45.87113	2.113102E-005	0.000627	10
	24	70	1193.986	3.753963	-4.618484	1	5.951692	-50.89534	-2.271629E-005	0.0006643	10
	25	72	946.5144	3.953916	-5.702101	1	6.938833	-55.26202	1.430339E-005	0.0006171	10
	26	75	751.7689	4.205015	-7.030839	1	8.192366	-59.11714	2.247841E-005	0.0006348	10
	27	77	597.4265	4.533529	-8.647088	1	9.76345	-62.3327	-1.042438E-005	0.0006439	10
	28	79	477.4305	4.947535	-10.569	1	11.6697	-64.91488	-1.020036E-006	0.000653	10
	29	82	376.6741	5.517643	-13.04051	1	14.15978	-67.06602	-9.167542E-007	0.0006547	10
	30	84	298.2954	6.245525	-16.00313	1	17.17867	-68.68084	-1.093868E-006	0.0006517	10
	31	86	237.7717	7.153355	-19.48145	1	20.75325	-69.83737	-1.445682E-006	0.0006535	10
	32	89	189.0121	8.318839	-23.71464	1	25.1314	-70.66968	-1.865465E-006	0.0006563	10
	33	91	150.2404	9.78379	-28.79183	1	30.40875	-71.23166	-6.155994E-007	0.0006569	10
	34	94	119.1737	11.61299	-34.91996	1	36.80034	-71.60492	-9.877416E-007	0.0006548	10
	35	96	95.0169	13.77049	-42.01438	1	44.21351	-71.8531	1.43001E-006	5.693384E-005	9
	36	98	75.60484	16.3823	-50.58794	1	53.17443	-72.05608	1.349966E-006	4.98375E-005	9
	37	101	54.50582	20.88257	-65.85159	1	69.08338	-72.40536	1.193421E-006	4.79846E-005	9
	38	103	45.95588	23.60438	-75.56053	1	79.16161	-72.6517	1.530265E-006	5.881422E-005	9
	39	106	37.20238	27.32274	-89.64486	1	93.71624	-73.04937	1.473474E-006	5.463471E-005	9
	40	108	30.04808	31.50062	-106.7305	1	111.282	-73.55647	9.871213E-007	9.315592E-005	9
	41	111	23.91582	36.43506	-128.8389	1	133.8917	-74.20934	1.25693E-006	4.997836E-005	9
	42	113	18.60119	42.7752	-159.282	1	164.9257	-74.96788	1.446134E-006	5.631466E-005	9
	43	115	15.02404	48.94186	-191.1868	1	197.3517	-75.64121	1.64169E-006	6.078058E-005	9
	44	118	12.01923	56.62708	-231.9427	1	238.7552	-76.28005	1.338459E-006	5.54939E-005	9
	45	120	9.450605	66.66979	-286.3753	1	294.0334	-76.89465	1.441288E-006	5.339469E-005	9
	46	122	7.512019	78.41806	-350.8723	1	359.5285	-77.40174	1.621136E-006	3.914026E-005	9
	47	125	5.978954	92.8019	-427.8796	1	437.8277	-77.76277	8.778093E-007	0.0006342	8
	48	128	4.734848	112.0182	-526.9728	1	538.7471	-77.99931	9.373749E-007	0.0006175	8
	49	131	3.75601	136.2241	-648.2327	1	662.3915	-78.13216	9.717654E-007	0.0006495	8
	50	135	3.004808	166.5199	-790.9255	1	808.2648	-78.1107	9.742855E-007	0.0006175	8
	51	139	2.372217	209.8874	-976.336	1	998.641	-77.86751	9.046034E-007	0.0005785	8
	52	143	1.878005	264.9982	-1203.974	1	1232.793	-77.58696	1.009797E-006	0.000629	8
	53	148	1.512097	331.1113	-1456.053	1	1493.226	-77.18861	9.378705E-007	0.0006746	8
	54	153	1.201923	430.7631	-1785.126	1	1836.364	-76.43349	1.00515E-006	0.0006385	8
	55	159	0.956633	561.0884	-2174.07	1	2245.306	-75.52876	9.091138E-007	-4.400553E-006	8
