EXPLAIN
TAG	EISPOT
TITLE	LABEL	Potentiostatic EIS	Test Identifier
DATE	LABEL	9/12/2020	Date
TIME	LABEL	23:25:13	Time
NOTES	NOTES	1	Notes...
	
PSTAT	PSTAT	REF3000-16137	Potentiostat
VDC	POTEN	0.00000E+000	T	DC Voltage (V)
FREQINIT	QUANT	3.00000E+005	Initial Freq. (Hz)
FREQFINAL	QUANT	1.00000E+000	Final Freq. (Hz)
PTSPERDEC	QUANT	1.00000E+001	Points/decade
VAC	QUANT	5.00000E+001	AC Voltage (mV rms)
AREA	QUANT	1.00000E+000	Sample Area (cm^2)
SPEED	SELECTOR	2	Optimize for:
ZGUESS	QUANT	1.00000E+003	Estimated Z (ohms)
EOC	QUANT	0	Open Circuit (V)
SEQUENCER	TOGGLE	TRUE	Run as Sequence
PSTATMODEL	IQUANT	5	Pstat Model
PSTATSECTION	LABEL	REF3000-16137	Pstat Section
PSTATSERIALNO	LABEL	16137	Pstat Serial Number
CTRLMODE	IQUANT	1	Control Mode
IESTAB	IQUANT	0	I/E Stability
CASPEED	IQUANT	1	Control Amp Speed
CONVENTION	IQUANT	1	Current Convention
ICHRANGE	IQUANT	2	Ich Range
ICHRANGEMODE	TOGGLE	F	Ich Auto Range
ICHOFFSETENABLE	TOGGLE	T	Ich Offset Enable
ICHOFFSET	QUANT	0	Ich Offset (V)
ICHFILTER	IQUANT	3	Ich Filter
VCHRANGE	IQUANT	2	Vch Range
VCHRANGEMODE	TOGGLE	F	Vch Auto Range
VCHOFFSETENABLE	TOGGLE	T	Vch Offset Enable
VCHOFFSET	QUANT	0	Vch Offset (V)
VCHFILTER	IQUANT	3	Vch Filter
ACHRANGE	IQUANT	2	Ach Range
ACHOFFSETENABLE	TOGGLE	F	Ach Offset Enable
ACHOFFSET	QUANT	0	Ach Offset (V)
ACHFILTER	IQUANT	3	Ach Filter
IERANGELOWERLIMIT	IQUANT	2	I/E Range Lower Limit
IERANGEMODE	TOGGLE	F	I/E AutoRange
IERANGE	IQUANT	11	I/E Range
POSFEEDENABLE	TOGGLE	F	Positive Feedback IR Comp
POSFEEDRESISTANCE	QUANT	0	Positive Feedback Resistance (ohm)
ACHSELECT	IQUANT	0	Ach Select
CABLEID	IQUANT	13	Cable ID
DCCALDATE	LABEL	7/31/2020	DC Calibration Date
ACCALDATE	LABEL	7/31/2020	AC Calibration Date
THERMOSELECT	IQUANT	1	Thermo Select
FRAMEWORKVERSION	QUANT	6.33	Framework Version
INSTRUMENTVERSION	LABEL	3.50	Instrument Version
COMPLIANCEVOLTAGE	IQUANT	0	Compliance Voltage
ZCURVE	TABLE
	Pt	Time	Freq	Zreal	Zimag	Zsig	Zmod	Zphz	Idc	Vdc	IERange
	#	s	Hz	ohm	ohm	V	ohm	°	A	V	#
	0	11	300046.9	422.615	-52.92456	1	425.916	-7.138055	1.934486E-005	-0.0021453	9
	1	17	238359.4	435.6223	-45.18246	1	437.9592	-5.921507	7.896375E-005	-0.0016835	9
	2	24	189328.1	447.5365	-38.30211	1	449.1725	-4.8917	-8.157717E-005	0.0036807	9
	3	32	150421.9	459.8446	-33.42713	1	461.058	-4.157645	-0.0001002	0.0036385	9
	4	39	119484.4	470.7595	-27.68317	1	471.5728	-3.365422	-2.952715E-005	-0.000761	9
	5	46	94921.88	477.8894	-8.846421	1	477.9713	-1.060506	2.620954E-006	-0.0036423	8
	6	48	75421.88	481.2993	-8.985312	1	481.3832	-1.069523	-1.14967E-005	0.0066797	8
	7	51	59859.37	485.723	-6.868434	1	485.7715	-0.8101451	-4.866766E-006	0.0056658	8
	8	53	47578.12	488.7588	-6.426757	1	488.801	-0.7533467	-1.290891E-005	0.0066155	8
	9	56	37828.12	493.4516	-5.701323	1	493.4845	-0.661964	-1.362139E-005	0.0061963	8
	10	58	30046.88	495.9267	-4.849319	1	495.9504	-0.5602374	1.632319E-005	-0.0045422	8
	11	61	23859.38	500.3589	-4.694964	1	500.381	-0.5376015	5.151019E-007	0.0041136	8
	12	63	18984.38	503.8016	-4.371396	1	503.8205	-0.4971327	2.747478E-006	-0.0035924	8
	13	66	15046.87	506.32	-3.518821	1	506.3323	-0.3981876	1.444223E-005	-0.0052935	8
	14	68	11953.13	512.9943	-3.628871	1	513.0071	-0.4052979	1.018273E-005	-0.0001142	8
	15	71	9515.62	515.2657	-4.012465	1	515.2813	-0.4461634	-1.363607E-005	0.0028233	8
	16	73	7546.875	518.6384	-2.750485	1	518.6457	-0.3038527	-9.863201E-006	0.0007358	8
	17	76	5928.309	523.5131	-3.372472	1	523.524	-0.3690944	7.909406E-006	-0.004967	8
	18	78	4733.456	525.9996	-3.687711	1	526.0125	-0.4016863	1.212848E-005	-0.0054188	8
	19	80	3796.875	531.1672	-5.914654	1	531.2001	-0.6379738	-1.553754E-005	0.0052708	8
	20	83	2987.132	533.8733	-5.847815	1	533.9053	-0.6275679	8.244176E-006	-0.0050699	8
	21	85	2390.625	538.7565	-5.664341	1	538.7863	-0.6023703	1.703428E-005	-0.0036818	8
	22	87	1884.191	543.5705	-8.220665	1	543.6326	-0.8664442	-1.157601E-005	0.0015156	8
	23	89	1516.544	544.5729	-6.780627	1	544.6152	-0.7133686	8.90812E-007	0.004264	8
	24	92	1193.986	550.0216	-8.880672	1	550.0933	-0.9250196	1.262351E-005	-0.000464	8
	25	94	946.5144	554.3635	-10.87467	1	554.4701	-1.123798	-5.151647E-006	0.0058852	8
	26	97	751.7689	558.6643	-14.89484	1	558.8629	-1.527231	1.269304E-005	-0.0004592	8
	27	99	597.4265	564.2291	-18.72329	1	564.5396	-1.900597	-7.861824E-006	-0.0002883	8
	28	101	477.4305	567.8268	-21.02674	1	568.216	-2.120705	-1.06376E-007	0.0006276	8
	29	104	376.6741	572.4498	-26.06501	1	573.0428	-2.607013	-1.234664E-007	0.000634	8
	30	106	298.2954	577.2265	-32.29736	1	578.1293	-3.202512	-1.224161E-007	0.0006309	8
	31	108	237.7717	582.3296	-39.81592	1	583.6892	-3.911426	-1.321741E-007	0.0006465	8
	32	111	189.0121	587.7157	-49.23363	1	589.7743	-4.788554	-9.978787E-008	0.0006235	8
	33	113	150.2404	593.4185	-60.90228	1	596.5355	-5.859725	-1.141092E-007	0.0006257	8
	34	116	119.1737	599.5728	-75.53947	1	604.3126	-7.180794	-1.153142E-007	0.0006458	8
	35	118	95.0169	606.1368	-93.21461	1	613.2624	-8.742726	-1.462124E-007	0.0006397	8
	36	121	75.60484	613.5632	-115.2273	1	624.2894	-10.63627	-1.45964E-007	0.0006317	8
	37	123	54.50582	623.7225	-156.0245	1	642.9412	-14.04436	-1.348236E-007	0.0006283	8
	38	126	45.95588	631.9374	-182.7168	1	657.8224	-16.12656	-1.753751E-007	0.0006422	8
	39	128	37.20238	641.7976	-222.0492	1	679.1245	-19.0846	-8.818702E-008	0.0006376	8
	40	130	30.04808	653.3995	-270.2224	1	707.0721	-22.46822	-1.011022E-007	0.0006306	8
	41	133	23.91582	667.4374	-333.1335	1	745.9562	-26.52485	-1.44643E-007	0.0006852	8
	42	135	18.60119	685.1827	-419.4444	1	803.3735	-31.47348	-2.68328E-007	0.0006343	8
	43	137	15.02404	703.9581	-509.2507	1	868.846	-35.88237	-7.257551E-008	0.0006468	8
	44	140	12.01923	727.3533	-623.5255	1	958.033	-40.60492	-1.94115E-007	0.0006177	8
	45	142	9.450605	757.363	-775.2347	1	1083.784	-45.6681	-1.194813E-007	0.0006535	8
	46	145	7.512019	792.7464	-954.42	1	1240.711	-50.28679	-6.125351E-008	0.000645	8
	47	147	5.978954	837.2009	-1173.352	1	1441.409	-54.49167	-1.137718E-007	0.0006429	8
	48	150	4.734848	894.3808	-1448.71	1	1702.55	-58.31033	-1.170894E-007	0.000657	8
	49	154	3.75601	965.359	-1786.349	1	2030.507	-61.61282	-1.300638E-007	0.0006354	8
	50	157	3.004808	1051.112	-2182.188	1	2422.144	-64.28091	-1.549085E-007	0.0006583	8
	51	161	2.372217	1164.982	-2695.401	1	2936.387	-66.62547	-1.561068E-007	0.0006578	8
	52	165	1.878005	1316.035	-3323.398	1	3574.482	-68.3969	-1.326993E-007	0.0006147	8
	53	170	1.512097	1486.757	-4035.743	1	4300.891	-69.77634	-3.190099E-008	0.0006794	7
	54	175	1.201923	1724.625	-4949.203	1	5241.082	-70.78833	-1.229712E-008	0.0006035	7
	55	182	0.956633	2014.732	-6044.115	1	6371.065	-71.56482	-5.902064E-008	-2.392502E-005	7
