EXPLAIN
TAG	EISPOT
TITLE	LABEL	Potentiostatic EIS	Test Identifier
DATE	LABEL	9/12/2020	Date
TIME	LABEL	22:46:06	Time
NOTES	NOTES	1	Notes...
	
PSTAT	PSTAT	REF3000-16137	Potentiostat
VDC	POTEN	0.00000E+000	T	DC Voltage (V)
FREQINIT	QUANT	3.00000E+005	Initial Freq. (Hz)
FREQFINAL	QUANT	1.00000E+000	Final Freq. (Hz)
PTSPERDEC	QUANT	1.00000E+001	Points/decade
VAC	QUANT	5.00000E+001	AC Voltage (mV rms)
AREA	QUANT	1.00000E+000	Sample Area (cm^2)
SPEED	SELECTOR	2	Optimize for:
ZGUESS	QUANT	1.00000E+003	Estimated Z (ohms)
EOC	QUANT	0	Open Circuit (V)
SEQUENCER	TOGGLE	TRUE	Run as Sequence
PSTATMODEL	IQUANT	5	Pstat Model
PSTATSECTION	LABEL	REF3000-16137	Pstat Section
PSTATSERIALNO	LABEL	16137	Pstat Serial Number
CTRLMODE	IQUANT	1	Control Mode
IESTAB	IQUANT	0	I/E Stability
CASPEED	IQUANT	1	Control Amp Speed
CONVENTION	IQUANT	1	Current Convention
ICHRANGE	IQUANT	2	Ich Range
ICHRANGEMODE	TOGGLE	F	Ich Auto Range
ICHOFFSETENABLE	TOGGLE	T	Ich Offset Enable
ICHOFFSET	QUANT	0	Ich Offset (V)
ICHFILTER	IQUANT	3	Ich Filter
VCHRANGE	IQUANT	2	Vch Range
VCHRANGEMODE	TOGGLE	F	Vch Auto Range
VCHOFFSETENABLE	TOGGLE	T	Vch Offset Enable
VCHOFFSET	QUANT	0	Vch Offset (V)
VCHFILTER	IQUANT	3	Vch Filter
ACHRANGE	IQUANT	2	Ach Range
ACHOFFSETENABLE	TOGGLE	F	Ach Offset Enable
ACHOFFSET	QUANT	0	Ach Offset (V)
ACHFILTER	IQUANT	3	Ach Filter
IERANGELOWERLIMIT	IQUANT	2	I/E Range Lower Limit
IERANGEMODE	TOGGLE	F	I/E AutoRange
IERANGE	IQUANT	11	I/E Range
POSFEEDENABLE	TOGGLE	F	Positive Feedback IR Comp
POSFEEDRESISTANCE	QUANT	0	Positive Feedback Resistance (ohm)
ACHSELECT	IQUANT	0	Ach Select
CABLEID	IQUANT	13	Cable ID
DCCALDATE	LABEL	7/31/2020	DC Calibration Date
ACCALDATE	LABEL	7/31/2020	AC Calibration Date
THERMOSELECT	IQUANT	1	Thermo Select
FRAMEWORKVERSION	QUANT	6.33	Framework Version
INSTRUMENTVERSION	LABEL	3.50	Instrument Version
COMPLIANCEVOLTAGE	IQUANT	0	Compliance Voltage
ZCURVE	TABLE
	Pt	Time	Freq	Zreal	Zimag	Zsig	Zmod	Zphz	Idc	Vdc	IERange
	#	s	Hz	ohm	ohm	V	ohm	°	A	V	#
	0	8	300046.9	7.556344	2.230698	1	7.878727	16.44705	-8.597744E-005	0.0000983	10
	1	12	238359.4	7.53945	1.757636	1	7.741614	13.12272	2.839432E-005	0.0001447	10
	2	15	189328.1	7.542752	1.384666	1	7.668794	10.40229	9.18967E-006	0.0003737	10
	3	17	150421.9	7.539003	1.081317	1	7.616155	8.162251	-0.0001092	0.0003869	10
	4	20	119484.4	7.557136	0.8371508	1	7.603363	6.321236	-1.46143E-005	0.0004133	10
	5	22	94921.88	7.570316	0.6561422	1	7.598698	4.953619	1.472639E-005	0.0005296	10
	6	25	75421.88	7.584038	0.4776455	1	7.599064	3.60375	1.10349E-005	0.0005928	10
	7	27	59859.37	7.599946	0.3222385	1	7.606774	2.427893	-1.718153E-005	0.0006077	10
	8	30	47578.12	7.620362	0.1879632	1	7.62268	1.412967	-5.641093E-006	0.0006073	10
	9	32	37828.12	7.64276	0.0677011	1	7.64306	0.5075242	2.260509E-005	0.000596	10
	10	35	30046.88	7.667669	-0.0458514	1	7.667806	-0.3426149	-1.880765E-005	0.00069	10
	11	38	23859.38	7.690943	-0.1601128	1	7.69261	-1.192632	1.544391E-005	0.0005895	10
	12	40	18984.38	7.715115	-0.2793599	1	7.720171	-2.073742	1.892486E-005	0.0006076	10
	13	42	15046.87	7.742989	-0.4127784	1	7.753984	-3.051547	-2.06477E-005	0.0006408	10
	14	44	11953.13	7.772801	-0.5631958	1	7.793178	-4.144253	8.082018E-006	0.0006125	10
	15	47	9515.62	7.806109	-0.7373319	1	7.840855	-5.395906	1.227855E-005	0.0006073	10
	16	49	7546.875	7.844931	-0.9485741	1	7.902071	-6.89448	1.706252E-005	0.0006078	10
	17	51	5928.309	7.891858	-1.215855	1	7.984968	-8.758381	-1.171717E-005	0.0006441	10
	18	54	4733.456	7.943595	-1.519804	1	8.087676	-10.83119	1.463459E-005	0.0006474	10
	19	56	3796.875	8.00414	-1.880904	1	8.222168	-13.22408	2.308387E-005	0.0006223	10
	20	58	2987.132	8.08352	-2.363674	1	8.422009	-16.29927	-1.760891E-005	0.0006552	10
	21	61	2390.625	8.173997	-2.912195	1	8.677276	-19.60974	-4.356864E-006	0.0006303	10
	22	63	1884.191	8.288847	-3.63732	1	9.0518	-23.69287	2.251907E-005	0.0006296	10
	23	65	1516.544	8.420262	-4.449025	1	9.52337	-27.85069	2.290964E-005	0.0006354	10
	24	67	1193.986	8.598297	-5.544686	1	10.23104	-32.8163	2.208944E-005	0.0006417	10
	25	70	946.5144	8.814384	-6.859315	1	11.16887	-37.8899	-2.339373E-005	0.0006956	10
	26	72	751.7689	9.073664	-8.471694	1	12.41374	-43.03499	2.312227E-005	0.0006344	10
	27	75	597.4265	9.398261	-10.45038	1	14.05481	-48.03425	-2.776681E-005	0.0006814	10
	28	77	477.4305	9.80247	-12.82183	1	16.13963	-52.60158	-2.318567E-006	0.0006639	10
	29	79	376.6741	10.34147	-15.90803	1	18.97397	-56.97296	-1.934085E-006	0.000656	10
	30	81	298.2954	11.02347	-19.66096	1	22.54041	-60.7216	-1.902901E-006	0.0006611	10
	31	84	237.7717	11.87493	-24.13668	1	26.89969	-63.80342	-2.372529E-006	0.0006548	10
	32	86	189.0121	12.99044	-29.68511	1	32.40305	-66.36543	-1.884743E-006	0.0006624	10
	33	89	150.2404	14.42668	-36.45712	1	39.20779	-68.41048	-1.775155E-006	0.0006565	10
	34	91	119.1737	16.28138	-44.73924	1	47.60969	-70.00269	1.313332E-006	5.902913E-005	9
	35	93	95.0169	18.63759	-54.61934	1	57.71163	-71.15898	1.277177E-006	5.915449E-005	9
	36	96	75.60484	21.67658	-66.66825	1	70.10371	-71.98853	1.235524E-006	5.495524E-005	9
	37	99	54.50582	27.49423	-88.31891	1	92.49953	-72.70831	1.129555E-006	5.692933E-005	9
	38	101	45.95588	31.38134	-102.0867	1	106.8011	-72.91264	1.367858E-006	6.479074E-005	9
	39	103	37.20238	37.14241	-121.903	1	127.4358	-73.05463	1.225448E-006	5.815992E-005	9
	40	106	30.04808	44.14258	-145.5286	1	152.0761	-73.12609	1.234627E-006	6.147689E-005	9
	41	108	23.91582	53.11375	-175.4608	1	183.3236	-73.15841	1.238026E-006	5.210346E-005	9
	42	111	18.60119	64.78746	-215.1916	1	224.7328	-73.2446	1.209043E-006	6.56892E-005	9
	43	113	15.02404	76.31576	-255.752	1	266.8954	-73.38503	1.37088E-006	6.03508E-005	9
	44	115	12.01923	89.84568	-306.5634	1	319.458	-73.66553	1.297159E-006	5.770743E-005	9
	45	118	9.450605	106.3025	-373.0273	1	387.8783	-74.0939	1.44738E-006	6.871625E-005	9
	46	120	7.512019	123.4419	-449.0219	1	465.6808	-74.62839	6.945361E-007	0.0006544	8
	47	123	5.978954	143.1156	-543.8737	1	562.3884	-75.25733	6.543563E-007	0.0006355	8
	48	126	4.734848	166.0616	-663.3928	1	683.8615	-75.94641	7.101651E-007	0.0006659	8
	49	129	3.75601	192.7165	-810.4536	1	833.0514	-76.62414	6.376344E-007	0.0006223	8
	50	133	3.004808	222.9949	-984.663	1	1009.598	-77.23957	6.498983E-007	0.0006645	8
	51	136	2.372217	262.852	-1212.954	1	1241.107	-77.77283	6.727851E-007	0.0007071	8
	52	140	1.878005	307.3192	-1494.643	1	1525.91	-78.38113	6.159686E-007	0.000615	8
	53	145	1.512097	358.8892	-1809.595	1	1844.84	-78.78234	6.822509E-007	0.0006536	8
	54	151	1.201923	426.0718	-2231.715	1	2272.023	-79.19135	6.371796E-007	0.000601	8
	55	157	0.956633	508.8953	-2742.955	1	2789.763	-79.48952	6.275959E-007	-4.874189E-006	8
