EXPLAIN
TAG	EISPOT
TITLE	LABEL	Potentiostatic EIS	Test Identifier
DATE	LABEL	9/12/2020	Date
TIME	LABEL	22:40:30	Time
NOTES	NOTES	1	Notes...
	
PSTAT	PSTAT	REF3000-16137	Potentiostat
VDC	POTEN	0.00000E+000	T	DC Voltage (V)
FREQINIT	QUANT	3.00000E+005	Initial Freq. (Hz)
FREQFINAL	QUANT	1.00000E+000	Final Freq. (Hz)
PTSPERDEC	QUANT	1.00000E+001	Points/decade
VAC	QUANT	5.00000E+001	AC Voltage (mV rms)
AREA	QUANT	1.00000E+000	Sample Area (cm^2)
SPEED	SELECTOR	2	Optimize for:
ZGUESS	QUANT	1.00000E+003	Estimated Z (ohms)
EOC	QUANT	0	Open Circuit (V)
SEQUENCER	TOGGLE	TRUE	Run as Sequence
PSTATMODEL	IQUANT	5	Pstat Model
PSTATSECTION	LABEL	REF3000-16137	Pstat Section
PSTATSERIALNO	LABEL	16137	Pstat Serial Number
CTRLMODE	IQUANT	1	Control Mode
IESTAB	IQUANT	0	I/E Stability
CASPEED	IQUANT	1	Control Amp Speed
CONVENTION	IQUANT	1	Current Convention
ICHRANGE	IQUANT	2	Ich Range
ICHRANGEMODE	TOGGLE	F	Ich Auto Range
ICHOFFSETENABLE	TOGGLE	T	Ich Offset Enable
ICHOFFSET	QUANT	0	Ich Offset (V)
ICHFILTER	IQUANT	3	Ich Filter
VCHRANGE	IQUANT	2	Vch Range
VCHRANGEMODE	TOGGLE	F	Vch Auto Range
VCHOFFSETENABLE	TOGGLE	T	Vch Offset Enable
VCHOFFSET	QUANT	0	Vch Offset (V)
VCHFILTER	IQUANT	3	Vch Filter
ACHRANGE	IQUANT	2	Ach Range
ACHOFFSETENABLE	TOGGLE	F	Ach Offset Enable
ACHOFFSET	QUANT	0	Ach Offset (V)
ACHFILTER	IQUANT	3	Ach Filter
IERANGELOWERLIMIT	IQUANT	2	I/E Range Lower Limit
IERANGEMODE	TOGGLE	F	I/E AutoRange
IERANGE	IQUANT	11	I/E Range
POSFEEDENABLE	TOGGLE	F	Positive Feedback IR Comp
POSFEEDRESISTANCE	QUANT	0	Positive Feedback Resistance (ohm)
ACHSELECT	IQUANT	0	Ach Select
CABLEID	IQUANT	13	Cable ID
DCCALDATE	LABEL	7/31/2020	DC Calibration Date
ACCALDATE	LABEL	7/31/2020	AC Calibration Date
THERMOSELECT	IQUANT	1	Thermo Select
FRAMEWORKVERSION	QUANT	6.33	Framework Version
INSTRUMENTVERSION	LABEL	3.50	Instrument Version
COMPLIANCEVOLTAGE	IQUANT	0	Compliance Voltage
ZCURVE	TABLE
	Pt	Time	Freq	Zreal	Zimag	Zsig	Zmod	Zphz	Idc	Vdc	IERange
	#	s	Hz	ohm	ohm	V	ohm	°	A	V	#
	0	10	300046.9	5.787591	2.227277	1	6.201369	21.04855	1.447683E-005	0.0001152	10
	1	13	238359.4	5.751753	1.774025	1	6.019122	17.14144	3.134695E-005	2.263889E-005	10
	2	16	189328.1	5.744284	1.399173	1	5.912231	13.68934	3.025977E-005	0.0002826	10
	3	18	150421.9	5.743974	1.103958	1	5.8491	10.87925	1.003699E-005	0.000429	10
	4	21	119484.4	5.744021	0.8478568	1	5.806259	8.396619	-9.344499E-005	0.0004603	10
	5	24	94921.88	5.751629	0.6632376	1	5.789743	6.577895	2.332809E-005	0.000478	10
	6	26	75421.88	5.757479	0.4860791	1	5.777962	4.825791	1.933701E-005	0.0005126	10
	7	29	59859.37	5.766985	0.3335969	1	5.776626	3.310641	-7.060067E-006	0.0005663	10
	8	31	47578.12	5.780529	0.2004982	1	5.784006	1.986513	1.285162E-005	0.000558	10
	9	34	37828.12	5.795674	0.0810948	1	5.796241	0.8016471	1.936278E-005	0.0005911	10
	10	36	30046.88	5.812288	-0.0322397	1	5.812377	-0.3178057	3.644507E-006	0.0005884	10
	11	39	23859.38	5.830153	-0.1444688	1	5.831943	-1.419475	1.584534E-007	0.0006764	10
	12	41	18984.38	5.848342	-0.2605327	1	5.854142	-2.550734	-2.507759E-006	0.0006268	10
	13	43	15046.87	5.869477	-0.3901519	1	5.88243	-3.802933	9.996735E-006	0.0006598	10
	14	46	11953.13	5.893927	-0.5353783	1	5.918193	-5.190251	-1.93087E-005	0.0006809	10
	15	48	9515.62	5.920856	-0.703778	1	5.962537	-6.778614	-6.619896E-006	0.0006453	10
	16	50	7546.875	5.953535	-0.9079175	1	6.022366	-8.670834	6.341888E-007	0.0006811	10
	17	53	5928.309	5.992887	-1.163674	1	6.104821	-10.98871	2.091222E-005	0.0006174	10
	18	55	4733.456	6.038868	-1.454376	1	6.211533	-13.54101	2.068807E-005	0.0006189	10
	19	57	3796.875	6.094519	-1.79989	1	6.354743	-16.45341	-1.913216E-005	0.0007208	10
	20	60	2987.132	6.164838	-2.26122	1	6.566456	-20.14269	2.207309E-005	0.0006325	10
	21	62	2390.625	6.247675	-2.788067	1	6.841547	-24.04914	-1.166426E-006	0.0006865	10
	22	64	1884.191	6.356496	-3.475447	1	7.244569	-28.66786	1.16708E-005	0.0006098	10
	23	66	1516.544	6.478164	-4.249137	1	7.747372	-33.26154	4.16747E-006	0.0006135	10
	24	69	1193.986	6.644642	-5.294955	1	8.496342	-38.5505	-2.446095E-005	0.0006595	10
	25	71	946.5144	6.848284	-6.547774	1	9.474827	-43.71492	2.027706E-005	0.0006304	10
	26	74	751.7689	7.099613	-8.086797	1	10.76108	-48.71925	1.868341E-005	0.0006405	10
	27	76	597.4265	7.421608	-9.97027	1	12.42926	-53.33697	-1.207901E-005	0.0006425	10
	28	78	477.4305	7.817085	-12.23097	1	14.51563	-57.41645	-1.79605E-006	0.0006603	10
	29	81	376.6741	8.357435	-15.16508	1	17.31549	-61.14095	-2.756047E-006	0.0006571	10
	30	83	298.2954	9.046575	-18.72496	1	20.79578	-64.21346	-2.34555E-006	0.0006597	10
	31	85	237.7717	9.91478	-22.95895	1	25.00832	-66.64299	-2.05727E-006	0.0006519	10
	32	88	189.0121	11.0507	-28.18532	1	30.27425	-68.59119	-2.134028E-006	0.0006561	10
	33	90	150.2404	12.51726	-34.53615	1	36.73455	-70.07749	-2.504649E-006	0.0006973	10
	34	93	119.1737	14.40536	-42.27185	1	44.65897	-71.18197	1.389498E-006	5.071864E-005	9
	35	95	95.0169	16.78266	-51.45087	1	54.11885	-71.93429	1.226007E-006	5.58737E-005	9
	36	97	75.60484	19.81592	-62.58601	1	65.64814	-72.43122	1.122177E-006	5.047816E-005	9
	37	100	54.50582	25.52152	-82.47535	1	86.33384	-72.80562	1.13249E-006	4.925362E-005	9
	38	102	45.95588	29.25205	-95.0684	1	99.467	-72.89713	1.394653E-006	5.547051E-005	9
	39	105	37.20238	34.6678	-113.1326	1	118.3252	-72.9631	1.106121E-006	5.983975E-005	9
	40	107	30.04808	41.05439	-134.612	1	140.7333	-73.03918	1.270364E-006	5.043529E-005	9
	41	110	23.91582	49.01926	-161.9161	1	169.1736	-73.15659	1.209746E-006	5.219711E-005	9
	42	112	18.60119	59.12969	-198.4746	1	207.0954	-73.41012	1.175062E-006	5.971278E-005	9
	43	114	15.02404	68.8204	-236.0203	1	245.8492	-73.74401	1.367104E-006	6.179561E-005	9
	44	116	12.01923	80.17379	-283.5267	1	294.6442	-74.21051	1.445806E-006	5.423109E-005	9
	45	119	9.450605	93.83257	-346.1592	1	358.6513	-74.83343	1.35975E-006	5.022041E-005	9
	46	121	7.512019	108.1144	-418.493	1	432.2327	-75.51479	6.110274E-007	0.0006182	8
	47	124	5.978954	125.0617	-508.9919	1	524.1308	-76.19562	6.624721E-007	0.0006364	8
	48	127	4.734848	145.2422	-623.4052	1	640.101	-76.88507	6.265845E-007	0.0006112	8
	49	130	3.75601	169.5859	-764.1361	1	782.7281	-77.48706	6.996144E-007	0.0006542	8
	50	134	3.004808	197.7321	-930.6965	1	951.469	-78.00551	6.813918E-007	0.0006217	8
	51	138	2.372217	235.5871	-1149.698	1	1173.588	-78.41971	6.45135E-007	0.0005622	8
	52	142	1.878005	279.094	-1417.666	1	1444.877	-78.86268	6.848531E-007	0.0006418	8
	53	146	1.512097	331.4915	-1719.02	1	1750.69	-79.08521	6.332369E-007	0.0005809	8
	54	152	1.201923	398.0559	-2120.846	1	2157.878	-79.36998	6.77213E-007	0.0006657	8
	55	158	0.956633	483.5383	-2608.47	1	2652.909	-79.49815	6.420499E-007	-1.465575E-006	8
