EXPLAIN
TAG	EISPOT
TITLE	LABEL	Potentiostatic EIS	Test Identifier
DATE	LABEL	9/12/2020	Date
TIME	LABEL	22:23:42	Time
NOTES	NOTES	1	Notes...
	
PSTAT	PSTAT	REF3000-16137	Potentiostat
VDC	POTEN	0.00000E+000	T	DC Voltage (V)
FREQINIT	QUANT	3.00000E+005	Initial Freq. (Hz)
FREQFINAL	QUANT	1.00000E+000	Final Freq. (Hz)
PTSPERDEC	QUANT	1.00000E+001	Points/decade
VAC	QUANT	5.00000E+001	AC Voltage (mV rms)
AREA	QUANT	1.00000E+000	Sample Area (cm^2)
SPEED	SELECTOR	2	Optimize for:
ZGUESS	QUANT	1.00000E+003	Estimated Z (ohms)
EOC	QUANT	0	Open Circuit (V)
SEQUENCER	TOGGLE	TRUE	Run as Sequence
PSTATMODEL	IQUANT	5	Pstat Model
PSTATSECTION	LABEL	REF3000-16137	Pstat Section
PSTATSERIALNO	LABEL	16137	Pstat Serial Number
CTRLMODE	IQUANT	1	Control Mode
IESTAB	IQUANT	0	I/E Stability
CASPEED	IQUANT	1	Control Amp Speed
CONVENTION	IQUANT	1	Current Convention
ICHRANGE	IQUANT	2	Ich Range
ICHRANGEMODE	TOGGLE	F	Ich Auto Range
ICHOFFSETENABLE	TOGGLE	T	Ich Offset Enable
ICHOFFSET	QUANT	0	Ich Offset (V)
ICHFILTER	IQUANT	3	Ich Filter
VCHRANGE	IQUANT	2	Vch Range
VCHRANGEMODE	TOGGLE	F	Vch Auto Range
VCHOFFSETENABLE	TOGGLE	T	Vch Offset Enable
VCHOFFSET	QUANT	0	Vch Offset (V)
VCHFILTER	IQUANT	3	Vch Filter
ACHRANGE	IQUANT	2	Ach Range
ACHOFFSETENABLE	TOGGLE	F	Ach Offset Enable
ACHOFFSET	QUANT	0	Ach Offset (V)
ACHFILTER	IQUANT	3	Ach Filter
IERANGELOWERLIMIT	IQUANT	2	I/E Range Lower Limit
IERANGEMODE	TOGGLE	F	I/E AutoRange
IERANGE	IQUANT	11	I/E Range
POSFEEDENABLE	TOGGLE	F	Positive Feedback IR Comp
POSFEEDRESISTANCE	QUANT	0	Positive Feedback Resistance (ohm)
ACHSELECT	IQUANT	0	Ach Select
CABLEID	IQUANT	13	Cable ID
DCCALDATE	LABEL	7/31/2020	DC Calibration Date
ACCALDATE	LABEL	7/31/2020	AC Calibration Date
THERMOSELECT	IQUANT	1	Thermo Select
FRAMEWORKVERSION	QUANT	6.33	Framework Version
INSTRUMENTVERSION	LABEL	3.50	Instrument Version
COMPLIANCEVOLTAGE	IQUANT	0	Compliance Voltage
ZCURVE	TABLE
	Pt	Time	Freq	Zreal	Zimag	Zsig	Zmod	Zphz	Idc	Vdc	IERange
	#	s	Hz	ohm	ohm	V	ohm	°	A	V	#
	0	11	300046.9	3.321842	2.25434	1	4.014559	34.16245	2.48803E-005	-0.0001146	10
	1	14	238359.4	3.289096	1.794313	1	3.746693	28.61395	1.622052E-005	-0.0004909	10
	2	17	189328.1	3.266128	1.419022	1	3.561069	23.48331	-1.172518E-005	-0.0001153	10
	3	20	150421.9	3.248956	1.108538	1	3.432866	18.83956	-0.0000968	5.151162E-005	10
	4	22	119484.4	3.27681	0.7014463	1	3.351046	12.0826	-0.0001398	0.0002833	12
	5	26	94921.88	3.248762	0.6442337	1	3.312022	11.21632	-3.570308E-005	0.0005717	11
	6	28	75421.88	3.248626	0.4761148	1	3.28333	8.337842	-2.27515E-005	0.0005849	11
	7	31	59859.37	3.250925	0.3325951	1	3.267895	5.841483	2.034853E-005	0.0006454	11
	8	33	47578.12	3.25513	0.2090597	1	3.261837	3.674757	-2.433385E-005	0.0006169	11
	9	36	37828.12	3.261593	0.0972829	1	3.263044	1.708444	1.724829E-007	0.0006652	11
	10	38	30046.88	3.269414	-0.0082845	1	3.269424	-0.1451835	-2.874469E-005	0.0006583	11
	11	41	23859.38	3.277952	-0.1130471	1	3.279901	-1.975184	-3.756972E-005	0.0006352	11
	12	43	18984.38	3.288732	-0.2207423	1	3.296132	-3.839978	-1.353498E-005	0.0006519	11
	13	46	15046.87	3.302594	-0.3396667	1	3.320015	-5.872136	-1.979548E-005	0.0006853	11
	14	48	11953.13	3.317991	-0.4725315	1	3.35147	-8.10527	-3.590578E-005	0.0006514	11
	15	50	9515.62	3.337565	-0.6248125	1	3.395545	-10.60339	-8.715851E-006	0.0006613	11
	16	52	7546.875	3.362631	-0.8070754	1	3.458129	-13.49644	-3.065546E-005	0.0007389	11
	17	55	5928.309	3.394046	-1.036896	1	3.548901	-16.98815	-4.139442E-005	0.0006523	11
	18	57	4733.456	3.434211	-1.296141	1	3.670666	-20.67753	1.705948E-005	0.0006161	10
	19	59	3796.875	3.479527	-1.604204	1	3.831524	-24.75164	-2.033825E-005	0.000643	10
	20	62	2987.132	3.541096	-2.012801	1	4.073172	-29.61441	-2.182804E-005	0.0006652	10
	21	64	2390.625	3.613144	-2.478487	1	4.381519	-34.44873	-1.689399E-005	0.0006787	10
	22	66	1884.191	3.708601	-3.09203	1	4.828496	-39.81951	-2.417934E-005	0.0006677	10
	23	69	1516.544	3.819752	-3.775045	1	5.370426	-44.66273	5.704124E-006	0.0006183	10
	24	71	1193.986	3.975116	-4.701749	1	6.156947	-49.78699	-1.313502E-005	0.0006692	10
	25	73	946.5144	4.169926	-5.814751	1	7.15539	-54.3546	-2.692608E-005	0.0006955	10
	26	76	751.7689	4.426749	-7.163535	1	8.420947	-58.28576	5.117815E-006	0.0006156	10
	27	78	597.4265	4.746815	-8.817876	1	10.01435	-61.70565	-1.28695E-005	0.0006695	10
	28	80	477.4305	5.161978	-10.781	1	11.95308	-64.41476	-4.541088E-007	0.0006593	10
	29	83	376.6741	5.727814	-13.31379	1	14.49362	-66.72182	-6.884727E-007	0.0006485	10
	30	85	298.2954	6.453372	-16.35544	1	17.58256	-68.46728	-2.059139E-007	0.0006552	10
	31	87	237.7717	7.358893	-19.9325	1	21.24753	-69.73632	-1.797802E-006	0.0006563	10
	32	90	189.0121	8.527322	-24.29386	1	25.74698	-70.65855	-1.432887E-006	0.0006589	10
	33	92	150.2404	10.00356	-29.53632	1	31.18438	-71.28944	-1.354145E-006	0.0006541	10
	34	95	119.1737	11.86158	-35.87246	1	37.78268	-71.70303	-9.231998E-007	0.0006588	10
	35	97	95.0169	14.07291	-43.21521	1	45.44888	-71.9623	1.367792E-006	5.570598E-005	9
	36	99	75.60484	16.77244	-52.08926	1	54.723	-72.15175	1.287006E-006	4.751742E-005	9
	37	102	54.50582	21.48251	-67.85835	1	71.17762	-72.43332	1.203765E-006	4.942946E-005	9
	38	105	45.95588	24.35518	-77.87128	1	81.59113	-72.63229	1.458085E-006	5.668934E-005	9
	39	107	37.20238	28.28032	-92.33544	1	96.5692	-72.97132	1.357076E-006	5.244706E-005	9
	40	109	30.04808	32.75226	-109.8844	1	114.6616	-73.40273	1.274532E-006	5.907463E-005	9
	41	112	23.91582	38.07163	-132.5981	1	137.9554	-73.98014	1.388951E-006	4.83536E-005	9
	42	114	18.60119	44.62755	-163.4853	1	169.4669	-74.73162	1.352783E-006	5.959558E-005	9
	43	116	15.02404	51.09048	-195.9628	1	202.5134	-75.38741	1.479334E-006	5.227804E-005	9
	44	119	12.01923	58.97867	-237.5022	1	244.7157	-76.05391	9.085467E-007	0.0001046	9
	45	121	9.450605	69.00181	-293.0101	1	301.0252	-76.74869	1.362964E-006	0.0001234	9
	46	124	7.512019	81.04413	-358.6747	1	367.7169	-77.26758	1.585468E-006	5.214119E-005	9
	47	126	5.978954	95.2024	-437.2811	1	447.5246	-77.71755	7.824573E-007	0.000636	8
	48	129	4.734848	113.8598	-538.3495	1	550.2583	-78.05804	8.087285E-007	0.0006059	8
	49	133	3.75601	137.752	-662.3243	1	676.4976	-78.25097	8.97329E-007	0.0006495	8
	50	136	3.004808	166.8754	-808.3392	1	825.3845	-78.33559	8.65238E-007	0.0006207	8
	51	140	2.372217	208.5906	-998.78	1	1020.329	-78.2036	8.181632E-007	0.0005644	8
	52	144	1.878005	260.3583	-1232.296	1	1259.5	-78.07005	9.120858E-007	0.0006303	8
	53	149	1.512097	324.0396	-1490.818	1	1525.628	-77.73711	8.315321E-007	0.0006221	8
	54	154	1.201923	415.6971	-1832.769	1	1879.32	-77.22074	9.055059E-007	0.000647	8
	55	160	0.956633	538.0037	-2239.212	1	2302.937	-76.48992	8.295614E-007	-1.081246E-005	8
