EXPLAIN
TAG	EISPOT
TITLE	LABEL	Potentiostatic EIS	Test Identifier
DATE	LABEL	9/12/2020	Date
TIME	LABEL	22:29:19	Time
NOTES	NOTES	1	Notes...
	
PSTAT	PSTAT	REF3000-16137	Potentiostat
VDC	POTEN	0.00000E+000	T	DC Voltage (V)
FREQINIT	QUANT	3.00000E+005	Initial Freq. (Hz)
FREQFINAL	QUANT	1.00000E+000	Final Freq. (Hz)
PTSPERDEC	QUANT	1.00000E+001	Points/decade
VAC	QUANT	5.00000E+001	AC Voltage (mV rms)
AREA	QUANT	1.00000E+000	Sample Area (cm^2)
SPEED	SELECTOR	2	Optimize for:
ZGUESS	QUANT	1.00000E+003	Estimated Z (ohms)
EOC	QUANT	0	Open Circuit (V)
SEQUENCER	TOGGLE	TRUE	Run as Sequence
PSTATMODEL	IQUANT	5	Pstat Model
PSTATSECTION	LABEL	REF3000-16137	Pstat Section
PSTATSERIALNO	LABEL	16137	Pstat Serial Number
CTRLMODE	IQUANT	1	Control Mode
IESTAB	IQUANT	0	I/E Stability
CASPEED	IQUANT	1	Control Amp Speed
CONVENTION	IQUANT	1	Current Convention
ICHRANGE	IQUANT	2	Ich Range
ICHRANGEMODE	TOGGLE	F	Ich Auto Range
ICHOFFSETENABLE	TOGGLE	T	Ich Offset Enable
ICHOFFSET	QUANT	0	Ich Offset (V)
ICHFILTER	IQUANT	3	Ich Filter
VCHRANGE	IQUANT	2	Vch Range
VCHRANGEMODE	TOGGLE	F	Vch Auto Range
VCHOFFSETENABLE	TOGGLE	T	Vch Offset Enable
VCHOFFSET	QUANT	0	Vch Offset (V)
VCHFILTER	IQUANT	3	Vch Filter
ACHRANGE	IQUANT	2	Ach Range
ACHOFFSETENABLE	TOGGLE	F	Ach Offset Enable
ACHOFFSET	QUANT	0	Ach Offset (V)
ACHFILTER	IQUANT	3	Ach Filter
IERANGELOWERLIMIT	IQUANT	2	I/E Range Lower Limit
IERANGEMODE	TOGGLE	F	I/E AutoRange
IERANGE	IQUANT	11	I/E Range
POSFEEDENABLE	TOGGLE	F	Positive Feedback IR Comp
POSFEEDRESISTANCE	QUANT	0	Positive Feedback Resistance (ohm)
ACHSELECT	IQUANT	0	Ach Select
CABLEID	IQUANT	13	Cable ID
DCCALDATE	LABEL	7/31/2020	DC Calibration Date
ACCALDATE	LABEL	7/31/2020	AC Calibration Date
THERMOSELECT	IQUANT	1	Thermo Select
FRAMEWORKVERSION	QUANT	6.33	Framework Version
INSTRUMENTVERSION	LABEL	3.50	Instrument Version
COMPLIANCEVOLTAGE	IQUANT	0	Compliance Voltage
ZCURVE	TABLE
	Pt	Time	Freq	Zreal	Zimag	Zsig	Zmod	Zphz	Idc	Vdc	IERange
	#	s	Hz	ohm	ohm	V	ohm	°	A	V	#
	0	10	300046.9	3.855189	2.247599	1	4.462531	30.24245	2.162679E-005	-4.228803E-005	10
	1	13	238359.4	3.823525	1.789405	1	4.22153	25.07953	1.649569E-005	-0.0003854	10
	2	16	189328.1	3.806071	1.416259	1	4.06103	20.41049	1.600039E-005	-7.0613E-005	10
	3	19	150421.9	3.787769	1.113372	1	3.948011	16.38011	2.321314E-005	0.0001692	10
	4	21	119484.4	3.789917	0.8605399	1	3.886386	12.7927	-9.373282E-005	0.000335	10
	5	24	94921.88	3.789027	0.6689543	1	3.847626	10.01241	1.189866E-005	0.0003732	10
	6	26	75421.88	3.790654	0.4939993	1	3.822708	7.42496	-5.444535E-006	0.0004432	10
	7	29	59859.37	3.795042	0.3450266	1	3.810694	5.194769	2.165859E-005	0.0005204	10
	8	31	47578.12	3.800841	0.2163423	1	3.806993	3.257736	5.555264E-006	0.0005168	10
	9	34	37828.12	3.808028	0.1000662	1	3.809342	1.505255	2.235592E-005	0.0005477	10
	10	36	30046.88	3.817491	-0.0100166	1	3.817504	-0.1503358	1.86933E-005	0.0005716	10
	11	39	23859.38	3.829314	-0.1186036	1	3.83115	-1.774029	-1.572769E-005	0.0006532	10
	12	41	18984.38	3.841006	-0.2302625	1	3.847902	-3.430689	2.199894E-005	0.000595	10
	13	43	15046.87	3.856607	-0.3532453	1	3.872751	-5.233395	-2.868053E-007	0.0006591	10
	14	46	11953.13	3.873883	-0.4904553	1	3.904807	-7.215578	-6.422973E-006	0.0006115	10
	15	48	9515.62	3.894973	-0.647896	1	3.948491	-9.4442	-1.564407E-005	0.000628	10
	16	50	7546.875	3.92139	-0.8365069	1	4.009619	-12.04179	5.874402E-006	0.0006149	10
	17	53	5928.309	3.954791	-1.074785	1	4.098235	-15.20394	2.004667E-005	0.0006196	10
	18	55	4733.456	3.994009	-1.343858	1	4.214031	-18.59646	1.877424E-005	0.0006356	10
	19	57	3796.875	4.041495	-1.663589	1	4.370493	-22.37339	9.635858E-006	0.0006077	10
	20	60	2987.132	4.105537	-2.086884	1	4.605488	-26.94467	-4.537244E-006	0.0006252	10
	21	62	2390.625	4.180224	-2.569641	1	4.906865	-31.57961	-1.22538E-005	0.0006632	10
	22	64	1884.191	4.277577	-3.20591	1	5.345608	-36.85041	-2.651434E-005	0.000668	10
	23	67	1516.544	4.390814	-3.915178	1	5.882845	-41.72258	-4.059201E-006	0.0006234	10
	24	69	1193.986	4.547925	-4.876986	1	6.668479	-46.9996	-3.38586E-006	0.0006294	10
	25	71	946.5144	4.742381	-6.030949	1	7.672191	-51.82059	2.158277E-006	0.0006338	10
	26	74	751.7689	4.993614	-7.442472	1	8.962509	-56.1399	1.449028E-005	0.0006391	10
	27	76	597.4265	5.317393	-9.168946	1	10.59926	-59.88905	-2.36187E-005	0.0007043	10
	28	78	477.4305	5.719961	-11.22434	1	12.59777	-62.99646	-1.658012E-006	0.0006507	10
	29	81	376.6741	6.277531	-13.88361	1	15.23686	-65.6697	-1.8299E-006	0.0006491	10
	30	83	298.2954	6.992296	-17.08892	1	18.46412	-67.74703	-2.145868E-006	0.0006515	10
	31	85	237.7717	7.891356	-20.87236	1	22.31432	-69.28955	-1.990328E-006	0.000647	10
	32	88	189.0121	9.057952	-25.50208	1	27.06293	-70.44573	-1.874254E-006	0.0006529	10
	33	90	150.2404	10.54773	-31.09031	1	32.83081	-71.25993	-1.72189E-006	0.0006526	10
	34	93	119.1737	12.44593	-37.86933	1	39.8621	-71.80665	-2.019696E-006	0.0006536	10
	35	95	95.0169	14.74195	-45.75071	1	48.06717	-72.13984	1.328289E-006	4.417713E-005	9
	36	97	75.60484	17.59855	-55.29001	1	58.02322	-72.34397	1.270831E-006	4.705686E-005	9
	37	100	54.50582	22.70486	-72.21568	1	75.70082	-72.54668	1.112664E-006	5.416583E-005	9
	38	103	45.95588	25.88538	-82.92359	1	86.86987	-72.66376	1.284191E-006	5.92984E-005	9
	39	105	37.20238	30.33175	-98.3433	1	102.9146	-72.85881	1.293411E-006	4.869722E-005	9
	40	107	30.04808	35.33883	-116.8268	1	122.0546	-73.17001	1.229549E-006	5.1809E-005	9
	41	110	23.91582	41.3499	-140.6175	1	146.5711	-73.61353	1.119441E-006	4.527554E-005	9
	42	112	18.60119	48.82544	-173.0165	1	179.7738	-74.24088	1.339892E-006	4.885352E-005	9
	43	114	15.02404	55.98611	-206.8547	1	214.2972	-74.85548	1.221152E-006	4.472566E-005	9
	44	117	12.01923	64.5581	-249.9619	1	258.1641	-75.51858	1.421005E-006	5.148366E-005	9
	45	119	9.450605	75.33588	-307.746	1	316.8329	-76.24457	1.493168E-006	4.95075E-005	9
	46	122	7.512019	87.5246	-375.9611	1	386.0146	-76.89484	1.497956E-006	5.44524E-005	9
	47	124	5.978954	101.8734	-457.6927	1	468.8932	-77.45164	7.907934E-007	0.0006316	8
	48	127	4.734848	120.6582	-563.3265	1	576.1035	-77.91056	7.404049E-007	0.000642	8
	49	131	3.75601	143.3202	-692.6935	1	707.3649	-78.31029	8.169454E-007	0.0006447	8
	50	134	3.004808	170.6858	-845.4178	1	862.4761	-78.58569	7.451087E-007	0.0006592	8
	51	138	2.372217	208.1401	-1044.12	1	1064.663	-78.72615	7.083054E-007	0.0006575	8
	52	142	1.878005	257.8474	-1289.934	1	1315.453	-78.69602	7.781755E-007	0.0006095	8
	53	147	1.512097	316.9561	-1566.134	1	1597.885	-78.55894	7.772916E-007	0.0007249	8
	54	152	1.201923	396.357	-1926.913	1	1967.255	-78.37665	7.764641E-007	0.0005971	8
	55	158	0.956633	501.5644	-2363.488	1	2416.121	-78.0188	7.212187E-007	-1.136911E-005	8
