EXPLAIN
TAG	EISPOT
TITLE	LABEL	Potentiostatic EIS	Test Identifier
DATE	LABEL	9/12/2020	Date
TIME	LABEL	22:06:36	Time
NOTES	NOTES	1	Notes...
	
PSTAT	PSTAT	REF3000-16137	Potentiostat
VDC	POTEN	0.00000E+000	T	DC Voltage (V)
FREQINIT	QUANT	3.00000E+005	Initial Freq. (Hz)
FREQFINAL	QUANT	1.00000E+000	Final Freq. (Hz)
PTSPERDEC	QUANT	1.00000E+001	Points/decade
VAC	QUANT	5.00000E+001	AC Voltage (mV rms)
AREA	QUANT	1.00000E+000	Sample Area (cm^2)
SPEED	SELECTOR	2	Optimize for:
ZGUESS	QUANT	1.00000E+003	Estimated Z (ohms)
EOC	QUANT	0	Open Circuit (V)
SEQUENCER	TOGGLE	TRUE	Run as Sequence
PSTATMODEL	IQUANT	5	Pstat Model
PSTATSECTION	LABEL	REF3000-16137	Pstat Section
PSTATSERIALNO	LABEL	16137	Pstat Serial Number
CTRLMODE	IQUANT	1	Control Mode
IESTAB	IQUANT	0	I/E Stability
CASPEED	IQUANT	1	Control Amp Speed
CONVENTION	IQUANT	1	Current Convention
ICHRANGE	IQUANT	2	Ich Range
ICHRANGEMODE	TOGGLE	F	Ich Auto Range
ICHOFFSETENABLE	TOGGLE	T	Ich Offset Enable
ICHOFFSET	QUANT	0	Ich Offset (V)
ICHFILTER	IQUANT	3	Ich Filter
VCHRANGE	IQUANT	2	Vch Range
VCHRANGEMODE	TOGGLE	F	Vch Auto Range
VCHOFFSETENABLE	TOGGLE	T	Vch Offset Enable
VCHOFFSET	QUANT	0	Vch Offset (V)
VCHFILTER	IQUANT	3	Vch Filter
ACHRANGE	IQUANT	2	Ach Range
ACHOFFSETENABLE	TOGGLE	F	Ach Offset Enable
ACHOFFSET	QUANT	0	Ach Offset (V)
ACHFILTER	IQUANT	3	Ach Filter
IERANGELOWERLIMIT	IQUANT	2	I/E Range Lower Limit
IERANGEMODE	TOGGLE	F	I/E AutoRange
IERANGE	IQUANT	11	I/E Range
POSFEEDENABLE	TOGGLE	F	Positive Feedback IR Comp
POSFEEDRESISTANCE	QUANT	0	Positive Feedback Resistance (ohm)
ACHSELECT	IQUANT	0	Ach Select
CABLEID	IQUANT	13	Cable ID
DCCALDATE	LABEL	7/31/2020	DC Calibration Date
ACCALDATE	LABEL	7/31/2020	AC Calibration Date
THERMOSELECT	IQUANT	1	Thermo Select
FRAMEWORKVERSION	QUANT	6.33	Framework Version
INSTRUMENTVERSION	LABEL	3.50	Instrument Version
COMPLIANCEVOLTAGE	IQUANT	0	Compliance Voltage
ZCURVE	TABLE
	Pt	Time	Freq	Zreal	Zimag	Zsig	Zmod	Zphz	Idc	Vdc	IERange
	#	s	Hz	ohm	ohm	V	ohm	°	A	V	#
	0	10	300046.9	2.402534	2.249284	1	3.291116	43.11312	-0.0001015	-0.0002288	11
	1	13	238359.4	2.359065	1.78589	1	2.958816	37.12693	-0.00013	-0.0004226	11
	2	16	189328.1	2.334773	1.407104	1	2.726006	31.07623	-4.215207E-005	0.000189	11
	3	20	150421.9	2.361394	0.976882	1	2.555481	22.47433	-0.0001304	0.0002175	12
	4	24	119484.4	2.337028	0.7592012	1	2.457252	17.99678	-0.0001029	0.000355	12
	5	27	94921.88	2.317648	0.577974	1	2.388629	14.00278	-7.462642E-005	0.0004713	12
	6	31	75421.88	2.30676	0.4262117	1	2.345804	10.46828	-1.775607E-005	0.0004964	12
	7	34	59859.37	2.298137	0.3488748	1	2.324467	8.632032	8.727937E-006	0.0005961	11
	8	37	47578.12	2.30027	0.2266252	1	2.311407	5.626688	-1.310614E-005	0.000603	11
	9	40	37828.12	2.303354	0.1175113	1	2.30635	2.920554	-4.704119E-005	0.0005995	11
	10	42	30046.88	2.30896	0.0150659	1	2.309009	0.373848	8.520891E-006	0.0006474	11
	11	45	23859.38	2.31539	-0.0851653	1	2.316955	-2.10652	2.07111E-005	0.0006647	11
	12	47	18984.38	2.324465	-0.1869075	1	2.331967	-4.597196	-2.922231E-005	0.0006484	11
	13	49	15046.87	2.335437	-0.2982234	1	2.3544	-7.276998	-8.624887E-005	0.0006997	11
	14	52	11953.13	2.348766	-0.4208767	1	2.386177	-10.15904	2.350783E-005	0.0006866	11
	15	54	9515.62	2.366558	-0.5609261	1	2.432125	-13.33429	-1.156252E-005	0.0006505	11
	16	56	7546.875	2.388924	-0.7275245	1	2.497249	-16.93762	3.199725E-005	0.0006887	11
	17	59	5928.309	2.418436	-0.9366709	1	2.593489	-21.17161	-3.862196E-005	0.0006625	11
	18	61	4733.456	2.452471	-1.171465	1	2.717893	-25.53228	6.232365E-007	0.0006655	11
	19	63	3796.875	2.494381	-1.450217	1	2.885319	-30.17344	2.303474E-005	0.0007072	11
	20	65	2987.132	2.552938	-1.819062	1	3.134721	-35.47126	-3.716275E-005	0.0007218	11
	21	68	2390.625	2.622382	-2.237782	1	3.447398	-40.47543	1.870849E-005	0.0006859	11
	22	70	1884.191	2.715959	-2.790459	1	3.893982	-45.77514	-2.608939E-005	0.0006638	11
	23	72	1516.544	2.830702	-3.406013	1	4.428747	-50.27038	-2.162096E-005	0.0007021	10
	24	75	1193.986	2.989151	-4.231995	1	5.181197	-54.7656	2.268026E-005	0.00063	10
	25	77	946.5144	3.189179	-5.222129	1	6.118945	-58.58739	2.146923E-005	0.0006517	10
	26	80	751.7689	3.450429	-6.411905	1	7.281345	-61.71404	-1.534837E-005	0.0006482	10
	27	82	597.4265	3.786219	-7.86328	1	8.727349	-64.28889	-2.398729E-005	0.0006591	10
	28	84	477.4305	4.21061	-9.56789	1	10.45341	-66.2468	-5.608476E-007	0.0006578	10
	29	86	376.6741	4.784394	-11.74882	1	12.68563	-67.8427	-9.662369E-007	0.0006533	10
	30	89	298.2954	5.504928	-14.34241	1	15.36259	-69.00212	-3.473719E-007	0.0006545	10
	31	91	237.7717	6.383499	-17.36286	1	18.49913	-69.81392	-2.108118E-007	0.0006496	10
	32	94	189.0121	7.48212	-21.01344	1	22.30576	-70.40105	-6.370501E-007	0.0006539	10
	33	96	150.2404	8.816294	-25.36771	1	26.85606	-70.83562	-8.951686E-007	0.0006507	10
	34	98	119.1737	10.42856	-30.62192	1	32.34898	-71.19328	-3.116206E-007	0.0006551	10
	35	101	95.0169	12.27146	-36.74807	1	38.74286	-71.53404	-5.217323E-008	0.0006546	10
	36	103	75.60484	14.3875	-44.10947	1	46.39661	-71.93485	1.970931E-006	5.322064E-005	9
	37	106	54.50582	17.93427	-57.45476	1	60.18877	-72.66446	1.899999E-006	4.541611E-005	9
	38	108	45.95588	20.05486	-66.07833	1	69.05464	-73.11689	2.327235E-006	5.644741E-005	9
	39	111	37.20238	22.94487	-78.69511	1	81.97186	-73.74508	2.140702E-006	5.946833E-005	9
	40	113	30.04808	26.25604	-94.16052	1	97.7527	-74.41922	1.610442E-006	0.0001058	9
	41	115	23.91582	30.32921	-114.3385	1	118.2926	-75.14395	1.986243E-006	4.891604E-005	9
	42	118	18.60119	35.8386	-142.1649	1	146.6127	-75.85101	2.4109E-006	6.311106E-005	9
	43	120	15.02404	41.51196	-171.3559	1	176.3124	-76.38212	2.190474E-006	5.101485E-005	9
	44	122	12.01923	48.96387	-208.5883	1	214.2581	-76.78961	2.495918E-006	5.231701E-005	9
	45	125	9.450605	59.11146	-258.0445	1	264.7284	-77.0976	2.326727E-006	5.278914E-005	9
	46	127	7.512019	71.73981	-316.5284	1	324.5564	-77.2299	2.438101E-006	4.86912E-005	9
	47	130	5.978954	87.99275	-387.6515	1	397.5128	-77.21117	2.454249E-006	5.699807E-005	9
	48	133	4.734848	109.8631	-475.2939	1	487.826	-76.98479	1.916999E-006	0.0006343	8
	49	136	3.75601	139.2997	-582.731	1	599.1492	-76.55595	1.757869E-006	0.0006222	8
	50	140	3.004808	177.6932	-707.978	1	729.9368	-75.91055	1.86057E-006	0.0006565	8
	51	143	2.372217	231.8654	-867.393	1	897.8486	-75.03402	1.84335E-006	0.0005833	8
	52	148	1.878005	307.3499	-1056.968	1	1100.748	-73.78638	1.83226E-006	0.0006375	8
	53	152	1.512097	398.4369	-1264.568	1	1325.852	-72.51154	1.828223E-006	0.0005155	8
	54	158	1.201923	526.2755	-1521.755	1	1610.188	-70.92284	1.811396E-006	0.0006411	8
	55	164	0.956633	692.463	-1816.131	1	1943.666	-69.12891	1.774799E-006	-1.193174E-005	8
