EXPLAIN
TAG	EISPOT
TITLE	LABEL	Potentiostatic EIS	Test Identifier
DATE	LABEL	9/12/2020	Date
TIME	LABEL	23:36:33	Time
NOTES	NOTES	1	Notes...
	
PSTAT	PSTAT	REF3000-16137	Potentiostat
VDC	POTEN	0.00000E+000	T	DC Voltage (V)
FREQINIT	QUANT	3.00000E+005	Initial Freq. (Hz)
FREQFINAL	QUANT	1.00000E+000	Final Freq. (Hz)
PTSPERDEC	QUANT	1.00000E+001	Points/decade
VAC	QUANT	5.00000E+001	AC Voltage (mV rms)
AREA	QUANT	1.00000E+000	Sample Area (cm^2)
SPEED	SELECTOR	2	Optimize for:
ZGUESS	QUANT	1.00000E+003	Estimated Z (ohms)
EOC	QUANT	0	Open Circuit (V)
SEQUENCER	TOGGLE	TRUE	Run as Sequence
PSTATMODEL	IQUANT	5	Pstat Model
PSTATSECTION	LABEL	REF3000-16137	Pstat Section
PSTATSERIALNO	LABEL	16137	Pstat Serial Number
CTRLMODE	IQUANT	1	Control Mode
IESTAB	IQUANT	0	I/E Stability
CASPEED	IQUANT	1	Control Amp Speed
CONVENTION	IQUANT	1	Current Convention
ICHRANGE	IQUANT	2	Ich Range
ICHRANGEMODE	TOGGLE	F	Ich Auto Range
ICHOFFSETENABLE	TOGGLE	T	Ich Offset Enable
ICHOFFSET	QUANT	0	Ich Offset (V)
ICHFILTER	IQUANT	3	Ich Filter
VCHRANGE	IQUANT	2	Vch Range
VCHRANGEMODE	TOGGLE	F	Vch Auto Range
VCHOFFSETENABLE	TOGGLE	T	Vch Offset Enable
VCHOFFSET	QUANT	0	Vch Offset (V)
VCHFILTER	IQUANT	3	Vch Filter
ACHRANGE	IQUANT	2	Ach Range
ACHOFFSETENABLE	TOGGLE	F	Ach Offset Enable
ACHOFFSET	QUANT	0	Ach Offset (V)
ACHFILTER	IQUANT	3	Ach Filter
IERANGELOWERLIMIT	IQUANT	2	I/E Range Lower Limit
IERANGEMODE	TOGGLE	F	I/E AutoRange
IERANGE	IQUANT	11	I/E Range
POSFEEDENABLE	TOGGLE	F	Positive Feedback IR Comp
POSFEEDRESISTANCE	QUANT	0	Positive Feedback Resistance (ohm)
ACHSELECT	IQUANT	0	Ach Select
CABLEID	IQUANT	13	Cable ID
DCCALDATE	LABEL	7/31/2020	DC Calibration Date
ACCALDATE	LABEL	7/31/2020	AC Calibration Date
THERMOSELECT	IQUANT	1	Thermo Select
FRAMEWORKVERSION	QUANT	6.33	Framework Version
INSTRUMENTVERSION	LABEL	3.50	Instrument Version
COMPLIANCEVOLTAGE	IQUANT	0	Compliance Voltage
ZCURVE	TABLE
	Pt	Time	Freq	Zreal	Zimag	Zsig	Zmod	Zphz	Idc	Vdc	IERange
	#	s	Hz	ohm	ohm	V	ohm	°	A	V	#
	0	15	300046.9	1766.552	-2084.195	1	2732.137	-49.71558	8.986726E-005	-0.0028159	9
	1	36	238359.4	2190.717	-2308.081	1	3182.213	-46.49439	8.376959E-005	-0.0034652	9
	2	56	189328.1	2675.73	-2472.031	1	3642.865	-42.73396	2.672822E-005	-0.0014915	9
	3	69	150421.9	3173.426	-2590.406	1	4096.441	-39.2241	1.781564E-005	-0.0020472	9
	4	77	119484.4	3871.93	-2346.583	1	4527.504	-31.21796	2.675592E-005	0.0067446	8
	5	84	94921.88	4375.642	-2265.933	1	4927.544	-27.37746	-9.683484E-007	0.0070713	8
	6	92	75421.88	4865.497	-2136.506	1	5313.917	-23.70693	-1.026016E-006	0.0070558	8
	7	99	59859.37	5346.573	-1999.682	1	5708.29	-20.50639	-2.007647E-005	0.0030323	8
	8	106	47578.12	5770.941	-1793.053	1	6043.079	-17.26021	-1.998587E-005	0.0030212	8
	9	114	37828.12	6157.852	-1623.994	1	6368.398	-14.77407	-2.521191E-005	0.0074761	8
	10	121	30046.88	6521.552	-1475.368	1	6686.355	-12.74742	2.627486E-005	-0.0073535	8
	11	129	23859.38	6839.711	-1291.233	1	6960.526	-10.69075	-2.55655E-005	0.0094729	8
	12	134	18984.38	7126.021	-1076.094	1	7206.813	-8.587302	-1.782325E-005	0.0106519	8
	13	140	15046.87	7372.656	-952.477	1	7433.927	-7.361297	-2.313594E-005	0.010557	8
	14	145	11953.13	7581.286	-777.0082	1	7621	-5.851829	2.642254E-005	-0.0072667	8
	15	151	9515.62	7819.234	-703.7221	1	7850.837	-5.1427	2.441333E-005	-0.0085944	8
	16	157	7546.875	8035.021	-611.3674	1	8058.247	-4.351128	-2.32082E-005	0.0106332	8
	17	163	5928.309	8333.857	-498.5531	1	8348.757	-3.423503	2.628623E-005	-0.0073171	8
	18	170	4733.456	8576.296	-398.0671	1	8585.529	-2.657465	-2.693753E-005	0.0009102	9
	19	176	3796.875	8846.832	-397.7317	1	8855.768	-2.574143	2.11635E-005	-0.0093258	8
	20	183	2987.132	9122.993	-417.0048	1	9132.519	-2.617123	-2.328959E-005	0.0004467	9
	21	189	2390.625	9434.067	-271.0811	1	9437.961	-1.6459	2.84856E-005	-0.0004474	9
	22	196	1884.191	9488.359	-147.971	1	9489.513	-0.8934553	6.988788E-006	-0.007236	8
	23	202	1516.544	9925.06	-154.7195	1	9926.27	-0.8930982	-3.603295E-006	0.0230309	7
	24	206	1193.986	10091.32	-140.7023	1	10092.3	-0.7988173	6.869397E-006	-0.0212272	7
	25	211	946.5144	10233.72	-57.06015	1	10233.88	-0.3194608	-2.743577E-006	-0.0056261	7
	26	214	751.7689	10370.04	-120.6428	1	10370.74	-0.6665368	-5.931262E-006	0.0228397	7
	27	216	597.4265	10602.59	-150.2164	1	10603.65	-0.8117065	-2.812598E-006	-0.0053339	7
	28	219	477.4305	10614.94	-88.60404	1	10615.31	-0.4782428	-9.707851E-008	0.0005878	7
	29	221	376.6741	10728.12	-84.5746	1	10728.45	-0.4516792	-8.418741E-008	0.0005868	7
	30	223	298.2954	10843.83	-84.97578	1	10844.16	-0.4489793	-9.023886E-008	0.0005646	7
	31	226	237.7717	10962.12	-89.10711	1	10962.48	-0.4657266	-9.673046E-008	0.0006313	7
	32	228	189.0121	11084.92	-96.0423	1	11085.34	-0.4964113	-8.569267E-008	0.0005607	7
	33	230	150.2404	11208.16	-108.0715	1	11208.68	-0.5524412	-1.002811E-007	0.0006322	7
	34	233	119.1737	11337.11	-122.0151	1	11337.77	-0.6166189	-9.935822E-008	0.0005772	7
	35	235	95.0169	11462.2	-143.6239	1	11463.1	-0.7178913	-9.437375E-008	0.0005772	7
	36	238	75.60484	11596.65	-170.925	1	11597.91	-0.8444309	-1.039769E-007	0.0006211	7
	37	240	54.50582	11738.72	-219.956	1	11740.78	-1.073462	-7.119409E-008	0.0005656	7
	38	243	45.95588	11876.37	-256.2925	1	11879.13	-1.236254	-1.244074E-007	0.0005923	7
	39	245	37.20238	12001.65	-310.804	1	12005.67	-1.483444	-1.393128E-007	0.0006297	7
	40	248	30.04808	12148.28	-373.6162	1	12154.02	-1.761557	-1.040052E-007	0.0005781	7
	41	250	23.91582	12284.44	-452.8318	1	12292.79	-2.111093	-1.291693E-007	0.0006336	7
	42	252	18.60119	12434.78	-588.7953	1	12448.71	-2.71097	-2.783348E-009	0.00056	7
	43	255	15.02404	12571.14	-685.1904	1	12589.8	-3.119821	-1.35231E-007	0.000567	7
	44	257	12.01923	12731.59	-848.0238	1	12759.8	-3.810719	-8.977876E-008	0.0005629	7
	45	259	9.450605	12887.45	-1063.07	1	12931.22	-4.715583	-4.045949E-008	0.0005986	7
	46	262	7.512019	13079.72	-1324.592	1	13146.62	-5.782665	-5.556004E-008	0.0006552	7
	47	265	5.978954	13269.68	-1616.707	1	13367.8	-6.946376	-1.356647E-007	0.0006051	7
	48	268	4.734848	13532.9	-2006.214	1	13680.79	-8.432523	-9.108869E-008	0.0005677	7
	49	271	3.75601	13822.53	-2485.565	1	14044.23	-10.19397	-9.482875E-008	0.0006538	7
	50	274	3.004808	14129.54	-3089.217	1	14463.3	-12.33282	-3.515744E-008	0.0005346	7
	51	278	2.372217	14483.58	-3781.182	1	14969.02	-14.63145	-8.833037E-008	0.0005246	7
	52	282	1.878005	14916.46	-4726.561	1	15647.4	-17.58178	-6.602001E-008	0.0006006	7
	53	287	1.512097	15425.3	-5764.454	1	16467.2	-20.49078	-6.783445E-008	0.0005773	7
	54	292	1.201923	16023.18	-7113.783	1	17531.35	-23.9397	-7.86132E-008	0.0006246	7
	55	301	0.956633	16914.32	-8788.299	1	19061.17	-27.45538	-1.0339E-007	-3.756603E-005	7
