EXPLAIN
TAG	EISPOT
TITLE	LABEL	Potentiostatic EIS	Test Identifier
DATE	LABEL	9/12/2020	Date
TIME	LABEL	22:09:29	Time
NOTES	NOTES	1	Notes...
	
PSTAT	PSTAT	REF3000-16137	Potentiostat
VDC	POTEN	0.00000E+000	T	DC Voltage (V)
FREQINIT	QUANT	3.00000E+005	Initial Freq. (Hz)
FREQFINAL	QUANT	1.00000E+000	Final Freq. (Hz)
PTSPERDEC	QUANT	1.00000E+001	Points/decade
VAC	QUANT	5.00000E+001	AC Voltage (mV rms)
AREA	QUANT	1.00000E+000	Sample Area (cm^2)
SPEED	SELECTOR	2	Optimize for:
ZGUESS	QUANT	1.00000E+003	Estimated Z (ohms)
EOC	QUANT	0	Open Circuit (V)
SEQUENCER	TOGGLE	TRUE	Run as Sequence
PSTATMODEL	IQUANT	5	Pstat Model
PSTATSECTION	LABEL	REF3000-16137	Pstat Section
PSTATSERIALNO	LABEL	16137	Pstat Serial Number
CTRLMODE	IQUANT	1	Control Mode
IESTAB	IQUANT	0	I/E Stability
CASPEED	IQUANT	1	Control Amp Speed
CONVENTION	IQUANT	1	Current Convention
ICHRANGE	IQUANT	2	Ich Range
ICHRANGEMODE	TOGGLE	F	Ich Auto Range
ICHOFFSETENABLE	TOGGLE	T	Ich Offset Enable
ICHOFFSET	QUANT	0	Ich Offset (V)
ICHFILTER	IQUANT	3	Ich Filter
VCHRANGE	IQUANT	2	Vch Range
VCHRANGEMODE	TOGGLE	F	Vch Auto Range
VCHOFFSETENABLE	TOGGLE	T	Vch Offset Enable
VCHOFFSET	QUANT	0	Vch Offset (V)
VCHFILTER	IQUANT	3	Vch Filter
ACHRANGE	IQUANT	2	Ach Range
ACHOFFSETENABLE	TOGGLE	F	Ach Offset Enable
ACHOFFSET	QUANT	0	Ach Offset (V)
ACHFILTER	IQUANT	3	Ach Filter
IERANGELOWERLIMIT	IQUANT	2	I/E Range Lower Limit
IERANGEMODE	TOGGLE	F	I/E AutoRange
IERANGE	IQUANT	11	I/E Range
POSFEEDENABLE	TOGGLE	F	Positive Feedback IR Comp
POSFEEDRESISTANCE	QUANT	0	Positive Feedback Resistance (ohm)
ACHSELECT	IQUANT	0	Ach Select
CABLEID	IQUANT	13	Cable ID
DCCALDATE	LABEL	7/31/2020	DC Calibration Date
ACCALDATE	LABEL	7/31/2020	AC Calibration Date
THERMOSELECT	IQUANT	1	Thermo Select
FRAMEWORKVERSION	QUANT	6.33	Framework Version
INSTRUMENTVERSION	LABEL	3.50	Instrument Version
COMPLIANCEVOLTAGE	IQUANT	0	Compliance Voltage
ZCURVE	TABLE
	Pt	Time	Freq	Zreal	Zimag	Zsig	Zmod	Zphz	Idc	Vdc	IERange
	#	s	Hz	ohm	ohm	V	ohm	°	A	V	#
	0	10	300046.9	2.506488	2.238282	1	3.360415	41.76471	-5.128698E-005	-0.0002705	11
	1	14	238359.4	2.47725	1.773302	1	3.046534	35.5964	1.594766E-005	-0.0001184	11
	2	17	189328.1	2.446711	1.405351	1	2.821596	29.87235	-0.0001034	-8.108201E-005	11
	3	19	150421.9	2.474171	0.968291	1	2.656898	21.37338	-0.0000956	0.0002917	12
	4	23	119484.4	2.418012	0.8554602	1	2.564877	19.4831	3.298531E-005	0.0005946	11
	5	27	94921.88	2.432102	0.5726206	1	2.498602	13.24859	-4.281631E-005	0.0004672	12
	6	30	75421.88	2.422914	0.4208913	1	2.459199	9.85467	-2.319296E-005	0.0005139	12
	7	34	59859.37	2.420235	0.2926871	1	2.437869	6.895484	-6.882211E-005	0.000546	12
	8	38	47578.12	2.420463	0.1804831	1	2.427182	4.264398	-3.438324E-005	0.0005664	12
	9	41	37828.12	2.422068	0.1139955	1	2.424749	2.694657	2.029497E-005	0.0006412	11
	10	44	30046.88	2.429211	0.0116291	1	2.429239	0.2742836	-2.665976E-005	0.0006527	11
	11	46	23859.38	2.436899	-0.0892429	1	2.438533	-2.09732	-3.010085E-005	0.0006988	11
	12	49	18984.38	2.445655	-0.192404	1	2.453212	-4.498294	2.327055E-005	0.0007002	11
	13	51	15046.87	2.457584	-0.3047579	1	2.476408	-7.068997	-1.010328E-005	0.0006765	11
	14	53	11953.13	2.471782	-0.4291582	1	2.508762	-9.84967	3.572954E-006	0.0006719	11
	15	56	9515.62	2.490033	-0.5710525	1	2.554676	-12.91659	-2.17062E-005	0.0007413	11
	16	58	7546.875	2.51197	-0.7409731	1	2.618975	-16.43484	-1.655815E-005	0.0006533	11
	17	60	5928.309	2.541744	-0.952424	1	2.714328	-20.54162	4.387799E-006	0.0006724	11
	18	63	4733.456	2.576211	-1.191354	1	2.838343	-24.81791	8.896755E-006	0.000676	11
	19	65	3796.875	2.619231	-1.474523	1	3.005759	-29.37779	1.413547E-005	0.0006912	11
	20	67	2987.132	2.678105	-1.849827	1	3.254859	-34.63371	-2.352637E-005	0.0006719	11
	21	69	2390.625	2.748304	-2.276312	1	3.568581	-39.63362	-1.151948E-005	0.0006769	11
	22	72	1884.191	2.845049	-2.840187	1	4.02007	-44.951	-2.232244E-005	0.0007114	10
	23	74	1516.544	2.955949	-3.465581	1	4.554985	-49.53766	2.231455E-005	0.0006322	10
	24	76	1193.986	3.11369	-4.308987	1	5.316243	-54.14799	7.051756E-006	0.0006463	10
	25	79	946.5144	3.313276	-5.318574	1	6.266181	-58.07862	-5.429368E-006	0.0006222	10
	26	81	751.7689	3.576387	-6.536454	1	7.450891	-61.31496	1.811245E-005	0.0006215	10
	27	84	597.4265	3.911308	-8.017942	1	8.921083	-63.99598	-1.975013E-006	0.0006238	10
	28	86	477.4305	4.333614	-9.76922	1	10.68728	-66.078	-4.094977E-008	0.0006606	10
	29	88	376.6741	4.909555	-12.00851	1	12.97336	-67.76331	2.029324E-007	0.0006527	10
	30	90	298.2954	5.636398	-14.67487	1	15.72007	-68.98896	3.19406E-008	0.0006586	10
	31	93	237.7717	6.528212	-17.78398	1	18.94433	-69.84263	-9.105426E-007	0.0006515	10
	32	95	189.0121	7.649381	-21.54578	1	22.86337	-70.45365	-6.42919E-007	0.0006488	10
	33	98	150.2404	9.020345	-26.03043	1	27.54904	-70.88722	-1.458916E-006	0.000656	10
	34	100	119.1737	10.68831	-31.44059	1	33.20769	-71.2244	-9.489696E-007	0.0006564	10
	35	102	95.0169	12.60513	-37.7441	1	39.7933	-71.53259	-5.002477E-007	0.0006541	10
	36	105	75.60484	14.82118	-45.30102	1	47.66393	-71.8834	1.808605E-006	5.378315E-005	9
	37	107	54.50582	18.54762	-58.95736	1	61.80602	-72.53675	1.725506E-006	4.810123E-005	9
	38	110	45.95588	20.76499	-67.76022	1	70.87054	-72.96242	2.048895E-006	5.376734E-005	9
	39	112	37.20238	23.78596	-80.62046	1	84.05611	-73.56203	2.030753E-006	5.09235E-005	9
	40	115	30.04808	27.20642	-96.3394	1	100.1073	-74.23022	1.885029E-006	4.50905E-005	9
	41	117	23.91582	31.4854	-117.0011	1	121.1635	-74.93832	1.816571E-006	5.044702E-005	9
	42	119	18.60119	36.98316	-145.2004	1	149.8363	-75.71036	2.196072E-006	5.09236E-005	9
	43	122	15.02404	42.75487	-174.8588	1	180.01	-76.26015	2.145684E-006	4.88144E-005	9
	44	124	12.01923	50.10992	-212.7496	1	218.5713	-76.74642	1.905862E-006	5.209578E-005	9
	45	126	9.450605	60.18454	-263.2936	1	270.0847	-77.12435	2.10194E-006	6.51712E-005	9
	46	129	7.512019	72.3375	-322.9312	1	330.9339	-77.37401	2.212592E-006	6.940638E-005	9
	47	132	5.978954	88.22185	-395.5115	1	405.2313	-77.42559	2.143827E-006	6.103506E-005	9
	48	135	4.734848	109.4445	-484.8284	1	497.0278	-77.27934	1.555004E-006	0.0006172	8
	49	138	3.75601	137.5493	-595.5043	1	611.1834	-76.99394	1.528039E-006	0.0006318	8
	50	141	3.004808	173.8567	-724.5264	1	745.0937	-76.50648	1.639493E-006	0.0005925	8
	51	145	2.372217	225.1946	-889.699	1	917.7565	-75.796	1.576198E-006	0.0005788	8
	52	149	1.878005	296.7797	-1087.169	1	1126.949	-74.73119	1.570926E-006	0.0006297	8
	53	154	1.512097	383.9339	-1304.146	1	1359.485	-73.59584	1.559149E-006	0.0005278	8
	54	159	1.201923	505.3375	-1576.836	1	1655.832	-72.23061	1.540803E-006	0.0007085	8
	55	166	0.956633	665.3976	-1892.441	1	2006.012	-70.62791	1.518774E-006	-1.583925E-005	8
