EXPLAIN
TAG	EISPOT
TITLE	LABEL	Potentiostatic EIS	Test Identifier
DATE	LABEL	9/12/2020	Date
TIME	LABEL	21:55:10	Time
NOTES	NOTES	1	Notes...
	
PSTAT	PSTAT	REF3000-16137	Potentiostat
VDC	POTEN	0.00000E+000	T	DC Voltage (V)
FREQINIT	QUANT	3.00000E+005	Initial Freq. (Hz)
FREQFINAL	QUANT	1.00000E+000	Final Freq. (Hz)
PTSPERDEC	QUANT	1.00000E+001	Points/decade
VAC	QUANT	5.00000E+001	AC Voltage (mV rms)
AREA	QUANT	1.00000E+000	Sample Area (cm^2)
SPEED	SELECTOR	2	Optimize for:
ZGUESS	QUANT	1.00000E+003	Estimated Z (ohms)
EOC	QUANT	0	Open Circuit (V)
SEQUENCER	TOGGLE	TRUE	Run as Sequence
PSTATMODEL	IQUANT	5	Pstat Model
PSTATSECTION	LABEL	REF3000-16137	Pstat Section
PSTATSERIALNO	LABEL	16137	Pstat Serial Number
CTRLMODE	IQUANT	1	Control Mode
IESTAB	IQUANT	0	I/E Stability
CASPEED	IQUANT	1	Control Amp Speed
CONVENTION	IQUANT	1	Current Convention
ICHRANGE	IQUANT	2	Ich Range
ICHRANGEMODE	TOGGLE	F	Ich Auto Range
ICHOFFSETENABLE	TOGGLE	T	Ich Offset Enable
ICHOFFSET	QUANT	0	Ich Offset (V)
ICHFILTER	IQUANT	3	Ich Filter
VCHRANGE	IQUANT	2	Vch Range
VCHRANGEMODE	TOGGLE	F	Vch Auto Range
VCHOFFSETENABLE	TOGGLE	T	Vch Offset Enable
VCHOFFSET	QUANT	0	Vch Offset (V)
VCHFILTER	IQUANT	3	Vch Filter
ACHRANGE	IQUANT	2	Ach Range
ACHOFFSETENABLE	TOGGLE	F	Ach Offset Enable
ACHOFFSET	QUANT	0	Ach Offset (V)
ACHFILTER	IQUANT	3	Ach Filter
IERANGELOWERLIMIT	IQUANT	2	I/E Range Lower Limit
IERANGEMODE	TOGGLE	F	I/E AutoRange
IERANGE	IQUANT	11	I/E Range
POSFEEDENABLE	TOGGLE	F	Positive Feedback IR Comp
POSFEEDRESISTANCE	QUANT	0	Positive Feedback Resistance (ohm)
ACHSELECT	IQUANT	0	Ach Select
CABLEID	IQUANT	13	Cable ID
DCCALDATE	LABEL	7/31/2020	DC Calibration Date
ACCALDATE	LABEL	7/31/2020	AC Calibration Date
THERMOSELECT	IQUANT	1	Thermo Select
FRAMEWORKVERSION	QUANT	6.33	Framework Version
INSTRUMENTVERSION	LABEL	3.50	Instrument Version
COMPLIANCEVOLTAGE	IQUANT	0	Compliance Voltage
ZCURVE	TABLE
	Pt	Time	Freq	Zreal	Zimag	Zsig	Zmod	Zphz	Idc	Vdc	IERange
	#	s	Hz	ohm	ohm	V	ohm	°	A	V	#
	0	10	300046.9	2.110458	2.241878	1	3.078969	46.72953	1.343978E-005	-0.000293	11
	1	13	238359.4	2.055741	1.78264	1	2.721007	40.93026	6.397336E-005	-0.0001775	11
	2	16	189328.1	2.11556	1.269115	1	2.467032	30.95936	-9.27738E-005	-4.592535E-005	12
	3	20	150421.9	2.06216	0.999451	1	2.291595	25.85773	-9.231795E-005	0.0002811	12
	4	23	119484.4	2.004394	0.8658866	1	2.183427	23.36406	-7.684029E-006	0.0004034	11
	5	26	94921.88	1.996215	0.6638024	1	2.103689	18.39354	1.922366E-005	0.0004628	11
	6	29	75421.88	1.992054	0.4978548	1	2.053324	14.03195	-4.4892E-005	0.0004643	11
	7	31	59859.37	1.992108	0.355891	1	2.023649	10.12906	2.494999E-005	0.0005661	11
	8	34	47578.12	1.993605	0.235964	1	2.00752	6.750152	-6.567106E-006	0.0005764	11
	9	36	37828.12	1.99692	0.1286227	1	2.001058	3.685361	-1.173865E-005	0.0006238	11
	10	39	30046.88	2.000972	0.0284671	1	2.001174	0.8150707	1.948168E-005	0.0006641	11
	11	41	23859.38	2.007271	-0.0688638	1	2.008451	-1.964887	2.306313E-005	0.0006681	11
	12	43	18984.38	2.015324	-0.1668907	1	2.022223	-4.73391	1.922753E-005	0.0006788	11
	13	46	15046.87	2.025984	-0.2731355	1	2.044312	-7.678105	-2.464397E-005	0.0006743	11
	14	48	11953.13	2.03897	-0.3899143	1	2.075917	-10.82603	-1.526201E-005	0.0006829	11
	15	50	9515.62	2.055315	-0.521809	1	2.120519	-14.24543	8.38141E-007	0.0006761	11
	16	53	7546.875	2.076147	-0.6792945	1	2.184451	-18.11758	-1.825975E-006	0.0006652	11
	17	55	5928.309	2.104316	-0.8746461	1	2.278849	-22.56992	3.790738E-006	0.000671	11
	18	57	4733.456	2.13742	-1.094796	1	2.401488	-27.12173	8.555938E-006	0.0006731	11
	19	60	3796.875	2.179539	-1.354196	1	2.565977	-31.85361	1.518611E-005	0.0006817	11
	20	62	2987.132	2.23671	-1.699311	1	2.809009	-37.22528	1.701329E-005	0.0006848	11
	21	64	2390.625	2.305104	-2.091505	1	3.112539	-42.21861	2.754841E-005	0.000705	11
	22	67	1884.191	2.400702	-2.600978	1	3.539556	-47.293	2.618526E-005	0.0007027	11
	23	69	1516.544	2.515712	-3.171548	1	4.048151	-51.57811	-2.200532E-005	0.0006608	10
	24	71	1193.986	2.676045	-3.933793	1	4.757725	-55.77368	-2.070815E-005	0.0006629	10
	25	74	946.5144	2.880657	-4.835379	1	5.628417	-59.2158	2.129894E-005	0.0006372	10
	26	76	751.7689	3.139264	-5.927302	1	6.707301	-62.09306	-2.046427E-005	0.0006729	10
	27	78	597.4265	3.477134	-7.242197	1	8.033671	-64.35333	2.479388E-005	0.0006405	10
	28	81	477.4305	3.891045	-8.784101	1	9.60732	-66.10836	-2.681361E-006	0.0007078	10
	29	83	376.6741	4.445353	-10.74495	1	11.6282	-67.52435	1.398155E-006	0.0006531	10
	30	85	298.2954	5.128837	-13.06643	1	14.03698	-68.569	-2.092009E-006	0.0007092	10
	31	88	237.7717	5.944389	-15.7622	1	16.84585	-69.33706	1.502219E-006	0.0006559	10
	32	90	189.0121	6.942315	-19.01656	1	20.24414	-69.94453	1.490756E-006	0.0006518	10
	33	92	150.2404	8.12582	-22.90175	1	24.3006	-70.46469	1.08646E-006	0.0006559	10
	34	95	119.1737	9.5252	-27.60552	1	29.20264	-70.96315	1.04765E-006	0.0006577	10
	35	97	95.0169	11.09202	-33.12722	1	34.93488	-71.48785	6.929142E-007	0.0006944	10
	36	100	75.60484	12.87336	-39.81815	1	41.84745	-72.08378	3.622201E-006	5.284548E-005	9
	37	102	54.50582	15.86342	-52.07183	1	54.43458	-73.05691	3.600063E-006	4.405846E-005	9
	38	105	45.95588	17.66419	-60.03497	1	62.57972	-73.60445	3.994289E-006	5.9322E-005	9
	39	107	37.20238	20.18448	-71.75641	1	74.54123	-74.28915	3.964386E-006	5.104104E-005	9
	40	109	30.04808	23.16569	-86.13557	1	89.19633	-74.9468	3.807008E-006	5.377517E-005	9
	41	112	23.91582	27.03049	-105.0541	1	108.4758	-75.57074	3.69923E-006	5.202525E-005	9
	42	114	18.60119	32.30553	-130.817	1	134.7469	-76.12823	3.882263E-006	5.748593E-005	9
	43	117	15.02404	38.02509	-157.9845	1	162.4962	-76.46696	4.40696E-006	6.562385E-005	9
	44	119	12.01923	45.67687	-192.4107	1	197.758	-76.64561	3.872499E-006	4.604096E-005	9
	45	121	9.450605	56.64458	-238.3472	1	244.9857	-76.63133	4.234284E-006	5.296483E-005	9
	46	124	7.512019	70.37925	-291.8793	1	300.2445	-76.44337	4.304356E-006	6.57281E-005	9
	47	127	5.978954	89.00935	-356.6838	1	367.6221	-75.98819	4.134567E-006	6.088737E-005	9
	48	130	4.734848	114.3552	-435.5126	1	450.2758	-75.28762	3.744252E-006	0.0006542	8
	49	133	3.75601	149.3161	-530.7722	1	551.3751	-74.28772	3.492845E-006	0.0006142	8
	50	136	3.004808	194.5383	-639.8858	1	668.8041	-73.08966	3.645031E-006	0.0006236	8
	51	140	2.372217	259.3848	-775.1271	1	817.3754	-71.49795	3.602915E-006	0.0006181	8
	52	144	1.878005	347.3701	-931.8319	1	994.473	-69.55545	3.562837E-006	0.0006355	8
	53	149	1.512097	451.4158	-1097.432	1	1186.647	-67.64075	3.584897E-006	0.0005292	8
	54	154	1.201923	596.2348	-1292.169	1	1423.094	-65.23038	3.526266E-006	0.0006363	8
	55	161	0.956633	777.2559	-1504.112	1	1693.068	-62.67216	3.412164E-006	-8.06399E-006	8
