EXPLAIN
TAG	EISPOT
TITLE	LABEL	Potentiostatic EIS	Test Identifier
DATE	LABEL	9/12/2020	Date
TIME	LABEL	22:00:52	Time
NOTES	NOTES	1	Notes...
	
PSTAT	PSTAT	REF3000-16137	Potentiostat
VDC	POTEN	0.00000E+000	T	DC Voltage (V)
FREQINIT	QUANT	3.00000E+005	Initial Freq. (Hz)
FREQFINAL	QUANT	1.00000E+000	Final Freq. (Hz)
PTSPERDEC	QUANT	1.00000E+001	Points/decade
VAC	QUANT	5.00000E+001	AC Voltage (mV rms)
AREA	QUANT	1.00000E+000	Sample Area (cm^2)
SPEED	SELECTOR	2	Optimize for:
ZGUESS	QUANT	1.00000E+003	Estimated Z (ohms)
EOC	QUANT	0	Open Circuit (V)
SEQUENCER	TOGGLE	TRUE	Run as Sequence
PSTATMODEL	IQUANT	5	Pstat Model
PSTATSECTION	LABEL	REF3000-16137	Pstat Section
PSTATSERIALNO	LABEL	16137	Pstat Serial Number
CTRLMODE	IQUANT	1	Control Mode
IESTAB	IQUANT	0	I/E Stability
CASPEED	IQUANT	1	Control Amp Speed
CONVENTION	IQUANT	1	Current Convention
ICHRANGE	IQUANT	2	Ich Range
ICHRANGEMODE	TOGGLE	F	Ich Auto Range
ICHOFFSETENABLE	TOGGLE	T	Ich Offset Enable
ICHOFFSET	QUANT	0	Ich Offset (V)
ICHFILTER	IQUANT	3	Ich Filter
VCHRANGE	IQUANT	2	Vch Range
VCHRANGEMODE	TOGGLE	F	Vch Auto Range
VCHOFFSETENABLE	TOGGLE	T	Vch Offset Enable
VCHOFFSET	QUANT	0	Vch Offset (V)
VCHFILTER	IQUANT	3	Vch Filter
ACHRANGE	IQUANT	2	Ach Range
ACHOFFSETENABLE	TOGGLE	F	Ach Offset Enable
ACHOFFSET	QUANT	0	Ach Offset (V)
ACHFILTER	IQUANT	3	Ach Filter
IERANGELOWERLIMIT	IQUANT	2	I/E Range Lower Limit
IERANGEMODE	TOGGLE	F	I/E AutoRange
IERANGE	IQUANT	11	I/E Range
POSFEEDENABLE	TOGGLE	F	Positive Feedback IR Comp
POSFEEDRESISTANCE	QUANT	0	Positive Feedback Resistance (ohm)
ACHSELECT	IQUANT	0	Ach Select
CABLEID	IQUANT	13	Cable ID
DCCALDATE	LABEL	7/31/2020	DC Calibration Date
ACCALDATE	LABEL	7/31/2020	AC Calibration Date
THERMOSELECT	IQUANT	1	Thermo Select
FRAMEWORKVERSION	QUANT	6.33	Framework Version
INSTRUMENTVERSION	LABEL	3.50	Instrument Version
COMPLIANCEVOLTAGE	IQUANT	0	Compliance Voltage
ZCURVE	TABLE
	Pt	Time	Freq	Zreal	Zimag	Zsig	Zmod	Zphz	Idc	Vdc	IERange
	#	s	Hz	ohm	ohm	V	ohm	°	A	V	#
	0	10	300046.9	2.242846	2.233684	1	3.165391	44.88274	7.84429E-005	-0.00034	11
	1	14	238359.4	2.195238	1.786878	1	2.830548	39.14488	-0.0001197	-0.0003569	11
	2	17	189328.1	2.246233	1.25575	1	2.573416	29.20724	-3.706975E-005	5.035815E-005	12
	3	20	150421.9	2.197012	0.992171	1	2.410656	24.30394	1.873654E-006	0.0003093	12
	4	24	119484.4	2.168497	0.7703019	1	2.301248	19.55625	-6.467323E-005	0.000417	12
	5	28	94921.88	2.128947	0.6615832	1	2.229374	17.26295	-4.475983E-005	0.0004531	11
	6	30	75421.88	2.127024	0.4945973	1	2.183771	13.09037	-4.808714E-005	0.0004809	11
	7	33	59859.37	2.127408	0.3521422	1	2.156355	9.398746	2.177428E-005	0.0005743	11
	8	35	47578.12	2.129028	0.2314365	1	2.14157	6.203991	2.456315E-005	0.0006216	11
	9	38	37828.12	2.132469	0.1232454	1	2.136027	3.307711	-2.408546E-005	0.0006206	11
	10	40	30046.88	2.136605	0.0218467	1	2.136716	0.5858278	-1.746119E-005	0.0006262	11
	11	43	23859.38	2.142377	-0.0770168	1	2.143761	-2.058852	2.03444E-005	0.0006595	11
	12	45	18984.38	2.150552	-0.1769534	1	2.15782	-4.70386	7.626494E-006	0.0006464	11
	13	47	15046.87	2.161802	-0.2857208	1	2.180602	-7.529026	2.22347E-005	0.0006857	11
	14	50	11953.13	2.175259	-0.4056884	1	2.212767	-10.56436	-1.767622E-005	0.0006676	11
	15	52	9515.62	2.19204	-0.5418186	1	2.25801	-13.88383	-6.403864E-006	0.0006709	11
	16	54	7546.875	2.213267	-0.7032622	1	2.322311	-17.62757	2.762467E-005	0.000692	11
	17	57	5928.309	2.242102	-0.9057949	1	2.418157	-21.99839	1.336801E-005	0.0006822	11
	18	59	4733.456	2.275751	-1.133523	1	2.542423	-26.47732	2.257304E-005	0.0006925	11
	19	61	3796.875	2.317298	-1.402885	1	2.708866	-31.19058	-4.852206E-005	0.0006475	11
	20	64	2987.132	2.375272	-1.759759	1	2.956124	-36.5335	1.397291E-005	0.0006855	11
	21	66	2390.625	2.44349	-2.166718	1	3.265779	-41.5644	8.299909E-006	0.0006742	11
	22	68	1884.191	2.539657	-2.696939	1	3.704502	-46.72037	-3.525117E-005	0.0006682	11
	23	70	1516.544	2.6538	-3.289146	1	4.226243	-51.10218	2.241841E-005	0.0006336	10
	24	73	1193.986	2.813831	-4.084118	1	4.959603	-55.43436	2.292161E-005	0.0006427	10
	25	75	946.5144	3.020344	-5.026783	1	5.864386	-59.00043	2.031228E-005	0.000628	10
	26	78	751.7689	3.281504	-6.172014	1	6.990138	-62.00155	1.302866E-005	0.0006184	10
	27	80	597.4265	3.614851	-7.551566	1	8.372174	-64.42007	7.703879E-006	0.0006466	10
	28	82	477.4305	4.038316	-9.175611	1	10.02496	-66.24503	2.776039E-007	0.0006601	10
	29	85	376.6741	4.605	-11.24335	1	12.14986	-67.72721	6.004915E-007	0.000654	10
	30	87	298.2954	5.31039	-13.69667	1	14.6901	-68.80799	5.935199E-007	0.0006549	10
	31	89	237.7717	6.160457	-16.54749	1	17.65702	-69.58022	3.276515E-007	0.0006539	10
	32	92	189.0121	7.210607	-19.98778	1	21.24862	-70.16305	-3.894584E-006	0.0007008	10
	33	94	150.2404	8.46831	-24.09461	1	25.53943	-70.63543	1.561777E-007	0.0006591	10
	34	96	119.1737	9.96564	-29.05596	1	30.71746	-71.06901	7.028434E-007	0.0006535	10
	35	99	95.0169	11.65779	-34.86693	1	36.76421	-71.5126	-1.037868E-007	0.0006524	10
	36	101	75.60484	13.58576	-41.87405	1	44.02283	-72.02468	2.650644E-006	5.349416E-005	9
	37	104	54.50582	16.80986	-54.65807	1	57.18458	-72.90494	2.547512E-006	5.16657E-005	9
	38	106	45.95588	18.73503	-62.94942	1	65.67824	-73.42593	2.949527E-006	6.086084E-005	9
	39	109	37.20238	21.40424	-75.13065	1	78.12014	-74.09808	2.927068E-006	5.049397E-005	9
	40	111	30.04808	24.53066	-90.09847	1	93.3782	-74.76954	2.660552E-006	5.828683E-005	9
	41	114	23.91582	28.42785	-109.6022	1	113.2289	-75.45944	2.59776E-006	5.07911E-005	9
	42	116	18.60119	33.82031	-136.5162	1	140.6432	-76.08578	2.867502E-006	5.334545E-005	9
	43	118	15.02404	39.49696	-164.6843	1	169.3544	-76.51324	3.041446E-006	5.699153E-005	9
	44	120	12.01923	47.09013	-200.6729	1	206.124	-76.79385	3.134538E-006	5.300676E-005	9
	45	123	9.450605	57.61227	-248.3905	1	254.9843	-76.94158	3.108107E-006	4.108992E-005	9
	46	125	7.512019	70.84249	-304.6422	1	312.7708	-76.90891	3.109921E-006	9.27392E-005	9
	47	128	5.978954	88.42532	-372.593	1	382.942	-76.64932	3.185858E-006	5.518688E-005	9
	48	131	4.734848	111.8691	-455.6734	1	469.2046	-76.20652	2.439049E-006	0.0006044	8
	49	134	3.75601	144.3278	-557.4932	1	575.8726	-75.48553	2.661483E-006	0.0006514	8
	50	138	3.004808	186.3855	-674.7202	1	699.9907	-74.55766	2.563601E-006	0.0006734	8
	51	142	2.372217	247.9968	-822.8852	1	859.4431	-73.22852	2.516275E-006	0.0005655	8
	52	146	1.878005	328.1116	-996.804	1	1049.417	-71.78034	2.652167E-006	0.0006294	8
	53	150	1.512097	424.9513	-1181.36	1	1255.466	-70.21565	2.554415E-006	0.0006438	8
	54	156	1.201923	564.0446	-1409.913	1	1518.552	-68.19581	2.613779E-006	0.0006418	8
	55	162	0.956633	741.3055	-1662.337	1	1820.137	-65.9659	2.418484E-006	-9.400715E-006	8
