EXPLAIN
TAG	EISPOT
TITLE	LABEL	Potentiostatic EIS	Test Identifier
DATE	LABEL	9/12/2020	Date
TIME	LABEL	21:49:09	Time
NOTES	NOTES	1	Notes...
	
PSTAT	PSTAT	REF3000-16137	Potentiostat
VDC	POTEN	0.00000E+000	T	DC Voltage (V)
FREQINIT	QUANT	3.00000E+005	Initial Freq. (Hz)
FREQFINAL	QUANT	1.00000E+000	Final Freq. (Hz)
PTSPERDEC	QUANT	1.00000E+001	Points/decade
VAC	QUANT	5.00000E+001	AC Voltage (mV rms)
AREA	QUANT	1.00000E+000	Sample Area (cm^2)
SPEED	SELECTOR	2	Optimize for:
ZGUESS	QUANT	1.00000E+003	Estimated Z (ohms)
EOC	QUANT	0	Open Circuit (V)
SEQUENCER	TOGGLE	TRUE	Run as Sequence
PSTATMODEL	IQUANT	5	Pstat Model
PSTATSECTION	LABEL	REF3000-16137	Pstat Section
PSTATSERIALNO	LABEL	16137	Pstat Serial Number
CTRLMODE	IQUANT	1	Control Mode
IESTAB	IQUANT	0	I/E Stability
CASPEED	IQUANT	1	Control Amp Speed
CONVENTION	IQUANT	1	Current Convention
ICHRANGE	IQUANT	2	Ich Range
ICHRANGEMODE	TOGGLE	F	Ich Auto Range
ICHOFFSETENABLE	TOGGLE	T	Ich Offset Enable
ICHOFFSET	QUANT	0	Ich Offset (V)
ICHFILTER	IQUANT	3	Ich Filter
VCHRANGE	IQUANT	2	Vch Range
VCHRANGEMODE	TOGGLE	F	Vch Auto Range
VCHOFFSETENABLE	TOGGLE	T	Vch Offset Enable
VCHOFFSET	QUANT	0	Vch Offset (V)
VCHFILTER	IQUANT	3	Vch Filter
ACHRANGE	IQUANT	2	Ach Range
ACHOFFSETENABLE	TOGGLE	F	Ach Offset Enable
ACHOFFSET	QUANT	0	Ach Offset (V)
ACHFILTER	IQUANT	3	Ach Filter
IERANGELOWERLIMIT	IQUANT	2	I/E Range Lower Limit
IERANGEMODE	TOGGLE	F	I/E AutoRange
IERANGE	IQUANT	11	I/E Range
POSFEEDENABLE	TOGGLE	F	Positive Feedback IR Comp
POSFEEDRESISTANCE	QUANT	0	Positive Feedback Resistance (ohm)
ACHSELECT	IQUANT	0	Ach Select
CABLEID	IQUANT	13	Cable ID
DCCALDATE	LABEL	7/31/2020	DC Calibration Date
ACCALDATE	LABEL	7/31/2020	AC Calibration Date
THERMOSELECT	IQUANT	1	Thermo Select
FRAMEWORKVERSION	QUANT	6.33	Framework Version
INSTRUMENTVERSION	LABEL	3.50	Instrument Version
COMPLIANCEVOLTAGE	IQUANT	0	Compliance Voltage
ZCURVE	TABLE
	Pt	Time	Freq	Zreal	Zimag	Zsig	Zmod	Zphz	Idc	Vdc	IERange
	#	s	Hz	ohm	ohm	V	ohm	°	A	V	#
	0	10	300046.9	1.994068	2.250285	1	3.006674	48.45456	-9.569701E-006	-0.0003107	11
	1	13	238359.4	1.964887	1.792141	1	2.659427	42.36743	-6.632307E-006	-0.0002095	11
	2	16	189328.1	2.006108	1.276108	1	2.377587	32.46091	5.772422E-005	3.027098E-005	12
	3	20	150421.9	1.965505	1.003595	1	2.206901	27.04904	-7.19149E-005	0.0002321	12
	4	23	119484.4	1.898356	0.8663063	1	2.086682	24.52938	-5.685497E-006	0.0003924	11
	5	26	94921.88	1.89074	0.6687325	1	2.005517	19.47809	2.679746E-005	0.0004535	11
	6	28	75421.88	1.886759	0.5017802	1	1.952343	14.89298	-3.145558E-005	0.0004683	11
	7	31	59859.37	1.885733	0.3607749	1	1.919935	10.83084	-3.369369E-005	0.000511	11
	8	33	47578.12	1.886701	0.2406522	1	1.901987	7.268931	-2.640919E-005	0.0005515	11
	9	36	37828.12	1.889507	0.1341277	1	1.894262	4.06036	3.513277E-005	0.0006253	11
	10	39	30046.88	1.894436	0.0360196	1	1.894778	1.089254	-1.440243E-005	0.000634	11
	11	41	23859.38	1.899378	-0.0596915	1	1.900315	-1.800035	5.424133E-006	0.0006236	11
	12	43	18984.38	1.907284	-0.1554859	1	1.913611	-4.660571	-4.450956E-005	0.0006264	11
	13	46	15046.87	1.917622	-0.2587775	1	1.935004	-7.685469	1.816521E-005	0.0006759	11
	14	48	11953.13	1.930418	-0.3720732	1	1.965948	-10.90954	3.424969E-005	0.0007047	11
	15	50	9515.62	1.946277	-0.4996948	1	2.0094	-14.39934	-7.583512E-005	0.0007106	11
	16	53	7546.875	1.966622	-0.6505005	1	2.071414	-18.30269	2.860938E-005	0.0006792	11
	17	55	5928.309	1.994712	-0.839258	1	2.164077	-22.81851	-6.438341E-005	0.0007241	11
	18	57	4733.456	2.027514	-1.050275	1	2.283395	-27.38467	2.432805E-005	0.0006816	11
	19	60	3796.875	2.067932	-1.300223	1	2.442729	-32.15985	9.782379E-006	0.0006824	11
	20	62	2987.132	2.125587	-1.629871	1	2.678544	-37.48051	-2.450599E-005	0.0006635	11
	21	64	2390.625	2.193583	-2.002537	1	2.970178	-42.39317	1.875932E-005	0.0006726	11
	22	67	1884.191	2.288381	-2.490591	1	3.382267	-47.42287	3.055984E-005	0.0006932	11
	23	69	1516.544	2.400292	-3.03109	1	3.866382	-51.62462	3.083488E-005	0.0006936	11
	24	71	1193.986	2.560702	-3.758341	1	4.547782	-55.73189	-1.914964E-005	0.0006704	10
	25	74	946.5144	2.762495	-4.614541	1	5.378231	-59.09315	1.750944E-005	0.0006386	10
	26	76	751.7689	3.016853	-5.647879	1	6.403119	-61.89079	-1.025588E-005	0.0006577	10
	27	78	597.4265	3.343205	-6.891388	1	7.65952	-64.12068	-1.982121E-005	0.0006634	10
	28	81	477.4305	3.741705	-8.344763	1	9.145241	-65.84903	3.47702E-006	0.0006549	10
	29	83	376.6741	4.270674	-10.19162	1	11.05024	-67.26448	-1.041741E-006	0.0006992	10
	30	85	298.2954	4.917432	-12.37996	1	13.32083	-68.33658	4.09326E-006	0.000653	10
	31	88	237.7717	5.679946	-14.92195	1	15.96641	-69.16099	2.712537E-006	0.0006537	10
	32	90	189.0121	6.605524	-17.99566	1	19.16968	-69.84373	2.277814E-006	0.0006528	10
	33	92	150.2404	7.697815	-21.67321	1	22.99966	-70.44615	-1.557862E-006	0.0007007	10
	34	95	119.1737	8.976834	-26.14143	1	27.63979	-71.04778	3.074568E-006	0.0006555	10
	35	97	95.0169	10.41596	-31.41495	1	33.0967	-71.65652	2.885137E-006	0.0006536	10
	36	100	75.60484	12.06848	-37.85765	1	39.73474	-72.31846	2.869693E-006	0.0006515	10
	37	102	54.50582	14.83214	-49.56251	1	51.73427	-73.33959	4.630733E-006	0.0001019	9
	38	105	45.95588	16.52872	-57.2167	1	59.55627	-73.88708	5.668837E-006	5.368946E-005	9
	39	107	37.20238	18.94883	-68.48335	1	71.0565	-74.53363	5.561519E-006	6.083553E-005	9
	40	109	30.04808	21.79159	-82.25204	1	85.08978	-75.16116	5.426862E-006	5.032499E-005	9
	41	112	23.91582	25.50846	-100.2713	1	103.465	-75.72703	5.271133E-006	4.730633E-005	9
	42	114	18.60119	30.77668	-125.1209	1	128.8505	-76.18098	5.501663E-006	5.264244E-005	9
	43	117	15.02404	36.43869	-151.0581	1	155.3909	-76.43803	5.615458E-006	4.644456E-005	9
	44	119	12.01923	44.18762	-184.078	1	189.3073	-76.50165	5.955273E-006	6.003817E-005	9
	45	121	9.450605	55.19191	-227.7964	1	234.3872	-76.38048	5.800663E-006	4.510348E-005	9
	46	124	7.512019	69.48517	-278.8458	1	287.3729	-76.00752	5.685438E-006	0.0001162	9
	47	127	5.978954	88.458	-340.4447	1	351.7491	-75.43487	6.00471E-006	5.434458E-005	9
	48	130	4.734848	115.2239	-416.566	1	432.2081	-74.53833	5.910355E-006	4.820251E-005	9
	49	133	3.75601	151.0717	-504.5509	1	526.6823	-73.33134	5.288527E-006	0.0006302	8
	50	136	3.004808	198.1525	-605.8903	1	637.4696	-71.89	5.143109E-006	0.0006643	8
	51	140	2.372217	265.4248	-731.0468	1	777.7402	-70.04531	5.216012E-006	0.0006645	8
	52	144	1.878005	356.1739	-871.4422	1	941.4199	-67.76929	5.243217E-006	0.0006052	8
	53	149	1.512097	463.3891	-1015.912	1	1116.605	-65.48079	5.160274E-006	0.0007183	8
	54	160	1.201923	608.2192	-1185.903	1	1332.777	-62.84787	5.064505E-006	0.0005922	8
	55	172	0.956633	789.85	-1363.805	1	1576.016	-59.92264	4.802624E-006	-1.093779E-005	8
