EXPLAIN
TAG	EISPOT
TITLE	LABEL	Potentiostatic EIS	Test Identifier
DATE	LABEL	8/9/2020	Date
TIME	LABEL	18:25:22	Time
NOTES	NOTES	1	Notes...
	
PSTAT	PSTAT	REF3000-16137	Potentiostat
VDC	POTEN	0.00000E+000	T	DC Voltage (V)
FREQINIT	QUANT	3.00000E+005	Initial Freq. (Hz)
FREQFINAL	QUANT	1.00000E+000	Final Freq. (Hz)
PTSPERDEC	QUANT	1.00000E+001	Points/decade
VAC	QUANT	5.00000E+001	AC Voltage (mV rms)
AREA	QUANT	1.00000E+000	Sample Area (cm^2)
SPEED	SELECTOR	2	Optimize for:
ZGUESS	QUANT	1.00000E+003	Estimated Z (ohms)
EOC	QUANT	0	Open Circuit (V)
SEQUENCER	TOGGLE	TRUE	Run as Sequence
PSTATMODEL	IQUANT	5	Pstat Model
PSTATSECTION	LABEL	REF3000-16137	Pstat Section
PSTATSERIALNO	LABEL	16137	Pstat Serial Number
CTRLMODE	IQUANT	1	Control Mode
IESTAB	IQUANT	0	I/E Stability
CASPEED	IQUANT	1	Control Amp Speed
CONVENTION	IQUANT	1	Current Convention
ICHRANGE	IQUANT	2	Ich Range
ICHRANGEMODE	TOGGLE	F	Ich Auto Range
ICHOFFSETENABLE	TOGGLE	T	Ich Offset Enable
ICHOFFSET	QUANT	0	Ich Offset (V)
ICHFILTER	IQUANT	3	Ich Filter
VCHRANGE	IQUANT	2	Vch Range
VCHRANGEMODE	TOGGLE	F	Vch Auto Range
VCHOFFSETENABLE	TOGGLE	T	Vch Offset Enable
VCHOFFSET	QUANT	0	Vch Offset (V)
VCHFILTER	IQUANT	3	Vch Filter
ACHRANGE	IQUANT	2	Ach Range
ACHOFFSETENABLE	TOGGLE	F	Ach Offset Enable
ACHOFFSET	QUANT	0	Ach Offset (V)
ACHFILTER	IQUANT	3	Ach Filter
IERANGELOWERLIMIT	IQUANT	2	I/E Range Lower Limit
IERANGEMODE	TOGGLE	F	I/E AutoRange
IERANGE	IQUANT	11	I/E Range
POSFEEDENABLE	TOGGLE	F	Positive Feedback IR Comp
POSFEEDRESISTANCE	QUANT	0	Positive Feedback Resistance (ohm)
ACHSELECT	IQUANT	0	Ach Select
CABLEID	IQUANT	13	Cable ID
DCCALDATE	LABEL	7/31/2020	DC Calibration Date
ACCALDATE	LABEL	7/31/2020	AC Calibration Date
THERMOSELECT	IQUANT	1	Thermo Select
FRAMEWORKVERSION	QUANT	6.33	Framework Version
INSTRUMENTVERSION	LABEL	3.50	Instrument Version
COMPLIANCEVOLTAGE	IQUANT	0	Compliance Voltage
ZCURVE	TABLE
	Pt	Time	Freq	Zreal	Zimag	Zsig	Zmod	Zphz	Idc	Vdc	IERange
	#	s	Hz	ohm	ohm	V	ohm	°	A	V	#
	0	8	300046.9	96.5614	0.1035262	1	96.5615	0.0614284	-5.551633E-005	0.0005883	9
	1	11	238359.4	97.6274	-0.1049438	1	97.6275	-0.0615896	-9.717646E-006	0.0009495	9
	2	14	189328.1	98.796	-0.1488657	1	98.7961	-0.0863332	-1.032824E-005	-0.0011389	9
	3	17	150421.9	99.9047	-0.2165949	1	99.9049	-0.124218	2.278719E-005	-0.0011557	9
	4	20	119484.4	100.8667	-0.3199766	1	100.8672	-0.1817572	1.640462E-005	-0.0011696	9
	5	22	94921.88	101.9445	-0.0489955	1	101.9445	-0.0275369	-1.911825E-005	0.0004698	9
	6	25	75421.88	102.9085	-0.2019871	1	102.9087	-0.1124591	-1.980542E-005	0.0004235	9
	7	27	59859.37	103.9295	-0.2961398	1	103.9299	-0.1632598	2.472038E-005	-0.0004525	9
	8	30	47578.12	104.9743	-0.3834413	1	104.975	-0.2092843	2.397247E-005	-0.0004705	9
	9	32	37828.12	106.0148	-0.4247613	1	106.0157	-0.2295613	-2.048904E-005	0.0008337	9
	10	35	30046.88	107.0758	-0.5209846	1	107.077	-0.2787744	2.579841E-005	-0.0004766	9
	11	37	23859.38	108.0938	-0.5865732	1	108.0954	-0.3109138	6.734453E-006	-0.0005393	9
	12	39	18984.38	109.0283	-0.7003124	1	109.0306	-0.3680181	-2.36801E-006	-0.0002788	9
	13	42	15046.87	110.0594	-0.715631	1	110.0617	-0.3725448	1.143915E-005	0.0002352	9
	14	44	11953.13	111.0592	-0.8073962	1	111.0621	-0.4165309	-2.419303E-005	0.0006674	9
	15	46	9515.62	112.0602	-1.184466	1	112.0664	-0.6055889	1.603987E-005	1.510748E-005	9
	16	49	7546.875	113.0768	-1.503722	1	113.0868	-0.7618882	1.793604E-005	-2.056704E-006	9
	17	51	5928.309	114.1344	-1.856896	1	114.1495	-0.932085	-1.980808E-005	0.0004929	9
	18	53	4733.456	115.1481	-2.282862	1	115.1707	-1.135766	-1.473966E-005	0.000176	9
	19	56	3796.875	116.2756	-2.7161	1	116.3073	-1.338138	1.226502E-005	0.0002242	9
	20	58	2987.132	117.4633	-3.36429	1	117.5115	-1.640571	-9.571098E-006	-2.243119E-005	9
	21	60	2390.625	118.5798	-4.178237	1	118.6533	-2.01802	2.323725E-005	-0.0006962	9
	22	62	1884.191	119.8789	-5.080748	1	119.9865	-2.426878	1.938936E-005	-0.0007234	9
	23	65	1516.544	120.9933	-6.44504	1	121.1648	-3.049136	1.169225E-005	0.0002138	9
	24	67	1193.986	122.3843	-7.831194	1	122.6346	-3.661282	1.931439E-005	-8.261984E-005	9
	25	70	946.5144	123.7856	-9.7428	1	124.1684	-4.500307	1.656897E-006	0.0005103	9
	26	72	751.7689	125.0808	-12.09694	1	125.6644	-5.524066	-2.324613E-006	-0.0002893	9
	27	74	597.4265	126.6941	-14.89772	1	127.567	-6.706506	6.139032E-006	-0.0005266	9
	28	78	477.4305	129.2775	-18.34519	1	130.5726	-8.076666	1.216117E-006	9.40869E-005	9
	29	81	376.6741	131.0419	-22.83101	1	133.0159	-9.88325	1.229483E-006	8.486869E-005	9
	30	83	298.2954	132.9637	-28.31862	1	135.9459	-12.02322	1.19164E-006	0.0000952	9
	31	85	237.7717	135.0991	-34.91272	1	139.5373	-14.48955	1.272933E-006	8.317219E-005	9
	32	88	189.0121	137.4854	-43.14486	1	144.0962	-17.4226	1.26724E-006	8.572795E-005	9
	33	90	150.2404	140.1846	-53.30693	1	149.9778	-20.81993	1.308058E-006	7.744044E-005	9
	34	93	119.1737	143.2789	-65.97234	1	157.7377	-24.72357	1.323974E-006	8.458546E-005	9
	35	95	95.0169	146.8345	-81.23614	1	167.8085	-28.95355	1.236329E-006	8.242991E-005	9
	36	98	75.60484	151.0675	-100.177	1	181.2645	-33.54946	1.241618E-006	8.397018E-005	9
	37	100	54.50582	157.8895	-135.0566	1	207.7724	-40.54324	1.173012E-006	7.19782E-005	9
	38	103	45.95588	162.8942	-157.8663	1	226.8398	-44.10197	1.318096E-006	8.250124E-005	9
	39	105	37.20238	169.6804	-191.3804	1	255.7693	-48.43938	1.301125E-006	8.196827E-005	9
	40	107	30.04808	177.9718	-232.4811	1	292.7822	-52.56478	1.282986E-006	7.712106E-005	9
	41	110	23.91582	188.5992	-286.0083	1	342.5937	-56.5984	1.236671E-006	7.97752E-005	9
	42	112	18.60119	202.9637	-359.0361	1	412.4333	-60.52045	1.270559E-006	8.73294E-005	9
	43	114	15.02404	217.5328	-433.7288	1	485.2228	-63.36435	2.029614E-007	0.0006695	8
	44	117	12.01923	237.6064	-530.2629	1	581.0641	-65.86325	5.247869E-008	0.0006627	8
	45	119	9.450605	264.9084	-658.2234	1	709.5312	-68.0772	5.389146E-008	0.0006581	8
	46	122	7.512019	297.6987	-808.6528	1	861.7099	-69.78924	1.08881E-007	0.0006483	8
	47	124	5.978954	340.1139	-990.884	1	1047.63	-71.05558	1.595182E-007	0.0006641	8
	48	127	4.734848	395.0992	-1219.846	1	1282.236	-72.05325	8.252412E-008	0.000664	8
	49	131	3.75601	465.8067	-1495.882	1	1566.729	-72.7038	1.823939E-007	0.0006659	8
	50	134	3.004808	552.4943	-1817.026	1	1899.166	-73.08731	1.099719E-007	0.0006965	8
	51	138	2.372217	669.3182	-2231.058	1	2329.293	-73.30074	1.309115E-007	0.0007244	8
	52	142	1.878005	817.8232	-2724.843	1	2844.926	-73.29361	1.183874E-007	0.0006343	8
	53	147	1.512097	992.577	-3272.911	1	3420.111	-73.129	1.340723E-007	0.000738	8
	54	152	1.201923	1216.024	-3977.687	1	4159.412	-73.00101	1.320298E-007	0.0006264	8
	55	158	0.956633	1493.323	-4823.647	1	5049.513	-72.79832	-2.549226E-008	4.996756E-005	7
