EXPLAIN
TAG	EISPOT
TITLE	LABEL	Potentiostatic EIS	Test Identifier
DATE	LABEL	8/9/2020	Date
TIME	LABEL	18:14:12	Time
NOTES	NOTES	1	Notes...
	
PSTAT	PSTAT	REF3000-16137	Potentiostat
VDC	POTEN	0.00000E+000	T	DC Voltage (V)
FREQINIT	QUANT	3.00000E+005	Initial Freq. (Hz)
FREQFINAL	QUANT	1.00000E+000	Final Freq. (Hz)
PTSPERDEC	QUANT	1.00000E+001	Points/decade
VAC	QUANT	5.00000E+001	AC Voltage (mV rms)
AREA	QUANT	1.00000E+000	Sample Area (cm^2)
SPEED	SELECTOR	2	Optimize for:
ZGUESS	QUANT	1.00000E+003	Estimated Z (ohms)
EOC	QUANT	0	Open Circuit (V)
SEQUENCER	TOGGLE	TRUE	Run as Sequence
PSTATMODEL	IQUANT	5	Pstat Model
PSTATSECTION	LABEL	REF3000-16137	Pstat Section
PSTATSERIALNO	LABEL	16137	Pstat Serial Number
CTRLMODE	IQUANT	1	Control Mode
IESTAB	IQUANT	0	I/E Stability
CASPEED	IQUANT	1	Control Amp Speed
CONVENTION	IQUANT	1	Current Convention
ICHRANGE	IQUANT	2	Ich Range
ICHRANGEMODE	TOGGLE	F	Ich Auto Range
ICHOFFSETENABLE	TOGGLE	T	Ich Offset Enable
ICHOFFSET	QUANT	0	Ich Offset (V)
ICHFILTER	IQUANT	3	Ich Filter
VCHRANGE	IQUANT	2	Vch Range
VCHRANGEMODE	TOGGLE	F	Vch Auto Range
VCHOFFSETENABLE	TOGGLE	T	Vch Offset Enable
VCHOFFSET	QUANT	0	Vch Offset (V)
VCHFILTER	IQUANT	3	Vch Filter
ACHRANGE	IQUANT	2	Ach Range
ACHOFFSETENABLE	TOGGLE	F	Ach Offset Enable
ACHOFFSET	QUANT	0	Ach Offset (V)
ACHFILTER	IQUANT	3	Ach Filter
IERANGELOWERLIMIT	IQUANT	2	I/E Range Lower Limit
IERANGEMODE	TOGGLE	F	I/E AutoRange
IERANGE	IQUANT	11	I/E Range
POSFEEDENABLE	TOGGLE	F	Positive Feedback IR Comp
POSFEEDRESISTANCE	QUANT	0	Positive Feedback Resistance (ohm)
ACHSELECT	IQUANT	0	Ach Select
CABLEID	IQUANT	13	Cable ID
DCCALDATE	LABEL	7/31/2020	DC Calibration Date
ACCALDATE	LABEL	7/31/2020	AC Calibration Date
THERMOSELECT	IQUANT	1	Thermo Select
FRAMEWORKVERSION	QUANT	6.33	Framework Version
INSTRUMENTVERSION	LABEL	3.50	Instrument Version
COMPLIANCEVOLTAGE	IQUANT	0	Compliance Voltage
ZCURVE	TABLE
	Pt	Time	Freq	Zreal	Zimag	Zsig	Zmod	Zphz	Idc	Vdc	IERange
	#	s	Hz	ohm	ohm	V	ohm	°	A	V	#
	0	8	300046.9	14.0473	1.181029	1	14.09686	4.805849	5.764288E-005	0.0003421	10
	1	11	238359.4	14.15633	0.9412497	1	14.18759	3.803977	-2.68704E-005	0.0002749	10
	2	14	189328.1	14.23938	0.7300957	1	14.25809	2.935156	-2.549341E-005	0.0003429	10
	3	17	150421.9	14.33204	0.5567204	1	14.34284	2.224506	-0.0001024	0.0005738	10
	4	19	119484.4	14.40259	0.41504	1	14.40856	1.650638	-8.621837E-005	0.000761	10
	5	22	94921.88	14.47999	0.3111219	1	14.48333	1.230887	-1.926984E-005	0.000623	10
	6	24	75421.88	14.56429	0.1933485	1	14.56557	0.7605866	-1.152086E-005	0.0006302	10
	7	27	59859.37	14.65269	0.0912895	1	14.65297	0.3569609	-2.411359E-005	0.0007294	10
	8	29	47578.12	14.74126	-0.0012385	1	14.74126	-0.0048139	-2.383316E-005	0.0006653	10
	9	32	37828.12	14.83092	-0.0902041	1	14.83119	-0.3484782	-2.600365E-005	0.0007171	10
	10	35	30046.88	14.95655	-0.1835884	1	14.95767	-0.7032582	-3.038806E-005	0.0006667	10
	11	38	23859.38	15.04626	-0.2827369	1	15.04892	-1.076528	-2.584665E-005	0.0007225	10
	12	40	18984.38	15.13621	-0.395316	1	15.14137	-1.496068	-2.599974E-005	0.0007484	10
	13	43	15046.87	15.23002	-0.5270206	1	15.23914	-1.981876	-1.235632E-005	0.0007346	10
	14	45	11953.13	15.32382	-0.6787683	1	15.33885	-2.536257	-1.27188E-005	0.0006513	10
	15	47	9515.62	15.426	-0.8609619	1	15.45001	-3.1945	1.982465E-005	0.0006502	10
	16	50	7546.875	15.53426	-1.085293	1	15.57213	-3.996446	-2.397491E-005	0.000716	10
	17	52	5928.309	15.64809	-1.374042	1	15.7083	-5.018207	-2.827378E-005	0.0007046	10
	18	54	4733.456	15.76814	-1.701928	1	15.85972	-6.16035	1.631792E-005	0.0006805	10
	19	56	3796.875	15.90188	-2.097072	1	16.03956	-7.512569	-2.700357E-005	0.0007259	10
	20	59	2987.132	16.04795	-2.624357	1	16.26112	-9.287497	2.5275E-005	0.0006561	10
	21	61	2390.625	16.20186	-3.232353	1	16.52115	-11.28266	1.052074E-005	0.0007119	10
	22	63	1884.191	16.39053	-4.038593	1	16.88075	-13.84184	2.442428E-005	0.0006519	10
	23	66	1516.544	16.5891	-4.93751	1	17.3083	-16.57489	2.121205E-005	0.000672	10
	24	68	1193.986	16.83724	-6.162756	1	17.92965	-20.10361	-1.905133E-005	0.0006731	10
	25	70	946.5144	17.1222	-7.648934	1	18.75302	-24.07157	-7.678549E-006	0.0006671	10
	26	73	751.7689	17.45633	-9.457035	1	19.85343	-28.4468	-5.102789E-006	0.0007025	10
	27	75	597.4265	17.85277	-11.68497	1	21.33682	-33.20549	4.352555E-006	0.0006294	10
	28	77	477.4305	18.31985	-14.3697	1	23.28316	-38.10988	-2.760469E-006	0.0006813	10
	29	80	376.6741	18.92342	-17.86534	1	26.02434	-43.35258	-3.310768E-006	0.0006823	10
	30	82	298.2954	19.66079	-22.13099	1	29.60283	-48.38266	-2.028834E-006	0.0006789	10
	31	84	237.7717	20.55254	-27.23641	1	34.1208	-52.96186	-2.255789E-006	0.0006788	10
	32	87	189.0121	21.6746	-33.5899	1	39.97586	-57.16701	-1.827524E-006	0.0006826	10
	33	89	150.2404	23.05492	-41.35625	1	47.34838	-60.86159	1.023452E-006	0.0001215	9
	34	92	119.1737	24.84222	-51.0471	1	56.77097	-64.05	1.426508E-006	8.342309E-005	9
	35	94	95.0169	27.05655	-62.67921	1	68.26962	-66.65173	1.354786E-006	7.767555E-005	9
	36	96	75.60484	29.89982	-77.05843	1	82.65592	-68.79301	1.437852E-006	7.355614E-005	9
	37	99	54.50582	35.36705	-103.3866	1	109.2686	-71.11493	1.380709E-006	7.785677E-005	9
	38	101	45.95588	39.15813	-120.4701	1	126.6744	-71.99353	1.434417E-006	8.854813E-005	9
	39	104	37.20238	44.93098	-145.3657	1	152.1512	-72.82418	1.438809E-006	8.114779E-005	9
	40	106	30.04808	52.36054	-175.5558	1	183.1979	-73.39249	1.389952E-006	8.079332E-005	9
	41	109	23.91582	62.45169	-214.3007	1	223.2151	-73.75277	1.56128E-006	8.249345E-005	9
	42	111	18.60119	76.88647	-266.2173	1	277.0978	-73.8907	1.373874E-006	8.022034E-005	9
	43	113	15.02404	92.49886	-319.4395	1	332.5622	-73.85078	1.322157E-006	8.019414E-005	9
	44	115	12.01923	113.0202	-385.2523	1	401.4884	-73.65008	1.556329E-006	8.42695E-005	9
	45	118	9.450605	139.9767	-467.9066	1	488.3954	-73.34517	5.445843E-007	0.0006682	8
	46	120	7.512019	172.1705	-564.2061	1	589.8909	-73.03015	3.97959E-007	0.0006661	8
	47	123	5.978954	210.2513	-677.054	1	708.9484	-72.74842	3.877293E-007	0.000661	8
	48	126	4.734848	256.1978	-814.5908	1	853.9294	-72.54106	4.281655E-007	0.000636	8
	49	129	3.75601	308.1748	-978.001	1	1025.406	-72.51	4.698197E-007	0.0006733	8
	50	133	3.004808	363.5438	-1166.147	1	1221.501	-72.68525	4.196756E-007	0.0007032	8
	51	137	2.372217	430.5278	-1408.32	1	1472.657	-73.00144	4.382366E-007	0.0005947	8
	52	141	1.878005	499.4163	-1705.323	1	1776.948	-73.67694	4.877245E-007	0.0006598	8
	53	145	1.512097	568.1749	-2039.493	1	2117.157	-74.43288	4.413421E-007	0.0007073	8
	54	151	1.201923	657.0692	-2484.383	1	2569.805	-75.18562	4.938378E-007	0.0006661	8
	55	157	0.956633	754.5005	-3026.817	1	3119.438	-76.00302	4.445714E-007	1.711819E-005	8
