EXPLAIN
TAG	EISPOT
TITLE	LABEL	Potentiostatic EIS	Test Identifier
DATE	LABEL	8/9/2020	Date
TIME	LABEL	18:19:46	Time
NOTES	NOTES	1	Notes...
	
PSTAT	PSTAT	REF3000-16137	Potentiostat
VDC	POTEN	0.00000E+000	T	DC Voltage (V)
FREQINIT	QUANT	3.00000E+005	Initial Freq. (Hz)
FREQFINAL	QUANT	1.00000E+000	Final Freq. (Hz)
PTSPERDEC	QUANT	1.00000E+001	Points/decade
VAC	QUANT	5.00000E+001	AC Voltage (mV rms)
AREA	QUANT	1.00000E+000	Sample Area (cm^2)
SPEED	SELECTOR	2	Optimize for:
ZGUESS	QUANT	1.00000E+003	Estimated Z (ohms)
EOC	QUANT	0	Open Circuit (V)
SEQUENCER	TOGGLE	TRUE	Run as Sequence
PSTATMODEL	IQUANT	5	Pstat Model
PSTATSECTION	LABEL	REF3000-16137	Pstat Section
PSTATSERIALNO	LABEL	16137	Pstat Serial Number
CTRLMODE	IQUANT	1	Control Mode
IESTAB	IQUANT	0	I/E Stability
CASPEED	IQUANT	1	Control Amp Speed
CONVENTION	IQUANT	1	Current Convention
ICHRANGE	IQUANT	2	Ich Range
ICHRANGEMODE	TOGGLE	F	Ich Auto Range
ICHOFFSETENABLE	TOGGLE	T	Ich Offset Enable
ICHOFFSET	QUANT	0	Ich Offset (V)
ICHFILTER	IQUANT	3	Ich Filter
VCHRANGE	IQUANT	2	Vch Range
VCHRANGEMODE	TOGGLE	F	Vch Auto Range
VCHOFFSETENABLE	TOGGLE	T	Vch Offset Enable
VCHOFFSET	QUANT	0	Vch Offset (V)
VCHFILTER	IQUANT	3	Vch Filter
ACHRANGE	IQUANT	2	Ach Range
ACHOFFSETENABLE	TOGGLE	F	Ach Offset Enable
ACHOFFSET	QUANT	0	Ach Offset (V)
ACHFILTER	IQUANT	3	Ach Filter
IERANGELOWERLIMIT	IQUANT	2	I/E Range Lower Limit
IERANGEMODE	TOGGLE	F	I/E AutoRange
IERANGE	IQUANT	11	I/E Range
POSFEEDENABLE	TOGGLE	F	Positive Feedback IR Comp
POSFEEDRESISTANCE	QUANT	0	Positive Feedback Resistance (ohm)
ACHSELECT	IQUANT	0	Ach Select
CABLEID	IQUANT	13	Cable ID
DCCALDATE	LABEL	7/31/2020	DC Calibration Date
ACCALDATE	LABEL	7/31/2020	AC Calibration Date
THERMOSELECT	IQUANT	1	Thermo Select
FRAMEWORKVERSION	QUANT	6.33	Framework Version
INSTRUMENTVERSION	LABEL	3.50	Instrument Version
COMPLIANCEVOLTAGE	IQUANT	0	Compliance Voltage
ZCURVE	TABLE
	Pt	Time	Freq	Zreal	Zimag	Zsig	Zmod	Zphz	Idc	Vdc	IERange
	#	s	Hz	ohm	ohm	V	ohm	°	A	V	#
	0	6	300046.9	32.30605	0.3734019	1	32.30821	0.6622103	-0.0001061	-0.0001874	11
	1	11	238359.4	32.63538	0.6112014	1	32.6411	1.07292	2.973181E-005	0.0004482	10
	2	14	189328.1	32.92212	0.4636004	1	32.92538	0.8067704	-2.27368E-005	0.0004589	10
	3	16	150421.9	33.16336	0.319311	1	33.1649	0.5516511	2.576028E-005	0.0005988	10
	4	19	119484.4	33.42609	0.2432624	1	33.42697	0.4169697	-5.81597E-006	0.0004656	10
	5	21	94921.88	33.67096	0.1592771	1	33.67134	0.2710298	-3.678324E-006	0.0007193	10
	6	24	75421.88	33.92424	0.0679386	1	33.9243	0.1147436	-2.136974E-005	0.0007192	10
	7	26	59859.37	34.18259	-0.0184888	1	34.18259	-0.0309904	-2.766996E-005	0.0007041	10
	8	29	47578.12	34.43882	-0.0968413	1	34.43895	-0.1611142	7.39633E-006	0.000608	10
	9	31	37828.12	34.70098	-0.1782102	1	34.70144	-0.2942453	-2.632812E-005	0.000736	10
	10	34	30046.88	34.96751	-0.2637253	1	34.96851	-0.4321171	2.210204E-005	0.0006692	10
	11	36	23859.38	35.22079	-0.3694493	1	35.22273	-0.6009833	5.63998E-006	0.0006397	10
	12	39	18984.38	35.41844	-0.4325995	1	35.42108	-0.6997737	4.313594E-006	-0.0002905	9
	13	41	15046.87	35.68444	-0.5877205	1	35.68928	-0.9435725	-7.778159E-006	7.766101E-005	9
	14	43	11953.13	35.93348	-0.7555988	1	35.94143	-1.204621	-1.139193E-005	0.0006207	9
	15	46	9515.62	36.20415	-0.960093	1	36.21688	-1.519063	-1.462144E-005	0.0004425	9
	16	48	7546.875	36.47822	-1.203809	1	36.49808	-1.890118	-8.630203E-006	9.14265E-005	9
	17	50	5928.309	36.75571	-1.537167	1	36.78784	-2.394782	-1.451863E-005	0.0004262	9
	18	53	4733.456	37.05161	-1.890192	1	37.0998	-2.920418	1.490554E-005	-0.0001183	9
	19	55	3796.875	37.3621	-2.322849	1	37.43423	-3.557573	2.083741E-005	-0.0003542	9
	20	57	2987.132	37.68484	-2.925829	1	37.79825	-4.439505	-1.207796E-005	0.0006015	9
	21	59	2390.625	38.01907	-3.602203	1	38.18934	-5.412461	-1.525028E-005	0.0004059	9
	22	62	1884.191	38.37513	-4.494552	1	38.63744	-6.680133	-1.481758E-005	0.0004244	9
	23	64	1516.544	38.77606	-5.48538	1	39.16213	-8.051809	1.855462E-005	-0.0003354	9
	24	66	1193.986	39.22622	-6.854743	1	39.82064	-9.91229	1.822377E-005	-0.0004141	9
	25	69	946.5144	39.71357	-8.514342	1	40.61603	-12.10068	3.1601E-006	-0.0002612	9
	26	71	751.7689	40.23466	-10.51241	1	41.58532	-14.64276	-1.441194E-005	0.0005858	9
	27	73	597.4265	40.84283	-13.01211	1	42.86551	-17.67134	3.393205E-006	0.0002869	9
	28	76	477.4305	41.50863	-16.00358	1	44.48687	-21.08406	1.401256E-006	8.17002E-005	9
	29	78	376.6741	42.32192	-19.91372	1	46.77287	-25.19838	1.396573E-006	7.865333E-005	9
	30	80	298.2954	43.26975	-24.68665	1	49.81668	-29.70601	1.427733E-006	7.775928E-005	9
	31	83	237.7717	44.38961	-30.40989	1	53.80705	-34.41379	1.40216E-006	8.477947E-005	9
	32	85	189.0121	45.74092	-37.53825	1	59.17223	-39.37474	1.456389E-006	8.468279E-005	9
	33	88	150.2404	47.5017	-46.33914	1	66.36059	-44.29022	1.427646E-006	8.132675E-005	9
	34	91	119.1737	49.51652	-57.27069	1	75.70877	-49.15315	1.450038E-006	8.280801E-005	9
	35	93	95.0169	51.94975	-70.41489	1	87.50447	-53.58133	1.38944E-006	7.919885E-005	9
	36	96	75.60484	54.99315	-86.7086	1	102.6773	-57.61592	1.427855E-006	7.771236E-005	9
	37	98	54.50582	60.55137	-116.6611	1	131.4392	-62.56903	1.314406E-006	7.616739E-005	9
	38	101	45.95588	64.41181	-136.1843	1	150.6487	-64.687	1.452226E-006	7.900136E-005	9
	39	103	37.20238	70.08573	-164.8247	1	179.1066	-66.96413	1.293118E-006	7.814984E-005	9
	40	106	30.04808	77.28115	-199.8165	1	214.2405	-68.85549	1.374589E-006	8.272019E-005	9
	41	108	23.91582	86.92809	-245.2471	1	260.1973	-70.48308	1.478318E-006	6.90719E-005	9
	42	110	18.60119	100.672	-306.8972	1	322.9872	-71.83887	1.543662E-006	7.490741E-005	9
	43	113	15.02404	115.8103	-371.0265	1	388.6807	-72.66504	1.279516E-006	7.30329E-005	9
	44	115	12.01923	135.281	-449.7416	1	469.6472	-73.25886	2.569151E-007	0.0006517	8
	45	117	9.450605	163.0726	-554.5606	1	578.0399	-73.61365	3.448249E-007	0.0006716	8
	46	120	7.512019	197.5106	-675.9848	1	704.2485	-73.71259	1.819477E-007	0.0007152	8
	47	122	5.978954	240.1193	-820.9138	1	855.3109	-73.69567	2.816248E-007	0.0006584	8
	48	126	4.734848	295.9967	-998.817	1	1041.753	-73.49295	3.222441E-007	0.0006393	8
	49	129	3.75601	364.4401	-1210.228	1	1263.91	-73.2412	4.075026E-007	0.0006712	8
	50	132	3.004808	444.6022	-1451.553	1	1518.116	-72.97048	4.121432E-007	0.0006317	8
	51	136	2.372217	549.0932	-1756.799	1	1840.61	-72.6432	3.659594E-007	0.0005823	8
	52	140	1.878005	666.2086	-2118.229	1	2220.524	-72.54101	3.605472E-007	0.000714	8
	53	145	1.512097	791.374	-2511.786	1	2633.504	-72.51222	3.595173E-007	0.0006372	8
	54	150	1.201923	944.533	-3027.714	1	3171.624	-72.67404	3.977729E-007	0.0006754	8
	55	156	0.956633	1113.352	-3639.997	1	3806.459	-72.9929	3.617083E-007	1.422805E-005	8
