EXPLAIN
TAG	EISPOT
TITLE	LABEL	Potentiostatic EIS	Test Identifier
DATE	LABEL	10/12/2021	Date
TIME	LABEL	11:56:40	Time
NOTES	NOTES	1	Notes...
	
PSTAT	PSTAT	REF3000-16137	Potentiostat
VDC	POTEN	0.00000E+000	T	DC Voltage (V)
FREQINIT	QUANT	3.00000E+005	Initial Freq. (Hz)
FREQFINAL	QUANT	1.00000E+000	Final Freq. (Hz)
PTSPERDEC	QUANT	1.00000E+001	Points/decade
VAC	QUANT	5.00000E+001	AC Voltage (mV rms)
AREA	QUANT	1.00000E+000	Sample Area (cm^2)
SPEED	SELECTOR	2	Optimize for:
ZGUESS	QUANT	1.00000E+003	Estimated Z (ohms)
EOC	QUANT	0	Open Circuit (V)
SEQUENCER	TOGGLE	TRUE	Run as Sequence
PSTATMODEL	IQUANT	5	Pstat Model
PSTATSECTION	LABEL	REF3000-16137	Pstat Section
PSTATSERIALNO	LABEL	16137	Pstat Serial Number
CTRLMODE	IQUANT	1	Control Mode
IESTAB	IQUANT	0	I/E Stability
CASPEED	IQUANT	1	Control Amp Speed
CONVENTION	IQUANT	1	Current Convention
ICHRANGE	IQUANT	2	Ich Range
ICHRANGEMODE	TOGGLE	F	Ich Auto Range
ICHOFFSETENABLE	TOGGLE	T	Ich Offset Enable
ICHOFFSET	QUANT	0	Ich Offset (V)
ICHFILTER	IQUANT	3	Ich Filter
VCHRANGE	IQUANT	2	Vch Range
VCHRANGEMODE	TOGGLE	F	Vch Auto Range
VCHOFFSETENABLE	TOGGLE	T	Vch Offset Enable
VCHOFFSET	QUANT	0	Vch Offset (V)
VCHFILTER	IQUANT	3	Vch Filter
ACHRANGE	IQUANT	2	Ach Range
ACHOFFSETENABLE	TOGGLE	F	Ach Offset Enable
ACHOFFSET	QUANT	0	Ach Offset (V)
ACHFILTER	IQUANT	3	Ach Filter
IERANGELOWERLIMIT	IQUANT	2	I/E Range Lower Limit
IERANGEMODE	TOGGLE	F	I/E AutoRange
IERANGE	IQUANT	11	I/E Range
POSFEEDENABLE	TOGGLE	F	Positive Feedback IR Comp
POSFEEDRESISTANCE	QUANT	0	Positive Feedback Resistance (ohm)
ACHSELECT	IQUANT	0	Ach Select
CABLEID	IQUANT	13	Cable ID
DCCALDATE	LABEL	9/10/2021	DC Calibration Date
ACCALDATE	LABEL	9/10/2021	AC Calibration Date
THERMOSELECT	IQUANT	1	Thermo Select
FRAMEWORKVERSION	QUANT	6.33	Framework Version
INSTRUMENTVERSION	LABEL	3.50	Instrument Version
COMPLIANCEVOLTAGE	IQUANT	0	Compliance Voltage
ZCURVE	TABLE
	Pt	Time	Freq	Zreal	Zimag	Zsig	Zmod	Zphz	Idc	Vdc	IERange
	#	s	Hz	ohm	ohm	V	ohm	°	A	V	#
	0	10	300046.9	1.434019	2.410017	1	2.804388	59.24632	-9.397287E-005	-0.0007216	11
	1	13	238359.4	1.531956	1.771809	1	2.342263	49.15239	-0.0001333	-0.0010685	12
	2	17	189328.1	1.353888	1.503843	1	2.023501	48.00374	-1.865969E-006	-0.0002561	11
	3	20	150421.9	1.328144	1.183599	1	1.779009	41.70638	2.968755E-005	-0.0001466	11
	4	22	119484.4	1.318549	0.914403	1	1.604589	34.74099	3.583399E-005	-0.0001464	11
	5	25	94921.88	1.31165	0.7006072	1	1.487036	28.10855	-1.733441E-005	4.97151E-005	11
	6	27	75421.88	1.307737	0.5183392	1	1.406717	21.62156	-3.548157E-005	5.239094E-005	11
	7	30	59859.37	1.30842	0.3660088	1	1.358649	15.62808	-4.410205E-005	0.0001627	11
	8	32	47578.12	1.31004	0.234022	1	1.330779	10.12833	-5.046456E-005	0.0002202	11
	9	35	37828.12	1.313432	0.1155325	1	1.318503	5.02693	-4.055114E-005	0.0002714	11
	10	37	30046.88	1.318663	0.0043687	1	1.31867	0.1898187	-2.16661E-005	0.0003282	11
	11	40	23859.38	1.326367	-0.1046991	1	1.330492	-4.513386	-1.959993E-005	0.0003491	11
	12	42	18984.38	1.336188	-0.2158128	1	1.353504	-9.174825	-6.758026E-005	0.0003496	11
	13	45	15046.87	1.348185	-0.3374694	1	1.38978	-14.05317	-5.393305E-005	0.0003613	11
	14	47	11953.13	1.363699	-0.4719203	1	1.443046	-19.08864	-3.060681E-005	0.0003875	11
	15	49	9515.62	1.383181	-0.6251777	1	1.517905	-24.32228	-3.000534E-005	0.0003949	11
	16	51	7546.875	1.408468	-0.8076515	1	1.623602	-29.83105	-2.181849E-005	0.0003999	11
	17	54	5928.309	1.442248	-1.036433	1	1.776027	-35.70189	-1.506111E-005	0.0004029	11
	18	56	4733.456	1.48288	-1.293633	1	1.967847	-41.10075	-7.666553E-005	0.0003541	11
	19	58	3796.875	1.533482	-1.597314	1	2.214267	-46.16801	-2.508378E-005	0.000384	11
	20	61	2987.132	1.603777	-1.997652	1	2.56178	-51.24142	-1.716256E-005	0.0003979	11
	21	63	2390.625	1.687988	-2.45281	1	2.977513	-55.46482	-7.279616E-005	0.0003658	11
	22	65	1884.191	1.79964	-3.043988	1	3.536179	-59.40794	-1.808369E-005	0.0003759	11
	23	68	1516.544	1.932634	-3.703438	1	4.177383	-62.44226	2.376879E-005	-0.0001424	10
	24	70	1193.986	2.114618	-4.585194	1	5.049318	-65.24161	1.205947E-006	-0.0001471	10
	25	73	946.5144	2.342351	-5.63181	1	6.0995	-67.41687	-4.985558E-006	-0.0001638	10
	26	75	751.7689	2.618733	-6.896581	1	7.377031	-69.2075	-2.436258E-005	-0.0001263	10
	27	77	597.4265	2.970216	-8.42301	1	8.931365	-70.57576	2.365976E-005	-0.0001426	10
	28	79	477.4305	3.397242	-10.23513	1	10.78421	-71.63797	-5.425475E-007	-0.0001195	10
	29	82	376.6741	3.949071	-12.54703	1	13.15382	-72.52905	-3.038431E-007	-0.0001229	10
	30	84	298.2954	4.614347	-15.31766	1	15.99759	-73.2354	-7.552156E-007	-0.0001183	10
	31	86	237.7717	5.397802	-18.58266	1	19.35075	-73.80273	-8.779112E-007	-0.0001202	10
	32	89	189.0121	6.354204	-22.58788	1	23.46461	-74.28815	-9.985866E-007	-0.0001193	10
	33	91	150.2404	7.50387	-27.44408	1	28.45146	-74.70773	-1.21961E-006	-0.0001227	10
	34	94	119.1737	8.892759	-33.40872	1	34.57201	-75.09457	-1.28854E-006	-0.0001204	10
	35	96	95.0169	10.50111	-40.4822	1	41.82203	-75.45795	-1.636124E-006	-0.0001175	10
	36	99	75.60484	12.39402	-49.0958	1	50.63605	-75.83195	-3.958416E-007	-0.000137	9
	37	101	54.50582	15.68063	-64.89523	1	66.76281	-76.416	-2.941718E-007	-0.0001457	9
	38	104	45.95588	17.69957	-75.15566	1	77.21172	-76.748	-6.602999E-008	-0.0001326	9
	39	106	37.20238	20.52529	-90.19979	1	92.50562	-77.18044	-2.23275E-008	-0.0001709	9
	40	108	30.04808	23.80029	-108.5446	1	111.1233	-77.63262	-4.21592E-007	-0.0001401	9
	41	111	23.91582	27.91152	-132.7466	1	135.6492	-78.12586	-3.745413E-007	-0.0001431	9
	42	113	18.60119	33.33693	-165.6954	1	169.0158	-78.62431	-3.342317E-007	-0.0001362	9
	43	115	15.02404	38.7769	-200.4585	1	204.1746	-79.05186	-1.304707E-007	-0.0001402	9
	44	118	12.01923	45.88228	-245.0056	1	249.2648	-79.39306	-1.178413E-007	-0.0001393	9
	45	120	9.450605	55.32396	-304.7009	1	309.6827	-79.70902	-1.668639E-007	-0.0001511	9
	46	123	7.512019	66.62276	-374.9637	1	380.8364	-79.92495	1.108465E-007	-0.0001278	9
	47	125	5.978954	80.99444	-460.0044	1	467.0805	-80.01411	4.017551E-007	-0.0001249	8
	48	128	4.734848	100.3643	-569.3685	1	578.1465	-80.003	5.048236E-007	-0.0001066	8
	49	132	3.75601	126.1535	-702.9149	1	714.1456	-79.82533	3.497273E-007	-0.0001399	8
	50	135	3.004808	159.0933	-860.4922	1	875.0757	-79.52508	4.694221E-007	-0.0001521	8
	51	139	2.372217	205.826	-1064.973	1	1084.681	-79.06139	3.987814E-007	-0.0001717	8
	52	143	1.878005	270.7551	-1312.507	1	1340.143	-78.34405	3.834961E-007	-0.00011	8
	53	148	1.512097	350.1518	-1588.721	1	1626.85	-77.57081	3.892901E-007	-0.0002238	8
	54	153	1.201923	459.9338	-1942.394	1	1996.105	-76.67845	3.846587E-007	-9.394916E-005	8
	55	159	0.956633	604.4183	-2361.295	1	2437.424	-75.64233	3.592438E-007	-0.0006693	8
