EXPLAIN
TAG	EISPOT
TITLE	LABEL	Potentiostatic EIS	Test Identifier
DATE	LABEL	10/12/2021	Date
TIME	LABEL	11:34:05	Time
NOTES	NOTES	1	Notes...
	
PSTAT	PSTAT	REF3000-16137	Potentiostat
VDC	POTEN	0.00000E+000	T	DC Voltage (V)
FREQINIT	QUANT	3.00000E+005	Initial Freq. (Hz)
FREQFINAL	QUANT	1.00000E+000	Final Freq. (Hz)
PTSPERDEC	QUANT	1.00000E+001	Points/decade
VAC	QUANT	5.00000E+001	AC Voltage (mV rms)
AREA	QUANT	1.00000E+000	Sample Area (cm^2)
SPEED	SELECTOR	2	Optimize for:
ZGUESS	QUANT	1.00000E+003	Estimated Z (ohms)
EOC	QUANT	0	Open Circuit (V)
SEQUENCER	TOGGLE	TRUE	Run as Sequence
PSTATMODEL	IQUANT	5	Pstat Model
PSTATSECTION	LABEL	REF3000-16137	Pstat Section
PSTATSERIALNO	LABEL	16137	Pstat Serial Number
CTRLMODE	IQUANT	1	Control Mode
IESTAB	IQUANT	0	I/E Stability
CASPEED	IQUANT	1	Control Amp Speed
CONVENTION	IQUANT	1	Current Convention
ICHRANGE	IQUANT	2	Ich Range
ICHRANGEMODE	TOGGLE	F	Ich Auto Range
ICHOFFSETENABLE	TOGGLE	T	Ich Offset Enable
ICHOFFSET	QUANT	0	Ich Offset (V)
ICHFILTER	IQUANT	3	Ich Filter
VCHRANGE	IQUANT	2	Vch Range
VCHRANGEMODE	TOGGLE	F	Vch Auto Range
VCHOFFSETENABLE	TOGGLE	T	Vch Offset Enable
VCHOFFSET	QUANT	0	Vch Offset (V)
VCHFILTER	IQUANT	3	Vch Filter
ACHRANGE	IQUANT	2	Ach Range
ACHOFFSETENABLE	TOGGLE	F	Ach Offset Enable
ACHOFFSET	QUANT	0	Ach Offset (V)
ACHFILTER	IQUANT	3	Ach Filter
IERANGELOWERLIMIT	IQUANT	2	I/E Range Lower Limit
IERANGEMODE	TOGGLE	F	I/E AutoRange
IERANGE	IQUANT	11	I/E Range
POSFEEDENABLE	TOGGLE	F	Positive Feedback IR Comp
POSFEEDRESISTANCE	QUANT	0	Positive Feedback Resistance (ohm)
ACHSELECT	IQUANT	0	Ach Select
CABLEID	IQUANT	13	Cable ID
DCCALDATE	LABEL	9/10/2021	DC Calibration Date
ACCALDATE	LABEL	9/10/2021	AC Calibration Date
THERMOSELECT	IQUANT	1	Thermo Select
FRAMEWORKVERSION	QUANT	6.33	Framework Version
INSTRUMENTVERSION	LABEL	3.50	Instrument Version
COMPLIANCEVOLTAGE	IQUANT	0	Compliance Voltage
ZCURVE	TABLE
	Pt	Time	Freq	Zreal	Zimag	Zsig	Zmod	Zphz	Idc	Vdc	IERange
	#	s	Hz	ohm	ohm	V	ohm	°	A	V	#
	0	10	300046.9	1.281087	2.414722	1	2.733508	62.05263	-0.0001109	-0.0007928	11
	1	13	238359.4	1.391513	1.798385	1	2.273872	52.26883	-0.0002619	-0.0011807	12
	2	18	189328.1	1.197641	1.512898	1	1.929561	51.63414	-3.992713E-005	-0.0004102	11
	3	20	150421.9	1.180458	1.189247	1	1.675646	45.21251	-3.304703E-005	-0.0002236	11
	4	23	119484.4	1.17142	0.9267455	1	1.493681	38.34857	-5.554138E-005	-0.0001592	11
	5	25	94921.88	1.163096	0.7110662	1	1.363234	31.4398	-6.745158E-005	-2.892439E-005	11
	6	28	75421.88	1.158295	0.530198	1	1.273875	24.59546	-5.282769E-005	-1.256075E-005	11
	7	30	59859.37	1.157689	0.3793619	1	1.218261	18.1434	-3.380182E-005	0.0000979	11
	8	33	47578.12	1.158799	0.2511793	1	1.185709	12.23013	-8.514924E-005	0.0001622	11
	9	35	37828.12	1.162	0.1363905	1	1.169978	6.694497	-2.391201E-005	0.0002402	11
	10	38	30046.88	1.166544	0.0302073	1	1.166935	1.483325	-3.407924E-005	0.0002714	11
	11	40	23859.38	1.173205	-0.0725729	1	1.175447	-3.539729	-0.0001033	0.0002805	11
	12	43	18984.38	1.181974	-0.1762433	1	1.195042	-8.480846	-2.50995E-005	0.0003407	11
	13	45	15046.87	1.193978	-0.2881414	1	1.228254	-13.56771	-4.47227E-005	0.0003489	11
	14	47	11953.13	1.209112	-0.4109642	1	1.277044	-18.77235	-5.758904E-005	0.0003489	11
	15	50	9515.62	1.227383	-0.5490824	1	1.344604	-24.10185	-8.408691E-005	0.0003321	11
	16	52	7546.875	1.252586	-0.7129952	1	1.441296	-29.64934	-7.18848E-005	0.000362	11
	17	54	5928.309	1.286332	-0.9155189	1	1.578869	-35.44053	-3.234115E-005	0.0003871	11
	18	57	4733.456	1.326532	-1.14243	1	1.750667	-40.73554	-8.825051E-005	0.0003472	11
	19	59	3796.875	1.376427	-1.407308	1	1.968519	-45.63557	-2.202934E-005	0.0003765	11
	20	61	2987.132	1.445428	-1.757873	1	2.275826	-50.57091	-7.673593E-005	0.0003447	11
	21	64	2390.625	1.526473	-2.152016	1	2.638426	-54.65107	-8.4829E-005	0.0003489	11
	22	66	1884.191	1.637965	-2.66264	1	3.126113	-58.4016	-2.366117E-005	0.0003832	11
	23	68	1516.544	1.764213	-3.226596	1	3.677414	-61.33138	-8.764907E-005	0.0003349	11
	24	71	1193.986	1.940245	-3.980959	1	4.42861	-64.01627	-2.493311E-005	-0.00013	10
	25	73	946.5144	2.150421	-4.869786	1	5.323451	-66.1745	-2.127181E-005	-0.0001669	10
	26	75	751.7689	2.410134	-5.935079	1	6.405771	-67.89877	-2.60534E-005	-0.0001322	10
	27	78	597.4265	2.728102	-7.22101	1	7.719166	-69.30341	1.879766E-005	-0.0001557	10
	28	80	477.4305	3.107256	-8.747018	1	9.28253	-70.44313	-3.556306E-006	-0.0001278	10
	29	82	376.6741	3.591124	-10.69223	1	11.27919	-71.43471	-3.629096E-006	-0.0001277	10
	30	85	298.2954	4.169517	-13.02434	1	13.67546	-72.24844	-3.33919E-006	-0.0001269	10
	31	87	237.7717	4.846031	-15.77122	1	16.49895	-72.91935	-3.399453E-006	-0.0001311	10
	32	89	189.0121	5.66536	-19.13752	1	19.95848	-73.50945	-1.913545E-006	-0.0001578	10
	33	92	150.2404	6.639034	-23.2252	1	24.15547	-74.04716	-3.543631E-006	-0.0001375	10
	34	94	119.1737	7.804211	-28.24911	1	29.3073	-74.55644	-4.125028E-006	-0.000134	10
	35	97	95.0169	9.141797	-34.22602	1	35.42588	-75.04536	-3.822063E-006	-0.0001369	10
	36	99	75.60484	10.71429	-41.53852	1	42.89808	-75.5366	-2.572537E-006	-0.0001514	9
	37	102	54.50582	13.50535	-55.03215	1	56.66509	-76.21162	-2.481683E-006	-0.000152	9
	38	104	45.95588	15.26788	-63.80807	1	65.60928	-76.54338	-2.018524E-006	-0.0001415	9
	39	107	37.20238	17.84297	-76.72598	1	78.77339	-76.9083	-2.263937E-006	-0.0001451	9
	40	109	30.04808	20.94977	-92.49337	1	94.83626	-77.23782	-2.552073E-006	-0.0001434	9
	41	111	23.91582	25.06491	-113.0781	1	115.8228	-77.50189	-2.58811E-006	-0.0001748	9
	42	114	18.60119	30.99709	-141.3013	1	144.6612	-77.62708	-2.239155E-006	-0.0001449	9
	43	116	15.02404	37.48039	-170.6883	1	174.7549	-77.61533	-1.938657E-006	-0.0001285	9
	44	118	12.01923	46.07709	-207.7512	1	212.7996	-77.4948	-2.313626E-006	-0.0001456	9
	45	121	9.450605	58.34567	-256.7757	1	263.3211	-77.19838	-2.457593E-006	-0.0001442	9
	46	123	7.512019	73.44055	-313.3938	1	321.8839	-76.81132	-2.226847E-006	-0.0001512	9
	47	126	5.978954	92.58685	-381.4623	1	392.5377	-76.35724	-2.164094E-006	-0.0001379	9
	48	129	4.734848	117.6371	-463.4142	1	478.1121	-75.7564	-1.831228E-006	-0.0001562	8
	49	132	3.75601	150.3461	-563.2379	1	582.9587	-75.0544	-1.671964E-006	-0.0001113	8
	50	136	3.004808	190.0202	-678.1555	1	704.2745	-74.34705	-1.749881E-006	-0.0001359	8
	51	139	2.372217	245.7881	-824.6072	1	860.4586	-73.40242	-1.842803E-006	-0.0002051	8
	52	144	1.878005	315.0167	-998.21	1	1046.738	-72.48527	-1.791387E-006	-0.0001231	8
	53	148	1.512097	398.055	-1186.297	1	1251.299	-71.45113	-1.851674E-006	-0.0001569	8
	54	154	1.201923	514.8183	-1428.162	1	1518.119	-70.17698	-1.804442E-006	-0.0001023	8
	55	160	0.956633	667.0823	-1705.915	1	1831.705	-68.64247	-1.91625E-006	-0.0006776	8
