EXPLAIN
TAG	EISPOT
TITLE	LABEL	Potentiostatic EIS	Test Identifier
DATE	LABEL	10/12/2021	Date
TIME	LABEL	13:31:33	Time
NOTES	NOTES	1	Notes...
	
PSTAT	PSTAT	REF3000-16137	Potentiostat
VDC	POTEN	0.00000E+000	T	DC Voltage (V)
FREQINIT	QUANT	3.00000E+005	Initial Freq. (Hz)
FREQFINAL	QUANT	1.00000E+000	Final Freq. (Hz)
PTSPERDEC	QUANT	1.00000E+001	Points/decade
VAC	QUANT	5.00000E+001	AC Voltage (mV rms)
AREA	QUANT	1.00000E+000	Sample Area (cm^2)
SPEED	SELECTOR	2	Optimize for:
ZGUESS	QUANT	1.00000E+003	Estimated Z (ohms)
EOC	QUANT	0	Open Circuit (V)
SEQUENCER	TOGGLE	TRUE	Run as Sequence
PSTATMODEL	IQUANT	5	Pstat Model
PSTATSECTION	LABEL	REF3000-16137	Pstat Section
PSTATSERIALNO	LABEL	16137	Pstat Serial Number
CTRLMODE	IQUANT	1	Control Mode
IESTAB	IQUANT	0	I/E Stability
CASPEED	IQUANT	1	Control Amp Speed
CONVENTION	IQUANT	1	Current Convention
ICHRANGE	IQUANT	2	Ich Range
ICHRANGEMODE	TOGGLE	F	Ich Auto Range
ICHOFFSETENABLE	TOGGLE	T	Ich Offset Enable
ICHOFFSET	QUANT	0	Ich Offset (V)
ICHFILTER	IQUANT	3	Ich Filter
VCHRANGE	IQUANT	2	Vch Range
VCHRANGEMODE	TOGGLE	F	Vch Auto Range
VCHOFFSETENABLE	TOGGLE	T	Vch Offset Enable
VCHOFFSET	QUANT	0	Vch Offset (V)
VCHFILTER	IQUANT	3	Vch Filter
ACHRANGE	IQUANT	2	Ach Range
ACHOFFSETENABLE	TOGGLE	F	Ach Offset Enable
ACHOFFSET	QUANT	0	Ach Offset (V)
ACHFILTER	IQUANT	3	Ach Filter
IERANGELOWERLIMIT	IQUANT	2	I/E Range Lower Limit
IERANGEMODE	TOGGLE	F	I/E AutoRange
IERANGE	IQUANT	11	I/E Range
POSFEEDENABLE	TOGGLE	F	Positive Feedback IR Comp
POSFEEDRESISTANCE	QUANT	0	Positive Feedback Resistance (ohm)
ACHSELECT	IQUANT	0	Ach Select
CABLEID	IQUANT	13	Cable ID
DCCALDATE	LABEL	9/10/2021	DC Calibration Date
ACCALDATE	LABEL	9/10/2021	AC Calibration Date
THERMOSELECT	IQUANT	1	Thermo Select
FRAMEWORKVERSION	QUANT	6.33	Framework Version
INSTRUMENTVERSION	LABEL	3.50	Instrument Version
COMPLIANCEVOLTAGE	IQUANT	0	Compliance Voltage
ZCURVE	TABLE
	Pt	Time	Freq	Zreal	Zimag	Zsig	Zmod	Zphz	Idc	Vdc	IERange
	#	s	Hz	ohm	ohm	V	ohm	°	A	V	#
	0	19	300046.9	23.38765	-4419.344	1	4419.406	-89.69678	-3.370727E-005	-0.0013353	9
	1	33	238359.4	125.9231	-5516.276	1	5517.713	-88.69231	-2.095571E-005	0.0010368	9
	2	48	189328.1	-476.0174	-7407.058	1	7422.338	-93.67708	2.606702E-005	0.000748	9
	3	60	150421.9	-526.1151	-9244.01	1	9258.97	-93.25743	2.180635E-006	0.0014876	9
	4	70	119484.4	726.613	-10696	1	10720.66	-86.11369	-8.717848E-006	-0.0149701	8
	5	78	94921.88	943.4955	-13459.51	1	13492.54	-85.9902	-2.747973E-005	0.0094208	8
	6	87	75421.88	954.506	-16487.04	1	16514.65	-86.6866	-2.05703E-006	-0.0057654	8
	7	96	59859.37	1051.346	-20786.93	1	20813.5	-87.10461	7.514002E-006	-0.0084981	8
	8	104	47578.12	4270.479	-26728.82	1	27067.82	-80.92254	7.738389E-006	-0.0203055	7
	9	111	37828.12	5067.854	-33187.87	1	33572.57	-81.31789	5.265365E-006	-0.002574	7
	10	118	30046.88	6073.958	-41521.66	1	41963.57	-81.67757	5.285607E-006	-0.0027479	7
	11	126	23859.38	7448.307	-51644.95	1	52179.29	-81.79331	-1.508039E-006	0.0210151	7
	12	131	18984.38	8351.851	-64651.54	1	65188.77	-82.63915	-5.739207E-006	0.0041144	7
	13	136	15046.87	10271.01	-79572.2	1	80232.34	-82.64505	8.160136E-007	0.0147697	7
	14	142	11953.13	12541.05	-101336.3	1	102109.4	-82.94513	6.921585E-006	-0.0122271	7
	15	147	9515.62	18509.34	-123497.1	1	124876.4	-81.47614	-3.673008E-006	-0.0049732	7
	16	153	7546.875	14854.78	-147253.7	1	148001.1	-84.23956	9.635831E-007	0.014643	7
	17	160	5928.309	36725.05	-205981	1	209229.3	-79.89077	6.917149E-006	-0.0121283	7
	18	165	4733.456	51093.91	-262027.8	1	266962.8	-78.96611	6.870498E-006	-0.0285175	7
	19	172	3796.875	60175.47	-305840.1	1	311703.8	-78.86897	7.847702E-006	-0.0263393	7
	20	178	2987.132	154725.9	-389364.4	1	418980.6	-68.32809	9.832265E-006	0.0030865	8
	21	187	2390.625	32121.26	-464962.7	1	466070.9	-86.04809	-5.554115E-006	0.0039018	7
	22	195	1884.191	138168.1	1266045	1	1273562	83.77175	-1.10597E-005	0.009534	8
	23	202	1516.544	220352	-754222.2	1	785751.9	-73.71385	1.024897E-006	-0.0203443	7
	24	210	1193.986	330038.5	-790890.7	1	856990.9	-67.34924	3.198917E-008	0.0160327	6
	25	215	946.5144	412253.4	-1064724	1	1141749	-68.83396	-6.82273E-007	0.0108254	6
	26	219	751.7689	514717.7	-1144043	1	1254500	-65.77649	4.167772E-008	0.0156795	6
	27	223	597.4265	600681.3	-1242687	1	1380249	-64.20213	-7.605807E-008	-0.0150859	6
	28	228	477.4305	993669	-1498534	1	1798050	-56.45189	-6.232178E-010	-0.0001012	5
	29	230	376.6741	1172577	-1726847	1	2087328	-55.82243	-6.396057E-010	-6.225535E-005	5
	30	233	298.2954	1389871	-2002906	1	2437904	-55.24216	-6.786159E-010	-7.83532E-005	5
	31	236	237.7717	1433605	-2354006	1	2756187	-58.65831	-6.893492E-009	-8.498765E-005	6
	32	240	189.0121	1953291	-2660780	1	3300772	-53.71743	-7.190491E-010	-4.993651E-005	5
	33	243	150.2404	2321535	-3063892	1	3844081	-52.8485	-7.264343E-010	-4.985847E-005	5
	34	246	119.1737	2330805	-3477488	1	4186356	-56.16782	-7.167652E-010	-5.07765E-005	5
	35	249	95.0169	3361338	-3914721	1	5159810	-49.34927	-6.571843E-010	-0.0001074	5
	36	252	75.60484	3970014	-4430986	1	5949340	-48.14073	-7.00371E-010	-8.375656E-006	5
	37	255	54.50582	5083404	-5053432	1	7167857	-44.83059	-6.672917E-010	-9.490137E-005	5
	38	258	45.95588	6727394	-5024494	1	8396628	-36.75498	-5.70243E-011	0.0003882	4
	39	260	37.20238	7574162	-5379259	1	9290013	-35.38282	-7.111779E-011	0.0004898	4
	40	263	30.04808	8473216	-5730394	1	1.022902E+007	-34.0703	-6.124163E-011	0.0004324	4
	41	266	23.91582	9.505331E+006	-6067240	1	1.127665E+007	-32.55003	-6.741379E-011	0.0004722	4
	42	269	18.60119	1.105739E+007	-6658268	1	1.29073E+007	-31.05449	-1.454134E-010	0.0004547	4
	43	271	15.02404	1.199837E+007	-6597880	1	1.36928E+007	-28.80632	-6.717694E-011	0.0004457	4
	44	274	12.01923	1.327334E+007	-6756876	1	1.489419E+007	-26.97865	-5.667479E-011	0.0004091	4
	45	276	9.450605	1.470311E+007	-6865104	1	1.622686E+007	-25.02858	-5.853253E-011	0.0004205	4
	46	279	7.512019	1.62022E+007	-6922015	1	1.761889E+007	-23.13348	-5.944762E-011	0.0004624	4
	47	282	5.978954	1.784106E+007	-7005318	1	1.91671E+007	-21.43752	-5.857501E-011	0.0004852	4
	48	286	4.734848	1.960744E+007	-6963557	1	2.080728E+007	-19.55243	-5.961811E-011	0.0004286	4
	49	291	3.75601	2.155445E+007	-6886046	1	2.262768E+007	-17.71723	-5.829748E-011	0.0004347	4
	50	297	3.004808	2.364689E+007	-6885709	1	2.462902E+007	-16.23496	-6.56567E-011	0.0004627	4
	51	303	2.372217	2.585176E+007	-6727155	1	2.67127E+007	-14.58604	-6.507967E-011	0.0003955	4
	52	307	1.878005	2.784765E+007	-6366887	1	2.856621E+007	-12.87835	-6.231555E-011	0.0004475	4
	53	312	1.512097	2.991099E+007	-6047882	1	3.05163E+007	-11.43086	-6.493048E-011	0.0002986	4
	54	317	1.201923	3.222919E+007	-5766176	1	3.274094E+007	-10.14356	-6.109029E-011	0.0004537	4
	55	324	0.956633	3.4711E+007	-5462438	1	3.513818E+007	-8.943239	-7.316377E-011	-0.0001064	4
