EXPLAIN
TAG	EISPOT
TITLE	LABEL	Potentiostatic EIS	Test Identifier
DATE	LABEL	10/12/2021	Date
TIME	LABEL	12:30:49	Time
NOTES	NOTES	1	Notes...
	
PSTAT	PSTAT	REF3000-16137	Potentiostat
VDC	POTEN	0.00000E+000	T	DC Voltage (V)
FREQINIT	QUANT	3.00000E+005	Initial Freq. (Hz)
FREQFINAL	QUANT	1.00000E+000	Final Freq. (Hz)
PTSPERDEC	QUANT	1.00000E+001	Points/decade
VAC	QUANT	5.00000E+001	AC Voltage (mV rms)
AREA	QUANT	1.00000E+000	Sample Area (cm^2)
SPEED	SELECTOR	2	Optimize for:
ZGUESS	QUANT	1.00000E+003	Estimated Z (ohms)
EOC	QUANT	0	Open Circuit (V)
SEQUENCER	TOGGLE	TRUE	Run as Sequence
PSTATMODEL	IQUANT	5	Pstat Model
PSTATSECTION	LABEL	REF3000-16137	Pstat Section
PSTATSERIALNO	LABEL	16137	Pstat Serial Number
CTRLMODE	IQUANT	1	Control Mode
IESTAB	IQUANT	0	I/E Stability
CASPEED	IQUANT	1	Control Amp Speed
CONVENTION	IQUANT	1	Current Convention
ICHRANGE	IQUANT	2	Ich Range
ICHRANGEMODE	TOGGLE	F	Ich Auto Range
ICHOFFSETENABLE	TOGGLE	T	Ich Offset Enable
ICHOFFSET	QUANT	0	Ich Offset (V)
ICHFILTER	IQUANT	3	Ich Filter
VCHRANGE	IQUANT	2	Vch Range
VCHRANGEMODE	TOGGLE	F	Vch Auto Range
VCHOFFSETENABLE	TOGGLE	T	Vch Offset Enable
VCHOFFSET	QUANT	0	Vch Offset (V)
VCHFILTER	IQUANT	3	Vch Filter
ACHRANGE	IQUANT	2	Ach Range
ACHOFFSETENABLE	TOGGLE	F	Ach Offset Enable
ACHOFFSET	QUANT	0	Ach Offset (V)
ACHFILTER	IQUANT	3	Ach Filter
IERANGELOWERLIMIT	IQUANT	2	I/E Range Lower Limit
IERANGEMODE	TOGGLE	F	I/E AutoRange
IERANGE	IQUANT	11	I/E Range
POSFEEDENABLE	TOGGLE	F	Positive Feedback IR Comp
POSFEEDRESISTANCE	QUANT	0	Positive Feedback Resistance (ohm)
ACHSELECT	IQUANT	0	Ach Select
CABLEID	IQUANT	13	Cable ID
DCCALDATE	LABEL	9/10/2021	DC Calibration Date
ACCALDATE	LABEL	9/10/2021	AC Calibration Date
THERMOSELECT	IQUANT	1	Thermo Select
FRAMEWORKVERSION	QUANT	6.33	Framework Version
INSTRUMENTVERSION	LABEL	3.50	Instrument Version
COMPLIANCEVOLTAGE	IQUANT	0	Compliance Voltage
ZCURVE	TABLE
	Pt	Time	Freq	Zreal	Zimag	Zsig	Zmod	Zphz	Idc	Vdc	IERange
	#	s	Hz	ohm	ohm	V	ohm	°	A	V	#
	0	10	300046.9	4.28533	2.352502	1	4.888591	28.76531	8.381293E-006	-0.0007898	10
	1	13	238359.4	4.29027	1.864693	1	4.67798	23.49135	-2.95751E-005	-0.0011625	10
	2	16	189328.1	4.282726	1.453731	1	4.522729	18.7493	4.673064E-005	-0.0007121	10
	3	19	150421.9	4.281347	1.12853	1	4.427586	14.76684	7.418317E-005	-0.0007565	10
	4	21	119484.4	4.295445	0.8496499	1	4.37867	11.18882	-1.756436E-005	-0.0004448	10
	5	24	94921.88	4.316474	0.6323186	1	4.362543	8.333959	3.726612E-005	-0.0003404	10
	6	26	75421.88	4.335254	0.4378399	1	4.357307	5.767045	-1.25741E-005	-0.0002556	10
	7	29	59859.37	4.35731	0.2679374	1	4.365541	3.518771	1.42855E-005	-0.0002315	10
	8	31	47578.12	4.382795	0.1168361	1	4.384352	1.527024	2.088238E-005	-0.0002295	10
	9	34	37828.12	4.413352	-0.023041	1	4.413412	-0.299124	8.496199E-006	-0.0001626	10
	10	37	30046.88	4.446978	-0.1589685	1	4.449819	-2.047311	-1.921793E-005	-0.0001816	10
	11	39	23859.38	4.484067	-0.296286	1	4.493845	-3.780339	-1.969486E-005	-0.0001657	10
	12	41	18984.38	4.524061	-0.4397323	1	4.545381	-5.551629	3.318957E-006	-0.0001656	10
	13	44	15046.87	4.57107	-0.5996823	1	4.610239	-7.473996	7.125737E-006	-0.0001549	10
	14	46	11953.13	4.624226	-0.7793083	1	4.689433	-9.56602	-2.045644E-005	-0.0001036	10
	15	48	9515.62	4.683171	-0.986123	1	4.785868	-11.89091	-1.282657E-005	-0.0001455	10
	16	51	7546.875	4.752963	-1.232718	1	4.910219	-14.53975	-5.402908E-006	-0.0001536	10
	17	53	5928.309	4.836453	-1.539256	1	5.075489	-17.65426	-1.446228E-005	-0.0001249	10
	18	55	4733.456	4.927772	-1.883589	1	5.275495	-20.91883	2.355967E-005	-0.0001499	10
	19	58	3796.875	5.0316	-2.289725	1	5.528096	-24.46881	1.787978E-005	-0.0001597	10
	20	60	2987.132	5.162292	-2.823478	1	5.883986	-28.67613	1.553385E-005	-0.0001414	10
	21	62	2390.625	5.307089	-3.425995	1	6.316854	-32.8443	-1.342472E-005	-0.0001227	10
	22	65	1884.191	5.483246	-4.218339	1	6.918119	-37.57159	-1.445436E-005	-0.0001223	10
	23	67	1516.544	5.675109	-5.096638	1	7.627751	-41.92602	5.694033E-006	-0.0001407	10
	24	69	1193.986	5.926614	-6.279791	1	8.634844	-46.65732	2.301555E-005	-0.0001481	10
	25	72	946.5144	6.225275	-7.688745	1	9.89297	-51.00427	1.878594E-005	-0.0001594	10
	26	74	751.7689	6.56961	-9.42362	1	11.48758	-55.11799	-1.519059E-005	-0.0001675	10
	27	77	597.4265	6.99713	-11.53377	1	13.49028	-58.75629	1.775318E-005	-0.0001567	10
	28	79	477.4305	7.507855	-14.06947	1	15.94734	-61.91439	-1.715214E-006	-0.0001183	10
	29	81	376.6741	8.16634	-17.34226	1	19.16881	-64.78461	-1.492152E-006	-0.000122	10
	30	84	298.2954	8.972477	-21.31061	1	23.12245	-67.16729	-2.079773E-006	-0.0001176	10
	31	86	237.7717	9.95001	-26.03623	1	27.87271	-69.08514	-2.124465E-006	-0.0001181	10
	32	88	189.0121	11.18689	-31.88517	1	33.79069	-70.66662	-2.422231E-006	-0.0001184	10
	33	91	150.2404	12.73576	-39.01947	1	41.04533	-71.92358	-2.258441E-006	-0.000119	10
	34	93	119.1737	14.68077	-47.74859	1	49.95451	-72.90945	2.644765E-007	-0.0001322	9
	35	96	95.0169	17.07614	-58.17473	1	60.62915	-73.64136	2.046437E-007	-0.0001358	9
	36	98	75.60484	20.08023	-70.93106	1	73.7186	-74.19344	1.20834E-007	-0.0001356	9
	37	101	54.50582	25.64044	-94.00808	1	97.442	-74.74382	1.381059E-007	-0.0001343	9
	38	103	45.95588	29.26084	-108.8204	1	112.6857	-74.94966	2.822022E-007	-0.0001312	9
	39	106	37.20238	34.5735	-130.347	1	134.8542	-75.14481	2.640618E-007	-0.0001305	9
	40	108	30.04808	40.92318	-156.2831	1	161.5522	-75.32639	1.808318E-007	-0.0001443	9
	41	110	23.91582	49.20868	-189.7742	1	196.0503	-75.46329	9.323479E-008	-0.000132	9
	42	113	18.60119	60.03971	-234.5687	1	242.1306	-75.64293	3.735248E-007	-0.0001357	9
	43	115	15.02404	71.107	-281.0556	1	289.9112	-75.80211	3.46167E-007	-0.0001211	9
	44	117	12.01923	84.64429	-339.4086	1	349.804	-75.99679	1.615591E-007	-0.0001298	9
	45	120	9.450605	101.131	-414.2221	1	426.3888	-76.27982	6.444364E-007	-0.0001239	8
	46	122	7.512019	119.8464	-503.4443	1	517.5127	-76.60979	5.690992E-007	-0.000137	8
	47	125	5.978954	141.4279	-611.863	1	627.9954	-76.98505	6.317833E-007	-0.0001228	8
	48	128	4.734848	166.4198	-748.4258	1	766.7051	-77.46368	5.750668E-007	-0.0001455	8
	49	131	3.75601	195.5905	-915.5306	1	936.1901	-77.94083	6.276489E-007	-0.0001032	8
	50	135	3.004808	228.0944	-1113.535	1	1136.656	-78.42377	5.912871E-007	-0.0001309	8
	51	139	2.372217	270.2267	-1374.521	1	1400.832	-78.87767	5.578548E-007	-0.0001868	8
	52	143	1.878005	316.5735	-1695.967	1	1725.26	-79.4267	6.036379E-007	-0.0001131	8
	53	148	1.512097	372.3395	-2058.531	1	2091.933	-79.7474	5.706483E-007	-0.0002084	8
	54	153	1.201923	441.282	-2544.813	1	2582.79	-80.16248	5.78304E-007	-9.42527E-005	8
	55	159	0.956633	529.1487	-3138.402	1	3182.698	-80.42968	5.675703E-007	-0.0006665	8
