EXPLAIN
TAG	EISPOT
TITLE	LABEL	Potentiostatic EIS	Test Identifier
DATE	LABEL	10/12/2021	Date
TIME	LABEL	12:02:20	Time
NOTES	NOTES	1	Notes...
	
PSTAT	PSTAT	REF3000-16137	Potentiostat
VDC	POTEN	0.00000E+000	T	DC Voltage (V)
FREQINIT	QUANT	3.00000E+005	Initial Freq. (Hz)
FREQFINAL	QUANT	1.00000E+000	Final Freq. (Hz)
PTSPERDEC	QUANT	1.00000E+001	Points/decade
VAC	QUANT	5.00000E+001	AC Voltage (mV rms)
AREA	QUANT	1.00000E+000	Sample Area (cm^2)
SPEED	SELECTOR	2	Optimize for:
ZGUESS	QUANT	1.00000E+003	Estimated Z (ohms)
EOC	QUANT	0	Open Circuit (V)
SEQUENCER	TOGGLE	TRUE	Run as Sequence
PSTATMODEL	IQUANT	5	Pstat Model
PSTATSECTION	LABEL	REF3000-16137	Pstat Section
PSTATSERIALNO	LABEL	16137	Pstat Serial Number
CTRLMODE	IQUANT	1	Control Mode
IESTAB	IQUANT	0	I/E Stability
CASPEED	IQUANT	1	Control Amp Speed
CONVENTION	IQUANT	1	Current Convention
ICHRANGE	IQUANT	2	Ich Range
ICHRANGEMODE	TOGGLE	F	Ich Auto Range
ICHOFFSETENABLE	TOGGLE	T	Ich Offset Enable
ICHOFFSET	QUANT	0	Ich Offset (V)
ICHFILTER	IQUANT	3	Ich Filter
VCHRANGE	IQUANT	2	Vch Range
VCHRANGEMODE	TOGGLE	F	Vch Auto Range
VCHOFFSETENABLE	TOGGLE	T	Vch Offset Enable
VCHOFFSET	QUANT	0	Vch Offset (V)
VCHFILTER	IQUANT	3	Vch Filter
ACHRANGE	IQUANT	2	Ach Range
ACHOFFSETENABLE	TOGGLE	F	Ach Offset Enable
ACHOFFSET	QUANT	0	Ach Offset (V)
ACHFILTER	IQUANT	3	Ach Filter
IERANGELOWERLIMIT	IQUANT	2	I/E Range Lower Limit
IERANGEMODE	TOGGLE	F	I/E AutoRange
IERANGE	IQUANT	11	I/E Range
POSFEEDENABLE	TOGGLE	F	Positive Feedback IR Comp
POSFEEDRESISTANCE	QUANT	0	Positive Feedback Resistance (ohm)
ACHSELECT	IQUANT	0	Ach Select
CABLEID	IQUANT	13	Cable ID
DCCALDATE	LABEL	9/10/2021	DC Calibration Date
ACCALDATE	LABEL	9/10/2021	AC Calibration Date
THERMOSELECT	IQUANT	1	Thermo Select
FRAMEWORKVERSION	QUANT	6.33	Framework Version
INSTRUMENTVERSION	LABEL	3.50	Instrument Version
COMPLIANCEVOLTAGE	IQUANT	0	Compliance Voltage
ZCURVE	TABLE
	Pt	Time	Freq	Zreal	Zimag	Zsig	Zmod	Zphz	Idc	Vdc	IERange
	#	s	Hz	ohm	ohm	V	ohm	°	A	V	#
	0	10	300046.9	1.499752	2.388616	1	2.820415	57.87632	-3.019211E-005	-0.0006924	11
	1	13	238359.4	1.602723	1.773432	1	2.390351	47.89459	-0.0002072	-0.0013428	12
	2	18	189328.1	1.518069	1.398733	1	2.064216	42.65715	-0.0001459	-0.0009946	12
	3	21	150421.9	1.403834	1.180533	1	1.834232	40.06166	4.309821E-005	-0.0001978	11
	4	24	119484.4	1.392613	0.9128307	1	1.665122	33.24406	-7.106517E-005	-0.0001339	11
	5	26	94921.88	1.386662	0.6970924	1	1.552021	26.68925	-4.205931E-005	-2.349841E-005	11
	6	29	75421.88	1.384269	0.51456	1	1.476811	20.39109	-3.445423E-005	7.054667E-005	11
	7	31	59859.37	1.384204	0.3615908	1	1.430653	14.64002	-5.306604E-005	0.0001254	11
	8	34	47578.12	1.386452	0.2281026	1	1.405091	9.34275	-2.297064E-005	0.0002397	11
	9	37	37828.12	1.391074	0.1093884	1	1.395368	4.496254	-7.319701E-005	0.000274	11
	10	39	30046.88	1.396831	-0.0033999	1	1.396835	-0.1394582	-2.518922E-005	0.0002662	11
	11	42	23859.38	1.404666	-0.1143551	1	1.409313	-4.654235	-7.606396E-005	0.0003337	11
	12	44	18984.38	1.414108	-0.2279045	1	1.432355	-9.155342	-7.428275E-005	0.0003476	11
	13	46	15046.87	1.426742	-0.3522581	1	1.469585	-13.86878	-7.432207E-005	0.0003504	11
	14	48	11953.13	1.442989	-0.4900273	1	1.523924	-18.75707	-2.926312E-005	0.0003848	11
	15	51	9515.62	1.463009	-0.647838	1	1.600028	-23.88434	-6.406506E-005	0.0003724	11
	16	53	7546.875	1.48838	-0.8359064	1	1.707049	-29.31951	-2.422459E-005	0.000388	11
	17	55	5928.309	1.522416	-1.072072	1	1.862012	-35.15288	-3.376279E-005	0.0003921	11
	18	58	4733.456	1.563103	-1.337989	1	2.057548	-40.56294	-8.130587E-005	0.0003677	11
	19	60	3796.875	1.61417	-1.651184	1	2.309103	-45.64944	-1.806095E-005	0.0004011	11
	20	62	2987.132	1.683743	-2.067912	1	2.666693	-50.8467	-2.306841E-005	0.0004011	11
	21	65	2390.625	1.76623	-2.541547	1	3.095001	-55.2029	-2.138707E-005	0.0003895	11
	22	67	1884.191	1.879771	-3.155536	1	3.673002	-59.2175	-2.284258E-005	0.0003936	11
	23	69	1516.544	2.01239	-3.8439	1	4.338811	-62.36668	-1.227824E-005	-0.0001381	10
	24	72	1193.986	2.193036	-4.764576	1	5.245055	-65.28436	-1.234931E-005	-0.0001217	10
	25	74	946.5144	2.414794	-5.861595	1	6.339521	-67.60987	2.527603E-005	-0.000134	10
	26	77	751.7689	2.69992	-7.18512	1	7.675645	-69.40551	-1.894285E-005	-0.0001169	10
	27	79	597.4265	3.054178	-8.792795	1	9.308128	-70.84533	-1.134989E-005	-0.0001239	10
	28	81	477.4305	3.492993	-10.69639	1	11.25227	-71.91512	-5.946317E-007	-0.0001168	10
	29	83	376.6741	4.062028	-13.13172	1	13.74562	-72.81162	-4.982791E-007	-0.0001225	10
	30	86	298.2954	4.753613	-16.05046	1	16.7396	-73.50246	-3.298851E-007	-0.0001167	10
	31	88	237.7717	5.572666	-19.48993	1	20.27097	-74.04343	-5.275024E-007	-0.0001196	10
	32	91	189.0121	6.576989	-23.70588	1	24.60133	-74.49379	-1.132367E-006	-0.00012	10
	33	93	150.2404	7.791531	-28.82541	1	29.85987	-74.87436	-1.563589E-006	-0.0001206	10
	34	95	119.1737	9.263339	-35.09659	1	36.29849	-75.21462	-1.921585E-006	-0.0001173	10
	35	98	95.0169	10.96557	-42.48787	1	43.88009	-75.52849	-1.228863E-007	-0.0001346	9
	36	100	75.60484	13.00976	-51.5836	1	53.19889	-75.8448	-2.770248E-007	-0.0001316	9
	37	103	54.50582	16.55827	-68.13062	1	70.11388	-76.33984	-2.133176E-007	-0.0001369	9
	38	105	45.95588	18.74466	-78.8497	1	81.04713	-76.6275	1.591822E-007	-0.0001351	9
	39	108	37.20238	21.78214	-94.50642	1	96.9841	-77.02094	-1.29548E-007	-0.0001328	9
	40	110	30.04808	25.36689	-113.7026	1	116.4979	-77.42336	-1.327509E-007	-0.0001332	9
	41	113	23.91582	29.72981	-138.7563	1	141.9055	-77.90669	-2.879838E-007	-0.0001394	9
	42	115	18.60119	35.4819	-172.9792	1	176.5808	-78.40814	1.137798E-007	-0.0001386	9
	43	117	15.02404	41.30444	-209.082	1	213.1229	-78.82503	5.358812E-007	-0.0001648	9
	44	120	12.01923	48.48714	-255.2208	1	259.7858	-79.24308	2.173017E-008	-0.0001441	9
	45	122	9.450605	58.01725	-317.0155	1	322.2807	-79.62902	-1.555864E-008	-0.0001231	9
	46	124	7.512019	68.92262	-390.3225	1	396.361	-79.98602	1.893098E-007	-0.0001224	9
	47	127	5.978954	82.69561	-478.2853	1	485.3817	-80.19054	5.738149E-007	-0.0001279	8
	48	130	4.734848	101.2007	-591.9308	1	600.5195	-80.29811	6.353575E-007	-0.0001019	8
	49	134	3.75601	124.9783	-732.0671	1	742.6586	-80.31188	6.030518E-007	-0.0001271	8
	50	137	3.004808	155.2614	-897.4724	1	910.8034	-80.18507	5.525495E-007	-9.106788E-005	8
	51	141	2.372217	197.1915	-1113.766	1	1131.087	-79.95986	5.436867E-007	-6.416049E-005	8
	52	145	1.878005	255.81	-1376.969	1	1400.529	-79.47571	5.700835E-007	-0.0001483	8
	53	150	1.512097	326.9454	-1674.501	1	1706.12	-78.95203	5.641272E-007	-1.683091E-005	8
	54	155	1.201923	428.2824	-2056.876	1	2100.991	-78.23795	5.900624E-007	-0.0001425	8
	55	161	0.956633	561.6958	-2515.341	1	2577.294	-77.41193	5.115349E-007	-0.0006707	8
