EXPLAIN
TAG	EISPOT
TITLE	LABEL	Potentiostatic EIS	Test Identifier
DATE	LABEL	10/12/2021	Date
TIME	LABEL	12:39:14	Time
NOTES	NOTES	1	Notes...
	
PSTAT	PSTAT	REF3000-16137	Potentiostat
VDC	POTEN	0.00000E+000	T	DC Voltage (V)
FREQINIT	QUANT	3.00000E+005	Initial Freq. (Hz)
FREQFINAL	QUANT	1.00000E+000	Final Freq. (Hz)
PTSPERDEC	QUANT	1.00000E+001	Points/decade
VAC	QUANT	5.00000E+001	AC Voltage (mV rms)
AREA	QUANT	1.00000E+000	Sample Area (cm^2)
SPEED	SELECTOR	2	Optimize for:
ZGUESS	QUANT	1.00000E+003	Estimated Z (ohms)
EOC	QUANT	0	Open Circuit (V)
SEQUENCER	TOGGLE	TRUE	Run as Sequence
PSTATMODEL	IQUANT	5	Pstat Model
PSTATSECTION	LABEL	REF3000-16137	Pstat Section
PSTATSERIALNO	LABEL	16137	Pstat Serial Number
CTRLMODE	IQUANT	1	Control Mode
IESTAB	IQUANT	0	I/E Stability
CASPEED	IQUANT	1	Control Amp Speed
CONVENTION	IQUANT	1	Current Convention
ICHRANGE	IQUANT	2	Ich Range
ICHRANGEMODE	TOGGLE	F	Ich Auto Range
ICHOFFSETENABLE	TOGGLE	T	Ich Offset Enable
ICHOFFSET	QUANT	0	Ich Offset (V)
ICHFILTER	IQUANT	3	Ich Filter
VCHRANGE	IQUANT	2	Vch Range
VCHRANGEMODE	TOGGLE	F	Vch Auto Range
VCHOFFSETENABLE	TOGGLE	T	Vch Offset Enable
VCHOFFSET	QUANT	0	Vch Offset (V)
VCHFILTER	IQUANT	3	Vch Filter
ACHRANGE	IQUANT	2	Ach Range
ACHOFFSETENABLE	TOGGLE	F	Ach Offset Enable
ACHOFFSET	QUANT	0	Ach Offset (V)
ACHFILTER	IQUANT	3	Ach Filter
IERANGELOWERLIMIT	IQUANT	2	I/E Range Lower Limit
IERANGEMODE	TOGGLE	F	I/E AutoRange
IERANGE	IQUANT	11	I/E Range
POSFEEDENABLE	TOGGLE	F	Positive Feedback IR Comp
POSFEEDRESISTANCE	QUANT	0	Positive Feedback Resistance (ohm)
ACHSELECT	IQUANT	0	Ach Select
CABLEID	IQUANT	13	Cable ID
DCCALDATE	LABEL	9/10/2021	DC Calibration Date
ACCALDATE	LABEL	9/10/2021	AC Calibration Date
THERMOSELECT	IQUANT	1	Thermo Select
FRAMEWORKVERSION	QUANT	6.33	Framework Version
INSTRUMENTVERSION	LABEL	3.50	Instrument Version
COMPLIANCEVOLTAGE	IQUANT	0	Compliance Voltage
ZCURVE	TABLE
	Pt	Time	Freq	Zreal	Zimag	Zsig	Zmod	Zphz	Idc	Vdc	IERange
	#	s	Hz	ohm	ohm	V	ohm	°	A	V	#
	0	8	300046.9	9.148724	2.230864	1	9.416788	13.70382	-0.0001042	-0.0007947	10
	1	11	238359.4	9.194235	1.716623	1	9.353114	10.57573	1.459202E-005	-0.0007342	10
	2	14	189328.1	9.228179	1.304965	1	9.31999	8.048877	7.082293E-005	-0.0007197	10
	3	17	150421.9	9.280965	0.97463	1	9.332	5.994878	6.959336E-005	-0.0003752	10
	4	19	119484.4	9.33393	0.6841637	1	9.358971	4.192202	7.014661E-005	-0.0004547	10
	5	22	94921.88	9.399493	0.4542576	1	9.410463	2.766831	2.423821E-005	-0.0002348	10
	6	24	75421.88	9.466892	0.2400249	1	9.469934	1.452374	2.051781E-005	-0.0002182	10
	7	27	59859.37	9.54269	0.0491444	1	9.54282	0.2950679	-3.064169E-005	-0.0001711	10
	8	30	47578.12	9.62649	-0.1222768	1	9.62727	-0.7277385	1.058622E-005	-0.0001339	10
	9	32	37828.12	9.71429	-0.2812974	1	9.71836	-1.658656	6.307254E-006	-0.0001794	10
	10	35	30046.88	9.80888	-0.4387813	1	9.81868	-2.56131	1.992216E-005	-0.0001709	10
	11	37	23859.38	9.90805	-0.5998567	1	9.92619	-3.464593	1.789772E-005	-0.0001737	10
	12	39	18984.38	10.01264	-0.7722717	1	10.04238	-4.410471	1.355119E-005	-0.0001702	10
	13	42	15046.87	10.126	-0.96526	1	10.1719	-5.445262	1.955697E-005	-0.000115	10
	14	44	11953.13	10.24867	-1.181948	1	10.3166	-6.578689	-2.394734E-005	-8.888262E-005	10
	15	46	9515.62	10.37853	-1.43107	1	10.47673	-7.85087	1.436283E-005	-0.0001684	10
	16	49	7546.875	10.52403	-1.727121	1	10.66481	-9.319856	-9.643795E-006	-0.0001249	10
	17	51	5928.309	10.69262	-2.100701	1	10.89703	-11.11492	-2.504021E-005	-0.000117	10
	18	53	4733.456	10.87078	-2.517432	1	11.15847	-13.0386	-1.415124E-005	-0.0001114	10
	19	56	3796.875	11.0668	-3.004899	1	11.4675	-15.19092	-1.781034E-005	-0.0001824	10
	20	58	2987.132	11.30312	-3.64106	1	11.87509	-17.85525	2.388863E-005	-0.0001553	10
	21	60	2390.625	11.5586	-4.362365	1	12.35441	-20.67716	-1.854465E-005	-0.0001384	10
	22	63	1884.191	11.86795	-5.291014	1	12.99397	-24.02844	-1.718539E-005	-0.0001275	10
	23	65	1516.544	12.19502	-6.315966	1	13.73353	-27.38026	1.631033E-005	-0.0001344	10
	24	67	1193.986	12.60619	-7.682634	1	14.76276	-31.35952	-1.160494E-005	-0.0001332	10
	25	70	946.5144	13.07225	-9.315714	1	16.05198	-35.47493	2.035217E-005	-0.0001574	10
	26	72	751.7689	13.60859	-11.27464	1	17.67233	-39.64156	-2.891171E-005	-0.0001034	10
	27	75	597.4265	14.23889	-13.66257	1	19.73352	-43.8167	1.675556E-005	-0.0001346	10
	28	77	477.4305	14.96371	-16.50337	1	22.2772	-47.80122	-1.414024E-006	-0.0001129	10
	29	79	376.6741	15.85212	-20.16136	1	25.64703	-51.82336	-1.194431E-006	-0.0001175	10
	30	82	298.2954	16.89156	-24.59094	1	29.83353	-55.51476	-1.630729E-006	-0.0001183	10
	31	84	237.7717	18.09494	-29.85906	1	34.91404	-58.78365	-1.764527E-006	-0.0001171	10
	32	86	189.0121	19.52641	-36.33662	1	41.25083	-61.74751	3.656423E-007	-0.0001332	9
	33	89	150.2404	21.28044	-44.31433	1	49.1591	-64.34895	2.959504E-007	-0.0001296	9
	34	91	119.1737	23.43526	-54.18629	1	59.03698	-66.61179	2.956265E-007	-0.0001276	9
	35	94	95.0169	26.01881	-65.99505	1	70.93888	-68.48296	3.397901E-007	-0.0001342	9
	36	96	75.60484	29.23534	-80.54358	1	85.68531	-70.05035	2.459732E-007	-0.0001398	9
	37	99	54.50582	35.19217	-107.075	1	112.71	-71.80594	2.388679E-007	-0.000139	9
	38	101	45.95588	39.15014	-124.2076	1	130.2315	-72.50519	2.465022E-007	-0.0001325	9
	39	104	37.20238	45.00439	-149.1344	1	155.777	-73.20773	3.54386E-007	-0.0001369	9
	40	106	30.04808	52.23815	-179.3864	1	186.8377	-73.7642	3.762582E-007	-0.0001412	9
	41	108	23.91582	61.63783	-218.2322	1	226.7698	-74.22812	3.585263E-007	-0.0001407	9
	42	111	18.60119	74.38829	-270.5025	1	280.5445	-74.62373	5.332772E-007	-0.0001389	9
	43	113	15.02404	87.65832	-324.6656	1	336.2912	-74.89066	3.634051E-007	-0.0001248	9
	44	115	12.01923	104.2923	-392.4077	1	406.0305	-75.11627	3.123935E-007	-0.0001365	9
	45	118	9.450605	125.4077	-479.2703	1	495.406	-75.33652	4.346782E-007	-0.0001164	8
	46	120	7.512019	150.2609	-582.2427	1	601.3193	-75.52927	4.551573E-007	-0.0001165	8
	47	123	5.978954	179.2529	-706.0468	1	728.4461	-75.75459	4.851376E-007	-0.0001149	8
	48	126	4.734848	213.944	-860.6061	1	886.8004	-76.03944	5.947873E-007	-9.374768E-005	8
	49	129	3.75601	254.8422	-1047.685	1	1078.234	-76.3287	5.009261E-007	-0.0001332	8
	50	133	3.004808	300.0529	-1266.897	1	1301.945	-76.67554	5.526667E-007	-0.0001243	8
	51	137	2.372217	358.1033	-1551.922	1	1592.702	-77.00652	5.439138E-007	-5.509817E-005	8
	52	141	1.878005	420.3949	-1903.37	1	1949.243	-77.54511	5.155249E-007	-0.0001566	8
	53	146	1.512097	486.1197	-2295.476	1	2346.385	-78.04297	5.536487E-007	-0.0001437	8
	54	151	1.201923	573.3304	-2820.323	1	2878.008	-78.50919	5.031464E-007	-0.0001363	8
	55	157	0.956633	673.6968	-3456.591	1	3521.632	-78.9712	5.095071E-007	-0.0006626	8
