EXPLAIN
TAG	EISPOT
TITLE	LABEL	Potentiostatic EIS	Test Identifier
DATE	LABEL	10/12/2021	Date
TIME	LABEL	12:42:00	Time
NOTES	NOTES	1	Notes...
	
PSTAT	PSTAT	REF3000-16137	Potentiostat
VDC	POTEN	0.00000E+000	T	DC Voltage (V)
FREQINIT	QUANT	3.00000E+005	Initial Freq. (Hz)
FREQFINAL	QUANT	1.00000E+000	Final Freq. (Hz)
PTSPERDEC	QUANT	1.00000E+001	Points/decade
VAC	QUANT	5.00000E+001	AC Voltage (mV rms)
AREA	QUANT	1.00000E+000	Sample Area (cm^2)
SPEED	SELECTOR	2	Optimize for:
ZGUESS	QUANT	1.00000E+003	Estimated Z (ohms)
EOC	QUANT	0	Open Circuit (V)
SEQUENCER	TOGGLE	TRUE	Run as Sequence
PSTATMODEL	IQUANT	5	Pstat Model
PSTATSECTION	LABEL	REF3000-16137	Pstat Section
PSTATSERIALNO	LABEL	16137	Pstat Serial Number
CTRLMODE	IQUANT	1	Control Mode
IESTAB	IQUANT	0	I/E Stability
CASPEED	IQUANT	1	Control Amp Speed
CONVENTION	IQUANT	1	Current Convention
ICHRANGE	IQUANT	2	Ich Range
ICHRANGEMODE	TOGGLE	F	Ich Auto Range
ICHOFFSETENABLE	TOGGLE	T	Ich Offset Enable
ICHOFFSET	QUANT	0	Ich Offset (V)
ICHFILTER	IQUANT	3	Ich Filter
VCHRANGE	IQUANT	2	Vch Range
VCHRANGEMODE	TOGGLE	F	Vch Auto Range
VCHOFFSETENABLE	TOGGLE	T	Vch Offset Enable
VCHOFFSET	QUANT	0	Vch Offset (V)
VCHFILTER	IQUANT	3	Vch Filter
ACHRANGE	IQUANT	2	Ach Range
ACHOFFSETENABLE	TOGGLE	F	Ach Offset Enable
ACHOFFSET	QUANT	0	Ach Offset (V)
ACHFILTER	IQUANT	3	Ach Filter
IERANGELOWERLIMIT	IQUANT	2	I/E Range Lower Limit
IERANGEMODE	TOGGLE	F	I/E AutoRange
IERANGE	IQUANT	11	I/E Range
POSFEEDENABLE	TOGGLE	F	Positive Feedback IR Comp
POSFEEDRESISTANCE	QUANT	0	Positive Feedback Resistance (ohm)
ACHSELECT	IQUANT	0	Ach Select
CABLEID	IQUANT	13	Cable ID
DCCALDATE	LABEL	9/10/2021	DC Calibration Date
ACCALDATE	LABEL	9/10/2021	AC Calibration Date
THERMOSELECT	IQUANT	1	Thermo Select
FRAMEWORKVERSION	QUANT	6.33	Framework Version
INSTRUMENTVERSION	LABEL	3.50	Instrument Version
COMPLIANCEVOLTAGE	IQUANT	0	Compliance Voltage
ZCURVE	TABLE
	Pt	Time	Freq	Zreal	Zimag	Zsig	Zmod	Zphz	Idc	Vdc	IERange
	#	s	Hz	ohm	ohm	V	ohm	°	A	V	#
	0	8	300046.9	12.28887	2.103943	1	12.46768	9.71525	7.142236E-005	-0.0009161	10
	1	11	238359.4	12.35469	1.633728	1	12.46224	7.532831	5.645784E-007	-0.0005489	10
	2	14	189328.1	12.42698	1.224392	1	12.48715	5.627015	-1.080098E-005	-0.000501	10
	3	16	150421.9	12.50929	0.8797429	1	12.54019	4.022826	-2.6796E-005	-0.0003353	10
	4	19	119484.4	12.58116	0.5976564	1	12.59535	2.719739	-5.605126E-005	-0.0001332	10
	5	21	94921.88	12.67233	0.3542906	1	12.67728	1.601447	-2.73236E-005	-0.0001797	10
	6	24	75421.88	12.77167	0.1330182	1	12.77236	0.5967196	-2.271151E-005	-0.0001132	10
	7	27	59859.37	12.88103	-0.0649793	1	12.8812	-0.2890303	-2.331106E-005	-0.0000969	10
	8	29	47578.12	12.99613	-0.2413292	1	12.99837	-1.063821	-1.624053E-005	-0.0001876	10
	9	32	37828.12	13.12012	-0.4107208	1	13.12655	-1.793038	-1.848919E-005	-0.000159	10
	10	34	30046.88	13.25125	-0.5781064	1	13.26386	-2.498033	-2.274313E-005	-0.0001394	10
	11	37	23859.38	13.38731	-0.7502476	1	13.40832	-3.207597	-1.111011E-005	-7.718737E-005	10
	12	39	18984.38	13.53024	-0.9332352	1	13.56238	-3.945673	-1.203892E-005	-0.0001444	10
	13	41	15046.87	13.68379	-1.139661	1	13.73116	-4.760919	-3.024604E-005	-0.0001332	10
	14	44	11953.13	13.84579	-1.371303	1	13.91353	-5.656194	1.325197E-005	-0.000168	10
	15	46	9515.62	14.01833	-1.637197	1	14.11361	-6.661385	-2.689162E-005	-0.0001296	10
	16	48	7546.875	14.20514	-1.954022	1	14.3389	-7.832304	5.831488E-006	-0.0001616	10
	17	51	5928.309	14.41758	-2.346655	1	14.60731	-9.244589	2.577752E-005	-0.0001468	10
	18	53	4733.456	14.63848	-2.788825	1	14.90177	-10.78635	-3.282631E-006	-0.0001413	10
	19	55	3796.875	14.87894	-3.304668	1	15.24151	-12.52234	2.354801E-005	-0.0001647	10
	20	58	2987.132	15.16966	-3.983689	1	15.68402	-14.71414	-1.116167E-005	-0.0001277	10
	21	60	2390.625	15.47666	-4.751323	1	16.18957	-17.06644	1.905071E-005	-0.0001016	10
	22	62	1884.191	15.84611	-5.738176	1	16.85307	-19.90628	-1.454344E-005	-0.0001049	10
	23	65	1516.544	16.23092	-6.825969	1	17.60786	-22.80935	-4.64738E-006	-0.0001231	10
	24	67	1193.986	16.71923	-8.273914	1	18.6545	-26.32962	-2.568889E-005	-0.0001034	10
	25	70	946.5144	17.26058	-9.98279	1	19.9395	-30.04327	2.373702E-005	-0.0001608	10
	26	72	751.7689	17.88533	-12.06184	1	21.57251	-33.99567	8.075655E-006	-0.0001206	10
	27	74	597.4265	18.60267	-14.5687	1	23.62851	-38.0663	-2.567307E-005	-0.0000997	10
	28	77	477.4305	19.44083	-17.5522	1	26.19209	-42.07738	-1.962041E-006	-0.0001079	10
	29	79	376.6741	20.4428	-21.38165	1	29.5818	-46.28592	-1.969329E-006	-0.0001114	10
	30	81	298.2954	21.60219	-26.00705	1	33.80859	-50.28602	-1.876531E-006	-0.0001097	10
	31	84	237.7717	22.93368	-31.50368	1	38.96711	-53.94657	-2.251318E-006	-0.0001142	10
	32	86	189.0121	24.49255	-38.25337	1	45.42252	-57.36971	2.18195E-007	-0.00013	9
	33	88	150.2404	26.38345	-46.56547	1	53.52036	-60.46462	2.693914E-007	-0.0001244	9
	34	91	119.1737	28.67431	-56.85135	1	63.67332	-63.23483	2.840032E-007	-0.0001241	9
	35	93	95.0169	31.38593	-69.16548	1	75.95354	-65.59239	2.700379E-007	-0.0001293	9
	36	96	75.60484	34.72777	-84.35489	1	91.22371	-67.6237	1.873024E-007	-0.0001336	9
	37	98	54.50582	40.84756	-112.1236	1	119.3324	-69.98289	2.058637E-007	-0.0001346	9
	38	101	45.95588	44.9074	-130.111	1	137.6428	-70.95805	2.748584E-007	-0.0001345	9
	39	103	37.20238	50.91805	-156.3672	1	164.4486	-71.96313	2.95406E-007	-0.000138	9
	40	106	30.04808	58.35365	-188.2084	1	197.0471	-72.77406	2.213245E-007	-0.0001371	9
	41	108	23.91582	68.04684	-229.1726	1	239.0616	-73.46259	5.458533E-007	-0.0001796	9
	42	110	18.60119	81.40574	-284.5789	1	295.9933	-74.03646	2.037697E-007	-0.0001295	9
	43	113	15.02404	95.3259	-341.7682	1	354.8134	-74.41517	1.709593E-007	-0.000141	9
	44	115	12.01923	112.6094	-411.7425	1	426.8639	-74.70396	3.488217E-007	-0.0001219	8
	45	117	9.450605	135.6109	-505.18	1	523.0651	-74.97373	5.567202E-007	-0.0001509	8
	46	120	7.512019	162.1941	-613.7141	1	634.7849	-75.19617	5.560605E-007	-0.0001082	8
	47	123	5.978954	193.6178	-744.7592	1	769.5154	-75.4272	5.344472E-007	-0.0001182	8
	48	126	4.734848	232.5128	-907.3777	1	936.6945	-75.62738	5.435345E-007	-9.177935E-005	8
	49	129	3.75601	278.1393	-1104.48	1	1138.963	-75.8652	4.800518E-007	-0.000128	8
	50	132	3.004808	329.208	-1334.063	1	1374.082	-76.13802	4.997164E-007	-9.10091E-005	8
	51	136	2.372217	393.3325	-1633.374	1	1680.066	-76.4604	5.079688E-007	-3.75717E-005	8
	52	140	1.878005	464.9911	-1995.61	1	2049.067	-76.88371	4.895211E-007	-0.0001373	8
	53	145	1.512097	545.1416	-2406.635	1	2467.605	-77.23696	5.129199E-007	-1.861918E-005	8
	54	151	1.201923	639.2821	-2944.037	1	3012.646	-77.74872	5.069033E-007	-0.0001338	8
	55	157	0.956633	748.0573	-3600.426	1	3677.316	-78.2627	4.886315E-007	-0.0006806	8
