EXPLAIN
TAG	EISPOT
TITLE	LABEL	Potentiostatic EIS	Test Identifier
DATE	LABEL	10/12/2021	Date
TIME	LABEL	12:36:26	Time
NOTES	NOTES	1	Notes...
	
PSTAT	PSTAT	REF3000-16137	Potentiostat
VDC	POTEN	0.00000E+000	T	DC Voltage (V)
FREQINIT	QUANT	3.00000E+005	Initial Freq. (Hz)
FREQFINAL	QUANT	1.00000E+000	Final Freq. (Hz)
PTSPERDEC	QUANT	1.00000E+001	Points/decade
VAC	QUANT	5.00000E+001	AC Voltage (mV rms)
AREA	QUANT	1.00000E+000	Sample Area (cm^2)
SPEED	SELECTOR	2	Optimize for:
ZGUESS	QUANT	1.00000E+003	Estimated Z (ohms)
EOC	QUANT	0	Open Circuit (V)
SEQUENCER	TOGGLE	TRUE	Run as Sequence
PSTATMODEL	IQUANT	5	Pstat Model
PSTATSECTION	LABEL	REF3000-16137	Pstat Section
PSTATSERIALNO	LABEL	16137	Pstat Serial Number
CTRLMODE	IQUANT	1	Control Mode
IESTAB	IQUANT	0	I/E Stability
CASPEED	IQUANT	1	Control Amp Speed
CONVENTION	IQUANT	1	Current Convention
ICHRANGE	IQUANT	2	Ich Range
ICHRANGEMODE	TOGGLE	F	Ich Auto Range
ICHOFFSETENABLE	TOGGLE	T	Ich Offset Enable
ICHOFFSET	QUANT	0	Ich Offset (V)
ICHFILTER	IQUANT	3	Ich Filter
VCHRANGE	IQUANT	2	Vch Range
VCHRANGEMODE	TOGGLE	F	Vch Auto Range
VCHOFFSETENABLE	TOGGLE	T	Vch Offset Enable
VCHOFFSET	QUANT	0	Vch Offset (V)
VCHFILTER	IQUANT	3	Vch Filter
ACHRANGE	IQUANT	2	Ach Range
ACHOFFSETENABLE	TOGGLE	F	Ach Offset Enable
ACHOFFSET	QUANT	0	Ach Offset (V)
ACHFILTER	IQUANT	3	Ach Filter
IERANGELOWERLIMIT	IQUANT	2	I/E Range Lower Limit
IERANGEMODE	TOGGLE	F	I/E AutoRange
IERANGE	IQUANT	11	I/E Range
POSFEEDENABLE	TOGGLE	F	Positive Feedback IR Comp
POSFEEDRESISTANCE	QUANT	0	Positive Feedback Resistance (ohm)
ACHSELECT	IQUANT	0	Ach Select
CABLEID	IQUANT	13	Cable ID
DCCALDATE	LABEL	9/10/2021	DC Calibration Date
ACCALDATE	LABEL	9/10/2021	AC Calibration Date
THERMOSELECT	IQUANT	1	Thermo Select
FRAMEWORKVERSION	QUANT	6.33	Framework Version
INSTRUMENTVERSION	LABEL	3.50	Instrument Version
COMPLIANCEVOLTAGE	IQUANT	0	Compliance Voltage
ZCURVE	TABLE
	Pt	Time	Freq	Zreal	Zimag	Zsig	Zmod	Zphz	Idc	Vdc	IERange
	#	s	Hz	ohm	ohm	V	ohm	°	A	V	#
	0	9	300046.9	6.948821	2.286193	1	7.315244	18.21144	-1.338479E-005	-0.0005791	10
	1	12	238359.4	6.976451	1.782264	1	7.20051	14.33075	-3.000333E-005	-0.0008685	10
	2	16	189328.1	6.994388	1.375087	1	7.128277	11.12242	-0.0001133	-0.0005845	10
	3	18	150421.9	7.013799	1.026786	1	7.088559	8.328658	-1.542201E-005	-0.0004136	10
	4	21	119484.4	7.058494	0.7559437	1	7.098858	6.112908	-8.505218E-005	-0.0002081	10
	5	23	94921.88	7.104854	0.5334195	1	7.12485	4.293608	6.376422E-006	-0.0002715	10
	6	26	75421.88	7.148467	0.3269714	1	7.155941	2.618887	-1.72873E-005	-0.000231	10
	7	28	59859.37	7.199162	0.1427609	1	7.200578	1.136038	2.454914E-005	-0.0001788	10
	8	31	47578.12	7.257614	-0.0214075	1	7.257645	-0.1690029	-1.337589E-005	-0.0001195	10
	9	33	37828.12	7.319198	-0.1744289	1	7.321276	-1.365197	2.216062E-005	-0.0001825	10
	10	36	30046.88	7.38841	-0.3232858	1	7.39548	-2.505425	-2.163029E-005	-0.000101	10
	11	38	23859.38	7.459545	-0.4755864	1	7.47469	-3.647979	1.083267E-005	-0.0001184	10
	12	41	18984.38	7.534441	-0.6366365	1	7.56129	-4.82984	3.718177E-007	-0.0001611	10
	13	43	15046.87	7.619423	-0.8179799	1	7.663205	-6.127495	1.915699E-005	-0.000161	10
	14	45	11953.13	7.712198	-1.021026	1	7.779492	-7.541591	-2.156704E-005	-8.857776E-005	10
	15	48	9515.62	7.810926	-1.255431	1	7.911174	-9.130919	1.883905E-005	-0.000167	10
	16	50	7546.875	7.925505	-1.536937	1	8.073153	-10.97475	-1.388248E-005	-0.0001483	10
	17	52	5928.309	8.058123	-1.884215	1	8.275482	-13.1609	2.387772E-005	-0.0001563	10
	18	55	4733.456	8.201697	-2.275376	1	8.511474	-15.50548	-3.948955E-006	-0.0001342	10
	19	57	3796.875	8.361485	-2.732782	1	8.796735	-18.09893	-1.276494E-006	-0.000102	10
	20	59	2987.132	8.555595	-3.332033	1	9.181539	-21.27876	1.312076E-005	-0.0001664	10
	21	62	2390.625	8.767052	-4.011694	1	9.64131	-24.58825	1.888593E-005	-0.000161	10
	22	64	1884.191	9.024642	-4.885517	1	10.26219	-28.42903	2.227705E-005	-0.0001479	10
	23	66	1516.544	9.301463	-5.856727	1	10.99174	-32.19683	-1.621826E-005	-0.0001677	10
	24	69	1193.986	9.64898	-7.156993	1	12.01355	-36.56564	7.393965E-006	-0.0001359	10
	25	71	946.5144	10.05001	-8.703236	1	13.2947	-40.89231	-1.968649E-006	-0.0001067	10
	26	74	751.7689	10.51777	-10.57247	1	14.91311	-45.14861	2.278029E-005	-0.0001533	10
	27	76	597.4265	11.06048	-12.85853	1	16.96102	-49.29897	-2.90282E-005	-0.0001097	10
	28	78	477.4305	11.70096	-15.57741	1	19.4825	-53.08798	-1.082446E-006	-0.0001229	10
	29	81	376.6741	12.49493	-19.08801	1	22.81393	-56.79142	-2.003381E-006	-0.0001221	10
	30	83	298.2954	13.43292	-23.34058	1	26.93002	-60.0788	-1.910518E-006	-0.0001188	10
	31	85	237.7717	14.53904	-28.4125	1	31.91636	-62.90059	-1.590718E-006	-0.0001208	10
	32	88	189.0121	15.89263	-34.68861	1	38.15594	-65.38506	-1.479338E-006	-0.0001189	10
	33	90	150.2404	17.52634	-42.32179	1	45.80728	-67.50452	1.85411E-007	-0.0001337	9
	34	93	119.1737	19.58563	-51.81166	1	55.38994	-69.29261	2.478715E-007	-0.000129	9
	35	95	95.0169	22.08413	-63.14474	1	66.8952	-70.72331	2.667469E-007	-0.0001348	9
	36	97	75.60484	25.21318	-77.07977	1	81.09867	-71.88682	2.478474E-007	-0.0001343	9
	37	100	54.50582	31.0465	-102.4117	1	107.0142	-73.13512	1.707129E-007	-0.0001352	9
	38	103	45.95588	34.90799	-118.7342	1	123.7594	-73.61661	2.518937E-007	-0.000131	9
	39	105	37.20238	40.58057	-142.4435	1	148.1113	-74.09834	2.375981E-007	-0.0001288	9
	40	107	30.04808	47.54947	-171.1379	1	177.6208	-74.47242	5.564526E-007	-0.0001768	9
	41	110	23.91582	56.62215	-208.0737	1	215.6403	-74.77699	1.954137E-007	-0.0001351	9
	42	112	18.60119	68.70346	-257.5755	1	266.5807	-75.06512	3.809447E-007	-0.0001362	9
	43	114	15.02404	81.18513	-308.903	1	319.3934	-75.27467	3.802143E-007	-0.0001246	9
	44	117	12.01923	96.9543	-373.2997	1	385.6848	-75.44067	3.919182E-007	-0.0001293	9
	45	119	9.450605	116.5445	-455.6695	1	470.3375	-75.65328	4.699486E-007	-0.00012	8
	46	122	7.512019	139.2479	-553.5406	1	570.7865	-75.87975	5.243705E-007	-0.0001127	8
	47	124	5.978954	165.8391	-671.2736	1	691.4556	-76.12287	5.302877E-007	-0.0001148	8
	48	127	4.734848	197.0261	-818.6832	1	842.0579	-76.4684	6.090524E-007	-8.731133E-005	8
	49	131	3.75601	233.2993	-998.263	1	1025.162	-76.84577	5.123532E-007	-0.0001294	8
	50	134	3.004808	273.743	-1208.569	1	1239.183	-77.23775	5.775124E-007	-0.000115	8
	51	138	2.372217	325.3871	-1483.962	1	1519.217	-77.63252	5.662681E-007	-5.661434E-005	8
	52	142	1.878005	380.6526	-1823.597	1	1862.902	-78.20953	5.299767E-007	-0.000141	8
	53	147	1.512097	445.0903	-2205.058	1	2249.53	-78.5882	5.777944E-007	-5.52463E-005	8
	54	152	1.201923	521.4388	-2713.72	1	2763.363	-79.12324	5.482313E-007	-0.0001433	8
	55	159	0.956633	613.5387	-3335.636	1	3391.592	-79.57782	5.314367E-007	-0.0006674	8
