EXPLAIN
TAG	EISPOT
TITLE	LABEL	Potentiostatic EIS	Test Identifier
DATE	LABEL	10/12/2021	Date
TIME	LABEL	12:33:38	Time
NOTES	NOTES	1	Notes...
	
PSTAT	PSTAT	REF3000-16137	Potentiostat
VDC	POTEN	0.00000E+000	T	DC Voltage (V)
FREQINIT	QUANT	3.00000E+005	Initial Freq. (Hz)
FREQFINAL	QUANT	1.00000E+000	Final Freq. (Hz)
PTSPERDEC	QUANT	1.00000E+001	Points/decade
VAC	QUANT	5.00000E+001	AC Voltage (mV rms)
AREA	QUANT	1.00000E+000	Sample Area (cm^2)
SPEED	SELECTOR	2	Optimize for:
ZGUESS	QUANT	1.00000E+003	Estimated Z (ohms)
EOC	QUANT	0	Open Circuit (V)
SEQUENCER	TOGGLE	TRUE	Run as Sequence
PSTATMODEL	IQUANT	5	Pstat Model
PSTATSECTION	LABEL	REF3000-16137	Pstat Section
PSTATSERIALNO	LABEL	16137	Pstat Serial Number
CTRLMODE	IQUANT	1	Control Mode
IESTAB	IQUANT	0	I/E Stability
CASPEED	IQUANT	1	Control Amp Speed
CONVENTION	IQUANT	1	Current Convention
ICHRANGE	IQUANT	2	Ich Range
ICHRANGEMODE	TOGGLE	F	Ich Auto Range
ICHOFFSETENABLE	TOGGLE	T	Ich Offset Enable
ICHOFFSET	QUANT	0	Ich Offset (V)
ICHFILTER	IQUANT	3	Ich Filter
VCHRANGE	IQUANT	2	Vch Range
VCHRANGEMODE	TOGGLE	F	Vch Auto Range
VCHOFFSETENABLE	TOGGLE	T	Vch Offset Enable
VCHOFFSET	QUANT	0	Vch Offset (V)
VCHFILTER	IQUANT	3	Vch Filter
ACHRANGE	IQUANT	2	Ach Range
ACHOFFSETENABLE	TOGGLE	F	Ach Offset Enable
ACHOFFSET	QUANT	0	Ach Offset (V)
ACHFILTER	IQUANT	3	Ach Filter
IERANGELOWERLIMIT	IQUANT	2	I/E Range Lower Limit
IERANGEMODE	TOGGLE	F	I/E AutoRange
IERANGE	IQUANT	11	I/E Range
POSFEEDENABLE	TOGGLE	F	Positive Feedback IR Comp
POSFEEDRESISTANCE	QUANT	0	Positive Feedback Resistance (ohm)
ACHSELECT	IQUANT	0	Ach Select
CABLEID	IQUANT	13	Cable ID
DCCALDATE	LABEL	9/10/2021	DC Calibration Date
ACCALDATE	LABEL	9/10/2021	AC Calibration Date
THERMOSELECT	IQUANT	1	Thermo Select
FRAMEWORKVERSION	QUANT	6.33	Framework Version
INSTRUMENTVERSION	LABEL	3.50	Instrument Version
COMPLIANCEVOLTAGE	IQUANT	0	Compliance Voltage
ZCURVE	TABLE
	Pt	Time	Freq	Zreal	Zimag	Zsig	Zmod	Zphz	Idc	Vdc	IERange
	#	s	Hz	ohm	ohm	V	ohm	°	A	V	#
	0	10	300046.9	5.411699	2.340552	1	5.896157	23.38841	-3.852644E-005	-0.0006165	10
	1	13	238359.4	5.405087	1.827328	1	5.705619	18.67914	1.110686E-005	-0.000882	10
	2	16	189328.1	5.415406	1.420085	1	5.598505	14.69386	-1.617361E-005	-0.0006429	10
	3	19	150421.9	5.43703	1.091949	1	5.545597	11.35596	-0.0001	-0.000441	10
	4	21	119484.4	5.450178	0.8105382	1	5.510119	8.4589	-2.144089E-005	-0.0003885	10
	5	24	94921.88	5.479082	0.5908638	1	5.510849	6.154986	7.624163E-006	-0.000299	10
	6	26	75421.88	5.508016	0.3907405	1	5.521858	4.057785	2.476725E-005	-0.0002711	10
	7	29	59859.37	5.542309	0.2150784	1	5.546481	2.222342	1.443573E-005	-0.0002369	10
	8	31	47578.12	5.582065	0.0577149	1	5.582364	0.5923793	-1.792875E-005	-0.0001957	10
	9	34	37828.12	5.625175	-0.0880317	1	5.625863	-0.8965825	-2.627881E-005	-0.0001683	10
	10	36	30046.88	5.673785	-0.2303121	1	5.678457	-2.324493	-7.80134E-006	-0.0001407	10
	11	39	23859.38	5.724725	-0.375075	1	5.736999	-3.748572	-1.760876E-005	-0.0001528	10
	12	41	18984.38	5.780658	-0.5270121	1	5.804631	-5.209152	1.277475E-005	-0.0001705	10
	13	44	15046.87	5.843003	-0.6966754	1	5.884389	-6.799415	-1.200371E-005	-0.0001495	10
	14	46	11953.13	5.911644	-0.8887454	1	5.978077	-8.54971	-2.177248E-005	-0.0001412	10
	15	48	9515.62	5.988656	-1.108081	1	6.090307	-10.48288	-2.516754E-005	-0.0001277	10
	16	50	7546.875	6.078146	-1.369639	1	6.230551	-12.69883	-1.235294E-005	-0.0001212	10
	17	53	5928.309	6.182204	-1.697351	1	6.410979	-15.35251	2.421364E-005	-0.0001481	10
	18	55	4733.456	6.29713	-2.063169	1	6.626501	-18.14068	1.246769E-005	-0.0001606	10
	19	57	3796.875	6.426418	-2.4953	1	6.893865	-21.22058	-1.859542E-005	-0.0001396	10
	20	60	2987.132	6.586064	-3.060016	1	7.262227	-24.92052	-2.499022E-005	-0.0001126	10
	21	62	2390.625	6.759953	-3.700402	1	7.706487	-28.69632	2.489483E-005	-0.000133	10
	22	64	1884.191	6.97628	-4.526483	1	8.316101	-32.97708	2.213251E-005	-0.0001497	10
	23	67	1516.544	7.205509	-5.451354	1	9.035298	-37.10946	-2.759391E-005	-0.0001096	10
	24	69	1193.986	7.502957	-6.688067	1	10.0511	-41.71352	-2.714575E-005	-0.0001157	10
	25	72	946.5144	7.848043	-8.161935	1	11.32294	-46.1232	-2.403092E-005	-8.871847E-005	10
	26	74	751.7689	8.247779	-9.95624	1	12.92875	-50.36155	2.223519E-005	-0.0001423	10
	27	76	597.4265	8.725478	-12.14369	1	14.95336	-54.30201	-1.654794E-005	-0.000129	10
	28	79	477.4305	9.293972	-14.76652	1	17.44786	-57.8139	-4.410039E-007	-0.0001178	10
	29	81	376.6741	10.00995	-18.14853	1	20.72603	-61.12077	-8.810719E-007	-0.0001175	10
	30	83	298.2954	10.87158	-22.25265	1	24.76634	-63.96207	-9.791668E-007	-0.0001162	10
	31	86	237.7717	11.89981	-27.14491	1	29.63868	-66.32827	-1.591104E-006	-0.0001188	10
	32	88	189.0121	13.18035	-33.19737	1	35.71816	-68.34544	-1.503651E-006	-0.0001207	10
	33	90	150.2404	14.75147	-40.5524	1	43.15209	-70.01048	2.490254E-007	-0.0001367	9
	34	93	119.1737	16.74753	-49.68054	1	52.42744	-71.37081	3.056847E-007	-0.000134	9
	35	95	95.0169	19.18557	-60.55795	1	63.52441	-72.4211	2.007398E-007	-0.000131	9
	36	98	75.60484	22.2527	-73.89702	1	77.17481	-73.24131	1.624681E-007	-0.0001345	9
	37	100	54.50582	27.95321	-98.0739	1	101.9798	-74.09129	1.329285E-007	-0.000132	9
	38	103	45.95588	31.69874	-113.63	1	117.9686	-74.41278	2.862672E-007	-0.0001308	9
	39	105	37.20238	37.18296	-136.2072	1	141.1913	-74.73096	1.637764E-007	-0.0001226	9
	40	108	30.04808	43.8825	-163.4988	1	169.2854	-74.97609	1.46459E-007	-0.0001277	9
	41	110	23.91582	52.44495	-198.4302	1	205.2438	-75.1953	2.994675E-007	-0.0001363	9
	42	112	18.60119	63.95714	-245.6803	1	253.8688	-75.40826	4.961718E-007	-0.0001342	9
	43	115	15.02404	75.71905	-294.536	1	304.1132	-75.58266	3.546037E-007	-0.0001223	9
	44	117	12.01923	90.40412	-355.6718	1	366.9814	-75.73866	1.524065E-007	-0.0001363	9
	45	120	9.450605	108.5013	-434.1432	1	447.4962	-75.96804	5.200514E-007	-0.0001125	8
	46	122	7.512019	129.1159	-527.4058	1	542.9805	-76.2438	5.712544E-007	-0.0001012	8
	47	125	5.978954	153.1501	-640.2462	1	658.3086	-76.54734	5.442991E-007	-0.0001212	8
	48	128	4.734848	181.5629	-781.5751	1	802.3869	-76.92193	6.2161E-007	-8.87452E-005	8
	49	131	3.75601	214.1127	-954.537	1	978.256	-77.35722	5.487697E-007	-0.0001292	8
	50	135	3.004808	250.686	-1158.81	1	1185.615	-77.79327	5.761424E-007	-8.106039E-005	8
	51	138	2.372217	293.8422	-1426.656	1	1456.602	-78.36179	5.501428E-007	-5.015077E-005	8
	52	142	1.878005	347.3746	-1755.234	1	1789.278	-78.80537	5.67709E-007	-0.0001364	8
	53	147	1.512097	404.4178	-2132.107	1	2170.124	-79.25974	5.686186E-007	-1.972224E-005	8
	54	153	1.201923	478.1745	-2624.917	1	2668.115	-79.67578	5.800101E-007	-0.0001317	8
	55	159	0.956633	565.6926	-3230.834	1	3279.985	-80.06865	5.450443E-007	-0.0006626	8
