EXPLAIN
TAG	EISPOT
TITLE	LABEL	Potentiostatic EIS	Test Identifier
DATE	LABEL	10/12/2021	Date
TIME	LABEL	11:25:35	Time
NOTES	NOTES	1	Notes...
	
PSTAT	PSTAT	REF3000-16137	Potentiostat
VDC	POTEN	0.00000E+000	T	DC Voltage (V)
FREQINIT	QUANT	3.00000E+005	Initial Freq. (Hz)
FREQFINAL	QUANT	1.00000E+000	Final Freq. (Hz)
PTSPERDEC	QUANT	1.00000E+001	Points/decade
VAC	QUANT	5.00000E+001	AC Voltage (mV rms)
AREA	QUANT	1.00000E+000	Sample Area (cm^2)
SPEED	SELECTOR	2	Optimize for:
ZGUESS	QUANT	1.00000E+003	Estimated Z (ohms)
EOC	QUANT	0	Open Circuit (V)
SEQUENCER	TOGGLE	TRUE	Run as Sequence
PSTATMODEL	IQUANT	5	Pstat Model
PSTATSECTION	LABEL	REF3000-16137	Pstat Section
PSTATSERIALNO	LABEL	16137	Pstat Serial Number
CTRLMODE	IQUANT	1	Control Mode
IESTAB	IQUANT	0	I/E Stability
CASPEED	IQUANT	1	Control Amp Speed
CONVENTION	IQUANT	1	Current Convention
ICHRANGE	IQUANT	2	Ich Range
ICHRANGEMODE	TOGGLE	F	Ich Auto Range
ICHOFFSETENABLE	TOGGLE	T	Ich Offset Enable
ICHOFFSET	QUANT	0	Ich Offset (V)
ICHFILTER	IQUANT	3	Ich Filter
VCHRANGE	IQUANT	2	Vch Range
VCHRANGEMODE	TOGGLE	F	Vch Auto Range
VCHOFFSETENABLE	TOGGLE	T	Vch Offset Enable
VCHOFFSET	QUANT	0	Vch Offset (V)
VCHFILTER	IQUANT	3	Vch Filter
ACHRANGE	IQUANT	2	Ach Range
ACHOFFSETENABLE	TOGGLE	F	Ach Offset Enable
ACHOFFSET	QUANT	0	Ach Offset (V)
ACHFILTER	IQUANT	3	Ach Filter
IERANGELOWERLIMIT	IQUANT	2	I/E Range Lower Limit
IERANGEMODE	TOGGLE	F	I/E AutoRange
IERANGE	IQUANT	11	I/E Range
POSFEEDENABLE	TOGGLE	F	Positive Feedback IR Comp
POSFEEDRESISTANCE	QUANT	0	Positive Feedback Resistance (ohm)
ACHSELECT	IQUANT	0	Ach Select
CABLEID	IQUANT	13	Cable ID
DCCALDATE	LABEL	9/10/2021	DC Calibration Date
ACCALDATE	LABEL	9/10/2021	AC Calibration Date
THERMOSELECT	IQUANT	1	Thermo Select
FRAMEWORKVERSION	QUANT	6.33	Framework Version
INSTRUMENTVERSION	LABEL	3.50	Instrument Version
COMPLIANCEVOLTAGE	IQUANT	0	Compliance Voltage
ZCURVE	TABLE
	Pt	Time	Freq	Zreal	Zimag	Zsig	Zmod	Zphz	Idc	Vdc	IERange
	#	s	Hz	ohm	ohm	V	ohm	°	A	V	#
	0	10	300046.9	1.249488	2.407398	1	2.712339	62.56979	-8.767961E-005	-0.0008673	11
	1	13	238359.4	1.360033	1.788614	1	2.24696	52.75124	-7.496236E-005	-0.0011339	12
	2	17	189328.1	1.180506	1.523606	1	1.927426	52.23111	-0.0001139	-0.0004314	11
	3	20	150421.9	1.163123	1.18758	1	1.662287	45.59609	2.884789E-005	-0.0003502	11
	4	22	119484.4	1.146442	0.92909	1	1.475648	39.02171	1.986253E-005	-6.865268E-005	11
	5	25	94921.88	1.136614	0.7121029	1	1.341261	32.06766	-9.052396E-005	-7.900543E-005	11
	6	28	75421.88	1.13345	0.535212	1	1.25346	25.27655	-7.256423E-005	-2.030257E-006	11
	7	30	59859.37	1.133503	0.3846732	1	1.196997	18.74551	-4.562502E-005	9.307016E-005	11
	8	33	47578.12	1.133682	0.256626	1	1.162365	12.75481	-9.325032E-005	0.0001404	11
	9	35	37828.12	1.13732	0.143813	1	1.146376	7.206748	-6.62953E-005	0.0002135	11
	10	38	30046.88	1.14174	0.039069	1	1.142408	1.959828	-7.179108E-005	0.0002608	11
	11	40	23859.38	1.147545	-0.0620982	1	1.149224	-3.09748	-9.414861E-005	0.0002733	11
	12	43	18984.38	1.156385	-0.1631452	1	1.167837	-8.030407	-4.126259E-005	0.0003281	11
	13	45	15046.87	1.167688	-0.2719966	1	1.198949	-13.11243	-4.813684E-005	0.0003446	11
	14	47	11953.13	1.182246	-0.3904037	1	1.245039	-18.27436	-5.206594E-005	0.0003307	11
	15	49	9515.62	1.201437	-0.5238391	1	1.310671	-23.55771	-2.969274E-005	0.0003785	11
	16	52	7546.875	1.22618	-0.6810784	1	1.402635	-29.04986	-2.490406E-005	0.0003724	11
	17	54	5928.309	1.259467	-0.8750653	1	1.533622	-34.7912	-6.410406E-005	0.0003573	11
	18	56	4733.456	1.299309	-1.091485	1	1.696922	-40.03196	-7.536096E-005	0.0003411	11
	19	59	3796.875	1.349208	-1.344464	1	1.904717	-44.89908	-2.931006E-005	0.0003635	11
	20	61	2987.132	1.416648	-1.67756	1	2.1957	-49.81993	-4.285582E-005	0.00035	11
	21	63	2390.625	1.497634	-2.05061	1	2.539273	-53.85801	-2.645099E-005	0.0003466	11
	22	66	1884.191	1.606552	-2.536106	1	3.00214	-57.64688	-8.529133E-005	0.0003368	11
	23	68	1516.544	1.729954	-3.068784	1	3.522808	-60.58891	-4.879987E-005	0.0003296	11
	24	70	1193.986	1.901722	-3.780591	1	4.231952	-63.29658	-1.633445E-005	-0.0001602	10
	25	73	946.5144	2.109211	-4.617284	1	5.076227	-65.44871	-9.647054E-006	-0.0001535	10
	26	75	751.7689	2.354552	-5.623195	1	6.096248	-67.2799	-1.607848E-005	-0.0001388	10
	27	77	597.4265	2.657896	-6.83717	1	7.335618	-68.7568	1.40246E-005	-0.0001523	10
	28	80	477.4305	3.020988	-8.273076	1	8.807392	-69.93988	-4.896521E-006	-0.0001365	10
	29	82	376.6741	3.481058	-10.10493	1	10.68772	-70.99162	-5.166367E-006	-0.0001415	10
	30	84	298.2954	4.028039	-12.3001	1	12.94286	-71.86741	-5.216667E-006	-0.0001365	10
	31	87	237.7717	4.664927	-14.88626	1	15.60007	-72.6005	-5.38423E-006	-0.0001409	10
	32	89	189.0121	5.430843	-18.05698	1	18.856	-73.26073	-5.508953E-006	-0.0001396	10
	33	92	150.2404	6.336204	-21.90963	1	22.80744	-73.87028	-5.807111E-006	-0.0001486	10
	34	94	119.1737	7.40965	-26.64806	1	27.65903	-74.4611	-5.439636E-006	-0.0001377	10
	35	96	95.0169	8.643155	-32.31371	1	33.44966	-75.02528	-5.749762E-006	-0.0001451	10
	36	99	75.60484	10.10765	-39.29574	1	40.57487	-75.57509	-5.811326E-006	-0.0001532	10
	37	101	54.50582	12.69395	-52.08108	1	53.60574	-76.30212	-4.19346E-006	-0.0001628	9
	38	104	45.95588	14.35102	-60.43202	1	62.11265	-76.6412	-3.556367E-006	-0.000147	9
	39	106	37.20238	16.79038	-72.74025	1	74.65294	-77.00227	-3.831484E-006	-0.0001507	9
	40	109	30.04808	19.86256	-87.84857	1	90.06605	-77.25964	-4.177327E-006	-0.0001703	9
	41	111	23.91582	23.94767	-107.4797	1	110.1153	-77.43904	-4.335936E-006	-0.0001579	9
	42	114	18.60119	29.71457	-134.2206	1	137.4704	-77.51685	-3.970655E-006	-0.0001497	9
	43	116	15.02404	36.12094	-162.0519	1	166.0287	-77.43433	-3.856991E-006	-0.0001512	9
	44	118	12.01923	44.81035	-197.1368	1	202.1655	-77.19393	-4.024685E-006	-0.0001504	9
	45	121	9.450605	57.01398	-243.251	1	249.8432	-76.80894	-4.093104E-006	-0.000142	9
	46	123	7.512019	72.14318	-296.7141	1	305.3586	-76.33425	-3.860034E-006	-0.0001695	9
	47	126	5.978954	91.95395	-360.9176	1	372.4474	-75.70638	-3.960926E-006	-0.0001533	9
	48	129	4.734848	117.8058	-437.9882	1	453.5547	-74.94543	-3.507845E-006	-0.0001592	8
	49	132	3.75601	151.7883	-531.7827	1	553.0212	-74.0695	-3.408751E-006	-0.0001242	8
	50	135	3.004808	194.2282	-638.9199	1	667.7898	-73.09101	-3.424591E-006	-0.0001592	8
	51	139	2.372217	254.0079	-774.8583	1	815.4296	-71.85023	-3.529222E-006	-0.0002132	8
	52	143	1.878005	330.6003	-933.3611	1	990.182	-70.49564	-3.462869E-006	-0.0001281	8
	53	148	1.512097	422.9646	-1102.218	1	1180.586	-69.00622	-3.528476E-006	-0.000152	8
	54	154	1.201923	554.2583	-1314.689	1	1426.748	-67.14025	-3.437158E-006	-0.0001167	8
	55	160	0.956633	724.2077	-1548.346	1	1709.343	-64.93311	-3.585486E-006	-0.0006811	8
