EXPLAIN
TAG	EISPOT
TITLE	LABEL	Potentiostatic EIS	Test Identifier
DATE	LABEL	10/12/2021	Date
TIME	LABEL	12:47:33	Time
NOTES	NOTES	1	Notes...
	
PSTAT	PSTAT	REF3000-16137	Potentiostat
VDC	POTEN	0.00000E+000	T	DC Voltage (V)
FREQINIT	QUANT	3.00000E+005	Initial Freq. (Hz)
FREQFINAL	QUANT	1.00000E+000	Final Freq. (Hz)
PTSPERDEC	QUANT	1.00000E+001	Points/decade
VAC	QUANT	5.00000E+001	AC Voltage (mV rms)
AREA	QUANT	1.00000E+000	Sample Area (cm^2)
SPEED	SELECTOR	2	Optimize for:
ZGUESS	QUANT	1.00000E+003	Estimated Z (ohms)
EOC	QUANT	0	Open Circuit (V)
SEQUENCER	TOGGLE	TRUE	Run as Sequence
PSTATMODEL	IQUANT	5	Pstat Model
PSTATSECTION	LABEL	REF3000-16137	Pstat Section
PSTATSERIALNO	LABEL	16137	Pstat Serial Number
CTRLMODE	IQUANT	1	Control Mode
IESTAB	IQUANT	0	I/E Stability
CASPEED	IQUANT	1	Control Amp Speed
CONVENTION	IQUANT	1	Current Convention
ICHRANGE	IQUANT	2	Ich Range
ICHRANGEMODE	TOGGLE	F	Ich Auto Range
ICHOFFSETENABLE	TOGGLE	T	Ich Offset Enable
ICHOFFSET	QUANT	0	Ich Offset (V)
ICHFILTER	IQUANT	3	Ich Filter
VCHRANGE	IQUANT	2	Vch Range
VCHRANGEMODE	TOGGLE	F	Vch Auto Range
VCHOFFSETENABLE	TOGGLE	T	Vch Offset Enable
VCHOFFSET	QUANT	0	Vch Offset (V)
VCHFILTER	IQUANT	3	Vch Filter
ACHRANGE	IQUANT	2	Ach Range
ACHOFFSETENABLE	TOGGLE	F	Ach Offset Enable
ACHOFFSET	QUANT	0	Ach Offset (V)
ACHFILTER	IQUANT	3	Ach Filter
IERANGELOWERLIMIT	IQUANT	2	I/E Range Lower Limit
IERANGEMODE	TOGGLE	F	I/E AutoRange
IERANGE	IQUANT	11	I/E Range
POSFEEDENABLE	TOGGLE	F	Positive Feedback IR Comp
POSFEEDRESISTANCE	QUANT	0	Positive Feedback Resistance (ohm)
ACHSELECT	IQUANT	0	Ach Select
CABLEID	IQUANT	13	Cable ID
DCCALDATE	LABEL	9/10/2021	DC Calibration Date
ACCALDATE	LABEL	9/10/2021	AC Calibration Date
THERMOSELECT	IQUANT	1	Thermo Select
FRAMEWORKVERSION	QUANT	6.33	Framework Version
INSTRUMENTVERSION	LABEL	3.50	Instrument Version
COMPLIANCEVOLTAGE	IQUANT	0	Compliance Voltage
ZCURVE	TABLE
	Pt	Time	Freq	Zreal	Zimag	Zsig	Zmod	Zphz	Idc	Vdc	IERange
	#	s	Hz	ohm	ohm	V	ohm	°	A	V	#
	0	7	300046.9	23.74492	1.431572	1	23.78804	3.450163	-3.770448E-005	-0.0006471	11
	1	11	238359.4	23.99791	1.334827	1	24.035	3.183663	-1.95043E-005	-0.0003885	10
	2	15	189328.1	24.19114	0.7374983	1	24.20238	1.746195	-0.0001514	0.0001244	11
	3	19	150421.9	24.42315	0.6431298	1	24.43162	1.508409	2.410323E-005	-0.0002154	10
	4	23	119484.4	24.65969	0.1825469	1	24.66036	0.4241325	-8.486647E-005	0.0001517	11
	5	26	94921.88	24.86858	0.0501369	1	24.86863	0.1155125	-1.128739E-005	-0.0001529	10
	6	29	75421.88	25.13098	-0.1695898	1	25.13155	-0.3866396	-2.289429E-006	-0.0001091	10
	7	32	59859.37	25.34937	-0.379043	1	25.3522	-0.8566662	-1.9822E-005	-6.988254E-005	10
	8	35	47578.12	25.575	-0.5769141	1	25.5815	-1.292244	-5.402656E-006	-0.0001707	10
	9	37	37828.12	25.81883	-0.7702293	1	25.83031	-1.708746	1.67135E-005	-0.0001776	10
	10	40	30046.88	26.07438	-0.967048	1	26.09231	-2.124016	6.793021E-006	-0.0001802	10
	11	42	23859.38	26.33563	-1.166057	1	26.36143	-2.535217	2.075764E-005	-0.0001933	10
	12	45	18984.38	26.6088	-1.381499	1	26.64463	-2.972065	-1.485494E-005	-0.0001374	10
	13	47	15046.87	26.88883	-1.621106	1	26.93766	-3.45014	-1.719216E-005	-0.0001259	10
	14	49	11953.13	27.19815	-1.879327	1	27.26301	-3.952717	2.507822E-005	-0.0001166	10
	15	52	9515.62	27.51215	-2.195496	1	27.59961	-4.562589	-2.256338E-005	-0.0001228	10
	16	54	7546.875	27.84604	-2.552819	1	27.96281	-5.238019	1.699247E-005	-0.0001767	10
	17	56	5928.309	28.20922	-2.999315	1	28.36822	-6.069112	-2.634276E-005	-9.169498E-005	10
	18	59	4733.456	28.57885	-3.502415	1	28.79266	-6.986913	-3.728193E-006	-0.0001149	10
	19	61	3796.875	28.97376	-4.088723	1	29.26083	-8.032434	-1.281979E-005	-6.279702E-005	10
	20	63	2987.132	29.42646	-4.857174	1	29.82463	-9.372811	8.51597E-006	-0.0001219	10
	21	66	2390.625	29.8833	-5.717419	1	30.42533	-10.83121	-2.270255E-006	-0.0001612	10
	22	68	1884.191	30.43799	-6.840526	1	31.19718	-12.66601	-1.746012E-005	-0.0001398	10
	23	70	1516.544	30.99187	-8.078708	1	32.02751	-14.61027	-3.25674E-006	-0.0001568	10
	24	73	1193.986	31.6791	-9.7305	1	33.13982	-17.07478	-2.091465E-005	-0.0001575	10
	25	75	946.5144	32.44752	-11.69094	1	34.48941	-19.81424	-2.5725E-005	-0.0001307	10
	26	78	751.7689	33.31394	-14.00543	1	36.13821	-22.80225	-2.04952E-005	-0.0001557	10
	27	80	597.4265	34.24659	-16.83193	1	38.15944	-26.17375	1.198758E-005	-0.0003229	9
	28	82	477.4305	35.37383	-20.16216	1	40.71635	-29.68201	2.793749E-007	-0.0001266	9
	29	85	376.6741	36.69887	-24.4321	1	44.0878	-33.6535	3.02897E-007	-0.0001285	9
	30	87	298.2954	38.21027	-29.56624	1	48.31342	-37.7319	2.936953E-007	-0.0001269	9
	31	89	237.7717	39.92141	-35.64415	1	53.51845	-41.76032	2.682569E-007	-0.0001319	9
	32	92	189.0121	41.9252	-43.13264	1	60.15104	-45.81329	2.147697E-007	-0.0001266	9
	33	94	150.2404	44.25206	-52.27425	1	68.48972	-49.75086	3.005682E-007	-0.000131	9
	34	97	119.1737	47.00496	-63.56426	1	79.05619	-53.51755	3.196394E-007	-0.0001291	9
	35	99	95.0169	50.1788	-77.06748	1	91.96363	-56.93176	2.985484E-007	-0.0001333	9
	36	101	75.60484	53.9882	-93.73611	1	108.172	-60.0598	6.35846E-007	-0.000181	9
	37	104	54.50582	60.70269	-124.2747	1	138.3077	-63.96653	3.1933E-007	-0.000138	9
	38	107	45.95588	65.10549	-144.1279	1	158.1505	-65.69034	2.347084E-007	-0.0001277	9
	39	109	37.20238	71.49805	-173.1916	1	187.3694	-67.56787	4.73224E-007	-0.0001335	9
	40	111	30.04808	79.36228	-208.6537	1	223.237	-69.17548	4.144075E-007	-0.0001358	9
	41	114	23.91582	89.68468	-254.6113	1	269.9449	-70.59562	3.991468E-007	-0.0001294	9
	42	116	18.60119	103.8443	-316.8991	1	333.4797	-71.85661	2.576325E-007	-0.0001326	9
	43	118	15.02404	119.0442	-381.3495	1	399.4984	-72.66344	3.402815E-007	-0.0001414	9
	44	121	12.01923	137.8959	-460.5911	1	480.7904	-73.33287	4.994618E-007	-0.0001552	8
	45	123	9.450605	163.4769	-566.5085	1	589.6241	-73.9035	4.298274E-007	-0.0001277	8
	46	126	7.512019	194.0113	-689.554	1	716.3275	-74.28564	4.82121E-007	-0.0001128	8
	47	128	5.978954	230.3935	-837.9858	1	869.0808	-74.6271	4.267744E-007	-0.0001265	8
	48	131	4.734848	276.4333	-1022.273	1	1058.989	-74.86851	4.226971E-007	-0.0001098	8
	49	135	3.75601	331.0668	-1244.796	1	1288.069	-75.10635	4.132604E-007	-0.0001284	8
	50	138	3.004808	393.4402	-1503.9	1	1554.513	-75.33924	3.924099E-007	-8.902802E-005	8
	51	142	2.372217	471.7452	-1836.338	1	1895.964	-75.59257	3.939947E-007	-8.441824E-005	8
	52	146	1.878005	568.3315	-2241.945	1	2312.86	-75.77522	4.35065E-007	-0.0001296	8
	53	151	1.512097	665.8832	-2690.573	1	2771.748	-76.09933	3.96666E-007	-9.177311E-005	8
	54	156	1.201923	795.416	-3283.507	1	3378.476	-76.38266	4.309002E-007	-0.0001093	8
	55	163	0.956633	940.8679	-3994.113	1	4103.435	-76.74485	3.939138E-007	-0.0006663	8
