EXPLAIN
TAG	EISPOT
TITLE	LABEL	Potentiostatic EIS	Test Identifier
DATE	LABEL	10/12/2021	Date
TIME	LABEL	13:04:28	Time
NOTES	NOTES	1	Notes...
	
PSTAT	PSTAT	REF3000-16137	Potentiostat
VDC	POTEN	0.00000E+000	T	DC Voltage (V)
FREQINIT	QUANT	3.00000E+005	Initial Freq. (Hz)
FREQFINAL	QUANT	1.00000E+000	Final Freq. (Hz)
PTSPERDEC	QUANT	1.00000E+001	Points/decade
VAC	QUANT	5.00000E+001	AC Voltage (mV rms)
AREA	QUANT	1.00000E+000	Sample Area (cm^2)
SPEED	SELECTOR	2	Optimize for:
ZGUESS	QUANT	1.00000E+003	Estimated Z (ohms)
EOC	QUANT	0	Open Circuit (V)
SEQUENCER	TOGGLE	TRUE	Run as Sequence
PSTATMODEL	IQUANT	5	Pstat Model
PSTATSECTION	LABEL	REF3000-16137	Pstat Section
PSTATSERIALNO	LABEL	16137	Pstat Serial Number
CTRLMODE	IQUANT	1	Control Mode
IESTAB	IQUANT	0	I/E Stability
CASPEED	IQUANT	1	Control Amp Speed
CONVENTION	IQUANT	1	Current Convention
ICHRANGE	IQUANT	2	Ich Range
ICHRANGEMODE	TOGGLE	F	Ich Auto Range
ICHOFFSETENABLE	TOGGLE	T	Ich Offset Enable
ICHOFFSET	QUANT	0	Ich Offset (V)
ICHFILTER	IQUANT	3	Ich Filter
VCHRANGE	IQUANT	2	Vch Range
VCHRANGEMODE	TOGGLE	F	Vch Auto Range
VCHOFFSETENABLE	TOGGLE	T	Vch Offset Enable
VCHOFFSET	QUANT	0	Vch Offset (V)
VCHFILTER	IQUANT	3	Vch Filter
ACHRANGE	IQUANT	2	Ach Range
ACHOFFSETENABLE	TOGGLE	F	Ach Offset Enable
ACHOFFSET	QUANT	0	Ach Offset (V)
ACHFILTER	IQUANT	3	Ach Filter
IERANGELOWERLIMIT	IQUANT	2	I/E Range Lower Limit
IERANGEMODE	TOGGLE	F	I/E AutoRange
IERANGE	IQUANT	11	I/E Range
POSFEEDENABLE	TOGGLE	F	Positive Feedback IR Comp
POSFEEDRESISTANCE	QUANT	0	Positive Feedback Resistance (ohm)
ACHSELECT	IQUANT	0	Ach Select
CABLEID	IQUANT	13	Cable ID
DCCALDATE	LABEL	9/10/2021	DC Calibration Date
ACCALDATE	LABEL	9/10/2021	AC Calibration Date
THERMOSELECT	IQUANT	1	Thermo Select
FRAMEWORKVERSION	QUANT	6.33	Framework Version
INSTRUMENTVERSION	LABEL	3.50	Instrument Version
COMPLIANCEVOLTAGE	IQUANT	0	Compliance Voltage
ZCURVE	TABLE
	Pt	Time	Freq	Zreal	Zimag	Zsig	Zmod	Zphz	Idc	Vdc	IERange
	#	s	Hz	ohm	ohm	V	ohm	°	A	V	#
	0	17	300046.9	353.3972	-45.24119	1	356.2813	-7.295209	2.602641E-005	-0.0002174	10
	1	22	238359.4	362.206	-31.65873	1	363.587	-4.995261	-1.070866E-005	0.0013658	9
	2	27	189328.1	371.259	-27.22617	1	372.256	-4.194261	5.173766E-005	-0.0003612	9
	3	33	150421.9	382.4585	-22.86848	1	383.1415	-3.421834	1.698538E-005	-0.0006882	9
	4	40	119484.4	390.1997	-6.702244	1	390.2573	-0.984041	-4.502547E-005	0.0124788	8
	5	44	94921.88	394.5487	-17.96623	1	394.9576	-2.607229	-1.708881E-005	-0.0001027	9
	6	47	75421.88	398.4187	-6.050219	1	398.4646	-0.8700027	-1.105787E-005	0.001091	8
	7	50	59859.37	402.1859	-5.712606	1	402.2264	-0.8137686	1.493358E-005	-0.0032551	8
	8	52	47578.12	405.8105	-6.061537	1	405.8558	-0.8557557	-1.314464E-005	0.002173	8
	9	55	37828.12	410.0759	-5.732947	1	410.116	-0.8009548	-8.156275E-006	0.005281	8
	10	57	30046.88	413.897	-6.197569	1	413.9434	-0.8578656	2.070564E-006	-0.004085	8
	11	60	23859.38	419.0198	-6.125477	1	419.0646	-0.8375236	-1.445686E-005	0.0038845	8
	12	63	18984.38	421.3222	-6.588262	1	421.3737	-0.8958674	-1.475161E-005	0.004423	8
	13	65	15046.87	424.5221	-6.627998	1	424.5738	-0.8944775	2.0581E-006	-0.0040901	8
	14	67	11953.13	428.7727	-8.609958	1	428.8591	-1.150372	-1.463279E-005	0.0054804	8
	15	69	9515.62	433.5061	-7.801658	1	433.5763	-1.031021	8.788325E-006	0.0007195	8
	16	72	7546.875	438.326	-9.8573	1	438.4369	-1.28828	1.089157E-005	-0.0058755	8
	17	74	5928.309	443.1165	-10.73366	1	443.2465	-1.38761	1.700747E-006	-0.0040389	8
	18	77	4733.456	447.7603	-12.56089	1	447.9364	-1.60688	1.191348E-005	-0.0061252	8
	19	79	3796.875	453.1331	-14.35765	1	453.3605	-1.814826	1.342864E-005	-0.0036022	8
	20	81	2987.132	458.0816	-14.89969	1	458.3239	-1.862961	2.016917E-006	-0.0042427	8
	21	84	2390.625	461.8315	-16.97722	1	462.1434	-2.105281	-1.532696E-005	0.0045868	8
	22	86	1884.191	466.6163	-19.54443	1	467.0255	-2.398456	1.58649E-005	-0.004204	8
	23	88	1516.544	473.5853	-21.85458	1	474.0893	-2.642159	-1.237331E-005	0.0058725	8
	24	91	1193.986	478.9657	-24.14144	1	479.5737	-2.885453	7.842705E-006	-0.0056108	8
	25	93	946.5144	485.7122	-27.28986	1	486.4783	-3.215797	-8.745446E-006	-0.000496	8
	26	95	751.7689	491.6995	-32.73193	1	492.7878	-3.808501	1.262436E-005	-0.0012971	8
	27	98	597.4265	499.82	-37.53702	1	501.2276	-4.294912	2.38498E-006	-0.0043106	8
	28	100	477.4305	506.3481	-42.18099	1	508.102	-4.761992	-5.54284E-008	-0.0001056	8
	29	102	376.6741	513.7398	-49.02813	1	516.074	-5.451442	-1.014548E-008	-0.0001298	8
	30	105	298.2954	521.5612	-57.27253	1	524.6963	-6.266531	-1.926731E-008	-0.0001169	8
	31	107	237.7717	529.8984	-67.06519	1	534.1255	-7.213139	-2.277443E-008	-0.000129	8
	32	110	189.0121	538.827	-79.11749	1	544.6046	-8.35321	-4.563272E-008	-0.0001197	8
	33	112	150.2404	548.4556	-93.77175	1	556.4141	-9.70229	-2.285092E-008	-0.0001095	8
	34	114	119.1737	558.9963	-111.774	1	570.0617	-11.30744	-1.343773E-008	-0.0001261	8
	35	117	95.0169	570.5225	-133.1409	1	585.8519	-13.13583	-4.376154E-009	-0.0001285	8
	36	119	75.60484	583.562	-159.2344	1	604.8969	-15.26253	-3.620163E-008	-0.0001244	8
	37	122	54.50582	602.8132	-206.2654	1	637.1257	-18.88948	-2.466758E-008	-0.0001437	8
	38	124	45.95588	616.4966	-236.5648	1	660.3264	-20.99302	1.84189E-008	-0.0001344	8
	39	127	37.20238	633.6899	-280.438	1	692.9707	-23.87168	-2.327118E-008	-0.0001155	8
	40	129	30.04808	653.3868	-333.4697	1	733.5641	-27.03845	2.198177E-008	-0.000131	8
	41	132	23.91582	676.5645	-401.5551	1	786.7567	-30.69001	-1.066734E-007	-0.0001282	8
	42	134	18.60119	704.7924	-493.7301	1	860.5242	-35.0125	-1.412802E-007	-0.0001082	8
	43	136	15.02404	733.6443	-589.4307	1	941.0964	-38.77938	-1.158921E-007	-0.0001096	8
	44	139	12.01923	767.6406	-709.6037	1	1045.375	-42.75016	-1.285479E-007	-0.0001159	8
	45	141	9.450605	809.1464	-869.046	1	1187.417	-47.04419	1.402813E-008	-0.0001076	8
	46	144	7.512019	856.1337	-1057.112	1	1360.313	-50.99669	-5.504718E-009	-0.0001444	8
	47	146	5.978954	911.3514	-1285.386	1	1575.683	-54.66298	-5.83082E-008	-0.0001056	8
	48	149	4.734848	977.982	-1573.374	1	1852.553	-58.13564	-6.554107E-008	-0.0001593	8
	49	153	3.75601	1059.284	-1924.829	1	2197.054	-61.17485	-1.750734E-008	-0.000095	8
	50	156	3.004808	1154.131	-2339.042	1	2608.282	-63.73732	-5.4829E-008	-0.0001171	8
	51	160	2.372217	1282.532	-2880.353	1	3152.986	-65.99806	-6.166679E-008	-0.0001931	8
	52	164	1.878005	1432.434	-3540.592	1	3819.379	-67.97299	-3.171717E-008	-0.0001134	8
	53	169	1.512097	1611.443	-4283.536	1	4576.617	-69.38397	-2.24086E-008	-0.0001306	7
	54	174	1.201923	1846.623	-5260.668	1	5575.36	-70.65768	-6.935741E-009	-7.923428E-005	7
	55	180	0.956633	2137.871	-6430.72	1	6776.773	-71.61079	-3.483624E-008	-0.0006538	7
