EXPLAIN
TAG	EISPOT
TITLE	LABEL	Potentiostatic EIS	Test Identifier
DATE	LABEL	10/12/2021	Date
TIME	LABEL	13:01:28	Time
NOTES	NOTES	1	Notes...
	
PSTAT	PSTAT	REF3000-16137	Potentiostat
VDC	POTEN	0.00000E+000	T	DC Voltage (V)
FREQINIT	QUANT	3.00000E+005	Initial Freq. (Hz)
FREQFINAL	QUANT	1.00000E+000	Final Freq. (Hz)
PTSPERDEC	QUANT	1.00000E+001	Points/decade
VAC	QUANT	5.00000E+001	AC Voltage (mV rms)
AREA	QUANT	1.00000E+000	Sample Area (cm^2)
SPEED	SELECTOR	2	Optimize for:
ZGUESS	QUANT	1.00000E+003	Estimated Z (ohms)
EOC	QUANT	0	Open Circuit (V)
SEQUENCER	TOGGLE	TRUE	Run as Sequence
PSTATMODEL	IQUANT	5	Pstat Model
PSTATSECTION	LABEL	REF3000-16137	Pstat Section
PSTATSERIALNO	LABEL	16137	Pstat Serial Number
CTRLMODE	IQUANT	1	Control Mode
IESTAB	IQUANT	0	I/E Stability
CASPEED	IQUANT	1	Control Amp Speed
CONVENTION	IQUANT	1	Current Convention
ICHRANGE	IQUANT	2	Ich Range
ICHRANGEMODE	TOGGLE	F	Ich Auto Range
ICHOFFSETENABLE	TOGGLE	T	Ich Offset Enable
ICHOFFSET	QUANT	0	Ich Offset (V)
ICHFILTER	IQUANT	3	Ich Filter
VCHRANGE	IQUANT	2	Vch Range
VCHRANGEMODE	TOGGLE	F	Vch Auto Range
VCHOFFSETENABLE	TOGGLE	T	Vch Offset Enable
VCHOFFSET	QUANT	0	Vch Offset (V)
VCHFILTER	IQUANT	3	Vch Filter
ACHRANGE	IQUANT	2	Ach Range
ACHOFFSETENABLE	TOGGLE	F	Ach Offset Enable
ACHOFFSET	QUANT	0	Ach Offset (V)
ACHFILTER	IQUANT	3	Ach Filter
IERANGELOWERLIMIT	IQUANT	2	I/E Range Lower Limit
IERANGEMODE	TOGGLE	F	I/E AutoRange
IERANGE	IQUANT	11	I/E Range
POSFEEDENABLE	TOGGLE	F	Positive Feedback IR Comp
POSFEEDRESISTANCE	QUANT	0	Positive Feedback Resistance (ohm)
ACHSELECT	IQUANT	0	Ach Select
CABLEID	IQUANT	13	Cable ID
DCCALDATE	LABEL	9/10/2021	DC Calibration Date
ACCALDATE	LABEL	9/10/2021	AC Calibration Date
THERMOSELECT	IQUANT	1	Thermo Select
FRAMEWORKVERSION	QUANT	6.33	Framework Version
INSTRUMENTVERSION	LABEL	3.50	Instrument Version
COMPLIANCEVOLTAGE	IQUANT	0	Compliance Voltage
ZCURVE	TABLE
	Pt	Time	Freq	Zreal	Zimag	Zsig	Zmod	Zphz	Idc	Vdc	IERange
	#	s	Hz	ohm	ohm	V	ohm	°	A	V	#
	0	9	300046.9	197.0129	-9.326674	1	197.2335	-2.710383	-9.351934E-006	-0.0017649	9
	1	12	238359.4	199.7523	-7.667906	1	199.8995	-2.198337	7.211031E-005	-0.0034385	9
	2	17	189328.1	202.4776	-6.511758	1	202.5823	-1.84202	1.776812E-005	-0.0016628	9
	3	19	150421.9	205.5298	-6.805645	1	205.6424	-1.896525	2.916494E-005	0.0004317	9
	4	23	119484.4	207.3952	-5.435558	1	207.4664	-1.501304	1.913976E-005	-0.0015239	9
	5	26	94921.88	209.4809	-5.003864	1	209.5406	-1.368363	1.027221E-006	0.0003087	9
	6	28	75421.88	211.2308	-4.568013	1	211.2802	-1.238868	-3.110723E-006	-0.0005771	9
	7	31	59859.37	213.1482	-4.152932	1	213.1887	-1.116197	-2.281787E-005	0.0003419	9
	8	33	47578.12	214.7984	-4.109274	1	214.8378	-1.095983	-3.219661E-006	-0.0005675	9
	9	36	37828.12	216.6546	-3.979881	1	216.6911	-1.052388	1.382216E-005	-6.511371E-005	9
	10	38	30046.88	219.0206	-4.153289	1	219.0599	-1.08637	2.679114E-005	-0.0008717	9
	11	41	23859.38	221.0133	-4.286859	1	221.0549	-1.111192	2.346372E-005	-0.0005226	9
	12	43	18984.38	222.8555	-4.559634	1	222.9022	-1.172111	2.660565E-005	-0.000715	9
	13	46	15046.87	224.7598	-5.283308	1	224.8219	-1.346573	-1.675817E-005	-8.597671E-005	9
	14	48	11953.13	226.5657	-4.793626	1	226.6164	-1.212071	2.629997E-005	-0.000561	9
	15	50	9515.62	229.1407	-6.153541	1	229.2234	-1.5383	-2.181784E-005	0.0008067	9
	16	53	7546.875	231.4417	-7.024343	1	231.5482	-1.738415	-2.267441E-005	0.0008367	9
	17	55	5928.309	233.9547	-7.454207	1	234.0734	-1.824927	2.721146E-005	-0.0008964	9
	18	57	4733.456	236.422	-8.34411	1	236.5692	-2.021317	-1.870371E-005	6.688023E-005	9
	19	60	3796.875	239.6063	-9.55257	1	239.7966	-2.283046	1.523985E-005	-0.0010683	9
	20	63	2987.132	243.9143	-10.67346	1	244.1477	-2.50561	-2.202946E-005	0.0007742	9
	21	67	2390.625	247.2523	-12.36156	1	247.5611	-2.862161	2.382658E-005	-0.0005197	9
	22	70	1884.191	250.5362	-13.85808	1	250.9191	-3.166015	-2.216804E-005	0.0002987	9
	23	73	1516.544	255.0832	-15.91665	1	255.5793	-3.570505	2.730762E-005	-0.0009129	9
	24	77	1193.986	259.4733	-18.59826	1	260.139	-4.099776	2.47492E-005	-0.0009877	9
	25	80	946.5144	263.747	-21.39099	1	264.613	-4.63678	2.569877E-005	-0.0009952	9
	26	84	751.7689	267.8666	-25.18096	1	269.0476	-5.370341	2.559343E-005	-0.0007027	9
	27	86	597.4265	273.0442	-29.09321	1	274.5898	-6.081992	2.617397E-005	-0.0007015	9
	28	90	477.4305	276.7292	-33.92785	1	278.8013	-6.989753	3.251749E-007	-0.0001361	9
	29	92	376.6741	281.1513	-40.14536	1	284.003	-8.126287	3.125545E-007	-0.000138	9
	30	95	298.2954	285.9032	-47.64087	1	289.8453	-9.460437	2.84406E-007	-0.0001279	9
	31	97	237.7717	291.1021	-56.53205	1	296.5406	-10.99005	2.605294E-007	-0.0001342	9
	32	100	189.0121	296.8737	-67.43472	1	304.4362	-12.79756	2.788911E-007	-0.000131	9
	33	102	150.2404	303.2928	-80.66252	1	313.8359	-14.89339	3.39254E-007	-0.0001342	9
	34	105	119.1737	310.4739	-96.8459	1	325.2278	-17.32422	2.676321E-007	-0.0001283	9
	35	107	95.0169	318.4967	-116.0048	1	338.965	-20.01294	3.260591E-007	-0.000131	9
	36	109	75.60484	327.6656	-139.3724	1	356.075	-23.04245	3.364459E-007	-0.0001336	9
	37	112	54.50582	340.4371	-180.7442	1	385.4424	-27.96464	2.051125E-008	-0.0001261	8
	38	114	45.95588	350.0455	-207.8073	1	407.082	-30.69583	2.869621E-008	-0.0001223	8
	39	117	37.20238	362.5735	-247.1261	1	438.7834	-34.27791	-1.302866E-009	-0.0001198	8
	40	119	30.04808	376.8969	-294.8467	1	478.5246	-38.0361	5.765444E-008	-0.0001678	8
	41	122	23.91582	394.1666	-356.5341	1	531.4921	-42.13018	8.471791E-008	-0.000168	8
	42	124	18.60119	415.7126	-440.4003	1	605.6149	-46.65178	-8.366704E-008	-0.0001224	8
	43	126	15.02404	437.5131	-527.8516	1	685.5983	-50.34615	7.727058E-008	-0.0001131	8
	44	129	12.01923	464.0602	-638.6039	1	789.4092	-53.99487	7.591675E-008	-0.0001213	8
	45	131	9.450605	497.6365	-785.7598	1	930.0863	-57.65314	5.682847E-008	-0.0001378	8
	46	134	7.512019	536.6219	-959.224	1	1099.124	-60.77588	6.559629E-008	-0.000133	8
	47	136	5.978954	583.5359	-1169.996	1	1307.442	-63.49225	6.840297E-008	-0.0001262	8
	48	139	4.734848	642.111	-1436.283	1	1573.281	-65.91228	-1.595972E-008	-0.0001596	8
	49	143	3.75601	715.4172	-1759.495	1	1899.38	-67.87316	4.370834E-008	-0.000104	8
	50	146	3.004808	803.6442	-2139.23	1	2285.202	-69.41032	1.531904E-008	-0.0001405	8
	51	150	2.372217	920.7322	-2635.109	1	2791.335	-70.7401	1.41425E-008	-0.0002017	8
	52	154	1.878005	1064.913	-3231.958	1	3402.879	-71.76322	9.320281E-009	-0.0001431	8
	53	159	1.512097	1235.417	-3900.224	1	4091.211	-72.42413	8.403631E-009	-0.0002131	8
	54	164	1.201923	1453.888	-4780.135	1	4996.347	-73.08276	-1.123366E-008	-8.118014E-005	7
	55	170	0.956633	1719.885	-5827.688	1	6076.179	-73.55746	-2.293203E-008	-0.0006546	7
