EXPLAIN
TAG	EISPOT
TITLE	LABEL	Potentiostatic EIS	Test Identifier
DATE	LABEL	10/12/2021	Date
TIME	LABEL	12:50:25	Time
NOTES	NOTES	1	Notes...
	
PSTAT	PSTAT	REF3000-16137	Potentiostat
VDC	POTEN	0.00000E+000	T	DC Voltage (V)
FREQINIT	QUANT	3.00000E+005	Initial Freq. (Hz)
FREQFINAL	QUANT	1.00000E+000	Final Freq. (Hz)
PTSPERDEC	QUANT	1.00000E+001	Points/decade
VAC	QUANT	5.00000E+001	AC Voltage (mV rms)
AREA	QUANT	1.00000E+000	Sample Area (cm^2)
SPEED	SELECTOR	2	Optimize for:
ZGUESS	QUANT	1.00000E+003	Estimated Z (ohms)
EOC	QUANT	0	Open Circuit (V)
SEQUENCER	TOGGLE	TRUE	Run as Sequence
PSTATMODEL	IQUANT	5	Pstat Model
PSTATSECTION	LABEL	REF3000-16137	Pstat Section
PSTATSERIALNO	LABEL	16137	Pstat Serial Number
CTRLMODE	IQUANT	1	Control Mode
IESTAB	IQUANT	0	I/E Stability
CASPEED	IQUANT	1	Control Amp Speed
CONVENTION	IQUANT	1	Current Convention
ICHRANGE	IQUANT	2	Ich Range
ICHRANGEMODE	TOGGLE	F	Ich Auto Range
ICHOFFSETENABLE	TOGGLE	T	Ich Offset Enable
ICHOFFSET	QUANT	0	Ich Offset (V)
ICHFILTER	IQUANT	3	Ich Filter
VCHRANGE	IQUANT	2	Vch Range
VCHRANGEMODE	TOGGLE	F	Vch Auto Range
VCHOFFSETENABLE	TOGGLE	T	Vch Offset Enable
VCHOFFSET	QUANT	0	Vch Offset (V)
VCHFILTER	IQUANT	3	Vch Filter
ACHRANGE	IQUANT	2	Ach Range
ACHOFFSETENABLE	TOGGLE	F	Ach Offset Enable
ACHOFFSET	QUANT	0	Ach Offset (V)
ACHFILTER	IQUANT	3	Ach Filter
IERANGELOWERLIMIT	IQUANT	2	I/E Range Lower Limit
IERANGEMODE	TOGGLE	F	I/E AutoRange
IERANGE	IQUANT	11	I/E Range
POSFEEDENABLE	TOGGLE	F	Positive Feedback IR Comp
POSFEEDRESISTANCE	QUANT	0	Positive Feedback Resistance (ohm)
ACHSELECT	IQUANT	0	Ach Select
CABLEID	IQUANT	13	Cable ID
DCCALDATE	LABEL	9/10/2021	DC Calibration Date
ACCALDATE	LABEL	9/10/2021	AC Calibration Date
THERMOSELECT	IQUANT	1	Thermo Select
FRAMEWORKVERSION	QUANT	6.33	Framework Version
INSTRUMENTVERSION	LABEL	3.50	Instrument Version
COMPLIANCEVOLTAGE	IQUANT	0	Compliance Voltage
ZCURVE	TABLE
	Pt	Time	Freq	Zreal	Zimag	Zsig	Zmod	Zphz	Idc	Vdc	IERange
	#	s	Hz	ohm	ohm	V	ohm	°	A	V	#
	0	7	300046.9	34.61582	0.968893	1	34.62938	1.603285	-0.0001589	-0.000469	11
	1	11	238359.4	34.93423	1.017022	1	34.94903	1.667551	9.139716E-006	-0.0002159	10
	2	14	189328.1	35.21344	0.6869045	1	35.22013	1.117521	-5.948262E-005	-0.0001915	10
	3	17	150421.9	35.40226	0.4848635	1	35.40558	0.7846645	-0.0001138	-0.0002352	10
	4	19	119484.4	35.72489	0.1162796	1	35.72508	0.1864893	2.370204E-005	-0.0002297	10
	5	22	94921.88	36.01645	0.1775195	1	36.01688	0.2823997	-6.304588E-006	-0.0001286	9
	6	24	75421.88	36.27875	-0.1182389	1	36.27894	-0.1867366	-1.190587E-005	0.0002445	9
	7	27	59859.37	36.56837	-0.3815966	1	36.57036	-0.5978687	7.946815E-006	-0.0006549	9
	8	29	47578.12	36.87741	-0.6369643	1	36.88291	-0.989542	-3.526049E-006	-0.0003414	9
	9	32	37828.12	37.21919	-0.8786005	1	37.22956	-1.35228	-1.450335E-005	0.0002835	9
	10	35	30046.88	37.57981	-1.126207	1	37.59668	-1.716549	-4.006862E-006	-0.0003127	9
	11	37	23859.38	37.9519	-1.378671	1	37.97693	-2.080457	6.716443E-006	-0.0005891	9
	12	39	18984.38	38.32339	-1.633808	1	38.3582	-2.441164	-8.972902E-006	-0.0000986	9
	13	42	15046.87	38.73153	-1.91687	1	38.77894	-2.833325	-1.405538E-005	5.416952E-005	9
	14	44	11953.13	39.15118	-2.217277	1	39.21392	-3.241411	1.469556E-005	-0.0003454	9
	15	46	9515.62	39.58588	-2.544966	1	39.6676	-3.678468	1.639279E-006	-0.0004679	9
	16	49	7546.875	40.02427	-2.945645	1	40.13252	-4.209177	1.653733E-006	2.156079E-005	9
	17	51	5928.309	40.52353	-3.426015	1	40.6681	-4.832513	-9.490434E-006	-0.000098	9
	18	53	4733.456	41.01541	-3.959559	1	41.20609	-5.514152	2.120101E-006	5.817728E-005	9
	19	56	3796.875	41.53206	-4.576775	1	41.78347	-6.288541	1.58793E-005	-0.0004663	9
	20	58	2987.132	42.12183	-5.406901	1	42.46743	-7.314681	-1.567782E-005	0.0002338	9
	21	60	2390.625	42.72935	-6.336831	1	43.19668	-8.435571	1.768072E-005	-0.0005554	9
	22	63	1884.191	43.40654	-7.496315	1	44.04909	-9.79834	-1.260823E-005	2.493575E-005	9
	23	65	1516.544	44.10764	-8.837091	1	44.9842	-11.32937	-9.305133E-006	-0.000109	9
	24	67	1193.986	44.96459	-10.61497	1	46.20056	-13.28285	-8.890793E-006	0.0003498	9
	25	70	946.5144	45.89825	-12.68157	1	47.61797	-15.44534	2.248306E-006	3.297474E-005	9
	26	72	751.7689	46.91912	-15.19255	1	49.31752	-17.9421	1.764425E-005	-0.0005641	9
	27	74	597.4265	48.08658	-18.20997	1	51.41909	-20.74124	9.232439E-006	-0.000156	9
	28	77	477.4305	49.42244	-21.76693	1	54.00348	-23.76994	4.854353E-007	-0.0001308	9
	29	79	376.6741	50.97538	-26.31473	1	57.36684	-27.30388	4.146921E-007	-0.0001345	9
	30	81	298.2954	52.73664	-31.77338	1	61.56867	-31.06861	3.954191E-007	-0.0001308	9
	31	84	237.7717	54.72383	-38.22039	1	66.7495	-34.93134	4.212577E-007	-0.0001342	9
	32	86	189.0121	57.03256	-46.1454	1	73.36287	-38.97654	7.130644E-007	-0.0001709	9
	33	89	150.2404	59.69402	-55.79803	1	81.71166	-43.06793	4.177436E-007	-0.0001322	9
	34	91	119.1737	62.80442	-67.69281	1	92.34019	-47.14528	4.470671E-007	-0.0001308	9
	35	93	95.0169	66.3541	-81.89966	1	105.406	-50.98603	3.633717E-007	-0.000133	9
	36	96	75.60484	70.55999	-99.4148	1	121.9099	-54.63465	3.748531E-007	-0.000138	9
	37	99	54.50582	77.80473	-131.4983	1	152.7919	-59.3881	3.757696E-007	-0.0001391	9
	38	101	45.95588	82.5265	-152.3623	1	173.2769	-61.55797	3.578216E-007	-0.0001333	9
	39	104	37.20238	89.2599	-182.9415	1	203.5557	-63.99156	3.165948E-007	-0.0001355	9
	40	106	30.04808	97.476	-220.316	1	240.9164	-66.13363	4.484529E-007	-0.0001407	9
	41	108	23.91582	108.1426	-268.8717	1	289.8048	-68.08958	2.892006E-007	-0.0001409	9
	42	111	18.60119	122.701	-334.7642	1	356.5425	-69.87062	4.660526E-007	-0.0001397	9
	43	113	15.02404	137.6958	-401.6051	1	424.5548	-71.07502	3.497199E-007	-0.0001157	8
	44	115	12.01923	157.5515	-487.773	1	512.5865	-72.09945	3.70033E-007	-0.0001225	8
	45	118	9.450605	184.4412	-600.9966	1	628.6617	-72.93916	2.386801E-007	-0.0001115	8
	46	120	7.512019	216.0086	-732.6556	1	763.835	-73.57292	3.445406E-007	-0.000104	8
	47	123	5.978954	255.0594	-891.2278	1	927.0071	-74.02947	3.027436E-007	-0.0001257	8
	48	126	4.734848	303.4197	-1088.942	1	1130.424	-74.43018	4.006085E-007	-0.0001045	8
	49	129	3.75601	362.6501	-1326.79	1	1375.459	-74.71281	3.179655E-007	-0.0001317	8
	50	133	3.004808	431.2908	-1603.532	1	1660.52	-74.94582	3.856435E-007	-0.0001483	8
	51	136	2.372217	517.73	-1959.295	1	2026.544	-75.1983	3.702639E-007	-0.0001611	8
	52	141	1.878005	625.7192	-2390.902	1	2471.424	-75.33414	3.453596E-007	-0.0001156	8
	53	145	1.512097	739.0953	-2875.675	1	2969.136	-75.58603	3.560676E-007	-0.0002208	8
	54	151	1.201923	885.131	-3499.108	1	3609.323	-75.8043	3.313411E-007	-0.0001237	8
	55	157	0.956633	1055.242	-4258.252	1	4387.054	-76.08185	2.802346E-008	-0.0006561	7
