EXPLAIN
TAG	EISPOT
TITLE	LABEL	Potentiostatic EIS	Test Identifier
DATE	LABEL	10/12/2021	Date
TIME	LABEL	12:28:00	Time
NOTES	NOTES	1	Notes...
	
PSTAT	PSTAT	REF3000-16137	Potentiostat
VDC	POTEN	0.00000E+000	T	DC Voltage (V)
FREQINIT	QUANT	3.00000E+005	Initial Freq. (Hz)
FREQFINAL	QUANT	1.00000E+000	Final Freq. (Hz)
PTSPERDEC	QUANT	1.00000E+001	Points/decade
VAC	QUANT	5.00000E+001	AC Voltage (mV rms)
AREA	QUANT	1.00000E+000	Sample Area (cm^2)
SPEED	SELECTOR	2	Optimize for:
ZGUESS	QUANT	1.00000E+003	Estimated Z (ohms)
EOC	QUANT	0	Open Circuit (V)
SEQUENCER	TOGGLE	TRUE	Run as Sequence
PSTATMODEL	IQUANT	5	Pstat Model
PSTATSECTION	LABEL	REF3000-16137	Pstat Section
PSTATSERIALNO	LABEL	16137	Pstat Serial Number
CTRLMODE	IQUANT	1	Control Mode
IESTAB	IQUANT	0	I/E Stability
CASPEED	IQUANT	1	Control Amp Speed
CONVENTION	IQUANT	1	Current Convention
ICHRANGE	IQUANT	2	Ich Range
ICHRANGEMODE	TOGGLE	F	Ich Auto Range
ICHOFFSETENABLE	TOGGLE	T	Ich Offset Enable
ICHOFFSET	QUANT	0	Ich Offset (V)
ICHFILTER	IQUANT	3	Ich Filter
VCHRANGE	IQUANT	2	Vch Range
VCHRANGEMODE	TOGGLE	F	Vch Auto Range
VCHOFFSETENABLE	TOGGLE	T	Vch Offset Enable
VCHOFFSET	QUANT	0	Vch Offset (V)
VCHFILTER	IQUANT	3	Vch Filter
ACHRANGE	IQUANT	2	Ach Range
ACHOFFSETENABLE	TOGGLE	F	Ach Offset Enable
ACHOFFSET	QUANT	0	Ach Offset (V)
ACHFILTER	IQUANT	3	Ach Filter
IERANGELOWERLIMIT	IQUANT	2	I/E Range Lower Limit
IERANGEMODE	TOGGLE	F	I/E AutoRange
IERANGE	IQUANT	11	I/E Range
POSFEEDENABLE	TOGGLE	F	Positive Feedback IR Comp
POSFEEDRESISTANCE	QUANT	0	Positive Feedback Resistance (ohm)
ACHSELECT	IQUANT	0	Ach Select
CABLEID	IQUANT	13	Cable ID
DCCALDATE	LABEL	9/10/2021	DC Calibration Date
ACCALDATE	LABEL	9/10/2021	AC Calibration Date
THERMOSELECT	IQUANT	1	Thermo Select
FRAMEWORKVERSION	QUANT	6.33	Framework Version
INSTRUMENTVERSION	LABEL	3.50	Instrument Version
COMPLIANCEVOLTAGE	IQUANT	0	Compliance Voltage
ZCURVE	TABLE
	Pt	Time	Freq	Zreal	Zimag	Zsig	Zmod	Zphz	Idc	Vdc	IERange
	#	s	Hz	ohm	ohm	V	ohm	°	A	V	#
	0	10	300046.9	3.502866	2.394945	1	4.243327	34.36081	-3.501461E-005	-0.0008275	10
	1	13	238359.4	3.485025	1.879003	1	3.9593	28.33199	2.955684E-005	-0.0012823	10
	2	17	189328.1	3.469183	1.482112	1	3.772518	23.13325	-3.302212E-005	-0.0009357	10
	3	19	150421.9	3.475468	1.157186	1	3.663053	18.41561	-8.951152E-005	-0.0006663	10
	4	22	119484.4	3.474733	0.877488	1	3.583818	14.17281	7.259533E-005	-0.0006934	10
	5	24	94921.88	3.483341	0.6599574	1	3.545308	10.72816	1.462714E-005	-0.0004095	10
	6	27	75421.88	3.496083	0.469879	1	3.527518	7.654769	-7.421966E-007	-0.0003576	10
	7	29	59859.37	3.511106	0.3039827	1	3.524241	4.948184	6.233352E-006	-0.0002997	10
	8	32	47578.12	3.528011	0.1576128	1	3.531529	2.55797	1.209744E-005	-0.0002476	10
	9	34	37828.12	3.549859	0.0239391	1	3.54994	0.3863789	-1.557615E-005	-0.0001673	10
	10	37	30046.88	3.572379	-0.1063686	1	3.573962	-1.705495	-9.000478E-006	-0.0001921	10
	11	39	23859.38	3.599555	-0.2376328	1	3.60739	-3.77703	-1.254169E-005	-0.0001737	10
	12	42	18984.38	3.631153	-0.3739026	1	3.650353	-5.87907	-1.961294E-005	-0.0001116	10
	13	44	15046.87	3.665844	-0.5258225	1	3.703364	-8.162732	2.322424E-005	-0.0001508	10
	14	46	11953.13	3.706345	-0.694696	1	3.770888	-10.61602	1.530613E-005	-0.0001542	10
	15	49	9515.62	3.752505	-0.8884619	1	3.856249	-13.32035	1.88403E-005	-0.0001496	10
	16	51	7546.875	3.8076	-1.120494	1	3.969046	-16.39801	2.016982E-005	-0.000147	10
	17	53	5928.309	3.874955	-1.41019	1	4.12358	-19.99767	1.130571E-005	-0.0001544	10
	18	56	4733.456	3.948686	-1.736044	1	4.313464	-23.73275	1.927777E-005	-0.0001416	10
	19	58	3796.875	4.03328	-2.120398	1	4.556691	-27.73204	-9.996334E-006	-0.0000991	10
	20	60	2987.132	4.13866	-2.628145	1	4.902617	-32.4165	6.605501E-006	-0.0001336	10
	21	63	2390.625	4.257241	-3.20383	1	5.328097	-36.96366	-1.125701E-005	-0.0001264	10
	22	65	1884.191	4.402745	-3.962449	1	5.923273	-41.98706	-2.709395E-005	-0.0001235	10
	23	67	1516.544	4.564249	-4.807108	1	6.628775	-46.48449	1.547372E-005	-0.0001388	10
	24	70	1193.986	4.779674	-5.949876	1	7.631927	-51.22428	2.142625E-005	-0.0001416	10
	25	72	946.5144	5.030724	-7.326256	1	8.887194	-55.52376	-2.793525E-005	-0.0001345	10
	26	74	751.7689	5.345819	-8.996397	1	10.46484	-59.28046	-1.414553E-005	-0.0001153	10
	27	77	597.4265	5.738432	-11.04706	1	12.44858	-62.55023	-1.06031E-005	-0.0001329	10
	28	79	477.4305	6.213351	-13.50302	1	14.86396	-65.2907	1.774948E-006	-0.0001569	10
	29	81	376.6741	6.840353	-16.6773	1	18.02561	-67.69854	-1.121514E-006	-0.0001153	10
	30	84	298.2954	7.619358	-20.52377	1	21.89246	-69.63278	-1.246501E-006	-0.0001153	10
	31	86	237.7717	8.575459	-25.09322	1	26.51807	-71.13244	-1.464368E-006	-0.000116	10
	32	89	189.0121	9.79606	-30.73439	1	32.2578	-72.32121	-1.998449E-006	-0.0001151	10
	33	91	150.2404	11.33092	-37.59808	1	39.26838	-73.22879	-1.64996E-006	-0.0001165	10
	34	93	119.1737	13.25725	-45.97102	1	47.84443	-73.91335	2.951442E-007	-0.0001367	9
	35	96	95.0169	15.62089	-55.94676	1	58.08659	-74.39974	9.684473E-008	-0.0001335	9
	36	98	75.60484	18.56437	-68.12991	1	70.61388	-74.75781	4.201008E-008	-0.0001357	9
	37	101	54.50582	23.95526	-90.13036	1	93.25951	-75.11578	7.064628E-009	-0.0001422	9
	38	103	45.95588	27.44197	-104.2539	1	107.8051	-75.25298	1.32921E-007	-0.0001283	9
	39	106	37.20238	32.49771	-124.724	1	128.8883	-75.3959	1.691459E-007	-0.0001388	9
	40	108	30.04808	38.60195	-149.5081	1	154.4111	-75.5228	1.10201E-007	-0.0001316	9
	41	111	23.91582	46.26427	-181.202	1	187.0148	-75.6773	1.313566E-007	-0.0001375	9
	42	113	18.60119	56.44044	-224.1192	1	231.1167	-75.865	1.415119E-007	-0.0001299	9
	43	115	15.02404	66.53534	-268.3776	1	276.5022	-76.07614	3.490479E-007	-0.0001279	9
	44	117	12.01923	78.9039	-324.1989	1	333.6626	-76.32123	8.926025E-008	-0.0001409	9
	45	120	9.450605	94.20867	-397.9933	1	408.9914	-76.68268	1.582456E-007	-0.0001285	9
	46	122	7.512019	110.3831	-482.3669	1	494.8356	-77.11057	6.021095E-007	-0.0001027	8
	47	125	5.978954	129.6759	-587.4438	1	601.5863	-77.55182	5.719281E-007	-0.0001263	8
	48	128	4.734848	152.261	-720.0797	1	736.0014	-78.06066	6.614708E-007	-9.092847E-005	8
	49	131	3.75601	178.7953	-883.7592	1	901.6641	-78.56274	6.218388E-007	-0.0001247	8
	50	135	3.004808	208.172	-1077.656	1	1097.579	-79.06678	5.835288E-007	-8.902144E-005	8
	51	139	2.372217	246.4629	-1330.268	1	1352.906	-79.50365	5.499718E-007	-0.0001394	8
	52	143	1.878005	292.5568	-1647.92	1	1673.687	-79.93311	6.246103E-007	-0.0001294	8
	53	148	1.512097	341.1657	-2004.059	1	2032.891	-80.33874	5.60581E-007	-8.3782E-005	8
	54	153	1.201923	412.3593	-2481.863	1	2515.886	-80.56654	6.218356E-007	-0.0001038	8
	55	159	0.956633	501.2967	-3062.291	1	3103.051	-80.70315	5.717616E-007	-0.000668	8
