EXPLAIN
TAG	EISPOT
TITLE	LABEL	Potentiostatic EIS	Test Identifier
DATE	LABEL	10/12/2021	Date
TIME	LABEL	13:25:48	Time
NOTES	NOTES	1	Notes...
	
PSTAT	PSTAT	REF3000-16137	Potentiostat
VDC	POTEN	0.00000E+000	T	DC Voltage (V)
FREQINIT	QUANT	3.00000E+005	Initial Freq. (Hz)
FREQFINAL	QUANT	1.00000E+000	Final Freq. (Hz)
PTSPERDEC	QUANT	1.00000E+001	Points/decade
VAC	QUANT	5.00000E+001	AC Voltage (mV rms)
AREA	QUANT	1.00000E+000	Sample Area (cm^2)
SPEED	SELECTOR	2	Optimize for:
ZGUESS	QUANT	1.00000E+003	Estimated Z (ohms)
EOC	QUANT	0	Open Circuit (V)
SEQUENCER	TOGGLE	TRUE	Run as Sequence
PSTATMODEL	IQUANT	5	Pstat Model
PSTATSECTION	LABEL	REF3000-16137	Pstat Section
PSTATSERIALNO	LABEL	16137	Pstat Serial Number
CTRLMODE	IQUANT	1	Control Mode
IESTAB	IQUANT	0	I/E Stability
CASPEED	IQUANT	1	Control Amp Speed
CONVENTION	IQUANT	1	Current Convention
ICHRANGE	IQUANT	2	Ich Range
ICHRANGEMODE	TOGGLE	F	Ich Auto Range
ICHOFFSETENABLE	TOGGLE	T	Ich Offset Enable
ICHOFFSET	QUANT	0	Ich Offset (V)
ICHFILTER	IQUANT	3	Ich Filter
VCHRANGE	IQUANT	2	Vch Range
VCHRANGEMODE	TOGGLE	F	Vch Auto Range
VCHOFFSETENABLE	TOGGLE	T	Vch Offset Enable
VCHOFFSET	QUANT	0	Vch Offset (V)
VCHFILTER	IQUANT	3	Vch Filter
ACHRANGE	IQUANT	2	Ach Range
ACHOFFSETENABLE	TOGGLE	F	Ach Offset Enable
ACHOFFSET	QUANT	0	Ach Offset (V)
ACHFILTER	IQUANT	3	Ach Filter
IERANGELOWERLIMIT	IQUANT	2	I/E Range Lower Limit
IERANGEMODE	TOGGLE	F	I/E AutoRange
IERANGE	IQUANT	11	I/E Range
POSFEEDENABLE	TOGGLE	F	Positive Feedback IR Comp
POSFEEDRESISTANCE	QUANT	0	Positive Feedback Resistance (ohm)
ACHSELECT	IQUANT	0	Ach Select
CABLEID	IQUANT	13	Cable ID
DCCALDATE	LABEL	9/10/2021	DC Calibration Date
ACCALDATE	LABEL	9/10/2021	AC Calibration Date
THERMOSELECT	IQUANT	1	Thermo Select
FRAMEWORKVERSION	QUANT	6.33	Framework Version
INSTRUMENTVERSION	LABEL	3.50	Instrument Version
COMPLIANCEVOLTAGE	IQUANT	0	Compliance Voltage
ZCURVE	TABLE
	Pt	Time	Freq	Zreal	Zimag	Zsig	Zmod	Zphz	Idc	Vdc	IERange
	#	s	Hz	ohm	ohm	V	ohm	°	A	V	#
	0	24	300046.9	207.5878	-4325.253	1	4330.232	-87.25224	1.655086E-005	-0.0024836	9
	1	41	238359.4	308.7751	-5312.006	1	5320.973	-86.67326	-6.565603E-005	0.0004423	9
	2	58	189328.1	614.5688	-6715.579	1	6743.641	-84.7712	-2.092004E-005	0.0009779	9
	3	66	150421.9	649.2737	-7956.507	1	7982.955	-85.33484	5.263707E-005	-0.0001839	9
	4	75	119484.4	1037.396	-9939.85	1	9993.84	-84.04176	2.19904E-006	0.0014594	9
	5	88	94921.88	1792.127	-12643.49	1	12769.87	-81.93246	-2.734783E-005	0.0093694	8
	6	96	75421.88	2439.806	-15302.22	1	15495.5	-80.94093	-2.527421E-005	0.0049891	8
	7	103	59859.37	2910.33	-19617.4	1	19832.1	-81.56146	-2.718347E-005	0.0073564	8
	8	112	47578.12	6866.713	-25087.96	1	26010.72	-74.69273	-3.57973E-006	0.0248047	7
	9	119	37828.12	8755.068	-30718.85	1	31942.12	-74.09211	1.104508E-006	-0.0202865	7
	10	127	30046.88	10364.64	-37855.17	1	39248.44	-74.68784	-1.407311E-006	0.0207927	7
	11	134	23859.38	14023.2	-45596.71	1	47704.4	-72.9048	-6.938093E-006	0.0125787	7
	12	140	18984.38	18103.67	-56666.39	1	59488.01	-72.28246	-5.691094E-006	0.0039256	7
	13	145	15046.87	24673.76	-67684.97	1	72042	-69.97127	5.135873E-006	-0.0276486	7
	14	150	11953.13	26186.06	-85440.92	1	89363.64	-72.96067	-2.495433E-005	0.0106751	8
	15	158	9515.62	38718.45	-106894.9	1	113691	-70.08908	1.011564E-005	0.0029798	8
	16	166	7546.875	45752.18	-113432.7	1	122312.1	-68.03371	-2.713484E-005	0.0073325	8
	17	173	5928.309	61996.24	-95712.1	1	114036.6	-57.0674	-1.104177E-005	0.0094933	8
	18	181	4733.456	54396.96	-115960.8	1	128085.7	-64.86883	-1.9357E-005	0.0107758	8
	19	188	3796.875	128652.8	-186870.5	1	226874.7	-55.45416	7.88218E-007	0.0146745	7
	20	195	2987.132	189671.1	-189383.4	1	268032.1	-44.95651	-5.151628E-007	0.0015127	6
	21	199	2390.625	224771.2	-202447.1	1	302501.2	-42.00875	-3.027199E-007	-0.0072266	6
	22	205	1884.191	276722	-217118.1	1	351731.9	-38.118	2.994884E-008	0.0159543	6
	23	210	1516.544	286098.5	-238294.5	1	372339.4	-39.79128	5.232107E-006	-0.0277392	7
	24	216	1193.986	1587315	956262	1	1853107	31.06644	-2.18488E-005	0.0025543	8
	25	224	946.5144	293611	-234991.2	1	376069.6	-38.67199	7.739806E-006	-0.0262962	7
	26	232	751.7689	443153.4	144059.1	1	465980.7	18.00817	-2.207994E-005	0.0026839	8
	27	238	597.4265	412604.7	-92364.77	1	422816.7	-12.61808	-7.58766E-006	0.0197731	7
	28	243	477.4305	549963.7	-267721.4	1	611665.6	-25.95674	-6.37703E-008	-5.653072E-005	7
	29	249	376.6741	650099.1	-202185.6	1	680814.1	-17.27608	-9.067156E-010	-1.89793E-005	5
	30	252	298.2954	683291.1	-206304.2	1	713756.3	-16.8005	-8.423139E-010	-4.692137E-005	5
	31	254	237.7717	719324.8	-209302.8	1	749156.7	-16.22347	-8.803774E-010	-1.423653E-005	5
	32	256	189.0121	758086.3	-213054.2	1	787456	-15.6976	-8.888911E-010	-7.648591E-005	5
	33	259	150.2404	800953.3	-216608.1	1	829725.9	-15.13295	-8.687006E-010	-1.339126E-005	5
	34	262	119.1737	820419.5	-226409.8	1	851087.3	-15.42782	-8.804931E-010	-5.027537E-005	5
	35	264	95.0169	893718.6	-226703.4	1	922023.5	-14.23361	-8.076655E-010	-0.0000981	5
	36	267	75.60484	942302.9	-228360.2	1	969579	-13.62258	-9.238315E-010	-5.996873E-006	5
	37	269	54.50582	1005360	-236671.9	1	1032842	-13.24682	-8.936955E-010	-5.178891E-005	5
	38	272	45.95588	1052841	-231639.1	1	1078022	-12.40815	-8.595323E-010	-8.72223E-005	5
	39	274	37.20238	1102743	-231662.9	1	1126814	-11.86411	-8.042106E-010	-0.0001097	5
	40	276	30.04808	1155424	-230372.4	1	1178166	-11.27597	-8.69283E-010	-5.846545E-005	5
	41	279	23.91582	1213933	-226886.8	1	1234954	-10.58657	-8.56306E-010	-8.021434E-005	5
	42	282	18.60119	1271222	-217510.1	1	1289696	-9.70947	-8.410075E-010	-9.00111E-005	5
	43	284	15.02404	1329047	-209740.3	1	1345495	-8.968032	-8.027101E-010	-7.563615E-005	5
	44	287	12.01923	1385058	-198901.2	1	1399267	-8.172086	-8.146951E-010	-3.923068E-005	5
	45	289	9.450605	1440470	-184790.8	1	1452275	-7.310266	-8.668455E-010	-4.229698E-005	5
	46	292	7.512019	1496194	-171240.1	1	1505961	-6.52912	-7.877681E-010	-4.16718E-005	5
	47	295	5.978954	1559859	-158530.6	1	1567894	-5.803123	-8.667325E-010	-1.078381E-005	5
	48	299	4.734848	1625757	-145735.3	1	1632276	-5.122388	-7.287702E-010	-9.10311E-005	5
	49	303	3.75601	1699087	-133725.4	1	1704341	-4.500147	-8.318535E-010	-1.786158E-005	5
	50	308	3.004808	1791344	-125778.8	1	1795754	-4.01642	-6.917978E-010	-5.77571E-005	5
	51	315	2.372217	1876709	-115850.6	1	1880281	-3.532426	-7.905159E-010	-7.995095E-005	5
	52	319	1.878005	1951973	-106884.9	1	1954897	-3.134237	-8.057984E-010	-5.581623E-005	5
	53	324	1.512097	2037730	-100843.8	1	2040224	-2.833159	-8.000982E-010	-0.0001341	5
	54	329	1.201923	2137766	-98634.3	1	2140040	-2.641694	-7.84911E-010	-9.059298E-005	5
	55	335	0.956633	2252707	-97495.5	1	2254816	-2.478173	-1.050905E-009	-0.0006056	5
