EXPLAIN
TAG	EISPOT
TITLE	LABEL	Potentiostatic EIS	Test Identifier
DATE	LABEL	10/12/2021	Date
TIME	LABEL	11:42:33	Time
NOTES	NOTES	1	Notes...
	
PSTAT	PSTAT	REF3000-16137	Potentiostat
VDC	POTEN	0.00000E+000	T	DC Voltage (V)
FREQINIT	QUANT	3.00000E+005	Initial Freq. (Hz)
FREQFINAL	QUANT	1.00000E+000	Final Freq. (Hz)
PTSPERDEC	QUANT	1.00000E+001	Points/decade
VAC	QUANT	5.00000E+001	AC Voltage (mV rms)
AREA	QUANT	1.00000E+000	Sample Area (cm^2)
SPEED	SELECTOR	2	Optimize for:
ZGUESS	QUANT	1.00000E+003	Estimated Z (ohms)
EOC	QUANT	0	Open Circuit (V)
SEQUENCER	TOGGLE	TRUE	Run as Sequence
PSTATMODEL	IQUANT	5	Pstat Model
PSTATSECTION	LABEL	REF3000-16137	Pstat Section
PSTATSERIALNO	LABEL	16137	Pstat Serial Number
CTRLMODE	IQUANT	1	Control Mode
IESTAB	IQUANT	0	I/E Stability
CASPEED	IQUANT	1	Control Amp Speed
CONVENTION	IQUANT	1	Current Convention
ICHRANGE	IQUANT	2	Ich Range
ICHRANGEMODE	TOGGLE	F	Ich Auto Range
ICHOFFSETENABLE	TOGGLE	T	Ich Offset Enable
ICHOFFSET	QUANT	0	Ich Offset (V)
ICHFILTER	IQUANT	3	Ich Filter
VCHRANGE	IQUANT	2	Vch Range
VCHRANGEMODE	TOGGLE	F	Vch Auto Range
VCHOFFSETENABLE	TOGGLE	T	Vch Offset Enable
VCHOFFSET	QUANT	0	Vch Offset (V)
VCHFILTER	IQUANT	3	Vch Filter
ACHRANGE	IQUANT	2	Ach Range
ACHOFFSETENABLE	TOGGLE	F	Ach Offset Enable
ACHOFFSET	QUANT	0	Ach Offset (V)
ACHFILTER	IQUANT	3	Ach Filter
IERANGELOWERLIMIT	IQUANT	2	I/E Range Lower Limit
IERANGEMODE	TOGGLE	F	I/E AutoRange
IERANGE	IQUANT	11	I/E Range
POSFEEDENABLE	TOGGLE	F	Positive Feedback IR Comp
POSFEEDRESISTANCE	QUANT	0	Positive Feedback Resistance (ohm)
ACHSELECT	IQUANT	0	Ach Select
CABLEID	IQUANT	13	Cable ID
DCCALDATE	LABEL	9/10/2021	DC Calibration Date
ACCALDATE	LABEL	9/10/2021	AC Calibration Date
THERMOSELECT	IQUANT	1	Thermo Select
FRAMEWORKVERSION	QUANT	6.33	Framework Version
INSTRUMENTVERSION	LABEL	3.50	Instrument Version
COMPLIANCEVOLTAGE	IQUANT	0	Compliance Voltage
ZCURVE	TABLE
	Pt	Time	Freq	Zreal	Zimag	Zsig	Zmod	Zphz	Idc	Vdc	IERange
	#	s	Hz	ohm	ohm	V	ohm	°	A	V	#
	0	10	300046.9	1.327695	2.397793	1	2.740836	61.02603	2.201672E-005	-0.0008318	11
	1	13	238359.4	1.42549	1.795312	1	2.292415	51.55019	-0.0002698	-0.0012173	12
	2	17	189328.1	1.234352	1.509385	1	1.949838	50.72421	-2.279383E-005	-0.0003252	11
	3	20	150421.9	1.224445	1.183783	1	1.703117	44.03269	3.505793E-005	-0.0003393	11
	4	23	119484.4	1.205362	0.9198649	1	1.516261	37.34885	4.419016E-007	-3.534378E-005	11
	5	25	94921.88	1.197595	0.705496	1	1.389949	30.50207	-8.62235E-005	-4.518153E-005	11
	6	28	75421.88	1.195767	0.5265868	1	1.30658	23.76754	-2.198282E-005	5.887945E-005	11
	7	30	59859.37	1.193905	0.3752599	1	1.25149	17.44862	-9.416035E-005	0.0001071	11
	8	33	47578.12	1.196289	0.2456615	1	1.221252	11.60453	-3.344254E-005	0.0001576	11
	9	35	37828.12	1.199058	0.1294819	1	1.206029	6.163275	-2.402914E-005	0.0002704	11
	10	38	30046.88	1.20378	0.0213199	1	1.203969	1.01465	-2.476342E-005	0.0002773	11
	11	40	23859.38	1.211183	-0.083582	1	1.214064	-3.947642	-3.734876E-005	0.0003199	11
	12	43	18984.38	1.220022	-0.1898912	1	1.234712	-8.846856	-2.147476E-005	0.0003674	11
	13	45	15046.87	1.231807	-0.3052042	1	1.269054	-13.9159	-6.222145E-005	0.0003511	11
	14	47	11953.13	1.246932	-0.4319665	1	1.319635	-19.10728	-2.678677E-005	0.0003759	11
	15	50	9515.62	1.265937	-0.5757058	1	1.390695	-24.45445	-2.663852E-005	0.0004007	11
	16	52	7546.875	1.291134	-0.7458028	1	1.491057	-30.01218	-2.213864E-005	0.0003902	11
	17	54	5928.309	1.324996	-0.957892	1	1.634984	-35.86466	-5.809686E-005	0.0003747	11
	18	56	4733.456	1.365193	-1.195042	1	1.814353	-41.19775	-2.687277E-005	0.0003786	11
	19	59	3796.875	1.415285	-1.474664	1	2.043934	-46.17709	-3.580946E-005	0.0003736	11
	20	61	2987.132	1.485372	-1.841741	1	2.366082	-51.11368	-6.037E-005	0.0003653	11
	21	63	2390.625	1.566772	-2.256401	1	2.74702	-55.22514	-9.217807E-005	0.0003259	11
	22	66	1884.191	1.679226	-2.796607	1	3.262025	-59.01723	-8.696543E-005	0.0003478	11
	23	68	1516.544	1.808004	-3.391402	1	3.843239	-61.9373	-4.049976E-005	0.0003714	11
	24	70	1193.986	1.987932	-4.190453	1	4.638078	-64.62055	2.513882E-005	-0.0001456	10
	25	73	946.5144	2.205027	-5.131224	1	5.584945	-66.74548	-1.674396E-005	-0.0001353	10
	26	75	751.7689	2.47366	-6.265246	1	6.735897	-68.45478	1.697435E-005	-0.0001399	10
	27	77	597.4265	2.806178	-7.636249	1	8.135534	-69.82257	2.363398E-005	-0.0001454	10
	28	80	477.4305	3.201517	-9.254117	1	9.79226	-70.91663	-1.855058E-006	-0.0001215	10
	29	82	376.6741	3.70937	-11.32044	1	11.91267	-71.85757	-1.857548E-006	-0.0001234	10
	30	84	298.2954	4.315416	-13.79733	1	14.45646	-72.63179	-1.432226E-006	-0.0001265	10
	31	87	237.7717	5.026191	-16.71631	1	17.45559	-73.26524	-1.929735E-006	-0.0001269	10
	32	89	189.0121	5.887971	-20.29572	1	21.13254	-73.82207	-1.990689E-006	-0.0001243	10
	33	91	150.2404	6.91552	-24.63943	1	25.59153	-74.32223	-2.255975E-006	-0.0001327	10
	34	94	119.1737	8.145059	-29.97579	1	31.06268	-74.79855	-3.019847E-006	-0.0001269	10
	35	96	95.0169	9.55249	-36.31869	1	37.55393	-75.2639	-2.957843E-006	-0.0001363	10
	36	99	75.60484	11.19885	-44.06939	1	45.47005	-75.74187	-1.435208E-006	-0.0001433	9
	37	101	54.50582	14.05261	-58.34386	1	60.01235	-76.45777	-1.326506E-006	-0.0001451	9
	38	104	45.95588	15.84425	-67.66538	1	69.49564	-76.82129	-9.25102E-007	-0.0001395	9
	39	106	37.20238	18.38821	-81.31689	1	83.37003	-77.258	-1.187562E-006	-0.0001411	9
	40	109	30.04808	21.44038	-98.1737	1	100.4877	-77.68048	-1.429576E-006	-0.0001448	9
	41	111	23.91582	25.36094	-120.0032	1	122.6538	-78.06696	-1.343991E-006	-0.0001484	9
	42	114	18.60119	30.79903	-150.1999	1	153.3251	-78.41193	-1.031439E-006	-0.0001346	9
	43	116	15.02404	36.6768	-181.8756	1	185.5369	-78.59872	-9.410812E-007	-0.0001377	9
	44	118	12.01923	44.52641	-222.1892	1	226.6068	-78.66811	-1.115808E-006	-0.0001395	9
	45	121	9.450605	55.66585	-275.8829	1	281.4428	-78.5924	-1.172248E-006	-0.0001458	9
	46	123	7.512019	69.50168	-338.6143	1	345.6734	-78.40095	-9.32251E-007	-0.0001525	9
	47	126	5.978954	87.96842	-414.5938	1	423.8236	-78.02065	-8.570827E-007	-0.0001416	9
	48	129	4.734848	112.2635	-507.3365	1	519.6089	-77.52264	-6.184626E-007	-0.0001487	8
	49	132	3.75601	144.8009	-619.9666	1	636.652	-76.85353	-4.267852E-007	-0.0001221	8
	50	135	3.004808	185.3547	-750.0056	1	772.5703	-76.11821	-5.325826E-007	-0.0001229	8
	51	139	2.372217	242.0372	-914.9355	1	946.4084	-75.1824	-5.947049E-007	-0.000175	8
	52	143	1.878005	312.7988	-1113.363	1	1156.468	-74.30731	-5.021701E-007	-0.0001338	8
	53	148	1.512097	393.7461	-1332.151	1	1389.123	-73.53381	-5.740947E-007	-9.287319E-005	8
	54	154	1.201923	510.2811	-1608.24	1	1687.253	-72.3962	-5.078925E-007	-0.0001125	8
	55	160	0.956633	656.7473	-1929.56	1	2038.264	-71.20342	-6.319008E-007	-0.0006686	8
