EXPLAIN
TAG	EISPOT
TITLE	LABEL	Potentiostatic EIS	Test Identifier
DATE	LABEL	10/12/2021	Date
TIME	LABEL	12:44:46	Time
NOTES	NOTES	1	Notes...
	
PSTAT	PSTAT	REF3000-16137	Potentiostat
VDC	POTEN	0.00000E+000	T	DC Voltage (V)
FREQINIT	QUANT	3.00000E+005	Initial Freq. (Hz)
FREQFINAL	QUANT	1.00000E+000	Final Freq. (Hz)
PTSPERDEC	QUANT	1.00000E+001	Points/decade
VAC	QUANT	5.00000E+001	AC Voltage (mV rms)
AREA	QUANT	1.00000E+000	Sample Area (cm^2)
SPEED	SELECTOR	2	Optimize for:
ZGUESS	QUANT	1.00000E+003	Estimated Z (ohms)
EOC	QUANT	0	Open Circuit (V)
SEQUENCER	TOGGLE	TRUE	Run as Sequence
PSTATMODEL	IQUANT	5	Pstat Model
PSTATSECTION	LABEL	REF3000-16137	Pstat Section
PSTATSERIALNO	LABEL	16137	Pstat Serial Number
CTRLMODE	IQUANT	1	Control Mode
IESTAB	IQUANT	0	I/E Stability
CASPEED	IQUANT	1	Control Amp Speed
CONVENTION	IQUANT	1	Current Convention
ICHRANGE	IQUANT	2	Ich Range
ICHRANGEMODE	TOGGLE	F	Ich Auto Range
ICHOFFSETENABLE	TOGGLE	T	Ich Offset Enable
ICHOFFSET	QUANT	0	Ich Offset (V)
ICHFILTER	IQUANT	3	Ich Filter
VCHRANGE	IQUANT	2	Vch Range
VCHRANGEMODE	TOGGLE	F	Vch Auto Range
VCHOFFSETENABLE	TOGGLE	T	Vch Offset Enable
VCHOFFSET	QUANT	0	Vch Offset (V)
VCHFILTER	IQUANT	3	Vch Filter
ACHRANGE	IQUANT	2	Ach Range
ACHOFFSETENABLE	TOGGLE	F	Ach Offset Enable
ACHOFFSET	QUANT	0	Ach Offset (V)
ACHFILTER	IQUANT	3	Ach Filter
IERANGELOWERLIMIT	IQUANT	2	I/E Range Lower Limit
IERANGEMODE	TOGGLE	F	I/E AutoRange
IERANGE	IQUANT	11	I/E Range
POSFEEDENABLE	TOGGLE	F	Positive Feedback IR Comp
POSFEEDRESISTANCE	QUANT	0	Positive Feedback Resistance (ohm)
ACHSELECT	IQUANT	0	Ach Select
CABLEID	IQUANT	13	Cable ID
DCCALDATE	LABEL	9/10/2021	DC Calibration Date
ACCALDATE	LABEL	9/10/2021	AC Calibration Date
THERMOSELECT	IQUANT	1	Thermo Select
FRAMEWORKVERSION	QUANT	6.33	Framework Version
INSTRUMENTVERSION	LABEL	3.50	Instrument Version
COMPLIANCEVOLTAGE	IQUANT	0	Compliance Voltage
ZCURVE	TABLE
	Pt	Time	Freq	Zreal	Zimag	Zsig	Zmod	Zphz	Idc	Vdc	IERange
	#	s	Hz	ohm	ohm	V	ohm	°	A	V	#
	0	8	300046.9	16.92784	2.00773	1	17.04649	6.763981	-2.478359E-006	-0.0006634	10
	1	11	238359.4	17.00922	1.513482	1	17.07642	5.084792	5.324244E-005	-0.0003946	10
	2	14	189328.1	17.11509	1.108336	1	17.15094	3.705176	2.017881E-005	-0.0003782	10
	3	17	150421.9	17.21808	0.7572162	1	17.23473	2.518129	7.263665E-005	-0.0005497	10
	4	19	119484.4	17.34609	0.4866373	1	17.35291	1.606988	-0.0001056	-0.0001441	10
	5	22	94921.88	17.47254	0.2214672	1	17.47395	0.7261941	2.02217E-005	-0.0002176	10
	6	24	75421.88	17.61626	-0.0003242	1	17.61626	-0.0010544	-1.571481E-005	-0.0001514	10
	7	27	59859.37	17.76762	-0.2037534	1	17.76879	-0.6570209	2.649346E-005	-0.0001393	10
	8	30	47578.12	17.92965	-0.3889897	1	17.93386	-1.242856	-1.39263E-005	-0.0001504	10
	9	32	37828.12	18.0986	-0.5683066	1	18.10752	-1.79853	-1.53672E-005	-0.0001815	10
	10	35	30046.88	18.28275	-0.7466722	1	18.298	-2.338674	2.629463E-005	-0.0001732	10
	11	37	23859.38	18.47128	-0.9322893	1	18.49479	-2.889402	7.928932E-006	-0.0001751	10
	12	40	18984.38	18.66772	-1.130256	1	18.70191	-3.4648	-3.362333E-006	-0.0001539	10
	13	42	15046.87	18.87197	-1.346696	1	18.91996	-4.081685	-1.610114E-005	-0.0001236	10
	14	44	11953.13	19.09027	-1.595992	1	19.15687	-4.77895	1.421046E-005	-0.0001855	10
	15	47	9515.62	19.32471	-1.880234	1	19.41596	-5.557208	-2.846755E-006	-0.0001492	10
	16	49	7546.875	19.57285	-2.218228	1	19.69815	-6.465849	-1.769948E-005	-0.0001414	10
	17	51	5928.309	19.84282	-2.638641	1	20.01749	-7.57459	-2.553554E-005	-9.114821E-005	10
	18	54	4733.456	20.12528	-3.106539	1	20.36363	-8.774924	-3.517029E-006	-0.0001135	10
	19	56	3796.875	20.4265	-3.655833	1	20.75108	-10.14708	1.946079E-005	-0.0001007	10
	20	58	2987.132	20.78331	-4.379944	1	21.23982	-11.90056	-2.745338E-005	-0.0001005	10
	21	61	2390.625	21.15365	-5.191027	1	21.78127	-13.78772	-1.75878E-005	-0.0001344	10
	22	63	1884.191	21.58577	-6.236885	1	22.46874	-16.11586	2.593132E-005	-0.000147	10
	23	65	1516.544	22.05873	-7.397263	1	23.266	-18.53857	-1.177733E-005	-0.0001315	10
	24	68	1193.986	22.63216	-8.942225	1	24.33471	-21.55954	7.663363E-006	-0.0001218	10
	25	70	946.5144	23.27792	-10.74939	1	25.64003	-24.78678	-1.218656E-005	-0.0001256	10
	26	72	751.7689	24.00409	-12.95333	1	27.27609	-28.35263	-1.803593E-005	-0.0001321	10
	27	75	597.4265	24.83549	-15.61484	1	29.3364	-32.15885	2.414446E-005	-0.0001542	10
	28	77	477.4305	25.79867	-18.7571	1	31.89671	-36.01928	-1.383785E-006	-0.0001545	10
	29	79	376.6741	26.94301	-22.78618	1	35.28648	-40.22179	-1.695381E-006	-0.0001125	10
	30	82	298.2954	28.22119	-27.61034	1	39.48122	-44.37316	3.62704E-007	-0.0001303	9
	31	84	237.7717	29.71461	-33.36634	1	44.67965	-48.31314	3.549723E-007	-0.0001374	9
	32	87	189.0121	31.47781	-40.47373	1	51.27353	-52.12656	2.975797E-007	-0.0001307	9
	33	89	150.2404	33.55178	-49.16562	1	59.52294	-55.68944	3.316241E-007	-0.0001318	9
	34	91	119.1737	36.03561	-59.91307	1	69.91524	-58.97457	2.315624E-007	-0.0001324	9
	35	94	95.0169	38.93565	-72.78001	1	82.54039	-61.85423	3.04016E-007	-0.0001306	9
	36	96	75.60484	42.46011	-88.6598	1	98.3027	-64.40975	3.898626E-007	-0.0001407	9
	37	99	54.50582	48.81111	-117.7481	1	127.4643	-67.48412	3.122016E-007	-0.0001371	9
	38	101	45.95588	53.02192	-136.635	1	146.5621	-68.791	4.180517E-007	-0.0001328	9
	39	104	37.20238	59.17903	-164.2381	1	174.5747	-70.18466	2.361325E-007	-0.0001245	9
	40	106	30.04808	66.78426	-197.7926	1	208.7631	-71.34286	7.466055E-007	-0.0001725	9
	41	109	23.91582	76.86768	-241.239	1	253.1894	-72.32619	3.225911E-007	-0.0001342	9
	42	111	18.60119	90.63261	-299.8451	1	313.2433	-73.18178	2.735689E-007	-0.0001327	9
	43	113	15.02404	105.2414	-360.4826	1	375.5309	-73.72505	4.643208E-007	-0.0001221	9
	44	116	12.01923	123.3195	-434.698	1	451.8518	-74.16189	5.211783E-007	-0.000124	8
	45	118	9.450605	147.7383	-533.859	1	553.9243	-74.53129	3.992832E-007	-0.0001221	8
	46	121	7.512019	176.1067	-649.0629	1	672.5297	-74.81971	3.792649E-007	-0.0001305	8
	47	123	5.978954	210.1809	-788.0928	1	815.6386	-75.06703	4.078057E-007	-0.0001138	8
	48	126	4.734848	252.5045	-960.683	1	993.313	-75.27355	4.321545E-007	-0.0001383	8
	49	130	3.75601	302.5374	-1169.803	1	1208.291	-75.49973	4.423888E-007	-0.0001175	8
	50	133	3.004808	358.99	-1412.553	1	1457.456	-75.74058	4.777389E-007	-0.0001486	8
	51	137	2.372217	430.2274	-1723.734	1	1776.613	-75.98585	4.912628E-007	-0.0001077	8
	52	141	1.878005	513.8487	-2107.839	1	2169.568	-76.29967	4.36407E-007	-0.0001275	8
	53	146	1.512097	599.1077	-2532.058	1	2601.97	-76.68812	4.840368E-007	-0.0001473	8
	54	151	1.201923	710.7372	-3096.114	1	3176.644	-77.0713	4.486413E-007	-0.0001371	8
	55	157	0.956633	836.7646	-3775.031	1	3866.657	-77.50202	4.516698E-007	-0.0006663	8
