May 13, 2026   22:32:41
A.C. Impedance
File: e:\chi_data\r0.62-n0.72-2_t-12.0_f0.1_1000000_v0.txt
Data Source:  Experiment
Instrument Model:  CHI660E
Header: 
Note: 

Init E (V) = 0
High Frequency (Hz) = 1e+6
Low Frequency (Hz) = 0.1
Imp SF
Amplitude (V) = 0.005
Quiet Time (sec) = 2
Cycles (.1-1Hz) = 1

Freq/Hz, Z'/ohm, Z"/ohm, Z/ohm, Phase/deg

8.252e+5, 8.160e+0, 1.151e+1, 1.411e+1, 54.7
6.816e+5, 7.682e+0, 9.282e+0, 1.205e+1, 50.4
5.625e+5, 7.112e+0, 7.715e+0, 1.049e+1, 47.3
4.639e+5, 6.902e+0, 6.291e+0, 9.339e+0, 42.3
3.828e+5, 6.743e+0, 5.246e+0, 8.543e+0, 37.9
3.164e+5, 6.684e+0, 4.333e+0, 7.966e+0, 33.0
2.607e+5, 6.607e+0, 3.600e+0, 7.524e+0, 28.6
2.158e+5, 6.549e+0, 2.953e+0, 7.184e+0, 24.3
1.777e+5, 6.508e+0, 2.389e+0, 6.932e+0, 20.2
1.465e+5, 6.482e+0, 1.911e+0, 6.758e+0, 16.4
1.211e+5, 6.448e+0, 1.538e+0, 6.629e+0, 13.4
9.961e+4, 6.428e+0, 1.228e+0, 6.544e+0, 10.8
8.252e+4, 6.414e+0, 9.643e-1, 6.486e+0, 8.5
6.812e+4, 6.411e+0, 7.245e-1, 6.452e+0, 6.4
5.625e+4, 6.415e+0, 5.055e-1, 6.435e+0, 4.5
4.644e+4, 6.428e+0, 3.009e-1, 6.435e+0, 2.7
3.833e+4, 6.450e+0, 1.094e-1, 6.451e+0, 1.0
3.164e+4, 6.476e+0, -6.779e-2, 6.476e+0, -0.6
2.612e+4, 6.503e+0, -2.383e-1, 6.508e+0, -2.1
2.153e+4, 6.530e+0, -4.117e-1, 6.543e+0, -3.6
1.777e+4, 6.562e+0, -5.893e-1, 6.588e+0, -5.1
1.470e+4, 6.597e+0, -7.823e-1, 6.643e+0, -6.8
1.211e+4, 6.636e+0, -9.969e-1, 6.711e+0, -8.5
1.001e+4, 6.678e+0, -1.236e+0, 6.791e+0, -10.5
8.252e+3, 6.721e+0, -1.508e+0, 6.888e+0, -12.6
6.812e+3, 6.772e+0, -1.824e+0, 7.013e+0, -15.1
5.625e+3, 6.831e+0, -2.191e+0, 7.174e+0, -17.8
4.643e+3, 6.901e+0, -2.622e+0, 7.382e+0, -20.8
3.833e+3, 6.980e+0, -3.131e+0, 7.650e+0, -24.2
3.164e+3, 7.071e+0, -3.732e+0, 7.996e+0, -27.8
2.612e+3, 7.177e+0, -4.446e+0, 8.443e+0, -31.8
2.153e+3, 7.302e+0, -5.298e+0, 9.022e+0, -36.0
1.777e+3, 7.444e+0, -6.312e+0, 9.760e+0, -40.3
1.470e+3, 7.608e+0, -7.517e+0, 1.070e+1, -44.7
1.211e+3, 7.795e+0, -8.954e+0, 1.187e+1, -49.0
1.001e+3, 8.016e+0, -1.066e+1, 1.334e+1, -53.1
8.252e+2, 8.270e+0, -1.269e+1, 1.515e+1, -56.9
6.836e+2, 8.565e+0, -1.511e+1, 1.737e+1, -60.5
5.615e+2, 8.931e+0, -1.805e+1, 2.013e+1, -63.7
4.639e+2, 9.377e+0, -2.159e+1, 2.354e+1, -66.5
3.809e+2, 9.892e+0, -2.578e+1, 2.761e+1, -69.0
3.174e+2, 1.050e+1, -3.081e+1, 3.255e+1, -71.2
2.588e+2, 1.120e+1, -3.685e+1, 3.851e+1, -73.1
2.148e+2, 1.205e+1, -4.410e+1, 4.572e+1, -74.7
1.758e+2, 1.305e+1, -5.268e+1, 5.427e+1, -76.1
1.465e+2, 1.421e+1, -6.259e+1, 6.419e+1, -77.2
1.221e+2, 1.565e+1, -7.506e+1, 7.667e+1, -78.2
9.766e+1, 1.762e+1, -8.975e+1, 9.146e+1, -78.9
8.254e+1, 2.000e+1, -1.066e+2, 1.085e+2, -79.4
6.813e+1, 2.265e+1, -1.271e+2, 1.291e+2, -79.9
5.623e+1, 2.561e+1, -1.518e+2, 1.539e+2, -80.4
4.642e+1, 2.900e+1, -1.813e+2, 1.836e+2, -80.9
3.831e+1, 3.302e+1, -2.167e+2, 2.192e+2, -81.3
3.162e+1, 3.772e+1, -2.591e+2, 2.618e+2, -81.7
2.610e+1, 4.329e+1, -3.097e+2, 3.127e+2, -82.0
2.154e+1, 5.008e+1, -3.701e+2, 3.735e+2, -82.3
1.778e+1, 5.826e+1, -4.423e+2, 4.461e+2, -82.5
1.468e+1, 6.797e+1, -5.287e+2, 5.331e+2, -82.7
1.212e+1, 7.948e+1, -6.318e+2, 6.368e+2, -82.8
1.000e+1, 9.373e+1, -7.554e+2, 7.612e+2, -82.9
8.254e+0, 1.110e+2, -9.038e+2, 9.106e+2, -83.0
6.813e+0, 1.311e+2, -1.081e+3, 1.089e+3, -83.1
5.623e+0, 1.550e+2, -1.294e+3, 1.303e+3, -83.2
4.642e+0, 1.838e+2, -1.547e+3, 1.558e+3, -83.2
3.831e+0, 2.188e+2, -1.851e+3, 1.864e+3, -83.3
3.162e+0, 2.609e+2, -2.216e+3, 2.231e+3, -83.3
2.610e+0, 3.122e+2, -2.650e+3, 2.669e+3, -83.3
2.154e+0, 3.673e+2, -3.176e+3, 3.197e+3, -83.4
1.778e+0, 4.320e+2, -3.808e+3, 3.832e+3, -83.5
1.468e+0, 5.192e+2, -4.559e+3, 4.589e+3, -83.5
1.212e+0, 6.365e+2, -5.452e+3, 5.489e+3, -83.3
1.000e+0, 7.923e+2, -6.504e+3, 6.552e+3, -83.1
8.254e-1, 9.878e+2, -7.744e+3, 7.806e+3, -82.7
6.813e-1, 1.225e+3, -9.211e+3, 9.293e+3, -82.4
5.623e-1, 1.515e+3, -1.095e+4, 1.106e+4, -82.1
4.642e-1, 1.871e+3, -1.302e+4, 1.315e+4, -81.8
3.831e-1, 2.310e+3, -1.547e+4, 1.564e+4, -81.5
3.162e-1, 2.854e+3, -1.836e+4, 1.858e+4, -81.2
2.610e-1, 3.533e+3, -2.177e+4, 2.205e+4, -80.8
2.154e-1, 4.374e+3, -2.578e+4, 2.615e+4, -80.4
1.778e-1, 5.412e+3, -3.051e+4, 3.098e+4, -79.9
1.468e-1, 6.679e+3, -3.602e+4, 3.664e+4, -79.5
1.212e-1, 8.211e+3, -4.246e+4, 4.325e+4, -79.1
1.000e-1, 1.003e+4, -4.985e+4, 5.084e+4, -78.6
