May 13, 2026   14:58:19
A.C. Impedance
File: e:\chi_data\r0.62-n0.72-2_t-8.7_f0.1_1000000_v0.txt
Data Source:  Experiment
Instrument Model:  CHI660E
Header: 
Note: 

Init E (V) = 0
High Frequency (Hz) = 1e+6
Low Frequency (Hz) = 0.1
Imp SF
Amplitude (V) = 0.005
Quiet Time (sec) = 2
Cycles (.1-1Hz) = 1

Freq/Hz, Z'/ohm, Z"/ohm, Z/ohm, Phase/deg

8.252e+5, 7.798e+0, 1.156e+1, 1.394e+1, 56.0
6.816e+5, 7.219e+0, 9.311e+0, 1.178e+1, 52.2
5.625e+5, 6.691e+0, 7.727e+0, 1.022e+1, 49.1
4.639e+5, 6.488e+0, 6.301e+0, 9.045e+0, 44.2
3.828e+5, 6.362e+0, 5.258e+0, 8.253e+0, 39.6
3.164e+5, 6.290e+0, 4.349e+0, 7.647e+0, 34.7
2.607e+5, 6.208e+0, 3.618e+0, 7.185e+0, 30.2
2.158e+5, 6.145e+0, 2.974e+0, 6.827e+0, 25.8
1.777e+5, 6.103e+0, 2.407e+0, 6.561e+0, 21.5
1.465e+5, 6.076e+0, 1.923e+0, 6.374e+0, 17.6
1.211e+5, 6.041e+0, 1.542e+0, 6.235e+0, 14.3
9.961e+4, 6.019e+0, 1.223e+0, 6.142e+0, 11.5
8.252e+4, 6.011e+0, 9.577e-1, 6.087e+0, 9.1
6.812e+4, 6.013e+0, 7.186e-1, 6.056e+0, 6.8
5.625e+4, 6.017e+0, 4.981e-1, 6.038e+0, 4.7
4.644e+4, 6.028e+0, 2.937e-1, 6.035e+0, 2.8
3.833e+4, 6.045e+0, 1.091e-1, 6.046e+0, 1.0
3.164e+4, 6.068e+0, -6.456e-2, 6.068e+0, -0.6
2.612e+4, 6.093e+0, -2.369e-1, 6.098e+0, -2.2
2.153e+4, 6.121e+0, -4.108e-1, 6.135e+0, -3.8
1.777e+4, 6.150e+0, -5.929e-1, 6.179e+0, -5.5
1.470e+4, 6.183e+0, -7.873e-1, 6.233e+0, -7.3
1.211e+4, 6.223e+0, -9.954e-1, 6.302e+0, -9.1
1.001e+4, 6.268e+0, -1.233e+0, 6.388e+0, -11.1
8.252e+3, 6.314e+0, -1.509e+0, 6.492e+0, -13.4
6.812e+3, 6.367e+0, -1.827e+0, 6.624e+0, -16.0
5.625e+3, 6.429e+0, -2.196e+0, 6.794e+0, -18.9
4.643e+3, 6.502e+0, -2.628e+0, 7.013e+0, -22.0
3.833e+3, 6.585e+0, -3.137e+0, 7.294e+0, -25.5
3.164e+3, 6.679e+0, -3.736e+0, 7.653e+0, -29.2
2.612e+3, 6.786e+0, -4.446e+0, 8.113e+0, -33.2
2.153e+3, 6.912e+0, -5.294e+0, 8.707e+0, -37.4
1.777e+3, 7.060e+0, -6.302e+0, 9.464e+0, -41.8
1.470e+3, 7.231e+0, -7.504e+0, 1.042e+1, -46.1
1.211e+3, 7.427e+0, -8.935e+0, 1.162e+1, -50.3
1.001e+3, 7.657e+0, -1.063e+1, 1.310e+1, -54.2
8.252e+2, 7.923e+0, -1.264e+1, 1.492e+1, -57.9
6.836e+2, 8.235e+0, -1.504e+1, 1.715e+1, -61.3
5.615e+2, 8.600e+0, -1.793e+1, 1.988e+1, -64.4
4.639e+2, 9.055e+0, -2.142e+1, 2.326e+1, -67.1
3.809e+2, 9.603e+0, -2.557e+1, 2.731e+1, -69.4
3.174e+2, 1.024e+1, -3.055e+1, 3.222e+1, -71.5
2.588e+2, 1.100e+1, -3.651e+1, 3.813e+1, -73.2
2.148e+2, 1.189e+1, -4.367e+1, 4.526e+1, -74.8
1.758e+2, 1.294e+1, -5.211e+1, 5.370e+1, -76.1
1.465e+2, 1.414e+1, -6.185e+1, 6.345e+1, -77.1
1.221e+2, 1.563e+1, -7.408e+1, 7.571e+1, -78.1
9.766e+1, 1.764e+1, -8.849e+1, 9.023e+1, -78.7
8.254e+1, 2.008e+1, -1.050e+2, 1.070e+2, -79.2
6.813e+1, 2.284e+1, -1.251e+2, 1.272e+2, -79.7
5.623e+1, 2.588e+1, -1.493e+2, 1.515e+2, -80.2
4.642e+1, 2.932e+1, -1.782e+2, 1.806e+2, -80.7
3.831e+1, 3.340e+1, -2.129e+2, 2.155e+2, -81.1
3.162e+1, 3.824e+1, -2.543e+2, 2.572e+2, -81.4
2.610e+1, 4.406e+1, -3.038e+2, 3.070e+2, -81.7
2.154e+1, 5.098e+1, -3.629e+2, 3.665e+2, -82.0
1.778e+1, 5.919e+1, -4.334e+2, 4.374e+2, -82.2
1.468e+1, 6.914e+1, -5.178e+2, 5.224e+2, -82.4
1.212e+1, 8.105e+1, -6.185e+2, 6.237e+2, -82.5
1.000e+1, 9.558e+1, -7.388e+2, 7.450e+2, -82.6
8.254e+0, 1.130e+2, -8.829e+2, 8.901e+2, -82.7
6.813e+0, 1.334e+2, -1.055e+3, 1.064e+3, -82.8
5.623e+0, 1.573e+2, -1.262e+3, 1.271e+3, -82.9
4.642e+0, 1.854e+2, -1.509e+3, 1.520e+3, -83.0
3.831e+0, 2.198e+2, -1.804e+3, 1.818e+3, -83.1
3.162e+0, 2.615e+2, -2.158e+3, 2.174e+3, -83.1
2.610e+0, 3.123e+2, -2.580e+3, 2.599e+3, -83.1
2.154e+0, 3.675e+2, -3.091e+3, 3.112e+3, -83.2
1.778e+0, 4.310e+2, -3.705e+3, 3.730e+3, -83.4
1.468e+0, 5.159e+2, -4.435e+3, 4.465e+3, -83.4
1.212e+0, 6.301e+2, -5.304e+3, 5.341e+3, -83.2
1.000e+0, 7.819e+2, -6.327e+3, 6.375e+3, -83.0
8.254e-1, 9.747e+2, -7.529e+3, 7.592e+3, -82.6
6.813e-1, 1.208e+3, -8.950e+3, 9.031e+3, -82.3
5.623e-1, 1.488e+3, -1.064e+4, 1.074e+4, -82.0
4.642e-1, 1.834e+3, -1.265e+4, 1.278e+4, -81.8
3.831e-1, 2.265e+3, -1.503e+4, 1.520e+4, -81.4
3.162e-1, 2.805e+3, -1.784e+4, 1.806e+4, -81.1
2.610e-1, 3.481e+3, -2.114e+4, 2.143e+4, -80.6
2.154e-1, 4.321e+3, -2.504e+4, 2.541e+4, -80.2
1.778e-1, 5.356e+3, -2.962e+4, 3.010e+4, -79.8
1.468e-1, 6.623e+3, -3.500e+4, 3.562e+4, -79.3
1.212e-1, 8.176e+3, -4.127e+4, 4.207e+4, -78.8
1.000e-1, 1.004e+4, -4.846e+4, 4.949e+4, -78.3
