EXPLAIN
TAG	EISPOT
TITLE	LABEL	Potentiostatic EIS	Test Identifier
DATE	LABEL	2/24/2021	Date
TIME	LABEL	16:33:53	Time
NOTES	NOTES	1	Notes...
	
PSTAT	PSTAT	REF3000-16137	Potentiostat
VDC	POTEN	0.00000E+000	T	DC Voltage (V)
FREQINIT	QUANT	3.00000E+005	Initial Freq. (Hz)
FREQFINAL	QUANT	1.00000E+000	Final Freq. (Hz)
PTSPERDEC	QUANT	1.00000E+001	Points/decade
VAC	QUANT	5.00000E+001	AC Voltage (mV rms)
AREA	QUANT	1.00000E+000	Sample Area (cm^2)
SPEED	SELECTOR	2	Optimize for:
ZGUESS	QUANT	1.00000E+003	Estimated Z (ohms)
EOC	QUANT	0	Open Circuit (V)
SEQUENCER	TOGGLE	TRUE	Run as Sequence
PSTATMODEL	IQUANT	5	Pstat Model
PSTATSECTION	LABEL	REF3000-16137	Pstat Section
PSTATSERIALNO	LABEL	16137	Pstat Serial Number
CTRLMODE	IQUANT	1	Control Mode
IESTAB	IQUANT	0	I/E Stability
CASPEED	IQUANT	1	Control Amp Speed
CONVENTION	IQUANT	1	Current Convention
ICHRANGE	IQUANT	2	Ich Range
ICHRANGEMODE	TOGGLE	F	Ich Auto Range
ICHOFFSETENABLE	TOGGLE	T	Ich Offset Enable
ICHOFFSET	QUANT	0	Ich Offset (V)
ICHFILTER	IQUANT	3	Ich Filter
VCHRANGE	IQUANT	2	Vch Range
VCHRANGEMODE	TOGGLE	F	Vch Auto Range
VCHOFFSETENABLE	TOGGLE	T	Vch Offset Enable
VCHOFFSET	QUANT	0	Vch Offset (V)
VCHFILTER	IQUANT	3	Vch Filter
ACHRANGE	IQUANT	2	Ach Range
ACHOFFSETENABLE	TOGGLE	F	Ach Offset Enable
ACHOFFSET	QUANT	0	Ach Offset (V)
ACHFILTER	IQUANT	3	Ach Filter
IERANGELOWERLIMIT	IQUANT	2	I/E Range Lower Limit
IERANGEMODE	TOGGLE	F	I/E AutoRange
IERANGE	IQUANT	11	I/E Range
POSFEEDENABLE	TOGGLE	F	Positive Feedback IR Comp
POSFEEDRESISTANCE	QUANT	0	Positive Feedback Resistance (ohm)
ACHSELECT	IQUANT	0	Ach Select
CABLEID	IQUANT	13	Cable ID
DCCALDATE	LABEL	7/31/2020	DC Calibration Date
ACCALDATE	LABEL	7/31/2020	AC Calibration Date
THERMOSELECT	IQUANT	1	Thermo Select
FRAMEWORKVERSION	QUANT	6.33	Framework Version
INSTRUMENTVERSION	LABEL	3.50	Instrument Version
COMPLIANCEVOLTAGE	IQUANT	0	Compliance Voltage
ZCURVE	TABLE
	Pt	Time	Freq	Zreal	Zimag	Zsig	Zmod	Zphz	Idc	Vdc	IERange
	#	s	Hz	ohm	ohm	V	ohm	°	A	V	#
	0	16	300046.9	686.1584	-3793.384	1	3854.941	-79.74703	-6.566211E-005	0.0003541	9
	1	37	238359.4	1026.619	-4606.743	1	4719.749	-77.43684	1.896959E-005	-0.0020753	9
	2	63	189328.1	1532.645	-5749.853	1	5950.614	-75.07462	1.727806E-005	-0.0020244	9
	3	77	150421.9	2068.615	-7023.63	1	7321.922	-73.58913	1.872494E-005	-0.0007764	9
	4	84	119484.4	2581.455	-8382.033	1	8770.541	-72.88248	2.07325E-005	-0.0002401	9
	5	93	94921.88	3840.894	-9901.5	1	10620.37	-68.79821	8.949301E-006	0.0039535	8
	6	100	75421.88	5253.215	-12035.84	1	13132.32	-66.42046	-2.592615E-005	0.0076597	8
	7	109	59859.37	7075.564	-14213.53	1	15877.28	-63.53566	1.762911E-005	0.0001407	8
	8	118	47578.12	9472.619	-16918.96	1	19390.25	-60.75632	2.350772E-005	-0.0029881	8
	9	126	37828.12	14665.69	-18506.05	1	23612.64	-51.60385	-6.957198E-006	0.0181424	7
	10	134	30046.88	18356.18	-20418	1	27456.22	-48.04384	-1.618484E-006	0.0206901	7
	11	141	23859.38	22606.88	-22106.94	1	31619.42	-44.35941	-5.055489E-006	0.0037684	7
	12	146	18984.38	27384.65	-23400.3	1	36020.73	-40.51404	-3.119314E-006	-0.0048532	7
	13	152	15046.87	32020.51	-24701.89	1	40441.27	-37.64802	-9.911485E-006	-0.0018634	8
	14	158	11953.13	38262.68	-23836.58	1	45080.1	-31.92175	-1.636346E-006	0.0206681	7
	15	163	9515.62	43009.77	-22781.61	1	48670.76	-27.90948	2.677894E-006	0.0077927	7
	16	169	7546.875	48054.17	-22056.56	1	52874.33	-24.65483	5.088995E-007	0.0151899	7
	17	174	5928.309	51877.71	-20402.62	1	55745.52	-21.46887	6.539038E-006	-0.0258191	7
	18	179	4733.456	55470.99	-17936.94	1	58298.92	-17.91899	-1.594567E-006	0.0207344	7
	19	185	3796.875	60905.83	-15817.7	1	62926.3	-14.55851	-1.113907E-006	-0.0125017	7
	20	190	2987.132	62362.22	-12901.4	1	63682.75	-11.68838	-7.049909E-006	0.0184421	7
	21	195	2390.625	67294.88	-12230.25	1	68397.22	-10.30057	-1.616297E-006	0.0207355	7
	22	201	1884.191	68914.15	-13618.33	1	70246.84	-11.17837	-1.106716E-006	-0.0122636	7
	23	206	1516.544	74932.55	-8732.162	1	75439.63	-6.646905	6.38057E-006	-0.009987	7
	24	212	1193.986	77982.98	-15060.9	1	79424.02	-10.93099	-1.350821E-006	0.0074964	8
	25	219	946.5144	82527.64	-12487.27	1	83467.02	-8.604166	-2.37066E-005	0.0053411	8
	26	225	751.7689	80035.1	7186.607	1	80357.11	5.131011	1.598367E-005	-0.0090988	8
	27	230	597.4265	83958.79	-6582.963	1	84216.47	-4.483222	-3.323494E-006	-0.0044929	7
	28	235	477.4305	86558.03	-4594.525	1	86679.88	-3.038425	-6.70047E-008	0.0006687	7
	29	238	376.6741	87938.04	-2821.675	1	87983.3	-1.837824	-9.438873E-009	0.0007187	6
	30	240	298.2954	89094.43	-2487.37	1	89129.15	-1.599188	-9.793212E-009	0.0007312	6
	31	243	237.7717	90365.37	-2000.042	1	90387.5	-1.267911	-8.752743E-009	0.0007089	6
	32	245	189.0121	91625.63	-1680.339	1	91641.04	-1.05064	-9.373095E-009	0.0006591	6
	33	248	150.2404	92959.42	-1483.96	1	92971.27	-0.9145651	-8.271004E-009	0.0006334	6
	34	251	119.1737	94317.52	-1416.206	1	94328.15	-0.8602487	-8.792524E-009	0.0006343	6
	35	253	95.0169	95601.6	-1096.179	1	95607.8	-0.6569317	-9.676723E-009	0.0007465	6
	36	255	75.60484	96839.9	-1052.73	1	96845.6	-0.6228278	-9.586449E-009	0.0006816	6
	37	258	54.50582	98588	-899.0612	1	98592.1	-0.5224872	-9.983634E-009	0.0007267	6
	38	260	45.95588	99559.6	-852.6476	1	99563.2	-0.4906802	-7.785775E-009	0.0006423	6
	39	263	37.20238	100889.5	-902.9523	1	100893.5	-0.5127786	-9.584126E-009	0.0006443	6
	40	265	30.04808	102316.1	-851.4706	1	102319.7	-0.4768021	-7.949288E-009	0.0006799	6
	41	268	23.91582	103668.9	-1008.286	1	103673.8	-0.5572425	-7.833954E-009	0.000728	6
	42	270	18.60119	105090.9	-839.1203	1	105094.2	-0.4574804	-1.03347E-008	0.0007191	6
	43	273	15.02404	106553.9	-1087.856	1	106559.4	-0.5849381	-9.914208E-009	0.0006908	6
	44	275	12.01923	108014.9	-1238.417	1	108022	-0.6568816	-8.531356E-009	0.0006824	6
	45	278	9.450605	109548	-1583.64	1	109559.4	-0.8282179	-3.073179E-009	0.0007202	6
	46	280	7.512019	111325	-1743.245	1	111338.7	-0.8971243	-3.282664E-009	0.0007023	6
	47	283	5.978954	113649	-2086.134	1	113668.2	-1.0516	-4.94667E-009	0.000702	6
	48	287	4.734848	116043.7	-2572.733	1	116072.2	-1.270061	-7.724593E-009	0.0007008	6
	49	291	3.75601	119047.5	-3099.838	1	119087.9	-1.491568	-5.17779E-009	0.0007215	6
	50	296	3.004808	123105.1	-3788.499	1	123163.4	-1.762694	-1.156529E-008	0.0006712	6
	51	303	2.372217	126961.4	-4516.176	1	127041.6	-2.037224	-2.992225E-009	0.0007289	6
	52	307	1.878005	130253.9	-5613.423	1	130374.8	-2.467693	-6.466007E-009	0.0006552	6
	53	312	1.512097	134114	-6991.154	1	134296.1	-2.984039	-1.375813E-008	0.0007728	6
	54	317	1.201923	138875.9	-8431.986	1	139131.6	-3.474505	-4.163379E-009	0.0006547	6
	55	323	0.956633	144626.8	-10443.38	1	145003.4	-4.130111	-2.333469E-008	3.319511E-005	6
