EXPLAIN
TAG	EISPOT
TITLE	LABEL	Potentiostatic EIS	Test Identifier
DATE	LABEL	2/24/2021	Date
TIME	LABEL	16:24:15	Time
NOTES	NOTES	1	Notes...
	
PSTAT	PSTAT	REF3000-16137	Potentiostat
VDC	POTEN	0.00000E+000	T	DC Voltage (V)
FREQINIT	QUANT	3.00000E+005	Initial Freq. (Hz)
FREQFINAL	QUANT	1.00000E+000	Final Freq. (Hz)
PTSPERDEC	QUANT	1.00000E+001	Points/decade
VAC	QUANT	5.00000E+001	AC Voltage (mV rms)
AREA	QUANT	1.00000E+000	Sample Area (cm^2)
SPEED	SELECTOR	2	Optimize for:
ZGUESS	QUANT	1.00000E+003	Estimated Z (ohms)
EOC	QUANT	0	Open Circuit (V)
SEQUENCER	TOGGLE	TRUE	Run as Sequence
PSTATMODEL	IQUANT	5	Pstat Model
PSTATSECTION	LABEL	REF3000-16137	Pstat Section
PSTATSERIALNO	LABEL	16137	Pstat Serial Number
CTRLMODE	IQUANT	1	Control Mode
IESTAB	IQUANT	0	I/E Stability
CASPEED	IQUANT	1	Control Amp Speed
CONVENTION	IQUANT	1	Current Convention
ICHRANGE	IQUANT	2	Ich Range
ICHRANGEMODE	TOGGLE	F	Ich Auto Range
ICHOFFSETENABLE	TOGGLE	T	Ich Offset Enable
ICHOFFSET	QUANT	0	Ich Offset (V)
ICHFILTER	IQUANT	3	Ich Filter
VCHRANGE	IQUANT	2	Vch Range
VCHRANGEMODE	TOGGLE	F	Vch Auto Range
VCHOFFSETENABLE	TOGGLE	T	Vch Offset Enable
VCHOFFSET	QUANT	0	Vch Offset (V)
VCHFILTER	IQUANT	3	Vch Filter
ACHRANGE	IQUANT	2	Ach Range
ACHOFFSETENABLE	TOGGLE	F	Ach Offset Enable
ACHOFFSET	QUANT	0	Ach Offset (V)
ACHFILTER	IQUANT	3	Ach Filter
IERANGELOWERLIMIT	IQUANT	2	I/E Range Lower Limit
IERANGEMODE	TOGGLE	F	I/E AutoRange
IERANGE	IQUANT	11	I/E Range
POSFEEDENABLE	TOGGLE	F	Positive Feedback IR Comp
POSFEEDRESISTANCE	QUANT	0	Positive Feedback Resistance (ohm)
ACHSELECT	IQUANT	0	Ach Select
CABLEID	IQUANT	13	Cable ID
DCCALDATE	LABEL	7/31/2020	DC Calibration Date
ACCALDATE	LABEL	7/31/2020	AC Calibration Date
THERMOSELECT	IQUANT	1	Thermo Select
FRAMEWORKVERSION	QUANT	6.33	Framework Version
INSTRUMENTVERSION	LABEL	3.50	Instrument Version
COMPLIANCEVOLTAGE	IQUANT	0	Compliance Voltage
ZCURVE	TABLE
	Pt	Time	Freq	Zreal	Zimag	Zsig	Zmod	Zphz	Idc	Vdc	IERange
	#	s	Hz	ohm	ohm	V	ohm	°	A	V	#
	0	21	300046.9	1630.956	-1231.418	1	2043.627	-37.05384	-2.137392E-005	0.0010208	9
	1	34	238359.4	1903.102	-1236.505	1	2269.525	-33.01303	2.6846E-005	-0.0019819	9
	2	47	189328.1	2196.596	-1156.916	1	2482.638	-27.77514	7.76021E-005	-0.0016501	9
	3	53	150421.9	2441.476	-1146.345	1	2697.204	-25.15144	5.383562E-007	0.0015853	9
	4	61	119484.4	2678.016	-962.49	1	2845.726	-19.76865	-1.189294E-005	0.0144265	8
	5	68	94921.88	2870.662	-863.6735	1	2997.771	-16.74455	-2.282757E-007	0.0065806	8
	6	74	75421.88	3045.673	-846.3304	1	3161.076	-15.52952	-1.93852E-005	0.0010681	9
	7	82	59859.37	3220.776	-687.9633	1	3293.431	-12.05728	-2.104924E-007	0.0065642	8
	8	89	47578.12	3357.296	-655.8002	1	3420.747	-11.05275	-1.127012E-005	0.0010495	9
	9	97	37828.12	3511.064	-524.4072	1	3550.011	-8.494814	-2.151661E-005	0.0100571	8
	10	103	30046.88	3640.142	-459.9374	1	3669.084	-7.201248	-1.949632E-005	0.0032261	8
	11	110	23859.38	3750.562	-399.1812	1	3771.745	-6.075255	9.132441E-006	0.00337	8
	12	116	18984.38	3853.723	-334.1609	1	3868.184	-4.955789	-2.392567E-005	0.0091085	8
	13	121	15046.87	3953.767	-282.8799	1	3963.873	-4.092364	8.950945E-006	0.0034068	8
	14	126	11953.13	4054.771	-238.155	1	4061.76	-3.361378	-1.960595E-005	0.0032081	8
	15	132	9515.62	4136.702	-209.7756	1	4142.017	-2.90303	2.238067E-005	-0.0029685	8
	16	137	7546.875	4217.37	-161.6171	1	4220.466	-2.194602	-9.774249E-006	0.0092687	8
	17	142	5928.309	4317.441	-105.9797	1	4318.742	-1.40615	-1.576808E-005	0.0012057	8
	18	148	4733.456	4421.173	-120.0689	1	4422.803	-1.55564	2.538867E-005	-0.0070096	8
	19	153	3796.875	4498.302	-100.3418	1	4499.421	-1.277862	-4.337061E-007	0.0068119	8
	20	158	2987.132	4595.942	-65.61438	1	4596.41	-0.8179328	5.821818E-006	-0.0213229	7
	21	162	2390.625	4669.053	-72.41754	1	4669.614	-0.8885928	1.422319E-005	-0.0083095	8
	22	167	1884.191	4783.174	-25.75499	1	4783.243	-0.308506	1.429184E-005	-0.0083193	8
	23	173	1516.544	4900.658	-57.49309	1	4900.996	-0.6721465	-2.199752E-005	0.0102997	8
	24	178	1193.986	4936.618	-36.26383	1	4936.751	-0.4208807	-9.974746E-006	-0.0014152	8
	25	184	946.5144	5007.337	-10.40638	1	5007.348	-0.1190735	-1.731274E-005	0.0104981	8
	26	187	751.7689	5055.746	-4.40204	1	5055.748	-0.0498874	6.655464E-006	-0.0068316	8
	27	191	597.4265	5119.249	3.082396	1	5119.25	0.0344989	1.427079E-005	-0.0083275	8
	28	195	477.4305	5267.334	-47.21034	1	5267.546	-0.5135198	-2.096137E-007	0.0006828	8
	29	197	376.6741	5330.048	-43.14193	1	5330.223	-0.4637475	-6.469723E-008	0.0005942	7
	30	200	298.2954	5380.268	-49.22909	1	5380.493	-0.5242379	-7.036418E-008	0.0006518	7
	31	202	237.7717	5432.74	-56.33403	1	5433.032	-0.5940992	-5.175468E-008	0.0006032	7
	32	204	189.0121	5485.271	-66.59573	1	5485.676	-0.6955839	-7.958624E-008	0.0006795	7
	33	207	150.2404	5540.033	-78.46296	1	5540.588	-0.8114204	-6.655873E-008	0.0005932	7
	34	209	119.1737	5595	-96.5801	1	5595.834	-0.988934	-8.623006E-008	0.0005985	7
	35	212	95.0169	5650.462	-115.474	1	5651.642	-1.170745	-6.706163E-008	0.0006627	7
	36	214	75.60484	5710.167	-140.5027	1	5711.896	-1.409519	-5.216273E-008	0.0006638	7
	37	217	54.50582	5775.326	-186.905	1	5778.35	-1.853598	-4.528319E-008	0.0006064	7
	38	219	45.95588	5834.875	-217.2873	1	5838.919	-2.132676	-1.09693E-007	0.0005966	7
	39	222	37.20238	5894.359	-265.9505	1	5900.356	-2.583405	8.253966E-009	0.000587	7
	40	224	30.04808	5955.785	-318.7295	1	5964.307	-3.063316	-2.26601E-009	0.00066	7
	41	226	23.91582	6016.101	-398.0597	1	6029.256	-3.785499	5.868905E-008	0.0005889	7
	42	229	18.60119	6097.52	-510.8474	1	6118.882	-4.78903	1.508589E-007	0.0006054	7
	43	231	15.02404	6168.325	-607.4901	1	6198.167	-5.62466	-2.002245E-007	0.0006808	7
	44	233	12.01923	6219.702	-742.5836	1	6263.874	-6.808439	-1.443161E-007	0.0006062	7
	45	236	9.450605	6307.5	-935.9089	1	6376.557	-8.439985	4.717681E-009	0.0006406	7
	46	238	7.512019	6393.173	-1167.201	1	6498.848	-10.34654	6.947502E-008	0.000629	7
	47	241	5.978954	6502.137	-1435.136	1	6658.633	-12.44663	2.118168E-008	0.0006604	7
	48	244	4.734848	6620.303	-1776.242	1	6854.447	-15.01887	1.203907E-008	0.0006138	7
	49	247	3.75601	6772.8	-2191.327	1	7118.478	-17.92889	-4.490571E-008	0.0005909	7
	50	251	3.004808	6926.992	-2705.108	1	7436.453	-21.33149	-8.738887E-008	0.0006908	7
	51	255	2.372217	7131.837	-3349.536	1	7879.245	-25.15755	-3.364395E-008	0.0007014	7
	52	259	1.878005	7355.976	-4169.72	1	8455.587	-29.54665	-4.870186E-008	0.00061	7
	53	263	1.512097	7623.004	-5090.986	1	9166.696	-33.73679	-4.921041E-008	0.000731	7
	54	269	1.201923	7961.02	-6318.911	1	10163.98	-38.44013	-4.980268E-008	0.000611	7
	55	275	0.956633	8363.429	-7811.403	1	11443.99	-43.04533	-6.63707E-008	-4.70991E-006	7
