EXPLAIN
TAG	EISPOT
TITLE	LABEL	Potentiostatic EIS	Test Identifier
DATE	LABEL	2/24/2021	Date
TIME	LABEL	16:39:26	Time
NOTES	NOTES	1	Notes...
	
PSTAT	PSTAT	REF3000-16137	Potentiostat
VDC	POTEN	0.00000E+000	T	DC Voltage (V)
FREQINIT	QUANT	3.00000E+005	Initial Freq. (Hz)
FREQFINAL	QUANT	1.00000E+000	Final Freq. (Hz)
PTSPERDEC	QUANT	1.00000E+001	Points/decade
VAC	QUANT	5.00000E+001	AC Voltage (mV rms)
AREA	QUANT	1.00000E+000	Sample Area (cm^2)
SPEED	SELECTOR	2	Optimize for:
ZGUESS	QUANT	1.00000E+003	Estimated Z (ohms)
EOC	QUANT	0	Open Circuit (V)
SEQUENCER	TOGGLE	TRUE	Run as Sequence
PSTATMODEL	IQUANT	5	Pstat Model
PSTATSECTION	LABEL	REF3000-16137	Pstat Section
PSTATSERIALNO	LABEL	16137	Pstat Serial Number
CTRLMODE	IQUANT	1	Control Mode
IESTAB	IQUANT	0	I/E Stability
CASPEED	IQUANT	1	Control Amp Speed
CONVENTION	IQUANT	1	Current Convention
ICHRANGE	IQUANT	2	Ich Range
ICHRANGEMODE	TOGGLE	F	Ich Auto Range
ICHOFFSETENABLE	TOGGLE	T	Ich Offset Enable
ICHOFFSET	QUANT	0	Ich Offset (V)
ICHFILTER	IQUANT	3	Ich Filter
VCHRANGE	IQUANT	2	Vch Range
VCHRANGEMODE	TOGGLE	F	Vch Auto Range
VCHOFFSETENABLE	TOGGLE	T	Vch Offset Enable
VCHOFFSET	QUANT	0	Vch Offset (V)
VCHFILTER	IQUANT	3	Vch Filter
ACHRANGE	IQUANT	2	Ach Range
ACHOFFSETENABLE	TOGGLE	F	Ach Offset Enable
ACHOFFSET	QUANT	0	Ach Offset (V)
ACHFILTER	IQUANT	3	Ach Filter
IERANGELOWERLIMIT	IQUANT	2	I/E Range Lower Limit
IERANGEMODE	TOGGLE	F	I/E AutoRange
IERANGE	IQUANT	11	I/E Range
POSFEEDENABLE	TOGGLE	F	Positive Feedback IR Comp
POSFEEDRESISTANCE	QUANT	0	Positive Feedback Resistance (ohm)
ACHSELECT	IQUANT	0	Ach Select
CABLEID	IQUANT	13	Cable ID
DCCALDATE	LABEL	7/31/2020	DC Calibration Date
ACCALDATE	LABEL	7/31/2020	AC Calibration Date
THERMOSELECT	IQUANT	1	Thermo Select
FRAMEWORKVERSION	QUANT	6.33	Framework Version
INSTRUMENTVERSION	LABEL	3.50	Instrument Version
COMPLIANCEVOLTAGE	IQUANT	0	Compliance Voltage
ZCURVE	TABLE
	Pt	Time	Freq	Zreal	Zimag	Zsig	Zmod	Zphz	Idc	Vdc	IERange
	#	s	Hz	ohm	ohm	V	ohm	°	A	V	#
	0	18	300046.9	222.1429	-4096.307	1	4102.326	-86.89589	-6.110312E-005	0.0003644	9
	1	32	238359.4	377.1337	-5112.857	1	5126.748	-85.78139	8.422534E-005	-0.0034253	9
	2	48	189328.1	292.436	-6165.595	1	6172.526	-87.28448	7.963979E-005	-0.001615	9
	3	60	150421.9	1541.996	-7329.525	1	7489.973	-78.11929	-1.396194E-005	0.0018536	9
	4	70	119484.4	1351.326	-9682.36	1	9776.2	-82.05479	5.099363E-006	0.0149172	8
	5	77	94921.88	1260.448	-11990.84	1	12056.91	-83.99924	-1.162382E-005	0.0010015	9
	6	86	75421.88	2074.735	-14927.44	1	15070.93	-82.08727	-1.603155E-006	0.0076299	8
	7	94	59859.37	3013.706	-18778.95	1	19019.24	-80.88273	-1.445111E-006	-0.004909	8
	8	103	47578.12	6685.251	-23982.65	1	24896.99	-74.424	-7.035768E-006	0.0231218	7
	9	109	37828.12	8719.846	-29182.41	1	30457.32	-73.3636	4.890194E-006	-0.0010039	7
	10	117	30046.88	10335.63	-35675.4	1	37142.42	-73.84302	2.864759E-006	0.0075917	7
	11	124	23859.38	13285.52	-43978.28	1	45941.2	-73.19082	5.029821E-006	-0.0257094	7
	12	130	18984.38	17285.77	-53029.19	1	55775.38	-71.94573	6.488144E-006	-0.0102078	7
	13	135	15046.87	21620.16	-65742.42	1	69206.2	-71.79594	-6.97446E-006	0.0232538	7
	14	140	11953.13	32012.79	-80276.71	1	86424.35	-68.25885	6.980252E-007	0.0152696	7
	15	146	9515.62	29681.66	-97117.9	1	101552.4	-73.00553	8.785778E-006	0.003908	8
	16	153	7546.875	53291.61	-114229.3	1	126048.9	-64.98944	-3.467819E-006	-0.0043587	7
	17	159	5928.309	73648.02	-146875	1	164305.5	-63.36928	6.626091E-006	-0.0262948	7
	18	165	4733.456	117400.2	-166939.9	1	204087.5	-54.88326	4.888275E-006	-0.0011324	7
	19	170	3796.875	131207.5	-171643.8	1	216048.6	-52.60508	-6.334801E-006	0.0253706	7
	20	177	2987.132	160167.6	-171649.1	1	234770.3	-46.98175	5.965243E-007	0.0153904	7
	21	182	2390.625	222330.3	-183602	1	288340.9	-39.55014	7.033132E-007	-0.0264251	6
	22	187	1884.191	263606.7	-185114.1	1	322111.4	-35.07792	-6.608961E-007	0.0256442	6
	23	192	1516.544	302057	-190683.1	1	357209.3	-32.26347	5.73297E-007	-0.0268642	6
	24	197	1193.986	309395.3	-183050	1	359489.6	-30.61017	5.163999E-006	-0.0259972	7
	25	204	946.5144	398918.1	-171289.8	1	434138.1	-23.238	6.539035E-006	-0.0103714	7
	26	209	751.7689	333310.4	-99102.6	1	347731.4	-16.55871	6.55013E-006	-0.0104492	7
	27	214	597.4265	647334.2	-134335.4	1	661126	-11.72367	-3.447077E-006	-0.0042399	7
	28	218	477.4305	495292.6	-133517.5	1	512973.3	-15.08677	-7.005452E-009	0.0006936	6
	29	223	376.6741	548872	-65516.52	1	552768.4	-6.806946	-1.216015E-009	0.0006241	5
	30	225	298.2954	554679.6	-52303.96	1	557140.1	-5.386824	-8.014217E-010	0.0006855	5
	31	228	237.7717	568567.4	-47781.19	1	570571.6	-4.803727	-1.041666E-009	0.0007137	5
	32	230	189.0121	579749.8	-39776.02	1	581112.7	-3.924852	-1.17213E-009	0.0006205	5
	33	233	150.2404	589824.1	-34502.64	1	590832.3	-3.347788	-1.052071E-009	0.0006208	5
	34	236	119.1737	606630.6	-34052.13	1	607585.6	-3.212825	-1.263041E-009	0.0007134	5
	35	238	95.0169	613492.8	-26304.7	1	614056.4	-2.455165	-1.071926E-009	0.0006636	5
	36	241	75.60484	627033	-20802.41	1	627378	-1.900145	-1.216188E-009	0.0006854	5
	37	243	54.50582	623335	-19338.6	1	623634.9	-1.776998	-1.118062E-009	0.0006162	5
	38	246	45.95588	648241.4	-14770.67	1	648409.6	-1.305302	-1.075708E-009	0.0007087	5
	39	248	37.20238	658963.1	-14172.52	1	659115.5	-1.232088	-9.643923E-010	0.0006206	5
	40	251	30.04808	668897.5	-12212.49	1	669009	-1.045969	-1.064117E-009	0.0007137	5
	41	253	23.91582	681289.4	-11443.31	1	681385.5	-0.962281	-1.111361E-009	0.0007041	5
	42	256	18.60119	698489.9	-4732.437	1	698506	-0.3881867	-1.612784E-009	0.0006267	5
	43	258	15.02404	703126	-8324.447	1	703175.3	-0.6783043	-1.011179E-009	0.0006348	5
	44	261	12.01923	715397.5	-7387.969	1	715435.6	-0.5916772	-1.113579E-009	0.0007044	5
	45	263	9.450605	726877.8	-7045.729	1	726911.9	-0.5553588	-9.12528E-010	0.0006176	5
	46	266	7.512019	740764.6	-6770.72	1	740795.5	-0.5236791	-1.047862E-009	0.0006962	5
	47	269	5.978954	758885.6	-6127.774	1	758910.4	-0.4626362	-9.520617E-010	0.0006869	5
	48	273	4.734848	779255.1	-6497.53	1	779282.2	-0.4777285	-1.053232E-009	0.0006098	5
	49	277	3.75601	803477.3	-6935.539	1	803507.3	-0.4945593	-1.299257E-009	0.0006123	5
	50	282	3.004808	836424.1	-7862.406	1	836461.1	-0.5385658	-1.058686E-009	0.0006264	5
	51	289	2.372217	866249.5	-7862.38	1	866285.2	-0.520022	-1.094342E-009	0.0007137	5
	52	293	1.878005	893025.3	-9216.279	1	893072.8	-0.591288	-1.411205E-009	0.000658	5
	53	298	1.512097	924508.7	-10533.43	1	924568.7	-0.6527738	-1.400069E-009	0.0006135	5
	54	303	1.201923	961236	-12740.75	1	961321	-0.7593848	-1.283204E-009	0.0006524	5
	55	309	0.956633	1004332	-15164.01	1	1004447	-0.8650199	-1.955478E-009	2.351937E-005	5
