EXPLAIN
TAG	EISPOT
TITLE	LABEL	Potentiostatic EIS	Test Identifier
DATE	LABEL	2/24/2021	Date
TIME	LABEL	14:48:54	Time
NOTES	NOTES	1	Notes...
	
PSTAT	PSTAT	REF3000-16137	Potentiostat
VDC	POTEN	0.00000E+000	T	DC Voltage (V)
FREQINIT	QUANT	3.00000E+005	Initial Freq. (Hz)
FREQFINAL	QUANT	1.00000E+000	Final Freq. (Hz)
PTSPERDEC	QUANT	1.00000E+001	Points/decade
VAC	QUANT	5.00000E+001	AC Voltage (mV rms)
AREA	QUANT	1.00000E+000	Sample Area (cm^2)
SPEED	SELECTOR	2	Optimize for:
ZGUESS	QUANT	1.00000E+003	Estimated Z (ohms)
EOC	QUANT	0	Open Circuit (V)
SEQUENCER	TOGGLE	TRUE	Run as Sequence
PSTATMODEL	IQUANT	5	Pstat Model
PSTATSECTION	LABEL	REF3000-16137	Pstat Section
PSTATSERIALNO	LABEL	16137	Pstat Serial Number
CTRLMODE	IQUANT	1	Control Mode
IESTAB	IQUANT	0	I/E Stability
CASPEED	IQUANT	1	Control Amp Speed
CONVENTION	IQUANT	1	Current Convention
ICHRANGE	IQUANT	2	Ich Range
ICHRANGEMODE	TOGGLE	F	Ich Auto Range
ICHOFFSETENABLE	TOGGLE	T	Ich Offset Enable
ICHOFFSET	QUANT	0	Ich Offset (V)
ICHFILTER	IQUANT	3	Ich Filter
VCHRANGE	IQUANT	2	Vch Range
VCHRANGEMODE	TOGGLE	F	Vch Auto Range
VCHOFFSETENABLE	TOGGLE	T	Vch Offset Enable
VCHOFFSET	QUANT	0	Vch Offset (V)
VCHFILTER	IQUANT	3	Vch Filter
ACHRANGE	IQUANT	2	Ach Range
ACHOFFSETENABLE	TOGGLE	F	Ach Offset Enable
ACHOFFSET	QUANT	0	Ach Offset (V)
ACHFILTER	IQUANT	3	Ach Filter
IERANGELOWERLIMIT	IQUANT	2	I/E Range Lower Limit
IERANGEMODE	TOGGLE	F	I/E AutoRange
IERANGE	IQUANT	11	I/E Range
POSFEEDENABLE	TOGGLE	F	Positive Feedback IR Comp
POSFEEDRESISTANCE	QUANT	0	Positive Feedback Resistance (ohm)
ACHSELECT	IQUANT	0	Ach Select
CABLEID	IQUANT	13	Cable ID
DCCALDATE	LABEL	7/31/2020	DC Calibration Date
ACCALDATE	LABEL	7/31/2020	AC Calibration Date
THERMOSELECT	IQUANT	1	Thermo Select
FRAMEWORKVERSION	QUANT	6.33	Framework Version
INSTRUMENTVERSION	LABEL	3.50	Instrument Version
COMPLIANCEVOLTAGE	IQUANT	0	Compliance Voltage
ZCURVE	TABLE
	Pt	Time	Freq	Zreal	Zimag	Zsig	Zmod	Zphz	Idc	Vdc	IERange
	#	s	Hz	ohm	ohm	V	ohm	°	A	V	#
	0	11	300046.9	2.099644	2.231971	1	3.064343	46.74979	9.372721E-006	-0.0002487	11
	1	14	238359.4	2.050617	1.77838	1	2.714345	40.93319	-0.0001262	-0.0003513	11
	2	17	189328.1	2.098917	1.263332	1	2.449788	31.04362	-0.0001553	-5.233548E-005	12
	3	20	150421.9	2.050073	0.993118	1	2.277956	25.84695	-7.689968E-005	0.0002647	12
	4	24	119484.4	1.991088	0.8584582	1	2.168267	23.3233	6.583563E-006	0.000445	11
	5	27	94921.88	1.98313	0.6620247	1	2.090713	18.46046	-2.392906E-005	0.0004726	11
	6	29	75421.88	1.978969	0.4958084	1	2.040133	14.06529	-2.25072E-005	0.0005054	11
	7	32	59859.37	1.977639	0.3545494	1	2.009169	10.16396	1.682556E-005	0.0005944	11
	8	34	47578.12	1.978961	0.2355126	1	1.992926	6.786747	-1.744128E-005	0.0006245	11
	9	37	37828.12	1.980829	0.1290263	1	1.985027	3.726841	-2.460084E-005	0.0006527	11
	10	39	30046.88	1.984148	0.0298044	1	1.984372	0.8605897	-3.879104E-005	0.0006634	11
	11	42	23859.38	1.98826	-0.0672558	1	1.989397	-1.937376	2.039146E-005	0.0007146	11
	12	44	18984.38	1.993868	-0.165243	1	2.000704	-4.737595	-7.887395E-005	0.0007153	11
	13	47	15046.87	2.002078	-0.2720084	1	2.020471	-7.737005	-3.078411E-005	0.0006977	11
	14	49	11953.13	2.010772	-0.3899733	1	2.048239	-10.9758	-7.340821E-006	0.0006864	11
	15	51	9515.62	2.02403	-0.5247858	1	2.090956	-14.53544	-9.144583E-008	0.000723	11
	16	54	7546.875	2.039966	-0.6859168	1	2.152195	-18.58467	1.310254E-005	0.0007341	11
	17	56	5928.309	2.062267	-0.8875828	1	2.245161	-23.28665	-4.467414E-005	0.0006907	11
	18	58	4733.456	2.088849	-1.116145	1	2.368348	-28.11714	-3.132367E-005	0.0006898	11
	19	61	3796.875	2.123838	-1.386635	1	2.536423	-33.14016	-2.368412E-005	0.0007141	11
	20	63	2987.132	2.170222	-1.74696	1	2.785989	-38.83296	2.48439E-005	0.0007312	11
	21	65	2390.625	2.228211	-2.155803	1	3.100389	-44.05377	1.54705E-005	0.000725	11
	22	67	1884.191	2.305492	-2.694466	1	3.546187	-49.44839	2.637199E-005	0.0007194	11
	23	70	1516.544	2.399285	-3.296427	1	4.077132	-53.95122	1.8243E-005	0.0006617	10
	24	72	1193.986	2.525521	-4.1069	1	4.821295	-58.41073	3.486524E-006	0.0006799	10
	25	75	946.5144	2.685686	-5.075623	1	5.742373	-62.11514	-7.140918E-006	0.0006686	10
	26	77	751.7689	2.87531	-6.258681	1	6.887561	-65.32541	-2.294495E-005	0.0006808	10
	27	79	597.4265	3.120356	-7.70688	1	8.314603	-67.95799	1.841786E-005	0.0006718	10
	28	82	477.4305	3.418521	-9.437201	1	10.03728	-70.08765	-3.215165E-006	0.0006811	10
	29	84	376.6741	3.816543	-11.68469	1	12.29219	-71.91153	-3.166564E-006	0.0006758	10
	30	86	298.2954	4.31545	-14.41167	1	15.04392	-73.33012	-3.233414E-006	0.0006784	10
	31	88	237.7717	4.930225	-17.65763	1	18.33301	-74.39962	-2.961708E-006	0.0006767	10
	32	91	189.0121	5.72084	-21.67412	1	22.41641	-75.21411	-3.202268E-006	0.0006791	10
	33	93	150.2404	6.725213	-26.57747	1	27.41514	-75.79984	-3.111136E-006	0.0006832	10
	34	96	119.1737	8.015945	-32.63025	1	33.60043	-76.19804	-2.591913E-006	0.0006814	10
	35	98	95.0169	9.61456	-39.81273	1	40.95721	-76.42333	-3.227488E-006	0.000679	10
	36	101	75.60484	11.63254	-48.5458	1	49.92004	-76.52486	-6.580684E-007	7.993131E-005	9
	37	103	54.50582	15.44962	-64.41424	1	66.24111	-76.51251	-8.257559E-007	7.770088E-005	9
	38	106	45.95588	17.96029	-74.58492	1	76.7169	-76.46076	-5.410488E-007	8.846194E-005	9
	39	108	37.20238	21.61211	-89.29919	1	91.87725	-76.39494	-5.308543E-007	7.556173E-005	9
	40	110	30.04808	26.10894	-107.1375	1	110.2729	-76.30422	-7.883207E-007	8.712108E-005	9
	41	113	23.91582	31.74245	-129.8679	1	133.6909	-76.26499	-6.860363E-007	7.994661E-005	9
	42	115	18.60119	39.47367	-160.9569	1	165.7265	-76.22052	-5.107378E-007	8.154813E-005	9
	43	117	15.02404	47.51367	-193.2017	1	198.9584	-76.18356	-6.732261E-007	7.515495E-005	9
	44	120	12.01923	57.80356	-233.7628	1	240.8035	-76.11083	-7.374126E-007	7.971251E-005	9
	45	122	9.450605	71.73815	-287.2944	1	296.1156	-75.9798	-6.571938E-007	0.0000994	9
	46	125	7.512019	89.13073	-350.1116	1	361.2788	-75.71715	-6.165922E-007	8.538258E-005	9
	47	127	5.978954	110.398	-423.9537	1	438.0919	-75.40426	-1.171235E-006	0.0006675	8
	48	130	4.734848	139.6703	-518.0703	1	536.5674	-74.91194	-1.193293E-006	0.0006428	8
	49	134	3.75601	178.7522	-631.0344	1	655.8634	-74.18424	-9.666629E-007	0.0006741	8
	50	137	3.004808	228.7486	-761.3664	1	794.9872	-73.27737	-1.075624E-006	0.0006862	8
	51	141	2.372217	301.6247	-925.2376	1	973.161	-71.94418	-1.068854E-006	0.0006399	8
	52	145	1.878005	400.2332	-1120.399	1	1189.74	-70.34206	-9.63869E-007	0.0006565	8
	53	150	1.512097	520.6139	-1327.236	1	1425.691	-68.5822	-1.015466E-006	0.0007324	8
	54	155	1.201923	697.9437	-1575.384	1	1723.067	-66.10518	-9.331007E-007	0.0006645	8
	55	161	0.956633	926.3931	-1842.504	1	2062.287	-63.3072	-1.188756E-006	1.697135E-005	8
