EXPLAIN
TAG	EISPOT
TITLE	LABEL	Potentiostatic EIS	Test Identifier
DATE	LABEL	2/24/2021	Date
TIME	LABEL	14:57:26	Time
NOTES	NOTES	1	Notes...
	
PSTAT	PSTAT	REF3000-16137	Potentiostat
VDC	POTEN	0.00000E+000	T	DC Voltage (V)
FREQINIT	QUANT	3.00000E+005	Initial Freq. (Hz)
FREQFINAL	QUANT	1.00000E+000	Final Freq. (Hz)
PTSPERDEC	QUANT	1.00000E+001	Points/decade
VAC	QUANT	5.00000E+001	AC Voltage (mV rms)
AREA	QUANT	1.00000E+000	Sample Area (cm^2)
SPEED	SELECTOR	2	Optimize for:
ZGUESS	QUANT	1.00000E+003	Estimated Z (ohms)
EOC	QUANT	0	Open Circuit (V)
SEQUENCER	TOGGLE	TRUE	Run as Sequence
PSTATMODEL	IQUANT	5	Pstat Model
PSTATSECTION	LABEL	REF3000-16137	Pstat Section
PSTATSERIALNO	LABEL	16137	Pstat Serial Number
CTRLMODE	IQUANT	1	Control Mode
IESTAB	IQUANT	0	I/E Stability
CASPEED	IQUANT	1	Control Amp Speed
CONVENTION	IQUANT	1	Current Convention
ICHRANGE	IQUANT	2	Ich Range
ICHRANGEMODE	TOGGLE	F	Ich Auto Range
ICHOFFSETENABLE	TOGGLE	T	Ich Offset Enable
ICHOFFSET	QUANT	0	Ich Offset (V)
ICHFILTER	IQUANT	3	Ich Filter
VCHRANGE	IQUANT	2	Vch Range
VCHRANGEMODE	TOGGLE	F	Vch Auto Range
VCHOFFSETENABLE	TOGGLE	T	Vch Offset Enable
VCHOFFSET	QUANT	0	Vch Offset (V)
VCHFILTER	IQUANT	3	Vch Filter
ACHRANGE	IQUANT	2	Ach Range
ACHOFFSETENABLE	TOGGLE	F	Ach Offset Enable
ACHOFFSET	QUANT	0	Ach Offset (V)
ACHFILTER	IQUANT	3	Ach Filter
IERANGELOWERLIMIT	IQUANT	2	I/E Range Lower Limit
IERANGEMODE	TOGGLE	F	I/E AutoRange
IERANGE	IQUANT	11	I/E Range
POSFEEDENABLE	TOGGLE	F	Positive Feedback IR Comp
POSFEEDRESISTANCE	QUANT	0	Positive Feedback Resistance (ohm)
ACHSELECT	IQUANT	0	Ach Select
CABLEID	IQUANT	13	Cable ID
DCCALDATE	LABEL	7/31/2020	DC Calibration Date
ACCALDATE	LABEL	7/31/2020	AC Calibration Date
THERMOSELECT	IQUANT	1	Thermo Select
FRAMEWORKVERSION	QUANT	6.33	Framework Version
INSTRUMENTVERSION	LABEL	3.50	Instrument Version
COMPLIANCEVOLTAGE	IQUANT	0	Compliance Voltage
ZCURVE	TABLE
	Pt	Time	Freq	Zreal	Zimag	Zsig	Zmod	Zphz	Idc	Vdc	IERange
	#	s	Hz	ohm	ohm	V	ohm	°	A	V	#
	0	10	300046.9	2.35264	2.22947	1	3.241212	43.46022	-0.0001385	-0.0004753	11
	1	14	238359.4	2.311398	1.767876	1	2.909973	37.41061	3.599495E-005	-8.354889E-005	11
	2	17	189328.1	2.369204	1.240163	1	2.67416	27.62988	-0.0001684	-0.0001622	12
	3	20	150421.9	2.320754	0.969777	1	2.515227	22.67867	-0.0002472	-6.090654E-006	12
	4	24	119484.4	2.296169	0.7556337	1	2.417307	18.21558	9.337503E-006	0.0003982	12
	5	28	94921.88	2.27859	0.5776687	1	2.350675	14.22592	-0.000128	0.0004882	12
	6	31	75421.88	2.257138	0.4904787	1	2.309814	12.25984	-4.830629E-005	0.0005441	11
	7	34	59859.37	2.257297	0.3487998	1	2.284086	8.783932	1.56573E-005	0.0006177	11
	8	36	47578.12	2.260326	0.2292511	1	2.271922	5.791357	-3.3745E-005	0.0006287	11
	9	39	37828.12	2.263589	0.1212971	1	2.266837	3.067328	-1.801605E-005	0.0006614	11
	10	41	30046.88	2.267237	0.0204007	1	2.267329	0.5155361	1.085647E-005	0.0006809	11
	11	44	23859.38	2.273419	-0.0780782	1	2.274759	-1.96699	-5.343899E-005	0.0006506	11
	12	46	18984.38	2.280396	-0.1784533	1	2.287367	-4.474586	1.018864E-005	0.0006988	11
	13	48	15046.87	2.290173	-0.2883139	1	2.308249	-7.175321	8.456407E-007	0.000713	11
	14	51	11953.13	2.301643	-0.4102124	1	2.337913	-10.10548	-2.103547E-005	0.0007125	11
	15	53	9515.62	2.314931	-0.5496547	1	2.379291	-13.35691	1.800045E-005	0.000741	11
	16	55	7546.875	2.332297	-0.7168157	1	2.439966	-17.08446	-5.023198E-005	0.0006603	11
	17	58	5928.309	2.355619	-0.9270161	1	2.531462	-21.48133	1.912638E-005	0.0007286	11
	18	60	4733.456	2.383681	-1.165233	1	2.653243	-26.05112	-5.666859E-006	0.0007102	11
	19	62	3796.875	2.418875	-1.448148	1	2.819236	-30.9084	-2.411774E-005	0.0007126	11
	20	65	2987.132	2.466792	-1.826292	1	3.069268	-36.51444	-4.530587E-005	0.0006842	11
	21	67	2390.625	2.525971	-2.256375	1	3.386998	-41.77348	-2.504189E-005	0.0007443	11
	22	69	1884.191	2.604698	-2.822174	1	3.840458	-47.29484	-2.6273E-005	0.0006861	11
	23	72	1516.544	2.701588	-3.456046	1	4.386665	-51.98529	4.705053E-006	0.0006542	10
	24	74	1193.986	2.83206	-4.310019	1	5.157211	-56.69157	1.368009E-005	0.0006777	10
	25	76	946.5144	2.99801	-5.333094	1	6.118002	-60.65739	-1.856973E-005	0.0006961	10
	26	79	751.7689	3.19808	-6.58148	1	7.317348	-64.08391	-2.053372E-005	0.0006964	10
	27	81	597.4265	3.454833	-8.104898	1	8.810519	-66.91315	-3.321797E-006	0.0006605	10
	28	83	477.4305	3.767833	-9.92972	1	10.62054	-69.22074	-2.322862E-006	0.0006834	10
	29	86	376.6741	4.185285	-12.29727	1	12.98998	-71.20438	-1.799476E-006	0.0006773	10
	30	88	298.2954	4.706619	-15.17122	1	15.88453	-72.76437	-2.233518E-006	0.0006788	10
	31	90	237.7717	5.348454	-18.59467	1	19.34858	-73.95298	-2.951127E-006	0.0006826	10
	32	93	189.0121	6.171373	-22.83449	1	23.65375	-74.87625	-2.216999E-006	0.0006757	10
	33	95	150.2404	7.217765	-28.01738	1	28.93215	-75.55373	-2.898414E-006	0.0006735	10
	34	98	119.1737	8.563099	-34.41205	1	35.46147	-76.02632	-2.077213E-006	0.0006834	10
	35	100	95.0169	10.22146	-41.97004	1	43.19679	-76.31254	4.473909E-007	7.722901E-005	9
	36	102	75.60484	12.35252	-51.27485	1	52.74177	-76.45509	3.067719E-007	7.77825E-005	9
	37	105	54.50582	16.39648	-68.09788	1	70.04402	-76.46212	1.667421E-007	7.829643E-005	9
	38	107	45.95588	19.08509	-78.88557	1	81.1614	-76.39954	5.782349E-007	8.550142E-005	9
	39	110	37.20238	23.02179	-94.45528	1	97.2204	-76.30225	4.155536E-007	8.489774E-005	9
	40	112	30.04808	27.81394	-113.2231	1	116.5894	-76.19825	1.95063E-007	0.0001106	9
	41	115	23.91582	33.92239	-137.2176	1	141.3485	-76.11398	3.943423E-007	7.808723E-005	9
	42	117	18.60119	42.20926	-169.7805	1	174.9486	-76.0387	2.73181E-007	8.93996E-005	9
	43	119	15.02404	50.53526	-203.3405	1	209.526	-76.0433	3.660137E-007	8.061092E-005	9
	44	122	12.01923	61.0822	-245.6379	1	253.1186	-76.03562	4.985546E-007	8.428267E-005	9
	45	124	9.450605	74.99504	-301.6142	1	310.7979	-76.03681	3.44404E-007	8.062056E-005	9
	46	127	7.512019	91.26783	-367.24	1	378.4112	-76.0434	4.355355E-007	6.731009E-005	9
	47	129	5.978954	111.4852	-444.9821	1	458.7353	-75.93472	-1.975673E-007	0.0006596	8
	48	132	4.734848	138.3808	-544.3858	1	561.6984	-75.7377	-2.916148E-007	0.000645	8
	49	136	3.75601	173.3435	-664.551	1	686.7867	-75.38055	-1.2585E-007	0.000678	8
	50	139	3.004808	217.4864	-804.7812	1	833.6505	-74.87745	-1.963767E-007	0.0006721	8
	51	143	2.372217	280.4936	-984.167	1	1023.358	-74.09213	-2.488565E-007	0.000663	8
	52	147	1.878005	366.5512	-1201.716	1	1256.376	-73.03708	-1.549502E-007	0.0006521	8
	53	152	1.512097	470.8732	-1440.419	1	1515.43	-71.89742	-1.904129E-007	0.000752	8
	54	157	1.201923	626.2318	-1737.695	1	1847.092	-70.18181	-1.293309E-007	0.0006512	8
	55	163	0.956633	833.1622	-2077.668	1	2238.496	-68.1488	-3.106345E-007	1.869785E-005	8
