EXPLAIN
TAG	EISPOT
TITLE	LABEL	Potentiostatic EIS	Test Identifier
DATE	LABEL	2/24/2021	Date
TIME	LABEL	15:28:31	Time
NOTES	NOTES	1	Notes...
	
PSTAT	PSTAT	REF3000-16137	Potentiostat
VDC	POTEN	0.00000E+000	T	DC Voltage (V)
FREQINIT	QUANT	3.00000E+005	Initial Freq. (Hz)
FREQFINAL	QUANT	1.00000E+000	Final Freq. (Hz)
PTSPERDEC	QUANT	1.00000E+001	Points/decade
VAC	QUANT	5.00000E+001	AC Voltage (mV rms)
AREA	QUANT	1.00000E+000	Sample Area (cm^2)
SPEED	SELECTOR	2	Optimize for:
ZGUESS	QUANT	1.00000E+003	Estimated Z (ohms)
EOC	QUANT	0	Open Circuit (V)
SEQUENCER	TOGGLE	TRUE	Run as Sequence
PSTATMODEL	IQUANT	5	Pstat Model
PSTATSECTION	LABEL	REF3000-16137	Pstat Section
PSTATSERIALNO	LABEL	16137	Pstat Serial Number
CTRLMODE	IQUANT	1	Control Mode
IESTAB	IQUANT	0	I/E Stability
CASPEED	IQUANT	1	Control Amp Speed
CONVENTION	IQUANT	1	Current Convention
ICHRANGE	IQUANT	2	Ich Range
ICHRANGEMODE	TOGGLE	F	Ich Auto Range
ICHOFFSETENABLE	TOGGLE	T	Ich Offset Enable
ICHOFFSET	QUANT	0	Ich Offset (V)
ICHFILTER	IQUANT	3	Ich Filter
VCHRANGE	IQUANT	2	Vch Range
VCHRANGEMODE	TOGGLE	F	Vch Auto Range
VCHOFFSETENABLE	TOGGLE	T	Vch Offset Enable
VCHOFFSET	QUANT	0	Vch Offset (V)
VCHFILTER	IQUANT	3	Vch Filter
ACHRANGE	IQUANT	2	Ach Range
ACHOFFSETENABLE	TOGGLE	F	Ach Offset Enable
ACHOFFSET	QUANT	0	Ach Offset (V)
ACHFILTER	IQUANT	3	Ach Filter
IERANGELOWERLIMIT	IQUANT	2	I/E Range Lower Limit
IERANGEMODE	TOGGLE	F	I/E AutoRange
IERANGE	IQUANT	11	I/E Range
POSFEEDENABLE	TOGGLE	F	Positive Feedback IR Comp
POSFEEDRESISTANCE	QUANT	0	Positive Feedback Resistance (ohm)
ACHSELECT	IQUANT	0	Ach Select
CABLEID	IQUANT	13	Cable ID
DCCALDATE	LABEL	7/31/2020	DC Calibration Date
ACCALDATE	LABEL	7/31/2020	AC Calibration Date
THERMOSELECT	IQUANT	1	Thermo Select
FRAMEWORKVERSION	QUANT	6.33	Framework Version
INSTRUMENTVERSION	LABEL	3.50	Instrument Version
COMPLIANCEVOLTAGE	IQUANT	0	Compliance Voltage
ZCURVE	TABLE
	Pt	Time	Freq	Zreal	Zimag	Zsig	Zmod	Zphz	Idc	Vdc	IERange
	#	s	Hz	ohm	ohm	V	ohm	°	A	V	#
	0	10	300046.9	6.042155	2.233269	1	6.441671	20.28505	-8.53484E-005	0.0002713	10
	1	14	238359.4	6.027017	1.756553	1	6.277771	16.24858	1.457675E-005	-8.326955E-005	10
	2	17	189328.1	6.018847	1.385945	1	6.176355	12.96732	1.156939E-005	0.000172	10
	3	19	150421.9	6.01827	1.076585	1	6.113804	10.14215	7.255115E-005	0.0001815	10
	4	22	119484.4	6.022435	0.8429937	1	6.081148	7.968237	-2.788424E-005	0.0004187	10
	5	24	94921.88	6.032573	0.6623548	1	6.068826	6.265772	-1.727408E-005	0.0006166	10
	6	27	75421.88	6.038911	0.4873857	1	6.058547	4.614201	2.488696E-005	0.0005702	10
	7	29	59859.37	6.049726	0.336439	1	6.059073	3.18307	-1.772579E-006	0.0006398	10
	8	32	47578.12	6.063847	0.20592	1	6.067342	1.944939	-1.448729E-005	0.0006407	10
	9	34	37828.12	6.078767	0.0891697	1	6.079421	0.8404137	-2.853335E-005	0.0006445	10
	10	37	30046.88	6.096289	-0.0210431	1	6.096325	-0.197772	1.729264E-005	0.0006274	10
	11	39	23859.38	6.115398	-0.1285536	1	6.116749	-1.204254	-2.167256E-005	0.0007071	10
	12	42	18984.38	6.133475	-0.2405542	1	6.13819	-2.245983	-1.313891E-005	0.0006579	10
	13	44	15046.87	6.153722	-0.3648587	1	6.164529	-3.393136	3.23716E-006	0.0006397	10
	14	46	11953.13	6.17651	-0.5038075	1	6.197024	-4.663197	1.191612E-005	0.0006412	10
	15	49	9515.62	6.201969	-0.6649294	1	6.237511	-6.119456	-3.094994E-005	0.0006781	10
	16	51	7546.875	6.230562	-0.8577365	1	6.289326	-7.83841	1.23536E-005	0.0006472	10
	17	53	5928.309	6.265926	-1.104084	1	6.362454	-9.99319	1.065058E-005	0.0006426	10
	18	56	4733.456	6.304212	-1.38437	1	6.454422	-12.38526	2.055604E-005	0.0006769	10
	19	58	3796.875	6.348892	-1.719267	1	6.577561	-15.15218	-2.72909E-005	0.000674	10
	20	60	2987.132	6.406002	-2.166647	1	6.762486	-18.68664	1.690553E-005	0.0006515	10
	21	63	2390.625	6.471914	-2.682081	1	7.005657	-22.51002	-4.889586E-006	0.0006553	10
	22	65	1884.191	6.557712	-3.361176	1	7.368927	-27.13755	1.884205E-005	0.0006788	10
	23	67	1516.544	6.656039	-4.124644	1	7.830424	-31.78585	1.881786E-005	0.0006738	10
	24	69	1193.986	6.792487	-5.163629	1	8.532347	-37.24199	3.864862E-006	0.0006504	10
	25	72	946.5144	6.959073	-6.423195	1	9.470276	-42.70688	3.065146E-006	0.0006493	10
	26	74	751.7689	7.174265	-7.953194	1	10.7109	-47.94762	1.683548E-005	0.0006528	10
	27	77	597.4265	7.447388	-9.84651	1	12.34574	-52.89804	1.161045E-005	0.0006563	10
	28	79	477.4305	7.781222	-12.11333	1	14.39723	-57.28458	-2.092022E-006	0.0006889	10
	29	81	376.6741	8.233556	-15.06306	1	17.16645	-61.33873	-2.37067E-006	0.0006845	10
	30	84	298.2954	8.799329	-18.64993	1	20.62154	-64.74133	-2.118118E-006	0.0006874	10
	31	86	237.7717	9.49297	-22.93458	1	24.8216	-67.5146	-2.70454E-006	0.0006856	10
	32	88	189.0121	10.37215	-28.25738	1	30.10084	-69.84383	-2.584673E-006	0.0006866	10
	33	91	150.2404	11.47274	-34.79168	1	36.63448	-71.74976	-2.428479E-006	0.000687	10
	34	93	119.1737	12.84808	-42.85011	1	44.73483	-73.30928	1.237262E-006	8.213433E-005	9
	35	95	95.0169	14.56222	-52.5715	1	54.55109	-74.51736	1.087959E-006	9.022008E-005	9
	36	98	75.60484	16.74399	-64.59054	1	66.72555	-75.46696	1.199986E-006	8.309504E-005	9
	37	101	54.50582	20.92151	-86.64162	1	89.13182	-76.42455	1.168715E-006	8.475147E-005	9
	38	103	45.95588	23.75319	-100.9384	1	103.6956	-76.75788	1.211934E-006	9.173565E-005	9
	39	105	37.20238	28.04114	-121.8637	1	125.0482	-77.04166	1.23863E-006	8.859902E-005	9
	40	108	30.04808	33.48112	-147.2643	1	151.0224	-77.19131	1.179034E-006	8.270702E-005	9
	41	110	23.91582	40.8264	-180.1461	1	184.7144	-77.23079	1.221464E-006	8.438415E-005	9
	42	113	18.60119	51.10906	-224.298	1	230.0472	-77.16361	1.475428E-006	8.62357E-005	9
	43	115	15.02404	62.15995	-269.8184	1	276.8859	-77.02673	1.366582E-006	9.083174E-005	9
	44	117	12.01923	76.53176	-326.905	1	335.7439	-76.82378	1.162404E-006	8.883991E-005	9
	45	120	9.450605	95.3811	-401.2705	1	412.4507	-76.62906	1.259847E-006	0.0001002	9
	46	122	7.512019	116.8904	-485.1573	1	499.0401	-76.45374	5.805415E-007	0.00067	8
	47	125	5.978954	142.5391	-587.5584	1	604.6009	-76.36373	5.752782E-007	0.0006722	8
	48	128	4.734848	173.7406	-715.4857	1	736.2782	-76.3511	6.948296E-007	0.0006812	8
	49	131	3.75601	210.1768	-869.5345	1	894.5751	-76.41156	5.842551E-007	0.0006603	8
	50	135	3.004808	251.3647	-1050.072	1	1079.739	-76.53793	6.554219E-007	0.0006406	8
	51	138	2.372217	303.4733	-1284.706	1	1320.063	-76.70922	6.319486E-007	0.0006077	8
	52	142	1.878005	367.898	-1570.58	1	1613.093	-76.81654	6.148415E-007	0.0006717	8
	53	147	1.512097	440.2348	-1893.152	1	1943.665	-76.90906	5.965036E-007	0.0005629	8
	54	153	1.201923	530.4156	-2315.436	1	2375.412	-77.09741	6.153319E-007	0.0006866	8
	55	159	0.956633	643.9754	-2829.296	1	2901.658	-77.17738	5.9634E-007	2.565664E-005	8
