EXPLAIN
TAG	EISPOT
TITLE	LABEL	Potentiostatic EIS	Test Identifier
DATE	LABEL	2/24/2021	Date
TIME	LABEL	15:22:55	Time
NOTES	NOTES	1	Notes...
	
PSTAT	PSTAT	REF3000-16137	Potentiostat
VDC	POTEN	0.00000E+000	T	DC Voltage (V)
FREQINIT	QUANT	3.00000E+005	Initial Freq. (Hz)
FREQFINAL	QUANT	1.00000E+000	Final Freq. (Hz)
PTSPERDEC	QUANT	1.00000E+001	Points/decade
VAC	QUANT	5.00000E+001	AC Voltage (mV rms)
AREA	QUANT	1.00000E+000	Sample Area (cm^2)
SPEED	SELECTOR	2	Optimize for:
ZGUESS	QUANT	1.00000E+003	Estimated Z (ohms)
EOC	QUANT	0	Open Circuit (V)
SEQUENCER	TOGGLE	TRUE	Run as Sequence
PSTATMODEL	IQUANT	5	Pstat Model
PSTATSECTION	LABEL	REF3000-16137	Pstat Section
PSTATSERIALNO	LABEL	16137	Pstat Serial Number
CTRLMODE	IQUANT	1	Control Mode
IESTAB	IQUANT	0	I/E Stability
CASPEED	IQUANT	1	Control Amp Speed
CONVENTION	IQUANT	1	Current Convention
ICHRANGE	IQUANT	2	Ich Range
ICHRANGEMODE	TOGGLE	F	Ich Auto Range
ICHOFFSETENABLE	TOGGLE	T	Ich Offset Enable
ICHOFFSET	QUANT	0	Ich Offset (V)
ICHFILTER	IQUANT	3	Ich Filter
VCHRANGE	IQUANT	2	Vch Range
VCHRANGEMODE	TOGGLE	F	Vch Auto Range
VCHOFFSETENABLE	TOGGLE	T	Vch Offset Enable
VCHOFFSET	QUANT	0	Vch Offset (V)
VCHFILTER	IQUANT	3	Vch Filter
ACHRANGE	IQUANT	2	Ach Range
ACHOFFSETENABLE	TOGGLE	F	Ach Offset Enable
ACHOFFSET	QUANT	0	Ach Offset (V)
ACHFILTER	IQUANT	3	Ach Filter
IERANGELOWERLIMIT	IQUANT	2	I/E Range Lower Limit
IERANGEMODE	TOGGLE	F	I/E AutoRange
IERANGE	IQUANT	11	I/E Range
POSFEEDENABLE	TOGGLE	F	Positive Feedback IR Comp
POSFEEDRESISTANCE	QUANT	0	Positive Feedback Resistance (ohm)
ACHSELECT	IQUANT	0	Ach Select
CABLEID	IQUANT	13	Cable ID
DCCALDATE	LABEL	7/31/2020	DC Calibration Date
ACCALDATE	LABEL	7/31/2020	AC Calibration Date
THERMOSELECT	IQUANT	1	Thermo Select
FRAMEWORKVERSION	QUANT	6.33	Framework Version
INSTRUMENTVERSION	LABEL	3.50	Instrument Version
COMPLIANCEVOLTAGE	IQUANT	0	Compliance Voltage
ZCURVE	TABLE
	Pt	Time	Freq	Zreal	Zimag	Zsig	Zmod	Zphz	Idc	Vdc	IERange
	#	s	Hz	ohm	ohm	V	ohm	°	A	V	#
	0	10	300046.9	4.753155	2.247778	1	5.25785	25.30957	-4.522E-005	0.0001289	10
	1	13	238359.4	4.729308	1.768853	1	5.049277	20.50677	1.123236E-005	-0.0001995	10
	2	16	189328.1	4.710069	1.397229	1	4.912941	16.52284	5.2069E-005	5.162479E-005	10
	3	19	150421.9	4.701285	1.099066	1	4.828046	13.15828	-2.970436E-005	0.0002225	10
	4	22	119484.4	4.708417	0.8491234	1	4.784371	10.22293	1.726235E-005	0.000393	10
	5	24	94921.88	4.7125	0.6638111	1	4.759023	8.018031	3.112748E-005	0.0004762	10
	6	27	75421.88	4.718273	0.4919934	1	4.743855	5.95295	-1.435707E-005	0.0005773	10
	7	29	59859.37	4.724449	0.3436239	1	4.736928	4.159976	4.344505E-006	0.0005753	10
	8	32	47578.12	4.733435	0.2153975	1	4.738333	2.605478	1.995387E-007	0.0005986	10
	9	34	37828.12	4.744256	0.1000967	1	4.745312	1.208676	-2.097726E-005	0.0006224	10
	10	37	30046.88	4.756873	-0.0090212	1	4.756882	-0.1086589	-6.708925E-006	0.0006188	10
	11	39	23859.38	4.771296	-0.1157684	1	4.7727	-1.389924	-2.191314E-005	0.0006936	10
	12	42	18984.38	4.78472	-0.2257761	1	4.790044	-2.701606	1.250358E-005	0.0006498	10
	13	44	15046.87	4.801359	-0.3468858	1	4.813873	-4.132292	-3.14616E-005	0.0006689	10
	14	46	11953.13	4.820527	-0.4824273	1	4.844607	-5.715001	-2.113194E-005	0.000714	10
	15	49	9515.62	4.840066	-0.6383735	1	4.881984	-7.513575	1.227546E-005	0.000662	10
	16	51	7546.875	4.865471	-0.8273538	1	4.935314	-9.65061	-2.975316E-005	0.0006766	10
	17	53	5928.309	4.895566	-1.065153	1	5.010102	-12.27482	-2.566907E-005	0.0007012	10
	18	55	4733.456	4.929365	-1.335994	1	5.107203	-15.16444	1.664778E-005	0.0006583	10
	19	58	3796.875	4.969594	-1.660639	1	5.239713	-18.47757	-2.072571E-005	0.0006713	10
	20	60	2987.132	5.023001	-2.093563	1	5.441833	-22.62615	-2.47434E-005	0.0006927	10
	21	62	2390.625	5.083823	-2.591771	1	5.706359	-27.01283	2.098491E-005	0.0006701	10
	22	65	1884.191	5.165866	-3.247183	1	6.101669	-32.15283	-5.628583E-006	0.0006897	10
	23	67	1516.544	5.261087	-3.985165	1	6.600043	-37.14318	-6.401935E-006	0.0006908	10
	24	69	1193.986	5.39468	-4.987688	1	7.347081	-42.75514	-2.499516E-005	0.0007029	10
	25	72	946.5144	5.564117	-6.188991	1	8.32244	-48.04336	2.119418E-005	0.000663	10
	26	74	751.7689	5.77228	-7.671097	1	9.60026	-53.03959	-2.557764E-005	0.0007047	10
	27	76	597.4265	6.039202	-9.486819	1	11.24596	-57.51963	-5.737364E-006	0.000694	10
	28	79	477.4305	6.376404	-11.65588	1	13.28601	-61.31892	-2.274296E-006	0.0007031	10
	29	81	376.6741	6.823444	-14.47803	1	16.0054	-64.76566	-2.824607E-006	0.0006904	10
	30	83	298.2954	7.379225	-17.90825	1	19.36901	-67.60554	-3.150133E-006	0.0006856	10
	31	86	237.7717	8.057668	-22.00536	1	23.4342	-69.88887	-2.275453E-006	0.0006829	10
	32	88	189.0121	8.917511	-27.08966	1	28.51967	-71.77923	-2.390811E-006	0.0006841	10
	33	91	150.2404	10.00018	-33.3405	1	34.80794	-73.30386	-2.793295E-006	0.0006902	10
	34	93	119.1737	11.37636	-41.09185	1	42.63756	-74.52515	-2.327291E-006	0.0006939	10
	35	95	95.0169	13.06314	-50.32287	1	51.99074	-75.44798	1.194867E-006	9.338402E-005	9
	36	98	75.60484	15.24024	-61.77903	1	63.63107	-76.14241	1.134674E-006	9.066507E-005	9
	37	100	54.50582	19.43193	-82.75075	1	85.00169	-76.78496	9.730252E-007	8.37845E-005	9
	38	103	45.95588	22.26104	-96.3142	1	98.8534	-76.98579	1.127018E-006	9.138398E-005	9
	39	105	37.20238	26.5725	-116.1126	1	119.1143	-77.10976	1.201231E-006	8.721234E-005	9
	40	108	30.04808	31.97235	-140.0723	1	143.6749	-77.14217	1.185868E-006	8.213412E-005	9
	41	110	23.91582	39.3222	-170.9925	1	175.4556	-77.04917	9.907011E-007	8.861849E-005	9
	42	112	18.60119	49.4566	-212.4167	1	218.0982	-76.89343	1.123112E-006	0.0000959	9
	43	115	15.02404	60.22137	-255.0898	1	262.1019	-76.71687	1.139259E-006	8.324103E-005	9
	44	117	12.01923	73.84363	-308.2785	1	316.9992	-76.52943	1.300765E-006	9.221191E-005	9
	45	120	9.450605	91.67011	-377.6206	1	388.5881	-76.35499	1.171299E-006	0.0001042	9
	46	122	7.512019	111.4461	-455.8619	1	469.2871	-76.26216	5.233396E-007	0.0006587	8
	47	125	5.978954	134.864	-552.3483	1	568.5745	-76.27885	5.62508E-007	0.0006698	8
	48	128	4.734848	163.3379	-672.4016	1	691.956	-76.34634	5.479583E-007	0.0006493	8
	49	131	3.75601	197.1168	-818.5327	1	841.9328	-76.46	6.203018E-007	0.000695	8
	50	134	3.004808	235.9348	-990.05	1	1017.774	-76.59608	6.05389E-007	0.0006452	8
	51	138	2.372217	286.8379	-1214.418	1	1247.833	-76.71066	5.702852E-007	0.0005934	8
	52	142	1.878005	347.2565	-1486.276	1	1526.304	-76.84921	5.920001E-007	0.0006775	8
	53	147	1.512097	417.6682	-1790.466	1	1838.537	-76.86923	5.49348E-007	0.0006246	8
	54	153	1.201923	510.7849	-2195.677	1	2254.307	-76.90409	6.017652E-007	0.0006923	8
	55	159	0.956633	631.2457	-2683.211	1	2756.464	-76.76147	5.533442E-007	2.012008E-005	8
