EXPLAIN
TAG	EISPOT
TITLE	LABEL	Potentiostatic EIS	Test Identifier
DATE	LABEL	2/24/2021	Date
TIME	LABEL	16:01:46	Time
NOTES	NOTES	1	Notes...
	
PSTAT	PSTAT	REF3000-16137	Potentiostat
VDC	POTEN	0.00000E+000	T	DC Voltage (V)
FREQINIT	QUANT	3.00000E+005	Initial Freq. (Hz)
FREQFINAL	QUANT	1.00000E+000	Final Freq. (Hz)
PTSPERDEC	QUANT	1.00000E+001	Points/decade
VAC	QUANT	5.00000E+001	AC Voltage (mV rms)
AREA	QUANT	1.00000E+000	Sample Area (cm^2)
SPEED	SELECTOR	2	Optimize for:
ZGUESS	QUANT	1.00000E+003	Estimated Z (ohms)
EOC	QUANT	0	Open Circuit (V)
SEQUENCER	TOGGLE	TRUE	Run as Sequence
PSTATMODEL	IQUANT	5	Pstat Model
PSTATSECTION	LABEL	REF3000-16137	Pstat Section
PSTATSERIALNO	LABEL	16137	Pstat Serial Number
CTRLMODE	IQUANT	1	Control Mode
IESTAB	IQUANT	0	I/E Stability
CASPEED	IQUANT	1	Control Amp Speed
CONVENTION	IQUANT	1	Current Convention
ICHRANGE	IQUANT	2	Ich Range
ICHRANGEMODE	TOGGLE	F	Ich Auto Range
ICHOFFSETENABLE	TOGGLE	T	Ich Offset Enable
ICHOFFSET	QUANT	0	Ich Offset (V)
ICHFILTER	IQUANT	3	Ich Filter
VCHRANGE	IQUANT	2	Vch Range
VCHRANGEMODE	TOGGLE	F	Vch Auto Range
VCHOFFSETENABLE	TOGGLE	T	Vch Offset Enable
VCHOFFSET	QUANT	0	Vch Offset (V)
VCHFILTER	IQUANT	3	Vch Filter
ACHRANGE	IQUANT	2	Ach Range
ACHOFFSETENABLE	TOGGLE	F	Ach Offset Enable
ACHOFFSET	QUANT	0	Ach Offset (V)
ACHFILTER	IQUANT	3	Ach Filter
IERANGELOWERLIMIT	IQUANT	2	I/E Range Lower Limit
IERANGEMODE	TOGGLE	F	I/E AutoRange
IERANGE	IQUANT	11	I/E Range
POSFEEDENABLE	TOGGLE	F	Positive Feedback IR Comp
POSFEEDRESISTANCE	QUANT	0	Positive Feedback Resistance (ohm)
ACHSELECT	IQUANT	0	Ach Select
CABLEID	IQUANT	13	Cable ID
DCCALDATE	LABEL	7/31/2020	DC Calibration Date
ACCALDATE	LABEL	7/31/2020	AC Calibration Date
THERMOSELECT	IQUANT	1	Thermo Select
FRAMEWORKVERSION	QUANT	6.33	Framework Version
INSTRUMENTVERSION	LABEL	3.50	Instrument Version
COMPLIANCEVOLTAGE	IQUANT	0	Compliance Voltage
ZCURVE	TABLE
	Pt	Time	Freq	Zreal	Zimag	Zsig	Zmod	Zphz	Idc	Vdc	IERange
	#	s	Hz	ohm	ohm	V	ohm	°	A	V	#
	0	7	300046.9	75.53294	1.300641	1	75.54414	0.986509	-9.715935E-006	0.0006418	9
	1	10	238359.4	76.12709	0.9493814	1	76.13301	0.7144989	6.652664E-005	-0.0023409	9
	2	13	189328.1	76.57428	0.6179737	1	76.57677	0.4623814	4.257092E-005	-0.0005322	9
	3	15	150421.9	77.05328	0.4025935	1	77.05433	0.2993604	-2.82827E-005	-0.0002603	9
	4	18	119484.4	77.43157	0.240897	1	77.43195	0.1782521	1.869731E-005	-0.0003734	9
	5	21	94921.88	77.9137	0.3837086	1	77.91465	0.2821674	-2.430857E-006	-0.0002364	9
	6	23	75421.88	78.25464	0.1977808	1	78.25489	0.144809	2.103207E-005	-0.0006759	9
	7	26	59859.37	78.67303	0.0122637	1	78.67303	0.0089314	1.147434E-005	-0.0005975	9
	8	28	47578.12	79.06664	-0.1077464	1	79.06671	-0.0780786	-3.983544E-006	0.0006436	9
	9	31	37828.12	79.55074	-0.2063291	1	79.55101	-0.1486065	-1.467861E-005	0.0002106	9
	10	33	30046.88	79.90094	-0.2929769	1	79.90147	-0.2100885	1.704299E-005	-0.0001379	9
	11	36	23859.38	80.32298	-0.4142296	1	80.32405	-0.2954745	-1.573513E-005	0.0003996	9
	12	38	18984.38	80.70589	-0.5287541	1	80.70763	-0.3753746	-1.479856E-005	0.0006737	9
	13	40	15046.87	81.08556	-0.6372311	1	81.08806	-0.4502639	-1.154898E-005	0.0007334	9
	14	43	11953.13	81.5111	-0.7747962	1	81.51479	-0.5446033	4.702119E-006	-0.0004171	9
	15	45	9515.62	81.8756	-0.989671	1	81.88158	-0.6925288	1.139454E-005	-0.0005604	9
	16	47	7546.875	82.26649	-1.323254	1	82.27713	-0.9215218	2.051568E-005	-0.0002627	9
	17	50	5928.309	82.68892	-1.543891	1	82.70333	-1.069649	-9.23542E-006	4.001306E-005	9
	18	52	4733.456	83.15888	-1.919486	1	83.18103	-1.322275	-1.602167E-005	0.0007988	9
	19	54	3796.875	83.6025	-2.372782	1	83.63617	-1.625716	1.639453E-005	-0.0005909	9
	20	57	2987.132	83.99889	-2.974128	1	84.05152	-2.027811	2.248263E-005	-0.0003882	9
	21	59	2390.625	84.47983	-3.631732	1	84.55785	-2.461592	2.062621E-005	-0.000249	9
	22	61	1884.191	84.88729	-4.485019	1	85.00569	-3.02441	-1.904252E-005	0.0006299	9
	23	64	1516.544	85.46392	-5.498317	1	85.6406	-3.681048	1.787581E-005	-8.90632E-005	9
	24	66	1193.986	86.00159	-6.857013	1	86.27452	-4.558619	-1.916573E-005	0.0006342	9
	25	68	946.5144	86.63019	-8.526808	1	87.04881	-5.621384	-5.704928E-006	0.0006447	9
	26	71	751.7689	87.18291	-10.55531	1	87.81956	-6.903253	-2.735514E-006	-0.0001947	9
	27	73	597.4265	87.86939	-13.13337	1	88.84546	-8.500769	2.110211E-005	-0.0005976	9
	28	75	477.4305	88.57155	-16.17762	1	90.03685	-10.35099	1.322533E-006	8.710787E-005	9
	29	78	376.6741	89.40937	-20.18804	1	91.6602	-12.72364	1.338935E-006	8.701243E-005	9
	30	80	298.2954	90.34592	-25.11384	1	93.77148	-15.53456	1.282433E-006	0.0000967	9
	31	82	237.7717	91.42799	-31.05456	1	96.5581	-18.76064	1.277232E-006	8.899788E-005	9
	32	85	189.0121	92.69298	-38.49223	1	100.3675	-22.55145	1.335108E-006	8.917515E-005	9
	33	87	150.2404	94.20074	-47.70472	1	105.5913	-26.85836	1.249013E-006	0.0000951	9
	34	90	119.1737	96.0252	-59.21706	1	112.8162	-31.66142	1.353464E-006	0.0001	9
	35	92	95.0169	98.2151	-73.12893	1	122.4502	-36.6706	1.341177E-006	9.282631E-005	9
	36	94	75.60484	100.9493	-90.42607	1	135.5272	-41.85263	1.282006E-006	9.282142E-005	9
	37	97	54.50582	105.8464	-122.3876	1	161.8091	-49.14526	1.299857E-006	9.078648E-005	9
	38	99	45.95588	109.3162	-143.2724	1	180.2138	-52.65652	1.374186E-006	8.568886E-005	9
	39	102	37.20238	114.3588	-173.9672	1	208.1887	-56.68075	1.413127E-006	8.548358E-005	9
	40	104	30.04808	120.6367	-211.5791	1	243.5548	-60.30937	1.360072E-006	9.059747E-005	9
	41	107	23.91582	128.9381	-260.5703	1	290.7265	-63.67239	1.396393E-006	7.969658E-005	9
	42	109	18.60119	140.3683	-327.3904	1	356.2131	-66.79282	1.404454E-006	8.147009E-005	9
	43	111	15.02404	152.0407	-395.5728	1	423.7856	-68.97544	2.318516E-007	0.0006537	8
	44	114	12.01923	167.6194	-483.8947	1	512.1038	-70.8941	2.064378E-007	0.0006703	8
	45	116	9.450605	188.5532	-601.0333	1	629.9153	-72.58257	3.433116E-007	0.000665	8
	46	119	7.512019	213.7848	-738.7553	1	769.0665	-73.86034	3.670044E-007	0.0006745	8
	47	121	5.978954	244.6841	-906.8472	1	939.2774	-74.90012	3.414724E-007	0.0006621	8
	48	124	4.734848	284.3968	-1118.868	1	1154.446	-75.73843	2.600813E-007	0.0006425	8
	49	128	3.75601	335.0794	-1376.03	1	1416.24	-76.31417	3.307899E-007	0.0006834	8
	50	131	3.004808	396.7353	-1678.345	1	1724.599	-76.70029	3.137279E-007	0.0006557	8
	51	135	2.372217	482.7325	-2071.712	1	2127.209	-76.88347	2.885348E-007	0.0005931	8
	52	139	1.878005	584.7974	-2550.271	1	2616.461	-77.0849	3.290005E-007	0.00067	8
	53	144	1.512097	704.1296	-3080.817	1	3160.258	-77.12601	2.955889E-007	0.0006729	8
	54	149	1.201923	870.2378	-3778.629	1	3877.544	-77.03063	3.200498E-007	0.0006863	8
	55	155	0.956633	1076.748	-4618.253	1	4742.114	-76.87592	6.955126E-009	-2.290512E-006	7
