EXPLAIN
TAG	EISPOT
TITLE	LABEL	Potentiostatic EIS	Test Identifier
DATE	LABEL	2/24/2021	Date
TIME	LABEL	15:36:52	Time
NOTES	NOTES	1	Notes...
	
PSTAT	PSTAT	REF3000-16137	Potentiostat
VDC	POTEN	0.00000E+000	T	DC Voltage (V)
FREQINIT	QUANT	3.00000E+005	Initial Freq. (Hz)
FREQFINAL	QUANT	1.00000E+000	Final Freq. (Hz)
PTSPERDEC	QUANT	1.00000E+001	Points/decade
VAC	QUANT	5.00000E+001	AC Voltage (mV rms)
AREA	QUANT	1.00000E+000	Sample Area (cm^2)
SPEED	SELECTOR	2	Optimize for:
ZGUESS	QUANT	1.00000E+003	Estimated Z (ohms)
EOC	QUANT	0	Open Circuit (V)
SEQUENCER	TOGGLE	TRUE	Run as Sequence
PSTATMODEL	IQUANT	5	Pstat Model
PSTATSECTION	LABEL	REF3000-16137	Pstat Section
PSTATSERIALNO	LABEL	16137	Pstat Serial Number
CTRLMODE	IQUANT	1	Control Mode
IESTAB	IQUANT	0	I/E Stability
CASPEED	IQUANT	1	Control Amp Speed
CONVENTION	IQUANT	1	Current Convention
ICHRANGE	IQUANT	2	Ich Range
ICHRANGEMODE	TOGGLE	F	Ich Auto Range
ICHOFFSETENABLE	TOGGLE	T	Ich Offset Enable
ICHOFFSET	QUANT	0	Ich Offset (V)
ICHFILTER	IQUANT	3	Ich Filter
VCHRANGE	IQUANT	2	Vch Range
VCHRANGEMODE	TOGGLE	F	Vch Auto Range
VCHOFFSETENABLE	TOGGLE	T	Vch Offset Enable
VCHOFFSET	QUANT	0	Vch Offset (V)
VCHFILTER	IQUANT	3	Vch Filter
ACHRANGE	IQUANT	2	Ach Range
ACHOFFSETENABLE	TOGGLE	F	Ach Offset Enable
ACHOFFSET	QUANT	0	Ach Offset (V)
ACHFILTER	IQUANT	3	Ach Filter
IERANGELOWERLIMIT	IQUANT	2	I/E Range Lower Limit
IERANGEMODE	TOGGLE	F	I/E AutoRange
IERANGE	IQUANT	11	I/E Range
POSFEEDENABLE	TOGGLE	F	Positive Feedback IR Comp
POSFEEDRESISTANCE	QUANT	0	Positive Feedback Resistance (ohm)
ACHSELECT	IQUANT	0	Ach Select
CABLEID	IQUANT	13	Cable ID
DCCALDATE	LABEL	7/31/2020	DC Calibration Date
ACCALDATE	LABEL	7/31/2020	AC Calibration Date
THERMOSELECT	IQUANT	1	Thermo Select
FRAMEWORKVERSION	QUANT	6.33	Framework Version
INSTRUMENTVERSION	LABEL	3.50	Instrument Version
COMPLIANCEVOLTAGE	IQUANT	0	Compliance Voltage
ZCURVE	TABLE
	Pt	Time	Freq	Zreal	Zimag	Zsig	Zmod	Zphz	Idc	Vdc	IERange
	#	s	Hz	ohm	ohm	V	ohm	°	A	V	#
	0	8	300046.9	9.353563	2.185831	1	9.60557	13.15338	-4.657523E-005	0.0002175	10
	1	11	238359.4	9.347764	1.722167	1	9.50508	10.43873	-1.323338E-005	0.0002057	10
	2	14	189328.1	9.350536	1.354404	1	9.448118	8.24184	1.014247E-005	0.0003248	10
	3	16	150421.9	9.354084	1.062262	1	9.414207	6.478827	-0.0001009	0.0004245	10
	4	19	119484.4	9.38469	0.8205097	1	9.420491	4.996702	-7.780072E-005	0.0006939	10
	5	22	94921.88	9.402955	0.6441567	1	9.424994	3.918969	2.668824E-005	0.000608	10
	6	24	75421.88	9.423516	0.4670346	1	9.435082	2.837289	5.022474E-006	0.0005807	10
	7	27	59859.37	9.446895	0.3133232	1	9.452089	1.899621	2.124611E-005	0.0006103	10
	8	29	47578.12	9.476579	0.1838843	1	9.478363	1.111632	1.798506E-005	0.0006839	10
	9	32	37828.12	9.50573	0.0676751	1	9.50597	0.4079046	-2.032276E-005	0.0007355	10
	10	34	30046.88	9.53483	-0.0424476	1	9.53492	-0.2550706	-2.000797E-005	0.0006625	10
	11	37	23859.38	9.565	-0.1533379	1	9.56623	-0.9184387	2.297682E-005	0.0006989	10
	12	39	18984.38	9.59523	-0.2691824	1	9.59901	-1.606941	-1.31874E-005	0.0006637	10
	13	41	15046.87	9.62763	-0.3978872	1	9.63584	-2.366553	5.106394E-006	0.0006535	10
	14	44	11953.13	9.66324	-0.5423001	1	9.67845	-3.212064	1.685701E-005	0.0007171	10
	15	46	9515.62	9.70149	-0.7112734	1	9.72753	-4.193191	-1.81722E-005	0.0007469	10
	16	48	7546.875	9.74217	-0.9147038	1	9.78501	-5.363846	-2.025849E-006	0.0006718	10
	17	50	5928.309	9.78991	-1.174237	1	9.86008	-6.839584	2.061296E-005	0.000686	10
	18	53	4733.456	9.84204	-1.468735	1	9.95102	-8.487659	-2.136646E-005	0.0007151	10
	19	55	3796.875	9.90033	-1.820835	1	10.06638	-10.42118	-2.366317E-005	0.0007408	10
	20	57	2987.132	9.96979	-2.294359	1	10.23039	-12.9599	4.70249E-006	0.0006952	10
	21	60	2390.625	10.04924	-2.836486	1	10.44189	-15.76218	-1.83402E-005	0.000745	10
	22	62	1884.191	10.14679	-3.555618	1	10.75173	-19.31138	4.536822E-006	0.0006542	10
	23	64	1516.544	10.25716	-4.364866	1	11.14726	-23.05185	-2.580292E-005	0.000715	10
	24	67	1193.986	10.40353	-5.467709	1	11.75285	-27.72474	-2.144963E-005	0.0007201	10
	25	69	946.5144	10.57947	-6.799118	1	12.5759	-32.72767	2.358869E-006	0.0006732	10
	26	71	751.7689	10.80009	-8.434209	1	13.70321	-37.98765	1.542587E-005	0.0006909	10
	27	74	597.4265	11.07895	-10.44984	1	15.22965	-43.32619	-2.527949E-005	0.0006919	10
	28	76	477.4305	11.42216	-12.87272	1	17.20967	-48.41687	-2.215289E-006	0.0006839	10
	29	78	376.6741	11.88244	-16.03398	1	19.95698	-53.45865	-1.889832E-006	0.0006837	10
	30	81	298.2954	12.46121	-19.88639	1	23.46807	-57.92792	-2.026155E-006	0.0006903	10
	31	83	237.7717	13.17468	-24.49184	1	27.81048	-61.72325	-2.251464E-006	0.0006853	10
	32	85	189.0121	14.08703	-30.22113	1	33.34309	-65.00828	-1.895574E-006	0.0006893	10
	33	88	150.2404	15.22892	-37.25468	1	40.24713	-67.7663	-2.257149E-006	0.0006911	10
	34	90	119.1737	16.6521	-45.92744	1	48.85307	-70.07066	1.299072E-006	8.756359E-005	9
	35	93	95.0169	18.41652	-56.39184	1	59.32291	-71.91393	1.341119E-006	8.851261E-005	9
	36	95	75.60484	20.64161	-69.34143	1	72.34853	-73.42274	1.189901E-006	9.135298E-005	9
	37	98	54.50582	24.84259	-93.15207	1	96.4078	-75.06741	1.198398E-006	8.371602E-005	9
	38	100	45.95588	27.67003	-108.6385	1	112.1069	-75.71069	1.456209E-006	0.0000952	9
	39	102	37.20238	31.92507	-131.3457	1	135.17	-76.33854	1.134537E-006	0.0000988	9
	40	105	30.04808	37.32274	-159.0606	1	163.3807	-76.79474	1.227467E-006	9.145663E-005	9
	41	107	23.91582	44.63701	-195.0586	1	200.1007	-77.11043	1.295675E-006	8.91185E-005	9
	42	110	18.60119	54.9134	-243.7095	1	249.8196	-77.30199	1.08796E-006	9.283712E-005	9
	43	112	15.02404	66.20676	-294.2677	1	301.6236	-77.32026	1.422865E-006	0.0001039	9
	44	114	12.01923	80.82997	-357.7733	1	366.7904	-77.26917	1.326688E-006	9.042797E-005	9
	45	117	9.450605	100.5401	-439.1066	1	450.4696	-77.10355	5.47377E-007	0.0006694	8
	46	119	7.512019	124.4699	-534.9791	1	549.2681	-76.9024	5.336836E-007	0.0006665	8
	47	122	5.978954	153.284	-649.8107	1	667.6451	-76.72712	6.158944E-007	0.0006684	8
	48	125	4.734848	188.9787	-791.967	1	814.2019	-76.57909	5.84557E-007	0.0006455	8
	49	128	3.75601	231.9886	-962.151	1	989.724	-76.4439	7.116493E-007	0.0006738	8
	50	134	3.004808	280.3109	-1161.216	1	1194.57	-76.42876	6.670629E-007	0.0006498	8
	51	137	2.372217	341.0118	-1415.502	1	1456	-76.45486	6.543717E-007	0.0006645	8
	52	141	1.878005	413.8195	-1728.202	1	1777.056	-76.53402	6.200333E-007	0.0006755	8
	53	146	1.512097	491.1052	-2079.906	1	2137.099	-76.71471	6.335238E-007	0.0005661	8
	54	152	1.201923	589.7815	-2534.972	1	2602.676	-76.90268	6.178822E-007	0.0006862	8
	55	158	0.956633	705.5914	-3089.496	1	3169.045	-77.13521	6.14352E-007	2.875872E-005	8
