EXPLAIN
TAG	EISPOT
TITLE	LABEL	Potentiostatic EIS	Test Identifier
DATE	LABEL	2/24/2021	Date
TIME	LABEL	15:53:30	Time
NOTES	NOTES	1	Notes...
	
PSTAT	PSTAT	REF3000-16137	Potentiostat
VDC	POTEN	0.00000E+000	T	DC Voltage (V)
FREQINIT	QUANT	3.00000E+005	Initial Freq. (Hz)
FREQFINAL	QUANT	1.00000E+000	Final Freq. (Hz)
PTSPERDEC	QUANT	1.00000E+001	Points/decade
VAC	QUANT	5.00000E+001	AC Voltage (mV rms)
AREA	QUANT	1.00000E+000	Sample Area (cm^2)
SPEED	SELECTOR	2	Optimize for:
ZGUESS	QUANT	1.00000E+003	Estimated Z (ohms)
EOC	QUANT	0	Open Circuit (V)
SEQUENCER	TOGGLE	TRUE	Run as Sequence
PSTATMODEL	IQUANT	5	Pstat Model
PSTATSECTION	LABEL	REF3000-16137	Pstat Section
PSTATSERIALNO	LABEL	16137	Pstat Serial Number
CTRLMODE	IQUANT	1	Control Mode
IESTAB	IQUANT	0	I/E Stability
CASPEED	IQUANT	1	Control Amp Speed
CONVENTION	IQUANT	1	Current Convention
ICHRANGE	IQUANT	2	Ich Range
ICHRANGEMODE	TOGGLE	F	Ich Auto Range
ICHOFFSETENABLE	TOGGLE	T	Ich Offset Enable
ICHOFFSET	QUANT	0	Ich Offset (V)
ICHFILTER	IQUANT	3	Ich Filter
VCHRANGE	IQUANT	2	Vch Range
VCHRANGEMODE	TOGGLE	F	Vch Auto Range
VCHOFFSETENABLE	TOGGLE	T	Vch Offset Enable
VCHOFFSET	QUANT	0	Vch Offset (V)
VCHFILTER	IQUANT	3	Vch Filter
ACHRANGE	IQUANT	2	Ach Range
ACHOFFSETENABLE	TOGGLE	F	Ach Offset Enable
ACHOFFSET	QUANT	0	Ach Offset (V)
ACHFILTER	IQUANT	3	Ach Filter
IERANGELOWERLIMIT	IQUANT	2	I/E Range Lower Limit
IERANGEMODE	TOGGLE	F	I/E AutoRange
IERANGE	IQUANT	11	I/E Range
POSFEEDENABLE	TOGGLE	F	Positive Feedback IR Comp
POSFEEDRESISTANCE	QUANT	0	Positive Feedback Resistance (ohm)
ACHSELECT	IQUANT	0	Ach Select
CABLEID	IQUANT	13	Cable ID
DCCALDATE	LABEL	7/31/2020	DC Calibration Date
ACCALDATE	LABEL	7/31/2020	AC Calibration Date
THERMOSELECT	IQUANT	1	Thermo Select
FRAMEWORKVERSION	QUANT	6.33	Framework Version
INSTRUMENTVERSION	LABEL	3.50	Instrument Version
COMPLIANCEVOLTAGE	IQUANT	0	Compliance Voltage
ZCURVE	TABLE
	Pt	Time	Freq	Zreal	Zimag	Zsig	Zmod	Zphz	Idc	Vdc	IERange
	#	s	Hz	ohm	ohm	V	ohm	°	A	V	#
	0	7	300046.9	32.29863	1.16361	1	32.31958	2.063281	-4.662584E-005	-0.0001842	11
	1	11	238359.4	32.47359	1.273867	1	32.49856	2.246435	-1.642853E-005	0.0004825	10
	2	14	189328.1	32.61354	0.987973	1	32.6285	1.735149	8.522569E-006	0.0004424	10
	3	17	150421.9	32.74284	0.7884058	1	32.75233	1.379343	-5.253586E-005	0.0007047	10
	4	19	119484.4	32.88441	0.5809488	1	32.88955	1.012104	4.249109E-005	0.0007666	10
	5	22	94921.88	33.01592	0.4224265	1	33.01862	0.7330383	1.446814E-005	0.0006398	10
	6	24	75421.88	33.16507	0.2807679	1	33.16626	0.4850414	2.317939E-005	0.0006137	10
	7	27	59859.37	33.29994	0.1578708	1	33.30031	0.2716301	2.475566E-005	0.000661	10
	8	29	47578.12	33.44709	0.0520131	1	33.44713	0.0890999	2.123231E-005	0.0006058	10
	9	32	37828.12	33.57138	-0.0559915	1	33.57142	-0.0955599	1.668974E-005	0.0007192	10
	10	35	30046.88	33.73025	-0.159149	1	33.73063	-0.2703359	-1.559728E-005	0.0007511	10
	11	37	23859.38	33.87357	-0.2664765	1	33.87461	-0.450725	-1.984146E-005	0.0006888	10
	12	39	18984.38	34.0085	-0.3874598	1	34.0107	-0.6527443	-2.783644E-005	0.0006735	10
	13	42	15046.87	34.14794	-0.5427771	1	34.15225	-0.9106323	-3.003728E-005	0.0007336	10
	14	44	11953.13	34.27979	-0.6802797	1	34.28654	-1.136881	-9.833116E-007	0.0007407	10
	15	46	9515.62	34.43717	-0.8652533	1	34.44804	-1.439286	6.026048E-006	0.0006281	10
	16	49	7546.875	34.57566	-1.084707	1	34.59267	-1.796893	6.725602E-006	0.0006664	10
	17	51	5928.309	34.74238	-1.386962	1	34.77005	-2.286111	2.553438E-005	0.0006736	10
	18	53	4733.456	34.90029	-1.731751	1	34.94323	-2.840684	-2.827867E-005	0.0007021	10
	19	56	3796.875	35.07437	-2.122278	1	35.13852	-3.462629	2.340464E-005	0.0006415	10
	20	58	2987.132	35.26308	-2.656062	1	35.36296	-4.30746	2.546634E-005	0.0006731	10
	21	60	2390.625	35.41574	-3.272489	1	35.56661	-5.279259	1.554307E-005	-0.0001875	9
	22	63	1884.191	35.64539	-4.079563	1	35.87807	-6.529012	1.255261E-005	-0.0003942	9
	23	65	1516.544	35.86311	-5.02144	1	36.21295	-7.970556	1.516591E-005	-0.0003972	9
	24	67	1193.986	36.12102	-6.278262	1	36.66258	-9.86018	1.427912E-005	-8.874779E-005	9
	25	70	946.5144	36.4188	-7.799057	1	37.24453	-12.08728	-1.192673E-005	0.0003692	9
	26	72	751.7689	36.751	-9.68616	1	38.00602	-14.7652	-2.691289E-006	0.0004375	9
	27	74	597.4265	37.12857	-12.00045	1	39.01976	-17.91152	-1.377274E-005	0.0004198	9
	28	77	477.4305	37.5771	-14.82427	1	40.39552	-21.52937	1.241892E-006	9.391345E-005	9
	29	79	376.6741	38.13103	-18.50715	1	42.38503	-25.88993	1.257348E-006	8.880932E-005	9
	30	81	298.2954	38.7966	-23.01801	1	45.11103	-30.68065	1.297971E-006	9.481639E-005	9
	31	84	237.7717	39.59941	-28.44423	1	48.75641	-35.68966	1.321191E-006	8.857968E-005	9
	32	86	189.0121	40.60558	-35.22072	1	53.75232	-40.93792	1.281306E-006	8.898936E-005	9
	33	88	150.2404	41.86303	-43.58659	1	60.4343	-46.15552	1.350374E-006	8.502451E-005	9
	34	91	119.1737	43.45635	-54.00954	1	69.3216	-51.17967	1.246347E-006	9.260267E-005	9
	35	93	95.0169	45.41836	-66.55096	1	80.57207	-55.68803	1.335259E-006	8.651461E-005	9
	36	96	75.60484	47.91045	-82.0958	1	95.0533	-59.73251	1.347233E-006	8.726661E-005	9
	37	98	54.50582	52.55207	-110.6887	1	122.5304	-64.60287	1.354636E-006	8.632374E-005	9
	38	101	45.95588	55.70422	-129.3001	1	140.7888	-66.69298	1.326532E-006	9.292313E-005	9
	39	103	37.20238	60.34888	-156.6165	1	167.8413	-68.92687	1.332372E-006	9.27981E-005	9
	40	105	30.04808	66.09496	-190.0271	1	201.1935	-70.82137	1.321533E-006	9.19845E-005	9
	41	108	23.91582	73.67129	-233.5275	1	244.8725	-72.491	1.194435E-006	8.921204E-005	9
	42	110	18.60119	84.13886	-293.0378	1	304.8778	-73.97984	1.254701E-006	9.084489E-005	9
	43	113	15.02404	95.3474	-355.0605	1	367.6398	-74.96851	1.307522E-006	9.460775E-005	9
	44	115	12.01923	109.5749	-432.1999	1	445.8737	-75.77365	4.024238E-007	0.0006709	8
	45	117	9.450605	129.5502	-536.2256	1	551.6531	-76.41782	5.116285E-007	0.0006836	8
	46	120	7.512019	153.8765	-658.3854	1	676.1282	-76.84508	5.583889E-007	0.0006909	8
	47	123	5.978954	184.5169	-806.8733	1	827.7022	-77.11901	5.270154E-007	0.0006711	8
	48	126	4.734848	224.9032	-992.102	1	1017.275	-77.22729	5.138777E-007	0.0007049	8
	49	129	3.75601	275.3759	-1216.597	1	1247.373	-77.24605	4.416455E-007	0.0006595	8
	50	132	3.004808	336.7921	-1477.865	1	1515.755	-77.16206	4.879431E-007	0.0006796	8
	51	136	2.372217	421.2316	-1813.21	1	1861.496	-76.92146	4.891209E-007	0.0007348	8
	52	140	1.878005	520.5136	-2219.96	1	2280.166	-76.80424	4.58522E-007	0.0006496	8
	53	145	1.512097	632.8066	-2664.609	1	2738.719	-76.64056	5.015943E-007	0.000661	8
	54	150	1.201923	781.3542	-3247.463	1	3340.139	-76.47152	4.805821E-007	0.0006419	8
	55	157	0.956633	955.641	-3939.283	1	4053.542	-76.36389	4.727171E-007	2.016485E-005	8
