EXPLAIN
TAG	EISPOT
TITLE	LABEL	Potentiostatic EIS	Test Identifier
DATE	LABEL	2/24/2021	Date
TIME	LABEL	16:44:45	Time
NOTES	NOTES	1	Notes...
	
PSTAT	PSTAT	REF3000-16137	Potentiostat
VDC	POTEN	0.00000E+000	T	DC Voltage (V)
FREQINIT	QUANT	3.00000E+005	Initial Freq. (Hz)
FREQFINAL	QUANT	1.00000E+000	Final Freq. (Hz)
PTSPERDEC	QUANT	1.00000E+001	Points/decade
VAC	QUANT	5.00000E+001	AC Voltage (mV rms)
AREA	QUANT	1.00000E+000	Sample Area (cm^2)
SPEED	SELECTOR	2	Optimize for:
ZGUESS	QUANT	1.00000E+003	Estimated Z (ohms)
EOC	QUANT	0	Open Circuit (V)
SEQUENCER	TOGGLE	TRUE	Run as Sequence
PSTATMODEL	IQUANT	5	Pstat Model
PSTATSECTION	LABEL	REF3000-16137	Pstat Section
PSTATSERIALNO	LABEL	16137	Pstat Serial Number
CTRLMODE	IQUANT	1	Control Mode
IESTAB	IQUANT	0	I/E Stability
CASPEED	IQUANT	1	Control Amp Speed
CONVENTION	IQUANT	1	Current Convention
ICHRANGE	IQUANT	2	Ich Range
ICHRANGEMODE	TOGGLE	F	Ich Auto Range
ICHOFFSETENABLE	TOGGLE	T	Ich Offset Enable
ICHOFFSET	QUANT	0	Ich Offset (V)
ICHFILTER	IQUANT	3	Ich Filter
VCHRANGE	IQUANT	2	Vch Range
VCHRANGEMODE	TOGGLE	F	Vch Auto Range
VCHOFFSETENABLE	TOGGLE	T	Vch Offset Enable
VCHOFFSET	QUANT	0	Vch Offset (V)
VCHFILTER	IQUANT	3	Vch Filter
ACHRANGE	IQUANT	2	Ach Range
ACHOFFSETENABLE	TOGGLE	F	Ach Offset Enable
ACHOFFSET	QUANT	0	Ach Offset (V)
ACHFILTER	IQUANT	3	Ach Filter
IERANGELOWERLIMIT	IQUANT	2	I/E Range Lower Limit
IERANGEMODE	TOGGLE	F	I/E AutoRange
IERANGE	IQUANT	11	I/E Range
POSFEEDENABLE	TOGGLE	F	Positive Feedback IR Comp
POSFEEDRESISTANCE	QUANT	0	Positive Feedback Resistance (ohm)
ACHSELECT	IQUANT	0	Ach Select
CABLEID	IQUANT	13	Cable ID
DCCALDATE	LABEL	7/31/2020	DC Calibration Date
ACCALDATE	LABEL	7/31/2020	AC Calibration Date
THERMOSELECT	IQUANT	1	Thermo Select
FRAMEWORKVERSION	QUANT	6.33	Framework Version
INSTRUMENTVERSION	LABEL	3.50	Instrument Version
COMPLIANCEVOLTAGE	IQUANT	0	Compliance Voltage
ZCURVE	TABLE
	Pt	Time	Freq	Zreal	Zimag	Zsig	Zmod	Zphz	Idc	Vdc	IERange
	#	s	Hz	ohm	ohm	V	ohm	°	A	V	#
	0	22	300046.9	20.99978	-4274.774	1	4274.826	-89.71854	2.661237E-005	-0.0016436	9
	1	36	238359.4	143.9893	-5316.018	1	5317.967	-88.44847	1.830355E-005	-0.0008786	9
	2	57	189328.1	148.7693	-7240.627	1	7242.155	-88.82294	8.415683E-005	-0.0033616	9
	3	65	150421.9	772.2889	-8157.116	1	8193.594	-84.59155	-9.030318E-005	0.0022536	9
	4	73	119484.4	87.94917	-10288.98	1	10289.35	-89.51025	-5.860493E-005	0.0005536	9
	5	82	94921.88	1082.827	-12867.07	1	12912.55	-85.18961	-2.451914E-005	0.011103	8
	6	90	75421.88	1282.313	-15744	1	15796.13	-85.34367	-2.639034E-005	0.0096356	8
	7	98	59859.37	1288.557	-19893.92	1	19935.61	-86.29405	-1.365825E-006	-0.004918	8
	8	107	47578.12	4575.848	-26154.11	1	26551.38	-80.07614	-6.633421E-006	0.0124329	7
	9	113	37828.12	5066.973	-32006.4	1	32405	-81.00409	-6.304153E-006	0.0254341	7
	10	120	30046.88	5788.757	-39760.15	1	40179.34	-81.7164	-6.367413E-006	0.0255993	7
	11	128	23859.38	2600.377	-48797.94	1	48867.17	-86.94967	1.62378E-005	-0.0092061	8
	12	134	18984.38	7915.649	-61646.49	1	62152.61	-82.68304	-6.336711E-006	0.0254717	7
	13	140	15046.87	9829.42	-77659.52	1	78279.1	-82.78639	-6.224658E-006	0.0249198	7
	14	145	11953.13	11147.03	-97637.9	1	98272.1	-83.48691	-6.241855E-006	0.0251274	7
	15	151	9515.62	14707.11	-120717.5	1	121610	-83.05384	-5.312188E-006	0.0041548	7
	16	157	7546.875	23265.2	-164793.4	1	166427.6	-81.96421	-1.148221E-005	0.010183	8
	17	164	5928.309	33921.07	-196241.2	1	199151.3	-80.1931	-5.326477E-006	0.0041592	7
	18	171	4733.456	39789.39	-217843.9	1	221447.8	-79.64897	1.154242E-006	-0.0191437	7
	19	176	3796.875	74670.38	-300434.2	1	309574.5	-76.04243	-5.417444E-007	0.0261497	6
	20	180	2987.132	29802.37	-236368.7	1	238240.1	-82.81383	-9.804091E-006	-0.001915	8
	21	188	2390.625	167361.2	-432401.3	1	463660.1	-68.84103	-1.219841E-006	-0.0128192	7
	22	196	1884.191	155838.1	-552764.6	1	574312	-74.25553	2.286597E-007	0.0096712	6
	23	201	1516.544	180934.5	-669336.4	1	693360.3	-74.87337	1.191402E-008	0.016567	6
	24	206	1193.986	272604.9	-844206.1	1	887128.7	-72.10407	-4.858169E-007	0.0018433	6
	25	212	946.5144	398845.1	-147126.2	1	425115.9	-20.24804	2.604025E-005	-0.0089563	8
	26	219	751.7689	-112879.2	-352625	1	370251.4	-107.7504	-2.389527E-005	0.0053525	8
	27	227	597.4265	-459683	-601990.8	1	757430.8	-127.3655	7.487195E-006	-0.018714	7
	28	233	477.4305	835652.4	-1808576	1	1992301	-65.20071	-6.031039E-008	0.0006032	7
	29	240	376.6741	1451673	-2040864	1	2504492	-54.57564	-8.015732E-010	0.0006145	5
	30	243	298.2954	1578950	-2390028	1	2864492	-56.54962	-6.396951E-009	0.0006349	6
	31	246	237.7717	2082726	-2671101	1	3387112	-52.05555	-6.362598E-009	0.0006343	6
	32	250	189.0121	2832546	-2763818	1	3957525	-44.29639	-6.530228E-010	0.0006198	5
	33	254	150.2404	3397774	-2923040	1	4482078	-40.70478	-8.172087E-010	0.0007039	5
	34	258	119.1737	3984476	-2757334	1	4845508	-34.68398	-7.006392E-010	0.0007087	5
	35	262	95.0169	4692701	-2950099	1	5542971	-32.15582	-8.330185E-010	0.0006774	5
	36	266	75.60484	5302613	-3012068	1	6098382	-29.59807	-8.802609E-010	0.0006845	5
	37	270	54.50582	6211614	-2626786	1	6744194	-22.92267	-7.578803E-010	0.0007116	5
	38	275	45.95588	7462082	-1623139	1	7636573	-12.27172	-1.060812E-010	0.0007212	4
	39	277	37.20238	7445250	-1681782	1	7632833	-12.72872	-3.842654E-011	0.0006465	4
	40	280	30.04808	7769519	-1348439	1	7885665	-9.84589	-9.858185E-011	0.0006849	4
	41	283	23.91582	8303774	-1097447	1	8375981	-7.528716	-1.966213E-010	0.0006432	4
	42	286	18.60119	7986254	-1211007	1	8077549	-8.622437	4.044154E-011	0.0006331	4
	43	288	15.02404	8563895	-883081.8	1	8609305	-5.887352	-7.345195E-011	0.0006974	4
	44	290	12.01923	8721731	-721761.1	1	8751544	-4.730695	-7.900614E-011	0.000682	4
	45	293	9.450605	8982252	-714780.3	1	9010647	-4.549836	-5.585551E-011	0.0006678	4
	46	296	7.512019	9205314	-606244.2	1	9225255	-3.767948	-1.066121E-010	0.0006412	4
	47	299	5.978954	9.513749E+006	-500467.5	1	9.526903E+006	-3.011249	-8.817894E-011	0.0006278	4
	48	303	4.734848	9.89539E+006	-438710.2	1	9.90511E+006	-2.538535	-8.686755E-011	0.000661	4
	49	308	3.75601	1.035072E+007	-332446.3	1	1.035605E+007	-1.839605	-6.617223E-011	0.0006442	4
	50	313	3.004808	1.086429E+007	-360254.5	1	1.087026E+007	-1.899204	-8.093292E-011	0.0006793	4
	51	320	2.372217	1.137988E+007	-319805.2	1	1.138438E+007	-1.609741	-8.760477E-011	0.0007378	4
	52	324	1.878005	1.182014E+007	-283734.4	1	1.182354E+007	-1.375082	-9.475056E-011	0.0006471	4
	53	329	1.512097	1.233359E+007	-260947.3	1	1.233635E+007	-1.212052	-8.576894E-011	0.0007589	4
	54	334	1.201923	1.296984E+007	-239570.1	1	1.297205E+007	-1.058209	-9.571638E-011	0.0006371	4
	55	340	0.956633	1.36791E+007	-237440.4	1	1.368116E+007	-0.994434	-1.363971E-010	2.479372E-005	4
