EXPLAIN
TAG	EISPOT
TITLE	LABEL	Potentiostatic EIS	Test Identifier
DATE	LABEL	2/24/2021	Date
TIME	LABEL	16:28:59	Time
NOTES	NOTES	1	Notes...
	
PSTAT	PSTAT	REF3000-16137	Potentiostat
VDC	POTEN	0.00000E+000	T	DC Voltage (V)
FREQINIT	QUANT	3.00000E+005	Initial Freq. (Hz)
FREQFINAL	QUANT	1.00000E+000	Final Freq. (Hz)
PTSPERDEC	QUANT	1.00000E+001	Points/decade
VAC	QUANT	5.00000E+001	AC Voltage (mV rms)
AREA	QUANT	1.00000E+000	Sample Area (cm^2)
SPEED	SELECTOR	2	Optimize for:
ZGUESS	QUANT	1.00000E+003	Estimated Z (ohms)
EOC	QUANT	0	Open Circuit (V)
SEQUENCER	TOGGLE	TRUE	Run as Sequence
PSTATMODEL	IQUANT	5	Pstat Model
PSTATSECTION	LABEL	REF3000-16137	Pstat Section
PSTATSERIALNO	LABEL	16137	Pstat Serial Number
CTRLMODE	IQUANT	1	Control Mode
IESTAB	IQUANT	0	I/E Stability
CASPEED	IQUANT	1	Control Amp Speed
CONVENTION	IQUANT	1	Current Convention
ICHRANGE	IQUANT	2	Ich Range
ICHRANGEMODE	TOGGLE	F	Ich Auto Range
ICHOFFSETENABLE	TOGGLE	T	Ich Offset Enable
ICHOFFSET	QUANT	0	Ich Offset (V)
ICHFILTER	IQUANT	3	Ich Filter
VCHRANGE	IQUANT	2	Vch Range
VCHRANGEMODE	TOGGLE	F	Vch Auto Range
VCHOFFSETENABLE	TOGGLE	T	Vch Offset Enable
VCHOFFSET	QUANT	0	Vch Offset (V)
VCHFILTER	IQUANT	3	Vch Filter
ACHRANGE	IQUANT	2	Ach Range
ACHOFFSETENABLE	TOGGLE	F	Ach Offset Enable
ACHOFFSET	QUANT	0	Ach Offset (V)
ACHFILTER	IQUANT	3	Ach Filter
IERANGELOWERLIMIT	IQUANT	2	I/E Range Lower Limit
IERANGEMODE	TOGGLE	F	I/E AutoRange
IERANGE	IQUANT	11	I/E Range
POSFEEDENABLE	TOGGLE	F	Positive Feedback IR Comp
POSFEEDRESISTANCE	QUANT	0	Positive Feedback Resistance (ohm)
ACHSELECT	IQUANT	0	Ach Select
CABLEID	IQUANT	13	Cable ID
DCCALDATE	LABEL	7/31/2020	DC Calibration Date
ACCALDATE	LABEL	7/31/2020	AC Calibration Date
THERMOSELECT	IQUANT	1	Thermo Select
FRAMEWORKVERSION	QUANT	6.33	Framework Version
INSTRUMENTVERSION	LABEL	3.50	Instrument Version
COMPLIANCEVOLTAGE	IQUANT	0	Compliance Voltage
ZCURVE	TABLE
	Pt	Time	Freq	Zreal	Zimag	Zsig	Zmod	Zphz	Idc	Vdc	IERange
	#	s	Hz	ohm	ohm	V	ohm	°	A	V	#
	0	27	300046.9	1511.776	-2863.203	1	3237.807	-62.16588	1.955544E-005	-0.0005149	9
	1	41	238359.4	1977.227	-3280.075	1	3829.925	-58.91845	-2.963563E-005	-0.001116	9
	2	54	189328.1	2188.196	-3877.868	1	4452.647	-60.56491	-9.030267E-005	0.0022231	9
	3	63	150421.9	3270.218	-4027.139	1	5187.694	-50.92186	-1.87652E-005	0.0011551	9
	4	71	119484.4	4354.761	-4192.792	1	6045.118	-43.91442	-7.403369E-005	0.034499	8
	5	78	94921.88	5266.045	-4490.702	1	6920.812	-40.45641	-1.029991E-005	0.009638	8
	6	85	75421.88	6271.116	-4649.912	1	7806.957	-36.55622	-1.603584E-005	0.0010047	8
	7	93	59859.37	7364.874	-4501.384	1	8631.56	-31.43312	-1.609877E-005	0.001039	8
	8	101	47578.12	8289.22	-4376.114	1	9373.448	-27.83084	2.529944E-005	-0.0087105	8
	9	109	37828.12	9255.104	-4312.755	1	10210.62	-24.98489	2.144378E-005	-0.0092737	8
	10	118	30046.88	10268.17	-3957.932	1	11004.57	-21.07947	2.658994E-005	-0.0072975	8
	11	126	23859.38	11121.87	-3747.95	1	11736.4	-18.62326	2.518165E-005	-0.0009048	9
	12	133	18984.38	11804.94	-3231.272	1	12239.19	-15.30816	-2.339403E-005	0.0053997	8
	13	139	15046.87	12378.66	-2846.632	1	12701.75	-12.95074	2.534875E-005	-0.0087122	8
	14	145	11953.13	13224.99	-2444.998	1	13449.1	-10.47441	-2.031502E-005	0.0031009	8
	15	151	9515.62	13562.42	-2032.972	1	13713.94	-8.52502	-2.549362E-005	0.0076868	8
	16	158	7546.875	14042.76	-2007.525	1	14185.53	-8.135769	7.157185E-006	-0.0070925	8
	17	163	5928.309	14629.5	-1344.986	1	14691.2	-5.252808	1.343769E-006	-0.0182328	7
	18	167	4733.456	15084.55	-1206.526	1	15132.72	-4.573022	-2.91651E-006	-0.0049848	7
	19	171	3796.875	15344.47	-962.646	1	15374.64	-3.589783	2.392293E-006	0.008176	7
	20	176	2987.132	15586.44	-737.9875	1	15603.9	-2.710819	6.89084E-006	-0.0164922	7
	21	180	2390.625	16047.16	-749.5845	1	16064.66	-2.674419	-9.105547E-007	-0.0124616	7
	22	184	1884.191	16371.51	-601.9308	1	16382.58	-2.105643	-6.074514E-006	0.0108621	7
	23	188	1516.544	16725.09	-600.3088	1	16735.86	-2.055619	3.287094E-007	0.015082	7
	24	193	1193.986	17080.53	-518.0057	1	17088.38	-1.737092	-8.468789E-007	-0.0122493	7
	25	197	946.5144	17310.75	-400.9047	1	17315.39	-1.326693	-3.528984E-006	0.0234384	7
	26	200	751.7689	17376.37	-191.6532	1	17377.43	-0.6319197	2.460968E-006	0.0079477	7
	27	202	597.4265	17827.68	-218.7461	1	17829.02	-0.7029855	-6.01678E-006	0.0236278	7
	28	205	477.4305	17907.55	-226.6915	1	17908.98	-0.725268	-6.777012E-008	0.0006342	7
	29	207	376.6741	18103.97	-200.1407	1	18105.08	-0.6333829	-6.669196E-008	0.0006205	7
	30	210	298.2954	18293.62	-176.8703	1	18294.47	-0.5539422	-6.498009E-008	0.0005926	7
	31	212	237.7717	18500.79	-169.0532	1	18501.56	-0.5235326	-6.762615E-008	0.0006695	7
	32	214	189.0121	18707.67	-164.5347	1	18708.39	-0.5039058	-7.562686E-008	0.0006602	7
	33	217	150.2404	18913.39	-161.2771	1	18914.08	-0.4885572	-7.20255E-008	0.0006848	7
	34	219	119.1737	19128.27	-167.5965	1	19129	-0.5019966	-6.356587E-008	0.0006864	7
	35	222	95.0169	19346.53	-186.1779	1	19347.42	-0.5513588	-7.497743E-008	0.0006692	7
	36	224	75.60484	19576.79	-207.8782	1	19577.9	-0.6083783	-6.033001E-008	0.000685	7
	37	227	54.50582	19797.5	-245.9384	1	19799.03	-0.7117314	-5.862622E-008	0.0006559	7
	38	229	45.95588	20040.36	-280.8168	1	20042.33	-0.802808	-8.034169E-008	0.0006411	7
	39	232	37.20238	20263.34	-334.7817	1	20266.1	-0.9465289	-8.190541E-008	0.0006263	7
	40	234	30.04808	20496.02	-389.8178	1	20499.72	-1.089589	-5.091859E-008	0.0006315	7
	41	236	23.91582	20725.09	-476.886	1	20730.58	-1.318148	-5.274926E-008	0.0006392	7
	42	239	18.60119	20965.08	-582.3409	1	20973.17	-1.591079	-3.484704E-008	0.0006401	7
	43	241	15.02404	21214.75	-691.7167	1	21226.03	-1.867494	-1.193228E-007	0.0006703	7
	44	243	12.01923	21438.81	-844.5986	1	21455.44	-2.256045	-1.977616E-008	0.0006676	7
	45	246	9.450605	21692.97	-1078.709	1	21719.78	-2.846755	-1.217135E-007	0.0006793	7
	46	248	7.512019	22014.72	-1342.874	1	22055.64	-3.490656	-9.531412E-008	0.0005958	7
	47	251	5.978954	22326.07	-1616.239	1	22384.49	-4.140561	-3.189798E-008	0.000593	7
	48	254	4.734848	22741.81	-2042.844	1	22833.38	-5.132969	-9.591962E-008	0.0005714	7
	49	257	3.75601	23172.13	-2522.284	1	23309	-6.212181	-1.240559E-008	0.0006373	7
	50	261	3.004808	23603.59	-3044.692	1	23799.15	-7.350152	-5.535886E-008	0.0006865	7
	51	264	2.372217	24187.79	-3819.67	1	24487.53	-8.973886	-2.527739E-008	0.0006057	7
	52	269	1.878005	24823.52	-4699.036	1	25264.36	-10.71913	-2.793715E-008	0.0006175	7
	53	273	1.512097	25482.54	-5711	1	26114.66	-12.63207	-4.718879E-008	0.000726	7
	54	279	1.201923	26382.29	-7137.866	1	27330.83	-15.13922	-4.259162E-008	0.0006248	7
	55	285	0.956633	27410.03	-8846.715	1	28802.33	-17.88772	-8.651894E-008	-7.473271E-006	7
