EXPLAIN
TAG	EISPOT
TITLE	LABEL	Potentiostatic EIS	Test Identifier
DATE	LABEL	2/24/2021	Date
TIME	LABEL	15:14:31	Time
NOTES	NOTES	1	Notes...
	
PSTAT	PSTAT	REF3000-16137	Potentiostat
VDC	POTEN	0.00000E+000	T	DC Voltage (V)
FREQINIT	QUANT	3.00000E+005	Initial Freq. (Hz)
FREQFINAL	QUANT	1.00000E+000	Final Freq. (Hz)
PTSPERDEC	QUANT	1.00000E+001	Points/decade
VAC	QUANT	5.00000E+001	AC Voltage (mV rms)
AREA	QUANT	1.00000E+000	Sample Area (cm^2)
SPEED	SELECTOR	2	Optimize for:
ZGUESS	QUANT	1.00000E+003	Estimated Z (ohms)
EOC	QUANT	0	Open Circuit (V)
SEQUENCER	TOGGLE	TRUE	Run as Sequence
PSTATMODEL	IQUANT	5	Pstat Model
PSTATSECTION	LABEL	REF3000-16137	Pstat Section
PSTATSERIALNO	LABEL	16137	Pstat Serial Number
CTRLMODE	IQUANT	1	Control Mode
IESTAB	IQUANT	0	I/E Stability
CASPEED	IQUANT	1	Control Amp Speed
CONVENTION	IQUANT	1	Current Convention
ICHRANGE	IQUANT	2	Ich Range
ICHRANGEMODE	TOGGLE	F	Ich Auto Range
ICHOFFSETENABLE	TOGGLE	T	Ich Offset Enable
ICHOFFSET	QUANT	0	Ich Offset (V)
ICHFILTER	IQUANT	3	Ich Filter
VCHRANGE	IQUANT	2	Vch Range
VCHRANGEMODE	TOGGLE	F	Vch Auto Range
VCHOFFSETENABLE	TOGGLE	T	Vch Offset Enable
VCHOFFSET	QUANT	0	Vch Offset (V)
VCHFILTER	IQUANT	3	Vch Filter
ACHRANGE	IQUANT	2	Ach Range
ACHOFFSETENABLE	TOGGLE	F	Ach Offset Enable
ACHOFFSET	QUANT	0	Ach Offset (V)
ACHFILTER	IQUANT	3	Ach Filter
IERANGELOWERLIMIT	IQUANT	2	I/E Range Lower Limit
IERANGEMODE	TOGGLE	F	I/E AutoRange
IERANGE	IQUANT	11	I/E Range
POSFEEDENABLE	TOGGLE	F	Positive Feedback IR Comp
POSFEEDRESISTANCE	QUANT	0	Positive Feedback Resistance (ohm)
ACHSELECT	IQUANT	0	Ach Select
CABLEID	IQUANT	13	Cable ID
DCCALDATE	LABEL	7/31/2020	DC Calibration Date
ACCALDATE	LABEL	7/31/2020	AC Calibration Date
THERMOSELECT	IQUANT	1	Thermo Select
FRAMEWORKVERSION	QUANT	6.33	Framework Version
INSTRUMENTVERSION	LABEL	3.50	Instrument Version
COMPLIANCEVOLTAGE	IQUANT	0	Compliance Voltage
ZCURVE	TABLE
	Pt	Time	Freq	Zreal	Zimag	Zsig	Zmod	Zphz	Idc	Vdc	IERange
	#	s	Hz	ohm	ohm	V	ohm	°	A	V	#
	0	10	300046.9	3.54387	2.236404	1	4.190527	32.2545	2.432492E-005	-3.751439E-005	10
	1	13	238359.4	3.516201	1.787064	1	3.94427	26.94137	-8.878276E-006	-0.0004631	10
	2	16	189328.1	3.492101	1.406739	1	3.764795	21.94128	1.973639E-005	-0.000104	10
	3	19	150421.9	3.490644	1.100774	1	3.660095	17.50266	1.213389E-005	0.0001639	10
	4	21	119484.4	3.479518	0.8590414	1	3.583992	13.86815	5.553872E-005	0.0003139	10
	5	24	94921.88	3.47771	0.6677105	1	3.54123	10.86837	2.661261E-005	0.0004115	10
	6	26	75421.88	3.481457	0.4966028	1	3.516697	8.118034	3.849182E-006	0.0004815	10
	7	29	59859.37	3.485049	0.3507627	1	3.502657	5.747342	-9.301627E-006	0.000555	10
	8	32	47578.12	3.489021	0.2240402	1	3.496207	3.674085	6.937202E-006	0.0005697	10
	9	34	37828.12	3.496071	0.1114765	1	3.497848	1.826326	-2.333716E-005	0.0006147	10
	10	37	30046.88	3.504745	0.0052879	1	3.50475	0.0864463	1.542923E-005	0.0006132	10
	11	39	23859.38	3.514244	-0.0995594	1	3.515654	-1.62277	-2.983362E-005	0.0006496	10
	12	41	18984.38	3.525599	-0.2066792	1	3.531652	-3.354978	2.092784E-005	0.0006676	10
	13	44	15046.87	3.5376	-0.3238528	1	3.552393	-5.230614	2.054913E-005	0.0006576	10
	14	46	11953.13	3.552211	-0.4550481	1	3.581239	-7.299992	-3.028908E-005	0.000676	10
	15	48	9515.62	3.569655	-0.6051773	1	3.620591	-9.62208	-7.468258E-006	0.0006545	10
	16	51	7546.875	3.590788	-0.7855569	1	3.675712	-12.34018	-1.880951E-005	0.000702	10
	17	53	5928.309	3.615963	-1.014169	1	3.755492	-15.66721	-6.175357E-006	0.0006866	10
	18	55	4733.456	3.646323	-1.273733	1	3.862392	-19.25532	-6.42301E-006	0.0006904	10
	19	58	3796.875	3.682597	-1.582739	1	4.008315	-23.25749	-1.82439E-005	0.0006832	10
	20	60	2987.132	3.733155	-1.996766	1	4.233618	-28.14115	-1.086397E-005	0.0006807	10
	21	62	2390.625	3.791396	-2.471599	1	4.525868	-33.1002	-8.175189E-006	0.0006598	10
	22	64	1884.191	3.87185	-3.095804	1	4.95734	-38.64468	-2.207403E-005	0.0006996	10
	23	67	1516.544	3.966248	-3.795743	1	5.48988	-43.7416	1.898663E-005	0.0006691	10
	24	69	1193.986	4.09796	-4.745917	1	6.270327	-49.19036	3.34067E-006	0.0006927	10
	25	72	946.5144	4.262269	-5.886289	1	7.267416	-54.09165	-1.965558E-005	0.0006894	10
	26	74	751.7689	4.472923	-7.280347	1	8.544618	-58.43413	1.286198E-005	0.000686	10
	27	76	597.4265	4.74013	-8.992066	1	10.16494	-62.20423	1.32432E-005	0.0006844	10
	28	79	477.4305	5.069448	-11.03216	1	12.14116	-65.32048	-2.919192E-006	0.0007041	10
	29	81	376.6741	5.50586	-13.68653	1	14.75248	-68.08591	-2.762104E-006	0.0006916	10
	30	83	298.2954	6.047135	-16.91003	1	17.95876	-70.32262	-3.063331E-006	0.0006939	10
	31	86	237.7717	6.707532	-20.76009	1	21.81679	-72.09449	-3.783704E-006	0.0007195	10
	32	88	189.0121	7.550861	-25.53818	1	26.63108	-73.52866	-3.121227E-006	0.0006964	10
	33	90	150.2404	8.61783	-31.40648	1	32.56737	-74.65589	-2.722525E-006	0.0006911	10
	34	93	119.1737	9.98361	-38.67125	1	39.93918	-75.52425	-2.442615E-006	0.0006961	10
	35	95	95.0169	11.66778	-47.30342	1	48.72115	-76.1441	9.834504E-007	9.279278E-005	9
	36	98	75.60484	13.84638	-57.99222	1	59.62231	-76.57132	9.668738E-007	8.488403E-005	9
	37	100	54.50582	18.04476	-77.48227	1	79.55574	-76.89013	8.734266E-007	8.234887E-005	9
	38	103	45.95588	20.87619	-90.03214	1	92.42078	-76.94525	1.039604E-006	0.0000953	9
	39	105	37.20238	25.15918	-108.27	1	111.1547	-76.91809	9.829869E-007	0.0000968	9
	40	107	30.04808	30.54024	-130.3408	1	133.871	-76.81289	1.069731E-006	8.445184E-005	9
	41	110	23.91582	37.64398	-158.4702	1	162.8799	-76.63728	1.06382E-006	8.38683E-005	9
	42	112	18.60119	47.37933	-196.2939	1	201.9309	-76.43011	1.200451E-006	0.0001002	9
	43	114	15.02404	57.33152	-235.0123	1	241.9043	-76.29041	1.148371E-006	0.0001067	9
	44	117	12.01923	69.82386	-283.563	1	292.0332	-76.16683	9.967272E-007	8.984236E-005	9
	45	119	9.450605	85.73652	-346.9897	1	357.425	-76.12096	9.752117E-007	0.0000983	9
	46	122	7.512019	103.2304	-419.1903	1	431.7141	-76.16554	4.012582E-007	0.0006531	8
	47	124	5.978954	124.3948	-508.556	1	523.5487	-76.2551	4.819063E-007	0.0006614	8
	48	128	4.734848	150.6583	-620.3301	1	638.3631	-76.349	4.583926E-007	0.0006445	8
	49	131	3.75601	182.3581	-757.033	1	778.687	-76.45631	4.689623E-007	0.0006767	8
	50	134	3.004808	219.9662	-917.3341	1	943.3382	-76.51572	5.001783E-007	0.0006369	8
	51	138	2.372217	270.837	-1126.478	1	1158.579	-76.48108	4.351603E-007	0.000596	8
	52	142	1.878005	334.111	-1379.807	1	1419.682	-76.38821	4.701787E-007	0.0006764	8
	53	147	1.512097	410.2486	-1663.023	1	1712.877	-76.14247	4.451151E-007	0.0006084	8
	54	152	1.201923	514.6528	-2037.798	1	2101.782	-75.82615	4.765343E-007	0.0006983	8
	55	159	0.956633	653.7742	-2486.926	1	2571.424	-75.27109	4.19097E-007	2.444688E-005	8
