EXPLAIN
TAG	EISPOT
TITLE	LABEL	Potentiostatic EIS	Test Identifier
DATE	LABEL	2/24/2021	Date
TIME	LABEL	15:59:01	Time
NOTES	NOTES	1	Notes...
	
PSTAT	PSTAT	REF3000-16137	Potentiostat
VDC	POTEN	0.00000E+000	T	DC Voltage (V)
FREQINIT	QUANT	3.00000E+005	Initial Freq. (Hz)
FREQFINAL	QUANT	1.00000E+000	Final Freq. (Hz)
PTSPERDEC	QUANT	1.00000E+001	Points/decade
VAC	QUANT	5.00000E+001	AC Voltage (mV rms)
AREA	QUANT	1.00000E+000	Sample Area (cm^2)
SPEED	SELECTOR	2	Optimize for:
ZGUESS	QUANT	1.00000E+003	Estimated Z (ohms)
EOC	QUANT	0	Open Circuit (V)
SEQUENCER	TOGGLE	TRUE	Run as Sequence
PSTATMODEL	IQUANT	5	Pstat Model
PSTATSECTION	LABEL	REF3000-16137	Pstat Section
PSTATSERIALNO	LABEL	16137	Pstat Serial Number
CTRLMODE	IQUANT	1	Control Mode
IESTAB	IQUANT	0	I/E Stability
CASPEED	IQUANT	1	Control Amp Speed
CONVENTION	IQUANT	1	Current Convention
ICHRANGE	IQUANT	2	Ich Range
ICHRANGEMODE	TOGGLE	F	Ich Auto Range
ICHOFFSETENABLE	TOGGLE	T	Ich Offset Enable
ICHOFFSET	QUANT	0	Ich Offset (V)
ICHFILTER	IQUANT	3	Ich Filter
VCHRANGE	IQUANT	2	Vch Range
VCHRANGEMODE	TOGGLE	F	Vch Auto Range
VCHOFFSETENABLE	TOGGLE	T	Vch Offset Enable
VCHOFFSET	QUANT	0	Vch Offset (V)
VCHFILTER	IQUANT	3	Vch Filter
ACHRANGE	IQUANT	2	Ach Range
ACHOFFSETENABLE	TOGGLE	F	Ach Offset Enable
ACHOFFSET	QUANT	0	Ach Offset (V)
ACHFILTER	IQUANT	3	Ach Filter
IERANGELOWERLIMIT	IQUANT	2	I/E Range Lower Limit
IERANGEMODE	TOGGLE	F	I/E AutoRange
IERANGE	IQUANT	11	I/E Range
POSFEEDENABLE	TOGGLE	F	Positive Feedback IR Comp
POSFEEDRESISTANCE	QUANT	0	Positive Feedback Resistance (ohm)
ACHSELECT	IQUANT	0	Ach Select
CABLEID	IQUANT	13	Cable ID
DCCALDATE	LABEL	7/31/2020	DC Calibration Date
ACCALDATE	LABEL	7/31/2020	AC Calibration Date
THERMOSELECT	IQUANT	1	Thermo Select
FRAMEWORKVERSION	QUANT	6.33	Framework Version
INSTRUMENTVERSION	LABEL	3.50	Instrument Version
COMPLIANCEVOLTAGE	IQUANT	0	Compliance Voltage
ZCURVE	TABLE
	Pt	Time	Freq	Zreal	Zimag	Zsig	Zmod	Zphz	Idc	Vdc	IERange
	#	s	Hz	ohm	ohm	V	ohm	°	A	V	#
	0	7	300046.9	55.69858	1.964468	1	55.73321	2.019964	-1.030715E-005	0.0002218	9
	1	10	238359.4	56.06748	1.484136	1	56.08712	1.516296	5.745225E-005	-0.0022293	9
	2	13	189328.1	56.43204	1.089265	1	56.44255	1.1058	-2.807377E-005	-0.0003102	9
	3	15	150421.9	56.73642	0.8038549	1	56.74212	0.8117257	-4.072693E-005	0.0007058	9
	4	18	119484.4	56.97488	0.6075042	1	56.97812	0.6109028	5.415494E-006	-0.0009134	9
	5	20	94921.88	57.31041	0.6485009	1	57.31408	0.6483077	1.047098E-005	-0.00054	9
	6	23	75421.88	57.55781	0.4442883	1	57.55952	0.442257	1.738921E-005	-0.0001498	9
	7	26	59859.37	57.81802	0.2469925	1	57.81855	0.2447601	-8.666726E-006	4.08646E-005	9
	8	28	47578.12	58.08255	0.067748	1	58.08259	0.0668302	-1.613853E-005	0.0006009	9
	9	31	37828.12	58.37938	-0.0660504	1	58.37942	-0.0648244	1.505279E-005	-0.0005419	9
	10	33	30046.88	58.66824	-0.1732836	1	58.66849	-0.1692294	-9.582037E-006	0.0005879	9
	11	36	23859.38	58.94135	-0.29839	1	58.9421	-0.2900569	-2.517762E-006	-0.0001442	9
	12	38	18984.38	59.21283	-0.4368483	1	59.21444	-0.4226974	9.642887E-006	-0.0004558	9
	13	40	15046.87	59.45784	-0.5787705	1	59.46066	-0.557707	-3.269812E-006	-0.0001375	9
	14	43	11953.13	59.77017	-0.7814037	1	59.77528	-0.7490122	1.633305E-005	-0.0005537	9
	15	45	9515.62	60.02184	-0.9403749	1	60.02921	-0.8975917	-1.363014E-005	0.0007415	9
	16	47	7546.875	60.30322	-1.18062	1	60.31477	-1.121597	-3.84422E-006	0.0006053	9
	17	50	5928.309	60.60637	-1.498732	1	60.62489	-1.416576	1.032916E-005	-0.0004763	9
	18	52	4733.456	60.89957	-1.832894	1	60.92715	-1.72391	-8.921618E-006	6.922348E-005	9
	19	54	3796.875	61.21137	-2.253577	1	61.25284	-2.108467	-1.499706E-005	0.0003735	9
	20	57	2987.132	61.55316	-2.8328	1	61.61831	-2.635008	-9.976139E-006	0.0006981	9
	21	59	2390.625	61.86645	-3.488088	1	61.9647	-3.226973	-1.020183E-005	0.0007456	9
	22	61	1884.191	62.24009	-4.338771	1	62.39114	-3.987651	-1.300254E-005	0.0002207	9
	23	63	1516.544	62.57583	-5.309282	1	62.80066	-4.849678	-3.91062E-006	0.0005744	9
	24	66	1193.986	62.99482	-6.662936	1	63.3462	-6.037703	1.932549E-005	-0.0005331	9
	25	68	946.5144	63.45689	-8.267419	1	63.99318	-7.422915	-1.705041E-005	0.0004551	9
	26	71	751.7689	63.93462	-10.2441	1	64.75011	-9.103003	-4.178884E-006	0.0005885	9
	27	73	597.4265	64.44287	-12.71208	1	65.68471	-11.15897	-2.862657E-006	-0.0001416	9
	28	75	477.4305	65.04426	-15.68269	1	66.90816	-13.55575	1.366627E-006	0.0000973	9
	29	78	376.6741	65.74174	-19.57849	1	68.59515	-16.58401	1.374868E-006	9.180423E-005	9
	30	80	298.2954	66.54792	-24.35734	1	70.8654	-20.10323	1.343973E-006	0.0000963	9
	31	82	237.7717	67.49073	-30.11585	1	73.9051	-24.04748	1.290733E-006	9.069963E-005	9
	32	85	189.0121	68.62778	-37.32163	1	78.11962	-28.53854	1.324365E-006	9.035659E-005	9
	33	87	150.2404	70.00208	-46.2381	1	83.8943	-33.44575	1.328304E-006	9.221191E-005	9
	34	90	119.1737	71.70565	-57.37415	1	91.83405	-38.6645	1.296828E-006	0.0001121	9
	35	92	95.0169	73.77921	-70.799	1	102.254	-43.81913	1.331131E-006	9.058799E-005	9
	36	94	75.60484	76.39991	-87.48162	1	116.1464	-48.86847	1.415276E-006	8.537639E-005	9
	37	97	54.50582	81.19967	-118.252	1	143.4465	-55.52391	1.385981E-006	8.764217E-005	9
	38	99	45.95588	84.55357	-138.3293	1	162.1243	-58.5647	1.375279E-006	9.021212E-005	9
	39	102	37.20238	89.45038	-167.8018	1	190.1547	-61.93918	1.427287E-006	9.013178E-005	9
	40	104	30.04808	95.5491	-203.8662	1	225.1467	-64.8882	1.396202E-006	8.078623E-005	9
	41	107	23.91582	103.5986	-250.8331	1	271.3852	-67.55849	1.39723E-006	8.952442E-005	9
	42	109	18.60119	114.6854	-314.9026	1	335.1364	-69.98872	1.293605E-006	8.584526E-005	9
	43	111	15.02404	126.4297	-381.8338	1	402.2207	-71.67969	1.405E-006	9.012916E-005	9
	44	114	12.01923	141.0716	-464.9307	1	485.8618	-73.1209	2.920035E-007	0.0006655	8
	45	116	9.450605	161.3289	-577.3738	1	599.4894	-74.38865	3.154137E-007	0.0006724	8
	46	119	7.512019	186.1337	-709.7864	1	733.7864	-75.30569	3.104532E-007	0.0006665	8
	47	121	5.978954	216.6773	-870.7805	1	897.3336	-76.02681	3.197279E-007	0.0006706	8
	48	124	4.734848	256.1555	-1073.774	1	1103.905	-76.5825	4.094964E-007	0.000687	8
	49	128	3.75601	306.4814	-1319.723	1	1354.843	-76.92586	3.173847E-007	0.0006568	8
	50	131	3.004808	367.9201	-1607.908	1	1649.465	-77.11151	3.828876E-007	0.0006624	8
	51	135	2.372217	453.6574	-1979.403	1	2030.724	-77.09137	3.760566E-007	0.0007128	8
	52	139	1.878005	556.7104	-2435.09	1	2497.917	-77.12235	3.423847E-007	0.0006493	8
	53	144	1.512097	674.7265	-2936.048	1	3012.579	-77.0577	3.918453E-007	0.0006425	8
	54	149	1.201923	838.5287	-3591.235	1	3687.831	-76.85729	3.648788E-007	0.0006371	8
	55	155	0.956633	1038.887	-4379.106	1	4500.651	-76.65404	2.14625E-008	-2.950009E-005	7
