EXPLAIN
TAG	EISPOT
TITLE	LABEL	Potentiostatic EIS	Test Identifier
DATE	LABEL	2/24/2021	Date
TIME	LABEL	15:56:16	Time
NOTES	NOTES	1	Notes...
	
PSTAT	PSTAT	REF3000-16137	Potentiostat
VDC	POTEN	0.00000E+000	T	DC Voltage (V)
FREQINIT	QUANT	3.00000E+005	Initial Freq. (Hz)
FREQFINAL	QUANT	1.00000E+000	Final Freq. (Hz)
PTSPERDEC	QUANT	1.00000E+001	Points/decade
VAC	QUANT	5.00000E+001	AC Voltage (mV rms)
AREA	QUANT	1.00000E+000	Sample Area (cm^2)
SPEED	SELECTOR	2	Optimize for:
ZGUESS	QUANT	1.00000E+003	Estimated Z (ohms)
EOC	QUANT	0	Open Circuit (V)
SEQUENCER	TOGGLE	TRUE	Run as Sequence
PSTATMODEL	IQUANT	5	Pstat Model
PSTATSECTION	LABEL	REF3000-16137	Pstat Section
PSTATSERIALNO	LABEL	16137	Pstat Serial Number
CTRLMODE	IQUANT	1	Control Mode
IESTAB	IQUANT	0	I/E Stability
CASPEED	IQUANT	1	Control Amp Speed
CONVENTION	IQUANT	1	Current Convention
ICHRANGE	IQUANT	2	Ich Range
ICHRANGEMODE	TOGGLE	F	Ich Auto Range
ICHOFFSETENABLE	TOGGLE	T	Ich Offset Enable
ICHOFFSET	QUANT	0	Ich Offset (V)
ICHFILTER	IQUANT	3	Ich Filter
VCHRANGE	IQUANT	2	Vch Range
VCHRANGEMODE	TOGGLE	F	Vch Auto Range
VCHOFFSETENABLE	TOGGLE	T	Vch Offset Enable
VCHOFFSET	QUANT	0	Vch Offset (V)
VCHFILTER	IQUANT	3	Vch Filter
ACHRANGE	IQUANT	2	Ach Range
ACHOFFSETENABLE	TOGGLE	F	Ach Offset Enable
ACHOFFSET	QUANT	0	Ach Offset (V)
ACHFILTER	IQUANT	3	Ach Filter
IERANGELOWERLIMIT	IQUANT	2	I/E Range Lower Limit
IERANGEMODE	TOGGLE	F	I/E AutoRange
IERANGE	IQUANT	11	I/E Range
POSFEEDENABLE	TOGGLE	F	Positive Feedback IR Comp
POSFEEDRESISTANCE	QUANT	0	Positive Feedback Resistance (ohm)
ACHSELECT	IQUANT	0	Ach Select
CABLEID	IQUANT	13	Cable ID
DCCALDATE	LABEL	7/31/2020	DC Calibration Date
ACCALDATE	LABEL	7/31/2020	AC Calibration Date
THERMOSELECT	IQUANT	1	Thermo Select
FRAMEWORKVERSION	QUANT	6.33	Framework Version
INSTRUMENTVERSION	LABEL	3.50	Instrument Version
COMPLIANCEVOLTAGE	IQUANT	0	Compliance Voltage
ZCURVE	TABLE
	Pt	Time	Freq	Zreal	Zimag	Zsig	Zmod	Zphz	Idc	Vdc	IERange
	#	s	Hz	ohm	ohm	V	ohm	°	A	V	#
	0	7	300046.9	42.0118	2.297656	1	42.07458	3.130429	-6.172343E-005	0.0014962	9
	1	10	238359.4	42.23292	1.724393	1	42.26811	2.338119	1.184622E-005	-7.676468E-005	9
	2	13	189328.1	42.47186	1.319148	1	42.49234	1.778997	6.964666E-006	-0.0010096	9
	3	16	150421.9	42.63141	1.025343	1	42.64374	1.377776	-5.903914E-005	0.0018279	9
	4	18	119484.4	42.8599	0.7630361	1	42.86669	1.019931	-2.356317E-005	-5.691281E-005	9
	5	21	94921.88	43.08275	0.7173923	1	43.08873	0.953972	9.511026E-006	1.970771E-006	9
	6	23	75421.88	43.24559	0.516896	1	43.24868	0.6847994	2.060418E-005	-0.0004283	9
	7	26	59859.37	43.42836	0.3306891	1	43.42962	0.4362754	1.49757E-005	-0.0001746	9
	8	28	47578.12	43.62058	0.1745083	1	43.62093	0.2292161	-1.116456E-005	0.0001912	9
	9	31	37828.12	43.81513	0.0231329	1	43.81514	0.0302502	-4.022013E-006	0.0004432	9
	10	33	30046.88	44.01126	-0.1088762	1	44.0114	-0.1417395	-1.515216E-005	0.0005589	9
	11	36	23859.38	44.21601	-0.248402	1	44.21671	-0.3218797	-3.99635E-006	0.0004611	9
	12	38	18984.38	44.4047	-0.3814199	1	44.40634	-0.4921374	3.019799E-006	-0.0002687	9
	13	41	15046.87	44.59958	-0.511735	1	44.60252	-0.6573822	1.763252E-005	-0.0002144	9
	14	43	11953.13	44.78683	-0.6833591	1	44.79204	-0.8741534	-2.656217E-006	0.0005196	9
	15	45	9515.62	44.98967	-0.8937586	1	44.99855	-1.13808	6.8966E-006	0.0001209	9
	16	48	7546.875	45.18433	-1.123294	1	45.19829	-1.424095	-1.333167E-005	0.0002623	9
	17	50	5928.309	45.40634	-1.418364	1	45.42849	-1.789174	3.717244E-006	-0.0002697	9
	18	52	4733.456	45.61472	-1.771159	1	45.64909	-2.223602	-3.304837E-006	0.0005045	9
	19	54	3796.875	45.84322	-2.184709	1	45.89524	-2.728429	-1.416403E-005	0.0004267	9
	20	57	2987.132	46.09422	-2.731199	1	46.17506	-3.390955	9.571774E-006	0.0001288	9
	21	59	2390.625	46.33532	-3.372885	1	46.45792	-4.163387	-1.606434E-005	0.0006122	9
	22	61	1884.191	46.63256	-4.194687	1	46.82084	-5.14003	-1.505739E-005	0.000448	9
	23	64	1516.544	46.8879	-5.165147	1	47.17154	-6.286328	-1.21863E-005	0.0002326	9
	24	66	1193.986	47.21534	-6.460899	1	47.65534	-7.791903	1.892016E-005	-0.0004103	9
	25	69	946.5144	47.57508	-8.03024	1	48.24804	-9.5807	2.517743E-006	0.0003125	9
	26	71	751.7689	47.96279	-9.96269	1	48.98657	-11.73445	3.539736E-006	-0.0002715	9
	27	73	597.4265	48.40166	-12.34212	1	49.95046	-14.30522	-1.513668E-005	0.0004554	9
	28	75	477.4305	48.90554	-15.23488	1	51.22356	-17.30267	1.368532E-006	0.0001011	9
	29	78	376.6741	49.51571	-19.02137	1	53.04355	-21.01418	1.387631E-006	0.0000952	9
	30	80	298.2954	50.23485	-23.66308	1	55.52911	-25.22273	1.356293E-006	0.0001003	9
	31	82	237.7717	51.09081	-29.25011	1	58.87138	-29.79167	1.343408E-006	0.0000993	9
	32	85	189.0121	52.14386	-36.2368	1	63.49872	-34.79694	1.366743E-006	0.0001006	9
	33	87	150.2404	53.44703	-44.87151	1	69.78565	-40.01517	1.448286E-006	0.0000952	9
	34	90	119.1737	55.08097	-55.64015	1	78.29266	-45.28936	1.40766E-006	0.0000992	9
	35	92	95.0169	57.08794	-68.61424	1	89.25775	-50.23911	1.398316E-006	9.311627E-005	9
	36	95	75.60484	59.6364	-84.71112	1	103.5977	-54.85456	1.351845E-006	0.0000985	9
	37	97	54.50582	64.35948	-114.3593	1	131.2258	-60.62993	1.362449E-006	8.814959E-005	9
	38	100	45.95588	67.60657	-133.6703	1	149.7945	-63.17104	1.336845E-006	0.0000983	9
	39	102	37.20238	72.36781	-162.0202	1	177.4476	-65.93164	1.276908E-006	0.0001003	9
	40	104	30.04808	78.28169	-196.7021	1	211.7068	-68.29889	1.412542E-006	8.579927E-005	9
	41	107	23.91582	86.0956	-241.8289	1	256.6976	-70.40332	1.364109E-006	8.989974E-005	9
	42	109	18.60119	96.8244	-303.4536	1	318.5264	-72.30342	1.547724E-006	9.021994E-005	9
	43	111	15.02404	108.3116	-367.9189	1	383.5306	-73.59611	1.500566E-006	0.0001059	9
	44	114	12.01923	122.6069	-447.8243	1	464.3049	-74.68857	3.411145E-007	0.0006663	8
	45	116	9.450605	142.7001	-555.9755	1	573.9965	-75.60485	3.401674E-007	0.0006703	8
	46	119	7.512019	167.1922	-683.1639	1	703.3251	-76.24817	3.51511E-007	0.0006712	8
	47	121	5.978954	197.6525	-837.648	1	860.6513	-76.72327	3.821412E-007	0.0006739	8
	48	124	4.734848	237.7799	-1032.178	1	1059.213	-77.02726	4.573722E-007	0.0006734	8
	49	128	3.75601	288.4626	-1267.283	1	1299.699	-77.17667	4.265964E-007	0.0006738	8
	50	131	3.004808	350.1774	-1541.916	1	1581.18	-77.20485	4.568064E-007	0.0006445	8
	51	135	2.372217	433.2539	-1897.695	1	1946.524	-77.13949	4.238042E-007	0.0006018	8
	52	139	1.878005	537.2219	-2323.972	1	2385.258	-76.98383	4.42576E-007	0.0006812	8
	53	144	1.512097	658.5887	-2796.239	1	2872.75	-76.74686	4.252959E-007	0.0006121	8
	54	149	1.201923	812.0552	-3412.288	1	3507.583	-76.61377	4.441206E-007	0.0007059	8
	55	155	0.956633	998.276	-4145.316	1	4263.825	-76.45984	4.1184E-007	3.40854E-005	8
