EXPLAIN
TAG	EISPOT
TITLE	LABEL	Potentiostatic EIS	Test Identifier
DATE	LABEL	2/24/2021	Date
TIME	LABEL	15:45:12	Time
NOTES	NOTES	1	Notes...
	
PSTAT	PSTAT	REF3000-16137	Potentiostat
VDC	POTEN	0.00000E+000	T	DC Voltage (V)
FREQINIT	QUANT	3.00000E+005	Initial Freq. (Hz)
FREQFINAL	QUANT	1.00000E+000	Final Freq. (Hz)
PTSPERDEC	QUANT	1.00000E+001	Points/decade
VAC	QUANT	5.00000E+001	AC Voltage (mV rms)
AREA	QUANT	1.00000E+000	Sample Area (cm^2)
SPEED	SELECTOR	2	Optimize for:
ZGUESS	QUANT	1.00000E+003	Estimated Z (ohms)
EOC	QUANT	0	Open Circuit (V)
SEQUENCER	TOGGLE	TRUE	Run as Sequence
PSTATMODEL	IQUANT	5	Pstat Model
PSTATSECTION	LABEL	REF3000-16137	Pstat Section
PSTATSERIALNO	LABEL	16137	Pstat Serial Number
CTRLMODE	IQUANT	1	Control Mode
IESTAB	IQUANT	0	I/E Stability
CASPEED	IQUANT	1	Control Amp Speed
CONVENTION	IQUANT	1	Current Convention
ICHRANGE	IQUANT	2	Ich Range
ICHRANGEMODE	TOGGLE	F	Ich Auto Range
ICHOFFSETENABLE	TOGGLE	T	Ich Offset Enable
ICHOFFSET	QUANT	0	Ich Offset (V)
ICHFILTER	IQUANT	3	Ich Filter
VCHRANGE	IQUANT	2	Vch Range
VCHRANGEMODE	TOGGLE	F	Vch Auto Range
VCHOFFSETENABLE	TOGGLE	T	Vch Offset Enable
VCHOFFSET	QUANT	0	Vch Offset (V)
VCHFILTER	IQUANT	3	Vch Filter
ACHRANGE	IQUANT	2	Ach Range
ACHOFFSETENABLE	TOGGLE	F	Ach Offset Enable
ACHOFFSET	QUANT	0	Ach Offset (V)
ACHFILTER	IQUANT	3	Ach Filter
IERANGELOWERLIMIT	IQUANT	2	I/E Range Lower Limit
IERANGEMODE	TOGGLE	F	I/E AutoRange
IERANGE	IQUANT	11	I/E Range
POSFEEDENABLE	TOGGLE	F	Positive Feedback IR Comp
POSFEEDRESISTANCE	QUANT	0	Positive Feedback Resistance (ohm)
ACHSELECT	IQUANT	0	Ach Select
CABLEID	IQUANT	13	Cable ID
DCCALDATE	LABEL	7/31/2020	DC Calibration Date
ACCALDATE	LABEL	7/31/2020	AC Calibration Date
THERMOSELECT	IQUANT	1	Thermo Select
FRAMEWORKVERSION	QUANT	6.33	Framework Version
INSTRUMENTVERSION	LABEL	3.50	Instrument Version
COMPLIANCEVOLTAGE	IQUANT	0	Compliance Voltage
ZCURVE	TABLE
	Pt	Time	Freq	Zreal	Zimag	Zsig	Zmod	Zphz	Idc	Vdc	IERange
	#	s	Hz	ohm	ohm	V	ohm	°	A	V	#
	0	8	300046.9	16.24764	2.064852	1	16.37832	7.24268	-9.022382E-005	0.000443	10
	1	11	238359.4	16.28226	1.621409	1	16.36279	5.686841	-0.0001001	0.0003277	10
	2	14	189328.1	16.32518	1.277027	1	16.37505	4.472818	-1.226952E-005	0.0005651	10
	3	16	150421.9	16.37617	1.001205	1	16.40675	3.498591	2.731198E-005	0.0005391	10
	4	19	119484.4	16.41354	0.7653944	1	16.43137	2.669877	-0.0001058	0.000568	10
	5	22	94921.88	16.45857	0.5858225	1	16.469	2.038512	2.713814E-005	0.0006471	10
	6	24	75421.88	16.51214	0.4159471	1	16.51738	1.442997	6.306221E-006	0.0006048	10
	7	27	59859.37	16.56851	0.2720613	1	16.57074	0.9407343	-7.244234E-006	0.0006419	10
	8	29	47578.12	16.62677	0.1466908	1	16.62742	0.5054827	2.45598E-005	0.0006317	10
	9	32	37828.12	16.68644	0.0316925	1	16.68647	0.1088216	-3.064481E-006	0.0007263	10
	10	34	30046.88	16.74594	-0.0787291	1	16.74613	-0.2693673	-2.594897E-005	0.0007159	10
	11	37	23859.38	16.80513	-0.1904718	1	16.80621	-0.6493711	2.372981E-005	0.0006472	10
	12	39	18984.38	16.86471	-0.3107763	1	16.86757	-1.055705	-2.696528E-005	0.0006663	10
	13	41	15046.87	16.92788	-0.4446448	1	16.93372	-1.504643	-2.629113E-005	0.0007323	10
	14	44	11953.13	16.98897	-0.5957947	1	16.99941	-2.008512	2.523673E-005	0.0007031	10
	15	46	9515.62	17.05623	-0.7738187	1	17.07377	-2.597653	2.48727E-005	0.0007003	10
	16	48	7546.875	17.12736	-0.990665	1	17.15599	-3.310362	-1.751059E-005	0.0006816	10
	17	50	5928.309	17.20508	-1.262452	1	17.25134	-4.196654	-5.224078E-006	0.000702	10
	18	53	4733.456	17.28635	-1.578695	1	17.35829	-5.218127	-2.312105E-005	0.0007327	10
	19	55	3796.875	17.37918	-1.948416	1	17.48806	-6.396839	-2.404442E-005	0.000747	10
	20	57	2987.132	17.47623	-2.450374	1	17.64718	-7.981514	2.302285E-005	0.0006606	10
	21	60	2390.625	17.58666	-3.031532	1	17.84603	-9.78035	-1.825581E-005	0.0006679	10
	22	62	1884.191	17.71344	-3.790416	1	18.11445	-12.0783	-1.855111E-005	0.0006804	10
	23	64	1516.544	17.85666	-4.652446	1	18.45279	-14.60341	4.541549E-006	0.0006378	10
	24	67	1193.986	18.03134	-5.830555	1	18.95058	-17.91896	-2.293035E-005	0.0007214	10
	25	69	946.5144	18.23838	-7.258361	1	19.62963	-21.70116	-2.918539E-005	0.0006789	10
	26	71	751.7689	18.48755	-9.000307	1	20.56198	-25.95825	-2.426181E-005	0.0007022	10
	27	74	597.4265	18.79061	-11.16168	1	21.85566	-30.71044	1.90209E-005	0.0006507	10
	28	76	477.4305	19.15372	-13.76644	1	23.58771	-35.7061	-2.452329E-006	0.0006939	10
	29	78	376.6741	19.63754	-17.17397	1	26.08789	-41.17125	-1.737968E-006	0.0006873	10
	30	81	298.2954	20.23577	-21.334	1	29.40452	-46.51334	-1.484264E-006	0.0006953	10
	31	83	237.7717	20.97421	-26.32289	1	33.65728	-51.45198	-1.575437E-006	0.0006945	10
	32	85	189.0121	21.91675	-32.53559	1	39.22893	-56.03485	-1.722453E-006	0.0006954	10
	33	88	150.2404	23.08055	-40.13366	1	46.29711	-60.09713	1.224858E-006	9.181479E-005	9
	34	90	119.1737	24.59309	-49.61787	1	55.37827	-63.63469	1.404825E-006	0.0000952	9
	35	93	95.0169	26.45187	-61.00647	1	66.49429	-66.55888	1.332526E-006	9.091765E-005	9
	36	95	75.60484	28.79243	-75.09547	1	80.42595	-69.02263	1.211853E-006	9.304046E-005	9
	37	98	54.50582	33.1519	-100.9941	1	106.2961	-71.82728	1.281791E-006	8.637229E-005	9
	38	100	45.95588	36.06986	-117.8582	1	123.2542	-72.98355	1.21912E-006	0.0000982	9
	39	102	37.20238	40.40915	-142.6249	1	148.2388	-74.18126	1.270854E-006	8.662631E-005	9
	40	105	30.04808	45.84168	-172.9463	1	178.9186	-75.1544	1.203315E-006	0.0000955	9
	41	107	23.91582	53.08371	-212.3233	1	218.8585	-75.96302	1.229745E-006	8.746197E-005	9
	42	110	18.60119	63.32291	-266.0404	1	273.4726	-76.61159	1.455899E-006	8.912611E-005	9
	43	112	15.02404	74.51335	-322.1806	1	330.685	-76.9777	1.218558E-006	8.015498E-005	9
	44	114	12.01923	89.1789	-392.9306	1	402.9235	-77.21286	1.421236E-006	8.955604E-005	9
	45	117	9.450605	108.9922	-484.2259	1	496.3406	-77.31496	6.735278E-007	0.0006648	8
	46	119	7.512019	133.2354	-592.6844	1	607.4755	-77.33053	5.846623E-007	0.0006854	8
	47	122	5.978954	164.0992	-723.0099	1	741.3986	-77.2124	5.229025E-007	0.0006722	8
	48	125	4.734848	204.0135	-885.4241	1	908.6238	-77.02475	6.020319E-007	0.0006663	8
	49	128	3.75601	252.4963	-1079.967	1	1109.091	-76.84061	5.688343E-007	0.0006744	8
	50	131	3.004808	310.0312	-1304.517	1	1340.852	-76.63112	6.168106E-007	0.0006419	8
	51	135	2.372217	384.4639	-1593.719	1	1639.437	-76.43727	5.842245E-007	0.0005893	8
	52	139	1.878005	469.3301	-1940.258	1	1996.215	-76.40189	6.17766E-007	0.0006691	8
	53	144	1.512097	562.8983	-2323.208	1	2390.429	-76.38008	5.762342E-007	0.0006362	8
	54	149	1.201923	679.6166	-2830.374	1	2910.823	-76.49801	6.187356E-007	0.0006884	8
	55	156	0.956633	816.5201	-3438.237	1	3533.862	-76.64075	5.805372E-007	2.426228E-005	8
