EXPLAIN
TAG	EISPOT
TITLE	LABEL	Potentiostatic EIS	Test Identifier
DATE	LABEL	2/24/2021	Date
TIME	LABEL	16:16:20	Time
NOTES	NOTES	1	Notes...
	
PSTAT	PSTAT	REF3000-16137	Potentiostat
VDC	POTEN	0.00000E+000	T	DC Voltage (V)
FREQINIT	QUANT	3.00000E+005	Initial Freq. (Hz)
FREQFINAL	QUANT	1.00000E+000	Final Freq. (Hz)
PTSPERDEC	QUANT	1.00000E+001	Points/decade
VAC	QUANT	5.00000E+001	AC Voltage (mV rms)
AREA	QUANT	1.00000E+000	Sample Area (cm^2)
SPEED	SELECTOR	2	Optimize for:
ZGUESS	QUANT	1.00000E+003	Estimated Z (ohms)
EOC	QUANT	0	Open Circuit (V)
SEQUENCER	TOGGLE	TRUE	Run as Sequence
PSTATMODEL	IQUANT	5	Pstat Model
PSTATSECTION	LABEL	REF3000-16137	Pstat Section
PSTATSERIALNO	LABEL	16137	Pstat Serial Number
CTRLMODE	IQUANT	1	Control Mode
IESTAB	IQUANT	0	I/E Stability
CASPEED	IQUANT	1	Control Amp Speed
CONVENTION	IQUANT	1	Current Convention
ICHRANGE	IQUANT	2	Ich Range
ICHRANGEMODE	TOGGLE	F	Ich Auto Range
ICHOFFSETENABLE	TOGGLE	T	Ich Offset Enable
ICHOFFSET	QUANT	0	Ich Offset (V)
ICHFILTER	IQUANT	3	Ich Filter
VCHRANGE	IQUANT	2	Vch Range
VCHRANGEMODE	TOGGLE	F	Vch Auto Range
VCHOFFSETENABLE	TOGGLE	T	Vch Offset Enable
VCHOFFSET	QUANT	0	Vch Offset (V)
VCHFILTER	IQUANT	3	Vch Filter
ACHRANGE	IQUANT	2	Ach Range
ACHOFFSETENABLE	TOGGLE	F	Ach Offset Enable
ACHOFFSET	QUANT	0	Ach Offset (V)
ACHFILTER	IQUANT	3	Ach Filter
IERANGELOWERLIMIT	IQUANT	2	I/E Range Lower Limit
IERANGEMODE	TOGGLE	F	I/E AutoRange
IERANGE	IQUANT	11	I/E Range
POSFEEDENABLE	TOGGLE	F	Positive Feedback IR Comp
POSFEEDRESISTANCE	QUANT	0	Positive Feedback Resistance (ohm)
ACHSELECT	IQUANT	0	Ach Select
CABLEID	IQUANT	13	Cable ID
DCCALDATE	LABEL	7/31/2020	DC Calibration Date
ACCALDATE	LABEL	7/31/2020	AC Calibration Date
THERMOSELECT	IQUANT	1	Thermo Select
FRAMEWORKVERSION	QUANT	6.33	Framework Version
INSTRUMENTVERSION	LABEL	3.50	Instrument Version
COMPLIANCEVOLTAGE	IQUANT	0	Compliance Voltage
ZCURVE	TABLE
	Pt	Time	Freq	Zreal	Zimag	Zsig	Zmod	Zphz	Idc	Vdc	IERange
	#	s	Hz	ohm	ohm	V	ohm	°	A	V	#
	0	16	300046.9	571.986	-104.4065	1	581.4368	-10.3445	2.233707E-005	-0.001061	9
	1	23	238359.4	599.5247	-93.40629	1	606.7574	-8.855521	3.802783E-006	0.0013854	9
	2	39	189328.1	632.5796	-89.80251	1	638.9221	-8.079856	8.213765E-005	-0.003069	9
	3	49	150421.9	650.4969	-69.36644	1	654.185	-6.086795	2.268075E-005	-0.0003137	9
	4	56	119484.4	666.584	-40.74726	1	667.8282	-3.498051	4.634434E-005	-0.0185162	8
	5	60	94921.88	675.9527	-32.85983	1	676.7509	-2.783107	-1.091587E-005	0.0070188	8
	6	63	75421.88	683.8677	-25.31446	1	684.3361	-2.119927	2.078634E-006	0.0040722	8
	7	66	59859.37	687.9928	-22.3703	1	688.3564	-1.862334	7.552256E-007	0.004632	8
	8	68	47578.12	693.0039	-20.54293	1	693.3083	-1.697939	-1.466388E-005	0.0075138	8
	9	71	37828.12	700.1416	-17.62803	1	700.3635	-1.442277	-1.637784E-005	0.0066432	8
	10	73	30046.88	705.4249	-14.92135	1	705.5826	-1.211756	9.055063E-006	-0.0055687	8
	11	76	23859.38	711.4233	-11.73177	1	711.5201	-0.9447539	-2.538232E-006	-0.0026821	8
	12	78	18984.38	717.3989	-10.55081	1	717.4765	-0.84259	1.847236E-005	-0.0040264	8
	13	81	15046.87	719.2343	-6.680707	1	719.2653	-0.5321845	-1.74789E-005	0.0057877	8
	14	84	11953.13	730.1685	-8.683072	1	730.2202	-0.6813221	-1.18161E-005	0.0077147	8
	15	86	9515.62	733.8055	-8.663632	1	733.8567	-0.6764278	-1.766603E-005	0.0057876	8
	16	88	7546.875	738.3084	-5.376076	1	738.328	-0.4171983	1.724447E-005	-0.0060604	8
	17	91	5928.309	744.6147	-6.417748	1	744.6423	-0.4938135	-5.695857E-006	0.0064843	8
	18	93	4733.456	750.1713	-6.184504	1	750.1968	-0.4723427	3.661114E-006	-0.0045081	8
	19	96	3796.875	752.797	-6.642536	1	752.8263	-0.5055538	1.832594E-005	-0.0027764	8
	20	98	2987.132	763.2056	-5.664689	1	763.2266	-0.4252547	3.634837E-006	-0.0045016	8
	21	101	2390.625	771.0246	-5.097581	1	771.0414	-0.3788019	3.059469E-006	-0.0046403	8
	22	103	1884.191	770.1407	-4.054245	1	770.1514	-0.3016189	1.720783E-005	-0.0060127	8
	23	106	1516.544	782.0842	-7.577705	1	782.1208	-0.5551282	1.400643E-005	-0.0004496	8
	24	109	1193.986	786.4568	-10.02544	1	786.5207	-0.7303445	-2.801547E-006	-0.002597	8
	25	112	946.5144	794.114	-10.67122	1	794.1857	-0.769888	1.767379E-005	-0.0026625	8
	26	114	751.7689	801.3186	-13.46595	1	801.4318	-0.96275	1.762932E-005	-0.0061768	8
	27	117	597.4265	806.1005	-13.97046	1	806.2215	-0.992889	-1.738326E-005	0.0046577	8
	28	119	477.4305	813.9628	-20.92357	1	814.2316	-1.47251	-5.592779E-008	0.0006749	8
	29	122	376.6741	820.2502	-25.76152	1	820.6547	-1.798892	-7.542271E-008	0.0006736	8
	30	124	298.2954	826.7089	-31.68661	1	827.316	-2.194993	-6.670779E-008	0.0006604	8
	31	126	237.7717	833.592	-38.92269	1	834.5002	-2.673355	-3.353127E-008	0.0006567	8
	32	129	189.0121	840.6931	-47.99348	1	842.0619	-3.267355	-5.659712E-008	0.0006551	8
	33	131	150.2404	848.0621	-59.24872	1	850.1292	-3.996399	-3.551492E-008	0.0006605	8
	34	134	119.1737	855.734	-73.34081	1	858.8711	-4.898573	-3.675502E-008	0.000653	8
	35	136	95.0169	863.879	-90.45643	1	868.6019	-5.977636	-6.078855E-008	0.0006726	8
	36	139	75.60484	872.813	-111.7951	1	879.9435	-7.299042	-1.477796E-008	0.000658	8
	37	141	54.50582	883.8678	-151.5605	1	896.768	-9.73011	-6.758233E-008	0.000671	8
	38	144	45.95588	893.2729	-177.5752	1	910.7521	-11.24335	-1.206599E-007	0.0006645	8
	39	146	37.20238	903.7982	-216.3333	1	929.3284	-13.46107	-4.380497E-008	0.0006544	8
	40	148	30.04808	915.6769	-264.0362	1	952.984	-16.08496	-5.139844E-008	0.0006764	8
	41	151	23.91582	929.4379	-326.7847	1	985.212	-19.37136	-8.906866E-008	0.000652	8
	42	153	18.60119	946.3951	-413.4771	1	1032.776	-23.60037	1.091816E-007	0.0006521	8
	43	155	15.02404	963.935	-503.2343	1	1087.389	-27.56738	4.806704E-008	0.0006681	8
	44	158	12.01923	985.642	-619.67	1	1164.251	-32.15744	2.623303E-008	0.0006656	8
	45	160	9.450605	1012.589	-774.8453	1	1275.038	-37.42366	-6.763965E-008	0.0006614	8
	46	163	7.512019	1045.794	-957.813	1	1418.13	-42.48567	-5.610418E-008	0.0006803	8
	47	165	5.978954	1086.422	-1182.174	1	1605.568	-47.41689	-3.017919E-008	0.0006705	8
	48	168	4.734848	1137.631	-1466.284	1	1855.854	-52.19355	-9.991398E-008	0.0006387	8
	49	172	3.75601	1202.21	-1812.664	1	2175.1	-56.44654	-1.235068E-008	0.0006867	8
	50	175	3.004808	1279.09	-2220.525	1	2562.577	-60.05675	-3.337139E-008	0.0006641	8
	51	179	2.372217	1383.168	-2749.323	1	3077.651	-63.29331	-7.938399E-008	0.0006265	8
	52	183	1.878005	1508.972	-3406.271	1	3725.544	-66.10674	-5.049317E-008	0.0006669	8
	53	188	1.512097	1652.171	-4145.244	1	4462.367	-68.26924	-3.088645E-008	0.0006617	7
	54	193	1.201923	1847.679	-5114.133	1	5437.671	-70.13578	-1.293763E-008	0.0006561	7
	55	199	0.956633	2082.247	-6281.998	1	6618.101	-71.66158	-3.991142E-008	-4.031378E-006	7
