EXPLAIN
TAG	EISPOT
TITLE	LABEL	Potentiostatic EIS	Test Identifier
DATE	LABEL	2/24/2021	Date
TIME	LABEL	16:07:15	Time
NOTES	NOTES	1	Notes...
	
PSTAT	PSTAT	REF3000-16137	Potentiostat
VDC	POTEN	0.00000E+000	T	DC Voltage (V)
FREQINIT	QUANT	3.00000E+005	Initial Freq. (Hz)
FREQFINAL	QUANT	1.00000E+000	Final Freq. (Hz)
PTSPERDEC	QUANT	1.00000E+001	Points/decade
VAC	QUANT	5.00000E+001	AC Voltage (mV rms)
AREA	QUANT	1.00000E+000	Sample Area (cm^2)
SPEED	SELECTOR	2	Optimize for:
ZGUESS	QUANT	1.00000E+003	Estimated Z (ohms)
EOC	QUANT	0	Open Circuit (V)
SEQUENCER	TOGGLE	TRUE	Run as Sequence
PSTATMODEL	IQUANT	5	Pstat Model
PSTATSECTION	LABEL	REF3000-16137	Pstat Section
PSTATSERIALNO	LABEL	16137	Pstat Serial Number
CTRLMODE	IQUANT	1	Control Mode
IESTAB	IQUANT	0	I/E Stability
CASPEED	IQUANT	1	Control Amp Speed
CONVENTION	IQUANT	1	Current Convention
ICHRANGE	IQUANT	2	Ich Range
ICHRANGEMODE	TOGGLE	F	Ich Auto Range
ICHOFFSETENABLE	TOGGLE	T	Ich Offset Enable
ICHOFFSET	QUANT	0	Ich Offset (V)
ICHFILTER	IQUANT	3	Ich Filter
VCHRANGE	IQUANT	2	Vch Range
VCHRANGEMODE	TOGGLE	F	Vch Auto Range
VCHOFFSETENABLE	TOGGLE	T	Vch Offset Enable
VCHOFFSET	QUANT	0	Vch Offset (V)
VCHFILTER	IQUANT	3	Vch Filter
ACHRANGE	IQUANT	2	Ach Range
ACHOFFSETENABLE	TOGGLE	F	Ach Offset Enable
ACHOFFSET	QUANT	0	Ach Offset (V)
ACHFILTER	IQUANT	3	Ach Filter
IERANGELOWERLIMIT	IQUANT	2	I/E Range Lower Limit
IERANGEMODE	TOGGLE	F	I/E AutoRange
IERANGE	IQUANT	11	I/E Range
POSFEEDENABLE	TOGGLE	F	Positive Feedback IR Comp
POSFEEDRESISTANCE	QUANT	0	Positive Feedback Resistance (ohm)
ACHSELECT	IQUANT	0	Ach Select
CABLEID	IQUANT	13	Cable ID
DCCALDATE	LABEL	7/31/2020	DC Calibration Date
ACCALDATE	LABEL	7/31/2020	AC Calibration Date
THERMOSELECT	IQUANT	1	Thermo Select
FRAMEWORKVERSION	QUANT	6.33	Framework Version
INSTRUMENTVERSION	LABEL	3.50	Instrument Version
COMPLIANCEVOLTAGE	IQUANT	0	Compliance Voltage
ZCURVE	TABLE
	Pt	Time	Freq	Zreal	Zimag	Zsig	Zmod	Zphz	Idc	Vdc	IERange
	#	s	Hz	ohm	ohm	V	ohm	°	A	V	#
	0	7	300046.9	148.7314	-3.899818	1	148.7825	-1.501982	2.185448E-005	-0.0017119	9
	1	11	238359.4	149.9275	-3.380497	1	149.9656	-1.291661	-5.525719E-005	0.0005638	9
	2	14	189328.1	150.5022	-2.069527	1	150.5165	-0.7878134	7.56608E-005	-0.0022902	9
	3	17	150421.9	152.4742	-2.212523	1	152.4902	-0.8313493	-1.4188E-005	0.0011852	9
	4	20	119484.4	153.6877	-2.279083	1	153.7046	-0.8495947	-1.149619E-005	0.0012829	9
	5	23	94921.88	154.9171	-1.777521	1	154.9273	-0.657384	-1.821492E-006	-0.0003268	9
	6	26	75421.88	155.8175	-1.590505	1	155.8257	-0.5848253	2.07903E-005	-0.0007762	9
	7	28	59859.37	156.8518	-1.403222	1	156.8581	-0.5125638	2.413659E-005	-0.0007055	9
	8	31	47578.12	157.8316	-1.199383	1	157.8362	-0.4353895	2.324682E-005	-0.0002157	9
	9	33	37828.12	158.7969	-1.15199	1	158.8011	-0.4156443	1.906704E-005	-0.0001104	9
	10	36	30046.88	159.7878	-1.072246	1	159.7914	-0.3844741	-1.456792E-005	0.0001652	9
	11	38	23859.38	160.6199	-1.06513	1	160.6234	-0.3799439	1.942256E-005	-3.664997E-005	9
	12	41	18984.38	161.5631	-0.955247	1	161.5659	-0.3387594	-1.430618E-005	0.0008709	9
	13	43	15046.87	162.7037	-1.296498	1	162.7088	-0.4565496	2.282916E-005	-0.0001976	9
	14	45	11953.13	163.319	-1.448747	1	163.3255	-0.5082378	-1.36603E-005	0.0009498	9
	15	48	9515.62	164.2518	-1.417268	1	164.2579	-0.4943718	-1.552921E-006	-0.0003008	9
	16	50	7546.875	165.2187	-1.421547	1	165.2249	-0.4929625	-8.606098E-006	-0.0000978	9
	17	52	5928.309	166.1494	-1.845375	1	166.1596	-0.636342	-1.462959E-005	0.0001651	9
	18	55	4733.456	166.9129	-2.466327	1	166.9311	-0.8465484	6.804134E-006	-0.0005394	9
	19	57	3796.875	167.9703	-2.542488	1	167.9896	-0.8671932	-1.565435E-005	0.000176	9
	20	59	2987.132	168.8385	-3.434072	1	168.8734	-1.165201	-9.295183E-006	-3.117335E-005	9
	21	62	2390.625	169.7593	-3.95939	1	169.8055	-1.336099	-2.03478E-005	0.000529	9
	22	64	1884.191	170.5574	-4.569909	1	170.6186	-1.534814	-1.602058E-006	-0.0003095	9
	23	66	1516.544	171.8139	-5.962523	1	171.9173	-1.98756	1.087443E-005	0.0002888	9
	24	68	1193.986	173.1218	-7.376382	1	173.2789	-2.439786	2.535834E-005	-0.0004225	9
	25	71	946.5144	174.0545	-9.240895	1	174.2996	-3.039093	2.08144E-005	-0.0007305	9
	26	73	751.7689	175.2568	-11.50383	1	175.6339	-3.755499	1.946754E-005	-5.215573E-005	9
	27	76	597.4265	176.5361	-14.22234	1	177.1081	-4.605991	2.067894E-005	-0.0007533	9
	28	78	477.4305	177.8711	-17.36537	1	178.7168	-5.576057	1.292846E-006	9.34099E-005	9
	29	80	376.6741	179.2707	-21.64304	1	180.5724	-6.883904	1.196242E-006	0.0000969	9
	30	83	298.2954	180.7733	-26.89551	1	182.7632	-8.462406	1.253873E-006	0.0000952	9
	31	85	237.7717	182.4574	-33.23838	1	185.4602	-10.3244	1.233874E-006	8.821062E-005	9
	32	87	189.0121	184.3263	-41.18663	1	188.8717	-12.59551	1.187561E-006	9.145055E-005	9
	33	90	150.2404	186.4004	-51.0402	1	193.262	-15.31339	1.188928E-006	8.930208E-005	9
	34	92	119.1737	188.788	-63.3806	1	199.1432	-18.55812	1.223106E-006	8.575723E-005	9
	35	94	95.0169	191.5308	-78.33725	1	206.9318	-22.24486	1.235993E-006	8.855724E-005	9
	36	97	75.60484	194.8139	-96.9654	1	217.6115	-26.46107	1.200998E-006	8.748577E-005	9
	37	100	54.50582	200.196	-131.5157	1	239.5305	-33.3023	1.223203E-006	8.503464E-005	9
	38	102	45.95588	204.208	-154.1874	1	255.8802	-37.05466	1.367061E-006	9.264964E-005	9
	39	104	37.20238	209.6882	-187.5794	1	281.3452	-41.81466	1.306836E-006	9.28664E-005	9
	40	107	30.04808	216.478	-228.5807	1	314.8204	-46.55769	1.305785E-006	8.617044E-005	9
	41	109	23.91582	225.3082	-282.1243	1	361.0511	-51.38867	1.228593E-006	8.29154E-005	9
	42	112	18.60119	236.4197	-353.875	1	425.584	-56.25358	1.008599E-007	0.0006758	8
	43	114	15.02404	249.4924	-430.1815	1	497.2952	-59.88755	1.13359E-007	0.0006494	8
	44	116	12.01923	266.4066	-527.2012	1	590.689	-63.19151	2.35993E-007	0.0006625	8
	45	119	9.450605	289.1156	-655.8639	1	716.7603	-66.21133	7.707377E-008	0.0006721	8
	46	121	7.512019	316.305	-807.1844	1	866.9461	-68.60167	9.985836E-008	0.0006626	8
	47	124	5.978954	349.4935	-991.452	1	1051.248	-70.5821	1.209414E-007	0.0006735	8
	48	127	4.734848	392.3881	-1224.13	1	1285.481	-72.22703	1.683158E-007	0.0006719	8
	49	130	3.75601	444.6381	-1507.35	1	1571.562	-73.56499	1.29203E-007	0.00067	8
	50	134	3.004808	507.1587	-1840.832	1	1909.417	-74.59684	1.754028E-007	0.0006449	8
	51	137	2.372217	589.9434	-2273.758	1	2349.044	-75.4549	1.437488E-007	0.0006336	8
	52	142	1.878005	698.7461	-2805.481	1	2891.188	-76.01421	1.256859E-007	0.0006781	8
	53	146	1.512097	824.2477	-3405.607	1	3503.933	-76.39452	1.410467E-007	0.0005646	8
	54	152	1.201923	987.716	-4183.859	1	4298.868	-76.71695	1.283915E-007	0.0006883	8
	55	158	0.956633	1194.403	-5136.181	1	5273.229	-76.90871	-9.559659E-009	-4.132521E-007	7
