EXPLAIN
TAG	EISPOT
TITLE	LABEL	Potentiostatic EIS	Test Identifier
DATE	LABEL	2/24/2021	Date
TIME	LABEL	15:03:13	Time
NOTES	NOTES	1	Notes...
	
PSTAT	PSTAT	REF3000-16137	Potentiostat
VDC	POTEN	0.00000E+000	T	DC Voltage (V)
FREQINIT	QUANT	3.00000E+005	Initial Freq. (Hz)
FREQFINAL	QUANT	1.00000E+000	Final Freq. (Hz)
PTSPERDEC	QUANT	1.00000E+001	Points/decade
VAC	QUANT	5.00000E+001	AC Voltage (mV rms)
AREA	QUANT	1.00000E+000	Sample Area (cm^2)
SPEED	SELECTOR	2	Optimize for:
ZGUESS	QUANT	1.00000E+003	Estimated Z (ohms)
EOC	QUANT	0	Open Circuit (V)
SEQUENCER	TOGGLE	TRUE	Run as Sequence
PSTATMODEL	IQUANT	5	Pstat Model
PSTATSECTION	LABEL	REF3000-16137	Pstat Section
PSTATSERIALNO	LABEL	16137	Pstat Serial Number
CTRLMODE	IQUANT	1	Control Mode
IESTAB	IQUANT	0	I/E Stability
CASPEED	IQUANT	1	Control Amp Speed
CONVENTION	IQUANT	1	Current Convention
ICHRANGE	IQUANT	2	Ich Range
ICHRANGEMODE	TOGGLE	F	Ich Auto Range
ICHOFFSETENABLE	TOGGLE	T	Ich Offset Enable
ICHOFFSET	QUANT	0	Ich Offset (V)
ICHFILTER	IQUANT	3	Ich Filter
VCHRANGE	IQUANT	2	Vch Range
VCHRANGEMODE	TOGGLE	F	Vch Auto Range
VCHOFFSETENABLE	TOGGLE	T	Vch Offset Enable
VCHOFFSET	QUANT	0	Vch Offset (V)
VCHFILTER	IQUANT	3	Vch Filter
ACHRANGE	IQUANT	2	Ach Range
ACHOFFSETENABLE	TOGGLE	F	Ach Offset Enable
ACHOFFSET	QUANT	0	Ach Offset (V)
ACHFILTER	IQUANT	3	Ach Filter
IERANGELOWERLIMIT	IQUANT	2	I/E Range Lower Limit
IERANGEMODE	TOGGLE	F	I/E AutoRange
IERANGE	IQUANT	11	I/E Range
POSFEEDENABLE	TOGGLE	F	Positive Feedback IR Comp
POSFEEDRESISTANCE	QUANT	0	Positive Feedback Resistance (ohm)
ACHSELECT	IQUANT	0	Ach Select
CABLEID	IQUANT	13	Cable ID
DCCALDATE	LABEL	7/31/2020	DC Calibration Date
ACCALDATE	LABEL	7/31/2020	AC Calibration Date
THERMOSELECT	IQUANT	1	Thermo Select
FRAMEWORKVERSION	QUANT	6.33	Framework Version
INSTRUMENTVERSION	LABEL	3.50	Instrument Version
COMPLIANCEVOLTAGE	IQUANT	0	Compliance Voltage
ZCURVE	TABLE
	Pt	Time	Freq	Zreal	Zimag	Zsig	Zmod	Zphz	Idc	Vdc	IERange
	#	s	Hz	ohm	ohm	V	ohm	°	A	V	#
	0	10	300046.9	2.655636	2.208559	1	3.454002	39.74859	7.731824E-005	-0.0002205	11
	1	14	238359.4	2.615008	1.761885	1	3.153173	33.97047	-3.398176E-005	-0.0001165	11
	2	17	189328.1	2.587816	1.397192	1	2.940907	28.36514	-4.143506E-005	0.0001323	11
	3	19	150421.9	2.575377	1.095272	1	2.798604	23.03937	-4.955484E-006	0.0003804	11
	4	22	119484.4	2.560262	0.8504941	1	2.697829	18.37598	4.810069E-005	0.0006615	11
	5	25	94921.88	2.553807	0.65053	1	2.63536	14.291	2.194331E-005	0.0005579	11
	6	28	75421.88	2.563609	0.4134166	1	2.596729	9.160851	-4.044542E-005	0.000564	12
	7	32	59859.37	2.554724	0.3450938	1	2.577926	7.692988	-4.513393E-005	0.0006194	11
	8	34	47578.12	2.557111	0.2232694	1	2.56684	4.990018	8.784247E-006	0.0006536	11
	9	37	37828.12	2.561966	0.1150657	1	2.564549	2.5716	6.125614E-006	0.0006705	11
	10	39	30046.88	2.567746	0.0136657	1	2.567783	0.3049276	2.235547E-005	0.0007145	11
	11	42	23859.38	2.574113	-0.0861753	1	2.575555	-1.917414	-2.551848E-005	0.0006755	11
	12	44	18984.38	2.581783	-0.1881653	1	2.588631	-4.168455	-4.488793E-005	0.0006548	11
	13	46	15046.87	2.592511	-0.3000453	1	2.609816	-6.60178	-2.47981E-005	0.0007218	11
	14	49	11953.13	2.603803	-0.4243182	1	2.63815	-9.255614	7.903727E-007	0.0007078	11
	15	51	9515.62	2.617871	-0.5674342	1	2.678662	-12.2299	-4.53004E-005	0.0006961	11
	16	53	7546.875	2.636574	-0.7390444	1	2.738195	-15.65844	-2.03251E-005	0.0007183	11
	17	56	5928.309	2.659526	-0.954869	1	2.825748	-19.75004	2.016302E-005	0.0007327	11
	18	58	4733.456	2.68793	-1.200219	1	2.943721	-24.0618	-4.095386E-005	0.0006874	11
	19	60	3796.875	2.723553	-1.491452	1	3.105185	-28.70567	-3.330678E-005	0.0007121	11
	20	62	2987.132	2.771419	-1.881104	1	3.349525	-34.16675	-3.270763E-005	0.0007009	11
	21	65	2390.625	2.82885	-2.326781	1	3.662827	-39.43793	-3.549736E-005	0.0006847	11
	22	67	1884.191	2.912545	-2.9123	1	4.118788	-44.99759	1.661657E-005	0.000658	10
	23	69	1516.544	3.006629	-3.566934	1	4.665066	-49.87189	1.64212E-005	0.0006646	10
	24	72	1193.986	3.138508	-4.452087	1	5.447138	-54.818	-1.900382E-005	0.0007061	10
	25	74	946.5144	3.299523	-5.514777	1	6.426478	-59.10767	-2.001338E-005	0.0006709	10
	26	77	751.7689	3.507681	-6.806187	1	7.656892	-62.73494	-1.349611E-005	0.0006926	10
	27	79	597.4265	3.769181	-8.393437	1	9.200897	-65.81693	-2.451225E-005	0.0006913	10
	28	81	477.4305	4.08852	-10.28334	1	11.0663	-68.31788	-1.852433E-006	0.0006808	10
	29	83	376.6741	4.512167	-12.74182	1	13.51716	-70.49979	-1.548648E-006	0.000682	10
	30	86	298.2954	5.040041	-15.72706	1	16.51492	-72.23094	-1.265722E-006	0.0006834	10
	31	88	237.7717	5.689006	-19.28476	1	20.10639	-73.56393	-2.032107E-006	0.0006788	10
	32	91	189.0121	6.519218	-23.69735	1	24.57773	-74.61825	-1.740474E-006	0.0006773	10
	33	93	150.2404	7.576505	-29.09813	1	30.06833	-75.40552	-1.789796E-006	0.0006776	10
	34	95	119.1737	8.934012	-35.76773	1	36.86662	-75.9757	-1.537408E-006	0.0006922	10
	35	98	95.0169	10.60578	-43.66528	1	44.93483	-76.3479	7.269424E-007	8.63305E-005	9
	36	100	75.60484	12.76258	-53.40856	1	54.91227	-76.56055	5.74248E-007	8.588425E-005	9
	37	103	54.50582	16.8891	-71.08106	1	73.05997	-76.63417	5.087086E-007	8.07474E-005	9
	38	105	45.95588	19.64115	-82.39503	1	84.70369	-76.59218	9.169551E-007	8.359495E-005	9
	39	108	37.20238	23.76206	-98.8373	1	101.6536	-76.48174	8.034115E-007	8.358943E-005	9
	40	110	30.04808	28.80068	-118.6005	1	122.0473	-76.35062	6.5388E-007	7.70366E-005	9
	41	112	23.91582	35.26039	-143.7435	1	148.0051	-76.21745	5.221459E-007	8.504028E-005	9
	42	115	18.60119	43.95924	-177.7817	1	183.1358	-76.11132	6.313558E-007	7.936097E-005	9
	43	117	15.02404	52.73259	-212.7826	1	219.2194	-76.08117	9.749472E-007	9.337089E-005	9
	44	119	12.01923	63.75554	-256.8926	1	264.6858	-76.06196	5.736782E-007	8.281123E-005	9
	45	122	9.450605	77.94468	-315.0761	1	324.574	-76.10493	7.661273E-007	9.339359E-005	9
	46	124	7.512019	94.41161	-383.2656	1	394.7228	-76.16158	7.69701E-007	9.421065E-005	9
	47	127	5.978954	114.4361	-463.7108	1	477.6226	-76.13735	9.634017E-008	0.0006576	8
	48	130	4.734848	140.2222	-567.2581	1	584.3321	-76.11523	2.068431E-007	0.0006816	8
	49	133	3.75601	173.2868	-692.6825	1	714.0289	-75.95471	5.455561E-008	0.0006526	8
	50	137	3.004808	213.8961	-839.944	1	866.751	-75.71301	1.472192E-007	0.0006356	8
	51	141	2.372217	270.7728	-1029.687	1	1064.694	-75.26671	1.253341E-007	0.0006302	8
	52	145	1.878005	348.2902	-1260.147	1	1307.393	-74.54981	8.689734E-008	0.0006688	8
	53	149	1.512097	443.0392	-1515.782	1	1579.202	-73.70719	9.910975E-008	0.0005669	8
	54	155	1.201923	576.4632	-1842.915	1	1930.97	-72.63034	1.156825E-007	0.0006934	8
	55	161	0.956633	758.8506	-2227.394	1	2353.112	-71.18654	5.127892E-008	1.914381E-005	8
