EXPLAIN
TAG	EISPOT
TITLE	LABEL	Potentiostatic EIS	Test Identifier
DATE	LABEL	2/24/2021	Date
TIME	LABEL	15:31:19	Time
NOTES	NOTES	1	Notes...
	
PSTAT	PSTAT	REF3000-16137	Potentiostat
VDC	POTEN	0.00000E+000	T	DC Voltage (V)
FREQINIT	QUANT	3.00000E+005	Initial Freq. (Hz)
FREQFINAL	QUANT	1.00000E+000	Final Freq. (Hz)
PTSPERDEC	QUANT	1.00000E+001	Points/decade
VAC	QUANT	5.00000E+001	AC Voltage (mV rms)
AREA	QUANT	1.00000E+000	Sample Area (cm^2)
SPEED	SELECTOR	2	Optimize for:
ZGUESS	QUANT	1.00000E+003	Estimated Z (ohms)
EOC	QUANT	0	Open Circuit (V)
SEQUENCER	TOGGLE	TRUE	Run as Sequence
PSTATMODEL	IQUANT	5	Pstat Model
PSTATSECTION	LABEL	REF3000-16137	Pstat Section
PSTATSERIALNO	LABEL	16137	Pstat Serial Number
CTRLMODE	IQUANT	1	Control Mode
IESTAB	IQUANT	0	I/E Stability
CASPEED	IQUANT	1	Control Amp Speed
CONVENTION	IQUANT	1	Current Convention
ICHRANGE	IQUANT	2	Ich Range
ICHRANGEMODE	TOGGLE	F	Ich Auto Range
ICHOFFSETENABLE	TOGGLE	T	Ich Offset Enable
ICHOFFSET	QUANT	0	Ich Offset (V)
ICHFILTER	IQUANT	3	Ich Filter
VCHRANGE	IQUANT	2	Vch Range
VCHRANGEMODE	TOGGLE	F	Vch Auto Range
VCHOFFSETENABLE	TOGGLE	T	Vch Offset Enable
VCHOFFSET	QUANT	0	Vch Offset (V)
VCHFILTER	IQUANT	3	Vch Filter
ACHRANGE	IQUANT	2	Ach Range
ACHOFFSETENABLE	TOGGLE	F	Ach Offset Enable
ACHOFFSET	QUANT	0	Ach Offset (V)
ACHFILTER	IQUANT	3	Ach Filter
IERANGELOWERLIMIT	IQUANT	2	I/E Range Lower Limit
IERANGEMODE	TOGGLE	F	I/E AutoRange
IERANGE	IQUANT	11	I/E Range
POSFEEDENABLE	TOGGLE	F	Positive Feedback IR Comp
POSFEEDRESISTANCE	QUANT	0	Positive Feedback Resistance (ohm)
ACHSELECT	IQUANT	0	Ach Select
CABLEID	IQUANT	13	Cable ID
DCCALDATE	LABEL	7/31/2020	DC Calibration Date
ACCALDATE	LABEL	7/31/2020	AC Calibration Date
THERMOSELECT	IQUANT	1	Thermo Select
FRAMEWORKVERSION	QUANT	6.33	Framework Version
INSTRUMENTVERSION	LABEL	3.50	Instrument Version
COMPLIANCEVOLTAGE	IQUANT	0	Compliance Voltage
ZCURVE	TABLE
	Pt	Time	Freq	Zreal	Zimag	Zsig	Zmod	Zphz	Idc	Vdc	IERange
	#	s	Hz	ohm	ohm	V	ohm	°	A	V	#
	0	9	300046.9	6.899674	2.212609	1	7.245767	17.78017	-1.678245E-005	0.0002838	10
	1	12	238359.4	6.902078	1.749282	1	7.1203	14.22175	-2.433212E-005	-2.911959E-005	10
	2	15	189328.1	6.895757	1.379322	1	7.032353	11.3113	4.583132E-005	0.0003375	10
	3	18	150421.9	6.893537	1.087937	1	6.978858	8.968438	2.877159E-005	0.0004366	10
	4	21	119484.4	6.905742	0.8366851	1	6.956243	6.908165	9.560026E-006	0.0006207	10
	5	23	94921.88	6.919504	0.6582359	1	6.950742	5.434059	-9.147112E-006	0.0005797	10
	6	26	75421.88	6.929101	0.4824019	1	6.945873	3.982489	-2.308028E-005	0.0006144	10
	7	28	59859.37	6.942915	0.3305214	1	6.950778	2.72554	1.805621E-005	0.000599	10
	8	31	47578.12	6.95993	0.1990446	1	6.962776	1.638136	1.735122E-005	0.0006125	10
	9	33	37828.12	6.979184	0.0825178	1	6.979671	0.6774003	1.772305E-005	0.0006175	10
	10	36	30046.88	6.999943	-0.0274552	1	6.999997	-0.2247242	-8.258457E-006	0.000654	10
	11	38	23859.38	7.022141	-0.1359988	1	7.023458	-1.109517	-1.684173E-005	0.0007266	10
	12	40	18984.38	7.043558	-0.2492378	1	7.047966	-2.026578	2.214493E-005	0.0006875	10
	13	43	15046.87	7.066581	-0.3748356	1	7.076516	-3.036319	-2.175737E-006	0.0006712	10
	14	45	11953.13	7.093153	-0.5164057	1	7.111926	-4.163981	2.150516E-005	0.0006954	10
	15	47	9515.62	7.120521	-0.6786714	1	7.15279	-5.444531	1.807102E-005	0.0006599	10
	16	50	7546.875	7.154669	-0.8764344	1	7.20815	-6.983839	-1.667533E-005	0.0007322	10
	17	52	5928.309	7.191392	-1.125974	1	7.279006	-8.898693	1.166375E-005	0.0006461	10
	18	54	4733.456	7.233234	-1.410374	1	7.369452	-11.03339	4.533084E-006	0.0006467	10
	19	57	3796.875	7.280972	-1.751537	1	7.488687	-13.52627	-3.049608E-005	0.0006743	10
	20	59	2987.132	7.341488	-2.206361	1	7.665864	-16.72727	1.187781E-005	0.000647	10
	21	61	2390.625	7.410338	-2.729659	1	7.897097	-20.22169	1.227309E-005	0.0006614	10
	22	64	1884.191	7.499071	-3.421987	1	8.24294	-24.52823	-2.41021E-005	0.0006952	10
	23	66	1516.544	7.600713	-4.199394	1	8.683648	-28.92065	1.700467E-005	0.0006521	10
	24	68	1193.986	7.737936	-5.259827	1	9.356358	-34.20573	2.197274E-005	0.0006793	10
	25	71	946.5144	7.909134	-6.543342	1	10.26498	-39.60145	2.350799E-005	0.0006835	10
	26	73	751.7689	8.123522	-8.110186	1	11.47897	-44.95293	4.240131E-006	0.0006941	10
	27	75	597.4265	8.392331	-10.03932	1	13.08508	-50.1062	4.773526E-006	0.0006993	10
	28	78	477.4305	8.734129	-12.35557	1	15.13093	-54.74358	-2.545121E-006	0.0007039	10
	29	80	376.6741	9.189261	-15.37274	1	17.90987	-59.13055	-2.226591E-006	0.0006816	10
	30	82	298.2954	9.76004	-19.04416	1	21.3995	-62.86508	-2.446233E-006	0.0006868	10
	31	85	237.7717	10.45924	-23.43042	1	25.65892	-65.94422	-4.316581E-006	0.0007252	10
	32	87	189.0121	11.3498	-28.88027	1	31.03044	-68.54543	-1.863153E-006	0.0006942	10
	33	89	150.2404	12.4618	-35.57019	1	37.68998	-70.69241	-1.774689E-006	0.0006904	10
	34	92	119.1737	13.85216	-43.82304	1	45.96021	-72.45861	1.298975E-006	9.347194E-005	9
	35	94	95.0169	15.57631	-53.77708	1	55.98746	-73.84656	1.296711E-006	9.253548E-005	9
	36	97	75.60484	17.76413	-66.09145	1	68.43715	-74.95554	1.171625E-006	8.838412E-005	9
	37	99	54.50582	21.94146	-88.70789	1	91.38117	-76.10701	1.106121E-006	8.624543E-005	9
	38	102	45.95588	24.76804	-103.3899	1	106.3152	-76.52813	1.217012E-006	0.0001024	9
	39	104	37.20238	29.04834	-124.8966	1	128.2302	-76.90697	1.29761E-006	9.02687E-005	9
	40	107	30.04808	34.46479	-151.0207	1	154.9034	-77.14455	1.280196E-006	9.249846E-005	9
	41	109	23.91582	41.79624	-184.8285	1	189.4954	-77.25772	1.131002E-006	9.143087E-005	9
	42	111	18.60119	52.07737	-230.5782	1	236.386	-77.27296	1.038355E-006	0.0000988	9
	43	114	15.02404	63.27504	-277.8279	1	284.9422	-77.16978	1.557347E-006	0.0001033	9
	44	116	12.01923	77.8559	-336.8224	1	345.7035	-76.98477	1.133317E-006	0.0000999	9
	45	118	9.450605	97.1279	-413.792	1	425.0384	-76.79031	1.333677E-006	0.0000998	9
	46	121	7.512019	119.3545	-500.9906	1	515.0118	-76.59982	6.073557E-007	0.0006839	8
	47	124	5.978954	146.3559	-607.04	1	624.4338	-76.44482	5.821746E-007	0.0006771	8
	48	127	4.734848	179.3229	-739.2166	1	760.6562	-76.3643	6.815542E-007	0.0006713	8
	49	130	3.75601	217.7756	-898.0721	1	924.0994	-76.36932	6.244468E-007	0.0006818	8
	50	133	3.004808	260.9709	-1083.924	1	1114.898	-76.46284	6.616512E-007	0.0006292	8
	51	137	2.372217	315.1624	-1325.173	1	1362.135	-76.62203	6.317617E-007	0.000603	8
	52	141	1.878005	381.0847	-1618.101	1	1662.371	-76.74757	6.342192E-007	0.0006724	8
	53	146	1.512097	454.8895	-1949.026	1	2001.407	-76.86272	6.072769E-007	0.0005639	8
	54	151	1.201923	545.8069	-2382.026	1	2443.758	-77.09428	6.209546E-007	0.0006972	8
	55	158	0.956633	658.7869	-2908.79	1	2982.458	-77.23885	6.102373E-007	2.8623E-005	8
