EXPLAIN
TAG	EISPOT
TITLE	LABEL	Potentiostatic EIS	Test Identifier
DATE	LABEL	2/24/2021	Date
TIME	LABEL	16:04:31	Time
NOTES	NOTES	1	Notes...
	
PSTAT	PSTAT	REF3000-16137	Potentiostat
VDC	POTEN	0.00000E+000	T	DC Voltage (V)
FREQINIT	QUANT	3.00000E+005	Initial Freq. (Hz)
FREQFINAL	QUANT	1.00000E+000	Final Freq. (Hz)
PTSPERDEC	QUANT	1.00000E+001	Points/decade
VAC	QUANT	5.00000E+001	AC Voltage (mV rms)
AREA	QUANT	1.00000E+000	Sample Area (cm^2)
SPEED	SELECTOR	2	Optimize for:
ZGUESS	QUANT	1.00000E+003	Estimated Z (ohms)
EOC	QUANT	0	Open Circuit (V)
SEQUENCER	TOGGLE	TRUE	Run as Sequence
PSTATMODEL	IQUANT	5	Pstat Model
PSTATSECTION	LABEL	REF3000-16137	Pstat Section
PSTATSERIALNO	LABEL	16137	Pstat Serial Number
CTRLMODE	IQUANT	1	Control Mode
IESTAB	IQUANT	0	I/E Stability
CASPEED	IQUANT	1	Control Amp Speed
CONVENTION	IQUANT	1	Current Convention
ICHRANGE	IQUANT	2	Ich Range
ICHRANGEMODE	TOGGLE	F	Ich Auto Range
ICHOFFSETENABLE	TOGGLE	T	Ich Offset Enable
ICHOFFSET	QUANT	0	Ich Offset (V)
ICHFILTER	IQUANT	3	Ich Filter
VCHRANGE	IQUANT	2	Vch Range
VCHRANGEMODE	TOGGLE	F	Vch Auto Range
VCHOFFSETENABLE	TOGGLE	T	Vch Offset Enable
VCHOFFSET	QUANT	0	Vch Offset (V)
VCHFILTER	IQUANT	3	Vch Filter
ACHRANGE	IQUANT	2	Ach Range
ACHOFFSETENABLE	TOGGLE	F	Ach Offset Enable
ACHOFFSET	QUANT	0	Ach Offset (V)
ACHFILTER	IQUANT	3	Ach Filter
IERANGELOWERLIMIT	IQUANT	2	I/E Range Lower Limit
IERANGEMODE	TOGGLE	F	I/E AutoRange
IERANGE	IQUANT	11	I/E Range
POSFEEDENABLE	TOGGLE	F	Positive Feedback IR Comp
POSFEEDRESISTANCE	QUANT	0	Positive Feedback Resistance (ohm)
ACHSELECT	IQUANT	0	Ach Select
CABLEID	IQUANT	13	Cable ID
DCCALDATE	LABEL	7/31/2020	DC Calibration Date
ACCALDATE	LABEL	7/31/2020	AC Calibration Date
THERMOSELECT	IQUANT	1	Thermo Select
FRAMEWORKVERSION	QUANT	6.33	Framework Version
INSTRUMENTVERSION	LABEL	3.50	Instrument Version
COMPLIANCEVOLTAGE	IQUANT	0	Compliance Voltage
ZCURVE	TABLE
	Pt	Time	Freq	Zreal	Zimag	Zsig	Zmod	Zphz	Idc	Vdc	IERange
	#	s	Hz	ohm	ohm	V	ohm	°	A	V	#
	0	6	300046.9	104.78	-0.2513837	1	104.7803	-0.1374613	-1.483827E-005	0.0007391	9
	1	10	238359.4	105.5902	-0.4686621	1	105.5913	-0.2543055	-3.060156E-005	-0.0005444	9
	2	13	189328.1	106.2334	-0.533708	1	106.2347	-0.2878471	1.396511E-005	-0.0013478	9
	3	15	150421.9	107.083	-0.4441126	1	107.084	-0.2376252	7.155716E-005	-0.0021612	9
	4	18	119484.4	107.5124	-0.5017903	1	107.5135	-0.2674135	-9.516094E-006	0.000692	9
	5	20	94921.88	108.2819	-0.212027	1	108.2821	-0.1121908	-2.267612E-005	0.0007143	9
	6	23	75421.88	108.8565	-0.4195966	1	108.8573	-0.2208504	-9.12344E-006	-6.624687E-005	9
	7	25	59859.37	109.4785	-0.4447028	1	109.4794	-0.2327347	1.847252E-005	-0.0007086	9
	8	28	47578.12	110.1171	-0.4480343	1	110.1181	-0.2331184	-2.02218E-006	-0.0002679	9
	9	31	37828.12	110.7628	-0.5604588	1	110.7643	-0.2899136	1.1113E-005	0.0001618	9
	10	33	30046.88	111.3471	-0.5578221	1	111.3485	-0.2870356	1.864438E-005	-0.0001283	9
	11	36	23859.38	111.9558	-0.6195142	1	111.9575	-0.3170465	5.580642E-006	-0.0004887	9
	12	38	18984.38	112.5423	-0.7240066	1	112.5446	-0.3685898	1.235181E-005	-0.0006214	9
	13	40	15046.87	113.1711	-0.7192599	1	113.1734	-0.3641388	-2.127991E-005	0.0006363	9
	14	43	11953.13	113.6863	-0.937596	1	113.6902	-0.4725202	1.863958E-005	-0.000126	9
	15	45	9515.62	114.2414	-1.121797	1	114.2469	-0.5625997	-1.238735E-005	0.0008651	9
	16	47	7546.875	114.8429	-1.409476	1	114.8516	-0.70316	-6.317455E-006	0.0007862	9
	17	49	5928.309	115.3561	-1.793057	1	115.37	-0.8905151	6.002245E-006	-0.0004832	9
	18	52	4733.456	116.1016	-2.073998	1	116.1202	-1.023402	1.109691E-005	0.0002265	9
	19	54	3796.875	116.6452	-2.516192	1	116.6723	-1.235755	2.43731E-005	-0.0005884	9
	20	56	2987.132	117.2831	-3.096426	1	117.3239	-1.512332	-1.326377E-005	0.0008738	9
	21	59	2390.625	118.0063	-3.809038	1	118.0677	-1.848767	-1.767638E-005	0.0009003	9
	22	61	1884.191	118.6468	-4.598291	1	118.7358	-2.219453	-2.04192E-005	0.0006511	9
	23	63	1516.544	119.4365	-5.806907	1	119.5776	-2.783483	1.938725E-005	-0.0007034	9
	24	66	1193.986	120.1429	-7.110853	1	120.3532	-3.387192	6.01286E-006	-0.0004782	9
	25	68	946.5144	120.8969	-8.886301	1	121.223	-4.203861	-2.342778E-006	-0.0002425	9
	26	70	751.7689	121.8543	-10.92757	1	122.3433	-5.124427	1.131074E-005	0.0002316	9
	27	73	597.4265	122.6361	-13.6554	1	123.394	-6.353654	-2.088346E-005	0.0006697	9
	28	75	477.4305	123.6064	-16.73109	1	124.7336	-7.70858	1.376432E-006	9.496397E-005	9
	29	77	376.6741	124.6535	-20.86719	1	126.388	-9.50329	1.318712E-006	9.123127E-005	9
	30	80	298.2954	125.8065	-25.9489	1	128.4548	-11.65441	1.245716E-006	0.0000992	9
	31	82	237.7717	127.1113	-32.07941	1	131.0968	-14.16412	1.389553E-006	9.007478E-005	9
	32	84	189.0121	128.5927	-39.76326	1	134.6001	-17.18259	1.315283E-006	9.103028E-005	9
	33	87	150.2404	130.3102	-49.28426	1	139.3186	-20.71698	1.2662E-006	9.25963E-005	9
	34	89	119.1737	132.334	-61.20296	1	145.8015	-24.82001	1.269193E-006	9.084481E-005	9
	35	92	95.0169	134.7141	-75.61168	1	154.4831	-29.30441	1.331243E-006	9.047119E-005	9
	36	94	75.60484	137.6383	-93.56109	1	166.4271	-34.20631	1.271458E-006	0.0000974	9
	37	97	54.50582	142.6875	-126.7722	1	190.8689	-41.61981	1.252886E-006	8.955564E-005	9
	38	99	45.95588	146.3325	-148.5048	1	208.4871	-45.42213	1.330362E-006	9.468095E-005	9
	39	101	37.20238	151.538	-180.5006	1	235.6783	-49.9851	1.239119E-006	9.10306E-005	9
	40	104	30.04808	158.027	-219.736	1	270.6593	-54.27754	1.199604E-006	9.23941E-005	9
	41	106	23.91582	166.5937	-270.937	1	318.0571	-58.41349	1.294198E-006	8.404026E-005	9
	42	109	18.60119	178.3668	-340.899	1	384.7426	-62.38033	1.258919E-006	9.15873E-005	9
	43	111	15.02404	190.2834	-412.2083	1	454.0082	-65.22104	1.430439E-007	0.0006545	8
	44	113	12.01923	206.4937	-504.6017	1	545.2179	-67.74459	2.726174E-007	0.0006718	8
	45	116	9.450605	228.146	-626.9161	1	667.1389	-70.00265	2.192786E-007	0.0006608	8
	46	118	7.512019	253.9007	-771.064	1	811.7914	-71.774	1.887574E-007	0.00066	8
	47	121	5.978954	286.0807	-946.7224	1	989.002	-73.18623	2.077781E-007	0.0006719	8
	48	124	4.734848	326.7701	-1167.566	1	1212.431	-74.3645	1.720893E-007	0.0006413	8
	49	127	3.75601	378.5751	-1437.568	1	1486.58	-75.24645	2.543396E-007	0.0006817	8
	50	131	3.004808	440.2932	-1754.688	1	1809.085	-75.91395	2.444184E-007	0.0006476	8
	51	134	2.372217	525.3694	-2169.406	1	2232.114	-76.38665	2.132107E-007	0.0005955	8
	52	139	1.878005	628.4531	-2671.743	1	2744.661	-76.76339	2.442344E-007	0.0006761	8
	53	143	1.512097	752.0983	-3232.53	1	3318.871	-76.90227	2.201356E-007	0.000621	8
	54	149	1.201923	915.4943	-3972.366	1	4076.496	-77.0219	2.297033E-007	0.000694	8
	55	155	0.956633	1123.4	-4868.967	1	4996.886	-77.00771	-1.745163E-009	6.612824E-006	7
