EXPLAIN
TAG	EISPOT
TITLE	LABEL	Potentiostatic EIS	Test Identifier
DATE	LABEL	2/24/2021	Date
TIME	LABEL	15:47:57	Time
NOTES	NOTES	1	Notes...
	
PSTAT	PSTAT	REF3000-16137	Potentiostat
VDC	POTEN	0.00000E+000	T	DC Voltage (V)
FREQINIT	QUANT	3.00000E+005	Initial Freq. (Hz)
FREQFINAL	QUANT	1.00000E+000	Final Freq. (Hz)
PTSPERDEC	QUANT	1.00000E+001	Points/decade
VAC	QUANT	5.00000E+001	AC Voltage (mV rms)
AREA	QUANT	1.00000E+000	Sample Area (cm^2)
SPEED	SELECTOR	2	Optimize for:
ZGUESS	QUANT	1.00000E+003	Estimated Z (ohms)
EOC	QUANT	0	Open Circuit (V)
SEQUENCER	TOGGLE	TRUE	Run as Sequence
PSTATMODEL	IQUANT	5	Pstat Model
PSTATSECTION	LABEL	REF3000-16137	Pstat Section
PSTATSERIALNO	LABEL	16137	Pstat Serial Number
CTRLMODE	IQUANT	1	Control Mode
IESTAB	IQUANT	0	I/E Stability
CASPEED	IQUANT	1	Control Amp Speed
CONVENTION	IQUANT	1	Current Convention
ICHRANGE	IQUANT	2	Ich Range
ICHRANGEMODE	TOGGLE	F	Ich Auto Range
ICHOFFSETENABLE	TOGGLE	T	Ich Offset Enable
ICHOFFSET	QUANT	0	Ich Offset (V)
ICHFILTER	IQUANT	3	Ich Filter
VCHRANGE	IQUANT	2	Vch Range
VCHRANGEMODE	TOGGLE	F	Vch Auto Range
VCHOFFSETENABLE	TOGGLE	T	Vch Offset Enable
VCHOFFSET	QUANT	0	Vch Offset (V)
VCHFILTER	IQUANT	3	Vch Filter
ACHRANGE	IQUANT	2	Ach Range
ACHOFFSETENABLE	TOGGLE	F	Ach Offset Enable
ACHOFFSET	QUANT	0	Ach Offset (V)
ACHFILTER	IQUANT	3	Ach Filter
IERANGELOWERLIMIT	IQUANT	2	I/E Range Lower Limit
IERANGEMODE	TOGGLE	F	I/E AutoRange
IERANGE	IQUANT	11	I/E Range
POSFEEDENABLE	TOGGLE	F	Positive Feedback IR Comp
POSFEEDRESISTANCE	QUANT	0	Positive Feedback Resistance (ohm)
ACHSELECT	IQUANT	0	Ach Select
CABLEID	IQUANT	13	Cable ID
DCCALDATE	LABEL	7/31/2020	DC Calibration Date
ACCALDATE	LABEL	7/31/2020	AC Calibration Date
THERMOSELECT	IQUANT	1	Thermo Select
FRAMEWORKVERSION	QUANT	6.33	Framework Version
INSTRUMENTVERSION	LABEL	3.50	Instrument Version
COMPLIANCEVOLTAGE	IQUANT	0	Compliance Voltage
ZCURVE	TABLE
	Pt	Time	Freq	Zreal	Zimag	Zsig	Zmod	Zphz	Idc	Vdc	IERange
	#	s	Hz	ohm	ohm	V	ohm	°	A	V	#
	0	8	300046.9	20.09088	1.934844	1	20.18383	5.500881	2.219474E-005	0.0002781	10
	1	11	238359.4	20.13192	1.5494	1	20.19145	4.400943	2.083705E-005	0.000315	10
	2	14	189328.1	20.19359	1.217889	1	20.23028	3.451367	3.245286E-006	0.0006551	10
	3	17	150421.9	20.24262	0.9464726	1	20.26474	2.676996	4.234716E-005	0.000664	10
	4	19	119484.4	20.32733	0.726717	1	20.34032	2.047494	1.518145E-005	0.0005963	10
	5	22	94921.88	20.39136	0.5537342	1	20.39888	1.555504	1.825609E-005	0.0006955	10
	6	24	75421.88	20.46691	0.3873404	1	20.47057	1.084205	6.518366E-006	0.0006129	10
	7	27	59859.37	20.54094	0.2476353	1	20.54243	0.6907071	-1.7766E-005	0.0006503	10
	8	29	47578.12	20.61709	0.127073	1	20.61749	0.3531367	-2.860613E-005	0.0006626	10
	9	32	37828.12	20.69431	0.012741	1	20.69431	0.0352757	1.454389E-005	0.0006295	10
	10	34	30046.88	20.77007	-0.0969124	1	20.7703	-0.267338	1.406308E-005	0.0006513	10
	11	37	23859.38	20.85054	-0.2087917	1	20.85158	-0.5737255	-4.003034E-006	0.0007333	10
	12	39	18984.38	20.92611	-0.3297224	1	20.92871	-0.9027068	1.910211E-005	0.0006569	10
	13	42	15046.87	21.01234	-0.4644743	1	21.01748	-1.266307	2.417124E-005	0.000653	10
	14	44	11953.13	21.08644	-0.6189631	1	21.09552	-1.681355	1.322605E-005	0.0006254	10
	15	46	9515.62	21.17145	-0.8001055	1	21.18656	-2.164277	2.750613E-005	0.0006926	10
	16	49	7546.875	21.26027	-1.019899	1	21.28472	-2.74649	-2.424279E-005	0.0007172	10
	17	51	5928.309	21.35604	-1.297724	1	21.39544	-3.477366	2.07809E-005	0.0006885	10
	18	53	4733.456	21.45604	-1.614594	1	21.5167	-4.303469	-1.806359E-005	0.0006872	10
	19	55	3796.875	21.56566	-1.999629	1	21.65817	-5.297478	-2.599207E-006	0.0007454	10
	20	58	2987.132	21.68285	-2.51493	1	21.82822	-6.616004	-2.152813E-005	0.0007252	10
	21	60	2390.625	21.81135	-3.106454	1	22.03146	-8.105764	2.594456E-005	0.0006751	10
	22	62	1884.191	21.95254	-3.893235	1	22.2951	-10.05672	1.987552E-005	0.0006461	10
	23	65	1516.544	22.1186	-4.767984	1	22.62667	-12.16479	5.119702E-006	0.0007036	10
	24	67	1193.986	22.31646	-5.972425	1	23.10183	-14.98263	1.603833E-005	0.0006984	10
	25	70	946.5144	22.54428	-7.431884	1	23.73767	-18.24518	-3.048054E-005	0.0006862	10
	26	72	751.7689	22.81232	-9.215905	1	24.60355	-21.99812	1.430113E-005	0.000632	10
	27	74	597.4265	23.13058	-11.42825	1	25.79978	-26.29285	-3.804171E-006	0.0006558	10
	28	76	477.4305	23.51291	-14.10127	1	27.4172	-30.95215	-2.360401E-006	0.0006955	10
	29	79	376.6741	24.00763	-17.5956	1	29.76527	-36.23833	-1.946888E-006	0.000686	10
	30	81	298.2954	24.61918	-21.86882	1	32.92946	-41.61417	-1.953839E-006	0.0006927	10
	31	83	237.7717	25.37104	-26.99614	1	37.04701	-46.77748	-1.772962E-006	0.0006885	10
	32	86	189.0121	26.29565	-33.34859	1	42.46869	-51.74392	1.269002E-006	8.98099E-005	9
	33	88	150.2404	27.50182	-41.21394	1	49.54734	-56.28505	1.209434E-006	8.932794E-005	9
	34	91	119.1737	29.03951	-50.99193	1	58.68109	-60.33882	1.265384E-006	8.803264E-005	9
	35	93	95.0169	30.93143	-62.73712	1	69.94784	-63.75521	1.255862E-006	9.007471E-005	9
	36	96	75.60484	33.32015	-77.26775	1	84.14594	-66.67286	1.336455E-006	9.127482E-005	9
	37	98	54.50582	37.77169	-103.9825	1	110.6303	-70.03643	1.247124E-006	8.314999E-005	9
	38	101	45.95588	40.75308	-121.3734	1	128.0324	-71.43968	1.359968E-006	0.0000955	9
	39	103	37.20238	45.16009	-146.9157	1	153.6999	-72.91321	1.278861E-006	9.141126E-005	9
	40	105	30.04808	50.65335	-178.1645	1	185.2251	-74.1292	1.286445E-006	8.789583E-005	9
	41	108	23.91582	57.97232	-218.8727	1	226.4201	-75.16486	1.343954E-006	8.68843E-005	9
	42	110	18.60119	68.19964	-274.3239	1	282.6743	-76.03874	1.160219E-006	9.311066E-005	9
	43	112	15.02404	79.38239	-332.3153	1	341.665	-76.56513	1.479423E-006	0.0001015	9
	44	115	12.01923	94.03138	-405.785	1	416.5374	-76.95329	1.453343E-006	9.256349E-005	9
	45	117	9.450605	113.5556	-500.4976	1	513.218	-77.21684	5.893457E-007	0.0006595	8
	46	120	7.512019	138.2472	-613.4514	1	628.8362	-77.3	6.352835E-007	0.000673	8
	47	122	5.978954	168.7751	-749.5453	1	768.312	-77.31035	6.081999E-007	0.0006676	8
	48	125	4.734848	208.7297	-918.7391	1	942.1516	-77.20016	6.198258E-007	0.0006957	8
	49	129	3.75601	258.4474	-1122.789	1	1152.15	-77.03725	5.119247E-007	0.0006551	8
	50	132	3.004808	317.5228	-1359.226	1	1395.821	-76.85119	5.848311E-007	0.0006607	8
	51	136	2.372217	394.7507	-1659.858	1	1706.153	-76.62232	5.800046E-007	0.0006701	8
	52	140	1.878005	488.7913	-2026.051	1	2084.179	-76.43639	5.469274E-007	0.0006752	8
	53	145	1.512097	587.6675	-2432.675	1	2502.651	-76.41911	5.674592E-007	0.000567	8
	54	150	1.201923	716.5731	-2955.121	1	3040.759	-76.36971	5.445127E-007	0.0006818	8
	55	156	0.956633	861.361	-3584.416	1	3686.459	-76.48763	5.473945E-007	2.267578E-005	8
