EXPLAIN
TAG	EISPOT
TITLE	LABEL	Potentiostatic EIS	Test Identifier
DATE	LABEL	2/24/2021	Date
TIME	LABEL	14:51:45	Time
NOTES	NOTES	1	Notes...
	
PSTAT	PSTAT	REF3000-16137	Potentiostat
VDC	POTEN	0.00000E+000	T	DC Voltage (V)
FREQINIT	QUANT	3.00000E+005	Initial Freq. (Hz)
FREQFINAL	QUANT	1.00000E+000	Final Freq. (Hz)
PTSPERDEC	QUANT	1.00000E+001	Points/decade
VAC	QUANT	5.00000E+001	AC Voltage (mV rms)
AREA	QUANT	1.00000E+000	Sample Area (cm^2)
SPEED	SELECTOR	2	Optimize for:
ZGUESS	QUANT	1.00000E+003	Estimated Z (ohms)
EOC	QUANT	0	Open Circuit (V)
SEQUENCER	TOGGLE	TRUE	Run as Sequence
PSTATMODEL	IQUANT	5	Pstat Model
PSTATSECTION	LABEL	REF3000-16137	Pstat Section
PSTATSERIALNO	LABEL	16137	Pstat Serial Number
CTRLMODE	IQUANT	1	Control Mode
IESTAB	IQUANT	0	I/E Stability
CASPEED	IQUANT	1	Control Amp Speed
CONVENTION	IQUANT	1	Current Convention
ICHRANGE	IQUANT	2	Ich Range
ICHRANGEMODE	TOGGLE	F	Ich Auto Range
ICHOFFSETENABLE	TOGGLE	T	Ich Offset Enable
ICHOFFSET	QUANT	0	Ich Offset (V)
ICHFILTER	IQUANT	3	Ich Filter
VCHRANGE	IQUANT	2	Vch Range
VCHRANGEMODE	TOGGLE	F	Vch Auto Range
VCHOFFSETENABLE	TOGGLE	T	Vch Offset Enable
VCHOFFSET	QUANT	0	Vch Offset (V)
VCHFILTER	IQUANT	3	Vch Filter
ACHRANGE	IQUANT	2	Ach Range
ACHOFFSETENABLE	TOGGLE	F	Ach Offset Enable
ACHOFFSET	QUANT	0	Ach Offset (V)
ACHFILTER	IQUANT	3	Ach Filter
IERANGELOWERLIMIT	IQUANT	2	I/E Range Lower Limit
IERANGEMODE	TOGGLE	F	I/E AutoRange
IERANGE	IQUANT	11	I/E Range
POSFEEDENABLE	TOGGLE	F	Positive Feedback IR Comp
POSFEEDRESISTANCE	QUANT	0	Positive Feedback Resistance (ohm)
ACHSELECT	IQUANT	0	Ach Select
CABLEID	IQUANT	13	Cable ID
DCCALDATE	LABEL	7/31/2020	DC Calibration Date
ACCALDATE	LABEL	7/31/2020	AC Calibration Date
THERMOSELECT	IQUANT	1	Thermo Select
FRAMEWORKVERSION	QUANT	6.33	Framework Version
INSTRUMENTVERSION	LABEL	3.50	Instrument Version
COMPLIANCEVOLTAGE	IQUANT	0	Compliance Voltage
ZCURVE	TABLE
	Pt	Time	Freq	Zreal	Zimag	Zsig	Zmod	Zphz	Idc	Vdc	IERange
	#	s	Hz	ohm	ohm	V	ohm	°	A	V	#
	0	10	300046.9	2.147949	2.237645	1	3.101732	46.17167	-8.122905E-005	-0.0002176	11
	1	13	238359.4	2.107653	1.768099	1	2.751068	39.99311	8.159409E-005	-0.000249	11
	2	16	189328.1	2.159865	1.252988	1	2.496997	30.11901	-3.449497E-005	0.0001425	12
	3	20	150421.9	2.108377	0.986074	1	2.327573	25.06518	-0.000159	0.0002122	12
	4	23	119484.4	2.05067	0.8607128	1	2.223977	22.7689	-4.400589E-005	0.0004031	11
	5	26	94921.88	2.043997	0.6602994	1	2.148003	17.9027	-3.855681E-005	0.0005023	11
	6	28	75421.88	2.039352	0.4940996	1	2.098354	13.61933	-5.841051E-005	0.0004925	11
	7	31	59859.37	2.039552	0.3539476	1	2.070036	9.84516	-3.670921E-005	0.0005717	11
	8	33	47578.12	2.041045	0.2338067	1	2.054393	6.534887	1.340395E-005	0.0006496	11
	9	36	37828.12	2.043598	0.1266485	1	2.047518	3.546272	5.025654E-006	0.0006566	11
	10	39	30046.88	2.047402	0.0271224	1	2.047581	0.7589669	-3.467425E-005	0.0006598	11
	11	41	23859.38	2.05235	-0.0703952	1	2.053557	-1.964463	1.866518E-005	0.0007031	11
	12	43	18984.38	2.058973	-0.1689857	1	2.065896	-4.691908	-5.041538E-005	0.0006582	11
	13	46	15046.87	2.067012	-0.2767935	1	2.085462	-7.627102	-1.640269E-005	0.0006707	11
	14	48	11953.13	2.078054	-0.3957633	1	2.115405	-10.78279	7.2829E-006	0.000704	11
	15	50	9515.62	2.090918	-0.5314904	1	2.15741	-14.26197	1.903959E-005	0.0007272	11
	16	53	7546.875	2.107841	-0.6949644	1	2.219453	-18.24761	-5.264998E-005	0.000677	11
	17	55	5928.309	2.130538	-0.899303	1	2.312561	-22.88468	-1.059884E-005	0.0006943	11
	18	57	4733.456	2.158278	-1.130615	1	2.436484	-27.64783	-1.165339E-005	0.0007057	11
	19	60	3796.875	2.193465	-1.404709	1	2.604706	-32.63577	3.239407E-006	0.0007142	11
	20	62	2987.132	2.241099	-1.770903	1	2.85633	-38.31558	-3.429822E-005	0.0007292	11
	21	64	2390.625	2.29839	-2.187782	1	3.173166	-43.58764	1.84648E-005	0.000739	11
	22	67	1884.191	2.378436	-2.732939	1	3.62297	-48.96743	-3.594181E-005	0.0007199	11
	23	69	1516.544	2.473474	-3.344782	1	4.160005	-53.51699	-1.092344E-005	0.0006726	10
	24	71	1193.986	2.602165	-4.167669	1	4.913321	-58.02061	-2.063303E-005	0.0007122	10
	25	74	946.5144	2.75801	-5.155387	1	5.846763	-61.85427	1.83421E-005	0.0006668	10
	26	76	751.7689	2.959823	-6.355386	1	7.010812	-65.02772	2.06895E-005	0.0006754	10
	27	78	597.4265	3.207009	-7.82833	1	8.459766	-67.7227	-2.596682E-005	0.0006889	10
	28	81	477.4305	3.51387	-9.58414	1	10.20799	-69.86536	-1.026105E-006	0.0006787	10
	29	83	376.6741	3.920658	-11.86572	1	12.49667	-71.71546	-2.875803E-006	0.0006858	10
	30	85	298.2954	4.42944	-14.63459	1	15.29023	-73.16055	-3.200438E-006	0.0006924	10
	31	88	237.7717	5.057078	-17.93099	1	18.63047	-74.24995	-2.864614E-006	0.0006807	10
	32	90	189.0121	5.862426	-22.01019	1	22.77754	-75.08549	-2.892723E-006	0.0006861	10
	33	92	150.2404	6.886497	-26.99036	1	27.85505	-75.68657	-2.83381E-006	0.0006787	10
	34	95	119.1737	8.202585	-33.13921	1	34.13927	-76.09762	-3.296241E-006	0.0006797	10
	35	97	95.0169	9.83458	-40.4371	1	41.61583	-76.33066	-3.074535E-006	0.0006799	10
	36	100	75.60484	11.9005	-49.30576	1	50.72159	-76.43055	-3.152082E-007	7.831377E-005	9
	37	102	54.50582	15.81475	-65.41671	1	67.30121	-76.40929	-4.767627E-007	9.018103E-005	9
	38	105	45.95588	18.40068	-75.74895	1	77.95183	-76.34637	-3.069782E-008	7.993121E-005	9
	39	107	37.20238	22.1691	-90.67751	1	93.34817	-76.26165	-1.644779E-007	8.148958E-005	9
	40	109	30.04808	26.74613	-108.7072	1	111.9491	-76.17759	-3.777425E-007	7.816304E-005	9
	41	112	23.91582	32.55172	-131.7924	1	135.7529	-76.12606	-5.190212E-007	7.099371E-005	9
	42	114	18.60119	40.45935	-163.1597	1	168.1013	-76.07307	-3.513757E-007	8.43994E-005	9
	43	116	15.02404	48.54676	-195.5666	1	201.5021	-76.0589	-2.444952E-008	8.622252E-005	9
	44	119	12.01923	58.9678	-236.6123	1	243.8495	-76.00599	-4.39911E-007	7.502481E-005	9
	45	121	9.450605	72.80489	-290.6219	1	299.6024	-75.93604	-2.062149E-007	9.010288E-005	9
	46	124	7.512019	89.75842	-354.1921	1	365.3883	-75.77962	-1.838993E-007	8.15223E-005	9
	47	126	5.978954	110.8243	-428.9577	1	443.0426	-75.51398	-8.357613E-007	0.0006613	8
	48	129	4.734848	139.7155	-524.4827	1	542.7729	-75.08353	-7.188208E-007	0.0006554	8
	49	133	3.75601	177.271	-639.6121	1	663.7233	-74.50908	-7.876471E-007	0.0006595	8
	50	136	3.004808	225.3644	-773.0805	1	805.2593	-73.74782	-6.483252E-007	0.0006238	8
	51	140	2.372217	294.6803	-942.8544	1	987.831	-72.64386	-7.3044E-007	0.0006173	8
	52	144	1.878005	390.8239	-1142.826	1	1207.806	-71.12033	-7.286981E-007	0.0006731	8
	53	149	1.512097	510.1501	-1359.446	1	1452.014	-69.43073	-6.881835E-007	0.0005537	8
	54	154	1.201923	679.8685	-1623.537	1	1760.14	-67.27813	-7.100543E-007	0.0006746	8
	55	161	0.956633	904.8491	-1913.381	1	2116.549	-64.69025	-7.820602E-007	2.22648E-005	8
