EXPLAIN
TAG	EISPOT
TITLE	LABEL	Potentiostatic EIS	Test Identifier
DATE	LABEL	2/25/2021	Date
TIME	LABEL	16:25:36	Time
NOTES	NOTES	1	Notes...
	
PSTAT	PSTAT	REF3000-16137	Potentiostat
VDC	POTEN	0.00000E+000	T	DC Voltage (V)
FREQINIT	QUANT	3.00000E+005	Initial Freq. (Hz)
FREQFINAL	QUANT	1.00000E+000	Final Freq. (Hz)
PTSPERDEC	QUANT	1.00000E+001	Points/decade
VAC	QUANT	5.00000E+001	AC Voltage (mV rms)
AREA	QUANT	1.00000E+000	Sample Area (cm^2)
SPEED	SELECTOR	2	Optimize for:
ZGUESS	QUANT	1.00000E+003	Estimated Z (ohms)
EOC	QUANT	0	Open Circuit (V)
SEQUENCER	TOGGLE	TRUE	Run as Sequence
PSTATMODEL	IQUANT	5	Pstat Model
PSTATSECTION	LABEL	REF3000-16137	Pstat Section
PSTATSERIALNO	LABEL	16137	Pstat Serial Number
CTRLMODE	IQUANT	1	Control Mode
IESTAB	IQUANT	0	I/E Stability
CASPEED	IQUANT	1	Control Amp Speed
CONVENTION	IQUANT	1	Current Convention
ICHRANGE	IQUANT	2	Ich Range
ICHRANGEMODE	TOGGLE	F	Ich Auto Range
ICHOFFSETENABLE	TOGGLE	T	Ich Offset Enable
ICHOFFSET	QUANT	0	Ich Offset (V)
ICHFILTER	IQUANT	3	Ich Filter
VCHRANGE	IQUANT	2	Vch Range
VCHRANGEMODE	TOGGLE	F	Vch Auto Range
VCHOFFSETENABLE	TOGGLE	T	Vch Offset Enable
VCHOFFSET	QUANT	0	Vch Offset (V)
VCHFILTER	IQUANT	3	Vch Filter
ACHRANGE	IQUANT	2	Ach Range
ACHOFFSETENABLE	TOGGLE	F	Ach Offset Enable
ACHOFFSET	QUANT	0	Ach Offset (V)
ACHFILTER	IQUANT	3	Ach Filter
IERANGELOWERLIMIT	IQUANT	2	I/E Range Lower Limit
IERANGEMODE	TOGGLE	F	I/E AutoRange
IERANGE	IQUANT	11	I/E Range
POSFEEDENABLE	TOGGLE	F	Positive Feedback IR Comp
POSFEEDRESISTANCE	QUANT	0	Positive Feedback Resistance (ohm)
ACHSELECT	IQUANT	0	Ach Select
CABLEID	IQUANT	13	Cable ID
DCCALDATE	LABEL	7/31/2020	DC Calibration Date
ACCALDATE	LABEL	7/31/2020	AC Calibration Date
THERMOSELECT	IQUANT	1	Thermo Select
FRAMEWORKVERSION	QUANT	6.33	Framework Version
INSTRUMENTVERSION	LABEL	3.50	Instrument Version
COMPLIANCEVOLTAGE	IQUANT	0	Compliance Voltage
ZCURVE	TABLE
	Pt	Time	Freq	Zreal	Zimag	Zsig	Zmod	Zphz	Idc	Vdc	IERange
	#	s	Hz	ohm	ohm	V	ohm	°	A	V	#
	0	8	300046.9	222.5292	-24.93265	1	223.9216	-6.392881	2.752949E-005	-0.000691	9
	1	13	238359.4	224.9778	-21.49831	1	226.0026	-5.458467	-1.675286E-005	0.0008712	9
	2	16	189328.1	226.9679	-18.24719	1	227.7002	-4.596436	-7.648106E-006	-0.0014255	9
	3	19	150421.9	229.4444	-15.59073	1	229.9735	-3.887269	7.183911E-005	-0.0015567	9
	4	23	119484.4	230.6545	-13.23162	1	231.0337	-3.283206	7.689908E-005	-0.0028528	9
	5	26	94921.88	231.4644	-12.14511	1	231.7828	-3.003597	7.349911E-006	-0.0006071	9
	6	28	75421.88	232.7108	-10.62726	1	232.9533	-2.614723	2.757799E-005	-0.0006966	9
	7	31	59859.37	233.9256	-9.41782	1	234.1151	-2.305477	1.549409E-005	-0.000796	9
	8	33	47578.12	234.9294	-8.698867	1	235.0904	-2.120555	-1.906044E-005	0.0003299	9
	9	36	37828.12	235.9193	-7.777317	1	236.0475	-1.888129	2.038752E-005	-0.0001162	9
	10	38	30046.88	237.0226	-7.445493	1	237.1396	-1.799217	-1.028916E-005	-5.123921E-005	9
	11	42	23859.38	237.9631	-7.099166	1	238.069	-1.708801	2.170683E-005	-0.0008462	9
	12	45	18984.38	238.7954	-6.77504	1	238.8915	-1.625145	-2.285853E-005	0.0007071	9
	13	49	15046.87	240.4502	-7.184055	1	240.5575	-1.711346	6.649653E-006	0.0007354	10
	14	52	11953.13	240.3665	-7.158509	1	240.4731	-1.705858	-1.625649E-005	0.0009401	9
	15	56	9515.62	241.8499	-7.107627	1	241.9543	-1.683357	2.204743E-005	-0.0008026	9
	16	59	7546.875	242.5605	-7.730317	1	242.6836	-1.825378	-2.355231E-005	0.0008379	9
	17	63	5928.309	244.1006	-8.838998	1	244.2606	-2.073801	-2.587528E-005	0.0007091	10
	18	66	4733.456	244.7157	-9.275038	1	244.8914	-2.170545	1.519736E-005	-0.0007588	9
	19	70	3796.875	245.9492	-10.56044	1	246.1758	-2.458626	-1.948256E-005	0.0004033	9
	20	74	2987.132	247.6017	-11.98632	1	247.8917	-2.771506	2.315581E-005	0.0006928	10
	21	77	2390.625	248.7617	-13.88195	1	249.1487	-3.194032	8.503172E-006	0.0006218	10
	22	81	1884.191	250.217	-16.78389	1	250.7792	-3.837501	2.759487E-005	-0.0006478	9
	23	84	1516.544	251.2726	-19.03871	1	251.9929	-4.332973	-2.334842E-005	0.0008588	9
	24	88	1193.986	253.6477	-21.99924	1	254.5999	-4.956942	-2.157595E-005	0.0005089	9
	25	91	946.5144	255.6309	-25.92532	1	256.9421	-5.790967	2.438669E-005	-0.0002669	9
	26	95	751.7689	257.3486	-31.79123	1	259.3048	-7.042282	-1.598834E-005	0.0009892	9
	27	98	597.4265	260.4512	-37.53131	1	263.1414	-8.199941	-2.368143E-005	0.000881	9
	28	102	477.4305	263.3057	-43.97184	1	266.9521	-9.480858	1.191313E-006	0.0000975	9
	29	104	376.6741	266.7906	-52.67544	1	271.941	-11.16889	1.134347E-006	8.370509E-005	9
	30	107	298.2954	270.7845	-62.97307	1	278.0105	-13.09188	1.204844E-006	7.89484E-005	9
	31	109	237.7717	275.3051	-74.97941	1	285.3328	-15.23501	1.178842E-006	7.655376E-005	9
	32	111	189.0121	280.5789	-89.54307	1	294.5208	-17.6998	1.253295E-006	7.680197E-005	9
	33	114	150.2404	286.6807	-107.0465	1	306.0143	-20.47562	1.235933E-006	8.125546E-005	9
	34	116	119.1737	293.7654	-128.3427	1	320.5775	-23.59997	1.237544E-006	8.631376E-005	9
	35	118	95.0169	301.7425	-153.461	1	338.5244	-26.9571	1.153386E-006	8.36298E-005	9
	36	121	75.60484	310.9938	-184.1063	1	361.4032	-30.62525	1.210212E-006	8.317309E-005	9
	37	124	54.50582	325.2627	-238.6478	1	403.4211	-36.26779	-7.448769E-008	0.0006573	8
	38	126	45.95588	334.9423	-274.3419	1	432.9548	-39.31996	-4.952629E-008	0.000663	8
	39	128	37.20238	348.5052	-326.4998	1	477.5541	-43.1328	-7.143039E-008	0.000657	8
	40	131	30.04808	364.5368	-389.9735	1	533.8225	-46.93087	-9.124723E-008	0.0006543	8
	41	133	23.91582	384.7619	-472.1957	1	609.1063	-50.82562	-2.316898E-008	0.0006468	8
	42	136	18.60119	411.7997	-584.0115	1	714.5966	-54.81147	3.125651E-008	0.0006602	8
	43	138	15.02404	440.009	-700.1039	1	826.8939	-57.85101	-1.531423E-007	0.0006584	8
	44	140	12.01923	476.0525	-846.4326	1	971.12	-60.64563	4.150525E-009	0.0006678	8
	45	143	9.450605	523.5182	-1039.007	1	1163.446	-63.2581	-1.432781E-007	0.0006691	8
	46	145	7.512019	579.7167	-1263.507	1	1390.152	-65.35361	-8.640782E-008	0.0006545	8
	47	148	5.978954	647.9385	-1533.628	1	1664.884	-67.09655	-6.630085E-008	0.0006603	8
	48	151	4.734848	734.2084	-1871.026	1	2009.925	-68.57449	-1.767245E-008	0.0006596	8
	49	154	3.75601	838.6899	-2275.556	1	2425.192	-69.76788	-8.736245E-008	0.0006528	8
	50	158	3.004808	962.51	-2745.802	1	2909.615	-70.68246	-3.010829E-008	0.000629	8
	51	161	2.372217	1120.869	-3350.315	1	3532.84	-71.50201	-5.664295E-008	0.0006034	8
	52	166	1.878005	1321.066	-4083.912	1	4292.267	-72.07462	-9.164687E-008	0.0006397	7
	53	170	1.512097	1541.003	-4892.02	1	5128.991	-72.5154	-9.638141E-008	0.0005383	7
	54	176	1.201923	1810.581	-5938.168	1	6208.063	-73.04324	-9.433661E-008	0.0006547	7
	55	182	0.956633	2130.429	-7190.077	1	7499.062	-73.49538	-9.93678E-008	-1.187486E-005	7
