EXPLAIN
TAG	EISPOT
TITLE	LABEL	Potentiostatic EIS	Test Identifier
DATE	LABEL	2/25/2021	Date
TIME	LABEL	16:22:44	Time
NOTES	NOTES	1	Notes...
	
PSTAT	PSTAT	REF3000-16137	Potentiostat
VDC	POTEN	0.00000E+000	T	DC Voltage (V)
FREQINIT	QUANT	3.00000E+005	Initial Freq. (Hz)
FREQFINAL	QUANT	1.00000E+000	Final Freq. (Hz)
PTSPERDEC	QUANT	1.00000E+001	Points/decade
VAC	QUANT	5.00000E+001	AC Voltage (mV rms)
AREA	QUANT	1.00000E+000	Sample Area (cm^2)
SPEED	SELECTOR	2	Optimize for:
ZGUESS	QUANT	1.00000E+003	Estimated Z (ohms)
EOC	QUANT	0	Open Circuit (V)
SEQUENCER	TOGGLE	TRUE	Run as Sequence
PSTATMODEL	IQUANT	5	Pstat Model
PSTATSECTION	LABEL	REF3000-16137	Pstat Section
PSTATSERIALNO	LABEL	16137	Pstat Serial Number
CTRLMODE	IQUANT	1	Control Mode
IESTAB	IQUANT	0	I/E Stability
CASPEED	IQUANT	1	Control Amp Speed
CONVENTION	IQUANT	1	Current Convention
ICHRANGE	IQUANT	2	Ich Range
ICHRANGEMODE	TOGGLE	F	Ich Auto Range
ICHOFFSETENABLE	TOGGLE	T	Ich Offset Enable
ICHOFFSET	QUANT	0	Ich Offset (V)
ICHFILTER	IQUANT	3	Ich Filter
VCHRANGE	IQUANT	2	Vch Range
VCHRANGEMODE	TOGGLE	F	Vch Auto Range
VCHOFFSETENABLE	TOGGLE	T	Vch Offset Enable
VCHOFFSET	QUANT	0	Vch Offset (V)
VCHFILTER	IQUANT	3	Vch Filter
ACHRANGE	IQUANT	2	Ach Range
ACHOFFSETENABLE	TOGGLE	F	Ach Offset Enable
ACHOFFSET	QUANT	0	Ach Offset (V)
ACHFILTER	IQUANT	3	Ach Filter
IERANGELOWERLIMIT	IQUANT	2	I/E Range Lower Limit
IERANGEMODE	TOGGLE	F	I/E AutoRange
IERANGE	IQUANT	11	I/E Range
POSFEEDENABLE	TOGGLE	F	Positive Feedback IR Comp
POSFEEDRESISTANCE	QUANT	0	Positive Feedback Resistance (ohm)
ACHSELECT	IQUANT	0	Ach Select
CABLEID	IQUANT	13	Cable ID
DCCALDATE	LABEL	7/31/2020	DC Calibration Date
ACCALDATE	LABEL	7/31/2020	AC Calibration Date
THERMOSELECT	IQUANT	1	Thermo Select
FRAMEWORKVERSION	QUANT	6.33	Framework Version
INSTRUMENTVERSION	LABEL	3.50	Instrument Version
COMPLIANCEVOLTAGE	IQUANT	0	Compliance Voltage
ZCURVE	TABLE
	Pt	Time	Freq	Zreal	Zimag	Zsig	Zmod	Zphz	Idc	Vdc	IERange
	#	s	Hz	ohm	ohm	V	ohm	°	A	V	#
	0	7	300046.9	207.0308	-20.76575	1	208.0696	-5.727766	-2.086537E-005	0.0008586	9
	1	12	238359.4	209.0441	-18.15647	1	209.8311	-4.963953	-9.222221E-005	0.0031416	9
	2	15	189328.1	211.2315	-16.37073	1	211.8649	-4.431642	-8.937387E-005	0.0032393	9
	3	20	150421.9	212.4862	-13.6908	1	212.9268	-3.686555	-6.298229E-006	0.0015038	9
	4	22	119484.4	213.5632	-11.96881	1	213.8983	-3.207696	-1.377278E-005	0.0012631	9
	5	26	94921.88	214.9164	-10.4153	1	215.1686	-2.774503	-2.314386E-005	0.0008801	9
	6	28	75421.88	215.9328	-9.311728	1	216.1335	-2.469251	-2.162169E-006	-0.0003532	9
	7	31	59859.37	216.9053	-8.328779	1	217.0652	-2.198976	-1.026475E-005	-4.739178E-005	9
	8	33	47578.12	217.7459	-7.60328	1	217.8786	-1.999849	-7.74109E-006	0.0008756	9
	9	36	37828.12	218.6562	-7.033983	1	218.7693	-1.842521	-2.167867E-005	0.0004815	9
	10	38	30046.88	219.6325	-6.596727	1	219.7315	-1.720379	1.974855E-005	-0.000098	9
	11	41	23859.38	220.3012	-6.191636	1	220.3882	-1.609892	-1.590097E-005	0.0001621	9
	12	43	18984.38	221.0148	-6.153681	1	221.1004	-1.594865	6.153717E-006	-0.0005876	9
	13	45	15046.87	221.8097	-6.211453	1	221.8967	-1.604064	-9.515398E-006	-4.470451E-005	9
	14	48	11953.13	222.2551	-6.405961	1	222.3474	-1.650954	6.639851E-006	-0.0005741	9
	15	50	9515.62	223.3426	-6.798845	1	223.446	-1.743621	1.481129E-006	0.0005446	9
	16	52	7546.875	224.5683	-6.985825	1	224.6769	-1.781771	-2.296048E-005	0.0007252	9
	17	55	5928.309	224.8424	-8.101241	1	224.9883	-2.063518	2.396532E-005	-0.0002436	9
	18	57	4733.456	225.9197	-8.834562	1	226.0924	-2.239403	-2.328334E-005	0.0007012	9
	19	59	3796.875	226.9712	-9.98397	1	227.1907	-2.518694	-8.580475E-006	0.0009485	9
	20	62	2987.132	227.9368	-11.58225	1	228.2309	-2.908892	1.153687E-005	0.0002894	9
	21	64	2390.625	228.9367	-13.03423	1	229.3074	-3.258548	1.626735E-005	-0.0007698	9
	22	66	1884.191	230.1896	-16.1674	1	230.7567	-4.017579	7.072706E-006	-0.0005959	9
	23	69	1516.544	231.4595	-17.82642	1	232.145	-4.40408	-1.038705E-005	-4.177468E-005	9
	24	71	1193.986	232.8804	-21.1053	1	233.8348	-5.178409	-2.05569E-005	0.0009563	9
	25	73	946.5144	234.7014	-25.21646	1	236.0522	-6.132369	2.434326E-005	-0.0002868	9
	26	76	751.7689	236.8633	-29.64811	1	238.7116	-7.134591	-2.334252E-005	0.0008653	9
	27	79	597.4265	239.1955	-35.46592	1	241.8105	-8.433895	1.376528E-006	0.0006055	9
	28	83	477.4305	241.988	-41.92331	1	245.5927	-9.82867	1.179274E-006	8.949519E-005	9
	29	85	376.6741	245.2577	-50.22262	1	250.347	-11.57275	1.27674E-006	8.21774E-005	9
	30	87	298.2954	248.9811	-60.07761	1	256.1268	-13.56581	1.284238E-006	8.571061E-005	9
	31	89	237.7717	253.1936	-71.57104	1	263.1148	-15.78418	1.276893E-006	8.260832E-005	9
	32	92	189.0121	258.1192	-85.53631	1	271.9228	-18.33432	1.252065E-006	8.47708E-005	9
	33	94	150.2404	263.8012	-102.3358	1	282.9553	-21.20265	1.174682E-006	8.426328E-005	9
	34	97	119.1737	270.4135	-122.8159	1	296.997	-24.42651	1.277981E-006	8.180212E-005	9
	35	99	95.0169	277.8557	-147.0168	1	314.3529	-27.88386	1.228107E-006	8.069982E-005	9
	36	102	75.60484	286.5181	-176.5666	1	336.5537	-31.64343	1.222485E-006	8.486871E-005	9
	37	104	54.50582	301.2111	-230.2459	1	379.1323	-37.39431	1.286524E-006	7.699742E-005	9
	38	107	45.95588	309.0777	-263.7779	1	406.3346	-40.47862	-8.684386E-008	0.0006641	8
	39	109	37.20238	321.9428	-314.2077	1	449.8596	-44.30336	-1.047775E-007	0.0006719	8
	40	111	30.04808	337.1653	-375.6299	1	504.7557	-48.08886	-3.246189E-008	0.0006561	8
	41	114	23.91582	356.5964	-455.2621	1	578.2946	-51.92921	-3.526143E-008	0.0006565	8
	42	116	18.60119	382.6472	-563.3963	1	681.0538	-55.81646	2.723389E-008	0.0006641	8
	43	118	15.02404	409.8976	-675.4427	1	790.0879	-58.7482	-3.895872E-008	0.0006653	8
	44	121	12.01923	444.4759	-817.1406	1	930.2029	-61.45644	-4.998586E-008	0.0006603	8
	45	123	9.450605	490.4768	-1003.147	1	1116.634	-63.94422	-7.83514E-008	0.0006817	8
	46	126	7.512019	545.3952	-1219.926	1	1336.291	-65.9119	-8.922027E-008	0.0006644	8
	47	129	5.978954	611.7837	-1480.41	1	1601.841	-67.547	-5.11179E-008	0.0006503	8
	48	132	4.734848	696.0445	-1805.311	1	1934.846	-68.91567	-2.986991E-008	0.000673	8
	49	135	3.75601	798.6908	-2194.363	1	2335.195	-69.99982	-3.119186E-008	0.0006481	8
	50	138	3.004808	917.6104	-2645.826	1	2800.429	-70.87272	-4.556815E-008	0.0006414	8
	51	142	2.372217	1076.441	-3225.179	1	3400.075	-71.54297	-5.60869E-008	0.0005983	8
	52	146	1.878005	1259.389	-3929.228	1	4126.123	-72.22841	-2.1652E-008	0.0006566	8
	53	151	1.512097	1462.634	-4714.891	1	4936.547	-72.76527	-9.934637E-008	0.0006856	7
	54	156	1.201923	1732.525	-5722.074	1	5978.609	-73.15478	-8.372308E-008	0.0006431	7
	55	162	0.956633	2041.748	-6922.148	1	7216.984	-73.56612	-1.1112E-007	-9.49997E-006	7
