EXPLAIN
TAG	EISPOT
TITLE	LABEL	Potentiostatic EIS	Test Identifier
DATE	LABEL	2/25/2021	Date
TIME	LABEL	16:08:54	Time
NOTES	NOTES	1	Notes...
	
PSTAT	PSTAT	REF3000-16137	Potentiostat
VDC	POTEN	0.00000E+000	T	DC Voltage (V)
FREQINIT	QUANT	3.00000E+005	Initial Freq. (Hz)
FREQFINAL	QUANT	1.00000E+000	Final Freq. (Hz)
PTSPERDEC	QUANT	1.00000E+001	Points/decade
VAC	QUANT	5.00000E+001	AC Voltage (mV rms)
AREA	QUANT	1.00000E+000	Sample Area (cm^2)
SPEED	SELECTOR	2	Optimize for:
ZGUESS	QUANT	1.00000E+003	Estimated Z (ohms)
EOC	QUANT	0	Open Circuit (V)
SEQUENCER	TOGGLE	TRUE	Run as Sequence
PSTATMODEL	IQUANT	5	Pstat Model
PSTATSECTION	LABEL	REF3000-16137	Pstat Section
PSTATSERIALNO	LABEL	16137	Pstat Serial Number
CTRLMODE	IQUANT	1	Control Mode
IESTAB	IQUANT	0	I/E Stability
CASPEED	IQUANT	1	Control Amp Speed
CONVENTION	IQUANT	1	Current Convention
ICHRANGE	IQUANT	2	Ich Range
ICHRANGEMODE	TOGGLE	F	Ich Auto Range
ICHOFFSETENABLE	TOGGLE	T	Ich Offset Enable
ICHOFFSET	QUANT	0	Ich Offset (V)
ICHFILTER	IQUANT	3	Ich Filter
VCHRANGE	IQUANT	2	Vch Range
VCHRANGEMODE	TOGGLE	F	Vch Auto Range
VCHOFFSETENABLE	TOGGLE	T	Vch Offset Enable
VCHOFFSET	QUANT	0	Vch Offset (V)
VCHFILTER	IQUANT	3	Vch Filter
ACHRANGE	IQUANT	2	Ach Range
ACHOFFSETENABLE	TOGGLE	F	Ach Offset Enable
ACHOFFSET	QUANT	0	Ach Offset (V)
ACHFILTER	IQUANT	3	Ach Filter
IERANGELOWERLIMIT	IQUANT	2	I/E Range Lower Limit
IERANGEMODE	TOGGLE	F	I/E AutoRange
IERANGE	IQUANT	11	I/E Range
POSFEEDENABLE	TOGGLE	F	Positive Feedback IR Comp
POSFEEDRESISTANCE	QUANT	0	Positive Feedback Resistance (ohm)
ACHSELECT	IQUANT	0	Ach Select
CABLEID	IQUANT	13	Cable ID
DCCALDATE	LABEL	7/31/2020	DC Calibration Date
ACCALDATE	LABEL	7/31/2020	AC Calibration Date
THERMOSELECT	IQUANT	1	Thermo Select
FRAMEWORKVERSION	QUANT	6.33	Framework Version
INSTRUMENTVERSION	LABEL	3.50	Instrument Version
COMPLIANCEVOLTAGE	IQUANT	0	Compliance Voltage
ZCURVE	TABLE
	Pt	Time	Freq	Zreal	Zimag	Zsig	Zmod	Zphz	Idc	Vdc	IERange
	#	s	Hz	ohm	ohm	V	ohm	°	A	V	#
	0	7	300046.9	157.8919	-11.10044	1	158.2816	-4.021508	-7.089386E-006	0.0010804	9
	1	11	238359.4	159.014	-9.75069	1	159.3127	-3.508966	-3.265292E-005	-0.0006404	9
	2	14	189328.1	160.0126	-8.402225	1	160.233	-3.005828	2.235562E-005	-0.000526	9
	3	16	150421.9	160.9699	-8.102457	1	161.1737	-2.881565	6.580914E-005	-0.0014337	9
	4	19	119484.4	161.6374	-6.659505	1	161.7745	-2.359268	7.153903E-005	-0.0026309	9
	5	22	94921.88	162.4033	-5.760184	1	162.5055	-2.031337	2.530302E-005	-0.0008058	9
	6	24	75421.88	163.0151	-5.454181	1	163.1063	-1.916295	1.394016E-005	-0.0006726	9
	7	27	59859.37	163.6166	-5.076773	1	163.6953	-1.77723	-1.424048E-005	7.477798E-005	9
	8	29	47578.12	164.1783	-4.771511	1	164.2476	-1.664718	-2.463783E-006	-0.0003098	9
	9	32	37828.12	164.7006	-4.469067	1	164.7612	-1.554311	2.252848E-005	-0.000264	9
	10	34	30046.88	165.2492	-4.382855	1	165.3073	-1.519283	1.95656E-005	-0.0001204	9
	11	37	23859.38	165.7414	-4.350899	1	165.7985	-1.503734	1.076959E-005	-0.0005606	9
	12	39	18984.38	166.0881	-4.28083	1	166.1432	-1.476441	1.900049E-005	-0.0007513	9
	13	41	15046.87	166.5748	-4.396022	1	166.6328	-1.511724	-1.773778E-005	0.0003564	9
	14	44	11953.13	167.1878	-4.67883	1	167.2533	-1.603031	-2.084252E-005	0.0005208	9
	15	46	9515.62	167.5756	-4.995638	1	167.6501	-1.707553	1.99326E-005	-3.914218E-005	9
	16	48	7546.875	167.9444	-5.303102	1	168.0282	-1.808601	1.95495E-005	-0.0001089	9
	17	51	5928.309	168.6533	-6.307561	1	168.7712	-2.141839	1.48434E-005	-0.0007276	9
	18	53	4733.456	169.3909	-7.012083	1	169.536	-2.370455	1.15375E-005	0.0002445	9
	19	55	3796.875	169.921	-7.931852	1	170.1061	-2.672606	2.56944E-005	-0.0004839	9
	20	58	2987.132	170.6428	-9.226153	1	170.892	-3.094801	2.159043E-006	0.0005556	9
	21	60	2390.625	171.4003	-10.52789	1	171.7233	-3.514854	2.082487E-005	-0.0007601	9
	22	62	1884.191	172.1818	-12.28613	1	172.6196	-4.081455	6.847567E-006	-0.000547	9
	23	65	1516.544	173.2012	-14.39528	1	173.7984	-4.751107	-1.787878E-005	0.0003573	9
	24	67	1193.986	174.4347	-17.24442	1	175.285	-5.645853	2.194682E-006	0.0005553	9
	25	69	946.5144	175.7433	-20.34891	1	176.9174	-6.604733	-7.073175E-006	0.0008433	9
	26	72	751.7689	177.4029	-24.11515	1	179.0344	-7.741021	1.854823E-006	0.0005524	9
	27	74	597.4265	179.0131	-28.86052	1	181.3246	-9.158427	-6.974744E-006	0.000791	9
	28	76	477.4305	181.0543	-34.3506	1	184.2841	-10.74278	1.16265E-006	8.056284E-005	9
	29	79	376.6741	183.4644	-41.27645	1	188.0503	-12.67948	1.057362E-006	8.997254E-005	9
	30	81	298.2954	186.2334	-49.55137	1	192.7128	-14.89957	1.241463E-006	8.880079E-005	9
	31	83	237.7717	189.358	-59.25861	1	198.4138	-17.37724	1.229131E-006	7.882535E-005	9
	32	86	189.0121	193.0395	-71.1249	1	205.7255	-20.22619	1.130631E-006	7.883357E-005	9
	33	88	150.2404	197.3219	-85.49019	1	215.0454	-23.42479	1.216464E-006	7.695834E-005	9
	34	90	119.1737	202.3601	-103.0886	1	227.1054	-26.99572	1.137467E-006	7.888247E-005	9
	35	93	95.0169	208.0995	-123.9665	1	242.2253	-30.78259	1.109777E-006	7.482383E-005	9
	36	95	75.60484	214.9249	-149.5784	1	261.8519	-34.83624	1.182341E-006	7.794671E-005	9
	37	98	54.50582	226.7263	-196.1999	1	299.832	-40.87161	1.155715E-006	7.25838E-005	9
	38	100	45.95588	234.2224	-226.3408	1	325.7151	-44.0196	1.180582E-006	7.942315E-005	9
	39	103	37.20238	244.9713	-270.4071	1	364.8712	-47.82546	1.204569E-006	8.474148E-005	9
	40	105	30.04808	256.8571	-322.6581	1	412.4122	-51.47791	-6.609339E-008	0.0006626	8
	41	108	23.91582	273.6017	-391.761	1	477.8437	-55.06997	-5.555751E-008	0.0006538	8
	42	110	18.60119	296.5311	-485.402	1	568.8109	-58.57933	-1.639602E-008	0.0006564	8
	43	112	15.02404	320.7365	-582.2083	1	664.7093	-61.14978	-7.581806E-008	0.0006559	8
	44	114	12.01923	351.687	-704.1901	1	787.126	-63.46152	6.764748E-008	0.0006699	8
	45	117	9.450605	392.6539	-863.5853	1	948.6605	-65.54971	-4.046526E-008	0.0006548	8
	46	119	7.512019	441.8401	-1049.022	1	1138.275	-67.15955	5.649727E-008	0.0006615	8
	47	122	5.978954	500.9013	-1271.244	1	1366.368	-68.49434	2.914391E-008	0.0006572	8
	48	125	4.734848	574.6078	-1547.543	1	1650.777	-69.62988	-4.844878E-008	0.0006364	8
	49	128	3.75601	664.8771	-1878.104	1	1992.32	-70.50527	1.660742E-008	0.0006761	8
	50	132	3.004808	769.199	-2260.563	1	2387.846	-71.20816	-2.007029E-008	0.0006819	8
	51	136	2.372217	901.9031	-2750.863	1	2894.939	-71.84766	-6.398816E-009	0.0006932	8
	52	140	1.878005	1065.872	-3343.102	1	3508.905	-72.31631	2.236746E-008	0.0006481	8
	53	145	1.512097	1239.738	-4010.764	1	4197.997	-72.82348	-1.206657E-007	0.0007233	7
	54	150	1.201923	1463.493	-4858.499	1	5074.132	-73.23647	-1.061852E-007	0.0006348	7
	55	156	0.956633	1717.359	-5875.096	1	6120.954	-73.70574	-1.369496E-007	-8.561796E-006	7
