EXPLAIN
TAG	EISPOT
TITLE	LABEL	Potentiostatic EIS	Test Identifier
DATE	LABEL	2/25/2021	Date
TIME	LABEL	16:06:09	Time
NOTES	NOTES	1	Notes...
	
PSTAT	PSTAT	REF3000-16137	Potentiostat
VDC	POTEN	0.00000E+000	T	DC Voltage (V)
FREQINIT	QUANT	3.00000E+005	Initial Freq. (Hz)
FREQFINAL	QUANT	1.00000E+000	Final Freq. (Hz)
PTSPERDEC	QUANT	1.00000E+001	Points/decade
VAC	QUANT	5.00000E+001	AC Voltage (mV rms)
AREA	QUANT	1.00000E+000	Sample Area (cm^2)
SPEED	SELECTOR	2	Optimize for:
ZGUESS	QUANT	1.00000E+003	Estimated Z (ohms)
EOC	QUANT	0	Open Circuit (V)
SEQUENCER	TOGGLE	TRUE	Run as Sequence
PSTATMODEL	IQUANT	5	Pstat Model
PSTATSECTION	LABEL	REF3000-16137	Pstat Section
PSTATSERIALNO	LABEL	16137	Pstat Serial Number
CTRLMODE	IQUANT	1	Control Mode
IESTAB	IQUANT	0	I/E Stability
CASPEED	IQUANT	1	Control Amp Speed
CONVENTION	IQUANT	1	Current Convention
ICHRANGE	IQUANT	2	Ich Range
ICHRANGEMODE	TOGGLE	F	Ich Auto Range
ICHOFFSETENABLE	TOGGLE	T	Ich Offset Enable
ICHOFFSET	QUANT	0	Ich Offset (V)
ICHFILTER	IQUANT	3	Ich Filter
VCHRANGE	IQUANT	2	Vch Range
VCHRANGEMODE	TOGGLE	F	Vch Auto Range
VCHOFFSETENABLE	TOGGLE	T	Vch Offset Enable
VCHOFFSET	QUANT	0	Vch Offset (V)
VCHFILTER	IQUANT	3	Vch Filter
ACHRANGE	IQUANT	2	Ach Range
ACHOFFSETENABLE	TOGGLE	F	Ach Offset Enable
ACHOFFSET	QUANT	0	Ach Offset (V)
ACHFILTER	IQUANT	3	Ach Filter
IERANGELOWERLIMIT	IQUANT	2	I/E Range Lower Limit
IERANGEMODE	TOGGLE	F	I/E AutoRange
IERANGE	IQUANT	11	I/E Range
POSFEEDENABLE	TOGGLE	F	Positive Feedback IR Comp
POSFEEDRESISTANCE	QUANT	0	Positive Feedback Resistance (ohm)
ACHSELECT	IQUANT	0	Ach Select
CABLEID	IQUANT	13	Cable ID
DCCALDATE	LABEL	7/31/2020	DC Calibration Date
ACCALDATE	LABEL	7/31/2020	AC Calibration Date
THERMOSELECT	IQUANT	1	Thermo Select
FRAMEWORKVERSION	QUANT	6.33	Framework Version
INSTRUMENTVERSION	LABEL	3.50	Instrument Version
COMPLIANCEVOLTAGE	IQUANT	0	Compliance Voltage
ZCURVE	TABLE
	Pt	Time	Freq	Zreal	Zimag	Zsig	Zmod	Zphz	Idc	Vdc	IERange
	#	s	Hz	ohm	ohm	V	ohm	°	A	V	#
	0	7	300046.9	153.9244	-10.46992	1	154.28	-3.891258	1.760953E-005	-0.0015908	9
	1	10	238359.4	154.5428	-9.169937	1	154.8146	-3.395716	-1.300256E-005	0.0010952	9
	2	14	189328.1	155.0893	-7.819132	1	155.2863	-2.886235	-7.021984E-005	0.0028159	9
	3	16	150421.9	156.246	-6.937874	1	156.4	-2.542465	1.79478E-005	-0.0012104	9
	4	19	119484.4	157.006	-6.087432	1	157.1239	-2.220359	7.128013E-005	-0.0026408	9
	5	21	94921.88	157.7111	-5.60485	1	157.8107	-2.035362	-1.786101E-005	0.0003017	9
	6	24	75421.88	158.1743	-5.068249	1	158.2554	-1.835254	-2.045529E-005	0.0004975	9
	7	27	59859.37	158.7627	-4.71211	1	158.8327	-1.700051	-2.198946E-005	0.000705	9
	8	29	47578.12	159.1783	-4.448085	1	159.2404	-1.600659	-1.533333E-005	0.0001481	9
	9	32	37828.12	159.659	-4.263057	1	159.7159	-1.529492	2.460222E-005	-0.0007079	9
	10	34	30046.88	160.2513	-4.196936	1	160.3062	-1.500218	-6.71426E-006	0.0008151	9
	11	37	23859.38	160.5823	-4.140082	1	160.6357	-1.476854	-1.808486E-005	0.0003448	9
	12	39	18984.38	161.078	-4.091402	1	161.13	-1.455007	-1.776527E-005	0.000214	9
	13	41	15046.87	161.1135	-4.450562	1	161.175	-1.582323	2.604812E-005	-0.0006296	9
	14	44	11953.13	161.746	-4.543526	1	161.8098	-1.609044	6.446195E-006	-0.0005488	9
	15	46	9515.62	162.294	-4.849369	1	162.3664	-1.711498	2.501758E-005	-0.0004654	9
	16	48	7546.875	162.7595	-5.36778	1	162.848	-1.88892	-5.560494E-007	-0.0003695	9
	17	51	5928.309	163.2915	-6.017181	1	163.4024	-2.110355	1.149188E-005	0.0002397	9
	18	53	4733.456	163.9015	-6.639369	1	164.0359	-2.319685	2.401547E-005	-0.0007028	9
	19	55	3796.875	164.3731	-7.453642	1	164.542	-2.596348	-6.697035E-006	0.0008186	9
	20	58	2987.132	164.8304	-8.747164	1	165.0623	-3.037704	-2.106548E-005	0.0005146	9
	21	60	2390.625	165.7467	-10.22104	1	166.0615	-3.52877	-2.092189E-005	0.000538	9
	22	62	1884.191	166.5643	-12.35325	1	167.0218	-4.241577	2.030366E-005	-0.0007528	9
	23	64	1516.544	167.4483	-13.99347	1	168.032	-4.777046	2.409259E-006	0.000542	9
	24	67	1193.986	168.5472	-16.51845	1	169.3547	-5.597392	-1.945725E-005	0.0009214	9
	25	69	946.5144	169.688	-19.72106	1	170.8302	-6.629148	2.352777E-006	0.0005686	9
	26	72	751.7689	171.2512	-23.21494	1	172.8175	-7.720002	-1.527686E-005	0.0001743	9
	27	74	597.4265	172.9912	-27.89731	1	175.2262	-9.160893	1.412635E-005	-0.0007076	9
	28	76	477.4305	174.6408	-33.14375	1	177.7581	-10.74593	1.126888E-006	8.202996E-005	9
	29	79	376.6741	176.8993	-39.84883	1	181.332	-12.69472	1.155271E-006	7.426957E-005	9
	30	81	298.2954	179.5003	-47.86755	1	185.7732	-14.93166	1.137217E-006	8.136163E-005	9
	31	83	237.7717	182.4532	-57.29364	1	191.2373	-17.43325	1.031491E-006	8.419335E-005	9
	32	86	189.0121	185.9258	-68.82325	1	198.255	-20.31279	1.218026E-006	7.693889E-005	9
	33	88	150.2404	189.9992	-82.78336	1	207.2505	-23.54294	1.198888E-006	8.375513E-005	9
	34	91	119.1737	194.8152	-99.9057	1	218.9386	-27.1498	1.169496E-006	8.454609E-005	9
	35	93	95.0169	200.3312	-120.2296	1	233.6402	-30.97025	9.779238E-007	0.0001195	9
	36	95	75.60484	206.8485	-145.082	1	252.6561	-35.04553	1.044135E-006	0.0001075	9
	37	98	54.50582	218.2903	-190.4523	1	289.6942	-41.1038	1.243568E-006	7.574747E-005	9
	38	100	45.95588	225.5477	-219.7563	1	314.9041	-44.25488	1.233672E-006	8.203267E-005	9
	39	103	37.20238	235.9784	-262.5983	1	353.0491	-48.05622	1.242592E-006	7.862843E-005	9
	40	105	30.04808	247.6263	-313.3596	1	399.3908	-51.68314	-9.729851E-009	0.0006537	8
	41	108	23.91582	263.9455	-380.4396	1	463.0351	-55.24744	4.441945E-008	0.0006501	8
	42	110	18.60119	286.2914	-471.3819	1	551.5103	-58.72781	1.269907E-007	0.0006593	8
	43	112	15.02404	310.107	-565.1606	1	644.6495	-61.24616	4.078711E-008	0.0006746	8
	44	114	12.01923	340.4364	-683.3746	1	763.4774	-63.51891	1.059126E-007	0.0006533	8
	45	117	9.450605	380.5392	-837.574	1	919.9676	-65.56604	-5.033783E-008	0.0006508	8
	46	119	7.512019	428.4738	-1017.171	1	1103.733	-67.1572	3.236549E-008	0.0006597	8
	47	122	5.978954	486.1573	-1231.857	1	1324.319	-68.46313	4.915056E-008	0.0006485	8
	48	125	4.734848	559.5278	-1498.547	1	1599.598	-69.52536	-2.907593E-009	0.0006636	8
	49	128	3.75601	646.1836	-1818.584	1	1929.975	-70.43874	2.61753E-008	0.0006715	8
	50	132	3.004808	747.9941	-2188.489	1	2312.786	-71.13031	-2.319379E-008	0.0006921	8
	51	136	2.372217	877.6808	-2663.768	1	2804.636	-71.76355	3.460954E-009	0.0007155	8
	52	140	1.878005	1034.369	-3232.593	1	3394.05	-72.25631	1.287792E-008	0.000636	8
	53	144	1.512097	1206.555	-3867.88	1	4051.7	-72.67509	1.561061E-008	0.0007648	8
	54	150	1.201923	1419.391	-4695.501	1	4905.344	-73.1806	-1.146241E-007	0.0006081	7
	55	156	0.956633	1662.964	-5681.277	1	5919.658	-73.68475	-1.41021E-007	-9.756674E-006	7
