EXPLAIN
TAG	EISPOT
TITLE	LABEL	Potentiostatic EIS	Test Identifier
DATE	LABEL	2/25/2021	Date
TIME	LABEL	16:28:47	Time
NOTES	NOTES	1	Notes...
	
PSTAT	PSTAT	REF3000-16137	Potentiostat
VDC	POTEN	0.00000E+000	T	DC Voltage (V)
FREQINIT	QUANT	3.00000E+005	Initial Freq. (Hz)
FREQFINAL	QUANT	1.00000E+000	Final Freq. (Hz)
PTSPERDEC	QUANT	1.00000E+001	Points/decade
VAC	QUANT	5.00000E+001	AC Voltage (mV rms)
AREA	QUANT	1.00000E+000	Sample Area (cm^2)
SPEED	SELECTOR	2	Optimize for:
ZGUESS	QUANT	1.00000E+003	Estimated Z (ohms)
EOC	QUANT	0	Open Circuit (V)
SEQUENCER	TOGGLE	TRUE	Run as Sequence
PSTATMODEL	IQUANT	5	Pstat Model
PSTATSECTION	LABEL	REF3000-16137	Pstat Section
PSTATSERIALNO	LABEL	16137	Pstat Serial Number
CTRLMODE	IQUANT	1	Control Mode
IESTAB	IQUANT	0	I/E Stability
CASPEED	IQUANT	1	Control Amp Speed
CONVENTION	IQUANT	1	Current Convention
ICHRANGE	IQUANT	2	Ich Range
ICHRANGEMODE	TOGGLE	F	Ich Auto Range
ICHOFFSETENABLE	TOGGLE	T	Ich Offset Enable
ICHOFFSET	QUANT	0	Ich Offset (V)
ICHFILTER	IQUANT	3	Ich Filter
VCHRANGE	IQUANT	2	Vch Range
VCHRANGEMODE	TOGGLE	F	Vch Auto Range
VCHOFFSETENABLE	TOGGLE	T	Vch Offset Enable
VCHOFFSET	QUANT	0	Vch Offset (V)
VCHFILTER	IQUANT	3	Vch Filter
ACHRANGE	IQUANT	2	Ach Range
ACHOFFSETENABLE	TOGGLE	F	Ach Offset Enable
ACHOFFSET	QUANT	0	Ach Offset (V)
ACHFILTER	IQUANT	3	Ach Filter
IERANGELOWERLIMIT	IQUANT	2	I/E Range Lower Limit
IERANGEMODE	TOGGLE	F	I/E AutoRange
IERANGE	IQUANT	11	I/E Range
POSFEEDENABLE	TOGGLE	F	Positive Feedback IR Comp
POSFEEDRESISTANCE	QUANT	0	Positive Feedback Resistance (ohm)
ACHSELECT	IQUANT	0	Ach Select
CABLEID	IQUANT	13	Cable ID
DCCALDATE	LABEL	7/31/2020	DC Calibration Date
ACCALDATE	LABEL	7/31/2020	AC Calibration Date
THERMOSELECT	IQUANT	1	Thermo Select
FRAMEWORKVERSION	QUANT	6.33	Framework Version
INSTRUMENTVERSION	LABEL	3.50	Instrument Version
COMPLIANCEVOLTAGE	IQUANT	0	Compliance Voltage
ZCURVE	TABLE
	Pt	Time	Freq	Zreal	Zimag	Zsig	Zmod	Zphz	Idc	Vdc	IERange
	#	s	Hz	ohm	ohm	V	ohm	°	A	V	#
	0	16	300046.9	243.5049	-30.63558	1	245.4245	-7.17076	1.704257E-005	-0.0015947	9
	1	20	238359.4	246.407	-30.06288	1	248.2342	-6.955992	-2.760376E-005	0.0002059	10
	2	25	189328.1	248.3435	-22.02909	1	249.3187	-5.069103	-3.172903E-005	-0.0005799	9
	3	29	150421.9	251.1901	-19.06944	1	251.9129	-4.341362	1.980485E-005	-0.0015432	9
	4	36	119484.4	253.4475	-16.47603	1	253.9824	-3.719432	2.852419E-005	0.0007433	9
	5	40	94921.88	255.1991	-14.16655	1	255.592	-3.177329	-2.328334E-005	0.0008905	9
	6	43	75421.88	256.7564	-12.61553	1	257.0661	-2.812922	-2.335584E-005	0.0008166	9
	7	47	59859.37	258.1674	-11.43979	1	258.4208	-2.537204	1.529059E-005	-0.0007936	9
	8	51	47578.12	259.5801	-10.08301	1	259.7758	-2.224452	-1.585367E-005	0.0010245	9
	9	55	37828.12	260.6917	-9.272563	1	260.8565	-2.037099	-1.813353E-005	0.0002838	9
	10	58	30046.88	261.7864	-8.629103	1	261.9286	-1.887922	-2.442458E-006	-0.0003285	9
	11	62	23859.38	263.3416	-8.089103	1	263.4658	-1.75941	2.585899E-005	-0.0005807	9
	12	65	18984.38	264.2748	-7.725292	1	264.3877	-1.674396	1.676254E-005	-0.0008077	9
	13	69	15046.87	266.1714	-7.34695	1	266.2727	-1.581096	-1.653069E-005	0.0001568	9
	14	72	11953.13	267.2337	-7.642389	1	267.343	-1.638107	-1.561334E-005	0.0001686	9
	15	76	9515.62	267.6104	-7.961207	1	267.7288	-1.704004	-1.579354E-005	0.0010342	9
	16	78	7546.875	268.8269	-8.370469	1	268.9572	-1.783444	7.00529E-007	-0.0003766	9
	17	82	5928.309	270.1239	-9.228762	1	270.2815	-1.956744	1.584418E-005	-0.0007752	9
	18	86	4733.456	271.2234	-10.50318	1	271.4267	-2.217681	-2.139092E-005	0.0009886	9
	19	89	3796.875	272.0822	-10.28157	1	272.2764	-2.16409	-1.936694E-005	0.0003037	9
	20	93	2987.132	273.368	-12.91232	1	273.6728	-2.70431	1.782185E-006	0.000612	9
	21	95	2390.625	274.7921	-15.02494	1	275.2026	-3.129672	7.540013E-006	-0.0006365	9
	22	97	1884.191	277.0868	-18.20364	1	277.6841	-3.758732	-1.548262E-005	0.0001433	9
	23	100	1516.544	277.9627	-20.06514	1	278.686	-4.128817	-1.598394E-005	0.0009871	9
	24	103	1193.986	279.981	-23.43986	1	280.9605	-4.785611	-1.941166E-006	-0.0003493	9
	25	106	946.5144	281.8289	-27.7738	1	283.1942	-5.628235	2.06232E-005	-1.881406E-005	9
	26	108	751.7689	284.5322	-32.81496	1	286.4182	-6.578829	7.631035E-006	-0.0006219	9
	27	110	597.4265	287.0379	-39.18399	1	289.7001	-7.773485	2.766622E-005	-0.000635	9
	28	113	477.4305	289.8935	-46.27402	1	293.5635	-9.069283	1.187284E-006	9.353999E-005	9
	29	115	376.6741	293.6418	-55.41876	1	298.8256	-10.68767	1.220451E-006	9.03023E-005	9
	30	117	298.2954	297.9338	-66.2568	1	305.2122	-12.53784	1.184542E-006	9.011143E-005	9
	31	120	237.7717	302.794	-78.85824	1	312.8943	-14.59757	1.297175E-006	7.542688E-005	9
	32	122	189.0121	308.4922	-94.12983	1	322.5335	-16.96845	1.266584E-006	8.052259E-005	9
	33	124	150.2404	315.0721	-112.4511	1	334.5381	-19.64178	1.252891E-006	8.06045E-005	9
	34	127	119.1737	322.7131	-134.6901	1	349.6929	-22.65409	1.164738E-006	8.399933E-005	9
	35	129	95.0169	331.3186	-160.8939	1	368.3189	-25.90199	1.276228E-006	8.227926E-005	9
	36	132	75.60484	339.8617	-191.961	1	390.3268	-29.45867	-1.121386E-007	0.0006621	8
	37	134	54.50582	356.5498	-249.4332	1	435.1375	-34.97566	-9.87238E-008	0.000663	8
	38	137	45.95588	366.9271	-286.4953	1	465.5266	-37.98259	-1.063342E-007	0.0006669	8
	39	139	37.20238	381.3577	-340.5658	1	511.2913	-41.76598	-5.388297E-008	0.0006575	8
	40	142	30.04808	398.3219	-406.3303	1	569.0032	-45.57022	-1.221494E-007	0.0006647	8
	41	144	23.91582	419.6507	-491.4969	1	646.2785	-49.50859	-2.409033E-008	0.0006544	8
	42	146	18.60119	447.9808	-607.157	1	754.5372	-53.57885	-5.650955E-008	0.0006586	8
	43	149	15.02404	477.5004	-727.6304	1	870.3175	-56.7255	-1.549649E-007	0.000643	8
	44	151	12.01923	514.5446	-879.1973	1	1018.697	-59.66196	-4.650628E-009	0.0006616	8
	45	153	9.450605	563.3889	-1079.136	1	1217.35	-62.43211	-4.976034E-008	0.000642	8
	46	156	7.512019	621.7825	-1312.38	1	1452.224	-64.64924	-2.324222E-008	0.0006553	8
	47	159	5.978954	692.0698	-1592.866	1	1736.716	-66.51598	-4.989586E-008	0.0006564	8
	48	162	4.734848	781.1793	-1943.804	1	2094.903	-68.10571	-1.066675E-007	0.0006504	8
	49	165	3.75601	889.2338	-2364.803	1	2526.466	-69.3923	-4.005331E-008	0.0006773	8
	50	168	3.004808	1016.855	-2854.63	1	3030.331	-70.39347	-7.988591E-008	0.0006586	8
	51	172	2.372217	1181.141	-3484.127	1	3678.891	-71.27301	-6.892529E-008	0.0007069	8
	52	176	1.878005	1389.396	-4249.566	1	4470.932	-71.89484	-7.049196E-008	0.0006104	7
	53	181	1.512097	1614.772	-5097.565	1	5347.21	-72.42319	-7.593536E-008	0.0007364	7
	54	186	1.201923	1899.713	-6184.54	1	6469.732	-72.92455	-6.725178E-008	0.0005934	7
	55	193	0.956633	2232.188	-7487.252	1	7812.913	-73.39901	-9.51994E-008	-9.954318E-006	7
