EXPLAIN
TAG	EISPOT
TITLE	LABEL	Potentiostatic EIS	Test Identifier
DATE	LABEL	2/25/2021	Date
TIME	LABEL	16:11:39	Time
NOTES	NOTES	1	Notes...
	
PSTAT	PSTAT	REF3000-16137	Potentiostat
VDC	POTEN	0.00000E+000	T	DC Voltage (V)
FREQINIT	QUANT	3.00000E+005	Initial Freq. (Hz)
FREQFINAL	QUANT	1.00000E+000	Final Freq. (Hz)
PTSPERDEC	QUANT	1.00000E+001	Points/decade
VAC	QUANT	5.00000E+001	AC Voltage (mV rms)
AREA	QUANT	1.00000E+000	Sample Area (cm^2)
SPEED	SELECTOR	2	Optimize for:
ZGUESS	QUANT	1.00000E+003	Estimated Z (ohms)
EOC	QUANT	0	Open Circuit (V)
SEQUENCER	TOGGLE	TRUE	Run as Sequence
PSTATMODEL	IQUANT	5	Pstat Model
PSTATSECTION	LABEL	REF3000-16137	Pstat Section
PSTATSERIALNO	LABEL	16137	Pstat Serial Number
CTRLMODE	IQUANT	1	Control Mode
IESTAB	IQUANT	0	I/E Stability
CASPEED	IQUANT	1	Control Amp Speed
CONVENTION	IQUANT	1	Current Convention
ICHRANGE	IQUANT	2	Ich Range
ICHRANGEMODE	TOGGLE	F	Ich Auto Range
ICHOFFSETENABLE	TOGGLE	T	Ich Offset Enable
ICHOFFSET	QUANT	0	Ich Offset (V)
ICHFILTER	IQUANT	3	Ich Filter
VCHRANGE	IQUANT	2	Vch Range
VCHRANGEMODE	TOGGLE	F	Vch Auto Range
VCHOFFSETENABLE	TOGGLE	T	Vch Offset Enable
VCHOFFSET	QUANT	0	Vch Offset (V)
VCHFILTER	IQUANT	3	Vch Filter
ACHRANGE	IQUANT	2	Ach Range
ACHOFFSETENABLE	TOGGLE	F	Ach Offset Enable
ACHOFFSET	QUANT	0	Ach Offset (V)
ACHFILTER	IQUANT	3	Ach Filter
IERANGELOWERLIMIT	IQUANT	2	I/E Range Lower Limit
IERANGEMODE	TOGGLE	F	I/E AutoRange
IERANGE	IQUANT	11	I/E Range
POSFEEDENABLE	TOGGLE	F	Positive Feedback IR Comp
POSFEEDRESISTANCE	QUANT	0	Positive Feedback Resistance (ohm)
ACHSELECT	IQUANT	0	Ach Select
CABLEID	IQUANT	13	Cable ID
DCCALDATE	LABEL	7/31/2020	DC Calibration Date
ACCALDATE	LABEL	7/31/2020	AC Calibration Date
THERMOSELECT	IQUANT	1	Thermo Select
FRAMEWORKVERSION	QUANT	6.33	Framework Version
INSTRUMENTVERSION	LABEL	3.50	Instrument Version
COMPLIANCEVOLTAGE	IQUANT	0	Compliance Voltage
ZCURVE	TABLE
	Pt	Time	Freq	Zreal	Zimag	Zsig	Zmod	Zphz	Idc	Vdc	IERange
	#	s	Hz	ohm	ohm	V	ohm	°	A	V	#
	0	7	300046.9	164.6269	-12.35878	1	165.0901	-4.293223	1.375135E-005	-0.0015395	9
	1	10	238359.4	165.9177	-10.58952	1	166.2553	-3.651887	7.867474E-005	-0.0025643	9
	2	13	189328.1	167.1589	-9.115018	1	167.4072	-3.121195	6.826073E-005	-0.0017463	9
	3	16	150421.9	168.2454	-9.295709	1	168.502	-3.162428	1.460242E-005	-0.0014246	9
	4	19	119484.4	168.7184	-7.398519	1	168.8805	-2.510885	-8.205571E-005	0.0022336	9
	5	22	94921.88	169.5185	-6.466301	1	169.6418	-2.184494	2.535013E-005	-0.0006316	9
	6	24	75421.88	170.321	-6.023106	1	170.4274	-2.025322	-1.493679E-005	0.000202	9
	7	27	59859.37	170.9174	-5.460288	1	171.0046	-1.829802	-1.533481E-005	0.0001633	9
	8	29	47578.12	171.4675	-5.030521	1	171.5413	-1.680464	-1.672559E-005	0.0007845	9
	9	32	37828.12	172.0817	-4.842897	1	172.1499	-1.61205	2.523412E-005	-0.0002703	9
	10	35	30046.88	172.5907	-4.620993	1	172.6526	-1.533687	2.282896E-005	-0.0001982	9
	11	37	23859.38	173.2812	-4.600625	1	173.3423	-1.520849	1.692542E-005	-0.000636	9
	12	39	18984.38	173.7631	-4.576281	1	173.8234	-1.508611	-5.452136E-006	-0.0002416	9
	13	42	15046.87	174.3282	-4.523663	1	174.3869	-1.486441	6.940218E-006	0.0004229	9
	14	44	11953.13	174.942	-4.963044	1	175.0124	-1.625026	-2.4955E-006	-0.0002899	9
	15	46	9515.62	175.3216	-5.194573	1	175.3985	-1.69711	1.019987E-005	0.0002282	9
	16	49	7546.875	175.9231	-5.647333	1	176.0137	-1.838629	6.811322E-006	-0.000571	9
	17	51	5928.309	176.6439	-6.514929	1	176.764	-2.112208	2.380596E-005	-0.0002295	9
	18	53	4733.456	177.4088	-7.302454	1	177.559	-2.357063	-1.81579E-005	0.0003739	9
	19	56	3796.875	177.8532	-8.452215	1	178.054	-2.720851	2.03935E-005	-0.0002278	9
	20	58	2987.132	178.6106	-9.63231	1	178.8701	-3.08692	-2.001962E-005	0.0009519	9
	21	60	2390.625	179.4934	-11.08219	1	179.8352	-3.533041	-2.214828E-005	0.0008776	9
	22	62	1884.191	180.4705	-13.08789	1	180.9444	-4.147883	-1.764021E-005	0.000352	9
	23	65	1516.544	181.559	-15.10353	1	182.1861	-4.755373	-2.483704E-006	-0.0002834	9
	24	67	1193.986	182.5932	-17.89896	1	183.4683	-5.598617	-2.278002E-005	0.0007122	9
	25	70	946.5144	183.9244	-21.22186	1	185.1446	-6.581887	2.374643E-005	-0.0002039	9
	26	72	751.7689	185.7178	-25.35605	1	187.4407	-7.774523	1.447289E-005	-0.0007019	9
	27	74	597.4265	187.8316	-30.23439	1	190.2494	-9.1442	2.044146E-005	-0.0007669	9
	28	77	477.4305	189.7255	-35.69682	1	193.0544	-10.65562	1.172719E-006	0.0001032	9
	29	79	376.6741	192.288	-42.86373	1	197.0075	-12.56659	1.159177E-006	8.141364E-005	9
	30	81	298.2954	195.2359	-51.40076	1	201.8888	-14.74985	1.162215E-006	0.0001027	9
	31	83	237.7717	198.5331	-61.42609	1	207.8185	-17.19206	1.207313E-006	8.032643E-005	9
	32	86	189.0121	202.4251	-73.65401	1	215.4085	-19.99433	1.223787E-006	8.30618E-005	9
	33	88	150.2404	206.9385	-88.45796	1	225.0519	-23.14478	1.294908E-006	7.688678E-005	9
	34	91	119.1737	212.2348	-106.5741	1	237.4903	-26.66361	1.148013E-006	8.582546E-005	9
	35	93	95.0169	218.2853	-128.0678	1	253.0807	-30.40011	1.20099E-006	7.821107E-005	9
	36	96	75.60484	225.3648	-154.3911	1	273.1774	-34.41395	1.294886E-006	8.086826E-005	9
	37	98	54.50582	237.6249	-202.3357	1	312.0983	-40.41413	1.220495E-006	7.702666E-005	9
	38	101	45.95588	245.3755	-233.3296	1	338.6028	-43.55854	1.156178E-006	8.740739E-005	9
	39	103	37.20238	256.4586	-278.652	1	378.7057	-47.37495	1.264778E-006	7.831584E-005	9
	40	105	30.04808	268.7003	-332.4361	1	427.4502	-51.0522	-6.427038E-008	0.0006669	8
	41	108	23.91582	285.8692	-403.5753	1	494.5647	-54.68847	-5.305778E-008	0.0006603	8
	42	110	18.60119	309.3156	-500.0153	1	587.9553	-58.25856	-3.467124E-009	0.0006624	8
	43	112	15.02404	334.1276	-599.864	1	686.6426	-60.88195	-8.741879E-008	0.0006552	8
	44	115	12.01923	365.6448	-725.6639	1	812.5788	-63.25755	-1.262171E-007	0.0006671	8
	45	117	9.450605	407.7851	-890.3195	1	979.264	-65.39123	4.524105E-008	0.0006624	8
	46	120	7.512019	457.7075	-1081.808	1	1174.651	-67.06702	2.69295E-008	0.0006641	8
	47	122	5.978954	518.2573	-1311.094	1	1409.808	-68.4318	8.679292E-009	0.0006725	8
	48	125	4.734848	595.2401	-1596.547	1	1703.9	-69.55305	-3.685262E-008	0.0006851	8
	49	129	3.75601	687.2559	-1938.877	1	2057.076	-70.48257	3.572861E-008	0.0006457	8
	50	132	3.004808	795.127	-2334.583	1	2466.273	-71.19186	-2.316645E-008	0.000698	8
	51	136	2.372217	934.3902	-2844.619	1	2994.151	-71.81587	1.360917E-009	0.0007334	8
	52	140	1.878005	1098.177	-3453.099	1	3623.519	-72.35796	-1.403946E-008	0.0006363	8
	53	145	1.512097	1284.49	-4133.927	1	4328.888	-72.73898	-1.037926E-007	0.0006914	7
	54	150	1.201923	1510.394	-5017.295	1	5239.708	-73.24623	-1.155864E-007	0.000605	7
	55	156	0.956633	1775.771	-6072.333	1	6326.657	-73.69917	-1.253387E-007	-4.258271E-005	7
