EXPLAIN
TAG	EISPOT
TITLE	LABEL	Potentiostatic EIS	Test Identifier
DATE	LABEL	2/25/2021	Date
TIME	LABEL	16:03:24	Time
NOTES	NOTES	1	Notes...
	
PSTAT	PSTAT	REF3000-16137	Potentiostat
VDC	POTEN	0.00000E+000	T	DC Voltage (V)
FREQINIT	QUANT	3.00000E+005	Initial Freq. (Hz)
FREQFINAL	QUANT	1.00000E+000	Final Freq. (Hz)
PTSPERDEC	QUANT	1.00000E+001	Points/decade
VAC	QUANT	5.00000E+001	AC Voltage (mV rms)
AREA	QUANT	1.00000E+000	Sample Area (cm^2)
SPEED	SELECTOR	2	Optimize for:
ZGUESS	QUANT	1.00000E+003	Estimated Z (ohms)
EOC	QUANT	0	Open Circuit (V)
SEQUENCER	TOGGLE	TRUE	Run as Sequence
PSTATMODEL	IQUANT	5	Pstat Model
PSTATSECTION	LABEL	REF3000-16137	Pstat Section
PSTATSERIALNO	LABEL	16137	Pstat Serial Number
CTRLMODE	IQUANT	1	Control Mode
IESTAB	IQUANT	0	I/E Stability
CASPEED	IQUANT	1	Control Amp Speed
CONVENTION	IQUANT	1	Current Convention
ICHRANGE	IQUANT	2	Ich Range
ICHRANGEMODE	TOGGLE	F	Ich Auto Range
ICHOFFSETENABLE	TOGGLE	T	Ich Offset Enable
ICHOFFSET	QUANT	0	Ich Offset (V)
ICHFILTER	IQUANT	3	Ich Filter
VCHRANGE	IQUANT	2	Vch Range
VCHRANGEMODE	TOGGLE	F	Vch Auto Range
VCHOFFSETENABLE	TOGGLE	T	Vch Offset Enable
VCHOFFSET	QUANT	0	Vch Offset (V)
VCHFILTER	IQUANT	3	Vch Filter
ACHRANGE	IQUANT	2	Ach Range
ACHOFFSETENABLE	TOGGLE	F	Ach Offset Enable
ACHOFFSET	QUANT	0	Ach Offset (V)
ACHFILTER	IQUANT	2	Ach Filter
IERANGELOWERLIMIT	IQUANT	2	I/E Range Lower Limit
IERANGEMODE	TOGGLE	F	I/E AutoRange
IERANGE	IQUANT	11	I/E Range
POSFEEDENABLE	TOGGLE	F	Positive Feedback IR Comp
POSFEEDRESISTANCE	QUANT	0	Positive Feedback Resistance (ohm)
ACHSELECT	IQUANT	0	Ach Select
CABLEID	IQUANT	13	Cable ID
DCCALDATE	LABEL	7/31/2020	DC Calibration Date
ACCALDATE	LABEL	7/31/2020	AC Calibration Date
THERMOSELECT	IQUANT	1	Thermo Select
FRAMEWORKVERSION	QUANT	6.33	Framework Version
INSTRUMENTVERSION	LABEL	3.50	Instrument Version
COMPLIANCEVOLTAGE	IQUANT	0	Compliance Voltage
ZCURVE	TABLE
	Pt	Time	Freq	Zreal	Zimag	Zsig	Zmod	Zphz	Idc	Vdc	IERange
	#	s	Hz	ohm	ohm	V	ohm	°	A	V	#
	0	8	300046.9	155.6881	-10.16279	1	156.0195	-3.734775	-9.582053E-006	0.0008364	9
	1	11	238359.4	156.4647	-9.108098	1	156.7296	-3.331533	5.062059E-005	-0.0005483	9
	2	14	189328.1	156.9691	-8.118555	1	157.1789	-2.960741	-8.196724E-005	0.0020542	9
	3	16	150421.9	157.4781	-7.369033	1	157.6504	-2.679146	-5.636868E-006	0.0012812	9
	4	19	119484.4	158.2525	-6.30129	1	158.3779	-2.280196	4.67221E-005	-0.0002046	9
	5	21	94921.88	158.7522	-5.540416	1	158.8489	-1.998798	5.336872E-006	-0.0005918	9
	6	24	75421.88	159.1078	-5.1069	1	159.1897	-1.838398	-2.337263E-005	0.0007992	9
	7	26	59859.37	159.4917	-4.843243	1	159.5652	-1.739351	1.390668E-005	-0.0006913	9
	8	29	47578.12	159.8831	-4.482932	1	159.946	-1.606084	1.961454E-005	-6.256378E-005	9
	9	32	37828.12	160.0761	-4.248752	1	160.1325	-1.520392	7.171643E-006	-0.0005848	9
	10	34	30046.88	160.5466	-4.084592	1	160.5986	-1.457392	-1.014449E-005	-9.114873E-005	9
	11	37	23859.38	160.7697	-4.030877	1	160.8202	-1.43624	-9.328071E-006	-6.714906E-005	9
	12	39	18984.38	161.1072	-4.036886	1	161.1578	-1.435368	-2.177807E-005	0.0005594	9
	13	41	15046.87	161.6884	-4.002779	1	161.7379	-1.418132	-1.339696E-005	0.0009129	9
	14	43	11953.13	161.6552	-4.410508	1	161.7154	-1.562837	1.309972E-005	0.0001494	9
	15	46	9515.62	162.0123	-4.836117	1	162.0845	-1.709789	-2.228569E-006	-0.0003296	9
	16	48	7546.875	162.4414	-5.17731	1	162.5239	-1.825505	-2.153083E-005	0.0006686	9
	17	50	5928.309	162.7341	-5.862771	1	162.8397	-2.063285	2.551746E-005	-0.0004555	9
	18	53	4733.456	163.0052	-6.278051	1	163.1261	-2.205623	1.133666E-005	0.0002328	9
	19	55	3796.875	163.5811	-7.740075	1	163.7641	-2.709012	2.353871E-005	-0.0007093	9
	20	57	2987.132	164.2368	-8.436038	1	164.4533	-2.940419	1.64307E-006	0.00055	9
	21	60	2390.625	164.6476	-9.98614	1	164.9501	-3.470829	6.550249E-006	-0.0005657	9
	22	62	1884.191	166.1866	-11.70324	1	166.5982	-4.028248	2.578775E-005	-0.0006096	9
	23	64	1516.544	166.2543	-13.71463	1	166.819	-4.715761	-2.239685E-005	0.000687	9
	24	67	1193.986	166.9827	-16.1427	1	167.7612	-5.521788	2.333806E-005	-0.000243	9
	25	69	946.5144	168.2863	-19.08025	1	169.3645	-6.468553	2.033022E-005	-0.0007455	9
	26	71	751.7689	169.3301	-22.82895	1	170.8621	-7.678274	1.948976E-005	-7.505456E-005	9
	27	74	597.4265	171.0876	-27.08636	1	173.2185	-8.996325	2.425162E-005	-0.0007173	9
	28	76	477.4305	172.6439	-32.22217	1	175.6251	-10.57202	9.962556E-007	7.944308E-005	9
	29	78	376.6741	174.7464	-38.76154	1	178.9938	-12.50662	1.125846E-006	8.084949E-005	9
	30	81	298.2954	177.1607	-46.55968	1	183.1767	-14.72494	1.176624E-006	7.736842E-005	9
	31	83	237.7717	179.9186	-55.7325	1	188.3529	-17.21116	9.598441E-007	0.0001075	9
	32	85	189.0121	183.1845	-66.96308	1	195.04	-20.07989	1.095868E-006	7.926299E-005	9
	33	88	150.2404	187.041	-80.56747	1	203.6552	-23.30385	1.053195E-006	7.622923E-005	9
	34	90	119.1737	191.6259	-97.2318	1	214.8826	-26.90342	1.043041E-006	8.00833E-005	9
	35	93	95.0169	196.9062	-117.0231	1	229.0556	-30.7234	1.012686E-006	8.366835E-005	9
	36	95	75.60484	203.172	-141.2659	1	247.4569	-34.81098	9.587518E-007	8.425877E-005	9
	37	98	54.50582	214.3039	-185.4246	1	283.3875	-40.86771	1.212469E-006	7.772988E-005	9
	38	100	45.95588	221.3398	-213.9303	1	307.827	-44.02477	1.27741E-006	8.247005E-005	9
	39	102	37.20238	231.5293	-255.5946	1	344.8687	-47.82827	1.176299E-006	7.401888E-005	9
	40	105	30.04808	243.8957	-306.2015	1	391.4646	-51.46197	1.092077E-006	8.264156E-005	9
	41	107	23.91582	258.8516	-370.0471	1	451.596	-55.02683	-9.431972E-008	0.0006498	8
	42	110	18.60119	280.7291	-458.2084	1	537.3674	-58.50558	-1.586897E-007	0.0006546	8
	43	112	15.02404	304.037	-549.4531	1	627.9627	-61.04228	-1.15867E-007	0.0006486	8
	44	114	12.01923	333.5843	-663.6588	1	742.7796	-63.31387	-2.536653E-008	0.0006629	8
	45	117	9.450605	373.0506	-812.9835	1	894.4881	-65.35121	-8.182936E-008	0.0006542	8
	46	119	7.512019	419.4331	-986.222	1	1071.708	-66.96031	-9.336024E-008	0.0006494	8
	47	122	5.978954	476.0612	-1194.567	1	1285.933	-68.27162	-3.213768E-008	0.0006611	8
	48	125	4.734848	547.0772	-1451.28	1	1550.969	-69.34547	-5.084442E-008	0.0006336	8
	49	128	3.75601	632.2218	-1760.061	1	1870.166	-70.24149	9.226941E-009	0.0006783	8
	50	132	3.004808	730.7722	-2117.209	1	2239.777	-70.95747	1.906581E-008	0.000644	8
	51	135	2.372217	858.684	-2572.469	1	2711.999	-71.54111	-6.440508E-009	0.0006185	8
	52	139	1.878005	1006.973	-3128.823	1	3286.872	-72.15987	2.735702E-008	0.0006551	8
	53	144	1.512097	1164.604	-3739.39	1	3916.547	-72.7012	1.24392E-009	0.0006984	8
	54	150	1.201923	1378.444	-4543.928	1	4748.409	-73.12433	-1.074265E-007	0.0006373	7
	55	156	0.956633	1616.218	-5494.35	1	5727.132	-73.60823	-1.398712E-007	-1.466302E-005	7
