EXPLAIN
TAG	EISPOT
TITLE	LABEL	Potentiostatic EIS	Test Identifier
DATE	LABEL	2/25/2021	Date
TIME	LABEL	16:19:58	Time
NOTES	NOTES	1	Notes...
	
PSTAT	PSTAT	REF3000-16137	Potentiostat
VDC	POTEN	0.00000E+000	T	DC Voltage (V)
FREQINIT	QUANT	3.00000E+005	Initial Freq. (Hz)
FREQFINAL	QUANT	1.00000E+000	Final Freq. (Hz)
PTSPERDEC	QUANT	1.00000E+001	Points/decade
VAC	QUANT	5.00000E+001	AC Voltage (mV rms)
AREA	QUANT	1.00000E+000	Sample Area (cm^2)
SPEED	SELECTOR	2	Optimize for:
ZGUESS	QUANT	1.00000E+003	Estimated Z (ohms)
EOC	QUANT	0	Open Circuit (V)
SEQUENCER	TOGGLE	TRUE	Run as Sequence
PSTATMODEL	IQUANT	5	Pstat Model
PSTATSECTION	LABEL	REF3000-16137	Pstat Section
PSTATSERIALNO	LABEL	16137	Pstat Serial Number
CTRLMODE	IQUANT	1	Control Mode
IESTAB	IQUANT	0	I/E Stability
CASPEED	IQUANT	1	Control Amp Speed
CONVENTION	IQUANT	1	Current Convention
ICHRANGE	IQUANT	2	Ich Range
ICHRANGEMODE	TOGGLE	F	Ich Auto Range
ICHOFFSETENABLE	TOGGLE	T	Ich Offset Enable
ICHOFFSET	QUANT	0	Ich Offset (V)
ICHFILTER	IQUANT	3	Ich Filter
VCHRANGE	IQUANT	2	Vch Range
VCHRANGEMODE	TOGGLE	F	Vch Auto Range
VCHOFFSETENABLE	TOGGLE	T	Vch Offset Enable
VCHOFFSET	QUANT	0	Vch Offset (V)
VCHFILTER	IQUANT	3	Vch Filter
ACHRANGE	IQUANT	2	Ach Range
ACHOFFSETENABLE	TOGGLE	F	Ach Offset Enable
ACHOFFSET	QUANT	0	Ach Offset (V)
ACHFILTER	IQUANT	3	Ach Filter
IERANGELOWERLIMIT	IQUANT	2	I/E Range Lower Limit
IERANGEMODE	TOGGLE	F	I/E AutoRange
IERANGE	IQUANT	11	I/E Range
POSFEEDENABLE	TOGGLE	F	Positive Feedback IR Comp
POSFEEDRESISTANCE	QUANT	0	Positive Feedback Resistance (ohm)
ACHSELECT	IQUANT	0	Ach Select
CABLEID	IQUANT	13	Cable ID
DCCALDATE	LABEL	7/31/2020	DC Calibration Date
ACCALDATE	LABEL	7/31/2020	AC Calibration Date
THERMOSELECT	IQUANT	1	Thermo Select
FRAMEWORKVERSION	QUANT	6.33	Framework Version
INSTRUMENTVERSION	LABEL	3.50	Instrument Version
COMPLIANCEVOLTAGE	IQUANT	0	Compliance Voltage
ZCURVE	TABLE
	Pt	Time	Freq	Zreal	Zimag	Zsig	Zmod	Zphz	Idc	Vdc	IERange
	#	s	Hz	ohm	ohm	V	ohm	°	A	V	#
	0	7	300046.9	193.8359	-17.28162	1	194.6047	-5.094789	7.814149E-005	-0.003123	9
	1	11	238359.4	195.8232	-15.72586	1	196.4537	-4.591364	-6.091536E-005	0.0006271	9
	2	14	189328.1	197.4051	-13.71255	1	197.8808	-3.973613	-1.250603E-005	0.0013461	9
	3	17	150421.9	198.3255	-11.8657	1	198.6801	-3.423893	-8.233621E-005	0.0022048	9
	4	19	119484.4	199.562	-10.24185	1	199.8246	-2.937937	-8.215373E-005	0.0022458	9
	5	22	94921.88	200.3776	-9.058611	1	200.5823	-2.588448	1.276951E-005	0.0002224	9
	6	24	75421.88	201.5786	-8.175276	1	201.7443	-2.32243	2.357269E-005	-0.0002125	9
	7	27	59859.37	202.4745	-7.36288	1	202.6084	-2.082613	2.164195E-005	-0.0008418	9
	8	29	47578.12	203.148	-6.842225	1	203.2632	-1.929049	2.025535E-005	-6.196984E-005	9
	9	32	37828.12	204.1355	-6.278482	1	204.232	-1.761659	-1.058746E-005	-1.591977E-005	9
	10	34	30046.88	205.0029	-5.893239	1	205.0876	-1.646634	1.985577E-005	-2.917743E-005	9
	11	37	23859.38	205.6301	-5.816023	1	205.7124	-1.620116	-2.049599E-005	0.0005638	9
	12	39	18984.38	206.2766	-5.734997	1	206.3563	-1.592554	-1.863294E-005	0.0003967	9
	13	42	15046.87	206.539	-5.237906	1	206.6054	-1.452731	-2.606523E-005	0.0008636	9
	14	44	11953.13	207.6784	-6.001445	1	207.7651	-1.65526	2.147802E-005	-0.0007814	9
	15	46	9515.62	208.3217	-6.36309	1	208.4188	-1.749529	1.244907E-005	0.0002382	9
	16	49	7546.875	208.7736	-6.938124	1	208.8889	-1.903396	-1.62836E-005	0.0001887	9
	17	51	5928.309	209.8663	-7.594264	1	210.0036	-2.072412	-7.365729E-006	0.0008307	9
	18	53	4733.456	210.6694	-8.016237	1	210.8219	-2.179126	1.528165E-005	-0.0007403	9
	19	56	3796.875	211.0754	-9.142407	1	211.2733	-2.480129	2.652714E-005	-0.0006074	9
	20	58	2987.132	212.1395	-10.90362	1	212.4195	-2.942319	1.486989E-005	-0.0007395	9
	21	60	2390.625	213.3202	-12.57142	1	213.6903	-3.372663	2.132053E-005	-0.0007617	9
	22	63	1884.191	214.2693	-15.23779	1	214.8104	-4.067749	-2.169722E-005	0.0005149	9
	23	65	1516.544	215.7166	-17.092	1	216.3927	-4.530284	2.393805E-005	-0.0002331	9
	24	67	1193.986	217.0771	-20.25827	1	218.0204	-5.331568	2.532896E-005	-0.0007473	9
	25	70	946.5144	218.6793	-23.9091	1	219.9825	-6.239598	1.62104E-006	0.0006358	9
	26	72	751.7689	220.9588	-28.67119	1	222.8112	-7.393282	-2.245058E-005	0.000842	9
	27	74	597.4265	223.092	-33.92696	1	225.657	-8.647063	2.615311E-005	-0.0004536	9
	28	77	477.4305	225.5699	-40.19191	1	229.1227	-10.1029	1.198845E-006	7.94259E-005	9
	29	79	376.6741	228.635	-48.16912	1	233.6541	-11.89716	1.13227E-006	8.541535E-005	9
	30	81	298.2954	232.1524	-57.63807	1	239.2005	-13.94328	1.191901E-006	8.569304E-005	9
	31	84	237.7717	236.1409	-68.72215	1	245.9375	-16.22615	1.258574E-006	8.085072E-005	9
	32	86	189.0121	240.7574	-82.19815	1	254.4025	-18.85067	1.186933E-006	0.000101	9
	33	88	150.2404	246.1063	-98.425	1	265.058	-21.79789	1.25144E-006	8.21146E-005	9
	34	91	119.1737	252.3211	-118.2303	1	278.6473	-25.10642	1.28342E-006	8.193878E-005	9
	35	93	95.0169	259.3408	-141.6673	1	295.5118	-28.64598	1.257843E-006	7.874727E-005	9
	36	96	75.60484	267.5255	-170.3175	1	317.1403	-32.48246	1.222258E-006	7.921988E-005	9
	37	98	54.50582	281.4476	-222.4022	1	358.7136	-38.31608	1.207459E-006	8.149929E-005	9
	38	101	45.95588	289.0038	-254.9872	1	385.411	-41.42187	-3.169172E-008	0.0006604	8
	39	103	37.20238	301.2783	-303.9914	1	427.9946	-45.25682	-1.702102E-008	0.0006566	8
	40	105	30.04808	315.941	-363.6952	1	481.7602	-49.01924	-8.923505E-008	0.0006625	8
	41	108	23.91582	334.6513	-440.9852	1	553.5878	-52.80615	-1.308322E-007	0.0006702	8
	42	110	18.60119	359.8969	-546.0225	1	653.962	-56.61013	-1.757581E-007	0.0006647	8
	43	112	15.02404	386.353	-654.9098	1	760.3785	-59.46223	1.375791E-008	0.000654	8
	44	115	12.01923	420.3277	-792.0819	1	896.699	-62.04681	-1.236524E-007	0.0006597	8
	45	117	9.450605	465.1659	-972.24	1	1077.79	-64.43134	-1.697957E-008	0.0006734	8
	46	120	7.512019	518.1155	-1182.423	1	1290.956	-66.33788	-1.492256E-008	0.0006736	8
	47	122	5.978954	583.54	-1434.744	1	1548.873	-67.86741	-3.297193E-008	0.0006615	8
	48	126	4.734848	664.4744	-1748.221	1	1870.241	-69.1889	1.630285E-008	0.000683	8
	49	129	3.75601	764.4384	-2124.569	1	2257.911	-70.21083	-5.184283E-008	0.0006395	8
	50	132	3.004808	880.2816	-2562.187	1	2709.188	-71.03899	-4.497968E-008	0.0006575	8
	51	136	2.372217	1030.767	-3120.313	1	3286.158	-71.71951	-2.574343E-008	0.0006676	8
	52	140	1.878005	1214.698	-3801.2	1	3990.565	-72.27838	-5.082707E-008	0.0006612	8
	53	145	1.512097	1413.533	-4563.788	1	4777.681	-72.79079	-1.023723E-007	0.0005468	7
	54	150	1.201923	1671.973	-5532.413	1	5779.541	-73.18445	-1.159616E-007	0.000634	7
	55	157	0.956633	1968.495	-6690.931	1	6974.491	-73.60593	-1.133606E-007	-8.359941E-006	7
