EXPLAIN
TAG	EISPOT
TITLE	LABEL	Potentiostatic EIS	Test Identifier
DATE	LABEL	11/21/2021	Date
TIME	LABEL	14:17:42	Time
NOTES	NOTES	1	Notes...
	
PSTAT	PSTAT	REF3000-16137	Potentiostat
VDC	POTEN	0.00000E+000	T	DC Voltage (V)
FREQINIT	QUANT	3.00000E+005	Initial Freq. (Hz)
FREQFINAL	QUANT	1.00000E+000	Final Freq. (Hz)
PTSPERDEC	QUANT	1.00000E+001	Points/decade
VAC	QUANT	5.00000E+001	AC Voltage (mV rms)
AREA	QUANT	1.00000E+000	Sample Area (cm^2)
SPEED	SELECTOR	2	Optimize for:
ZGUESS	QUANT	1.00000E+003	Estimated Z (ohms)
EOC	QUANT	0	Open Circuit (V)
SEQUENCER	TOGGLE	TRUE	Run as Sequence
PSTATMODEL	IQUANT	5	Pstat Model
PSTATSECTION	LABEL	REF3000-16137	Pstat Section
PSTATSERIALNO	LABEL	16137	Pstat Serial Number
CTRLMODE	IQUANT	1	Control Mode
IESTAB	IQUANT	0	I/E Stability
CASPEED	IQUANT	1	Control Amp Speed
CONVENTION	IQUANT	1	Current Convention
ICHRANGE	IQUANT	2	Ich Range
ICHRANGEMODE	TOGGLE	F	Ich Auto Range
ICHOFFSETENABLE	TOGGLE	T	Ich Offset Enable
ICHOFFSET	QUANT	0	Ich Offset (V)
ICHFILTER	IQUANT	3	Ich Filter
VCHRANGE	IQUANT	2	Vch Range
VCHRANGEMODE	TOGGLE	F	Vch Auto Range
VCHOFFSETENABLE	TOGGLE	T	Vch Offset Enable
VCHOFFSET	QUANT	0	Vch Offset (V)
VCHFILTER	IQUANT	3	Vch Filter
ACHRANGE	IQUANT	2	Ach Range
ACHOFFSETENABLE	TOGGLE	F	Ach Offset Enable
ACHOFFSET	QUANT	0	Ach Offset (V)
ACHFILTER	IQUANT	3	Ach Filter
IERANGELOWERLIMIT	IQUANT	2	I/E Range Lower Limit
IERANGEMODE	TOGGLE	F	I/E AutoRange
IERANGE	IQUANT	11	I/E Range
POSFEEDENABLE	TOGGLE	F	Positive Feedback IR Comp
POSFEEDRESISTANCE	QUANT	0	Positive Feedback Resistance (ohm)
ACHSELECT	IQUANT	0	Ach Select
CABLEID	IQUANT	13	Cable ID
DCCALDATE	LABEL	9/10/2021	DC Calibration Date
ACCALDATE	LABEL	9/10/2021	AC Calibration Date
THERMOSELECT	IQUANT	1	Thermo Select
FRAMEWORKVERSION	QUANT	6.33	Framework Version
INSTRUMENTVERSION	LABEL	3.50	Instrument Version
COMPLIANCEVOLTAGE	IQUANT	0	Compliance Voltage
ZCURVE	TABLE
	Pt	Time	Freq	Zreal	Zimag	Zsig	Zmod	Zphz	Idc	Vdc	IERange
	#	s	Hz	ohm	ohm	V	ohm	°	A	V	#
	0	10	300046.9	1.762708	2.242035	1	2.851992	51.82525	9.020758E-006	-0.0006071	11
	1	13	238359.4	1.861331	1.603349	1	2.456681	40.7416	-0.000144	-0.0012182	12
	2	17	189328.1	1.807285	1.23981	1	2.191667	34.45038	-0.000175	-0.0008727	12
	3	21	150421.9	1.729824	1.044861	1	2.020897	31.13313	-8.471126E-005	-0.0001235	11
	4	23	119484.4	1.733332	0.7804883	1	1.900947	24.24119	-0.0001492	-1.9387E-005	11
	5	26	94921.88	1.746446	0.5636299	1	1.835144	17.88643	-4.199273E-005	0.0001054	11
	6	29	75421.88	1.762481	0.3869019	1	1.804448	12.38125	-8.403593E-005	0.0001222	11
	7	31	59859.37	1.78419	0.2384058	1	1.800047	7.610856	-3.366906E-005	0.0002409	11
	8	34	47578.12	1.807131	0.1118903	1	1.810591	3.543004	-4.401961E-005	0.000284	11
	9	36	37828.12	1.831973	5.293212E-005	1	1.831973	0.0016555	-2.250995E-005	0.0003359	11
	10	39	30046.88	1.858901	-0.1028309	1	1.861743	-3.166267	-6.479172E-005	0.0003301	11
	11	41	23859.38	1.888179	-0.2014727	1	1.898898	-6.090537	-7.167383E-005	0.000354	11
	12	43	18984.38	1.918304	-0.2996999	1	1.941574	-8.879639	-4.433227E-005	0.0003676	11
	13	46	15046.87	1.950664	-0.4045716	1	1.992177	-11.71714	-2.402144E-005	0.0003739	11
	14	48	11953.13	1.986222	-0.5182633	1	2.052724	-14.62407	-9.475787E-005	0.0003533	11
	15	50	9515.62	2.023763	-0.646014	1	2.124371	-17.70382	-2.488847E-005	0.0004066	11
	16	53	7546.875	2.064137	-0.7968354	1	2.212602	-21.10848	-5.464392E-005	0.0003741	11
	17	55	5928.309	2.110168	-0.984433	1	2.328501	-25.00995	-3.605956E-005	0.0003847	11
	18	57	4733.456	2.157116	-1.196675	1	2.466816	-29.01962	-6.758035E-005	0.0003657	11
	19	59	3796.875	2.209322	-1.449726	1	2.642501	-33.27233	-4.516002E-005	0.0003843	11
	20	62	2987.132	2.273516	-1.786943	1	2.89172	-38.16672	-7.233681E-005	0.0003368	11
	21	64	2390.625	2.34395	-2.173401	1	3.196525	-42.83788	-4.881067E-005	0.0003489	11
	22	66	1884.191	2.436939	-2.687063	1	3.627531	-47.79462	-7.408061E-005	0.0003585	11
	23	69	1516.544	2.546566	-3.264167	1	4.140022	-52.04015	-1.996589E-005	-0.0001067	10
	24	71	1193.986	2.697267	-4.043409	1	4.860495	-56.29364	1.767508E-005	-0.0001288	10
	25	74	946.5144	2.888429	-4.980585	1	5.757538	-59.88894	-2.467693E-005	-0.0001238	10
	26	76	751.7689	3.142869	-6.112077	1	6.87278	-62.78749	1.269691E-005	-0.0001397	10
	27	78	597.4265	3.470912	-7.491563	1	8.256558	-65.14127	-5.031658E-006	-0.000128	10
	28	80	477.4305	3.901351	-9.123806	1	9.92292	-66.84839	-3.871354E-006	-0.0001126	10
	29	83	376.6741	4.486727	-11.1928	1	12.05859	-68.15621	-4.050073E-006	-0.0001134	10
	30	85	298.2954	5.233403	-13.64287	1	14.6122	-69.01319	-4.024044E-006	-0.0001071	10
	31	87	237.7717	6.155776	-16.47397	1	17.58651	-69.51095	-4.161118E-006	-0.000108	10
	32	90	189.0121	7.31651	-19.85963	1	21.16451	-69.77563	-4.504155E-006	-0.0001096	10
	33	92	150.2404	8.72621	-23.84632	1	25.39279	-69.90064	-4.481698E-006	-0.0001083	10
	34	95	119.1737	10.39925	-28.58733	1	30.42006	-70.01006	-4.922814E-006	-0.0001089	10
	35	97	95.0169	12.25311	-34.06128	1	36.1982	-70.21445	-5.503959E-006	-0.0001114	10
	36	100	75.60484	14.29811	-40.61349	1	43.05684	-70.60522	-3.803222E-006	-0.0001311	9
	37	102	54.50582	17.56437	-52.57735	1	55.43361	-71.52721	-3.790656E-006	-0.0001351	9
	38	105	45.95588	19.45723	-60.3843	1	63.44168	-72.13985	-3.443641E-006	-0.0001234	9
	39	107	37.20238	22.09257	-71.9517	1	75.26705	-72.93104	-3.517936E-006	-0.0001288	9
	40	109	30.04808	25.18584	-86.2562	1	89.85799	-73.72279	-3.871624E-006	-0.0001222	9
	41	112	23.91582	29.26993	-105.1038	1	109.1034	-74.43823	-3.834882E-006	-0.0001283	9
	42	114	18.60119	35.01534	-130.9033	1	135.5055	-75.02454	-3.571856E-006	-0.0001214	9
	43	116	15.02404	41.52257	-158.0723	1	163.4349	-75.28201	-3.601412E-006	-0.0001347	9
	44	119	12.01923	50.51767	-192.5081	1	199.0261	-75.29607	-3.61157E-006	-0.0001226	9
	45	121	9.450605	63.83571	-238.0031	1	246.4152	-74.98586	-3.456632E-006	-0.0001306	9
	46	124	7.512019	81.34673	-290.801	1	301.9644	-74.37193	-3.265791E-006	-0.0001183	9
	47	126	5.978954	105.0091	-353.6733	1	368.9332	-73.46333	-3.374918E-006	-0.0001333	9
	48	129	4.734848	138.0351	-428.6165	1	450.2953	-72.14895	-3.236938E-006	-0.0000974	8
	49	133	3.75601	183.184	-517.6823	1	549.1368	-70.51347	-3.252328E-006	-0.0001214	8
	50	136	3.004808	241.7735	-615.6884	1	661.4579	-68.56065	-3.381655E-006	-8.0741E-005	8
	51	140	2.372217	325.6753	-732.632	1	801.7568	-66.03352	-3.288549E-006	-3.425881E-005	8
	52	144	1.878005	433.3104	-858.5797	1	961.726	-63.22071	-3.423649E-006	-0.0001321	8
	53	149	1.512097	558.6708	-978.922	1	1127.12	-60.28659	-3.321926E-006	-0.0000968	8
	54	154	1.201923	725.9959	-1109.503	1	1325.921	-56.80154	-3.332035E-006	-0.0001398	8
	55	160	0.956633	922.8113	-1230.035	1	1537.715	-53.12162	-3.497878E-006	-0.000658	8
