EXPLAIN
TAG	EISPOT
TITLE	LABEL	Potentiostatic EIS	Test Identifier
DATE	LABEL	11/21/2021	Date
TIME	LABEL	14:51:40	Time
NOTES	NOTES	1	Notes...
	
PSTAT	PSTAT	REF3000-16137	Potentiostat
VDC	POTEN	0.00000E+000	T	DC Voltage (V)
FREQINIT	QUANT	3.00000E+005	Initial Freq. (Hz)
FREQFINAL	QUANT	1.00000E+000	Final Freq. (Hz)
PTSPERDEC	QUANT	1.00000E+001	Points/decade
VAC	QUANT	5.00000E+001	AC Voltage (mV rms)
AREA	QUANT	1.00000E+000	Sample Area (cm^2)
SPEED	SELECTOR	2	Optimize for:
ZGUESS	QUANT	1.00000E+003	Estimated Z (ohms)
EOC	QUANT	0	Open Circuit (V)
SEQUENCER	TOGGLE	TRUE	Run as Sequence
PSTATMODEL	IQUANT	5	Pstat Model
PSTATSECTION	LABEL	REF3000-16137	Pstat Section
PSTATSERIALNO	LABEL	16137	Pstat Serial Number
CTRLMODE	IQUANT	1	Control Mode
IESTAB	IQUANT	0	I/E Stability
CASPEED	IQUANT	1	Control Amp Speed
CONVENTION	IQUANT	1	Current Convention
ICHRANGE	IQUANT	2	Ich Range
ICHRANGEMODE	TOGGLE	F	Ich Auto Range
ICHOFFSETENABLE	TOGGLE	T	Ich Offset Enable
ICHOFFSET	QUANT	0	Ich Offset (V)
ICHFILTER	IQUANT	3	Ich Filter
VCHRANGE	IQUANT	2	Vch Range
VCHRANGEMODE	TOGGLE	F	Vch Auto Range
VCHOFFSETENABLE	TOGGLE	T	Vch Offset Enable
VCHOFFSET	QUANT	0	Vch Offset (V)
VCHFILTER	IQUANT	3	Vch Filter
ACHRANGE	IQUANT	2	Ach Range
ACHOFFSETENABLE	TOGGLE	F	Ach Offset Enable
ACHOFFSET	QUANT	0	Ach Offset (V)
ACHFILTER	IQUANT	3	Ach Filter
IERANGELOWERLIMIT	IQUANT	2	I/E Range Lower Limit
IERANGEMODE	TOGGLE	F	I/E AutoRange
IERANGE	IQUANT	11	I/E Range
POSFEEDENABLE	TOGGLE	F	Positive Feedback IR Comp
POSFEEDRESISTANCE	QUANT	0	Positive Feedback Resistance (ohm)
ACHSELECT	IQUANT	0	Ach Select
CABLEID	IQUANT	13	Cable ID
DCCALDATE	LABEL	9/10/2021	DC Calibration Date
ACCALDATE	LABEL	9/10/2021	AC Calibration Date
THERMOSELECT	IQUANT	1	Thermo Select
FRAMEWORKVERSION	QUANT	6.33	Framework Version
INSTRUMENTVERSION	LABEL	3.50	Instrument Version
COMPLIANCEVOLTAGE	IQUANT	0	Compliance Voltage
ZCURVE	TABLE
	Pt	Time	Freq	Zreal	Zimag	Zsig	Zmod	Zphz	Idc	Vdc	IERange
	#	s	Hz	ohm	ohm	V	ohm	°	A	V	#
	0	11	300046.9	4.558443	1.817677	1	4.907479	21.73962	2.04767E-006	-0.0008188	10
	1	14	238359.4	4.603923	1.240274	1	4.768059	15.07727	3.564975E-005	-0.0009752	10
	2	17	189328.1	4.679904	0.7568375	1	4.740707	9.186379	-7.889948E-005	-0.0006572	10
	3	19	150421.9	4.781447	0.3373136	1	4.79333	4.035322	-7.234823E-006	-0.0005536	10
	4	22	119484.4	4.897554	-0.0346568	1	4.897676	-0.4054382	-3.068245E-005	-0.000415	10
	5	24	94921.88	5.053786	-0.3526752	1	5.066076	-3.991877	-1.144707E-005	-0.000235	10
	6	27	75421.88	5.231883	-0.6562413	1	5.272879	-7.149341	-1.378398E-005	-0.0002693	10
	7	29	59859.37	5.438643	-0.9281405	1	5.517272	-9.68461	2.398572E-005	-0.000204	10
	8	32	47578.12	5.678205	-1.176609	1	5.798829	-11.70686	-2.78001E-005	-0.0001531	10
	9	36	37828.12	5.958213	-1.394532	1	6.119234	-13.17307	2.087561E-005	-0.0001519	10
	10	39	30046.88	6.248554	-1.584316	1	6.446277	-14.22748	2.259305E-005	-0.000146	10
	11	42	23859.38	6.555189	-1.751026	1	6.785028	-14.95569	-4.398879E-006	-0.0001397	10
	12	44	18984.38	6.859639	-1.886937	1	7.114435	-15.38042	-1.236542E-005	-9.446069E-005	10
	13	46	15046.87	7.172122	-2.019535	1	7.451031	-15.72622	-2.220371E-005	-7.602332E-005	10
	14	48	11953.13	7.471734	-2.149198	1	7.774693	-16.04755	-2.076163E-005	-7.894515E-005	10
	15	51	9515.62	7.76081	-2.292665	1	8.092372	-16.45797	1.91687E-005	-0.0001097	10
	16	53	7546.875	8.044521	-2.459244	1	8.412027	-16.99862	-9.392237E-006	-0.0001058	10
	17	55	5928.309	8.341016	-2.686041	1	8.76284	-17.85002	4.790174E-006	-0.0001375	10
	18	58	4733.456	8.62017	-2.95041	1	9.111106	-18.89445	-3.276354E-006	-0.0001132	10
	19	60	3796.875	8.897061	-3.266047	1	9.477592	-20.15782	2.031003E-005	-0.0001389	10
	20	62	2987.132	9.218105	-3.705658	1	9.93506	-21.90002	2.25942E-005	-0.000136	10
	21	66	2390.625	9.55229	-4.21277	1	10.44	-23.79854	1.269421E-005	-0.0001492	10
	22	69	1884.191	9.92567	-4.874564	1	11.05805	-26.15596	-2.674864E-005	-0.0000966	10
	23	71	1516.544	10.2987	-5.606503	1	11.72587	-28.56341	-2.633543E-005	-9.459355E-005	10
	24	73	1193.986	10.74986	-6.586436	1	12.60717	-31.49579	1.990033E-005	-0.0001336	10
	25	76	946.5144	11.24522	-7.740012	1	13.65148	-34.53938	2.098808E-005	-0.0001396	10
	26	78	751.7689	11.79336	-9.164138	1	14.93535	-37.84933	-2.102604E-005	-0.0001028	10
	27	81	597.4265	12.41765	-10.8667	1	16.50101	-41.18922	2.088885E-005	-0.0001381	10
	28	83	477.4305	13.12141	-12.90617	1	18.40491	-44.52619	2.070939E-006	-0.0001463	10
	29	85	376.6741	13.96593	-15.52021	1	20.8788	-48.01738	-1.580664E-006	-0.0001073	10
	30	87	298.2954	14.94289	-18.67999	1	23.92137	-51.34224	-8.888976E-007	-0.0001082	10
	31	90	237.7717	16.07583	-22.43353	1	27.59883	-54.37468	-1.61963E-006	-0.0001068	10
	32	92	189.0121	17.45242	-27.05695	1	32.19729	-57.17696	-2.132027E-006	-0.0001131	10
	33	95	150.2404	19.13589	-32.68524	1	37.87489	-59.65275	-1.81707E-006	-0.0001065	10
	34	97	119.1737	21.21695	-39.5375	1	44.87062	-61.78072	5.951493E-008	-0.000119	9
	35	99	95.0169	23.78771	-47.66906	1	53.2747	-63.47999	5.142442E-008	-0.000126	9
	36	102	75.60484	27.02726	-57.50141	1	63.53649	-64.82517	-5.508578E-008	-0.0001233	9
	37	104	54.50582	33.02752	-74.88704	1	81.84672	-66.20103	-9.241766E-009	-0.0001273	9
	38	107	45.95588	36.91137	-85.78815	1	93.39194	-66.71963	4.168754E-008	-0.0001215	9
	39	109	37.20238	42.42167	-101.2609	1	109.7878	-67.26952	8.807682E-009	-0.0001247	9
	40	112	30.04808	48.78611	-119.5561	1	129.1269	-67.80157	7.322279E-008	-0.0001245	9
	41	114	23.91582	56.29903	-142.6627	1	153.3696	-68.4643	2.480249E-008	-0.0001213	9
	42	116	18.60119	65.42315	-173.7395	1	185.6491	-69.36569	-1.135452E-007	-0.0001176	9
	43	119	15.02404	74.01364	-206.0547	1	218.9442	-70.242	2.610333E-007	-0.0001092	9
	44	121	12.01923	83.94714	-247.3368	1	261.1945	-71.25257	2.075218E-007	-0.0001217	9
	45	123	9.450605	96.3304	-302.6176	1	317.5798	-72.34248	1.858014E-008	-0.0001273	9
	46	126	7.512019	110.8526	-368.3513	1	384.6699	-73.25122	8.538641E-008	-0.0001002	9
	47	129	5.978954	128.166	-447.4048	1	465.4005	-74.01482	1.408445E-007	-0.0001113	8
	48	132	4.734848	151.497	-549.1698	1	569.683	-74.57766	2.767169E-007	-8.330266E-005	8
	49	135	3.75601	182.3297	-673.7639	1	697.9985	-74.85766	6.506168E-008	-0.0001197	8
	50	138	3.004808	221.2328	-819.1696	1	848.518	-74.88671	1.851157E-007	-0.0001196	8
	51	142	2.372217	277.6037	-1006.574	1	1044.153	-74.58163	1.742755E-007	-6.764213E-005	8
	52	146	1.878005	351.6089	-1235.396	1	1284.458	-74.11299	8.716385E-008	-0.0001124	8
	53	151	1.512097	440.7173	-1486.582	1	1550.535	-73.48684	1.769836E-007	-0.0001944	8
	54	156	1.201923	571.7405	-1805.521	1	1893.883	-72.42897	1.237306E-007	-0.0001068	8
	55	163	0.956633	740.0748	-2177.907	1	2300.215	-71.23172	1.15055E-007	-0.0006545	8
