EXPLAIN
TAG	EISPOT
TITLE	LABEL	Potentiostatic EIS	Test Identifier
DATE	LABEL	11/21/2021	Date
TIME	LABEL	15:27:54	Time
NOTES	NOTES	1	Notes...
	
PSTAT	PSTAT	REF3000-16137	Potentiostat
VDC	POTEN	0.00000E+000	T	DC Voltage (V)
FREQINIT	QUANT	3.00000E+005	Initial Freq. (Hz)
FREQFINAL	QUANT	1.00000E+000	Final Freq. (Hz)
PTSPERDEC	QUANT	1.00000E+001	Points/decade
VAC	QUANT	5.00000E+001	AC Voltage (mV rms)
AREA	QUANT	1.00000E+000	Sample Area (cm^2)
SPEED	SELECTOR	2	Optimize for:
ZGUESS	QUANT	1.00000E+003	Estimated Z (ohms)
EOC	QUANT	0	Open Circuit (V)
SEQUENCER	TOGGLE	TRUE	Run as Sequence
PSTATMODEL	IQUANT	5	Pstat Model
PSTATSECTION	LABEL	REF3000-16137	Pstat Section
PSTATSERIALNO	LABEL	16137	Pstat Serial Number
CTRLMODE	IQUANT	1	Control Mode
IESTAB	IQUANT	0	I/E Stability
CASPEED	IQUANT	1	Control Amp Speed
CONVENTION	IQUANT	1	Current Convention
ICHRANGE	IQUANT	2	Ich Range
ICHRANGEMODE	TOGGLE	F	Ich Auto Range
ICHOFFSETENABLE	TOGGLE	T	Ich Offset Enable
ICHOFFSET	QUANT	0	Ich Offset (V)
ICHFILTER	IQUANT	3	Ich Filter
VCHRANGE	IQUANT	2	Vch Range
VCHRANGEMODE	TOGGLE	F	Vch Auto Range
VCHOFFSETENABLE	TOGGLE	T	Vch Offset Enable
VCHOFFSET	QUANT	0	Vch Offset (V)
VCHFILTER	IQUANT	3	Vch Filter
ACHRANGE	IQUANT	2	Ach Range
ACHOFFSETENABLE	TOGGLE	F	Ach Offset Enable
ACHOFFSET	QUANT	0	Ach Offset (V)
ACHFILTER	IQUANT	3	Ach Filter
IERANGELOWERLIMIT	IQUANT	2	I/E Range Lower Limit
IERANGEMODE	TOGGLE	F	I/E AutoRange
IERANGE	IQUANT	11	I/E Range
POSFEEDENABLE	TOGGLE	F	Positive Feedback IR Comp
POSFEEDRESISTANCE	QUANT	0	Positive Feedback Resistance (ohm)
ACHSELECT	IQUANT	0	Ach Select
CABLEID	IQUANT	13	Cable ID
DCCALDATE	LABEL	9/10/2021	DC Calibration Date
ACCALDATE	LABEL	9/10/2021	AC Calibration Date
THERMOSELECT	IQUANT	1	Thermo Select
FRAMEWORKVERSION	QUANT	6.33	Framework Version
INSTRUMENTVERSION	LABEL	3.50	Instrument Version
COMPLIANCEVOLTAGE	IQUANT	0	Compliance Voltage
ZCURVE	TABLE
	Pt	Time	Freq	Zreal	Zimag	Zsig	Zmod	Zphz	Idc	Vdc	IERange
	#	s	Hz	ohm	ohm	V	ohm	°	A	V	#
	0	7	300046.9	181.2036	-7.213033	1	181.3471	-2.279526	4.933553E-005	-0.0008115	9
	1	11	238359.4	183.511	-6.730646	1	183.6344	-2.1005	-1.585148E-005	0.000933	9
	2	14	189328.1	185.8075	-6.951408	1	185.9375	-2.142543	5.065163E-005	-0.0006069	9
	3	16	150421.9	187.1134	-6.715811	1	187.2338	-2.055559	7.206826E-006	0.0008119	9
	4	19	119484.4	188.144	-6.119081	1	188.2435	-1.862797	-1.58309E-005	0.0009771	9
	5	21	94921.88	189.8149	-6.604024	1	189.9298	-1.992626	2.064598E-006	0.0003411	9
	6	24	75421.88	191.479	-6.803345	1	191.5999	-2.034892	-2.29354E-005	0.0005966	9
	7	26	59859.37	193.1272	-7.273758	1	193.2641	-2.156914	-1.095602E-005	-0.0002364	9
	8	29	47578.12	195.0252	-7.800164	1	195.1811	-2.290363	1.152102E-005	2.807215E-005	9
	9	31	37828.12	196.9636	-8.660636	1	197.1539	-2.517717	-8.87221E-006	-0.0002927	9
	10	34	30046.88	198.8417	-9.453531	1	199.0663	-2.721963	2.524967E-005	-0.0006744	9
	11	36	23859.38	201.0449	-10.54716	1	201.3214	-3.003082	2.416139E-005	-0.0009969	9
	12	39	18984.38	203.3981	-11.84521	1	203.7427	-3.332946	-2.634473E-006	-0.0005209	9
	13	41	15046.87	206.0534	-13.1735	1	206.4741	-3.658082	2.407586E-005	-0.0009549	9
	14	43	11953.13	208.7923	-14.40975	1	209.289	-3.947992	-1.532055E-005	0.0006831	9
	15	46	9515.62	211.5121	-16.4608	1	212.1517	-4.450038	5.592201E-006	-0.0007553	9
	16	48	7546.875	214.8867	-18.57466	1	215.688	-4.94033	-1.538742E-005	-3.466506E-005	9
	17	50	5928.309	218.2189	-20.50622	1	219.1803	-5.368367	2.376369E-005	-0.000957	9
	18	53	4733.456	221.8986	-23.40597	1	223.1296	-6.021322	-3.273797E-006	-0.0005108	9
	19	55	3796.875	225.536	-25.31904	1	226.9527	-6.4053	5.273399E-006	-0.0007786	9
	20	57	2987.132	230.6732	-28.43923	1	232.4197	-7.028415	-2.007493E-005	0.0007159	9
	21	60	2390.625	235.1819	-31.85638	1	237.3296	-7.714007	-3.486669E-006	-0.0005146	9
	22	62	1884.191	241.3181	-35.48076	1	243.9125	-8.364213	2.347266E-005	-0.0001241	10
	23	66	1516.544	247.3785	-39.23237	1	250.4702	-9.011627	-2.303289E-005	0.0006395	9
	24	69	1193.986	254.7081	-43.75428	1	258.4388	-9.74725	-2.32745E-005	0.0005042	9
	25	73	946.5144	262.7633	-48.64772	1	267.2286	-10.48892	2.539543E-005	-0.000829	9
	26	76	751.7689	270.724	-54.0982	1	276.0763	-11.30045	-3.282763E-006	-0.0005172	9
	27	80	597.4265	278.7571	-59.74863	1	285.0885	-12.0977	-1.136063E-005	-0.000218	9
	28	82	477.4305	287.2108	-65.9472	1	294.6847	-12.93168	3.717511E-007	-0.0001648	9
	29	85	376.6741	296.5309	-73.42369	1	305.4859	-13.90723	2.995087E-007	-0.0001279	9
	30	87	298.2954	306.4088	-81.92645	1	317.1723	-14.96937	3.409377E-007	-0.0001289	9
	31	89	237.7717	316.7875	-91.52498	1	329.744	-16.11485	3.246533E-007	-0.0001301	9
	32	92	189.0121	328.0103	-102.8441	1	343.7552	-17.40826	3.023461E-007	-0.0001285	9
	33	94	150.2404	340.0905	-116.1309	1	359.3716	-18.85352	2.757492E-007	-0.0001285	9
	34	97	119.1737	351.7832	-131.3958	1	375.5213	-20.48134	-3.080318E-008	-0.0001272	8
	35	99	95.0169	365.8057	-149.6674	1	395.2393	-22.25165	-1.770414E-008	-0.0001191	8
	36	101	75.60484	381.3315	-171.5229	1	418.1314	-24.21821	-4.26252E-008	-0.0001168	8
	37	104	54.50582	405.4563	-210.0415	1	456.6314	-27.38584	-1.573557E-008	-0.0001144	8
	38	107	45.95588	420.3379	-234.5061	1	481.3284	-29.1571	-1.893162E-008	-0.0001086	8
	39	109	37.20238	439.8966	-269.4856	1	515.8794	-31.4921	-5.077992E-008	-0.0001073	8
	40	111	30.04808	461.8001	-311.276	1	556.913	-33.98191	7.43354E-009	-0.000114	8
	41	114	23.91582	487.6902	-364.2706	1	608.7157	-36.75716	-1.197965E-007	-0.0001314	8
	42	116	18.60119	519.2719	-435.4583	1	677.6926	-39.983	-2.527549E-007	-0.0001145	8
	43	118	15.02404	550.4972	-508.0036	1	749.0759	-42.70109	9.444367E-008	-0.0001104	8
	44	121	12.01923	586.6005	-598.8984	1	838.3195	-45.59434	-3.628843E-008	-0.000117	8
	45	123	9.450605	631.235	-717.5434	1	955.681	-48.66137	7.545997E-008	-0.0001162	8
	46	126	7.512019	680.7238	-855.6922	1	1093.432	-51.49691	7.652653E-008	-0.0001027	8
	47	128	5.978954	737.9524	-1022.888	1	1261.299	-54.19181	3.490959E-008	-0.0001169	8
	48	131	4.734848	808.1596	-1230.325	1	1472.013	-56.70043	1.099573E-008	-0.0001048	8
	49	135	3.75601	890.3446	-1482.052	1	1728.928	-59.0046	-1.037096E-008	-0.0001088	8
	50	138	3.004808	985.064	-1774.042	1	2029.181	-60.9581	-7.045931E-008	-8.197291E-005	8
	51	142	2.372217	1107.033	-2151.662	1	2419.746	-62.77412	-6.532412E-009	-7.45471E-005	8
	52	146	1.878005	1260.062	-2603.558	1	2892.451	-64.17408	-2.557653E-009	-0.0001425	8
	53	151	1.512097	1432.279	-3108.446	1	3422.552	-65.26115	-2.179308E-008	-1.716245E-005	8
	54	156	1.201923	1656.641	-3749.88	1	4099.519	-66.16486	-1.393039E-009	-0.0001346	8
	55	162	0.956633	1930.325	-4518.708	1	4913.743	-66.86855	-4.294365E-008	-0.0006585	7
