EXPLAIN
TAG	EISPOT
TITLE	LABEL	Potentiostatic EIS	Test Identifier
DATE	LABEL	11/21/2021	Date
TIME	LABEL	15:41:12	Time
NOTES	NOTES	1	Notes...
	
PSTAT	PSTAT	REF3000-16137	Potentiostat
VDC	POTEN	0.00000E+000	T	DC Voltage (V)
FREQINIT	QUANT	3.00000E+005	Initial Freq. (Hz)
FREQFINAL	QUANT	1.00000E+000	Final Freq. (Hz)
PTSPERDEC	QUANT	1.00000E+001	Points/decade
VAC	QUANT	5.00000E+001	AC Voltage (mV rms)
AREA	QUANT	1.00000E+000	Sample Area (cm^2)
SPEED	SELECTOR	2	Optimize for:
ZGUESS	QUANT	1.00000E+003	Estimated Z (ohms)
EOC	QUANT	0	Open Circuit (V)
SEQUENCER	TOGGLE	TRUE	Run as Sequence
PSTATMODEL	IQUANT	5	Pstat Model
PSTATSECTION	LABEL	REF3000-16137	Pstat Section
PSTATSERIALNO	LABEL	16137	Pstat Serial Number
CTRLMODE	IQUANT	1	Control Mode
IESTAB	IQUANT	0	I/E Stability
CASPEED	IQUANT	1	Control Amp Speed
CONVENTION	IQUANT	1	Current Convention
ICHRANGE	IQUANT	2	Ich Range
ICHRANGEMODE	TOGGLE	F	Ich Auto Range
ICHOFFSETENABLE	TOGGLE	T	Ich Offset Enable
ICHOFFSET	QUANT	0	Ich Offset (V)
ICHFILTER	IQUANT	3	Ich Filter
VCHRANGE	IQUANT	2	Vch Range
VCHRANGEMODE	TOGGLE	F	Vch Auto Range
VCHOFFSETENABLE	TOGGLE	T	Vch Offset Enable
VCHOFFSET	QUANT	0	Vch Offset (V)
VCHFILTER	IQUANT	3	Vch Filter
ACHRANGE	IQUANT	2	Ach Range
ACHOFFSETENABLE	TOGGLE	F	Ach Offset Enable
ACHOFFSET	QUANT	0	Ach Offset (V)
ACHFILTER	IQUANT	3	Ach Filter
IERANGELOWERLIMIT	IQUANT	2	I/E Range Lower Limit
IERANGEMODE	TOGGLE	F	I/E AutoRange
IERANGE	IQUANT	11	I/E Range
POSFEEDENABLE	TOGGLE	F	Positive Feedback IR Comp
POSFEEDRESISTANCE	QUANT	0	Positive Feedback Resistance (ohm)
ACHSELECT	IQUANT	0	Ach Select
CABLEID	IQUANT	13	Cable ID
DCCALDATE	LABEL	9/10/2021	DC Calibration Date
ACCALDATE	LABEL	9/10/2021	AC Calibration Date
THERMOSELECT	IQUANT	1	Thermo Select
FRAMEWORKVERSION	QUANT	6.33	Framework Version
INSTRUMENTVERSION	LABEL	3.50	Instrument Version
COMPLIANCEVOLTAGE	IQUANT	0	Compliance Voltage
ZCURVE	TABLE
	Pt	Time	Freq	Zreal	Zimag	Zsig	Zmod	Zphz	Idc	Vdc	IERange
	#	s	Hz	ohm	ohm	V	ohm	°	A	V	#
	0	21	300046.9	1328.823	-597.5056	1	1456.977	-24.21108	8.005483E-005	-0.0038432	9
	1	37	238359.4	1491.573	-589.3744	1	1603.793	-21.56077	2.290332E-005	-0.0020699	9
	2	61	189328.1	1634.995	-564.4655	1	1729.691	-19.04671	2.515672E-005	-0.0017415	9
	3	73	150421.9	1725.819	-520.6637	1	1802.649	-16.78808	1.630948E-005	-0.0007258	9
	4	79	119484.4	1842.169	-368.8049	1	1878.724	-11.32103	4.549902E-005	-0.0045879	8
	5	86	94921.88	1893.337	-315.0146	1	1919.364	-9.446376	2.251253E-005	-0.0056904	8
	6	92	75421.88	1945.94	-273.142	1	1965.016	-7.990125	9.249723E-007	0.0049685	8
	7	95	59859.37	1987.19	-234.2163	1	2000.945	-6.722044	1.761732E-005	-0.0089109	8
	8	98	47578.12	2017.622	-189.2884	1	2026.481	-5.359664	9.555773E-006	0.0018822	8
	9	101	37828.12	2048.147	-159.7492	1	2054.367	-4.459866	1.751889E-005	-0.0088715	8
	10	104	30046.88	2079.917	-143.6218	1	2084.87	-3.950101	2.103012E-005	-0.0038847	8
	11	108	23859.38	2112.869	-129.0675	1	2116.808	-3.495647	2.286581E-005	-0.0057559	8
	12	111	18984.38	2149.589	-113.9599	1	2152.608	-3.034679	-1.436307E-005	0.0085907	8
	13	116	15046.87	2181.849	-104.0666	1	2184.33	-2.730738	1.668457E-005	-0.0013808	8
	14	120	11953.13	2213.193	-98.0759	1	2215.365	-2.537357	1.679691E-005	-0.0013361	8
	15	123	9515.62	2252.642	-100.6389	1	2254.888	-2.558042	1.172404E-005	-0.00826	8
	16	128	7546.875	2287.815	-94.76752	1	2289.777	-2.371991	-1.482949E-005	0.0086852	8
	17	132	5928.309	2322.414	-101.9557	1	2324.65	-2.513714	1.678909E-005	-0.0013239	8
	18	136	4733.456	2370.986	-97.9045	1	2373.007	-2.364555	-1.57446E-005	0.0007948	8
	19	140	3796.875	2428.972	-106.0494	1	2431.286	-2.499957	-2.610246E-005	0.0005424	9
	20	146	2987.132	2481.618	-116.7707	1	2484.364	-2.694023	2.295163E-005	-0.001129	9
	21	151	2390.625	2539.594	-136.5674	1	2543.263	-3.078133	-2.234049E-005	0.0079565	8
	22	157	1884.191	2592.803	-137.557	1	2596.449	-3.036888	-3.412854E-006	-0.0043747	8
	23	162	1516.544	2654.613	-175.9894	1	2660.44	-3.792912	2.331567E-005	-0.0058495	8
	24	167	1193.986	2729.03	-175.5816	1	2734.673	-3.681248	-1.590155E-005	0.0007843	8
	25	173	946.5144	2792.785	-220.9801	1	2801.514	-4.524123	2.823073E-005	-0.0008783	9
	26	177	751.7689	2861.355	-222.5664	1	2869.999	-4.447715	1.954806E-005	-0.0002489	9
	27	180	597.4265	2907.068	-231.7923	1	2916.295	-4.55878	-2.637852E-005	0.000541	9
	28	184	477.4305	2982.771	-280.1345	1	2995.897	-5.365339	-3.678086E-007	-0.0000978	8
	29	188	376.6741	3044.551	-310.5672	1	3060.35	-5.824456	-3.2507E-007	-0.0001176	8
	30	190	298.2954	3109.228	-343.6253	1	3128.158	-6.306615	-3.735445E-007	-0.0001037	8
	31	192	237.7717	3179.027	-378.7772	1	3201.512	-6.79469	-3.112548E-007	-0.0001309	8
	32	195	189.0121	3254.13	-417.5385	1	3280.808	-7.31169	-3.629584E-007	-0.0001044	8
	33	197	150.2404	3334.49	-459.6717	1	3366.025	-7.848963	-3.449146E-007	-0.0001098	8
	34	200	119.1737	3421.384	-506.3152	1	3458.645	-8.41785	-3.427882E-007	-0.0001059	8
	35	202	95.0169	3511.301	-556.8343	1	3555.179	-9.011124	-3.702317E-007	-0.0001104	8
	36	204	75.60484	3621.419	-614.2588	1	3673.145	-9.62679	-5.338515E-008	-0.0001444	7
	37	207	54.50582	3761.038	-705.8804	1	3826.706	-10.62975	-7.10284E-008	-8.061669E-005	7
	38	210	45.95588	3853.082	-762.2819	1	3927.762	-11.19071	-3.197414E-008	-0.0001236	7
	39	212	37.20238	3961.577	-838.0149	1	4049.242	-11.94403	-2.390456E-008	-6.828308E-005	7
	40	214	30.04808	4082.46	-924.7855	1	4185.894	-12.7636	-1.294121E-007	-8.75046E-005	7
	41	217	23.91582	4211.587	-1030.298	1	4335.779	-13.74653	1.607054E-008	-0.0001226	7
	42	219	18.60119	4362.351	-1170.891	1	4516.757	-15.02454	4.966944E-008	-0.0000959	7
	43	221	15.02404	4514.497	-1301.254	1	4698.292	-16.07905	-1.824916E-007	-0.0001481	7
	44	224	12.01923	4677.308	-1468.293	1	4902.356	-17.42803	3.99411E-008	-7.445129E-005	7
	45	226	9.450605	4847.074	-1681.461	1	5130.442	-19.13177	-1.738703E-007	-0.0001393	7
	46	229	7.512019	5039.437	-1923.252	1	5393.961	-20.88887	-1.992522E-007	-0.0001392	7
	47	231	5.978954	5262.887	-2210.324	1	5708.197	-22.78159	-1.44578E-007	-0.0001418	7
	48	234	4.734848	5521.233	-2564.889	1	6087.912	-24.91723	-2.370448E-008	-0.0001257	7
	49	238	3.75601	5789.675	-2980.318	1	6511.73	-27.23779	-1.320179E-007	-0.0001264	7
	50	241	3.004808	6094.672	-3451.561	1	7004.163	-29.52393	-9.59775E-008	-6.361197E-005	7
	51	245	2.372217	6443.864	-4047.099	1	7609.362	-32.13107	-8.536889E-008	-3.997635E-005	7
	52	249	1.878005	6842.101	-4778.484	1	8345.554	-34.93023	-9.820589E-008	-0.0001242	7
	53	254	1.512097	7261.022	-5580.735	1	9157.896	-37.54545	-8.766922E-008	-0.0000962	7
	54	259	1.201923	7776.204	-6614.107	1	10208.61	-40.38307	-8.153334E-008	-0.0001366	7
	55	265	0.956633	8363.781	-7859.728	1	11477.29	-43.22043	-9.177552E-008	-0.0006571	7
