EXPLAIN
TAG	EISPOT
TITLE	LABEL	Potentiostatic EIS	Test Identifier
DATE	LABEL	11/21/2021	Date
TIME	LABEL	15:25:08	Time
NOTES	NOTES	1	Notes...
	
PSTAT	PSTAT	REF3000-16137	Potentiostat
VDC	POTEN	0.00000E+000	T	DC Voltage (V)
FREQINIT	QUANT	3.00000E+005	Initial Freq. (Hz)
FREQFINAL	QUANT	1.00000E+000	Final Freq. (Hz)
PTSPERDEC	QUANT	1.00000E+001	Points/decade
VAC	QUANT	5.00000E+001	AC Voltage (mV rms)
AREA	QUANT	1.00000E+000	Sample Area (cm^2)
SPEED	SELECTOR	2	Optimize for:
ZGUESS	QUANT	1.00000E+003	Estimated Z (ohms)
EOC	QUANT	0	Open Circuit (V)
SEQUENCER	TOGGLE	TRUE	Run as Sequence
PSTATMODEL	IQUANT	5	Pstat Model
PSTATSECTION	LABEL	REF3000-16137	Pstat Section
PSTATSERIALNO	LABEL	16137	Pstat Serial Number
CTRLMODE	IQUANT	1	Control Mode
IESTAB	IQUANT	0	I/E Stability
CASPEED	IQUANT	1	Control Amp Speed
CONVENTION	IQUANT	1	Current Convention
ICHRANGE	IQUANT	2	Ich Range
ICHRANGEMODE	TOGGLE	F	Ich Auto Range
ICHOFFSETENABLE	TOGGLE	T	Ich Offset Enable
ICHOFFSET	QUANT	0	Ich Offset (V)
ICHFILTER	IQUANT	3	Ich Filter
VCHRANGE	IQUANT	2	Vch Range
VCHRANGEMODE	TOGGLE	F	Vch Auto Range
VCHOFFSETENABLE	TOGGLE	T	Vch Offset Enable
VCHOFFSET	QUANT	0	Vch Offset (V)
VCHFILTER	IQUANT	3	Vch Filter
ACHRANGE	IQUANT	2	Ach Range
ACHOFFSETENABLE	TOGGLE	F	Ach Offset Enable
ACHOFFSET	QUANT	0	Ach Offset (V)
ACHFILTER	IQUANT	3	Ach Filter
IERANGELOWERLIMIT	IQUANT	2	I/E Range Lower Limit
IERANGEMODE	TOGGLE	F	I/E AutoRange
IERANGE	IQUANT	11	I/E Range
POSFEEDENABLE	TOGGLE	F	Positive Feedback IR Comp
POSFEEDRESISTANCE	QUANT	0	Positive Feedback Resistance (ohm)
ACHSELECT	IQUANT	0	Ach Select
CABLEID	IQUANT	13	Cable ID
DCCALDATE	LABEL	9/10/2021	DC Calibration Date
ACCALDATE	LABEL	9/10/2021	AC Calibration Date
THERMOSELECT	IQUANT	1	Thermo Select
FRAMEWORKVERSION	QUANT	6.33	Framework Version
INSTRUMENTVERSION	LABEL	3.50	Instrument Version
COMPLIANCEVOLTAGE	IQUANT	0	Compliance Voltage
ZCURVE	TABLE
	Pt	Time	Freq	Zreal	Zimag	Zsig	Zmod	Zphz	Idc	Vdc	IERange
	#	s	Hz	ohm	ohm	V	ohm	°	A	V	#
	0	7	300046.9	127.7718	-2.321115	1	127.7929	-1.040726	-1.209086E-005	-0.0015175	9
	1	10	238359.4	128.8731	-2.679501	1	128.901	-1.191109	1.405093E-005	-0.0018142	9
	2	13	189328.1	129.7032	-2.857867	1	129.7347	-1.262245	3.00326E-005	1.364234E-005	9
	3	16	150421.9	131.1389	-3.715652	1	131.1915	-1.622968	1.312824E-005	-0.0011177	9
	4	19	119484.4	132.2889	-3.712198	1	132.341	-1.607372	-1.218799E-005	-0.0011479	9
	5	22	94921.88	133.2149	-4.149177	1	133.2795	-1.783986	1.86161E-005	-0.0009695	9
	6	24	75421.88	134.3265	-4.642966	1	134.4067	-1.979628	-8.403185E-006	-0.000243	9
	7	27	59859.37	135.6589	-5.319912	1	135.7632	-2.245724	1.888815E-005	-0.0009621	9
	8	29	47578.12	136.9811	-5.852596	1	137.106	-2.446508	2.012219E-006	0.0002312	9
	9	32	37828.12	138.3264	-6.641385	1	138.4858	-2.748798	-2.16582E-005	0.0004497	9
	10	34	30046.88	139.8564	-7.491303	1	140.0569	-3.066074	-2.080038E-005	0.0002937	9
	11	37	23859.38	141.5001	-8.541844	1	141.7577	-3.454545	-1.726563E-005	0.0001771	9
	12	39	18984.38	143.1979	-9.482953	1	143.5115	-3.78875	-2.235771E-005	0.0005193	9
	13	41	15046.87	145.3088	-10.7434	1	145.7055	-4.228467	-2.017891E-005	0.0003183	9
	14	44	11953.13	147.2943	-12.01407	1	147.7834	-4.663013	-2.250942E-005	0.000562	9
	15	46	9515.62	149.3269	-13.43162	1	149.9297	-5.139796	2.212695E-005	-0.0004516	9
	16	48	7546.875	151.5739	-15.07447	1	152.3217	-5.679556	-2.272893E-005	0.0004151	9
	17	51	5928.309	154.6915	-16.95124	1	155.6175	-6.253574	2.196782E-005	-0.0004834	9
	18	53	4733.456	157.3544	-18.87837	1	158.4828	-6.84128	4.390035E-006	-0.000707	9
	19	55	3796.875	160.6333	-21.03314	1	162.0045	-7.459804	-1.779707E-005	0.0002178	9
	20	58	2987.132	164.1453	-23.37414	1	165.8012	-8.104381	-2.208961E-005	0.0004889	9
	21	60	2390.625	167.782	-25.86037	1	169.7632	-8.762096	2.321733E-005	-0.0008066	9
	22	62	1884.191	172.2304	-28.6106	1	174.5906	-9.431742	1.929796E-005	-0.000346	9
	23	65	1516.544	176.2255	-31.73319	1	179.0598	-10.20794	-2.233303E-005	0.0004845	9
	24	67	1193.986	181.3282	-35.32024	1	184.7361	-11.02241	-3.896298E-006	-0.0004612	9
	25	70	946.5144	186.5388	-39.20897	1	190.615	-11.87032	-6.110675E-006	0.0005576	9
	26	72	751.7689	192.2285	-43.36273	1	197.0586	-12.71196	-3.787149E-006	-0.0004676	9
	27	74	597.4265	198.1077	-48.02049	1	203.8446	-13.62546	1.813407E-005	-0.0009417	9
	28	76	477.4305	204.6499	-53.51425	1	211.5309	-14.65425	2.850769E-007	-0.0001222	9
	29	79	376.6741	211.6738	-59.94054	1	219.997	-15.81075	3.991292E-007	-0.0001243	9
	30	81	298.2954	219.1073	-67.35751	1	229.227	-17.08837	3.636294E-007	-0.0001213	9
	31	83	237.7717	226.942	-75.8098	1	239.2693	-18.47185	4.338988E-007	-0.0001259	9
	32	86	189.0121	235.5383	-85.89323	1	250.7108	-20.03529	4.157065E-007	-0.0001246	9
	33	88	150.2404	244.8469	-97.8094	1	263.6601	-21.77531	4.354968E-007	-0.0001269	9
	34	91	119.1737	255.0925	-112.1034	1	278.6384	-23.72365	4.604192E-007	-0.0001219	9
	35	93	95.0169	266.1299	-128.7143	1	295.6222	-25.81084	4.17469E-007	-0.0001285	9
	36	96	75.60484	278.4906	-148.666	1	315.6875	-28.09453	4.540617E-007	-0.0001258	9
	37	98	54.50582	297.9588	-183.9496	1	350.167	-31.68976	3.899454E-007	-0.0001302	9
	38	101	45.95588	308.6537	-205.5399	1	370.8285	-33.6606	4.274876E-008	-0.0001189	8
	39	103	37.20238	324.4911	-237.6108	1	402.1858	-36.2137	1.451013E-007	-0.0001207	8
	40	105	30.04808	342.3442	-276.0846	1	439.798	-38.88456	5.382037E-008	-0.0001206	8
	41	108	23.91582	363.6518	-325.0869	1	487.7746	-41.79515	1.823495E-007	-0.0001214	8
	42	110	18.60119	390.0393	-390.9872	1	552.2695	-45.06954	2.848581E-007	-0.0001233	8
	43	112	15.02404	416.0446	-458.6798	1	619.2578	-47.79046	-1.117765E-007	-0.0001056	8
	44	115	12.01923	447.0787	-543.4509	1	703.7175	-50.55702	6.524041E-008	-0.0001216	8
	45	117	9.450605	486.0664	-654.3461	1	815.1253	-53.39401	-8.057162E-008	-0.0001089	8
	46	120	7.512019	529.5374	-783.4263	1	945.6039	-55.94426	-5.025253E-008	-0.0001297	8
	47	122	5.978954	581.175	-939.8132	1	1104.995	-58.26759	7.614778E-008	-0.0001196	8
	48	125	4.734848	643.9867	-1133.332	1	1303.519	-60.39372	-2.094177E-008	-0.0001456	8
	49	129	3.75601	720.4318	-1366.822	1	1545.064	-62.20694	1.493426E-007	-0.0000993	8
	50	132	3.004808	810.3414	-1637.312	1	1826.867	-63.66818	1.124325E-007	-0.0001292	8
	51	136	2.372217	929.7812	-1982.598	1	2189.792	-64.87478	7.454367E-008	-0.0001823	8
	52	140	1.878005	1071.303	-2398.744	1	2627.102	-65.93398	1.02071E-007	-0.0001119	8
	53	145	1.512097	1231.009	-2849.318	1	3103.868	-66.6339	6.810663E-008	-0.0001274	8
	54	150	1.201923	1441.935	-3429.436	1	3720.243	-67.19527	8.240968E-008	-9.492081E-005	8
	55	157	0.956633	1691.731	-4115.002	1	4449.179	-67.6518	-2.354079E-008	-0.0006544	7
