EXPLAIN
TAG	EISPOT
TITLE	LABEL	Potentiostatic EIS	Test Identifier
DATE	LABEL	11/21/2021	Date
TIME	LABEL	14:40:26	Time
NOTES	NOTES	1	Notes...
	
PSTAT	PSTAT	REF3000-16137	Potentiostat
VDC	POTEN	0.00000E+000	T	DC Voltage (V)
FREQINIT	QUANT	3.00000E+005	Initial Freq. (Hz)
FREQFINAL	QUANT	1.00000E+000	Final Freq. (Hz)
PTSPERDEC	QUANT	1.00000E+001	Points/decade
VAC	QUANT	5.00000E+001	AC Voltage (mV rms)
AREA	QUANT	1.00000E+000	Sample Area (cm^2)
SPEED	SELECTOR	2	Optimize for:
ZGUESS	QUANT	1.00000E+003	Estimated Z (ohms)
EOC	QUANT	0	Open Circuit (V)
SEQUENCER	TOGGLE	TRUE	Run as Sequence
PSTATMODEL	IQUANT	5	Pstat Model
PSTATSECTION	LABEL	REF3000-16137	Pstat Section
PSTATSERIALNO	LABEL	16137	Pstat Serial Number
CTRLMODE	IQUANT	1	Control Mode
IESTAB	IQUANT	0	I/E Stability
CASPEED	IQUANT	1	Control Amp Speed
CONVENTION	IQUANT	1	Current Convention
ICHRANGE	IQUANT	2	Ich Range
ICHRANGEMODE	TOGGLE	F	Ich Auto Range
ICHOFFSETENABLE	TOGGLE	T	Ich Offset Enable
ICHOFFSET	QUANT	0	Ich Offset (V)
ICHFILTER	IQUANT	3	Ich Filter
VCHRANGE	IQUANT	2	Vch Range
VCHRANGEMODE	TOGGLE	F	Vch Auto Range
VCHOFFSETENABLE	TOGGLE	T	Vch Offset Enable
VCHOFFSET	QUANT	0	Vch Offset (V)
VCHFILTER	IQUANT	3	Vch Filter
ACHRANGE	IQUANT	2	Ach Range
ACHOFFSETENABLE	TOGGLE	F	Ach Offset Enable
ACHOFFSET	QUANT	0	Ach Offset (V)
ACHFILTER	IQUANT	3	Ach Filter
IERANGELOWERLIMIT	IQUANT	2	I/E Range Lower Limit
IERANGEMODE	TOGGLE	F	I/E AutoRange
IERANGE	IQUANT	11	I/E Range
POSFEEDENABLE	TOGGLE	F	Positive Feedback IR Comp
POSFEEDRESISTANCE	QUANT	0	Positive Feedback Resistance (ohm)
ACHSELECT	IQUANT	0	Ach Select
CABLEID	IQUANT	13	Cable ID
DCCALDATE	LABEL	9/10/2021	DC Calibration Date
ACCALDATE	LABEL	9/10/2021	AC Calibration Date
THERMOSELECT	IQUANT	1	Thermo Select
FRAMEWORKVERSION	QUANT	6.33	Framework Version
INSTRUMENTVERSION	LABEL	3.50	Instrument Version
COMPLIANCEVOLTAGE	IQUANT	0	Compliance Voltage
ZCURVE	TABLE
	Pt	Time	Freq	Zreal	Zimag	Zsig	Zmod	Zphz	Idc	Vdc	IERange
	#	s	Hz	ohm	ohm	V	ohm	°	A	V	#
	0	11	300046.9	2.759897	1.931879	1	3.368856	34.99134	-3.749341E-005	-0.0004816	11
	1	14	238359.4	2.759698	1.390363	1	3.090153	26.73942	6.323056E-006	-0.0003484	11
	2	17	189328.1	2.794411	0.9369446	1	2.947303	18.53591	-8.980285E-005	-0.0002303	11
	3	19	150421.9	2.851264	0.5458897	1	2.903051	10.83842	-2.333631E-005	6.492962E-005	11
	4	22	119484.4	2.936669	0.2072641	1	2.943974	4.037126	-2.256658E-005	0.0002146	11
	5	24	94921.88	3.043358	-0.0921791	1	3.044754	-1.734879	-6.844761E-005	0.0002209	11
	6	27	75421.88	3.173369	-0.3508865	1	3.192709	-6.309691	-1.72561E-005	0.0003308	11
	7	29	59859.37	3.330085	-0.5795935	1	3.380147	-9.87329	-3.031026E-005	0.0003669	11
	8	32	47578.12	3.512317	-0.7790226	1	3.597672	-12.50561	-4.444367E-005	0.0003647	11
	9	34	37828.12	3.722245	-0.9425173	1	3.839719	-14.20933	-1.145028E-005	-0.000112	10
	10	37	30046.88	3.948204	-1.094376	1	4.097069	-15.49249	-1.056247E-005	-0.0001482	10
	11	40	23859.38	4.181148	-1.213994	1	4.353824	-16.19062	-8.687941E-006	-0.0001432	10
	12	42	18984.38	4.410395	-1.304659	1	4.599318	-16.47898	1.737016E-005	-0.0001418	10
	13	44	15046.87	4.642427	-1.385335	1	4.844717	-16.61549	-2.253203E-005	-0.0001502	10
	14	46	11953.13	4.858787	-1.457118	1	5.072573	-16.69364	-1.737061E-005	-0.0001257	10
	15	49	9515.62	5.053804	-1.531892	1	5.280874	-16.86293	-2.872587E-005	-0.0001159	10
	16	51	7546.875	5.248029	-1.632148	1	5.495973	-17.2758	-2.116703E-005	-0.0001645	10
	17	53	5928.309	5.437185	-1.768773	1	5.717652	-18.02025	-1.936409E-005	-0.0001066	10
	18	56	4733.456	5.5915	-1.936076	1	5.917201	-19.09859	-2.658848E-005	-0.0001062	10
	19	58	3796.875	5.737061	-2.153556	1	6.127942	-20.57494	4.031707E-006	-0.000143	10
	20	60	2987.132	5.894494	-2.469802	1	6.391007	-22.73376	-1.639402E-005	-0.0001152	10
	21	63	2390.625	6.044649	-2.850522	1	6.683058	-25.24752	-1.811261E-005	-8.794498E-005	10
	22	65	1884.191	6.211915	-3.378147	1	7.071051	-28.53811	1.538154E-005	-0.0001319	10
	23	67	1516.544	6.380698	-3.987237	1	7.524053	-32.00087	1.893669E-005	-0.0001269	10
	24	69	1193.986	6.600959	-4.832568	1	8.180855	-36.20789	-3.773087E-006	-0.0001214	10
	25	72	946.5144	6.938204	-5.879257	1	9.094193	-40.27709	-3.013587E-005	-0.0001241	10
	26	74	751.7689	7.23744	-7.145027	1	10.17015	-44.63186	-3.90328E-006	-0.0001242	10
	27	77	597.4265	7.607429	-8.703975	1	11.55994	-48.84596	2.016628E-005	-0.0001333	10
	28	79	477.4305	8.076974	-10.58119	1	13.31161	-52.64429	-2.146586E-006	-0.00011	10
	29	81	376.6741	8.712423	-12.99063	1	15.6417	-56.15143	-1.492124E-006	-0.0001132	10
	30	83	298.2954	9.61005	-15.88486	1	18.56562	-58.82682	-1.839329E-006	-0.0001054	10
	31	86	237.7717	10.64491	-19.26916	1	22.01396	-61.08231	-2.282937E-006	-0.0001103	10
	32	88	189.0121	11.95602	-23.36431	1	26.24571	-62.9002	-2.478936E-006	-0.0001045	10
	33	91	150.2404	13.612	-28.23746	1	31.3471	-64.26339	-2.526331E-006	-0.0001055	10
	34	93	119.1737	15.66251	-34.04978	1	37.47935	-65.2981	-3.081158E-006	-0.000111	10
	35	95	95.0169	18.03374	-40.68137	1	44.49932	-66.09265	-6.751856E-007	-0.0001295	9
	36	98	75.60484	20.84343	-48.5965	1	52.87786	-66.78512	-7.483917E-007	-0.0001265	9
	37	100	54.50582	25.438	-62.54112	1	67.51655	-67.86644	-8.275289E-007	-0.0001279	9
	38	103	45.95588	28.08412	-71.41648	1	76.74003	-68.53305	-7.645664E-007	-0.0001182	9
	39	105	37.20238	31.54208	-84.36208	1	90.06588	-69.49977	-6.849693E-007	-0.0001259	9
	40	108	30.04808	35.35695	-100.2572	1	106.309	-70.57417	-7.318492E-007	-0.0001201	9
	41	110	23.91582	39.79844	-121.0734	1	127.4468	-71.80362	-8.521568E-007	-0.0001274	9
	42	112	18.60119	45.55793	-149.9994	1	156.7652	-73.10537	-8.302835E-007	-0.0001182	9
	43	115	15.02404	51.51339	-180.5755	1	187.7795	-74.07796	-4.544025E-007	-0.0001088	9
	44	117	12.01923	59.28046	-219.8081	1	227.6616	-74.90688	-5.53615E-007	-0.0001219	9
	45	119	9.450605	70.27811	-272.1832	1	281.1098	-75.52235	-6.460206E-007	-0.0001313	9
	46	122	7.512019	84.09157	-334.1958	1	344.6132	-75.87624	-6.850315E-007	-0.0001317	9
	47	125	5.978954	102.7207	-409.3633	1	422.0543	-75.91373	-5.868675E-007	-0.0001297	9
	48	128	4.734848	128.0938	-501.5902	1	517.6879	-75.67426	-5.221182E-007	-0.0000951	8
	49	131	3.75601	162.6778	-614.6656	1	635.8285	-75.17594	-5.546831E-007	-0.0001172	8
	50	134	3.004808	207.478	-745.1579	1	773.5033	-74.44094	-5.698323E-007	-0.0001012	8
	51	138	2.372217	273.5956	-910.7185	1	950.927	-73.27882	-5.420444E-007	-4.858017E-005	8
	52	142	1.878005	360.532	-1106.632	1	1163.88	-71.9548	-6.598301E-007	-0.0001247	8
	53	147	1.512097	466.7655	-1315.166	1	1395.54	-70.45972	-5.561936E-007	-0.0001676	8
	54	152	1.201923	621.2534	-1570.979	1	1689.358	-68.42338	-6.104088E-007	-0.0001254	8
	55	159	0.956633	819.2404	-1853.972	1	2026.91	-66.16013	-6.604873E-007	-0.0006686	8
