EXPLAIN
TAG	EISPOT
TITLE	LABEL	Potentiostatic EIS	Test Identifier
DATE	LABEL	11/21/2021	Date
TIME	LABEL	14:54:32	Time
NOTES	NOTES	1	Notes...
	
PSTAT	PSTAT	REF3000-16137	Potentiostat
VDC	POTEN	0.00000E+000	T	DC Voltage (V)
FREQINIT	QUANT	3.00000E+005	Initial Freq. (Hz)
FREQFINAL	QUANT	1.00000E+000	Final Freq. (Hz)
PTSPERDEC	QUANT	1.00000E+001	Points/decade
VAC	QUANT	5.00000E+001	AC Voltage (mV rms)
AREA	QUANT	1.00000E+000	Sample Area (cm^2)
SPEED	SELECTOR	2	Optimize for:
ZGUESS	QUANT	1.00000E+003	Estimated Z (ohms)
EOC	QUANT	0	Open Circuit (V)
SEQUENCER	TOGGLE	TRUE	Run as Sequence
PSTATMODEL	IQUANT	5	Pstat Model
PSTATSECTION	LABEL	REF3000-16137	Pstat Section
PSTATSERIALNO	LABEL	16137	Pstat Serial Number
CTRLMODE	IQUANT	1	Control Mode
IESTAB	IQUANT	0	I/E Stability
CASPEED	IQUANT	1	Control Amp Speed
CONVENTION	IQUANT	1	Current Convention
ICHRANGE	IQUANT	2	Ich Range
ICHRANGEMODE	TOGGLE	F	Ich Auto Range
ICHOFFSETENABLE	TOGGLE	T	Ich Offset Enable
ICHOFFSET	QUANT	0	Ich Offset (V)
ICHFILTER	IQUANT	3	Ich Filter
VCHRANGE	IQUANT	2	Vch Range
VCHRANGEMODE	TOGGLE	F	Vch Auto Range
VCHOFFSETENABLE	TOGGLE	T	Vch Offset Enable
VCHOFFSET	QUANT	0	Vch Offset (V)
VCHFILTER	IQUANT	3	Vch Filter
ACHRANGE	IQUANT	2	Ach Range
ACHOFFSETENABLE	TOGGLE	F	Ach Offset Enable
ACHOFFSET	QUANT	0	Ach Offset (V)
ACHFILTER	IQUANT	3	Ach Filter
IERANGELOWERLIMIT	IQUANT	2	I/E Range Lower Limit
IERANGEMODE	TOGGLE	F	I/E AutoRange
IERANGE	IQUANT	11	I/E Range
POSFEEDENABLE	TOGGLE	F	Positive Feedback IR Comp
POSFEEDRESISTANCE	QUANT	0	Positive Feedback Resistance (ohm)
ACHSELECT	IQUANT	0	Ach Select
CABLEID	IQUANT	13	Cable ID
DCCALDATE	LABEL	9/10/2021	DC Calibration Date
ACCALDATE	LABEL	9/10/2021	AC Calibration Date
THERMOSELECT	IQUANT	1	Thermo Select
FRAMEWORKVERSION	QUANT	6.33	Framework Version
INSTRUMENTVERSION	LABEL	3.50	Instrument Version
COMPLIANCEVOLTAGE	IQUANT	0	Compliance Voltage
ZCURVE	TABLE
	Pt	Time	Freq	Zreal	Zimag	Zsig	Zmod	Zphz	Idc	Vdc	IERange
	#	s	Hz	ohm	ohm	V	ohm	°	A	V	#
	0	10	300046.9	5.84489	1.771181	1	6.107358	16.85842	-8.608554E-005	-0.000723	10
	1	13	238359.4	5.919743	1.194941	1	6.039143	11.4122	6.714796E-005	-0.0011077	10
	2	16	189328.1	5.998958	0.7110394	1	6.04095	6.759569	-2.643603E-005	-0.0006578	10
	3	19	150421.9	6.10631	0.2985385	1	6.113604	2.798971	2.879465E-005	-0.0005004	10
	4	21	119484.4	6.244708	-0.07754	1	6.245189	-0.7114	2.041189E-005	-0.0003171	10
	5	24	94921.88	6.41226	-0.396641	1	6.424516	-3.539616	6.817828E-006	-0.0002573	10
	6	26	75421.88	6.593379	-0.7004687	1	6.630482	-6.064254	-3.21852E-006	-0.0002208	10
	7	29	59859.37	6.807541	-0.978662	1	6.877529	-8.18087	-3.391541E-006	-0.0001829	10
	8	31	47578.12	7.0505	-1.228291	1	7.156693	-9.88251	-1.750484E-005	-0.0001529	10
	9	34	37828.12	7.319025	-1.452416	1	7.461745	-11.22418	-1.749313E-005	-0.000177	10
	10	36	30046.88	7.606408	-1.649105	1	7.783122	-12.23267	1.854688E-005	-0.0001544	10
	11	39	23859.38	7.91047	-1.83099	1	8.11961	-13.03241	-1.932114E-005	-7.914827E-005	10
	12	41	18984.38	8.218304	-1.998518	1	8.457812	-13.66783	-1.26693E-005	-0.0000965	10
	13	45	15046.87	8.552953	-2.168704	1	8.823621	-14.22816	6.047125E-006	-0.000138	10
	14	48	11953.13	8.871689	-2.347749	1	9.177079	-14.82262	-3.082955E-005	-0.0001237	10
	15	50	9515.62	9.179672	-2.536388	1	9.52364	-15.44574	2.210205E-005	-0.0001486	10
	16	52	7546.875	9.496737	-2.765438	1	9.89119	-16.23549	-1.054137E-005	-7.869529E-005	10
	17	55	5928.309	9.83294	-3.05211	1	10.29573	-17.24415	2.374255E-005	-0.0001379	10
	18	57	4733.456	10.15765	-3.380413	1	10.70538	-18.40717	-2.916993E-006	-0.0001147	10
	19	59	3796.875	10.49006	-3.766141	1	11.14563	-19.74916	-1.829623E-005	-7.267172E-005	10
	20	62	2987.132	10.87868	-4.281155	1	11.69076	-21.48144	2.35402E-005	-0.0001375	10
	21	64	2390.625	11.26812	-4.861409	1	12.27208	-23.33683	1.694934E-005	-0.0001516	10
	22	66	1884.191	11.7292	-5.616601	1	13.00463	-25.58772	-3.202914E-006	-0.0001162	10
	23	69	1516.544	12.19024	-6.441892	1	13.78767	-27.85407	-2.574642E-005	-0.0000987	10
	24	71	1193.986	12.75088	-7.532485	1	14.80957	-30.57214	1.800289E-005	-0.0001479	10
	25	73	946.5144	13.3729	-8.836649	1	16.02875	-33.45625	2.230279E-005	-0.0001388	10
	26	76	751.7689	14.06353	-10.3743	1	17.47595	-36.41523	1.620441E-005	-0.0001327	10
	27	78	597.4265	14.8334	-12.2208	1	19.2192	-39.48409	1.82859E-005	-0.0001499	10
	28	80	477.4305	15.70113	-14.42624	1	21.32233	-42.57687	-1.342849E-006	-0.0001111	10
	29	83	376.6741	16.74162	-17.22908	1	24.02338	-45.82211	-9.670065E-007	-0.0001129	10
	30	85	298.2954	17.92877	-20.59395	1	27.30479	-48.95767	-1.826801E-006	-0.0001063	10
	31	87	237.7717	19.27767	-24.56309	1	31.22457	-51.87437	-1.504956E-006	-0.0001051	10
	32	90	189.0121	20.88266	-29.43189	1	36.08769	-54.64335	-1.507166E-006	-0.0001511	10
	33	92	150.2404	22.76157	-35.29693	1	41.99955	-57.18366	1.488412E-007	-0.00012	9
	34	95	119.1737	25.07404	-42.52438	1	49.36629	-59.47473	2.539331E-007	-0.000122	9
	35	97	95.0169	27.81708	-51.07417	1	58.15806	-61.42548	2.399125E-007	-0.0001284	9
	36	99	75.60484	31.20614	-61.47768	1	68.94438	-63.0876	2.016081E-007	-0.0001269	9
	37	102	54.50582	37.42586	-80.07289	1	88.38757	-64.94874	1.408439E-007	-0.0001347	9
	38	105	45.95588	41.52199	-91.85408	1	100.803	-65.67499	1.967515E-007	-0.0001272	9
	39	107	37.20238	47.44647	-108.6391	1	118.548	-66.40744	1.849654E-007	-0.000129	9
	40	109	30.04808	54.52802	-128.507	1	139.5972	-67.00755	2.32781E-007	-0.0001305	9
	41	112	23.91582	63.25815	-153.4704	1	165.9963	-67.5993	1.929149E-007	-0.0001254	9
	42	114	18.60119	74.08895	-186.4145	1	200.598	-68.32505	9.698557E-008	-0.0001266	9
	43	116	15.02404	84.32895	-220.1595	1	235.7575	-69.04138	2.584296E-007	-0.0001106	9
	44	119	12.01923	95.959	-262.8199	1	279.7899	-69.9422	3.320142E-007	-0.0001191	9
	45	121	9.450605	109.7085	-319.4641	1	337.7769	-71.0468	3.21026E-007	-0.0001355	9
	46	123	7.512019	124.8762	-386.636	1	406.3022	-72.10051	3.242411E-007	-0.0001046	9
	47	126	5.978954	142.0307	-467.8321	1	488.9167	-73.11206	2.729969E-007	-0.0001117	8
	48	129	4.734848	164.2605	-572.9979	1	596.0772	-74.00407	3.853321E-007	-0.0000996	8
	49	132	3.75601	192.7479	-702.3643	1	728.3318	-74.65426	2.311649E-007	-0.00012	8
	50	136	3.004808	228.2079	-854.611	1	884.5557	-75.04908	3.598151E-007	-0.000146	8
	51	140	2.372217	277.4687	-1054.056	1	1089.964	-75.25209	3.079645E-007	-0.0001803	8
	52	144	1.878005	344.34	-1294.401	1	1339.42	-75.10304	3.434658E-007	-0.0001029	8
	53	148	1.512097	426.8799	-1562.229	1	1619.502	-74.71698	3.175197E-007	-0.0001969	8
	54	154	1.201923	540.1533	-1911.324	1	1986.183	-74.21935	3.470786E-007	-9.017611E-005	8
	55	160	0.956633	692.5846	-2325.374	1	2426.321	-73.41447	2.69415E-007	-0.0006651	8
