EXPLAIN
TAG	EISPOT
TITLE	LABEL	Potentiostatic EIS	Test Identifier
DATE	LABEL	11/21/2021	Date
TIME	LABEL	15:02:52	Time
NOTES	NOTES	1	Notes...
	
PSTAT	PSTAT	REF3000-16137	Potentiostat
VDC	POTEN	0.00000E+000	T	DC Voltage (V)
FREQINIT	QUANT	3.00000E+005	Initial Freq. (Hz)
FREQFINAL	QUANT	1.00000E+000	Final Freq. (Hz)
PTSPERDEC	QUANT	1.00000E+001	Points/decade
VAC	QUANT	5.00000E+001	AC Voltage (mV rms)
AREA	QUANT	1.00000E+000	Sample Area (cm^2)
SPEED	SELECTOR	2	Optimize for:
ZGUESS	QUANT	1.00000E+003	Estimated Z (ohms)
EOC	QUANT	0	Open Circuit (V)
SEQUENCER	TOGGLE	TRUE	Run as Sequence
PSTATMODEL	IQUANT	5	Pstat Model
PSTATSECTION	LABEL	REF3000-16137	Pstat Section
PSTATSERIALNO	LABEL	16137	Pstat Serial Number
CTRLMODE	IQUANT	1	Control Mode
IESTAB	IQUANT	0	I/E Stability
CASPEED	IQUANT	1	Control Amp Speed
CONVENTION	IQUANT	1	Current Convention
ICHRANGE	IQUANT	2	Ich Range
ICHRANGEMODE	TOGGLE	F	Ich Auto Range
ICHOFFSETENABLE	TOGGLE	T	Ich Offset Enable
ICHOFFSET	QUANT	0	Ich Offset (V)
ICHFILTER	IQUANT	3	Ich Filter
VCHRANGE	IQUANT	2	Vch Range
VCHRANGEMODE	TOGGLE	F	Vch Auto Range
VCHOFFSETENABLE	TOGGLE	T	Vch Offset Enable
VCHOFFSET	QUANT	0	Vch Offset (V)
VCHFILTER	IQUANT	3	Vch Filter
ACHRANGE	IQUANT	2	Ach Range
ACHOFFSETENABLE	TOGGLE	F	Ach Offset Enable
ACHOFFSET	QUANT	0	Ach Offset (V)
ACHFILTER	IQUANT	3	Ach Filter
IERANGELOWERLIMIT	IQUANT	2	I/E Range Lower Limit
IERANGEMODE	TOGGLE	F	I/E AutoRange
IERANGE	IQUANT	11	I/E Range
POSFEEDENABLE	TOGGLE	F	Positive Feedback IR Comp
POSFEEDRESISTANCE	QUANT	0	Positive Feedback Resistance (ohm)
ACHSELECT	IQUANT	0	Ach Select
CABLEID	IQUANT	13	Cable ID
DCCALDATE	LABEL	9/10/2021	DC Calibration Date
ACCALDATE	LABEL	9/10/2021	AC Calibration Date
THERMOSELECT	IQUANT	1	Thermo Select
FRAMEWORKVERSION	QUANT	6.33	Framework Version
INSTRUMENTVERSION	LABEL	3.50	Instrument Version
COMPLIANCEVOLTAGE	IQUANT	0	Compliance Voltage
ZCURVE	TABLE
	Pt	Time	Freq	Zreal	Zimag	Zsig	Zmod	Zphz	Idc	Vdc	IERange
	#	s	Hz	ohm	ohm	V	ohm	°	A	V	#
	0	8	300046.9	12.36768	1.591243	1	12.46963	7.331477	-3.104717E-005	-0.0006637	10
	1	11	238359.4	12.46956	1.017391	1	12.511	4.664427	3.211002E-005	-0.000652	10
	2	14	189328.1	12.59793	0.5335727	1	12.60923	2.425255	-3.170308E-005	-0.000438	10
	3	16	150421.9	12.74103	0.1066682	1	12.74148	0.4796703	-2.321035E-005	-0.0003162	10
	4	19	119484.4	12.92725	-0.2681843	1	12.93004	-1.188468	2.893626E-005	-0.0002825	10
	5	22	94921.88	13.12935	-0.6115867	1	13.14359	-2.667003	2.649389E-005	-0.0001659	10
	6	24	75421.88	13.35619	-0.93905	1	13.38916	-4.021746	1.923511E-005	-0.000202	10
	7	27	59859.37	13.61054	-1.247677	1	13.66761	-5.23766	-1.479532E-005	-0.0001617	10
	8	29	47578.12	13.88848	-1.538061	1	13.97338	-6.319392	2.516701E-005	-0.0001528	10
	9	32	37828.12	14.19377	-1.821403	1	14.31016	-7.312466	-2.781929E-005	-0.0001345	10
	10	34	30046.88	14.52976	-2.101656	1	14.68097	-8.230462	-2.863916E-005	-0.0001333	10
	11	37	23859.38	14.88954	-2.383497	1	15.07911	-9.094666	-2.154053E-005	-8.459356E-005	10
	12	39	18984.38	15.28629	-2.678792	1	15.51923	-9.93967	7.553211E-006	-9.157784E-005	10
	13	41	15046.87	15.71104	-2.983576	1	15.99182	-10.75261	1.395112E-005	-0.0001704	10
	14	46	11953.13	16.21942	-3.323558	1	16.55644	-11.5803	6.713432E-006	-0.0001614	10
	15	48	9515.62	16.7049	-3.680914	1	17.10563	-12.42651	-2.910787E-006	-0.0001506	10
	16	50	7546.875	17.23095	-4.078189	1	17.70699	-13.31563	1.097871E-005	-0.0000966	10
	17	52	5928.309	17.82011	-4.544282	1	18.3904	-14.30602	-2.709633E-005	-0.0000964	10
	18	55	4733.456	18.41623	-5.045702	1	19.09494	-15.32197	-2.370834E-005	-0.0001049	10
	19	57	3796.875	19.06893	-5.617487	1	19.87914	-16.41437	-1.691905E-005	-0.000133	10
	20	59	2987.132	19.79832	-6.326253	1	20.78449	-17.72049	1.774686E-005	-0.0001341	10
	21	62	2390.625	20.51795	-7.103605	1	21.71284	-19.09658	1.527594E-005	-0.0001626	10
	22	64	1884.191	21.36016	-8.084927	1	22.83906	-20.7319	7.774992E-006	-0.0001271	10
	23	66	1516.544	22.21653	-9.148982	1	24.02662	-22.38234	1.872254E-005	-0.0001651	10
	24	69	1193.986	23.227	-10.53711	1	25.50537	-24.40179	1.842946E-005	-0.000166	10
	25	71	946.5144	24.31253	-12.17908	1	27.19245	-26.60805	-1.173528E-005	-0.0001269	10
	26	73	751.7689	25.52966	-14.08099	1	29.1554	-28.87911	-2.439557E-005	-9.246665E-005	10
	27	76	597.4265	26.86732	-16.38112	1	31.46735	-31.37085	-1.888242E-005	-8.805435E-005	10
	28	78	477.4305	28.30716	-19.0395	1	34.11448	-33.92491	-1.224859E-006	-0.0001077	10
	29	80	376.6741	29.97599	-22.41132	1	37.42763	-36.78335	-1.624723E-006	-0.0001152	10
	30	83	298.2954	31.79484	-26.38669	1	41.31791	-39.68945	4.136596E-007	-0.0001207	9
	31	85	237.7717	33.8476	-31.07495	1	45.94902	-42.55455	4.791236E-007	-0.0001264	9
	32	87	189.0121	36.2877	-36.79281	1	51.67696	-45.396	4.493302E-007	-0.0001271	9
	33	90	150.2404	39.03546	-43.69839	1	58.59451	-48.22581	7.677232E-007	-0.0001648	9
	34	92	119.1737	42.19751	-52.12348	1	67.06331	-51.00747	3.893647E-007	-0.0001241	9
	35	95	95.0169	45.83349	-62.07854	1	77.16512	-53.56101	4.069137E-007	-0.0001251	9
	36	97	75.60484	50.15388	-74.20264	1	89.56251	-55.94507	3.630689E-007	-0.0001283	9
	37	100	54.50582	57.65146	-96.012	1	111.9911	-59.01683	3.778209E-007	-0.0001282	9
	38	102	45.95588	62.48033	-109.9696	1	126.4797	-60.3965	7.002171E-007	-0.0001627	9
	39	105	37.20238	69.43002	-130.1081	1	147.4742	-61.91413	3.923703E-007	-0.0001338	9
	40	107	30.04808	77.83774	-154.2763	1	172.8001	-63.22747	4.728E-007	-0.0001221	9
	41	109	23.91582	88.60413	-184.9157	1	205.0476	-64.39815	4.694552E-007	-0.0001292	9
	42	112	18.60119	103.141	-225.5549	1	248.0183	-65.42649	2.262699E-007	-0.0001239	9
	43	114	15.02404	118.08	-266.5938	1	291.5735	-66.11044	4.086492E-007	-0.0001129	9
	44	116	12.01923	136.2277	-317.0803	1	345.1056	-66.75012	2.941925E-007	-0.0001312	9
	45	119	9.450605	158.4246	-381.6863	1	413.2587	-67.45837	5.941571E-007	-0.0001753	9
	46	121	7.512019	181.3966	-453.8879	1	488.7934	-68.21584	5.298826E-007	-0.000118	8
	47	124	5.978954	206.8521	-542.7337	1	580.8164	-69.13665	5.051425E-007	-0.000117	8
	48	127	4.734848	236.0951	-654.4606	1	695.7438	-70.16322	4.514832E-007	-0.0001064	8
	49	130	3.75601	267.6341	-791.4423	1	835.4693	-71.31652	5.21074E-007	-0.000102	8
	50	134	3.004808	303.1208	-954.477	1	1001.453	-72.38129	4.301604E-007	-9.285044E-005	8
	51	137	2.372217	348.4976	-1167.105	1	1218.025	-73.37437	4.310597E-007	-0.0001256	8
	52	142	1.878005	405.6577	-1433.291	1	1489.591	-74.19714	5.10566E-007	-0.0001265	8
	53	146	1.512097	468.3985	-1733.37	1	1795.542	-74.87846	4.537318E-007	-4.300033E-005	8
	54	152	1.201923	560.3101	-2126.28	1	2198.866	-75.23721	5.104779E-007	-0.0001048	8
	55	158	0.956633	676.0969	-2603.82	1	2690.164	-75.44426	4.256654E-007	-0.0006617	8
