EXPLAIN
TAG	EISPOT
TITLE	LABEL	Potentiostatic EIS	Test Identifier
DATE	LABEL	11/21/2021	Date
TIME	LABEL	15:22:21	Time
NOTES	NOTES	1	Notes...
	
PSTAT	PSTAT	REF3000-16137	Potentiostat
VDC	POTEN	0.00000E+000	T	DC Voltage (V)
FREQINIT	QUANT	3.00000E+005	Initial Freq. (Hz)
FREQFINAL	QUANT	1.00000E+000	Final Freq. (Hz)
PTSPERDEC	QUANT	1.00000E+001	Points/decade
VAC	QUANT	5.00000E+001	AC Voltage (mV rms)
AREA	QUANT	1.00000E+000	Sample Area (cm^2)
SPEED	SELECTOR	2	Optimize for:
ZGUESS	QUANT	1.00000E+003	Estimated Z (ohms)
EOC	QUANT	0	Open Circuit (V)
SEQUENCER	TOGGLE	TRUE	Run as Sequence
PSTATMODEL	IQUANT	5	Pstat Model
PSTATSECTION	LABEL	REF3000-16137	Pstat Section
PSTATSERIALNO	LABEL	16137	Pstat Serial Number
CTRLMODE	IQUANT	1	Control Mode
IESTAB	IQUANT	0	I/E Stability
CASPEED	IQUANT	1	Control Amp Speed
CONVENTION	IQUANT	1	Current Convention
ICHRANGE	IQUANT	2	Ich Range
ICHRANGEMODE	TOGGLE	F	Ich Auto Range
ICHOFFSETENABLE	TOGGLE	T	Ich Offset Enable
ICHOFFSET	QUANT	0	Ich Offset (V)
ICHFILTER	IQUANT	3	Ich Filter
VCHRANGE	IQUANT	2	Vch Range
VCHRANGEMODE	TOGGLE	F	Vch Auto Range
VCHOFFSETENABLE	TOGGLE	T	Vch Offset Enable
VCHOFFSET	QUANT	0	Vch Offset (V)
VCHFILTER	IQUANT	3	Vch Filter
ACHRANGE	IQUANT	2	Ach Range
ACHOFFSETENABLE	TOGGLE	F	Ach Offset Enable
ACHOFFSET	QUANT	0	Ach Offset (V)
ACHFILTER	IQUANT	3	Ach Filter
IERANGELOWERLIMIT	IQUANT	2	I/E Range Lower Limit
IERANGEMODE	TOGGLE	F	I/E AutoRange
IERANGE	IQUANT	11	I/E Range
POSFEEDENABLE	TOGGLE	F	Positive Feedback IR Comp
POSFEEDRESISTANCE	QUANT	0	Positive Feedback Resistance (ohm)
ACHSELECT	IQUANT	0	Ach Select
CABLEID	IQUANT	13	Cable ID
DCCALDATE	LABEL	9/10/2021	DC Calibration Date
ACCALDATE	LABEL	9/10/2021	AC Calibration Date
THERMOSELECT	IQUANT	1	Thermo Select
FRAMEWORKVERSION	QUANT	6.33	Framework Version
INSTRUMENTVERSION	LABEL	3.50	Instrument Version
COMPLIANCEVOLTAGE	IQUANT	0	Compliance Voltage
ZCURVE	TABLE
	Pt	Time	Freq	Zreal	Zimag	Zsig	Zmod	Zphz	Idc	Vdc	IERange
	#	s	Hz	ohm	ohm	V	ohm	°	A	V	#
	0	7	300046.9	91.83551	-0.3574104	1	91.8362	-0.2229857	1.316197E-005	-0.0011499	9
	1	10	238359.4	92.71385	-0.9066079	1	92.71828	-0.5602523	2.956876E-005	-0.0002291	9
	2	13	189328.1	93.60476	-1.388867	1	93.61506	-0.850068	1.467952E-005	-0.0009726	9
	3	16	150421.9	94.2966	-1.764804	1	94.31311	-1.072192	-6.84838E-005	0.0016987	9
	4	18	119484.4	94.97281	-2.374969	1	95.0025	-1.432487	1.175332E-005	-0.0013775	9
	5	21	94921.88	95.8135	-2.821084	1	95.855	-1.686501	-2.01818E-005	0.000372	9
	6	24	75421.88	96.5879	-3.373467	1	96.6467	-2.000323	-5.009631E-006	0.0004306	9
	7	26	59859.37	97.5023	-3.995895	1	97.5842	-2.346815	-1.505616E-005	6.076462E-006	9
	8	29	47578.12	98.4679	-4.687438	1	98.5794	-2.725434	3.605139E-006	-0.0006534	9
	9	31	37828.12	99.5513	-5.341291	1	99.6945	-3.071183	2.090799E-005	-0.0008699	9
	10	34	30046.88	100.6533	-6.142308	1	100.8406	-3.492109	1.030318E-005	-8.300427E-005	9
	11	36	23859.38	101.9048	-6.91049	1	102.1388	-3.879472	-1.034565E-005	-0.0001739	9
	12	38	18984.38	103.1963	-7.803193	1	103.4909	-4.324195	2.027726E-005	-0.000843	9
	13	41	15046.87	104.6901	-8.804208	1	105.0597	-4.807137	1.679777E-005	-0.0008968	9
	14	43	11953.13	106.3271	-9.94343	1	106.7911	-5.342607	-1.978808E-005	0.0002967	9
	15	45	9515.62	107.9705	-11.0996	1	108.5395	-5.869513	-1.926976E-005	0.0003287	9
	16	48	7546.875	109.94	-12.45927	1	110.6437	-6.465623	-2.029632E-005	0.0002992	9
	17	50	5928.309	112.1571	-13.94267	1	113.0204	-7.086297	-5.121225E-006	0.0004345	9
	18	52	4733.456	114.4072	-15.56542	1	115.4612	-7.747679	-1.244665E-005	0.000601	9
	19	55	3796.875	116.7741	-17.16861	1	118.0294	-8.363942	1.134447E-005	-0.0001207	9
	20	57	2987.132	119.5501	-19.17975	1	121.0789	-9.114446	-1.522798E-005	1.045139E-005	9
	21	59	2390.625	122.4537	-21.30346	1	124.293	-9.86906	3.054283E-006	0.0002582	9
	22	62	1884.191	126.0295	-23.46693	1	128.1957	-10.54778	-1.076444E-005	-0.0001596	9
	23	64	1516.544	129.1542	-26.08218	1	131.7615	-11.41711	2.234545E-005	-0.0007737	9
	24	66	1193.986	133.0717	-29.03386	1	136.2022	-12.30803	2.087838E-005	-0.0008632	9
	25	69	946.5144	137.1543	-32.28283	1	140.9024	-13.24497	2.218265E-005	-0.0006818	9
	26	71	751.7689	141.448	-35.78341	1	145.904	-14.19679	-1.729239E-005	0.0001179	9
	27	73	597.4265	146.0767	-39.88829	1	151.4248	-15.27308	3.837267E-006	-0.000654	9
	28	76	477.4305	151.0688	-44.60185	1	157.5154	-16.44881	4.97212E-007	-0.0001235	9
	29	78	376.6741	156.5412	-50.29907	1	164.4237	-17.813	5.124022E-007	-0.0001284	9
	30	80	298.2954	162.3362	-56.93311	1	172.0303	-19.32634	4.867971E-007	-0.0001211	9
	31	83	237.7717	168.4799	-64.569	1	180.429	-20.96906	4.98625E-007	-0.0001258	9
	32	85	189.0121	175.2785	-73.72123	1	190.1509	-22.81137	5.442132E-007	-0.0001261	9
	33	88	150.2404	182.7141	-84.59742	1	201.3483	-24.84435	4.948672E-007	-0.0001278	9
	34	90	119.1737	190.9704	-97.6749	1	214.4996	-27.08822	4.580874E-007	-0.0001245	9
	35	92	95.0169	199.9525	-112.918	1	229.6334	-29.45447	5.260803E-007	-0.0001259	9
	36	95	75.60484	210.0281	-131.2706	1	247.6767	-32.00598	5.164811E-007	-0.0001265	9
	37	97	54.50582	226.2182	-163.8832	1	279.3428	-35.92135	4.624803E-007	-0.0001266	9
	38	100	45.95588	236.1654	-184.6769	1	299.7994	-38.02473	3.854737E-007	-0.000123	9
	39	102	37.20238	249.4738	-214.5895	1	329.0682	-40.70108	4.53017E-007	-0.0001255	9
	40	105	30.04808	264.5601	-250.5692	1	364.3857	-43.44423	4.498229E-007	-0.0001289	9
	41	107	23.91582	281.6674	-295.3773	1	408.1474	-46.36103	8.210641E-008	-0.0001182	8
	42	110	18.60119	304.487	-357.0313	1	469.2373	-49.54145	-6.394332E-008	-0.0001137	8
	43	112	15.02404	327.406	-420.5387	1	532.9611	-52.09783	8.286952E-008	-0.0001299	8
	44	114	12.01923	355.0752	-500.3023	1	613.4988	-54.63586	3.446979E-007	-0.0001314	8
	45	117	9.450605	389.8785	-604.5762	1	719.387	-57.18288	1.833819E-007	-0.0001353	8
	46	119	7.512019	429.8528	-725.6451	1	843.4064	-59.35863	3.223463E-008	-0.0001233	8
	47	122	5.978954	478.0039	-871.8798	1	994.315	-61.26646	1.449997E-007	-0.0001204	8
	48	125	4.734848	537.2248	-1052.79	1	1181.938	-62.96539	7.890672E-008	-0.0001463	8
	49	128	3.75601	610.5942	-1268.866	1	1408.136	-64.30256	2.311901E-007	-0.0001004	8
	50	132	3.004808	696.3057	-1518.843	1	1670.846	-65.37115	1.766096E-007	-0.0001279	8
	51	135	2.372217	810.5504	-1834.646	1	2005.721	-66.16406	1.632782E-007	-0.000186	8
	52	142	1.878005	946.6049	-2213.375	1	2407.299	-66.84482	1.728775E-007	-0.0001407	8
	53	146	1.512097	1097.394	-2625.079	1	2845.226	-67.31301	1.703921E-007	-1.574544E-005	8
	54	152	1.201923	1280.214	-3143.313	1	3394.019	-67.83983	1.653223E-007	-0.0001341	8
	55	158	0.956633	1484.77	-3756.421	1	4039.213	-68.43301	1.277286E-007	-0.0006613	8
