EXPLAIN
TAG	EISPOT
TITLE	LABEL	Potentiostatic EIS	Test Identifier
DATE	LABEL	11/21/2021	Date
TIME	LABEL	15:11:14	Time
NOTES	NOTES	1	Notes...
	
PSTAT	PSTAT	REF3000-16137	Potentiostat
VDC	POTEN	0.00000E+000	T	DC Voltage (V)
FREQINIT	QUANT	3.00000E+005	Initial Freq. (Hz)
FREQFINAL	QUANT	1.00000E+000	Final Freq. (Hz)
PTSPERDEC	QUANT	1.00000E+001	Points/decade
VAC	QUANT	5.00000E+001	AC Voltage (mV rms)
AREA	QUANT	1.00000E+000	Sample Area (cm^2)
SPEED	SELECTOR	2	Optimize for:
ZGUESS	QUANT	1.00000E+003	Estimated Z (ohms)
EOC	QUANT	0	Open Circuit (V)
SEQUENCER	TOGGLE	TRUE	Run as Sequence
PSTATMODEL	IQUANT	5	Pstat Model
PSTATSECTION	LABEL	REF3000-16137	Pstat Section
PSTATSERIALNO	LABEL	16137	Pstat Serial Number
CTRLMODE	IQUANT	1	Control Mode
IESTAB	IQUANT	0	I/E Stability
CASPEED	IQUANT	1	Control Amp Speed
CONVENTION	IQUANT	1	Current Convention
ICHRANGE	IQUANT	2	Ich Range
ICHRANGEMODE	TOGGLE	F	Ich Auto Range
ICHOFFSETENABLE	TOGGLE	T	Ich Offset Enable
ICHOFFSET	QUANT	0	Ich Offset (V)
ICHFILTER	IQUANT	3	Ich Filter
VCHRANGE	IQUANT	2	Vch Range
VCHRANGEMODE	TOGGLE	F	Vch Auto Range
VCHOFFSETENABLE	TOGGLE	T	Vch Offset Enable
VCHOFFSET	QUANT	0	Vch Offset (V)
VCHFILTER	IQUANT	3	Vch Filter
ACHRANGE	IQUANT	2	Ach Range
ACHOFFSETENABLE	TOGGLE	F	Ach Offset Enable
ACHOFFSET	QUANT	0	Ach Offset (V)
ACHFILTER	IQUANT	3	Ach Filter
IERANGELOWERLIMIT	IQUANT	2	I/E Range Lower Limit
IERANGEMODE	TOGGLE	F	I/E AutoRange
IERANGE	IQUANT	11	I/E Range
POSFEEDENABLE	TOGGLE	F	Positive Feedback IR Comp
POSFEEDRESISTANCE	QUANT	0	Positive Feedback Resistance (ohm)
ACHSELECT	IQUANT	0	Ach Select
CABLEID	IQUANT	13	Cable ID
DCCALDATE	LABEL	9/10/2021	DC Calibration Date
ACCALDATE	LABEL	9/10/2021	AC Calibration Date
THERMOSELECT	IQUANT	1	Thermo Select
FRAMEWORKVERSION	QUANT	6.33	Framework Version
INSTRUMENTVERSION	LABEL	3.50	Instrument Version
COMPLIANCEVOLTAGE	IQUANT	0	Compliance Voltage
ZCURVE	TABLE
	Pt	Time	Freq	Zreal	Zimag	Zsig	Zmod	Zphz	Idc	Vdc	IERange
	#	s	Hz	ohm	ohm	V	ohm	°	A	V	#
	0	7	300046.9	33.24835	-0.0413803	1	33.24838	-0.0713092	-2.496311E-005	-0.0002584	11
	1	11	238359.4	33.59391	-0.1429038	1	33.59421	-0.2437268	8.817322E-006	-0.0002067	10
	2	14	189328.1	33.89149	-0.6356046	1	33.89745	-1.074405	-1.276378E-005	-0.0002042	10
	3	17	150421.9	34.23471	-1.106501	1	34.25259	-1.851213	2.319876E-005	-0.0002656	10
	4	19	119484.4	34.58994	-1.58092	1	34.62605	-2.616861	-5.306094E-005	-1.19744E-005	10
	5	22	94921.88	34.93433	-2.078365	1	34.9961	-3.404712	-1.667018E-005	-0.0001475	10
	6	24	75421.88	35.35889	-2.521868	1	35.4487	-4.079545	7.40938E-006	-0.0001843	10
	7	27	59859.37	35.86493	-2.767123	1	35.97152	-4.41186	-1.436013E-005	0.0002555	9
	8	29	47578.12	36.34113	-3.257416	1	36.48682	-5.121985	-1.277873E-006	0.0001576	9
	9	32	37828.12	36.95894	-3.781352	1	37.15188	-5.841733	1.325001E-005	-0.000407	9
	10	35	30046.88	37.60064	-4.309115	1	37.84676	-6.537699	-1.189029E-005	-2.105582E-005	9
	11	37	23859.38	38.28539	-4.845248	1	38.59077	-7.212783	-3.956045E-006	-0.0002687	9
	12	39	18984.38	39.04146	-5.387653	1	39.41145	-7.857092	1.585539E-005	-0.0004168	9
	13	42	15046.87	39.92188	-5.944716	1	40.36206	-8.469606	-8.13094E-006	-8.542989E-005	9
	14	44	11953.13	40.79544	-6.509263	1	41.31148	-9.065615	7.45061E-006	-0.0005458	9
	15	46	9515.62	41.81249	-7.141957	1	42.41806	-9.6931	1.632871E-005	-0.0005048	9
	16	49	7546.875	42.88914	-7.770534	1	43.58738	-10.26929	-3.074937E-006	0.0001653	9
	17	51	5928.309	44.1398	-8.507116	1	44.95212	-10.90892	8.910811E-006	-0.0001725	9
	18	53	4733.456	45.31215	-9.213754	1	46.23943	-11.4938	9.101653E-006	-0.0001776	9
	19	56	3796.875	46.51179	-9.97426	1	47.56924	-12.10352	-4.461068E-006	-0.0002533	9
	20	58	2987.132	47.98099	-10.8919	1	49.20171	-12.78965	1.643606E-005	-0.0005349	9
	21	60	2390.625	49.32693	-11.89143	1	50.74005	-13.55389	8.821685E-006	-0.0002495	9
	22	63	1884.191	50.80235	-13.07534	1	52.45802	-14.43334	-1.138331E-005	0.0003471	9
	23	65	1516.544	52.16357	-14.30301	1	54.08895	-15.33339	-8.688672E-006	-7.546142E-005	9
	24	67	1193.986	53.83332	-15.96996	1	56.15216	-16.52329	-8.511462E-006	-8.340042E-005	9
	25	70	946.5144	55.57157	-17.87715	1	58.37629	-17.83278	1.763453E-006	-0.000404	9
	26	72	751.7689	57.46804	-20.19741	1	60.91396	-19.36426	-1.270135E-005	9.262565E-005	9
	27	74	597.4265	59.46324	-22.92009	1	63.7276	-21.07914	3.021786E-006	2.523247E-005	9
	28	77	477.4305	61.65376	-26.10979	1	66.95451	-22.9522	5.935807E-007	-0.0001246	9
	29	79	376.6741	64.11398	-30.13179	1	70.84156	-25.17222	5.542622E-007	-0.0001255	9
	30	81	298.2954	66.819	-34.9078	1	75.38789	-27.58361	6.297743E-007	-0.000128	9
	31	84	237.7717	69.80777	-40.4834	1	80.69715	-30.1106	5.944522E-007	-0.0001308	9
	32	86	189.0121	73.11839	-47.24429	1	87.05355	-32.86789	5.655177E-007	-0.0001245	9
	33	88	150.2404	76.92374	-55.37252	1	94.78069	-35.74771	6.40248E-007	-0.0001298	9
	34	91	119.1737	81.17107	-65.24809	1	104.1444	-38.79351	5.995868E-007	-0.0001242	9
	35	93	95.0169	85.92453	-76.88272	1	115.2995	-41.82124	6.501772E-007	-0.0001275	9
	36	96	75.60484	91.41554	-91.03163	1	129.0099	-44.87944	5.392119E-007	-0.0001301	9
	37	98	54.50582	100.8144	-116.511	1	154.0726	-49.13108	5.700908E-007	-0.0001336	9
	38	101	45.95588	106.5968	-132.8671	1	170.3424	-51.26057	5.036698E-007	-0.0001233	9
	39	103	37.20238	114.8043	-156.5404	1	194.126	-53.74427	5.891318E-007	-0.0001169	9
	40	106	30.04808	124.6363	-185.1029	1	223.1531	-56.04624	6.231799E-007	-0.0001303	9
	41	108	23.91582	136.9966	-221.6426	1	260.5638	-58.27991	7.075598E-007	-0.0001349	9
	42	110	18.60119	153.4604	-270.7533	1	311.2193	-60.45584	8.794955E-007	-0.0001283	9
	43	113	15.02404	170.726	-321.0551	1	363.6259	-61.99751	3.636391E-007	-0.0001387	9
	44	115	12.01923	191.6004	-381.9275	1	427.293	-63.35859	6.047915E-007	-0.0001134	8
	45	119	9.450605	220.0095	-462.6796	1	512.3246	-64.56837	5.108843E-007	-0.0001286	8
	46	122	7.512019	253.0583	-554.4199	1	609.4423	-65.46624	5.170404E-007	-0.0001177	8
	47	125	5.978954	291.8813	-662.4498	1	723.9022	-66.22128	4.593387E-007	-0.0001176	8
	48	128	4.734848	337.9373	-793.967	1	862.8935	-66.94387	3.401938E-007	-0.0001454	8
	49	131	3.75601	390.7237	-949.0129	1	1026.299	-67.62226	4.368026E-007	-0.0000974	8
	50	135	3.004808	446.6495	-1128.644	1	1213.81	-68.40932	4.311098E-007	-0.0001484	8
	51	138	2.372217	510.5553	-1360.443	1	1453.09	-69.42958	4.155678E-007	-0.0001669	8
	52	142	1.878005	582.2715	-1641.834	1	1742.028	-70.47311	4.063187E-007	-0.0001039	8
	53	147	1.512097	656.2338	-1964.253	1	2070.974	-71.52614	4.159387E-007	-0.0002197	8
	54	153	1.201923	745.6944	-2387.563	1	2501.303	-72.65514	4.059545E-007	-0.0001074	8
	55	159	0.956633	850.2851	-2907.977	1	3029.739	-73.70122	4.011006E-007	-0.0006663	8
