EXPLAIN
TAG	EISPOT
TITLE	LABEL	Potentiostatic EIS	Test Identifier
DATE	LABEL	11/21/2021	Date
TIME	LABEL	14:26:12	Time
NOTES	NOTES	1	Notes...
	
PSTAT	PSTAT	REF3000-16137	Potentiostat
VDC	POTEN	0.00000E+000	T	DC Voltage (V)
FREQINIT	QUANT	3.00000E+005	Initial Freq. (Hz)
FREQFINAL	QUANT	1.00000E+000	Final Freq. (Hz)
PTSPERDEC	QUANT	1.00000E+001	Points/decade
VAC	QUANT	5.00000E+001	AC Voltage (mV rms)
AREA	QUANT	1.00000E+000	Sample Area (cm^2)
SPEED	SELECTOR	2	Optimize for:
ZGUESS	QUANT	1.00000E+003	Estimated Z (ohms)
EOC	QUANT	0	Open Circuit (V)
SEQUENCER	TOGGLE	TRUE	Run as Sequence
PSTATMODEL	IQUANT	5	Pstat Model
PSTATSECTION	LABEL	REF3000-16137	Pstat Section
PSTATSERIALNO	LABEL	16137	Pstat Serial Number
CTRLMODE	IQUANT	1	Control Mode
IESTAB	IQUANT	0	I/E Stability
CASPEED	IQUANT	1	Control Amp Speed
CONVENTION	IQUANT	1	Current Convention
ICHRANGE	IQUANT	2	Ich Range
ICHRANGEMODE	TOGGLE	F	Ich Auto Range
ICHOFFSETENABLE	TOGGLE	T	Ich Offset Enable
ICHOFFSET	QUANT	0	Ich Offset (V)
ICHFILTER	IQUANT	3	Ich Filter
VCHRANGE	IQUANT	2	Vch Range
VCHRANGEMODE	TOGGLE	F	Vch Auto Range
VCHOFFSETENABLE	TOGGLE	T	Vch Offset Enable
VCHOFFSET	QUANT	0	Vch Offset (V)
VCHFILTER	IQUANT	3	Vch Filter
ACHRANGE	IQUANT	2	Ach Range
ACHOFFSETENABLE	TOGGLE	F	Ach Offset Enable
ACHOFFSET	QUANT	0	Ach Offset (V)
ACHFILTER	IQUANT	3	Ach Filter
IERANGELOWERLIMIT	IQUANT	2	I/E Range Lower Limit
IERANGEMODE	TOGGLE	F	I/E AutoRange
IERANGE	IQUANT	11	I/E Range
POSFEEDENABLE	TOGGLE	F	Positive Feedback IR Comp
POSFEEDRESISTANCE	QUANT	0	Positive Feedback Resistance (ohm)
ACHSELECT	IQUANT	0	Ach Select
CABLEID	IQUANT	13	Cable ID
DCCALDATE	LABEL	9/10/2021	DC Calibration Date
ACCALDATE	LABEL	9/10/2021	AC Calibration Date
THERMOSELECT	IQUANT	1	Thermo Select
FRAMEWORKVERSION	QUANT	6.33	Framework Version
INSTRUMENTVERSION	LABEL	3.50	Instrument Version
COMPLIANCEVOLTAGE	IQUANT	0	Compliance Voltage
ZCURVE	TABLE
	Pt	Time	Freq	Zreal	Zimag	Zsig	Zmod	Zphz	Idc	Vdc	IERange
	#	s	Hz	ohm	ohm	V	ohm	°	A	V	#
	0	10	300046.9	1.898824	2.216872	1	2.918914	49.41886	1.396754E-005	-0.000554	11
	1	13	238359.4	2.000044	1.559579	1	2.53623	37.94612	-4.200478E-005	-0.0012027	12
	2	17	189328.1	1.936283	1.202312	1	2.279199	31.83773	-6.606876E-005	-0.0007937	12
	3	21	150421.9	1.871473	1.005308	1	2.124396	28.24356	2.651424E-005	-2.646743E-005	11
	4	23	119484.4	1.88317	0.7476868	1	2.02617	21.65488	-4.372582E-005	6.309252E-005	11
	5	26	94921.88	1.902055	0.5284162	1	1.974091	15.526	-2.035392E-005	0.0001426	11
	6	28	75421.88	1.925134	0.3516203	1	1.956982	10.35082	-0.0000971	0.0001508	11
	7	31	59859.37	1.952511	0.2018019	1	1.962912	5.900856	-4.582849E-005	0.0002527	11
	8	33	47578.12	1.980489	0.0740162	1	1.981871	2.140301	-5.331216E-005	0.0002638	11
	9	36	37828.12	2.012009	-0.0381108	1	2.01237	-1.085147	-6.043657E-005	0.0003257	11
	10	39	30046.88	2.044956	-0.1421787	1	2.049893	-3.977177	-7.24823E-005	0.000343	11
	11	42	23859.38	2.077699	-0.2424073	1	2.091792	-6.654674	-1.861572E-005	0.0003498	11
	12	44	18984.38	2.113727	-0.3427542	1	2.141336	-9.210702	-1.822502E-005	0.0003971	11
	13	47	15046.87	2.151174	-0.4498542	1	2.197708	-11.81149	-2.016243E-005	0.0003784	11
	14	49	11953.13	2.192097	-0.5669609	1	2.264229	-14.50113	-6.643993E-005	0.0003805	11
	15	51	9515.62	2.23383	-0.69855	1	2.340507	-17.36519	-1.866252E-005	0.0003692	11
	16	54	7546.875	2.280434	-0.8556256	1	2.435667	-20.56624	-3.726248E-005	0.0003854	11
	17	56	5928.309	2.332473	-1.050328	1	2.55805	-24.24236	-3.668966E-005	0.000387	11
	18	58	4733.456	2.384723	-1.270981	1	2.702276	-28.05619	-4.546626E-005	0.0003791	11
	19	60	3796.875	2.441011	-1.533981	1	2.88299	-32.1461	-5.18753E-005	0.0003857	11
	20	63	2987.132	2.509966	-1.885224	1	3.139108	-36.91004	-7.794582E-005	0.000362	11
	21	65	2390.625	2.584802	-2.286557	1	3.451021	-41.49649	-1.781888E-005	0.000383	11
	22	67	1884.191	2.682228	-2.822935	1	3.894009	-46.46411	-8.457585E-005	0.0003732	11
	23	70	1516.544	2.794697	-3.426598	1	4.421753	-50.79968	-1.664659E-005	-0.0001481	10
	24	72	1193.986	2.947812	-4.242287	1	5.165906	-55.20596	-1.753075E-005	-0.0001199	10
	25	74	946.5144	3.145561	-5.218934	1	6.093589	-58.92174	1.963663E-005	-0.0001304	10
	26	77	751.7689	3.395571	-6.419861	1	7.262542	-62.1249	-2.69153E-005	-0.000107	10
	27	79	597.4265	3.730285	-7.872903	1	8.711925	-64.6478	-1.845169E-005	-0.0001514	10
	28	81	477.4305	4.16033	-9.59944	1	10.4622	-66.56843	-2.183942E-006	-0.0001042	10
	29	84	376.6741	4.752848	-11.7978	1	12.71918	-68.05752	-1.992082E-006	-0.0001086	10
	30	86	298.2954	5.517641	-14.41026	1	15.43049	-69.04832	-2.448641E-006	-0.0001038	10
	31	88	237.7717	6.466927	-17.44194	1	18.60222	-69.65679	-2.173571E-006	-0.0001152	10
	32	91	189.0121	7.675908	-21.08077	1	22.43476	-69.99248	-2.794343E-006	-0.0001103	10
	33	93	150.2404	9.166931	-25.37117	1	26.97645	-70.13456	-2.912172E-006	-0.0001086	10
	34	96	119.1737	10.97325	-30.47781	1	32.39305	-70.19906	-3.122767E-006	-0.0001115	10
	35	98	95.0169	13.01539	-36.34856	1	38.60853	-70.29899	-2.90936E-006	-0.0001133	10
	36	100	75.60484	15.30212	-43.32111	1	45.94424	-70.54549	-2.446295E-006	-0.0001293	9
	37	103	54.50582	18.95694	-55.92105	1	59.04684	-71.27361	-2.372323E-006	-0.0001371	9
	38	105	45.95588	21.04152	-64.08174	1	67.44787	-71.82218	-1.661835E-006	-0.0001622	9
	39	108	37.20238	23.86767	-76.14188	1	79.79507	-72.59572	-2.299092E-006	-0.0001155	9
	40	110	30.04808	27.05579	-90.99883	1	94.93578	-73.44173	-2.44466E-006	-0.0001225	9
	41	113	23.91582	31.15394	-110.6585	1	114.9603	-74.27637	-2.357971E-006	-0.0001263	9
	42	115	18.60119	36.77752	-137.6673	1	142.4951	-75.04285	-1.913397E-006	-0.0001268	9
	43	117	15.02404	43.02668	-166.1984	1	171.6776	-75.4855	-2.175877E-006	-0.0001283	9
	44	119	12.01923	51.4819	-202.5841	1	209.0232	-75.74148	-2.070548E-006	-0.0001694	9
	45	122	9.450605	63.67936	-250.6797	1	258.6414	-75.74682	-2.357211E-006	-0.0001115	9
	46	124	7.512019	79.82443	-307.0691	1	317.2749	-75.42815	-2.343087E-006	-0.000136	9
	47	127	5.978954	101.4877	-374.7832	1	388.2811	-74.84822	-2.217658E-006	-0.0001189	9
	48	130	4.734848	131.0732	-456.8133	1	475.2458	-73.99026	-2.067229E-006	-0.0001365	8
	49	133	3.75601	172.2953	-555.197	1	581.3169	-72.75922	-1.814538E-006	-0.0001016	8
	50	137	3.004808	226.1432	-666.5618	1	703.8788	-71.25957	-2.016339E-006	-7.241961E-005	8
	51	140	2.372217	302.9385	-803.2909	1	858.515	-69.33745	-1.94822E-006	-5.153442E-005	8
	52	145	1.878005	406.1638	-955.945	1	1038.653	-66.98024	-1.986152E-006	-0.0001349	8
	53	149	1.512097	529.6194	-1110.519	1	1230.345	-64.50298	-1.949383E-006	-3.75555E-005	8
	54	155	1.201923	696.6179	-1288.898	1	1465.105	-61.60986	-1.948855E-006	-0.0001385	8
	55	161	0.956633	903.454	-1469.881	1	1725.335	-58.42328	-2.129814E-006	-0.0006575	8
