EXPLAIN
TAG	EISPOT
TITLE	LABEL	Potentiostatic EIS	Test Identifier
DATE	LABEL	11/21/2021	Date
TIME	LABEL	16:06:05	Time
NOTES	NOTES	1	Notes...
	
PSTAT	PSTAT	REF3000-16137	Potentiostat
VDC	POTEN	0.00000E+000	T	DC Voltage (V)
FREQINIT	QUANT	3.00000E+005	Initial Freq. (Hz)
FREQFINAL	QUANT	1.00000E+000	Final Freq. (Hz)
PTSPERDEC	QUANT	1.00000E+001	Points/decade
VAC	QUANT	5.00000E+001	AC Voltage (mV rms)
AREA	QUANT	1.00000E+000	Sample Area (cm^2)
SPEED	SELECTOR	2	Optimize for:
ZGUESS	QUANT	1.00000E+003	Estimated Z (ohms)
EOC	QUANT	0	Open Circuit (V)
SEQUENCER	TOGGLE	TRUE	Run as Sequence
PSTATMODEL	IQUANT	5	Pstat Model
PSTATSECTION	LABEL	REF3000-16137	Pstat Section
PSTATSERIALNO	LABEL	16137	Pstat Serial Number
CTRLMODE	IQUANT	1	Control Mode
IESTAB	IQUANT	0	I/E Stability
CASPEED	IQUANT	1	Control Amp Speed
CONVENTION	IQUANT	1	Current Convention
ICHRANGE	IQUANT	2	Ich Range
ICHRANGEMODE	TOGGLE	F	Ich Auto Range
ICHOFFSETENABLE	TOGGLE	T	Ich Offset Enable
ICHOFFSET	QUANT	0	Ich Offset (V)
ICHFILTER	IQUANT	3	Ich Filter
VCHRANGE	IQUANT	2	Vch Range
VCHRANGEMODE	TOGGLE	F	Vch Auto Range
VCHOFFSETENABLE	TOGGLE	T	Vch Offset Enable
VCHOFFSET	QUANT	0	Vch Offset (V)
VCHFILTER	IQUANT	3	Vch Filter
ACHRANGE	IQUANT	2	Ach Range
ACHOFFSETENABLE	TOGGLE	F	Ach Offset Enable
ACHOFFSET	QUANT	0	Ach Offset (V)
ACHFILTER	IQUANT	3	Ach Filter
IERANGELOWERLIMIT	IQUANT	2	I/E Range Lower Limit
IERANGEMODE	TOGGLE	F	I/E AutoRange
IERANGE	IQUANT	11	I/E Range
POSFEEDENABLE	TOGGLE	F	Positive Feedback IR Comp
POSFEEDRESISTANCE	QUANT	0	Positive Feedback Resistance (ohm)
ACHSELECT	IQUANT	0	Ach Select
CABLEID	IQUANT	13	Cable ID
DCCALDATE	LABEL	9/10/2021	DC Calibration Date
ACCALDATE	LABEL	9/10/2021	AC Calibration Date
THERMOSELECT	IQUANT	1	Thermo Select
FRAMEWORKVERSION	QUANT	6.33	Framework Version
INSTRUMENTVERSION	LABEL	3.50	Instrument Version
COMPLIANCEVOLTAGE	IQUANT	0	Compliance Voltage
ZCURVE	TABLE
	Pt	Time	Freq	Zreal	Zimag	Zsig	Zmod	Zphz	Idc	Vdc	IERange
	#	s	Hz	ohm	ohm	V	ohm	°	A	V	#
	0	14	300046.9	19.96477	-4339.454	1	4339.5	-89.7364	8.678924E-005	-0.0031784	9
	1	30	238359.4	149.8064	-5360.625	1	5362.718	-88.39925	7.553677E-005	-0.0019403	9
	2	44	189328.1	163.7869	-6733.507	1	6735.499	-88.60661	2.087411E-005	-0.0012232	9
	3	54	150421.9	-59.76112	-7053.089	1	7053.343	-90.48546	-6.963683E-006	-0.0017999	9
	4	65	119484.4	896.0154	-10222.51	1	10261.7	-84.99076	3.832973E-005	-0.0187015	8
	5	72	94921.88	972.29	-12886.35	1	12922.98	-85.68514	-2.375106E-005	0.0102043	8
	6	81	75421.88	1255.036	-16530.21	1	16577.78	-85.65822	6.562965E-006	-0.0081146	8
	7	89	59859.37	1512.035	-20492.33	1	20548.04	-85.78005	6.491551E-006	-0.008051	8
	8	98	47578.12	4533.413	-26465.15	1	26850.63	-80.27972	-7.063742E-006	0.0233905	7
	9	104	37828.12	5747.631	-32325.95	1	32832.95	-79.91804	-5.593155E-006	0.0042885	7
	10	112	30046.88	6183.484	-40434.44	1	40904.51	-81.30534	-1.635737E-006	-0.012432	7
	11	119	23859.38	8083.208	-50699.71	1	51340.03	-80.9414	-1.166187E-006	0.0198466	7
	12	124	18984.38	9415.445	-62197.93	1	62906.55	-81.39199	-6.804129E-006	0.0125392	7
	13	130	15046.87	10974.06	-77728.16	1	78499.03	-81.96381	-1.366286E-006	0.0199908	7
	14	135	11953.13	14289.55	-95889.9	1	96948.8	-81.52413	-3.679665E-006	-0.0043629	7
	15	142	9515.62	18348.97	-118962	1	120368.8	-81.23167	-5.538304E-006	0.0043215	7
	16	148	7546.875	21315.88	-153381.2	1	154855.3	-82.0881	7.44212E-006	-0.0256253	7
	17	154	5928.309	23934.13	-196390.8	1	197843.8	-83.05164	7.405242E-006	-0.0253224	7
	18	161	4733.456	42376.67	-223357.9	1	227342.3	-79.25722	7.42041E-006	-0.0253658	7
	19	167	3796.875	-39577.16	-294984.2	1	297627.3	-97.6416	-6.893167E-007	0.0063858	8
	20	176	2987.132	124386.9	-358644.9	1	379602.8	-70.8722	5.467581E-007	-0.0277232	6
	21	181	2390.625	168536.2	-428440.3	1	460397.2	-68.52673	7.207863E-007	-0.0173953	6
	22	187	1884.191	215955.5	-502875.1	1	547284.3	-66.7593	7.505864E-007	-0.0241123	6
	23	192	1516.544	291445	-609505.4	1	675601.3	-64.44444	4.147747E-008	0.0150014	6
	24	198	1193.986	405001.5	-712642.3	1	819686.1	-60.39001	3.518815E-007	-0.0250783	6
	25	203	946.5144	508219.1	-856096.7	1	995584	-59.30465	5.517029E-007	-0.0279494	6
	26	208	751.7689	689356.5	-921938.8	1	1151166	-53.21362	-6.640416E-007	0.0103243	6
	27	212	597.4265	925179.2	-1040641	1	1392441	-48.3614	-7.347625E-007	0.0228794	6
	28	217	477.4305	1120424	-991779	1	1496321	-41.51468	-9.747006E-009	-0.000187	6
	29	221	376.6741	1477303	-876229.7	1	1717615	-30.67337	-1.081518E-009	-4.518954E-005	5
	30	224	298.2954	1644527	-826264.1	1	1840430	-26.67645	-1.114745E-009	-5.904376E-005	5
	31	227	237.7717	1783492	-773717.4	1	1944089	-23.45224	-1.104672E-009	-1.847584E-005	5
	32	229	189.0121	1913594	-718371	1	2043991	-20.57634	-1.066895E-009	-8.164215E-005	5
	33	232	150.2404	2020631	-670330.8	1	2128918	-18.35292	-1.112347E-009	-2.901932E-005	5
	34	235	119.1737	2076250	-618365.3	1	2166377	-16.58501	-1.097938E-009	-2.401588E-005	5
	35	238	95.0169	2219661	-583088.9	1	2294970	-14.71864	-1.085678E-009	-2.801771E-005	5
	36	240	75.60484	2307166	-552622.3	1	2372427	-13.46996	-1.041589E-009	-0.000107	5
	37	243	54.50582	2440389	-534502.2	1	2498237	-12.35404	-1.105693E-009	-2.650817E-005	5
	38	248	45.95588	2521515	-574492.9	1	2586132	-12.83497	-9.834906E-009	-0.0001135	6
	39	252	37.20238	2635136	-542411.4	1	2690381	-11.6312	-1.032377E-009	-9.064285E-005	5
	40	256	30.04808	2745205	-548237.8	1	2799414	-11.29381	-1.019406E-009	-8.83121E-005	5
	41	258	23.91582	2860691	-544989.1	1	2912141	-10.78615	-1.05951E-009	-8.015698E-005	5
	42	261	18.60119	3005604	-531599.3	1	3052253	-10.03014	-1.093211E-009	-0.0001088	5
	43	265	15.02404	3135625	-524079.3	1	3179120	-9.488547	-1.167067E-009	-5.874859E-005	5
	44	268	12.01923	3252839	-500563.7	1	3291129	-8.748345	-1.139153E-009	-5.40545E-005	5
	45	271	9.450605	3376543	-464803.9	1	3408385	-7.83789	-1.038541E-009	-0.0001149	5
	46	273	7.512019	3491644	-431039.1	1	3518149	-7.037487	-1.020756E-009	-0.0001135	5
	47	276	5.978954	3611614	-396183	1	3633278	-6.260143	-9.974815E-010	-0.0001146	5
	48	281	4.734848	3738900	-363227.6	1	3756502	-5.548773	-1.066531E-009	-5.219527E-005	5
	49	285	3.75601	3886868	-291045.3	1	3897749	-4.282266	-9.955098E-011	0.0004469	4
	50	291	3.004808	4031772	-276126.3	1	4041216	-3.917931	-8.429228E-011	0.0003697	4
	51	297	2.372217	4165727	-258170.1	1	4173720	-3.546359	-1.127725E-010	0.0003699	4
	52	302	1.878005	4284225	-246549.4	1	4291314	-3.293635	-4.997779E-011	0.0004423	4
	53	306	1.512097	4413884	-239532.1	1	4420378	-3.106274	-4.237599E-011	0.0004292	4
	54	312	1.201923	4561689	-234820.8	1	4567729	-2.946798	-6.806876E-011	0.0004262	4
	55	318	0.956633	4728498	-236381.6	1	4734403	-2.861882	-2.769302E-010	-0.0001108	4
