EXPLAIN
TAG	EISPOT
TITLE	LABEL	Potentiostatic EIS	Test Identifier
DATE	LABEL	11/21/2021	Date
TIME	LABEL	14:43:14	Time
NOTES	NOTES	1	Notes...
	
PSTAT	PSTAT	REF3000-16137	Potentiostat
VDC	POTEN	0.00000E+000	T	DC Voltage (V)
FREQINIT	QUANT	3.00000E+005	Initial Freq. (Hz)
FREQFINAL	QUANT	1.00000E+000	Final Freq. (Hz)
PTSPERDEC	QUANT	1.00000E+001	Points/decade
VAC	QUANT	5.00000E+001	AC Voltage (mV rms)
AREA	QUANT	1.00000E+000	Sample Area (cm^2)
SPEED	SELECTOR	2	Optimize for:
ZGUESS	QUANT	1.00000E+003	Estimated Z (ohms)
EOC	QUANT	0	Open Circuit (V)
SEQUENCER	TOGGLE	TRUE	Run as Sequence
PSTATMODEL	IQUANT	5	Pstat Model
PSTATSECTION	LABEL	REF3000-16137	Pstat Section
PSTATSERIALNO	LABEL	16137	Pstat Serial Number
CTRLMODE	IQUANT	1	Control Mode
IESTAB	IQUANT	0	I/E Stability
CASPEED	IQUANT	1	Control Amp Speed
CONVENTION	IQUANT	1	Current Convention
ICHRANGE	IQUANT	2	Ich Range
ICHRANGEMODE	TOGGLE	F	Ich Auto Range
ICHOFFSETENABLE	TOGGLE	T	Ich Offset Enable
ICHOFFSET	QUANT	0	Ich Offset (V)
ICHFILTER	IQUANT	3	Ich Filter
VCHRANGE	IQUANT	2	Vch Range
VCHRANGEMODE	TOGGLE	F	Vch Auto Range
VCHOFFSETENABLE	TOGGLE	T	Vch Offset Enable
VCHOFFSET	QUANT	0	Vch Offset (V)
VCHFILTER	IQUANT	3	Vch Filter
ACHRANGE	IQUANT	2	Ach Range
ACHOFFSETENABLE	TOGGLE	F	Ach Offset Enable
ACHOFFSET	QUANT	0	Ach Offset (V)
ACHFILTER	IQUANT	3	Ach Filter
IERANGELOWERLIMIT	IQUANT	2	I/E Range Lower Limit
IERANGEMODE	TOGGLE	F	I/E AutoRange
IERANGE	IQUANT	11	I/E Range
POSFEEDENABLE	TOGGLE	F	Positive Feedback IR Comp
POSFEEDRESISTANCE	QUANT	0	Positive Feedback Resistance (ohm)
ACHSELECT	IQUANT	0	Ach Select
CABLEID	IQUANT	13	Cable ID
DCCALDATE	LABEL	9/10/2021	DC Calibration Date
ACCALDATE	LABEL	9/10/2021	AC Calibration Date
THERMOSELECT	IQUANT	1	Thermo Select
FRAMEWORKVERSION	QUANT	6.33	Framework Version
INSTRUMENTVERSION	LABEL	3.50	Instrument Version
COMPLIANCEVOLTAGE	IQUANT	0	Compliance Voltage
ZCURVE	TABLE
	Pt	Time	Freq	Zreal	Zimag	Zsig	Zmod	Zphz	Idc	Vdc	IERange
	#	s	Hz	ohm	ohm	V	ohm	°	A	V	#
	0	10	300046.9	2.975642	1.857891	1	3.50802	31.97927	7.248922E-006	-0.0009895	10
	1	13	238359.4	3.012177	1.296228	1	3.27924	23.28363	6.571529E-005	-9.258763E-005	10
	2	16	189328.1	3.094316	0.5746805	1	3.147229	10.52117	-0.0001495	-0.0009634	12
	3	20	150421.9	3.13149	0.3527669	1	3.151297	6.427356	2.182898E-005	0.0001609	11
	4	22	119484.4	3.227379	-0.0189184	1	3.227435	-0.3358544	-0.0001555	0.0001758	11
	5	25	94921.88	3.346997	-0.3676989	1	3.367134	-6.269336	-7.104468E-005	0.0002472	11
	6	27	75421.88	3.500896	-0.6901661	1	3.568277	-11.15228	-0.000096	0.0002753	11
	7	30	59859.37	3.698908	-0.974144	1	3.825033	-14.75438	2.645445E-005	-0.000149	10
	8	33	47578.12	3.928048	-1.258029	1	4.124585	-17.75862	-5.612124E-006	-0.00018	10
	9	35	37828.12	4.198643	-1.524005	1	4.466676	-19.94966	2.053157E-005	-0.0001493	10
	10	38	30046.88	4.512694	-1.760355	1	4.843888	-21.31024	1.373069E-006	-0.0001271	10
	11	40	23859.38	4.868652	-1.968062	1	5.251384	-22.0101	-2.973525E-005	-0.0001204	10
	12	42	18984.38	5.244977	-2.129064	1	5.660627	-22.09343	-1.525694E-006	-0.0001165	10
	13	45	15046.87	5.640959	-2.252527	1	6.074068	-21.76763	-6.486256E-006	-8.65625E-005	10
	14	47	11953.13	6.032424	-2.34058	1	6.470583	-21.20625	-2.084987E-005	-8.864042E-005	10
	15	49	9515.62	6.404414	-2.406424	1	6.841593	-20.59344	-2.001481E-005	-8.452334E-005	10
	16	52	7546.875	6.753292	-2.46651	1	7.189619	-20.06375	1.459175E-005	-0.0001451	10
	17	54	5928.309	7.075652	-2.536581	1	7.516588	-19.72247	-2.357782E-005	-0.0001024	10
	18	56	4733.456	7.353534	-2.644093	1	7.814454	-19.77694	-1.849539E-005	-0.0001039	10
	19	59	3796.875	8.007736	-2.979819	1	8.544188	-20.41112	5.31593E-006	-0.0001335	10
	20	61	2987.132	8.294512	-3.216234	1	8.89624	-21.19402	-1.564017E-005	-0.0001509	10
	21	63	2390.625	8.534534	-3.515752	1	9.230318	-22.38893	1.282315E-005	-0.0001367	10
	22	65	1884.191	8.783998	-3.975466	1	9.64173	-24.35058	-1.565969E-005	-0.0001476	10
	23	68	1516.544	9.011954	-4.523687	1	10.0836	-26.65506	4.158986E-006	-0.0001426	10
	24	70	1193.986	9.270763	-5.317021	1	10.68727	-29.83538	-2.564631E-005	-0.0001071	10
	25	73	946.5144	9.55219	-6.315369	1	11.45112	-33.47044	-3.191935E-005	-0.000126	10
	26	75	751.7689	9.87291	-7.550101	1	12.42893	-37.40619	-1.130374E-005	-0.0001166	10
	27	77	597.4265	10.27205	-9.107566	1	13.72817	-41.56135	1.88101E-005	-0.0001288	10
	28	79	477.4305	10.76805	-10.98179	1	15.38021	-45.56303	-1.027747E-006	-0.000107	10
	29	82	376.6741	11.42554	-13.41194	1	17.61883	-49.57254	-1.410552E-006	-0.0001044	10
	30	84	298.2954	12.25602	-16.34115	1	20.42653	-53.12975	-2.130098E-006	-0.0001019	10
	31	86	237.7717	13.28746	-19.7873	1	23.83472	-56.11806	-1.705978E-006	-0.0001069	10
	32	89	189.0121	14.61428	-23.97495	1	28.07802	-58.635	-2.567543E-006	-0.0001046	10
	33	91	150.2404	16.44231	-28.97299	1	33.31342	-60.42488	-2.363061E-006	-0.0001051	10
	34	94	119.1737	18.55831	-34.94499	1	39.5672	-62.02848	-2.424569E-006	-0.0001049	10
	35	96	95.0169	21.02779	-41.76714	1	46.76176	-63.27689	-4.926711E-007	-0.0001244	9
	36	99	75.60484	23.97418	-49.90451	1	55.36444	-64.34032	-5.531738E-007	-0.0001262	9
	37	101	54.50582	28.83938	-64.19125	1	70.37206	-65.80692	-5.770602E-007	-0.0001293	9
	38	104	45.95588	31.65823	-73.24125	1	79.7905	-66.62379	-4.341256E-007	-0.0001249	9
	39	106	37.20238	35.35406	-86.40358	1	93.35678	-67.74692	-5.326393E-007	-0.0001279	9
	40	108	30.04808	39.33972	-102.4882	1	109.779	-69.00088	-4.779703E-007	-0.0001321	9
	41	111	23.91582	44.02086	-123.5696	1	131.1766	-70.39189	-4.667217E-007	-0.0001304	9
	42	113	18.60119	50.33274	-152.8074	1	160.8834	-71.7688	-4.443799E-007	-0.0001328	9
	43	115	15.02404	56.59867	-183.772	1	192.2903	-72.88205	-6.180631E-007	-0.000133	9
	44	118	12.01923	64.47496	-223.4957	1	232.6098	-73.90799	-6.395434E-007	-0.000127	9
	45	120	9.450605	75.30258	-276.5794	1	286.6472	-74.7696	-4.124467E-007	-0.0001151	9
	46	123	7.512019	88.90026	-339.7554	1	351.1936	-75.33675	-5.290087E-007	-0.0001185	9
	47	125	5.978954	106.4237	-414.5577	1	428.0001	-75.60215	-4.91672E-007	-0.0001086	8
	48	128	4.734848	131.2568	-510.1539	1	526.7688	-75.57139	-4.448777E-007	-0.0001349	8
	49	132	3.75601	164.5386	-625.6417	1	646.9161	-75.26534	-2.706178E-007	-0.0001238	8
	50	135	3.004808	207.8397	-759.6141	1	787.5347	-74.6977	-3.36808E-007	-0.000121	8
	51	139	2.372217	271.6331	-930.0204	1	968.877	-73.71838	-3.896134E-007	-0.0001616	8
	52	143	1.878005	355.654	-1133.257	1	1187.754	-72.57639	-2.909797E-007	-0.0001125	8
	53	148	1.512097	457.9728	-1351.006	1	1426.519	-71.27403	-3.782695E-007	-5.775045E-005	8
	54	153	1.201923	608.6958	-1621.033	1	1731.548	-69.41891	-3.049676E-007	-0.0001039	8
	55	159	0.956633	801.8241	-1923.997	1	2084.391	-67.37611	-5.022016E-007	-0.0006616	8
