EXPLAIN
TAG	EISPOT
TITLE	LABEL	Potentiostatic EIS	Test Identifier
DATE	LABEL	11/21/2021	Date
TIME	LABEL	15:30:46	Time
NOTES	NOTES	1	Notes...
	
PSTAT	PSTAT	REF3000-16137	Potentiostat
VDC	POTEN	0.00000E+000	T	DC Voltage (V)
FREQINIT	QUANT	3.00000E+005	Initial Freq. (Hz)
FREQFINAL	QUANT	1.00000E+000	Final Freq. (Hz)
PTSPERDEC	QUANT	1.00000E+001	Points/decade
VAC	QUANT	5.00000E+001	AC Voltage (mV rms)
AREA	QUANT	1.00000E+000	Sample Area (cm^2)
SPEED	SELECTOR	2	Optimize for:
ZGUESS	QUANT	1.00000E+003	Estimated Z (ohms)
EOC	QUANT	0	Open Circuit (V)
SEQUENCER	TOGGLE	TRUE	Run as Sequence
PSTATMODEL	IQUANT	5	Pstat Model
PSTATSECTION	LABEL	REF3000-16137	Pstat Section
PSTATSERIALNO	LABEL	16137	Pstat Serial Number
CTRLMODE	IQUANT	1	Control Mode
IESTAB	IQUANT	0	I/E Stability
CASPEED	IQUANT	1	Control Amp Speed
CONVENTION	IQUANT	1	Current Convention
ICHRANGE	IQUANT	2	Ich Range
ICHRANGEMODE	TOGGLE	F	Ich Auto Range
ICHOFFSETENABLE	TOGGLE	T	Ich Offset Enable
ICHOFFSET	QUANT	0	Ich Offset (V)
ICHFILTER	IQUANT	3	Ich Filter
VCHRANGE	IQUANT	2	Vch Range
VCHRANGEMODE	TOGGLE	F	Vch Auto Range
VCHOFFSETENABLE	TOGGLE	T	Vch Offset Enable
VCHOFFSET	QUANT	0	Vch Offset (V)
VCHFILTER	IQUANT	3	Vch Filter
ACHRANGE	IQUANT	2	Ach Range
ACHOFFSETENABLE	TOGGLE	F	Ach Offset Enable
ACHOFFSET	QUANT	0	Ach Offset (V)
ACHFILTER	IQUANT	3	Ach Filter
IERANGELOWERLIMIT	IQUANT	2	I/E Range Lower Limit
IERANGEMODE	TOGGLE	F	I/E AutoRange
IERANGE	IQUANT	11	I/E Range
POSFEEDENABLE	TOGGLE	F	Positive Feedback IR Comp
POSFEEDRESISTANCE	QUANT	0	Positive Feedback Resistance (ohm)
ACHSELECT	IQUANT	0	Ach Select
CABLEID	IQUANT	13	Cable ID
DCCALDATE	LABEL	9/10/2021	DC Calibration Date
ACCALDATE	LABEL	9/10/2021	AC Calibration Date
THERMOSELECT	IQUANT	1	Thermo Select
FRAMEWORKVERSION	QUANT	6.33	Framework Version
INSTRUMENTVERSION	LABEL	3.50	Instrument Version
COMPLIANCEVOLTAGE	IQUANT	0	Compliance Voltage
ZCURVE	TABLE
	Pt	Time	Freq	Zreal	Zimag	Zsig	Zmod	Zphz	Idc	Vdc	IERange
	#	s	Hz	ohm	ohm	V	ohm	°	A	V	#
	0	9	300046.9	270.9789	-18.59119	1	271.6159	-3.924772	1.904046E-005	-0.0010563	9
	1	15	238359.4	276.6265	-16.55945	1	277.1217	-3.425758	4.875032E-005	-0.0005848	9
	2	20	189328.1	281.277	-14.10805	1	281.6306	-2.871387	8.047288E-005	-0.0027573	9
	3	26	150421.9	285.1134	-14.07345	1	285.4605	-2.825876	-9.155682E-005	0.0031567	9
	4	31	119484.4	289.467	-12.96291	1	289.7571	-2.564106	2.061449E-005	-0.0014978	9
	5	35	94921.88	292.2868	-12.22047	1	292.5422	-2.394134	1.446796E-006	0.0003224	9
	6	38	75421.88	294.5218	-11.8004	1	294.7581	-2.294404	-8.891391E-006	-0.0002952	9
	7	40	59859.37	297.2719	-11.24108	1	297.4844	-2.165558	-2.364832E-005	0.000804	9
	8	43	47578.12	300.3174	-11.08943	1	300.5221	-2.114726	-2.254962E-005	0.000712	9
	9	45	37828.12	303.5574	-12.54101	1	303.8164	-2.365741	1.942443E-005	-0.0002556	9
	10	48	30046.88	305.984	-13.09196	1	306.264	-2.449987	2.630013E-005	-0.0008965	9
	11	50	23859.38	309.9702	-13.9797	1	310.2853	-2.582297	-2.480611E-005	0.0006717	9
	12	54	18984.38	313.6844	-15.64243	1	314.0742	-2.854791	-7.721305E-006	0.0006483	9
	13	56	15046.87	317.1119	-17.49343	1	317.594	-3.157512	2.026626E-005	-0.0010456	9
	14	59	11953.13	320.2267	-19.32366	1	320.8092	-3.453251	2.574916E-005	-0.0006612	9
	15	61	9515.62	324.3937	-21.14761	1	325.0823	-3.729901	2.553602E-005	-0.0010389	9
	16	63	7546.875	328.8753	-22.87646	1	329.67	-3.979066	-1.637705E-005	0.000736	9
	17	66	5928.309	334.9883	-26.78481	1	336.0575	-4.571498	1.984202E-005	-0.0003073	9
	18	68	4733.456	339.6226	-30.2399	1	340.9662	-5.088183	-2.402735E-005	0.0006781	9
	19	71	3796.875	345.5666	-32.80255	1	347.1199	-5.422495	-2.460014E-005	0.0007344	9
	20	73	2987.132	351.7769	-37.68003	1	353.7891	-6.113838	-2.853467E-006	-0.000557	9
	21	75	2390.625	356.575	-40.88564	1	358.9114	-6.541089	1.21887E-005	-0.0027018	8
	22	77	1884.191	364.6622	-46.90664	1	367.6666	-7.32973	2.449825E-005	-0.0009882	9
	23	80	1516.544	373.77	-50.43943	1	377.158	-7.685509	2.147234E-005	-0.0010714	9
	24	82	1193.986	382.0937	-56.65211	1	386.2708	-8.433663	2.607242E-005	-0.0008659	9
	25	85	946.5144	392.106	-62.31237	1	397.0264	-9.029771	-2.745081E-006	-0.0005686	9
	26	87	751.7689	400.8286	-69.37894	1	406.7887	-9.81996	-2.856358E-006	-0.0021475	8
	27	90	597.4265	411.3527	-75.99204	1	418.313	-10.46665	-1.126045E-005	0.0018761	8
	28	92	477.4305	423.532	-83.80482	1	431.7437	-11.19261	-1.252502E-007	-0.0001069	8
	29	94	376.6741	436.4159	-92.93314	1	446.201	-12.02136	-8.706729E-008	-0.0001279	8
	30	97	298.2954	449.9847	-103.1325	1	461.652	-12.90874	-1.130115E-007	-0.0001165	8
	31	99	237.7717	464.2632	-114.438	1	478.1594	-13.84701	-1.074388E-007	-0.0001123	8
	32	101	189.0121	479.6883	-127.5709	1	496.362	-14.89283	-1.042528E-007	-0.0001265	8
	33	104	150.2404	496.1589	-142.8218	1	516.3058	-16.05872	-8.602417E-008	-0.0001137	8
	34	106	119.1737	513.9615	-160.7709	1	538.52	-17.37006	-8.912514E-008	-0.0001172	8
	35	109	95.0169	532.8013	-181.4092	1	562.8379	-18.80278	-7.310346E-008	-0.0001241	8
	36	111	75.60484	553.4387	-205.9785	1	590.5264	-20.41423	-1.033056E-007	-0.0001201	8
	37	114	54.50582	584.875	-248.9425	1	635.6501	-23.05624	-5.452799E-008	-0.0001594	8
	38	116	45.95588	604.3661	-276.1967	1	664.4871	-24.56051	-6.662897E-008	-0.000114	8
	39	119	37.20238	629.5427	-315.0856	1	703.9907	-26.58793	-2.847616E-008	-0.0001297	8
	40	121	30.04808	657.6812	-361.2776	1	750.3773	-28.78088	-1.445803E-007	-0.0001196	8
	41	123	23.91582	690.3214	-419.7615	1	807.9254	-31.30239	1.614935E-009	-0.0001205	8
	42	126	18.60119	730.5606	-497.9717	1	884.1349	-34.2795	-2.349837E-007	-0.0001315	8
	43	128	15.02404	768.6579	-577.0156	1	961.136	-36.8948	-1.366452E-007	-0.0001205	8
	44	130	12.01923	813.691	-675.5752	1	1057.589	-39.7015	-1.83947E-007	-0.0001181	8
	45	133	9.450605	867.8359	-804.7475	1	1183.536	-42.83988	-1.444941E-007	-0.000103	8
	46	135	7.512019	926.4166	-953.729	1	1329.604	-45.83226	2.51245E-008	-0.0001127	8
	47	138	5.978954	994.706	-1134.044	1	1508.475	-48.74499	-7.800264E-008	-0.0001294	8
	48	141	4.734848	1073.804	-1358.414	1	1731.573	-51.67423	-9.07643E-009	-0.0001009	8
	49	144	3.75601	1166.964	-1628.092	1	2003.119	-54.36827	-1.34832E-007	-0.0001442	8
	50	148	3.004808	1272.564	-1943.849	1	2323.352	-56.78876	-1.315219E-007	-0.0001015	8
	51	152	2.372217	1408.761	-2349.787	1	2739.728	-59.05616	-1.073321E-007	-4.638029E-005	8
	52	156	1.878005	1566.581	-2846.989	1	3249.542	-61.17782	-1.538447E-007	-0.0001334	8
	53	160	1.512097	1743.563	-3394.409	1	3816.022	-62.81237	-1.216844E-007	-0.0001193	8
	54	166	1.201923	1987.339	-4118.658	1	4573.058	-64.24171	-4.121596E-008	-0.0001284	7
	55	172	0.956633	2277.829	-4971.668	1	5468.637	-65.38455	-5.355685E-008	-0.0006519	7
