EXPLAIN
TAG	EISPOT
TITLE	LABEL	Potentiostatic EIS	Test Identifier
DATE	LABEL	11/21/2021	Date
TIME	LABEL	14:09:10	Time
NOTES	NOTES	1	Notes...
	
PSTAT	PSTAT	REF3000-16137	Potentiostat
VDC	POTEN	0.00000E+000	T	DC Voltage (V)
FREQINIT	QUANT	3.00000E+005	Initial Freq. (Hz)
FREQFINAL	QUANT	1.00000E+000	Final Freq. (Hz)
PTSPERDEC	QUANT	1.00000E+001	Points/decade
VAC	QUANT	5.00000E+001	AC Voltage (mV rms)
AREA	QUANT	1.00000E+000	Sample Area (cm^2)
SPEED	SELECTOR	2	Optimize for:
ZGUESS	QUANT	1.00000E+003	Estimated Z (ohms)
EOC	QUANT	0	Open Circuit (V)
SEQUENCER	TOGGLE	TRUE	Run as Sequence
PSTATMODEL	IQUANT	5	Pstat Model
PSTATSECTION	LABEL	REF3000-16137	Pstat Section
PSTATSERIALNO	LABEL	16137	Pstat Serial Number
CTRLMODE	IQUANT	1	Control Mode
IESTAB	IQUANT	0	I/E Stability
CASPEED	IQUANT	1	Control Amp Speed
CONVENTION	IQUANT	1	Current Convention
ICHRANGE	IQUANT	2	Ich Range
ICHRANGEMODE	TOGGLE	F	Ich Auto Range
ICHOFFSETENABLE	TOGGLE	T	Ich Offset Enable
ICHOFFSET	QUANT	0	Ich Offset (V)
ICHFILTER	IQUANT	3	Ich Filter
VCHRANGE	IQUANT	2	Vch Range
VCHRANGEMODE	TOGGLE	F	Vch Auto Range
VCHOFFSETENABLE	TOGGLE	T	Vch Offset Enable
VCHOFFSET	QUANT	0	Vch Offset (V)
VCHFILTER	IQUANT	3	Vch Filter
ACHRANGE	IQUANT	2	Ach Range
ACHOFFSETENABLE	TOGGLE	F	Ach Offset Enable
ACHOFFSET	QUANT	0	Ach Offset (V)
ACHFILTER	IQUANT	3	Ach Filter
IERANGELOWERLIMIT	IQUANT	2	I/E Range Lower Limit
IERANGEMODE	TOGGLE	F	I/E AutoRange
IERANGE	IQUANT	11	I/E Range
POSFEEDENABLE	TOGGLE	F	Positive Feedback IR Comp
POSFEEDRESISTANCE	QUANT	0	Positive Feedback Resistance (ohm)
ACHSELECT	IQUANT	0	Ach Select
CABLEID	IQUANT	13	Cable ID
DCCALDATE	LABEL	9/10/2021	DC Calibration Date
ACCALDATE	LABEL	9/10/2021	AC Calibration Date
THERMOSELECT	IQUANT	1	Thermo Select
FRAMEWORKVERSION	QUANT	6.33	Framework Version
INSTRUMENTVERSION	LABEL	3.50	Instrument Version
COMPLIANCEVOLTAGE	IQUANT	0	Compliance Voltage
ZCURVE	TABLE
	Pt	Time	Freq	Zreal	Zimag	Zsig	Zmod	Zphz	Idc	Vdc	IERange
	#	s	Hz	ohm	ohm	V	ohm	°	A	V	#
	0	10	300046.9	1.692176	2.267577	1	2.829375	53.26791	-0.0001654	-0.0007222	11
	1	13	238359.4	1.794999	1.624959	1	2.421263	42.1536	-0.0001563	-0.0012216	12
	2	17	189328.1	1.728822	1.261798	1	2.140318	36.12423	-0.0001481	-0.0008958	12
	3	21	150421.9	1.648244	1.051245	1	1.954949	32.52962	-6.357628E-005	-0.0001904	11
	4	24	119484.4	1.653407	0.7970379	1	1.83549	25.73676	-0.0001857	-0.0002029	11
	5	26	94921.88	1.665296	0.5833987	1	1.76453	19.30675	-6.762327E-005	8.21288E-005	11
	6	29	75421.88	1.680278	0.4075083	1	1.728987	13.63241	-6.074522E-005	0.0001419	11
	7	31	59859.37	1.698502	0.2600617	1	1.718296	8.705087	-5.370258E-005	0.0002261	11
	8	34	47578.12	1.718338	0.1350496	1	1.723637	4.493817	-6.413924E-005	0.0002812	11
	9	36	37828.12	1.74006	0.0249632	1	1.740239	0.8219175	-7.6392E-005	0.0003203	11
	10	39	30046.88	1.763016	-0.0762229	1	1.764663	-2.475605	-0.0000977	0.0003108	11
	11	41	23859.38	1.789128	-0.1723727	1	1.797412	-5.503152	-7.793896E-005	0.0003666	11
	12	44	18984.38	1.815814	-0.2678591	1	1.835465	-8.391445	-7.625938E-005	0.0003601	11
	13	46	15046.87	1.845645	-0.3691617	1	1.882202	-11.31091	-4.029356E-005	0.0003858	11
	14	48	11953.13	1.877421	-0.4782919	1	1.937389	-14.29264	-4.18558E-005	0.0003832	11
	15	50	9515.62	1.911096	-0.6006453	1	2.003263	-17.4476	-4.056692E-005	0.0003833	11
	16	53	7546.875	1.947775	-0.7449895	1	2.085387	-20.93097	-1.739701E-005	0.0004083	11
	17	55	5928.309	1.989425	-0.9241427	1	2.193593	-24.91617	-2.391205E-005	0.000394	11
	18	57	4733.456	2.032809	-1.126611	1	2.324127	-28.99584	-3.288014E-005	0.0003748	11
	19	60	3796.875	2.080587	-1.367966	1	2.490015	-33.32453	-2.887251E-005	0.0004055	11
	20	62	2987.132	2.141282	-1.689358	1	2.727457	-38.27157	-3.112841E-005	0.0003812	11
	21	64	2390.625	2.208703	-2.059591	1	3.019981	-42.99921	-2.539221E-005	0.0004098	11
	22	67	1884.191	2.298335	-2.545594	1	3.429635	-47.92215	-8.141594E-005	0.000361	11
	23	69	1516.544	2.403084	-3.091233	1	3.915422	-52.13898	-7.298612E-005	0.000383	11
	24	71	1193.986	2.552502	-3.833075	1	4.605186	-56.33976	-2.876741E-005	-0.0001116	10
	25	74	946.5144	2.739589	-4.719707	1	5.457196	-59.86666	1.303097E-005	-0.0001365	10
	26	76	751.7689	2.991893	-5.78864	1	6.516117	-62.66755	1.506656E-005	-0.0001338	10
	27	78	597.4265	3.31679	-7.090076	1	7.827533	-64.92946	-2.956948E-005	-0.0001149	10
	28	81	477.4305	3.733874	-8.618859	1	9.392899	-66.57671	-6.159398E-006	-0.0001159	10
	29	83	376.6741	4.304858	-10.55617	1	11.4002	-67.81412	-6.702634E-006	-0.0001123	10
	30	85	298.2954	5.029014	-12.84282	1	13.79235	-68.61559	-6.564626E-006	-0.0001077	10
	31	88	237.7717	5.9156	-15.47763	1	16.56959	-69.08298	-6.148131E-006	-0.0001124	10
	32	90	189.0121	7.020221	-18.61911	1	19.89861	-69.34135	-6.527433E-006	-0.0001108	10
	33	92	150.2404	8.34136	-22.31252	1	23.82072	-69.50214	-6.521252E-006	-0.0001122	10
	34	95	119.1737	9.886	-26.71624	1	28.48667	-69.69366	-7.037692E-006	-0.0001102	10
	35	97	95.0169	11.57672	-31.82503	1	33.86522	-70.01056	-7.401071E-006	-0.0001142	10
	36	100	75.60484	13.45045	-38.02291	1	40.33183	-70.51897	-7.38675E-006	-0.0001168	10
	37	102	54.50582	16.44558	-49.29967	1	51.97033	-71.55213	-5.964221E-006	-0.0001292	9
	38	105	45.95588	18.23178	-56.70638	1	59.56518	-72.17678	-5.533471E-006	-0.0001234	9
	39	107	37.20238	20.78045	-67.69537	1	70.81306	-72.93508	-5.684557E-006	-0.0001215	9
	40	109	30.04808	23.88918	-81.25291	1	84.69196	-73.61613	-5.754278E-006	-0.0001273	9
	41	112	23.91582	28.0039	-98.9506	1	102.837	-74.19801	-6.067038E-006	-0.0001291	9
	42	114	18.60119	34.12786	-123.3521	1	127.9861	-74.53481	-5.839641E-006	-0.0001225	9
	43	116	15.02404	41.0483	-148.7699	1	154.329	-74.57485	-5.389808E-006	-0.0001182	9
	44	119	12.01923	50.80162	-180.9225	1	187.9196	-74.31567	-5.625206E-006	-0.0001656	9
	45	121	9.450605	65.10712	-222.8938	1	232.2081	-73.71696	-5.817377E-006	-0.0001139	9
	46	124	7.512019	84.18995	-271.0905	1	283.8626	-72.74728	-5.780792E-006	-0.000132	9
	47	126	5.978954	109.921	-328.0027	1	345.9312	-71.47285	-5.659223E-006	-0.0001208	9
	48	129	4.734848	146.1676	-396.1146	1	422.2224	-69.74577	-5.709644E-006	-0.0001462	9
	49	133	3.75601	194.4172	-471.123	1	509.6615	-67.57565	-5.256131E-006	-0.0000953	8
	50	136	3.004808	256.86	-553.0414	1	609.7802	-65.08749	-5.492472E-006	-6.691477E-005	8
	51	140	2.372217	343.2815	-646.4218	1	731.9175	-62.02952	-5.381541E-006	-4.003995E-005	8
	52	144	1.878005	452.319	-739.6445	1	866.987	-58.55273	-5.461321E-006	-0.0001285	8
	53	149	1.512097	574.3285	-821.8955	1	1002.679	-55.05472	-5.404817E-006	-5.712198E-005	8
	54	154	1.201923	728.3816	-901.8848	1	1159.282	-51.07491	-5.374652E-006	-0.0001383	8
	55	160	0.956633	900.5994	-964.872	1	1319.87	-46.97327	-5.640855E-006	-0.0006554	8
