EXPLAIN
TAG	EISPOT
TITLE	LABEL	Potentiostatic EIS	Test Identifier
DATE	LABEL	11/21/2021	Date
TIME	LABEL	16:11:32	Time
NOTES	NOTES	1	Notes...
	
PSTAT	PSTAT	REF3000-16137	Potentiostat
VDC	POTEN	0.00000E+000	T	DC Voltage (V)
FREQINIT	QUANT	3.00000E+005	Initial Freq. (Hz)
FREQFINAL	QUANT	1.00000E+000	Final Freq. (Hz)
PTSPERDEC	QUANT	1.00000E+001	Points/decade
VAC	QUANT	5.00000E+001	AC Voltage (mV rms)
AREA	QUANT	1.00000E+000	Sample Area (cm^2)
SPEED	SELECTOR	2	Optimize for:
ZGUESS	QUANT	1.00000E+003	Estimated Z (ohms)
EOC	QUANT	0	Open Circuit (V)
SEQUENCER	TOGGLE	TRUE	Run as Sequence
PSTATMODEL	IQUANT	5	Pstat Model
PSTATSECTION	LABEL	REF3000-16137	Pstat Section
PSTATSERIALNO	LABEL	16137	Pstat Serial Number
CTRLMODE	IQUANT	1	Control Mode
IESTAB	IQUANT	0	I/E Stability
CASPEED	IQUANT	1	Control Amp Speed
CONVENTION	IQUANT	1	Current Convention
ICHRANGE	IQUANT	2	Ich Range
ICHRANGEMODE	TOGGLE	F	Ich Auto Range
ICHOFFSETENABLE	TOGGLE	T	Ich Offset Enable
ICHOFFSET	QUANT	0	Ich Offset (V)
ICHFILTER	IQUANT	3	Ich Filter
VCHRANGE	IQUANT	2	Vch Range
VCHRANGEMODE	TOGGLE	F	Vch Auto Range
VCHOFFSETENABLE	TOGGLE	T	Vch Offset Enable
VCHOFFSET	QUANT	0	Vch Offset (V)
VCHFILTER	IQUANT	3	Vch Filter
ACHRANGE	IQUANT	2	Ach Range
ACHOFFSETENABLE	TOGGLE	F	Ach Offset Enable
ACHOFFSET	QUANT	0	Ach Offset (V)
ACHFILTER	IQUANT	3	Ach Filter
IERANGELOWERLIMIT	IQUANT	2	I/E Range Lower Limit
IERANGEMODE	TOGGLE	F	I/E AutoRange
IERANGE	IQUANT	11	I/E Range
POSFEEDENABLE	TOGGLE	F	Positive Feedback IR Comp
POSFEEDRESISTANCE	QUANT	0	Positive Feedback Resistance (ohm)
ACHSELECT	IQUANT	0	Ach Select
CABLEID	IQUANT	13	Cable ID
DCCALDATE	LABEL	9/10/2021	DC Calibration Date
ACCALDATE	LABEL	9/10/2021	AC Calibration Date
THERMOSELECT	IQUANT	1	Thermo Select
FRAMEWORKVERSION	QUANT	6.33	Framework Version
INSTRUMENTVERSION	LABEL	3.50	Instrument Version
COMPLIANCEVOLTAGE	IQUANT	0	Compliance Voltage
ZCURVE	TABLE
	Pt	Time	Freq	Zreal	Zimag	Zsig	Zmod	Zphz	Idc	Vdc	IERange
	#	s	Hz	ohm	ohm	V	ohm	°	A	V	#
	0	20	300046.9	-34.05021	-4380.254	1	4380.386	-90.44538	2.411856E-005	-0.002274	9
	1	42	238359.4	117.2259	-5477.761	1	5479.015	-88.77404	8.608432E-005	-0.0030373	9
	2	70	189328.1	-221.7464	-7025.312	1	7028.81	-91.80788	5.199135E-005	-0.0002043	9
	3	80	150421.9	166.7871	-7491.136	1	7492.993	-88.72454	-6.280484E-006	-0.0018005	9
	4	87	119484.4	575.9236	-10669.15	1	10684.68	-86.91016	3.791916E-005	-0.0185278	8
	5	95	94921.88	628.3018	-13473.93	1	13488.57	-87.33018	1.793799E-005	-0.0009192	8
	6	103	75421.88	942.8985	-16413.42	1	16440.48	-86.71215	6.389258E-006	-0.0080289	8
	7	111	59859.37	901.9057	-20938.93	1	20958.35	-87.53362	2.589921E-005	-0.0062608	8
	8	120	47578.12	300.1591	-26623.47	1	26625.16	-89.35406	-1.050263E-005	0.0090653	8
	9	128	37828.12	4722.394	-34420.79	1	34743.23	-82.18802	7.494252E-006	-0.0200332	7
	10	136	30046.88	4768.846	-42001.94	1	42271.8	-83.52245	-7.147706E-006	0.0234102	7
	11	143	23859.38	3241.908	-51746.51	1	51847.96	-86.41512	-1.078778E-005	-0.0024064	8
	12	150	18984.38	5189.14	-65202.33	1	65408.49	-85.44969	-1.542442E-006	-0.0124117	7
	13	155	15046.87	7428.375	-81648.38	1	81985.59	-84.80154	5.085004E-006	-0.0031275	7
	14	160	11953.13	7223.291	-102253.8	1	102508.6	-85.9593	6.925728E-007	-0.0195355	7
	15	166	9515.62	9664.2	-127671.9	1	128037.2	-85.67122	6.722047E-006	-0.0122806	7
	16	172	7546.875	7178.318	-161849.8	1	162008.9	-87.46049	-5.60922E-006	0.0043963	7
	17	177	5928.309	14475.15	-220737.9	1	221212	-86.24813	-5.604944E-006	0.0043211	7
	18	183	4733.456	12765.32	-243498.5	1	243832.9	-86.99904	-1.280395E-006	0.0199012	7
	19	188	3796.875	55093.76	-332325.8	1	336861.6	-80.58698	6.760148E-007	-0.0272288	6
	20	194	2987.132	64962.28	-411157.3	1	416257.6	-81.02157	-1.692682E-007	0.0203991	6
	21	199	2390.625	77825.06	-499432.3	1	505459.5	-81.143	-3.036911E-007	-0.006756	6
	22	204	1884.191	102538.8	-631408.3	1	639680.1	-80.77586	3.50361E-007	-0.0250715	6
	23	210	1516.544	126651.7	-776673.4	1	786932.2	-80.73833	-5.242938E-007	0.0253959	6
	24	215	1193.986	321355.1	-281807.4	1	427416.1	-41.24865	1.792238E-005	-0.0009038	8
	25	224	946.5144	645368.6	-920322.6	1	1124053	-54.96026	-1.512083E-006	-0.0126487	7
	26	230	751.7689	349945.8	-1554586	1	1593486	-77.31387	3.577455E-008	0.0152159	6
	27	235	597.4265	365916.1	-2123413	1	2154711	-80.22256	5.493358E-007	-0.027626	6
	28	240	477.4305	704154.3	-2203342	1	2313125	-72.27692	-9.521948E-009	-0.0001834	6
	29	243	376.6741	1301562	-2642370	1	2945536	-63.77635	-9.536282E-010	-0.0001057	5
	30	246	298.2954	1699619	-3096428	1	3532219	-61.23777	-9.601036E-010	-0.0001029	5
	31	249	237.7717	2190270	-3587265	1	4203064	-58.59309	-9.627859E-010	-8.174484E-005	5
	32	252	189.0121	2843611	-4033803	1	4935352	-54.81826	-1.048764E-009	-1.738842E-005	5
	33	254	150.2404	3650410	-4494840	1	5790430	-50.91879	-1.045432E-009	-8.64498E-006	5
	34	257	119.1737	4129206	-5063148	1	6533438	-50.80133	-1.051572E-009	-4.83957E-006	5
	35	260	95.0169	5460996	-4963735	1	7379780	-42.26905	-9.482914E-010	-7.667394E-005	5
	36	263	75.60484	6400471	-5076258	1	8169114	-38.41817	-1.059991E-009	-4.458995E-005	5
	37	266	54.50582	7747935	-4947745	1	9192969	-32.56185	-1.067521E-009	-2.996103E-005	5
	38	269	45.95588	9432908	-4216224	1	1.033229E+007	-24.08319	-8.860414E-011	0.0004229	4
	39	271	37.20238	9.949501E+006	-4070118	1	1.074981E+007	-22.24837	-1.062278E-010	0.000433	4
	40	274	30.04808	1.053858E+007	-3976012	1	1.126367E+007	-20.67056	-1.003774E-010	0.0004443	4
	41	277	23.91582	1.115482E+007	-3998317	1	1.184975E+007	-19.71963	-1.16347E-010	0.0004465	4
	42	280	18.60119	1.172443E+007	-3969672	1	1.237823E+007	-18.70514	-1.16198E-010	0.0004004	4
	43	282	15.02404	1.247533E+007	-3925637	1	1.30784E+007	-17.46732	-1.013481E-010	0.0004302	4
	44	285	12.01923	1.316534E+007	-3916496	1	1.373554E+007	-16.56697	-1.033045E-010	0.000484	4
	45	287	9.450605	1.392327E+007	-3883994	1	1.445486E+007	-15.58682	-9.921038E-011	0.0004722	4
	46	290	7.512019	1.472338E+007	-3850016	1	1.521843E+007	-14.65414	-1.017604E-010	0.0004551	4
	47	293	5.978954	1.558243E+007	-3793384	1	1.603752E+007	-13.68194	-8.931746E-011	0.0004141	4
	48	297	4.734848	1.648274E+007	-3646455	1	1.688127E+007	-12.47455	-1.053576E-010	0.0004422	4
	49	302	3.75601	1.742964E+007	-3479779	1	1.777361E+007	-11.2905	-9.826868E-011	0.0003853	4
	50	308	3.004808	1.837704E+007	-3338181	1	1.867776E+007	-10.2955	-8.85036E-011	0.0003648	4
	51	314	2.372217	1.927621E+007	-3100452	1	1.952396E+007	-9.137391	-1.016032E-010	0.0003981	4
	52	318	1.878005	2.008313E+007	-2845901	1	2.028377E+007	-8.065458	-9.964039E-011	0.0004471	4
	53	323	1.512097	2.086463E+007	-2636877	1	2.103059E+007	-7.20287	-1.005657E-010	0.0003299	4
	54	328	1.201923	2.173309E+007	-2446431	1	2.187035E+007	-6.422581	-9.977808E-011	0.0004461	4
	55	335	0.956633	2.262521E+007	-2263233	1	2.273813E+007	-5.712377	-1.220819E-010	-0.000109	4
