EXPLAIN
TAG	EISPOT
TITLE	LABEL	Potentiostatic EIS	Test Identifier
DATE	LABEL	11/21/2021	Date
TIME	LABEL	15:00:06	Time
NOTES	NOTES	1	Notes...
	
PSTAT	PSTAT	REF3000-16137	Potentiostat
VDC	POTEN	0.00000E+000	T	DC Voltage (V)
FREQINIT	QUANT	3.00000E+005	Initial Freq. (Hz)
FREQFINAL	QUANT	1.00000E+000	Final Freq. (Hz)
PTSPERDEC	QUANT	1.00000E+001	Points/decade
VAC	QUANT	5.00000E+001	AC Voltage (mV rms)
AREA	QUANT	1.00000E+000	Sample Area (cm^2)
SPEED	SELECTOR	2	Optimize for:
ZGUESS	QUANT	1.00000E+003	Estimated Z (ohms)
EOC	QUANT	0	Open Circuit (V)
SEQUENCER	TOGGLE	TRUE	Run as Sequence
PSTATMODEL	IQUANT	5	Pstat Model
PSTATSECTION	LABEL	REF3000-16137	Pstat Section
PSTATSERIALNO	LABEL	16137	Pstat Serial Number
CTRLMODE	IQUANT	1	Control Mode
IESTAB	IQUANT	0	I/E Stability
CASPEED	IQUANT	1	Control Amp Speed
CONVENTION	IQUANT	1	Current Convention
ICHRANGE	IQUANT	2	Ich Range
ICHRANGEMODE	TOGGLE	F	Ich Auto Range
ICHOFFSETENABLE	TOGGLE	T	Ich Offset Enable
ICHOFFSET	QUANT	0	Ich Offset (V)
ICHFILTER	IQUANT	3	Ich Filter
VCHRANGE	IQUANT	2	Vch Range
VCHRANGEMODE	TOGGLE	F	Vch Auto Range
VCHOFFSETENABLE	TOGGLE	T	Vch Offset Enable
VCHOFFSET	QUANT	0	Vch Offset (V)
VCHFILTER	IQUANT	3	Vch Filter
ACHRANGE	IQUANT	2	Ach Range
ACHOFFSETENABLE	TOGGLE	F	Ach Offset Enable
ACHOFFSET	QUANT	0	Ach Offset (V)
ACHFILTER	IQUANT	3	Ach Filter
IERANGELOWERLIMIT	IQUANT	2	I/E Range Lower Limit
IERANGEMODE	TOGGLE	F	I/E AutoRange
IERANGE	IQUANT	11	I/E Range
POSFEEDENABLE	TOGGLE	F	Positive Feedback IR Comp
POSFEEDRESISTANCE	QUANT	0	Positive Feedback Resistance (ohm)
ACHSELECT	IQUANT	0	Ach Select
CABLEID	IQUANT	13	Cable ID
DCCALDATE	LABEL	9/10/2021	DC Calibration Date
ACCALDATE	LABEL	9/10/2021	AC Calibration Date
THERMOSELECT	IQUANT	1	Thermo Select
FRAMEWORKVERSION	QUANT	6.33	Framework Version
INSTRUMENTVERSION	LABEL	3.50	Instrument Version
COMPLIANCEVOLTAGE	IQUANT	0	Compliance Voltage
ZCURVE	TABLE
	Pt	Time	Freq	Zreal	Zimag	Zsig	Zmod	Zphz	Idc	Vdc	IERange
	#	s	Hz	ohm	ohm	V	ohm	°	A	V	#
	0	8	300046.9	9.5595	1.694553	1	9.70853	10.05205	-3.502325E-005	-0.0007465	10
	1	12	238359.4	9.64526	1.123635	1	9.71049	6.644785	-0.0001022	-0.0007249	10
	2	15	189328.1	9.76756	0.6393176	1	9.78846	3.744849	5.36214E-005	-0.0003692	10
	3	17	150421.9	9.92338	0.2175192	1	9.92577	1.255715	-0.0000995	-0.000305	10
	4	20	119484.4	10.08428	-0.159965	1	10.08555	-0.9087953	9.87683E-006	-0.0002581	10
	5	22	94921.88	10.27455	-0.4955547	1	10.28649	-2.76131	-1.5639E-005	-0.000226	10
	6	25	75421.88	10.49529	-0.8189455	1	10.5272	-4.461736	2.699697E-005	-0.0001814	10
	7	27	59859.37	10.73893	-1.119913	1	10.79717	-5.953588	-1.770957E-005	-0.0001997	10
	8	30	47578.12	11.00946	-1.397137	1	11.09775	-7.23237	1.527565E-005	-0.0001768	10
	9	32	37828.12	11.30291	-1.661045	1	11.42431	-8.360192	1.183571E-005	-0.0001124	10
	10	35	30046.88	11.6247	-1.914595	1	11.78131	-9.352685	2.335081E-005	-0.0001631	10
	11	37	23859.38	11.97146	-2.169142	1	12.16639	-10.27016	4.983132E-006	-0.000163	10
	12	40	18984.38	12.33582	-2.420109	1	12.57097	-11.09963	2.649388E-005	-0.0001209	10
	13	42	15046.87	12.7252	-2.679268	1	13.0042	-11.88986	2.5376E-005	-0.0001235	10
	14	44	11953.13	13.13004	-2.954836	1	13.45841	-12.68278	2.629702E-005	-0.0001221	10
	15	47	9515.62	13.54207	-3.248548	1	13.92626	-13.48954	5.668997E-006	-0.0001543	10
	16	49	7546.875	13.98252	-3.581825	1	14.434	-14.36818	-2.973594E-005	-0.0001241	10
	17	51	5928.309	14.44992	-3.974547	1	14.98657	-15.37927	-1.077108E-005	-0.0001201	10
	18	54	4733.456	14.91969	-4.409097	1	15.55754	-16.46357	2.4487E-005	-0.0001456	10
	19	56	3796.875	15.40945	-4.9006	1	16.16994	-17.642	-2.220297E-005	-7.720318E-005	10
	20	58	2987.132	15.98458	-5.546876	1	16.91965	-19.1375	-1.297169E-005	-0.0001016	10
	21	61	2390.625	16.5491	-6.248454	1	17.68942	-20.68507	-1.584646E-005	-6.905465E-005	10
	22	63	1884.191	17.19693	-7.148572	1	18.62355	-22.57211	-1.551213E-005	-0.0001167	10
	23	65	1516.544	17.84949	-8.12929	1	19.6135	-24.4862	-1.55965E-005	-0.0001135	10
	24	67	1193.986	18.64002	-9.428527	1	20.88893	-26.83128	-2.794949E-006	-0.0001097	10
	25	70	946.5144	19.50239	-10.90102	1	22.34223	-29.20336	-1.488567E-005	-9.304644E-005	10
	26	72	751.7689	20.4762	-12.7121	1	24.1013	-31.83297	4.838077E-006	-0.000154	10
	27	75	597.4265	21.55388	-14.8533	1	26.17614	-34.57167	1.196436E-005	-0.0001619	10
	28	77	477.4305	22.71739	-17.36495	1	28.59408	-37.39394	-1.252014E-006	-0.00011	10
	29	79	376.6741	24.10847	-20.53728	1	31.67015	-40.42669	-1.199505E-006	-0.0001132	10
	30	81	298.2954	25.67317	-24.31934	1	35.363	-43.44877	-1.303404E-006	-0.0001132	10
	31	84	237.7717	27.38134	-28.72446	1	39.68415	-46.37135	3.829277E-007	-0.000122	9
	32	86	189.0121	29.41581	-34.14194	1	45.0662	-49.25267	3.839987E-007	-0.0001238	9
	33	89	150.2404	31.78173	-40.69277	1	51.63313	-52.00957	3.784991E-007	-0.000124	9
	34	91	119.1737	34.58493	-48.69557	1	59.72752	-54.61658	4.31648E-007	-0.000122	9
	35	93	95.0169	37.82543	-58.15105	1	69.3708	-56.95726	3.756101E-007	-0.0001281	9
	36	96	75.60484	41.70378	-69.65965	1	81.18912	-59.09192	4.041642E-007	-0.0001265	9
	37	98	54.50582	48.63425	-90.35109	1	102.609	-61.70728	4.944206E-007	-0.0001344	9
	38	101	45.95588	53.12499	-103.5771	1	116.4066	-62.84659	3.2189E-007	-0.0001155	9
	39	103	37.20238	59.64466	-122.6112	1	136.3488	-64.05923	3.28704E-007	-0.0001213	9
	40	106	30.04808	67.55444	-145.3427	1	160.2751	-65.07127	3.951361E-007	-0.0001212	9
	41	108	23.91582	77.79649	-174.1068	1	190.6973	-65.92338	2.824383E-007	-0.0001235	9
	42	110	18.60119	91.26233	-211.9494	1	230.7625	-66.70399	5.188242E-007	-0.0001208	9
	43	113	15.02404	104.6668	-250.1038	1	271.1218	-67.29101	5.205184E-007	-0.0001101	9
	44	115	12.01923	120.6227	-297.1289	1	320.6796	-67.90478	3.403217E-007	-0.000117	9
	45	117	9.450605	139.6704	-358.0718	1	384.3478	-68.6911	3.444018E-007	-0.0001222	9
	46	120	7.512019	158.6692	-427.076	1	455.5984	-69.61874	3.586385E-007	-0.0001247	8
	47	122	5.978954	180.1502	-513.1533	1	543.8569	-70.6556	4.59139E-007	-0.0001072	8
	48	126	4.734848	204.7197	-622.6536	1	655.4446	-71.79987	3.911456E-007	-0.0001301	8
	49	129	3.75601	233.2401	-757.1893	1	792.2983	-72.87939	4.955703E-007	-0.0001064	8
	50	132	3.004808	266.2932	-917.9856	1	955.829	-73.82339	4.24579E-007	-8.533611E-005	8
	51	136	2.372217	310.206	-1129.444	1	1171.269	-74.64219	4.41278E-007	-4.161065E-005	8
	52	140	1.878005	366.5683	-1388.299	1	1435.879	-75.20911	4.234813E-007	-0.0001379	8
	53	145	1.512097	435.2914	-1679.608	1	1735.097	-75.47074	4.706785E-007	-6.42922E-005	8
	54	150	1.201923	528.7518	-2065.115	1	2131.731	-75.63852	4.371265E-007	-0.0001463	8
	55	156	0.956633	654.5574	-2529.114	1	2612.443	-75.48972	3.978859E-007	-0.0006633	8
