EXPLAIN
TAG	EISPOT
TITLE	LABEL	Potentiostatic EIS	Test Identifier
DATE	LABEL	11/21/2021	Date
TIME	LABEL	15:50:22	Time
NOTES	NOTES	1	Notes...
	
PSTAT	PSTAT	REF3000-16137	Potentiostat
VDC	POTEN	0.00000E+000	T	DC Voltage (V)
FREQINIT	QUANT	3.00000E+005	Initial Freq. (Hz)
FREQFINAL	QUANT	1.00000E+000	Final Freq. (Hz)
PTSPERDEC	QUANT	1.00000E+001	Points/decade
VAC	QUANT	5.00000E+001	AC Voltage (mV rms)
AREA	QUANT	1.00000E+000	Sample Area (cm^2)
SPEED	SELECTOR	2	Optimize for:
ZGUESS	QUANT	1.00000E+003	Estimated Z (ohms)
EOC	QUANT	0	Open Circuit (V)
SEQUENCER	TOGGLE	TRUE	Run as Sequence
PSTATMODEL	IQUANT	5	Pstat Model
PSTATSECTION	LABEL	REF3000-16137	Pstat Section
PSTATSERIALNO	LABEL	16137	Pstat Serial Number
CTRLMODE	IQUANT	1	Control Mode
IESTAB	IQUANT	0	I/E Stability
CASPEED	IQUANT	1	Control Amp Speed
CONVENTION	IQUANT	1	Current Convention
ICHRANGE	IQUANT	2	Ich Range
ICHRANGEMODE	TOGGLE	F	Ich Auto Range
ICHOFFSETENABLE	TOGGLE	T	Ich Offset Enable
ICHOFFSET	QUANT	0	Ich Offset (V)
ICHFILTER	IQUANT	3	Ich Filter
VCHRANGE	IQUANT	2	Vch Range
VCHRANGEMODE	TOGGLE	F	Vch Auto Range
VCHOFFSETENABLE	TOGGLE	T	Vch Offset Enable
VCHOFFSET	QUANT	0	Vch Offset (V)
VCHFILTER	IQUANT	3	Vch Filter
ACHRANGE	IQUANT	2	Ach Range
ACHOFFSETENABLE	TOGGLE	F	Ach Offset Enable
ACHOFFSET	QUANT	0	Ach Offset (V)
ACHFILTER	IQUANT	3	Ach Filter
IERANGELOWERLIMIT	IQUANT	2	I/E Range Lower Limit
IERANGEMODE	TOGGLE	F	I/E AutoRange
IERANGE	IQUANT	11	I/E Range
POSFEEDENABLE	TOGGLE	F	Positive Feedback IR Comp
POSFEEDRESISTANCE	QUANT	0	Positive Feedback Resistance (ohm)
ACHSELECT	IQUANT	0	Ach Select
CABLEID	IQUANT	13	Cable ID
DCCALDATE	LABEL	9/10/2021	DC Calibration Date
ACCALDATE	LABEL	9/10/2021	AC Calibration Date
THERMOSELECT	IQUANT	1	Thermo Select
FRAMEWORKVERSION	QUANT	6.33	Framework Version
INSTRUMENTVERSION	LABEL	3.50	Instrument Version
COMPLIANCEVOLTAGE	IQUANT	0	Compliance Voltage
ZCURVE	TABLE
	Pt	Time	Freq	Zreal	Zimag	Zsig	Zmod	Zphz	Idc	Vdc	IERange
	#	s	Hz	ohm	ohm	V	ohm	°	A	V	#
	0	17	300046.9	1306.278	-3267.804	1	3519.219	-68.21133	5.463029E-006	0.0012176	9
	1	31	238359.4	1752.386	-3865.189	1	4243.883	-65.61157	-1.408711E-005	0.0014331	9
	2	51	189328.1	2699.456	-4620.735	1	5351.473	-59.70632	-9.201086E-005	0.0020978	9
	3	63	150421.9	4095.5	-5668.086	1	6992.876	-54.14985	-3.323844E-005	-0.0008967	9
	4	73	119484.4	4355.026	-5805.104	1	7257.099	-53.12253	7.449841E-006	-0.0175147	8
	5	80	94921.88	5721.232	-6368.566	1	8561.024	-48.06491	-1.678625E-005	0.0004866	8
	6	88	75421.88	6989.959	-6784.653	1	9741.2	-44.14609	6.03108E-006	-0.0078107	8
	7	96	59859.37	8591.229	-6939.576	1	11043.86	-38.92959	-2.100794E-005	0.0026229	8
	8	104	47578.12	10177.33	-6878.706	1	12283.92	-34.05417	2.560187E-005	-0.0061938	8
	9	111	37828.12	11863.17	-6949.267	1	13748.71	-30.36114	-2.084778E-005	0.0025678	8
	10	120	30046.88	13199.57	-6405.704	1	14671.8	-25.88713	2.617049E-005	-0.0082438	8
	11	128	23859.38	14456.19	-5812.972	1	15581.14	-21.90553	-1.678737E-005	0.0004478	8
	12	134	18984.38	15723.95	-5325.281	1	16601.25	-18.70986	-2.399739E-005	0.004889	8
	13	142	15046.87	16813.12	-4587.108	1	17427.63	-15.26055	9.848054E-006	0.0025944	8
	14	148	11953.13	17872.69	-3538.213	1	18219.55	-11.19792	-6.70567E-006	0.0215749	7
	15	152	9515.62	18407.6	-3008.377	1	18651.81	-9.281862	4.719338E-006	-0.0023709	7
	16	156	7546.875	19096.59	-2551.434	1	19266.29	-7.610035	-3.166403E-006	0.022431	7
	17	161	5928.309	19426.63	-2086.113	1	19538.31	-6.129176	6.198327E-006	-0.0109285	7
	18	165	4733.456	20083.36	-1892.14	1	20172.3	-5.382196	3.008346E-006	-0.0230568	7
	19	169	3796.875	20421.74	-1699.676	1	20492.35	-4.75769	6.592946E-007	0.0134696	7
	20	174	2987.132	20742.42	-1487.887	1	20795.71	-4.102891	-6.704919E-006	0.0216447	7
	21	179	2390.625	21357.82	-1298.698	1	21397.27	-3.479683	-6.578087E-006	0.0213307	7
	22	183	1884.191	22152.79	-1452.189	1	22200.33	-3.750564	-5.179229E-006	0.0036712	7
	23	187	1516.544	22385.21	-1112.527	1	22412.84	-2.845212	3.015305E-006	-0.0231034	7
	24	192	1193.986	22858.88	-992.455	1	22880.41	-2.486028	-3.37553E-006	-0.0045805	7
	25	196	946.5144	23575.73	-995.776	1	23596.75	-2.418583	4.788866E-006	-0.0025549	7
	26	199	751.7689	25311.3	-1886.24	1	25381.49	-4.261899	1.438483E-005	-0.0096206	8
	27	204	597.4265	23865.72	-920.826	1	23883.48	-2.209583	6.750172E-007	0.0135187	7
	28	207	477.4305	24692.53	-1294.429	1	24726.44	-3.000806	-8.35601E-008	-0.0001409	7
	29	211	376.6741	25077.04	-1390.026	1	25115.53	-3.172672	-8.934627E-008	-8.011981E-005	7
	30	213	298.2954	25496.57	-1499.694	1	25540.64	-3.366227	-8.940991E-008	-7.386984E-005	7
	31	215	237.7717	25942.15	-1633.708	1	25993.54	-3.603446	-8.829808E-008	-0.0001509	7
	32	218	189.0121	26432.65	-1771.352	1	26491.93	-3.833874	-8.953702E-008	-0.0001124	7
	33	220	150.2404	26946.55	-1923.897	1	27015.15	-4.083805	-8.897297E-008	-0.0001613	7
	34	223	119.1737	27485.13	-2077.99	1	27563.57	-4.323574	-9.538725E-008	-5.944504E-005	7
	35	225	95.0169	28049.28	-2240.111	1	28138.59	-4.566144	-8.660069E-008	-0.0001289	7
	36	228	75.60484	28650.5	-2418.072	1	28752.36	-4.824271	-8.229529E-008	-0.0001279	7
	37	230	54.50582	29441.41	-2685.695	1	29563.65	-5.212192	-8.643545E-008	-0.0001419	7
	38	233	45.95588	30003.9	-2858.76	1	30139.78	-5.442689	-9.282491E-008	-0.0001443	7
	39	235	37.20238	30636.3	-3095.333	1	30792.27	-5.76929	-9.677196E-008	-0.0001069	7
	40	237	30.04808	31326.7	-3341.345	1	31504.39	-6.088223	-1.038061E-007	-8.725758E-005	7
	41	240	23.91582	32067.08	-3625.715	1	32271.4	-6.450841	-9.233527E-008	-0.0000984	7
	42	242	18.60119	32868.32	-4006.133	1	33111.56	-6.949181	-8.935508E-008	-0.0001445	7
	43	244	15.02404	33669.54	-4300.857	1	33943.12	-7.279388	-1.068469E-007	-8.087066E-005	7
	44	247	12.01923	34498.25	-4735.44	1	34821.74	-7.815924	-7.505534E-008	-0.0001156	7
	45	249	9.450605	35493.99	-5178.996	1	35869.84	-8.301553	-7.454897E-008	-8.113471E-005	7
	46	252	7.512019	36522.33	-5762.323	1	36974.11	-8.965951	-8.899147E-008	-0.0001648	7
	47	254	5.978954	37695.41	-6348.047	1	38226.19	-9.55913	-3.244655E-009	-9.400385E-005	6
	48	257	4.734848	38979.31	-7090.083	1	39618.89	-10.30902	-2.142064E-008	-0.0002023	6
	49	261	3.75601	40347.08	-7913.259	1	41115.77	-11.09655	5.493273E-009	-0.0001479	6
	50	264	3.004808	41724.57	-8804.54	1	42643.41	-11.9155	-2.290092E-008	-7.055267E-005	6
	51	268	2.372217	43494.96	-9875.96	1	44602.08	-12.79266	1.878058E-009	-0.0001017	6
	52	272	1.878005	45330.59	-11177.45	1	46688.3	-13.85148	1.542369E-010	-0.0001623	6
	53	277	1.512097	47302.4	-12608.54	1	48953.98	-14.92528	-6.731807E-009	-4.605618E-005	6
	54	282	1.201923	49733.76	-14508.94	1	51806.91	-16.26366	1.908493E-009	-0.0001388	6
	55	288	0.956633	52485.73	-16651.66	1	55063.86	-17.60218	-3.386106E-008	-0.0006845	6
