EXPLAIN
TAG	EISPOT
TITLE	LABEL	Potentiostatic EIS	Test Identifier
DATE	LABEL	11/21/2021	Date
TIME	LABEL	15:33:47	Time
NOTES	NOTES	1	Notes...
	
PSTAT	PSTAT	REF3000-16137	Potentiostat
VDC	POTEN	0.00000E+000	T	DC Voltage (V)
FREQINIT	QUANT	3.00000E+005	Initial Freq. (Hz)
FREQFINAL	QUANT	1.00000E+000	Final Freq. (Hz)
PTSPERDEC	QUANT	1.00000E+001	Points/decade
VAC	QUANT	5.00000E+001	AC Voltage (mV rms)
AREA	QUANT	1.00000E+000	Sample Area (cm^2)
SPEED	SELECTOR	2	Optimize for:
ZGUESS	QUANT	1.00000E+003	Estimated Z (ohms)
EOC	QUANT	0	Open Circuit (V)
SEQUENCER	TOGGLE	TRUE	Run as Sequence
PSTATMODEL	IQUANT	5	Pstat Model
PSTATSECTION	LABEL	REF3000-16137	Pstat Section
PSTATSERIALNO	LABEL	16137	Pstat Serial Number
CTRLMODE	IQUANT	1	Control Mode
IESTAB	IQUANT	0	I/E Stability
CASPEED	IQUANT	1	Control Amp Speed
CONVENTION	IQUANT	1	Current Convention
ICHRANGE	IQUANT	2	Ich Range
ICHRANGEMODE	TOGGLE	F	Ich Auto Range
ICHOFFSETENABLE	TOGGLE	T	Ich Offset Enable
ICHOFFSET	QUANT	0	Ich Offset (V)
ICHFILTER	IQUANT	3	Ich Filter
VCHRANGE	IQUANT	2	Vch Range
VCHRANGEMODE	TOGGLE	F	Vch Auto Range
VCHOFFSETENABLE	TOGGLE	T	Vch Offset Enable
VCHOFFSET	QUANT	0	Vch Offset (V)
VCHFILTER	IQUANT	3	Vch Filter
ACHRANGE	IQUANT	2	Ach Range
ACHOFFSETENABLE	TOGGLE	F	Ach Offset Enable
ACHOFFSET	QUANT	0	Ach Offset (V)
ACHFILTER	IQUANT	3	Ach Filter
IERANGELOWERLIMIT	IQUANT	2	I/E Range Lower Limit
IERANGEMODE	TOGGLE	F	I/E AutoRange
IERANGE	IQUANT	11	I/E Range
POSFEEDENABLE	TOGGLE	F	Positive Feedback IR Comp
POSFEEDRESISTANCE	QUANT	0	Positive Feedback Resistance (ohm)
ACHSELECT	IQUANT	0	Ach Select
CABLEID	IQUANT	13	Cable ID
DCCALDATE	LABEL	9/10/2021	DC Calibration Date
ACCALDATE	LABEL	9/10/2021	AC Calibration Date
THERMOSELECT	IQUANT	1	Thermo Select
FRAMEWORKVERSION	QUANT	6.33	Framework Version
INSTRUMENTVERSION	LABEL	3.50	Instrument Version
COMPLIANCEVOLTAGE	IQUANT	0	Compliance Voltage
ZCURVE	TABLE
	Pt	Time	Freq	Zreal	Zimag	Zsig	Zmod	Zphz	Idc	Vdc	IERange
	#	s	Hz	ohm	ohm	V	ohm	°	A	V	#
	0	17	300046.9	433.7041	-51.78681	1	436.7849	-6.809213	1.903722E-005	-0.0010284	9
	1	27	238359.4	447.9584	-46.39169	1	450.3542	-5.912617	-1.054705E-005	0.0012428	9
	2	35	189328.1	463.1421	-42.04853	1	465.047	-5.187644	1.051992E-005	-0.0019568	9
	3	42	150421.9	468.9959	-36.12216	1	470.3849	-4.404238	1.818677E-005	-0.0011755	9
	4	48	119484.4	479.0861	-15.37966	1	479.3329	-1.838682	3.159186E-005	-0.0038255	8
	5	54	94921.88	485.8416	-15.64968	1	486.0936	-1.844944	-1.364598E-005	0.0021955	8
	6	57	75421.88	489.0554	-13.98117	1	489.2552	-1.637533	-8.747673E-006	0.0054959	8
	7	59	59859.37	492.8004	-14.32997	1	493.0087	-1.665614	1.491567E-005	-0.0030661	8
	8	62	47578.12	497.0758	-15.56983	1	497.3196	-1.794081	1.590888E-006	0.0029527	8
	9	64	37828.12	502.7223	-18.3003	1	503.0552	-2.084784	5.713044E-006	0.0012884	8
	10	67	30046.88	505.991	-16.73701	1	506.2677	-1.894521	-1.376742E-005	0.0023069	8
	11	69	23859.38	509.9982	-18.30853	1	510.3267	-2.05599	1.438706E-005	-0.0059932	8
	12	72	18984.38	516.0599	-20.45286	1	516.4651	-2.2696	-1.477045E-005	0.0054294	8
	13	74	15046.87	522.752	-20.5059	1	523.1541	-2.24638	2.336094E-006	-0.0044057	8
	14	76	11953.13	527.9205	-23.70252	1	528.4523	-2.570734	2.051605E-006	-0.0042343	8
	15	79	9515.62	533.7396	-27.88041	1	534.4672	-2.990184	-1.380459E-005	0.0022361	8
	16	81	7546.875	540.7579	-31.14779	1	541.6542	-3.296609	1.113903E-006	-0.0040271	8
	17	84	5928.309	547.8294	-33.95098	1	548.8804	-3.546293	-1.170154E-005	0.0009888	8
	18	86	4733.456	553.7835	-39.66968	1	555.2025	-4.097322	-8.733236E-006	-0.0005507	8
	19	89	3796.875	564.4647	-41.60361	1	565.9958	-4.215337	-1.566004E-005	0.0033481	8
	20	91	2987.132	572.9556	-49.16923	1	575.0615	-4.904924	-8.250346E-006	-0.0007582	8
	21	94	2390.625	583.3796	-54.44964	1	585.9152	-5.332244	8.109231E-006	0.000726	8
	22	96	1884.191	594.24	-57.22783	1	596.9893	-5.500862	1.294533E-005	-0.0014836	8
	23	98	1516.544	605.5526	-66.71181	1	609.2162	-6.286743	-4.21058E-006	0.0048206	8
	24	101	1193.986	619.4932	-74.89326	1	624.0038	-6.893287	-3.205496E-006	-0.0027556	8
	25	103	946.5144	631.8351	-83.62355	1	637.3448	-7.539295	1.291124E-005	-0.001417	8
	26	106	751.7689	648.6557	-90.7088	1	654.9674	-7.960687	1.497511E-005	-0.0062381	8
	27	108	597.4265	662.789	-103.086	1	670.7578	-8.840587	2.514728E-006	-0.0045991	8
	28	111	477.4305	680.6162	-112.6607	1	689.8774	-9.398805	-1.472166E-007	-0.0001361	8
	29	113	376.6741	699.4625	-124.7063	1	710.4924	-10.10897	-1.75374E-007	-0.0001196	8
	30	115	298.2954	719.4803	-137.8932	1	732.5753	-10.84955	-1.934629E-007	-0.0001134	8
	31	118	237.7717	740.614	-152.2685	1	756.105	-11.61799	-1.554638E-007	-0.0001202	8
	32	120	189.0121	763.3371	-168.6157	1	781.7383	-12.4562	-1.7282E-007	-0.0001117	8
	33	124	150.2404	789.5071	-187.5142	1	811.4697	-13.36065	-1.952404E-007	-0.0001066	8
	34	126	119.1737	815.5693	-209.0557	1	841.9368	-14.37713	-1.599113E-007	-0.0001105	8
	35	128	95.0169	843.0513	-233.5029	1	874.7909	-15.48133	-1.582373E-007	-0.0001111	8
	36	131	75.60484	872.8681	-262.2398	1	911.4102	-16.72209	-1.340074E-007	-0.0001216	8
	37	133	54.50582	917.1414	-311.8447	1	968.708	-18.77897	-1.205692E-007	-0.0001602	8
	38	136	45.95588	944.8987	-343.1518	1	1005.279	-19.95913	-2.318907E-007	-0.0001137	8
	39	138	37.20238	979.794	-387.7563	1	1053.732	-21.59133	-2.129551E-007	-0.0001475	8
	40	141	30.04808	1018.556	-440.3854	1	1109.683	-23.38184	-9.430612E-008	-0.000135	8
	41	143	23.91582	1063.275	-506.7982	1	1177.879	-25.48428	-1.874656E-007	-0.0001199	8
	42	145	18.60119	1115.87	-595.0414	1	1264.611	-28.06891	-3.539988E-007	-0.0001528	8
	43	148	15.02404	1169.074	-683.7067	1	1354.323	-30.32027	-6.705572E-008	-0.0000972	8
	44	150	12.01923	1227.584	-794.6501	1	1462.338	-32.91613	-2.409091E-007	-0.0001176	8
	45	154	9.450605	1301.467	-936.9598	1	1603.656	-35.75108	-2.58416E-008	-0.000126	8
	46	156	7.512019	1377.69	-1102.143	1	1764.299	-38.6596	-4.710306E-008	-0.0001513	8
	47	159	5.978954	1463.438	-1301.511	1	1958.464	-41.64837	-1.002638E-007	-0.0001187	8
	48	162	4.734848	1564.846	-1546.218	1	2199.894	-44.65694	-1.643549E-007	-9.2682E-005	8
	49	165	3.75601	1680.188	-1843.756	1	2494.487	-47.65755	-1.42805E-007	-0.000117	8
	50	168	3.004808	1806.289	-2188.626	1	2837.739	-50.4669	-1.981363E-007	-8.14067E-005	8
	51	172	2.372217	1962.642	-2636.447	1	3286.763	-53.33501	-1.677847E-007	-6.189725E-005	8
	52	176	1.878005	2146.885	-3173.738	1	3831.674	-55.92348	-1.776705E-007	-0.0001416	8
	53	181	1.512097	2358.535	-3787.907	1	4462.167	-58.09161	-2.980477E-008	-3.293309E-006	7
	54	187	1.201923	2615.05	-4576.263	1	5270.737	-60.25472	-1.722649E-008	-0.0001214	7
	55	193	0.956633	2922.975	-5527.556	1	6252.812	-62.13008	-6.894962E-008	-0.000656	7
