EXPLAIN
TAG	EISPOT
TITLE	LABEL	Potentiostatic EIS	Test Identifier
DATE	LABEL	11/21/2021	Date
TIME	LABEL	14:12:00	Time
NOTES	NOTES	1	Notes...
	
PSTAT	PSTAT	REF3000-16137	Potentiostat
VDC	POTEN	0.00000E+000	T	DC Voltage (V)
FREQINIT	QUANT	3.00000E+005	Initial Freq. (Hz)
FREQFINAL	QUANT	1.00000E+000	Final Freq. (Hz)
PTSPERDEC	QUANT	1.00000E+001	Points/decade
VAC	QUANT	5.00000E+001	AC Voltage (mV rms)
AREA	QUANT	1.00000E+000	Sample Area (cm^2)
SPEED	SELECTOR	2	Optimize for:
ZGUESS	QUANT	1.00000E+003	Estimated Z (ohms)
EOC	QUANT	0	Open Circuit (V)
SEQUENCER	TOGGLE	TRUE	Run as Sequence
PSTATMODEL	IQUANT	5	Pstat Model
PSTATSECTION	LABEL	REF3000-16137	Pstat Section
PSTATSERIALNO	LABEL	16137	Pstat Serial Number
CTRLMODE	IQUANT	1	Control Mode
IESTAB	IQUANT	0	I/E Stability
CASPEED	IQUANT	1	Control Amp Speed
CONVENTION	IQUANT	1	Current Convention
ICHRANGE	IQUANT	2	Ich Range
ICHRANGEMODE	TOGGLE	F	Ich Auto Range
ICHOFFSETENABLE	TOGGLE	T	Ich Offset Enable
ICHOFFSET	QUANT	0	Ich Offset (V)
ICHFILTER	IQUANT	3	Ich Filter
VCHRANGE	IQUANT	2	Vch Range
VCHRANGEMODE	TOGGLE	F	Vch Auto Range
VCHOFFSETENABLE	TOGGLE	T	Vch Offset Enable
VCHOFFSET	QUANT	0	Vch Offset (V)
VCHFILTER	IQUANT	3	Vch Filter
ACHRANGE	IQUANT	2	Ach Range
ACHOFFSETENABLE	TOGGLE	F	Ach Offset Enable
ACHOFFSET	QUANT	0	Ach Offset (V)
ACHFILTER	IQUANT	3	Ach Filter
IERANGELOWERLIMIT	IQUANT	2	I/E Range Lower Limit
IERANGEMODE	TOGGLE	F	I/E AutoRange
IERANGE	IQUANT	11	I/E Range
POSFEEDENABLE	TOGGLE	F	Positive Feedback IR Comp
POSFEEDRESISTANCE	QUANT	0	Positive Feedback Resistance (ohm)
ACHSELECT	IQUANT	0	Ach Select
CABLEID	IQUANT	13	Cable ID
DCCALDATE	LABEL	9/10/2021	DC Calibration Date
ACCALDATE	LABEL	9/10/2021	AC Calibration Date
THERMOSELECT	IQUANT	1	Thermo Select
FRAMEWORKVERSION	QUANT	6.33	Framework Version
INSTRUMENTVERSION	LABEL	3.50	Instrument Version
COMPLIANCEVOLTAGE	IQUANT	0	Compliance Voltage
ZCURVE	TABLE
	Pt	Time	Freq	Zreal	Zimag	Zsig	Zmod	Zphz	Idc	Vdc	IERange
	#	s	Hz	ohm	ohm	V	ohm	°	A	V	#
	0	10	300046.9	1.723329	2.266729	1	2.847442	52.75531	-7.252068E-005	-0.000655	11
	1	13	238359.4	1.809218	1.613331	1	2.424068	41.7243	-6.093192E-005	-0.0010768	12
	2	17	189328.1	1.751987	1.253288	1	2.15411	35.57812	-0.0001298	-0.0008582	12
	3	21	150421.9	1.673833	1.057243	1	1.979768	32.27773	-0.0000957	-0.0001514	11
	4	23	119484.4	1.674816	0.789699	1	1.851657	25.24453	1.157164E-005	-8.614504E-005	11
	5	26	94921.88	1.686597	0.5779217	1	1.782864	18.9143	-5.075394E-005	0.0000962	11
	6	28	75421.88	1.701355	0.4016753	1	1.748128	13.2838	-7.413064E-005	0.000134	11
	7	31	59859.37	1.720179	0.2529083	1	1.738671	8.363956	-1.973674E-005	0.0002416	11
	8	33	47578.12	1.740857	0.1279591	1	1.745553	4.203882	-2.416591E-005	0.0003006	11
	9	36	37828.12	1.763363	0.0172674	1	1.763447	0.56104	-2.081472E-005	0.0003284	11
	10	38	30046.88	1.787703	-0.0843851	1	1.789694	-2.70253	-3.079059E-005	0.0003612	11
	11	41	23859.38	1.813882	-0.1816881	1	1.822959	-5.719973	-3.662965E-005	0.0003781	11
	12	43	18984.38	1.842385	-0.2778294	1	1.863216	-8.575519	-2.993505E-005	0.0003287	11
	13	47	15046.87	1.872178	-0.3804429	1	1.910442	-11.4866	-2.525586E-005	0.0003615	11
	14	50	11953.13	1.905008	-0.4914243	1	1.967372	-14.46492	-8.963321E-005	0.000342	11
	15	52	9515.62	1.939739	-0.6155747	1	2.035072	-17.6068	-0.0001022	0.0003411	11
	16	54	7546.875	1.978048	-0.7618555	1	2.119693	-21.06445	-3.427052E-005	0.0003856	11
	17	57	5928.309	2.021016	-0.9447075	1	2.230914	-25.05335	-7.025195E-005	0.000368	11
	18	59	4733.456	2.065308	-1.150891	1	2.364328	-29.1287	-2.731795E-005	0.0003745	11
	19	61	3796.875	2.115188	-1.396191	1	2.534436	-33.42795	-7.695668E-005	0.0003774	11
	20	64	2987.132	2.176198	-1.723344	1	2.775923	-38.37591	-2.601398E-005	0.0004017	11
	21	66	2390.625	2.244522	-2.100469	1	3.07406	-43.10113	-1.913255E-005	0.0003937	11
	22	68	1884.191	2.336195	-2.595718	1	3.492214	-48.0122	-8.429777E-005	0.000361	11
	23	71	1516.544	2.440666	-3.152206	1	3.986634	-52.25036	-8.882627E-005	0.0003637	11
	24	73	1193.986	2.59305	-3.907481	1	4.689597	-56.43128	-7.206127E-007	-0.0001424	10
	25	75	946.5144	2.782043	-4.812237	1	5.558542	-59.967	-2.557139E-005	-0.000127	10
	26	78	751.7689	3.032358	-5.905121	1	6.638196	-62.8189	-1.509421E-005	-0.0001119	10
	27	80	597.4265	3.362111	-7.229537	1	7.973079	-65.05912	-2.97656E-005	-0.0001138	10
	28	82	477.4305	3.78546	-8.795689	1	9.57569	-66.71408	-5.286208E-006	-0.0001045	10
	29	85	376.6741	4.363108	-10.77769	1	11.62736	-67.96054	-5.452741E-006	-0.0001077	10
	30	87	298.2954	5.09676	-13.11848	1	14.07379	-68.76797	-4.555257E-006	-0.0001097	10
	31	89	237.7717	5.99684	-15.81716	1	16.91581	-69.23653	-5.269864E-006	-0.0001053	10
	32	92	189.0121	7.121193	-19.0393	1	20.32747	-69.4929	-4.919157E-006	-0.0001005	10
	33	94	150.2404	8.471143	-22.82645	1	24.34763	-69.63956	-5.060437E-006	-0.0001059	10
	34	96	119.1737	10.0567	-27.34089	1	29.13179	-69.80515	-5.893933E-006	-0.0001087	10
	35	99	95.0169	11.7951	-32.56956	1	34.63958	-70.09209	-5.83602E-006	-0.0001113	10
	36	101	75.60484	13.72439	-38.90526	1	41.25504	-70.56897	-6.147852E-006	-0.0001133	10
	37	104	54.50582	16.7843	-50.40713	1	53.12807	-71.58355	-5.128834E-006	-0.0001285	9
	38	106	45.95588	18.59851	-57.95831	1	60.86929	-72.20885	-4.642133E-006	-0.000128	9
	39	109	37.20238	21.15132	-69.13876	1	72.30177	-72.98978	-4.83853E-006	-0.0001262	9
	40	111	30.04808	24.24755	-82.96986	1	86.4404	-73.70924	-4.955387E-006	-0.0001302	9
	41	113	23.91582	28.42952	-101.1988	1	105.1163	-74.30849	-5.152739E-006	-0.0001285	9
	42	116	18.60119	34.4163	-126.0773	1	130.6904	-74.73153	-5.164307E-006	-0.0001218	9
	43	118	15.02404	41.27619	-152.1247	1	157.625	-74.81936	-4.538706E-006	-0.0001126	9
	44	120	12.01923	50.81775	-185.0449	1	191.896	-74.64378	-4.684138E-006	-0.0001225	9
	45	123	9.450605	64.86934	-228.2285	1	237.2684	-74.13327	-4.798614E-006	-0.0001313	9
	46	125	7.512019	83.64677	-278.238	1	290.5395	-73.26763	-4.694497E-006	-0.0001237	9
	47	128	5.978954	108.9727	-336.938	1	354.1218	-72.07772	-4.571501E-006	-0.000163	9
	48	131	4.734848	144.996	-407.9314	1	432.934	-70.43264	-4.733424E-006	-0.0001186	9
	49	134	3.75601	192.5394	-486.7545	1	523.4514	-68.41835	-4.600045E-006	-0.0001205	8
	50	138	3.004808	254.2299	-573.4761	1	627.3019	-66.09163	-4.662132E-006	-8.586464E-005	8
	51	141	2.372217	341.3287	-673.4941	1	755.0494	-63.12399	-4.572054E-006	-4.121077E-005	8
	52	146	1.878005	450.929	-777.3823	1	898.6992	-59.88366	-4.729128E-006	-0.0001322	8
	53	150	1.512097	574.7685	-871.2899	1	1043.793	-56.58815	-4.59455E-006	-0.0001307	8
	54	156	1.201923	735.3509	-964.54	1	1212.88	-52.67863	-4.578177E-006	-0.0001308	8
	55	162	0.956633	916.3274	-1041.265	1	1387.043	-48.65179	-4.767938E-006	-0.0006551	8
