EXPLAIN
TAG	EISPOT
TITLE	LABEL	Potentiostatic EIS	Test Identifier
DATE	LABEL	11/21/2021	Date
TIME	LABEL	15:14:02	Time
NOTES	NOTES	1	Notes...
	
PSTAT	PSTAT	REF3000-16137	Potentiostat
VDC	POTEN	0.00000E+000	T	DC Voltage (V)
FREQINIT	QUANT	3.00000E+005	Initial Freq. (Hz)
FREQFINAL	QUANT	1.00000E+000	Final Freq. (Hz)
PTSPERDEC	QUANT	1.00000E+001	Points/decade
VAC	QUANT	5.00000E+001	AC Voltage (mV rms)
AREA	QUANT	1.00000E+000	Sample Area (cm^2)
SPEED	SELECTOR	2	Optimize for:
ZGUESS	QUANT	1.00000E+003	Estimated Z (ohms)
EOC	QUANT	0	Open Circuit (V)
SEQUENCER	TOGGLE	TRUE	Run as Sequence
PSTATMODEL	IQUANT	5	Pstat Model
PSTATSECTION	LABEL	REF3000-16137	Pstat Section
PSTATSERIALNO	LABEL	16137	Pstat Serial Number
CTRLMODE	IQUANT	1	Control Mode
IESTAB	IQUANT	0	I/E Stability
CASPEED	IQUANT	1	Control Amp Speed
CONVENTION	IQUANT	1	Current Convention
ICHRANGE	IQUANT	2	Ich Range
ICHRANGEMODE	TOGGLE	F	Ich Auto Range
ICHOFFSETENABLE	TOGGLE	T	Ich Offset Enable
ICHOFFSET	QUANT	0	Ich Offset (V)
ICHFILTER	IQUANT	3	Ich Filter
VCHRANGE	IQUANT	2	Vch Range
VCHRANGEMODE	TOGGLE	F	Vch Auto Range
VCHOFFSETENABLE	TOGGLE	T	Vch Offset Enable
VCHOFFSET	QUANT	0	Vch Offset (V)
VCHFILTER	IQUANT	3	Vch Filter
ACHRANGE	IQUANT	2	Ach Range
ACHOFFSETENABLE	TOGGLE	F	Ach Offset Enable
ACHOFFSET	QUANT	0	Ach Offset (V)
ACHFILTER	IQUANT	3	Ach Filter
IERANGELOWERLIMIT	IQUANT	2	I/E Range Lower Limit
IERANGEMODE	TOGGLE	F	I/E AutoRange
IERANGE	IQUANT	11	I/E Range
POSFEEDENABLE	TOGGLE	F	Positive Feedback IR Comp
POSFEEDRESISTANCE	QUANT	0	Positive Feedback Resistance (ohm)
ACHSELECT	IQUANT	0	Ach Select
CABLEID	IQUANT	13	Cable ID
DCCALDATE	LABEL	9/10/2021	DC Calibration Date
ACCALDATE	LABEL	9/10/2021	AC Calibration Date
THERMOSELECT	IQUANT	1	Thermo Select
FRAMEWORKVERSION	QUANT	6.33	Framework Version
INSTRUMENTVERSION	LABEL	3.50	Instrument Version
COMPLIANCEVOLTAGE	IQUANT	0	Compliance Voltage
ZCURVE	TABLE
	Pt	Time	Freq	Zreal	Zimag	Zsig	Zmod	Zphz	Idc	Vdc	IERange
	#	s	Hz	ohm	ohm	V	ohm	°	A	V	#
	0	7	300046.9	40.83658	1.267539	1	40.85625	1.777851	5.077828E-005	-0.0025222	9
	1	10	238359.4	41.21709	0.5890272	1	41.22129	0.8187496	3.682383E-005	-0.0012871	9
	2	14	189328.1	41.57616	-0.0484317	1	41.57619	-0.0667433	3.639302E-005	-0.001081	9
	3	16	150421.9	41.84156	-0.5430098	1	41.84509	-0.7435292	-1.351191E-005	-0.000777	9
	4	19	119484.4	42.28295	-1.142482	1	42.29838	-1.54775	3.514075E-006	0.000223	9
	5	21	94921.88	42.7504	-1.526879	1	42.77766	-2.045514	-1.17826E-005	1.515429E-005	9
	6	24	75421.88	43.16119	-2.015996	1	43.20824	-2.674258	-7.90287E-006	-0.000165	9
	7	26	59859.37	43.66772	-2.529357	1	43.74092	-3.315028	-3.863978E-006	-0.0003332	9
	8	29	47578.12	44.18564	-3.020437	1	44.28876	-3.910535	-8.735417E-006	-0.0001193	9
	9	31	37828.12	44.79772	-3.55929	1	44.93889	-4.542749	1.723665E-005	-0.0006017	9
	10	34	30046.88	45.45049	-4.101881	1	45.6352	-5.156941	1.818338E-005	-0.0006919	9
	11	36	23859.38	46.22069	-4.675481	1	46.45657	-5.77614	-1.545697E-005	0.0002033	9
	12	39	18984.38	47.01286	-5.253506	1	47.30548	-6.376131	-1.398701E-005	7.641927E-005	9
	13	41	15046.87	47.8506	-5.855672	1	48.20756	-6.976828	-1.924629E-006	0.000262	9
	14	43	11953.13	48.78093	-6.54538	1	49.2181	-7.642249	-1.40599E-005	0.0004249	9
	15	45	9515.62	49.83083	-7.253316	1	50.35595	-8.281743	1.793594E-005	-0.0005481	9
	16	48	7546.875	50.9842	-8.041576	1	51.61449	-8.96324	9.100497E-006	-0.0001885	9
	17	50	5928.309	52.22461	-8.897514	1	52.97712	-9.66866	-4.259038E-006	-0.0002729	9
	18	52	4733.456	53.50845	-9.78898	1	54.39649	-10.3672	1.68455E-005	-0.0004425	9
	19	55	3796.875	54.87772	-10.72226	1	55.91539	-11.05543	1.949924E-006	-0.0004626	9
	20	57	2987.132	56.43177	-11.85793	1	57.66415	-11.86684	1.235697E-005	-0.000672	9
	21	59	2390.625	58.00521	-13.0509	1	59.45528	-12.68013	1.560414E-006	-0.000454	9
	22	62	1884.191	59.81171	-14.43627	1	61.52923	-13.56949	-8.4233E-006	0.0003683	9
	23	64	1516.544	61.47525	-15.96796	1	63.51522	-14.56059	-1.473287E-005	0.0003976	9
	24	66	1193.986	63.51383	-17.87863	1	65.98221	-15.72149	3.089598E-006	5.96227E-005	9
	25	69	946.5144	65.5725	-20.02679	1	68.56256	-16.98343	-1.549984E-005	0.0003593	9
	26	71	751.7689	67.83598	-22.57122	1	71.49252	-18.40395	1.489962E-005	-0.0003437	9
	27	74	597.4265	70.28822	-25.54996	1	74.78793	-19.97634	7.476346E-006	-0.0005999	9
	28	76	477.4305	72.85916	-29.06218	1	78.44149	-21.74615	5.276946E-007	-0.0001207	9
	29	78	376.6741	75.77472	-33.42426	1	82.81902	-23.8023	5.373302E-007	-0.0001238	9
	30	80	298.2954	78.98615	-38.57977	1	87.90456	-26.0326	5.933999E-007	-0.0001206	9
	31	83	237.7717	82.43766	-44.57354	1	93.71642	-28.39982	5.373064E-007	-0.0001215	9
	32	85	189.0121	86.32256	-51.81925	1	100.6818	-30.9763	5.018429E-007	-0.000119	9
	33	88	150.2404	90.71201	-60.50066	1	109.0367	-33.70143	5.640057E-007	-0.0001216	9
	34	90	119.1737	95.694	-71.01149	1	119.1636	-36.57795	5.268315E-007	-0.0001181	9
	35	92	95.0169	101.2098	-83.35718	1	131.1176	-39.47514	5.212808E-007	-0.0001187	9
	36	95	75.60484	107.4654	-98.3455	1	145.6731	-42.46276	5.329647E-007	-0.000124	9
	37	98	54.50582	117.9073	-125.2501	1	172.0166	-46.72966	5.106237E-007	-0.0001255	9
	38	100	45.95588	124.4141	-142.529	1	189.1914	-48.88217	4.307079E-007	-0.0001206	9
	39	102	37.20238	133.4719	-167.5299	1	214.1985	-51.45549	5.697977E-007	-0.0001186	9
	40	105	30.04808	144.0401	-197.6858	1	244.596	-53.92175	6.284504E-007	-0.000127	9
	41	107	23.91582	157.3581	-236.4043	1	283.9869	-56.35102	6.144553E-007	-0.0001181	9
	42	110	18.60119	174.7616	-288.3297	1	337.1581	-58.77921	2.261113E-007	-0.0001206	9
	43	112	15.02404	192.9514	-341.7907	1	392.4935	-60.55394	6.319634E-007	-0.0001103	9
	44	114	12.01923	214.7514	-406.8659	1	460.063	-62.17407	1.236456E-007	-0.000118	8
	45	117	9.450605	244.2957	-492.9184	1	550.1353	-63.63649	5.15807E-007	-0.0001104	8
	46	119	7.512019	278.923	-592.0577	1	654.4695	-64.77451	4.69531E-007	-0.0001179	8
	47	122	5.978954	320.4954	-709.1332	1	778.1949	-65.67923	4.274861E-007	-0.0001087	8
	48	125	4.734848	372.0168	-852.5596	1	930.1904	-66.42581	3.430409E-007	-0.0001126	8
	49	128	3.75601	431.4534	-1020.424	1	1107.889	-67.0805	4.270418E-007	-9.047431E-005	8
	50	132	3.004808	497.3009	-1211.947	1	1310.009	-67.69008	3.574648E-007	-8.675028E-005	8
	51	135	2.372217	575.809	-1453.475	1	1563.376	-68.3885	3.50315E-007	-0.0001242	8
	52	141	1.878005	662.4524	-1749.76	1	1870.963	-69.26353	3.507025E-007	-0.0001043	8
	53	145	1.512097	748.6782	-2082.013	1	2212.532	-70.22175	3.653461E-007	-0.0002182	8
	54	151	1.201923	850.9735	-2514.501	1	2654.594	-71.30283	3.519385E-007	-0.0000983	8
	55	157	0.956633	964.426	-3046.859	1	3195.852	-72.43579	3.506242E-007	-0.0006672	8
