EXPLAIN
TAG	EISPOT
TITLE	LABEL	Potentiostatic EIS	Test Identifier
DATE	LABEL	8/21/2020	Date
TIME	LABEL	17:22:11	Time
NOTES	NOTES	1	Notes...
	
PSTAT	PSTAT	REF3000-16137	Potentiostat
VDC	POTEN	0.00000E+000	T	DC Voltage (V)
FREQINIT	QUANT	3.00000E+005	Initial Freq. (Hz)
FREQFINAL	QUANT	1.00000E+000	Final Freq. (Hz)
PTSPERDEC	QUANT	1.00000E+001	Points/decade
VAC	QUANT	5.00000E+001	AC Voltage (mV rms)
AREA	QUANT	1.00000E+000	Sample Area (cm^2)
SPEED	SELECTOR	2	Optimize for:
ZGUESS	QUANT	1.00000E+003	Estimated Z (ohms)
EOC	QUANT	0	Open Circuit (V)
SEQUENCER	TOGGLE	TRUE	Run as Sequence
PSTATMODEL	IQUANT	5	Pstat Model
PSTATSECTION	LABEL	REF3000-16137	Pstat Section
PSTATSERIALNO	LABEL	16137	Pstat Serial Number
CTRLMODE	IQUANT	1	Control Mode
IESTAB	IQUANT	0	I/E Stability
CASPEED	IQUANT	1	Control Amp Speed
CONVENTION	IQUANT	1	Current Convention
ICHRANGE	IQUANT	2	Ich Range
ICHRANGEMODE	TOGGLE	F	Ich Auto Range
ICHOFFSETENABLE	TOGGLE	T	Ich Offset Enable
ICHOFFSET	QUANT	0	Ich Offset (V)
ICHFILTER	IQUANT	3	Ich Filter
VCHRANGE	IQUANT	2	Vch Range
VCHRANGEMODE	TOGGLE	F	Vch Auto Range
VCHOFFSETENABLE	TOGGLE	T	Vch Offset Enable
VCHOFFSET	QUANT	0	Vch Offset (V)
VCHFILTER	IQUANT	3	Vch Filter
ACHRANGE	IQUANT	2	Ach Range
ACHOFFSETENABLE	TOGGLE	F	Ach Offset Enable
ACHOFFSET	QUANT	0	Ach Offset (V)
ACHFILTER	IQUANT	3	Ach Filter
IERANGELOWERLIMIT	IQUANT	2	I/E Range Lower Limit
IERANGEMODE	TOGGLE	F	I/E AutoRange
IERANGE	IQUANT	11	I/E Range
POSFEEDENABLE	TOGGLE	F	Positive Feedback IR Comp
POSFEEDRESISTANCE	QUANT	0	Positive Feedback Resistance (ohm)
ACHSELECT	IQUANT	0	Ach Select
CABLEID	IQUANT	13	Cable ID
DCCALDATE	LABEL	7/31/2020	DC Calibration Date
ACCALDATE	LABEL	7/31/2020	AC Calibration Date
THERMOSELECT	IQUANT	1	Thermo Select
FRAMEWORKVERSION	QUANT	6.33	Framework Version
INSTRUMENTVERSION	LABEL	3.50	Instrument Version
COMPLIANCEVOLTAGE	IQUANT	0	Compliance Voltage
ZCURVE	TABLE
	Pt	Time	Freq	Zreal	Zimag	Zsig	Zmod	Zphz	Idc	Vdc	IERange
	#	s	Hz	ohm	ohm	V	ohm	°	A	V	#
	0	23	300046.9	-63.8192	-4743.289	1	4743.718	-90.77084	5.013506E-005	4.724261E-005	9
	1	37	238359.4	87.54246	-5836.643	1	5837.299	-89.1407	2.717673E-005	-0.002097	9
	2	51	189328.1	237.5856	-7440.736	1	7444.528	-88.17114	2.636046E-005	0.0011183	9
	3	61	150421.9	639.2302	-9447.667	1	9469.268	-86.12926	8.457523E-005	-0.0033241	9
	4	69	119484.4	188.7301	-11944.02	1	11945.51	-89.09473	-2.832554E-005	-0.0009894	9
	5	81	94921.88	563.6068	-14527.4	1	14538.33	-87.77826	1.644416E-005	-0.0093587	8
	6	89	75421.88	582.4149	-18234.19	1	18243.49	-88.17055	8.176124E-006	-0.0078107	8
	7	98	59859.37	605.9009	-22489.5	1	22497.66	-88.45674	8.137853E-006	0.0042299	8
	8	107	47578.12	3935.311	-30091.64	1	30347.87	-82.54929	6.641338E-006	-0.0101014	7
	9	113	37828.12	4043.708	-37457.22	1	37674.86	-83.83848	3.417958E-006	-0.0250558	7
	10	120	30046.88	229.2321	-45924.48	1	45925.05	-89.71401	1.641137E-005	-0.0093898	8
	11	129	23859.38	4702.6	-57681.11	1	57872.48	-85.33913	2.782352E-006	0.0086526	7
	12	134	18984.38	4679.637	-72076.46	1	72228.22	-86.28522	1.367131E-006	-0.0203072	7
	13	140	15046.87	-2942.714	-86055.02	1	86105.31	-91.95851	2.313304E-005	-0.0096714	8
	14	147	11953.13	-6054.334	-108864.1	1	109032.3	-93.18315	-2.514565E-005	0.0111012	8
	15	155	9515.62	-3382.737	-142620.3	1	142660.4	-91.35871	1.720294E-005	0.0003777	8
	16	162	7546.875	-965.081	-181874	1	181876.5	-90.30402	7.771637E-006	-0.0246801	7
	17	169	5928.309	-6688.212	-230338.7	1	230435.8	-91.6632	-7.337994E-006	0.0237193	7
	18	175	4733.456	14549.7	-288331	1	288697.8	-87.1112	4.41364E-007	0.0165296	7
	19	182	3796.875	15978.8	-365963.9	1	366312.5	-87.49992	2.941929E-006	0.0088423	7
	20	188	2987.132	-78386.29	-450545.4	1	457313.4	-99.8696	-5.430039E-006	0.0269808	7
	21	195	2390.625	33619.79	-308931.9	1	310755.9	-83.78918	-2.555694E-006	0.0080787	8
	22	202	1884.191	27795.4	-400029.2	1	400993.7	-86.02528	8.14046E-006	-0.0077874	8
	23	210	1516.544	11419.12	-827105.6	1	827184.4	-89.20901	-7.432008E-006	0.0189368	7
	24	218	1193.986	-185710.7	-235257.4	1	299724.1	-128.2873	-1.594944E-005	0.0005545	8
	25	227	946.5144	-619485.3	-1094433	1	1257595	-119.5113	6.966055E-006	-0.027468	7
	26	233	751.7689	-138308.7	-153944.8	1	206950	-131.9375	8.116352E-006	-0.0077847	8
	27	240	597.4265	373462.3	-657482.9	1	756146.7	-60.40263	3.568449E-006	-0.0248871	7
	28	244	477.4305	66699.4	-2809628	1	2810419	-88.64008	-9.910859E-008	0.0006378	7
	29	249	376.6741	504655.9	-3655799	1	3690467	-82.14042	-1.101549E-009	0.0006958	5
	30	253	298.2954	543996.1	-4582302	1	4614480	-83.22971	-9.588134E-010	0.0006014	5
	31	256	237.7717	684248.9	-5614867	1	5656406	-83.05198	-9.382244E-010	0.0005987	5
	32	259	189.0121	639831.3	-7109848	1	7138580	-84.85767	-1.08757E-009	0.0006706	5
	33	261	150.2404	278479.8	-9148787	1	9153024	-88.25652	-9.884553E-010	0.0006202	5
	34	264	119.1737	-2537221	-1.037528E+007	1	1.068101E+007	-103.7417	-1.060939E-009	0.0006805	5
	35	267	95.0169	1070537	-1.390766E+007	1	1.39488E+007	-85.59836	-1.025422E-009	0.000684	5
	36	270	75.60484	1215789	-1.811175E+007	1	1.815251E+007	-86.15967	-1.017713E-009	0.0006769	5
	37	273	54.50582	2102066	-2.494189E+007	1	2.503031E+007	-85.18258	-1.092933E-009	0.0006669	5
	38	276	45.95588	3614399	-2.905683E+007	1	2.928077E+007	-82.90936	-1.02295E-009	0.0005893	5
	39	280	37.20238	2730872	-3.236219E+007	1	3.247721E+007	-85.17654	-1.106516E-009	0.0006804	5
	40	284	30.04808	3679504	-4.237145E+007	1	4.253091E+007	-85.03693	-1.086218E-009	0.0007173	5
	41	288	23.91582	6348227	-5.479701E+007	1	5.516351E+007	-83.39175	-7.895122E-011	0.0006062	4
	42	291	18.60119	-6689380	-5.706532E+007	1	5.745605E+007	-96.6859	-2.689287E-010	0.0006927	4
	43	295	15.02404	1.341154E+007	-8.708093E+007	1	8.810765E+007	-81.24453	-1.001899E-010	0.0006149	4
	44	299	12.01923	1.744355E+007	-1.056863E+008	1	1.071162E+008	-80.62782	-1.032883E-010	0.0006789	4
	45	302	9.450605	2.320068E+007	-1.256043E+008	1	1.277291E+008	-79.53471	-1.051656E-010	0.0005949	4
	46	306	7.512019	3.204734E+007	-1.651144E+008	1	1.681957E+008	-79.01593	-9.941208E-011	0.0007091	4
	47	311	5.978954	4.289194E+007	-2.047829E+008	1	2.092266E+008	-78.17036	-9.835899E-011	0.0006048	4
	48	316	4.734848	1.039446E+008	-2.583614E+008	1	2.784871E+008	-68.08396	-8.657585E-012	0.0006941	3
	49	321	3.75601	9.925214E+007	-2.927584E+008	1	3.091253E+008	-71.2721	-1.003385E-009	0.0006416	5
	50	329	3.004808	1.089652E+008	-3.459119E+008	1	3.626685E+008	-72.51512	-1.010505E-009	0.000599	5
	51	339	2.372217	2.19173E+008	-4.545852E+008	1	5.046627E+008	-64.2595	-9.185921E-012	0.0006682	3
	52	344	1.878005	2.908373E+008	-5.44372E+008	1	6.17193E+008	-61.8861	-8.884391E-012	0.0007099	3
	53	353	1.512097	3.737886E+008	-6.378016E+008	1	7.392623E+008	-59.62724	-8.971572E-012	0.0007512	3
	54	360	1.201923	4.877507E+008	-7.517268E+008	1	8.960993E+008	-57.02287	-8.77634E-012	0.0007279	3
	55	371	0.956633	6.305588E+008	-8.708606E+008	1	1.075176E+009	-54.09306	-9.122788E-012	8.027087E-005	3
