EXPLAIN
TAG	EISPOT
TITLE	LABEL	Potentiostatic EIS	Test Identifier
DATE	LABEL	8/21/2020	Date
TIME	LABEL	16:54:24	Time
NOTES	NOTES	1	Notes...
	
PSTAT	PSTAT	REF3000-16137	Potentiostat
VDC	POTEN	0.00000E+000	T	DC Voltage (V)
FREQINIT	QUANT	3.00000E+005	Initial Freq. (Hz)
FREQFINAL	QUANT	1.00000E+000	Final Freq. (Hz)
PTSPERDEC	QUANT	1.00000E+001	Points/decade
VAC	QUANT	5.00000E+001	AC Voltage (mV rms)
AREA	QUANT	1.00000E+000	Sample Area (cm^2)
SPEED	SELECTOR	2	Optimize for:
ZGUESS	QUANT	1.00000E+003	Estimated Z (ohms)
EOC	QUANT	0	Open Circuit (V)
SEQUENCER	TOGGLE	TRUE	Run as Sequence
PSTATMODEL	IQUANT	5	Pstat Model
PSTATSECTION	LABEL	REF3000-16137	Pstat Section
PSTATSERIALNO	LABEL	16137	Pstat Serial Number
CTRLMODE	IQUANT	1	Control Mode
IESTAB	IQUANT	0	I/E Stability
CASPEED	IQUANT	1	Control Amp Speed
CONVENTION	IQUANT	1	Current Convention
ICHRANGE	IQUANT	2	Ich Range
ICHRANGEMODE	TOGGLE	F	Ich Auto Range
ICHOFFSETENABLE	TOGGLE	T	Ich Offset Enable
ICHOFFSET	QUANT	0	Ich Offset (V)
ICHFILTER	IQUANT	3	Ich Filter
VCHRANGE	IQUANT	2	Vch Range
VCHRANGEMODE	TOGGLE	F	Vch Auto Range
VCHOFFSETENABLE	TOGGLE	T	Vch Offset Enable
VCHOFFSET	QUANT	0	Vch Offset (V)
VCHFILTER	IQUANT	3	Vch Filter
ACHRANGE	IQUANT	2	Ach Range
ACHOFFSETENABLE	TOGGLE	F	Ach Offset Enable
ACHOFFSET	QUANT	0	Ach Offset (V)
ACHFILTER	IQUANT	3	Ach Filter
IERANGELOWERLIMIT	IQUANT	2	I/E Range Lower Limit
IERANGEMODE	TOGGLE	F	I/E AutoRange
IERANGE	IQUANT	11	I/E Range
POSFEEDENABLE	TOGGLE	F	Positive Feedback IR Comp
POSFEEDRESISTANCE	QUANT	0	Positive Feedback Resistance (ohm)
ACHSELECT	IQUANT	0	Ach Select
CABLEID	IQUANT	13	Cable ID
DCCALDATE	LABEL	7/31/2020	DC Calibration Date
ACCALDATE	LABEL	7/31/2020	AC Calibration Date
THERMOSELECT	IQUANT	1	Thermo Select
FRAMEWORKVERSION	QUANT	6.33	Framework Version
INSTRUMENTVERSION	LABEL	3.50	Instrument Version
COMPLIANCEVOLTAGE	IQUANT	0	Compliance Voltage
ZCURVE	TABLE
	Pt	Time	Freq	Zreal	Zimag	Zsig	Zmod	Zphz	Idc	Vdc	IERange
	#	s	Hz	ohm	ohm	V	ohm	°	A	V	#
	0	22	300046.9	637.3893	-4690.111	1	4733.224	-82.26088	-2.955177E-005	-0.0012831	9
	1	35	238359.4	1063.041	-5921.121	1	6015.79	-79.82191	-2.469222E-005	0.0014994	9
	2	52	189328.1	1666.905	-6977.894	1	7174.229	-76.56476	2.114003E-005	-0.0003984	9
	3	59	150421.9	2174.688	-8395.492	1	8672.575	-75.47783	2.004057E-005	-0.0008398	9
	4	67	119484.4	3660.047	-10164.93	1	10803.78	-70.19776	4.105474E-005	-0.018609	8
	5	76	94921.88	5218.761	-12121.61	1	13197.3	-66.70649	8.198398E-006	0.0042474	8
	6	85	75421.88	7374.988	-14219.5	1	16018.26	-62.58635	-2.494152E-005	0.0110246	8
	7	94	59859.37	9805.45	-16607.14	1	19285.85	-59.44088	2.243868E-005	-0.0096696	8
	8	102	47578.12	13741.32	-18456.22	1	23009.91	-53.331	2.595362E-005	-0.0050891	8
	9	111	37828.12	20153.12	-18976.21	1	27681.12	-43.2772	6.418994E-006	-0.0094855	7
	10	119	30046.88	24651.02	-19569.2	1	31474.22	-38.44429	2.696665E-006	0.0088196	7
	11	126	23859.38	24937.91	-20246.97	1	32122.25	-39.07298	2.596466E-005	-0.0050876	8
	12	132	18984.38	30916.79	-19800.75	1	36714	-32.63765	-9.465156E-006	-0.0021498	8
	13	139	15046.87	36560.39	-16973.14	1	40308.18	-24.90306	-3.375227E-006	-0.0050987	7
	14	144	11953.13	39627.28	-16149.88	1	42791.82	-22.17308	-2.460144E-005	0.0108647	8
	15	151	9515.62	42568.13	-13594.01	1	44686.05	-17.71073	-3.904615E-006	0.0255683	7
	16	157	7546.875	44798.68	-11626.75	1	46282.86	-14.54917	-1.006902E-006	-0.0133548	7
	17	162	5928.309	46358	-10314.4	1	47491.59	-12.54367	6.511656E-006	-0.0096932	7
	18	168	4733.456	48060.25	-8690.37	1	48839.64	-10.24961	-5.271839E-006	0.0032428	7
	19	173	3796.875	49230.99	-7568.737	1	49809.4	-8.74018	-7.253494E-006	0.0231718	7
	20	179	2987.132	50904.57	-6216.358	1	51282.73	-6.962367	-3.283302E-006	-0.0056131	7
	21	184	2390.625	51074.17	-6188.555	1	51447.73	-6.908736	-6.598326E-006	0.0256138	7
	22	189	1884.191	52535.16	-4356.05	1	52715.45	-4.739943	-5.431778E-006	0.0266578	7
	23	195	1516.544	54863.4	-4489.383	1	55046.77	-4.677998	-9.91981E-007	-0.0136551	7
	24	200	1193.986	55999.76	-5047.141	1	56226.74	-5.150034	6.534075E-006	-0.0095879	7
	25	206	946.5144	55811.01	-5431.618	1	56074.69	-5.558613	3.249479E-007	0.0168733	7
	26	209	751.7689	55529.62	-3968.58	1	55671.25	-4.087853	-5.470876E-006	0.0267947	7
	27	213	597.4265	62052.87	-2794.44	1	62115.76	-2.578471	4.74528E-006	0.000281	7
	28	217	477.4305	59679.96	-5229.967	1	59908.69	-5.008238	-9.830768E-008	0.00066	7
	29	220	376.6741	60648	-5059.601	1	60858.68	-4.768896	-9.892031E-009	0.0006071	6
	30	223	298.2954	61484.76	-5928.967	1	61769.96	-5.507994	-9.351156E-009	0.0006097	6
	31	225	237.7717	62490.25	-6914.388	1	62871.61	-6.31395	-1.007447E-008	0.0006054	6
	32	228	189.0121	63590.79	-8124.317	1	64107.67	-7.280629	-1.0083E-008	0.0006018	6
	33	230	150.2404	64790.78	-9585.27	1	65495.97	-8.415408	-1.04873E-008	0.0006873	6
	34	232	119.1737	66287.88	-11470.81	1	67273.05	-9.81754	-9.841808E-009	0.0006913	6
	35	235	95.0169	67822.44	-13209.46	1	69096.84	-11.02126	-1.045492E-008	0.0006936	6
	36	237	75.60484	69627.09	-15467.66	1	71324.47	-12.52487	-1.065897E-008	0.0006759	6
	37	240	54.50582	72510.16	-19304.22	1	75035.84	-14.90794	-9.857716E-009	0.0006195	6
	38	242	45.95588	74458.3	-21518.81	1	77505.47	-16.11955	-1.031093E-008	0.0006143	6
	39	245	37.20238	76883.55	-24681	1	80747.95	-17.79756	-9.514141E-009	0.0006594	6
	40	247	30.04808	79620.7	-28403	1	84535.12	-19.63278	-1.001825E-008	0.000684	6
	41	250	23.91582	82734.64	-32893.89	1	89033.86	-21.68193	-1.257255E-008	0.0007321	6
	42	252	18.60119	86397.55	-38854.64	1	94732.35	-24.21437	-7.353098E-009	0.0006884	6
	43	254	15.02404	90016.69	-44680.57	1	100495.6	-26.3979	-7.432226E-009	0.0007148	6
	44	257	12.01923	93835.88	-52002.03	1	107281.8	-28.99437	-1.01439E-008	0.0006066	6
	45	259	9.450605	98282.4	-61408.21	1	115889.6	-31.99772	-9.108481E-009	0.0006109	6
	46	262	7.512019	102688	-72389.55	1	125638.7	-35.18178	-1.060495E-008	0.0006962	6
	47	264	5.978954	107437.8	-85711.48	1	137438.5	-38.58209	-9.470525E-009	0.0006203	6
	48	267	4.734848	112353.7	-102701.2	1	152219.9	-42.43007	-1.017354E-008	0.0006369	6
	49	271	3.75601	117846.2	-123730	1	170870.8	-46.39522	-1.01691E-008	0.0006933	6
	50	276	3.004808	124067.2	-149143.5	1	194001.2	-50.24412	-1.02451E-008	0.0006897	6
	51	283	2.372217	130907.9	-182741.5	1	224791.7	-54.38388	-1.044175E-008	0.000601	6
	52	287	1.878005	137994	-225272	1	264177.6	-58.50978	-1.003332E-008	0.0006558	6
	53	291	1.512097	145417.6	-273632.7	1	309872.7	-62.01232	-1.035299E-008	0.0006835	6
	54	297	1.201923	155660.3	-338359.6	1	372447.7	-65.29549	-9.985157E-009	0.0006688	6
	55	303	0.956633	168176.1	-418395.7	1	450930.3	-68.1021	-1.219494E-009	4.049495E-006	5
