EXPLAIN
TAG	EISPOT
TITLE	LABEL	Potentiostatic EIS	Test Identifier
DATE	LABEL	8/21/2020	Date
TIME	LABEL	17:46:58	Time
NOTES	NOTES	1	Notes...
	
PSTAT	PSTAT	REF3000-16137	Potentiostat
VDC	POTEN	0.00000E+000	T	DC Voltage (V)
FREQINIT	QUANT	3.00000E+005	Initial Freq. (Hz)
FREQFINAL	QUANT	1.00000E+000	Final Freq. (Hz)
PTSPERDEC	QUANT	1.00000E+001	Points/decade
VAC	QUANT	5.00000E+001	AC Voltage (mV rms)
AREA	QUANT	1.00000E+000	Sample Area (cm^2)
SPEED	SELECTOR	2	Optimize for:
ZGUESS	QUANT	1.00000E+003	Estimated Z (ohms)
EOC	QUANT	0	Open Circuit (V)
SEQUENCER	TOGGLE	TRUE	Run as Sequence
PSTATMODEL	IQUANT	5	Pstat Model
PSTATSECTION	LABEL	REF3000-16137	Pstat Section
PSTATSERIALNO	LABEL	16137	Pstat Serial Number
CTRLMODE	IQUANT	1	Control Mode
IESTAB	IQUANT	0	I/E Stability
CASPEED	IQUANT	1	Control Amp Speed
CONVENTION	IQUANT	1	Current Convention
ICHRANGE	IQUANT	2	Ich Range
ICHRANGEMODE	TOGGLE	F	Ich Auto Range
ICHOFFSETENABLE	TOGGLE	T	Ich Offset Enable
ICHOFFSET	QUANT	0	Ich Offset (V)
ICHFILTER	IQUANT	3	Ich Filter
VCHRANGE	IQUANT	2	Vch Range
VCHRANGEMODE	TOGGLE	F	Vch Auto Range
VCHOFFSETENABLE	TOGGLE	T	Vch Offset Enable
VCHOFFSET	QUANT	0	Vch Offset (V)
VCHFILTER	IQUANT	3	Vch Filter
ACHRANGE	IQUANT	2	Ach Range
ACHOFFSETENABLE	TOGGLE	F	Ach Offset Enable
ACHOFFSET	QUANT	0	Ach Offset (V)
ACHFILTER	IQUANT	3	Ach Filter
IERANGELOWERLIMIT	IQUANT	2	I/E Range Lower Limit
IERANGEMODE	TOGGLE	F	I/E AutoRange
IERANGE	IQUANT	11	I/E Range
POSFEEDENABLE	TOGGLE	F	Positive Feedback IR Comp
POSFEEDRESISTANCE	QUANT	0	Positive Feedback Resistance (ohm)
ACHSELECT	IQUANT	0	Ach Select
CABLEID	IQUANT	13	Cable ID
DCCALDATE	LABEL	7/31/2020	DC Calibration Date
ACCALDATE	LABEL	7/31/2020	AC Calibration Date
THERMOSELECT	IQUANT	1	Thermo Select
FRAMEWORKVERSION	QUANT	6.33	Framework Version
INSTRUMENTVERSION	LABEL	3.50	Instrument Version
COMPLIANCEVOLTAGE	IQUANT	0	Compliance Voltage
ZCURVE	TABLE
	Pt	Time	Freq	Zreal	Zimag	Zsig	Zmod	Zphz	Idc	Vdc	IERange
	#	s	Hz	ohm	ohm	V	ohm	°	A	V	#
	0	14	300046.9	-75.18214	-4892.113	1	4892.69	-90.88046	1.948107E-006	0.0015939	9
	1	28	238359.4	-133.8831	-5880.085	1	5881.609	-91.30434	2.530029E-005	0.0010527	9
	2	53	189328.1	300.1603	-7344.238	1	7350.369	-87.65961	-1.597847E-005	0.0018342	9
	3	60	150421.9	363.7244	-9180.673	1	9187.875	-87.73122	7.017717E-007	0.0016552	9
	4	68	119484.4	482.6125	-11584.62	1	11594.67	-87.61445	6.965682E-005	-0.0135007	8
	5	75	94921.88	694.7563	-14583.7	1	14600.24	-87.27254	-1.995479E-005	0.0113178	8
	6	84	75421.88	580.6414	-18282.05	1	18291.27	-88.18089	-2.035319E-005	0.0114974	8
	7	92	59859.37	161.868	-22771.22	1	22771.79	-89.59272	1.655643E-005	-0.0093511	8
	8	101	47578.12	4009.375	-30214.17	1	30479.02	-82.44109	4.991109E-006	-0.0008783	7
	9	109	37828.12	4292.333	-37214.55	1	37461.28	-83.42057	-5.365902E-006	0.0269104	7
	10	116	30046.88	4398.27	-46444.01	1	46651.8	-84.59019	6.666321E-006	-0.0101593	7
	11	123	23859.38	903.8041	-55944.51	1	55951.81	-89.07445	-2.050052E-005	0.00278	8
	12	130	18984.38	1429.204	-71776.19	1	71790.41	-88.85928	-2.65743E-005	0.0075616	8
	13	136	15046.87	5099.24	-94571.28	1	94708.66	-86.91363	-2.031178E-005	0.0027143	8
	14	145	11953.13	5755.234	-105750.1	1	105906.6	-86.88486	2.313934E-005	-0.0027133	8
	15	153	9515.62	596.4013	-143154.2	1	143155.4	-89.7613	1.645793E-005	-0.0093356	8
	16	160	7546.875	6405.626	-176853.5	1	176969.4	-87.92566	3.415798E-006	-0.0245474	7
	17	167	5928.309	12176.53	-222531	1	222863.9	-86.86799	-3.812516E-006	0.0257247	7
	18	172	4733.456	38839.98	-300070.9	1	302574.2	-82.62487	-7.462912E-007	0.0176998	6
	19	177	3796.875	8269.629	-340174.2	1	340274.7	-88.60741	6.681541E-006	-0.010122	7
	20	184	2987.132	92659.37	-491289.7	1	499951.3	-79.31923	7.63001E-006	-0.0185699	7
	21	190	2390.625	-24289.37	-487322.6	1	487927.5	-92.8534	-7.435097E-006	0.0189352	7
	22	197	1884.191	188785.5	-689017.1	1	714412	-74.67743	-5.443105E-006	0.0269553	7
	23	203	1516.544	-22872.03	-869728.5	1	870029.2	-91.50641	5.435206E-006	-0.0270981	7
	24	211	1193.986	638418.7	-812759.9	1	1033517	-51.85055	4.973153E-006	-0.0005941	7
	25	219	946.5144	-397840.7	-491469.4	1	632312.8	-128.9899	7.721796E-006	-0.0244747	7
	26	223	751.7689	-357589.3	-951004	1	1016011	-110.6069	-5.378617E-006	0.0265643	7
	27	229	597.4265	-30642.28	245178.1	1	247085.5	97.1239	1.699044E-005	0.0004711	8
	28	236	477.4305	40670.23	-2799966	1	2800261	-89.16782	-8.997431E-008	0.0005699	7
	29	242	376.6741	472707.1	-3689481	1	3719640	-82.69888	-1.063421E-009	0.0006368	5
	30	246	298.2954	488567.9	-4576475	1	4602480	-83.90639	-9.56797E-010	0.0006017	5
	31	249	237.7717	612764.1	-5623710	1	5656995	-83.78154	-9.882293E-010	0.0006121	5
	32	252	189.0121	572935.5	-7113262	1	7136298	-85.39507	-1.031132E-009	0.0006222	5
	33	254	150.2404	820531.6	-9170706	1	9207341	-84.88718	-1.06089E-009	0.0006847	5
	34	257	119.1737	1449240	-8451680	1	8575033	-80.26992	-1.025135E-009	0.0006892	5
	35	260	95.0169	571385	-1.420465E+007	1	1.421614E+007	-87.69651	-1.030892E-009	0.0006443	5
	36	263	75.60484	964688	-1.688705E+007	1	1.691458E+007	-86.73048	-1.095299E-009	0.0006905	5
	37	266	54.50582	272706.1	-2.465235E+007	1	2.465386E+007	-89.36622	-1.075008E-009	0.0006526	5
	38	269	45.95588	-15211.18	-2.74183E+007	1	2.74183E+007	-90.03178	-9.885157E-010	0.0006053	5
	39	273	37.20238	-1263844	-3.733915E+007	1	3.736054E+007	-91.93859	-9.212922E-010	0.0005891	5
	40	276	30.04808	5649835	-4.519467E+007	1	4.554644E+007	-82.87436	-9.3431E-011	0.0006814	4
	41	281	23.91582	5547982	-5.776764E+007	1	5.803344E+007	-84.51416	-8.757898E-011	0.0005928	4
	42	284	18.60119	2.114703E+007	-5.651664E+007	1	6.034341E+007	-69.48547	-2.465078E-010	0.000597	4
	43	288	15.02404	7271311	-8.736355E+007	1	8.766562E+007	-85.24221	-1.054589E-010	0.0006758	4
	44	291	12.01923	7144064	-1.076151E+008	1	1.07852E+008	-86.20197	-9.863126E-011	0.0006964	4
	45	295	9.450605	6363586	-1.355801E+008	1	1.357294E+008	-87.31274	-1.061457E-010	0.0007153	4
	46	299	7.512019	8814866	-1.787692E+008	1	1.789864E+008	-87.17711	-1.072622E-010	0.00063	4
	47	304	5.978954	2.76351E+007	-2.064956E+008	1	2.083366E+008	-82.37746	-1.105151E-010	0.0006495	4
	48	309	4.734848	4.604062E+007	-2.870261E+008	1	2.906953E+008	-80.88706	-8.404842E-012	0.0006402	3
	49	314	3.75601	-1.89975E+007	-3.50725E+008	1	3.512391E+008	-93.10047	-1.113057E-009	0.0006813	5
	50	322	3.004808	1.724527E+007	-4.017791E+008	1	4.02149E+008	-87.54224	-1.098988E-009	0.0006692	5
	51	332	2.372217	5.914051E+007	-5.472844E+008	1	5.504705E+008	-83.83245	-9.011185E-012	0.0007903	3
	52	337	1.878005	6.414305E+007	-6.854179E+008	1	6.884127E+008	-84.65369	-8.886486E-012	0.0006944	3
	53	348	1.512097	7.28649E+007	-8.447021E+008	1	8.47839E+008	-85.06981	-8.751647E-012	0.0008073	3
	54	355	1.201923	8.175541E+007	-1.05971E+009	1	1.062859E+009	-85.58843	-8.695884E-012	0.0006849	3
	55	368	0.956633	9.295072E+007	-1.325432E+009	1	1.328688E+009	-85.98849	-8.787796E-012	7.670406E-005	3
