EXPLAIN
TAG	EISPOT
TITLE	LABEL	Potentiostatic EIS	Test Identifier
DATE	LABEL	8/21/2020	Date
TIME	LABEL	16:20:18	Time
NOTES	NOTES	1	Notes...
	
PSTAT	PSTAT	REF3000-16137	Potentiostat
VDC	POTEN	0.00000E+000	T	DC Voltage (V)
FREQINIT	QUANT	3.00000E+005	Initial Freq. (Hz)
FREQFINAL	QUANT	1.00000E+000	Final Freq. (Hz)
PTSPERDEC	QUANT	1.00000E+001	Points/decade
VAC	QUANT	5.00000E+001	AC Voltage (mV rms)
AREA	QUANT	1.00000E+000	Sample Area (cm^2)
SPEED	SELECTOR	2	Optimize for:
ZGUESS	QUANT	1.00000E+003	Estimated Z (ohms)
EOC	QUANT	0	Open Circuit (V)
SEQUENCER	TOGGLE	TRUE	Run as Sequence
PSTATMODEL	IQUANT	5	Pstat Model
PSTATSECTION	LABEL	REF3000-16137	Pstat Section
PSTATSERIALNO	LABEL	16137	Pstat Serial Number
CTRLMODE	IQUANT	1	Control Mode
IESTAB	IQUANT	0	I/E Stability
CASPEED	IQUANT	1	Control Amp Speed
CONVENTION	IQUANT	1	Current Convention
ICHRANGE	IQUANT	2	Ich Range
ICHRANGEMODE	TOGGLE	F	Ich Auto Range
ICHOFFSETENABLE	TOGGLE	T	Ich Offset Enable
ICHOFFSET	QUANT	0	Ich Offset (V)
ICHFILTER	IQUANT	3	Ich Filter
VCHRANGE	IQUANT	2	Vch Range
VCHRANGEMODE	TOGGLE	F	Vch Auto Range
VCHOFFSETENABLE	TOGGLE	T	Vch Offset Enable
VCHOFFSET	QUANT	0	Vch Offset (V)
VCHFILTER	IQUANT	3	Vch Filter
ACHRANGE	IQUANT	2	Ach Range
ACHOFFSETENABLE	TOGGLE	F	Ach Offset Enable
ACHOFFSET	QUANT	0	Ach Offset (V)
ACHFILTER	IQUANT	3	Ach Filter
IERANGELOWERLIMIT	IQUANT	2	I/E Range Lower Limit
IERANGEMODE	TOGGLE	F	I/E AutoRange
IERANGE	IQUANT	11	I/E Range
POSFEEDENABLE	TOGGLE	F	Positive Feedback IR Comp
POSFEEDRESISTANCE	QUANT	0	Positive Feedback Resistance (ohm)
ACHSELECT	IQUANT	0	Ach Select
CABLEID	IQUANT	13	Cable ID
DCCALDATE	LABEL	7/31/2020	DC Calibration Date
ACCALDATE	LABEL	7/31/2020	AC Calibration Date
THERMOSELECT	IQUANT	1	Thermo Select
FRAMEWORKVERSION	QUANT	6.33	Framework Version
INSTRUMENTVERSION	LABEL	3.50	Instrument Version
COMPLIANCEVOLTAGE	IQUANT	0	Compliance Voltage
ZCURVE	TABLE
	Pt	Time	Freq	Zreal	Zimag	Zsig	Zmod	Zphz	Idc	Vdc	IERange
	#	s	Hz	ohm	ohm	V	ohm	°	A	V	#
	0	17	300046.9	548.0321	-62.56429	1	551.5918	-6.512789	-6.681803E-005	0.0004739	9
	1	24	238359.4	558.2756	-55.95746	1	561.0729	-5.723793	2.358176E-005	-0.0019712	9
	2	34	189328.1	565.8528	-48.33736	1	567.9137	-4.882576	-1.261678E-005	0.0016311	9
	3	42	150421.9	573.0098	-43.15983	1	574.6329	-4.307458	-2.819438E-005	-0.0008036	9
	4	50	119484.4	582.6801	-19.34382	1	583.001	-1.901408	2.795874E-005	-0.0138849	8
	5	54	94921.88	583.2536	-21.48111	1	583.649	-2.109239	1.726477E-005	-0.0060249	8
	6	57	75421.88	585.7458	-23.69081	1	586.2247	-2.316097	1.278037E-005	-0.0003191	8
	7	59	59859.37	587.5911	-26.89879	1	588.2065	-2.62106	1.265741E-005	-0.0004612	8
	8	62	47578.12	592.9396	-31.2234	1	593.7612	-3.014334	-1.608034E-005	0.0052467	8
	9	64	37828.12	596.1065	-37.18479	1	597.2651	-3.569453	-1.114667E-005	0.0072621	8
	10	67	30046.88	600.9217	-44.23446	1	602.5475	-4.210007	7.167421E-006	0.0021567	8
	11	69	23859.38	605.3743	-53.30019	1	607.7162	-5.031633	1.296514E-005	-0.0057599	8
	12	72	18984.38	611.4215	-62.99931	1	614.6586	-5.88285	1.266264E-005	-0.0002654	8
	13	74	15046.87	616.9333	-76.48837	1	621.6568	-7.067556	-1.174584E-007	0.0047881	8
	14	76	11953.13	626.8477	-89.09534	1	633.1477	-8.089401	6.605987E-006	0.0023759	8
	15	78	9515.62	636.9916	-105.4709	1	645.6643	-9.401545	-1.083321E-005	0.0070541	8
	16	81	7546.875	650.6671	-125.2235	1	662.6074	-10.89361	1.355367E-005	-0.0059624	8
	17	83	5928.309	662.6436	-148.3816	1	679.0535	-12.62167	-1.672662E-005	0.0066706	8
	18	86	4733.456	680.2844	-171.5627	1	701.5844	-14.15442	-6.110844E-006	0.0062561	8
	19	88	3796.875	693.9642	-200.9934	1	722.4851	-16.15264	1.277405E-005	-0.000256	8
	20	90	2987.132	717.5929	-232.7525	1	754.396	-17.97056	-1.625603E-005	0.0042665	8
	21	93	2390.625	740.4873	-271.0649	1	788.5414	-20.1058	6.997323E-006	0.0023554	8
	22	95	1884.191	765.7886	-315.8613	1	828.3723	-22.41445	1.276682E-005	-0.0003937	8
	23	98	1516.544	792.0219	-365.343	1	872.2236	-24.76288	1.675299E-005	-0.0024429	8
	24	100	1193.986	824.9307	-430.0261	1	930.2866	-27.53247	3.89257E-006	-0.0043647	8
	25	103	946.5144	856.2274	-501.5035	1	992.286	-30.35806	1.777082E-005	-0.0050359	8
	26	105	751.7689	884.2896	-594.3044	1	1065.442	-33.90386	-1.655076E-005	0.0064919	8
	27	108	597.4265	920.2052	-704.4179	1	1158.871	-37.43409	-2.699874E-006	-0.0024173	8
	28	111	477.4305	944.7255	-838.467	1	1263.144	-41.58984	-1.473946E-007	0.0006273	8
	29	113	376.6741	974.916	-1016.236	1	1408.26	-46.1888	-1.876953E-007	0.000658	8
	30	115	298.2954	1004.134	-1238.337	1	1594.291	-50.96234	-1.815413E-007	0.0006423	8
	31	118	237.7717	1033.547	-1511.3	1	1830.915	-55.63257	-1.573483E-007	0.0006233	8
	32	120	189.0121	1065.806	-1859.506	1	2143.293	-60.18014	-1.627014E-007	0.0006368	8
	33	122	150.2404	1102.853	-2298.247	1	2549.162	-64.36519	-1.922206E-007	0.0006386	8
	34	125	119.1737	1148.451	-2855.144	1	3077.465	-68.08807	-1.790344E-007	0.0006586	8
	35	127	95.0169	1201.985	-3536.239	1	3734.937	-71.22684	-1.606526E-007	0.0006321	8
	36	130	75.60484	1274.912	-4403.184	1	4584.041	-73.85198	-3.511417E-008	0.0005847	7
	37	132	54.50582	1410.235	-6016.823	1	6179.88	-76.80901	-4.217854E-008	0.000621	7
	38	135	45.95588	1504.598	-7082.374	1	7240.431	-78.00625	-3.699025E-008	0.0006235	7
	39	137	37.20238	1652.586	-8667.191	1	8823.335	-79.20491	-3.571142E-008	0.0006125	7
	40	139	30.04808	1847.081	-10626.49	1	10785.83	-80.13945	-4.297754E-008	0.0006277	7
	41	142	23.91582	2119.263	-13211.63	1	13380.53	-80.88689	-3.884561E-008	0.0006176	7
	42	144	18.60119	2531.187	-16783.8	1	16973.6	-81.42378	-3.686272E-008	0.0005881	7
	43	146	15.02404	3003.688	-20540.66	1	20759.12	-81.68053	-3.91141E-008	0.0006098	7
	44	149	12.01923	3663.136	-25368.86	1	25631.97	-81.78357	-3.498375E-008	0.0006106	7
	45	151	9.450605	4635.924	-31811.71	1	32147.74	-81.70865	-4.191999E-008	0.000615	7
	46	154	7.512019	5902.76	-39422.45	1	39861.92	-81.48431	-4.292616E-008	0.000623	7
	47	156	5.978954	7611.479	-48717.02	1	49308.04	-81.11998	-3.455127E-009	0.0006663	6
	48	160	4.734848	10004.64	-60438.18	1	61260.64	-80.60077	-4.346225E-009	0.0006705	6
	49	163	3.75601	13225.25	-74590.62	1	75753.99	-79.94569	-3.095983E-009	0.0006903	6
	50	166	3.004808	17443.12	-91100.06	1	92754.97	-79.16065	-4.155535E-009	0.0006598	6
	51	170	2.372217	23457.44	-112192.6	1	114618.6	-78.19061	-3.9853E-009	0.0006911	6
	52	174	1.878005	31706.66	-137541.4	1	141148.7	-77.01869	-3.576761E-009	0.0006362	6
	53	179	1.512097	41499.51	-165237.9	1	170369.5	-75.90176	-4.235496E-009	0.0007589	6
	54	184	1.201923	54839.96	-199976.1	1	207359.3	-74.66463	-3.826024E-009	0.0006351	6
	55	190	0.956633	71597.09	-240592.9	1	251020.1	-73.42773	-5.363548E-009	4.162051E-005	6
