EXPLAIN
TAG	EISPOT
TITLE	LABEL	Potentiostatic EIS	Test Identifier
DATE	LABEL	8/21/2020	Date
TIME	LABEL	19:06:04	Time
NOTES	NOTES	1	Notes...
	
PSTAT	PSTAT	REF3000-16137	Potentiostat
VDC	POTEN	0.00000E+000	T	DC Voltage (V)
FREQINIT	QUANT	3.00000E+005	Initial Freq. (Hz)
FREQFINAL	QUANT	1.00000E+000	Final Freq. (Hz)
PTSPERDEC	QUANT	1.00000E+001	Points/decade
VAC	QUANT	5.00000E+001	AC Voltage (mV rms)
AREA	QUANT	1.00000E+000	Sample Area (cm^2)
SPEED	SELECTOR	2	Optimize for:
ZGUESS	QUANT	1.00000E+003	Estimated Z (ohms)
EOC	QUANT	0	Open Circuit (V)
SEQUENCER	TOGGLE	TRUE	Run as Sequence
PSTATMODEL	IQUANT	5	Pstat Model
PSTATSECTION	LABEL	REF3000-16137	Pstat Section
PSTATSERIALNO	LABEL	16137	Pstat Serial Number
CTRLMODE	IQUANT	1	Control Mode
IESTAB	IQUANT	0	I/E Stability
CASPEED	IQUANT	1	Control Amp Speed
CONVENTION	IQUANT	1	Current Convention
ICHRANGE	IQUANT	2	Ich Range
ICHRANGEMODE	TOGGLE	F	Ich Auto Range
ICHOFFSETENABLE	TOGGLE	T	Ich Offset Enable
ICHOFFSET	QUANT	0	Ich Offset (V)
ICHFILTER	IQUANT	3	Ich Filter
VCHRANGE	IQUANT	2	Vch Range
VCHRANGEMODE	TOGGLE	F	Vch Auto Range
VCHOFFSETENABLE	TOGGLE	T	Vch Offset Enable
VCHOFFSET	QUANT	0	Vch Offset (V)
VCHFILTER	IQUANT	3	Vch Filter
ACHRANGE	IQUANT	2	Ach Range
ACHOFFSETENABLE	TOGGLE	F	Ach Offset Enable
ACHOFFSET	QUANT	0	Ach Offset (V)
ACHFILTER	IQUANT	3	Ach Filter
IERANGELOWERLIMIT	IQUANT	2	I/E Range Lower Limit
IERANGEMODE	TOGGLE	F	I/E AutoRange
IERANGE	IQUANT	11	I/E Range
POSFEEDENABLE	TOGGLE	F	Positive Feedback IR Comp
POSFEEDRESISTANCE	QUANT	0	Positive Feedback Resistance (ohm)
ACHSELECT	IQUANT	0	Ach Select
CABLEID	IQUANT	13	Cable ID
DCCALDATE	LABEL	7/31/2020	DC Calibration Date
ACCALDATE	LABEL	7/31/2020	AC Calibration Date
THERMOSELECT	IQUANT	1	Thermo Select
FRAMEWORKVERSION	QUANT	6.33	Framework Version
INSTRUMENTVERSION	LABEL	3.50	Instrument Version
COMPLIANCEVOLTAGE	IQUANT	0	Compliance Voltage
ZCURVE	TABLE
	Pt	Time	Freq	Zreal	Zimag	Zsig	Zmod	Zphz	Idc	Vdc	IERange
	#	s	Hz	ohm	ohm	V	ohm	°	A	V	#
	0	7	300046.9	50.63498	-1.688785	1	50.66314	-1.910229	-6.673912E-006	0.0002058	9
	1	10	238359.4	50.9648	-2.833496	1	51.0435	-3.182204	-5.088258E-006	0.0002762	9
	2	13	189328.1	51.30594	-4.013147	1	51.46266	-4.472565	-1.19564E-005	-0.0007194	9
	3	15	150421.9	51.6537	-5.224381	1	51.91723	-5.775395	-3.209577E-006	-0.0009272	9
	4	18	119484.4	52.24707	-6.630599	1	52.66613	-7.23266	6.086922E-006	0.0002946	9
	5	20	94921.88	52.99896	-7.999188	1	53.59923	-8.58293	2.108132E-005	-0.0004999	9
	6	23	75421.88	53.81603	-9.8094	1	54.70274	-10.33027	-3.533953E-006	0.000442	9
	7	26	59859.37	54.76541	-11.79447	1	56.02106	-12.15379	-8.914289E-006	0.0006075	9
	8	28	47578.12	55.98636	-14.01661	1	57.71428	-14.05553	-3.391365E-006	0.0004677	9
	9	31	37828.12	57.32833	-16.48492	1	59.65141	-16.04273	2.113769E-005	-0.0003968	9
	10	33	30046.88	58.88247	-19.30196	1	61.9654	-18.14939	-3.23333E-006	-0.0001233	9
	11	36	23859.38	60.57447	-22.47669	1	64.61012	-20.35781	-2.228413E-006	0.0005398	9
	12	38	18984.38	62.3796	-26.21316	1	67.66346	-22.79312	-1.762966E-005	0.0005702	9
	13	40	15046.87	64.3429	-30.70837	1	71.29525	-25.51333	-1.655006E-005	0.0005101	9
	14	43	11953.13	66.35631	-36.01601	1	75.50041	-28.49165	-2.726183E-006	0.0004662	9
	15	45	9515.62	68.41185	-42.23764	1	80.40025	-31.69128	-1.538211E-005	0.0004695	9
	16	47	7546.875	70.51438	-50.22973	1	86.57542	-35.46353	3.600099E-006	0.000293	9
	17	50	5928.309	72.49311	-60.51346	1	94.43056	-39.85336	1.51365E-005	-0.0005412	9
	18	52	4733.456	74.41967	-72.60135	1	103.9675	-44.29142	9.777174E-006	-0.0004617	9
	19	54	3796.875	76.12969	-87.41914	1	115.9217	-48.94875	-1.231056E-005	0.0007013	9
	20	57	2987.132	78.07962	-108.0385	1	133.2994	-54.14429	1.153937E-005	7.128601E-005	9
	21	59	2390.625	80.46335	-131.802	1	154.4219	-58.5965	-2.310281E-006	-0.0001335	9
	22	61	1884.191	82.64234	-164.4518	1	184.0493	-63.319	-8.666875E-006	0.000627	9
	23	63	1516.544	85.21973	-201.6158	1	218.8866	-67.08701	1.806431E-005	-0.000524	9
	24	66	1193.986	89.29123	-253.023	1	268.3162	-70.56218	2.113915E-005	-0.0004148	9
	25	68	946.5144	95.8931	-314.2154	1	328.5221	-73.02872	-1.574323E-005	0.0004744	9
	26	71	751.7689	102.1103	-393.0212	1	406.0692	-75.43606	-1.499827E-005	0.0006285	9
	27	73	597.4265	109.5894	-486.9041	1	499.0846	-77.31559	-3.296342E-006	0.0016853	8
	28	75	477.4305	121.608	-603.9071	1	616.0295	-78.61468	3.39821E-007	0.0006475	8
	29	78	376.6741	138.9873	-757.1747	1	769.8253	-79.59856	3.379033E-007	0.0006523	8
	30	80	298.2954	162.6708	-945.3577	1	959.251	-80.23654	3.471567E-007	0.000647	8
	31	82	237.7717	194.4579	-1171.824	1	1187.849	-80.57793	3.413454E-007	0.0006437	8
	32	85	189.0121	239.0358	-1454.863	1	1474.369	-80.66959	3.469851E-007	0.0006499	8
	33	87	150.2404	300.7249	-1803.531	1	1828.431	-80.53346	3.166521E-007	0.0006945	8
	34	90	119.1737	387.7726	-2236.589	1	2269.955	-80.16402	3.427853E-007	0.0006511	8
	35	92	95.0169	505.2267	-2754.231	1	2800.186	-79.60542	3.4645E-007	0.0006499	8
	36	94	75.60484	670.0163	-3390.969	1	3456.529	-78.82298	3.558656E-007	0.0006485	8
	37	97	54.50582	1023.587	-4540.087	1	4654.043	-77.29478	3.561775E-007	0.0006417	8
	38	100	45.95588	1285.641	-5279.662	1	5433.94	-76.31435	4.27572E-008	0.0006193	7
	39	102	37.20238	1705.842	-6323.58	1	6549.623	-74.9033	3.771012E-008	0.0006199	7
	40	104	30.04808	2272.631	-7549.272	1	7883.931	-73.24612	2.311721E-008	0.0006117	7
	41	107	23.91582	3086.5	-9061.913	1	9573.13	-71.19109	2.165966E-008	0.0006125	7
	42	109	18.60119	4270.566	-10933.6	1	11738.03	-68.66484	4.183944E-008	0.0006284	7
	43	111	15.02404	5593.501	-12707.53	1	13884.11	-66.24224	3.525454E-008	0.0006338	7
	44	114	12.01923	7339.391	-14700.99	1	16431.24	-63.46958	1.564315E-008	0.0006196	7
	45	116	9.450605	9686.36	-16905.42	1	19483.8	-60.18842	3.130779E-008	0.0006341	7
	46	119	7.512019	12402.44	-19033.13	1	22717.4	-56.91077	2.281073E-008	0.0006249	7
	47	121	5.978954	15591.25	-20943.16	1	26109.44	-53.33395	2.085929E-008	0.0006266	7
	48	124	4.734848	19322.7	-22648.22	1	29770.94	-49.5303	2.600576E-008	0.0006129	7
	49	128	3.75601	23350.48	-23905.15	1	33417.08	-45.67248	2.429905E-008	0.0006232	7
	50	131	3.004808	27354.21	-24401.59	1	36656.38	-41.73487	3.618201E-008	0.0005898	7
	51	135	2.372217	31753.71	-24735.11	1	40250.75	-37.91743	-1.906344E-008	0.0006249	6
	52	139	1.878005	35447.63	-23328.67	1	42435.37	-33.34958	-1.565165E-008	0.0006716	6
	53	148	1.512097	38353.36	-22025.61	1	44227.91	-29.86794	-1.261478E-008	0.0005556	6
	54	159	1.201923	41306.03	-20838.98	1	46265.01	-26.77104	-1.548036E-008	0.0006848	6
	55	172	0.956633	43974.26	-19655.64	1	48167.21	-24.08372	-3.008301E-008	1.788658E-005	6
