EXPLAIN
TAG	EISPOT
TITLE	LABEL	Potentiostatic EIS	Test Identifier
DATE	LABEL	8/21/2020	Date
TIME	LABEL	16:04:52	Time
NOTES	NOTES	1	Notes...
	
PSTAT	PSTAT	REF3000-16137	Potentiostat
VDC	POTEN	0.00000E+000	T	DC Voltage (V)
FREQINIT	QUANT	3.00000E+005	Initial Freq. (Hz)
FREQFINAL	QUANT	1.00000E+000	Final Freq. (Hz)
PTSPERDEC	QUANT	1.00000E+001	Points/decade
VAC	QUANT	5.00000E+001	AC Voltage (mV rms)
AREA	QUANT	1.00000E+000	Sample Area (cm^2)
SPEED	SELECTOR	2	Optimize for:
ZGUESS	QUANT	1.00000E+003	Estimated Z (ohms)
EOC	QUANT	0	Open Circuit (V)
SEQUENCER	TOGGLE	TRUE	Run as Sequence
PSTATMODEL	IQUANT	5	Pstat Model
PSTATSECTION	LABEL	REF3000-16137	Pstat Section
PSTATSERIALNO	LABEL	16137	Pstat Serial Number
CTRLMODE	IQUANT	1	Control Mode
IESTAB	IQUANT	0	I/E Stability
CASPEED	IQUANT	1	Control Amp Speed
CONVENTION	IQUANT	1	Current Convention
ICHRANGE	IQUANT	2	Ich Range
ICHRANGEMODE	TOGGLE	F	Ich Auto Range
ICHOFFSETENABLE	TOGGLE	T	Ich Offset Enable
ICHOFFSET	QUANT	0	Ich Offset (V)
ICHFILTER	IQUANT	3	Ich Filter
VCHRANGE	IQUANT	2	Vch Range
VCHRANGEMODE	TOGGLE	F	Vch Auto Range
VCHOFFSETENABLE	TOGGLE	T	Vch Offset Enable
VCHOFFSET	QUANT	0	Vch Offset (V)
VCHFILTER	IQUANT	3	Vch Filter
ACHRANGE	IQUANT	2	Ach Range
ACHOFFSETENABLE	TOGGLE	F	Ach Offset Enable
ACHOFFSET	QUANT	0	Ach Offset (V)
ACHFILTER	IQUANT	3	Ach Filter
IERANGELOWERLIMIT	IQUANT	2	I/E Range Lower Limit
IERANGEMODE	TOGGLE	F	I/E AutoRange
IERANGE	IQUANT	11	I/E Range
POSFEEDENABLE	TOGGLE	F	Positive Feedback IR Comp
POSFEEDRESISTANCE	QUANT	0	Positive Feedback Resistance (ohm)
ACHSELECT	IQUANT	0	Ach Select
CABLEID	IQUANT	13	Cable ID
DCCALDATE	LABEL	7/31/2020	DC Calibration Date
ACCALDATE	LABEL	7/31/2020	AC Calibration Date
THERMOSELECT	IQUANT	1	Thermo Select
FRAMEWORKVERSION	QUANT	6.33	Framework Version
INSTRUMENTVERSION	LABEL	3.50	Instrument Version
COMPLIANCEVOLTAGE	IQUANT	0	Compliance Voltage
ZCURVE	TABLE
	Pt	Time	Freq	Zreal	Zimag	Zsig	Zmod	Zphz	Idc	Vdc	IERange
	#	s	Hz	ohm	ohm	V	ohm	°	A	V	#
	0	8	300046.9	203.4711	-8.970094	1	203.6688	-2.524269	-8.175889E-005	0.0019808	9
	1	12	238359.4	204.648	-9.56811	1	204.8715	-2.676856	2.169266E-005	-0.0015072	9
	2	16	189328.1	205.4364	-10.38981	1	205.699	-2.89523	4.923609E-005	-0.0002138	9
	3	18	150421.9	206.4966	-11.58934	1	206.8216	-3.212277	-1.7749E-005	0.0010015	9
	4	21	119484.4	207.9617	-12.31617	1	208.326	-3.389285	7.382197E-005	-0.0027455	9
	5	23	94921.88	209.2252	-14.42097	1	209.7216	-3.942908	-2.281115E-005	0.0008617	9
	6	26	75421.88	210.5415	-16.70988	1	211.2036	-4.537834	1.117995E-005	0.000288	9
	7	28	59859.37	212.3694	-19.85512	1	213.2955	-5.341247	-2.350645E-005	0.0008744	9
	8	31	47578.12	214.1567	-23.39881	1	215.4312	-6.235416	-2.1957E-005	0.0005104	9
	9	33	37828.12	216.6404	-27.75444	1	218.411	-7.300564	2.512343E-005	-0.0007818	9
	10	36	30046.88	219.5381	-32.8996	1	221.9895	-8.522824	-1.074678E-006	-0.0004002	9
	11	38	23859.38	223.01	-38.69099	1	226.3415	-9.84252	-1.010465E-006	-0.0004064	9
	12	41	18984.38	227.1325	-45.74475	1	231.6932	-11.38711	2.56437E-005	-0.0004287	9
	13	43	15046.87	232.0579	-54.24277	1	238.3131	-13.15648	2.70496E-005	-0.0004518	9
	14	45	11953.13	238.3145	-62.18839	1	246.2949	-14.62524	2.828919E-005	-0.0007031	9
	15	49	9515.62	244.6738	-73.20341	1	255.3899	-16.65654	-1.685386E-005	0.0009584	9
	16	52	7546.875	251.6842	-85.24044	1	265.727	-18.71022	-2.060951E-005	0.0004252	9
	17	54	5928.309	259.974	-99.4546	1	278.3482	-20.93465	1.094864E-005	0.0002903	9
	18	58	4733.456	269.6461	-115.1375	1	293.1991	-23.12224	-1.606087E-006	-0.0003748	9
	19	60	3796.875	277.651	-134.2255	1	308.3935	-25.80062	2.107934E-005	-7.262563E-005	9
	20	63	2987.132	288.8332	-157.3601	1	328.9176	-28.58213	-2.388243E-005	0.0006907	9
	21	65	2390.625	297.791	-184.3186	1	350.2182	-31.75556	2.315557E-005	-0.000254	9
	22	67	1884.191	307.2472	-219.5248	1	377.6135	-35.54539	-9.489673E-006	-9.278951E-005	9
	23	70	1516.544	316.1329	-257.0456	1	407.4463	-39.11434	-8.133304E-006	0.0015882	8
	24	72	1193.986	326.3596	-311.3476	1	451.052	-43.65147	-6.04432E-006	0.004402	8
	25	74	946.5144	334.9783	-377.8069	1	504.9243	-48.43856	1.047916E-005	-0.0027511	8
	26	77	751.7689	344.5841	-460.4574	1	575.1167	-53.19059	1.069402E-006	0.0027162	8
	27	79	597.4265	352.3336	-566.1165	1	666.8035	-58.10313	9.91414E-007	0.0027857	8
	28	81	477.4305	364.0431	-696.0676	1	785.5173	-62.39045	1.883176E-008	0.0006549	8
	29	84	376.6741	377.016	-868.5315	1	946.8305	-66.53509	1.126342E-008	0.0006533	8
	30	86	298.2954	392.748	-1082.829	1	1151.855	-70.06401	2.499621E-008	0.0006405	8
	31	88	237.7717	412.3616	-1343.617	1	1405.471	-72.93853	2.401015E-008	0.0006433	8
	32	91	189.0121	437.8887	-1673.143	1	1729.495	-75.33372	4.105247E-008	0.0006462	8
	33	93	150.2404	471.5009	-2084.328	1	2136.993	-77.25352	4.382181E-008	0.0006386	8
	34	96	119.1737	516.2462	-2602.355	1	2653.066	-78.77953	4.67447E-008	0.0006336	8
	35	98	95.0169	575.068	-3233.226	1	3283.969	-79.91473	3.255185E-008	0.0006373	8
	36	100	75.60484	653.7933	-4022.607	1	4075.391	-80.76846	3.597249E-008	0.0006413	8
	37	103	54.50582	818.5819	-5505.704	1	5566.225	-81.54328	-6.360837E-009	0.0006303	7
	38	106	45.95588	935.0378	-6475.817	1	6542.973	-81.78389	-1.210036E-009	0.0006127	7
	39	108	37.20238	1121.142	-7910.43	1	7989.484	-81.93322	-3.013979E-009	0.0006161	7
	40	110	30.04808	1369.18	-9675.53	1	9771.92	-81.94558	-1.60109E-009	0.000608	7
	41	113	23.91582	1728.833	-11983.43	1	12107.5	-81.79066	3.04281E-010	0.0005983	7
	42	115	18.60119	2276.225	-15154.93	1	15324.92	-81.4582	-2.091899E-009	0.0006161	7
	43	117	15.02404	2913.581	-18473.37	1	18701.72	-81.03726	3.060646E-009	0.0006275	7
	44	120	12.01923	3818.826	-22674.93	1	22994.26	-80.44017	-6.972285E-009	0.0006366	7
	45	122	9.450605	5154.926	-28207.63	1	28674.79	-79.64352	-6.517852E-009	0.000622	7
	46	125	7.512019	6913.192	-34659.71	1	35342.44	-78.71987	-2.444518E-009	0.0006043	7
	47	127	5.978954	9283.219	-42360.37	1	43365.64	-77.63911	-1.783724E-010	0.0006704	6
	48	130	4.734848	12575.41	-51775.68	1	53280.98	-76.34821	7.537697E-011	0.0006266	6
	49	134	3.75601	16913.22	-62876.93	1	65111.95	-74.94441	3.03301E-009	0.0006668	6
	50	137	3.004808	22375.94	-75384.7	1	78635.45	-73.46788	2.213071E-009	0.0006786	6
	51	141	2.372217	30036.09	-90755.56	1	95596.8	-71.68773	1.030553E-009	0.0006188	6
	52	145	1.878005	39494.23	-108435.1	1	115403.5	-69.98737	2.542801E-009	0.0006636	6
	53	150	1.512097	50309.11	-126913.8	1	136521.5	-68.37644	1.462308E-009	0.0006936	6
	54	155	1.201923	65050.87	-149408.3	1	162955.4	-66.47218	1.845222E-009	0.0006623	6
	55	161	0.956633	82733.3	-174326.8	1	192962.8	-64.61158	-1.021881E-009	1.916642E-005	6
