EXPLAIN
TAG	EISPOT
TITLE	LABEL	Potentiostatic EIS	Test Identifier
DATE	LABEL	8/21/2020	Date
TIME	LABEL	18:59:59	Time
NOTES	NOTES	1	Notes...
	
PSTAT	PSTAT	REF3000-16137	Potentiostat
VDC	POTEN	0.00000E+000	T	DC Voltage (V)
FREQINIT	QUANT	3.00000E+005	Initial Freq. (Hz)
FREQFINAL	QUANT	1.00000E+000	Final Freq. (Hz)
PTSPERDEC	QUANT	1.00000E+001	Points/decade
VAC	QUANT	5.00000E+001	AC Voltage (mV rms)
AREA	QUANT	1.00000E+000	Sample Area (cm^2)
SPEED	SELECTOR	2	Optimize for:
ZGUESS	QUANT	1.00000E+003	Estimated Z (ohms)
EOC	QUANT	0	Open Circuit (V)
SEQUENCER	TOGGLE	TRUE	Run as Sequence
PSTATMODEL	IQUANT	5	Pstat Model
PSTATSECTION	LABEL	REF3000-16137	Pstat Section
PSTATSERIALNO	LABEL	16137	Pstat Serial Number
CTRLMODE	IQUANT	1	Control Mode
IESTAB	IQUANT	0	I/E Stability
CASPEED	IQUANT	1	Control Amp Speed
CONVENTION	IQUANT	1	Current Convention
ICHRANGE	IQUANT	2	Ich Range
ICHRANGEMODE	TOGGLE	F	Ich Auto Range
ICHOFFSETENABLE	TOGGLE	T	Ich Offset Enable
ICHOFFSET	QUANT	0	Ich Offset (V)
ICHFILTER	IQUANT	3	Ich Filter
VCHRANGE	IQUANT	2	Vch Range
VCHRANGEMODE	TOGGLE	F	Vch Auto Range
VCHOFFSETENABLE	TOGGLE	T	Vch Offset Enable
VCHOFFSET	QUANT	0	Vch Offset (V)
VCHFILTER	IQUANT	3	Vch Filter
ACHRANGE	IQUANT	2	Ach Range
ACHOFFSETENABLE	TOGGLE	F	Ach Offset Enable
ACHOFFSET	QUANT	0	Ach Offset (V)
ACHFILTER	IQUANT	3	Ach Filter
IERANGELOWERLIMIT	IQUANT	2	I/E Range Lower Limit
IERANGEMODE	TOGGLE	F	I/E AutoRange
IERANGE	IQUANT	11	I/E Range
POSFEEDENABLE	TOGGLE	F	Positive Feedback IR Comp
POSFEEDRESISTANCE	QUANT	0	Positive Feedback Resistance (ohm)
ACHSELECT	IQUANT	0	Ach Select
CABLEID	IQUANT	13	Cable ID
DCCALDATE	LABEL	7/31/2020	DC Calibration Date
ACCALDATE	LABEL	7/31/2020	AC Calibration Date
THERMOSELECT	IQUANT	1	Thermo Select
FRAMEWORKVERSION	QUANT	6.33	Framework Version
INSTRUMENTVERSION	LABEL	3.50	Instrument Version
COMPLIANCEVOLTAGE	IQUANT	0	Compliance Voltage
ZCURVE	TABLE
	Pt	Time	Freq	Zreal	Zimag	Zsig	Zmod	Zphz	Idc	Vdc	IERange
	#	s	Hz	ohm	ohm	V	ohm	°	A	V	#
	0	7	300046.9	50.72633	-1.603908	1	50.75168	-1.811023	-6.844439E-005	0.0018002	9
	1	10	238359.4	50.94772	-2.793927	1	51.02427	-3.138905	-5.7982E-005	0.0012561	9
	2	13	189328.1	51.29897	-3.941562	1	51.45017	-4.393695	1.294643E-005	0.0002511	9
	3	16	150421.9	51.72226	-5.125819	1	51.97563	-5.65969	-2.562117E-005	-5.269416E-005	9
	4	19	119484.4	52.2725	-6.63086	1	52.69138	-7.229461	-5.70572E-006	0.0005553	9
	5	21	94921.88	53.02597	-7.986182	1	53.624	-8.56488	1.970728E-005	-0.0003662	9
	6	24	75421.88	53.81209	-9.75391	1	54.68893	-10.27381	1.048839E-005	-0.0005373	9
	7	26	59859.37	54.77694	-11.77151	1	56.02751	-12.12835	-1.29638E-005	0.0005989	9
	8	29	47578.12	55.97471	-14.00054	1	57.69908	-14.04285	-1.474861E-005	0.0003699	9
	9	31	37828.12	57.33142	-16.45954	1	59.64736	-16.01848	-8.661604E-006	4.182959E-005	9
	10	34	30046.88	58.87655	-19.22218	1	61.93497	-18.08097	-1.48679E-005	0.0006556	9
	11	36	23859.38	60.56791	-22.4128	1	64.58177	-20.3067	-1.581505E-005	0.0005697	9
	12	39	18984.38	62.38158	-26.13511	1	67.63509	-22.73152	-1.581051E-005	0.0004436	9
	13	41	15046.87	64.35891	-30.6113	1	71.26795	-25.43736	1.028877E-005	-0.0004468	9
	14	43	11953.13	66.38621	-35.91352	1	75.47787	-28.41244	3.826798E-006	-0.0003371	9
	15	45	9515.62	68.40736	-42.23933	1	80.39732	-31.69399	1.719743E-005	-0.0001882	9
	16	48	7546.875	70.47037	-50.10961	1	86.46991	-35.41562	1.998017E-005	-0.0004936	9
	17	50	5928.309	72.5198	-60.39167	1	94.37306	-39.78622	-1.644155E-005	0.0005687	9
	18	52	4733.456	74.42761	-72.3959	1	103.8298	-44.20721	-8.564854E-006	6.773919E-005	9
	19	55	3796.875	76.19159	-87.24648	1	115.8322	-48.86957	1.973386E-005	-0.0003016	9
	20	57	2987.132	78.12951	-107.7734	1	133.1139	-54.06004	1.718376E-005	-0.000145	9
	21	59	2390.625	79.97366	-131.9566	1	154.2995	-58.78162	-1.719157E-005	0.00045	9
	22	62	1884.191	82.36619	-163.8546	1	183.3917	-63.31231	1.164171E-005	6.269224E-005	9
	23	64	1516.544	85.6329	-201.1188	1	218.5904	-66.93654	-8.649218E-006	6.064547E-005	9
	24	66	1193.986	89.25012	-251.9887	1	267.3273	-70.49672	1.978461E-005	-0.0002623	9
	25	69	946.5144	93.92384	-315.4876	1	329.1719	-73.4212	-1.585352E-005	0.0006142	9
	26	71	751.7689	100.2424	-391.9698	1	404.5848	-75.65464	1.769016E-005	-0.0001692	9
	27	74	597.4265	109.9152	-486.1119	1	498.3835	-77.25905	-1.601283E-006	0.0006498	8
	28	76	477.4305	121.7925	-602.3572	1	614.5466	-78.56929	3.458537E-007	0.0006401	8
	29	78	376.6741	139.2325	-755.199	1	767.9265	-79.55395	3.41158E-007	0.0006381	8
	30	81	298.2954	163.0383	-942.8616	1	956.854	-80.18951	3.456206E-007	0.0006474	8
	31	83	237.7717	194.9461	-1168.611	1	1184.76	-80.52921	3.392363E-007	0.0006433	8
	32	85	189.0121	239.6881	-1450.774	1	1470.441	-80.61868	3.420343E-007	0.0006445	8
	33	88	150.2404	301.6992	-1798.185	1	1823.319	-80.47563	3.365006E-007	0.000646	8
	34	90	119.1737	389.0118	-2230.012	1	2263.688	-80.10468	3.521304E-007	0.0006452	8
	35	93	95.0169	507.0683	-2745.382	1	2791.817	-79.53548	3.50049E-007	0.0006455	8
	36	95	75.60484	672.55	-3379.365	1	3445.64	-78.74426	3.479584E-007	0.0006511	8
	37	98	54.50582	1026.863	-4522.893	1	4637.996	-77.2086	3.473051E-007	0.0006412	8
	38	100	45.95588	1289.289	-5256.985	1	5412.777	-76.22005	3.828281E-008	0.0006168	7
	39	102	37.20238	1711.728	-6294.711	1	6523.297	-74.78735	3.618178E-008	0.0006277	7
	40	105	30.04808	2280.134	-7514.5	1	7852.816	-73.12057	2.874957E-008	0.0006114	7
	41	107	23.91582	3091.792	-9004.15	1	9520.18	-71.04886	2.715361E-008	0.0006254	7
	42	110	18.60119	4273.338	-10866.22	1	11676.3	-68.53186	4.355045E-008	0.0006209	7
	43	112	15.02404	5598.671	-12630.86	1	13816.07	-66.09452	3.789918E-008	0.0006326	7
	44	114	12.01923	7327.895	-14604.93	1	16340.2	-63.3552	1.481496E-008	0.0006166	7
	45	117	9.450605	9675.58	-16765.21	1	19356.89	-60.0098	3.685095E-008	0.0006201	7
	46	119	7.512019	12400.45	-18833.72	1	22549.51	-56.63841	3.722011E-008	0.0006154	7
	47	122	5.978954	15536.1	-20743.89	1	25916.78	-53.16869	2.437868E-008	0.0006249	7
	48	125	4.734848	19212.12	-22387.72	1	29501.11	-49.36532	2.074587E-008	0.0006225	7
	49	128	3.75601	23194.04	-23428.21	1	32967.33	-45.28778	3.334567E-008	0.0006371	7
	50	132	3.004808	27182.81	-24035.27	1	36284.97	-41.48339	3.359173E-008	0.0006077	7
	51	135	2.372217	31369.2	-24019.78	1	39509.2	-37.44172	-8.319366E-009	0.0006087	6
	52	140	1.878005	34961.77	-22650.92	1	41658.01	-32.93826	-8.927207E-009	0.0006686	6
	53	149	1.512097	37771	-21418.34	1	43421.12	-29.55574	-1.079371E-008	0.000651	6
	54	159	1.201923	40599.6	-20187.75	1	45341.73	-26.43841	-1.302682E-008	0.000686	6
	55	172	0.956633	43426.58	-19190.36	1	47477.76	-23.8408	-3.722029E-008	3.916431E-005	6
