EXPLAIN
TAG	EISPOT
TITLE	LABEL	Potentiostatic EIS	Test Identifier
DATE	LABEL	8/21/2020	Date
TIME	LABEL	18:25:25	Time
NOTES	NOTES	1	Notes...
	
PSTAT	PSTAT	REF3000-16137	Potentiostat
VDC	POTEN	0.00000E+000	T	DC Voltage (V)
FREQINIT	QUANT	3.00000E+005	Initial Freq. (Hz)
FREQFINAL	QUANT	1.00000E+000	Final Freq. (Hz)
PTSPERDEC	QUANT	1.00000E+001	Points/decade
VAC	QUANT	5.00000E+001	AC Voltage (mV rms)
AREA	QUANT	1.00000E+000	Sample Area (cm^2)
SPEED	SELECTOR	2	Optimize for:
ZGUESS	QUANT	1.00000E+003	Estimated Z (ohms)
EOC	QUANT	0	Open Circuit (V)
SEQUENCER	TOGGLE	TRUE	Run as Sequence
PSTATMODEL	IQUANT	5	Pstat Model
PSTATSECTION	LABEL	REF3000-16137	Pstat Section
PSTATSERIALNO	LABEL	16137	Pstat Serial Number
CTRLMODE	IQUANT	1	Control Mode
IESTAB	IQUANT	0	I/E Stability
CASPEED	IQUANT	1	Control Amp Speed
CONVENTION	IQUANT	1	Current Convention
ICHRANGE	IQUANT	2	Ich Range
ICHRANGEMODE	TOGGLE	F	Ich Auto Range
ICHOFFSETENABLE	TOGGLE	T	Ich Offset Enable
ICHOFFSET	QUANT	0	Ich Offset (V)
ICHFILTER	IQUANT	3	Ich Filter
VCHRANGE	IQUANT	2	Vch Range
VCHRANGEMODE	TOGGLE	F	Vch Auto Range
VCHOFFSETENABLE	TOGGLE	T	Vch Offset Enable
VCHOFFSET	QUANT	0	Vch Offset (V)
VCHFILTER	IQUANT	3	Vch Filter
ACHRANGE	IQUANT	2	Ach Range
ACHOFFSETENABLE	TOGGLE	F	Ach Offset Enable
ACHOFFSET	QUANT	0	Ach Offset (V)
ACHFILTER	IQUANT	3	Ach Filter
IERANGELOWERLIMIT	IQUANT	2	I/E Range Lower Limit
IERANGEMODE	TOGGLE	F	I/E AutoRange
IERANGE	IQUANT	11	I/E Range
POSFEEDENABLE	TOGGLE	F	Positive Feedback IR Comp
POSFEEDRESISTANCE	QUANT	0	Positive Feedback Resistance (ohm)
ACHSELECT	IQUANT	0	Ach Select
CABLEID	IQUANT	13	Cable ID
DCCALDATE	LABEL	7/31/2020	DC Calibration Date
ACCALDATE	LABEL	7/31/2020	AC Calibration Date
THERMOSELECT	IQUANT	1	Thermo Select
FRAMEWORKVERSION	QUANT	6.33	Framework Version
INSTRUMENTVERSION	LABEL	3.50	Instrument Version
COMPLIANCEVOLTAGE	IQUANT	0	Compliance Voltage
ZCURVE	TABLE
	Pt	Time	Freq	Zreal	Zimag	Zsig	Zmod	Zphz	Idc	Vdc	IERange
	#	s	Hz	ohm	ohm	V	ohm	°	A	V	#
	0	7	300046.9	72.07456	-2.245506	1	72.10954	-1.784491	1.194795E-005	0.0003329	9
	1	10	238359.4	71.74768	-3.302487	1	71.82365	-2.635418	-1.143666E-005	-0.0011913	9
	2	13	189328.1	71.56213	-4.506691	1	71.7039	-3.603496	4.56021E-005	-0.000607	9
	3	16	150421.9	71.49915	-5.90396	1	71.74249	-4.720424	1.093563E-005	-0.001065	9
	4	18	119484.4	71.43166	-7.223452	1	71.79596	-5.774347	1.973883E-005	-0.0011715	9
	5	21	94921.88	71.77341	-8.733418	1	72.3028	-6.937669	2.278088E-005	-0.0005907	9
	6	23	75421.88	72.1095	-10.72681	1	72.90298	-8.461116	1.722899E-005	-0.0006886	9
	7	26	59859.37	72.72009	-13.00192	1	73.87328	-10.13703	2.213417E-005	-0.0005157	9
	8	28	47578.12	73.59525	-15.47285	1	75.20419	-11.87309	4.068655E-006	0.0003996	9
	9	31	37828.12	74.69775	-18.18524	1	76.8795	-13.68254	-9.289947E-006	3.882185E-005	9
	10	33	30046.88	76.08371	-21.29942	1	79.00883	-15.63944	2.184627E-005	-0.0004535	9
	11	36	23859.38	77.70207	-24.84276	1	81.57681	-17.73002	3.749694E-006	0.0003335	9
	12	38	18984.38	79.4893	-28.77973	1	84.53887	-19.90319	1.637148E-005	-0.0006208	9
	13	41	15046.87	81.40957	-33.51509	1	88.03851	-22.37623	3.512685E-006	-0.0003773	9
	14	43	11953.13	83.67503	-39.01305	1	92.32296	-24.99704	-9.633904E-006	4.551298E-005	9
	15	45	9515.62	85.89728	-45.65069	1	97.2745	-27.98871	4.183175E-006	0.0003185	9
	16	47	7546.875	88.23787	-53.57446	1	103.2286	-31.26443	-9.089575E-006	5.950508E-005	9
	17	50	5928.309	90.62226	-63.93719	1	110.907	-35.20432	-1.739101E-005	0.0006898	9
	18	52	4733.456	92.715	-75.88775	1	119.8124	-39.30052	-1.794362E-005	0.000595	9
	19	54	3796.875	94.66151	-90.61575	1	131.042	-43.74907	1.122026E-005	7.62702E-005	9
	20	57	2987.132	96.7275	-110.7667	1	147.056	-48.87075	2.10379E-005	-0.000292	9
	21	59	2390.625	98.7027	-134.3407	1	166.7023	-53.69457	-1.790058E-005	0.0007327	9
	22	61	1884.191	101.0955	-166.7419	1	194.9953	-58.77158	-3.621424E-006	0.0005648	9
	23	64	1516.544	103.5118	-203.3914	1	228.2165	-63.02715	-1.42872E-005	0.0007211	9
	24	66	1193.986	107.1483	-254.085	1	275.7534	-67.13472	-9.393005E-006	5.178382E-005	9
	25	69	946.5144	111.3915	-317.6137	1	336.5806	-70.67352	-1.56482E-005	0.0003638	9
	26	71	751.7689	118.718	-394.719	1	412.1857	-73.26051	-2.569577E-006	-0.0001931	9
	27	73	597.4265	126.2544	-488.6595	1	504.7062	-75.51335	2.426831E-006	-0.000646	8
	28	75	477.4305	137.2759	-605.0961	1	620.4724	-77.21788	2.716671E-007	0.0006355	8
	29	78	376.6741	153.994	-758.4328	1	773.9086	-78.52256	2.576406E-007	0.0006409	8
	30	80	298.2954	177.054	-946.7229	1	963.137	-79.40704	2.631358E-007	0.0006455	8
	31	82	237.7717	208.2869	-1173.167	1	1191.514	-79.93248	2.752515E-007	0.0006382	8
	32	85	189.0121	252.1273	-1456.328	1	1477.992	-80.178	2.678508E-007	0.0006459	8
	33	87	150.2404	313.6261	-1804.693	1	1831.741	-80.14139	2.817721E-007	0.0006403	8
	34	90	119.1737	399.53	-2237.693	1	2273.08	-79.87677	2.818918E-007	0.0006392	8
	35	92	95.0169	517.5604	-2754.364	1	2802.568	-79.35789	2.77047E-007	0.0006404	8
	36	95	75.60484	684.1807	-3388.623	1	3457.003	-78.58514	2.826183E-007	0.0006388	8
	37	97	54.50582	1038.094	-4532.82	1	4650.172	-77.10073	2.868871E-007	0.000635	8
	38	100	45.95588	1303.647	-5267.566	1	5426.486	-76.09943	-1.056277E-008	0.0006221	7
	39	102	37.20238	1727.778	-6299.581	1	6532.223	-74.6627	-7.648961E-009	0.0006135	7
	40	104	30.04808	2302.066	-7506.828	1	7851.877	-72.95116	-1.805293E-008	0.0006084	7
	41	107	23.91582	3111.89	-8981.808	1	9505.62	-70.89055	-2.222634E-008	0.0006143	7
	42	109	18.60119	4337.835	-10838.66	1	11674.47	-68.18778	-1.943423E-009	0.0006156	7
	43	112	15.02404	5691.834	-12570.73	1	13799.29	-65.63971	-5.707891E-009	0.0006266	7
	44	114	12.01923	7481.45	-14468.19	1	16288.05	-62.65667	-2.960333E-008	0.0006575	7
	45	116	9.450605	9918.5	-16496.89	1	19249	-58.98427	-1.497226E-008	0.0006308	7
	46	119	7.512019	12704.36	-18258.21	1	22243.27	-55.16918	-1.330977E-008	0.0006367	7
	47	122	5.978954	15950.71	-19613.96	1	25281.07	-50.88086	-2.048739E-008	0.0006204	7
	48	125	4.734848	19545.73	-20052.84	1	28002.71	-45.73371	-2.623466E-008	0.0006497	7
	49	129	3.75601	23086.88	-20130.88	1	30630.97	-41.0872	-2.888848E-008	0.0006155	7
	50	135	3.004808	26324.1	-19879.16	1	32986.96	-37.059	-3.540443E-008	0.0006566	7
	51	141	2.372217	29452.35	-19041.01	1	35071.37	-32.88276	-3.089859E-008	0.00065	7
	52	149	1.878005	32050.35	-17668.79	1	36597.96	-28.86718	-3.658924E-008	0.0005974	7
	53	158	1.512097	34260.02	-16747.51	1	38134.34	-26.05103	-7.107353E-008	0.0007603	6
	54	169	1.201923	36128.96	-15443.16	1	39291.13	-23.14406	-7.08199E-008	0.0006962	6
	55	181	0.956633	38156.22	-14461.65	1	40804.86	-20.75729	-1.029492E-007	3.213412E-005	6
