EXPLAIN
TAG	EISPOT
TITLE	LABEL	Potentiostatic EIS	Test Identifier
DATE	LABEL	8/21/2020	Date
TIME	LABEL	17:59:29	Time
NOTES	NOTES	1	Notes...
	
PSTAT	PSTAT	REF3000-16137	Potentiostat
VDC	POTEN	0.00000E+000	T	DC Voltage (V)
FREQINIT	QUANT	3.00000E+005	Initial Freq. (Hz)
FREQFINAL	QUANT	1.00000E+000	Final Freq. (Hz)
PTSPERDEC	QUANT	1.00000E+001	Points/decade
VAC	QUANT	5.00000E+001	AC Voltage (mV rms)
AREA	QUANT	1.00000E+000	Sample Area (cm^2)
SPEED	SELECTOR	2	Optimize for:
ZGUESS	QUANT	1.00000E+003	Estimated Z (ohms)
EOC	QUANT	0	Open Circuit (V)
SEQUENCER	TOGGLE	TRUE	Run as Sequence
PSTATMODEL	IQUANT	5	Pstat Model
PSTATSECTION	LABEL	REF3000-16137	Pstat Section
PSTATSERIALNO	LABEL	16137	Pstat Serial Number
CTRLMODE	IQUANT	1	Control Mode
IESTAB	IQUANT	0	I/E Stability
CASPEED	IQUANT	1	Control Amp Speed
CONVENTION	IQUANT	1	Current Convention
ICHRANGE	IQUANT	2	Ich Range
ICHRANGEMODE	TOGGLE	F	Ich Auto Range
ICHOFFSETENABLE	TOGGLE	T	Ich Offset Enable
ICHOFFSET	QUANT	0	Ich Offset (V)
ICHFILTER	IQUANT	3	Ich Filter
VCHRANGE	IQUANT	2	Vch Range
VCHRANGEMODE	TOGGLE	F	Vch Auto Range
VCHOFFSETENABLE	TOGGLE	T	Vch Offset Enable
VCHOFFSET	QUANT	0	Vch Offset (V)
VCHFILTER	IQUANT	3	Vch Filter
ACHRANGE	IQUANT	2	Ach Range
ACHOFFSETENABLE	TOGGLE	F	Ach Offset Enable
ACHOFFSET	QUANT	0	Ach Offset (V)
ACHFILTER	IQUANT	3	Ach Filter
IERANGELOWERLIMIT	IQUANT	2	I/E Range Lower Limit
IERANGEMODE	TOGGLE	F	I/E AutoRange
IERANGE	IQUANT	11	I/E Range
POSFEEDENABLE	TOGGLE	F	Positive Feedback IR Comp
POSFEEDRESISTANCE	QUANT	0	Positive Feedback Resistance (ohm)
ACHSELECT	IQUANT	0	Ach Select
CABLEID	IQUANT	13	Cable ID
DCCALDATE	LABEL	7/31/2020	DC Calibration Date
ACCALDATE	LABEL	7/31/2020	AC Calibration Date
THERMOSELECT	IQUANT	1	Thermo Select
FRAMEWORKVERSION	QUANT	6.33	Framework Version
INSTRUMENTVERSION	LABEL	3.50	Instrument Version
COMPLIANCEVOLTAGE	IQUANT	0	Compliance Voltage
ZCURVE	TABLE
	Pt	Time	Freq	Zreal	Zimag	Zsig	Zmod	Zphz	Idc	Vdc	IERange
	#	s	Hz	ohm	ohm	V	ohm	°	A	V	#
	0	14	300046.9	25.8129	-4929.522	1	4929.589	-89.69998	-2.260189E-005	0.0010096	9
	1	31	238359.4	-36.25392	-6124.147	1	6124.254	-90.33918	-6.232799E-005	0.0004345	9
	2	55	189328.1	-265.0631	-7444.906	1	7449.623	-92.03905	4.965387E-005	0.0001578	9
	3	70	150421.9	-116.5818	-9663.05	1	9663.75	-90.69122	8.444395E-005	-0.0033941	9
	4	77	119484.4	478.8204	-11770.66	1	11780.4	-87.67054	-1.198626E-005	0.0181046	8
	5	84	94921.88	589.1468	-14559.27	1	14571.18	-87.68277	-1.059367E-006	-0.0052142	8
	6	93	75421.88	831.9684	-18433.59	1	18452.36	-87.41581	-2.051521E-005	0.0027058	8
	7	102	59859.37	489.9937	-22814.28	1	22819.54	-88.76962	2.614499E-005	-0.0051699	8
	8	109	47578.12	4048.406	-30197.99	1	30468.15	-82.36433	-6.772205E-006	0.0119379	7
	9	117	37828.12	1356.024	-36474.26	1	36499.46	-87.87086	2.748863E-005	-0.0073683	8
	10	125	30046.88	1557.586	-45459.61	1	45486.29	-88.03764	-2.697435E-005	0.0096549	8
	11	134	23859.38	1788.063	-55278.45	1	55307.36	-88.14733	-2.023595E-005	0.0114288	8
	12	142	18984.38	2262.137	-72798.59	1	72833.73	-88.22017	-1.043171E-006	-0.0053209	8
	13	149	15046.87	5060.231	-88133.36	1	88278.51	-86.71394	-1.999649E-005	0.0114321	8
	14	157	11953.13	-14199.06	-106852.2	1	107791.5	-97.5694	-1.46899E-005	0.0003208	8
	15	164	9515.62	6284.522	-142391.6	1	142530.2	-87.47286	-5.379342E-006	0.0032998	7
	16	171	7546.875	9471.823	-177172.9	1	177425.9	-86.93983	7.696415E-006	-0.0244404	7
	17	177	5928.309	14269.77	-237198.8	1	237627.7	-86.55726	-5.415323E-006	0.0269543	7
	18	183	4733.456	-42009.74	-247432.6	1	250973.5	-99.6359	-1.580628E-005	0.0005298	8
	19	190	3796.875	14459.19	-352858.7	1	353154.8	-87.65349	3.837567E-007	0.0166524	7
	20	198	2987.132	39826.09	-475237.3	1	476903.1	-85.20966	-4.942252E-007	0.0011757	6
	21	203	2390.625	46598.12	-576263.9	1	578144.9	-85.37698	2.124932E-007	0.0108055	6
	22	208	1884.191	36570.78	-750681.9	1	751572.2	-87.21095	-6.924174E-007	0.0264243	6
	23	214	1516.544	-1315391	466137.9	1	1395542	160.4871	-2.509074E-005	0.0111108	8
	24	223	1193.986	-276867.8	-348034.9	1	444729.2	-128.5029	-2.046274E-005	0.0027695	8
	25	232	946.5144	-228705.4	114354.7	1	255701.3	153.4346	-1.075556E-006	-0.0051435	8
	26	239	751.7689	119192.5	-1749519	1	1753575	-86.10253	-5.398232E-008	-0.0151486	6
	27	242	597.4265	603379.9	-2003650	1	2092530	-73.24083	1.813677E-007	-0.0213271	6
	28	247	477.4305	77596.61	-2837541	1	2838602	-88.43356	-1.013538E-008	0.0006499	6
	29	250	376.6741	479307.8	-3701210	1	3732116	-82.62125	-9.777109E-010	0.0006165	5
	30	254	298.2954	510891	-4621680	1	4649832	-83.692	-9.884492E-010	0.000625	5
	31	256	237.7717	640981.1	-5759612	1	5795169	-83.64974	-1.054469E-009	0.0006404	5
	32	259	189.0121	538868.9	-7160051	1	7180300	-85.69601	-1.031674E-009	0.0006211	5
	33	262	150.2404	898844.6	-8847611	1	8893151	-84.19912	-1.023086E-009	0.0005958	5
	34	265	119.1737	-3380226	-1.285637E+007	1	1.329331E+007	-104.7309	-9.495891E-010	0.0005911	5
	35	267	95.0169	989668	-1.391885E+007	1	1.395399E+007	-85.93296	-1.066518E-009	0.0006606	5
	36	270	75.60484	503719.6	-1.835201E+007	1	1.835892E+007	-88.42776	-1.018712E-009	0.0006896	5
	37	273	54.50582	551629.8	-2.448247E+007	1	2.448868E+007	-88.70925	-9.852668E-010	0.0006211	5
	38	276	45.95588	519059.7	-2.733125E+007	1	2.733618E+007	-88.912	-1.085298E-009	0.0006838	5
	39	280	37.20238	1383184	-3.303032E+007	1	3.305927E+007	-87.60207	-1.050947E-009	0.0005927	5
	40	284	30.04808	1824545	-4.415891E+007	1	4.419658E+007	-87.63402	-1.059885E-009	0.0006206	5
	41	288	23.91582	5212810	-5.764331E+007	1	5.787853E+007	-84.83267	-9.37739E-011	0.0005876	4
	42	292	18.60119	-2.922974E+007	-8.774044E+007	1	9.248114E+007	-108.4249	9.359238E-011	0.0006187	4
	43	295	15.02404	8268157	-8.84162E+007	1	8.880195E+007	-84.65758	-8.588166E-011	0.0006309	4
	44	299	12.01923	7345640	-1.109144E+008	1	1.111574E+008	-86.21095	-1.014536E-010	0.0006766	4
	45	303	9.450605	1.124526E+007	-1.359287E+008	1	1.363931E+008	-85.27074	-8.907864E-011	0.0006099	4
	46	307	7.512019	9.588659E+006	-1.724416E+008	1	1.72708E+008	-86.81733	-9.388875E-011	0.000617	4
	47	311	5.978954	1.625041E+007	-2.237357E+008	1	2.243251E+008	-85.84578	-8.906199E-011	0.0006804	4
	48	317	4.734848	4.688865E+007	-2.887255E+008	1	2.92508E+008	-80.77576	-8.162086E-012	0.0007257	3
	49	322	3.75601	1.811295E+007	-3.430624E+008	1	3.435403E+008	-86.97771	-1.004292E-009	0.0006076	5
	50	330	3.004808	5.095326E+007	-4.562136E+008	1	4.590502E+008	-83.6272	-1.093567E-009	0.0006308	5
	51	339	2.372217	5.934534E+007	-5.48843E+008	1	5.520421E+008	-83.8287	-9.196716E-012	0.0007253	3
	52	345	1.878005	6.714607E+007	-6.856804E+008	1	6.889603E+008	-84.40707	-8.600873E-012	0.0006997	3
	53	354	1.512097	7.156348E+007	-8.486991E+008	1	8.517109E+008	-85.18015	-8.824956E-012	0.0007778	3
	54	360	1.201923	8.442849E+007	-1.063344E+009	1	1.06669E+009	-85.4603	-8.679392E-012	0.000714	3
	55	373	0.956633	1.004356E+008	-1.328209E+009	1	1.332001E+009	-85.67567	-8.717837E-012	8.161864E-005	3
