EXPLAIN
TAG	EISPOT
TITLE	LABEL	Potentiostatic EIS	Test Identifier
DATE	LABEL	8/21/2020	Date
TIME	LABEL	19:15:10	Time
NOTES	NOTES	1	Notes...
	
PSTAT	PSTAT	REF3000-16137	Potentiostat
VDC	POTEN	0.00000E+000	T	DC Voltage (V)
FREQINIT	QUANT	3.00000E+005	Initial Freq. (Hz)
FREQFINAL	QUANT	1.00000E+000	Final Freq. (Hz)
PTSPERDEC	QUANT	1.00000E+001	Points/decade
VAC	QUANT	5.00000E+001	AC Voltage (mV rms)
AREA	QUANT	1.00000E+000	Sample Area (cm^2)
SPEED	SELECTOR	2	Optimize for:
ZGUESS	QUANT	1.00000E+003	Estimated Z (ohms)
EOC	QUANT	0	Open Circuit (V)
SEQUENCER	TOGGLE	TRUE	Run as Sequence
PSTATMODEL	IQUANT	5	Pstat Model
PSTATSECTION	LABEL	REF3000-16137	Pstat Section
PSTATSERIALNO	LABEL	16137	Pstat Serial Number
CTRLMODE	IQUANT	1	Control Mode
IESTAB	IQUANT	0	I/E Stability
CASPEED	IQUANT	1	Control Amp Speed
CONVENTION	IQUANT	1	Current Convention
ICHRANGE	IQUANT	2	Ich Range
ICHRANGEMODE	TOGGLE	F	Ich Auto Range
ICHOFFSETENABLE	TOGGLE	T	Ich Offset Enable
ICHOFFSET	QUANT	0	Ich Offset (V)
ICHFILTER	IQUANT	3	Ich Filter
VCHRANGE	IQUANT	2	Vch Range
VCHRANGEMODE	TOGGLE	F	Vch Auto Range
VCHOFFSETENABLE	TOGGLE	T	Vch Offset Enable
VCHOFFSET	QUANT	0	Vch Offset (V)
VCHFILTER	IQUANT	3	Vch Filter
ACHRANGE	IQUANT	2	Ach Range
ACHOFFSETENABLE	TOGGLE	F	Ach Offset Enable
ACHOFFSET	QUANT	0	Ach Offset (V)
ACHFILTER	IQUANT	3	Ach Filter
IERANGELOWERLIMIT	IQUANT	2	I/E Range Lower Limit
IERANGEMODE	TOGGLE	F	I/E AutoRange
IERANGE	IQUANT	11	I/E Range
POSFEEDENABLE	TOGGLE	F	Positive Feedback IR Comp
POSFEEDRESISTANCE	QUANT	0	Positive Feedback Resistance (ohm)
ACHSELECT	IQUANT	0	Ach Select
CABLEID	IQUANT	13	Cable ID
DCCALDATE	LABEL	7/31/2020	DC Calibration Date
ACCALDATE	LABEL	7/31/2020	AC Calibration Date
THERMOSELECT	IQUANT	1	Thermo Select
FRAMEWORKVERSION	QUANT	6.33	Framework Version
INSTRUMENTVERSION	LABEL	3.50	Instrument Version
COMPLIANCEVOLTAGE	IQUANT	0	Compliance Voltage
ZCURVE	TABLE
	Pt	Time	Freq	Zreal	Zimag	Zsig	Zmod	Zphz	Idc	Vdc	IERange
	#	s	Hz	ohm	ohm	V	ohm	°	A	V	#
	0	6	300046.9	50.73573	-1.614759	1	50.76142	-1.822929	-6.389296E-005	0.0013031	9
	1	10	238359.4	50.98795	-2.837945	1	51.06687	-3.185747	2.95703E-005	-0.000393	9
	2	13	189328.1	51.28569	-3.942028	1	51.43697	-4.395346	-1.056644E-005	-0.0009507	9
	3	15	150421.9	51.76498	-5.243233	1	52.02984	-5.783718	-1.306701E-005	-0.0006615	9
	4	18	119484.4	52.29095	-6.625015	1	52.70896	-7.220633	-4.142706E-005	0.0009151	9
	5	20	94921.88	53.0114	-8.024067	1	53.61525	-8.607234	-1.149377E-005	0.0006231	9
	6	23	75421.88	53.83417	-9.80258	1	54.71936	-10.31984	7.939843E-006	-0.000459	9
	7	25	59859.37	54.80757	-11.82779	1	56.0693	-12.178	-7.973663E-006	0.0006284	9
	8	28	47578.12	56.00152	-14.02504	1	57.73103	-14.05999	-1.240204E-005	0.0002237	9
	9	31	37828.12	57.36201	-16.50281	1	59.68872	-16.05031	-1.497125E-005	0.0006604	9
	10	33	30046.88	58.90969	-19.30279	1	61.99152	-18.14228	1.547503E-005	-0.0005479	9
	11	36	23859.38	60.60413	-22.51862	1	64.65253	-20.38351	1.2721E-005	-0.0005326	9
	12	38	18984.38	62.41366	-26.28395	1	67.72231	-22.83717	1.843295E-005	-0.000547	9
	13	40	15046.87	64.3599	-30.74547	1	71.32658	-25.53435	1.806431E-005	-0.0001353	9
	14	43	11953.13	66.33037	-36.03525	1	75.4868	-28.51387	-1.597683E-005	0.0007103	9
	15	45	9515.62	68.44033	-42.35556	1	80.48647	-31.75206	-1.520189E-005	0.0004588	9
	16	47	7546.875	70.50971	-50.42856	1	86.68713	-35.57236	-1.683809E-005	0.0004459	9
	17	49	5928.309	72.58775	-60.66632	1	94.60118	-39.88771	1.838663E-005	-0.0005303	9
	18	52	4733.456	74.46998	-72.85085	1	104.1778	-44.37032	-1.582887E-005	0.0006509	9
	19	54	3796.875	76.24675	-87.86	1	116.3312	-49.04787	2.086549E-006	0.0003651	9
	20	56	2987.132	78.13708	-108.423	1	133.6449	-54.22087	1.705096E-005	-0.0001476	9
	21	59	2390.625	79.97472	-132.7368	1	154.9678	-58.93079	-9.447514E-006	0.0006111	9
	22	61	1884.191	82.55508	-165.5098	1	184.9563	-63.49031	-1.318729E-005	0.0006888	9
	23	63	1516.544	85.66871	-202.1341	1	219.5389	-67.03174	-1.250289E-005	0.0002136	9
	24	66	1193.986	89.06256	-253.9454	1	269.1104	-70.67345	1.686111E-005	-0.0001394	9
	25	68	946.5144	95.5885	-315.6313	1	329.7882	-73.15115	-1.291351E-005	0.0002526	9
	26	71	751.7689	100.3401	-393.5801	1	406.1693	-75.69757	-1.296972E-005	0.0006856	9
	27	73	597.4265	109.7518	-489.89	1	502.0335	-77.37233	1.193025E-006	-0.0001906	8
	28	75	477.4305	121.3372	-606.5782	1	618.5951	-78.68811	3.263933E-007	0.0006503	8
	29	77	376.6741	138.5888	-760.6322	1	773.1547	-79.67386	3.35421E-007	0.0006485	8
	30	80	298.2954	162.0668	-949.8305	1	963.558	-80.31704	3.403778E-007	0.0006535	8
	31	82	237.7717	193.6561	-1177.546	1	1193.364	-80.66089	3.45865E-007	0.0006504	8
	32	85	189.0121	237.8489	-1462.26	1	1481.478	-80.76127	3.488306E-007	0.0006541	8
	33	87	150.2404	299.1395	-1813.191	1	1837.701	-80.63175	3.491755E-007	0.0006566	8
	34	89	119.1737	385.3893	-2248.956	1	2281.738	-80.27604	3.54054E-007	0.0006498	8
	35	92	95.0169	502.1856	-2770.4	1	2815.547	-79.72565	3.267697E-007	0.0006797	8
	36	94	75.60484	666.295	-3411.882	1	3476.333	-78.94997	3.393739E-007	0.0006504	8
	37	97	54.50582	1016.558	-4569.326	1	4681.04	-77.45743	3.350522E-007	0.0006424	8
	38	99	45.95588	1279.045	-5317.948	1	5469.601	-76.47639	3.445609E-008	0.0006199	7
	39	102	37.20238	1697.995	-6371.432	1	6593.81	-75.07743	3.152829E-008	0.000622	7
	40	104	30.04808	2262.045	-7610.785	1	7939.83	-73.44722	2.121738E-008	0.0006307	7
	41	107	23.91582	3074.96	-9140.131	1	9643.51	-71.40582	2.740363E-008	0.0006173	7
	42	109	18.60119	4259.087	-11044.25	1	11837.03	-68.91144	3.606969E-008	0.0006341	7
	43	111	15.02404	5588.928	-12859.14	1	14021.18	-66.50893	2.462653E-008	0.0006128	7
	44	113	12.01923	7343.535	-14868.3	1	16582.94	-63.71498	3.075309E-008	0.0006213	7
	45	116	9.450605	9726.26	-17125.07	1	19694.37	-60.40539	3.612535E-008	0.0006278	7
	46	118	7.512019	12457.67	-19265.85	1	22942.68	-57.1125	3.790959E-008	0.0006321	7
	47	121	5.978954	15674.44	-21247.3	1	26403.33	-53.58327	3.497923E-008	0.0006271	7
	48	124	4.734848	19428.03	-23099.61	1	30183.44	-49.93434	2.215905E-008	0.0006061	7
	49	128	3.75601	23520.53	-24295.49	1	33815.47	-45.92852	3.790906E-008	0.0006449	7
	50	131	3.004808	27663.94	-25080.25	1	37340.49	-42.19559	3.158498E-008	0.0006251	7
	51	135	2.372217	32073.04	-25224.26	1	40803.71	-38.18375	-6.951438E-009	0.0006059	6
	52	139	1.878005	35968.31	-24029.37	1	43256.56	-33.74572	-5.957161E-009	0.0006686	6
	53	148	1.512097	39049.41	-22828.06	1	45232.48	-30.31031	-8.357083E-009	0.0006056	6
	54	159	1.201923	42173.27	-21672.14	1	47415.88	-27.19788	-1.07929E-008	0.0006948	6
	55	171	0.956633	45151.39	-20593.28	1	49625.91	-24.51744	-3.025477E-008	2.877455E-005	6
