EXPLAIN
TAG	EISPOT
TITLE	LABEL	Potentiostatic EIS	Test Identifier
DATE	LABEL	8/21/2020	Date
TIME	LABEL	18:12:07	Time
NOTES	NOTES	1	Notes...
	
PSTAT	PSTAT	REF3000-16137	Potentiostat
VDC	POTEN	0.00000E+000	T	DC Voltage (V)
FREQINIT	QUANT	3.00000E+005	Initial Freq. (Hz)
FREQFINAL	QUANT	1.00000E+000	Final Freq. (Hz)
PTSPERDEC	QUANT	1.00000E+001	Points/decade
VAC	QUANT	5.00000E+001	AC Voltage (mV rms)
AREA	QUANT	1.00000E+000	Sample Area (cm^2)
SPEED	SELECTOR	2	Optimize for:
ZGUESS	QUANT	1.00000E+003	Estimated Z (ohms)
EOC	QUANT	0	Open Circuit (V)
SEQUENCER	TOGGLE	TRUE	Run as Sequence
PSTATMODEL	IQUANT	5	Pstat Model
PSTATSECTION	LABEL	REF3000-16137	Pstat Section
PSTATSERIALNO	LABEL	16137	Pstat Serial Number
CTRLMODE	IQUANT	1	Control Mode
IESTAB	IQUANT	0	I/E Stability
CASPEED	IQUANT	1	Control Amp Speed
CONVENTION	IQUANT	1	Current Convention
ICHRANGE	IQUANT	2	Ich Range
ICHRANGEMODE	TOGGLE	F	Ich Auto Range
ICHOFFSETENABLE	TOGGLE	T	Ich Offset Enable
ICHOFFSET	QUANT	0	Ich Offset (V)
ICHFILTER	IQUANT	3	Ich Filter
VCHRANGE	IQUANT	2	Vch Range
VCHRANGEMODE	TOGGLE	F	Vch Auto Range
VCHOFFSETENABLE	TOGGLE	T	Vch Offset Enable
VCHOFFSET	QUANT	0	Vch Offset (V)
VCHFILTER	IQUANT	3	Vch Filter
ACHRANGE	IQUANT	2	Ach Range
ACHOFFSETENABLE	TOGGLE	F	Ach Offset Enable
ACHOFFSET	QUANT	0	Ach Offset (V)
ACHFILTER	IQUANT	3	Ach Filter
IERANGELOWERLIMIT	IQUANT	2	I/E Range Lower Limit
IERANGEMODE	TOGGLE	F	I/E AutoRange
IERANGE	IQUANT	11	I/E Range
POSFEEDENABLE	TOGGLE	F	Positive Feedback IR Comp
POSFEEDRESISTANCE	QUANT	0	Positive Feedback Resistance (ohm)
ACHSELECT	IQUANT	0	Ach Select
CABLEID	IQUANT	13	Cable ID
DCCALDATE	LABEL	7/31/2020	DC Calibration Date
ACCALDATE	LABEL	7/31/2020	AC Calibration Date
THERMOSELECT	IQUANT	1	Thermo Select
FRAMEWORKVERSION	QUANT	6.33	Framework Version
INSTRUMENTVERSION	LABEL	3.50	Instrument Version
COMPLIANCEVOLTAGE	IQUANT	0	Compliance Voltage
ZCURVE	TABLE
	Pt	Time	Freq	Zreal	Zimag	Zsig	Zmod	Zphz	Idc	Vdc	IERange
	#	s	Hz	ohm	ohm	V	ohm	°	A	V	#
	0	20	300046.9	-11.03746	-4771.235	1	4771.248	-90.13255	-2.336671E-005	0.0015467	9
	1	34	238359.4	-46.28643	-5918.025	1	5918.206	-90.44811	7.886109E-005	-0.0016668	9
	2	61	189328.1	93.43759	-7510.458	1	7511.039	-89.28722	8.789735E-005	-0.0025063	9
	3	70	150421.9	-29.33121	-9419.409	1	9419.455	-90.17841	1.881247E-005	-0.0020686	9
	4	80	119484.4	337.7697	-11547.23	1	11552.17	-88.32451	-4.735821E-006	-0.0154068	8
	5	88	94921.88	465.3579	-14654.4	1	14661.79	-88.18115	8.36871E-006	-0.0078998	8
	6	96	75421.88	696.0637	-18162.78	1	18176.11	-87.80529	1.642668E-005	-0.0093496	8
	7	105	59859.37	886.6437	-22844.62	1	22861.82	-87.77736	8.229184E-006	0.004279	8
	8	112	47578.12	4263.975	-29951.26	1	30253.26	-81.8976	2.775493E-006	0.0085722	7
	9	119	37828.12	4791.798	-36934.46	1	37244	-82.60786	4.011267E-007	0.0164548	7
	10	126	30046.88	5314.061	-45960.26	1	46266.46	-83.40458	1.354514E-006	-0.0203123	7
	11	134	23859.38	5685.467	-57360.66	1	57641.74	-84.33945	7.810705E-006	-0.0248271	7
	12	139	18984.38	6984.405	-71430.76	1	71771.41	-84.41544	7.672656E-006	-0.0186628	7
	13	144	15046.87	7743.493	-87369.34	1	87711.81	-84.93514	7.472272E-006	-0.0231781	7
	14	151	11953.13	12982.96	-111168.9	1	111924.4	-83.33883	4.099027E-007	0.0165578	7
	15	157	9515.62	18170.08	-137231.7	1	138429.4	-82.45766	-1.095718E-006	-0.0135681	7
	16	163	7546.875	28764.42	-162547	1	165072.4	-79.96479	-7.368314E-006	0.0237194	7
	17	169	5928.309	40235.68	-218757.7	1	222427.1	-79.57818	7.635193E-006	-0.018484	7
	18	175	4733.456	74415.54	-240273.6	1	251533.4	-72.79163	-3.828147E-006	0.025759	7
	19	181	3796.875	106223.1	-272149	1	292144.5	-68.67868	-1.878476E-006	0.0222488	7
	20	187	2987.132	-159872.1	-611924.9	1	632464.4	-104.6419	1.639483E-005	-0.0093596	8
	21	196	2390.625	254469.7	-261572.6	1	364931.5	-45.78858	-5.483751E-006	0.0270541	7
	22	204	1884.191	288746.4	-21217.4	1	289524.9	-4.202603	-2.011482E-005	0.0114467	8
	23	211	1516.544	261183.9	-107607.8	1	282482.7	-22.39168	-2.017734E-005	0.0114519	8
	24	219	1193.986	185827.3	-82765.43	1	203425.4	-24.00767	3.541901E-006	-0.02473	7
	25	227	946.5144	196815.8	-33963.77	1	199724.8	-9.79089	-3.341055E-006	-0.0054537	7
	26	230	751.7689	160642.1	-62769.2	1	172469.9	-21.34254	-1.000202E-006	-0.0137297	7
	27	234	597.4265	169972.7	-39978.62	1	174611	-13.23575	7.324265E-007	-0.0159065	6
	28	237	477.4305	163439.9	-33382.34	1	166814.2	-11.54379	-9.755303E-009	0.0006137	6
	29	239	376.6741	157135.6	-29622.26	1	159903.3	-10.67577	-1.013723E-008	0.0006956	6
	30	241	298.2954	150390.7	-26644	1	152732.6	-10.04657	-1.013046E-008	0.0006567	6
	31	244	237.7717	143074.9	-24762.16	1	145201.9	-9.81899	-1.016968E-008	0.0006332	6
	32	246	189.0121	136020	-23473.71	1	138030.7	-9.7914	-9.782956E-009	0.0006672	6
	33	248	150.2404	129314.7	-22962.04	1	131337.5	-10.0689	-1.065525E-008	0.0007348	6
	34	251	119.1737	123752.1	-22399.16	1	125762.9	-10.25947	-1.016128E-008	0.0006813	6
	35	253	95.0169	117219.7	-22968.27	1	119448.7	-11.0862	-1.035335E-008	0.0006983	6
	36	256	75.60484	111325.8	-23626.16	1	113805.3	-11.98184	-9.567866E-009	0.0006442	6
	37	258	54.50582	106999.3	-25941.89	1	110099.2	-13.62834	-1.010447E-008	0.0006976	6
	38	261	45.95588	102115.6	-26759.07	1	105563.5	-14.68401	-1.114381E-008	0.0007296	6
	39	263	37.20238	98241.7	-28570.01	1	102311.6	-16.21515	-7.815757E-009	0.0006229	6
	40	265	30.04808	94582.63	-30612.94	1	99413.4	-17.93487	-1.114927E-008	0.0006126	6
	41	268	23.91582	91400.7	-33373.77	1	97303.1	-20.059	-1.127163E-008	0.0006873	6
	42	270	18.60119	89547.95	-37558.53	1	97105.5	-22.75433	-4.948034E-009	0.0006908	6
	43	273	15.02404	87375.53	-41125.72	1	96570.2	-25.20532	-6.895898E-009	0.0006281	6
	44	275	12.01923	85298.29	-45786.12	1	96810	-28.22586	-1.233918E-008	0.0006081	6
	45	277	9.450605	83286.16	-52132.77	1	98256.9	-32.04441	-8.084378E-009	0.000616	6
	46	280	7.512019	81249.57	-59559.37	1	100741.3	-36.24299	-1.10976E-008	0.0007167	6
	47	283	5.978954	78419.19	-68894.88	1	104384.3	-41.3008	-9.608653E-009	0.0006121	6
	48	286	4.734848	75421.17	-81343.87	1	110928.7	-47.16365	-9.841323E-009	0.0007163	6
	49	289	3.75601	72707.34	-97267	1	121438.2	-53.2218	-1.071947E-008	0.0006755	6
	50	292	3.004808	70860.7	-116641.4	1	136478.8	-58.72095	-9.881892E-009	0.0006258	6
	51	296	2.372217	70835.09	-141973.2	1	158663.2	-63.48389	-9.840851E-009	0.0006915	6
	52	300	1.878005	72750.72	-173233.3	1	187889.5	-67.21964	-1.036369E-008	0.0006301	6
	53	305	1.512097	76605.55	-206536	1	220285.1	-69.64986	-9.838106E-009	0.000682	6
	54	310	1.201923	85235.26	-249011.3	1	263195.1	-71.10419	-9.778557E-009	0.0006229	6
	55	317	0.956633	98409.7	-297500.4	1	313354.4	-71.69639	-1.04385E-008	1.43182E-005	6
