EXPLAIN
TAG	EISPOT
TITLE	LABEL	Potentiostatic EIS	Test Identifier
DATE	LABEL	8/21/2020	Date
TIME	LABEL	15:45:28	Time
NOTES	NOTES	1	Notes...
	
PSTAT	PSTAT	REF3000-16137	Potentiostat
VDC	POTEN	0.00000E+000	T	DC Voltage (V)
FREQINIT	QUANT	3.00000E+005	Initial Freq. (Hz)
FREQFINAL	QUANT	1.00000E+000	Final Freq. (Hz)
PTSPERDEC	QUANT	1.00000E+001	Points/decade
VAC	QUANT	5.00000E+001	AC Voltage (mV rms)
AREA	QUANT	1.00000E+000	Sample Area (cm^2)
SPEED	SELECTOR	2	Optimize for:
ZGUESS	QUANT	1.00000E+003	Estimated Z (ohms)
EOC	QUANT	0	Open Circuit (V)
SEQUENCER	TOGGLE	TRUE	Run as Sequence
PSTATMODEL	IQUANT	5	Pstat Model
PSTATSECTION	LABEL	REF3000-16137	Pstat Section
PSTATSERIALNO	LABEL	16137	Pstat Serial Number
CTRLMODE	IQUANT	1	Control Mode
IESTAB	IQUANT	0	I/E Stability
CASPEED	IQUANT	1	Control Amp Speed
CONVENTION	IQUANT	1	Current Convention
ICHRANGE	IQUANT	2	Ich Range
ICHRANGEMODE	TOGGLE	F	Ich Auto Range
ICHOFFSETENABLE	TOGGLE	T	Ich Offset Enable
ICHOFFSET	QUANT	0	Ich Offset (V)
ICHFILTER	IQUANT	3	Ich Filter
VCHRANGE	IQUANT	2	Vch Range
VCHRANGEMODE	TOGGLE	F	Vch Auto Range
VCHOFFSETENABLE	TOGGLE	T	Vch Offset Enable
VCHOFFSET	QUANT	0	Vch Offset (V)
VCHFILTER	IQUANT	3	Vch Filter
ACHRANGE	IQUANT	2	Ach Range
ACHOFFSETENABLE	TOGGLE	F	Ach Offset Enable
ACHOFFSET	QUANT	0	Ach Offset (V)
ACHFILTER	IQUANT	3	Ach Filter
IERANGELOWERLIMIT	IQUANT	2	I/E Range Lower Limit
IERANGEMODE	TOGGLE	F	I/E AutoRange
IERANGE	IQUANT	11	I/E Range
POSFEEDENABLE	TOGGLE	F	Positive Feedback IR Comp
POSFEEDRESISTANCE	QUANT	0	Positive Feedback Resistance (ohm)
ACHSELECT	IQUANT	0	Ach Select
CABLEID	IQUANT	13	Cable ID
DCCALDATE	LABEL	7/31/2020	DC Calibration Date
ACCALDATE	LABEL	7/31/2020	AC Calibration Date
THERMOSELECT	IQUANT	1	Thermo Select
FRAMEWORKVERSION	QUANT	6.33	Framework Version
INSTRUMENTVERSION	LABEL	3.50	Instrument Version
COMPLIANCEVOLTAGE	IQUANT	0	Compliance Voltage
ZCURVE	TABLE
	Pt	Time	Freq	Zreal	Zimag	Zsig	Zmod	Zphz	Idc	Vdc	IERange
	#	s	Hz	ohm	ohm	V	ohm	°	A	V	#
	0	7	300046.9	85.40632	-2.792028	1	85.45194	-1.872396	-2.33263E-006	0.0006988	9
	1	10	238359.4	86.01318	-4.039125	1	86.10797	-2.688599	1.128122E-005	0.0005462	9
	2	13	189328.1	86.91793	-5.25169	1	87.07645	-3.457679	-1.345391E-005	-0.0010828	9
	3	16	150421.9	87.12261	-6.587734	1	87.37132	-4.324164	-1.19961E-005	0.0010845	9
	4	18	119484.4	87.92079	-8.107855	1	88.29385	-5.268785	4.774591E-005	-0.0003542	9
	5	21	94921.88	88.7804	-9.67427	1	89.30594	-6.218899	-1.476149E-005	0.000131	9
	6	23	75421.88	89.72742	-11.90858	1	90.51423	-7.560088	-2.379767E-006	-0.0002911	9
	7	26	59859.37	90.95734	-14.41668	1	92.09277	-9.006423	1.846146E-005	-0.0006839	9
	8	29	47578.12	92.52901	-17.17474	1	94.10946	-10.51527	-1.728028E-005	0.0008389	9
	9	31	37828.12	94.3596	-20.37372	1	96.534	-12.18402	-2.267082E-006	-0.000261	9
	10	34	30046.88	96.4863	-23.9029	1	99.403	-13.91396	-1.607307E-007	0.0005729	9
	11	36	23859.38	99.0661	-27.97744	1	102.9409	-15.7703	-1.721063E-005	0.0007829	9
	12	38	18984.38	101.7855	-32.57056	1	106.8697	-17.74426	-1.927195E-005	0.0004513	9
	13	41	15046.87	104.9174	-37.82984	1	111.5292	-19.82767	-2.432771E-006	-0.0002485	9
	14	43	11953.13	108.1351	-44.14939	1	116.8006	-22.20921	-1.378849E-005	0.0007869	9
	15	45	9515.62	111.6996	-51.34913	1	122.9371	-24.6886	2.3442E-005	-0.0005459	9
	16	48	7546.875	115.5716	-60.34503	1	130.3776	-27.57104	-9.342834E-006	-2.009866E-006	9
	17	50	5928.309	119.4197	-71.09542	1	138.9807	-30.76706	2.411765E-005	-0.0004608	9
	18	52	4733.456	123.247	-83.69352	1	148.978	-34.1793	-5.62009E-006	0.0006721	9
	19	55	3796.875	127.0192	-98.5298	1	160.7545	-37.80103	4.77797E-006	-0.0004365	9
	20	57	2987.132	130.7999	-119.3964	1	177.0991	-42.39036	1.203137E-005	0.0001347	9
	21	59	2390.625	134.2108	-143.2807	1	196.3209	-46.87206	-1.25132E-005	0.0001071	9
	22	62	1884.191	137.8694	-176.234	1	223.7552	-51.96361	1.129768E-005	0.0001591	9
	23	64	1516.544	140.9671	-213.7276	1	256.0297	-56.59259	-1.856646E-005	0.0007344	9
	24	66	1193.986	145.9858	-265.9226	1	303.359	-61.23416	5.175245E-006	-0.0004734	9
	25	69	946.5144	150.3035	-330.7095	1	363.2629	-65.55878	1.801863E-005	-0.0001432	9
	26	71	751.7689	157.1954	-411.4918	1	440.495	-69.09247	1.180126E-005	-0.0006045	9
	27	73	597.4265	164.1488	-508.5917	1	534.4252	-72.11243	-2.831427E-006	0.0025349	8
	28	76	477.4305	174.1624	-629.6653	1	653.3077	-74.53881	2.450805E-007	0.0006389	8
	29	78	376.6741	188.2831	-789.8027	1	811.9352	-76.59138	2.531708E-007	0.0006426	8
	30	80	298.2954	206.9681	-987.177	1	1008.64	-78.15908	2.518957E-007	0.0006471	8
	31	83	237.7717	231.385	-1225.759	1	1247.407	-79.31013	2.618819E-007	0.0006365	8
	32	85	189.0121	264.7492	-1525.228	1	1548.035	-80.15271	2.454209E-007	0.0006366	8
	33	87	150.2404	309.7864	-1896.444	1	1921.579	-80.7226	2.504332E-007	0.0006444	8
	34	90	119.1737	370.9712	-2360.894	1	2389.862	-81.07004	2.587979E-007	0.0006366	8
	35	92	95.0169	452.5399	-2921.859	1	2956.696	-81.19594	2.552698E-007	0.0006408	8
	36	95	75.60484	563.3391	-3618.924	1	3662.508	-81.15208	2.514653E-007	0.0006347	8
	37	97	54.50582	796.3593	-4915.145	1	4979.24	-80.79682	2.879396E-008	0.0005994	7
	38	100	45.95588	964.234	-5753.717	1	5833.953	-80.48651	3.972502E-008	0.0006091	7
	39	102	37.20238	1232.389	-6980.042	1	7088.002	-79.98711	3.896704E-008	0.0006023	7
	40	105	30.04808	1599.193	-8483.174	1	8632.593	-79.32426	3.496861E-008	0.0006044	7
	41	107	23.91582	2118.614	-10394.63	1	10608.34	-78.47988	3.558681E-008	0.0006049	7
	42	109	18.60119	2929.795	-12983.58	1	13310.04	-77.28397	4.262852E-008	0.00061	7
	43	112	15.02404	3869.38	-15623.31	1	16095.34	-76.08962	4.280821E-008	0.0006155	7
	44	114	12.01923	5172.766	-18864.79	1	19561.13	-74.66626	2.544688E-008	0.0006557	7
	45	116	9.450605	7065.875	-22957.43	1	24020.21	-72.8926	3.916841E-008	0.0006098	7
	46	119	7.512019	9462.337	-27468.6	1	29052.71	-70.99229	4.065546E-008	0.0006271	7
	47	122	5.978954	12576.96	-32596.66	1	34938.84	-68.9016	3.808401E-008	0.000612	7
	48	125	4.734848	16661.85	-38504.66	1	41955.04	-66.60075	3.582286E-008	0.0006123	7
	49	128	3.75601	21749.52	-44871.65	1	49864.89	-64.14029	1.430644E-008	0.0006615	6
	50	131	3.004808	27807.08	-51443.49	1	58477.92	-61.60716	9.230298E-009	0.0006827	6
	51	135	2.372217	35641.43	-58759.36	1	68723.9	-58.76043	1.105609E-008	0.0007105	6
	52	139	1.878005	45065.79	-65778.41	1	79735.34	-55.58436	1.009503E-008	0.0006266	6
	53	144	1.512097	55132.49	-72146.18	1	90800.13	-52.61375	7.752096E-009	0.0007461	6
	54	149	1.201923	67266.86	-78338.65	1	103255.9	-49.34838	7.999725E-009	0.0006213	6
	55	156	0.956633	80898.04	-83360.05	1	116161.1	-45.85873	1.518601E-009	7.966937E-006	6
