EXPLAIN
TAG	EISPOT
TITLE	LABEL	Potentiostatic EIS	Test Identifier
DATE	LABEL	8/21/2020	Date
TIME	LABEL	17:16:17	Time
NOTES	NOTES	1	Notes...
	
PSTAT	PSTAT	REF3000-16137	Potentiostat
VDC	POTEN	0.00000E+000	T	DC Voltage (V)
FREQINIT	QUANT	3.00000E+005	Initial Freq. (Hz)
FREQFINAL	QUANT	1.00000E+000	Final Freq. (Hz)
PTSPERDEC	QUANT	1.00000E+001	Points/decade
VAC	QUANT	5.00000E+001	AC Voltage (mV rms)
AREA	QUANT	1.00000E+000	Sample Area (cm^2)
SPEED	SELECTOR	2	Optimize for:
ZGUESS	QUANT	1.00000E+003	Estimated Z (ohms)
EOC	QUANT	0	Open Circuit (V)
SEQUENCER	TOGGLE	TRUE	Run as Sequence
PSTATMODEL	IQUANT	5	Pstat Model
PSTATSECTION	LABEL	REF3000-16137	Pstat Section
PSTATSERIALNO	LABEL	16137	Pstat Serial Number
CTRLMODE	IQUANT	1	Control Mode
IESTAB	IQUANT	0	I/E Stability
CASPEED	IQUANT	1	Control Amp Speed
CONVENTION	IQUANT	1	Current Convention
ICHRANGE	IQUANT	2	Ich Range
ICHRANGEMODE	TOGGLE	F	Ich Auto Range
ICHOFFSETENABLE	TOGGLE	T	Ich Offset Enable
ICHOFFSET	QUANT	0	Ich Offset (V)
ICHFILTER	IQUANT	3	Ich Filter
VCHRANGE	IQUANT	2	Vch Range
VCHRANGEMODE	TOGGLE	F	Vch Auto Range
VCHOFFSETENABLE	TOGGLE	T	Vch Offset Enable
VCHOFFSET	QUANT	0	Vch Offset (V)
VCHFILTER	IQUANT	3	Vch Filter
ACHRANGE	IQUANT	2	Ach Range
ACHOFFSETENABLE	TOGGLE	F	Ach Offset Enable
ACHOFFSET	QUANT	0	Ach Offset (V)
ACHFILTER	IQUANT	3	Ach Filter
IERANGELOWERLIMIT	IQUANT	2	I/E Range Lower Limit
IERANGEMODE	TOGGLE	F	I/E AutoRange
IERANGE	IQUANT	11	I/E Range
POSFEEDENABLE	TOGGLE	F	Positive Feedback IR Comp
POSFEEDRESISTANCE	QUANT	0	Positive Feedback Resistance (ohm)
ACHSELECT	IQUANT	0	Ach Select
CABLEID	IQUANT	13	Cable ID
DCCALDATE	LABEL	7/31/2020	DC Calibration Date
ACCALDATE	LABEL	7/31/2020	AC Calibration Date
THERMOSELECT	IQUANT	1	Thermo Select
FRAMEWORKVERSION	QUANT	6.33	Framework Version
INSTRUMENTVERSION	LABEL	3.50	Instrument Version
COMPLIANCEVOLTAGE	IQUANT	0	Compliance Voltage
ZCURVE	TABLE
	Pt	Time	Freq	Zreal	Zimag	Zsig	Zmod	Zphz	Idc	Vdc	IERange
	#	s	Hz	ohm	ohm	V	ohm	°	A	V	#
	0	28	300046.9	-122.7888	-4831.539	1	4833.099	-91.4558	2.354813E-005	0.0009135	9
	1	43	238359.4	162.5111	-5862.699	1	5864.951	-88.41219	4.94451E-005	0.000163	9
	2	73	189328.1	180.1864	-7372.63	1	7374.832	-88.59998	-3.001269E-005	-0.0011073	9
	3	81	150421.9	378.3907	-9078.35	1	9086.232	-87.61326	2.661012E-005	-0.0014745	9
	4	91	119484.4	252.9792	-11611.98	1	11614.73	-88.75195	6.932804E-005	-0.0133974	8
	5	99	94921.88	532.0225	-14440.42	1	14450.22	-87.89003	2.306746E-005	-0.0027201	8
	6	108	75421.88	631.9187	-18190.53	1	18201.5	-88.01041	-1.592027E-005	0.0005518	8
	7	116	59859.37	616.7237	-22855.93	1	22864.25	-88.45436	1.669241E-005	-0.0094486	8
	8	125	47578.12	3945.812	-30038.14	1	30296.19	-82.51647	-5.434923E-006	0.0265605	7
	9	133	37828.12	4226.221	-37084.39	1	37324.43	-83.49849	-5.474113E-006	0.0269665	7
	10	140	30046.88	581.0251	-45790.37	1	45794.05	-89.27303	-1.250014E-005	0.0103702	8
	11	149	23859.38	5324.438	-57031	1	57279	-84.66631	-6.637481E-006	0.0260247	7
	12	154	18984.38	5790.913	-71505.51	1	71739.62	-85.36997	-7.50297E-006	0.0191847	7
	13	159	15046.87	-1947.19	-84589.27	1	84611.67	-91.31868	1.602293E-005	-0.009226	8
	14	167	11953.13	6019.222	-112173.4	1	112334.8	-86.92846	-7.454692E-006	0.019082	7
	15	173	9515.62	5166.799	-143459.7	1	143552.7	-87.93735	2.740629E-006	0.0087391	7
	16	179	7546.875	5961.157	-174303.7	1	174405.6	-88.04126	3.601756E-006	-0.0249866	7
	17	185	5928.309	-397.7272	-214194.5	1	214194.8	-90.10639	-1.048119E-006	-0.0136893	7
	18	190	4733.456	42459.87	-299876.9	1	302867.9	-81.941	-2.852237E-007	-0.0075244	6
	19	195	3796.875	46903.69	-362259.5	1	365283.3	-82.62265	6.149388E-007	-0.0072008	6
	20	200	2987.132	52247.1	-454830.6	1	457821.6	-83.44707	-4.107671E-007	0.0258585	6
	21	205	2390.625	16262.07	-605656.8	1	605875.1	-88.46196	1.835017E-008	0.017689	6
	22	211	1884.191	76751.45	-749883.6	1	753801.1	-84.15606	7.318047E-007	-0.0273371	6
	23	216	1516.544	85340.14	-907170.9	1	911176.2	-84.62584	-3.449102E-009	0.0176441	6
	24	222	1193.986	108413.7	-1049311	1	1054897	-84.1012	-5.129117E-009	0.0176838	6
	25	227	946.5144	216284.8	-1314254	1	1331932	-80.65469	4.372197E-007	0.0017184	6
	26	231	751.7689	62323.8	-1579153	1	1580383	-87.73991	-4.124692E-007	0.0256661	6
	27	236	597.4265	401440.1	-1737892	1	1783654	-76.99323	4.200408E-007	0.0025173	6
	28	240	477.4305	304781.6	-2773766	1	2790461	-83.72949	-1.047616E-008	0.0006818	6
	29	243	376.6741	811424.9	-3564748	1	3655932	-77.17656	-1.097831E-009	0.0006827	5
	30	247	298.2954	1010374	-4422060	1	4536019	-77.12971	-1.015303E-009	0.0005868	5
	31	250	237.7717	1214518	-5481626	1	5614559	-77.50727	-1.071391E-009	0.0006826	5
	32	253	189.0121	1736617	-6686315	1	6908158	-75.44044	-9.949795E-010	0.0005922	5
	33	255	150.2404	2308763	-8016180	1	8342034	-73.93291	-1.066875E-009	0.0006883	5
	34	258	119.1737	5672860	-7938286	1	9.756932E+006	-54.44963	-1.095394E-009	0.0006774	5
	35	261	95.0169	4626749	-1.235138E+007	1	1.318951E+007	-69.46436	-1.033006E-009	0.0005825	5
	36	264	75.60484	6812114	-1.391367E+007	1	1.549177E+007	-63.91369	-1.094434E-009	0.0006089	5
	37	267	54.50582	1.071897E+007	-1.800992E+007	1	2.095838E+007	-59.24016	-1.063956E-009	0.0006258	5
	38	270	45.95588	1.568129E+007	-1.802565E+007	1	2.389199E+007	-48.97858	-1.260017E-010	0.0006729	4
	39	272	37.20238	1.636817E+007	-2.324651E+007	1	2.843092E+007	-54.85012	-9.617948E-010	0.0005798	5
	40	276	30.04808	2.194646E+007	-2.313635E+007	1	3.188947E+007	-46.51188	-1.084705E-009	0.0006783	5
	41	280	23.91582	2.447415E+007	-2.351012E+007	1	3.393685E+007	-43.84906	-1.148657E-009	0.0006636	5
	42	284	18.60119	2.978637E+007	-2.282375E+007	1	3.752534E+007	-37.46107	-1.055401E-009	0.0005928	5
	43	288	15.02404	3.851023E+007	-2.10058E+007	1	4.386663E+007	-28.61071	-9.960785E-011	0.0006737	4
	44	291	12.01923	4.247306E+007	-2.004681E+007	1	4.696633E+007	-25.26679	-8.561997E-011	0.0006022	4
	45	295	9.450605	4.67601E+007	-1.846345E+007	1	5.027332E+007	-21.54682	-1.107519E-010	0.0006966	4
	46	299	7.512019	5.116728E+007	-1.631358E+007	1	5.370497E+007	-17.68376	-1.08939E-010	0.0007005	4
	47	303	5.978954	5.459462E+007	-1.473032E+007	1	5.654693E+007	-15.09957	-9.949152E-011	0.0006821	4
	48	309	4.734848	6.261609E+007	-6648818	1	6.29681E+007	-6.061175	-8.235116E-012	0.0007292	3
	49	313	3.75601	6.437617E+007	-5929090	1	6.464863E+007	-5.262136	-4.026015E-012	0.0006904	3
	50	318	3.004808	6.669761E+007	-5585397	1	6.693106E+007	-4.7869	-4.513644E-012	0.0006568	3
	51	325	2.372217	6.927042E+007	-5243832	1	6.946862E+007	-4.329084	-8.712312E-012	0.0006359	3
	52	329	1.878005	7.154649E+007	-5169523	1	7.173301E+007	-4.132669	-1.484129E-012	0.0007203	3
	53	334	1.512097	7.438712E+007	-5276235	1	7.457401E+007	-4.057161	8.921455E-013	0.0006582	3
	54	339	1.201923	7.779E+007	-5411264	1	7.797798E+007	-3.979225	-4.831569E-012	0.000735	3
	55	345	0.956633	8.182526E+007	-5825964	1	8.203241E+007	-4.07259	-2.002219E-011	7.140003E-005	3
