EXPLAIN
TAG	EISPOT
TITLE	LABEL	Potentiostatic EIS	Test Identifier
DATE	LABEL	8/21/2020	Date
TIME	LABEL	18:44:30	Time
NOTES	NOTES	1	Notes...
	
PSTAT	PSTAT	REF3000-16137	Potentiostat
VDC	POTEN	0.00000E+000	T	DC Voltage (V)
FREQINIT	QUANT	3.00000E+005	Initial Freq. (Hz)
FREQFINAL	QUANT	1.00000E+000	Final Freq. (Hz)
PTSPERDEC	QUANT	1.00000E+001	Points/decade
VAC	QUANT	5.00000E+001	AC Voltage (mV rms)
AREA	QUANT	1.00000E+000	Sample Area (cm^2)
SPEED	SELECTOR	2	Optimize for:
ZGUESS	QUANT	1.00000E+003	Estimated Z (ohms)
EOC	QUANT	0	Open Circuit (V)
SEQUENCER	TOGGLE	TRUE	Run as Sequence
PSTATMODEL	IQUANT	5	Pstat Model
PSTATSECTION	LABEL	REF3000-16137	Pstat Section
PSTATSERIALNO	LABEL	16137	Pstat Serial Number
CTRLMODE	IQUANT	1	Control Mode
IESTAB	IQUANT	0	I/E Stability
CASPEED	IQUANT	1	Control Amp Speed
CONVENTION	IQUANT	1	Current Convention
ICHRANGE	IQUANT	2	Ich Range
ICHRANGEMODE	TOGGLE	F	Ich Auto Range
ICHOFFSETENABLE	TOGGLE	T	Ich Offset Enable
ICHOFFSET	QUANT	0	Ich Offset (V)
ICHFILTER	IQUANT	3	Ich Filter
VCHRANGE	IQUANT	2	Vch Range
VCHRANGEMODE	TOGGLE	F	Vch Auto Range
VCHOFFSETENABLE	TOGGLE	T	Vch Offset Enable
VCHOFFSET	QUANT	0	Vch Offset (V)
VCHFILTER	IQUANT	3	Vch Filter
ACHRANGE	IQUANT	2	Ach Range
ACHOFFSETENABLE	TOGGLE	F	Ach Offset Enable
ACHOFFSET	QUANT	0	Ach Offset (V)
ACHFILTER	IQUANT	3	Ach Filter
IERANGELOWERLIMIT	IQUANT	2	I/E Range Lower Limit
IERANGEMODE	TOGGLE	F	I/E AutoRange
IERANGE	IQUANT	11	I/E Range
POSFEEDENABLE	TOGGLE	F	Positive Feedback IR Comp
POSFEEDRESISTANCE	QUANT	0	Positive Feedback Resistance (ohm)
ACHSELECT	IQUANT	0	Ach Select
CABLEID	IQUANT	13	Cable ID
DCCALDATE	LABEL	7/31/2020	DC Calibration Date
ACCALDATE	LABEL	7/31/2020	AC Calibration Date
THERMOSELECT	IQUANT	1	Thermo Select
FRAMEWORKVERSION	QUANT	6.33	Framework Version
INSTRUMENTVERSION	LABEL	3.50	Instrument Version
COMPLIANCEVOLTAGE	IQUANT	0	Compliance Voltage
ZCURVE	TABLE
	Pt	Time	Freq	Zreal	Zimag	Zsig	Zmod	Zphz	Idc	Vdc	IERange
	#	s	Hz	ohm	ohm	V	ohm	°	A	V	#
	0	7	300046.9	50.8049	-1.76057	1	50.83539	-1.984708	1.730206E-005	-0.0009216	9
	1	10	238359.4	51.01482	-2.754086	1	51.0891	-3.09017	-1.236277E-005	-0.0010734	9
	2	13	189328.1	51.34015	-3.91947	1	51.48955	-4.365673	-1.259287E-005	-0.0008455	9
	3	16	150421.9	51.81617	-5.161133	1	52.07257	-5.688167	5.752794E-005	-0.0020417	9
	4	18	119484.4	52.32042	-6.537931	1	52.72733	-7.122729	-2.747623E-005	-4.218861E-005	9
	5	21	94921.88	53.04978	-7.926139	1	53.63863	-8.497671	-1.379437E-005	0.0003647	9
	6	23	75421.88	53.82964	-9.71406	1	54.69911	-10.22946	1.788868E-005	-0.0001845	9
	7	26	59859.37	54.834	-11.72103	1	56.07272	-12.06567	-3.01598E-006	0.0004453	9
	8	28	47578.12	55.99882	-13.91963	1	57.7029	-13.9591	4.53194E-006	-0.0003828	9
	9	31	37828.12	57.35604	-16.35688	1	59.64279	-15.91717	2.030097E-005	-0.0005175	9
	10	34	30046.88	58.88251	-19.15405	1	61.91953	-18.01933	1.029115E-005	-0.000482	9
	11	36	23859.38	60.56442	-22.30702	1	64.54186	-20.2197	-1.543476E-005	0.0004722	9
	12	38	18984.38	62.37336	-26.02885	1	67.58652	-22.65112	-2.301689E-006	-0.0001597	9
	13	41	15046.87	64.33492	-30.40956	1	71.15984	-25.29897	1.99558E-005	-0.0004876	9
	14	43	11953.13	66.37552	-35.74344	1	75.38769	-28.30261	-1.596526E-005	0.0006166	9
	15	45	9515.62	68.41922	-41.93079	1	80.24575	-31.50209	3.463079E-006	-0.0003223	9
	16	48	7546.875	70.42706	-49.83035	1	86.27302	-35.28114	3.602053E-006	0.0002973	9
	17	50	5928.309	72.55227	-60.00799	1	94.15302	-39.59415	1.505167E-005	-0.0005362	9
	18	52	4733.456	74.40947	-71.99303	1	103.5363	-44.05439	1.857318E-005	-0.0005464	9
	19	55	3796.875	76.22533	-86.7999	1	115.5185	-48.71127	5.083178E-006	0.0003353	9
	20	57	2987.132	78.19418	-107.0767	1	132.5887	-53.86073	2.078167E-005	-0.0003929	9
	21	59	2390.625	79.98737	-130.966	1	153.4603	-58.58554	-1.354476E-005	0.0006559	9
	22	61	1884.191	82.65305	-162.9568	1	182.7196	-63.1055	-1.2847E-005	0.0002277	9
	23	64	1516.544	85.39315	-199.6358	1	217.1323	-66.84145	2.077605E-005	-0.0003986	9
	24	66	1193.986	89.89719	-250.2556	1	265.9124	-70.24062	9.86346E-006	-0.0004665	9
	25	69	946.5144	95.0488	-311.9131	1	326.0737	-73.05253	2.010573E-005	-0.0004979	9
	26	71	751.7689	101.4771	-389.5245	1	402.5257	-75.39814	-2.653902E-006	0.0005241	9
	27	73	597.4265	110.0734	-482.3489	1	494.7491	-77.14507	-3.11627E-006	0.0018276	8
	28	76	477.4305	122.211	-597.5094	1	609.8795	-78.4405	3.341271E-007	0.0006464	8
	29	78	376.6741	139.8056	-748.9726	1	761.9092	-79.42667	3.337368E-007	0.0006511	8
	30	80	298.2954	163.8073	-934.8745	1	949.1171	-80.06161	3.456726E-007	0.00065	8
	31	83	237.7717	196.0063	-1158.514	1	1174.978	-80.39719	3.511884E-007	0.000646	8
	32	85	189.0121	240.9556	-1437.904	1	1457.953	-80.48709	3.515843E-007	0.0006441	8
	33	87	150.2404	303.4998	-1781.616	1	1807.282	-80.33241	3.428673E-007	0.0006443	8
	34	90	119.1737	391.1499	-2208.345	1	2242.718	-79.95574	3.410667E-007	0.0006507	8
	35	92	95.0169	510.0807	-2717.843	1	2765.294	-79.37046	3.447258E-007	0.0006501	8
	36	95	75.60484	676.5428	-3344.016	1	3411.767	-78.56261	3.371164E-007	0.0006479	8
	37	97	54.50582	1031.222	-4470.734	1	4588.125	-77.0113	3.349165E-007	0.0006434	8
	38	100	45.95588	1293.612	-5194.358	1	5353.017	-76.01544	3.879222E-008	0.0006233	7
	39	102	37.20238	1713.57	-6216.612	1	6448.457	-74.58947	2.507002E-008	0.000623	7
	40	105	30.04808	2275.83	-7406.557	1	7748.321	-72.91926	2.585494E-008	0.000622	7
	41	107	23.91582	3088.599	-8885.76	1	9407.24	-70.83308	1.850953E-008	0.0006174	7
	42	109	18.60119	4253.793	-10709.09	1	11522.99	-68.33636	1.395948E-008	0.0006362	7
	43	112	15.02404	5566.512	-12421.41	1	13611.67	-65.86102	3.507224E-008	0.0006207	7
	44	114	12.01923	7289.104	-14335.68	1	16082.37	-63.04853	2.894182E-008	0.0006203	7
	45	116	9.450605	9589.23	-16480.67	1	19067.4	-59.80714	1.804655E-008	0.0006343	7
	46	119	7.512019	12268.16	-18475.19	1	22177.48	-56.41447	1.634889E-008	0.0006251	7
	47	122	5.978954	15407.18	-20252.97	1	25447.28	-52.73842	1.769176E-008	0.0006244	7
	48	125	4.734848	19007.27	-21702.41	1	28849.1	-48.78768	3.075446E-008	0.0006498	7
	49	128	3.75601	22904.89	-22745.67	1	32280.02	-44.80017	1.286278E-008	0.0006068	7
	50	131	3.004808	26704.93	-22813.88	1	35123.02	-40.50709	1.19152E-008	0.0006524	7
	51	138	2.372217	30517.61	-22261.5	1	37774.32	-36.10941	-1.869715E-008	0.00074	6
	52	145	1.878005	33856.56	-21147.79	1	39918.62	-31.9901	-2.509761E-008	0.0006403	6
	53	154	1.512097	36644.66	-20164.52	1	41826.3	-28.82274	-2.509683E-008	0.0007566	6
	54	165	1.201923	39198.06	-18899.86	1	43516.58	-25.74165	-2.479059E-008	0.0006337	6
	55	178	0.956633	41849.57	-17916.5	1	45523.48	-23.17657	-5.163226E-008	2.654377E-005	6
