EXPLAIN
TAG	EISPOT
TITLE	LABEL	Potentiostatic EIS	Test Identifier
DATE	LABEL	8/21/2020	Date
TIME	LABEL	16:13:49	Time
NOTES	NOTES	1	Notes...
	
PSTAT	PSTAT	REF3000-16137	Potentiostat
VDC	POTEN	0.00000E+000	T	DC Voltage (V)
FREQINIT	QUANT	3.00000E+005	Initial Freq. (Hz)
FREQFINAL	QUANT	1.00000E+000	Final Freq. (Hz)
PTSPERDEC	QUANT	1.00000E+001	Points/decade
VAC	QUANT	5.00000E+001	AC Voltage (mV rms)
AREA	QUANT	1.00000E+000	Sample Area (cm^2)
SPEED	SELECTOR	2	Optimize for:
ZGUESS	QUANT	1.00000E+003	Estimated Z (ohms)
EOC	QUANT	0	Open Circuit (V)
SEQUENCER	TOGGLE	TRUE	Run as Sequence
PSTATMODEL	IQUANT	5	Pstat Model
PSTATSECTION	LABEL	REF3000-16137	Pstat Section
PSTATSERIALNO	LABEL	16137	Pstat Serial Number
CTRLMODE	IQUANT	1	Control Mode
IESTAB	IQUANT	0	I/E Stability
CASPEED	IQUANT	1	Control Amp Speed
CONVENTION	IQUANT	1	Current Convention
ICHRANGE	IQUANT	2	Ich Range
ICHRANGEMODE	TOGGLE	F	Ich Auto Range
ICHOFFSETENABLE	TOGGLE	T	Ich Offset Enable
ICHOFFSET	QUANT	0	Ich Offset (V)
ICHFILTER	IQUANT	3	Ich Filter
VCHRANGE	IQUANT	2	Vch Range
VCHRANGEMODE	TOGGLE	F	Vch Auto Range
VCHOFFSETENABLE	TOGGLE	T	Vch Offset Enable
VCHOFFSET	QUANT	0	Vch Offset (V)
VCHFILTER	IQUANT	3	Vch Filter
ACHRANGE	IQUANT	2	Ach Range
ACHOFFSETENABLE	TOGGLE	F	Ach Offset Enable
ACHOFFSET	QUANT	0	Ach Offset (V)
ACHFILTER	IQUANT	3	Ach Filter
IERANGELOWERLIMIT	IQUANT	2	I/E Range Lower Limit
IERANGEMODE	TOGGLE	F	I/E AutoRange
IERANGE	IQUANT	11	I/E Range
POSFEEDENABLE	TOGGLE	F	Positive Feedback IR Comp
POSFEEDRESISTANCE	QUANT	0	Positive Feedback Resistance (ohm)
ACHSELECT	IQUANT	0	Ach Select
CABLEID	IQUANT	13	Cable ID
DCCALDATE	LABEL	7/31/2020	DC Calibration Date
ACCALDATE	LABEL	7/31/2020	AC Calibration Date
THERMOSELECT	IQUANT	1	Thermo Select
FRAMEWORKVERSION	QUANT	6.33	Framework Version
INSTRUMENTVERSION	LABEL	3.50	Instrument Version
COMPLIANCEVOLTAGE	IQUANT	0	Compliance Voltage
ZCURVE	TABLE
	Pt	Time	Freq	Zreal	Zimag	Zsig	Zmod	Zphz	Idc	Vdc	IERange
	#	s	Hz	ohm	ohm	V	ohm	°	A	V	#
	0	10	300046.9	345.2248	-24.61168	1	346.101	-4.077818	2.008894E-005	-0.002021	9
	1	15	238359.4	347.6543	-22.61948	1	348.3894	-3.722597	-8.280651E-005	0.0037409	9
	2	20	189328.1	351.0164	-21.86196	1	351.6965	-3.563885	7.629331E-005	-0.0016246	9
	3	26	150421.9	353.5827	-24.70195	1	354.4445	-3.996298	2.283919E-005	0.0005628	10
	4	31	119484.4	357.6227	-21.24549	1	358.2533	-3.399805	7.321448E-005	-0.0014302	9
	5	39	94921.88	360.1325	-22.01259	1	360.8047	-3.497771	2.321287E-005	-0.0002482	9
	6	42	75421.88	362.4565	-24.20697	1	363.2639	-3.820873	2.371502E-005	-0.0009073	9
	7	44	59859.37	364.6173	-26.78158	1	365.5995	-4.200901	-1.071401E-005	0.0009079	9
	8	47	47578.12	367.4791	-30.40201	1	368.7346	-4.729382	1.169531E-007	-0.0004622	9
	9	49	37828.12	368.9428	-29.52555	1	370.1223	-4.575484	-5.272248E-006	0.005688	8
	10	52	30046.88	373.4115	-37.71975	1	375.3118	-5.768104	-1.035063E-005	0.0054455	8
	11	54	23859.38	377.3007	-44.51241	1	379.9174	-6.728422	-2.397037E-006	-0.0018231	8
	12	56	18984.38	382.1683	-53.08441	1	385.8375	-7.907968	-1.301246E-005	0.0037509	8
	13	59	15046.87	389.2669	-64.89141	1	394.6385	-9.46427	-2.080234E-006	-0.0018332	8
	14	61	11953.13	394.6407	-74.91828	1	401.689	-10.74907	1.47933E-006	0.0034458	8
	15	63	9515.62	403.7178	-89.14709	1	413.4431	-12.45197	6.133153E-006	0.0018322	8
	16	66	7546.875	413.1691	-103.8275	1	426.0151	-14.10607	-4.859457E-006	0.0051905	8
	17	68	5928.309	424.8676	-122.8024	1	442.2589	-16.12125	-1.283037E-005	0.0036596	8
	18	70	4733.456	437.0693	-142.3158	1	459.6557	-18.03596	1.079313E-005	-0.0003822	8
	19	73	3796.875	450.1646	-164.4972	1	479.2781	-20.0731	-7.218612E-006	0.0001082	8
	20	75	2987.132	467.4374	-193.3969	1	505.8656	-22.47677	1.05322E-005	-0.0002392	8
	21	77	2390.625	481.5096	-224.0939	1	531.1022	-24.9572	1.268696E-005	-0.0044393	8
	22	80	1884.191	503.0417	-261.216	1	566.8199	-27.44164	1.093245E-005	-0.0003631	8
	23	82	1516.544	515.9969	-305.7487	1	599.7792	-30.64843	-4.441361E-006	0.0051696	8
	24	84	1193.986	536.8981	-361.7864	1	647.4172	-33.97389	-2.196008E-006	-0.0017743	8
	25	87	946.5144	555.1849	-431.601	1	703.2138	-37.86151	2.349438E-006	-0.0032219	8
	26	89	751.7689	570.5811	-515.739	1	769.1226	-42.10992	-1.028269E-005	0.0015251	8
	27	92	597.4265	588.9484	-624.703	1	858.5535	-46.68747	1.06399E-005	-0.0046456	8
	28	94	477.4305	605.5067	-754.7533	1	967.621	-51.2614	-9.693097E-008	0.0006455	8
	29	97	376.6741	623.2718	-930.5505	1	1119.996	-56.18629	-8.848438E-008	0.000643	8
	30	99	298.2954	642.3354	-1150.203	1	1317.407	-60.81864	-9.676504E-008	0.0006506	8
	31	101	237.7717	663.9467	-1419.063	1	1566.705	-64.9262	-6.346064E-008	0.0006316	8
	32	104	189.0121	690.1827	-1760.423	1	1890.884	-68.59209	-6.919285E-008	0.0006222	8
	33	106	150.2404	722.8924	-2188.295	1	2304.606	-71.71928	-9.364773E-008	0.0006378	8
	34	109	119.1737	765.4751	-2729.062	1	2834.384	-74.33172	-8.925019E-008	0.0006443	8
	35	111	95.0169	819.0115	-3388.974	1	3486.534	-76.41386	-6.497718E-008	0.0006279	8
	36	113	75.60484	890.0892	-4217.733	1	4310.63	-78.08344	-6.136417E-008	0.0006209	8
	37	116	54.50582	1036.333	-5779.246	1	5871.428	-79.83378	-2.411251E-008	0.0006003	7
	38	119	45.95588	1137.728	-6802.803	1	6897.286	-80.50549	-1.766614E-008	0.0005944	7
	39	121	37.20238	1298.289	-8324.092	1	8424.729	-81.13514	-2.225882E-008	0.0006219	7
	40	123	30.04808	1513.054	-10198.81	1	10310.43	-81.56138	-2.432067E-008	0.0006296	7
	41	126	23.91582	1815.936	-12662.35	1	12791.9	-81.83873	-2.175434E-008	0.0006057	7
	42	128	18.60119	2279.651	-16060.35	1	16221.33	-81.92124	-1.829171E-008	0.0005961	7
	43	130	15.02404	2814.467	-19639.98	1	19840.62	-81.84486	-1.979178E-008	0.0006276	7
	44	133	12.01923	3558.082	-24199.26	1	24459.44	-81.63558	-2.146633E-008	0.0006004	7
	45	135	9.450605	4670.685	-30259.85	1	30618.19	-81.22549	-2.034751E-008	0.0006032	7
	46	138	7.512019	6126.084	-37396.15	1	37894.61	-80.69667	-1.919898E-008	0.0006095	7
	47	140	5.978954	8121.887	-46040.43	1	46751.32	-79.99551	-1.811605E-009	0.0006725	6
	48	143	4.734848	10890.97	-56788.46	1	57823.38	-79.14355	-4.263215E-010	0.0006963	6
	49	147	3.75601	14672.28	-69732.16	1	71259.04	-78.11777	-2.243997E-009	0.0006256	6
	50	150	3.004808	19492.54	-84579.26	1	86796.37	-77.02194	-2.917369E-009	0.0007059	6
	51	154	2.372217	26361.46	-103424.8	1	106731.5	-75.70061	-1.913604E-009	0.0007323	6
	52	158	1.878005	35171.31	-125368.4	1	130208.5	-74.32887	-2.66994E-009	0.0006309	6
	53	163	1.512097	45682.52	-148853.3	1	155705.4	-72.93894	-2.402902E-009	0.0006981	6
	54	168	1.201923	59766.25	-178484.6	1	188225.3	-71.48669	-2.259512E-009	0.0006193	6
	55	174	0.956633	77253.23	-212337.1	1	225953.8	-70.00743	-3.288046E-009	1.697569E-005	6
