EXPLAIN
TAG	EISPOT
TITLE	LABEL	Potentiostatic EIS	Test Identifier
DATE	LABEL	8/21/2020	Date
TIME	LABEL	16:44:54	Time
NOTES	NOTES	1	Notes...
	
PSTAT	PSTAT	REF3000-16137	Potentiostat
VDC	POTEN	0.00000E+000	T	DC Voltage (V)
FREQINIT	QUANT	3.00000E+005	Initial Freq. (Hz)
FREQFINAL	QUANT	1.00000E+000	Final Freq. (Hz)
PTSPERDEC	QUANT	1.00000E+001	Points/decade
VAC	QUANT	5.00000E+001	AC Voltage (mV rms)
AREA	QUANT	1.00000E+000	Sample Area (cm^2)
SPEED	SELECTOR	2	Optimize for:
ZGUESS	QUANT	1.00000E+003	Estimated Z (ohms)
EOC	QUANT	0	Open Circuit (V)
SEQUENCER	TOGGLE	TRUE	Run as Sequence
PSTATMODEL	IQUANT	5	Pstat Model
PSTATSECTION	LABEL	REF3000-16137	Pstat Section
PSTATSERIALNO	LABEL	16137	Pstat Serial Number
CTRLMODE	IQUANT	1	Control Mode
IESTAB	IQUANT	0	I/E Stability
CASPEED	IQUANT	1	Control Amp Speed
CONVENTION	IQUANT	1	Current Convention
ICHRANGE	IQUANT	2	Ich Range
ICHRANGEMODE	TOGGLE	F	Ich Auto Range
ICHOFFSETENABLE	TOGGLE	T	Ich Offset Enable
ICHOFFSET	QUANT	0	Ich Offset (V)
ICHFILTER	IQUANT	3	Ich Filter
VCHRANGE	IQUANT	2	Vch Range
VCHRANGEMODE	TOGGLE	F	Vch Auto Range
VCHOFFSETENABLE	TOGGLE	T	Vch Offset Enable
VCHOFFSET	QUANT	0	Vch Offset (V)
VCHFILTER	IQUANT	3	Vch Filter
ACHRANGE	IQUANT	2	Ach Range
ACHOFFSETENABLE	TOGGLE	F	Ach Offset Enable
ACHOFFSET	QUANT	0	Ach Offset (V)
ACHFILTER	IQUANT	3	Ach Filter
IERANGELOWERLIMIT	IQUANT	2	I/E Range Lower Limit
IERANGEMODE	TOGGLE	F	I/E AutoRange
IERANGE	IQUANT	11	I/E Range
POSFEEDENABLE	TOGGLE	F	Positive Feedback IR Comp
POSFEEDRESISTANCE	QUANT	0	Positive Feedback Resistance (ohm)
ACHSELECT	IQUANT	0	Ach Select
CABLEID	IQUANT	13	Cable ID
DCCALDATE	LABEL	7/31/2020	DC Calibration Date
ACCALDATE	LABEL	7/31/2020	AC Calibration Date
THERMOSELECT	IQUANT	1	Thermo Select
FRAMEWORKVERSION	QUANT	6.33	Framework Version
INSTRUMENTVERSION	LABEL	3.50	Instrument Version
COMPLIANCEVOLTAGE	IQUANT	0	Compliance Voltage
ZCURVE	TABLE
	Pt	Time	Freq	Zreal	Zimag	Zsig	Zmod	Zphz	Idc	Vdc	IERange
	#	s	Hz	ohm	ohm	V	ohm	°	A	V	#
	0	14	300046.9	2186.502	-3308.298	1	3965.555	-56.53872	-0.000107	0.0037946	9
	1	30	238359.4	2651.444	-3514.027	1	4402.106	-52.9643	9.283279E-005	-0.0026577	9
	2	54	189328.1	3652.293	-3707.807	1	5204.524	-45.43215	8.913533E-005	-0.002554	9
	3	65	150421.9	4352.056	-3969.774	1	5890.628	-42.36984	-9.034148E-005	0.0042785	9
	4	75	119484.4	5386.111	-3520.127	1	6434.398	-33.16688	2.258811E-005	-0.0139743	8
	5	82	94921.88	6199.452	-3315.152	1	7030.181	-28.13561	-9.320488E-006	-0.0019545	8
	6	90	75421.88	6831.654	-2998.232	1	7460.623	-23.6954	-2.598241E-005	0.0093567	8
	7	97	59859.37	7364.297	-2670.49	1	7833.543	-19.93199	7.597564E-006	-0.0074492	8
	8	106	47578.12	8509.867	-1575.467	1	8654.475	-10.48865	-6.043299E-006	0.0230493	7
	9	112	37828.12	8646.288	-1295.034	1	8742.734	-8.518394	-3.394922E-007	-0.0145233	7
	10	117	30046.88	8806.338	-1105.76	1	8875.488	-7.156841	1.675751E-006	-0.0197583	7
	11	123	23859.38	8902.314	-970.24	1	8955.03	-6.219965	6.651256E-006	-0.0248277	7
	12	127	18984.38	9038.908	-821.6886	1	9076.18	-5.194238	1.696526E-006	-0.0196279	7
	13	131	15046.87	9182.598	-706.3573	1	9209.726	-4.398728	-2.720032E-006	-0.0062909	7
	14	136	11953.13	9276.995	-638.1479	1	9298.918	-3.935075	-1.530816E-007	0.0168617	7
	15	140	9515.62	9429.941	-624.553	1	9450.602	-3.789214	-3.001298E-006	-0.0052569	7
	16	144	7546.875	9500.12	-575.048	1	9517.51	-3.463923	-6.077271E-006	0.0096579	7
	17	148	5928.309	9592.63	-610.8602	1	9612.06	-3.643684	5.939018E-006	-0.0077207	7
	18	152	4733.456	9783.65	-602.0613	1	9802.15	-3.5214	-6.060816E-006	0.0096775	7
	19	156	3796.875	9888.02	-642.6459	1	9908.88	-3.718558	-4.563534E-006	0.0014196	7
	20	161	2987.132	10025.29	-688.7799	1	10048.92	-3.930287	7.290277E-006	-0.0221298	7
	21	165	2390.625	10161.25	-806.825	1	10193.23	-4.539882	5.357761E-006	-0.02524	7
	22	169	1884.191	10391.43	-869.1543	1	10427.71	-4.781175	-6.102525E-006	0.0097917	7
	23	173	1516.544	10559.41	-1062.4	1	10612.72	-5.745287	-5.355426E-006	0.0252183	7
	24	178	1193.986	10730.3	-1216.616	1	10799.05	-6.468652	-5.327852E-007	-0.014044	7
	25	182	946.5144	11053.65	-1515.648	1	11157.08	-7.807564	6.65222E-006	-0.0252785	7
	26	185	751.7689	11225.67	-1619.6	1	11341.91	-8.20978	7.070459E-006	-0.0159271	7
	27	187	597.4265	11386.55	-2055.407	1	11570.57	-10.23238	-6.838156E-006	0.0212802	7
	28	190	477.4305	11597.73	-2334.933	1	11830.44	-11.383	-8.495826E-008	0.0005617	7
	29	192	376.6741	11900.17	-2744.716	1	12212.59	-12.98787	-9.43397E-008	0.0006267	7
	30	195	298.2954	12242.72	-3205.1	1	12655.31	-14.67059	-9.024057E-008	0.0005934	7
	31	197	237.7717	12619.72	-3717.49	1	13155.87	-16.41381	-9.235752E-008	0.0006074	7
	32	199	189.0121	13044.24	-4317.12	1	13740.08	-18.31246	-8.530396E-008	0.0005619	7
	33	202	150.2404	13512.14	-5013.589	1	14412.29	-20.35703	-8.437033E-008	0.000557	7
	34	204	119.1737	14024.75	-5827.407	1	15187.24	-22.56332	-9.19507E-008	0.0006581	7
	35	207	95.0169	14565.89	-6771.841	1	16063.1	-24.93423	-9.46193E-008	0.0006353	7
	36	209	75.60484	15163.91	-7898.325	1	17097.59	-27.51336	-9.31406E-008	0.0006358	7
	37	212	54.50582	16031.68	-9893.9	1	18838.9	-31.68069	-8.448364E-008	0.0005562	7
	38	214	45.95588	16555.02	-11181.6	1	19977.41	-34.0359	-9.623291E-008	0.0006635	7
	39	217	37.20238	17180.66	-13061.02	1	21581.6	-37.24269	-9.124366E-008	0.0006575	7
	40	219	30.04808	17809.76	-15362.03	1	23519.76	-40.77982	-8.633722E-008	0.0006304	7
	41	221	23.91582	18500.75	-18416.18	1	26104.29	-44.86874	-9.053661E-008	0.0006578	7
	42	224	18.60119	19267.05	-22674.31	1	29754.72	-49.64442	-9.468494E-008	0.0006447	7
	43	226	15.02404	19940.13	-27243.01	1	33760.78	-53.79827	-8.367216E-008	0.0005859	7
	44	228	12.01923	20718.28	-33143.8	1	39086.55	-57.99038	-8.436879E-008	0.000616	7
	45	231	9.450605	21732.2	-41276.46	1	46647.99	-62.23304	-1.062931E-008	0.0006748	6
	46	233	7.512019	22827.7	-50952.29	1	55832.25	-65.86662	-9.070994E-009	0.0006475	6
	47	236	5.978954	24149.66	-62927.37	1	67402.23	-69.00468	-9.765102E-009	0.0006487	6
	48	239	4.734848	25803.66	-78248.93	1	82393.71	-71.74931	-9.459481E-009	0.0005753	6
	49	242	3.75601	27947.42	-97257.6	1	101193.3	-73.96774	-8.478482E-009	0.0006475	6
	50	246	3.004808	30518.78	-119903.1	1	123726.1	-75.71981	-9.408594E-009	0.0006414	6
	51	249	2.372217	34201.07	-149574.1	1	153434.5	-77.12038	-1.0004E-008	0.0006277	6
	52	254	1.878005	38346.89	-188563.5	1	192423.1	-78.5049	-9.499768E-009	0.0006394	6
	53	258	1.512097	43391.53	-231254.4	1	235290	-79.37284	-9.937146E-009	0.0007257	6
	54	264	1.201923	51171.04	-287785.9	1	292299.8	-79.91765	-9.720085E-009	0.0006963	6
	55	270	0.956633	61068.47	-356878.8	1	362066	-80.2897	-1.008423E-008	1.253349E-005	6
