EXPLAIN
TAG	EISPOT
TITLE	LABEL	Potentiostatic EIS	Test Identifier
DATE	LABEL	8/21/2020	Date
TIME	LABEL	18:56:57	Time
NOTES	NOTES	1	Notes...
	
PSTAT	PSTAT	REF3000-16137	Potentiostat
VDC	POTEN	0.00000E+000	T	DC Voltage (V)
FREQINIT	QUANT	3.00000E+005	Initial Freq. (Hz)
FREQFINAL	QUANT	1.00000E+000	Final Freq. (Hz)
PTSPERDEC	QUANT	1.00000E+001	Points/decade
VAC	QUANT	5.00000E+001	AC Voltage (mV rms)
AREA	QUANT	1.00000E+000	Sample Area (cm^2)
SPEED	SELECTOR	2	Optimize for:
ZGUESS	QUANT	1.00000E+003	Estimated Z (ohms)
EOC	QUANT	0	Open Circuit (V)
SEQUENCER	TOGGLE	TRUE	Run as Sequence
PSTATMODEL	IQUANT	5	Pstat Model
PSTATSECTION	LABEL	REF3000-16137	Pstat Section
PSTATSERIALNO	LABEL	16137	Pstat Serial Number
CTRLMODE	IQUANT	1	Control Mode
IESTAB	IQUANT	0	I/E Stability
CASPEED	IQUANT	1	Control Amp Speed
CONVENTION	IQUANT	1	Current Convention
ICHRANGE	IQUANT	2	Ich Range
ICHRANGEMODE	TOGGLE	F	Ich Auto Range
ICHOFFSETENABLE	TOGGLE	T	Ich Offset Enable
ICHOFFSET	QUANT	0	Ich Offset (V)
ICHFILTER	IQUANT	3	Ich Filter
VCHRANGE	IQUANT	2	Vch Range
VCHRANGEMODE	TOGGLE	F	Vch Auto Range
VCHOFFSETENABLE	TOGGLE	T	Vch Offset Enable
VCHOFFSET	QUANT	0	Vch Offset (V)
VCHFILTER	IQUANT	3	Vch Filter
ACHRANGE	IQUANT	2	Ach Range
ACHOFFSETENABLE	TOGGLE	F	Ach Offset Enable
ACHOFFSET	QUANT	0	Ach Offset (V)
ACHFILTER	IQUANT	3	Ach Filter
IERANGELOWERLIMIT	IQUANT	2	I/E Range Lower Limit
IERANGEMODE	TOGGLE	F	I/E AutoRange
IERANGE	IQUANT	11	I/E Range
POSFEEDENABLE	TOGGLE	F	Positive Feedback IR Comp
POSFEEDRESISTANCE	QUANT	0	Positive Feedback Resistance (ohm)
ACHSELECT	IQUANT	0	Ach Select
CABLEID	IQUANT	13	Cable ID
DCCALDATE	LABEL	7/31/2020	DC Calibration Date
ACCALDATE	LABEL	7/31/2020	AC Calibration Date
THERMOSELECT	IQUANT	1	Thermo Select
FRAMEWORKVERSION	QUANT	6.33	Framework Version
INSTRUMENTVERSION	LABEL	3.50	Instrument Version
COMPLIANCEVOLTAGE	IQUANT	0	Compliance Voltage
ZCURVE	TABLE
	Pt	Time	Freq	Zreal	Zimag	Zsig	Zmod	Zphz	Idc	Vdc	IERange
	#	s	Hz	ohm	ohm	V	ohm	°	A	V	#
	0	7	300046.9	50.66575	-1.641567	1	50.69234	-1.855731	-4.377362E-006	0.0003581	9
	1	10	238359.4	50.94844	-2.795936	1	51.0251	-3.141113	-3.969467E-006	0.0002606	9
	2	13	189328.1	51.28822	-3.918171	1	51.43767	-4.368634	-4.335931E-006	0.0005622	9
	3	16	150421.9	51.76221	-5.199866	1	52.02273	-5.736506	-5.457443E-005	0.002133	9
	4	18	119484.4	52.24062	-6.647193	1	52.66183	-7.251453	-6.205702E-005	0.0021844	9
	5	21	94921.88	53.00331	-7.98953	1	53.60209	-8.572026	-8.178498E-006	-1.631024E-005	9
	6	23	75421.88	53.81144	-9.78073	1	54.69309	-10.30158	-1.657946E-005	0.0004855	9
	7	26	59859.37	54.81024	-11.75663	1	56.05694	-12.10633	1.14548E-006	-0.0002891	9
	8	28	47578.12	55.98116	-13.97479	1	57.69909	-14.0165	1.570096E-005	-0.0001235	9
	9	31	37828.12	57.3429	-16.43933	1	59.65282	-15.99679	-2.985189E-006	0.0004645	9
	10	33	30046.88	58.86601	-19.22247	1	61.92504	-18.08425	4.114042E-006	0.0003701	9
	11	36	23859.38	60.59645	-22.48743	1	64.63447	-20.35996	-1.290301E-005	0.0001676	9
	12	38	18984.38	62.3751	-26.14669	1	67.63358	-22.74269	-1.427064E-005	0.0006229	9
	13	40	15046.87	64.36628	-30.57732	1	71.26002	-25.41014	4.460419E-006	0.0003603	9
	14	43	11953.13	66.34103	-35.84338	1	75.40478	-28.3819	1.004098E-005	-0.0004674	9
	15	45	9515.62	68.40012	-42.19408	1	80.36739	-31.66925	2.243888E-005	-0.0005589	9
	16	47	7546.875	70.45558	-50.13567	1	86.47297	-35.43537	9.93888E-006	-0.0004694	9
	17	50	5928.309	72.50203	-60.34556	1	94.3299	-39.7716	1.731359E-005	-0.0001567	9
	18	52	4733.456	74.36948	-72.3483	1	103.755	-44.21075	-1.287348E-005	0.0006784	9
	19	54	3796.875	76.18195	-87.15704	1	115.7585	-48.84405	2.087869E-005	-0.0004232	9
	20	57	2987.132	78.11571	-107.612	1	132.9752	-54.02406	1.965926E-005	-0.0002627	9
	21	59	2390.625	80.07671	-131.6868	1	154.1223	-58.69687	-1.243235E-005	0.0002036	9
	22	61	1884.191	82.54168	-164.3428	1	183.9068	-63.33178	-1.527399E-005	0.0006416	9
	23	64	1516.544	84.93848	-200.8763	1	218.0959	-67.07943	-2.897265E-006	0.0005212	9
	24	66	1193.986	89.20204	-252.0384	1	267.3581	-70.50999	1.058849E-005	0.0000975	9
	25	68	946.5144	95.4587	-312.9033	1	327.1404	-73.03441	-1.541772E-005	0.0004894	9
	26	71	751.7689	100.3908	-391.9564	1	404.6086	-75.63381	-8.600911E-006	0.0006454	9
	27	73	597.4265	109.8486	-485.4627	1	497.7356	-77.25005	1.202359E-006	-0.0002062	8
	28	76	477.4305	121.8958	-601.5255	1	613.752	-78.54445	3.251872E-007	0.0006796	8
	29	78	376.6741	139.3914	-754.0632	1	766.8384	-79.52688	3.278781E-007	0.000644	8
	30	80	298.2954	163.209	-941.4265	1	955.469	-80.16476	3.428775E-007	0.0006474	8
	31	83	237.7717	195.3174	-1166.727	1	1182.963	-80.49645	3.537886E-007	0.0006415	8
	32	85	189.0121	240.0438	-1448.412	1	1468.168	-80.58996	3.508716E-007	0.0006462	8
	33	87	150.2404	302.2064	-1795.148	1	1820.408	-80.44408	3.377569E-007	0.0006497	8
	34	90	119.1737	389.785	-2225.808	1	2259.68	-80.06705	3.519154E-007	0.0006573	8
	35	92	95.0169	507.6748	-2740.044	1	2786.678	-79.50328	3.483639E-007	0.0006465	8
	36	95	75.60484	673.7338	-3372.591	1	3439.228	-78.70288	3.453227E-007	0.0006476	8
	37	97	54.50582	1027.701	-4511.568	1	4627.139	-77.16743	3.368782E-007	0.000649	8
	38	100	45.95588	1291.95	-5247.243	1	5403.951	-76.16805	3.774687E-008	0.0006249	7
	39	102	37.20238	1712.12	-6278.161	1	6507.431	-74.74578	2.963368E-008	0.0006191	7
	40	105	30.04808	2279.154	-7487.588	1	7826.782	-73.07023	2.299158E-008	0.0006207	7
	41	107	23.91582	3081.076	-8965.728	1	9480.364	-71.03469	1.687356E-008	0.0006159	7
	42	109	18.60119	4272.415	-10833.39	1	11645.42	-68.47697	3.706971E-008	0.0006202	7
	43	112	15.02404	5595.006	-12589.38	1	13776.67	-66.03855	4.095531E-008	0.0006304	7
	44	114	12.01923	7324.101	-14537.4	1	16278.16	-63.26054	2.575938E-008	0.0006229	7
	45	116	9.450605	9653.71	-16724.5	1	19310.7	-60.00563	2.658494E-008	0.0006284	7
	46	119	7.512019	12355.14	-18784.72	1	22483.67	-56.66616	2.210562E-008	0.000642	7
	47	122	5.978954	15509.84	-20643.21	1	25820.48	-53.08139	1.750257E-008	0.0006267	7
	48	125	4.734848	19202.96	-22250.83	1	29391.37	-49.20508	2.704692E-008	0.0006154	7
	49	128	3.75601	23163.35	-23434.91	1	32950.5	-45.33389	1.974868E-008	0.0006156	7
	50	131	3.004808	27106.41	-23927.61	1	36156.44	-41.43578	2.414903E-008	0.0006023	7
	51	135	2.372217	31324.09	-24037.96	1	39484.45	-37.50246	-2.011985E-008	0.0006813	6
	52	139	1.878005	34883.34	-22543.84	1	41533.99	-32.87312	-2.023094E-008	0.0006657	6
	53	148	1.512097	37655	-21274.22	1	43249.18	-29.46546	-1.717638E-008	0.0005714	6
	54	159	1.201923	40417.44	-19986.21	1	45089	-26.31216	-1.938401E-008	0.0006695	6
	55	172	0.956633	42918.03	-18804.04	1	46856.69	-23.66008	-3.344798E-008	2.32361E-005	6
