EXPLAIN
TAG	EISPOT
TITLE	LABEL	Potentiostatic EIS	Test Identifier
DATE	LABEL	8/21/2020	Date
TIME	LABEL	16:49:33	Time
NOTES	NOTES	1	Notes...
	
PSTAT	PSTAT	REF3000-16137	Potentiostat
VDC	POTEN	0.00000E+000	T	DC Voltage (V)
FREQINIT	QUANT	3.00000E+005	Initial Freq. (Hz)
FREQFINAL	QUANT	1.00000E+000	Final Freq. (Hz)
PTSPERDEC	QUANT	1.00000E+001	Points/decade
VAC	QUANT	5.00000E+001	AC Voltage (mV rms)
AREA	QUANT	1.00000E+000	Sample Area (cm^2)
SPEED	SELECTOR	2	Optimize for:
ZGUESS	QUANT	1.00000E+003	Estimated Z (ohms)
EOC	QUANT	0	Open Circuit (V)
SEQUENCER	TOGGLE	TRUE	Run as Sequence
PSTATMODEL	IQUANT	5	Pstat Model
PSTATSECTION	LABEL	REF3000-16137	Pstat Section
PSTATSERIALNO	LABEL	16137	Pstat Serial Number
CTRLMODE	IQUANT	1	Control Mode
IESTAB	IQUANT	0	I/E Stability
CASPEED	IQUANT	1	Control Amp Speed
CONVENTION	IQUANT	1	Current Convention
ICHRANGE	IQUANT	2	Ich Range
ICHRANGEMODE	TOGGLE	F	Ich Auto Range
ICHOFFSETENABLE	TOGGLE	T	Ich Offset Enable
ICHOFFSET	QUANT	0	Ich Offset (V)
ICHFILTER	IQUANT	3	Ich Filter
VCHRANGE	IQUANT	2	Vch Range
VCHRANGEMODE	TOGGLE	F	Vch Auto Range
VCHOFFSETENABLE	TOGGLE	T	Vch Offset Enable
VCHOFFSET	QUANT	0	Vch Offset (V)
VCHFILTER	IQUANT	3	Vch Filter
ACHRANGE	IQUANT	2	Ach Range
ACHOFFSETENABLE	TOGGLE	F	Ach Offset Enable
ACHOFFSET	QUANT	0	Ach Offset (V)
ACHFILTER	IQUANT	3	Ach Filter
IERANGELOWERLIMIT	IQUANT	2	I/E Range Lower Limit
IERANGEMODE	TOGGLE	F	I/E AutoRange
IERANGE	IQUANT	11	I/E Range
POSFEEDENABLE	TOGGLE	F	Positive Feedback IR Comp
POSFEEDRESISTANCE	QUANT	0	Positive Feedback Resistance (ohm)
ACHSELECT	IQUANT	0	Ach Select
CABLEID	IQUANT	13	Cable ID
DCCALDATE	LABEL	7/31/2020	DC Calibration Date
ACCALDATE	LABEL	7/31/2020	AC Calibration Date
THERMOSELECT	IQUANT	1	Thermo Select
FRAMEWORKVERSION	QUANT	6.33	Framework Version
INSTRUMENTVERSION	LABEL	3.50	Instrument Version
COMPLIANCEVOLTAGE	IQUANT	0	Compliance Voltage
ZCURVE	TABLE
	Pt	Time	Freq	Zreal	Zimag	Zsig	Zmod	Zphz	Idc	Vdc	IERange
	#	s	Hz	ohm	ohm	V	ohm	°	A	V	#
	0	20	300046.9	1360.041	-4412.92	1	4617.746	-72.87096	2.514678E-005	0.0009819	9
	1	43	238359.4	2083.039	-5295.116	1	5690.106	-68.52589	-3.007324E-005	-0.001227	9
	2	57	189328.1	2903.847	-5853.944	1	6534.599	-63.6163	-9.986567E-007	0.0016227	9
	3	66	150421.9	3970.942	-6738.408	1	7821.415	-59.48917	1.07626E-006	-0.0019278	9
	4	74	119484.4	5602.943	-7364.55	1	9253.624	-52.73616	4.893976E-005	-0.0019947	8
	5	81	94921.88	7377.713	-7997.153	1	10880.49	-47.30715	-1.093194E-006	-0.005061	8
	6	90	75421.88	9248.385	-8280.674	1	12413.79	-41.84013	-2.354337E-005	0.0051919	8
	7	98	59859.37	10924.73	-8182.272	1	13649.15	-36.83204	2.580359E-005	-0.0088896	8
	8	107	47578.12	12846.49	-7846.459	1	15053.22	-31.41601	2.70192E-005	-0.0073374	8
	9	115	37828.12	14605.15	-7370.076	1	16359.36	-26.7765	-2.207177E-006	0.0076565	8
	10	124	30046.88	16663.47	-5527.998	1	17556.48	-18.35292	7.346232E-006	-0.0173591	7
	11	131	23859.38	17307.11	-4971.033	1	18006.87	-16.02538	-6.415439E-006	0.0104728	7
	12	135	18984.38	18147.16	-4127.666	1	18610.67	-12.81421	7.437292E-006	-0.0233553	7
	13	139	15046.87	18796.96	-3451.284	1	19111.18	-10.40412	3.717653E-006	-0.0245524	7
	14	143	11953.13	19320.29	-2902.602	1	19537.11	-8.543986	6.29897E-006	-0.0088654	7
	15	148	9515.62	19704.99	-2563.432	1	19871.03	-7.412012	-5.020681E-006	0.0025724	7
	16	152	7546.875	20037.69	-2156.099	1	20153.35	-6.141521	7.564508E-006	-0.0234601	7
	17	156	5928.309	20411.34	-2059.152	1	20514.95	-5.760664	-6.467735E-006	0.0249565	7
	18	160	4733.456	20731.17	-1771.272	1	20806.7	-4.883493	-1.984791E-006	0.0220666	7
	19	165	3796.875	20922.97	-1648.275	1	20987.79	-4.504358	1.492755E-007	0.0167359	7
	20	169	2987.132	21318.56	-1617.445	1	21379.83	-4.338733	-8.083254E-007	-0.013812	7
	21	173	2390.625	21530.38	-1553.144	1	21586.32	-4.126017	-6.457102E-006	0.0109621	7
	22	177	1884.191	21958.56	-1639.921	1	22019.71	-4.271065	6.799993E-006	-0.0262868	7
	23	182	1516.544	22294.84	-1540.05	1	22347.97	-3.951515	-7.990564E-007	-0.0138593	7
	24	186	1193.986	22768.9	-1624.096	1	22826.75	-4.079973	-7.154246E-006	0.0177799	7
	25	191	946.5144	22966.85	-1486.434	1	23014.9	-3.703068	7.56809E-006	-0.0233019	7
	26	193	751.7689	23341.8	-2646.859	1	23491.39	-6.469459	2.45472E-006	0.0091179	7
	27	196	597.4265	23804.27	-2271.379	1	23912.39	-5.450603	2.581684E-006	0.0093102	7
	28	198	477.4305	24115.2	-3076.021	1	24310.59	-7.269125	-8.98977E-008	0.0005598	7
	29	202	376.6741	24553.38	-3626.041	1	24819.68	-8.400716	-9.760375E-008	0.0006591	7
	30	204	298.2954	25035.53	-4268.307	1	25396.77	-9.67533	-9.032225E-008	0.0005746	7
	31	206	237.7717	25607.53	-4991.24	1	26089.42	-11.02941	-9.673213E-008	0.0006554	7
	32	209	189.0121	26271.01	-5838.6	1	26911.99	-12.53005	-9.466675E-008	0.0006589	7
	33	211	150.2404	27032.74	-6799.777	1	27874.83	-14.11918	-9.605548E-008	0.0006318	7
	34	214	119.1737	27824.12	-7948.914	1	28937.29	-15.94381	-8.985008E-008	0.0005639	7
	35	216	95.0169	28801.06	-9211.621	1	30238.3	-17.73616	-9.778942E-008	0.0006502	7
	36	219	75.60484	29837.68	-10675.7	1	31690.02	-19.68684	-8.654839E-008	0.0005591	7
	37	221	54.50582	31397.89	-13221.49	1	34068.1	-22.8357	-8.769718E-008	0.0005561	7
	38	224	45.95588	32414.39	-14798.22	1	35632.57	-24.53824	-9.211E-008	0.0006325	7
	39	226	37.20238	33669.5	-17040.11	1	37735.93	-26.84394	-9.209771E-008	0.0005804	7
	40	228	30.04808	35078.47	-19719.71	1	40241.34	-29.34295	-1.1027E-008	0.0007245	6
	41	231	23.91582	36607.41	-23140.79	1	43308.18	-32.29838	-1.138298E-008	0.0006992	6
	42	233	18.60119	38267.35	-27770.48	1	47282.02	-35.96825	-8.869531E-009	0.0006361	6
	43	235	15.02404	39717.98	-32522.06	1	51334.22	-39.31147	-9.288207E-009	0.0006199	6
	44	238	12.01923	41275.7	-38671.15	1	56560.95	-43.13405	-1.124922E-008	0.0006803	6
	45	240	9.450605	42995.14	-47025.5	1	63717.97	-47.56351	-9.892367E-009	0.0006684	6
	46	243	7.512019	44661.54	-57034.88	1	72440.53	-51.93704	-9.165936E-009	0.000636	6
	47	245	5.978954	46593.28	-69645.23	1	83793.75	-56.21712	-9.486027E-009	0.0006369	6
	48	249	4.734848	48729.68	-85683.29	1	98570.8	-60.37231	-9.565568E-009	0.0007258	6
	49	252	3.75601	51362.5	-105774.7	1	117585.7	-64.09953	-9.654893E-009	0.0005939	6
	50	255	3.004808	54401.79	-129748.4	1	140691.9	-67.25234	-9.717807E-009	0.000712	6
	51	259	2.372217	58379.91	-161760.9	1	171973.3	-70.15536	-1.008259E-008	0.0007264	6
	52	263	1.878005	63255.95	-201216.5	1	210925.1	-72.54855	-1.016933E-008	0.0006347	6
	53	268	1.512097	69310.17	-245998.5	1	255576.2	-74.2648	-9.87953E-009	0.0007248	6
	54	273	1.201923	76975.2	-306056.4	1	315587.9	-75.88255	-9.991772E-009	0.0006633	6
	55	281	0.956633	86798.73	-379109.7	1	388919.3	-77.10416	-1.027713E-008	1.246166E-005	6
