EXPLAIN
TAG	EISPOT
TITLE	LABEL	Potentiostatic EIS	Test Identifier
DATE	LABEL	8/21/2020	Date
TIME	LABEL	15:29:55	Time
NOTES	NOTES	1	Notes...
	
PSTAT	PSTAT	REF3000-16137	Potentiostat
VDC	POTEN	0.00000E+000	T	DC Voltage (V)
FREQINIT	QUANT	3.00000E+005	Initial Freq. (Hz)
FREQFINAL	QUANT	1.00000E+000	Final Freq. (Hz)
PTSPERDEC	QUANT	1.00000E+001	Points/decade
VAC	QUANT	5.00000E+001	AC Voltage (mV rms)
AREA	QUANT	1.00000E+000	Sample Area (cm^2)
SPEED	SELECTOR	2	Optimize for:
ZGUESS	QUANT	1.00000E+003	Estimated Z (ohms)
EOC	QUANT	0	Open Circuit (V)
SEQUENCER	TOGGLE	TRUE	Run as Sequence
PSTATMODEL	IQUANT	5	Pstat Model
PSTATSECTION	LABEL	REF3000-16137	Pstat Section
PSTATSERIALNO	LABEL	16137	Pstat Serial Number
CTRLMODE	IQUANT	1	Control Mode
IESTAB	IQUANT	0	I/E Stability
CASPEED	IQUANT	1	Control Amp Speed
CONVENTION	IQUANT	1	Current Convention
ICHRANGE	IQUANT	2	Ich Range
ICHRANGEMODE	TOGGLE	F	Ich Auto Range
ICHOFFSETENABLE	TOGGLE	T	Ich Offset Enable
ICHOFFSET	QUANT	0	Ich Offset (V)
ICHFILTER	IQUANT	3	Ich Filter
VCHRANGE	IQUANT	2	Vch Range
VCHRANGEMODE	TOGGLE	F	Vch Auto Range
VCHOFFSETENABLE	TOGGLE	T	Vch Offset Enable
VCHOFFSET	QUANT	0	Vch Offset (V)
VCHFILTER	IQUANT	3	Vch Filter
ACHRANGE	IQUANT	2	Ach Range
ACHOFFSETENABLE	TOGGLE	F	Ach Offset Enable
ACHOFFSET	QUANT	0	Ach Offset (V)
ACHFILTER	IQUANT	3	Ach Filter
IERANGELOWERLIMIT	IQUANT	2	I/E Range Lower Limit
IERANGEMODE	TOGGLE	F	I/E AutoRange
IERANGE	IQUANT	11	I/E Range
POSFEEDENABLE	TOGGLE	F	Positive Feedback IR Comp
POSFEEDRESISTANCE	QUANT	0	Positive Feedback Resistance (ohm)
ACHSELECT	IQUANT	0	Ach Select
CABLEID	IQUANT	13	Cable ID
DCCALDATE	LABEL	7/31/2020	DC Calibration Date
ACCALDATE	LABEL	7/31/2020	AC Calibration Date
THERMOSELECT	IQUANT	1	Thermo Select
FRAMEWORKVERSION	QUANT	6.33	Framework Version
INSTRUMENTVERSION	LABEL	3.50	Instrument Version
COMPLIANCEVOLTAGE	IQUANT	0	Compliance Voltage
ZCURVE	TABLE
	Pt	Time	Freq	Zreal	Zimag	Zsig	Zmod	Zphz	Idc	Vdc	IERange
	#	s	Hz	ohm	ohm	V	ohm	°	A	V	#
	0	7	300046.9	52.77308	-1.826024	1	52.80466	-1.981725	1.619639E-005	-3.466615E-006	9
	1	10	238359.4	53.23157	-2.82287	1	53.30637	-3.035551	8.875226E-006	-0.0010903	9
	2	13	189328.1	53.6091	-4.026185	1	53.76007	-4.295002	1.071783E-005	0.0003129	9
	3	15	150421.9	54.1208	-5.218866	1	54.37185	-5.507998	-4.097818E-005	0.0007025	9
	4	18	119484.4	54.68649	-6.623889	1	55.08618	-6.906296	-1.019454E-005	-0.0006783	9
	5	21	94921.88	55.46684	-7.99657	1	56.0403	-8.20372	-1.605197E-006	-0.0002367	9
	6	23	75421.88	56.3115	-9.83644	1	57.16416	-9.9084	-5.953987E-006	0.0005275	9
	7	26	59859.37	57.36064	-11.83677	1	58.56921	-11.65972	-1.443887E-005	0.0005186	9
	8	28	47578.12	58.60077	-14.05687	1	60.26313	-13.48897	1.857927E-005	-0.0005913	9
	9	31	37828.12	60.0458	-16.53262	1	62.28022	-15.39402	-3.137091E-006	-0.0001305	9
	10	33	30046.88	61.71099	-19.36482	1	64.67799	-17.42178	-1.609607E-005	0.0006065	9
	11	36	23859.38	63.50682	-22.545	1	67.38985	-19.54493	-2.680642E-006	0.0005601	9
	12	38	18984.38	65.45918	-26.24717	1	70.52531	-21.84931	-3.675016E-006	0.0004931	9
	13	40	15046.87	67.50235	-30.59574	1	74.11253	-24.38262	-1.622095E-005	0.0005897	9
	14	43	11953.13	69.78487	-35.84624	1	78.45305	-27.18811	-2.420195E-006	0.0005483	9
	15	45	9515.62	72.01873	-42.09194	1	83.4172	-30.3045	-8.956772E-006	4.359124E-005	9
	16	47	7546.875	74.38226	-49.67205	1	89.44291	-33.73477	-1.415635E-005	0.0003962	9
	17	50	5928.309	76.72153	-59.69135	1	97.2073	-37.88385	-1.614377E-005	0.0004584	9
	18	52	4733.456	78.8208	-71.46328	1	106.3942	-42.19719	-9.097934E-006	0.0006543	9
	19	54	3796.875	80.94041	-85.52004	1	117.7498	-46.57592	-1.193754E-005	0.0002009	9
	20	57	2987.132	83.12056	-105.3945	1	134.2275	-51.73851	2.089916E-005	-0.0004087	9
	21	59	2390.625	85.53118	-128.4429	1	154.3151	-56.34002	-1.543523E-005	0.0006886	9
	22	61	1884.191	88.39433	-159.713	1	182.5426	-61.03735	-1.301957E-005	0.0002149	9
	23	64	1516.544	91.43526	-195.3644	1	215.7027	-64.91927	-1.602104E-005	0.0006479	9
	24	66	1193.986	95.5112	-244.5537	1	262.5431	-68.66672	1.158441E-005	6.447016E-005	9
	25	68	946.5144	100.4128	-304.9345	1	321.0417	-71.77365	3.478695E-006	-0.0003471	9
	26	71	751.7689	107.4967	-378.6605	1	393.6233	-74.15146	-1.624968E-005	0.0006513	9
	27	73	597.4265	117.1559	-470.1803	1	484.5565	-76.00839	4.461137E-006	-0.0002368	8
	28	75	477.4305	130.0324	-581.6083	1	595.967	-77.39742	3.426507E-007	0.0006362	8
	29	78	376.6741	148.1085	-728.155	1	743.0651	-78.50275	3.556881E-007	0.0006323	8
	30	80	298.2954	172.4546	-907.7089	1	923.9459	-79.24265	3.563225E-007	0.000645	8
	31	82	237.7717	204.7419	-1123.278	1	1141.785	-79.67	3.606796E-007	0.0006309	8
	32	85	189.0121	248.9936	-1392.156	1	1414.248	-79.8596	3.64347E-007	0.0006379	8
	33	87	150.2404	309.1062	-1722.606	1	1750.12	-79.82705	3.520008E-007	0.0006394	8
	34	90	119.1737	391.8686	-2132.42	1	2168.127	-79.5871	3.711229E-007	0.0006358	8
	35	92	95.0169	501.9631	-2621.582	1	2669.206	-79.16058	3.656504E-007	0.0006356	8
	36	94	75.60484	652.8208	-3223.38	1	3288.823	-78.55093	3.639915E-007	0.000634	8
	37	97	54.50582	967.946	-4309.493	1	4416.859	-77.341	3.66912E-007	0.0006381	8
	38	99	45.95588	1198.671	-5014.275	1	5155.557	-76.55566	5.609846E-008	0.0006147	7
	39	102	37.20238	1560.561	-6007.723	1	6207.099	-75.43871	4.997918E-008	0.0006139	7
	40	104	30.04808	2050.924	-7189.921	1	7476.714	-74.07921	4.808881E-008	0.0006061	7
	41	107	23.91582	2734.252	-8648.983	1	9070.891	-72.4564	4.22057E-008	0.0006092	7
	42	109	18.60119	3751.17	-10541.15	1	11188.7	-70.4114	4.319107E-008	0.0006142	7
	43	111	15.02404	4903.2	-12349.9	1	13287.64	-68.34576	5.802364E-008	0.0006176	7
	44	113	12.01923	6427.228	-14434.29	1	15800.57	-65.99779	4.37822E-008	0.0006131	7
	45	116	9.450605	8525.612	-16871.56	1	18903.32	-63.19141	3.478641E-008	0.0006048	7
	46	118	7.512019	11049.01	-19221.4	1	22170.77	-60.10847	4.296252E-008	0.0006068	7
	47	121	5.978954	14087.61	-21515.32	1	25717.11	-56.78438	3.390469E-008	0.000641	7
	48	124	4.734848	17910.77	-23218.23	1	29323.74	-52.35306	2.688709E-008	0.0006312	7
	49	129	3.75601	22031.67	-24583.22	1	33011.04	-48.13306	2.584239E-008	0.0006283	7
	50	134	3.004808	26213.88	-25494.32	1	36566.76	-44.20273	1.723158E-008	0.0006385	7
	51	141	2.372217	30714.34	-25763.12	1	40088.77	-39.98985	-1.921286E-008	0.0006502	6
	52	148	1.878005	34919.27	-24810.2	1	42835.75	-35.39385	-2.446974E-008	0.0006403	6
	53	157	1.512097	38477.85	-24056.02	1	45378.82	-32.01327	-2.731886E-008	0.0007438	6
	54	168	1.201923	41796.89	-22595.79	1	47513.68	-28.39607	-3.002249E-008	0.000689	6
	55	181	0.956633	45190.96	-21300.44	1	49959.3	-25.23652	-5.980896E-008	2.072244E-005	6
