EXPLAIN
TAG	EISPOT
TITLE	LABEL	Potentiostatic EIS	Test Identifier
DATE	LABEL	8/21/2020	Date
TIME	LABEL	17:10:24	Time
NOTES	NOTES	1	Notes...
	
PSTAT	PSTAT	REF3000-16137	Potentiostat
VDC	POTEN	0.00000E+000	T	DC Voltage (V)
FREQINIT	QUANT	3.00000E+005	Initial Freq. (Hz)
FREQFINAL	QUANT	1.00000E+000	Final Freq. (Hz)
PTSPERDEC	QUANT	1.00000E+001	Points/decade
VAC	QUANT	5.00000E+001	AC Voltage (mV rms)
AREA	QUANT	1.00000E+000	Sample Area (cm^2)
SPEED	SELECTOR	2	Optimize for:
ZGUESS	QUANT	1.00000E+003	Estimated Z (ohms)
EOC	QUANT	0	Open Circuit (V)
SEQUENCER	TOGGLE	TRUE	Run as Sequence
PSTATMODEL	IQUANT	5	Pstat Model
PSTATSECTION	LABEL	REF3000-16137	Pstat Section
PSTATSERIALNO	LABEL	16137	Pstat Serial Number
CTRLMODE	IQUANT	1	Control Mode
IESTAB	IQUANT	0	I/E Stability
CASPEED	IQUANT	1	Control Amp Speed
CONVENTION	IQUANT	1	Current Convention
ICHRANGE	IQUANT	2	Ich Range
ICHRANGEMODE	TOGGLE	F	Ich Auto Range
ICHOFFSETENABLE	TOGGLE	T	Ich Offset Enable
ICHOFFSET	QUANT	0	Ich Offset (V)
ICHFILTER	IQUANT	3	Ich Filter
VCHRANGE	IQUANT	2	Vch Range
VCHRANGEMODE	TOGGLE	F	Vch Auto Range
VCHOFFSETENABLE	TOGGLE	T	Vch Offset Enable
VCHOFFSET	QUANT	0	Vch Offset (V)
VCHFILTER	IQUANT	3	Vch Filter
ACHRANGE	IQUANT	2	Ach Range
ACHOFFSETENABLE	TOGGLE	F	Ach Offset Enable
ACHOFFSET	QUANT	0	Ach Offset (V)
ACHFILTER	IQUANT	3	Ach Filter
IERANGELOWERLIMIT	IQUANT	2	I/E Range Lower Limit
IERANGEMODE	TOGGLE	F	I/E AutoRange
IERANGE	IQUANT	11	I/E Range
POSFEEDENABLE	TOGGLE	F	Positive Feedback IR Comp
POSFEEDRESISTANCE	QUANT	0	Positive Feedback Resistance (ohm)
ACHSELECT	IQUANT	0	Ach Select
CABLEID	IQUANT	13	Cable ID
DCCALDATE	LABEL	7/31/2020	DC Calibration Date
ACCALDATE	LABEL	7/31/2020	AC Calibration Date
THERMOSELECT	IQUANT	1	Thermo Select
FRAMEWORKVERSION	QUANT	6.33	Framework Version
INSTRUMENTVERSION	LABEL	3.50	Instrument Version
COMPLIANCEVOLTAGE	IQUANT	0	Compliance Voltage
ZCURVE	TABLE
	Pt	Time	Freq	Zreal	Zimag	Zsig	Zmod	Zphz	Idc	Vdc	IERange
	#	s	Hz	ohm	ohm	V	ohm	°	A	V	#
	0	20	300046.9	20.15744	-4755.09	1	4755.133	-89.75712	8.328616E-005	-0.0037013	9
	1	34	238359.4	147.0592	-5959.551	1	5961.365	-88.58644	3.041754E-005	-0.0015467	9
	2	50	189328.1	-59.04504	-7393.564	1	7393.8	-90.45756	2.920588E-005	-0.0015154	9
	3	60	150421.9	112.528	-9077.646	1	9078.343	-89.28979	-1.643105E-005	0.0018315	9
	4	75	119484.4	786.1527	-11306.73	1	11334.03	-86.02265	-4.156546E-005	0.0227352	8
	5	82	94921.88	702.2179	-14292.64	1	14309.88	-87.18724	1.728493E-005	0.0004095	8
	6	91	75421.88	860.116	-18054.65	1	18075.13	-87.27251	-2.511228E-005	0.0111276	8
	7	99	59859.37	1126.096	-22645.09	1	22673.07	-87.15314	8.338524E-006	-0.0078606	8
	8	108	47578.12	4441.122	-29780.7	1	30110.02	-81.51813	-7.464992E-006	0.0190313	7
	9	114	37828.12	1484.622	-35948.63	1	35979.27	-87.63512	8.082831E-006	0.0042697	8
	10	123	30046.88	1652.204	-43629.23	1	43660.5	-87.83129	1.733055E-005	0.0003184	8
	11	131	23859.38	8743.123	-58754.95	1	59401.91	-81.53612	-1.609464E-006	0.0219762	7
	12	137	18984.38	6410.588	-71300.34	1	71587.95	-84.86237	3.778566E-006	-0.024776	7
	13	142	15046.87	8221.207	-89150.27	1	89528.54	-84.73123	-6.786742E-006	0.0263527	7
	14	149	11953.13	10036.1	-111567.1	1	112017.6	-84.85975	-5.349907E-006	0.0035212	7
	15	155	9515.62	14104.55	-140721.1	1	141426.2	-84.27633	-7.298013E-006	0.0238825	7
	16	160	7546.875	16263.31	-169120.6	1	169900.8	-84.5071	-5.612284E-006	0.0040082	7
	17	166	5928.309	5298.74	-229740.8	1	229801.9	-88.67876	2.779862E-006	0.00876	7
	18	172	4733.456	44144.3	-271212.1	1	274781.2	-80.75523	6.649202E-006	-0.0101117	7
	19	179	3796.875	37243.2	-355843.1	1	357786.8	-84.02507	7.712667E-006	-0.0187349	7
	20	185	2987.132	43343.71	-392404.6	1	394791.2	-83.69685	-5.432367E-006	0.0269455	7
	21	192	2390.625	59109.69	-586010.1	1	588983.8	-84.24017	-3.81491E-006	0.0257186	7
	22	199	1884.191	480912.4	-726463	1	871220.5	-56.49578	-6.802311E-006	0.0120186	7
	23	206	1516.544	106607.9	-509561.3	1	520593.9	-78.1833	2.317463E-005	-0.0027948	8
	24	214	1193.986	174949.7	-1279976	1	1291877	-82.21693	-7.325679E-006	0.0237015	7
	25	222	946.5144	165193.1	-789859.8	1	806949.4	-78.18729	6.906927E-006	-0.0270897	7
	26	227	751.7689	95398.8	-289371.5	1	304691.3	-71.75386	2.742616E-005	-0.0073902	8
	27	234	597.4265	255705.4	-136869.1	1	290031.8	-28.1584	2.750175E-005	-0.0074659	8
	28	241	477.4305	1322432	-1833010	1	2260255	-54.19131	-4.434901E-007	0.0006327	8
	29	247	376.6741	1750026	-2032662	1	2682221	-49.2731	-9.942206E-009	0.0006274	6
	30	251	298.2954	2450782	-1967734	1	3142978	-38.761	-1.018804E-009	0.000643	5
	31	255	237.7717	2738008	-2132268	1	3470340	-37.91026	-9.329502E-009	0.0006082	6
	32	259	189.0121	3313552	-1894948	1	3817127	-29.76429	-1.037041E-009	0.000632	5
	33	263	150.2404	3617471	-1827337	1	4052809	-26.80027	-1.063198E-009	0.0006878	5
	34	267	119.1737	4496034	-2032061	1	4933923	-24.32141	-1.056236E-009	0.0006446	5
	35	269	95.0169	4293842	-1373505	1	4508170	-17.73832	-1.102318E-009	0.0006792	5
	36	272	75.60484	4590494	-1241480	1	4755408	-15.13338	-1.061574E-009	0.00068	5
	37	275	54.50582	4799424	-999751	1	4902446	-11.76681	-9.987043E-010	0.0006394	5
	38	278	45.95588	5247186	-300818.6	1	5255802	-3.281148	-7.410671E-011	0.0006054	4
	39	281	37.20238	5327431	-325583.6	1	5337371	-3.497256	-1.294178E-010	0.0006123	4
	40	283	30.04808	5366548	-282512.3	1	5373979	-3.013452	-1.438383E-010	0.0006871	4
	41	286	23.91582	5415572	-292497	1	5423465	-3.091562	-4.62304E-011	0.0005905	4
	42	289	18.60119	5570655	-357426.3	1	5582110	-3.6712	-2.07899E-010	0.0006658	4
	43	291	15.02404	5579211	-273464.6	1	5585909	-2.806103	-3.101096E-011	0.0006691	4
	44	294	12.01923	5659028	-297157.1	1	5666825	-3.005856	-5.669838E-011	0.000691	4
	45	296	9.450605	5762729	-347731.8	1	5773210	-3.453128	-7.582785E-012	0.0006594	4
	46	299	7.512019	5884618	-384224.2	1	5897148	-3.735709	-1.213486E-010	0.0006607	4
	47	302	5.978954	6026489	-451005.8	1	6043341	-4.27988	-1.270362E-010	0.0006263	4
	48	307	4.734848	6227738	-517829.7	1	6249229	-4.753148	-6.35249E-011	0.0006092	4
	49	311	3.75601	6459829	-599162.6	1	6487556	-5.299141	-2.370763E-011	0.0006397	4
	50	317	3.004808	6725233	-711504.3	1	6762766	-6.039212	-1.152167E-010	0.0006114	4
	51	323	2.372217	7001436	-834543.6	1	7050998	-6.797361	-1.842375E-011	0.0006533	4
	52	328	1.878005	7254592	-985010	1	7321158	-7.732188	-4.519086E-011	0.0006201	4
	53	332	1.512097	7547512	-1155826	1	7635501	-8.706633	-1.028968E-010	0.0007396	4
	54	338	1.201923	7922936	-1379754	1	8042178	-9.87881	-3.004432E-011	0.0006306	4
	55	344	0.956633	8361835	-1630972	1	8519410	-11.03694	-2.987589E-010	2.519183E-006	4
