EXPLAIN
TAG	EISPOT
TITLE	LABEL	Potentiostatic EIS	Test Identifier
DATE	LABEL	8/21/2020	Date
TIME	LABEL	15:36:18	Time
NOTES	NOTES	1	Notes...
	
PSTAT	PSTAT	REF3000-16137	Potentiostat
VDC	POTEN	0.00000E+000	T	DC Voltage (V)
FREQINIT	QUANT	3.00000E+005	Initial Freq. (Hz)
FREQFINAL	QUANT	1.00000E+000	Final Freq. (Hz)
PTSPERDEC	QUANT	1.00000E+001	Points/decade
VAC	QUANT	5.00000E+001	AC Voltage (mV rms)
AREA	QUANT	1.00000E+000	Sample Area (cm^2)
SPEED	SELECTOR	2	Optimize for:
ZGUESS	QUANT	1.00000E+003	Estimated Z (ohms)
EOC	QUANT	0	Open Circuit (V)
SEQUENCER	TOGGLE	TRUE	Run as Sequence
PSTATMODEL	IQUANT	5	Pstat Model
PSTATSECTION	LABEL	REF3000-16137	Pstat Section
PSTATSERIALNO	LABEL	16137	Pstat Serial Number
CTRLMODE	IQUANT	1	Control Mode
IESTAB	IQUANT	0	I/E Stability
CASPEED	IQUANT	1	Control Amp Speed
CONVENTION	IQUANT	1	Current Convention
ICHRANGE	IQUANT	2	Ich Range
ICHRANGEMODE	TOGGLE	F	Ich Auto Range
ICHOFFSETENABLE	TOGGLE	T	Ich Offset Enable
ICHOFFSET	QUANT	0	Ich Offset (V)
ICHFILTER	IQUANT	3	Ich Filter
VCHRANGE	IQUANT	2	Vch Range
VCHRANGEMODE	TOGGLE	F	Vch Auto Range
VCHOFFSETENABLE	TOGGLE	T	Vch Offset Enable
VCHOFFSET	QUANT	0	Vch Offset (V)
VCHFILTER	IQUANT	3	Vch Filter
ACHRANGE	IQUANT	2	Ach Range
ACHOFFSETENABLE	TOGGLE	F	Ach Offset Enable
ACHOFFSET	QUANT	0	Ach Offset (V)
ACHFILTER	IQUANT	3	Ach Filter
IERANGELOWERLIMIT	IQUANT	2	I/E Range Lower Limit
IERANGEMODE	TOGGLE	F	I/E AutoRange
IERANGE	IQUANT	11	I/E Range
POSFEEDENABLE	TOGGLE	F	Positive Feedback IR Comp
POSFEEDRESISTANCE	QUANT	0	Positive Feedback Resistance (ohm)
ACHSELECT	IQUANT	0	Ach Select
CABLEID	IQUANT	13	Cable ID
DCCALDATE	LABEL	7/31/2020	DC Calibration Date
ACCALDATE	LABEL	7/31/2020	AC Calibration Date
THERMOSELECT	IQUANT	1	Thermo Select
FRAMEWORKVERSION	QUANT	6.33	Framework Version
INSTRUMENTVERSION	LABEL	3.50	Instrument Version
COMPLIANCEVOLTAGE	IQUANT	0	Compliance Voltage
ZCURVE	TABLE
	Pt	Time	Freq	Zreal	Zimag	Zsig	Zmod	Zphz	Idc	Vdc	IERange
	#	s	Hz	ohm	ohm	V	ohm	°	A	V	#
	0	7	300046.9	62.9655	-2.100316	1	63.00052	-1.910485	-8.438458E-006	-0.001296	9
	1	10	238359.4	63.20999	-3.276706	1	63.29486	-2.967466	-6.090459E-005	0.0020478	9
	2	13	189328.1	63.64584	-4.470581	1	63.80266	-4.017944	-8.617506E-007	0.0003096	9
	3	16	150421.9	64.059	-5.917889	1	64.33177	-5.278109	-9.405769E-007	0.0006902	9
	4	18	119484.4	64.80187	-7.152202	1	65.19537	-6.29826	-6.739296E-005	0.0024659	9
	5	21	94921.88	65.6677	-8.599571	1	66.22839	-7.460763	2.286517E-005	-0.0004776	9
	6	24	75421.88	66.54726	-10.56733	1	67.38105	-9.022908	1.841651E-005	-0.0006367	9
	7	26	59859.37	67.72133	-12.75956	1	68.91288	-10.67017	3.479796E-006	0.0002903	9
	8	29	47578.12	69.08965	-15.19285	1	70.74039	-12.40199	-1.803826E-005	0.0005332	9
	9	31	37828.12	70.70393	-17.93196	1	72.94244	-14.23131	2.26678E-005	-0.0005774	9
	10	34	30046.88	72.55436	-21.02953	1	75.54056	-16.16397	-1.688918E-005	0.0003742	9
	11	36	23859.38	74.58978	-24.46749	1	78.50027	-18.16091	1.99208E-005	-0.0006211	9
	12	38	18984.38	76.81665	-28.41384	1	81.90326	-20.29901	-2.782117E-006	-0.0001685	9
	13	41	15046.87	79.26481	-33.27053	1	85.96416	-22.76969	-2.109868E-005	0.0006462	9
	14	43	11953.13	81.86094	-38.83805	1	90.60689	-25.38151	2.676344E-006	-0.0003312	9
	15	45	9515.62	84.56561	-45.32168	1	95.9448	-28.18842	-2.788525E-006	0.0005695	9
	16	48	7546.875	87.36378	-53.18934	1	102.2817	-31.33414	-1.635766E-005	0.0007007	9
	17	50	5928.309	90.33616	-63.59953	1	110.4786	-35.14676	-1.516549E-005	0.0003654	9
	18	52	4733.456	92.91422	-75.54436	1	119.7497	-39.113	-1.345508E-005	0.000205	9
	19	55	3796.875	95.4936	-89.99132	1	131.2153	-43.30087	-1.661138E-005	0.0007212	9
	20	57	2987.132	98.0707	-110.279	1	147.5782	-48.35343	-1.731492E-005	0.0006943	9
	21	59	2390.625	100.6501	-133.9358	1	167.5388	-53.07587	1.677231E-005	-0.0006259	9
	22	62	1884.191	103.4193	-165.7733	1	195.3877	-58.04162	-1.769137E-005	0.000588	9
	23	64	1516.544	106.7849	-202.0477	1	228.5307	-62.14294	-1.796221E-005	0.0005963	9
	24	66	1193.986	111.4247	-252.7286	1	276.2014	-66.20795	4.613583E-006	-0.0004027	9
	25	69	946.5144	115.6368	-315.58	1	336.0992	-69.87584	1.628059E-005	-0.000598	9
	26	71	751.7689	122.7399	-392.1705	1	410.9292	-72.62114	-1.548857E-005	0.000391	9
	27	73	597.4265	130.7554	-485.3744	1	502.6781	-74.92297	-4.202707E-006	0.0019561	8
	28	76	477.4305	142.7263	-601.0204	1	617.7349	-76.64123	3.276433E-007	0.0006315	8
	29	78	376.6741	159.2416	-753.189	1	769.8386	-78.06214	3.339277E-007	0.0006323	8
	30	80	298.2954	181.3989	-940.0619	1	957.404	-79.07817	3.142254E-007	0.0006419	8
	31	83	237.7717	210.4501	-1165.047	1	1183.901	-79.7607	3.200078E-007	0.0006361	8
	32	85	189.0121	250.4317	-1446.381	1	1467.902	-80.17699	3.261372E-007	0.0006464	8
	33	87	150.2404	304.6815	-1793.192	1	1818.892	-80.35696	3.336492E-007	0.0006455	8
	34	90	119.1737	379.1474	-2225.19	1	2257.26	-80.33031	3.302474E-007	0.0006438	8
	35	92	95.0169	476.5797	-2743.502	1	2784.588	-80.14536	3.33248E-007	0.0006389	8
	36	95	75.60484	611.2302	-3384.58	1	3439.329	-79.76314	3.321299E-007	0.0006391	8
	37	97	54.50582	893.5464	-4554.124	1	4640.956	-78.89924	3.326959E-007	0.0006354	8
	38	100	45.95588	1098.759	-5318.454	1	5430.767	-78.32727	5.375757E-008	0.000619	7
	39	102	37.20238	1425.82	-6412.321	1	6568.929	-77.46387	4.901721E-008	0.0006448	7
	40	104	30.04808	1867.566	-7722.343	1	7944.96	-76.40466	4.508156E-008	0.0006134	7
	41	107	23.91582	2513.392	-9401.87	1	9732.02	-75.03316	4.819972E-008	0.0006094	7
	42	109	18.60119	3464.494	-11556.89	1	12065.01	-73.31246	5.896505E-008	0.0006106	7
	43	112	15.02404	4554.178	-13715.49	1	14451.83	-71.63145	6.070602E-008	0.0006237	7
	44	114	12.01923	6039.558	-16275.46	1	17359.92	-69.64093	3.975211E-008	0.0006064	7
	45	116	9.450605	8104.351	-19358.73	1	20986.69	-67.28384	4.119683E-008	0.0006214	7
	46	119	7.512019	10653.65	-22596.65	1	24982.18	-64.75751	4.071111E-008	0.0006032	7
	47	121	5.978954	13856.79	-26012.64	1	29473.17	-61.95602	4.216802E-008	0.0006195	7
	48	124	4.734848	17877.44	-29589.43	1	34570.76	-58.86033	3.775165E-008	0.0005989	7
	49	128	3.75601	22830.68	-32660.16	1	39848.79	-55.04501	3.943527E-008	0.0006228	7
	50	133	3.004808	28243.36	-35305.82	1	45212.7	-51.34148	3.062893E-009	0.0007035	6
	51	140	2.372217	34540.39	-37506.48	1	50987.98	-47.35747	2.943565E-009	0.0006649	6
	52	147	1.878005	41313.46	-38604.58	1	56543.04	-43.05866	-3.324382E-010	0.0006366	6
	53	156	1.512097	47617.63	-39402.87	1	61806.35	-39.60725	-1.750812E-009	0.0007573	6
	54	167	1.201923	54244.22	-39215.5	1	66934.98	-35.8648	-2.184744E-009	0.0006323	6
	55	180	0.956633	61077.38	-38858.12	1	72390.6	-32.46498	-1.85828E-008	1.910701E-005	6
