EXPLAIN
TAG	EISPOT
TITLE	LABEL	Potentiostatic EIS	Test Identifier
DATE	LABEL	8/21/2020	Date
TIME	LABEL	18:53:52	Time
NOTES	NOTES	1	Notes...
	
PSTAT	PSTAT	REF3000-16137	Potentiostat
VDC	POTEN	0.00000E+000	T	DC Voltage (V)
FREQINIT	QUANT	3.00000E+005	Initial Freq. (Hz)
FREQFINAL	QUANT	1.00000E+000	Final Freq. (Hz)
PTSPERDEC	QUANT	1.00000E+001	Points/decade
VAC	QUANT	5.00000E+001	AC Voltage (mV rms)
AREA	QUANT	1.00000E+000	Sample Area (cm^2)
SPEED	SELECTOR	2	Optimize for:
ZGUESS	QUANT	1.00000E+003	Estimated Z (ohms)
EOC	QUANT	0	Open Circuit (V)
SEQUENCER	TOGGLE	TRUE	Run as Sequence
PSTATMODEL	IQUANT	5	Pstat Model
PSTATSECTION	LABEL	REF3000-16137	Pstat Section
PSTATSERIALNO	LABEL	16137	Pstat Serial Number
CTRLMODE	IQUANT	1	Control Mode
IESTAB	IQUANT	0	I/E Stability
CASPEED	IQUANT	1	Control Amp Speed
CONVENTION	IQUANT	1	Current Convention
ICHRANGE	IQUANT	2	Ich Range
ICHRANGEMODE	TOGGLE	F	Ich Auto Range
ICHOFFSETENABLE	TOGGLE	T	Ich Offset Enable
ICHOFFSET	QUANT	0	Ich Offset (V)
ICHFILTER	IQUANT	3	Ich Filter
VCHRANGE	IQUANT	2	Vch Range
VCHRANGEMODE	TOGGLE	F	Vch Auto Range
VCHOFFSETENABLE	TOGGLE	T	Vch Offset Enable
VCHOFFSET	QUANT	0	Vch Offset (V)
VCHFILTER	IQUANT	3	Vch Filter
ACHRANGE	IQUANT	2	Ach Range
ACHOFFSETENABLE	TOGGLE	F	Ach Offset Enable
ACHOFFSET	QUANT	0	Ach Offset (V)
ACHFILTER	IQUANT	3	Ach Filter
IERANGELOWERLIMIT	IQUANT	2	I/E Range Lower Limit
IERANGEMODE	TOGGLE	F	I/E AutoRange
IERANGE	IQUANT	11	I/E Range
POSFEEDENABLE	TOGGLE	F	Positive Feedback IR Comp
POSFEEDRESISTANCE	QUANT	0	Positive Feedback Resistance (ohm)
ACHSELECT	IQUANT	0	Ach Select
CABLEID	IQUANT	13	Cable ID
DCCALDATE	LABEL	7/31/2020	DC Calibration Date
ACCALDATE	LABEL	7/31/2020	AC Calibration Date
THERMOSELECT	IQUANT	1	Thermo Select
FRAMEWORKVERSION	QUANT	6.33	Framework Version
INSTRUMENTVERSION	LABEL	3.50	Instrument Version
COMPLIANCEVOLTAGE	IQUANT	0	Compliance Voltage
ZCURVE	TABLE
	Pt	Time	Freq	Zreal	Zimag	Zsig	Zmod	Zphz	Idc	Vdc	IERange
	#	s	Hz	ohm	ohm	V	ohm	°	A	V	#
	0	6	300046.9	50.81173	-1.785244	1	50.84309	-2.01223	3.090347E-006	-0.0010462	9
	1	10	238359.4	51.05545	-2.76882	1	51.13048	-3.104202	5.394726E-005	-0.0017995	9
	2	13	189328.1	51.347	-3.911762	1	51.49579	-4.356542	8.88583E-007	0.0005748	9
	3	15	150421.9	51.65321	-5.230977	1	51.91741	-5.782691	-2.683199E-005	-0.0001594	9
	4	18	119484.4	52.26527	-6.609715	1	52.68156	-7.207635	-5.937676E-005	0.0017224	9
	5	20	94921.88	52.99692	-7.961099	1	53.59154	-8.542989	-1.638927E-005	0.000526	9
	6	23	75421.88	53.79892	-9.74061	1	54.6736	-10.26256	-2.4838E-006	0.0004825	9
	7	25	59859.37	54.79113	-11.74242	1	56.03527	-12.09622	4.649688E-006	0.0003273	9
	8	28	47578.12	55.97482	-13.9697	1	57.6917	-14.01311	-1.614517E-005	0.0004117	9
	9	31	37828.12	57.34481	-16.40263	1	59.64456	-15.96239	1.506147E-005	-0.0005596	9
	10	33	30046.88	58.87112	-19.21172	1	61.92657	-18.07333	1.792713E-005	-0.0002072	9
	11	36	23859.38	60.57591	-22.40936	1	64.58808	-20.30138	1.985729E-005	-0.0002951	9
	12	38	18984.38	62.36313	-26.1049	1	67.60641	-22.71395	1.1103E-005	0.0001164	9
	13	40	15046.87	64.32185	-30.56982	1	71.21667	-25.42003	-1.230603E-005	0.000197	9
	14	43	11953.13	66.37662	-35.83855	1	75.43379	-28.36583	-2.978587E-006	0.0004719	9
	15	45	9515.62	68.39848	-42.15372	1	80.34481	-31.64537	3.858983E-006	0.0002917	9
	16	47	7546.875	70.44859	-49.93083	1	86.34866	-35.32732	-7.809128E-006	0.0006575	9
	17	50	5928.309	72.55466	-60.27204	1	94.32336	-39.71683	1.840999E-005	-0.0005344	9
	18	52	4733.456	74.39599	-72.34991	1	103.7751	-44.20118	1.719423E-005	-0.0001482	9
	19	54	3796.875	76.17979	-87.03785	1	115.6674	-48.806	-1.359585E-005	0.0003887	9
	20	56	2987.132	78.16232	-107.3802	1	132.8151	-53.94904	-1.442336E-005	0.000388	9
	21	59	2390.625	80.34631	-131.225	1	153.8686	-58.52174	-1.618587E-005	0.0005897	9
	22	61	1884.191	82.79243	-163.549	1	183.3108	-63.15037	1.832046E-005	-0.0005247	9
	23	63	1516.544	85.35557	-200.8085	1	218.1963	-66.97162	-1.567318E-005	0.0006512	9
	24	66	1193.986	89.25368	-251.7423	1	267.0963	-70.47836	4.177379E-006	0.0003223	9
	25	68	946.5144	95.8205	-313.3737	1	327.6959	-72.99791	-1.408114E-005	0.0004083	9
	26	71	751.7689	100.8376	-390.8582	1	403.6562	-75.53369	-1.633053E-005	0.0005607	9
	27	73	597.4265	110.1066	-484.9497	1	497.2923	-77.20801	-3.146182E-006	0.0018374	8
	28	75	477.4305	121.9306	-600.6449	1	612.8959	-78.52492	3.329381E-007	0.0006472	8
	29	78	376.6741	139.4296	-752.9875	1	765.7877	-79.50945	3.364883E-007	0.000647	8
	30	80	298.2954	163.2325	-940.0565	1	954.123	-80.14931	3.221066E-007	0.0006803	8
	31	82	237.7717	195.3892	-1164.992	1	1181.263	-80.47912	3.099918E-007	0.0006904	8
	32	85	189.0121	240.2644	-1446.027	1	1465.852	-80.56622	3.365757E-007	0.0006501	8
	33	87	150.2404	302.497	-1792.174	1	1817.523	-80.41947	3.445468E-007	0.0006468	8
	34	90	119.1737	389.6214	-2222.108	1	2256.008	-80.05493	3.390748E-007	0.0006472	8
	35	92	95.0169	508.5798	-2735.628	1	2782.502	-79.46839	3.432638E-007	0.0006436	8
	36	95	75.60484	674.3571	-3366.517	1	3433.394	-78.67282	3.427566E-007	0.0006464	8
	37	97	54.50582	1028.913	-4504.159	1	4620.186	-77.13236	3.492434E-007	0.0006386	8
	38	100	45.95588	1293.256	-5236.075	1	5393.421	-76.12621	3.826716E-008	0.0006354	7
	39	102	37.20238	1712.846	-6265.744	1	6495.644	-74.71078	3.193456E-008	0.0006202	7
	40	104	30.04808	2283.282	-7478.241	1	7819.045	-73.02135	2.173758E-008	0.0006148	7
	41	107	23.91582	3090.49	-8955.235	1	9473.509	-70.96023	2.302688E-008	0.0006184	7
	42	109	18.60119	4272.409	-10812.06	1	11625.58	-68.43845	3.699553E-008	0.0006193	7
	43	111	15.02404	5588.259	-12548.08	1	13736.19	-65.9943	4.151131E-008	0.000624	7
	44	114	12.01923	7333.899	-14485.49	1	16236.24	-63.14723	3.582356E-008	0.0006253	7
	45	116	9.450605	9650.73	-16664.67	1	19257.41	-59.92429	2.08201E-008	0.0006222	7
	46	119	7.512019	12346.68	-18671.27	1	22384.3	-56.52467	3.463409E-008	0.0006555	7
	47	121	5.978954	15487.51	-20505.76	1	25697.26	-52.93712	3.199446E-008	0.0006485	7
	48	125	4.734848	19130.93	-22184.48	1	29294.09	-49.22694	1.700425E-008	0.0006056	7
	49	128	3.75601	23071.48	-23141.21	1	32677.35	-45.08646	3.366046E-008	0.0006389	7
	50	131	3.004808	26961.36	-23365.11	1	35676.93	-40.91268	2.52881E-008	0.0006288	7
	51	138	2.372217	30998.99	-23254.55	1	38751.92	-36.87617	-8.681114E-009	0.0006419	6
	52	142	1.878005	34531.42	-22027.22	1	40958.73	-32.53337	-1.141848E-008	0.0006819	6
	53	151	1.512097	37316.77	-20926.55	1	42783.9	-29.2829	-1.347189E-008	0.0007387	6
	54	162	1.201923	39983.06	-19587.73	1	44523.3	-26.10026	-1.424677E-008	0.0006707	6
	55	174	0.956633	42764.24	-18641.97	1	46650.87	-23.55355	-4.310706E-008	2.514608E-005	6
