EXPLAIN
TAG	EISPOT
TITLE	LABEL	Potentiostatic EIS	Test Identifier
DATE	LABEL	8/21/2020	Date
TIME	LABEL	18:47:38	Time
NOTES	NOTES	1	Notes...
	
PSTAT	PSTAT	REF3000-16137	Potentiostat
VDC	POTEN	0.00000E+000	T	DC Voltage (V)
FREQINIT	QUANT	3.00000E+005	Initial Freq. (Hz)
FREQFINAL	QUANT	1.00000E+000	Final Freq. (Hz)
PTSPERDEC	QUANT	1.00000E+001	Points/decade
VAC	QUANT	5.00000E+001	AC Voltage (mV rms)
AREA	QUANT	1.00000E+000	Sample Area (cm^2)
SPEED	SELECTOR	2	Optimize for:
ZGUESS	QUANT	1.00000E+003	Estimated Z (ohms)
EOC	QUANT	0	Open Circuit (V)
SEQUENCER	TOGGLE	TRUE	Run as Sequence
PSTATMODEL	IQUANT	5	Pstat Model
PSTATSECTION	LABEL	REF3000-16137	Pstat Section
PSTATSERIALNO	LABEL	16137	Pstat Serial Number
CTRLMODE	IQUANT	1	Control Mode
IESTAB	IQUANT	0	I/E Stability
CASPEED	IQUANT	1	Control Amp Speed
CONVENTION	IQUANT	1	Current Convention
ICHRANGE	IQUANT	2	Ich Range
ICHRANGEMODE	TOGGLE	F	Ich Auto Range
ICHOFFSETENABLE	TOGGLE	T	Ich Offset Enable
ICHOFFSET	QUANT	0	Ich Offset (V)
ICHFILTER	IQUANT	3	Ich Filter
VCHRANGE	IQUANT	2	Vch Range
VCHRANGEMODE	TOGGLE	F	Vch Auto Range
VCHOFFSETENABLE	TOGGLE	T	Vch Offset Enable
VCHOFFSET	QUANT	0	Vch Offset (V)
VCHFILTER	IQUANT	3	Vch Filter
ACHRANGE	IQUANT	2	Ach Range
ACHOFFSETENABLE	TOGGLE	F	Ach Offset Enable
ACHOFFSET	QUANT	0	Ach Offset (V)
ACHFILTER	IQUANT	3	Ach Filter
IERANGELOWERLIMIT	IQUANT	2	I/E Range Lower Limit
IERANGEMODE	TOGGLE	F	I/E AutoRange
IERANGE	IQUANT	11	I/E Range
POSFEEDENABLE	TOGGLE	F	Positive Feedback IR Comp
POSFEEDRESISTANCE	QUANT	0	Positive Feedback Resistance (ohm)
ACHSELECT	IQUANT	0	Ach Select
CABLEID	IQUANT	13	Cable ID
DCCALDATE	LABEL	7/31/2020	DC Calibration Date
ACCALDATE	LABEL	7/31/2020	AC Calibration Date
THERMOSELECT	IQUANT	1	Thermo Select
FRAMEWORKVERSION	QUANT	6.33	Framework Version
INSTRUMENTVERSION	LABEL	3.50	Instrument Version
COMPLIANCEVOLTAGE	IQUANT	0	Compliance Voltage
ZCURVE	TABLE
	Pt	Time	Freq	Zreal	Zimag	Zsig	Zmod	Zphz	Idc	Vdc	IERange
	#	s	Hz	ohm	ohm	V	ohm	°	A	V	#
	0	7	300046.9	50.81592	-1.581614	1	50.84053	-1.78272	-6.190741E-005	0.0012475	9
	1	10	238359.4	51.02975	-2.80414	1	51.10674	-3.145302	-5.424237E-005	0.0018549	9
	2	14	189328.1	51.349	-3.923378	1	51.49866	-4.369259	1.008758E-005	-0.0010735	9
	3	16	150421.9	51.70708	-5.263551	1	51.97429	-5.812434	6.547035E-006	0.0004469	9
	4	19	119484.4	52.31108	-6.605206	1	52.72645	-7.196528	4.056268E-005	-0.0005515	9
	5	21	94921.88	53.03843	-7.970372	1	53.63396	-8.546198	-1.452736E-005	0.0003086	9
	6	24	75421.88	53.81937	-9.71741	1	54.6896	-10.23482	4.199635E-006	0.0003091	9
	7	26	59859.37	54.8205	-11.73765	1	56.06299	-12.08517	-9.124463E-006	0.000567	9
	8	29	47578.12	56.00144	-13.93883	1	57.71008	-13.97698	-1.797608E-005	0.0006875	9
	9	31	37828.12	57.32425	-16.36215	1	59.61367	-15.93042	1.950305E-006	0.0004079	9
	10	34	30046.88	58.87386	-19.1531	1	61.91101	-18.02097	-8.309561E-006	0.0006578	9
	11	36	23859.38	60.56688	-22.38088	1	64.56973	-20.28045	-1.445843E-005	0.0003596	9
	12	39	18984.38	62.37943	-26.04175	1	67.59708	-22.65924	1.997548E-005	-0.0004936	9
	13	41	15046.87	64.34275	-30.53837	1	71.22206	-25.38996	2.053349E-005	-0.0002675	9
	14	43	11953.13	66.35155	-35.7782	1	75.38307	-28.33451	-9.300727E-006	0.0005933	9
	15	46	9515.62	68.39474	-42.05457	1	80.28965	-31.58653	1.115441E-005	2.727089E-005	9
	16	48	7546.875	70.45123	-49.88332	1	86.32336	-35.30058	1.822422E-005	-0.0001485	9
	17	50	5928.309	72.51194	-60.10001	1	94.18063	-39.65293	1.52961E-005	-0.0005458	9
	18	52	4733.456	74.39841	-72.06049	1	103.5753	-44.08546	-1.438524E-005	0.0003854	9
	19	55	3796.875	76.13752	-86.9296	1	115.5581	-48.78642	1.566357E-005	-0.0005212	9
	20	57	2987.132	78.25146	-107.1743	1	132.7013	-53.8656	-3.382302E-006	-0.0001241	9
	21	59	2390.625	80.00484	-131.2284	1	153.6934	-58.63096	-1.657779E-005	0.0005381	9
	22	62	1884.191	82.68042	-163.0014	1	182.7718	-63.10418	3.952491E-006	-0.0003438	9
	23	64	1516.544	85.70614	-199.8285	1	217.4326	-66.78558	-1.406214E-005	0.0003725	9
	24	66	1193.986	89.35249	-250.9573	1	266.3896	-70.4019	-2.599156E-006	0.0005092	9
	25	69	946.5144	93.96738	-312.5925	1	326.4107	-73.26888	2.105566E-005	-0.0004959	9
	26	71	751.7689	100.7057	-390.0571	1	402.8476	-75.5234	-1.327247E-005	0.0006834	9
	27	74	597.4265	110.3304	-483.3195	1	495.7525	-77.14108	-3.300826E-006	0.0013209	8
	28	76	477.4305	122.0288	-598.6138	1	610.9252	-78.47799	3.489436E-007	0.000649	8
	29	78	376.6741	139.5618	-750.4317	1	763.299	-79.46475	3.334245E-007	0.000658	8
	30	81	298.2954	163.454	-936.7432	1	950.897	-80.10201	3.449085E-007	0.0006517	8
	31	83	237.7717	195.5481	-1160.914	1	1177.269	-80.43867	3.183283E-007	0.0006788	8
	32	85	189.0121	240.5473	-1440.843	1	1460.785	-80.52194	3.41214E-007	0.0006433	8
	33	88	150.2404	302.8787	-1785.494	1	1811.001	-80.3724	3.366243E-007	0.0006442	8
	34	90	119.1737	390.4477	-2213.644	1	2247.814	-79.99693	3.512123E-007	0.0006476	8
	35	93	95.0169	508.9193	-2724.605	1	2771.727	-79.41985	3.525377E-007	0.0006453	8
	36	95	75.60484	674.7006	-3352.385	1	3419.606	-78.62067	3.488372E-007	0.0006456	8
	37	98	54.50582	1029.077	-4482.52	1	4599.128	-77.07033	3.484007E-007	0.0006381	8
	38	100	45.95588	1291.911	-5210.783	1	5368.547	-76.07542	3.771407E-008	0.0006252	7
	39	102	37.20238	1712.253	-6233.761	1	6464.642	-74.64111	3.623939E-008	0.0006189	7
	40	105	30.04808	2273.226	-7427.256	1	7767.348	-72.98246	2.200126E-008	0.0006224	7
	41	107	23.91582	3076.603	-8902.945	1	9419.55	-70.93632	2.333783E-008	0.0006194	7
	42	110	18.60119	4263.169	-10743.01	1	11557.98	-68.35525	3.967141E-008	0.000622	7
	43	112	15.02404	5570.586	-12474.77	1	13662.04	-65.93693	3.25422E-008	0.0006216	7
	44	114	12.01923	7310.276	-14399.46	1	16148.82	-63.08413	3.523369E-008	0.0006227	7
	45	117	9.450605	9613.16	-16553.37	1	19142.28	-59.85466	1.804361E-008	0.0006124	7
	46	119	7.512019	12269.52	-18582.49	1	22267.69	-56.5643	2.266358E-008	0.0006066	7
	47	122	5.978954	15418.75	-20421.71	1	25588.74	-52.94655	1.705083E-008	0.0006254	7
	48	125	4.734848	19055.81	-21938.75	1	29059.13	-49.02269	1.645975E-008	0.0005911	7
	49	128	3.75601	22978.36	-22850.6	1	32406.09	-44.84028	2.521588E-008	0.0006434	7
	50	132	3.004808	26785.87	-22901.79	1	35241.67	-40.53028	2.366553E-008	0.000589	7
	51	138	2.372217	30830.22	-22954.57	1	38437.15	-36.66944	-2.088892E-008	0.0005805	6
	52	142	1.878005	34159	-21554.34	1	40390.92	-32.25194	-1.597471E-008	0.0006694	6
	53	151	1.512097	36832.06	-20358.2	1	42083.93	-28.93076	-1.806818E-008	0.0006375	6
	54	162	1.201923	39567.32	-19243.77	1	43998.81	-25.93621	-2.251762E-008	0.000692	6
	55	175	0.956633	42117.58	-18156.52	1	45864.47	-23.32045	-4.327547E-008	2.951492E-005	6
