EXPLAIN
TAG	EISPOT
TITLE	LABEL	Potentiostatic EIS	Test Identifier
DATE	LABEL	8/21/2020	Date
TIME	LABEL	18:50:43	Time
NOTES	NOTES	1	Notes...
	
PSTAT	PSTAT	REF3000-16137	Potentiostat
VDC	POTEN	0.00000E+000	T	DC Voltage (V)
FREQINIT	QUANT	3.00000E+005	Initial Freq. (Hz)
FREQFINAL	QUANT	1.00000E+000	Final Freq. (Hz)
PTSPERDEC	QUANT	1.00000E+001	Points/decade
VAC	QUANT	5.00000E+001	AC Voltage (mV rms)
AREA	QUANT	1.00000E+000	Sample Area (cm^2)
SPEED	SELECTOR	2	Optimize for:
ZGUESS	QUANT	1.00000E+003	Estimated Z (ohms)
EOC	QUANT	0	Open Circuit (V)
SEQUENCER	TOGGLE	TRUE	Run as Sequence
PSTATMODEL	IQUANT	5	Pstat Model
PSTATSECTION	LABEL	REF3000-16137	Pstat Section
PSTATSERIALNO	LABEL	16137	Pstat Serial Number
CTRLMODE	IQUANT	1	Control Mode
IESTAB	IQUANT	0	I/E Stability
CASPEED	IQUANT	1	Control Amp Speed
CONVENTION	IQUANT	1	Current Convention
ICHRANGE	IQUANT	2	Ich Range
ICHRANGEMODE	TOGGLE	F	Ich Auto Range
ICHOFFSETENABLE	TOGGLE	T	Ich Offset Enable
ICHOFFSET	QUANT	0	Ich Offset (V)
ICHFILTER	IQUANT	3	Ich Filter
VCHRANGE	IQUANT	2	Vch Range
VCHRANGEMODE	TOGGLE	F	Vch Auto Range
VCHOFFSETENABLE	TOGGLE	T	Vch Offset Enable
VCHOFFSET	QUANT	0	Vch Offset (V)
VCHFILTER	IQUANT	3	Vch Filter
ACHRANGE	IQUANT	2	Ach Range
ACHOFFSETENABLE	TOGGLE	F	Ach Offset Enable
ACHOFFSET	QUANT	0	Ach Offset (V)
ACHFILTER	IQUANT	3	Ach Filter
IERANGELOWERLIMIT	IQUANT	2	I/E Range Lower Limit
IERANGEMODE	TOGGLE	F	I/E AutoRange
IERANGE	IQUANT	11	I/E Range
POSFEEDENABLE	TOGGLE	F	Positive Feedback IR Comp
POSFEEDRESISTANCE	QUANT	0	Positive Feedback Resistance (ohm)
ACHSELECT	IQUANT	0	Ach Select
CABLEID	IQUANT	13	Cable ID
DCCALDATE	LABEL	7/31/2020	DC Calibration Date
ACCALDATE	LABEL	7/31/2020	AC Calibration Date
THERMOSELECT	IQUANT	1	Thermo Select
FRAMEWORKVERSION	QUANT	6.33	Framework Version
INSTRUMENTVERSION	LABEL	3.50	Instrument Version
COMPLIANCEVOLTAGE	IQUANT	0	Compliance Voltage
ZCURVE	TABLE
	Pt	Time	Freq	Zreal	Zimag	Zsig	Zmod	Zphz	Idc	Vdc	IERange
	#	s	Hz	ohm	ohm	V	ohm	°	A	V	#
	0	7	300046.9	50.76833	-1.571181	1	50.79264	-1.772627	-6.174044E-005	0.0018848	9
	1	10	238359.4	51.02468	-2.819199	1	51.1025	-3.162472	1.59452E-005	2.546604E-005	9
	2	14	189328.1	51.36694	-3.945443	1	51.51823	-4.392207	-6.28361E-005	0.0020735	9
	3	16	150421.9	51.76366	-5.248192	1	52.02903	-5.789298	8.608693E-006	-0.0009521	9
	4	19	119484.4	52.32546	-6.574852	1	52.73692	-7.161853	5.773258E-006	-0.0009078	9
	5	21	94921.88	53.03101	-7.951126	1	53.62376	-8.527041	1.911616E-005	-0.0003993	9
	6	24	75421.88	53.80675	-9.73502	1	54.68032	-10.25533	2.044215E-005	-0.0004201	9
	7	26	59859.37	54.80055	-11.7217	1	56.04015	-12.07349	-1.229897E-005	0.0001946	9
	8	29	47578.12	55.98356	-13.94356	1	57.69386	-13.98583	1.710131E-005	-0.0002503	9
	9	31	37828.12	57.33552	-16.41424	1	59.63882	-15.97557	-1.318198E-005	0.0002043	9
	10	34	30046.88	58.88698	-19.19682	1	61.93702	-18.05567	-8.990439E-006	0.0005946	9
	11	36	23859.38	60.57289	-22.38845	1	64.578	-20.2849	1.703721E-005	-0.0001862	9
	12	39	18984.38	62.35603	-26.06151	1	67.58311	-22.68234	-1.225104E-005	0.0007004	9
	13	41	15046.87	64.31879	-30.55201	1	71.20627	-25.40814	-9.060046E-006	5.950477E-005	9
	14	43	11953.13	66.31475	-35.85434	1	75.38687	-28.39872	-1.736999E-005	0.0005544	9
	15	46	9515.62	68.39375	-42.05808	1	80.29063	-31.58904	-3.065376E-006	0.0005772	9
	16	48	7546.875	70.44872	-49.83589	1	86.2939	-35.27584	-1.442133E-005	0.0004156	9
	17	50	5928.309	72.53437	-60.20918	1	94.26759	-39.69532	2.064152E-005	-0.0005052	9
	18	53	4733.456	74.36483	-72.16023	1	103.6206	-44.138	-8.4615E-006	6.135664E-005	9
	19	55	3796.875	76.03674	-86.9977	1	115.543	-48.84626	-1.224924E-005	0.0001927	9
	20	57	2987.132	78.21183	-107.3107	1	132.7881	-53.9141	-1.446836E-005	0.0003909	9
	21	60	2390.625	80.20723	-131.1621	1	153.7423	-58.55371	-2.378166E-006	0.0005522	9
	22	62	1884.191	82.77097	-163.5074	1	183.264	-63.15048	1.700299E-005	-0.000138	9
	23	64	1516.544	85.34643	-200.385	1	217.8031	-66.93025	3.871092E-006	0.0003293	9
	24	67	1193.986	89.36266	-251.1993	1	266.6211	-70.41729	2.046473E-005	-0.0004861	9
	25	69	946.5144	95.0115	-312.7589	1	326.872	-73.102	2.022305E-005	-0.0005014	9
	26	71	751.7689	100.4874	-389.9986	1	402.7364	-75.55139	2.113591E-005	-0.0003985	9
	27	74	597.4265	109.9439	-484.1168	1	496.4441	-77.20503	-1.396965E-007	0.0001958	8
	28	76	477.4305	121.9583	-599.6783	1	611.9542	-78.50437	3.437967E-007	0.0006512	8
	29	78	376.6741	139.4709	-751.7454	1	764.574	-79.48945	3.409588E-007	0.0006482	8
	30	81	298.2954	163.3725	-938.4627	1	952.577	-80.12461	3.396659E-007	0.0006555	8
	31	83	237.7717	195.4667	-1163.054	1	1179.365	-80.45984	3.456808E-007	0.0006408	8
	32	85	189.0121	240.3379	-1443.647	1	1463.516	-80.5481	3.455498E-007	0.0006558	8
	33	88	150.2404	302.6414	-1789.096	1	1814.513	-80.3988	3.072257E-007	0.0006987	8
	34	90	119.1737	389.8462	-2218.045	1	2252.045	-80.03145	3.463007E-007	0.0006491	8
	35	93	95.0169	509.0146	-2730.293	1	2777.336	-79.43945	3.386716E-007	0.0006503	8
	36	95	75.60484	674.4045	-3360.146	1	3427.157	-78.65113	3.476521E-007	0.0006491	8
	37	98	54.50582	1029.302	-4494.486	1	4610.843	-77.10088	3.455474E-007	0.0006479	8
	38	100	45.95588	1292.905	-5224.826	1	5382.417	-76.10112	3.317323E-008	0.0006358	7
	39	102	37.20238	1711.199	-6248.493	1	6478.57	-74.6846	2.881331E-008	0.0006238	7
	40	105	30.04808	2280.809	-7457.387	1	7798.378	-72.99398	2.835631E-008	0.0006167	7
	41	107	23.91582	3088.279	-8933.904	1	9452.625	-70.93072	1.52391E-008	0.0006182	7
	42	110	18.60119	4271.204	-10775.21	1	11590.88	-68.37704	3.37571E-008	0.0006111	7
	43	112	15.02404	5578.51	-12522.94	1	13709.26	-65.98878	1.86641E-008	0.0006178	7
	44	114	12.01923	7302.372	-14456.97	1	16196.56	-63.20117	1.67109E-008	0.000617	7
	45	117	9.450605	9636.68	-16603.22	1	19197.21	-59.86868	2.944834E-008	0.0006099	7
	46	119	7.512019	12315.21	-18648.26	1	22347.76	-56.55944	2.581083E-008	0.000605	7
	47	122	5.978954	15462.17	-20435.4	1	25625.85	-52.88753	3.090068E-008	0.0006137	7
	48	125	4.734848	19108.75	-22094.79	1	29211.71	-49.14501	1.704714E-008	0.0006	7
	49	128	3.75601	23041.54	-23066.43	1	32603.26	-45.03092	2.960733E-008	0.0006323	7
	50	132	3.004808	26898.85	-23229.68	1	35541.05	-40.81369	1.974618E-008	0.0006436	7
	51	138	2.372217	30770.21	-22727.44	1	38253.66	-36.45025	-1.307042E-008	0.0006569	6
	52	146	1.878005	34243.29	-21584.03	1	40478.06	-32.22381	-1.397558E-008	0.0006524	6
	53	155	1.512097	37090.11	-20662.75	1	42457.33	-29.122	-1.60615E-008	0.0007362	6
	54	165	1.201923	39723.91	-19359.79	1	44190.38	-25.98269	-1.645415E-008	0.0006706	6
	55	178	0.956633	42472.8	-18416.35	1	46293.64	-23.44172	-4.564127E-008	2.92276E-005	6
