EXPLAIN
TAG	EISPOT
TITLE	LABEL	Potentiostatic EIS	Test Identifier
DATE	LABEL	8/21/2020	Date
TIME	LABEL	16:59:36	Time
NOTES	NOTES	1	Notes...
	
PSTAT	PSTAT	REF3000-16137	Potentiostat
VDC	POTEN	0.00000E+000	T	DC Voltage (V)
FREQINIT	QUANT	3.00000E+005	Initial Freq. (Hz)
FREQFINAL	QUANT	1.00000E+000	Final Freq. (Hz)
PTSPERDEC	QUANT	1.00000E+001	Points/decade
VAC	QUANT	5.00000E+001	AC Voltage (mV rms)
AREA	QUANT	1.00000E+000	Sample Area (cm^2)
SPEED	SELECTOR	2	Optimize for:
ZGUESS	QUANT	1.00000E+003	Estimated Z (ohms)
EOC	QUANT	0	Open Circuit (V)
SEQUENCER	TOGGLE	TRUE	Run as Sequence
PSTATMODEL	IQUANT	5	Pstat Model
PSTATSECTION	LABEL	REF3000-16137	Pstat Section
PSTATSERIALNO	LABEL	16137	Pstat Serial Number
CTRLMODE	IQUANT	1	Control Mode
IESTAB	IQUANT	0	I/E Stability
CASPEED	IQUANT	1	Control Amp Speed
CONVENTION	IQUANT	1	Current Convention
ICHRANGE	IQUANT	2	Ich Range
ICHRANGEMODE	TOGGLE	F	Ich Auto Range
ICHOFFSETENABLE	TOGGLE	T	Ich Offset Enable
ICHOFFSET	QUANT	0	Ich Offset (V)
ICHFILTER	IQUANT	3	Ich Filter
VCHRANGE	IQUANT	2	Vch Range
VCHRANGEMODE	TOGGLE	F	Vch Auto Range
VCHOFFSETENABLE	TOGGLE	T	Vch Offset Enable
VCHOFFSET	QUANT	0	Vch Offset (V)
VCHFILTER	IQUANT	3	Vch Filter
ACHRANGE	IQUANT	2	Ach Range
ACHOFFSETENABLE	TOGGLE	F	Ach Offset Enable
ACHOFFSET	QUANT	0	Ach Offset (V)
ACHFILTER	IQUANT	3	Ach Filter
IERANGELOWERLIMIT	IQUANT	2	I/E Range Lower Limit
IERANGEMODE	TOGGLE	F	I/E AutoRange
IERANGE	IQUANT	11	I/E Range
POSFEEDENABLE	TOGGLE	F	Positive Feedback IR Comp
POSFEEDRESISTANCE	QUANT	0	Positive Feedback Resistance (ohm)
ACHSELECT	IQUANT	0	Ach Select
CABLEID	IQUANT	13	Cable ID
DCCALDATE	LABEL	7/31/2020	DC Calibration Date
ACCALDATE	LABEL	7/31/2020	AC Calibration Date
THERMOSELECT	IQUANT	1	Thermo Select
FRAMEWORKVERSION	QUANT	6.33	Framework Version
INSTRUMENTVERSION	LABEL	3.50	Instrument Version
COMPLIANCEVOLTAGE	IQUANT	0	Compliance Voltage
ZCURVE	TABLE
	Pt	Time	Freq	Zreal	Zimag	Zsig	Zmod	Zphz	Idc	Vdc	IERange
	#	s	Hz	ohm	ohm	V	ohm	°	A	V	#
	0	16	300046.9	214.9589	-4849.459	1	4854.221	-87.46194	9.125151E-005	-0.002802	9
	1	37	238359.4	416.4052	-5929.639	1	5944.242	-85.98303	2.848299E-005	-0.0020364	9
	2	60	189328.1	514.8748	-7364.437	1	7382.413	-86.00075	1.941603E-005	-0.0009116	9
	3	67	150421.9	1405.959	-9221.441	1	9328.007	-81.33109	2.49737E-005	0.001037	9
	4	75	119484.4	1280.681	-11510.78	1	11581.8	-83.65142	2.353955E-005	0.0011198	9
	5	83	94921.88	2363.568	-13982.21	1	14180.58	-80.40536	2.613964E-005	-0.0051225	8
	6	91	75421.88	3536.929	-17343.91	1	17700.88	-78.47377	1.745101E-005	0.0003647	8
	7	99	59859.37	4693.62	-21852.8	1	22351.18	-77.87798	2.732073E-005	-0.0074783	8
	8	107	47578.12	10634.46	-27121.11	1	29131.53	-68.58936	2.737322E-006	0.0086936	7
	9	114	37828.12	10576.35	-32176.06	1	33869.71	-71.80418	-2.717139E-005	0.0097194	8
	10	123	30046.88	15653.86	-38424.57	1	41490.86	-67.83441	2.627005E-005	-0.0090628	8
	11	133	23859.38	21676.49	-49273.51	1	53830.75	-66.25426	-2.4011E-005	0.0053287	8
	12	139	18984.38	29024.92	-54262.19	1	61537.24	-61.85761	2.618916E-005	-0.0090339	8
	13	147	15046.87	43671.76	-62651.92	1	76370.71	-55.12143	-2.4964E-005	0.0111268	8
	14	153	11953.13	56384.36	-67926.17	1	88278.88	-50.30451	-1.190571E-006	-0.0050317	8
	15	161	9515.62	71474.09	-70541.92	1	100422.6	-44.62393	4.146767E-007	0.0163778	7
	16	167	7546.875	88955.81	-67281.61	1	111534.5	-37.10199	3.718229E-007	0.0164794	7
	17	172	5928.309	103796.7	-66994.59	1	123539.6	-32.83984	-1.827362E-006	0.0221689	7
	18	178	4733.456	119347.5	-62263.21	1	134612.6	-27.5509	-6.77734E-006	0.0119071	7
	19	184	3796.875	129150.4	-57477.75	1	141363.1	-23.99122	3.735453E-007	0.0164741	7
	20	190	2987.132	148766	-40228.67	1	154109.3	-15.13177	-4.626819E-008	-0.0153984	6
	21	194	2390.625	153954	-35149.19	1	157915.5	-12.86075	-4.07596E-008	-0.0154272	6
	22	198	1884.191	158635.1	-29356.86	1	161328.6	-10.48449	-4.981117E-008	-0.0152562	6
	23	202	1516.544	163031.2	-26160.08	1	165116.7	-9.116005	-2.797036E-007	-0.0076367	6
	24	207	1193.986	167704.6	-22984.73	1	169272.4	-7.804044	-6.858419E-007	0.0261789	6
	25	211	946.5144	171275.1	-21390.79	1	172605.7	-7.118889	-6.640956E-007	0.0101298	6
	26	214	751.7689	174370.2	-21416.37	1	175680.5	-7.002072	1.9525E-007	-0.0216157	6
	27	216	597.4265	178086.9	-19732.59	1	179176.7	-6.322763	3.990221E-007	-0.0255257	6
	28	219	477.4305	179422.7	-15281.96	1	180072.3	-4.868302	-9.631233E-009	0.0006214	6
	29	221	376.6741	181860.1	-14658.95	1	182450	-4.608397	-9.585682E-009	0.0006051	6
	30	224	298.2954	184164.5	-14732.54	1	184752.8	-4.57373	-1.047483E-008	0.0006976	6
	31	226	237.7717	186937.2	-14926.86	1	187532.2	-4.565358	-9.608297E-009	0.0006256	6
	32	228	189.0121	189624.4	-15699.27	1	190273.2	-4.732805	-1.044025E-008	0.0007003	6
	33	231	150.2404	192563.2	-16893.36	1	193302.8	-5.013662	-1.027412E-008	0.0006971	6
	34	234	119.1737	197468.3	-19748.52	1	198453.4	-5.711078	-1.057154E-008	0.0006997	6
	35	236	95.0169	199014.5	-21286.19	1	200149.6	-6.10503	-1.083576E-008	0.0006676	6
	36	239	75.60484	202489.2	-24571.2	1	203974.5	-6.918771	-9.772616E-009	0.0006103	6
	37	241	54.50582	207883.4	-30636.01	1	210128.7	-8.383401	-9.576034E-009	0.0006876	6
	38	244	45.95588	211495.9	-33554.93	1	214141.2	-9.015136	-1.064867E-008	0.0006293	6
	39	246	37.20238	216004.9	-38712.66	1	219446.5	-10.16075	-1.072713E-008	0.0006109	6
	40	248	30.04808	221957.5	-44833.7	1	226440.3	-11.41965	-1.093471E-008	0.0006552	6
	41	251	23.91582	228238.8	-52385.93	1	234173.5	-12.92678	-8.397127E-009	0.0006887	6
	42	254	18.60119	236390.2	-61909.5	1	244362.7	-14.67589	-1.304106E-008	0.0006779	6
	43	256	15.02404	244266	-70569.52	1	254255.6	-16.11424	-1.193492E-008	0.0005941	6
	44	258	12.01923	252689.1	-81341.79	1	265458.6	-17.84361	-1.216364E-008	0.0007155	6
	45	261	9.450605	262950.5	-95219.4	1	279659.9	-19.90628	-1.168879E-008	0.0006339	6
	46	263	7.512019	274414.8	-110565.7	1	295851.7	-21.94523	-1.045525E-008	0.0006198	6
	47	266	5.978954	287739.9	-128582.9	1	315163.2	-24.07853	-9.697604E-009	0.0006445	6
	48	271	4.734848	302421.7	-150078.2	1	337612.7	-26.39312	-1.022226E-008	0.0007052	6
	49	274	3.75601	318732.6	-176259	1	364222	-28.94258	-1.004798E-008	0.0005952	6
	50	280	3.004808	337562.3	-206205.9	1	395561.9	-31.41941	-9.5362E-009	0.0006334	6
	51	286	2.372217	358974.7	-244142.4	1	434129.4	-34.22003	-9.421519E-010	0.0007195	5
	52	290	1.878005	378242.2	-290794.9	1	477104.6	-37.55331	-1.309211E-009	0.0006199	5
	53	295	1.512097	398067.4	-342691.7	1	525257.3	-40.72479	-1.086046E-009	0.000692	5
	54	300	1.201923	421528.5	-412554.2	1	589819.6	-44.38355	-1.143135E-009	0.0006132	5
	55	307	0.956633	446717.1	-498542.3	1	669403.1	-48.13818	-1.235205E-009	1.724656E-005	5
