EXPLAIN
TAG	EISPOT
TITLE	LABEL	Potentiostatic EIS	Test Identifier
DATE	LABEL	8/21/2020	Date
TIME	LABEL	15:53:44	Time
NOTES	NOTES	1	Notes...
	
PSTAT	PSTAT	REF3000-16137	Potentiostat
VDC	POTEN	0.00000E+000	T	DC Voltage (V)
FREQINIT	QUANT	3.00000E+005	Initial Freq. (Hz)
FREQFINAL	QUANT	1.00000E+000	Final Freq. (Hz)
PTSPERDEC	QUANT	1.00000E+001	Points/decade
VAC	QUANT	5.00000E+001	AC Voltage (mV rms)
AREA	QUANT	1.00000E+000	Sample Area (cm^2)
SPEED	SELECTOR	2	Optimize for:
ZGUESS	QUANT	1.00000E+003	Estimated Z (ohms)
EOC	QUANT	0	Open Circuit (V)
SEQUENCER	TOGGLE	TRUE	Run as Sequence
PSTATMODEL	IQUANT	5	Pstat Model
PSTATSECTION	LABEL	REF3000-16137	Pstat Section
PSTATSERIALNO	LABEL	16137	Pstat Serial Number
CTRLMODE	IQUANT	1	Control Mode
IESTAB	IQUANT	0	I/E Stability
CASPEED	IQUANT	1	Control Amp Speed
CONVENTION	IQUANT	1	Current Convention
ICHRANGE	IQUANT	2	Ich Range
ICHRANGEMODE	TOGGLE	F	Ich Auto Range
ICHOFFSETENABLE	TOGGLE	T	Ich Offset Enable
ICHOFFSET	QUANT	0	Ich Offset (V)
ICHFILTER	IQUANT	3	Ich Filter
VCHRANGE	IQUANT	2	Vch Range
VCHRANGEMODE	TOGGLE	F	Vch Auto Range
VCHOFFSETENABLE	TOGGLE	T	Vch Offset Enable
VCHOFFSET	QUANT	0	Vch Offset (V)
VCHFILTER	IQUANT	3	Vch Filter
ACHRANGE	IQUANT	2	Ach Range
ACHOFFSETENABLE	TOGGLE	F	Ach Offset Enable
ACHOFFSET	QUANT	0	Ach Offset (V)
ACHFILTER	IQUANT	3	Ach Filter
IERANGELOWERLIMIT	IQUANT	2	I/E Range Lower Limit
IERANGEMODE	TOGGLE	F	I/E AutoRange
IERANGE	IQUANT	11	I/E Range
POSFEEDENABLE	TOGGLE	F	Positive Feedback IR Comp
POSFEEDRESISTANCE	QUANT	0	Positive Feedback Resistance (ohm)
ACHSELECT	IQUANT	0	Ach Select
CABLEID	IQUANT	13	Cable ID
DCCALDATE	LABEL	7/31/2020	DC Calibration Date
ACCALDATE	LABEL	7/31/2020	AC Calibration Date
THERMOSELECT	IQUANT	1	Thermo Select
FRAMEWORKVERSION	QUANT	6.33	Framework Version
INSTRUMENTVERSION	LABEL	3.50	Instrument Version
COMPLIANCEVOLTAGE	IQUANT	0	Compliance Voltage
ZCURVE	TABLE
	Pt	Time	Freq	Zreal	Zimag	Zsig	Zmod	Zphz	Idc	Vdc	IERange
	#	s	Hz	ohm	ohm	V	ohm	°	A	V	#
	0	6	300046.9	119.2014	-3.742352	1	119.2601	-1.798222	-3.726038E-005	-0.0006605	9
	1	10	238359.4	119.8188	-5.023555	1	119.924	-2.400793	-8.277585E-005	0.0028472	9
	2	13	189328.1	120.5578	-5.945768	1	120.7043	-2.823473	-1.50018E-005	0.0012032	9
	3	16	150421.9	120.894	-7.683437	1	121.1379	-3.636552	1.391592E-005	0.000858	9
	4	18	119484.4	121.8832	-9.155294	1	122.2265	-4.295724	-8.102029E-005	0.002988	9
	5	21	94921.88	122.7788	-10.86162	1	123.2583	-5.055504	-3.384845E-006	0.0006126	9
	6	23	75421.88	123.8876	-13.28483	1	124.5979	-6.120607	1.489688E-005	3.688419E-005	9
	7	26	59859.37	125.3274	-16.04379	1	126.3502	-7.295042	-1.970957E-005	0.0004828	9
	8	29	47578.12	127.0072	-19.31038	1	128.4668	-8.645133	-1.767188E-005	0.0003358	9
	9	31	37828.12	129.0183	-22.86987	1	131.0296	-10.05187	1.960153E-005	-0.0007431	9
	10	34	30046.88	131.5305	-27.05528	1	134.2842	-11.62338	2.476475E-005	-0.0004912	9
	11	36	23859.38	134.3797	-31.80747	1	138.0928	-13.31674	1.196926E-005	0.0002267	9
	12	38	18984.38	137.7071	-37.20306	1	142.644	-15.11816	-1.444008E-005	0.0001316	9
	13	41	15046.87	141.5101	-43.39939	1	148.0156	-17.05013	-1.980339E-005	0.0008739	9
	14	43	11953.13	145.5992	-50.49812	1	154.1077	-19.12806	1.989214E-006	0.0004821	9
	15	45	9515.62	150.2108	-58.53579	1	161.2133	-21.29041	-1.527329E-005	0.0008996	9
	16	48	7546.875	155.1229	-68.47359	1	169.5634	-23.81739	-7.433302E-006	0.0007262	9
	17	50	5928.309	160.6262	-80.49191	1	179.6656	-26.61605	-1.809298E-005	0.0008659	9
	18	52	4733.456	166.342	-93.75556	1	190.9444	-29.40696	-1.809759E-005	0.0003735	9
	19	55	3796.875	171.3723	-110.0333	1	203.6561	-32.70337	2.012571E-005	-0.0001011	9
	20	57	2987.132	176.9993	-131.0426	1	220.2292	-36.51463	1.931796E-005	-0.0001163	9
	21	59	2390.625	182.2456	-155.811	1	239.7718	-40.5288	1.92193E-005	-0.0001291	9
	22	61	1884.191	187.7739	-188.7677	1	266.2561	-45.15123	2.040191E-005	-0.0007702	9
	23	64	1516.544	192.4695	-227.3053	1	297.846	-49.74393	-1.364669E-005	0.0008625	9
	24	66	1193.986	197.2708	-280.6622	1	343.0555	-54.89753	5.781936E-006	-0.00053	9
	25	69	946.5144	202.9637	-346.0598	1	401.1878	-59.60842	2.35269E-005	-0.0002332	9
	26	71	751.7689	208.9662	-426.5835	1	475.0162	-63.90161	1.434749E-006	-0.0012263	8
	27	73	597.4265	216.1765	-529.2479	1	571.6954	-67.78196	6.080075E-006	-0.0000956	8
	28	76	477.4305	225.5216	-654.2739	1	692.0508	-70.98145	1.541504E-007	0.0006297	8
	29	78	376.6741	238.3514	-820.2429	1	854.172	-73.79685	1.661986E-007	0.0006281	8
	30	80	298.2954	255.0392	-1025.379	1	1056.62	-76.03243	1.606967E-007	0.000639	8
	31	82	237.7717	276.5787	-1274.029	1	1303.704	-77.75172	1.678937E-007	0.0006323	8
	32	85	189.0121	305.6431	-1586.996	1	1616.161	-79.09875	1.710129E-007	0.0006278	8
	33	87	150.2404	344.5393	-1975.994	1	2005.806	-80.1092	1.626667E-007	0.0006429	8
	34	90	119.1737	397.7646	-2464.975	1	2496.861	-80.83339	1.860206E-007	0.0006317	8
	35	92	95.0169	467.5809	-3056.763	1	3092.318	-81.30311	1.815243E-007	0.0006298	8
	36	95	75.60484	562.3353	-3795.395	1	3836.828	-81.57223	1.767073E-007	0.0006386	8
	37	97	54.50582	761.4149	-5175.52	1	5231.229	-81.63077	1.451796E-008	0.0006048	7
	38	100	45.95588	904.2155	-6074.829	1	6141.755	-81.5339	1.819769E-008	0.000611	7
	39	102	37.20238	1133.397	-7398.312	1	7484.625	-81.29019	1.977494E-008	0.0006138	7
	40	104	30.04808	1443.215	-9017.276	1	9132.039	-80.90693	1.657795E-008	0.0006059	7
	41	107	23.91582	1890.755	-11134.57	1	11293.96	-80.36256	1.618145E-008	0.0006093	7
	42	109	18.60119	2567.39	-13978.32	1	14212.14	-79.59251	2.373717E-008	0.0006094	7
	43	111	15.02404	3369.422	-16935.54	1	17267.47	-78.74761	1.643613E-008	0.0006223	7
	44	114	12.01923	4492.912	-20631.41	1	21114.96	-77.71449	2.107562E-008	0.0006243	7
	45	116	9.450605	6154.444	-25411.3	1	26145.96	-76.38551	1.876043E-008	0.0006054	7
	46	119	7.512019	8282.382	-30851.84	1	31944.23	-74.97288	1.674427E-008	0.0006059	7
	47	121	5.978954	11105.82	-37190.96	1	38813.75	-73.37353	1.632196E-008	0.0006263	7
	48	124	4.734848	14916.09	-44717.04	1	47139.2	-71.55305	4.520582E-009	0.0006346	6
	49	128	3.75601	19830.12	-53232.54	1	56806.13	-69.5687	9.161337E-009	0.00068	6
	50	131	3.004808	25795.07	-62516.96	1	67629.55	-67.57851	7.477237E-009	0.0006526	6
	51	135	2.372217	33845.08	-73411.9	1	80838.09	-65.24889	6.511387E-009	0.0005879	6
	52	139	1.878005	43641.15	-85447.64	1	95947.1	-62.94498	8.169864E-009	0.0006591	6
	53	144	1.512097	54492.55	-97377.2	1	111587.5	-60.76851	6.804462E-009	0.0006882	6
	54	149	1.201923	68819.34	-110864.8	1	130488	-58.17006	6.850985E-009	0.0006758	6
	55	155	0.956633	85585.9	-124688.2	1	151235.2	-55.53431	1.947171E-009	1.584882E-005	6
