EXPLAIN
TAG	EISPOT
TITLE	LABEL	Potentiostatic EIS	Test Identifier
DATE	LABEL	8/21/2020	Date
TIME	LABEL	15:56:29	Time
NOTES	NOTES	1	Notes...
	
PSTAT	PSTAT	REF3000-16137	Potentiostat
VDC	POTEN	0.00000E+000	T	DC Voltage (V)
FREQINIT	QUANT	3.00000E+005	Initial Freq. (Hz)
FREQFINAL	QUANT	1.00000E+000	Final Freq. (Hz)
PTSPERDEC	QUANT	1.00000E+001	Points/decade
VAC	QUANT	5.00000E+001	AC Voltage (mV rms)
AREA	QUANT	1.00000E+000	Sample Area (cm^2)
SPEED	SELECTOR	2	Optimize for:
ZGUESS	QUANT	1.00000E+003	Estimated Z (ohms)
EOC	QUANT	0	Open Circuit (V)
SEQUENCER	TOGGLE	TRUE	Run as Sequence
PSTATMODEL	IQUANT	5	Pstat Model
PSTATSECTION	LABEL	REF3000-16137	Pstat Section
PSTATSERIALNO	LABEL	16137	Pstat Serial Number
CTRLMODE	IQUANT	1	Control Mode
IESTAB	IQUANT	0	I/E Stability
CASPEED	IQUANT	1	Control Amp Speed
CONVENTION	IQUANT	1	Current Convention
ICHRANGE	IQUANT	2	Ich Range
ICHRANGEMODE	TOGGLE	F	Ich Auto Range
ICHOFFSETENABLE	TOGGLE	T	Ich Offset Enable
ICHOFFSET	QUANT	0	Ich Offset (V)
ICHFILTER	IQUANT	3	Ich Filter
VCHRANGE	IQUANT	2	Vch Range
VCHRANGEMODE	TOGGLE	F	Vch Auto Range
VCHOFFSETENABLE	TOGGLE	T	Vch Offset Enable
VCHOFFSET	QUANT	0	Vch Offset (V)
VCHFILTER	IQUANT	3	Vch Filter
ACHRANGE	IQUANT	2	Ach Range
ACHOFFSETENABLE	TOGGLE	F	Ach Offset Enable
ACHOFFSET	QUANT	0	Ach Offset (V)
ACHFILTER	IQUANT	3	Ach Filter
IERANGELOWERLIMIT	IQUANT	2	I/E Range Lower Limit
IERANGEMODE	TOGGLE	F	I/E AutoRange
IERANGE	IQUANT	11	I/E Range
POSFEEDENABLE	TOGGLE	F	Positive Feedback IR Comp
POSFEEDRESISTANCE	QUANT	0	Positive Feedback Resistance (ohm)
ACHSELECT	IQUANT	0	Ach Select
CABLEID	IQUANT	13	Cable ID
DCCALDATE	LABEL	7/31/2020	DC Calibration Date
ACCALDATE	LABEL	7/31/2020	AC Calibration Date
THERMOSELECT	IQUANT	1	Thermo Select
FRAMEWORKVERSION	QUANT	6.33	Framework Version
INSTRUMENTVERSION	LABEL	3.50	Instrument Version
COMPLIANCEVOLTAGE	IQUANT	0	Compliance Voltage
ZCURVE	TABLE
	Pt	Time	Freq	Zreal	Zimag	Zsig	Zmod	Zphz	Idc	Vdc	IERange
	#	s	Hz	ohm	ohm	V	ohm	°	A	V	#
	0	7	300046.9	134.7145	-4.72533	1	134.7974	-2.008919	1.379121E-005	-0.0018442	9
	1	10	238359.4	134.9508	-5.519819	1	135.0636	-2.342233	2.663227E-005	0.0003546	9
	2	13	189328.1	135.7833	-6.915868	1	135.9593	-2.915734	-5.570847E-005	0.0007906	9
	3	16	150421.9	136.7666	-8.071358	1	137.0046	-3.377425	2.926986E-005	0.0005196	9
	4	20	119484.4	137.8129	-9.85984	1	138.1651	-4.092259	9.670178E-006	0.0009802	9
	5	22	94921.88	138.6548	-11.58326	1	139.1378	-4.775416	2.637864E-005	-0.0006015	9
	6	25	75421.88	139.7314	-13.96166	1	140.4271	-5.705932	2.434478E-005	-0.0007449	9
	7	27	59859.37	141.2135	-16.84629	1	142.2148	-6.803041	1.567248E-005	-0.0006407	9
	8	30	47578.12	142.9291	-20.06501	1	144.3307	-7.991204	-1.524462E-005	0.0001302	9
	9	32	37828.12	145.0141	-23.95163	1	146.9788	-9.378735	-2.121664E-005	0.0005967	9
	10	35	30046.88	147.5741	-28.28558	1	150.2604	-10.85031	2.052193E-005	-0.0007692	9
	11	37	23859.38	150.5657	-33.37569	1	154.2205	-12.49858	-1.434407E-005	4.842721E-005	9
	12	40	18984.38	154.1431	-39.0154	1	159.004	-14.20392	-1.430188E-005	0.0009365	9
	13	42	15046.87	158.2041	-45.49794	1	164.6165	-16.04472	-2.150739E-005	0.0008336	9
	14	44	11953.13	162.7593	-53.0788	1	171.1956	-18.0621	-9.651793E-006	-4.281394E-005	9
	15	47	9515.62	167.6479	-61.66343	1	178.6287	-20.19428	2.926403E-005	-0.0007569	9
	16	49	7546.875	173.0027	-71.68183	1	187.2651	-22.50616	-1.151157E-006	0.0006614	9
	17	51	5928.309	179.2661	-84.42447	1	198.151	-25.21785	-2.159434E-005	0.0006628	9
	18	54	4733.456	184.9461	-98.4773	1	209.5301	-28.03373	-6.656881E-006	0.0007733	9
	19	56	3796.875	191.1066	-114.7545	1	222.9133	-30.98371	-2.065574E-005	0.0004643	9
	20	58	2987.132	197.7249	-136.2701	1	240.1347	-34.57424	-2.126749E-005	0.00065	9
	21	60	2390.625	203.9998	-161.5602	1	260.2261	-38.3779	-2.182049E-005	0.0006145	9
	22	64	1884.191	210.7323	-194.0793	1	286.4871	-42.64432	-1.829231E-005	0.0008752	9
	23	66	1516.544	215.8686	-233.0188	1	317.6429	-47.18798	1.440432E-005	-0.0007496	9
	24	68	1193.986	221.8601	-286.3928	1	362.2744	-52.2361	2.281762E-005	-0.0002495	9
	25	71	946.5144	228.1143	-351.9485	1	419.409	-57.05084	-1.74088E-005	0.0003756	9
	26	74	751.7689	232.9357	-433.3144	1	491.9557	-61.73898	-1.429232E-006	-0.0005778	8
	27	76	597.4265	241.597	-536.6951	1	588.5667	-65.76478	-7.458642E-006	0.0025013	8
	28	78	477.4305	250.3854	-663.2661	1	708.9532	-69.31829	1.421636E-007	0.0006229	8
	29	80	376.6741	263.0276	-831.0598	1	871.6902	-72.4376	1.316266E-007	0.0006341	8
	30	83	298.2954	279.2585	-1038.634	1	1075.521	-74.95074	1.249096E-007	0.0006293	8
	31	85	237.7717	300.1296	-1290.476	1	1324.918	-76.90731	1.3745E-007	0.0006232	8
	32	88	189.0121	328.0592	-1607.746	1	1640.875	-78.46716	1.462587E-007	0.0006286	8
	33	90	150.2404	365.5725	-2002.488	1	2035.584	-79.65406	1.264848E-007	0.000633	8
	34	92	119.1737	416.5209	-2498.587	1	2533.067	-80.53568	1.504082E-007	0.0006295	8
	35	95	95.0169	483.0452	-3100.698	1	3138.099	-81.14529	1.367359E-007	0.0006316	8
	36	97	75.60484	573.3531	-3852.543	1	3894.974	-81.53511	1.355122E-007	0.000672	8
	37	100	54.50582	762.6515	-5259.2	1	5314.209	-81.74889	7.843882E-009	0.0006045	7
	38	102	45.95588	898.7025	-6174.839	1	6239.896	-81.71916	1.701874E-008	0.0006118	7
	39	105	37.20238	1117.38	-7527.542	1	7610.021	-81.55673	1.389484E-008	0.0006093	7
	40	107	30.04808	1408.786	-9180.05	1	9287.519	-81.27535	9.269089E-009	0.0006203	7
	41	109	23.91582	1828.765	-11335.03	1	11481.61	-80.83502	1.248756E-008	0.0006126	7
	42	112	18.60119	2477.979	-14282.82	1	14496.18	-80.15751	8.439756E-009	0.0006125	7
	43	114	15.02404	3235.435	-17328.73	1	17628.19	-79.42412	2.083214E-008	0.0006203	7
	44	116	12.01923	4309.667	-21156.22	1	21590.71	-78.486	9.65333E-009	0.0006139	7
	45	119	9.450605	5880.113	-26139.12	1	26792.33	-77.3221	1.16586E-008	0.0006277	7
	46	121	7.512019	7940.119	-31852.37	1	32827.11	-76.00266	1.487422E-008	0.0006182	7
	47	124	5.978954	10654.45	-38518.22	1	39964.62	-74.53813	1.129666E-008	0.0006185	7
	48	127	4.734848	14376.11	-46553.76	1	48722.94	-72.83897	5.472335E-009	0.0006736	6
	49	130	3.75601	19152.82	-55764.5	1	58961.93	-71.0445	3.997902E-009	0.0006617	6
	50	134	3.004808	25022.81	-65842.8	1	70437.32	-69.19127	6.208533E-009	0.0006478	6
	51	137	2.372217	32866.81	-77920.77	1	84568.76	-67.13009	3.807302E-009	0.0006367	6
	52	142	1.878005	42849.09	-91329	1	100881.3	-64.8653	3.154024E-009	0.0006568	6
	53	146	1.512097	53859.27	-105019.1	1	118024.8	-62.8489	4.037274E-009	0.0005595	6
	54	152	1.201923	68278.2	-120724.3	1	138694.9	-60.50875	2.916039E-009	0.0006509	6
	55	158	0.956633	85380.99	-137291.5	1	161675.2	-58.12269	1.817801E-009	2.070201E-005	6
