EXPLAIN
TAG	EISPOT
TITLE	LABEL	Potentiostatic EIS	Test Identifier
DATE	LABEL	8/21/2020	Date
TIME	LABEL	19:12:08	Time
NOTES	NOTES	1	Notes...
	
PSTAT	PSTAT	REF3000-16137	Potentiostat
VDC	POTEN	0.00000E+000	T	DC Voltage (V)
FREQINIT	QUANT	3.00000E+005	Initial Freq. (Hz)
FREQFINAL	QUANT	1.00000E+000	Final Freq. (Hz)
PTSPERDEC	QUANT	1.00000E+001	Points/decade
VAC	QUANT	5.00000E+001	AC Voltage (mV rms)
AREA	QUANT	1.00000E+000	Sample Area (cm^2)
SPEED	SELECTOR	2	Optimize for:
ZGUESS	QUANT	1.00000E+003	Estimated Z (ohms)
EOC	QUANT	0	Open Circuit (V)
SEQUENCER	TOGGLE	TRUE	Run as Sequence
PSTATMODEL	IQUANT	5	Pstat Model
PSTATSECTION	LABEL	REF3000-16137	Pstat Section
PSTATSERIALNO	LABEL	16137	Pstat Serial Number
CTRLMODE	IQUANT	1	Control Mode
IESTAB	IQUANT	0	I/E Stability
CASPEED	IQUANT	1	Control Amp Speed
CONVENTION	IQUANT	1	Current Convention
ICHRANGE	IQUANT	2	Ich Range
ICHRANGEMODE	TOGGLE	F	Ich Auto Range
ICHOFFSETENABLE	TOGGLE	T	Ich Offset Enable
ICHOFFSET	QUANT	0	Ich Offset (V)
ICHFILTER	IQUANT	3	Ich Filter
VCHRANGE	IQUANT	2	Vch Range
VCHRANGEMODE	TOGGLE	F	Vch Auto Range
VCHOFFSETENABLE	TOGGLE	T	Vch Offset Enable
VCHOFFSET	QUANT	0	Vch Offset (V)
VCHFILTER	IQUANT	3	Vch Filter
ACHRANGE	IQUANT	2	Ach Range
ACHOFFSETENABLE	TOGGLE	F	Ach Offset Enable
ACHOFFSET	QUANT	0	Ach Offset (V)
ACHFILTER	IQUANT	3	Ach Filter
IERANGELOWERLIMIT	IQUANT	2	I/E Range Lower Limit
IERANGEMODE	TOGGLE	F	I/E AutoRange
IERANGE	IQUANT	11	I/E Range
POSFEEDENABLE	TOGGLE	F	Positive Feedback IR Comp
POSFEEDRESISTANCE	QUANT	0	Positive Feedback Resistance (ohm)
ACHSELECT	IQUANT	0	Ach Select
CABLEID	IQUANT	13	Cable ID
DCCALDATE	LABEL	7/31/2020	DC Calibration Date
ACCALDATE	LABEL	7/31/2020	AC Calibration Date
THERMOSELECT	IQUANT	1	Thermo Select
FRAMEWORKVERSION	QUANT	6.33	Framework Version
INSTRUMENTVERSION	LABEL	3.50	Instrument Version
COMPLIANCEVOLTAGE	IQUANT	0	Compliance Voltage
ZCURVE	TABLE
	Pt	Time	Freq	Zreal	Zimag	Zsig	Zmod	Zphz	Idc	Vdc	IERange
	#	s	Hz	ohm	ohm	V	ohm	°	A	V	#
	0	7	300046.9	50.79951	-1.726881	1	50.82885	-1.946965	-1.876838E-006	-0.0014119	9
	1	10	238359.4	50.9965	-2.741378	1	51.07013	-3.077042	9.429375E-006	-0.0012108	9
	2	13	189328.1	51.31261	-3.985306	1	51.46714	-4.441085	1.492262E-005	-0.0006591	9
	3	16	150421.9	51.69551	-5.339694	1	51.97055	-5.897239	1.017784E-006	0.0006072	9
	4	19	119484.4	52.23818	-6.588747	1	52.65206	-7.188696	5.094925E-005	-0.0017788	9
	5	21	94921.88	53.00004	-8.015185	1	53.60268	-8.599666	2.163162E-005	-0.0004642	9
	6	24	75421.88	53.82582	-9.83103	1	54.71625	-10.35071	-9.587019E-006	0.0005609	9
	7	26	59859.37	54.81451	-11.83369	1	56.07733	-12.1824	-1.660944E-005	0.000499	9
	8	29	47578.12	55.99879	-14.02912	1	57.72938	-14.06457	1.782433E-005	-0.0004794	9
	9	31	37828.12	57.36106	-16.49094	1	59.68453	-16.0396	1.978523E-005	-0.0005088	9
	10	34	30046.88	58.89518	-19.28217	1	61.97132	-18.12835	-8.04435E-006	5.83835E-005	9
	11	36	23859.38	60.59329	-22.54194	1	64.65049	-20.40623	2.091931E-005	-0.0004898	9
	12	39	18984.38	62.39984	-26.20744	1	67.6799	-22.78202	-1.630172E-005	0.0005954	9
	13	41	15046.87	64.34422	-30.7314	1	71.30637	-25.52958	1.800143E-005	-0.0003734	9
	14	43	11953.13	66.38789	-36.05913	1	75.54874	-28.50896	-1.131057E-005	0.0006369	9
	15	46	9515.62	68.3987	-42.39919	1	80.47406	-31.79407	2.064613E-005	-0.0004806	9
	16	48	7546.875	70.48263	-50.33924	1	86.61317	-35.53472	1.859794E-005	-0.0002731	9
	17	50	5928.309	72.56966	-60.60783	1	94.5498	-39.86754	-3.138339E-006	-0.0001324	9
	18	52	4733.456	74.36475	-72.80572	1	104.0711	-44.39307	1.759583E-005	-0.0001677	9
	19	55	3796.875	76.17281	-87.78547	1	116.2264	-49.05132	-1.397941E-005	0.0003397	9
	20	57	2987.132	78.14419	-108.2985	1	133.548	-54.18718	-1.637687E-005	0.0005627	9
	21	59	2390.625	79.9418	-132.5718	1	154.8095	-58.90971	8.75038E-006	-0.0004379	9
	22	62	1884.191	82.40692	-164.8758	1	184.3229	-63.44356	2.081292E-005	-0.0004032	9
	23	64	1516.544	85.57667	-201.8899	1	219.2782	-67.02899	9.77358E-006	-0.0004642	9
	24	66	1193.986	88.98952	-253.2773	1	268.4558	-70.64096	-1.292358E-005	0.0006692	9
	25	69	946.5144	95.1983	-316.2419	1	330.2599	-73.24662	-1.487224E-005	0.0006641	9
	26	71	751.7689	101.2075	-393.7072	1	406.5075	-75.58353	3.311152E-006	-0.0003179	9
	27	74	597.4265	109.5976	-489.2281	1	501.3539	-77.37299	1.997177E-006	0.0007765	8
	28	76	477.4305	121.4439	-605.7792	1	617.8325	-78.66387	3.341709E-007	0.0006438	8
	29	78	376.6741	138.7498	-759.5809	1	772.1494	-79.64812	3.424777E-007	0.0006485	8
	30	81	298.2954	162.2773	-948.4925	1	962.274	-80.29129	3.443619E-007	0.0006453	8
	31	83	237.7717	193.9484	-1175.85	1	1191.738	-80.63378	3.404805E-007	0.0006432	8
	32	85	189.0121	238.1985	-1460.058	1	1479.361	-80.73421	3.397981E-007	0.0006547	8
	33	88	150.2404	299.5607	-1810.304	1	1834.922	-80.6041	3.538559E-007	0.0006526	8
	34	90	119.1737	386.4224	-2245.407	1	2278.415	-80.23536	3.557336E-007	0.0006482	8
	35	92	95.0169	503.3398	-2765.535	1	2810.967	-79.68482	3.520411E-007	0.0006445	8
	36	95	75.60484	667.4482	-3405.761	1	3470.547	-78.91191	3.56839E-007	0.0006441	8
	37	98	54.50582	1018.668	-4561.528	1	4673.887	-77.41142	3.424656E-007	0.0006372	8
	38	100	45.95588	1280.781	-5304.299	1	5456.738	-76.42515	4.093291E-008	0.0006243	7
	39	102	37.20238	1699.114	-6354.048	1	6577.303	-75.02901	3.599331E-008	0.0006166	7
	40	105	30.04808	2261.89	-7582.74	1	7912.906	-73.39044	2.520059E-008	0.0006189	7
	41	107	23.91582	3070.622	-9104.811	1	9608.66	-71.36318	2.670204E-008	0.0006194	7
	42	110	18.60119	4262.925	-11015.03	1	11811.16	-68.84307	3.934324E-008	0.0006354	7
	43	112	15.02404	5590.249	-12802.83	1	13970.09	-66.41193	3.631711E-008	0.0006203	7
	44	114	12.01923	7348.873	-14814.34	1	16536.95	-63.61562	3.628062E-008	0.0006233	7
	45	117	9.450605	9696.74	-17074.59	1	19635.89	-60.40755	2.954698E-008	0.0006189	7
	46	119	7.512019	12410.79	-19222.56	1	22880.87	-57.15223	2.532188E-008	0.0006136	7
	47	122	5.978954	15633.45	-21210	1	26348.98	-53.60683	2.167795E-008	0.0006312	7
	48	125	4.734848	19384.96	-22954.75	1	30044.92	-49.81937	2.180323E-008	0.0005936	7
	49	128	3.75601	23489.63	-24192.91	1	33720.32	-45.84501	2.806317E-008	0.0006268	7
	50	132	3.004808	27551.74	-24785.76	1	37059.85	-41.9748	3.394922E-008	0.0005878	7
	51	135	2.372217	32006.48	-25134.63	1	40696	-38.14248	-1.4572E-008	0.0005967	6
	52	140	1.878005	35786.21	-23821.51	1	42989.74	-33.65018	-1.020049E-008	0.0006708	6
	53	149	1.512097	38829.28	-22543.92	1	44899.23	-30.13905	-1.028131E-008	0.0005574	6
	54	159	1.201923	41910.45	-21410.88	1	47062.85	-27.06122	-1.337115E-008	0.0006894	6
	55	172	0.956633	44719.45	-20247.81	1	49089.75	-24.35979	-2.881464E-008	2.624987E-005	6
