EXPLAIN
TAG	EISPOT
TITLE	LABEL	Potentiostatic EIS	Test Identifier
DATE	LABEL	8/21/2020	Date
TIME	LABEL	18:05:53	Time
NOTES	NOTES	1	Notes...
	
PSTAT	PSTAT	REF3000-16137	Potentiostat
VDC	POTEN	0.00000E+000	T	DC Voltage (V)
FREQINIT	QUANT	3.00000E+005	Initial Freq. (Hz)
FREQFINAL	QUANT	1.00000E+000	Final Freq. (Hz)
PTSPERDEC	QUANT	1.00000E+001	Points/decade
VAC	QUANT	5.00000E+001	AC Voltage (mV rms)
AREA	QUANT	1.00000E+000	Sample Area (cm^2)
SPEED	SELECTOR	2	Optimize for:
ZGUESS	QUANT	1.00000E+003	Estimated Z (ohms)
EOC	QUANT	0	Open Circuit (V)
SEQUENCER	TOGGLE	TRUE	Run as Sequence
PSTATMODEL	IQUANT	5	Pstat Model
PSTATSECTION	LABEL	REF3000-16137	Pstat Section
PSTATSERIALNO	LABEL	16137	Pstat Serial Number
CTRLMODE	IQUANT	1	Control Mode
IESTAB	IQUANT	0	I/E Stability
CASPEED	IQUANT	1	Control Amp Speed
CONVENTION	IQUANT	1	Current Convention
ICHRANGE	IQUANT	2	Ich Range
ICHRANGEMODE	TOGGLE	F	Ich Auto Range
ICHOFFSETENABLE	TOGGLE	T	Ich Offset Enable
ICHOFFSET	QUANT	0	Ich Offset (V)
ICHFILTER	IQUANT	3	Ich Filter
VCHRANGE	IQUANT	2	Vch Range
VCHRANGEMODE	TOGGLE	F	Vch Auto Range
VCHOFFSETENABLE	TOGGLE	T	Vch Offset Enable
VCHOFFSET	QUANT	0	Vch Offset (V)
VCHFILTER	IQUANT	3	Vch Filter
ACHRANGE	IQUANT	2	Ach Range
ACHOFFSETENABLE	TOGGLE	F	Ach Offset Enable
ACHOFFSET	QUANT	0	Ach Offset (V)
ACHFILTER	IQUANT	3	Ach Filter
IERANGELOWERLIMIT	IQUANT	2	I/E Range Lower Limit
IERANGEMODE	TOGGLE	F	I/E AutoRange
IERANGE	IQUANT	11	I/E Range
POSFEEDENABLE	TOGGLE	F	Positive Feedback IR Comp
POSFEEDRESISTANCE	QUANT	0	Positive Feedback Resistance (ohm)
ACHSELECT	IQUANT	0	Ach Select
CABLEID	IQUANT	13	Cable ID
DCCALDATE	LABEL	7/31/2020	DC Calibration Date
ACCALDATE	LABEL	7/31/2020	AC Calibration Date
THERMOSELECT	IQUANT	1	Thermo Select
FRAMEWORKVERSION	QUANT	6.33	Framework Version
INSTRUMENTVERSION	LABEL	3.50	Instrument Version
COMPLIANCEVOLTAGE	IQUANT	0	Compliance Voltage
ZCURVE	TABLE
	Pt	Time	Freq	Zreal	Zimag	Zsig	Zmod	Zphz	Idc	Vdc	IERange
	#	s	Hz	ohm	ohm	V	ohm	°	A	V	#
	0	17	300046.9	-97.3046	-4805.912	1	4806.896	-91.1599	2.472126E-005	-0.0021747	9
	1	33	238359.4	342.0189	-6170.85	1	6180.32	-86.82763	-1.650176E-005	0.0017276	9
	2	48	189328.1	81.36055	-7520.128	1	7520.568	-89.38014	-2.99952E-005	-0.0010491	9
	3	60	150421.9	-198.4321	-9273.541	1	9275.664	-91.22581	2.011491E-005	-0.0008905	9
	4	71	119484.4	60.0083	-11535.1	1	11535.26	-89.70193	2.090876E-005	-0.0008935	9
	5	83	94921.88	524.2248	-14588.9	1	14598.32	-87.94207	1.687247E-005	0.0004733	8
	6	92	75421.88	759.6085	-18360.03	1	18375.74	-87.63086	8.355388E-006	-0.0078501	8
	7	100	59859.37	155.7275	-23280.01	1	23280.53	-89.61674	-2.026071E-005	0.0027325	8
	8	109	47578.12	981.194	-29133.89	1	29150.41	-88.07108	2.61823E-005	-0.0050841	8
	9	119	37828.12	818.2181	-36109.51	1	36118.78	-88.70193	-9.427814E-006	-0.0021841	8
	10	127	30046.88	4642.665	-46620.54	1	46851.13	-84.313	6.85126E-006	-0.0272988	7
	11	135	23859.38	915.2961	-57706.67	1	57713.93	-89.0913	-9.392959E-006	-0.0022158	8
	12	141	18984.38	3855.185	-73012.55	1	73114.26	-86.97749	7.65564E-006	-0.0186204	7
	13	147	15046.87	5442.945	-93478.13	1	93636.46	-86.6676	-7.491768E-006	0.0240861	7
	14	152	11953.13	3650.962	-113500.7	1	113559.4	-88.15761	-7.312249E-006	0.0238264	7
	15	158	9515.62	2479.728	-142509	1	142530.6	-89.00313	5.42087E-006	-0.0271892	7
	16	164	7546.875	6112.962	-175183.8	1	175290.4	-88.0015	1.365208E-006	-0.0201187	7
	17	170	5928.309	37335.24	-205766.9	1	209126.6	-79.71589	1.31279E-006	-0.0203804	7
	18	177	4733.456	37369.3	-303778.5	1	306068.4	-82.987	-6.554409E-007	0.0099662	6
	19	182	3796.875	46152.03	-343631.9	1	346717.3	-82.35058	-1.809796E-006	0.0225217	7
	20	189	2987.132	-12652.15	-418116.4	1	418307.8	-91.73323	4.172343E-007	0.0165761	7
	21	196	2390.625	46614.28	-587916.8	1	589761.9	-85.46666	1.917615E-007	-0.0216049	6
	22	202	1884.191	17152.43	-718129.9	1	718334.7	-88.63176	4.066273E-007	-0.0257497	6
	23	207	1516.544	37670.27	-911827.5	1	912605.3	-87.63428	-6.909341E-007	0.0264137	6
	24	212	1193.986	-24277.56	-1124892	1	1125154	-91.23637	-7.555713E-007	0.0233378	6
	25	219	946.5144	-706315.8	-122185.4	1	716806.3	-170.1855	-1.856795E-006	0.0222645	7
	26	225	751.7689	456943.5	415378.5	1	617524.6	42.272	-1.128621E-006	-0.005192	8
	27	233	597.4265	216325.3	-2013663	1	2025250	-83.8683	7.26261E-007	-0.0272689	6
	28	237	477.4305	91966.4	-2831055	1	2832548	-88.13941	-9.775554E-009	0.000661	6
	29	242	376.6741	480783.8	-3688089	1	3719295	-82.57274	-1.067883E-009	0.0006771	5
	30	246	298.2954	520290.3	-4579677	1	4609137	-83.5185	-9.647019E-010	0.0005907	5
	31	248	237.7717	609245.4	-5776462	1	5808503	-83.97926	-1.078184E-009	0.0007018	5
	32	251	189.0121	575878.5	-7118973	1	7142228	-85.37521	-1.066468E-009	0.0006854	5
	33	254	150.2404	1143864	-8917280	1	8990345	-82.6903	-9.871721E-010	0.000625	5
	34	257	119.1737	4500010	-1.376324E+007	1	1.448023E+007	-71.8944	-1.034666E-009	0.0006086	5
	35	259	95.0169	575330.7	-1.37935E+007	1	1.380549E+007	-87.61156	-1.047268E-009	0.0006906	5
	36	262	75.60484	1160465	-1.699108E+007	1	1.703066E+007	-86.09286	-9.573398E-010	0.0005964	5
	37	265	54.50582	903083.3	-2.338463E+007	1	2.340206E+007	-87.78841	-1.07901E-009	0.0006752	5
	38	268	45.95588	2590264	-2.988328E+007	1	2.999533E+007	-85.04602	-1.221098E-010	0.0006053	4
	39	271	37.20238	275664.5	-3.768992E+007	1	3.769093E+007	-89.58095	-9.625744E-010	0.0006061	5
	40	275	30.04808	4732181	-4.487992E+007	1	4.512872E+007	-83.98092	-1.012739E-010	0.0006261	4
	41	279	23.91582	8017134	-5.47012E+007	1	5.528559E+007	-81.66196	-1.207509E-010	0.0006261	4
	42	283	18.60119	3528022	-9.769954E+007	1	9.776322E+007	-87.93189	2.211579E-011	0.0005968	4
	43	286	15.02404	8864718	-8.85739E+007	1	8.901639E+007	-84.28471	-8.110032E-011	0.0006247	4
	44	290	12.01923	6037959	-1.092867E+008	1	1.094534E+008	-86.83769	-9.387792E-011	0.0006275	4
	45	294	9.450605	6045588	-1.369232E+008	1	1.370567E+008	-87.47186	-9.962348E-011	0.0006993	4
	46	298	7.512019	7225533	-1.702734E+008	1	1.704266E+008	-87.57011	-1.007157E-010	0.0006931	4
	47	302	5.978954	2.164733E+007	-1.995845E+008	1	2.00755E+008	-83.80978	-1.147462E-010	0.0006254	4
	48	307	4.734848	4.659696E+007	-2.863347E+008	1	2.901014E+008	-80.75694	-9.321653E-012	0.0007537	3
	49	312	3.75601	2.017643E+007	-3.360369E+008	1	3.366421E+008	-86.56396	-1.039826E-009	0.0006954	5
	50	320	3.004808	1.842932E+007	-4.157384E+008	1	4.161467E+008	-87.46179	-1.094738E-009	0.0007008	5
	51	330	2.372217	7.122726E+007	-5.37132E+008	1	5.41834E+008	-82.44627	-9.545471E-012	0.0006717	3
	52	335	1.878005	9.684398E+007	-6.723279E+008	1	6.792669E+008	-81.80334	-9.392489E-012	0.0007211	3
	53	344	1.512097	1.493428E+008	-8.120164E+008	1	8.256355E+008	-79.57884	-9.634031E-012	0.0006075	3
	54	351	1.201923	2.889709E+008	-9.482922E+008	1	9.913437E+008	-73.05257	-9.997747E-012	0.0007327	3
	55	363	0.956633	5.037714E+008	-9.684349E+008	1	1.091628E+009	-62.51694	-1.053486E-011	7.218327E-005	3
