EXPLAIN
TAG	EISPOT
TITLE	LABEL	Potentiostatic EIS	Test Identifier
DATE	LABEL	8/21/2020	Date
TIME	LABEL	16:40:05	Time
NOTES	NOTES	1	Notes...
	
PSTAT	PSTAT	REF3000-16137	Potentiostat
VDC	POTEN	0.00000E+000	T	DC Voltage (V)
FREQINIT	QUANT	3.00000E+005	Initial Freq. (Hz)
FREQFINAL	QUANT	1.00000E+000	Final Freq. (Hz)
PTSPERDEC	QUANT	1.00000E+001	Points/decade
VAC	QUANT	5.00000E+001	AC Voltage (mV rms)
AREA	QUANT	1.00000E+000	Sample Area (cm^2)
SPEED	SELECTOR	2	Optimize for:
ZGUESS	QUANT	1.00000E+003	Estimated Z (ohms)
EOC	QUANT	0	Open Circuit (V)
SEQUENCER	TOGGLE	TRUE	Run as Sequence
PSTATMODEL	IQUANT	5	Pstat Model
PSTATSECTION	LABEL	REF3000-16137	Pstat Section
PSTATSERIALNO	LABEL	16137	Pstat Serial Number
CTRLMODE	IQUANT	1	Control Mode
IESTAB	IQUANT	0	I/E Stability
CASPEED	IQUANT	1	Control Amp Speed
CONVENTION	IQUANT	1	Current Convention
ICHRANGE	IQUANT	2	Ich Range
ICHRANGEMODE	TOGGLE	F	Ich Auto Range
ICHOFFSETENABLE	TOGGLE	T	Ich Offset Enable
ICHOFFSET	QUANT	0	Ich Offset (V)
ICHFILTER	IQUANT	3	Ich Filter
VCHRANGE	IQUANT	2	Vch Range
VCHRANGEMODE	TOGGLE	F	Vch Auto Range
VCHOFFSETENABLE	TOGGLE	T	Vch Offset Enable
VCHOFFSET	QUANT	0	Vch Offset (V)
VCHFILTER	IQUANT	3	Vch Filter
ACHRANGE	IQUANT	2	Ach Range
ACHOFFSETENABLE	TOGGLE	F	Ach Offset Enable
ACHOFFSET	QUANT	0	Ach Offset (V)
ACHFILTER	IQUANT	3	Ach Filter
IERANGELOWERLIMIT	IQUANT	2	I/E Range Lower Limit
IERANGEMODE	TOGGLE	F	I/E AutoRange
IERANGE	IQUANT	11	I/E Range
POSFEEDENABLE	TOGGLE	F	Positive Feedback IR Comp
POSFEEDRESISTANCE	QUANT	0	Positive Feedback Resistance (ohm)
ACHSELECT	IQUANT	0	Ach Select
CABLEID	IQUANT	13	Cable ID
DCCALDATE	LABEL	7/31/2020	DC Calibration Date
ACCALDATE	LABEL	7/31/2020	AC Calibration Date
THERMOSELECT	IQUANT	1	Thermo Select
FRAMEWORKVERSION	QUANT	6.33	Framework Version
INSTRUMENTVERSION	LABEL	3.50	Instrument Version
COMPLIANCEVOLTAGE	IQUANT	0	Compliance Voltage
ZCURVE	TABLE
	Pt	Time	Freq	Zreal	Zimag	Zsig	Zmod	Zphz	Idc	Vdc	IERange
	#	s	Hz	ohm	ohm	V	ohm	°	A	V	#
	0	17	300046.9	2331.015	-1877.525	1	2993.114	-38.84984	-2.116121E-005	0.0015213	9
	1	36	238359.4	2729.114	-1683.255	1	3206.464	-31.66533	-1.412095E-005	0.0016259	9
	2	50	189328.1	3065.535	-1673.654	1	3492.653	-28.6327	1.332467E-006	0.001662	9
	3	57	150421.9	3392.204	-1514.409	1	3714.901	-24.05781	8.835091E-005	-0.002459	9
	4	68	119484.4	3704.488	-1222.27	1	3900.919	-18.25994	1.907573E-005	-0.0129756	8
	5	76	94921.88	3896.293	-1070.813	1	4040.76	-15.36713	2.03234E-005	-0.0088845	8
	6	83	75421.88	4046.739	-912.0745	1	4148.25	-12.70138	2.200857E-005	-0.0027985	8
	7	90	59859.37	4180.874	-783.7374	1	4253.698	-10.61732	1.656795E-005	0.0002048	8
	8	98	47578.12	4309.689	-672.1451	1	4361.789	-8.864517	-2.257615E-005	0.0050942	8
	9	105	37828.12	4414.692	-586.7874	1	4453.519	-7.571201	2.079716E-005	-0.0090305	8
	10	112	30046.88	4519.439	-509.598	1	4548.079	-6.433322	-1.553824E-005	0.0008907	8
	11	120	23859.38	4606.262	-435.6066	1	4626.813	-5.402301	2.43263E-005	-0.0084471	8
	12	125	18984.38	4686.396	-411.9471	1	4704.467	-5.023544	1.482615E-005	-0.0085731	8
	13	131	15046.87	4767.84	-362.2419	1	4781.581	-4.344762	1.662882E-005	0.0001191	8
	14	136	11953.13	4840.546	-360.1799	1	4853.928	-4.255476	-2.484074E-005	0.0072735	8
	15	141	9515.62	4895.857	-362.6123	1	4909.267	-4.235885	-2.483953E-005	0.0072809	8
	16	147	7546.875	4975.611	-362.1534	1	4988.774	-4.162972	2.476338E-005	-0.004996	8
	17	152	5928.309	5055.708	-384.5322	1	5070.311	-4.349486	-2.319856E-005	0.0104725	8
	18	157	4733.456	5131.207	-372.0404	1	5144.677	-4.146999	-1.097277E-005	0.0096304	8
	19	163	3796.875	5197.62	-469.2861	1	5218.763	-5.15917	-1.596264E-005	0.0010665	8
	20	168	2987.132	5294.803	-525.274	1	5320.794	-5.665524	8.239489E-006	0.0038301	8
	21	174	2390.625	5383.6	-573.5292	1	5414.063	-6.080936	-2.148315E-006	0.0074299	8
	22	179	1884.191	5535.092	-687.2052	1	5577.588	-7.077299	3.685205E-006	0.0025157	7
	23	183	1516.544	5625.141	-812.204	1	5683.475	-8.216053	-2.348706E-006	0.0211647	7
	24	187	1193.986	5772.292	-964.281	1	5852.28	-9.483876	5.434707E-006	-0.006304	7
	25	192	946.5144	5915.127	-1098.623	1	6016.287	-10.52172	5.416809E-006	-0.0060429	7
	26	195	751.7689	6024.406	-1259	1	6154.555	-11.80398	-2.529863E-007	-0.0136353	7
	27	197	597.4265	6222.531	-1547.804	1	6412.144	-13.96838	-2.436111E-006	0.0217339	7
	28	200	477.4305	6392.527	-1817.645	1	6645.918	-15.87252	-8.788304E-008	0.0006488	7
	29	202	376.6741	6600.635	-2122.209	1	6933.409	-17.82342	-8.775633E-008	0.00063	7
	30	204	298.2954	6829.414	-2471.008	1	7262.697	-19.89106	-8.932144E-008	0.0006399	7
	31	207	237.7717	7075.989	-2866.559	1	7634.578	-22.0534	-8.208333E-008	0.00061	7
	32	209	189.0121	7343.383	-3335.613	1	8065.457	-24.42916	-8.096121E-008	0.0005699	7
	33	212	150.2404	7631.635	-3892.123	1	8566.824	-27.02152	-8.951258E-008	0.000623	7
	34	214	119.1737	7948.974	-4564.102	1	9166.09	-29.86336	-8.322202E-008	0.0005599	7
	35	216	95.0169	8261.45	-5353.862	1	9844.56	-32.9454	-8.494386E-008	0.000658	7
	36	219	75.60484	8589.615	-6323.122	1	10665.99	-36.35811	-8.786853E-008	0.0006503	7
	37	221	54.50582	9047.276	-8113.458	1	12152.42	-41.88527	-8.341623E-008	0.0006211	7
	38	224	45.95588	9302.234	-9305.647	1	13157.76	-45.01051	-8.346368E-008	0.0005997	7
	39	226	37.20238	9611.3	-11086.61	1	14672.76	-49.07705	-8.742613E-008	0.0006523	7
	40	229	30.04808	9944.06	-13317.02	1	16620.09	-53.25064	-8.87937E-008	0.0006352	7
	41	231	23.91582	10308.29	-16291.07	1	19278.48	-57.67612	-8.460982E-008	0.0006493	7
	42	233	18.60119	10782.25	-20438.53	1	23108.23	-62.18633	-8.084093E-008	0.0005714	7
	43	236	15.02404	11240.46	-24884.77	1	27305.67	-65.69129	-8.990505E-008	0.0006599	7
	44	238	12.01923	11825.28	-30631.43	1	32834.76	-68.89088	-8.883481E-008	0.0006306	7
	45	241	9.450605	12609.72	-38370.35	1	40389.21	-71.80783	-8.023624E-008	0.0005656	7
	46	243	7.512019	13582.25	-47676.26	1	49573.21	-74.09855	-9.545385E-009	0.000705	6
	47	246	5.978954	14800.27	-59087.28	1	60912.68	-75.93779	-9.415443E-009	0.0007015	6
	48	249	4.734848	16374.81	-73692	1	75489.38	-77.47207	-8.684056E-009	0.0007219	6
	49	252	3.75601	18448.08	-91693.55	1	93530.95	-78.62437	-9.201697E-009	0.0006339	6
	50	256	3.004808	21047.56	-113097.1	1	115038.9	-79.45776	-8.857672E-009	0.0006891	6
	51	259	2.372217	24914.12	-141345.2	1	143524.1	-80.00348	-9.194427E-009	0.0007456	6
	52	263	1.878005	29543.89	-176330.7	1	178788.5	-80.48854	-9.616098E-009	0.0006323	6
	53	268	1.512097	35440.66	-215497.2	1	218392	-80.66074	-9.016304E-009	0.0006598	6
	54	274	1.201923	43814.73	-267964.8	1	271523.3	-80.71378	-9.375509E-009	0.0006144	6
	55	280	0.956633	55087.86	-331545.6	1	336091	-80.56622	-9.623807E-009	1.445098E-005	6
