EXPLAIN
TAG	EISPOT
TITLE	LABEL	Potentiostatic EIS	Test Identifier
DATE	LABEL	8/21/2020	Date
TIME	LABEL	15:59:16	Time
NOTES	NOTES	1	Notes...
	
PSTAT	PSTAT	REF3000-16137	Potentiostat
VDC	POTEN	0.00000E+000	T	DC Voltage (V)
FREQINIT	QUANT	3.00000E+005	Initial Freq. (Hz)
FREQFINAL	QUANT	1.00000E+000	Final Freq. (Hz)
PTSPERDEC	QUANT	1.00000E+001	Points/decade
VAC	QUANT	5.00000E+001	AC Voltage (mV rms)
AREA	QUANT	1.00000E+000	Sample Area (cm^2)
SPEED	SELECTOR	2	Optimize for:
ZGUESS	QUANT	1.00000E+003	Estimated Z (ohms)
EOC	QUANT	0	Open Circuit (V)
SEQUENCER	TOGGLE	TRUE	Run as Sequence
PSTATMODEL	IQUANT	5	Pstat Model
PSTATSECTION	LABEL	REF3000-16137	Pstat Section
PSTATSERIALNO	LABEL	16137	Pstat Serial Number
CTRLMODE	IQUANT	1	Control Mode
IESTAB	IQUANT	0	I/E Stability
CASPEED	IQUANT	1	Control Amp Speed
CONVENTION	IQUANT	1	Current Convention
ICHRANGE	IQUANT	2	Ich Range
ICHRANGEMODE	TOGGLE	F	Ich Auto Range
ICHOFFSETENABLE	TOGGLE	T	Ich Offset Enable
ICHOFFSET	QUANT	0	Ich Offset (V)
ICHFILTER	IQUANT	3	Ich Filter
VCHRANGE	IQUANT	2	Vch Range
VCHRANGEMODE	TOGGLE	F	Vch Auto Range
VCHOFFSETENABLE	TOGGLE	T	Vch Offset Enable
VCHOFFSET	QUANT	0	Vch Offset (V)
VCHFILTER	IQUANT	3	Vch Filter
ACHRANGE	IQUANT	2	Ach Range
ACHOFFSETENABLE	TOGGLE	F	Ach Offset Enable
ACHOFFSET	QUANT	0	Ach Offset (V)
ACHFILTER	IQUANT	3	Ach Filter
IERANGELOWERLIMIT	IQUANT	2	I/E Range Lower Limit
IERANGEMODE	TOGGLE	F	I/E AutoRange
IERANGE	IQUANT	11	I/E Range
POSFEEDENABLE	TOGGLE	F	Positive Feedback IR Comp
POSFEEDRESISTANCE	QUANT	0	Positive Feedback Resistance (ohm)
ACHSELECT	IQUANT	0	Ach Select
CABLEID	IQUANT	13	Cable ID
DCCALDATE	LABEL	7/31/2020	DC Calibration Date
ACCALDATE	LABEL	7/31/2020	AC Calibration Date
THERMOSELECT	IQUANT	1	Thermo Select
FRAMEWORKVERSION	QUANT	6.33	Framework Version
INSTRUMENTVERSION	LABEL	3.50	Instrument Version
COMPLIANCEVOLTAGE	IQUANT	0	Compliance Voltage
ZCURVE	TABLE
	Pt	Time	Freq	Zreal	Zimag	Zsig	Zmod	Zphz	Idc	Vdc	IERange
	#	s	Hz	ohm	ohm	V	ohm	°	A	V	#
	0	7	300046.9	152.9648	-6.088999	1	153.086	-2.279542	5.724098E-005	-0.0005777	9
	1	11	238359.4	153.9007	-6.754142	1	154.0489	-2.51289	-8.777149E-006	0.001199	9
	2	14	189328.1	154.7778	-7.649316	1	154.9667	-2.829328	-3.120552E-005	-0.0005825	9
	3	17	150421.9	155.6908	-8.747815	1	155.9364	-3.215902	5.200596E-005	-0.0002696	9
	4	19	119484.4	156.4353	-10.53197	1	156.7894	-3.851613	-5.163458E-005	0.0007298	9
	5	22	94921.88	157.5175	-12.32995	1	157.9993	-4.4758	-1.03572E-005	-4.506785E-005	9
	6	24	75421.88	158.7518	-14.70689	1	159.4315	-5.292819	1.964919E-005	-8.816896E-005	9
	7	27	59859.37	160.4409	-17.72894	1	161.4174	-6.305683	2.836847E-005	-0.0006376	9
	8	29	47578.12	162.0535	-20.98872	1	163.407	-7.379713	6.290309E-006	-0.0005708	9
	9	32	37828.12	164.2549	-24.98227	1	166.1438	-8.648098	1.436379E-005	-0.0007293	9
	10	34	30046.88	166.8172	-29.52823	1	169.4104	-10.03792	-1.147614E-005	7.302802E-005	9
	11	37	23859.38	169.9335	-34.87981	1	173.4762	-11.59918	-1.901127E-005	0.000478	9
	12	39	18984.38	173.8589	-41.04384	1	178.638	-13.28293	-1.740046E-005	0.0003433	9
	13	41	15046.87	177.9494	-48.1538	1	184.3496	-15.14182	-9.171207E-006	-0.0001006	9
	14	44	11953.13	183.0757	-56.01851	1	191.4544	-17.01335	2.393923E-005	-0.0003074	9
	15	46	9515.62	188.4001	-65.01587	1	199.3029	-19.03928	5.022561E-006	-0.0005916	9
	16	48	7546.875	194.5202	-75.76001	1	208.7527	-21.27948	-2.022179E-005	0.0008981	9
	17	51	5928.309	201.0014	-88.65723	1	219.6854	-23.8012	-2.160715E-005	0.0008035	9
	18	53	4733.456	207.4621	-103.0674	1	231.6536	-26.41823	-1.983729E-005	0.0009248	9
	19	55	3796.875	214.6413	-119.9582	1	245.8879	-29.19986	2.692523E-005	-0.0003457	9
	20	58	2987.132	222.7663	-142.3117	1	264.3434	-32.57201	-1.353328E-006	-0.0003645	9
	21	61	2390.625	229.5907	-168.0491	1	284.5213	-36.2023	1.163741E-005	0.0001904	9
	22	64	1884.191	236.557	-200.5704	1	310.1415	-40.29373	2.563316E-005	-0.0004842	9
	23	66	1516.544	244.1222	-239.8143	1	342.2083	-44.48997	-2.016816E-005	0.0009335	9
	24	68	1193.986	250.3627	-293.1375	1	385.5011	-49.50005	7.232734E-006	-0.0006023	9
	25	71	946.5144	256.2679	-358.1334	1	440.378	-54.4138	-8.188839E-006	0.0031201	8
	26	73	751.7689	262.5863	-440.9958	1	513.2532	-59.22876	4.262132E-006	-0.0022718	8
	27	75	597.4265	270.7446	-544.9312	1	608.4838	-63.57989	9.502449E-006	-0.001789	8
	28	78	477.4305	280.429	-672.9029	1	728.9984	-67.3763	9.471081E-008	0.0006424	8
	29	80	376.6741	292.9481	-842.3792	1	891.8639	-70.82423	9.978042E-008	0.0006385	8
	30	82	298.2954	308.8644	-1052.264	1	1096.657	-73.64178	9.255138E-008	0.0006505	8
	31	85	237.7717	329.076	-1307.188	1	1347.973	-75.86978	1.131493E-007	0.0006353	8
	32	87	189.0121	356.1093	-1628.631	1	1667.109	-77.66607	9.510084E-008	0.0006386	8
	33	89	150.2404	392.0428	-2028.874	1	2066.404	-79.06342	1.043119E-007	0.0006413	8
	34	92	119.1737	440.559	-2532.363	1	2570.399	-80.13094	9.798082E-008	0.000654	8
	35	94	95.0169	504.4117	-3144.05	1	3184.255	-80.8855	1.239407E-007	0.0006305	8
	36	97	75.60484	590.8928	-3908.222	1	3952.638	-81.40244	1.012001E-007	0.0006361	8
	37	99	54.50582	771.1524	-5340.261	1	5395.652	-81.78309	7.683639E-009	0.0006026	7
	38	102	45.95588	900.4989	-6275.226	1	6339.507	-81.83377	1.001614E-008	0.0006113	7
	39	104	37.20238	1104.902	-7652.791	1	7732.142	-81.78447	8.963026E-009	0.0006047	7
	40	106	30.04808	1381.982	-9351.003	1	9452.572	-81.59313	7.233856E-009	0.0006009	7
	41	109	23.91582	1778.908	-11556.93	1	11693.04	-81.2494	5.204494E-009	0.0006047	7
	42	111	18.60119	2391.525	-14579.78	1	14774.62	-80.68472	1.416653E-008	0.0006048	7
	43	113	15.02404	3107.99	-17719.97	1	17990.47	-80.05181	9.911167E-009	0.0006085	7
	44	116	12.01923	4118.126	-21686.38	1	22073.92	-79.24786	7.645437E-009	0.0006278	7
	45	118	9.450605	5611.816	-26852.64	1	27432.77	-78.19589	8.166285E-009	0.0006006	7
	46	121	7.512019	7558.574	-32811.88	1	33671.23	-77.0276	7.57707E-009	0.0006059	7
	47	123	5.978954	10168.1	-39875.14	1	41151.15	-75.69452	6.722637E-009	0.0006185	7
	48	127	4.734848	13731.02	-48376.58	1	50287.52	-74.15414	1.674488E-009	0.0006391	6
	49	130	3.75601	18399.07	-58234.2	1	61071.66	-72.46609	6.096867E-009	0.0006762	6
	50	133	3.004808	24171.12	-69161.09	1	73263.23	-70.73598	4.215701E-009	0.0006593	6
	51	137	2.372217	32088.26	-82302.54	1	88336.66	-68.7001	3.685838E-009	0.0005955	6
	52	141	1.878005	41839.07	-97260.6	1	105877.9	-66.72385	5.095598E-009	0.0006578	6
	53	146	1.512097	52786.08	-112547.7	1	124311.5	-64.87291	3.895753E-009	0.0007026	6
	54	151	1.201923	67483.22	-130581.2	1	146987.9	-62.67048	4.035294E-009	0.0006829	6
	55	157	0.956633	84962.98	-150011.5	1	172401.1	-60.4738	3.150714E-010	1.700428E-005	6
