EXPLAIN
TAG	EISPOT
TITLE	LABEL	Potentiostatic EIS	Test Identifier
DATE	LABEL	8/21/2020	Date
TIME	LABEL	15:26:42	Time
NOTES	NOTES	1	Notes...
	
PSTAT	PSTAT	REF3000-16137	Potentiostat
VDC	POTEN	0.00000E+000	T	DC Voltage (V)
FREQINIT	QUANT	3.00000E+005	Initial Freq. (Hz)
FREQFINAL	QUANT	1.00000E+000	Final Freq. (Hz)
PTSPERDEC	QUANT	1.00000E+001	Points/decade
VAC	QUANT	5.00000E+001	AC Voltage (mV rms)
AREA	QUANT	1.00000E+000	Sample Area (cm^2)
SPEED	SELECTOR	2	Optimize for:
ZGUESS	QUANT	1.00000E+003	Estimated Z (ohms)
EOC	QUANT	0	Open Circuit (V)
SEQUENCER	TOGGLE	TRUE	Run as Sequence
PSTATMODEL	IQUANT	5	Pstat Model
PSTATSECTION	LABEL	REF3000-16137	Pstat Section
PSTATSERIALNO	LABEL	16137	Pstat Serial Number
CTRLMODE	IQUANT	1	Control Mode
IESTAB	IQUANT	0	I/E Stability
CASPEED	IQUANT	1	Control Amp Speed
CONVENTION	IQUANT	1	Current Convention
ICHRANGE	IQUANT	2	Ich Range
ICHRANGEMODE	TOGGLE	F	Ich Auto Range
ICHOFFSETENABLE	TOGGLE	T	Ich Offset Enable
ICHOFFSET	QUANT	0	Ich Offset (V)
ICHFILTER	IQUANT	3	Ich Filter
VCHRANGE	IQUANT	2	Vch Range
VCHRANGEMODE	TOGGLE	F	Vch Auto Range
VCHOFFSETENABLE	TOGGLE	T	Vch Offset Enable
VCHOFFSET	QUANT	0	Vch Offset (V)
VCHFILTER	IQUANT	3	Vch Filter
ACHRANGE	IQUANT	2	Ach Range
ACHOFFSETENABLE	TOGGLE	F	Ach Offset Enable
ACHOFFSET	QUANT	0	Ach Offset (V)
ACHFILTER	IQUANT	3	Ach Filter
IERANGELOWERLIMIT	IQUANT	2	I/E Range Lower Limit
IERANGEMODE	TOGGLE	F	I/E AutoRange
IERANGE	IQUANT	11	I/E Range
POSFEEDENABLE	TOGGLE	F	Positive Feedback IR Comp
POSFEEDRESISTANCE	QUANT	0	Positive Feedback Resistance (ohm)
ACHSELECT	IQUANT	0	Ach Select
CABLEID	IQUANT	13	Cable ID
DCCALDATE	LABEL	7/31/2020	DC Calibration Date
ACCALDATE	LABEL	7/31/2020	AC Calibration Date
THERMOSELECT	IQUANT	1	Thermo Select
FRAMEWORKVERSION	QUANT	6.33	Framework Version
INSTRUMENTVERSION	LABEL	3.50	Instrument Version
COMPLIANCEVOLTAGE	IQUANT	0	Compliance Voltage
ZCURVE	TABLE
	Pt	Time	Freq	Zreal	Zimag	Zsig	Zmod	Zphz	Idc	Vdc	IERange
	#	s	Hz	ohm	ohm	V	ohm	°	A	V	#
	0	7	300046.9	50.08421	-1.65441	1	50.11153	-1.891938	6.061744E-005	-0.0025477	9
	1	10	238359.4	50.40421	-2.854039	1	50.48494	-3.2408	2.606688E-005	-0.0003515	9
	2	13	189328.1	50.6226	-3.908693	1	50.77328	-4.415184	1.802395E-006	0.0002949	9
	3	16	150421.9	51.10699	-5.122928	1	51.36311	-5.724166	8.545784E-006	-0.0011022	9
	4	18	119484.4	51.7251	-6.533089	1	52.13604	-7.198571	-1.067291E-005	-0.0006119	9
	5	21	94921.88	52.52908	-7.874443	1	53.11602	-8.525518	6.266467E-006	0.0001427	9
	6	23	75421.88	53.30415	-9.594	1	54.16066	-10.2032	9.591701E-006	-0.0004667	9
	7	26	59859.37	54.29835	-11.54495	1	55.51213	-12.00352	-1.45695E-005	0.0006667	9
	8	28	47578.12	55.50282	-13.69562	1	57.16759	-13.86114	4.071973E-006	-0.0003511	9
	9	31	37828.12	56.89511	-16.0946	1	59.12774	-15.79525	3.689817E-006	-0.0003411	9
	10	33	30046.88	58.44385	-18.85246	1	61.40927	-17.87834	4.750789E-006	0.0001953	9
	11	36	23859.38	60.17209	-21.93178	1	64.04439	-20.026	2.107016E-005	-0.0004801	9
	12	38	18984.38	61.98327	-25.56106	1	67.04695	-22.41059	-1.509861E-005	0.0003713	9
	13	40	15046.87	63.96455	-29.86251	1	70.59203	-25.02601	4.933194E-006	0.0003226	9
	14	43	11953.13	66.05456	-34.96534	1	74.73808	-27.89407	-1.57959E-005	0.0006067	9
	15	45	9515.62	68.15144	-40.96952	1	79.51805	-31.01236	-3.013503E-006	-0.0001108	9
	16	47	7546.875	70.23759	-48.54933	1	85.38358	-34.65284	-1.608721E-005	0.0005831	9
	17	50	5928.309	72.41216	-58.5025	1	93.0917	-38.93509	1.99672E-005	-0.0004909	9
	18	52	4733.456	74.36984	-70.01916	1	102.1448	-43.27411	-1.661052E-005	0.000571	9
	19	54	3796.875	76.30971	-84.31956	1	113.7232	-47.85471	-1.552507E-005	0.0006002	9
	20	57	2987.132	78.43625	-103.8044	1	130.1061	-52.92474	1.996783E-005	-0.0004932	9
	21	59	2390.625	80.79035	-126.5934	1	150.1765	-57.45449	-1.526345E-005	0.0004683	9
	22	61	1884.191	83.37561	-157.7239	1	178.4049	-62.13828	-1.308066E-005	0.0006783	9
	23	64	1516.544	86.2831	-193.0085	1	211.4168	-65.9133	-8.88584E-006	0.0006293	9
	24	66	1193.986	90.98015	-241.3732	1	257.9503	-69.3472	1.451469E-005	-0.0005266	9
	25	68	946.5144	96.8974	-300.554	1	315.7876	-72.13088	-1.480631E-005	0.0006603	9
	26	71	751.7689	104.6835	-374.6909	1	389.0397	-74.39036	-1.61199E-005	0.0004468	9
	27	73	597.4265	113.4116	-463.3389	1	477.0169	-76.24612	-3.360266E-006	0.0013104	8
	28	75	477.4305	126.4402	-573.5952	1	587.3657	-77.56883	3.711557E-007	0.0006409	8
	29	78	376.6741	145.2433	-717.6105	1	732.1614	-78.55799	3.561484E-007	0.0006416	8
	30	80	298.2954	170.4624	-893.8483	1	909.9572	-79.20299	3.693945E-007	0.0006369	8
	31	82	237.7717	203.7793	-1105.151	1	1123.782	-79.55256	3.582412E-007	0.0006358	8
	32	85	189.0121	249.5469	-1368.3	1	1390.87	-79.66415	3.580682E-007	0.0006335	8
	33	87	150.2404	311.6451	-1691.326	1	1719.798	-79.55974	3.369954E-007	0.000679	8
	34	90	119.1737	397.303	-2090.79	1	2128.204	-79.24063	3.659281E-007	0.0006395	8
	35	92	95.0169	510.5298	-2567.252	1	2617.522	-78.75275	3.627321E-007	0.0006367	8
	36	95	75.60484	665.7962	-3150.945	1	3220.518	-78.06887	3.731009E-007	0.0006401	8
	37	97	54.50582	989.682	-4201.57	1	4316.557	-76.74557	3.700112E-007	0.0006337	8
	38	100	45.95588	1225.837	-4880.358	1	5031.955	-75.90027	4.997093E-008	0.0006151	7
	39	102	37.20238	1596.613	-5833.417	1	6047.969	-74.69296	5.329959E-008	0.0005988	7
	40	104	30.04808	2099.192	-6965.445	1	7274.89	-73.22865	3.652849E-008	0.0006126	7
	41	107	23.91582	2794.54	-8349.763	1	8804.998	-71.49538	3.359288E-008	0.0006088	7
	42	109	18.60119	3815.936	-10134.89	1	10829.46	-69.3679	3.69955E-008	0.0006073	7
	43	111	15.02404	4960.221	-11825.45	1	12823.61	-67.24423	3.205911E-008	0.0006116	7
	44	114	12.01923	6482.881	-13744.18	1	15196.39	-64.74759	3.018015E-008	0.0006192	7
	45	116	9.450605	8570.872	-15937.83	1	18096.25	-61.73001	2.330846E-008	0.0006054	7
	46	119	7.512019	10988.85	-18057.91	1	21138.66	-58.67808	2.307766E-008	0.0005936	7
	47	121	5.978954	14061.41	-19640.85	1	24155.46	-54.40012	1.576693E-008	0.0006104	7
	48	126	4.734848	17584.15	-20977.17	1	27372.32	-50.02853	1.894086E-008	0.000624	7
	49	130	3.75601	21305.92	-21932.46	1	30577.36	-45.83017	1.209002E-008	0.0006025	7
	50	136	3.004808	24967.43	-22402.6	1	33544.73	-41.90078	1.285605E-009	0.0006476	7
	51	142	2.372217	28747.13	-22111.39	1	36267.21	-37.56636	2.758872E-009	0.0006846	7
	52	150	1.878005	31988.82	-20796.56	1	38154.71	-33.02868	-4.920186E-008	0.0006331	6
	53	159	1.512097	34519.99	-19540.18	1	39666.71	-29.51221	-5.085392E-008	0.0006571	6
	54	170	1.201923	36682	-17796.61	1	40771.17	-25.88076	-5.575897E-008	0.0006333	6
	55	182	0.956633	38501.55	-15960.82	1	41678.74	-22.51645	-8.375394E-008	1.898731E-005	6
