EXPLAIN
TAG	EISPOT
TITLE	LABEL	Potentiostatic EIS	Test Identifier
DATE	LABEL	8/21/2020	Date
TIME	LABEL	17:35:10	Time
NOTES	NOTES	1	Notes...
	
PSTAT	PSTAT	REF3000-16137	Potentiostat
VDC	POTEN	0.00000E+000	T	DC Voltage (V)
FREQINIT	QUANT	3.00000E+005	Initial Freq. (Hz)
FREQFINAL	QUANT	1.00000E+000	Final Freq. (Hz)
PTSPERDEC	QUANT	1.00000E+001	Points/decade
VAC	QUANT	5.00000E+001	AC Voltage (mV rms)
AREA	QUANT	1.00000E+000	Sample Area (cm^2)
SPEED	SELECTOR	2	Optimize for:
ZGUESS	QUANT	1.00000E+003	Estimated Z (ohms)
EOC	QUANT	0	Open Circuit (V)
SEQUENCER	TOGGLE	TRUE	Run as Sequence
PSTATMODEL	IQUANT	5	Pstat Model
PSTATSECTION	LABEL	REF3000-16137	Pstat Section
PSTATSERIALNO	LABEL	16137	Pstat Serial Number
CTRLMODE	IQUANT	1	Control Mode
IESTAB	IQUANT	0	I/E Stability
CASPEED	IQUANT	1	Control Amp Speed
CONVENTION	IQUANT	1	Current Convention
ICHRANGE	IQUANT	2	Ich Range
ICHRANGEMODE	TOGGLE	F	Ich Auto Range
ICHOFFSETENABLE	TOGGLE	T	Ich Offset Enable
ICHOFFSET	QUANT	0	Ich Offset (V)
ICHFILTER	IQUANT	3	Ich Filter
VCHRANGE	IQUANT	2	Vch Range
VCHRANGEMODE	TOGGLE	F	Vch Auto Range
VCHOFFSETENABLE	TOGGLE	T	Vch Offset Enable
VCHOFFSET	QUANT	0	Vch Offset (V)
VCHFILTER	IQUANT	3	Vch Filter
ACHRANGE	IQUANT	2	Ach Range
ACHOFFSETENABLE	TOGGLE	F	Ach Offset Enable
ACHOFFSET	QUANT	0	Ach Offset (V)
ACHFILTER	IQUANT	3	Ach Filter
IERANGELOWERLIMIT	IQUANT	2	I/E Range Lower Limit
IERANGEMODE	TOGGLE	F	I/E AutoRange
IERANGE	IQUANT	11	I/E Range
POSFEEDENABLE	TOGGLE	F	Positive Feedback IR Comp
POSFEEDRESISTANCE	QUANT	0	Positive Feedback Resistance (ohm)
ACHSELECT	IQUANT	0	Ach Select
CABLEID	IQUANT	13	Cable ID
DCCALDATE	LABEL	7/31/2020	DC Calibration Date
ACCALDATE	LABEL	7/31/2020	AC Calibration Date
THERMOSELECT	IQUANT	1	Thermo Select
FRAMEWORKVERSION	QUANT	6.33	Framework Version
INSTRUMENTVERSION	LABEL	3.50	Instrument Version
COMPLIANCEVOLTAGE	IQUANT	0	Compliance Voltage
ZCURVE	TABLE
	Pt	Time	Freq	Zreal	Zimag	Zsig	Zmod	Zphz	Idc	Vdc	IERange
	#	s	Hz	ohm	ohm	V	ohm	°	A	V	#
	0	14	300046.9	-44.09976	-4856.554	1	4856.754	-90.52026	2.095432E-005	-0.0023315	9
	1	28	238359.4	306.3044	-5896.432	1	5904.382	-87.02631	2.781496E-005	-0.002096	9
	2	42	189328.1	167.2139	-7480.072	1	7481.941	-88.71939	-1.595392E-005	0.0018299	9
	3	49	150421.9	334.3648	-8903.198	1	8909.475	-87.84924	9.517432E-007	-0.0019268	9
	4	57	119484.4	570.7073	-11896.59	1	11910.28	-87.25349	4.936744E-005	-0.0017881	8
	5	64	94921.88	535.0106	-14624.88	1	14634.66	-87.90493	-2.521327E-005	0.0111148	8
	6	73	75421.88	689.9125	-18126.88	1	18140.01	-87.82037	-2.513484E-005	0.0111569	8
	7	81	59859.37	647.728	-22919.1	1	22928.25	-88.38116	-1.590401E-005	0.0005454	8
	8	90	47578.12	4097.576	-30073.99	1	30351.85	-82.24123	-3.599623E-006	-0.0051935	7
	9	96	37828.12	4202.866	-37461.77	1	37696.79	-83.59871	-1.870065E-006	0.0223786	7
	10	104	30046.88	1645.634	-44426.55	1	44457.02	-87.87864	-1.03376E-006	-0.0052179	8
	11	112	23859.38	4284.066	-55630.31	1	55795.03	-85.59637	4.632986E-006	-4.934095E-005	7
	12	118	18984.38	4556.768	-71731.98	1	71876.57	-86.36517	3.561842E-006	-0.0249131	7
	13	123	15046.87	1726.962	-90407.79	1	90424.28	-88.90568	1.446078E-006	-0.02149	7
	14	128	11953.13	2739.235	-117707.1	1	117739	-88.66688	-2.418651E-005	0.0052482	8
	15	136	9515.62	4669.829	-142229.9	1	142306.6	-88.11948	-2.438789E-006	0.0078222	8
	16	145	7546.875	2845.814	-178815	1	178837.6	-89.08823	-7.503639E-006	0.019311	7
	17	151	5928.309	9716.5	-250740.5	1	250928.6	-87.78083	-5.425044E-006	0.0269576	7
	18	156	4733.456	68632.69	-273837.6	1	282307.4	-75.92964	-1.035441E-006	-0.0052081	8
	19	164	3796.875	43037.02	-369945.1	1	372440	-83.36441	6.114888E-007	-0.0071062	6
	20	169	2987.132	39886.14	-463588.8	1	465301.4	-85.08251	1.853449E-007	-0.0214824	6
	21	175	2390.625	49595.98	-562853.1	1	565033.9	-84.96437	-7.535609E-007	0.0179801	6
	22	180	1884.191	57878.3	-714525.5	1	716865.8	-85.36901	4.331614E-007	0.0020814	6
	23	185	1516.544	55904.17	-900775.9	1	902509.1	-86.44865	7.772363E-007	-0.0231094	6
	24	191	1193.986	44259.07	-1210077	1	1210886	-87.90532	5.968886E-007	-0.027906	6
	25	197	946.5144	10979.19	-1344795	1	1344840	-89.53223	7.310588E-007	-0.0156074	6
	26	200	751.7689	265939.7	-1712675	1	1733200	-81.17375	-6.899689E-007	0.0265743	6
	27	205	597.4265	202987.5	-1782648	1	1794167	-83.50379	-1.974634E-009	0.0175491	6
	28	209	477.4305	449598.1	-2955890	1	2989886	-81.35146	-9.648067E-010	0.0006781	5
	29	211	376.6741	469857.5	-3675205	1	3705118	-82.71453	-1.026749E-009	0.0005853	5
	30	216	298.2954	519619.1	-4582507	1	4611873	-83.53075	-1.054821E-009	0.0006859	5
	31	218	237.7717	420446.4	-5758140	1	5773469	-85.8238	-1.088927E-009	0.0006598	5
	32	221	189.0121	543440.8	-7116104	1	7136824	-85.63293	-1.090052E-009	0.0006621	5
	33	224	150.2404	928830.6	-9291614	1	9337924	-84.29143	-9.818719E-010	0.000588	5
	34	227	119.1737	-209576.5	-8509612	1	8512192	-91.4108	-1.030054E-009	0.0007018	5
	35	230	95.0169	1021915	-1.403322E+007	1	1.407038E+007	-85.83501	-9.889811E-010	0.0005993	5
	36	232	75.60484	963751	-1.832877E+007	1	1.835409E+007	-86.99008	-1.032159E-009	0.00064	5
	37	235	54.50582	918801.8	-2.438412E+007	1	2.440143E+007	-87.84209	-1.076604E-009	0.0006576	5
	38	238	45.95588	-152726.5	-2.925949E+007	1	2.925989E+007	-90.29906	-1.03629E-009	0.0006906	5
	39	242	37.20238	2144454	-3.692331E+007	1	3.698553E+007	-86.67608	-1.095251E-009	0.000678	5
	40	246	30.04808	5640912	-4.49425E+007	1	4.529512E+007	-82.84599	-9.505601E-011	0.0006867	4
	41	250	23.91582	6571744	-5.853278E+007	1	5.890054E+007	-83.59396	-1.28324E-010	0.0006886	4
	42	254	18.60119	3602377	-8.110955E+007	1	8.118951E+007	-87.45695	-6.564369E-011	0.0006788	4
	43	257	15.02404	5619193	-8.70252E+007	1	8.720642E+007	-86.30556	-1.013078E-010	0.0007017	4
	44	261	12.01923	3676308	-1.112871E+008	1	1.113478E+008	-88.10796	-9.030097E-011	0.0006673	4
	45	265	9.450605	3750599	-1.391608E+008	1	1.392113E+008	-88.45616	-8.510787E-011	0.000611	4
	46	269	7.512019	1.168113E+007	-1.764859E+008	1	1.768721E+008	-86.21327	-1.068161E-010	0.0007112	4
	47	273	5.978954	-7454139	-2.210919E+008	1	2.212175E+008	-91.931	-8.587529E-011	0.0006917	4
	48	279	4.734848	4.588934E+007	-2.853873E+008	1	2.890532E+008	-80.86522	-8.886252E-012	0.0007462	3
	49	284	3.75601	-3676805	-3.119593E+008	1	3.11981E+008	-90.67527	-1.042621E-009	0.0006285	5
	50	292	3.004808	-7417403	-4.350053E+008	1	4.350685E+008	-90.97688	-1.040081E-009	0.000641	5
	51	301	2.372217	5.852642E+007	-5.46021E+008	1	5.491487E+008	-83.88199	-8.904578E-012	0.0006397	3
	52	307	1.878005	6.47683E+007	-6.839677E+008	1	6.870275E+008	-84.59051	-8.715009E-012	0.0007312	3
	53	316	1.512097	7.16558E+007	-8.442732E+008	1	8.473085E+008	-85.14877	-8.76895E-012	0.0006039	3
	54	322	1.201923	8.164541E+007	-1.057999E+009	1	1.061145E+009	-85.58725	-8.585937E-012	0.0007379	3
	55	335	0.956633	9.431986E+007	-1.323326E+009	1	1.326684E+009	-85.92315	-8.507172E-012	7.110374E-005	3
