EXPLAIN
TAG	EISPOT
TITLE	LABEL	Potentiostatic EIS	Test Identifier
DATE	LABEL	8/21/2020	Date
TIME	LABEL	17:28:32	Time
NOTES	NOTES	1	Notes...
	
PSTAT	PSTAT	REF3000-16137	Potentiostat
VDC	POTEN	0.00000E+000	T	DC Voltage (V)
FREQINIT	QUANT	3.00000E+005	Initial Freq. (Hz)
FREQFINAL	QUANT	1.00000E+000	Final Freq. (Hz)
PTSPERDEC	QUANT	1.00000E+001	Points/decade
VAC	QUANT	5.00000E+001	AC Voltage (mV rms)
AREA	QUANT	1.00000E+000	Sample Area (cm^2)
SPEED	SELECTOR	2	Optimize for:
ZGUESS	QUANT	1.00000E+003	Estimated Z (ohms)
EOC	QUANT	0	Open Circuit (V)
SEQUENCER	TOGGLE	TRUE	Run as Sequence
PSTATMODEL	IQUANT	5	Pstat Model
PSTATSECTION	LABEL	REF3000-16137	Pstat Section
PSTATSERIALNO	LABEL	16137	Pstat Serial Number
CTRLMODE	IQUANT	1	Control Mode
IESTAB	IQUANT	0	I/E Stability
CASPEED	IQUANT	1	Control Amp Speed
CONVENTION	IQUANT	1	Current Convention
ICHRANGE	IQUANT	2	Ich Range
ICHRANGEMODE	TOGGLE	F	Ich Auto Range
ICHOFFSETENABLE	TOGGLE	T	Ich Offset Enable
ICHOFFSET	QUANT	0	Ich Offset (V)
ICHFILTER	IQUANT	3	Ich Filter
VCHRANGE	IQUANT	2	Vch Range
VCHRANGEMODE	TOGGLE	F	Vch Auto Range
VCHOFFSETENABLE	TOGGLE	T	Vch Offset Enable
VCHOFFSET	QUANT	0	Vch Offset (V)
VCHFILTER	IQUANT	3	Vch Filter
ACHRANGE	IQUANT	2	Ach Range
ACHOFFSETENABLE	TOGGLE	F	Ach Offset Enable
ACHOFFSET	QUANT	0	Ach Offset (V)
ACHFILTER	IQUANT	3	Ach Filter
IERANGELOWERLIMIT	IQUANT	2	I/E Range Lower Limit
IERANGEMODE	TOGGLE	F	I/E AutoRange
IERANGE	IQUANT	11	I/E Range
POSFEEDENABLE	TOGGLE	F	Positive Feedback IR Comp
POSFEEDRESISTANCE	QUANT	0	Positive Feedback Resistance (ohm)
ACHSELECT	IQUANT	0	Ach Select
CABLEID	IQUANT	13	Cable ID
DCCALDATE	LABEL	7/31/2020	DC Calibration Date
ACCALDATE	LABEL	7/31/2020	AC Calibration Date
THERMOSELECT	IQUANT	1	Thermo Select
FRAMEWORKVERSION	QUANT	6.33	Framework Version
INSTRUMENTVERSION	LABEL	3.50	Instrument Version
COMPLIANCEVOLTAGE	IQUANT	0	Compliance Voltage
ZCURVE	TABLE
	Pt	Time	Freq	Zreal	Zimag	Zsig	Zmod	Zphz	Idc	Vdc	IERange
	#	s	Hz	ohm	ohm	V	ohm	°	A	V	#
	0	14	300046.9	-84.74823	-4810.386	1	4811.132	-91.00932	-6.572023E-005	0.0003803	9
	1	35	238359.4	-35.02511	-5781.265	1	5781.371	-90.34711	9.583658E-007	0.0015814	9
	2	57	189328.1	63.495	-7537.674	1	7537.941	-89.51737	8.265486E-005	-0.0033719	9
	3	70	150421.9	-66.9533	-9668.6	1	9668.83	-90.39676	-2.686256E-005	-0.0010649	9
	4	85	119484.4	268.6767	-11041.09	1	11044.36	-88.60603	1.942363E-005	-0.000808	9
	5	98	94921.88	233.0376	-14483.46	1	14485.34	-89.07819	2.847423E-005	-0.0004417	9
	6	107	75421.88	690.732	-18192.46	1	18205.57	-87.82564	8.188914E-006	0.0042952	8
	7	115	59859.37	810.8332	-22785.54	1	22799.97	-87.96197	-2.04885E-005	0.002769	8
	8	124	47578.12	465.7691	-28413.42	1	28417.23	-89.06086	2.617039E-005	-0.0090375	8
	9	134	37828.12	1793.587	-35517.33	1	35562.59	-87.10908	2.264249E-005	-0.0096925	8
	10	143	30046.88	2078.955	-45630.07	1	45677.4	-87.39135	-2.051176E-005	0.0027521	8
	11	153	23859.38	4992.38	-57741.13	1	57956.55	-85.05842	-3.364378E-006	-0.0052827	7
	12	160	18984.38	5324.478	-72408.59	1	72604.09	-85.7944	-7.290677E-006	0.0176453	7
	13	165	15046.87	5531.292	-89814.2	1	89984.37	-86.47584	3.594592E-006	-0.0249729	7
	14	170	11953.13	7011.805	-100724.3	1	100968.1	-86.01785	8.114618E-006	-0.0077499	8
	15	178	9515.62	414.2064	-149458.3	1	149458.9	-89.84121	-2.493481E-005	0.010955	8
	16	185	7546.875	-19261.23	-183502.2	1	184510.4	-95.9921	2.63603E-005	-0.0090753	8
	17	193	5928.309	-39665.29	-231631.7	1	235003.3	-99.7172	-2.049456E-005	0.0027687	8
	18	202	4733.456	-10974.92	-283409.7	1	283622.1	-92.21764	5.412545E-006	-0.0270442	7
	19	208	3796.875	8879.124	-349961.7	1	350074.3	-88.54662	7.758359E-006	-0.0246847	7
	20	214	2987.132	1925.829	-403782.2	1	403786.8	-89.72673	-1.054883E-006	-0.013621	7
	21	221	2390.625	34915.03	-575768.6	1	576826.3	-86.52979	-7.752743E-009	0.0176808	6
	22	226	1884.191	54517.83	-717065.3	1	719134.8	-85.65221	-7.474851E-007	0.0177306	6
	23	232	1516.544	56501.82	-917799.6	1	919537.2	-86.47719	4.023259E-007	-0.0256174	6
	24	238	1193.986	92981.28	-1126192	1	1130024	-85.28022	2.152956E-007	0.0107896	6
	25	245	946.5144	100085	-1261053	1	1265019	-85.46217	-5.249202E-010	0.0174001	6
	26	250	751.7689	46781.03	-1726999	1	1727632	-88.44835	4.104372E-007	-0.0257414	6
	27	255	597.4265	323208.9	-3057091	1	3074129	-83.96486	7.301057E-007	-0.0269861	6
	28	258	477.4305	93318.26	-2819604	1	2821148	-88.10442	-9.678176E-009	0.0006573	6
	29	264	376.6741	475730.8	-3666996	1	3697726	-82.60812	-1.080764E-009	0.0007	5
	30	268	298.2954	500203.5	-4581569	1	4608794	-83.76928	-9.822472E-010	0.0006126	5
	31	271	237.7717	642133.1	-5652216	1	5688574	-83.51857	-9.766766E-010	0.00059	5
	32	274	189.0121	559526.6	-7083009	1	7105074	-85.48326	-1.082424E-009	0.0006376	5
	33	276	150.2404	1001121	-9175591	1	9230044	-83.77326	-9.920919E-010	0.0006243	5
	34	279	119.1737	1106853	-8241160	1	8315158	-82.35049	-1.016108E-009	0.000595	5
	35	282	95.0169	529645.1	-1.424751E+007	1	1.425735E+007	-87.87103	-1.079457E-009	0.0006848	5
	36	285	75.60484	1415491	-1.807457E+007	1	1.812992E+007	-85.52208	-1.041939E-009	0.0006406	5
	37	288	54.50582	650102.9	-2.425686E+007	1	2.426557E+007	-88.4648	-9.581752E-010	0.000594	5
	38	291	45.95588	606730.4	-3.017306E+007	1	3.017916E+007	-88.84803	-9.54074E-010	0.0006024	5
	39	295	37.20238	1746799	-3.721968E+007	1	3.726065E+007	-87.31296	-1.064094E-009	0.0006965	5
	40	299	30.04808	5149656	-4.453137E+007	1	4.482814E+007	-83.40356	-1.063046E-010	0.0007291	4
	41	303	23.91582	5177387	-5.748588E+007	1	5.771856E+007	-84.85362	-9.847711E-011	0.0006834	4
	42	306	18.60119	2.984159E+007	-7.198338E+007	1	7.792386E+007	-67.48295	-2.261037E-010	0.0006201	4
	43	310	15.02404	6218821	-8.553107E+007	1	8.575686E+007	-85.84144	-1.063743E-010	0.0006944	4
	44	314	12.01923	8499763	-1.080757E+008	1	1.084094E+008	-85.50315	-1.102903E-010	0.000713	4
	45	317	9.450605	196219.3	-1.394915E+008	1	1.394917E+008	-89.9194	-9.252341E-011	0.0007213	4
	46	321	7.512019	9023921	-1.70684E+008	1	1.709224E+008	-86.97364	-9.706617E-011	0.0006891	4
	47	326	5.978954	8552928	-2.199995E+008	1	2.201657E+008	-87.77363	-8.817458E-011	0.0006087	4
	48	331	4.734848	4.748261E+007	-2.85338E+008	1	2.892617E+008	-80.55208	-8.853429E-012	0.0006802	3
	49	336	3.75601	8758453	-3.096818E+008	1	3.098056E+008	-88.37999	-9.96096E-010	0.0005917	5
	50	344	3.004808	-1.846899E+007	-3.966413E+008	1	3.97071E+008	-92.66596	-9.989637E-010	0.0006413	5
	51	354	2.372217	6.191934E+007	-5.435108E+008	1	5.470266E+008	-83.50062	-8.901342E-012	0.000734	3
	52	359	1.878005	6.970842E+007	-6.821188E+008	1	6.856714E+008	-84.16498	-8.914735E-012	0.0007069	3
	53	368	1.512097	7.781722E+007	-8.391926E+008	1	8.427928E+008	-84.70219	-8.72187E-012	0.0006847	3
	54	375	1.201923	9.237892E+007	-1.053959E+009	1	1.058E+009	-84.99086	-8.729055E-012	0.000699	3
	55	386	0.956633	1.074833E+008	-1.316014E+009	1	1.320396E+009	-85.33083	-8.657624E-012	8.485458E-005	3
