EXPLAIN
TAG	EISPOT
TITLE	LABEL	Potentiostatic EIS	Test Identifier
DATE	LABEL	8/21/2020	Date
TIME	LABEL	15:48:14	Time
NOTES	NOTES	1	Notes...
	
PSTAT	PSTAT	REF3000-16137	Potentiostat
VDC	POTEN	0.00000E+000	T	DC Voltage (V)
FREQINIT	QUANT	3.00000E+005	Initial Freq. (Hz)
FREQFINAL	QUANT	1.00000E+000	Final Freq. (Hz)
PTSPERDEC	QUANT	1.00000E+001	Points/decade
VAC	QUANT	5.00000E+001	AC Voltage (mV rms)
AREA	QUANT	1.00000E+000	Sample Area (cm^2)
SPEED	SELECTOR	2	Optimize for:
ZGUESS	QUANT	1.00000E+003	Estimated Z (ohms)
EOC	QUANT	0	Open Circuit (V)
SEQUENCER	TOGGLE	TRUE	Run as Sequence
PSTATMODEL	IQUANT	5	Pstat Model
PSTATSECTION	LABEL	REF3000-16137	Pstat Section
PSTATSERIALNO	LABEL	16137	Pstat Serial Number
CTRLMODE	IQUANT	1	Control Mode
IESTAB	IQUANT	0	I/E Stability
CASPEED	IQUANT	1	Control Amp Speed
CONVENTION	IQUANT	1	Current Convention
ICHRANGE	IQUANT	2	Ich Range
ICHRANGEMODE	TOGGLE	F	Ich Auto Range
ICHOFFSETENABLE	TOGGLE	T	Ich Offset Enable
ICHOFFSET	QUANT	0	Ich Offset (V)
ICHFILTER	IQUANT	3	Ich Filter
VCHRANGE	IQUANT	2	Vch Range
VCHRANGEMODE	TOGGLE	F	Vch Auto Range
VCHOFFSETENABLE	TOGGLE	T	Vch Offset Enable
VCHOFFSET	QUANT	0	Vch Offset (V)
VCHFILTER	IQUANT	3	Vch Filter
ACHRANGE	IQUANT	2	Ach Range
ACHOFFSETENABLE	TOGGLE	F	Ach Offset Enable
ACHOFFSET	QUANT	0	Ach Offset (V)
ACHFILTER	IQUANT	3	Ach Filter
IERANGELOWERLIMIT	IQUANT	2	I/E Range Lower Limit
IERANGEMODE	TOGGLE	F	I/E AutoRange
IERANGE	IQUANT	11	I/E Range
POSFEEDENABLE	TOGGLE	F	Positive Feedback IR Comp
POSFEEDRESISTANCE	QUANT	0	Positive Feedback Resistance (ohm)
ACHSELECT	IQUANT	0	Ach Select
CABLEID	IQUANT	13	Cable ID
DCCALDATE	LABEL	7/31/2020	DC Calibration Date
ACCALDATE	LABEL	7/31/2020	AC Calibration Date
THERMOSELECT	IQUANT	1	Thermo Select
FRAMEWORKVERSION	QUANT	6.33	Framework Version
INSTRUMENTVERSION	LABEL	3.50	Instrument Version
COMPLIANCEVOLTAGE	IQUANT	0	Compliance Voltage
ZCURVE	TABLE
	Pt	Time	Freq	Zreal	Zimag	Zsig	Zmod	Zphz	Idc	Vdc	IERange
	#	s	Hz	ohm	ohm	V	ohm	°	A	V	#
	0	7	300046.9	95.2066	-3.081372	1	95.2564	-1.853738	4.742516E-005	-0.0006879	9
	1	10	238359.4	95.8047	-4.174491	1	95.8956	-2.494967	-7.996489E-005	0.0026115	9
	2	13	189328.1	96.1494	-5.145176	1	96.2869	-3.063109	7.255623E-005	-0.0019216	9
	3	16	150421.9	96.967	-6.697311	1	97.198	-3.951027	6.272536E-005	-0.0015727	9
	4	18	119484.4	97.5966	-8.446787	1	97.9615	-4.946505	8.031172E-006	0.0009147	9
	5	21	94921.88	98.5169	-9.9439	1	99.0175	-5.763683	1.840855E-005	-0.0007189	9
	6	23	75421.88	99.5467	-12.22199	1	100.2942	-6.999538	-2.265404E-006	-0.0003161	9
	7	26	59859.37	100.8931	-14.88986	1	101.9859	-8.395144	2.149946E-005	-0.0002849	9
	8	28	47578.12	102.4205	-17.75799	1	103.9486	-9.83634	2.349532E-005	-0.0004777	9
	9	31	37828.12	104.3272	-21.11097	1	106.4417	-11.43953	2.220304E-005	-0.0003265	9
	10	33	30046.88	106.6084	-24.81086	1	109.4575	-13.10117	-2.147915E-005	0.000786	9
	11	36	23859.38	109.1682	-29.15558	1	112.9945	-14.953	1.11991E-006	0.0004676	9
	12	38	18984.38	112.096	-33.9387	1	117.121	-16.84446	-1.253226E-005	0.0007821	9
	13	41	15046.87	115.4317	-39.52937	1	122.0125	-18.90367	-1.980878E-005	0.0006497	9
	14	43	11953.13	118.9707	-46.03928	1	127.5682	-21.15544	2.920935E-006	0.0004434	9
	15	45	9515.62	122.7513	-53.53058	1	133.9157	-23.56152	-9.62367E-006	-2.389216E-005	9
	16	47	7546.875	126.9202	-62.54562	1	141.4945	-26.23383	1.840343E-005	-0.0007075	9
	17	50	5928.309	131.4638	-73.77005	1	150.7473	-29.29867	-1.781988E-005	0.0008556	9
	18	52	4733.456	135.6415	-86.82503	1	161.0503	-32.62358	-8.958023E-006	-2.675938E-005	9
	19	54	3796.875	139.7709	-101.9528	1	173.0037	-36.10804	-1.987549E-005	0.0008153	9
	20	57	2987.132	144.2388	-123.1339	1	189.6491	-40.48675	-1.218409E-005	0.0008098	9
	21	59	2390.625	147.9691	-147.2709	1	208.7668	-44.86451	-2.18912E-006	-0.0002998	9
	22	61	1884.191	151.9343	-179.9274	1	235.495	-49.82159	5.849993E-006	-0.0004944	9
	23	64	1516.544	155.8825	-217.7948	1	267.8319	-54.40751	2.3784E-005	-0.0005946	9
	24	66	1193.986	160.325	-270.0891	1	314.0895	-59.30661	-2.082177E-005	0.0006548	9
	25	68	946.5144	164.8499	-336.2034	1	374.4439	-63.87999	-1.765836E-005	0.0008048	9
	26	71	751.7689	169.4338	-416.1494	1	449.3196	-67.84647	2.213992E-005	-0.0002771	9
	27	73	597.4265	178.4613	-514.6736	1	544.7361	-70.87619	-5.872566E-006	0.0021997	8
	28	76	477.4305	188.3185	-637.9424	1	665.1573	-73.55357	2.271651E-007	0.0006391	8
	29	78	376.6741	201.9268	-800.1673	1	825.2527	-75.83679	2.198573E-007	0.000638	8
	30	80	298.2954	219.8227	-1000.314	1	1024.183	-77.60605	2.223408E-007	0.0006434	8
	31	82	237.7717	243.1911	-1242.438	1	1266.015	-78.92512	2.262206E-007	0.0006325	8
	32	85	189.0121	274.9711	-1546.767	1	1571.018	-79.91975	2.297581E-007	0.0006395	8
	33	87	150.2404	317.6696	-1924.051	1	1950.099	-80.62479	2.248624E-007	0.0006333	8
	34	90	119.1737	376.3558	-2397.269	1	2426.631	-81.07776	2.384382E-007	0.0006309	8
	35	92	95.0169	453.2857	-2969.249	1	3003.649	-81.32024	2.293524E-007	0.0006445	8
	36	95	75.60484	558.1242	-3681.329	1	3723.397	-81.37907	2.225895E-007	0.0006626	8
	37	97	54.50582	778.3677	-5006.995	1	5067.134	-81.16375	2.557311E-008	0.0006011	7
	38	100	45.95588	936.9251	-5868.128	1	5942.454	-80.92853	3.341153E-008	0.0006149	7
	39	102	37.20238	1190.95	-7129.487	1	7228.274	-80.51655	3.405867E-008	0.0006026	7
	40	104	30.04808	1534.582	-8671.23	1	8805.974	-79.96405	2.949964E-008	0.0006	7
	41	107	23.91582	2030.159	-10666.3	1	10857.78	-79.22356	2.490678E-008	0.0006112	7
	42	109	18.60119	2797.812	-13343.42	1	13633.58	-78.15793	3.655019E-008	0.000613	7
	43	111	15.02404	3675.867	-16100.02	1	16514.32	-77.13899	2.760454E-008	0.0006115	7
	44	114	12.01923	4930.648	-19495.87	1	20109.7	-75.80708	3.238986E-008	0.0006299	7
	45	116	9.450605	6727.308	-23845.38	1	24776.18	-74.24507	3.135563E-008	0.0006017	7
	46	119	7.512019	9072.391	-28718.62	1	30117.56	-72.46835	3.328213E-008	0.0006237	7
	47	121	5.978954	12071.28	-34276.2	1	36339.7	-70.59892	3.254405E-008	0.0006182	7
	48	124	4.734848	16074.15	-40760.84	1	43815.8	-68.47807	7.936735E-009	0.0006307	6
	49	128	3.75601	21142.25	-47907.09	1	52364.91	-66.18728	1.279276E-008	0.000667	6
	50	131	3.004808	27212.63	-55431.32	1	61750.78	-63.85241	9.091567E-009	0.0006747	6
	51	135	2.372217	35120.21	-63977.26	1	72983.01	-61.23549	1.016923E-008	0.0006588	6
	52	139	1.878005	44903.87	-72848.13	1	85575.73	-58.35016	1.066935E-008	0.0006374	6
	53	144	1.512097	55432.79	-81249.42	1	98357.8	-55.69606	8.373464E-009	0.0007513	6
	54	149	1.201923	68621.16	-89803.8	1	113020.3	-52.61572	8.99131E-009	0.0006759	6
	55	155	0.956633	83634.2	-97856.2	1	128726.5	-49.48068	1.836908E-009	1.582202E-005	6
