EXPLAIN
TAG	EISPOT
TITLE	LABEL	Potentiostatic EIS	Test Identifier
DATE	LABEL	8/21/2020	Date
TIME	LABEL	16:16:53	Time
NOTES	NOTES	1	Notes...
	
PSTAT	PSTAT	REF3000-16137	Potentiostat
VDC	POTEN	0.00000E+000	T	DC Voltage (V)
FREQINIT	QUANT	3.00000E+005	Initial Freq. (Hz)
FREQFINAL	QUANT	1.00000E+000	Final Freq. (Hz)
PTSPERDEC	QUANT	1.00000E+001	Points/decade
VAC	QUANT	5.00000E+001	AC Voltage (mV rms)
AREA	QUANT	1.00000E+000	Sample Area (cm^2)
SPEED	SELECTOR	2	Optimize for:
ZGUESS	QUANT	1.00000E+003	Estimated Z (ohms)
EOC	QUANT	0	Open Circuit (V)
SEQUENCER	TOGGLE	TRUE	Run as Sequence
PSTATMODEL	IQUANT	5	Pstat Model
PSTATSECTION	LABEL	REF3000-16137	Pstat Section
PSTATSERIALNO	LABEL	16137	Pstat Serial Number
CTRLMODE	IQUANT	1	Control Mode
IESTAB	IQUANT	0	I/E Stability
CASPEED	IQUANT	1	Control Amp Speed
CONVENTION	IQUANT	1	Current Convention
ICHRANGE	IQUANT	2	Ich Range
ICHRANGEMODE	TOGGLE	F	Ich Auto Range
ICHOFFSETENABLE	TOGGLE	T	Ich Offset Enable
ICHOFFSET	QUANT	0	Ich Offset (V)
ICHFILTER	IQUANT	3	Ich Filter
VCHRANGE	IQUANT	2	Vch Range
VCHRANGEMODE	TOGGLE	F	Vch Auto Range
VCHOFFSETENABLE	TOGGLE	T	Vch Offset Enable
VCHOFFSET	QUANT	0	Vch Offset (V)
VCHFILTER	IQUANT	3	Vch Filter
ACHRANGE	IQUANT	2	Ach Range
ACHOFFSETENABLE	TOGGLE	F	Ach Offset Enable
ACHOFFSET	QUANT	0	Ach Offset (V)
ACHFILTER	IQUANT	3	Ach Filter
IERANGELOWERLIMIT	IQUANT	2	I/E Range Lower Limit
IERANGEMODE	TOGGLE	F	I/E AutoRange
IERANGE	IQUANT	11	I/E Range
POSFEEDENABLE	TOGGLE	F	Positive Feedback IR Comp
POSFEEDRESISTANCE	QUANT	0	Positive Feedback Resistance (ohm)
ACHSELECT	IQUANT	0	Ach Select
CABLEID	IQUANT	13	Cable ID
DCCALDATE	LABEL	7/31/2020	DC Calibration Date
ACCALDATE	LABEL	7/31/2020	AC Calibration Date
THERMOSELECT	IQUANT	1	Thermo Select
FRAMEWORKVERSION	QUANT	6.33	Framework Version
INSTRUMENTVERSION	LABEL	3.50	Instrument Version
COMPLIANCEVOLTAGE	IQUANT	0	Compliance Voltage
ZCURVE	TABLE
	Pt	Time	Freq	Zreal	Zimag	Zsig	Zmod	Zphz	Idc	Vdc	IERange
	#	s	Hz	ohm	ohm	V	ohm	°	A	V	#
	0	17	300046.9	430.2854	-37.54113	1	431.92	-4.986261	-9.080391E-005	0.0037089	9
	1	29	238359.4	437.5568	-32.93656	1	438.7947	-4.304753	-0.0001015	0.0034588	9
	2	40	189328.1	444.2974	-31.20972	1	445.3922	-4.018147	-6.884967E-007	-0.001751	9
	3	48	150421.9	450.1286	-28.77063	1	451.0471	-3.657169	-1.732269E-005	0.0015492	9
	4	56	119484.4	454.4497	-14.47082	1	454.6801	-1.823826	3.441725E-007	0.0083665	8
	5	60	94921.88	457.4001	-15.12657	1	457.6502	-1.894125	4.754603E-006	0.0019953	8
	6	62	75421.88	458.5476	-17.10767	1	458.8666	-2.136622	1.72179E-005	-0.0053862	8
	7	65	59859.37	461.0623	-22.63529	1	461.6176	-2.810609	-1.501206E-005	0.0049584	8
	8	67	47578.12	464.2499	-27.58232	1	465.0686	-3.400098	-7.137536E-006	-0.0003767	8
	9	70	37828.12	467.2704	-33.18981	1	468.4476	-4.062847	3.143673E-006	-0.0037666	8
	10	72	30046.88	471.5345	-39.45512	1	473.1823	-4.783019	-9.834797E-006	0.0064211	8
	11	75	23859.38	476.0016	-48.82472	1	478.4991	-5.856494	7.744006E-006	-0.0047802	8
	12	77	18984.38	481.2228	-57.28485	1	484.6204	-6.788555	-1.557488E-005	0.0051107	8
	13	79	15046.87	488.3651	-67.43316	1	492.9987	-7.861655	1.242136E-005	-0.0048278	8
	14	82	11953.13	493.6669	-80.30476	1	500.1558	-9.239372	1.528851E-005	-0.0024097	8
	15	84	9515.62	504.2906	-96.1094	1	513.3673	-10.79022	-1.301912E-005	0.0066253	8
	16	86	7546.875	514.0598	-113.616	1	526.4656	-12.46299	1.171388E-005	-0.0040906	8
	17	89	5928.309	527.2491	-134.8675	1	544.225	-14.3483	6.740382E-006	0.0019687	8
	18	91	4733.456	543.5153	-155.6423	1	565.3613	-15.97972	-1.313157E-005	0.0065991	8
	19	93	3796.875	556.7989	-181.9675	1	585.7791	-18.09792	-7.77271E-006	5.901808E-005	8
	20	96	2987.132	573.7036	-210.7599	1	611.192	-20.17168	-2.437795E-006	-0.0020755	8
	21	98	2390.625	594.3753	-244.2046	1	642.5869	-22.33576	-1.52251E-005	0.0051469	8
	22	100	1884.191	616.4265	-290.3633	1	681.3901	-25.22245	-1.486234E-005	0.0040559	8
	23	103	1516.544	637.9802	-331.7516	1	719.0812	-27.47457	-9.893239E-006	0.0064903	8
	24	105	1193.986	661.4133	-392.461	1	769.0859	-30.68351	-1.145947E-005	0.0016409	8
	25	108	946.5144	684.8851	-464.5881	1	827.5928	-34.15079	1.623023E-005	-0.0033258	8
	26	110	751.7689	707.6265	-551.5894	1	897.2101	-37.93614	1.175775E-005	-0.0003227	8
	27	113	597.4265	729.8658	-657.4507	1	982.316	-42.01199	1.650079E-005	-0.0045825	8
	28	116	477.4305	753.2581	-790.7354	1	1092.09	-46.39046	-1.303473E-007	0.0006352	8
	29	118	376.6741	775.7421	-967.379	1	1239.999	-51.27385	-1.373258E-007	0.0006568	8
	30	120	298.2954	798.5559	-1188.331	1	1431.72	-56.09898	-1.008794E-007	0.0006329	8
	31	122	237.7717	822.8133	-1459.53	1	1675.484	-60.58776	-1.112078E-007	0.0006294	8
	32	125	189.0121	851.0385	-1804.771	1	1995.361	-64.75381	-1.149704E-007	0.0006338	8
	33	127	150.2404	885.1472	-2238.213	1	2406.883	-68.42267	-1.486173E-007	0.0006496	8
	34	130	119.1737	928.0315	-2787.398	1	2937.827	-71.58543	-1.404331E-007	0.0006513	8
	35	132	95.0169	980.913	-3458.102	1	3594.532	-74.16367	-1.038786E-007	0.0006282	8
	36	135	75.60484	1053.33	-4309.953	1	4436.801	-76.26643	-3.218206E-008	0.0006218	7
	37	137	54.50582	1190.477	-5894.193	1	6013.215	-78.58133	-3.18745E-008	0.0006264	7
	38	140	45.95588	1288.132	-6938.896	1	7057.447	-79.48337	-3.162052E-008	0.0006276	7
	39	142	37.20238	1439.98	-8490.61	1	8611.853	-80.37441	-3.205801E-008	0.0006294	7
	40	144	30.04808	1642.315	-10410.54	1	10539.29	-81.03519	-2.758309E-008	0.0006006	7
	41	147	23.91582	1927.454	-12933.72	1	13076.55	-81.52385	-2.927806E-008	0.0005957	7
	42	149	18.60119	2370.414	-16419.45	1	16589.67	-81.78518	-3.31243E-008	0.0006478	7
	43	151	15.02404	2856.906	-20087.07	1	20289.22	-81.90533	-2.802516E-008	0.0006184	7
	44	154	12.01923	3567.502	-24782.85	1	25038.3	-81.80852	-2.974658E-008	0.0005918	7
	45	156	9.450605	4584.367	-31047.55	1	31384.19	-81.60061	-3.219815E-008	0.0006257	7
	46	159	7.512019	5952.931	-38416.05	1	38874.55	-81.19154	-3.351827E-008	0.0006141	7
	47	161	5.978954	7797.37	-47410.9	1	48047.82	-80.66053	-4.076646E-009	0.0006463	6
	48	164	4.734848	10396.53	-58675.71	1	59589.66	-79.95226	-2.757054E-009	0.0006404	6
	49	168	3.75601	13897.38	-72241.62	1	73566.22	-79.11083	-2.596469E-009	0.0006588	6
	50	171	3.004808	18416.03	-87943.36	1	89850.91	-78.17272	-2.030383E-009	0.0006303	6
	51	175	2.372217	24975.31	-107969.5	1	110820.5	-76.97552	-3.050745E-009	0.0005718	6
	52	179	1.878005	33345.1	-131651.5	1	135808.8	-75.78686	-2.120359E-009	0.0006589	6
	53	184	1.512097	43291.96	-157147	1	163001.2	-74.59781	-2.841345E-009	0.0006594	6
	54	189	1.201923	57246.48	-189591	1	198045.2	-73.19845	-2.562748E-009	0.0006746	6
	55	195	0.956633	74562.55	-226767.2	1	238711	-71.7988	-4.277552E-009	9.848436E-006	6
