EXPLAIN
TAG	EISPOT
TITLE	LABEL	Potentiostatic EIS	Test Identifier
DATE	LABEL	9/12/2020	Date
TIME	LABEL	22:12:24	Time
NOTES	NOTES	1	Notes...
	
PSTAT	PSTAT	REF3000-16137	Potentiostat
VDC	POTEN	0.00000E+000	T	DC Voltage (V)
FREQINIT	QUANT	3.00000E+005	Initial Freq. (Hz)
FREQFINAL	QUANT	1.00000E+000	Final Freq. (Hz)
PTSPERDEC	QUANT	1.00000E+001	Points/decade
VAC	QUANT	5.00000E+001	AC Voltage (mV rms)
AREA	QUANT	1.00000E+000	Sample Area (cm^2)
SPEED	SELECTOR	2	Optimize for:
ZGUESS	QUANT	1.00000E+003	Estimated Z (ohms)
EOC	QUANT	0	Open Circuit (V)
SEQUENCER	TOGGLE	TRUE	Run as Sequence
PSTATMODEL	IQUANT	5	Pstat Model
PSTATSECTION	LABEL	REF3000-16137	Pstat Section
PSTATSERIALNO	LABEL	16137	Pstat Serial Number
CTRLMODE	IQUANT	1	Control Mode
IESTAB	IQUANT	0	I/E Stability
CASPEED	IQUANT	1	Control Amp Speed
CONVENTION	IQUANT	1	Current Convention
ICHRANGE	IQUANT	2	Ich Range
ICHRANGEMODE	TOGGLE	F	Ich Auto Range
ICHOFFSETENABLE	TOGGLE	T	Ich Offset Enable
ICHOFFSET	QUANT	0	Ich Offset (V)
ICHFILTER	IQUANT	3	Ich Filter
VCHRANGE	IQUANT	2	Vch Range
VCHRANGEMODE	TOGGLE	F	Vch Auto Range
VCHOFFSETENABLE	TOGGLE	T	Vch Offset Enable
VCHOFFSET	QUANT	0	Vch Offset (V)
VCHFILTER	IQUANT	3	Vch Filter
ACHRANGE	IQUANT	2	Ach Range
ACHOFFSETENABLE	TOGGLE	F	Ach Offset Enable
ACHOFFSET	QUANT	0	Ach Offset (V)
ACHFILTER	IQUANT	3	Ach Filter
IERANGELOWERLIMIT	IQUANT	2	I/E Range Lower Limit
IERANGEMODE	TOGGLE	F	I/E AutoRange
IERANGE	IQUANT	11	I/E Range
POSFEEDENABLE	TOGGLE	F	Positive Feedback IR Comp
POSFEEDRESISTANCE	QUANT	0	Positive Feedback Resistance (ohm)
ACHSELECT	IQUANT	0	Ach Select
CABLEID	IQUANT	13	Cable ID
DCCALDATE	LABEL	7/31/2020	DC Calibration Date
ACCALDATE	LABEL	7/31/2020	AC Calibration Date
THERMOSELECT	IQUANT	1	Thermo Select
FRAMEWORKVERSION	QUANT	6.33	Framework Version
INSTRUMENTVERSION	LABEL	3.50	Instrument Version
COMPLIANCEVOLTAGE	IQUANT	0	Compliance Voltage
ZCURVE	TABLE
	Pt	Time	Freq	Zreal	Zimag	Zsig	Zmod	Zphz	Idc	Vdc	IERange
	#	s	Hz	ohm	ohm	V	ohm	°	A	V	#
	0	10	300046.9	2.675018	2.239714	1	3.488845	39.93845	-3.684956E-005	-0.0002275	11
	1	13	238359.4	2.612409	1.799064	1	3.171957	34.55367	2.125552E-005	-0.0001705	10
	2	17	189328.1	2.679078	1.218889	1	2.943322	24.46392	-4.986877E-005	-0.0002811	12
	3	20	150421.9	2.581239	1.099183	1	2.80553	23.06603	-6.382509E-005	0.0002825	11
	4	23	119484.4	2.573661	0.8531242	1	2.711374	18.33947	-2.275428E-005	0.0004664	11
	5	27	94921.88	2.569902	0.6536123	1	2.651717	14.26969	-9.538153E-006	0.0004976	11
	6	29	75421.88	2.578209	0.4134995	1	2.611158	9.111642	-6.193978E-005	0.0005086	12
	7	33	59859.37	2.569216	0.3422722	1	2.591915	7.58829	5.862642E-006	0.0005917	11
	8	35	47578.12	2.57311	0.2206656	1	2.582555	4.901598	-2.809822E-005	0.0006222	11
	9	38	37828.12	2.576639	0.1101969	1	2.578994	2.448916	2.287728E-005	0.000648	11
	10	40	30046.88	2.582881	0.0071949	1	2.582891	0.1596044	1.725227E-005	0.0006732	11
	11	43	23859.38	2.590421	-0.0943896	1	2.59214	-2.086818	3.053019E-007	0.0006749	11
	12	45	18984.38	2.599419	-0.1980371	1	2.606952	-4.356671	2.574388E-005	0.0006985	11
	13	47	15046.87	2.610865	-0.3115209	1	2.629385	-6.804198	3.589418E-006	0.0006644	11
	14	50	11953.13	2.625711	-0.437625	1	2.661931	-9.462459	-3.069066E-005	0.0006722	11
	15	52	9515.62	2.643703	-0.5815012	1	2.706901	-12.40507	-2.635899E-005	0.000684	11
	16	54	7546.875	2.666375	-0.7535631	1	2.770814	-15.7812	-2.396536E-005	0.0006845	11
	17	57	5928.309	2.695412	-0.968749	1	2.864214	-19.76877	-3.013756E-005	0.0006639	11
	18	59	4733.456	2.730599	-1.211277	1	2.9872	-23.92177	-1.310923E-005	0.0006687	11
	19	61	3796.875	2.773883	-1.497994	1	3.152525	-28.37059	-1.531444E-005	0.0006832	11
	20	64	2987.132	2.831673	-1.880737	1	3.399344	-33.59126	-3.891104E-005	0.0006636	11
	21	66	2390.625	2.902066	-2.315083	1	3.712358	-38.58062	-3.294123E-005	0.0007202	11
	22	68	1884.191	2.99767	-2.887493	1	4.162168	-43.92749	2.068188E-005	0.0006289	10
	23	71	1516.544	3.108963	-3.524649	1	4.699872	-48.58567	6.240021E-006	0.0006204	10
	24	73	1193.986	3.265392	-4.384646	1	5.466983	-53.32372	1.99591E-005	0.0006416	10
	25	75	946.5144	3.463125	-5.413809	1	6.426707	-57.39362	2.121378E-005	0.0006486	10
	26	78	751.7689	3.722319	-6.659021	1	7.628776	-60.7953	-2.507156E-005	0.0006655	10
	27	80	597.4265	4.054546	-8.173357	1	9.123766	-63.61543	-2.536689E-005	0.000661	10
	28	82	477.4305	4.479244	-9.96673	1	10.927	-65.79991	-3.299745E-007	0.0006522	10
	29	85	376.6741	5.055021	-12.26288	1	13.26391	-67.5975	-9.70566E-007	0.0006496	10
	30	87	298.2954	5.785007	-15.00226	1	16.07899	-68.91291	-9.176449E-007	0.0006482	10
	31	89	237.7717	6.684137	-18.20159	1	19.39009	-69.83534	-8.480445E-007	0.0006463	10
	32	92	189.0121	7.821494	-22.07406	1	23.41879	-70.48925	-1.515881E-006	0.0006554	10
	33	94	150.2404	9.222697	-26.698	1	28.24609	-70.94277	-9.622278E-007	0.0006522	10
	34	97	119.1737	10.93701	-32.27355	1	34.07639	-71.27927	-4.966664E-007	0.0006593	10
	35	99	95.0169	12.92372	-38.76628	1	40.86376	-71.56288	-1.070017E-006	0.0006485	10
	36	101	75.60484	15.23771	-46.53537	1	48.96661	-71.8693	1.138192E-006	0.0001027	9
	37	104	54.50582	19.14185	-60.54117	1	63.49523	-72.45414	1.46996E-006	4.643167E-005	9
	38	106	45.95588	21.47313	-69.54256	1	72.7823	-72.84052	1.920391E-006	5.304072E-005	9
	39	109	37.20238	24.64833	-82.68094	1	86.27675	-73.39996	1.709198E-006	5.449797E-005	9
	40	111	30.04808	28.22307	-98.6767	1	102.6335	-74.03865	1.219787E-006	0.0000966	9
	41	114	23.91582	32.64694	-119.6958	1	124.0681	-74.74371	1.488941E-006	4.908792E-005	9
	42	116	18.60119	38.26958	-148.3649	1	153.2211	-75.53628	1.178576E-006	0.0001071	9
	43	118	15.02404	44.09639	-178.6059	1	183.9689	-76.13148	1.885161E-006	5.161379E-005	9
	44	121	12.01923	51.44239	-217.2191	1	223.2274	-76.67653	1.800402E-006	5.301998E-005	9
	45	123	9.450605	61.42681	-268.591	1	275.5256	-77.11799	1.48402E-006	0.0001169	9
	46	125	7.512019	73.37934	-329.4277	1	337.5013	-77.44249	2.076457E-006	7.533076E-005	9
	47	128	5.978954	89.03232	-403.6086	1	413.3118	-77.5603	2.082917E-006	5.161275E-005	9
	48	131	4.734848	109.2643	-494.8669	1	506.7859	-77.54913	1.408058E-006	0.000658	8
	49	134	3.75601	136.0944	-607.9685	1	623.0148	-77.38229	1.306503E-006	0.0006158	8
	50	138	3.004808	170.793	-740.3635	1	759.8081	-77.0098	1.364048E-006	0.0006534	8
	51	142	2.372217	221.1456	-911.9606	1	938.3909	-76.36919	1.363027E-006	0.0007084	8
	52	146	1.878005	286.7035	-1116.817	1	1153.031	-75.60223	1.331658E-006	0.0006076	8
	53	151	1.512097	369.0391	-1341.141	1	1390.988	-74.6148	1.403108E-006	0.0006788	8
	54	156	1.201923	484.9161	-1631.03	1	1701.589	-73.44244	1.369993E-006	0.0005982	8
	55	162	0.956633	638.3689	-1966.326	1	2067.354	-72.01395	1.301581E-006	-1.083614E-005	8
