EXPLAIN
TAG	EISPOT
TITLE	LABEL	Potentiostatic EIS	Test Identifier
DATE	LABEL	9/12/2020	Date
TIME	LABEL	22:57:09	Time
NOTES	NOTES	1	Notes...
	
PSTAT	PSTAT	REF3000-16137	Potentiostat
VDC	POTEN	0.00000E+000	T	DC Voltage (V)
FREQINIT	QUANT	3.00000E+005	Initial Freq. (Hz)
FREQFINAL	QUANT	1.00000E+000	Final Freq. (Hz)
PTSPERDEC	QUANT	1.00000E+001	Points/decade
VAC	QUANT	5.00000E+001	AC Voltage (mV rms)
AREA	QUANT	1.00000E+000	Sample Area (cm^2)
SPEED	SELECTOR	2	Optimize for:
ZGUESS	QUANT	1.00000E+003	Estimated Z (ohms)
EOC	QUANT	0	Open Circuit (V)
SEQUENCER	TOGGLE	TRUE	Run as Sequence
PSTATMODEL	IQUANT	5	Pstat Model
PSTATSECTION	LABEL	REF3000-16137	Pstat Section
PSTATSERIALNO	LABEL	16137	Pstat Serial Number
CTRLMODE	IQUANT	1	Control Mode
IESTAB	IQUANT	0	I/E Stability
CASPEED	IQUANT	1	Control Amp Speed
CONVENTION	IQUANT	1	Current Convention
ICHRANGE	IQUANT	2	Ich Range
ICHRANGEMODE	TOGGLE	F	Ich Auto Range
ICHOFFSETENABLE	TOGGLE	T	Ich Offset Enable
ICHOFFSET	QUANT	0	Ich Offset (V)
ICHFILTER	IQUANT	3	Ich Filter
VCHRANGE	IQUANT	2	Vch Range
VCHRANGEMODE	TOGGLE	F	Vch Auto Range
VCHOFFSETENABLE	TOGGLE	T	Vch Offset Enable
VCHOFFSET	QUANT	0	Vch Offset (V)
VCHFILTER	IQUANT	3	Vch Filter
ACHRANGE	IQUANT	2	Ach Range
ACHOFFSETENABLE	TOGGLE	F	Ach Offset Enable
ACHOFFSET	QUANT	0	Ach Offset (V)
ACHFILTER	IQUANT	3	Ach Filter
IERANGELOWERLIMIT	IQUANT	2	I/E Range Lower Limit
IERANGEMODE	TOGGLE	F	I/E AutoRange
IERANGE	IQUANT	11	I/E Range
POSFEEDENABLE	TOGGLE	F	Positive Feedback IR Comp
POSFEEDRESISTANCE	QUANT	0	Positive Feedback Resistance (ohm)
ACHSELECT	IQUANT	0	Ach Select
CABLEID	IQUANT	13	Cable ID
DCCALDATE	LABEL	7/31/2020	DC Calibration Date
ACCALDATE	LABEL	7/31/2020	AC Calibration Date
THERMOSELECT	IQUANT	1	Thermo Select
FRAMEWORKVERSION	QUANT	6.33	Framework Version
INSTRUMENTVERSION	LABEL	3.50	Instrument Version
COMPLIANCEVOLTAGE	IQUANT	0	Compliance Voltage
ZCURVE	TABLE
	Pt	Time	Freq	Zreal	Zimag	Zsig	Zmod	Zphz	Idc	Vdc	IERange
	#	s	Hz	ohm	ohm	V	ohm	°	A	V	#
	0	8	300046.9	15.33967	2.113643	1	15.48461	7.845344	-0.0001127	0.0001947	10
	1	12	238359.4	15.37621	1.656931	1	15.46522	6.150428	-6.077349E-006	0.0003768	10
	2	15	189328.1	15.41165	1.303243	1	15.46665	4.833559	7.467407E-005	0.0001825	10
	3	17	150421.9	15.44231	1.0137	1	15.47554	3.755754	-2.491244E-005	0.0005131	10
	4	20	119484.4	15.49913	0.7811376	1	15.51881	2.885197	6.569307E-005	0.0005346	10
	5	22	94921.88	15.54212	0.5991248	1	15.55366	2.207571	2.252992E-005	0.0005843	10
	6	25	75421.88	15.59472	0.4249751	1	15.60051	1.560994	-6.413831E-006	0.0006064	10
	7	27	59859.37	15.65029	0.2754477	1	15.65271	1.008311	-1.374645E-005	0.0006138	10
	8	30	47578.12	15.70687	0.1454667	1	15.70754	0.5306206	5.615665E-006	0.0005826	10
	9	32	37828.12	15.76248	0.0281126	1	15.76251	0.1021876	1.968093E-005	0.0006118	10
	10	35	30046.88	15.82237	-0.087039	1	15.82261	-0.3151813	-1.004244E-005	0.0006153	10
	11	38	23859.38	15.8813	-0.2048981	1	15.88262	-0.7391804	-2.724651E-005	0.000701	10
	12	40	18984.38	15.93657	-0.3304131	1	15.93999	-1.187744	2.360951E-005	0.0006115	10
	13	42	15046.87	15.99712	-0.4732071	1	16.00411	-1.694359	-2.658798E-005	0.0006954	10
	14	44	11953.13	16.05909	-0.6363473	1	16.07169	-2.269179	-1.5317E-005	0.0006321	10
	15	47	9515.62	16.12696	-0.8220805	1	16.1479	-2.918157	1.910754E-005	0.0005935	10
	16	49	7546.875	16.19905	-1.052618	1	16.23322	-3.717865	-3.076809E-005	0.0006499	10
	17	51	5928.309	16.27912	-1.343582	1	16.33447	-4.718159	1.29135E-005	0.0005939	10
	18	54	4733.456	16.3664	-1.676367	1	16.45203	-5.848258	1.927471E-005	0.000597	10
	19	56	3796.875	16.46241	-2.076386	1	16.59284	-7.188694	-4.694443E-006	0.0006095	10
	20	58	2987.132	16.57211	-2.608204	1	16.7761	-8.944139	-2.646297E-005	0.0006942	10
	21	61	2390.625	16.69707	-3.219837	1	17.0047	-10.91485	-1.845816E-005	0.0006379	10
	22	63	1884.191	16.84452	-4.015629	1	17.31656	-13.40869	1.256199E-005	0.0005908	10
	23	65	1516.544	17.01342	-4.925426	1	17.71204	-16.14585	-2.762303E-005	0.0006756	10
	24	68	1193.986	17.23127	-6.154898	1	18.29753	-19.65639	-1.400659E-005	0.0006889	10
	25	70	946.5144	17.48693	-7.624406	1	19.0768	-23.55749	1.973876E-005	0.0006238	10
	26	72	751.7689	17.7977	-9.428717	1	20.14098	-27.91337	-2.481906E-005	0.0007106	10
	27	75	597.4265	18.17791	-11.63865	1	21.58459	-32.62995	2.378067E-005	0.0006415	10
	28	77	477.4305	18.62605	-14.28526	1	23.47335	-37.48641	-2.210167E-006	0.0006597	10
	29	79	376.6741	19.21027	-17.7336	1	26.14412	-42.71107	-1.366484E-006	0.0006549	10
	30	82	298.2954	19.92848	-21.93765	1	29.6379	-47.74753	-1.621571E-006	0.0006578	10
	31	84	237.7717	20.80002	-26.96545	1	34.05549	-52.3549	-1.371929E-006	0.0006577	10
	32	87	189.0121	21.90882	-33.22028	1	39.79426	-56.59509	-1.434882E-006	0.0006544	10
	33	89	150.2404	23.28407	-40.86054	1	47.02905	-60.32368	1.338588E-006	5.730401E-005	9
	34	91	119.1737	25.0917	-50.38671	1	56.28866	-63.5275	1.274663E-006	5.530843E-005	9
	35	94	95.0169	27.35853	-61.79504	1	67.58044	-66.11958	1.225221E-006	5.621342E-005	9
	36	96	75.60484	30.29662	-75.85039	1	81.67721	-68.22694	1.19748E-006	5.154868E-005	9
	37	99	54.50582	35.99565	-101.4496	1	107.6462	-70.46465	7.63865E-007	0.0001035	9
	38	101	45.95588	39.90843	-117.9518	1	124.5203	-71.30699	1.382544E-006	5.685319E-005	9
	39	104	37.20238	45.84107	-141.91	1	149.1303	-72.09802	1.341356E-006	5.358963E-005	9
	40	106	30.04808	53.33515	-170.7712	1	178.9063	-72.65541	1.267111E-006	4.862544E-005	9
	41	108	23.91582	63.40883	-207.6791	1	217.1435	-73.02146	1.291614E-006	5.074407E-005	9
	42	111	18.60119	77.33105	-256.8859	1	268.2731	-73.24649	1.378951E-006	6.131361E-005	9
	43	113	15.02404	92.09934	-307.0592	1	320.5739	-73.30391	1.30497E-006	6.495999E-005	9
	44	115	12.01923	110.6552	-369.1939	1	385.4202	-73.31541	1.184486E-006	5.201697E-005	9
	45	118	9.450605	133.838	-447.5729	1	467.1553	-73.35173	5.412932E-007	0.0006418	8
	46	120	7.512019	160.3249	-539.314	1	562.64	-73.44407	6.070499E-007	0.0006496	8
	47	123	5.978954	190.7707	-648.8642	1	676.327	-73.61629	5.585607E-007	0.0006333	8
	48	126	4.734848	225.929	-784.5217	1	816.4057	-73.93449	6.31606E-007	0.0006613	8
	49	129	3.75601	265.3782	-949.1376	1	985.539	-74.37904	5.331786E-007	0.0006783	8
	50	133	3.004808	307.402	-1142.23	1	1182.871	-74.93719	6.011649E-007	0.000645	8
	51	137	2.372217	360.5889	-1394.628	1	1440.49	-75.50333	6.150063E-007	0.0006975	8
	52	141	1.878005	416.8822	-1705.567	1	1755.776	-76.26481	5.706086E-007	0.0006135	8
	53	146	1.512097	481.2088	-2054.408	1	2110.013	-76.81714	6.291887E-007	0.0006847	8
	54	151	1.201923	557.6293	-2520.313	1	2581.265	-77.52407	5.967382E-007	0.0006014	8
	55	157	0.956633	650.3552	-3087.452	1	3155.205	-78.10485	5.841275E-007	-3.141688E-006	8
