EXPLAIN
TAG	EISPOT
TITLE	LABEL	Potentiostatic EIS	Test Identifier
DATE	LABEL	9/12/2020	Date
TIME	LABEL	23:13:49	Time
NOTES	NOTES	1	Notes...
	
PSTAT	PSTAT	REF3000-16137	Potentiostat
VDC	POTEN	0.00000E+000	T	DC Voltage (V)
FREQINIT	QUANT	3.00000E+005	Initial Freq. (Hz)
FREQFINAL	QUANT	1.00000E+000	Final Freq. (Hz)
PTSPERDEC	QUANT	1.00000E+001	Points/decade
VAC	QUANT	5.00000E+001	AC Voltage (mV rms)
AREA	QUANT	1.00000E+000	Sample Area (cm^2)
SPEED	SELECTOR	2	Optimize for:
ZGUESS	QUANT	1.00000E+003	Estimated Z (ohms)
EOC	QUANT	0	Open Circuit (V)
SEQUENCER	TOGGLE	TRUE	Run as Sequence
PSTATMODEL	IQUANT	5	Pstat Model
PSTATSECTION	LABEL	REF3000-16137	Pstat Section
PSTATSERIALNO	LABEL	16137	Pstat Serial Number
CTRLMODE	IQUANT	1	Control Mode
IESTAB	IQUANT	0	I/E Stability
CASPEED	IQUANT	1	Control Amp Speed
CONVENTION	IQUANT	1	Current Convention
ICHRANGE	IQUANT	2	Ich Range
ICHRANGEMODE	TOGGLE	F	Ich Auto Range
ICHOFFSETENABLE	TOGGLE	T	Ich Offset Enable
ICHOFFSET	QUANT	0	Ich Offset (V)
ICHFILTER	IQUANT	3	Ich Filter
VCHRANGE	IQUANT	2	Vch Range
VCHRANGEMODE	TOGGLE	F	Vch Auto Range
VCHOFFSETENABLE	TOGGLE	T	Vch Offset Enable
VCHOFFSET	QUANT	0	Vch Offset (V)
VCHFILTER	IQUANT	3	Vch Filter
ACHRANGE	IQUANT	2	Ach Range
ACHOFFSETENABLE	TOGGLE	F	Ach Offset Enable
ACHOFFSET	QUANT	0	Ach Offset (V)
ACHFILTER	IQUANT	3	Ach Filter
IERANGELOWERLIMIT	IQUANT	2	I/E Range Lower Limit
IERANGEMODE	TOGGLE	F	I/E AutoRange
IERANGE	IQUANT	11	I/E Range
POSFEEDENABLE	TOGGLE	F	Positive Feedback IR Comp
POSFEEDRESISTANCE	QUANT	0	Positive Feedback Resistance (ohm)
ACHSELECT	IQUANT	0	Ach Select
CABLEID	IQUANT	13	Cable ID
DCCALDATE	LABEL	7/31/2020	DC Calibration Date
ACCALDATE	LABEL	7/31/2020	AC Calibration Date
THERMOSELECT	IQUANT	1	Thermo Select
FRAMEWORKVERSION	QUANT	6.33	Framework Version
INSTRUMENTVERSION	LABEL	3.50	Instrument Version
COMPLIANCEVOLTAGE	IQUANT	0	Compliance Voltage
ZCURVE	TABLE
	Pt	Time	Freq	Zreal	Zimag	Zsig	Zmod	Zphz	Idc	Vdc	IERange
	#	s	Hz	ohm	ohm	V	ohm	°	A	V	#
	0	7	300046.9	79.45921	1.217692	1	79.46854	0.8779743	1.060298E-005	-0.0011733	9
	1	10	238359.4	79.93638	0.9177842	1	79.94165	0.6578088	4.848859E-006	-0.0015491	9
	2	13	189328.1	80.5254	0.6688143	1	80.52818	0.4758667	5.871227E-006	-0.0014272	9
	3	16	150421.9	81.03629	0.6120642	1	81.0386	0.4327447	6.256594E-005	-0.0023348	9
	4	18	119484.4	81.45924	0.2747352	1	81.45971	0.193239	1.116185E-005	-0.0007682	9
	5	21	94921.88	81.96474	0.3775111	1	81.96561	0.2638896	2.129475E-005	-0.0006617	9
	6	23	75421.88	82.38442	0.2237343	1	82.38473	0.1555998	1.788866E-005	-0.0002205	9
	7	26	59859.37	82.83792	0.0456276	1	82.83794	0.0315588	1.134888E-005	0.0001452	9
	8	28	47578.12	83.30486	-0.0592134	1	83.30488	-0.0407261	-1.580337E-005	0.0003437	9
	9	31	37828.12	83.7658	-0.2113123	1	83.76607	-0.1445373	-1.880676E-005	0.0006088	9
	10	33	30046.88	84.25272	-0.2956115	1	84.25324	-0.2010288	-1.207757E-005	0.0007228	9
	11	36	23859.38	84.73587	-0.4488704	1	84.73706	-0.3035095	2.017609E-005	-0.0001986	9
	12	38	18984.38	85.14429	-0.5294818	1	85.14594	-0.3562973	-1.631117E-005	0.0008092	9
	13	41	15046.87	85.55153	-0.6655399	1	85.55412	-0.445718	2.235732E-005	-0.0004568	9
	14	43	11953.13	86.07708	-0.8913678	1	86.0817	-0.593303	2.367541E-006	0.0003979	9
	15	45	9515.62	86.47487	-1.068319	1	86.48147	-0.7078018	-1.943475E-005	0.0005746	9
	16	48	7546.875	86.97002	-1.323288	1	86.98009	-0.8717139	-1.234282E-005	0.0007479	9
	17	50	5928.309	87.37453	-1.687709	1	87.39082	-1.106576	-9.39955E-006	-1.144706E-005	9
	18	52	4733.456	87.87675	-2.082876	1	87.90144	-1.357784	-5.073729E-006	0.0006511	9
	19	55	3796.875	88.41389	-2.543959	1	88.45048	-1.648134	1.221072E-005	-0.0006281	9
	20	57	2987.132	88.91721	-3.167993	1	88.97363	-2.040503	-1.659248E-005	0.000788	9
	21	59	2390.625	89.41149	-3.83594	1	89.49374	-2.456602	1.812228E-005	-0.0007075	9
	22	61	1884.191	89.91476	-4.815157	1	90.04359	-3.065403	-1.234048E-005	0.000793	9
	23	64	1516.544	90.54675	-5.923577	1	90.7403	-3.742962	1.79976E-005	-0.0001166	9
	24	66	1193.986	91.18291	-7.426312	1	91.48483	-4.656128	2.676978E-006	0.0004414	9
	25	69	946.5144	91.84458	-9.22649	1	92.30685	-5.736553	-1.94428E-005	0.0006267	9
	26	71	751.7689	92.54945	-11.36894	1	93.24512	-7.003231	-1.711108E-005	0.000809	9
	27	73	597.4265	93.39593	-14.13424	1	94.45939	-8.605659	-1.733664E-005	0.0008251	9
	28	76	477.4305	94.23544	-17.42136	1	95.8323	-10.47405	1.320014E-006	6.247308E-005	9
	29	78	376.6741	95.2521	-21.71345	1	97.6956	-12.84158	1.314983E-006	5.729081E-005	9
	30	80	298.2954	96.415	-26.96008	1	100.1134	-15.62234	1.289808E-006	5.25689E-005	9
	31	83	237.7717	97.7626	-33.25431	1	103.2636	-18.78592	1.241462E-006	5.256964E-005	9
	32	85	189.0121	99.3634	-41.09565	1	107.5265	-22.46947	1.215291E-006	5.083581E-005	9
	33	87	150.2404	101.2704	-50.74916	1	113.2748	-26.61661	1.327328E-006	5.316331E-005	9
	34	90	119.1737	103.5706	-62.74243	1	121.0928	-31.20722	1.294777E-006	5.434128E-005	9
	35	92	95.0169	106.2948	-77.15473	1	131.3447	-35.97425	1.327115E-006	5.312225E-005	9
	36	95	75.60484	109.6387	-95.0039	1	145.0737	-40.9095	1.307316E-006	5.687651E-005	9
	37	97	54.50582	115.5158	-127.8596	1	172.3136	-47.9035	1.329247E-006	5.279851E-005	9
	38	100	45.95588	119.6143	-149.3001	1	191.3063	-51.29946	1.146236E-006	6.068146E-005	9
	39	102	37.20238	125.5258	-180.7966	1	220.1003	-55.22803	1.1693E-006	6.067917E-005	9
	40	104	30.04808	132.896	-219.3602	1	256.4766	-58.79107	1.281955E-006	5.280506E-005	9
	41	107	23.91582	142.7322	-269.6021	1	305.0537	-62.10244	1.298276E-006	5.252515E-005	9
	42	109	18.60119	156.4779	-338.0185	1	372.4806	-65.1593	1.129907E-006	5.90487E-005	9
	43	112	15.02404	170.8211	-407.5998	1	441.9473	-67.26192	3.405021E-007	0.0006398	8
	44	114	12.01923	190.7304	-497.2408	1	532.5659	-69.01431	2.38974E-007	0.0006265	8
	45	116	9.450605	218.3338	-615.1467	1	652.7443	-70.45872	3.16273E-007	0.0006327	8
	46	119	7.512019	251.6843	-752.4948	1	793.4692	-71.50664	2.665705E-007	0.0006536	8
	47	122	5.978954	294.4256	-917.8178	1	963.886	-72.21434	2.358928E-007	0.0006356	8
	48	125	4.734848	349.7938	-1121.894	1	1175.16	-72.68311	2.777082E-007	0.0006575	8
	49	128	3.75601	418.4953	-1366.773	1	1429.408	-72.97582	1.609485E-007	0.0006209	8
	50	131	3.004808	500.5656	-1648.945	1	1723.249	-73.11343	2.308867E-007	0.000636	8
	51	135	2.372217	611.1302	-2008.365	1	2099.288	-73.07539	2.340507E-007	0.0007046	8
	52	139	1.878005	737.5342	-2437.164	1	2546.316	-73.16314	1.980195E-007	0.000609	8
	53	144	1.512097	877.7126	-2904.698	1	3034.411	-73.18676	2.385888E-007	0.0006406	8
	54	149	1.201923	1055.138	-3514.112	1	3669.101	-73.28723	2.139971E-007	0.0005943	8
	55	156	0.956633	1260.124	-4244.379	1	4427.49	-73.46425	1.36739E-009	-3.113368E-005	7
