EXPLAIN
TAG	EISPOT
TITLE	LABEL	Potentiostatic EIS	Test Identifier
DATE	LABEL	9/12/2020	Date
TIME	LABEL	23:47:03	Time
NOTES	NOTES	1	Notes...
	
PSTAT	PSTAT	REF3000-16137	Potentiostat
VDC	POTEN	0.00000E+000	T	DC Voltage (V)
FREQINIT	QUANT	3.00000E+005	Initial Freq. (Hz)
FREQFINAL	QUANT	1.00000E+000	Final Freq. (Hz)
PTSPERDEC	QUANT	1.00000E+001	Points/decade
VAC	QUANT	5.00000E+001	AC Voltage (mV rms)
AREA	QUANT	1.00000E+000	Sample Area (cm^2)
SPEED	SELECTOR	2	Optimize for:
ZGUESS	QUANT	1.00000E+003	Estimated Z (ohms)
EOC	QUANT	0	Open Circuit (V)
SEQUENCER	TOGGLE	TRUE	Run as Sequence
PSTATMODEL	IQUANT	5	Pstat Model
PSTATSECTION	LABEL	REF3000-16137	Pstat Section
PSTATSERIALNO	LABEL	16137	Pstat Serial Number
CTRLMODE	IQUANT	1	Control Mode
IESTAB	IQUANT	0	I/E Stability
CASPEED	IQUANT	1	Control Amp Speed
CONVENTION	IQUANT	1	Current Convention
ICHRANGE	IQUANT	2	Ich Range
ICHRANGEMODE	TOGGLE	F	Ich Auto Range
ICHOFFSETENABLE	TOGGLE	T	Ich Offset Enable
ICHOFFSET	QUANT	0	Ich Offset (V)
ICHFILTER	IQUANT	3	Ich Filter
VCHRANGE	IQUANT	2	Vch Range
VCHRANGEMODE	TOGGLE	F	Vch Auto Range
VCHOFFSETENABLE	TOGGLE	T	Vch Offset Enable
VCHOFFSET	QUANT	0	Vch Offset (V)
VCHFILTER	IQUANT	3	Vch Filter
ACHRANGE	IQUANT	2	Ach Range
ACHOFFSETENABLE	TOGGLE	F	Ach Offset Enable
ACHOFFSET	QUANT	0	Ach Offset (V)
ACHFILTER	IQUANT	3	Ach Filter
IERANGELOWERLIMIT	IQUANT	2	I/E Range Lower Limit
IERANGEMODE	TOGGLE	F	I/E AutoRange
IERANGE	IQUANT	11	I/E Range
POSFEEDENABLE	TOGGLE	F	Positive Feedback IR Comp
POSFEEDRESISTANCE	QUANT	0	Positive Feedback Resistance (ohm)
ACHSELECT	IQUANT	0	Ach Select
CABLEID	IQUANT	13	Cable ID
DCCALDATE	LABEL	7/31/2020	DC Calibration Date
ACCALDATE	LABEL	7/31/2020	AC Calibration Date
THERMOSELECT	IQUANT	1	Thermo Select
FRAMEWORKVERSION	QUANT	6.33	Framework Version
INSTRUMENTVERSION	LABEL	3.50	Instrument Version
COMPLIANCEVOLTAGE	IQUANT	0	Compliance Voltage
ZCURVE	TABLE
	Pt	Time	Freq	Zreal	Zimag	Zsig	Zmod	Zphz	Idc	Vdc	IERange
	#	s	Hz	ohm	ohm	V	ohm	°	A	V	#
	0	15	300046.9	369.0444	-4066.01	1	4082.723	-84.81386	2.620274E-005	0.000915	9
	1	29	238359.4	628.2253	-5084.446	1	5123.11	-82.95633	2.83939E-005	-0.001587	9
	2	51	189328.1	608.5704	-6201.438	1	6231.228	-84.39529	-2.157573E-005	0.0010935	9
	3	59	150421.9	865.9964	-7634.915	1	7683.871	-83.52884	2.722585E-005	-0.0015084	9
	4	71	119484.4	1537.127	-9391.355	1	9516.32	-80.70455	8.273767E-005	-0.0031949	9
	5	84	94921.88	2214.151	-11709.58	1	11917.08	-79.29243	1.748291E-005	0.0001491	8
	6	93	75421.88	2984.106	-14697.75	1	14997.62	-78.52316	7.678401E-006	-0.0075793	8
	7	101	59859.37	3894.335	-18053.3	1	18468.56	-77.82707	2.227567E-005	-0.0097003	8
	8	110	47578.12	8366.135	-22727.08	1	24218.02	-69.79068	5.527682E-007	0.0158061	7
	9	117	37828.12	10503.76	-27327.99	1	29277.09	-68.97528	-3.626901E-006	0.0247109	7
	10	125	30046.88	13160.31	-33187.38	1	35701.48	-68.36941	7.365592E-006	-0.0181725	7
	11	132	23859.38	13707.65	-39924.59	1	42212.23	-71.05067	2.732947E-005	-0.0074321	8
	12	139	18984.38	20196.9	-49528.76	1	53488.43	-67.81528	-2.456639E-005	0.0110364	8
	13	146	15046.87	26539.29	-53381.3	1	59614.57	-63.56507	1.757015E-005	0.0001983	8
	14	154	11953.13	39446.64	-66918.27	1	77679.42	-59.48172	-6.366604E-006	0.0252624	7
	15	159	9515.62	49928.82	-76481.39	1	91336.14	-56.86257	6.526233E-006	-0.0262677	7
	16	166	7546.875	64673.81	-87362.71	1	108696.6	-53.48779	-5.202027E-006	0.025605	7
	17	172	5928.309	117157.3	-93902.96	1	150145.3	-38.71259	1.767631E-005	0.0001606	8
	18	180	4733.456	109386.5	-98112.2	1	146940.2	-41.88993	6.457213E-006	-0.0100925	7
	19	186	3796.875	126434.1	-109300.6	1	167129.3	-40.84297	7.489056E-006	-0.0240841	7
	20	193	2987.132	137388.6	-109287.2	1	175554.3	-38.50085	-5.183395E-006	0.0260874	7
	21	199	2390.625	185139	-122706.5	1	222111.1	-33.53565	-5.01333E-006	0.0255044	7
	22	204	1884.191	233896.9	-123091.5	1	264309	-27.75621	5.439455E-007	0.0155742	7
	23	211	1516.544	235324.5	-89614.37	1	251810.1	-20.84743	-7.309769E-007	0.0226934	6
	24	216	1193.986	227574.9	-99037.7	1	248191.1	-23.51807	3.294508E-006	-0.0237127	7
	25	223	946.5144	134762.1	21099.52	1	136403.8	8.898482	8.482364E-006	0.0039883	8
	26	229	751.7689	316886.7	-54906.4	1	321608.3	-9.82994	-1.659486E-006	0.0214011	7
	27	234	597.4265	306394.1	-68601.28	1	313980	-12.62032	4.182781E-007	0.0018791	6
	28	237	477.4305	318442.5	-52819.31	1	322793.3	-9.417773	-9.920334E-009	0.0006345	6
	29	241	376.6741	327843.8	-44662.57	1	330872	-7.757719	-1.005223E-008	0.0005956	6
	30	243	298.2954	336764.5	-37764.39	1	338875.3	-6.398354	-9.641841E-009	0.0005991	6
	31	245	237.7717	343288	-31886.68	1	344765.8	-5.306753	-1.017741E-008	0.0006171	6
	32	248	189.0121	350620.8	-26708.31	1	351636.6	-4.356057	-1.045219E-008	0.0006173	6
	33	250	150.2404	358166.1	-22882.47	1	358896.3	-3.655538	-1.071256E-008	0.0006685	6
	34	253	119.1737	370088.8	-16034.16	1	370436	-2.480798	-1.009881E-008	0.0006065	6
	35	255	95.0169	373312.8	-5763.317	1	373357.3	-0.8844796	-1.782691E-009	0.0006582	5
	36	258	75.60484	378564.6	-4493.176	1	378591.3	-0.6800106	-1.72723E-009	0.0006733	5
	37	261	54.50582	389295.6	-3816.799	1	389314.3	-0.5617311	-1.846642E-009	0.0005859	5
	38	263	45.95588	391509.4	-4044.85	1	391530.3	-0.5919259	-1.604311E-009	0.0006021	5
	39	265	37.20238	397855.4	-4188.954	1	397877.5	-0.6032355	-1.47637E-009	0.00066	5
	40	268	30.04808	404770.3	-3218.316	1	404783.1	-0.4555474	-1.491362E-009	0.0006804	5
	41	271	23.91582	411852.7	-3003.905	1	411863.7	-0.4178873	-1.685429E-009	0.0007129	5
	42	273	18.60119	418831.1	-2031.22	1	418836.1	-0.2778672	-1.542553E-009	0.0005796	5
	43	276	15.02404	425598.5	-2898.956	1	425608.3	-0.390263	-1.024671E-009	0.0006142	5
	44	278	12.01923	432924.3	-2882.641	1	432933.9	-0.3815002	-1.096228E-009	0.0006049	5
	45	281	9.450605	440386.2	-2968.617	1	440396.2	-0.3862216	-1.488241E-009	0.0006953	5
	46	283	7.512019	448342.7	-3223.052	1	448354.3	-0.4118816	-1.577173E-009	0.0007071	5
	47	286	5.978954	459254.9	-3831.83	1	459270.9	-0.4780408	-1.265098E-009	0.0005939	5
	48	291	4.734848	471361.5	-4124.305	1	471379.5	-0.5013121	-1.502134E-009	0.0006278	5
	49	294	3.75601	485985.5	-4792.593	1	486009.1	-0.5650095	-1.864485E-009	0.0006656	5
	50	300	3.004808	505491.9	-5425.013	1	505521.1	-0.614883	-2.056439E-009	0.0006049	5
	51	306	2.372217	523545.4	-6070.261	1	523580.6	-0.6642877	-1.690284E-009	0.0006998	5
	52	310	1.878005	539677.7	-7610.866	1	539731.4	-0.8079666	-2.720681E-009	0.0006192	5
	53	315	1.512097	558626.2	-9014.304	1	558698.9	-0.9244764	-2.633106E-009	0.000593	5
	54	320	1.201923	580742.3	-11214.97	1	580850.5	-1.106326	-2.253946E-009	0.0006147	5
	55	327	0.956633	606789.4	-13594.42	1	606941.6	-1.283432	-3.323139E-009	-1.74425E-006	5
