EXPLAIN
TAG	EISPOT
TITLE	LABEL	Potentiostatic EIS	Test Identifier
DATE	LABEL	9/12/2020	Date
TIME	LABEL	23:11:04	Time
NOTES	NOTES	1	Notes...
	
PSTAT	PSTAT	REF3000-16137	Potentiostat
VDC	POTEN	0.00000E+000	T	DC Voltage (V)
FREQINIT	QUANT	3.00000E+005	Initial Freq. (Hz)
FREQFINAL	QUANT	1.00000E+000	Final Freq. (Hz)
PTSPERDEC	QUANT	1.00000E+001	Points/decade
VAC	QUANT	5.00000E+001	AC Voltage (mV rms)
AREA	QUANT	1.00000E+000	Sample Area (cm^2)
SPEED	SELECTOR	2	Optimize for:
ZGUESS	QUANT	1.00000E+003	Estimated Z (ohms)
EOC	QUANT	0	Open Circuit (V)
SEQUENCER	TOGGLE	TRUE	Run as Sequence
PSTATMODEL	IQUANT	5	Pstat Model
PSTATSECTION	LABEL	REF3000-16137	Pstat Section
PSTATSERIALNO	LABEL	16137	Pstat Serial Number
CTRLMODE	IQUANT	1	Control Mode
IESTAB	IQUANT	0	I/E Stability
CASPEED	IQUANT	1	Control Amp Speed
CONVENTION	IQUANT	1	Current Convention
ICHRANGE	IQUANT	2	Ich Range
ICHRANGEMODE	TOGGLE	F	Ich Auto Range
ICHOFFSETENABLE	TOGGLE	T	Ich Offset Enable
ICHOFFSET	QUANT	0	Ich Offset (V)
ICHFILTER	IQUANT	3	Ich Filter
VCHRANGE	IQUANT	2	Vch Range
VCHRANGEMODE	TOGGLE	F	Vch Auto Range
VCHOFFSETENABLE	TOGGLE	T	Vch Offset Enable
VCHOFFSET	QUANT	0	Vch Offset (V)
VCHFILTER	IQUANT	3	Vch Filter
ACHRANGE	IQUANT	2	Ach Range
ACHOFFSETENABLE	TOGGLE	F	Ach Offset Enable
ACHOFFSET	QUANT	0	Ach Offset (V)
ACHFILTER	IQUANT	3	Ach Filter
IERANGELOWERLIMIT	IQUANT	2	I/E Range Lower Limit
IERANGEMODE	TOGGLE	F	I/E AutoRange
IERANGE	IQUANT	11	I/E Range
POSFEEDENABLE	TOGGLE	F	Positive Feedback IR Comp
POSFEEDRESISTANCE	QUANT	0	Positive Feedback Resistance (ohm)
ACHSELECT	IQUANT	0	Ach Select
CABLEID	IQUANT	13	Cable ID
DCCALDATE	LABEL	7/31/2020	DC Calibration Date
ACCALDATE	LABEL	7/31/2020	AC Calibration Date
THERMOSELECT	IQUANT	1	Thermo Select
FRAMEWORKVERSION	QUANT	6.33	Framework Version
INSTRUMENTVERSION	LABEL	3.50	Instrument Version
COMPLIANCEVOLTAGE	IQUANT	0	Compliance Voltage
ZCURVE	TABLE
	Pt	Time	Freq	Zreal	Zimag	Zsig	Zmod	Zphz	Idc	Vdc	IERange
	#	s	Hz	ohm	ohm	V	ohm	°	A	V	#
	0	7	300046.9	57.02177	2.077478	1	57.0596	2.086539	-9.349343E-007	0.0003575	9
	1	10	238359.4	57.51395	1.548733	1	57.53479	1.542485	-6.604287E-005	0.0019621	9
	2	13	189328.1	57.77221	1.217549	1	57.78504	1.20733	9.024647E-006	-0.0004928	9
	3	16	150421.9	58.14835	0.9084532	1	58.15544	0.8950607	-7.490836E-006	0.0007121	9
	4	18	119484.4	58.4515	0.6811398	1	58.45547	0.6676419	8.615633E-006	-0.0010317	9
	5	21	94921.88	58.8098	0.7054965	1	58.81403	0.687301	3.671192E-006	0.0002984	9
	6	24	75421.88	59.05862	0.470106	1	59.06049	0.4560641	-1.544625E-005	0.0003065	9
	7	26	59859.37	59.34534	0.2701429	1	59.34595	0.2608114	-1.616134E-005	0.0004136	9
	8	29	47578.12	59.64237	0.0900369	1	59.64244	0.0864944	-1.31012E-005	0.0001509	9
	9	31	37828.12	59.94893	-0.0259641	1	59.94893	-0.024815	1.80492E-005	-0.0006687	9
	10	34	30046.88	60.27737	-0.1853875	1	60.27766	-0.1762169	-1.742987E-005	0.0006186	9
	11	36	23859.38	60.56339	-0.3148797	1	60.56421	-0.2978882	1.963575E-005	-0.0002446	9
	12	38	18984.38	60.87258	-0.4487553	1	60.87423	-0.4223793	2.049974E-005	-0.0005394	9
	13	41	15046.87	61.15844	-0.5669774	1	61.16107	-0.5311528	-3.972336E-006	0.0005989	9
	14	43	11953.13	61.45198	-0.7796413	1	61.45693	-0.7268725	-3.558228E-006	-0.0001848	9
	15	45	9515.62	61.76802	-0.985327	1	61.77588	-0.9139079	2.293806E-005	-0.0005554	9
	16	48	7546.875	62.09105	-1.231753	1	62.10327	-1.136476	2.170128E-005	-0.0005108	9
	17	50	5928.309	62.41277	-1.573679	1	62.4326	-1.444353	1.054359E-005	0.0001152	9
	18	52	4733.456	62.74088	-1.962818	1	62.77158	-1.791886	-1.018152E-005	0.0006729	9
	19	55	3796.875	63.07965	-2.420563	1	63.12608	-2.19754	-1.408854E-005	0.0007272	9
	20	57	2987.132	63.40849	-3.031051	1	63.48089	-2.736768	1.073444E-005	0.0001137	9
	21	59	2390.625	63.79088	-3.734835	1	63.90012	-3.350734	1.689737E-005	-0.0001661	9
	22	62	1884.191	64.19642	-4.624933	1	64.3628	-4.120667	2.131061E-005	-0.0005261	9
	23	64	1516.544	64.60994	-5.731098	1	64.86362	-5.069043	1.997603E-005	-0.0002589	9
	24	66	1193.986	65.1007	-7.153994	1	65.4926	-6.271139	-1.742889E-005	0.000677	9
	25	69	946.5144	65.58199	-8.908263	1	66.18425	-7.735371	-1.582887E-005	0.0003583	9
	26	71	751.7689	66.14391	-11.02434	1	67.05634	-9.462619	1.060585E-005	0.0001121	9
	27	73	597.4265	66.75642	-13.67271	1	68.14223	-11.57495	-1.522501E-005	0.0007305	9
	28	76	477.4305	67.48936	-16.81161	1	69.55173	-13.98771	1.267243E-006	5.472135E-005	9
	29	78	376.6741	68.35097	-20.94315	1	71.48756	-17.03538	1.331732E-006	5.019891E-005	9
	30	80	298.2954	69.35143	-25.98087	1	74.05827	-20.53727	9.451325E-007	0.0001163	9
	31	83	237.7717	70.53806	-32.01818	1	77.46471	-24.41394	1.315059E-006	5.450608E-005	9
	32	85	189.0121	71.96795	-39.52506	1	82.10735	-28.77575	1.325538E-006	5.735922E-005	9
	33	87	150.2404	73.69385	-48.7619	1	88.36575	-33.49189	1.368405E-006	5.598852E-005	9
	34	90	119.1737	75.79891	-60.23299	1	96.8168	-38.47212	8.86121E-007	0.0001162	9
	35	92	95.0169	78.31775	-74.0228	1	107.7638	-43.38508	1.331133E-006	5.722353E-005	9
	36	95	75.60484	81.44007	-91.10719	1	122.2007	-48.2067	1.394965E-006	5.625998E-005	9
	37	97	54.50582	87.09525	-122.5618	1	150.3562	-54.60152	1.377683E-006	4.985936E-005	9
	38	100	45.95588	91.00926	-143.0761	1	169.5685	-57.53998	1.291458E-006	6.040791E-005	9
	39	102	37.20238	96.7778	-173.1832	1	198.3894	-60.80278	1.362643E-006	6.193899E-005	9
	40	104	30.04808	104.0428	-210.0028	1	234.3632	-63.64457	1.237166E-006	6.682854E-005	9
	41	107	23.91582	113.831	-257.778	1	281.7925	-66.17445	1.216465E-006	5.299404E-005	9
	42	109	18.60119	127.7707	-322.8089	1	347.1757	-68.40589	1.279699E-006	5.397052E-005	9
	43	112	15.02404	142.9358	-390.3107	1	415.6599	-69.88676	1.162832E-006	5.679606E-005	9
	44	114	12.01923	162.5775	-473.2729	1	500.4185	-71.04151	4.534751E-007	0.0006346	8
	45	116	9.450605	190.203	-584.0011	1	614.1942	-71.96012	3.737679E-007	0.0006846	8
	46	119	7.512019	224.2123	-712.4024	1	746.8523	-72.5298	4.139216E-007	0.0006376	8
	47	122	5.978954	266.0339	-866.1285	1	906.0644	-72.92551	3.611866E-007	0.0006306	8
	48	125	4.734848	320.6693	-1055.367	1	1103.009	-73.09879	3.495405E-007	0.0006553	8
	49	128	3.75601	386.9542	-1281.247	1	1338.405	-73.19496	2.781464E-007	0.0006229	8
	50	131	3.004808	464.9217	-1540.922	1	1609.532	-73.21057	2.941124E-007	0.000664	8
	51	135	2.372217	565.4796	-1872.093	1	1955.633	-73.19267	3.254262E-007	0.0007073	8
	52	139	1.878005	679.7242	-2264.695	1	2364.501	-73.29343	2.952335E-007	0.0006105	8
	53	144	1.512097	803.9497	-2695.895	1	2813.216	-73.39476	3.366946E-007	0.0006685	8
	54	149	1.201923	953.85	-3261.938	1	3398.54	-73.70013	3.10543E-007	0.0006014	8
	55	156	0.956633	1123.464	-3938.36	1	4095.467	-74.07858	2.894804E-007	-2.234706E-007	8
