EXPLAIN
TAG	EISPOT
TITLE	LABEL	Potentiostatic EIS	Test Identifier
DATE	LABEL	9/12/2020	Date
TIME	LABEL	22:54:24	Time
NOTES	NOTES	1	Notes...
	
PSTAT	PSTAT	REF3000-16137	Potentiostat
VDC	POTEN	0.00000E+000	T	DC Voltage (V)
FREQINIT	QUANT	3.00000E+005	Initial Freq. (Hz)
FREQFINAL	QUANT	1.00000E+000	Final Freq. (Hz)
PTSPERDEC	QUANT	1.00000E+001	Points/decade
VAC	QUANT	5.00000E+001	AC Voltage (mV rms)
AREA	QUANT	1.00000E+000	Sample Area (cm^2)
SPEED	SELECTOR	2	Optimize for:
ZGUESS	QUANT	1.00000E+003	Estimated Z (ohms)
EOC	QUANT	0	Open Circuit (V)
SEQUENCER	TOGGLE	TRUE	Run as Sequence
PSTATMODEL	IQUANT	5	Pstat Model
PSTATSECTION	LABEL	REF3000-16137	Pstat Section
PSTATSERIALNO	LABEL	16137	Pstat Serial Number
CTRLMODE	IQUANT	1	Control Mode
IESTAB	IQUANT	0	I/E Stability
CASPEED	IQUANT	1	Control Amp Speed
CONVENTION	IQUANT	1	Current Convention
ICHRANGE	IQUANT	2	Ich Range
ICHRANGEMODE	TOGGLE	F	Ich Auto Range
ICHOFFSETENABLE	TOGGLE	T	Ich Offset Enable
ICHOFFSET	QUANT	0	Ich Offset (V)
ICHFILTER	IQUANT	3	Ich Filter
VCHRANGE	IQUANT	2	Vch Range
VCHRANGEMODE	TOGGLE	F	Vch Auto Range
VCHOFFSETENABLE	TOGGLE	T	Vch Offset Enable
VCHOFFSET	QUANT	0	Vch Offset (V)
VCHFILTER	IQUANT	3	Vch Filter
ACHRANGE	IQUANT	2	Ach Range
ACHOFFSETENABLE	TOGGLE	F	Ach Offset Enable
ACHOFFSET	QUANT	0	Ach Offset (V)
ACHFILTER	IQUANT	3	Ach Filter
IERANGELOWERLIMIT	IQUANT	2	I/E Range Lower Limit
IERANGEMODE	TOGGLE	F	I/E AutoRange
IERANGE	IQUANT	11	I/E Range
POSFEEDENABLE	TOGGLE	F	Positive Feedback IR Comp
POSFEEDRESISTANCE	QUANT	0	Positive Feedback Resistance (ohm)
ACHSELECT	IQUANT	0	Ach Select
CABLEID	IQUANT	13	Cable ID
DCCALDATE	LABEL	7/31/2020	DC Calibration Date
ACCALDATE	LABEL	7/31/2020	AC Calibration Date
THERMOSELECT	IQUANT	1	Thermo Select
FRAMEWORKVERSION	QUANT	6.33	Framework Version
INSTRUMENTVERSION	LABEL	3.50	Instrument Version
COMPLIANCEVOLTAGE	IQUANT	0	Compliance Voltage
ZCURVE	TABLE
	Pt	Time	Freq	Zreal	Zimag	Zsig	Zmod	Zphz	Idc	Vdc	IERange
	#	s	Hz	ohm	ohm	V	ohm	°	A	V	#
	0	7	300046.9	12.55545	2.126874	1	12.73432	9.61455	1.933224E-005	0.0001305	10
	1	11	238359.4	12.54929	1.695301	1	12.66329	7.693586	7.229685E-005	-5.332024E-005	10
	2	14	189328.1	12.57525	1.332214	1	12.64562	6.047322	6.929337E-005	0.0000956	10
	3	16	150421.9	12.59641	1.038395	1	12.63914	4.71257	-1.58631E-005	0.0005356	10
	4	19	119484.4	12.6381	0.8017498	1	12.66351	3.629928	6.265398E-006	0.0005103	10
	5	21	94921.88	12.66872	0.6240523	1	12.68408	2.820072	-6.853307E-006	0.0005947	10
	6	24	75421.88	12.70669	0.4438807	1	12.71444	2.000691	-2.562012E-005	0.0006528	10
	7	26	59859.37	12.74638	0.2915077	1	12.74971	1.310117	-1.880739E-005	0.0006392	10
	8	29	47578.12	12.79044	0.1598749	1	12.79144	0.7161351	3.302917E-006	0.0005829	10
	9	32	37828.12	12.83443	0.0418827	1	12.8345	0.186973	-2.059513E-005	0.0006732	10
	10	34	30046.88	12.87867	-0.0746625	1	12.87889	-0.3321616	-1.143025E-005	0.0006212	10
	11	37	23859.38	12.92407	-0.191386	1	12.92549	-0.848402	2.419458E-005	0.0006503	10
	12	39	18984.38	12.96774	-0.314964	1	12.97157	-1.391341	2.256427E-005	0.0005959	10
	13	41	15046.87	13.01664	-0.4541815	1	13.02456	-1.998375	2.451487E-005	0.0006175	10
	14	44	11953.13	13.06812	-0.613952	1	13.08253	-2.68983	3.807192E-006	0.0006293	10
	15	46	9515.62	13.12184	-0.7978781	1	13.14608	-3.479606	7.552977E-006	0.000685	10
	16	48	7546.875	13.18054	-1.021815	1	13.22009	-4.43296	-2.459517E-005	0.0006608	10
	17	50	5928.309	13.24796	-1.306889	1	13.31226	-5.633906	-3.946095E-006	0.0006714	10
	18	53	4733.456	13.32221	-1.632949	1	13.42192	-6.988083	-2.492562E-005	0.000666	10
	19	55	3796.875	13.40484	-2.021802	1	13.55645	-8.577061	-2.853862E-005	0.0006566	10
	20	57	2987.132	13.50105	-2.540589	1	13.73801	-10.65713	-2.771448E-005	0.0006693	10
	21	60	2390.625	13.61337	-3.134252	1	13.96951	-12.96546	-2.493655E-005	0.0006888	10
	22	62	1884.191	13.74822	-3.917754	1	14.29553	-15.90567	1.196435E-005	0.0005923	10
	23	64	1516.544	13.90408	-4.797472	1	14.70847	-19.03651	-2.185868E-005	0.0006906	10
	24	67	1193.986	14.10763	-5.985094	1	15.32471	-22.98885	-2.567322E-005	0.0006674	10
	25	69	946.5144	14.35163	-7.411434	1	16.15236	-27.31263	-2.394834E-005	0.0007271	10
	26	71	751.7689	14.64521	-9.157352	1	17.2725	-32.01691	4.826936E-006	0.0005953	10
	27	74	597.4265	15.00515	-11.30247	1	18.78564	-36.98851	-4.342881E-006	0.0006138	10
	28	76	477.4305	15.43337	-13.87419	1	20.75288	-41.9547	-2.328192E-006	0.0006519	10
	29	78	376.6741	15.99812	-17.22132	1	23.50561	-47.10878	-2.130309E-006	0.0006555	10
	30	81	298.2954	16.69496	-21.29818	1	27.06168	-51.90823	-2.602493E-006	0.000659	10
	31	83	237.7717	17.55464	-26.17997	1	31.52073	-56.15669	-1.921727E-006	0.0006552	10
	32	86	189.0121	18.65282	-32.24354	1	37.25015	-59.9507	-2.367909E-006	0.0007122	10
	33	88	150.2404	20.03211	-39.64368	1	44.41742	-63.19235	1.300702E-006	5.829336E-005	9
	34	90	119.1737	21.84959	-48.85118	1	53.51488	-65.90254	8.536036E-007	0.0001131	9
	35	93	95.0169	24.13506	-59.86087	1	64.54321	-68.0414	1.252175E-006	5.675526E-005	9
	36	95	75.60484	27.10314	-73.39063	1	78.23531	-69.73083	1.269584E-006	6.240771E-005	9
	37	98	54.50582	32.86191	-97.9608	1	103.3258	-71.45546	1.260115E-006	5.372638E-005	9
	38	100	45.95588	36.79392	-113.7386	1	119.5419	-72.07384	1.366451E-006	6.754063E-005	9
	39	103	37.20238	42.75226	-136.5882	1	143.1226	-72.61982	1.404243E-006	5.223244E-005	9
	40	105	30.04808	50.23661	-164.0365	1	171.5567	-72.97266	1.239054E-006	6.057865E-005	9
	41	108	23.91582	60.11564	-198.9982	1	207.8802	-73.19089	1.350829E-006	5.400978E-005	9
	42	110	18.60119	73.67823	-245.5309	1	256.3473	-73.2967	1.562139E-006	6.385307E-005	9
	43	112	15.02404	87.83955	-292.8294	1	305.7202	-73.30242	1.417774E-006	5.979081E-005	9
	44	114	12.01923	105.294	-351.4547	1	366.8885	-73.32205	1.243191E-006	5.933508E-005	9
	45	117	9.450605	126.8503	-425.5331	1	444.0376	-73.40082	4.996851E-007	0.0006333	8
	46	119	7.512019	150.9546	-512.379	1	534.1531	-73.58424	5.275054E-007	0.0006217	8
	47	122	5.978954	177.7882	-616.9731	1	642.0782	-73.92503	5.632952E-007	0.0006389	8
	48	125	4.734848	209.282	-747.4473	1	776.1935	-74.35799	6.131046E-007	0.0006168	8
	49	128	3.75601	243.9364	-906.4951	1	938.743	-74.93858	6.049858E-007	0.0006446	8
	50	132	3.004808	281.5899	-1094.256	1	1129.907	-75.56893	6.341165E-007	0.000603	8
	51	136	2.372217	327.0359	-1339.998	1	1379.328	-76.28468	6.097794E-007	0.0005741	8
	52	140	1.878005	381.4831	-1641.428	1	1685.175	-76.9162	6.104066E-007	0.0006416	8
	53	144	1.512097	442.1779	-1983.393	1	2032.084	-77.432	5.897811E-007	0.0005467	8
	54	150	1.201923	513.5658	-2435.323	1	2488.885	-78.09183	6.13836E-007	0.0006641	8
	55	156	0.956633	601.0968	-2987.456	1	3047.329	-78.62359	5.998434E-007	-8.324359E-006	8
