EXPLAIN
TAG	EISPOT
TITLE	LABEL	Potentiostatic EIS	Test Identifier
DATE	LABEL	9/12/2020	Date
TIME	LABEL	23:41:43	Time
NOTES	NOTES	1	Notes...
	
PSTAT	PSTAT	REF3000-16137	Potentiostat
VDC	POTEN	0.00000E+000	T	DC Voltage (V)
FREQINIT	QUANT	3.00000E+005	Initial Freq. (Hz)
FREQFINAL	QUANT	1.00000E+000	Final Freq. (Hz)
PTSPERDEC	QUANT	1.00000E+001	Points/decade
VAC	QUANT	5.00000E+001	AC Voltage (mV rms)
AREA	QUANT	1.00000E+000	Sample Area (cm^2)
SPEED	SELECTOR	2	Optimize for:
ZGUESS	QUANT	1.00000E+003	Estimated Z (ohms)
EOC	QUANT	0	Open Circuit (V)
SEQUENCER	TOGGLE	TRUE	Run as Sequence
PSTATMODEL	IQUANT	5	Pstat Model
PSTATSECTION	LABEL	REF3000-16137	Pstat Section
PSTATSERIALNO	LABEL	16137	Pstat Serial Number
CTRLMODE	IQUANT	1	Control Mode
IESTAB	IQUANT	0	I/E Stability
CASPEED	IQUANT	1	Control Amp Speed
CONVENTION	IQUANT	1	Current Convention
ICHRANGE	IQUANT	2	Ich Range
ICHRANGEMODE	TOGGLE	F	Ich Auto Range
ICHOFFSETENABLE	TOGGLE	T	Ich Offset Enable
ICHOFFSET	QUANT	0	Ich Offset (V)
ICHFILTER	IQUANT	3	Ich Filter
VCHRANGE	IQUANT	2	Vch Range
VCHRANGEMODE	TOGGLE	F	Vch Auto Range
VCHOFFSETENABLE	TOGGLE	T	Vch Offset Enable
VCHOFFSET	QUANT	0	Vch Offset (V)
VCHFILTER	IQUANT	3	Vch Filter
ACHRANGE	IQUANT	2	Ach Range
ACHOFFSETENABLE	TOGGLE	F	Ach Offset Enable
ACHOFFSET	QUANT	0	Ach Offset (V)
ACHFILTER	IQUANT	3	Ach Filter
IERANGELOWERLIMIT	IQUANT	2	I/E Range Lower Limit
IERANGEMODE	TOGGLE	F	I/E AutoRange
IERANGE	IQUANT	11	I/E Range
POSFEEDENABLE	TOGGLE	F	Positive Feedback IR Comp
POSFEEDRESISTANCE	QUANT	0	Positive Feedback Resistance (ohm)
ACHSELECT	IQUANT	0	Ach Select
CABLEID	IQUANT	13	Cable ID
DCCALDATE	LABEL	7/31/2020	DC Calibration Date
ACCALDATE	LABEL	7/31/2020	AC Calibration Date
THERMOSELECT	IQUANT	1	Thermo Select
FRAMEWORKVERSION	QUANT	6.33	Framework Version
INSTRUMENTVERSION	LABEL	3.50	Instrument Version
COMPLIANCEVOLTAGE	IQUANT	0	Compliance Voltage
ZCURVE	TABLE
	Pt	Time	Freq	Zreal	Zimag	Zsig	Zmod	Zphz	Idc	Vdc	IERange
	#	s	Hz	ohm	ohm	V	ohm	°	A	V	#
	0	23	300046.9	1019.119	-3595.281	1	3736.93	-74.17407	3.06999E-005	-0.0022196	9
	1	41	238359.4	1476.647	-4348.691	1	4592.56	-71.2445	8.254559E-005	-0.0035463	9
	2	55	189328.1	1918.631	-5165.814	1	5510.606	-69.62453	2.420175E-005	0.0010905	9
	3	63	150421.9	2475.69	-6235.692	1	6709.165	-68.34597	2.093468E-005	-0.0009278	9
	4	76	119484.4	3786.594	-7063.276	1	8014.247	-61.80442	-9.215716E-005	0.0331592	8
	5	83	94921.88	4942.021	-8335.101	1	9690.07	-59.33559	-2.422902E-005	0.0109436	8
	6	92	75421.88	6560.179	-9518.32	1	11560.04	-55.42477	-1.106424E-005	0.00988	8
	7	99	59859.37	8312.632	-10615.02	1	13482.53	-51.93547	-1.92516E-005	0.011254	8
	8	107	47578.12	10703.97	-11727.43	1	15877.89	-47.61237	-2.648912E-005	0.0096418	8
	9	115	37828.12	15026.16	-11656.86	1	19017.57	-37.80328	1.216475E-006	-0.0186233	7
	10	123	30046.88	17541.72	-11847.42	1	21167.74	-34.0345	4.6539E-006	-0.0007199	7
	11	129	23859.38	20180.3	-11731.78	1	23342.65	-30.17149	3.268281E-006	-0.0227817	7
	12	133	18984.38	22760.79	-11374.57	1	25444.73	-26.55332	4.907315E-007	0.0153096	7
	13	138	15046.87	24258.98	-11624.93	1	26900.5	-25.60379	1.770652E-005	0.0001029	8
	14	144	11953.13	27054.14	-11739.14	1	29491.25	-23.45664	-2.048011E-005	0.002845	8
	15	152	9515.62	29629.54	-10482.87	1	31429.29	-19.48369	2.705851E-005	-0.0074387	8
	16	158	7546.875	31574.83	-9700.55	1	33031.36	-17.07822	-1.610178E-005	0.000727	8
	17	166	5928.309	33301.76	-7941.408	1	34235.55	-13.41271	7.459291E-006	-0.007505	8
	18	174	4733.456	38146.09	-7948.732	1	38965.46	-11.77063	-2.439789E-005	0.0110109	8
	19	180	3796.875	37870.64	-6527.582	1	38429.08	-9.77971	2.197345E-005	-0.0095868	8
	20	187	2987.132	39793.81	-5858.625	1	40222.77	-8.375179	-9.830828E-006	-0.0019918	8
	21	194	2390.625	47840.23	-1705.386	1	47870.62	-2.041588	-2.449583E-005	0.0111018	8
	22	201	1884.191	42995.25	-5095.456	1	43296.13	-6.758716	-1.567155E-006	-0.0049607	8
	23	208	1516.544	43790.1	-3722.153	1	43948.01	-4.858456	7.209334E-006	-0.0176046	7
	24	213	1193.986	46376.04	-3244.698	1	46489.4	-4.002176	-6.245966E-006	0.0247285	7
	25	219	946.5144	49364.24	6879.328	1	49841.28	7.93356	1.587499E-005	-0.0091761	8
	26	224	751.7689	47510.69	-1539.235	1	47535.61	-1.855601	7.25274E-006	-0.0178009	7
	27	228	597.4265	51246.68	-2480.112	1	51306.66	-2.7707	-1.758972E-006	0.0212743	7
	28	231	477.4305	50505.87	-1538.314	1	50529.29	-1.744582	-9.623859E-008	0.0006475	7
	29	234	376.6741	51277.94	-692.0042	1	51282.61	-0.773169	-1.411816E-008	0.0006878	6
	30	236	298.2954	51931.13	-587.057	1	51934.45	-0.6476743	-1.471058E-008	0.0006943	6
	31	238	237.7717	52612.49	-534.4896	1	52615.2	-0.5820471	-1.34546E-008	0.000689	6
	32	241	189.0121	53315.76	-480.4832	1	53317.92	-0.5163373	-1.23192E-008	0.0006073	6
	33	243	150.2404	54023.77	-442.4094	1	54025.59	-0.4691938	-1.334825E-008	0.000662	6
	34	246	119.1737	54626.54	-506.9624	1	54628.89	-0.531719	-1.212691E-008	0.0006498	6
	35	248	95.0169	55458.11	-387.8685	1	55459.46	-0.4007145	-1.141666E-008	0.0006135	6
	36	250	75.60484	56212.91	-403.1588	1	56214.36	-0.410918	-1.109023E-008	0.0006052	6
	37	253	54.50582	56998.12	-342.9319	1	56999.15	-0.3447187	-1.166395E-008	0.0005948	6
	38	256	45.95588	57757.26	-463.5415	1	57759.12	-0.4598279	-1.44631E-008	0.0006051	6
	39	258	37.20238	58459.03	-483.9429	1	58461.03	-0.4743023	-1.589547E-008	0.0006457	6
	40	260	30.04808	59270.2	-560.54	1	59272.85	-0.541851	-9.084077E-009	0.0006146	6
	41	263	23.91582	60023.79	-605.915	1	60026.85	-0.5783572	-1.848885E-008	0.0005917	6
	42	265	18.60119	60849.06	-749.8129	1	60853.68	-0.7059919	-9.531317E-009	0.0006745	6
	43	267	15.02404	61592.84	-897.2654	1	61599.38	-0.8346081	-2.22438E-008	0.0006022	6
	44	270	12.01923	62402.81	-1059.644	1	62411.8	-0.97283	-5.012971E-009	0.0006916	6
	45	272	9.450605	63249.22	-1316.12	1	63262.91	-1.192065	-8.172596E-010	0.0005893	6
	46	275	7.512019	64190.68	-1622.859	1	64211.19	-1.448235	-1.244128E-009	0.0007014	6
	47	277	5.978954	65249.93	-1955.715	1	65279.23	-1.716794	-1.008598E-008	0.0006341	6
	48	280	4.734848	66462.42	-2436.385	1	66507.06	-2.099413	-7.740946E-010	0.0006655	6
	49	283	3.75601	67804.44	-3051.042	1	67873.05	-2.576439	-3.071758E-008	0.0007211	6
	50	287	3.004808	69201.04	-3633.058	1	69296.34	-3.005272	-8.189818E-009	0.0005848	6
	51	291	2.372217	70957.71	-4452.622	1	71097.27	-3.590623	-2.504796E-008	0.0006463	6
	52	295	1.878005	72866.77	-5485.223	1	73072.93	-4.30496	-2.370259E-008	0.0006461	6
	53	300	1.512097	75009.7	-6681.604	1	75306.7	-5.090274	-1.600371E-008	0.0005555	6
	54	305	1.201923	77805.69	-8398.989	1	78257.7	-6.161123	-2.268462E-008	0.0006498	6
	55	311	0.956633	80928.9	-10339.52	1	81586.72	-7.280696	-2.645801E-008	6.421418E-006	6
