EXPLAIN
TAG	EISPOT
TITLE	LABEL	Potentiostatic EIS	Test Identifier
DATE	LABEL	9/12/2020	Date
TIME	LABEL	22:37:42	Time
NOTES	NOTES	1	Notes...
	
PSTAT	PSTAT	REF3000-16137	Potentiostat
VDC	POTEN	0.00000E+000	T	DC Voltage (V)
FREQINIT	QUANT	3.00000E+005	Initial Freq. (Hz)
FREQFINAL	QUANT	1.00000E+000	Final Freq. (Hz)
PTSPERDEC	QUANT	1.00000E+001	Points/decade
VAC	QUANT	5.00000E+001	AC Voltage (mV rms)
AREA	QUANT	1.00000E+000	Sample Area (cm^2)
SPEED	SELECTOR	2	Optimize for:
ZGUESS	QUANT	1.00000E+003	Estimated Z (ohms)
EOC	QUANT	0	Open Circuit (V)
SEQUENCER	TOGGLE	TRUE	Run as Sequence
PSTATMODEL	IQUANT	5	Pstat Model
PSTATSECTION	LABEL	REF3000-16137	Pstat Section
PSTATSERIALNO	LABEL	16137	Pstat Serial Number
CTRLMODE	IQUANT	1	Control Mode
IESTAB	IQUANT	0	I/E Stability
CASPEED	IQUANT	1	Control Amp Speed
CONVENTION	IQUANT	1	Current Convention
ICHRANGE	IQUANT	2	Ich Range
ICHRANGEMODE	TOGGLE	F	Ich Auto Range
ICHOFFSETENABLE	TOGGLE	T	Ich Offset Enable
ICHOFFSET	QUANT	0	Ich Offset (V)
ICHFILTER	IQUANT	3	Ich Filter
VCHRANGE	IQUANT	2	Vch Range
VCHRANGEMODE	TOGGLE	F	Vch Auto Range
VCHOFFSETENABLE	TOGGLE	T	Vch Offset Enable
VCHOFFSET	QUANT	0	Vch Offset (V)
VCHFILTER	IQUANT	3	Vch Filter
ACHRANGE	IQUANT	2	Ach Range
ACHOFFSETENABLE	TOGGLE	F	Ach Offset Enable
ACHOFFSET	QUANT	0	Ach Offset (V)
ACHFILTER	IQUANT	3	Ach Filter
IERANGELOWERLIMIT	IQUANT	2	I/E Range Lower Limit
IERANGEMODE	TOGGLE	F	I/E AutoRange
IERANGE	IQUANT	11	I/E Range
POSFEEDENABLE	TOGGLE	F	Positive Feedback IR Comp
POSFEEDRESISTANCE	QUANT	0	Positive Feedback Resistance (ohm)
ACHSELECT	IQUANT	0	Ach Select
CABLEID	IQUANT	13	Cable ID
DCCALDATE	LABEL	7/31/2020	DC Calibration Date
ACCALDATE	LABEL	7/31/2020	AC Calibration Date
THERMOSELECT	IQUANT	1	Thermo Select
FRAMEWORKVERSION	QUANT	6.33	Framework Version
INSTRUMENTVERSION	LABEL	3.50	Instrument Version
COMPLIANCEVOLTAGE	IQUANT	0	Compliance Voltage
ZCURVE	TABLE
	Pt	Time	Freq	Zreal	Zimag	Zsig	Zmod	Zphz	Idc	Vdc	IERange
	#	s	Hz	ohm	ohm	V	ohm	°	A	V	#
	0	11	300046.9	5.120965	2.229176	1	5.585114	23.52368	5.695914E-005	3.228494E-005	10
	1	14	238359.4	5.097252	1.780157	1	5.399161	19.25117	3.768473E-005	-0.0001344	10
	2	17	189328.1	5.093944	1.406195	1	5.284472	15.43229	8.811397E-006	5.044498E-005	10
	3	19	150421.9	5.089662	1.108359	1	5.208946	12.28532	-1.98345E-005	0.0003472	10
	4	22	119484.4	5.087025	0.8511294	1	5.157737	9.498393	-4.067554E-006	0.0003495	10
	5	25	94921.88	5.092477	0.6661054	1	5.135856	7.452086	-1.010436E-005	0.0005309	10
	6	27	75421.88	5.095372	0.488848	1	5.118768	5.480161	-3.103723E-006	0.0005024	10
	7	30	59859.37	5.103491	0.3373726	1	5.11463	3.782106	1.893352E-005	0.0005177	10
	8	32	47578.12	5.113238	0.2054692	1	5.117365	2.301122	1.761647E-005	0.0005583	10
	9	35	37828.12	5.126774	0.0872578	1	5.127516	0.975081	-1.961212E-005	0.0006801	10
	10	37	30046.88	5.140483	-0.0256185	1	5.140547	-0.2855407	-2.889145E-005	0.0006649	10
	11	40	23859.38	5.15512	-0.1372607	1	5.156947	-1.525203	1.730631E-005	0.0006056	10
	12	42	18984.38	5.172561	-0.2517686	1	5.178684	-2.786609	-1.803222E-005	0.0006652	10
	13	44	15046.87	5.19085	-0.3802262	1	5.204757	-4.189394	-1.417391E-005	0.0006186	10
	14	47	11953.13	5.211953	-0.5231543	1	5.238143	-5.731914	2.099743E-005	0.0006094	10
	15	49	9515.62	5.237537	-0.6890858	1	5.282673	-7.495171	-2.759082E-005	0.0006396	10
	16	51	7546.875	5.267118	-0.8879643	1	5.341444	-9.56931	1.207623E-005	0.0006229	10
	17	54	5928.309	5.305196	-1.139453	1	5.426183	-12.12186	5.270587E-006	0.0006468	10
	18	56	4733.456	5.349297	-1.425079	1	5.535868	-14.91742	-2.088747E-005	0.0006792	10
	19	58	3796.875	5.401206	-1.764021	1	5.681972	-18.08691	-1.487387E-005	0.0006261	10
	20	60	2987.132	5.469924	-2.213923	1	5.900977	-22.03538	1.601423E-005	0.0006129	10
	21	63	2390.625	5.550274	-2.726558	1	6.183822	-26.16246	1.974048E-005	0.0006181	10
	22	65	1884.191	5.655252	-3.403494	1	6.600428	-31.04074	-2.705341E-005	0.0006683	10
	23	67	1516.544	5.774225	-4.159014	1	7.116114	-35.76416	-4.842709E-006	0.0006628	10
	24	70	1193.986	5.93784	-5.17927	1	7.879262	-41.0965	3.853117E-006	0.000611	10
	25	72	946.5144	6.135213	-6.411753	1	8.8742	-46.26262	9.558406E-006	0.0006676	10
	26	75	751.7689	6.388644	-7.909044	1	10.16699	-51.06995	3.860891E-006	0.0006153	10
	27	77	597.4265	6.705774	-9.75845	1	11.84039	-55.50409	-2.570839E-005	0.0006776	10
	28	79	477.4305	7.104257	-11.95994	1	13.91081	-59.2895	-1.573824E-006	0.000658	10
	29	82	376.6741	7.646991	-14.82134	1	16.67778	-62.70876	-2.209203E-006	0.0006503	10
	30	84	298.2954	8.342078	-18.28912	1	20.1018	-65.48121	-1.845561E-006	0.0006489	10
	31	86	237.7717	9.219742	-22.4047	1	24.22755	-67.63239	-1.503741E-006	0.0006533	10
	32	89	189.0121	10.36677	-27.47705	1	29.36764	-69.32909	-1.774976E-006	0.000653	10
	33	91	150.2404	11.84433	-33.62761	1	35.65255	-70.59669	-2.227969E-006	0.0006494	10
	34	93	119.1737	13.74094	-41.09717	1	43.33348	-71.51252	1.295854E-006	4.779888E-005	9
	35	96	95.0169	16.11576	-49.94004	1	52.47595	-72.115	1.233874E-006	4.953406E-005	9
	36	98	75.60484	19.1254	-60.64319	1	63.58756	-72.49598	1.144984E-006	5.52284E-005	9
	37	101	54.50582	24.72055	-79.71024	1	83.45555	-72.76976	1.161295E-006	4.956624E-005	9
	38	103	45.95588	28.328	-91.75777	1	96.0311	-72.84319	1.276226E-006	6.146247E-005	9
	39	106	37.20238	33.50502	-109.0372	1	114.0688	-72.91882	1.267532E-006	5.94586E-005	9
	40	108	30.04808	39.62074	-129.7058	1	135.6222	-73.01385	1.250902E-006	5.821522E-005	9
	41	111	23.91582	46.99845	-155.8619	1	162.7937	-73.21989	1.127877E-006	5.32127E-005	9
	42	113	18.60119	56.37493	-191.0949	1	199.237	-73.56341	9.742968E-007	0.0001057	9
	43	115	15.02404	65.2907	-227.5181	1	236.701	-73.98814	1.381816E-006	5.945229E-005	9
	44	117	12.01923	75.69464	-273.7375	1	284.0104	-74.54267	1.389248E-006	5.764234E-005	9
	45	120	9.450605	88.35262	-334.926	1	346.3836	-75.22218	1.320555E-006	6.039583E-005	9
	46	122	7.512019	102.3159	-407.5797	1	420.2258	-75.90807	1.377997E-006	4.546124E-005	9
	47	125	5.978954	117.7167	-494.289	1	508.113	-76.60434	6.249141E-007	0.0006288	8
	48	128	4.734848	137.5372	-606.444	1	621.8447	-77.22188	6.784851E-007	0.0006151	8
	49	131	3.75601	160.9016	-744.4521	1	761.6418	-77.80402	6.517539E-007	0.000638	8
	50	135	3.004808	188.1852	-907.7001	1	927.0023	-78.28732	7.11281E-007	0.000603	8
	51	139	2.372217	223.8136	-1120.766	1	1142.895	-78.70676	6.888919E-007	0.0005817	8
	52	143	1.878005	270.2389	-1383.012	1	1409.167	-78.94378	6.535909E-007	0.0006353	8
	53	147	1.512097	323.2914	-1681.183	1	1711.986	-79.11491	6.619457E-007	0.0005222	8
	54	153	1.201923	392.3087	-2070.786	1	2107.62	-79.2725	6.594353E-007	0.0006464	8
	55	159	0.956633	480.0677	-2545.479	1	2590.353	-79.31968	6.633301E-007	-6.962637E-006	8
