EXPLAIN
TAG	EISPOT
TITLE	LABEL	Potentiostatic EIS	Test Identifier
DATE	LABEL	9/12/2020	Date
TIME	LABEL	23:22:05	Time
NOTES	NOTES	1	Notes...
	
PSTAT	PSTAT	REF3000-16137	Potentiostat
VDC	POTEN	0.00000E+000	T	DC Voltage (V)
FREQINIT	QUANT	3.00000E+005	Initial Freq. (Hz)
FREQFINAL	QUANT	1.00000E+000	Final Freq. (Hz)
PTSPERDEC	QUANT	1.00000E+001	Points/decade
VAC	QUANT	5.00000E+001	AC Voltage (mV rms)
AREA	QUANT	1.00000E+000	Sample Area (cm^2)
SPEED	SELECTOR	2	Optimize for:
ZGUESS	QUANT	1.00000E+003	Estimated Z (ohms)
EOC	QUANT	0	Open Circuit (V)
SEQUENCER	TOGGLE	TRUE	Run as Sequence
PSTATMODEL	IQUANT	5	Pstat Model
PSTATSECTION	LABEL	REF3000-16137	Pstat Section
PSTATSERIALNO	LABEL	16137	Pstat Serial Number
CTRLMODE	IQUANT	1	Control Mode
IESTAB	IQUANT	0	I/E Stability
CASPEED	IQUANT	1	Control Amp Speed
CONVENTION	IQUANT	1	Current Convention
ICHRANGE	IQUANT	2	Ich Range
ICHRANGEMODE	TOGGLE	F	Ich Auto Range
ICHOFFSETENABLE	TOGGLE	T	Ich Offset Enable
ICHOFFSET	QUANT	0	Ich Offset (V)
ICHFILTER	IQUANT	3	Ich Filter
VCHRANGE	IQUANT	2	Vch Range
VCHRANGEMODE	TOGGLE	F	Vch Auto Range
VCHOFFSETENABLE	TOGGLE	T	Vch Offset Enable
VCHOFFSET	QUANT	0	Vch Offset (V)
VCHFILTER	IQUANT	3	Vch Filter
ACHRANGE	IQUANT	2	Ach Range
ACHOFFSETENABLE	TOGGLE	F	Ach Offset Enable
ACHOFFSET	QUANT	0	Ach Offset (V)
ACHFILTER	IQUANT	3	Ach Filter
IERANGELOWERLIMIT	IQUANT	2	I/E Range Lower Limit
IERANGEMODE	TOGGLE	F	I/E AutoRange
IERANGE	IQUANT	11	I/E Range
POSFEEDENABLE	TOGGLE	F	Positive Feedback IR Comp
POSFEEDRESISTANCE	QUANT	0	Positive Feedback Resistance (ohm)
ACHSELECT	IQUANT	0	Ach Select
CABLEID	IQUANT	13	Cable ID
DCCALDATE	LABEL	7/31/2020	DC Calibration Date
ACCALDATE	LABEL	7/31/2020	AC Calibration Date
THERMOSELECT	IQUANT	1	Thermo Select
FRAMEWORKVERSION	QUANT	6.33	Framework Version
INSTRUMENTVERSION	LABEL	3.50	Instrument Version
COMPLIANCEVOLTAGE	IQUANT	0	Compliance Voltage
ZCURVE	TABLE
	Pt	Time	Freq	Zreal	Zimag	Zsig	Zmod	Zphz	Idc	Vdc	IERange
	#	s	Hz	ohm	ohm	V	ohm	°	A	V	#
	0	11	300046.9	255.0646	-15.65745	1	255.5448	-3.512762	8.303439E-005	-0.0032497	9
	1	15	238359.4	260.576	-14.74417	1	260.9928	-3.238513	7.933336E-006	0.0011678	9
	2	23	189328.1	265.9316	-11.3153	1	266.1722	-2.436447	6.324213E-006	0.0012668	9
	3	28	150421.9	270.4963	-9.69128	1	270.6698	-2.051903	7.656158E-005	-0.0029186	9
	4	34	119484.4	274.0261	-8.739306	1	274.1654	-1.826672	1.88383E-005	-0.0003518	9
	5	38	94921.88	277.3228	-7.170213	1	277.4155	-1.481059	2.692055E-005	-0.0004646	9
	6	42	75421.88	279.7246	-6.114883	1	279.7914	-1.252307	2.209017E-005	-0.0008841	9
	7	45	59859.37	282.6593	-5.090777	1	282.7052	-1.031802	2.818832E-006	-0.0005606	9
	8	49	47578.12	285.6102	-4.373145	1	285.6436	-0.8772208	-2.384252E-005	0.0006511	9
	9	52	37828.12	289.2836	-3.84833	1	289.3092	-0.7621588	-1.905384E-005	0.0003308	9
	10	56	30046.88	291.3494	-3.305068	1	291.3682	-0.6499354	-2.136458E-005	0.0004161	9
	11	59	23859.38	293.4041	-3.028877	1	293.4197	-0.5914565	1.521371E-006	0.0005759	9
	12	61	18984.38	295.1358	-2.595318	1	295.1472	-0.5038255	-1.747834E-005	0.000304	9
	13	63	15046.87	296.7502	-1.503566	1	296.754	-0.2903022	-1.869936E-005	0.0003362	9
	14	66	11953.13	298.6718	-2.041217	1	298.6788	-0.3915714	-2.197206E-005	0.0004767	9
	15	68	9515.62	301.1935	-2.323625	1	301.2025	-0.4420125	-2.538425E-006	-0.0004124	9
	16	70	7546.875	303.3269	-2.37635	1	303.3362	-0.4488624	3.03316E-005	-0.000594	9
	17	73	5928.309	304.7737	-2.493928	1	304.7838	-0.4688343	-1.725405E-005	0.0010139	9
	18	75	4733.456	306.8574	-2.65062	1	306.8689	-0.4949059	6.957266E-007	0.0006437	9
	19	78	3796.875	309.3337	-3.340256	1	309.3517	-0.6186689	2.299573E-005	-0.0008933	9
	20	80	2987.132	311.3437	-4.256086	1	311.3728	-0.7831877	-2.20039E-005	0.0009907	9
	21	82	2390.625	313.4599	-4.634558	1	313.4942	-0.8470661	1.672757E-005	-0.0008358	9
	22	85	1884.191	316.3311	-5.875893	1	316.3857	-1.064155	-9.330405E-006	-0.0001177	9
	23	87	1516.544	317.343	-6.962757	1	317.4194	-1.256913	-9.49457E-006	0.000909	9
	24	89	1193.986	319.7243	-8.946476	1	319.8494	-1.602823	2.010598E-005	-5.821027E-005	9
	25	92	946.5144	322.2335	-10.33697	1	322.3993	-1.837369	2.765224E-005	-0.0006827	9
	26	94	751.7689	324.7036	-13.175	1	324.9708	-2.323529	-2.421459E-005	0.0006852	9
	27	96	597.4265	327.6838	-16.31226	1	328.0896	-2.849859	-9.503269E-006	0.0009103	9
	28	99	477.4305	329.8825	-19.84305	1	330.4787	-3.442301	1.074473E-006	6.503359E-005	9
	29	101	376.6741	332.552	-24.68938	1	333.4672	-4.245974	9.775451E-007	5.398329E-005	9
	30	103	298.2954	335.3927	-30.64725	1	336.79	-5.221029	1.108819E-006	5.581522E-005	9
	31	106	237.7717	338.5074	-37.82367	1	340.614	-6.37559	1.16612E-006	5.451159E-005	9
	32	108	189.0121	341.8521	-46.81617	1	345.043	-7.798067	1.137796E-006	6.016187E-005	9
	33	111	150.2404	345.513	-57.94308	1	350.3379	-9.52001	1.096251E-006	6.485579E-005	9
	34	113	119.1737	348.0846	-71.53813	1	355.3598	-11.61368	-5.168741E-008	0.0006297	8
	35	115	95.0169	352.6232	-88.2507	1	363.4987	-14.05076	-1.34272E-007	0.0006908	8
	36	118	75.60484	357.9391	-109.041	1	374.1796	-16.9426	-7.017364E-008	0.0006256	8
	37	121	54.50582	365.9077	-147.3998	1	394.4808	-21.94122	-7.354002E-008	0.0006249	8
	38	123	45.95588	371.9839	-172.4598	1	410.0176	-24.87346	-5.625275E-008	0.0006255	8
	39	125	37.20238	379.8348	-209.2699	1	433.6685	-28.85256	-8.75426E-008	0.000633	8
	40	128	30.04808	389.2587	-254.3715	1	465.0023	-33.16368	-5.73627E-008	0.0006416	8
	41	130	23.91582	401.0078	-313.1246	1	508.7773	-37.98429	-9.394508E-008	0.000638	8
	42	133	18.60119	416.4196	-393.4372	1	572.8857	-43.37448	-1.100212E-007	0.0006466	8
	43	135	15.02404	432.8591	-477.3647	1	644.3943	-47.79926	1.617964E-008	0.000635	8
	44	137	12.01923	453.6344	-584.3736	1	739.7815	-52.17872	-1.422061E-007	0.000638	8
	45	140	9.450605	481.3412	-726.3477	1	871.3611	-56.46808	-1.817273E-008	0.0006278	8
	46	142	7.512019	514.981	-893.7957	1	1031.541	-60.05061	-4.919771E-008	0.0006409	8
	47	145	5.978954	557.0307	-1097.093	1	1230.405	-63.08158	-1.577448E-008	0.0006245	8
	48	148	4.734848	611.7141	-1352.598	1	1484.491	-65.66507	-1.065474E-007	0.0006163	8
	49	151	3.75601	681.6919	-1663.612	1	1797.862	-67.71784	-8.690455E-008	0.0007074	8
	50	155	3.004808	766.9994	-2027.661	1	2167.878	-69.27997	-7.074992E-008	0.0006331	8
	51	159	2.372217	885.3388	-2499.735	1	2651.886	-70.49723	-9.352956E-008	0.0005511	8
	52	163	1.878005	1029.345	-3068.266	1	3236.326	-71.45437	-5.672495E-008	0.0006399	8
	53	167	1.512097	1200.708	-3696.439	1	3886.562	-72.00474	-7.728407E-008	0.0005822	8
	54	173	1.201923	1431.658	-4528.433	1	4749.352	-72.45572	-1.548377E-008	0.0006329	7
	55	179	0.956633	1713.863	-5508.104	1	5768.582	-72.71632	-4.52435E-008	2.451495E-005	7
