EXPLAIN
TAG	EISPOT
TITLE	LABEL	Potentiostatic EIS	Test Identifier
DATE	LABEL	9/12/2020	Date
TIME	LABEL	22:34:54	Time
NOTES	NOTES	1	Notes...
	
PSTAT	PSTAT	REF3000-16137	Potentiostat
VDC	POTEN	0.00000E+000	T	DC Voltage (V)
FREQINIT	QUANT	3.00000E+005	Initial Freq. (Hz)
FREQFINAL	QUANT	1.00000E+000	Final Freq. (Hz)
PTSPERDEC	QUANT	1.00000E+001	Points/decade
VAC	QUANT	5.00000E+001	AC Voltage (mV rms)
AREA	QUANT	1.00000E+000	Sample Area (cm^2)
SPEED	SELECTOR	2	Optimize for:
ZGUESS	QUANT	1.00000E+003	Estimated Z (ohms)
EOC	QUANT	0	Open Circuit (V)
SEQUENCER	TOGGLE	TRUE	Run as Sequence
PSTATMODEL	IQUANT	5	Pstat Model
PSTATSECTION	LABEL	REF3000-16137	Pstat Section
PSTATSERIALNO	LABEL	16137	Pstat Serial Number
CTRLMODE	IQUANT	1	Control Mode
IESTAB	IQUANT	0	I/E Stability
CASPEED	IQUANT	1	Control Amp Speed
CONVENTION	IQUANT	1	Current Convention
ICHRANGE	IQUANT	2	Ich Range
ICHRANGEMODE	TOGGLE	F	Ich Auto Range
ICHOFFSETENABLE	TOGGLE	T	Ich Offset Enable
ICHOFFSET	QUANT	0	Ich Offset (V)
ICHFILTER	IQUANT	3	Ich Filter
VCHRANGE	IQUANT	2	Vch Range
VCHRANGEMODE	TOGGLE	F	Vch Auto Range
VCHOFFSETENABLE	TOGGLE	T	Vch Offset Enable
VCHOFFSET	QUANT	0	Vch Offset (V)
VCHFILTER	IQUANT	3	Vch Filter
ACHRANGE	IQUANT	2	Ach Range
ACHOFFSETENABLE	TOGGLE	F	Ach Offset Enable
ACHOFFSET	QUANT	0	Ach Offset (V)
ACHFILTER	IQUANT	3	Ach Filter
IERANGELOWERLIMIT	IQUANT	2	I/E Range Lower Limit
IERANGEMODE	TOGGLE	F	I/E AutoRange
IERANGE	IQUANT	11	I/E Range
POSFEEDENABLE	TOGGLE	F	Positive Feedback IR Comp
POSFEEDRESISTANCE	QUANT	0	Positive Feedback Resistance (ohm)
ACHSELECT	IQUANT	0	Ach Select
CABLEID	IQUANT	13	Cable ID
DCCALDATE	LABEL	7/31/2020	DC Calibration Date
ACCALDATE	LABEL	7/31/2020	AC Calibration Date
THERMOSELECT	IQUANT	1	Thermo Select
FRAMEWORKVERSION	QUANT	6.33	Framework Version
INSTRUMENTVERSION	LABEL	3.50	Instrument Version
COMPLIANCEVOLTAGE	IQUANT	0	Compliance Voltage
ZCURVE	TABLE
	Pt	Time	Freq	Zreal	Zimag	Zsig	Zmod	Zphz	Idc	Vdc	IERange
	#	s	Hz	ohm	ohm	V	ohm	°	A	V	#
	0	10	300046.9	4.605762	2.262316	1	5.131385	26.15992	-0.0001165	1.29779E-005	10
	1	13	238359.4	4.588162	1.788181	1	4.92431	21.29275	-8.701688E-005	-0.0002368	10
	2	16	189328.1	4.573076	1.407709	1	4.784837	17.1097	1.488162E-005	9.003932E-006	10
	3	19	150421.9	4.562921	1.111268	1	4.696292	13.68752	5.692106E-005	0.0002237	10
	4	21	119484.4	4.565029	0.8545821	1	4.64433	10.60316	-3.425577E-006	0.0003174	10
	5	24	94921.88	4.567222	0.6673532	1	4.615721	8.313113	-1.848063E-005	0.000508	10
	6	26	75421.88	4.571601	0.4910327	1	4.597897	6.130598	-1.468162E-005	0.0005352	10
	7	29	59859.37	4.577266	0.3409233	1	4.589944	4.259632	2.757476E-006	0.0005761	10
	8	31	47578.12	4.584208	0.210158	1	4.589023	2.624825	-7.678779E-006	0.000569	10
	9	34	37828.12	4.596085	0.0921029	1	4.597008	1.148021	-2.235491E-005	0.0006348	10
	10	36	30046.88	4.607707	-0.0201402	1	4.607751	-0.2504372	3.156339E-006	0.0005704	10
	11	39	23859.38	4.621018	-0.1305754	1	4.622862	-1.618567	1.086702E-005	0.0005851	10
	12	41	18984.38	4.636069	-0.244318	1	4.642502	-3.016662	-2.713537E-005	0.0006318	10
	13	43	15046.87	4.653811	-0.3698432	1	4.668483	-4.543807	-1.837908E-005	0.0006901	10
	14	46	11953.13	4.672937	-0.5120216	1	4.700905	-6.25305	-7.13625E-006	0.0006094	10
	15	48	9515.62	4.695815	-0.6740966	1	4.743952	-8.16915	2.177316E-005	0.0006232	10
	16	50	7546.875	4.725115	-0.8705003	1	4.804631	-10.43847	-1.40255E-005	0.0006269	10
	17	53	5928.309	4.761395	-1.116918	1	4.890643	-13.20164	-2.106008E-005	0.0006759	10
	18	55	4733.456	4.803006	-1.39651	1	5.00191	-16.21218	-2.134442E-005	0.0006741	10
	19	57	3796.875	4.85278	-1.726956	1	5.150908	-19.58909	1.754771E-005	0.0006272	10
	20	59	2987.132	4.919899	-2.169258	1	5.376903	-23.79341	2.261291E-005	0.0006254	10
	21	62	2390.625	4.998646	-2.671804	1	5.667892	-28.12475	-2.0118E-005	0.0006794	10
	22	64	1884.191	5.100326	-3.332903	1	6.092747	-33.16336	1.908192E-005	0.0006363	10
	23	66	1516.544	5.216745	-4.073148	1	6.618532	-37.98213	-2.612616E-005	0.0006677	10
	24	69	1193.986	5.37541	-5.073803	1	7.391787	-43.34667	-2.535927E-005	0.0006753	10
	25	71	946.5144	5.572262	-6.279507	1	8.395374	-48.41503	-3.07141E-005	0.0006527	10
	26	74	751.7689	5.823708	-7.744398	1	9.68975	-53.05721	-2.441802E-005	0.0007094	10
	27	76	597.4265	6.144646	-9.54795	1	11.35429	-57.23642	3.46425E-006	0.000615	10
	28	78	477.4305	6.54181	-11.70185	1	13.40629	-60.79304	-2.035588E-006	0.0006557	10
	29	80	376.6741	7.089818	-14.49445	1	16.13551	-63.93489	-1.21623E-006	0.0006534	10
	30	83	298.2954	7.79155	-17.87163	1	19.49624	-66.44409	-2.632822E-006	0.0006612	10
	31	85	237.7717	8.677364	-21.87491	1	23.53313	-68.3627	-2.060064E-006	0.0006569	10
	32	88	189.0121	9.8323	-26.79062	1	28.53789	-69.84659	-2.120332E-006	0.0006561	10
	33	90	150.2404	11.31936	-32.75075	1	34.65169	-70.93375	-2.629639E-006	0.0006536	10
	34	92	119.1737	13.23435	-40.01124	1	42.14318	-71.69754	-2.356586E-006	0.0006522	10
	35	95	95.0169	15.58029	-48.48701	1	50.92873	-72.18627	1.257479E-006	5.591247E-005	9
	36	97	75.60484	18.54795	-58.77935	1	61.63634	-72.48679	1.213102E-006	5.618104E-005	9
	37	100	54.50582	24.00108	-77.07169	1	80.72235	-72.70277	1.095086E-006	5.111891E-005	9
	38	102	45.95588	27.47791	-88.63386	1	92.79546	-72.77573	1.256228E-006	5.978297E-005	9
	39	105	37.20238	32.42831	-105.2479	1	110.1305	-72.87523	1.369674E-006	4.922459E-005	9
	40	107	30.04808	38.14083	-125.0349	1	130.7228	-73.03612	1.305909E-006	5.667883E-005	9
	41	110	23.91582	45.13644	-150.4461	1	157.0711	-73.29984	1.254117E-006	5.524427E-005	9
	42	112	18.60119	53.71674	-184.4561	1	192.1185	-73.76354	7.125984E-007	0.0001158	9
	43	114	15.02404	61.9492	-219.948	1	228.5056	-74.26992	1.273623E-006	4.894454E-005	9
	44	116	12.01923	71.56597	-264.9136	1	274.4101	-74.8825	8.162368E-007	0.0001056	9
	45	119	9.450605	83.39685	-324.9328	1	335.4644	-75.60525	1.382493E-006	6.593335E-005	9
	46	121	7.512019	96.48	-395.9355	1	407.521	-76.30529	1.453499E-006	6.401571E-005	9
	47	124	5.978954	111.4701	-480.9905	1	493.7382	-76.95197	6.542219E-007	0.0006308	8
	48	127	4.734848	130.3915	-591.1992	1	605.4076	-77.56229	7.753594E-007	0.0006486	8
	49	130	3.75601	153.4193	-725.8152	1	741.8525	-78.06478	6.454976E-007	0.0006172	8
	50	134	3.004808	180.5769	-885.4254	1	903.6516	-78.47297	7.299708E-007	0.0006095	8
	51	138	2.372217	216.7255	-1092.986	1	1114.266	-78.78444	7.09873E-007	0.000621	8
	52	142	1.878005	263.6141	-1350.599	1	1376.085	-78.95568	6.636485E-007	0.0006346	8
	53	146	1.512097	314.9712	-1642.351	1	1672.281	-79.14359	7.053746E-007	0.0005351	8
	54	152	1.201923	389.3816	-2022.356	1	2059.5	-79.10172	6.665217E-007	0.0006406	8
	55	158	0.956633	482.1523	-2484.358	1	2530.713	-79.01685	6.642452E-007	-1.266057E-005	8
