EXPLAIN
TAG	EISPOT
TITLE	LABEL	Potentiostatic EIS	Test Identifier
DATE	LABEL	9/12/2020	Date
TIME	LABEL	22:26:32	Time
NOTES	NOTES	1	Notes...
	
PSTAT	PSTAT	REF3000-16137	Potentiostat
VDC	POTEN	0.00000E+000	T	DC Voltage (V)
FREQINIT	QUANT	3.00000E+005	Initial Freq. (Hz)
FREQFINAL	QUANT	1.00000E+000	Final Freq. (Hz)
PTSPERDEC	QUANT	1.00000E+001	Points/decade
VAC	QUANT	5.00000E+001	AC Voltage (mV rms)
AREA	QUANT	1.00000E+000	Sample Area (cm^2)
SPEED	SELECTOR	2	Optimize for:
ZGUESS	QUANT	1.00000E+003	Estimated Z (ohms)
EOC	QUANT	0	Open Circuit (V)
SEQUENCER	TOGGLE	TRUE	Run as Sequence
PSTATMODEL	IQUANT	5	Pstat Model
PSTATSECTION	LABEL	REF3000-16137	Pstat Section
PSTATSERIALNO	LABEL	16137	Pstat Serial Number
CTRLMODE	IQUANT	1	Control Mode
IESTAB	IQUANT	0	I/E Stability
CASPEED	IQUANT	1	Control Amp Speed
CONVENTION	IQUANT	1	Current Convention
ICHRANGE	IQUANT	2	Ich Range
ICHRANGEMODE	TOGGLE	F	Ich Auto Range
ICHOFFSETENABLE	TOGGLE	T	Ich Offset Enable
ICHOFFSET	QUANT	0	Ich Offset (V)
ICHFILTER	IQUANT	3	Ich Filter
VCHRANGE	IQUANT	2	Vch Range
VCHRANGEMODE	TOGGLE	F	Vch Auto Range
VCHOFFSETENABLE	TOGGLE	T	Vch Offset Enable
VCHOFFSET	QUANT	0	Vch Offset (V)
VCHFILTER	IQUANT	3	Vch Filter
ACHRANGE	IQUANT	2	Ach Range
ACHOFFSETENABLE	TOGGLE	F	Ach Offset Enable
ACHOFFSET	QUANT	0	Ach Offset (V)
ACHFILTER	IQUANT	3	Ach Filter
IERANGELOWERLIMIT	IQUANT	2	I/E Range Lower Limit
IERANGEMODE	TOGGLE	F	I/E AutoRange
IERANGE	IQUANT	11	I/E Range
POSFEEDENABLE	TOGGLE	F	Positive Feedback IR Comp
POSFEEDRESISTANCE	QUANT	0	Positive Feedback Resistance (ohm)
ACHSELECT	IQUANT	0	Ach Select
CABLEID	IQUANT	13	Cable ID
DCCALDATE	LABEL	7/31/2020	DC Calibration Date
ACCALDATE	LABEL	7/31/2020	AC Calibration Date
THERMOSELECT	IQUANT	1	Thermo Select
FRAMEWORKVERSION	QUANT	6.33	Framework Version
INSTRUMENTVERSION	LABEL	3.50	Instrument Version
COMPLIANCEVOLTAGE	IQUANT	0	Compliance Voltage
ZCURVE	TABLE
	Pt	Time	Freq	Zreal	Zimag	Zsig	Zmod	Zphz	Idc	Vdc	IERange
	#	s	Hz	ohm	ohm	V	ohm	°	A	V	#
	0	10	300046.9	3.559475	2.247191	1	4.209481	32.2653	5.9275E-005	-0.0002634	10
	1	13	238359.4	3.525503	1.790243	1	3.954004	26.92136	6.694115E-005	-0.0006399	10
	2	16	189328.1	3.513092	1.42167	1	3.789849	22.03209	-5.731521E-005	-6.271994E-005	10
	3	19	150421.9	3.495017	1.106861	1	3.6661	17.57283	-0.0001077	8.764418E-005	10
	4	21	119484.4	3.495672	0.8598556	1	3.599872	13.81911	1.384025E-005	0.0002793	10
	5	24	94921.88	3.495448	0.6698635	1	3.559055	10.84857	4.449519E-005	0.000384	10
	6	26	75421.88	3.495981	0.4956463	1	3.530942	8.069388	-1.210257E-005	0.000482	10
	7	29	59859.37	3.499486	0.3471229	1	3.51666	5.664784	-9.670729E-006	0.0004905	10
	8	31	47578.12	3.504776	0.2190293	1	3.511613	3.576022	-6.99524E-007	0.0005116	10
	9	34	37828.12	3.51167	0.1036025	1	3.513198	1.68987	1.786343E-005	0.0005432	10
	10	36	30046.88	3.51931	-0.0054254	1	3.519314	-0.0883269	-6.868231E-006	0.0005953	10
	11	39	23859.38	3.530235	-0.113167	1	3.532048	-1.836074	2.074359E-005	0.0006218	10
	12	41	18984.38	3.542372	-0.2236006	1	3.549422	-3.611817	-1.515504E-005	0.0006692	10
	13	43	15046.87	3.556516	-0.3449068	1	3.573201	-5.539156	-1.991167E-005	0.0006616	10
	14	46	11953.13	3.572271	-0.4803483	1	3.604422	-7.658386	-8.219696E-006	0.0006371	10
	15	48	9515.62	3.593443	-0.6354309	1	3.649193	-10.02799	-1.06984E-005	0.0006864	10
	16	50	7546.875	3.618847	-0.8212156	1	3.710856	-12.78545	-7.081534E-006	0.00065	10
	17	53	5928.309	3.651488	-1.055321	1	3.80093	-16.11989	-2.310754E-005	0.0006631	10
	18	55	4733.456	3.689753	-1.319584	1	3.918619	-19.67882	-2.347157E-005	0.0006598	10
	19	57	3796.875	3.735659	-1.633281	1	4.077102	-23.6156	2.144351E-005	0.0006433	10
	20	60	2987.132	3.79803	-2.04884	1	4.315412	-28.34456	1.965615E-005	0.0006214	10
	21	62	2390.625	3.871764	-2.52311	1	4.621325	-33.09106	-2.019379E-005	0.0007236	10
	22	64	1884.191	3.96773	-3.147012	1	5.064243	-38.41976	-1.068983E-005	0.0006406	10
	23	67	1516.544	4.080123	-3.843996	1	5.605685	-43.29317	-1.566215E-005	0.0006555	10
	24	69	1193.986	4.235758	-4.78654	1	6.391604	-48.49339	1.628494E-005	0.0006175	10
	25	71	946.5144	4.428492	-5.921373	1	7.3942	-53.20782	-6.604295E-006	0.000618	10
	26	74	751.7689	4.683311	-7.302017	1	8.674841	-57.32501	-2.375658E-005	0.0006556	10
	27	76	597.4265	5.004384	-8.99155	1	10.29038	-60.90121	-2.520992E-005	0.0006694	10
	28	78	477.4305	5.414961	-10.99854	1	12.25927	-63.78738	-1.408909E-006	0.0006591	10
	29	81	376.6741	5.976795	-13.59449	1	14.85033	-66.26739	-1.542575E-006	0.0006535	10
	30	83	298.2954	6.697003	-16.71549	1	18.00715	-68.16666	-1.683223E-006	0.0006551	10
	31	85	237.7717	7.600547	-20.39531	1	21.7655	-69.56152	-1.393818E-006	0.0006495	10
	32	88	189.0121	8.769427	-24.8873	1	26.38713	-70.58929	-1.499281E-006	0.0006454	10
	33	90	150.2404	10.25434	-30.29913	1	31.98732	-71.30229	-1.753214E-006	0.0006477	10
	34	93	119.1737	12.13611	-36.8517	1	38.79863	-71.7721	-2.41576E-006	0.000648	10
	35	95	95.0169	14.39172	-44.45622	1	46.72769	-72.06178	1.333248E-006	4.75921E-005	9
	36	97	75.60484	17.1739	-53.65141	1	56.33308	-72.25005	1.26794E-006	5.047039E-005	9
	37	100	54.50582	22.08982	-69.97263	1	73.37662	-72.47949	1.139813E-006	5.347274E-005	9
	38	102	45.95588	25.11514	-80.31939	1	84.15447	-72.63601	1.357155E-006	6.211866E-005	9
	39	105	37.20238	29.27664	-95.2111	1	99.6106	-72.90776	1.242731E-006	6.136297E-005	9
	40	107	30.04808	34.04883	-113.2423	1	118.2503	-73.26542	1.120705E-006	5.57802E-005	9
	41	110	23.91582	39.69303	-136.5029	1	142.1569	-73.78635	1.043197E-006	5.060359E-005	9
	42	112	18.60119	46.63884	-168.0298	1	174.3823	-74.48732	1.150845E-006	6.40095E-005	9
	43	114	15.02404	53.42867	-201.2019	1	208.175	-75.12846	1.287161E-006	4.493423E-005	9
	44	117	12.01923	61.54783	-243.486	1	251.1445	-75.81406	1.4904E-006	5.130142E-005	9
	45	119	9.450605	72.04845	-300.1175	1	308.6446	-76.50061	1.560712E-006	5.568943E-005	9
	46	121	7.512019	83.86836	-367.095	1	376.5536	-77.13079	1.527504E-006	0.0001231	9
	47	124	5.978954	98.1553	-447.2668	1	457.9106	-77.62233	8.12053E-007	0.0006313	8
	48	127	4.734848	116.5729	-550.512	1	562.719	-78.04402	8.759433E-007	0.0006594	8
	49	130	3.75601	139.7295	-677.0372	1	691.3058	-78.33881	7.557149E-007	0.0006187	8
	50	134	3.004808	167.9645	-826.7488	1	843.6384	-78.51594	8.522069E-007	0.0006076	8
	51	138	2.372217	206.3982	-1020.973	1	1041.627	-78.57121	8.292907E-007	0.0006071	8
	52	142	1.878005	258.3673	-1260.571	1	1286.777	-78.41705	7.844575E-007	0.0006396	8
	53	147	1.512097	319.1352	-1531.229	1	1564.133	-78.22708	8.024876E-007	0.0005243	8
	54	152	1.201923	405.4214	-1880.457	1	1923.665	-77.83342	7.428044E-007	0.0007092	8
	55	158	0.956633	517.9781	-2302.35	1	2359.898	-77.32082	7.8329E-007	-1.06548E-005	8
