EXPLAIN
TAG	EISPOT
TITLE	LABEL	Potentiostatic EIS	Test Identifier
DATE	LABEL	9/12/2020	Date
TIME	LABEL	23:52:39	Time
NOTES	NOTES	1	Notes...
	
PSTAT	PSTAT	REF3000-16137	Potentiostat
VDC	POTEN	0.00000E+000	T	DC Voltage (V)
FREQINIT	QUANT	3.00000E+005	Initial Freq. (Hz)
FREQFINAL	QUANT	1.00000E+000	Final Freq. (Hz)
PTSPERDEC	QUANT	1.00000E+001	Points/decade
VAC	QUANT	5.00000E+001	AC Voltage (mV rms)
AREA	QUANT	1.00000E+000	Sample Area (cm^2)
SPEED	SELECTOR	2	Optimize for:
ZGUESS	QUANT	1.00000E+003	Estimated Z (ohms)
EOC	QUANT	0	Open Circuit (V)
SEQUENCER	TOGGLE	TRUE	Run as Sequence
PSTATMODEL	IQUANT	5	Pstat Model
PSTATSECTION	LABEL	REF3000-16137	Pstat Section
PSTATSERIALNO	LABEL	16137	Pstat Serial Number
CTRLMODE	IQUANT	1	Control Mode
IESTAB	IQUANT	0	I/E Stability
CASPEED	IQUANT	1	Control Amp Speed
CONVENTION	IQUANT	1	Current Convention
ICHRANGE	IQUANT	2	Ich Range
ICHRANGEMODE	TOGGLE	F	Ich Auto Range
ICHOFFSETENABLE	TOGGLE	T	Ich Offset Enable
ICHOFFSET	QUANT	0	Ich Offset (V)
ICHFILTER	IQUANT	3	Ich Filter
VCHRANGE	IQUANT	2	Vch Range
VCHRANGEMODE	TOGGLE	F	Vch Auto Range
VCHOFFSETENABLE	TOGGLE	T	Vch Offset Enable
VCHOFFSET	QUANT	0	Vch Offset (V)
VCHFILTER	IQUANT	3	Vch Filter
ACHRANGE	IQUANT	2	Ach Range
ACHOFFSETENABLE	TOGGLE	F	Ach Offset Enable
ACHOFFSET	QUANT	0	Ach Offset (V)
ACHFILTER	IQUANT	3	Ach Filter
IERANGELOWERLIMIT	IQUANT	2	I/E Range Lower Limit
IERANGEMODE	TOGGLE	F	I/E AutoRange
IERANGE	IQUANT	11	I/E Range
POSFEEDENABLE	TOGGLE	F	Positive Feedback IR Comp
POSFEEDRESISTANCE	QUANT	0	Positive Feedback Resistance (ohm)
ACHSELECT	IQUANT	0	Ach Select
CABLEID	IQUANT	13	Cable ID
DCCALDATE	LABEL	7/31/2020	DC Calibration Date
ACCALDATE	LABEL	7/31/2020	AC Calibration Date
THERMOSELECT	IQUANT	1	Thermo Select
FRAMEWORKVERSION	QUANT	6.33	Framework Version
INSTRUMENTVERSION	LABEL	3.50	Instrument Version
COMPLIANCEVOLTAGE	IQUANT	0	Compliance Voltage
ZCURVE	TABLE
	Pt	Time	Freq	Zreal	Zimag	Zsig	Zmod	Zphz	Idc	Vdc	IERange
	#	s	Hz	ohm	ohm	V	ohm	°	A	V	#
	0	17	300046.9	50.05258	-4292.689	1	4292.981	-89.33196	1.889287E-005	-0.0010655	9
	1	40	238359.4	389.6226	-5160.288	1	5174.976	-85.68213	2.385851E-005	-0.000449	9
	2	58	189328.1	358.877	-6709.545	1	6719.136	-86.93831	-2.956109E-005	-0.0010723	9
	3	69	150421.9	444.2603	-8446.39	1	8458.065	-86.98915	1.95883E-005	-0.0003424	9
	4	76	119484.4	824.972	-10313.24	1	10346.18	-85.42656	-6.052893E-006	-0.0148711	8
	5	84	94921.88	1103.505	-12616.79	1	12664.95	-85.00145	-1.176353E-005	0.0101717	8
	6	92	75421.88	1327.814	-16025.31	1	16080.23	-85.26344	-1.610861E-005	0.0006462	8
	7	101	59859.37	1259.25	-19964.44	1	20004.11	-86.39087	-1.196386E-005	0.0102247	8
	8	110	47578.12	4968.201	-26054.96	1	26524.4	-79.20435	-3.404122E-006	-0.0047467	7
	9	116	37828.12	2426.977	-31251.35	1	31345.45	-85.55933	2.728333E-005	-0.0075005	8
	10	125	30046.88	3412.527	-40311.54	1	40455.73	-85.16123	2.624233E-005	-0.0091097	8
	11	133	23859.38	4964.875	-48998.85	1	49249.75	-84.21417	1.749965E-005	0.0002133	8
	12	141	18984.38	8621.482	-61249.59	1	61853.4	-81.98769	-5.384938E-006	0.0043278	7
	13	148	15046.87	11338.41	-75981.74	1	76823.07	-81.51264	6.767642E-006	-0.0268021	7
	14	153	11953.13	14434.42	-95342.4	1	96428.8	-81.39104	-3.669964E-006	0.0250193	7
	15	158	9515.62	15310.19	-115849.4	1	116856.7	-82.47165	6.849561E-006	-0.0272638	7
	16	164	7546.875	19540.74	-154889.3	1	156117.1	-82.80959	2.740547E-005	-0.0075443	8
	17	171	5928.309	31037.51	-182234.5	1	184858.7	-80.33434	-1.657695E-006	0.0214202	7
	18	178	4733.456	39440.86	-223801.6	1	227250.4	-80.00532	-5.248018E-006	0.0263331	7
	19	183	3796.875	-40986.95	-279506.3	1	282495.5	-98.3424	-9.680833E-006	-0.0021546	8
	20	192	2987.132	50397.64	-349464.8	1	353080.2	-81.79374	2.608815E-005	-0.0051968	8
	21	200	2390.625	-83509.93	-338596.9	1	348743.1	-103.8547	-2.069634E-005	0.0028972	8
	22	209	1884.191	86478.69	-399330.7	1	408587.3	-77.78077	1.17001E-006	-0.0194359	7
	23	217	1516.544	246106.3	-645814.3	1	691118.3	-69.13921	3.884996E-007	-0.0249869	6
	24	222	1193.986	318223.3	-743259.4	1	808517.5	-66.82202	4.270273E-007	0.0017079	6
	25	228	946.5144	503984.1	-864968.9	1	1001085	-59.77229	-4.007259E-007	0.0253319	6
	26	232	751.7689	-307260.3	-740797.6	1	801991.3	-112.5272	-5.30066E-006	0.0267405	7
	27	238	597.4265	-74909.52	-1056796	1	1059448	-94.05455	5.452866E-007	0.0159572	7
	28	244	477.4305	1010072	-1432671	1	1752938	-54.81511	-9.148994E-009	0.0006227	6
	29	248	376.6741	1531953	-1496535	1	2141611	-44.32996	-1.149427E-009	0.0006301	5
	30	251	298.2954	1850203	-1574642	1	2429558	-40.39992	-1.007691E-009	0.0005911	5
	31	253	237.7717	2030838	-1781449	1	2701455	-41.2572	-9.295645E-009	0.0006167	6
	32	257	189.0121	2425171	-1774971	1	3005325	-36.20021	-1.005824E-008	0.0006958	6
	33	261	150.2404	2922317	-1665662	1	3363684	-29.68227	-1.006884E-009	0.0005904	5
	34	265	119.1737	3206869	-1187891	1	3419809	-20.32567	-9.96517E-010	0.0006778	5
	35	269	95.0169	3603282	-1484370	1	3897050	-22.38918	-1.085569E-009	0.0005811	5
	36	273	75.60484	3833840	-1364978	1	4069582	-19.59747	-1.011492E-009	0.0005991	5
	37	277	54.50582	4253989	-1168582	1	4411576	-15.36041	-1.094681E-009	0.0006624	5
	38	281	45.95588	4938714	-584598.8	1	4973193	-6.750726	-1.875846E-010	0.0006241	4
	39	284	37.20238	4986826	-527029.1	1	5014599	-6.032868	-9.444833E-011	0.0006409	4
	40	286	30.04808	5064860	-427602.3	1	5082878	-4.82577	-1.521933E-010	0.0006375	4
	41	289	23.91582	5158656	-393114.7	1	5173613	-4.357795	-1.232725E-010	0.0006767	4
	42	292	18.60119	5076190	-181962.7	1	5079451	-2.052964	1.544111E-010	0.000637	4
	43	294	15.02404	5391724	-273146.2	1	5398638	-2.900141	-1.224776E-010	0.0006191	4
	44	297	12.01923	5522834	-252062.1	1	5528583	-2.613166	-1.177724E-010	0.0006571	4
	45	299	9.450605	5626856	-198383.1	1	5630352	-2.019211	-1.19112E-010	0.0006506	4
	46	302	7.512019	5788510	-178487.1	1	5791261	-1.76614	-1.357767E-010	0.0006028	4
	47	305	5.978954	5975337	-177906.4	1	5977985	-1.70539	-1.061434E-010	0.0006281	4
	48	309	4.734848	6201266	-156130.8	1	6203231	-1.442245	-1.362755E-010	0.0006428	4
	49	314	3.75601	6461428	-158165.1	1	6463364	-1.402226	-1.0991E-010	0.0005955	4
	50	320	3.004808	6809054	-142782.4	1	6810551	-1.201287	-1.104301E-010	0.000664	4
	51	326	2.372217	7101127	-122221.8	1	7102178	-0.986055	-1.202549E-010	0.0006379	4
	52	330	1.878005	7374832	-113681.6	1	7375709	-0.8831331	-1.210159E-010	0.0006393	4
	53	335	1.512097	7694823	-103800.5	1	7695524	-0.7728536	-1.287429E-010	0.0005424	4
	54	340	1.201923	8081001	-107219.2	1	8081712	-0.7601591	-1.161447E-010	0.0007082	4
	55	347	0.956633	8521782	-106408.7	1	8522446	-0.7153962	-1.842508E-010	8.79403E-006	4
