EXPLAIN
TAG	EISPOT
TITLE	LABEL	Potentiostatic EIS	Test Identifier
DATE	LABEL	9/12/2020	Date
TIME	LABEL	22:18:04	Time
NOTES	NOTES	1	Notes...
	
PSTAT	PSTAT	REF3000-16137	Potentiostat
VDC	POTEN	0.00000E+000	T	DC Voltage (V)
FREQINIT	QUANT	3.00000E+005	Initial Freq. (Hz)
FREQFINAL	QUANT	1.00000E+000	Final Freq. (Hz)
PTSPERDEC	QUANT	1.00000E+001	Points/decade
VAC	QUANT	5.00000E+001	AC Voltage (mV rms)
AREA	QUANT	1.00000E+000	Sample Area (cm^2)
SPEED	SELECTOR	2	Optimize for:
ZGUESS	QUANT	1.00000E+003	Estimated Z (ohms)
EOC	QUANT	0	Open Circuit (V)
SEQUENCER	TOGGLE	TRUE	Run as Sequence
PSTATMODEL	IQUANT	5	Pstat Model
PSTATSECTION	LABEL	REF3000-16137	Pstat Section
PSTATSERIALNO	LABEL	16137	Pstat Serial Number
CTRLMODE	IQUANT	1	Control Mode
IESTAB	IQUANT	0	I/E Stability
CASPEED	IQUANT	1	Control Amp Speed
CONVENTION	IQUANT	1	Current Convention
ICHRANGE	IQUANT	2	Ich Range
ICHRANGEMODE	TOGGLE	F	Ich Auto Range
ICHOFFSETENABLE	TOGGLE	T	Ich Offset Enable
ICHOFFSET	QUANT	0	Ich Offset (V)
ICHFILTER	IQUANT	3	Ich Filter
VCHRANGE	IQUANT	2	Vch Range
VCHRANGEMODE	TOGGLE	F	Vch Auto Range
VCHOFFSETENABLE	TOGGLE	T	Vch Offset Enable
VCHOFFSET	QUANT	0	Vch Offset (V)
VCHFILTER	IQUANT	3	Vch Filter
ACHRANGE	IQUANT	2	Ach Range
ACHOFFSETENABLE	TOGGLE	F	Ach Offset Enable
ACHOFFSET	QUANT	0	Ach Offset (V)
ACHFILTER	IQUANT	3	Ach Filter
IERANGELOWERLIMIT	IQUANT	2	I/E Range Lower Limit
IERANGEMODE	TOGGLE	F	I/E AutoRange
IERANGE	IQUANT	11	I/E Range
POSFEEDENABLE	TOGGLE	F	Positive Feedback IR Comp
POSFEEDRESISTANCE	QUANT	0	Positive Feedback Resistance (ohm)
ACHSELECT	IQUANT	0	Ach Select
CABLEID	IQUANT	13	Cable ID
DCCALDATE	LABEL	7/31/2020	DC Calibration Date
ACCALDATE	LABEL	7/31/2020	AC Calibration Date
THERMOSELECT	IQUANT	1	Thermo Select
FRAMEWORKVERSION	QUANT	6.33	Framework Version
INSTRUMENTVERSION	LABEL	3.50	Instrument Version
COMPLIANCEVOLTAGE	IQUANT	0	Compliance Voltage
ZCURVE	TABLE
	Pt	Time	Freq	Zreal	Zimag	Zsig	Zmod	Zphz	Idc	Vdc	IERange
	#	s	Hz	ohm	ohm	V	ohm	°	A	V	#
	0	11	300046.9	2.937393	2.262179	1	3.707524	37.601	8.615471E-006	-0.0001644	10
	1	14	238359.4	2.894961	1.802622	1	3.410315	31.90951	-1.101647E-005	-0.0005266	10
	2	17	189328.1	2.959923	1.19743	1	3.192958	22.02568	-0.000152	-0.0005232	12
	3	21	150421.9	2.868411	1.097515	1	3.071208	20.93792	7.929141E-005	0.0003097	11
	4	23	119484.4	2.862669	0.8509647	1	2.986472	16.55525	-3.745008E-005	0.0004281	11
	5	26	94921.88	2.856686	0.6495638	1	2.929605	12.81031	-1.893976E-005	0.0005164	11
	6	28	75421.88	2.85484	0.4801713	1	2.894939	9.54753	1.240535E-005	0.0005555	11
	7	31	59859.37	2.85724	0.3385356	1	2.877225	6.7571	-3.726154E-005	0.0005793	11
	8	33	47578.12	2.861395	0.2153258	1	2.869486	4.303513	-3.06797E-005	0.0006279	11
	9	36	37828.12	2.865081	0.1039406	1	2.866966	2.077688	2.322998E-005	0.0006584	11
	10	38	30046.88	2.872479	-7.264026E-005	1	2.872479	-0.0014489	9.375687E-006	0.0006708	11
	11	41	23859.38	2.879779	-0.1033163	1	2.881632	-2.05469	2.312218E-005	0.0006781	11
	12	43	18984.38	2.890075	-0.2088077	1	2.897608	-4.132435	8.564768E-006	0.0006698	11
	13	45	15046.87	2.902209	-0.3253273	1	2.920386	-6.395954	5.685348E-006	0.0006677	11
	14	48	11953.13	2.917881	-0.4542579	1	2.953029	-8.84882	-2.750417E-005	0.0006768	11
	15	50	9515.62	2.936329	-0.6023488	1	2.997475	-11.59264	-2.295221E-005	0.0006776	11
	16	52	7546.875	2.959706	-0.779754	1	3.060699	-14.75957	2.410537E-006	0.0006901	11
	17	55	5928.309	2.990299	-1.001416	1	3.153526	-18.51509	-3.742127E-005	0.0006613	11
	18	57	4733.456	3.026363	-1.25218	1	3.275184	-22.47769	-3.397241E-005	0.0006641	11
	19	59	3796.875	3.069911	-1.549636	1	3.438855	-26.78383	-2.868918E-005	0.0006613	11
	20	62	2987.132	3.129664	-1.943879	1	3.684218	-31.84501	-4.180454E-005	0.0006595	11
	21	64	2390.625	3.201925	-2.395494	1	3.998839	-36.8017	-2.697447E-005	0.0006465	10
	22	66	1884.191	3.297518	-2.986296	1	4.448774	-42.1646	-3.324059E-006	0.0006593	10
	23	69	1516.544	3.408267	-3.646481	1	4.991303	-46.93394	-2.196154E-005	0.0006604	10
	24	71	1193.986	3.565351	-4.537495	1	5.770666	-51.8414	-1.465871E-005	0.0006523	10
	25	73	946.5144	3.762038	-5.606211	1	6.751484	-56.13648	-1.953135E-005	0.0006821	10
	26	76	751.7689	4.016917	-6.904992	1	7.9884	-59.81168	-1.195894E-005	0.0006735	10
	27	78	597.4265	4.346254	-8.487103	1	9.53524	-62.88297	1.374007E-005	0.0006427	10
	28	80	477.4305	4.76586	-10.36337	1	11.4067	-65.30345	-2.700949E-007	0.0006542	10
	29	83	376.6741	5.338937	-12.77511	1	13.84586	-67.31912	-4.002968E-007	0.0006498	10
	30	85	298.2954	6.068379	-15.66173	1	16.79628	-68.82037	-9.072411E-007	0.0006498	10
	31	87	237.7717	6.976019	-19.0438	1	20.2813	-69.88149	-1.613072E-006	0.0006547	10
	32	90	189.0121	8.13548	-23.15139	1	24.53921	-70.63834	-1.338162E-006	0.0006501	10
	33	92	150.2404	9.58321	-28.07263	1	29.66329	-71.15153	-8.506634E-007	0.0006534	10
	34	95	119.1737	11.37798	-34.00364	1	35.85674	-71.49921	-1.314861E-006	0.0006527	10
	35	97	95.0169	13.47826	-40.86639	1	43.03168	-71.74677	1.471357E-006	4.588491E-005	9
	36	99	75.60484	15.99607	-49.16501	1	51.70177	-71.97746	1.408239E-006	4.912703E-005	9
	37	102	54.50582	20.28493	-63.95865	1	67.09834	-72.40321	1.212264E-006	4.349234E-005	9
	38	104	45.95588	22.86691	-73.41331	1	76.8922	-72.69914	1.616587E-006	4.804878E-005	9
	39	107	37.20238	26.38231	-87.14455	1	91.05054	-73.15673	1.531088E-006	5.157817E-005	9
	40	109	30.04808	30.31655	-103.8242	1	108.1598	-73.72224	1.335532E-006	5.76101E-005	9
	41	112	23.91582	35.01708	-125.5009	1	130.2946	-74.40991	1.309581E-006	4.429105E-005	9
	42	114	18.60119	41.07743	-155.361	1	160.6997	-75.18991	9.711706E-007	0.0001151	9
	43	116	15.02404	47.08569	-186.7346	1	192.5796	-75.84772	1.52334E-006	5.497332E-005	9
	44	119	12.01923	54.6116	-226.7715	1	233.2546	-76.45973	1.568389E-006	5.532487E-005	9
	45	121	9.450605	64.62876	-280.1343	1	287.4928	-77.0088	1.424162E-006	5.276915E-005	9
	46	124	7.512019	76.42017	-343.316	1	351.7185	-77.45088	1.6448E-006	3.742122E-005	9
	47	126	5.978954	90.91399	-418.9427	1	428.6938	-77.75619	9.880604E-007	0.0006336	8
	48	129	4.734848	110.2349	-515.899	1	527.5449	-77.93868	9.811127E-007	0.0006077	8
	49	133	3.75601	135.4238	-634.5567	1	648.8465	-77.95296	1.105411E-006	0.0006488	8
	50	136	3.004808	166.6927	-773.9158	1	791.6641	-77.84484	1.067032E-006	0.0006243	8
	51	140	2.372217	211.7762	-954.023	1	977.246	-77.48429	1.010305E-006	0.0006031	8
	52	144	1.878005	271.3791	-1175.647	1	1206.563	-77.00188	1.115358E-006	0.0006165	8
	53	149	1.512097	341.9213	-1420.78	1	1461.344	-76.46866	1.053389E-006	0.0007	8
	54	154	1.201923	447.5227	-1735.67	1	1792.436	-75.54185	1.105328E-006	0.000636	8
	55	160	0.956633	586.1431	-2107.075	1	2187.082	-74.45457	1.01411E-006	-1.107459E-005	8
