EXPLAIN
TAG	EISPOT
TITLE	LABEL	Potentiostatic EIS	Test Identifier
DATE	LABEL	9/12/2020	Date
TIME	LABEL	23:02:41	Time
NOTES	NOTES	1	Notes...
	
PSTAT	PSTAT	REF3000-16137	Potentiostat
VDC	POTEN	0.00000E+000	T	DC Voltage (V)
FREQINIT	QUANT	3.00000E+005	Initial Freq. (Hz)
FREQFINAL	QUANT	1.00000E+000	Final Freq. (Hz)
PTSPERDEC	QUANT	1.00000E+001	Points/decade
VAC	QUANT	5.00000E+001	AC Voltage (mV rms)
AREA	QUANT	1.00000E+000	Sample Area (cm^2)
SPEED	SELECTOR	2	Optimize for:
ZGUESS	QUANT	1.00000E+003	Estimated Z (ohms)
EOC	QUANT	0	Open Circuit (V)
SEQUENCER	TOGGLE	TRUE	Run as Sequence
PSTATMODEL	IQUANT	5	Pstat Model
PSTATSECTION	LABEL	REF3000-16137	Pstat Section
PSTATSERIALNO	LABEL	16137	Pstat Serial Number
CTRLMODE	IQUANT	1	Control Mode
IESTAB	IQUANT	0	I/E Stability
CASPEED	IQUANT	1	Control Amp Speed
CONVENTION	IQUANT	1	Current Convention
ICHRANGE	IQUANT	2	Ich Range
ICHRANGEMODE	TOGGLE	F	Ich Auto Range
ICHOFFSETENABLE	TOGGLE	T	Ich Offset Enable
ICHOFFSET	QUANT	0	Ich Offset (V)
ICHFILTER	IQUANT	3	Ich Filter
VCHRANGE	IQUANT	2	Vch Range
VCHRANGEMODE	TOGGLE	F	Vch Auto Range
VCHOFFSETENABLE	TOGGLE	T	Vch Offset Enable
VCHOFFSET	QUANT	0	Vch Offset (V)
VCHFILTER	IQUANT	3	Vch Filter
ACHRANGE	IQUANT	2	Ach Range
ACHOFFSETENABLE	TOGGLE	F	Ach Offset Enable
ACHOFFSET	QUANT	0	Ach Offset (V)
ACHFILTER	IQUANT	3	Ach Filter
IERANGELOWERLIMIT	IQUANT	2	I/E Range Lower Limit
IERANGEMODE	TOGGLE	F	I/E AutoRange
IERANGE	IQUANT	11	I/E Range
POSFEEDENABLE	TOGGLE	F	Positive Feedback IR Comp
POSFEEDRESISTANCE	QUANT	0	Positive Feedback Resistance (ohm)
ACHSELECT	IQUANT	0	Ach Select
CABLEID	IQUANT	13	Cable ID
DCCALDATE	LABEL	7/31/2020	DC Calibration Date
ACCALDATE	LABEL	7/31/2020	AC Calibration Date
THERMOSELECT	IQUANT	1	Thermo Select
FRAMEWORKVERSION	QUANT	6.33	Framework Version
INSTRUMENTVERSION	LABEL	3.50	Instrument Version
COMPLIANCEVOLTAGE	IQUANT	0	Compliance Voltage
ZCURVE	TABLE
	Pt	Time	Freq	Zreal	Zimag	Zsig	Zmod	Zphz	Idc	Vdc	IERange
	#	s	Hz	ohm	ohm	V	ohm	°	A	V	#
	0	6	300046.9	24.26254	1.519	1	24.31004	3.582431	1.177689E-005	-0.0002714	11
	1	11	238359.4	24.40561	1.225404	1	24.43635	2.874403	1.173418E-005	0.000473	11
	2	15	189328.1	24.58931	1.137866	1	24.61562	2.649462	8.852433E-005	0.0002127	10
	3	19	150421.9	24.6682	0.7438043	1	24.67941	1.72708	-0.0001237	0.0001679	11
	4	22	119484.4	24.85023	0.6910895	1	24.85983	1.592996	2.191102E-005	0.000565	10
	5	26	94921.88	24.93985	0.521961	1	24.94531	1.198956	2.138621E-005	0.0005963	10
	6	29	75421.88	25.04286	0.3592981	1	25.04544	0.8219848	2.429069E-005	0.0005819	10
	7	31	59859.37	25.14582	0.2203957	1	25.14678	0.5021677	2.150018E-005	0.0005695	10
	8	34	47578.12	25.25283	0.0990493	1	25.25303	0.2247303	2.470727E-005	0.0006317	10
	9	36	37828.12	25.35606	-0.0158659	1	25.35607	-0.0358513	7.869528E-006	0.00068	10
	10	39	30046.88	25.46469	-0.1311111	1	25.46503	-0.2949986	7.401879E-006	0.0005816	10
	11	41	23859.38	25.57025	-0.2451032	1	25.57143	-0.5491909	2.996535E-005	0.0006161	10
	12	44	18984.38	25.6701	-0.3749327	1	25.67284	-0.8367921	8.571225E-006	0.0006926	10
	13	46	15046.87	25.77956	-0.5235738	1	25.78487	-1.163497	2.615308E-005	0.0006608	10
	14	48	11953.13	25.88516	-0.6824612	1	25.89416	-1.510251	-4.164687E-006	0.000609	10
	15	51	9515.62	25.99853	-0.8848125	1	26.01359	-1.949205	2.734837E-005	0.0006299	10
	16	53	7546.875	26.11337	-1.12786	1	26.13772	-2.473119	2.309653E-005	0.0006189	10
	17	55	5928.309	26.24147	-1.42988	1	26.2804	-3.118924	2.41352E-005	0.0006109	10
	18	58	4733.456	26.37362	-1.781656	1	26.43373	-3.864714	2.411279E-005	0.0006424	10
	19	60	3796.875	26.5143	-2.1993	1	26.60536	-4.741697	-2.422657E-005	0.0007271	10
	20	62	2987.132	26.67372	-2.762108	1	26.81635	-5.912002	6.116898E-006	0.0006648	10
	21	65	2390.625	26.84728	-3.405111	1	27.06236	-7.228379	-1.152409E-005	0.0006266	10
	22	67	1884.191	27.03915	-4.26115	1	27.37286	-8.955694	1.666737E-005	0.0006552	10
	23	69	1516.544	27.25049	-5.223403	1	27.74659	-10.8509	-2.092825E-005	0.0007072	10
	24	72	1193.986	27.518	-6.521048	1	28.2801	-13.33168	2.478899E-005	0.0006079	10
	25	74	946.5144	27.82745	-8.091592	1	28.98001	-16.21323	-2.701431E-005	0.0006971	10
	26	76	751.7689	28.18815	-10.02086	1	29.91638	-19.57024	-2.858819E-005	0.000684	10
	27	79	597.4265	28.62082	-12.39143	1	31.18812	-23.41027	-3.31195E-006	0.0006058	10
	28	81	477.4305	29.125	-15.22084	1	32.86243	-27.59174	-1.586159E-006	0.0006567	10
	29	83	376.6741	29.77391	-18.91278	1	35.27292	-32.42424	-1.722606E-006	0.0006535	10
	30	86	298.2954	30.51997	-23.37723	1	38.44429	-37.45086	1.294236E-006	5.951262E-005	9
	31	88	237.7717	31.45884	-28.74526	1	42.61395	-42.41925	1.275892E-006	4.814449E-005	9
	32	90	189.0121	32.62623	-35.42418	1	48.15956	-47.35444	1.262359E-006	5.558161E-005	9
	33	93	150.2404	34.07586	-43.64378	1	55.37096	-52.01826	1.263855E-006	5.282475E-005	9
	34	95	119.1737	35.91015	-53.86295	1	64.73605	-56.30882	1.255232E-006	4.933184E-005	9
	35	98	95.0169	38.17557	-66.13477	1	76.36218	-60.00478	1.185328E-006	5.710107E-005	9
	36	100	75.60484	41.08044	-81.31538	1	91.1032	-63.19715	1.272555E-006	5.391592E-005	9
	37	103	54.50582	46.64881	-109.1401	1	118.6915	-66.85709	1.205235E-006	5.559154E-005	9
	38	105	45.95588	50.4967	-127.1696	1	136.8284	-68.34288	1.297473E-006	5.554869E-005	9
	39	108	37.20238	56.31359	-153.4902	1	163.4946	-69.85256	1.145375E-006	6.039613E-005	9
	40	110	30.04808	63.75919	-185.4159	1	196.0721	-71.02338	1.21692E-006	5.65093E-005	9
	41	112	23.91582	73.81236	-226.4613	1	238.1869	-71.94724	1.358329E-006	5.080654E-005	9
	42	115	18.60119	88.06398	-281.7446	1	295.1869	-72.64249	1.200215E-006	5.775951E-005	9
	43	117	15.02404	103.4256	-338.3171	1	353.7729	-73.00128	1.270949E-006	6.591075E-005	9
	44	119	12.01923	122.888	-407.1921	1	425.3315	-73.20651	4.050161E-007	0.0006336	8
	45	122	9.450605	149.4688	-498.0773	1	520.0211	-73.29594	5.826379E-007	0.0006428	8
	46	124	7.512019	180.4049	-602.2371	1	628.6776	-73.324	6.046545E-007	0.0006554	8
	47	127	5.978954	217.2301	-726.3535	1	758.1413	-73.34969	5.525176E-007	0.0006322	8
	48	130	4.734848	262.0294	-878.0732	1	916.3362	-73.38416	5.548418E-007	0.0006617	8
	49	133	3.75601	312.8666	-1060.435	1	1105.626	-73.56204	5.616035E-007	0.0006373	8
	50	137	3.004808	368.1642	-1271.009	1	1323.257	-73.84566	4.883835E-007	0.0006681	8
	51	141	2.372217	434.8188	-1540.547	1	1600.735	-74.2383	5.04979E-007	0.0006342	8
	52	145	1.878005	510.7737	-1874.233	1	1942.586	-74.75571	5.547284E-007	0.0006235	8
	53	150	1.512097	585.4056	-2248.917	1	2323.861	-75.40939	5.128656E-007	0.0007084	8
	54	155	1.201923	682.732	-2740.571	1	2824.332	-76.0112	5.527669E-007	0.0006471	8
	55	161	0.956633	791.5535	-3339.378	1	3431.91	-76.66494	5.097178E-007	-6.486959E-006	8
