EXPLAIN
TAG	EISPOT
TITLE	LABEL	Potentiostatic EIS	Test Identifier
DATE	LABEL	9/12/2020	Date
TIME	LABEL	22:48:52	Time
NOTES	NOTES	1	Notes...
	
PSTAT	PSTAT	REF3000-16137	Potentiostat
VDC	POTEN	0.00000E+000	T	DC Voltage (V)
FREQINIT	QUANT	3.00000E+005	Initial Freq. (Hz)
FREQFINAL	QUANT	1.00000E+000	Final Freq. (Hz)
PTSPERDEC	QUANT	1.00000E+001	Points/decade
VAC	QUANT	5.00000E+001	AC Voltage (mV rms)
AREA	QUANT	1.00000E+000	Sample Area (cm^2)
SPEED	SELECTOR	2	Optimize for:
ZGUESS	QUANT	1.00000E+003	Estimated Z (ohms)
EOC	QUANT	0	Open Circuit (V)
SEQUENCER	TOGGLE	TRUE	Run as Sequence
PSTATMODEL	IQUANT	5	Pstat Model
PSTATSECTION	LABEL	REF3000-16137	Pstat Section
PSTATSERIALNO	LABEL	16137	Pstat Serial Number
CTRLMODE	IQUANT	1	Control Mode
IESTAB	IQUANT	0	I/E Stability
CASPEED	IQUANT	1	Control Amp Speed
CONVENTION	IQUANT	1	Current Convention
ICHRANGE	IQUANT	2	Ich Range
ICHRANGEMODE	TOGGLE	F	Ich Auto Range
ICHOFFSETENABLE	TOGGLE	T	Ich Offset Enable
ICHOFFSET	QUANT	0	Ich Offset (V)
ICHFILTER	IQUANT	3	Ich Filter
VCHRANGE	IQUANT	2	Vch Range
VCHRANGEMODE	TOGGLE	F	Vch Auto Range
VCHOFFSETENABLE	TOGGLE	T	Vch Offset Enable
VCHOFFSET	QUANT	0	Vch Offset (V)
VCHFILTER	IQUANT	3	Vch Filter
ACHRANGE	IQUANT	2	Ach Range
ACHOFFSETENABLE	TOGGLE	F	Ach Offset Enable
ACHOFFSET	QUANT	0	Ach Offset (V)
ACHFILTER	IQUANT	3	Ach Filter
IERANGELOWERLIMIT	IQUANT	2	I/E Range Lower Limit
IERANGEMODE	TOGGLE	F	I/E AutoRange
IERANGE	IQUANT	11	I/E Range
POSFEEDENABLE	TOGGLE	F	Positive Feedback IR Comp
POSFEEDRESISTANCE	QUANT	0	Positive Feedback Resistance (ohm)
ACHSELECT	IQUANT	0	Ach Select
CABLEID	IQUANT	13	Cable ID
DCCALDATE	LABEL	7/31/2020	DC Calibration Date
ACCALDATE	LABEL	7/31/2020	AC Calibration Date
THERMOSELECT	IQUANT	1	Thermo Select
FRAMEWORKVERSION	QUANT	6.33	Framework Version
INSTRUMENTVERSION	LABEL	3.50	Instrument Version
COMPLIANCEVOLTAGE	IQUANT	0	Compliance Voltage
ZCURVE	TABLE
	Pt	Time	Freq	Zreal	Zimag	Zsig	Zmod	Zphz	Idc	Vdc	IERange
	#	s	Hz	ohm	ohm	V	ohm	°	A	V	#
	0	8	300046.9	8.827762	2.200352	1	9.097853	13.99599	1.570406E-005	6.425202E-006	10
	1	11	238359.4	8.807623	1.739577	1	8.97777	11.17258	1.106742E-005	4.998552E-005	10
	2	15	189328.1	8.81201	1.371458	1	8.918095	8.846267	1.693866E-005	0.0002462	10
	3	17	150421.9	8.814656	1.082351	1	8.880858	7.0003	2.918007E-005	0.0004057	10
	4	20	119484.4	8.837762	0.8289362	1	8.876552	5.35837	-9.845183E-006	0.0004274	10
	5	22	94921.88	8.854992	0.6496378	1	8.87879	4.195932	5.752848E-006	0.0005241	10
	6	25	75421.88	8.872813	0.4696155	1	8.885232	3.029693	-9.161206E-007	0.0006304	10
	7	27	59859.37	8.895375	0.3139483	1	8.900913	2.021326	1.015601E-005	0.0006362	10
	8	30	47578.12	8.922154	0.180562	1	8.923982	1.159364	-2.45767E-005	0.0006743	10
	9	32	37828.12	8.947981	0.0602434	1	8.948184	0.385745	1.380373E-005	0.0006064	10
	10	35	30046.88	8.977594	-0.053776	1	8.977756	-0.3431987	-2.694879E-005	0.0006375	10
	11	37	23859.38	9.006302	-0.1692675	1	9.007893	-1.07671	-1.030326E-005	0.0006384	10
	12	40	18984.38	9.035839	-0.2899594	1	9.04049	-1.837986	-3.017042E-005	0.0006485	10
	13	42	15046.87	9.066683	-0.4256326	1	9.076668	-2.687759	1.343777E-005	0.0006284	10
	14	44	11953.13	9.102459	-0.578307	1	9.120811	-3.63529	-2.197029E-005	0.0006369	10
	15	47	9515.62	9.140711	-0.7566811	1	9.171977	-4.732236	4.344756E-006	0.0006288	10
	16	49	7546.875	9.185443	-0.972671	1	9.236798	-6.044677	-2.874084E-005	0.0006631	10
	17	51	5928.309	9.236324	-1.245033	1	9.31986	-7.677049	-2.447478E-005	0.0006701	10
	18	54	4733.456	9.293159	-1.554741	1	9.422316	-9.497597	-2.491614E-005	0.0007205	10
	19	56	3796.875	9.359584	-1.925865	1	9.55567	-11.62712	1.783348E-005	0.0006748	10
	20	58	2987.132	9.443477	-2.41868	1	9.7483	-14.36589	2.298854E-005	0.0006443	10
	21	60	2390.625	9.53902	-2.985212	1	9.99522	-17.37739	1.765694E-005	0.0006739	10
	22	63	1884.191	9.6597	-3.727263	1	10.35385	-21.09946	2.276118E-005	0.0006285	10
	23	65	1516.544	9.79835	-4.557629	1	10.80646	-24.94514	-2.465692E-005	0.0006686	10
	24	67	1193.986	9.98313	-5.68175	1	11.48674	-29.64573	-3.799569E-006	0.0006262	10
	25	70	946.5144	10.20246	-7.030581	1	12.39029	-34.57098	2.243693E-005	0.0006221	10
	26	72	751.7689	10.47126	-8.687467	1	13.60586	-39.68074	-2.210667E-005	0.0006898	10
	27	75	597.4265	10.80697	-10.71161	1	15.21608	-44.74611	1.713113E-005	0.0006099	10
	28	77	477.4305	11.2152	-13.14701	1	17.28076	-49.5338	-1.908032E-006	0.0006645	10
	29	79	376.6741	11.75836	-16.31396	1	20.10981	-54.21765	-1.955797E-006	0.0006541	10
	30	81	298.2954	12.44125	-20.16898	1	23.69752	-58.3316	-6.345246E-006	0.000711	10
	31	84	237.7717	13.29194	-24.77811	1	28.11815	-61.78917	-1.924891E-006	0.0006579	10
	32	86	189.0121	14.39407	-30.4873	1	33.71446	-64.72645	-2.301696E-006	0.0007148	10
	33	89	150.2404	15.81654	-37.4783	1	40.67906	-67.11935	-2.037248E-006	0.000662	10
	34	91	119.1737	17.65134	-46.04601	1	49.31334	-69.0261	1.358155E-006	6.422425E-005	9
	35	94	95.0169	19.98668	-56.29081	1	59.73376	-70.45202	1.332582E-006	6.726827E-005	9
	36	96	75.60484	23.00951	-68.82001	1	72.56467	-71.51299	1.275912E-006	6.346265E-005	9
	37	99	54.50582	28.83188	-91.41042	1	95.8496	-72.49413	1.285015E-006	5.852116E-005	9
	38	101	45.95588	32.76336	-105.8222	1	110.7781	-72.79707	1.22951E-006	6.275943E-005	9
	39	104	37.20238	38.61266	-126.5808	1	132.3391	-73.03602	1.370457E-006	6.161688E-005	9
	40	106	30.04808	45.83665	-151.4142	1	158.2	-73.1577	1.244456E-006	5.329357E-005	9
	41	108	23.91582	55.20176	-182.9207	1	191.0686	-73.20725	1.172405E-006	5.640001E-005	9
	42	111	18.60119	67.63622	-224.6538	1	234.6145	-73.2446	1.548858E-006	5.846281E-005	9
	43	113	15.02404	80.05195	-267.2022	1	278.9361	-73.32214	1.469959E-006	7.666556E-005	9
	44	115	12.01923	94.98528	-320.1743	1	333.9667	-73.47609	1.314228E-006	5.630154E-005	9
	45	118	9.450605	113.114	-389.1076	1	405.2154	-73.7908	1.406768E-006	5.870665E-005	9
	46	120	7.512019	132.0909	-467.7937	1	486.0853	-74.23191	6.298999E-007	0.0006372	8
	47	123	5.978954	153.7796	-564.9431	1	585.4988	-74.77281	6.840837E-007	0.0006385	8
	48	126	4.734848	178.568	-687.9601	1	710.7571	-75.44932	5.942932E-007	0.000619	8
	49	129	3.75601	207.0379	-838.2306	1	863.4207	-76.12597	6.916076E-007	0.0006567	8
	50	133	3.004808	238.6073	-1016.467	1	1044.097	-76.78947	6.259499E-007	0.00066	8
	51	136	2.372217	279.6494	-1248.534	1	1279.469	-77.37513	5.970665E-007	0.0006213	8
	52	141	1.878005	327.9066	-1538.555	1	1573.11	-77.96877	6.655123E-007	0.0006285	8
	53	145	1.512097	378.2611	-1865.461	1	1903.425	-78.5375	6.164036E-007	0.0007136	8
	54	151	1.201923	449.572	-2295.048	1	2338.666	-78.91679	6.632192E-007	0.0006351	8
	55	157	0.956633	531.8846	-2817.153	1	2866.924	-79.30829	6.196038E-007	-1.023456E-006	8
