EXPLAIN
TAG	EISPOT
TITLE	LABEL	Potentiostatic EIS	Test Identifier
DATE	LABEL	9/12/2020	Date
TIME	LABEL	23:19:19	Time
NOTES	NOTES	1	Notes...
	
PSTAT	PSTAT	REF3000-16137	Potentiostat
VDC	POTEN	0.00000E+000	T	DC Voltage (V)
FREQINIT	QUANT	3.00000E+005	Initial Freq. (Hz)
FREQFINAL	QUANT	1.00000E+000	Final Freq. (Hz)
PTSPERDEC	QUANT	1.00000E+001	Points/decade
VAC	QUANT	5.00000E+001	AC Voltage (mV rms)
AREA	QUANT	1.00000E+000	Sample Area (cm^2)
SPEED	SELECTOR	2	Optimize for:
ZGUESS	QUANT	1.00000E+003	Estimated Z (ohms)
EOC	QUANT	0	Open Circuit (V)
SEQUENCER	TOGGLE	TRUE	Run as Sequence
PSTATMODEL	IQUANT	5	Pstat Model
PSTATSECTION	LABEL	REF3000-16137	Pstat Section
PSTATSERIALNO	LABEL	16137	Pstat Serial Number
CTRLMODE	IQUANT	1	Control Mode
IESTAB	IQUANT	0	I/E Stability
CASPEED	IQUANT	1	Control Amp Speed
CONVENTION	IQUANT	1	Current Convention
ICHRANGE	IQUANT	2	Ich Range
ICHRANGEMODE	TOGGLE	F	Ich Auto Range
ICHOFFSETENABLE	TOGGLE	T	Ich Offset Enable
ICHOFFSET	QUANT	0	Ich Offset (V)
ICHFILTER	IQUANT	3	Ich Filter
VCHRANGE	IQUANT	2	Vch Range
VCHRANGEMODE	TOGGLE	F	Vch Auto Range
VCHOFFSETENABLE	TOGGLE	T	Vch Offset Enable
VCHOFFSET	QUANT	0	Vch Offset (V)
VCHFILTER	IQUANT	3	Vch Filter
ACHRANGE	IQUANT	2	Ach Range
ACHOFFSETENABLE	TOGGLE	F	Ach Offset Enable
ACHOFFSET	QUANT	0	Ach Offset (V)
ACHFILTER	IQUANT	3	Ach Filter
IERANGELOWERLIMIT	IQUANT	2	I/E Range Lower Limit
IERANGEMODE	TOGGLE	F	I/E AutoRange
IERANGE	IQUANT	11	I/E Range
POSFEEDENABLE	TOGGLE	F	Positive Feedback IR Comp
POSFEEDRESISTANCE	QUANT	0	Positive Feedback Resistance (ohm)
ACHSELECT	IQUANT	0	Ach Select
CABLEID	IQUANT	13	Cable ID
DCCALDATE	LABEL	7/31/2020	DC Calibration Date
ACCALDATE	LABEL	7/31/2020	AC Calibration Date
THERMOSELECT	IQUANT	1	Thermo Select
FRAMEWORKVERSION	QUANT	6.33	Framework Version
INSTRUMENTVERSION	LABEL	3.50	Instrument Version
COMPLIANCEVOLTAGE	IQUANT	0	Compliance Voltage
ZCURVE	TABLE
	Pt	Time	Freq	Zreal	Zimag	Zsig	Zmod	Zphz	Idc	Vdc	IERange
	#	s	Hz	ohm	ohm	V	ohm	°	A	V	#
	0	8	300046.9	166.5535	-4.672147	1	166.6191	-1.606835	7.587195E-005	-0.0019553	9
	1	11	238359.4	168.0755	-4.343832	1	168.1317	-1.480452	-1.055383E-005	0.0011262	9
	2	14	189328.1	169.181	-3.56475	1	169.2186	-1.207079	1.971326E-005	-0.0017044	9
	3	16	150421.9	171.0247	-3.201095	1	171.0547	-1.072288	-5.990673E-005	0.0009962	9
	4	19	119484.4	172.1137	-2.547611	1	172.1326	-0.8480249	7.077068E-005	-0.0027064	9
	5	22	94921.88	173.1656	-2.122821	1	173.1786	-0.7023483	-1.887026E-005	0.0004101	9
	6	24	75421.88	174.263	-1.857412	1	174.2729	-0.6106737	2.504218E-005	-0.0008023	9
	7	27	59859.37	175.3611	-1.649647	1	175.3689	-0.5389736	1.447824E-005	-0.0007494	9
	8	29	47578.12	176.5023	-1.51281	1	176.5087	-0.4910732	1.38684E-005	-0.0007601	9
	9	32	37828.12	177.8149	-1.299005	1	177.8197	-0.4185599	1.393909E-006	0.0005178	9
	10	34	30046.88	178.9705	-1.262906	1	178.975	-0.4043012	-2.40161E-005	0.0006481	9
	11	37	23859.38	179.9544	-1.237313	1	179.9586	-0.3939426	2.539223E-005	-0.0006712	9
	12	39	18984.38	181.1735	-1.204521	1	181.1775	-0.3809217	-2.109352E-005	0.0009179	9
	13	41	15046.87	181.8469	-1.198852	1	181.8508	-0.3777252	-2.273589E-005	0.0008597	9
	14	44	11953.13	183.271	-1.270375	1	183.2754	-0.3971494	2.377182E-005	-0.0002528	9
	15	46	9515.62	184.4052	-1.427059	1	184.4107	-0.4433869	-1.994033E-005	0.000945	9
	16	48	7546.875	185.7309	-1.323793	1	185.7356	-0.4083675	-2.233639E-005	0.0008466	9
	17	51	5928.309	186.5642	-2.123769	1	186.5763	-0.6522032	-1.586957E-005	0.000949	9
	18	53	4733.456	187.8988	-2.265452	1	187.9124	-0.6907684	-1.561756E-005	0.0009467	9
	19	55	3796.875	188.9011	-3.120739	1	188.9269	-0.9464683	-1.734547E-006	-0.0003363	9
	20	58	2987.132	190.0592	-3.525464	1	190.0919	-1.062675	-1.504331E-006	-0.0003766	9
	21	60	2390.625	191.1921	-4.445043	1	191.2437	-1.331835	9.50469E-007	0.0005399	9
	22	62	1884.191	192.9484	-5.172431	1	193.0177	-1.535579	7.604069E-006	-0.0006344	9
	23	64	1516.544	193.8152	-6.726776	1	193.9319	-1.987776	-2.242154E-005	0.0006522	9
	24	67	1193.986	195.0423	-8.342315	1	195.2207	-2.449152	2.536224E-005	-0.0007759	9
	25	69	946.5144	196.5887	-10.01535	1	196.8437	-2.916453	-1.821875E-005	0.0003652	9
	26	72	751.7689	198.0672	-12.24403	1	198.4453	-3.537383	-1.813279E-005	0.0003311	9
	27	74	597.4265	199.3688	-15.27506	1	199.9531	-4.381278	1.986385E-005	-9.390678E-005	9
	28	76	477.4305	201.0385	-18.83257	1	201.9187	-5.351645	1.157182E-006	5.622309E-005	9
	29	79	376.6741	202.7794	-23.46171	1	204.1321	-6.599813	1.1038E-006	5.891408E-005	9
	30	81	298.2954	204.6528	-29.14986	1	206.7184	-8.106437	1.090345E-006	6.377517E-005	9
	31	83	237.7717	206.7578	-35.9924	1	209.8672	-9.87509	1.15157E-006	5.759217E-005	9
	32	86	189.0121	209.101	-44.54377	1	213.7929	-12.02568	1.108661E-006	5.949767E-005	9
	33	88	150.2404	211.7393	-55.11565	1	218.7951	-14.59029	1.139322E-006	5.081305E-005	9
	34	91	119.1737	214.8002	-68.29176	1	225.395	-17.6371	1.101142E-006	6.209571E-005	9
	35	93	95.0169	218.3491	-84.16702	1	234.0094	-21.08016	1.105257E-006	5.826736E-005	9
	36	95	75.60484	222.572	-103.8503	1	245.6078	-25.01337	1.171936E-006	5.768145E-005	9
	37	98	54.50582	229.4788	-140.108	1	268.8694	-31.4061	1.136166E-006	5.333584E-005	9
	38	100	45.95588	234.4687	-163.7442	1	285.9856	-34.929	1.232531E-006	5.903312E-005	9
	39	103	37.20238	241.2616	-198.4681	1	312.4048	-39.44161	1.205116E-006	5.907795E-005	9
	40	105	30.04808	249.5073	-240.9759	1	346.8764	-44.00351	1.103222E-006	5.683493E-005	9
	41	108	23.91582	260.0471	-296.3997	1	394.3061	-48.73781	1.214688E-006	5.174397E-005	9
	42	110	18.60119	273.1264	-370.6433	1	460.4069	-53.61356	-1.084985E-007	0.0006358	8
	43	112	15.02404	288.4908	-449.617	1	534.2119	-57.31428	-5.871052E-008	0.0006358	8
	44	115	12.01923	308.4457	-549.9476	1	630.5403	-60.71351	1.372513E-007	0.0006284	8
	45	117	9.450605	335.3558	-682.8395	1	760.7452	-63.84344	1.503778E-008	0.0006797	8
	46	120	7.512019	368.3107	-838.9306	1	916.2191	-66.29737	2.642036E-008	0.0006158	8
	47	122	5.978954	410.6898	-1028.231	1	1107.215	-68.22755	5.562886E-008	0.0006307	8
	48	125	4.734848	465.4519	-1264.496	1	1347.441	-69.79171	-2.451171E-008	0.0006022	8
	49	129	3.75601	535.3775	-1550.869	1	1640.677	-70.95474	6.154562E-008	0.0006575	8
	50	132	3.004808	620.6312	-1883.889	1	1983.487	-71.76598	3.99136E-008	0.0006421	8
	51	136	2.372217	739.591	-2310.886	1	2426.354	-72.25291	9.029997E-009	0.0005715	8
	52	140	1.878005	880.6324	-2827.029	1	2961.014	-72.69795	5.193568E-008	0.0006372	8
	53	145	1.512097	1046.892	-3390.681	1	3548.62	-72.84164	1.54968E-008	0.0005855	8
	54	150	1.201923	1266.727	-4133.914	1	4323.638	-72.96372	8.503278E-010	0.0006381	7
	55	156	0.956633	1529.769	-5003.95	1	5232.562	-73.00096	-2.717887E-008	-3.137835E-005	7
