EXPLAIN
TAG	EISPOT
TITLE	LABEL	Potentiostatic EIS	Test Identifier
DATE	LABEL	9/12/2020	Date
TIME	LABEL	22:43:18	Time
NOTES	NOTES	1	Notes...
	
PSTAT	PSTAT	REF3000-16137	Potentiostat
VDC	POTEN	0.00000E+000	T	DC Voltage (V)
FREQINIT	QUANT	3.00000E+005	Initial Freq. (Hz)
FREQFINAL	QUANT	1.00000E+000	Final Freq. (Hz)
PTSPERDEC	QUANT	1.00000E+001	Points/decade
VAC	QUANT	5.00000E+001	AC Voltage (mV rms)
AREA	QUANT	1.00000E+000	Sample Area (cm^2)
SPEED	SELECTOR	2	Optimize for:
ZGUESS	QUANT	1.00000E+003	Estimated Z (ohms)
EOC	QUANT	0	Open Circuit (V)
SEQUENCER	TOGGLE	TRUE	Run as Sequence
PSTATMODEL	IQUANT	5	Pstat Model
PSTATSECTION	LABEL	REF3000-16137	Pstat Section
PSTATSERIALNO	LABEL	16137	Pstat Serial Number
CTRLMODE	IQUANT	1	Control Mode
IESTAB	IQUANT	0	I/E Stability
CASPEED	IQUANT	1	Control Amp Speed
CONVENTION	IQUANT	1	Current Convention
ICHRANGE	IQUANT	2	Ich Range
ICHRANGEMODE	TOGGLE	F	Ich Auto Range
ICHOFFSETENABLE	TOGGLE	T	Ich Offset Enable
ICHOFFSET	QUANT	0	Ich Offset (V)
ICHFILTER	IQUANT	3	Ich Filter
VCHRANGE	IQUANT	2	Vch Range
VCHRANGEMODE	TOGGLE	F	Vch Auto Range
VCHOFFSETENABLE	TOGGLE	T	Vch Offset Enable
VCHOFFSET	QUANT	0	Vch Offset (V)
VCHFILTER	IQUANT	3	Vch Filter
ACHRANGE	IQUANT	2	Ach Range
ACHOFFSETENABLE	TOGGLE	F	Ach Offset Enable
ACHOFFSET	QUANT	0	Ach Offset (V)
ACHFILTER	IQUANT	3	Ach Filter
IERANGELOWERLIMIT	IQUANT	2	I/E Range Lower Limit
IERANGEMODE	TOGGLE	F	I/E AutoRange
IERANGE	IQUANT	11	I/E Range
POSFEEDENABLE	TOGGLE	F	Positive Feedback IR Comp
POSFEEDRESISTANCE	QUANT	0	Positive Feedback Resistance (ohm)
ACHSELECT	IQUANT	0	Ach Select
CABLEID	IQUANT	13	Cable ID
DCCALDATE	LABEL	7/31/2020	DC Calibration Date
ACCALDATE	LABEL	7/31/2020	AC Calibration Date
THERMOSELECT	IQUANT	1	Thermo Select
FRAMEWORKVERSION	QUANT	6.33	Framework Version
INSTRUMENTVERSION	LABEL	3.50	Instrument Version
COMPLIANCEVOLTAGE	IQUANT	0	Compliance Voltage
ZCURVE	TABLE
	Pt	Time	Freq	Zreal	Zimag	Zsig	Zmod	Zphz	Idc	Vdc	IERange
	#	s	Hz	ohm	ohm	V	ohm	°	A	V	#
	0	10	300046.9	6.554642	2.214882	1	6.918745	18.67065	2.365263E-005	0.0002821	10
	1	13	238359.4	6.553309	1.76845	1	6.78773	15.10188	-1.524769E-005	1.201645E-005	10
	2	16	189328.1	6.54548	1.390569	1	6.691561	11.994	2.979631E-005	0.0001869	10
	3	18	150421.9	6.546936	1.098305	1	6.638422	9.52319	4.796453E-005	0.0004636	10
	4	21	119484.4	6.552912	0.842631	1	6.606866	7.327385	8.464495E-006	0.0004296	10
	5	24	94921.88	6.564144	0.6621017	1	6.597452	5.759739	-1.465553E-005	0.0005844	10
	6	26	75421.88	6.571458	0.4830928	1	6.589191	4.204467	-2.665846E-005	0.0005647	10
	7	29	59859.37	6.583725	0.3286473	1	6.591923	2.857727	-2.370874E-005	0.0005962	10
	8	31	47578.12	6.601131	0.1952798	1	6.604019	1.694474	-2.220498E-005	0.0006561	10
	9	34	37828.12	6.618913	0.0742381	1	6.619329	0.6426054	2.538454E-005	0.0006113	10
	10	36	30046.88	6.638511	-0.0385304	1	6.638623	-0.332545	1.76418E-005	0.0006462	10
	11	39	23859.38	6.658841	-0.1522579	1	6.660582	-1.30987	3.80111E-006	0.0005951	10
	12	41	18984.38	6.679673	-0.2693796	1	6.685102	-2.309387	8.054695E-006	0.0006093	10
	13	43	15046.87	6.703761	-0.4008163	1	6.715732	-3.421628	-2.275451E-005	0.0006915	10
	14	46	11953.13	6.729668	-0.5493696	1	6.752055	-4.666934	2.193324E-005	0.0006195	10
	15	48	9515.62	6.760379	-0.7208611	1	6.798704	-6.086467	-1.962824E-005	0.0006402	10
	16	50	7546.875	6.794876	-0.9270352	1	6.857823	-7.768983	1.913736E-005	0.0006304	10
	17	53	5928.309	6.838726	-1.188711	1	6.941268	-9.86066	-2.544027E-005	0.0007143	10
	18	55	4733.456	6.886744	-1.48602	1	7.045247	-12.17658	2.318783E-005	0.0006277	10
	19	57	3796.875	6.944965	-1.840164	1	7.184619	-14.84029	1.733752E-005	0.0006627	10
	20	60	2987.132	7.019406	-2.311043	1	7.39006	-18.22342	-1.80971E-005	0.0006551	10
	21	62	2390.625	7.104601	-2.850594	1	7.655145	-21.86224	-2.955167E-005	0.0006473	10
	22	64	1884.191	7.218612	-3.555778	1	8.046857	-26.22415	2.012477E-005	0.0006438	10
	23	66	1516.544	7.34252	-4.347908	1	8.533282	-30.63209	-1.46443E-005	0.0006818	10
	24	69	1193.986	7.514784	-5.416618	1	9.263462	-35.78387	-2.469706E-005	0.0007183	10
	25	71	946.5144	7.72253	-6.700191	1	10.22399	-40.94543	1.767098E-005	0.0006301	10
	26	74	751.7689	7.979511	-8.272771	1	11.49397	-46.03374	-1.803324E-005	0.0006532	10
	27	76	597.4265	8.301124	-10.20862	1	13.15768	-50.88376	-1.476317E-005	0.0006802	10
	28	78	477.4305	8.699645	-12.51873	1	15.24475	-55.2034	-2.436632E-006	0.0006568	10
	29	81	376.6741	9.237879	-15.52771	1	18.06788	-59.25038	-6.026619E-006	0.0007098	10
	30	83	298.2954	9.92269	-19.18274	1	21.59716	-62.64875	-1.836059E-006	0.0006596	10
	31	85	237.7717	10.78132	-23.53693	1	25.88868	-65.38939	-2.180599E-006	0.0006613	10
	32	88	189.0121	11.90708	-28.92283	1	31.27793	-67.62379	-2.094969E-006	0.0006669	10
	33	90	150.2404	13.35841	-35.4843	1	37.91547	-69.37067	-1.735501E-006	0.0006556	10
	34	92	119.1737	15.23249	-43.48945	1	46.07994	-70.69683	1.273097E-006	5.668535E-005	9
	35	95	95.0169	17.60253	-53.01466	1	55.86057	-71.63221	1.274107E-006	5.855728E-005	9
	36	97	75.60484	20.64618	-64.60279	1	67.82172	-72.27682	1.284502E-006	5.55798E-005	9
	37	100	54.50582	26.4298	-85.35265	1	89.35105	-72.79465	7.041014E-007	0.0001091	9
	38	102	45.95588	30.24339	-98.5174	1	103.0551	-72.9343	1.335517E-006	6.401734E-005	9
	39	105	37.20238	35.84077	-117.4114	1	122.7599	-73.02477	1.338036E-006	6.151947E-005	9
	40	107	30.04808	42.57512	-139.9171	1	146.2513	-73.07561	1.190814E-006	5.834556E-005	9
	41	110	23.91582	51.03949	-168.4996	1	176.0601	-73.14814	1.127878E-006	5.935339E-005	9
	42	112	18.60119	61.95394	-206.5259	1	215.6183	-73.30173	1.169983E-006	5.576739E-005	9
	43	114	15.02404	72.56351	-245.5395	1	256.0373	-73.53618	1.460976E-006	7.63529E-005	9
	44	116	12.01923	84.94051	-294.495	1	306.4999	-73.91097	1.413425E-006	6.050666E-005	9
	45	119	9.450605	99.8494	-358.8434	1	372.4762	-74.45059	1.369671E-006	5.232011E-005	9
	46	121	7.512019	115.5005	-432.9139	1	448.0567	-75.06157	5.81237E-007	0.0006177	8
	47	124	5.978954	133.5508	-525.4706	1	542.1763	-75.73994	6.173919E-007	0.0006465	8
	48	127	4.734848	154.7714	-642.4216	1	660.8023	-76.45451	5.675636E-007	0.0006668	8
	49	130	3.75601	180.3301	-786.2368	1	806.6519	-77.08215	6.852832E-007	0.0006507	8
	50	134	3.004808	209.2088	-956.48	1	979.092	-77.66212	6.639241E-007	0.0006195	8
	51	138	2.372217	247.7337	-1180.562	1	1206.274	-78.14879	6.289885E-007	0.0005562	8
	52	142	1.878005	291.5913	-1454.923	1	1483.856	-78.6671	6.727551E-007	0.000642	8
	53	147	1.512097	343.1863	-1762.739	1	1795.836	-78.98295	6.10507E-007	0.0006034	8
	54	152	1.201923	409.6205	-2174.91	1	2213.147	-79.33391	6.673038E-007	0.0006646	8
	55	158	0.956633	493.208	-2674.173	1	2719.275	-79.55015	6.323271E-007	-3.972399E-006	8
