EXPLAIN
TAG	EISPOT
TITLE	LABEL	Potentiostatic EIS	Test Identifier
DATE	LABEL	9/12/2020	Date
TIME	LABEL	22:59:56	Time
NOTES	NOTES	1	Notes...
	
PSTAT	PSTAT	REF3000-16137	Potentiostat
VDC	POTEN	0.00000E+000	T	DC Voltage (V)
FREQINIT	QUANT	3.00000E+005	Initial Freq. (Hz)
FREQFINAL	QUANT	1.00000E+000	Final Freq. (Hz)
PTSPERDEC	QUANT	1.00000E+001	Points/decade
VAC	QUANT	5.00000E+001	AC Voltage (mV rms)
AREA	QUANT	1.00000E+000	Sample Area (cm^2)
SPEED	SELECTOR	2	Optimize for:
ZGUESS	QUANT	1.00000E+003	Estimated Z (ohms)
EOC	QUANT	0	Open Circuit (V)
SEQUENCER	TOGGLE	TRUE	Run as Sequence
PSTATMODEL	IQUANT	5	Pstat Model
PSTATSECTION	LABEL	REF3000-16137	Pstat Section
PSTATSERIALNO	LABEL	16137	Pstat Serial Number
CTRLMODE	IQUANT	1	Control Mode
IESTAB	IQUANT	0	I/E Stability
CASPEED	IQUANT	1	Control Amp Speed
CONVENTION	IQUANT	1	Current Convention
ICHRANGE	IQUANT	2	Ich Range
ICHRANGEMODE	TOGGLE	F	Ich Auto Range
ICHOFFSETENABLE	TOGGLE	T	Ich Offset Enable
ICHOFFSET	QUANT	0	Ich Offset (V)
ICHFILTER	IQUANT	3	Ich Filter
VCHRANGE	IQUANT	2	Vch Range
VCHRANGEMODE	TOGGLE	F	Vch Auto Range
VCHOFFSETENABLE	TOGGLE	T	Vch Offset Enable
VCHOFFSET	QUANT	0	Vch Offset (V)
VCHFILTER	IQUANT	3	Vch Filter
ACHRANGE	IQUANT	2	Ach Range
ACHOFFSETENABLE	TOGGLE	F	Ach Offset Enable
ACHOFFSET	QUANT	0	Ach Offset (V)
ACHFILTER	IQUANT	3	Ach Filter
IERANGELOWERLIMIT	IQUANT	2	I/E Range Lower Limit
IERANGEMODE	TOGGLE	F	I/E AutoRange
IERANGE	IQUANT	11	I/E Range
POSFEEDENABLE	TOGGLE	F	Positive Feedback IR Comp
POSFEEDRESISTANCE	QUANT	0	Positive Feedback Resistance (ohm)
ACHSELECT	IQUANT	0	Ach Select
CABLEID	IQUANT	13	Cable ID
DCCALDATE	LABEL	7/31/2020	DC Calibration Date
ACCALDATE	LABEL	7/31/2020	AC Calibration Date
THERMOSELECT	IQUANT	1	Thermo Select
FRAMEWORKVERSION	QUANT	6.33	Framework Version
INSTRUMENTVERSION	LABEL	3.50	Instrument Version
COMPLIANCEVOLTAGE	IQUANT	0	Compliance Voltage
ZCURVE	TABLE
	Pt	Time	Freq	Zreal	Zimag	Zsig	Zmod	Zphz	Idc	Vdc	IERange
	#	s	Hz	ohm	ohm	V	ohm	°	A	V	#
	0	7	300046.9	19.12809	1.9899	1	19.23132	5.93913	1.938146E-005	0.0002499	10
	1	11	238359.4	19.17859	1.594507	1	19.24476	4.752636	-0.0001075	0.0002741	10
	2	14	189328.1	19.24895	1.254157	1	19.28976	3.727813	8.478542E-005	0.0001332	10
	3	16	150421.9	19.31344	0.991176	1	19.33886	2.937871	4.86159E-005	0.0006842	10
	4	19	119484.4	19.35867	0.7481312	1	19.37312	2.21314	1.56626E-005	0.0005114	10
	5	21	94921.88	19.42274	0.5675799	1	19.43103	1.673846	2.364899E-005	0.0005712	10
	6	24	75421.88	19.49989	0.3999999	1	19.50399	1.17514	-2.457758E-005	0.0006658	10
	7	26	59859.37	19.57025	0.2550662	1	19.57191	0.7467143	-5.579505E-006	0.0006253	10
	8	29	47578.12	19.64598	0.1277435	1	19.64639	0.3725474	-9.991621E-006	0.0006257	10
	9	32	37828.12	19.72385	0.0102418	1	19.72385	0.0297515	-1.92983E-005	0.000717	10
	10	34	30046.88	19.80006	-0.10577	1	19.80035	-0.3060655	2.575312E-005	0.0006404	10
	11	37	23859.38	19.8769	-0.224727	1	19.87817	-0.6477551	-1.198054E-005	0.000634	10
	12	39	18984.38	19.9542	-0.3510739	1	19.95729	-1.007957	-2.914477E-005	0.0006586	10
	13	41	15046.87	20.02899	-0.4956066	1	20.03512	-1.417464	-1.214535E-005	0.0007209	10
	14	44	11953.13	20.11828	-0.6540855	1	20.12891	-1.862144	-1.404051E-005	0.0007256	10
	15	46	9515.62	20.1991	-0.8490637	1	20.21694	-2.406996	2.004813E-005	0.0006079	10
	16	48	7546.875	20.28647	-1.086602	1	20.31555	-3.065999	-2.720898E-005	0.0006484	10
	17	51	5928.309	20.38569	-1.382665	1	20.43252	-3.880159	-1.697777E-005	0.0006513	10
	18	53	4733.456	20.49488	-1.724511	1	20.56731	-4.809738	5.221996E-006	0.0005921	10
	19	55	3796.875	20.60617	-2.131656	1	20.71614	-5.906094	-3.006419E-005	0.0006494	10
	20	57	2987.132	20.73799	-2.678016	1	20.91018	-7.358215	-4.314715E-006	0.000678	10
	21	60	2390.625	20.87817	-3.308305	1	21.13866	-9.004091	-2.776984E-005	0.0006514	10
	22	62	1884.191	21.04366	-4.136115	1	21.44628	-11.1197	1.948727E-005	0.0005975	10
	23	64	1516.544	21.2298	-5.066207	1	21.82592	-13.42185	5.861817E-006	0.000659	10
	24	67	1193.986	21.46791	-6.324787	1	22.38022	-16.41581	5.566958E-006	0.0005955	10
	25	69	946.5144	21.74457	-7.850315	1	23.11825	-19.85081	-3.241349E-006	0.0007076	10
	26	72	751.7689	22.07822	-9.71128	1	24.11963	-23.74268	2.439314E-005	0.0006264	10
	27	74	597.4265	22.48313	-11.99385	1	25.48222	-28.07814	-2.897391E-005	0.0006858	10
	28	76	477.4305	22.95558	-14.73106	1	27.27568	-32.6891	-1.653775E-006	0.0006549	10
	29	79	376.6741	23.56841	-18.29329	1	29.83478	-37.81784	-2.21085E-006	0.0006569	10
	30	81	298.2954	24.31101	-22.62993	1	33.21354	-42.94896	-1.796562E-006	0.0006589	10
	31	83	237.7717	25.20905	-27.82016	1	37.54275	-47.81892	-2.170423E-006	0.0006598	10
	32	86	189.0121	26.30648	-34.23842	1	43.17754	-52.46377	1.314995E-006	5.328696E-005	9
	33	88	150.2404	27.72361	-42.17209	1	50.46864	-56.67939	8.27954E-007	0.0001068	9
	34	90	119.1737	29.53296	-52.03018	1	59.82755	-60.42023	8.595574E-007	0.0001159	9
	35	93	95.0169	31.78923	-63.85622	1	71.33142	-63.53473	1.252399E-006	5.524275E-005	9
	36	95	75.60484	34.70279	-78.45557	1	85.78787	-66.13904	1.260364E-006	5.829089E-005	9
	37	98	54.50582	40.3326	-105.1326	1	112.6036	-69.01141	1.230428E-006	4.926348E-005	9
	38	100	45.95588	44.21002	-122.3774	1	130.1183	-70.13726	1.311926E-006	5.602531E-005	9
	39	103	37.20238	50.11103	-147.4778	1	155.7588	-71.2329	1.326514E-006	6.011292E-005	9
	40	105	30.04808	57.58701	-177.8096	1	186.9025	-72.05447	1.329998E-006	5.149664E-005	9
	41	108	23.91582	67.71163	-216.782	1	227.1108	-72.65386	1.417854E-006	5.596268E-005	9
	42	110	18.60119	81.87078	-268.7679	1	280.9609	-73.05847	1.12819E-006	5.725169E-005	9
	43	112	15.02404	96.9905	-322.0665	1	336.354	-73.2403	1.414779E-006	5.722579E-005	9
	44	115	12.01923	116.3375	-388.3383	1	405.39	-73.32295	1.251836E-006	5.175684E-005	9
	45	117	9.450605	141.1652	-471.6027	1	492.277	-73.33594	5.533529E-007	0.0006358	8
	46	119	7.512019	170.0296	-569.2076	1	594.0601	-73.36845	5.625939E-007	0.0006494	8
	47	122	5.978954	203.7658	-684.8362	1	714.5076	-73.43018	5.008117E-007	0.0006366	8
	48	125	4.734848	243.8949	-828.0378	1	863.21	-73.58789	5.799284E-007	0.000625	8
	49	128	3.75601	288.2415	-1000.096	1	1040.805	-73.92228	5.387146E-007	0.000637	8
	50	132	3.004808	336.6465	-1200.758	1	1247.057	-74.33855	5.914816E-007	0.0006053	8
	51	136	2.372217	393.5556	-1461.563	1	1513.622	-74.9294	5.742673E-007	0.0005864	8
	52	140	1.878005	459.9961	-1780.412	1	1838.875	-75.51357	5.585699E-007	0.0006455	8
	53	145	1.512097	531.3046	-2142.653	1	2207.543	-76.07351	5.381433E-007	0.0005336	8
	54	150	1.201923	614.2061	-2618.456	1	2689.528	-76.7989	5.563849E-007	0.0006607	8
	55	156	0.956633	712.1384	-3201.526	1	3279.772	-77.45946	5.517024E-007	-4.929833E-006	8
