EXPLAIN
TAG	EISPOT
TITLE	LABEL	Potentiostatic EIS	Test Identifier
DATE	LABEL	9/12/2020	Date
TIME	LABEL	23:16:34	Time
NOTES	NOTES	1	Notes...
	
PSTAT	PSTAT	REF3000-16137	Potentiostat
VDC	POTEN	0.00000E+000	T	DC Voltage (V)
FREQINIT	QUANT	3.00000E+005	Initial Freq. (Hz)
FREQFINAL	QUANT	1.00000E+000	Final Freq. (Hz)
PTSPERDEC	QUANT	1.00000E+001	Points/decade
VAC	QUANT	5.00000E+001	AC Voltage (mV rms)
AREA	QUANT	1.00000E+000	Sample Area (cm^2)
SPEED	SELECTOR	2	Optimize for:
ZGUESS	QUANT	1.00000E+003	Estimated Z (ohms)
EOC	QUANT	0	Open Circuit (V)
SEQUENCER	TOGGLE	TRUE	Run as Sequence
PSTATMODEL	IQUANT	5	Pstat Model
PSTATSECTION	LABEL	REF3000-16137	Pstat Section
PSTATSERIALNO	LABEL	16137	Pstat Serial Number
CTRLMODE	IQUANT	1	Control Mode
IESTAB	IQUANT	0	I/E Stability
CASPEED	IQUANT	1	Control Amp Speed
CONVENTION	IQUANT	1	Current Convention
ICHRANGE	IQUANT	2	Ich Range
ICHRANGEMODE	TOGGLE	F	Ich Auto Range
ICHOFFSETENABLE	TOGGLE	T	Ich Offset Enable
ICHOFFSET	QUANT	0	Ich Offset (V)
ICHFILTER	IQUANT	3	Ich Filter
VCHRANGE	IQUANT	2	Vch Range
VCHRANGEMODE	TOGGLE	F	Vch Auto Range
VCHOFFSETENABLE	TOGGLE	T	Vch Offset Enable
VCHOFFSET	QUANT	0	Vch Offset (V)
VCHFILTER	IQUANT	3	Vch Filter
ACHRANGE	IQUANT	2	Ach Range
ACHOFFSETENABLE	TOGGLE	F	Ach Offset Enable
ACHOFFSET	QUANT	0	Ach Offset (V)
ACHFILTER	IQUANT	3	Ach Filter
IERANGELOWERLIMIT	IQUANT	2	I/E Range Lower Limit
IERANGEMODE	TOGGLE	F	I/E AutoRange
IERANGE	IQUANT	11	I/E Range
POSFEEDENABLE	TOGGLE	F	Positive Feedback IR Comp
POSFEEDRESISTANCE	QUANT	0	Positive Feedback Resistance (ohm)
ACHSELECT	IQUANT	0	Ach Select
CABLEID	IQUANT	13	Cable ID
DCCALDATE	LABEL	7/31/2020	DC Calibration Date
ACCALDATE	LABEL	7/31/2020	AC Calibration Date
THERMOSELECT	IQUANT	1	Thermo Select
FRAMEWORKVERSION	QUANT	6.33	Framework Version
INSTRUMENTVERSION	LABEL	3.50	Instrument Version
COMPLIANCEVOLTAGE	IQUANT	0	Compliance Voltage
ZCURVE	TABLE
	Pt	Time	Freq	Zreal	Zimag	Zsig	Zmod	Zphz	Idc	Vdc	IERange
	#	s	Hz	ohm	ohm	V	ohm	°	A	V	#
	0	7	300046.9	113.2769	-0.3432215	1	113.2774	-0.1736019	-8.373469E-006	0.0009853	9
	1	10	238359.4	114.2676	-0.641436	1	114.2694	-0.3216239	-6.9544E-005	0.0026961	9
	2	13	189328.1	115.0209	-0.681688	1	115.0229	-0.3395678	1.710707E-005	-0.0009918	9
	3	16	150421.9	115.8739	-0.4383275	1	115.8747	-0.2167373	6.54067E-005	-0.0025543	9
	4	18	119484.4	116.7325	-0.4707457	1	116.7334	-0.2310548	6.659937E-005	-0.0025617	9
	5	21	94921.88	117.3325	-0.2982878	1	117.3329	-0.1456595	2.173667E-005	-0.0003335	9
	6	23	75421.88	118.125	-0.4329444	1	118.1258	-0.209996	-2.155364E-005	0.0007309	9
	7	26	59859.37	118.8148	-0.4688504	1	118.8157	-0.2260915	2.763139E-005	-0.0007638	9
	8	28	47578.12	119.4904	-0.5350807	1	119.4916	-0.25657	2.250669E-005	-0.0007231	9
	9	31	37828.12	120.2722	-0.4882847	1	120.2732	-0.2326099	-1.38645E-005	0.0008768	9
	10	33	30046.88	120.9323	-0.5669534	1	120.9336	-0.2686114	-2.013458E-005	0.0004504	9
	11	36	23859.38	121.7808	-0.6978279	1	121.7828	-0.3283124	-1.422852E-006	0.0005673	9
	12	38	18984.38	122.3238	-0.7182781	1	122.3259	-0.3364335	2.507218E-005	-0.0006501	9
	13	40	15046.87	122.9454	-0.7991961	1	122.948	-0.372441	-8.893808E-006	-7.132124E-005	9
	14	43	11953.13	123.7547	-0.8373623	1	123.7575	-0.387675	-2.111344E-005	0.0004457	9
	15	45	9515.62	124.3919	-1.18744	1	124.3976	-0.5469266	-1.72304E-005	0.0005198	9
	16	47	7546.875	125.0086	-1.347435	1	125.0158	-0.6175522	-1.430181E-005	0.0001168	9
	17	50	5928.309	125.8139	-1.76751	1	125.8263	-0.8048732	2.437661E-005	-0.0004711	9
	18	52	4733.456	126.4676	-2.077354	1	126.4847	-0.9410545	2.241755E-005	-0.0002673	9
	19	54	3796.875	127.298	-2.741539	1	127.3275	-1.233754	-1.350187E-005	0.0001112	9
	20	57	2987.132	128.0994	-3.334245	1	128.1427	-1.490991	2.476096E-005	-0.0006073	9
	21	59	2390.625	128.7753	-4.082041	1	128.84	-1.815608	1.860599E-005	-0.0001338	9
	22	61	1884.191	129.4585	-4.956423	1	129.5533	-2.192545	-1.892174E-005	0.0008702	9
	23	64	1516.544	130.4131	-6.153084	1	130.5582	-2.701296	2.49111E-005	-0.0004725	9
	24	66	1193.986	131.3237	-7.738521	1	131.5516	-3.372371	-6.774031E-006	0.0007466	9
	25	68	946.5144	132.2768	-9.56967	1	132.6225	-4.137899	1.901603E-005	-7.587562E-005	9
	26	71	751.7689	133.1371	-11.73403	1	133.6532	-5.036745	-1.865644E-005	0.0008702	9
	27	73	597.4265	134.3322	-14.71019	1	135.1352	-6.249334	-2.143646E-005	0.0007794	9
	28	75	477.4305	135.3914	-18.08719	1	136.5942	-7.609199	1.176361E-006	5.400089E-005	9
	29	78	376.6741	136.6622	-22.5451	1	138.5093	-9.367691	1.175148E-006	4.974764E-005	9
	30	80	298.2954	138.0728	-28.00655	1	140.8846	-11.46626	1.177318E-006	5.673524E-005	9
	31	82	237.7717	139.6821	-34.56631	1	143.8955	-13.89941	1.164235E-006	5.084553E-005	9
	32	85	189.0121	141.5538	-42.75883	1	147.8709	-16.80787	1.141371E-006	6.012255E-005	9
	33	87	150.2404	143.7373	-52.8587	1	153.1485	-20.19076	1.252139E-006	5.423075E-005	9
	34	90	119.1737	146.3254	-65.42623	1	160.2864	-24.09077	1.109735E-006	5.953696E-005	9
	35	92	95.0169	149.3368	-80.54148	1	169.6714	-28.33922	7.21192E-007	0.0001113	9
	36	95	75.60484	153.0279	-99.2506	1	182.3958	-32.96657	1.181076E-006	5.800931E-005	9
	37	97	54.50582	159.3029	-133.6811	1	207.9617	-40.00214	1.226132E-006	4.823804E-005	9
	38	100	45.95588	163.7286	-156.142	1	226.2463	-43.64133	1.192325E-006	5.317374E-005	9
	39	102	37.20238	169.9246	-189.1325	1	254.2547	-48.06215	1.13239E-006	6.132409E-005	9
	40	104	30.04808	177.5974	-229.6032	1	290.2731	-52.27816	1.285702E-006	5.085845E-005	9
	41	107	23.91582	187.6424	-282.3049	1	338.9775	-56.38882	1.143226E-006	0.0001059	9
	42	109	18.60119	201.411	-354.2617	1	407.5141	-60.38015	1.050302E-006	5.154852E-005	9
	43	111	15.02404	215.6675	-427.6736	1	478.9752	-63.23908	1.050219E-008	0.0006277	8
	44	114	12.01923	235.3723	-522.4806	1	573.0498	-65.74891	1.98873E-007	0.0006383	8
	45	116	9.450605	262.6317	-647.8755	1	699.0837	-67.93365	2.06653E-007	0.0006333	8
	46	119	7.512019	296.1534	-794.2769	1	847.6925	-69.55157	2.032027E-007	0.0006522	8
	47	121	5.978954	338.1467	-971.385	1	1028.558	-70.80659	1.949139E-007	0.0006311	8
	48	125	4.734848	394.3347	-1192.005	1	1255.538	-71.69495	1.427275E-007	0.0006434	8
	49	128	3.75601	463.5013	-1457.541	1	1529.463	-72.35921	1.634273E-007	0.0006402	8
	50	131	3.004808	548.5706	-1764.105	1	1847.43	-72.72626	9.017798E-008	0.0006647	8
	51	135	2.372217	659.6558	-2156.526	1	2255.161	-72.99175	1.255749E-007	0.0006804	8
	52	139	1.878005	801.4125	-2624.384	1	2744.022	-73.01881	1.290718E-007	0.0006055	8
	53	144	1.512097	960.175	-3143.016	1	3286.41	-73.01236	1.25483E-007	0.0007259	8
	54	149	1.201923	1158.259	-3802.82	1	3975.299	-73.06037	1.3235E-007	0.0006658	8
	55	156	0.956633	1393.758	-4597.344	1	4803.97	-73.13448	-1.519322E-008	-2.766423E-005	7
