EXPLAIN
TAG	EISPOT
TITLE	LABEL	Potentiostatic EIS	Test Identifier
DATE	LABEL	9/13/2020	Date
TIME	LABEL	14:01:46	Time
NOTES	NOTES	1	Notes...
	
PSTAT	PSTAT	REF3000-16137	Potentiostat
VDC	POTEN	0.00000E+000	T	DC Voltage (V)
FREQINIT	QUANT	3.00000E+005	Initial Freq. (Hz)
FREQFINAL	QUANT	1.00000E+000	Final Freq. (Hz)
PTSPERDEC	QUANT	1.00000E+001	Points/decade
VAC	QUANT	5.00000E+001	AC Voltage (mV rms)
AREA	QUANT	1.00000E+000	Sample Area (cm^2)
SPEED	SELECTOR	2	Optimize for:
ZGUESS	QUANT	1.00000E+003	Estimated Z (ohms)
EOC	QUANT	0	Open Circuit (V)
SEQUENCER	TOGGLE	TRUE	Run as Sequence
PSTATMODEL	IQUANT	5	Pstat Model
PSTATSECTION	LABEL	REF3000-16137	Pstat Section
PSTATSERIALNO	LABEL	16137	Pstat Serial Number
CTRLMODE	IQUANT	1	Control Mode
IESTAB	IQUANT	0	I/E Stability
CASPEED	IQUANT	1	Control Amp Speed
CONVENTION	IQUANT	1	Current Convention
ICHRANGE	IQUANT	2	Ich Range
ICHRANGEMODE	TOGGLE	F	Ich Auto Range
ICHOFFSETENABLE	TOGGLE	T	Ich Offset Enable
ICHOFFSET	QUANT	0	Ich Offset (V)
ICHFILTER	IQUANT	3	Ich Filter
VCHRANGE	IQUANT	2	Vch Range
VCHRANGEMODE	TOGGLE	F	Vch Auto Range
VCHOFFSETENABLE	TOGGLE	T	Vch Offset Enable
VCHOFFSET	QUANT	0	Vch Offset (V)
VCHFILTER	IQUANT	3	Vch Filter
ACHRANGE	IQUANT	2	Ach Range
ACHOFFSETENABLE	TOGGLE	F	Ach Offset Enable
ACHOFFSET	QUANT	0	Ach Offset (V)
ACHFILTER	IQUANT	3	Ach Filter
IERANGELOWERLIMIT	IQUANT	2	I/E Range Lower Limit
IERANGEMODE	TOGGLE	F	I/E AutoRange
IERANGE	IQUANT	11	I/E Range
POSFEEDENABLE	TOGGLE	F	Positive Feedback IR Comp
POSFEEDRESISTANCE	QUANT	0	Positive Feedback Resistance (ohm)
ACHSELECT	IQUANT	0	Ach Select
CABLEID	IQUANT	13	Cable ID
DCCALDATE	LABEL	7/31/2020	DC Calibration Date
ACCALDATE	LABEL	7/31/2020	AC Calibration Date
THERMOSELECT	IQUANT	1	Thermo Select
FRAMEWORKVERSION	QUANT	6.33	Framework Version
INSTRUMENTVERSION	LABEL	3.50	Instrument Version
COMPLIANCEVOLTAGE	IQUANT	0	Compliance Voltage
ZCURVE	TABLE
	Pt	Time	Freq	Zreal	Zimag	Zsig	Zmod	Zphz	Idc	Vdc	IERange
	#	s	Hz	ohm	ohm	V	ohm	°	A	V	#
	0	20	300046.9	166.5502	-4347.703	1	4350.892	-87.80621	-2.184508E-005	0.0010176	9
	1	40	238359.4	272.8325	-5463.323	1	5470.131	-87.14108	2.135386E-006	-0.0020613	9
	2	58	189328.1	407.5308	-6853.631	1	6865.736	-86.59708	2.034774E-005	-0.0008983	9
	3	66	150421.9	663.5322	-8065.448	1	8092.696	-85.29695	1.909303E-005	-0.000282	9
	4	74	119484.4	1172.843	-10223.56	1	10290.62	-83.45566	-1.84122E-005	0.0171385	8
	5	81	94921.88	1594.505	-12695.9	1	12795.64	-82.84158	-1.946395E-005	0.0111739	8
	6	90	75421.88	1932.095	-15920.15	1	16036.96	-83.08033	2.219627E-005	-0.0096712	8
	7	98	59859.37	2877.123	-19884.64	1	20091.71	-81.76697	-2.390263E-005	0.0052642	8
	8	107	47578.12	6718.257	-25311.65	1	26188.06	-75.13521	4.816243E-006	-0.0008287	7
	9	114	37828.12	4833.393	-30819.65	1	31196.36	-81.087	-1.507223E-005	1.932486E-005	9
	10	123	30046.88	10117.42	-38240.96	1	39556.71	-75.18079	3.418149E-006	-0.0240997	7
	11	130	23859.38	11638.47	-59086.53	1	60221.86	-78.85691	2.276779E-005	-0.0028624	8
	12	137	18984.38	16313.54	-57808.62	1	60066.37	-74.24097	5.036181E-006	-0.0256293	7
	13	143	15046.87	22546.1	-71466.47	1	74938.52	-72.49066	-7.270509E-006	0.0182258	7
	14	148	11953.13	27616.89	-86562.64	1	90861.34	-72.30527	1.735766E-005	0.0003094	8
	15	157	9515.62	40343.7	-104956.3	1	112443	-68.97395	5.06683E-006	-0.0257922	7
	16	163	7546.875	59065.41	-123001.4	1	136448.1	-64.34963	-3.72085E-006	0.0250509	7
	17	169	5928.309	81185.55	-149254.2	1	169905.6	-61.4564	-5.279724E-006	0.0263458	7
	18	175	4733.456	101332.3	-180434.2	1	206941.4	-60.68132	-6.560861E-006	0.0117237	7
	19	181	3796.875	152883.1	-186064	1	240817.5	-50.59109	4.795415E-007	0.016012	7
	20	187	2987.132	188716.4	-197415.9	1	273106.1	-46.29066	-5.275701E-006	0.003775	7
	21	193	2390.625	97620.2	-56030.67	1	112557.3	-29.85436	-8.821668E-006	-0.0021777	8
	22	201	1884.191	281644	-221335	1	358207.3	-38.16267	-1.688686E-006	0.0215477	7
	23	206	1516.544	290494.2	-240294.7	1	376999.2	-39.59731	-1.705183E-006	0.0213742	7
	24	215	1193.986	394490.6	-205090	1	444617.6	-27.46927	-5.537036E-007	0.0261608	6
	25	221	946.5144	565930.7	-233211.6	1	612099	-22.39583	5.444798E-006	-0.0269668	7
	26	226	751.7689	349776.3	-322547.3	1	475794.3	-42.6808	6.879957E-006	-0.0270477	7
	27	231	597.4265	306639.9	-170692.3	1	350947.1	-29.10268	1.38308E-006	-0.0201154	7
	28	235	477.4305	540772.6	-141196.7	1	558902.1	-14.63334	-9.518361E-009	0.0006433	6
	29	239	376.6741	596782.6	-65963.48	1	600417	-6.307405	-1.44374E-009	0.0006106	5
	30	241	298.2954	603918.4	-52299	1	606178.7	-4.949435	-1.237385E-009	0.0006657	5
	31	243	237.7717	614229.8	-47773.04	1	616084.8	-4.44735	-1.391208E-009	0.0007051	5
	32	246	189.0121	622183.3	-40106.36	1	623474.6	-3.688223	-1.516945E-009	0.0006659	5
	33	248	150.2404	633571.8	-35197.18	1	634548.8	-3.179717	-1.41862E-009	0.0007012	5
	34	251	119.1737	627135.9	-35134.97	1	628119.4	-3.206614	-1.533633E-009	0.0006184	5
	35	254	95.0169	652908.8	-25279.4	1	653397.9	-2.217278	-1.261851E-009	0.0006193	5
	36	256	75.60484	665742.6	-19442.66	1	666026.5	-1.672817	-1.453497E-009	0.0006575	5
	37	259	54.50582	664454.6	-13419.12	1	664590.1	-1.156971	-1.531417E-009	0.0006399	5
	38	262	45.95588	683786.4	-16736.32	1	683991.2	-1.402088	-1.389018E-009	0.0006599	5
	39	264	37.20238	692303.8	-11153.36	1	692393.6	-0.9229835	-1.294551E-009	0.0005761	5
	40	266	30.04808	702417.9	-11353.28	1	702509.6	-0.9259992	-1.422122E-009	0.0006569	5
	41	269	23.91582	712749.1	-9767.34	1	712816	-0.7851185	-1.269132E-009	0.000578	5
	42	272	18.60119	729095.3	-9165.156	1	729152.9	-0.7202037	-1.01476E-009	0.0005815	5
	43	274	15.02404	733144.3	-7546.807	1	733183.1	-0.5897678	-1.176178E-009	0.0006084	5
	44	277	12.01923	744299.4	-6625.486	1	744328.9	-0.5100129	-1.190058E-009	0.0006752	5
	45	279	9.450605	753640.1	-6231.039	1	753665.9	-0.4737063	-1.274641E-009	0.0006295	5
	46	282	7.512019	765105.4	-5975.594	1	765128.8	-0.44748	-1.192334E-009	0.0006034	5
	47	285	5.978954	781697.3	-6319.36	1	781722.9	-0.4631777	-1.070849E-009	0.0006448	5
	48	289	4.734848	798068.5	-6329.166	1	798093.6	-0.4543807	-1.106882E-009	0.0005665	5
	49	292	3.75601	818421.3	-6742.057	1	818449	-0.4719852	-1.269194E-009	0.0006424	5
	50	298	3.004808	845512.9	-7460.392	1	845545.8	-0.5055368	-7.836451E-010	0.0005688	5
	51	304	2.372217	870736.3	-7984.137	1	870772.9	-0.5253537	-1.135909E-009	0.0005988	5
	52	309	1.878005	892458.4	-9542.92	1	892509.4	-0.6126319	-6.936782E-010	0.0006322	5
	53	313	1.512097	918002.7	-11404.6	1	918073.5	-0.7117645	-4.914106E-010	0.0005282	5
	54	319	1.201923	948548.4	-13582.47	1	948645.7	-0.8203748	-7.944811E-010	0.000647	5
	55	325	0.956633	982827	-16988.35	1	982973	-0.99027	-1.86801E-009	1.024687E-005	5
