EXPLAIN
TAG	EISPOT
TITLE	LABEL	Potentiostatic EIS	Test Identifier
DATE	LABEL	9/13/2020	Date
TIME	LABEL	13:36:32	Time
NOTES	NOTES	1	Notes...
	
PSTAT	PSTAT	REF3000-16137	Potentiostat
VDC	POTEN	0.00000E+000	T	DC Voltage (V)
FREQINIT	QUANT	3.00000E+005	Initial Freq. (Hz)
FREQFINAL	QUANT	1.00000E+000	Final Freq. (Hz)
PTSPERDEC	QUANT	1.00000E+001	Points/decade
VAC	QUANT	5.00000E+001	AC Voltage (mV rms)
AREA	QUANT	1.00000E+000	Sample Area (cm^2)
SPEED	SELECTOR	2	Optimize for:
ZGUESS	QUANT	1.00000E+003	Estimated Z (ohms)
EOC	QUANT	0	Open Circuit (V)
SEQUENCER	TOGGLE	TRUE	Run as Sequence
PSTATMODEL	IQUANT	5	Pstat Model
PSTATSECTION	LABEL	REF3000-16137	Pstat Section
PSTATSERIALNO	LABEL	16137	Pstat Serial Number
CTRLMODE	IQUANT	1	Control Mode
IESTAB	IQUANT	0	I/E Stability
CASPEED	IQUANT	1	Control Amp Speed
CONVENTION	IQUANT	1	Current Convention
ICHRANGE	IQUANT	2	Ich Range
ICHRANGEMODE	TOGGLE	F	Ich Auto Range
ICHOFFSETENABLE	TOGGLE	T	Ich Offset Enable
ICHOFFSET	QUANT	0	Ich Offset (V)
ICHFILTER	IQUANT	3	Ich Filter
VCHRANGE	IQUANT	2	Vch Range
VCHRANGEMODE	TOGGLE	F	Vch Auto Range
VCHOFFSETENABLE	TOGGLE	T	Vch Offset Enable
VCHOFFSET	QUANT	0	Vch Offset (V)
VCHFILTER	IQUANT	3	Vch Filter
ACHRANGE	IQUANT	2	Ach Range
ACHOFFSETENABLE	TOGGLE	F	Ach Offset Enable
ACHOFFSET	QUANT	0	Ach Offset (V)
ACHFILTER	IQUANT	3	Ach Filter
IERANGELOWERLIMIT	IQUANT	2	I/E Range Lower Limit
IERANGEMODE	TOGGLE	F	I/E AutoRange
IERANGE	IQUANT	11	I/E Range
POSFEEDENABLE	TOGGLE	F	Positive Feedback IR Comp
POSFEEDRESISTANCE	QUANT	0	Positive Feedback Resistance (ohm)
ACHSELECT	IQUANT	0	Ach Select
CABLEID	IQUANT	13	Cable ID
DCCALDATE	LABEL	7/31/2020	DC Calibration Date
ACCALDATE	LABEL	7/31/2020	AC Calibration Date
THERMOSELECT	IQUANT	1	Thermo Select
FRAMEWORKVERSION	QUANT	6.33	Framework Version
INSTRUMENTVERSION	LABEL	3.50	Instrument Version
COMPLIANCEVOLTAGE	IQUANT	0	Compliance Voltage
ZCURVE	TABLE
	Pt	Time	Freq	Zreal	Zimag	Zsig	Zmod	Zphz	Idc	Vdc	IERange
	#	s	Hz	ohm	ohm	V	ohm	°	A	V	#
	0	11	300046.9	262.9813	-15.79644	1	263.4553	-3.437444	-2.767872E-005	-0.0009528	9
	1	15	238359.4	268.2507	-17.53948	1	268.8235	-3.740939	8.512805E-005	0.0000986	10
	2	21	189328.1	273.2481	-15.04605	1	273.662	-3.151735	-9.233075E-005	0.0007914	10
	3	25	150421.9	277.715	-9.411599	1	277.8744	-1.940978	2.306905E-005	-0.0013818	9
	4	30	119484.4	282.3718	-8.362496	1	282.4956	-1.69633	7.199551E-005	-0.0015507	9
	5	34	94921.88	285.9898	-6.748704	1	286.0694	-1.351798	2.386107E-005	-0.0002993	9
	6	37	75421.88	289.9873	-5.519272	1	290.0399	-1.090368	-8.410527E-006	-0.0001702	9
	7	41	59859.37	292.6732	-5.096669	1	292.7176	-0.997659	-1.329589E-005	0.0009144	9
	8	44	47578.12	295.3602	-3.826964	1	295.3849	-0.7423365	-1.403104E-005	4.886467E-005	9
	9	46	37828.12	298.0286	-3.603669	1	298.0504	-0.6927688	-1.616371E-005	0.0010159	9
	10	49	30046.88	300.6716	-3.187908	1	300.6885	-0.6074629	8.149008E-006	-0.0006781	9
	11	51	23859.38	302.9935	-2.848145	1	303.0069	-0.5385656	-2.312235E-005	0.0006348	9
	12	54	18984.38	305.5299	-2.414695	1	305.5395	-0.4528163	-5.889186E-007	0.0006295	9
	13	56	15046.87	307.8383	-2.897677	1	307.8519	-0.5393084	2.692013E-005	-0.0005197	9
	14	58	11953.13	309.6228	-2.096205	1	309.6299	-0.3878975	2.374592E-005	-0.0002281	9
	15	61	9515.62	312.9263	-2.335519	1	312.9351	-0.4276179	-2.439383E-005	0.0008983	9
	16	63	7546.875	316.0143	-3.286156	1	316.0314	-0.5957834	2.286383E-005	-0.000917	9
	17	65	5928.309	318.0061	-3.301046	1	318.0232	-0.5947345	-2.980948E-007	-0.0004627	9
	18	68	4733.456	320.7506	-3.331951	1	320.7679	-0.595166	-1.006487E-005	-0.0001113	9
	19	70	3796.875	323.8101	-4.017681	1	323.835	-0.7108622	1.925552E-005	-7.625078E-005	9
	20	72	2987.132	326.5741	-5.068352	1	326.6134	-0.8891455	2.66096E-005	-0.0004882	9
	21	75	2390.625	328.5456	-5.493118	1	328.5915	-0.957868	-1.102881E-005	0.0009345	9
	22	78	1884.191	332.2162	-7.051549	1	332.291	-1.215965	2.755037E-005	-0.0005028	9
	23	80	1516.544	335.3275	-8.066315	1	335.4245	-1.377986	2.330759E-005	-0.0002289	9
	24	82	1193.986	337.7836	-9.67524	1	337.9221	-1.640693	-1.535508E-005	7.159664E-005	9
	25	85	946.5144	340.6584	-12.61671	1	340.8919	-2.121051	1.096411E-005	0.0002496	9
	26	87	751.7689	344.6448	-14.20527	1	344.9374	-2.360231	2.758778E-005	-0.0004796	9
	27	89	597.4265	347.6398	-17.72982	1	348.0916	-2.919586	-9.515514E-006	-0.0001193	9
	28	92	477.4305	350.6161	-22.18215	1	351.3171	-3.620061	1.103585E-006	5.278546E-005	9
	29	94	376.6741	352.5661	-27.34603	1	353.625	-4.435143	-7.798433E-008	0.0006311	8
	30	96	298.2954	356.141	-33.83789	1	357.7449	-5.427529	-9.853888E-008	0.0006287	8
	31	99	237.7717	360.0257	-41.67437	1	362.4296	-6.602823	-5.628738E-008	0.0006135	8
	32	101	189.0121	364.2197	-51.47761	1	367.8395	-8.044712	-1.159097E-007	0.0006738	8
	33	103	150.2404	368.7263	-63.61611	1	374.1738	-9.78884	-9.18656E-008	0.0006225	8
	34	106	119.1737	373.6514	-78.78074	1	381.8662	-11.90588	-9.763986E-008	0.0006348	8
	35	108	95.0169	379.0422	-97.1116	1	391.2846	-14.37023	-9.073171E-008	0.000614	8
	36	111	75.60484	385.2542	-119.9317	1	403.4903	-17.29165	-9.214786E-008	0.0006217	8
	37	113	54.50582	394.2361	-162.1509	1	426.2804	-22.35756	-1.080987E-007	0.0006307	8
	38	116	45.95588	401.2003	-189.8079	1	443.8341	-25.31884	-7.659455E-008	0.0006354	8
	39	118	37.20238	410.0348	-230.574	1	470.4178	-29.35027	-1.096703E-007	0.000613	8
	40	121	30.04808	420.5499	-280.6855	1	505.6151	-33.72013	-1.035566E-007	0.0006165	8
	41	123	23.91582	433.6359	-346.1234	1	554.8346	-38.59648	-5.086952E-008	0.0006286	8
	42	125	18.60119	450.776	-435.831	1	627.0149	-44.03429	-2.897274E-008	0.0006307	8
	43	128	15.02404	469.4727	-529.8884	1	707.9451	-48.45957	-1.566968E-007	0.0006259	8
	44	130	12.01923	493.8227	-649.4208	1	815.8482	-52.75047	-6.35684E-009	0.0006191	8
	45	132	9.450605	526.5611	-808.4766	1	964.832	-56.92379	-5.055237E-008	0.0006093	8
	46	135	7.512019	567.5053	-995.62	1	1146.002	-60.31677	-2.471358E-008	0.0006243	8
	47	138	5.978954	619.2261	-1222.769	1	1370.622	-63.14176	-7.509733E-008	0.0006738	8
	48	141	4.734848	688.9217	-1507.199	1	1657.185	-65.43546	-1.911524E-008	0.0006471	8
	49	144	3.75601	778.4736	-1852.444	1	2009.371	-67.20584	-1.115983E-007	0.0006034	8
	50	147	3.004808	890.2972	-2254.996	1	2424.384	-68.45535	-1.048552E-007	0.0006319	8
	51	151	2.372217	1049.934	-2771.909	1	2964.092	-69.25448	-9.870747E-008	0.0006966	8
	52	155	1.878005	1247.512	-3390.719	1	3612.93	-69.80045	-1.184855E-007	0.0006014	8
	53	160	1.512097	1490.583	-4073.533	1	4337.685	-69.90147	-3.253745E-008	0.0006409	7
	54	165	1.201923	1815.663	-4943.595	1	5266.475	-69.83294	-3.31674E-008	0.0005675	7
	55	172	0.956633	2218.494	-5957.459	1	6357.125	-69.57521	-5.703997E-008	-3.909029E-005	7
