EXPLAIN
TAG	EISPOT
TITLE	LABEL	Potentiostatic EIS	Test Identifier
DATE	LABEL	9/13/2020	Date
TIME	LABEL	13:56:24	Time
NOTES	NOTES	1	Notes...
	
PSTAT	PSTAT	REF3000-16137	Potentiostat
VDC	POTEN	0.00000E+000	T	DC Voltage (V)
FREQINIT	QUANT	3.00000E+005	Initial Freq. (Hz)
FREQFINAL	QUANT	1.00000E+000	Final Freq. (Hz)
PTSPERDEC	QUANT	1.00000E+001	Points/decade
VAC	QUANT	5.00000E+001	AC Voltage (mV rms)
AREA	QUANT	1.00000E+000	Sample Area (cm^2)
SPEED	SELECTOR	2	Optimize for:
ZGUESS	QUANT	1.00000E+003	Estimated Z (ohms)
EOC	QUANT	0	Open Circuit (V)
SEQUENCER	TOGGLE	TRUE	Run as Sequence
PSTATMODEL	IQUANT	5	Pstat Model
PSTATSECTION	LABEL	REF3000-16137	Pstat Section
PSTATSERIALNO	LABEL	16137	Pstat Serial Number
CTRLMODE	IQUANT	1	Control Mode
IESTAB	IQUANT	0	I/E Stability
CASPEED	IQUANT	1	Control Amp Speed
CONVENTION	IQUANT	1	Current Convention
ICHRANGE	IQUANT	2	Ich Range
ICHRANGEMODE	TOGGLE	F	Ich Auto Range
ICHOFFSETENABLE	TOGGLE	T	Ich Offset Enable
ICHOFFSET	QUANT	0	Ich Offset (V)
ICHFILTER	IQUANT	3	Ich Filter
VCHRANGE	IQUANT	2	Vch Range
VCHRANGEMODE	TOGGLE	F	Vch Auto Range
VCHOFFSETENABLE	TOGGLE	T	Vch Offset Enable
VCHOFFSET	QUANT	0	Vch Offset (V)
VCHFILTER	IQUANT	3	Vch Filter
ACHRANGE	IQUANT	2	Ach Range
ACHOFFSETENABLE	TOGGLE	F	Ach Offset Enable
ACHOFFSET	QUANT	0	Ach Offset (V)
ACHFILTER	IQUANT	3	Ach Filter
IERANGELOWERLIMIT	IQUANT	2	I/E Range Lower Limit
IERANGEMODE	TOGGLE	F	I/E AutoRange
IERANGE	IQUANT	11	I/E Range
POSFEEDENABLE	TOGGLE	F	Positive Feedback IR Comp
POSFEEDRESISTANCE	QUANT	0	Positive Feedback Resistance (ohm)
ACHSELECT	IQUANT	0	Ach Select
CABLEID	IQUANT	13	Cable ID
DCCALDATE	LABEL	7/31/2020	DC Calibration Date
ACCALDATE	LABEL	7/31/2020	AC Calibration Date
THERMOSELECT	IQUANT	1	Thermo Select
FRAMEWORKVERSION	QUANT	6.33	Framework Version
INSTRUMENTVERSION	LABEL	3.50	Instrument Version
COMPLIANCEVOLTAGE	IQUANT	0	Compliance Voltage
ZCURVE	TABLE
	Pt	Time	Freq	Zreal	Zimag	Zsig	Zmod	Zphz	Idc	Vdc	IERange
	#	s	Hz	ohm	ohm	V	ohm	°	A	V	#
	0	14	300046.9	625.7366	-4050.778	1	4098.823	-81.21874	-1.09853E-005	0.001653	9
	1	29	238359.4	730.3396	-5113.033	1	5164.93	-81.87093	2.663687E-005	-0.0016242	9
	2	56	189328.1	1240.376	-6093.32	1	6218.286	-78.4939	-1.588002E-005	0.0018199	9
	3	64	150421.9	1909.692	-7582.532	1	7819.317	-75.86382	2.897258E-005	-0.0019526	9
	4	71	119484.4	2845.722	-9002.697	1	9441.753	-72.45843	7.614868E-005	-0.0230576	8
	5	78	94921.88	3687.475	-11104.06	1	11700.33	-71.62952	2.218876E-005	-0.009651	8
	6	87	75421.88	5142.207	-13271.98	1	14233.33	-68.82122	-1.563058E-005	0.0005845	8
	7	96	59859.37	6655.454	-16209.43	1	17522.58	-67.67737	-2.657851E-005	0.0096861	8
	8	104	47578.12	12035.44	-19012.67	1	22501.86	-57.66529	3.25975E-006	-0.0235373	7
	9	112	37828.12	15485.54	-21552.13	1	26538.58	-54.30215	4.990706E-006	-0.0255947	7
	10	118	30046.88	17219.37	-25203.1	1	30523.81	-55.65816	1.593335E-005	-0.0091845	8
	11	127	23859.38	24546.97	-27131.06	1	36587.54	-47.86261	-7.087978E-006	0.022701	7
	12	132	18984.38	30248.1	-29254.59	1	42080.62	-44.04343	-6.33126E-006	0.0250026	7
	13	137	15046.87	35442.7	-31464.53	1	47394.11	-41.59731	-1.952307E-006	0.0075839	8
	14	144	11953.13	43465.8	-30418.05	1	53052.18	-34.98493	6.656996E-006	-0.0260525	7
	15	149	9515.62	50587.23	-29279.09	1	58449.41	-30.06158	-7.0182E-006	0.0225935	7
	16	154	7546.875	57569.24	-28116.31	1	64068.28	-26.03048	7.18649E-006	-0.0173836	7
	17	160	5928.309	63757.19	-23961.49	1	68111.18	-20.59743	-3.627835E-006	0.0245821	7
	18	165	4733.456	68392.14	-24924.45	1	72792.26	-20.02348	-3.254893E-006	-0.0051794	7
	19	170	3796.875	72556.34	-20406.04	1	75371.27	-15.70832	6.2867E-006	-0.0095687	7
	20	176	2987.132	77005.32	-17318.71	1	78928.81	-12.67508	2.686128E-006	0.0080842	7
	21	182	2390.625	86444.56	-13547.89	1	87499.76	-8.90714	1.704115E-005	0.0002806	8
	22	190	1884.191	84985.83	-15523.99	1	86392.05	-10.35184	4.77995E-006	-0.0008133	7
	23	196	1516.544	88395.63	-22855.54	1	91302.59	-14.49689	7.648505E-006	-0.0075434	8
	24	204	1193.986	93153.57	-13422.75	1	94115.66	-8.199465	-7.132188E-006	0.0182076	7
	25	210	946.5144	88431.05	-12708.5	1	89339.56	-8.17803	-1.029292E-006	-0.0124339	7
	26	213	751.7689	79416.27	-20999.7	1	82145.8	-14.81147	7.725269E-006	0.0043409	8
	27	219	597.4265	92199.38	-9213.792	1	92658.63	-5.706811	5.270267E-006	-0.0257132	7
	28	224	477.4305	104296.6	-5706.946	1	104452.6	-3.132012	-8.540395E-008	0.0005478	7
	29	227	376.6741	106016.6	-3553.264	1	106076.2	-1.919613	-1.20139E-008	0.0006795	6
	30	230	298.2954	107426.6	-3078.041	1	107470.7	-1.641218	-1.179787E-008	0.0006216	6
	31	232	237.7717	108867.5	-2591.828	1	108898.4	-1.363792	-1.158684E-008	0.0005935	6
	32	234	189.0121	110252.6	-2172.9	1	110274	-1.129061	-1.157699E-008	0.000642	6
	33	237	150.2404	111813.3	-1865.929	1	111828.8	-0.956057	-1.200432E-008	0.0006726	6
	34	240	119.1737	113081.8	-2090.162	1	113101.1	-1.058914	-1.163058E-008	0.0006089	6
	35	242	95.0169	114822.1	-1475.362	1	114831.6	-0.7361594	-1.209496E-008	0.0006772	6
	36	245	75.60484	116495.5	-1268.143	1	116502.4	-0.6236839	-1.081545E-008	0.0005879	6
	37	247	54.50582	117616.7	-1133.751	1	117622.1	-0.5522782	-1.118637E-008	0.0006735	6
	38	250	45.95588	119547.4	-1107.277	1	119552.5	-0.5306722	-1.074065E-008	0.0006829	6
	39	252	37.20238	120943.9	-1092.175	1	120948.8	-0.5173914	-1.115542E-008	0.0006884	6
	40	254	30.04808	122581.5	-1067.619	1	122586.1	-0.4990028	-1.081438E-008	0.0006833	6
	41	257	23.91582	124450.9	-1023.981	1	124455.1	-0.4714186	-1.052482E-008	0.0006116	6
	42	260	18.60119	125696.7	-1213.453	1	125702.5	-0.553106	-8.574764E-009	0.0005927	6
	43	262	15.02404	127420.9	-1344.903	1	127428	-0.6047233	-1.30305E-008	0.0006836	6
	44	264	12.01923	129004.3	-1558.073	1	129013.7	-0.6919662	-1.425731E-008	0.0006845	6
	45	267	9.450605	130718.6	-1863.013	1	130731.8	-0.8165294	-8.917659E-009	0.0006775	6
	46	269	7.512019	132798.6	-2122.306	1	132815.6	-0.915588	-8.393362E-009	0.0006298	6
	47	272	5.978954	135396.1	-2569.52	1	135420.5	-1.087217	-7.949139E-009	0.000719	6
	48	277	4.734848	138082.2	-3142.613	1	138118	-1.303769	-1.522361E-008	0.00063	6
	49	280	3.75601	141420.3	-3805.082	1	141471.5	-1.54124	-5.093721E-009	0.0006449	6
	50	285	3.004808	145964.1	-4598.237	1	146036.5	-1.804364	-7.396345E-009	0.000649	6
	51	292	2.372217	150132.6	-5559.395	1	150235.5	-2.120688	-8.979874E-009	0.0005621	6
	52	296	1.878005	153966.7	-7011.712	1	154126.3	-2.607474	-2.235074E-009	0.0006331	6
	53	301	1.512097	158365.9	-8465.595	1	158592	-3.059886	-2.630985E-009	0.0006303	6
	54	306	1.201923	163263.3	-10506.58	1	163601	-3.682114	-6.864334E-009	0.0006566	6
	55	312	0.956633	169586	-12787.72	1	170067.5	-4.312257	-2.120771E-008	5.651868E-007	6
