EXPLAIN
TAG	EISPOT
TITLE	LABEL	Potentiostatic EIS	Test Identifier
DATE	LABEL	9/13/2020	Date
TIME	LABEL	13:33:46	Time
NOTES	NOTES	1	Notes...
	
PSTAT	PSTAT	REF3000-16137	Potentiostat
VDC	POTEN	0.00000E+000	T	DC Voltage (V)
FREQINIT	QUANT	3.00000E+005	Initial Freq. (Hz)
FREQFINAL	QUANT	1.00000E+000	Final Freq. (Hz)
PTSPERDEC	QUANT	1.00000E+001	Points/decade
VAC	QUANT	5.00000E+001	AC Voltage (mV rms)
AREA	QUANT	1.00000E+000	Sample Area (cm^2)
SPEED	SELECTOR	2	Optimize for:
ZGUESS	QUANT	1.00000E+003	Estimated Z (ohms)
EOC	QUANT	0	Open Circuit (V)
SEQUENCER	TOGGLE	TRUE	Run as Sequence
PSTATMODEL	IQUANT	5	Pstat Model
PSTATSECTION	LABEL	REF3000-16137	Pstat Section
PSTATSERIALNO	LABEL	16137	Pstat Serial Number
CTRLMODE	IQUANT	1	Control Mode
IESTAB	IQUANT	0	I/E Stability
CASPEED	IQUANT	1	Control Amp Speed
CONVENTION	IQUANT	1	Current Convention
ICHRANGE	IQUANT	2	Ich Range
ICHRANGEMODE	TOGGLE	F	Ich Auto Range
ICHOFFSETENABLE	TOGGLE	T	Ich Offset Enable
ICHOFFSET	QUANT	0	Ich Offset (V)
ICHFILTER	IQUANT	3	Ich Filter
VCHRANGE	IQUANT	2	Vch Range
VCHRANGEMODE	TOGGLE	F	Vch Auto Range
VCHOFFSETENABLE	TOGGLE	T	Vch Offset Enable
VCHOFFSET	QUANT	0	Vch Offset (V)
VCHFILTER	IQUANT	3	Vch Filter
ACHRANGE	IQUANT	2	Ach Range
ACHOFFSETENABLE	TOGGLE	F	Ach Offset Enable
ACHOFFSET	QUANT	0	Ach Offset (V)
ACHFILTER	IQUANT	3	Ach Filter
IERANGELOWERLIMIT	IQUANT	2	I/E Range Lower Limit
IERANGEMODE	TOGGLE	F	I/E AutoRange
IERANGE	IQUANT	11	I/E Range
POSFEEDENABLE	TOGGLE	F	Positive Feedback IR Comp
POSFEEDRESISTANCE	QUANT	0	Positive Feedback Resistance (ohm)
ACHSELECT	IQUANT	0	Ach Select
CABLEID	IQUANT	13	Cable ID
DCCALDATE	LABEL	7/31/2020	DC Calibration Date
ACCALDATE	LABEL	7/31/2020	AC Calibration Date
THERMOSELECT	IQUANT	1	Thermo Select
FRAMEWORKVERSION	QUANT	6.33	Framework Version
INSTRUMENTVERSION	LABEL	3.50	Instrument Version
COMPLIANCEVOLTAGE	IQUANT	0	Compliance Voltage
ZCURVE	TABLE
	Pt	Time	Freq	Zreal	Zimag	Zsig	Zmod	Zphz	Idc	Vdc	IERange
	#	s	Hz	ohm	ohm	V	ohm	°	A	V	#
	0	7	300046.9	152.6823	-2.61572	1	152.7047	-0.981483	1.174675E-005	0.0008329	9
	1	10	238359.4	154.7544	-2.858397	1	154.7808	-1.058164	-8.69319E-006	-0.0014606	9
	2	14	189328.1	156.4134	-2.237024	1	156.4294	-0.8193881	-1.270858E-005	0.0008004	9
	3	16	150421.9	157.0482	-2.457743	1	157.0674	-0.8965837	7.31047E-005	-0.0028329	9
	4	19	119484.4	159.0472	-1.781038	1	159.0572	-0.6415812	1.945708E-005	-0.0013625	9
	5	22	94921.88	160.5108	-1.288857	1	160.5159	-0.4600593	-1.534286E-005	0.0008571	9
	6	24	75421.88	161.8506	-1.310666	1	161.8559	-0.463971	-1.903205E-006	-0.0003865	9
	7	27	59859.37	163.2286	-1.232905	1	163.2332	-0.4327607	2.444106E-005	-0.0007644	9
	8	29	47578.12	164.5752	-1.08435	1	164.5788	-0.3775039	3.097131E-006	0.000484	9
	9	32	37828.12	166.0204	-1.049071	1	166.0237	-0.3620431	2.458808E-005	-0.0004416	9
	10	34	30046.88	167.295	-1.077693	1	167.2985	-0.369087	-1.79294E-005	0.0003431	9
	11	37	23859.38	168.674	-1.122819	1	168.6777	-0.3813977	-1.769934E-005	0.0003562	9
	12	39	18984.38	170.0006	-1.137178	1	170.0044	-0.3832606	-2.433724E-005	0.0007006	9
	13	41	15046.87	171.0171	-1.219187	1	171.0215	-0.4084567	1.48259E-005	-0.000761	9
	14	44	11953.13	172.644	-1.405418	1	172.6497	-0.4664093	1.180279E-005	0.0002017	9
	15	46	9515.62	173.9279	-1.650857	1	173.9357	-0.5438131	-1.786644E-005	0.0003527	9
	16	48	7546.875	175.1981	-1.999462	1	175.2095	-0.6538644	-1.45253E-005	0.00095	9
	17	51	5928.309	176.663	-2.287307	1	176.6778	-0.7417834	1.01648E-006	0.0005486	9
	18	53	4733.456	177.964	-2.800531	1	177.986	-0.9015609	2.61635E-005	-0.0005017	9
	19	55	3796.875	179.2584	-3.455283	1	179.2917	-1.104264	1.420666E-006	0.0005232	9
	20	58	2987.132	180.6904	-4.082104	1	180.7365	-1.294189	1.551592E-006	0.0005637	9
	21	60	2390.625	182.4218	-4.894039	1	182.4874	-1.536771	-2.071214E-005	0.0004312	9
	22	62	1884.191	184.0021	-6.099708	1	184.1032	-1.898671	1.466662E-005	-0.0007771	9
	23	65	1516.544	185.5383	-7.211574	1	185.6784	-2.225873	-5.02225E-007	-0.0003931	9
	24	67	1193.986	187.2617	-9.078591	1	187.4816	-2.77557	-2.066292E-005	0.0009424	9
	25	69	946.5144	189.0348	-11.08079	1	189.3593	-3.35471	-1.421627E-005	9.409019E-005	9
	26	72	751.7689	190.562	-13.93609	1	191.0709	-4.182682	-8.278988E-006	0.0008404	9
	27	74	597.4265	192.4783	-16.99152	1	193.2268	-5.044855	-1.190763E-006	-0.0003683	9
	28	76	477.4305	194.2959	-20.6347	1	195.3886	-6.062228	8.088584E-007	0.0000988	9
	29	79	376.6741	196.3905	-25.63976	1	198.0571	-7.43818	1.155445E-006	4.61365E-005	9
	30	81	298.2954	198.623	-31.76368	1	201.1468	-9.085774	1.200841E-006	4.538987E-005	9
	31	83	237.7717	201.0853	-39.14035	1	204.8591	-11.01464	1.21931E-006	4.669361E-005	9
	32	86	189.0121	203.8253	-48.35102	1	209.4817	-13.34492	1.187365E-006	5.040631E-005	9
	33	88	150.2404	206.8685	-59.75059	1	215.3247	-16.11049	1.180073E-006	4.309185E-005	9
	34	91	119.1737	210.323	-73.98745	1	222.9572	-19.38086	1.098115E-006	5.040623E-005	9
	35	93	95.0169	214.2405	-91.15507	1	232.8266	-23.04878	1.136335E-006	4.49806E-005	9
	36	95	75.60484	218.883	-112.5143	1	246.1082	-27.20492	1.116552E-006	4.839255E-005	9
	37	98	54.50582	226.3027	-152.0018	1	272.6122	-33.88826	1.121871E-006	4.182233E-005	9
	38	101	45.95588	231.7868	-177.8613	1	292.1639	-37.50077	1.154866E-006	5.286085E-005	9
	39	103	37.20238	239.2322	-215.9006	1	322.2501	-42.06539	1.218913E-006	4.337508E-005	9
	40	105	30.04808	248.4234	-262.6369	1	361.5139	-46.59309	1.12255E-006	4.333917E-005	9
	41	108	23.91582	259.2967	-322.2351	1	413.6064	-51.177	7.199509E-008	0.0006175	8
	42	110	18.60119	275.7559	-405.1917	1	490.1241	-55.7625	7.410443E-008	0.0006223	8
	43	112	15.02404	293.9687	-491.9964	1	573.1301	-59.14161	-1.616178E-008	0.0006861	8
	44	115	12.01923	318.0455	-602.2576	1	681.0779	-62.16196	-1.066615E-007	0.0006269	8
	45	117	9.450605	351.7979	-747.5891	1	826.2271	-64.79942	1.08175E-007	0.0006292	8
	46	120	7.512019	393.9299	-917.561	1	998.548	-66.76505	1.415093E-007	0.0006232	8
	47	122	5.978954	447.851	-1122.768	1	1208.792	-68.25388	5.730286E-008	0.0006734	8
	48	125	4.734848	521.5182	-1378.255	1	1473.625	-69.27385	8.99466E-009	0.0006798	8
	49	129	3.75601	615.0329	-1684.187	1	1792.973	-69.93877	5.108586E-008	0.0006394	8
	50	132	3.004808	732.4112	-2034.698	1	2162.503	-70.20312	-2.490848E-008	0.0006677	8
	51	136	2.372217	891.7303	-2479.077	1	2634.579	-70.21622	3.426645E-008	0.0006807	8
	52	140	1.878005	1094.229	-2996.791	1	3190.312	-69.94117	2.064524E-008	0.0005985	8
	53	145	1.512097	1324.912	-3557.141	1	3795.872	-69.57138	2.426007E-008	0.0007013	8
	54	150	1.201923	1617.144	-4272.166	1	4567.993	-69.26683	-7.285951E-009	0.0005637	7
	55	156	0.956633	1953.782	-5094.704	1	5456.489	-69.01854	-3.788534E-008	-2.151927E-005	7
