EXPLAIN
TAG	EISPOT
TITLE	LABEL	Potentiostatic EIS	Test Identifier
DATE	LABEL	9/13/2020	Date
TIME	LABEL	12:38:06	Time
NOTES	NOTES	1	Notes...
	
PSTAT	PSTAT	REF3000-16137	Potentiostat
VDC	POTEN	0.00000E+000	T	DC Voltage (V)
FREQINIT	QUANT	3.00000E+005	Initial Freq. (Hz)
FREQFINAL	QUANT	1.00000E+000	Final Freq. (Hz)
PTSPERDEC	QUANT	1.00000E+001	Points/decade
VAC	QUANT	5.00000E+001	AC Voltage (mV rms)
AREA	QUANT	1.00000E+000	Sample Area (cm^2)
SPEED	SELECTOR	2	Optimize for:
ZGUESS	QUANT	1.00000E+003	Estimated Z (ohms)
EOC	QUANT	0	Open Circuit (V)
SEQUENCER	TOGGLE	TRUE	Run as Sequence
PSTATMODEL	IQUANT	5	Pstat Model
PSTATSECTION	LABEL	REF3000-16137	Pstat Section
PSTATSERIALNO	LABEL	16137	Pstat Serial Number
CTRLMODE	IQUANT	1	Control Mode
IESTAB	IQUANT	0	I/E Stability
CASPEED	IQUANT	1	Control Amp Speed
CONVENTION	IQUANT	1	Current Convention
ICHRANGE	IQUANT	2	Ich Range
ICHRANGEMODE	TOGGLE	F	Ich Auto Range
ICHOFFSETENABLE	TOGGLE	T	Ich Offset Enable
ICHOFFSET	QUANT	0	Ich Offset (V)
ICHFILTER	IQUANT	3	Ich Filter
VCHRANGE	IQUANT	2	Vch Range
VCHRANGEMODE	TOGGLE	F	Vch Auto Range
VCHOFFSETENABLE	TOGGLE	T	Vch Offset Enable
VCHOFFSET	QUANT	0	Vch Offset (V)
VCHFILTER	IQUANT	3	Vch Filter
ACHRANGE	IQUANT	2	Ach Range
ACHOFFSETENABLE	TOGGLE	F	Ach Offset Enable
ACHOFFSET	QUANT	0	Ach Offset (V)
ACHFILTER	IQUANT	3	Ach Filter
IERANGELOWERLIMIT	IQUANT	2	I/E Range Lower Limit
IERANGEMODE	TOGGLE	F	I/E AutoRange
IERANGE	IQUANT	11	I/E Range
POSFEEDENABLE	TOGGLE	F	Positive Feedback IR Comp
POSFEEDRESISTANCE	QUANT	0	Positive Feedback Resistance (ohm)
ACHSELECT	IQUANT	0	Ach Select
CABLEID	IQUANT	13	Cable ID
DCCALDATE	LABEL	7/31/2020	DC Calibration Date
ACCALDATE	LABEL	7/31/2020	AC Calibration Date
THERMOSELECT	IQUANT	1	Thermo Select
FRAMEWORKVERSION	QUANT	6.33	Framework Version
INSTRUMENTVERSION	LABEL	3.50	Instrument Version
COMPLIANCEVOLTAGE	IQUANT	0	Compliance Voltage
ZCURVE	TABLE
	Pt	Time	Freq	Zreal	Zimag	Zsig	Zmod	Zphz	Idc	Vdc	IERange
	#	s	Hz	ohm	ohm	V	ohm	°	A	V	#
	0	10	300046.9	3.507652	2.13096	1	4.104218	31.27941	-0.0001043	-0.0001264	10
	1	13	238359.4	3.511498	1.653953	1	3.881517	25.22093	-1.880166E-005	-0.0005002	10
	2	17	189328.1	3.516466	1.274045	1	3.74015	19.91587	8.563741E-006	-0.0001167	10
	3	19	150421.9	3.525748	0.962651	1	3.654804	15.27151	1.955885E-005	0.0002074	10
	4	22	119484.4	3.544818	0.7258548	1	3.61837	11.57221	2.717028E-005	0.000393	10
	5	24	94921.88	3.566361	0.5417458	1	3.607274	8.637445	3.599898E-005	0.0003983	10
	6	27	75421.88	3.587041	0.3762504	1	3.60672	5.987949	3.816204E-005	0.0004207	10
	7	29	59859.37	3.608326	0.240537	1	3.616334	3.81379	-1.289652E-007	0.0005431	10
	8	32	47578.12	3.62638	0.1246743	1	3.628522	1.969044	-1.577851E-005	0.0005566	10
	9	34	37828.12	3.644592	0.0222012	1	3.64466	0.3490157	9.626086E-006	0.000591	10
	10	37	30046.88	3.660936	-0.074381	1	3.661691	-1.163946	-3.0523E-005	0.0006038	10
	11	39	23859.38	3.67657	-0.1702804	1	3.680511	-2.65176	-2.799234E-005	0.0006244	10
	12	42	18984.38	3.692954	-0.2692528	1	3.702756	-4.17005	-9.305553E-006	0.0006274	10
	13	44	15046.87	3.709803	-0.3801011	1	3.729224	-5.85003	-2.356373E-005	0.000668	10
	14	46	11953.13	3.726468	-0.5053501	1	3.760578	-7.722826	1.892184E-005	0.0006134	10
	15	48	9515.62	3.747572	-0.6511967	1	3.803729	-9.85757	-2.151236E-005	0.0006763	10
	16	51	7546.875	3.770348	-0.8281016	1	3.860217	-12.38749	2.004207E-005	0.0006224	10
	17	53	5928.309	3.801397	-1.05265	1	3.94445	-15.47802	1.87601E-005	0.0006308	10
	18	55	4733.456	3.838751	-1.308317	1	4.055577	-18.82006	-2.664633E-005	0.0007068	10
	19	58	3796.875	3.883451	-1.611479	1	4.204528	-22.53652	-2.090381E-005	0.0007225	10
	20	60	2987.132	3.943897	-2.01723	1	4.429846	-27.08889	1.188569E-005	0.0006405	10
	21	62	2390.625	4.016433	-2.477515	1	4.71909	-31.66813	1.738523E-005	0.0006211	10
	22	65	1884.191	4.115205	-3.084095	1	5.142622	-36.84932	-2.601443E-005	0.0007149	10
	23	67	1516.544	4.229154	-3.759514	1	5.658594	-41.63556	-6.606595E-006	0.0006251	10
	24	69	1193.986	4.388986	-4.672206	1	6.410359	-46.79028	-2.279869E-005	0.0006666	10
	25	72	946.5144	4.586	-5.764862	1	7.36648	-51.49743	7.07586E-006	0.000605	10
	26	74	751.7689	4.841248	-7.092816	1	8.587533	-55.68425	1.127094E-005	0.000638	10
	27	76	597.4265	5.16294	-8.716951	1	10.1312	-59.36228	2.973726E-006	0.0006371	10
	28	79	477.4305	5.571683	-10.64965	1	12.01909	-62.38233	-4.211604E-006	0.0006479	10
	29	81	376.6741	6.131635	-13.14966	1	14.50898	-65.00055	-3.932145E-006	0.0006445	10
	30	83	298.2954	6.85571	-16.16098	1	17.555	-67.01267	-3.845367E-006	0.0006499	10
	31	86	237.7717	7.775203	-19.71094	1	21.18903	-68.47269	-4.278065E-006	0.0006526	10
	32	88	189.0121	8.990879	-24.04156	1	25.66774	-69.4956	-3.354601E-006	0.0006459	10
	33	90	150.2404	10.56625	-29.23526	1	31.08611	-70.12905	-3.779079E-006	0.0006516	10
	34	93	119.1737	12.60322	-35.473	1	37.64538	-70.44036	-3.996875E-006	0.0006556	10
	35	95	95.0169	15.07593	-42.62159	1	45.20933	-70.52051	-1.99218E-007	5.340144E-005	9
	36	98	75.60484	18.13049	-51.14554	1	54.26399	-70.48119	-2.41308E-007	5.061873E-005	9
	37	100	54.50582	23.44953	-65.9918	1	70.03426	-70.43784	-3.136823E-007	4.583581E-005	9
	38	103	45.95588	26.63823	-75.27966	1	79.85375	-70.51332	8.085173E-008	5.348604E-005	9
	39	105	37.20238	30.92935	-88.60453	1	93.84769	-70.75734	-1.693058E-008	5.466396E-005	9
	40	107	30.04808	35.63501	-104.6153	1	110.518	-71.18967	-1.310162E-007	5.824763E-005	9
	41	110	23.91582	41.09723	-125.3572	1	131.922	-71.84874	-3.070055E-007	5.233781E-005	9
	42	112	18.60119	47.71222	-153.7181	1	160.9525	-72.7563	8.257074E-008	5.158727E-005	9
	43	115	15.02404	54.06721	-183.7334	1	191.5234	-73.60243	-2.250847E-007	5.397059E-005	9
	44	117	12.01923	61.85736	-222.1008	1	230.5539	-74.43693	5.041531E-008	5.796782E-005	9
	45	119	9.450605	72.0458	-273.8119	1	283.1317	-75.25838	3.150232E-008	4.4293E-005	9
	46	122	7.512019	84.49437	-335.2671	1	345.7504	-75.85482	1.824959E-007	5.481709E-005	9
	47	125	5.978954	100.3353	-410.5453	1	422.6282	-76.2664	5.98359E-008	4.839572E-005	9
	48	128	4.734848	121.5664	-503.2412	1	517.7162	-76.41941	-5.471975E-007	0.0006558	8
	49	131	3.75601	150.7492	-618.5822	1	636.6862	-76.30392	-8.793461E-007	0.0006071	8
	50	134	3.004808	188.659	-752.4277	1	775.7188	-75.92419	-6.817679E-007	0.0006197	8
	51	138	2.372217	243.5312	-923.3073	1	954.884	-75.2242	-7.791562E-007	0.0006285	8
	52	142	1.878005	318.8246	-1128.162	1	1172.347	-74.21943	-8.285224E-007	0.0006302	8
	53	147	1.512097	409.1887	-1348.659	1	1409.368	-73.12199	-7.159454E-007	0.0005156	8
	54	152	1.201923	534.3118	-1621.597	1	1707.356	-71.76308	-7.417672E-007	0.0006421	8
	55	158	0.956633	690.3096	-1930.856	1	2050.544	-70.32728	-7.585579E-007	-1.533303E-005	8
