EXPLAIN
TAG	EISPOT
TITLE	LABEL	Potentiostatic EIS	Test Identifier
DATE	LABEL	9/13/2020	Date
TIME	LABEL	12:32:29	Time
NOTES	NOTES	1	Notes...
	
PSTAT	PSTAT	REF3000-16137	Potentiostat
VDC	POTEN	0.00000E+000	T	DC Voltage (V)
FREQINIT	QUANT	3.00000E+005	Initial Freq. (Hz)
FREQFINAL	QUANT	1.00000E+000	Final Freq. (Hz)
PTSPERDEC	QUANT	1.00000E+001	Points/decade
VAC	QUANT	5.00000E+001	AC Voltage (mV rms)
AREA	QUANT	1.00000E+000	Sample Area (cm^2)
SPEED	SELECTOR	2	Optimize for:
ZGUESS	QUANT	1.00000E+003	Estimated Z (ohms)
EOC	QUANT	0	Open Circuit (V)
SEQUENCER	TOGGLE	TRUE	Run as Sequence
PSTATMODEL	IQUANT	5	Pstat Model
PSTATSECTION	LABEL	REF3000-16137	Pstat Section
PSTATSERIALNO	LABEL	16137	Pstat Serial Number
CTRLMODE	IQUANT	1	Control Mode
IESTAB	IQUANT	0	I/E Stability
CASPEED	IQUANT	1	Control Amp Speed
CONVENTION	IQUANT	1	Current Convention
ICHRANGE	IQUANT	2	Ich Range
ICHRANGEMODE	TOGGLE	F	Ich Auto Range
ICHOFFSETENABLE	TOGGLE	T	Ich Offset Enable
ICHOFFSET	QUANT	0	Ich Offset (V)
ICHFILTER	IQUANT	3	Ich Filter
VCHRANGE	IQUANT	2	Vch Range
VCHRANGEMODE	TOGGLE	F	Vch Auto Range
VCHOFFSETENABLE	TOGGLE	T	Vch Offset Enable
VCHOFFSET	QUANT	0	Vch Offset (V)
VCHFILTER	IQUANT	3	Vch Filter
ACHRANGE	IQUANT	2	Ach Range
ACHOFFSETENABLE	TOGGLE	F	Ach Offset Enable
ACHOFFSET	QUANT	0	Ach Offset (V)
ACHFILTER	IQUANT	3	Ach Filter
IERANGELOWERLIMIT	IQUANT	2	I/E Range Lower Limit
IERANGEMODE	TOGGLE	F	I/E AutoRange
IERANGE	IQUANT	11	I/E Range
POSFEEDENABLE	TOGGLE	F	Positive Feedback IR Comp
POSFEEDRESISTANCE	QUANT	0	Positive Feedback Resistance (ohm)
ACHSELECT	IQUANT	0	Ach Select
CABLEID	IQUANT	13	Cable ID
DCCALDATE	LABEL	7/31/2020	DC Calibration Date
ACCALDATE	LABEL	7/31/2020	AC Calibration Date
THERMOSELECT	IQUANT	1	Thermo Select
FRAMEWORKVERSION	QUANT	6.33	Framework Version
INSTRUMENTVERSION	LABEL	3.50	Instrument Version
COMPLIANCEVOLTAGE	IQUANT	0	Compliance Voltage
ZCURVE	TABLE
	Pt	Time	Freq	Zreal	Zimag	Zsig	Zmod	Zphz	Idc	Vdc	IERange
	#	s	Hz	ohm	ohm	V	ohm	°	A	V	#
	0	10	300046.9	3.301318	2.081785	1	3.902888	32.23521	-2.185199E-005	-0.0001305	10
	1	13	238359.4	3.309816	1.612406	1	3.681676	25.97344	-1.612699E-005	-0.0005005	10
	2	17	189328.1	3.324843	1.227592	1	3.54423	20.26505	6.936114E-005	-0.0003614	10
	3	19	150421.9	3.345844	0.9334201	1	3.473607	15.58798	4.929971E-005	8.801616E-005	10
	4	22	119484.4	3.388346	0.5208414	1	3.428143	8.738851	-2.027415E-005	0.0001679	12
	5	25	94921.88	3.402449	0.4758865	1	3.435568	7.962073	1.178139E-005	0.0005953	11
	6	28	75421.88	3.428592	0.3221404	1	3.443693	5.367584	-3.219444E-005	0.0005877	11
	7	30	59859.37	3.453893	0.194596	1	3.459371	3.224695	-1.832054E-006	0.0006278	11
	8	33	47578.12	3.476733	0.0879902	1	3.477847	1.449748	-4.396103E-005	0.000596	11
	9	35	37828.12	3.498148	-0.0064678	1	3.498154	-0.1059355	-1.721908E-005	0.0006329	11
	10	38	30046.88	3.519307	-0.0877073	1	3.5204	-1.427616	1.981585E-005	0.0006271	10
	11	40	23859.38	3.535713	-0.1780257	1	3.540192	-2.882449	-1.254521E-005	0.0006131	10
	12	43	18984.38	3.552979	-0.2721629	1	3.563387	-4.380378	-2.328441E-007	0.0005937	10
	13	45	15046.87	3.57045	-0.3770189	1	3.5903	-6.027766	3.58402E-006	0.0006078	10
	14	47	11953.13	3.58923	-0.496819	1	3.623451	-7.880771	2.318016E-005	0.0006338	10
	15	49	9515.62	3.610076	-0.6360701	1	3.665684	-9.99255	1.906952E-005	0.0006441	10
	16	52	7546.875	3.634481	-0.8054145	1	3.722653	-12.49503	-2.861884E-005	0.0006478	10
	17	54	5928.309	3.666547	-1.020042	1	3.805792	-15.5467	-2.621587E-005	0.0007131	10
	18	56	4733.456	3.703835	-1.264691	1	3.9138	-18.8527	8.996821E-006	0.0006046	10
	19	59	3796.875	3.748789	-1.556043	1	4.058902	-22.54231	-2.045388E-005	0.0006539	10
	20	61	2987.132	3.81101	-1.944245	1	4.278305	-27.02909	1.743529E-006	0.0006167	10
	21	63	2390.625	3.882464	-2.386635	1	4.557363	-31.57995	-2.110072E-005	0.0006537	10
	22	66	1884.191	3.981234	-2.966609	1	4.964976	-36.69157	-2.674478E-005	0.0007145	10
	23	68	1516.544	4.093949	-3.612899	1	5.46017	-41.42831	5.865987E-007	0.0006136	10
	24	70	1193.986	4.25251	-4.486152	1	6.181375	-46.53152	7.506107E-006	0.0006089	10
	25	73	946.5144	4.451094	-5.530682	1	7.099343	-51.17288	-2.349587E-005	0.0006757	10
	26	75	751.7689	4.700764	-6.803599	1	8.269591	-55.35851	1.310762E-005	0.0006179	10
	27	77	597.4265	5.018354	-8.356548	1	9.7476	-59.01394	-1.739958E-005	0.0006637	10
	28	80	477.4305	5.429156	-10.20441	1	11.55879	-61.98523	-4.407803E-006	0.0006538	10
	29	82	376.6741	5.990658	-12.58772	1	13.94054	-64.54962	-4.347908E-006	0.0006545	10
	30	84	298.2954	6.717134	-15.45079	1	16.84775	-66.5033	-4.532798E-006	0.0006559	10
	31	87	237.7717	7.63986	-18.8136	1	20.30564	-67.89883	-4.958236E-006	0.0006478	10
	32	89	189.0121	8.853829	-22.89786	1	24.55	-68.8602	-4.523455E-006	0.000654	10
	33	91	150.2404	10.41647	-27.76819	1	29.65764	-69.43781	-4.07313E-006	0.0006516	10
	34	94	119.1737	12.40461	-33.58725	1	35.80472	-69.72955	-4.080559E-006	0.00065	10
	35	96	95.0169	14.77332	-40.23117	1	42.85788	-69.83622	-8.575897E-007	5.261978E-005	9
	36	99	75.60484	17.63429	-48.14188	1	51.26997	-69.8823	-9.314886E-007	4.808771E-005	9
	37	101	54.50582	22.47105	-61.97027	1	65.9186	-70.06884	-9.547442E-007	4.231034E-005	9
	38	104	45.95588	25.30696	-70.68043	1	75.07439	-70.30022	-6.250272E-007	5.597043E-005	9
	39	106	37.20238	29.10034	-83.29725	1	88.23413	-70.74287	-8.416683E-007	6.160711E-005	9
	40	108	30.04808	33.21008	-98.5414	1	103.9871	-71.37533	-9.135705E-007	5.39644E-005	9
	41	111	23.91582	38.01448	-118.4189	1	124.3709	-72.20248	-8.388369E-007	4.860336E-005	9
	42	113	18.60119	44.02438	-145.8914	1	152.3891	-73.20822	-9.025034E-007	0.0001092	9
	43	115	15.02404	50.01238	-174.8914	1	181.9018	-74.04146	-7.836331E-007	5.101475E-005	9
	44	118	12.01923	57.5014	-212.1936	1	219.8466	-74.83781	-1.032311E-006	5.355393E-005	9
	45	120	9.450605	67.71992	-262.1585	1	270.7639	-75.51616	-9.627526E-007	6.440996E-005	9
	46	123	7.512019	80.60128	-321.3902	1	331.3431	-75.9212	-9.177404E-007	4.889882E-005	9
	47	125	5.978954	97.3087	-393.6318	1	405.4811	-76.11445	-7.1822E-007	5.182723E-005	9
	48	128	4.734848	120.1816	-482.4429	1	497.1869	-76.01173	-1.550524E-006	0.0006119	8
	49	132	3.75601	151.9288	-590.999	1	610.2148	-75.58308	-1.194746E-006	0.0006423	8
	50	135	3.004808	193.3264	-716.926	1	742.5348	-74.90858	-1.452157E-006	0.0006603	8
	51	139	2.372217	252.1158	-875.1646	1	910.7554	-73.92946	-1.306636E-006	0.0006762	8
	52	143	1.878005	332.2399	-1059.675	1	1110.537	-72.59222	-1.327815E-006	0.0006025	8
	53	148	1.512097	427.2649	-1256.344	1	1327.01	-71.21755	-1.307534E-006	0.0007204	8
	54	153	1.201923	552.8311	-1495.835	1	1594.724	-69.71668	-1.266511E-006	0.0005974	8
	55	159	0.956633	706.6193	-1765.063	1	1901.251	-68.18196	-1.393164E-006	-9.403651E-006	8
