EXPLAIN
TAG	EISPOT
TITLE	LABEL	Potentiostatic EIS	Test Identifier
DATE	LABEL	9/13/2020	Date
TIME	LABEL	12:57:41	Time
NOTES	NOTES	1	Notes...
	
PSTAT	PSTAT	REF3000-16137	Potentiostat
VDC	POTEN	0.00000E+000	T	DC Voltage (V)
FREQINIT	QUANT	3.00000E+005	Initial Freq. (Hz)
FREQFINAL	QUANT	1.00000E+000	Final Freq. (Hz)
PTSPERDEC	QUANT	1.00000E+001	Points/decade
VAC	QUANT	5.00000E+001	AC Voltage (mV rms)
AREA	QUANT	1.00000E+000	Sample Area (cm^2)
SPEED	SELECTOR	2	Optimize for:
ZGUESS	QUANT	1.00000E+003	Estimated Z (ohms)
EOC	QUANT	0	Open Circuit (V)
SEQUENCER	TOGGLE	TRUE	Run as Sequence
PSTATMODEL	IQUANT	5	Pstat Model
PSTATSECTION	LABEL	REF3000-16137	Pstat Section
PSTATSERIALNO	LABEL	16137	Pstat Serial Number
CTRLMODE	IQUANT	1	Control Mode
IESTAB	IQUANT	0	I/E Stability
CASPEED	IQUANT	1	Control Amp Speed
CONVENTION	IQUANT	1	Current Convention
ICHRANGE	IQUANT	2	Ich Range
ICHRANGEMODE	TOGGLE	F	Ich Auto Range
ICHOFFSETENABLE	TOGGLE	T	Ich Offset Enable
ICHOFFSET	QUANT	0	Ich Offset (V)
ICHFILTER	IQUANT	3	Ich Filter
VCHRANGE	IQUANT	2	Vch Range
VCHRANGEMODE	TOGGLE	F	Vch Auto Range
VCHOFFSETENABLE	TOGGLE	T	Vch Offset Enable
VCHOFFSET	QUANT	0	Vch Offset (V)
VCHFILTER	IQUANT	3	Vch Filter
ACHRANGE	IQUANT	2	Ach Range
ACHOFFSETENABLE	TOGGLE	F	Ach Offset Enable
ACHOFFSET	QUANT	0	Ach Offset (V)
ACHFILTER	IQUANT	3	Ach Filter
IERANGELOWERLIMIT	IQUANT	2	I/E Range Lower Limit
IERANGEMODE	TOGGLE	F	I/E AutoRange
IERANGE	IQUANT	11	I/E Range
POSFEEDENABLE	TOGGLE	F	Positive Feedback IR Comp
POSFEEDRESISTANCE	QUANT	0	Positive Feedback Resistance (ohm)
ACHSELECT	IQUANT	0	Ach Select
CABLEID	IQUANT	13	Cable ID
DCCALDATE	LABEL	7/31/2020	DC Calibration Date
ACCALDATE	LABEL	7/31/2020	AC Calibration Date
THERMOSELECT	IQUANT	1	Thermo Select
FRAMEWORKVERSION	QUANT	6.33	Framework Version
INSTRUMENTVERSION	LABEL	3.50	Instrument Version
COMPLIANCEVOLTAGE	IQUANT	0	Compliance Voltage
ZCURVE	TABLE
	Pt	Time	Freq	Zreal	Zimag	Zsig	Zmod	Zphz	Idc	Vdc	IERange
	#	s	Hz	ohm	ohm	V	ohm	°	A	V	#
	0	10	300046.9	4.689286	2.190221	1	5.175565	25.03583	7.592615E-005	-0.000194	10
	1	13	238359.4	4.661889	1.743323	1	4.977186	20.50339	-2.832758E-005	-0.0002611	10
	2	17	189328.1	4.648629	1.360881	1	4.843733	16.31734	2.236331E-005	0.0001281	10
	3	19	150421.9	4.649016	1.061377	1	4.768634	12.8603	5.019306E-005	0.0002272	10
	4	22	119484.4	4.655461	0.8054584	1	4.724625	9.81578	-1.122255E-005	0.0004409	10
	5	24	94921.88	4.664213	0.6158948	1	4.7047	7.522211	2.894401E-005	0.0004469	10
	6	27	75421.88	4.67235	0.4420165	1	4.693211	5.404247	-2.359815E-005	0.0004947	10
	7	29	59859.37	4.683546	0.2923869	1	4.692663	3.572256	2.523455E-005	0.0005429	10
	8	32	47578.12	4.695649	0.1628374	1	4.698471	1.986127	1.713762E-005	0.0005857	10
	9	34	37828.12	4.709309	0.0447979	1	4.709522	0.5450173	1.500267E-005	0.000561	10
	10	37	30046.88	4.723726	-0.0667774	1	4.724198	-0.8099135	1.523655E-005	0.0005815	10
	11	39	23859.38	4.739144	-0.1776335	1	4.742472	-2.146567	1.982248E-005	0.0006289	10
	12	42	18984.38	4.75557	-0.2926099	1	4.764564	-3.520966	-2.072575E-005	0.0006747	10
	13	44	15046.87	4.772309	-0.4216019	1	4.790895	-5.048596	-1.387317E-005	0.0006563	10
	14	46	11953.13	4.791715	-0.5682465	1	4.825291	-6.763085	2.19423E-006	0.0006016	10
	15	49	9515.62	4.8146	-0.7379316	1	4.870822	-8.713887	-6.744864E-006	0.0006103	10
	16	51	7546.875	4.840454	-0.9439444	1	4.931635	-11.03485	-1.053904E-005	0.0006402	10
	17	53	5928.309	4.875113	-1.205487	1	5.021945	-13.88913	-5.606699E-006	0.0006525	10
	18	55	4733.456	4.915105	-1.50376	1	5.139995	-17.01132	-2.529567E-005	0.0006686	10
	19	58	3796.875	4.964501	-1.859018	1	5.301153	-20.52903	-2.375445E-005	0.0006856	10
	20	60	2987.132	5.029774	-2.334043	1	5.544942	-24.89344	5.000247E-006	0.0006447	10
	21	62	2390.625	5.109441	-2.875239	1	5.862882	-29.36779	-2.16663E-005	0.0006733	10
	22	65	1884.191	5.214702	-3.589231	1	6.330537	-34.53928	-1.224756E-005	0.0006364	10
	23	67	1516.544	5.338176	-4.385887	1	6.908844	-39.40679	-1.180073E-005	0.0006352	10
	24	69	1193.986	5.510236	-5.464388	1	7.760299	-44.76064	-1.889495E-005	0.0006419	10
	25	72	946.5144	5.721742	-6.758009	1	8.854886	-49.74672	-1.210543E-005	0.0006832	10
	26	74	751.7689	5.994416	-8.332624	1	10.26478	-54.26909	9.541849E-006	0.0006069	10
	27	77	597.4265	6.334331	-10.26078	1	12.0585	-58.31155	-2.490766E-005	0.0007137	10
	28	79	477.4305	6.755963	-12.56816	1	14.26891	-61.73994	-3.118845E-006	0.0006464	10
	29	81	376.6741	7.325825	-15.55883	1	17.19723	-64.78674	-3.063306E-006	0.0006535	10
	30	83	298.2954	8.049205	-19.18564	1	20.80573	-67.23985	-3.033856E-006	0.0006521	10
	31	86	237.7717	8.955348	-23.50097	1	25.14944	-69.14001	-2.913234E-006	0.0006512	10
	32	88	189.0121	10.14228	-28.83644	1	30.56806	-70.62234	-2.79423E-006	0.0006559	10
	33	91	150.2404	11.68626	-35.33027	1	37.21285	-71.69723	-2.944648E-006	0.0006481	10
	34	93	119.1737	13.70528	-43.25051	1	45.37005	-72.41756	9.466618E-007	5.637283E-005	9
	35	95	95.0169	16.2969	-52.63786	1	55.10293	-72.79726	4.212118E-007	0.0001055	9
	36	98	75.60484	19.68392	-63.99986	1	66.95849	-72.90409	9.034389E-007	5.26973E-005	9
	37	101	54.50582	26.22683	-84.11979	1	88.11348	-72.68359	7.808532E-007	4.82576E-005	9
	38	103	45.95588	30.57613	-96.7001	1	101.419	-72.45329	9.916383E-007	5.612664E-005	9
	39	105	37.20238	36.92519	-114.5266	1	120.3321	-72.12986	1.006714E-006	5.168527E-005	9
	40	108	30.04808	44.43991	-135.421	1	142.5263	-71.83217	9.229973E-007	5.231683E-005	9
	41	110	23.91582	53.74463	-161.7464	1	170.4418	-71.61954	9.242995E-007	5.211891E-005	9
	42	113	18.60119	65.18248	-196.2804	1	206.8206	-71.62926	9.082858E-007	5.068956E-005	9
	43	115	15.02404	75.9204	-231.6679	1	243.7907	-71.8554	9.280767E-007	5.157469E-005	9
	44	117	12.01923	88.19333	-276.12	1	289.8626	-72.28641	1.002338E-006	5.372302E-005	9
	45	120	9.450605	102.5051	-334.9991	1	350.3308	-72.98661	9.660328E-007	6.281814E-005	9
	46	122	7.512019	117.3013	-403.1274	1	419.8468	-73.77615	3.111554E-007	0.0006375	8
	47	125	5.978954	134.346	-488.3783	1	506.5197	-74.61917	2.904873E-007	0.0006324	8
	48	128	4.734848	154.9052	-596.8433	1	616.6178	-75.45043	2.788694E-007	0.0006575	8
	49	131	3.75601	179.6698	-730.7092	1	752.474	-76.18592	4.036928E-007	0.0006474	8
	50	135	3.004808	209.3377	-889.781	1	914.0746	-76.76086	3.671237E-007	0.000615	8
	51	138	2.372217	251.22	-1099.142	1	1127.486	-77.12562	3.216866E-007	0.0005577	8
	52	143	1.878005	302.2401	-1355.844	1	1389.122	-77.43328	3.833164E-007	0.0006303	8
	53	147	1.512097	366.3694	-1642.397	1	1682.764	-77.42492	3.264888E-007	0.0005877	8
	54	153	1.201923	455.6286	-2023.447	1	2074.111	-77.3101	3.564129E-007	0.0006534	8
	55	159	0.956633	575.5286	-2480.595	1	2546.485	-76.93778	2.773449E-007	-1.234325E-005	8
