EXPLAIN
TAG	EISPOT
TITLE	LABEL	Potentiostatic EIS	Test Identifier
DATE	LABEL	9/13/2020	Date
TIME	LABEL	14:07:20	Time
NOTES	NOTES	1	Notes...
	
PSTAT	PSTAT	REF3000-16137	Potentiostat
VDC	POTEN	0.00000E+000	T	DC Voltage (V)
FREQINIT	QUANT	3.00000E+005	Initial Freq. (Hz)
FREQFINAL	QUANT	1.00000E+000	Final Freq. (Hz)
PTSPERDEC	QUANT	1.00000E+001	Points/decade
VAC	QUANT	5.00000E+001	AC Voltage (mV rms)
AREA	QUANT	1.00000E+000	Sample Area (cm^2)
SPEED	SELECTOR	2	Optimize for:
ZGUESS	QUANT	1.00000E+003	Estimated Z (ohms)
EOC	QUANT	0	Open Circuit (V)
SEQUENCER	TOGGLE	TRUE	Run as Sequence
PSTATMODEL	IQUANT	5	Pstat Model
PSTATSECTION	LABEL	REF3000-16137	Pstat Section
PSTATSERIALNO	LABEL	16137	Pstat Serial Number
CTRLMODE	IQUANT	1	Control Mode
IESTAB	IQUANT	0	I/E Stability
CASPEED	IQUANT	1	Control Amp Speed
CONVENTION	IQUANT	1	Current Convention
ICHRANGE	IQUANT	2	Ich Range
ICHRANGEMODE	TOGGLE	F	Ich Auto Range
ICHOFFSETENABLE	TOGGLE	T	Ich Offset Enable
ICHOFFSET	QUANT	0	Ich Offset (V)
ICHFILTER	IQUANT	3	Ich Filter
VCHRANGE	IQUANT	2	Vch Range
VCHRANGEMODE	TOGGLE	F	Vch Auto Range
VCHOFFSETENABLE	TOGGLE	T	Vch Offset Enable
VCHOFFSET	QUANT	0	Vch Offset (V)
VCHFILTER	IQUANT	3	Vch Filter
ACHRANGE	IQUANT	2	Ach Range
ACHOFFSETENABLE	TOGGLE	F	Ach Offset Enable
ACHOFFSET	QUANT	0	Ach Offset (V)
ACHFILTER	IQUANT	3	Ach Filter
IERANGELOWERLIMIT	IQUANT	2	I/E Range Lower Limit
IERANGEMODE	TOGGLE	F	I/E AutoRange
IERANGE	IQUANT	11	I/E Range
POSFEEDENABLE	TOGGLE	F	Positive Feedback IR Comp
POSFEEDRESISTANCE	QUANT	0	Positive Feedback Resistance (ohm)
ACHSELECT	IQUANT	0	Ach Select
CABLEID	IQUANT	13	Cable ID
DCCALDATE	LABEL	7/31/2020	DC Calibration Date
ACCALDATE	LABEL	7/31/2020	AC Calibration Date
THERMOSELECT	IQUANT	1	Thermo Select
FRAMEWORKVERSION	QUANT	6.33	Framework Version
INSTRUMENTVERSION	LABEL	3.50	Instrument Version
COMPLIANCEVOLTAGE	IQUANT	0	Compliance Voltage
ZCURVE	TABLE
	Pt	Time	Freq	Zreal	Zimag	Zsig	Zmod	Zphz	Idc	Vdc	IERange
	#	s	Hz	ohm	ohm	V	ohm	°	A	V	#
	0	15	300046.9	24.37706	-4460.023	1	4460.09	-89.68684	2.817128E-005	-0.0017387	9
	1	32	238359.4	3.119367	-5552.301	1	5552.302	-89.96781	2.959238E-005	-0.0016235	9
	2	57	189328.1	310.8929	-6824.058	1	6831.136	-87.3915	1.878442E-005	-0.0003871	9
	3	65	150421.9	278.1683	-8514.205	1	8518.748	-88.12875	2.751959E-005	-0.0015051	9
	4	72	119484.4	739.3506	-10609.23	1	10634.96	-86.01354	-1.882289E-005	0.0174685	8
	5	79	94921.88	922.0087	-13291.33	1	13323.27	-86.0318	-2.600524E-005	0.0074781	8
	6	88	75421.88	970.893	-16762.89	1	16790.99	-86.68518	-1.575197E-005	0.0004719	8
	7	97	59859.37	1295.456	-20758.08	1	20798.47	-86.42896	-1.11715E-006	-0.0051393	8
	8	106	47578.12	4632.498	-27102.87	1	27495.92	-80.30058	-3.698502E-006	0.0249826	7
	9	112	37828.12	2902.538	-32340.25	1	32470.24	-84.87144	-1.602708E-005	0.0005605	8
	10	120	30046.88	6200.035	-41848.32	1	42305.11	-81.57265	-3.593993E-006	0.0248524	7
	11	128	23859.38	7344.022	-51155.04	1	51679.52	-81.83022	-3.372159E-006	-0.0051054	7
	12	133	18984.38	8044.762	-64366.42	1	64867.2	-82.87589	-1.075691E-006	-0.0130894	7
	13	139	15046.87	10636.39	-80843.73	1	81540.43	-82.5048	-1.060106E-006	-0.0129636	7
	14	144	11953.13	14135.48	-99266.8	1	100268.2	-81.89563	7.622617E-006	-0.0184963	7
	15	150	9515.62	16388.97	-125291.9	1	126359.2	-82.54766	-1.12192E-006	-0.0128506	7
	16	156	7546.875	22404.1	-159345.5	1	160912.8	-81.99663	-7.32378E-006	0.0191875	7
	17	161	5928.309	22544.41	-200713.8	1	201975.9	-83.59133	-5.373824E-006	0.0036938	7
	18	167	4733.456	55297.09	-249125.9	1	255189.1	-77.48527	-6.626943E-006	0.0118299	7
	19	173	3796.875	54354.66	-292604.9	1	297610.6	-79.47662	6.514534E-006	-0.0099943	7
	20	179	2987.132	73682.95	-448827	1	454834.9	-80.67704	7.528756E-006	-0.0241191	7
	21	186	2390.625	142324.5	-431608.4	1	454469.1	-71.74983	2.600133E-005	-0.0089648	8
	22	193	1884.191	-216198.3	-182194.6	1	282730.6	-139.8785	-1.198264E-005	0.010249	8
	23	202	1516.544	233397	-601012.8	1	644740.6	-68.77684	4.887084E-006	-0.0009076	7
	24	210	1193.986	421744.4	-724866.1	1	838629.3	-59.80813	-2.406932E-005	0.0052479	8
	25	220	946.5144	195842.3	-522620.5	1	558109.7	-69.45744	-5.166658E-006	0.0033869	7
	26	226	751.7689	-226407.5	-936735.9	1	963709	-103.5877	-6.3424E-006	0.0250174	7
	27	231	597.4265	-379505.8	799210.3	1	884738.2	115.4007	2.645583E-005	-0.0091787	8
	28	238	477.4305	1064011	-1535214	1	1867886	-55.27533	-9.102739E-008	0.0005607	7
	29	245	376.6741	1637550	-1589313	1	2281991	-44.14359	-1.023783E-009	0.0006146	5
	30	248	298.2954	1960575	-1658053	1	2567683	-40.2211	-1.049991E-009	0.0005876	5
	31	251	237.7717	2170363	-1837043	1	2843449	-40.24531	-9.364585E-009	0.0005852	6
	32	255	189.0121	2669343	-1705227	1	3167522	-32.57122	-1.030085E-009	0.0005733	5
	33	259	150.2404	2958216	-1775015	1	3449887	-30.96497	-1.022762E-008	0.0007179	6
	34	263	119.1737	3134673	-1894922	1	3662909	-31.15313	-9.460231E-010	0.000576	5
	35	266	95.0169	3705641	-1503638	1	3999088	-22.08585	-1.061318E-009	0.0006498	5
	36	270	75.60484	4020708	-1433508	1	4268611	-19.62274	-1.111473E-009	0.0006317	5
	37	274	54.50582	4334077	-1108824	1	4473669	-14.35066	-9.950563E-010	0.0005763	5
	38	279	45.95588	4821933	-523622.7	1	4850281	-6.197569	-1.182833E-010	0.0005912	4
	39	281	37.20238	5008007	-423043.3	1	5025843	-4.828506	-1.038125E-010	0.000627	4
	40	284	30.04808	5010426	-352643.5	1	5022821	-4.025949	-1.120236E-010	0.0005721	4
	41	287	23.91582	5146078	-352050.3	1	5158106	-3.913585	-6.437661E-011	0.0005705	4
	42	289	18.60119	5200884	-399830.9	1	5216230	-4.396109	4.494236E-012	0.0006474	4
	43	292	15.02404	5248850	-214267.8	1	5253221	-2.337622	-1.325994E-010	0.000595	4
	44	294	12.01923	5329745	-191393.7	1	5333181	-2.056636	-1.481499E-010	0.000585	4
	45	297	9.450605	5415997	-148120.9	1	5418022	-1.566579	-1.32449E-010	0.0005949	4
	46	300	7.512019	5498227	-122474.4	1	5499591	-1.276067	-1.382133E-010	0.0006814	4
	47	303	5.978954	5630889	-116650.5	1	5632097	-1.18678	-1.397529E-010	0.0006668	4
	48	307	4.734848	5773038	-98471.7	1	5773878	-0.977209	-1.373863E-010	0.0007321	4
	49	312	3.75601	5961765	-100588.7	1	5962614	-0.96662	-1.520456E-010	0.0006514	4
	50	317	3.004808	6164527	-78952.08	1	6165032	-0.7337747	-1.288359E-010	0.0006229	4
	51	324	2.372217	6356362	-66769.94	1	6356712	-0.6018372	-1.273336E-010	0.0006944	4
	52	328	1.878005	6523569	-63174.91	1	6523875	-0.5548409	-1.494053E-010	0.0006141	4
	53	333	1.512097	6724843	-60693.48	1	6725117	-0.5170954	-1.520988E-010	0.0006033	4
	54	338	1.201923	6955526	-58373.3	1	6955771	-0.4808357	-1.513646E-010	0.0006542	4
	55	344	0.956633	7221695	-59415.18	1	7221939	-0.47138	-2.334637E-010	-1.078888E-005	4
