EXPLAIN
TAG	EISPOT
TITLE	LABEL	Potentiostatic EIS	Test Identifier
DATE	LABEL	9/13/2020	Date
TIME	LABEL	13:31:01	Time
NOTES	NOTES	1	Notes...
	
PSTAT	PSTAT	REF3000-16137	Potentiostat
VDC	POTEN	0.00000E+000	T	DC Voltage (V)
FREQINIT	QUANT	3.00000E+005	Initial Freq. (Hz)
FREQFINAL	QUANT	1.00000E+000	Final Freq. (Hz)
PTSPERDEC	QUANT	1.00000E+001	Points/decade
VAC	QUANT	5.00000E+001	AC Voltage (mV rms)
AREA	QUANT	1.00000E+000	Sample Area (cm^2)
SPEED	SELECTOR	2	Optimize for:
ZGUESS	QUANT	1.00000E+003	Estimated Z (ohms)
EOC	QUANT	0	Open Circuit (V)
SEQUENCER	TOGGLE	TRUE	Run as Sequence
PSTATMODEL	IQUANT	5	Pstat Model
PSTATSECTION	LABEL	REF3000-16137	Pstat Section
PSTATSERIALNO	LABEL	16137	Pstat Serial Number
CTRLMODE	IQUANT	1	Control Mode
IESTAB	IQUANT	0	I/E Stability
CASPEED	IQUANT	1	Control Amp Speed
CONVENTION	IQUANT	1	Current Convention
ICHRANGE	IQUANT	2	Ich Range
ICHRANGEMODE	TOGGLE	F	Ich Auto Range
ICHOFFSETENABLE	TOGGLE	T	Ich Offset Enable
ICHOFFSET	QUANT	0	Ich Offset (V)
ICHFILTER	IQUANT	3	Ich Filter
VCHRANGE	IQUANT	2	Vch Range
VCHRANGEMODE	TOGGLE	F	Vch Auto Range
VCHOFFSETENABLE	TOGGLE	T	Vch Offset Enable
VCHOFFSET	QUANT	0	Vch Offset (V)
VCHFILTER	IQUANT	3	Vch Filter
ACHRANGE	IQUANT	2	Ach Range
ACHOFFSETENABLE	TOGGLE	F	Ach Offset Enable
ACHOFFSET	QUANT	0	Ach Offset (V)
ACHFILTER	IQUANT	3	Ach Filter
IERANGELOWERLIMIT	IQUANT	2	I/E Range Lower Limit
IERANGEMODE	TOGGLE	F	I/E AutoRange
IERANGE	IQUANT	11	I/E Range
POSFEEDENABLE	TOGGLE	F	Positive Feedback IR Comp
POSFEEDRESISTANCE	QUANT	0	Positive Feedback Resistance (ohm)
ACHSELECT	IQUANT	0	Ach Select
CABLEID	IQUANT	13	Cable ID
DCCALDATE	LABEL	7/31/2020	DC Calibration Date
ACCALDATE	LABEL	7/31/2020	AC Calibration Date
THERMOSELECT	IQUANT	1	Thermo Select
FRAMEWORKVERSION	QUANT	6.33	Framework Version
INSTRUMENTVERSION	LABEL	3.50	Instrument Version
COMPLIANCEVOLTAGE	IQUANT	0	Compliance Voltage
ZCURVE	TABLE
	Pt	Time	Freq	Zreal	Zimag	Zsig	Zmod	Zphz	Idc	Vdc	IERange
	#	s	Hz	ohm	ohm	V	ohm	°	A	V	#
	0	7	300046.9	92.40117	0.947982	1	92.40603	0.5878006	-1.256038E-005	-0.0013478	9
	1	10	238359.4	93.20772	0.6033241	1	93.20967	0.3708646	1.497696E-005	-0.0014384	9
	2	13	189328.1	94.04675	0.415038	1	94.04767	0.2528506	-3.052909E-005	-0.0004515	9
	3	16	150421.9	94.94825	0.1593705	1	94.94839	0.0961708	6.18574E-005	-0.0015274	9
	4	18	119484.4	95.6764	0.0606728	1	95.6764	0.0363339	2.653013E-005	0.0003305	9
	5	21	94921.88	96.4471	0.2070279	1	96.4473	0.1229877	-1.773778E-005	0.0006528	9
	6	23	75421.88	97.1586	0.0643181	1	97.1586	0.0379293	-1.721786E-005	0.0002502	9
	7	26	59859.37	97.9374	-0.1850484	1	97.9376	-0.1082577	3.089044E-006	-0.0004821	9
	8	28	47578.12	98.7712	-0.2963203	1	98.7716	-0.1718907	-6.911118E-006	-0.0000954	9
	9	31	37828.12	99.5144	-0.3782707	1	99.5151	-0.2177898	-2.0645E-005	0.000636	9
	10	33	30046.88	100.351	-0.4936931	1	100.3522	-0.2818736	-2.011051E-005	0.0006979	9
	11	36	23859.38	101.1061	-0.6117138	1	101.1079	-0.3466477	-2.052325E-005	0.0005753	9
	12	38	18984.38	101.867	-0.708411	1	101.8695	-0.398444	-2.061278E-005	0.0007319	9
	13	41	15046.87	102.5595	-0.9137951	1	102.5636	-0.5104864	-1.358499E-005	0.0001214	9
	14	43	11953.13	103.4246	-1.172019	1	103.4312	-0.6492544	-1.895947E-005	0.0005193	9
	15	45	9515.62	104.1554	-1.391138	1	104.1647	-0.7652179	-2.129226E-005	0.0007326	9
	16	48	7546.875	105.0067	-1.67723	1	105.0201	-0.9150847	2.206211E-005	-0.000251	9
	17	50	5928.309	105.7177	-2.062989	1	105.7378	-1.117936	-1.363037E-005	0.0001328	9
	18	52	4733.456	106.5546	-2.464668	1	106.5831	-1.325048	2.231147E-005	-0.0007076	9
	19	55	3796.875	107.3038	-3.041345	1	107.3469	-1.623517	-2.399415E-006	-0.0002842	9
	20	57	2987.132	108.3115	-3.606071	1	108.3715	-1.906873	-1.477083E-005	0.0001761	9
	21	59	2390.625	109.1855	-4.544103	1	109.28	-2.383172	-2.037788E-005	0.0007226	9
	22	61	1884.191	110.2529	-5.568834	1	110.3935	-2.891531	-1.00727E-005	-7.892248E-006	9
	23	64	1516.544	111.084	-6.850693	1	111.295	-3.529035	1.805408E-005	-8.582856E-005	9
	24	66	1193.986	112.1192	-8.521593	1	112.4426	-4.346395	1.270481E-005	-0.000673	9
	25	69	946.5144	113.1966	-10.53098	1	113.6855	-5.315076	2.344895E-005	-0.0004593	9
	26	71	751.7689	114.3164	-12.92463	1	115.0448	-6.450476	-2.569035E-006	-0.0003002	9
	27	73	597.4265	115.5531	-16.00088	1	116.6557	-7.88373	6.367373E-006	-0.000541	9
	28	76	477.4305	116.865	-19.55834	1	118.4903	-9.50088	1.273752E-006	5.438281E-005	9
	29	78	376.6741	118.328	-24.28834	1	120.795	-11.59958	1.28512E-006	4.580642E-005	9
	30	80	298.2954	119.9359	-30.07021	1	123.6481	-14.07501	9.348053E-007	0.0000974	9
	31	82	237.7717	121.7449	-37.01472	1	127.2475	-16.91111	1.245873E-006	4.424983E-005	9
	32	85	189.0121	123.8008	-45.68833	1	131.9624	-20.25643	1.195276E-006	5.49762E-005	9
	33	87	150.2404	126.1591	-56.40923	1	138.196	-24.09074	1.241789E-006	5.334549E-005	9
	34	90	119.1737	128.9171	-69.7784	1	146.59	-28.42517	1.23072E-006	5.565016E-005	9
	35	92	95.0169	132.1444	-85.89753	1	157.6088	-33.02498	1.17824E-006	4.532105E-005	9
	36	95	75.60484	136.0661	-105.9384	1	172.444	-37.90362	1.193107E-006	4.64003E-005	9
	37	97	54.50582	142.7996	-142.9272	1	202.0393	-45.02559	1.232089E-006	4.248613E-005	9
	38	100	45.95588	147.6657	-167.1292	1	223.0187	-48.53804	1.086397E-006	4.982998E-005	9
	39	102	37.20238	154.6315	-202.7357	1	254.9758	-52.66635	1.228768E-006	4.774967E-005	9
	40	104	30.04808	163.4415	-246.3558	1	295.6422	-56.43824	1.265644E-006	5.440692E-005	9
	41	107	23.91582	175.2076	-303.0878	1	350.0856	-59.96884	1.336272E-006	4.568154E-005	9
	42	109	18.60119	191.8446	-380.355	1	425.998	-63.23441	1.041201E-006	0.0001136	9
	43	111	15.02404	209.5175	-458.8054	1	504.3807	-65.45577	2.621104E-007	0.0006313	8
	44	114	12.01923	234.3617	-560.0643	1	607.1223	-67.29288	-5.001294E-008	0.0006735	8
	45	116	9.450605	269.284	-692.6323	1	743.1375	-68.75474	2.836978E-007	0.0006181	8
	46	119	7.512019	313.2103	-846.366	1	902.4612	-69.69226	2.798313E-007	0.0006251	8
	47	121	5.978954	368.9416	-1030.257	1	1094.325	-70.29723	2.173321E-007	0.0006228	8
	48	125	4.734848	444.4136	-1255.597	1	1331.927	-70.50879	1.831213E-007	0.0006537	8
	49	128	3.75601	539.3977	-1522.525	1	1615.25	-70.49187	1.124921E-007	0.0006739	8
	50	131	3.004808	653.0613	-1824.286	1	1937.656	-70.30356	1.180897E-007	0.000655	8
	51	135	2.372217	802.6841	-2201.573	1	2343.336	-69.96835	1.531877E-007	0.0006971	8
	52	139	1.878005	978.343	-2636.706	1	2812.361	-69.64275	1.248477E-007	0.0005966	8
	53	144	1.512097	1169.744	-3108.502	1	3321.308	-69.37844	1.531194E-007	0.0006982	8
	54	149	1.201923	1395.656	-3711.418	1	3965.158	-69.39154	1.421181E-007	0.0005906	8
	55	155	0.956633	1650.499	-4431.849	1	4729.211	-69.57378	-1.952175E-008	-3.736415E-005	7
