EXPLAIN
TAG	EISPOT
TITLE	LABEL	Potentiostatic EIS	Test Identifier
DATE	LABEL	9/13/2020	Date
TIME	LABEL	13:42:54	Time
NOTES	NOTES	1	Notes...
	
PSTAT	PSTAT	REF3000-16137	Potentiostat
VDC	POTEN	0.00000E+000	T	DC Voltage (V)
FREQINIT	QUANT	3.00000E+005	Initial Freq. (Hz)
FREQFINAL	QUANT	1.00000E+000	Final Freq. (Hz)
PTSPERDEC	QUANT	1.00000E+001	Points/decade
VAC	QUANT	5.00000E+001	AC Voltage (mV rms)
AREA	QUANT	1.00000E+000	Sample Area (cm^2)
SPEED	SELECTOR	2	Optimize for:
ZGUESS	QUANT	1.00000E+003	Estimated Z (ohms)
EOC	QUANT	0	Open Circuit (V)
SEQUENCER	TOGGLE	TRUE	Run as Sequence
PSTATMODEL	IQUANT	5	Pstat Model
PSTATSECTION	LABEL	REF3000-16137	Pstat Section
PSTATSERIALNO	LABEL	16137	Pstat Serial Number
CTRLMODE	IQUANT	1	Control Mode
IESTAB	IQUANT	0	I/E Stability
CASPEED	IQUANT	1	Control Amp Speed
CONVENTION	IQUANT	1	Current Convention
ICHRANGE	IQUANT	2	Ich Range
ICHRANGEMODE	TOGGLE	F	Ich Auto Range
ICHOFFSETENABLE	TOGGLE	T	Ich Offset Enable
ICHOFFSET	QUANT	0	Ich Offset (V)
ICHFILTER	IQUANT	3	Ich Filter
VCHRANGE	IQUANT	2	Vch Range
VCHRANGEMODE	TOGGLE	F	Vch Auto Range
VCHOFFSETENABLE	TOGGLE	T	Vch Offset Enable
VCHOFFSET	QUANT	0	Vch Offset (V)
VCHFILTER	IQUANT	3	Vch Filter
ACHRANGE	IQUANT	2	Ach Range
ACHOFFSETENABLE	TOGGLE	F	Ach Offset Enable
ACHOFFSET	QUANT	0	Ach Offset (V)
ACHFILTER	IQUANT	3	Ach Filter
IERANGELOWERLIMIT	IQUANT	2	I/E Range Lower Limit
IERANGEMODE	TOGGLE	F	I/E AutoRange
IERANGE	IQUANT	11	I/E Range
POSFEEDENABLE	TOGGLE	F	Positive Feedback IR Comp
POSFEEDRESISTANCE	QUANT	0	Positive Feedback Resistance (ohm)
ACHSELECT	IQUANT	0	Ach Select
CABLEID	IQUANT	13	Cable ID
DCCALDATE	LABEL	7/31/2020	DC Calibration Date
ACCALDATE	LABEL	7/31/2020	AC Calibration Date
THERMOSELECT	IQUANT	1	Thermo Select
FRAMEWORKVERSION	QUANT	6.33	Framework Version
INSTRUMENTVERSION	LABEL	3.50	Instrument Version
COMPLIANCEVOLTAGE	IQUANT	0	Compliance Voltage
ZCURVE	TABLE
	Pt	Time	Freq	Zreal	Zimag	Zsig	Zmod	Zphz	Idc	Vdc	IERange
	#	s	Hz	ohm	ohm	V	ohm	°	A	V	#
	0	14	300046.9	964.664	-274.6262	1	1002.994	-15.89089	2.273359E-005	-0.0005862	9
	1	31	238359.4	1032.209	-251.276	1	1062.353	-13.6817	2.648964E-005	-0.002063	9
	2	44	189328.1	1103.615	-222.0808	1	1125.738	-11.3777	4.995958E-005	0.000112	9
	3	52	150421.9	1159.812	-204.2657	1	1177.662	-9.98848	-0.0001044	0.0037464	9
	4	61	119484.4	1208.079	-139.4071	1	1216.096	-6.582567	-8.056519E-006	0.0121609	8
	5	68	94921.88	1241.793	-112.7663	1	1246.903	-5.188756	-1.85726E-005	0.0087309	8
	6	71	75421.88	1262.24	-95.612	1	1265.856	-4.331762	-2.072905E-006	-0.0035296	8
	7	74	59859.37	1281.186	-80.38702	1	1283.705	-3.590274	-2.065546E-005	0.0079224	8
	8	77	47578.12	1297.755	-68.52472	1	1299.563	-3.022553	-2.031244E-005	0.0079148	8
	9	80	37828.12	1320.088	-57.71621	1	1321.349	-2.503463	-1.446941E-005	0.0088416	8
	10	84	30046.88	1343.965	-46.05637	1	1344.754	-1.962702	-8.9116E-006	0.0082643	8
	11	87	23859.38	1354.97	-37.86299	1	1355.499	-1.600644	-1.945318E-005	0.0047185	8
	12	90	18984.38	1373.213	-33.79546	1	1373.629	-1.409794	2.137064E-005	-0.0044215	8
	13	93	15046.87	1393.751	-27.56113	1	1394.023	-1.132864	-1.977378E-005	0.0049346	8
	14	97	11953.13	1416.76	-22.75787	1	1416.943	-0.9202812	-2.096703E-005	0.0080739	8
	15	100	9515.62	1431.367	-21.46916	1	1431.528	-0.8593183	2.034464E-005	-0.0073571	8
	16	103	7546.875	1451.792	-18.49154	1	1451.91	-0.7297396	-8.409149E-006	0.0080434	8
	17	107	5928.309	1479.505	-15.61504	1	1479.588	-0.6046903	1.548874E-005	-0.0002432	8
	18	112	4733.456	1504.503	-11.80402	1	1504.549	-0.4495215	-8.076766E-006	0.0080093	8
	19	116	3796.875	1528.964	-12.85248	1	1529.018	-0.4816174	1.224983E-005	-0.0073101	8
	20	119	2987.132	1547.758	-14.64529	1	1547.827	-0.5421314	8.14782E-006	0.0029597	8
	21	123	2390.625	1574.95	-12.16237	1	1574.997	-0.4424515	-1.435566E-005	0.0013202	8
	22	126	1884.191	1595.836	-14.10048	1	1595.898	-0.5062408	2.243531E-005	-0.0062866	8
	23	131	1516.544	1625.238	-16.02868	1	1625.317	-0.5650533	8.371157E-006	0.0029928	8
	24	135	1193.986	1654.054	-13.25041	1	1654.107	-0.458979	-2.053606E-005	0.0050689	8
	25	140	946.5144	1673.232	-21.86103	1	1673.375	-0.7485355	8.492981E-006	0.0028314	8
	26	142	751.7689	1701.14	-21.56808	1	1701.276	-0.7263917	-1.558902E-005	0.0093055	8
	27	145	597.4265	1720.448	-21.26186	1	1720.579	-0.7080442	-2.703421E-006	-0.0037046	8
	28	147	477.4305	1732.62	-29.77533	1	1732.876	-0.984539	-2.884253E-007	0.0006221	8
	29	150	376.6741	1750.127	-35.6792	1	1750.491	-1.167906	-2.821238E-007	0.0006324	8
	30	152	298.2954	1767.748	-43.17271	1	1768.276	-1.399024	-3.028338E-007	0.0006359	8
	31	154	237.7717	1786.376	-52.27016	1	1787.141	-1.676021	-2.974095E-007	0.0006334	8
	32	157	189.0121	1805.508	-63.67672	1	1806.63	-2.019872	-2.465516E-007	0.0006175	8
	33	159	150.2404	1825.234	-77.82301	1	1826.893	-2.441457	-2.684118E-007	0.0006079	8
	34	162	119.1737	1845.357	-95.4679	1	1847.824	-2.961508	-2.846247E-007	0.0006223	8
	35	164	95.0169	1866.318	-117.1871	1	1869.993	-3.592917	-3.3162E-007	0.000666	8
	36	166	75.60484	1888.91	-144.1573	1	1894.403	-4.364224	-3.27213E-007	0.0006399	8
	37	169	54.50582	1914.93	-194.3534	1	1924.768	-5.795316	-2.648411E-007	0.0006018	8
	38	172	45.95588	1937.909	-227.5488	1	1951.223	-6.696992	-2.794825E-007	0.0006657	8
	39	174	37.20238	1961.798	-276.261	1	1981.154	-8.0157	-2.260456E-007	0.0006051	8
	40	176	30.04808	1988.799	-336.4744	1	2017.061	-9.60264	-3.149184E-007	0.0006106	8
	41	179	23.91582	2018.083	-415.1389	1	2060.34	-11.62413	-2.757097E-007	0.000614	8
	42	181	18.60119	2049.719	-523.5411	1	2115.525	-14.32819	-2.31104E-007	0.0006372	8
	43	183	15.02404	2086.212	-637.795	1	2181.528	-16.9994	-3.548703E-007	0.0006047	8
	44	187	12.01923	2132.633	-779.1373	1	2270.501	-20.0693	-2.019268E-007	0.0006225	8
	45	189	9.450605	2180.622	-976.567	1	2389.308	-24.12468	-3.026902E-007	0.0006176	8
	46	191	7.512019	2236.938	-1205.38	1	2541.03	-28.31811	-2.659395E-007	0.0006527	8
	47	194	5.978954	2303.085	-1486.529	1	2741.162	-32.84027	-2.948748E-007	0.0006408	8
	48	197	4.734848	2387.443	-1842.391	1	3015.674	-37.65739	-3.202837E-007	0.0006394	8
	49	200	3.75601	2489.115	-2278.264	1	3374.342	-42.46758	-3.01247E-007	0.0006457	8
	50	204	3.004808	2608.653	-2792.055	1	3821.078	-46.94496	-2.809295E-007	0.0006431	8
	51	208	2.372217	2776.75	-3471.098	1	4445.095	-51.34148	-5.880195E-008	0.0006777	7
	52	212	1.878005	2970.695	-4295.109	1	5222.355	-55.33049	-8.111972E-008	0.0005728	7
	53	216	1.512097	3204.315	-5216.632	1	6122.164	-58.43968	-6.65466E-008	0.000638	7
	54	222	1.201923	3520.641	-6442.433	1	7341.652	-61.34441	-6.949863E-008	0.0005592	7
	55	228	0.956633	3919.415	-7920.569	1	8837.264	-63.67195	-8.759739E-008	-4.682841E-005	7
