EXPLAIN
TAG	EISPOT
TITLE	LABEL	Potentiostatic EIS	Test Identifier
DATE	LABEL	9/13/2020	Date
TIME	LABEL	13:11:43	Time
NOTES	NOTES	1	Notes...
	
PSTAT	PSTAT	REF3000-16137	Potentiostat
VDC	POTEN	0.00000E+000	T	DC Voltage (V)
FREQINIT	QUANT	3.00000E+005	Initial Freq. (Hz)
FREQFINAL	QUANT	1.00000E+000	Final Freq. (Hz)
PTSPERDEC	QUANT	1.00000E+001	Points/decade
VAC	QUANT	5.00000E+001	AC Voltage (mV rms)
AREA	QUANT	1.00000E+000	Sample Area (cm^2)
SPEED	SELECTOR	2	Optimize for:
ZGUESS	QUANT	1.00000E+003	Estimated Z (ohms)
EOC	QUANT	0	Open Circuit (V)
SEQUENCER	TOGGLE	TRUE	Run as Sequence
PSTATMODEL	IQUANT	5	Pstat Model
PSTATSECTION	LABEL	REF3000-16137	Pstat Section
PSTATSERIALNO	LABEL	16137	Pstat Serial Number
CTRLMODE	IQUANT	1	Control Mode
IESTAB	IQUANT	0	I/E Stability
CASPEED	IQUANT	1	Control Amp Speed
CONVENTION	IQUANT	1	Current Convention
ICHRANGE	IQUANT	2	Ich Range
ICHRANGEMODE	TOGGLE	F	Ich Auto Range
ICHOFFSETENABLE	TOGGLE	T	Ich Offset Enable
ICHOFFSET	QUANT	0	Ich Offset (V)
ICHFILTER	IQUANT	3	Ich Filter
VCHRANGE	IQUANT	2	Vch Range
VCHRANGEMODE	TOGGLE	F	Vch Auto Range
VCHOFFSETENABLE	TOGGLE	T	Vch Offset Enable
VCHOFFSET	QUANT	0	Vch Offset (V)
VCHFILTER	IQUANT	3	Vch Filter
ACHRANGE	IQUANT	2	Ach Range
ACHOFFSETENABLE	TOGGLE	F	Ach Offset Enable
ACHOFFSET	QUANT	0	Ach Offset (V)
ACHFILTER	IQUANT	3	Ach Filter
IERANGELOWERLIMIT	IQUANT	2	I/E Range Lower Limit
IERANGEMODE	TOGGLE	F	I/E AutoRange
IERANGE	IQUANT	11	I/E Range
POSFEEDENABLE	TOGGLE	F	Positive Feedback IR Comp
POSFEEDRESISTANCE	QUANT	0	Positive Feedback Resistance (ohm)
ACHSELECT	IQUANT	0	Ach Select
CABLEID	IQUANT	13	Cable ID
DCCALDATE	LABEL	7/31/2020	DC Calibration Date
ACCALDATE	LABEL	7/31/2020	AC Calibration Date
THERMOSELECT	IQUANT	1	Thermo Select
FRAMEWORKVERSION	QUANT	6.33	Framework Version
INSTRUMENTVERSION	LABEL	3.50	Instrument Version
COMPLIANCEVOLTAGE	IQUANT	0	Compliance Voltage
ZCURVE	TABLE
	Pt	Time	Freq	Zreal	Zimag	Zsig	Zmod	Zphz	Idc	Vdc	IERange
	#	s	Hz	ohm	ohm	V	ohm	°	A	V	#
	0	8	300046.9	7.274734	2.182118	1	7.594958	16.69706	5.85411E-005	-0.0002792	10
	1	11	238359.4	7.259285	1.742668	1	7.465528	13.49902	-1.289074E-005	2.153374E-005	10
	2	15	189328.1	7.261025	1.366138	1	7.388425	10.65544	-4.458756E-005	0.0003199	10
	3	17	150421.9	7.256249	1.068142	1	7.334445	8.373977	2.936353E-005	0.0003575	10
	4	20	119484.4	7.270202	0.8119755	1	7.315404	6.372693	8.843315E-006	0.000486	10
	5	22	94921.88	7.285733	0.6311842	1	7.313022	4.951338	-1.104533E-005	0.0005529	10
	6	25	75421.88	7.29596	0.4485911	1	7.309738	3.518394	1.381395E-005	0.0005101	10
	7	27	59859.37	7.312088	0.2917807	1	7.317907	2.285111	2.232658E-005	0.000593	10
	8	30	47578.12	7.331583	0.1545912	1	7.333212	1.20794	1.110716E-005	0.000559	10
	9	32	37828.12	7.353746	0.0305707	1	7.35381	0.2381867	-2.298852E-005	0.000665	10
	10	35	30046.88	7.375189	-0.0882517	1	7.375717	-0.6855698	3.173439E-006	0.0005818	10
	11	37	23859.38	7.398345	-0.2083801	1	7.401279	-1.613353	-1.705113E-005	0.000686	10
	12	40	18984.38	7.421184	-0.3356771	1	7.428771	-2.589854	9.972476E-006	0.0005896	10
	13	42	15046.87	7.447177	-0.4786198	1	7.462541	-3.677263	3.657416E-006	0.0005956	10
	14	44	11953.13	7.47542	-0.6420245	1	7.502939	-4.908787	1.832511E-006	0.000594	10
	15	47	9515.62	7.506881	-0.8324012	1	7.552891	-6.327399	8.766328E-006	0.0006624	10
	16	49	7546.875	7.543711	-1.063707	1	7.618337	-8.026123	-2.601834E-005	0.0006769	10
	17	51	5928.309	7.587191	-1.359011	1	7.707942	-10.15508	-2.630661E-005	0.000659	10
	18	53	4733.456	7.635344	-1.69636	1	7.821516	-12.52607	6.358698E-006	0.0006392	10
	19	56	3796.875	7.694306	-2.098983	1	7.975467	-15.25883	-2.363887E-005	0.0006782	10
	20	58	2987.132	7.767808	-2.639536	1	8.204022	-18.76799	2.092472E-005	0.0006244	10
	21	60	2390.625	7.856256	-3.26028	1	8.505892	-22.53804	-1.209451E-005	0.0006901	10
	22	63	1884.191	7.971231	-4.07724	1	8.953458	-27.08949	-2.648632E-005	0.0007076	10
	23	65	1516.544	8.10399	-4.992923	1	9.51861	-31.6375	-5.177904E-006	0.0006139	10
	24	67	1193.986	8.284757	-6.237535	1	10.37034	-36.97583	-1.607543E-005	0.0006734	10
	25	70	946.5144	8.510158	-7.733415	1	11.49906	-42.26229	7.864666E-006	0.0006637	10
	26	72	751.7689	8.795277	-9.56218	1	12.992	-47.3922	4.750515E-006	0.0006451	10
	27	75	597.4265	9.157374	-11.79803	1	14.93489	-52.18217	9.584856E-006	0.0006032	10
	28	77	477.4305	9.60177	-14.48355	1	17.3772	-56.4579	-2.547732E-006	0.0006501	10
	29	79	376.6741	10.19832	-17.96967	1	20.66191	-60.42381	-2.560801E-006	0.0006437	10
	30	82	298.2954	10.94627	-22.20674	1	24.75803	-63.76013	-2.79432E-006	0.0006426	10
	31	84	237.7717	11.87189	-27.26396	1	29.7366	-66.46964	-2.516413E-006	0.0006465	10
	32	86	189.0121	13.05816	-33.53518	1	35.98783	-68.72472	-1.64804E-006	0.0006413	10
	33	89	150.2404	14.55441	-41.16775	1	43.66479	-70.52951	7.879184E-007	0.0001031	9
	34	91	119.1737	16.5172	-50.67094	1	53.29504	-71.94559	1.24937E-006	4.507446E-005	9
	35	94	95.0169	18.99277	-62.01519	1	64.85838	-72.97227	1.219198E-006	4.73131E-005	9
	36	96	75.60484	22.2278	-75.95939	1	79.14483	-73.68908	1.185062E-006	4.661887E-005	9
	37	99	54.50582	28.61927	-101.2591	1	105.2258	-74.2179	1.138543E-006	4.525003E-005	9
	38	101	45.95588	33.05295	-117.495	1	122.0556	-74.28798	1.195998E-006	5.100974E-005	9
	39	103	37.20238	39.86406	-140.8579	1	146.3902	-74.19801	1.169691E-006	5.253509E-005	9
	40	106	30.04808	48.59436	-168.7837	1	175.6398	-73.93841	1.146612E-006	4.981069E-005	9
	41	108	23.91582	60.22193	-203.8752	1	212.5836	-73.54359	6.555725E-007	0.0001013	9
	42	111	18.60119	76.34974	-250.0409	1	261.4378	-73.02	1.326221E-006	4.916573E-005	9
	43	113	15.02404	92.98639	-296.2104	1	310.4626	-72.57188	1.352467E-006	5.037682E-005	9
	44	115	12.01923	113.1489	-352.6194	1	370.3284	-72.20955	1.324655E-006	4.881455E-005	9
	45	118	9.450605	137.3589	-422.9615	1	444.7065	-72.00854	6.133382E-007	0.0006154	8
	46	120	7.512019	163.5442	-504.9928	1	530.8149	-72.05521	6.345086E-007	0.0006416	8
	47	123	5.978954	192.2349	-603.6029	1	633.4751	-72.33441	5.404065E-007	0.0006244	8
	48	126	4.734848	224.0414	-727.1921	1	760.9224	-72.8764	6.318488E-007	0.0006421	8
	49	129	3.75601	258.8118	-877.7247	1	915.087	-73.57097	5.290461E-007	0.000618	8
	50	132	3.004808	296.3066	-1056.033	1	1096.815	-74.3267	6.016596E-007	0.0005918	8
	51	136	2.372217	341.0194	-1289.914	1	1334.231	-75.1913	5.852006E-007	0.0005834	8
	52	140	1.878005	395.7693	-1579.726	1	1628.547	-75.93516	5.4327E-007	0.0006287	8
	53	145	1.512097	454.9417	-1911.204	1	1964.605	-76.61053	5.262793E-007	0.0005668	8
	54	151	1.201923	531.1722	-2345.501	1	2404.895	-77.23979	5.490926E-007	0.0006459	8
	55	157	0.956633	624.9174	-2878.15	1	2945.211	-77.74982	5.468652E-007	-1.478449E-005	8
