EXPLAIN
TAG	EISPOT
TITLE	LABEL	Potentiostatic EIS	Test Identifier
DATE	LABEL	9/13/2020	Date
TIME	LABEL	13:22:45	Time
NOTES	NOTES	1	Notes...
	
PSTAT	PSTAT	REF3000-16137	Potentiostat
VDC	POTEN	0.00000E+000	T	DC Voltage (V)
FREQINIT	QUANT	3.00000E+005	Initial Freq. (Hz)
FREQFINAL	QUANT	1.00000E+000	Final Freq. (Hz)
PTSPERDEC	QUANT	1.00000E+001	Points/decade
VAC	QUANT	5.00000E+001	AC Voltage (mV rms)
AREA	QUANT	1.00000E+000	Sample Area (cm^2)
SPEED	SELECTOR	2	Optimize for:
ZGUESS	QUANT	1.00000E+003	Estimated Z (ohms)
EOC	QUANT	0	Open Circuit (V)
SEQUENCER	TOGGLE	TRUE	Run as Sequence
PSTATMODEL	IQUANT	5	Pstat Model
PSTATSECTION	LABEL	REF3000-16137	Pstat Section
PSTATSERIALNO	LABEL	16137	Pstat Serial Number
CTRLMODE	IQUANT	1	Control Mode
IESTAB	IQUANT	0	I/E Stability
CASPEED	IQUANT	1	Control Amp Speed
CONVENTION	IQUANT	1	Current Convention
ICHRANGE	IQUANT	2	Ich Range
ICHRANGEMODE	TOGGLE	F	Ich Auto Range
ICHOFFSETENABLE	TOGGLE	T	Ich Offset Enable
ICHOFFSET	QUANT	0	Ich Offset (V)
ICHFILTER	IQUANT	3	Ich Filter
VCHRANGE	IQUANT	2	Vch Range
VCHRANGEMODE	TOGGLE	F	Vch Auto Range
VCHOFFSETENABLE	TOGGLE	T	Vch Offset Enable
VCHOFFSET	QUANT	0	Vch Offset (V)
VCHFILTER	IQUANT	3	Vch Filter
ACHRANGE	IQUANT	2	Ach Range
ACHOFFSETENABLE	TOGGLE	F	Ach Offset Enable
ACHOFFSET	QUANT	0	Ach Offset (V)
ACHFILTER	IQUANT	3	Ach Filter
IERANGELOWERLIMIT	IQUANT	2	I/E Range Lower Limit
IERANGEMODE	TOGGLE	F	I/E AutoRange
IERANGE	IQUANT	11	I/E Range
POSFEEDENABLE	TOGGLE	F	Positive Feedback IR Comp
POSFEEDRESISTANCE	QUANT	0	Positive Feedback Resistance (ohm)
ACHSELECT	IQUANT	0	Ach Select
CABLEID	IQUANT	13	Cable ID
DCCALDATE	LABEL	7/31/2020	DC Calibration Date
ACCALDATE	LABEL	7/31/2020	AC Calibration Date
THERMOSELECT	IQUANT	1	Thermo Select
FRAMEWORKVERSION	QUANT	6.33	Framework Version
INSTRUMENTVERSION	LABEL	3.50	Instrument Version
COMPLIANCEVOLTAGE	IQUANT	0	Compliance Voltage
ZCURVE	TABLE
	Pt	Time	Freq	Zreal	Zimag	Zsig	Zmod	Zphz	Idc	Vdc	IERange
	#	s	Hz	ohm	ohm	V	ohm	°	A	V	#
	0	8	300046.9	19.85161	2.010553	1	19.95316	5.783145	-0.0001063	0.0002486	10
	1	11	238359.4	20.02302	1.564924	1	20.08408	4.468938	-1.406545E-005	0.0003495	10
	2	14	189328.1	20.19899	1.218936	1	20.23573	3.453407	-0.0001076	0.0004104	10
	3	17	150421.9	20.33898	0.950184	1	20.36116	2.674765	2.391955E-005	0.0005006	10
	4	19	119484.4	20.49707	0.7082064	1	20.5093	1.978874	-1.828253E-005	0.0006526	10
	5	22	94921.88	20.64709	0.5158335	1	20.65353	1.431143	7.116362E-006	0.0005502	10
	6	24	75421.88	20.81305	0.3401463	1	20.81582	0.9362981	1.438451E-005	0.0005539	10
	7	27	59859.37	20.98288	0.1870442	1	20.98371	0.5107288	1.573442E-005	0.0005567	10
	8	29	47578.12	21.15796	0.049383	1	21.15802	0.1337291	1.423415E-005	0.0006068	10
	9	32	37828.12	21.33505	-0.0834103	1	21.33521	-0.2239991	2.241865E-005	0.0006003	10
	10	34	30046.88	21.51566	-0.2104037	1	21.51669	-0.5602832	-2.738159E-005	0.0006747	10
	11	37	23859.38	21.69408	-0.3512243	1	21.69692	-0.9275302	7.457003E-006	0.0006131	10
	12	39	18984.38	21.86902	-0.5072116	1	21.8749	-1.328632	1.999348E-005	0.0006098	10
	13	42	15046.87	22.05276	-0.6884981	1	22.0635	-1.788222	5.206405E-006	0.0005812	10
	14	44	11953.13	22.24454	-0.8860164	1	22.26218	-2.280927	-3.078081E-006	0.0005944	10
	15	46	9515.62	22.44263	-1.128527	1	22.47099	-2.87869	-2.671522E-005	0.0006976	10
	16	49	7546.875	22.65172	-1.425817	1	22.69655	-3.601742	1.723979E-005	0.0006705	10
	17	51	5928.309	22.8737	-1.797503	1	22.94422	-4.493287	2.471575E-005	0.0006167	10
	18	53	4733.456	23.11615	-2.22646	1	23.22312	-5.501542	-2.366408E-006	0.0006037	10
	19	56	3796.875	23.37284	-2.73318	1	23.5321	-6.669778	-1.115711E-005	0.0006201	10
	20	58	2987.132	23.66746	-3.408308	1	23.91161	-8.194724	2.449625E-005	0.0006194	10
	21	60	2390.625	23.9875	-4.169592	1	24.34719	-9.86083	1.558168E-005	0.0006244	10
	22	62	1884.191	24.36463	-5.166586	1	24.9064	-11.97238	5.430632E-006	0.0006577	10
	23	65	1516.544	24.76742	-6.262473	1	25.54689	-14.18989	2.467797E-005	0.0006354	10
	24	67	1193.986	25.26691	-7.733152	1	26.42383	-17.01717	-5.330046E-006	0.0006698	10
	25	70	946.5144	25.82568	-9.457209	1	27.50281	-20.11243	-2.746397E-005	0.0006911	10
	26	72	751.7689	26.44244	-11.55573	1	28.85719	-23.60603	2.299018E-005	0.0006072	10
	27	74	597.4265	27.14709	-14.08915	1	30.58544	-27.429	-1.760555E-005	0.0006395	10
	28	77	477.4305	27.91687	-17.09858	1	32.73702	-31.48672	-2.239922E-006	0.0006494	10
	29	79	376.6741	28.82156	-21.00931	1	35.66614	-36.08997	-2.43939E-006	0.0006489	10
	30	81	298.2954	29.80514	-25.74428	1	39.38418	-40.81891	1.277053E-006	5.103206E-005	9
	31	84	237.7717	30.96629	-31.45742	1	44.14159	-45.45078	1.27238E-006	4.67999E-005	9
	32	86	189.0121	32.35114	-38.5974	1	50.36224	-50.03131	1.230425E-006	5.473238E-005	9
	33	88	150.2404	34.02575	-47.41272	1	58.35853	-54.33488	1.291786E-006	4.422454E-005	9
	34	91	119.1737	36.11012	-58.41392	1	68.67406	-58.27661	1.298685E-006	4.552335E-005	9
	35	93	95.0169	38.65572	-71.65102	1	81.41335	-61.65314	1.304459E-006	4.037145E-005	9
	36	96	75.60484	41.90177	-88.06287	1	97.5235	-64.55412	1.292709E-006	4.188474E-005	9
	37	98	54.50582	48.06621	-118.1977	1	127.5972	-67.87041	1.305029E-006	3.678315E-005	9
	38	101	45.95588	52.37882	-137.7946	1	147.414	-69.18707	1.334502E-006	4.636939E-005	9
	39	103	37.20238	58.92776	-166.3979	1	176.5241	-70.49903	1.311183E-006	4.749595E-005	9
	40	105	30.04808	67.37688	-201.1675	1	212.1509	-71.4828	1.2537E-006	5.501226E-005	9
	41	108	23.91582	78.98308	-245.9043	1	258.2775	-72.19328	1.236463E-006	4.479122E-005	9
	42	110	18.60119	95.836	-305.927	1	320.5868	-72.6061	1.470973E-006	4.014274E-005	9
	43	113	15.02404	114.4225	-367.4395	1	384.8431	-72.70316	1.17735E-006	3.443933E-005	9
	44	115	12.01923	138.3925	-441.2609	1	462.454	-72.58703	5.99101E-007	0.0006169	8
	45	117	9.450605	171.377	-537.9657	1	564.6036	-72.32994	5.595149E-007	0.0006088	8
	46	120	7.512019	210.4192	-647.288	1	680.6306	-71.99178	5.775281E-007	0.0006168	8
	47	123	5.978954	256.306	-774.859	1	816.149	-71.69695	5.634966E-007	0.0006254	8
	48	126	4.734848	311.4041	-930.3718	1	981.104	-71.49413	4.796269E-007	0.0006143	8
	49	129	3.75601	373.2414	-1113.337	1	1174.235	-71.4665	5.291793E-007	0.0006286	8
	50	132	3.004808	439.8993	-1323.793	1	1394.969	-71.61824	4.77827E-007	0.0006615	8
	51	136	2.372217	518.086	-1595.479	1	1677.488	-72.01028	5.034373E-007	0.0006975	8
	52	140	1.878005	602.4513	-1923.25	1	2015.4	-72.60702	4.861785E-007	0.0006008	8
	53	145	1.512097	691.4539	-2292.39	1	2394.402	-73.21511	5.236826E-007	0.0006867	8
	54	150	1.201923	793.7828	-2785.471	1	2896.367	-74.0939	4.892953E-007	0.0005937	8
	55	157	0.956633	911.9666	-3385.882	1	3506.548	-74.92547	4.699998E-007	-1.144955E-005	8
