EXPLAIN
TAG	EISPOT
TITLE	LABEL	Potentiostatic EIS	Test Identifier
DATE	LABEL	9/13/2020	Date
TIME	LABEL	12:15:25	Time
NOTES	NOTES	1	Notes...
	
PSTAT	PSTAT	REF3000-16137	Potentiostat
VDC	POTEN	0.00000E+000	T	DC Voltage (V)
FREQINIT	QUANT	3.00000E+005	Initial Freq. (Hz)
FREQFINAL	QUANT	1.00000E+000	Final Freq. (Hz)
PTSPERDEC	QUANT	1.00000E+001	Points/decade
VAC	QUANT	5.00000E+001	AC Voltage (mV rms)
AREA	QUANT	1.00000E+000	Sample Area (cm^2)
SPEED	SELECTOR	2	Optimize for:
ZGUESS	QUANT	1.00000E+003	Estimated Z (ohms)
EOC	QUANT	0	Open Circuit (V)
SEQUENCER	TOGGLE	TRUE	Run as Sequence
PSTATMODEL	IQUANT	5	Pstat Model
PSTATSECTION	LABEL	REF3000-16137	Pstat Section
PSTATSERIALNO	LABEL	16137	Pstat Serial Number
CTRLMODE	IQUANT	1	Control Mode
IESTAB	IQUANT	0	I/E Stability
CASPEED	IQUANT	1	Control Amp Speed
CONVENTION	IQUANT	1	Current Convention
ICHRANGE	IQUANT	2	Ich Range
ICHRANGEMODE	TOGGLE	F	Ich Auto Range
ICHOFFSETENABLE	TOGGLE	T	Ich Offset Enable
ICHOFFSET	QUANT	0	Ich Offset (V)
ICHFILTER	IQUANT	3	Ich Filter
VCHRANGE	IQUANT	2	Vch Range
VCHRANGEMODE	TOGGLE	F	Vch Auto Range
VCHOFFSETENABLE	TOGGLE	T	Vch Offset Enable
VCHOFFSET	QUANT	0	Vch Offset (V)
VCHFILTER	IQUANT	3	Vch Filter
ACHRANGE	IQUANT	2	Ach Range
ACHOFFSETENABLE	TOGGLE	F	Ach Offset Enable
ACHOFFSET	QUANT	0	Ach Offset (V)
ACHFILTER	IQUANT	3	Ach Filter
IERANGELOWERLIMIT	IQUANT	2	I/E Range Lower Limit
IERANGEMODE	TOGGLE	F	I/E AutoRange
IERANGE	IQUANT	11	I/E Range
POSFEEDENABLE	TOGGLE	F	Positive Feedback IR Comp
POSFEEDRESISTANCE	QUANT	0	Positive Feedback Resistance (ohm)
ACHSELECT	IQUANT	0	Ach Select
CABLEID	IQUANT	13	Cable ID
DCCALDATE	LABEL	7/31/2020	DC Calibration Date
ACCALDATE	LABEL	7/31/2020	AC Calibration Date
THERMOSELECT	IQUANT	1	Thermo Select
FRAMEWORKVERSION	QUANT	6.33	Framework Version
INSTRUMENTVERSION	LABEL	3.50	Instrument Version
COMPLIANCEVOLTAGE	IQUANT	0	Compliance Voltage
ZCURVE	TABLE
	Pt	Time	Freq	Zreal	Zimag	Zsig	Zmod	Zphz	Idc	Vdc	IERange
	#	s	Hz	ohm	ohm	V	ohm	°	A	V	#
	0	10	300046.9	3.010573	1.867049	1	3.542516	31.8057	5.176217E-005	-0.0003587	10
	1	13	238359.4	3.047259	1.394472	1	3.35117	24.58956	-3.991793E-007	-0.0006017	10
	2	17	189328.1	3.149182	0.7744223	1	3.243004	13.8156	-6.103752E-005	-0.0003039	12
	3	20	150421.9	3.168153	0.6821055	1	3.24075	12.15035	-0.0001431	0.0001612	11
	4	23	119484.4	3.23686	0.4508105	1	3.268102	7.92881	1.650874E-005	0.0005863	11
	5	25	94921.88	3.304447	0.2722352	1	3.315642	4.709648	-3.541672E-006	0.0005579	11
	6	28	75421.88	3.368886	0.1346009	1	3.371574	2.287987	-4.583784E-005	0.0005911	11
	7	30	59859.37	3.426806	0.0268107	1	3.426911	0.4482619	-5.114488E-005	0.0006588	11
	8	33	47578.12	3.477417	-0.0586624	1	3.477912	-0.966462	-4.404822E-005	0.0006795	11
	9	35	37828.12	3.520278	-0.1310798	1	3.522717	-2.132459	-4.740878E-005	0.0007196	11
	10	38	30046.88	3.560661	-0.1905921	1	3.565758	-3.063956	-2.734902E-005	0.000655	10
	11	40	23859.38	3.591978	-0.2588499	1	3.601292	-4.121799	-2.655879E-005	0.000624	10
	12	43	18984.38	3.621348	-0.3311492	1	3.636457	-5.224803	9.721008E-006	0.0006329	10
	13	45	15046.87	3.648192	-0.4135949	1	3.671562	-6.467996	7.187708E-006	0.0006167	10
	14	47	11953.13	3.673485	-0.509725	1	3.708681	-7.899798	-1.774158E-005	0.0006792	10
	15	50	9515.62	3.700403	-0.6245965	1	3.752746	-9.58073	9.874164E-006	0.0006562	10
	16	52	7546.875	3.730151	-0.7668839	1	3.808167	-11.61759	-2.656918E-007	0.0006554	10
	17	54	5928.309	3.76574	-0.9493372	1	3.88356	-14.14935	-1.823218E-005	0.0006391	10
	18	57	4733.456	3.80554	-1.159731	1	3.978331	-16.9485	-2.958597E-005	0.0006589	10
	19	59	3796.875	3.852505	-1.410454	1	4.102582	-20.10836	-7.679146E-006	0.0006276	10
	20	61	2987.132	3.913864	-1.748237	1	4.286568	-24.06927	-2.803137E-005	0.0006629	10
	21	64	2390.625	3.984678	-2.133994	1	4.520132	-28.17128	1.529947E-005	0.0006441	10
	22	66	1884.191	4.079708	-2.638459	1	4.858548	-32.89186	-1.158982E-005	0.0006247	10
	23	68	1516.544	4.187762	-3.202475	1	5.271925	-37.40596	-1.929635E-006	0.0006221	10
	24	71	1193.986	4.340341	-3.964428	1	5.878371	-42.40829	1.152929E-005	0.0006399	10
	25	73	946.5144	4.530859	-4.876935	1	6.656815	-47.10673	-3.700727E-005	0.0006544	10
	26	75	751.7689	4.777574	-5.982144	1	7.655799	-51.38777	-3.416369E-005	0.0006622	10
	27	78	597.4265	5.093912	-7.324034	1	8.921289	-55.18114	3.29095E-006	0.0006168	10
	28	80	477.4305	5.49772	-8.918434	1	10.4768	-58.34847	-8.972519E-006	0.0006599	10
	29	82	376.6741	6.058279	-10.95492	1	12.5185	-61.05657	-8.59582E-006	0.000649	10
	30	85	298.2954	6.779467	-13.37514	1	14.99519	-63.1209	-8.811968E-006	0.0006521	10
	31	87	237.7717	7.682696	-16.17863	1	17.9101	-64.5985	-9.205611E-006	0.000647	10
	32	89	189.0121	8.835083	-19.53473	1	21.43978	-65.66391	-8.98597E-006	0.0006522	10
	33	92	150.2404	10.25473	-23.48009	1	25.62175	-66.40711	-9.076803E-006	0.0006523	10
	34	94	119.1737	11.96813	-28.16253	1	30.60007	-66.97614	-8.853604E-006	0.0006544	10
	35	96	95.0169	13.8969	-33.53817	1	36.30334	-67.49281	-8.911669E-006	0.0006491	10
	36	99	75.60484	16.05195	-39.92298	1	43.02917	-68.09628	-5.512205E-006	5.286094E-005	9
	37	102	54.50582	19.51369	-51.44146	1	55.01825	-69.22636	-5.625557E-006	4.949747E-005	9
	38	104	45.95588	21.50018	-58.89969	1	62.70112	-69.94638	-5.406748E-006	5.83688E-005	9
	39	106	37.20238	24.14935	-69.86176	1	73.91791	-70.9311	-5.485824E-006	5.486886E-005	9
	40	109	30.04808	27.19254	-83.41095	1	87.73153	-71.94367	-5.536242E-006	5.218044E-005	9
	41	111	23.91582	30.95336	-101.1868	1	105.8153	-72.99096	-5.350815E-006	5.036901E-005	9
	42	114	18.60119	36.16872	-125.8515	1	130.9457	-73.96577	-4.977564E-006	5.467367E-005	9
	43	116	15.02404	41.8638	-151.953	1	157.6144	-74.59686	-5.914077E-006	5.442599E-005	9
	44	118	12.01923	49.69553	-185.0476	1	191.6045	-74.9676	-5.472446E-006	5.429633E-005	9
	45	121	9.450605	61.21136	-229.079	1	237.1161	-75.03972	-5.91899E-006	5.368712E-005	9
	46	123	7.512019	76.0248	-280.2805	1	290.4082	-74.82394	-5.573714E-006	8.989439E-005	9
	47	126	5.978954	96.4784	-341.6287	1	354.9904	-74.22994	-5.294401E-006	5.079237E-005	9
	48	129	4.734848	124.8335	-416.6872	1	434.9846	-73.32253	-5.388525E-006	2.6998E-005	9
	49	132	3.75601	162.4569	-501.3283	1	526.9937	-72.04493	-5.695069E-006	0.0006538	8
	50	135	3.004808	210.5342	-597.4962	1	633.5032	-70.58955	-5.809523E-006	0.0006376	8
	51	139	2.372217	276.1417	-712.2442	1	763.9019	-68.80836	-5.809907E-006	0.0006195	8
	52	143	1.878005	357.459	-840.9979	1	913.8131	-66.9725	-5.683404E-006	0.0006227	8
	53	148	1.512097	445.4616	-972.295	1	1069.483	-65.38489	-5.724882E-006	0.0007193	8
	54	153	1.201923	554.343	-1126.891	1	1255.859	-63.8064	-5.647771E-006	0.0006266	8
	55	166	0.956633	675.4015	-1301.466	1	1466.281	-62.57275	-5.73698E-006	5.275115E-008	8
