EXPLAIN
TAG	EISPOT
TITLE	LABEL	Potentiostatic EIS	Test Identifier
DATE	LABEL	8/5/2020	Date
TIME	LABEL	22:15:27	Time
NOTES	NOTES	1	Notes...
	
PSTAT	PSTAT	REF3000-16137	Potentiostat
VDC	POTEN	0.00000E+000	T	DC Voltage (V)
FREQINIT	QUANT	3.00000E+005	Initial Freq. (Hz)
FREQFINAL	QUANT	1.00000E+000	Final Freq. (Hz)
PTSPERDEC	QUANT	1.00000E+001	Points/decade
VAC	QUANT	5.00000E+001	AC Voltage (mV rms)
AREA	QUANT	1.00000E+000	Sample Area (cm^2)
SPEED	SELECTOR	2	Optimize for:
ZGUESS	QUANT	1.00000E+003	Estimated Z (ohms)
EOC	QUANT	0	Open Circuit (V)
SEQUENCER	TOGGLE	TRUE	Run as Sequence
PSTATMODEL	IQUANT	5	Pstat Model
PSTATSECTION	LABEL	REF3000-16137	Pstat Section
PSTATSERIALNO	LABEL	16137	Pstat Serial Number
CTRLMODE	IQUANT	1	Control Mode
IESTAB	IQUANT	0	I/E Stability
CASPEED	IQUANT	1	Control Amp Speed
CONVENTION	IQUANT	1	Current Convention
ICHRANGE	IQUANT	2	Ich Range
ICHRANGEMODE	TOGGLE	F	Ich Auto Range
ICHOFFSETENABLE	TOGGLE	T	Ich Offset Enable
ICHOFFSET	QUANT	0	Ich Offset (V)
ICHFILTER	IQUANT	3	Ich Filter
VCHRANGE	IQUANT	2	Vch Range
VCHRANGEMODE	TOGGLE	F	Vch Auto Range
VCHOFFSETENABLE	TOGGLE	T	Vch Offset Enable
VCHOFFSET	QUANT	0	Vch Offset (V)
VCHFILTER	IQUANT	3	Vch Filter
ACHRANGE	IQUANT	2	Ach Range
ACHOFFSETENABLE	TOGGLE	F	Ach Offset Enable
ACHOFFSET	QUANT	0	Ach Offset (V)
ACHFILTER	IQUANT	3	Ach Filter
IERANGELOWERLIMIT	IQUANT	2	I/E Range Lower Limit
IERANGEMODE	TOGGLE	F	I/E AutoRange
IERANGE	IQUANT	11	I/E Range
POSFEEDENABLE	TOGGLE	F	Positive Feedback IR Comp
POSFEEDRESISTANCE	QUANT	0	Positive Feedback Resistance (ohm)
ACHSELECT	IQUANT	0	Ach Select
CABLEID	IQUANT	13	Cable ID
DCCALDATE	LABEL	7/31/2020	DC Calibration Date
ACCALDATE	LABEL	7/31/2020	AC Calibration Date
THERMOSELECT	IQUANT	1	Thermo Select
FRAMEWORKVERSION	QUANT	6.33	Framework Version
INSTRUMENTVERSION	LABEL	3.50	Instrument Version
COMPLIANCEVOLTAGE	IQUANT	0	Compliance Voltage
ZCURVE	TABLE
	Pt	Time	Freq	Zreal	Zimag	Zsig	Zmod	Zphz	Idc	Vdc	IERange
	#	s	Hz	ohm	ohm	V	ohm	°	A	V	#
	0	10	300046.9	4.014058	1.238419	1	4.200755	17.14606	-7.870663E-005	0.0001091	10
	1	13	238359.4	4.01419	0.964566	1	4.128451	13.51139	-1.135589E-005	-0.0003148	10
	2	16	189328.1	4.012823	0.7463822	1	4.081645	10.53657	3.93807E-005	7.333876E-006	10
	3	19	150421.9	4.014268	0.5729157	1	4.054945	8.122394	1.903386E-005	0.0002181	10
	4	21	119484.4	4.02797	0.4222122	1	4.050038	5.983897	4.849158E-005	0.0004161	10
	5	24	94921.88	4.040095	0.3116772	1	4.0521	4.411403	-1.918909E-005	0.0004691	10
	6	26	75421.88	4.050748	0.1983895	1	4.055604	2.803879	3.079938E-005	0.0005159	10
	7	29	59859.37	4.061265	0.0967008	1	4.062417	1.363984	-1.124984E-005	0.0005965	10
	8	31	47578.12	4.074026	0.0023163	1	4.074027	0.0325752	1.305553E-005	0.0005565	10
	9	34	37828.12	4.088689	-0.090009	1	4.089679	-1.261114	-3.306533E-005	0.0006145	10
	10	36	30046.88	4.103838	-0.1858156	1	4.108043	-2.592496	-3.038271E-005	0.0006287	10
	11	39	23859.38	4.121506	-0.2885726	1	4.131596	-4.005102	-1.004923E-005	0.000679	10
	12	41	18984.38	4.140945	-0.4014961	1	4.160364	-5.537951	-7.61347E-006	0.0006636	10
	13	43	15046.87	4.162876	-0.5352678	1	4.197147	-7.326961	2.324726E-005	0.0006596	10
	14	46	11953.13	4.18714	-0.6919435	1	4.243928	-9.383576	-3.115145E-005	0.0006634	10
	15	48	9515.62	4.214744	-0.8778837	1	4.3052	-11.76584	5.899393E-006	0.0006503	10
	16	50	7546.875	4.246851	-1.11015	1	4.389554	-14.64961	2.377455E-005	0.0006533	10
	17	53	5928.309	4.285976	-1.407005	1	4.511015	-18.17403	-2.49293E-005	0.0006893	10
	18	55	4733.456	4.330047	-1.748798	1	4.669861	-21.99255	-2.489495E-005	0.0007348	10
	19	57	3796.875	4.380579	-2.16071	1	4.884479	-26.25471	2.139426E-005	0.0006689	10
	20	60	2987.132	4.447649	-2.712973	1	5.209779	-31.38232	-2.475356E-005	0.0006833	10
	21	62	2390.625	4.523689	-3.351075	1	5.629695	-36.53044	-1.504734E-005	0.000655	10
	22	64	1884.191	4.624769	-4.192185	1	6.242027	-42.19117	1.725624E-005	0.000648	10
	23	66	1516.544	4.73911	-5.142123	1	6.992895	-47.33556	1.689457E-005	0.0006681	10
	24	69	1193.986	4.894949	-6.435552	1	8.085596	-52.743	5.922866E-006	0.0006654	10
	25	71	946.5144	5.083182	-8.003295	1	9.481112	-57.5789	2.107463E-005	0.0006541	10
	26	74	751.7689	5.325909	-9.92191	1	11.26098	-61.77387	2.223517E-005	0.0006581	10
	27	76	597.4265	5.628783	-12.29613	1	13.52324	-65.40317	1.902707E-005	0.0006602	10
	28	78	477.4305	6.00163	-15.14822	1	16.29381	-68.38684	-2.142374E-006	0.0006822	10
	29	80	376.6741	6.50272	-18.88082	1	19.96924	-70.99584	-2.161504E-006	0.0006744	10
	30	83	298.2954	7.133759	-23.43933	1	24.50087	-73.07237	-1.959326E-006	0.0006722	10
	31	85	237.7717	7.915392	-28.90987	1	29.97389	-74.68793	-1.370361E-006	0.0006767	10
	32	88	189.0121	8.917446	-35.71678	1	36.81316	-75.9815	-2.010123E-006	0.0006774	10
	33	90	150.2404	10.17605	-44.04574	1	45.20597	-76.99099	1.84558E-006	7.603386E-005	9
	34	92	119.1737	11.79604	-54.44255	1	55.70582	-77.77473	1.90801E-006	6.962451E-005	9
	35	95	95.0169	13.78806	-66.93166	1	68.33708	-78.35978	1.766139E-006	7.406496E-005	9
	36	97	75.60484	16.29863	-82.38776	1	83.98445	-78.80976	1.853132E-006	7.068917E-005	9
	37	100	54.50582	21.0037	-110.7873	1	112.7607	-79.26494	1.794737E-006	6.834541E-005	9
	38	102	45.95588	24.09356	-129.2838	1	131.5097	-79.44336	1.508238E-006	0.0001348	9
	39	105	37.20238	28.72467	-156.482	1	159.0966	-79.59828	2.016498E-006	7.455618E-005	9
	40	107	30.04808	34.41194	-189.7191	1	192.8147	-79.71925	1.90228E-006	7.470593E-005	9
	41	109	23.91582	41.91895	-232.838	1	236.5813	-79.79409	1.81001E-006	7.033757E-005	9
	42	112	18.60119	52.45383	-292.1159	1	296.788	-79.82016	2.047254E-006	7.381396E-005	9
	43	114	15.02404	63.67056	-353.8968	1	359.5788	-79.80087	2.073085E-006	8.081921E-005	9
	44	116	12.01923	78.04491	-430.6882	1	437.7023	-79.7289	3.900682E-007	0.0006542	8
	45	119	9.450605	97.7546	-534.1916	1	543.0623	-79.62988	4.124664E-007	0.0006637	8
	46	121	7.512019	121.9868	-655.9705	1	667.2167	-79.46539	4.236016E-007	0.0006501	8
	47	124	5.978954	151.9856	-804.4808	1	818.7118	-79.30156	4.024998E-007	0.0007203	8
	48	127	4.734848	191.26	-990.54	1	1008.836	-79.07145	4.490586E-007	0.0006357	8
	49	130	3.75601	241.8927	-1217.109	1	1240.914	-78.7593	5.146589E-007	0.0006721	8
	50	134	3.004808	303.3218	-1482.479	1	1513.192	-78.43663	4.786862E-007	0.0006593	8
	51	137	2.372217	390.6723	-1825.232	1	1866.573	-77.91871	4.327397E-007	0.0006169	8
	52	142	1.878005	499.0894	-2245.904	1	2300.69	-77.4712	4.855967E-007	0.0006477	8
	53	146	1.512097	624.9327	-2712.636	1	2783.691	-77.02665	4.472036E-007	0.0007213	8
	54	152	1.201923	809.471	-3320.463	1	3417.706	-76.29952	4.886769E-007	0.0006646	8
	55	158	0.956633	1041.977	-4044.253	1	4176.326	-75.55231	4.305817E-007	6.518273E-006	8
