EXPLAIN
TAG	EISPOT
TITLE	LABEL	Potentiostatic EIS	Test Identifier
DATE	LABEL	8/5/2020	Date
TIME	LABEL	22:37:43	Time
NOTES	NOTES	1	Notes...
	
PSTAT	PSTAT	REF3000-16137	Potentiostat
VDC	POTEN	0.00000E+000	T	DC Voltage (V)
FREQINIT	QUANT	3.00000E+005	Initial Freq. (Hz)
FREQFINAL	QUANT	1.00000E+000	Final Freq. (Hz)
PTSPERDEC	QUANT	1.00000E+001	Points/decade
VAC	QUANT	5.00000E+001	AC Voltage (mV rms)
AREA	QUANT	1.00000E+000	Sample Area (cm^2)
SPEED	SELECTOR	2	Optimize for:
ZGUESS	QUANT	1.00000E+003	Estimated Z (ohms)
EOC	QUANT	0	Open Circuit (V)
SEQUENCER	TOGGLE	TRUE	Run as Sequence
PSTATMODEL	IQUANT	5	Pstat Model
PSTATSECTION	LABEL	REF3000-16137	Pstat Section
PSTATSERIALNO	LABEL	16137	Pstat Serial Number
CTRLMODE	IQUANT	1	Control Mode
IESTAB	IQUANT	0	I/E Stability
CASPEED	IQUANT	1	Control Amp Speed
CONVENTION	IQUANT	1	Current Convention
ICHRANGE	IQUANT	2	Ich Range
ICHRANGEMODE	TOGGLE	F	Ich Auto Range
ICHOFFSETENABLE	TOGGLE	T	Ich Offset Enable
ICHOFFSET	QUANT	0	Ich Offset (V)
ICHFILTER	IQUANT	3	Ich Filter
VCHRANGE	IQUANT	2	Vch Range
VCHRANGEMODE	TOGGLE	F	Vch Auto Range
VCHOFFSETENABLE	TOGGLE	T	Vch Offset Enable
VCHOFFSET	QUANT	0	Vch Offset (V)
VCHFILTER	IQUANT	3	Vch Filter
ACHRANGE	IQUANT	2	Ach Range
ACHOFFSETENABLE	TOGGLE	F	Ach Offset Enable
ACHOFFSET	QUANT	0	Ach Offset (V)
ACHFILTER	IQUANT	3	Ach Filter
IERANGELOWERLIMIT	IQUANT	2	I/E Range Lower Limit
IERANGEMODE	TOGGLE	F	I/E AutoRange
IERANGE	IQUANT	11	I/E Range
POSFEEDENABLE	TOGGLE	F	Positive Feedback IR Comp
POSFEEDRESISTANCE	QUANT	0	Positive Feedback Resistance (ohm)
ACHSELECT	IQUANT	0	Ach Select
CABLEID	IQUANT	13	Cable ID
DCCALDATE	LABEL	7/31/2020	DC Calibration Date
ACCALDATE	LABEL	7/31/2020	AC Calibration Date
THERMOSELECT	IQUANT	1	Thermo Select
FRAMEWORKVERSION	QUANT	6.33	Framework Version
INSTRUMENTVERSION	LABEL	3.50	Instrument Version
COMPLIANCEVOLTAGE	IQUANT	0	Compliance Voltage
ZCURVE	TABLE
	Pt	Time	Freq	Zreal	Zimag	Zsig	Zmod	Zphz	Idc	Vdc	IERange
	#	s	Hz	ohm	ohm	V	ohm	°	A	V	#
	0	5	300046.9	245.5742	-20.56299	1	246.4336	-4.786458	-5.998461E-005	0.0004655	10
	1	10	238359.4	252.6558	-13.34705	1	253.0081	-3.023953	-7.935042E-005	0.0032749	9
	2	14	189328.1	260.8465	-15.54394	1	261.3093	-3.410245	8.875172E-005	0.0002027	10
	3	18	150421.9	268.1889	-10.23589	1	268.3841	-2.185731	6.642318E-006	0.0013073	9
	4	22	119484.4	277.5899	-11.2547	1	277.818	-2.321747	-1.633408E-005	0.0007389	10
	5	28	94921.88	284.7684	-7.714153	1	284.8728	-1.551718	-2.223573E-005	0.0005179	9
	6	31	75421.88	292.1179	-6.749874	1	292.1959	-1.32368	2.852538E-005	-0.0005343	9
	7	34	59859.37	299.6771	-5.882996	1	299.7348	-1.124636	-8.890684E-006	0.0009543	9
	8	38	47578.12	305.0194	-5.139555	1	305.0627	-0.965338	-2.251829E-005	0.0009863	9
	9	41	37828.12	312.621	-4.267714	1	312.6501	-0.782119	-6.384251E-007	-0.0004107	9
	10	44	30046.88	317.9518	-4.288398	1	317.9807	-0.7727343	-1.924456E-005	0.0004349	9
	11	47	23859.38	323.6369	-3.420724	1	323.655	-0.6055729	-9.30639E-006	0.0009438	9
	12	49	18984.38	329.0387	-3.296906	1	329.0552	-0.5740737	-1.973617E-005	0.0008513	9
	13	52	15046.87	334.7141	-2.866788	1	334.7263	-0.4907198	-2.463269E-005	0.0009313	9
	14	54	11953.13	340.4362	-3.468305	1	340.4539	-0.5836993	-2.167833E-005	0.0004785	9
	15	56	9515.62	345.471	-3.009484	1	345.4841	-0.4991052	-9.414811E-006	-0.0001116	9
	16	59	7546.875	351.585	-3.778728	1	351.6053	-0.6157739	2.816226E-005	-0.0007916	9
	17	61	5928.309	356.6213	-2.742821	1	356.6319	-0.4406607	-9.553059E-006	-0.0000957	9
	18	64	4733.456	362.8039	-4.158551	1	362.8277	-0.6567101	-1.734899E-005	0.0010704	9
	19	66	3796.875	369.913	-4.613814	1	369.9418	-0.714596	3.73115E-006	0.0005295	9
	20	69	2987.132	376.2079	-4.820397	1	376.2387	-0.7340977	1.488047E-005	-0.0031391	8
	21	71	2390.625	381.7919	-6.220146	1	381.8426	-0.9333791	-1.026242E-005	0.0016345	8
	22	74	1884.191	386.968	-8.420754	1	387.0596	-1.246608	2.341754E-006	-0.0032385	8
	23	76	1516.544	393.4913	-8.090175	1	393.5744	-1.177834	-1.411516E-005	0.0048911	8
	24	78	1193.986	401.581	-11.39288	1	401.7426	-1.625049	2.663787E-006	-0.0033979	8
	25	81	946.5144	408.0156	-13.985	1	408.2552	-1.963081	-2.716505E-006	-0.001742	8
	26	83	751.7689	414.9032	-18.22435	1	415.3033	-2.515062	1.179628E-005	-0.0004567	8
	27	86	597.4265	422.8473	-23.67686	1	423.5097	-3.204866	1.424152E-005	-0.0049341	8
	28	88	477.4305	430.1228	-27.42955	1	430.9965	-3.648893	-7.282003E-008	0.0007092	8
	29	90	376.6741	437.9196	-34.18145	1	439.2516	-4.463126	-5.016539E-008	0.0006567	8
	30	93	298.2954	445.9811	-42.46728	1	447.9985	-5.439426	-5.677938E-008	0.0006541	8
	31	95	237.7717	454.7468	-52.48806	1	457.766	-6.584093	-1.99226E-008	0.0006474	8
	32	97	189.0121	463.9464	-65.06443	1	468.4866	-7.983167	-1.546839E-008	0.0006474	8
	33	100	150.2404	473.705	-80.68421	1	480.5272	-9.66619	-5.990167E-008	0.0006708	8
	34	102	119.1737	484.0942	-100.2424	1	494.364	-11.69902	-4.718461E-008	0.0006581	8
	35	105	95.0169	495.1953	-123.9877	1	510.4814	-14.05682	-4.373209E-008	0.0006496	8
	36	107	75.60484	507.6096	-153.6369	1	530.3506	-16.83936	-1.870113E-008	0.0006448	8
	37	110	54.50582	523.4413	-208.5985	1	563.475	-21.72795	-3.480235E-008	0.0006372	8
	38	112	45.95588	536.9059	-244.7878	1	590.0754	-24.50933	-5.03853E-008	0.0006593	8
	39	115	37.20238	552.4627	-298.2035	1	627.806	-28.3589	-5.429293E-008	0.0006625	8
	40	117	30.04808	570.3383	-363.8763	1	676.5292	-32.53791	-2.588743E-008	0.0006396	8
	41	119	23.91582	591.3096	-449.7425	1	742.9101	-37.25615	-1.118954E-007	0.000661	8
	42	122	18.60119	616.632	-567.5934	1	838.0914	-42.62875	-1.499391E-007	0.000669	8
	43	124	15.02404	643.5627	-690.8748	1	944.1827	-47.03055	-1.452651E-007	0.0007014	8
	44	126	12.01923	675.811	-848.6378	1	1084.853	-51.46801	-1.299531E-008	0.00066	8
	45	129	9.450605	716.1785	-1058.247	1	1277.81	-55.91145	-9.172946E-008	0.0006564	8
	46	131	7.512019	762.6783	-1306.861	1	1513.131	-59.73236	-1.00313E-007	0.0006698	8
	47	134	5.978954	817.8412	-1611.188	1	1806.874	-63.08759	-9.163646E-008	0.0006535	8
	48	137	4.734848	885.425	-1998.752	1	2186.09	-66.10719	-4.274913E-008	0.0006655	8
	49	140	3.75601	965.624	-2472.74	1	2654.594	-68.66898	-9.718256E-008	0.0006329	8
	50	144	3.004808	1058.737	-3038.184	1	3217.372	-70.78773	-6.56695E-008	0.0006287	8
	51	147	2.372217	1176.828	-3775.947	1	3955.085	-72.68961	-7.973318E-008	0.0006451	8
	52	152	1.878005	1329.322	-4708.382	1	4892.439	-74.23398	-3.587763E-008	0.0006224	7
	53	156	1.512097	1489.97	-5763.923	1	5953.387	-75.50636	-2.829345E-008	0.0005274	7
	54	162	1.201923	1708.17	-7149.948	1	7351.164	-76.56351	-3.815291E-008	0.0006415	7
	55	168	0.956633	1961.402	-8854.398	1	9069.039	-77.50969	-3.739179E-008	-9.697314E-006	7
