EXPLAIN
TAG	EISPOT
TITLE	LABEL	Potentiostatic EIS	Test Identifier
DATE	LABEL	8/5/2020	Date
TIME	LABEL	22:29:23	Time
NOTES	NOTES	1	Notes...
	
PSTAT	PSTAT	REF3000-16137	Potentiostat
VDC	POTEN	0.00000E+000	T	DC Voltage (V)
FREQINIT	QUANT	3.00000E+005	Initial Freq. (Hz)
FREQFINAL	QUANT	1.00000E+000	Final Freq. (Hz)
PTSPERDEC	QUANT	1.00000E+001	Points/decade
VAC	QUANT	5.00000E+001	AC Voltage (mV rms)
AREA	QUANT	1.00000E+000	Sample Area (cm^2)
SPEED	SELECTOR	2	Optimize for:
ZGUESS	QUANT	1.00000E+003	Estimated Z (ohms)
EOC	QUANT	0	Open Circuit (V)
SEQUENCER	TOGGLE	TRUE	Run as Sequence
PSTATMODEL	IQUANT	5	Pstat Model
PSTATSECTION	LABEL	REF3000-16137	Pstat Section
PSTATSERIALNO	LABEL	16137	Pstat Serial Number
CTRLMODE	IQUANT	1	Control Mode
IESTAB	IQUANT	0	I/E Stability
CASPEED	IQUANT	1	Control Amp Speed
CONVENTION	IQUANT	1	Current Convention
ICHRANGE	IQUANT	2	Ich Range
ICHRANGEMODE	TOGGLE	F	Ich Auto Range
ICHOFFSETENABLE	TOGGLE	T	Ich Offset Enable
ICHOFFSET	QUANT	0	Ich Offset (V)
ICHFILTER	IQUANT	3	Ich Filter
VCHRANGE	IQUANT	2	Vch Range
VCHRANGEMODE	TOGGLE	F	Vch Auto Range
VCHOFFSETENABLE	TOGGLE	T	Vch Offset Enable
VCHOFFSET	QUANT	0	Vch Offset (V)
VCHFILTER	IQUANT	3	Vch Filter
ACHRANGE	IQUANT	2	Ach Range
ACHOFFSETENABLE	TOGGLE	F	Ach Offset Enable
ACHOFFSET	QUANT	0	Ach Offset (V)
ACHFILTER	IQUANT	3	Ach Filter
IERANGELOWERLIMIT	IQUANT	2	I/E Range Lower Limit
IERANGEMODE	TOGGLE	F	I/E AutoRange
IERANGE	IQUANT	11	I/E Range
POSFEEDENABLE	TOGGLE	F	Positive Feedback IR Comp
POSFEEDRESISTANCE	QUANT	0	Positive Feedback Resistance (ohm)
ACHSELECT	IQUANT	0	Ach Select
CABLEID	IQUANT	13	Cable ID
DCCALDATE	LABEL	7/31/2020	DC Calibration Date
ACCALDATE	LABEL	7/31/2020	AC Calibration Date
THERMOSELECT	IQUANT	1	Thermo Select
FRAMEWORKVERSION	QUANT	6.33	Framework Version
INSTRUMENTVERSION	LABEL	3.50	Instrument Version
COMPLIANCEVOLTAGE	IQUANT	0	Compliance Voltage
ZCURVE	TABLE
	Pt	Time	Freq	Zreal	Zimag	Zsig	Zmod	Zphz	Idc	Vdc	IERange
	#	s	Hz	ohm	ohm	V	ohm	°	A	V	#
	0	6	300046.9	23.65937	0.8355269	1	23.67412	2.022551	2.085957E-005	-0.0004049	10
	1	10	238359.4	23.96835	0.4073994	1	23.97181	0.973785	4.558957E-005	0.0006136	11
	2	14	189328.1	24.34025	0.49944	1	24.34537	1.175493	-2.689903E-005	0.0004844	10
	3	18	150421.9	24.62543	0.1992951	1	24.62624	0.463688	-6.196515E-005	0.0006397	11
	4	21	119484.4	25.00366	0.2423864	1	25.00484	0.55541	-2.405919E-005	0.0006158	10
	5	25	94921.88	25.23153	0.1479712	1	25.23196	0.3360092	2.137442E-005	0.0005794	10
	6	28	75421.88	25.47023	0.0470929	1	25.47027	0.1059362	1.629889E-005	0.0005738	10
	7	30	59859.37	25.71116	-0.0506106	1	25.71121	-0.1127826	2.137277E-005	0.0006212	10
	8	33	47578.12	25.96012	-0.1473386	1	25.96053	-0.3251829	-1.513071E-005	0.0006547	10
	9	35	37828.12	26.20595	-0.2425835	1	26.20708	-0.5303609	1.495009E-005	0.0005957	10
	10	38	30046.88	26.45598	-0.3482177	1	26.45827	-0.7540924	-6.865285E-006	0.0006502	10
	11	40	23859.38	26.70271	-0.4681972	1	26.70681	-1.004504	-2.652748E-005	0.0007062	10
	12	43	18984.38	26.94528	-0.6091726	1	26.95216	-1.295109	-2.138376E-005	0.0007005	10
	13	45	15046.87	27.19997	-0.7767514	1	27.21106	-1.635755	6.317519E-006	0.0006327	10
	14	47	11953.13	27.44859	-0.976529	1	27.46595	-2.037533	-1.500201E-005	0.0006707	10
	15	50	9515.62	27.70644	-1.218491	1	27.73322	-2.518167	-1.975904E-005	0.0007348	10
	16	52	7546.875	27.98097	-1.526349	1	28.02257	-3.122363	2.302333E-005	0.000635	10
	17	54	5928.309	28.25293	-1.91833	1	28.31798	-3.884333	-1.449166E-005	0.0007072	10
	18	56	4733.456	28.55002	-2.368504	1	28.6481	-4.742387	-2.099958E-005	0.0007169	10
	19	59	3796.875	28.85355	-2.908145	1	28.99973	-5.755397	-2.756263E-005	0.0006703	10
	20	61	2987.132	29.17769	-3.637357	1	29.40354	-7.105962	2.623964E-005	0.0006354	10
	21	63	2390.625	29.50739	-4.483662	1	29.84609	-8.64003	-2.612493E-007	0.0006353	10
	22	66	1884.191	29.87318	-5.609071	1	30.3952	-10.6342	-2.812164E-005	0.0007063	10
	23	68	1516.544	30.26227	-6.868794	1	31.032	-12.78807	-4.177109E-006	0.0006963	10
	24	70	1193.986	30.72231	-8.589787	1	31.90055	-15.6207	7.149093E-006	0.0006171	10
	25	73	946.5144	31.2184	-10.69279	1	32.99885	-18.90713	-2.950795E-005	0.0006702	10
	26	75	751.7689	31.76154	-13.27247	1	34.42316	-22.67901	-4.958083E-006	0.0006977	10
	27	77	597.4265	32.38139	-16.44289	1	36.31699	-26.92093	-2.162546E-005	0.0007279	10
	28	80	477.4305	33.06339	-20.26274	1	38.77842	-31.50186	1.960849E-006	7.882698E-005	9
	29	82	376.6741	33.93321	-25.27907	1	42.31423	-36.68484	2.00468E-006	7.42001E-005	9
	30	84	298.2954	34.94821	-31.4141	1	46.99173	-41.95161	1.951561E-006	7.996389E-005	9
	31	87	237.7717	36.14241	-38.78622	1	53.01552	-47.02081	1.931748E-006	7.665432E-005	9
	32	89	189.0121	37.57157	-47.99076	1	60.94864	-51.9429	2.006339E-006	7.601118E-005	9
	33	92	150.2404	39.40161	-59.38919	1	71.27105	-56.43781	1.951887E-006	7.938012E-005	9
	34	95	119.1737	41.45602	-73.59549	1	84.46832	-60.60763	2.005853E-006	7.610895E-005	9
	35	97	95.0169	43.87016	-90.76263	1	100.809	-64.20318	1.908094E-006	7.62861E-005	9
	36	100	75.60484	46.80085	-112.1636	1	121.536	-67.35142	1.952967E-006	7.624361E-005	9
	37	102	54.50582	51.91878	-151.8461	1	160.4768	-71.12357	1.895706E-006	7.660699E-005	9
	38	105	45.95588	55.38314	-177.9558	1	186.3748	-72.7129	1.946795E-006	8.065772E-005	9
	39	107	37.20238	60.33115	-216.4929	1	224.7421	-74.42818	1.978414E-006	7.723195E-005	9
	40	110	30.04808	66.38875	-264.0541	1	272.272	-75.88715	1.923047E-006	7.894416E-005	9
	41	112	23.91582	74.26611	-326.4712	1	334.8117	-77.18436	1.90793E-006	7.443118E-005	9
	42	114	18.60119	85.08822	-412.4375	1	421.1231	-78.34309	2.005263E-006	8.205571E-005	9
	43	117	15.02404	96.1204	-500.8779	1	510.0175	-79.13679	3.545242E-007	0.0006445	8
	44	119	12.01923	110.9808	-616.2196	1	626.1337	-79.79051	4.162256E-007	0.0006586	8
	45	121	9.450605	130.5855	-770.5947	1	781.581	-80.38199	3.969797E-007	0.0006512	8
	46	124	7.512019	154.1329	-953.704	1	966.079	-80.81952	3.947246E-007	0.0006462	8
	47	127	5.978954	183.432	-1177.978	1	1192.175	-81.14912	3.999455E-007	0.0006552	8
	48	130	4.734848	219.9785	-1462.689	1	1479.138	-81.4472	3.705477E-007	0.0006291	8
	49	133	3.75601	265.7632	-1812.895	1	1832.272	-81.66007	4.072307E-007	0.0006697	8
	50	136	3.004808	320.4382	-2228.084	1	2251.008	-81.81596	3.870597E-007	0.0006486	8
	51	140	2.372217	395.8321	-2773.894	1	2801.994	-81.87877	3.799871E-007	0.0005948	8
	52	144	1.878005	481.1515	-3452.247	1	3485.615	-82.06561	4.061359E-007	0.0006593	8
	53	149	1.512097	578.9262	-4214.181	1	4253.76	-82.17791	3.782494E-007	0.0006729	8
	54	155	1.201923	718.4069	-5246.916	1	5295.87	-82.20355	4.891265E-008	0.0006475	7
	55	161	0.956633	887.6799	-6493.03	1	6553.427	-82.21519	3.324318E-008	-1.656411E-005	7
