EXPLAIN
TAG	EISPOT
TITLE	LABEL	Potentiostatic EIS	Test Identifier
DATE	LABEL	8/5/2020	Date
TIME	LABEL	22:18:14	Time
NOTES	NOTES	1	Notes...
	
PSTAT	PSTAT	REF3000-16137	Potentiostat
VDC	POTEN	0.00000E+000	T	DC Voltage (V)
FREQINIT	QUANT	3.00000E+005	Initial Freq. (Hz)
FREQFINAL	QUANT	1.00000E+000	Final Freq. (Hz)
PTSPERDEC	QUANT	1.00000E+001	Points/decade
VAC	QUANT	5.00000E+001	AC Voltage (mV rms)
AREA	QUANT	1.00000E+000	Sample Area (cm^2)
SPEED	SELECTOR	2	Optimize for:
ZGUESS	QUANT	1.00000E+003	Estimated Z (ohms)
EOC	QUANT	0	Open Circuit (V)
SEQUENCER	TOGGLE	TRUE	Run as Sequence
PSTATMODEL	IQUANT	5	Pstat Model
PSTATSECTION	LABEL	REF3000-16137	Pstat Section
PSTATSERIALNO	LABEL	16137	Pstat Serial Number
CTRLMODE	IQUANT	1	Control Mode
IESTAB	IQUANT	0	I/E Stability
CASPEED	IQUANT	1	Control Amp Speed
CONVENTION	IQUANT	1	Current Convention
ICHRANGE	IQUANT	2	Ich Range
ICHRANGEMODE	TOGGLE	F	Ich Auto Range
ICHOFFSETENABLE	TOGGLE	T	Ich Offset Enable
ICHOFFSET	QUANT	0	Ich Offset (V)
ICHFILTER	IQUANT	3	Ich Filter
VCHRANGE	IQUANT	2	Vch Range
VCHRANGEMODE	TOGGLE	F	Vch Auto Range
VCHOFFSETENABLE	TOGGLE	T	Vch Offset Enable
VCHOFFSET	QUANT	0	Vch Offset (V)
VCHFILTER	IQUANT	3	Vch Filter
ACHRANGE	IQUANT	2	Ach Range
ACHOFFSETENABLE	TOGGLE	F	Ach Offset Enable
ACHOFFSET	QUANT	0	Ach Offset (V)
ACHFILTER	IQUANT	3	Ach Filter
IERANGELOWERLIMIT	IQUANT	2	I/E Range Lower Limit
IERANGEMODE	TOGGLE	F	I/E AutoRange
IERANGE	IQUANT	11	I/E Range
POSFEEDENABLE	TOGGLE	F	Positive Feedback IR Comp
POSFEEDRESISTANCE	QUANT	0	Positive Feedback Resistance (ohm)
ACHSELECT	IQUANT	0	Ach Select
CABLEID	IQUANT	13	Cable ID
DCCALDATE	LABEL	7/31/2020	DC Calibration Date
ACCALDATE	LABEL	7/31/2020	AC Calibration Date
THERMOSELECT	IQUANT	1	Thermo Select
FRAMEWORKVERSION	QUANT	6.33	Framework Version
INSTRUMENTVERSION	LABEL	3.50	Instrument Version
COMPLIANCEVOLTAGE	IQUANT	0	Compliance Voltage
ZCURVE	TABLE
	Pt	Time	Freq	Zreal	Zimag	Zsig	Zmod	Zphz	Idc	Vdc	IERange
	#	s	Hz	ohm	ohm	V	ohm	°	A	V	#
	0	10	300046.9	4.838588	1.206231	1	4.986675	13.99817	3.744118E-005	0.000201	10
	1	14	238359.4	4.853461	0.952205	1	4.945986	11.09993	1.842294E-005	-0.0002253	10
	2	17	189328.1	4.862344	0.7403491	1	4.918384	8.657461	1.726422E-006	0.0001393	10
	3	19	150421.9	4.870742	0.5664452	1	4.903569	6.63344	2.23795E-005	0.0002882	10
	4	22	119484.4	4.893474	0.4156879	1	4.911098	4.855471	-5.246471E-005	0.0004943	10
	5	24	94921.88	4.91421	0.3073811	1	4.923814	3.579156	1.886678E-005	0.0005241	10
	6	27	75421.88	4.931143	0.1927554	1	4.934909	2.238518	-2.287913E-005	0.0005332	10
	7	29	59859.37	4.950518	0.0890267	1	4.951318	1.030257	-2.857351E-005	0.0005832	10
	8	32	47578.12	4.972288	-0.0085554	1	4.972295	-0.0985836	-1.784235E-005	0.0006047	10
	9	34	37828.12	4.996383	-0.1038527	1	4.997462	-1.190754	-7.320604E-007	0.0006256	10
	10	37	30046.88	5.022277	-0.201933	1	5.026335	-2.302477	-8.473636E-006	0.0006515	10
	11	39	23859.38	5.049314	-0.3074824	1	5.058667	-3.484773	2.580952E-005	0.0006544	10
	12	42	18984.38	5.076881	-0.4243713	1	5.094586	-4.778188	1.281761E-005	0.0006703	10
	13	44	15046.87	5.106663	-0.5617792	1	5.137471	-6.277811	-1.282798E-005	0.0006823	10
	14	46	11953.13	5.139232	-0.7248183	1	5.190094	-8.027837	-2.890712E-005	0.0006654	10
	15	49	9515.62	5.175346	-0.9177243	1	5.256085	-10.05551	1.937178E-005	0.0006383	10
	16	51	7546.875	5.216797	-1.158044	1	5.343785	-12.51578	-1.984223E-005	0.0007171	10
	17	53	5928.309	5.264299	-1.466465	1	5.464739	-15.56613	-2.36271E-005	0.0006853	10
	18	57	4733.456	5.332555	-1.823005	1	5.635556	-18.87368	-2.503868E-005	0.0006821	10
	19	60	3796.875	5.392738	-2.251361	1	5.843822	-22.65956	-2.107964E-005	0.0006593	10
	20	62	2987.132	5.469835	-2.825916	1	6.156695	-27.32252	-1.756509E-005	0.0006751	10
	21	64	2390.625	5.556371	-3.48666	1	6.55973	-32.10855	1.979515E-005	0.0006417	10
	22	67	1884.191	5.66705	-4.367869	1	7.15498	-37.62317	-2.787364E-005	0.0006879	10
	23	69	1516.544	5.793333	-5.356853	1	7.890411	-42.75827	-1.825963E-005	0.0006717	10
	24	71	1193.986	5.960406	-6.701872	1	8.968921	-48.35125	-3.893194E-006	0.0006561	10
	25	74	946.5144	6.15808	-8.33888	1	10.36624	-53.55494	-3.214686E-005	0.000662	10
	26	76	751.7689	6.408789	-10.34	1	12.16504	-58.20914	-5.547276E-006	0.0006815	10
	27	78	597.4265	6.718007	-12.81448	1	14.46867	-62.33417	-2.499437E-005	0.0006943	10
	28	81	477.4305	7.095716	-15.79766	1	17.31806	-65.81216	-1.732707E-006	0.0006753	10
	29	83	376.6741	7.596225	-19.70435	1	21.11786	-68.91785	-1.494048E-006	0.0006741	10
	30	85	298.2954	8.221763	-24.48505	1	25.82857	-71.43861	-1.848218E-006	0.0006744	10
	31	88	237.7717	8.994254	-30.23338	1	31.54289	-73.43256	-1.455461E-006	0.0006757	10
	32	90	189.0121	9.9822	-37.40474	1	38.7138	-75.05771	-1.299146E-006	0.0006762	10
	33	92	150.2404	11.21954	-46.19703	1	47.53991	-76.34927	1.764856E-006	8.217977E-005	9
	34	95	119.1737	12.82055	-57.20391	1	58.62298	-77.36761	1.971191E-006	8.044478E-005	9
	35	97	95.0169	14.79931	-70.44547	1	71.98322	-78.13573	1.908873E-006	7.5834E-005	9
	36	100	75.60484	17.31379	-86.86642	1	88.57506	-78.72781	1.819386E-006	7.364207E-005	9
	37	102	54.50582	22.05074	-117.0733	1	119.1318	-79.33331	1.755485E-006	7.12066E-005	9
	38	105	45.95588	25.18284	-136.735	1	139.0347	-79.56463	1.918515E-006	7.50329E-005	9
	39	107	37.20238	29.86362	-165.681	1	168.3509	-79.78228	1.901956E-006	7.54353E-005	9
	40	109	30.04808	35.59823	-201.1001	1	204.2265	-79.96163	1.872337E-006	7.56566E-005	9
	41	112	23.91582	43.23851	-247.456	1	251.2052	-80.08865	1.828759E-006	8.018105E-005	9
	42	114	18.60119	53.65669	-310.4106	1	315.0139	-80.19292	1.866214E-006	7.994683E-005	9
	43	117	15.02404	64.84123	-376.5688	1	382.1106	-80.23007	2.031461E-006	8.165226E-005	9
	44	119	12.01923	78.95702	-458.6857	1	465.4319	-80.23296	3.984925E-007	0.0006586	8
	45	121	9.450605	98.5649	-569.8865	1	578.3474	-80.18746	4.059533E-007	0.0006518	8
	46	124	7.512019	121.7287	-701.2666	1	711.7533	-80.1525	4.706358E-007	0.0006471	8
	47	126	5.978954	151.0894	-860.7748	1	873.9343	-80.04445	4.894546E-007	0.0006614	8
	48	129	4.734848	189.3515	-1062.26	1	1079.005	-79.89299	4.912735E-007	0.0006713	8
	49	133	3.75601	236.9445	-1307.814	1	1329.105	-79.73077	4.641436E-007	0.0006409	8
	50	136	3.004808	295.0449	-1596.113	1	1623.154	-79.52698	4.800764E-007	0.0006675	8
	51	140	2.372217	376.3544	-1971.454	1	2007.056	-79.19216	4.612234E-007	0.000715	8
	52	144	1.878005	475.1771	-2433.455	1	2479.415	-78.95097	4.129356E-007	0.0006554	8
	53	149	1.512097	588.8884	-2948.769	1	3006.996	-78.70624	4.711095E-007	0.0005973	8
	54	154	1.201923	754.9177	-3626.368	1	3704.112	-78.24043	4.406793E-007	0.0006411	8
	55	160	0.956633	957.159	-4441.365	1	4543.333	-77.83819	3.04953E-008	-9.198611E-006	7
