EXPLAIN
TAG	EISPOT
TITLE	LABEL	Potentiostatic EIS	Test Identifier
DATE	LABEL	8/5/2020	Date
TIME	LABEL	22:26:37	Time
NOTES	NOTES	1	Notes...
	
PSTAT	PSTAT	REF3000-16137	Potentiostat
VDC	POTEN	0.00000E+000	T	DC Voltage (V)
FREQINIT	QUANT	3.00000E+005	Initial Freq. (Hz)
FREQFINAL	QUANT	1.00000E+000	Final Freq. (Hz)
PTSPERDEC	QUANT	1.00000E+001	Points/decade
VAC	QUANT	5.00000E+001	AC Voltage (mV rms)
AREA	QUANT	1.00000E+000	Sample Area (cm^2)
SPEED	SELECTOR	2	Optimize for:
ZGUESS	QUANT	1.00000E+003	Estimated Z (ohms)
EOC	QUANT	0	Open Circuit (V)
SEQUENCER	TOGGLE	TRUE	Run as Sequence
PSTATMODEL	IQUANT	5	Pstat Model
PSTATSECTION	LABEL	REF3000-16137	Pstat Section
PSTATSERIALNO	LABEL	16137	Pstat Serial Number
CTRLMODE	IQUANT	1	Control Mode
IESTAB	IQUANT	0	I/E Stability
CASPEED	IQUANT	1	Control Amp Speed
CONVENTION	IQUANT	1	Current Convention
ICHRANGE	IQUANT	2	Ich Range
ICHRANGEMODE	TOGGLE	F	Ich Auto Range
ICHOFFSETENABLE	TOGGLE	T	Ich Offset Enable
ICHOFFSET	QUANT	0	Ich Offset (V)
ICHFILTER	IQUANT	3	Ich Filter
VCHRANGE	IQUANT	2	Vch Range
VCHRANGEMODE	TOGGLE	F	Vch Auto Range
VCHOFFSETENABLE	TOGGLE	T	Vch Offset Enable
VCHOFFSET	QUANT	0	Vch Offset (V)
VCHFILTER	IQUANT	3	Vch Filter
ACHRANGE	IQUANT	2	Ach Range
ACHOFFSETENABLE	TOGGLE	F	Ach Offset Enable
ACHOFFSET	QUANT	0	Ach Offset (V)
ACHFILTER	IQUANT	3	Ach Filter
IERANGELOWERLIMIT	IQUANT	2	I/E Range Lower Limit
IERANGEMODE	TOGGLE	F	I/E AutoRange
IERANGE	IQUANT	11	I/E Range
POSFEEDENABLE	TOGGLE	F	Positive Feedback IR Comp
POSFEEDRESISTANCE	QUANT	0	Positive Feedback Resistance (ohm)
ACHSELECT	IQUANT	0	Ach Select
CABLEID	IQUANT	13	Cable ID
DCCALDATE	LABEL	7/31/2020	DC Calibration Date
ACCALDATE	LABEL	7/31/2020	AC Calibration Date
THERMOSELECT	IQUANT	1	Thermo Select
FRAMEWORKVERSION	QUANT	6.33	Framework Version
INSTRUMENTVERSION	LABEL	3.50	Instrument Version
COMPLIANCEVOLTAGE	IQUANT	0	Compliance Voltage
ZCURVE	TABLE
	Pt	Time	Freq	Zreal	Zimag	Zsig	Zmod	Zphz	Idc	Vdc	IERange
	#	s	Hz	ohm	ohm	V	ohm	°	A	V	#
	0	8	300046.9	13.9955	1.063239	1	14.03583	4.344421	4.710215E-005	0.0002844	10
	1	11	238359.4	14.13522	0.840562	1	14.16019	3.403132	7.479416E-005	4.803051E-005	10
	2	14	189328.1	14.25032	0.6431649	1	14.26483	2.584197	-0.0001132	0.0003961	10
	3	17	150421.9	14.34824	0.4914415	1	14.35665	1.961671	2.962817E-005	0.0005007	10
	4	19	119484.4	14.46672	0.3417574	1	14.47076	1.353286	4.382208E-005	0.0007044	10
	5	22	94921.88	14.57229	0.2419571	1	14.5743	0.951247	2.409461E-005	0.0005871	10
	6	24	75421.88	14.68698	0.1231692	1	14.68749	0.4804874	1.967036E-005	0.0006513	10
	7	27	59859.37	14.80625	0.0178901	1	14.80626	0.0692292	-2.33113E-005	0.0007099	10
	8	29	47578.12	14.92603	-0.0821348	1	14.92625	-0.3152835	1.462039E-005	0.0006167	10
	9	32	37828.12	15.04821	-0.1800587	1	15.04929	-0.6855374	-1.913703E-005	0.000722	10
	10	34	30046.88	15.17347	-0.287281	1	15.17619	-1.084658	-2.000258E-005	0.0007314	10
	11	37	23859.38	15.29708	-0.4033793	1	15.3024	-1.510522	-2.169854E-005	0.0007297	10
	12	39	18984.38	15.41765	-0.5379778	1	15.42703	-1.998447	2.392197E-005	0.0006378	10
	13	41	15046.87	15.54496	-0.6971418	1	15.56059	-2.567812	1.40759E-005	0.0006118	10
	14	44	11953.13	15.67433	-0.8855818	1	15.69933	-3.233709	9.370034E-006	0.0006175	10
	15	46	9515.62	15.8093	-1.115644	1	15.84861	-4.036606	1.521252E-005	0.0006374	10
	16	48	7546.875	15.9515	-1.398155	1	16.01265	-5.009195	8.191797E-007	0.0006383	10
	17	51	5928.309	16.1023	-1.762403	1	16.19847	-6.24618	-2.91784E-005	0.000702	10
	18	53	4733.456	16.25909	-2.179529	1	16.40452	-7.63498	-1.948854E-005	0.0006712	10
	19	55	3796.875	16.42702	-2.685204	1	16.64504	-9.283612	1.400404E-005	0.0006158	10
	20	58	2987.132	16.61616	-3.369371	1	16.95433	-11.46283	-2.910417E-005	0.0006999	10
	21	60	2390.625	16.81394	-4.1555	1	17.31984	-13.88224	5.845329E-006	0.0006238	10
	22	62	1884.191	17.03799	-5.195	1	17.81239	-16.95682	2.442196E-005	0.0006622	10
	23	64	1516.544	17.28712	-6.367479	1	18.42252	-20.2206	2.402591E-005	0.000638	10
	24	67	1193.986	17.5837	-7.969236	1	19.30532	-24.38086	1.309669E-005	0.0006196	10
	25	69	946.5144	17.92724	-9.90044	1	20.47937	-28.90998	-2.359519E-005	0.000737	10
	26	72	751.7689	18.31672	-12.29872	1	22.06266	-33.87928	-5.261573E-006	0.0006943	10
	27	74	597.4265	18.78049	-15.24022	1	24.18617	-39.05906	7.83198E-006	0.0006753	10
	28	76	477.4305	19.3237	-18.78264	1	26.94797	-44.18653	-1.495361E-006	0.0006802	10
	29	79	376.6741	20.00031	-23.41772	1	30.79614	-49.50044	-1.060329E-006	0.0006698	10
	30	81	298.2954	20.80524	-29.08889	1	35.76341	-54.42652	-1.59216E-006	0.0006764	10
	31	83	237.7717	21.72701	-35.86768	1	41.93511	-58.79442	2.007467E-006	7.437774E-005	9
	32	86	189.0121	22.8759	-44.39026	1	49.93798	-62.73632	1.971088E-006	7.164595E-005	9
	33	88	150.2404	24.26455	-54.94099	1	60.06064	-66.17147	1.961976E-006	7.040936E-005	9
	34	91	119.1737	25.96823	-68.14317	1	72.92352	-69.13898	1.925291E-006	8.142133E-005	9
	35	93	95.0169	28.0096	-84.12409	1	88.66454	-71.58453	1.987997E-006	7.341228E-005	9
	36	95	75.60484	30.54655	-104.068	1	108.4584	-73.64172	1.960544E-006	6.772029E-005	9
	37	98	54.50582	35.18056	-141.0623	1	145.3831	-75.99626	1.92666E-006	6.851133E-005	9
	38	101	45.95588	38.31993	-165.3821	1	169.7635	-76.95446	1.920079E-006	8.096229E-005	9
	39	103	37.20238	42.9337	-201.2717	1	205.7999	-77.95859	2.049795E-006	7.252491E-005	9
	40	105	30.04808	48.68919	-245.4715	1	250.2536	-78.78101	1.61845E-006	0.0001202	9
	41	108	23.91582	56.28091	-303.3745	1	308.5509	-79.49018	2.019796E-006	7.697827E-005	9
	42	110	18.60119	66.85968	-382.9661	1	388.7586	-80.09689	2.065885E-006	7.744643E-005	9
	43	112	15.02404	77.88093	-464.7701	1	471.2501	-80.4874	4.750618E-007	0.000666	8
	44	115	12.01923	92.39557	-571.1611	1	578.5861	-80.81098	3.611909E-007	0.0006589	8
	45	117	9.450605	111.8742	-712.8347	1	721.5602	-81.0806	4.087947E-007	0.0006696	8
	46	120	7.512019	135.2274	-881.1749	1	891.4907	-81.27531	4.119949E-007	0.0006683	8
	47	122	5.978954	164.0524	-1086.899	1	1099.21	-81.41679	4.070461E-007	0.000656	8
	48	125	4.734848	199.7728	-1348.04	1	1362.762	-81.5704	4.146781E-007	0.0007425	8
	49	129	3.75601	245.0018	-1668.79	1	1686.679	-81.64784	4.080593E-007	0.0006428	8
	50	132	3.004808	298.8766	-2048.004	1	2069.697	-81.69712	4.434838E-007	0.0006471	8
	51	136	2.372217	372.7952	-2543.823	1	2570.994	-81.6627	4.456839E-007	0.0006774	8
	52	140	1.878005	463.5922	-3163.335	1	3197.125	-81.66256	4.250487E-007	0.0006513	8
	53	145	1.512097	564.8706	-3864.277	1	3905.345	-81.68355	4.440897E-007	0.0005451	8
	54	150	1.201923	707.0634	-4791.032	1	4842.926	-81.60485	3.509474E-008	0.0006326	7
	55	156	0.956633	876.4182	-5913.53	1	5978.122	-81.56981	3.966263E-008	-1.605958E-005	7
