EXPLAIN
TAG	EISPOT
TITLE	LABEL	Potentiostatic EIS	Test Identifier
DATE	LABEL	8/5/2020	Date
TIME	LABEL	22:23:51	Time
NOTES	NOTES	1	Notes...
	
PSTAT	PSTAT	REF3000-16137	Potentiostat
VDC	POTEN	0.00000E+000	T	DC Voltage (V)
FREQINIT	QUANT	3.00000E+005	Initial Freq. (Hz)
FREQFINAL	QUANT	1.00000E+000	Final Freq. (Hz)
PTSPERDEC	QUANT	1.00000E+001	Points/decade
VAC	QUANT	5.00000E+001	AC Voltage (mV rms)
AREA	QUANT	1.00000E+000	Sample Area (cm^2)
SPEED	SELECTOR	2	Optimize for:
ZGUESS	QUANT	1.00000E+003	Estimated Z (ohms)
EOC	QUANT	0	Open Circuit (V)
SEQUENCER	TOGGLE	TRUE	Run as Sequence
PSTATMODEL	IQUANT	5	Pstat Model
PSTATSECTION	LABEL	REF3000-16137	Pstat Section
PSTATSERIALNO	LABEL	16137	Pstat Serial Number
CTRLMODE	IQUANT	1	Control Mode
IESTAB	IQUANT	0	I/E Stability
CASPEED	IQUANT	1	Control Amp Speed
CONVENTION	IQUANT	1	Current Convention
ICHRANGE	IQUANT	2	Ich Range
ICHRANGEMODE	TOGGLE	F	Ich Auto Range
ICHOFFSETENABLE	TOGGLE	T	Ich Offset Enable
ICHOFFSET	QUANT	0	Ich Offset (V)
ICHFILTER	IQUANT	3	Ich Filter
VCHRANGE	IQUANT	2	Vch Range
VCHRANGEMODE	TOGGLE	F	Vch Auto Range
VCHOFFSETENABLE	TOGGLE	T	Vch Offset Enable
VCHOFFSET	QUANT	0	Vch Offset (V)
VCHFILTER	IQUANT	3	Vch Filter
ACHRANGE	IQUANT	2	Ach Range
ACHOFFSETENABLE	TOGGLE	F	Ach Offset Enable
ACHOFFSET	QUANT	0	Ach Offset (V)
ACHFILTER	IQUANT	3	Ach Filter
IERANGELOWERLIMIT	IQUANT	2	I/E Range Lower Limit
IERANGEMODE	TOGGLE	F	I/E AutoRange
IERANGE	IQUANT	11	I/E Range
POSFEEDENABLE	TOGGLE	F	Positive Feedback IR Comp
POSFEEDRESISTANCE	QUANT	0	Positive Feedback Resistance (ohm)
ACHSELECT	IQUANT	0	Ach Select
CABLEID	IQUANT	13	Cable ID
DCCALDATE	LABEL	7/31/2020	DC Calibration Date
ACCALDATE	LABEL	7/31/2020	AC Calibration Date
THERMOSELECT	IQUANT	1	Thermo Select
FRAMEWORKVERSION	QUANT	6.33	Framework Version
INSTRUMENTVERSION	LABEL	3.50	Instrument Version
COMPLIANCEVOLTAGE	IQUANT	0	Compliance Voltage
ZCURVE	TABLE
	Pt	Time	Freq	Zreal	Zimag	Zsig	Zmod	Zphz	Idc	Vdc	IERange
	#	s	Hz	ohm	ohm	V	ohm	°	A	V	#
	0	8	300046.9	9.050467	1.177469	1	9.12674	7.412566	-9.094772E-005	0.0001959	10
	1	11	238359.4	9.106572	0.9076441	1	9.151692	5.691823	8.336394E-005	-2.726278E-006	10
	2	15	189328.1	9.16305	0.7002621	1	9.189769	4.370185	-0.0001041	0.0003746	10
	3	17	150421.9	9.218168	0.5391225	1	9.23392	3.347118	6.832869E-005	0.0004205	10
	4	20	119484.4	9.272504	0.3833674	1	9.280425	2.367519	2.064551E-005	0.0005631	10
	5	22	94921.88	9.333674	0.2843008	1	9.338003	1.744672	-3.068517E-005	0.0005943	10
	6	25	75421.88	9.390592	0.1635236	1	9.392015	0.997623	1.135398E-005	0.0006354	10
	7	27	59859.37	9.453558	0.0528353	1	9.453706	0.3202188	1.975016E-005	0.0005983	10
	8	30	47578.12	9.52036	-0.0482339	1	9.52048	-0.2902804	-2.168672E-005	0.0006842	10
	9	32	37828.12	9.58846	-0.146816	1	9.58959	-0.8772292	-1.078877E-005	0.0006521	10
	10	35	30046.88	9.65805	-0.249773	1	9.66127	-1.481433	2.285847E-005	0.0006667	10
	11	37	23859.38	9.72742	-0.363063	1	9.7342	-2.137496	-2.862367E-005	0.0006578	10
	12	39	18984.38	9.79716	-0.490373	1	9.80943	-2.865409	-2.802839E-005	0.0007045	10
	13	42	15046.87	9.86918	-0.642413	1	9.89006	-3.724292	-2.063292E-005	0.0006578	10
	14	44	11953.13	9.94583	-0.8219941	1	9.97974	-4.724594	-2.402876E-005	0.0006691	10
	15	46	9515.62	10.02581	-1.033697	1	10.07896	-5.8866	6.432833E-006	0.0006352	10
	16	49	7546.875	10.1108	-1.300305	1	10.19407	-7.328328	-3.145473E-005	0.0006663	10
	17	51	5928.309	10.20552	-1.641163	1	10.33663	-9.135599	2.501568E-005	0.0006538	10
	18	53	4733.456	10.30539	-2.035794	1	10.50455	-11.1747	-2.436939E-005	0.0007267	10
	19	56	3796.875	10.41331	-2.510308	1	10.71161	-13.55354	2.443365E-005	0.0006842	10
	20	58	2987.132	10.54013	-3.148469	1	11.00033	-16.63154	-2.801131E-005	0.0006928	10
	21	60	2390.625	10.67762	-3.881891	1	11.36136	-19.97894	-2.482878E-005	0.0007538	10
	22	62	1884.191	10.84259	-4.860744	1	11.88228	-24.14674	-1.437101E-005	0.0007007	10
	23	65	1516.544	11.0208	-5.960603	1	12.52944	-28.40675	2.408913E-005	0.0006534	10
	24	67	1193.986	11.25179	-7.458324	1	13.49923	-33.53868	5.072531E-006	0.0006391	10
	25	70	946.5144	11.51601	-9.27643	1	14.78752	-38.8523	2.348919E-005	0.0006556	10
	26	72	751.7689	11.83138	-11.49732	1	16.49757	-44.1796	-1.980215E-005	0.0006741	10
	27	74	597.4265	12.21266	-14.24638	1	18.76455	-49.39528	-1.210163E-005	0.0006613	10
	28	77	477.4305	12.65679	-17.56368	1	21.64895	-54.22262	-2.796052E-006	0.0006819	10
	29	79	376.6741	13.22634	-21.90157	1	25.58544	-58.87226	-2.058271E-006	0.0006717	10
	30	81	298.2954	13.91187	-27.22277	1	30.57154	-62.93124	-1.192965E-006	0.0006719	10
	31	83	237.7717	14.72889	-33.62652	1	36.7108	-66.3459	-1.856939E-006	0.0006692	10
	32	86	189.0121	15.72426	-41.59754	1	44.4703	-69.29293	2.01874E-006	7.60699E-005	9
	33	88	150.2404	16.97746	-51.51865	1	54.24395	-71.76088	1.911267E-006	7.542215E-005	9
	34	91	119.1737	18.54996	-63.92734	1	66.56429	-73.81873	1.96523E-006	8.455589E-005	9
	35	93	95.0169	20.47399	-78.9352	1	81.54723	-75.45921	1.941739E-006	7.720105E-005	9
	36	96	75.60484	22.90499	-97.6381	1	100.2888	-76.79768	1.97031E-006	7.54313E-005	9
	37	98	54.50582	27.46378	-132.2633	1	135.0845	-78.26952	1.902737E-006	7.413614E-005	9
	38	101	45.95588	30.55223	-154.9774	1	157.9602	-78.84772	1.988667E-006	7.955642E-005	9
	39	103	37.20238	35.16537	-188.4455	1	191.6985	-79.42975	2.037102E-006	7.509319E-005	9
	40	105	30.04808	40.91479	-229.5383	1	233.1563	-79.89327	1.948046E-006	7.214108E-005	9
	41	108	23.91582	48.58462	-283.3426	1	287.4778	-80.27014	2.043898E-006	6.694709E-005	9
	42	110	18.60119	59.12465	-356.9222	1	361.7861	-80.59429	2.00011E-006	7.314985E-005	9
	43	112	15.02404	70.16151	-432.4245	1	438.0794	-80.78399	4.914011E-007	0.000668	8
	44	115	12.01923	84.46838	-530.5206	1	537.203	-80.95342	4.686558E-007	0.000655	8
	45	117	9.450605	103.871	-661.0425	1	669.1534	-81.07001	4.139601E-007	0.0006482	8
	46	120	7.512019	126.6859	-816.1606	1	825.9343	-81.17686	4.520114E-007	0.0006524	8
	47	122	5.978954	155.4583	-1005.207	1	1017.157	-81.20868	4.47611E-007	0.000658	8
	48	125	4.734848	191.2435	-1245.224	1	1259.824	-81.26865	4.212707E-007	0.0006402	8
	49	129	3.75601	236.674	-1538.635	1	1556.732	-81.25526	4.792711E-007	0.0006742	8
	50	132	3.004808	290.711	-1885.705	1	1907.982	-81.23595	4.411771E-007	0.0006699	8
	51	136	2.372217	366.8102	-2338.602	1	2367.194	-81.08577	4.299902E-007	0.0006113	8
	52	140	1.878005	455.7476	-2901.979	1	2937.547	-81.07476	4.67484E-007	0.0006499	8
	53	145	1.512097	554.8528	-3535.68	1	3578.952	-81.08134	4.387167E-007	0.0007196	8
	54	150	1.201923	701.4215	-4379.895	1	4435.704	-80.90158	6.332959E-008	0.0006342	7
	55	156	0.956633	875.1668	-5396.49	1	5466.994	-80.78835	3.540381E-008	-1.690493E-005	7
