EXPLAIN
TAG	EISPOT
TITLE	LABEL	Potentiostatic EIS	Test Identifier
DATE	LABEL	8/5/2020	Date
TIME	LABEL	22:45:10	Time
NOTES	NOTES	1	Notes...
	
PSTAT	PSTAT	REF3000-16137	Potentiostat
VDC	POTEN	0.00000E+000	T	DC Voltage (V)
FREQINIT	QUANT	3.00000E+005	Initial Freq. (Hz)
FREQFINAL	QUANT	1.00000E+000	Final Freq. (Hz)
PTSPERDEC	QUANT	1.00000E+001	Points/decade
VAC	QUANT	5.00000E+001	AC Voltage (mV rms)
AREA	QUANT	1.00000E+000	Sample Area (cm^2)
SPEED	SELECTOR	2	Optimize for:
ZGUESS	QUANT	1.00000E+003	Estimated Z (ohms)
EOC	QUANT	0	Open Circuit (V)
SEQUENCER	TOGGLE	TRUE	Run as Sequence
PSTATMODEL	IQUANT	5	Pstat Model
PSTATSECTION	LABEL	REF3000-16137	Pstat Section
PSTATSERIALNO	LABEL	16137	Pstat Serial Number
CTRLMODE	IQUANT	1	Control Mode
IESTAB	IQUANT	0	I/E Stability
CASPEED	IQUANT	1	Control Amp Speed
CONVENTION	IQUANT	1	Current Convention
ICHRANGE	IQUANT	2	Ich Range
ICHRANGEMODE	TOGGLE	F	Ich Auto Range
ICHOFFSETENABLE	TOGGLE	T	Ich Offset Enable
ICHOFFSET	QUANT	0	Ich Offset (V)
ICHFILTER	IQUANT	3	Ich Filter
VCHRANGE	IQUANT	2	Vch Range
VCHRANGEMODE	TOGGLE	F	Vch Auto Range
VCHOFFSETENABLE	TOGGLE	T	Vch Offset Enable
VCHOFFSET	QUANT	0	Vch Offset (V)
VCHFILTER	IQUANT	3	Vch Filter
ACHRANGE	IQUANT	2	Ach Range
ACHOFFSETENABLE	TOGGLE	F	Ach Offset Enable
ACHOFFSET	QUANT	0	Ach Offset (V)
ACHFILTER	IQUANT	3	Ach Filter
IERANGELOWERLIMIT	IQUANT	2	I/E Range Lower Limit
IERANGEMODE	TOGGLE	F	I/E AutoRange
IERANGE	IQUANT	11	I/E Range
POSFEEDENABLE	TOGGLE	F	Positive Feedback IR Comp
POSFEEDRESISTANCE	QUANT	0	Positive Feedback Resistance (ohm)
ACHSELECT	IQUANT	0	Ach Select
CABLEID	IQUANT	13	Cable ID
DCCALDATE	LABEL	7/31/2020	DC Calibration Date
ACCALDATE	LABEL	7/31/2020	AC Calibration Date
THERMOSELECT	IQUANT	1	Thermo Select
FRAMEWORKVERSION	QUANT	6.33	Framework Version
INSTRUMENTVERSION	LABEL	3.50	Instrument Version
COMPLIANCEVOLTAGE	IQUANT	0	Compliance Voltage
ZCURVE	TABLE
	Pt	Time	Freq	Zreal	Zimag	Zsig	Zmod	Zphz	Idc	Vdc	IERange
	#	s	Hz	ohm	ohm	V	ohm	°	A	V	#
	0	15	300046.9	1199.709	-3624.194	1	3817.602	-71.68402	7.242069E-006	0.0016224	9
	1	33	238359.4	1726.78	-4416.255	1	4741.844	-68.64423	2.673121E-005	0.0008715	9
	2	47	189328.1	2064.889	-5393.1	1	5774.885	-69.04935	2.872786E-005	-0.0020602	9
	3	54	150421.9	2560.07	-6650.424	1	7126.156	-68.94587	8.014752E-005	-0.0015874	9
	4	62	119484.4	3652.169	-7924.776	1	8725.848	-65.25717	1.560805E-006	0.0017382	9
	5	70	94921.88	5024.288	-9356.372	1	10620.04	-61.7646	-1.014633E-005	-0.0018695	8
	6	79	75421.88	6274.063	-11495.01	1	13095.77	-61.37395	1.103574E-005	0.0003654	9
	7	87	59859.37	8262.927	-13647.22	1	15953.76	-58.80653	1.575294E-005	-0.009221	8
	8	96	47578.12	13164.54	-15375.49	1	20241.32	-49.42976	5.263818E-006	-0.0262372	7
	9	102	37828.12	16152.41	-17606.7	1	23893.44	-47.46669	-5.251588E-006	0.026195	7
	10	109	30046.88	17567.88	-21243.17	1	27566.34	-50.40961	1.823526E-005	9.305294E-005	8
	11	117	23859.38	22513.7	-24483.18	1	33260.98	-47.39967	2.650934E-005	-0.0092512	8
	12	124	18984.38	28943.02	-26886.39	1	39504.13	-42.89031	2.267962E-005	-0.0098847	8
	13	130	15046.87	32754.72	-30436.44	1	44712.96	-42.89895	7.697769E-006	-0.0077634	8
	14	137	11953.13	44477.98	-32277.7	1	54955.81	-35.96841	-2.509399E-005	0.0113604	8
	15	143	9515.62	51099.2	-33866.52	1	61303.09	-33.53483	-1.964221E-005	0.0115444	8
	16	150	7546.875	60838.67	-34244.98	1	69814.48	-29.37436	-7.318816E-006	0.018969	7
	17	155	5928.309	70441.91	-33880.89	1	78166.34	-25.68645	6.762783E-006	-0.0268583	7
	18	160	4733.456	82390.18	-40459.34	1	91788.34	-26.15427	-2.697797E-005	0.0078836	8
	19	168	3796.875	95877.1	-43165.23	1	105145.9	-24.23795	-2.719319E-005	0.007893	8
	20	175	2987.132	105546.6	-24462.4	1	108344.3	-13.04898	-2.465752E-005	0.0055123	8
	21	184	2390.625	100265.6	-52742.79	1	113291.6	-27.74575	9.182506E-006	0.0040369	8
	22	192	1884.191	133035.3	-57475.55	1	144920.1	-23.3659	-5.405634E-006	0.003947	7
	23	198	1516.544	156556.6	-39377.18	1	161432.7	-14.11821	-6.506956E-006	0.025966	7
	24	203	1193.986	164358.8	-50304.36	1	171884.7	-17.01748	-1.19703E-006	-0.0130061	7
	25	210	946.5144	204973.9	-37254.57	1	208331.9	-10.30122	3.929688E-007	-0.0254736	6
	26	213	751.7689	212036.9	-29402.37	1	214065.7	-7.894651	-7.402901E-007	0.0177426	6
	27	215	597.4265	224936.5	-27210.98	1	226576.5	-6.897658	7.202399E-007	-0.0271405	6
	28	218	477.4305	231671.4	-24191.65	1	232931	-5.961351	-1.076644E-008	0.0006982	6
	29	220	376.6741	241491.9	-21150.55	1	242416.3	-5.005355	-1.107107E-008	0.0007157	6
	30	222	298.2954	251633.1	-18134.16	1	252285.6	-4.121944	-1.109013E-008	0.0007185	6
	31	225	237.7717	262601.1	-16456.11	1	263116.2	-3.585797	-1.051996E-008	0.0006231	6
	32	227	189.0121	273471.6	-14421.59	1	273851.6	-3.01871	-1.059918E-008	0.0006984	6
	33	230	150.2404	285729.9	-13442.09	1	286045.9	-2.693479	-1.101795E-008	0.0007106	6
	34	232	119.1737	299303.1	-7377.026	1	299394	-1.411903	-1.087583E-008	0.000694	6
	35	235	95.0169	311039.1	-10102.58	1	311203.2	-1.860319	-1.062266E-008	0.0007176	6
	36	237	75.60484	324446.2	-9050.526	1	324572.4	-1.597869	-1.061914E-008	0.000716	6
	37	240	54.50582	339041.7	-6600.294	1	339105.9	-1.115265	-9.873013E-009	0.0006471	6
	38	242	45.95588	353227.2	-7197.528	1	353300.5	-1.167325	-1.069673E-008	0.000719	6
	39	245	37.20238	367004.7	-6797.489	1	367067.6	-1.061084	-1.068767E-008	0.0007166	6
	40	247	30.04808	383808.3	-6216.939	1	383858.6	-0.9279978	-9.992323E-009	0.000618	6
	41	250	23.91582	403405.1	-2817.987	1	403414.9	-0.4002333	-1.46693E-009	0.0006343	5
	42	253	18.60119	420972.4	-2907.436	1	420982.5	-0.3957056	-1.460749E-009	0.0006966	5
	43	255	15.02404	438052.7	-3092.717	1	438063.6	-0.40451	-1.417973E-009	0.000695	5
	44	258	12.01923	457381	-3341.125	1	457393.2	-0.4185328	-1.350551E-009	0.0006788	5
	45	260	9.450605	477701.2	-3747.244	1	477715.9	-0.4494376	-1.285392E-009	0.0007171	5
	46	263	7.512019	501159.7	-4286.507	1	501178	-0.4900489	-1.418591E-009	0.0006216	5
	47	266	5.978954	533933	-5019.603	1	533956.6	-0.5386324	-1.705538E-009	0.0006122	5
	48	270	4.734848	568979.8	-5777.72	1	569009.1	-0.5817915	-1.174276E-009	0.0007279	5
	49	273	3.75601	616003.1	-7070.44	1	616043.7	-0.657608	-1.912521E-009	0.0006039	5
	50	279	3.004808	683540.8	-8609.575	1	683595.1	-0.7216339	-1.801247E-009	0.0006991	5
	51	285	2.372217	750050.8	-9927.08	1	750116.4	-0.7582772	-1.656269E-009	0.0006983	5
	52	289	1.878005	813282.5	-12532.6	1	813379.1	-0.8828522	-1.992049E-009	0.0006496	5
	53	294	1.512097	891491.4	-14002.23	1	891601.4	-0.8998437	-1.592249E-009	0.0005685	5
	54	299	1.201923	990991	-19134.1	1	991176	-1.106132	-1.502435E-009	0.0006582	5
	55	306	0.956633	1113165	-23542.63	1	1113414	-1.211583	-1.960559E-009	1.516566E-005	5
