EXPLAIN
TAG	EISPOT
TITLE	LABEL	Potentiostatic EIS	Test Identifier
DATE	LABEL	9/13/2020	Date
TIME	LABEL	15:52:36	Time
NOTES	NOTES	1	Notes...
	
PSTAT	PSTAT	REF3000-16137	Potentiostat
VDC	POTEN	0.00000E+000	T	DC Voltage (V)
FREQINIT	QUANT	3.00000E+005	Initial Freq. (Hz)
FREQFINAL	QUANT	1.00000E+000	Final Freq. (Hz)
PTSPERDEC	QUANT	1.00000E+001	Points/decade
VAC	QUANT	5.00000E+001	AC Voltage (mV rms)
AREA	QUANT	1.00000E+000	Sample Area (cm^2)
SPEED	SELECTOR	2	Optimize for:
ZGUESS	QUANT	1.00000E+003	Estimated Z (ohms)
EOC	QUANT	0	Open Circuit (V)
SEQUENCER	TOGGLE	TRUE	Run as Sequence
PSTATMODEL	IQUANT	5	Pstat Model
PSTATSECTION	LABEL	REF3000-16137	Pstat Section
PSTATSERIALNO	LABEL	16137	Pstat Serial Number
CTRLMODE	IQUANT	1	Control Mode
IESTAB	IQUANT	0	I/E Stability
CASPEED	IQUANT	1	Control Amp Speed
CONVENTION	IQUANT	1	Current Convention
ICHRANGE	IQUANT	2	Ich Range
ICHRANGEMODE	TOGGLE	F	Ich Auto Range
ICHOFFSETENABLE	TOGGLE	T	Ich Offset Enable
ICHOFFSET	QUANT	0	Ich Offset (V)
ICHFILTER	IQUANT	3	Ich Filter
VCHRANGE	IQUANT	2	Vch Range
VCHRANGEMODE	TOGGLE	F	Vch Auto Range
VCHOFFSETENABLE	TOGGLE	T	Vch Offset Enable
VCHOFFSET	QUANT	0	Vch Offset (V)
VCHFILTER	IQUANT	3	Vch Filter
ACHRANGE	IQUANT	2	Ach Range
ACHOFFSETENABLE	TOGGLE	F	Ach Offset Enable
ACHOFFSET	QUANT	0	Ach Offset (V)
ACHFILTER	IQUANT	3	Ach Filter
IERANGELOWERLIMIT	IQUANT	2	I/E Range Lower Limit
IERANGEMODE	TOGGLE	F	I/E AutoRange
IERANGE	IQUANT	11	I/E Range
POSFEEDENABLE	TOGGLE	F	Positive Feedback IR Comp
POSFEEDRESISTANCE	QUANT	0	Positive Feedback Resistance (ohm)
ACHSELECT	IQUANT	0	Ach Select
CABLEID	IQUANT	13	Cable ID
DCCALDATE	LABEL	7/31/2020	DC Calibration Date
ACCALDATE	LABEL	7/31/2020	AC Calibration Date
THERMOSELECT	IQUANT	1	Thermo Select
FRAMEWORKVERSION	QUANT	6.33	Framework Version
INSTRUMENTVERSION	LABEL	3.50	Instrument Version
COMPLIANCEVOLTAGE	IQUANT	0	Compliance Voltage
ZCURVE	TABLE
	Pt	Time	Freq	Zreal	Zimag	Zsig	Zmod	Zphz	Idc	Vdc	IERange
	#	s	Hz	ohm	ohm	V	ohm	°	A	V	#
	0	8	300046.9	8.758239	2.184067	1	9.026456	14.00242	2.593136E-005	2.606715E-005	10
	1	11	238359.4	8.83081	1.746409	1	9.001842	11.18665	9.930993E-006	0.0002146	10
	2	14	189328.1	8.914916	1.376864	1	9.020615	8.779675	-3.896177E-006	0.0002093	10
	3	17	150421.9	8.998356	1.069223	1	9.061658	6.776358	1.694539E-005	0.0004153	10
	4	19	119484.4	9.080086	0.8360592	1	9.118495	5.26074	-1.673252E-005	0.000573	10
	5	22	94921.88	9.170935	0.6589075	1	9.194574	4.109489	2.203635E-005	0.0005686	10
	6	24	75421.88	9.263124	0.4803362	1	9.275569	2.968395	2.363773E-005	0.0005722	10
	7	27	59859.37	9.362667	0.3278172	1	9.368404	2.005291	-2.848617E-005	0.0006023	10
	8	29	47578.12	9.4669	0.1968199	1	9.468946	1.191026	2.148792E-005	0.0005851	10
	9	32	37828.12	9.57476	0.0822819	1	9.57511	0.4923663	-2.518095E-005	0.0006718	10
	10	34	30046.88	9.68164	-0.027685	1	9.68168	-0.163839	1.290499E-005	0.0005741	10
	11	37	23859.38	9.78927	-0.1362614	1	9.79021	-0.7974754	-1.571769E-005	0.000644	10
	12	39	18984.38	9.89481	-0.2499741	1	9.89797	-1.447164	-1.641766E-005	0.0006511	10
	13	41	15046.87	10.00442	-0.3771439	1	10.01152	-2.1589	-2.448477E-006	0.0006827	10
	14	44	11953.13	10.11382	-0.5210119	1	10.12723	-2.948978	-1.825032E-005	0.0006414	10
	15	46	9515.62	10.23319	-0.684594	1	10.25606	-3.827349	-2.406938E-005	0.000729	10
	16	48	7546.875	10.35416	-0.887647	1	10.39214	-4.899904	-2.801908E-005	0.0006454	10
	17	51	5928.309	10.48508	-1.140266	1	10.5469	-6.206596	-2.717463E-005	0.0006628	10
	18	53	4733.456	10.61851	-1.431062	1	10.7145	-7.675538	-2.606303E-005	0.0006752	10
	19	55	3796.875	10.76038	-1.77914	1	10.90647	-9.388443	-1.274695E-005	0.0006196	10
	20	58	2987.132	10.91707	-2.247427	1	11.146	-11.6326	2.226426E-005	0.000634	10
	21	60	2390.625	11.08586	-2.781151	1	11.42939	-14.08336	-1.69341E-005	0.0006589	10
	22	62	1884.191	11.27208	-3.495885	1	11.80173	-17.23058	2.414148E-005	0.000621	10
	23	65	1516.544	11.47433	-4.299336	1	12.25335	-20.54055	2.044644E-005	0.000638	10
	24	67	1193.986	11.71976	-5.392736	1	12.90094	-24.70908	-1.584157E-005	0.0006805	10
	25	69	946.5144	12.00067	-6.711682	1	13.75001	-29.21722	-2.479906E-005	0.0006885	10
	26	72	751.7689	12.3187	-8.342123	1	14.87755	-34.10553	-2.824767E-005	0.0006694	10
	27	74	597.4265	12.69307	-10.35063	1	16.37833	-39.19571	-1.381166E-005	0.0006744	10
	28	76	477.4305	13.13172	-12.75862	1	18.30914	-44.17438	-1.804748E-006	0.0006465	10
	29	79	376.6741	13.68645	-15.90939	1	20.98637	-49.29541	-2.630237E-006	0.0006433	10
	30	81	298.2954	14.35413	-19.75744	1	24.42125	-54.00092	-2.161561E-006	0.0006473	10
	31	83	237.7717	15.16286	-24.3762	1	28.70734	-58.11692	-2.396899E-006	0.0006462	10
	32	86	189.0121	16.15951	-30.13101	1	34.19075	-61.79497	-2.212162E-006	0.0006453	10
	33	88	150.2404	17.38929	-37.22565	1	41.08694	-64.96123	-2.169457E-006	0.0006451	10
	34	91	119.1737	18.9059	-46.0092	1	49.74213	-67.66147	1.227108E-006	5.134373E-005	9
	35	93	95.0169	20.78727	-56.64054	1	60.33458	-69.84669	1.20575E-006	5.144241E-005	9
	36	95	75.60484	23.17929	-69.83614	1	73.58237	-71.63849	1.271697E-006	4.98534E-005	9
	37	98	54.50582	27.69886	-94.11279	1	98.1042	-73.60002	1.230233E-006	4.722247E-005	9
	38	101	45.95588	30.84551	-109.9657	1	114.2099	-74.33112	1.320364E-006	5.079077E-005	9
	39	103	37.20238	35.60616	-133.2125	1	137.889	-75.03533	1.171155E-006	5.694893E-005	9
	40	105	30.04808	41.69759	-161.5392	1	166.8341	-75.52637	8.853057E-007	0.0000982	9
	41	108	23.91582	50.01685	-198.1847	1	204.3988	-75.83576	1.325048E-006	4.280659E-005	9
	42	110	18.60119	61.9447	-247.725	1	255.3523	-75.96082	1.144986E-006	5.029869E-005	9
	43	112	15.02404	75.19828	-299.0462	1	308.356	-75.88503	1.477105E-006	5.609281E-005	9
	44	115	12.01923	92.45802	-363.238	1	374.8204	-75.71928	1.489356E-006	5.230385E-005	9
	45	117	9.450605	115.7041	-444.7742	1	459.5775	-75.41821	5.853916E-007	0.0006168	8
	46	119	7.512019	144.2602	-540.3631	1	559.2882	-75.05241	6.932344E-007	0.0006413	8
	47	122	5.978954	178.892	-654.7665	1	678.7647	-74.71887	6.011659E-007	0.0006268	8
	48	125	4.734848	222.1908	-795.3715	1	825.8236	-74.39204	6.54332E-007	0.0006536	8
	49	128	3.75601	274.4784	-963.599	1	1001.929	-74.10055	4.993402E-007	0.0006196	8
	50	132	3.004808	334.3343	-1157.956	1	1205.255	-73.89509	5.862295E-007	0.0006071	8
	51	136	2.372217	409.6321	-1406.376	1	1464.818	-73.76085	5.66812E-007	0.0005871	8
	52	140	1.878005	501.0027	-1707.988	1	1779.951	-73.65205	5.511082E-007	0.0006232	8
	53	144	1.512097	600.1058	-2047.431	1	2133.565	-73.66404	5.505375E-007	0.0005231	8
	54	150	1.201923	722.0477	-2487.673	1	2590.341	-73.81461	5.496E-007	0.0006512	8
	55	156	0.956633	867.301	-3024.065	1	3145.978	-73.99712	5.367114E-007	-6.881286E-006	8
