EXPLAIN
TAG	EISPOT
TITLE	LABEL	Potentiostatic EIS	Test Identifier
DATE	LABEL	8/5/2020	Date
TIME	LABEL	20:35:23	Time
NOTES	NOTES	1	Notes...
	
PSTAT	PSTAT	REF3000-16137	Potentiostat
VDC	POTEN	0.00000E+000	T	DC Voltage (V)
FREQINIT	QUANT	3.00000E+005	Initial Freq. (Hz)
FREQFINAL	QUANT	1.00000E+000	Final Freq. (Hz)
PTSPERDEC	QUANT	1.00000E+001	Points/decade
VAC	QUANT	5.00000E+001	AC Voltage (mV rms)
AREA	QUANT	1.00000E+000	Sample Area (cm^2)
SPEED	SELECTOR	2	Optimize for:
ZGUESS	QUANT	1.00000E+003	Estimated Z (ohms)
EOC	QUANT	0	Open Circuit (V)
SEQUENCER	TOGGLE	TRUE	Run as Sequence
PSTATMODEL	IQUANT	5	Pstat Model
PSTATSECTION	LABEL	REF3000-16137	Pstat Section
PSTATSERIALNO	LABEL	16137	Pstat Serial Number
CTRLMODE	IQUANT	1	Control Mode
IESTAB	IQUANT	0	I/E Stability
CASPEED	IQUANT	1	Control Amp Speed
CONVENTION	IQUANT	1	Current Convention
ICHRANGE	IQUANT	2	Ich Range
ICHRANGEMODE	TOGGLE	F	Ich Auto Range
ICHOFFSETENABLE	TOGGLE	T	Ich Offset Enable
ICHOFFSET	QUANT	0	Ich Offset (V)
ICHFILTER	IQUANT	3	Ich Filter
VCHRANGE	IQUANT	2	Vch Range
VCHRANGEMODE	TOGGLE	F	Vch Auto Range
VCHOFFSETENABLE	TOGGLE	T	Vch Offset Enable
VCHOFFSET	QUANT	0	Vch Offset (V)
VCHFILTER	IQUANT	3	Vch Filter
ACHRANGE	IQUANT	2	Ach Range
ACHOFFSETENABLE	TOGGLE	F	Ach Offset Enable
ACHOFFSET	QUANT	0	Ach Offset (V)
ACHFILTER	IQUANT	3	Ach Filter
IERANGELOWERLIMIT	IQUANT	2	I/E Range Lower Limit
IERANGEMODE	TOGGLE	F	I/E AutoRange
IERANGE	IQUANT	11	I/E Range
POSFEEDENABLE	TOGGLE	F	Positive Feedback IR Comp
POSFEEDRESISTANCE	QUANT	0	Positive Feedback Resistance (ohm)
ACHSELECT	IQUANT	0	Ach Select
CABLEID	IQUANT	13	Cable ID
DCCALDATE	LABEL	7/31/2020	DC Calibration Date
ACCALDATE	LABEL	7/31/2020	AC Calibration Date
THERMOSELECT	IQUANT	1	Thermo Select
FRAMEWORKVERSION	QUANT	6.33	Framework Version
INSTRUMENTVERSION	LABEL	3.50	Instrument Version
COMPLIANCEVOLTAGE	IQUANT	0	Compliance Voltage
ZCURVE	TABLE
	Pt	Time	Freq	Zreal	Zimag	Zsig	Zmod	Zphz	Idc	Vdc	IERange
	#	s	Hz	ohm	ohm	V	ohm	°	A	V	#
	0	9	300046.9	2.317743	0.968948	1	2.512129	22.6877	-0.0001257	0.000926	12
	1	14	238359.4	2.26434	0.7700456	1	2.391695	18.78189	-6.15831E-005	-0.0002766	12
	2	18	189328.1	2.22888	0.5981791	1	2.307754	15.02284	2.317397E-005	0.0000961	12
	3	22	150421.9	2.194398	0.5789208	1	2.269478	14.77891	-2.344659E-005	0.0002981	11
	4	24	119484.4	2.187864	0.4338666	1	2.230468	11.21658	2.199458E-005	0.0004721	11
	5	27	94921.88	2.187494	0.3148308	1	2.210033	8.189944	-2.597195E-005	0.0005235	11
	6	29	75421.88	2.189955	0.2100099	1	2.200002	5.477737	-4.278188E-006	0.0005755	11
	7	32	59859.37	2.1946	0.1171295	1	2.197724	3.055073	-3.158483E-005	0.0006064	11
	8	34	47578.12	2.199727	0.0317628	1	2.199956	0.8272616	-5.089585E-005	0.0005968	11
	9	37	37828.12	2.207179	-0.050405	1	2.207755	-1.308228	-9.824948E-006	0.0006742	11
	10	39	30046.88	2.215913	-0.1341822	1	2.219971	-3.465253	-6.441833E-005	0.0007166	11
	11	42	23859.38	2.225321	-0.2234232	1	2.236509	-5.733307	8.59493E-006	0.0006739	11
	12	44	18984.38	2.237171	-0.3210222	1	2.260087	-8.165896	1.588335E-005	0.0007026	11
	13	47	15046.87	2.251644	-0.435087	1	2.293295	-10.93652	-3.050336E-005	0.0007001	11
	14	49	11953.13	2.267922	-0.5674006	1	2.337823	-14.04623	8.071648E-006	0.0006801	11
	15	51	9515.62	2.288436	-0.7235989	1	2.400112	-17.54685	-3.09932E-006	0.0007063	11
	16	54	7546.875	2.313258	-0.9167386	1	2.488287	-21.6183	-4.025003E-005	0.000683	11
	17	56	5928.309	2.344921	-1.162042	1	2.617058	-26.36104	-3.473718E-005	0.0006805	11
	18	58	4733.456	2.381912	-1.443743	1	2.785301	-31.22122	-3.405287E-005	0.0006878	11
	19	60	3796.875	2.427342	-1.779812	1	3.009937	-36.25017	2.28691E-005	0.0007106	11
	20	63	2987.132	2.487542	-2.233176	1	3.342894	-41.91572	3.649537E-005	0.0007216	11
	21	65	2390.625	2.559449	-2.752621	1	3.758683	-47.08262	3.254801E-005	0.000721	11
	22	67	1884.191	2.661292	-3.437109	1	4.346975	-52.25002	-1.347945E-005	0.0006815	10
	23	70	1516.544	2.777907	-4.201893	1	5.03713	-56.53097	-2.29779E-005	0.0007218	10
	24	72	1193.986	2.93863	-5.233939	1	6.002471	-60.68768	-1.931114E-005	0.0006854	10
	25	75	946.5144	3.137717	-6.47088	1	7.191492	-64.13134	-3.219125E-005	0.0006741	10
	26	77	751.7689	3.386343	-7.972835	1	8.662183	-66.98736	1.678697E-005	0.0006659	10
	27	79	597.4265	3.685744	-9.80852	1	10.47816	-69.40531	-2.45389E-005	0.0006809	10
	28	81	477.4305	4.032798	-11.98776	1	12.64792	-71.40656	-5.556752E-007	0.0006861	10
	29	84	376.6741	4.467093	-14.82698	1	15.48529	-73.23342	-8.933506E-007	0.0006804	10
	30	86	298.2954	4.968421	-18.28794	1	18.95083	-74.80088	-4.231645E-006	0.0007302	10
	31	88	237.7717	5.535717	-22.4425	1	23.11514	-76.14388	-1.031131E-006	0.0006808	10
	32	91	189.0121	6.207361	-27.64148	1	28.32989	-77.34324	-7.72785E-007	0.000682	10
	33	93	150.2404	7.004412	-34.09772	1	34.80972	-78.39169	-1.527249E-006	0.0006748	10
	34	96	119.1737	7.969249	-42.19318	1	42.93918	-79.30424	-1.248086E-006	0.0006821	10
	35	98	95.0169	9.107541	-51.96648	1	52.75853	-80.05941	1.875341E-006	7.371909E-005	9
	36	101	75.60484	10.54133	-64.25862	1	65.11751	-80.68387	1.795398E-006	7.480597E-005	9
	37	103	54.50582	13.26677	-87.17046	1	88.17423	-81.34637	1.66282E-006	7.258351E-005	9
	38	106	45.95588	15.13285	-102.2703	1	103.3838	-81.58307	2.078505E-006	7.677508E-005	9
	39	108	37.20238	17.99402	-124.6039	1	125.8964	-81.78274	1.785166E-006	7.944831E-005	9
	40	110	30.04808	21.761	-152.2023	1	153.7501	-81.86333	1.642276E-006	8.585163E-005	9
	41	113	23.91582	26.89749	-188.166	1	190.0787	-81.86494	1.824385E-006	7.471223E-005	9
	42	115	18.60119	34.55557	-237.7857	1	240.2834	-81.73153	1.92422E-006	8.275891E-005	9
	43	117	15.02404	43.14265	-289.921	1	293.1134	-81.53603	2.137247E-006	7.618385E-005	9
	44	120	12.01923	55.26233	-356.3044	1	360.5645	-81.18375	1.763123E-006	7.623607E-005	9
	45	122	9.450605	72.24088	-442.2471	1	448.1086	-80.72269	6.346255E-007	0.0006574	8
	46	125	7.512019	94.41978	-544.8931	1	553.0132	-80.16933	5.864592E-007	0.0006647	8
	47	127	5.978954	123.4622	-668.4546	1	679.7606	-79.53551	5.901464E-007	0.0006559	8
	48	130	4.734848	163.1478	-822.9756	1	838.9911	-78.78699	5.061801E-007	0.0006558	8
	49	134	3.75601	214.0562	-1007.714	1	1030.198	-78.00761	5.937504E-007	0.0006694	8
	50	137	3.004808	277.6336	-1221.105	1	1252.269	-77.19083	5.120805E-007	0.0006909	8
	51	141	2.372217	362.9984	-1492.244	1	1535.76	-76.32796	4.837369E-007	0.000686	8
	52	145	1.878005	474.9311	-1819.611	1	1880.57	-75.37176	5.185724E-007	0.0006327	8
	53	150	1.512097	601.1352	-2182.849	1	2264.109	-74.60297	4.886529E-007	0.0007522	8
	54	155	1.201923	776.1022	-2644.79	1	2756.311	-73.6459	5.218474E-007	0.0006503	8
	55	162	0.956633	995.89	-3194.331	1	3345.975	-72.6842	4.483566E-007	1.654949E-005	8
