EXPLAIN
TAG	EISPOT
TITLE	LABEL	Potentiostatic EIS	Test Identifier
DATE	LABEL	8/5/2020	Date
TIME	LABEL	20:57:52	Time
NOTES	NOTES	1	Notes...
	
PSTAT	PSTAT	REF3000-16137	Potentiostat
VDC	POTEN	0.00000E+000	T	DC Voltage (V)
FREQINIT	QUANT	3.00000E+005	Initial Freq. (Hz)
FREQFINAL	QUANT	1.00000E+000	Final Freq. (Hz)
PTSPERDEC	QUANT	1.00000E+001	Points/decade
VAC	QUANT	5.00000E+001	AC Voltage (mV rms)
AREA	QUANT	1.00000E+000	Sample Area (cm^2)
SPEED	SELECTOR	2	Optimize for:
ZGUESS	QUANT	1.00000E+003	Estimated Z (ohms)
EOC	QUANT	0	Open Circuit (V)
SEQUENCER	TOGGLE	TRUE	Run as Sequence
PSTATMODEL	IQUANT	5	Pstat Model
PSTATSECTION	LABEL	REF3000-16137	Pstat Section
PSTATSERIALNO	LABEL	16137	Pstat Serial Number
CTRLMODE	IQUANT	1	Control Mode
IESTAB	IQUANT	0	I/E Stability
CASPEED	IQUANT	1	Control Amp Speed
CONVENTION	IQUANT	1	Current Convention
ICHRANGE	IQUANT	2	Ich Range
ICHRANGEMODE	TOGGLE	F	Ich Auto Range
ICHOFFSETENABLE	TOGGLE	T	Ich Offset Enable
ICHOFFSET	QUANT	0	Ich Offset (V)
ICHFILTER	IQUANT	3	Ich Filter
VCHRANGE	IQUANT	2	Vch Range
VCHRANGEMODE	TOGGLE	F	Vch Auto Range
VCHOFFSETENABLE	TOGGLE	T	Vch Offset Enable
VCHOFFSET	QUANT	0	Vch Offset (V)
VCHFILTER	IQUANT	3	Vch Filter
ACHRANGE	IQUANT	2	Ach Range
ACHOFFSETENABLE	TOGGLE	F	Ach Offset Enable
ACHOFFSET	QUANT	0	Ach Offset (V)
ACHFILTER	IQUANT	3	Ach Filter
IERANGELOWERLIMIT	IQUANT	2	I/E Range Lower Limit
IERANGEMODE	TOGGLE	F	I/E AutoRange
IERANGE	IQUANT	11	I/E Range
POSFEEDENABLE	TOGGLE	F	Positive Feedback IR Comp
POSFEEDRESISTANCE	QUANT	0	Positive Feedback Resistance (ohm)
ACHSELECT	IQUANT	0	Ach Select
CABLEID	IQUANT	13	Cable ID
DCCALDATE	LABEL	7/31/2020	DC Calibration Date
ACCALDATE	LABEL	7/31/2020	AC Calibration Date
THERMOSELECT	IQUANT	1	Thermo Select
FRAMEWORKVERSION	QUANT	6.33	Framework Version
INSTRUMENTVERSION	LABEL	3.50	Instrument Version
COMPLIANCEVOLTAGE	IQUANT	0	Compliance Voltage
ZCURVE	TABLE
	Pt	Time	Freq	Zreal	Zimag	Zsig	Zmod	Zphz	Idc	Vdc	IERange
	#	s	Hz	ohm	ohm	V	ohm	°	A	V	#
	0	11	300046.9	286.1355	-20.05154	1	286.8372	-4.008568	5.963481E-006	0.0012192	9
	1	15	238359.4	296.3891	-22.80368	1	297.265	-4.399573	2.876171E-005	0.0003817	10
	2	19	189328.1	310.527	-16.24079	1	310.9514	-2.993883	-1.064595E-005	0.0015402	9
	3	26	150421.9	324.9678	-17.89963	1	325.4604	-3.152736	8.807632E-005	0.0003612	10
	4	30	119484.4	337.1784	-12.43054	1	337.4074	-2.111331	8.386708E-005	-0.0028845	9
	5	34	94921.88	349.441	-11.01042	1	349.6144	-1.804716	2.128932E-005	-2.34313E-005	9
	6	38	75421.88	357.3068	-9.71289	1	357.4388	-1.557122	3.109992E-005	-0.0007465	9
	7	41	59859.37	364.7794	-8.2862	1	364.8735	-1.301287	-9.219591E-006	-0.0001314	9
	8	43	47578.12	371.7697	-2.107865	1	371.7757	-0.3248529	-1.324496E-005	0.0055431	8
	9	46	37828.12	380.7396	-7.31285	1	380.8098	-1.100342	2.084431E-005	-0.0009131	9
	10	49	30046.88	389.8355	-6.521042	1	389.8901	-0.958336	2.653107E-005	-0.0002253	9
	11	51	23859.38	399.2661	-5.644862	1	399.306	-0.8099992	-1.859748E-005	0.0008908	9
	12	54	18984.38	405.0722	-3.782638	1	405.0899	-0.5350229	1.389533E-005	-0.0020312	8
	13	56	15046.87	412.2523	-3.695915	1	412.2688	-0.5136531	-2.874554E-006	-0.0018154	8
	14	58	11953.13	421.3329	-4.47154	1	421.3566	-0.6080483	1.396367E-005	-0.0048276	8
	15	60	9515.62	429.6634	-5.23161	1	429.6953	-0.6976027	1.423049E-005	-0.004954	8
	16	63	7546.875	440.0496	-5.895915	1	440.0891	-0.76762	-1.327993E-005	0.0028344	8
	17	65	5928.309	447.737	-6.569449	1	447.7852	-0.8406156	2.773593E-006	-0.0035823	8
	18	67	4733.456	457.0237	-7.02351	1	457.0776	-0.8804484	-1.159111E-005	0.0017761	8
	19	70	3796.875	466.0525	-8.921558	1	466.1379	-1.096669	1.200816E-005	-0.0053258	8
	20	72	2987.132	476.0483	-9.227258	1	476.1378	-1.110427	-1.33449E-005	0.0027843	8
	21	74	2390.625	487.8511	-10.59231	1	487.9661	-1.243821	-1.252605E-005	0.0068628	8
	22	77	1884.191	499.2745	-9.029988	1	499.3561	-1.036151	-1.41795E-005	0.0030027	8
	23	79	1516.544	507.441	-14.79178	1	507.6565	-1.669685	9.903603E-007	0.0042032	8
	24	81	1193.986	519.0225	-19.307	1	519.3814	-2.130351	-1.197128E-005	0.0017231	8
	25	84	946.5144	531.736	-23.23454	1	532.2433	-2.501984	-1.562527E-005	0.0064393	8
	26	86	751.7689	541.994	-27.78885	1	542.7059	-2.935071	-4.860255E-006	0.0058621	8
	27	89	597.4265	556.4799	-32.42562	1	557.4238	-3.334807	1.728508E-005	-0.0048833	8
	28	91	477.4305	569.5818	-37.90581	1	570.8417	-3.807434	-7.474632E-008	0.0006715	8
	29	93	376.6741	583.4581	-45.76704	1	585.2503	-4.485155	-6.952096E-008	0.0006518	8
	30	96	298.2954	598.1977	-55.22239	1	600.7412	-5.274289	-8.365196E-008	0.0006673	8
	31	98	237.7717	614.2979	-66.39415	1	617.8754	-6.168661	-7.452187E-008	0.0006495	8
	32	100	189.0121	631.3807	-80.06157	1	636.4365	-7.226763	-6.33162E-008	0.0006477	8
	33	103	150.2404	649.8207	-96.5182	1	656.9496	-8.448403	-1.18816E-007	0.0006969	8
	34	105	119.1737	669.8442	-116.5806	1	679.9135	-9.87294	-5.100238E-008	0.0006601	8
	35	107	95.0169	691.6531	-140.0611	1	705.6919	-11.4477	-1.005346E-007	0.0006462	8
	36	110	75.60484	716.2219	-168.455	1	735.7655	-13.23538	-8.160133E-008	0.0006557	8
	37	112	54.50582	749.3002	-218.5876	1	780.5327	-16.26314	-9.235627E-008	0.0006534	8
	38	115	45.95588	775.4713	-250.6622	1	814.9768	-17.91283	-7.056299E-008	0.0006604	8
	39	117	37.20238	806.3352	-296.4108	1	859.0901	-20.18355	-4.420538E-008	0.0006337	8
	40	120	30.04808	841.0356	-350.8623	1	911.2877	-22.64487	-5.183481E-008	0.000652	8
	41	122	23.91582	880.5482	-419.9584	1	975.567	-25.4978	-1.692966E-007	0.0006448	8
	42	124	18.60119	926.3986	-512.4575	1	1058.691	-28.95013	6.195896E-008	0.000644	8
	43	127	15.02404	970.834	-607.1463	1	1145.052	-32.0213	-5.083105E-008	0.0006597	8
	44	129	12.01923	1021.742	-725.0856	1	1252.879	-35.36167	-2.059749E-007	0.0006596	8
	45	131	9.450605	1081.337	-881.2986	1	1394.983	-39.18032	-1.730317E-007	0.0006531	8
	46	134	7.512019	1144.152	-1066.133	1	1563.881	-42.9784	-1.469108E-007	0.0006257	8
	47	137	5.978954	1217.709	-1291.31	1	1774.908	-46.68027	-1.140901E-007	0.0006643	8
	48	140	4.734848	1302.366	-1577.936	1	2045.981	-50.46508	-1.689538E-007	0.0006412	8
	49	143	3.75601	1399.648	-1928.923	1	2383.225	-54.03493	-1.089134E-007	0.0006581	8
	50	146	3.004808	1508.315	-2346.268	1	2789.262	-57.26478	-1.512649E-007	0.0006907	8
	51	150	2.372217	1641.811	-2895.663	1	3328.725	-60.44722	-1.378058E-007	0.0007241	8
	52	154	1.878005	1800.781	-3571.665	1	3999.95	-63.24343	-1.530759E-007	0.0006228	8
	53	159	1.512097	1990.422	-4346.577	1	4780.639	-65.3956	-3.126965E-008	0.0006901	7
	54	164	1.201923	2217.207	-5376.719	1	5815.936	-67.59013	-5.009178E-008	0.0006014	7
	55	171	0.956633	2495.755	-6631.793	1	7085.864	-69.37708	-5.34057E-008	-1.310445E-005	7
