EXPLAIN
TAG	EISPOT
TITLE	LABEL	Potentiostatic EIS	Test Identifier
DATE	LABEL	8/5/2020	Date
TIME	LABEL	20:43:57	Time
NOTES	NOTES	1	Notes...
	
PSTAT	PSTAT	REF3000-16137	Potentiostat
VDC	POTEN	0.00000E+000	T	DC Voltage (V)
FREQINIT	QUANT	3.00000E+005	Initial Freq. (Hz)
FREQFINAL	QUANT	1.00000E+000	Final Freq. (Hz)
PTSPERDEC	QUANT	1.00000E+001	Points/decade
VAC	QUANT	5.00000E+001	AC Voltage (mV rms)
AREA	QUANT	1.00000E+000	Sample Area (cm^2)
SPEED	SELECTOR	2	Optimize for:
ZGUESS	QUANT	1.00000E+003	Estimated Z (ohms)
EOC	QUANT	0	Open Circuit (V)
SEQUENCER	TOGGLE	TRUE	Run as Sequence
PSTATMODEL	IQUANT	5	Pstat Model
PSTATSECTION	LABEL	REF3000-16137	Pstat Section
PSTATSERIALNO	LABEL	16137	Pstat Serial Number
CTRLMODE	IQUANT	1	Control Mode
IESTAB	IQUANT	0	I/E Stability
CASPEED	IQUANT	1	Control Amp Speed
CONVENTION	IQUANT	1	Current Convention
ICHRANGE	IQUANT	2	Ich Range
ICHRANGEMODE	TOGGLE	F	Ich Auto Range
ICHOFFSETENABLE	TOGGLE	T	Ich Offset Enable
ICHOFFSET	QUANT	0	Ich Offset (V)
ICHFILTER	IQUANT	3	Ich Filter
VCHRANGE	IQUANT	2	Vch Range
VCHRANGEMODE	TOGGLE	F	Vch Auto Range
VCHOFFSETENABLE	TOGGLE	T	Vch Offset Enable
VCHOFFSET	QUANT	0	Vch Offset (V)
VCHFILTER	IQUANT	3	Vch Filter
ACHRANGE	IQUANT	2	Ach Range
ACHOFFSETENABLE	TOGGLE	F	Ach Offset Enable
ACHOFFSET	QUANT	0	Ach Offset (V)
ACHFILTER	IQUANT	3	Ach Filter
IERANGELOWERLIMIT	IQUANT	2	I/E Range Lower Limit
IERANGEMODE	TOGGLE	F	I/E AutoRange
IERANGE	IQUANT	11	I/E Range
POSFEEDENABLE	TOGGLE	F	Positive Feedback IR Comp
POSFEEDRESISTANCE	QUANT	0	Positive Feedback Resistance (ohm)
ACHSELECT	IQUANT	0	Ach Select
CABLEID	IQUANT	13	Cable ID
DCCALDATE	LABEL	7/31/2020	DC Calibration Date
ACCALDATE	LABEL	7/31/2020	AC Calibration Date
THERMOSELECT	IQUANT	1	Thermo Select
FRAMEWORKVERSION	QUANT	6.33	Framework Version
INSTRUMENTVERSION	LABEL	3.50	Instrument Version
COMPLIANCEVOLTAGE	IQUANT	0	Compliance Voltage
ZCURVE	TABLE
	Pt	Time	Freq	Zreal	Zimag	Zsig	Zmod	Zphz	Idc	Vdc	IERange
	#	s	Hz	ohm	ohm	V	ohm	°	A	V	#
	0	10	300046.9	3.846191	1.220586	1	4.035222	17.6068	2.088257E-005	-1.349788E-005	10
	1	13	238359.4	3.867914	0.969529	1	3.987574	14.0718	-9.104595E-005	-0.0003255	10
	2	16	189328.1	3.888573	0.7513155	1	3.96049	10.93543	-7.730539E-006	9.111592E-006	10
	3	19	150421.9	3.915243	0.5755032	1	3.957314	8.362049	-2.336482E-005	0.0002052	10
	4	21	119484.4	3.926237	0.4257926	1	3.949257	6.189425	-1.630702E-006	0.0004234	10
	5	24	94921.88	3.953848	0.3144234	1	3.966331	4.546785	-4.036858E-006	0.0004932	10
	6	26	75421.88	3.981725	0.2009916	1	3.986795	2.889754	1.255129E-005	0.0005348	10
	7	29	59859.37	4.018926	0.0990262	1	4.020145	1.411481	-1.331187E-005	0.0006041	10
	8	31	47578.12	4.057258	0.0039545	1	4.05726	0.0558449	2.59619E-005	0.0005884	10
	9	34	37828.12	4.099256	-0.0889827	1	4.100221	-1.243526	2.238285E-005	0.0006091	10
	10	36	30046.88	4.139602	-0.1852835	1	4.143747	-2.562778	-1.904539E-005	0.0006449	10
	11	39	23859.38	4.179257	-0.2885402	1	4.189206	-3.949492	-1.81002E-005	0.0006515	10
	12	41	18984.38	4.215691	-0.402138	1	4.234828	-5.449002	-1.523478E-005	0.0006458	10
	13	43	15046.87	4.255235	-0.5350415	1	4.28874	-7.166603	-1.947115E-005	0.0007044	10
	14	46	11953.13	4.297534	-0.6904516	1	4.352646	-9.127271	-1.530116E-005	0.0006925	10
	15	48	9515.62	4.345821	-0.8749446	1	4.433022	-11.38319	2.130834E-005	0.0006569	10
	16	50	7546.875	4.403082	-1.102075	1	4.53891	-14.05222	1.212626E-005	0.0006505	10
	17	52	5928.309	4.465926	-1.393352	1	4.67824	-17.32772	-3.400588E-006	0.000663	10
	18	55	4733.456	4.53281	-1.727044	1	4.850675	-20.85732	-2.105461E-005	0.0006921	10
	19	57	3796.875	4.614605	-2.125793	1	5.080706	-24.73393	-2.595973E-005	0.0006774	10
	20	59	2987.132	4.714568	-2.660388	1	5.413392	-29.43564	-2.479108E-005	0.0007331	10
	21	62	2390.625	4.825303	-3.275981	1	5.83229	-34.17326	2.773669E-005	0.0006617	10
	22	64	1884.191	4.961317	-4.086024	1	6.427305	-39.47407	-2.547772E-005	0.0006992	10
	23	66	1516.544	5.112494	-4.996687	1	7.14874	-44.34367	4.126094E-006	0.0006515	10
	24	69	1193.986	5.305738	-6.237561	1	8.188896	-49.61515	-2.125594E-005	0.000695	10
	25	71	946.5144	5.542266	-7.723175	1	9.50601	-54.33621	2.113246E-005	0.0006521	10
	26	73	751.7689	5.821356	-9.55933	1	11.19236	-58.6598	-2.573053E-005	0.0007416	10
	27	76	597.4265	6.176491	-11.80938	1	13.32706	-62.38972	1.905361E-005	0.0006603	10
	28	78	477.4305	6.609872	-14.50619	1	15.94114	-65.5032	-2.787282E-006	0.0006834	10
	29	80	376.6741	7.173745	-18.01207	1	19.38807	-68.28387	-2.294299E-006	0.0006749	10
	30	83	298.2954	7.867435	-22.2669	1	23.61592	-70.54045	-2.823823E-006	0.0006914	10
	31	85	237.7717	8.690976	-27.34843	1	28.69617	-72.37042	-2.149761E-006	0.0007269	10
	32	87	189.0121	9.70125	-33.64918	1	35.01973	-73.91742	-1.542678E-006	0.0006834	10
	33	90	150.2404	10.88893	-41.33458	1	42.74479	-75.24165	1.837833E-006	7.970598E-005	9
	34	92	119.1737	12.31925	-50.93741	1	52.40595	-76.40405	2.023528E-006	8.248567E-005	9
	35	95	95.0169	13.96386	-62.50408	1	64.04491	-77.40651	1.955407E-006	8.527566E-005	9
	36	97	75.60484	15.91198	-76.89841	1	78.52742	-78.30923	1.885394E-006	8.490764E-005	9
	37	100	54.50582	19.30268	-103.5774	1	105.3607	-79.44346	1.747083E-006	8.028842E-005	9
	38	102	45.95588	21.45138	-121.1358	1	123.0205	-79.95786	2.034757E-006	8.162642E-005	9
	39	104	37.20238	24.52177	-147.113	1	149.1427	-80.53656	2.009662E-006	8.549348E-005	9
	40	107	30.04808	28.2403	-179.3223	1	181.5324	-81.05037	1.953254E-006	7.964072E-005	9
	41	109	23.91582	33.03845	-221.6117	1	224.0609	-81.52065	1.918127E-006	7.27283E-005	9
	42	112	18.60119	39.4469	-279.8369	1	282.6035	-81.97623	2.004681E-006	8.311044E-005	9
	43	114	15.02404	46.26406	-341.4484	1	344.5684	-82.28378	2.102536E-006	7.9647E-005	9
	44	116	12.01923	55.23561	-420.4417	1	424.0545	-82.51562	1.978821E-006	8.17956E-005	9
	45	119	9.450605	67.20119	-524.0075	1	528.299	-82.69201	4.501871E-007	0.000673	8
	46	121	7.512019	82.32001	-648.7235	1	653.9257	-82.76808	4.456568E-007	0.0006482	8
	47	124	5.978954	101.0504	-800.4431	1	806.7963	-82.80487	4.878165E-007	0.0006631	8
	48	127	4.734848	125.4189	-991.303	1	999.205	-82.78929	4.66251E-007	0.0006355	8
	49	130	3.75601	157.5386	-1224.926	1	1235.015	-82.67138	5.371231E-007	0.0006751	8
	50	134	3.004808	197.6084	-1502.498	1	1515.437	-82.50747	4.739403E-007	0.000681	8
	51	137	2.372217	254.623	-1864.593	1	1881.898	-82.22397	4.55354E-007	0.0006746	8
	52	141	1.878005	330.4098	-2313.53	1	2337.005	-81.87219	4.982794E-007	0.0006368	8
	53	146	1.512097	418.6612	-2823.335	1	2854.207	-81.5653	4.81768E-007	0.0007585	8
	54	152	1.201923	542.2098	-3487.365	1	3529.264	-81.16251	4.968626E-007	0.0006319	8
	55	158	0.956633	697.2445	-4293.282	1	4349.531	-80.7755	4.619047E-007	2.10048E-005	8
