EXPLAIN
TAG	EISPOT
TITLE	LABEL	Potentiostatic EIS	Test Identifier
DATE	LABEL	8/5/2020	Date
TIME	LABEL	20:41:09	Time
NOTES	NOTES	1	Notes...
	
PSTAT	PSTAT	REF3000-16137	Potentiostat
VDC	POTEN	0.00000E+000	T	DC Voltage (V)
FREQINIT	QUANT	3.00000E+005	Initial Freq. (Hz)
FREQFINAL	QUANT	1.00000E+000	Final Freq. (Hz)
PTSPERDEC	QUANT	1.00000E+001	Points/decade
VAC	QUANT	5.00000E+001	AC Voltage (mV rms)
AREA	QUANT	1.00000E+000	Sample Area (cm^2)
SPEED	SELECTOR	2	Optimize for:
ZGUESS	QUANT	1.00000E+003	Estimated Z (ohms)
EOC	QUANT	0	Open Circuit (V)
SEQUENCER	TOGGLE	TRUE	Run as Sequence
PSTATMODEL	IQUANT	5	Pstat Model
PSTATSECTION	LABEL	REF3000-16137	Pstat Section
PSTATSERIALNO	LABEL	16137	Pstat Serial Number
CTRLMODE	IQUANT	1	Control Mode
IESTAB	IQUANT	0	I/E Stability
CASPEED	IQUANT	1	Control Amp Speed
CONVENTION	IQUANT	1	Current Convention
ICHRANGE	IQUANT	2	Ich Range
ICHRANGEMODE	TOGGLE	F	Ich Auto Range
ICHOFFSETENABLE	TOGGLE	T	Ich Offset Enable
ICHOFFSET	QUANT	0	Ich Offset (V)
ICHFILTER	IQUANT	3	Ich Filter
VCHRANGE	IQUANT	2	Vch Range
VCHRANGEMODE	TOGGLE	F	Vch Auto Range
VCHOFFSETENABLE	TOGGLE	T	Vch Offset Enable
VCHOFFSET	QUANT	0	Vch Offset (V)
VCHFILTER	IQUANT	3	Vch Filter
ACHRANGE	IQUANT	2	Ach Range
ACHOFFSETENABLE	TOGGLE	F	Ach Offset Enable
ACHOFFSET	QUANT	0	Ach Offset (V)
ACHFILTER	IQUANT	3	Ach Filter
IERANGELOWERLIMIT	IQUANT	2	I/E Range Lower Limit
IERANGEMODE	TOGGLE	F	I/E AutoRange
IERANGE	IQUANT	11	I/E Range
POSFEEDENABLE	TOGGLE	F	Positive Feedback IR Comp
POSFEEDRESISTANCE	QUANT	0	Positive Feedback Resistance (ohm)
ACHSELECT	IQUANT	0	Ach Select
CABLEID	IQUANT	13	Cable ID
DCCALDATE	LABEL	7/31/2020	DC Calibration Date
ACCALDATE	LABEL	7/31/2020	AC Calibration Date
THERMOSELECT	IQUANT	1	Thermo Select
FRAMEWORKVERSION	QUANT	6.33	Framework Version
INSTRUMENTVERSION	LABEL	3.50	Instrument Version
COMPLIANCEVOLTAGE	IQUANT	0	Compliance Voltage
ZCURVE	TABLE
	Pt	Time	Freq	Zreal	Zimag	Zsig	Zmod	Zphz	Idc	Vdc	IERange
	#	s	Hz	ohm	ohm	V	ohm	°	A	V	#
	0	9	300046.9	2.977999	0.878852	1	3.104973	16.44212	-0.0002281	0.000714	12
	1	13	238359.4	2.884173	0.9449313	1	3.035021	18.14016	-1.765875E-005	-6.155229E-005	11
	2	16	189328.1	2.878942	0.7321042	1	2.97057	14.26769	0.0000998	0.0001511	11
	3	19	150421.9	2.876906	0.5640017	1	2.931669	11.09186	1.108635E-005	0.0004205	11
	4	21	119484.4	2.884485	0.4184783	1	2.914683	8.254822	-0.0001268	0.0004285	11
	5	24	94921.88	2.889876	0.2964574	1	2.905042	5.857189	1.273166E-005	0.0005671	11
	6	26	75421.88	2.899365	0.1904884	1	2.905616	3.758934	1.60724E-005	0.0006159	11
	7	29	59859.37	2.909889	0.0947515	1	2.911431	1.865001	-4.63953E-005	0.0005912	11
	8	31	47578.12	2.922255	0.0058326	1	2.92226	0.1143572	-4.717171E-005	0.0006709	11
	9	34	37828.12	2.935648	-0.0813552	1	2.936775	-1.587424	-1.78182E-005	0.0006532	11
	10	36	30046.88	2.951516	-0.171044	1	2.956468	-3.316651	-3.179485E-005	0.0006815	11
	11	39	23859.38	2.968149	-0.2681006	1	2.980233	-5.161285	-3.857276E-005	0.0006979	11
	12	41	18984.38	2.986552	-0.3752399	1	3.010033	-7.161299	2.889589E-005	0.0007289	11
	13	44	15046.87	3.008014	-0.5010926	1	3.049466	-9.457816	-2.596213E-005	0.000673	11
	14	46	11953.13	3.032065	-0.6478903	1	3.100513	-12.06155	-1.429666E-005	0.0006773	11
	15	48	9515.62	3.061344	-0.8220469	1	3.169793	-15.03077	-2.372332E-005	0.0007045	11
	16	50	7546.875	3.095383	-1.036891	1	3.264436	-18.5198	-2.855249E-005	0.0007071	11
	17	53	5928.309	3.136131	-1.311563	1	3.399341	-22.69519	-6.959751E-006	0.0007069	11
	18	55	4733.456	3.183149	-1.626079	1	3.574433	-27.05976	2.259101E-005	0.0007262	11
	19	57	3796.875	3.241291	-2.003978	1	3.810761	-31.72706	-9.833655E-006	0.0006761	10
	20	60	2987.132	3.313874	-2.509943	1	4.157112	-37.14045	-2.141313E-006	0.0006627	10
	21	62	2390.625	3.396217	-3.091776	1	4.592752	-42.31344	1.994284E-005	0.0006765	10
	22	64	1884.191	3.506824	-3.856948	1	5.212856	-47.72218	-1.097032E-005	0.0006724	10
	23	67	1516.544	3.631016	-4.718818	1	5.954118	-52.42259	-2.622143E-005	0.0006922	10
	24	69	1193.986	3.80499	-5.886607	1	7.009285	-57.12215	-1.648493E-006	0.0006614	10
	25	72	946.5144	4.020593	-7.292689	1	8.327573	-61.13125	1.414947E-005	0.0006585	10
	26	74	751.7689	4.284042	-9.016396	1	9.9824	-64.58578	2.118155E-005	0.0006677	10
	27	76	597.4265	4.624954	-11.12414	1	12.04727	-67.42449	-3.344585E-006	0.0006602	10
	28	78	477.4305	5.032088	-13.63534	1	14.53425	-69.74355	-1.331676E-006	0.0006848	10
	29	81	376.6741	5.565046	-16.89519	1	17.78812	-71.76881	-9.532413E-007	0.0006788	10
	30	83	298.2954	6.205066	-20.84744	1	21.75129	-73.4248	-1.324822E-006	0.0006837	10
	31	85	237.7717	6.948493	-25.56068	1	26.4883	-74.79205	-1.237025E-006	0.0006744	10
	32	88	189.0121	7.837351	-31.42283	1	32.38546	-75.99526	-1.813838E-006	0.0006811	10
	33	90	150.2404	8.87907	-38.63963	1	39.64668	-77.05856	-7.72825E-007	0.0006755	10
	34	93	119.1737	10.09683	-47.59187	1	48.65112	-78.02203	2.112197E-006	8.378446E-005	9
	35	95	95.0169	11.50797	-58.4671	1	59.58888	-78.86491	1.974715E-006	8.51474E-005	9
	36	98	75.60484	13.19111	-72.05058	1	73.24815	-79.62511	1.885553E-006	8.139994E-005	9
	37	100	54.50582	16.15811	-97.3254	1	98.6576	-80.57365	1.833017E-006	7.417532E-005	9
	38	103	45.95588	18.08023	-114.0134	1	115.438	-80.98907	2.03163E-006	8.493856E-005	9
	39	105	37.20238	20.85715	-138.6813	1	140.241	-81.44703	1.964937E-006	7.370652E-005	9
	40	107	30.04808	24.35591	-169.3727	1	171.115	-81.81693	1.869927E-006	8.034368E-005	9
	41	110	23.91582	28.88299	-209.3041	1	211.2876	-82.14307	1.774857E-006	7.505609E-005	9
	42	112	18.60119	35.47866	-264.9995	1	267.364	-82.37447	1.907034E-006	9.150901E-005	9
	43	114	15.02404	42.49548	-323.8329	1	326.6092	-82.52399	2.151959E-006	9.166494E-005	9
	44	117	12.01923	52.01647	-398.9757	1	402.3522	-82.57196	2.010655E-006	8.554547E-005	9
	45	119	9.450605	65.06975	-497.6237	1	501.86	-82.55022	4.769036E-007	0.0006587	8
	46	122	7.512019	81.72765	-617.0042	1	622.3934	-82.45459	5.372187E-007	0.0006564	8
	47	124	5.978954	103.371	-762.8762	1	769.8478	-82.28333	5.548172E-007	0.0006581	8
	48	127	4.734848	133.4007	-947.956	1	957.296	-81.98968	5.218885E-007	0.000682	8
	49	131	3.75601	172.2009	-1174.008	1	1186.57	-81.65549	5.135E-007	0.0006508	8
	50	134	3.004808	221.2912	-1440.389	1	1457.289	-81.26577	5.329081E-007	0.00068	8
	51	138	2.372217	292.805	-1787.272	1	1811.099	-80.69601	4.968783E-007	0.000724	8
	52	142	1.878005	381.3985	-2211.575	1	2244.221	-80.21527	4.482739E-007	0.000648	8
	53	147	1.512097	487.3799	-2681.68	1	2725.61	-79.69926	4.973789E-007	0.00064	8
	54	152	1.201923	639.7712	-3301.262	1	3362.684	-79.03226	4.797108E-007	0.0006365	8
	55	158	0.956633	831.253	-4039.05	1	4123.701	-78.37067	4.782015E-007	2.102946E-005	8
