EXPLAIN
TAG	EISPOT
TITLE	LABEL	Potentiostatic EIS	Test Identifier
DATE	LABEL	8/5/2020	Date
TIME	LABEL	20:32:33	Time
NOTES	NOTES	1	Notes...
	
PSTAT	PSTAT	REF3000-16137	Potentiostat
VDC	POTEN	0.00000E+000	T	DC Voltage (V)
FREQINIT	QUANT	3.00000E+005	Initial Freq. (Hz)
FREQFINAL	QUANT	1.00000E+000	Final Freq. (Hz)
PTSPERDEC	QUANT	1.00000E+001	Points/decade
VAC	QUANT	5.00000E+001	AC Voltage (mV rms)
AREA	QUANT	1.00000E+000	Sample Area (cm^2)
SPEED	SELECTOR	2	Optimize for:
ZGUESS	QUANT	1.00000E+003	Estimated Z (ohms)
EOC	QUANT	0	Open Circuit (V)
SEQUENCER	TOGGLE	TRUE	Run as Sequence
PSTATMODEL	IQUANT	5	Pstat Model
PSTATSECTION	LABEL	REF3000-16137	Pstat Section
PSTATSERIALNO	LABEL	16137	Pstat Serial Number
CTRLMODE	IQUANT	1	Control Mode
IESTAB	IQUANT	0	I/E Stability
CASPEED	IQUANT	1	Control Amp Speed
CONVENTION	IQUANT	1	Current Convention
ICHRANGE	IQUANT	2	Ich Range
ICHRANGEMODE	TOGGLE	F	Ich Auto Range
ICHOFFSETENABLE	TOGGLE	T	Ich Offset Enable
ICHOFFSET	QUANT	0	Ich Offset (V)
ICHFILTER	IQUANT	3	Ich Filter
VCHRANGE	IQUANT	2	Vch Range
VCHRANGEMODE	TOGGLE	F	Vch Auto Range
VCHOFFSETENABLE	TOGGLE	T	Vch Offset Enable
VCHOFFSET	QUANT	0	Vch Offset (V)
VCHFILTER	IQUANT	3	Vch Filter
ACHRANGE	IQUANT	2	Ach Range
ACHOFFSETENABLE	TOGGLE	F	Ach Offset Enable
ACHOFFSET	QUANT	0	Ach Offset (V)
ACHFILTER	IQUANT	3	Ach Filter
IERANGELOWERLIMIT	IQUANT	2	I/E Range Lower Limit
IERANGEMODE	TOGGLE	F	I/E AutoRange
IERANGE	IQUANT	11	I/E Range
POSFEEDENABLE	TOGGLE	F	Positive Feedback IR Comp
POSFEEDRESISTANCE	QUANT	0	Positive Feedback Resistance (ohm)
ACHSELECT	IQUANT	0	Ach Select
CABLEID	IQUANT	13	Cable ID
DCCALDATE	LABEL	7/31/2020	DC Calibration Date
ACCALDATE	LABEL	7/31/2020	AC Calibration Date
THERMOSELECT	IQUANT	1	Thermo Select
FRAMEWORKVERSION	QUANT	6.33	Framework Version
INSTRUMENTVERSION	LABEL	3.50	Instrument Version
COMPLIANCEVOLTAGE	IQUANT	0	Compliance Voltage
ZCURVE	TABLE
	Pt	Time	Freq	Zreal	Zimag	Zsig	Zmod	Zphz	Idc	Vdc	IERange
	#	s	Hz	ohm	ohm	V	ohm	°	A	V	#
	0	10	300046.9	2.1702	0.989352	1	2.385075	24.50732	-4.089901E-005	0.0009833	12
	1	14	238359.4	2.113902	0.7845435	1	2.254793	20.36167	4.94712E-005	-0.0003564	12
	2	18	189328.1	2.038162	0.7562389	1	2.173936	20.35685	-3.193632E-005	1.148186E-005	11
	3	21	150421.9	2.036067	0.5857264	1	2.118642	16.04923	-0.0001166	0.0002116	11
	4	23	119484.4	2.029175	0.4392336	1	2.076169	12.21377	-2.196582E-005	0.0004	11
	5	26	94921.88	2.027117	0.3206043	1	2.052313	8.987331	-5.090726E-005	0.000475	11
	6	28	75421.88	2.028827	0.2166617	1	2.040363	6.095605	-1.438272E-005	0.0005521	11
	7	31	59859.37	2.031476	0.1245035	1	2.035288	3.507111	3.480048E-005	0.00062	11
	8	33	47578.12	2.035382	0.040893	1	2.035792	1.15098	-8.685363E-005	0.0006487	11
	9	36	37828.12	2.040893	-0.039762	1	2.041281	-1.116131	3.167569E-005	0.0006808	11
	10	38	30046.88	2.047665	-0.1212554	1	2.051252	-3.388894	2.397323E-005	0.0006977	11
	11	41	23859.38	2.055383	-0.2075057	1	2.065831	-5.764889	1.07906E-005	0.0006747	11
	12	43	18984.38	2.065259	-0.3016358	1	2.08717	-8.309429	3.08358E-005	0.0007146	11
	13	46	15046.87	2.077767	-0.4114837	1	2.118121	-11.20198	2.833585E-005	0.000727	11
	14	48	11953.13	2.091882	-0.5381057	1	2.159983	-14.42574	2.433606E-005	0.0007135	11
	15	50	9515.62	2.110243	-0.6883618	1	2.219677	-18.06634	-4.474173E-006	0.0007165	11
	16	52	7546.875	2.132253	-0.8720791	1	2.303699	-22.24427	6.790454E-006	0.0006852	11
	17	55	5928.309	2.161425	-1.107246	1	2.428529	-27.12498	-2.623812E-005	0.0006861	11
	18	57	4733.456	2.195731	-1.376179	1	2.591352	-32.07752	2.31628E-005	0.0007135	11
	19	59	3796.875	2.23734	-1.699107	1	2.809387	-37.21419	6.094623E-006	0.0007041	11
	20	62	2987.132	2.295614	-2.129872	1	3.131485	-42.85518	-2.56918E-005	0.0006885	11
	21	64	2390.625	2.365074	-2.622621	1	3.531532	-47.95592	-9.839235E-006	0.0006878	11
	22	66	1884.191	2.462964	-3.275554	1	4.098225	-53.05966	-2.310526E-005	0.000686	10
	23	69	1516.544	2.574437	-4.000985	1	4.757689	-57.24071	-5.591005E-006	0.0006847	10
	24	71	1193.986	2.730214	-4.978067	1	5.677607	-61.25749	2.304439E-005	0.0006629	10
	25	73	946.5144	2.916991	-6.148532	1	6.805386	-64.61937	-3.120774E-005	0.000674	10
	26	76	751.7689	3.146764	-7.56571	1	8.194027	-67.41638	7.235694E-006	0.0006712	10
	27	78	597.4265	3.42149	-9.297268	1	9.90686	-69.79587	-2.248279E-005	0.0007305	10
	28	80	477.4305	3.735116	-11.36957	1	11.96738	-71.81368	-2.003463E-006	0.0006868	10
	29	83	376.6741	4.123087	-14.06985	1	14.66153	-73.66708	-1.254404E-006	0.0006828	10
	30	85	298.2954	4.57068	-17.37066	1	17.96193	-75.25813	-1.029631E-006	0.0006808	10
	31	87	237.7717	5.083088	-21.34278	1	21.93973	-76.60375	-5.086619E-006	0.0007254	10
	32	90	189.0121	5.696863	-26.32845	1	26.93774	-77.79075	-1.274698E-006	0.0006852	10
	33	92	150.2404	6.437835	-32.52345	1	33.1545	-78.80336	-1.092647E-006	0.0006816	10
	34	95	119.1737	7.358719	-40.29917	1	40.96552	-79.65167	-1.140472E-006	0.00068	10
	35	97	95.0169	8.476013	-49.68027	1	50.39814	-80.31792	1.772722E-006	7.852924E-005	9
	36	99	75.60484	9.92188	-61.47984	1	62.27531	-80.83241	1.628777E-006	7.757952E-005	9
	37	102	54.50582	12.75395	-83.42587	1	84.39514	-81.30806	1.570245E-006	7.682182E-005	9
	38	104	45.95588	14.72738	-97.8669	1	98.9688	-81.44213	1.949374E-006	7.876717E-005	9
	39	107	37.20238	17.81441	-119.1687	1	120.4929	-81.49787	1.876762E-006	7.029869E-005	9
	40	109	30.04808	21.87035	-145.4417	1	147.0768	-81.44839	1.799554E-006	6.754469E-005	9
	41	112	23.91582	27.60837	-179.644	1	181.7531	-81.26292	1.750327E-006	7.002499E-005	9
	42	115	18.60119	36.1271	-226.5103	1	229.3733	-80.93798	2.013274E-006	7.678256E-005	9
	43	117	15.02404	45.89556	-275.3912	1	279.1894	-80.53828	1.875396E-006	6.956918E-005	9
	44	119	12.01923	59.41751	-337.3449	1	342.5376	-80.01079	1.900039E-006	7.576702E-005	9
	45	122	9.450605	78.99174	-418.7013	1	426.0874	-79.31621	1.973E-006	8.483915E-005	9
	46	124	7.512019	103.1013	-510.4192	1	520.728	-78.58029	5.699493E-007	0.0006749	8
	47	127	5.978954	134.9508	-622.7736	1	637.2274	-77.77343	5.2288E-007	0.0006616	8
	48	130	4.734848	176.9886	-760.9026	1	781.2156	-76.90565	5.973815E-007	0.0006906	8
	49	133	3.75601	230.7785	-926.1481	1	954.468	-76.00793	4.891146E-007	0.0006544	8
	50	137	3.004808	296.2348	-1115.98	1	1154.628	-75.13378	4.920184E-007	0.0006825	8
	51	141	2.372217	386.4435	-1358.058	1	1411.971	-74.11599	4.37992E-007	0.0007873	8
	52	145	1.878005	498.0179	-1647.014	1	1720.662	-73.17593	4.322992E-007	0.0006307	8
	53	149	1.512097	630.947	-1961.483	1	2060.463	-72.16866	4.924922E-007	0.0006728	8
	54	155	1.201923	816.8502	-2368.783	1	2505.669	-70.97378	4.639964E-007	0.000628	8
	55	161	0.956633	1057.937	-2842.383	1	3032.882	-69.58469	4.169905E-007	1.897377E-005	8
