EXPLAIN
TAG	EISPOT
TITLE	LABEL	Potentiostatic EIS	Test Identifier
DATE	LABEL	8/5/2020	Date
TIME	LABEL	20:46:44	Time
NOTES	NOTES	1	Notes...
	
PSTAT	PSTAT	REF3000-16137	Potentiostat
VDC	POTEN	0.00000E+000	T	DC Voltage (V)
FREQINIT	QUANT	3.00000E+005	Initial Freq. (Hz)
FREQFINAL	QUANT	1.00000E+000	Final Freq. (Hz)
PTSPERDEC	QUANT	1.00000E+001	Points/decade
VAC	QUANT	5.00000E+001	AC Voltage (mV rms)
AREA	QUANT	1.00000E+000	Sample Area (cm^2)
SPEED	SELECTOR	2	Optimize for:
ZGUESS	QUANT	1.00000E+003	Estimated Z (ohms)
EOC	QUANT	0	Open Circuit (V)
SEQUENCER	TOGGLE	TRUE	Run as Sequence
PSTATMODEL	IQUANT	5	Pstat Model
PSTATSECTION	LABEL	REF3000-16137	Pstat Section
PSTATSERIALNO	LABEL	16137	Pstat Serial Number
CTRLMODE	IQUANT	1	Control Mode
IESTAB	IQUANT	0	I/E Stability
CASPEED	IQUANT	1	Control Amp Speed
CONVENTION	IQUANT	1	Current Convention
ICHRANGE	IQUANT	2	Ich Range
ICHRANGEMODE	TOGGLE	F	Ich Auto Range
ICHOFFSETENABLE	TOGGLE	T	Ich Offset Enable
ICHOFFSET	QUANT	0	Ich Offset (V)
ICHFILTER	IQUANT	3	Ich Filter
VCHRANGE	IQUANT	2	Vch Range
VCHRANGEMODE	TOGGLE	F	Vch Auto Range
VCHOFFSETENABLE	TOGGLE	T	Vch Offset Enable
VCHOFFSET	QUANT	0	Vch Offset (V)
VCHFILTER	IQUANT	3	Vch Filter
ACHRANGE	IQUANT	2	Ach Range
ACHOFFSETENABLE	TOGGLE	F	Ach Offset Enable
ACHOFFSET	QUANT	0	Ach Offset (V)
ACHFILTER	IQUANT	3	Ach Filter
IERANGELOWERLIMIT	IQUANT	2	I/E Range Lower Limit
IERANGEMODE	TOGGLE	F	I/E AutoRange
IERANGE	IQUANT	11	I/E Range
POSFEEDENABLE	TOGGLE	F	Positive Feedback IR Comp
POSFEEDRESISTANCE	QUANT	0	Positive Feedback Resistance (ohm)
ACHSELECT	IQUANT	0	Ach Select
CABLEID	IQUANT	13	Cable ID
DCCALDATE	LABEL	7/31/2020	DC Calibration Date
ACCALDATE	LABEL	7/31/2020	AC Calibration Date
THERMOSELECT	IQUANT	1	Thermo Select
FRAMEWORKVERSION	QUANT	6.33	Framework Version
INSTRUMENTVERSION	LABEL	3.50	Instrument Version
COMPLIANCEVOLTAGE	IQUANT	0	Compliance Voltage
ZCURVE	TABLE
	Pt	Time	Freq	Zreal	Zimag	Zsig	Zmod	Zphz	Idc	Vdc	IERange
	#	s	Hz	ohm	ohm	V	ohm	°	A	V	#
	0	10	300046.9	6.224839	1.188142	1	6.337216	10.80613	9.452368E-006	0.0001874	10
	1	13	238359.4	6.267774	0.9350592	1	6.337138	8.485105	1.199724E-005	-4.678905E-005	10
	2	17	189328.1	6.322852	0.7223727	1	6.363983	6.517664	-5.333042E-006	0.000297	10
	3	19	150421.9	6.369609	0.5392946	1	6.392399	4.83951	-2.612097E-005	0.00039	10
	4	22	119484.4	6.434984	0.3961345	1	6.447165	3.522655	-1.073607E-005	0.0004273	10
	5	24	94921.88	6.497653	0.2922612	1	6.504223	2.5754	-1.671281E-005	0.0005603	10
	6	27	75421.88	6.555561	0.1719235	1	6.557815	1.502272	-3.831814E-006	0.000556	10
	7	29	59859.37	6.617445	0.0615036	1	6.61773	0.5325013	-3.222564E-005	0.0006107	10
	8	32	47578.12	6.685381	-0.0432175	1	6.685521	-0.3703822	2.286677E-005	0.0006044	10
	9	34	37828.12	6.756515	-0.1450364	1	6.758071	-1.229731	1.276602E-005	0.0006126	10
	10	37	30046.88	6.829322	-0.2503116	1	6.833908	-2.099093	-2.664012E-006	0.0006441	10
	11	39	23859.38	6.904452	-0.3647195	1	6.914079	-3.023772	-2.410063E-006	0.0006548	10
	12	41	18984.38	6.980688	-0.4928226	1	6.998062	-4.038267	-2.219944E-007	0.0007071	10
	13	44	15046.87	7.061491	-0.6439591	1	7.090793	-5.210567	-9.914169E-006	0.000717	10
	14	46	11953.13	7.150125	-0.8212752	1	7.197137	-6.552373	2.114429E-005	0.0006448	10
	15	48	9515.62	7.246202	-1.030508	1	7.319112	-8.093961	2.302531E-005	0.0006451	10
	16	51	7546.875	7.354447	-1.286727	1	7.466161	-9.92397	-1.724091E-005	0.000692	10
	17	53	5928.309	7.4781	-1.61284	1	7.650048	-12.17085	4.159665E-006	0.0006468	10
	18	55	4733.456	7.613513	-1.982383	1	7.867364	-14.59444	1.20098E-005	0.0006384	10
	19	58	3796.875	7.764533	-2.417955	1	8.132311	-17.29713	2.318935E-005	0.0006398	10
	20	60	2987.132	7.944471	-2.996549	1	8.490814	-20.66581	2.213318E-005	0.0006439	10
	21	62	2390.625	8.140477	-3.651555	1	8.921951	-24.15946	1.526968E-005	0.0006899	10
	22	65	1884.191	8.370624	-4.503037	1	9.50498	-28.27835	-2.43701E-005	0.0006886	10
	23	67	1516.544	8.613825	-5.452608	1	10.19455	-32.33408	-1.720822E-005	0.0006754	10
	24	69	1193.986	8.91441	-6.736027	1	11.17322	-37.07592	-2.468981E-005	0.0006871	10
	25	72	946.5144	9.252844	-8.275479	1	12.41365	-41.80854	-2.386478E-005	0.0007185	10
	26	74	751.7689	9.62947	-10.16904	1	14.00486	-46.56111	-2.675821E-005	0.0007001	10
	27	76	597.4265	10.0781	-12.49677	1	16.0542	-51.11534	-1.788243E-005	0.0006744	10
	28	79	477.4305	10.59664	-15.29949	1	18.61084	-55.29299	-1.709268E-006	0.0006851	10
	29	81	376.6741	11.25379	-18.95372	1	22.04294	-59.30024	-1.889876E-006	0.0006785	10
	30	83	298.2954	12.0444	-23.40827	1	26.32517	-62.77254	-1.79353E-006	0.0006809	10
	31	85	237.7717	12.98985	-28.7407	1	31.53988	-65.6786	-1.744042E-006	0.000685	10
	32	88	189.0121	14.15326	-35.35922	1	38.08661	-68.18522	-1.536145E-006	0.000684	10
	33	90	150.2404	15.54181	-43.43496	1	46.13181	-70.31188	1.940162E-006	8.288275E-005	9
	34	93	119.1737	17.24956	-53.50044	1	56.21249	-72.12968	1.95986E-006	8.383328E-005	9
	35	95	95.0169	19.24678	-65.58648	1	68.35221	-73.64533	1.956584E-006	7.846795E-005	9
	36	98	75.60484	21.63821	-80.56345	1	83.41871	-74.96597	1.836101E-006	8.135251E-005	9
	37	100	54.50582	25.79177	-108.169	1	111.2013	-76.58883	1.784487E-006	8.015154E-005	9
	38	103	45.95588	28.4538	-126.258	1	129.4245	-77.29986	1.924922E-006	8.797015E-005	9
	39	105	37.20238	32.20815	-152.9384	1	156.2931	-78.10754	1.979683E-006	7.799352E-005	9
	40	107	30.04808	36.64428	-185.7527	1	189.3327	-78.8403	2.000905E-006	7.781813E-005	9
	41	110	23.91582	42.28958	-228.8983	1	232.7721	-79.53249	1.98609E-006	7.719675E-005	9
	42	112	18.60119	49.77643	-288.0999	1	292.3683	-80.1975	2.030852E-006	7.873564E-005	9
	43	114	15.02404	57.46824	-350.7695	1	355.446	-80.69562	2.032659E-006	7.023339E-005	9
	44	117	12.01923	66.82269	-429.2086	1	434.3792	-81.15077	4.661298E-007	0.0006585	8
	45	119	9.450605	79.43601	-536.3886	1	542.2387	-81.57606	4.792873E-007	0.0006579	8
	46	122	7.512019	94.52699	-663.6779	1	670.3758	-81.89394	4.925282E-007	0.0006799	8
	47	124	5.978954	112.9267	-820.6902	1	828.4231	-82.16532	4.601289E-007	0.0006622	8
	48	127	4.734848	136.2068	-1020.722	1	1029.77	-82.39926	4.970539E-007	0.0006853	8
	49	131	3.75601	166.0316	-1266.829	1	1277.663	-82.53333	4.237857E-007	0.0006574	8
	50	134	3.004808	201.964	-1559.69	1	1572.712	-82.62183	4.829955E-007	0.0006197	8
	51	138	2.372217	249.5562	-1945.152	1	1961.095	-82.68909	4.684574E-007	0.0005908	8
	52	142	1.878005	312.375	-2419.31	1	2439.393	-82.64282	4.6387E-007	0.0006685	8
	53	147	1.512097	388.3458	-2958.168	1	2983.55	-82.52103	4.400687E-007	0.0005815	8
	54	152	1.201923	482.5526	-3672.758	1	3704.323	-82.51495	4.626989E-007	0.0006851	8
	55	158	0.956633	608.5147	-4554.183	1	4594.657	-82.3894	4.236226E-008	-7.771634E-006	7
