EXPLAIN
TAG	EISPOT
TITLE	LABEL	Potentiostatic EIS	Test Identifier
DATE	LABEL	8/5/2020	Date
TIME	LABEL	21:00:53	Time
NOTES	NOTES	1	Notes...
	
PSTAT	PSTAT	REF3000-16137	Potentiostat
VDC	POTEN	0.00000E+000	T	DC Voltage (V)
FREQINIT	QUANT	3.00000E+005	Initial Freq. (Hz)
FREQFINAL	QUANT	1.00000E+000	Final Freq. (Hz)
PTSPERDEC	QUANT	1.00000E+001	Points/decade
VAC	QUANT	5.00000E+001	AC Voltage (mV rms)
AREA	QUANT	1.00000E+000	Sample Area (cm^2)
SPEED	SELECTOR	2	Optimize for:
ZGUESS	QUANT	1.00000E+003	Estimated Z (ohms)
EOC	QUANT	0	Open Circuit (V)
SEQUENCER	TOGGLE	TRUE	Run as Sequence
PSTATMODEL	IQUANT	5	Pstat Model
PSTATSECTION	LABEL	REF3000-16137	Pstat Section
PSTATSERIALNO	LABEL	16137	Pstat Serial Number
CTRLMODE	IQUANT	1	Control Mode
IESTAB	IQUANT	0	I/E Stability
CASPEED	IQUANT	1	Control Amp Speed
CONVENTION	IQUANT	1	Current Convention
ICHRANGE	IQUANT	2	Ich Range
ICHRANGEMODE	TOGGLE	F	Ich Auto Range
ICHOFFSETENABLE	TOGGLE	T	Ich Offset Enable
ICHOFFSET	QUANT	0	Ich Offset (V)
ICHFILTER	IQUANT	3	Ich Filter
VCHRANGE	IQUANT	2	Vch Range
VCHRANGEMODE	TOGGLE	F	Vch Auto Range
VCHOFFSETENABLE	TOGGLE	T	Vch Offset Enable
VCHOFFSET	QUANT	0	Vch Offset (V)
VCHFILTER	IQUANT	3	Vch Filter
ACHRANGE	IQUANT	2	Ach Range
ACHOFFSETENABLE	TOGGLE	F	Ach Offset Enable
ACHOFFSET	QUANT	0	Ach Offset (V)
ACHFILTER	IQUANT	3	Ach Filter
IERANGELOWERLIMIT	IQUANT	2	I/E Range Lower Limit
IERANGEMODE	TOGGLE	F	I/E AutoRange
IERANGE	IQUANT	11	I/E Range
POSFEEDENABLE	TOGGLE	F	Positive Feedback IR Comp
POSFEEDRESISTANCE	QUANT	0	Positive Feedback Resistance (ohm)
ACHSELECT	IQUANT	0	Ach Select
CABLEID	IQUANT	13	Cable ID
DCCALDATE	LABEL	7/31/2020	DC Calibration Date
ACCALDATE	LABEL	7/31/2020	AC Calibration Date
THERMOSELECT	IQUANT	1	Thermo Select
FRAMEWORKVERSION	QUANT	6.33	Framework Version
INSTRUMENTVERSION	LABEL	3.50	Instrument Version
COMPLIANCEVOLTAGE	IQUANT	0	Compliance Voltage
ZCURVE	TABLE
	Pt	Time	Freq	Zreal	Zimag	Zsig	Zmod	Zphz	Idc	Vdc	IERange
	#	s	Hz	ohm	ohm	V	ohm	°	A	V	#
	0	18	300046.9	1324.212	-564.813	1	1439.636	-23.09959	-6.437673E-005	0.0005617	9
	1	34	238359.4	1635.237	-699.3411	1	1778.504	-23.15492	2.837583E-005	-0.0016555	9
	2	56	189328.1	1862.021	-713.7711	1	1994.14	-20.97339	2.676909E-005	-0.0015504	9
	3	62	150421.9	2076.244	-693.8084	1	2189.101	-18.47783	2.715883E-005	-0.001523	9
	4	69	119484.4	2300.026	-589.3245	1	2374.326	-14.37144	-8.370215E-005	0.0306305	8
	5	75	94921.88	2519.739	-553.5634	1	2579.828	-12.39052	-2.682886E-006	-0.0040433	8
	6	80	75421.88	2735.726	-523.153	1	2785.298	-10.82597	-2.395666E-005	0.0091676	8
	7	88	59859.37	2947.544	-499.0689	1	2989.496	-9.61	2.009592E-005	-0.0088172	8
	8	93	47578.12	3148.99	-453.1016	1	3181.421	-8.187971	2.489065E-005	-0.005214	8
	9	98	37828.12	3370.281	-411.4188	1	3395.299	-6.959808	-2.470308E-005	0.0075003	8
	10	104	30046.88	3635.446	-390.7924	1	3656.39	-6.135452	-5.013323E-007	0.0069155	8
	11	111	23859.38	3945.41	-91.40287	1	3946.468	-1.327128	5.801374E-006	-0.0125233	7
	12	115	18984.38	4081.277	-313.6289	1	4093.31	-4.394302	-2.494993E-005	0.0074992	8
	13	120	15046.87	4354.647	-287.1379	1	4364.104	-3.772523	-8.412603E-007	0.0070355	8
	14	125	11953.13	4567.544	-98.4529	1	4568.605	-1.234813	3.509621E-006	0.0020053	7
	15	129	9515.62	4732.005	-98.5625	1	4733.032	-1.193236	1.771228E-006	0.0094605	7
	16	132	7546.875	4929.348	-100.2841	1	4930.368	-1.165481	6.256516E-006	-0.0142861	7
	17	135	5928.309	5192.912	-190.0407	1	5196.388	-2.095871	2.094196E-005	-0.0092428	8
	18	141	4733.456	5525.335	-185.0693	1	5528.434	-1.918387	2.557975E-005	-0.0052626	8
	19	146	3796.875	5879.054	-183.8721	1	5881.929	-1.791388	9.369133E-006	0.0036644	8
	20	152	2987.132	6282.366	-143.0685	1	6283.995	-1.304573	1.50029E-005	-0.0088376	8
	21	157	2390.625	6877.975	-256.9112	1	6882.771	-2.13916	-2.371083E-005	0.0055516	8
	22	162	1884.191	6943.042	-130.9082	1	6944.276	-1.08016	-2.362326E-005	0.0108823	8
	23	168	1516.544	7645.375	-212.8987	1	7648.338	-1.595088	-2.376719E-005	0.0109379	8
	24	173	1193.986	8112.2	-212.7928	1	8114.991	-1.502593	2.605014E-005	-0.00532	8
	25	180	946.5144	8834.699	-180.6433	1	8836.546	-1.171365	-2.608821E-005	0.0097098	8
	26	184	751.7689	9608.53	-339.1412	1	9614.51	-2.021464	1.52709E-005	-0.0089591	8
	27	189	597.4265	9681.13	-418.6241	1	9690.18	-2.475997	-1.661111E-005	0.0010198	8
	28	194	477.4305	10213.42	-217.7653	1	10215.75	-1.221446	-3.724423E-007	0.0006684	8
	29	196	376.6741	10559.05	-212.9818	1	10561.2	-1.15553	-9.723829E-008	0.0006724	7
	30	199	298.2954	10888.78	-225.4749	1	10891.11	-1.186259	-8.503726E-008	0.0005838	7
	31	201	237.7717	11239.32	-238.2293	1	11241.84	-1.214263	-8.578305E-008	0.0006302	7
	32	203	189.0121	11605.64	-253.9775	1	11608.42	-1.253659	-9.693137E-008	0.0006756	7
	33	206	150.2404	11980.27	-274.9589	1	11983.42	-1.314764	-8.048935E-008	0.0006029	7
	34	208	119.1737	12352.66	-305.4281	1	12356.43	-1.41639	-1.015253E-007	0.0006797	7
	35	211	95.0169	12762.48	-331.3686	1	12766.78	-1.487309	-8.610563E-008	0.0005944	7
	36	213	75.60484	13192.89	-371.5764	1	13198.12	-1.613303	-9.601803E-008	0.0005864	7
	37	216	54.50582	13661.31	-447.8082	1	13668.65	-1.877443	-9.374472E-008	0.0006092	7
	38	218	45.95588	14099.68	-497.0163	1	14108.44	-2.018851	-1.206768E-007	0.0006836	7
	39	220	37.20238	14541.63	-579.6684	1	14553.17	-2.282756	-1.035967E-007	0.0006225	7
	40	223	30.04808	15031.39	-670.6017	1	15046.34	-2.554466	-1.133871E-007	0.0006782	7
	41	225	23.91582	15525.37	-798.9248	1	15545.91	-2.945804	-7.657671E-008	0.0005995	7
	42	228	18.60119	16054.77	-984.784	1	16084.95	-3.510069	-1.630002E-007	0.0006378	7
	43	230	15.02404	16559.95	-1144.314	1	16599.44	-3.952929	-1.169503E-007	0.0006832	7
	44	232	12.01923	17108.44	-1338.931	1	17160.76	-4.474926	-3.07388E-008	0.0006052	7
	45	235	9.450605	17734.84	-1635.405	1	17810.09	-5.268587	-2.554295E-008	0.0005869	7
	46	237	7.512019	18447.88	-2017.126	1	18557.83	-6.24004	-5.779839E-008	0.0006953	7
	47	240	5.978954	19270.73	-2410.894	1	19420.96	-7.131025	-7.820634E-008	0.0006772	7
	48	243	4.734848	20218.8	-2947.826	1	20432.56	-8.295069	-4.617645E-008	0.0006153	7
	49	246	3.75601	21318.65	-3572.248	1	21615.87	-9.51236	-1.341803E-007	0.0006621	7
	50	249	3.004808	22501.99	-4258.976	1	22901.49	-10.71766	-8.037711E-008	0.0006729	7
	51	253	2.372217	24017.84	-5145.823	1	24562.9	-12.0928	-1.17872E-007	0.0005972	7
	52	257	1.878005	25744.23	-6245.415	1	26490.95	-13.63622	-1.036375E-007	0.0006382	7
	53	262	1.512097	27786.89	-7496.197	1	28780.28	-15.09754	-8.694546E-008	0.0005201	7
	54	268	1.201923	30835.21	-9169.735	1	32169.78	-16.56136	-7.461171E-008	0.0006078	7
	55	275	0.956633	34009.86	-11200.14	1	35806.61	-18.22778	-1.158093E-007	-1.085811E-005	7
