EXPLAIN
TAG	EISPOT
TITLE	LABEL	Potentiostatic EIS	Test Identifier
DATE	LABEL	8/5/2020	Date
TIME	LABEL	20:38:14	Time
NOTES	NOTES	1	Notes...
	
PSTAT	PSTAT	REF3000-16137	Potentiostat
VDC	POTEN	0.00000E+000	T	DC Voltage (V)
FREQINIT	QUANT	3.00000E+005	Initial Freq. (Hz)
FREQFINAL	QUANT	1.00000E+000	Final Freq. (Hz)
PTSPERDEC	QUANT	1.00000E+001	Points/decade
VAC	QUANT	5.00000E+001	AC Voltage (mV rms)
AREA	QUANT	1.00000E+000	Sample Area (cm^2)
SPEED	SELECTOR	2	Optimize for:
ZGUESS	QUANT	1.00000E+003	Estimated Z (ohms)
EOC	QUANT	0	Open Circuit (V)
SEQUENCER	TOGGLE	TRUE	Run as Sequence
PSTATMODEL	IQUANT	5	Pstat Model
PSTATSECTION	LABEL	REF3000-16137	Pstat Section
PSTATSERIALNO	LABEL	16137	Pstat Serial Number
CTRLMODE	IQUANT	1	Control Mode
IESTAB	IQUANT	0	I/E Stability
CASPEED	IQUANT	1	Control Amp Speed
CONVENTION	IQUANT	1	Current Convention
ICHRANGE	IQUANT	2	Ich Range
ICHRANGEMODE	TOGGLE	F	Ich Auto Range
ICHOFFSETENABLE	TOGGLE	T	Ich Offset Enable
ICHOFFSET	QUANT	0	Ich Offset (V)
ICHFILTER	IQUANT	3	Ich Filter
VCHRANGE	IQUANT	2	Vch Range
VCHRANGEMODE	TOGGLE	F	Vch Auto Range
VCHOFFSETENABLE	TOGGLE	T	Vch Offset Enable
VCHOFFSET	QUANT	0	Vch Offset (V)
VCHFILTER	IQUANT	3	Vch Filter
ACHRANGE	IQUANT	2	Ach Range
ACHOFFSETENABLE	TOGGLE	F	Ach Offset Enable
ACHOFFSET	QUANT	0	Ach Offset (V)
ACHFILTER	IQUANT	3	Ach Filter
IERANGELOWERLIMIT	IQUANT	2	I/E Range Lower Limit
IERANGEMODE	TOGGLE	F	I/E AutoRange
IERANGE	IQUANT	11	I/E Range
POSFEEDENABLE	TOGGLE	F	Positive Feedback IR Comp
POSFEEDRESISTANCE	QUANT	0	Positive Feedback Resistance (ohm)
ACHSELECT	IQUANT	0	Ach Select
CABLEID	IQUANT	13	Cable ID
DCCALDATE	LABEL	7/31/2020	DC Calibration Date
ACCALDATE	LABEL	7/31/2020	AC Calibration Date
THERMOSELECT	IQUANT	1	Thermo Select
FRAMEWORKVERSION	QUANT	6.33	Framework Version
INSTRUMENTVERSION	LABEL	3.50	Instrument Version
COMPLIANCEVOLTAGE	IQUANT	0	Compliance Voltage
ZCURVE	TABLE
	Pt	Time	Freq	Zreal	Zimag	Zsig	Zmod	Zphz	Idc	Vdc	IERange
	#	s	Hz	ohm	ohm	V	ohm	°	A	V	#
	0	9	300046.9	2.561397	0.9358226	1	2.726998	20.0701	2.684389E-005	0.0009155	12
	1	13	238359.4	2.51259	0.7412612	1	2.619652	16.43705	8.04213E-005	-8.792718E-005	12
	2	17	189328.1	2.483418	0.5762397	1	2.549396	13.06345	-6.139612E-005	9.147605E-005	12
	3	21	150421.9	2.472176	0.4397753	1	2.510987	10.08683	-5.046654E-005	0.0002692	12
	4	25	119484.4	2.46109	0.3215747	1	2.48201	7.444293	1.525458E-005	0.0004807	12
	5	28	94921.88	2.451883	0.3072377	1	2.471058	7.142326	-4.305407E-005	0.0005215	11
	6	31	75421.88	2.460882	0.1333768	1	2.464494	3.102326	2.359629E-006	0.0005435	12
	7	35	59859.37	2.467325	0.0520134	1	2.467873	1.207668	-4.963933E-006	0.0006025	12
	8	38	47578.12	2.475899	0.0198082	1	2.475978	0.4583795	-4.634906E-005	0.0006193	11
	9	41	37828.12	2.48587	-0.0647136	1	2.486712	-1.49122	-2.004377E-005	0.0006676	11
	10	43	30046.88	2.496596	-0.151515	1	2.50119	-3.472942	-4.515391E-005	0.0006381	11
	11	46	23859.38	2.509599	-0.2441559	1	2.521448	-5.556751	-2.217571E-005	0.0006851	11
	12	48	18984.38	2.523068	-0.3465957	1	2.546763	-7.821805	-2.09867E-005	0.0006712	11
	13	50	15046.87	2.54034	-0.4660097	1	2.582729	-10.39499	-2.333422E-005	0.0006682	11
	14	53	11953.13	2.561027	-0.6057301	1	2.631685	-13.30697	2.969346E-005	0.0007228	11
	15	55	9515.62	2.584462	-0.7700273	1	2.696736	-16.59116	3.326507E-005	0.0007176	11
	16	57	7546.875	2.612999	-0.972741	1	2.788187	-20.41879	1.472524E-005	0.0007018	11
	17	60	5928.309	2.648873	-1.232762	1	2.921683	-24.95685	-3.45669E-005	0.0006829	11
	18	62	4733.456	2.689344	-1.529534	1	3.093872	-29.62857	2.821629E-005	0.0007155	11
	19	64	3796.875	2.738777	-1.884025	1	3.324222	-34.52438	2.719291E-005	0.0007187	11
	20	67	2987.132	2.803205	-2.362962	1	3.666271	-40.12922	1.296055E-005	0.0007004	11
	21	69	2390.625	2.881836	-2.913356	1	4.09788	-45.31162	2.324101E-005	0.000669	10
	22	71	1884.191	2.985841	-3.634966	1	4.704065	-50.59957	2.450179E-005	0.0006618	10
	23	74	1516.544	3.107108	-4.446535	1	5.424555	-55.05528	-1.702311E-006	0.0006625	10
	24	76	1193.986	3.273216	-5.544944	1	6.438971	-59.44638	-2.227006E-005	0.0006875	10
	25	78	946.5144	3.488202	-6.858462	1	7.694547	-63.04219	2.455175E-005	0.00066	10
	26	81	751.7689	3.744925	-8.467737	1	9.25889	-66.1422	-2.464075E-006	0.0006607	10
	27	83	597.4265	4.067257	-10.42379	1	11.18919	-68.68478	7.04285E-006	0.0006542	10
	28	85	477.4305	4.449382	-12.76303	1	13.51635	-70.78068	-4.237511E-007	0.0006796	10
	29	88	376.6741	4.93791	-15.78981	1	16.54391	-72.63409	-6.260223E-007	0.0006709	10
	30	90	298.2954	5.509086	-19.46559	1	20.23016	-74.19761	-8.4392E-007	0.0006795	10
	31	92	237.7717	6.160036	-23.86448	1	24.6467	-75.52642	-8.442089E-007	0.000678	10
	32	95	189.0121	6.929335	-29.35514	1	30.16189	-76.71835	-1.164385E-006	0.0006794	10
	33	97	150.2404	7.829013	-36.14117	1	36.97943	-77.77726	-8.801078E-007	0.0006752	10
	34	100	119.1737	8.887856	-44.59212	1	45.46923	-78.72784	1.96064E-006	8.039589E-005	9
	35	102	95.0169	10.1324	-54.88586	1	55.81329	-79.54047	1.894977E-006	7.549924E-005	9
	36	104	75.60484	11.64331	-67.76666	1	68.75964	-80.25093	1.756341E-006	7.590004E-005	9
	37	107	54.50582	14.4183	-91.77576	1	92.90144	-81.0716	1.717887E-006	7.562061E-005	9
	38	110	45.95588	16.26021	-107.6349	1	108.8562	-81.40939	1.983042E-006	8.357941E-005	9
	39	112	37.20238	19.03516	-131.094	1	132.4688	-81.73826	1.83741E-006	8.316925E-005	9
	40	114	30.04808	22.53834	-160.0157	1	161.5952	-81.98258	1.745003E-006	8.442574E-005	9
	41	117	23.91582	27.30988	-198.0468	1	199.9209	-82.14865	1.850631E-006	7.961851E-005	9
	42	119	18.60119	34.35431	-250.6191	1	252.9627	-82.19466	2.023431E-006	8.193872E-005	9
	43	121	15.02404	42.18456	-305.9534	1	308.8479	-82.14961	2.071406E-006	9.087122E-005	9
	44	124	12.01923	52.9309	-376.7995	1	380.4991	-82.0037	1.921885E-006	7.665241E-005	9
	45	126	9.450605	67.80302	-469.0616	1	473.9367	-81.77485	5.001152E-007	0.0006757	8
	46	129	7.512019	87.00137	-579.9355	1	586.4252	-81.46817	5.36177E-007	0.0006879	8
	47	131	5.978954	112.4833	-715.3273	1	724.1172	-81.06357	5.514968E-007	0.0006607	8
	48	134	4.734848	146.9535	-885.2096	1	897.3245	-80.5743	6.073697E-007	0.0006851	8
	49	138	3.75601	193.0924	-1091.653	1	1108.598	-79.96923	5.032637E-007	0.0006438	8
	50	141	3.004808	250.7328	-1332.557	1	1355.941	-79.34386	4.782292E-007	0.0007352	8
	51	145	2.372217	332.4238	-1641.789	1	1675.105	-78.5537	5.065681E-007	0.0007128	8
	52	149	1.878005	433.9385	-2018.679	1	2064.792	-77.86822	4.638585E-007	0.0006449	8
	53	154	1.512097	551.0176	-2431.738	1	2493.385	-77.23271	5.089286E-007	0.0006333	8
	54	159	1.201923	716.4966	-2973.961	1	3059.054	-76.45425	4.799434E-007	0.0006362	8
	55	165	0.956633	921.0295	-3616.1	1	3731.551	-75.71046	4.771078E-007	7.84556E-005	8
