May 15, 2026   15:37:39
A.C. Impedance
File: e:\chi_data\r0.5-n1.2-2_t-77.0_f0.1_1000000_v0.txt
Data Source:  Experiment
Instrument Model:  CHI660E
Header: 
Note: 

Init E (V) = 0
High Frequency (Hz) = 1e+6
Low Frequency (Hz) = 0.1
Imp SF
Amplitude (V) = 0.005
Quiet Time (sec) = 2
Cycles (.1-1Hz) = 1

Freq/Hz, Z'/ohm, Z"/ohm, Z/ohm, Phase/deg

8.252e+5, 2.629e+2, -9.364e+1, 2.791e+2, -19.6
6.816e+5, 2.912e+2, -1.096e+2, 3.112e+2, -20.6
5.625e+5, 3.173e+2, -1.110e+2, 3.362e+2, -19.3
4.639e+5, 3.437e+2, -1.150e+2, 3.624e+2, -18.5
3.828e+5, 3.679e+2, -1.115e+2, 3.845e+2, -16.9
3.164e+5, 3.896e+2, -1.067e+2, 4.039e+2, -15.3
2.607e+5, 4.082e+2, -9.879e+1, 4.200e+2, -13.6
2.158e+5, 4.238e+2, -9.148e+1, 4.335e+2, -12.2
1.777e+5, 4.374e+2, -8.515e+1, 4.456e+2, -11.0
1.465e+5, 4.488e+2, -7.876e+1, 4.557e+2, -10.0
1.211e+5, 4.580e+2, -7.107e+1, 4.635e+2, -8.8
9.961e+4, 4.662e+2, -6.348e+1, 4.705e+2, -7.8
8.252e+4, 4.738e+2, -5.564e+1, 4.770e+2, -6.7
6.812e+4, 4.803e+2, -4.832e+1, 4.827e+2, -5.7
5.625e+4, 4.853e+2, -4.231e+1, 4.871e+2, -5.0
4.644e+4, 4.896e+2, -3.832e+1, 4.911e+2, -4.5
3.833e+4, 4.937e+2, -3.490e+1, 4.950e+2, -4.0
3.164e+4, 4.978e+2, -3.166e+1, 4.988e+2, -3.6
2.612e+4, 5.014e+2, -2.923e+1, 5.022e+2, -3.3
2.153e+4, 5.043e+2, -2.673e+1, 5.050e+2, -3.0
1.777e+4, 5.076e+2, -2.495e+1, 5.082e+2, -2.8
1.470e+4, 5.107e+2, -2.385e+1, 5.112e+2, -2.7
1.211e+4, 5.130e+2, -2.211e+1, 5.135e+2, -2.5
1.001e+4, 5.151e+2, -1.889e+1, 5.154e+2, -2.1
8.252e+3, 5.167e+2, -1.583e+1, 5.170e+2, -1.8
6.812e+3, 5.187e+2, -1.495e+1, 5.189e+2, -1.7
5.625e+3, 5.209e+2, -1.580e+1, 5.211e+2, -1.7
4.643e+3, 5.233e+2, -1.783e+1, 5.236e+2, -2.0
3.833e+3, 5.255e+2, -2.033e+1, 5.259e+2, -2.2
3.164e+3, 5.279e+2, -2.320e+1, 5.284e+2, -2.5
2.612e+3, 5.303e+2, -2.659e+1, 5.310e+2, -2.9
2.153e+3, 5.329e+2, -3.063e+1, 5.338e+2, -3.3
1.777e+3, 5.357e+2, -3.532e+1, 5.369e+2, -3.8
1.470e+3, 5.389e+2, -4.085e+1, 5.404e+2, -4.3
1.211e+3, 5.425e+2, -4.734e+1, 5.446e+2, -5.0
1.001e+3, 5.463e+2, -5.454e+1, 5.490e+2, -5.7
8.252e+2, 5.503e+2, -6.272e+1, 5.539e+2, -6.5
6.836e+2, 5.550e+2, -7.290e+1, 5.597e+2, -7.5
5.615e+2, 5.603e+2, -8.528e+1, 5.668e+2, -8.7
4.639e+2, 5.665e+2, -9.994e+1, 5.752e+2, -10.0
3.809e+2, 5.734e+2, -1.168e+2, 5.852e+2, -11.5
3.174e+2, 5.813e+2, -1.365e+2, 5.971e+2, -13.2
2.588e+2, 5.902e+2, -1.593e+2, 6.113e+2, -15.1
2.148e+2, 6.003e+2, -1.858e+2, 6.283e+2, -17.2
1.758e+2, 6.117e+2, -2.163e+2, 6.488e+2, -19.5
1.465e+2, 6.244e+2, -2.509e+2, 6.729e+2, -21.9
1.221e+2, 6.394e+2, -2.921e+2, 7.029e+2, -24.6
9.766e+1, 6.577e+2, -3.383e+2, 7.395e+2, -27.2
8.254e+1, 6.786e+2, -3.909e+2, 7.831e+2, -29.9
6.813e+1, 7.014e+2, -4.552e+2, 8.362e+2, -33.0
5.623e+1, 7.261e+2, -5.320e+2, 9.001e+2, -36.2
4.642e+1, 7.533e+2, -6.230e+2, 9.775e+2, -39.6
3.831e+1, 7.841e+2, -7.299e+2, 1.071e+3, -43.0
3.162e+1, 8.189e+2, -8.556e+2, 1.184e+3, -46.3
2.610e+1, 8.584e+2, -1.004e+3, 1.321e+3, -49.5
2.154e+1, 9.035e+2, -1.180e+3, 1.486e+3, -52.6
1.778e+1, 9.549e+2, -1.387e+3, 1.684e+3, -55.4
1.468e+1, 1.013e+3, -1.631e+3, 1.920e+3, -58.2
1.212e+1, 1.080e+3, -1.919e+3, 2.203e+3, -60.6
1.000e+1, 1.161e+3, -2.261e+3, 2.542e+3, -62.8
8.254e+0, 1.255e+3, -2.670e+3, 2.950e+3, -64.8
6.813e+0, 1.364e+3, -3.156e+3, 3.438e+3, -66.6
5.623e+0, 1.491e+3, -3.734e+3, 4.021e+3, -68.2
4.642e+0, 1.641e+3, -4.424e+3, 4.719e+3, -69.7
3.831e+0, 1.823e+3, -5.233e+3, 5.542e+3, -70.8
3.162e+0, 2.044e+3, -6.194e+3, 6.523e+3, -71.7
2.610e+0, 2.316e+3, -7.329e+3, 7.687e+3, -72.5
2.154e+0, 2.633e+3, -8.717e+3, 9.106e+3, -73.2
1.778e+0, 3.014e+3, -1.037e+4, 1.080e+4, -73.8
1.468e+0, 3.515e+3, -1.223e+4, 1.272e+4, -74.0
1.212e+0, 4.162e+3, -1.434e+4, 1.493e+4, -73.8
1.000e+0, 4.989e+3, -1.676e+4, 1.748e+4, -73.4
8.254e-1, 6.022e+3, -1.950e+4, 2.041e+4, -72.8
6.813e-1, 7.253e+3, -2.261e+4, 2.375e+4, -72.2
5.623e-1, 8.686e+3, -2.617e+4, 2.758e+4, -71.6
4.642e-1, 1.036e+4, -3.026e+4, 3.199e+4, -71.1
3.831e-1, 1.232e+4, -3.494e+4, 3.705e+4, -70.6
3.162e-1, 1.457e+4, -4.027e+4, 4.282e+4, -70.1
2.610e-1, 1.717e+4, -4.637e+4, 4.945e+4, -69.7
2.154e-1, 2.014e+4, -5.338e+4, 5.706e+4, -69.3
1.778e-1, 2.351e+4, -6.146e+4, 6.580e+4, -69.1
1.468e-1, 2.732e+4, -7.076e+4, 7.586e+4, -68.9
1.212e-1, 3.167e+4, -8.153e+4, 8.746e+4, -68.8
1.000e-1, 3.658e+4, -9.382e+4, 1.007e+5, -68.7
