May 15, 2026   12:37:47
A.C. Impedance
File: e:\chi_data\r0.5-n1.2-2_t-35.0_f0.1_1000000_v0.txt
Data Source:  Experiment
Instrument Model:  CHI660E
Header: 
Note: 

Init E (V) = 0
High Frequency (Hz) = 1e+6
Low Frequency (Hz) = 0.1
Imp SF
Amplitude (V) = 0.005
Quiet Time (sec) = 2
Cycles (.1-1Hz) = 1

Freq/Hz, Z'/ohm, Z"/ohm, Z/ohm, Phase/deg

8.252e+5, 6.319e+0, 1.168e+1, 1.328e+1, 61.6
6.816e+5, 5.758e+0, 9.465e+0, 1.108e+1, 58.7
5.625e+5, 5.242e+0, 7.828e+0, 9.421e+0, 56.2
4.639e+5, 5.030e+0, 6.383e+0, 8.127e+0, 51.8
3.828e+5, 4.895e+0, 5.281e+0, 7.201e+0, 47.2
3.164e+5, 4.823e+0, 4.333e+0, 6.484e+0, 41.9
2.607e+5, 4.737e+0, 3.557e+0, 5.924e+0, 36.9
2.158e+5, 4.676e+0, 2.885e+0, 5.494e+0, 31.7
1.777e+5, 4.636e+0, 2.303e+0, 5.177e+0, 26.4
1.465e+5, 4.610e+0, 1.800e+0, 4.949e+0, 21.3
1.211e+5, 4.586e+0, 1.381e+0, 4.790e+0, 16.8
9.961e+4, 4.584e+0, 1.018e+0, 4.696e+0, 12.5
8.252e+4, 4.592e+0, 7.029e-1, 4.646e+0, 8.7
6.812e+4, 4.610e+0, 4.103e-1, 4.628e+0, 5.1
5.625e+4, 4.633e+0, 1.356e-1, 4.635e+0, 1.7
4.644e+4, 4.662e+0, -1.309e-1, 4.664e+0, -1.6
3.833e+4, 4.704e+0, -3.933e-1, 4.720e+0, -4.8
3.164e+4, 4.759e+0, -6.563e-1, 4.804e+0, -7.9
2.612e+4, 4.823e+0, -9.285e-1, 4.912e+0, -10.9
2.153e+4, 4.894e+0, -1.218e+0, 5.043e+0, -14.0
1.777e+4, 4.973e+0, -1.527e+0, 5.202e+0, -17.1
1.470e+4, 5.066e+0, -1.868e+0, 5.399e+0, -20.2
1.211e+4, 5.175e+0, -2.248e+0, 5.642e+0, -23.5
1.001e+4, 5.299e+0, -2.682e+0, 5.940e+0, -26.8
8.252e+3, 5.440e+0, -3.186e+0, 6.304e+0, -30.4
6.812e+3, 5.598e+0, -3.764e+0, 6.746e+0, -33.9
5.625e+3, 5.779e+0, -4.434e+0, 7.284e+0, -37.5
4.643e+3, 5.985e+0, -5.214e+0, 7.938e+0, -41.1
3.833e+3, 6.220e+0, -6.131e+0, 8.734e+0, -44.6
3.164e+3, 6.486e+0, -7.206e+0, 9.695e+0, -48.0
2.612e+3, 6.790e+0, -8.473e+0, 1.086e+1, -51.3
2.153e+3, 7.134e+0, -9.969e+0, 1.226e+1, -54.4
1.777e+3, 7.529e+0, -1.173e+1, 1.394e+1, -57.3
1.470e+3, 7.984e+0, -1.382e+1, 1.596e+1, -60.0
1.211e+3, 8.502e+0, -1.628e+1, 1.837e+1, -62.4
1.001e+3, 9.136e+0, -1.919e+1, 2.126e+1, -64.5
8.252e+2, 9.907e+0, -2.264e+1, 2.472e+1, -66.4
6.836e+2, 1.082e+1, -2.678e+1, 2.888e+1, -68.0
5.615e+2, 1.190e+1, -3.171e+1, 3.387e+1, -69.4
4.639e+2, 1.322e+1, -3.761e+1, 3.986e+1, -70.6
3.809e+2, 1.483e+1, -4.449e+1, 4.690e+1, -71.6
3.174e+2, 1.682e+1, -5.265e+1, 5.527e+1, -72.3
2.588e+2, 1.929e+1, -6.228e+1, 6.520e+1, -72.8
2.148e+2, 2.237e+1, -7.367e+1, 7.700e+1, -73.1
1.758e+2, 2.616e+1, -8.693e+1, 9.078e+1, -73.3
1.465e+2, 3.069e+1, -1.019e+2, 1.064e+2, -73.2
1.221e+2, 3.656e+1, -1.200e+2, 1.254e+2, -73.1
9.766e+1, 4.416e+1, -1.407e+2, 1.474e+2, -72.6
8.254e+1, 5.329e+1, -1.638e+2, 1.723e+2, -72.0
6.813e+1, 6.387e+1, -1.908e+2, 2.012e+2, -71.5
5.623e+1, 7.607e+1, -2.219e+2, 2.346e+2, -71.1
4.642e+1, 9.039e+1, -2.577e+2, 2.731e+2, -70.7
3.831e+1, 1.072e+2, -2.989e+2, 3.176e+2, -70.3
3.162e+1, 1.267e+2, -3.461e+2, 3.685e+2, -69.9
2.610e+1, 1.490e+2, -4.001e+2, 4.270e+2, -69.6
2.154e+1, 1.744e+2, -4.621e+2, 4.939e+2, -69.3
1.778e+1, 2.032e+2, -5.337e+2, 5.711e+2, -69.2
1.468e+1, 2.359e+2, -6.170e+2, 6.605e+2, -69.1
1.212e+1, 2.732e+2, -7.137e+2, 7.642e+2, -69.1
1.000e+1, 3.164e+2, -8.264e+2, 8.849e+2, -69.1
8.254e+0, 3.658e+2, -9.583e+2, 1.026e+3, -69.1
6.813e+0, 4.219e+2, -1.112e+3, 1.190e+3, -69.2
5.623e+0, 4.861e+2, -1.292e+3, 1.381e+3, -69.4
4.642e+0, 5.596e+2, -1.504e+3, 1.604e+3, -69.6
3.831e+0, 6.452e+2, -1.749e+3, 1.865e+3, -69.8
3.162e+0, 7.445e+2, -2.038e+3, 2.170e+3, -69.9
2.610e+0, 8.599e+2, -2.374e+3, 2.525e+3, -70.1
2.154e+0, 9.848e+2, -2.783e+3, 2.952e+3, -70.5
1.778e+0, 1.122e+3, -3.268e+3, 3.456e+3, -71.0
1.468e+0, 1.284e+3, -3.813e+3, 4.023e+3, -71.4
1.212e+0, 1.475e+3, -4.426e+3, 4.666e+3, -71.6
1.000e+0, 1.696e+3, -5.120e+3, 5.394e+3, -71.7
8.254e-1, 1.941e+3, -5.904e+3, 6.215e+3, -71.8
6.813e-1, 2.203e+3, -6.810e+3, 7.157e+3, -72.1
5.623e-1, 2.482e+3, -7.881e+3, 8.263e+3, -72.5
4.642e-1, 2.789e+3, -9.143e+3, 9.559e+3, -73.0
3.831e-1, 3.128e+3, -1.065e+4, 1.110e+4, -73.6
3.162e-1, 3.515e+3, -1.242e+4, 1.291e+4, -74.2
2.610e-1, 3.964e+3, -1.452e+4, 1.506e+4, -74.7
2.154e-1, 4.488e+3, -1.701e+4, 1.759e+4, -75.2
1.778e-1, 5.103e+3, -1.997e+4, 2.061e+4, -75.7
1.468e-1, 5.836e+3, -2.344e+4, 2.416e+4, -76.0
1.212e-1, 6.710e+3, -2.750e+4, 2.831e+4, -76.3
1.000e-1, 7.725e+3, -3.221e+4, 3.312e+4, -76.5
