May 15, 2026   14:48:03
A.C. Impedance
File: e:\chi_data\r0.5-n1.2-2_t-65.0_f0.1_1000000_v0.txt
Data Source:  Experiment
Instrument Model:  CHI660E
Header: 
Note: 

Init E (V) = 0
High Frequency (Hz) = 1e+6
Low Frequency (Hz) = 0.1
Imp SF
Amplitude (V) = 0.005
Quiet Time (sec) = 2
Cycles (.1-1Hz) = 1

Freq/Hz, Z'/ohm, Z"/ohm, Z/ohm, Phase/deg

8.252e+5, 7.607e+1, -2.939e+0, 7.612e+1, -2.2
6.816e+5, 7.709e+1, -5.017e+0, 7.725e+1, -3.7
5.625e+5, 7.735e+1, -4.697e+0, 7.749e+1, -3.5
4.639e+5, 7.866e+1, -4.965e+0, 7.882e+1, -3.6
3.828e+5, 7.980e+1, -4.446e+0, 7.992e+1, -3.2
3.164e+5, 8.092e+1, -4.185e+0, 8.102e+1, -3.0
2.607e+5, 8.171e+1, -3.798e+0, 8.180e+1, -2.7
2.158e+5, 8.234e+1, -3.555e+0, 8.242e+1, -2.5
1.777e+5, 8.294e+1, -3.597e+0, 8.301e+1, -2.5
1.465e+5, 8.342e+1, -3.584e+0, 8.350e+1, -2.5
1.211e+5, 8.363e+1, -1.955e+0, 8.365e+1, -1.3
9.961e+4, 8.381e+1, 1.657e-1, 8.381e+1, 0.1
8.252e+4, 8.400e+1, 1.170e+0, 8.400e+1, 0.8
6.812e+4, 8.425e+1, 1.135e+0, 8.426e+1, 0.8
5.625e+4, 8.450e+1, 4.927e-1, 8.450e+1, 0.3
4.644e+4, 8.478e+1, -2.861e-1, 8.478e+1, -0.2
3.833e+4, 8.511e+1, -1.021e+0, 8.512e+1, -0.7
3.164e+4, 8.543e+1, -1.574e+0, 8.545e+1, -1.1
2.612e+4, 8.573e+1, -2.067e+0, 8.576e+1, -1.4
2.153e+4, 8.605e+1, -2.591e+0, 8.609e+1, -1.7
1.777e+4, 8.637e+1, -3.146e+0, 8.642e+1, -2.1
1.470e+4, 8.666e+1, -3.770e+0, 8.674e+1, -2.5
1.211e+4, 8.696e+1, -4.546e+0, 8.708e+1, -3.0
1.001e+4, 8.735e+1, -5.470e+0, 8.752e+1, -3.6
8.252e+3, 8.783e+1, -6.502e+0, 8.807e+1, -4.2
6.812e+3, 8.834e+1, -7.652e+0, 8.867e+1, -5.0
5.625e+3, 8.889e+1, -8.945e+0, 8.934e+1, -5.7
4.643e+3, 8.952e+1, -1.048e+1, 9.013e+1, -6.7
3.833e+3, 9.024e+1, -1.224e+1, 9.107e+1, -7.7
3.164e+3, 9.104e+1, -1.431e+1, 9.216e+1, -8.9
2.612e+3, 9.192e+1, -1.674e+1, 9.343e+1, -10.3
2.153e+3, 9.297e+1, -1.957e+1, 9.500e+1, -11.9
1.777e+3, 9.418e+1, -2.285e+1, 9.691e+1, -13.6
1.470e+3, 9.556e+1, -2.665e+1, 9.921e+1, -15.6
1.211e+3, 9.712e+1, -3.105e+1, 1.020e+2, -17.7
1.001e+3, 9.890e+1, -3.607e+1, 1.053e+2, -20.0
8.252e+2, 1.009e+2, -4.186e+1, 1.093e+2, -22.5
6.836e+2, 1.033e+2, -4.874e+1, 1.142e+2, -25.3
5.615e+2, 1.059e+2, -5.688e+1, 1.202e+2, -28.2
4.639e+2, 1.090e+2, -6.652e+1, 1.277e+2, -31.4
3.809e+2, 1.124e+2, -7.765e+1, 1.366e+2, -34.6
3.174e+2, 1.163e+2, -9.073e+1, 1.475e+2, -38.0
2.588e+2, 1.206e+2, -1.061e+2, 1.606e+2, -41.3
2.148e+2, 1.256e+2, -1.242e+2, 1.766e+2, -44.7
1.758e+2, 1.311e+2, -1.453e+2, 1.957e+2, -47.9
1.465e+2, 1.374e+2, -1.695e+2, 2.182e+2, -51.0
1.221e+2, 1.451e+2, -1.996e+2, 2.468e+2, -54.0
9.766e+1, 1.546e+2, -2.345e+2, 2.809e+2, -56.6
8.254e+1, 1.654e+2, -2.744e+2, 3.204e+2, -58.9
6.813e+1, 1.771e+2, -3.226e+2, 3.680e+2, -61.2
5.623e+1, 1.901e+2, -3.799e+2, 4.249e+2, -63.4
4.642e+1, 2.052e+2, -4.484e+2, 4.931e+2, -65.4
3.831e+1, 2.233e+2, -5.298e+2, 5.749e+2, -67.1
3.162e+1, 2.451e+2, -6.261e+2, 6.724e+2, -68.6
2.610e+1, 2.714e+2, -7.400e+2, 7.881e+2, -69.9
2.154e+1, 3.038e+2, -8.744e+2, 9.257e+2, -70.8
1.778e+1, 3.438e+2, -1.033e+3, 1.089e+3, -71.6
1.468e+1, 3.929e+2, -1.221e+3, 1.282e+3, -72.2
1.212e+1, 4.543e+2, -1.441e+3, 1.511e+3, -72.5
1.000e+1, 5.303e+2, -1.698e+3, 1.779e+3, -72.7
8.254e+0, 6.237e+2, -1.999e+3, 2.094e+3, -72.7
6.813e+0, 7.377e+2, -2.350e+3, 2.463e+3, -72.6
5.623e+0, 8.756e+2, -2.758e+3, 2.894e+3, -72.4
4.642e+0, 1.041e+3, -3.232e+3, 3.396e+3, -72.1
3.831e+0, 1.240e+3, -3.777e+3, 3.976e+3, -71.8
3.162e+0, 1.476e+3, -4.411e+3, 4.651e+3, -71.5
2.610e+0, 1.753e+3, -5.140e+3, 5.431e+3, -71.2
2.154e+0, 2.063e+3, -6.015e+3, 6.359e+3, -71.1
1.778e+0, 2.414e+3, -7.046e+3, 7.448e+3, -71.1
1.468e+0, 2.830e+3, -8.199e+3, 8.674e+3, -71.0
1.212e+0, 3.323e+3, -9.489e+3, 1.005e+4, -70.7
1.000e+0, 3.906e+3, -1.094e+4, 1.162e+4, -70.4
8.254e-1, 4.573e+3, -1.257e+4, 1.338e+4, -70.0
6.813e-1, 5.318e+3, -1.442e+4, 1.537e+4, -69.8
5.623e-1, 6.153e+3, -1.658e+4, 1.769e+4, -69.6
4.642e-1, 7.102e+3, -1.907e+4, 2.035e+4, -69.6
3.831e-1, 8.188e+3, -2.194e+4, 2.342e+4, -69.5
3.162e-1, 9.429e+3, -2.530e+4, 2.700e+4, -69.6
2.610e-1, 1.086e+4, -2.920e+4, 3.115e+4, -69.6
2.154e-1, 1.251e+4, -3.375e+4, 3.600e+4, -69.7
1.778e-1, 1.442e+4, -3.900e+4, 4.158e+4, -69.7
1.468e-1, 1.662e+4, -4.501e+4, 4.798e+4, -69.7
1.212e-1, 1.917e+4, -5.196e+4, 5.538e+4, -69.7
1.000e-1, 2.211e+4, -5.988e+4, 6.384e+4, -69.7
