May 14, 2026   18:07:20
A.C. Impedance
File: e:\chi_data\r0.5-n0.5-2_t-24.0_f0.1_1000000_v0.txt
Data Source:  Experiment
Instrument Model:  CHI660E
Header: 
Note: 

Init E (V) = 0
High Frequency (Hz) = 1e+6
Low Frequency (Hz) = 0.1
Imp SF
Amplitude (V) = 0.005
Quiet Time (sec) = 2
Cycles (.1-1Hz) = 1

Freq/Hz, Z'/ohm, Z"/ohm, Z/ohm, Phase/deg

8.252e+5, 7.828e+1, 4.588e+0, 7.841e+1, 3.4
6.816e+5, 7.838e+1, 2.225e+0, 7.841e+1, 1.6
5.625e+5, 7.735e+1, 1.815e+0, 7.737e+1, 1.3
4.639e+5, 7.793e+1, 8.879e-1, 7.794e+1, 0.7
3.828e+5, 7.840e+1, 7.509e-1, 7.840e+1, 0.5
3.164e+5, 7.899e+1, 4.182e-1, 7.900e+1, 0.3
2.607e+5, 7.919e+1, 2.867e-1, 7.919e+1, 0.2
2.158e+5, 7.936e+1, 5.703e-2, 7.936e+1, 0.0
1.777e+5, 7.962e+1, -4.245e-1, 7.962e+1, -0.3
1.465e+5, 7.987e+1, -7.962e-1, 7.988e+1, -0.6
1.211e+5, 7.985e+1, 4.519e-1, 7.985e+1, 0.3
9.961e+4, 7.980e+1, 2.278e+0, 7.984e+1, 1.6
8.252e+4, 7.981e+1, 3.092e+0, 7.987e+1, 2.2
6.812e+4, 7.986e+1, 2.959e+0, 7.991e+1, 2.1
5.625e+4, 7.992e+1, 2.170e+0, 7.995e+1, 1.6
4.644e+4, 8.005e+1, 1.205e+0, 8.006e+1, 0.9
3.833e+4, 8.027e+1, 3.721e-1, 8.027e+1, 0.3
3.164e+4, 8.051e+1, -2.431e-1, 8.051e+1, -0.2
2.612e+4, 8.070e+1, -7.484e-1, 8.071e+1, -0.5
2.153e+4, 8.088e+1, -1.182e+0, 8.089e+1, -0.8
1.777e+4, 8.109e+1, -1.611e+0, 8.111e+1, -1.1
1.470e+4, 8.127e+1, -2.068e+0, 8.130e+1, -1.5
1.211e+4, 8.151e+1, -2.604e+0, 8.155e+1, -1.8
1.001e+4, 8.178e+1, -3.254e+0, 8.185e+1, -2.3
8.252e+3, 8.208e+1, -3.973e+0, 8.218e+1, -2.8
6.812e+3, 8.241e+1, -4.740e+0, 8.254e+1, -3.3
5.625e+3, 8.274e+1, -5.604e+0, 8.293e+1, -3.9
4.643e+3, 8.310e+1, -6.563e+0, 8.336e+1, -4.5
3.833e+3, 8.352e+1, -7.651e+0, 8.387e+1, -5.2
3.164e+3, 8.400e+1, -8.908e+0, 8.447e+1, -6.1
2.612e+3, 8.452e+1, -1.039e+1, 8.516e+1, -7.0
2.153e+3, 8.511e+1, -1.214e+1, 8.597e+1, -8.1
1.777e+3, 8.578e+1, -1.416e+1, 8.694e+1, -9.4
1.470e+3, 8.649e+1, -1.651e+1, 8.805e+1, -10.8
1.211e+3, 8.726e+1, -1.928e+1, 8.937e+1, -12.5
1.001e+3, 8.814e+1, -2.246e+1, 9.095e+1, -14.3
8.252e+2, 8.914e+1, -2.616e+1, 9.289e+1, -16.4
6.836e+2, 9.030e+1, -3.064e+1, 9.535e+1, -18.7
5.615e+2, 9.162e+1, -3.603e+1, 9.845e+1, -21.5
4.639e+2, 9.310e+1, -4.248e+1, 1.023e+2, -24.5
3.809e+2, 9.479e+1, -5.003e+1, 1.072e+2, -27.8
3.174e+2, 9.674e+1, -5.902e+1, 1.133e+2, -31.4
2.588e+2, 9.901e+1, -6.970e+1, 1.211e+2, -35.1
2.148e+2, 1.017e+2, -8.242e+1, 1.309e+2, -39.0
1.758e+2, 1.047e+2, -9.735e+1, 1.430e+2, -42.9
1.465e+2, 1.082e+2, -1.144e+2, 1.574e+2, -46.6
1.221e+2, 1.123e+2, -1.354e+2, 1.760e+2, -50.3
9.766e+1, 1.179e+2, -1.600e+2, 1.987e+2, -53.6
8.254e+1, 1.247e+2, -1.883e+2, 2.258e+2, -56.5
6.813e+1, 1.321e+2, -2.224e+2, 2.587e+2, -59.3
5.623e+1, 1.401e+2, -2.630e+2, 2.980e+2, -61.9
4.642e+1, 1.492e+2, -3.111e+2, 3.450e+2, -64.4
3.831e+1, 1.596e+2, -3.683e+2, 4.014e+2, -66.6
3.162e+1, 1.715e+2, -4.361e+2, 4.686e+2, -68.5
2.610e+1, 1.853e+2, -5.162e+2, 5.484e+2, -70.3
2.154e+1, 2.011e+2, -6.111e+2, 6.433e+2, -71.8
1.778e+1, 2.190e+2, -7.242e+2, 7.566e+2, -73.2
1.468e+1, 2.396e+2, -8.591e+2, 8.919e+2, -74.4
1.212e+1, 2.633e+2, -1.020e+3, 1.053e+3, -75.5
1.000e+1, 2.912e+2, -1.212e+3, 1.247e+3, -76.5
8.254e+0, 3.241e+2, -1.443e+3, 1.479e+3, -77.3
6.813e+0, 3.618e+2, -1.719e+3, 1.757e+3, -78.1
5.623e+0, 4.058e+2, -2.048e+3, 2.088e+3, -78.8
4.642e+0, 4.575e+2, -2.441e+3, 2.484e+3, -79.4
3.831e+0, 5.191e+2, -2.909e+3, 2.955e+3, -79.9
3.162e+0, 5.901e+2, -3.471e+3, 3.520e+3, -80.3
2.610e+0, 6.737e+2, -4.141e+3, 4.196e+3, -80.8
2.154e+0, 7.607e+2, -4.956e+3, 5.014e+3, -81.3
1.778e+0, 8.583e+2, -5.934e+3, 5.995e+3, -81.8
1.468e+0, 9.874e+2, -7.083e+3, 7.151e+3, -82.1
1.212e+0, 1.157e+3, -8.435e+3, 8.514e+3, -82.2
1.000e+0, 1.379e+3, -1.003e+4, 1.012e+4, -82.2
8.254e-1, 1.651e+3, -1.191e+4, 1.203e+4, -82.1
6.813e-1, 1.968e+3, -1.414e+4, 1.428e+4, -82.1
5.623e-1, 2.333e+3, -1.680e+4, 1.696e+4, -82.1
4.642e-1, 2.776e+3, -1.994e+4, 2.013e+4, -82.1
3.831e-1, 3.312e+3, -2.367e+4, 2.390e+4, -82.0
3.162e-1, 3.948e+3, -2.811e+4, 2.838e+4, -82.0
2.610e-1, 4.706e+3, -3.341e+4, 3.374e+4, -82.0
2.154e-1, 5.620e+3, -3.970e+4, 4.010e+4, -81.9
1.778e-1, 6.730e+3, -4.715e+4, 4.762e+4, -81.9
1.468e-1, 8.041e+3, -5.592e+4, 5.650e+4, -81.8
1.212e-1, 9.570e+3, -6.633e+4, 6.701e+4, -81.8
1.000e-1, 1.133e+4, -7.845e+4, 7.926e+4, -81.8
