May 14, 2026   21:02:11
A.C. Impedance
File: e:\chi_data\r0.5-n0.5-2_t-63.0_f0.1_1000000_v0.txt
Data Source:  Experiment
Instrument Model:  CHI660E
Header: 
Note: 

Init E (V) = 0
High Frequency (Hz) = 1e+6
Low Frequency (Hz) = 0.1
Imp SF
Amplitude (V) = 0.005
Quiet Time (sec) = 2
Cycles (.1-1Hz) = 1

Freq/Hz, Z'/ohm, Z"/ohm, Z/ohm, Phase/deg

8.252e+5, 5.557e+2, -9.514e+2, 1.102e+3, -59.7
6.816e+5, 7.216e+2, -1.154e+3, 1.361e+3, -58.0
5.625e+5, 8.968e+2, -1.325e+3, 1.600e+3, -55.9
4.639e+5, 1.140e+3, -1.500e+3, 1.884e+3, -52.8
3.828e+5, 1.407e+3, -1.628e+3, 2.152e+3, -49.2
3.164e+5, 1.694e+3, -1.712e+3, 2.409e+3, -45.3
2.607e+5, 1.989e+3, -1.766e+3, 2.660e+3, -41.6
2.158e+5, 2.300e+3, -1.796e+3, 2.918e+3, -38.0
1.777e+5, 2.632e+3, -1.788e+3, 3.182e+3, -34.2
1.465e+5, 2.943e+3, -1.730e+3, 3.414e+3, -30.4
1.211e+5, 3.195e+3, -1.628e+3, 3.586e+3, -27.0
9.961e+4, 3.434e+3, -1.471e+3, 3.735e+3, -23.2
8.252e+4, 3.653e+3, -1.278e+3, 3.870e+3, -19.3
6.812e+4, 3.832e+3, -1.118e+3, 3.992e+3, -16.3
5.625e+4, 3.984e+3, -9.884e+2, 4.105e+3, -13.9
4.644e+4, 4.106e+3, -8.735e+2, 4.198e+3, -12.0
3.833e+4, 4.192e+3, -7.790e+2, 4.264e+3, -10.5
3.164e+4, 4.264e+3, -6.935e+2, 4.320e+3, -9.2
2.612e+4, 4.321e+3, -5.950e+2, 4.362e+3, -7.8
2.153e+4, 4.357e+3, -5.073e+2, 4.386e+3, -6.6
1.777e+4, 4.408e+3, -4.538e+2, 4.431e+3, -5.9
1.470e+4, 4.450e+3, -4.026e+2, 4.468e+3, -5.2
1.211e+4, 4.470e+3, -3.506e+2, 4.484e+3, -4.5
1.001e+4, 4.483e+3, -2.955e+2, 4.493e+3, -3.8
8.252e+3, 4.489e+3, -2.328e+2, 4.495e+3, -3.0
6.812e+3, 4.500e+3, -1.946e+2, 4.504e+3, -2.5
5.625e+3, 4.509e+3, -1.684e+2, 4.512e+3, -2.1
4.643e+3, 4.520e+3, -1.542e+2, 4.523e+3, -2.0
3.833e+3, 4.541e+3, -1.539e+2, 4.544e+3, -1.9
3.164e+3, 4.564e+3, -1.454e+2, 4.567e+3, -1.8
2.612e+3, 4.582e+3, -1.323e+2, 4.584e+3, -1.7
2.153e+3, 4.584e+3, -1.178e+2, 4.586e+3, -1.5
1.777e+3, 4.592e+3, -1.080e+2, 4.593e+3, -1.3
1.470e+3, 4.609e+3, -1.051e+2, 4.611e+3, -1.3
1.211e+3, 4.626e+3, -1.082e+2, 4.627e+3, -1.3
1.001e+3, 4.641e+3, -1.063e+2, 4.643e+3, -1.3
8.252e+2, 4.653e+3, -9.843e+1, 4.654e+3, -1.2
6.836e+2, 4.664e+3, -9.822e+1, 4.665e+3, -1.2
5.615e+2, 4.678e+3, -1.083e+2, 4.679e+3, -1.3
4.639e+2, 4.693e+3, -1.264e+2, 4.694e+3, -1.5
3.809e+2, 4.708e+3, -1.463e+2, 4.711e+3, -1.8
3.174e+2, 4.727e+3, -1.690e+2, 4.730e+3, -2.0
2.588e+2, 4.745e+3, -1.955e+2, 4.749e+3, -2.4
2.148e+2, 4.763e+3, -2.285e+2, 4.768e+3, -2.7
1.758e+2, 4.784e+3, -2.654e+2, 4.792e+3, -3.2
1.465e+2, 4.807e+3, -3.029e+2, 4.817e+3, -3.6
1.221e+2, 4.831e+3, -3.447e+2, 4.843e+3, -4.1
9.766e+1, 4.860e+3, -3.789e+2, 4.874e+3, -4.5
8.254e+1, 4.890e+3, -4.172e+2, 4.908e+3, -4.9
6.813e+1, 4.924e+3, -4.787e+2, 4.947e+3, -5.6
5.623e+1, 4.960e+3, -5.613e+2, 4.991e+3, -6.5
4.642e+1, 4.999e+3, -6.647e+2, 5.043e+3, -7.6
3.831e+1, 5.042e+3, -7.853e+2, 5.103e+3, -8.9
3.162e+1, 5.095e+3, -9.229e+2, 5.177e+3, -10.3
2.610e+1, 5.154e+3, -1.082e+3, 5.267e+3, -11.9
2.154e+1, 5.221e+3, -1.269e+3, 5.373e+3, -13.7
1.778e+1, 5.297e+3, -1.487e+3, 5.501e+3, -15.7
1.468e+1, 5.386e+3, -1.740e+3, 5.660e+3, -17.9
1.212e+1, 5.495e+3, -2.035e+3, 5.859e+3, -20.3
1.000e+1, 5.624e+3, -2.387e+3, 6.110e+3, -23.0
8.254e+0, 5.776e+3, -2.809e+3, 6.423e+3, -25.9
6.813e+0, 5.949e+3, -3.315e+3, 6.811e+3, -29.1
5.623e+0, 6.146e+3, -3.919e+3, 7.289e+3, -32.5
4.642e+0, 6.374e+3, -4.652e+3, 7.892e+3, -36.1
3.831e+0, 6.620e+3, -5.513e+3, 8.615e+3, -39.8
3.162e+0, 6.899e+3, -6.564e+3, 9.523e+3, -43.6
2.610e+0, 7.206e+3, -7.811e+3, 1.063e+4, -47.3
2.154e+0, 7.584e+3, -9.477e+3, 1.214e+4, -51.3
1.778e+0, 8.000e+3, -1.153e+4, 1.403e+4, -55.2
1.468e+0, 8.357e+3, -1.368e+4, 1.603e+4, -58.6
1.212e+0, 8.706e+3, -1.600e+4, 1.821e+4, -61.4
1.000e+0, 9.123e+3, -1.855e+4, 2.067e+4, -63.8
8.254e-1, 9.638e+3, -2.142e+4, 2.349e+4, -65.8
6.813e-1, 1.023e+4, -2.478e+4, 2.680e+4, -67.6
5.623e-1, 1.090e+4, -2.878e+4, 3.077e+4, -69.3
4.642e-1, 1.167e+4, -3.353e+4, 3.551e+4, -70.8
3.831e-1, 1.258e+4, -3.924e+4, 4.120e+4, -72.2
3.162e-1, 1.365e+4, -4.599e+4, 4.797e+4, -73.5
2.610e-1, 1.495e+4, -5.394e+4, 5.597e+4, -74.5
2.154e-1, 1.647e+4, -6.340e+4, 6.550e+4, -75.4
1.778e-1, 1.826e+4, -7.467e+4, 7.687e+4, -76.3
1.468e-1, 2.040e+4, -8.810e+4, 9.043e+4, -77.0
1.212e-1, 2.294e+4, -1.041e+5, 1.066e+5, -77.6
1.000e-1, 2.592e+4, -1.228e+5, 1.255e+5, -78.1
