May 14, 2026   15:57:43
A.C. Impedance
File: e:\chi_data\r0.5-n0.5-2_t0.0_f0.1_1000000_v0.txt
Data Source:  Experiment
Instrument Model:  CHI660E
Header: 
Note: 

Init E (V) = 0
High Frequency (Hz) = 1e+6
Low Frequency (Hz) = 0.1
Imp SF
Amplitude (V) = 0.005
Quiet Time (sec) = 2
Cycles (.1-1Hz) = 1

Freq/Hz, Z'/ohm, Z"/ohm, Z/ohm, Phase/deg

8.252e+5, 2.541e+1, 1.086e+1, 2.763e+1, 23.1
6.816e+5, 2.511e+1, 8.604e+0, 2.655e+1, 18.9
5.625e+5, 2.464e+1, 7.101e+0, 2.564e+1, 16.1
4.639e+5, 2.464e+1, 5.706e+0, 2.530e+1, 13.0
3.828e+5, 2.466e+1, 4.713e+0, 2.511e+1, 10.8
3.164e+5, 2.476e+1, 3.720e+0, 2.503e+1, 8.5
2.607e+5, 2.475e+1, 2.843e+0, 2.492e+1, 6.6
2.158e+5, 2.473e+1, 2.143e+0, 2.483e+1, 5.0
1.777e+5, 2.478e+1, 1.496e+0, 2.483e+1, 3.5
1.465e+5, 2.482e+1, 1.033e+0, 2.484e+1, 2.4
1.211e+5, 2.477e+1, 8.102e-1, 2.478e+1, 1.9
9.961e+4, 2.476e+1, 6.361e-1, 2.477e+1, 1.5
8.252e+4, 2.475e+1, 4.685e-1, 2.476e+1, 1.1
6.812e+4, 2.476e+1, 2.609e-1, 2.476e+1, 0.6
5.625e+4, 2.477e+1, 2.284e-2, 2.477e+1, 0.1
4.644e+4, 2.483e+1, -2.429e-1, 2.483e+1, -0.6
3.833e+4, 2.491e+1, -4.925e-1, 2.492e+1, -1.1
3.164e+4, 2.499e+1, -7.243e-1, 2.500e+1, -1.7
2.612e+4, 2.507e+1, -9.500e-1, 2.509e+1, -2.2
2.153e+4, 2.517e+1, -9.679e-1, 2.519e+1, -2.2
1.777e+4, 2.528e+1, -9.140e-1, 2.529e+1, -2.1
1.470e+4, 2.536e+1, -1.075e+0, 2.538e+1, -2.4
1.211e+4, 2.546e+1, -1.419e+0, 2.550e+1, -3.2
1.001e+4, 2.557e+1, -1.909e+0, 2.564e+1, -4.3
8.252e+3, 2.572e+1, -2.460e+0, 2.583e+1, -5.5
6.812e+3, 2.587e+1, -3.061e+0, 2.606e+1, -6.7
5.625e+3, 2.605e+1, -3.715e+0, 2.631e+1, -8.1
4.643e+3, 2.624e+1, -4.449e+0, 2.662e+1, -9.6
3.833e+3, 2.645e+1, -5.292e+0, 2.698e+1, -11.3
3.164e+3, 2.669e+1, -6.267e+0, 2.741e+1, -13.2
2.612e+3, 2.695e+1, -7.408e+0, 2.795e+1, -15.4
2.153e+3, 2.725e+1, -8.755e+0, 2.863e+1, -17.8
1.777e+3, 2.760e+1, -1.034e+1, 2.947e+1, -20.5
1.470e+3, 2.799e+1, -1.222e+1, 3.054e+1, -23.6
1.211e+3, 2.843e+1, -1.444e+1, 3.188e+1, -26.9
1.001e+3, 2.895e+1, -1.704e+1, 3.359e+1, -30.5
8.252e+2, 2.956e+1, -2.011e+1, 3.575e+1, -34.2
6.836e+2, 3.028e+1, -2.379e+1, 3.851e+1, -38.2
5.615e+2, 3.113e+1, -2.821e+1, 4.201e+1, -42.2
4.639e+2, 3.213e+1, -3.351e+1, 4.642e+1, -46.2
3.809e+2, 3.330e+1, -3.969e+1, 5.181e+1, -50.0
3.174e+2, 3.471e+1, -4.704e+1, 5.846e+1, -53.6
2.588e+2, 3.638e+1, -5.576e+1, 6.658e+1, -56.9
2.148e+2, 3.839e+1, -6.615e+1, 7.648e+1, -59.9
1.758e+2, 4.072e+1, -7.835e+1, 8.830e+1, -62.5
1.465e+2, 4.332e+1, -9.228e+1, 1.019e+2, -64.9
1.221e+2, 4.647e+1, -1.095e+2, 1.189e+2, -67.0
9.766e+1, 5.050e+1, -1.296e+2, 1.391e+2, -68.7
8.254e+1, 5.515e+1, -1.526e+2, 1.623e+2, -70.1
6.813e+1, 6.011e+1, -1.805e+2, 1.902e+2, -71.6
5.623e+1, 6.538e+1, -2.137e+2, 2.235e+2, -73.0
4.642e+1, 7.123e+1, -2.537e+2, 2.635e+2, -74.3
3.831e+1, 7.796e+1, -3.015e+2, 3.114e+2, -75.5
3.162e+1, 8.585e+1, -3.583e+2, 3.685e+2, -76.5
2.610e+1, 9.505e+1, -4.263e+2, 4.367e+2, -77.4
2.154e+1, 1.059e+2, -5.077e+2, 5.187e+2, -78.2
1.778e+1, 1.189e+2, -6.049e+2, 6.165e+2, -78.9
1.468e+1, 1.344e+2, -7.210e+2, 7.334e+2, -79.4
1.212e+1, 1.530e+2, -8.594e+2, 8.729e+2, -79.9
1.000e+1, 1.756e+2, -1.025e+3, 1.040e+3, -80.3
8.254e+0, 2.026e+2, -1.223e+3, 1.239e+3, -80.6
6.813e+0, 2.343e+2, -1.459e+3, 1.477e+3, -80.9
5.623e+0, 2.714e+2, -1.740e+3, 1.761e+3, -81.1
4.642e+0, 3.160e+2, -2.077e+3, 2.101e+3, -81.3
3.831e+0, 3.700e+2, -2.476e+3, 2.504e+3, -81.5
3.162e+0, 4.322e+2, -2.955e+3, 2.986e+3, -81.7
2.610e+0, 5.058e+2, -3.526e+3, 3.562e+3, -81.8
2.154e+0, 5.828e+2, -4.218e+3, 4.258e+3, -82.1
1.778e+0, 6.691e+2, -5.049e+3, 5.093e+3, -82.5
1.468e+0, 7.838e+2, -6.031e+3, 6.081e+3, -82.6
1.212e+0, 9.341e+2, -7.191e+3, 7.251e+3, -82.6
1.000e+0, 1.126e+3, -8.559e+3, 8.632e+3, -82.5
8.254e-1, 1.362e+3, -1.017e+4, 1.026e+4, -82.4
6.813e-1, 1.642e+3, -1.208e+4, 1.219e+4, -82.3
5.623e-1, 1.973e+3, -1.434e+4, 1.447e+4, -82.2
4.642e-1, 2.365e+3, -1.704e+4, 1.720e+4, -82.1
3.831e-1, 2.845e+3, -2.023e+4, 2.043e+4, -82.0
3.162e-1, 3.437e+3, -2.399e+4, 2.424e+4, -81.8
2.610e-1, 4.156e+3, -2.847e+4, 2.877e+4, -81.7
2.154e-1, 4.983e+3, -3.380e+4, 3.416e+4, -81.6
1.778e-1, 5.943e+3, -4.010e+4, 4.053e+4, -81.6
1.468e-1, 7.081e+3, -4.749e+4, 4.801e+4, -81.5
1.212e-1, 8.452e+3, -5.623e+4, 5.686e+4, -81.5
1.000e-1, 1.009e+4, -6.640e+4, 6.716e+4, -81.4
