June 15, 2026   17:11:08
A.C. Impedance
File: e:\chi_data\6.13Data Source:  Experiment
Instrument Model:  CHI660E
Header: 
Note: 

Init E (V) = 0
High Frequency (Hz) = 1e+6
Low Frequency (Hz) = 0.1
Imp SF
Amplitude (V) = 0.005
Quiet Time (sec) = 2
Cycles (.1-1Hz) = 1

Freq/Hz, Z'/ohm, Z"/ohm, Z/ohm, Phase/deg

8.252e+5, 9.302e+1, -7.032e+2, 7.093e+2, -82.5
6.816e+5, 1.102e+2, -8.948e+2, 9.016e+2, -83.0
5.625e+5, 1.268e+2, -1.104e+3, 1.112e+3, -83.5
4.639e+5, 1.753e+2, -1.363e+3, 1.374e+3, -82.7
3.828e+5, 2.284e+2, -1.664e+3, 1.680e+3, -82.2
3.164e+5, 2.942e+2, -2.018e+3, 2.040e+3, -81.7
2.607e+5, 3.624e+2, -2.421e+3, 2.448e+3, -81.5
2.158e+5, 4.630e+2, -2.908e+3, 2.945e+3, -81.0
1.777e+5, 5.828e+2, -3.527e+3, 3.574e+3, -80.6
1.465e+5, 7.776e+2, -4.213e+3, 4.284e+3, -79.5
1.211e+5, 1.078e+3, -4.949e+3, 5.065e+3, -77.7
9.961e+4, 1.522e+3, -5.861e+3, 6.055e+3, -75.4
8.252e+4, 2.093e+3, -6.879e+3, 7.191e+3, -73.1
6.812e+4, 2.681e+3, -8.064e+3, 8.498e+3, -71.6
5.625e+4, 3.335e+3, -9.474e+3, 1.004e+4, -70.6
4.644e+4, 4.226e+3, -1.095e+4, 1.174e+4, -68.9
3.833e+4, 5.373e+3, -1.258e+4, 1.368e+4, -66.9
3.164e+4, 6.939e+3, -1.436e+4, 1.595e+4, -64.2
2.612e+4, 8.822e+3, -1.635e+4, 1.858e+4, -61.6
2.153e+4, 1.090e+4, -1.886e+4, 2.179e+4, -60.0
1.777e+4, 1.283e+4, -2.096e+4, 2.458e+4, -58.5
1.470e+4, 1.547e+4, -2.265e+4, 2.743e+4, -55.7
1.211e+4, 2.094e+4, -2.564e+4, 3.311e+4, -50.8
1.001e+4, 2.737e+4, -2.899e+4, 3.987e+4, -46.6
8.252e+3, 3.276e+4, -3.115e+4, 4.521e+4, -43.6
6.812e+3, 3.791e+4, -3.230e+4, 4.980e+4, -40.4
5.625e+3, 4.319e+4, -3.284e+4, 5.425e+4, -37.2
4.643e+3, 4.870e+4, -3.242e+4, 5.850e+4, -33.7
3.833e+3, 5.423e+4, -3.105e+4, 6.249e+4, -29.8
3.164e+3, 5.931e+4, -2.927e+4, 6.614e+4, -26.3
2.612e+3, 6.366e+4, -2.752e+4, 6.936e+4, -23.4
2.153e+3, 6.695e+4, -2.595e+4, 7.180e+4, -21.2
1.777e+3, 6.972e+4, -2.376e+4, 7.366e+4, -18.8
1.470e+3, 7.263e+4, -2.165e+4, 7.579e+4, -16.6
1.211e+3, 7.510e+4, -1.994e+4, 7.770e+4, -14.9
1.001e+3, 7.466e+4, -1.736e+4, 7.665e+4, -13.1
8.252e+2, 7.234e+4, -1.454e+4, 7.378e+4, -11.4
6.836e+2, 7.116e+4, -1.277e+4, 7.229e+4, -10.2
5.615e+2, 7.147e+4, -1.191e+4, 7.246e+4, -9.5
4.639e+2, 7.299e+4, -1.173e+4, 7.393e+4, -9.1
3.809e+2, 7.496e+4, -1.206e+4, 7.593e+4, -9.1
3.174e+2, 7.695e+4, -1.233e+4, 7.793e+4, -9.1
2.588e+2, 7.841e+4, -1.228e+4, 7.936e+4, -8.9
2.148e+2, 8.060e+4, -1.329e+4, 8.169e+4, -9.4
1.758e+2, 8.269e+4, -1.476e+4, 8.400e+4, -10.1
1.465e+2, 8.370e+4, -1.518e+4, 8.506e+4, -10.3
1.221e+2, 8.486e+4, -1.442e+4, 8.607e+4, -9.6
9.766e+1, 8.628e+4, -1.277e+4, 8.722e+4, -8.4
8.254e+1, 8.790e+4, -1.128e+4, 8.862e+4, -7.3
6.813e+1, 8.949e+4, -1.045e+4, 9.009e+4, -6.7
5.623e+1, 9.106e+4, -1.007e+4, 9.162e+4, -6.3
4.642e+1, 9.249e+4, -9.956e+3, 9.302e+4, -6.1
3.831e+1, 9.370e+4, -1.007e+4, 9.424e+4, -6.1
3.162e+1, 9.481e+4, -1.034e+4, 9.537e+4, -6.2
2.610e+1, 9.592e+4, -1.060e+4, 9.650e+4, -6.3
2.154e+1, 9.713e+4, -1.080e+4, 9.773e+4, -6.3
1.778e+1, 9.836e+4, -1.109e+4, 9.899e+4, -6.4
1.468e+1, 9.963e+4, -1.157e+4, 1.003e+5, -6.6
1.212e+1, 1.007e+5, -1.184e+4, 1.014e+5, -6.7
1.000e+1, 1.020e+5, -1.214e+4, 1.027e+5, -6.8
8.254e+0, 1.037e+5, -1.294e+4, 1.045e+5, -7.1
6.813e+0, 1.056e+5, -1.409e+4, 1.065e+5, -7.6
5.623e+0, 1.076e+5, -1.540e+4, 1.087e+5, -8.1
4.642e+0, 1.093e+5, -1.660e+4, 1.106e+5, -8.6
3.831e+0, 1.113e+5, -1.793e+4, 1.127e+5, -9.2
3.162e+0, 1.138e+5, -1.941e+4, 1.154e+5, -9.7
2.610e+0, 1.164e+5, -2.106e+4, 1.183e+5, -10.3
2.154e+0, 1.195e+5, -2.293e+4, 1.217e+5, -10.9
1.778e+0, 1.232e+5, -2.503e+4, 1.257e+5, -11.5
1.468e+0, 1.268e+5, -2.740e+4, 1.297e+5, -12.2
1.212e+0, 1.302e+5, -3.001e+4, 1.336e+5, -13.0
1.000e+0, 1.335e+5, -3.283e+4, 1.374e+5, -13.8
8.254e-1, 1.367e+5, -3.607e+4, 1.413e+5, -14.8
6.813e-1, 1.398e+5, -3.987e+4, 1.454e+5, -15.9
5.623e-1, 1.433e+5, -4.428e+4, 1.500e+5, -17.2
4.642e-1, 1.473e+5, -4.938e+4, 1.554e+5, -18.5
3.831e-1, 1.518e+5, -5.519e+4, 1.615e+5, -20.0
3.162e-1, 1.566e+5, -6.185e+4, 1.684e+5, -21.6
2.610e-1, 1.618e+5, -6.940e+4, 1.761e+5, -23.2
2.154e-1, 1.676e+5, -7.805e+4, 1.849e+5, -25.0
1.778e-1, 1.739e+5, -8.795e+4, 1.949e+5, -26.8
1.468e-1, 1.819e+5, -9.982e+4, 2.075e+5, -28.8
1.212e-1, 1.911e+5, -1.137e+5, 2.224e+5, -30.7
1.000e-1, 2.007e+5, -1.293e+5, 2.387e+5, -32.8
