June 15, 2026   14:49:51
A.C. Impedance
File: e:\chi_data\6.13Data Source:  Experiment
Instrument Model:  CHI660E
Header: 
Note: 

Init E (V) = 0
High Frequency (Hz) = 1e+6
Low Frequency (Hz) = 0.1
Imp SF
Amplitude (V) = 0.005
Quiet Time (sec) = 2
Cycles (.1-1Hz) = 1

Freq/Hz, Z'/ohm, Z"/ohm, Z/ohm, Phase/deg

8.252e+5, 4.692e+1, 3.366e+0, 4.704e+1, 4.1
6.816e+5, 4.702e+1, 1.170e+0, 4.703e+1, 1.4
5.625e+5, 4.669e+1, 6.644e-1, 4.670e+1, 0.8
4.639e+5, 4.718e+1, -1.727e-1, 4.718e+1, -0.2
3.828e+5, 4.762e+1, -4.171e-1, 4.763e+1, -0.5
3.164e+5, 4.817e+1, -8.394e-1, 4.818e+1, -1.0
2.607e+5, 4.853e+1, -1.134e+0, 4.854e+1, -1.3
2.158e+5, 4.885e+1, -1.503e+0, 4.887e+1, -1.8
1.777e+5, 4.920e+1, -1.988e+0, 4.924e+1, -2.3
1.465e+5, 4.957e+1, -2.452e+0, 4.963e+1, -2.8
1.211e+5, 4.988e+1, -2.787e+0, 4.996e+1, -3.2
9.961e+4, 5.018e+1, -2.046e+0, 5.022e+1, -2.3
8.252e+4, 5.052e+1, -8.122e-1, 5.053e+1, -0.9
6.812e+4, 5.096e+1, -5.954e-1, 5.097e+1, -0.7
5.625e+4, 5.142e+1, -1.170e+0, 5.143e+1, -1.3
4.644e+4, 5.194e+1, -2.321e+0, 5.199e+1, -2.6
3.833e+4, 5.257e+1, -3.551e+0, 5.269e+1, -3.9
3.164e+4, 5.326e+1, -4.728e+0, 5.347e+1, -5.1
2.612e+4, 5.407e+1, -5.826e+0, 5.439e+1, -6.1
2.153e+4, 5.499e+1, -6.842e+0, 5.542e+1, -7.1
1.777e+4, 5.600e+1, -7.778e+0, 5.653e+1, -7.9
1.470e+4, 5.710e+1, -8.721e+0, 5.776e+1, -8.7
1.211e+4, 5.828e+1, -9.688e+0, 5.908e+1, -9.4
1.001e+4, 5.955e+1, -1.070e+1, 6.051e+1, -10.2
8.252e+3, 6.092e+1, -1.175e+1, 6.204e+1, -10.9
6.812e+3, 6.240e+1, -1.284e+1, 6.371e+1, -11.6
5.625e+3, 6.398e+1, -1.399e+1, 6.549e+1, -12.3
4.643e+3, 6.567e+1, -1.519e+1, 6.740e+1, -13.0
3.833e+3, 6.748e+1, -1.645e+1, 6.945e+1, -13.7
3.164e+3, 6.941e+1, -1.778e+1, 7.165e+1, -14.4
2.612e+3, 7.143e+1, -1.920e+1, 7.397e+1, -15.0
2.153e+3, 7.358e+1, -2.076e+1, 7.645e+1, -15.8
1.777e+3, 7.586e+1, -2.248e+1, 7.912e+1, -16.5
1.470e+3, 7.828e+1, -2.438e+1, 8.199e+1, -17.3
1.211e+3, 8.084e+1, -2.648e+1, 8.507e+1, -18.1
1.001e+3, 8.354e+1, -2.872e+1, 8.834e+1, -19.0
8.252e+2, 8.637e+1, -3.119e+1, 9.183e+1, -19.9
6.836e+2, 8.936e+1, -3.407e+1, 9.563e+1, -20.9
5.615e+2, 9.247e+1, -3.745e+1, 9.977e+1, -22.0
4.639e+2, 9.576e+1, -4.139e+1, 1.043e+2, -23.4
3.809e+2, 9.920e+1, -4.585e+1, 1.093e+2, -24.8
3.174e+2, 1.029e+2, -5.101e+1, 1.148e+2, -26.4
2.588e+2, 1.068e+2, -5.701e+1, 1.210e+2, -28.1
2.148e+2, 1.109e+2, -6.402e+1, 1.281e+2, -30.0
1.758e+2, 1.153e+2, -7.216e+1, 1.360e+2, -32.0
1.465e+2, 1.199e+2, -8.139e+1, 1.449e+2, -34.2
1.221e+2, 1.249e+2, -9.267e+1, 1.555e+2, -36.6
9.766e+1, 1.308e+2, -1.056e+2, 1.681e+2, -38.9
8.254e+1, 1.371e+2, -1.205e+2, 1.825e+2, -41.3
6.813e+1, 1.438e+2, -1.387e+2, 1.998e+2, -44.0
5.623e+1, 1.508e+2, -1.604e+2, 2.202e+2, -46.8
4.642e+1, 1.583e+2, -1.865e+2, 2.446e+2, -49.7
3.831e+1, 1.665e+2, -2.175e+2, 2.739e+2, -52.6
3.162e+1, 1.759e+2, -2.543e+2, 3.092e+2, -55.3
2.610e+1, 1.864e+2, -2.979e+2, 3.514e+2, -58.0
2.154e+1, 1.983e+2, -3.497e+2, 4.020e+2, -60.4
1.778e+1, 2.119e+2, -4.111e+2, 4.625e+2, -62.7
1.468e+1, 2.275e+2, -4.839e+2, 5.347e+2, -64.8
1.212e+1, 2.458e+2, -5.702e+2, 6.209e+2, -66.7
1.000e+1, 2.675e+2, -6.727e+2, 7.240e+2, -68.3
8.254e+0, 2.927e+2, -7.948e+2, 8.470e+2, -69.8
6.813e+0, 3.215e+2, -9.402e+2, 9.936e+2, -71.1
5.623e+0, 3.545e+2, -1.113e+3, 1.168e+3, -72.3
4.642e+0, 3.932e+2, -1.318e+3, 1.376e+3, -73.4
3.831e+0, 4.390e+2, -1.562e+3, 1.622e+3, -74.3
3.162e+0, 4.926e+2, -1.852e+3, 1.917e+3, -75.1
2.610e+0, 5.582e+2, -2.198e+3, 2.267e+3, -75.7
2.154e+0, 6.296e+2, -2.619e+3, 2.694e+3, -76.5
1.778e+0, 7.131e+2, -3.124e+3, 3.204e+3, -77.1
1.468e+0, 8.233e+2, -3.702e+3, 3.793e+3, -77.5
1.212e+0, 9.662e+2, -4.369e+3, 4.475e+3, -77.5
1.000e+0, 1.151e+3, -5.142e+3, 5.269e+3, -77.4
8.254e-1, 1.378e+3, -6.039e+3, 6.194e+3, -77.1
6.813e-1, 1.644e+3, -7.078e+3, 7.267e+3, -76.9
5.623e-1, 1.948e+3, -8.294e+3, 8.520e+3, -76.8
4.642e-1, 2.297e+3, -9.719e+3, 9.986e+3, -76.7
3.831e-1, 2.697e+3, -1.138e+4, 1.169e+4, -76.7
3.162e-1, 3.151e+3, -1.332e+4, 1.368e+4, -76.7
2.610e-1, 3.666e+3, -1.559e+4, 1.602e+4, -76.8
2.154e-1, 4.245e+3, -1.827e+4, 1.876e+4, -76.9
1.778e-1, 4.882e+3, -2.144e+4, 2.199e+4, -77.2
1.468e-1, 5.595e+3, -2.518e+4, 2.579e+4, -77.5
1.212e-1, 6.413e+3, -2.958e+4, 3.026e+4, -77.8
1.000e-1, 7.334e+3, -3.468e+4, 3.544e+4, -78.1
