EXPLAIN
TAG	EISPOT
TITLE	LABEL	Potentiostatic EIS	Test Identifier
DATE	LABEL	8/10/2020	Date
TIME	LABEL	8:54:48	Time
NOTES	NOTES	1	Notes...
	
PSTAT	PSTAT	REF3000-16137	Potentiostat
VDC	POTEN	0.00000E+000	T	DC Voltage (V)
FREQINIT	QUANT	3.00000E+005	Initial Freq. (Hz)
FREQFINAL	QUANT	1.00000E+000	Final Freq. (Hz)
PTSPERDEC	QUANT	1.00000E+001	Points/decade
VAC	QUANT	5.00000E+001	AC Voltage (mV rms)
AREA	QUANT	1.00000E+000	Sample Area (cm^2)
SPEED	SELECTOR	2	Optimize for:
ZGUESS	QUANT	1.00000E+003	Estimated Z (ohms)
EOC	QUANT	0	Open Circuit (V)
SEQUENCER	TOGGLE	TRUE	Run as Sequence
PSTATMODEL	IQUANT	5	Pstat Model
PSTATSECTION	LABEL	REF3000-16137	Pstat Section
PSTATSERIALNO	LABEL	16137	Pstat Serial Number
CTRLMODE	IQUANT	1	Control Mode
IESTAB	IQUANT	0	I/E Stability
CASPEED	IQUANT	1	Control Amp Speed
CONVENTION	IQUANT	1	Current Convention
ICHRANGE	IQUANT	2	Ich Range
ICHRANGEMODE	TOGGLE	F	Ich Auto Range
ICHOFFSETENABLE	TOGGLE	T	Ich Offset Enable
ICHOFFSET	QUANT	0	Ich Offset (V)
ICHFILTER	IQUANT	3	Ich Filter
VCHRANGE	IQUANT	2	Vch Range
VCHRANGEMODE	TOGGLE	F	Vch Auto Range
VCHOFFSETENABLE	TOGGLE	T	Vch Offset Enable
VCHOFFSET	QUANT	0	Vch Offset (V)
VCHFILTER	IQUANT	3	Vch Filter
ACHRANGE	IQUANT	2	Ach Range
ACHOFFSETENABLE	TOGGLE	F	Ach Offset Enable
ACHOFFSET	QUANT	0	Ach Offset (V)
ACHFILTER	IQUANT	3	Ach Filter
IERANGELOWERLIMIT	IQUANT	2	I/E Range Lower Limit
IERANGEMODE	TOGGLE	F	I/E AutoRange
IERANGE	IQUANT	11	I/E Range
POSFEEDENABLE	TOGGLE	F	Positive Feedback IR Comp
POSFEEDRESISTANCE	QUANT	0	Positive Feedback Resistance (ohm)
ACHSELECT	IQUANT	0	Ach Select
CABLEID	IQUANT	13	Cable ID
DCCALDATE	LABEL	7/31/2020	DC Calibration Date
ACCALDATE	LABEL	7/31/2020	AC Calibration Date
THERMOSELECT	IQUANT	1	Thermo Select
FRAMEWORKVERSION	QUANT	6.33	Framework Version
INSTRUMENTVERSION	LABEL	3.50	Instrument Version
COMPLIANCEVOLTAGE	IQUANT	0	Compliance Voltage
ZCURVE	TABLE
	Pt	Time	Freq	Zreal	Zimag	Zsig	Zmod	Zphz	Idc	Vdc	IERange
	#	s	Hz	ohm	ohm	V	ohm	°	A	V	#
	0	8	300046.9	266.6223	-23.7851	1	267.6811	-5.097804	-3.154362E-005	0.000187	10
	1	12	238359.4	275.6837	-16.2673	1	276.1632	-3.376944	-1.967286E-005	0.0014109	9
	2	17	189328.1	287.97	-14.92584	1	288.3565	-2.967057	9.290927E-006	0.0013305	9
	3	24	150421.9	301.2231	-17.10852	1	301.7086	-3.250726	-1.80816E-005	0.0006384	10
	4	30	119484.4	311.4458	-13.0667	1	311.7198	-2.402434	-8.522274E-005	0.0022781	9
	5	34	94921.88	321.5231	-12.54568	1	321.7677	-2.234521	1.692443E-007	0.0006834	9
	6	38	75421.88	327.0952	-11.45293	1	327.2956	-2.005339	2.372139E-005	-0.0009119	9
	7	41	59859.37	334.7505	-11.14421	1	334.936	-1.906734	-2.623749E-005	0.0008205	9
	8	43	47578.12	340.067	-10.92172	1	340.2423	-1.8395	-2.505158E-005	0.0009264	9
	9	46	37828.12	345.9139	-10.85504	1	346.0842	-1.797396	8.316524E-006	-0.0006892	9
	10	48	30046.88	352.85	-11.1963	1	353.0276	-1.817445	-8.617482E-006	-0.0002189	9
	11	51	23859.38	361.2875	-12.39982	1	361.5002	-1.965688	-9.825039E-006	-0.0001988	9
	12	54	18984.38	368.5583	-12.33354	1	368.7646	-1.916648	-2.486888E-005	0.0009361	9
	13	56	15046.87	375.0185	-13.41994	1	375.2585	-2.049441	-2.397041E-005	0.0010299	9
	14	58	11953.13	383.1613	-13.36758	1	383.3944	-1.998101	-1.007624E-005	0.0009237	9
	15	61	9515.62	388.7433	-13.28163	1	388.9701	-1.956781	-2.494732E-006	-0.0017091	8
	16	63	7546.875	396.7499	-14.86874	1	397.0284	-2.146232	-1.164807E-005	0.0062119	8
	17	65	5928.309	403.8575	-15.33962	1	404.1487	-2.175206	1.494184E-005	-0.0041689	8
	18	68	4733.456	412.0631	-15.50672	1	412.3548	-2.155132	1.431706E-005	-0.0021628	8
	19	70	3796.875	419.1169	-16.81145	1	419.4539	-2.296993	-1.414521E-005	0.0049536	8
	20	72	2987.132	429.7859	-19.16805	1	430.2131	-2.553647	-1.375129E-005	0.0038881	8
	21	75	2390.625	439.9811	-19.56852	1	440.4161	-2.546598	-6.936048E-006	-0.0002029	8
	22	77	1884.191	449.0086	-19.51278	1	449.4324	-2.488364	1.429303E-005	-0.0050215	8
	23	79	1516.544	458.5222	-22.55553	1	459.0767	-2.816213	6.668195E-006	0.0018674	8
	24	81	1193.986	467.9174	-23.14227	1	468.4893	-2.831429	-1.111833E-005	0.0016495	8
	25	84	946.5144	481.1101	-23.75166	1	481.696	-2.826309	-7.455938E-006	-0.0001367	8
	26	86	751.7689	489.0112	-25.09359	1	489.6546	-2.937554	1.491734E-005	-0.0022045	8
	27	89	597.4265	496.2898	-28.68549	1	497.1181	-3.308008	1.624279E-005	-0.0044491	8
	28	91	477.4305	502.8916	-32.33094	1	503.9298	-3.678488	-8.54664E-008	0.0006486	8
	29	93	376.6741	511.8958	-36.97763	1	513.2296	-4.131678	-9.141154E-008	0.0006499	8
	30	96	298.2954	520.9285	-42.91917	1	522.6935	-4.709948	-6.016414E-008	0.0006308	8
	31	98	237.7717	529.6542	-50.20234	1	532.0281	-5.414503	-9.526261E-008	0.0006544	8
	32	100	189.0121	540.1168	-59.74327	1	543.4109	-6.311929	-1.016138E-007	0.0006593	8
	33	103	150.2404	548.8974	-71.50793	1	553.5356	-7.42244	-1.000348E-007	0.0006533	8
	34	105	119.1737	564.1665	-86.9769	1	570.8317	-8.764223	-9.831307E-008	0.0006556	8
	35	107	95.0169	570.4658	-104.752	1	580.0036	-10.40504	-8.756243E-008	0.0006506	8
	36	110	75.60484	579.0844	-127.2156	1	592.8933	-12.39015	-8.410918E-008	0.0006472	8
	37	113	54.50582	597.4828	-169.3134	1	621.0094	-15.82155	-1.073551E-007	0.000656	8
	38	115	45.95588	611.6061	-196.8073	1	642.4913	-17.83754	-8.626553E-008	0.0006528	8
	39	117	37.20238	626.162	-236.901	1	669.4781	-20.72354	-1.181549E-007	0.0006654	8
	40	120	30.04808	645.407	-285.9159	1	705.9023	-23.89339	-7.262143E-008	0.0006478	8
	41	122	23.91582	665.3204	-349.449	1	751.509	-27.70999	-1.526736E-007	0.0007064	8
	42	125	18.60119	688.9801	-435.9394	1	815.3138	-32.32282	2.418695E-008	0.0006402	8
	43	127	15.02404	717.7755	-525.8177	1	889.7674	-36.22523	-4.976701E-009	0.0006484	8
	44	129	12.01923	746.7416	-640.153	1	983.575	-40.60522	-9.436999E-008	0.0006796	8
	45	132	9.450605	785.7734	-791.456	1	1115.277	-45.20643	-1.946215E-007	0.0006725	8
	46	134	7.512019	826.0887	-971.46	1	1275.209	-49.62356	-1.38363E-007	0.0006523	8
	47	137	5.978954	873.6087	-1190.39	1	1476.557	-53.72563	-7.175782E-008	0.0006431	8
	48	140	4.734848	936.6613	-1468.869	1	1742.099	-57.47535	-1.136954E-007	0.0006629	8
	49	143	3.75601	1009.055	-1810.748	1	2072.921	-60.87088	-1.227207E-007	0.0006567	8
	50	147	3.004808	1094.542	-2216.873	1	2472.357	-63.72296	-1.249042E-007	0.0006695	8
	51	150	2.372217	2798.601	-2877.796	1	4014.21	-45.79932	-2.731254E-007	0.0007055	8
	52	155	1.878005	2108.968	-3426.92	1	4023.87	-58.39136	-2.816517E-008	0.0006018	7
	53	160	1.512097	2152.689	-4168	1	4691.087	-62.68455	-2.99009E-008	0.0007154	7
	54	165	1.201923	2325.798	-5157.369	1	5657.543	-65.72624	-3.879264E-008	0.0005968	7
	55	171	0.956633	2548.049	-6365.991	1	6856.997	-68.18577	-5.657278E-008	-1.426209E-005	7
