EXPLAIN
TAG	EISPOT
TITLE	LABEL	Potentiostatic EIS	Test Identifier
DATE	LABEL	8/10/2020	Date
TIME	LABEL	8:46:31	Time
NOTES	NOTES	1	Notes...
	
PSTAT	PSTAT	REF3000-16137	Potentiostat
VDC	POTEN	0.00000E+000	T	DC Voltage (V)
FREQINIT	QUANT	3.00000E+005	Initial Freq. (Hz)
FREQFINAL	QUANT	1.00000E+000	Final Freq. (Hz)
PTSPERDEC	QUANT	1.00000E+001	Points/decade
VAC	QUANT	5.00000E+001	AC Voltage (mV rms)
AREA	QUANT	1.00000E+000	Sample Area (cm^2)
SPEED	SELECTOR	2	Optimize for:
ZGUESS	QUANT	1.00000E+003	Estimated Z (ohms)
EOC	QUANT	0	Open Circuit (V)
SEQUENCER	TOGGLE	TRUE	Run as Sequence
PSTATMODEL	IQUANT	5	Pstat Model
PSTATSECTION	LABEL	REF3000-16137	Pstat Section
PSTATSERIALNO	LABEL	16137	Pstat Serial Number
CTRLMODE	IQUANT	1	Control Mode
IESTAB	IQUANT	0	I/E Stability
CASPEED	IQUANT	1	Control Amp Speed
CONVENTION	IQUANT	1	Current Convention
ICHRANGE	IQUANT	2	Ich Range
ICHRANGEMODE	TOGGLE	F	Ich Auto Range
ICHOFFSETENABLE	TOGGLE	T	Ich Offset Enable
ICHOFFSET	QUANT	0	Ich Offset (V)
ICHFILTER	IQUANT	3	Ich Filter
VCHRANGE	IQUANT	2	Vch Range
VCHRANGEMODE	TOGGLE	F	Vch Auto Range
VCHOFFSETENABLE	TOGGLE	T	Vch Offset Enable
VCHOFFSET	QUANT	0	Vch Offset (V)
VCHFILTER	IQUANT	3	Vch Filter
ACHRANGE	IQUANT	2	Ach Range
ACHOFFSETENABLE	TOGGLE	F	Ach Offset Enable
ACHOFFSET	QUANT	0	Ach Offset (V)
ACHFILTER	IQUANT	3	Ach Filter
IERANGELOWERLIMIT	IQUANT	2	I/E Range Lower Limit
IERANGEMODE	TOGGLE	F	I/E AutoRange
IERANGE	IQUANT	11	I/E Range
POSFEEDENABLE	TOGGLE	F	Positive Feedback IR Comp
POSFEEDRESISTANCE	QUANT	0	Positive Feedback Resistance (ohm)
ACHSELECT	IQUANT	0	Ach Select
CABLEID	IQUANT	13	Cable ID
DCCALDATE	LABEL	7/31/2020	DC Calibration Date
ACCALDATE	LABEL	7/31/2020	AC Calibration Date
THERMOSELECT	IQUANT	1	Thermo Select
FRAMEWORKVERSION	QUANT	6.33	Framework Version
INSTRUMENTVERSION	LABEL	3.50	Instrument Version
COMPLIANCEVOLTAGE	IQUANT	0	Compliance Voltage
ZCURVE	TABLE
	Pt	Time	Freq	Zreal	Zimag	Zsig	Zmod	Zphz	Idc	Vdc	IERange
	#	s	Hz	ohm	ohm	V	ohm	°	A	V	#
	0	7	300046.9	25.16291	-2.277683	1	25.26578	-5.172175	-6.77166E-005	-0.0002519	11
	1	12	238359.4	25.8418	-2.660386	1	25.97838	-5.877832	1.553772E-005	0.0003347	10
	2	15	189328.1	26.61573	-3.416668	1	26.83413	-7.315069	-1.974416E-005	0.0006496	10
	3	19	150421.9	27.29484	-4.217859	1	27.61881	-8.784409	5.259938E-005	0.0006644	10
	4	21	119484.4	28.06214	-5.032532	1	28.50983	-10.16708	-4.343132E-006	0.0004693	10
	5	24	94921.88	28.95329	-5.954098	1	29.55917	-11.62058	2.070994E-005	0.0005915	10
	6	26	75421.88	29.92154	-6.982832	1	30.72554	-13.13609	-1.007284E-005	0.0006424	10
	7	29	59859.37	31.01797	-8.115832	1	32.06215	-14.6627	-2.358513E-005	0.0006962	10
	8	31	47578.12	32.27875	-9.402749	1	33.62037	-16.24076	-9.207758E-007	0.0007243	10
	9	34	37828.12	33.72208	-10.80491	1	35.4108	-17.766	2.518457E-005	0.000689	10
	10	36	30046.88	35.3504	-12.20648	1	37.39852	-19.04977	-2.399772E-006	0.0003436	9
	11	39	23859.38	37.24019	-13.94284	1	39.76474	-20.52605	7.54388E-006	-0.0002948	9
	12	41	18984.38	39.33261	-15.76146	1	42.37308	-21.83708	1.336146E-005	-0.0001296	9
	13	43	15046.87	41.70753	-17.70894	1	45.31142	-23.00599	9.377647E-006	-0.0002665	9
	14	46	11953.13	44.3811	-19.84094	1	48.61425	-24.08743	1.484604E-005	-0.0001146	9
	15	48	9515.62	47.2751	-21.98029	1	52.1351	-24.9358	-6.063971E-006	0.0005208	9
	16	50	7546.875	50.51109	-24.41587	1	56.10263	-25.79803	-1.285466E-005	0.0003855	9
	17	53	5928.309	54.15168	-27.04916	1	60.53149	-26.54247	-1.237493E-005	0.0005393	9
	18	55	4733.456	57.8758	-29.8	1	65.09721	-27.24374	1.022706E-005	1.448236E-005	9
	19	57	3796.875	61.89014	-32.92489	1	70.10306	-28.0125	-6.197542E-006	0.0005287	9
	20	60	2987.132	66.74018	-36.90548	1	76.26445	-28.94138	-1.022401E-005	0.0005428	9
	21	62	2390.625	71.61115	-40.68992	1	82.36398	-29.60552	-1.290653E-005	0.0003771	9
	22	64	1884.191	77.24976	-44.52182	1	89.16119	-29.9564	-1.1364E-005	0.0002402	9
	23	67	1516.544	83.49475	-48.97013	1	96.7959	-30.39186	-1.285591E-005	0.0004	9
	24	69	1193.986	90.98685	-53.3263	1	105.4623	-30.37406	-1.347817E-005	0.0004229	9
	25	71	946.5144	99.894	-58.58401	1	115.8055	-30.38998	3.519712E-006	0.0002053	9
	26	74	751.7689	109.5459	-62.848	1	126.294	-29.84348	1.793138E-005	-0.0003295	9
	27	76	597.4265	119.2101	-65.20872	1	135.8795	-28.67896	-1.355632E-005	0.0004997	9
	28	78	477.4305	129.4047	-67.4127	1	145.9111	-27.51703	1.421049E-006	7.632683E-005	9
	29	81	376.6741	140.162	-69.14632	1	156.2902	-26.25856	1.355428E-006	7.130962E-005	9
	30	83	298.2954	149.5275	-69.84844	1	165.0372	-25.03858	1.493352E-006	7.657E-005	9
	31	85	237.7717	156.8806	-70.18393	1	171.8642	-24.10239	1.424428E-006	7.538228E-005	9
	32	88	189.0121	166.2398	-73.3452	1	181.7008	-23.80713	1.443302E-006	7.64211E-005	9
	33	90	150.2404	173.8404	-77.20174	1	190.212	-23.94579	1.500165E-006	7.438689E-005	9
	34	93	119.1737	179.0337	-82.37255	1	197.0744	-24.70693	1.493591E-006	7.386316E-005	9
	35	95	95.0169	183.5881	-90.2388	1	204.567	-26.17543	1.487088E-006	7.490761E-005	9
	36	97	75.60484	188.3231	-101.6835	1	214.0213	-28.36646	1.460899E-006	6.990031E-005	9
	37	100	54.50582	197.2508	-125.6692	1	233.8817	-32.50134	1.47865E-006	7.66558E-005	9
	38	102	45.95588	200.9783	-141.9277	1	246.0401	-35.22914	9.873422E-007	0.0001357	9
	39	105	37.20238	208.673	-167.1545	1	267.3669	-38.69598	1.473112E-006	8.158718E-005	9
	40	107	30.04808	213.8128	-198.1995	1	291.5458	-42.8298	1.521437E-006	7.471251E-005	9
	41	110	23.91582	224.4735	-239.9689	1	328.5931	-46.91088	1.429343E-006	7.741543E-005	9
	42	112	18.60119	236.9222	-297.5231	1	380.3316	-51.46915	1.76794E-006	7.713422E-005	9
	43	114	15.02404	248.5967	-356.3872	1	434.5252	-55.10244	1.530441E-007	0.0006546	8
	44	117	12.01923	273.4803	-433.1929	1	512.2964	-57.73524	3.855896E-007	0.0006511	8
	45	119	9.450605	295.1127	-533.7544	1	609.9059	-61.06181	3.6954E-007	0.0006396	8
	46	121	7.512019	329.557	-651.2489	1	729.8856	-63.15883	5.393021E-007	0.0006595	8
	47	124	5.978954	372.3578	-792.2594	1	875.4	-64.82672	4.813748E-007	0.0006616	8
	48	127	4.734848	428.6953	-965.697	1	1056.575	-66.06245	3.965219E-007	0.0006583	8
	49	130	3.75601	498.3953	-1171.197	1	1272.831	-66.94813	4.426254E-007	0.0006586	8
	50	134	3.004808	582.5743	-1405.242	1	1521.216	-67.48246	3.509282E-007	0.000696	8
	51	138	2.372217	694.4988	-1700.399	1	1836.759	-67.78328	4.075281E-007	0.0007122	8
	52	142	1.878005	829.8537	-2046.787	1	2208.618	-67.93029	3.957917E-007	0.0006244	8
	53	147	1.512097	980.69	-2427.951	1	2618.53	-68.00539	3.979133E-007	0.0007462	8
	54	152	1.201923	1163.817	-2915.12	1	3138.852	-68.23641	4.037961E-007	0.000624	8
	55	158	0.956633	1375.181	-3495.392	1	3756.179	-68.52399	3.547465E-007	8.954308E-006	8
