EXPLAIN
TAG	EISPOT
TITLE	LABEL	Potentiostatic EIS	Test Identifier
DATE	LABEL	8/10/2020	Date
TIME	LABEL	8:49:18	Time
NOTES	NOTES	1	Notes...
	
PSTAT	PSTAT	REF3000-16137	Potentiostat
VDC	POTEN	0.00000E+000	T	DC Voltage (V)
FREQINIT	QUANT	3.00000E+005	Initial Freq. (Hz)
FREQFINAL	QUANT	1.00000E+000	Final Freq. (Hz)
PTSPERDEC	QUANT	1.00000E+001	Points/decade
VAC	QUANT	5.00000E+001	AC Voltage (mV rms)
AREA	QUANT	1.00000E+000	Sample Area (cm^2)
SPEED	SELECTOR	2	Optimize for:
ZGUESS	QUANT	1.00000E+003	Estimated Z (ohms)
EOC	QUANT	0	Open Circuit (V)
SEQUENCER	TOGGLE	TRUE	Run as Sequence
PSTATMODEL	IQUANT	5	Pstat Model
PSTATSECTION	LABEL	REF3000-16137	Pstat Section
PSTATSERIALNO	LABEL	16137	Pstat Serial Number
CTRLMODE	IQUANT	1	Control Mode
IESTAB	IQUANT	0	I/E Stability
CASPEED	IQUANT	1	Control Amp Speed
CONVENTION	IQUANT	1	Current Convention
ICHRANGE	IQUANT	2	Ich Range
ICHRANGEMODE	TOGGLE	F	Ich Auto Range
ICHOFFSETENABLE	TOGGLE	T	Ich Offset Enable
ICHOFFSET	QUANT	0	Ich Offset (V)
ICHFILTER	IQUANT	3	Ich Filter
VCHRANGE	IQUANT	2	Vch Range
VCHRANGEMODE	TOGGLE	F	Vch Auto Range
VCHOFFSETENABLE	TOGGLE	T	Vch Offset Enable
VCHOFFSET	QUANT	0	Vch Offset (V)
VCHFILTER	IQUANT	3	Vch Filter
ACHRANGE	IQUANT	2	Ach Range
ACHOFFSETENABLE	TOGGLE	F	Ach Offset Enable
ACHOFFSET	QUANT	0	Ach Offset (V)
ACHFILTER	IQUANT	3	Ach Filter
IERANGELOWERLIMIT	IQUANT	2	I/E Range Lower Limit
IERANGEMODE	TOGGLE	F	I/E AutoRange
IERANGE	IQUANT	11	I/E Range
POSFEEDENABLE	TOGGLE	F	Positive Feedback IR Comp
POSFEEDRESISTANCE	QUANT	0	Positive Feedback Resistance (ohm)
ACHSELECT	IQUANT	0	Ach Select
CABLEID	IQUANT	13	Cable ID
DCCALDATE	LABEL	7/31/2020	DC Calibration Date
ACCALDATE	LABEL	7/31/2020	AC Calibration Date
THERMOSELECT	IQUANT	1	Thermo Select
FRAMEWORKVERSION	QUANT	6.33	Framework Version
INSTRUMENTVERSION	LABEL	3.50	Instrument Version
COMPLIANCEVOLTAGE	IQUANT	0	Compliance Voltage
ZCURVE	TABLE
	Pt	Time	Freq	Zreal	Zimag	Zsig	Zmod	Zphz	Idc	Vdc	IERange
	#	s	Hz	ohm	ohm	V	ohm	°	A	V	#
	0	6	300046.9	48.38936	-1.829143	1	48.42392	-2.16478	-3.232085E-006	0.0002095	9
	1	10	238359.4	49.5281	-2.770728	1	49.60553	-3.201935	-1.267285E-005	-0.0010486	9
	2	13	189328.1	50.56361	-3.703024	1	50.69902	-4.188576	8.83578E-006	0.0003224	9
	3	15	150421.9	51.76588	-4.497781	1	51.96091	-4.965786	5.682924E-005	-0.0015471	9
	4	18	119484.4	52.90444	-5.55015	1	53.19477	-5.988935	7.977877E-006	-0.0009245	9
	5	20	94921.88	54.24501	-6.387984	1	54.61985	-6.716315	3.785536E-006	0.0002288	9
	6	23	75421.88	55.63411	-7.581505	1	56.14832	-7.760146	1.555099E-005	-0.0005996	9
	7	25	59859.37	57.2534	-8.947515	1	57.94834	-8.882292	-9.459855E-006	0.000105	9
	8	28	47578.12	59.03099	-10.35922	1	59.93306	-9.95336	1.137853E-005	3.841162E-005	9
	9	30	37828.12	61.10404	-11.97674	1	62.26673	-11.08971	1.056821E-005	3.632931E-005	9
	10	33	30046.88	63.32958	-13.6204	1	64.7777	-12.1378	-6.955336E-006	-5.741885E-005	9
	11	36	23859.38	65.85484	-15.41984	1	67.63602	-13.17834	-8.959266E-006	7.845795E-005	9
	12	38	18984.38	68.60349	-17.27609	1	70.74533	-14.13463	-1.507237E-005	0.0004281	9
	13	40	15046.87	71.7521	-19.2993	1	74.30226	-15.05466	-1.368975E-005	0.0002515	9
	14	42	11953.13	75.18906	-21.21036	1	78.12346	-15.75342	1.06396E-005	-0.0004991	9
	15	45	9515.62	79.00311	-23.33455	1	82.37714	-16.45516	1.763818E-005	-0.0003769	9
	16	47	7546.875	83.36063	-25.5503	1	87.18838	-17.04047	-1.786433E-005	0.0006835	9
	17	49	5928.309	88.21155	-27.78639	1	92.48438	-17.48428	1.996666E-005	-0.0005841	9
	18	52	4733.456	92.92676	-29.59126	1	97.5245	-17.66337	-3.019911E-006	-0.0001588	9
	19	54	3796.875	97.9498	-31.64314	1	102.9342	-17.90329	4.912649E-006	-0.0003848	9
	20	56	2987.132	103.6777	-33.88353	1	109.0741	-18.09822	-9.734756E-006	0.0006963	9
	21	59	2390.625	109.1002	-35.69842	1	114.7921	-18.1185	2.041568E-005	-0.0002507	9
	22	61	1884.191	114.736	-37.71852	1	120.7768	-18.19785	1.145032E-005	0.0001066	9
	23	63	1516.544	120.1781	-39.35211	1	126.457	-18.13095	1.792565E-005	-0.0001367	9
	24	66	1193.986	127.6487	-42.76622	1	134.6222	-18.52243	4.544015E-006	-0.0003863	9
	25	68	946.5144	132.9688	-43.88286	1	140.0229	-18.26412	4.382144E-006	-0.0003833	9
	26	70	751.7689	139.058	-45.75433	1	146.3919	-18.21278	-1.633519E-005	0.0004215	9
	27	73	597.4265	145.8226	-48.18845	1	153.5785	-18.28662	2.139826E-005	-0.0002896	9
	28	75	477.4305	153.7816	-51.27685	1	162.1052	-18.44042	1.433894E-006	7.189123E-005	9
	29	77	376.6741	159.8911	-53.19877	1	168.509	-18.40325	1.397873E-006	6.641395E-005	9
	30	80	298.2954	167.9945	-56.82388	1	177.3446	-18.68803	1.380948E-006	7.306298E-005	9
	31	82	237.7717	173.9844	-60.05397	1	184.0572	-19.04307	1.320752E-006	7.765301E-005	9
	32	84	189.0121	179.9887	-64.60249	1	191.2313	-19.74434	1.417132E-006	7.487844E-005	9
	33	87	150.2404	187.0241	-71.21309	1	200.1232	-20.84532	1.37368E-006	7.186054E-005	9
	34	89	119.1737	192.5068	-79.50528	1	208.2785	-22.44062	1.349363E-006	8.260289E-005	9
	35	92	95.0169	196.4465	-89.9978	1	216.0806	-24.61388	1.351555E-006	7.764779E-005	9
	36	94	75.60484	202.237	-104.4188	1	227.6029	-27.30817	1.322628E-006	7.636085E-005	9
	37	97	54.50582	209.9053	-132.2469	1	248.0917	-32.21221	9.3475E-007	0.0001216	9
	38	99	45.95588	215.6231	-151.2741	1	263.3954	-35.05223	1.445569E-006	7.327479E-005	9
	39	102	37.20238	222.0076	-179.5625	1	285.5347	-38.96635	1.442919E-006	7.405802E-005	9
	40	104	30.04808	229.7979	-214.8779	1	314.6102	-43.07831	1.46462E-006	6.402864E-005	9
	41	106	23.91582	239.8572	-261.4895	1	354.8355	-47.47069	1.249811E-006	7.59154E-005	9
	42	109	18.60119	253.1409	-324.5125	1	411.5685	-52.04344	3.000624E-007	0.0006631	8
	43	111	15.02404	267.0246	-392.0217	1	474.3239	-55.73936	3.097496E-007	0.0006588	8
	44	113	12.01923	283.7923	-478.3731	1	556.2184	-59.32169	2.684901E-007	0.0006511	8
	45	116	9.450605	306.6665	-593.3161	1	667.8835	-62.66697	1.572229E-007	0.0006619	8
	46	118	7.512019	333.0673	-728.9791	1	801.4639	-65.44455	1.861076E-007	0.0006421	8
	47	121	5.978954	369.9832	-894.5417	1	968.035	-67.52997	2.167113E-007	0.0006523	8
	48	124	4.734848	419.6827	-1101.831	1	1179.053	-69.14838	2.086012E-007	0.0006251	8
	49	127	3.75601	481.7602	-1353.833	1	1436.996	-70.41195	3.050109E-007	0.0006739	8
	50	131	3.004808	562.5464	-1647.349	1	1740.752	-71.14568	2.932398E-007	0.0006492	8
	51	134	2.372217	674.2335	-2022.783	1	2132.191	-71.56575	2.720075E-007	0.0005988	8
	52	139	1.878005	813.2087	-2478.662	1	2608.654	-71.83617	3.024823E-007	0.0006541	8
	53	143	1.512097	977.341	-2975.409	1	3131.813	-71.81606	2.643017E-007	0.000674	8
	54	149	1.201923	1199.974	-3621.339	1	3814.975	-71.66676	2.706001E-007	0.0007246	8
	55	155	0.956633	1473.101	-4391.559	1	4632.042	-71.45653	-9.966858E-009	-2.123105E-005	7
