EXPLAIN
TAG	EISPOT
TITLE	LABEL	Potentiostatic EIS	Test Identifier
DATE	LABEL	8/10/2020	Date
TIME	LABEL	9:01:42	Time
NOTES	NOTES	1	Notes...
	
PSTAT	PSTAT	REF3000-16137	Potentiostat
VDC	POTEN	0.00000E+000	T	DC Voltage (V)
FREQINIT	QUANT	3.00000E+005	Initial Freq. (Hz)
FREQFINAL	QUANT	1.00000E+000	Final Freq. (Hz)
PTSPERDEC	QUANT	1.00000E+001	Points/decade
VAC	QUANT	5.00000E+001	AC Voltage (mV rms)
AREA	QUANT	1.00000E+000	Sample Area (cm^2)
SPEED	SELECTOR	2	Optimize for:
ZGUESS	QUANT	1.00000E+003	Estimated Z (ohms)
EOC	QUANT	0	Open Circuit (V)
SEQUENCER	TOGGLE	TRUE	Run as Sequence
PSTATMODEL	IQUANT	5	Pstat Model
PSTATSECTION	LABEL	REF3000-16137	Pstat Section
PSTATSERIALNO	LABEL	16137	Pstat Serial Number
CTRLMODE	IQUANT	1	Control Mode
IESTAB	IQUANT	0	I/E Stability
CASPEED	IQUANT	1	Control Amp Speed
CONVENTION	IQUANT	1	Current Convention
ICHRANGE	IQUANT	2	Ich Range
ICHRANGEMODE	TOGGLE	F	Ich Auto Range
ICHOFFSETENABLE	TOGGLE	T	Ich Offset Enable
ICHOFFSET	QUANT	0	Ich Offset (V)
ICHFILTER	IQUANT	3	Ich Filter
VCHRANGE	IQUANT	2	Vch Range
VCHRANGEMODE	TOGGLE	F	Vch Auto Range
VCHOFFSETENABLE	TOGGLE	T	Vch Offset Enable
VCHOFFSET	QUANT	0	Vch Offset (V)
VCHFILTER	IQUANT	3	Vch Filter
ACHRANGE	IQUANT	2	Ach Range
ACHOFFSETENABLE	TOGGLE	F	Ach Offset Enable
ACHOFFSET	QUANT	0	Ach Offset (V)
ACHFILTER	IQUANT	3	Ach Filter
IERANGELOWERLIMIT	IQUANT	2	I/E Range Lower Limit
IERANGEMODE	TOGGLE	F	I/E AutoRange
IERANGE	IQUANT	11	I/E Range
POSFEEDENABLE	TOGGLE	F	Positive Feedback IR Comp
POSFEEDRESISTANCE	QUANT	0	Positive Feedback Resistance (ohm)
ACHSELECT	IQUANT	0	Ach Select
CABLEID	IQUANT	13	Cable ID
DCCALDATE	LABEL	7/31/2020	DC Calibration Date
ACCALDATE	LABEL	7/31/2020	AC Calibration Date
THERMOSELECT	IQUANT	1	Thermo Select
FRAMEWORKVERSION	QUANT	6.33	Framework Version
INSTRUMENTVERSION	LABEL	3.50	Instrument Version
COMPLIANCEVOLTAGE	IQUANT	0	Compliance Voltage
ZCURVE	TABLE
	Pt	Time	Freq	Zreal	Zimag	Zsig	Zmod	Zphz	Idc	Vdc	IERange
	#	s	Hz	ohm	ohm	V	ohm	°	A	V	#
	0	19	300046.9	1320.864	-3442.751	1	3687.44	-69.00993	2.735026E-005	-0.0017762	9
	1	33	238359.4	1544.585	-4374.951	1	4639.605	-70.55432	8.003907E-005	-0.0017319	9
	2	49	189328.1	2214.573	-5180.684	1	5634.165	-66.85487	-6.317073E-005	0.0006666	9
	3	59	150421.9	2607.493	-6160.217	1	6689.341	-67.05806	1.968748E-005	-0.0008631	9
	4	68	119484.4	4072.732	-7256.13	1	8320.972	-60.69531	5.057925E-006	0.0150326	8
	5	75	94921.88	5153.87	-8766.488	1	10169.25	-59.54848	2.623984E-005	-0.0091998	8
	6	84	75421.88	6689.072	-10436.33	1	12395.99	-57.34251	-1.768864E-006	-0.005017	8
	7	92	59859.37	8316.697	-12365.98	1	14902.52	-56.07734	9.323156E-006	0.0038465	8
	8	100	47578.12	13123.95	-13741.41	1	19001.7	-46.31663	-7.062945E-006	0.022925	7
	9	106	37828.12	15988.56	-15485.52	1	22258.38	-44.08435	-6.32452E-006	0.0254831	7
	10	113	30046.88	19425.44	-17318.53	1	26024.58	-41.71823	-3.303763E-006	-0.0049336	7
	11	119	23859.38	20714.7	-20129.81	1	28884.39	-44.17959	-2.582406E-005	0.0011389	9
	12	126	18984.38	27622.95	-22742.87	1	35780.8	-39.46574	-1.146779E-005	0.0099481	8
	13	132	15046.87	33718.54	-22857.44	1	40735.76	-34.13292	7.323812E-006	-0.0180146	7
	14	138	11953.13	40144.48	-23961.55	1	46751.85	-30.83225	-3.590188E-006	0.02459	7
	15	143	9515.62	46621.09	-24840.54	1	52825.93	-28.04948	-6.476656E-006	0.0254738	7
	16	148	7546.875	54349.43	-25693.36	1	60116.63	-25.30215	7.725454E-006	-0.0245362	7
	17	154	5928.309	62206.9	-24923.15	1	67013.89	-21.83347	5.260275E-006	-0.0264406	7
	18	159	4733.456	69009.46	-27853.15	1	74418.44	-21.97967	6.565199E-006	-0.0102574	7
	19	164	3796.875	78962.65	-25316.3	1	82921.74	-17.77642	2.75539E-006	0.008149	7
	20	171	2987.132	89543.33	-29546.52	1	94292.13	-18.26129	5.284766E-006	-0.0265703	7
	21	176	2390.625	119499.7	-14176.46	1	120337.7	-6.765477	2.694775E-005	-0.0054292	8
	22	184	1884.191	130109.9	-11355.68	1	130604.6	-4.987995	1.802459E-005	0.0001956	8
	23	192	1516.544	135392.1	-24127.71	1	137525.2	-10.10439	3.413168E-006	-0.0242916	7
	24	199	1193.986	148312.2	-23091.62	1	150099.1	-8.849671	7.551354E-006	-0.0185743	7
	25	206	946.5144	139226.6	-61165.32	1	152069.9	-23.71694	-5.277513E-006	0.0264544	7
	26	210	751.7689	168225.5	-45439.68	1	174254.4	-15.11554	6.639074E-006	-0.0104856	7
	27	214	597.4265	172614.1	-48716.93	1	179357.1	-15.76068	-5.372965E-006	0.0038264	7
	28	218	477.4305	204995.5	-21990.3	1	206171.6	-6.122823	-8.782776E-008	0.0005791	7
	29	221	376.6741	214725.3	-16445.36	1	215354.1	-4.379614	-1.053435E-008	0.0007051	6
	30	224	298.2954	224177.9	-14738.85	1	224661.9	-3.761566	-1.027528E-008	0.0006252	6
	31	226	237.7717	234207.1	-12773.74	1	234555.2	-3.121839	-9.97492E-009	0.0006156	6
	32	228	189.0121	244524	-11268.01	1	244783.5	-2.638403	-1.060697E-008	0.0006639	6
	33	231	150.2404	256108.2	-9402.455	1	256280.7	-2.102545	-1.05753E-008	0.0007019	6
	34	234	119.1737	266478.2	-7720.744	1	266590	-1.659582	-1.024783E-008	0.0007114	6
	35	236	95.0169	279777.3	-7972.288	1	279890.8	-1.632209	-1.052E-008	0.0007177	6
	36	238	75.60484	292569.1	-7140.049	1	292656.2	-1.398007	-1.018287E-008	0.0007025	6
	37	241	54.50582	307303.9	-4468.357	1	307336.4	-0.8330514	-9.561955E-009	0.0006154	6
	38	243	45.95588	319763.7	-5716.998	1	319814.8	-1.024272	-1.038467E-008	0.0006909	6
	39	246	37.20238	333501.8	-5248.626	1	333543.1	-0.9016423	-1.038418E-008	0.0006861	6
	40	248	30.04808	349360.2	-4475.78	1	349388.8	-0.7339969	-9.859947E-009	0.0007047	6
	41	251	23.91582	367010.7	-4285.565	1	367035.7	-0.6690096	-9.121242E-009	0.0006357	6
	42	254	18.60119	383757.1	-1227.85	1	383759.1	-0.1833201	-1.487192E-009	0.0006651	5
	43	256	15.02404	400978.6	-1903.389	1	400983.1	-0.2719729	-1.327101E-009	0.0006888	5
	44	258	12.01923	419609.4	-2213.311	1	419615.3	-0.3022149	-1.666111E-009	0.0005964	5
	45	261	9.450605	439868	-2502.985	1	439875.1	-0.3260272	-1.417055E-009	0.0006831	5
	46	263	7.512019	462922.9	-3097.64	1	462933.3	-0.3833879	-1.177098E-009	0.0006983	5
	47	266	5.978954	495383.5	-3493.949	1	495395.8	-0.4041015	-8.044107E-010	0.0006018	5
	48	271	4.734848	531671.4	-4177.084	1	531687.9	-0.4501358	-1.482422E-009	0.0005682	5
	49	274	3.75601	580620.6	-5102.082	1	580643	-0.5034617	-1.96728E-009	0.0005902	5
	50	280	3.004808	649933.8	-6522.798	1	649966.6	-0.5750066	-1.567256E-009	0.0006301	5
	51	286	2.372217	718374.8	-7352.929	1	718412.4	-0.5864308	-1.46487E-009	0.0006929	5
	52	290	1.878005	783551.9	-9465.849	1	783609.1	-0.6921389	-1.823054E-009	0.0006373	5
	53	295	1.512097	865849.4	-11676.2	1	865928.2	-0.772601	-1.795779E-009	0.0006266	5
	54	301	1.201923	969812	-13609.37	1	969908	-0.8039784	-1.490625E-009	0.0006203	5
	55	307	0.956633	1102121	-18465.59	1	1102276	-0.959878	-2.161052E-009	6.007364E-005	5
