EXPLAIN
TAG	EISPOT
TITLE	LABEL	Potentiostatic EIS	Test Identifier
DATE	LABEL	8/10/2020	Date
TIME	LABEL	8:29:44	Time
NOTES	NOTES	1	Notes...
	
PSTAT	PSTAT	REF3000-16137	Potentiostat
VDC	POTEN	0.00000E+000	T	DC Voltage (V)
FREQINIT	QUANT	3.00000E+005	Initial Freq. (Hz)
FREQFINAL	QUANT	1.00000E+000	Final Freq. (Hz)
PTSPERDEC	QUANT	1.00000E+001	Points/decade
VAC	QUANT	5.00000E+001	AC Voltage (mV rms)
AREA	QUANT	1.00000E+000	Sample Area (cm^2)
SPEED	SELECTOR	2	Optimize for:
ZGUESS	QUANT	1.00000E+003	Estimated Z (ohms)
EOC	QUANT	0	Open Circuit (V)
SEQUENCER	TOGGLE	TRUE	Run as Sequence
PSTATMODEL	IQUANT	5	Pstat Model
PSTATSECTION	LABEL	REF3000-16137	Pstat Section
PSTATSERIALNO	LABEL	16137	Pstat Serial Number
CTRLMODE	IQUANT	1	Control Mode
IESTAB	IQUANT	0	I/E Stability
CASPEED	IQUANT	1	Control Amp Speed
CONVENTION	IQUANT	1	Current Convention
ICHRANGE	IQUANT	2	Ich Range
ICHRANGEMODE	TOGGLE	F	Ich Auto Range
ICHOFFSETENABLE	TOGGLE	T	Ich Offset Enable
ICHOFFSET	QUANT	0	Ich Offset (V)
ICHFILTER	IQUANT	3	Ich Filter
VCHRANGE	IQUANT	2	Vch Range
VCHRANGEMODE	TOGGLE	F	Vch Auto Range
VCHOFFSETENABLE	TOGGLE	T	Vch Offset Enable
VCHOFFSET	QUANT	0	Vch Offset (V)
VCHFILTER	IQUANT	3	Vch Filter
ACHRANGE	IQUANT	2	Ach Range
ACHOFFSETENABLE	TOGGLE	F	Ach Offset Enable
ACHOFFSET	QUANT	0	Ach Offset (V)
ACHFILTER	IQUANT	3	Ach Filter
IERANGELOWERLIMIT	IQUANT	2	I/E Range Lower Limit
IERANGEMODE	TOGGLE	F	I/E AutoRange
IERANGE	IQUANT	11	I/E Range
POSFEEDENABLE	TOGGLE	F	Positive Feedback IR Comp
POSFEEDRESISTANCE	QUANT	0	Positive Feedback Resistance (ohm)
ACHSELECT	IQUANT	0	Ach Select
CABLEID	IQUANT	13	Cable ID
DCCALDATE	LABEL	7/31/2020	DC Calibration Date
ACCALDATE	LABEL	7/31/2020	AC Calibration Date
THERMOSELECT	IQUANT	1	Thermo Select
FRAMEWORKVERSION	QUANT	6.33	Framework Version
INSTRUMENTVERSION	LABEL	3.50	Instrument Version
COMPLIANCEVOLTAGE	IQUANT	0	Compliance Voltage
ZCURVE	TABLE
	Pt	Time	Freq	Zreal	Zimag	Zsig	Zmod	Zphz	Idc	Vdc	IERange
	#	s	Hz	ohm	ohm	V	ohm	°	A	V	#
	0	9	300046.9	3.504902	0.2354849	1	3.512804	3.843772	7.489244E-005	-0.0006918	10
	1	12	238359.4	3.627385	-0.1866687	1	3.632185	-2.945897	2.404927E-005	-0.0004681	10
	2	15	189328.1	3.766178	-0.5954278	1	3.812956	-8.984027	-3.068333E-005	-5.424937E-005	10
	3	17	150421.9	3.945818	-0.966831	1	4.062541	-13.76775	-5.452264E-006	0.0002412	10
	4	20	119484.4	4.137587	-1.336151	1	4.34798	-17.89682	-0.0001092	0.000425	10
	5	23	94921.88	4.368688	-1.680508	1	4.680763	-21.04029	-1.037301E-005	0.0005429	10
	6	25	75421.88	4.600267	-2.053549	1	5.037809	-24.05588	-1.77869E-005	0.0005905	10
	7	28	59859.37	4.855506	-2.450611	1	5.438881	-26.78042	-6.839765E-006	0.0006206	10
	8	30	47578.12	5.130139	-2.886084	1	5.886239	-29.36098	-2.18655E-005	0.0006611	10
	9	33	37828.12	5.426311	-3.368976	1	6.387085	-31.83446	1.610873E-005	0.0006581	10
	10	35	30046.88	5.74475	-3.934128	1	6.962723	-34.40418	-9.764164E-006	0.0006959	10
	11	38	23859.38	6.091969	-4.601981	1	7.634809	-37.06804	-8.951769E-006	0.0006969	10
	12	40	18984.38	6.470672	-5.393622	1	8.423821	-39.81286	-1.085475E-005	0.0006952	10
	13	42	15046.87	6.901845	-6.366213	1	9.389576	-42.68822	-2.039465E-005	0.0007192	10
	14	45	11953.13	7.390808	-7.545056	1	10.56181	-45.59169	2.105816E-005	0.0006678	10
	15	47	9515.62	7.962997	-8.946185	1	11.97679	-48.32773	2.142216E-005	0.0006631	10
	16	49	7546.875	8.665106	-10.64719	1	13.72759	-50.85993	-2.254925E-005	0.0007132	10
	17	52	5928.309	9.54406	-12.83219	1	15.99231	-53.35964	-6.020109E-006	0.0006721	10
	18	54	4733.456	10.56212	-15.26423	1	18.56219	-55.31861	-6.735663E-006	0.0006767	10
	19	56	3796.875	11.77048	-18.11591	1	21.60394	-56.98694	1.921385E-005	0.0006466	10
	20	59	2987.132	13.47065	-21.74346	1	25.57804	-58.22068	1.456579E-005	0.0006424	10
	21	61	2390.625	15.43011	-25.7581	1	30.02612	-59.07674	-1.924862E-005	0.0007153	10
	22	63	1884.191	18.04036	-30.83342	1	35.7233	-59.66847	1.487595E-005	0.0006372	10
	23	66	1516.544	21.0214	-36.18932	1	41.85172	-59.84885	2.972039E-007	3.891943E-005	9
	24	68	1193.986	25.17451	-43.0064	1	49.83279	-59.65672	3.494943E-006	7.318492E-006	9
	25	70	946.5144	30.29931	-50.47029	1	58.86679	-59.02194	3.27989E-006	8.771507E-006	9
	26	73	751.7689	36.48674	-59.08575	1	69.44357	-58.30377	5.170094E-006	-6.817939E-006	9
	27	75	597.4265	44.09748	-68.48421	1	81.45351	-57.22222	-6.841397E-006	0.0001517	9
	28	77	477.4305	53.05759	-78.48978	1	94.74046	-55.94205	-1.494947E-006	7.469492E-005	9
	29	80	376.6741	64.39051	-89.9507	1	110.6222	-54.40331	-1.395475E-006	7.49644E-005	9
	30	82	298.2954	77.57469	-101.9358	1	128.0966	-52.72831	-1.377337E-006	7.82018E-005	9
	31	84	237.7717	92.40864	-114.4173	1	147.0737	-51.07407	-1.829271E-006	0.0001321	9
	32	87	189.0121	109.6363	-127.4711	1	168.1339	-49.3016	-1.276791E-006	7.472223E-005	9
	33	89	150.2404	129.1345	-141.0415	1	191.2287	-47.52348	-1.266732E-006	7.23947E-005	9
	34	92	119.1737	151.4148	-155.7509	1	217.2206	-45.80875	-1.216639E-006	7.865768E-005	9
	35	94	95.0169	175.9428	-170.7997	1	245.2109	-44.15021	-1.189088E-006	7.820567E-005	9
	36	96	75.60484	204.6445	-189.13	1	278.6567	-42.74374	-1.074632E-006	7.614217E-005	9
	37	99	54.50582	251.9459	-214.7437	1	331.0462	-40.4423	-1.077531E-006	6.982954E-005	9
	38	101	45.95588	281.3736	-230.4932	1	363.7282	-39.32336	-9.129435E-007	7.551703E-005	9
	39	104	37.20238	317.4051	-243.9011	1	400.2921	-37.53947	-2.174505E-006	0.0006643	8
	40	106	30.04808	356.3745	-255.3708	1	438.4256	-35.62463	-2.150521E-006	0.0006492	8
	41	109	23.91582	398.8548	-265.3511	1	479.0578	-33.63512	-1.983902E-006	0.0006496	8
	42	111	18.60119	444.3714	-274.0275	1	522.0699	-31.66061	-2.707938E-006	0.0006629	8
	43	113	15.02404	481.4272	-279.7562	1	556.8085	-30.16077	-2.53264E-006	0.0006442	8
	44	116	12.01923	517.5782	-287.7019	1	592.1652	-29.068	-1.976434E-006	0.0006494	8
	45	118	9.450605	555.8102	-300.085	1	631.6454	-28.36486	-1.959345E-006	0.0006551	8
	46	121	7.512019	593.5283	-316.9976	1	672.8769	-28.10624	-2.020721E-006	0.0006717	8
	47	123	5.978954	634.2322	-338.9128	1	719.1053	-28.11858	-2.229694E-006	0.0006541	8
	48	126	4.734848	682.1122	-366.6886	1	774.4272	-28.26151	-2.372703E-006	0.0006519	8
	49	130	3.75601	737.0056	-398.0348	1	837.621	-28.37217	-2.227472E-006	0.0006616	8
	50	133	3.004808	798.1138	-430.195	1	906.6716	-28.32532	-2.42572E-006	0.0006896	8
	51	137	2.372217	874.0483	-462.6945	1	988.962	-27.89538	-2.176349E-006	0.0006851	8
	52	141	1.878005	957.503	-490.1019	1	1075.645	-27.10583	-2.204378E-006	0.0006294	8
	53	146	1.512097	1044.75	-513.8776	1	1164.291	-26.19103	-2.168993E-006	0.0007528	8
	54	151	1.201923	1144.278	-532.1027	1	1261.945	-24.93898	-2.067451E-006	0.0006342	8
	55	157	0.956633	1248.219	-545.2403	1	1362.108	-23.5964	-2.581409E-006	1.978292E-005	8
