EXPLAIN
TAG	EISPOT
TITLE	LABEL	Potentiostatic EIS	Test Identifier
DATE	LABEL	8/10/2020	Date
TIME	LABEL	8:24:07	Time
NOTES	NOTES	1	Notes...
	
PSTAT	PSTAT	REF3000-16137	Potentiostat
VDC	POTEN	0.00000E+000	T	DC Voltage (V)
FREQINIT	QUANT	3.00000E+005	Initial Freq. (Hz)
FREQFINAL	QUANT	1.00000E+000	Final Freq. (Hz)
PTSPERDEC	QUANT	1.00000E+001	Points/decade
VAC	QUANT	5.00000E+001	AC Voltage (mV rms)
AREA	QUANT	1.00000E+000	Sample Area (cm^2)
SPEED	SELECTOR	2	Optimize for:
ZGUESS	QUANT	1.00000E+003	Estimated Z (ohms)
EOC	QUANT	0	Open Circuit (V)
SEQUENCER	TOGGLE	TRUE	Run as Sequence
PSTATMODEL	IQUANT	5	Pstat Model
PSTATSECTION	LABEL	REF3000-16137	Pstat Section
PSTATSERIALNO	LABEL	16137	Pstat Serial Number
CTRLMODE	IQUANT	1	Control Mode
IESTAB	IQUANT	0	I/E Stability
CASPEED	IQUANT	1	Control Amp Speed
CONVENTION	IQUANT	1	Current Convention
ICHRANGE	IQUANT	2	Ich Range
ICHRANGEMODE	TOGGLE	F	Ich Auto Range
ICHOFFSETENABLE	TOGGLE	T	Ich Offset Enable
ICHOFFSET	QUANT	0	Ich Offset (V)
ICHFILTER	IQUANT	3	Ich Filter
VCHRANGE	IQUANT	2	Vch Range
VCHRANGEMODE	TOGGLE	F	Vch Auto Range
VCHOFFSETENABLE	TOGGLE	T	Vch Offset Enable
VCHOFFSET	QUANT	0	Vch Offset (V)
VCHFILTER	IQUANT	3	Vch Filter
ACHRANGE	IQUANT	2	Ach Range
ACHOFFSETENABLE	TOGGLE	F	Ach Offset Enable
ACHOFFSET	QUANT	0	Ach Offset (V)
ACHFILTER	IQUANT	3	Ach Filter
IERANGELOWERLIMIT	IQUANT	2	I/E Range Lower Limit
IERANGEMODE	TOGGLE	F	I/E AutoRange
IERANGE	IQUANT	11	I/E Range
POSFEEDENABLE	TOGGLE	F	Positive Feedback IR Comp
POSFEEDRESISTANCE	QUANT	0	Positive Feedback Resistance (ohm)
ACHSELECT	IQUANT	0	Ach Select
CABLEID	IQUANT	13	Cable ID
DCCALDATE	LABEL	7/31/2020	DC Calibration Date
ACCALDATE	LABEL	7/31/2020	AC Calibration Date
THERMOSELECT	IQUANT	1	Thermo Select
FRAMEWORKVERSION	QUANT	6.33	Framework Version
INSTRUMENTVERSION	LABEL	3.50	Instrument Version
COMPLIANCEVOLTAGE	IQUANT	0	Compliance Voltage
ZCURVE	TABLE
	Pt	Time	Freq	Zreal	Zimag	Zsig	Zmod	Zphz	Idc	Vdc	IERange
	#	s	Hz	ohm	ohm	V	ohm	°	A	V	#
	0	9	300046.9	3.208252	-0.07143	1	3.209048	-1.275449	4.11166E-006	-0.000687	12
	1	13	238359.4	3.335546	-0.1376185	1	3.338384	-2.362579	4.863656E-005	0.0001949	11
	2	16	189328.1	3.46314	-0.5079017	1	3.500187	-8.343477	3.186656E-005	0.0003349	11
	3	19	150421.9	3.621602	-0.8423545	1	3.718274	-13.09372	-3.885576E-005	0.0004565	10
	4	21	119484.4	3.798018	-1.172279	1	3.974818	-17.15313	-2.307776E-005	0.0004145	10
	5	24	94921.88	3.997785	-1.501768	1	4.27055	-20.58869	-1.869901E-005	0.0005207	10
	6	26	75421.88	4.202161	-1.845286	1	4.58947	-23.70762	-2.776701E-005	0.0006323	10
	7	29	59859.37	4.423385	-2.205411	1	4.942688	-26.49993	-1.240375E-005	0.0006404	10
	8	31	47578.12	4.659209	-2.607915	1	5.339424	-29.2372	-2.022189E-005	0.0006923	10
	9	34	37828.12	4.913703	-3.062466	1	5.78992	-31.93323	1.057909E-005	0.0006438	10
	10	36	30046.88	5.190187	-3.584351	1	6.307584	-34.62902	-1.415093E-005	0.0007075	10
	11	39	23859.38	5.496703	-4.196938	1	6.915781	-37.36308	4.870559E-006	0.0006658	10
	12	41	18984.38	5.828345	-4.937606	1	7.638689	-40.27031	1.12583E-005	0.0006401	10
	13	43	15046.87	6.220912	-5.827873	1	8.524309	-43.13164	9.75136E-006	0.0006556	10
	14	46	11953.13	6.660452	-6.90624	1	9.59467	-46.03791	1.084968E-005	0.0006428	10
	15	48	9515.62	7.189057	-8.184852	1	10.89377	-48.70597	-3.164151E-005	0.0006705	10
	16	50	7546.875	7.838656	-9.73558	1	12.49904	-51.16053	2.119027E-006	0.000654	10
	17	53	5928.309	8.665453	-11.69244	1	14.55346	-53.45726	1.264164E-005	0.0006455	10
	18	55	4733.456	9.62157	-13.88496	1	16.8928	-55.28	-7.463194E-007	0.0006559	10
	19	57	3796.875	10.7661	-16.43231	1	19.64509	-56.76804	1.72585E-005	0.0006472	10
	20	59	2987.132	12.37858	-19.64041	1	23.21583	-57.77839	1.548447E-005	0.0006496	10
	21	62	2390.625	14.30912	-23.07381	1	27.15054	-58.19508	-7.571764E-007	0.0006521	10
	22	64	1884.191	16.7296	-27.53631	1	32.21999	-58.71936	8.999557E-006	0.0006509	10
	23	66	1516.544	19.64663	-32.08095	1	37.61884	-58.51637	-1.78838E-005	0.0006656	10
	24	69	1193.986	23.50576	-37.75465	1	44.47397	-58.09392	-1.061402E-005	0.0001293	9
	25	71	946.5144	28.21484	-43.98157	1	52.25376	-57.31922	-5.387959E-007	-7.329866E-006	9
	26	74	751.7689	33.9953	-50.6799	1	61.02567	-56.1469	-7.425674E-006	0.0000951	9
	27	76	597.4265	40.8599	-57.86621	1	70.83805	-54.77371	-1.128034E-005	0.0001407	9
	28	78	477.4305	48.84155	-65.39368	1	81.62004	-53.24451	-5.809527E-006	7.716026E-005	9
	29	80	376.6741	58.63433	-73.68842	1	94.16989	-51.49051	-5.794252E-006	7.16134E-005	9
	30	83	298.2954	69.72819	-82.16158	1	107.7615	-49.67968	-5.772553E-006	7.556324E-005	9
	31	85	237.7717	81.90375	-90.54658	1	122.0938	-47.86914	-5.693355E-006	7.243547E-005	9
	32	88	189.0121	95.6777	-99.2012	1	137.8227	-46.03582	-5.612082E-006	7.813029E-005	9
	33	90	150.2404	110.9087	-107.8487	1	154.7	-44.19859	-5.528625E-006	7.56826E-005	9
	34	92	119.1737	127.8625	-116.5876	1	173.0361	-42.35919	-5.538163E-006	7.186068E-005	9
	35	95	95.0169	146.0052	-124.9222	1	192.1538	-40.55034	-5.562169E-006	8.013639E-005	9
	36	97	75.60484	165.8339	-132.8062	1	212.4579	-38.68909	-5.864757E-006	0.0001205	9
	37	100	54.50582	196.3938	-142.4628	1	242.6235	-35.95688	-5.506621E-006	7.415548E-005	9
	38	102	45.95588	212.9634	-146.7007	1	258.601	-34.56116	-5.222889E-006	7.675131E-005	9
	39	105	37.20238	233.4756	-151.2318	1	278.1761	-32.9328	-5.504017E-006	8.129427E-005	9
	40	107	30.04808	253.4702	-155.3784	1	297.3039	-31.50848	-5.458783E-006	7.912613E-005	9
	41	109	23.91582	274.2091	-160.3764	1	317.6653	-30.32205	-5.557495E-006	7.74778E-005	9
	42	112	18.60119	296.1003	-167.6663	1	340.2754	-29.52065	-5.363824E-006	0.0001292	9
	43	114	15.02404	314.8641	-176.3899	1	360.9055	-29.25797	-5.753845E-006	8.016781E-005	9
	44	116	12.01923	333.5422	-187.0755	1	382.4234	-29.28697	-6.238879E-006	0.00066	8
	45	119	9.450605	358.1263	-203.4057	1	411.8596	-29.59536	-6.271001E-006	0.0006556	8
	46	121	7.512019	385.3474	-222.087	1	444.7642	-29.95611	-6.278289E-006	0.000683	8
	47	124	5.978954	418.1796	-242.3343	1	483.3219	-30.09221	-6.511229E-006	0.0006573	8
	48	127	4.734848	458.1841	-263.3177	1	528.4589	-29.88592	-6.224487E-006	0.00068	8
	49	130	3.75601	503.9886	-282.1767	1	577.6055	-29.2439	-6.353388E-006	0.0006545	8
	50	134	3.004808	552.6617	-295.8944	1	626.8879	-28.16454	-5.964157E-006	0.0006236	8
	51	137	2.372217	609.775	-305.1946	1	681.8866	-26.58813	-6.08473E-006	0.0005937	8
	52	142	1.878005	665.6494	-306.4908	1	732.8203	-24.72318	-5.748355E-006	0.0006668	8
	53	146	1.512097	717.6356	-303.1904	1	779.0541	-22.90334	-5.679968E-006	0.0005561	8
	54	152	1.201923	771.7016	-295.3907	1	826.3044	-20.94576	-5.641553E-006	0.0006819	8
	55	158	0.956633	820.8903	-283.2117	1	868.3718	-19.03472	-6.183306E-006	1.49434E-005	8
