EXPLAIN
TAG	EISPOT
TITLE	LABEL	Potentiostatic EIS	Test Identifier
DATE	LABEL	8/10/2020	Date
TIME	LABEL	8:57:49	Time
NOTES	NOTES	1	Notes...
	
PSTAT	PSTAT	REF3000-16137	Potentiostat
VDC	POTEN	0.00000E+000	T	DC Voltage (V)
FREQINIT	QUANT	3.00000E+005	Initial Freq. (Hz)
FREQFINAL	QUANT	1.00000E+000	Final Freq. (Hz)
PTSPERDEC	QUANT	1.00000E+001	Points/decade
VAC	QUANT	5.00000E+001	AC Voltage (mV rms)
AREA	QUANT	1.00000E+000	Sample Area (cm^2)
SPEED	SELECTOR	2	Optimize for:
ZGUESS	QUANT	1.00000E+003	Estimated Z (ohms)
EOC	QUANT	0	Open Circuit (V)
SEQUENCER	TOGGLE	TRUE	Run as Sequence
PSTATMODEL	IQUANT	5	Pstat Model
PSTATSECTION	LABEL	REF3000-16137	Pstat Section
PSTATSERIALNO	LABEL	16137	Pstat Serial Number
CTRLMODE	IQUANT	1	Control Mode
IESTAB	IQUANT	0	I/E Stability
CASPEED	IQUANT	1	Control Amp Speed
CONVENTION	IQUANT	1	Current Convention
ICHRANGE	IQUANT	2	Ich Range
ICHRANGEMODE	TOGGLE	F	Ich Auto Range
ICHOFFSETENABLE	TOGGLE	T	Ich Offset Enable
ICHOFFSET	QUANT	0	Ich Offset (V)
ICHFILTER	IQUANT	3	Ich Filter
VCHRANGE	IQUANT	2	Vch Range
VCHRANGEMODE	TOGGLE	F	Vch Auto Range
VCHOFFSETENABLE	TOGGLE	T	Vch Offset Enable
VCHOFFSET	QUANT	0	Vch Offset (V)
VCHFILTER	IQUANT	3	Vch Filter
ACHRANGE	IQUANT	2	Ach Range
ACHOFFSETENABLE	TOGGLE	F	Ach Offset Enable
ACHOFFSET	QUANT	0	Ach Offset (V)
ACHFILTER	IQUANT	3	Ach Filter
IERANGELOWERLIMIT	IQUANT	2	I/E Range Lower Limit
IERANGEMODE	TOGGLE	F	I/E AutoRange
IERANGE	IQUANT	11	I/E Range
POSFEEDENABLE	TOGGLE	F	Positive Feedback IR Comp
POSFEEDRESISTANCE	QUANT	0	Positive Feedback Resistance (ohm)
ACHSELECT	IQUANT	0	Ach Select
CABLEID	IQUANT	13	Cable ID
DCCALDATE	LABEL	7/31/2020	DC Calibration Date
ACCALDATE	LABEL	7/31/2020	AC Calibration Date
THERMOSELECT	IQUANT	1	Thermo Select
FRAMEWORKVERSION	QUANT	6.33	Framework Version
INSTRUMENTVERSION	LABEL	3.50	Instrument Version
COMPLIANCEVOLTAGE	IQUANT	0	Compliance Voltage
ZCURVE	TABLE
	Pt	Time	Freq	Zreal	Zimag	Zsig	Zmod	Zphz	Idc	Vdc	IERange
	#	s	Hz	ohm	ohm	V	ohm	°	A	V	#
	0	14	300046.9	1043.37	-312.735	1	1089.231	-16.68534	2.701547E-005	-0.0021931	9
	1	21	238359.4	1117.312	-288.1392	1	1153.867	-14.46071	5.268261E-005	-0.0001478	9
	2	27	189328.1	1216.336	-272.572	1	1246.503	-12.63089	2.637946E-005	-0.0019358	9
	3	35	150421.9	1298.484	-249.7825	1	1322.291	-10.88867	2.714486E-005	-0.0018988	9
	4	41	119484.4	1394.588	-186.267	1	1406.972	-7.607638	-3.220652E-005	0.0189924	8
	5	47	94921.88	1462.841	-163.5359	1	1471.954	-6.378799	2.205028E-005	-0.0061828	8
	6	51	75421.88	1516.008	-142.172	1	1522.66	-5.357557	-1.508686E-005	0.0014163	8
	7	54	59859.37	1556.599	-124.9995	1	1561.61	-4.591169	2.28767E-005	-0.0049527	8
	8	57	47578.12	1604.625	-109.4758	1	1608.355	-3.902966	2.134586E-005	-0.0077509	8
	9	60	37828.12	1656.339	-96.6176	1	1659.155	-3.338395	2.255892E-005	-0.0044259	8
	10	64	30046.88	1716.798	-84.6684	1	1718.884	-2.823404	-2.235411E-005	0.0069212	8
	11	68	23859.38	1776.803	-75.40457	1	1778.402	-2.43008	-2.345146E-005	0.0086913	8
	12	72	18984.38	1841.093	-66.16225	1	1842.282	-2.058118	-2.263286E-005	0.0070239	8
	13	76	15046.87	1906.479	-64.52432	1	1907.57	-1.938422	2.388204E-005	-0.006768	8
	14	80	11953.13	1964.995	-54.50963	1	1965.75	-1.588997	-2.184218E-005	0.0052815	8
	15	84	9515.62	2036.234	-50.7712	1	2036.867	-1.42831	-9.656832E-006	-0.0012502	8
	16	87	7546.875	2122.475	-49.19867	1	2123.045	-1.32787	1.346538E-005	-0.0080464	8
	17	91	5928.309	2201.872	-42.3621	1	2202.28	-1.102185	2.370609E-005	-0.0049554	8
	18	96	4733.456	2279.376	-43.04949	1	2279.782	-1.08199	-2.362438E-006	-0.0040153	8
	19	100	3796.875	2371.278	-40.54627	1	2371.625	-0.9796	-2.208035E-005	0.0052233	8
	20	104	2987.132	2481.644	-31.89029	1	2481.848	-0.7362372	2.192963E-005	-0.0030308	8
	21	109	2390.625	2578.375	-73.29313	1	2579.416	-1.628257	2.992959E-005	-0.0008311	9
	22	115	1884.191	2757.792	-47.83689	1	2758.207	-0.993758	1.069771E-005	0.0004006	9
	23	120	1516.544	2878.513	-44.42846	1	2878.856	-0.8842624	1.709196E-005	-0.0001738	8
	24	126	1193.986	3069.43	-53.53127	1	3069.896	-0.999145	-1.968204E-005	0.0003058	9
	25	131	946.5144	3141.14	-41.49306	1	3141.414	-0.7568077	-9.564148E-006	0.009158	8
	26	135	751.7689	3306.367	-36.80629	1	3306.572	-0.6377869	3.076603E-005	-0.000707	9
	27	139	597.4265	3413.817	-86.42899	1	3414.911	-1.450271	2.232407E-005	-0.0029858	8
	28	142	477.4305	3542.538	-51.56662	1	3542.914	-0.8339617	-3.08806E-007	0.0006317	8
	29	146	376.6741	3639.114	-52.49821	1	3639.493	-0.8264971	-9.20643E-008	0.0006627	7
	30	148	298.2954	3733.176	-60.81215	1	3733.671	-0.933246	-8.969098E-008	0.0006401	7
	31	150	237.7717	3824.312	-70.16235	1	3824.955	-1.051053	-8.406574E-008	0.0006549	7
	32	153	189.0121	3924.138	-82.52419	1	3925.005	-1.204746	-1.022762E-007	0.0006641	7
	33	155	150.2404	4008.936	-95.7908	1	4010.08	-1.368784	-8.57062E-008	0.0006088	7
	34	158	119.1737	4116.545	-115.1526	1	4118.156	-1.602324	-5.659393E-008	0.0005857	7
	35	160	95.0169	4220.981	-138.0449	1	4223.238	-1.87316	-7.138343E-008	0.0006025	7
	36	163	75.60484	4334.486	-167.0668	1	4337.705	-2.207295	-6.858576E-008	0.000661	7
	37	165	54.50582	4458.981	-221.1379	1	4464.461	-2.83919	-8.975042E-008	0.0006789	7
	38	168	45.95588	4582.25	-255.5512	1	4589.371	-3.192068	-1.35732E-007	0.000601	7
	39	170	37.20238	4704.176	-311.4447	1	4714.474	-3.787797	-1.439761E-007	0.0006408	7
	40	172	30.04808	4827.085	-374.4131	1	4841.584	-4.435269	-1.094175E-007	0.0005889	7
	41	175	23.91582	4963.119	-461.7235	1	4984.55	-5.314981	-8.883035E-008	0.0005766	7
	42	177	18.60119	5106.115	-575.8237	1	5138.481	-6.434142	-2.053496E-007	0.0006573	7
	43	179	15.02404	5235.27	-706.7526	1	5282.76	-7.688353	-1.155852E-008	0.0005725	7
	44	182	12.01923	5383.774	-857.0822	1	5451.57	-9.045427	4.439527E-008	0.0006434	7
	45	184	9.450605	5555.771	-1082.272	1	5660.203	-11.02325	-1.989247E-007	0.0006576	7
	46	187	7.512019	5747.404	-1341.451	1	5901.876	-13.1377	-2.175644E-007	0.0005707	7
	47	190	5.978954	5992.272	-1647.335	1	6214.583	-15.37145	-1.442746E-007	0.0006637	7
	48	193	4.734848	6256.032	-2030.575	1	6577.322	-17.98233	-1.272849E-007	0.0006508	7
	49	196	3.75601	6584.948	-2502.334	1	7044.375	-20.8072	-9.21661E-008	0.0006666	7
	50	199	3.004808	6931.369	-3067.771	1	7579.914	-23.87382	-3.961857E-008	0.0005832	7
	51	203	2.372217	7378.566	-3780.523	1	8290.693	-27.12904	-9.285031E-008	0.0005467	7
	52	207	1.878005	7892.329	-4679.703	1	9175.428	-30.66553	-7.423169E-008	0.0006287	7
	53	212	1.512097	8497.733	-5687.163	1	10225.23	-33.79267	-7.716275E-008	0.0005382	7
	54	217	1.201923	9268.912	-7037.446	1	11637.8	-37.20768	-7.617891E-008	0.0006488	7
	55	224	0.956633	10182.67	-8673.855	1	13376.19	-40.4252	-8.817958E-008	-1.833656E-005	7
