EXPLAIN
TAG	EISPOT
TITLE	LABEL	Potentiostatic EIS	Test Identifier
DATE	LABEL	8/10/2020	Date
TIME	LABEL	8:40:59	Time
NOTES	NOTES	1	Notes...
	
PSTAT	PSTAT	REF3000-16137	Potentiostat
VDC	POTEN	0.00000E+000	T	DC Voltage (V)
FREQINIT	QUANT	3.00000E+005	Initial Freq. (Hz)
FREQFINAL	QUANT	1.00000E+000	Final Freq. (Hz)
PTSPERDEC	QUANT	1.00000E+001	Points/decade
VAC	QUANT	5.00000E+001	AC Voltage (mV rms)
AREA	QUANT	1.00000E+000	Sample Area (cm^2)
SPEED	SELECTOR	2	Optimize for:
ZGUESS	QUANT	1.00000E+003	Estimated Z (ohms)
EOC	QUANT	0	Open Circuit (V)
SEQUENCER	TOGGLE	TRUE	Run as Sequence
PSTATMODEL	IQUANT	5	Pstat Model
PSTATSECTION	LABEL	REF3000-16137	Pstat Section
PSTATSERIALNO	LABEL	16137	Pstat Serial Number
CTRLMODE	IQUANT	1	Control Mode
IESTAB	IQUANT	0	I/E Stability
CASPEED	IQUANT	1	Control Amp Speed
CONVENTION	IQUANT	1	Current Convention
ICHRANGE	IQUANT	2	Ich Range
ICHRANGEMODE	TOGGLE	F	Ich Auto Range
ICHOFFSETENABLE	TOGGLE	T	Ich Offset Enable
ICHOFFSET	QUANT	0	Ich Offset (V)
ICHFILTER	IQUANT	3	Ich Filter
VCHRANGE	IQUANT	2	Vch Range
VCHRANGEMODE	TOGGLE	F	Vch Auto Range
VCHOFFSETENABLE	TOGGLE	T	Vch Offset Enable
VCHOFFSET	QUANT	0	Vch Offset (V)
VCHFILTER	IQUANT	3	Vch Filter
ACHRANGE	IQUANT	2	Ach Range
ACHOFFSETENABLE	TOGGLE	F	Ach Offset Enable
ACHOFFSET	QUANT	0	Ach Offset (V)
ACHFILTER	IQUANT	3	Ach Filter
IERANGELOWERLIMIT	IQUANT	2	I/E Range Lower Limit
IERANGEMODE	TOGGLE	F	I/E AutoRange
IERANGE	IQUANT	11	I/E Range
POSFEEDENABLE	TOGGLE	F	Positive Feedback IR Comp
POSFEEDRESISTANCE	QUANT	0	Positive Feedback Resistance (ohm)
ACHSELECT	IQUANT	0	Ach Select
CABLEID	IQUANT	13	Cable ID
DCCALDATE	LABEL	7/31/2020	DC Calibration Date
ACCALDATE	LABEL	7/31/2020	AC Calibration Date
THERMOSELECT	IQUANT	1	Thermo Select
FRAMEWORKVERSION	QUANT	6.33	Framework Version
INSTRUMENTVERSION	LABEL	3.50	Instrument Version
COMPLIANCEVOLTAGE	IQUANT	0	Compliance Voltage
ZCURVE	TABLE
	Pt	Time	Freq	Zreal	Zimag	Zsig	Zmod	Zphz	Idc	Vdc	IERange
	#	s	Hz	ohm	ohm	V	ohm	°	A	V	#
	0	8	300046.9	9.285453	-0.6881816	1	9.31092	-4.238667	-9.234431E-006	8.651595E-005	10
	1	11	238359.4	9.54107	-1.28893	1	9.62774	-7.693668	-1.208206E-005	0.0002198	10
	2	15	189328.1	9.8662	-1.871096	1	10.04206	-10.73845	6.136751E-005	0.0001544	10
	3	17	150421.9	10.22537	-2.459226	1	10.51694	-13.52295	-4.662604E-005	0.0006649	10
	4	20	119484.4	10.63119	-3.0781	1	11.06783	-16.14757	-1.406687E-005	0.0006912	10
	5	22	94921.88	11.12063	-3.720541	1	11.7265	-18.49829	1.82255E-005	0.0005895	10
	6	25	75421.88	11.65565	-4.438212	1	12.47205	-20.84571	-2.230321E-005	0.0007122	10
	7	27	59859.37	12.29015	-5.22228	1	13.35365	-23.02141	8.759917E-006	0.0006169	10
	8	30	47578.12	12.99672	-6.052576	1	14.33696	-24.97141	-1.631969E-005	0.0007328	10
	9	32	37828.12	13.795	-6.965552	1	15.45383	-26.79073	2.536366E-005	0.0006805	10
	10	35	30046.88	14.69872	-7.985898	1	16.72803	-28.51548	1.944969E-005	0.0006292	10
	11	37	23859.38	15.66871	-9.118945	1	18.12908	-30.19874	-8.417566E-006	0.0007262	10
	12	40	18984.38	16.73258	-10.39924	1	19.70085	-31.86082	-1.525911E-006	0.000649	10
	13	42	15046.87	17.88177	-11.84437	1	21.44871	-33.51934	-2.428418E-005	0.0007635	10
	14	44	11953.13	19.12154	-13.60812	1	23.46943	-35.43811	-2.519112E-005	0.0006658	10
	15	47	9515.62	20.44977	-15.56318	1	25.69836	-37.27273	-2.435057E-005	0.000728	10
	16	49	7546.875	21.91669	-18.12163	1	28.43826	-39.58535	2.741861E-005	0.0006533	10
	17	51	5928.309	23.63042	-21.20603	1	31.75048	-41.90492	-1.662086E-005	0.0006732	10
	18	54	4733.456	25.442	-24.81239	1	35.538	-44.28221	2.27768E-005	0.0006535	10
	19	56	3796.875	27.5434	-28.87455	1	39.90461	-46.35161	1.194548E-005	-0.0001182	9
	20	58	2987.132	30.28211	-34.41389	1	45.84018	-48.65421	1.004415E-005	-0.0001579	9
	21	61	2390.625	33.43746	-40.65042	1	52.63573	-50.56062	1.008995E-005	-7.186008E-005	9
	22	63	1884.191	37.71358	-48.49954	1	61.43711	-52.13111	-6.854129E-006	0.0002883	9
	23	65	1516.544	42.81155	-56.63187	1	70.99294	-52.9121	-7.378621E-006	0.0002581	9
	24	67	1193.986	50.06458	-66.81487	1	83.49065	-53.15567	9.566826E-006	-7.247656E-005	9
	25	70	946.5144	59.07494	-77.90077	1	97.767	-52.82566	1.027901E-005	-7.075078E-005	9
	26	72	751.7689	70.45548	-89.99849	1	114.2966	-51.94432	1.13899E-005	-0.0001128	9
	27	75	597.4265	84.55051	-102.5072	1	132.8778	-50.48334	8.367601E-006	-0.0001387	9
	28	77	477.4305	101.1804	-115.2457	1	153.3592	-48.71835	1.263595E-006	8.090142E-005	9
	29	79	376.6741	121.8296	-126.3187	1	175.4961	-46.0364	1.255003E-006	7.140504E-005	9
	30	82	298.2954	144.3497	-134.4678	1	197.2775	-42.97017	1.172718E-006	9.045862E-005	9
	31	84	237.7717	167.472	-140.5777	1	218.6526	-40.01044	1.243025E-006	7.622489E-005	9
	32	86	189.0121	191.157	-145.0106	1	239.9356	-37.18375	1.248493E-006	8.175335E-005	9
	33	89	150.2404	213.4053	-146.5096	1	258.8569	-34.47084	1.381593E-006	7.937368E-005	9
	34	91	119.1737	233.4554	-146.8249	1	275.7879	-32.16663	1.401799E-006	7.775926E-005	9
	35	94	95.0169	247.8456	-145.0896	1	287.1906	-30.34484	1.260421E-006	7.741862E-005	9
	36	96	75.60484	264.0768	-149.1215	1	303.2718	-29.45299	1.310305E-006	6.939212E-005	9
	37	99	54.50582	284.1711	-159.7851	1	326.013	-29.34838	1.402688E-006	7.868693E-005	9
	38	101	45.95588	281.3156	-162.6827	1	324.9679	-30.04048	1.293682E-006	8.006392E-005	9
	39	104	37.20238	302.3639	-182.0188	1	352.9232	-31.04735	1.291602E-006	8.27982E-005	9
	40	106	30.04808	308.1267	-199.5372	1	367.0929	-32.92635	1.698512E-007	0.0006569	8
	41	108	23.91582	322.2782	-227.3497	1	394.3997	-35.20088	-3.569889E-008	0.0006484	8
	42	111	18.60119	335.6356	-265.2574	1	427.7998	-38.3198	-3.123101E-007	0.0007174	8
	43	113	15.02404	361.4227	-306.938	1	474.1701	-40.33955	5.334032E-007	0.0006547	8
	44	115	12.01923	385.0013	-356.774	1	524.894	-42.82074	4.578896E-007	0.0006522	8
	45	118	9.450605	415.283	-421.4167	1	591.6519	-45.42002	4.44739E-007	0.0006466	8
	46	120	7.512019	445.1281	-494.3262	1	665.2048	-47.99777	4.130102E-007	0.0006483	8
	47	123	5.978954	482.5879	-580.8381	1	755.1582	-50.27859	3.491022E-007	0.0006531	8
	48	126	4.734848	530.7851	-687.9783	1	868.9344	-52.3493	2.565538E-007	0.0006334	8
	49	129	3.75601	595.6148	-815.8013	1	1010.093	-53.8669	5.006784E-007	0.0006713	8
	50	133	3.004808	654.9028	-964.305	1	1165.668	-55.81782	3.88131E-007	0.0006533	8
	51	136	2.372217	724.1002	-1156.938	1	1364.854	-57.95852	3.525795E-007	0.0005919	8
	52	141	1.878005	797.9515	-1399.798	1	1611.261	-60.3148	4.475673E-007	0.0006464	8
	53	145	1.512097	900.3788	-1669.752	1	1897.038	-61.66516	4.142461E-007	0.0006925	8
	54	151	1.201923	1025.357	-2025.64	1	2270.369	-63.15195	4.178662E-007	0.0007212	8
	55	157	0.956633	1202.703	-2447.275	1	2726.839	-63.82838	3.316449E-007	1.745382E-005	8
