EXPLAIN
TAG	EISPOT
TITLE	LABEL	Potentiostatic EIS	Test Identifier
DATE	LABEL	8/10/2020	Date
TIME	LABEL	8:26:55	Time
NOTES	NOTES	1	Notes...
	
PSTAT	PSTAT	REF3000-16137	Potentiostat
VDC	POTEN	0.00000E+000	T	DC Voltage (V)
FREQINIT	QUANT	3.00000E+005	Initial Freq. (Hz)
FREQFINAL	QUANT	1.00000E+000	Final Freq. (Hz)
PTSPERDEC	QUANT	1.00000E+001	Points/decade
VAC	QUANT	5.00000E+001	AC Voltage (mV rms)
AREA	QUANT	1.00000E+000	Sample Area (cm^2)
SPEED	SELECTOR	2	Optimize for:
ZGUESS	QUANT	1.00000E+003	Estimated Z (ohms)
EOC	QUANT	0	Open Circuit (V)
SEQUENCER	TOGGLE	TRUE	Run as Sequence
PSTATMODEL	IQUANT	5	Pstat Model
PSTATSECTION	LABEL	REF3000-16137	Pstat Section
PSTATSERIALNO	LABEL	16137	Pstat Serial Number
CTRLMODE	IQUANT	1	Control Mode
IESTAB	IQUANT	0	I/E Stability
CASPEED	IQUANT	1	Control Amp Speed
CONVENTION	IQUANT	1	Current Convention
ICHRANGE	IQUANT	2	Ich Range
ICHRANGEMODE	TOGGLE	F	Ich Auto Range
ICHOFFSETENABLE	TOGGLE	T	Ich Offset Enable
ICHOFFSET	QUANT	0	Ich Offset (V)
ICHFILTER	IQUANT	3	Ich Filter
VCHRANGE	IQUANT	2	Vch Range
VCHRANGEMODE	TOGGLE	F	Vch Auto Range
VCHOFFSETENABLE	TOGGLE	T	Vch Offset Enable
VCHOFFSET	QUANT	0	Vch Offset (V)
VCHFILTER	IQUANT	3	Vch Filter
ACHRANGE	IQUANT	2	Ach Range
ACHOFFSETENABLE	TOGGLE	F	Ach Offset Enable
ACHOFFSET	QUANT	0	Ach Offset (V)
ACHFILTER	IQUANT	3	Ach Filter
IERANGELOWERLIMIT	IQUANT	2	I/E Range Lower Limit
IERANGEMODE	TOGGLE	F	I/E AutoRange
IERANGE	IQUANT	11	I/E Range
POSFEEDENABLE	TOGGLE	F	Positive Feedback IR Comp
POSFEEDRESISTANCE	QUANT	0	Positive Feedback Resistance (ohm)
ACHSELECT	IQUANT	0	Ach Select
CABLEID	IQUANT	13	Cable ID
DCCALDATE	LABEL	7/31/2020	DC Calibration Date
ACCALDATE	LABEL	7/31/2020	AC Calibration Date
THERMOSELECT	IQUANT	1	Thermo Select
FRAMEWORKVERSION	QUANT	6.33	Framework Version
INSTRUMENTVERSION	LABEL	3.50	Instrument Version
COMPLIANCEVOLTAGE	IQUANT	0	Compliance Voltage
ZCURVE	TABLE
	Pt	Time	Freq	Zreal	Zimag	Zsig	Zmod	Zphz	Idc	Vdc	IERange
	#	s	Hz	ohm	ohm	V	ohm	°	A	V	#
	0	9	300046.9	3.252227	-0.0754897	1	3.253103	-1.329693	-0.0001167	-0.0006716	12
	1	14	238359.4	3.383623	-0.1553609	1	3.387188	-2.628921	7.959891E-005	1.906777E-005	11
	2	17	189328.1	3.517145	-0.5357993	1	3.557723	-8.661801	7.314354E-005	0.0002408	11
	3	19	150421.9	3.683812	-0.8563885	1	3.782046	-13.08729	3.472102E-005	0.000506	10
	4	22	119484.4	3.862112	-1.203727	1	4.045352	-17.311	-9.397525E-005	0.0004565	10
	5	24	94921.88	4.06628	-1.535377	1	4.346494	-20.68591	3.656775E-005	0.0005233	10
	6	27	75421.88	4.280011	-1.886458	1	4.677309	-23.78598	2.766365E-005	0.0005896	10
	7	29	59859.37	4.514326	-2.25766	1	5.047392	-26.5701	1.395589E-005	0.0006248	10
	8	32	47578.12	4.758654	-2.670938	1	5.456986	-29.30463	5.940149E-007	0.000636	10
	9	34	37828.12	5.026797	-3.128438	1	5.920795	-31.89616	1.843626E-005	0.0006584	10
	10	37	30046.88	5.315542	-3.664875	1	6.456492	-34.58486	5.244474E-007	0.0006621	10
	11	40	23859.38	5.630377	-4.297185	1	7.082863	-37.35139	-2.963836E-005	0.0006815	10
	12	42	18984.38	5.976334	-5.046635	1	7.82209	-40.17897	-3.359743E-005	0.0006816	10
	13	44	15046.87	6.379871	-5.949583	1	8.723548	-43.00124	1.706795E-005	0.0006642	10
	14	47	11953.13	6.840523	-7.043794	1	9.81875	-45.83877	2.024345E-005	0.0006639	10
	15	49	9515.62	7.379543	-8.35231	1	11.14535	-48.53833	1.132532E-005	0.0006588	10
	16	51	7546.875	8.03621	-9.94948	1	12.78956	-51.07215	-2.928776E-005	0.0007168	10
	17	53	5928.309	8.87923	-11.96342	1	14.89846	-53.41726	-7.358296E-006	0.000657	10
	18	56	4733.456	9.85175	-14.21935	1	17.29876	-55.28419	1.283852E-005	0.0006534	10
	19	58	3796.875	11.01836	-16.84947	1	20.13228	-56.81816	1.683432E-005	0.0006444	10
	20	60	2987.132	12.65659	-20.16852	1	23.8109	-57.89001	1.840456E-005	0.0006464	10
	21	63	2390.625	14.58131	-23.7903	1	27.90328	-58.49547	1.251653E-005	0.0006471	10
	22	65	1884.191	17.10857	-28.38199	1	33.13971	-58.91857	1.240873E-005	0.0006487	10
	23	67	1516.544	20.04206	-33.10952	1	38.70303	-58.81237	-2.034197E-005	0.0006747	10
	24	70	1193.986	24.01823	-39.03414	1	45.83164	-58.39546	3.275514E-006	-1.894438E-005	9
	25	72	946.5144	28.86334	-45.52692	1	53.90541	-57.62595	-8.15481E-006	0.000149	9
	26	75	751.7689	34.80841	-52.66187	1	63.12605	-56.53611	8.489169E-007	4.753214E-006	9
	27	77	597.4265	41.94218	-60.37321	1	73.51238	-55.21171	3.800941E-006	-1.543134E-005	9
	28	79	477.4305	50.20076	-68.41621	1	84.85808	-53.73044	-3.31138E-006	8.007704E-005	9
	29	81	376.6741	60.44284	-77.36838	1	98.1794	-52.00182	-3.255741E-006	7.608403E-005	9
	30	84	298.2954	72.10592	-86.46002	1	112.5815	-50.17257	-3.263728E-006	7.845341E-005	9
	31	86	237.7717	84.95998	-95.5142	1	127.8325	-48.34687	-3.257001E-006	7.530385E-005	9
	32	89	189.0121	99.5335	-104.8406	1	144.563	-46.48749	-3.211887E-006	8.642137E-005	9
	33	91	150.2404	115.6711	-114.1906	1	162.5401	-44.63096	-3.216378E-006	7.601456E-005	9
	34	93	119.1737	133.6404	-123.6506	1	182.0693	-42.7765	-3.180347E-006	7.917518E-005	9
	35	96	95.0169	152.8763	-132.7883	1	202.4942	-40.97758	-3.158907E-006	7.811097E-005	9
	36	98	75.60484	173.9319	-141.4683	1	224.1998	-39.12335	-2.998428E-006	7.817343E-005	9
	37	101	54.50582	206.7951	-152.7538	1	257.0952	-36.45226	-2.987978E-006	7.11968E-005	9
	38	103	45.95588	224.9668	-157.8042	1	274.7949	-35.04794	-3.082157E-006	7.872813E-005	9
	39	106	37.20238	247.3904	-163.1118	1	296.3232	-33.39805	-3.169324E-006	8.660687E-005	9
	40	108	30.04808	269.6106	-167.5958	1	317.4559	-31.86597	-2.891329E-006	6.888583E-005	9
	41	111	23.91582	292.7824	-172.9782	1	340.0632	-30.57494	-2.752754E-006	6.854034E-005	9
	42	113	18.60119	317.1599	-180.4959	1	364.9235	-29.64423	-2.778487E-006	7.830637E-005	9
	43	115	15.02404	335.7458	-188.1101	1	384.8515	-29.26083	-4.004318E-006	0.0006754	8
	44	117	12.01923	357.8601	-200.5917	1	410.2449	-29.27198	-4.080315E-006	0.0006615	8
	45	120	9.450605	383.1346	-217.7232	1	440.6762	-29.60819	-4.416835E-006	0.0006664	8
	46	122	7.512019	411.1056	-238.3927	1	475.2251	-30.10867	-4.329534E-006	0.000646	8
	47	125	5.978954	444.4992	-261.9643	1	515.9504	-30.51285	-4.176364E-006	0.0006613	8
	48	128	4.734848	485.7407	-287.5858	1	564.4905	-30.62792	-3.90548E-006	0.0006555	8
	49	131	3.75601	533.9537	-313.4498	1	619.1586	-30.41445	-3.984523E-006	0.000647	8
	50	135	3.004808	587.3259	-334.9382	1	676.1179	-29.6951	-3.675627E-006	0.000627	8
	51	139	2.372217	651.1685	-353.4993	1	740.9333	-28.49617	-3.710355E-006	0.0006434	8
	52	143	1.878005	718.5955	-363.4962	1	805.3005	-26.83223	-3.683577E-006	0.0006534	8
	53	148	1.512097	783.8699	-368.4819	1	866.1588	-25.1773	-3.579371E-006	0.0005794	8
	54	153	1.201923	853.74	-366.1534	1	928.9458	-23.21361	-3.522748E-006	0.0006522	8
	55	159	0.956633	920.9948	-358.7296	1	988.392	-21.28103	-3.915333E-006	1.421891E-005	8
