EXPLAIN
TAG	EISPOT
TITLE	LABEL	Potentiostatic EIS	Test Identifier
DATE	LABEL	8/10/2020	Date
TIME	LABEL	8:43:45	Time
NOTES	NOTES	1	Notes...
	
PSTAT	PSTAT	REF3000-16137	Potentiostat
VDC	POTEN	0.00000E+000	T	DC Voltage (V)
FREQINIT	QUANT	3.00000E+005	Initial Freq. (Hz)
FREQFINAL	QUANT	1.00000E+000	Final Freq. (Hz)
PTSPERDEC	QUANT	1.00000E+001	Points/decade
VAC	QUANT	5.00000E+001	AC Voltage (mV rms)
AREA	QUANT	1.00000E+000	Sample Area (cm^2)
SPEED	SELECTOR	2	Optimize for:
ZGUESS	QUANT	1.00000E+003	Estimated Z (ohms)
EOC	QUANT	0	Open Circuit (V)
SEQUENCER	TOGGLE	TRUE	Run as Sequence
PSTATMODEL	IQUANT	5	Pstat Model
PSTATSECTION	LABEL	REF3000-16137	Pstat Section
PSTATSERIALNO	LABEL	16137	Pstat Serial Number
CTRLMODE	IQUANT	1	Control Mode
IESTAB	IQUANT	0	I/E Stability
CASPEED	IQUANT	1	Control Amp Speed
CONVENTION	IQUANT	1	Current Convention
ICHRANGE	IQUANT	2	Ich Range
ICHRANGEMODE	TOGGLE	F	Ich Auto Range
ICHOFFSETENABLE	TOGGLE	T	Ich Offset Enable
ICHOFFSET	QUANT	0	Ich Offset (V)
ICHFILTER	IQUANT	3	Ich Filter
VCHRANGE	IQUANT	2	Vch Range
VCHRANGEMODE	TOGGLE	F	Vch Auto Range
VCHOFFSETENABLE	TOGGLE	T	Vch Offset Enable
VCHOFFSET	QUANT	0	Vch Offset (V)
VCHFILTER	IQUANT	3	Vch Filter
ACHRANGE	IQUANT	2	Ach Range
ACHOFFSETENABLE	TOGGLE	F	Ach Offset Enable
ACHOFFSET	QUANT	0	Ach Offset (V)
ACHFILTER	IQUANT	3	Ach Filter
IERANGELOWERLIMIT	IQUANT	2	I/E Range Lower Limit
IERANGEMODE	TOGGLE	F	I/E AutoRange
IERANGE	IQUANT	11	I/E Range
POSFEEDENABLE	TOGGLE	F	Positive Feedback IR Comp
POSFEEDRESISTANCE	QUANT	0	Positive Feedback Resistance (ohm)
ACHSELECT	IQUANT	0	Ach Select
CABLEID	IQUANT	13	Cable ID
DCCALDATE	LABEL	7/31/2020	DC Calibration Date
ACCALDATE	LABEL	7/31/2020	AC Calibration Date
THERMOSELECT	IQUANT	1	Thermo Select
FRAMEWORKVERSION	QUANT	6.33	Framework Version
INSTRUMENTVERSION	LABEL	3.50	Instrument Version
COMPLIANCEVOLTAGE	IQUANT	0	Compliance Voltage
ZCURVE	TABLE
	Pt	Time	Freq	Zreal	Zimag	Zsig	Zmod	Zphz	Idc	Vdc	IERange
	#	s	Hz	ohm	ohm	V	ohm	°	A	V	#
	0	8	300046.9	14.59245	-1.180131	1	14.64009	-4.623602	-5.610141E-006	0.0001591	10
	1	11	238359.4	14.95754	-1.845042	1	15.0709	-7.032028	3.150349E-005	0.0004271	10
	2	15	189328.1	15.39022	-2.488537	1	15.59012	-9.184996	-1.793945E-005	0.0005485	10
	3	17	150421.9	15.84903	-3.157784	1	16.16055	-11.26814	-8.34371E-006	0.0004399	10
	4	20	119484.4	16.4004	-3.884095	1	16.85406	-13.32384	6.725382E-005	0.0005357	10
	5	22	94921.88	17.02933	-4.660929	1	17.65566	-15.30699	2.528789E-005	0.0006056	10
	6	25	75421.88	17.73919	-5.525123	1	18.57972	-17.29994	1.95747E-005	0.0005857	10
	7	27	59859.37	18.54732	-6.480593	1	19.64692	-19.25985	2.104529E-005	0.0006095	10
	8	30	47578.12	19.4908	-7.499002	1	20.88364	-21.04402	-1.000022E-005	0.000659	10
	9	32	37828.12	20.5619	-8.627272	1	22.29846	-22.76174	1.481539E-005	0.0006036	10
	10	35	30046.88	21.77928	-9.87462	1	23.91328	-24.38931	-1.204336E-005	0.0006608	10
	11	37	23859.38	23.16131	-11.25127	1	25.74951	-25.90949	2.140488E-005	0.0006068	10
	12	40	18984.38	24.66193	-12.71947	1	27.7488	-27.28258	-1.062651E-005	0.0006628	10
	13	42	15046.87	26.35548	-14.41131	1	30.03826	-28.67007	-2.593113E-005	0.0006657	10
	14	44	11953.13	28.19528	-16.27189	1	32.55378	-29.98985	-2.162937E-005	0.0007186	10
	15	47	9515.62	30.18682	-18.36379	1	35.33373	-31.31374	2.445377E-005	0.0006481	10
	16	49	7546.875	32.36577	-20.77813	1	38.46133	-32.69959	-8.030247E-006	0.0002631	9
	17	51	5928.309	34.87884	-23.79654	1	42.22332	-34.30426	-8.26936E-006	0.0002253	9
	18	54	4733.456	37.5072	-27.21397	1	46.33994	-35.96338	-9.946333E-007	0.0002575	9
	19	56	3796.875	40.40415	-31.08863	1	50.98038	-37.57618	-1.631522E-006	0.0002336	9
	20	58	2987.132	44.03873	-36.06951	1	56.92467	-39.31887	-9.794595E-006	0.0003784	9
	21	61	2390.625	48.08277	-41.49359	1	63.51118	-40.79294	1.083495E-007	0.000271	9
	22	63	1884.191	53.38276	-48.3625	1	72.0323	-42.17523	-6.525275E-007	0.0002555	9
	23	65	1516.544	59.36351	-55.46422	1	81.24226	-43.05511	1.372974E-005	-0.0002255	9
	24	67	1193.986	67.54121	-64.01116	1	93.05505	-43.46291	1.186911E-005	-0.0002538	9
	25	70	946.5144	77.47076	-71.40617	1	105.3592	-42.66731	-8.878654E-006	0.0003513	9
	26	72	751.7689	89.37325	-80.08834	1	120.0072	-41.86386	1.228557E-005	-0.0001155	9
	27	75	597.4265	103.4213	-88.45535	1	136.0894	-40.54008	-1.030057E-005	0.0003395	9
	28	77	477.4305	118.6907	-94.41371	1	151.6622	-38.50085	1.347182E-006	7.567577E-005	9
	29	79	376.6741	136.4483	-100.4132	1	169.4136	-36.3496	1.370705E-006	7.986866E-005	9
	30	82	298.2954	153.3795	-102.4169	1	184.4302	-33.73244	1.431465E-006	7.661356E-005	9
	31	84	237.7717	170.2331	-104.7575	1	199.8836	-31.60717	1.450429E-006	7.544871E-005	9
	32	86	189.0121	184.3623	-104.2825	1	211.812	-29.49418	1.470156E-006	7.956583E-005	9
	33	89	150.2404	198.3276	-105.7216	1	224.7463	-28.06055	1.474647E-006	7.614449E-005	9
	34	91	119.1737	208.7386	-106.8994	1	234.5193	-27.11792	1.568486E-006	7.940974E-005	9
	35	94	95.0169	221.281	-112.5992	1	248.2819	-26.96934	1.499143E-006	7.310532E-005	9
	36	96	75.60484	228.3507	-118.7582	1	257.386	-27.47755	1.415252E-006	6.252521E-005	9
	37	99	54.50582	240.3056	-135.9477	1	276.0952	-29.49807	1.40587E-006	0.0001191	9
	38	101	45.95588	248.4008	-149.3771	1	289.856	-31.02081	1.466324E-006	7.666554E-005	9
	39	104	37.20238	257.8767	-169.9501	1	308.8421	-33.38632	1.590289E-006	7.507362E-005	9
	40	106	30.04808	278.7512	-198.7084	1	342.3262	-35.48326	1.573088E-006	7.306527E-005	9
	41	108	23.91582	290.1463	-233.5411	1	372.4598	-38.83086	1.685259E-006	6.779058E-005	9
	42	111	18.60119	310.6604	-282.2911	1	419.7596	-42.26082	7.749076E-007	0.0006514	8
	43	113	15.02404	324.8893	-332.7377	1	465.0456	-45.68377	1.044925E-007	0.0006502	8
	44	115	12.01923	352.9457	-397.284	1	531.4182	-48.38222	3.758896E-007	0.0006515	8
	45	118	9.450605	382.3495	-479.9846	1	613.6582	-51.45963	1.339829E-007	0.0006561	8
	46	120	7.512019	419.2187	-575.1446	1	711.7131	-53.91196	3.035851E-007	0.0006365	8
	47	123	5.978954	467.0266	-687.2373	1	830.9085	-55.80111	3.385289E-007	0.0006558	8
	48	126	4.734848	522.1015	-822.3541	1	974.092	-57.58909	4.227605E-007	0.0006471	8
	49	129	3.75601	590.8545	-982.091	1	1146.129	-58.96765	3.588237E-007	0.0006422	8
	50	133	3.004808	663.6718	-1162.703	1	1338.782	-60.28224	4.562921E-007	0.0006162	8
	51	136	2.372217	748.7311	-1392.786	1	1581.282	-61.73851	4.135933E-007	0.000607	8
	52	141	1.878005	846.2453	-1668.683	1	1870.999	-63.10891	4.086268E-007	0.0006514	8
	53	145	1.512097	957.047	-1980.353	1	2199.485	-64.20689	4.182804E-007	0.0005409	8
	54	151	1.201923	1101.528	-2382.741	1	2625.037	-65.18917	4.090589E-007	0.0006661	8
	55	157	0.956633	1266.954	-2874.621	1	3141.436	-66.2151	3.92976E-007	1.853969E-005	8
