EXPLAIN
TAG	EISPOT
TITLE	LABEL	Potentiostatic EIS	Test Identifier
DATE	LABEL	2/26/2021	Date
TIME	LABEL	14:37:36	Time
NOTES	NOTES	1	Notes...
	
PSTAT	PSTAT	REF3000-16137	Potentiostat
VDC	POTEN	0.00000E+000	T	DC Voltage (V)
FREQINIT	QUANT	3.00000E+005	Initial Freq. (Hz)
FREQFINAL	QUANT	1.00000E+000	Final Freq. (Hz)
PTSPERDEC	QUANT	1.00000E+001	Points/decade
VAC	QUANT	5.00000E+001	AC Voltage (mV rms)
AREA	QUANT	1.00000E+000	Sample Area (cm^2)
SPEED	SELECTOR	2	Optimize for:
ZGUESS	QUANT	1.00000E+003	Estimated Z (ohms)
EOC	QUANT	0	Open Circuit (V)
SEQUENCER	TOGGLE	TRUE	Run as Sequence
PSTATMODEL	IQUANT	5	Pstat Model
PSTATSECTION	LABEL	REF3000-16137	Pstat Section
PSTATSERIALNO	LABEL	16137	Pstat Serial Number
CTRLMODE	IQUANT	1	Control Mode
IESTAB	IQUANT	0	I/E Stability
CASPEED	IQUANT	1	Control Amp Speed
CONVENTION	IQUANT	1	Current Convention
ICHRANGE	IQUANT	2	Ich Range
ICHRANGEMODE	TOGGLE	F	Ich Auto Range
ICHOFFSETENABLE	TOGGLE	T	Ich Offset Enable
ICHOFFSET	QUANT	0	Ich Offset (V)
ICHFILTER	IQUANT	3	Ich Filter
VCHRANGE	IQUANT	2	Vch Range
VCHRANGEMODE	TOGGLE	F	Vch Auto Range
VCHOFFSETENABLE	TOGGLE	T	Vch Offset Enable
VCHOFFSET	QUANT	0	Vch Offset (V)
VCHFILTER	IQUANT	3	Vch Filter
ACHRANGE	IQUANT	2	Ach Range
ACHOFFSETENABLE	TOGGLE	F	Ach Offset Enable
ACHOFFSET	QUANT	0	Ach Offset (V)
ACHFILTER	IQUANT	3	Ach Filter
IERANGELOWERLIMIT	IQUANT	2	I/E Range Lower Limit
IERANGEMODE	TOGGLE	F	I/E AutoRange
IERANGE	IQUANT	11	I/E Range
POSFEEDENABLE	TOGGLE	F	Positive Feedback IR Comp
POSFEEDRESISTANCE	QUANT	0	Positive Feedback Resistance (ohm)
ACHSELECT	IQUANT	0	Ach Select
CABLEID	IQUANT	13	Cable ID
DCCALDATE	LABEL	7/31/2020	DC Calibration Date
ACCALDATE	LABEL	7/31/2020	AC Calibration Date
THERMOSELECT	IQUANT	1	Thermo Select
FRAMEWORKVERSION	QUANT	6.33	Framework Version
INSTRUMENTVERSION	LABEL	3.50	Instrument Version
COMPLIANCEVOLTAGE	IQUANT	0	Compliance Voltage
ZCURVE	TABLE
	Pt	Time	Freq	Zreal	Zimag	Zsig	Zmod	Zphz	Idc	Vdc	IERange
	#	s	Hz	ohm	ohm	V	ohm	°	A	V	#
	0	8	300046.9	153.025	-10.75747	1	153.4026	-4.021207	-7.729587E-006	0.001053	9
	1	12	238359.4	154.5513	-13.07425	1	155.1033	-4.83542	-5.517372E-005	0.0005757	9
	2	15	189328.1	155.9527	-15.45091	1	156.7162	-5.658076	4.784493E-005	-0.0003209	9
	3	18	150421.9	158.3009	-18.63958	1	159.3946	-6.715528	-1.270216E-005	0.0010165	9
	4	20	119484.4	159.871	-21.93687	1	161.369	-7.813109	1.9443E-005	-0.0003501	9
	5	23	94921.88	162.315	-25.60506	1	164.3221	-8.964493	-1.766204E-005	0.0003062	9
	6	25	75421.88	165.0702	-30.19715	1	167.8096	-10.36678	-1.982249E-005	0.0004766	9
	7	28	59859.37	168.4705	-35.80324	1	172.2329	-11.99796	1.157019E-005	0.0001883	9
	8	30	47578.12	172.3338	-41.8549	1	177.3437	-13.65117	-1.554545E-005	0.000178	9
	9	33	37828.12	177.1404	-49.0652	1	183.81	-15.48192	-2.301805E-006	-0.0002972	9
	10	35	30046.88	182.7159	-57.47217	1	191.5415	-17.46065	-8.555749E-006	0.0007926	9
	11	38	23859.38	188.974	-66.46091	1	200.3203	-19.37644	2.337857E-005	-0.0002841	9
	12	40	18984.38	196.3451	-76.81107	1	210.8349	-21.36566	2.309726E-005	-0.0002119	9
	13	42	15046.87	204.7074	-88.51003	1	223.0227	-23.38237	-2.000322E-005	0.0004893	9
	14	45	11953.13	214.4545	-101.422	1	237.2281	-25.31088	-9.966613E-006	-2.796236E-005	9
	15	47	9515.62	224.8882	-116.7232	1	253.3752	-27.43056	2.575705E-005	-0.0002894	9
	16	51	7546.875	235.8623	-134.4774	1	271.5054	-29.68971	1.948537E-005	-3.414993E-005	9
	17	54	5928.309	247.2209	-155.1836	1	291.8906	-32.11699	1.472076E-005	-0.0007154	9
	18	57	4733.456	256.7238	-179.3555	1	313.1701	-34.93938	-1.745758E-005	0.0003447	9
	19	59	3796.875	267.7057	-207.3983	1	338.645	-37.76584	-1.46996E-005	0.0001805	9
	20	61	2987.132	277.6486	-247.9272	1	372.232	-41.76336	-1.918842E-006	-0.0003135	9
	21	64	2390.625	285.3093	-294.3641	1	409.941	-45.89492	4.398612E-006	0.0010665	8
	22	66	1884.191	295.9561	-355.6697	1	462.6996	-50.23584	-8.027305E-006	0.0031902	8
	23	68	1516.544	305.5948	-430.7623	1	528.1518	-54.64705	-1.860435E-006	0.0031133	8
	24	70	1193.986	318.6724	-530.314	1	618.6963	-58.99781	-7.867385E-006	0.002215	8
	25	73	946.5144	332.732	-655.6147	1	735.2151	-63.09169	-6.561323E-006	0.0037898	8
	26	75	751.7689	352.2176	-808.5426	1	881.9288	-66.46107	-6.560844E-006	0.0014796	8
	27	78	597.4265	367.6288	-996.898	1	1062.524	-69.7574	1.261265E-006	0.0022638	8
	28	80	477.4305	391.878	-1228.578	1	1289.563	-72.30894	1.621726E-007	0.0006666	8
	29	82	376.6741	422.4085	-1532.677	1	1589.82	-74.5917	1.768327E-007	0.0006614	8
	30	85	298.2954	459.6258	-1906.793	1	1961.407	-76.44759	1.868314E-007	0.0006565	8
	31	87	237.7717	504.9109	-2359.011	1	2412.441	-77.91898	1.760841E-007	0.0006514	8
	32	90	189.0121	562.2759	-2927.56	1	2981.067	-79.12799	1.60493E-007	0.0006589	8
	33	92	150.2404	634.4099	-3633.336	1	3688.306	-80.09554	1.91118E-007	0.000649	8
	34	94	119.1737	729.6188	-4527.875	1	4586.283	-80.84608	-3.247182E-009	0.0006385	7
	35	97	95.0169	845.106	-5603.71	1	5667.078	-81.42374	-1.085954E-009	0.0006222	7
	36	99	75.60484	993.868	-6948.357	1	7019.077	-81.85983	-4.668771E-009	0.0006296	7
	37	102	54.50582	1283.569	-9449.473	1	9536.25	-82.26457	-5.906603E-009	0.0006331	7
	38	104	45.95588	1482.089	-11095.93	1	11194.47	-82.39201	-3.447426E-009	0.0006384	7
	39	108	37.20238	1791.759	-13533.07	1	13651.17	-82.45798	-4.253102E-009	0.0006406	7
	40	110	30.04808	2193.863	-16529.6	1	16674.55	-82.4397	-2.367293E-009	0.0006246	7
	41	112	23.91582	2769.617	-20491.48	1	20677.8	-82.30258	-1.617675E-009	0.0006252	7
	42	115	18.60119	3596.942	-25907.02	1	26155.53	-82.09556	-3.822434E-009	0.0006376	7
	43	117	15.02404	4585.234	-31580.16	1	31911.3	-81.73875	1.694161E-009	0.0006418	7
	44	119	12.01923	5948.536	-38831.96	1	39284.93	-81.29076	4.158776E-010	0.0006366	7
	45	122	9.450605	7969.711	-48445.07	1	49096.24	-80.65794	-1.264931E-008	0.0006634	6
	46	124	7.512019	10613.32	-59760.79	1	60695.92	-79.92946	-1.308401E-008	0.000703	6
	47	127	5.978954	14215.32	-73454.27	1	74817.15	-79.04717	-1.334942E-008	0.0006699	6
	48	131	4.734848	19303.93	-90458.04	1	92494.86	-77.95366	-1.23972E-008	0.0007072	6
	49	135	3.75601	26313.96	-110845.4	1	113926	-76.64557	-1.367579E-008	0.0006684	6
	50	140	3.004808	35446.43	-134160.7	1	138764.4	-75.20014	-1.330312E-008	0.0006926	6
	51	147	2.372217	48802.45	-163219.5	1	170359.3	-73.3534	-1.335854E-008	0.000729	6
	52	151	1.878005	66328.27	-197113.8	1	207974.3	-71.40205	-1.399465E-008	0.0006657	6
	53	156	1.512097	87253.02	-232411.4	1	248250.2	-69.42262	-1.328639E-008	0.0006197	6
	54	161	1.201923	116817.9	-274772.1	1	298573.5	-66.96749	-1.337824E-008	0.0006706	6
	55	167	0.956633	153368.1	-320610.3	1	355405	-64.43526	-1.36272E-008	3.733896E-005	6
