EXPLAIN
TAG	EISPOT
TITLE	LABEL	Potentiostatic EIS	Test Identifier
DATE	LABEL	2/26/2021	Date
TIME	LABEL	13:49:02	Time
NOTES	NOTES	1	Notes...
	
PSTAT	PSTAT	REF3000-16137	Potentiostat
VDC	POTEN	0.00000E+000	T	DC Voltage (V)
FREQINIT	QUANT	3.00000E+005	Initial Freq. (Hz)
FREQFINAL	QUANT	1.00000E+000	Final Freq. (Hz)
PTSPERDEC	QUANT	1.00000E+001	Points/decade
VAC	QUANT	5.00000E+001	AC Voltage (mV rms)
AREA	QUANT	1.00000E+000	Sample Area (cm^2)
SPEED	SELECTOR	2	Optimize for:
ZGUESS	QUANT	1.00000E+003	Estimated Z (ohms)
EOC	QUANT	0	Open Circuit (V)
SEQUENCER	TOGGLE	TRUE	Run as Sequence
PSTATMODEL	IQUANT	5	Pstat Model
PSTATSECTION	LABEL	REF3000-16137	Pstat Section
PSTATSERIALNO	LABEL	16137	Pstat Serial Number
CTRLMODE	IQUANT	1	Control Mode
IESTAB	IQUANT	0	I/E Stability
CASPEED	IQUANT	1	Control Amp Speed
CONVENTION	IQUANT	1	Current Convention
ICHRANGE	IQUANT	2	Ich Range
ICHRANGEMODE	TOGGLE	F	Ich Auto Range
ICHOFFSETENABLE	TOGGLE	T	Ich Offset Enable
ICHOFFSET	QUANT	0	Ich Offset (V)
ICHFILTER	IQUANT	3	Ich Filter
VCHRANGE	IQUANT	2	Vch Range
VCHRANGEMODE	TOGGLE	F	Vch Auto Range
VCHOFFSETENABLE	TOGGLE	T	Vch Offset Enable
VCHOFFSET	QUANT	0	Vch Offset (V)
VCHFILTER	IQUANT	3	Vch Filter
ACHRANGE	IQUANT	2	Ach Range
ACHOFFSETENABLE	TOGGLE	F	Ach Offset Enable
ACHOFFSET	QUANT	0	Ach Offset (V)
ACHFILTER	IQUANT	1	Ach Filter
IERANGELOWERLIMIT	IQUANT	2	I/E Range Lower Limit
IERANGEMODE	TOGGLE	F	I/E AutoRange
IERANGE	IQUANT	11	I/E Range
POSFEEDENABLE	TOGGLE	F	Positive Feedback IR Comp
POSFEEDRESISTANCE	QUANT	0	Positive Feedback Resistance (ohm)
ACHSELECT	IQUANT	0	Ach Select
CABLEID	IQUANT	13	Cable ID
DCCALDATE	LABEL	7/31/2020	DC Calibration Date
ACCALDATE	LABEL	7/31/2020	AC Calibration Date
THERMOSELECT	IQUANT	1	Thermo Select
FRAMEWORKVERSION	QUANT	6.33	Framework Version
INSTRUMENTVERSION	LABEL	3.50	Instrument Version
COMPLIANCEVOLTAGE	IQUANT	0	Compliance Voltage
ZCURVE	TABLE
	Pt	Time	Freq	Zreal	Zimag	Zsig	Zmod	Zphz	Idc	Vdc	IERange
	#	s	Hz	ohm	ohm	V	ohm	°	A	V	#
	0	7	300046.9	30.60763	-3.933573	1	30.85936	-7.323288	1.661127E-005	-2.2408E-005	11
	1	11	238359.4	31.29721	-4.857815	1	31.67197	-8.822796	7.751738E-005	0.000189	10
	2	14	189328.1	31.9537	-6.256631	1	32.56048	-11.07852	2.117511E-005	0.0005123	10
	3	17	150421.9	32.78314	-7.834965	1	33.70639	-13.44121	-5.02278E-006	0.0004563	10
	4	19	119484.4	33.70584	-9.51108	1	35.02205	-15.75794	5.215906E-005	0.0007544	10
	5	22	94921.88	34.79598	-11.27696	1	36.57773	-17.95689	-2.052328E-005	0.0007429	10
	6	24	75421.88	36.17721	-13.00771	1	38.44464	-19.77632	1.663576E-005	-0.0004035	9
	7	27	59859.37	37.5727	-15.28497	1	40.56276	-22.137	-8.714843E-006	0.000523	9
	8	29	47578.12	39.1486	-17.81161	1	43.01007	-24.46432	6.994243E-006	-0.0003091	9
	9	32	37828.12	40.84632	-20.63099	1	45.7609	-26.79779	1.815689E-005	-0.0003587	9
	10	34	30046.88	42.58442	-23.90206	1	48.83381	-29.30491	1.731982E-005	-0.0002131	9
	11	37	23859.38	44.3865	-27.74965	1	52.34696	-32.0129	1.718046E-006	-0.0001476	9
	12	39	18984.38	46.16531	-32.4936	1	56.45414	-35.13992	-7.134267E-006	0.0004651	9
	13	44	15046.87	48.01368	-38.37973	1	61.46801	-38.63709	1.538718E-005	-0.0001164	9
	14	46	11953.13	49.90268	-45.72553	1	67.68383	-42.49885	-1.091794E-005	0.0005262	9
	15	48	9515.62	51.93407	-54.7522	1	75.4649	-46.51313	1.525727E-005	-0.0001097	9
	16	50	7546.875	54.31731	-66.19737	1	85.6298	-50.62989	-5.781559E-006	0.0005254	9
	17	53	5928.309	57.22556	-81.21269	1	99.3492	-54.83002	-1.13033E-005	0.0002603	9
	18	55	4733.456	60.38626	-98.6859	1	115.6953	-58.53739	-6.023494E-006	0.0004865	9
	19	57	3796.875	64.23622	-119.5801	1	135.7413	-61.75614	1.722024E-005	-0.0002773	9
	20	60	2987.132	69.64553	-147.4926	1	163.109	-64.72346	1.143305E-005	-0.0003757	9
	21	62	2390.625	76.1207	-179.3058	1	194.7946	-66.99731	1.06753E-005	-0.0003584	9
	22	64	1884.191	84.0141	-221.8167	1	237.1941	-69.25559	-9.513367E-006	0.0005212	9
	23	66	1516.544	92.6713	-269.1176	1	284.6265	-70.99873	1.682092E-005	-0.0002316	9
	24	69	1193.986	105.6494	-332.12	1	348.519	-72.35382	-1.354904E-005	0.0005012	9
	25	71	946.5144	124.2127	-405.4032	1	424.0054	-72.9653	-1.124891E-005	0.0003377	9
	26	74	751.7689	140.2583	-497.5041	1	516.8972	-74.25558	-2.490892E-006	0.0013514	8
	27	76	597.4265	163.5889	-608.8057	1	630.4012	-74.95962	1.349494E-006	0.0006674	8
	28	78	477.4305	193.4853	-741.4988	1	766.327	-75.37545	1.74036E-007	0.000664	8
	29	80	376.6741	232.9053	-912.566	1	941.8182	-75.68259	1.83897E-007	0.0006646	8
	30	83	298.2954	282.2109	-1118.874	1	1153.916	-75.84369	1.810338E-007	0.0006584	8
	31	85	237.7717	342.9553	-1362.728	1	1405.221	-75.87383	1.872171E-007	0.0006585	8
	32	88	189.0121	421.1836	-1662.636	1	1715.154	-75.78471	1.847811E-007	0.0006553	8
	33	90	150.2404	520.8723	-2026.051	1	2091.934	-75.5822	1.80061E-007	0.00066	8
	34	92	119.1737	650.3443	-2470.835	1	2554.99	-75.25374	2.008827E-007	0.0006578	8
	35	95	95.0169	813.007	-2995.6	1	3103.966	-74.81567	1.934054E-007	0.0006573	8
	36	97	75.60484	1023.383	-3631.593	1	3773.033	-74.26216	1.85462E-007	0.0006534	8
	37	100	54.50582	1435.85	-4772.808	1	4984.11	-73.25662	-3.050896E-007	0.0006355	7
	38	102	45.95588	1716.563	-5489.482	1	5751.609	-72.63551	-2.951054E-007	0.0006391	7
	39	105	37.20238	2144.827	-6506.331	1	6850.739	-71.75507	-2.961675E-007	0.0006403	7
	40	107	30.04808	2703.521	-7719.846	1	8179.55	-70.69955	-3.024861E-007	0.0006435	7
	41	109	23.91582	3455.263	-9224.29	1	9850.2	-69.4649	-3.085605E-007	0.0006436	7
	42	112	18.60119	4507.436	-11127.34	1	12005.61	-67.94824	-2.966693E-007	0.0006499	7
	43	114	15.02404	5649.416	-13000.81	1	14175.22	-66.51296	-2.839917E-007	0.0006482	7
	44	116	12.01923	7152.005	-15197.94	1	16796.69	-64.79878	-2.960351E-007	0.0006454	7
	45	119	9.450605	9159.062	-17822.45	1	20038.17	-62.8011	-3.068318E-007	0.000645	7
	46	121	7.512019	11526.81	-20600.56	1	23606.16	-60.7713	-2.975287E-007	0.0006309	7
	47	124	5.978954	14375.76	-23505.65	1	27553.19	-58.55058	-2.876757E-007	0.0006522	7
	48	127	4.734848	17820.56	-26692.58	1	32094.65	-56.27205	-2.870582E-007	0.0006599	7
	49	130	3.75601	21773.15	-29938.94	1	37019.05	-53.97341	-2.890166E-007	0.000631	7
	50	136	3.004808	26112.35	-33178.37	1	42221.55	-51.79622	-2.895088E-007	0.0006621	7
	51	142	2.372217	31299.95	-36654.63	1	48200.09	-49.50547	-3.445825E-007	0.0007779	6
	52	146	1.878005	36982.5	-40140.54	1	54579.93	-47.34484	-3.448254E-007	0.0007087	6
	53	155	1.512097	42726.86	-43589.59	1	61037.99	-45.57265	-3.409983E-007	0.0006692	6
	54	166	1.201923	49584.57	-47356.67	1	68565.91	-43.68346	-3.39067E-007	0.0007156	6
	55	179	0.956633	56969.32	-51225.03	1	76612.71	-41.96088	-3.417622E-007	7.899385E-005	6
