EXPLAIN
TAG	EISPOT
TITLE	LABEL	Potentiostatic EIS	Test Identifier
DATE	LABEL	2/26/2021	Date
TIME	LABEL	14:06:30	Time
NOTES	NOTES	1	Notes...
	
PSTAT	PSTAT	REF3000-16137	Potentiostat
VDC	POTEN	0.00000E+000	T	DC Voltage (V)
FREQINIT	QUANT	3.00000E+005	Initial Freq. (Hz)
FREQFINAL	QUANT	1.00000E+000	Final Freq. (Hz)
PTSPERDEC	QUANT	1.00000E+001	Points/decade
VAC	QUANT	5.00000E+001	AC Voltage (mV rms)
AREA	QUANT	1.00000E+000	Sample Area (cm^2)
SPEED	SELECTOR	2	Optimize for:
ZGUESS	QUANT	1.00000E+003	Estimated Z (ohms)
EOC	QUANT	0	Open Circuit (V)
SEQUENCER	TOGGLE	TRUE	Run as Sequence
PSTATMODEL	IQUANT	5	Pstat Model
PSTATSECTION	LABEL	REF3000-16137	Pstat Section
PSTATSERIALNO	LABEL	16137	Pstat Serial Number
CTRLMODE	IQUANT	1	Control Mode
IESTAB	IQUANT	0	I/E Stability
CASPEED	IQUANT	1	Control Amp Speed
CONVENTION	IQUANT	1	Current Convention
ICHRANGE	IQUANT	2	Ich Range
ICHRANGEMODE	TOGGLE	F	Ich Auto Range
ICHOFFSETENABLE	TOGGLE	T	Ich Offset Enable
ICHOFFSET	QUANT	0	Ich Offset (V)
ICHFILTER	IQUANT	3	Ich Filter
VCHRANGE	IQUANT	2	Vch Range
VCHRANGEMODE	TOGGLE	F	Vch Auto Range
VCHOFFSETENABLE	TOGGLE	T	Vch Offset Enable
VCHOFFSET	QUANT	0	Vch Offset (V)
VCHFILTER	IQUANT	3	Vch Filter
ACHRANGE	IQUANT	2	Ach Range
ACHOFFSETENABLE	TOGGLE	F	Ach Offset Enable
ACHOFFSET	QUANT	0	Ach Offset (V)
ACHFILTER	IQUANT	3	Ach Filter
IERANGELOWERLIMIT	IQUANT	2	I/E Range Lower Limit
IERANGEMODE	TOGGLE	F	I/E AutoRange
IERANGE	IQUANT	11	I/E Range
POSFEEDENABLE	TOGGLE	F	Positive Feedback IR Comp
POSFEEDRESISTANCE	QUANT	0	Positive Feedback Resistance (ohm)
ACHSELECT	IQUANT	0	Ach Select
CABLEID	IQUANT	13	Cable ID
DCCALDATE	LABEL	7/31/2020	DC Calibration Date
ACCALDATE	LABEL	7/31/2020	AC Calibration Date
THERMOSELECT	IQUANT	1	Thermo Select
FRAMEWORKVERSION	QUANT	6.33	Framework Version
INSTRUMENTVERSION	LABEL	3.50	Instrument Version
COMPLIANCEVOLTAGE	IQUANT	0	Compliance Voltage
ZCURVE	TABLE
	Pt	Time	Freq	Zreal	Zimag	Zsig	Zmod	Zphz	Idc	Vdc	IERange
	#	s	Hz	ohm	ohm	V	ohm	°	A	V	#
	0	7	300046.9	45.75497	-3.950513	1	45.92519	-4.934716	5.242576E-006	-0.0013382	9
	1	10	238359.4	46.34473	-5.696839	1	46.69355	-7.007822	-2.710459E-007	-0.0012586	9
	2	13	189328.1	47.18825	-7.570213	1	47.79162	-9.114063	2.782792E-005	-0.0002165	9
	3	15	150421.9	48.02639	-9.50839	1	48.95859	-11.19875	5.264199E-006	-0.0008344	9
	4	18	119484.4	49.31721	-11.65304	1	50.67524	-13.29443	-1.121978E-005	-0.0005277	9
	5	21	94921.88	50.74497	-13.83053	1	52.59596	-15.24565	4.08208E-006	0.0002899	9
	6	23	75421.88	52.2979	-16.51093	1	54.84233	-17.52138	-7.053549E-006	0.0005698	9
	7	26	59859.37	54.14193	-19.47371	1	57.53759	-19.78258	-1.392309E-005	0.000625	9
	8	28	47578.12	56.29174	-22.75248	1	60.71602	-22.008	8.871547E-006	-0.0004317	9
	9	31	37828.12	58.64452	-26.39182	1	64.30947	-24.22919	-7.697963E-006	0.0006344	9
	10	33	30046.88	61.30444	-30.51335	1	68.47845	-26.46113	1.848444E-005	-0.0002894	9
	11	36	23859.38	64.0698	-35.04967	1	73.03026	-28.68106	3.496046E-006	-0.0002423	9
	12	38	18984.38	66.78563	-40.52577	1	78.11951	-31.24953	-2.676734E-006	-0.0001041	9
	13	40	15046.87	69.50952	-47.2686	1	84.05888	-34.2169	1.914305E-005	-0.0004769	9
	14	43	11953.13	72.18417	-55.40147	1	90.99384	-37.5063	-1.202965E-005	0.0006792	9
	15	45	9515.62	74.85846	-65.69341	1	99.5963	-41.26916	-1.623618E-005	0.0005411	9
	16	47	7546.875	77.59968	-78.69503	1	110.5198	-45.40154	-1.298699E-005	0.0002237	9
	17	49	5928.309	80.62633	-95.8207	1	125.2286	-49.92176	1.948771E-005	-0.0002709	9
	18	52	4733.456	83.74264	-115.9903	1	143.0614	-54.17148	-2.44035E-006	0.0004937	9
	19	54	3796.875	87.34286	-140.7737	1	165.6684	-58.18253	-1.59837E-005	0.0005278	9
	20	56	2987.132	92.15107	-173.8568	1	196.769	-62.07462	-8.857016E-006	0.0001003	9
	21	59	2390.625	97.0259	-212.8136	1	233.8882	-65.49082	3.020926E-006	-0.0002882	9
	22	61	1884.191	103.8812	-264.1065	1	283.802	-68.52876	1.925914E-005	-0.0002714	9
	23	63	1516.544	111.8755	-321.3471	1	340.2647	-70.80467	2.009511E-005	-0.0003863	9
	24	66	1193.986	123.319	-399.6277	1	418.2223	-72.85057	1.390613E-005	-0.0004965	9
	25	68	946.5144	136.7851	-492.627	1	511.2646	-74.4819	2.090022E-006	-0.0003033	8
	26	70	751.7689	152.7432	-608.7537	1	627.6238	-75.91462	1.976534E-006	0.000698	8
	27	73	597.4265	174.3983	-752.2279	1	772.1797	-76.94702	3.015016E-006	-0.0004944	8
	28	75	477.4305	200.1103	-922.5617	1	944.015	-77.76172	2.804429E-007	0.0006546	8
	29	77	376.6741	235.0678	-1145.559	1	1169.429	-78.40392	2.918411E-007	0.0006513	8
	30	80	298.2954	278.7838	-1417.192	1	1444.352	-78.87112	2.892718E-007	0.0006563	8
	31	82	237.7717	332.6828	-1741.871	1	1773.357	-79.18721	2.960418E-007	0.0006461	8
	32	84	189.0121	401.9466	-2145.671	1	2182.994	-79.3898	2.891567E-007	0.0006504	8
	33	87	150.2404	490.1473	-2641.732	1	2686.818	-79.48886	2.871876E-007	0.0006558	8
	34	89	119.1737	604.4414	-3258.199	1	3313.791	-79.49031	2.911075E-007	0.000654	8
	35	91	95.0169	747.9565	-3996.658	1	4066.044	-79.39997	2.912481E-007	0.0006569	8
	36	94	75.60484	937.0085	-4919.256	1	5007.7	-79.21562	-1.271122E-007	0.0006266	7
	37	96	54.50582	1303.851	-6591.878	1	6719.589	-78.81152	-1.26713E-007	0.0006377	7
	38	99	45.95588	1563.447	-7679.801	1	7837.328	-78.49303	-1.218598E-007	0.0006295	7
	39	101	37.20238	1966.101	-9264.855	1	9471.172	-78.01896	-1.215007E-007	0.0006251	7
	40	104	30.04808	2483.054	-11165.92	1	11438.67	-77.46268	-1.240274E-007	0.0006249	7
	41	106	23.91582	3216.405	-13624.11	1	13998.63	-76.71673	-1.286536E-007	0.0006283	7
	42	108	18.60119	4328.985	-16931.53	1	17476.18	-75.65809	-1.188033E-007	0.0006305	7
	43	111	15.02404	5595.328	-20280.64	1	21038.35	-74.57608	-1.129255E-007	0.0006417	7
	44	113	12.01923	7325.003	-24377.66	1	25454.39	-73.27552	-1.18259E-007	0.000632	7
	45	115	9.450605	9792.61	-29597.53	1	31175.45	-71.69274	-1.223024E-007	0.0006322	7
	46	118	7.512019	12913.82	-35397.37	1	37679.44	-69.9568	-1.168775E-007	0.0006208	7
	47	121	5.978954	16928.9	-41917.02	1	45206.46	-68.00784	-1.591824E-007	0.0006972	6
	48	124	4.734848	22189.16	-49472.83	1	54221.03	-65.84319	-1.614347E-007	0.0006845	6
	49	127	3.75601	28737.18	-57628.76	1	64396.43	-63.49638	-1.57815E-007	0.0007072	6
	50	131	3.004808	36438.17	-66063.84	1	75446.48	-61.12063	-1.591211E-007	0.0007287	6
	51	136	2.372217	46256.45	-75537.73	1	88575.44	-58.51828	-1.570846E-007	0.0007314	6
	52	140	1.878005	57403.97	-85185.39	1	102721.8	-56.02511	-1.582035E-007	0.0006285	6
	53	145	1.512097	69089	-94339.81	1	116932.8	-53.78312	-1.574581E-007	0.0007357	6
	54	151	1.201923	82935.8	-104437.6	1	133362.5	-51.54628	-1.55864E-007	0.0006632	6
	55	157	0.956633	98426	-115134.5	1	151471.5	-49.4736	-1.570048E-007	1.057769E-006	6
