EXPLAIN
TAG	EISPOT
TITLE	LABEL	Potentiostatic EIS	Test Identifier
DATE	LABEL	2/26/2021	Date
TIME	LABEL	15:17:32	Time
NOTES	NOTES	1	Notes...
	
PSTAT	PSTAT	REF3000-16137	Potentiostat
VDC	POTEN	0.00000E+000	T	DC Voltage (V)
FREQINIT	QUANT	3.00000E+005	Initial Freq. (Hz)
FREQFINAL	QUANT	1.00000E+000	Final Freq. (Hz)
PTSPERDEC	QUANT	1.00000E+001	Points/decade
VAC	QUANT	5.00000E+001	AC Voltage (mV rms)
AREA	QUANT	1.00000E+000	Sample Area (cm^2)
SPEED	SELECTOR	2	Optimize for:
ZGUESS	QUANT	1.00000E+003	Estimated Z (ohms)
EOC	QUANT	0	Open Circuit (V)
SEQUENCER	TOGGLE	TRUE	Run as Sequence
PSTATMODEL	IQUANT	5	Pstat Model
PSTATSECTION	LABEL	REF3000-16137	Pstat Section
PSTATSERIALNO	LABEL	16137	Pstat Serial Number
CTRLMODE	IQUANT	1	Control Mode
IESTAB	IQUANT	0	I/E Stability
CASPEED	IQUANT	1	Control Amp Speed
CONVENTION	IQUANT	1	Current Convention
ICHRANGE	IQUANT	2	Ich Range
ICHRANGEMODE	TOGGLE	F	Ich Auto Range
ICHOFFSETENABLE	TOGGLE	T	Ich Offset Enable
ICHOFFSET	QUANT	0	Ich Offset (V)
ICHFILTER	IQUANT	3	Ich Filter
VCHRANGE	IQUANT	2	Vch Range
VCHRANGEMODE	TOGGLE	F	Vch Auto Range
VCHOFFSETENABLE	TOGGLE	T	Vch Offset Enable
VCHOFFSET	QUANT	0	Vch Offset (V)
VCHFILTER	IQUANT	3	Vch Filter
ACHRANGE	IQUANT	2	Ach Range
ACHOFFSETENABLE	TOGGLE	F	Ach Offset Enable
ACHOFFSET	QUANT	0	Ach Offset (V)
ACHFILTER	IQUANT	3	Ach Filter
IERANGELOWERLIMIT	IQUANT	2	I/E Range Lower Limit
IERANGEMODE	TOGGLE	F	I/E AutoRange
IERANGE	IQUANT	11	I/E Range
POSFEEDENABLE	TOGGLE	F	Positive Feedback IR Comp
POSFEEDRESISTANCE	QUANT	0	Positive Feedback Resistance (ohm)
ACHSELECT	IQUANT	0	Ach Select
CABLEID	IQUANT	13	Cable ID
DCCALDATE	LABEL	7/31/2020	DC Calibration Date
ACCALDATE	LABEL	7/31/2020	AC Calibration Date
THERMOSELECT	IQUANT	1	Thermo Select
FRAMEWORKVERSION	QUANT	6.33	Framework Version
INSTRUMENTVERSION	LABEL	3.50	Instrument Version
COMPLIANCEVOLTAGE	IQUANT	0	Compliance Voltage
ZCURVE	TABLE
	Pt	Time	Freq	Zreal	Zimag	Zsig	Zmod	Zphz	Idc	Vdc	IERange
	#	s	Hz	ohm	ohm	V	ohm	°	A	V	#
	0	27	300046.9	2335.288	-2945.882	1	3759.228	-51.5951	2.521276E-005	0.0009885	9
	1	41	238359.4	3005.843	-3083.722	1	4306.325	-45.73272	3.012428E-005	-0.0019358	9
	2	58	189328.1	3653.998	-3131.216	1	4812.091	-40.59422	1.191005E-007	-0.0019121	9
	3	65	150421.9	4234.524	-2930.982	1	5149.937	-34.68956	2.517285E-005	-0.0014014	9
	4	73	119484.4	5022.159	-2738.482	1	5720.259	-28.60275	-1.573339E-005	0.0158941	8
	5	80	94921.88	5575.242	-2459.25	1	6093.54	-23.80237	-2.501128E-005	0.0091983	8
	6	88	75421.88	6015.004	-2200.426	1	6404.854	-20.09367	-9.388275E-006	-0.0018015	8
	7	95	59859.37	6361.811	-1962.851	1	6657.734	-17.14691	2.61875E-005	-0.0070701	8
	8	103	47578.12	6648.362	-1752.673	1	6875.506	-14.76858	-2.278207E-005	0.0050942	8
	9	110	37828.12	6890.578	-1556.891	1	7064.274	-12.7319	-1.820169E-005	0.010713	8
	10	117	30046.88	7174.455	-1347.131	1	7299.833	-10.63447	2.515553E-005	-0.0049585	8
	11	125	23859.38	7412.3	-1212.22	1	7510.77	-9.288026	7.823706E-006	-0.0072432	8
	12	131	18984.38	7690.646	-722.0259	1	7724.465	-5.363416	-3.475445E-007	-0.0138445	7
	13	135	15046.87	7808.779	-721.3419	1	7842.026	-5.277763	3.739479E-006	-0.0232903	7
	14	139	11953.13	7877.314	-727.6565	1	7910.851	-5.277645	3.745088E-006	-0.0232641	7
	15	143	9515.62	8000.078	-778.0469	1	8037.823	-5.554827	6.839196E-006	-0.0153608	7
	16	147	7546.875	8106.956	-1012.336	1	8169.917	-7.117823	-1.825636E-005	0.010792	8
	17	154	5928.309	8298.108	-1173.058	1	8380.612	-8.046272	1.697651E-005	0.0002576	8
	18	159	4733.456	8738.255	-1288.398	1	8832.728	-8.387453	8.30593E-006	0.0039697	8
	19	166	3796.875	8711.886	-1211.157	1	8795.673	-7.914729	6.599725E-006	-0.0244474	7
	20	169	2987.132	8931.629	-1410.887	1	9042.378	-8.976566	6.574124E-006	-0.0244478	7
	21	173	2390.625	9168.504	-1617.898	1	9310.159	-10.00754	-2.166283E-006	0.0214359	7
	22	178	1884.191	9429.424	-1918.293	1	9622.57	-11.49916	-5.936265E-006	0.0095047	7
	23	182	1516.544	9731.26	-2209.595	1	9978.96	-12.79276	-2.140069E-006	0.0214197	7
	24	186	1193.986	10025.63	-2524.575	1	10338.6	-14.13393	4.140993E-006	0.0013614	7
	25	191	946.5144	10343	-2862.175	1	10731.71	-15.46814	2.166313E-006	0.0095729	7
	26	193	751.7689	10780.82	-3560.907	1	11353.69	-18.2784	5.854581E-006	-0.0075745	7
	27	196	597.4265	11181.41	-4009.666	1	11878.61	-19.7279	-4.613998E-006	0.001761	7
	28	199	477.4305	11720.3	-4658.81	1	12612.29	-21.67778	-5.714125E-008	0.0006298	7
	29	201	376.6741	12308.62	-5385.238	1	13435.14	-23.63023	-5.699367E-008	0.0005788	7
	30	203	298.2954	12959.08	-6189.374	1	14361.27	-25.52957	-5.874634E-008	0.0005929	7
	31	205	237.7717	13661.37	-7063.774	1	15379.53	-27.34176	-5.507099E-008	0.0005951	7
	32	208	189.0121	14413.75	-8066.75	1	16517.53	-29.23384	-5.63771E-008	0.0005764	7
	33	210	150.2404	15174.3	-9224.751	1	17758.25	-31.29622	-6.374393E-008	0.0006532	7
	34	213	119.1737	15938.21	-10635.7	1	19161.02	-33.71552	-5.840844E-008	0.0005872	7
	35	215	95.0169	16679.2	-12308.82	1	20729.28	-36.42638	-6.402446E-008	0.0006714	7
	36	218	75.60484	17409.3	-14432.42	1	22613.68	-39.65895	-5.54181E-008	0.0005736	7
	37	220	54.50582	18364.83	-18467.26	1	26044.32	-45.15934	-5.536928E-008	0.0005804	7
	38	223	45.95588	18970.7	-21195.31	1	28445.19	-48.17011	-6.336813E-008	0.0006249	7
	39	225	37.20238	19668.69	-25267.08	1	32020.04	-52.10168	-5.932806E-008	0.0006594	7
	40	227	30.04808	20470.21	-30353.82	1	36611.25	-56.0048	-6.399858E-008	0.0006524	7
	41	230	23.91582	21462.85	-37199.52	1	42947.16	-60.01652	-6.977963E-009	0.0006822	6
	42	232	18.60119	22663.37	-46632.1	1	51847.67	-64.08008	-7.64787E-009	0.0007152	6
	43	234	15.02404	23836.47	-56607.35	1	61421.24	-67.1648	-6.237955E-009	0.0006576	6
	44	237	12.01923	25312.02	-69498.49	1	73964.45	-69.98789	-6.175551E-009	0.0006197	6
	45	239	9.450605	27193.03	-86808.84	1	90968.33	-72.60674	-6.548811E-009	0.0006448	6
	46	242	7.512019	29500.04	-107539.8	1	111512.6	-74.66011	-6.08426E-009	0.0006314	6
	47	245	5.978954	32346.28	-133105.1	1	136979	-76.34115	-6.992948E-009	0.0006977	6
	48	249	4.734848	35770.08	-165834	1	169647.9	-77.8279	-7.104395E-009	0.0006966	6
	49	252	3.75601	40143.92	-206046.2	1	209920.4	-78.97519	-6.542386E-009	0.000686	6
	50	258	3.004808	45363.41	-254224.5	1	258240.1	-79.88271	-7.022426E-009	0.0007381	6
	51	264	2.372217	51968.99	-317629.2	1	321852.5	-80.70786	-6.812906E-009	0.0007289	6
	52	269	1.878005	60630.97	-396115.3	1	400728.7	-81.29762	-6.700836E-009	0.0006435	6
	53	273	1.512097	71134.37	-486314.6	1	491489.6	-81.67823	-7.026972E-010	0.0007487	5
	54	279	1.201923	83388.59	-604536.8	1	610260.9	-82.14629	-7.466112E-010	0.0006255	5
	55	285	0.956633	99039.3	-750157.8	1	756667.4	-82.47904	-8.239513E-010	5.455313E-006	5
