EXPLAIN
TAG	EISPOT
TITLE	LABEL	Potentiostatic EIS	Test Identifier
DATE	LABEL	2/26/2021	Date
TIME	LABEL	14:52:57	Time
NOTES	NOTES	1	Notes...
	
PSTAT	PSTAT	REF3000-16137	Potentiostat
VDC	POTEN	0.00000E+000	T	DC Voltage (V)
FREQINIT	QUANT	3.00000E+005	Initial Freq. (Hz)
FREQFINAL	QUANT	1.00000E+000	Final Freq. (Hz)
PTSPERDEC	QUANT	1.00000E+001	Points/decade
VAC	QUANT	5.00000E+001	AC Voltage (mV rms)
AREA	QUANT	1.00000E+000	Sample Area (cm^2)
SPEED	SELECTOR	2	Optimize for:
ZGUESS	QUANT	1.00000E+003	Estimated Z (ohms)
EOC	QUANT	0	Open Circuit (V)
SEQUENCER	TOGGLE	TRUE	Run as Sequence
PSTATMODEL	IQUANT	5	Pstat Model
PSTATSECTION	LABEL	REF3000-16137	Pstat Section
PSTATSERIALNO	LABEL	16137	Pstat Serial Number
CTRLMODE	IQUANT	1	Control Mode
IESTAB	IQUANT	0	I/E Stability
CASPEED	IQUANT	1	Control Amp Speed
CONVENTION	IQUANT	1	Current Convention
ICHRANGE	IQUANT	2	Ich Range
ICHRANGEMODE	TOGGLE	F	Ich Auto Range
ICHOFFSETENABLE	TOGGLE	T	Ich Offset Enable
ICHOFFSET	QUANT	0	Ich Offset (V)
ICHFILTER	IQUANT	3	Ich Filter
VCHRANGE	IQUANT	2	Vch Range
VCHRANGEMODE	TOGGLE	F	Vch Auto Range
VCHOFFSETENABLE	TOGGLE	T	Vch Offset Enable
VCHOFFSET	QUANT	0	Vch Offset (V)
VCHFILTER	IQUANT	3	Vch Filter
ACHRANGE	IQUANT	2	Ach Range
ACHOFFSETENABLE	TOGGLE	F	Ach Offset Enable
ACHOFFSET	QUANT	0	Ach Offset (V)
ACHFILTER	IQUANT	3	Ach Filter
IERANGELOWERLIMIT	IQUANT	2	I/E Range Lower Limit
IERANGEMODE	TOGGLE	F	I/E AutoRange
IERANGE	IQUANT	11	I/E Range
POSFEEDENABLE	TOGGLE	F	Positive Feedback IR Comp
POSFEEDRESISTANCE	QUANT	0	Positive Feedback Resistance (ohm)
ACHSELECT	IQUANT	0	Ach Select
CABLEID	IQUANT	13	Cable ID
DCCALDATE	LABEL	7/31/2020	DC Calibration Date
ACCALDATE	LABEL	7/31/2020	AC Calibration Date
THERMOSELECT	IQUANT	1	Thermo Select
FRAMEWORKVERSION	QUANT	6.33	Framework Version
INSTRUMENTVERSION	LABEL	3.50	Instrument Version
COMPLIANCEVOLTAGE	IQUANT	0	Compliance Voltage
ZCURVE	TABLE
	Pt	Time	Freq	Zreal	Zimag	Zsig	Zmod	Zphz	Idc	Vdc	IERange
	#	s	Hz	ohm	ohm	V	ohm	°	A	V	#
	0	14	300046.9	413.2288	-42.32399	1	415.3906	-5.847994	2.162404E-005	-0.0018917	9
	1	21	238359.4	416.5879	-41.15974	1	418.6162	-5.642628	2.98893E-006	0.0012557	9
	2	25	189328.1	420.9372	-41.58734	1	422.9866	-5.642342	2.357798E-005	-0.0017568	9
	3	30	150421.9	427.5097	-40.80238	1	429.4524	-5.45191	2.307179E-005	-0.0016567	9
	4	38	119484.4	434.7006	-31.24325	1	435.822	-4.110952	-2.258479E-005	0.0139434	8
	5	41	94921.88	438.9341	-34.7928	1	440.3109	-4.532164	1.738533E-005	-0.0038326	8
	6	44	75421.88	442.8131	-42.9795	1	444.894	-5.543771	-6.648977E-006	-0.0003109	8
	7	46	59859.37	447.5222	-51.33229	1	450.4566	-6.543419	1.527062E-005	-0.0041905	8
	8	49	47578.12	453.2455	-60.88654	1	457.3168	-7.651	-1.848941E-006	-0.0021255	8
	9	51	37828.12	460.4166	-72.95995	1	466.1616	-9.004506	-9.07756E-006	0.0062297	8
	10	54	30046.88	468.9094	-86.32423	1	476.7892	-10.43112	-8.822061E-006	0.0060866	8
	11	56	23859.38	479.9765	-101.808	1	490.655	-11.97554	-9.178713E-006	0.0062366	8
	12	58	18984.38	490.9656	-118.4684	1	505.0564	-13.56596	-1.459276E-005	0.0049625	8
	13	61	15046.87	505.8771	-139.852	1	524.8525	-15.4537	-1.254179E-005	0.002819	8
	14	63	11953.13	522.5358	-162.8349	1	547.3197	-17.30831	1.171198E-005	-0.0004172	8
	15	65	9515.62	539.8928	-189.1887	1	572.0809	-19.31143	-1.355059E-005	0.0056214	8
	16	68	7546.875	560.8739	-218.963	1	602.0999	-21.32548	-6.951628E-006	1.767523E-005	8
	17	70	5928.309	587.8564	-253.516	1	640.1918	-23.32836	5.736036E-007	0.0040598	8
	18	72	4733.456	613.7296	-292.043	1	679.6713	-25.44742	-1.107901E-005	0.0017357	8
	19	75	3796.875	644.4805	-332.4051	1	725.1539	-27.28342	1.520237E-005	-0.0040519	8
	20	77	2987.132	679.5889	-383.9413	1	780.546	-29.46476	-1.2378E-005	0.0062943	8
	21	80	2390.625	709.4714	-436.3297	1	832.9066	-31.59179	-9.551192E-006	0.0064613	8
	22	82	1884.191	738.0145	-508.724	1	896.3624	-34.57906	3.03536E-006	-0.0036047	8
	23	85	1516.544	768.239	-586.8439	1	966.735	-37.37556	-1.442763E-005	0.0049832	8
	24	87	1193.986	801.8514	-698.0964	1	1063.158	-41.04301	-2.164349E-006	-0.0020522	8
	25	90	946.5144	826.8895	-835.6203	1	1175.588	-45.30089	-1.429426E-005	0.0059354	8
	26	93	751.7689	862.7168	-1007.71	1	1326.559	-49.43262	1.432408E-005	-0.0048672	8
	27	96	597.4265	895.3452	-1223.551	1	1516.153	-53.80483	1.460163E-005	-0.0050219	8
	28	98	477.4305	927.3145	-1487.749	1	1753.086	-58.0647	-8.143896E-009	0.0006605	8
	29	100	376.6741	968.851	-1838.568	1	2078.221	-62.21257	1.093391E-008	0.0006648	8
	30	103	298.2954	1016.758	-2272.582	1	2489.664	-65.89616	5.977605E-009	0.0006503	8
	31	105	237.7717	1072.461	-2799.621	1	2998.008	-69.03948	2.789364E-008	0.0006486	8
	32	107	189.0121	1140.243	-3463.275	1	3646.152	-71.77647	7.157674E-010	0.0006756	8
	33	110	150.2404	1226.97	-4297.411	1	4469.138	-74.06522	-1.371211E-008	0.0006382	7
	34	112	119.1737	1329.418	-5338.519	1	5501.557	-76.01642	-1.223802E-008	0.0006189	7
	35	115	95.0169	1452.316	-6602.904	1	6760.737	-77.59525	-1.780421E-008	0.0006462	7
	36	117	75.60484	1606.891	-8186.367	1	8342.583	-78.89468	-1.394404E-008	0.0006251	7
	37	120	54.50582	1891.926	-11143.19	1	11302.66	-80.36403	-1.888744E-008	0.0006499	7
	38	122	45.95588	2088.544	-13086.11	1	13251.73	-80.93206	-1.327589E-008	0.0006233	7
	39	124	37.20238	2375.898	-15970.91	1	16146.67	-81.53851	-1.40396E-008	0.0006092	7
	40	127	30.04808	2743.134	-19545.09	1	19736.65	-82.01078	-1.404286E-008	0.0006063	7
	41	129	23.91582	3233.456	-24254.77	1	24469.35	-82.40655	-1.941052E-008	0.0006394	7
	42	132	18.60119	3910.278	-30748.74	1	30996.37	-82.75267	-1.925713E-008	0.0006548	7
	43	134	15.02404	4698.464	-37609.18	1	37901.53	-82.87901	-1.268136E-008	0.0006432	7
	44	136	12.01923	5751.728	-46400.44	1	46755.57	-82.93375	-3.700728E-009	0.0006531	6
	45	139	9.450605	7268.042	-58199.8	1	58651.87	-82.88171	-3.597529E-009	0.0006527	6
	46	141	7.512019	9131.151	-72285.05	1	72859.5	-82.80045	-4.032792E-009	0.0006769	6
	47	144	5.978954	11650.01	-89558.22	1	90312.77	-82.58841	-4.039972E-009	0.0006991	6
	48	148	4.734848	15248.26	-111552.8	1	112590.1	-82.21642	-4.120885E-009	0.0006938	6
	49	152	3.75601	19999.91	-138485.4	1	139922.1	-81.78223	-4.116275E-009	0.000684	6
	50	157	3.004808	26330.64	-170417.1	1	172439.3	-81.21685	-3.839218E-009	0.0006825	6
	51	164	2.372217	35833.14	-212090.3	1	215096	-80.41031	-3.957393E-009	0.0007494	6
	52	168	1.878005	48550.72	-262717.5	1	267166	-79.52975	-4.453029E-009	0.0006562	6
	53	172	1.512097	64863.41	-318726.6	1	325259.7	-78.49693	-4.012517E-009	0.0006712	6
	54	178	1.201923	89243.62	-392056.6	1	402085.6	-77.1763	-4.20372E-009	0.0006473	6
	55	184	0.956633	122531.8	-477870.4	1	493329.7	-75.6185	-2.862306E-009	2.518425E-005	5
