EXPLAIN
TAG	EISPOT
TITLE	LABEL	Potentiostatic EIS	Test Identifier
DATE	LABEL	2/26/2021	Date
TIME	LABEL	14:46:30	Time
NOTES	NOTES	1	Notes...
	
PSTAT	PSTAT	REF3000-16137	Potentiostat
VDC	POTEN	0.00000E+000	T	DC Voltage (V)
FREQINIT	QUANT	3.00000E+005	Initial Freq. (Hz)
FREQFINAL	QUANT	1.00000E+000	Final Freq. (Hz)
PTSPERDEC	QUANT	1.00000E+001	Points/decade
VAC	QUANT	5.00000E+001	AC Voltage (mV rms)
AREA	QUANT	1.00000E+000	Sample Area (cm^2)
SPEED	SELECTOR	2	Optimize for:
ZGUESS	QUANT	1.00000E+003	Estimated Z (ohms)
EOC	QUANT	0	Open Circuit (V)
SEQUENCER	TOGGLE	TRUE	Run as Sequence
PSTATMODEL	IQUANT	5	Pstat Model
PSTATSECTION	LABEL	REF3000-16137	Pstat Section
PSTATSERIALNO	LABEL	16137	Pstat Serial Number
CTRLMODE	IQUANT	1	Control Mode
IESTAB	IQUANT	0	I/E Stability
CASPEED	IQUANT	1	Control Amp Speed
CONVENTION	IQUANT	1	Current Convention
ICHRANGE	IQUANT	2	Ich Range
ICHRANGEMODE	TOGGLE	F	Ich Auto Range
ICHOFFSETENABLE	TOGGLE	T	Ich Offset Enable
ICHOFFSET	QUANT	0	Ich Offset (V)
ICHFILTER	IQUANT	3	Ich Filter
VCHRANGE	IQUANT	2	Vch Range
VCHRANGEMODE	TOGGLE	F	Vch Auto Range
VCHOFFSETENABLE	TOGGLE	T	Vch Offset Enable
VCHOFFSET	QUANT	0	Vch Offset (V)
VCHFILTER	IQUANT	3	Vch Filter
ACHRANGE	IQUANT	2	Ach Range
ACHOFFSETENABLE	TOGGLE	F	Ach Offset Enable
ACHOFFSET	QUANT	0	Ach Offset (V)
ACHFILTER	IQUANT	3	Ach Filter
IERANGELOWERLIMIT	IQUANT	2	I/E Range Lower Limit
IERANGEMODE	TOGGLE	F	I/E AutoRange
IERANGE	IQUANT	11	I/E Range
POSFEEDENABLE	TOGGLE	F	Positive Feedback IR Comp
POSFEEDRESISTANCE	QUANT	0	Positive Feedback Resistance (ohm)
ACHSELECT	IQUANT	0	Ach Select
CABLEID	IQUANT	13	Cable ID
DCCALDATE	LABEL	7/31/2020	DC Calibration Date
ACCALDATE	LABEL	7/31/2020	AC Calibration Date
THERMOSELECT	IQUANT	1	Thermo Select
FRAMEWORKVERSION	QUANT	6.33	Framework Version
INSTRUMENTVERSION	LABEL	3.50	Instrument Version
COMPLIANCEVOLTAGE	IQUANT	0	Compliance Voltage
ZCURVE	TABLE
	Pt	Time	Freq	Zreal	Zimag	Zsig	Zmod	Zphz	Idc	Vdc	IERange
	#	s	Hz	ohm	ohm	V	ohm	°	A	V	#
	0	15	300046.9	261.4552	-20.62538	1	262.2675	-4.510543	1.993876E-006	0.00109	9
	1	19	238359.4	263.9019	-27.27703	1	265.3078	-5.901166	-0.0001009	0.0004836	10
	2	25	189328.1	267.625	-23.88989	1	268.6892	-5.101061	-5.781386E-005	0.0006619	9
	3	29	150421.9	269.7791	-29.62073	1	271.4003	-6.265762	-5.029743E-007	0.0007874	10
	4	33	119484.4	273.4022	-30.41338	1	275.0886	-6.347511	-5.610618E-005	0.000746	9
	5	39	94921.88	277.2818	-34.63371	1	279.4364	-7.119621	2.716685E-005	-0.0006796	9
	6	42	75421.88	281.2967	-39.88874	1	284.1107	-8.07091	-9.905288E-006	-0.0000972	9
	7	46	59859.37	285.6296	-46.33217	1	289.363	-9.213735	7.564934E-006	-0.0006352	9
	8	49	47578.12	290.7401	-54.28155	1	295.7639	-10.57544	-8.883609E-006	0.0008524	9
	9	51	37828.12	296.5788	-62.8554	1	303.1663	-11.96592	1.607529E-005	-0.0007832	9
	10	54	30046.88	303.6337	-73.47483	1	312.3971	-13.60323	2.058047E-005	-2.609533E-005	9
	11	56	23859.38	312.0971	-85.37664	1	323.5641	-15.29941	-1.113344E-005	-4.454047E-005	9
	12	58	18984.38	321.691	-99.1822	1	336.6337	-17.13532	7.154285E-007	0.0006803	9
	13	61	15046.87	332.7827	-115.1353	1	352.137	-19.08447	-2.318022E-005	0.0006769	9
	14	63	11953.13	346.5217	-133.6104	1	371.3879	-21.08543	1.646324E-005	-0.0008117	9
	15	65	9515.62	360.7276	-153.3684	1	391.9774	-23.03345	-1.785544E-005	0.0003018	9
	16	68	7546.875	375.9327	-174.4223	1	414.4256	-24.88999	1.232074E-005	-0.003316	8
	17	70	5928.309	395.116	-202.4716	1	443.9723	-27.13222	-1.078244E-005	0.0026178	8
	18	72	4733.456	414.3296	-230.049	1	473.9109	-29.04043	-1.995118E-006	-0.0013599	8
	19	75	3796.875	432.2321	-262.396	1	505.6444	-31.26077	-9.137311E-006	0.0016903	8
	20	77	2987.132	452.4147	-307.1141	1	546.8073	-34.16996	9.518027E-006	-0.0002878	8
	21	79	2390.625	469.71	-356.1158	1	589.4455	-37.16799	9.588887E-006	-0.0001735	8
	22	82	1884.191	487.8074	-422.8216	1	645.5495	-40.91808	9.361085E-006	-0.0039733	8
	23	84	1516.544	505.8919	-499.7022	1	711.0759	-44.64733	6.318361E-006	-0.0035311	8
	24	86	1193.986	523.9255	-607.4992	1	802.2177	-49.22453	-6.81046E-006	0.0049664	8
	25	89	946.5144	544.7115	-738.2849	1	917.4831	-53.57985	1.255365E-005	-0.0018758	8
	26	91	751.7689	566.5477	-901.9137	1	1065.094	-57.86453	5.998556E-006	-0.0034373	8
	27	94	597.4265	587.3002	-1104.945	1	1251.329	-62.00847	9.138203E-006	-0.0038993	8
	28	96	477.4305	615.6581	-1357.399	1	1490.492	-65.60299	7.257024E-008	0.0006669	8
	29	99	376.6741	650.2421	-1687.676	1	1808.608	-68.92889	6.628577E-008	0.0006512	8
	30	101	298.2954	691.3409	-2095.065	1	2206.185	-71.73787	8.012079E-008	0.0006488	8
	31	103	237.7717	740.2372	-2587.992	1	2691.776	-74.03801	9.048843E-008	0.0006414	8
	32	106	189.0121	801.1594	-3208.777	1	3307.281	-75.98115	9.240465E-008	0.0006551	8
	33	108	150.2404	876.5396	-3980.346	1	4075.718	-77.58073	6.76143E-008	0.0006528	8
	34	111	119.1737	973.878	-4959.464	1	5054.179	-78.89032	-6.232749E-009	0.0006205	7
	35	113	95.0169	1090.201	-6138.861	1	6234.915	-79.92982	-7.365232E-009	0.0006169	7
	36	115	75.60484	1237.216	-7614.808	1	7714.662	-80.77151	-7.846229E-009	0.0006348	7
	37	118	54.50582	1511.969	-10364.69	1	10474.39	-81.70041	-8.801157E-009	0.0006145	7
	38	121	45.95588	1705.758	-12179.07	1	12297.94	-82.02721	-4.993558E-009	0.0006207	7
	39	123	37.20238	1991.528	-14866.78	1	14999.58	-82.37018	-7.116489E-009	0.0006234	7
	40	125	30.04808	2357.182	-18177.7	1	18329.89	-82.61143	-9.911198E-009	0.0006499	7
	41	128	23.91582	2862.45	-22571.01	1	22751.79	-82.77235	-6.419404E-009	0.0006248	7
	42	130	18.60119	3596.76	-28543.55	1	28769.27	-82.81804	-5.713132E-009	0.0006272	7
	43	132	15.02404	4427.385	-34946.9	1	35226.23	-82.77972	-4.504622E-009	0.0006074	7
	44	135	12.01923	5586.048	-43091.27	1	43451.83	-82.61377	-6.777982E-009	0.0006822	6
	45	137	9.450605	7226.018	-54029.33	1	54510.4	-82.38232	-5.731043E-009	0.0006586	6
	46	139	7.512019	9418.004	-66940.43	1	67599.7	-81.99149	-5.554272E-009	0.0006722	6
	47	142	5.978954	12371.92	-82744.25	1	83664.06	-81.49613	-5.790121E-009	0.0006824	6
	48	147	4.734848	16551.55	-102753.6	1	104078.1	-80.8494	-5.372111E-009	0.0006508	6
	49	150	3.75601	22288.06	-127094.6	1	129034.1	-80.05341	-5.299706E-009	0.0006821	6
	50	156	3.004808	29954.94	-155578.6	1	158436.1	-79.1017	-5.262428E-009	0.0006394	6
	51	162	2.372217	41427.41	-192316.6	1	196728	-77.84353	-5.706305E-009	0.000593	6
	52	166	1.878005	56793.09	-236203.3	1	242935.1	-76.48035	-5.229404E-009	0.0006756	6
	53	171	1.512097	76068.55	-283690.9	1	293712.4	-74.98987	-5.4866E-009	0.0006759	6
	54	176	1.201923	104519	-344091.4	1	359615.3	-73.10365	-5.25618E-009	0.00069	6
	55	182	0.956633	141868.4	-412446.8	1	436163.9	-71.01843	-5.688934E-009	-3.968131E-005	5
