EXPLAIN
TAG	EISPOT
TITLE	LABEL	Potentiostatic EIS	Test Identifier
DATE	LABEL	2/26/2021	Date
TIME	LABEL	15:48:42	Time
NOTES	NOTES	1	Notes...
	
PSTAT	PSTAT	REF3000-16137	Potentiostat
VDC	POTEN	0.00000E+000	T	DC Voltage (V)
FREQINIT	QUANT	3.00000E+005	Initial Freq. (Hz)
FREQFINAL	QUANT	1.00000E+000	Final Freq. (Hz)
PTSPERDEC	QUANT	1.00000E+001	Points/decade
VAC	QUANT	5.00000E+001	AC Voltage (mV rms)
AREA	QUANT	1.00000E+000	Sample Area (cm^2)
SPEED	SELECTOR	2	Optimize for:
ZGUESS	QUANT	1.00000E+003	Estimated Z (ohms)
EOC	QUANT	0	Open Circuit (V)
SEQUENCER	TOGGLE	TRUE	Run as Sequence
PSTATMODEL	IQUANT	5	Pstat Model
PSTATSECTION	LABEL	REF3000-16137	Pstat Section
PSTATSERIALNO	LABEL	16137	Pstat Serial Number
CTRLMODE	IQUANT	1	Control Mode
IESTAB	IQUANT	0	I/E Stability
CASPEED	IQUANT	1	Control Amp Speed
CONVENTION	IQUANT	1	Current Convention
ICHRANGE	IQUANT	2	Ich Range
ICHRANGEMODE	TOGGLE	F	Ich Auto Range
ICHOFFSETENABLE	TOGGLE	T	Ich Offset Enable
ICHOFFSET	QUANT	0	Ich Offset (V)
ICHFILTER	IQUANT	3	Ich Filter
VCHRANGE	IQUANT	2	Vch Range
VCHRANGEMODE	TOGGLE	F	Vch Auto Range
VCHOFFSETENABLE	TOGGLE	T	Vch Offset Enable
VCHOFFSET	QUANT	0	Vch Offset (V)
VCHFILTER	IQUANT	3	Vch Filter
ACHRANGE	IQUANT	2	Ach Range
ACHOFFSETENABLE	TOGGLE	F	Ach Offset Enable
ACHOFFSET	QUANT	0	Ach Offset (V)
ACHFILTER	IQUANT	3	Ach Filter
IERANGELOWERLIMIT	IQUANT	2	I/E Range Lower Limit
IERANGEMODE	TOGGLE	F	I/E AutoRange
IERANGE	IQUANT	11	I/E Range
POSFEEDENABLE	TOGGLE	F	Positive Feedback IR Comp
POSFEEDRESISTANCE	QUANT	0	Positive Feedback Resistance (ohm)
ACHSELECT	IQUANT	0	Ach Select
CABLEID	IQUANT	13	Cable ID
DCCALDATE	LABEL	7/31/2020	DC Calibration Date
ACCALDATE	LABEL	7/31/2020	AC Calibration Date
THERMOSELECT	IQUANT	1	Thermo Select
FRAMEWORKVERSION	QUANT	6.33	Framework Version
INSTRUMENTVERSION	LABEL	3.50	Instrument Version
COMPLIANCEVOLTAGE	IQUANT	0	Compliance Voltage
ZCURVE	TABLE
	Pt	Time	Freq	Zreal	Zimag	Zsig	Zmod	Zphz	Idc	Vdc	IERange
	#	s	Hz	ohm	ohm	V	ohm	°	A	V	#
	0	14	300046.9	-77.91839	-4842.62	1	4843.247	-90.92181	8.125113E-005	-0.0017126	9
	1	28	238359.4	24.85135	-5998.15	1	5998.202	-89.76262	8.90847E-005	-0.0025883	9
	2	51	189328.1	131.7964	-7726.547	1	7727.671	-89.02277	-4.150252E-007	-0.0018975	9
	3	60	150421.9	1802.792	-8855.176	1	9036.824	-78.49263	4.958193E-005	0.0002478	9
	4	70	119484.4	486.7789	-11846.09	1	11856.09	-87.64693	3.128929E-006	0.0153548	8
	5	78	94921.88	416.7633	-14389.41	1	14395.44	-88.341	2.636968E-005	-0.0088952	8
	6	85	75421.88	1155.321	-17846.54	1	17883.89	-86.29604	2.245626E-005	-0.0095491	8
	7	94	59859.37	947.9935	-22994.75	1	23014.28	-87.63923	-8.876091E-007	-0.005082	8
	8	102	47578.12	4240.759	-29965.58	1	30264.17	-81.94494	-9.995234E-007	-0.0134247	7
	9	109	37828.12	2029.166	-36519.35	1	36575.68	-86.81968	-2.431713E-005	0.0108652	8
	10	117	30046.88	915.218	-45270.48	1	45279.73	-88.84183	-1.97035E-005	0.0113213	8
	11	126	23859.38	-512.439	-56177.93	1	56180.27	-90.52262	1.659126E-005	-0.009182	8
	12	133	18984.38	4853.71	-71608.22	1	71772.52	-86.12234	6.761939E-006	-0.0266863	7
	13	139	15046.87	2122.703	-92057.99	1	92082.46	-88.67909	-2.662389E-005	0.0096051	8
	14	146	11953.13	4412.564	-112233	1	112319.8	-87.74851	-1.566941E-005	0.0005717	8
	15	155	9515.62	3496.833	-144138.5	1	144180.9	-88.61027	7.623869E-006	-0.0183157	7
	16	161	7546.875	13259.1	-181358.4	1	181842.5	-85.81855	-5.249582E-006	0.0266225	7
	17	167	5928.309	31393.73	-229407.5	1	231545.7	-82.20765	-6.539404E-006	0.0259333	7
	18	172	4733.456	39405.83	-338266.7	1	340554.2	-83.35537	7.708666E-006	-0.0243939	7
	19	177	3796.875	28552.87	-351940	1	353096.3	-85.36176	-3.316828E-006	-0.0052061	7
	20	185	2987.132	-289948.6	-434890	1	522684.9	-123.6921	1.652757E-005	-0.0092061	8
	21	192	2390.625	93659.11	-562215.1	1	569963.1	-80.54198	-3.407095E-006	-0.0052282	7
	22	200	1884.191	187800	-945791.7	1	964257	-78.76922	-7.362945E-006	0.0189653	7
	23	206	1516.544	179714.6	-845249.6	1	864143.7	-77.99667	3.542922E-006	-0.0246083	7
	24	215	1193.986	-441148.8	-1644182	1	1702336	-105.0192	-5.283757E-006	0.0034728	7
	25	222	946.5144	314698.3	-1283506	1	1321523	-76.22363	7.736756E-006	-0.0247214	7
	26	228	751.7689	41881.21	-724568.2	1	725777.6	-86.69189	-3.710485E-006	0.0252201	7
	27	235	597.4265	-190600.1	-1079220	1	1095921	-100.0157	3.67536E-006	-0.0248789	7
	28	240	477.4305	775846.6	-2572847	1	2687281	-73.21922	-6.845199E-009	0.0007109	6
	29	246	376.6741	1172052	-3116691	1	3329785	-69.3909	-6.390164E-009	0.0006176	6
	30	250	298.2954	2011820	-3644331	1	4162760	-61.09951	-7.146476E-010	0.0006048	5
	31	254	237.7717	2676512	-4120038	1	4913088	-56.99092	-7.055475E-010	0.0006076	5
	32	258	189.0121	3592092	-4580060	1	5820659	-51.89328	-6.904417E-010	0.0006753	5
	33	262	150.2404	4561020	-4762703	1	6594410	-46.23918	-7.088777E-010	0.0006262	5
	34	266	119.1737	5269385	-5208486	1	7409099	-44.667	-7.549678E-010	0.0006352	5
	35	270	95.0169	6648432	-4848401	1	8228526	-36.10158	-6.845393E-010	0.0006313	5
	36	273	75.60484	8199487	-4370751	1	9291665	-28.05992	-7.328179E-010	0.0006175	5
	37	276	54.50582	8710199	-3498288	1	9386457	-21.88193	-7.615839E-010	0.0007034	5
	38	279	45.95588	9492134	-2355498	1	9.78003E+006	-13.93658	-1.584119E-010	0.0007227	4
	39	281	37.20238	1.032184E+007	-1600137	1	1.044513E+007	-8.812101	1.640748E-011	0.0006147	4
	40	284	30.04808	1.012928E+007	-1652005	1	1.026311E+007	-9.262932	-1.07682E-010	0.0006208	4
	41	287	23.91582	1.020133E+007	-1669873	1	1.03371E+007	-9.296393	-1.34016E-010	0.0006314	4
	42	290	18.60119	1.044804E+007	-686109.1	1	1.047055E+007	-3.757143	-2.078457E-010	0.0007017	4
	43	292	15.02404	1.040532E+007	-1219602	1	1.047655E+007	-6.68511	-5.310133E-011	0.0006739	4
	44	295	12.01923	1.036298E+007	-1254013	1	1.043858E+007	-6.899749	-1.172423E-011	0.0006244	4
	45	297	9.450605	1.045512E+007	-1295301	1	1.053505E+007	-7.062477	-1.484858E-010	0.0006643	4
	46	300	7.512019	1.05877E+007	-1210812	1	1.065671E+007	-6.524022	-6.773721E-011	0.0006664	4
	47	303	5.978954	1.051986E+007	-1362520	1	1.060772E+007	-7.379804	-8.157332E-011	0.0006429	4
	48	307	4.734848	1.072093E+007	-1515294	1	1.082749E+007	-8.044886	-6.625782E-011	0.0007124	4
	49	312	3.75601	1.082085E+007	-1703826	1	1.095417E+007	-8.948197	-3.454489E-011	0.0006349	4
	50	318	3.004808	1.103067E+007	-1932130	1	1.119861E+007	-9.93513	-3.269094E-011	0.0006307	4
	51	324	2.372217	1.120089E+007	-2265988	1	1.14278E+007	-11.43683	-3.534515E-011	0.0006162	4
	52	328	1.878005	1.144799E+007	-2623855	1	1.174483E+007	-12.90911	-1.527489E-012	0.0006598	4
	53	333	1.512097	1.169708E+007	-2997486	1	1.207504E+007	-14.37328	-2.394905E-011	0.0007161	4
	54	338	1.201923	1.20168E+007	-3485909	1	1.251219E+007	-16.17672	-2.639144E-011	0.0006766	4
	55	344	0.956633	1.242282E+007	-4025365	1	1.305872E+007	-17.95387	-1.78797E-010	2.236679E-005	4
