EXPLAIN
TAG	EISPOT
TITLE	LABEL	Potentiostatic EIS	Test Identifier
DATE	LABEL	2/26/2021	Date
TIME	LABEL	15:07:54	Time
NOTES	NOTES	1	Notes...
	
PSTAT	PSTAT	REF3000-16137	Potentiostat
VDC	POTEN	0.00000E+000	T	DC Voltage (V)
FREQINIT	QUANT	3.00000E+005	Initial Freq. (Hz)
FREQFINAL	QUANT	1.00000E+000	Final Freq. (Hz)
PTSPERDEC	QUANT	1.00000E+001	Points/decade
VAC	QUANT	5.00000E+001	AC Voltage (mV rms)
AREA	QUANT	1.00000E+000	Sample Area (cm^2)
SPEED	SELECTOR	2	Optimize for:
ZGUESS	QUANT	1.00000E+003	Estimated Z (ohms)
EOC	QUANT	0	Open Circuit (V)
SEQUENCER	TOGGLE	TRUE	Run as Sequence
PSTATMODEL	IQUANT	5	Pstat Model
PSTATSECTION	LABEL	REF3000-16137	Pstat Section
PSTATSERIALNO	LABEL	16137	Pstat Serial Number
CTRLMODE	IQUANT	1	Control Mode
IESTAB	IQUANT	0	I/E Stability
CASPEED	IQUANT	1	Control Amp Speed
CONVENTION	IQUANT	1	Current Convention
ICHRANGE	IQUANT	2	Ich Range
ICHRANGEMODE	TOGGLE	F	Ich Auto Range
ICHOFFSETENABLE	TOGGLE	T	Ich Offset Enable
ICHOFFSET	QUANT	0	Ich Offset (V)
ICHFILTER	IQUANT	3	Ich Filter
VCHRANGE	IQUANT	2	Vch Range
VCHRANGEMODE	TOGGLE	F	Vch Auto Range
VCHOFFSETENABLE	TOGGLE	T	Vch Offset Enable
VCHOFFSET	QUANT	0	Vch Offset (V)
VCHFILTER	IQUANT	3	Vch Filter
ACHRANGE	IQUANT	2	Ach Range
ACHOFFSETENABLE	TOGGLE	F	Ach Offset Enable
ACHOFFSET	QUANT	0	Ach Offset (V)
ACHFILTER	IQUANT	3	Ach Filter
IERANGELOWERLIMIT	IQUANT	2	I/E Range Lower Limit
IERANGEMODE	TOGGLE	F	I/E AutoRange
IERANGE	IQUANT	11	I/E Range
POSFEEDENABLE	TOGGLE	F	Positive Feedback IR Comp
POSFEEDRESISTANCE	QUANT	0	Positive Feedback Resistance (ohm)
ACHSELECT	IQUANT	0	Ach Select
CABLEID	IQUANT	13	Cable ID
DCCALDATE	LABEL	7/31/2020	DC Calibration Date
ACCALDATE	LABEL	7/31/2020	AC Calibration Date
THERMOSELECT	IQUANT	1	Thermo Select
FRAMEWORKVERSION	QUANT	6.33	Framework Version
INSTRUMENTVERSION	LABEL	3.50	Instrument Version
COMPLIANCEVOLTAGE	IQUANT	0	Compliance Voltage
ZCURVE	TABLE
	Pt	Time	Freq	Zreal	Zimag	Zsig	Zmod	Zphz	Idc	Vdc	IERange
	#	s	Hz	ohm	ohm	V	ohm	°	A	V	#
	0	17	300046.9	1520.544	-544.1608	1	1614.982	-19.69089	-1.52558E-005	0.0009899	9
	1	33	238359.4	1624.113	-495.8159	1	1698.11	-16.9766	2.317575E-005	-0.0004741	9
	2	54	189328.1	1687.425	-444.0313	1	1744.869	-14.74268	1.832856E-005	-0.0008585	9
	3	60	150421.9	1809.805	-431.4411	1	1860.52	-13.40853	-1.353352E-005	0.001687	9
	4	67	119484.4	1823.668	-273.9939	1	1844.136	-8.544401	3.670217E-005	-0.0171451	8
	5	73	94921.88	1855.145	-238.5201	1	1870.415	-7.326452	-7.779428E-007	0.0063932	8
	6	79	75421.88	1889.355	-218.7294	1	1901.974	-6.6037	-9.330342E-006	-0.0012297	8
	7	83	59859.37	1905.269	-210.7884	1	1916.894	-6.313212	1.870092E-005	-0.0080976	8
	8	86	47578.12	1928.336	-207.5413	1	1939.472	-6.142935	1.565424E-005	-4.616915E-005	8
	9	92	37828.12	1962.981	-208.485	1	1974.022	-6.062564	-8.143323E-007	0.0063787	8
	10	95	30046.88	1993.034	-214.7088	1	2004.566	-6.148737	-1.799641E-005	0.0029657	8
	11	101	23859.38	2026.521	-232.6585	1	2039.832	-6.549274	7.700282E-006	0.0034464	8
	12	106	18984.38	2060.44	-254.5711	1	2076.107	-7.043304	6.319452E-006	-0.0062945	8
	13	110	15046.87	2094.238	-286.3139	1	2113.719	-7.784932	8.214718E-006	0.0033546	8
	14	113	11953.13	2132.1	-324.5959	1	2156.667	-8.656372	2.233105E-005	-0.0077005	8
	15	117	9515.62	2173.783	-373.9488	1	2205.713	-9.76087	1.584252E-005	4.448639E-005	8
	16	120	7546.875	2223.632	-432.6668	1	2265.334	-11.01084	-1.443342E-005	0.0009725	8
	17	125	5928.309	2286.578	-502.5513	1	2341.153	-12.39557	2.365266E-005	-0.0064217	8
	18	129	4733.456	2343.923	-579.6131	1	2414.524	-13.88965	1.899429E-005	-0.0081594	8
	19	133	3796.875	2435.906	-683.3666	1	2529.946	-15.67088	-2.240568E-005	0.0068365	8
	20	138	2987.132	2540.775	-791.041	1	2661.068	-17.29338	2.928445E-005	-0.0006479	9
	21	144	2390.625	2649.772	-920.4838	1	2805.1	-19.15632	2.463787E-005	-0.0001464	9
	22	149	1884.191	2762.864	-1073.235	1	2963.993	-21.22867	-1.688528E-006	-0.0040314	8
	23	154	1516.544	2893.723	-1221.51	1	3140.974	-22.88577	1.59451E-005	2.976473E-005	8
	24	160	1193.986	3067.875	-1413.521	1	3377.854	-24.73786	-9.241615E-006	-0.0001552	9
	25	165	946.5144	3192.165	-1653.343	1	3594.922	-27.38134	1.926416E-005	-0.0081677	8
	26	169	751.7689	3460.232	-1885.875	1	3940.778	-28.59101	1.33352E-005	-0.0078021	8
	27	173	597.4265	3653.407	-2154.043	1	4241.143	-30.52353	-9.576503E-006	0.0087046	8
	28	176	477.4305	3767.128	-2441.214	1	4488.962	-32.94447	-1.347099E-007	0.0006404	8
	29	179	376.6741	3954.478	-2844.144	1	4871.042	-35.72448	-4.335607E-008	0.0005884	7
	30	181	298.2954	4120.85	-3341.51	1	5305.384	-39.03786	-4.451768E-008	0.0005912	7
	31	183	237.7717	4280.169	-3951.347	1	5825.203	-42.71244	-4.912565E-008	0.0006427	7
	32	186	189.0121	4442.533	-4731.931	1	6490.552	-46.80673	-4.517671E-008	0.0006016	7
	33	188	150.2404	4612.267	-5717.737	1	7346.123	-51.10828	-4.866218E-008	0.0006273	7
	34	191	119.1737	4798.876	-6972.307	1	8464.177	-55.46127	-4.271073E-008	0.0005884	7
	35	193	95.0169	5003.965	-8512.238	1	9874.1	-59.55063	-4.303716E-008	0.0005943	7
	36	195	75.60484	5242.765	-10449.82	1	11691.25	-63.35669	-5.201485E-008	0.0006586	7
	37	198	54.50582	5656.031	-14091.66	1	15184.38	-68.13073	-4.560133E-008	0.0006319	7
	38	201	45.95588	5917.938	-16488.49	1	17518.34	-70.25626	-4.393643E-008	0.0005856	7
	39	203	37.20238	6307.666	-20058.16	1	21026.57	-72.54327	-5.174805E-008	0.0006384	7
	40	205	30.04808	6772.439	-24476.77	1	25396.42	-74.53385	-4.962817E-008	0.0006629	7
	41	208	23.91582	7367.895	-30295.73	1	31178.79	-76.33108	-4.868026E-008	0.0006577	7
	42	210	18.60119	8147.917	-38339.04	1	39195.29	-78.00185	-4.336622E-008	0.000626	7
	43	212	15.02404	9083.545	-46873.12	1	47745.16	-79.03259	-5.33052E-009	0.0007015	6
	44	215	12.01923	10181.99	-57796.39	1	58686.41	-80.00873	-5.248661E-009	0.0006317	6
	45	217	9.450605	11652.29	-72450.16	1	73381.21	-80.86326	-5.881653E-009	0.0006624	6
	46	220	7.512019	13416.25	-89954.62	1	90949.59	-81.51717	-5.442212E-009	0.0006829	6
	47	223	5.978954	15636	-111526.5	1	112617.2	-82.01916	-5.397395E-009	0.0006994	6
	48	227	4.734848	18520.92	-139071.1	1	140299	-82.41422	-5.274352E-009	0.0006343	6
	49	230	3.75601	22185.37	-173115.5	1	174531.3	-82.69714	-5.599734E-009	0.0007109	6
	50	236	3.004808	26753.67	-213726.2	1	215394.2	-82.86498	-5.469329E-009	0.0006887	6
	51	242	2.372217	32717.11	-267411.8	1	269405.8	-83.02468	-5.74205E-009	0.0007359	6
	52	246	1.878005	40977.64	-333606.2	1	336113.4	-82.9973	-5.596707E-009	0.0006434	6
	53	251	1.512097	51249.31	-408998.1	1	412196.4	-82.8578	-5.523517E-009	0.0007504	6
	54	256	1.201923	64691.09	-509132.4	1	513225.8	-82.75872	-7.775129E-010	0.0005875	5
	55	263	0.956633	82784.81	-631577.3	1	636979.7	-82.53246	-9.318697E-010	1.071616E-005	5
