EXPLAIN
TAG	EISPOT
TITLE	LABEL	Potentiostatic EIS	Test Identifier
DATE	LABEL	2/26/2021	Date
TIME	LABEL	15:32:13	Time
NOTES	NOTES	1	Notes...
	
PSTAT	PSTAT	REF3000-16137	Potentiostat
VDC	POTEN	0.00000E+000	T	DC Voltage (V)
FREQINIT	QUANT	3.00000E+005	Initial Freq. (Hz)
FREQFINAL	QUANT	1.00000E+000	Final Freq. (Hz)
PTSPERDEC	QUANT	1.00000E+001	Points/decade
VAC	QUANT	5.00000E+001	AC Voltage (mV rms)
AREA	QUANT	1.00000E+000	Sample Area (cm^2)
SPEED	SELECTOR	2	Optimize for:
ZGUESS	QUANT	1.00000E+003	Estimated Z (ohms)
EOC	QUANT	0	Open Circuit (V)
SEQUENCER	TOGGLE	TRUE	Run as Sequence
PSTATMODEL	IQUANT	5	Pstat Model
PSTATSECTION	LABEL	REF3000-16137	Pstat Section
PSTATSERIALNO	LABEL	16137	Pstat Serial Number
CTRLMODE	IQUANT	1	Control Mode
IESTAB	IQUANT	0	I/E Stability
CASPEED	IQUANT	1	Control Amp Speed
CONVENTION	IQUANT	1	Current Convention
ICHRANGE	IQUANT	2	Ich Range
ICHRANGEMODE	TOGGLE	F	Ich Auto Range
ICHOFFSETENABLE	TOGGLE	T	Ich Offset Enable
ICHOFFSET	QUANT	0	Ich Offset (V)
ICHFILTER	IQUANT	3	Ich Filter
VCHRANGE	IQUANT	2	Vch Range
VCHRANGEMODE	TOGGLE	F	Vch Auto Range
VCHOFFSETENABLE	TOGGLE	T	Vch Offset Enable
VCHOFFSET	QUANT	0	Vch Offset (V)
VCHFILTER	IQUANT	3	Vch Filter
ACHRANGE	IQUANT	2	Ach Range
ACHOFFSETENABLE	TOGGLE	F	Ach Offset Enable
ACHOFFSET	QUANT	0	Ach Offset (V)
ACHFILTER	IQUANT	3	Ach Filter
IERANGELOWERLIMIT	IQUANT	2	I/E Range Lower Limit
IERANGEMODE	TOGGLE	F	I/E AutoRange
IERANGE	IQUANT	11	I/E Range
POSFEEDENABLE	TOGGLE	F	Positive Feedback IR Comp
POSFEEDRESISTANCE	QUANT	0	Positive Feedback Resistance (ohm)
ACHSELECT	IQUANT	0	Ach Select
CABLEID	IQUANT	13	Cable ID
DCCALDATE	LABEL	7/31/2020	DC Calibration Date
ACCALDATE	LABEL	7/31/2020	AC Calibration Date
THERMOSELECT	IQUANT	1	Thermo Select
FRAMEWORKVERSION	QUANT	6.33	Framework Version
INSTRUMENTVERSION	LABEL	3.50	Instrument Version
COMPLIANCEVOLTAGE	IQUANT	0	Compliance Voltage
ZCURVE	TABLE
	Pt	Time	Freq	Zreal	Zimag	Zsig	Zmod	Zphz	Idc	Vdc	IERange
	#	s	Hz	ohm	ohm	V	ohm	°	A	V	#
	0	15	300046.9	228.5642	-4795.512	1	4800.956	-87.27122	8.66897E-005	-0.0036148	9
	1	31	238359.4	395.2525	-5914.59	1	5927.782	-86.1768	7.850652E-005	-0.0015999	9
	2	51	189328.1	554.4459	-7081.608	1	7103.28	-85.52323	9.015558E-005	-0.0024302	9
	3	61	150421.9	1070.621	-8481.609	1	8548.914	-82.80569	8.306362E-005	-0.0032964	9
	4	69	119484.4	1867.914	-11264.16	1	11417.99	-80.58443	2.381801E-005	0.0086312	8
	5	76	94921.88	2418.167	-13941.77	1	14149.93	-80.16008	2.723435E-005	-0.0072728	8
	6	85	75421.88	3425.531	-17466.07	1	17798.82	-78.90372	-9.476976E-006	-0.0020616	8
	7	93	59859.37	4945.564	-21369.13	1	21933.96	-76.96917	1.733144E-005	0.0003302	8
	8	102	47578.12	10644.94	-27099.76	1	29115.49	-68.55482	2.762048E-006	0.0084865	7
	9	109	37828.12	10152.44	-29863.84	1	31542.37	-71.22414	-2.019188E-005	0.0028744	8
	10	118	30046.88	15225.49	-39789.97	1	42603.49	-69.06083	-2.022482E-005	0.0028314	8
	11	126	23859.38	23191.31	-48250.07	1	53534.16	-64.32881	-9.82937E-007	-0.0050242	8
	12	133	18984.38	32843.34	-52430.59	1	61868.02	-57.93633	6.744106E-006	-0.0267024	7
	13	138	15046.87	43080.23	-58213.46	1	72420.39	-53.49712	7.513991E-006	-0.0181198	7
	14	144	11953.13	57047.74	-65413.41	1	86794.92	-48.90797	6.888511E-006	-0.0268449	7
	15	149	9515.62	71753.55	-65888.3	1	97415.8	-42.55997	4.316871E-007	0.016223	7
	16	154	7546.875	103141.4	-74210.64	1	127064.4	-35.73517	2.205937E-005	-0.0095847	8
	17	162	5928.309	135504.4	-55559.04	1	146452.2	-22.29444	-2.603612E-005	0.0075219	8
	18	170	4733.456	96191.4	-41358.61	1	104705.9	-23.26584	2.251563E-005	-0.0095604	8
	19	176	3796.875	126905.9	-54292.43	1	138031.8	-23.16203	-1.971213E-005	0.0112748	8
	20	184	2987.132	140207	-48175.03	1	148252.7	-18.96268	1.337126E-006	-0.0199072	7
	21	190	2390.625	154635	-36120.36	1	158797.6	-13.14767	2.097174E-007	0.0104818	6
	22	194	1884.191	160267	-32082.53	1	163446.7	-11.31994	-6.440718E-007	0.0099685	6
	23	199	1516.544	164228.9	-28339.11	1	166656	-9.79046	4.298092E-007	0.0020494	6
	24	203	1193.986	169942.3	-25689.56	1	171873	-8.59611	7.273247E-007	-0.015692	6
	25	207	946.5144	174466.3	-22403.65	1	175898.9	-7.317444	-2.743549E-007	-0.0070229	6
	26	210	751.7689	176017.9	-25770.89	1	177894.5	-8.32953	-4.027604E-008	-0.0153253	6
	27	213	597.4265	173988.5	-17758.73	1	174892.4	-5.827907	2.10489E-007	0.0105368	6
	28	215	477.4305	181220.3	-21503.78	1	182491.7	-6.767129	-7.672823E-009	0.000709	6
	29	217	376.6741	184297.8	-22596.82	1	185677.9	-6.990169	-7.484203E-009	0.0007147	6
	30	220	298.2954	187953.8	-24602.12	1	189557.1	-7.457308	-6.89977E-009	0.0007195	6
	31	222	237.7717	190839	-26767.86	1	192707.1	-7.984452	-7.229674E-009	0.0007033	6
	32	225	189.0121	194766.1	-30183.06	1	197091	-8.809098	-6.140325E-009	0.0006603	6
	33	227	150.2404	199397	-34531.66	1	202365.1	-9.82506	-6.929456E-009	0.0006345	6
	34	230	119.1737	203694.2	-39926.74	1	207570.4	-11.09012	-7.725384E-009	0.0007012	6
	35	232	95.0169	210387.2	-45851.25	1	215325.6	-12.29465	-7.62747E-009	0.0006828	6
	36	235	75.60484	216396.3	-53199.98	1	222839.9	-13.81197	-7.122676E-009	0.0007156	6
	37	237	54.50582	227575.9	-63652.68	1	236310.1	-15.62624	-6.654137E-009	0.0006177	6
	38	240	45.95588	234912.1	-73453.93	1	246128.4	-17.36378	-6.972829E-009	0.0006853	6
	39	243	37.20238	243740.8	-83800.42	1	257744.3	-18.97346	-7.021742E-009	0.0007062	6
	40	245	30.04808	254866	-95967.2	1	272335.1	-20.63336	-6.698165E-009	0.0006211	6
	41	248	23.91582	267623.9	-110471.8	1	289528.2	-22.43021	-7.527121E-009	0.0007009	6
	42	251	18.60119	284194	-128598.3	1	311935.5	-24.34684	-8.549919E-009	0.0007255	6
	43	253	15.02404	298736.1	-146363.2	1	332664.2	-26.10216	-7.653915E-009	0.0006782	6
	44	256	12.01923	316162.2	-166012.2	1	357097.4	-27.70332	-6.472175E-009	0.0007232	6
	45	258	9.450605	335915.2	-190986.8	1	386413	-29.62069	-7.84744E-009	0.0007056	6
	46	261	7.512019	357047.6	-218616.8	1	418660.1	-31.47873	-9.379232E-010	0.000668	5
	47	264	5.978954	378339	-251483.9	1	454295.7	-33.61219	-7.098274E-010	0.0006422	5
	48	268	4.734848	399414.7	-293119.4	1	495430.2	-36.27391	-1.01399E-009	0.0006781	5
	49	271	3.75601	421990.5	-344636.4	1	544839.6	-39.23825	-7.978588E-010	0.0006277	5
	50	277	3.004808	446270.9	-407927.8	1	604617.9	-42.42985	-7.552132E-010	0.000642	5
	51	283	2.372217	471459.4	-491108.7	1	680780.3	-46.16943	-8.168675E-010	0.00064	5
	52	288	1.878005	496794.5	-595425.4	1	775458.8	-50.16	-8.190834E-010	0.0006675	5
	53	292	1.512097	524159.7	-716745.7	1	887957.1	-53.82181	-8.371825E-010	0.000555	5
	54	298	1.201923	555796.6	-877944.5	1	1039084	-57.6635	-8.259667E-010	0.0006703	5
	55	304	0.956633	591975.1	-1077843	1	1229707	-61.22343	-8.212611E-010	1.618865E-005	5
