EXPLAIN
TAG	EISPOT
TITLE	LABEL	Potentiostatic EIS	Test Identifier
DATE	LABEL	2/26/2021	Date
TIME	LABEL	14:56:10	Time
NOTES	NOTES	1	Notes...
	
PSTAT	PSTAT	REF3000-16137	Potentiostat
VDC	POTEN	0.00000E+000	T	DC Voltage (V)
FREQINIT	QUANT	3.00000E+005	Initial Freq. (Hz)
FREQFINAL	QUANT	1.00000E+000	Final Freq. (Hz)
PTSPERDEC	QUANT	1.00000E+001	Points/decade
VAC	QUANT	5.00000E+001	AC Voltage (mV rms)
AREA	QUANT	1.00000E+000	Sample Area (cm^2)
SPEED	SELECTOR	2	Optimize for:
ZGUESS	QUANT	1.00000E+003	Estimated Z (ohms)
EOC	QUANT	0	Open Circuit (V)
SEQUENCER	TOGGLE	TRUE	Run as Sequence
PSTATMODEL	IQUANT	5	Pstat Model
PSTATSECTION	LABEL	REF3000-16137	Pstat Section
PSTATSERIALNO	LABEL	16137	Pstat Serial Number
CTRLMODE	IQUANT	1	Control Mode
IESTAB	IQUANT	0	I/E Stability
CASPEED	IQUANT	1	Control Amp Speed
CONVENTION	IQUANT	1	Current Convention
ICHRANGE	IQUANT	2	Ich Range
ICHRANGEMODE	TOGGLE	F	Ich Auto Range
ICHOFFSETENABLE	TOGGLE	T	Ich Offset Enable
ICHOFFSET	QUANT	0	Ich Offset (V)
ICHFILTER	IQUANT	3	Ich Filter
VCHRANGE	IQUANT	2	Vch Range
VCHRANGEMODE	TOGGLE	F	Vch Auto Range
VCHOFFSETENABLE	TOGGLE	T	Vch Offset Enable
VCHOFFSET	QUANT	0	Vch Offset (V)
VCHFILTER	IQUANT	3	Vch Filter
ACHRANGE	IQUANT	2	Ach Range
ACHOFFSETENABLE	TOGGLE	F	Ach Offset Enable
ACHOFFSET	QUANT	0	Ach Offset (V)
ACHFILTER	IQUANT	3	Ach Filter
IERANGELOWERLIMIT	IQUANT	2	I/E Range Lower Limit
IERANGEMODE	TOGGLE	F	I/E AutoRange
IERANGE	IQUANT	11	I/E Range
POSFEEDENABLE	TOGGLE	F	Positive Feedback IR Comp
POSFEEDRESISTANCE	QUANT	0	Positive Feedback Resistance (ohm)
ACHSELECT	IQUANT	0	Ach Select
CABLEID	IQUANT	13	Cable ID
DCCALDATE	LABEL	7/31/2020	DC Calibration Date
ACCALDATE	LABEL	7/31/2020	AC Calibration Date
THERMOSELECT	IQUANT	1	Thermo Select
FRAMEWORKVERSION	QUANT	6.33	Framework Version
INSTRUMENTVERSION	LABEL	3.50	Instrument Version
COMPLIANCEVOLTAGE	IQUANT	0	Compliance Voltage
ZCURVE	TABLE
	Pt	Time	Freq	Zreal	Zimag	Zsig	Zmod	Zphz	Idc	Vdc	IERange
	#	s	Hz	ohm	ohm	V	ohm	°	A	V	#
	0	16	300046.9	534.5117	-65.63477	1	538.5264	-7.000526	-8.361103E-005	0.0039015	9
	1	28	238359.4	546.0904	-62.2378	1	549.6255	-6.501932	8.647889E-005	-0.0025749	9
	2	37	189328.1	554.6389	-61.71677	1	558.0621	-6.349398	-5.846897E-005	0.0005629	9
	3	46	150421.9	567.9191	-62.53762	1	571.3519	-6.28393	-2.732101E-005	-0.0008032	9
	4	53	119484.4	575.3592	-40.9464	1	576.8143	-4.070687	3.639999E-007	0.009145	8
	5	60	94921.88	580.1753	-44.51269	1	581.8804	-4.387299	1.694358E-005	-0.004592	8
	6	62	75421.88	586.1426	-51.35258	1	588.3879	-5.00696	-2.122476E-006	-0.0025376	8
	7	65	59859.37	591.6445	-60.53999	1	594.7338	-5.842453	8.771915E-006	-0.0051373	8
	8	67	47578.12	599.4312	-71.44646	1	603.6741	-6.797042	6.806817E-006	0.0021492	8
	9	70	37828.12	606.7012	-85.10189	1	612.6407	-7.984775	-1.476586E-005	0.0030328	8
	10	72	30046.88	617.2128	-97.8893	1	624.9271	-9.011992	-7.690744E-006	-0.0003998	8
	11	75	23859.38	627.7756	-115.9085	1	638.3863	-10.46092	1.559284E-005	-0.0054154	8
	12	77	18984.38	642.1054	-136.525	1	656.459	-12.00353	-1.405634E-005	0.0065818	8
	13	80	15046.87	658.0861	-157.0466	1	676.5656	-13.42211	4.612376E-007	0.0046232	8
	14	82	11953.13	673.2297	-187.2774	1	698.7926	-15.54538	-1.434364E-005	0.0029392	8
	15	84	9515.62	697.6453	-215.4592	1	730.1586	-17.16266	1.757489E-005	-0.0036867	8
	16	86	7546.875	722.2084	-252.1744	1	764.9685	-19.24773	9.299638E-006	-0.0054344	8
	17	89	5928.309	752.293	-291.4447	1	806.7744	-21.17679	1.733253E-005	-0.0048052	8
	18	91	4733.456	786.1352	-333.277	1	853.863	-22.97421	-1.093484E-005	0.0071456	8
	19	94	3796.875	822.243	-383.6345	1	907.3362	-25.01237	-1.575102E-005	0.0041277	8
	20	96	2987.132	864.8619	-441.5541	1	971.059	-27.04653	-1.65905E-005	0.0054789	8
	21	99	2390.625	907.5095	-503.1685	1	1037.667	-29.00617	-2.71117E-006	-0.0024092	8
	22	102	1884.191	954.523	-583.4437	1	1118.714	-31.435	-1.430331E-005	0.0028657	8
	23	105	1516.544	992.398	-662.6387	1	1193.291	-33.73162	-7.910709E-006	-0.0003375	8
	24	108	1193.986	1040.832	-782.7326	1	1302.306	-36.94413	-7.915595E-006	-0.0003424	8
	25	111	946.5144	1085.465	-915.7406	1	1420.146	-40.15228	-1.437209E-005	0.0071067	8
	26	114	751.7689	1118.011	-1085.462	1	1558.261	-44.15371	1.789347E-005	-0.0049354	8
	27	117	597.4265	1168.634	-1313.316	1	1757.983	-48.33621	-1.414471E-005	0.0027667	8
	28	119	477.4305	1204.718	-1586.8	1	1992.305	-52.79377	-2.848976E-008	0.0006583	8
	29	122	376.6741	1253.527	-1948.935	1	2317.257	-57.25145	-2.231012E-008	0.0006307	8
	30	124	298.2954	1307.992	-2398.528	1	2731.992	-61.39499	-5.30975E-008	0.0006638	8
	31	126	237.7717	1370.443	-2945.4	1	3248.614	-65.04826	-4.288915E-008	0.0006691	8
	32	129	189.0121	1444.571	-3635.051	1	3911.57	-68.3271	-9.141902E-009	0.0006474	8
	33	131	150.2404	1538.574	-4503.01	1	4758.604	-71.13589	-1.928851E-008	0.0006066	7
	34	134	119.1737	1647.59	-5587.173	1	5825.037	-73.56985	-2.117489E-008	0.000618	7
	35	136	95.0169	1778.725	-6904.715	1	7130.144	-75.55412	-2.385519E-008	0.0006336	7
	36	138	75.60484	1940.935	-8556.197	1	8773.582	-77.21901	-2.460382E-008	0.0006388	7
	37	141	54.50582	2241.458	-11630.67	1	11844.68	-79.09171	-2.272742E-008	0.0006189	7
	38	143	45.95588	2440.3	-13667.32	1	13883.47	-79.87652	-2.35833E-008	0.0006584	7
	39	146	37.20238	2734.997	-16674.8	1	16897.61	-80.6853	-1.899684E-008	0.0006044	7
	40	148	30.04808	3108.483	-20403.67	1	20639.1	-81.33764	-1.939008E-008	0.0006027	7
	41	151	23.91582	3600.005	-25317	1	25571.67	-81.90696	-2.16856E-008	0.0006428	7
	42	153	18.60119	4314.889	-32037.44	1	32326.7	-82.32941	-2.034468E-008	0.0006453	7
	43	155	15.02404	5055.095	-39225.57	1	39549.96	-82.65663	-1.818195E-008	0.0006138	7
	44	157	12.01923	6078.389	-48434.08	1	48814	-82.84688	-3.408558E-009	0.0006755	6
	45	160	9.450605	7551.044	-60778.63	1	61245.9	-82.91795	-3.131641E-009	0.000663	6
	46	162	7.512019	9305.44	-75499.85	1	76071.14	-82.97367	-3.697262E-009	0.0006913	6
	47	165	5.978954	11629.4	-93616.41	1	94335.98	-82.91877	-4.036857E-009	0.0006753	6
	48	170	4.734848	14919.51	-116752.9	1	117702.3	-82.71781	-3.86708E-009	0.000644	6
	49	173	3.75601	19256.24	-145088.6	1	146360.9	-82.43986	-3.428451E-009	0.0006486	6
	50	178	3.004808	24991.85	-178793.7	1	180531.9	-82.04273	-3.675126E-009	0.0006808	6
	51	185	2.372217	33453.54	-223048.6	1	225543.4	-81.47018	-3.948527E-009	0.0007425	6
	52	189	1.878005	44710.68	-277065	1	280649.3	-80.83306	-4.303648E-009	0.0006523	6
	53	194	1.512097	59441.56	-337368.1	1	342564.6	-80.0075	-3.877934E-009	0.0007032	6
	54	199	1.201923	80811.13	-417135.5	1	424891.1	-79.03598	-4.060531E-009	0.0006439	6
	55	205	0.956633	110556.9	-511926.5	1	523728.5	-77.81342	-2.01233E-009	1.997322E-005	5
