EXPLAIN
TAG	EISPOT
TITLE	LABEL	Potentiostatic EIS	Test Identifier
DATE	LABEL	2/26/2021	Date
TIME	LABEL	16:23:03	Time
NOTES	NOTES	1	Notes...
	
PSTAT	PSTAT	REF3000-16137	Potentiostat
VDC	POTEN	0.00000E+000	T	DC Voltage (V)
FREQINIT	QUANT	3.00000E+005	Initial Freq. (Hz)
FREQFINAL	QUANT	1.00000E+000	Final Freq. (Hz)
PTSPERDEC	QUANT	1.00000E+001	Points/decade
VAC	QUANT	5.00000E+001	AC Voltage (mV rms)
AREA	QUANT	1.00000E+000	Sample Area (cm^2)
SPEED	SELECTOR	2	Optimize for:
ZGUESS	QUANT	1.00000E+003	Estimated Z (ohms)
EOC	QUANT	0	Open Circuit (V)
SEQUENCER	TOGGLE	TRUE	Run as Sequence
PSTATMODEL	IQUANT	5	Pstat Model
PSTATSECTION	LABEL	REF3000-16137	Pstat Section
PSTATSERIALNO	LABEL	16137	Pstat Serial Number
CTRLMODE	IQUANT	1	Control Mode
IESTAB	IQUANT	0	I/E Stability
CASPEED	IQUANT	1	Control Amp Speed
CONVENTION	IQUANT	1	Current Convention
ICHRANGE	IQUANT	2	Ich Range
ICHRANGEMODE	TOGGLE	F	Ich Auto Range
ICHOFFSETENABLE	TOGGLE	T	Ich Offset Enable
ICHOFFSET	QUANT	0	Ich Offset (V)
ICHFILTER	IQUANT	3	Ich Filter
VCHRANGE	IQUANT	2	Vch Range
VCHRANGEMODE	TOGGLE	F	Vch Auto Range
VCHOFFSETENABLE	TOGGLE	T	Vch Offset Enable
VCHOFFSET	QUANT	0	Vch Offset (V)
VCHFILTER	IQUANT	3	Vch Filter
ACHRANGE	IQUANT	2	Ach Range
ACHOFFSETENABLE	TOGGLE	F	Ach Offset Enable
ACHOFFSET	QUANT	0	Ach Offset (V)
ACHFILTER	IQUANT	3	Ach Filter
IERANGELOWERLIMIT	IQUANT	2	I/E Range Lower Limit
IERANGEMODE	TOGGLE	F	I/E AutoRange
IERANGE	IQUANT	11	I/E Range
POSFEEDENABLE	TOGGLE	F	Positive Feedback IR Comp
POSFEEDRESISTANCE	QUANT	0	Positive Feedback Resistance (ohm)
ACHSELECT	IQUANT	0	Ach Select
CABLEID	IQUANT	13	Cable ID
DCCALDATE	LABEL	7/31/2020	DC Calibration Date
ACCALDATE	LABEL	7/31/2020	AC Calibration Date
THERMOSELECT	IQUANT	1	Thermo Select
FRAMEWORKVERSION	QUANT	6.33	Framework Version
INSTRUMENTVERSION	LABEL	3.50	Instrument Version
COMPLIANCEVOLTAGE	IQUANT	0	Compliance Voltage
ZCURVE	TABLE
	Pt	Time	Freq	Zreal	Zimag	Zsig	Zmod	Zphz	Idc	Vdc	IERange
	#	s	Hz	ohm	ohm	V	ohm	°	A	V	#
	0	14	300046.9	-81.44524	-4896.088	1	4896.765	-90.95301	-0.0000956	0.0042785	9
	1	35	238359.4	-46.04169	-6044.237	1	6044.412	-90.43644	-9.069091E-005	0.0021851	9
	2	50	189328.1	352.3594	-7591.798	1	7599.971	-87.34263	-2.944248E-005	-0.0010227	9
	3	60	150421.9	720.1924	-9278.571	1	9306.479	-85.56166	1.588144E-006	-0.00185	9
	4	67	119484.4	567.5043	-11615.01	1	11628.87	-87.20278	-1.779428E-005	0.0168779	8
	5	74	94921.88	421.1017	-14536.9	1	14543	-88.34073	8.315989E-006	-0.0076821	8
	6	83	75421.88	672.562	-18559.27	1	18571.45	-87.92459	-9.402613E-006	-0.0021194	8
	7	92	59859.37	638.8811	-23003.27	1	23012.14	-88.4091	1.658108E-005	-0.0092175	8
	8	100	47578.12	3312.352	-29781.19	1	29964.82	-83.65348	7.594504E-006	-0.0185217	7
	9	107	37828.12	2151.218	-36026.62	1	36090.79	-86.58282	8.16608E-006	0.0042518	8
	10	115	30046.88	4158.478	-46481.39	1	46667.04	-84.88762	-7.284144E-006	0.0236399	7
	11	123	23859.38	5297.742	-57731.38	1	57973.95	-84.75691	7.605231E-006	-0.0184361	7
	12	128	18984.38	4465.284	-72153.44	1	72291.48	-86.45871	-7.269466E-006	0.0236285	7
	13	133	15046.87	4100.434	-92368.06	1	92459.03	-87.45818	4.241692E-007	0.0163953	7
	14	140	11953.13	10818.4	-115475.4	1	115981.1	-84.64783	-6.752101E-006	0.0121523	7
	15	146	9515.62	7145.884	-144437	1	144613.6	-87.16766	-7.148996E-006	0.0231531	7
	16	153	7546.875	6115.227	-180210.2	1	180314	-88.05648	2.973449E-006	0.0083001	7
	17	158	5928.309	15364.96	-254549.7	1	255013	-86.54574	-1.753526E-006	0.0220012	7
	18	163	4733.456	25077.84	-301992.3	1	303031.8	-85.25298	3.540957E-006	-0.024573	7
	19	170	3796.875	8794.831	-372800.6	1	372904.3	-88.64857	7.714547E-006	-0.0244336	7
	20	176	2987.132	9724.61	-409664.3	1	409779.8	-88.64017	8.226911E-006	-0.0076187	8
	21	185	2390.625	-2104.963	-555353.5	1	555357.5	-90.21717	7.744344E-006	-0.0244137	7
	22	192	1884.191	131952.9	-930256.2	1	939568.1	-81.9267	7.712967E-006	-0.0243923	7
	23	199	1516.544	420828.1	-1038554	1	1120576	-67.94192	-3.325808E-006	-0.005283	7
	24	205	1193.986	-317553.3	-859286.4	1	916085.8	-110.282	-2.60671E-005	0.0075292	8
	25	214	946.5144	-880779.4	124692.3	1	889562	171.9422	-2.013734E-005	0.0027055	8
	26	221	751.7689	734087.6	-1491380	1	1662257	-63.79264	7.773555E-006	-0.024484	7
	27	228	597.4265	-3041585	-6345107	1	7036450	-115.6112	-6.475716E-006	0.025631	7
	28	233	477.4305	62247.64	-2824959	1	2825645	-88.7377	-5.984172E-008	0.0006159	7
	29	241	376.6741	485272.1	-3672239	1	3704164	-82.47221	-6.085856E-010	0.0007007	5
	30	245	298.2954	522910.2	-4550803	1	4580747	-83.44518	-7.145695E-010	0.0006458	5
	31	249	237.7717	543058.8	-5760507	1	5786048	-84.61449	-7.437734E-010	0.0007062	5
	32	253	189.0121	623244.5	-7124313	1	7151522	-85.00042	-7.308568E-010	0.0006153	5
	33	256	150.2404	573831.5	-9074438	1	9092563	-86.38166	-6.930208E-010	0.000612	5
	34	258	119.1737	826148.2	-9.994926E+006	1	1.002901E+007	-85.27486	-5.561178E-010	0.0006136	5
	35	261	95.0169	470965.6	-1.443911E+007	1	1.444679E+007	-88.13183	-6.537436E-010	0.0006173	5
	36	264	75.60484	-707577.3	-1.699109E+007	1	1.700581E+007	-92.38465	-6.630091E-010	0.0006909	5
	37	267	54.50582	1052021	-2.522519E+007	1	2.524712E+007	-87.61185	-7.839587E-010	0.0006655	5
	38	270	45.95588	547453.3	-2.557088E+007	1	2.557674E+007	-88.77353	-6.080941E-010	0.0006164	5
	39	274	37.20238	3469880	-3.102635E+007	1	3.121977E+007	-83.61875	-7.148284E-010	0.0006967	5
	40	277	30.04808	770101.5	-4.271312E+007	1	4.272006E+007	-88.96709	-7.198414E-010	0.0006107	5
	41	281	23.91582	2.107375E+007	-6.309789E+007	1	6.652403E+007	-71.53146	4.647858E-011	0.0007044	4
	42	285	18.60119	1972860	-4.213982E+007	1	4.218598E+007	-87.31954	2.234032E-010	0.0006829	4
	43	289	15.02404	1.412984E+007	-8.487272E+007	1	8.604087E+007	-80.54794	-5.614956E-011	0.0006874	4
	44	292	12.01923	1.527765E+007	-1.156793E+008	1	1.166838E+008	-82.47655	-9.471725E-011	0.0007111	4
	45	296	9.450605	7316642	-1.371409E+008	1	1.37336E+008	-86.94609	-1.040026E-010	0.0006968	4
	46	300	7.512019	3.85995E+007	-1.908487E+008	1	1.947129E+008	-78.56606	-3.884824E-011	0.0006315	4
	47	304	5.978954	8.548129E+007	-2.411238E+008	1	2.558276E+008	-70.47997	-9.518722E-011	0.0006402	4
	48	310	4.734848	7.976075E+007	-2.649939E+008	1	2.767373E+008	-73.24869	-7.057722E-010	0.0006609	5
	49	318	3.75601	1.031495E+008	-2.821043E+008	1	3.003709E+008	-69.91541	-6.756242E-010	0.0006053	5
	50	326	3.004808	1.142446E+008	-3.874455E+008	1	4.039379E+008	-73.57099	-7.178636E-010	0.0006964	5
	51	335	2.372217	2.257621E+008	-4.719867E+008	1	5.232016E+008	-64.43714	-5.927953E-012	0.000774	3
	52	342	1.878005	2.995354E+008	-5.681122E+008	1	6.422405E+008	-62.1997	-5.943568E-012	0.0007388	3
	53	351	1.512097	3.87217E+008	-6.688623E+008	1	7.728607E+008	-59.93264	-5.73139E-012	0.0006485	3
	54	358	1.201923	5.063348E+008	-7.912188E+008	1	9.393626E+008	-57.38308	-5.678095E-012	0.0007375	3
	55	371	0.956633	6.630721E+008	-9.345721E+008	1	1.145901E+009	-54.64458	-5.904482E-012	0.0000954	3
