EXPLAIN
TAG	EISPOT
TITLE	LABEL	Potentiostatic EIS	Test Identifier
DATE	LABEL	2/26/2021	Date
TIME	LABEL	14:34:43	Time
NOTES	NOTES	1	Notes...
	
PSTAT	PSTAT	REF3000-16137	Potentiostat
VDC	POTEN	0.00000E+000	T	DC Voltage (V)
FREQINIT	QUANT	3.00000E+005	Initial Freq. (Hz)
FREQFINAL	QUANT	1.00000E+000	Final Freq. (Hz)
PTSPERDEC	QUANT	1.00000E+001	Points/decade
VAC	QUANT	5.00000E+001	AC Voltage (mV rms)
AREA	QUANT	1.00000E+000	Sample Area (cm^2)
SPEED	SELECTOR	2	Optimize for:
ZGUESS	QUANT	1.00000E+003	Estimated Z (ohms)
EOC	QUANT	0	Open Circuit (V)
SEQUENCER	TOGGLE	TRUE	Run as Sequence
PSTATMODEL	IQUANT	5	Pstat Model
PSTATSECTION	LABEL	REF3000-16137	Pstat Section
PSTATSERIALNO	LABEL	16137	Pstat Serial Number
CTRLMODE	IQUANT	1	Control Mode
IESTAB	IQUANT	0	I/E Stability
CASPEED	IQUANT	1	Control Amp Speed
CONVENTION	IQUANT	1	Current Convention
ICHRANGE	IQUANT	2	Ich Range
ICHRANGEMODE	TOGGLE	F	Ich Auto Range
ICHOFFSETENABLE	TOGGLE	T	Ich Offset Enable
ICHOFFSET	QUANT	0	Ich Offset (V)
ICHFILTER	IQUANT	3	Ich Filter
VCHRANGE	IQUANT	2	Vch Range
VCHRANGEMODE	TOGGLE	F	Vch Auto Range
VCHOFFSETENABLE	TOGGLE	T	Vch Offset Enable
VCHOFFSET	QUANT	0	Vch Offset (V)
VCHFILTER	IQUANT	3	Vch Filter
ACHRANGE	IQUANT	2	Ach Range
ACHOFFSETENABLE	TOGGLE	F	Ach Offset Enable
ACHOFFSET	QUANT	0	Ach Offset (V)
ACHFILTER	IQUANT	3	Ach Filter
IERANGELOWERLIMIT	IQUANT	2	I/E Range Lower Limit
IERANGEMODE	TOGGLE	F	I/E AutoRange
IERANGE	IQUANT	11	I/E Range
POSFEEDENABLE	TOGGLE	F	Positive Feedback IR Comp
POSFEEDRESISTANCE	QUANT	0	Positive Feedback Resistance (ohm)
ACHSELECT	IQUANT	0	Ach Select
CABLEID	IQUANT	13	Cable ID
DCCALDATE	LABEL	7/31/2020	DC Calibration Date
ACCALDATE	LABEL	7/31/2020	AC Calibration Date
THERMOSELECT	IQUANT	1	Thermo Select
FRAMEWORKVERSION	QUANT	6.33	Framework Version
INSTRUMENTVERSION	LABEL	3.50	Instrument Version
COMPLIANCEVOLTAGE	IQUANT	0	Compliance Voltage
ZCURVE	TABLE
	Pt	Time	Freq	Zreal	Zimag	Zsig	Zmod	Zphz	Idc	Vdc	IERange
	#	s	Hz	ohm	ohm	V	ohm	°	A	V	#
	0	7	300046.9	132.0758	-9.421988	1	132.4114	-4.08044	-1.08416E-005	-0.0014837	9
	1	10	238359.4	133.0614	-11.58579	1	133.5648	-4.976254	-8.420479E-005	0.0028629	9
	2	14	189328.1	134.3916	-14.1477	1	135.1342	-6.009521	-2.904319E-005	-0.0004726	9
	3	16	150421.9	135.9193	-16.83983	1	136.9585	-7.062716	1.650463E-005	-0.0014052	9
	4	19	119484.4	138.0658	-20.2487	1	139.5427	-8.343507	6.904307E-005	-0.0016315	9
	5	21	94921.88	140.1884	-23.74644	1	142.1854	-9.61404	1.042923E-005	0.0002449	9
	6	24	75421.88	142.7078	-28.22962	1	145.4731	-11.18946	-2.305243E-006	-0.0003075	9
	7	26	59859.37	145.9255	-33.30785	1	149.6785	-12.85763	-2.414132E-005	0.0007597	9
	8	29	47578.12	149.716	-39.16325	1	154.7534	-14.65918	1.957689E-005	-0.0007423	9
	9	31	37828.12	153.9154	-45.71585	1	160.5612	-16.54244	-1.658459E-005	0.0003058	9
	10	34	30046.88	159.2152	-53.39103	1	167.9288	-18.53831	-1.42033E-005	0.0008635	9
	11	36	23859.38	165.1938	-61.85542	1	176.3947	-20.52799	1.941397E-005	-0.0001257	9
	12	39	18984.38	171.9468	-71.43889	1	186.1967	-22.56146	2.612163E-005	-0.0005157	9
	13	41	15046.87	180.0666	-81.70834	1	197.7378	-24.40699	-2.123867E-005	0.000695	9
	14	43	11953.13	188.0314	-94.46253	1	210.4257	-26.67388	2.578431E-005	-0.0004292	9
	15	45	9515.62	197.5011	-107.9906	1	225.097	-28.66916	-6.076381E-006	-0.00017	9
	16	48	7546.875	206.475	-124.3099	1	241.008	-31.05038	2.509241E-005	-0.0005569	9
	17	50	5928.309	215.848	-144.2954	1	259.6373	-33.76292	2.484626E-005	-0.0005755	9
	18	53	4733.456	224.0667	-168.6206	1	280.4261	-36.96315	2.410874E-005	-0.0007127	9
	19	57	3796.875	233.0699	-197.0675	1	305.2166	-40.21551	1.158846E-005	0.0001985	9
	20	59	2987.132	241.243	-236.8766	1	338.0957	-44.47677	2.02265E-006	0.000548	9
	21	62	2390.625	248.5437	-283.3279	1	376.8934	-48.74179	1.404487E-005	-0.0006877	9
	22	64	1884.191	257.4831	-343.8001	1	429.53	-53.16927	3.64893E-006	-0.0018137	8
	23	66	1516.544	266.8224	-415.3697	1	493.6863	-57.28439	-1.646052E-006	-0.000403	8
	24	69	1193.986	278.4789	-514.6213	1	585.1372	-61.58069	8.214614E-006	-0.001018	8
	25	71	946.5144	291.062	-634.7869	1	698.3348	-65.36763	3.724648E-006	-0.0018103	8
	26	73	751.7689	307.5934	-783.3792	1	841.6036	-68.56258	8.273269E-006	-0.001095	8
	27	76	597.4265	326.1693	-969.827	1	1023.206	-71.41132	7.421195E-006	-0.0022366	8
	28	78	477.4305	349.1446	-1195.474	1	1245.416	-73.71928	1.864069E-007	0.0006752	8
	29	80	376.6741	379.2063	-1491.938	1	1539.375	-75.7391	2.011102E-007	0.0006629	8
	30	83	298.2954	416.0856	-1856.494	1	1902.55	-77.36737	2.058925E-007	0.0006666	8
	31	85	237.7717	461.2271	-2297.009	1	2342.857	-78.64629	1.890185E-007	0.0006656	8
	32	87	189.0121	518.7079	-2849.766	1	2896.588	-79.68409	2.164674E-007	0.0006592	8
	33	90	150.2404	591.5839	-3537.023	1	3586.155	-80.5049	2.166935E-007	0.0006529	8
	34	92	119.1737	687.9351	-4406.532	1	4459.908	-81.12677	-2.384809E-009	0.0006396	7
	35	95	95.0169	805.0959	-5452.134	1	5511.256	-81.60005	-4.875187E-009	0.0006362	7
	36	97	75.60484	957.001	-6758.99	1	6826.404	-81.94109	-4.405439E-009	0.0006375	7
	37	100	54.50582	1256.128	-9183.815	1	9269.321	-82.21162	-4.292291E-009	0.0006184	7
	38	102	45.95588	1461.958	-10784.83	1	10883.47	-82.28022	-5.754096E-010	0.0006307	7
	39	104	37.20238	1782.305	-13139.71	1	13260.03	-82.27539	-4.816606E-009	0.0006314	7
	40	107	30.04808	2201.817	-16040.3	1	16190.71	-82.18398	-3.879711E-009	0.000626	7
	41	109	23.91582	2789.813	-19820.72	1	20016.1	-81.98811	-3.366166E-009	0.0006207	7
	42	112	18.60119	3685.978	-25068.72	1	25338.25	-81.63545	-5.275629E-009	0.0006391	7
	43	114	15.02404	4706.471	-30536.31	1	30896.88	-81.23812	-4.091996E-009	0.0006355	7
	44	116	12.01923	6152.167	-37496.55	1	37997.91	-80.68233	-6.604701E-010	0.0006314	7
	45	119	9.450605	8285.081	-46707.09	1	47436.22	-79.94128	-1.727799E-008	0.0006702	6
	46	121	7.512019	11065.65	-57452.88	1	58508.82	-79.0981	-1.773681E-008	0.0007052	6
	47	124	5.978954	14867.04	-70438.57	1	71990.42	-78.08186	-1.874982E-008	0.0006812	6
	48	128	4.734848	20214.01	-86481.67	1	88812.64	-76.84402	-1.682865E-008	0.0007034	6
	49	132	3.75601	27491.72	-105542.6	1	109064.4	-75.40003	-1.829024E-008	0.0006641	6
	50	137	3.004808	36925.27	-127151.8	1	132404.9	-73.80655	-1.759892E-008	0.0006787	6
	51	144	2.372217	50418.63	-153731	1	161787.7	-71.84224	-1.816842E-008	0.0006871	6
	52	148	1.878005	68414.72	-184374	1	196657.9	-69.64188	-1.852108E-008	0.0006858	6
	53	153	1.512097	89534.98	-216050.3	1	233868	-67.49004	-1.770863E-008	0.0005792	6
	54	158	1.201923	118181.2	-253011	1	279251.5	-64.96276	-1.790365E-008	0.0006909	6
	55	164	0.956633	153066.9	-292731.5	1	330335	-62.39531	-1.817557E-008	4.014946E-005	6
