EXPLAIN
TAG	EISPOT
TITLE	LABEL	Potentiostatic EIS	Test Identifier
DATE	LABEL	2/26/2021	Date
TIME	LABEL	14:20:34	Time
NOTES	NOTES	1	Notes...
	
PSTAT	PSTAT	REF3000-16137	Potentiostat
VDC	POTEN	0.00000E+000	T	DC Voltage (V)
FREQINIT	QUANT	3.00000E+005	Initial Freq. (Hz)
FREQFINAL	QUANT	1.00000E+000	Final Freq. (Hz)
PTSPERDEC	QUANT	1.00000E+001	Points/decade
VAC	QUANT	5.00000E+001	AC Voltage (mV rms)
AREA	QUANT	1.00000E+000	Sample Area (cm^2)
SPEED	SELECTOR	2	Optimize for:
ZGUESS	QUANT	1.00000E+003	Estimated Z (ohms)
EOC	QUANT	0	Open Circuit (V)
SEQUENCER	TOGGLE	TRUE	Run as Sequence
PSTATMODEL	IQUANT	5	Pstat Model
PSTATSECTION	LABEL	REF3000-16137	Pstat Section
PSTATSERIALNO	LABEL	16137	Pstat Serial Number
CTRLMODE	IQUANT	1	Control Mode
IESTAB	IQUANT	0	I/E Stability
CASPEED	IQUANT	1	Control Amp Speed
CONVENTION	IQUANT	1	Current Convention
ICHRANGE	IQUANT	2	Ich Range
ICHRANGEMODE	TOGGLE	F	Ich Auto Range
ICHOFFSETENABLE	TOGGLE	T	Ich Offset Enable
ICHOFFSET	QUANT	0	Ich Offset (V)
ICHFILTER	IQUANT	3	Ich Filter
VCHRANGE	IQUANT	2	Vch Range
VCHRANGEMODE	TOGGLE	F	Vch Auto Range
VCHOFFSETENABLE	TOGGLE	T	Vch Offset Enable
VCHOFFSET	QUANT	0	Vch Offset (V)
VCHFILTER	IQUANT	3	Vch Filter
ACHRANGE	IQUANT	2	Ach Range
ACHOFFSETENABLE	TOGGLE	F	Ach Offset Enable
ACHOFFSET	QUANT	0	Ach Offset (V)
ACHFILTER	IQUANT	3	Ach Filter
IERANGELOWERLIMIT	IQUANT	2	I/E Range Lower Limit
IERANGEMODE	TOGGLE	F	I/E AutoRange
IERANGE	IQUANT	11	I/E Range
POSFEEDENABLE	TOGGLE	F	Positive Feedback IR Comp
POSFEEDRESISTANCE	QUANT	0	Positive Feedback Resistance (ohm)
ACHSELECT	IQUANT	0	Ach Select
CABLEID	IQUANT	13	Cable ID
DCCALDATE	LABEL	7/31/2020	DC Calibration Date
ACCALDATE	LABEL	7/31/2020	AC Calibration Date
THERMOSELECT	IQUANT	1	Thermo Select
FRAMEWORKVERSION	QUANT	6.33	Framework Version
INSTRUMENTVERSION	LABEL	3.50	Instrument Version
COMPLIANCEVOLTAGE	IQUANT	0	Compliance Voltage
ZCURVE	TABLE
	Pt	Time	Freq	Zreal	Zimag	Zsig	Zmod	Zphz	Idc	Vdc	IERange
	#	s	Hz	ohm	ohm	V	ohm	°	A	V	#
	0	7	300046.9	71.74958	-5.645816	1	71.97137	-4.499208	9.165266E-006	-0.0015114	9
	1	10	238359.4	72.47327	-7.654686	1	72.8764	-6.029273	-6.782513E-005	0.0016389	9
	2	13	189328.1	73.48997	-9.89412	1	74.15301	-7.667754	-4.562334E-005	0.000738	9
	3	16	150421.9	74.65491	-12.37453	1	75.67355	-9.411569	-5.871914E-007	0.0008487	9
	4	18	119484.4	76.2085	-14.8987	1	77.65118	-11.06176	8.151203E-006	-0.0010335	9
	5	21	94921.88	77.94778	-17.6422	1	79.91936	-12.75309	1.670844E-005	-0.0006641	9
	6	23	75421.88	79.93896	-21.1738	1	82.69563	-14.83551	-1.783011E-005	0.0005263	9
	7	26	59859.37	82.30148	-24.98586	1	86.01062	-16.88774	1.763935E-005	-0.0001626	9
	8	28	47578.12	85.17173	-29.28186	1	90.0647	-18.97286	1.910817E-005	-0.0002369	9
	9	31	37828.12	88.33498	-34.02471	1	94.66123	-21.0656	1.83901E-005	-0.0000958	9
	10	34	30046.88	92.09367	-39.45843	1	100.1909	-23.19318	-1.753123E-005	0.0004575	9
	11	36	23859.38	96.2107	-45.39639	1	106.383	-25.25997	3.944523E-006	0.0004328	9
	12	38	18984.38	100.5994	-52.15633	1	113.316	-27.40474	-1.645265E-005	0.0004994	9
	13	41	15046.87	105.3913	-59.98062	1	121.2642	-29.64521	5.296593E-008	0.000551	9
	14	43	11953.13	109.8586	-69.09651	1	129.7815	-32.16819	1.51665E-005	-0.000621	9
	15	45	9515.62	114.3301	-80.39297	1	139.7655	-35.11356	-1.545265E-005	0.0007469	9
	16	48	7546.875	118.7279	-94.3375	1	151.6439	-38.46956	1.08335E-005	0.0001218	9
	17	50	5928.309	123.1598	-112.7595	1	166.9822	-42.4758	-1.324002E-005	0.0002044	9
	18	52	4733.456	127.4164	-134.4267	1	185.2174	-46.53362	-9.660543E-006	7.178597E-005	9
	19	54	3796.875	131.8572	-161.5267	1	208.5119	-50.77461	1.663826E-005	-0.0006189	9
	20	57	2987.132	136.982	-198.522	1	241.1951	-55.39397	-1.826477E-005	0.0007431	9
	21	59	2390.625	141.8305	-241.0849	1	279.7102	-59.53166	3.083642E-006	0.000395	9
	22	61	1884.191	149.5724	-299.4465	1	334.7239	-63.45804	1.134494E-005	-0.0005415	9
	23	64	1516.544	157.3125	-363.9939	1	396.5335	-66.62675	-1.407669E-005	0.0002323	9
	24	66	1193.986	166.6162	-451.5424	1	481.3018	-69.74626	-2.584773E-006	0.0007011	8
	25	68	946.5144	177.8235	-560.5985	1	588.1257	-72.40082	4.087681E-006	-0.001073	8
	26	71	751.7689	194.0816	-693.5186	1	720.1637	-74.36569	5.481435E-006	-0.0004646	8
	27	73	597.4265	213.463	-858.2877	1	884.4344	-76.03345	-2.175761E-006	0.0021822	8
	28	75	477.4305	236.135	-1058.282	1	1084.307	-77.42162	3.236962E-007	0.0006273	8
	29	78	376.6741	267.562	-1319.879	1	1346.726	-78.54046	3.275064E-007	0.0006279	8
	30	80	298.2954	307.033	-1640.322	1	1668.809	-79.39814	2.980123E-007	0.0006627	8
	31	82	237.7717	355.9251	-2025.747	1	2056.777	-80.03481	2.954444E-007	0.0006553	8
	32	85	189.0121	419.0189	-2507.813	1	2542.578	-80.51434	2.873991E-007	0.0006636	8
	33	87	150.2404	500.2689	-3103.889	1	3143.946	-80.8441	2.894468E-007	0.0006655	8
	34	90	119.1737	605.3866	-3847.984	1	3895.315	-81.05919	3.037304E-007	0.0006593	8
	35	92	95.0169	741.1747	-4754.095	1	4811.524	-81.13879	-3.757647E-008	0.0006278	7
	36	94	75.60484	915.0426	-5870.687	1	5941.571	-81.1408	-3.868176E-008	0.0006284	7
	37	97	54.50582	1258.745	-7931.244	1	8030.509	-80.98196	-3.663536E-008	0.0006261	7
	38	100	45.95588	1499.841	-9278.354	1	9398.796	-80.8176	-3.444635E-008	0.0006383	7
	39	102	37.20238	1877.697	-11262.85	1	11418.3	-80.53493	-3.515171E-008	0.000633	7
	40	104	30.04808	2376.967	-13685.2	1	13890.09	-80.14666	-3.58666E-008	0.0006246	7
	41	107	23.91582	3058.235	-16799.2	1	17075.3	-79.6825	-3.636425E-008	0.0006322	7
	42	109	18.60119	4113.871	-21091.42	1	21488.88	-78.96306	-3.981987E-008	0.0006309	7
	43	111	15.02404	5313.888	-25490.01	1	26038.01	-78.22424	-3.112293E-008	0.000636	7
	44	114	12.01923	6995.823	-31025.32	1	31804.28	-77.29303	-3.180422E-008	0.0006383	7
	45	116	9.450605	9452.105	-38185.68	1	39338.13	-76.09702	-3.197928E-008	0.0006292	7
	46	118	7.512019	12618.13	-46438.34	1	48122.1	-74.79872	-6.355297E-008	0.0006863	6
	47	121	5.978954	16862.14	-56104.31	1	58583.49	-73.27186	-6.624629E-008	0.0006932	6
	48	124	4.734848	22643.62	-67698.1	1	71384.63	-71.50597	-6.405351E-008	0.0006977	6
	49	127	3.75601	30256.27	-80886.94	1	86360.52	-69.49137	-6.527229E-008	0.0006874	6
	50	133	3.004808	39715.82	-95206.9	1	103158.6	-67.3564	-6.372262E-008	0.0006582	6
	51	139	2.372217	52569.62	-112070	1	123787.1	-64.86974	-6.429106E-008	0.0006111	6
	52	144	1.878005	68196.11	-129945.6	1	146753.4	-62.30928	-6.276944E-008	0.0006913	6
	53	148	1.512097	85498.63	-147293.5	1	170309.7	-59.86636	-6.270906E-008	0.0006579	6
	54	154	1.201923	107587	-166886.1	1	198559.6	-57.19121	-6.230139E-008	0.000711	6
	55	160	0.956633	132585.9	-186700.3	1	228989.2	-54.61939	-6.396868E-008	4.917465E-005	6
