EXPLAIN
TAG	EISPOT
TITLE	LABEL	Potentiostatic EIS	Test Identifier
DATE	LABEL	2/26/2021	Date
TIME	LABEL	14:14:56	Time
NOTES	NOTES	1	Notes...
	
PSTAT	PSTAT	REF3000-16137	Potentiostat
VDC	POTEN	0.00000E+000	T	DC Voltage (V)
FREQINIT	QUANT	3.00000E+005	Initial Freq. (Hz)
FREQFINAL	QUANT	1.00000E+000	Final Freq. (Hz)
PTSPERDEC	QUANT	1.00000E+001	Points/decade
VAC	QUANT	5.00000E+001	AC Voltage (mV rms)
AREA	QUANT	1.00000E+000	Sample Area (cm^2)
SPEED	SELECTOR	2	Optimize for:
ZGUESS	QUANT	1.00000E+003	Estimated Z (ohms)
EOC	QUANT	0	Open Circuit (V)
SEQUENCER	TOGGLE	TRUE	Run as Sequence
PSTATMODEL	IQUANT	5	Pstat Model
PSTATSECTION	LABEL	REF3000-16137	Pstat Section
PSTATSERIALNO	LABEL	16137	Pstat Serial Number
CTRLMODE	IQUANT	1	Control Mode
IESTAB	IQUANT	0	I/E Stability
CASPEED	IQUANT	1	Control Amp Speed
CONVENTION	IQUANT	1	Current Convention
ICHRANGE	IQUANT	2	Ich Range
ICHRANGEMODE	TOGGLE	F	Ich Auto Range
ICHOFFSETENABLE	TOGGLE	T	Ich Offset Enable
ICHOFFSET	QUANT	0	Ich Offset (V)
ICHFILTER	IQUANT	3	Ich Filter
VCHRANGE	IQUANT	2	Vch Range
VCHRANGEMODE	TOGGLE	F	Vch Auto Range
VCHOFFSETENABLE	TOGGLE	T	Vch Offset Enable
VCHOFFSET	QUANT	0	Vch Offset (V)
VCHFILTER	IQUANT	3	Vch Filter
ACHRANGE	IQUANT	2	Ach Range
ACHOFFSETENABLE	TOGGLE	F	Ach Offset Enable
ACHOFFSET	QUANT	0	Ach Offset (V)
ACHFILTER	IQUANT	3	Ach Filter
IERANGELOWERLIMIT	IQUANT	2	I/E Range Lower Limit
IERANGEMODE	TOGGLE	F	I/E AutoRange
IERANGE	IQUANT	11	I/E Range
POSFEEDENABLE	TOGGLE	F	Positive Feedback IR Comp
POSFEEDRESISTANCE	QUANT	0	Positive Feedback Resistance (ohm)
ACHSELECT	IQUANT	0	Ach Select
CABLEID	IQUANT	13	Cable ID
DCCALDATE	LABEL	7/31/2020	DC Calibration Date
ACCALDATE	LABEL	7/31/2020	AC Calibration Date
THERMOSELECT	IQUANT	1	Thermo Select
FRAMEWORKVERSION	QUANT	6.33	Framework Version
INSTRUMENTVERSION	LABEL	3.50	Instrument Version
COMPLIANCEVOLTAGE	IQUANT	0	Compliance Voltage
ZCURVE	TABLE
	Pt	Time	Freq	Zreal	Zimag	Zsig	Zmod	Zphz	Idc	Vdc	IERange
	#	s	Hz	ohm	ohm	V	ohm	°	A	V	#
	0	7	300046.9	58.8717	-4.81192	1	59.06803	-4.672723	6.366755E-005	-0.0023287	9
	1	10	238359.4	59.64405	-6.746686	1	60.02441	-6.453629	6.246379E-006	-0.0013932	9
	2	13	189328.1	60.53053	-8.814082	1	61.16889	-8.284829	-5.992377E-005	0.0022124	9
	3	16	150421.9	61.58449	-11.0276	1	62.56403	-10.15205	-6.152158E-005	0.0017139	9
	4	18	119484.4	62.94529	-13.48416	1	64.37337	-12.09118	-1.124761E-005	-0.0006526	9
	5	21	94921.88	64.65295	-15.94604	1	66.59039	-13.85494	2.101275E-005	-0.0004766	9
	6	24	75421.88	66.38917	-18.98759	1	69.05107	-15.96076	-2.026283E-006	0.0005204	9
	7	26	59859.37	68.52628	-22.48725	1	72.12161	-18.16751	-1.699933E-005	0.000495	9
	8	29	47578.12	71.0566	-26.32017	1	75.77461	-20.3252	9.732604E-006	-0.0004873	9
	9	31	37828.12	73.95878	-30.6125	1	80.0439	-22.4853	2.110539E-005	-0.0004298	9
	10	34	30046.88	77.16586	-35.34398	1	84.875	-24.60902	-8.854748E-006	0.0007086	9
	11	36	23859.38	80.72978	-40.75222	1	90.43253	-26.78455	-1.432524E-005	0.0006941	9
	12	38	18984.38	84.36606	-46.73572	1	96.4462	-28.98486	6.501815E-006	-0.0004182	9
	13	41	15046.87	88.07137	-54.06279	1	103.341	-31.54377	-3.409568E-006	0.0005146	9
	14	43	11953.13	91.78819	-62.85495	1	111.2467	-34.40266	-1.415721E-005	0.0006806	9
	15	45	9515.62	95.2236	-73.41572	1	120.239	-37.63158	2.153622E-005	-0.0004885	9
	16	48	7546.875	98.7261	-86.82504	1	131.474	-41.33015	-1.585066E-005	0.0007201	9
	17	50	5928.309	102.4328	-104.9817	1	146.6753	-45.70405	1.507792E-005	-0.0005485	9
	18	52	4733.456	105.968	-126.3452	1	164.9009	-50.01283	1.930937E-005	-0.0005615	9
	19	55	3796.875	110.1734	-152.1782	1	187.8734	-54.09635	1.991315E-005	-0.0005883	9
	20	57	2987.132	114.8207	-187.8954	1	220.2009	-58.57138	4.18841E-006	-0.0003506	9
	21	59	2390.625	120.5326	-228.5859	1	258.4175	-62.19748	-1.352742E-005	0.0002558	9
	22	61	1884.191	126.0289	-284.2716	1	310.956	-66.09038	-3.543874E-006	-0.0001237	9
	23	64	1516.544	134.3536	-346.8757	1	371.9861	-68.82738	-1.541561E-005	0.0003694	9
	24	66	1193.986	144.9081	-432.1259	1	455.7753	-71.46176	-1.346931E-005	0.0002359	9
	25	69	946.5144	156.6454	-533.1264	1	555.6631	-73.62594	-8.00216E-007	0.0017064	8
	26	71	751.7689	172.3679	-659.9035	1	682.0435	-75.36131	8.380578E-007	-0.0002055	8
	27	73	597.4265	191.5641	-817.4655	1	839.611	-76.81134	4.907717E-006	-0.0003599	8
	28	75	477.4305	216.4965	-1005.32	1	1028.367	-77.84691	3.030636E-007	0.000664	8
	29	78	376.6741	249.4277	-1252.075	1	1276.678	-78.73351	3.040015E-007	0.0006685	8
	30	80	298.2954	290.8437	-1553.763	1	1580.75	-79.39769	2.946531E-007	0.0006673	8
	31	82	237.7717	342.2452	-1915.714	1	1946.045	-79.87088	3.074524E-007	0.0006658	8
	32	85	189.0121	408.6656	-2367.41	1	2402.423	-80.20604	3.056593E-007	0.0006673	8
	33	87	150.2404	493.902	-2924.633	1	2966.044	-80.41453	2.983511E-007	0.0006691	8
	34	90	119.1737	604.4824	-3617.769	1	3667.922	-80.51424	3.108862E-007	0.0006657	8
	35	92	95.0169	746.6162	-4461.112	1	4523.158	-80.49898	-6.390898E-008	0.0006338	7
	36	95	75.60484	928.8018	-5497.154	1	5575.067	-80.40985	-6.561242E-008	0.0006295	7
	37	97	54.50582	1291.292	-7402.389	1	7514.173	-80.10474	-6.399378E-008	0.0006436	7
	38	100	45.95588	1543.05	-8643.532	1	8780.186	-79.87814	-6.014261E-008	0.000637	7
	39	102	37.20238	1941.167	-10464.13	1	10642.66	-79.49072	-6.126893E-008	0.0006466	7
	40	104	30.04808	2461.901	-12682.75	1	12919.49	-79.01469	-6.324131E-008	0.0006489	7
	41	107	23.91582	3177.724	-15529.2	1	15850.99	-78.43528	-6.238399E-008	0.0006472	7
	42	109	18.60119	4277.186	-19402.82	1	19868.66	-77.56846	-6.510987E-008	0.0006494	7
	43	111	15.02404	5525.739	-23367.52	1	24011.97	-76.69561	-6.093654E-008	0.0006577	7
	44	114	12.01923	7275.68	-28308.89	1	29228.9	-75.58634	-5.830025E-008	0.0006464	7
	45	116	9.450605	9776.36	-34628.99	1	35982.55	-74.23471	-5.832841E-008	0.0006446	7
	46	119	7.512019	12996.68	-41837.82	1	43810.01	-72.7429	-9.549841E-008	0.0007263	6
	47	121	5.978954	17257.91	-50126.08	1	53013.77	-71.00193	-9.780057E-008	0.0007011	6
	48	124	4.734848	22924	-59919.37	1	64154.82	-69.06411	-9.363708E-008	0.0006881	6
	49	127	3.75601	30223.72	-70830.86	1	77009.63	-66.89192	-9.616185E-008	0.000696	6
	50	133	3.004808	39067.62	-82456.84	1	91243.68	-64.64865	-9.393506E-008	0.0006691	6
	51	139	2.372217	50645.98	-95838.7	1	108397.7	-62.14577	-9.506842E-008	0.0006526	6
	52	144	1.878005	64568.28	-109666.3	1	127262.5	-59.51167	-9.390087E-008	0.0007037	6
	53	148	1.512097	79516.86	-123020.8	1	146482.2	-57.12261	-9.311437E-008	0.0005914	6
	54	154	1.201923	97682.5	-138071.4	1	169131.9	-54.72143	-9.276309E-008	0.0007225	6
	55	160	0.956633	117963.3	-153634	1	193697.5	-52.48221	-9.365775E-008	5.308235E-005	6
