EXPLAIN
TAG	EISPOT
TITLE	LABEL	Potentiostatic EIS	Test Identifier
DATE	LABEL	2/26/2021	Date
TIME	LABEL	14:09:16	Time
NOTES	NOTES	1	Notes...
	
PSTAT	PSTAT	REF3000-16137	Potentiostat
VDC	POTEN	0.00000E+000	T	DC Voltage (V)
FREQINIT	QUANT	3.00000E+005	Initial Freq. (Hz)
FREQFINAL	QUANT	1.00000E+000	Final Freq. (Hz)
PTSPERDEC	QUANT	1.00000E+001	Points/decade
VAC	QUANT	5.00000E+001	AC Voltage (mV rms)
AREA	QUANT	1.00000E+000	Sample Area (cm^2)
SPEED	SELECTOR	2	Optimize for:
ZGUESS	QUANT	1.00000E+003	Estimated Z (ohms)
EOC	QUANT	0	Open Circuit (V)
SEQUENCER	TOGGLE	TRUE	Run as Sequence
PSTATMODEL	IQUANT	5	Pstat Model
PSTATSECTION	LABEL	REF3000-16137	Pstat Section
PSTATSERIALNO	LABEL	16137	Pstat Serial Number
CTRLMODE	IQUANT	1	Control Mode
IESTAB	IQUANT	0	I/E Stability
CASPEED	IQUANT	1	Control Amp Speed
CONVENTION	IQUANT	1	Current Convention
ICHRANGE	IQUANT	2	Ich Range
ICHRANGEMODE	TOGGLE	F	Ich Auto Range
ICHOFFSETENABLE	TOGGLE	T	Ich Offset Enable
ICHOFFSET	QUANT	0	Ich Offset (V)
ICHFILTER	IQUANT	3	Ich Filter
VCHRANGE	IQUANT	2	Vch Range
VCHRANGEMODE	TOGGLE	F	Vch Auto Range
VCHOFFSETENABLE	TOGGLE	T	Vch Offset Enable
VCHOFFSET	QUANT	0	Vch Offset (V)
VCHFILTER	IQUANT	3	Vch Filter
ACHRANGE	IQUANT	2	Ach Range
ACHOFFSETENABLE	TOGGLE	F	Ach Offset Enable
ACHOFFSET	QUANT	0	Ach Offset (V)
ACHFILTER	IQUANT	3	Ach Filter
IERANGELOWERLIMIT	IQUANT	2	I/E Range Lower Limit
IERANGEMODE	TOGGLE	F	I/E AutoRange
IERANGE	IQUANT	11	I/E Range
POSFEEDENABLE	TOGGLE	F	Positive Feedback IR Comp
POSFEEDRESISTANCE	QUANT	0	Positive Feedback Resistance (ohm)
ACHSELECT	IQUANT	0	Ach Select
CABLEID	IQUANT	13	Cable ID
DCCALDATE	LABEL	7/31/2020	DC Calibration Date
ACCALDATE	LABEL	7/31/2020	AC Calibration Date
THERMOSELECT	IQUANT	1	Thermo Select
FRAMEWORKVERSION	QUANT	6.33	Framework Version
INSTRUMENTVERSION	LABEL	3.50	Instrument Version
COMPLIANCEVOLTAGE	IQUANT	0	Compliance Voltage
ZCURVE	TABLE
	Pt	Time	Freq	Zreal	Zimag	Zsig	Zmod	Zphz	Idc	Vdc	IERange
	#	s	Hz	ohm	ohm	V	ohm	°	A	V	#
	0	7	300046.9	49.42506	-4.094724	1	49.59438	-4.735975	-6.389908E-005	0.0017373	9
	1	10	238359.4	50.12727	-6.014421	1	50.4868	-6.841814	1.859938E-005	-0.0008722	9
	2	13	189328.1	51.03402	-7.841002	1	51.63286	-8.734772	5.801638E-005	-0.0021727	9
	3	16	150421.9	52.01902	-10.01521	1	52.97437	-10.89779	6.748362E-006	-0.0009097	9
	4	18	119484.4	53.10107	-12.19847	1	54.48418	-12.93762	6.695656E-006	-0.0009647	9
	5	21	94921.88	54.70527	-14.50885	1	56.59659	-14.85392	-1.574112E-005	0.0003812	9
	6	23	75421.88	56.32392	-17.2565	1	58.90815	-17.034	-9.873621E-006	5.718468E-005	9
	7	26	59859.37	58.23722	-20.39767	1	61.70606	-19.30288	1.422701E-005	-0.0005365	9
	8	28	47578.12	60.48078	-23.85982	1	65.01704	-21.52936	2.244181E-005	-0.0003239	9
	9	31	37828.12	63.03813	-27.59599	1	68.81384	-23.6422	-1.268811E-005	0.0002342	9
	10	33	30046.88	65.86765	-31.92653	1	73.19734	-25.8598	1.931944E-005	-0.000491	9
	11	36	23859.38	68.85389	-36.83972	1	78.08984	-28.14865	-3.224815E-006	0.0004727	9
	12	38	18984.38	71.83121	-42.43241	1	83.428	-30.57136	-2.301454E-006	0.0004888	9
	13	40	15046.87	74.83801	-49.29855	1	89.61626	-33.37436	-1.707244E-005	0.000562	9
	14	43	11953.13	77.90375	-57.54026	1	96.8498	-36.44984	-2.280908E-006	-0.0001277	9
	15	45	9515.62	80.73634	-67.8258	1	105.4452	-40.03328	1.411526E-005	-0.0005177	9
	16	47	7546.875	83.54079	-81.19997	1	116.5011	-44.18594	-3.699855E-006	-0.0001232	9
	17	50	5928.309	86.87681	-98.6251	1	131.4324	-48.62383	1.740179E-005	-0.0001519	9
	18	52	4733.456	90.19108	-119.0839	1	149.3835	-52.86066	1.465279E-005	-0.0005195	9
	19	54	3796.875	93.69201	-144.162	1	171.9328	-56.97984	1.419213E-005	-0.000498	9
	20	57	2987.132	98.5125	-178.1635	1	203.5852	-61.06034	9.058639E-006	-0.0004408	9
	21	59	2390.625	103.5214	-217.5743	1	240.9466	-64.55499	1.055031E-005	3.02164E-005	9
	22	61	1884.191	109.94	-270.7858	1	292.2529	-67.90268	2.098604E-005	-0.0004086	9
	23	63	1516.544	117.924	-329.6507	1	350.108	-70.31664	-1.568536E-005	0.0006589	9
	24	66	1193.986	129.1297	-410.7895	1	430.6071	-72.54971	1.989013E-005	-0.0003713	9
	25	68	946.5144	142.1919	-505.7351	1	525.3442	-74.2962	3.094229E-006	-0.000547	8
	26	71	751.7689	158.3071	-625.4288	1	645.1529	-75.79575	-3.144209E-006	0.0018672	8
	27	73	597.4265	178.5557	-772.1279	1	792.5047	-76.97916	3.337585E-006	0.0002524	8
	28	75	477.4305	204.1895	-949.9396	1	971.637	-77.86886	2.944179E-007	0.000658	8
	29	78	376.6741	238.489	-1180.875	1	1204.717	-78.58215	2.931951E-007	0.0006574	8
	30	80	298.2954	281.5087	-1462.441	1	1489.289	-79.10427	2.929431E-007	0.000656	8
	31	82	237.7717	334.805	-1799.472	1	1830.354	-79.46021	3.02185E-007	0.0006534	8
	32	85	189.0121	403.3418	-2219.072	1	2255.43	-79.6983	2.922229E-007	0.0006589	8
	33	87	150.2404	490.6279	-2735.005	1	2778.663	-79.82998	2.844405E-007	0.0006628	8
	34	89	119.1737	604.0293	-3376.935	1	3430.531	-79.8588	3.067967E-007	0.0006571	8
	35	92	95.0169	746.0594	-4146.669	1	4213.249	-79.80059	2.984769E-007	0.0006587	8
	36	94	75.60484	933.835	-5109.322	1	5193.959	-79.64233	-1.066788E-007	0.0006322	7
	37	97	54.50582	1300.474	-6856.439	1	6978.682	-79.26017	-1.056575E-007	0.0006328	7
	38	99	45.95588	1555.076	-7993.365	1	8143.227	-78.99086	-9.696042E-008	0.0006304	7
	39	102	37.20238	1958.133	-9659.87	1	9856.33	-78.54095	-1.028028E-007	0.0006402	7
	40	104	30.04808	2476.431	-11668.82	1	11928.71	-78.0181	-1.055945E-007	0.0006418	7
	41	106	23.91582	3217.446	-14256.25	1	14614.81	-77.28217	-1.035652E-007	0.0006327	7
	42	111	18.60119	4320.513	-17732	1	18250.77	-76.30635	-9.651337E-008	0.0006371	7
	43	113	15.02404	5565.144	-21316.17	1	22030.66	-75.36805	-9.791968E-008	0.0006207	7
	44	116	12.01923	7290.319	-25692.51	1	26706.81	-74.15857	-9.890542E-008	0.000624	7
	45	118	9.450605	9789.74	-31326.52	1	32820.57	-72.64565	-9.432112E-008	0.0006306	7
	46	121	7.512019	12922.67	-37582.59	1	39742.25	-71.0246	-9.761961E-008	0.0006449	7
	47	123	5.978954	17052.71	-44720.21	1	47861.18	-69.12715	-1.412829E-007	0.0006962	6
	48	126	4.734848	22511.48	-52992	1	57575.34	-66.98378	-1.396269E-007	0.0006764	6
	49	130	3.75601	29323.89	-62125.04	1	68697.97	-64.73203	-1.367421E-007	0.0007125	6
	50	135	3.004808	37440.21	-71674.34	1	80863.96	-62.41898	-1.362487E-007	0.0006926	6
	51	142	2.372217	47918.72	-82345.49	1	95273.2	-59.8039	-1.354093E-007	0.0006566	6
	52	146	1.878005	60211.36	-93573.24	1	111271.6	-57.24003	-1.337584E-007	0.0006747	6
	53	150	1.512097	73049.36	-104256.1	1	127301	-54.98213	-1.342133E-007	0.0007602	6
	54	156	1.201923	88677.05	-115903.2	1	145935.5	-52.58054	-1.330304E-007	0.0006869	6
	55	162	0.956633	105801.6	-127944.8	1	166023.7	-50.41159	-1.361649E-007	4.560882E-005	6
