EXPLAIN
TAG	EISPOT
TITLE	LABEL	Potentiostatic EIS	Test Identifier
DATE	LABEL	2/26/2021	Date
TIME	LABEL	16:17:20	Time
NOTES	NOTES	1	Notes...
	
PSTAT	PSTAT	REF3000-16137	Potentiostat
VDC	POTEN	0.00000E+000	T	DC Voltage (V)
FREQINIT	QUANT	3.00000E+005	Initial Freq. (Hz)
FREQFINAL	QUANT	1.00000E+000	Final Freq. (Hz)
PTSPERDEC	QUANT	1.00000E+001	Points/decade
VAC	QUANT	5.00000E+001	AC Voltage (mV rms)
AREA	QUANT	1.00000E+000	Sample Area (cm^2)
SPEED	SELECTOR	2	Optimize for:
ZGUESS	QUANT	1.00000E+003	Estimated Z (ohms)
EOC	QUANT	0	Open Circuit (V)
SEQUENCER	TOGGLE	TRUE	Run as Sequence
PSTATMODEL	IQUANT	5	Pstat Model
PSTATSECTION	LABEL	REF3000-16137	Pstat Section
PSTATSERIALNO	LABEL	16137	Pstat Serial Number
CTRLMODE	IQUANT	1	Control Mode
IESTAB	IQUANT	0	I/E Stability
CASPEED	IQUANT	1	Control Amp Speed
CONVENTION	IQUANT	1	Current Convention
ICHRANGE	IQUANT	2	Ich Range
ICHRANGEMODE	TOGGLE	F	Ich Auto Range
ICHOFFSETENABLE	TOGGLE	T	Ich Offset Enable
ICHOFFSET	QUANT	0	Ich Offset (V)
ICHFILTER	IQUANT	3	Ich Filter
VCHRANGE	IQUANT	2	Vch Range
VCHRANGEMODE	TOGGLE	F	Vch Auto Range
VCHOFFSETENABLE	TOGGLE	T	Vch Offset Enable
VCHOFFSET	QUANT	0	Vch Offset (V)
VCHFILTER	IQUANT	3	Vch Filter
ACHRANGE	IQUANT	2	Ach Range
ACHOFFSETENABLE	TOGGLE	F	Ach Offset Enable
ACHOFFSET	QUANT	0	Ach Offset (V)
ACHFILTER	IQUANT	3	Ach Filter
IERANGELOWERLIMIT	IQUANT	2	I/E Range Lower Limit
IERANGEMODE	TOGGLE	F	I/E AutoRange
IERANGE	IQUANT	11	I/E Range
POSFEEDENABLE	TOGGLE	F	Positive Feedback IR Comp
POSFEEDRESISTANCE	QUANT	0	Positive Feedback Resistance (ohm)
ACHSELECT	IQUANT	0	Ach Select
CABLEID	IQUANT	13	Cable ID
DCCALDATE	LABEL	7/31/2020	DC Calibration Date
ACCALDATE	LABEL	7/31/2020	AC Calibration Date
THERMOSELECT	IQUANT	1	Thermo Select
FRAMEWORKVERSION	QUANT	6.33	Framework Version
INSTRUMENTVERSION	LABEL	3.50	Instrument Version
COMPLIANCEVOLTAGE	IQUANT	0	Compliance Voltage
ZCURVE	TABLE
	Pt	Time	Freq	Zreal	Zimag	Zsig	Zmod	Zphz	Idc	Vdc	IERange
	#	s	Hz	ohm	ohm	V	ohm	°	A	V	#
	0	14	300046.9	-70.26531	-4849.341	1	4849.85	-90.83014	-6.156568E-005	0.0002989	9
	1	28	238359.4	-37.28991	-5961.367	1	5961.483	-90.3584	-9.313885E-005	0.0021762	9
	2	48	189328.1	406.8869	-6792.271	1	6804.447	-86.57183	-0.0001052	0.0037149	9
	3	57	150421.9	-499.5596	-9204.187	1	9217.733	-93.1067	2.39328E-005	-0.0013968	9
	4	66	119484.4	128.7361	-11839.34	1	11840.04	-89.37701	-2.725805E-005	-0.0009543	9
	5	74	94921.88	788.7234	-14473.92	1	14495.39	-86.88088	-2.383917E-005	0.0051997	8
	6	83	75421.88	768.3998	-18216.28	1	18232.48	-87.58458	2.7509E-005	-0.0073093	8
	7	91	59859.37	519.1874	-22970.08	1	22975.95	-88.70518	2.596527E-005	-0.0087468	8
	8	100	47578.12	4159.568	-30020.75	1	30307.54	-82.11153	-1.789152E-006	0.0221797	7
	9	107	37828.12	5349.394	-36839.03	1	37225.39	-81.73783	-3.396938E-006	-0.0051438	7
	10	115	30046.88	686.7108	-45738.36	1	45743.52	-89.13983	1.73445E-005	0.0003664	8
	11	123	23859.38	4619.192	-57847.28	1	58031.41	-85.43453	6.603245E-006	-0.0100962	7
	12	129	18984.38	5383.503	-72508.18	1	72707.76	-85.75376	-6.561573E-006	0.025915	7
	13	134	15046.87	5634.982	-90529.72	1	90704.92	-86.43825	4.942721E-006	-0.0005977	7
	14	139	11953.13	2235.972	-114049.8	1	114071.8	-88.87685	7.677296E-006	-0.0183126	7
	15	145	9515.62	6884.663	-139428.2	1	139598.1	-87.17316	-5.322057E-006	0.0036216	7
	16	151	7546.875	7561.023	-180581.5	1	180739.7	-87.6024	3.575416E-006	-0.0245715	7
	17	156	5928.309	11523.61	-228983.8	1	229273.6	-87.11902	6.603187E-006	-0.0099906	7
	18	163	4733.456	47853.48	-252429.6	1	256925.4	-79.26572	-3.761869E-006	0.0254624	7
	19	168	3796.875	29445.07	-329692.9	1	331005.2	-84.89642	1.180135E-006	-0.0194357	7
	20	174	2987.132	46461.84	-460389.7	1	462728.2	-84.2373	-6.475432E-007	0.0100898	6
	21	180	2390.625	62833.31	-566946.6	1	570417.8	-83.67586	-7.396329E-007	0.0178378	6
	22	185	1884.191	74369.02	-712081.9	1	715954.9	-84.03771	-4.838124E-008	-0.0150126	6
	23	190	1516.544	78099.39	-881794.3	1	885246.1	-84.93859	6.128131E-007	-0.0072179	6
	24	196	1193.986	79924.91	-1198461	1	1201123	-86.18462	5.971094E-007	-0.0277101	6
	25	202	946.5144	-347923.6	-719478.6	1	799187.3	-115.8074	-1.648243E-006	0.0217521	7
	26	208	751.7689	161461.7	-2054787	1	2061121	-85.50703	5.963503E-007	-0.0274771	6
	27	213	597.4265	721010.8	-2572468	1	2671600	-74.34289	4.006583E-007	-0.025689	6
	28	217	477.4305	306178	-2780606	1	2797412	-83.71636	-7.349679E-009	0.0006876	6
	29	222	376.6741	815181.4	-3583741	1	3675285	-77.18517	-8.9531E-010	0.0007039	5
	30	225	298.2954	999518	-4463391	1	4573937	-77.37761	-7.217272E-010	0.0006336	5
	31	230	237.7717	1351564	-5489329	1	5653270	-76.16796	-7.200217E-010	0.0006125	5
	32	234	189.0121	1736898	-6788026	1	7006719	-75.64729	-6.833232E-010	0.0006353	5
	33	238	150.2404	2487715	-8220528	1	8588702	-73.16302	-6.851232E-010	0.0006308	5
	34	241	119.1737	3716924	-8974812	1	9.71405E+006	-67.50308	-8.497812E-010	0.0007002	5
	35	244	95.0169	5067492	-1.245978E+007	1	1.345086E+007	-67.86803	-7.811292E-010	0.0006297	5
	36	247	75.60484	6891645	-1.322511E+007	1	1.491303E+007	-62.47585	-8.741295E-010	0.0007066	5
	37	249	54.50582	1.028997E+007	-1.739662E+007	1	2.021202E+007	-59.39601	-7.224129E-010	0.0006248	5
	38	253	45.95588	1.425902E+007	-1.939794E+007	1	2.407488E+007	-53.68118	-8.071393E-011	0.0006305	4
	39	255	37.20238	1.640767E+007	-2.646738E+007	1	3.114055E+007	-58.20439	-9.074091E-010	0.0006755	5
	40	259	30.04808	2.16768E+007	-2.397078E+007	1	3.231845E+007	-47.87694	-7.881567E-010	0.0007064	5
	41	263	23.91582	2.930559E+007	-2.252066E+007	1	3.69594E+007	-37.54143	-7.032445E-010	0.0006754	5
	42	267	18.60119	6.127818E+007	-3430443	1	6.137412E+007	-3.204158	3.354561E-010	0.0006929	4
	43	270	15.02404	3.94355E+007	-1.913069E+007	1	4.383084E+007	-25.87864	-4.515585E-011	0.000718	4
	44	274	12.01923	4.224647E+007	-1.895377E+007	1	4.630345E+007	-24.16327	-6.484113E-011	0.0007226	4
	45	278	9.450605	4.765582E+007	-1.587803E+007	1	5.023136E+007	-18.42711	-9.246984E-011	0.0007201	4
	46	282	7.512019	5.150001E+007	-1.432358E+007	1	5.34548E+007	-15.54272	-8.578767E-011	0.0006771	4
	47	286	5.978954	5.29733E+007	-1.665795E+007	1	5.553069E+007	-17.45625	-9.82866E-011	0.00071	4
	48	291	4.734848	5.585038E+007	-1.335372E+007	1	5.742462E+007	-13.44686	-6.289597E-011	0.0006732	4
	49	298	3.75601	6.133475E+007	-1.398399E+007	1	6.29087E+007	-12.84359	-4.589244E-011	0.0006955	4
	50	304	3.004808	6.288974E+007	-1.141935E+007	1	6.391808E+007	-10.29148	-7.918938E-011	0.0006704	4
	51	312	2.372217	7.041938E+007	-6727576	1	7.074002E+007	-5.457239	-1.109667E-011	0.0006596	3
	52	316	1.878005	7.283206E+007	-7162522	1	7.318341E+007	-5.616577	-2.619955E-012	0.000742	3
	53	322	1.512097	7.580134E+007	-7770849	1	7.619862E+007	-5.853285	2.854677E-012	0.0006808	3
	54	327	1.201923	7.913098E+007	-8592373	1	7.95961E+007	-6.197136	-3.668266E-012	0.0007624	3
	55	333	0.956633	8.341077E+007	-9.668048E+006	1	8.396921E+007	-6.611586	-2.226939E-011	9.407603E-005	3
