EXPLAIN
TAG	EISPOT
TITLE	LABEL	Potentiostatic EIS	Test Identifier
DATE	LABEL	2/26/2021	Date
TIME	LABEL	16:11:31	Time
NOTES	NOTES	1	Notes...
	
PSTAT	PSTAT	REF3000-16137	Potentiostat
VDC	POTEN	0.00000E+000	T	DC Voltage (V)
FREQINIT	QUANT	3.00000E+005	Initial Freq. (Hz)
FREQFINAL	QUANT	1.00000E+000	Final Freq. (Hz)
PTSPERDEC	QUANT	1.00000E+001	Points/decade
VAC	QUANT	5.00000E+001	AC Voltage (mV rms)
AREA	QUANT	1.00000E+000	Sample Area (cm^2)
SPEED	SELECTOR	2	Optimize for:
ZGUESS	QUANT	1.00000E+003	Estimated Z (ohms)
EOC	QUANT	0	Open Circuit (V)
SEQUENCER	TOGGLE	TRUE	Run as Sequence
PSTATMODEL	IQUANT	5	Pstat Model
PSTATSECTION	LABEL	REF3000-16137	Pstat Section
PSTATSERIALNO	LABEL	16137	Pstat Serial Number
CTRLMODE	IQUANT	1	Control Mode
IESTAB	IQUANT	0	I/E Stability
CASPEED	IQUANT	1	Control Amp Speed
CONVENTION	IQUANT	1	Current Convention
ICHRANGE	IQUANT	2	Ich Range
ICHRANGEMODE	TOGGLE	F	Ich Auto Range
ICHOFFSETENABLE	TOGGLE	T	Ich Offset Enable
ICHOFFSET	QUANT	0	Ich Offset (V)
ICHFILTER	IQUANT	3	Ich Filter
VCHRANGE	IQUANT	2	Vch Range
VCHRANGEMODE	TOGGLE	F	Vch Auto Range
VCHOFFSETENABLE	TOGGLE	T	Vch Offset Enable
VCHOFFSET	QUANT	0	Vch Offset (V)
VCHFILTER	IQUANT	3	Vch Filter
ACHRANGE	IQUANT	2	Ach Range
ACHOFFSETENABLE	TOGGLE	F	Ach Offset Enable
ACHOFFSET	QUANT	0	Ach Offset (V)
ACHFILTER	IQUANT	3	Ach Filter
IERANGELOWERLIMIT	IQUANT	2	I/E Range Lower Limit
IERANGEMODE	TOGGLE	F	I/E AutoRange
IERANGE	IQUANT	11	I/E Range
POSFEEDENABLE	TOGGLE	F	Positive Feedback IR Comp
POSFEEDRESISTANCE	QUANT	0	Positive Feedback Resistance (ohm)
ACHSELECT	IQUANT	0	Ach Select
CABLEID	IQUANT	13	Cable ID
DCCALDATE	LABEL	7/31/2020	DC Calibration Date
ACCALDATE	LABEL	7/31/2020	AC Calibration Date
THERMOSELECT	IQUANT	1	Thermo Select
FRAMEWORKVERSION	QUANT	6.33	Framework Version
INSTRUMENTVERSION	LABEL	3.50	Instrument Version
COMPLIANCEVOLTAGE	IQUANT	0	Compliance Voltage
ZCURVE	TABLE
	Pt	Time	Freq	Zreal	Zimag	Zsig	Zmod	Zphz	Idc	Vdc	IERange
	#	s	Hz	ohm	ohm	V	ohm	°	A	V	#
	0	14	300046.9	-55.58529	-4862.808	1	4863.126	-90.6549	4.646552E-005	7.13729E-005	9
	1	29	238359.4	31.13693	-6014.973	1	6015.054	-89.70341	8.466453E-005	-0.0034718	9
	2	44	189328.1	131.2965	-7421.574	1	7422.735	-88.98647	4.849122E-005	0.0002312	9
	3	53	150421.9	-340.3428	-10294.71	1	10300.33	-91.89351	7.809345E-005	-0.0015328	9
	4	63	119484.4	478.8306	-11668.32	1	11678.14	-87.65009	6.819807E-005	-0.0261698	8
	5	72	94921.88	639.9261	-14479.59	1	14493.72	-87.46946	2.624246E-005	-0.0088515	8
	6	80	75421.88	650.35	-17940.16	1	17951.94	-87.92387	-1.203362E-005	0.0102849	8
	7	89	59859.37	551.3721	-23041.37	1	23047.97	-88.6292	2.632174E-005	-0.0089487	8
	8	97	47578.12	4177.258	-29995.56	1	30285.03	-82.07184	4.91268E-006	-0.0005931	7
	9	104	37828.12	4190.746	-36824.48	1	37062.17	-83.50748	-5.30429E-006	0.0265171	7
	10	112	30046.88	659.7828	-44192.03	1	44196.95	-89.14465	-1.196103E-005	0.0102381	8
	11	120	23859.38	5352.24	-57323.09	1	57572.42	-84.66578	6.924384E-006	-0.0270744	7
	12	125	18984.38	4216.27	-71348.58	1	71473.05	-86.6181	-5.510021E-006	0.0041199	7
	13	131	15046.87	-1260.416	-85459.17	1	85468.47	-90.84498	2.732655E-005	-0.0072451	8
	14	139	11953.13	1411.133	-106932.6	1	106941.9	-89.24394	7.95389E-006	-0.0075076	8
	15	146	9515.62	5850.416	-138378.8	1	138502.4	-87.57907	4.896682E-006	-0.0005855	7
	16	151	7546.875	9924.26	-180620.4	1	180892.8	-86.85503	5.824563E-007	0.0159111	7
	17	157	5928.309	-680.0583	-225038	1	225039	-90.17315	-6.538319E-006	0.0259202	7
	18	162	4733.456	-123508.1	-267778.3	1	294888.9	-114.7607	2.611094E-005	-0.0050536	8
	19	171	3796.875	25474.85	-314600.5	1	315630.2	-85.37056	-2.027382E-005	0.0028362	8
	20	179	2987.132	63883.31	-446954.3	1	451496.6	-81.86579	-5.318362E-006	0.0035992	7
	21	187	2390.625	-254098.3	-280347.8	1	378366	-132.1882	2.313428E-005	-0.0026447	8
	22	195	1884.191	1129374	-148543	1	1139100	-7.492923	-1.585761E-005	0.0006719	8
	23	203	1516.544	15890.92	-839539.3	1	839689.7	-88.91563	3.527865E-006	-0.0246006	7
	24	212	1193.986	-194951.7	-1340870	1	1354969	-98.2724	-5.339073E-006	0.0265852	7
	25	219	946.5144	581344.1	-821191.9	1	1006140	-54.70428	5.041275E-006	-0.0007311	7
	26	224	751.7689	-845744.1	-460713.6	1	963089	-151.4209	-1.730282E-006	0.0217878	7
	27	229	597.4265	765952.4	-2215784	1	2344437	-70.93076	6.132422E-007	-0.028068	6
	28	234	477.4305	728323	-2612238	1	2711870	-74.4209	-7.140778E-009	0.0007242	6
	29	239	376.6741	1113841	-3172658	1	3362499	-70.65511	-6.196931E-009	0.0006425	6
	30	243	298.2954	1599007	-3765033	1	4090513	-66.98911	-6.438163E-009	0.0006244	6
	31	247	237.7717	2674590	-4323085	1	5083552	-58.25591	-6.382723E-010	0.0006103	5
	32	251	189.0121	3522724	-4783775	1	5940883	-53.63243	-6.273413E-010	0.0006153	5
	33	255	150.2404	4459276	-5160151	1	6819993	-49.16722	-7.337781E-010	0.0006172	5
	34	259	119.1737	5157280	-5456313	1	7507922	-46.61386	-7.938774E-010	0.0006143	5
	35	263	95.0169	7037632	-5195294	1	8747533	-36.43534	-6.474592E-010	0.0006114	5
	36	266	75.60484	7535743	-5210985	1	9161975	-34.66396	-6.525669E-010	0.0006193	5
	37	270	54.50582	9446436	-4254670	1	1.036038E+007	-24.24677	-8.07113E-010	0.0006589	5
	38	274	45.95588	1.056939E+007	-2156049	1	1.078706E+007	-11.52957	-1.546743E-010	0.0007074	4
	39	276	37.20238	1.079693E+007	-2686399	1	1.112611E+007	-13.97213	-7.772155E-011	0.0006621	4
	40	279	30.04808	1.091089E+007	-1915211	1	1.107771E+007	-9.95582	-6.119847E-011	0.0006241	4
	41	282	23.91582	1.062182E+007	-1417509	1	1.071598E+007	-7.60136	-1.814267E-010	0.0006797	4
	42	284	18.60119	1.206628E+007	-2911373	1	1.241254E+007	-13.56515	-4.835345E-010	0.0006643	4
	43	287	15.02404	1.112192E+007	-1329817	1	1.120114E+007	-6.818328	-1.53398E-010	0.0007036	4
	44	289	12.01923	1.114516E+007	-1365418	1	1.122848E+007	-6.984628	-1.407682E-010	0.0007061	4
	45	292	9.450605	1.126483E+007	-1309592	1	1.13407E+007	-6.631149	-4.638602E-011	0.0007178	4
	46	295	7.512019	1.129735E+007	-1345623	1	1.13772E+007	-6.792476	-8.635254E-011	0.0006456	4
	47	298	5.978954	1.135099E+007	-1413371	1	1.143865E+007	-7.097664	-8.666775E-011	0.0006216	4
	48	302	4.734848	1.147524E+007	-1639024	1	1.15917E+007	-8.128654	-8.740146E-011	0.0007135	4
	49	307	3.75601	1.157924E+007	-1782003	1	1.171556E+007	-8.748978	-1.011672E-010	0.0006096	4
	50	312	3.004808	1.180439E+007	-1979675	1	1.196924E+007	-9.52029	-1.045956E-010	0.0006306	4
	51	319	2.372217	1.197792E+007	-2346630	1	1.220562E+007	-11.08459	-1.217358E-010	0.0007093	4
	52	323	1.878005	1.221232E+007	-2712413	1	1.250992E+007	-12.52238	-1.367635E-010	0.0006521	4
	53	328	1.512097	1.247148E+007	-3101763	1	1.285141E+007	-13.96658	-1.331946E-010	0.0006355	4
	54	333	1.201923	1.278235E+007	-3602728	1	1.328036E+007	-15.74059	-1.1232E-010	0.0006439	4
	55	340	0.956633	1.320286E+007	-4141801	1	1.383727E+007	-17.4169	-1.479544E-010	2.546308E-005	4
