EXPLAIN
TAG	EISPOT
TITLE	LABEL	Potentiostatic EIS	Test Identifier
DATE	LABEL	2/26/2021	Date
TIME	LABEL	14:40:32	Time
NOTES	NOTES	1	Notes...
	
PSTAT	PSTAT	REF3000-16137	Potentiostat
VDC	POTEN	0.00000E+000	T	DC Voltage (V)
FREQINIT	QUANT	3.00000E+005	Initial Freq. (Hz)
FREQFINAL	QUANT	1.00000E+000	Final Freq. (Hz)
PTSPERDEC	QUANT	1.00000E+001	Points/decade
VAC	QUANT	5.00000E+001	AC Voltage (mV rms)
AREA	QUANT	1.00000E+000	Sample Area (cm^2)
SPEED	SELECTOR	2	Optimize for:
ZGUESS	QUANT	1.00000E+003	Estimated Z (ohms)
EOC	QUANT	0	Open Circuit (V)
SEQUENCER	TOGGLE	TRUE	Run as Sequence
PSTATMODEL	IQUANT	5	Pstat Model
PSTATSECTION	LABEL	REF3000-16137	Pstat Section
PSTATSERIALNO	LABEL	16137	Pstat Serial Number
CTRLMODE	IQUANT	1	Control Mode
IESTAB	IQUANT	0	I/E Stability
CASPEED	IQUANT	1	Control Amp Speed
CONVENTION	IQUANT	1	Current Convention
ICHRANGE	IQUANT	2	Ich Range
ICHRANGEMODE	TOGGLE	F	Ich Auto Range
ICHOFFSETENABLE	TOGGLE	T	Ich Offset Enable
ICHOFFSET	QUANT	0	Ich Offset (V)
ICHFILTER	IQUANT	3	Ich Filter
VCHRANGE	IQUANT	2	Vch Range
VCHRANGEMODE	TOGGLE	F	Vch Auto Range
VCHOFFSETENABLE	TOGGLE	T	Vch Offset Enable
VCHOFFSET	QUANT	0	Vch Offset (V)
VCHFILTER	IQUANT	3	Vch Filter
ACHRANGE	IQUANT	2	Ach Range
ACHOFFSETENABLE	TOGGLE	F	Ach Offset Enable
ACHOFFSET	QUANT	0	Ach Offset (V)
ACHFILTER	IQUANT	3	Ach Filter
IERANGELOWERLIMIT	IQUANT	2	I/E Range Lower Limit
IERANGEMODE	TOGGLE	F	I/E AutoRange
IERANGE	IQUANT	11	I/E Range
POSFEEDENABLE	TOGGLE	F	Positive Feedback IR Comp
POSFEEDRESISTANCE	QUANT	0	Positive Feedback Resistance (ohm)
ACHSELECT	IQUANT	0	Ach Select
CABLEID	IQUANT	13	Cable ID
DCCALDATE	LABEL	7/31/2020	DC Calibration Date
ACCALDATE	LABEL	7/31/2020	AC Calibration Date
THERMOSELECT	IQUANT	1	Thermo Select
FRAMEWORKVERSION	QUANT	6.33	Framework Version
INSTRUMENTVERSION	LABEL	3.50	Instrument Version
COMPLIANCEVOLTAGE	IQUANT	0	Compliance Voltage
ZCURVE	TABLE
	Pt	Time	Freq	Zreal	Zimag	Zsig	Zmod	Zphz	Idc	Vdc	IERange
	#	s	Hz	ohm	ohm	V	ohm	°	A	V	#
	0	8	300046.9	180.0623	-12.98956	1	180.5302	-4.126128	5.461359E-005	-0.0004077	9
	1	11	238359.4	181.81	-15.20801	1	182.4449	-4.781537	-1.007724E-005	0.001275	9
	2	14	189328.1	183.229	-17.54196	1	184.0668	-5.468711	1.740519E-005	-0.0012896	9
	3	17	150421.9	185.1362	-20.99762	1	186.3231	-6.470675	-1.513677E-005	0.0010365	9
	4	19	119484.4	187.5757	-23.72511	1	189.0701	-7.208655	7.71038E-005	-0.0022847	9
	5	22	94921.88	190.172	-27.88369	1	192.2053	-8.341473	-8.490797E-006	0.0008009	9
	6	24	75421.88	193.1806	-32.8349	1	195.9512	-9.64637	2.133752E-005	-0.0008129	9
	7	27	59859.37	196.8285	-38.5027	1	200.559	-11.06818	6.974943E-006	-0.000572	9
	8	29	47578.12	200.9793	-45.0915	1	205.9755	-12.64542	2.41644E-005	-0.0002299	9
	9	32	37828.12	206.0501	-52.59687	1	212.6572	-14.31967	-2.089564E-005	0.0005209	9
	10	34	30046.88	212.042	-61.84413	1	220.8767	-16.25984	-8.415761E-006	-0.0001026	9
	11	37	23859.38	218.8024	-71.71499	1	230.2554	-18.14714	2.63131E-005	-0.0005958	9
	12	39	18984.38	226.8172	-82.95267	1	241.5102	-20.08872	-2.109836E-005	0.0005353	9
	13	42	15046.87	236.4335	-95.5087	1	254.9955	-21.99653	6.746404E-006	-0.0005645	9
	14	45	11953.13	247.0344	-110.8473	1	270.7639	-24.16635	2.608426E-005	-0.0006171	9
	15	47	9515.62	258.7489	-126.5102	1	288.0205	-26.05541	-1.493906E-005	0.000984	9
	16	50	7546.875	270.7383	-144.9095	1	307.0798	-28.15739	-2.196305E-005	0.0008888	9
	17	52	5928.309	284.5399	-167.8616	1	330.3642	-30.53808	2.136069E-005	-0.0007963	9
	18	54	4733.456	297.2395	-192.5802	1	354.1729	-32.93903	2.495009E-005	-0.0007171	9
	19	57	3796.875	308.8491	-222.6381	1	380.7302	-35.78646	2.327987E-005	-0.0002526	9
	20	59	2987.132	321.2677	-263.7547	1	415.6675	-39.38535	-2.288484E-005	0.0006974	9
	21	62	2390.625	331.2083	-309.5121	1	453.3174	-43.06058	-2.187367E-006	0.0035286	8
	22	64	1884.191	343.0157	-374.0757	1	507.5356	-47.48015	4.592188E-006	0.0012816	8
	23	66	1516.544	354.3619	-448.298	1	571.4398	-51.67502	1.677468E-006	-0.0018049	8
	24	68	1193.986	368.1844	-550.6816	1	662.4274	-56.2334	1.251029E-006	0.0025184	8
	25	71	946.5144	383.1221	-675.9971	1	777.0165	-60.45755	-1.923766E-006	-0.000778	8
	26	73	751.7689	401.5781	-832.259	1	924.0779	-64.24196	-7.335278E-006	0.0015068	8
	27	76	597.4265	421.8175	-1026.918	1	1110.176	-67.66908	9.26382E-007	0.0025949	8
	28	78	477.4305	445.5947	-1264.82	1	1341.016	-70.5927	1.511925E-007	0.0006557	8
	29	80	376.6741	476.9588	-1576.698	1	1647.26	-73.16917	1.558535E-007	0.0006545	8
	30	83	298.2954	514.9673	-1960.918	1	2027.41	-75.28551	1.331725E-007	0.0006646	8
	31	85	237.7717	560.8801	-2425.306	1	2489.316	-76.9786	1.357023E-007	0.0006625	8
	32	87	189.0121	618.6547	-3009.439	1	3072.37	-78.38346	1.378639E-007	0.0006591	8
	33	90	150.2404	691.0646	-3734.972	1	3798.366	-79.51738	1.29E-007	0.0006668	8
	34	92	119.1737	786.3309	-4655.123	1	4721.068	-80.41225	-1.410253E-009	0.000626	7
	35	94	95.0169	900.8019	-5761.574	1	5831.568	-81.11395	-1.65412E-009	0.0006352	7
	36	97	75.60484	1047.288	-7145.443	1	7221.785	-81.66169	-5.328919E-009	0.0006407	7
	37	99	54.50582	1330.861	-9728.5	1	9819.11	-82.21027	-4.283475E-009	0.0006276	7
	38	102	45.95588	1525.817	-11420.2	1	11521.67	-82.38996	-2.828632E-009	0.0006469	7
	39	104	37.20238	1827.844	-13939.92	1	14059.25	-82.52982	-9.756255E-010	0.0006265	7
	40	107	30.04808	2212.109	-17030.34	1	17173.41	-82.59916	-4.190934E-009	0.0006326	7
	41	109	23.91582	2757.611	-21087.45	1	21266.99	-82.54969	-5.48655E-009	0.0006396	7
	42	111	18.60119	3582.761	-26701.29	1	26940.59	-82.35773	-1.025476E-009	0.0006204	7
	43	114	15.02404	4470.902	-32609.94	1	32915	-82.19328	-1.39214E-009	0.0006262	7
	44	116	12.01923	5753.841	-40164.48	1	40574.53	-81.84745	-2.895054E-009	0.0006418	7
	45	118	9.450605	7640.646	-50200.93	1	50779.06	-81.34592	-9.687002E-009	0.0006591	6
	46	121	7.512019	10168.2	-61997.45	1	62825.75	-80.68584	-9.491692E-009	0.0006938	6
	47	124	5.978954	13566.05	-76390.51	1	77585.74	-79.92993	-1.000366E-008	0.0006737	6
	48	128	4.734848	18399.49	-94349.45	1	96126.8	-78.965	-9.224117E-009	0.000711	6
	49	132	3.75601	25021.6	-116021.5	1	118688.9	-77.82979	-9.988305E-009	0.0006596	6
	50	137	3.004808	33722.84	-141040.8	1	145016.4	-76.55304	-9.473753E-009	0.0006751	6
	51	143	2.372217	46522.91	-172425.4	1	178591.4	-74.90031	-1.009424E-008	0.0006957	6
	52	148	1.878005	63958.08	-209573.9	1	219116.1	-73.02879	-1.043636E-008	0.0006806	6
	53	152	1.512097	84918.18	-248958.2	1	263042.4	-71.16579	-9.85955E-009	0.0005846	6
	54	158	1.201923	114685.6	-296338.6	1	317756.8	-68.84312	-1.011142E-008	0.0006929	6
	55	164	0.956633	151931.3	-348764	1	380420.1	-66.46072	-1.039225E-008	3.827229E-005	6
