EXPLAIN
TAG	EISPOT
TITLE	LABEL	Potentiostatic EIS	Test Identifier
DATE	LABEL	2/26/2021	Date
TIME	LABEL	14:26:13	Time
NOTES	NOTES	1	Notes...
	
PSTAT	PSTAT	REF3000-16137	Potentiostat
VDC	POTEN	0.00000E+000	T	DC Voltage (V)
FREQINIT	QUANT	3.00000E+005	Initial Freq. (Hz)
FREQFINAL	QUANT	1.00000E+000	Final Freq. (Hz)
PTSPERDEC	QUANT	1.00000E+001	Points/decade
VAC	QUANT	5.00000E+001	AC Voltage (mV rms)
AREA	QUANT	1.00000E+000	Sample Area (cm^2)
SPEED	SELECTOR	2	Optimize for:
ZGUESS	QUANT	1.00000E+003	Estimated Z (ohms)
EOC	QUANT	0	Open Circuit (V)
SEQUENCER	TOGGLE	TRUE	Run as Sequence
PSTATMODEL	IQUANT	5	Pstat Model
PSTATSECTION	LABEL	REF3000-16137	Pstat Section
PSTATSERIALNO	LABEL	16137	Pstat Serial Number
CTRLMODE	IQUANT	1	Control Mode
IESTAB	IQUANT	0	I/E Stability
CASPEED	IQUANT	1	Control Amp Speed
CONVENTION	IQUANT	1	Current Convention
ICHRANGE	IQUANT	2	Ich Range
ICHRANGEMODE	TOGGLE	F	Ich Auto Range
ICHOFFSETENABLE	TOGGLE	T	Ich Offset Enable
ICHOFFSET	QUANT	0	Ich Offset (V)
ICHFILTER	IQUANT	3	Ich Filter
VCHRANGE	IQUANT	2	Vch Range
VCHRANGEMODE	TOGGLE	F	Vch Auto Range
VCHOFFSETENABLE	TOGGLE	T	Vch Offset Enable
VCHOFFSET	QUANT	0	Vch Offset (V)
VCHFILTER	IQUANT	3	Vch Filter
ACHRANGE	IQUANT	2	Ach Range
ACHOFFSETENABLE	TOGGLE	F	Ach Offset Enable
ACHOFFSET	QUANT	0	Ach Offset (V)
ACHFILTER	IQUANT	3	Ach Filter
IERANGELOWERLIMIT	IQUANT	2	I/E Range Lower Limit
IERANGEMODE	TOGGLE	F	I/E AutoRange
IERANGE	IQUANT	11	I/E Range
POSFEEDENABLE	TOGGLE	F	Positive Feedback IR Comp
POSFEEDRESISTANCE	QUANT	0	Positive Feedback Resistance (ohm)
ACHSELECT	IQUANT	0	Ach Select
CABLEID	IQUANT	13	Cable ID
DCCALDATE	LABEL	7/31/2020	DC Calibration Date
ACCALDATE	LABEL	7/31/2020	AC Calibration Date
THERMOSELECT	IQUANT	1	Thermo Select
FRAMEWORKVERSION	QUANT	6.33	Framework Version
INSTRUMENTVERSION	LABEL	3.50	Instrument Version
COMPLIANCEVOLTAGE	IQUANT	0	Compliance Voltage
ZCURVE	TABLE
	Pt	Time	Freq	Zreal	Zimag	Zsig	Zmod	Zphz	Idc	Vdc	IERange
	#	s	Hz	ohm	ohm	V	ohm	°	A	V	#
	0	7	300046.9	89.26936	-6.726167	1	89.52239	-4.308916	6.394383E-005	-0.001928	9
	1	10	238359.4	90.35625	-8.882174	1	90.79177	-5.614236	2.672488E-005	-4.190906E-007	9
	2	13	189328.1	91.28749	-10.65676	1	91.90741	-6.658482	1.108102E-005	-0.0015545	9
	3	16	150421.9	92.95627	-13.76314	1	93.96964	-8.42205	6.733039E-005	-0.0021609	9
	4	18	119484.4	94.51109	-16.66467	1	95.969	-9.99989	-1.714653E-006	0.0010265	9
	5	21	94921.88	96.3766	-19.70957	1	98.3713	-11.55795	1.087982E-005	0.0001056	9
	6	23	75421.88	98.4979	-23.49715	1	101.2618	-13.41741	3.784108E-006	0.0004455	9
	7	26	59859.37	101.1486	-27.87164	1	104.9184	-15.40562	-2.764424E-006	-0.0002413	9
	8	28	47578.12	104.3203	-32.66287	1	109.3142	-17.38543	2.849262E-006	0.0004095	9
	9	31	37828.12	107.958	-38.00209	1	114.4513	-19.39248	-1.625364E-005	0.0003642	9
	10	33	30046.88	112.2129	-44.23883	1	120.6185	-21.51634	1.756135E-005	-0.0006345	9
	11	36	23859.38	117.0122	-50.89464	1	127.6014	-23.5067	6.042477E-006	-0.0004781	9
	12	38	18984.38	122.3446	-58.50084	1	135.6117	-25.55548	-1.039048E-005	6.077052E-005	9
	13	40	15046.87	128.1334	-67.49287	1	144.8221	-27.77753	-1.794925E-005	0.0008104	9
	14	43	11953.13	134.0925	-77.46025	1	154.8577	-30.01342	1.086584E-005	0.0001503	9
	15	45	9515.62	139.8108	-89.11247	1	165.7953	-32.51258	-5.515958E-006	0.0006639	9
	16	47	7546.875	145.5485	-103.6379	1	178.6761	-35.45279	2.241115E-005	-0.0004402	9
	17	50	5928.309	151.4372	-122.4966	1	194.7785	-38.96917	-1.976652E-005	0.0007849	9
	18	52	4733.456	156.8817	-145.108	1	213.7012	-42.76734	-9.394235E-006	1.449009E-005	9
	19	54	3796.875	161.1989	-172.9992	1	236.461	-47.02224	4.960924E-006	-0.0004484	9
	20	56	2987.132	167.7574	-210.7508	1	269.3667	-51.48025	1.886122E-005	-0.0001208	9
	21	59	2390.625	173.9918	-254.5437	1	308.3272	-55.64567	-1.292324E-005	0.0000968	9
	22	61	1884.191	182.1546	-315.1528	1	364.0077	-59.9726	-1.191191E-005	0.000826	9
	23	63	1516.544	189.3766	-382.9477	1	427.2148	-63.68653	1.863926E-005	-0.0006821	9
	24	66	1193.986	198.9842	-474.4069	1	514.4479	-67.24498	-1.097228E-006	0.0022239	8
	25	68	946.5144	211.0057	-587.257	1	624.0146	-70.23627	1.056479E-006	0.0016034	8
	26	70	751.7689	225.9657	-726.9606	1	761.2701	-72.73286	6.794038E-006	-0.0010543	8
	27	73	597.4265	244.3408	-901.0497	1	933.5914	-74.82777	5.079204E-006	6.615881E-005	8
	28	75	477.4305	267.1569	-1110.047	1	1141.743	-76.46787	2.592567E-007	0.0006609	8
	29	77	376.6741	297.3139	-1385.505	1	1417.047	-77.88864	2.790816E-007	0.0006484	8
	30	80	298.2954	335.0352	-1723.697	1	1755.955	-79.00056	2.559235E-007	0.0006636	8
	31	82	237.7717	381.6765	-2131.104	1	2165.013	-79.84609	2.63287E-007	0.0006589	8
	32	84	189.0121	441.6822	-2641.716	1	2678.385	-80.50822	2.723808E-007	0.0006634	8
	33	87	150.2404	518.5693	-3274.36	1	3315.169	-81.00066	2.718064E-007	0.0006698	8
	34	89	119.1737	618.6688	-4066.091	1	4112.888	-81.34862	2.645266E-007	0.0006684	8
	35	92	95.0169	746.3622	-5031.889	1	5086.94	-81.56303	-1.820751E-008	0.0006374	7
	36	94	75.60484	910.5399	-6225.972	1	6292.202	-81.67956	-1.813648E-008	0.0006328	7
	37	97	54.50582	1234.965	-8440.229	1	8530.101	-81.67562	-1.960446E-008	0.0006349	7
	38	99	45.95588	1463.769	-9887.3	1	9995.06	-81.57879	-1.642299E-008	0.0006413	7
	39	101	37.20238	1818.136	-12018.3	1	12155.04	-81.39748	-1.927123E-008	0.0006525	7
	40	104	30.04808	2280.553	-14621.56	1	14798.34	-81.1349	-1.80339E-008	0.0006389	7
	41	106	23.91582	2939.772	-18024.53	1	18262.69	-80.73671	-1.859173E-008	0.0006282	7
	42	109	18.60119	3918.151	-22679.96	1	23015.92	-80.19843	-1.594397E-008	0.0006335	7
	43	111	15.02404	5054.814	-27534.85	1	27994.98	-79.59753	-1.63177E-008	0.0006237	7
	44	113	12.01923	6647.562	-33654.8	1	34305.04	-78.82665	-1.544281E-008	0.00065	7
	45	116	9.450605	9026.549	-41688.3	1	42654.34	-77.78265	-1.513967E-008	0.0006311	7
	46	118	7.512019	12047.93	-50917.84	1	52323.8	-76.68778	-4.10562E-008	0.0006977	6
	47	121	5.978954	16151.96	-61936.86	1	64008.29	-75.38388	-4.21012E-008	0.0006822	6
	48	125	4.734848	21901.78	-75268.83	1	78390.59	-73.77602	-4.010506E-008	0.0007056	6
	49	128	3.75601	29511.06	-90816.45	1	95491	-71.99828	-4.161808E-008	0.0006676	6
	50	133	3.004808	39138.95	-108038.1	1	114909.1	-70.08607	-4.072775E-008	0.0006925	6
	51	140	2.372217	52550.05	-128593.3	1	138916.3	-67.77247	-4.141934E-008	0.0007034	6
	52	144	1.878005	69823.98	-151446.2	1	166767.3	-65.24802	-4.154598E-008	0.000686	6
	53	149	1.512097	89337.72	-174152.7	1	195730.5	-62.84286	-4.048329E-008	0.0005851	6
	54	154	1.201923	114762.2	-199545.3	1	230192.7	-60.09599	-4.012483E-008	0.0006604	6
	55	160	0.956633	144272.1	-225655.9	1	267833.9	-57.40737	-4.078675E-008	4.300632E-005	6
