EXPLAIN
TAG	EISPOT
TITLE	LABEL	Potentiostatic EIS	Test Identifier
DATE	LABEL	2/26/2021	Date
TIME	LABEL	16:29:24	Time
NOTES	NOTES	1	Notes...
	
PSTAT	PSTAT	REF3000-16137	Potentiostat
VDC	POTEN	0.00000E+000	T	DC Voltage (V)
FREQINIT	QUANT	3.00000E+005	Initial Freq. (Hz)
FREQFINAL	QUANT	1.00000E+000	Final Freq. (Hz)
PTSPERDEC	QUANT	1.00000E+001	Points/decade
VAC	QUANT	5.00000E+001	AC Voltage (mV rms)
AREA	QUANT	1.00000E+000	Sample Area (cm^2)
SPEED	SELECTOR	2	Optimize for:
ZGUESS	QUANT	1.00000E+003	Estimated Z (ohms)
EOC	QUANT	0	Open Circuit (V)
SEQUENCER	TOGGLE	TRUE	Run as Sequence
PSTATMODEL	IQUANT	5	Pstat Model
PSTATSECTION	LABEL	REF3000-16137	Pstat Section
PSTATSERIALNO	LABEL	16137	Pstat Serial Number
CTRLMODE	IQUANT	1	Control Mode
IESTAB	IQUANT	0	I/E Stability
CASPEED	IQUANT	1	Control Amp Speed
CONVENTION	IQUANT	1	Current Convention
ICHRANGE	IQUANT	2	Ich Range
ICHRANGEMODE	TOGGLE	F	Ich Auto Range
ICHOFFSETENABLE	TOGGLE	T	Ich Offset Enable
ICHOFFSET	QUANT	0	Ich Offset (V)
ICHFILTER	IQUANT	3	Ich Filter
VCHRANGE	IQUANT	2	Vch Range
VCHRANGEMODE	TOGGLE	F	Vch Auto Range
VCHOFFSETENABLE	TOGGLE	T	Vch Offset Enable
VCHOFFSET	QUANT	0	Vch Offset (V)
VCHFILTER	IQUANT	3	Vch Filter
ACHRANGE	IQUANT	2	Ach Range
ACHOFFSETENABLE	TOGGLE	F	Ach Offset Enable
ACHOFFSET	QUANT	0	Ach Offset (V)
ACHFILTER	IQUANT	3	Ach Filter
IERANGELOWERLIMIT	IQUANT	2	I/E Range Lower Limit
IERANGEMODE	TOGGLE	F	I/E AutoRange
IERANGE	IQUANT	11	I/E Range
POSFEEDENABLE	TOGGLE	F	Positive Feedback IR Comp
POSFEEDRESISTANCE	QUANT	0	Positive Feedback Resistance (ohm)
ACHSELECT	IQUANT	0	Ach Select
CABLEID	IQUANT	13	Cable ID
DCCALDATE	LABEL	7/31/2020	DC Calibration Date
ACCALDATE	LABEL	7/31/2020	AC Calibration Date
THERMOSELECT	IQUANT	1	Thermo Select
FRAMEWORKVERSION	QUANT	6.33	Framework Version
INSTRUMENTVERSION	LABEL	3.50	Instrument Version
COMPLIANCEVOLTAGE	IQUANT	0	Compliance Voltage
ZCURVE	TABLE
	Pt	Time	Freq	Zreal	Zimag	Zsig	Zmod	Zphz	Idc	Vdc	IERange
	#	s	Hz	ohm	ohm	V	ohm	°	A	V	#
	0	14	300046.9	-79.84966	-4827.137	1	4827.797	-90.94769	8.964833E-005	-0.0026445	9
	1	28	238359.4	54.98029	-5990.677	1	5990.93	-89.47417	2.252875E-005	-0.0004372	9
	2	45	189328.1	-427.1863	-7854.956	1	7866.563	-93.11292	1.874555E-005	-0.0020693	9
	3	52	150421.9	210.8556	-8253.073	1	8255.767	-88.53648	2.082751E-005	-0.000333	9
	4	60	119484.4	139.2263	-11508.42	1	11509.26	-89.30688	-1.424104E-005	0.001805	9
	5	72	94921.88	397.8972	-14481.31	1	14486.77	-88.4261	2.266669E-005	-0.0095843	8
	6	79	75421.88	739.926	-18361.69	1	18376.59	-87.69238	2.276698E-005	-0.0096473	8
	7	88	59859.37	551.9247	-22926.9	1	22933.54	-88.62097	2.613537E-005	-0.0050274	8
	8	96	47578.12	4135.556	-30441.84	1	30721.47	-82.26367	1.322311E-006	-0.0200412	7
	9	104	37828.12	-821.5157	-36447.71	1	36456.97	-91.29121	-1.884712E-005	0.0002472	9
	10	112	30046.88	833.4876	-45036.02	1	45043.73	-88.93974	-1.202406E-005	0.010253	8
	11	121	23859.38	4143.914	-57536.32	1	57685.36	-85.88052	7.624371E-006	-0.018554	7
	12	126	18984.38	4599.88	-72668.6	1	72814.04	-86.37804	-1.859054E-006	0.0221223	7
	13	132	15046.87	5381.136	-90025.97	1	90186.65	-86.57932	7.723757E-006	-0.0243499	7
	14	138	11953.13	4275.219	-107014.5	1	107099.8	-87.71226	-9.444446E-006	-0.0020585	8
	15	146	9515.62	5917.222	-142721.9	1	142844.5	-87.62589	-1.817077E-006	0.0221093	7
	16	152	7546.875	5852.141	-177525	1	177621.5	-88.11192	-3.350385E-006	-0.0053765	7
	17	158	5928.309	8096.527	-245102.2	1	245235.9	-88.10802	4.715052E-007	0.0162768	7
	18	164	4733.456	38325.2	-298803.2	1	301251	-82.69102	-6.484657E-007	0.0101232	6
	19	169	3796.875	37537.97	-374391.5	1	376268.6	-84.27444	6.129239E-007	-0.0071978	6
	20	175	2987.132	41414.98	-466062.6	1	467899.1	-84.92195	4.034628E-007	-0.0254062	6
	21	180	2390.625	45800.67	-581439.9	1	583241	-85.49605	-6.570248E-007	0.0103502	6
	22	185	1884.191	54114.07	-724555.2	1	726573.2	-85.72874	-5.632219E-007	0.0267068	6
	23	191	1516.544	253434.9	-909050	1	943716.7	-74.42201	-7.356129E-006	0.0189366	7
	24	198	1193.986	-237348	-985273	1	1013458	-103.5442	3.514938E-006	-0.0246295	7
	25	206	946.5144	414325.9	-417437.1	1	588149.4	-45.21431	4.79811E-006	-0.0001306	7
	26	212	751.7689	-339871.8	-772832.3	1	844264.5	-113.7387	-3.426593E-006	-0.0052493	7
	27	218	597.4265	897994.9	-577918.5	1	1067888	-32.76393	5.01353E-006	-0.0012093	7
	28	224	477.4305	32599.56	-2846969	1	2847155	-89.34396	-6.946689E-008	0.0006815	7
	29	230	376.6741	461734.3	-3702837	1	3731514	-82.89205	-6.673105E-010	0.0006758	5
	30	234	298.2954	479356.3	-4571977	1	4597038	-84.0146	-7.654391E-010	0.0007199	5
	31	237	237.7717	482964.8	-5687464	1	5707933	-85.14623	-7.383573E-010	0.0006785	5
	32	241	189.0121	530087.6	-7158800	1	7178399	-85.76515	-7.314277E-010	0.0006205	5
	33	245	150.2404	589242.8	-8894715	1	8914211	-86.2099	-6.922471E-010	0.0006516	5
	34	249	119.1737	-725942.3	-1.118442E+007	1	1.120795E+007	-93.71366	-8.809192E-010	0.0007132	5
	35	252	95.0169	687405.5	-1.356483E+007	1	1.358224E+007	-87.09898	-6.976708E-010	0.00063	5
	36	255	75.60484	-586473.7	-1.638584E+007	1	1.639633E+007	-92.04983	-7.881881E-010	0.0006754	5
	37	258	54.50582	-1209507	-2.399554E+007	1	2.4026E+007	-92.88558	-6.82223E-010	0.0006148	5
	38	261	45.95588	-1909922	-2.676434E+007	1	2.68324E+007	-94.08175	-6.901656E-010	0.0006406	5
	39	265	37.20238	-2082690	-4.039234E+007	1	4.044599E+007	-92.95164	-8.037593E-010	0.0007223	5
	40	268	30.04808	5768666	-4.471101E+007	1	4.508161E+007	-82.64825	-8.268943E-011	0.000633	4
	41	272	23.91582	-6770550	-6.497814E+007	1	6.532992E+007	-95.9486	4.882078E-011	0.000655	4
	42	276	18.60119	-4.311264E+007	-2.969861E+008	1	3.00099E+008	-98.2598	-3.90396E-010	0.0006373	4
	43	280	15.02404	6165084	-8.744646E+007	1	8.766351E+007	-85.96725	-7.237415E-010	0.0007179	5
	44	285	12.01923	8677128	-1.073137E+008	1	1.07664E+008	-85.37726	-6.009686E-011	0.0007174	4
	45	288	9.450605	1.94419E+007	-1.468378E+008	1	1.481193E+008	-82.45769	-9.635795E-011	0.0007142	4
	46	292	7.512019	-1.028324E+007	-1.68933E+008	1	1.692456E+008	-93.4834	-5.044953E-011	0.0007347	4
	47	297	5.978954	4.175495E+007	-1.891016E+008	1	1.936566E+008	-77.54848	-3.014078E-011	0.0006359	4
	48	302	4.734848	4.346661E+007	-2.942025E+008	1	2.973961E+008	-81.5957	-5.907086E-012	0.0006693	3
	49	307	3.75601	-7.964342E+007	-4.15968E+008	1	4.235239E+008	-100.839	-7.598134E-010	0.0006795	5
	50	315	3.004808	-5.320892E+007	-4.334399E+008	1	4.366936E+008	-96.9986	-8.413272E-011	0.0007411	4
	51	324	2.372217	5.310126E+007	-5.628566E+008	1	5.653559E+008	-84.61053	-5.924322E-012	0.000671	3
	52	331	1.878005	5.666241E+007	-7.052411E+008	1	7.075137E+008	-85.40646	-5.822006E-012	0.0007388	3
	53	340	1.512097	5.850662E+007	-8.723416E+008	1	8.743014E+008	-86.163	-5.802457E-012	0.0006805	3
	54	347	1.201923	6.119323E+007	-1.097305E+009	1	1.09901E+009	-86.80811	-5.614899E-012	0.0007715	3
	55	360	0.956633	6.566611E+007	-1.354541E+009	1	1.356131E+009	-87.22456	-5.575371E-012	0.0000991	3
