EXPLAIN
TAG	EISPOT
TITLE	LABEL	Potentiostatic EIS	Test Identifier
DATE	LABEL	2/26/2021	Date
TIME	LABEL	14:17:45	Time
NOTES	NOTES	1	Notes...
	
PSTAT	PSTAT	REF3000-16137	Potentiostat
VDC	POTEN	0.00000E+000	T	DC Voltage (V)
FREQINIT	QUANT	3.00000E+005	Initial Freq. (Hz)
FREQFINAL	QUANT	1.00000E+000	Final Freq. (Hz)
PTSPERDEC	QUANT	1.00000E+001	Points/decade
VAC	QUANT	5.00000E+001	AC Voltage (mV rms)
AREA	QUANT	1.00000E+000	Sample Area (cm^2)
SPEED	SELECTOR	2	Optimize for:
ZGUESS	QUANT	1.00000E+003	Estimated Z (ohms)
EOC	QUANT	0	Open Circuit (V)
SEQUENCER	TOGGLE	TRUE	Run as Sequence
PSTATMODEL	IQUANT	5	Pstat Model
PSTATSECTION	LABEL	REF3000-16137	Pstat Section
PSTATSERIALNO	LABEL	16137	Pstat Serial Number
CTRLMODE	IQUANT	1	Control Mode
IESTAB	IQUANT	0	I/E Stability
CASPEED	IQUANT	1	Control Amp Speed
CONVENTION	IQUANT	1	Current Convention
ICHRANGE	IQUANT	2	Ich Range
ICHRANGEMODE	TOGGLE	F	Ich Auto Range
ICHOFFSETENABLE	TOGGLE	T	Ich Offset Enable
ICHOFFSET	QUANT	0	Ich Offset (V)
ICHFILTER	IQUANT	3	Ich Filter
VCHRANGE	IQUANT	2	Vch Range
VCHRANGEMODE	TOGGLE	F	Vch Auto Range
VCHOFFSETENABLE	TOGGLE	T	Vch Offset Enable
VCHOFFSET	QUANT	0	Vch Offset (V)
VCHFILTER	IQUANT	3	Vch Filter
ACHRANGE	IQUANT	2	Ach Range
ACHOFFSETENABLE	TOGGLE	F	Ach Offset Enable
ACHOFFSET	QUANT	0	Ach Offset (V)
ACHFILTER	IQUANT	3	Ach Filter
IERANGELOWERLIMIT	IQUANT	2	I/E Range Lower Limit
IERANGEMODE	TOGGLE	F	I/E AutoRange
IERANGE	IQUANT	11	I/E Range
POSFEEDENABLE	TOGGLE	F	Positive Feedback IR Comp
POSFEEDRESISTANCE	QUANT	0	Positive Feedback Resistance (ohm)
ACHSELECT	IQUANT	0	Ach Select
CABLEID	IQUANT	13	Cable ID
DCCALDATE	LABEL	7/31/2020	DC Calibration Date
ACCALDATE	LABEL	7/31/2020	AC Calibration Date
THERMOSELECT	IQUANT	1	Thermo Select
FRAMEWORKVERSION	QUANT	6.33	Framework Version
INSTRUMENTVERSION	LABEL	3.50	Instrument Version
COMPLIANCEVOLTAGE	IQUANT	0	Compliance Voltage
ZCURVE	TABLE
	Pt	Time	Freq	Zreal	Zimag	Zsig	Zmod	Zphz	Idc	Vdc	IERange
	#	s	Hz	ohm	ohm	V	ohm	°	A	V	#
	0	7	300046.9	64.84782	-5.278412	1	65.06229	-4.65344	1.156774E-005	-0.0013952	9
	1	10	238359.4	65.56009	-7.136708	1	65.94739	-6.212614	-6.920463E-005	0.0022106	9
	2	13	189328.1	66.56593	-9.371869	1	67.22243	-8.014043	5.775108E-005	-0.0016096	9
	3	16	150421.9	67.58129	-11.56442	1	68.5636	-9.71033	-2.690463E-005	-0.0002109	9
	4	18	119484.4	69.05334	-14.14498	1	70.4872	-11.5764	-5.289196E-006	0.0009747	9
	5	21	94921.88	70.78387	-16.8135	1	72.75335	-13.36201	-1.001477E-005	0.0006293	9
	6	24	75421.88	72.6258	-20.01806	1	75.33412	-15.40996	4.041897E-006	-0.0003872	9
	7	26	59859.37	74.8669	-23.68914	1	78.52533	-17.55824	1.195133E-005	0.000144	9
	8	29	47578.12	77.56027	-27.7924	1	82.3894	-19.71428	-1.669415E-005	0.0006338	9
	9	31	37828.12	80.5965	-32.29171	1	86.82483	-21.83395	-1.654389E-005	0.0006679	9
	10	34	30046.88	84.11436	-37.31864	1	92.02123	-23.92521	1.997014E-005	-0.0002758	9
	11	36	23859.38	87.90047	-42.89061	1	97.8064	-26.00984	-3.215129E-006	-0.0001457	9
	12	38	18984.38	91.93253	-49.31267	1	104.3232	-28.20914	1.092263E-005	-0.0005187	9
	13	41	15046.87	96.2106	-56.87031	1	111.7619	-30.58743	1.884909E-005	-0.0001899	9
	14	43	11953.13	100.1854	-65.92841	1	119.932	-33.34747	5.51502E-006	0.0003193	9
	15	45	9515.62	104.195	-76.50304	1	129.2645	-36.28721	3.791175E-006	-0.0003491	9
	16	48	7546.875	108.0399	-90.28023	1	140.7947	-39.88277	-1.787011E-005	0.0006748	9
	17	50	5928.309	111.9883	-108.7302	1	156.0886	-44.15428	-9.644841E-006	0.0007158	9
	18	52	4733.456	115.9224	-130.0161	1	174.1901	-48.27979	-1.43479E-005	0.0002699	9
	19	54	3796.875	120.2004	-156.3529	1	197.2165	-52.44778	-1.373529E-005	0.0002553	9
	20	57	2987.132	124.7681	-193.0534	1	229.8624	-57.12589	-9.075122E-006	6.370008E-005	9
	21	59	2390.625	130.6907	-234.9019	1	268.8102	-60.91006	1.056914E-005	-0.0005144	9
	22	61	1884.191	137.851	-291.9282	1	322.8389	-64.72291	1.020906E-005	-0.0004969	9
	23	64	1516.544	144.4318	-355.3968	1	383.6241	-67.88338	-1.425037E-005	0.0007466	9
	24	66	1193.986	154.2992	-441.1564	1	467.362	-70.72217	-2.092725E-006	0.0021032	8
	25	69	946.5144	167.7985	-545.6502	1	570.8682	-72.90627	2.536399E-006	-0.0006814	8
	26	71	751.7689	181.4467	-676.4313	1	700.3444	-74.9844	-3.047593E-006	0.0021612	8
	27	73	597.4265	201.4629	-837.2472	1	861.1447	-76.47039	3.622891E-006	-0.0008922	8
	28	75	477.4305	225.2752	-1032.015	1	1056.317	-77.68625	3.004689E-007	0.0006664	8
	29	78	376.6741	257.3624	-1286.351	1	1311.844	-78.68612	3.082546E-007	0.0006565	8
	30	80	298.2954	297.8289	-1597.685	1	1625.208	-79.44054	3.091311E-007	0.0006598	8
	31	82	237.7717	348.0009	-1971.563	1	2002.04	-79.98982	3.05572E-007	0.0006558	8
	32	85	189.0121	412.865	-2438.925	1	2473.623	-80.39197	3.103368E-007	0.0006566	8
	33	87	150.2404	496.1247	-3015.878	1	3056.413	-80.65827	2.984227E-007	0.0006631	8
	34	90	119.1737	604.4401	-3734.778	1	3783.374	-80.80691	2.993197E-007	0.0006621	8
	35	92	95.0169	743.3846	-4609.882	1	4669.437	-80.83941	-4.956409E-008	0.0006379	7
	36	94	75.60484	921.5897	-5686.752	1	5760.944	-80.79473	-5.232368E-008	0.0006361	7
	37	97	54.50582	1276.411	-7672.449	1	7777.898	-80.55461	-5.089175E-008	0.0006267	7
	38	100	45.95588	1522.839	-8963.693	1	9092.131	-80.3581	-4.507331E-008	0.0006349	7
	39	102	37.20238	1909.338	-10864.94	1	11031.43	-80.03296	-4.798031E-008	0.000629	7
	40	104	30.04808	2411.257	-13167.63	1	13386.58	-79.62296	-5.166404E-008	0.0006377	7
	41	107	23.91582	3134.8	-16189.91	1	16490.61	-79.0416	-4.864128E-008	0.0006255	7
	42	109	18.60119	4199.906	-20240.13	1	20671.29	-78.27727	-4.864051E-008	0.0006342	7
	43	111	15.02404	5425.146	-24438.52	1	25033.45	-77.48379	-4.970827E-008	0.0006325	7
	44	114	12.01923	7148.909	-29683.62	1	30532.34	-76.45894	-4.730948E-008	0.0006349	7
	45	116	9.450605	9638.67	-36472.01	1	37724.15	-75.19655	-4.599758E-008	0.0006423	7
	46	118	7.512019	12849.04	-44154.38	1	45985.95	-73.77487	-7.933224E-008	0.0007113	6
	47	121	5.978954	17127.52	-53138.1	1	55830.19	-72.13479	-8.058845E-008	0.0006987	6
	48	124	4.734848	22883	-63785.16	1	67765.62	-70.26449	-7.781812E-008	0.0006719	6
	49	127	3.75601	30378.15	-75829.58	1	81688.17	-68.16843	-8.033727E-008	0.0006791	6
	50	133	3.004808	39578.59	-88790.09	1	97211.9	-65.97486	-7.846412E-008	0.0006609	6
	51	139	2.372217	51751.84	-103748.4	1	115939.5	-63.48903	-7.940544E-008	0.0006729	6
	52	144	1.878005	66835.78	-119554.5	1	136968.3	-60.79305	-7.892741E-008	0.0006965	6
	53	148	1.512097	83165.98	-134861.5	1	158443	-58.33881	-7.787364E-008	0.000584	6
	54	154	1.201923	103213.9	-151850.2	1	183607.2	-55.79572	-7.772488E-008	0.0007076	6
	55	160	0.956633	125693.6	-169299.4	1	210858.2	-53.40855	-7.821482E-008	4.286027E-005	6
