EXPLAIN
TAG	EISPOT
TITLE	LABEL	Potentiostatic EIS	Test Identifier
DATE	LABEL	9/6/2020	Date
TIME	LABEL	15:11:03	Time
NOTES	NOTES	1	Notes...
	
PSTAT	PSTAT	REF3000-16137	Potentiostat
VDC	POTEN	0.00000E+000	T	DC Voltage (V)
FREQINIT	QUANT	3.00000E+005	Initial Freq. (Hz)
FREQFINAL	QUANT	1.00000E+000	Final Freq. (Hz)
PTSPERDEC	QUANT	1.00000E+001	Points/decade
VAC	QUANT	5.00000E+001	AC Voltage (mV rms)
AREA	QUANT	1.00000E+000	Sample Area (cm^2)
SPEED	SELECTOR	2	Optimize for:
ZGUESS	QUANT	1.00000E+003	Estimated Z (ohms)
EOC	QUANT	0	Open Circuit (V)
SEQUENCER	TOGGLE	TRUE	Run as Sequence
PSTATMODEL	IQUANT	5	Pstat Model
PSTATSECTION	LABEL	REF3000-16137	Pstat Section
PSTATSERIALNO	LABEL	16137	Pstat Serial Number
CTRLMODE	IQUANT	1	Control Mode
IESTAB	IQUANT	0	I/E Stability
CASPEED	IQUANT	1	Control Amp Speed
CONVENTION	IQUANT	1	Current Convention
ICHRANGE	IQUANT	2	Ich Range
ICHRANGEMODE	TOGGLE	F	Ich Auto Range
ICHOFFSETENABLE	TOGGLE	T	Ich Offset Enable
ICHOFFSET	QUANT	0	Ich Offset (V)
ICHFILTER	IQUANT	3	Ich Filter
VCHRANGE	IQUANT	2	Vch Range
VCHRANGEMODE	TOGGLE	F	Vch Auto Range
VCHOFFSETENABLE	TOGGLE	T	Vch Offset Enable
VCHOFFSET	QUANT	0	Vch Offset (V)
VCHFILTER	IQUANT	3	Vch Filter
ACHRANGE	IQUANT	2	Ach Range
ACHOFFSETENABLE	TOGGLE	F	Ach Offset Enable
ACHOFFSET	QUANT	0	Ach Offset (V)
ACHFILTER	IQUANT	3	Ach Filter
IERANGELOWERLIMIT	IQUANT	2	I/E Range Lower Limit
IERANGEMODE	TOGGLE	F	I/E AutoRange
IERANGE	IQUANT	11	I/E Range
POSFEEDENABLE	TOGGLE	F	Positive Feedback IR Comp
POSFEEDRESISTANCE	QUANT	0	Positive Feedback Resistance (ohm)
ACHSELECT	IQUANT	0	Ach Select
CABLEID	IQUANT	13	Cable ID
DCCALDATE	LABEL	7/31/2020	DC Calibration Date
ACCALDATE	LABEL	7/31/2020	AC Calibration Date
THERMOSELECT	IQUANT	1	Thermo Select
FRAMEWORKVERSION	QUANT	6.33	Framework Version
INSTRUMENTVERSION	LABEL	3.50	Instrument Version
COMPLIANCEVOLTAGE	IQUANT	0	Compliance Voltage
ZCURVE	TABLE
	Pt	Time	Freq	Zreal	Zimag	Zsig	Zmod	Zphz	Idc	Vdc	IERange
	#	s	Hz	ohm	ohm	V	ohm	°	A	V	#
	0	14	300046.9	1187.637	-3085.037	1	3305.743	-68.94495	-6.075419E-006	0.0011912	9
	1	29	238359.4	1652.723	-3541.134	1	3907.829	-64.98053	-1.015254E-005	0.0010148	9
	2	43	189328.1	2231.868	-4209.657	1	4764.708	-62.06844	-0.0001013	0.0028184	9
	3	52	150421.9	2881.785	-4520.542	1	5360.969	-57.48304	8.812608E-005	-0.0022526	9
	4	60	119484.4	4082.869	-5098.335	1	6531.68	-51.31142	1.045335E-005	-0.0095252	8
	5	68	94921.88	5072.648	-5439.056	1	7437.412	-46.99636	-2.460983E-005	0.0050685	8
	6	75	75421.88	6115.232	-5717.25	1	8371.56	-43.0736	-2.680932E-005	0.0090928	8
	7	84	59859.37	6975.45	-5963.895	1	9177.414	-40.5299	-2.67141E-005	0.0009497	9
	8	92	47578.12	8286.138	-5953.335	1	10203.05	-35.69608	1.076933E-006	-0.0062332	8
	9	100	37828.12	11453.65	-5746.324	1	12814.3	-26.64303	-4.450864E-006	0.0247108	7
	10	106	30046.88	12328.3	-5386.949	1	13453.86	-23.6033	2.169921E-007	-0.0164227	7
	11	111	23859.38	13021.39	-5167.595	1	14009.3	-21.64587	7.145009E-006	-0.0251709	7
	12	115	18984.38	13777.41	-4873.578	1	14613.99	-19.48057	4.294617E-006	-0.024649	7
	13	120	15046.87	14440.22	-4706.025	1	15187.72	-18.05063	-6.716215E-006	0.0238065	7
	14	124	11953.13	15004.37	-4526.719	1	15672.35	-16.78821	6.001284E-006	-0.0262532	7
	15	128	9515.62	15677.1	-4479.98	1	16304.66	-15.94812	-2.612232E-006	0.0224362	7
	16	132	7546.875	16291.35	-4511.777	1	16904.56	-15.4797	6.779627E-006	-0.0142861	7
	17	136	5928.309	16911.82	-4545.098	1	17511.93	-15.04294	-2.728244E-006	0.0224554	7
	18	141	4733.456	17413.97	-4856.778	1	18078.57	-15.58385	-4.445812E-006	0.0247915	7
	19	145	3796.875	18162.3	-5051.425	1	18851.69	-15.54268	-2.14556E-006	-0.0086061	7
	20	149	2987.132	18893.42	-5382.602	1	19645.2	-15.90188	-4.16995E-006	-0.0011947	7
	21	153	2390.625	19953	-6083.349	1	20859.76	-16.95562	2.164933E-006	-0.0214824	7
	22	158	1884.191	20803.58	-6132.56	1	21688.64	-16.42467	-6.790502E-006	0.0240832	7
	23	162	1516.544	21500.26	-6520.65	1	22467.31	-16.87162	-5.819459E-006	0.0068732	7
	24	166	1193.986	22586.21	-6851.012	1	23602.4	-16.87398	-2.022556E-006	-0.0095168	7
	25	171	946.5144	24502.36	-7351.581	1	25581.47	-16.70111	5.317356E-006	0.0054494	8
	26	176	751.7689	25757.86	-8717.607	1	27193.09	-18.69811	7.05204E-006	-0.0252883	7
	27	179	597.4265	26185.25	-8774.065	1	27616.14	-18.5248	-4.268741E-006	0.0245394	7
	28	183	477.4305	28178.9	-8597.429	1	29461.27	-16.96703	-1.343012E-007	0.0004951	7
	29	186	376.6741	29673.67	-8853.621	1	30966.32	-16.61333	-1.352979E-007	0.000477	7
	30	189	298.2954	31131.68	-9023.44	1	32413.03	-16.1641	-1.428718E-007	0.0005976	7
	31	191	237.7717	32736.35	-9292.013	1	34029.55	-15.84627	-1.344905E-007	0.0005106	7
	32	194	189.0121	34340.76	-9464.879	1	35621.23	-15.40908	-1.421962E-007	0.0005494	7
	33	196	150.2404	35909.95	-9590.37	1	37168.53	-14.95283	-1.383144E-007	0.0005701	7
	34	199	119.1737	37203.39	-9077.663	1	38294.86	-13.71229	-1.389624E-007	0.0005071	7
	35	201	95.0169	39611	-8746.015	1	40565.06	-12.451	-5.539001E-008	0.0005787	6
	36	204	75.60484	41127.32	-9037.598	1	42108.61	-12.39358	-5.525258E-008	0.0005449	6
	37	206	54.50582	43749.75	-9218.147	1	44710.34	-11.89828	-5.800213E-008	0.0005123	6
	38	209	45.95588	44453.21	-9459.476	1	45448.54	-12.01314	-5.276374E-008	0.0005731	6
	39	211	37.20238	45909.13	-9582.15	1	46898.46	-11.78952	-5.869612E-008	0.0005398	6
	40	214	30.04808	47487.03	-9853.86	1	48498.63	-11.72287	-5.694546E-008	0.0005198	6
	41	216	23.91582	49154.62	-10147.44	1	50191.11	-11.66424	-5.676865E-008	0.0005623	6
	42	219	18.60119	50852.73	-10306.28	1	51886.6	-11.45691	-6.216082E-008	0.0006158	6
	43	222	15.02404	52580.68	-10673.25	1	53653.01	-11.47446	-5.728959E-008	0.0005945	6
	44	224	12.01923	54285.03	-10998.13	1	55387.93	-11.45308	-6.402058E-008	0.0005506	6
	45	227	9.450605	56133.99	-11388.72	1	57277.64	-11.46876	-5.173595E-008	0.0006009	6
	46	229	7.512019	57894.88	-11830.44	1	59091.25	-11.54902	-4.779968E-008	0.000618	6
	47	232	5.978954	59885.16	-12369.12	1	61149.22	-11.67019	-5.622046E-008	0.0005694	6
	48	236	4.734848	61906.99	-13082.01	1	63274.12	-11.93204	-4.971261E-008	0.0006289	6
	49	240	3.75601	64100.64	-13920.79	1	65594.83	-12.25271	-5.064573E-008	0.0006032	6
	50	245	3.004808	66587.17	-14939.43	1	68242.49	-12.64542	-5.021876E-008	0.0005047	6
	51	252	2.372217	69179.13	-16227.67	1	71056.95	-13.20145	-4.762117E-008	0.0005114	6
	52	256	1.878005	71731.29	-17685.11	1	73879.23	-13.84987	-4.40659E-008	0.0006139	6
	53	261	1.512097	74319.12	-19261.76	1	76774.65	-14.53	-4.689666E-008	0.0006126	6
	54	266	1.201923	77218.58	-21505.79	1	80157.4	-15.56281	-4.774714E-008	0.0005687	6
	55	272	0.956633	80553.06	-24042.37	1	84064.45	-16.61859	-6.886135E-008	-6.715632E-005	6
