EXPLAIN
TAG	EISPOT
TITLE	LABEL	Potentiostatic EIS	Test Identifier
DATE	LABEL	9/6/2020	Date
TIME	LABEL	15:21:09	Time
NOTES	NOTES	1	Notes...
	
PSTAT	PSTAT	REF3000-16137	Potentiostat
VDC	POTEN	0.00000E+000	T	DC Voltage (V)
FREQINIT	QUANT	3.00000E+005	Initial Freq. (Hz)
FREQFINAL	QUANT	1.00000E+000	Final Freq. (Hz)
PTSPERDEC	QUANT	1.00000E+001	Points/decade
VAC	QUANT	5.00000E+001	AC Voltage (mV rms)
AREA	QUANT	1.00000E+000	Sample Area (cm^2)
SPEED	SELECTOR	2	Optimize for:
ZGUESS	QUANT	1.00000E+003	Estimated Z (ohms)
EOC	QUANT	0	Open Circuit (V)
SEQUENCER	TOGGLE	TRUE	Run as Sequence
PSTATMODEL	IQUANT	5	Pstat Model
PSTATSECTION	LABEL	REF3000-16137	Pstat Section
PSTATSERIALNO	LABEL	16137	Pstat Serial Number
CTRLMODE	IQUANT	1	Control Mode
IESTAB	IQUANT	0	I/E Stability
CASPEED	IQUANT	1	Control Amp Speed
CONVENTION	IQUANT	1	Current Convention
ICHRANGE	IQUANT	2	Ich Range
ICHRANGEMODE	TOGGLE	F	Ich Auto Range
ICHOFFSETENABLE	TOGGLE	T	Ich Offset Enable
ICHOFFSET	QUANT	0	Ich Offset (V)
ICHFILTER	IQUANT	3	Ich Filter
VCHRANGE	IQUANT	2	Vch Range
VCHRANGEMODE	TOGGLE	F	Vch Auto Range
VCHOFFSETENABLE	TOGGLE	T	Vch Offset Enable
VCHOFFSET	QUANT	0	Vch Offset (V)
VCHFILTER	IQUANT	3	Vch Filter
ACHRANGE	IQUANT	2	Ach Range
ACHOFFSETENABLE	TOGGLE	F	Ach Offset Enable
ACHOFFSET	QUANT	0	Ach Offset (V)
ACHFILTER	IQUANT	3	Ach Filter
IERANGELOWERLIMIT	IQUANT	2	I/E Range Lower Limit
IERANGEMODE	TOGGLE	F	I/E AutoRange
IERANGE	IQUANT	11	I/E Range
POSFEEDENABLE	TOGGLE	F	Positive Feedback IR Comp
POSFEEDRESISTANCE	QUANT	0	Positive Feedback Resistance (ohm)
ACHSELECT	IQUANT	0	Ach Select
CABLEID	IQUANT	13	Cable ID
DCCALDATE	LABEL	7/31/2020	DC Calibration Date
ACCALDATE	LABEL	7/31/2020	AC Calibration Date
THERMOSELECT	IQUANT	1	Thermo Select
FRAMEWORKVERSION	QUANT	6.33	Framework Version
INSTRUMENTVERSION	LABEL	3.50	Instrument Version
COMPLIANCEVOLTAGE	IQUANT	0	Compliance Voltage
ZCURVE	TABLE
	Pt	Time	Freq	Zreal	Zimag	Zsig	Zmod	Zphz	Idc	Vdc	IERange
	#	s	Hz	ohm	ohm	V	ohm	°	A	V	#
	0	20	300046.9	713.4821	-3688.081	1	3756.46	-79.05103	-4.159683E-005	-0.0008102	9
	1	36	238359.4	1088.488	-4455.851	1	4586.874	-76.27247	-4.28639E-005	-0.0007406	9
	2	53	189328.1	1539.947	-5343.905	1	5561.363	-73.92467	3.553267E-005	0.0006458	9
	3	64	150421.9	2391.195	-6397.862	1	6830.113	-69.50682	-5.698073E-006	0.0016509	9
	4	72	119484.4	3331.652	-7583.281	1	8282.877	-66.2821	-8.878569E-005	0.0262286	8
	5	79	94921.88	4579.96	-8772.742	1	9896.31	-62.43242	-2.266979E-005	0.0111871	8
	6	88	75421.88	6100.506	-10270.04	1	11945.29	-59.28926	-1.411523E-005	-0.0005956	8
	7	96	59859.37	7843	-11089.2	1	13582.45	-54.72958	-2.608175E-005	0.0103812	8
	8	104	47578.12	10028	-12334.18	1	15896.31	-50.88801	-2.611232E-005	0.0083801	8
	9	111	37828.12	15268.36	-13418.71	1	20326.95	-41.31086	-5.635688E-006	0.0060112	7
	10	119	30046.88	17739.85	-13699.97	1	22414.09	-37.67786	3.478346E-006	0.0046654	7
	11	125	23859.38	20100.93	-13605.82	1	24272.74	-34.09309	-4.039786E-006	-0.0022511	7
	12	129	18984.38	22380.66	-13336.43	1	26052.91	-30.79032	-4.744762E-006	0.0255913	7
	13	135	15046.87	24394.94	-13392.02	1	27829.11	-28.76535	3.354357E-006	0.0055185	7
	14	140	11953.13	24831.12	-13472.95	1	28250.75	-28.48352	-1.673701E-005	0.0110634	8
	15	147	9515.62	26583.15	-13243.27	1	29699.29	-26.48169	1.253753E-005	-0.0091728	8
	16	154	7546.875	29988.13	-12552.43	1	32509.26	-22.71321	5.276288E-006	-0.0037238	7
	17	159	5928.309	31934.95	-12901.86	1	34442.69	-21.99892	1.160788E-006	0.0132402	7
	18	165	4733.456	31612.9	-13553.39	1	34395.79	-23.20625	1.276965E-005	-0.008971	8
	19	171	3796.875	33938.37	-14846.98	1	37043.83	-23.62788	-8.684394E-006	0.0008698	9
	20	178	2987.132	37165.4	-14433.38	1	39869.66	-21.22395	7.448388E-006	-0.0200494	7
	21	183	2390.625	38457.27	-15371.75	1	41415.61	-21.78708	7.535342E-006	-0.0194299	7
	22	188	1884.191	41337.21	-16853.54	1	44640.87	-22.18115	7.309595E-006	-0.0251491	7
	23	194	1516.544	43028.19	-17748.66	1	46545.03	-22.41562	-6.009278E-006	0.0253906	7
	24	199	1193.986	45699.71	-20213.02	1	49970.29	-23.85985	4.604573E-006	-0.0255281	7
	25	205	946.5144	51098.39	-17920.57	1	54149.72	-19.32613	9.962265E-007	0.0135537	7
	26	208	751.7689	55754.28	-23617.67	1	60550.26	-22.95765	5.857491E-007	-0.0175177	7
	27	212	597.4265	60782.02	-20529.01	1	64155.23	-18.6623	4.899265E-008	0.014572	6
	28	215	477.4305	64123.36	-23067.93	1	68146.41	-19.78584	-3.157474E-008	0.0005183	6
	29	217	376.6741	67732.25	-26046.32	1	72567.68	-21.03416	-3.098146E-008	0.0006065	6
	30	219	298.2954	71846.26	-28801.47	1	77404.2	-21.84468	-3.083223E-008	0.0005568	6
	31	222	237.7717	76457.95	-31939.85	1	82861.16	-22.67244	-3.221226E-008	0.000591	6
	32	224	189.0121	81427.98	-34815.55	1	88558.68	-23.14974	-3.060012E-008	0.000607	6
	33	227	150.2404	86943.52	-38220.61	1	94973.63	-23.73042	-2.994189E-008	0.000537	6
	34	230	119.1737	90262.31	-38679.79	1	98200.9	-23.19641	-2.904333E-008	0.0005221	6
	35	232	95.0169	99707.3	-44273.38	1	109094.8	-23.94282	-3.002249E-008	0.0006099	6
	36	235	75.60484	107035.7	-46898.41	1	116859.4	-23.66095	-3.106729E-008	0.0006151	6
	37	238	54.50582	115967	-49634.39	1	126142.5	-23.17113	-2.873584E-008	0.0005294	6
	38	241	45.95588	123659.1	-53502.58	1	134737.2	-23.39629	-3.023572E-008	0.0006543	6
	39	243	37.20238	131706	-57197.71	1	143589.8	-23.4745	-2.892878E-008	0.0005465	6
	40	246	30.04808	139098.5	-59583.05	1	151322.6	-23.18794	-2.884985E-008	0.0005118	6
	41	249	23.91582	148198.2	-62473.68	1	160828	-22.8581	-2.895375E-008	0.0005189	6
	42	251	18.60119	160478.4	-64553.23	1	172975.2	-21.9127	-2.774981E-008	0.0005365	6
	43	254	15.02404	168947.5	-70890.58	1	183217.8	-22.76298	-3.074677E-008	0.0006216	6
	44	256	12.01923	179903.4	-74407.69	1	194683.7	-22.46989	-3.182859E-008	0.0006107	6
	45	259	9.450605	192665.8	-78730.25	1	208131.1	-22.22671	-3.21262E-008	0.0006421	6
	46	261	7.512019	205765.8	-82859.76	1	221822.7	-21.93414	-2.994096E-008	0.0005399	6
	47	264	5.978954	219615.7	-86398.25	1	235999.4	-21.475	-2.969168E-008	0.0005244	6
	48	269	4.734848	235427.3	-91216.44	1	252480.6	-21.17888	-1.133306E-007	0.0005443	7
	49	274	3.75601	252266.1	-95389.2	1	269698.5	-20.71307	-1.125007E-007	0.0004849	7
	50	281	3.004808	270074.7	-98868.6	1	287602.8	-20.1066	-1.172534E-007	0.0005431	7
	51	288	2.372217	290162.3	-103048	1	307917.3	-19.55195	-2.850799E-008	0.0005652	6
	52	295	1.878005	308915.8	-105505	1	326435.7	-18.85673	-2.920798E-008	0.0005505	6
	53	299	1.512097	327331.8	-108161.1	1	344738.9	-18.28524	-2.984802E-008	0.0006574	6
	54	305	1.201923	347638	-110873	1	364890.4	-17.68917	-2.949539E-008	0.0005585	6
	55	311	0.956633	368823.9	-113518.5	1	385898.3	-17.10759	-3.373885E-008	-7.243233E-005	6
