EXPLAIN
TAG	EISPOT
TITLE	LABEL	Potentiostatic EIS	Test Identifier
DATE	LABEL	9/6/2020	Date
TIME	LABEL	15:37:08	Time
NOTES	NOTES	1	Notes...
	
PSTAT	PSTAT	REF3000-16137	Potentiostat
VDC	POTEN	0.00000E+000	T	DC Voltage (V)
FREQINIT	QUANT	3.00000E+005	Initial Freq. (Hz)
FREQFINAL	QUANT	1.00000E+000	Final Freq. (Hz)
PTSPERDEC	QUANT	1.00000E+001	Points/decade
VAC	QUANT	5.00000E+001	AC Voltage (mV rms)
AREA	QUANT	1.00000E+000	Sample Area (cm^2)
SPEED	SELECTOR	2	Optimize for:
ZGUESS	QUANT	1.00000E+003	Estimated Z (ohms)
EOC	QUANT	0	Open Circuit (V)
SEQUENCER	TOGGLE	TRUE	Run as Sequence
PSTATMODEL	IQUANT	5	Pstat Model
PSTATSECTION	LABEL	REF3000-16137	Pstat Section
PSTATSERIALNO	LABEL	16137	Pstat Serial Number
CTRLMODE	IQUANT	1	Control Mode
IESTAB	IQUANT	0	I/E Stability
CASPEED	IQUANT	1	Control Amp Speed
CONVENTION	IQUANT	1	Current Convention
ICHRANGE	IQUANT	2	Ich Range
ICHRANGEMODE	TOGGLE	F	Ich Auto Range
ICHOFFSETENABLE	TOGGLE	T	Ich Offset Enable
ICHOFFSET	QUANT	0	Ich Offset (V)
ICHFILTER	IQUANT	3	Ich Filter
VCHRANGE	IQUANT	2	Vch Range
VCHRANGEMODE	TOGGLE	F	Vch Auto Range
VCHOFFSETENABLE	TOGGLE	T	Vch Offset Enable
VCHOFFSET	QUANT	0	Vch Offset (V)
VCHFILTER	IQUANT	3	Vch Filter
ACHRANGE	IQUANT	2	Ach Range
ACHOFFSETENABLE	TOGGLE	F	Ach Offset Enable
ACHOFFSET	QUANT	0	Ach Offset (V)
ACHFILTER	IQUANT	3	Ach Filter
IERANGELOWERLIMIT	IQUANT	2	I/E Range Lower Limit
IERANGEMODE	TOGGLE	F	I/E AutoRange
IERANGE	IQUANT	11	I/E Range
POSFEEDENABLE	TOGGLE	F	Positive Feedback IR Comp
POSFEEDRESISTANCE	QUANT	0	Positive Feedback Resistance (ohm)
ACHSELECT	IQUANT	0	Ach Select
CABLEID	IQUANT	13	Cable ID
DCCALDATE	LABEL	7/31/2020	DC Calibration Date
ACCALDATE	LABEL	7/31/2020	AC Calibration Date
THERMOSELECT	IQUANT	1	Thermo Select
FRAMEWORKVERSION	QUANT	6.33	Framework Version
INSTRUMENTVERSION	LABEL	3.50	Instrument Version
COMPLIANCEVOLTAGE	IQUANT	0	Compliance Voltage
ZCURVE	TABLE
	Pt	Time	Freq	Zreal	Zimag	Zsig	Zmod	Zphz	Idc	Vdc	IERange
	#	s	Hz	ohm	ohm	V	ohm	°	A	V	#
	0	19	300046.9	214.3337	-4063.128	1	4068.777	-86.98039	3.107159E-005	-0.0018615	9
	1	34	238359.4	368.8663	-4988.845	1	5002.463	-85.77135	8.22951E-005	-0.0019731	9
	2	50	189328.1	763.2177	-6061.663	1	6109.521	-82.82371	1.485248E-005	-0.0022072	9
	3	58	150421.9	1012.651	-7500.946	1	7568.993	-82.31138	2.934901E-005	0.0008082	9
	4	66	119484.4	1206.644	-9376.905	1	9454.224	-82.66734	-3.323791E-006	-0.0018466	9
	5	74	94921.88	2434.033	-11638.45	1	11890.25	-78.18758	2.646459E-005	-0.0057532	8
	6	83	75421.88	3322.916	-14332.95	1	14713.1	-76.94729	5.791789E-006	-0.0073689	8
	7	92	59859.37	5232.278	-17124.48	1	17905.99	-73.00979	-2.696813E-005	0.0101507	8
	8	100	47578.12	9559.96	-22277.77	1	24242.36	-66.77459	-5.555656E-006	0.0049841	7
	9	108	37828.12	12484.84	-26216.91	1	29037.86	-64.53559	7.504755E-006	-0.0192871	7
	10	115	30046.88	16289.37	-31118.5	1	35124.13	-62.36962	1.032481E-006	0.0142597	7
	11	123	23859.38	20623.44	-37627.69	1	42908.85	-61.27319	2.584011E-005	-0.0053356	8
	12	129	18984.38	24655.85	-40301.06	1	47244.96	-58.54206	-1.756772E-005	0.001118	8
	13	137	15046.87	34788.79	-44399.85	1	56405.73	-51.92009	-7.138872E-006	0.0237254	7
	14	142	11953.13	43080.77	-48778.98	1	65079.5	-48.5496	8.948967E-007	-0.0187893	7
	15	147	9515.62	52325.41	-50523.27	1	72736.16	-43.99615	-7.087679E-006	0.0237203	7
	16	153	7546.875	61487.27	-52453.66	1	80821.23	-40.46688	9.15126E-007	-0.0187536	7
	17	159	5928.309	72547.23	-53549.99	1	90170.4	-36.43251	-5.02419E-006	0.0259969	7
	18	165	4733.456	84760.42	-55471.51	1	101298.7	-33.20277	-6.810624E-006	0.0129662	7
	19	170	3796.875	87530.86	-53167.23	1	102412.9	-31.27497	8.791925E-007	-0.0187144	7
	20	175	2987.132	121886.1	-49881.82	1	131698.2	-22.2568	3.623895E-007	-0.024671	6
	21	180	2390.625	127143.9	-48073.78	1	135928.8	-20.71187	2.335643E-007	0.0089398	6
	22	184	1884.191	133682.6	-46468.21	1	141528.5	-19.16751	2.401924E-007	0.0089762	6
	23	188	1516.544	138404.9	-46593.02	1	146037.1	-18.60543	-8.853747E-008	-0.0139103	6
	24	192	1193.986	142215.2	-47604.51	1	149971.2	-18.50723	3.611533E-007	-0.0244664	6
	25	197	946.5144	146269.2	-48119.11	1	153980.9	-18.20999	2.392688E-007	0.0087862	6
	26	200	751.7689	152040.4	-53905.96	1	161313.8	-19.52198	1.50938E-007	-0.0205179	6
	27	202	597.4265	159269.4	-58895.86	1	169810.1	-20.29377	3.578963E-007	-0.0241219	6
	28	205	477.4305	164641	-65596.55	1	177227.4	-21.72342	-1.485322E-008	0.0005174	6
	29	207	376.6741	172622	-73975.57	1	187805	-23.19711	-1.501689E-008	0.0005198	6
	30	210	298.2954	182058.2	-84042.23	1	200520.1	-24.77913	-1.49266E-008	0.000615	6
	31	213	237.7717	193608.4	-94152.1	1	215287.8	-25.93373	-1.572937E-008	0.0006387	6
	32	216	189.0121	205275.5	-106658	1	231330.8	-27.45569	-1.486024E-008	0.0005507	6
	33	218	150.2404	220825.9	-118741.1	1	250726	-28.26754	-1.463975E-008	0.0005332	6
	34	221	119.1737	224867.7	-122661.4	1	256147	-28.6117	-1.338044E-008	0.0005413	6
	35	225	95.0169	253113.5	-154477.4	1	296529.5	-31.39608	-1.011139E-007	0.000525	7
	36	229	75.60484	277003.5	-170015.7	1	325017.4	-31.54025	-1.480471E-008	0.0005357	6
	37	233	54.50582	306093	-197540.3	1	364300.8	-32.8366	-1.085309E-007	0.0005663	7
	38	238	45.95588	332117.2	-211534.7	1	393762.3	-32.49419	-1.428883E-008	0.0005262	6
	39	241	37.20238	382589.6	-199762.3	1	431601.4	-27.57051	-5.993405E-009	0.0005773	5
	40	244	30.04808	414116.1	-219876.7	1	468868.7	-27.96626	-5.058191E-009	0.000514	5
	41	247	23.91582	441324.8	-246284.4	1	505394.5	-29.16401	-5.565494E-009	0.0005053	5
	42	250	18.60119	502984.3	-305160.6	1	588316.4	-31.24519	-8.473239E-009	0.0005201	5
	43	252	15.02404	521709.1	-310555.7	1	607145.1	-30.7639	-5.403619E-009	0.0005171	5
	44	255	12.01923	563822.1	-340540.5	1	658682.9	-31.13138	-5.497707E-009	0.0005814	5
	45	257	9.450605	610594.6	-380900.5	1	719660.4	-31.9567	-5.250253E-009	0.0006131	5
	46	260	7.512019	659055.3	-423367.5	1	783322.4	-32.7161	-5.217857E-009	0.000577	5
	47	263	5.978954	716957.6	-471173.7	1	857923.5	-33.31231	-5.115792E-009	0.0005358	5
	48	267	4.734848	780279.1	-525029.1	1	940473.8	-33.93556	-4.959789E-009	0.0006232	5
	49	272	3.75601	850793.1	-590803.6	1	1035808	-34.7767	-5.080972E-009	0.0005344	5
	50	278	3.004808	936670.8	-660513.1	1	1146137	-35.19038	-5.07683E-009	0.0005466	5
	51	284	2.372217	1033395	-737522.1	1	1269584	-35.51502	-4.960445E-009	0.0006303	5
	52	288	1.878005	1143535	-826522.8	1	1410962	-35.8586	-5.078658E-009	0.0005283	5
	53	293	1.512097	1260102	-915205.2	1	1557388	-35.9907	-5.043417E-009	0.0005903	5
	54	298	1.201923	1405438	-1017963	1	1735369	-35.91594	-4.968251E-009	0.0005245	5
	55	305	0.956633	1570611	-1126917	1	1933070	-35.65952	-5.166668E-009	-8.653234E-005	5
