EXPLAIN
TAG	EISPOT
TITLE	LABEL	Potentiostatic EIS	Test Identifier
DATE	LABEL	9/6/2020	Date
TIME	LABEL	15:15:45	Time
NOTES	NOTES	1	Notes...
	
PSTAT	PSTAT	REF3000-16137	Potentiostat
VDC	POTEN	0.00000E+000	T	DC Voltage (V)
FREQINIT	QUANT	3.00000E+005	Initial Freq. (Hz)
FREQFINAL	QUANT	1.00000E+000	Final Freq. (Hz)
PTSPERDEC	QUANT	1.00000E+001	Points/decade
VAC	QUANT	5.00000E+001	AC Voltage (mV rms)
AREA	QUANT	1.00000E+000	Sample Area (cm^2)
SPEED	SELECTOR	2	Optimize for:
ZGUESS	QUANT	1.00000E+003	Estimated Z (ohms)
EOC	QUANT	0	Open Circuit (V)
SEQUENCER	TOGGLE	TRUE	Run as Sequence
PSTATMODEL	IQUANT	5	Pstat Model
PSTATSECTION	LABEL	REF3000-16137	Pstat Section
PSTATSERIALNO	LABEL	16137	Pstat Serial Number
CTRLMODE	IQUANT	1	Control Mode
IESTAB	IQUANT	0	I/E Stability
CASPEED	IQUANT	1	Control Amp Speed
CONVENTION	IQUANT	1	Current Convention
ICHRANGE	IQUANT	2	Ich Range
ICHRANGEMODE	TOGGLE	F	Ich Auto Range
ICHOFFSETENABLE	TOGGLE	T	Ich Offset Enable
ICHOFFSET	QUANT	0	Ich Offset (V)
ICHFILTER	IQUANT	3	Ich Filter
VCHRANGE	IQUANT	2	Vch Range
VCHRANGEMODE	TOGGLE	F	Vch Auto Range
VCHOFFSETENABLE	TOGGLE	T	Vch Offset Enable
VCHOFFSET	QUANT	0	Vch Offset (V)
VCHFILTER	IQUANT	3	Vch Filter
ACHRANGE	IQUANT	2	Ach Range
ACHOFFSETENABLE	TOGGLE	F	Ach Offset Enable
ACHOFFSET	QUANT	0	Ach Offset (V)
ACHFILTER	IQUANT	3	Ach Filter
IERANGELOWERLIMIT	IQUANT	2	I/E Range Lower Limit
IERANGEMODE	TOGGLE	F	I/E AutoRange
IERANGE	IQUANT	11	I/E Range
POSFEEDENABLE	TOGGLE	F	Positive Feedback IR Comp
POSFEEDRESISTANCE	QUANT	0	Positive Feedback Resistance (ohm)
ACHSELECT	IQUANT	0	Ach Select
CABLEID	IQUANT	13	Cable ID
DCCALDATE	LABEL	7/31/2020	DC Calibration Date
ACCALDATE	LABEL	7/31/2020	AC Calibration Date
THERMOSELECT	IQUANT	1	Thermo Select
FRAMEWORKVERSION	QUANT	6.33	Framework Version
INSTRUMENTVERSION	LABEL	3.50	Instrument Version
COMPLIANCEVOLTAGE	IQUANT	0	Compliance Voltage
ZCURVE	TABLE
	Pt	Time	Freq	Zreal	Zimag	Zsig	Zmod	Zphz	Idc	Vdc	IERange
	#	s	Hz	ohm	ohm	V	ohm	°	A	V	#
	0	30	300046.9	927.7488	-3465.637	1	3587.667	-75.01336	1.230279E-005	-0.0021802	9
	1	51	238359.4	1312.303	-4083.551	1	4289.234	-72.1845	3.928233E-005	0.000319	9
	2	65	189328.1	1940.721	-4783.88	1	5162.548	-67.91863	1.581655E-005	-0.001132	9
	3	76	150421.9	2630.746	-5593.674	1	6181.424	-64.81206	1.459186E-005	0.0013045	9
	4	89	119484.4	3556.178	-6363.03	1	7289.345	-60.8	-1.058286E-005	0.0014674	9
	5	98	94921.88	5037.104	-7385.073	1	8939.335	-55.70345	1.107331E-005	-0.0085062	8
	6	106	75421.88	6346.198	-8006.947	1	10216.92	-51.60013	2.248987E-005	-0.0020414	8
	7	115	59859.37	7951.91	-8590.932	1	11706.28	-47.21214	-6.646938E-006	0.009029	8
	8	123	47578.12	12058.88	-9273.543	1	15212.34	-37.56107	-4.096807E-006	-0.0018003	7
	9	129	37828.12	13712.99	-9208.524	1	16517.96	-33.88209	-1.978784E-006	-0.0099463	7
	10	135	30046.88	15278.26	-9045.837	1	17755.35	-30.62861	-7.271989E-006	0.0204917	7
	11	140	23859.38	16829.34	-8725.234	1	18956.7	-27.40465	-2.814687E-006	0.0225851	7
	12	145	18984.38	18031.64	-8560.482	1	19960.51	-25.39592	7.305969E-006	-0.0200159	7
	13	149	15046.87	19286.76	-8241.213	1	20973.72	-23.13697	-2.809226E-006	0.0226843	7
	14	153	11953.13	20383.44	-8071.349	1	21923.31	-21.60237	-6.920819E-006	0.0243502	7
	15	157	9515.62	21334.3	-7918.395	1	22756.39	-20.3628	7.392077E-006	-0.0203739	7
	16	162	7546.875	22418.26	-7883.949	1	23764.16	-19.37551	7.376422E-006	-0.0203752	7
	17	166	5928.309	23355.68	-7899.354	1	24655.38	-18.68656	-6.858961E-006	0.0142902	7
	18	171	4733.456	22755.64	-8829.554	1	24408.61	-21.20706	3.398271E-006	0.0060096	8
	19	178	3796.875	25520.69	-8647.074	1	26945.82	-18.71772	-7.063938E-006	0.0245023	7
	20	183	2987.132	27086.4	-9159.821	1	28593.27	-18.68402	-6.886981E-006	0.0143406	7
	21	188	2390.625	28141.33	-10208.74	1	29935.81	-19.9391	-4.645995E-006	0.0250562	7
	22	194	1884.191	29433.53	-10678.09	1	31310.61	-19.94008	-7.247082E-006	0.020398	7
	23	199	1516.544	29817.46	-12854.48	1	32470.28	-23.32115	2.453406E-005	-0.0097624	8
	24	206	1193.986	31692.07	-13669.29	1	34514.29	-23.3313	-6.464879E-006	-0.0037087	8
	25	212	946.5144	35507.69	-14763.41	1	38454.57	-22.5766	-4.003894E-006	-0.002032	7
	26	216	751.7689	38012.54	-16179.48	1	41312.58	-23.05632	-7.208232E-006	0.0200848	7
	27	220	597.4265	44833.39	-11874.26	1	46379.21	-14.83436	-2.560876E-005	0.0104352	8
	28	224	477.4305	42183.55	-17823.92	1	45794.58	-22.90564	-4.816001E-007	0.0005319	8
	29	228	376.6741	48528.3	-14779.52	1	50728.98	-16.93836	-4.412506E-008	0.0006511	6
	30	230	298.2954	51275.67	-16433.77	1	53844.8	-17.77057	-4.360387E-008	0.0006047	6
	31	232	237.7717	53809.36	-17621.3	1	56621.17	-18.13241	-4.269414E-008	0.0005347	6
	32	235	189.0121	56704.85	-18934.11	1	59782.45	-18.46449	-4.315916E-008	0.0006545	6
	33	238	150.2404	60246.02	-20158.23	1	63529.03	-18.50017	-4.222216E-008	0.0005853	6
	34	240	119.1737	63374.36	-23355.41	1	67540.99	-20.2304	-4.007475E-008	0.0005391	6
	35	243	95.0169	67070.14	-22390.45	1	70708.81	-18.46089	-4.161253E-008	0.0005798	6
	36	245	75.60484	70806.5	-23118.01	1	74484.91	-18.08163	-4.231928E-008	0.0006069	6
	37	248	54.50582	76707.06	-26190.46	1	81055.01	-18.85169	-4.264164E-008	0.0005435	6
	38	251	45.95588	79313.08	-25305.85	1	83252.33	-17.69594	-3.963764E-008	0.0005717	6
	39	253	37.20238	83409.87	-26184.88	1	87423.41	-17.42865	-4.269806E-008	0.0005142	6
	40	255	30.04808	87276.99	-27286.09	1	91442.9	-17.36122	-4.161734E-008	0.000536	6
	41	258	23.91582	91693.68	-28484.39	1	96016.1	-17.25726	-4.063251E-008	0.0005624	6
	42	261	18.60119	96522.4	-29721.89	1	100994.9	-17.11503	-4.374517E-008	0.0005714	6
	43	263	15.02404	101329.6	-30262.46	1	105752.1	-16.62845	-4.488803E-008	0.0005231	6
	44	266	12.01923	106183.2	-31025.92	1	110623.1	-16.28796	-4.479927E-008	0.0005967	6
	45	268	9.450605	111502.3	-32002.21	1	116003.9	-16.01398	-3.990758E-008	0.0005619	6
	46	271	7.512019	116938.8	-32982.45	1	121501.2	-15.75104	-3.88965E-008	0.000546	6
	47	274	5.978954	122498.1	-33894.73	1	127100.9	-15.46656	-4.396804E-008	0.0006471	6
	48	278	4.734848	128535.8	-34910.76	1	133192.4	-15.19517	-3.871526E-008	0.0005629	6
	49	282	3.75601	134734.7	-35864.23	1	139426.3	-14.9056	-3.921248E-008	0.0006201	6
	50	287	3.004808	141365.8	-37240.78	1	146188.8	-14.75844	-3.986938E-008	0.0005863	6
	51	294	2.372217	148480.7	-38496.85	1	153390.1	-14.53512	-3.921032E-008	0.0004982	6
	52	298	1.878005	155291.2	-39903.96	1	160336.2	-14.41106	-3.717734E-008	0.0005616	6
	53	303	1.512097	162130.3	-41470.75	1	167350.1	-14.34786	-3.729857E-008	0.0005444	6
	54	308	1.201923	169512.4	-43352.17	1	174968.2	-14.34569	-3.982061E-008	0.0005832	6
	55	314	0.956633	177783.7	-45593.3	1	183536.9	-14.38373	-4.862538E-008	-7.744908E-005	6
