EXPLAIN
TAG	EISPOT
TITLE	LABEL	Potentiostatic EIS	Test Identifier
DATE	LABEL	9/6/2020	Date
TIME	LABEL	14:39:22	Time
NOTES	NOTES	1	Notes...
	
PSTAT	PSTAT	REF3000-16137	Potentiostat
VDC	POTEN	0.00000E+000	T	DC Voltage (V)
FREQINIT	QUANT	3.00000E+005	Initial Freq. (Hz)
FREQFINAL	QUANT	1.00000E+000	Final Freq. (Hz)
PTSPERDEC	QUANT	1.00000E+001	Points/decade
VAC	QUANT	5.00000E+001	AC Voltage (mV rms)
AREA	QUANT	1.00000E+000	Sample Area (cm^2)
SPEED	SELECTOR	2	Optimize for:
ZGUESS	QUANT	1.00000E+003	Estimated Z (ohms)
EOC	QUANT	0	Open Circuit (V)
SEQUENCER	TOGGLE	TRUE	Run as Sequence
PSTATMODEL	IQUANT	5	Pstat Model
PSTATSECTION	LABEL	REF3000-16137	Pstat Section
PSTATSERIALNO	LABEL	16137	Pstat Serial Number
CTRLMODE	IQUANT	1	Control Mode
IESTAB	IQUANT	0	I/E Stability
CASPEED	IQUANT	1	Control Amp Speed
CONVENTION	IQUANT	1	Current Convention
ICHRANGE	IQUANT	2	Ich Range
ICHRANGEMODE	TOGGLE	F	Ich Auto Range
ICHOFFSETENABLE	TOGGLE	T	Ich Offset Enable
ICHOFFSET	QUANT	0	Ich Offset (V)
ICHFILTER	IQUANT	3	Ich Filter
VCHRANGE	IQUANT	2	Vch Range
VCHRANGEMODE	TOGGLE	F	Vch Auto Range
VCHOFFSETENABLE	TOGGLE	T	Vch Offset Enable
VCHOFFSET	QUANT	0	Vch Offset (V)
VCHFILTER	IQUANT	3	Vch Filter
ACHRANGE	IQUANT	2	Ach Range
ACHOFFSETENABLE	TOGGLE	F	Ach Offset Enable
ACHOFFSET	QUANT	0	Ach Offset (V)
ACHFILTER	IQUANT	3	Ach Filter
IERANGELOWERLIMIT	IQUANT	2	I/E Range Lower Limit
IERANGEMODE	TOGGLE	F	I/E AutoRange
IERANGE	IQUANT	11	I/E Range
POSFEEDENABLE	TOGGLE	F	Positive Feedback IR Comp
POSFEEDRESISTANCE	QUANT	0	Positive Feedback Resistance (ohm)
ACHSELECT	IQUANT	0	Ach Select
CABLEID	IQUANT	13	Cable ID
DCCALDATE	LABEL	7/31/2020	DC Calibration Date
ACCALDATE	LABEL	7/31/2020	AC Calibration Date
THERMOSELECT	IQUANT	1	Thermo Select
FRAMEWORKVERSION	QUANT	6.33	Framework Version
INSTRUMENTVERSION	LABEL	3.50	Instrument Version
COMPLIANCEVOLTAGE	IQUANT	0	Compliance Voltage
ZCURVE	TABLE
	Pt	Time	Freq	Zreal	Zimag	Zsig	Zmod	Zphz	Idc	Vdc	IERange
	#	s	Hz	ohm	ohm	V	ohm	°	A	V	#
	0	18	300046.9	689.0522	-196.0185	1	716.3911	-15.87975	-5.427692E-007	-0.0013535	9
	1	29	238359.4	719.9678	-168.3764	1	739.3945	-13.16299	-0.0001079	0.0021002	9
	2	41	189328.1	744.3557	-146.9519	1	758.7227	-11.16782	0.0001081	-0.0050045	9
	3	51	150421.9	767.5766	-129.3527	1	778.3996	-9.56566	-7.968183E-005	0.0006353	9
	4	60	119484.4	845.4281	-74.1244	1	848.6714	-5.010695	-5.439395E-005	0.0089298	8
	5	65	94921.88	850.5029	-57.74582	1	852.4611	-3.884198	-2.874943E-005	0.0097205	8
	6	69	75421.88	853.6841	-44.41795	1	854.8389	-2.978465	-1.348817E-005	0.0096847	8
	7	71	59859.37	857.1291	-37.00403	1	857.9275	-2.472042	-5.120385E-006	0.0088221	8
	8	75	47578.12	858.4033	-29.43718	1	858.9078	-1.964072	1.300076E-005	0.0025119	8
	9	78	37828.12	859.3883	-24.91478	1	859.7494	-1.660614	1.935626E-005	-0.0105376	8
	10	82	30046.88	862.7256	-22.19553	1	863.011	-1.473736	1.239733E-005	0.0021192	8
	11	86	23859.38	866.5933	-20.72022	1	866.841	-1.36968	-2.798382E-005	0.0060953	8
	12	89	18984.38	869.1587	-20.57173	1	869.4021	-1.355855	-2.278439E-005	0.0027773	8
	13	92	15046.87	874.2913	-23.97741	1	874.62	-1.570941	3.068101E-005	-0.0082941	8
	14	96	11953.13	879.4127	-27.41291	1	879.8398	-1.785437	2.094856E-005	-0.0011142	8
	15	99	9515.62	886.8105	-30.40189	1	887.3315	-1.963461	1.128361E-005	-0.0091705	8
	16	102	7546.875	893.4788	-32.79694	1	894.0805	-2.102213	2.76337E-005	-0.0050884	8
	17	105	5928.309	905.1967	-35.10574	1	905.8771	-2.220957	-1.642238E-005	-0.0006256	8
	18	108	4733.456	911.6516	-38.68077	1	912.4719	-2.429564	3.039477E-005	-0.0101815	8
	19	111	3796.875	923.0695	-39.95319	1	923.9338	-2.478384	-2.114627E-005	0.0110307	8
	20	115	2987.132	932.5659	-40.82232	1	933.4589	-2.506476	-5.50609E-006	0.0085286	8
	21	119	2390.625	943.2862	-46.48663	1	944.431	-2.821343	2.420379E-006	-0.0070856	8
	22	123	1884.191	953.684	-49.63501	1	954.974	-2.979303	3.116396E-005	-0.0081908	8
	23	126	1516.544	964.387	-53.89516	1	965.892	-3.19867	1.181588E-005	-0.0091601	8
	24	129	1193.986	978.089	-57.44098	1	979.774	-3.360994	2.464495E-006	-0.0070503	8
	25	133	946.5144	985.06	-59.42126	1	986.851	-3.45204	-2.545967E-005	0.0108391	8
	26	136	751.7689	996.759	-69.46155	1	999.177	-3.986348	-2.031809E-005	0.0108831	8
	27	139	597.4265	1003.135	-75.4613	1	1005.969	-4.302	-2.88637E-005	0.0100398	8
	28	141	477.4305	1015.444	-87.33021	1	1019.192	-4.915457	-5.464343E-007	0.0004928	8
	29	143	376.6741	1026.147	-99.8095	1	1030.989	-5.555476	-6.043031E-007	0.0005149	8
	30	146	298.2954	1037.402	-115.0486	1	1043.762	-6.328281	-6.037646E-007	0.0005155	8
	31	148	237.7717	1048.98	-133.1714	1	1057.399	-7.235183	-6.033339E-007	0.0005279	8
	32	150	189.0121	1061.752	-155.6395	1	1073.099	-8.339448	-6.10057E-007	0.0005239	8
	33	153	150.2404	1075.573	-183.2549	1	1091.073	-9.66914	-5.569623E-007	0.0004981	8
	34	155	119.1737	1090.131	-217.1333	1	1111.546	-11.2648	-5.592018E-007	0.000483	8
	35	158	95.0169	1107.483	-258.2029	1	1137.184	-13.12373	-5.606972E-007	0.0004918	8
	36	160	75.60484	1126.536	-308.2941	1	1167.959	-15.30514	-6.123382E-007	0.0005096	8
	37	163	54.50582	1157.623	-399.9403	1	1224.763	-19.05921	-5.631958E-007	0.0004792	8
	38	165	45.95588	1177.917	-458.9182	1	1264.158	-21.28596	-5.561553E-007	0.0005064	8
	39	167	37.20238	1205.962	-545.0722	1	1323.423	-24.32208	-6.456402E-007	0.0005335	8
	40	170	30.04808	1239.286	-649.3212	1	1399.088	-27.6522	-5.58271E-007	0.0005043	8
	41	172	23.91582	1280.992	-783.428	1	1501.566	-31.44908	-5.354383E-007	0.0004819	8
	42	175	18.60119	1337.921	-965.124	1	1649.696	-35.80521	-6.491949E-007	0.0005095	8
	43	177	15.02404	1395.97	-1150.78	1	1809.151	-39.50076	-6.456015E-007	0.0005203	8
	44	179	12.01923	1471.188	-1382.907	1	2019.115	-43.22832	-5.257937E-007	0.0005127	8
	45	182	9.450605	1570.896	-1687.073	1	2305.196	-47.04226	-5.548672E-007	0.0004756	8
	46	184	7.512019	1690.221	-2035.412	1	2645.704	-50.29351	-5.519117E-007	0.000531	8
	47	187	5.978954	1840.897	-2452.771	1	3066.755	-53.1104	-5.344853E-007	0.0005063	8
	48	190	4.734848	2035.96	-2962.326	1	3594.511	-55.49987	-5.904754E-007	0.0005383	8
	49	193	3.75601	2286.143	-3576.43	1	4244.679	-57.41228	-3.741676E-007	0.0005453	7
	50	196	3.004808	2585.235	-4266.675	1	4988.783	-58.78778	-3.437258E-007	0.0004676	7
	51	200	2.372217	2994.373	-5119.1	1	5930.553	-59.67487	-3.457481E-007	0.0005212	7
	52	204	1.878005	3506.299	-6132.865	1	7064.43	-60.24241	-3.559695E-007	0.0004725	7
	53	209	1.512097	4078.792	-7215.321	1	8288.39	-60.5207	-2.868645E-007	0.000411	7
	54	215	1.201923	4876.565	-8530.84	1	9826.3	-60.24601	-2.922428E-007	0.0004685	7
	55	221	0.956633	5853.19	-10012.3	1	11597.67	-59.68945	-2.998666E-007	-0.0001528	7
