EXPLAIN
TAG	EISPOT
TITLE	LABEL	Potentiostatic EIS	Test Identifier
DATE	LABEL	9/6/2020	Date
TIME	LABEL	14:51:38	Time
NOTES	NOTES	1	Notes...
	
PSTAT	PSTAT	REF3000-16137	Potentiostat
VDC	POTEN	0.00000E+000	T	DC Voltage (V)
FREQINIT	QUANT	3.00000E+005	Initial Freq. (Hz)
FREQFINAL	QUANT	1.00000E+000	Final Freq. (Hz)
PTSPERDEC	QUANT	1.00000E+001	Points/decade
VAC	QUANT	5.00000E+001	AC Voltage (mV rms)
AREA	QUANT	1.00000E+000	Sample Area (cm^2)
SPEED	SELECTOR	2	Optimize for:
ZGUESS	QUANT	1.00000E+003	Estimated Z (ohms)
EOC	QUANT	0	Open Circuit (V)
SEQUENCER	TOGGLE	TRUE	Run as Sequence
PSTATMODEL	IQUANT	5	Pstat Model
PSTATSECTION	LABEL	REF3000-16137	Pstat Section
PSTATSERIALNO	LABEL	16137	Pstat Serial Number
CTRLMODE	IQUANT	1	Control Mode
IESTAB	IQUANT	0	I/E Stability
CASPEED	IQUANT	1	Control Amp Speed
CONVENTION	IQUANT	1	Current Convention
ICHRANGE	IQUANT	2	Ich Range
ICHRANGEMODE	TOGGLE	F	Ich Auto Range
ICHOFFSETENABLE	TOGGLE	T	Ich Offset Enable
ICHOFFSET	QUANT	0	Ich Offset (V)
ICHFILTER	IQUANT	3	Ich Filter
VCHRANGE	IQUANT	2	Vch Range
VCHRANGEMODE	TOGGLE	F	Vch Auto Range
VCHOFFSETENABLE	TOGGLE	T	Vch Offset Enable
VCHOFFSET	QUANT	0	Vch Offset (V)
VCHFILTER	IQUANT	3	Vch Filter
ACHRANGE	IQUANT	2	Ach Range
ACHOFFSETENABLE	TOGGLE	F	Ach Offset Enable
ACHOFFSET	QUANT	0	Ach Offset (V)
ACHFILTER	IQUANT	3	Ach Filter
IERANGELOWERLIMIT	IQUANT	2	I/E Range Lower Limit
IERANGEMODE	TOGGLE	F	I/E AutoRange
IERANGE	IQUANT	11	I/E Range
POSFEEDENABLE	TOGGLE	F	Positive Feedback IR Comp
POSFEEDRESISTANCE	QUANT	0	Positive Feedback Resistance (ohm)
ACHSELECT	IQUANT	0	Ach Select
CABLEID	IQUANT	13	Cable ID
DCCALDATE	LABEL	7/31/2020	DC Calibration Date
ACCALDATE	LABEL	7/31/2020	AC Calibration Date
THERMOSELECT	IQUANT	1	Thermo Select
FRAMEWORKVERSION	QUANT	6.33	Framework Version
INSTRUMENTVERSION	LABEL	3.50	Instrument Version
COMPLIANCEVOLTAGE	IQUANT	0	Compliance Voltage
ZCURVE	TABLE
	Pt	Time	Freq	Zreal	Zimag	Zsig	Zmod	Zphz	Idc	Vdc	IERange
	#	s	Hz	ohm	ohm	V	ohm	°	A	V	#
	0	17	300046.9	1325.733	-924.7316	1	1616.384	-34.89672	8.335176E-005	-0.0006388	9
	1	42	238359.4	1487.412	-885.6334	1	1731.11	-30.77038	0.0000963	-0.0018212	9
	2	56	189328.1	1666.876	-856.0466	1	1873.844	-27.18338	0.0001	-0.001742	9
	3	67	150421.9	1815.412	-787.5984	1	1978.896	-23.45313	-7.366939E-006	-0.0009801	9
	4	76	119484.4	2120.926	-670.683	1	2224.442	-17.54809	-7.417804E-005	0.0410527	8
	5	82	94921.88	2214.869	-595.2637	1	2293.465	-15.04323	-8.61765E-006	0.0104164	8
	6	87	75421.88	2293.753	-528.4693	1	2353.845	-12.97426	3.02416E-005	-0.0119803	8
	7	91	59859.37	2367.02	-471.7645	1	2413.575	-11.27177	-2.415398E-005	0.0111187	8
	8	98	47578.12	2421.346	-430.9922	1	2459.404	-10.09277	-3.231759E-006	-0.0046563	8
	9	103	37828.12	2470.186	-393.7387	1	2501.369	-9.056554	2.715806E-005	-0.0063855	8
	10	107	30046.88	2540.468	-347.7003	1	2564.151	-7.793349	-2.156201E-005	0.0101447	8
	11	115	23859.38	2583.507	-320.6357	1	2603.328	-7.074728	-1.172706E-005	-0.0015367	8
	12	120	18984.38	2643.755	-297.8765	1	2660.483	-6.428504	-8.254796E-006	0.0087997	8
	13	125	15046.87	2670.797	-320.784	1	2689.992	-6.848871	9.795431E-006	0.0004098	9
	14	130	11953.13	2744.742	-285.4954	1	2759.55	-5.938289	-2.52151E-005	0.007899	8
	15	136	9515.62	2788.257	-307.4862	1	2805.16	-6.293094	-1.43264E-005	0.0010047	9
	16	141	7546.875	2852.454	-281.1743	1	2866.279	-5.629618	-2.485419E-005	0.0061729	8
	17	146	5928.309	2911.987	-270.5429	1	2924.527	-5.307921	-9.274903E-006	0.0090995	8
	18	151	4733.456	2986.353	-291.2783	1	3000.525	-5.570806	2.664794E-005	-0.0078836	8
	19	156	3796.875	3045.544	-295.1663	1	3059.814	-5.53567	-3.171758E-006	-0.0047515	8
	20	162	2987.132	3130.79	-307.6932	1	3145.874	-5.612988	-2.397333E-006	0.0007749	9
	21	167	2390.625	3190.587	-303.9014	1	3205.028	-5.440972	-1.870694E-005	0.0016266	8
	22	172	1884.191	3247.011	-314.3249	1	3262.19	-5.529253	-2.711473E-005	0.000561	9
	23	178	1516.544	3338.344	-313.7272	1	3353.053	-5.368711	2.011748E-005	-0.0094227	8
	24	183	1193.986	3411.323	-319.7731	1	3426.278	-5.355185	-6.713454E-007	0.006962	8
	25	189	946.5144	3476.336	-278.6733	1	3487.488	-4.583197	2.4769E-005	-0.009145	8
	26	192	751.7689	3491.139	-302.6125	1	3504.23	-4.954026	-9.55183E-006	0.0093309	8
	27	196	597.4265	3612.103	-302.4566	1	3624.744	-4.786451	-2.476584E-005	0.0002994	9
	28	200	477.4305	3671.88	-313.6738	1	3685.254	-4.882691	-5.425198E-007	0.0005495	8
	29	203	376.6741	3747.878	-281.2734	1	3758.417	-4.291929	-1.908041E-007	0.0005403	7
	30	206	298.2954	3798.334	-296.2585	1	3809.87	-4.459867	-1.823793E-007	0.000458	7
	31	208	237.7717	3849.957	-316.9672	1	3862.983	-4.70655	-1.930398E-007	0.0005379	7
	32	210	189.0121	3901.723	-341.1118	1	3916.605	-4.996435	-1.986704E-007	0.0005455	7
	33	213	150.2404	3953.889	-370.3649	1	3971.197	-5.351341	-1.857074E-007	0.0004725	7
	34	215	119.1737	4008.757	-399.8745	1	4028.651	-5.696425	-1.852148E-007	0.0005166	7
	35	217	95.0169	4062.127	-451.6224	1	4087.155	-6.344023	-1.796336E-007	0.000462	7
	36	220	75.60484	4118.746	-508.1151	1	4149.97	-7.032842	-1.924216E-007	0.000496	7
	37	223	54.50582	4201.484	-608.6487	1	4245.341	-8.242821	-1.835527E-007	0.0004763	7
	38	225	45.95588	4250.317	-678.8187	1	4304.183	-9.074083	-2.078972E-007	0.0005428	7
	39	227	37.20238	4314.664	-778.4149	1	4384.319	-10.22681	-2.27404E-007	0.0005458	7
	40	230	30.04808	4382.896	-898.8112	1	4474.108	-11.58911	-2.175863E-007	0.0004602	7
	41	232	23.91582	4460.5	-1053.562	1	4583.236	-13.2896	-2.322997E-007	0.0004677	7
	42	235	18.60119	4559.411	-1280.98	1	4735.941	-15.69287	-8.204802E-008	0.0004979	7
	43	237	15.02404	4655.629	-1488.768	1	4887.874	-17.73313	-2.825946E-007	0.000536	7
	44	239	12.01923	4760.111	-1772.509	1	5079.414	-20.42367	-2.06343E-007	0.0004721	7
	45	242	9.450605	4892.383	-2138.53	1	5339.355	-23.61082	-1.684235E-007	0.0004759	7
	46	244	7.512019	5051.176	-2561.591	1	5663.58	-26.89083	-2.452939E-007	0.0005247	7
	47	247	5.978954	5239.085	-3077.521	1	6076.112	-30.43064	-2.294544E-007	0.0005488	7
	48	250	4.734848	5478.271	-3709.601	1	6616.086	-34.10382	-2.024117E-007	0.0004599	7
	49	253	3.75601	5764.162	-4469.751	1	7294.124	-37.79137	-1.928393E-007	0.0005541	7
	50	256	3.004808	6103.21	-5347.447	1	8114.455	-41.22386	-1.84441E-007	0.0005266	7
	51	260	2.372217	6559.945	-6449.931	1	9199.701	-44.51551	-1.978118E-007	0.0004353	7
	52	264	1.878005	7123.64	-7779.731	1	10548.48	-47.52071	-1.82576E-007	0.0005002	7
	53	269	1.512097	7771.202	-9226.629	1	12063.26	-49.89397	-1.909559E-007	0.000528	7
	54	274	1.201923	8668.104	-11047.82	1	14042.45	-51.88232	-1.863765E-007	0.0005064	7
	55	281	0.956633	9778.39	-13156.53	1	16392.41	-53.379	-2.171531E-007	-0.000131	7
