EXPLAIN
TAG	EISPOT
TITLE	LABEL	Potentiostatic EIS	Test Identifier
DATE	LABEL	8/18/2020	Date
TIME	LABEL	0:10:42	Time
NOTES	NOTES	1	Notes...
	
PSTAT	PSTAT	REF3000-16137	Potentiostat
VDC	POTEN	0.00000E+000	T	DC Voltage (V)
FREQINIT	QUANT	3.00000E+005	Initial Freq. (Hz)
FREQFINAL	QUANT	1.00000E+000	Final Freq. (Hz)
PTSPERDEC	QUANT	1.00000E+001	Points/decade
VAC	QUANT	5.00000E+001	AC Voltage (mV rms)
AREA	QUANT	1.00000E+000	Sample Area (cm^2)
SPEED	SELECTOR	2	Optimize for:
ZGUESS	QUANT	1.00000E+003	Estimated Z (ohms)
EOC	QUANT	0	Open Circuit (V)
SEQUENCER	TOGGLE	TRUE	Run as Sequence
PSTATMODEL	IQUANT	5	Pstat Model
PSTATSECTION	LABEL	REF3000-16137	Pstat Section
PSTATSERIALNO	LABEL	16137	Pstat Serial Number
CTRLMODE	IQUANT	1	Control Mode
IESTAB	IQUANT	0	I/E Stability
CASPEED	IQUANT	1	Control Amp Speed
CONVENTION	IQUANT	1	Current Convention
ICHRANGE	IQUANT	2	Ich Range
ICHRANGEMODE	TOGGLE	F	Ich Auto Range
ICHOFFSETENABLE	TOGGLE	T	Ich Offset Enable
ICHOFFSET	QUANT	0	Ich Offset (V)
ICHFILTER	IQUANT	3	Ich Filter
VCHRANGE	IQUANT	2	Vch Range
VCHRANGEMODE	TOGGLE	F	Vch Auto Range
VCHOFFSETENABLE	TOGGLE	T	Vch Offset Enable
VCHOFFSET	QUANT	0	Vch Offset (V)
VCHFILTER	IQUANT	3	Vch Filter
ACHRANGE	IQUANT	2	Ach Range
ACHOFFSETENABLE	TOGGLE	F	Ach Offset Enable
ACHOFFSET	QUANT	0	Ach Offset (V)
ACHFILTER	IQUANT	3	Ach Filter
IERANGELOWERLIMIT	IQUANT	2	I/E Range Lower Limit
IERANGEMODE	TOGGLE	F	I/E AutoRange
IERANGE	IQUANT	11	I/E Range
POSFEEDENABLE	TOGGLE	F	Positive Feedback IR Comp
POSFEEDRESISTANCE	QUANT	0	Positive Feedback Resistance (ohm)
ACHSELECT	IQUANT	0	Ach Select
CABLEID	IQUANT	13	Cable ID
DCCALDATE	LABEL	7/31/2020	DC Calibration Date
ACCALDATE	LABEL	7/31/2020	AC Calibration Date
THERMOSELECT	IQUANT	1	Thermo Select
FRAMEWORKVERSION	QUANT	6.33	Framework Version
INSTRUMENTVERSION	LABEL	3.50	Instrument Version
COMPLIANCEVOLTAGE	IQUANT	0	Compliance Voltage
ZCURVE	TABLE
	Pt	Time	Freq	Zreal	Zimag	Zsig	Zmod	Zphz	Idc	Vdc	IERange
	#	s	Hz	ohm	ohm	V	ohm	°	A	V	#
	0	17	300046.9	392.4021	-54.01451	1	396.1023	-7.837563	7.952463E-005	-0.0018763	9
	1	22	238359.4	392.656	-52.11143	1	396.0989	-7.559845	2.363905E-005	-0.0019504	9
	2	29	189328.1	393.3181	-54.18319	1	397.0327	-7.843652	-3.434265E-005	-0.0007669	9
	3	37	150421.9	396.5236	-57.25706	1	400.6362	-8.216581	-1.914861E-005	0.001168	9
	4	44	119484.4	401.4494	-50.04018	1	404.5561	-7.105201	-2.172935E-005	0.0137858	8
	5	47	94921.88	405.658	-57.03631	1	409.6481	-8.003435	2.559834E-006	-0.0035749	8
	6	50	75421.88	409.5758	-68.08047	1	415.1955	-9.437526	-3.646093E-006	-0.0018595	8
	7	52	59859.37	415.5912	-81.08334	1	423.4272	-11.03993	1.771054E-008	0.0039732	8
	8	55	47578.12	422.1289	-95.666	1	432.8335	-12.76911	-1.339687E-005	0.0029244	8
	9	57	37828.12	430.9258	-113.6221	1	445.6535	-14.77099	-1.442964E-005	0.0058812	8
	10	60	30046.88	440.4785	-133.2933	1	460.2048	-16.83636	1.048396E-005	-0.0049955	8
	11	62	23859.38	453.2231	-157.0546	1	479.6638	-19.11265	-1.057944E-005	0.0011994	8
	12	65	18984.38	468.493	-183.4545	1	503.1315	-21.38453	-1.406489E-005	0.005713	8
	13	67	15046.87	485.5123	-216.0137	1	531.3983	-23.9852	1.138173E-005	-8.009665E-005	8
	14	70	11953.13	510.7012	-252.2244	1	569.59	-26.28378	1.775452E-006	-0.0033449	8
	15	72	9515.62	536.1925	-292.214	1	610.6483	-28.58948	-2.597798E-006	-0.0019481	8
	16	74	7546.875	568.3817	-339.8751	1	662.2483	-30.87815	1.324464E-005	-0.004931	8
	17	77	5928.309	609.5086	-393.8524	1	725.6862	-32.86974	-1.223911E-005	0.0062132	8
	18	79	4733.456	656.1594	-453.2434	1	797.4802	-34.63486	-1.445902E-005	0.0049346	8
	19	82	3796.875	706.5035	-517.2103	1	875.5876	-36.20675	-1.391151E-005	0.0056653	8
	20	84	2987.132	773.6373	-592.8362	1	974.664	-37.46285	9.738201E-007	0.0036702	8
	21	87	2390.625	844.387	-670.947	1	1078.499	-38.47053	-8.98037E-006	0.0061265	8
	22	90	1884.191	931.8989	-765.5562	1	1206.031	-39.40315	1.311898E-005	-0.0048329	8
	23	93	1516.544	1025.198	-857.6523	1	1336.637	-39.91493	-3.236831E-006	-0.0017669	8
	24	96	1193.986	1136.995	-963.838	1	1490.55	-40.28815	1.041221E-005	-0.0048542	8
	25	99	946.5144	1263.413	-1087.407	1	1666.933	-40.71824	9.015827E-007	0.003712	8
	26	101	751.7689	1407.188	-1202.222	1	1850.815	-40.50871	-1.395333E-005	0.0057254	8
	27	104	597.4265	1574.744	-1347.089	1	2072.31	-40.5448	-9.022191E-006	0.0060031	8
	28	107	477.4305	1743.164	-1492.529	1	2294.833	-40.57074	-5.330591E-007	0.0006307	8
	29	109	376.6741	1950.001	-1656.681	1	2558.73	-40.35055	-5.276428E-007	0.0006293	8
	30	111	298.2954	2175.63	-1830.448	1	2843.221	-40.07531	-5.341223E-007	0.0006714	8
	31	114	237.7717	2415.277	-2011.48	1	3143.186	-39.78804	-5.352876E-007	0.000678	8
	32	116	189.0121	2678.779	-2209.179	1	3472.222	-39.51228	-5.140612E-007	0.000643	8
	33	118	150.2404	2963.083	-2425.25	1	3829.06	-39.29994	-5.082378E-007	0.0006319	8
	34	121	119.1737	3279.826	-2670.631	1	4229.601	-39.15455	-5.439919E-007	0.0006425	7
	35	123	95.0169	3606.811	-2936.476	1	4651.019	-39.15068	-5.450736E-007	0.000627	7
	36	126	75.60484	3963.176	-3239.019	1	5118.399	-39.2584	-5.430653E-007	0.000625	7
	37	128	54.50582	4530.264	-3749.053	1	5880.365	-39.6097	-5.419619E-007	0.0006342	7
	38	131	45.95588	4857.421	-4057.924	1	6329.398	-39.87562	-5.392067E-007	0.0006256	7
	39	133	37.20238	5301.099	-4489.222	1	6946.565	-40.25951	-5.512005E-007	0.0006036	7
	40	136	30.04808	5804.671	-4982.719	1	7649.947	-40.64273	-5.322876E-007	0.0005902	7
	41	138	23.91582	6418.412	-5582.65	1	8506.585	-41.01632	-5.49221E-007	0.0005975	7
	42	140	18.60119	7203.869	-6331.795	1	9591	-41.31365	-5.49214E-007	0.0006347	7
	43	143	15.02404	7981.475	-7041.387	1	10643.55	-41.41927	-5.676117E-007	0.0006152	7
	44	145	12.01923	8915.334	-7827.706	1	11864.07	-41.28329	-5.551971E-007	0.0006226	7
	45	147	9.450605	10081.95	-8738.535	1	13341.95	-40.91713	-5.434754E-007	0.0006327	7
	46	150	7.512019	11361.68	-9628.02	1	14892.5	-40.27832	-5.669306E-007	0.0006076	7
	47	153	5.978954	12794	-10524.37	1	16566.49	-39.44077	-5.572711E-007	0.0006049	7
	48	156	4.734848	14435.1	-11434.54	1	18415.24	-38.38396	-5.374806E-007	0.000646	7
	49	159	3.75601	16201.27	-12288.56	1	20334.45	-37.18009	-5.640689E-007	0.0005921	7
	50	162	3.004808	18048.38	-13011.57	1	22249.61	-35.78886	-5.586792E-007	0.000632	7
	51	166	2.372217	20088.56	-13695.95	1	24313.15	-34.28533	-5.625362E-007	0.0006388	7
	52	170	1.878005	22084.28	-14004.73	1	26150.48	-32.38079	-5.587316E-007	0.0006157	7
	53	179	1.512097	23939.48	-14326.79	1	27899.03	-30.89878	-5.548251E-007	0.0005294	7
	54	190	1.201923	25978.44	-14615.1	1	29807.39	-29.36148	-5.55524E-007	0.0006107	7
	55	203	0.956633	28070.23	-14910.5	1	31784.61	-27.9766	-5.713418E-007	-2.521878E-005	7
