EXPLAIN
TAG	EISPOT
TITLE	LABEL	Potentiostatic EIS	Test Identifier
DATE	LABEL	8/18/2020	Date
TIME	LABEL	0:24:12	Time
NOTES	NOTES	1	Notes...
	
PSTAT	PSTAT	REF3000-16137	Potentiostat
VDC	POTEN	0.00000E+000	T	DC Voltage (V)
FREQINIT	QUANT	3.00000E+005	Initial Freq. (Hz)
FREQFINAL	QUANT	1.00000E+000	Final Freq. (Hz)
PTSPERDEC	QUANT	1.00000E+001	Points/decade
VAC	QUANT	5.00000E+001	AC Voltage (mV rms)
AREA	QUANT	1.00000E+000	Sample Area (cm^2)
SPEED	SELECTOR	2	Optimize for:
ZGUESS	QUANT	1.00000E+003	Estimated Z (ohms)
EOC	QUANT	0	Open Circuit (V)
SEQUENCER	TOGGLE	TRUE	Run as Sequence
PSTATMODEL	IQUANT	5	Pstat Model
PSTATSECTION	LABEL	REF3000-16137	Pstat Section
PSTATSERIALNO	LABEL	16137	Pstat Serial Number
CTRLMODE	IQUANT	1	Control Mode
IESTAB	IQUANT	0	I/E Stability
CASPEED	IQUANT	1	Control Amp Speed
CONVENTION	IQUANT	1	Current Convention
ICHRANGE	IQUANT	2	Ich Range
ICHRANGEMODE	TOGGLE	F	Ich Auto Range
ICHOFFSETENABLE	TOGGLE	T	Ich Offset Enable
ICHOFFSET	QUANT	0	Ich Offset (V)
ICHFILTER	IQUANT	3	Ich Filter
VCHRANGE	IQUANT	2	Vch Range
VCHRANGEMODE	TOGGLE	F	Vch Auto Range
VCHOFFSETENABLE	TOGGLE	T	Vch Offset Enable
VCHOFFSET	QUANT	0	Vch Offset (V)
VCHFILTER	IQUANT	3	Vch Filter
ACHRANGE	IQUANT	2	Ach Range
ACHOFFSETENABLE	TOGGLE	F	Ach Offset Enable
ACHOFFSET	QUANT	0	Ach Offset (V)
ACHFILTER	IQUANT	3	Ach Filter
IERANGELOWERLIMIT	IQUANT	2	I/E Range Lower Limit
IERANGEMODE	TOGGLE	F	I/E AutoRange
IERANGE	IQUANT	11	I/E Range
POSFEEDENABLE	TOGGLE	F	Positive Feedback IR Comp
POSFEEDRESISTANCE	QUANT	0	Positive Feedback Resistance (ohm)
ACHSELECT	IQUANT	0	Ach Select
CABLEID	IQUANT	13	Cable ID
DCCALDATE	LABEL	7/31/2020	DC Calibration Date
ACCALDATE	LABEL	7/31/2020	AC Calibration Date
THERMOSELECT	IQUANT	1	Thermo Select
FRAMEWORKVERSION	QUANT	6.33	Framework Version
INSTRUMENTVERSION	LABEL	3.50	Instrument Version
COMPLIANCEVOLTAGE	IQUANT	0	Compliance Voltage
ZCURVE	TABLE
	Pt	Time	Freq	Zreal	Zimag	Zsig	Zmod	Zphz	Idc	Vdc	IERange
	#	s	Hz	ohm	ohm	V	ohm	°	A	V	#
	0	10	300046.9	343.6104	-44.14378	1	346.4344	-7.320714	2.82994E-005	-0.0017006	9
	1	15	238359.4	345.4987	-42.25562	1	348.0732	-6.97283	8.645109E-005	-0.0032823	9
	2	21	189328.1	348.1134	-45.96908	1	351.1354	-7.522501	-0.0001013	0.0035866	9
	3	28	150421.9	351.4487	-49.28965	1	354.8883	-7.983492	-9.970007E-006	0.001732	9
	4	36	119484.4	354.6882	-54.06111	1	358.7845	-8.666248	2.267668E-005	-0.0013717	9
	5	41	94921.88	359.3788	-60.69194	1	364.4676	-9.58567	2.892776E-005	-0.0009277	9
	6	43	75421.88	364.1873	-68.24415	1	370.5262	-10.61343	2.538847E-005	-0.000302	9
	7	46	59859.37	370.4638	-78.76797	1	378.7451	-12.00347	-2.501369E-005	0.0004482	9
	8	49	47578.12	376.8931	-91.24376	1	387.7807	-13.60915	2.776775E-005	-0.0004856	9
	9	51	37828.12	384.1332	-106.4791	1	398.6177	-15.49301	-2.262989E-005	0.000483	9
	10	54	30046.88	392.2117	-119.9236	1	410.1361	-17.00166	-1.977119E-006	-0.001473	8
	11	57	23859.38	403.6065	-142.9585	1	428.1768	-19.50429	-2.949618E-006	-0.001601	8
	12	59	18984.38	417.2228	-169.6182	1	450.3834	-22.12376	3.697249E-006	-0.0033062	8
	13	61	15046.87	433.8106	-200.6664	1	477.9734	-24.8237	-7.382029E-006	3.97685E-005	8
	14	64	11953.13	453.8084	-237.3014	1	512.1075	-27.60556	-1.301487E-005	0.002865	8
	15	66	9515.62	476.5657	-276.564	1	551.0013	-30.12776	-1.087704E-005	0.0017217	8
	16	68	7546.875	506.1783	-323.5917	1	600.7729	-32.59013	-1.267411E-005	0.002725	8
	17	71	5928.309	544.1768	-381.8187	1	664.7661	-35.05521	-1.136213E-005	0.005915	8
	18	73	4733.456	584.9804	-442.6798	1	733.599	-37.11636	1.419386E-005	-0.0031872	8
	19	76	3796.875	632.9388	-512.8514	1	814.6337	-39.01682	1.521926E-006	0.0033986	8
	20	78	2987.132	696.8358	-588.9315	1	912.3708	-40.20286	-3.855329E-006	0.004893	8
	21	81	2390.625	764.8369	-675.0878	1	1020.156	-41.43343	-8.193964E-006	0.0003089	8
	22	83	1884.191	851.1068	-779.9534	1	1154.431	-42.50211	6.636001E-006	0.0014506	8
	23	86	1516.544	941.2723	-880.2356	1	1288.724	-43.0808	-1.378861E-005	0.0039398	8
	24	89	1193.986	1052.166	-1001.516	1	1452.614	-43.58718	1.079561E-005	-0.000459	8
	25	92	946.5144	1181.775	-1132.334	1	1636.696	-43.77605	-1.39757E-005	0.004689	8
	26	95	751.7689	1329.988	-1281.137	1	1846.667	-43.9282	1.340045E-005	-0.0020758	8
	27	97	597.4265	1501.011	-1447.237	1	2085.073	-43.95507	1.38981E-005	-0.003991	8
	28	100	477.4305	1682.235	-1606.068	1	2325.805	-43.6731	-4.177298E-007	0.0006281	8
	29	102	376.6741	1900.946	-1796.383	1	2615.452	-43.38006	-4.416514E-007	0.0006442	8
	30	104	298.2954	2140.121	-1998.993	1	2928.497	-43.04719	-4.284623E-007	0.0006678	8
	31	107	237.7717	2393.815	-2212.831	1	3259.904	-42.75014	-4.022665E-007	0.0006237	8
	32	109	189.0121	2673.023	-2450.501	1	3626.294	-42.51313	-4.137393E-007	0.0006402	8
	33	112	150.2404	2982.989	-2718.789	1	4036.092	-42.34702	-4.306423E-007	0.0005936	7
	34	114	119.1737	3314.507	-3020.761	1	4484.524	-42.34528	-4.303187E-007	0.000594	7
	35	116	95.0169	3664.746	-3356.58	1	4969.607	-42.4869	-4.363643E-007	0.0006258	7
	36	119	75.60484	4052.225	-3747.584	1	5519.503	-42.76331	-4.365513E-007	0.0006155	7
	37	121	54.50582	4677.284	-4414.33	1	6431.43	-43.34331	-4.317302E-007	0.0006209	7
	38	124	45.95588	5047.647	-4821.947	1	6980.682	-43.68998	-4.381224E-007	0.0006156	7
	39	126	37.20238	5554.288	-5392.739	1	7741.56	-44.15453	-4.314391E-007	0.0006517	7
	40	129	30.04808	6130.55	-6050.977	1	8613.823	-44.62573	-4.321373E-007	0.0005981	7
	41	131	23.91582	6836.232	-6853.908	1	9680.4	-45.07397	-4.413638E-007	0.0006036	7
	42	134	18.60119	7748.659	-7873.553	1	11046.92	-45.45805	-4.577378E-007	0.0006222	7
	43	136	15.02404	8664.143	-8844.198	1	12380.92	-45.58921	-4.187949E-007	0.0006376	7
	44	138	12.01923	9767.38	-9966.47	1	13954.65	-45.57803	-4.27208E-007	0.0006032	7
	45	141	9.450605	11157.12	-11292.22	1	15874.37	-45.34479	-4.147313E-007	0.0006011	7
	46	143	7.512019	12712.54	-12678.08	1	17953.89	-44.92223	-4.372103E-007	0.0006219	7
	47	146	5.978954	14478.49	-14155.55	1	20248.61	-44.35384	-4.279462E-007	0.0006232	7
	48	149	4.734848	16549.6	-15759.07	1	22852.51	-43.59836	-4.154979E-007	0.0006648	7
	49	152	3.75601	18892.48	-17401.37	1	25685.28	-42.64736	-4.343636E-007	0.000583	7
	50	155	3.004808	21457.2	-18999.77	1	28660.13	-41.52402	-4.220698E-007	0.0005905	7
	51	159	2.372217	24412.4	-20691.81	1	32001.82	-40.28442	-4.27474E-007	0.0006487	7
	52	163	1.878005	27688.33	-22356.2	1	35587.12	-38.91821	-4.298452E-007	0.0006124	7
	53	168	1.512097	30892.22	-23891.32	1	39052.84	-37.71753	-4.243891E-007	0.0005335	7
	54	174	1.201923	34511.4	-25504.16	1	42912.69	-36.46465	-4.2266E-007	0.000604	7
	55	180	0.956633	38346.09	-27064.28	1	46935.04	-35.21405	-4.278329E-007	-2.744133E-005	7
