EXPLAIN
TAG	EISPOT
TITLE	LABEL	Potentiostatic EIS	Test Identifier
DATE	LABEL	8/18/2020	Date
TIME	LABEL	0:54:20	Time
NOTES	NOTES	1	Notes...
	
PSTAT	PSTAT	REF3000-16137	Potentiostat
VDC	POTEN	0.00000E+000	T	DC Voltage (V)
FREQINIT	QUANT	3.00000E+005	Initial Freq. (Hz)
FREQFINAL	QUANT	1.00000E+000	Final Freq. (Hz)
PTSPERDEC	QUANT	1.00000E+001	Points/decade
VAC	QUANT	5.00000E+001	AC Voltage (mV rms)
AREA	QUANT	1.00000E+000	Sample Area (cm^2)
SPEED	SELECTOR	2	Optimize for:
ZGUESS	QUANT	1.00000E+003	Estimated Z (ohms)
EOC	QUANT	0	Open Circuit (V)
SEQUENCER	TOGGLE	TRUE	Run as Sequence
PSTATMODEL	IQUANT	5	Pstat Model
PSTATSECTION	LABEL	REF3000-16137	Pstat Section
PSTATSERIALNO	LABEL	16137	Pstat Serial Number
CTRLMODE	IQUANT	1	Control Mode
IESTAB	IQUANT	0	I/E Stability
CASPEED	IQUANT	1	Control Amp Speed
CONVENTION	IQUANT	1	Current Convention
ICHRANGE	IQUANT	2	Ich Range
ICHRANGEMODE	TOGGLE	F	Ich Auto Range
ICHOFFSETENABLE	TOGGLE	T	Ich Offset Enable
ICHOFFSET	QUANT	0	Ich Offset (V)
ICHFILTER	IQUANT	3	Ich Filter
VCHRANGE	IQUANT	2	Vch Range
VCHRANGEMODE	TOGGLE	F	Vch Auto Range
VCHOFFSETENABLE	TOGGLE	T	Vch Offset Enable
VCHOFFSET	QUANT	0	Vch Offset (V)
VCHFILTER	IQUANT	3	Vch Filter
ACHRANGE	IQUANT	2	Ach Range
ACHOFFSETENABLE	TOGGLE	F	Ach Offset Enable
ACHOFFSET	QUANT	0	Ach Offset (V)
ACHFILTER	IQUANT	3	Ach Filter
IERANGELOWERLIMIT	IQUANT	2	I/E Range Lower Limit
IERANGEMODE	TOGGLE	F	I/E AutoRange
IERANGE	IQUANT	11	I/E Range
POSFEEDENABLE	TOGGLE	F	Positive Feedback IR Comp
POSFEEDRESISTANCE	QUANT	0	Positive Feedback Resistance (ohm)
ACHSELECT	IQUANT	0	Ach Select
CABLEID	IQUANT	13	Cable ID
DCCALDATE	LABEL	7/31/2020	DC Calibration Date
ACCALDATE	LABEL	7/31/2020	AC Calibration Date
THERMOSELECT	IQUANT	1	Thermo Select
FRAMEWORKVERSION	QUANT	6.33	Framework Version
INSTRUMENTVERSION	LABEL	3.50	Instrument Version
COMPLIANCEVOLTAGE	IQUANT	0	Compliance Voltage
ZCURVE	TABLE
	Pt	Time	Freq	Zreal	Zimag	Zsig	Zmod	Zphz	Idc	Vdc	IERange
	#	s	Hz	ohm	ohm	V	ohm	°	A	V	#
	0	20	300046.9	942.499	-234.6039	1	971.259	-13.97782	4.927871E-005	-0.0001024	9
	1	36	238359.4	978.416	-205.0193	1	999.666	-11.83464	8.049168E-005	-0.001655	9
	2	55	189328.1	1004.507	-193.0431	1	1022.888	-10.8783	-9.090675E-005	0.0022714	9
	3	63	150421.9	1029.528	-175.6313	1	1044.402	-9.68112	5.216698E-005	0.0001001	9
	4	71	119484.4	1050.434	-126.6263	1	1058.039	-6.873644	5.30216E-005	-0.0216093	8
	5	77	94921.88	1061.652	-128.3698	1	1069.385	-6.894456	1.973764E-005	-0.0071377	8
	6	80	75421.88	1073.311	-131.8793	1	1081.383	-7.004905	4.576368E-006	-0.0054037	8
	7	83	59859.37	1083.678	-139.5282	1	1092.623	-7.336712	-1.38735E-005	0.0087277	8
	8	86	47578.12	1096.548	-153.5219	1	1107.242	-7.969876	-2.042561E-005	0.006384	8
	9	88	37828.12	1111.587	-170.2799	1	1124.553	-8.709229	-2.166271E-005	0.0065282	8
	10	92	30046.88	1129.797	-191.9671	1	1145.989	-9.6432	8.668104E-006	0.0026222	8
	11	95	23859.38	1147.666	-220.6757	1	1168.689	-10.88412	8.604237E-006	0.0026891	8
	12	98	18984.38	1172.257	-251.4462	1	1198.921	-12.10636	-2.083748E-005	0.0065889	8
	13	101	15046.87	1195.574	-293.2499	1	1231.013	-13.78141	1.637203E-005	-0.0073121	8
	14	104	11953.13	1225.233	-338.3421	1	1271.091	-15.43723	7.611792E-006	0.0028252	8
	15	108	9515.62	1259.692	-395.8412	1	1320.422	-17.44462	-1.424193E-005	0.0012568	8
	16	111	7546.875	1297.29	-460.4509	1	1376.581	-19.54145	6.85116E-008	0.0056955	8
	17	114	5928.309	1347.066	-546.8451	1	1453.832	-22.09483	-2.068177E-005	0.0064802	8
	18	118	4733.456	1399.534	-642.4631	1	1539.953	-24.65772	8.284769E-006	0.0027459	8
	19	122	3796.875	1462.281	-748.2139	1	1642.587	-27.09772	-8.150892E-006	0.0076243	8
	20	127	2987.132	1538.468	-891.2714	1	1777.99	-30.08475	4.898914E-006	-0.0055843	8
	21	131	2390.625	1639.023	-1042.39	1	1942.414	-32.45567	2.133545E-005	-0.006033	8
	22	135	1884.191	1752.872	-1222.737	1	2137.205	-34.89817	2.160278E-005	-0.0060948	8
	23	139	1516.544	1878.873	-1421.072	1	2355.761	-37.10178	-2.079917E-005	0.0065336	8
	24	143	1193.986	2043.996	-1669.051	1	2638.873	-39.2338	-1.840212E-005	0.0087906	8
	25	148	946.5144	2247.849	-1911.699	1	2950.833	-40.37973	2.11716E-005	-0.0043798	8
	26	151	751.7689	2481.373	-2200.161	1	3316.311	-41.56247	-9.932543E-006	-0.0001777	9
	27	155	597.4265	2680.353	-2614.743	1	3744.485	-44.2901	2.035785E-005	-0.0071328	8
	28	159	477.4305	3017.667	-2949.79	1	4219.903	-44.34832	-3.024434E-007	0.0006558	8
	29	162	376.6741	3389.85	-3400.925	1	4801.81	-45.09344	-1.136043E-007	0.0005801	7
	30	165	298.2954	3802.708	-3899.287	1	5446.562	-45.71842	-1.113683E-007	0.0005784	7
	31	167	237.7717	4266.28	-4442.288	1	6159.146	-46.15784	-1.098931E-007	0.000591	7
	32	169	189.0121	4805.665	-5055.423	1	6975.078	-46.45086	-1.151989E-007	0.0006383	7
	33	172	150.2404	5421.932	-5737.746	1	7894.243	-46.62101	-1.177448E-007	0.000632	7
	34	174	119.1737	6126.251	-6504.857	1	8935.554	-46.71688	-1.194988E-007	0.000636	7
	35	177	95.0169	6894.236	-7333.162	1	10065.08	-46.76706	-1.191655E-007	0.0006333	7
	36	179	75.60484	7755.531	-8273.29	1	11340	-46.85011	-1.128734E-007	0.0005945	7
	37	182	54.50582	9143.339	-9833.35	1	13427.41	-47.08242	-1.199517E-007	0.0006315	7
	38	184	45.95588	9957.76	-10787.78	1	14681.05	-47.29118	-1.212823E-007	0.0006269	7
	39	186	37.20238	11051.33	-12112.3	1	16396.33	-47.62251	-1.219762E-007	0.0006424	7
	40	189	30.04808	12287.61	-13649.15	1	18365.31	-48.00494	-1.181509E-007	0.0006414	7
	41	191	23.91582	13765.55	-15536.25	1	20757.3	-48.45816	-1.184361E-007	0.0006336	7
	42	194	18.60119	15656.01	-17981.68	1	23842.22	-48.95507	-1.154828E-007	0.0006192	7
	43	196	15.02404	17498.73	-20385.13	1	26865.57	-49.35699	-1.26372E-007	0.0006335	7
	44	198	12.01923	19697.21	-23270.93	1	30487.97	-49.75443	-1.104936E-007	0.0005962	7
	45	201	9.450605	22461.13	-26814.38	1	34978.76	-50.04869	-1.225424E-007	0.0006	7
	46	203	7.512019	25508.19	-30737.93	1	39943.57	-50.31207	-1.20791E-007	0.000611	7
	47	206	5.978954	29141.17	-35202.03	1	45698.91	-50.38115	-7.206211E-008	0.0006692	6
	48	209	4.734848	33426.28	-40310.36	1	52366.41	-50.33369	-7.376998E-008	0.0006397	6
	49	212	3.75601	38483.89	-46062.61	1	60023.11	-50.12228	-6.562442E-008	0.0006457	6
	50	216	3.004808	44117.11	-52238.18	1	68375.05	-49.81765	-6.538811E-008	0.0006395	6
	51	220	2.372217	51171.04	-59438.28	1	78430.77	-49.27449	-6.80907E-008	0.0005839	6
	52	224	1.878005	59046.08	-67408.1	1	89611.9	-48.78328	-6.538949E-008	0.0006626	6
	53	229	1.512097	67392.48	-75411.19	1	101136.5	-48.21389	-6.467839E-008	0.000609	6
	54	234	1.201923	77752.47	-84877.34	1	115107	-47.50854	-6.551922E-008	0.000707	6
	55	241	0.956633	89328.37	-95166.7	1	130523	-46.81251	-6.869532E-008	1.896333E-005	6
