EXPLAIN
TAG	EISPOT
TITLE	LABEL	Potentiostatic EIS	Test Identifier
DATE	LABEL	8/18/2020	Date
TIME	LABEL	0:50:22	Time
NOTES	NOTES	1	Notes...
	
PSTAT	PSTAT	REF3000-16137	Potentiostat
VDC	POTEN	0.00000E+000	T	DC Voltage (V)
FREQINIT	QUANT	3.00000E+005	Initial Freq. (Hz)
FREQFINAL	QUANT	1.00000E+000	Final Freq. (Hz)
PTSPERDEC	QUANT	1.00000E+001	Points/decade
VAC	QUANT	5.00000E+001	AC Voltage (mV rms)
AREA	QUANT	1.00000E+000	Sample Area (cm^2)
SPEED	SELECTOR	2	Optimize for:
ZGUESS	QUANT	1.00000E+003	Estimated Z (ohms)
EOC	QUANT	0	Open Circuit (V)
SEQUENCER	TOGGLE	TRUE	Run as Sequence
PSTATMODEL	IQUANT	5	Pstat Model
PSTATSECTION	LABEL	REF3000-16137	Pstat Section
PSTATSERIALNO	LABEL	16137	Pstat Serial Number
CTRLMODE	IQUANT	1	Control Mode
IESTAB	IQUANT	0	I/E Stability
CASPEED	IQUANT	1	Control Amp Speed
CONVENTION	IQUANT	1	Current Convention
ICHRANGE	IQUANT	2	Ich Range
ICHRANGEMODE	TOGGLE	F	Ich Auto Range
ICHOFFSETENABLE	TOGGLE	T	Ich Offset Enable
ICHOFFSET	QUANT	0	Ich Offset (V)
ICHFILTER	IQUANT	3	Ich Filter
VCHRANGE	IQUANT	2	Vch Range
VCHRANGEMODE	TOGGLE	F	Vch Auto Range
VCHOFFSETENABLE	TOGGLE	T	Vch Offset Enable
VCHOFFSET	QUANT	0	Vch Offset (V)
VCHFILTER	IQUANT	3	Vch Filter
ACHRANGE	IQUANT	2	Ach Range
ACHOFFSETENABLE	TOGGLE	F	Ach Offset Enable
ACHOFFSET	QUANT	0	Ach Offset (V)
ACHFILTER	IQUANT	3	Ach Filter
IERANGELOWERLIMIT	IQUANT	2	I/E Range Lower Limit
IERANGEMODE	TOGGLE	F	I/E AutoRange
IERANGE	IQUANT	11	I/E Range
POSFEEDENABLE	TOGGLE	F	Positive Feedback IR Comp
POSFEEDRESISTANCE	QUANT	0	Positive Feedback Resistance (ohm)
ACHSELECT	IQUANT	0	Ach Select
CABLEID	IQUANT	13	Cable ID
DCCALDATE	LABEL	7/31/2020	DC Calibration Date
ACCALDATE	LABEL	7/31/2020	AC Calibration Date
THERMOSELECT	IQUANT	1	Thermo Select
FRAMEWORKVERSION	QUANT	6.33	Framework Version
INSTRUMENTVERSION	LABEL	3.50	Instrument Version
COMPLIANCEVOLTAGE	IQUANT	0	Compliance Voltage
ZCURVE	TABLE
	Pt	Time	Freq	Zreal	Zimag	Zsig	Zmod	Zphz	Idc	Vdc	IERange
	#	s	Hz	ohm	ohm	V	ohm	°	A	V	#
	0	18	300046.9	763.7836	-158.2503	1	780.0055	-11.70563	2.810486E-005	0.0007623	9
	1	30	238359.4	781.7838	-140.2697	1	794.2679	-10.17193	-9.037385E-005	0.0040238	9
	2	44	189328.1	798.8862	-132.0216	1	809.7215	-9.383722	-3.300082E-005	-0.0009275	9
	3	55	150421.9	813.4229	-124.8858	1	822.954	-8.728534	-2.027328E-005	0.0016345	9
	4	64	119484.4	833.5406	-87.95513	1	838.1683	-6.023555	3.084464E-005	-0.015237	8
	5	70	94921.88	838.0334	-94.28345	1	843.3205	-6.419104	2.006206E-005	-0.005796	8
	6	73	75421.88	846.9486	-102.7176	1	853.1547	-6.915037	4.766545E-007	0.005138	8
	7	75	59859.37	856.4249	-113.2809	1	863.8844	-7.534881	-8.805565E-006	-0.0006691	8
	8	78	47578.12	870.0195	-128.772	1	879.4976	-8.419252	-1.95946E-005	0.0079606	8
	9	81	37828.12	878.5189	-147.4217	1	890.8022	-9.52589	1.972117E-005	-0.0055506	8
	10	83	30046.88	892.053	-167.4629	1	907.6356	-10.63225	7.972339E-006	0.002145	8
	11	86	23859.38	912.6622	-195.0557	1	933.2733	-12.06385	4.193605E-007	0.0051575	8
	12	89	18984.38	930.4666	-225.5411	1	957.412	-13.62545	-1.385579E-005	0.0087361	8
	13	93	15046.87	953.049	-261.8958	1	988.378	-15.36549	-1.943277E-005	0.0061154	8
	14	95	11953.13	976.979	-305.4362	1	1023.61	-17.36099	-1.676563E-005	0.0081818	8
	15	98	9515.62	1006.429	-360.8382	1	1069.16	-19.72444	1.397715E-005	-0.0003839	8
	16	101	7546.875	1040.867	-425.5862	1	1124.512	-22.2385	-9.441615E-006	-0.0005457	8
	17	104	5928.309	1083.722	-503.394	1	1194.931	-24.91509	-1.857542E-005	0.0048016	8
	18	107	4733.456	1132.358	-592.1987	1	1277.863	-27.60859	-1.933048E-005	0.0061459	8
	19	111	3796.875	1189.621	-689.3985	1	1374.943	-30.09276	8.309098E-006	0.0024374	8
	20	114	2987.132	1265.117	-819.1521	1	1507.16	-32.9227	-1.376197E-005	0.0014975	8
	21	118	2390.625	1350.299	-956.118	1	1654.53	-35.30152	1.422444E-005	-0.0003815	8
	22	122	1884.191	1458.145	-1119.983	1	1838.627	-37.52742	1.455894E-005	-0.0003932	8
	23	126	1516.544	1580.035	-1292.717	1	2041.477	-39.28856	-1.945241E-005	0.0062284	8
	24	130	1193.986	1734.894	-1515.143	1	2303.371	-41.13184	-7.051341E-006	0.0072691	8
	25	135	946.5144	1927.641	-1744.986	1	2600.149	-42.15279	2.012219E-005	-0.0057467	8
	26	137	751.7689	2107.61	-2011.251	1	2913.271	-43.65983	1.460024E-005	-0.0003399	8
	27	141	597.4265	2341.244	-2330.662	1	3303.545	-44.87022	2.035764E-005	-0.0057909	8
	28	145	477.4305	2621.2	-2651.112	1	3728.147	-45.32505	-2.71986E-007	0.0006424	8
	29	148	376.6741	2960.996	-3046.764	1	4248.561	-45.81792	-1.381251E-007	0.0006155	7
	30	151	298.2954	3337.768	-3480.844	1	4822.548	-46.20208	-1.330226E-007	0.0005767	7
	31	153	237.7717	3758.685	-3950.132	1	5452.638	-46.42264	-1.309379E-007	0.0005752	7
	32	155	189.0121	4243.828	-4476.205	1	6168.183	-46.52649	-1.357397E-007	0.0006183	7
	33	158	150.2404	4791.477	-5059.066	1	6967.955	-46.55605	-1.330091E-007	0.0005728	7
	34	160	119.1737	5407.875	-5713.607	1	7867.047	-46.57468	-1.346722E-007	0.0006041	7
	35	163	95.0169	6080.737	-6424.608	1	8845.956	-46.57512	-1.313368E-007	0.000575	7
	36	165	75.60484	6826.788	-7237.531	1	9949.22	-46.67282	-1.385229E-007	0.0006214	7
	37	168	54.50582	8025.158	-8606.85	1	11767.8	-47.00306	-1.354289E-007	0.0006288	7
	38	170	45.95588	8736.712	-9440.111	1	12862.58	-47.2161	-1.428057E-007	0.0006179	7
	39	173	37.20238	9694.49	-10607.66	1	14370.3	-47.57537	-1.396087E-007	0.0005841	7
	40	175	30.04808	10782.88	-11961.57	1	16104.34	-47.96662	-1.338553E-007	0.0006137	7
	41	177	23.91582	12100.74	-13627.51	1	18224.63	-48.39607	-1.353055E-007	0.0006153	7
	42	180	18.60119	13763.63	-15760.25	1	20924.22	-48.86888	-1.397728E-007	0.0005818	7
	43	182	15.02404	15424.45	-17851.77	1	23592.36	-49.17202	-1.477523E-007	0.0006068	7
	44	184	12.01923	17397.8	-20332.51	1	26759.94	-49.44759	-1.335561E-007	0.000577	7
	45	187	9.450605	19904.83	-23390.06	1	30713.15	-49.60238	-1.332819E-007	0.0006027	7
	46	189	7.512019	22678.67	-26738.39	1	35060.86	-49.69643	-1.355001E-007	0.0006358	7
	47	192	5.978954	25915.08	-30471.11	1	40001	-49.61949	-1.265224E-007	0.0005867	7
	48	195	4.734848	29763.53	-34757.27	1	45759.54	-49.42572	-9.013998E-008	0.0006802	6
	49	198	3.75601	34246.55	-39452.25	1	52242.77	-49.04037	-9.774294E-008	0.0006818	6
	50	202	3.004808	39228.11	-44537.24	1	59349.89	-48.62662	-9.483158E-008	0.000697	6
	51	208	2.372217	45414.44	-50421.93	1	67858.98	-47.99101	-9.284024E-008	0.0007349	6
	52	212	1.878005	52265.93	-56837.25	1	77215.29	-47.39923	-9.593065E-008	0.000634	6
	53	217	1.512097	59474.85	-63246.7	1	86818.22	-46.76043	-9.415219E-008	0.000676	6
	54	222	1.201923	68351.34	-70693.06	1	98333.2	-45.96486	-9.192901E-008	0.0006305	6
	55	229	0.956633	78264.23	-78724.51	1	111008.3	-45.16798	-9.463549E-008	2.132309E-005	6
