EXPLAIN
TAG	EISPOT
TITLE	LABEL	Potentiostatic EIS	Test Identifier
DATE	LABEL	8/18/2020	Date
TIME	LABEL	0:36:34	Time
NOTES	NOTES	1	Notes...
	
PSTAT	PSTAT	REF3000-16137	Potentiostat
VDC	POTEN	0.00000E+000	T	DC Voltage (V)
FREQINIT	QUANT	3.00000E+005	Initial Freq. (Hz)
FREQFINAL	QUANT	1.00000E+000	Final Freq. (Hz)
PTSPERDEC	QUANT	1.00000E+001	Points/decade
VAC	QUANT	5.00000E+001	AC Voltage (mV rms)
AREA	QUANT	1.00000E+000	Sample Area (cm^2)
SPEED	SELECTOR	2	Optimize for:
ZGUESS	QUANT	1.00000E+003	Estimated Z (ohms)
EOC	QUANT	0	Open Circuit (V)
SEQUENCER	TOGGLE	TRUE	Run as Sequence
PSTATMODEL	IQUANT	5	Pstat Model
PSTATSECTION	LABEL	REF3000-16137	Pstat Section
PSTATSERIALNO	LABEL	16137	Pstat Serial Number
CTRLMODE	IQUANT	1	Control Mode
IESTAB	IQUANT	0	I/E Stability
CASPEED	IQUANT	1	Control Amp Speed
CONVENTION	IQUANT	1	Current Convention
ICHRANGE	IQUANT	2	Ich Range
ICHRANGEMODE	TOGGLE	F	Ich Auto Range
ICHOFFSETENABLE	TOGGLE	T	Ich Offset Enable
ICHOFFSET	QUANT	0	Ich Offset (V)
ICHFILTER	IQUANT	3	Ich Filter
VCHRANGE	IQUANT	2	Vch Range
VCHRANGEMODE	TOGGLE	F	Vch Auto Range
VCHOFFSETENABLE	TOGGLE	T	Vch Offset Enable
VCHOFFSET	QUANT	0	Vch Offset (V)
VCHFILTER	IQUANT	3	Vch Filter
ACHRANGE	IQUANT	2	Ach Range
ACHOFFSETENABLE	TOGGLE	F	Ach Offset Enable
ACHOFFSET	QUANT	0	Ach Offset (V)
ACHFILTER	IQUANT	3	Ach Filter
IERANGELOWERLIMIT	IQUANT	2	I/E Range Lower Limit
IERANGEMODE	TOGGLE	F	I/E AutoRange
IERANGE	IQUANT	11	I/E Range
POSFEEDENABLE	TOGGLE	F	Positive Feedback IR Comp
POSFEEDRESISTANCE	QUANT	0	Positive Feedback Resistance (ohm)
ACHSELECT	IQUANT	0	Ach Select
CABLEID	IQUANT	13	Cable ID
DCCALDATE	LABEL	7/31/2020	DC Calibration Date
ACCALDATE	LABEL	7/31/2020	AC Calibration Date
THERMOSELECT	IQUANT	1	Thermo Select
FRAMEWORKVERSION	QUANT	6.33	Framework Version
INSTRUMENTVERSION	LABEL	3.50	Instrument Version
COMPLIANCEVOLTAGE	IQUANT	0	Compliance Voltage
ZCURVE	TABLE
	Pt	Time	Freq	Zreal	Zimag	Zsig	Zmod	Zphz	Idc	Vdc	IERange
	#	s	Hz	ohm	ohm	V	ohm	°	A	V	#
	0	9	300046.9	428.9789	-57.68221	1	432.8396	-7.658283	-6.482209E-005	0.0005966	9
	1	14	238359.4	430.9005	-55.38174	1	434.4449	-7.323823	-4.101858E-006	-0.0018091	9
	2	21	189328.1	436.6445	-56.78834	1	440.3219	-7.41008	-1.068722E-005	0.0015618	9
	3	30	150421.9	442.7644	-58.91556	1	446.6669	-7.579425	2.8245E-005	0.0008625	9
	4	36	119484.4	450.6134	-46.09841	1	452.9652	-5.841122	4.043486E-005	-0.0166862	8
	5	39	94921.88	454.6302	-54.45607	1	457.88	-6.830404	1.400321E-005	-0.0051004	8
	6	42	75421.88	458.6767	-63.82803	1	463.0965	-7.922228	-7.936374E-006	-0.0001045	8
	7	44	59859.37	464.9939	-76.76003	1	471.287	-9.373708	-1.539393E-005	0.0051404	8
	8	47	47578.12	471.1325	-90.31889	1	479.7117	-10.85227	1.574115E-005	-0.0045934	8
	9	49	37828.12	479.9542	-105.9006	1	491.4987	-12.44279	-3.448392E-006	-0.0017416	8
	10	52	30046.88	489.4146	-125.5506	1	505.262	-14.38795	-1.16593E-005	0.0017136	8
	11	54	23859.38	500.102	-150.0372	1	522.1237	-16.69994	1.490388E-005	-0.0053769	8
	12	57	18984.38	514.0905	-176.0838	1	543.41	-18.90711	-1.512028E-005	0.0051352	8
	13	59	15046.87	529.969	-209.3608	1	569.8237	-21.55618	-1.010566E-005	0.0003595	8
	14	62	11953.13	548.6313	-247.0697	1	601.6974	-24.24387	1.39454E-005	-0.0038791	8
	15	64	9515.62	571.332	-292.4276	1	641.8209	-27.10495	-9.690721E-006	0.006413	8
	16	67	7546.875	604.919	-345.8051	1	696.7841	-29.75467	-1.198601E-005	0.0017491	8
	17	69	5928.309	637.3509	-409.6886	1	757.668	-32.73287	-7.958804E-006	-7.455797E-005	8
	18	71	4733.456	679.7446	-480.2818	1	832.3	-35.24358	1.4431E-005	-0.0051908	8
	19	74	3796.875	731.6329	-557.9266	1	920.0917	-37.32832	-2.451555E-006	-0.0023665	8
	20	77	2987.132	793.8393	-652.8108	1	1027.785	-39.43204	-1.170438E-005	0.0017045	8
	21	79	2390.625	866.4028	-754.7064	1	1149.015	-41.05848	-1.49154E-005	0.0061353	8
	22	82	1884.191	956.528	-872.4262	1	1294.633	-42.36718	1.615545E-005	-0.0035783	8
	23	85	1516.544	1054.488	-998.659	1	1452.33	-43.44239	6.953617E-006	0.0018673	8
	24	89	1193.986	1177.033	-1153.768	1	1648.208	-44.42812	1.16619E-005	-0.0053063	8
	25	92	946.5144	1317.52	-1314.182	1	1860.896	-44.92733	-1.521345E-005	0.005181	8
	26	95	751.7689	1481.386	-1517.407	1	2120.62	-45.6882	-1.496134E-005	0.0041551	8
	27	98	597.4265	1682.926	-1738.994	1	2419.988	-45.93871	-1.493857E-005	0.0061397	8
	28	100	477.4305	1887.934	-1945.295	1	2710.806	-45.85731	-2.800238E-007	0.000629	8
	29	104	376.6741	2145.546	-2203.444	1	3075.472	-45.76273	-3.151424E-007	0.000639	8
	30	106	298.2954	2432.353	-2480.856	1	3474.333	-45.5656	-2.966422E-007	0.0006498	8
	31	108	237.7717	2743.696	-2775.111	1	3902.449	-45.32614	-2.842079E-007	0.0006319	8
	32	111	189.0121	3100.111	-3106.872	1	4389.002	-45.0624	-2.651817E-007	0.0005926	7
	33	113	150.2404	3483.972	-3470.28	1	4917.408	-44.88719	-2.660236E-007	0.0005843	7
	34	116	119.1737	3909.118	-3882.56	1	5509.581	-44.8047	-2.689458E-007	0.0006096	7
	35	118	95.0169	4360.591	-4337.856	1	6150.752	-44.85025	-2.648508E-007	0.0005841	7
	36	120	75.60484	4863.107	-4862.889	1	6877.318	-44.99871	-2.642784E-007	0.00059	7
	37	123	54.50582	5678.304	-5753.348	1	8083.573	-45.37612	-2.6355E-007	0.0006006	7
	38	125	45.95588	6159.793	-6294.497	1	8807.028	-45.61967	-2.685832E-007	0.0005971	7
	39	128	37.20238	6816.633	-7048.595	1	9805.57	-45.95846	-2.789178E-007	0.0006329	7
	40	130	30.04808	7564.624	-7918.754	1	10951.26	-46.31022	-2.755936E-007	0.0006235	7
	41	133	23.91582	8472.89	-8981.229	1	12347.16	-46.66823	-2.762404E-007	0.000598	7
	42	135	18.60119	9625.78	-10331.92	1	14121.06	-47.02636	-2.751177E-007	0.0006192	7
	43	137	15.02404	10770.94	-11641.94	1	15860.26	-47.22549	-2.753938E-007	0.0006244	7
	44	140	12.01923	12157.44	-13182.04	1	17932.36	-47.3155	-2.577264E-007	0.0006229	7
	45	142	9.450605	13874.44	-15025.18	1	20451.31	-47.28024	-2.841698E-007	0.0006455	7
	46	145	7.512019	15804.94	-17002.11	1	23213.53	-47.08988	-2.77009E-007	0.0006113	7
	47	147	5.978954	18025.27	-19183.7	1	26323.46	-46.78321	-2.684623E-007	0.0005958	7
	48	150	4.734848	20689.85	-21623.07	1	29927.03	-46.26347	-2.604969E-007	0.0005902	7
	49	154	3.75601	23696.59	-24255.32	1	33909.42	-45.66758	-2.678784E-007	0.0006284	7
	50	157	3.004808	26991.82	-26905.52	1	38111.23	-44.90825	-2.572577E-007	0.0005999	7
	51	161	2.372217	30981.03	-29936.98	1	43081.86	-44.01813	-2.63408E-007	0.0005708	7
	52	165	1.878005	35450.46	-32983.57	1	48421.6	-42.93552	-2.433068E-007	0.0006804	6
	53	170	1.512097	39969.16	-35961.59	1	53765.88	-41.97878	-2.386469E-007	0.0005681	6
	54	175	1.201923	45311.46	-39363.48	1	60021.77	-40.98187	-2.394268E-007	0.0007287	6
	55	181	0.956633	51075.95	-42877.2	1	66687.38	-40.01276	-2.426063E-007	3.741555E-005	6
