EXPLAIN
TAG	EISPOT
TITLE	LABEL	Potentiostatic EIS	Test Identifier
DATE	LABEL	8/18/2020	Date
TIME	LABEL	1:27:28	Time
NOTES	NOTES	1	Notes...
	
PSTAT	PSTAT	REF3000-16137	Potentiostat
VDC	POTEN	0.00000E+000	T	DC Voltage (V)
FREQINIT	QUANT	3.00000E+005	Initial Freq. (Hz)
FREQFINAL	QUANT	1.00000E+000	Final Freq. (Hz)
PTSPERDEC	QUANT	1.00000E+001	Points/decade
VAC	QUANT	5.00000E+001	AC Voltage (mV rms)
AREA	QUANT	1.00000E+000	Sample Area (cm^2)
SPEED	SELECTOR	2	Optimize for:
ZGUESS	QUANT	1.00000E+003	Estimated Z (ohms)
EOC	QUANT	0	Open Circuit (V)
SEQUENCER	TOGGLE	TRUE	Run as Sequence
PSTATMODEL	IQUANT	5	Pstat Model
PSTATSECTION	LABEL	REF3000-16137	Pstat Section
PSTATSERIALNO	LABEL	16137	Pstat Serial Number
CTRLMODE	IQUANT	1	Control Mode
IESTAB	IQUANT	0	I/E Stability
CASPEED	IQUANT	1	Control Amp Speed
CONVENTION	IQUANT	1	Current Convention
ICHRANGE	IQUANT	2	Ich Range
ICHRANGEMODE	TOGGLE	F	Ich Auto Range
ICHOFFSETENABLE	TOGGLE	T	Ich Offset Enable
ICHOFFSET	QUANT	0	Ich Offset (V)
ICHFILTER	IQUANT	3	Ich Filter
VCHRANGE	IQUANT	2	Vch Range
VCHRANGEMODE	TOGGLE	F	Vch Auto Range
VCHOFFSETENABLE	TOGGLE	T	Vch Offset Enable
VCHOFFSET	QUANT	0	Vch Offset (V)
VCHFILTER	IQUANT	3	Vch Filter
ACHRANGE	IQUANT	2	Ach Range
ACHOFFSETENABLE	TOGGLE	F	Ach Offset Enable
ACHOFFSET	QUANT	0	Ach Offset (V)
ACHFILTER	IQUANT	3	Ach Filter
IERANGELOWERLIMIT	IQUANT	2	I/E Range Lower Limit
IERANGEMODE	TOGGLE	F	I/E AutoRange
IERANGE	IQUANT	11	I/E Range
POSFEEDENABLE	TOGGLE	F	Positive Feedback IR Comp
POSFEEDRESISTANCE	QUANT	0	Positive Feedback Resistance (ohm)
ACHSELECT	IQUANT	0	Ach Select
CABLEID	IQUANT	13	Cable ID
DCCALDATE	LABEL	7/31/2020	DC Calibration Date
ACCALDATE	LABEL	7/31/2020	AC Calibration Date
THERMOSELECT	IQUANT	1	Thermo Select
FRAMEWORKVERSION	QUANT	6.33	Framework Version
INSTRUMENTVERSION	LABEL	3.50	Instrument Version
COMPLIANCEVOLTAGE	IQUANT	0	Compliance Voltage
ZCURVE	TABLE
	Pt	Time	Freq	Zreal	Zimag	Zsig	Zmod	Zphz	Idc	Vdc	IERange
	#	s	Hz	ohm	ohm	V	ohm	°	A	V	#
	0	14	300046.9	541.9942	-4575.697	1	4607.685	-83.24476	-7.4898E-007	-0.0022115	9
	1	34	238359.4	735.9998	-5435.857	1	5485.458	-82.28921	4.569411E-007	-0.0020795	9
	2	52	189328.1	1224.772	-6645.78	1	6757.696	-79.55795	-3.133565E-005	-0.0010252	9
	3	62	150421.9	1968.176	-8403.623	1	8631.025	-76.81859	-2.081328E-005	0.0012014	9
	4	69	119484.4	2864.792	-9929.08	1	10334.11	-73.90581	7.774781E-005	-0.0014822	9
	5	82	94921.88	4289.267	-12106.68	1	12844.04	-70.4913	-1.142527E-005	0.0101665	8
	6	90	75421.88	6082.962	-14525.7	1	15747.96	-67.2774	1.81604E-005	0.0001079	8
	7	99	59859.37	8828.675	-17341.98	1	19459.96	-63.0197	-8.751882E-007	-0.0051806	8
	8	107	47578.12	14406.98	-19536.8	1	24274.42	-53.59389	4.896945E-006	-0.0004026	7
	9	114	37828.12	18355.48	-21822.83	1	28515.95	-49.93235	-1.58083E-006	0.0216768	7
	10	121	30046.88	20114.07	-23705.54	1	31089.04	-49.68551	-2.69821E-005	0.0077662	8
	11	130	23859.38	25877.31	-25697.28	1	36468.97	-44.8	-9.792725E-006	-0.002132	8
	12	138	18984.38	33307.41	-25179.04	1	41753.66	-37.08779	-7.805306E-006	0.0187633	7
	13	143	15046.87	38416.49	-24431.57	1	45527.23	-32.45496	-6.592368E-006	0.0262014	7
	14	148	11953.13	42824.73	-22392.73	1	48325.89	-27.60473	3.253538E-006	-0.0235955	7
	15	154	9515.62	47811.57	-21186.56	1	52295.47	-23.89939	5.472667E-006	-0.0270737	7
	16	159	7546.875	51803.07	-19003.64	1	55178.77	-20.14526	4.917338E-006	-0.000407	7
	17	164	5928.309	55403.72	-17221.43	1	58018.53	-17.26709	-5.309263E-006	0.0033107	7
	18	170	4733.456	57455.47	-15393.92	1	59481.96	-14.99886	-7.299885E-006	0.0235198	7
	19	175	3796.875	61302.83	-13486.61	1	62768.83	-12.40741	-7.150738E-006	0.0174002	7
	20	181	2987.132	60910.37	-11559.49	1	61997.54	-10.74573	-5.425044E-006	0.0269824	7
	21	186	2390.625	62634.64	-11940.9	1	63762.71	-10.79356	1.376594E-006	-0.0202619	7
	22	191	1884.191	63630.32	-10188.43	1	64440.84	-9.096929	-6.633777E-006	0.0260703	7
	23	197	1516.544	66353.06	-10716.31	1	67212.86	-9.174297	-7.451238E-006	0.0189987	7
	24	202	1193.986	68403.38	-6508.204	1	68712.3	-5.435016	-3.847871E-006	0.0257771	7
	25	208	946.5144	66323.75	-9980.46	1	67070.48	-8.557717	1.34981E-006	-0.0206681	7
	26	211	751.7689	64623.29	-6934.36	1	64994.27	-6.124652	-3.85411E-006	0.0254407	7
	27	215	597.4265	72230.62	-12110.26	1	73238.79	-9.51775	7.841961E-006	-0.0251148	7
	28	219	477.4305	74523.45	-13395.41	1	75717.77	-10.18996	-8.640357E-008	0.0005904	7
	29	223	376.6741	76319.25	-14271.69	1	77642.19	-10.59197	-9.897327E-009	0.0006033	6
	30	226	298.2954	77965.89	-16678.72	1	79729.92	-12.07491	-1.02777E-008	0.0006958	6
	31	228	237.7717	79825.81	-19487.22	1	82170.02	-13.71882	-9.943837E-009	0.0006144	6
	32	231	189.0121	81949.98	-22903.97	1	85090.49	-15.615	-1.050789E-008	0.0006982	6
	33	233	150.2404	84394.07	-27007.26	1	88610.11	-17.74539	-1.037921E-008	0.0006659	6
	34	235	119.1737	87233.74	-32436.48	1	93069.06	-20.39685	-1.016392E-008	0.0006259	6
	35	238	95.0169	90784.55	-37717.12	1	98307.8	-22.56081	-1.044136E-008	0.0006445	6
	36	240	75.60484	94898.63	-44545.13	1	104833.3	-25.14522	-1.121541E-008	0.0007228	6
	37	243	54.50582	102208.5	-56294.29	1	116686	-28.84504	-1.060911E-008	0.0006931	6
	38	245	45.95588	106784.5	-63458.14	1	124217	-30.72147	-9.8831E-009	0.0006956	6
	39	248	37.20238	113442.9	-73363.88	1	135098.3	-32.89088	-1.052868E-008	0.0007198	6
	40	250	30.04808	121454.8	-84743.53	1	148097	-34.90492	-9.714924E-009	0.0006493	6
	41	253	23.91582	131398.2	-98626	1	164294.2	-36.89149	-1.048187E-008	0.0006947	6
	42	255	18.60119	143753.9	-115572.6	1	184451.1	-38.79794	-1.041227E-008	0.0006881	6
	43	258	15.02404	156358.8	-132450.6	1	204917.6	-40.26775	-1.012166E-008	0.0006999	6
	44	260	12.01923	171163.6	-152300	1	229111.9	-41.66243	-9.314771E-009	0.0006092	6
	45	263	9.450605	189777.8	-176723.1	1	259319.7	-42.96	-9.961588E-009	0.0006886	6
	46	265	7.512019	210159	-203636.5	1	292633.9	-44.09694	-1.008955E-008	0.0005896	6
	47	268	5.978954	234003.1	-234491.7	1	331276.1	-45.05976	-9.819545E-009	0.0006004	6
	48	273	4.734848	262358.6	-270871.8	1	377098.9	-45.91467	-9.902381E-009	0.0006934	6
	49	276	3.75601	296177.5	-312557.8	1	430596.7	-46.54139	-1.711553E-009	0.0005799	5
	50	281	3.004808	333518.4	-358559.6	1	489693.3	-47.07221	-1.438961E-009	0.0005938	5
	51	288	2.372217	378694.7	-413854.8	1	560968.4	-47.54016	-1.841623E-009	0.0006552	5
	52	292	1.878005	430799.9	-476074.8	1	642055.9	-47.85806	-1.887771E-009	0.0006311	5
	53	297	1.512097	485280.5	-541652.1	1	727244.2	-48.14199	-1.618368E-009	0.0005466	5
	54	302	1.201923	551471	-621217.3	1	830681.2	-48.40369	-1.743955E-009	0.0006278	5
	55	308	0.956633	626797.2	-711874.3	1	948493.4	-48.63645	-1.824337E-009	-5.55369E-006	5
