EXPLAIN
TAG	EISPOT
TITLE	LABEL	Potentiostatic EIS	Test Identifier
DATE	LABEL	8/18/2020	Date
TIME	LABEL	0:06:59	Time
NOTES	NOTES	1	Notes...
	
PSTAT	PSTAT	REF3000-16137	Potentiostat
VDC	POTEN	0.00000E+000	T	DC Voltage (V)
FREQINIT	QUANT	3.00000E+005	Initial Freq. (Hz)
FREQFINAL	QUANT	1.00000E+000	Final Freq. (Hz)
PTSPERDEC	QUANT	1.00000E+001	Points/decade
VAC	QUANT	5.00000E+001	AC Voltage (mV rms)
AREA	QUANT	1.00000E+000	Sample Area (cm^2)
SPEED	SELECTOR	2	Optimize for:
ZGUESS	QUANT	1.00000E+003	Estimated Z (ohms)
EOC	QUANT	0	Open Circuit (V)
SEQUENCER	TOGGLE	TRUE	Run as Sequence
PSTATMODEL	IQUANT	5	Pstat Model
PSTATSECTION	LABEL	REF3000-16137	Pstat Section
PSTATSERIALNO	LABEL	16137	Pstat Serial Number
CTRLMODE	IQUANT	1	Control Mode
IESTAB	IQUANT	0	I/E Stability
CASPEED	IQUANT	1	Control Amp Speed
CONVENTION	IQUANT	1	Current Convention
ICHRANGE	IQUANT	2	Ich Range
ICHRANGEMODE	TOGGLE	F	Ich Auto Range
ICHOFFSETENABLE	TOGGLE	T	Ich Offset Enable
ICHOFFSET	QUANT	0	Ich Offset (V)
ICHFILTER	IQUANT	3	Ich Filter
VCHRANGE	IQUANT	2	Vch Range
VCHRANGEMODE	TOGGLE	F	Vch Auto Range
VCHOFFSETENABLE	TOGGLE	T	Vch Offset Enable
VCHOFFSET	QUANT	0	Vch Offset (V)
VCHFILTER	IQUANT	3	Vch Filter
ACHRANGE	IQUANT	2	Ach Range
ACHOFFSETENABLE	TOGGLE	F	Ach Offset Enable
ACHOFFSET	QUANT	0	Ach Offset (V)
ACHFILTER	IQUANT	3	Ach Filter
IERANGELOWERLIMIT	IQUANT	2	I/E Range Lower Limit
IERANGEMODE	TOGGLE	F	I/E AutoRange
IERANGE	IQUANT	11	I/E Range
POSFEEDENABLE	TOGGLE	F	Positive Feedback IR Comp
POSFEEDRESISTANCE	QUANT	0	Positive Feedback Resistance (ohm)
ACHSELECT	IQUANT	0	Ach Select
CABLEID	IQUANT	13	Cable ID
DCCALDATE	LABEL	7/31/2020	DC Calibration Date
ACCALDATE	LABEL	7/31/2020	AC Calibration Date
THERMOSELECT	IQUANT	1	Thermo Select
FRAMEWORKVERSION	QUANT	6.33	Framework Version
INSTRUMENTVERSION	LABEL	3.50	Instrument Version
COMPLIANCEVOLTAGE	IQUANT	0	Compliance Voltage
ZCURVE	TABLE
	Pt	Time	Freq	Zreal	Zimag	Zsig	Zmod	Zphz	Idc	Vdc	IERange
	#	s	Hz	ohm	ohm	V	ohm	°	A	V	#
	0	14	300046.9	453.2207	-66.0039	1	458.0016	-8.285907	2.390048E-005	-0.0021233	9
	1	20	238359.4	453.3955	-62.05654	1	457.6226	-7.793684	-3.647263E-006	-0.0018147	9
	2	27	189328.1	454.0316	-63.46569	1	458.4458	-7.957391	-8.527106E-005	0.0039023	9
	3	36	150421.9	455.6298	-64.06874	1	460.1122	-8.004211	-6.200694E-005	0.0008128	9
	4	43	119484.4	457.7014	-68.5022	1	462.7993	-8.512032	-3.19373E-005	-0.0007617	9
	5	48	94921.88	463.7578	-60.20023	1	467.6487	-7.396187	-6.549288E-006	-0.0001653	8
	6	51	75421.88	467.5333	-71.65264	1	472.992	-8.713171	-9.604346E-006	0.0063895	8
	7	53	59859.37	472.8361	-84.67249	1	480.3576	-10.15256	1.879986E-006	-0.0036012	8
	8	56	47578.12	479.2955	-100.9808	1	489.8176	-11.89741	-1.29248E-005	0.0019011	8
	9	58	37828.12	487.7878	-118.1033	1	501.8818	-13.61054	-2.949667E-006	-0.0020326	8
	10	61	30046.88	497.3988	-138.5536	1	516.3358	-15.56551	1.275858E-005	-0.0007673	8
	11	63	23859.38	510.7012	-164.8867	1	536.6595	-17.89337	-1.104772E-005	0.0012574	8
	12	66	18984.38	526.226	-191.3965	1	559.9521	-19.98711	-1.490778E-005	0.0052632	8
	13	68	15046.87	546.6359	-226.5578	1	591.7256	-22.51197	-3.290047E-006	-0.0019897	8
	14	71	11953.13	567.5936	-262.622	1	625.4061	-24.82969	6.60083E-006	0.0019476	8
	15	73	9515.62	596.2612	-304.7686	1	669.6352	-27.07306	-1.52208E-005	0.005069	8
	16	75	7546.875	627.8754	-353.3605	1	720.4798	-29.37027	-8.179701E-006	-0.0001178	8
	17	78	5928.309	670.8705	-410.7968	1	786.6519	-31.48055	8.101085E-007	0.0039487	8
	18	80	4733.456	718.48	-472.7948	1	860.0862	-33.34686	1.501812E-005	-0.0024169	8
	19	83	3796.875	773.5031	-537.4448	1	941.8885	-34.79232	1.2162E-005	-0.0006604	8
	20	85	2987.132	841.7169	-617.8993	1	1044.168	-36.28217	-1.385158E-005	0.0028624	8
	21	88	2390.625	917.0672	-699.0529	1	1153.121	-37.31719	-4.899955E-006	0.0055549	8
	22	91	1884.191	1005.685	-793.4455	1	1280.999	-38.27204	-1.55776E-005	0.0051864	8
	23	94	1516.544	1101.13	-888.6781	1	1415.004	-38.90562	-3.232823E-006	-0.0019766	8
	24	97	1193.986	1224.928	-1003.33	1	1583.389	-39.32066	1.17725E-005	-0.0005483	8
	25	101	946.5144	1354.565	-1122.076	1	1758.949	-39.6372	-1.187421E-005	0.0017201	8
	26	103	751.7689	1494.098	-1255.838	1	1951.784	-40.04815	-3.211873E-006	-0.0019643	8
	27	106	597.4265	1654.954	-1397.821	1	2166.282	-40.18539	5.31522E-007	0.0040494	8
	28	109	477.4305	1849.467	-1541.547	1	2407.674	-39.81149	-5.295176E-007	0.0006334	8
	29	111	376.6741	2064.697	-1710.495	1	2681.187	-39.63999	-5.49536E-007	0.0006677	8
	30	113	298.2954	2299.765	-1888.419	1	2975.742	-39.39064	-5.287112E-007	0.0006334	8
	31	116	237.7717	2551.601	-2072.208	1	3287.052	-39.08077	-5.209762E-007	0.0006271	8
	32	118	189.0121	2830.318	-2270.998	1	3628.792	-38.74295	-5.229522E-007	0.0006276	8
	33	121	150.2404	3139.449	-2488.141	1	4005.869	-38.39826	-5.336227E-007	0.0006618	7
	34	123	119.1737	3468.836	-2721.502	1	4409.013	-38.11623	-5.281935E-007	0.0006239	7
	35	125	95.0169	3807.484	-2971.432	1	4829.735	-37.96915	-5.358707E-007	0.0006179	7
	36	128	75.60484	4181.481	-3253.402	1	5298.057	-37.88471	-5.266476E-007	0.0005984	7
	37	130	54.50582	4770.739	-3719.882	1	6049.584	-37.94456	-5.333658E-007	0.0006256	7
	38	133	45.95588	5105.089	-4000.271	1	6485.684	-38.08171	-5.388168E-007	0.0006078	7
	39	135	37.20238	5557.249	-4386.88	1	7080.094	-38.28749	-5.421327E-007	0.0006134	7
	40	138	30.04808	6064.402	-4826.271	1	7750.475	-38.51404	-5.40491E-007	0.0006023	7
	41	140	23.91582	6673.432	-5355.634	1	8556.724	-38.74811	-5.375878E-007	0.000618	7
	42	143	18.60119	7445.878	-6017.424	1	9573.43	-38.94358	-5.520422E-007	0.0006316	7
	43	145	15.02404	8193.162	-6626.963	1	10537.77	-38.96734	-5.274331E-007	0.0006304	7
	44	147	12.01923	9087.088	-7306.015	1	11659.89	-38.79927	-5.282795E-007	0.0006032	7
	45	150	9.450605	10183.26	-8078.766	1	12998.66	-38.4263	-5.544152E-007	0.0006095	7
	46	152	7.512019	11371.2	-8834.381	1	14399.67	-37.84394	-5.657835E-007	0.0005895	7
	47	155	5.978954	12695.54	-9552.92	1	15888.2	-36.9601	-5.597514E-007	0.0006196	7
	48	158	4.734848	14158	-10220.67	1	17461.7	-35.82553	-5.622419E-007	0.0005966	7
	49	161	3.75601	15677.95	-10718.96	1	18991.96	-34.36028	-5.40851E-007	0.0006271	7
	50	167	3.004808	17213.52	-11147.99	1	20508.12	-32.92831	-5.466732E-007	0.0006126	7
	51	173	2.372217	18879.43	-11486.66	1	22099.24	-31.31726	-5.503221E-007	0.0006078	7
	52	181	1.878005	20505.64	-11609.65	1	23564.06	-29.51717	-5.507273E-007	0.0006108	7
	53	190	1.512097	22039.7	-11804.82	1	25002.04	-28.17423	-5.531778E-007	0.0006877	7
	54	200	1.201923	23671.24	-11904.78	1	26496.25	-26.69881	-5.53645E-007	0.000619	7
	55	213	0.956633	25417.66	-12074.37	1	28139.79	-25.40952	-5.921207E-007	-1.858019E-005	7
