EXPLAIN
TAG	EISPOT
TITLE	LABEL	Potentiostatic EIS	Test Identifier
DATE	LABEL	8/18/2020	Date
TIME	LABEL	0:39:45	Time
NOTES	NOTES	1	Notes...
	
PSTAT	PSTAT	REF3000-16137	Potentiostat
VDC	POTEN	0.00000E+000	T	DC Voltage (V)
FREQINIT	QUANT	3.00000E+005	Initial Freq. (Hz)
FREQFINAL	QUANT	1.00000E+000	Final Freq. (Hz)
PTSPERDEC	QUANT	1.00000E+001	Points/decade
VAC	QUANT	5.00000E+001	AC Voltage (mV rms)
AREA	QUANT	1.00000E+000	Sample Area (cm^2)
SPEED	SELECTOR	2	Optimize for:
ZGUESS	QUANT	1.00000E+003	Estimated Z (ohms)
EOC	QUANT	0	Open Circuit (V)
SEQUENCER	TOGGLE	TRUE	Run as Sequence
PSTATMODEL	IQUANT	5	Pstat Model
PSTATSECTION	LABEL	REF3000-16137	Pstat Section
PSTATSERIALNO	LABEL	16137	Pstat Serial Number
CTRLMODE	IQUANT	1	Control Mode
IESTAB	IQUANT	0	I/E Stability
CASPEED	IQUANT	1	Control Amp Speed
CONVENTION	IQUANT	1	Current Convention
ICHRANGE	IQUANT	2	Ich Range
ICHRANGEMODE	TOGGLE	F	Ich Auto Range
ICHOFFSETENABLE	TOGGLE	T	Ich Offset Enable
ICHOFFSET	QUANT	0	Ich Offset (V)
ICHFILTER	IQUANT	3	Ich Filter
VCHRANGE	IQUANT	2	Vch Range
VCHRANGEMODE	TOGGLE	F	Vch Auto Range
VCHOFFSETENABLE	TOGGLE	T	Vch Offset Enable
VCHOFFSET	QUANT	0	Vch Offset (V)
VCHFILTER	IQUANT	3	Vch Filter
ACHRANGE	IQUANT	2	Ach Range
ACHOFFSETENABLE	TOGGLE	F	Ach Offset Enable
ACHOFFSET	QUANT	0	Ach Offset (V)
ACHFILTER	IQUANT	3	Ach Filter
IERANGELOWERLIMIT	IQUANT	2	I/E Range Lower Limit
IERANGEMODE	TOGGLE	F	I/E AutoRange
IERANGE	IQUANT	11	I/E Range
POSFEEDENABLE	TOGGLE	F	Positive Feedback IR Comp
POSFEEDRESISTANCE	QUANT	0	Positive Feedback Resistance (ohm)
ACHSELECT	IQUANT	0	Ach Select
CABLEID	IQUANT	13	Cable ID
DCCALDATE	LABEL	7/31/2020	DC Calibration Date
ACCALDATE	LABEL	7/31/2020	AC Calibration Date
THERMOSELECT	IQUANT	1	Thermo Select
FRAMEWORKVERSION	QUANT	6.33	Framework Version
INSTRUMENTVERSION	LABEL	3.50	Instrument Version
COMPLIANCEVOLTAGE	IQUANT	0	Compliance Voltage
ZCURVE	TABLE
	Pt	Time	Freq	Zreal	Zimag	Zsig	Zmod	Zphz	Idc	Vdc	IERange
	#	s	Hz	ohm	ohm	V	ohm	°	A	V	#
	0	17	300046.9	480.0572	-71.22089	1	485.3116	-8.4388	1.378799E-006	-0.0019662	9
	1	23	238359.4	486.407	-67.99473	1	491.1365	-7.957797	-1.593309E-005	0.0011644	9
	2	30	189328.1	489.5689	-65.66816	1	493.9534	-7.63975	-4.246714E-006	-0.0017099	9
	3	37	150421.9	496.6267	-66.72362	1	501.089	-7.652075	2.476517E-005	-0.0018757	9
	4	44	119484.4	504.5439	-53.88749	1	507.4135	-6.096328	6.463673E-007	-0.008675	8
	5	47	94921.88	509.671	-58.5467	1	513.0227	-6.552933	1.271115E-005	-0.005845	8
	6	50	75421.88	514.8497	-68.54206	1	519.3922	-7.583209	-1.613064E-005	0.0053555	8
	7	52	59859.37	520.0754	-80.57794	1	526.2805	-8.807103	-1.594105E-005	0.0045253	8
	8	55	47578.12	526.7271	-94.2304	1	535.0895	-10.1428	1.312886E-005	-0.0008073	8
	9	57	37828.12	535.7066	-111.1125	1	547.1083	-11.71774	-1.530353E-005	0.0042788	8
	10	60	30046.88	545.7258	-132.0663	1	561.4785	-13.6041	1.575986E-005	-0.0024723	8
	11	62	23859.38	557.6425	-156.2457	1	579.1182	-15.65233	-1.534592E-005	0.0051098	8
	12	65	18984.38	571.9828	-183.554	1	600.7133	-17.79186	-1.445433E-005	0.0032406	8
	13	67	15046.87	587.9444	-218.2761	1	627.1548	-20.3676	-7.908629E-006	-0.0002512	8
	14	70	11953.13	609.077	-256.9428	1	661.0555	-22.87274	1.87955E-007	0.0044212	8
	15	72	9515.62	632.3273	-302.2529	1	700.8528	-25.54783	1.185633E-005	-0.00034	8
	16	74	7546.875	662.6116	-359.5999	1	753.9006	-28.48872	3.696994E-006	-0.0043757	8
	17	77	5928.309	700.864	-424.2334	1	819.2584	-31.18655	1.509452E-005	-0.0053795	8
	18	80	4733.456	743.8099	-497.6626	1	894.942	-33.78539	4.167206E-007	0.0043528	8
	19	82	3796.875	793.9836	-580.1841	1	983.374	-36.15655	1.706768E-005	-0.004527	8
	20	85	2987.132	859.8102	-680.8326	1	1096.725	-38.37361	-1.345711E-005	0.0067949	8
	21	88	2390.625	935.3952	-787.4168	1	1222.698	-40.09071	-1.629566E-005	0.0054569	8
	22	90	1884.191	1025.985	-922.5435	1	1379.758	-41.9612	-5.136078E-006	0.005909	8
	23	94	1516.544	1128.894	-1053.019	1	1543.778	-43.00839	1.266397E-005	-0.0057398	8
	24	97	1193.986	1252.676	-1216.667	1	1746.275	-44.16456	8.159491E-006	-0.0051421	8
	25	102	946.5144	1414.321	-1397.48	1	1988.279	-44.65684	1.25009E-005	-0.0057394	8
	26	104	751.7689	1573.866	-1609.124	1	2250.852	-45.63464	-1.482339E-005	0.0030511	8
	27	107	597.4265	1779.303	-1822.833	1	2547.281	-45.69236	-3.31498E-006	-0.0021962	8
	28	110	477.4305	1998.505	-2072.049	1	2878.786	-46.03506	-2.627517E-007	0.0006317	8
	29	112	376.6741	2268.923	-2354.188	1	3269.589	-46.0566	-2.664042E-007	0.0006167	8
	30	114	298.2954	2572.467	-2659.347	1	3699.961	-45.95137	-2.517726E-007	0.0006237	8
	31	117	237.7717	2912.317	-2988.534	1	4172.88	-45.74001	-2.277861E-007	0.0006018	7
	32	119	189.0121	3286.152	-3350.471	1	4693.022	-45.55527	-2.300399E-007	0.0006138	7
	33	121	150.2404	3698.496	-3751.411	1	5268.013	-45.40696	-2.263811E-007	0.0005912	7
	34	124	119.1737	4155.593	-4206.33	1	5912.881	-45.34764	-2.357112E-007	0.0006236	7
	35	126	95.0169	4644.64	-4705.692	1	6611.824	-45.3741	-2.285671E-007	0.00059	7
	36	129	75.60484	5188.517	-5283.407	1	7405.072	-45.51916	-2.301881E-007	0.0006	7
	37	131	54.50582	6073.729	-6260.787	1	8722.822	-45.86885	-2.250525E-007	0.000587	7
	38	134	45.95588	6596.327	-6854.969	1	9513.26	-46.10155	-2.367914E-007	0.0006275	7
	39	136	37.20238	7309.826	-7683.929	1	10605.49	-46.42927	-2.248063E-007	0.0006014	7
	40	138	30.04808	8121.073	-8638.22	1	11856.25	-46.76743	-2.322645E-007	0.0005929	7
	41	141	23.91582	9100.974	-9806.92	1	13379.22	-47.13821	-2.300543E-007	0.0006402	7
	42	143	18.60119	10357.74	-11288.96	1	15320.68	-47.4633	-2.282683E-007	0.000621	7
	43	146	15.02404	11601.38	-12730.8	1	17223.97	-47.65758	-2.442493E-007	0.0006132	7
	44	148	12.01923	13089.48	-14432.87	1	19484.41	-47.79443	-2.184086E-007	0.0006009	7
	45	150	9.450605	14931.78	-16475.09	1	22234.81	-47.81322	-2.412971E-007	0.000616	7
	46	153	7.512019	17015.22	-18704.23	1	25285.68	-47.70724	-2.330536E-007	0.00061	7
	47	156	5.978954	19441.57	-21142.69	1	28722.6	-47.4002	-2.28131E-007	0.0006137	7
	48	159	4.734848	22260.85	-23871.38	1	32640.28	-46.99945	-2.343904E-007	0.0006062	7
	49	162	3.75601	25563.52	-26821.55	1	37052.52	-46.3757	-2.186877E-007	0.0006063	7
	50	165	3.004808	29144.56	-29903.87	1	41757	-45.73674	-2.158975E-007	0.000602	7
	51	169	2.372217	33507.66	-33308.24	1	47246.18	-44.82899	-1.972113E-007	0.0006169	6
	52	173	1.878005	38370.58	-37022.7	1	53319.61	-43.97577	-1.934798E-007	0.0006722	6
	53	178	1.512097	43356.22	-40626.86	1	59416.36	-43.1386	-1.938477E-007	0.0007124	6
	54	183	1.201923	49300.23	-44632	1	66502.09	-42.15486	-1.92977E-007	0.0006831	6
	55	190	0.956633	55826.67	-48834.9	1	74171.86	-41.17812	-2.017916E-007	3.28074E-005	6
