EXPLAIN
TAG	EISPOT
TITLE	LABEL	Potentiostatic EIS	Test Identifier
DATE	LABEL	8/18/2020	Date
TIME	LABEL	1:38:16	Time
NOTES	NOTES	1	Notes...
	
PSTAT	PSTAT	REF3000-16137	Potentiostat
VDC	POTEN	0.00000E+000	T	DC Voltage (V)
FREQINIT	QUANT	3.00000E+005	Initial Freq. (Hz)
FREQFINAL	QUANT	1.00000E+000	Final Freq. (Hz)
PTSPERDEC	QUANT	1.00000E+001	Points/decade
VAC	QUANT	5.00000E+001	AC Voltage (mV rms)
AREA	QUANT	1.00000E+000	Sample Area (cm^2)
SPEED	SELECTOR	2	Optimize for:
ZGUESS	QUANT	1.00000E+003	Estimated Z (ohms)
EOC	QUANT	0	Open Circuit (V)
SEQUENCER	TOGGLE	TRUE	Run as Sequence
PSTATMODEL	IQUANT	5	Pstat Model
PSTATSECTION	LABEL	REF3000-16137	Pstat Section
PSTATSERIALNO	LABEL	16137	Pstat Serial Number
CTRLMODE	IQUANT	1	Control Mode
IESTAB	IQUANT	0	I/E Stability
CASPEED	IQUANT	1	Control Amp Speed
CONVENTION	IQUANT	1	Current Convention
ICHRANGE	IQUANT	2	Ich Range
ICHRANGEMODE	TOGGLE	F	Ich Auto Range
ICHOFFSETENABLE	TOGGLE	T	Ich Offset Enable
ICHOFFSET	QUANT	0	Ich Offset (V)
ICHFILTER	IQUANT	3	Ich Filter
VCHRANGE	IQUANT	2	Vch Range
VCHRANGEMODE	TOGGLE	F	Vch Auto Range
VCHOFFSETENABLE	TOGGLE	T	Vch Offset Enable
VCHOFFSET	QUANT	0	Vch Offset (V)
VCHFILTER	IQUANT	3	Vch Filter
ACHRANGE	IQUANT	2	Ach Range
ACHOFFSETENABLE	TOGGLE	F	Ach Offset Enable
ACHOFFSET	QUANT	0	Ach Offset (V)
ACHFILTER	IQUANT	3	Ach Filter
IERANGELOWERLIMIT	IQUANT	2	I/E Range Lower Limit
IERANGEMODE	TOGGLE	F	I/E AutoRange
IERANGE	IQUANT	11	I/E Range
POSFEEDENABLE	TOGGLE	F	Positive Feedback IR Comp
POSFEEDRESISTANCE	QUANT	0	Positive Feedback Resistance (ohm)
ACHSELECT	IQUANT	0	Ach Select
CABLEID	IQUANT	13	Cable ID
DCCALDATE	LABEL	7/31/2020	DC Calibration Date
ACCALDATE	LABEL	7/31/2020	AC Calibration Date
THERMOSELECT	IQUANT	1	Thermo Select
FRAMEWORKVERSION	QUANT	6.33	Framework Version
INSTRUMENTVERSION	LABEL	3.50	Instrument Version
COMPLIANCEVOLTAGE	IQUANT	0	Compliance Voltage
ZCURVE	TABLE
	Pt	Time	Freq	Zreal	Zimag	Zsig	Zmod	Zphz	Idc	Vdc	IERange
	#	s	Hz	ohm	ohm	V	ohm	°	A	V	#
	0	15	300046.9	47.78272	-4701.334	1	4701.577	-89.41769	2.490541E-006	0.0015332	9
	1	28	238359.4	99.9421	-5613.793	1	5614.683	-88.98007	-1.559456E-005	0.0016794	9
	2	42	189328.1	366.2231	-7174.897	1	7184.238	-87.07803	1.290269E-006	0.0016557	9
	3	54	150421.9	706.0359	-9028.964	1	9056.526	-85.52876	1.962732E-005	-0.0021141	9
	4	67	119484.4	897.5706	-11014.24	1	11050.75	-85.34116	2.605936E-005	0.0083053	8
	5	75	94921.88	1265.951	-13910.2	1	13967.68	-84.7999	2.676588E-005	-0.0092335	8
	6	83	75421.88	1631.422	-17481.01	1	17556.97	-84.6683	-2.714422E-005	0.0077807	8
	7	92	59859.37	2264.424	-21607.53	1	21725.86	-84.01736	1.659148E-005	-0.0095314	8
	8	101	47578.12	6255.013	-28216.84	1	28901.82	-77.50098	7.718299E-006	-0.0188334	7
	9	107	37828.12	7703.72	-34832.22	1	35673.95	-77.52885	-7.520058E-006	0.0192427	7
	10	114	30046.88	9566.88	-42814.89	1	43870.72	-77.4043	-3.891342E-006	0.0260183	7
	11	122	23859.38	13490.7	-52879.91	1	54573.66	-75.68801	-6.517556E-006	0.0259157	7
	12	127	18984.38	16467.31	-65354.27	1	67396.98	-75.85757	-7.552664E-006	0.0192779	7
	13	133	15046.87	22776.04	-79535.59	1	82732.45	-74.02026	-5.655171E-006	0.0276074	7
	14	138	11953.13	29669.83	-99512.9	1	103841.7	-73.39801	-5.431815E-006	0.027169	7
	15	143	9515.62	41414.23	-121259.9	1	128137.1	-71.14328	7.379327E-006	-0.024962	7
	16	150	7546.875	58940.75	-149503.6	1	160702.7	-68.48351	3.716747E-006	-0.0251841	7
	17	156	5928.309	81147.88	-173670.2	1	191693.3	-64.95554	-6.679389E-006	0.0264872	7
	18	163	4733.456	106240	-191924	1	219366.8	-61.03317	7.707573E-006	-0.0187653	7
	19	169	3796.875	166365.6	-226126.6	1	280732.5	-53.65739	7.744013E-006	-0.0188058	7
	20	177	2987.132	214668	-256314.6	1	334334.4	-50.05323	5.389725E-007	0.0164938	7
	21	183	2390.625	221201.3	-301809.3	1	374191	-53.76167	7.012727E-006	-0.0276363	7
	22	190	1884.191	316944.9	-286509.2	1	427248.9	-42.11269	-7.516828E-006	0.019209	7
	23	197	1516.544	414195.2	-293857.1	1	507848	-35.35438	7.774773E-006	-0.0189775	7
	24	204	1193.986	619006.3	-150667.2	1	637078.8	-13.67988	-3.477087E-006	-0.0053724	7
	25	212	946.5144	508354.9	-98797.4	1	517866.4	-10.99817	3.929274E-007	0.0172247	7
	26	216	751.7689	522082.9	-255449.8	1	581227.3	-26.07203	-7.524054E-007	0.0179792	6
	27	220	597.4265	624315.6	-229289.8	1	665089.3	-20.16656	-7.741544E-007	0.0237107	6
	28	224	477.4305	617536.8	-175047.5	1	641867	-15.82596	-9.638788E-009	0.000627	6
	29	227	376.6741	681168.9	-90584.98	1	687165.7	-7.575012	-1.042713E-009	0.0005888	5
	30	230	298.2954	686402.5	-84244.87	1	691553	-6.997141	-9.795152E-010	0.0006855	5
	31	232	237.7717	696719.6	-80480.2	1	701352.5	-6.589206	-1.282902E-009	0.0006759	5
	32	235	189.0121	705986.7	-77823.69	1	710263.1	-6.290541	-9.495986E-010	0.0006055	5
	33	237	150.2404	713818.3	-79505.89	1	718232.4	-6.355474	-1.057875E-009	0.0005799	5
	34	240	119.1737	718548	-111973.5	1	727220.3	-8.857334	-1.261175E-009	0.0006876	5
	35	242	95.0169	742443.1	-93705.43	1	748333.1	-7.193395	-9.963068E-010	0.0005894	5
	36	245	75.60484	757462.6	-104415.3	1	764625.5	-7.848685	-1.210181E-009	0.0006229	5
	37	247	54.50582	783926	-125772	1	793951.3	-9.11478	-9.326372E-010	0.0005906	5
	38	250	45.95588	788293	-134115.2	1	799620.4	-9.65549	-1.234272E-009	0.0006402	5
	39	252	37.20238	804752.8	-154533	1	819455.6	-10.86993	-9.207826E-010	0.0006095	5
	40	255	30.04808	825180.8	-176589.3	1	843864.4	-12.07915	-1.151268E-009	0.0006894	5
	41	258	23.91582	846905.9	-206929	1	871819.4	-13.73037	-1.256018E-009	0.0006802	5
	42	260	18.60119	874378.3	-250294.7	1	909497	-15.97401	-1.358429E-009	0.0006544	5
	43	263	15.02404	903525.8	-286918.8	1	947988	-17.61749	-1.3964E-009	0.0005802	5
	44	265	12.01923	935942.6	-335612.7	1	994296	-19.72695	-8.557152E-010	0.0006772	5
	45	268	9.450605	976536	-399312.3	1	1055023	-22.23998	-9.654293E-010	0.0006727	5
	46	271	7.512019	1024761	-471519.4	1	1128036	-24.7084	-9.195615E-010	0.0006759	5
	47	274	5.978954	1083750	-557521	1	1218747	-27.22297	-9.396126E-010	0.0006663	5
	48	278	4.734848	1154363	-658022.7	1	1328739	-29.68449	-1.315723E-009	0.0006291	5
	49	281	3.75601	1240753	-773886.4	1	1462316	-31.95274	-1.202205E-009	0.0006602	5
	50	287	3.004808	1344510	-905127.8	1	1620791	-33.94854	-1.221201E-009	0.000705	5
	51	293	2.372217	1467892	-1063045	1	1812394	-35.912	-1.018755E-009	0.0007092	5
	52	298	1.878005	1604102	-1243197	1	2029453	-37.77609	-1.092524E-009	0.0006129	5
	53	302	1.512097	1755309	-1434692	1	2267036	-39.26066	-1.136726E-009	0.0007354	5
	54	308	1.201923	1943396	-1674913	1	2565564	-40.75636	-1.038724E-009	0.0006164	5
	55	314	0.956633	2161344	-1951010	1	2911674	-42.07206	-1.300238E-009	3.566574E-006	5
