EXPLAIN
TAG	EISPOT
TITLE	LABEL	Potentiostatic EIS	Test Identifier
DATE	LABEL	8/18/2020	Date
TIME	LABEL	0:33:30	Time
NOTES	NOTES	1	Notes...
	
PSTAT	PSTAT	REF3000-16137	Potentiostat
VDC	POTEN	0.00000E+000	T	DC Voltage (V)
FREQINIT	QUANT	3.00000E+005	Initial Freq. (Hz)
FREQFINAL	QUANT	1.00000E+000	Final Freq. (Hz)
PTSPERDEC	QUANT	1.00000E+001	Points/decade
VAC	QUANT	5.00000E+001	AC Voltage (mV rms)
AREA	QUANT	1.00000E+000	Sample Area (cm^2)
SPEED	SELECTOR	2	Optimize for:
ZGUESS	QUANT	1.00000E+003	Estimated Z (ohms)
EOC	QUANT	0	Open Circuit (V)
SEQUENCER	TOGGLE	TRUE	Run as Sequence
PSTATMODEL	IQUANT	5	Pstat Model
PSTATSECTION	LABEL	REF3000-16137	Pstat Section
PSTATSERIALNO	LABEL	16137	Pstat Serial Number
CTRLMODE	IQUANT	1	Control Mode
IESTAB	IQUANT	0	I/E Stability
CASPEED	IQUANT	1	Control Amp Speed
CONVENTION	IQUANT	1	Current Convention
ICHRANGE	IQUANT	2	Ich Range
ICHRANGEMODE	TOGGLE	F	Ich Auto Range
ICHOFFSETENABLE	TOGGLE	T	Ich Offset Enable
ICHOFFSET	QUANT	0	Ich Offset (V)
ICHFILTER	IQUANT	3	Ich Filter
VCHRANGE	IQUANT	2	Vch Range
VCHRANGEMODE	TOGGLE	F	Vch Auto Range
VCHOFFSETENABLE	TOGGLE	T	Vch Offset Enable
VCHOFFSET	QUANT	0	Vch Offset (V)
VCHFILTER	IQUANT	3	Vch Filter
ACHRANGE	IQUANT	2	Ach Range
ACHOFFSETENABLE	TOGGLE	F	Ach Offset Enable
ACHOFFSET	QUANT	0	Ach Offset (V)
ACHFILTER	IQUANT	3	Ach Filter
IERANGELOWERLIMIT	IQUANT	2	I/E Range Lower Limit
IERANGEMODE	TOGGLE	F	I/E AutoRange
IERANGE	IQUANT	11	I/E Range
POSFEEDENABLE	TOGGLE	F	Positive Feedback IR Comp
POSFEEDRESISTANCE	QUANT	0	Positive Feedback Resistance (ohm)
ACHSELECT	IQUANT	0	Ach Select
CABLEID	IQUANT	13	Cable ID
DCCALDATE	LABEL	7/31/2020	DC Calibration Date
ACCALDATE	LABEL	7/31/2020	AC Calibration Date
THERMOSELECT	IQUANT	1	Thermo Select
FRAMEWORKVERSION	QUANT	6.33	Framework Version
INSTRUMENTVERSION	LABEL	3.50	Instrument Version
COMPLIANCEVOLTAGE	IQUANT	0	Compliance Voltage
ZCURVE	TABLE
	Pt	Time	Freq	Zreal	Zimag	Zsig	Zmod	Zphz	Idc	Vdc	IERange
	#	s	Hz	ohm	ohm	V	ohm	°	A	V	#
	0	8	300046.9	386.686	-50.79245	1	390.0077	-7.483144	5.853597E-005	-0.0003152	9
	1	14	238359.4	391.2434	-49.83945	1	394.4051	-7.259657	1.974702E-005	-0.0010877	9
	2	20	189328.1	394.3974	-50.3574	1	397.5992	-7.276263	1.499148E-005	-0.0020038	9
	3	25	150421.9	399.3523	-53.65759	1	402.9409	-7.652518	-0.000101	0.0036578	9
	4	31	119484.4	404.7531	-56.73679	1	408.7104	-7.979516	1.421373E-005	-0.0018628	9
	5	36	94921.88	410.5693	-50.14021	1	413.6196	-6.96269	1.347662E-005	-0.0049331	8
	6	38	75421.88	414.729	-60.38671	1	419.1023	-8.284348	-1.129285E-005	0.0017273	8
	7	41	59859.37	420.175	-71.98594	1	426.2968	-9.72174	2.054004E-006	-0.0034166	8
	8	43	47578.12	425.9275	-86.1382	1	434.5503	-11.43311	1.509853E-005	-0.0033109	8
	9	46	37828.12	434.0463	-101.6184	1	445.783	-13.17669	-3.441177E-006	-0.0020841	8
	10	48	30046.88	443.3683	-121.8658	1	459.8116	-15.36899	2.388362E-006	-0.0034395	8
	11	51	23859.38	453.3008	-143.2584	1	475.3994	-17.5383	-1.19277E-005	0.0061763	8
	12	53	18984.38	466.1759	-169.8995	1	496.1711	-20.02446	-4.997331E-006	0.0053987	8
	13	56	15046.87	483.6898	-203.2523	1	524.6593	-22.79274	1.498992E-005	-0.0042863	8
	14	58	11953.13	500.6909	-239.984	1	555.233	-25.60867	-7.87653E-006	-6.915698E-007	8
	15	60	9515.62	523.2988	-282.0071	1	594.449	-28.32034	6.587808E-006	0.0017231	8
	16	62	7546.875	554.6196	-335.6417	1	648.2733	-31.18126	-3.688257E-006	-0.0016634	8
	17	65	5928.309	588.6069	-394.7996	1	708.7488	-33.85117	-8.737314E-006	0.0060416	8
	18	67	4733.456	627.0064	-462.9992	1	779.4263	-36.4432	1.170348E-005	-0.0005932	8
	19	70	3796.875	674.7047	-538.7028	1	863.3812	-38.60483	-1.397557E-005	0.005874	8
	20	72	2987.132	739.6171	-628.9824	1	970.903	-40.37838	1.09167E-005	-0.0049645	8
	21	75	2390.625	810.4532	-726.3571	1	1088.315	-41.86783	6.903155E-006	-0.0044833	8
	22	77	1884.191	895.5378	-840.294	1	1228.04	-43.17715	1.010345E-006	0.0037952	8
	23	80	1516.544	992.029	-958.778	1	1379.629	-44.02349	-1.467558E-005	0.0050075	8
	24	83	1193.986	1108.691	-1105.96	1	1565.996	-44.92935	-1.421894E-005	0.0058866	8
	25	87	946.5144	1242.238	-1263.091	1	1771.597	-45.47689	6.634075E-006	0.0017335	8
	26	89	751.7689	1404.878	-1448.13	1	2017.613	-45.86855	8.940125E-007	0.0039054	8
	27	92	597.4265	1587.244	-1636.617	1	2279.881	-45.8774	1.516334E-005	-0.0042997	8
	28	95	477.4305	1792.033	-1839.297	1	2567.955	-45.7457	-3.29065E-007	0.0006371	8
	29	97	376.6741	2037.442	-2078.103	1	2910.272	-45.56606	-3.314232E-007	0.0006402	8
	30	99	298.2954	2309.68	-2334.091	1	3283.688	-45.30118	-3.224969E-007	0.0006558	8
	31	101	237.7717	2603.136	-2605.163	1	3682.824	-45.0223	-3.045674E-007	0.0006279	8
	32	104	189.0121	2938.337	-2910.428	1	4135.749	-44.7266	-3.114725E-007	0.0006167	7
	33	106	150.2404	3297.135	-3245.584	1	4626.544	-44.54857	-3.117043E-007	0.0006181	7
	34	109	119.1737	3691.31	-3626.407	1	5174.611	-44.49184	-3.091289E-007	0.0006262	7
	35	111	95.0169	4115.257	-4047.504	1	5772.142	-44.52444	-3.039231E-007	0.0005924	7
	36	114	75.60484	4584.261	-4533.824	1	6447.558	-44.68307	-3.098184E-007	0.0006028	7
	37	116	54.50582	5342.925	-5358.146	1	7566.808	-45.0815	-3.119171E-007	0.0006052	7
	38	119	45.95588	5794.475	-5860.98	1	8241.785	-45.32692	-3.124286E-007	0.0006178	7
	39	121	37.20238	6405.203	-6562.163	1	9169.984	-45.69349	-3.17636E-007	0.000635	7
	40	123	30.04808	7103.698	-7371.914	1	10237.56	-46.0615	-3.014593E-007	0.0005885	7
	41	126	23.91582	7956.315	-8358.177	1	11539.59	-46.41103	-3.033633E-007	0.0006022	7
	42	128	18.60119	9044.03	-9614.34	1	13199.62	-46.75076	-3.012085E-007	0.0005863	7
	43	130	15.02404	10117.53	-10819	1	14812.66	-46.91896	-3.088442E-007	0.000613	7
	44	133	12.01923	11429.5	-12221.77	1	16733.36	-46.91857	-3.223668E-007	0.0006151	7
	45	135	9.450605	13062.93	-13935.47	1	19100.71	-46.85105	-3.079705E-007	0.0006433	7
	46	138	7.512019	14886.71	-15729.37	1	21657.03	-46.57658	-3.110305E-007	0.0006386	7
	47	141	5.978954	16982.61	-17688.37	1	24521.16	-46.16615	-3.047181E-007	0.0006172	7
	48	144	4.734848	19456.59	-19874.93	1	27813.16	-45.60938	-2.948789E-007	0.0006566	7
	49	147	3.75601	22245.29	-22159.27	1	31398.83	-44.88901	-3.07704E-007	0.0006026	7
	50	150	3.004808	25336.24	-24514.3	1	35254.45	-44.05538	-3.006282E-007	0.0006091	7
	51	154	2.372217	29020.17	-27064.59	1	39682.02	-43.003	-3.000204E-007	0.0006636	7
	52	158	1.878005	33102.18	-29777.95	1	44525.06	-41.97381	-3.029086E-007	0.0005831	7
	53	163	1.512097	37257.66	-32352.49	1	49343.86	-40.96924	-2.847143E-007	0.0006363	6
	54	168	1.201923	42101.37	-35151.98	1	54846.94	-39.85975	-2.832473E-007	0.0006754	6
	55	175	0.956633	47309.57	-38002.88	1	60682.89	-38.77425	-2.856098E-007	5.254984E-005	6
