EXPLAIN
TAG	EISPOT
TITLE	LABEL	Potentiostatic EIS	Test Identifier
DATE	LABEL	8/18/2020	Date
TIME	LABEL	0:03:02	Time
NOTES	NOTES	1	Notes...
	
PSTAT	PSTAT	REF3000-16137	Potentiostat
VDC	POTEN	0.00000E+000	T	DC Voltage (V)
FREQINIT	QUANT	3.00000E+005	Initial Freq. (Hz)
FREQFINAL	QUANT	1.00000E+000	Final Freq. (Hz)
PTSPERDEC	QUANT	1.00000E+001	Points/decade
VAC	QUANT	5.00000E+001	AC Voltage (mV rms)
AREA	QUANT	1.00000E+000	Sample Area (cm^2)
SPEED	SELECTOR	2	Optimize for:
ZGUESS	QUANT	1.00000E+003	Estimated Z (ohms)
EOC	QUANT	0	Open Circuit (V)
SEQUENCER	TOGGLE	TRUE	Run as Sequence
PSTATMODEL	IQUANT	5	Pstat Model
PSTATSECTION	LABEL	REF3000-16137	Pstat Section
PSTATSERIALNO	LABEL	16137	Pstat Serial Number
CTRLMODE	IQUANT	1	Control Mode
IESTAB	IQUANT	0	I/E Stability
CASPEED	IQUANT	1	Control Amp Speed
CONVENTION	IQUANT	1	Current Convention
ICHRANGE	IQUANT	2	Ich Range
ICHRANGEMODE	TOGGLE	F	Ich Auto Range
ICHOFFSETENABLE	TOGGLE	T	Ich Offset Enable
ICHOFFSET	QUANT	0	Ich Offset (V)
ICHFILTER	IQUANT	3	Ich Filter
VCHRANGE	IQUANT	2	Vch Range
VCHRANGEMODE	TOGGLE	F	Vch Auto Range
VCHOFFSETENABLE	TOGGLE	T	Vch Offset Enable
VCHOFFSET	QUANT	0	Vch Offset (V)
VCHFILTER	IQUANT	3	Vch Filter
ACHRANGE	IQUANT	2	Ach Range
ACHOFFSETENABLE	TOGGLE	F	Ach Offset Enable
ACHOFFSET	QUANT	0	Ach Offset (V)
ACHFILTER	IQUANT	3	Ach Filter
IERANGELOWERLIMIT	IQUANT	2	I/E Range Lower Limit
IERANGEMODE	TOGGLE	F	I/E AutoRange
IERANGE	IQUANT	11	I/E Range
POSFEEDENABLE	TOGGLE	F	Positive Feedback IR Comp
POSFEEDRESISTANCE	QUANT	0	Positive Feedback Resistance (ohm)
ACHSELECT	IQUANT	0	Ach Select
CABLEID	IQUANT	13	Cable ID
DCCALDATE	LABEL	7/31/2020	DC Calibration Date
ACCALDATE	LABEL	7/31/2020	AC Calibration Date
THERMOSELECT	IQUANT	1	Thermo Select
FRAMEWORKVERSION	QUANT	6.33	Framework Version
INSTRUMENTVERSION	LABEL	3.50	Instrument Version
COMPLIANCEVOLTAGE	IQUANT	0	Compliance Voltage
ZCURVE	TABLE
	Pt	Time	Freq	Zreal	Zimag	Zsig	Zmod	Zphz	Idc	Vdc	IERange
	#	s	Hz	ohm	ohm	V	ohm	°	A	V	#
	0	17	300046.9	545.9686	-88.61543	1	553.1134	-9.219205	-6.090365E-005	0.0005737	9
	1	23	238359.4	543.6122	-82.90327	1	549.8974	-8.67105	8.264842E-005	-0.0033741	9
	2	38	189328.1	554.3336	-79.65689	1	560.0276	-8.177337	1.860926E-005	-0.0009715	9
	3	46	150421.9	557.0565	-80.18018	1	562.7973	-8.190639	2.335234E-005	-0.0014436	9
	4	52	119484.4	566.893	-65.52747	1	570.6676	-6.593588	-9.947253E-006	-0.006464	8
	5	56	94921.88	569.0056	-71.1789	1	573.4404	-7.130291	1.94969E-005	-0.0045183	8
	6	58	75421.88	574.0982	-81.68774	1	579.8807	-8.098187	-1.681904E-005	0.0054483	8
	7	61	59859.37	578.4297	-95.5998	1	586.2767	-9.384709	1.26206E-005	-0.0059285	8
	8	63	47578.12	586.0006	-111.9644	1	596.601	-10.81687	7.343178E-006	0.0019517	8
	9	66	37828.12	595.1867	-130.5813	1	609.3428	-12.37438	-1.70419E-005	0.0035923	8
	10	69	30046.88	605.4656	-153.1948	1	624.5456	-14.19897	1.74541E-005	-0.0039748	8
	11	71	23859.38	618.6957	-178.3934	1	643.901	-16.08427	-1.660915E-005	0.0044586	8
	12	74	18984.38	636.084	-209.5847	1	669.7228	-18.23665	1.255938E-005	-0.0057672	8
	13	76	15046.87	658.0145	-245.1151	1	702.1855	-20.43072	3.591209E-007	0.004535	8
	14	78	11953.13	680.3991	-286.2804	1	738.173	-22.8191	1.674315E-005	-0.0048781	8
	15	81	9515.62	710.4675	-331.2908	1	783.9117	-24.99963	1.53815E-005	-0.0055601	8
	16	83	7546.875	746.9941	-384.8436	1	840.3004	-27.25705	3.198454E-006	-0.0045898	8
	17	86	5928.309	793.301	-448.9786	1	911.5417	-29.50823	-1.653041E-005	0.0044264	8
	18	89	4733.456	843.311	-513.5438	1	987.371	-31.3398	1.627003E-005	-0.0026211	8
	19	92	3796.875	899.8973	-583.1666	1	1072.333	-32.94473	-8.548162E-006	-0.0001539	8
	20	95	2987.132	974.457	-668.8035	1	1181.89	-34.46315	-1.638394E-005	0.0065076	8
	21	98	2390.625	1061.173	-755.5882	1	1302.69	-35.45204	2.894234E-006	-0.0045431	8
	22	101	1884.191	1148.746	-860.049	1	1435.026	-36.82166	-1.625006E-005	0.0043668	8
	23	104	1516.544	1257	-956.786	1	1579.712	-37.27716	-1.687868E-005	0.0055335	8
	24	108	1193.986	1383.935	-1080.925	1	1756.039	-37.99168	-1.619511E-005	0.004351	8
	25	112	946.5144	1529.578	-1208.23	1	1949.213	-38.3056	1.667274E-005	-0.0049327	8
	26	115	751.7689	1675.562	-1340.494	1	2145.794	-38.66073	1.594449E-005	-0.0025189	8
	27	117	597.4265	1860.484	-1481.562	1	2378.324	-38.53141	-3.559661E-006	-0.0021315	8
	28	120	477.4305	2060.656	-1642.446	1	2635.134	-38.55659	-5.304845E-007	0.0006267	8
	29	122	376.6741	2292.241	-1817.259	1	2925.2	-38.40692	-5.680648E-007	0.0006406	8
	30	125	298.2954	2544.252	-2000.351	1	3236.452	-38.17527	-5.353556E-007	0.0006291	8
	31	127	237.7717	2814.339	-2187.846	1	3564.713	-37.86123	-5.729599E-007	0.0006467	8
	32	129	189.0121	3117.995	-2388.524	1	3927.714	-37.45373	-5.733836E-007	0.000654	8
	33	132	150.2404	3456.196	-2602.052	1	4326.196	-36.97484	-5.072903E-007	0.0005973	7
	34	134	119.1737	3814.083	-2825.481	1	4746.638	-36.53113	-5.087778E-007	0.0006161	7
	35	136	95.0169	4190.667	-3058.58	1	5188.121	-36.12403	-5.080434E-007	0.0006407	7
	36	139	75.60484	4592.646	-3312.651	1	5662.69	-35.8027	-5.041421E-007	0.0005949	7
	37	142	54.50582	5217.332	-3724.182	1	6410.154	-35.51962	-5.08567E-007	0.0006207	7
	38	144	45.95588	5565.736	-3969.551	1	6836.282	-35.49693	-5.21138E-007	0.0006066	7
	39	146	37.20238	6030.604	-4303.934	1	7408.916	-35.51477	-5.123973E-007	0.0006334	7
	40	149	30.04808	6542.666	-4675.986	1	8041.849	-35.55306	-5.163398E-007	0.0006265	7
	41	151	23.91582	7151.962	-5129.129	1	8801.053	-35.64672	-5.258217E-007	0.0005958	7
	42	154	18.60119	7912.534	-5678.764	1	9739.43	-35.66671	-4.972276E-007	0.0006254	7
	43	156	15.02404	8639.044	-6163.161	1	10612.15	-35.50436	-5.014634E-007	0.000607	7
	44	158	12.01923	9488.355	-6710.1	1	11621.29	-35.26769	-5.498792E-007	0.0005971	7
	45	161	9.450605	10501	-7298.171	1	12788.06	-34.79921	-5.354477E-007	0.0006074	7
	46	163	7.512019	11575.94	-7839.473	1	13980.69	-34.1067	-5.269376E-007	0.0006162	7
	47	166	5.978954	12663.44	-8213.12	1	15093.64	-32.96622	-5.466896E-007	0.0006552	7
	48	170	4.734848	13859.72	-8567.466	1	16293.97	-31.72252	-5.300049E-007	0.0006501	7
	49	175	3.75601	15132.19	-8888.015	1	17549.36	-30.4282	-5.442305E-007	0.0006298	7
	50	180	3.004808	16378.58	-9141.359	1	18756.93	-29.16715	-5.508145E-007	0.0006657	7
	51	187	2.372217	17725.56	-9283.895	1	20009.66	-27.64363	-5.434056E-007	0.0007262	7
	52	194	1.878005	18946.19	-9255.712	1	21086.16	-26.03673	-5.559181E-007	0.0005888	7
	53	203	1.512097	20162.12	-9332.502	1	22217.26	-24.83815	-5.520228E-007	0.0007118	7
	54	214	1.201923	21443.59	-9361.458	1	23397.96	-23.58425	-5.501454E-007	0.0005831	7
	55	227	0.956633	22847.8	-9447.89	1	24724.17	-22.46579	-5.927857E-007	-2.277367E-005	7
