EXPLAIN
TAG	EISPOT
TITLE	LABEL	Potentiostatic EIS	Test Identifier
DATE	LABEL	8/18/2020	Date
TIME	LABEL	1:22:15	Time
NOTES	NOTES	1	Notes...
	
PSTAT	PSTAT	REF3000-16137	Potentiostat
VDC	POTEN	0.00000E+000	T	DC Voltage (V)
FREQINIT	QUANT	3.00000E+005	Initial Freq. (Hz)
FREQFINAL	QUANT	1.00000E+000	Final Freq. (Hz)
PTSPERDEC	QUANT	1.00000E+001	Points/decade
VAC	QUANT	5.00000E+001	AC Voltage (mV rms)
AREA	QUANT	1.00000E+000	Sample Area (cm^2)
SPEED	SELECTOR	2	Optimize for:
ZGUESS	QUANT	1.00000E+003	Estimated Z (ohms)
EOC	QUANT	0	Open Circuit (V)
SEQUENCER	TOGGLE	TRUE	Run as Sequence
PSTATMODEL	IQUANT	5	Pstat Model
PSTATSECTION	LABEL	REF3000-16137	Pstat Section
PSTATSERIALNO	LABEL	16137	Pstat Serial Number
CTRLMODE	IQUANT	1	Control Mode
IESTAB	IQUANT	0	I/E Stability
CASPEED	IQUANT	1	Control Amp Speed
CONVENTION	IQUANT	1	Current Convention
ICHRANGE	IQUANT	2	Ich Range
ICHRANGEMODE	TOGGLE	F	Ich Auto Range
ICHOFFSETENABLE	TOGGLE	T	Ich Offset Enable
ICHOFFSET	QUANT	0	Ich Offset (V)
ICHFILTER	IQUANT	3	Ich Filter
VCHRANGE	IQUANT	2	Vch Range
VCHRANGEMODE	TOGGLE	F	Vch Auto Range
VCHOFFSETENABLE	TOGGLE	T	Vch Offset Enable
VCHOFFSET	QUANT	0	Vch Offset (V)
VCHFILTER	IQUANT	3	Vch Filter
ACHRANGE	IQUANT	2	Ach Range
ACHOFFSETENABLE	TOGGLE	F	Ach Offset Enable
ACHOFFSET	QUANT	0	Ach Offset (V)
ACHFILTER	IQUANT	3	Ach Filter
IERANGELOWERLIMIT	IQUANT	2	I/E Range Lower Limit
IERANGEMODE	TOGGLE	F	I/E AutoRange
IERANGE	IQUANT	11	I/E Range
POSFEEDENABLE	TOGGLE	F	Positive Feedback IR Comp
POSFEEDRESISTANCE	QUANT	0	Positive Feedback Resistance (ohm)
ACHSELECT	IQUANT	0	Ach Select
CABLEID	IQUANT	13	Cable ID
DCCALDATE	LABEL	7/31/2020	DC Calibration Date
ACCALDATE	LABEL	7/31/2020	AC Calibration Date
THERMOSELECT	IQUANT	1	Thermo Select
FRAMEWORKVERSION	QUANT	6.33	Framework Version
INSTRUMENTVERSION	LABEL	3.50	Instrument Version
COMPLIANCEVOLTAGE	IQUANT	0	Compliance Voltage
ZCURVE	TABLE
	Pt	Time	Freq	Zreal	Zimag	Zsig	Zmod	Zphz	Idc	Vdc	IERange
	#	s	Hz	ohm	ohm	V	ohm	°	A	V	#
	0	14	300046.9	1143.543	-4244.395	1	4395.746	-74.92117	8.163638E-005	-0.0018294	9
	1	36	238359.4	1628.438	-4966.13	1	5226.305	-71.84522	3.091665E-005	-0.0021129	9
	2	52	189328.1	2403.814	-6078.859	1	6536.884	-68.42426	8.021235E-005	-0.0016524	9
	3	60	150421.9	3464.27	-6868.859	1	7693.009	-63.23617	2.526329E-005	0.0011358	9
	4	70	119484.4	4855.868	-7958.024	1	9322.532	-58.60908	-6.156373E-005	0.0071923	8
	5	78	94921.88	6397.624	-8748.212	1	10837.93	-53.82175	-1.992014E-005	0.0112685	8
	6	86	75421.88	8421.419	-9598.24	1	12768.96	-48.73654	-9.934209E-006	-0.0020774	8
	7	95	59859.37	10538.42	-9917.79	1	14471.38	-43.26222	-2.673968E-005	0.0077241	8
	8	104	47578.12	14459.38	-9210.916	1	17143.94	-32.49795	-8.491955E-007	-0.01372	7
	9	111	37828.12	16300.19	-8815.232	1	18531.18	-28.40477	-7.219597E-006	0.0180905	7
	10	117	30046.88	17947.08	-8221.747	1	19740.69	-24.61302	7.578843E-006	-0.0237818	7
	11	124	23859.38	19627.83	-7634.038	1	21060.16	-21.25302	6.849288E-006	-0.0161706	7
	12	128	18984.38	20697.24	-6744.88	1	21768.54	-18.04991	-7.238742E-006	0.0181502	7
	13	132	15046.87	21746.02	-5992.428	1	22556.57	-15.40631	6.87334E-006	-0.0265381	7
	14	136	11953.13	22653.34	-5346.105	1	23275.62	-13.27864	-6.093426E-006	0.0098075	7
	15	141	9515.62	23049.28	-4681.693	1	23519.94	-11.48153	-4.024625E-006	0.0253163	7
	16	145	7546.875	23974.58	-4187.012	1	24337.45	-9.90644	-6.996094E-006	0.0233393	7
	17	149	5928.309	24554.42	-3929.76	1	24866.9	-9.092672	1.387939E-006	-0.0200557	7
	18	155	4733.456	25279.11	-3721.205	1	25551.53	-8.374069	2.764188E-005	-0.007539	8
	19	161	3796.875	24973.52	-4557.9	1	25386.04	-10.34317	-1.225537E-005	0.0010899	9
	20	169	2987.132	26163.48	-3702.992	1	26424.23	-8.055731	-1.946556E-006	0.0221989	7
	21	174	2390.625	27035.15	-3861.823	1	27309.58	-8.129392	5.450937E-006	-0.0266196	7
	22	179	1884.191	27518.51	-3840.393	1	27785.19	-7.9447	2.668228E-005	-0.0053825	8
	23	186	1516.544	27633.97	-5656.066	1	28206.87	-11.56742	2.383804E-005	-0.003003	8
	24	193	1193.986	30728.99	-4697.618	1	31085.99	-8.691658	-2.671034E-005	0.007727	8
	25	200	946.5144	33485.14	-10883.25	1	35209.38	-18.00505	-1.098766E-005	0.0101279	8
	26	205	751.7689	30306.99	-6633.12	1	31024.38	-12.34534	1.816779E-005	-5.956229E-005	8
	27	210	597.4265	30307.03	-5427.414	1	30789.16	-10.15297	-1.642966E-005	3.502862E-005	9
	28	216	477.4305	32772.95	-9144.775	1	34024.89	-15.59092	-8.2703E-008	0.0005787	7
	29	219	376.6741	33759.49	-10770.97	1	35436.1	-17.69529	-8.798573E-008	0.0006222	7
	30	222	298.2954	34892.2	-12713.07	1	37136.07	-20.01935	-8.518276E-008	0.0005958	7
	31	224	237.7717	36431.36	-14718.75	1	39292.31	-21.99936	-1.181613E-008	0.000696	6
	32	226	189.0121	38013.67	-17445.21	1	41825.52	-24.6513	-1.086874E-008	0.0006583	6
	33	229	150.2404	39935.7	-20622.37	1	44945.99	-27.31134	-1.077784E-008	0.0006026	6
	34	231	119.1737	42306.53	-24261.17	1	48769.32	-29.83262	-1.095991E-008	0.0005978	6
	35	234	95.0169	44930.46	-28472.93	1	53192.61	-32.36289	-1.071857E-008	0.0006311	6
	36	236	75.60484	48195.77	-33235.28	1	58544.13	-34.58973	-1.142054E-008	0.0006871	6
	37	239	54.50582	53785.01	-41111.55	1	67697.77	-37.39315	-1.100491E-008	0.0006845	6
	38	241	45.95588	57391.09	-45947.78	1	73518.27	-38.68105	-1.145818E-008	0.0006973	6
	39	244	37.20238	62281.92	-52451.78	1	81426.2	-40.10298	-1.081379E-008	0.0006107	6
	40	246	30.04808	67965.28	-59841.68	1	90555.55	-41.36309	-1.142544E-008	0.0006919	6
	41	248	23.91582	74914.51	-68808.42	1	101719.1	-42.56725	-1.168908E-008	0.0006614	6
	42	251	18.60119	83723.05	-80137.42	1	115894.6	-43.74644	-1.292828E-008	0.0006855	6
	43	253	15.02404	92216.59	-91088.66	1	129618.8	-44.64745	-1.138496E-008	0.0006458	6
	44	256	12.01923	102403	-104078.9	1	146009.5	-45.46503	-1.231817E-008	0.0006769	6
	45	258	9.450605	115092.4	-120036.3	1	166297.8	-46.20454	-1.081351E-008	0.0006202	6
	46	261	7.512019	128980	-137797.2	1	188743	-46.89299	-1.054346E-008	0.0006636	6
	47	264	5.978954	145231.2	-157943.2	1	214565.1	-47.40099	-1.081456E-008	0.0006921	6
	48	268	4.734848	163990.4	-181311.3	1	244472.2	-47.87165	-9.976925E-009	0.0007343	6
	49	271	3.75601	185905.2	-208133.8	1	279070.6	-48.22876	-1.02074E-008	0.0006079	6
	50	277	3.004808	210168	-237857	1	317406	-48.53653	-1.007697E-008	0.00061	6
	51	283	2.372217	239207.8	-273162.2	1	363095	-48.7914	-1.098599E-008	0.0006923	6
	52	287	1.878005	271858.2	-314118.7	1	415424.4	-49.12502	-1.136749E-008	0.0006327	6
	53	292	1.512097	306071.9	-357269.4	1	470448.2	-49.41341	-2.459619E-009	0.0006075	5
	54	298	1.201923	347275.1	-410041.2	1	537339.5	-49.73782	-2.30358E-009	0.0006316	5
	55	304	0.956633	393688.8	-471355.8	1	614139.3	-50.13047	-2.610407E-009	-5.080485E-006	5
