EXPLAIN
TAG	EISPOT
TITLE	LABEL	Potentiostatic EIS	Test Identifier
DATE	LABEL	8/18/2020	Date
TIME	LABEL	1:17:42	Time
NOTES	NOTES	1	Notes...
	
PSTAT	PSTAT	REF3000-16137	Potentiostat
VDC	POTEN	0.00000E+000	T	DC Voltage (V)
FREQINIT	QUANT	3.00000E+005	Initial Freq. (Hz)
FREQFINAL	QUANT	1.00000E+000	Final Freq. (Hz)
PTSPERDEC	QUANT	1.00000E+001	Points/decade
VAC	QUANT	5.00000E+001	AC Voltage (mV rms)
AREA	QUANT	1.00000E+000	Sample Area (cm^2)
SPEED	SELECTOR	2	Optimize for:
ZGUESS	QUANT	1.00000E+003	Estimated Z (ohms)
EOC	QUANT	0	Open Circuit (V)
SEQUENCER	TOGGLE	TRUE	Run as Sequence
PSTATMODEL	IQUANT	5	Pstat Model
PSTATSECTION	LABEL	REF3000-16137	Pstat Section
PSTATSERIALNO	LABEL	16137	Pstat Serial Number
CTRLMODE	IQUANT	1	Control Mode
IESTAB	IQUANT	0	I/E Stability
CASPEED	IQUANT	1	Control Amp Speed
CONVENTION	IQUANT	1	Current Convention
ICHRANGE	IQUANT	2	Ich Range
ICHRANGEMODE	TOGGLE	F	Ich Auto Range
ICHOFFSETENABLE	TOGGLE	T	Ich Offset Enable
ICHOFFSET	QUANT	0	Ich Offset (V)
ICHFILTER	IQUANT	3	Ich Filter
VCHRANGE	IQUANT	2	Vch Range
VCHRANGEMODE	TOGGLE	F	Vch Auto Range
VCHOFFSETENABLE	TOGGLE	T	Vch Offset Enable
VCHOFFSET	QUANT	0	Vch Offset (V)
VCHFILTER	IQUANT	3	Vch Filter
ACHRANGE	IQUANT	2	Ach Range
ACHOFFSETENABLE	TOGGLE	F	Ach Offset Enable
ACHOFFSET	QUANT	0	Ach Offset (V)
ACHFILTER	IQUANT	3	Ach Filter
IERANGELOWERLIMIT	IQUANT	2	I/E Range Lower Limit
IERANGEMODE	TOGGLE	F	I/E AutoRange
IERANGE	IQUANT	11	I/E Range
POSFEEDENABLE	TOGGLE	F	Positive Feedback IR Comp
POSFEEDRESISTANCE	QUANT	0	Positive Feedback Resistance (ohm)
ACHSELECT	IQUANT	0	Ach Select
CABLEID	IQUANT	13	Cable ID
DCCALDATE	LABEL	7/31/2020	DC Calibration Date
ACCALDATE	LABEL	7/31/2020	AC Calibration Date
THERMOSELECT	IQUANT	1	Thermo Select
FRAMEWORKVERSION	QUANT	6.33	Framework Version
INSTRUMENTVERSION	LABEL	3.50	Instrument Version
COMPLIANCEVOLTAGE	IQUANT	0	Compliance Voltage
ZCURVE	TABLE
	Pt	Time	Freq	Zreal	Zimag	Zsig	Zmod	Zphz	Idc	Vdc	IERange
	#	s	Hz	ohm	ohm	V	ohm	°	A	V	#
	0	16	300046.9	1801.404	-3564.837	1	3994.135	-63.19135	-3.217002E-005	-0.0012531	9
	1	32	238359.4	2415.549	-3980.943	1	4656.478	-58.75154	2.739622E-005	0.0009033	9
	2	45	189328.1	3184.074	-4479.692	1	5495.996	-54.59556	2.501004E-005	0.0011126	9
	3	54	150421.9	4268.717	-4676.23	1	6331.593	-47.60847	1.928044E-005	-0.0020986	9
	4	61	119484.4	5383.711	-4668.521	1	7125.97	-40.93041	6.626474E-005	-0.026036	8
	5	69	94921.88	6370.859	-4698.61	1	7916.109	-36.40937	2.588933E-005	-0.0090156	8
	6	78	75421.88	7381.487	-4480.226	1	8634.742	-31.25584	-2.429126E-005	0.0110392	8
	7	86	59859.37	8319.552	-4271.584	1	9352.079	-27.17774	8.663783E-006	0.0040405	8
	8	94	47578.12	9961.98	-2998.308	1	10403.41	-16.75049	1.623187E-006	-0.0202309	7
	9	100	37828.12	10379.83	-2652.685	1	10713.44	-14.33575	-6.371713E-006	0.0243536	7
	10	104	30046.88	10684.57	-2313.149	1	10932.09	-12.2157	4.391483E-006	0.0008314	7
	11	109	23859.38	10937.59	-2007.777	1	11120.34	-10.4018	6.570466E-006	-0.0252728	7
	12	113	18984.38	11214.07	-1834.36	1	11363.11	-9.289975	-5.409498E-006	0.0258414	7
	13	117	15046.87	11428.79	-1693.875	1	11553.64	-8.4305	-7.018436E-006	0.0219175	7
	14	121	11953.13	11645.99	-1594.675	1	11754.67	-7.79697	-6.264241E-006	0.0102957	7
	15	126	9515.62	11803.81	-1553.943	1	11905.65	-7.499727	2.231313E-006	0.0096111	7
	16	130	7546.875	12073.94	-1588.817	1	12178.03	-7.496512	5.468445E-006	-0.0257531	7
	17	134	5928.309	12309.82	-1599.545	1	12413.31	-7.403566	-4.84094E-006	0.0020977	7
	18	139	4733.456	12487.59	-1765.747	1	12611.81	-8.048278	4.456117E-006	0.0006245	7
	19	143	3796.875	12776.15	-1868.364	1	12912.04	-8.31987	-6.525391E-006	0.0157858	7
	20	147	2987.132	12930.99	-2108.327	1	13101.74	-9.26028	4.447988E-006	0.0007198	7
	21	151	2390.625	13323.46	-2413.331	1	13540.27	-10.26689	-6.393788E-006	0.0244941	7
	22	156	1884.191	13645.38	-2745.186	1	13918.78	-11.37496	6.137429E-006	-0.0083916	7
	23	160	1516.544	14028.24	-3153.595	1	14378.34	-12.66966	9.590713E-008	0.016726	7
	24	164	1193.986	14439.52	-3692.213	1	14904.1	-14.34331	-2.966453E-006	-0.0060827	7
	25	169	946.5144	14843.97	-4734.73	1	15580.79	-17.69094	-7.133278E-007	-0.0141511	7
	26	171	751.7689	15314.67	-5093.803	1	16139.58	-18.39761	6.191821E-006	-0.0083167	7
	27	174	597.4265	16085.5	-6069.369	1	17192.46	-20.67246	1.579424E-008	0.0172083	7
	28	176	477.4305	16415.88	-7070.645	1	17873.87	-23.3025	-8.885772E-008	0.000622	7
	29	179	376.6741	17182.71	-8377.59	1	19116.21	-25.99198	-9.478936E-008	0.0006446	7
	30	181	298.2954	18092.52	-9885.23	1	20616.91	-28.65092	-8.544787E-008	0.0005572	7
	31	183	237.7717	19173.08	-11584.45	1	22401.04	-31.14054	-8.881612E-008	0.000575	7
	32	186	189.0121	20475.74	-13558.06	1	24557.63	-33.51062	-9.366075E-008	0.0006495	7
	33	188	150.2404	22037.16	-15804.96	1	27118.87	-35.64793	-8.489078E-008	0.0005584	7
	34	191	119.1737	23830.13	-18414.19	1	30115.73	-37.69423	-8.504855E-008	0.0006055	7
	35	193	95.0169	25992.61	-21255.98	1	33577.26	-39.27528	-9.09818E-008	0.0006249	7
	36	196	75.60484	28467.24	-24511.87	1	37566.15	-40.73027	-8.724911E-008	0.0006409	7
	37	198	54.50582	32724.34	-29900.2	1	44327.24	-42.41791	-1.196137E-008	0.0005941	6
	38	201	45.95588	35293.54	-33224.77	1	48471.84	-43.2706	-1.13904E-008	0.0005995	6
	39	203	37.20238	38830.99	-37747.9	1	54154.87	-44.18969	-1.120901E-008	0.0006878	6
	40	205	30.04808	42918.5	-42884.15	1	60671.64	-44.97706	-1.111959E-008	0.0006039	6
	41	208	23.91582	47923.25	-49109.82	1	68617.88	-45.70061	-1.181215E-008	0.0006714	6
	42	210	18.60119	54190.93	-56838.6	1	78532.05	-46.36604	-9.615653E-009	0.0006515	6
	43	212	15.02404	60421.95	-64516.31	1	88392.12	-46.87697	-1.399136E-008	0.0006985	6
	44	215	12.01923	67806.59	-73425.98	1	99945.5	-47.2785	-1.422757E-008	0.0006958	6
	45	217	9.450605	76818.71	-84146.03	1	113937.1	-47.60638	-1.039593E-008	0.0006903	6
	46	220	7.512019	86636.3	-96107.8	1	129393	-47.96694	-1.253494E-008	0.0006773	6
	47	223	5.978954	97744.3	-109436.7	1	146732.1	-48.23011	-1.137913E-008	0.0006981	6
	48	227	4.734848	110493.7	-125171	1	166963	-48.5638	-1.000236E-008	0.0006361	6
	49	230	3.75601	125153	-143190.2	1	190175.5	-48.84546	-1.261178E-008	0.0006263	6
	50	236	3.004808	141150.1	-163312.1	1	215856.9	-49.16325	-1.230178E-008	0.0007125	6
	51	242	2.372217	160382.9	-187717.4	1	246901.7	-49.48993	-1.222882E-008	0.0007205	6
	52	246	1.878005	181224.1	-216092.5	1	282025.1	-50.01541	-1.25588E-008	0.0006245	6
	53	251	1.512097	203364.6	-246041.5	1	319207.7	-50.4247	-1.21009E-008	0.0007301	6
	54	257	1.201923	230148.6	-284229.6	1	365725.1	-51.00194	-1.16897E-008	0.0006078	6
	55	263	0.956633	260079	-328587.5	1	419059.5	-51.63817	-1.280617E-008	8.467669E-006	6
