EXPLAIN
TAG	EISPOT
TITLE	LABEL	Potentiostatic EIS	Test Identifier
DATE	LABEL	8/18/2020	Date
TIME	LABEL	0:27:21	Time
NOTES	NOTES	1	Notes...
	
PSTAT	PSTAT	REF3000-16137	Potentiostat
VDC	POTEN	0.00000E+000	T	DC Voltage (V)
FREQINIT	QUANT	3.00000E+005	Initial Freq. (Hz)
FREQFINAL	QUANT	1.00000E+000	Final Freq. (Hz)
PTSPERDEC	QUANT	1.00000E+001	Points/decade
VAC	QUANT	5.00000E+001	AC Voltage (mV rms)
AREA	QUANT	1.00000E+000	Sample Area (cm^2)
SPEED	SELECTOR	2	Optimize for:
ZGUESS	QUANT	1.00000E+003	Estimated Z (ohms)
EOC	QUANT	0	Open Circuit (V)
SEQUENCER	TOGGLE	TRUE	Run as Sequence
PSTATMODEL	IQUANT	5	Pstat Model
PSTATSECTION	LABEL	REF3000-16137	Pstat Section
PSTATSERIALNO	LABEL	16137	Pstat Serial Number
CTRLMODE	IQUANT	1	Control Mode
IESTAB	IQUANT	0	I/E Stability
CASPEED	IQUANT	1	Control Amp Speed
CONVENTION	IQUANT	1	Current Convention
ICHRANGE	IQUANT	2	Ich Range
ICHRANGEMODE	TOGGLE	F	Ich Auto Range
ICHOFFSETENABLE	TOGGLE	T	Ich Offset Enable
ICHOFFSET	QUANT	0	Ich Offset (V)
ICHFILTER	IQUANT	3	Ich Filter
VCHRANGE	IQUANT	2	Vch Range
VCHRANGEMODE	TOGGLE	F	Vch Auto Range
VCHOFFSETENABLE	TOGGLE	T	Vch Offset Enable
VCHOFFSET	QUANT	0	Vch Offset (V)
VCHFILTER	IQUANT	3	Vch Filter
ACHRANGE	IQUANT	2	Ach Range
ACHOFFSETENABLE	TOGGLE	F	Ach Offset Enable
ACHOFFSET	QUANT	0	Ach Offset (V)
ACHFILTER	IQUANT	3	Ach Filter
IERANGELOWERLIMIT	IQUANT	2	I/E Range Lower Limit
IERANGEMODE	TOGGLE	F	I/E AutoRange
IERANGE	IQUANT	11	I/E Range
POSFEEDENABLE	TOGGLE	F	Positive Feedback IR Comp
POSFEEDRESISTANCE	QUANT	0	Positive Feedback Resistance (ohm)
ACHSELECT	IQUANT	0	Ach Select
CABLEID	IQUANT	13	Cable ID
DCCALDATE	LABEL	7/31/2020	DC Calibration Date
ACCALDATE	LABEL	7/31/2020	AC Calibration Date
THERMOSELECT	IQUANT	1	Thermo Select
FRAMEWORKVERSION	QUANT	6.33	Framework Version
INSTRUMENTVERSION	LABEL	3.50	Instrument Version
COMPLIANCEVOLTAGE	IQUANT	0	Compliance Voltage
ZCURVE	TABLE
	Pt	Time	Freq	Zreal	Zimag	Zsig	Zmod	Zphz	Idc	Vdc	IERange
	#	s	Hz	ohm	ohm	V	ohm	°	A	V	#
	0	8	300046.9	349.4118	-43.19822	1	352.072	-7.047787	8.914938E-005	-0.0028037	9
	1	13	238359.4	351.6987	-44.54171	1	354.508	-7.217931	5.318298E-005	-0.0002131	9
	2	19	189328.1	352.8326	-51.34707	1	356.5493	-8.280021	-4.935242E-008	0.0003217	10
	3	24	150421.9	359.048	-46.93872	1	362.1032	-7.448098	8.368242E-005	-0.0031097	9
	4	29	119484.4	361.8943	-53.50296	1	365.8279	-8.40977	2.422605E-005	-0.0014288	9
	5	33	94921.88	366.3757	-60.07695	1	371.2686	-9.312279	1.742497E-005	-0.0008813	9
	6	36	75421.88	371.4647	-67.81026	1	377.6033	-10.34534	-1.468E-006	-0.0004789	9
	7	38	59859.37	377.7475	-70.49467	1	384.269	-10.57086	-1.326974E-005	0.0037796	8
	8	41	47578.12	384.0382	-84.85443	1	393.3009	-12.4595	-8.291791E-006	0.0054112	8
	9	43	37828.12	391.497	-99.9566	1	404.056	-14.3227	6.644354E-006	-0.0042953	8
	10	46	30046.88	399.6106	-118.9476	1	416.9378	-16.5761	1.067264E-005	-0.0004863	8
	11	48	23859.38	410.6833	-141.1629	1	434.2669	-18.96923	1.249873E-006	-0.0030682	8
	12	51	18984.38	423.1147	-167.1539	1	454.9357	-21.55679	9.968071E-006	-0.0046544	8
	13	53	15046.87	437.9351	-197.5419	1	480.4268	-24.27898	-7.511338E-006	2.25892E-005	8
	14	55	11953.13	458.0466	-233.8716	1	514.2982	-27.04816	-1.40939E-005	0.0048564	8
	15	58	9515.62	480.4689	-275.073	1	553.6385	-29.79154	1.372835E-005	-0.0040604	8
	16	60	7546.875	509.7784	-324.2347	1	604.1541	-32.45761	-6.9334E-006	0.0052804	8
	17	63	5928.309	547.7811	-381.516	1	667.5467	-34.85626	-1.419775E-005	0.0049274	8
	18	65	4733.456	588.979	-445.1169	1	738.2583	-37.07991	-1.40056E-005	0.0048191	8
	19	67	3796.875	634.7239	-513.2953	1	816.3005	-38.96215	6.467332E-006	0.0015256	8
	20	70	2987.132	693.7189	-598.8719	1	916.457	-40.80331	6.497084E-006	-0.0042615	8
	21	73	2390.625	762.2571	-686.7839	1	1026.016	-42.01845	-1.321486E-005	0.0036915	8
	22	76	1884.191	849.4569	-791.5964	1	1161.121	-42.98069	8.959127E-007	0.0036525	8
	23	78	1516.544	937.5572	-896.974	1	1297.527	-43.73272	-1.407747E-005	0.0048264	8
	24	81	1193.986	1049.438	-1029.348	1	1469.993	-44.4463	8.416142E-007	0.0036227	8
	25	84	946.5144	1179.542	-1159.743	1	1654.183	-44.51508	-1.371673E-005	0.0047093	8
	26	87	751.7689	1330.197	-1314.878	1	1870.381	-44.66818	6.138996E-006	0.0016778	8
	27	90	597.4265	1504.51	-1492.628	1	2119.314	-44.77286	6.35984E-006	-0.0041076	8
	28	92	477.4305	1691.808	-1669.984	1	2377.197	-44.62805	-3.621079E-007	0.0006409	8
	29	95	376.6741	1917.76	-1874.32	1	2681.581	-44.34367	-3.783943E-007	0.0006345	8
	30	97	298.2954	2164.701	-2092.657	1	3010.838	-44.03053	-3.563961E-007	0.0006349	8
	31	99	237.7717	2429.7	-2323.349	1	3361.754	-43.71821	-3.870312E-007	0.0006469	8
	32	102	189.0121	2722.556	-2579.19	1	3750.271	-43.45103	-3.789413E-007	0.0006674	8
	33	104	150.2404	3048.03	-2867.771	1	4185.044	-43.25469	-3.896883E-007	0.0006128	7
	34	106	119.1737	3396.856	-3193.212	1	4662.106	-43.23003	-3.959757E-007	0.000631	7
	35	109	95.0169	3769.796	-3553.907	1	5180.889	-43.31152	-3.890456E-007	0.0006218	7
	36	111	75.60484	4181.409	-3973.005	1	5767.924	-43.536	-3.873424E-007	0.0005905	7
	37	114	54.50582	4845.653	-4683.746	1	6739.275	-44.02662	-3.916476E-007	0.0006077	7
	38	116	45.95588	5238.451	-5120.302	1	7325.221	-44.34653	-3.958708E-007	0.0006165	7
	39	119	37.20238	5774.352	-5728.353	1	8133.706	-44.77087	-3.911368E-007	0.0005983	7
	40	121	30.04808	6388.106	-6430.633	1	9064.268	-45.19008	-3.883466E-007	0.0006071	7
	41	124	23.91582	7133.897	-7287.877	1	10198.32	-45.61172	-3.948152E-007	0.0006053	7
	42	126	18.60119	8098.784	-8367.721	1	11645.13	-45.93569	-4.00181E-007	0.0006039	7
	43	128	15.02404	9067.86	-9415.034	1	13071.69	-46.07609	-3.732919E-007	0.0006338	7
	44	130	12.01923	10226.65	-10613.72	1	14738.92	-46.06404	-4.018034E-007	0.0005969	7
	45	133	9.450605	11688.7	-12048.46	1	16786.63	-45.86832	-4.026254E-007	0.0006091	7
	46	135	7.512019	13298.7	-13559.66	1	18992.63	-45.55668	-4.038399E-007	0.0006221	7
	47	138	5.978954	15171.8	-15193.12	1	21471.25	-45.04023	-3.931857E-007	0.0006269	7
	48	141	4.734848	17385.73	-16940.83	1	24274.59	-44.25743	-3.885158E-007	0.0006148	7
	49	144	3.75601	19878.04	-18812.02	1	27368.39	-43.42174	-3.905327E-007	0.0006466	7
	50	148	3.004808	22570.6	-20607.24	1	30562.89	-42.39647	-3.712056E-007	0.0005649	7
	51	152	2.372217	25804.5	-22563.04	1	34277.74	-41.16593	-3.831154E-007	0.0005413	7
	52	156	1.878005	29247.97	-24502.94	1	38155.45	-39.95512	-3.776936E-007	0.0006197	7
	53	160	1.512097	32696.04	-26315.32	1	41970.55	-38.82876	-3.738588E-007	0.0005443	7
	54	166	1.201923	36745.37	-28288.83	1	46373.27	-37.59127	-3.759009E-007	0.0006421	7
	55	172	0.956633	41025.7	-30263.97	1	50980.55	-36.41558	-3.741368E-007	6.071313E-005	6
