EXPLAIN
TAG	EISPOT
TITLE	LABEL	Potentiostatic EIS	Test Identifier
DATE	LABEL	8/18/2020	Date
TIME	LABEL	0:14:16	Time
NOTES	NOTES	1	Notes...
	
PSTAT	PSTAT	REF3000-16137	Potentiostat
VDC	POTEN	0.00000E+000	T	DC Voltage (V)
FREQINIT	QUANT	3.00000E+005	Initial Freq. (Hz)
FREQFINAL	QUANT	1.00000E+000	Final Freq. (Hz)
PTSPERDEC	QUANT	1.00000E+001	Points/decade
VAC	QUANT	5.00000E+001	AC Voltage (mV rms)
AREA	QUANT	1.00000E+000	Sample Area (cm^2)
SPEED	SELECTOR	2	Optimize for:
ZGUESS	QUANT	1.00000E+003	Estimated Z (ohms)
EOC	QUANT	0	Open Circuit (V)
SEQUENCER	TOGGLE	TRUE	Run as Sequence
PSTATMODEL	IQUANT	5	Pstat Model
PSTATSECTION	LABEL	REF3000-16137	Pstat Section
PSTATSERIALNO	LABEL	16137	Pstat Serial Number
CTRLMODE	IQUANT	1	Control Mode
IESTAB	IQUANT	0	I/E Stability
CASPEED	IQUANT	1	Control Amp Speed
CONVENTION	IQUANT	1	Current Convention
ICHRANGE	IQUANT	2	Ich Range
ICHRANGEMODE	TOGGLE	F	Ich Auto Range
ICHOFFSETENABLE	TOGGLE	T	Ich Offset Enable
ICHOFFSET	QUANT	0	Ich Offset (V)
ICHFILTER	IQUANT	3	Ich Filter
VCHRANGE	IQUANT	2	Vch Range
VCHRANGEMODE	TOGGLE	F	Vch Auto Range
VCHOFFSETENABLE	TOGGLE	T	Vch Offset Enable
VCHOFFSET	QUANT	0	Vch Offset (V)
VCHFILTER	IQUANT	3	Vch Filter
ACHRANGE	IQUANT	2	Ach Range
ACHOFFSETENABLE	TOGGLE	F	Ach Offset Enable
ACHOFFSET	QUANT	0	Ach Offset (V)
ACHFILTER	IQUANT	3	Ach Filter
IERANGELOWERLIMIT	IQUANT	2	I/E Range Lower Limit
IERANGEMODE	TOGGLE	F	I/E AutoRange
IERANGE	IQUANT	11	I/E Range
POSFEEDENABLE	TOGGLE	F	Positive Feedback IR Comp
POSFEEDRESISTANCE	QUANT	0	Positive Feedback Resistance (ohm)
ACHSELECT	IQUANT	0	Ach Select
CABLEID	IQUANT	13	Cable ID
DCCALDATE	LABEL	7/31/2020	DC Calibration Date
ACCALDATE	LABEL	7/31/2020	AC Calibration Date
THERMOSELECT	IQUANT	1	Thermo Select
FRAMEWORKVERSION	QUANT	6.33	Framework Version
INSTRUMENTVERSION	LABEL	3.50	Instrument Version
COMPLIANCEVOLTAGE	IQUANT	0	Compliance Voltage
ZCURVE	TABLE
	Pt	Time	Freq	Zreal	Zimag	Zsig	Zmod	Zphz	Idc	Vdc	IERange
	#	s	Hz	ohm	ohm	V	ohm	°	A	V	#
	0	13	300046.9	362.8811	-49.516	1	366.2438	-7.770158	2.223263E-005	-0.0016767	9
	1	18	238359.4	364.7126	-50.58735	1	368.2043	-7.896808	-1.236073E-005	0.0014986	9
	2	25	189328.1	367.6275	-51.72953	1	371.2492	-8.009605	7.501493E-005	-0.0016258	9
	3	34	150421.9	370.9747	-56.63753	1	375.2733	-8.680445	2.250299E-005	-0.0004467	9
	4	41	119484.4	375.0297	-60.35579	1	379.8554	-9.14256	1.872382E-005	-0.0008573	9
	5	45	94921.88	379.6771	-67.02706	1	385.5481	-10.01167	-2.214251E-005	0.000936	9
	6	48	75421.88	385.6385	-75.85785	1	393.0286	-11.12841	2.619176E-005	-0.0002929	9
	7	51	59859.37	391.5876	-87.1572	1	401.1698	-12.54801	-5.04477E-007	-0.0004706	9
	8	53	47578.12	399.7531	-93.56866	1	410.5577	-13.17383	1.398687E-005	-0.0039379	8
	9	56	37828.12	407.9424	-110.7989	1	422.7214	-15.19521	1.228364E-005	-0.0045262	8
	10	58	30046.88	417.9221	-130.1154	1	437.7087	-17.2934	1.34445E-005	-0.0020883	8
	11	61	23859.38	430.8824	-153.0189	1	457.2466	-19.55144	1.418619E-005	-0.0031829	8
	12	63	18984.38	445.7803	-179.043	1	480.392	-21.88235	-3.754719E-006	-0.0015293	8
	13	65	15046.87	465.7669	-209.7287	1	510.8081	-24.24141	-1.320518E-005	0.0027476	8
	14	68	11953.13	486.01	-245.4745	1	544.4846	-26.79748	8.452146E-007	0.0036581	8
	15	70	9515.62	512.7919	-285.3349	1	586.8318	-29.09305	1.964625E-006	-0.0033202	8
	16	72	7546.875	547.1641	-333.3209	1	640.696	-31.34889	-4.279273E-006	0.0050254	8
	17	75	5928.309	582.7897	-385.3866	1	698.6892	-33.47583	-4.248935E-006	0.0050812	8
	18	77	4733.456	626.6745	-442.4814	1	767.1445	-35.22509	1.131985E-006	0.0035499	8
	19	80	3796.875	679.1165	-507.8958	1	848.0314	-36.79198	-8.556061E-006	0.0058027	8
	20	82	2987.132	743.1346	-581.1393	1	943.3832	-38.02579	1.019738E-005	-0.0047564	8
	21	85	2390.625	815.1044	-658.3024	1	1047.739	-38.92537	1.395585E-005	-0.002228	8
	22	87	1884.191	900.2552	-748.9365	1	1171.053	-39.75761	-1.178856E-005	0.0060623	8
	23	90	1516.544	986.505	-843.2051	1	1297.762	-40.52184	6.372812E-006	0.0016087	8
	24	93	1193.986	1100.864	-954.445	1	1457.007	-40.92516	-3.222419E-006	-0.0016796	8
	25	97	946.5144	1229.547	-1083.385	1	1638.752	-41.38409	-3.272879E-006	-0.0016597	8
	26	99	751.7689	1366.737	-1203.607	1	1821.164	-41.36854	-1.360601E-005	0.005629	8
	27	102	597.4265	1532.423	-1339.529	1	2035.352	-41.15752	-1.171446E-005	0.0060042	8
	28	104	477.4305	1700.943	-1484.329	1	2257.529	-41.10961	-5.250475E-007	0.0006457	8
	29	107	376.6741	1905.385	-1649.246	1	2520.021	-40.87851	-5.505837E-007	0.0006422	8
	30	109	298.2954	2128.279	-1824.369	1	2803.194	-40.60331	-5.339305E-007	0.0006382	8
	31	111	237.7717	2363.956	-2007.649	1	3101.441	-40.34042	-5.457148E-007	0.0006483	8
	32	114	189.0121	2622.221	-2210.241	1	3429.462	-40.12717	-5.16272E-007	0.0006337	8
	33	116	150.2404	2900.617	-2434.234	1	3786.697	-40.00379	-5.167944E-007	0.0006302	8
	34	119	119.1737	3211.427	-2690.613	1	4189.59	-39.95711	-5.348441E-007	0.0006007	7
	35	121	95.0169	3532.299	-2972.397	1	4616.522	-40.0803	-5.330392E-007	0.000627	7
	36	123	75.60484	3883.73	-3296.558	1	5094.179	-40.32501	-5.322383E-007	0.0006176	7
	37	126	54.50582	4447.932	-3846.856	1	5880.68	-40.85534	-5.390057E-007	0.0006194	7
	38	129	45.95588	4777.487	-4182.844	1	6349.848	-41.20319	-5.355886E-007	0.0006308	7
	39	131	37.20238	5226.615	-4652.317	1	6997.253	-41.67294	-5.427509E-007	0.0006309	7
	40	133	30.04808	5740.963	-5192.219	1	7740.659	-42.12669	-5.410424E-007	0.0006326	7
	41	136	23.91582	6372.286	-5848.559	1	8649.373	-42.54608	-5.231013E-007	0.0006048	7
	42	138	18.60119	7184.229	-6670.755	1	9803.68	-42.87755	-5.318344E-007	0.0006202	7
	43	140	15.02404	7992.351	-7444.312	1	10922.25	-42.96671	-5.33031E-007	0.0006558	7
	44	143	12.01923	8969.988	-8322.538	1	12236.23	-42.85579	-5.124729E-007	0.0006059	7
	45	145	9.450605	10191.65	-9348.478	1	13829.82	-42.52916	-5.208329E-007	0.0006131	7
	46	148	7.512019	11533.2	-10369.01	1	15509.07	-41.95735	-5.169262E-007	0.0006384	7
	47	150	5.978954	13059.67	-11422.7	1	17350.3	-41.17469	-5.188927E-007	0.0006131	7
	48	153	4.734848	14817.35	-12529.3	1	19404.57	-40.2173	-5.449906E-007	0.0005919	7
	49	157	3.75601	16752.02	-13538.24	1	21538.67	-38.94361	-5.185864E-007	0.0006202	7
	50	160	3.004808	18788.92	-14496.86	1	23731.46	-37.6525	-5.230022E-007	0.0006037	7
	51	164	2.372217	21132.59	-15415.87	1	26157.89	-36.11012	-5.335393E-007	0.0005397	7
	52	168	1.878005	23488.37	-16206.36	1	28536.81	-34.60466	-5.241301E-007	0.0006217	7
	53	173	1.512097	25702.47	-16787.35	1	30699.06	-33.15022	-5.281898E-007	0.0006119	7
	54	183	1.201923	28199.6	-17367.35	1	33118.61	-31.62776	-5.278112E-007	0.000639	7
	55	196	0.956633	30801.97	-17970.8	1	35661.05	-30.26058	-5.481362E-007	-2.376793E-005	7
