EXPLAIN
TAG	EISPOT
TITLE	LABEL	Potentiostatic EIS	Test Identifier
DATE	LABEL	8/18/2020	Date
TIME	LABEL	0:46:40	Time
NOTES	NOTES	1	Notes...
	
PSTAT	PSTAT	REF3000-16137	Potentiostat
VDC	POTEN	0.00000E+000	T	DC Voltage (V)
FREQINIT	QUANT	3.00000E+005	Initial Freq. (Hz)
FREQFINAL	QUANT	1.00000E+000	Final Freq. (Hz)
PTSPERDEC	QUANT	1.00000E+001	Points/decade
VAC	QUANT	5.00000E+001	AC Voltage (mV rms)
AREA	QUANT	1.00000E+000	Sample Area (cm^2)
SPEED	SELECTOR	2	Optimize for:
ZGUESS	QUANT	1.00000E+003	Estimated Z (ohms)
EOC	QUANT	0	Open Circuit (V)
SEQUENCER	TOGGLE	TRUE	Run as Sequence
PSTATMODEL	IQUANT	5	Pstat Model
PSTATSECTION	LABEL	REF3000-16137	Pstat Section
PSTATSERIALNO	LABEL	16137	Pstat Serial Number
CTRLMODE	IQUANT	1	Control Mode
IESTAB	IQUANT	0	I/E Stability
CASPEED	IQUANT	1	Control Amp Speed
CONVENTION	IQUANT	1	Current Convention
ICHRANGE	IQUANT	2	Ich Range
ICHRANGEMODE	TOGGLE	F	Ich Auto Range
ICHOFFSETENABLE	TOGGLE	T	Ich Offset Enable
ICHOFFSET	QUANT	0	Ich Offset (V)
ICHFILTER	IQUANT	3	Ich Filter
VCHRANGE	IQUANT	2	Vch Range
VCHRANGEMODE	TOGGLE	F	Vch Auto Range
VCHOFFSETENABLE	TOGGLE	T	Vch Offset Enable
VCHOFFSET	QUANT	0	Vch Offset (V)
VCHFILTER	IQUANT	3	Vch Filter
ACHRANGE	IQUANT	2	Ach Range
ACHOFFSETENABLE	TOGGLE	F	Ach Offset Enable
ACHOFFSET	QUANT	0	Ach Offset (V)
ACHFILTER	IQUANT	3	Ach Filter
IERANGELOWERLIMIT	IQUANT	2	I/E Range Lower Limit
IERANGEMODE	TOGGLE	F	I/E AutoRange
IERANGE	IQUANT	11	I/E Range
POSFEEDENABLE	TOGGLE	F	Positive Feedback IR Comp
POSFEEDRESISTANCE	QUANT	0	Positive Feedback Resistance (ohm)
ACHSELECT	IQUANT	0	Ach Select
CABLEID	IQUANT	13	Cable ID
DCCALDATE	LABEL	7/31/2020	DC Calibration Date
ACCALDATE	LABEL	7/31/2020	AC Calibration Date
THERMOSELECT	IQUANT	1	Thermo Select
FRAMEWORKVERSION	QUANT	6.33	Framework Version
INSTRUMENTVERSION	LABEL	3.50	Instrument Version
COMPLIANCEVOLTAGE	IQUANT	0	Compliance Voltage
ZCURVE	TABLE
	Pt	Time	Freq	Zreal	Zimag	Zsig	Zmod	Zphz	Idc	Vdc	IERange
	#	s	Hz	ohm	ohm	V	ohm	°	A	V	#
	0	16	300046.9	641.8444	-115.1863	1	652.0983	-10.17408	3.142963E-005	-0.0017359	9
	1	27	238359.4	653.2595	-107.0829	1	661.9778	-9.309187	-8.77437E-005	0.0040212	9
	2	40	189328.1	662.9815	-100.0271	1	670.4848	-8.579774	-6.51609E-005	0.0006963	9
	3	47	150421.9	674.115	-96.8495	1	681.0366	-8.175693	-1.969802E-005	0.0011567	9
	4	54	119484.4	687.3441	-72.93215	1	691.2026	-6.056831	-2.412437E-005	-0.0021703	8
	5	58	94921.88	693.0349	-76.37769	1	697.2309	-6.289049	1.140315E-005	-0.0067006	8
	6	61	75421.88	699.289	-84.95888	1	704.431	-6.9271	-3.013546E-006	-0.0026816	8
	7	63	59859.37	706.9226	-97.4456	1	713.6072	-7.848463	-1.803939E-005	0.0059122	8
	8	66	47578.12	715.641	-112.9822	1	724.5046	-8.971556	9.488243E-006	-0.0058382	8
	9	68	37828.12	726.7823	-130.8413	1	738.466	-10.20554	9.721233E-006	-0.0059748	8
	10	71	30046.88	737.7335	-150.2169	1	752.8717	-11.5092	-1.210193E-005	0.0077792	8
	11	73	23859.38	753.4411	-177.706	1	774.1143	-13.2712	4.624487E-007	0.0048484	8
	12	75	18984.38	770.1735	-206.2097	1	797.3015	-14.98906	-6.263718E-006	0.0066582	8
	13	78	15046.87	788.9692	-242.4482	1	825.3808	-17.08206	3.470942E-006	-0.0046463	8
	14	81	11953.13	811.928	-285.2072	1	860.5639	-19.35492	-1.727066E-005	0.0040875	8
	15	84	9515.62	838.5953	-335.9004	1	903.3665	-21.82863	1.650679E-005	-0.0034756	8
	16	88	7546.875	871.354	-397.2637	1	957.641	-24.50897	-1.75856E-005	0.0069275	8
	17	91	5928.309	910.3062	-473.1728	1	1025.938	-27.46519	1.760228E-005	-0.0063412	8
	18	94	4733.456	954.688	-552.3416	1	1102.955	-30.05184	4.404949E-007	0.0050029	8
	19	97	3796.875	1012.157	-645.6832	1	1200.57	-32.53494	-1.307291E-005	0.0014631	8
	20	100	2987.132	1086.9	-764.7715	1	1328.995	-35.13124	3.131158E-007	0.0049154	8
	21	103	2390.625	1165.758	-886.6387	1	1464.623	-37.25547	3.759592E-006	-0.0046987	8
	22	107	1884.191	1268.076	-1039.414	1	1639.634	-39.34074	9.759277E-006	-0.0060312	8
	23	110	1516.544	1380.459	-1197.838	1	1827.699	-40.9485	-1.186558E-005	0.0076989	8
	24	115	1193.986	1529.717	-1386.667	1	2064.674	-42.19186	1.891479E-005	-0.0040615	8
	25	119	946.5144	1668.241	-1612.878	1	2320.432	-44.03333	-3.079157E-006	-0.0026176	8
	26	122	751.7689	1870.51	-1866.987	1	2642.811	-44.94598	1.892978E-005	-0.0054432	8
	27	125	597.4265	2086.772	-2129.456	1	2981.476	-45.58004	1.795343E-005	-0.0063632	8
	28	128	477.4305	2349.879	-2413.219	1	3368.317	-45.76188	-2.556159E-007	0.0006175	8
	29	132	376.6741	2655.725	-2762.024	1	3831.665	-46.12403	-2.388335E-007	0.0006285	8
	30	134	298.2954	3011.919	-3146.769	1	4355.895	-46.25434	-1.66088E-007	0.0006444	7
	31	136	237.7717	3396.828	-3557.77	1	4918.96	-46.3257	-1.604064E-007	0.0006125	7
	32	139	189.0121	3837.259	-4016.351	1	5554.784	-46.30633	-1.676364E-007	0.000647	7
	33	141	150.2404	4329.599	-4522.847	1	6261.116	-46.25056	-1.659505E-007	0.0006227	7
	34	144	119.1737	4882.265	-5095.045	1	7056.627	-46.22173	-1.668804E-007	0.0006361	7
	35	146	95.0169	5474.016	-5720.198	1	7917.419	-46.25984	-1.587676E-007	0.0005952	7
	36	148	75.60484	6133.811	-6438.783	1	8892.781	-46.38955	-1.603917E-007	0.0006109	7
	37	151	54.50582	7200.45	-7655.663	1	10509.79	-46.75508	-1.648773E-007	0.0006255	7
	38	154	45.95588	7832.132	-8394.634	1	11480.95	-46.98537	-1.678942E-007	0.0005991	7
	39	156	37.20238	8693.153	-9430.826	1	12826.2	-47.33074	-1.656039E-007	0.0005954	7
	40	158	30.04808	9674.48	-10627.61	1	14371.56	-47.6879	-1.69212E-007	0.0006157	7
	41	161	23.91582	10861.34	-12096.41	1	16257.06	-48.07941	-1.631377E-007	0.0006379	7
	42	163	18.60119	12367.86	-13969.8	1	18657.96	-48.48064	-1.623557E-007	0.0006189	7
	43	165	15.02404	13859.64	-15797.76	1	21015.68	-48.73898	-1.514972E-007	0.000594	7
	44	168	12.01923	15651.4	-17967.6	1	23828.57	-48.9412	-1.626343E-007	0.0005986	7
	45	170	9.450605	17911.48	-20604.63	1	27301.49	-48.99976	-1.541711E-007	0.0006195	7
	46	173	7.512019	20414.64	-23477.11	1	31111.61	-48.99125	-1.587192E-007	0.0006165	7
	47	175	5.978954	23325.78	-26674.57	1	35434.8	-48.83168	-1.566317E-007	0.0006385	7
	48	178	4.734848	26767.89	-30297.31	1	40428.3	-48.53918	-1.501841E-007	0.0006137	7
	49	182	3.75601	30757.12	-34247.63	1	46031.52	-48.07361	-1.315543E-007	0.000681	6
	50	185	3.004808	35195.73	-38491.66	1	52156.95	-47.56105	-1.262787E-007	0.0006521	6
	51	191	2.372217	40590.7	-43316.82	1	59362.88	-46.86086	-1.26986E-007	0.0007068	6
	52	195	1.878005	46705.77	-48598.34	1	67403.47	-46.13764	-1.281658E-007	0.0006486	6
	53	200	1.512097	53038.42	-53845.4	1	75580.43	-45.43258	-1.255894E-007	0.0006244	6
	54	205	1.201923	60691.07	-59794.09	1	85198.23	-44.57346	-1.243284E-007	0.0006472	6
	55	211	0.956633	69185.38	-66117.89	1	95698.4	-43.70126	-1.255682E-007	2.529646E-005	6
