EXPLAIN
TAG	EISPOT
TITLE	LABEL	Potentiostatic EIS	Test Identifier
DATE	LABEL	8/18/2020	Date
TIME	LABEL	1:03:02	Time
NOTES	NOTES	1	Notes...
	
PSTAT	PSTAT	REF3000-16137	Potentiostat
VDC	POTEN	0.00000E+000	T	DC Voltage (V)
FREQINIT	QUANT	3.00000E+005	Initial Freq. (Hz)
FREQFINAL	QUANT	1.00000E+000	Final Freq. (Hz)
PTSPERDEC	QUANT	1.00000E+001	Points/decade
VAC	QUANT	5.00000E+001	AC Voltage (mV rms)
AREA	QUANT	1.00000E+000	Sample Area (cm^2)
SPEED	SELECTOR	2	Optimize for:
ZGUESS	QUANT	1.00000E+003	Estimated Z (ohms)
EOC	QUANT	0	Open Circuit (V)
SEQUENCER	TOGGLE	TRUE	Run as Sequence
PSTATMODEL	IQUANT	5	Pstat Model
PSTATSECTION	LABEL	REF3000-16137	Pstat Section
PSTATSERIALNO	LABEL	16137	Pstat Serial Number
CTRLMODE	IQUANT	1	Control Mode
IESTAB	IQUANT	0	I/E Stability
CASPEED	IQUANT	1	Control Amp Speed
CONVENTION	IQUANT	1	Current Convention
ICHRANGE	IQUANT	2	Ich Range
ICHRANGEMODE	TOGGLE	F	Ich Auto Range
ICHOFFSETENABLE	TOGGLE	T	Ich Offset Enable
ICHOFFSET	QUANT	0	Ich Offset (V)
ICHFILTER	IQUANT	3	Ich Filter
VCHRANGE	IQUANT	2	Vch Range
VCHRANGEMODE	TOGGLE	F	Vch Auto Range
VCHOFFSETENABLE	TOGGLE	T	Vch Offset Enable
VCHOFFSET	QUANT	0	Vch Offset (V)
VCHFILTER	IQUANT	3	Vch Filter
ACHRANGE	IQUANT	2	Ach Range
ACHOFFSETENABLE	TOGGLE	F	Ach Offset Enable
ACHOFFSET	QUANT	0	Ach Offset (V)
ACHFILTER	IQUANT	3	Ach Filter
IERANGELOWERLIMIT	IQUANT	2	I/E Range Lower Limit
IERANGEMODE	TOGGLE	F	I/E AutoRange
IERANGE	IQUANT	11	I/E Range
POSFEEDENABLE	TOGGLE	F	Positive Feedback IR Comp
POSFEEDRESISTANCE	QUANT	0	Positive Feedback Resistance (ohm)
ACHSELECT	IQUANT	0	Ach Select
CABLEID	IQUANT	13	Cable ID
DCCALDATE	LABEL	7/31/2020	DC Calibration Date
ACCALDATE	LABEL	7/31/2020	AC Calibration Date
THERMOSELECT	IQUANT	1	Thermo Select
FRAMEWORKVERSION	QUANT	6.33	Framework Version
INSTRUMENTVERSION	LABEL	3.50	Instrument Version
COMPLIANCEVOLTAGE	IQUANT	0	Compliance Voltage
ZCURVE	TABLE
	Pt	Time	Freq	Zreal	Zimag	Zsig	Zmod	Zphz	Idc	Vdc	IERange
	#	s	Hz	ohm	ohm	V	ohm	°	A	V	#
	0	24	300046.9	1563.315	-692.3467	1	1709.766	-23.88715	-3.118247E-005	-0.0012239	9
	1	57	238359.4	1685.64	-648.5236	1	1806.091	-21.04345	-0.0000958	0.0022204	9
	2	78	189328.1	1778.14	-557.0128	1	1863.343	-17.39347	-9.233789E-005	0.0023044	9
	3	86	150421.9	1867.531	-502.8667	1	1934.049	-15.07049	-9.219117E-005	0.0022894	9
	4	92	119484.4	1938.458	-383.7381	1	1976.076	-11.19753	7.730572E-006	0.012149	8
	5	99	94921.88	1971.948	-339.2264	1	2000.913	-9.76083	5.750772E-006	-0.006418	8
	6	102	75421.88	2007.855	-310.2525	1	2031.684	-8.783839	-2.340534E-005	0.0087391	8
	7	106	59859.37	2041.479	-295.049	1	2062.69	-8.223847	-1.583139E-005	0.0095986	8
	8	113	47578.12	2075.583	-290.24	1	2095.777	-7.960361	-2.122656E-005	0.0099584	8
	9	119	37828.12	2106.322	-294.9905	1	2126.878	-7.972423	-2.184011E-005	0.0051766	8
	10	123	30046.88	2130.343	-309.9285	1	2152.769	-8.277486	-9.054296E-007	0.0065682	8
	11	126	23859.38	2171.391	-327.1356	1	2195.896	-8.567584	-2.335861E-005	0.0070493	8
	12	130	18984.38	2208.5	-363.8396	1	2238.27	-9.355169	2.168824E-005	-0.0029717	8
	13	134	15046.87	2248.191	-406.1022	1	2284.574	-10.23922	-2.32656E-005	0.0087185	8
	14	138	11953.13	2297.92	-462.4783	1	2343.997	-11.37931	2.405215E-005	-0.0049068	8
	15	142	9515.62	2345.813	-529.3839	1	2404.805	-12.71701	-1.53122E-005	0.0011557	8
	16	147	7546.875	2416.465	-609.3091	1	2492.1	-14.15207	-2.204561E-005	0.0068468	8
	17	152	5928.309	2489.223	-707.7119	1	2587.873	-15.871	2.936638E-005	-0.0008902	9
	18	157	4733.456	2568.74	-827.3899	1	2698.704	-17.85372	1.078032E-005	0.0003812	9
	19	163	3796.875	2641.84	-950.556	1	2807.646	-19.78915	-1.67531E-005	0.0017098	8
	20	168	2987.132	2767.629	-1111.026	1	2982.306	-21.87231	-2.032582E-005	0.0011352	9
	21	173	2390.625	2875.202	-1306.652	1	3158.184	-24.4397	-9.555977E-006	0.0088859	8
	22	179	1884.191	3030.354	-1551.103	1	3404.257	-27.10588	-2.664586E-005	0.0007075	9
	23	184	1516.544	3182.376	-1791.476	1	3651.973	-29.37675	-2.369244E-005	0.007148	8
	24	190	1193.986	3406.329	-2121.101	1	4012.748	-31.91028	2.917423E-005	-0.0004921	9
	25	195	946.5144	3526.52	-2471.874	1	4306.565	-35.0281	-9.877303E-006	-0.0014903	8
	26	199	751.7689	3918.937	-3041.31	1	4960.608	-37.81342	-1.874821E-005	0.0029423	8
	27	203	597.4265	4163.114	-3327.395	1	5329.454	-38.63381	-1.011349E-005	-0.0014124	8
	28	206	477.4305	4608.687	-3884.861	1	6027.615	-40.12898	-3.042492E-007	0.0006182	8
	29	209	376.6741	5086.973	-4512.013	1	6799.673	-41.57219	-9.158717E-008	0.0006221	7
	30	211	298.2954	5618.474	-5209.57	1	7662.041	-42.83735	-9.097864E-008	0.0005765	7
	31	213	237.7717	6217.707	-5978.512	1	8625.688	-43.87645	-9.0765E-008	0.0006233	7
	32	216	189.0121	6919.333	-6857.939	1	9742.1	-44.74468	-9.629669E-008	0.0006535	7
	33	218	150.2404	7729.438	-7850.892	1	11017.29	-45.44663	-9.540069E-008	0.0006274	7
	34	221	119.1737	8682.296	-8974.389	1	12486.87	-45.94775	-8.78568E-008	0.0005752	7
	35	223	95.0169	9735.35	-10218.28	1	14113.48	-46.38643	-8.769108E-008	0.0006007	7
	36	226	75.60484	10957.58	-11615.39	1	15968.27	-46.66922	-8.729507E-008	0.000572	7
	37	228	54.50582	12984.7	-13898.13	1	19020	-46.94605	-8.984615E-008	0.0006142	7
	38	231	45.95588	14182.87	-15248.37	1	20824.66	-47.07339	-9.782123E-008	0.0006273	7
	39	233	37.20238	15800.8	-17099.76	1	23282.33	-47.26093	-8.938031E-008	0.0005671	7
	40	236	30.04808	17615.63	-19215.69	1	26068.24	-47.48753	-9.026252E-008	0.0005905	7
	41	238	23.91582	19746.29	-21792.07	1	29407.66	-47.81955	-9.9959E-008	0.0006511	7
	42	240	18.60119	22371.6	-25080.08	1	33608.02	-48.26682	-1.015868E-007	0.0006313	7
	43	243	15.02404	24882.89	-28345.75	1	37717.9	-48.7222	-9.753191E-008	0.0006326	7
	44	245	12.01923	27888.94	-32290.09	1	42666.64	-49.18284	-2.908261E-008	0.0006456	6
	45	247	9.450605	31514.64	-37194.46	1	48750.39	-49.72559	-3.714201E-008	0.0006139	6
	46	250	7.512019	35522.05	-42733.94	1	55569.82	-50.26537	-3.612328E-008	0.0007116	6
	47	253	5.978954	40091.58	-49110.88	1	63397.27	-50.77358	-3.328539E-008	0.0006454	6
	48	256	4.734848	45510.67	-56704.87	1	72709.45	-51.24988	-2.941378E-008	0.0006847	6
	49	259	3.75601	51871.79	-65388.13	1	83464.31	-51.57536	-3.388501E-008	0.0006174	6
	50	262	3.004808	59053.84	-75062.66	1	95507.9	-51.8069	-3.408207E-008	0.0007312	6
	51	266	2.372217	68175.04	-86822.63	1	110390.2	-51.86022	-3.084004E-008	0.0007314	6
	52	270	1.878005	78613.77	-100037	1	127230.2	-51.83807	-3.268611E-008	0.0006653	6
	53	275	1.512097	90113.61	-113797.6	1	145156.3	-51.62513	-3.149066E-008	0.0007389	6
	54	281	1.201923	104458.9	-130640.3	1	167267.9	-51.35447	-2.995093E-008	0.0006281	6
	55	287	0.956633	121007.6	-149322.3	1	192197.8	-50.97942	-3.281593E-008	1.386774E-005	6
