EXPLAIN
TAG	EISPOT
TITLE	LABEL	Potentiostatic EIS	Test Identifier
DATE	LABEL	10/12/2021	Date
TIME	LABEL	19:23:47	Time
NOTES	NOTES	1	Notes...
	
PSTAT	PSTAT	REF3000-16137	Potentiostat
VDC	POTEN	0.00000E+000	T	DC Voltage (V)
FREQINIT	QUANT	3.00000E+005	Initial Freq. (Hz)
FREQFINAL	QUANT	1.00000E+000	Final Freq. (Hz)
PTSPERDEC	QUANT	1.00000E+001	Points/decade
VAC	QUANT	5.00000E+001	AC Voltage (mV rms)
AREA	QUANT	1.00000E+000	Sample Area (cm^2)
SPEED	SELECTOR	2	Optimize for:
ZGUESS	QUANT	1.00000E+003	Estimated Z (ohms)
EOC	QUANT	0	Open Circuit (V)
SEQUENCER	TOGGLE	TRUE	Run as Sequence
PSTATMODEL	IQUANT	5	Pstat Model
PSTATSECTION	LABEL	REF3000-16137	Pstat Section
PSTATSERIALNO	LABEL	16137	Pstat Serial Number
CTRLMODE	IQUANT	1	Control Mode
IESTAB	IQUANT	0	I/E Stability
CASPEED	IQUANT	1	Control Amp Speed
CONVENTION	IQUANT	1	Current Convention
ICHRANGE	IQUANT	2	Ich Range
ICHRANGEMODE	TOGGLE	F	Ich Auto Range
ICHOFFSETENABLE	TOGGLE	T	Ich Offset Enable
ICHOFFSET	QUANT	0	Ich Offset (V)
ICHFILTER	IQUANT	3	Ich Filter
VCHRANGE	IQUANT	2	Vch Range
VCHRANGEMODE	TOGGLE	F	Vch Auto Range
VCHOFFSETENABLE	TOGGLE	T	Vch Offset Enable
VCHOFFSET	QUANT	0	Vch Offset (V)
VCHFILTER	IQUANT	3	Vch Filter
ACHRANGE	IQUANT	2	Ach Range
ACHOFFSETENABLE	TOGGLE	F	Ach Offset Enable
ACHOFFSET	QUANT	0	Ach Offset (V)
ACHFILTER	IQUANT	3	Ach Filter
IERANGELOWERLIMIT	IQUANT	2	I/E Range Lower Limit
IERANGEMODE	TOGGLE	F	I/E AutoRange
IERANGE	IQUANT	11	I/E Range
POSFEEDENABLE	TOGGLE	F	Positive Feedback IR Comp
POSFEEDRESISTANCE	QUANT	0	Positive Feedback Resistance (ohm)
ACHSELECT	IQUANT	0	Ach Select
CABLEID	IQUANT	13	Cable ID
DCCALDATE	LABEL	9/10/2021	DC Calibration Date
ACCALDATE	LABEL	9/10/2021	AC Calibration Date
THERMOSELECT	IQUANT	1	Thermo Select
FRAMEWORKVERSION	QUANT	6.33	Framework Version
INSTRUMENTVERSION	LABEL	3.50	Instrument Version
COMPLIANCEVOLTAGE	IQUANT	0	Compliance Voltage
ZCURVE	TABLE
	Pt	Time	Freq	Zreal	Zimag	Zsig	Zmod	Zphz	Idc	Vdc	IERange
	#	s	Hz	ohm	ohm	V	ohm	°	A	V	#
	0	8	300046.9	9.268606	2.300998	1	9.54996	13.94222	2.719816E-005	-0.0007734	10
	1	11	238359.4	9.269879	1.826258	1	9.448062	11.14511	-5.579105E-005	-0.0006162	10
	2	14	189328.1	9.283457	1.430303	1	9.392994	8.758695	2.270057E-005	-0.0004836	10
	3	17	150421.9	9.296851	1.104432	1	9.362223	6.774781	-2.649531E-005	-0.0003602	10
	4	20	119484.4	9.338745	0.8484575	1	9.377209	5.191268	-3.003194E-005	-0.0003086	10
	5	22	94921.88	9.373014	0.63896	1	9.394768	3.89983	-2.189361E-005	-0.0001629	10
	6	25	75421.88	9.402829	0.4453508	1	9.41337	2.711701	1.322035E-005	-0.0002293	10
	7	27	59859.37	9.444139	0.2774303	1	9.448214	1.682632	-2.152055E-005	-0.0001131	10
	8	30	47578.12	9.484392	0.1285885	1	9.485264	0.7767634	5.442863E-006	-0.0001856	10
	9	32	37828.12	9.52914	-0.007244	1	9.52915	-0.0435562	1.99038E-005	-0.0001913	10
	10	35	30046.88	9.57617	-0.1390482	1	9.57718	-0.8318893	-1.713223E-005	-0.0001928	10
	11	37	23859.38	9.62455	-0.2751628	1	9.62848	-1.637622	2.603145E-005	-0.0001479	10
	12	40	18984.38	9.67325	-0.4199967	1	9.68236	-2.486129	5.83306E-006	-0.0001665	10
	13	42	15046.87	9.7282	-0.584004	1	9.74571	-3.435462	-5.390572E-007	-0.0000966	10
	14	44	11953.13	9.78773	-0.7710348	1	9.81805	-4.504213	-2.664944E-005	-0.0001308	10
	15	46	9515.62	9.8516	-0.987995	1	9.90102	-5.72692	-2.702441E-005	-0.0001254	10
	16	49	7546.875	9.92292	-1.249153	1	10.00123	-7.174978	-2.239744E-005	-7.991395E-005	10
	17	51	5928.309	10.00493	-1.581875	1	10.12921	-8.984634	-2.517378E-005	-0.0000999	10
	18	53	4733.456	10.09235	-1.95803	1	10.28054	-10.97963	-1.582844E-005	-0.0001535	10
	19	56	3796.875	10.1889	-2.409549	1	10.46994	-13.3053	2.623064E-005	-0.0001244	10
	20	58	2987.132	10.30582	-3.008663	1	10.73602	-16.27454	-1.657839E-005	-0.0001227	10
	21	60	2390.625	10.43044	-3.691097	1	11.06427	-19.48773	-2.136588E-006	-0.0001418	10
	22	63	1884.191	10.57883	-4.602621	1	11.53672	-23.51281	-2.70369E-005	-0.0001105	10
	23	65	1516.544	10.74213	-5.619517	1	12.12321	-27.61537	2.554161E-005	-0.0001489	10
	24	67	1193.986	10.94789	-7.004432	1	12.99686	-32.61102	1.882616E-005	-0.0001629	10
	25	70	946.5144	11.1845	-8.672707	1	14.15305	-37.79079	2.368552E-005	-0.0001601	10
	26	72	751.7689	11.45848	-10.74101	1	15.7056	-43.1489	2.096617E-005	-0.0001355	10
	27	74	597.4265	11.78417	-13.27837	1	17.75336	-48.41186	2.292694E-005	-0.000151	10
	28	77	477.4305	12.17796	-16.35741	1	20.39283	-53.33261	-7.448014E-007	-0.000116	10
	29	79	376.6741	12.66411	-20.37791	1	23.99247	-58.1406	-9.531282E-007	-0.0001126	10
	30	81	298.2954	13.24984	-25.31502	1	28.57287	-62.37252	-1.692618E-006	-0.0001177	10
	31	84	237.7717	13.94602	-31.26222	1	34.23183	-65.95844	-1.512761E-006	-0.0001201	10
	32	86	189.0121	14.81471	-38.72852	1	41.46534	-69.06679	-1.743958E-006	-0.0001137	10
	33	88	150.2404	15.87725	-47.92191	1	50.48362	-71.66919	2.419154E-007	-0.0001287	9
	34	91	119.1737	17.24942	-59.52437	1	61.97333	-73.83907	6.389549E-007	-0.0001748	9
	35	93	95.0169	18.95744	-73.555	1	75.95869	-75.54759	2.345507E-007	-0.0001332	9
	36	96	75.60484	21.17127	-91.09924	1	93.52696	-76.91682	1.938638E-007	-0.0001311	9
	37	98	54.50582	25.50387	-123.6808	1	126.2829	-78.34851	1.269618E-007	-0.0001343	9
	38	101	45.95588	28.57719	-145.1132	1	147.9003	-78.85928	2.647824E-007	-0.0001315	9
	39	103	37.20238	33.35335	-176.7161	1	179.8361	-79.31174	2.800749E-007	-0.0001291	9
	40	106	30.04808	39.5887	-215.431	1	219.0383	-79.5872	2.523758E-007	-0.0001342	9
	41	108	23.91582	48.57283	-266.2527	1	270.6471	-79.66116	1.741657E-007	-0.0001294	9
	42	110	18.60119	62.00315	-335.4451	1	341.1272	-79.52773	2.497427E-007	-0.0001732	9
	43	113	15.02404	77.33091	-407.5148	1	414.7871	-79.25518	2.301858E-007	-0.0001403	9
	44	115	12.01923	97.7897	-496.4185	1	505.9587	-78.85596	5.069484E-007	-0.0001163	8
	45	117	9.450605	127.9709	-615.4514	1	628.6152	-78.25385	4.516809E-007	-0.0001297	8
	46	120	7.512019	166.2035	-753.8096	1	771.9148	-77.56609	4.76262E-007	-0.000163	8
	47	123	5.978954	215.421	-920.4863	1	945.3577	-76.82816	4.969328E-007	-0.0001173	8
	48	126	4.734848	283.4936	-1127.031	1	1162.14	-75.88074	5.150675E-007	-0.000128	8
	49	129	3.75601	372.5302	-1374.644	1	1424.228	-74.83698	5.19204E-007	-0.0001066	8
	50	132	3.004808	487.9323	-1658.501	1	1728.787	-73.60608	5.527499E-007	-0.0001414	8
	51	136	2.372217	653.52	-2020.274	1	2123.345	-72.07459	5.34672E-007	-0.0001922	8
	52	140	1.878005	872.0216	-2440.261	1	2591.388	-70.33577	5.937212E-007	-0.0001403	8
	53	145	1.512097	1145.188	-2885.156	1	3104.123	-68.35069	5.520472E-007	-0.0001802	8
	54	150	1.201923	1527.407	-3433.776	1	3758.163	-66.01962	5.834223E-007	-8.721896E-005	8
	55	157	0.956633	2026.832	-4038.204	1	4518.312	-63.34727	6.845757E-008	-0.0006473	7
