EXPLAIN
TAG	EISPOT
TITLE	LABEL	Potentiostatic EIS	Test Identifier
DATE	LABEL	10/12/2021	Date
TIME	LABEL	18:29:39	Time
NOTES	NOTES	1	Notes...
	
PSTAT	PSTAT	REF3000-16137	Potentiostat
VDC	POTEN	0.00000E+000	T	DC Voltage (V)
FREQINIT	QUANT	3.00000E+005	Initial Freq. (Hz)
FREQFINAL	QUANT	1.00000E+000	Final Freq. (Hz)
PTSPERDEC	QUANT	1.00000E+001	Points/decade
VAC	QUANT	5.00000E+001	AC Voltage (mV rms)
AREA	QUANT	1.00000E+000	Sample Area (cm^2)
SPEED	SELECTOR	2	Optimize for:
ZGUESS	QUANT	1.00000E+003	Estimated Z (ohms)
EOC	QUANT	0	Open Circuit (V)
SEQUENCER	TOGGLE	TRUE	Run as Sequence
PSTATMODEL	IQUANT	5	Pstat Model
PSTATSECTION	LABEL	REF3000-16137	Pstat Section
PSTATSERIALNO	LABEL	16137	Pstat Serial Number
CTRLMODE	IQUANT	1	Control Mode
IESTAB	IQUANT	0	I/E Stability
CASPEED	IQUANT	1	Control Amp Speed
CONVENTION	IQUANT	1	Current Convention
ICHRANGE	IQUANT	2	Ich Range
ICHRANGEMODE	TOGGLE	F	Ich Auto Range
ICHOFFSETENABLE	TOGGLE	T	Ich Offset Enable
ICHOFFSET	QUANT	0	Ich Offset (V)
ICHFILTER	IQUANT	3	Ich Filter
VCHRANGE	IQUANT	2	Vch Range
VCHRANGEMODE	TOGGLE	F	Vch Auto Range
VCHOFFSETENABLE	TOGGLE	T	Vch Offset Enable
VCHOFFSET	QUANT	0	Vch Offset (V)
VCHFILTER	IQUANT	3	Vch Filter
ACHRANGE	IQUANT	2	Ach Range
ACHOFFSETENABLE	TOGGLE	F	Ach Offset Enable
ACHOFFSET	QUANT	0	Ach Offset (V)
ACHFILTER	IQUANT	3	Ach Filter
IERANGELOWERLIMIT	IQUANT	2	I/E Range Lower Limit
IERANGEMODE	TOGGLE	F	I/E AutoRange
IERANGE	IQUANT	11	I/E Range
POSFEEDENABLE	TOGGLE	F	Positive Feedback IR Comp
POSFEEDRESISTANCE	QUANT	0	Positive Feedback Resistance (ohm)
ACHSELECT	IQUANT	0	Ach Select
CABLEID	IQUANT	13	Cable ID
DCCALDATE	LABEL	9/10/2021	DC Calibration Date
ACCALDATE	LABEL	9/10/2021	AC Calibration Date
THERMOSELECT	IQUANT	1	Thermo Select
FRAMEWORKVERSION	QUANT	6.33	Framework Version
INSTRUMENTVERSION	LABEL	3.50	Instrument Version
COMPLIANCEVOLTAGE	IQUANT	0	Compliance Voltage
ZCURVE	TABLE
	Pt	Time	Freq	Zreal	Zimag	Zsig	Zmod	Zphz	Idc	Vdc	IERange
	#	s	Hz	ohm	ohm	V	ohm	°	A	V	#
	0	10	300046.9	2.01204	2.373098	1	3.111254	49.70693	-1.546535E-005	-0.0005333	11
	1	13	238359.4	1.968679	1.889056	1	2.728411	43.81759	-3.063847E-005	-0.000532	11
	2	17	189328.1	2.029828	1.354084	1	2.440029	33.70697	-0.0000998	-0.0007542	12
	3	20	150421.9	1.982029	1.060484	1	2.247902	28.14898	-4.36042E-005	-0.000502	12
	4	24	119484.4	1.911645	0.9075001	1	2.116115	25.39472	2.041451E-005	4.383177E-005	11
	5	26	94921.88	1.902784	0.6872724	1	2.023099	19.85937	-3.029044E-005	0.0001133	11
	6	29	75421.88	1.899288	0.5076972	1	1.965974	14.96578	-7.336121E-005	0.0001464	11
	7	31	59859.37	1.899064	0.3534161	1	1.93167	10.54215	-1.399875E-005	0.0002512	11
	8	34	47578.12	1.899978	0.2205447	1	1.912735	6.621119	-8.944195E-005	0.0002571	11
	9	36	37828.12	1.903109	0.0993618	1	1.905701	2.988714	-2.966935E-005	0.0003365	11
	10	39	30046.88	1.906913	-0.0162186	1	1.906982	-0.4872976	-2.577919E-005	0.0003397	11
	11	41	23859.38	1.913637	-0.1309638	1	1.918113	-3.915054	-2.008424E-005	0.0003643	11
	12	44	18984.38	1.921653	-0.249887	1	1.937832	-7.409028	-5.182383E-005	0.0003765	11
	13	46	15046.87	1.932217	-0.382083	1	1.969632	-11.18555	-6.824434E-005	0.0003704	11
	14	48	11953.13	1.944296	-0.5302992	1	2.015317	-15.25613	-5.193325E-005	0.0003392	11
	15	51	9515.62	1.961736	-0.7015174	1	2.083395	-19.67706	-8.762554E-005	0.0003405	11
	16	53	7546.875	1.983983	-0.907328	1	2.181612	-24.57587	-5.131599E-005	0.0003379	11
	17	55	5928.309	2.015342	-1.167571	1	2.329125	-30.08548	-3.006014E-005	0.0003704	11
	18	58	4733.456	2.052845	-1.462783	1	2.520695	-35.47229	-7.947003E-005	0.0003588	11
	19	60	3796.875	2.100976	-1.812784	1	2.774939	-40.7886	-1.487427E-005	0.000402	11
	20	62	2987.132	2.168343	-2.282512	1	3.148265	-46.46938	-1.858266E-005	0.0003853	11
	21	65	2390.625	2.25195	-2.819788	1	3.608667	-51.38831	-4.931163E-005	0.0003778	11
	22	67	1884.191	2.375707	-3.528096	1	4.253404	-56.04494	-1.172206E-005	-0.0001589	10
	23	69	1516.544	2.523834	-4.31943	1	5.002721	-59.70235	-7.883879E-006	-0.0001236	10
	24	72	1193.986	2.745345	-5.390874	1	6.049664	-63.01217	-1.233185E-005	-0.0001609	10
	25	74	946.5144	3.043172	-6.677178	1	7.337956	-65.49854	5.004218E-006	-0.0001424	10
	26	76	751.7689	3.468497	-8.234046	1	8.934763	-67.1573	-2.297206E-005	-0.0001147	10
	27	79	597.4265	4.064064	-10.12798	1	10.91295	-68.13583	8.14383E-006	-0.0001399	10
	28	81	477.4305	4.873004	-12.35159	1	13.2781	-68.46956	2.629144E-007	-0.0001036	10
	29	83	376.6741	6.080616	-15.14431	1	16.31944	-68.12397	1.570395E-007	-0.0001136	10
	30	86	298.2954	7.756128	-18.37392	1	19.94388	-67.11407	5.971089E-007	-0.0001075	10
	31	88	237.7717	10.00294	-21.96275	1	24.13341	-65.51308	-9.952402E-008	-0.0001114	10
	32	90	189.0121	13.0757	-25.99068	1	29.09449	-63.2934	7.28584E-007	-0.0001146	10
	33	93	150.2404	17.12525	-30.26448	1	34.77374	-60.49651	5.61381E-007	-0.0001096	10
	34	95	119.1737	22.3401	-34.60285	1	41.18783	-57.15313	1.820591E-006	-0.0001202	10
	35	98	95.0169	28.54759	-38.51526	1	47.94153	-53.45408	3.233977E-006	-0.0001281	9
	36	100	75.60484	35.88208	-41.8937	1	55.15982	-49.41984	3.231834E-006	-0.0001298	9
	37	103	54.50582	47.72086	-45.04636	1	65.62359	-43.34861	3.728843E-006	-0.0001357	9
	38	105	45.95588	54.20727	-45.82397	1	70.98073	-40.20942	5.403213E-006	-0.0001304	9
	39	108	37.20238	62.20974	-45.88831	1	77.30322	-36.41392	5.33027E-006	-0.0001257	9
	40	110	30.04808	69.96957	-45.10577	1	83.24825	-32.80779	6.674526E-006	-0.0001337	9
	41	112	23.91582	77.5931	-43.59805	1	89.00269	-29.33078	7.676071E-006	-0.0001302	9
	42	115	18.60119	85.23972	-41.46796	1	94.79135	-25.94229	7.646256E-006	-0.0001289	9
	43	117	15.02404	91.05949	-39.57389	1	99.2871	-23.48947	7.417364E-006	-0.0001284	9
	44	120	12.01923	96.5302	-37.64642	1	103.6114	-21.30561	4.857153E-006	-0.0001268	9
	45	122	9.450605	101.8716	-35.84985	1	107.9955	-19.38758	4.496727E-006	-0.0001384	9
	46	125	7.512019	106.5021	-34.45587	1	111.937	-17.92759	7.48089E-006	-0.0001208	9
	47	128	5.978954	111.0732	-33.53355	1	116.0248	-16.79932	4.775818E-006	-0.0001338	9
	48	132	4.734848	115.6099	-32.9617	1	120.217	-15.91346	3.136997E-006	-0.0001364	9
	49	137	3.75601	119.8799	-32.83984	1	124.2966	-15.31974	6.97219E-006	-0.0001137	9
	50	140	3.004808	124.2586	-33.08268	1	128.5871	-14.90863	6.484127E-006	-0.000148	9
	51	146	2.372217	128.954	-33.62502	1	133.2658	-14.61457	4.533894E-006	-0.0002001	9
	52	150	1.878005	133.9603	-34.8189	1	138.4114	-14.5699	7.359078E-006	-0.0001205	9
	53	155	1.512097	138.5486	-36.05901	1	143.1641	-14.5883	7.857097E-006	-0.0001555	9
	54	160	1.201923	143.6961	-37.65173	1	148.5471	-14.68274	4.667345E-006	-0.0001035	9
	55	166	0.956633	149.6336	-39.67012	1	154.8029	-14.84839	-3.091658E-006	-0.0006702	9
