EXPLAIN
TAG	EISPOT
TITLE	LABEL	Potentiostatic EIS	Test Identifier
DATE	LABEL	10/12/2021	Date
TIME	LABEL	19:34:53	Time
NOTES	NOTES	1	Notes...
	
PSTAT	PSTAT	REF3000-16137	Potentiostat
VDC	POTEN	0.00000E+000	T	DC Voltage (V)
FREQINIT	QUANT	3.00000E+005	Initial Freq. (Hz)
FREQFINAL	QUANT	1.00000E+000	Final Freq. (Hz)
PTSPERDEC	QUANT	1.00000E+001	Points/decade
VAC	QUANT	5.00000E+001	AC Voltage (mV rms)
AREA	QUANT	1.00000E+000	Sample Area (cm^2)
SPEED	SELECTOR	2	Optimize for:
ZGUESS	QUANT	1.00000E+003	Estimated Z (ohms)
EOC	QUANT	0	Open Circuit (V)
SEQUENCER	TOGGLE	TRUE	Run as Sequence
PSTATMODEL	IQUANT	5	Pstat Model
PSTATSECTION	LABEL	REF3000-16137	Pstat Section
PSTATSERIALNO	LABEL	16137	Pstat Serial Number
CTRLMODE	IQUANT	1	Control Mode
IESTAB	IQUANT	0	I/E Stability
CASPEED	IQUANT	1	Control Amp Speed
CONVENTION	IQUANT	1	Current Convention
ICHRANGE	IQUANT	2	Ich Range
ICHRANGEMODE	TOGGLE	F	Ich Auto Range
ICHOFFSETENABLE	TOGGLE	T	Ich Offset Enable
ICHOFFSET	QUANT	0	Ich Offset (V)
ICHFILTER	IQUANT	3	Ich Filter
VCHRANGE	IQUANT	2	Vch Range
VCHRANGEMODE	TOGGLE	F	Vch Auto Range
VCHOFFSETENABLE	TOGGLE	T	Vch Offset Enable
VCHOFFSET	QUANT	0	Vch Offset (V)
VCHFILTER	IQUANT	3	Vch Filter
ACHRANGE	IQUANT	2	Ach Range
ACHOFFSETENABLE	TOGGLE	F	Ach Offset Enable
ACHOFFSET	QUANT	0	Ach Offset (V)
ACHFILTER	IQUANT	3	Ach Filter
IERANGELOWERLIMIT	IQUANT	2	I/E Range Lower Limit
IERANGEMODE	TOGGLE	F	I/E AutoRange
IERANGE	IQUANT	11	I/E Range
POSFEEDENABLE	TOGGLE	F	Positive Feedback IR Comp
POSFEEDRESISTANCE	QUANT	0	Positive Feedback Resistance (ohm)
ACHSELECT	IQUANT	0	Ach Select
CABLEID	IQUANT	13	Cable ID
DCCALDATE	LABEL	9/10/2021	DC Calibration Date
ACCALDATE	LABEL	9/10/2021	AC Calibration Date
THERMOSELECT	IQUANT	1	Thermo Select
FRAMEWORKVERSION	QUANT	6.33	Framework Version
INSTRUMENTVERSION	LABEL	3.50	Instrument Version
COMPLIANCEVOLTAGE	IQUANT	0	Compliance Voltage
ZCURVE	TABLE
	Pt	Time	Freq	Zreal	Zimag	Zsig	Zmod	Zphz	Idc	Vdc	IERange
	#	s	Hz	ohm	ohm	V	ohm	°	A	V	#
	0	6	300046.9	29.42339	0.8780917	1	29.43649	1.709389	-3.605102E-005	-0.0004378	11
	1	11	238359.4	29.67232	0.8912575	1	29.68571	1.720456	-1.976633E-005	-0.00033	10
	2	14	189328.1	29.89654	0.5561798	1	29.90171	1.065778	8.015231E-005	-0.0006766	10
	3	16	150421.9	30.10066	0.2597914	1	30.10178	0.4944935	-2.478275E-005	-0.0002676	10
	4	19	119484.4	30.34978	0.0019011	1	30.34978	0.003589	2.926473E-005	-0.0001881	10
	5	21	94921.88	30.58719	-0.2697467	1	30.58838	-0.5052751	2.537835E-005	-0.0001924	10
	6	24	75421.88	30.84033	-0.4866354	1	30.84417	-0.9040059	-2.110009E-005	-0.0002042	10
	7	27	59859.37	31.10085	-0.6892454	1	31.10849	-1.26956	-1.082476E-005	-0.0001569	10
	8	29	47578.12	31.37401	-0.8923622	1	31.3867	-1.629209	-1.996538E-005	-0.0001628	10
	9	32	37828.12	31.6631	-1.105598	1	31.6824	-1.999816	-2.685712E-005	-0.0001357	10
	10	34	30046.88	31.96739	-1.3187	1	31.99458	-2.362193	-2.489929E-005	-6.583602E-005	10
	11	37	23859.38	32.29602	-1.559448	1	32.33364	-2.764442	2.658834E-005	-0.0001808	10
	12	39	18984.38	32.63198	-1.814215	1	32.68237	-3.182154	-1.716179E-005	-0.0001259	10
	13	41	15046.87	32.98615	-2.10374	1	33.05316	-3.64918	-1.980267E-005	-5.514899E-005	10
	14	44	11953.13	33.38037	-2.424129	1	33.46828	-4.153608	1.500272E-005	-0.0002037	10
	15	46	9515.62	33.79887	-2.790479	1	33.91386	-4.71971	-2.551423E-005	-0.0001281	10
	16	48	7546.875	34.25697	-3.202091	1	34.4063	-5.340074	2.640264E-005	-0.0001432	10
	17	51	5928.309	34.75581	-3.69379	1	34.95154	-6.066528	1.84629E-005	-0.0001357	10
	18	53	4733.456	35.28402	-4.226978	1	35.53632	-6.8314	2.719961E-005	-0.0001497	10
	19	55	3796.875	35.78562	-4.819636	1	36.10872	-7.670486	6.524901E-006	-0.0005414	9
	20	57	2987.132	36.41945	-5.598567	1	36.84726	-8.73936	-1.382087E-005	0.00033	9
	21	60	2390.625	37.04647	-6.436177	1	37.60141	-9.85577	-1.25373E-005	9.36219E-005	9
	22	62	1884.191	37.74987	-7.505573	1	38.48878	-11.24512	-1.455308E-005	0.000279	9
	23	64	1516.544	38.452	-8.686898	1	39.42104	-12.7303	-1.440793E-005	0.0002056	9
	24	67	1193.986	39.25149	-10.24294	1	40.56596	-14.62556	2.486437E-006	1.667598E-005	9
	25	69	946.5144	40.09275	-12.10765	1	41.88107	-16.80384	1.400039E-005	-0.000621	9
	26	72	751.7689	40.98025	-14.35169	1	43.42064	-19.30076	1.556533E-005	-0.0004475	9
	27	74	597.4265	41.90268	-17.09693	1	45.25637	-22.19621	1.06827E-005	-0.0006116	9
	28	76	477.4305	42.93074	-20.40346	1	47.53262	-25.42009	3.219894E-007	-0.0001282	9
	29	79	376.6741	44.04457	-24.70094	1	50.49812	-29.28444	2.827618E-007	-0.0001335	9
	30	81	298.2954	45.25026	-29.96508	1	54.27239	-33.51284	4.171202E-007	-0.0001329	9
	31	83	237.7717	46.55072	-36.30568	1	59.03449	-37.95126	4.377765E-007	-0.0001344	9
	32	86	189.0121	48.01278	-44.2493	1	65.2934	-42.66413	3.99527E-007	-0.0001305	9
	33	88	150.2404	49.65954	-54.1071	1	73.44146	-47.45426	3.72897E-007	-0.000139	9
	34	90	119.1737	51.55164	-66.46586	1	84.1147	-52.20245	3.974639E-007	-0.0001334	9
	35	93	95.0169	53.6957	-81.46651	1	97.5706	-56.61057	4.188456E-007	-0.0001277	9
	36	95	75.60484	56.22781	-100.2274	1	114.9222	-60.70748	3.556341E-007	-0.0001362	9
	37	98	54.50582	60.61883	-135.2138	1	148.1803	-65.85242	3.831917E-007	-0.000137	9
	38	100	45.95588	63.5465	-158.2524	1	170.5344	-68.12199	4.708605E-007	-0.0001346	9
	39	103	37.20238	67.76865	-192.3937	1	203.9802	-70.59573	3.123965E-007	-0.0001284	9
	40	105	30.04808	73.01575	-234.5741	1	245.6752	-72.71023	3.720922E-007	-0.0001299	9
	41	108	23.91582	80.01645	-290.1061	1	300.9389	-74.58019	3.707098E-007	-0.0001331	9
	42	110	18.60119	89.87047	-366.5581	1	377.4143	-76.2243	4.507014E-007	-0.0001287	9
	43	112	15.02404	100.2538	-445.2996	1	456.4455	-77.3121	3.310632E-007	-0.0001254	8
	44	114	12.01923	114.7825	-547.9842	1	559.8765	-78.16968	3.595919E-007	-0.0001185	8
	45	117	9.450605	135.3809	-684.9067	1	698.1584	-78.81886	3.956697E-007	-0.0001148	8
	46	119	7.512019	160.7943	-846.922	1	862.0508	-79.24992	4.292011E-007	-0.0001345	8
	47	122	5.978954	194.4638	-1044.42	1	1062.37	-79.4527	4.035493E-007	-0.0001161	8
	48	125	4.734848	239.5451	-1292.499	1	1314.51	-79.50024	4.203854E-007	-9.282072E-005	8
	49	128	3.75601	297.6459	-1594.756	1	1622.294	-79.42793	3.672877E-007	-0.0001375	8
	50	132	3.004808	369.9575	-1948.286	1	1983.101	-79.24819	4.063553E-007	-0.0001096	8
	51	136	2.372217	471.1741	-2407.16	1	2452.84	-78.92503	4.151557E-007	-5.183651E-005	8
	52	140	1.878005	593.3337	-2964.549	1	3023.342	-78.68219	3.902503E-007	-0.0001425	8
	53	145	1.512097	742.4725	-3581.898	1	3658.04	-78.28931	4.161018E-007	-6.461552E-005	8
	54	150	1.201923	939.4258	-4404.161	1	4503.238	-77.95902	5.224877E-008	-0.0001429	7
	55	156	0.956633	1189.836	-5383.018	1	5512.947	-77.53603	2.962791E-008	-0.0006473	7
