EXPLAIN
TAG	EISPOT
TITLE	LABEL	Potentiostatic EIS	Test Identifier
DATE	LABEL	10/12/2021	Date
TIME	LABEL	18:58:23	Time
NOTES	NOTES	1	Notes...
	
PSTAT	PSTAT	REF3000-16137	Potentiostat
VDC	POTEN	0.00000E+000	T	DC Voltage (V)
FREQINIT	QUANT	3.00000E+005	Initial Freq. (Hz)
FREQFINAL	QUANT	1.00000E+000	Final Freq. (Hz)
PTSPERDEC	QUANT	1.00000E+001	Points/decade
VAC	QUANT	5.00000E+001	AC Voltage (mV rms)
AREA	QUANT	1.00000E+000	Sample Area (cm^2)
SPEED	SELECTOR	2	Optimize for:
ZGUESS	QUANT	1.00000E+003	Estimated Z (ohms)
EOC	QUANT	0	Open Circuit (V)
SEQUENCER	TOGGLE	TRUE	Run as Sequence
PSTATMODEL	IQUANT	5	Pstat Model
PSTATSECTION	LABEL	REF3000-16137	Pstat Section
PSTATSERIALNO	LABEL	16137	Pstat Serial Number
CTRLMODE	IQUANT	1	Control Mode
IESTAB	IQUANT	0	I/E Stability
CASPEED	IQUANT	1	Control Amp Speed
CONVENTION	IQUANT	1	Current Convention
ICHRANGE	IQUANT	2	Ich Range
ICHRANGEMODE	TOGGLE	F	Ich Auto Range
ICHOFFSETENABLE	TOGGLE	T	Ich Offset Enable
ICHOFFSET	QUANT	0	Ich Offset (V)
ICHFILTER	IQUANT	3	Ich Filter
VCHRANGE	IQUANT	2	Vch Range
VCHRANGEMODE	TOGGLE	F	Vch Auto Range
VCHOFFSETENABLE	TOGGLE	T	Vch Offset Enable
VCHOFFSET	QUANT	0	Vch Offset (V)
VCHFILTER	IQUANT	3	Vch Filter
ACHRANGE	IQUANT	2	Ach Range
ACHOFFSETENABLE	TOGGLE	F	Ach Offset Enable
ACHOFFSET	QUANT	0	Ach Offset (V)
ACHFILTER	IQUANT	3	Ach Filter
IERANGELOWERLIMIT	IQUANT	2	I/E Range Lower Limit
IERANGEMODE	TOGGLE	F	I/E AutoRange
IERANGE	IQUANT	11	I/E Range
POSFEEDENABLE	TOGGLE	F	Positive Feedback IR Comp
POSFEEDRESISTANCE	QUANT	0	Positive Feedback Resistance (ohm)
ACHSELECT	IQUANT	0	Ach Select
CABLEID	IQUANT	13	Cable ID
DCCALDATE	LABEL	9/10/2021	DC Calibration Date
ACCALDATE	LABEL	9/10/2021	AC Calibration Date
THERMOSELECT	IQUANT	1	Thermo Select
FRAMEWORKVERSION	QUANT	6.33	Framework Version
INSTRUMENTVERSION	LABEL	3.50	Instrument Version
COMPLIANCEVOLTAGE	IQUANT	0	Compliance Voltage
ZCURVE	TABLE
	Pt	Time	Freq	Zreal	Zimag	Zsig	Zmod	Zphz	Idc	Vdc	IERange
	#	s	Hz	ohm	ohm	V	ohm	°	A	V	#
	0	10	300046.9	3.090281	2.396536	1	3.910655	37.79384	2.984905E-005	-0.000963	10
	1	13	238359.4	3.051338	1.896566	1	3.592719	31.86311	2.32462E-005	-0.0013561	10
	2	17	189328.1	3.029701	1.500067	1	3.380723	26.34096	-9.205237E-005	-0.0009835	10
	3	19	150421.9	3.067324	0.986396	1	3.222027	17.82685	-4.434007E-005	-0.0007505	12
	4	23	119484.4	3.01402	0.8883766	1	3.142217	16.42278	-4.810474E-005	0.0001688	11
	5	25	94921.88	3.01018	0.6682972	1	3.083473	12.51735	-2.16114E-005	0.0002716	11
	6	28	75421.88	3.008062	0.4877403	1	3.047348	9.210032	-8.924118E-005	0.000216	11
	7	30	59859.37	3.011538	0.3326673	1	3.029856	6.303579	-5.993784E-005	0.0002592	11
	8	33	47578.12	3.014518	0.1961785	1	3.020895	3.723437	-2.661616E-005	0.0003349	11
	9	35	37828.12	3.019379	0.0717448	1	3.020232	1.361174	-1.584962E-005	0.0003527	11
	10	38	30046.88	3.027529	-0.0478581	1	3.027907	-0.9056367	-5.000116E-005	0.0003558	11
	11	41	23859.38	3.035926	-0.1688156	1	3.040616	-3.18271	-4.506485E-005	0.0003635	11
	12	43	18984.38	3.04671	-0.295638	1	3.06102	-5.542353	-4.468048E-005	0.0003748	11
	13	45	15046.87	3.059243	-0.4380443	1	3.090445	-8.148631	-5.797548E-005	0.0003784	11
	14	47	11953.13	3.074306	-0.5992252	1	3.13216	-11.02946	-5.920819E-005	0.0003759	11
	15	50	9515.62	3.092912	-0.7868661	1	3.191436	-14.27378	-6.530547E-005	0.0003736	11
	16	52	7546.875	3.116187	-1.013583	1	3.276884	-18.01784	-5.963489E-005	0.0003725	11
	17	54	5928.309	3.145772	-1.302289	1	3.404679	-22.48862	-6.482139E-005	0.0003642	11
	18	57	4733.456	3.18108	-1.630534	1	3.57462	-27.13843	-2.484253E-005	0.0003957	11
	19	59	3796.875	3.227727	-2.024083	1	3.809873	-32.09151	-8.355182E-006	-0.0000953	10
	20	61	2987.132	3.286103	-2.548447	1	4.158492	-37.79439	2.371488E-005	-0.000135	10
	21	64	2390.625	3.353393	-3.15022	1	4.600993	-43.21066	-2.803866E-005	-0.0001214	10
	22	66	1884.191	3.44618	-3.943483	1	5.2371	-48.85003	1.999436E-005	-0.0001407	10
	23	68	1516.544	3.550164	-4.835979	1	5.999197	-53.71705	1.869848E-005	-0.000145	10
	24	71	1193.986	3.695569	-6.051806	1	7.090951	-58.58945	-9.16065E-006	-0.0001225	10
	25	73	946.5144	3.870289	-7.52806	1	8.464681	-62.79162	-1.786892E-005	-0.0001745	10
	26	76	751.7689	4.105645	-9.335755	1	10.19866	-66.26124	-2.210405E-005	-0.0001164	10
	27	78	597.4265	4.395282	-11.56941	1	12.37618	-69.19794	-2.044763E-005	-0.000111	10
	28	80	477.4305	4.788081	-14.2803	1	15.06163	-71.46407	-9.901623E-008	-0.0001126	10
	29	82	376.6741	5.326862	-17.81502	1	18.59437	-73.35284	-7.383859E-008	-0.0001158	10
	30	85	298.2954	6.046149	-22.14221	1	22.95285	-74.72714	-3.351188E-007	-0.0001145	10
	31	87	237.7717	6.998787	-27.33709	1	28.21877	-75.63969	-7.610512E-008	-0.0001189	10
	32	90	189.0121	8.328842	-33.8123	1	34.823	-76.16206	-1.226339E-006	-0.000116	10
	33	92	150.2404	10.17171	-41.75582	1	42.97688	-76.30941	-1.017579E-006	-0.0001139	10
	34	94	119.1737	12.76579	-51.50714	1	53.06554	-76.08002	5.13122E-008	-0.0001226	9
	35	97	95.0169	16.32621	-63.13418	1	65.21096	-75.50119	8.841287E-008	-0.0001291	9
	36	99	75.60484	21.34684	-77.24944	1	80.14465	-74.55258	4.611134E-007	-0.0001803	9
	37	102	54.50582	32.15328	-102.2033	1	107.1417	-72.53635	1.43566E-007	-0.0001303	9
	38	104	45.95588	40.09681	-117.6443	1	124.2897	-71.1793	1.840874E-007	-0.0001241	9
	39	107	37.20238	52.92402	-139.1156	1	148.8425	-69.17159	1.008908E-007	-0.0001276	9
	40	109	30.04808	69.89185	-163.257	1	177.5886	-66.82378	2.118192E-007	-0.000135	9
	41	112	23.91582	93.77911	-191.2036	1	212.9633	-63.87357	3.930526E-007	-0.0001331	9
	42	114	18.60119	128.574	-223.4242	1	257.7783	-60.08086	8.957472E-007	-0.000126	9
	43	116	15.02404	165.4995	-250.1198	1	299.9166	-56.50814	7.472152E-007	-0.0001184	9
	44	119	12.01923	211.5869	-275.0395	1	347.0097	-52.42905	8.01163E-007	-0.0001726	9
	45	121	9.450605	268.7541	-296.1292	1	399.9015	-47.77447	1.014393E-006	-0.0001276	9
	46	124	7.512019	326.6068	-307.1925	1	448.374	-43.24549	1.516793E-006	-0.0001252	8
	47	127	5.978954	387.3035	-311.2567	1	496.875	-38.78712	2.139231E-006	-0.0001155	8
	48	131	4.734848	448.3812	-307.7863	1	543.8548	-34.46722	1.840113E-006	-0.0001441	8
	49	136	3.75601	505.8936	-297.7103	1	586.9921	-30.47613	1.893454E-006	-0.0001266	8
	50	142	3.004808	556.7603	-283.9175	1	624.9729	-27.01911	2.34492E-006	-0.0001551	8
	51	148	2.372217	606.1984	-267.701	1	662.6766	-23.82655	1.874441E-006	-0.0001475	8
	52	156	1.878005	652.1248	-252.4724	1	699.2919	-21.16409	2.03418E-006	-0.0001034	8
	53	165	1.512097	690.2531	-237.7899	1	730.064	-19.00866	1.91431E-006	-0.0002201	8
	54	175	1.201923	729.411	-225.1204	1	763.3607	-17.15196	1.68618E-006	-0.0001021	8
	55	188	0.956633	766.3365	-214.5865	1	795.8135	-15.6431	1.024294E-006	-0.0006663	8
