EXPLAIN
TAG	EISPOT
TITLE	LABEL	Potentiostatic EIS	Test Identifier
DATE	LABEL	10/12/2021	Date
TIME	LABEL	18:18:16	Time
NOTES	NOTES	1	Notes...
	
PSTAT	PSTAT	REF3000-16137	Potentiostat
VDC	POTEN	0.00000E+000	T	DC Voltage (V)
FREQINIT	QUANT	3.00000E+005	Initial Freq. (Hz)
FREQFINAL	QUANT	1.00000E+000	Final Freq. (Hz)
PTSPERDEC	QUANT	1.00000E+001	Points/decade
VAC	QUANT	5.00000E+001	AC Voltage (mV rms)
AREA	QUANT	1.00000E+000	Sample Area (cm^2)
SPEED	SELECTOR	2	Optimize for:
ZGUESS	QUANT	1.00000E+003	Estimated Z (ohms)
EOC	QUANT	0	Open Circuit (V)
SEQUENCER	TOGGLE	TRUE	Run as Sequence
PSTATMODEL	IQUANT	5	Pstat Model
PSTATSECTION	LABEL	REF3000-16137	Pstat Section
PSTATSERIALNO	LABEL	16137	Pstat Serial Number
CTRLMODE	IQUANT	1	Control Mode
IESTAB	IQUANT	0	I/E Stability
CASPEED	IQUANT	1	Control Amp Speed
CONVENTION	IQUANT	1	Current Convention
ICHRANGE	IQUANT	2	Ich Range
ICHRANGEMODE	TOGGLE	F	Ich Auto Range
ICHOFFSETENABLE	TOGGLE	T	Ich Offset Enable
ICHOFFSET	QUANT	0	Ich Offset (V)
ICHFILTER	IQUANT	3	Ich Filter
VCHRANGE	IQUANT	2	Vch Range
VCHRANGEMODE	TOGGLE	F	Vch Auto Range
VCHOFFSETENABLE	TOGGLE	T	Vch Offset Enable
VCHOFFSET	QUANT	0	Vch Offset (V)
VCHFILTER	IQUANT	3	Vch Filter
ACHRANGE	IQUANT	2	Ach Range
ACHOFFSETENABLE	TOGGLE	F	Ach Offset Enable
ACHOFFSET	QUANT	0	Ach Offset (V)
ACHFILTER	IQUANT	3	Ach Filter
IERANGELOWERLIMIT	IQUANT	2	I/E Range Lower Limit
IERANGEMODE	TOGGLE	F	I/E AutoRange
IERANGE	IQUANT	11	I/E Range
POSFEEDENABLE	TOGGLE	F	Positive Feedback IR Comp
POSFEEDRESISTANCE	QUANT	0	Positive Feedback Resistance (ohm)
ACHSELECT	IQUANT	0	Ach Select
CABLEID	IQUANT	13	Cable ID
DCCALDATE	LABEL	9/10/2021	DC Calibration Date
ACCALDATE	LABEL	9/10/2021	AC Calibration Date
THERMOSELECT	IQUANT	1	Thermo Select
FRAMEWORKVERSION	QUANT	6.33	Framework Version
INSTRUMENTVERSION	LABEL	3.50	Instrument Version
COMPLIANCEVOLTAGE	IQUANT	0	Compliance Voltage
ZCURVE	TABLE
	Pt	Time	Freq	Zreal	Zimag	Zsig	Zmod	Zphz	Idc	Vdc	IERange
	#	s	Hz	ohm	ohm	V	ohm	°	A	V	#
	0	11	300046.9	1.853382	2.379518	1	3.016145	52.08535	3.345616E-005	-0.0007292	11
	1	14	238359.4	1.803453	1.889837	1	2.612265	46.33986	2.360935E-005	-0.0003177	11
	2	18	189328.1	1.86018	1.365677	1	2.30767	36.28479	-8.760094E-005	-0.000873	12
	3	22	150421.9	1.750295	1.176208	1	2.108791	33.90131	3.747517E-005	-0.0001337	11
	4	24	119484.4	1.742642	0.912078	1	1.966898	27.62702	-0.0001029	-3.947076E-005	11
	5	27	94921.88	1.733953	0.6942044	1	1.867756	21.81916	-4.080905E-005	0.0001103	11
	6	29	75421.88	1.729912	0.5139539	1	1.804645	16.5466	-4.458224E-005	0.0001511	11
	7	32	59859.37	1.729057	0.3603942	1	1.766217	11.77381	-5.34878E-005	0.0002179	11
	8	34	47578.12	1.729616	0.2276482	1	1.744533	7.498045	-1.650664E-005	0.0002246	11
	9	37	37828.12	1.731037	0.1075339	1	1.734374	3.554707	-9.165649E-005	0.0002751	11
	10	41	30046.88	1.735794	-0.0061813	1	1.735805	-0.2040332	-3.768049E-005	0.0003357	11
	11	43	23859.38	1.740873	-0.118996	1	1.744935	-3.910325	-9.115665E-005	0.0003151	11
	12	45	18984.38	1.749022	-0.2353837	1	1.76479	-7.664823	-7.147852E-005	0.000351	11
	13	48	15046.87	1.760059	-0.3640701	1	1.797318	-11.68687	-6.909607E-005	0.0003693	11
	14	50	11953.13	1.773764	-0.5077215	1	1.844998	-15.97322	-5.194893E-005	0.0003794	11
	15	52	9515.62	1.79084	-0.6730717	1	1.913148	-20.59829	-0.0000966	0.0003381	11
	16	55	7546.875	1.815764	-0.8717977	1	2.014207	-25.64693	-5.772969E-005	0.0003759	11
	17	57	5928.309	1.848329	-1.122097	1	2.162272	-31.2614	-7.411894E-005	0.0003602	11
	18	59	4733.456	1.889511	-1.40521	1	2.354754	-36.63779	-2.796637E-005	0.0003699	11
	19	62	3796.875	1.944018	-1.74111	1	2.609726	-41.8484	-5.572191E-005	0.0003844	11
	20	64	2987.132	2.021561	-2.190028	1	2.980425	-47.29066	-7.347039E-005	0.0003276	11
	21	66	2390.625	2.118939	-2.699779	1	3.432012	-51.87317	-7.656791E-005	0.0003356	11
	22	69	1884.191	2.264155	-3.369478	1	4.05953	-56.10048	-1.604229E-005	0.0003957	11
	23	71	1516.544	2.448867	-4.119459	1	4.792379	-59.27007	7.729574E-006	-0.000152	10
	24	73	1193.986	2.726896	-5.120643	1	5.801461	-61.96336	2.104611E-005	-0.0001387	10
	25	76	946.5144	3.108449	-6.3116	1	7.035534	-63.77986	2.5369E-005	-0.0001325	10
	26	78	751.7689	3.649648	-7.721579	1	8.540651	-64.70197	-2.363953E-005	-0.0001179	10
	27	80	597.4265	4.404435	-9.393375	1	10.37471	-64.87872	-1.206624E-005	-0.0001695	10
	28	83	477.4305	5.428764	-11.29875	1	12.53528	-64.33689	9.108248E-008	-0.0001155	10
	29	85	376.6741	6.915001	-13.57808	1	15.2375	-63.01131	9.972423E-007	-0.0001166	10
	30	87	298.2954	8.897268	-16.04773	1	18.34915	-60.99491	4.157008E-007	-0.0001142	10
	31	90	237.7717	11.41343	-18.56751	1	21.79493	-58.42099	7.463854E-007	-0.0001202	10
	32	92	189.0121	14.62483	-21.09424	1	25.66813	-55.26607	1.657446E-006	-0.0001211	10
	33	94	150.2404	18.50532	-23.41367	1	29.84371	-51.67842	1.694743E-006	-0.0001187	10
	34	97	119.1737	23.02809	-25.34399	1	34.2434	-47.74105	3.680986E-006	-0.0001152	10
	35	99	95.0169	27.87447	-26.67542	1	38.58192	-43.74079	2.280124E-006	-0.0001205	10
	36	102	75.60484	32.93819	-27.35195	1	42.81417	-39.70633	4.010911E-006	-0.000131	9
	37	104	54.50582	40.15209	-27.27704	1	48.54099	-34.18995	6.216045E-006	-0.000181	9
	38	107	45.95588	43.72681	-26.85762	1	51.31633	-31.55883	3.723907E-006	-0.0001248	9
	39	109	37.20238	47.85065	-26.06241	1	54.48793	-28.57543	6.065176E-006	-0.0001249	9
	40	112	30.04808	51.68624	-25.09256	1	57.45523	-25.89557	3.685135E-006	-0.0001221	9
	41	114	23.91582	55.3721	-24.03538	1	60.36364	-23.46423	1.332847E-006	-0.0001285	9
	42	116	18.60119	59.02686	-22.96599	1	63.33724	-21.25986	9.773954E-006	-0.0001312	9
	43	119	15.02404	61.96444	-22.15744	1	65.80686	-19.67619	1.251553E-005	-0.0001287	9
	44	121	12.01923	64.74953	-21.51227	1	68.22961	-18.37846	-1.996574E-006	-0.0001313	9
	45	124	9.450605	67.6423	-21.14968	1	70.87164	-17.36287	4.680322E-006	-0.000121	9
	46	126	7.512019	70.37105	-20.97537	1	73.43058	-16.59764	1.026354E-006	-0.000122	9
	47	129	5.978954	73.02859	-21.13877	1	76.02646	-16.14355	-1.974699E-006	-0.0001321	9
	48	132	4.734848	75.93717	-21.4898	1	78.91936	-15.80122	6.746289E-006	-0.000119	9
	49	135	3.75601	78.85301	-22.05825	1	81.88018	-15.62837	2.478991E-009	-0.0001351	9
	50	138	3.004808	81.68444	-22.91964	1	84.83901	-15.67346	9.929182E-006	-0.0001615	9
	51	142	2.372217	85.05154	-23.83329	1	88.32774	-15.65403	8.833043E-007	-0.0001897	9
	52	146	1.878005	88.56638	-25.23294	1	92.09074	-15.90248	3.04749E-006	-0.0001143	9
	53	151	1.512097	91.82914	-26.7116	1	95.6352	-16.21885	6.471683E-006	-0.0002283	9
	54	156	1.201923	95.7734	-28.44555	1	99.9085	-16.54188	1.333469E-007	-0.0001123	9
	55	163	0.956633	100.0217	-30.64336	1	104.6105	-17.03334	-3.057512E-006	-0.0006775	9
