EXPLAIN
TAG	EISPOT
TITLE	LABEL	Potentiostatic EIS	Test Identifier
DATE	LABEL	10/12/2021	Date
TIME	LABEL	19:05:00	Time
NOTES	NOTES	1	Notes...
	
PSTAT	PSTAT	REF3000-16137	Potentiostat
VDC	POTEN	0.00000E+000	T	DC Voltage (V)
FREQINIT	QUANT	3.00000E+005	Initial Freq. (Hz)
FREQFINAL	QUANT	1.00000E+000	Final Freq. (Hz)
PTSPERDEC	QUANT	1.00000E+001	Points/decade
VAC	QUANT	5.00000E+001	AC Voltage (mV rms)
AREA	QUANT	1.00000E+000	Sample Area (cm^2)
SPEED	SELECTOR	2	Optimize for:
ZGUESS	QUANT	1.00000E+003	Estimated Z (ohms)
EOC	QUANT	0	Open Circuit (V)
SEQUENCER	TOGGLE	TRUE	Run as Sequence
PSTATMODEL	IQUANT	5	Pstat Model
PSTATSECTION	LABEL	REF3000-16137	Pstat Section
PSTATSERIALNO	LABEL	16137	Pstat Serial Number
CTRLMODE	IQUANT	1	Control Mode
IESTAB	IQUANT	0	I/E Stability
CASPEED	IQUANT	1	Control Amp Speed
CONVENTION	IQUANT	1	Current Convention
ICHRANGE	IQUANT	2	Ich Range
ICHRANGEMODE	TOGGLE	F	Ich Auto Range
ICHOFFSETENABLE	TOGGLE	T	Ich Offset Enable
ICHOFFSET	QUANT	0	Ich Offset (V)
ICHFILTER	IQUANT	3	Ich Filter
VCHRANGE	IQUANT	2	Vch Range
VCHRANGEMODE	TOGGLE	F	Vch Auto Range
VCHOFFSETENABLE	TOGGLE	T	Vch Offset Enable
VCHOFFSET	QUANT	0	Vch Offset (V)
VCHFILTER	IQUANT	3	Vch Filter
ACHRANGE	IQUANT	2	Ach Range
ACHOFFSETENABLE	TOGGLE	F	Ach Offset Enable
ACHOFFSET	QUANT	0	Ach Offset (V)
ACHFILTER	IQUANT	3	Ach Filter
IERANGELOWERLIMIT	IQUANT	2	I/E Range Lower Limit
IERANGEMODE	TOGGLE	F	I/E AutoRange
IERANGE	IQUANT	11	I/E Range
POSFEEDENABLE	TOGGLE	F	Positive Feedback IR Comp
POSFEEDRESISTANCE	QUANT	0	Positive Feedback Resistance (ohm)
ACHSELECT	IQUANT	0	Ach Select
CABLEID	IQUANT	13	Cable ID
DCCALDATE	LABEL	9/10/2021	DC Calibration Date
ACCALDATE	LABEL	9/10/2021	AC Calibration Date
THERMOSELECT	IQUANT	1	Thermo Select
FRAMEWORKVERSION	QUANT	6.33	Framework Version
INSTRUMENTVERSION	LABEL	3.50	Instrument Version
COMPLIANCEVOLTAGE	IQUANT	0	Compliance Voltage
ZCURVE	TABLE
	Pt	Time	Freq	Zreal	Zimag	Zsig	Zmod	Zphz	Idc	Vdc	IERange
	#	s	Hz	ohm	ohm	V	ohm	°	A	V	#
	0	10	300046.9	3.648719	2.377661	1	4.355046	33.08998	3.246138E-005	-0.0007759	10
	1	13	238359.4	3.624723	1.892589	1	4.089072	27.57057	4.41099E-005	-0.0011323	10
	2	16	189328.1	3.604206	1.495537	1	3.90217	22.53563	-1.780884E-005	-0.0009063	10
	3	19	150421.9	3.591633	1.170377	1	3.777514	18.04883	2.0379E-005	-0.0006415	10
	4	21	119484.4	3.592444	0.902294	1	3.704023	14.09902	-0.0001025	-0.0005396	10
	5	24	94921.88	3.59552	0.6895279	1	3.66104	10.85605	4.446616E-005	-0.0003977	10
	6	27	75421.88	3.596476	0.5029996	1	3.63148	7.961688	2.803746E-005	-0.0003622	10
	7	29	59859.37	3.600553	0.3424221	1	3.616799	5.43264	4.840152E-006	-0.0002691	10
	8	32	47578.12	3.604911	0.2015301	1	3.61054	3.19975	2.55072E-005	-0.0002457	10
	9	34	37828.12	3.612677	0.0735235	1	3.613425	1.165895	6.17866E-006	-0.0002226	10
	10	37	30046.88	3.620908	-0.0505491	1	3.621261	-0.7998167	1.295977E-005	-0.0002038	10
	11	39	23859.38	3.632453	-0.1753916	1	3.636685	-2.764357	1.842151E-005	-0.0001531	10
	12	42	18984.38	3.644506	-0.3061208	1	3.65734	-4.801296	-2.790753E-005	-0.0001416	10
	13	44	15046.87	3.658888	-0.4525771	1	3.686772	-7.051243	1.223219E-005	-0.0001693	10
	14	46	11953.13	3.675323	-0.6177993	1	3.726885	-9.54187	2.259618E-005	-0.000154	10
	15	48	9515.62	3.696524	-0.8104283	1	3.78432	-12.36591	-1.518199E-005	-0.0000959	10
	16	51	7546.875	3.720575	-1.043447	1	3.864125	-15.66633	9.623803E-006	-0.0001529	10
	17	53	5928.309	3.7524	-1.340386	1	3.984613	-19.65712	-1.408882E-006	-0.0001404	10
	18	55	4733.456	3.789088	-1.678647	1	4.144279	-23.89437	-1.846273E-006	-0.0001446	10
	19	58	3796.875	3.833418	-2.083518	1	4.363042	-28.52472	2.474532E-005	-0.0001363	10
	20	60	2987.132	3.893357	-2.623513	1	4.694789	-33.9738	-1.501E-005	-0.000127	10
	21	62	2390.625	3.962331	-3.241629	1	5.119397	-39.287	1.256989E-005	-0.0001483	10
	22	65	1884.191	4.054481	-4.06022	1	5.737961	-45.04052	2.319577E-005	-0.0001415	10
	23	67	1516.544	4.158998	-4.980847	1	6.488921	-50.13818	6.804875E-006	-0.0001332	10
	24	69	1193.986	4.302599	-6.231679	1	7.572726	-55.37726	-1.554033E-005	-0.0001249	10
	25	72	946.5144	4.483613	-7.739633	1	8.944535	-59.91604	-6.548708E-006	-0.0001161	10
	26	74	751.7689	4.697119	-9.60997	1	10.69647	-63.95175	2.285235E-005	-0.0001411	10
	27	76	597.4265	4.969717	-11.91197	1	12.90709	-67.35393	-5.162915E-006	-0.0001222	10
	28	79	477.4305	5.319125	-14.70099	1	15.63369	-70.10882	-1.305524E-006	-0.0001177	10
	29	81	376.6741	5.792177	-18.34645	1	19.23906	-72.47852	-1.17011E-006	-0.000113	10
	30	83	298.2954	6.407052	-22.82236	1	23.70465	-74.31867	-1.213519E-006	-0.0001136	10
	31	86	237.7717	7.199628	-28.21103	1	29.11523	-75.68336	-1.510591E-006	-0.0001131	10
	32	88	189.0121	8.277176	-34.95177	1	35.91849	-76.67683	-1.475536E-006	-0.0001151	10
	33	91	150.2404	9.72661	-43.22332	1	44.30421	-77.3179	-1.085018E-007	-0.0001255	9
	34	93	119.1737	11.75731	-53.58055	1	54.85535	-77.6236	9.847183E-008	-0.0001304	9
	35	95	95.0169	14.49172	-66.00909	1	67.58113	-77.61765	-1.212803E-007	-0.0001198	9
	36	98	75.60484	18.31339	-81.32841	1	83.36481	-77.3099	-9.392341E-008	-0.0001251	9
	37	100	54.50582	26.53707	-109.1483	1	112.3279	-76.33489	-4.958823E-008	-0.0001242	9
	38	103	45.95588	32.63352	-126.9001	1	131.0289	-75.57835	4.553948E-007	-0.0001683	9
	39	105	37.20238	42.52586	-152.3994	1	158.2215	-74.40866	1.779293E-008	-0.0001311	9
	40	108	30.04808	55.96924	-182.6545	1	191.0372	-72.96382	1.090925E-007	-0.000139	9
	41	110	23.91582	75.4122	-219.9982	1	232.5644	-71.07903	1.265133E-007	-0.0001339	9
	42	113	18.60119	105.3036	-267.651	1	287.6211	-68.52354	4.500802E-007	-0.0001295	9
	43	115	15.02404	139.0803	-313.2191	1	342.7091	-66.0571	1.56351E-007	-0.0001332	9
	44	117	12.01923	185.3573	-364.2072	1	408.6615	-63.02693	6.878564E-007	-0.0001263	9
	45	120	9.450605	248.565	-418.9167	1	487.1096	-59.31715	8.349101E-007	-0.0001284	8
	46	122	7.512019	324.6768	-470.8448	1	571.9352	-55.41132	1.056212E-006	-0.0001352	8
	47	125	5.978954	414.9007	-515.4699	1	661.7037	-51.16948	1.193466E-006	-0.0001213	8
	48	129	4.734848	520.1146	-550.5005	1	757.344	-46.62572	1.298751E-006	-0.0001291	8
	49	134	3.75601	632.1416	-570.9954	1	851.8444	-42.0906	1.600739E-006	-0.0001034	8
	50	140	3.004808	742.9861	-576.9851	1	940.7126	-37.83205	1.491242E-006	-0.000104	8
	51	146	2.372217	858.7025	-568.9802	1	1030.101	-33.52864	1.563575E-006	-0.000111	8
	52	154	1.878005	970.717	-553.6478	1	1117.505	-29.69825	1.636598E-006	-0.000137	8
	53	163	1.512097	1066.911	-529.9658	1	1191.287	-26.41492	1.541652E-006	-2.243753E-005	8
	54	173	1.201923	1162.859	-502.4866	1	1266.781	-23.36981	1.52211E-006	-0.0001311	8
	55	186	0.956633	1251.455	-475.41	1	1338.714	-20.80107	8.239297E-007	-0.0006614	8
