EXPLAIN
TAG	EISPOT
TITLE	LABEL	Potentiostatic EIS	Test Identifier
DATE	LABEL	10/12/2021	Date
TIME	LABEL	18:55:05	Time
NOTES	NOTES	1	Notes...
	
PSTAT	PSTAT	REF3000-16137	Potentiostat
VDC	POTEN	0.00000E+000	T	DC Voltage (V)
FREQINIT	QUANT	3.00000E+005	Initial Freq. (Hz)
FREQFINAL	QUANT	1.00000E+000	Final Freq. (Hz)
PTSPERDEC	QUANT	1.00000E+001	Points/decade
VAC	QUANT	5.00000E+001	AC Voltage (mV rms)
AREA	QUANT	1.00000E+000	Sample Area (cm^2)
SPEED	SELECTOR	2	Optimize for:
ZGUESS	QUANT	1.00000E+003	Estimated Z (ohms)
EOC	QUANT	0	Open Circuit (V)
SEQUENCER	TOGGLE	TRUE	Run as Sequence
PSTATMODEL	IQUANT	5	Pstat Model
PSTATSECTION	LABEL	REF3000-16137	Pstat Section
PSTATSERIALNO	LABEL	16137	Pstat Serial Number
CTRLMODE	IQUANT	1	Control Mode
IESTAB	IQUANT	0	I/E Stability
CASPEED	IQUANT	1	Control Amp Speed
CONVENTION	IQUANT	1	Current Convention
ICHRANGE	IQUANT	2	Ich Range
ICHRANGEMODE	TOGGLE	F	Ich Auto Range
ICHOFFSETENABLE	TOGGLE	T	Ich Offset Enable
ICHOFFSET	QUANT	0	Ich Offset (V)
ICHFILTER	IQUANT	3	Ich Filter
VCHRANGE	IQUANT	2	Vch Range
VCHRANGEMODE	TOGGLE	F	Vch Auto Range
VCHOFFSETENABLE	TOGGLE	T	Vch Offset Enable
VCHOFFSET	QUANT	0	Vch Offset (V)
VCHFILTER	IQUANT	3	Vch Filter
ACHRANGE	IQUANT	2	Ach Range
ACHOFFSETENABLE	TOGGLE	F	Ach Offset Enable
ACHOFFSET	QUANT	0	Ach Offset (V)
ACHFILTER	IQUANT	3	Ach Filter
IERANGELOWERLIMIT	IQUANT	2	I/E Range Lower Limit
IERANGEMODE	TOGGLE	F	I/E AutoRange
IERANGE	IQUANT	11	I/E Range
POSFEEDENABLE	TOGGLE	F	Positive Feedback IR Comp
POSFEEDRESISTANCE	QUANT	0	Positive Feedback Resistance (ohm)
ACHSELECT	IQUANT	0	Ach Select
CABLEID	IQUANT	13	Cable ID
DCCALDATE	LABEL	9/10/2021	DC Calibration Date
ACCALDATE	LABEL	9/10/2021	AC Calibration Date
THERMOSELECT	IQUANT	1	Thermo Select
FRAMEWORKVERSION	QUANT	6.33	Framework Version
INSTRUMENTVERSION	LABEL	3.50	Instrument Version
COMPLIANCEVOLTAGE	IQUANT	0	Compliance Voltage
ZCURVE	TABLE
	Pt	Time	Freq	Zreal	Zimag	Zsig	Zmod	Zphz	Idc	Vdc	IERange
	#	s	Hz	ohm	ohm	V	ohm	°	A	V	#
	0	10	300046.9	2.868302	2.414949	1	3.749551	40.09549	-2.251314E-005	-0.0010506	10
	1	13	238359.4	2.823812	1.902224	1	3.404757	33.96567	3.842985E-005	-0.0013025	10
	2	16	189328.1	2.900792	1.275859	1	3.168977	23.74139	-1.688218E-005	-0.0008912	12
	3	20	150421.9	2.799804	1.152984	1	3.027916	22.3823	-0.0001426	5.162346E-005	11
	4	22	119484.4	2.794486	0.8913533	1	2.9332	17.69105	-2.621226E-005	0.0001829	11
	5	25	94921.88	2.790041	0.6721861	1	2.869872	13.54575	-3.857351E-005	0.000232	11
	6	27	75421.88	2.788977	0.491534	1	2.83196	9.99526	-6.369319E-005	0.0002554	11
	7	30	59859.37	2.789701	0.3354205	1	2.809794	6.856062	-3.205842E-005	0.0003088	11
	8	33	47578.12	2.793156	0.2000161	1	2.800308	4.095923	-5.06776E-005	0.0003273	11
	9	35	37828.12	2.798312	0.076238	1	2.79935	1.560596	-7.122206E-005	0.0003413	11
	10	38	30046.88	2.80355	-0.043441	1	2.803887	-0.8877273	-1.906449E-005	0.0003727	11
	11	40	23859.38	2.812499	-0.1635792	1	2.817252	-3.328659	-4.249933E-005	0.0003694	11
	12	42	18984.38	2.822066	-0.2895752	1	2.836884	-5.858677	-1.278218E-005	0.0003995	11
	13	45	15046.87	2.833631	-0.4306056	1	2.866162	-8.640701	-7.795114E-005	0.0003435	11
	14	47	11953.13	2.84854	-0.5904087	1	2.909083	-11.70973	-4.645454E-005	0.0003744	11
	15	49	9515.62	2.867126	-0.775273	1	2.970095	-15.13097	-6.116583E-005	0.0003427	11
	16	52	7546.875	2.88918	-1.000476	1	3.057502	-19.10014	-7.234615E-005	0.0003557	11
	17	54	5928.309	2.919159	-1.284451	1	3.189248	-23.74983	-7.788884E-005	0.0003501	11
	18	56	4733.456	2.953582	-1.608621	1	3.363228	-28.57421	-5.905285E-005	0.0003531	11
	19	59	3796.875	2.997421	-1.993268	1	3.599673	-33.62368	-3.961786E-005	0.0003806	11
	20	61	2987.132	3.058222	-2.513802	1	3.958778	-39.41958	-1.246887E-005	-0.0001639	10
	21	63	2390.625	3.125722	-3.107788	1	4.407775	-44.83516	1.30533E-005	-0.0001171	10
	22	66	1884.191	3.218142	-3.889494	1	5.048228	-50.39587	-4.712422E-007	-0.0001401	10
	23	68	1516.544	3.323711	-4.770172	1	5.813913	-55.13239	-5.046567E-007	-0.0001386	10
	24	70	1193.986	3.472962	-5.969737	1	6.906463	-59.81081	1.991943E-005	-0.0001454	10
	25	73	946.5144	3.659559	-7.419603	1	8.273022	-63.74617	4.001198E-006	-0.0001453	10
	26	75	751.7689	3.898817	-9.202892	1	9.9947	-67.03999	-8.192878E-006	-0.0001292	10
	27	77	597.4265	4.214376	-11.4065	1	12.16015	-69.72217	-8.540756E-006	-0.0001326	10
	28	80	477.4305	4.625562	-14.07761	1	14.81806	-71.81073	-2.743401E-007	-0.0001138	10
	29	82	376.6741	5.210127	-17.55325	1	18.31016	-73.46815	8.672444E-008	-0.0001159	10
	30	84	298.2954	6.001383	-21.80122	1	22.61216	-74.60898	-6.517271E-008	-0.0001123	10
	31	87	237.7717	7.062738	-26.8868	1	27.79897	-75.28182	4.115832E-007	-0.0001169	10
	32	89	189.0121	8.556186	-33.20607	1	34.2907	-75.55094	-1.02704E-006	-0.0001159	10
	33	91	150.2404	10.64323	-40.91858	1	42.28011	-75.42001	-1.06009E-006	-0.0001191	10
	34	94	119.1737	13.59069	-50.32068	1	52.12368	-74.88607	1.562808E-007	-0.0001316	9
	35	96	95.0169	17.64862	-61.43299	1	63.9178	-73.97157	5.295653E-007	-0.0001763	9
	36	99	75.60484	23.35363	-74.74457	1	78.308	-72.6488	2.47465E-008	-0.0001321	9
	37	101	54.50582	35.54575	-97.7742	1	104.0351	-70.0213	5.424639E-007	-0.0001755	9
	38	104	45.95588	44.43007	-111.6816	1	120.1949	-68.30595	6.901398E-007	-0.00013	9
	39	106	37.20238	58.43439	-130.3966	1	142.891	-65.8615	6.883428E-007	-0.0001307	9
	40	109	30.04808	76.88	-150.7539	1	169.2255	-62.97977	7.320901E-007	-0.0001351	9
	41	111	23.91582	102.0412	-173.0078	1	200.8584	-59.46759	6.997485E-007	-0.0001344	9
	42	113	18.60119	136.4021	-196.1745	1	238.9351	-55.18871	1.850748E-006	-0.0001364	9
	43	116	15.02404	171.3136	-213.4163	1	273.6693	-51.24527	9.390424E-007	-0.0001286	9
	44	118	12.01923	212.4814	-227.0108	1	310.9377	-46.89347	1.169545E-006	-0.0001253	9
	45	121	9.450605	260.1267	-235.2021	1	350.6935	-42.11934	1.741841E-006	-0.0001371	9
	46	123	7.512019	306.3542	-236.4794	1	387.0083	-37.66509	2.267918E-006	-0.00013	9
	47	127	5.978954	349.2965	-231.2346	1	418.9004	-33.50459	2.699202E-006	-0.0001201	8
	48	131	4.734848	391.9644	-222.6046	1	450.7647	-29.59313	2.381592E-006	-0.0001297	8
	49	136	3.75601	430.0872	-210.9726	1	479.0453	-26.12954	2.798599E-006	-0.0001099	8
	50	141	3.004808	463.4619	-199.0581	1	504.4017	-23.24364	2.881265E-006	-0.0001508	8
	51	148	2.372217	495.7065	-186.2127	1	529.5282	-20.58875	2.374294E-006	-0.000232	8
	52	155	1.878005	526.1548	-176.2889	1	554.9023	-18.52349	2.592495E-006	-0.000117	8
	53	164	1.512097	551.2642	-167.2545	1	576.0783	-16.87789	2.410894E-006	-0.0001935	8
	54	175	1.201923	578.694	-160.1345	1	600.4414	-15.46768	2.11816E-006	-9.003776E-005	8
	55	188	0.956633	605.2873	-154.9174	1	624.7977	-14.35612	7.767811E-007	-0.00067	8
