EXPLAIN
TAG	EISPOT
TITLE	LABEL	Potentiostatic EIS	Test Identifier
DATE	LABEL	10/12/2021	Date
TIME	LABEL	19:29:19	Time
NOTES	NOTES	1	Notes...
	
PSTAT	PSTAT	REF3000-16137	Potentiostat
VDC	POTEN	0.00000E+000	T	DC Voltage (V)
FREQINIT	QUANT	3.00000E+005	Initial Freq. (Hz)
FREQFINAL	QUANT	1.00000E+000	Final Freq. (Hz)
PTSPERDEC	QUANT	1.00000E+001	Points/decade
VAC	QUANT	5.00000E+001	AC Voltage (mV rms)
AREA	QUANT	1.00000E+000	Sample Area (cm^2)
SPEED	SELECTOR	2	Optimize for:
ZGUESS	QUANT	1.00000E+003	Estimated Z (ohms)
EOC	QUANT	0	Open Circuit (V)
SEQUENCER	TOGGLE	TRUE	Run as Sequence
PSTATMODEL	IQUANT	5	Pstat Model
PSTATSECTION	LABEL	REF3000-16137	Pstat Section
PSTATSERIALNO	LABEL	16137	Pstat Serial Number
CTRLMODE	IQUANT	1	Control Mode
IESTAB	IQUANT	0	I/E Stability
CASPEED	IQUANT	1	Control Amp Speed
CONVENTION	IQUANT	1	Current Convention
ICHRANGE	IQUANT	2	Ich Range
ICHRANGEMODE	TOGGLE	F	Ich Auto Range
ICHOFFSETENABLE	TOGGLE	T	Ich Offset Enable
ICHOFFSET	QUANT	0	Ich Offset (V)
ICHFILTER	IQUANT	3	Ich Filter
VCHRANGE	IQUANT	2	Vch Range
VCHRANGEMODE	TOGGLE	F	Vch Auto Range
VCHOFFSETENABLE	TOGGLE	T	Vch Offset Enable
VCHOFFSET	QUANT	0	Vch Offset (V)
VCHFILTER	IQUANT	3	Vch Filter
ACHRANGE	IQUANT	2	Ach Range
ACHOFFSETENABLE	TOGGLE	F	Ach Offset Enable
ACHOFFSET	QUANT	0	Ach Offset (V)
ACHFILTER	IQUANT	3	Ach Filter
IERANGELOWERLIMIT	IQUANT	2	I/E Range Lower Limit
IERANGEMODE	TOGGLE	F	I/E AutoRange
IERANGE	IQUANT	11	I/E Range
POSFEEDENABLE	TOGGLE	F	Positive Feedback IR Comp
POSFEEDRESISTANCE	QUANT	0	Positive Feedback Resistance (ohm)
ACHSELECT	IQUANT	0	Ach Select
CABLEID	IQUANT	13	Cable ID
DCCALDATE	LABEL	9/10/2021	DC Calibration Date
ACCALDATE	LABEL	9/10/2021	AC Calibration Date
THERMOSELECT	IQUANT	1	Thermo Select
FRAMEWORKVERSION	QUANT	6.33	Framework Version
INSTRUMENTVERSION	LABEL	3.50	Instrument Version
COMPLIANCEVOLTAGE	IQUANT	0	Compliance Voltage
ZCURVE	TABLE
	Pt	Time	Freq	Zreal	Zimag	Zsig	Zmod	Zphz	Idc	Vdc	IERange
	#	s	Hz	ohm	ohm	V	ohm	°	A	V	#
	0	8	300046.9	15.60516	2.113171	1	15.74759	7.71179	-0.0001017	-0.0005416	10
	1	11	238359.4	15.68771	1.614939	1	15.77061	5.877493	7.131853E-005	-0.000627	10
	2	15	189328.1	15.76944	1.221083	1	15.81664	4.427777	7.412755E-005	-0.0006008	10
	3	17	150421.9	15.87156	0.8996547	1	15.89704	3.244251	-8.662148E-005	-9.266886E-005	10
	4	20	119484.4	15.94514	0.6216198	1	15.95726	2.232539	2.554356E-005	-0.0001956	10
	5	22	94921.88	16.03882	0.3789276	1	16.0433	1.353398	-1.571755E-005	-0.0001694	10
	6	25	75421.88	16.14458	0.1678224	1	16.14545	0.5955664	2.516466E-005	-0.000151	10
	7	27	59859.37	16.25615	-0.0221784	1	16.25616	-0.0781692	2.109784E-005	-0.0002126	10
	8	30	47578.12	16.37432	-0.1963729	1	16.3755	-0.6871001	6.20059E-006	-0.0001898	10
	9	32	37828.12	16.50304	-0.364584	1	16.50706	-1.265569	-5.266146E-007	-0.0001018	10
	10	35	30046.88	16.63684	-0.5370272	1	16.6455	-1.848831	-1.071069E-006	-0.0000995	10
	11	37	23859.38	16.78294	-0.7168095	1	16.79824	-2.445651	-3.05523E-005	-0.0001358	10
	12	40	18984.38	16.93035	-0.9099655	1	16.95479	-3.076549	-1.236471E-005	-0.0001428	10
	13	42	15046.87	17.0955	-1.124108	1	17.13242	-3.762047	6.553266E-006	-0.0001714	10
	14	44	11953.13	17.2759	-1.368498	1	17.33002	-4.529187	-1.729635E-006	-8.620298E-005	10
	15	47	9515.62	17.46472	-1.644504	1	17.54197	-5.379194	2.631184E-005	-0.0001682	10
	16	49	7546.875	17.68184	-1.966567	1	17.79087	-6.34633	-2.294354E-005	-8.4789E-005	10
	17	51	5928.309	17.92038	-2.365864	1	18.07587	-7.520746	-1.680889E-005	-0.0001662	10
	18	54	4733.456	18.16795	-2.810354	1	18.38403	-8.793244	2.678054E-005	-0.0001555	10
	19	56	3796.875	18.43353	-3.320885	1	18.73027	-10.21255	2.341206E-005	-0.0001127	10
	20	58	2987.132	18.74221	-3.991971	1	19.16263	-12.02396	2.618918E-005	-0.0001452	10
	21	60	2390.625	19.06082	-4.746874	1	19.643	-13.98437	6.859485E-006	-0.0001591	10
	22	63	1884.191	19.41799	-5.718916	1	20.24264	-16.41056	2.220433E-005	-0.0001439	10
	23	65	1516.544	19.78623	-6.796265	1	20.9209	-18.9568	-2.081993E-006	-0.0001501	10
	24	67	1193.986	20.22466	-8.261065	1	21.84678	-22.2183	-2.60214E-005	-0.000096	10
	25	70	946.5144	20.6918	-10.00626	1	22.98425	-25.80774	2.020444E-005	-0.0001648	10
	26	72	751.7689	21.19866	-12.13828	1	24.42787	-29.79532	-1.723739E-005	-0.0001207	10
	27	75	597.4265	21.76945	-14.77248	1	26.30847	-34.16033	5.031104E-006	-0.0001656	10
	28	77	477.4305	22.38905	-17.94646	1	28.69398	-38.71472	-1.528565E-006	-0.0001111	10
	29	79	376.6741	23.10854	-22.0864	1	31.96582	-43.70441	-9.473639E-007	-0.0001685	10
	30	82	298.2954	23.91633	-27.16366	1	36.19192	-48.63759	-1.041872E-006	-0.000119	10
	31	84	237.7717	24.79441	-33.24798	1	41.47518	-53.28657	3.619434E-007	-0.0001362	9
	32	86	189.0121	25.85754	-40.92165	1	48.40654	-57.71206	3.364475E-007	-0.0001341	9
	33	89	150.2404	27.10768	-50.45013	1	57.27166	-61.75013	4.005014E-007	-0.0001313	9
	34	91	119.1737	28.61466	-62.40577	1	68.65333	-65.36732	3.541145E-007	-0.000126	9
	35	94	95.0169	30.39752	-76.91354	1	82.70248	-68.43523	4.307367E-007	-0.0001355	9
	36	96	75.60484	32.60838	-95.058	1	100.4955	-71.06616	3.476771E-007	-0.0001386	9
	37	99	54.50582	36.68943	-128.8539	1	133.9755	-74.1064	3.257727E-007	-0.0001357	9
	38	101	45.95588	39.5005	-151.0999	1	156.1777	-75.34962	3.262631E-007	-0.0001252	9
	39	103	37.20238	43.716	-183.9953	1	189.1173	-76.63474	3.191349E-007	-0.00013	9
	40	106	30.04808	49.1231	-224.6028	1	229.912	-77.66305	2.085639E-007	-0.0001242	9
	41	108	23.91582	56.51567	-277.7344	1	283.4262	-78.49802	2.502531E-007	-0.0001327	9
	42	111	18.60119	67.37395	-350.9605	1	357.3689	-79.13313	1.913886E-007	-0.0001265	9
	43	113	15.02404	79.25328	-426.045	1	433.3537	-79.46223	3.845091E-007	-0.0001223	8
	44	115	12.01923	95.7856	-523.3593	1	532.0524	-79.62846	5.025883E-007	-0.0001096	8
	45	118	9.450605	119.478	-652.3767	1	663.2272	-79.62171	3.973295E-007	-0.0001109	8
	46	120	7.512019	149.3286	-804.0161	1	817.7658	-79.47844	4.379705E-007	-0.000105	8
	47	123	5.978954	188.0052	-987.211	1	1004.954	-79.21767	4.450256E-007	-0.0001176	8
	48	126	4.734848	239.3456	-1216.915	1	1240.229	-78.87296	5.204773E-007	-0.0001087	8
	49	129	3.75601	305.5244	-1493.596	1	1524.524	-78.43928	4.4013E-007	-0.000129	8
	50	133	3.004808	386.7588	-1816.339	1	1857.059	-77.97935	5.024738E-007	-0.0001325	8
	51	136	2.372217	500.8886	-2230.369	1	2285.921	-77.34271	5.052142E-007	-9.075142E-005	8
	52	141	1.878005	645.3322	-2738.451	1	2813.462	-76.73984	4.593503E-007	-0.0001242	8
	53	145	1.512097	812.8234	-3298.219	1	3396.9	-76.15572	4.923591E-007	-0.0001747	8
	54	151	1.201923	1057.969	-4023.618	1	4160.385	-75.26814	4.764329E-007	-0.0001334	8
	55	157	0.956633	1374.873	-4892.248	1	5081.768	-74.303	5.016377E-008	-0.0006491	7
