EXPLAIN
TAG	EISPOT
TITLE	LABEL	Potentiostatic EIS	Test Identifier
DATE	LABEL	10/12/2021	Date
TIME	LABEL	18:21:09	Time
NOTES	NOTES	1	Notes...
	
PSTAT	PSTAT	REF3000-16137	Potentiostat
VDC	POTEN	0.00000E+000	T	DC Voltage (V)
FREQINIT	QUANT	3.00000E+005	Initial Freq. (Hz)
FREQFINAL	QUANT	1.00000E+000	Final Freq. (Hz)
PTSPERDEC	QUANT	1.00000E+001	Points/decade
VAC	QUANT	5.00000E+001	AC Voltage (mV rms)
AREA	QUANT	1.00000E+000	Sample Area (cm^2)
SPEED	SELECTOR	2	Optimize for:
ZGUESS	QUANT	1.00000E+003	Estimated Z (ohms)
EOC	QUANT	0	Open Circuit (V)
SEQUENCER	TOGGLE	TRUE	Run as Sequence
PSTATMODEL	IQUANT	5	Pstat Model
PSTATSECTION	LABEL	REF3000-16137	Pstat Section
PSTATSERIALNO	LABEL	16137	Pstat Serial Number
CTRLMODE	IQUANT	1	Control Mode
IESTAB	IQUANT	0	I/E Stability
CASPEED	IQUANT	1	Control Amp Speed
CONVENTION	IQUANT	1	Current Convention
ICHRANGE	IQUANT	2	Ich Range
ICHRANGEMODE	TOGGLE	F	Ich Auto Range
ICHOFFSETENABLE	TOGGLE	T	Ich Offset Enable
ICHOFFSET	QUANT	0	Ich Offset (V)
ICHFILTER	IQUANT	3	Ich Filter
VCHRANGE	IQUANT	2	Vch Range
VCHRANGEMODE	TOGGLE	F	Vch Auto Range
VCHOFFSETENABLE	TOGGLE	T	Vch Offset Enable
VCHOFFSET	QUANT	0	Vch Offset (V)
VCHFILTER	IQUANT	3	Vch Filter
ACHRANGE	IQUANT	2	Ach Range
ACHOFFSETENABLE	TOGGLE	F	Ach Offset Enable
ACHOFFSET	QUANT	0	Ach Offset (V)
ACHFILTER	IQUANT	3	Ach Filter
IERANGELOWERLIMIT	IQUANT	2	I/E Range Lower Limit
IERANGEMODE	TOGGLE	F	I/E AutoRange
IERANGE	IQUANT	11	I/E Range
POSFEEDENABLE	TOGGLE	F	Positive Feedback IR Comp
POSFEEDRESISTANCE	QUANT	0	Positive Feedback Resistance (ohm)
ACHSELECT	IQUANT	0	Ach Select
CABLEID	IQUANT	13	Cable ID
DCCALDATE	LABEL	9/10/2021	DC Calibration Date
ACCALDATE	LABEL	9/10/2021	AC Calibration Date
THERMOSELECT	IQUANT	1	Thermo Select
FRAMEWORKVERSION	QUANT	6.33	Framework Version
INSTRUMENTVERSION	LABEL	3.50	Instrument Version
COMPLIANCEVOLTAGE	IQUANT	0	Compliance Voltage
ZCURVE	TABLE
	Pt	Time	Freq	Zreal	Zimag	Zsig	Zmod	Zphz	Idc	Vdc	IERange
	#	s	Hz	ohm	ohm	V	ohm	°	A	V	#
	0	10	300046.9	1.888617	2.374824	1	3.034248	51.50597	4.022209E-005	-0.0005584	11
	1	13	238359.4	1.835463	1.892511	1	2.636384	45.87672	-2.418804E-005	-0.0005566	11
	2	17	189328.1	1.901318	1.368231	1	2.342449	35.73963	-6.786249E-005	-0.0007629	12
	3	20	150421.9	1.795109	1.173432	1	2.144612	33.17196	-5.529419E-006	-3.149194E-005	11
	4	23	119484.4	1.776483	0.9122992	1	1.997043	27.18242	-8.035571E-005	-1.219069E-007	11
	5	25	94921.88	1.768198	0.6930787	1	1.899179	21.40364	-3.239182E-005	4.743392E-005	11
	6	28	75421.88	1.765184	0.5126598	1	1.838122	16.19481	-4.498863E-005	0.0001585	11
	7	30	59859.37	1.764833	0.3591278	1	1.801002	11.50213	-6.20964E-005	0.000232	11
	8	33	47578.12	1.764846	0.2252972	1	1.779169	7.274931	-1.049916E-005	0.0002889	11
	9	35	37828.12	1.766747	0.1053397	1	1.769885	3.412136	-7.31735E-005	0.000267	11
	10	38	30046.88	1.771755	-0.0084479	1	1.771775	-0.2731887	-3.628217E-005	0.0003247	11
	11	41	23859.38	1.777759	-0.1218272	1	1.781929	-3.920266	-6.217456E-005	0.0003418	11
	12	43	18984.38	1.785381	-0.238669	1	1.801263	-7.614133	-5.436282E-005	0.0003692	11
	13	45	15046.87	1.794896	-0.3683881	1	1.83231	-11.59843	-7.784529E-005	0.0003302	11
	14	47	11953.13	1.809701	-0.5133275	1	1.881096	-15.83616	-9.983496E-006	0.0003331	11
	15	50	9515.62	1.826875	-0.6796899	1	1.949218	-20.40775	-3.252079E-005	0.0003877	11
	16	52	7546.875	1.849825	-0.8807302	1	2.048789	-25.45984	-9.162528E-005	0.0003412	11
	17	54	5928.309	1.883008	-1.13314	1	2.197664	-31.03833	-3.755934E-005	0.0003877	11
	18	57	4733.456	1.923148	-1.419711	1	2.390414	-36.43559	-8.06574E-005	0.0003578	11
	19	59	3796.875	1.974531	-1.760324	1	2.645281	-41.71749	-7.863309E-005	0.000361	11
	20	61	2987.132	2.05037	-2.213379	1	3.017128	-47.18943	-8.428272E-005	0.0003574	11
	21	64	2390.625	2.143906	-2.731486	1	3.47237	-51.87212	-1.704624E-005	0.0004018	11
	22	66	1884.191	2.283248	-3.409562	1	4.103454	-56.19135	-6.356739E-005	0.0003279	11
	23	68	1516.544	2.458219	-4.17058	1	4.841134	-59.4841	2.118633E-005	-0.0001431	10
	24	71	1193.986	2.722581	-5.191254	1	5.861874	-62.32499	-2.34295E-005	-0.0001219	10
	25	73	946.5144	3.083273	-6.40715	1	7.110425	-64.30203	2.026005E-005	-0.0001308	10
	26	75	751.7689	3.595588	-7.858054	1	8.641601	-65.41272	-1.826189E-006	-0.0001301	10
	27	78	597.4265	4.310987	-9.59186	1	10.51611	-65.79885	9.531233E-006	-0.0001378	10
	28	80	477.4305	5.288423	-11.58214	1	12.73237	-65.45848	8.331963E-007	-0.0001191	10
	29	82	376.6741	6.717155	-13.99894	1	15.52709	-64.36677	6.413555E-007	-0.0001245	10
	30	85	298.2954	8.646739	-16.66733	1	18.77674	-62.58046	1.033703E-006	-0.0001194	10
	31	87	237.7717	11.13519	-19.45712	1	22.41812	-60.21775	1.774209E-006	-0.0001148	10
	32	90	189.0121	14.36958	-22.34325	1	26.56512	-57.25377	1.564677E-006	-0.0001175	10
	33	92	150.2404	18.37218	-25.10372	1	31.10842	-53.80145	2.097828E-006	-0.0001214	10
	34	94	119.1737	23.15235	-27.53609	1	35.97593	-49.94287	2.328069E-006	-0.0001105	10
	35	97	95.0169	28.3762	-29.32527	1	40.80663	-45.94231	4.69898E-006	-0.000132	9
	36	99	75.60484	34.04539	-30.48244	1	45.69757	-41.83958	3.94959E-006	-0.0001381	9
	37	102	54.50582	42.27809	-30.84418	1	52.33355	-36.11279	6.064886E-006	-0.0001399	9
	38	104	45.95588	46.43455	-30.53518	1	55.57486	-33.32877	5.625703E-006	-0.0001336	9
	39	107	37.20238	51.27864	-29.77708	1	59.29733	-30.14338	3.588815E-006	-0.0001298	9
	40	109	30.04808	55.78026	-28.73598	1	62.74706	-27.25589	6.833177E-006	-0.0001328	9
	41	112	23.91582	60.18025	-27.47992	1	66.15746	-24.54271	6.284163E-006	-0.0001375	9
	42	114	18.60119	64.51491	-26.16767	1	69.61983	-22.0778	1.232921E-005	-0.0001783	9
	43	116	15.02404	67.81523	-25.16039	1	72.33222	-20.35555	8.035161E-006	-0.0001361	9
	44	118	12.01923	71.08386	-24.29249	1	75.12017	-18.86756	2.441214E-006	-0.0001343	9
	45	121	9.450605	74.2535	-23.56911	1	77.90434	-17.61017	1.224943E-005	-0.0001367	9
	46	123	7.512019	77.38106	-23.31522	1	80.81725	-16.76777	5.915993E-006	-0.0001222	9
	47	126	5.978954	80.35786	-23.26288	1	83.65732	-16.14525	7.973198E-006	-0.0001341	9
	48	129	4.734848	83.37984	-23.48281	1	86.62355	-15.72916	9.650565E-006	-0.0001087	9
	49	132	3.75601	86.57751	-23.95537	1	89.83054	-15.46638	-1.929156E-006	-0.0001467	9
	50	136	3.004808	89.8284	-24.65082	1	93.14937	-15.34542	-1.731291E-006	-0.0001185	9
	51	140	2.372217	93.33022	-25.65766	1	96.7928	-15.3716	-1.601568E-006	-9.475002E-005	9
	52	144	1.878005	97.2468	-26.96853	1	100.917	-15.49979	-3.458988E-006	-0.0001328	9
	53	148	1.512097	100.7622	-28.30178	1	104.6614	-15.68882	-1.578244E-006	-0.0001889	9
	54	154	1.201923	104.8442	-30.16517	1	109.0975	-16.05128	-1.640854E-006	-0.000134	9
	55	160	0.956633	109.3584	-32.24134	1	114.0121	-16.42671	-4.623491E-006	-0.0006737	9
