EXPLAIN
TAG	EISPOT
TITLE	LABEL	Potentiostatic EIS	Test Identifier
DATE	LABEL	10/12/2021	Date
TIME	LABEL	18:26:49	Time
NOTES	NOTES	1	Notes...
	
PSTAT	PSTAT	REF3000-16137	Potentiostat
VDC	POTEN	0.00000E+000	T	DC Voltage (V)
FREQINIT	QUANT	3.00000E+005	Initial Freq. (Hz)
FREQFINAL	QUANT	1.00000E+000	Final Freq. (Hz)
PTSPERDEC	QUANT	1.00000E+001	Points/decade
VAC	QUANT	5.00000E+001	AC Voltage (mV rms)
AREA	QUANT	1.00000E+000	Sample Area (cm^2)
SPEED	SELECTOR	2	Optimize for:
ZGUESS	QUANT	1.00000E+003	Estimated Z (ohms)
EOC	QUANT	0	Open Circuit (V)
SEQUENCER	TOGGLE	TRUE	Run as Sequence
PSTATMODEL	IQUANT	5	Pstat Model
PSTATSECTION	LABEL	REF3000-16137	Pstat Section
PSTATSERIALNO	LABEL	16137	Pstat Serial Number
CTRLMODE	IQUANT	1	Control Mode
IESTAB	IQUANT	0	I/E Stability
CASPEED	IQUANT	1	Control Amp Speed
CONVENTION	IQUANT	1	Current Convention
ICHRANGE	IQUANT	2	Ich Range
ICHRANGEMODE	TOGGLE	F	Ich Auto Range
ICHOFFSETENABLE	TOGGLE	T	Ich Offset Enable
ICHOFFSET	QUANT	0	Ich Offset (V)
ICHFILTER	IQUANT	3	Ich Filter
VCHRANGE	IQUANT	2	Vch Range
VCHRANGEMODE	TOGGLE	F	Vch Auto Range
VCHOFFSETENABLE	TOGGLE	T	Vch Offset Enable
VCHOFFSET	QUANT	0	Vch Offset (V)
VCHFILTER	IQUANT	3	Vch Filter
ACHRANGE	IQUANT	2	Ach Range
ACHOFFSETENABLE	TOGGLE	F	Ach Offset Enable
ACHOFFSET	QUANT	0	Ach Offset (V)
ACHFILTER	IQUANT	3	Ach Filter
IERANGELOWERLIMIT	IQUANT	2	I/E Range Lower Limit
IERANGEMODE	TOGGLE	F	I/E AutoRange
IERANGE	IQUANT	11	I/E Range
POSFEEDENABLE	TOGGLE	F	Positive Feedback IR Comp
POSFEEDRESISTANCE	QUANT	0	Positive Feedback Resistance (ohm)
ACHSELECT	IQUANT	0	Ach Select
CABLEID	IQUANT	13	Cable ID
DCCALDATE	LABEL	9/10/2021	DC Calibration Date
ACCALDATE	LABEL	9/10/2021	AC Calibration Date
THERMOSELECT	IQUANT	1	Thermo Select
FRAMEWORKVERSION	QUANT	6.33	Framework Version
INSTRUMENTVERSION	LABEL	3.50	Instrument Version
COMPLIANCEVOLTAGE	IQUANT	0	Compliance Voltage
ZCURVE	TABLE
	Pt	Time	Freq	Zreal	Zimag	Zsig	Zmod	Zphz	Idc	Vdc	IERange
	#	s	Hz	ohm	ohm	V	ohm	°	A	V	#
	0	10	300046.9	1.971766	2.375338	1	3.087085	50.30396	3.59752E-005	-0.0007059	11
	1	13	238359.4	1.921826	1.886635	1	2.693104	44.4706	3.308613E-005	-0.0004786	11
	2	16	189328.1	1.976443	1.354519	1	2.396048	34.42408	-6.534449E-006	-0.0008796	12
	3	20	150421.9	1.924976	1.067118	1	2.200971	29.00197	-3.189701E-005	-0.0004792	12
	4	24	119484.4	1.861268	0.9063364	1	2.070209	25.96357	-3.092622E-005	0.0001005	11
	5	26	94921.88	1.854216	0.6887548	1	1.978004	20.37768	-2.085381E-005	0.0001468	11
	6	29	75421.88	1.850518	0.5102389	1	1.919573	15.41501	-6.708822E-005	0.0001726	11
	7	31	59859.37	1.848055	0.3552148	1	1.881883	10.88014	-6.696322E-005	0.0001955	11
	8	34	47578.12	1.850298	0.2226724	1	1.863649	6.862205	-6.966229E-005	0.0002724	11
	9	36	37828.12	1.852123	0.1015599	1	1.854905	3.138632	-3.319639E-005	0.0002418	11
	10	39	30046.88	1.85708	-0.0132905	1	1.857128	-0.4100383	-6.323695E-005	0.0003303	11
	11	41	23859.38	1.862416	-0.1278789	1	1.866801	-3.92793	-1.962322E-005	0.0003693	11
	12	44	18984.38	1.869831	-0.2461716	1	1.885966	-7.500111	-8.276669E-005	0.0003248	11
	13	46	15046.87	1.880939	-0.3773721	1	1.918422	-11.34461	-4.641045E-005	0.0003793	11
	14	48	11953.13	1.893882	-0.5244676	1	1.965161	-15.47886	-1.731118E-005	0.0003952	11
	15	51	9515.62	1.910819	-0.6940192	1	2.032951	-19.96128	-6.045601E-005	0.0003409	11
	16	53	7546.875	1.934543	-0.8981633	1	2.132875	-24.90434	-2.877899E-005	0.0003943	11
	17	55	5928.309	1.965731	-1.15604	1	2.280467	-30.45965	-5.967478E-005	0.0003767	11
	18	57	4733.456	2.003913	-1.44799	1	2.472315	-35.85116	-1.710002E-005	0.0004052	11
	19	60	3796.875	2.052487	-1.795692	1	2.727126	-41.18222	-8.536311E-005	0.0003377	11
	20	62	2987.132	2.122964	-2.259552	1	3.100411	-46.78514	-3.961843E-005	0.0003706	11
	21	64	2390.625	2.209253	-2.790504	1	3.559173	-51.6312	-5.376045E-005	0.000377	11
	22	67	1884.191	2.338088	-3.489428	1	4.200329	-56.17598	1.711082E-005	-0.0001339	10
	23	69	1516.544	2.495113	-4.270073	1	4.945616	-59.70116	8.438135E-006	-0.0001455	10
	24	71	1193.986	2.730915	-5.325006	1	5.984446	-62.84911	1.104147E-006	-0.0001399	10
	25	74	946.5144	3.056276	-6.586868	1	7.261381	-65.10892	-1.458085E-005	-0.0001046	10
	26	76	751.7689	3.502894	-8.112346	1	8.836312	-66.64542	2.493983E-005	-0.0001336	10
	27	78	597.4265	4.134145	-9.95459	1	10.77891	-67.44686	2.189115E-005	-0.0001362	10
	28	81	477.4305	5.005083	-12.10922	1	13.10283	-67.54331	2.178155E-007	-0.0001095	10
	29	83	376.6741	6.292463	-14.78434	1	16.06772	-66.94458	1.475075E-007	-0.0001108	10
	30	85	298.2954	8.066039	-17.83682	1	19.57583	-65.6669	8.844105E-007	-0.000113	10
	31	88	237.7717	10.41699	-21.16777	1	23.59212	-63.79749	1.172147E-006	-0.0001116	10
	32	90	189.0121	13.58516	-24.81642	1	28.29154	-61.30254	9.72595E-007	-0.0001075	10
	33	93	150.2404	17.67743	-28.56672	1	33.59388	-58.25028	1.517613E-006	-0.0001174	10
	34	95	119.1737	22.82066	-32.21477	1	39.47878	-54.68658	3.006532E-006	-0.00011	10
	35	97	95.0169	28.76745	-35.31611	1	45.54991	-50.83477	3.044425E-006	-0.0001296	9
	36	100	75.60484	35.59447	-37.79363	1	51.91652	-46.71642	4.749995E-006	-0.0001317	9
	37	102	54.50582	46.18696	-39.71154	1	60.91175	-40.68893	4.521748E-006	-0.000136	9
	38	105	45.95588	51.82372	-39.95076	1	65.43517	-37.62853	7.393212E-006	-0.0001263	9
	39	107	37.20238	58.55116	-39.57315	1	70.67017	-34.0537	4.444116E-006	-0.0001727	9
	40	110	30.04808	65.04533	-38.54138	1	75.60644	-30.64806	6.281915E-006	-0.0001318	9
	41	112	23.91582	71.33957	-37.04898	1	80.38632	-27.44433	4.723657E-006	-0.0001294	9
	42	114	18.60119	77.60223	-35.20929	1	85.2162	-24.40451	3.069415E-006	-0.0001703	9
	43	117	15.02404	82.33385	-33.53025	1	88.89961	-22.15848	1.050136E-005	-0.0001168	9
	44	119	12.01923	86.78624	-32.0513	1	92.5156	-20.26985	1.859095E-006	-0.0001331	9
	45	122	9.450605	91.12549	-30.6995	1	96.1578	-18.61829	9.553649E-006	-0.0001258	9
	46	124	7.512019	95.1753	-29.85753	1	99.7487	-17.41722	7.552768E-006	-0.0001148	9
	47	127	5.978954	99.0267	-29.22251	1	103.2484	-16.44119	5.531177E-006	-0.0001295	9
	48	130	4.734848	102.7941	-29.05938	1	106.8226	-15.78534	8.899633E-006	-0.000099	9
	49	133	3.75601	106.7188	-29.18713	1	110.6382	-15.29608	-1.2539E-006	-0.000135	9
	50	136	3.004808	110.475	-29.51543	1	114.3498	-14.95825	3.320547E-006	-0.000141	9
	51	140	2.372217	114.7816	-30.32663	1	118.7204	-14.80001	-2.860297E-007	-0.0001301	9
	52	144	1.878005	119.3218	-31.47446	1	123.4031	-14.77679	-7.334772E-007	-0.000124	9
	53	149	1.512097	123.3842	-32.71652	1	127.6481	-14.85078	9.224523E-007	-0.0002094	9
	54	154	1.201923	128.1982	-34.54195	1	132.7702	-15.07976	-4.616513E-007	-0.0001271	9
	55	161	0.956633	133.4116	-36.60865	1	138.3432	-15.34449	-2.951134E-006	-0.0006746	9
