EXPLAIN
TAG	EISPOT
TITLE	LABEL	Potentiostatic EIS	Test Identifier
DATE	LABEL	10/12/2021	Date
TIME	LABEL	20:10:09	Time
NOTES	NOTES	1	Notes...
	
PSTAT	PSTAT	REF3000-16137	Potentiostat
VDC	POTEN	0.00000E+000	T	DC Voltage (V)
FREQINIT	QUANT	3.00000E+005	Initial Freq. (Hz)
FREQFINAL	QUANT	1.00000E+000	Final Freq. (Hz)
PTSPERDEC	QUANT	1.00000E+001	Points/decade
VAC	QUANT	5.00000E+001	AC Voltage (mV rms)
AREA	QUANT	1.00000E+000	Sample Area (cm^2)
SPEED	SELECTOR	2	Optimize for:
ZGUESS	QUANT	1.00000E+003	Estimated Z (ohms)
EOC	QUANT	0	Open Circuit (V)
SEQUENCER	TOGGLE	TRUE	Run as Sequence
PSTATMODEL	IQUANT	5	Pstat Model
PSTATSECTION	LABEL	REF3000-16137	Pstat Section
PSTATSERIALNO	LABEL	16137	Pstat Serial Number
CTRLMODE	IQUANT	1	Control Mode
IESTAB	IQUANT	0	I/E Stability
CASPEED	IQUANT	1	Control Amp Speed
CONVENTION	IQUANT	1	Current Convention
ICHRANGE	IQUANT	2	Ich Range
ICHRANGEMODE	TOGGLE	F	Ich Auto Range
ICHOFFSETENABLE	TOGGLE	T	Ich Offset Enable
ICHOFFSET	QUANT	0	Ich Offset (V)
ICHFILTER	IQUANT	3	Ich Filter
VCHRANGE	IQUANT	2	Vch Range
VCHRANGEMODE	TOGGLE	F	Vch Auto Range
VCHOFFSETENABLE	TOGGLE	T	Vch Offset Enable
VCHOFFSET	QUANT	0	Vch Offset (V)
VCHFILTER	IQUANT	3	Vch Filter
ACHRANGE	IQUANT	2	Ach Range
ACHOFFSETENABLE	TOGGLE	F	Ach Offset Enable
ACHOFFSET	QUANT	0	Ach Offset (V)
ACHFILTER	IQUANT	3	Ach Filter
IERANGELOWERLIMIT	IQUANT	2	I/E Range Lower Limit
IERANGEMODE	TOGGLE	F	I/E AutoRange
IERANGE	IQUANT	11	I/E Range
POSFEEDENABLE	TOGGLE	F	Positive Feedback IR Comp
POSFEEDRESISTANCE	QUANT	0	Positive Feedback Resistance (ohm)
ACHSELECT	IQUANT	0	Ach Select
CABLEID	IQUANT	13	Cable ID
DCCALDATE	LABEL	9/10/2021	DC Calibration Date
ACCALDATE	LABEL	9/10/2021	AC Calibration Date
THERMOSELECT	IQUANT	1	Thermo Select
FRAMEWORKVERSION	QUANT	6.33	Framework Version
INSTRUMENTVERSION	LABEL	3.50	Instrument Version
COMPLIANCEVOLTAGE	IQUANT	0	Compliance Voltage
ZCURVE	TABLE
	Pt	Time	Freq	Zreal	Zimag	Zsig	Zmod	Zphz	Idc	Vdc	IERange
	#	s	Hz	ohm	ohm	V	ohm	°	A	V	#
	0	17	300046.9	2025.925	-2202.043	1	2992.218	-47.3853	1.130993E-006	-0.0021934	9
	1	34	238359.4	2485.46	-2400.9	1	3455.696	-44.00859	-0.0000975	0.002073	9
	2	55	189328.1	3167.674	-2451.533	1	4005.518	-37.73708	8.060953E-005	-0.0037653	9
	3	65	150421.9	3420.071	-2660.321	1	4332.919	-37.87776	1.807681E-005	-0.0006248	9
	4	74	119484.4	4104.818	-2348.305	1	4729.066	-29.77323	-7.280253E-005	0.0334	8
	5	82	94921.88	4619.495	-2333.819	1	5175.562	-26.8034	1.49332E-005	-0.0096896	8
	6	89	75421.88	5126.81	-2260.427	1	5603.009	-23.79284	1.8486E-005	-0.0011105	8
	7	97	59859.37	5563.964	-2140.134	1	5961.365	-21.03884	-1.113462E-007	0.0062465	8
	8	104	47578.12	6563.771	-1420.407	1	6715.701	-12.21058	-2.806897E-006	-0.0064157	7
	9	110	37828.12	6736.341	-1311.642	1	6862.849	-11.01827	5.845824E-006	-0.008823	7
	10	114	30046.88	6921.91	-1164.19	1	7019.129	-9.54718	5.869553E-006	-0.0088435	7
	11	116	23859.38	7176.276	-1029.473	1	7249.741	-8.163675	4.295453E-006	-0.0003607	7
	12	121	18984.38	7355.109	-915.2441	1	7411.835	-7.093225	5.887106E-006	-0.0087625	7
	13	124	15046.87	7541.639	-801.0966	1	7584.067	-6.063401	6.951248E-006	-0.0169402	7
	14	127	11953.13	7725.707	-723.7045	1	7759.529	-5.351557	7.019564E-006	-0.0223349	7
	15	131	9515.62	7896.049	-618.541	1	7920.239	-4.479147	-2.748122E-006	-0.0064944	7
	16	135	7546.875	8060.548	-528.9214	1	8077.883	-3.754283	-6.72646E-006	0.0159701	7
	17	138	5928.309	8201.832	-486.9201	1	8216.272	-3.397504	6.427883E-006	-0.0251939	7
	18	142	4733.456	8372.161	-421.9263	1	8382.786	-2.885057	5.944597E-006	-0.0090779	7
	19	147	3796.875	8499.417	-368.9824	1	8507.423	-2.485802	-4.66449E-006	0.0017162	7
	20	150	2987.132	8646.86	-329.1648	1	8653.123	-2.180057	-6.703529E-006	0.0205884	7
	21	155	2390.625	8935.816	-398.4743	1	8944.696	-2.553296	-1.020124E-005	0.0089749	8
	22	163	1884.191	9105.802	-299.345	1	9110.721	-1.882869	-6.807892E-006	0.0163475	7
	23	167	1516.544	9316.265	-373.5036	1	9323.749	-2.295848	6.483897E-006	-0.0255192	7
	24	171	1193.986	9449.022	-361.9935	1	9455.954	-2.193937	4.425566E-006	-0.0005796	7
	25	176	946.5144	9673.75	-395.7829	1	9681.84	-2.342841	2.364525E-007	0.0148216	7
	26	178	751.7689	9793.94	-443.9005	1	9803.99	-2.595098	7.216682E-006	-0.0230305	7
	27	181	597.4265	9975.57	-481.8888	1	9987.2	-2.765632	-3.646627E-006	0.0231475	7
	28	184	477.4305	10078.92	-524.2018	1	10092.54	-2.977255	-6.224329E-008	-6.954721E-005	7
	29	186	376.6741	10239.46	-591.5944	1	10256.54	-3.30664	-6.377634E-008	-8.882637E-005	7
	30	188	298.2954	10421.85	-665.984	1	10443.11	-3.65638	-7.033732E-008	-6.076261E-005	7
	31	191	237.7717	10618.61	-744.23	1	10644.66	-4.009152	-5.239529E-008	-0.0001499	7
	32	193	189.0121	10846.09	-825.216	1	10877.44	-4.35092	-5.983079E-008	-5.247266E-005	7
	33	196	150.2404	11083.19	-902.6496	1	11119.88	-4.656072	-5.462556E-008	-0.0001086	7
	34	198	119.1737	11353.37	-973.655	1	11395.05	-4.901643	-4.805691E-008	-0.0001323	7
	35	200	95.0169	11624.34	-1022.317	1	11669.21	-5.026016	-4.968421E-008	-0.0001172	7
	36	203	75.60484	11917.68	-1064.74	1	11965.15	-5.105317	-4.311925E-008	-0.0001504	7
	37	205	54.50582	12270.97	-1103.836	1	12320.52	-5.140212	-6.384852E-008	-6.225783E-005	7
	38	208	45.95588	12510.87	-1128.42	1	12561.66	-5.153857	-7.931826E-008	-6.666769E-005	7
	39	210	37.20238	12756.6	-1158.279	1	12809.08	-5.188142	-9.729411E-008	-4.658422E-005	7
	40	213	30.04808	13019.53	-1193.877	1	13074.15	-5.239312	-8.919714E-008	-5.207564E-005	7
	41	215	23.91582	13267.21	-1247.393	1	13325.72	-5.371202	-1.081935E-007	-5.530074E-005	7
	42	218	18.60119	13513.88	-1362.748	1	13582.42	-5.758275	-1.227628E-007	-0.0001463	7
	43	220	15.02404	13765.38	-1463.72	1	13842.98	-6.069647	-5.184482E-008	-7.590977E-005	7
	44	222	12.01923	14036.1	-1593.358	1	14126.25	-6.476411	-1.451035E-007	-6.908709E-005	7
	45	225	9.450605	14275.69	-1837.256	1	14393.43	-7.333555	-2.098268E-008	-0.0001393	7
	46	227	7.512019	14516.21	-2089.89	1	14665.88	-8.192544	3.388883E-008	-6.545419E-005	7
	47	230	5.978954	14837.15	-2434.223	1	15035.5	-9.3171	-4.098549E-009	-5.959037E-005	7
	48	233	4.734848	15225.11	-2867.445	1	15492.78	-10.66595	-8.034353E-008	-9.302308E-005	7
	49	236	3.75601	15588.32	-3429.054	1	15961.02	-12.4061	-1.054124E-008	-3.4818E-005	7
	50	240	3.004808	16019.46	-4046.717	1	16522.68	-14.17704	-2.68796E-008	-0.0001191	7
	51	243	2.372217	16467.6	-4860.97	1	17170.06	-16.44575	-4.815144E-008	-0.0001692	7
	52	248	1.878005	17013.92	-5908.739	1	18010.74	-19.15153	-4.102617E-008	-0.0000967	7
	53	252	1.512097	17631.27	-7085.539	1	19001.75	-21.89388	-4.461253E-008	-0.0001566	7
	54	258	1.201923	18389.85	-8607.567	1	20304.6	-25.08245	-5.895312E-008	-7.731718E-005	7
	55	264	0.956633	19281.52	-10533.2	1	21971.01	-28.6471	-6.832693E-008	-0.0006473	7
