EXPLAIN
TAG	EISPOT
TITLE	LABEL	Potentiostatic EIS	Test Identifier
DATE	LABEL	10/12/2021	Date
TIME	LABEL	19:57:41	Time
NOTES	NOTES	1	Notes...
	
PSTAT	PSTAT	REF3000-16137	Potentiostat
VDC	POTEN	0.00000E+000	T	DC Voltage (V)
FREQINIT	QUANT	3.00000E+005	Initial Freq. (Hz)
FREQFINAL	QUANT	1.00000E+000	Final Freq. (Hz)
PTSPERDEC	QUANT	1.00000E+001	Points/decade
VAC	QUANT	5.00000E+001	AC Voltage (mV rms)
AREA	QUANT	1.00000E+000	Sample Area (cm^2)
SPEED	SELECTOR	2	Optimize for:
ZGUESS	QUANT	1.00000E+003	Estimated Z (ohms)
EOC	QUANT	0	Open Circuit (V)
SEQUENCER	TOGGLE	TRUE	Run as Sequence
PSTATMODEL	IQUANT	5	Pstat Model
PSTATSECTION	LABEL	REF3000-16137	Pstat Section
PSTATSERIALNO	LABEL	16137	Pstat Serial Number
CTRLMODE	IQUANT	1	Control Mode
IESTAB	IQUANT	0	I/E Stability
CASPEED	IQUANT	1	Control Amp Speed
CONVENTION	IQUANT	1	Current Convention
ICHRANGE	IQUANT	2	Ich Range
ICHRANGEMODE	TOGGLE	F	Ich Auto Range
ICHOFFSETENABLE	TOGGLE	T	Ich Offset Enable
ICHOFFSET	QUANT	0	Ich Offset (V)
ICHFILTER	IQUANT	3	Ich Filter
VCHRANGE	IQUANT	2	Vch Range
VCHRANGEMODE	TOGGLE	F	Vch Auto Range
VCHOFFSETENABLE	TOGGLE	T	Vch Offset Enable
VCHOFFSET	QUANT	0	Vch Offset (V)
VCHFILTER	IQUANT	3	Vch Filter
ACHRANGE	IQUANT	2	Ach Range
ACHOFFSETENABLE	TOGGLE	F	Ach Offset Enable
ACHOFFSET	QUANT	0	Ach Offset (V)
ACHFILTER	IQUANT	3	Ach Filter
IERANGELOWERLIMIT	IQUANT	2	I/E Range Lower Limit
IERANGEMODE	TOGGLE	F	I/E AutoRange
IERANGE	IQUANT	11	I/E Range
POSFEEDENABLE	TOGGLE	F	Positive Feedback IR Comp
POSFEEDRESISTANCE	QUANT	0	Positive Feedback Resistance (ohm)
ACHSELECT	IQUANT	0	Ach Select
CABLEID	IQUANT	13	Cable ID
DCCALDATE	LABEL	9/10/2021	DC Calibration Date
ACCALDATE	LABEL	9/10/2021	AC Calibration Date
THERMOSELECT	IQUANT	1	Thermo Select
FRAMEWORKVERSION	QUANT	6.33	Framework Version
INSTRUMENTVERSION	LABEL	3.50	Instrument Version
COMPLIANCEVOLTAGE	IQUANT	0	Compliance Voltage
ZCURVE	TABLE
	Pt	Time	Freq	Zreal	Zimag	Zsig	Zmod	Zphz	Idc	Vdc	IERange
	#	s	Hz	ohm	ohm	V	ohm	°	A	V	#
	0	18	300046.9	483.1023	-108.6656	1	495.1728	-12.67673	6.128583E-005	-0.0005185	9
	1	31	238359.4	514.8824	-108.7358	1	526.239	-11.92483	-3.199427E-005	-0.0009945	9
	2	46	189328.1	541.6054	-112.6911	1	553.205	-11.75375	1.887606E-005	-0.0012009	9
	3	54	150421.9	574.263	-104.096	1	583.6215	-10.27438	-3.534828E-005	-0.0008487	9
	4	63	119484.4	601.203	-76.23094	1	606.0167	-7.226389	5.937454E-006	-0.0059038	8
	5	69	94921.88	620.0179	-67.51952	1	623.6835	-6.21498	1.245862E-005	-0.0068251	8
	6	72	75421.88	632.8984	-63.09589	1	636.0357	-5.693209	1.776623E-005	-0.0060399	8
	7	74	59859.37	646.7825	-54.47164	1	649.0722	-4.814056	-4.530106E-006	0.0054083	8
	8	77	47578.12	655.5399	-48.30042	1	657.3169	-4.213959	-3.422678E-006	-0.0029192	8
	9	79	37828.12	664.2197	-39.94348	1	665.4197	-3.441391	-1.513986E-005	0.0024638	8
	10	82	30046.88	675.1986	-40.29649	1	676.4	-3.415415	1.417047E-005	-0.001526	8
	11	85	23859.38	682.5757	-35.45411	1	683.4958	-2.973365	-3.759737E-006	-0.0029102	8
	12	87	18984.38	690.2617	-30.08794	1	690.9171	-2.495896	-1.713454E-005	0.0051854	8
	13	89	15046.87	697.7689	-28.26113	1	698.3409	-2.319334	-9.520181E-006	-0.0007048	8
	14	92	11953.13	702.2665	-26.33608	1	702.7602	-2.147674	-1.439191E-005	0.001448	8
	15	94	9515.62	710.2635	-25.69114	1	710.728	-2.071559	1.724337E-006	0.0032557	8
	16	97	7546.875	715.982	-25.92227	1	716.4511	-2.073499	-1.691574E-005	0.0039257	8
	17	100	5928.309	722.571	-27.55646	1	723.0963	-2.184012	8.990352E-006	0.0008885	8
	18	102	4733.456	728.657	-27.95319	1	729.193	-2.196939	-1.557978E-005	0.00258	8
	19	105	3796.875	740.1254	-26.52981	1	740.6007	-2.05289	-1.727373E-005	0.005271	8
	20	107	2987.132	747.1677	-34.97377	1	747.9858	-2.679971	8.724643E-006	0.0010007	8
	21	110	2390.625	753.7808	-35.45865	1	754.6144	-2.693269	1.341081E-005	-0.0069849	8
	22	112	1884.191	760.398	-37.76237	1	761.3351	-2.843049	8.404989E-006	-0.0062794	8
	23	115	1516.544	773.8524	-46.00348	1	775.2186	-3.402079	1.851688E-005	-0.0062142	8
	24	117	1193.986	784.632	-46.91771	1	786.0335	-3.421973	2.220488E-006	0.0035476	8
	25	120	946.5144	794.3019	-54.85466	1	796.1938	-3.950587	1.927763E-006	0.0035033	8
	26	122	751.7689	809.434	-63.91253	1	811.9534	-4.514681	8.732246E-006	-0.0064535	8
	27	125	597.4265	824.8903	-68.38099	1	827.7197	-4.738817	9.092044E-006	0.0009883	8
	28	128	477.4305	836.7336	-77.35492	1	840.3016	-5.281906	-8.219623E-008	-0.0001049	8
	29	130	376.6741	851.7971	-85.57668	1	856.085	-5.73703	-7.335136E-008	-0.0001121	8
	30	132	298.2954	867.39	-94.57403	1	872.5306	-6.222543	-3.09677E-008	-0.000162	8
	31	135	237.7717	883.425	-104.4987	1	889.584	-6.746066	-8.299243E-008	-0.0001204	8
	32	137	189.0121	900.012	-116.1206	1	907.4721	-7.351754	-6.482155E-008	-0.0001368	8
	33	140	150.2404	916.9902	-129.8926	1	926.1442	-8.062368	-7.923452E-008	-0.0001269	8
	34	142	119.1737	934.5999	-146.6067	1	946.0287	-8.915092	-8.490787E-008	-0.0001112	8
	35	144	95.0169	952.446	-166.4561	1	966.882	-9.91329	-8.010231E-008	-0.0001051	8
	36	147	75.60484	971.253	-190.9113	1	989.838	-11.12039	-5.23507E-008	-0.0001312	8
	37	149	54.50582	996.618	-235.6884	1	1024.108	-13.30533	-6.990992E-008	-0.0001245	8
	38	152	45.95588	1013.332	-265.2802	1	1047.481	-14.67024	-1.064636E-007	-0.0001061	8
	39	154	37.20238	1033.046	-308.7261	1	1078.191	-16.6388	-5.622963E-008	-0.0001259	8
	40	157	30.04808	1054.305	-362.3947	1	1114.85	-18.9693	-6.934071E-008	-0.0001073	8
	41	159	23.91582	1077.908	-432.552	1	1161.459	-21.86501	-4.694546E-008	-0.00011	8
	42	162	18.60119	1104.823	-529.9068	1	1225.33	-25.6238	-9.003565E-008	-0.0001061	8
	43	164	15.02404	1131.247	-631.9178	1	1295.777	-29.18786	-1.250068E-007	-0.000107	8
	44	166	12.01923	1161.423	-763.5689	1	1389.942	-33.32263	-1.873935E-008	-0.0001663	8
	45	169	9.450605	1197.462	-939.0594	1	1521.758	-38.10382	-1.171038E-007	-0.0000959	8
	46	171	7.512019	1237.14	-1148.299	1	1687.929	-42.86711	-6.715359E-008	-0.0001098	8
	47	174	5.978954	1282.423	-1405.6	1	1902.714	-47.6237	-1.037372E-007	-0.00011	8
	48	177	4.734848	1338.576	-1733.273	1	2189.982	-52.32172	-3.60079E-008	-0.0001206	8
	49	180	3.75601	1401.96	-2136.632	1	2555.521	-56.72894	-1.174441E-007	-0.0001187	8
	50	184	3.004808	1476.558	-2614.883	1	3002.971	-60.54768	-6.750598E-008	-9.149622E-005	8
	51	187	2.372217	1575.074	-3247.509	1	3609.318	-64.12615	-7.263714E-008	-3.866344E-005	8
	52	192	1.878005	1690.091	-4036.22	1	4375.783	-67.27942	-2.615086E-008	-0.0001297	7
	53	196	1.512097	1827.688	-4929.052	1	5256.995	-69.65527	-1.576371E-008	-5.794818E-007	7
	54	202	1.201923	1996.874	-6104.833	1	6423.122	-71.88723	-1.613263E-008	-0.0001192	7
	55	208	0.956633	2206.078	-7545.636	1	7861.514	-73.70294	-3.224087E-008	-0.0006525	7
