EXPLAIN
TAG	EISPOT
TITLE	LABEL	Potentiostatic EIS	Test Identifier
DATE	LABEL	10/12/2021	Date
TIME	LABEL	18:23:58	Time
NOTES	NOTES	1	Notes...
	
PSTAT	PSTAT	REF3000-16137	Potentiostat
VDC	POTEN	0.00000E+000	T	DC Voltage (V)
FREQINIT	QUANT	3.00000E+005	Initial Freq. (Hz)
FREQFINAL	QUANT	1.00000E+000	Final Freq. (Hz)
PTSPERDEC	QUANT	1.00000E+001	Points/decade
VAC	QUANT	5.00000E+001	AC Voltage (mV rms)
AREA	QUANT	1.00000E+000	Sample Area (cm^2)
SPEED	SELECTOR	2	Optimize for:
ZGUESS	QUANT	1.00000E+003	Estimated Z (ohms)
EOC	QUANT	0	Open Circuit (V)
SEQUENCER	TOGGLE	TRUE	Run as Sequence
PSTATMODEL	IQUANT	5	Pstat Model
PSTATSECTION	LABEL	REF3000-16137	Pstat Section
PSTATSERIALNO	LABEL	16137	Pstat Serial Number
CTRLMODE	IQUANT	1	Control Mode
IESTAB	IQUANT	0	I/E Stability
CASPEED	IQUANT	1	Control Amp Speed
CONVENTION	IQUANT	1	Current Convention
ICHRANGE	IQUANT	2	Ich Range
ICHRANGEMODE	TOGGLE	F	Ich Auto Range
ICHOFFSETENABLE	TOGGLE	T	Ich Offset Enable
ICHOFFSET	QUANT	0	Ich Offset (V)
ICHFILTER	IQUANT	3	Ich Filter
VCHRANGE	IQUANT	2	Vch Range
VCHRANGEMODE	TOGGLE	F	Vch Auto Range
VCHOFFSETENABLE	TOGGLE	T	Vch Offset Enable
VCHOFFSET	QUANT	0	Vch Offset (V)
VCHFILTER	IQUANT	3	Vch Filter
ACHRANGE	IQUANT	2	Ach Range
ACHOFFSETENABLE	TOGGLE	F	Ach Offset Enable
ACHOFFSET	QUANT	0	Ach Offset (V)
ACHFILTER	IQUANT	3	Ach Filter
IERANGELOWERLIMIT	IQUANT	2	I/E Range Lower Limit
IERANGEMODE	TOGGLE	F	I/E AutoRange
IERANGE	IQUANT	11	I/E Range
POSFEEDENABLE	TOGGLE	F	Positive Feedback IR Comp
POSFEEDRESISTANCE	QUANT	0	Positive Feedback Resistance (ohm)
ACHSELECT	IQUANT	0	Ach Select
CABLEID	IQUANT	13	Cable ID
DCCALDATE	LABEL	9/10/2021	DC Calibration Date
ACCALDATE	LABEL	9/10/2021	AC Calibration Date
THERMOSELECT	IQUANT	1	Thermo Select
FRAMEWORKVERSION	QUANT	6.33	Framework Version
INSTRUMENTVERSION	LABEL	3.50	Instrument Version
COMPLIANCEVOLTAGE	IQUANT	0	Compliance Voltage
ZCURVE	TABLE
	Pt	Time	Freq	Zreal	Zimag	Zsig	Zmod	Zphz	Idc	Vdc	IERange
	#	s	Hz	ohm	ohm	V	ohm	°	A	V	#
	0	11	300046.9	1.916632	2.382782	1	3.057962	51.18795	-7.54027E-005	-0.0006474	11
	1	14	238359.4	1.883396	1.888541	1	2.667165	45.07816	-2.562842E-005	-0.0005971	11
	2	17	189328.1	1.936983	1.360983	1	2.367315	35.09303	-0.0001053	-0.0007348	12
	3	21	150421.9	1.881359	1.065719	1	2.162237	29.52993	-0.0001422	-0.0006408	12
	4	24	119484.4	1.817256	0.9096709	1	2.03222	26.59135	-6.273944E-005	3.060322E-005	11
	5	27	94921.88	1.80942	0.6917501	1	1.937142	20.9221	-2.430664E-005	0.0001496	11
	6	29	75421.88	1.806341	0.5113673	1	1.877329	15.80659	-1.854535E-005	0.0001277	11
	7	32	59859.37	1.803613	0.3568318	1	1.838573	11.19104	-7.577113E-005	0.0001933	11
	8	34	47578.12	1.805335	0.224152	1	1.819198	7.077672	-2.006479E-005	0.0002981	11
	9	37	37828.12	1.807868	0.10337	1	1.810821	3.272487	-2.903274E-005	0.0003172	11
	10	39	30046.88	1.812307	-0.01083	1	1.812339	-0.3423859	-6.381506E-005	0.0003361	11
	11	42	23859.38	1.818285	-0.1247355	1	1.822559	-3.924379	-7.279092E-005	0.0003431	11
	12	44	18984.38	1.825414	-0.2426483	1	1.841471	-7.571811	-5.515175E-005	0.0003582	11
	13	47	15046.87	1.836468	-0.3729334	1	1.873951	-11.47902	-7.028329E-005	0.0003672	11
	14	49	11953.13	1.849473	-0.5192487	1	1.920982	-15.68235	-4.080129E-005	0.0003851	11
	15	51	9515.62	1.867427	-0.6868885	1	1.989749	-20.19484	-5.452684E-005	0.0003941	11
	16	54	7546.875	1.88967	-0.8892348	1	2.088442	-25.20058	-2.608379E-005	0.0003695	11
	17	56	5928.309	1.921899	-1.144617	1	2.236928	-30.77658	-4.871474E-005	0.0003606	11
	18	58	4733.456	1.96153	-1.433834	1	2.429708	-36.16597	-3.292699E-005	0.0003934	11
	19	60	3796.875	2.012794	-1.777022	1	2.684985	-41.44011	-3.555214E-005	0.0003907	11
	20	63	2987.132	2.08413	-2.236048	1	3.056715	-47.01397	-5.509683E-005	0.0003522	11
	21	65	2390.625	2.177334	-2.759126	1	3.514763	-51.72166	-5.474552E-005	0.0003835	11
	22	67	1884.191	2.309374	-3.451129	1	4.15253	-56.21096	-1.230799E-005	-0.0001605	10
	23	70	1516.544	2.474038	-4.220881	1	4.892515	-59.62362	1.517119E-005	-0.0001529	10
	24	72	1193.986	2.723516	-5.258485	1	5.921926	-62.6191	2.432273E-005	-0.0001293	10
	25	75	946.5144	3.062218	-6.50176	1	7.186797	-64.78036	1.93445E-005	-0.0001222	10
	26	77	751.7689	3.548159	-7.990216	1	8.742596	-66.05576	-7.135647E-006	-0.0001299	10
	27	79	597.4265	4.220266	-9.78058	1	10.65225	-66.66006	-2.351687E-005	-0.00012	10
	28	81	477.4305	5.145046	-11.85315	1	12.92163	-66.53598	-3.4204E-007	-0.000107	10
	29	84	376.6741	6.50706	-14.40314	1	15.80481	-65.68746	-2.847739E-007	-0.0001176	10
	30	86	298.2954	8.365679	-17.26758	1	19.18734	-64.15105	1.10487E-006	-0.0001164	10
	31	88	237.7717	10.79893	-20.33097	1	23.02097	-62.02469	1.08231E-006	-0.0001162	10
	32	91	189.0121	14.0186	-23.59361	1	27.44412	-59.28252	2.103696E-006	-0.0001087	10
	33	93	150.2404	18.09611	-26.8386	1	32.36943	-56.00991	1.8851E-006	-0.0001117	10
	34	96	119.1737	23.08988	-29.84782	1	37.73639	-52.27494	3.401322E-006	-0.0001169	10
	35	98	95.0169	28.70048	-32.23993	1	43.164	-48.32403	3.742535E-006	-0.0001311	9
	36	101	75.60484	34.95446	-33.98045	1	48.74921	-44.1905	4.170665E-006	-0.0001354	9
	37	103	54.50582	44.32702	-34.98384	1	56.46905	-38.28127	4.796823E-006	-0.0001348	9
	38	106	45.95588	49.17498	-34.88435	1	60.29176	-35.3516	7.603901E-006	-0.0001336	9
	39	108	37.20238	54.89614	-34.2365	1	64.69717	-31.95012	4.371856E-006	-0.0001278	9
	40	110	30.04808	60.29007	-33.15885	1	68.80699	-28.81029	3.908023E-006	-0.0001288	9
	41	113	23.91582	65.48698	-31.77255	1	72.78764	-25.88143	7.127527E-006	-0.0001351	9
	42	115	18.60119	70.66148	-30.23501	1	76.85831	-23.16537	6.41488E-007	-0.0001261	9
	43	117	15.02404	74.57716	-28.85	1	79.96297	-21.14885	7.592749E-006	-0.0001232	9
	44	120	12.01923	78.35387	-27.63696	1	83.08508	-19.42875	1.132682E-005	-0.0001326	9
	45	122	9.450605	82.13525	-26.77134	1	86.38811	-18.05297	2.70753E-006	-0.000133	9
	46	125	7.512019	85.55717	-26.22973	1	89.48759	-17.04426	-2.833074E-007	-0.0001438	9
	47	127	5.978954	88.95583	-25.90452	1	92.65087	-16.23591	1.125458E-006	-0.0001289	9
	48	130	4.734848	92.32764	-25.87559	1	95.885	-15.65597	8.701279E-007	-0.000145	9
	49	134	3.75601	95.7598	-26.20783	1	99.2814	-15.30607	6.015247E-006	-0.0001144	9
	50	137	3.004808	99.2397	-26.90882	1	102.8232	-15.17095	9.823221E-006	-0.0001639	9
	51	141	2.372217	103.0624	-27.64726	1	106.7063	-15.01648	3.429564E-006	-0.0002009	9
	52	145	1.878005	107.1675	-29.0621	1	111.0382	-15.17278	8.104434E-006	-0.0001206	9
	53	150	1.512097	111.0125	-30.45681	1	115.1147	-15.34188	9.245684E-006	-0.0001734	9
	54	155	1.201923	115.3509	-32.11617	1	119.7384	-15.55834	4.757628E-006	-0.0001009	9
	55	161	0.956633	120.3536	-34.20355	1	125.1195	-15.86473	-4.071117E-006	-0.0006703	9
