EXPLAIN
TAG	EISPOT
TITLE	LABEL	Potentiostatic EIS	Test Identifier
DATE	LABEL	10/12/2021	Date
TIME	LABEL	19:01:42	Time
NOTES	NOTES	1	Notes...
	
PSTAT	PSTAT	REF3000-16137	Potentiostat
VDC	POTEN	0.00000E+000	T	DC Voltage (V)
FREQINIT	QUANT	3.00000E+005	Initial Freq. (Hz)
FREQFINAL	QUANT	1.00000E+000	Final Freq. (Hz)
PTSPERDEC	QUANT	1.00000E+001	Points/decade
VAC	QUANT	5.00000E+001	AC Voltage (mV rms)
AREA	QUANT	1.00000E+000	Sample Area (cm^2)
SPEED	SELECTOR	2	Optimize for:
ZGUESS	QUANT	1.00000E+003	Estimated Z (ohms)
EOC	QUANT	0	Open Circuit (V)
SEQUENCER	TOGGLE	TRUE	Run as Sequence
PSTATMODEL	IQUANT	5	Pstat Model
PSTATSECTION	LABEL	REF3000-16137	Pstat Section
PSTATSERIALNO	LABEL	16137	Pstat Serial Number
CTRLMODE	IQUANT	1	Control Mode
IESTAB	IQUANT	0	I/E Stability
CASPEED	IQUANT	1	Control Amp Speed
CONVENTION	IQUANT	1	Current Convention
ICHRANGE	IQUANT	2	Ich Range
ICHRANGEMODE	TOGGLE	F	Ich Auto Range
ICHOFFSETENABLE	TOGGLE	T	Ich Offset Enable
ICHOFFSET	QUANT	0	Ich Offset (V)
ICHFILTER	IQUANT	3	Ich Filter
VCHRANGE	IQUANT	2	Vch Range
VCHRANGEMODE	TOGGLE	F	Vch Auto Range
VCHOFFSETENABLE	TOGGLE	T	Vch Offset Enable
VCHOFFSET	QUANT	0	Vch Offset (V)
VCHFILTER	IQUANT	3	Vch Filter
ACHRANGE	IQUANT	2	Ach Range
ACHOFFSETENABLE	TOGGLE	F	Ach Offset Enable
ACHOFFSET	QUANT	0	Ach Offset (V)
ACHFILTER	IQUANT	3	Ach Filter
IERANGELOWERLIMIT	IQUANT	2	I/E Range Lower Limit
IERANGEMODE	TOGGLE	F	I/E AutoRange
IERANGE	IQUANT	11	I/E Range
POSFEEDENABLE	TOGGLE	F	Positive Feedback IR Comp
POSFEEDRESISTANCE	QUANT	0	Positive Feedback Resistance (ohm)
ACHSELECT	IQUANT	0	Ach Select
CABLEID	IQUANT	13	Cable ID
DCCALDATE	LABEL	9/10/2021	DC Calibration Date
ACCALDATE	LABEL	9/10/2021	AC Calibration Date
THERMOSELECT	IQUANT	1	Thermo Select
FRAMEWORKVERSION	QUANT	6.33	Framework Version
INSTRUMENTVERSION	LABEL	3.50	Instrument Version
COMPLIANCEVOLTAGE	IQUANT	0	Compliance Voltage
ZCURVE	TABLE
	Pt	Time	Freq	Zreal	Zimag	Zsig	Zmod	Zphz	Idc	Vdc	IERange
	#	s	Hz	ohm	ohm	V	ohm	°	A	V	#
	0	10	300046.9	3.330375	2.403358	1	4.10701	35.81602	-0.0001029	-0.0009586	10
	1	13	238359.4	3.307406	1.896843	1	3.812735	29.83486	3.440201E-005	-0.0011695	10
	2	16	189328.1	3.292242	1.496972	1	3.616598	24.45115	-1.272504E-005	-0.0009173	10
	3	19	150421.9	3.276934	1.162113	1	3.476895	19.52625	-1.129959E-005	-0.000712	10
	4	21	119484.4	3.306979	0.7429161	1	3.389401	12.66135	-4.86813E-005	-0.0004217	12
	5	25	94921.88	3.275149	0.6646158	1	3.341902	11.47109	-5.810689E-005	0.0002718	11
	6	27	75421.88	3.274775	0.4841865	1	3.310375	8.410442	-5.036633E-005	0.0002734	11
	7	30	59859.37	3.276738	0.328973	1	3.293211	5.733085	-9.071225E-005	0.0002762	11
	8	32	47578.12	3.282424	0.1928489	1	3.288084	3.362375	-7.298879E-005	0.0003291	11
	9	35	37828.12	3.287026	0.0675796	1	3.28772	1.177807	-7.103619E-005	0.000294	11
	10	37	30046.88	3.295887	-0.0527876	1	3.29631	-0.917582	-2.819446E-005	0.0003749	11
	11	40	23859.38	3.305311	-0.1746178	1	3.30992	-3.024094	-3.351041E-005	0.0003711	11
	12	42	18984.38	3.316871	-0.3021604	1	3.330606	-5.205165	-6.785213E-005	0.0003689	11
	13	45	15046.87	3.329249	-0.4459972	1	3.35899	-7.630104	-6.764597E-005	0.0003468	11
	14	47	11953.13	3.34486	-0.6092789	1	3.399899	-10.32346	-7.546652E-005	0.0003434	11
	15	49	9515.62	3.363332	-0.7982513	1	3.456762	-13.35151	-2.378084E-005	0.000362	11
	16	52	7546.875	3.388409	-1.029451	1	3.541339	-16.8996	-1.881788E-005	0.000406	11
	17	54	5928.309	3.422128	-1.321047	1	3.668259	-21.10813	2.390236E-005	-0.0001395	10
	18	56	4733.456	3.458037	-1.654776	1	3.833575	-25.57253	2.121655E-005	-0.0001394	10
	19	59	3796.875	3.503	-2.051816	1	4.059675	-30.35882	-4.535962E-006	-0.0001223	10
	20	61	2987.132	3.560957	-2.585541	1	4.400618	-35.98267	-1.916519E-005	-0.0001119	10
	21	63	2390.625	3.629025	-3.195903	1	4.835661	-41.36878	-3.315381E-005	-0.0001259	10
	22	65	1884.191	3.720587	-4.001164	1	5.463706	-47.08098	7.177528E-006	-0.0001339	10
	23	68	1516.544	3.824883	-4.907106	1	6.221689	-52.06508	1.63213E-005	-0.0001389	10
	24	70	1193.986	3.967016	-6.140558	1	7.310518	-57.13612	-1.292774E-005	-0.0001117	10
	25	73	946.5144	4.150668	-7.629865	1	8.685786	-61.45369	-8.830576E-006	-0.0001421	10
	26	75	751.7689	4.369582	-9.467404	1	10.42713	-65.22481	1.383399E-005	-0.0001494	10
	27	77	597.4265	4.650467	-11.74002	1	12.62755	-68.39046	-1.522383E-005	-0.0001639	10
	28	80	477.4305	5.016195	-14.48788	1	15.33169	-70.90241	-5.468867E-007	-0.000117	10
	29	82	376.6741	5.517692	-18.07824	1	18.90153	-73.0272	-6.988158E-007	-0.000122	10
	30	84	298.2954	6.178162	-22.48098	1	23.31446	-74.63348	-5.885622E-007	-0.0001175	10
	31	87	237.7717	7.041773	-27.77291	1	28.65172	-75.77258	-1.221083E-006	-0.0001188	10
	32	89	189.0121	8.232573	-34.38987	1	35.36153	-76.53735	-1.280921E-006	-0.0001178	10
	33	91	150.2404	9.85466	-42.48445	1	43.61242	-76.94066	-7.172522E-008	-0.000132	9
	34	94	119.1737	12.14827	-52.58393	1	53.96898	-76.9914	5.433547E-008	-0.0001309	9
	35	96	95.0169	15.26361	-64.64579	1	66.42331	-76.71512	4.208403E-010	-0.000131	9
	36	99	75.60484	19.64404	-79.42072	1	81.81406	-76.10721	-1.830298E-008	-0.000133	9
	37	101	54.50582	29.09522	-105.9475	1	109.87	-74.64404	3.435083E-009	-0.0001344	9
	38	104	45.95588	36.11431	-122.6995	1	127.9039	-73.59919	9.979546E-008	-0.0001246	9
	39	106	37.20238	47.47874	-146.41	1	153.9159	-72.03284	2.492185E-007	-0.0001291	9
	40	108	30.04808	62.7863	-173.9516	1	184.9359	-70.1534	5.961725E-008	-0.0001275	9
	41	111	23.91582	84.76544	-207.056	1	223.735	-67.73659	4.453935E-007	-0.0001341	9
	42	113	18.60119	117.5964	-247.5324	1	274.0459	-64.58879	6.961551E-007	-0.0001328	9
	43	116	15.02404	153.9927	-284.1183	1	323.1671	-61.54222	8.227561E-007	-0.0001305	9
	44	118	12.01923	201.872	-322.257	1	380.2656	-57.93567	4.912459E-007	-0.0001382	9
	45	120	9.450605	263.8441	-358.6292	1	445.2287	-53.65802	1.229152E-006	-0.0001089	8
	46	123	7.512019	334.2228	-388.1768	1	512.2364	-49.27133	1.225363E-006	-0.0001264	8
	47	126	5.978954	411.6079	-408.6794	1	580.0344	-44.79545	1.428885E-006	-0.0001168	8
	48	130	4.734848	495.3725	-418.6395	1	648.5776	-40.20116	1.72725E-006	-0.0001146	8
	49	135	3.75601	578.006	-417.5002	1	713.0199	-35.841	1.523619E-006	-0.0001383	8
	50	141	3.004808	655.0411	-407.8635	1	771.642	-31.90859	1.563121E-006	-0.0000989	8
	51	147	2.372217	732.2985	-390.126	1	829.7346	-28.04609	1.821538E-006	-5.186661E-005	8
	52	155	1.878005	803.4298	-372.1208	1	885.4227	-24.85193	1.711857E-006	-0.0001833	8
	53	164	1.512097	863.1036	-351.0223	1	931.7535	-22.13146	1.627139E-006	-2.253723E-005	8
	54	175	1.201923	923.4666	-330.7917	1	980.925	-19.70786	1.666777E-006	-0.000151	8
	55	187	0.956633	979.755	-313.0603	1	1028.556	-17.72019	7.197992E-007	-0.0006677	8
