EXPLAIN
TAG	EISPOT
TITLE	LABEL	Potentiostatic EIS	Test Identifier
DATE	LABEL	10/12/2021	Date
TIME	LABEL	19:51:28	Time
NOTES	NOTES	1	Notes...
	
PSTAT	PSTAT	REF3000-16137	Potentiostat
VDC	POTEN	0.00000E+000	T	DC Voltage (V)
FREQINIT	QUANT	3.00000E+005	Initial Freq. (Hz)
FREQFINAL	QUANT	1.00000E+000	Final Freq. (Hz)
PTSPERDEC	QUANT	1.00000E+001	Points/decade
VAC	QUANT	5.00000E+001	AC Voltage (mV rms)
AREA	QUANT	1.00000E+000	Sample Area (cm^2)
SPEED	SELECTOR	2	Optimize for:
ZGUESS	QUANT	1.00000E+003	Estimated Z (ohms)
EOC	QUANT	0	Open Circuit (V)
SEQUENCER	TOGGLE	TRUE	Run as Sequence
PSTATMODEL	IQUANT	5	Pstat Model
PSTATSECTION	LABEL	REF3000-16137	Pstat Section
PSTATSERIALNO	LABEL	16137	Pstat Serial Number
CTRLMODE	IQUANT	1	Control Mode
IESTAB	IQUANT	0	I/E Stability
CASPEED	IQUANT	1	Control Amp Speed
CONVENTION	IQUANT	1	Current Convention
ICHRANGE	IQUANT	2	Ich Range
ICHRANGEMODE	TOGGLE	F	Ich Auto Range
ICHOFFSETENABLE	TOGGLE	T	Ich Offset Enable
ICHOFFSET	QUANT	0	Ich Offset (V)
ICHFILTER	IQUANT	3	Ich Filter
VCHRANGE	IQUANT	2	Vch Range
VCHRANGEMODE	TOGGLE	F	Vch Auto Range
VCHOFFSETENABLE	TOGGLE	T	Vch Offset Enable
VCHOFFSET	QUANT	0	Vch Offset (V)
VCHFILTER	IQUANT	3	Vch Filter
ACHRANGE	IQUANT	2	Ach Range
ACHOFFSETENABLE	TOGGLE	F	Ach Offset Enable
ACHOFFSET	QUANT	0	Ach Offset (V)
ACHFILTER	IQUANT	3	Ach Filter
IERANGELOWERLIMIT	IQUANT	2	I/E Range Lower Limit
IERANGEMODE	TOGGLE	F	I/E AutoRange
IERANGE	IQUANT	11	I/E Range
POSFEEDENABLE	TOGGLE	F	Positive Feedback IR Comp
POSFEEDRESISTANCE	QUANT	0	Positive Feedback Resistance (ohm)
ACHSELECT	IQUANT	0	Ach Select
CABLEID	IQUANT	13	Cable ID
DCCALDATE	LABEL	9/10/2021	DC Calibration Date
ACCALDATE	LABEL	9/10/2021	AC Calibration Date
THERMOSELECT	IQUANT	1	Thermo Select
FRAMEWORKVERSION	QUANT	6.33	Framework Version
INSTRUMENTVERSION	LABEL	3.50	Instrument Version
COMPLIANCEVOLTAGE	IQUANT	0	Compliance Voltage
ZCURVE	TABLE
	Pt	Time	Freq	Zreal	Zimag	Zsig	Zmod	Zphz	Idc	Vdc	IERange
	#	s	Hz	ohm	ohm	V	ohm	°	A	V	#
	0	8	300046.9	210.861	-27.72731	1	212.6762	-7.491166	8.277626E-005	-0.0031871	9
	1	11	238359.4	216.7121	-26.18393	1	218.2882	-6.889287	7.361593E-005	-0.0022403	9
	2	14	189328.1	221.5838	-23.41804	1	222.8178	-6.032899	-8.776518E-005	0.0020279	9
	3	17	150421.9	226.9809	-20.08016	1	227.8673	-5.055585	1.99076E-005	-0.0018595	9
	4	21	119484.4	231.7986	-18.9563	1	232.5724	-4.675198	-6.245164E-005	0.0008516	9
	5	26	94921.88	235.4961	-17.02736	1	236.1109	-4.13553	1.468892E-005	-0.0010632	9
	6	28	75421.88	239.2951	-14.93162	1	239.7605	-3.570532	-2.178577E-005	0.0008017	9
	7	32	59859.37	242.4801	-13.37263	1	242.8485	-3.156629	-2.464257E-005	0.0007134	9
	8	36	47578.12	245.4423	-11.82052	1	245.7267	-2.75724	1.657865E-005	-0.0011291	9
	9	39	37828.12	248.325	-10.97186	1	248.5673	-2.52988	-1.235103E-005	-0.0002296	9
	10	43	30046.88	251.7744	-10.16042	1	251.9793	-2.310932	3.590489E-006	0.0003252	9
	11	47	23859.38	254.5435	-10.44398	1	254.7577	-2.349542	1.46567E-005	-0.0010161	9
	12	50	18984.38	257.4045	-10.30369	1	257.6107	-2.292278	2.257074E-005	-0.0010897	9
	13	54	15046.87	260.1184	-10.00038	1	260.3105	-2.201681	2.802077E-005	-0.0009598	9
	14	57	11953.13	263.3847	-11.06886	1	263.6172	-2.406464	-1.697354E-005	-3.354005E-005	9
	15	61	9515.62	267.113	-11.09493	1	267.3433	-2.378496	-1.470572E-005	-5.015337E-005	9
	16	65	7546.875	270.7444	-12.2317	1	271.0205	-2.586752	2.145779E-005	-0.001107	9
	17	69	5928.309	272.6433	-13.06222	1	272.956	-2.742919	1.428205E-005	-0.0010093	9
	18	71	4733.456	276.17	-14.04404	1	276.5269	-2.911148	-2.540997E-005	0.0005326	9
	19	74	3796.875	279.3327	-16.38546	1	279.8129	-3.357082	1.92209E-006	0.000402	9
	20	77	2987.132	283.1991	-17.7717	1	283.7562	-3.590795	-2.458509E-005	0.0007084	9
	21	79	2390.625	287.0057	-19.70021	1	287.681	-3.926652	-1.745127E-005	-6.945364E-005	9
	22	81	1884.191	290.7544	-22.98523	1	291.6615	-4.520048	-2.451036E-005	0.0006991	9
	23	84	1516.544	295.0507	-24.77143	1	296.0887	-4.7991	1.191501E-006	0.0004055	9
	24	86	1193.986	299.4621	-27.90909	1	300.7598	-5.324438	-2.200468E-005	0.0007931	9
	25	89	946.5144	303.8885	-31.42385	1	305.5089	-5.903737	-1.151185E-005	-0.0002525	9
	26	91	751.7689	309.1281	-35.11906	1	311.1166	-6.481403	-2.8928E-006	-0.0005784	9
	27	93	597.4265	314.6492	-38.58164	1	317.0057	-6.990597	-7.781426E-006	0.0006398	9
	28	96	477.4305	320.7513	-43.17094	1	323.6435	-7.665555	3.694769E-007	-0.0001315	9
	29	98	376.6741	326.6821	-48.78918	1	330.3053	-8.494204	3.99787E-007	-0.0001364	9
	30	100	298.2954	332.7755	-55.42295	1	337.3592	-9.455684	3.668817E-007	-0.0001327	9
	31	104	237.7717	339.7949	-63.30092	1	345.6408	-10.55275	4.013091E-007	-0.0001459	9
	32	106	189.0121	346.3723	-72.91817	1	353.9644	-11.88829	3.159088E-007	-0.0001318	9
	33	108	150.2404	351.6805	-84.31763	1	361.6472	-13.48253	3.068936E-008	-0.0001152	8
	34	111	119.1737	358.8423	-98.894	1	372.2201	-15.40778	3.705252E-008	-0.0001193	8
	35	113	95.0169	366.2375	-116.4759	1	384.313	-17.64242	2.258232E-008	-0.0001174	8
	36	116	75.60484	374.2364	-138.3771	1	399.0001	-20.29231	3.285268E-008	-0.0001229	8
	37	118	54.50582	385.7389	-178.9798	1	425.2391	-24.89093	2.734635E-008	-0.0001232	8
	38	121	45.95588	393.2332	-205.7299	1	443.7986	-27.61745	4.293779E-008	-0.0001235	8
	39	123	37.20238	402.5846	-245.273	1	471.4162	-31.35169	2.296308E-008	-0.0001177	8
	40	126	30.04808	413.0359	-294.1124	1	507.0511	-35.4537	4.877585E-008	-0.0001213	8
	41	128	23.91582	425.2538	-358.2401	1	556.0367	-40.11127	5.545491E-008	-0.0001245	8
	42	130	18.60119	440.2359	-446.726	1	627.1935	-45.41924	3.1441E-008	-0.0001288	8
	43	133	15.02404	455.2239	-540.0908	1	706.3475	-49.87362	2.835567E-008	-0.0001242	8
	44	135	12.01923	473.367	-660.0889	1	812.2768	-54.35471	9.252974E-008	-0.0001276	8
	45	137	9.450605	496.221	-821.0048	1	959.314	-58.85094	2.115762E-008	-0.000124	8
	46	140	7.512019	522.4273	-1012.898	1	1139.69	-62.71646	5.005083E-008	-0.0001187	8
	47	143	5.978954	553.9421	-1248.618	1	1365.979	-66.07581	3.838584E-008	-0.0001318	8
	48	146	4.734848	594.0757	-1549.962	1	1659.912	-69.02897	8.551429E-008	-0.0001208	8
	49	149	3.75601	642.6848	-1920.304	1	2024.997	-71.4957	4.56338E-008	-0.000127	8
	50	152	3.004808	700.8998	-2359.647	1	2461.543	-73.4567	4.380113E-008	-0.0001219	8
	51	156	2.372217	783.9442	-2936.662	1	3039.499	-75.05338	5.866013E-008	-7.153346E-005	8
	52	160	1.878005	882.6133	-3656.065	1	3761.092	-76.42786	2.099226E-008	-0.0001331	8
	53	165	1.512097	998.003	-4470.149	1	4580.201	-77.41458	8.784846E-009	-0.000138	7
	54	171	1.201923	1163.953	-5545.519	1	5666.354	-78.14622	-1.093035E-008	-0.0001308	7
	55	177	0.956633	1372.493	-6849.257	1	6985.418	-78.66882	-1.0595E-008	-0.0006761	7
