EXPLAIN
TAG	EISPOT
TITLE	LABEL	Potentiostatic EIS	Test Identifier
DATE	LABEL	10/12/2021	Date
TIME	LABEL	20:14:42	Time
NOTES	NOTES	1	Notes...
	
PSTAT	PSTAT	REF3000-16137	Potentiostat
VDC	POTEN	0.00000E+000	T	DC Voltage (V)
FREQINIT	QUANT	3.00000E+005	Initial Freq. (Hz)
FREQFINAL	QUANT	1.00000E+000	Final Freq. (Hz)
PTSPERDEC	QUANT	1.00000E+001	Points/decade
VAC	QUANT	5.00000E+001	AC Voltage (mV rms)
AREA	QUANT	1.00000E+000	Sample Area (cm^2)
SPEED	SELECTOR	2	Optimize for:
ZGUESS	QUANT	1.00000E+003	Estimated Z (ohms)
EOC	QUANT	0	Open Circuit (V)
SEQUENCER	TOGGLE	TRUE	Run as Sequence
PSTATMODEL	IQUANT	5	Pstat Model
PSTATSECTION	LABEL	REF3000-16137	Pstat Section
PSTATSERIALNO	LABEL	16137	Pstat Serial Number
CTRLMODE	IQUANT	1	Control Mode
IESTAB	IQUANT	0	I/E Stability
CASPEED	IQUANT	1	Control Amp Speed
CONVENTION	IQUANT	1	Current Convention
ICHRANGE	IQUANT	2	Ich Range
ICHRANGEMODE	TOGGLE	F	Ich Auto Range
ICHOFFSETENABLE	TOGGLE	T	Ich Offset Enable
ICHOFFSET	QUANT	0	Ich Offset (V)
ICHFILTER	IQUANT	3	Ich Filter
VCHRANGE	IQUANT	2	Vch Range
VCHRANGEMODE	TOGGLE	F	Vch Auto Range
VCHOFFSETENABLE	TOGGLE	T	Vch Offset Enable
VCHOFFSET	QUANT	0	Vch Offset (V)
VCHFILTER	IQUANT	3	Vch Filter
ACHRANGE	IQUANT	2	Ach Range
ACHOFFSETENABLE	TOGGLE	F	Ach Offset Enable
ACHOFFSET	QUANT	0	Ach Offset (V)
ACHFILTER	IQUANT	3	Ach Filter
IERANGELOWERLIMIT	IQUANT	2	I/E Range Lower Limit
IERANGEMODE	TOGGLE	F	I/E AutoRange
IERANGE	IQUANT	11	I/E Range
POSFEEDENABLE	TOGGLE	F	Positive Feedback IR Comp
POSFEEDRESISTANCE	QUANT	0	Positive Feedback Resistance (ohm)
ACHSELECT	IQUANT	0	Ach Select
CABLEID	IQUANT	13	Cable ID
DCCALDATE	LABEL	9/10/2021	DC Calibration Date
ACCALDATE	LABEL	9/10/2021	AC Calibration Date
THERMOSELECT	IQUANT	1	Thermo Select
FRAMEWORKVERSION	QUANT	6.33	Framework Version
INSTRUMENTVERSION	LABEL	3.50	Instrument Version
COMPLIANCEVOLTAGE	IQUANT	0	Compliance Voltage
ZCURVE	TABLE
	Pt	Time	Freq	Zreal	Zimag	Zsig	Zmod	Zphz	Idc	Vdc	IERange
	#	s	Hz	ohm	ohm	V	ohm	°	A	V	#
	0	17	300046.9	1248.5	-3963.982	1	4155.948	-72.5176	-7.239148E-005	0.0003865	9
	1	36	238359.4	1719.315	-4744.704	1	5046.609	-70.08125	-1.905015E-005	0.0013525	9
	2	54	189328.1	2094.729	-5370.995	1	5765.022	-68.69384	-3.472756E-005	-0.0011368	9
	3	64	150421.9	3044.956	-6463.969	1	7145.253	-64.77647	8.088328E-005	-0.001908	9
	4	73	119484.4	4102.117	-8201.641	1	9170.293	-63.4277	-3.27198E-005	-0.0010673	9
	5	83	94921.88	5973.736	-9611.25	1	11316.43	-58.13757	-2.475724E-005	0.004912	8
	6	92	75421.88	7097.813	-11087.56	1	13164.84	-57.37426	2.655947E-005	-0.0100196	8
	7	100	59859.37	9382.262	-12815.42	1	15882.75	-53.79187	7.519152E-006	-0.0083917	8
	8	109	47578.12	14079.41	-13968.87	1	19833.28	-44.7742	-1.471919E-006	0.0206019	7
	9	116	37828.12	17183.55	-15156.64	1	22912.84	-41.4137	-3.662281E-006	0.024484	7
	10	122	30046.88	20450.31	-16420.37	1	26226.78	-38.76236	5.343351E-006	-0.0274696	7
	11	128	23859.38	24356.22	-17697.99	1	30107.21	-36.00332	-1.280443E-006	-0.0135257	7
	12	134	18984.38	27297.47	-20352.18	1	34049.42	-36.7071	7.441023E-006	-0.0084696	8
	13	140	15046.87	33847.34	-19459.88	1	39042.67	-29.89593	-6.904963E-006	0.0122627	7
	14	146	11953.13	38726.23	-19319.58	1	43277.79	-26.51349	-3.366663E-006	0.0243943	7
	15	151	9515.62	43265.02	-18642.61	1	47110.6	-23.31089	-1.610817E-006	0.0209469	7
	16	156	7546.875	48644.55	-18371.73	1	51998.2	-20.69019	-3.153927E-006	0.0237621	7
	17	162	5928.309	54436.51	-16840.78	1	56981.97	-17.19026	-1.240051E-006	-0.013593	7
	18	167	4733.456	60142.37	-16834.11	1	62453.92	-15.63716	7.266588E-007	0.0149251	7
	19	172	3796.875	67111.88	-10108.93	1	67868.95	-8.56595	5.996882E-007	-0.0289555	6
	20	176	2987.132	70559.01	-8773.86	1	71102.42	-7.088223	1.767584E-008	0.016234	6
	21	180	2390.625	74603.59	-8306.429	1	75064.59	-6.353195	-2.061082E-007	0.0219989	6
	22	185	1884.191	78738.38	-7665.073	1	79110.59	-5.560146	-6.866298E-007	0.02594	6
	23	189	1516.544	82321.31	-7289.479	1	82643.42	-5.060292	2.441084E-007	0.0090081	6
	24	193	1193.986	87841.72	-7385.327	1	88151.63	-4.805863	-3.910056E-007	0.0248412	6
	25	198	946.5144	92635.52	-6923.461	1	92893.89	-4.274267	7.815828E-007	-0.0244392	6
	26	200	751.7689	94348.45	-5962.346	1	94536.66	-3.615996	-6.873195E-007	0.0261251	6
	27	203	597.4265	98142.6	-6047.621	1	98328.8	-3.526149	3.971585E-007	-0.0264791	6
	28	205	477.4305	102210.8	-6043.357	1	102389.3	-3.383754	-8.739173E-009	-0.0000959	6
	29	208	376.6741	105529.4	-5819.967	1	105689.8	-3.156675	-8.745072E-009	-0.0000994	6
	30	210	298.2954	108982.3	-5696.071	1	109131	-2.991901	-8.150308E-009	-0.0001751	6
	31	212	237.7717	112654.7	-5702.805	1	112798.9	-2.897953	-8.629457E-009	-0.0000978	6
	32	215	189.0121	116522.3	-5762.273	1	116664.6	-2.831092	-8.323356E-009	-0.000152	6
	33	217	150.2404	120528.6	-5807.225	1	120668.4	-2.758451	-8.006457E-009	-8.373832E-005	6
	34	220	119.1737	124439.3	-5419.199	1	124557.2	-2.493595	-7.328731E-009	-0.0001497	6
	35	222	95.0169	129244.6	-6056.033	1	129386.4	-2.682755	-8.570334E-009	-9.164293E-005	6
	36	225	75.60484	134042.1	-6121.627	1	134181.8	-2.614849	-7.854132E-009	-0.0001659	6
	37	227	54.50582	139487.1	-6177.609	1	139623.8	-2.535861	-9.044678E-009	-0.0001025	6
	38	230	45.95588	144141.5	-6136.385	1	144272.1	-2.437721	-7.600509E-009	-0.0001302	6
	39	232	37.20238	148946.2	-6070.225	1	149069.8	-2.333768	-9.618225E-009	-8.467621E-005	6
	40	234	30.04808	153978.1	-5964.186	1	154093.5	-2.218185	-8.923842E-009	-9.20328E-005	6
	41	237	23.91582	159243.7	-5811.135	1	159349.7	-2.089916	-8.505531E-009	-8.457862E-005	6
	42	239	18.60119	164103.5	-5678.042	1	164201.7	-1.981664	-8.045761E-009	-0.0001325	6
	43	242	15.02404	169072	-5696.487	1	169167.9	-1.929718	-6.324211E-009	-7.684428E-005	6
	44	244	12.01923	174356.3	-5681.546	1	174448.9	-1.86637	-5.936254E-009	-8.494304E-005	6
	45	246	9.450605	179787.9	-5918.284	1	179885.3	-1.88539	-9.488504E-009	-0.0001262	6
	46	249	7.512019	185761.1	-6399.418	1	185871.3	-1.973043	-9.215298E-009	-0.0001373	6
	47	252	5.978954	192457.6	-6971.086	1	192583.8	-2.074427	-8.588822E-009	-7.752194E-005	6
	48	255	4.734848	200093.4	-7820.899	1	200246.2	-2.238337	-8.659107E-009	-0.0001892	6
	49	258	3.75601	208806.2	-8938.143	1	208997.4	-2.451103	-9.951623E-009	-0.0001394	6
	50	261	3.004808	218040.3	-10229.32	1	218280.2	-2.686051	-5.288931E-009	-0.0001962	6
	51	265	2.372217	228927.6	-12070.93	1	229245.6	-3.018306	-1.010135E-008	-0.0001015	6
	52	269	1.878005	241709.1	-14278.01	1	242130.4	-3.380593	-1.079785E-008	-0.0001318	6
	53	274	1.512097	256669.4	-16784.03	1	257217.6	-3.741337	-9.025291E-009	-0.0002155	6
	54	279	1.201923	274911.3	-20774.17	1	275695.1	-4.321446	-9.55598E-009	-0.0001351	6
	55	286	0.956633	296253.5	-25059.65	1	297311.5	-4.835056	-1.092474E-008	-0.0006738	6
