EXPLAIN
TAG	EISPOT
TITLE	LABEL	Potentiostatic EIS	Test Identifier
DATE	LABEL	10/12/2021	Date
TIME	LABEL	19:26:33	Time
NOTES	NOTES	1	Notes...
	
PSTAT	PSTAT	REF3000-16137	Potentiostat
VDC	POTEN	0.00000E+000	T	DC Voltage (V)
FREQINIT	QUANT	3.00000E+005	Initial Freq. (Hz)
FREQFINAL	QUANT	1.00000E+000	Final Freq. (Hz)
PTSPERDEC	QUANT	1.00000E+001	Points/decade
VAC	QUANT	5.00000E+001	AC Voltage (mV rms)
AREA	QUANT	1.00000E+000	Sample Area (cm^2)
SPEED	SELECTOR	2	Optimize for:
ZGUESS	QUANT	1.00000E+003	Estimated Z (ohms)
EOC	QUANT	0	Open Circuit (V)
SEQUENCER	TOGGLE	TRUE	Run as Sequence
PSTATMODEL	IQUANT	5	Pstat Model
PSTATSECTION	LABEL	REF3000-16137	Pstat Section
PSTATSERIALNO	LABEL	16137	Pstat Serial Number
CTRLMODE	IQUANT	1	Control Mode
IESTAB	IQUANT	0	I/E Stability
CASPEED	IQUANT	1	Control Amp Speed
CONVENTION	IQUANT	1	Current Convention
ICHRANGE	IQUANT	2	Ich Range
ICHRANGEMODE	TOGGLE	F	Ich Auto Range
ICHOFFSETENABLE	TOGGLE	T	Ich Offset Enable
ICHOFFSET	QUANT	0	Ich Offset (V)
ICHFILTER	IQUANT	3	Ich Filter
VCHRANGE	IQUANT	2	Vch Range
VCHRANGEMODE	TOGGLE	F	Vch Auto Range
VCHOFFSETENABLE	TOGGLE	T	Vch Offset Enable
VCHOFFSET	QUANT	0	Vch Offset (V)
VCHFILTER	IQUANT	3	Vch Filter
ACHRANGE	IQUANT	2	Ach Range
ACHOFFSETENABLE	TOGGLE	F	Ach Offset Enable
ACHOFFSET	QUANT	0	Ach Offset (V)
ACHFILTER	IQUANT	3	Ach Filter
IERANGELOWERLIMIT	IQUANT	2	I/E Range Lower Limit
IERANGEMODE	TOGGLE	F	I/E AutoRange
IERANGE	IQUANT	11	I/E Range
POSFEEDENABLE	TOGGLE	F	Positive Feedback IR Comp
POSFEEDRESISTANCE	QUANT	0	Positive Feedback Resistance (ohm)
ACHSELECT	IQUANT	0	Ach Select
CABLEID	IQUANT	13	Cable ID
DCCALDATE	LABEL	9/10/2021	DC Calibration Date
ACCALDATE	LABEL	9/10/2021	AC Calibration Date
THERMOSELECT	IQUANT	1	Thermo Select
FRAMEWORKVERSION	QUANT	6.33	Framework Version
INSTRUMENTVERSION	LABEL	3.50	Instrument Version
COMPLIANCEVOLTAGE	IQUANT	0	Compliance Voltage
ZCURVE	TABLE
	Pt	Time	Freq	Zreal	Zimag	Zsig	Zmod	Zphz	Idc	Vdc	IERange
	#	s	Hz	ohm	ohm	V	ohm	°	A	V	#
	0	8	300046.9	11.82394	2.215794	1	12.02977	10.61406	7.188362E-005	-0.0009351	10
	1	11	238359.4	11.86647	1.757754	1	11.99595	8.425828	1.029054E-005	-0.0006466	10
	2	14	189328.1	11.91079	1.368854	1	11.98919	6.555987	7.787013E-005	-0.0006517	10
	3	17	150421.9	11.9539	1.030505	1	11.99824	4.927094	1.996332E-005	-0.0003294	10
	4	19	119484.4	11.99708	0.775472	1	12.02211	3.698363	1.382646E-005	-0.0002423	10
	5	22	94921.88	12.05237	0.5539677	1	12.06509	2.631655	1.687005E-005	-0.0002259	10
	6	25	75421.88	12.11083	0.3552416	1	12.11604	1.68015	-8.96532E-006	-0.0001235	10
	7	27	59859.37	12.17638	0.1781792	1	12.17768	0.8383599	2.408627E-005	-0.0001702	10
	8	30	47578.12	12.24663	0.0205952	1	12.24664	0.0963546	2.485299E-005	-0.000162	10
	9	32	37828.12	12.31799	-0.1272028	1	12.31865	-0.5916488	-2.246269E-005	-0.0001468	10
	10	35	30046.88	12.39449	-0.2744138	1	12.39753	-1.26832	-2.37915E-005	-0.0001401	10
	11	37	23859.38	12.47605	-0.4290166	1	12.48342	-1.969467	-1.25506E-005	-0.0001459	10
	12	40	18984.38	12.56246	-0.5931647	1	12.57645	-2.703342	2.674934E-005	-0.0001342	10
	13	42	15046.87	12.65598	-0.7795087	1	12.67997	-3.524515	1.904603E-005	-0.0001144	10
	14	44	11953.13	12.75821	-0.990606	1	12.79661	-4.439799	-2.979765E-005	-0.0001329	10
	15	46	9515.62	12.87192	-1.229452	1	12.9305	-5.456013	-1.821967E-005	-6.350768E-005	10
	16	49	7546.875	12.99444	-1.51686	1	13.08268	-6.658086	-1.51754E-005	-0.0001388	10
	17	51	5928.309	13.13689	-1.880072	1	13.27074	-8.144518	-2.754314E-005	-0.0001009	10
	18	53	4733.456	13.28639	-2.284553	1	13.48137	-9.75642	1.737509E-005	-0.0001356	10
	19	56	3796.875	13.45028	-2.763428	1	13.73123	-11.61014	-1.071855E-006	-8.686699E-005	10
	20	58	2987.132	13.64189	-3.389649	1	14.05671	-13.9539	-1.146087E-005	-0.0001307	10
	21	60	2390.625	13.8415	-4.103863	1	14.43706	-16.51455	2.274262E-005	-0.0001619	10
	22	63	1884.191	14.0765	-5.042899	1	14.95255	-19.71004	-2.824778E-005	-0.0001019	10
	23	65	1516.544	14.32115	-6.084507	1	15.56009	-23.01878	5.828351E-006	-0.0001629	10
	24	67	1193.986	14.61518	-7.502894	1	16.42854	-27.1743	1.997799E-005	-0.000164	10
	25	70	946.5144	14.93811	-9.212251	1	17.55029	-31.66191	2.550096E-005	-0.0001198	10
	26	72	751.7689	15.30606	-11.29875	1	19.02464	-36.43431	-1.769216E-005	-0.0001253	10
	27	74	597.4265	15.7313	-13.88574	1	20.98303	-41.43427	-1.706516E-005	-0.0001261	10
	28	77	477.4305	16.21003	-17.00955	1	23.4966	-46.37872	-8.012303E-007	-0.0001194	10
	29	79	376.6741	16.78342	-21.08574	1	26.94979	-51.48159	-1.324633E-006	-0.0001172	10
	30	81	298.2954	17.45156	-26.09547	1	31.39316	-56.22704	-1.959427E-006	-0.0001094	10
	31	84	237.7717	18.22485	-32.13456	1	36.94286	-60.44062	-1.989233E-006	-0.0001106	10
	32	86	189.0121	19.13729	-39.6626	1	44.03814	-64.24259	2.745364E-007	-0.0001229	9
	33	89	150.2404	20.27072	-49.05374	1	53.07703	-67.54788	3.136585E-007	-0.0001295	9
	34	91	119.1737	21.67627	-60.8408	1	64.58687	-70.39011	3.076358E-007	-0.0001337	9
	35	93	95.0169	23.38577	-75.12116	1	78.67709	-72.70825	3.174649E-007	-0.0001354	9
	36	96	75.60484	25.55364	-92.97649	1	96.4241	-74.63229	2.26674E-007	-0.0001335	9
	37	98	54.50582	29.69012	-126.2	1	129.6454	-76.7612	1.821368E-007	-0.0001323	9
	38	101	45.95588	32.57562	-148.0517	1	151.5931	-77.59101	2.457994E-007	-0.0001269	9
	39	103	37.20238	36.99644	-180.3153	1	184.0716	-78.40517	2.081088E-007	-0.0001324	9
	40	106	30.04808	42.69791	-219.9857	1	224.0911	-79.01581	2.71385E-007	-0.0001291	9
	41	108	23.91582	50.7053	-272.0029	1	276.6886	-79.44044	2.044761E-007	-0.0001322	9
	42	110	18.60119	62.62468	-343.4454	1	349.1082	-79.66608	1.77639E-007	-0.0001248	9
	43	113	15.02404	75.63712	-416.3074	1	423.1227	-79.7025	4.026975E-007	-0.0001189	8
	44	115	12.01923	94.04279	-510.5355	1	519.1248	-79.56287	4.605985E-007	-0.0001125	8
	45	118	9.450605	120.3828	-634.8818	1	646.1942	-79.26335	4.362134E-007	-0.000113	8
	46	120	7.512019	153.4068	-780.2659	1	795.2034	-78.87704	4.878231E-007	-9.442433E-005	8
	47	123	5.978954	196.4652	-955.594	1	975.581	-78.38216	4.810412E-007	-0.0001142	8
	48	126	4.734848	253.4408	-1174.061	1	1201.104	-77.81866	5.476256E-007	-8.73437E-005	8
	49	129	3.75601	328.3359	-1436.967	1	1474.001	-77.12931	4.767758E-007	-0.0001272	8
	50	133	3.004808	420.8575	-1742.7	1	1792.798	-76.42317	5.204048E-007	-0.0001122	8
	51	136	2.372217	553.6569	-2134.031	1	2204.683	-75.45575	5.36249E-007	-6.268985E-005	8
	52	140	1.878005	723.0354	-2608.756	1	2707.1	-74.5089	5.01606E-007	-0.0001251	8
	53	145	1.512097	926.1719	-3126.226	1	3260.534	-73.49761	5.340532E-007	-0.0001592	8
	54	151	1.201923	1224.845	-3788.581	1	3981.657	-72.08402	5.122681E-007	-0.0001351	8
	55	157	0.956633	1615.15	-4564.545	1	4841.878	-70.51383	5.755342E-008	-0.0006459	7
