EXPLAIN
TAG	EISPOT
TITLE	LABEL	Potentiostatic EIS	Test Identifier
DATE	LABEL	10/12/2021	Date
TIME	LABEL	19:11:33	Time
NOTES	NOTES	1	Notes...
	
PSTAT	PSTAT	REF3000-16137	Potentiostat
VDC	POTEN	0.00000E+000	T	DC Voltage (V)
FREQINIT	QUANT	3.00000E+005	Initial Freq. (Hz)
FREQFINAL	QUANT	1.00000E+000	Final Freq. (Hz)
PTSPERDEC	QUANT	1.00000E+001	Points/decade
VAC	QUANT	5.00000E+001	AC Voltage (mV rms)
AREA	QUANT	1.00000E+000	Sample Area (cm^2)
SPEED	SELECTOR	2	Optimize for:
ZGUESS	QUANT	1.00000E+003	Estimated Z (ohms)
EOC	QUANT	0	Open Circuit (V)
SEQUENCER	TOGGLE	TRUE	Run as Sequence
PSTATMODEL	IQUANT	5	Pstat Model
PSTATSECTION	LABEL	REF3000-16137	Pstat Section
PSTATSERIALNO	LABEL	16137	Pstat Serial Number
CTRLMODE	IQUANT	1	Control Mode
IESTAB	IQUANT	0	I/E Stability
CASPEED	IQUANT	1	Control Amp Speed
CONVENTION	IQUANT	1	Current Convention
ICHRANGE	IQUANT	2	Ich Range
ICHRANGEMODE	TOGGLE	F	Ich Auto Range
ICHOFFSETENABLE	TOGGLE	T	Ich Offset Enable
ICHOFFSET	QUANT	0	Ich Offset (V)
ICHFILTER	IQUANT	3	Ich Filter
VCHRANGE	IQUANT	2	Vch Range
VCHRANGEMODE	TOGGLE	F	Vch Auto Range
VCHOFFSETENABLE	TOGGLE	T	Vch Offset Enable
VCHOFFSET	QUANT	0	Vch Offset (V)
VCHFILTER	IQUANT	3	Vch Filter
ACHRANGE	IQUANT	2	Ach Range
ACHOFFSETENABLE	TOGGLE	F	Ach Offset Enable
ACHOFFSET	QUANT	0	Ach Offset (V)
ACHFILTER	IQUANT	3	Ach Filter
IERANGELOWERLIMIT	IQUANT	2	I/E Range Lower Limit
IERANGEMODE	TOGGLE	F	I/E AutoRange
IERANGE	IQUANT	11	I/E Range
POSFEEDENABLE	TOGGLE	F	Positive Feedback IR Comp
POSFEEDRESISTANCE	QUANT	0	Positive Feedback Resistance (ohm)
ACHSELECT	IQUANT	0	Ach Select
CABLEID	IQUANT	13	Cable ID
DCCALDATE	LABEL	9/10/2021	DC Calibration Date
ACCALDATE	LABEL	9/10/2021	AC Calibration Date
THERMOSELECT	IQUANT	1	Thermo Select
FRAMEWORKVERSION	QUANT	6.33	Framework Version
INSTRUMENTVERSION	LABEL	3.50	Instrument Version
COMPLIANCEVOLTAGE	IQUANT	0	Compliance Voltage
ZCURVE	TABLE
	Pt	Time	Freq	Zreal	Zimag	Zsig	Zmod	Zphz	Idc	Vdc	IERange
	#	s	Hz	ohm	ohm	V	ohm	°	A	V	#
	0	10	300046.9	4.503666	2.364315	1	5.08655	27.69838	5.145432E-005	-0.000715	10
	1	13	238359.4	4.483828	1.884051	1	4.863575	22.79156	1.278365E-005	-0.0010694	10
	2	16	189328.1	4.463094	1.488172	1	4.704664	18.44042	-1.732032E-005	-0.0007805	10
	3	19	150421.9	4.45453	1.167275	1	4.604929	14.68376	7.358308E-005	-0.0007443	10
	4	22	119484.4	4.45822	0.8939751	1	4.546968	11.33873	2.261457E-005	-0.0003992	10
	5	24	94921.88	4.463616	0.6843345	1	4.51577	8.716371	5.268265E-006	-0.0003091	10
	6	27	75421.88	4.466583	0.4979559	1	4.494254	6.361339	-1.315566E-005	-0.000242	10
	7	29	59859.37	4.471327	0.3356458	1	4.483907	4.292929	1.836375E-005	-0.0002612	10
	8	32	47578.12	4.479328	0.1947042	1	4.483558	2.488925	-1.749894E-005	-0.0002156	10
	9	34	37828.12	4.489048	0.0634671	1	4.489496	0.8100052	2.08792E-005	-0.0002028	10
	10	37	30046.88	4.501159	-0.0621417	1	4.501588	-0.7909582	2.032851E-005	-0.0001903	10
	11	39	23859.38	4.515429	-0.1887224	1	4.519371	-2.393286	-1.162513E-005	-0.0001408	10
	12	42	18984.38	4.529888	-0.3216881	1	4.541296	-4.062017	2.226039E-005	-0.0001579	10
	13	44	15046.87	4.546611	-0.4710703	1	4.57095	-5.915258	-1.863469E-005	-0.0001899	10
	14	46	11953.13	4.566683	-0.6397656	1	4.611279	-7.974901	-1.895349E-005	-0.0001023	10
	15	48	9515.62	4.588209	-0.836922	1	4.663915	-10.33751	2.285179E-005	-0.0001515	10
	16	51	7546.875	4.615876	-1.077973	1	4.740078	-13.14503	2.319392E-005	-0.0001445	10
	17	53	5928.309	4.649729	-1.382155	1	4.850807	-16.55485	-3.820265E-006	-0.0001256	10
	18	55	4733.456	4.68896	-1.730387	1	4.998058	-20.25579	-2.630197E-005	-0.0001139	10
	19	58	3796.875	4.73491	-2.145358	1	5.198262	-24.37498	2.120358E-005	-0.0001494	10
	20	60	2987.132	4.797843	-2.705055	1	5.507869	-29.41459	-1.453398E-005	-0.0001614	10
	21	62	2390.625	4.868771	-3.345981	1	5.907666	-34.49814	-2.745487E-005	-0.0001386	10
	22	65	1884.191	4.96473	-4.189621	1	6.496266	-40.16024	2.303324E-005	-0.0001473	10
	23	67	1516.544	5.071594	-5.139782	1	7.220695	-45.3826	2.298246E-005	-0.0001474	10
	24	69	1193.986	5.217375	-6.431252	1	8.281425	-50.94919	2.267919E-005	-0.000141	10
	25	72	946.5144	5.39183	-7.996153	1	9.64419	-56.00809	-2.535892E-005	-0.0001295	10
	26	74	751.7689	5.612721	-9.91029	1	11.38932	-60.47483	1.357793E-005	-0.0001589	10
	27	77	597.4265	5.88217	-12.28379	1	13.61952	-64.41228	1.788364E-005	-0.0001526	10
	28	79	477.4305	6.213882	-15.16326	1	16.38709	-67.71626	-1.252566E-006	-0.0001119	10
	29	81	376.6741	6.655184	-18.92013	1	20.05649	-70.6206	-7.604248E-007	-0.0001163	10
	30	83	298.2954	7.210869	-23.53569	1	24.61555	-72.96598	-1.602379E-006	-0.0001134	10
	31	86	237.7717	7.907734	-29.1013	1	30.15656	-74.79801	-1.468752E-006	-0.0001158	10
	32	88	189.0121	8.831129	-36.08072	1	37.14576	-76.24665	-1.988184E-006	-0.0001144	10
	33	91	150.2404	10.03094	-44.66457	1	45.7771	-77.34232	-1.612992E-008	-0.0001274	9
	34	93	119.1737	11.6797	-55.46704	1	56.6834	-78.10895	2.943789E-008	-0.0001266	9
	35	95	95.0169	13.83606	-68.49081	1	69.87437	-78.57919	7.785204E-009	-0.0001318	9
	36	98	75.60484	16.79934	-84.6769	1	86.32726	-78.7786	2.802011E-008	-0.0001299	9
	37	100	54.50582	23.0437	-114.4663	1	116.7628	-78.61768	4.58171E-008	-0.0001334	9
	38	103	45.95588	27.68941	-133.8259	1	136.6604	-78.3101	8.057906E-008	-0.0001267	9
	39	105	37.20238	35.13644	-162.0344	1	165.8003	-77.76509	6.710392E-008	-0.0001277	9
	40	108	30.04808	45.13429	-196.0209	1	201.1499	-77.0335	2.214542E-007	-0.00014	9
	41	110	23.91582	59.96861	-239.8583	1	247.2412	-75.96284	-3.862933E-008	-0.000139	9
	42	113	18.60119	82.60601	-297.7288	1	308.976	-74.49312	1.554537E-007	-0.0001348	9
	43	115	15.02404	108.5613	-356.2653	1	372.4386	-73.05295	2.282855E-007	-0.0001202	9
	44	117	12.01923	144.944	-425.6343	1	449.6369	-71.19442	3.300609E-007	-0.0001173	8
	45	120	9.450605	198.2902	-514.0213	1	550.9418	-68.90525	5.667889E-007	-0.0001049	8
	46	122	7.512019	267.5308	-609.1532	1	665.3122	-66.28965	4.811703E-007	-0.0001139	8
	47	125	5.978954	358.1325	-712.4376	1	797.3871	-63.31195	5.71467E-007	-0.0001118	8
	48	128	4.734848	478.5501	-823.3694	1	952.338	-59.83444	8.18208E-007	-0.0001001	8
	49	133	3.75601	628.9126	-929.9016	1	1122.608	-55.92866	8.270831E-007	-0.0001179	8
	50	138	3.004808	802.0566	-1022.694	1	1299.691	-51.89437	8.274189E-007	-7.847235E-005	8
	51	145	2.372217	1014.384	-1101.846	1	1497.678	-47.36665	9.494931E-007	-4.211219E-005	8
	52	152	1.878005	1242.272	-1158.907	1	1698.913	-43.01159	9.705365E-007	-0.0001451	8
	53	161	1.512097	1465.156	-1181.309	1	1882.066	-38.87813	1.036968E-006	-3.969426E-005	8
	54	172	1.201923	1708.423	-1185.432	1	2079.413	-34.75581	1.079288E-006	-0.0001543	8
	55	185	0.956633	1942.146	-1165.579	1	2265.062	-30.97007	8.106225E-007	-0.0006649	8
