EXPLAIN
TAG	EISPOT
TITLE	LABEL	Potentiostatic EIS	Test Identifier
DATE	LABEL	10/12/2021	Date
TIME	LABEL	20:05:22	Time
NOTES	NOTES	1	Notes...
	
PSTAT	PSTAT	REF3000-16137	Potentiostat
VDC	POTEN	0.00000E+000	T	DC Voltage (V)
FREQINIT	QUANT	3.00000E+005	Initial Freq. (Hz)
FREQFINAL	QUANT	1.00000E+000	Final Freq. (Hz)
PTSPERDEC	QUANT	1.00000E+001	Points/decade
VAC	QUANT	5.00000E+001	AC Voltage (mV rms)
AREA	QUANT	1.00000E+000	Sample Area (cm^2)
SPEED	SELECTOR	2	Optimize for:
ZGUESS	QUANT	1.00000E+003	Estimated Z (ohms)
EOC	QUANT	0	Open Circuit (V)
SEQUENCER	TOGGLE	TRUE	Run as Sequence
PSTATMODEL	IQUANT	5	Pstat Model
PSTATSECTION	LABEL	REF3000-16137	Pstat Section
PSTATSERIALNO	LABEL	16137	Pstat Serial Number
CTRLMODE	IQUANT	1	Control Mode
IESTAB	IQUANT	0	I/E Stability
CASPEED	IQUANT	1	Control Amp Speed
CONVENTION	IQUANT	1	Current Convention
ICHRANGE	IQUANT	2	Ich Range
ICHRANGEMODE	TOGGLE	F	Ich Auto Range
ICHOFFSETENABLE	TOGGLE	T	Ich Offset Enable
ICHOFFSET	QUANT	0	Ich Offset (V)
ICHFILTER	IQUANT	3	Ich Filter
VCHRANGE	IQUANT	2	Vch Range
VCHRANGEMODE	TOGGLE	F	Vch Auto Range
VCHOFFSETENABLE	TOGGLE	T	Vch Offset Enable
VCHOFFSET	QUANT	0	Vch Offset (V)
VCHFILTER	IQUANT	3	Vch Filter
ACHRANGE	IQUANT	2	Ach Range
ACHOFFSETENABLE	TOGGLE	F	Ach Offset Enable
ACHOFFSET	QUANT	0	Ach Offset (V)
ACHFILTER	IQUANT	3	Ach Filter
IERANGELOWERLIMIT	IQUANT	2	I/E Range Lower Limit
IERANGEMODE	TOGGLE	F	I/E AutoRange
IERANGE	IQUANT	11	I/E Range
POSFEEDENABLE	TOGGLE	F	Positive Feedback IR Comp
POSFEEDRESISTANCE	QUANT	0	Positive Feedback Resistance (ohm)
ACHSELECT	IQUANT	0	Ach Select
CABLEID	IQUANT	13	Cable ID
DCCALDATE	LABEL	9/10/2021	DC Calibration Date
ACCALDATE	LABEL	9/10/2021	AC Calibration Date
THERMOSELECT	IQUANT	1	Thermo Select
FRAMEWORKVERSION	QUANT	6.33	Framework Version
INSTRUMENTVERSION	LABEL	3.50	Instrument Version
COMPLIANCEVOLTAGE	IQUANT	0	Compliance Voltage
ZCURVE	TABLE
	Pt	Time	Freq	Zreal	Zimag	Zsig	Zmod	Zphz	Idc	Vdc	IERange
	#	s	Hz	ohm	ohm	V	ohm	°	A	V	#
	0	17	300046.9	1423.307	-702.2748	1	1587.134	-26.26222	1.537109E-005	-0.0024674	9
	1	36	238359.4	1570.417	-679.7252	1	1711.208	-23.40446	7.8741E-005	-0.0038372	9
	2	51	189328.1	1733.013	-677.1797	1	1860.62	-21.34321	-0.0001105	0.0037444	9
	3	62	150421.9	1871.661	-711.3585	1	2002.286	-20.81019	2.60394E-005	0.0007929	9
	4	71	119484.4	1997.303	-560.1678	1	2074.369	-15.6668	-8.118447E-005	0.0293848	8
	5	78	94921.88	2104.262	-534.9354	1	2171.192	-14.26332	2.469708E-005	-0.0077683	8
	6	84	75421.88	2235.385	-496.6037	1	2289.882	-12.52518	-1.968961E-005	0.0027079	8
	7	88	59859.37	2311.179	-475.726	1	2359.632	-11.63114	2.435628E-005	-0.0059682	8
	8	91	47578.12	2413.334	-424.452	1	2450.376	-9.97504	-1.080158E-005	-0.0017245	8
	9	96	37828.12	2544.275	-402.5916	1	2575.93	-8.99161	-2.711097E-005	0.0005547	9
	10	104	30046.88	2627.327	-354.6942	1	2651.161	-7.688556	5.205969E-007	0.0055182	8
	11	110	23859.38	2717.713	-317.3392	1	2736.178	-6.660096	9.836602E-006	0.0021785	8
	12	115	18984.38	2789.454	-278.8997	1	2803.362	-5.709664	5.559027E-006	-0.0072267	8
	13	121	15046.87	2884.333	-253.073	1	2895.414	-5.014322	8.951512E-006	-0.0010008	9
	14	126	11953.13	2952.733	-227.9019	1	2961.515	-4.413532	2.838201E-005	-0.0007467	9
	15	131	9515.62	3005.283	-185.1832	1	3010.983	-3.526064	-2.404904E-005	0.0068893	8
	16	137	7546.875	3054.872	-163.4736	1	3059.243	-3.063114	4.461742E-007	0.0056285	8
	17	142	5928.309	3152.069	-171.1985	1	3156.714	-3.108854	-2.79094E-005	0.0007583	9
	18	147	4733.456	3215.054	-123.5469	1	3217.427	-2.200658	-8.76901E-006	0.0081627	8
	19	153	3796.875	3247.486	-136.0442	1	3250.335	-2.398842	-2.270224E-005	0.004743	8
	20	158	2987.132	3331.495	-114.0386	1	3333.446	-1.960495	1.98837E-005	-0.0096505	8
	21	164	2390.625	3407.491	-115.9927	1	3409.464	-1.949624	2.969771E-005	-0.0009627	9
	22	169	1884.191	3470.982	-122.4835	1	3473.142	-2.021007	2.38932E-005	-0.0092679	8
	23	174	1516.544	3511.263	-133.0552	1	3513.783	-2.170118	1.99492E-005	-0.0096737	8
	24	180	1193.986	3643.662	-166.4632	1	3647.463	-2.615778	2.052154E-005	-0.0002496	9
	25	185	946.5144	3662.857	-209.7056	1	3668.855	-3.276716	2.419477E-005	-0.009476	8
	26	189	751.7689	3699.315	-135.4838	1	3701.795	-2.097465	-2.247345E-005	0.0046564	8
	27	193	597.4265	3781.536	-251.793	1	3789.909	-3.809408	-2.472779E-005	0.0003045	9
	28	197	477.4305	3878.112	-248.1684	1	3886.044	-3.661484	-1.860609E-007	-0.0001152	8
	29	200	376.6741	3958.203	-273.9531	1	3967.672	-3.959212	-6.410169E-008	-6.645702E-005	7
	30	202	298.2954	4030.927	-305.4268	1	4042.482	-4.33307	-4.332227E-008	-0.0001001	7
	31	205	237.7717	4112.114	-335.3839	1	4125.769	-4.662722	-4.927956E-008	-6.406287E-005	7
	32	207	189.0121	4195.473	-363.6192	1	4211.201	-4.953414	-4.719835E-008	-8.80681E-005	7
	33	209	150.2404	4286.222	-389.1666	1	4303.853	-5.187933	-6.45607E-008	-6.578617E-005	7
	34	212	119.1737	4374.723	-414.6871	1	4394.333	-5.41498	-4.31582E-008	-8.567533E-005	7
	35	214	95.0169	4468.192	-438.7459	1	4489.681	-5.608076	-6.196029E-008	-0.0001011	7
	36	217	75.60484	4558.508	-465.4632	1	4582.21	-5.830189	-6.904365E-008	-0.0001429	7
	37	219	54.50582	4673.494	-513.1533	1	4701.582	-6.266021	-3.997556E-008	-7.435679E-005	7
	38	222	45.95588	4748.137	-545.6326	1	4779.385	-6.555394	-3.543771E-008	-0.0001298	7
	39	224	37.20238	4833.517	-594.8403	1	4869.981	-7.015871	-8.634257E-008	-5.174993E-005	7
	40	227	30.04808	4918.692	-655.3126	1	4962.154	-7.588771	-7.365229E-008	-0.0001053	7
	41	229	23.91582	5011.276	-736.2032	1	5065.065	-8.357502	-2.283417E-008	-6.767573E-005	7
	42	232	18.60119	5113.293	-857.278	1	5184.659	-9.51751	-2.389196E-007	-0.0001377	7
	43	234	15.02404	5197.882	-963.735	1	5286.47	-10.50388	-8.355186E-008	-6.790213E-005	7
	44	236	12.01923	5296.744	-1106.248	1	5411.033	-11.7969	-1.958543E-007	-0.0001134	7
	45	239	9.450605	5406.651	-1317.129	1	5564.773	-13.69129	4.049689E-008	-7.219921E-005	7
	46	241	7.512019	5499.912	-1573.705	1	5720.627	-15.96756	-1.695499E-007	-0.0001352	7
	47	244	5.978954	5639.518	-1889.61	1	5947.671	-18.52425	-1.052945E-007	-0.0001088	7
	48	247	4.734848	5792.097	-2272.855	1	6222.078	-21.42535	-3.610313E-008	-0.0001209	7
	49	250	3.75601	5954.848	-2758.352	1	6562.676	-24.8541	-6.849308E-008	-0.0001423	7
	50	254	3.004808	6126.317	-3325.431	1	6970.671	-28.49358	-4.201667E-008	-0.0001592	7
	51	257	2.372217	6337.656	-4077.793	1	7536.198	-32.75816	-6.246229E-008	-0.0000979	7
	52	262	1.878005	6583.095	-5001.371	1	8267.457	-37.22501	-6.215333E-008	-0.0001071	7
	53	266	1.512097	6849.322	-6057.706	1	9143.796	-41.49032	-5.338542E-008	-0.0001686	7
	54	272	1.201923	7185.084	-7444.565	1	10346.35	-46.01613	-5.62501E-008	-0.0001145	7
	55	278	0.956633	7574.162	-9141.231	1	11871.4	-50.35583	-5.350595E-008	-0.0006584	7
