EXPLAIN
TAG	EISPOT
TITLE	LABEL	Potentiostatic EIS	Test Identifier
DATE	LABEL	10/12/2021	Date
TIME	LABEL	19:54:35	Time
NOTES	NOTES	1	Notes...
	
PSTAT	PSTAT	REF3000-16137	Potentiostat
VDC	POTEN	0.00000E+000	T	DC Voltage (V)
FREQINIT	QUANT	3.00000E+005	Initial Freq. (Hz)
FREQFINAL	QUANT	1.00000E+000	Final Freq. (Hz)
PTSPERDEC	QUANT	1.00000E+001	Points/decade
VAC	QUANT	5.00000E+001	AC Voltage (mV rms)
AREA	QUANT	1.00000E+000	Sample Area (cm^2)
SPEED	SELECTOR	2	Optimize for:
ZGUESS	QUANT	1.00000E+003	Estimated Z (ohms)
EOC	QUANT	0	Open Circuit (V)
SEQUENCER	TOGGLE	TRUE	Run as Sequence
PSTATMODEL	IQUANT	5	Pstat Model
PSTATSECTION	LABEL	REF3000-16137	Pstat Section
PSTATSERIALNO	LABEL	16137	Pstat Serial Number
CTRLMODE	IQUANT	1	Control Mode
IESTAB	IQUANT	0	I/E Stability
CASPEED	IQUANT	1	Control Amp Speed
CONVENTION	IQUANT	1	Current Convention
ICHRANGE	IQUANT	2	Ich Range
ICHRANGEMODE	TOGGLE	F	Ich Auto Range
ICHOFFSETENABLE	TOGGLE	T	Ich Offset Enable
ICHOFFSET	QUANT	0	Ich Offset (V)
ICHFILTER	IQUANT	3	Ich Filter
VCHRANGE	IQUANT	2	Vch Range
VCHRANGEMODE	TOGGLE	F	Vch Auto Range
VCHOFFSETENABLE	TOGGLE	T	Vch Offset Enable
VCHOFFSET	QUANT	0	Vch Offset (V)
VCHFILTER	IQUANT	3	Vch Filter
ACHRANGE	IQUANT	2	Ach Range
ACHOFFSETENABLE	TOGGLE	F	Ach Offset Enable
ACHOFFSET	QUANT	0	Ach Offset (V)
ACHFILTER	IQUANT	3	Ach Filter
IERANGELOWERLIMIT	IQUANT	2	I/E Range Lower Limit
IERANGEMODE	TOGGLE	F	I/E AutoRange
IERANGE	IQUANT	11	I/E Range
POSFEEDENABLE	TOGGLE	F	Positive Feedback IR Comp
POSFEEDRESISTANCE	QUANT	0	Positive Feedback Resistance (ohm)
ACHSELECT	IQUANT	0	Ach Select
CABLEID	IQUANT	13	Cable ID
DCCALDATE	LABEL	9/10/2021	DC Calibration Date
ACCALDATE	LABEL	9/10/2021	AC Calibration Date
THERMOSELECT	IQUANT	1	Thermo Select
FRAMEWORKVERSION	QUANT	6.33	Framework Version
INSTRUMENTVERSION	LABEL	3.50	Instrument Version
COMPLIANCEVOLTAGE	IQUANT	0	Compliance Voltage
ZCURVE	TABLE
	Pt	Time	Freq	Zreal	Zimag	Zsig	Zmod	Zphz	Idc	Vdc	IERange
	#	s	Hz	ohm	ohm	V	ohm	°	A	V	#
	0	15	300046.9	316.173	-56.31853	1	321.1497	-10.09992	-1.18438E-005	0.0012912	9
	1	21	238359.4	327.8203	-59.65182	1	333.2034	-10.31299	-2.287096E-005	-0.0004369	10
	2	25	189328.1	341.7667	-52.75811	1	345.8148	-8.775413	7.778466E-005	-0.0020571	9
	3	30	150421.9	351.5992	-51.49997	1	355.3509	-8.333057	1.853598E-005	-0.0001419	10
	4	36	119484.4	363.625	-41.69514	1	366.0077	-6.541265	1.683564E-005	-0.0007037	9
	5	41	94921.88	371.8297	-37.43892	1	373.7098	-5.749639	7.106494E-007	0.0003697	9
	6	44	75421.88	378.9505	-23.72412	1	379.6924	-3.582316	-7.47786E-006	0.0048188	8
	7	46	59859.37	383.1589	-21.58756	1	383.7665	-3.224693	1.422903E-005	-0.0032559	8
	8	49	47578.12	387.8988	-19.67109	1	388.3973	-2.903091	-1.351218E-005	0.0041372	8
	9	51	37828.12	391.7239	-17.41196	1	392.1107	-2.545098	-1.104303E-005	0.0011978	8
	10	54	30046.88	395.4521	-16.92137	1	395.814	-2.450187	6.125434E-006	-0.0048279	8
	11	56	23859.38	399.591	-15.08381	1	399.8755	-2.161782	6.082121E-006	-0.0044991	8
	12	59	18984.38	403.4697	-14.96176	1	403.747	-2.123712	1.161704E-005	-0.0017437	8
	13	61	15046.87	407.576	-15.89666	1	407.8858	-2.233571	-3.358793E-006	-0.0021683	8
	14	63	11953.13	410.0364	-14.07081	1	410.2777	-1.965391	9.666919E-006	-0.0053322	8
	15	66	9515.62	413.7637	-15.32974	1	414.0476	-2.12181	1.502466E-005	-0.0052232	8
	16	68	7546.875	417.8114	-15.63786	1	418.1039	-2.143469	-3.344075E-006	-0.0021454	8
	17	70	5928.309	421.8689	-16.85529	1	422.2055	-2.28797	-1.33515E-005	0.0032867	8
	18	72	4733.456	425.9525	-19.25992	1	426.3877	-2.588929	-1.17149E-005	0.0013596	8
	19	75	3796.875	430.4413	-21.26791	1	430.9664	-2.828658	-7.715693E-006	0.0046285	8
	20	77	2987.132	434.803	-21.93982	1	435.3562	-2.88865	1.169625E-006	-0.0037164	8
	21	79	2390.625	439.4479	-24.57807	1	440.1347	-3.201185	-8.320511E-006	-0.000319	8
	22	82	1884.191	443.9265	-26.96582	1	444.7447	-3.476097	-7.559401E-006	0.0050468	8
	23	84	1516.544	450.9324	-32.72702	1	452.1185	-4.151039	-1.178573E-005	0.0014133	8
	24	87	1193.986	457.7863	-35.71209	1	459.1771	-4.460632	1.507146E-005	-0.0041177	8
	25	89	946.5144	465.0561	-39.57818	1	466.7372	-4.864385	8.008436E-006	0.000459	8
	26	91	751.7689	472.1425	-43.30159	1	474.124	-5.240107	-1.160781E-005	0.0012598	8
	27	94	597.4265	480.7306	-48.69862	1	483.1909	-5.784403	1.02559E-005	-0.00555	8
	28	96	477.4305	489.2405	-54.85398	1	492.3061	-6.397324	3.306253E-008	-0.0001613	8
	29	98	376.6741	498.1418	-61.26494	1	501.895	-7.011424	9.513863E-009	-0.0001295	8
	30	101	298.2954	507.2934	-68.64702	1	511.917	-7.706462	6.215918E-009	-0.0001121	8
	31	103	237.7717	516.7	-77.15985	1	522.4294	-8.493332	-3.472671E-009	-0.0001203	8
	32	106	189.0121	526.4857	-87.47763	1	533.7036	-9.433733	1.50163E-008	-0.0001175	8
	33	108	150.2404	536.629	-99.9464	1	545.8571	-10.55037	-1.606123E-008	-0.0001124	8
	34	110	119.1737	547.1415	-115.3264	1	559.1636	-11.90257	-7.568721E-009	-0.00011	8
	35	113	95.0169	557.9254	-133.7697	1	573.7378	-13.48287	2.702766E-008	-0.0001358	8
	36	115	75.60484	569.4593	-156.6727	1	590.6185	-15.38293	-1.432815E-008	-0.000119	8
	37	118	54.50582	585.483	-198.9844	1	618.373	-18.77103	-3.263014E-009	-0.0001249	8
	38	120	45.95588	595.9698	-226.8806	1	637.6949	-20.8414	5.204105E-008	-0.0001255	8
	39	123	37.20238	608.6694	-268.0548	1	665.0803	-23.76844	-2.809491E-008	-0.000114	8
	40	125	30.04808	622.6818	-318.9045	1	699.5947	-27.11912	-8.481029E-010	-0.0001387	8
	41	128	23.91582	638.6354	-385.606	1	746.0209	-31.12344	-1.343026E-008	-0.0001196	8
	42	130	18.60119	657.6149	-477.5842	1	812.7386	-35.98854	2.523012E-008	-0.0001137	8
	43	132	15.02404	676.3067	-574.8127	1	887.5812	-40.36217	3.021632E-008	-0.0001196	8
	44	135	12.01923	698.3417	-699.1995	1	988.211	-45.03517	-3.140486E-009	-0.0001048	8
	45	137	9.450605	725.4821	-866.0532	1	1129.767	-50.04751	-1.465139E-008	-0.0001182	8
	46	140	7.512019	756.2316	-1064.484	1	1305.761	-54.60922	-4.641954E-008	-0.0001242	8
	47	142	5.978954	792.1944	-1309.516	1	1530.492	-58.82808	6.842699E-009	-0.000128	8
	48	145	4.734848	835.676	-1621.055	1	1823.78	-62.72827	-4.510328E-011	-0.000185	8
	49	149	3.75601	889.4832	-2004.567	1	2193.05	-66.07178	1.314445E-008	-9.327205E-005	8
	50	152	3.004808	951.912	-2461.068	1	2638.748	-68.85411	1.23415E-008	-0.0001268	8
	51	156	2.372217	1038.856	-3064.789	1	3236.071	-71.27514	-2.619717E-008	-0.000194	8
	52	160	1.878005	1138.186	-3808.007	1	3974.467	-73.35897	-9.457873E-009	-0.00011	8
	53	165	1.512097	1264.555	-4654.939	1	4823.646	-74.80188	-2.293623E-008	-0.0001642	7
	54	170	1.201923	1422.854	-5778.494	1	5951.093	-76.16709	-9.775721E-009	-8.392208E-005	7
	55	176	0.956633	1625.862	-7145.968	1	7328.594	-77.18217	-2.012009E-008	-0.0006528	7
