EXPLAIN
TAG	EISPOT
TITLE	LABEL	Potentiostatic EIS	Test Identifier
DATE	LABEL	10/12/2021	Date
TIME	LABEL	18:51:45	Time
NOTES	NOTES	1	Notes...
	
PSTAT	PSTAT	REF3000-16137	Potentiostat
VDC	POTEN	0.00000E+000	T	DC Voltage (V)
FREQINIT	QUANT	3.00000E+005	Initial Freq. (Hz)
FREQFINAL	QUANT	1.00000E+000	Final Freq. (Hz)
PTSPERDEC	QUANT	1.00000E+001	Points/decade
VAC	QUANT	5.00000E+001	AC Voltage (mV rms)
AREA	QUANT	1.00000E+000	Sample Area (cm^2)
SPEED	SELECTOR	2	Optimize for:
ZGUESS	QUANT	1.00000E+003	Estimated Z (ohms)
EOC	QUANT	0	Open Circuit (V)
SEQUENCER	TOGGLE	TRUE	Run as Sequence
PSTATMODEL	IQUANT	5	Pstat Model
PSTATSECTION	LABEL	REF3000-16137	Pstat Section
PSTATSERIALNO	LABEL	16137	Pstat Serial Number
CTRLMODE	IQUANT	1	Control Mode
IESTAB	IQUANT	0	I/E Stability
CASPEED	IQUANT	1	Control Amp Speed
CONVENTION	IQUANT	1	Current Convention
ICHRANGE	IQUANT	2	Ich Range
ICHRANGEMODE	TOGGLE	F	Ich Auto Range
ICHOFFSETENABLE	TOGGLE	T	Ich Offset Enable
ICHOFFSET	QUANT	0	Ich Offset (V)
ICHFILTER	IQUANT	3	Ich Filter
VCHRANGE	IQUANT	2	Vch Range
VCHRANGEMODE	TOGGLE	F	Vch Auto Range
VCHOFFSETENABLE	TOGGLE	T	Vch Offset Enable
VCHOFFSET	QUANT	0	Vch Offset (V)
VCHFILTER	IQUANT	3	Vch Filter
ACHRANGE	IQUANT	2	Ach Range
ACHOFFSETENABLE	TOGGLE	F	Ach Offset Enable
ACHOFFSET	QUANT	0	Ach Offset (V)
ACHFILTER	IQUANT	3	Ach Filter
IERANGELOWERLIMIT	IQUANT	2	I/E Range Lower Limit
IERANGEMODE	TOGGLE	F	I/E AutoRange
IERANGE	IQUANT	11	I/E Range
POSFEEDENABLE	TOGGLE	F	Positive Feedback IR Comp
POSFEEDRESISTANCE	QUANT	0	Positive Feedback Resistance (ohm)
ACHSELECT	IQUANT	0	Ach Select
CABLEID	IQUANT	13	Cable ID
DCCALDATE	LABEL	9/10/2021	DC Calibration Date
ACCALDATE	LABEL	9/10/2021	AC Calibration Date
THERMOSELECT	IQUANT	1	Thermo Select
FRAMEWORKVERSION	QUANT	6.33	Framework Version
INSTRUMENTVERSION	LABEL	3.50	Instrument Version
COMPLIANCEVOLTAGE	IQUANT	0	Compliance Voltage
ZCURVE	TABLE
	Pt	Time	Freq	Zreal	Zimag	Zsig	Zmod	Zphz	Idc	Vdc	IERange
	#	s	Hz	ohm	ohm	V	ohm	°	A	V	#
	0	11	300046.9	2.690767	2.402179	1	3.607033	41.75684	2.691414E-005	-0.0010318	10
	1	14	238359.4	2.649871	1.900228	1	3.260779	35.64439	7.038764E-005	-0.0016009	10
	2	17	189328.1	2.713879	1.293544	1	3.006393	25.48435	-0.0000992	-0.0010828	12
	3	20	150421.9	2.625337	1.162194	1	2.871078	23.87819	-0.0001205	7.085676E-005	11
	4	23	119484.4	2.610236	0.8950343	1	2.759424	18.92653	-6.678647E-005	0.0001199	11
	5	25	94921.88	2.605268	0.6749079	1	2.691268	14.52349	-6.062827E-005	0.0001877	11
	6	28	75421.88	2.613134	0.4220526	1	2.646998	9.174727	-6.902241E-005	-0.0002582	12
	7	32	59859.37	2.60406	0.3391779	1	2.626056	7.420979	-5.012414E-005	0.0003068	11
	8	34	47578.12	2.606637	0.203706	1	2.614585	4.468524	-6.946665E-005	0.0003039	11
	9	37	37828.12	2.610729	0.0794549	1	2.611938	1.7432	-1.722523E-005	0.0003572	11
	10	39	30046.88	2.617603	-0.0389514	1	2.617893	-0.852531	-5.013259E-005	0.0003577	11
	11	42	23859.38	2.624455	-0.1586125	1	2.629244	-3.458542	-1.841997E-005	0.0003795	11
	12	44	18984.38	2.633086	-0.2833914	1	2.648292	-6.142933	-5.183223E-005	0.0003355	11
	13	46	15046.87	2.645811	-0.4232975	1	2.679458	-9.089596	-4.809497E-005	0.0003785	11
	14	49	11953.13	2.659051	-0.5812451	1	2.721837	-12.3304	-2.350244E-005	0.0003693	11
	15	51	9515.62	2.677634	-0.7649187	1	2.784749	-15.94303	-1.578669E-005	0.0004027	11
	16	53	7546.875	2.699167	-0.986533	1	2.873805	-20.07713	-7.488197E-005	0.0003299	11
	17	56	5928.309	2.729182	-1.267141	1	3.009	-24.90513	-3.495788E-005	0.0003887	11
	18	58	4733.456	2.76398	-1.587179	1	3.187275	-29.86603	-7.843797E-005	0.0003539	11
	19	60	3796.875	2.805979	-1.969138	1	3.427977	-35.05984	-4.783054E-005	0.0003723	11
	20	63	2987.132	2.86499	-2.478433	1	3.788244	-40.86229	-6.18652E-005	0.0003735	11
	21	65	2390.625	2.937063	-3.065999	1	4.245785	-46.23043	-1.784031E-005	-9.382798E-005	10
	22	67	1884.191	3.029329	-3.838643	1	4.889991	-51.72067	-3.241382E-006	-0.0001228	10
	23	70	1516.544	3.137992	-4.706378	1	5.656588	-56.30651	2.24599E-005	-0.0001403	10
	24	72	1193.986	3.290888	-5.891317	1	6.748152	-60.81228	-1.398752E-005	-0.0001565	10
	25	74	946.5144	3.485499	-7.32331	1	8.11046	-64.54808	-1.85962E-005	-0.0000965	10
	26	77	751.7689	3.734411	-9.081087	1	9.81896	-67.64609	-1.361429E-005	-0.0001154	10
	27	79	597.4265	4.073687	-11.2518	1	11.96654	-70.09734	2.110213E-005	-0.000134	10
	28	81	477.4305	4.520932	-13.87664	1	14.59451	-71.95467	-8.992968E-007	-0.000112	10
	29	84	376.6741	5.161299	-17.28992	1	18.04385	-73.37885	-6.276167E-007	-0.0001156	10
	30	86	298.2954	6.037138	-21.45201	1	22.28532	-74.28205	-1.866885E-007	-0.0001139	10
	31	88	237.7717	7.223206	-26.41794	1	27.38763	-74.70792	-7.441839E-008	-0.0001223	10
	32	91	189.0121	8.903299	-32.55635	1	33.75181	-74.70509	-1.345561E-006	-0.0001188	10
	33	93	150.2404	11.26364	-40.00176	1	41.55732	-74.27391	-9.951266E-007	-0.0001142	10
	34	96	119.1737	14.60489	-48.98862	1	51.11935	-73.3992	2.016215E-008	-0.0001309	9
	35	98	95.0169	19.18859	-59.47724	1	62.49595	-72.11922	1.76357E-007	-0.0001304	9
	36	100	75.60484	25.59841	-71.83884	1	76.26334	-70.38744	3.294848E-008	-0.0001328	9
	37	103	54.50582	39.07809	-92.55702	1	100.4684	-67.11026	3.572261E-007	-0.000135	9
	38	105	45.95588	48.68176	-104.6241	1	115.3955	-65.04737	9.623825E-007	-0.0001308	9
	39	108	37.20238	63.61314	-120.2715	1	136.0583	-62.12506	5.431376E-007	-0.0001279	9
	40	110	30.04808	82.59493	-136.3363	1	159.4036	-58.79177	7.58713E-007	-0.000134	9
	41	113	23.91582	107.2376	-152.5015	1	186.4313	-54.88548	7.275582E-007	-0.000127	9
	42	115	18.60119	139.6318	-167.5112	1	218.0758	-50.18653	8.059109E-007	-0.0001294	9
	43	117	15.02404	170.5524	-176.6741	1	245.5644	-46.01004	1.872166E-006	-0.0001365	9
	44	120	12.01923	204.8965	-181.9387	1	274.0151	-41.6036	2.538887E-006	-0.0001254	9
	45	122	9.450605	241.9478	-182.215	1	302.8879	-36.98403	2.893535E-006	-0.00018	9
	46	125	7.512019	276.0581	-178.1772	1	328.5654	-32.83957	2.898516E-006	-0.0001341	9
	47	128	5.978954	307.323	-171.1675	1	351.7751	-29.11618	2.608198E-006	-0.0001309	9
	48	132	4.734848	336.5228	-162.0613	1	373.5123	-25.71435	2.198166E-006	-0.0001422	9
	49	137	3.75601	360.5384	-151.4902	1	391.0719	-22.79106	3.092568E-006	-0.0001048	8
	50	143	3.004808	382.9439	-142.7256	1	408.6767	-20.44075	3.225233E-006	-0.0001464	8
	51	149	2.372217	404.7579	-133.9987	1	426.3621	-18.31758	2.611319E-006	-0.00019	8
	52	157	1.878005	426.1235	-127.9395	1	444.9155	-16.71188	2.936098E-006	-0.00011	8
	53	166	1.512097	444.033	-122.81	1	460.7033	-15.4603	2.544951E-006	-0.0002043	8
	54	176	1.201923	464.1776	-119.3262	1	479.2698	-14.41686	2.025899E-006	-9.303207E-005	8
	55	189	0.956633	483.9877	-117.3173	1	498.0035	-13.62554	6.430211E-007	-0.0006677	8
