EXPLAIN
TAG	EISPOT
TITLE	LABEL	Potentiostatic EIS	Test Identifier
DATE	LABEL	10/12/2021	Date
TIME	LABEL	19:08:17	Time
NOTES	NOTES	1	Notes...
	
PSTAT	PSTAT	REF3000-16137	Potentiostat
VDC	POTEN	0.00000E+000	T	DC Voltage (V)
FREQINIT	QUANT	3.00000E+005	Initial Freq. (Hz)
FREQFINAL	QUANT	1.00000E+000	Final Freq. (Hz)
PTSPERDEC	QUANT	1.00000E+001	Points/decade
VAC	QUANT	5.00000E+001	AC Voltage (mV rms)
AREA	QUANT	1.00000E+000	Sample Area (cm^2)
SPEED	SELECTOR	2	Optimize for:
ZGUESS	QUANT	1.00000E+003	Estimated Z (ohms)
EOC	QUANT	0	Open Circuit (V)
SEQUENCER	TOGGLE	TRUE	Run as Sequence
PSTATMODEL	IQUANT	5	Pstat Model
PSTATSECTION	LABEL	REF3000-16137	Pstat Section
PSTATSERIALNO	LABEL	16137	Pstat Serial Number
CTRLMODE	IQUANT	1	Control Mode
IESTAB	IQUANT	0	I/E Stability
CASPEED	IQUANT	1	Control Amp Speed
CONVENTION	IQUANT	1	Current Convention
ICHRANGE	IQUANT	2	Ich Range
ICHRANGEMODE	TOGGLE	F	Ich Auto Range
ICHOFFSETENABLE	TOGGLE	T	Ich Offset Enable
ICHOFFSET	QUANT	0	Ich Offset (V)
ICHFILTER	IQUANT	3	Ich Filter
VCHRANGE	IQUANT	2	Vch Range
VCHRANGEMODE	TOGGLE	F	Vch Auto Range
VCHOFFSETENABLE	TOGGLE	T	Vch Offset Enable
VCHOFFSET	QUANT	0	Vch Offset (V)
VCHFILTER	IQUANT	3	Vch Filter
ACHRANGE	IQUANT	2	Ach Range
ACHOFFSETENABLE	TOGGLE	F	Ach Offset Enable
ACHOFFSET	QUANT	0	Ach Offset (V)
ACHFILTER	IQUANT	3	Ach Filter
IERANGELOWERLIMIT	IQUANT	2	I/E Range Lower Limit
IERANGEMODE	TOGGLE	F	I/E AutoRange
IERANGE	IQUANT	11	I/E Range
POSFEEDENABLE	TOGGLE	F	Positive Feedback IR Comp
POSFEEDRESISTANCE	QUANT	0	Positive Feedback Resistance (ohm)
ACHSELECT	IQUANT	0	Ach Select
CABLEID	IQUANT	13	Cable ID
DCCALDATE	LABEL	9/10/2021	DC Calibration Date
ACCALDATE	LABEL	9/10/2021	AC Calibration Date
THERMOSELECT	IQUANT	1	Thermo Select
FRAMEWORKVERSION	QUANT	6.33	Framework Version
INSTRUMENTVERSION	LABEL	3.50	Instrument Version
COMPLIANCEVOLTAGE	IQUANT	0	Compliance Voltage
ZCURVE	TABLE
	Pt	Time	Freq	Zreal	Zimag	Zsig	Zmod	Zphz	Idc	Vdc	IERange
	#	s	Hz	ohm	ohm	V	ohm	°	A	V	#
	0	10	300046.9	4.027648	2.395211	1	4.686042	30.73962	-0.0001036	-0.0008655	10
	1	13	238359.4	4.011505	1.89457	1	4.436391	25.28062	-9.009718E-005	-0.0011295	10
	2	16	189328.1	3.99581	1.491786	1	4.265199	20.4725	-9.377905E-005	-0.0008221	10
	3	19	150421.9	3.983875	1.173374	1	4.153079	16.41133	3.309728E-005	-0.0004954	10
	4	21	119484.4	3.980233	0.8992351	1	4.080549	12.73083	-0.0001032	-0.0004921	10
	5	24	94921.88	3.983923	0.6854652	1	4.042463	9.7626	3.681844E-005	-0.0003704	10
	6	26	75421.88	3.986921	0.4995066	1	4.01809	7.141168	2.051073E-005	-0.0003254	10
	7	29	59859.37	3.991487	0.3391302	1	4.005867	4.85638	7.8575E-006	-0.0002563	10
	8	31	47578.12	3.998218	0.1989397	1	4.003164	2.848523	-1.488917E-005	-0.0001754	10
	9	34	37828.12	4.005316	0.0688422	1	4.005908	0.984686	2.506905E-005	-0.0002071	10
	10	36	30046.88	4.017158	-0.0557005	1	4.017544	-0.7943927	-2.312241E-005	-0.0001242	10
	11	39	23859.38	4.028008	-0.1819036	1	4.032113	-2.585703	2.133616E-005	-0.0001704	10
	12	41	18984.38	4.041765	-0.3132838	1	4.053889	-4.432227	9.268922E-007	-0.0001441	10
	13	44	15046.87	4.057222	-0.4615029	1	4.083385	-6.489415	-3.097286E-005	-0.0001322	10
	14	46	11953.13	4.075091	-0.6288706	1	4.12333	-8.772717	5.599916E-006	-0.0001557	10
	15	48	9515.62	4.096995	-0.823321	1	4.178902	-11.36266	-1.981206E-005	-9.038303E-005	10
	16	50	7546.875	4.121401	-1.0603	1	4.255606	-14.42744	-2.606541E-005	-0.0001252	10
	17	53	5928.309	4.154735	-1.360986	1	4.371968	-18.13748	-2.440461E-005	-0.0001076	10
	18	55	4733.456	4.192588	-1.704088	1	4.525672	-22.11941	-2.687082E-005	-0.0001111	10
	19	57	3796.875	4.237326	-2.114285	1	4.735518	-26.51767	-3.006035E-005	-0.0001278	10
	20	60	2987.132	4.298837	-2.66385	1	5.057281	-31.78515	-2.546843E-005	-0.0001126	10
	21	62	2390.625	4.368293	-3.294471	1	5.471336	-37.0228	-4.473908E-006	-0.0001466	10
	22	64	1884.191	4.462548	-4.123564	1	6.076028	-42.73911	2.218256E-005	-0.0001433	10
	23	67	1516.544	4.568872	-5.057669	1	6.815762	-47.90675	-2.173296E-006	-0.0001417	10
	24	69	1193.986	4.710349	-6.32936	1	7.889752	-53.34315	1.59753E-005	-0.0001406	10
	25	71	946.5144	4.889567	-7.864934	1	9.260942	-58.13111	-2.170297E-005	-9.117921E-005	10
	26	74	751.7689	5.098045	-9.75715	1	11.00873	-62.41324	-2.035335E-005	-0.000106	10
	27	76	597.4265	5.369472	-12.09675	1	13.2349	-66.06466	-2.0125E-005	-0.0001021	10
	28	78	477.4305	5.712192	-14.92525	1	15.981	-69.05715	-2.69143E-007	-0.0001162	10
	29	81	376.6741	6.165098	-18.62675	1	19.6205	-71.68645	-5.842242E-007	-0.0001164	10
	30	83	298.2954	6.744215	-23.17034	1	24.13191	-73.77126	-1.116308E-006	-0.0001154	10
	31	85	237.7717	7.482842	-28.64885	1	29.60995	-75.36185	-1.575888E-006	-0.0001172	10
	32	88	189.0121	8.471917	-35.5104	1	36.50702	-76.58146	-1.514786E-006	-0.0001108	10
	33	90	150.2404	9.78143	-43.94225	1	45.01775	-77.45071	-9.877482E-009	-0.0001238	9
	34	93	119.1737	11.5985	-54.53198	1	55.75179	-77.99259	5.335977E-008	-0.0001257	9
	35	95	95.0169	14.01361	-67.27422	1	68.71828	-78.23322	5.968288E-008	-0.0001292	9
	36	98	75.60484	17.36622	-83.05862	1	84.85471	-78.1905	-9.579429E-008	-0.0001284	9
	37	100	54.50582	24.5171	-111.9467	1	114.5999	-77.64687	-3.886591E-009	-0.0001349	9
	38	103	45.95588	29.82619	-130.591	1	133.9538	-77.13467	2.469705E-007	-0.000129	9
	39	105	37.20238	38.39005	-157.5221	1	162.1327	-76.30333	1.378022E-007	-0.000129	9
	40	107	30.04808	50.05498	-189.9355	1	196.4204	-75.23614	6.822465E-009	-0.0001231	9
	41	110	23.91582	67.2115	-230.9805	1	240.5605	-73.77588	3.119675E-007	-0.0001722	9
	42	112	18.60119	93.28777	-284.1479	1	299.0696	-71.82462	-7.265285E-008	-0.0001273	9
	43	114	15.02404	123.2821	-336.9544	1	358.799	-69.90385	2.891143E-007	-0.0001267	9
	44	117	12.01923	164.6749	-397.478	1	430.2402	-67.4958	4.361332E-007	-0.0001205	8
	45	119	9.450605	224.7441	-471.4136	1	522.2458	-64.51076	5.835151E-007	-0.000104	8
	46	122	7.512019	300.3517	-545.7307	1	622.923	-61.1731	5.804076E-007	-0.0001252	8
	47	124	5.978954	394.9521	-620.7386	1	735.7333	-57.53297	7.538683E-007	-0.0001151	8
	48	129	4.734848	513.8088	-691.3929	1	861.4079	-53.38211	1.058393E-006	-8.849293E-005	8
	49	134	3.75601	651.8017	-749.0402	1	992.928	-48.97078	1.033651E-006	-0.0001219	8
	50	139	3.004808	798.2368	-788.558	1	1122.054	-44.65052	1.070104E-006	-0.0000964	8
	51	145	2.372217	964.703	-809.8992	1	1259.599	-40.01453	1.238642E-006	-4.244484E-005	8
	52	153	1.878005	1130.211	-816.1379	1	1394.08	-35.83346	1.218806E-006	-0.000137	8
	53	162	1.512097	1280.839	-801.0649	1	1510.713	-32.02277	1.239016E-006	-3.209937E-005	8
	54	173	1.201923	1437.452	-776.5955	1	1633.82	-28.38051	1.240424E-006	-0.000147	8
	55	186	0.956633	1582.142	-743.3569	1	1748.072	-25.16611	8.624926E-007	-0.000662	8
