EXPLAIN
TAG	EISPOT
TITLE	LABEL	Potentiostatic EIS	Test Identifier
DATE	LABEL	10/12/2021	Date
TIME	LABEL	19:40:24	Time
NOTES	NOTES	1	Notes...
	
PSTAT	PSTAT	REF3000-16137	Potentiostat
VDC	POTEN	0.00000E+000	T	DC Voltage (V)
FREQINIT	QUANT	3.00000E+005	Initial Freq. (Hz)
FREQFINAL	QUANT	1.00000E+000	Final Freq. (Hz)
PTSPERDEC	QUANT	1.00000E+001	Points/decade
VAC	QUANT	5.00000E+001	AC Voltage (mV rms)
AREA	QUANT	1.00000E+000	Sample Area (cm^2)
SPEED	SELECTOR	2	Optimize for:
ZGUESS	QUANT	1.00000E+003	Estimated Z (ohms)
EOC	QUANT	0	Open Circuit (V)
SEQUENCER	TOGGLE	TRUE	Run as Sequence
PSTATMODEL	IQUANT	5	Pstat Model
PSTATSECTION	LABEL	REF3000-16137	Pstat Section
PSTATSERIALNO	LABEL	16137	Pstat Serial Number
CTRLMODE	IQUANT	1	Control Mode
IESTAB	IQUANT	0	I/E Stability
CASPEED	IQUANT	1	Control Amp Speed
CONVENTION	IQUANT	1	Current Convention
ICHRANGE	IQUANT	2	Ich Range
ICHRANGEMODE	TOGGLE	F	Ich Auto Range
ICHOFFSETENABLE	TOGGLE	T	Ich Offset Enable
ICHOFFSET	QUANT	0	Ich Offset (V)
ICHFILTER	IQUANT	3	Ich Filter
VCHRANGE	IQUANT	2	Vch Range
VCHRANGEMODE	TOGGLE	F	Vch Auto Range
VCHOFFSETENABLE	TOGGLE	T	Vch Offset Enable
VCHOFFSET	QUANT	0	Vch Offset (V)
VCHFILTER	IQUANT	3	Vch Filter
ACHRANGE	IQUANT	2	Ach Range
ACHOFFSETENABLE	TOGGLE	F	Ach Offset Enable
ACHOFFSET	QUANT	0	Ach Offset (V)
ACHFILTER	IQUANT	3	Ach Filter
IERANGELOWERLIMIT	IQUANT	2	I/E Range Lower Limit
IERANGEMODE	TOGGLE	F	I/E AutoRange
IERANGE	IQUANT	11	I/E Range
POSFEEDENABLE	TOGGLE	F	Positive Feedback IR Comp
POSFEEDRESISTANCE	QUANT	0	Positive Feedback Resistance (ohm)
ACHSELECT	IQUANT	0	Ach Select
CABLEID	IQUANT	13	Cable ID
DCCALDATE	LABEL	9/10/2021	DC Calibration Date
ACCALDATE	LABEL	9/10/2021	AC Calibration Date
THERMOSELECT	IQUANT	1	Thermo Select
FRAMEWORKVERSION	QUANT	6.33	Framework Version
INSTRUMENTVERSION	LABEL	3.50	Instrument Version
COMPLIANCEVOLTAGE	IQUANT	0	Compliance Voltage
ZCURVE	TABLE
	Pt	Time	Freq	Zreal	Zimag	Zsig	Zmod	Zphz	Idc	Vdc	IERange
	#	s	Hz	ohm	ohm	V	ohm	°	A	V	#
	0	7	300046.9	56.01572	0.0690368	1	56.01577	0.0706144	4.06842E-005	-0.0012916	9
	1	10	238359.4	56.72277	-0.2350842	1	56.72326	-0.2374577	7.286071E-006	-0.0013303	9
	2	13	189328.1	57.24221	-0.5471795	1	57.24483	-0.5476749	-3.264402E-005	-0.0003808	9
	3	16	150421.9	57.72854	-0.7632503	1	57.73359	-0.7574844	8.614966E-006	-0.0010115	9
	4	18	119484.4	58.23698	-0.980402	1	58.24523	-0.964466	5.489059E-005	-0.0017171	9
	5	21	94921.88	58.76641	-1.003207	1	58.77498	-0.978006	-1.55774E-005	6.839223E-005	9
	6	23	75421.88	59.20004	-1.265888	1	59.21357	-1.224982	-1.806018E-005	0.0002094	9
	7	26	59859.37	59.67079	-1.523754	1	59.69024	-1.462788	-1.786624E-005	0.0004067	9
	8	28	47578.12	60.17136	-1.795827	1	60.19815	-1.709497	-1.890659E-005	0.0003577	9
	9	31	37828.12	60.70052	-2.063736	1	60.7356	-1.947229	-5.375814E-006	-0.0003378	9
	10	33	30046.88	61.29205	-2.331803	1	61.33639	-2.178718	-1.026893E-005	-0.0001233	9
	11	36	23859.38	61.8771	-2.645309	1	61.93362	-2.447962	-1.536977E-005	0.0004795	9
	12	38	18984.38	62.49198	-2.969713	1	62.5625	-2.720735	-5.107707E-006	0.0004442	9
	13	41	15046.87	63.09134	-3.328036	1	63.17905	-3.019525	1.440672E-005	-0.0007863	9
	14	43	11953.13	63.82461	-3.795473	1	63.93736	-3.403214	-4.627281E-006	-0.0003454	9
	15	45	9515.62	64.55196	-4.271035	1	64.69311	-3.785417	-4.001941E-006	0.0002919	9
	16	48	7546.875	65.39307	-4.84708	1	65.57246	-4.239139	2.047521E-005	-0.0007874	9
	17	50	5928.309	66.21823	-5.511538	1	66.4472	-4.757929	2.044115E-005	-0.0006433	9
	18	52	4733.456	67.13573	-6.133509	1	67.41532	-5.220042	-4.034827E-006	0.000338	9
	19	55	3796.875	68.13821	-6.889337	1	68.4856	-5.773457	2.084714E-005	-0.0006867	9
	20	57	2987.132	69.17541	-7.872739	1	69.62196	-6.492802	2.10254E-005	-0.0006504	9
	21	59	2390.625	70.33121	-8.871938	1	70.88858	-7.189607	2.033921E-005	-0.0006629	9
	22	62	1884.191	71.51842	-10.14861	1	72.23489	-8.07647	-4.379489E-006	0.0003579	9
	23	64	1516.544	72.82095	-11.47065	1	73.71883	-8.951599	-1.551257E-005	0.0005387	9
	24	66	1193.986	74.16596	-13.17913	1	75.32781	-10.07616	-1.827213E-005	0.0002909	9
	25	69	946.5144	75.63181	-15.17393	1	77.13895	-11.34458	2.003689E-005	-0.00048	9
	26	71	751.7689	77.0648	-17.57838	1	79.04419	-12.84926	1.478764E-005	-0.0008129	9
	27	73	597.4265	78.6636	-20.50936	1	81.29327	-14.61298	-1.071491E-005	-0.0001182	9
	28	76	477.4305	80.27373	-23.99333	1	83.78276	-16.64109	4.748349E-007	-0.0001317	9
	29	78	376.6741	82.02635	-28.51207	1	86.84043	-19.16727	3.687672E-007	-0.0001339	9
	30	80	298.2954	83.86697	-34.03289	1	90.50915	-22.08712	3.837806E-007	-0.0001297	9
	31	83	237.7717	85.8168	-40.67169	1	94.96689	-25.35797	3.717495E-007	-0.0001377	9
	32	85	189.0121	87.94289	-48.98161	1	100.6635	-29.11652	3.797843E-007	-0.0001353	9
	33	88	150.2404	90.25581	-59.27479	1	107.9797	-33.29459	3.743702E-007	-0.0001305	9
	34	90	119.1737	92.83062	-72.17016	1	117.5843	-37.86289	4.092619E-007	-0.0001316	9
	35	93	95.0169	95.6558	-87.80063	1	129.8422	-42.54822	4.71342E-007	-0.0001371	9
	36	95	75.60484	98.8838	-107.3477	1	145.9505	-47.35012	4.742205E-007	-0.0001431	9
	37	98	54.50582	104.1436	-143.7426	1	177.5045	-54.07613	3.597566E-007	-0.0001382	9
	38	100	45.95588	107.5775	-167.7215	1	199.2571	-57.32366	4.631273E-007	-0.000124	9
	39	103	37.20238	112.3397	-203.2833	1	232.2591	-61.07381	4.011595E-007	-0.0001286	9
	40	105	30.04808	118.0141	-247.2184	1	273.9421	-64.48169	4.063985E-007	-0.00013	9
	41	107	23.91582	125.3616	-305.0923	1	329.8436	-67.66237	4.716074E-007	-0.000134	9
	42	110	18.60119	135.2492	-384.8868	1	407.9586	-70.63852	4.873007E-007	-0.0001272	9
	43	112	15.02404	145.2685	-467.2413	1	489.3029	-72.72918	2.910405E-007	-0.0001218	8
	44	114	12.01923	159.0307	-575.0607	1	596.6453	-74.54143	3.314302E-007	-0.0001188	8
	45	117	9.450605	177.9578	-719.0953	1	740.7881	-76.10002	2.947501E-007	-0.0001274	8
	46	119	7.512019	201.2827	-890.2119	1	912.684	-77.25928	2.829305E-007	-0.0001357	8
	47	122	5.978954	231.4807	-1100.272	1	1124.359	-78.1191	2.851071E-007	-0.0001254	8
	48	125	4.734848	272.3574	-1366.3	1	1393.181	-78.72646	2.853635E-007	-0.0001309	8
	49	128	3.75601	323.835	-1691.897	1	1722.609	-79.16444	2.710403E-007	-0.0001278	8
	50	132	3.004808	388.1638	-2074.563	1	2110.564	-79.40214	3.176294E-007	-0.0001351	8
	51	136	2.372217	481.1063	-2571.08	1	2615.705	-79.40125	3.10454E-007	-8.207269E-005	8
	52	140	1.878005	596.2694	-3185.292	1	3240.621	-79.39725	2.878174E-007	-0.0001279	8
	53	145	1.512097	729.0525	-3862.047	1	3930.257	-79.30987	3.240283E-007	-0.0001442	8
	54	150	1.201923	919.5078	-4767.874	1	4855.73	-79.08424	2.365828E-008	-0.0001206	7
	55	156	0.956633	1153.214	-5841.51	1	5954.254	-78.83243	2.247234E-008	-0.0006494	7
