EXPLAIN
TAG	EISPOT
TITLE	LABEL	Potentiostatic EIS	Test Identifier
DATE	LABEL	10/12/2021	Date
TIME	LABEL	19:45:55	Time
NOTES	NOTES	1	Notes...
	
PSTAT	PSTAT	REF3000-16137	Potentiostat
VDC	POTEN	0.00000E+000	T	DC Voltage (V)
FREQINIT	QUANT	3.00000E+005	Initial Freq. (Hz)
FREQFINAL	QUANT	1.00000E+000	Final Freq. (Hz)
PTSPERDEC	QUANT	1.00000E+001	Points/decade
VAC	QUANT	5.00000E+001	AC Voltage (mV rms)
AREA	QUANT	1.00000E+000	Sample Area (cm^2)
SPEED	SELECTOR	2	Optimize for:
ZGUESS	QUANT	1.00000E+003	Estimated Z (ohms)
EOC	QUANT	0	Open Circuit (V)
SEQUENCER	TOGGLE	TRUE	Run as Sequence
PSTATMODEL	IQUANT	5	Pstat Model
PSTATSECTION	LABEL	REF3000-16137	Pstat Section
PSTATSERIALNO	LABEL	16137	Pstat Serial Number
CTRLMODE	IQUANT	1	Control Mode
IESTAB	IQUANT	0	I/E Stability
CASPEED	IQUANT	1	Control Amp Speed
CONVENTION	IQUANT	1	Current Convention
ICHRANGE	IQUANT	2	Ich Range
ICHRANGEMODE	TOGGLE	F	Ich Auto Range
ICHOFFSETENABLE	TOGGLE	T	Ich Offset Enable
ICHOFFSET	QUANT	0	Ich Offset (V)
ICHFILTER	IQUANT	3	Ich Filter
VCHRANGE	IQUANT	2	Vch Range
VCHRANGEMODE	TOGGLE	F	Vch Auto Range
VCHOFFSETENABLE	TOGGLE	T	Vch Offset Enable
VCHOFFSET	QUANT	0	Vch Offset (V)
VCHFILTER	IQUANT	3	Vch Filter
ACHRANGE	IQUANT	2	Ach Range
ACHOFFSETENABLE	TOGGLE	F	Ach Offset Enable
ACHOFFSET	QUANT	0	Ach Offset (V)
ACHFILTER	IQUANT	3	Ach Filter
IERANGELOWERLIMIT	IQUANT	2	I/E Range Lower Limit
IERANGEMODE	TOGGLE	F	I/E AutoRange
IERANGE	IQUANT	11	I/E Range
POSFEEDENABLE	TOGGLE	F	Positive Feedback IR Comp
POSFEEDRESISTANCE	QUANT	0	Positive Feedback Resistance (ohm)
ACHSELECT	IQUANT	0	Ach Select
CABLEID	IQUANT	13	Cable ID
DCCALDATE	LABEL	9/10/2021	DC Calibration Date
ACCALDATE	LABEL	9/10/2021	AC Calibration Date
THERMOSELECT	IQUANT	1	Thermo Select
FRAMEWORKVERSION	QUANT	6.33	Framework Version
INSTRUMENTVERSION	LABEL	3.50	Instrument Version
COMPLIANCEVOLTAGE	IQUANT	0	Compliance Voltage
ZCURVE	TABLE
	Pt	Time	Freq	Zreal	Zimag	Zsig	Zmod	Zphz	Idc	Vdc	IERange
	#	s	Hz	ohm	ohm	V	ohm	°	A	V	#
	0	7	300046.9	107.437	-6.451613	1	107.6305	-3.436496	6.226879E-005	-0.0032284	9
	1	10	238359.4	109.2936	-6.093546	1	109.4633	-3.19116	1.039432E-005	-0.0013128	9
	2	13	189328.1	110.6818	-5.617648	1	110.8242	-2.905551	4.866765E-005	-0.0008129	9
	3	16	150421.9	111.944	-5.601777	1	112.0841	-2.864742	6.870009E-005	-0.0026871	9
	4	19	119484.4	113.5216	-4.716965	1	113.6196	-2.379343	-3.529962E-005	-0.0003372	9
	5	22	94921.88	114.5876	-4.430557	1	114.6732	-2.214253	-1.816059E-005	5.847012E-005	9
	6	24	75421.88	115.6371	-4.295339	1	115.7169	-2.127273	-1.87384E-005	0.0004817	9
	7	27	59859.37	116.5555	-4.235161	1	116.6325	-2.080983	1.153879E-005	-2.968079E-005	9
	8	29	47578.12	117.5278	-4.271706	1	117.6054	-2.081576	-2.081194E-005	0.0003443	9
	9	32	37828.12	118.6483	-4.325113	1	118.7271	-2.087692	-2.204122E-005	0.0005801	9
	10	34	30046.88	119.7071	-4.363721	1	119.7866	-2.087698	-5.683368E-006	0.0005335	9
	11	37	23859.38	120.7263	-4.729686	1	120.8189	-2.243525	-1.650038E-005	0.0002012	9
	12	39	18984.38	121.8092	-5.036658	1	121.9133	-2.36776	1.342853E-007	-0.0006155	9
	13	41	15046.87	123.0565	-5.459031	1	123.1775	-2.540089	2.216937E-005	-0.0004033	9
	14	44	11953.13	124.1994	-5.918742	1	124.3403	-2.728376	-2.12996E-005	0.0006355	9
	15	46	9515.62	125.4465	-6.517903	1	125.6157	-2.974278	1.066272E-005	-6.044569E-005	9
	16	48	7546.875	126.901	-7.191779	1	127.1047	-3.243616	2.286025E-005	-0.000641	9
	17	51	5928.309	128.4329	-8.167816	1	128.6924	-3.63888	-1.774785E-005	0.0001066	9
	18	53	4733.456	129.9096	-9.205523	1	130.2353	-4.053262	2.467307E-005	-0.0007195	9
	19	55	3796.875	131.5356	-10.23305	1	131.9331	-4.448469	-2.06077E-005	0.0003441	9
	20	58	2987.132	133.4215	-11.37128	1	133.9052	-4.871446	-2.214671E-005	0.0004919	9
	21	60	2390.625	135.2351	-12.76654	1	135.8364	-5.392885	2.270573E-005	-0.000532	9
	22	62	1884.191	137.5864	-14.51764	1	138.3503	-6.023361	-2.211617E-005	0.0004801	9
	23	65	1516.544	139.5462	-16.07583	1	140.4691	-6.57155	2.451769E-005	-0.000725	9
	24	67	1193.986	142.0745	-18.06867	1	143.2189	-7.247818	2.202825E-005	-0.0004928	9
	25	70	946.5144	144.4445	-20.55303	1	145.8994	-8.098264	-1.647382E-005	1.467195E-006	9
	26	72	751.7689	147.3133	-23.1781	1	149.1255	-8.94155	-1.837971E-005	0.0001128	9
	27	74	597.4265	149.9351	-26.31146	1	152.2262	-9.95325	2.238435E-005	-0.0009325	9
	28	77	477.4305	152.8064	-30.20708	1	155.7635	-11.18217	4.468693E-007	-0.0001288	9
	29	79	376.6741	155.7947	-35.05641	1	159.6901	-12.6813	4.077236E-007	-0.0001343	9
	30	81	298.2954	158.8748	-40.94927	1	164.0672	-14.45315	5.095385E-007	-0.0001358	9
	31	83	237.7717	162.0838	-48.00096	1	169.0422	-16.4966	4.91483E-007	-0.0001274	9
	32	86	189.0121	165.5066	-56.79102	1	174.979	-18.93887	3.834842E-007	-0.0001284	9
	33	88	150.2404	169.142	-67.66977	1	182.1763	-21.8052	5.36337E-007	-0.0001339	9
	34	91	119.1737	173.0601	-81.25069	1	191.1844	-25.14978	4.864061E-007	-0.0001275	9
	35	93	95.0169	177.2344	-97.7048	1	202.3815	-28.86683	3.272661E-007	-0.0001279	9
	36	96	75.60484	181.8668	-118.2528	1	216.9315	-33.03259	4.539082E-007	-0.0001307	9
	37	98	54.50582	188.9851	-156.4627	1	245.3486	-39.6217	3.518467E-007	-0.0001331	9
	38	101	45.95588	193.6136	-181.6427	1	265.4812	-43.17284	3.438057E-007	-0.0001325	9
	39	103	37.20238	199.7142	-218.916	1	296.3275	-47.62622	3.245609E-007	-0.0001253	9
	40	106	30.04808	206.7541	-264.993	1	336.1079	-52.03776	4.628766E-007	-0.0001722	9
	41	108	23.91582	215.3762	-325.5639	1	390.3572	-56.51345	4.463901E-007	-0.0001336	9
	42	110	18.60119	225.575	-407.487	1	465.7571	-61.03214	1.326807E-007	-0.0001237	8
	43	113	15.02404	237.1238	-495.5215	1	549.3353	-64.42731	1.835125E-007	-0.0001344	8
	44	115	12.01923	251.571	-608.8108	1	658.7401	-67.54875	2.285217E-007	-0.0001222	8
	45	118	9.450605	270.9189	-760.5123	1	807.3265	-70.39247	1.389029E-007	-0.0001135	8
	46	120	7.512019	293.9328	-941.2159	1	986.045	-72.65691	1.580965E-007	-0.0001068	8
	47	123	5.978954	322.9125	-1162.949	1	1206.948	-74.48179	1.712157E-007	-0.0001212	8
	48	126	4.734848	361.1981	-1445.677	1	1490.116	-75.97201	2.036144E-007	-0.0001311	8
	49	129	3.75601	409.1156	-1792.521	1	1838.615	-77.14333	1.672874E-007	-0.0001273	8
	50	133	3.004808	467.9393	-2202.269	1	2251.435	-78.00417	2.021544E-007	-0.0001266	8
	51	136	2.372217	552.9381	-2738.039	1	2793.313	-78.58286	1.828326E-007	-8.029204E-005	8
	52	141	1.878005	657.9561	-3404.516	1	3467.511	-79.06187	1.626452E-007	-0.0001361	8
	53	145	1.512097	784.7586	-4142.17	1	4215.853	-79.27213	1.907379E-007	-0.0001033	8
	54	151	1.201923	961.428	-5135.544	1	5224.764	-79.39637	1.298636E-008	-0.0001329	7
	55	157	0.956633	1185.119	-6321.223	1	6431.358	-79.38132	5.549571E-009	-0.000653	7
