EXPLAIN
TAG	EISPOT
TITLE	LABEL	Potentiostatic EIS	Test Identifier
DATE	LABEL	10/12/2021	Date
TIME	LABEL	19:43:10	Time
NOTES	NOTES	1	Notes...
	
PSTAT	PSTAT	REF3000-16137	Potentiostat
VDC	POTEN	0.00000E+000	T	DC Voltage (V)
FREQINIT	QUANT	3.00000E+005	Initial Freq. (Hz)
FREQFINAL	QUANT	1.00000E+000	Final Freq. (Hz)
PTSPERDEC	QUANT	1.00000E+001	Points/decade
VAC	QUANT	5.00000E+001	AC Voltage (mV rms)
AREA	QUANT	1.00000E+000	Sample Area (cm^2)
SPEED	SELECTOR	2	Optimize for:
ZGUESS	QUANT	1.00000E+003	Estimated Z (ohms)
EOC	QUANT	0	Open Circuit (V)
SEQUENCER	TOGGLE	TRUE	Run as Sequence
PSTATMODEL	IQUANT	5	Pstat Model
PSTATSECTION	LABEL	REF3000-16137	Pstat Section
PSTATSERIALNO	LABEL	16137	Pstat Serial Number
CTRLMODE	IQUANT	1	Control Mode
IESTAB	IQUANT	0	I/E Stability
CASPEED	IQUANT	1	Control Amp Speed
CONVENTION	IQUANT	1	Current Convention
ICHRANGE	IQUANT	2	Ich Range
ICHRANGEMODE	TOGGLE	F	Ich Auto Range
ICHOFFSETENABLE	TOGGLE	T	Ich Offset Enable
ICHOFFSET	QUANT	0	Ich Offset (V)
ICHFILTER	IQUANT	3	Ich Filter
VCHRANGE	IQUANT	2	Vch Range
VCHRANGEMODE	TOGGLE	F	Vch Auto Range
VCHOFFSETENABLE	TOGGLE	T	Vch Offset Enable
VCHOFFSET	QUANT	0	Vch Offset (V)
VCHFILTER	IQUANT	3	Vch Filter
ACHRANGE	IQUANT	2	Ach Range
ACHOFFSETENABLE	TOGGLE	F	Ach Offset Enable
ACHOFFSET	QUANT	0	Ach Offset (V)
ACHFILTER	IQUANT	3	Ach Filter
IERANGELOWERLIMIT	IQUANT	2	I/E Range Lower Limit
IERANGEMODE	TOGGLE	F	I/E AutoRange
IERANGE	IQUANT	11	I/E Range
POSFEEDENABLE	TOGGLE	F	Positive Feedback IR Comp
POSFEEDRESISTANCE	QUANT	0	Positive Feedback Resistance (ohm)
ACHSELECT	IQUANT	0	Ach Select
CABLEID	IQUANT	13	Cable ID
DCCALDATE	LABEL	9/10/2021	DC Calibration Date
ACCALDATE	LABEL	9/10/2021	AC Calibration Date
THERMOSELECT	IQUANT	1	Thermo Select
FRAMEWORKVERSION	QUANT	6.33	Framework Version
INSTRUMENTVERSION	LABEL	3.50	Instrument Version
COMPLIANCEVOLTAGE	IQUANT	0	Compliance Voltage
ZCURVE	TABLE
	Pt	Time	Freq	Zreal	Zimag	Zsig	Zmod	Zphz	Idc	Vdc	IERange
	#	s	Hz	ohm	ohm	V	ohm	°	A	V	#
	0	6	300046.9	77.64166	-2.152668	1	77.6715	-1.588157	-6.990321E-005	0.0017833	9
	1	10	238359.4	78.58875	-2.245273	1	78.62082	-1.63649	1.286029E-005	-0.0013252	9
	2	13	189328.1	79.56998	-2.15825	1	79.59925	-1.553705	3.590225E-005	-0.000349	9
	3	15	150421.9	80.4347	-1.956089	1	80.45848	-1.3931	-4.749318E-006	0.0007593	9
	4	18	119484.4	80.94789	-2.342038	1	80.98177	-1.657257	-6.901466E-005	0.0017367	9
	5	20	94921.88	81.71952	-2.214041	1	81.7495	-1.551945	4.084356E-006	0.0001484	9
	6	23	75421.88	82.37328	-2.362159	1	82.40714	-1.64258	1.976476E-005	-0.0009173	9
	7	25	59859.37	83.0659	-2.530114	1	83.10442	-1.74464	-6.018849E-006	0.0003784	9
	8	28	47578.12	83.74441	-2.734268	1	83.78903	-1.870052	1.000774E-005	-0.0007952	9
	9	31	37828.12	84.49639	-2.944978	1	84.5477	-1.996139	3.433901E-006	-0.0006678	9
	10	33	30046.88	85.25486	-3.175875	1	85.314	-2.133369	3.047603E-006	0.0002121	9
	11	36	23859.38	86.048	-3.474195	1	86.11811	-2.312066	1.025675E-005	-0.0007964	9
	12	38	18984.38	86.83309	-3.818233	1	86.917	-2.517794	1.593972E-005	-0.0008235	9
	13	40	15046.87	87.77106	-4.267502	1	87.87475	-2.783576	-1.965645E-005	0.0004505	9
	14	43	11953.13	88.56609	-4.694492	1	88.69042	-3.034153	-1.715282E-005	0.000144	9
	15	45	9515.62	89.56524	-5.278347	1	89.72064	-3.372711	2.345317E-005	-0.0006786	9
	16	47	7546.875	90.53651	-5.925284	1	90.73019	-3.74446	-1.664537E-005	0.0005516	9
	17	50	5928.309	91.78574	-6.613411	1	92.02369	-4.121194	1.045891E-005	-0.0007998	9
	18	52	4733.456	92.93395	-7.370889	1	93.2258	-4.534819	-1.979285E-005	0.0003307	9
	19	54	3796.875	94.18794	-8.297298	1	94.5527	-5.034361	-1.997924E-005	0.0004808	9
	20	57	2987.132	95.6459	-9.443381	1	96.111	-5.638692	-1.66106E-005	0.0001017	9
	21	59	2390.625	97.1013	-10.57948	1	97.6759	-6.218024	5.764532E-006	7.585681E-005	9
	22	61	1884.191	98.758	-11.9103	1	99.4736	-6.876709	3.509011E-006	-0.0006486	9
	23	64	1516.544	100.3638	-13.39487	1	101.2538	-7.601949	2.229147E-005	-0.0007906	9
	24	66	1193.986	102.1874	-15.29131	1	103.3252	-8.510583	2.292309E-005	-0.0008048	9
	25	68	946.5144	104.0688	-17.36755	1	105.508	-9.474509	2.015328E-005	-0.0008787	9
	26	71	751.7689	106.0123	-19.95745	1	107.8745	-10.6615	2.296719E-005	-0.0006915	9
	27	73	597.4265	107.9906	-23.02755	1	110.4185	-12.03728	1.695495E-005	-0.0008952	9
	28	75	477.4305	110.2081	-26.62744	1	113.3792	-13.58295	3.800334E-007	-0.0001269	9
	29	78	376.6741	112.4637	-31.28629	1	116.7344	-15.54604	4.203078E-007	-0.0001275	9
	30	80	298.2954	114.8135	-36.97794	1	120.6213	-17.85217	8.186271E-007	-0.0001706	9
	31	82	237.7717	117.2758	-43.79946	1	125.1879	-20.47935	4.081743E-007	-0.0001278	9
	32	85	189.0121	119.9237	-52.32607	1	130.8423	-23.57299	4.823045E-007	-0.0001261	9
	33	87	150.2404	122.7807	-62.8901	1	137.9502	-27.1222	4.990339E-007	-0.0001355	9
	34	90	119.1737	125.9026	-76.10571	1	147.1174	-31.15216	3.978394E-007	-0.0001278	9
	35	92	95.0169	129.2756	-92.12094	1	158.7402	-35.47342	4.006972E-007	-0.0001332	9
	36	95	75.60484	133.0757	-112.1297	1	174.0179	-40.11753	3.856332E-007	-0.0001354	9
	37	97	54.50582	139.0849	-149.3666	1	204.0955	-47.04141	3.559465E-007	-0.0001346	9
	38	100	45.95588	143.0059	-173.9109	1	225.157	-50.56974	5.553854E-007	-0.0001364	9
	39	102	37.20238	148.2747	-210.243	1	257.2693	-54.80644	3.371026E-007	-0.0001317	9
	40	104	30.04808	154.5399	-255.247	1	298.385	-58.80708	3.601829E-007	-0.000136	9
	41	107	23.91582	162.313	-314.3651	1	353.795	-62.69178	4.520465E-007	-0.0001371	9
	42	109	18.60119	171.9251	-394.3523	1	430.2	-66.44433	1.669749E-007	-0.0001136	8
	43	111	15.02404	182.7756	-480.2796	1	513.8828	-69.16513	2.571252E-007	-0.0001255	8
	44	114	12.01923	196.6327	-590.723	1	622.5898	-71.58906	2.641705E-007	-0.0001178	8
	45	116	9.450605	215.6884	-738.564	1	769.4142	-73.72021	2.792724E-007	-0.0001566	8
	46	119	7.512019	238.3499	-914.3491	1	944.9047	-75.38945	2.277525E-007	-0.0000997	8
	47	122	5.978954	267.7555	-1130.21	1	1161.494	-76.67191	2.66735E-007	-0.0001264	8
	48	125	4.734848	306.5195	-1404.877	1	1437.927	-77.69195	2.342154E-007	-0.0001287	8
	49	128	3.75601	356.4438	-1740.801	1	1776.919	-78.42815	2.634303E-007	-0.0001239	8
	50	131	3.004808	417.4614	-2137.952	1	2178.328	-78.95132	2.357441E-007	-9.107859E-005	8
	51	135	2.372217	503.2159	-2653.827	1	2701.115	-79.26311	2.262574E-007	-0.0001135	8
	52	139	1.878005	617.8051	-3293.676	1	3351.116	-79.3763	2.522331E-007	-0.0001404	8
	53	144	1.512097	746.7076	-4011.813	1	4080.713	-79.45634	2.425414E-007	-3.098828E-005	8
	54	149	1.201923	933.8188	-4952.667	1	5039.934	-79.32231	3.928082E-008	-0.0001143	7
	55	156	0.956633	1160.095	-6078.749	1	6188.457	-79.19535	1.200466E-008	-0.0006452	7
