EXPLAIN
TAG	EISPOT
TITLE	LABEL	Potentiostatic EIS	Test Identifier
DATE	LABEL	10/12/2021	Date
TIME	LABEL	18:48:24	Time
NOTES	NOTES	1	Notes...
	
PSTAT	PSTAT	REF3000-16137	Potentiostat
VDC	POTEN	0.00000E+000	T	DC Voltage (V)
FREQINIT	QUANT	3.00000E+005	Initial Freq. (Hz)
FREQFINAL	QUANT	1.00000E+000	Final Freq. (Hz)
PTSPERDEC	QUANT	1.00000E+001	Points/decade
VAC	QUANT	5.00000E+001	AC Voltage (mV rms)
AREA	QUANT	1.00000E+000	Sample Area (cm^2)
SPEED	SELECTOR	2	Optimize for:
ZGUESS	QUANT	1.00000E+003	Estimated Z (ohms)
EOC	QUANT	0	Open Circuit (V)
SEQUENCER	TOGGLE	TRUE	Run as Sequence
PSTATMODEL	IQUANT	5	Pstat Model
PSTATSECTION	LABEL	REF3000-16137	Pstat Section
PSTATSERIALNO	LABEL	16137	Pstat Serial Number
CTRLMODE	IQUANT	1	Control Mode
IESTAB	IQUANT	0	I/E Stability
CASPEED	IQUANT	1	Control Amp Speed
CONVENTION	IQUANT	1	Current Convention
ICHRANGE	IQUANT	2	Ich Range
ICHRANGEMODE	TOGGLE	F	Ich Auto Range
ICHOFFSETENABLE	TOGGLE	T	Ich Offset Enable
ICHOFFSET	QUANT	0	Ich Offset (V)
ICHFILTER	IQUANT	3	Ich Filter
VCHRANGE	IQUANT	2	Vch Range
VCHRANGEMODE	TOGGLE	F	Vch Auto Range
VCHOFFSETENABLE	TOGGLE	T	Vch Offset Enable
VCHOFFSET	QUANT	0	Vch Offset (V)
VCHFILTER	IQUANT	3	Vch Filter
ACHRANGE	IQUANT	2	Ach Range
ACHOFFSETENABLE	TOGGLE	F	Ach Offset Enable
ACHOFFSET	QUANT	0	Ach Offset (V)
ACHFILTER	IQUANT	3	Ach Filter
IERANGELOWERLIMIT	IQUANT	2	I/E Range Lower Limit
IERANGEMODE	TOGGLE	F	I/E AutoRange
IERANGE	IQUANT	11	I/E Range
POSFEEDENABLE	TOGGLE	F	Positive Feedback IR Comp
POSFEEDRESISTANCE	QUANT	0	Positive Feedback Resistance (ohm)
ACHSELECT	IQUANT	0	Ach Select
CABLEID	IQUANT	13	Cable ID
DCCALDATE	LABEL	9/10/2021	DC Calibration Date
ACCALDATE	LABEL	9/10/2021	AC Calibration Date
THERMOSELECT	IQUANT	1	Thermo Select
FRAMEWORKVERSION	QUANT	6.33	Framework Version
INSTRUMENTVERSION	LABEL	3.50	Instrument Version
COMPLIANCEVOLTAGE	IQUANT	0	Compliance Voltage
ZCURVE	TABLE
	Pt	Time	Freq	Zreal	Zimag	Zsig	Zmod	Zphz	Idc	Vdc	IERange
	#	s	Hz	ohm	ohm	V	ohm	°	A	V	#
	0	10	300046.9	2.545103	2.358965	1	3.470197	42.82634	-2.628364E-005	-0.0005381	11
	1	13	238359.4	2.501456	1.877407	1	3.127609	36.88917	-4.182985E-006	-0.0003923	11
	2	16	189328.1	2.478486	1.477617	1	2.885523	30.80244	-2.261937E-005	-0.0002521	11
	3	19	150421.9	2.459308	1.162212	1	2.720098	25.29434	4.630312E-005	5.315453E-005	11
	4	22	119484.4	2.485215	0.7896402	1	2.607648	17.62688	-7.573026E-005	-0.0003132	12
	5	26	94921.88	2.448294	0.6766135	1	2.540069	15.44874	-4.128288E-005	0.000218	11
	6	29	75421.88	2.456558	0.4291482	1	2.493762	9.90928	-7.497904E-005	-0.0002697	12
	7	32	59859.37	2.452444	0.2866359	1	2.469138	6.66635	-2.624472E-005	-0.0001874	12
	8	36	47578.12	2.448938	0.2065829	1	2.457636	4.821833	-8.749525E-005	0.0002743	11
	9	38	37828.12	2.453573	0.0831862	1	2.454983	1.941819	-1.764512E-005	0.000356	11
	10	41	30046.88	2.458831	-0.0350622	1	2.45908	-0.8169661	-7.82718E-005	0.0002747	11
	11	43	23859.38	2.465487	-0.1539659	1	2.47029	-3.573393	-3.333673E-005	0.0003359	11
	12	46	18984.38	2.474972	-0.2780417	1	2.49054	-6.409812	-1.381026E-005	0.0004022	11
	13	48	15046.87	2.486846	-0.4163904	1	2.521465	-9.50527	-6.110163E-005	0.0003275	11
	14	50	11953.13	2.500856	-0.5729096	1	2.565639	-12.90299	-6.718875E-005	0.0003725	11
	15	53	9515.62	2.516866	-0.7539839	1	2.627377	-16.67677	-8.901193E-005	0.0003214	11
	16	55	7546.875	2.539181	-0.972697	1	2.719114	-20.9606	-1.831535E-005	0.0003705	11
	17	57	5928.309	2.568656	-1.250614	1	2.856927	-25.96029	-1.223306E-005	0.0003974	11
	18	60	4733.456	2.60364	-1.566897	1	3.038768	-31.03995	-7.919719E-005	0.0003561	11
	19	62	3796.875	2.645554	-1.942406	1	3.282057	-36.28668	-7.045189E-005	0.0003333	11
	20	64	2987.132	2.705326	-2.446541	1	3.647513	-42.12438	-5.816081E-005	0.0003683	11
	21	67	2390.625	2.779122	-3.024656	1	4.107562	-47.4225	3.183006E-006	-0.0001362	10
	22	69	1884.191	2.872287	-3.788322	1	4.754095	-52.83077	2.492583E-005	-0.0001352	10
	23	71	1516.544	2.98373	-4.646532	1	5.522038	-57.29381	-2.410668E-005	-0.0001149	10
	24	74	1193.986	3.142475	-5.813083	1	6.608108	-61.60493	-2.263963E-005	-0.0001207	10
	25	76	946.5144	3.35366	-7.217921	1	7.958984	-65.07903	2.446127E-005	-0.0001413	10
	26	78	751.7689	3.617306	-8.953335	1	9.65645	-68.00042	2.427411E-005	-0.0001457	10
	27	81	597.4265	3.976579	-11.09209	1	11.78336	-70.27694	6.48692E-006	-0.0001394	10
	28	83	477.4305	4.466018	-13.67294	1	14.38383	-71.91131	-8.636881E-007	-0.0001111	10
	29	85	376.6741	5.171317	-17.019	1	17.78732	-73.0983	-3.915297E-007	-0.0001163	10
	30	88	298.2954	6.145949	-21.08456	1	21.96204	-73.74909	-3.715693E-007	-0.0001176	10
	31	90	237.7717	7.474015	-25.91229	1	26.96864	-73.91058	-2.847777E-007	-0.0001179	10
	32	92	189.0121	9.364202	-31.84392	1	33.19222	-73.6132	-4.559938E-007	-0.0001138	10
	33	95	150.2404	12.02307	-38.97105	1	40.78354	-72.85433	-1.153835E-006	-0.0001112	10
	34	97	119.1737	15.77442	-47.46455	1	50.01716	-71.61623	1.343088E-007	-0.0001243	9
	35	100	95.0169	20.88976	-57.21111	1	60.90561	-69.94111	7.862905E-007	-0.0001712	9
	36	102	75.60484	27.95464	-68.43492	1	73.92429	-67.78072	1.809823E-007	-0.0001284	9
	37	105	54.50582	42.47782	-86.48745	1	96.3558	-63.8423	4.024428E-007	-0.0001321	9
	38	107	45.95588	52.54828	-96.5183	1	109.8959	-61.43442	1.064249E-006	-0.0001203	9
	39	110	37.20238	67.76473	-108.8481	1	128.2184	-58.09515	6.804317E-007	-0.0001297	9
	40	112	30.04808	86.33253	-120.5618	1	148.285	-54.3941	1.160701E-006	-0.0001321	9
	41	114	23.91582	109.3684	-131.1018	1	170.7312	-50.16431	2.230874E-006	-0.0001354	9
	42	117	18.60119	138.0818	-139.2925	1	196.1351	-45.25009	2.406561E-006	-0.0001221	9
	43	119	15.02404	163.7364	-142.8029	1	217.2608	-41.09334	1.829981E-006	-0.0001305	9
	44	121	12.01923	190.6336	-142.8326	1	238.2065	-36.84245	1.842871E-006	-0.0001298	9
	45	124	9.450605	218.36	-139.2697	1	258.9925	-32.52967	2.943563E-006	-0.0001845	9
	46	127	7.512019	242.6751	-133.5302	1	276.9865	-28.82146	2.93572E-006	-0.0001392	9
	47	130	5.978954	264.3517	-126.4569	1	293.0412	-25.56487	3.315784E-006	-0.0001274	9
	48	134	4.734848	284.3925	-119.0147	1	308.2914	-22.7087	2.315999E-006	-0.0001505	9
	49	139	3.75601	302.0958	-111.732	1	322.0961	-20.29723	2.575542E-006	-0.0001249	9
	50	145	3.004808	317.602	-105.7192	1	334.7351	-18.41089	3.24986E-006	-0.0001582	9
	51	151	2.372217	333.2599	-100.2881	1	348.0228	-16.74815	2.5971E-006	-0.0002482	9
	52	158	1.878005	348.9607	-96.952	1	362.1785	-15.52694	3.120892E-006	-0.0001219	9
	53	167	1.512097	360.9011	-94.02374	1	372.9478	-14.60239	2.992266E-006	-0.0001515	8
	54	178	1.201923	376.386	-92.75089	1	387.6457	-13.84329	2.536839E-006	-9.190009E-005	8
	55	191	0.956633	392.0917	-92.56664	1	402.8703	-13.2834	4.408777E-009	-0.0006626	8
