EXPLAIN
TAG	EISPOT
TITLE	LABEL	Potentiostatic EIS	Test Identifier
DATE	LABEL	10/12/2021	Date
TIME	LABEL	20:01:18	Time
NOTES	NOTES	1	Notes...
	
PSTAT	PSTAT	REF3000-16137	Potentiostat
VDC	POTEN	0.00000E+000	T	DC Voltage (V)
FREQINIT	QUANT	3.00000E+005	Initial Freq. (Hz)
FREQFINAL	QUANT	1.00000E+000	Final Freq. (Hz)
PTSPERDEC	QUANT	1.00000E+001	Points/decade
VAC	QUANT	5.00000E+001	AC Voltage (mV rms)
AREA	QUANT	1.00000E+000	Sample Area (cm^2)
SPEED	SELECTOR	2	Optimize for:
ZGUESS	QUANT	1.00000E+003	Estimated Z (ohms)
EOC	QUANT	0	Open Circuit (V)
SEQUENCER	TOGGLE	TRUE	Run as Sequence
PSTATMODEL	IQUANT	5	Pstat Model
PSTATSECTION	LABEL	REF3000-16137	Pstat Section
PSTATSERIALNO	LABEL	16137	Pstat Serial Number
CTRLMODE	IQUANT	1	Control Mode
IESTAB	IQUANT	0	I/E Stability
CASPEED	IQUANT	1	Control Amp Speed
CONVENTION	IQUANT	1	Current Convention
ICHRANGE	IQUANT	2	Ich Range
ICHRANGEMODE	TOGGLE	F	Ich Auto Range
ICHOFFSETENABLE	TOGGLE	T	Ich Offset Enable
ICHOFFSET	QUANT	0	Ich Offset (V)
ICHFILTER	IQUANT	3	Ich Filter
VCHRANGE	IQUANT	2	Vch Range
VCHRANGEMODE	TOGGLE	F	Vch Auto Range
VCHOFFSETENABLE	TOGGLE	T	Vch Offset Enable
VCHOFFSET	QUANT	0	Vch Offset (V)
VCHFILTER	IQUANT	3	Vch Filter
ACHRANGE	IQUANT	2	Ach Range
ACHOFFSETENABLE	TOGGLE	F	Ach Offset Enable
ACHOFFSET	QUANT	0	Ach Offset (V)
ACHFILTER	IQUANT	3	Ach Filter
IERANGELOWERLIMIT	IQUANT	2	I/E Range Lower Limit
IERANGEMODE	TOGGLE	F	I/E AutoRange
IERANGE	IQUANT	11	I/E Range
POSFEEDENABLE	TOGGLE	F	Positive Feedback IR Comp
POSFEEDRESISTANCE	QUANT	0	Positive Feedback Resistance (ohm)
ACHSELECT	IQUANT	0	Ach Select
CABLEID	IQUANT	13	Cable ID
DCCALDATE	LABEL	9/10/2021	DC Calibration Date
ACCALDATE	LABEL	9/10/2021	AC Calibration Date
THERMOSELECT	IQUANT	1	Thermo Select
FRAMEWORKVERSION	QUANT	6.33	Framework Version
INSTRUMENTVERSION	LABEL	3.50	Instrument Version
COMPLIANCEVOLTAGE	IQUANT	0	Compliance Voltage
ZCURVE	TABLE
	Pt	Time	Freq	Zreal	Zimag	Zsig	Zmod	Zphz	Idc	Vdc	IERange
	#	s	Hz	ohm	ohm	V	ohm	°	A	V	#
	0	24	300046.9	817.6144	-250.2452	1	855.0532	-17.01765	0.0000956	-0.0032688	9
	1	40	238359.4	882.3447	-249.8195	1	917.0289	-15.80849	-6.654015E-005	0.0005449	9
	2	56	189328.1	948.9708	-243.8161	1	979.792	-14.40917	5.587144E-005	-0.0002225	9
	3	66	150421.9	996.076	-240.8175	1	1024.774	-13.59137	-2.030826E-005	0.0014639	9
	4	74	119484.4	1058.64	-193.595	1	1076.196	-10.36326	2.574876E-005	0.0031519	8
	5	80	94921.88	1094.479	-180.7613	1	1109.306	-9.378162	1.964891E-005	-0.0079567	8
	6	83	75421.88	1138.297	-167.6557	1	1150.578	-8.378646	-1.973661E-005	0.0043251	8
	7	85	59859.37	1166.43	-154.7169	1	1176.646	-7.555688	1.651354E-005	-0.0083267	8
	8	88	47578.12	1204.112	-137.3435	1	1211.919	-6.507154	-1.511881E-005	0.0011059	8
	9	93	37828.12	1227.95	-122.2295	1	1234.018	-5.684468	-1.501367E-005	0.001055	8
	10	96	30046.88	1255.654	-105.978	1	1260.118	-4.82437	-2.01267E-005	0.0073705	8
	11	98	23859.38	1273.952	-93.95599	1	1277.412	-4.218019	-1.754948E-005	0.0080553	8
	12	101	18984.38	1290.025	-79.69958	1	1292.485	-3.535321	1.615428E-005	-0.0015291	8
	13	104	15046.87	1305.109	-74.77196	1	1307.25	-3.278989	-1.793991E-005	0.0026918	8
	14	107	11953.13	1322.927	-64.80158	1	1324.513	-2.804306	-1.025026E-005	-0.0012194	8
	15	109	9515.62	1339.008	-56.80987	1	1340.213	-2.429421	-2.046004E-005	0.0073065	8
	16	112	7546.875	1347.365	-54.6329	1	1348.472	-2.321955	1.665745E-005	-0.0083235	8
	17	115	5928.309	1368.259	-50.08858	1	1369.176	-2.096521	1.096085E-005	-0.0076742	8
	18	119	4733.456	1391.828	-48.0545	1	1392.657	-1.977419	-3.594254E-006	-0.0038277	8
	19	123	3796.875	1408.444	-47.15217	1	1409.233	-1.917444	-2.072141E-005	0.006135	8
	20	126	2987.132	1430.052	-55.00136	1	1431.109	-2.202573	1.663774E-005	-0.0083551	8
	21	130	2390.625	1445.8	-58.70875	1	1446.991	-2.325299	2.193243E-005	-0.0055394	8
	22	134	1884.191	1468.571	-60.85297	1	1469.831	-2.3728	2.220194E-005	-0.0071883	8
	23	138	1516.544	1492.907	-69.8913	1	1494.542	-2.680378	-1.824671E-005	0.0027165	8
	24	142	1193.986	1516.756	-76.30013	1	1518.674	-2.879827	1.672284E-005	-0.0084032	8
	25	146	946.5144	1542.526	-85.35133	1	1544.886	-3.16707	2.08515E-005	-0.0082583	8
	26	149	751.7689	1563.709	-95.6327	1	1566.631	-3.499712	-1.838621E-005	0.0027413	8
	27	152	597.4265	1588.705	-114.9053	1	1592.854	-4.136796	1.134814E-005	-0.0078241	8
	28	154	477.4305	1619.469	-124.1877	1	1624.224	-4.3851	-1.012328E-007	-0.0001369	8
	29	156	376.6741	1648.286	-137.2818	1	1653.993	-4.761038	-1.088536E-007	-0.0001434	8
	30	159	298.2954	1678.774	-150.5317	1	1685.509	-5.123875	-1.092268E-007	-0.000125	8
	31	161	237.7717	1710.649	-164.044	1	1718.496	-5.477675	-1.013295E-007	-0.0001403	8
	32	164	189.0121	1743.612	-178.5184	1	1752.727	-5.845818	-1.207754E-007	-0.0001274	8
	33	166	150.2404	1777.286	-194.5493	1	1787.902	-6.246968	-9.026996E-008	-0.0001708	8
	34	169	119.1737	1811.457	-213.1146	1	1823.95	-6.709898	-8.045637E-008	-0.0001393	8
	35	171	95.0169	1846.019	-234.9458	1	1860.91	-7.253132	-1.452488E-007	-0.0001115	8
	36	173	75.60484	1881.695	-261.3972	1	1899.764	-7.908677	-1.180726E-007	-0.0001246	8
	37	176	54.50582	1928.145	-309.4235	1	1952.815	-9.11694	-1.518668E-007	-0.0001131	8
	38	179	45.95588	1959.364	-341.1633	1	1988.844	-9.87728	-1.284625E-007	-0.000114	8
	39	181	37.20238	1995.023	-388.0176	1	2032.406	-11.00621	-1.073879E-007	-0.0001163	8
	40	183	30.04808	2033.174	-445.2943	1	2081.366	-12.35354	-1.98484E-007	-0.0001002	8
	41	186	23.91582	2072.461	-520.6022	1	2136.849	-14.10093	-3.722749E-008	-0.0001202	8
	42	188	18.60119	2120.725	-626.1987	1	2211.243	-16.4506	-2.452577E-007	-0.0001105	8
	43	190	15.02404	2162.727	-736.3558	1	2284.646	-18.80246	-1.95561E-007	-0.0001267	8
	44	193	12.01923	2210.938	-872.1318	1	2376.734	-21.52736	-2.324982E-007	-0.0001165	8
	45	195	9.450605	2262.429	-1063.814	1	2500.057	-25.18331	-5.203313E-008	-0.0001286	8
	46	198	7.512019	2320.99	-1288.442	1	2654.634	-29.03579	-5.466371E-008	-0.0001473	8
	47	200	5.978954	2390.997	-1565.234	1	2857.766	-33.21023	-8.170535E-008	-0.0001301	8
	48	203	4.734848	2468.588	-1914.754	1	3124.133	-37.79886	-1.113797E-007	-0.0000983	8
	49	207	3.75601	2561.09	-2347.18	1	3473.966	-42.50454	-1.504006E-007	-0.0001078	8
	50	210	3.004808	2661.614	-2861.193	1	3907.763	-47.06961	-1.204105E-007	-0.0001032	8
	51	214	2.372217	2790.665	-3541.091	1	4508.563	-51.75904	-3.682432E-008	-0.0001012	7
	52	218	1.878005	2943.729	-4377.72	1	5275.412	-56.08176	-2.541057E-008	-0.0001222	7
	53	223	1.512097	3107.105	-5333.627	1	6172.656	-59.77706	-3.336922E-008	-2.563633E-005	7
	54	228	1.201923	3322.408	-6587.417	1	7377.835	-63.2356	-2.535911E-008	-0.000101	7
	55	234	0.956633	3573.736	-8122.903	1	8874.297	-66.25253	-4.266201E-008	-0.0006546	7
