EXPLAIN
TAG	EISPOT
TITLE	LABEL	Potentiostatic EIS	Test Identifier
DATE	LABEL	10/12/2021	Date
TIME	LABEL	19:48:41	Time
NOTES	NOTES	1	Notes...
	
PSTAT	PSTAT	REF3000-16137	Potentiostat
VDC	POTEN	0.00000E+000	T	DC Voltage (V)
FREQINIT	QUANT	3.00000E+005	Initial Freq. (Hz)
FREQFINAL	QUANT	1.00000E+000	Final Freq. (Hz)
PTSPERDEC	QUANT	1.00000E+001	Points/decade
VAC	QUANT	5.00000E+001	AC Voltage (mV rms)
AREA	QUANT	1.00000E+000	Sample Area (cm^2)
SPEED	SELECTOR	2	Optimize for:
ZGUESS	QUANT	1.00000E+003	Estimated Z (ohms)
EOC	QUANT	0	Open Circuit (V)
SEQUENCER	TOGGLE	TRUE	Run as Sequence
PSTATMODEL	IQUANT	5	Pstat Model
PSTATSECTION	LABEL	REF3000-16137	Pstat Section
PSTATSERIALNO	LABEL	16137	Pstat Serial Number
CTRLMODE	IQUANT	1	Control Mode
IESTAB	IQUANT	0	I/E Stability
CASPEED	IQUANT	1	Control Amp Speed
CONVENTION	IQUANT	1	Current Convention
ICHRANGE	IQUANT	2	Ich Range
ICHRANGEMODE	TOGGLE	F	Ich Auto Range
ICHOFFSETENABLE	TOGGLE	T	Ich Offset Enable
ICHOFFSET	QUANT	0	Ich Offset (V)
ICHFILTER	IQUANT	3	Ich Filter
VCHRANGE	IQUANT	2	Vch Range
VCHRANGEMODE	TOGGLE	F	Vch Auto Range
VCHOFFSETENABLE	TOGGLE	T	Vch Offset Enable
VCHOFFSET	QUANT	0	Vch Offset (V)
VCHFILTER	IQUANT	3	Vch Filter
ACHRANGE	IQUANT	2	Ach Range
ACHOFFSETENABLE	TOGGLE	F	Ach Offset Enable
ACHOFFSET	QUANT	0	Ach Offset (V)
ACHFILTER	IQUANT	3	Ach Filter
IERANGELOWERLIMIT	IQUANT	2	I/E Range Lower Limit
IERANGEMODE	TOGGLE	F	I/E AutoRange
IERANGE	IQUANT	11	I/E Range
POSFEEDENABLE	TOGGLE	F	Positive Feedback IR Comp
POSFEEDRESISTANCE	QUANT	0	Positive Feedback Resistance (ohm)
ACHSELECT	IQUANT	0	Ach Select
CABLEID	IQUANT	13	Cable ID
DCCALDATE	LABEL	9/10/2021	DC Calibration Date
ACCALDATE	LABEL	9/10/2021	AC Calibration Date
THERMOSELECT	IQUANT	1	Thermo Select
FRAMEWORKVERSION	QUANT	6.33	Framework Version
INSTRUMENTVERSION	LABEL	3.50	Instrument Version
COMPLIANCEVOLTAGE	IQUANT	0	Compliance Voltage
ZCURVE	TABLE
	Pt	Time	Freq	Zreal	Zimag	Zsig	Zmod	Zphz	Idc	Vdc	IERange
	#	s	Hz	ohm	ohm	V	ohm	°	A	V	#
	0	7	300046.9	150.1349	-14.20956	1	150.8058	-5.40667	-8.573844E-005	0.0018387	9
	1	12	238359.4	153.4185	-13.33346	1	153.9968	-4.967044	1.817803E-005	-0.0019901	9
	2	15	189328.1	157.0492	-11.50116	1	157.4698	-4.188456	-8.387923E-005	0.0020189	9
	3	18	150421.9	158.7031	-10.57584	1	159.0551	-3.812506	6.691344E-005	-0.0030007	9
	4	20	119484.4	160.7622	-9.56227	1	161.0463	-3.403992	-5.9917E-005	0.000887	9
	5	23	94921.88	162.6403	-8.644442	1	162.8698	-3.042447	-7.520641E-006	0.0005198	9
	6	25	75421.88	164.2463	-7.890172	1	164.4357	-2.750298	2.54884E-005	-0.0009263	9
	7	28	59859.37	165.9104	-7.330566	1	166.0722	-2.529905	2.04497E-005	-0.001029	9
	8	30	47578.12	167.4162	-6.862336	1	167.5567	-2.347222	-2.352586E-005	0.0004705	9
	9	33	37828.12	168.9798	-6.900976	1	169.1207	-2.338606	-9.051685E-006	-0.0002542	9
	10	36	30046.88	170.4226	-6.530127	1	170.5476	-2.194344	-2.319616E-005	0.0006261	9
	11	38	23859.38	171.808	-6.463148	1	171.9295	-2.154362	-1.396832E-005	0.0007311	9
	12	40	18984.38	173.3784	-6.920661	1	173.5165	-2.285834	2.638176E-005	-0.0007444	9
	13	43	15046.87	175.2619	-7.083449	1	175.405	-2.314427	-1.529579E-005	-8.475023E-005	9
	14	45	11953.13	176.3451	-7.974191	1	176.5253	-2.589108	1.184724E-005	3.32949E-005	9
	15	47	9515.62	178.1747	-8.334184	1	178.3696	-2.678077	-7.623286E-006	0.0005459	9
	16	50	7546.875	179.9623	-9.109506	1	180.1927	-2.89778	1.185341E-005	-5.378189E-005	9
	17	52	5928.309	181.9963	-10.03004	1	182.2725	-3.154449	2.358387E-005	-0.0009804	9
	18	54	4733.456	184.1348	-11.48178	1	184.4924	-3.568075	-2.109571E-005	0.0007655	9
	19	57	3796.875	186.1881	-12.42331	1	186.6021	-3.817374	-2.266542E-005	0.0003155	9
	20	59	2987.132	188.7338	-13.91647	1	189.2462	-4.217127	-1.207316E-005	-0.0002053	9
	21	61	2390.625	191.0642	-15.60789	1	191.7006	-4.670079	7.352522E-007	0.0004275	9
	22	64	1884.191	194.2658	-17.35276	1	195.0392	-5.104389	2.384548E-005	-0.0009846	9
	23	66	1516.544	197.1994	-19.33989	1	198.1455	-5.601243	-3.470187E-006	-0.0005264	9
	24	68	1193.986	200.5601	-21.94337	1	201.7569	-6.243921	-1.115795E-005	-0.0002263	9
	25	71	946.5144	203.849	-24.84231	1	205.3571	-6.948161	-2.306086E-005	0.0003341	9
	26	73	751.7689	207.5872	-27.80725	1	209.4413	-7.629614	1.127222E-005	5.177417E-007	9
	27	76	597.4265	211.3007	-31.40747	1	213.6222	-8.454473	2.364698E-005	-0.0005168	9
	28	78	477.4305	215.1225	-35.19582	1	217.9826	-9.29174	3.631083E-007	-0.000132	9
	29	80	376.6741	219.2018	-40.32792	1	222.8806	-10.42449	3.539946E-007	-0.0001336	9
	30	82	298.2954	223.3955	-46.49731	1	228.1832	-11.75762	4.221311E-007	-0.0001292	9
	31	85	237.7717	227.7274	-53.84367	1	234.0062	-13.30267	3.654896E-007	-0.0001311	9
	32	87	189.0121	232.2943	-62.96818	1	240.6775	-15.16674	4.097516E-007	-0.0001318	9
	33	90	150.2404	237.137	-74.21581	1	248.4792	-17.37835	3.57247E-007	-0.0001286	9
	34	92	119.1737	242.2476	-88.24584	1	257.8201	-20.01565	3.59959E-007	-0.0001308	9
	35	95	95.0169	247.6086	-105.2165	1	269.0363	-23.02213	4.251078E-007	-0.0001279	9
	36	97	75.60484	253.4818	-126.3833	1	283.2415	-26.50035	3.981307E-007	-0.0001345	9
	37	100	54.50582	262.2118	-165.713	1	310.1867	-32.29214	3.586404E-007	-0.0001362	9
	38	102	45.95588	267.8966	-191.6126	1	329.3691	-35.57418	3.891918E-007	-0.0001342	9
	39	105	37.20238	275.1966	-229.9191	1	358.6028	-39.87782	3.825149E-007	-0.0001245	9
	40	107	30.04808	282.261	-276.0942	1	394.8409	-44.36722	1.019265E-007	-0.0001105	8
	41	109	23.91582	292.1618	-338.0546	1	446.8103	-49.16496	8.093519E-008	-0.0001187	8
	42	112	18.60119	304.6494	-423.6021	1	521.7758	-54.27678	6.34687E-008	-0.0001238	8
	43	114	15.02404	317.4631	-514.093	1	604.2139	-58.3038	9.564162E-008	-0.0001396	8
	44	116	12.01923	333.1054	-630.1728	1	712.7952	-62.13935	9.21786E-008	-0.000114	8
	45	119	9.450605	353.4842	-785.9544	1	861.7862	-65.7841	1.254764E-007	-0.0001175	8
	46	121	7.512019	377.2489	-971.363	1	1042.048	-68.7753	1.195183E-007	-0.0001061	8
	47	124	5.978954	406.8565	-1199.998	1	1267.094	-71.2709	1.498026E-007	-0.0001321	8
	48	127	4.734848	445.1503	-1491.313	1	1556.333	-73.37987	8.443817E-008	-0.0001173	8
	49	130	3.75601	493.0731	-1848.787	1	1913.409	-75.06675	1.064426E-007	-0.0001207	8
	50	134	3.004808	551.931	-2273.636	1	2339.669	-76.35524	9.061774E-008	-8.121759E-005	8
	51	138	2.372217	629.3842	-2832.178	1	2901.268	-77.47097	9.940705E-008	-5.673488E-005	8
	52	142	1.878005	735.5697	-3518.162	1	3594.235	-78.19083	1.173212E-007	-0.0001418	8
	53	147	1.512097	857.3645	-4308.368	1	4392.847	-78.74518	6.328612E-009	-1.34593E-005	7
	54	152	1.201923	1029.243	-5328.085	1	5426.585	-79.06666	1.886119E-008	-0.0001243	7
	55	158	0.956633	1241.7	-6567.803	1	6684.15	-79.2941	-4.865202E-009	-0.0006544	7
