EXPLAIN
TAG	EISPOT
TITLE	LABEL	Potentiostatic EIS	Test Identifier
DATE	LABEL	2/28/2021	Date
TIME	LABEL	0:59:41	Time
NOTES	NOTES	1	Notes...
	
PSTAT	PSTAT	REF3000-16137	Potentiostat
VDC	POTEN	0.00000E+000	T	DC Voltage (V)
FREQINIT	QUANT	3.00000E+005	Initial Freq. (Hz)
FREQFINAL	QUANT	1.00000E+000	Final Freq. (Hz)
PTSPERDEC	QUANT	1.00000E+001	Points/decade
VAC	QUANT	5.00000E+001	AC Voltage (mV rms)
AREA	QUANT	1.00000E+000	Sample Area (cm^2)
SPEED	SELECTOR	2	Optimize for:
ZGUESS	QUANT	1.00000E+003	Estimated Z (ohms)
EOC	QUANT	0	Open Circuit (V)
SEQUENCER	TOGGLE	TRUE	Run as Sequence
PSTATMODEL	IQUANT	5	Pstat Model
PSTATSECTION	LABEL	REF3000-16137	Pstat Section
PSTATSERIALNO	LABEL	16137	Pstat Serial Number
CTRLMODE	IQUANT	1	Control Mode
IESTAB	IQUANT	0	I/E Stability
CASPEED	IQUANT	1	Control Amp Speed
CONVENTION	IQUANT	1	Current Convention
ICHRANGE	IQUANT	2	Ich Range
ICHRANGEMODE	TOGGLE	F	Ich Auto Range
ICHOFFSETENABLE	TOGGLE	T	Ich Offset Enable
ICHOFFSET	QUANT	0	Ich Offset (V)
ICHFILTER	IQUANT	3	Ich Filter
VCHRANGE	IQUANT	2	Vch Range
VCHRANGEMODE	TOGGLE	F	Vch Auto Range
VCHOFFSETENABLE	TOGGLE	T	Vch Offset Enable
VCHOFFSET	QUANT	0	Vch Offset (V)
VCHFILTER	IQUANT	3	Vch Filter
ACHRANGE	IQUANT	2	Ach Range
ACHOFFSETENABLE	TOGGLE	F	Ach Offset Enable
ACHOFFSET	QUANT	0	Ach Offset (V)
ACHFILTER	IQUANT	3	Ach Filter
IERANGELOWERLIMIT	IQUANT	2	I/E Range Lower Limit
IERANGEMODE	TOGGLE	F	I/E AutoRange
IERANGE	IQUANT	11	I/E Range
POSFEEDENABLE	TOGGLE	F	Positive Feedback IR Comp
POSFEEDRESISTANCE	QUANT	0	Positive Feedback Resistance (ohm)
ACHSELECT	IQUANT	0	Ach Select
CABLEID	IQUANT	13	Cable ID
DCCALDATE	LABEL	7/31/2020	DC Calibration Date
ACCALDATE	LABEL	7/31/2020	AC Calibration Date
THERMOSELECT	IQUANT	1	Thermo Select
FRAMEWORKVERSION	QUANT	6.33	Framework Version
INSTRUMENTVERSION	LABEL	3.50	Instrument Version
COMPLIANCEVOLTAGE	IQUANT	0	Compliance Voltage
ZCURVE	TABLE
	Pt	Time	Freq	Zreal	Zimag	Zsig	Zmod	Zphz	Idc	Vdc	IERange
	#	s	Hz	ohm	ohm	V	ohm	°	A	V	#
	0	6	300046.9	32.87899	-5.843709	1	33.39426	-10.07816	9.670291E-006	3.758287E-005	11
	1	11	238359.4	33.79737	-7.015799	1	34.51788	-11.72714	8.127534E-005	0.0001908	10
	2	14	189328.1	34.74527	-8.710752	1	35.82054	-14.07416	4.929009E-005	0.0007173	10
	3	16	150421.9	35.92217	-10.13906	1	37.32563	-15.76176	-4.965829E-005	0.0019422	9
	4	19	119484.4	37.09207	-12.17987	1	39.04063	-18.17856	1.882357E-005	0.0001119	9
	5	21	94921.88	38.55738	-14.30646	1	41.12598	-20.35703	1.290489E-005	-3.776315E-005	9
	6	24	75421.88	40.05758	-16.82685	1	43.44828	-22.78565	1.934667E-005	-0.0003788	9
	7	26	59859.37	41.71862	-19.67682	1	46.12614	-25.25117	-1.379047E-005	0.0004786	9
	8	29	47578.12	43.46392	-22.86297	1	49.11036	-27.74535	1.504887E-005	-0.0004312	9
	9	32	37828.12	45.23829	-26.65236	1	52.50573	-30.50467	-5.348365E-006	0.0005352	9
	10	34	30046.88	47.10598	-31.26563	1	56.53772	-33.5734	1.702994E-005	-0.0002706	9
	11	37	23859.38	49.10142	-36.85115	1	61.39183	-36.88863	1.795331E-005	-0.0003547	9
	12	39	18984.38	51.12809	-43.72004	1	67.27201	-40.53402	-3.555802E-006	-2.674364E-005	9
	13	41	15046.87	53.48008	-52.23127	1	74.75443	-44.32318	-1.295426E-005	0.0005487	9
	14	44	11953.13	55.99861	-62.95217	1	84.25449	-48.34556	1.738242E-005	-0.0003764	9
	15	46	9515.62	59.02248	-75.78339	1	96.0561	-52.08743	7.357916E-006	-0.0003121	9
	16	48	7546.875	62.37505	-92.24118	1	111.3512	-55.93277	1.865833E-005	-0.0002485	9
	17	50	5928.309	66.78588	-113.1775	1	131.4135	-59.45521	1.825828E-005	-0.0003489	9
	18	53	4733.456	71.59616	-137.5371	1	155.0563	-62.50036	1.569802E-005	-0.0001579	9
	19	55	3796.875	77.44037	-166.1605	1	183.3202	-65.01176	1.637836E-005	-0.0001373	9
	20	57	2987.132	84.91962	-205.0468	1	221.9359	-67.50323	1.600456E-005	-0.0001602	9
	21	60	2390.625	95.022	-247.8196	1	265.4124	-69.02156	-8.29331E-006	0.0001592	9
	22	62	1884.191	105.446	-306.6629	1	324.2854	-71.02447	7.487495E-006	-0.0003214	9
	23	64	1516.544	117.346	-370.4285	1	388.5709	-72.4226	1.746509E-005	-0.0003936	9
	24	67	1193.986	133.9613	-455.2505	1	474.5509	-73.60304	1.79826E-006	0.0006415	8
	25	69	946.5144	154.4482	-558.0917	1	579.0687	-74.53092	2.683863E-006	0.0003019	8
	26	72	751.7689	178.5104	-683.7471	1	706.6655	-75.36802	3.523719E-006	8.298987E-006	8
	27	74	597.4265	208.4618	-837.3683	1	862.9264	-76.02046	3.553326E-006	-4.129225E-006	8
	28	76	477.4305	244.0154	-1018.783	1	1047.598	-76.53046	5.248341E-007	0.0006583	8
	29	78	376.6741	290.3059	-1255.304	1	1288.436	-76.97851	5.260842E-007	0.0006489	8
	30	81	298.2954	346.589	-1541.656	1	1580.135	-77.32964	5.393035E-007	0.0006573	8
	31	83	237.7717	414.0643	-1882.315	1	1927.319	-77.59389	5.402854E-007	0.0006573	8
	32	86	189.0121	497.9937	-2303.954	1	2357.159	-77.8033	5.532372E-007	0.0006471	8
	33	88	150.2404	601.7172	-2819.844	1	2883.329	-77.9545	5.364296E-007	0.0006625	8
	34	90	119.1737	731.2505	-3457.017	1	3533.51	-78.05648	5.389343E-007	0.0006678	8
	35	93	95.0169	886.8215	-4219.216	1	4311.408	-78.13	5.349685E-007	0.0006605	8
	36	95	75.60484	1084.411	-5170.242	1	5282.74	-78.15444	4.230654E-008	0.0006373	7
	37	98	54.50582	1449.438	-6899.883	1	7050.479	-78.13654	4.677591E-008	0.0006297	7
	38	100	45.95588	1694.451	-8021.538	1	8198.551	-78.07232	4.81731E-008	0.0006408	7
	39	103	37.20238	2072.451	-9668.93	1	9888.54	-77.9022	4.432281E-008	0.000638	7
	40	105	30.04808	2555.922	-11683.78	1	11960.08	-77.66047	4.462468E-008	0.0006315	7
	41	108	23.91582	3203.515	-14255.72	1	14611.23	-77.335	4.603101E-008	0.0006308	7
	42	110	18.60119	4191.03	-17785.79	1	18272.9	-76.74075	4.101128E-008	0.0006373	7
	43	112	15.02404	5303.573	-21424.64	1	22071.32	-76.09619	5.167834E-008	0.0006417	7
	44	114	12.01923	6859.88	-25936.77	1	26828.6	-75.18536	4.272488E-008	0.0006318	7
	45	117	9.450605	9103.169	-31822.65	1	33099.08	-74.03632	4.179719E-008	0.0006369	7
	46	119	7.512019	11936.21	-38444.88	1	40255.21	-72.75169	4.602546E-008	0.0006182	7
	47	122	5.978954	15731.85	-46168.3	1	48775.02	-71.18345	-5.584131E-009	0.0006746	6
	48	125	4.734848	20904.43	-55337.14	1	59153.98	-69.30519	-4.186062E-009	0.0006675	6
	49	128	3.75601	27570.96	-65699.48	1	71250.12	-67.23451	-3.077197E-009	0.0006823	6
	50	134	3.004808	35750.03	-76888.81	1	84793.59	-65.06358	-1.503646E-009	0.0006441	6
	51	140	2.372217	46688.46	-89637.98	1	101068.2	-62.48699	-4.537478E-009	0.0005962	6
	52	145	1.878005	60057.52	-102588.6	1	118875.2	-59.6544	-3.112382E-009	0.0006838	6
	53	149	1.512097	74413.17	-114787.2	1	136797	-57.04583	-1.667352E-009	0.0005835	6
	54	155	1.201923	91814.43	-127940.4	1	157475.8	-54.33547	-3.131013E-009	0.0007043	6
	55	161	0.956633	110584.6	-141039.3	1	179223.4	-51.90108	-5.455043E-009	3.067829E-005	6
