EXPLAIN
TAG	EISPOT
TITLE	LABEL	Potentiostatic EIS	Test Identifier
DATE	LABEL	2/28/2021	Date
TIME	LABEL	1:28:07	Time
NOTES	NOTES	1	Notes...
	
PSTAT	PSTAT	REF3000-16137	Potentiostat
VDC	POTEN	0.00000E+000	T	DC Voltage (V)
FREQINIT	QUANT	3.00000E+005	Initial Freq. (Hz)
FREQFINAL	QUANT	1.00000E+000	Final Freq. (Hz)
PTSPERDEC	QUANT	1.00000E+001	Points/decade
VAC	QUANT	5.00000E+001	AC Voltage (mV rms)
AREA	QUANT	1.00000E+000	Sample Area (cm^2)
SPEED	SELECTOR	2	Optimize for:
ZGUESS	QUANT	1.00000E+003	Estimated Z (ohms)
EOC	QUANT	0	Open Circuit (V)
SEQUENCER	TOGGLE	TRUE	Run as Sequence
PSTATMODEL	IQUANT	5	Pstat Model
PSTATSECTION	LABEL	REF3000-16137	Pstat Section
PSTATSERIALNO	LABEL	16137	Pstat Serial Number
CTRLMODE	IQUANT	1	Control Mode
IESTAB	IQUANT	0	I/E Stability
CASPEED	IQUANT	1	Control Amp Speed
CONVENTION	IQUANT	1	Current Convention
ICHRANGE	IQUANT	2	Ich Range
ICHRANGEMODE	TOGGLE	F	Ich Auto Range
ICHOFFSETENABLE	TOGGLE	T	Ich Offset Enable
ICHOFFSET	QUANT	0	Ich Offset (V)
ICHFILTER	IQUANT	3	Ich Filter
VCHRANGE	IQUANT	2	Vch Range
VCHRANGEMODE	TOGGLE	F	Vch Auto Range
VCHOFFSETENABLE	TOGGLE	T	Vch Offset Enable
VCHOFFSET	QUANT	0	Vch Offset (V)
VCHFILTER	IQUANT	3	Vch Filter
ACHRANGE	IQUANT	2	Ach Range
ACHOFFSETENABLE	TOGGLE	F	Ach Offset Enable
ACHOFFSET	QUANT	0	Ach Offset (V)
ACHFILTER	IQUANT	3	Ach Filter
IERANGELOWERLIMIT	IQUANT	2	I/E Range Lower Limit
IERANGEMODE	TOGGLE	F	I/E AutoRange
IERANGE	IQUANT	11	I/E Range
POSFEEDENABLE	TOGGLE	F	Positive Feedback IR Comp
POSFEEDRESISTANCE	QUANT	0	Positive Feedback Resistance (ohm)
ACHSELECT	IQUANT	0	Ach Select
CABLEID	IQUANT	13	Cable ID
DCCALDATE	LABEL	7/31/2020	DC Calibration Date
ACCALDATE	LABEL	7/31/2020	AC Calibration Date
THERMOSELECT	IQUANT	1	Thermo Select
FRAMEWORKVERSION	QUANT	6.33	Framework Version
INSTRUMENTVERSION	LABEL	3.50	Instrument Version
COMPLIANCEVOLTAGE	IQUANT	0	Compliance Voltage
ZCURVE	TABLE
	Pt	Time	Freq	Zreal	Zimag	Zsig	Zmod	Zphz	Idc	Vdc	IERange
	#	s	Hz	ohm	ohm	V	ohm	°	A	V	#
	0	7	300046.9	75.60043	-7.043489	1	75.92783	-5.322729	1.571683E-005	0.0003412	9
	1	10	238359.4	76.77773	-9.348418	1	77.34476	-6.942133	3.087146E-006	-0.0014343	9
	2	13	189328.1	78.04753	-11.78511	1	78.93229	-8.586742	6.060357E-006	0.0006396	9
	3	16	150421.9	79.42616	-14.66074	1	80.76789	-10.45813	2.717853E-005	0.000173	9
	4	18	119484.4	81.20545	-17.79574	1	83.13251	-12.36066	1.076495E-005	0.0007037	9
	5	21	94921.88	83.18118	-20.85279	1	85.75517	-14.07351	2.308918E-005	-0.0004307	9
	6	24	75421.88	85.46332	-24.79797	1	88.9883	-16.18057	2.08005E-005	-0.0006269	9
	7	26	59859.37	88.11996	-29.25965	1	92.85072	-18.3684	-1.424326E-005	0.0002026	9
	8	29	47578.12	91.21322	-34.22492	1	97.4228	-20.56704	3.065374E-006	0.0003882	9
	9	31	37828.12	94.69106	-39.73552	1	102.6903	-22.76454	2.318136E-005	-0.0005026	9
	10	34	30046.88	98.4549	-46.16039	1	108.7389	-25.11943	3.980653E-006	0.0004421	9
	11	36	23859.38	102.586	-53.47911	1	115.6888	-27.53348	-1.016777E-005	0.0007968	9
	12	39	18984.38	106.8818	-62.2358	1	123.6811	-30.21166	1.291309E-005	-0.0005834	9
	13	41	15046.87	111.3321	-72.91917	1	133.0865	-33.2236	1.17235E-005	0.0001937	9
	14	43	11953.13	115.8657	-85.6533	1	144.088	-36.47352	-1.168296E-005	0.0007413	9
	15	45	9515.62	120.7328	-101	1	157.4084	-39.91443	-1.795339E-005	0.0007858	9
	16	48	7546.875	125.9435	-121.2235	1	174.8053	-43.906	1.082701E-005	0.0001514	9
	17	50	5928.309	131.6416	-146.7539	1	197.1452	-48.10717	-1.811407E-005	0.0007332	9
	18	52	4733.456	137.9789	-176.8733	1	224.3264	-52.0422	-2.951011E-006	-0.0001901	9
	19	55	3796.875	144.3043	-213.5881	1	257.7665	-55.95626	-1.428501E-005	0.0001815	9
	20	57	2987.132	153.2975	-261.5765	1	303.1871	-59.62748	1.724722E-005	-0.0006398	9
	21	59	2390.625	163.525	-317.5364	1	357.1691	-62.75242	-1.961492E-005	0.0006867	9
	22	62	1884.191	173.8116	-393.6503	1	430.3151	-66.17672	-1.541118E-005	0.0007904	9
	23	64	1516.544	187.7319	-474.4337	1	510.226	-68.41145	6.130939E-006	-0.0008489	8
	24	67	1193.986	204.716	-587.1525	1	621.8173	-70.77843	1.04243E-006	0.0014908	8
	25	69	946.5144	227.6996	-721.5264	1	756.6025	-72.48532	-4.709683E-006	0.0017096	8
	26	71	751.7689	252.2625	-890.5953	1	925.6329	-74.18514	-7.143165E-007	0.0019945	8
	27	74	597.4265	283.9749	-1096.433	1	1132.611	-75.47953	6.185522E-006	-0.0008715	8
	28	76	477.4305	320.6303	-1341.358	1	1379.146	-76.5566	3.58476E-007	0.0006591	8
	29	78	376.6741	369.6345	-1662.995	1	1703.579	-77.46857	3.569918E-007	0.0006528	8
	30	81	298.2954	429.7539	-2055.189	1	2099.641	-78.18925	3.662614E-007	0.0006492	8
	31	83	237.7717	503.0022	-2525.466	1	2575.071	-78.73569	3.444635E-007	0.0006532	8
	32	85	189.0121	595.7916	-3111.69	1	3168.214	-79.16083	3.608108E-007	0.0006258	8
	33	88	150.2404	712.8063	-3832.181	1	3897.911	-79.4631	3.55513E-007	0.0006483	8
	34	90	119.1737	865.17	-4737.026	1	4815.385	-79.64958	3.340255E-008	0.0006366	7
	35	93	95.0169	1050.568	-5813.933	1	5908.089	-79.75727	3.194933E-008	0.0006296	7
	36	95	75.60484	1285.766	-7143.869	1	7258.654	-79.79704	3.134741E-008	0.0006263	7
	37	98	54.50582	1727.981	-9578.32	1	9732.94	-79.77353	3.111431E-008	0.0006289	7
	38	100	45.95588	2025.704	-11158.25	1	11340.63	-79.7104	3.392742E-008	0.0006458	7
	39	103	37.20238	2465.419	-13476.91	1	13700.56	-79.63314	3.107732E-008	0.0006386	7
	40	105	30.04808	3008.84	-16286.71	1	16562.31	-79.53307	3.100245E-008	0.0006321	7
	41	107	23.91582	3728.567	-19944.17	1	20289.71	-79.41077	3.174765E-008	0.0006316	7
	42	110	18.60119	4706.203	-24948.09	1	25388.09	-79.31727	3.00968E-008	0.000642	7
	43	112	15.02404	5781.128	-30188.1	1	30736.67	-79.15891	3.647333E-008	0.0006293	7
	44	114	12.01923	7207.534	-36819.12	1	37517.95	-78.92411	2.978142E-008	0.0006291	7
	45	117	9.450605	9175.773	-45595.02	1	46509.15	-78.62149	2.891561E-009	0.0006775	6
	46	119	7.512019	11657.67	-55920.56	1	57122.77	-78.2243	2.912313E-009	0.0006879	6
	47	122	5.978954	14895.97	-68450.08	1	70052.15	-77.72282	2.105871E-009	0.0006772	6
	48	127	4.734848	19350.49	-84055.88	1	86254.46	-77.03582	2.965273E-009	0.0006996	6
	49	130	3.75601	25268.29	-102884	1	105941.5	-76.20129	2.050325E-009	0.0006659	6
	50	135	3.004808	32901.75	-124628.3	1	128898.2	-75.21138	2.060285E-009	0.0006904	6
	51	142	2.372217	43912.95	-152366.8	1	158568.5	-73.92272	2.280195E-009	0.0007415	6
	52	146	1.878005	58504.2	-184623.4	1	193671.3	-72.41743	1.776653E-009	0.0006439	6
	53	151	1.512097	76465.48	-219092.7	1	232053	-70.76051	1.551143E-009	0.0007359	6
	54	156	1.201923	101694.5	-262008.7	1	281052.2	-68.78707	2.292372E-009	0.0006418	6
	55	162	0.956633	134070	-309676	1	337452.2	-66.59045	5.362135E-010	-1.470441E-005	6
