EXPLAIN
TAG	EISPOT
TITLE	LABEL	Potentiostatic EIS	Test Identifier
DATE	LABEL	2/28/2021	Date
TIME	LABEL	2:13:06	Time
NOTES	NOTES	1	Notes...
	
PSTAT	PSTAT	REF3000-16137	Potentiostat
VDC	POTEN	0.00000E+000	T	DC Voltage (V)
FREQINIT	QUANT	3.00000E+005	Initial Freq. (Hz)
FREQFINAL	QUANT	1.00000E+000	Final Freq. (Hz)
PTSPERDEC	QUANT	1.00000E+001	Points/decade
VAC	QUANT	5.00000E+001	AC Voltage (mV rms)
AREA	QUANT	1.00000E+000	Sample Area (cm^2)
SPEED	SELECTOR	2	Optimize for:
ZGUESS	QUANT	1.00000E+003	Estimated Z (ohms)
EOC	QUANT	0	Open Circuit (V)
SEQUENCER	TOGGLE	TRUE	Run as Sequence
PSTATMODEL	IQUANT	5	Pstat Model
PSTATSECTION	LABEL	REF3000-16137	Pstat Section
PSTATSERIALNO	LABEL	16137	Pstat Serial Number
CTRLMODE	IQUANT	1	Control Mode
IESTAB	IQUANT	0	I/E Stability
CASPEED	IQUANT	1	Control Amp Speed
CONVENTION	IQUANT	1	Current Convention
ICHRANGE	IQUANT	2	Ich Range
ICHRANGEMODE	TOGGLE	F	Ich Auto Range
ICHOFFSETENABLE	TOGGLE	T	Ich Offset Enable
ICHOFFSET	QUANT	0	Ich Offset (V)
ICHFILTER	IQUANT	3	Ich Filter
VCHRANGE	IQUANT	2	Vch Range
VCHRANGEMODE	TOGGLE	F	Vch Auto Range
VCHOFFSETENABLE	TOGGLE	T	Vch Offset Enable
VCHOFFSET	QUANT	0	Vch Offset (V)
VCHFILTER	IQUANT	3	Vch Filter
ACHRANGE	IQUANT	2	Ach Range
ACHOFFSETENABLE	TOGGLE	F	Ach Offset Enable
ACHOFFSET	QUANT	0	Ach Offset (V)
ACHFILTER	IQUANT	3	Ach Filter
IERANGELOWERLIMIT	IQUANT	2	I/E Range Lower Limit
IERANGEMODE	TOGGLE	F	I/E AutoRange
IERANGE	IQUANT	11	I/E Range
POSFEEDENABLE	TOGGLE	F	Positive Feedback IR Comp
POSFEEDRESISTANCE	QUANT	0	Positive Feedback Resistance (ohm)
ACHSELECT	IQUANT	0	Ach Select
CABLEID	IQUANT	13	Cable ID
DCCALDATE	LABEL	7/31/2020	DC Calibration Date
ACCALDATE	LABEL	7/31/2020	AC Calibration Date
THERMOSELECT	IQUANT	1	Thermo Select
FRAMEWORKVERSION	QUANT	6.33	Framework Version
INSTRUMENTVERSION	LABEL	3.50	Instrument Version
COMPLIANCEVOLTAGE	IQUANT	0	Compliance Voltage
ZCURVE	TABLE
	Pt	Time	Freq	Zreal	Zimag	Zsig	Zmod	Zphz	Idc	Vdc	IERange
	#	s	Hz	ohm	ohm	V	ohm	°	A	V	#
	0	22	300046.9	1872.798	-873.6244	1	2066.542	-25.00814	8.599058E-005	-0.0035722	9
	1	35	238359.4	2064.099	-814.3843	1	2218.947	-21.53157	-8.869272E-005	0.0021772	9
	2	56	189328.1	2215.826	-673.5151	1	2315.925	-16.907	2.066808E-005	-0.0003812	9
	3	64	150421.9	2358.417	-564.0395	1	2424.927	-13.45023	4.965128E-005	0.0002053	9
	4	71	119484.4	2389.446	-561.7369	1	2454.587	-13.22949	-2.741795E-005	-0.0008996	9
	5	79	94921.88	2479.819	-413.8476	1	2514.114	-9.474562	2.318526E-005	-0.0079219	8
	6	84	75421.88	2528.798	-364.8648	1	2554.984	-8.210199	1.408377E-005	-0.0080796	8
	7	89	59859.37	2582.316	-314.1802	1	2601.358	-6.936857	-2.136034E-005	0.0098447	8
	8	94	47578.12	2626.598	-289.3726	1	2642.49	-6.286927	-2.140786E-005	0.0049323	8
	9	99	37828.12	2669.299	-280.2324	1	2683.969	-5.993159	-2.343047E-005	0.0087414	8
	10	104	30046.88	2715.329	-294.3578	1	2731.237	-6.187043	1.247072E-007	-0.0004957	9
	11	110	23859.38	2756.385	-271.5293	1	2769.727	-5.626011	8.170523E-006	0.0035184	8
	12	115	18984.38	2813.667	-307.8293	1	2830.456	-6.243616	2.816592E-005	-0.0004807	9
	13	120	15046.87	2858.329	-308.5201	1	2874.931	-6.160498	-1.688574E-005	0.0100893	8
	14	126	11953.13	2909.327	-353.5713	1	2930.733	-6.92919	1.644061E-005	8.970925E-005	8
	15	131	9515.62	2964.245	-400.8439	1	2991.224	-7.701181	6.207688E-006	-0.0065212	8
	16	136	7546.875	3030.761	-462.6459	1	3065.869	-8.679206	1.998813E-005	-0.008619	8
	17	141	5928.309	3104.887	-538.868	1	3151.302	-9.84588	1.636929E-005	8.918282E-005	8
	18	147	4733.456	3177.341	-620.0903	1	3237.284	-11.04305	-2.163652E-005	0.0050135	8
	19	152	3796.875	3280.755	-708.6313	1	3356.413	-12.18844	-2.178836E-005	0.0050819	8
	20	158	2987.132	3414.685	-862.7857	1	3521.998	-14.18009	1.019398E-005	0.0004103	9
	21	163	2390.625	3510.695	-968.725	1	3641.896	-15.42606	1.449779E-005	-0.0082533	8
	22	168	1884.191	3610.245	-1165.337	1	3793.663	-17.88936	-2.375495E-005	0.0088273	8
	23	174	1516.544	3773.357	-1382.135	1	4018.522	-20.11717	-1.522323E-005	5.766968E-005	9
	24	179	1193.986	3957.761	-1604.25	1	4270.538	-22.06482	2.365543E-005	-0.0080745	8
	25	185	946.5144	4124.845	-1891.63	1	4537.908	-24.63591	-1.533394E-005	0.0010138	8
	26	188	751.7689	4423.271	-2229.566	1	4953.412	-26.75056	1.461801E-005	-0.0082505	8
	27	192	597.4265	4427.884	-2537.732	1	5103.552	-29.81812	2.162566E-005	-0.0026169	8
	28	196	477.4305	4740.652	-2922.882	1	5569.292	-31.65619	-1.393314E-007	0.0006125	8
	29	199	376.6741	4970.743	-3451.371	1	6051.467	-34.77368	-5.160568E-008	0.0006116	7
	30	202	298.2954	5185.521	-4090.28	1	6604.546	-38.26598	-4.923233E-008	0.0005958	7
	31	204	237.7717	5402.434	-4862.316	1	7268.316	-41.98795	-5.351422E-008	0.0006386	7
	32	207	189.0121	5631.866	-5835.279	1	8109.771	-46.01625	-5.220819E-008	0.0006246	7
	33	209	150.2404	5879.847	-7051.635	1	9181.402	-50.17772	-5.34663E-008	0.0006646	7
	34	211	119.1737	6159.345	-8585.145	1	10566.09	-54.34275	-5.403333E-008	0.0006708	7
	35	214	95.0169	6468.33	-10454.71	1	12293.91	-58.25491	-5.469317E-008	0.0006672	7
	36	216	75.60484	6835.007	-12792.37	1	14503.87	-61.88426	-4.818815E-008	0.0006332	7
	37	219	54.50582	7460.704	-17159	1	18710.79	-66.50068	-5.202247E-008	0.0006563	7
	38	221	45.95588	7868.069	-20006.54	1	21498.09	-68.53153	-4.558883E-008	0.0006063	7
	39	224	37.20238	8449.325	-24242.81	1	25673.04	-70.78506	-5.396689E-008	0.0006623	7
	40	226	30.04808	9146.646	-29464.55	1	30851.59	-72.75415	-4.598215E-008	0.00058	7
	41	228	23.91582	10030.99	-36326.1	1	37685.62	-74.56319	-4.939574E-008	0.0005818	7
	42	231	18.60119	11300.81	-45759.45	1	47134.23	-76.12774	-5.84056E-009	0.000714	6
	43	233	15.02404	12496.74	-55741.59	1	57125.25	-77.36377	-5.919555E-009	0.0006335	6
	44	235	12.01923	14084.75	-68495.01	1	69928.15	-78.38014	-5.600767E-009	0.0006928	6
	45	238	9.450605	16151.6	-85613.97	1	87124.2	-79.31637	-5.916892E-009	0.0006919	6
	46	241	7.512019	18697.39	-105833.4	1	107472.3	-79.98104	-5.669529E-009	0.0006936	6
	47	244	5.978954	21814.81	-130736.3	1	132543.8	-80.52683	-5.092052E-009	0.0006363	6
	48	248	4.734848	25654.02	-162385.6	1	164399.5	-81.02249	-5.72194E-009	0.000712	6
	49	251	3.75601	30729.23	-201258.3	1	203590.7	-81.31881	-6.085249E-009	0.0006804	6
	50	257	3.004808	36746.66	-247631	1	250342.6	-81.55932	-6.036047E-009	0.0007321	6
	51	263	2.372217	44719.38	-308668.7	1	311891.3	-81.75645	-5.894647E-009	0.0007382	6
	52	267	1.878005	54489.46	-383309.8	1	387163.4	-81.90932	-5.923622E-009	0.0006404	6
	53	272	1.512097	66817.41	-468826.7	1	473564.2	-81.8888	-5.893206E-010	0.0007476	5
	54	278	1.201923	81675.1	-580479.6	1	586197.4	-81.9909	-6.141418E-010	0.0006251	5
	55	284	0.956633	100445.7	-717197	1	724196.7	-82.0274	-7.486703E-010	9.172372E-006	5
