EXPLAIN
TAG	EISPOT
TITLE	LABEL	Potentiostatic EIS	Test Identifier
DATE	LABEL	2/28/2021	Date
TIME	LABEL	0:39:44	Time
NOTES	NOTES	1	Notes...
	
PSTAT	PSTAT	REF3000-16137	Potentiostat
VDC	POTEN	0.00000E+000	T	DC Voltage (V)
FREQINIT	QUANT	3.00000E+005	Initial Freq. (Hz)
FREQFINAL	QUANT	1.00000E+000	Final Freq. (Hz)
PTSPERDEC	QUANT	1.00000E+001	Points/decade
VAC	QUANT	5.00000E+001	AC Voltage (mV rms)
AREA	QUANT	1.00000E+000	Sample Area (cm^2)
SPEED	SELECTOR	2	Optimize for:
ZGUESS	QUANT	1.00000E+003	Estimated Z (ohms)
EOC	QUANT	0	Open Circuit (V)
SEQUENCER	TOGGLE	TRUE	Run as Sequence
PSTATMODEL	IQUANT	5	Pstat Model
PSTATSECTION	LABEL	REF3000-16137	Pstat Section
PSTATSERIALNO	LABEL	16137	Pstat Serial Number
CTRLMODE	IQUANT	1	Control Mode
IESTAB	IQUANT	0	I/E Stability
CASPEED	IQUANT	1	Control Amp Speed
CONVENTION	IQUANT	1	Current Convention
ICHRANGE	IQUANT	2	Ich Range
ICHRANGEMODE	TOGGLE	F	Ich Auto Range
ICHOFFSETENABLE	TOGGLE	T	Ich Offset Enable
ICHOFFSET	QUANT	0	Ich Offset (V)
ICHFILTER	IQUANT	3	Ich Filter
VCHRANGE	IQUANT	2	Vch Range
VCHRANGEMODE	TOGGLE	F	Vch Auto Range
VCHOFFSETENABLE	TOGGLE	T	Vch Offset Enable
VCHOFFSET	QUANT	0	Vch Offset (V)
VCHFILTER	IQUANT	3	Vch Filter
ACHRANGE	IQUANT	2	Ach Range
ACHOFFSETENABLE	TOGGLE	F	Ach Offset Enable
ACHOFFSET	QUANT	0	Ach Offset (V)
ACHFILTER	IQUANT	1	Ach Filter
IERANGELOWERLIMIT	IQUANT	2	I/E Range Lower Limit
IERANGEMODE	TOGGLE	F	I/E AutoRange
IERANGE	IQUANT	11	I/E Range
POSFEEDENABLE	TOGGLE	F	Positive Feedback IR Comp
POSFEEDRESISTANCE	QUANT	0	Positive Feedback Resistance (ohm)
ACHSELECT	IQUANT	0	Ach Select
CABLEID	IQUANT	13	Cable ID
DCCALDATE	LABEL	7/31/2020	DC Calibration Date
ACCALDATE	LABEL	7/31/2020	AC Calibration Date
THERMOSELECT	IQUANT	1	Thermo Select
FRAMEWORKVERSION	QUANT	6.33	Framework Version
INSTRUMENTVERSION	LABEL	3.50	Instrument Version
COMPLIANCEVOLTAGE	IQUANT	0	Compliance Voltage
ZCURVE	TABLE
	Pt	Time	Freq	Zreal	Zimag	Zsig	Zmod	Zphz	Idc	Vdc	IERange
	#	s	Hz	ohm	ohm	V	ohm	°	A	V	#
	0	7	300046.9	23.80355	-4.37991	1	24.20316	-10.42594	1.790248E-005	-0.0000957	11
	1	11	238359.4	24.54271	-5.45522	1	25.14168	-12.53166	2.249099E-005	0.0004257	10
	2	16	189328.1	25.30273	-6.883504	1	26.22233	-15.21877	2.256336E-005	0.0005668	10
	3	20	150421.9	26.14344	-8.442056	1	27.47268	-17.89594	-2.176529E-005	0.0005817	10
	4	22	119484.4	27.1529	-10.06617	1	28.95873	-20.34083	2.488119E-005	0.0006315	10
	5	25	94921.88	28.23949	-11.87092	1	30.63311	-22.80022	-1.949199E-005	0.0006937	10
	6	27	75421.88	29.44559	-13.83756	1	32.53492	-25.17055	-2.626426E-005	0.0007283	10
	7	30	59859.37	30.70206	-16.17698	1	34.70318	-27.78483	-1.438081E-005	0.0006759	10
	8	32	47578.12	31.9892	-18.80232	1	37.10574	-30.44577	2.80598E-005	0.0006997	10
	9	35	37828.12	33.39002	-21.84282	1	39.8999	-33.1916	-9.760106E-006	0.0002901	9
	10	37	30046.88	34.80928	-25.84284	1	43.35365	-36.59065	-8.676164E-006	0.0004667	9
	11	40	23859.38	36.33895	-30.64137	1	47.53328	-40.13792	-7.164905E-006	0.0005102	9
	12	42	18984.38	38.02269	-36.57502	1	52.75848	-43.88824	1.467739E-005	-0.0001078	9
	13	44	15046.87	40.0046	-43.89841	1	59.39224	-47.6571	-1.1565E-005	0.0005127	9
	14	47	11953.13	42.25224	-53.07236	1	67.8375	-51.47582	-5.60642E-006	0.0004111	9
	15	49	9515.62	45.0068	-63.90645	1	78.16422	-54.84447	1.303207E-005	-0.0003338	9
	16	51	7546.875	48.28885	-77.53507	1	91.34277	-58.08535	1.105098E-005	-0.0002855	9
	17	53	5928.309	52.25523	-95.0051	1	108.4278	-61.18809	1.861722E-006	-0.0001143	9
	18	56	4733.456	56.75781	-115.0268	1	128.2677	-63.73683	1.32422E-005	-0.0003145	9
	19	58	3796.875	62.22107	-138.5437	1	151.8744	-65.81478	-9.295884E-006	0.0004987	9
	20	60	2987.132	69.11909	-170.3916	1	183.8769	-67.92014	-3.199896E-006	3.770838E-005	9
	21	63	2390.625	77.81555	-205.4445	1	219.6877	-69.25497	-7.225975E-006	0.0001925	9
	22	65	1884.191	86.90392	-252.7716	1	267.2935	-71.02682	1.333157E-005	-0.0003192	9
	23	67	1516.544	98.3934	-305.4247	1	320.8823	-72.14352	1.029516E-005	-0.0002891	9
	24	70	1193.986	113.8407	-374.8714	1	391.7758	-73.10754	-1.037692E-005	0.0002785	9
	25	72	946.5144	130.0085	-457.8528	1	475.9531	-74.14796	1.161176E-006	0.0003058	8
	26	74	751.7689	152.1936	-559.1938	1	579.5349	-74.77481	2.914601E-006	0.0001754	8
	27	77	597.4265	178.6817	-683.1599	1	706.1406	-75.34253	1.4036E-006	0.0006464	8
	28	79	477.4305	211.3485	-829.7577	1	856.2512	-75.70999	5.492582E-007	0.000662	8
	29	81	376.6741	253.8957	-1019.675	1	1050.809	-76.01787	5.597009E-007	0.0006653	8
	30	84	298.2954	306.2174	-1248.875	1	1285.869	-76.22318	5.526533E-007	0.0006652	8
	31	86	237.7717	369.618	-1520.471	1	1564.752	-76.33675	5.572039E-007	0.0006626	8
	32	88	189.0121	449.8382	-1855.173	1	1908.932	-76.37011	5.553371E-007	0.0006666	8
	33	91	150.2404	550.816	-2262.988	1	2329.058	-76.3201	5.586631E-007	0.0006651	8
	34	93	119.1737	679.8265	-2765.074	1	2847.42	-76.18712	5.601117E-007	0.0006702	8
	35	95	95.0169	841.2004	-3361.85	1	3465.495	-75.95192	5.658806E-007	0.000668	8
	36	98	75.60484	1049.928	-4091.555	1	4224.118	-75.60795	5.714139E-007	0.0006618	8
	37	100	54.50582	1467.301	-5421.208	1	5616.268	-74.85522	1.897603E-008	0.0006367	7
	38	103	45.95588	1753.933	-6263.623	1	6504.556	-74.35674	3.373112E-008	0.0006305	7
	39	105	37.20238	2202.074	-7470.488	1	7788.281	-73.57607	1.863918E-008	0.0006474	7
	40	108	30.04808	2788.727	-8916.167	1	9342.11	-72.63178	1.684553E-008	0.0006483	7
	41	110	23.91582	3619.718	-10733.94	1	11327.83	-71.36477	1.351107E-008	0.000645	7
	42	112	18.60119	4799.979	-13057.45	1	13911.75	-69.81634	2.512787E-008	0.0006502	7
	43	115	15.02404	6122.618	-15352.12	1	16527.98	-68.25726	3.314902E-008	0.000644	7
	44	117	12.01923	7897.799	-18028.01	1	19682.08	-66.3425	1.827865E-008	0.0006409	7
	45	119	9.450605	10328.14	-21251.25	1	23628.08	-64.08018	1.333837E-008	0.0006463	7
	46	122	7.512019	13222.99	-24624.89	1	27950.54	-61.76524	3.023204E-008	0.0006255	7
	47	125	5.978954	16707.12	-28089.4	1	32682.45	-59.2565	3.19424E-008	0.000646	7
	48	128	4.734848	20907.35	-31861.48	1	38108.68	-56.72731	2.763449E-008	0.0006344	7
	49	131	3.75601	25715.23	-35574.37	1	43895.43	-54.1384	-2.744854E-008	0.0007011	6
	50	135	3.004808	30857.02	-39189.48	1	49879.56	-51.7838	-3.232045E-008	0.0007257	6
	51	141	2.372217	36909.76	-43116.82	1	56757.29	-49.43512	-2.741405E-008	0.0007489	6
	52	145	1.878005	43206.14	-46939.9	1	63797.53	-47.37178	-3.079105E-008	0.0006691	6
	53	150	1.512097	49386.87	-50715.04	1	70788.97	-45.76017	-3.217589E-008	0.0007727	6
	54	155	1.201923	56451.76	-55128.47	1	78904.69	-44.32053	-2.898866E-008	0.0006555	6
	55	161	0.956633	63877.18	-60072.48	1	87686.93	-43.24183	-3.670991E-008	4.513008E-005	6
