EXPLAIN
TAG	EISPOT
TITLE	LABEL	Potentiostatic EIS	Test Identifier
DATE	LABEL	2/28/2021	Date
TIME	LABEL	2:08:35	Time
NOTES	NOTES	1	Notes...
	
PSTAT	PSTAT	REF3000-16137	Potentiostat
VDC	POTEN	0.00000E+000	T	DC Voltage (V)
FREQINIT	QUANT	3.00000E+005	Initial Freq. (Hz)
FREQFINAL	QUANT	1.00000E+000	Final Freq. (Hz)
PTSPERDEC	QUANT	1.00000E+001	Points/decade
VAC	QUANT	5.00000E+001	AC Voltage (mV rms)
AREA	QUANT	1.00000E+000	Sample Area (cm^2)
SPEED	SELECTOR	2	Optimize for:
ZGUESS	QUANT	1.00000E+003	Estimated Z (ohms)
EOC	QUANT	0	Open Circuit (V)
SEQUENCER	TOGGLE	TRUE	Run as Sequence
PSTATMODEL	IQUANT	5	Pstat Model
PSTATSECTION	LABEL	REF3000-16137	Pstat Section
PSTATSERIALNO	LABEL	16137	Pstat Serial Number
CTRLMODE	IQUANT	1	Control Mode
IESTAB	IQUANT	0	I/E Stability
CASPEED	IQUANT	1	Control Amp Speed
CONVENTION	IQUANT	1	Current Convention
ICHRANGE	IQUANT	2	Ich Range
ICHRANGEMODE	TOGGLE	F	Ich Auto Range
ICHOFFSETENABLE	TOGGLE	T	Ich Offset Enable
ICHOFFSET	QUANT	0	Ich Offset (V)
ICHFILTER	IQUANT	3	Ich Filter
VCHRANGE	IQUANT	2	Vch Range
VCHRANGEMODE	TOGGLE	F	Vch Auto Range
VCHOFFSETENABLE	TOGGLE	T	Vch Offset Enable
VCHOFFSET	QUANT	0	Vch Offset (V)
VCHFILTER	IQUANT	3	Vch Filter
ACHRANGE	IQUANT	2	Ach Range
ACHOFFSETENABLE	TOGGLE	F	Ach Offset Enable
ACHOFFSET	QUANT	0	Ach Offset (V)
ACHFILTER	IQUANT	3	Ach Filter
IERANGELOWERLIMIT	IQUANT	2	I/E Range Lower Limit
IERANGEMODE	TOGGLE	F	I/E AutoRange
IERANGE	IQUANT	11	I/E Range
POSFEEDENABLE	TOGGLE	F	Positive Feedback IR Comp
POSFEEDRESISTANCE	QUANT	0	Positive Feedback Resistance (ohm)
ACHSELECT	IQUANT	0	Ach Select
CABLEID	IQUANT	13	Cable ID
DCCALDATE	LABEL	7/31/2020	DC Calibration Date
ACCALDATE	LABEL	7/31/2020	AC Calibration Date
THERMOSELECT	IQUANT	1	Thermo Select
FRAMEWORKVERSION	QUANT	6.33	Framework Version
INSTRUMENTVERSION	LABEL	3.50	Instrument Version
COMPLIANCEVOLTAGE	IQUANT	0	Compliance Voltage
ZCURVE	TABLE
	Pt	Time	Freq	Zreal	Zimag	Zsig	Zmod	Zphz	Idc	Vdc	IERange
	#	s	Hz	ohm	ohm	V	ohm	°	A	V	#
	0	21	300046.9	1218.881	-324.8598	1	1261.43	-14.92373	-2.838509E-005	-0.0011287	9
	1	34	238359.4	1293.189	-297.92	1	1327.063	-12.97323	-3.008119E-005	-0.0010176	9
	2	59	189328.1	1326.737	-280.1445	1	1355.991	-11.92303	7.679554E-005	-0.0016219	9
	3	70	150421.9	1377.939	-215.0017	1	1394.612	-8.86843	-2.787513E-005	-0.0009054	9
	4	80	119484.4	1437.165	-211.6609	1	1452.668	-8.378105	-1.915122E-005	0.0015475	9
	5	92	94921.88	1465.361	-151.0509	1	1473.126	-5.885321	2.005814E-005	-0.0026641	8
	6	95	75421.88	1479.384	-138.6644	1	1485.868	-5.354754	-1.432247E-005	0.001236	8
	7	98	59859.37	1492.877	-139.8416	1	1499.412	-5.351429	2.263281E-005	-0.0061016	8
	8	101	47578.12	1505.938	-135.7245	1	1512.042	-5.149937	-1.409746E-005	0.0012715	8
	9	104	37828.12	1531.48	-148.4905	1	1538.662	-5.538022	1.78391E-005	-0.0077477	8
	10	107	30046.88	1545.387	-160.8172	1	1553.732	-5.940973	-1.79456E-006	-0.00373	8
	11	110	23859.38	1563.089	-176.4369	1	1573.015	-6.440121	5.768422E-006	-0.0059368	8
	12	113	18984.38	1585.705	-198.3122	1	1598.058	-7.128539	1.814394E-005	-0.007867	8
	13	116	15046.87	1613.386	-228.7027	1	1629.515	-8.06811	-1.743002E-005	0.0029722	8
	14	120	11953.13	1639.177	-266.318	1	1660.67	-9.228244	2.016234E-005	-0.0027022	8
	15	123	9515.62	1674.222	-307.3701	1	1702.203	-10.40308	-1.998604E-005	0.004812	8
	16	126	7546.875	1714.8	-365.6661	1	1753.354	-12.03753	1.549397E-005	-1.839921E-005	8
	17	129	5928.309	1763.361	-432.5208	1	1815.631	-13.78154	-6.232291E-007	0.0062008	8
	18	134	4733.456	1809.765	-497.3792	1	1876.868	-15.36724	2.021965E-005	-0.0026707	8
	19	138	3796.875	1875.332	-579.72	1	1962.892	-17.17791	-2.156368E-005	0.0081798	8
	20	142	2987.132	1939.729	-678.4816	1	2054.966	-19.2789	2.154664E-005	-0.0073972	8
	21	146	2390.625	2022.57	-788.8589	1	2170.965	-21.30717	-2.174901E-005	0.0082814	8
	22	150	1884.191	2117.232	-926.9449	1	2311.255	-23.64427	-6.808676E-007	0.0062608	8
	23	154	1516.544	2195.279	-1056.307	1	2436.193	-25.69557	-2.013649E-005	0.0048262	8
	24	158	1193.986	2321.531	-1244.847	1	2634.227	-28.20101	8.075424E-006	0.0032307	8
	25	164	946.5144	2432.489	-1480.875	1	2847.805	-31.33264	-2.444252E-005	0.0010848	9
	26	168	751.7689	2532.486	-1729.466	1	3066.682	-34.32965	1.293408E-005	-0.0074669	8
	27	171	597.4265	2656.242	-2013.739	1	3333.281	-37.16634	-8.870274E-006	0.0084022	8
	28	175	477.4305	2761.114	-2398.311	1	3657.272	-40.97766	-1.055846E-007	0.0006299	8
	29	177	376.6741	2890.406	-2892.127	1	4088.869	-45.01705	-4.417632E-008	0.0006254	7
	30	180	298.2954	3016.927	-3499.927	1	4620.751	-49.23876	-4.435429E-008	0.0006445	7
	31	182	237.7717	3153.941	-4238.71	1	5283.371	-53.34779	-4.404394E-008	0.0006577	7
	32	185	189.0121	3311.552	-5168.617	1	6138.483	-57.35216	-4.363276E-008	0.0006613	7
	33	187	150.2404	3494.83	-6325.213	1	7226.49	-61.07831	-3.764099E-008	0.0005944	7
	34	189	119.1737	3711.852	-7775.817	1	8616.332	-64.48213	-4.517566E-008	0.0006575	7
	35	192	95.0169	3966.081	-9531.34	1	10323.58	-67.40734	-4.525933E-008	0.0006446	7
	36	194	75.60484	4273.422	-11722.25	1	12476.91	-69.97034	-4.548021E-008	0.0006423	7
	37	197	54.50582	4820.813	-15779.52	1	16499.5	-73.01152	-3.749555E-008	0.0005912	7
	38	199	45.95588	5166.124	-18456.46	1	19165.85	-74.3626	-4.541148E-008	0.0006396	7
	39	202	37.20238	5677.24	-22405.86	1	23113.92	-75.78152	-3.77866E-008	0.0006027	7
	40	204	30.04808	6297.795	-27265.42	1	27983.3	-76.99386	-4.535785E-008	0.0006373	7
	41	207	23.91582	7107.238	-33648.52	1	34390.93	-78.0733	-4.170078E-008	0.0006047	7
	42	209	18.60119	8146.604	-42423.95	1	43199.06	-79.12991	-4.116769E-008	0.0006047	7
	43	211	15.02404	9389.707	-51702.41	1	52548.13	-79.70667	-4.760362E-009	0.0006235	6
	44	214	12.01923	10885.65	-63532.03	1	64457.86	-80.27729	-5.356747E-009	0.0006865	6
	45	216	9.450605	12873.24	-79359.44	1	80396.77	-80.78606	-4.69181E-009	0.0006658	6
	46	219	7.512019	15315.34	-98142.5	1	99330.3	-81.13041	-4.285386E-009	0.0006218	6
	47	222	5.978954	18299.83	-121234.3	1	122607.6	-81.41623	-4.469347E-009	0.0006379	6
	48	226	4.734848	22190.57	-150642.3	1	152268	-81.62023	-4.47084E-009	0.000655	6
	49	229	3.75601	26956.5	-186554.4	1	188491.9	-81.77785	-5.219966E-009	0.0006951	6
	50	235	3.004808	32833.54	-229342.3	1	231680.7	-81.85268	-4.90071E-009	0.0006736	6
	51	241	2.372217	40377.26	-285145.9	1	287990.4	-81.94038	-4.759517E-009	0.0006282	6
	52	245	1.878005	50701.72	-354258.1	1	357867.9	-81.85509	-4.982655E-009	0.0006705	6
	53	250	1.512097	61881.28	-432701	1	437103.5	-81.86122	-4.944653E-010	0.0005578	5
	54	256	1.201923	77561.15	-534974.4	1	540567.6	-81.75068	-6.486502E-010	0.0006509	5
	55	262	0.956633	96517.1	-659458.5	1	666484.1	-81.67342	-6.215975E-010	4.704474E-006	5
