EXPLAIN
TAG	EISPOT
TITLE	LABEL	Potentiostatic EIS	Test Identifier
DATE	LABEL	2/28/2021	Date
TIME	LABEL	1:08:13	Time
NOTES	NOTES	1	Notes...
	
PSTAT	PSTAT	REF3000-16137	Potentiostat
VDC	POTEN	0.00000E+000	T	DC Voltage (V)
FREQINIT	QUANT	3.00000E+005	Initial Freq. (Hz)
FREQFINAL	QUANT	1.00000E+000	Final Freq. (Hz)
PTSPERDEC	QUANT	1.00000E+001	Points/decade
VAC	QUANT	5.00000E+001	AC Voltage (mV rms)
AREA	QUANT	1.00000E+000	Sample Area (cm^2)
SPEED	SELECTOR	2	Optimize for:
ZGUESS	QUANT	1.00000E+003	Estimated Z (ohms)
EOC	QUANT	0	Open Circuit (V)
SEQUENCER	TOGGLE	TRUE	Run as Sequence
PSTATMODEL	IQUANT	5	Pstat Model
PSTATSECTION	LABEL	REF3000-16137	Pstat Section
PSTATSERIALNO	LABEL	16137	Pstat Serial Number
CTRLMODE	IQUANT	1	Control Mode
IESTAB	IQUANT	0	I/E Stability
CASPEED	IQUANT	1	Control Amp Speed
CONVENTION	IQUANT	1	Current Convention
ICHRANGE	IQUANT	2	Ich Range
ICHRANGEMODE	TOGGLE	F	Ich Auto Range
ICHOFFSETENABLE	TOGGLE	T	Ich Offset Enable
ICHOFFSET	QUANT	0	Ich Offset (V)
ICHFILTER	IQUANT	3	Ich Filter
VCHRANGE	IQUANT	2	Vch Range
VCHRANGEMODE	TOGGLE	F	Vch Auto Range
VCHOFFSETENABLE	TOGGLE	T	Vch Offset Enable
VCHOFFSET	QUANT	0	Vch Offset (V)
VCHFILTER	IQUANT	3	Vch Filter
ACHRANGE	IQUANT	2	Ach Range
ACHOFFSETENABLE	TOGGLE	F	Ach Offset Enable
ACHOFFSET	QUANT	0	Ach Offset (V)
ACHFILTER	IQUANT	3	Ach Filter
IERANGELOWERLIMIT	IQUANT	2	I/E Range Lower Limit
IERANGEMODE	TOGGLE	F	I/E AutoRange
IERANGE	IQUANT	11	I/E Range
POSFEEDENABLE	TOGGLE	F	Positive Feedback IR Comp
POSFEEDRESISTANCE	QUANT	0	Positive Feedback Resistance (ohm)
ACHSELECT	IQUANT	0	Ach Select
CABLEID	IQUANT	13	Cable ID
DCCALDATE	LABEL	7/31/2020	DC Calibration Date
ACCALDATE	LABEL	7/31/2020	AC Calibration Date
THERMOSELECT	IQUANT	1	Thermo Select
FRAMEWORKVERSION	QUANT	6.33	Framework Version
INSTRUMENTVERSION	LABEL	3.50	Instrument Version
COMPLIANCEVOLTAGE	IQUANT	0	Compliance Voltage
ZCURVE	TABLE
	Pt	Time	Freq	Zreal	Zimag	Zsig	Zmod	Zphz	Idc	Vdc	IERange
	#	s	Hz	ohm	ohm	V	ohm	°	A	V	#
	0	7	300046.9	40.12737	-5.064642	1	40.44572	-7.193503	5.457543E-005	-0.0023884	9
	1	10	238359.4	40.9982	-6.979904	1	41.58811	-9.66191	5.132942E-005	-0.0022107	9
	2	14	189328.1	41.93412	-8.974418	1	42.88369	-12.07978	4.916797E-006	-0.001011	9
	3	16	150421.9	43.12302	-11.04932	1	44.51609	-14.37159	2.806895E-005	-0.0001673	9
	4	19	119484.4	44.4029	-13.36005	1	46.36926	-16.74562	-5.363971E-006	0.0007506	9
	5	21	94921.88	46.01728	-15.71903	1	48.62796	-18.85964	-1.287356E-005	0.0004104	9
	6	24	75421.88	47.69356	-18.55507	1	51.17584	-21.25841	1.719564E-005	-0.0005028	9
	7	26	59859.37	49.605	-21.69083	1	54.14008	-23.61837	8.212276E-006	-0.0003851	9
	8	29	47578.12	51.63272	-25.30765	1	57.50143	-26.11167	-7.875378E-006	0.0005426	9
	9	31	37828.12	53.77967	-29.4482	1	61.31435	-28.70384	-7.710427E-006	0.0005436	9
	10	34	30046.88	56.03833	-34.28109	1	65.69238	-31.45594	1.309593E-005	-0.0004612	9
	11	36	23859.38	58.37397	-40.16395	1	70.85664	-34.52975	-7.342363E-007	-0.000113	9
	12	39	18984.38	60.73053	-47.43785	1	77.06197	-37.99412	1.701487E-005	-0.0004583	9
	13	41	15046.87	63.28786	-56.56155	1	84.87969	-41.78776	-1.509698E-005	0.0004495	9
	14	43	11953.13	66.17355	-67.61591	1	94.60892	-45.61767	1.647108E-005	-0.0004716	9
	15	46	9515.62	69.31178	-81.21523	1	106.7709	-49.52145	-1.314276E-005	0.0004195	9
	16	48	7546.875	73.03441	-98.5061	1	122.6274	-53.44601	-1.346664E-005	0.0005347	9
	17	50	5928.309	77.35586	-120.965	1	143.5843	-57.4015	-8.688044E-006	0.0001302	9
	18	53	4733.456	82.21067	-146.8802	1	168.3223	-60.76371	1.09506E-005	6.203628E-005	9
	19	55	3796.875	88.13221	-177.866	1	198.5034	-63.64169	1.950591E-005	-0.0002406	9
	20	57	2987.132	95.6271	-219.588	1	239.5067	-66.46764	-1.488879E-005	0.0005597	9
	21	60	2390.625	104.0234	-267.3889	1	286.9106	-68.74226	1.756198E-005	-0.0004595	9
	22	62	1884.191	116.1637	-329.5734	1	349.4462	-70.58414	8.365017E-006	-0.0003805	9
	23	64	1516.544	127.4016	-398.497	1	418.3671	-72.27065	-1.084885E-005	0.0006142	9
	24	66	1193.986	144.7285	-491.3678	1	512.2389	-73.58808	3.595386E-006	-0.0003985	8
	25	69	946.5144	165.9919	-603.7106	1	626.1149	-74.62626	-2.584542E-006	0.0015666	8
	26	71	751.7689	189.2023	-741.4404	1	765.2002	-75.68465	3.993977E-006	-0.0001196	8
	27	74	597.4265	219.9325	-909.4688	1	935.6836	-76.40543	4.034608E-006	-0.0001196	8
	28	76	477.4305	257.2579	-1109.969	1	1139.392	-76.95094	5.256765E-007	0.0006495	8
	29	78	376.6741	305.6384	-1369.979	1	1403.659	-77.42343	4.874762E-007	0.0006613	8
	30	81	298.2954	364.815	-1685.203	1	1724.238	-77.78502	4.975706E-007	0.0006683	8
	31	83	237.7717	435.8536	-2060.323	1	2105.92	-78.0554	5.074248E-007	0.0006584	8
	32	85	189.0121	524.4112	-2524.663	1	2578.552	-78.26565	5.059461E-007	0.0006639	8
	33	88	150.2404	633.4452	-3093.566	1	3157.753	-78.42796	5.109036E-007	0.0006582	8
	34	90	119.1737	769.3171	-3796.281	1	3873.447	-78.54414	5.0913E-007	0.0006645	8
	35	93	95.0169	935.046	-4646.783	1	4739.926	-78.62263	4.422174E-008	0.0006344	7
	36	95	75.60484	1137.268	-5686.793	1	5799.396	-78.69094	4.262597E-008	0.0006324	7
	37	98	54.50582	1510.402	-7596.228	1	7744.933	-78.75422	4.491458E-008	0.0006356	7
	38	100	45.95588	1760.38	-8839.861	1	9013.439	-78.7374	4.806373E-008	0.0006357	7
	39	103	37.20238	2130.438	-10656.44	1	10867.32	-78.69447	4.36354E-008	0.0006404	7
	40	105	30.04808	2586.359	-12874.18	1	13131.4	-78.64076	4.309079E-008	0.0006279	7
	41	107	23.91582	3214.808	-15757.95	1	16082.54	-78.46922	4.0898E-008	0.0006302	7
	42	110	18.60119	4128.169	-19717.5	1	20145.01	-78.17503	4.330822E-008	0.0006374	7
	43	112	15.02404	5176.612	-23836.93	1	24392.55	-77.74746	4.665082E-008	0.0006254	7
	44	114	12.01923	6600.804	-29022.07	1	29763.25	-77.18658	4.691347E-008	0.0006358	7
	45	117	9.450605	8674.971	-35812.97	1	36848.66	-76.38352	4.267214E-008	0.0006268	7
	46	119	7.512019	11295.33	-43628.26	1	45066.72	-75.48487	-1.492831E-009	0.0006617	6
	47	122	5.978954	14849.34	-52947.63	1	54990.5	-74.33367	-2.748584E-010	0.000679	6
	48	126	4.734848	19699.77	-64289.34	1	67239.87	-72.9637	-1.625343E-009	0.0006617	6
	49	129	3.75601	26187.13	-77495.13	1	81800.13	-71.32887	1.259343E-009	0.0006904	6
	50	134	3.004808	34406.65	-92152.39	1	98366.1	-69.52603	-2.419979E-011	0.0006913	6
	51	141	2.372217	45866.07	-109731.8	1	118931.8	-67.3159	1.084681E-009	0.0006707	6
	52	145	1.878005	60755.71	-129125.3	1	142704.6	-64.8022	1.99415E-009	0.0006778	6
	53	150	1.512097	77624.76	-148217	1	167313.7	-62.35788	9.431095E-010	0.000741	6
	54	155	1.201923	99802.5	-169228.2	1	196465.6	-59.46999	1.479683E-009	0.0006784	6
	55	161	0.956633	125156.9	-190258.3	1	227733.3	-56.66203	-2.822498E-009	3.574907E-005	6
