EXPLAIN
TAG	EISPOT
TITLE	LABEL	Potentiostatic EIS	Test Identifier
DATE	LABEL	2/28/2021	Date
TIME	LABEL	4:00:44	Time
NOTES	NOTES	1	Notes...
	
PSTAT	PSTAT	REF3000-16137	Potentiostat
VDC	POTEN	0.00000E+000	T	DC Voltage (V)
FREQINIT	QUANT	3.00000E+005	Initial Freq. (Hz)
FREQFINAL	QUANT	1.00000E+000	Final Freq. (Hz)
PTSPERDEC	QUANT	1.00000E+001	Points/decade
VAC	QUANT	5.00000E+001	AC Voltage (mV rms)
AREA	QUANT	1.00000E+000	Sample Area (cm^2)
SPEED	SELECTOR	2	Optimize for:
ZGUESS	QUANT	1.00000E+003	Estimated Z (ohms)
EOC	QUANT	0	Open Circuit (V)
SEQUENCER	TOGGLE	TRUE	Run as Sequence
PSTATMODEL	IQUANT	5	Pstat Model
PSTATSECTION	LABEL	REF3000-16137	Pstat Section
PSTATSERIALNO	LABEL	16137	Pstat Serial Number
CTRLMODE	IQUANT	1	Control Mode
IESTAB	IQUANT	0	I/E Stability
CASPEED	IQUANT	1	Control Amp Speed
CONVENTION	IQUANT	1	Current Convention
ICHRANGE	IQUANT	2	Ich Range
ICHRANGEMODE	TOGGLE	F	Ich Auto Range
ICHOFFSETENABLE	TOGGLE	T	Ich Offset Enable
ICHOFFSET	QUANT	0	Ich Offset (V)
ICHFILTER	IQUANT	3	Ich Filter
VCHRANGE	IQUANT	2	Vch Range
VCHRANGEMODE	TOGGLE	F	Vch Auto Range
VCHOFFSETENABLE	TOGGLE	T	Vch Offset Enable
VCHOFFSET	QUANT	0	Vch Offset (V)
VCHFILTER	IQUANT	3	Vch Filter
ACHRANGE	IQUANT	2	Ach Range
ACHOFFSETENABLE	TOGGLE	F	Ach Offset Enable
ACHOFFSET	QUANT	0	Ach Offset (V)
ACHFILTER	IQUANT	3	Ach Filter
IERANGELOWERLIMIT	IQUANT	2	I/E Range Lower Limit
IERANGEMODE	TOGGLE	F	I/E AutoRange
IERANGE	IQUANT	11	I/E Range
POSFEEDENABLE	TOGGLE	F	Positive Feedback IR Comp
POSFEEDRESISTANCE	QUANT	0	Positive Feedback Resistance (ohm)
ACHSELECT	IQUANT	0	Ach Select
CABLEID	IQUANT	13	Cable ID
DCCALDATE	LABEL	7/31/2020	DC Calibration Date
ACCALDATE	LABEL	7/31/2020	AC Calibration Date
THERMOSELECT	IQUANT	1	Thermo Select
FRAMEWORKVERSION	QUANT	6.33	Framework Version
INSTRUMENTVERSION	LABEL	3.50	Instrument Version
COMPLIANCEVOLTAGE	IQUANT	0	Compliance Voltage
ZCURVE	TABLE
	Pt	Time	Freq	Zreal	Zimag	Zsig	Zmod	Zphz	Idc	Vdc	IERange
	#	s	Hz	ohm	ohm	V	ohm	°	A	V	#
	0	7	300046.9	24.40472	-4.770301	1	24.86656	-11.05995	2.056362E-005	-9.440874E-005	11
	1	11	238359.4	25.19281	-5.88657	1	25.8714	-13.15181	1.536933E-005	0.0004481	10
	2	14	189328.1	26.00017	-7.421683	1	27.03868	-15.93126	2.920242E-005	0.0007573	10
	3	17	150421.9	26.8784	-8.985097	1	28.34043	-18.48411	-0.0001049	0.0005468	10
	4	19	119484.4	27.94912	-10.74379	1	29.94299	-21.02703	-9.067759E-005	0.0005733	10
	5	22	94921.88	29.16545	-12.58582	1	31.76518	-23.34174	2.035723E-005	0.0006006	10
	6	24	75421.88	30.38638	-14.67059	1	33.74253	-25.77133	-9.772203E-006	0.0006389	10
	7	27	59859.37	31.72685	-17.05872	1	36.02212	-28.26579	-1.085079E-005	0.0006456	10
	8	29	47578.12	33.17835	-19.66913	1	38.57043	-30.66075	-8.13289E-006	0.0001438	9
	9	32	37828.12	34.62526	-23.015	1	41.57642	-33.61152	1.527357E-005	-0.0002462	9
	10	35	30046.88	36.11483	-27.1054	1	45.15511	-36.88947	5.114636E-006	0.0001957	9
	11	37	23859.38	37.78329	-32.16349	1	49.61922	-40.4065	1.304228E-005	-0.0001616	9
	12	39	18984.38	39.56843	-38.31364	1	55.07808	-44.07696	-1.152024E-005	0.0004668	9
	13	42	15046.87	41.65665	-45.97676	1	62.04142	-47.82225	-1.10766E-005	0.0003091	9
	14	44	11953.13	44.12144	-55.2715	1	70.72227	-51.40078	-9.856933E-006	0.0005086	9
	15	46	9515.62	46.88726	-66.74561	1	81.56833	-54.91284	-7.740075E-006	0.0001437	9
	16	49	7546.875	50.49011	-80.72638	1	95.2155	-57.97618	-1.170631E-005	0.0004994	9
	17	51	5928.309	54.81309	-98.8727	1	113.05	-60.99688	1.440509E-006	-0.0001203	9
	18	53	4733.456	59.76284	-119.6608	1	133.7547	-63.46084	9.139181E-006	6.763828E-006	9
	19	56	3796.875	65.72456	-144.0737	1	158.3571	-65.47815	1.545015E-005	-0.0003218	9
	20	58	2987.132	73.52707	-176.4731	1	191.1779	-67.38107	-3.650564E-006	1.523255E-005	9
	21	60	2390.625	82.47005	-213.1218	1	228.5218	-68.84545	-3.898355E-006	0.0004278	9
	22	62	1884.191	94.36939	-261.5832	1	278.0851	-70.16246	-7.807022E-006	0.0001622	9
	23	65	1516.544	106.1149	-315.3106	1	332.6878	-71.39981	1.576589E-005	-0.0002256	9
	24	67	1193.986	123.6713	-387.3311	1	406.5956	-72.2922	4.399609E-006	0.0001581	9
	25	70	946.5144	144.3856	-469.909	1	491.591	-72.91975	7.801355E-007	0.0002957	8
	26	72	751.7689	171.1067	-572.1664	1	597.2034	-73.35067	1.955824E-006	0.0003729	8
	27	74	597.4265	204.6255	-697.0437	1	726.4582	-73.63977	-1.923469E-006	0.0012659	8
	28	77	477.4305	246.9178	-845.2305	1	880.5583	-73.71529	2.351863E-007	0.0006425	8
	29	79	376.6741	305.0073	-1035.541	1	1079.525	-73.58824	2.374875E-007	0.0006459	8
	30	81	298.2954	380.8415	-1263.25	1	1319.41	-73.22313	2.641001E-007	0.0006351	8
	31	84	237.7717	479.1973	-1529.537	1	1602.846	-72.60445	2.41621E-007	0.0006512	8
	32	86	189.0121	612.2845	-1850.828	1	1949.476	-71.69493	2.324529E-007	0.000649	8
	33	89	150.2404	791.3168	-2230.222	1	2366.448	-70.46454	2.369247E-007	0.0006436	8
	34	91	119.1737	1034.812	-2676.763	1	2869.825	-68.86395	2.431562E-007	0.0006528	8
	35	93	95.0169	1350.709	-3172.295	1	3447.879	-66.93652	2.467516E-007	0.0006451	8
	36	96	75.60484	1768.563	-3725.739	1	4124.19	-64.60688	2.344628E-007	0.0006462	8
	37	99	54.50582	2580.452	-4587.914	1	5263.81	-60.64462	-2.93394E-007	0.0006269	7
	38	101	45.95588	3102.857	-5040.044	1	5918.595	-58.38185	-2.851128E-007	0.0006315	7
	39	103	37.20238	3841.862	-5580.822	1	6775.358	-55.45631	-2.930776E-007	0.0006279	7
	40	106	30.04808	4692.437	-6094.571	1	7691.733	-52.40599	-3.00904E-007	0.0006309	7
	41	108	23.91582	5644.749	-6584.101	1	8672.576	-49.39252	-2.876019E-007	0.0006249	7
	42	111	18.60119	6759.081	-7086.617	1	9793.13	-46.35515	-3.010602E-007	0.0006385	7
	43	113	15.02404	7707.288	-7502.614	1	10756	-44.22904	-2.997593E-007	0.0006287	7
	44	115	12.01923	8717.258	-7967.939	1	11810.11	-42.42862	-2.815736E-007	0.000633	7
	45	118	9.450605	9815.48	-8546.344	1	13014.75	-41.04611	-3.043561E-007	0.0006278	7
	46	120	7.512019	10951.07	-9189.573	1	14295.95	-40.00164	-3.072726E-007	0.0006324	7
	47	123	5.978954	12170.78	-9942.52	1	15715.65	-39.24597	-3.002269E-007	0.0006323	7
	48	126	4.734848	13587.28	-10797.28	1	17354.98	-38.47278	-2.845273E-007	0.0006502	7
	49	129	3.75601	15174.68	-11689.81	1	19155.23	-37.60884	-3.003174E-007	0.0006122	7
	50	133	3.004808	16928.82	-12563.58	1	21081.48	-36.58064	-2.949105E-007	0.0006302	7
	51	136	2.372217	19012.06	-13437.63	1	23281.51	-35.25248	-2.925882E-007	0.0006627	7
	52	141	1.878005	21344.66	-14269.23	1	25675	-33.76333	-2.954925E-007	0.0006285	7
	53	145	1.512097	23644.61	-14892.31	1	27943.66	-32.20434	-2.914412E-007	0.0005638	7
	54	151	1.201923	26227.07	-15317.3	1	30372.34	-30.28605	-2.921621E-007	0.0006203	7
	55	157	0.956633	28832.29	-15525.12	1	32746.45	-28.30081	-3.063722E-007	-2.057041E-005	7
