EXPLAIN
TAG	EISPOT
TITLE	LABEL	Potentiostatic EIS	Test Identifier
DATE	LABEL	2/28/2021	Date
TIME	LABEL	1:36:42	Time
NOTES	NOTES	1	Notes...
	
PSTAT	PSTAT	REF3000-16137	Potentiostat
VDC	POTEN	0.00000E+000	T	DC Voltage (V)
FREQINIT	QUANT	3.00000E+005	Initial Freq. (Hz)
FREQFINAL	QUANT	1.00000E+000	Final Freq. (Hz)
PTSPERDEC	QUANT	1.00000E+001	Points/decade
VAC	QUANT	5.00000E+001	AC Voltage (mV rms)
AREA	QUANT	1.00000E+000	Sample Area (cm^2)
SPEED	SELECTOR	2	Optimize for:
ZGUESS	QUANT	1.00000E+003	Estimated Z (ohms)
EOC	QUANT	0	Open Circuit (V)
SEQUENCER	TOGGLE	TRUE	Run as Sequence
PSTATMODEL	IQUANT	5	Pstat Model
PSTATSECTION	LABEL	REF3000-16137	Pstat Section
PSTATSERIALNO	LABEL	16137	Pstat Serial Number
CTRLMODE	IQUANT	1	Control Mode
IESTAB	IQUANT	0	I/E Stability
CASPEED	IQUANT	1	Control Amp Speed
CONVENTION	IQUANT	1	Current Convention
ICHRANGE	IQUANT	2	Ich Range
ICHRANGEMODE	TOGGLE	F	Ich Auto Range
ICHOFFSETENABLE	TOGGLE	T	Ich Offset Enable
ICHOFFSET	QUANT	0	Ich Offset (V)
ICHFILTER	IQUANT	3	Ich Filter
VCHRANGE	IQUANT	2	Vch Range
VCHRANGEMODE	TOGGLE	F	Vch Auto Range
VCHOFFSETENABLE	TOGGLE	T	Vch Offset Enable
VCHOFFSET	QUANT	0	Vch Offset (V)
VCHFILTER	IQUANT	3	Vch Filter
ACHRANGE	IQUANT	2	Ach Range
ACHOFFSETENABLE	TOGGLE	F	Ach Offset Enable
ACHOFFSET	QUANT	0	Ach Offset (V)
ACHFILTER	IQUANT	3	Ach Filter
IERANGELOWERLIMIT	IQUANT	2	I/E Range Lower Limit
IERANGEMODE	TOGGLE	F	I/E AutoRange
IERANGE	IQUANT	11	I/E Range
POSFEEDENABLE	TOGGLE	F	Positive Feedback IR Comp
POSFEEDRESISTANCE	QUANT	0	Positive Feedback Resistance (ohm)
ACHSELECT	IQUANT	0	Ach Select
CABLEID	IQUANT	13	Cable ID
DCCALDATE	LABEL	7/31/2020	DC Calibration Date
ACCALDATE	LABEL	7/31/2020	AC Calibration Date
THERMOSELECT	IQUANT	1	Thermo Select
FRAMEWORKVERSION	QUANT	6.33	Framework Version
INSTRUMENTVERSION	LABEL	3.50	Instrument Version
COMPLIANCEVOLTAGE	IQUANT	0	Compliance Voltage
ZCURVE	TABLE
	Pt	Time	Freq	Zreal	Zimag	Zsig	Zmod	Zphz	Idc	Vdc	IERange
	#	s	Hz	ohm	ohm	V	ohm	°	A	V	#
	0	7	300046.9	110.9725	-9.020546	1	111.3386	-4.647144	7.191122E-005	-0.0025283	9
	1	10	238359.4	112.0148	-11.45099	1	112.5986	-5.836924	-1.283242E-005	0.0008448	9
	2	13	189328.1	113.5404	-14.20221	1	114.4252	-7.129814	1.224404E-005	-0.0008452	9
	3	15	150421.9	115.3902	-17.0453	1	116.6424	-8.402893	6.9857E-005	-0.0025245	9
	4	18	119484.4	117.1109	-20.75669	1	118.9362	-10.0507	-5.225253E-005	0.0008317	9
	5	21	94921.88	119.4174	-24.56551	1	121.9179	-11.62423	-1.709127E-005	0.0003262	9
	6	23	75421.88	122.2194	-29.09771	1	125.6354	-13.39154	-1.544296E-005	0.0008408	9
	7	26	59859.37	125.3688	-34.45703	1	130.0178	-15.36801	-1.696116E-005	0.0003273	9
	8	28	47578.12	128.972	-40.30498	1	135.1232	-17.35452	6.083216E-006	-0.0005069	9
	9	31	37828.12	133.2641	-47.04954	1	141.3258	-19.44583	-1.712798E-005	0.0003439	9
	10	33	30046.88	138.0699	-54.67719	1	148.5022	-21.6041	-9.411306E-006	-3.779153E-006	9
	11	36	23859.38	143.5186	-63.5785	1	156.9708	-23.89326	1.317776E-005	-0.0006262	9
	12	38	18984.38	149.423	-73.72725	1	166.6222	-26.26232	1.166608E-005	0.000173	9
	13	40	15046.87	155.5947	-85.82699	1	177.6963	-28.8814	1.880753E-005	-5.639941E-005	9
	14	43	11953.13	161.9235	-99.9861	1	190.3061	-31.6949	-6.380653E-006	-8.365685E-005	9
	15	45	9515.62	168.6676	-116.421	1	204.9453	-34.61497	-1.190903E-005	0.0008556	9
	16	47	7546.875	175.9172	-137.591	1	223.3342	-38.03021	1.431259E-005	-0.000671	9
	17	50	5928.309	183.3271	-165.0285	1	246.6642	-41.9931	-5.837573E-006	0.0007355	9
	18	52	4733.456	191.0917	-197.2929	1	274.6644	-45.91475	-1.266288E-005	0.0008489	9
	19	54	3796.875	198.3812	-235.9814	1	308.2893	-49.94743	3.442159E-006	0.000443	9
	20	57	2987.132	209.3978	-289.3207	1	357.1469	-54.10461	-2.029748E-005	0.0007985	9
	21	59	2390.625	219.0644	-349.6925	1	412.6428	-57.93497	-1.965206E-005	0.0004746	9
	22	61	1884.191	232.9602	-426.5242	1	485.9973	-61.35739	-5.376964E-006	0.0014351	8
	23	63	1516.544	247.6119	-517.2875	1	573.4963	-64.42079	-5.95406E-006	0.0030178	8
	24	66	1193.986	267.0513	-639.909	1	693.3973	-67.34791	-4.880506E-006	0.0030847	8
	25	68	946.5144	289.3493	-788.6796	1	840.0824	-69.85302	9.96578E-007	0.0018956	8
	26	71	751.7689	317.5092	-966.982	1	1017.775	-71.82237	-6.420203E-006	0.0023712	8
	27	73	597.4265	347.7255	-1191.192	1	1240.908	-73.72675	7.625492E-006	-0.0012668	8
	28	75	477.4305	388.8465	-1460.03	1	1510.923	-75.08671	2.971182E-007	0.0006276	8
	29	78	376.6741	439.4158	-1810.352	1	1862.917	-76.35679	2.537707E-007	0.0006623	8
	30	80	298.2954	500.7578	-2238.553	1	2293.879	-77.39069	2.764591E-007	0.0006555	8
	31	82	237.7717	574.4096	-2752.69	1	2811.983	-78.21311	2.82549E-007	0.0006539	8
	32	85	189.0121	667.1674	-3395.125	1	3460.055	-78.88261	2.773566E-007	0.0006511	8
	33	87	150.2404	783.2382	-4187.81	1	4260.424	-79.40646	2.58435E-007	0.0006568	8
	34	89	119.1737	934.184	-5185.954	1	5269.423	-79.78841	2.229557E-008	0.0006316	7
	35	92	95.0169	1116	-6378.519	1	6475.412	-80.07585	2.208513E-008	0.0006362	7
	36	94	75.60484	1348.578	-7857.841	1	7972.725	-80.26166	2.226743E-008	0.000634	7
	37	97	54.50582	1792.115	-10583.85	1	10734.5	-80.38953	2.380848E-008	0.0006266	7
	38	99	45.95588	2092.053	-12355.46	1	12531.33	-80.3897	2.237855E-008	0.0006414	7
	39	102	37.20238	2543.594	-14951.4	1	15166.22	-80.34504	2.118338E-008	0.0006365	7
	40	104	30.04808	3102.993	-18130.27	1	18393.89	-80.28793	2.260109E-008	0.0006176	7
	41	107	23.91582	3855.749	-22275.78	1	22607.01	-80.17989	2.384734E-008	0.0006169	7
	42	109	18.60119	4897.248	-27898.1	1	28324.67	-80.04371	2.036596E-008	0.0006298	7
	43	111	15.02404	6022.137	-33768.83	1	34301.61	-79.8885	2.4282E-008	0.0006158	7
	44	114	12.01923	7482.083	-41224.53	1	41898.01	-79.71303	2.408981E-008	0.000615	7
	45	116	9.450605	9523.02	-51125.15	1	52004.51	-79.44851	2.98184E-009	0.0006676	6
	46	119	7.512019	12020.66	-62784.53	1	63924.91	-79.16138	2.465778E-009	0.0006792	6
	47	122	5.978954	15224.99	-76972.13	1	78463.43	-78.81139	2.04837E-009	0.0006679	6
	48	126	4.734848	19586.87	-94753.33	1	96756.6	-78.32065	2.538832E-009	0.0006964	6
	49	129	3.75601	25311.15	-116391.5	1	119111.8	-77.73116	2.092032E-009	0.00069	6
	50	135	3.004808	32688.01	-141534.8	1	145260.4	-76.99533	1.792839E-009	0.0007028	6
	51	141	2.372217	43125.03	-174007.2	1	179271.5	-76.08057	1.826245E-009	0.0007452	6
	52	145	1.878005	57149.3	-212458	1	220010.1	-74.94432	1.435285E-009	0.0006484	6
	53	150	1.512097	74627.67	-254613	1	265324.5	-73.66402	1.372535E-009	0.0007514	6
	54	155	1.201923	98989.3	-308110.1	1	323621.3	-72.18888	1.948502E-009	0.0006371	6
	55	162	0.956633	131055.7	-369686	1	392228.7	-70.48031	4.315345E-010	3.120393E-005	6
