EXPLAIN
TAG	EISPOT
TITLE	LABEL	Potentiostatic EIS	Test Identifier
DATE	LABEL	2/28/2021	Date
TIME	LABEL	4:06:18	Time
NOTES	NOTES	1	Notes...
	
PSTAT	PSTAT	REF3000-16137	Potentiostat
VDC	POTEN	0.00000E+000	T	DC Voltage (V)
FREQINIT	QUANT	3.00000E+005	Initial Freq. (Hz)
FREQFINAL	QUANT	1.00000E+000	Final Freq. (Hz)
PTSPERDEC	QUANT	1.00000E+001	Points/decade
VAC	QUANT	5.00000E+001	AC Voltage (mV rms)
AREA	QUANT	1.00000E+000	Sample Area (cm^2)
SPEED	SELECTOR	2	Optimize for:
ZGUESS	QUANT	1.00000E+003	Estimated Z (ohms)
EOC	QUANT	0	Open Circuit (V)
SEQUENCER	TOGGLE	TRUE	Run as Sequence
PSTATMODEL	IQUANT	5	Pstat Model
PSTATSECTION	LABEL	REF3000-16137	Pstat Section
PSTATSERIALNO	LABEL	16137	Pstat Serial Number
CTRLMODE	IQUANT	1	Control Mode
IESTAB	IQUANT	0	I/E Stability
CASPEED	IQUANT	1	Control Amp Speed
CONVENTION	IQUANT	1	Current Convention
ICHRANGE	IQUANT	2	Ich Range
ICHRANGEMODE	TOGGLE	F	Ich Auto Range
ICHOFFSETENABLE	TOGGLE	T	Ich Offset Enable
ICHOFFSET	QUANT	0	Ich Offset (V)
ICHFILTER	IQUANT	3	Ich Filter
VCHRANGE	IQUANT	2	Vch Range
VCHRANGEMODE	TOGGLE	F	Vch Auto Range
VCHOFFSETENABLE	TOGGLE	T	Vch Offset Enable
VCHOFFSET	QUANT	0	Vch Offset (V)
VCHFILTER	IQUANT	3	Vch Filter
ACHRANGE	IQUANT	2	Ach Range
ACHOFFSETENABLE	TOGGLE	F	Ach Offset Enable
ACHOFFSET	QUANT	0	Ach Offset (V)
ACHFILTER	IQUANT	3	Ach Filter
IERANGELOWERLIMIT	IQUANT	2	I/E Range Lower Limit
IERANGEMODE	TOGGLE	F	I/E AutoRange
IERANGE	IQUANT	11	I/E Range
POSFEEDENABLE	TOGGLE	F	Positive Feedback IR Comp
POSFEEDRESISTANCE	QUANT	0	Positive Feedback Resistance (ohm)
ACHSELECT	IQUANT	0	Ach Select
CABLEID	IQUANT	13	Cable ID
DCCALDATE	LABEL	7/31/2020	DC Calibration Date
ACCALDATE	LABEL	7/31/2020	AC Calibration Date
THERMOSELECT	IQUANT	1	Thermo Select
FRAMEWORKVERSION	QUANT	6.33	Framework Version
INSTRUMENTVERSION	LABEL	3.50	Instrument Version
COMPLIANCEVOLTAGE	IQUANT	0	Compliance Voltage
ZCURVE	TABLE
	Pt	Time	Freq	Zreal	Zimag	Zsig	Zmod	Zphz	Idc	Vdc	IERange
	#	s	Hz	ohm	ohm	V	ohm	°	A	V	#
	0	7	300046.9	24.4189	-4.811217	1	24.88836	-11.14613	1.816601E-005	-0.0001284	11
	1	11	238359.4	25.20204	-5.899886	1	25.88342	-13.17587	-5.582149E-006	0.0003168	10
	2	15	189328.1	25.99239	-7.460265	1	27.04182	-16.01439	-1.32112E-005	0.0006175	10
	3	18	150421.9	26.96507	-9.039426	1	28.43987	-18.53256	-2.22679E-005	0.0006999	10
	4	21	119484.4	28.02992	-10.78792	1	30.03424	-21.0503	3.422752E-005	0.0006005	10
	5	23	94921.88	29.18476	-12.62245	1	31.79744	-23.38856	9.020219E-006	0.0007201	10
	6	26	75421.88	30.4589	-14.75411	1	33.84418	-25.84527	-4.214402E-006	0.0006536	10
	7	28	59859.37	31.8208	-17.13918	1	36.14297	-28.30759	2.47557E-005	0.0006441	10
	8	31	47578.12	33.23458	-19.7454	1	38.6577	-30.71549	-7.818748E-006	0.0001479	9
	9	33	37828.12	34.67637	-23.13255	1	41.68412	-33.70719	-1.263151E-005	0.0004981	9
	10	36	30046.88	36.18673	-27.2246	1	45.28419	-36.95549	1.620607E-005	-0.0001885	9
	11	38	23859.38	37.875	-32.23155	1	49.73318	-40.39772	1.229255E-006	-0.0000986	9
	12	41	18984.38	39.65979	-38.45361	1	55.2411	-44.11535	-1.270022E-005	0.0004432	9
	13	43	15046.87	41.76931	-46.10749	1	62.21395	-47.8262	4.767504E-006	0.0002217	9
	14	45	11953.13	44.27845	-55.45736	1	70.96548	-51.39531	5.552984E-006	-0.0002219	9
	15	48	9515.62	47.17846	-66.84119	1	81.81413	-54.78444	9.665153E-006	-0.0003006	9
	16	50	7546.875	50.70565	-81.00768	1	95.5683	-57.95605	1.423392E-005	-0.0003217	9
	17	52	5928.309	55.0285	-99.2279	1	113.465	-60.9887	1.374262E-006	-0.0001182	9
	18	55	4733.456	60.0827	-119.9631	1	134.1681	-63.39631	-1.082475E-005	0.0003524	9
	19	57	3796.875	66.33468	-144.1793	1	158.7072	-65.29357	-1.05111E-005	0.0004626	9
	20	59	2987.132	73.79513	-177.1303	1	191.8876	-67.38266	1.580122E-005	-0.0002968	9
	21	62	2390.625	83.79607	-213.1856	1	229.063	-68.54188	-3.43394E-006	3.256019E-005	9
	22	64	1884.191	95.0649	-262.1938	1	278.8959	-70.07062	6.130751E-006	-0.0002428	9
	23	66	1516.544	107.5563	-314.882	1	332.7447	-71.14104	-7.77E-006	0.0001583	9
	24	69	1193.986	125.941	-386.4926	1	406.4944	-71.95148	-8.004697E-006	0.0001714	9
	25	71	946.5144	145.1965	-470.0804	1	491.9935	-72.83533	2.017575E-006	0.0003738	8
	26	73	751.7689	172.2842	-572.2769	1	597.6476	-73.24555	-9.413919E-007	0.0007389	8
	27	76	597.4265	205.6139	-698.4872	1	728.1218	-73.59713	3.078361E-007	0.000872	8
	28	78	477.4305	247.7757	-845.7106	1	881.2599	-73.67051	2.229304E-007	0.0006551	8
	29	80	376.6741	305.7367	-1035.96	1	1080.133	-73.5574	2.186262E-007	0.0006502	8
	30	83	298.2954	381.4194	-1263.713	1	1320.019	-73.2049	2.223152E-007	0.0006607	8
	31	85	237.7717	479.2416	-1530.049	1	1603.347	-72.60841	2.125831E-007	0.0006579	8
	32	88	189.0121	611.8364	-1851.541	1	1950.012	-71.71401	2.24514E-007	0.000658	8
	33	90	150.2404	790.1181	-2231.909	1	2367.637	-70.50553	2.257732E-007	0.0006591	8
	34	92	119.1737	1032.651	-2679.058	1	2871.188	-68.92068	2.275355E-007	0.0006646	8
	35	95	95.0169	1348.023	-3176.963	1	3451.125	-67.00791	2.162278E-007	0.0006521	8
	36	97	75.60484	1765.049	-3733.458	1	4129.662	-64.69685	2.29982E-007	0.0006546	8
	37	100	54.50582	2579.118	-4603.147	1	5276.439	-60.73833	-3.075986E-007	0.0006276	7
	38	102	45.95588	3103.791	-5058.654	1	5934.939	-58.46836	-3.054292E-007	0.0006438	7
	39	105	37.20238	3850.833	-5605.071	1	6800.422	-55.5099	-3.122121E-007	0.0006442	7
	40	107	30.04808	4703.957	-6123.931	1	7722.03	-52.47116	-3.182224E-007	0.0006369	7
	41	111	23.91582	5694.456	-6624.156	1	8735.346	-49.316	-3.13306E-007	0.0006376	7
	42	113	18.60119	6804.555	-7125.664	1	9852.77	-46.32051	-2.966381E-007	0.0006403	7
	43	115	15.02404	7775.892	-7535.491	1	10828.12	-44.10048	-3.231833E-007	0.0006391	7
	44	117	12.01923	8790.046	-7989.828	1	11878.65	-42.26968	-3.174513E-007	0.0006429	7
	45	120	9.450605	9911.13	-8537.287	1	13081.12	-40.74109	-3.046783E-007	0.0006545	7
	46	122	7.512019	11052.78	-9165.556	1	14358.67	-39.66734	-2.907166E-007	0.000644	7
	47	125	5.978954	12284.46	-9883.9	1	15767.04	-38.81964	-2.969893E-007	0.0006427	7
	48	128	4.734848	13729.69	-10729.91	1	17425.14	-38.00804	-3.058187E-007	0.0006321	7
	49	131	3.75601	15311.9	-11581.61	1	19198.65	-37.10313	-2.928324E-007	0.0006569	7
	50	135	3.004808	17068.46	-12413.32	1	21105.04	-36.02714	-2.977361E-007	0.0006345	7
	51	139	2.372217	19167.3	-13237.77	1	23294.29	-34.63064	-2.985723E-007	0.0005657	7
	52	143	1.878005	21420.21	-13965.95	1	25570.95	-33.10429	-2.914923E-007	0.0006451	7
	53	148	1.512097	23645.26	-14480.42	1	27726.9	-31.48342	-2.955854E-007	0.0005938	7
	54	153	1.201923	26218.79	-14849.33	1	30131.84	-29.52557	-2.968802E-007	0.0006193	7
	55	159	0.956633	28706.78	-15018	1	32397.84	-27.6164	-3.144842E-007	-9.66107E-006	7
