EXPLAIN
TAG	EISPOT
TITLE	LABEL	Potentiostatic EIS	Test Identifier
DATE	LABEL	2/28/2021	Date
TIME	LABEL	3:38:19	Time
NOTES	NOTES	1	Notes...
	
PSTAT	PSTAT	REF3000-16137	Potentiostat
VDC	POTEN	0.00000E+000	T	DC Voltage (V)
FREQINIT	QUANT	3.00000E+005	Initial Freq. (Hz)
FREQFINAL	QUANT	1.00000E+000	Final Freq. (Hz)
PTSPERDEC	QUANT	1.00000E+001	Points/decade
VAC	QUANT	5.00000E+001	AC Voltage (mV rms)
AREA	QUANT	1.00000E+000	Sample Area (cm^2)
SPEED	SELECTOR	2	Optimize for:
ZGUESS	QUANT	1.00000E+003	Estimated Z (ohms)
EOC	QUANT	0	Open Circuit (V)
SEQUENCER	TOGGLE	TRUE	Run as Sequence
PSTATMODEL	IQUANT	5	Pstat Model
PSTATSECTION	LABEL	REF3000-16137	Pstat Section
PSTATSERIALNO	LABEL	16137	Pstat Serial Number
CTRLMODE	IQUANT	1	Control Mode
IESTAB	IQUANT	0	I/E Stability
CASPEED	IQUANT	1	Control Amp Speed
CONVENTION	IQUANT	1	Current Convention
ICHRANGE	IQUANT	2	Ich Range
ICHRANGEMODE	TOGGLE	F	Ich Auto Range
ICHOFFSETENABLE	TOGGLE	T	Ich Offset Enable
ICHOFFSET	QUANT	0	Ich Offset (V)
ICHFILTER	IQUANT	3	Ich Filter
VCHRANGE	IQUANT	2	Vch Range
VCHRANGEMODE	TOGGLE	F	Vch Auto Range
VCHOFFSETENABLE	TOGGLE	T	Vch Offset Enable
VCHOFFSET	QUANT	0	Vch Offset (V)
VCHFILTER	IQUANT	3	Vch Filter
ACHRANGE	IQUANT	2	Ach Range
ACHOFFSETENABLE	TOGGLE	F	Ach Offset Enable
ACHOFFSET	QUANT	0	Ach Offset (V)
ACHFILTER	IQUANT	3	Ach Filter
IERANGELOWERLIMIT	IQUANT	2	I/E Range Lower Limit
IERANGEMODE	TOGGLE	F	I/E AutoRange
IERANGE	IQUANT	11	I/E Range
POSFEEDENABLE	TOGGLE	F	Positive Feedback IR Comp
POSFEEDRESISTANCE	QUANT	0	Positive Feedback Resistance (ohm)
ACHSELECT	IQUANT	0	Ach Select
CABLEID	IQUANT	13	Cable ID
DCCALDATE	LABEL	7/31/2020	DC Calibration Date
ACCALDATE	LABEL	7/31/2020	AC Calibration Date
THERMOSELECT	IQUANT	1	Thermo Select
FRAMEWORKVERSION	QUANT	6.33	Framework Version
INSTRUMENTVERSION	LABEL	3.50	Instrument Version
COMPLIANCEVOLTAGE	IQUANT	0	Compliance Voltage
ZCURVE	TABLE
	Pt	Time	Freq	Zreal	Zimag	Zsig	Zmod	Zphz	Idc	Vdc	IERange
	#	s	Hz	ohm	ohm	V	ohm	°	A	V	#
	0	6	300046.9	31.92613	-5.340979	1	32.36979	-9.497168	3.918105E-005	0.0001713	11
	1	11	238359.4	32.49465	-6.426471	1	33.12403	-11.18703	8.048784E-005	0.0002143	10
	2	14	189328.1	33.03422	-8.031355	1	33.9965	-13.66476	1.401946E-005	0.000477	10
	3	16	150421.9	33.76094	-9.78206	1	35.14954	-16.15868	7.782004E-005	0.0002663	10
	4	19	119484.4	34.63068	-11.60787	1	36.52433	-18.53065	2.094596E-005	0.000619	10
	5	22	94921.88	35.83659	-13.2672	1	38.21361	-20.31525	-2.241374E-006	-2.665402E-005	9
	6	24	75421.88	36.94677	-15.61392	1	40.11058	-22.90921	1.122819E-005	-0.0003682	9
	7	27	59859.37	38.2179	-18.19526	1	42.32819	-25.45877	1.175482E-005	6.107489E-006	9
	8	29	47578.12	39.58637	-21.19071	1	44.9013	-28.16028	-6.808694E-006	0.0004528	9
	9	32	37828.12	40.96851	-24.60901	1	47.79145	-30.99244	2.281704E-006	-0.0001702	9
	10	34	30046.88	42.42451	-28.80173	1	51.27747	-34.17233	-1.087276E-005	0.0002863	9
	11	37	23859.38	43.94059	-34.00699	1	55.56303	-37.7374	-3.433004E-006	-5.549026E-006	9
	12	39	18984.38	45.61116	-40.24546	1	60.82824	-41.42389	9.866392E-008	0.0003873	9
	13	41	15046.87	47.52518	-48.19367	1	67.6851	-45.40014	1.463615E-005	-0.0001844	9
	14	44	11953.13	49.72178	-57.80564	1	76.24793	-49.29938	1.915705E-006	-0.0001542	9
	15	46	9515.62	52.23145	-69.67451	1	87.07848	-53.14296	1.059242E-005	-0.0003465	9
	16	48	7546.875	55.14294	-84.61959	1	101.0011	-56.90945	1.556686E-005	-0.0001353	9
	17	51	5928.309	59.07897	-103.7468	1	119.389	-60.3405	-7.803275E-007	0.000345	9
	18	53	4733.456	63.6343	-125.515	1	140.7244	-63.11565	-1.235774E-005	0.0004795	9
	19	55	3796.875	68.6221	-151.7737	1	166.5661	-65.67064	7.245113E-006	-0.0003136	9
	20	58	2987.132	76.18489	-186.3833	1	201.3526	-67.76752	1.700956E-005	-0.0003291	9
	21	60	2390.625	84.02387	-225.823	1	240.9482	-69.59085	1.642952E-005	-0.0003652	9
	22	62	1884.191	95.9625	-276.8602	1	293.0194	-70.88319	-1.09164E-005	0.0002542	9
	23	65	1516.544	107.1374	-333.8555	1	350.625	-72.20807	4.886605E-006	0.0001715	9
	24	67	1193.986	123.6444	-410.8192	1	429.0226	-73.24977	4.863209E-006	0.0001759	9
	25	70	946.5144	142.9617	-499.4861	1	519.5425	-74.02795	1.913305E-007	0.0004575	8
	26	72	751.7689	168.8889	-608.911	1	631.8988	-74.498	-2.015089E-006	0.0012127	8
	27	74	597.4265	200.65	-742.9872	1	769.6041	-74.8873	1.095039E-006	0.000242	8
	28	77	477.4305	239.7724	-902.7027	1	934.0037	-75.12479	5.169086E-007	0.0006442	8
	29	79	376.6741	294.2268	-1108.162	1	1146.557	-75.13054	5.212236E-007	0.0006511	8
	30	81	298.2954	365.4464	-1354.628	1	1403.057	-74.90237	5.203816E-007	0.0006534	8
	31	84	237.7717	470.2326	-1633.969	1	1700.286	-73.94495	3.752877E-007	0.0006526	8
	32	86	189.0121	612.16	-1967.903	1	2060.918	-72.72054	3.401492E-007	0.0006443	8
	33	88	150.2404	795.3369	-2369.067	1	2499.008	-71.44221	3.383552E-007	0.0006464	8
	34	91	119.1737	1042.903	-2842.035	1	3027.344	-69.84907	3.381613E-007	0.0006507	8
	35	93	95.0169	1366.011	-3367.488	1	3634	-67.92022	3.313989E-007	0.0006546	8
	36	96	75.60484	1800.765	-3957.726	1	4348.143	-65.53448	-1.934872E-007	0.0006298	7
	37	98	54.50582	2621.677	-4869.171	1	5530.101	-61.70093	-1.979442E-007	0.0006224	7
	38	101	45.95588	3155.029	-5350.416	1	6211.374	-59.47303	-1.906031E-007	0.0006373	7
	39	103	37.20238	3906.68	-5932.987	1	7103.695	-56.63639	-2.042392E-007	0.0006274	7
	40	106	30.04808	4759.151	-6474.035	1	8035.088	-53.67989	-2.189419E-007	0.0006324	7
	41	108	23.91582	5716.083	-7008.268	1	9043.75	-50.79863	-2.075427E-007	0.0006257	7
	42	110	18.60119	6800.223	-7581.597	1	10184.48	-48.10986	-2.440463E-007	0.000634	7
	43	113	15.02404	7716.671	-8047.42	1	11149.35	-46.20195	-2.029731E-007	0.0006381	7
	44	115	12.01923	8659.824	-8569.391	1	12183.06	-44.69926	-2.470112E-007	0.0006299	7
	45	117	9.450605	9716.24	-9264.528	1	13425.23	-43.63671	-2.172659E-007	0.0006015	7
	46	120	7.512019	10733.69	-10067.67	1	14716.32	-43.16611	-2.338447E-007	0.0006502	7
	47	123	5.978954	11806.18	-10905.27	1	16072.05	-42.72841	-2.367837E-007	0.0006346	7
	48	126	4.734848	13166.64	-11924.19	1	17763.63	-42.16515	-2.54771E-007	0.0006468	7
	49	129	3.75601	14720.79	-13023.81	1	19655.06	-41.49992	-2.751011E-007	0.0006298	7
	50	132	3.004808	16418.71	-14120.57	1	21655.59	-40.69649	-2.958286E-007	0.0006718	7
	51	136	2.372217	18517.96	-15246.81	1	23987.08	-39.46642	-2.958548E-007	0.0006929	7
	52	140	1.878005	20742.21	-16163.53	1	26296.37	-37.92779	-2.963218E-007	0.0006031	7
	53	145	1.512097	23287.23	-17299.5	1	29009.79	-36.60774	-2.46328E-007	0.0007248	7
	54	151	1.201923	26146.93	-18246.63	1	31884.19	-34.90925	-2.127819E-007	0.0006158	7
	55	157	0.956633	29115.02	-18917.02	1	34720.86	-33.01316	-2.374455E-007	-6.746226E-005	7
