EXPLAIN
TAG	EISPOT
TITLE	LABEL	Potentiostatic EIS	Test Identifier
DATE	LABEL	2/28/2021	Date
TIME	LABEL	2:38:44	Time
NOTES	NOTES	1	Notes...
	
PSTAT	PSTAT	REF3000-16137	Potentiostat
VDC	POTEN	0.00000E+000	T	DC Voltage (V)
FREQINIT	QUANT	3.00000E+005	Initial Freq. (Hz)
FREQFINAL	QUANT	1.00000E+000	Final Freq. (Hz)
PTSPERDEC	QUANT	1.00000E+001	Points/decade
VAC	QUANT	5.00000E+001	AC Voltage (mV rms)
AREA	QUANT	1.00000E+000	Sample Area (cm^2)
SPEED	SELECTOR	2	Optimize for:
ZGUESS	QUANT	1.00000E+003	Estimated Z (ohms)
EOC	QUANT	0	Open Circuit (V)
SEQUENCER	TOGGLE	TRUE	Run as Sequence
PSTATMODEL	IQUANT	5	Pstat Model
PSTATSECTION	LABEL	REF3000-16137	Pstat Section
PSTATSERIALNO	LABEL	16137	Pstat Serial Number
CTRLMODE	IQUANT	1	Control Mode
IESTAB	IQUANT	0	I/E Stability
CASPEED	IQUANT	1	Control Amp Speed
CONVENTION	IQUANT	1	Current Convention
ICHRANGE	IQUANT	2	Ich Range
ICHRANGEMODE	TOGGLE	F	Ich Auto Range
ICHOFFSETENABLE	TOGGLE	T	Ich Offset Enable
ICHOFFSET	QUANT	0	Ich Offset (V)
ICHFILTER	IQUANT	3	Ich Filter
VCHRANGE	IQUANT	2	Vch Range
VCHRANGEMODE	TOGGLE	F	Vch Auto Range
VCHOFFSETENABLE	TOGGLE	T	Vch Offset Enable
VCHOFFSET	QUANT	0	Vch Offset (V)
VCHFILTER	IQUANT	3	Vch Filter
ACHRANGE	IQUANT	2	Ach Range
ACHOFFSETENABLE	TOGGLE	F	Ach Offset Enable
ACHOFFSET	QUANT	0	Ach Offset (V)
ACHFILTER	IQUANT	3	Ach Filter
IERANGELOWERLIMIT	IQUANT	2	I/E Range Lower Limit
IERANGEMODE	TOGGLE	F	I/E AutoRange
IERANGE	IQUANT	11	I/E Range
POSFEEDENABLE	TOGGLE	F	Positive Feedback IR Comp
POSFEEDRESISTANCE	QUANT	0	Positive Feedback Resistance (ohm)
ACHSELECT	IQUANT	0	Ach Select
CABLEID	IQUANT	13	Cable ID
DCCALDATE	LABEL	7/31/2020	DC Calibration Date
ACCALDATE	LABEL	7/31/2020	AC Calibration Date
THERMOSELECT	IQUANT	1	Thermo Select
FRAMEWORKVERSION	QUANT	6.33	Framework Version
INSTRUMENTVERSION	LABEL	3.50	Instrument Version
COMPLIANCEVOLTAGE	IQUANT	0	Compliance Voltage
ZCURVE	TABLE
	Pt	Time	Freq	Zreal	Zimag	Zsig	Zmod	Zphz	Idc	Vdc	IERange
	#	s	Hz	ohm	ohm	V	ohm	°	A	V	#
	0	24	300046.9	18.10256	-4813.041	1	4813.075	-89.7845	2.312577E-005	0.0009238	9
	1	39	238359.4	118.7266	-5990.916	1	5992.092	-88.86468	-9.305862E-005	0.0021849	9
	2	56	189328.1	-181.3701	-7556.167	1	7558.344	-91.375	-9.075593E-005	0.0043488	9
	3	64	150421.9	738.0847	-10011.09	1	10038.26	-85.7834	-1.948551E-005	0.0011585	9
	4	73	119484.4	702.6431	-11594.32	1	11615.59	-86.53198	2.455436E-005	0.0011724	9
	5	81	94921.88	921.9785	-14127.82	1	14157.87	-86.26618	2.627784E-005	-0.0089523	8
	6	90	75421.88	1581.674	-18000.15	1	18069.51	-84.97832	1.663054E-005	-0.0092727	8
	7	99	59859.37	2021.695	-22632.29	1	22722.4	-84.89543	-2.622453E-005	0.0075695	8
	8	107	47578.12	5915.961	-29459.58	1	30047.72	-78.6451	-5.269086E-006	0.0033908	7
	9	115	37828.12	3152.436	-36881.54	1	37016.02	-85.11454	1.6588E-005	-0.0092939	8
	10	124	30046.88	8822.114	-45173.73	1	46027.12	-78.94962	-9.919025E-007	-0.0134179	7
	11	131	23859.38	11813.36	-57064.89	1	58274.84	-78.30405	-6.68465E-006	0.0121622	7
	12	137	18984.38	14895.42	-69968.76	1	71536.71	-77.9819	-3.780012E-006	0.0255211	7
	13	142	15046.87	19164.89	-89412.87	1	91443.72	-77.90219	-1.759169E-006	0.0222302	7
	14	147	11953.13	15015.68	-108574.6	1	109608	-82.12604	-9.463187E-006	-0.0021201	8
	15	155	9515.62	35878.66	-132484.9	1	137257.1	-74.84701	-5.526184E-006	0.0040599	7
	16	161	7546.875	55300.9	-163934.5	1	173010.7	-71.35892	-7.435433E-006	0.0188807	7
	17	167	5928.309	76391.61	-183023.6	1	198326.3	-67.34499	7.737875E-006	-0.0244866	7
	18	172	4733.456	151272.5	-247258.2	1	289862	-58.54172	3.549651E-006	-0.0246026	7
	19	179	3796.875	160693.8	-261669.6	1	307072.4	-58.44551	-1.594687E-005	0.0006454	8
	20	187	2987.132	241947.2	-261448.6	1	356221.6	-47.21852	-6.568521E-006	0.0260237	7
	21	195	2390.625	569102.6	-209750.9	1	606525.5	-20.23208	-8.247417E-007	-0.0050698	8
	22	204	1884.191	362640.4	-356922	1	508823.5	-44.54468	7.784471E-007	-0.0230478	6
	23	209	1516.544	687211.3	-375313.9	1	783019.7	-28.64074	7.734724E-006	-0.0244691	7
	24	215	1193.986	450083.3	-369831.9	1	582538.1	-39.40982	-7.403263E-006	0.0190686	7
	25	223	946.5144	516640.9	-239278.4	1	569361.1	-24.85086	-5.298281E-006	0.0266256	7
	26	228	751.7689	1089966	-1327562	1	1717687	-50.61303	-5.402446E-006	0.0267931	7
	27	233	597.4265	498670.3	-317095.9	1	590950	-32.45158	6.670386E-006	-0.0101476	7
	28	238	477.4305	765749.1	-239360.6	1	802287.4	-17.35839	-6.297744E-008	0.0006529	7
	29	244	376.6741	854432.6	-120261.1	1	862854.5	-8.011736	-7.589504E-010	0.000689	5
	30	246	298.2954	866010	-106326.8	1	872512.9	-6.999619	-8.536996E-010	0.0006045	5
	31	249	237.7717	879966.8	-91793.88	1	884741.6	-5.95528	-7.848873E-010	0.0006114	5
	32	251	189.0121	891975.6	-84047.18	1	895926.6	-5.382852	-8.442714E-010	0.0006866	5
	33	254	150.2404	907930.3	-78648.82	1	911330.4	-4.950848	-7.183993E-010	0.0006391	5
	34	257	119.1737	916612.2	-92170.52	1	921234.7	-5.742111	-8.305062E-010	0.000649	5
	35	259	95.0169	936422.7	-81867.6	1	939994.6	-4.996431	-7.477284E-010	0.0005986	5
	36	262	75.60484	953317	-76716.25	1	956399	-4.600846	-8.043149E-010	0.0006155	5
	37	265	54.50582	960999	-80398.32	1	964356	-4.782297	-7.420134E-010	0.0006427	5
	38	268	45.95588	991773	-106321.5	1	997456	-6.118933	-6.473039E-010	0.0006266	5
	39	270	37.20238	1004987	-121853.9	1	1012347	-6.913325	-6.735408E-010	0.0006521	5
	40	272	30.04808	1028395	-134041.5	1	1037093	-7.426096	-9.181645E-010	0.0006883	5
	41	275	23.91582	1056151	-160605.8	1	1068293	-8.646558	-5.112704E-010	0.0006875	5
	42	278	18.60119	1084577	-191776.7	1	1101402	-10.02748	-3.581437E-011	0.0006034	5
	43	280	15.02404	1108810	-214654.3	1	1129396	-10.95635	-6.549242E-010	0.0006372	5
	44	283	12.01923	1139361	-250338.8	1	1166538	-12.39204	-3.597137E-010	0.0006888	5
	45	285	9.450605	1179428	-297561.2	1	1216386	-14.15981	-5.413588E-010	0.00069	5
	46	288	7.512019	1225013	-348728.8	1	1273683	-15.89025	-7.686709E-010	0.0007151	5
	47	291	5.978954	1276219	-410838.7	1	1340717	-17.84434	-8.881973E-010	0.000603	5
	48	296	4.734848	1338863	-481233.3	1	1422723	-19.77018	-4.955147E-010	0.0006551	5
	49	299	3.75601	1412499	-565011.5	1	1521312	-21.80183	-5.967086E-010	0.000627	5
	50	305	3.004808	1499823	-662241.4	1	1639522	-23.82368	-6.325762E-010	0.0006162	5
	51	311	2.372217	1597986	-778542.6	1	1777551	-25.97545	-8.044266E-010	0.0005772	5
	52	315	1.878005	1694405	-918945.4	1	1927555	-28.47279	-6.544548E-010	0.0006604	5
	53	320	1.512097	1797255	-1069866	1	2091588	-30.76439	-6.919127E-010	0.0006036	5
	54	325	1.201923	1919537	-1262845	1	2297695	-33.34053	-7.539348E-010	0.0006781	5
	55	332	0.956633	2053061	-1500104	1	2542709	-36.15437	-8.808547E-010	7.785957E-006	5
