EXPLAIN
TAG	EISPOT
TITLE	LABEL	Potentiostatic EIS	Test Identifier
DATE	LABEL	2/28/2021	Date
TIME	LABEL	2:44:25	Time
NOTES	NOTES	1	Notes...
	
PSTAT	PSTAT	REF3000-16137	Potentiostat
VDC	POTEN	0.00000E+000	T	DC Voltage (V)
FREQINIT	QUANT	3.00000E+005	Initial Freq. (Hz)
FREQFINAL	QUANT	1.00000E+000	Final Freq. (Hz)
PTSPERDEC	QUANT	1.00000E+001	Points/decade
VAC	QUANT	5.00000E+001	AC Voltage (mV rms)
AREA	QUANT	1.00000E+000	Sample Area (cm^2)
SPEED	SELECTOR	2	Optimize for:
ZGUESS	QUANT	1.00000E+003	Estimated Z (ohms)
EOC	QUANT	0	Open Circuit (V)
SEQUENCER	TOGGLE	TRUE	Run as Sequence
PSTATMODEL	IQUANT	5	Pstat Model
PSTATSECTION	LABEL	REF3000-16137	Pstat Section
PSTATSERIALNO	LABEL	16137	Pstat Serial Number
CTRLMODE	IQUANT	1	Control Mode
IESTAB	IQUANT	0	I/E Stability
CASPEED	IQUANT	1	Control Amp Speed
CONVENTION	IQUANT	1	Current Convention
ICHRANGE	IQUANT	2	Ich Range
ICHRANGEMODE	TOGGLE	F	Ich Auto Range
ICHOFFSETENABLE	TOGGLE	T	Ich Offset Enable
ICHOFFSET	QUANT	0	Ich Offset (V)
ICHFILTER	IQUANT	3	Ich Filter
VCHRANGE	IQUANT	2	Vch Range
VCHRANGEMODE	TOGGLE	F	Vch Auto Range
VCHOFFSETENABLE	TOGGLE	T	Vch Offset Enable
VCHOFFSET	QUANT	0	Vch Offset (V)
VCHFILTER	IQUANT	3	Vch Filter
ACHRANGE	IQUANT	2	Ach Range
ACHOFFSETENABLE	TOGGLE	F	Ach Offset Enable
ACHOFFSET	QUANT	0	Ach Offset (V)
ACHFILTER	IQUANT	3	Ach Filter
IERANGELOWERLIMIT	IQUANT	2	I/E Range Lower Limit
IERANGEMODE	TOGGLE	F	I/E AutoRange
IERANGE	IQUANT	11	I/E Range
POSFEEDENABLE	TOGGLE	F	Positive Feedback IR Comp
POSFEEDRESISTANCE	QUANT	0	Positive Feedback Resistance (ohm)
ACHSELECT	IQUANT	0	Ach Select
CABLEID	IQUANT	13	Cable ID
DCCALDATE	LABEL	7/31/2020	DC Calibration Date
ACCALDATE	LABEL	7/31/2020	AC Calibration Date
THERMOSELECT	IQUANT	1	Thermo Select
FRAMEWORKVERSION	QUANT	6.33	Framework Version
INSTRUMENTVERSION	LABEL	3.50	Instrument Version
COMPLIANCEVOLTAGE	IQUANT	0	Compliance Voltage
ZCURVE	TABLE
	Pt	Time	Freq	Zreal	Zimag	Zsig	Zmod	Zphz	Idc	Vdc	IERange
	#	s	Hz	ohm	ohm	V	ohm	°	A	V	#
	0	21	300046.9	-76.06784	-4861.556	1	4862.151	-90.89642	9.420553E-007	-0.0021173	9
	1	35	238359.4	68.56448	-6001.597	1	6001.989	-89.34546	-1.541262E-005	0.0016501	9
	2	49	189328.1	-327.8909	-6776.818	1	6784.746	-92.77005	1.97672E-005	-0.0009204	9
	3	56	150421.9	365.9327	-9336.123	1	9343.292	-87.75542	8.485964E-005	-0.0033268	9
	4	64	119484.4	163.2453	-11833.71	1	11834.83	-89.20966	1.889467E-005	-0.0019516	9
	5	72	94921.88	807.9821	-14573.43	1	14595.81	-86.82664	-1.602098E-005	0.0006459	8
	6	81	75421.88	840.9807	-18550.67	1	18569.73	-87.40432	1.661466E-005	-0.0092767	8
	7	89	59859.37	873.8389	-23031	1	23047.58	-87.82713	-2.030322E-005	0.0028204	8
	8	97	47578.12	4071.052	-30226.37	1	30499.3	-82.32925	6.857163E-006	-0.0270415	7
	9	104	37828.12	5150.459	-36856.5	1	37214.63	-82.0448	6.869258E-006	-0.0269718	7
	10	112	30046.88	5120.962	-46000.27	1	46284.44	-83.64773	-3.786168E-006	0.0256784	7
	11	119	23859.38	6393.086	-57149.55	1	57506.03	-83.6171	-1.018744E-006	-0.013392	7
	12	125	18984.38	6742.237	-71751.02	1	72067.09	-84.63184	7.777654E-006	-0.0245131	7
	13	130	15046.87	7002.74	-89753.88	1	90026.64	-85.53873	1.410964E-006	-0.0201535	7
	14	136	11953.13	8342.665	-114493	1	114796.5	-85.83244	1.739792E-005	0.0003647	8
	15	143	9515.62	12337.07	-141528.6	1	142065.3	-85.01811	-7.371445E-006	0.0191202	7
	16	150	7546.875	18602.72	-179276.4	1	180239	-84.07587	-5.395046E-006	0.0267756	7
	17	156	5928.309	10948.23	-253579	1	253815.3	-87.5278	6.924939E-006	-0.0271754	7
	18	161	4733.456	347032.8	-526538.4	1	630614.3	-56.61178	8.310192E-006	-0.0076993	8
	19	169	3796.875	50651.66	-345554.6	1	349247.1	-81.66093	-5.369769E-006	0.0268243	7
	20	175	2987.132	51814.87	-419135.9	1	422326.6	-82.95267	-3.74311E-006	0.0255274	7
	21	182	2390.625	84484.5	-524695.7	1	531453.9	-80.85296	7.782462E-006	-0.0245769	7
	22	188	1884.191	-601575.9	-1308023	1	1439728	-114.6983	-7.298492E-006	0.0237427	7
	23	195	1516.544	340700.7	-727372.2	1	803210.6	-64.90164	-2.035456E-005	0.0028103	8
	24	204	1193.986	-522886.8	-1076338	1	1196626	-115.9106	-3.746717E-006	0.0254668	7
	25	213	946.5144	-868766.9	-1558615	1	1784387	-119.1352	-5.4258E-006	0.0037779	7
	26	217	751.7689	-17832.49	-897312.8	1	897489.9	-91.1385	-3.715562E-006	0.0254947	7
	27	223	597.4265	264650.2	1752957	1	1772822	81.41469	7.546736E-006	-0.0181322	7
	28	229	477.4305	1175137	-2195376	1	2490105	-61.84082	-6.482732E-008	0.0005947	7
	29	236	376.6741	1977296	-2360706	1	3079388	-50.05091	-6.422848E-010	0.0005965	5
	30	240	298.2954	2225889	-2681115	1	3484675	-50.30019	-6.213055E-009	0.0006362	6
	31	244	237.7717	3061025	-2673835	1	4064390	-41.13753	-6.998894E-010	0.0006708	5
	32	248	189.0121	3642236	-2663101	1	4511983	-36.17323	-8.105556E-010	0.0006578	5
	33	252	150.2404	4148562	-2562291	1	4876054	-31.70086	-7.75135E-010	0.000704	5
	34	256	119.1737	4564121	-2222882	1	5076653	-25.96765	-6.267849E-010	0.0006426	5
	35	260	95.0169	5291683	-2259575	1	5753920	-23.12272	-8.430474E-010	0.0006848	5
	36	264	75.60484	5527491	-1909185	1	5847918	-19.05482	-8.960526E-010	0.000671	5
	37	268	54.50582	6258796	-1701596	1	6485981	-15.20954	-6.983887E-010	0.0006117	5
	38	272	45.95588	6854967	-622497.1	1	6883173	-5.188778	-5.069142E-011	0.0006784	4
	39	275	37.20238	6879051	-482012.2	1	6895917	-4.008141	-1.611951E-010	0.0007108	4
	40	278	30.04808	7109156	-626030.3	1	7136667	-5.032469	-8.251681E-011	0.0006987	4
	41	281	23.91582	7117148	-499786.3	1	7134674	-4.016878	-6.025466E-011	0.0006751	4
	42	283	18.60119	7508469	-1254385	1	7612529	-9.4844	-4.896035E-010	0.0006339	4
	43	286	15.02404	7364352	-572550.3	1	7386575	-4.445585	-6.802994E-011	0.000674	4
	44	288	12.01923	7490711	-576592.4	1	7512870	-4.401625	2.027771E-011	0.0006438	4
	45	291	9.450605	7614875	-656012.8	1	7643080	-4.923809	1.294163E-011	0.0007076	4
	46	294	7.512019	7820957	-692041.8	1	7851515	-5.05668	-2.297766E-011	0.0007141	4
	47	297	5.978954	7986599	-813793.4	1	8027953	-5.818065	-7.07826E-011	0.0006202	4
	48	301	4.734848	8324506	-957626	1	8379406	-6.562286	-1.013021E-010	0.0006599	4
	49	306	3.75601	8689596	-1090745	1	8757785	-7.154524	-9.082579E-011	0.0006166	4
	50	311	3.004808	9104048	-1332655	1	9201068	-8.327839	-3.231203E-011	0.0006815	4
	51	318	2.372217	9.50423E+006	-1542199	1	9.628539E+006	-9.216742	-1.595801E-010	0.0006898	4
	52	322	1.878005	9.900643E+006	-1829803	1	1.006831E+007	-10.47105	-1.652125E-010	0.0006523	4
	53	327	1.512097	1.036471E+007	-2138889	1	1.058311E+007	-11.66003	-1.579619E-010	0.0006616	4
	54	332	1.201923	1.090808E+007	-2535144	1	1.11988E+007	-13.08383	-1.163408E-010	0.0006385	4
	55	338	0.956633	1.159284E+007	-2996938	1	1.197395E+007	-14.49456	-1.749365E-010	3.101936E-005	4
