EXPLAIN
TAG	EISPOT
TITLE	LABEL	Potentiostatic EIS	Test Identifier
DATE	LABEL	2/28/2021	Date
TIME	LABEL	1:11:04	Time
NOTES	NOTES	1	Notes...
	
PSTAT	PSTAT	REF3000-16137	Potentiostat
VDC	POTEN	0.00000E+000	T	DC Voltage (V)
FREQINIT	QUANT	3.00000E+005	Initial Freq. (Hz)
FREQFINAL	QUANT	1.00000E+000	Final Freq. (Hz)
PTSPERDEC	QUANT	1.00000E+001	Points/decade
VAC	QUANT	5.00000E+001	AC Voltage (mV rms)
AREA	QUANT	1.00000E+000	Sample Area (cm^2)
SPEED	SELECTOR	2	Optimize for:
ZGUESS	QUANT	1.00000E+003	Estimated Z (ohms)
EOC	QUANT	0	Open Circuit (V)
SEQUENCER	TOGGLE	TRUE	Run as Sequence
PSTATMODEL	IQUANT	5	Pstat Model
PSTATSECTION	LABEL	REF3000-16137	Pstat Section
PSTATSERIALNO	LABEL	16137	Pstat Serial Number
CTRLMODE	IQUANT	1	Control Mode
IESTAB	IQUANT	0	I/E Stability
CASPEED	IQUANT	1	Control Amp Speed
CONVENTION	IQUANT	1	Current Convention
ICHRANGE	IQUANT	2	Ich Range
ICHRANGEMODE	TOGGLE	F	Ich Auto Range
ICHOFFSETENABLE	TOGGLE	T	Ich Offset Enable
ICHOFFSET	QUANT	0	Ich Offset (V)
ICHFILTER	IQUANT	3	Ich Filter
VCHRANGE	IQUANT	2	Vch Range
VCHRANGEMODE	TOGGLE	F	Vch Auto Range
VCHOFFSETENABLE	TOGGLE	T	Vch Offset Enable
VCHOFFSET	QUANT	0	Vch Offset (V)
VCHFILTER	IQUANT	3	Vch Filter
ACHRANGE	IQUANT	2	Ach Range
ACHOFFSETENABLE	TOGGLE	F	Ach Offset Enable
ACHOFFSET	QUANT	0	Ach Offset (V)
ACHFILTER	IQUANT	3	Ach Filter
IERANGELOWERLIMIT	IQUANT	2	I/E Range Lower Limit
IERANGEMODE	TOGGLE	F	I/E AutoRange
IERANGE	IQUANT	11	I/E Range
POSFEEDENABLE	TOGGLE	F	Positive Feedback IR Comp
POSFEEDRESISTANCE	QUANT	0	Positive Feedback Resistance (ohm)
ACHSELECT	IQUANT	0	Ach Select
CABLEID	IQUANT	13	Cable ID
DCCALDATE	LABEL	7/31/2020	DC Calibration Date
ACCALDATE	LABEL	7/31/2020	AC Calibration Date
THERMOSELECT	IQUANT	1	Thermo Select
FRAMEWORKVERSION	QUANT	6.33	Framework Version
INSTRUMENTVERSION	LABEL	3.50	Instrument Version
COMPLIANCEVOLTAGE	IQUANT	0	Compliance Voltage
ZCURVE	TABLE
	Pt	Time	Freq	Zreal	Zimag	Zsig	Zmod	Zphz	Idc	Vdc	IERange
	#	s	Hz	ohm	ohm	V	ohm	°	A	V	#
	0	7	300046.9	43.22362	-5.151663	1	43.52954	-6.796809	-5.508901E-005	0.0012214	9
	1	10	238359.4	44.04961	-7.269571	1	44.64543	-9.37114	4.223875E-005	-0.0010826	9
	2	13	189328.1	45.05951	-9.31766	1	46.01281	-11.68328	3.950444E-005	-0.0007907	9
	3	15	150421.9	46.1975	-11.41675	1	47.5873	-13.88132	-5.550664E-005	0.0021022	9
	4	18	119484.4	47.55442	-13.82806	1	49.52411	-16.21358	3.735237E-006	-0.0007713	9
	5	20	94921.88	49.2513	-16.25851	1	51.86549	-18.26875	-1.414661E-005	0.0005338	9
	6	23	75421.88	51.02084	-19.23635	1	54.52672	-20.65792	4.52168E-006	0.0002057	9
	7	26	59859.37	52.97404	-22.54502	1	57.57193	-23.05394	-1.174885E-005	0.0005913	9
	8	28	47578.12	55.0898	-26.19017	1	60.99845	-25.42682	-6.581536E-006	0.0006078	9
	9	31	37828.12	57.37954	-30.46597	1	64.96605	-27.9663	1.764848E-005	-0.0001424	9
	10	33	30046.88	59.822	-35.5275	1	69.57639	-30.70552	3.452374E-006	0.0002497	9
	11	36	23859.38	62.28139	-41.57365	1	74.88218	-33.72363	-1.378544E-005	0.0002731	9
	12	38	18984.38	64.87224	-48.86399	1	81.21635	-36.98831	1.840241E-005	-0.0004388	9
	13	40	15046.87	67.52647	-58.10038	1	89.0813	-40.709	2.747512E-006	-0.0002545	9
	14	43	11953.13	70.45607	-69.57433	1	99.0184	-44.63923	-1.161546E-005	0.0005935	9
	15	45	9515.62	73.66219	-83.53395	1	111.3734	-48.5934	-1.421283E-005	0.0003739	9
	16	47	7546.875	77.37995	-101.2058	1	127.3981	-52.59919	-2.36559E-006	0.0004351	9
	17	50	5928.309	82.02747	-123.8854	1	148.5803	-56.49052	-1.52265E-005	0.0005706	9
	18	52	4733.456	86.96107	-150.237	1	173.5897	-59.93662	-1.518416E-005	0.0005645	9
	19	54	3796.875	93.26344	-181.4326	1	203.9996	-62.79506	-1.303746E-005	0.0004028	9
	20	57	2987.132	100.8676	-224.4668	1	246.0886	-65.80251	1.370201E-005	-0.0004822	9
	21	59	2390.625	110.3321	-272.4006	1	293.8967	-67.95027	2.965886E-006	-0.0002602	9
	22	61	1884.191	119.539	-336.0064	1	356.6369	-70.41628	1.929983E-005	-0.0002591	9
	23	64	1516.544	133.2471	-407.9626	1	429.1717	-71.91213	1.3615E-005	-0.0004735	9
	24	66	1193.986	149.694	-503.5902	1	525.3679	-73.44522	2.193719E-006	-0.0002736	8
	25	68	946.5144	170.7363	-619.1467	1	642.2565	-74.58324	3.771237E-006	-0.0004747	8
	26	71	751.7689	194.2939	-761.056	1	785.4656	-75.67857	4.291913E-006	-0.0002969	8
	27	73	597.4265	226.3259	-933.856	1	960.89	-76.37668	3.711907E-006	-0.0004656	8
	28	75	477.4305	262.4107	-1140.792	1	1170.583	-77.04588	4.863566E-007	0.0006602	8
	29	78	376.6741	311.3691	-1409.343	1	1443.329	-77.54165	4.866168E-007	0.0006553	8
	30	80	298.2954	371.4868	-1734.883	1	1774.21	-77.91389	4.790477E-007	0.0006606	8
	31	82	237.7717	443.8997	-2122.452	1	2168.375	-78.18716	4.78811E-007	0.0006651	8
	32	85	189.0121	534.7429	-2602.348	1	2656.72	-78.38822	4.924706E-007	0.0006605	8
	33	87	150.2404	646.9905	-3189.751	1	3254.706	-78.53401	4.807986E-007	0.0006614	8
	34	90	119.1737	786.811	-3916.12	1	3994.379	-78.63961	4.851613E-007	0.0006688	8
	35	92	95.0169	958.19	-4793.982	1	4888.803	-78.69704	4.286903E-008	0.0006368	7
	36	94	75.60484	1167.611	-5867.563	1	5982.609	-78.74549	4.176965E-008	0.0006329	7
	37	97	54.50582	1555.216	-7833.053	1	7985.951	-78.77023	4.420751E-008	0.0006297	7
	38	99	45.95588	1809.544	-9113.404	1	9291.317	-78.7695	4.490192E-008	0.0006381	7
	39	102	37.20238	2191.827	-10993.46	1	11209.83	-78.72447	4.150349E-008	0.0006426	7
	40	104	30.04808	2679.057	-13303.4	1	13570.47	-78.61398	4.316957E-008	0.0006302	7
	41	107	23.91582	3331.751	-16282.93	1	16620.3	-78.43597	4.421842E-008	0.0006267	7
	42	109	18.60119	4259.937	-20333.02	1	20774.47	-78.16721	4.401529E-008	0.0006329	7
	43	111	15.02404	5332.533	-24580.77	1	25152.54	-77.75996	4.707399E-008	0.0006453	7
	44	114	12.01923	6796.065	-29936.66	1	30698.38	-77.20979	4.156834E-008	0.0006291	7
	45	116	9.450605	8924.658	-36972.59	1	38034.49	-76.42921	4.267907E-008	0.0006375	7
	46	118	7.512019	11643	-45035.61	1	46516.29	-75.50477	-2.2286E-009	0.0006733	6
	47	121	5.978954	15262.35	-54693.3	1	56782.88	-74.40807	-9.149211E-010	0.000684	6
	48	125	4.734848	20322.75	-66464.14	1	69501.77	-72.99793	2.452264E-009	0.0007053	6
	49	128	3.75601	27080.35	-80161.79	1	84612.4	-71.33394	1.20231E-010	0.0006658	6
	50	134	3.004808	35357.3	-95028	1	101392.6	-69.59116	2.745276E-010	0.0006919	6
	51	140	2.372217	47651.77	-112647.7	1	122311.9	-67.07087	-2.02216E-011	0.0007542	6
	52	144	1.878005	62832.82	-132064.1	1	146249.4	-64.55605	-1.74067E-009	0.0006574	6
	53	149	1.512097	80168.28	-151060.7	1	171015.4	-62.04499	-9.136106E-010	0.0006419	6
	54	154	1.201923	102786.4	-171986.3	1	200360.5	-59.13564	-7.549685E-010	0.000653	6
	55	161	0.956633	128541.6	-192831.3	1	231747.4	-56.31253	-1.822545E-009	4.058268E-005	6
