EXPLAIN
TAG	EISPOT
TITLE	LABEL	Potentiostatic EIS	Test Identifier
DATE	LABEL	2/28/2021	Date
TIME	LABEL	0:48:18	Time
NOTES	NOTES	1	Notes...
	
PSTAT	PSTAT	REF3000-16137	Potentiostat
VDC	POTEN	0.00000E+000	T	DC Voltage (V)
FREQINIT	QUANT	3.00000E+005	Initial Freq. (Hz)
FREQFINAL	QUANT	1.00000E+000	Final Freq. (Hz)
PTSPERDEC	QUANT	1.00000E+001	Points/decade
VAC	QUANT	5.00000E+001	AC Voltage (mV rms)
AREA	QUANT	1.00000E+000	Sample Area (cm^2)
SPEED	SELECTOR	2	Optimize for:
ZGUESS	QUANT	1.00000E+003	Estimated Z (ohms)
EOC	QUANT	0	Open Circuit (V)
SEQUENCER	TOGGLE	TRUE	Run as Sequence
PSTATMODEL	IQUANT	5	Pstat Model
PSTATSECTION	LABEL	REF3000-16137	Pstat Section
PSTATSERIALNO	LABEL	16137	Pstat Serial Number
CTRLMODE	IQUANT	1	Control Mode
IESTAB	IQUANT	0	I/E Stability
CASPEED	IQUANT	1	Control Amp Speed
CONVENTION	IQUANT	1	Current Convention
ICHRANGE	IQUANT	2	Ich Range
ICHRANGEMODE	TOGGLE	F	Ich Auto Range
ICHOFFSETENABLE	TOGGLE	T	Ich Offset Enable
ICHOFFSET	QUANT	0	Ich Offset (V)
ICHFILTER	IQUANT	3	Ich Filter
VCHRANGE	IQUANT	2	Vch Range
VCHRANGEMODE	TOGGLE	F	Vch Auto Range
VCHOFFSETENABLE	TOGGLE	T	Vch Offset Enable
VCHOFFSET	QUANT	0	Vch Offset (V)
VCHFILTER	IQUANT	3	Vch Filter
ACHRANGE	IQUANT	2	Ach Range
ACHOFFSETENABLE	TOGGLE	F	Ach Offset Enable
ACHOFFSET	QUANT	0	Ach Offset (V)
ACHFILTER	IQUANT	3	Ach Filter
IERANGELOWERLIMIT	IQUANT	2	I/E Range Lower Limit
IERANGEMODE	TOGGLE	F	I/E AutoRange
IERANGE	IQUANT	11	I/E Range
POSFEEDENABLE	TOGGLE	F	Positive Feedback IR Comp
POSFEEDRESISTANCE	QUANT	0	Positive Feedback Resistance (ohm)
ACHSELECT	IQUANT	0	Ach Select
CABLEID	IQUANT	13	Cable ID
DCCALDATE	LABEL	7/31/2020	DC Calibration Date
ACCALDATE	LABEL	7/31/2020	AC Calibration Date
THERMOSELECT	IQUANT	1	Thermo Select
FRAMEWORKVERSION	QUANT	6.33	Framework Version
INSTRUMENTVERSION	LABEL	3.50	Instrument Version
COMPLIANCEVOLTAGE	IQUANT	0	Compliance Voltage
ZCURVE	TABLE
	Pt	Time	Freq	Zreal	Zimag	Zsig	Zmod	Zphz	Idc	Vdc	IERange
	#	s	Hz	ohm	ohm	V	ohm	°	A	V	#
	0	7	300046.9	26.52695	-4.927632	1	26.98075	-10.52328	3.943563E-005	-1.199238E-006	11
	1	11	238359.4	27.37905	-6.045547	1	28.03856	-12.45164	1.238393E-006	0.0005787	10
	2	14	189328.1	28.22748	-7.544024	1	29.2182	-14.96305	-3.867333E-006	0.0003846	10
	3	17	150421.9	29.19617	-9.162259	1	30.60005	-17.42275	1.692669E-005	0.0005413	10
	4	20	119484.4	30.29215	-10.99642	1	32.22632	-19.95151	4.751196E-005	0.0007448	10
	5	22	94921.88	31.48038	-12.84839	1	34.00141	-22.20232	-2.132454E-005	0.0007421	10
	6	25	75421.88	32.78957	-15.0136	1	36.06333	-24.60197	2.027247E-005	0.000721	10
	7	27	59859.37	34.24495	-17.26996	1	38.3532	-26.76212	1.179502E-005	-0.0003412	9
	8	30	47578.12	35.67115	-20.15766	1	40.9727	-29.47066	1.40039E-005	-0.0003417	9
	9	32	37828.12	37.15	-23.60555	1	44.01527	-32.43236	1.574064E-005	-0.0001292	9
	10	35	30046.88	38.71206	-27.78244	1	47.64963	-35.66582	-1.123107E-005	0.0003564	9
	11	37	23859.38	40.39157	-33.02624	1	52.17482	-39.27121	-1.161586E-005	0.0005025	9
	12	40	18984.38	42.236	-39.28675	1	57.68299	-42.92811	1.346555E-005	-0.000334	9
	13	42	15046.87	44.25249	-47.25055	1	64.73714	-46.8766	1.732414E-005	-0.0002076	9
	14	44	11953.13	46.63598	-57.00114	1	73.64812	-50.71139	1.406503E-005	-0.0003468	9
	15	47	9515.62	49.44096	-68.83809	1	84.75311	-54.3133	4.36277E-006	0.0001534	9
	16	49	7546.875	52.92355	-83.49643	1	98.8562	-57.63176	1.55028E-005	-0.0003446	9
	17	51	5928.309	57.01474	-102.5633	1	117.3453	-60.93041	-3.941088E-007	0.0003352	9
	18	53	4733.456	61.81431	-124.182	1	138.7162	-63.53718	1.669341E-005	-0.0002956	9
	19	56	3796.875	67.10145	-150.1422	1	164.4545	-65.91921	1.106512E-005	-0.00033	9
	20	58	2987.132	74.99895	-184.2874	1	198.9641	-67.85529	-1.218831E-005	0.0004287	9
	21	60	2390.625	83.18562	-223.4269	1	238.4102	-69.57885	5.519629E-006	0.0002084	9
	22	63	1884.191	94.45169	-273.956	1	289.781	-70.97736	-3.35917E-006	1.454466E-005	9
	23	65	1516.544	106.2505	-331.0652	1	347.6972	-72.20673	1.065517E-005	-0.0003205	9
	24	67	1193.986	122.4548	-407.3061	1	425.3157	-73.26682	6.648307E-006	-0.0002491	9
	25	70	946.5144	141.0851	-496.6324	1	516.2835	-74.14102	3.008237E-006	-5.636276E-005	8
	26	72	751.7689	162.3182	-607.3291	1	628.6461	-75.03655	-1.287483E-007	0.0011272	8
	27	74	597.4265	190.4801	-741.5482	1	765.6216	-75.59399	-1.730078E-006	0.0013322	8
	28	77	477.4305	224.2525	-902.7737	1	930.2095	-76.04986	5.541192E-007	0.0006667	8
	29	79	376.6741	267.9462	-1110.777	1	1142.637	-76.43797	5.726605E-007	0.0006563	8
	30	81	298.2954	321.559	-1362.068	1	1399.51	-76.71674	5.433919E-007	0.0006678	8
	31	84	237.7717	385.9793	-1660.641	1	1704.907	-76.91518	5.617235E-007	0.0006661	8
	32	86	189.0121	467.0071	-2028.961	1	2082.013	-77.03795	5.510599E-007	0.0006689	8
	33	89	150.2404	567.6206	-2478.824	1	2542.983	-77.10233	5.576997E-007	0.000664	8
	34	91	119.1737	694.4269	-3034.358	1	3112.805	-77.10958	5.603867E-007	0.0006637	8
	35	93	95.0169	849.2598	-3697.408	1	3793.688	-77.06407	5.561047E-007	0.0006518	8
	36	96	75.60484	1050.375	-4522.271	1	4642.652	-76.92393	3.632518E-008	0.0006424	7
	37	98	54.50582	1436.065	-6013.078	1	6182.183	-76.56802	3.813693E-008	0.0006382	7
	38	101	45.95588	1701.658	-6974.681	1	7179.263	-76.28903	4.629177E-008	0.0006514	7
	39	103	37.20238	2115.871	-8368.973	1	8632.301	-75.81161	4.047401E-008	0.0006337	7
	40	106	30.04808	2652.109	-10048.05	1	10392.16	-75.21439	3.899355E-008	0.0006437	7
	41	108	23.91582	3404.111	-12196.85	1	12662.98	-74.40571	4.196211E-008	0.0006401	7
	42	111	18.60119	4540.282	-15050.54	1	15720.47	-73.21307	3.64994E-008	0.0006553	7
	43	113	15.02404	5814.403	-17926.85	1	18846.2	-72.03002	3.654235E-008	0.0006435	7
	44	115	12.01923	7573.096	-21400.63	1	22701.07	-70.51253	3.690174E-008	0.0006396	7
	45	118	9.450605	10022.39	-25679.8	1	27566.29	-68.68015	3.242306E-008	0.0006525	7
	46	120	7.512019	13084.58	-30348.02	1	33048.58	-66.67666	3.626395E-008	0.0006195	7
	47	123	5.978954	16986.35	-35487.75	1	39343.56	-64.42171	3.873387E-008	0.0006409	7
	48	126	4.734848	21954.92	-41233.81	1	46714.51	-61.96695	-1.006242E-008	0.0006908	6
	49	129	3.75601	27859.23	-47139.07	1	54756.09	-59.41687	-1.363457E-008	0.0006719	6
	50	135	3.004808	34562.61	-53041.12	1	63308.25	-56.91096	-1.075983E-008	0.0006695	6
	51	141	2.372217	42621.11	-59320.01	1	73043.98	-54.30296	-1.430415E-008	0.0007012	6
	52	145	1.878005	51554.74	-65659.29	1	83480.74	-51.8615	-1.549324E-008	0.0006731	6
	53	150	1.512097	60304.23	-71632.73	1	93636.79	-49.90755	-1.32657E-008	0.0006047	6
	54	155	1.201923	70199.58	-78276.67	1	105143.8	-48.11382	-1.35686E-008	0.0006576	6
	55	162	0.956633	80520.63	-85477.61	1	117430.8	-46.71044	-1.497222E-008	4.080886E-005	6
