EXPLAIN
TAG	EISPOT
TITLE	LABEL	Potentiostatic EIS	Test Identifier
DATE	LABEL	2/28/2021	Date
TIME	LABEL	3:15:27	Time
NOTES	NOTES	1	Notes...
	
PSTAT	PSTAT	REF3000-16137	Potentiostat
VDC	POTEN	0.00000E+000	T	DC Voltage (V)
FREQINIT	QUANT	3.00000E+005	Initial Freq. (Hz)
FREQFINAL	QUANT	1.00000E+000	Final Freq. (Hz)
PTSPERDEC	QUANT	1.00000E+001	Points/decade
VAC	QUANT	5.00000E+001	AC Voltage (mV rms)
AREA	QUANT	1.00000E+000	Sample Area (cm^2)
SPEED	SELECTOR	2	Optimize for:
ZGUESS	QUANT	1.00000E+003	Estimated Z (ohms)
EOC	QUANT	0	Open Circuit (V)
SEQUENCER	TOGGLE	TRUE	Run as Sequence
PSTATMODEL	IQUANT	5	Pstat Model
PSTATSECTION	LABEL	REF3000-16137	Pstat Section
PSTATSERIALNO	LABEL	16137	Pstat Serial Number
CTRLMODE	IQUANT	1	Control Mode
IESTAB	IQUANT	0	I/E Stability
CASPEED	IQUANT	1	Control Amp Speed
CONVENTION	IQUANT	1	Current Convention
ICHRANGE	IQUANT	2	Ich Range
ICHRANGEMODE	TOGGLE	F	Ich Auto Range
ICHOFFSETENABLE	TOGGLE	T	Ich Offset Enable
ICHOFFSET	QUANT	0	Ich Offset (V)
ICHFILTER	IQUANT	3	Ich Filter
VCHRANGE	IQUANT	2	Vch Range
VCHRANGEMODE	TOGGLE	F	Vch Auto Range
VCHOFFSETENABLE	TOGGLE	T	Vch Offset Enable
VCHOFFSET	QUANT	0	Vch Offset (V)
VCHFILTER	IQUANT	3	Vch Filter
ACHRANGE	IQUANT	2	Ach Range
ACHOFFSETENABLE	TOGGLE	F	Ach Offset Enable
ACHOFFSET	QUANT	0	Ach Offset (V)
ACHFILTER	IQUANT	3	Ach Filter
IERANGELOWERLIMIT	IQUANT	2	I/E Range Lower Limit
IERANGEMODE	TOGGLE	F	I/E AutoRange
IERANGE	IQUANT	11	I/E Range
POSFEEDENABLE	TOGGLE	F	Positive Feedback IR Comp
POSFEEDRESISTANCE	QUANT	0	Positive Feedback Resistance (ohm)
ACHSELECT	IQUANT	0	Ach Select
CABLEID	IQUANT	13	Cable ID
DCCALDATE	LABEL	7/31/2020	DC Calibration Date
ACCALDATE	LABEL	7/31/2020	AC Calibration Date
THERMOSELECT	IQUANT	1	Thermo Select
FRAMEWORKVERSION	QUANT	6.33	Framework Version
INSTRUMENTVERSION	LABEL	3.50	Instrument Version
COMPLIANCEVOLTAGE	IQUANT	0	Compliance Voltage
ZCURVE	TABLE
	Pt	Time	Freq	Zreal	Zimag	Zsig	Zmod	Zphz	Idc	Vdc	IERange
	#	s	Hz	ohm	ohm	V	ohm	°	A	V	#
	0	17	300046.9	-103.71	-4873.68	1	4874.783	-91.21905	2.703527E-005	-0.0016737	9
	1	31	238359.4	22.25314	-5963.718	1	5963.76	-89.78621	2.486172E-005	0.0010639	9
	2	46	189328.1	222.5054	-7684.923	1	7688.144	-88.34155	2.1214E-005	-0.0008155	9
	3	56	150421.9	562.3476	-9523.61	1	9540.2	-86.62074	2.663975E-005	-0.0017987	9
	4	63	119484.4	722.6168	-11575.29	1	11597.83	-86.4278	-4.210031E-005	0.0227733	8
	5	71	94921.88	434.5239	-14595.33	1	14601.8	-88.29472	1.653463E-005	-0.0092804	8
	6	79	75421.88	211.4298	-18154.61	1	18155.84	-89.33276	1.670552E-005	-0.0093558	8
	7	88	59859.37	714.8662	-23025.27	1	23036.37	-88.22171	2.325598E-005	-0.0027704	8
	8	95	47578.12	79.28062	-30053.4	1	30053.5	-89.84885	-1.57153E-005	0.0005869	8
	9	103	37828.12	4375.672	-37571.35	1	37825.29	-83.35709	6.642738E-006	-0.0099391	7
	10	110	30046.88	4400.999	-46351.91	1	46560.37	-84.57616	-5.293149E-006	0.0034254	7
	11	118	23859.38	4634.444	-58172.97	1	58357.29	-85.44506	-5.40728E-006	0.0267581	7
	12	123	18984.38	4183.25	-72758.88	1	72879.03	-86.70942	-5.410941E-006	0.0268053	7
	13	129	15046.87	4647.015	-82349.99	1	82481	-86.77022	1.686247E-005	-0.0092099	8
	14	136	11953.13	2388.876	-113008.6	1	113033.9	-88.78901	7.633237E-006	-0.018474	7
	15	143	9515.62	5597.8	-143457.7	1	143566.8	-87.76542	2.813801E-006	0.0082587	7
	16	148	7546.875	1844.746	-175510	1	175519.7	-89.3978	-6.73986E-006	0.0120171	7
	17	153	5928.309	-22708.84	-205432.6	1	206683.9	-96.308	-3.337041E-006	-0.0053023	7
	18	160	4733.456	14618.48	-296389.8	1	296750.1	-87.17635	5.443291E-006	-0.0269231	7
	19	165	3796.875	80073.23	-315301	1	325309.8	-75.75052	-8.983057E-006	-0.0022535	8
	20	174	2987.132	-97935.7	-394717.2	1	406685.5	-103.9346	1.660469E-005	-0.009264	8
	21	183	2390.625	17490.43	-527800.4	1	528090.1	-88.10201	5.471032E-006	-0.0271439	7
	22	190	1884.191	430572.5	-655531.8	1	784292.4	-56.70192	4.937971E-006	-0.0005596	7
	23	197	1516.544	-183750.4	-606411.4	1	633639.4	-106.8575	-1.798742E-006	0.0221337	7
	24	204	1193.986	-17577.54	-1132846	1	1132982	-90.88895	4.037057E-007	-0.025483	6
	25	210	946.5144	26891.77	-1239069	1	1239361	-88.75669	6.049535E-007	-0.0280201	6
	26	213	751.7689	92622.78	-1710611	1	1713116	-86.90069	3.983509E-007	-0.0251997	6
	27	217	597.4265	116964.5	-2608934	1	2611554	-87.43302	4.335572E-007	0.0021078	6
	28	222	477.4305	66470.49	-2837554	1	2838333	-88.65807	-6.71208E-009	0.0006781	6
	29	227	376.6741	458274.8	-3711592	1	3739776	-82.96124	-7.967214E-010	0.0005936	5
	30	231	298.2954	507719.5	-4613904	1	4641755	-83.72037	-7.650602E-010	0.000694	5
	31	235	237.7717	537547.4	-5768893	1	5793883	-84.67653	-6.52516E-010	0.0006006	5
	32	239	189.0121	510827.4	-7211381	1	7229451	-85.94815	-7.685864E-010	0.0006304	5
	33	243	150.2404	482903.8	-9187916	1	9200598	-86.99139	-6.743787E-010	0.0006004	5
	34	246	119.1737	-623280.8	-1.234068E+007	1	1.235641E+007	-92.89133	-8.055748E-010	0.0006887	5
	35	248	95.0169	342649.7	-1.464136E+007	1	1.464537E+007	-88.65936	-7.585119E-010	0.0006966	5
	36	251	75.60484	485196.1	-1.996868E+007	1	1.997457E+007	-88.60811	-6.259739E-010	0.0006052	5
	37	254	54.50582	-331192.1	-2.620095E+007	1	2.620304E+007	-90.72421	-6.512523E-010	0.0006125	5
	38	257	45.95588	-3474061	-3.01671E+007	1	3.036647E+007	-96.5693	-6.281105E-010	0.0006424	5
	39	261	37.20238	6282117	-4.084026E+007	1	4.13206E+007	-81.25521	-6.744944E-010	0.0006949	5
	40	265	30.04808	3915168	-4.627401E+007	1	4.643934E+007	-85.16382	-5.355827E-011	0.0006157	4
	41	269	23.91582	1.638949E+007	-5.907762E+007	1	6.13089E+007	-74.49476	2.014161E-011	0.0006904	4
	42	273	18.60119	2.977583E+007	-5.07264E+007	1	5.881979E+007	-59.58755	1.462312E-010	0.0006948	4
	43	276	15.02404	6968463	-8.884966E+007	1	8.912251E+007	-85.51548	-6.379681E-011	0.0006251	4
	44	280	12.01923	49741.43	-1.176743E+008	1	1.176743E+008	-89.97578	-8.670675E-011	0.0006089	4
	45	284	9.450605	4067604	-1.48971E+008	1	1.490265E+008	-88.43594	-6.24231E-011	0.0006942	4
	46	288	7.512019	-8355688	-1.90123E+008	1	1.903065E+008	-92.51646	-9.038145E-011	0.0006432	4
	47	292	5.978954	-3.692395E+007	-1.977426E+008	1	2.011604E+008	-100.5769	-2.842158E-011	0.0006798	4
	48	297	4.734848	5472225	-2.869596E+008	1	2.870117E+008	-88.90752	-6.019946E-011	0.0006106	4
	49	306	3.75601	1.691486E+007	-2.930656E+008	1	2.935533E+008	-86.69672	-7.230406E-010	0.0006051	5
	50	314	3.004808	-4.553638E+007	-3.582805E+008	1	3.611627E+008	-97.2433	-7.704649E-010	0.0006722	5
	51	323	2.372217	4.896978E+007	-5.657627E+008	1	5.67878E+008	-85.05308	-5.830923E-012	0.0007225	3
	52	330	1.878005	5.196153E+007	-7.122938E+008	1	7.141866E+008	-85.82769	-5.532328E-012	0.0007069	3
	53	339	1.512097	4.85979E+007	-8.789035E+008	1	8.80246E+008	-86.83512	-5.645534E-012	0.0007893	3
	54	346	1.201923	4.880872E+007	-1.103135E+009	1	1.104214E+009	-87.46658	-5.456041E-012	0.0007191	3
	55	359	0.956633	3.674022E+007	-1.383147E+009	1	1.383635E+009	-88.47842	-5.563768E-012	7.958823E-005	3
