EXPLAIN
TAG	EISPOT
TITLE	LABEL	Potentiostatic EIS	Test Identifier
DATE	LABEL	2/28/2021	Date
TIME	LABEL	1:57:39	Time
NOTES	NOTES	1	Notes...
	
PSTAT	PSTAT	REF3000-16137	Potentiostat
VDC	POTEN	0.00000E+000	T	DC Voltage (V)
FREQINIT	QUANT	3.00000E+005	Initial Freq. (Hz)
FREQFINAL	QUANT	1.00000E+000	Final Freq. (Hz)
PTSPERDEC	QUANT	1.00000E+001	Points/decade
VAC	QUANT	5.00000E+001	AC Voltage (mV rms)
AREA	QUANT	1.00000E+000	Sample Area (cm^2)
SPEED	SELECTOR	2	Optimize for:
ZGUESS	QUANT	1.00000E+003	Estimated Z (ohms)
EOC	QUANT	0	Open Circuit (V)
SEQUENCER	TOGGLE	TRUE	Run as Sequence
PSTATMODEL	IQUANT	5	Pstat Model
PSTATSECTION	LABEL	REF3000-16137	Pstat Section
PSTATSERIALNO	LABEL	16137	Pstat Serial Number
CTRLMODE	IQUANT	1	Control Mode
IESTAB	IQUANT	0	I/E Stability
CASPEED	IQUANT	1	Control Amp Speed
CONVENTION	IQUANT	1	Current Convention
ICHRANGE	IQUANT	2	Ich Range
ICHRANGEMODE	TOGGLE	F	Ich Auto Range
ICHOFFSETENABLE	TOGGLE	T	Ich Offset Enable
ICHOFFSET	QUANT	0	Ich Offset (V)
ICHFILTER	IQUANT	3	Ich Filter
VCHRANGE	IQUANT	2	Vch Range
VCHRANGEMODE	TOGGLE	F	Vch Auto Range
VCHOFFSETENABLE	TOGGLE	T	Vch Offset Enable
VCHOFFSET	QUANT	0	Vch Offset (V)
VCHFILTER	IQUANT	3	Vch Filter
ACHRANGE	IQUANT	2	Ach Range
ACHOFFSETENABLE	TOGGLE	F	Ach Offset Enable
ACHOFFSET	QUANT	0	Ach Offset (V)
ACHFILTER	IQUANT	3	Ach Filter
IERANGELOWERLIMIT	IQUANT	2	I/E Range Lower Limit
IERANGEMODE	TOGGLE	F	I/E AutoRange
IERANGE	IQUANT	11	I/E Range
POSFEEDENABLE	TOGGLE	F	Positive Feedback IR Comp
POSFEEDRESISTANCE	QUANT	0	Positive Feedback Resistance (ohm)
ACHSELECT	IQUANT	0	Ach Select
CABLEID	IQUANT	13	Cable ID
DCCALDATE	LABEL	7/31/2020	DC Calibration Date
ACCALDATE	LABEL	7/31/2020	AC Calibration Date
THERMOSELECT	IQUANT	1	Thermo Select
FRAMEWORKVERSION	QUANT	6.33	Framework Version
INSTRUMENTVERSION	LABEL	3.50	Instrument Version
COMPLIANCEVOLTAGE	IQUANT	0	Compliance Voltage
ZCURVE	TABLE
	Pt	Time	Freq	Zreal	Zimag	Zsig	Zmod	Zphz	Idc	Vdc	IERange
	#	s	Hz	ohm	ohm	V	ohm	°	A	V	#
	0	15	300046.9	437.1253	-45.19408	1	439.4554	-5.902798	8.614848E-005	-0.0027422	9
	1	20	238359.4	442.6294	-44.07287	1	444.8181	-5.686233	-1.853896E-005	0.0014253	9
	2	28	189328.1	449.0586	-42.1187	1	451.0295	-5.358285	8.467942E-005	-0.002411	9
	3	35	150421.9	455.1814	-41.56479	1	457.0752	-5.217482	2.313739E-005	-0.0013492	9
	4	42	119484.4	463.8065	-31.32492	1	464.8631	-3.863819	-4.622106E-005	0.0127838	8
	5	48	94921.88	468.0841	-36.04025	1	469.4695	-4.402816	2.580179E-006	0.0034021	8
	6	51	75421.88	472.4564	-42.63779	1	474.3765	-5.156805	9.789163E-006	-0.0052771	8
	7	54	59859.37	477.5203	-52.40537	1	480.3873	-6.262851	-2.323481E-006	-0.002075	8
	8	56	47578.12	482.4904	-62.77739	1	486.5573	-7.413176	1.486156E-005	-0.0021081	8
	9	59	37828.12	490.3379	-75.15807	1	496.0645	-8.714366	-1.435456E-005	0.003945	8
	10	61	30046.88	498.6761	-90.57982	1	506.8359	-10.295	1.241051E-005	-0.0052784	8
	11	64	23859.38	508.828	-106.7052	1	519.8961	-11.84374	-2.965549E-006	-0.0016902	8
	12	66	18984.38	521.226	-125.0741	1	536.0225	-13.49364	1.509384E-005	-0.002214	8
	13	68	15046.87	533.7037	-148.8748	1	554.0789	-15.58626	1.186274E-005	-0.0002953	8
	14	71	11953.13	550.9202	-170.6682	1	576.7501	-17.21233	-1.485609E-005	0.0051177	8
	15	73	9515.62	568.6948	-201.1757	1	603.2292	-19.48123	-8.399523E-006	0.000543	8
	16	75	7546.875	589.8742	-230.8169	1	633.4256	-21.37033	1.262204E-005	-0.0054096	8
	17	78	5928.309	613.4841	-274.5636	1	672.122	-24.11081	-9.525698E-006	0.0064364	8
	18	80	4733.456	638.6072	-316.9376	1	712.9296	-26.39498	-2.344514E-006	-0.0020932	8
	19	83	3796.875	666.1882	-366.016	1	760.1147	-28.7852	1.539868E-005	-0.0023734	8
	20	85	2987.132	694.8286	-431.1676	1	817.7361	-31.82117	-7.463485E-006	-0.0001401	8
	21	88	2390.625	724.3242	-503.6986	1	882.2459	-34.81494	1.609706E-005	-0.0032869	8
	22	90	1884.191	750.0555	-595.7914	1	957.889	-38.46116	-1.465846E-005	0.0060683	8
	23	93	1516.544	786.4466	-705.7838	1	1056.707	-41.90588	1.229476E-005	-0.0053071	8
	24	96	1193.986	819.2706	-851.8914	1	1181.915	-46.11826	8.36168E-006	-0.0049161	8
	25	99	946.5144	857.4869	-1030.292	1	1340.443	-50.23023	-7.449344E-006	-0.0002174	8
	26	102	751.7689	897.8583	-1255.599	1	1543.593	-54.43207	-7.520831E-006	-0.0001661	8
	27	105	597.4265	941.8576	-1535.512	1	1801.359	-58.47574	8.375282E-006	-0.0049236	8
	28	107	477.4305	996.956	-1864.031	1	2113.89	-61.86041	-1.644253E-008	0.0006543	8
	29	109	376.6741	1063.673	-2301.347	1	2535.271	-65.19382	1.431019E-008	0.0006361	8
	30	112	298.2954	1142.639	-2837.053	1	3058.511	-68.06261	-1.377168E-008	0.0006565	8
	31	114	237.7717	1234.598	-3481.096	1	3693.543	-70.47256	-9.151283E-009	0.0006444	8
	32	117	189.0121	1351.564	-4294.079	1	4501.76	-72.52857	-1.575746E-008	0.0006259	7
	33	119	150.2404	1486.771	-5291.571	1	5496.472	-74.30625	-1.248708E-008	0.0006211	7
	34	121	119.1737	1652.354	-6537.583	1	6743.164	-75.81572	-1.318139E-008	0.0006324	7
	35	124	95.0169	1848.913	-8045.698	1	8255.407	-77.05804	-1.651276E-008	0.0006358	7
	36	126	75.60484	2093.148	-9925.91	1	10144.2	-78.09209	-1.452995E-008	0.0006042	7
	37	129	54.50582	2537.238	-13407.63	1	13645.59	-79.28416	-1.272901E-008	0.0005965	7
	38	131	45.95588	2835.763	-15698.69	1	15952.76	-79.76068	-1.234932E-008	0.0006081	7
	39	134	37.20238	3275.186	-19079.25	1	19358.32	-80.25942	-1.510312E-008	0.0006076	7
	40	136	30.04808	3827.528	-23243.09	1	23556.13	-80.64881	-1.464381E-008	0.0006274	7
	41	139	23.91582	4566.594	-28695.16	1	29056.26	-80.95769	-1.32603E-008	0.0005954	7
	42	141	18.60119	5602.002	-36220.37	1	36651.03	-81.20805	-1.135097E-008	0.0006152	7
	43	143	15.02404	6701.89	-44025.68	1	44532.86	-81.3445	-2.198736E-009	0.0006845	6
	44	146	12.01923	8157.964	-54060.43	1	54672.5	-81.41856	-1.874938E-009	0.0006715	6
	45	148	9.450605	10074.95	-67436.13	1	68184.57	-81.50287	-1.394219E-009	0.0006891	6
	46	151	7.512019	12527.54	-83182.81	1	84120.86	-81.43548	-1.74816E-009	0.000704	6
	47	154	5.978954	15536.81	-102453.9	1	103625.3	-81.37698	-2.135274E-009	0.0006829	6
	48	158	4.734848	19443.23	-126873	1	128354.2	-81.28724	-1.615218E-009	0.0006496	6
	49	161	3.75601	24197.34	-156634.9	1	158493	-81.21823	-1.711868E-009	0.0006691	6
	50	167	3.004808	29926.8	-191774	1	194095	-81.13039	-1.79074E-009	0.0006587	6
	51	173	2.372217	37846.29	-237604.8	1	240600	-80.94981	-2.165566E-009	0.0006579	6
	52	177	1.878005	47842.79	-294700	1	298558.3	-80.77882	-1.720361E-009	0.0006389	6
	53	182	1.512097	58862.31	-358550.8	1	363350.3	-80.67707	-2.109682E-009	0.000723	6
	54	187	1.201923	75753.09	-443003.3	1	449433.5	-80.29634	-1.129964E-010	0.0006573	5
	55	194	0.956633	96748.4	-545184	1	553701.9	-79.93704	-4.858962E-010	1.113139E-005	5
