EXPLAIN
TAG	EISPOT
TITLE	LABEL	Potentiostatic EIS	Test Identifier
DATE	LABEL	2/28/2021	Date
TIME	LABEL	1:45:20	Time
NOTES	NOTES	1	Notes...
	
PSTAT	PSTAT	REF3000-16137	Potentiostat
VDC	POTEN	0.00000E+000	T	DC Voltage (V)
FREQINIT	QUANT	3.00000E+005	Initial Freq. (Hz)
FREQFINAL	QUANT	1.00000E+000	Final Freq. (Hz)
PTSPERDEC	QUANT	1.00000E+001	Points/decade
VAC	QUANT	5.00000E+001	AC Voltage (mV rms)
AREA	QUANT	1.00000E+000	Sample Area (cm^2)
SPEED	SELECTOR	2	Optimize for:
ZGUESS	QUANT	1.00000E+003	Estimated Z (ohms)
EOC	QUANT	0	Open Circuit (V)
SEQUENCER	TOGGLE	TRUE	Run as Sequence
PSTATMODEL	IQUANT	5	Pstat Model
PSTATSECTION	LABEL	REF3000-16137	Pstat Section
PSTATSERIALNO	LABEL	16137	Pstat Serial Number
CTRLMODE	IQUANT	1	Control Mode
IESTAB	IQUANT	0	I/E Stability
CASPEED	IQUANT	1	Control Amp Speed
CONVENTION	IQUANT	1	Current Convention
ICHRANGE	IQUANT	2	Ich Range
ICHRANGEMODE	TOGGLE	F	Ich Auto Range
ICHOFFSETENABLE	TOGGLE	T	Ich Offset Enable
ICHOFFSET	QUANT	0	Ich Offset (V)
ICHFILTER	IQUANT	3	Ich Filter
VCHRANGE	IQUANT	2	Vch Range
VCHRANGEMODE	TOGGLE	F	Vch Auto Range
VCHOFFSETENABLE	TOGGLE	T	Vch Offset Enable
VCHOFFSET	QUANT	0	Vch Offset (V)
VCHFILTER	IQUANT	3	Vch Filter
ACHRANGE	IQUANT	2	Ach Range
ACHOFFSETENABLE	TOGGLE	F	Ach Offset Enable
ACHOFFSET	QUANT	0	Ach Offset (V)
ACHFILTER	IQUANT	3	Ach Filter
IERANGELOWERLIMIT	IQUANT	2	I/E Range Lower Limit
IERANGEMODE	TOGGLE	F	I/E AutoRange
IERANGE	IQUANT	11	I/E Range
POSFEEDENABLE	TOGGLE	F	Positive Feedback IR Comp
POSFEEDRESISTANCE	QUANT	0	Positive Feedback Resistance (ohm)
ACHSELECT	IQUANT	0	Ach Select
CABLEID	IQUANT	13	Cable ID
DCCALDATE	LABEL	7/31/2020	DC Calibration Date
ACCALDATE	LABEL	7/31/2020	AC Calibration Date
THERMOSELECT	IQUANT	1	Thermo Select
FRAMEWORKVERSION	QUANT	6.33	Framework Version
INSTRUMENTVERSION	LABEL	3.50	Instrument Version
COMPLIANCEVOLTAGE	IQUANT	0	Compliance Voltage
ZCURVE	TABLE
	Pt	Time	Freq	Zreal	Zimag	Zsig	Zmod	Zphz	Idc	Vdc	IERange
	#	s	Hz	ohm	ohm	V	ohm	°	A	V	#
	0	7	300046.9	178.2335	-12.88432	1	178.6986	-4.13466	2.88137E-005	0.0004329	9
	1	10	238359.4	179.9386	-15.52336	1	180.607	-4.930715	-7.619438E-006	-0.0015425	9
	2	13	189328.1	181.3218	-18.29835	1	182.2427	-5.762577	-7.838586E-006	0.0012814	9
	3	15	150421.9	183.2938	-21.39926	1	184.5387	-6.659048	4.931493E-005	-0.0002394	9
	4	18	119484.4	185.8333	-25.46658	1	187.5701	-7.803205	-8.564517E-006	0.0013933	9
	5	21	94921.88	188.6151	-29.74632	1	190.9463	-8.962252	2.641926E-005	-0.0006721	9
	6	23	75421.88	191.8557	-35.21561	1	195.0609	-10.40101	1.511045E-005	-0.0007588	9
	7	26	59859.37	195.6084	-41.51043	1	199.9644	-11.9811	1.19002E-005	0.0002779	9
	8	28	47578.12	200.196	-48.73302	1	206.0421	-13.68123	2.516069E-005	-0.0002674	9
	9	31	37828.12	205.3167	-56.85593	1	213.0435	-15.47838	9.646169E-006	-0.0006383	9
	10	33	30046.88	211.5344	-66.36861	1	221.7016	-17.41917	1.992545E-005	-8.544999E-005	9
	11	36	23859.38	218.6944	-77.28365	1	231.9483	-19.46272	3.014466E-005	-0.0007117	9
	12	38	18984.38	226.0886	-89.88998	1	243.3028	-21.68215	-8.976771E-006	0.0009121	9
	13	40	15046.87	235.1342	-103.8988	1	257.0662	-23.8392	-1.520808E-005	0.0001591	9
	14	43	11953.13	244.8882	-121.3592	1	273.3099	-26.36162	-1.527262E-005	0.0001396	9
	15	45	9515.62	255.1336	-140.3282	1	291.179	-28.81161	-1.567175E-005	0.0010021	9
	16	47	7546.875	266.1868	-163.063	1	312.1618	-31.49117	-2.149068E-005	0.0009549	9
	17	50	5928.309	278.2653	-193.6985	1	339.0438	-34.84151	-1.498808E-005	0.0009411	9
	18	52	4733.456	288.5412	-227.553	1	367.4729	-38.26046	1.142398E-005	0.00028	9
	19	54	3796.875	300.1534	-268.9641	1	403.0307	-41.86316	1.510811E-005	-0.0007245	9
	20	57	2987.132	311.7444	-322.6083	1	448.6209	-45.98115	8.984493E-006	-0.0028193	8
	21	59	2390.625	325.6812	-387.6517	1	506.3024	-49.96508	-8.64421E-006	0.002234	8
	22	61	1884.191	341.5821	-471.7713	1	582.4487	-54.09389	-8.652827E-006	0.002329	8
	23	64	1516.544	359.3969	-569.9772	1	673.8251	-57.76668	1.049622E-005	-0.0020416	8
	24	66	1193.986	379.7401	-703.4565	1	799.4083	-61.63892	1.030205E-005	-0.0019656	8
	25	68	946.5144	404.4626	-864.6627	1	954.584	-64.93125	-8.470985E-006	0.0039105	8
	26	71	751.7689	436.8293	-1057.259	1	1143.948	-67.55099	-8.683121E-006	0.0022988	8
	27	74	597.4265	470.7988	-1304.636	1	1386.985	-70.15721	-2.283122E-006	0.0034819	8
	28	76	477.4305	515.178	-1594.307	1	1675.478	-72.09249	1.619813E-007	0.0006676	8
	29	78	376.6741	569.5458	-1975.606	1	2056.064	-73.9183	1.703397E-007	0.0006563	8
	30	81	298.2954	634.6625	-2441.798	1	2522.929	-75.43029	1.790887E-007	0.0006488	8
	31	83	237.7717	712.1085	-3002.587	1	3085.875	-76.65795	1.732134E-007	0.0006448	8
	32	86	189.0121	807.6317	-3702.725	1	3789.781	-77.69547	1.779047E-007	0.0006478	8
	33	88	150.2404	929.4943	-4577.544	1	4670.96	-78.52185	1.119441E-008	0.0006147	7
	34	90	119.1737	1078.057	-5660.881	1	5762.62	-79.21772	7.678743E-009	0.0006362	7
	35	93	95.0169	1258.494	-6970.27	1	7082.971	-79.76541	1.037042E-008	0.0006191	7
	36	95	75.60484	1486.245	-8598.504	1	8726.007	-80.19337	9.532603E-009	0.0006052	7
	37	98	54.50582	1918.839	-11609.5	1	11767.01	-80.6149	5.872291E-009	0.0006267	7
	38	100	45.95588	2215.361	-13576.9	1	13756.46	-80.73264	1.088437E-008	0.0006317	7
	39	103	37.20238	2661.07	-16473.16	1	16686.71	-80.82372	9.379232E-009	0.0006344	7
	40	105	30.04808	3211.548	-20017.72	1	20273.71	-80.88541	6.011929E-009	0.0006307	7
	41	108	23.91582	3970.977	-24675.71	1	24993.19	-80.85797	9.017103E-009	0.000624	7
	42	110	18.60119	5020.435	-30967.4	1	31371.72	-80.79133	7.524715E-009	0.0006248	7
	43	112	15.02404	6114.043	-37561.91	1	38056.25	-80.75491	9.184044E-009	0.0006349	7
	44	114	12.01923	7582.286	-45959.11	1	46580.37	-80.63179	1.375284E-009	0.0006641	6
	45	117	9.450605	9561.19	-57082.2	1	57877.4	-80.4913	5.760564E-011	0.0006779	6
	46	119	7.512019	11935.51	-70247.6	1	71254.34	-80.35717	5.457231E-010	0.0006653	6
	47	122	5.978954	14961.71	-86336.5	1	87623.3	-80.16855	7.733494E-010	0.0006735	6
	48	127	4.734848	18965.69	-106595.4	1	108269.4	-79.91138	7.978713E-010	0.0006302	6
	49	130	3.75601	24230.67	-131439.3	1	133654.1	-79.55486	5.802096E-010	0.0006818	6
	50	136	3.004808	30790.24	-160702.8	1	163625.9	-79.15372	8.175106E-010	0.0006419	6
	51	142	2.372217	40033.19	-198623.5	1	202617.8	-78.60453	8.706617E-010	0.0005785	6
	52	146	1.878005	52750.55	-244458.1	1	250084.7	-77.8231	5.359809E-010	0.0006755	6
	53	151	1.512097	68398.09	-295870.9	1	303674	-76.98328	5.665745E-010	0.0005643	6
	54	156	1.201923	90272.17	-361721.6	1	372815.7	-75.98734	2.364723E-010	0.0006807	6
	55	163	0.956633	119488.7	-439666	1	455613.6	-74.79587	-5.718041E-010	1.08071E-005	5
