EXPLAIN
TAG	EISPOT
TITLE	LABEL	Potentiostatic EIS	Test Identifier
DATE	LABEL	2/28/2021	Date
TIME	LABEL	3:35:33	Time
NOTES	NOTES	1	Notes...
	
PSTAT	PSTAT	REF3000-16137	Potentiostat
VDC	POTEN	0.00000E+000	T	DC Voltage (V)
FREQINIT	QUANT	3.00000E+005	Initial Freq. (Hz)
FREQFINAL	QUANT	1.00000E+000	Final Freq. (Hz)
PTSPERDEC	QUANT	1.00000E+001	Points/decade
VAC	QUANT	5.00000E+001	AC Voltage (mV rms)
AREA	QUANT	1.00000E+000	Sample Area (cm^2)
SPEED	SELECTOR	2	Optimize for:
ZGUESS	QUANT	1.00000E+003	Estimated Z (ohms)
EOC	QUANT	0	Open Circuit (V)
SEQUENCER	TOGGLE	TRUE	Run as Sequence
PSTATMODEL	IQUANT	5	Pstat Model
PSTATSECTION	LABEL	REF3000-16137	Pstat Section
PSTATSERIALNO	LABEL	16137	Pstat Serial Number
CTRLMODE	IQUANT	1	Control Mode
IESTAB	IQUANT	0	I/E Stability
CASPEED	IQUANT	1	Control Amp Speed
CONVENTION	IQUANT	1	Current Convention
ICHRANGE	IQUANT	2	Ich Range
ICHRANGEMODE	TOGGLE	F	Ich Auto Range
ICHOFFSETENABLE	TOGGLE	T	Ich Offset Enable
ICHOFFSET	QUANT	0	Ich Offset (V)
ICHFILTER	IQUANT	3	Ich Filter
VCHRANGE	IQUANT	2	Vch Range
VCHRANGEMODE	TOGGLE	F	Vch Auto Range
VCHOFFSETENABLE	TOGGLE	T	Vch Offset Enable
VCHOFFSET	QUANT	0	Vch Offset (V)
VCHFILTER	IQUANT	3	Vch Filter
ACHRANGE	IQUANT	2	Ach Range
ACHOFFSETENABLE	TOGGLE	F	Ach Offset Enable
ACHOFFSET	QUANT	0	Ach Offset (V)
ACHFILTER	IQUANT	3	Ach Filter
IERANGELOWERLIMIT	IQUANT	2	I/E Range Lower Limit
IERANGEMODE	TOGGLE	F	I/E AutoRange
IERANGE	IQUANT	11	I/E Range
POSFEEDENABLE	TOGGLE	F	Positive Feedback IR Comp
POSFEEDRESISTANCE	QUANT	0	Positive Feedback Resistance (ohm)
ACHSELECT	IQUANT	0	Ach Select
CABLEID	IQUANT	13	Cable ID
DCCALDATE	LABEL	7/31/2020	DC Calibration Date
ACCALDATE	LABEL	7/31/2020	AC Calibration Date
THERMOSELECT	IQUANT	1	Thermo Select
FRAMEWORKVERSION	QUANT	6.33	Framework Version
INSTRUMENTVERSION	LABEL	3.50	Instrument Version
COMPLIANCEVOLTAGE	IQUANT	0	Compliance Voltage
ZCURVE	TABLE
	Pt	Time	Freq	Zreal	Zimag	Zsig	Zmod	Zphz	Idc	Vdc	IERange
	#	s	Hz	ohm	ohm	V	ohm	°	A	V	#
	0	7	300046.9	64.40378	-6.223338	1	64.70376	-5.519356	5.337598E-006	-0.0014112	9
	1	10	238359.4	64.00211	-8.353985	1	64.54502	-7.436586	1.735863E-005	-0.0008166	9
	2	14	189328.1	64.03728	-10.58534	1	64.90627	-9.386101	-6.43583E-005	0.0017058	9
	3	16	150421.9	64.26794	-12.97584	1	65.56477	-11.41469	-5.687594E-005	0.0015902	9
	4	19	119484.4	64.99184	-15.60209	1	66.83834	-13.49911	7.059498E-006	-0.0006282	9
	5	21	94921.88	65.8636	-18.30438	1	68.35982	-15.53133	-1.337356E-005	0.0001796	9
	6	24	75421.88	66.94638	-21.5578	1	70.33176	-17.84939	-1.745343E-005	0.0005364	9
	7	26	59859.37	68.37289	-25.22207	1	72.87665	-20.24851	9.789127E-006	5.393473E-005	9
	8	29	47578.12	69.92876	-29.18257	1	75.7737	-22.65168	-1.598827E-005	0.0007099	9
	9	31	37828.12	71.84645	-33.74923	1	79.37836	-25.16137	-1.49089E-005	0.0003503	9
	10	34	30046.88	73.89675	-38.84016	1	83.48226	-27.72643	-7.888774E-006	0.00068	9
	11	36	23859.38	76.05288	-44.94114	1	88.33881	-30.57967	1.860091E-005	-0.0001378	9
	12	39	18984.38	78.29948	-52.27312	1	94.14504	-33.72727	-1.366233E-005	0.0006708	9
	13	41	15046.87	80.59764	-61.31971	1	101.2723	-37.26434	2.236857E-005	-0.0004168	9
	14	43	11953.13	82.97459	-72.46593	1	110.1639	-41.13237	9.634138E-006	-0.0004652	9
	15	46	9515.62	85.57874	-86.18067	1	121.453	-45.20079	-1.307542E-005	0.0006429	9
	16	48	7546.875	88.54678	-103.4601	1	136.1783	-49.4413	2.090205E-005	-0.0002635	9
	17	50	5928.309	92.24849	-125.8679	1	156.0529	-53.76234	-1.672216E-005	0.0005843	9
	18	53	4733.456	96.3825	-151.8459	1	179.8521	-57.59513	1.707713E-005	-0.000141	9
	19	55	3796.875	101.0894	-183.0314	1	209.0923	-61.08786	1.501878E-005	-0.0005258	9
	20	57	2987.132	107.9995	-224.8945	1	249.4823	-64.34861	-2.017415E-006	0.0004887	9
	21	60	2390.625	115.7882	-272.5108	1	296.0896	-66.97965	1.771571E-005	-0.000123	9
	22	62	1884.191	125.4343	-335.9662	1	358.6182	-69.52669	2.100384E-005	-0.0004052	9
	23	64	1516.544	138.3246	-405.6169	1	428.5543	-71.16946	1.458451E-005	-0.0005162	9
	24	67	1193.986	153.9888	-498.0658	1	521.3272	-72.81977	-2.683537E-006	0.0011214	8
	25	69	946.5144	173.5111	-610.2354	1	634.4236	-74.12771	-1.629546E-007	0.0014755	8
	26	72	751.7689	199.709	-747.5964	1	773.8113	-75.04355	2.268325E-006	-0.0003522	8
	27	74	597.4265	230.8265	-913.0464	1	941.772	-75.81237	4.190486E-006	-0.0001531	8
	28	76	477.4305	272.3643	-1111.267	1	1144.157	-76.22865	4.738835E-007	0.0006545	8
	29	79	376.6741	327.4281	-1366.53	1	1405.209	-76.52564	4.67313E-007	0.0006493	8
	30	81	298.2954	397.6667	-1673.795	1	1720.386	-76.63523	4.587891E-007	0.0006531	8
	31	83	237.7717	486.2917	-2036.363	1	2093.623	-76.56908	4.75904E-007	0.0006443	8
	32	86	189.0121	603.6781	-2481.574	1	2553.945	-76.32756	4.736733E-007	0.0006488	8
	33	88	150.2404	758.884	-3020.507	1	3114.381	-75.8967	4.81003E-007	0.0006455	8
	34	90	119.1737	968.633	-3676.734	1	3802.187	-75.24083	4.790026E-007	0.0006495	8
	35	93	95.0169	1248.51	-4453.421	1	4625.121	-74.33924	3.566282E-008	0.0006232	7
	36	95	75.60484	1626.943	-5371.899	1	5612.864	-73.15044	3.059504E-008	0.0006253	7
	37	98	54.50582	2413.108	-6969.546	1	7375.478	-70.90231	3.375303E-008	0.0006131	7
	38	101	45.95588	2974.96	-7913.635	1	8454.349	-69.39733	4.178068E-008	0.0006176	7
	39	103	37.20238	3843.006	-9183.722	1	9955.37	-67.29272	3.782258E-008	0.0006186	7
	40	105	30.04808	4957.88	-10555.71	1	11662.05	-64.84116	3.204351E-008	0.0006245	7
	41	108	23.91582	6392.327	-12061.29	1	13650.52	-62.077	2.402705E-008	0.0006233	7
	42	110	18.60119	8244.469	-13713.82	1	16001.25	-58.98656	4.132379E-008	0.0006243	7
	43	112	15.02404	9986.95	-15073.65	1	18081.87	-56.47381	2.447551E-008	0.0006149	7
	44	115	12.01923	11837.64	-16435.97	1	20255.14	-54.23753	2.660709E-008	0.0006245	7
	45	117	9.450605	13819.13	-17984.46	1	22680.59	-52.46157	2.65957E-008	0.0006331	7
	46	120	7.512019	15617.88	-19664.75	1	25112.16	-51.54316	2.824646E-008	0.0006189	7
	47	122	5.978954	17155.25	-21540.7	1	27537.33	-51.46579	2.975957E-008	0.0006336	7
	48	125	4.734848	18896.89	-24123.62	1	30643.78	-51.92713	3.600658E-008	0.0006254	7
	49	129	3.75601	20662.79	-27314.31	1	34249.42	-52.89315	3.190967E-008	0.0006265	7
	50	132	3.004808	22551.8	-31061.21	1	38384.66	-54.0187	3.712583E-008	0.0005915	7
	51	136	2.372217	24836.14	-35889.6	1	43645.13	-55.31618	-1.927554E-008	0.0005932	6
	52	140	1.878005	27418.4	-41539.62	1	49772.57	-56.57302	-1.801144E-008	0.000678	6
	53	145	1.512097	30510.19	-47635.72	1	56568.84	-57.36086	-2.027666E-008	0.0005862	6
	54	150	1.201923	34544.2	-55199.06	1	65117.11	-57.9612	-2.26141E-008	0.0006989	6
	55	156	0.956633	39302.59	-63607.06	1	74769.99	-58.28822	-2.756199E-008	2.445025E-005	6
