EXPLAIN
TAG	EISPOT
TITLE	LABEL	Potentiostatic EIS	Test Identifier
DATE	LABEL	2/28/2021	Date
TIME	LABEL	0:56:51	Time
NOTES	NOTES	1	Notes...
	
PSTAT	PSTAT	REF3000-16137	Potentiostat
VDC	POTEN	0.00000E+000	T	DC Voltage (V)
FREQINIT	QUANT	3.00000E+005	Initial Freq. (Hz)
FREQFINAL	QUANT	1.00000E+000	Final Freq. (Hz)
PTSPERDEC	QUANT	1.00000E+001	Points/decade
VAC	QUANT	5.00000E+001	AC Voltage (mV rms)
AREA	QUANT	1.00000E+000	Sample Area (cm^2)
SPEED	SELECTOR	2	Optimize for:
ZGUESS	QUANT	1.00000E+003	Estimated Z (ohms)
EOC	QUANT	0	Open Circuit (V)
SEQUENCER	TOGGLE	TRUE	Run as Sequence
PSTATMODEL	IQUANT	5	Pstat Model
PSTATSECTION	LABEL	REF3000-16137	Pstat Section
PSTATSERIALNO	LABEL	16137	Pstat Serial Number
CTRLMODE	IQUANT	1	Control Mode
IESTAB	IQUANT	0	I/E Stability
CASPEED	IQUANT	1	Control Amp Speed
CONVENTION	IQUANT	1	Current Convention
ICHRANGE	IQUANT	2	Ich Range
ICHRANGEMODE	TOGGLE	F	Ich Auto Range
ICHOFFSETENABLE	TOGGLE	T	Ich Offset Enable
ICHOFFSET	QUANT	0	Ich Offset (V)
ICHFILTER	IQUANT	3	Ich Filter
VCHRANGE	IQUANT	2	Vch Range
VCHRANGEMODE	TOGGLE	F	Vch Auto Range
VCHOFFSETENABLE	TOGGLE	T	Vch Offset Enable
VCHOFFSET	QUANT	0	Vch Offset (V)
VCHFILTER	IQUANT	3	Vch Filter
ACHRANGE	IQUANT	2	Ach Range
ACHOFFSETENABLE	TOGGLE	F	Ach Offset Enable
ACHOFFSET	QUANT	0	Ach Offset (V)
ACHFILTER	IQUANT	3	Ach Filter
IERANGELOWERLIMIT	IQUANT	2	I/E Range Lower Limit
IERANGEMODE	TOGGLE	F	I/E AutoRange
IERANGE	IQUANT	11	I/E Range
POSFEEDENABLE	TOGGLE	F	Positive Feedback IR Comp
POSFEEDRESISTANCE	QUANT	0	Positive Feedback Resistance (ohm)
ACHSELECT	IQUANT	0	Ach Select
CABLEID	IQUANT	13	Cable ID
DCCALDATE	LABEL	7/31/2020	DC Calibration Date
ACCALDATE	LABEL	7/31/2020	AC Calibration Date
THERMOSELECT	IQUANT	1	Thermo Select
FRAMEWORKVERSION	QUANT	6.33	Framework Version
INSTRUMENTVERSION	LABEL	3.50	Instrument Version
COMPLIANCEVOLTAGE	IQUANT	0	Compliance Voltage
ZCURVE	TABLE
	Pt	Time	Freq	Zreal	Zimag	Zsig	Zmod	Zphz	Idc	Vdc	IERange
	#	s	Hz	ohm	ohm	V	ohm	°	A	V	#
	0	7	300046.9	31.05561	-5.582564	1	31.55338	-10.19067	-7.161335E-005	-5.49734E-005	11
	1	11	238359.4	31.92765	-6.750737	1	32.63353	-11.9387	-8.617826E-005	0.0006458	10
	2	14	189328.1	32.84058	-8.438753	1	33.90747	-14.41101	-0.0000964	0.0005577	10
	3	17	150421.9	33.85606	-10.23699	1	35.36988	-16.82363	-2.315343E-005	0.0005915	10
	4	19	119484.4	35.17797	-11.80643	1	37.10635	-18.55279	4.349588E-005	-0.0010698	9
	5	22	94921.88	36.59281	-13.85459	1	39.12778	-20.73742	-9.302958E-006	0.0004778	9
	6	24	75421.88	38.03307	-16.27079	1	41.36729	-23.16154	-1.029983E-005	0.0005152	9
	7	27	59859.37	39.59808	-18.9916	1	43.91684	-25.6228	-9.643823E-006	0.0003505	9
	8	29	47578.12	41.26641	-22.12288	1	46.82241	-28.19571	1.973165E-006	-0.000162	9
	9	32	37828.12	42.96907	-25.86356	1	50.15241	-31.0442	1.680928E-005	-0.0002537	9
	10	34	30046.88	44.71489	-30.36076	1	54.0481	-34.17594	1.192895E-005	-0.0003716	9
	11	37	23859.38	46.6165	-35.86335	1	58.81562	-37.57207	-1.736968E-006	0.0003545	9
	12	39	18984.38	48.61113	-42.57383	1	64.61867	-41.21201	1.704197E-005	-0.0002546	9
	13	41	15046.87	50.7813	-51.06448	1	72.01612	-45.15931	2.405819E-006	-0.0001802	9
	14	44	11953.13	53.25718	-61.4748	1	81.33559	-49.09678	-1.180904E-005	0.0002634	9
	15	46	9515.62	56.26149	-74.08396	1	93.02574	-52.78592	1.637476E-005	-0.0003684	9
	16	48	7546.875	59.65027	-90.11467	1	108.0685	-56.49793	9.327755E-006	1.612294E-005	9
	17	51	5928.309	63.98129	-110.6455	1	127.8125	-59.96115	1.762849E-005	-0.0002532	9
	18	53	4733.456	68.87856	-134.2343	1	150.8745	-62.83665	1.064952E-005	2.709905E-005	9
	19	55	3796.875	74.42842	-162.5476	1	178.7773	-65.39758	1.767685E-005	-0.0002215	9
	20	58	2987.132	82.44458	-199.7432	1	216.089	-67.57147	1.172866E-005	-0.0003763	9
	21	60	2390.625	90.84966	-242.6805	1	259.1284	-69.47616	1.122557E-005	3.889631E-005	9
	22	62	1884.191	102.7727	-298.4829	1	315.6806	-71.00056	1.764814E-005	-0.0002579	9
	23	65	1516.544	113.9843	-361.0604	1	378.6252	-72.47945	-8.151032E-007	0.0003851	9
	24	67	1193.986	131.3655	-442.5504	1	461.6359	-73.46714	-2.238728E-006	0.0013025	8
	25	69	946.5144	151.7705	-541.7529	1	562.6104	-74.34995	-2.151271E-006	0.0013241	8
	26	72	751.7689	175.1343	-663.6195	1	686.3402	-75.21627	3.214083E-006	-0.0001969	8
	27	74	597.4265	205.2748	-812.1406	1	837.6814	-75.81514	1.4549E-007	0.0004459	8
	28	76	477.4305	239.9419	-988.395	1	1017.102	-76.35489	5.455179E-007	0.0006584	8
	29	79	376.6741	285.8543	-1217.093	1	1250.211	-76.7827	5.453537E-007	0.0006545	8
	30	81	298.2954	341.668	-1494.023	1	1532.593	-77.11855	5.385745E-007	0.0006603	8
	31	83	237.7717	408.8147	-1823.167	1	1868.44	-77.36143	5.342255E-007	0.0006597	8
	32	86	189.0121	492.4904	-2230.363	1	2284.09	-77.54823	5.600139E-007	0.0006544	8
	33	88	150.2404	596.0436	-2727.742	1	2792.104	-77.67394	5.472904E-007	0.0006573	8
	34	91	119.1737	726.1389	-3343.547	1	3421.489	-77.74699	5.596191E-007	0.0006551	8
	35	93	95.0169	883.1106	-4077.72	1	4172.252	-77.78018	5.617917E-007	0.00066	8
	36	96	75.60484	1083.525	-4994.815	1	5110.988	-77.76047	4.147529E-008	0.0006275	7
	37	98	54.50582	1459.076	-6660.849	1	6818.783	-77.64437	4.407464E-008	0.0006294	7
	38	101	45.95588	1712.575	-7735.388	1	7922.697	-77.51637	5.045367E-008	0.0006287	7
	39	103	37.20238	2110.748	-9322.673	1	9558.63	-77.24274	4.206882E-008	0.0006375	7
	40	105	30.04808	2620.758	-11238.79	1	11540.31	-76.87384	4.534737E-008	0.0006377	7
	41	108	23.91582	3328.044	-13702.27	1	14100.64	-76.3482	4.614818E-008	0.0006296	7
	42	110	18.60119	4372.825	-17042.99	1	17595.03	-75.60969	4.853109E-008	0.0006368	7
	43	112	15.02404	5578.005	-20451.89	1	21198.92	-74.74432	5.241275E-008	0.0006469	7
	44	115	12.01923	7251.242	-24644.02	1	25688.68	-73.60404	4.206208E-008	0.0006359	7
	45	117	9.450605	9660.76	-30019.19	1	31535.41	-72.16082	5.031714E-008	0.0006337	7
	46	120	7.512019	12753.33	-36099.33	1	38285.89	-70.54247	4.831212E-008	0.0006475	7
	47	122	5.978954	16765.04	-42915.49	1	46073.91	-68.66178	-2.914261E-009	0.000679	6
	48	125	4.734848	22103.75	-50802.52	1	55402.81	-66.48654	-3.211428E-010	0.0007145	6
	49	129	3.75601	28903.69	-59386.11	1	66046.45	-64.04745	-5.545501E-009	0.0006676	6
	50	134	3.004808	36959.8	-68258.99	1	77622.91	-61.56604	-5.199481E-009	0.0007069	6
	51	141	2.372217	47268.1	-78177.66	1	91356.55	-58.84183	-5.208694E-009	0.0007499	6
	52	145	1.878005	59004.23	-88020.88	1	105967.8	-56.16433	-6.493738E-009	0.0006586	6
	53	150	1.512097	71052.6	-97065.6	1	120292.2	-53.79565	-6.406724E-009	0.0006911	6
	54	155	1.201923	85229.93	-106734.6	1	136588.5	-51.39187	-4.810274E-009	0.0006502	6
	55	161	0.956633	99945.7	-116919.8	1	153816.1	-49.47543	-7.575554E-009	4.373779E-005	6
