EXPLAIN
TAG	EISPOT
TITLE	LABEL	Potentiostatic EIS	Test Identifier
DATE	LABEL	2/28/2021	Date
TIME	LABEL	4:09:07	Time
NOTES	NOTES	1	Notes...
	
PSTAT	PSTAT	REF3000-16137	Potentiostat
VDC	POTEN	0.00000E+000	T	DC Voltage (V)
FREQINIT	QUANT	3.00000E+005	Initial Freq. (Hz)
FREQFINAL	QUANT	1.00000E+000	Final Freq. (Hz)
PTSPERDEC	QUANT	1.00000E+001	Points/decade
VAC	QUANT	5.00000E+001	AC Voltage (mV rms)
AREA	QUANT	1.00000E+000	Sample Area (cm^2)
SPEED	SELECTOR	2	Optimize for:
ZGUESS	QUANT	1.00000E+003	Estimated Z (ohms)
EOC	QUANT	0	Open Circuit (V)
SEQUENCER	TOGGLE	TRUE	Run as Sequence
PSTATMODEL	IQUANT	5	Pstat Model
PSTATSECTION	LABEL	REF3000-16137	Pstat Section
PSTATSERIALNO	LABEL	16137	Pstat Serial Number
CTRLMODE	IQUANT	1	Control Mode
IESTAB	IQUANT	0	I/E Stability
CASPEED	IQUANT	1	Control Amp Speed
CONVENTION	IQUANT	1	Current Convention
ICHRANGE	IQUANT	2	Ich Range
ICHRANGEMODE	TOGGLE	F	Ich Auto Range
ICHOFFSETENABLE	TOGGLE	T	Ich Offset Enable
ICHOFFSET	QUANT	0	Ich Offset (V)
ICHFILTER	IQUANT	3	Ich Filter
VCHRANGE	IQUANT	2	Vch Range
VCHRANGEMODE	TOGGLE	F	Vch Auto Range
VCHOFFSETENABLE	TOGGLE	T	Vch Offset Enable
VCHOFFSET	QUANT	0	Vch Offset (V)
VCHFILTER	IQUANT	3	Vch Filter
ACHRANGE	IQUANT	2	Ach Range
ACHOFFSETENABLE	TOGGLE	F	Ach Offset Enable
ACHOFFSET	QUANT	0	Ach Offset (V)
ACHFILTER	IQUANT	3	Ach Filter
IERANGELOWERLIMIT	IQUANT	2	I/E Range Lower Limit
IERANGEMODE	TOGGLE	F	I/E AutoRange
IERANGE	IQUANT	11	I/E Range
POSFEEDENABLE	TOGGLE	F	Positive Feedback IR Comp
POSFEEDRESISTANCE	QUANT	0	Positive Feedback Resistance (ohm)
ACHSELECT	IQUANT	0	Ach Select
CABLEID	IQUANT	13	Cable ID
DCCALDATE	LABEL	7/31/2020	DC Calibration Date
ACCALDATE	LABEL	7/31/2020	AC Calibration Date
THERMOSELECT	IQUANT	1	Thermo Select
FRAMEWORKVERSION	QUANT	6.33	Framework Version
INSTRUMENTVERSION	LABEL	3.50	Instrument Version
COMPLIANCEVOLTAGE	IQUANT	0	Compliance Voltage
ZCURVE	TABLE
	Pt	Time	Freq	Zreal	Zimag	Zsig	Zmod	Zphz	Idc	Vdc	IERange
	#	s	Hz	ohm	ohm	V	ohm	°	A	V	#
	0	6	300046.9	24.42144	-4.779146	1	24.88467	-11.07255	-0.0001121	-0.0003601	11
	1	11	238359.4	25.20091	-5.937865	1	25.891	-13.25827	-4.872457E-005	0.0005877	10
	2	14	189328.1	26.01352	-7.459209	1	27.06184	-15.9999	-0.0000957	0.0005283	10
	3	18	150421.9	26.93484	-9.087739	1	28.42662	-18.64425	-2.196486E-005	0.000579	10
	4	20	119484.4	28.03577	-10.82834	1	30.05424	-21.11821	3.383717E-006	0.0007592	10
	5	23	94921.88	29.2008	-12.64934	1	31.82282	-23.42152	2.201617E-005	0.0006367	10
	6	25	75421.88	30.47483	-14.73642	1	33.85081	-25.80657	-2.083618E-005	0.0007458	10
	7	28	59859.37	31.82833	-17.12835	1	36.14447	-28.28683	-2.359987E-005	0.0007083	10
	8	30	47578.12	33.27085	-19.78572	1	38.70948	-30.73937	-1.227556E-005	0.0004546	9
	9	33	37828.12	34.71339	-23.15146	1	41.72541	-33.70058	1.328646E-005	-0.0001589	9
	10	35	30046.88	36.22464	-27.23982	1	45.32364	-36.94204	-1.031322E-005	0.0003821	9
	11	38	23859.38	37.86719	-32.37271	1	49.81884	-40.52717	-1.141378E-005	0.0003418	9
	12	40	18984.38	39.72584	-38.45175	1	55.28724	-44.06631	-1.038611E-005	0.000305	9
	13	43	15046.87	41.82293	-46.18063	1	62.30416	-47.83481	-4.394176E-006	0.0004597	9
	14	45	11953.13	44.24347	-55.71401	1	71.14447	-51.5463	-6.090363E-006	0.0004147	9
	15	47	9515.62	47.24657	-66.96702	1	81.95621	-54.79627	-3.485419E-006	4.593512E-005	9
	16	50	7546.875	50.75039	-81.13316	1	95.6984	-57.97321	-1.145555E-005	0.0004394	9
	17	52	5928.309	55.15306	-99.4269	1	113.6995	-60.98246	-7.948102E-006	0.000175	9
	18	54	4733.456	60.17104	-120.278	1	134.4893	-63.42274	1.499089E-005	-0.0003232	9
	19	57	3796.875	65.84261	-144.9601	1	159.2126	-65.57188	5.84351E-006	-0.0002291	9
	20	59	2987.132	74.0825	-177.4639	1	192.3062	-67.34186	-1.072264E-005	0.0003484	9
	21	61	2390.625	82.35884	-214.8698	1	230.1131	-69.02835	6.072475E-006	-0.0002368	9
	22	64	1884.191	93.94936	-262.2585	1	278.5786	-70.29086	-5.003109E-006	0.00043	9
	23	66	1516.544	108.255	-315.6651	1	333.7118	-71.07098	6.082398E-006	-0.0002335	9
	24	68	1193.986	125.9486	-386.5786	1	406.5784	-71.95422	-1.060483E-005	0.0002724	9
	25	71	946.5144	146.9429	-470.01	1	492.4445	-72.63879	5.868615E-008	0.0005149	8
	26	73	751.7689	172.0505	-573.1741	1	598.4395	-73.29175	3.217625E-007	0.0008847	8
	27	75	597.4265	206.1522	-698.187	1	727.9861	-73.54982	2.153743E-006	3.682361E-005	8
	28	78	477.4305	248.3186	-846.0151	1	881.705	-73.64221	2.166115E-007	0.0006578	8
	29	80	376.6741	306.2813	-1036.285	1	1080.599	-73.53458	2.04027E-007	0.0006549	8
	30	82	298.2954	381.9354	-1263.989	1	1320.432	-73.18693	2.173592E-007	0.0006604	8
	31	85	237.7717	479.65	-1530.471	1	1603.872	-72.599	2.155741E-007	0.0006631	8
	32	87	189.0121	612.0849	-1852.255	1	1950.769	-71.71366	2.132454E-007	0.0006632	8
	33	90	150.2404	790.2646	-2232.778	1	2368.505	-70.5092	2.185863E-007	0.0006606	8
	34	92	119.1737	1032.661	-2680.749	1	2872.77	-68.93263	2.18046E-007	0.0006599	8
	35	94	95.0169	1348.129	-3180.013	1	3453.974	-67.02606	2.233858E-007	0.0006559	8
	36	97	75.60484	1766.044	-3738.048	1	4134.237	-64.71157	2.134332E-007	0.0006586	8
	37	99	54.50582	2582.077	-4609.036	1	5283.023	-60.74155	-3.107364E-007	0.000635	7
	38	102	45.95588	3109.306	-5068.401	1	5946.131	-58.47218	-3.143858E-007	0.0006449	7
	39	104	37.20238	3863.232	-5617.382	1	6817.591	-55.4826	-3.098917E-007	0.00064	7
	40	107	30.04808	4726.45	-6133.341	1	7743.204	-52.38158	-3.192543E-007	0.0006435	7
	41	109	23.91582	5710.663	-6623.119	1	8745.135	-49.23104	-3.065198E-007	0.0006439	7
	42	112	18.60119	6843.967	-7110.695	1	9869.24	-46.09501	-2.990913E-007	0.0006375	7
	43	114	15.02404	7822.757	-7513.728	1	10846.73	-43.84565	-2.897198E-007	0.0006441	7
	44	116	12.01923	8844.46	-7930.6	1	11879.35	-41.88176	-2.922694E-007	0.0006398	7
	45	119	9.450605	9961	-8457.481	1	13067.15	-40.33324	-3.257622E-007	0.0006502	7
	46	121	7.512019	11060.54	-9044.45	1	14287.67	-39.27363	-3.210907E-007	0.000643	7
	47	124	5.978954	12268.6	-9748.32	1	15669.98	-38.46978	-3.13697E-007	0.0006409	7
	48	127	4.734848	13665.25	-10529.37	1	17251.29	-37.61504	-3.064147E-007	0.0006289	7
	49	130	3.75601	15229.38	-11391.64	1	19018.51	-36.79664	-3.105925E-007	0.0006349	7
	50	134	3.004808	16924.49	-12215.4	1	20872.34	-35.8202	-3.053313E-007	0.0006365	7
	51	137	2.372217	18960.23	-13021.79	1	23001.25	-34.48108	-3.00721E-007	0.0007038	7
	52	142	1.878005	21196.95	-13735.94	1	25258.4	-32.94383	-3.070348E-007	0.000627	7
	53	146	1.512097	23448.97	-14223.25	1	27425.45	-31.2394	-3.057128E-007	0.000602	7
	54	152	1.201923	25921.06	-14619.48	1	29759.55	-29.42301	-3.040241E-007	0.0006132	7
	55	158	0.956633	28443.87	-14806.62	1	32066.96	-27.49948	-3.188626E-007	-1.359421E-005	7
