EXPLAIN
TAG	EISPOT
TITLE	LABEL	Potentiostatic EIS	Test Identifier
DATE	LABEL	2/28/2021	Date
TIME	LABEL	1:05:23	Time
NOTES	NOTES	1	Notes...
	
PSTAT	PSTAT	REF3000-16137	Potentiostat
VDC	POTEN	0.00000E+000	T	DC Voltage (V)
FREQINIT	QUANT	3.00000E+005	Initial Freq. (Hz)
FREQFINAL	QUANT	1.00000E+000	Final Freq. (Hz)
PTSPERDEC	QUANT	1.00000E+001	Points/decade
VAC	QUANT	5.00000E+001	AC Voltage (mV rms)
AREA	QUANT	1.00000E+000	Sample Area (cm^2)
SPEED	SELECTOR	2	Optimize for:
ZGUESS	QUANT	1.00000E+003	Estimated Z (ohms)
EOC	QUANT	0	Open Circuit (V)
SEQUENCER	TOGGLE	TRUE	Run as Sequence
PSTATMODEL	IQUANT	5	Pstat Model
PSTATSECTION	LABEL	REF3000-16137	Pstat Section
PSTATSERIALNO	LABEL	16137	Pstat Serial Number
CTRLMODE	IQUANT	1	Control Mode
IESTAB	IQUANT	0	I/E Stability
CASPEED	IQUANT	1	Control Amp Speed
CONVENTION	IQUANT	1	Current Convention
ICHRANGE	IQUANT	2	Ich Range
ICHRANGEMODE	TOGGLE	F	Ich Auto Range
ICHOFFSETENABLE	TOGGLE	T	Ich Offset Enable
ICHOFFSET	QUANT	0	Ich Offset (V)
ICHFILTER	IQUANT	3	Ich Filter
VCHRANGE	IQUANT	2	Vch Range
VCHRANGEMODE	TOGGLE	F	Vch Auto Range
VCHOFFSETENABLE	TOGGLE	T	Vch Offset Enable
VCHOFFSET	QUANT	0	Vch Offset (V)
VCHFILTER	IQUANT	3	Vch Filter
ACHRANGE	IQUANT	2	Ach Range
ACHOFFSETENABLE	TOGGLE	F	Ach Offset Enable
ACHOFFSET	QUANT	0	Ach Offset (V)
ACHFILTER	IQUANT	3	Ach Filter
IERANGELOWERLIMIT	IQUANT	2	I/E Range Lower Limit
IERANGEMODE	TOGGLE	F	I/E AutoRange
IERANGE	IQUANT	11	I/E Range
POSFEEDENABLE	TOGGLE	F	Positive Feedback IR Comp
POSFEEDRESISTANCE	QUANT	0	Positive Feedback Resistance (ohm)
ACHSELECT	IQUANT	0	Ach Select
CABLEID	IQUANT	13	Cable ID
DCCALDATE	LABEL	7/31/2020	DC Calibration Date
ACCALDATE	LABEL	7/31/2020	AC Calibration Date
THERMOSELECT	IQUANT	1	Thermo Select
FRAMEWORKVERSION	QUANT	6.33	Framework Version
INSTRUMENTVERSION	LABEL	3.50	Instrument Version
COMPLIANCEVOLTAGE	IQUANT	0	Compliance Voltage
ZCURVE	TABLE
	Pt	Time	Freq	Zreal	Zimag	Zsig	Zmod	Zphz	Idc	Vdc	IERange
	#	s	Hz	ohm	ohm	V	ohm	°	A	V	#
	0	7	300046.9	37.42885	-4.969881	1	37.75736	-7.563609	4.769206E-005	-0.0019537	9
	1	10	238359.4	38.34575	-6.730309	1	38.9319	-9.95495	5.080637E-005	-0.0021556	9
	2	13	189328.1	39.23005	-8.719481	1	40.18739	-12.53117	2.571739E-006	-0.0008183	9
	3	16	150421.9	40.40918	-10.77987	1	41.82233	-14.93682	-1.257268E-005	-0.0004723	9
	4	19	119484.4	41.63783	-12.92044	1	43.5964	-17.2394	5.267664E-005	-0.0017304	9
	5	21	94921.88	43.21433	-15.2213	1	45.81666	-19.40369	-1.293297E-005	0.0004107	9
	6	24	75421.88	44.80941	-17.96221	1	48.27551	-21.84378	1.517712E-005	-0.0004294	9
	7	26	59859.37	46.62806	-21.00438	1	51.14059	-24.24997	-1.472094E-005	0.0003899	9
	8	29	47578.12	48.54957	-24.45825	1	54.36237	-26.738	-1.430033E-005	0.0006145	9
	9	31	37828.12	50.55289	-28.41039	1	57.98918	-29.3357	-9.72702E-006	0.0006219	9
	10	34	30046.88	52.67022	-33.16896	1	62.24413	-32.20058	-1.360514E-005	0.0006022	9
	11	36	23859.38	54.88697	-39.01876	1	67.34274	-35.40875	1.819493E-005	-0.0003599	9
	12	39	18984.38	57.10438	-46.15329	1	73.42368	-38.94607	-1.110308E-005	0.0002915	9
	13	41	15046.87	59.56008	-55.09451	1	81.1345	-42.76957	-1.30498E-005	0.0003625	9
	14	43	11953.13	62.31898	-66.04115	1	90.80247	-46.66099	5.36511E-006	0.0002758	9
	15	46	9515.62	65.30169	-79.53206	1	102.9061	-50.61148	1.86288E-005	-0.0003248	9
	16	48	7546.875	68.83764	-96.5521	1	118.5788	-54.51271	-3.624002E-006	-3.897006E-005	9
	17	50	5928.309	73.28194	-118.4711	1	139.3041	-58.26056	-6.57595E-006	0.0005533	9
	18	52	4733.456	78.26118	-143.6834	1	163.6146	-61.42385	-1.438789E-005	0.0005454	9
	19	55	3796.875	84.73164	-173.5289	1	193.1106	-63.97441	-8.594927E-006	0.0001526	9
	20	57	2987.132	91.5854	-214.8264	1	233.5343	-66.91034	1.636164E-005	-0.0001485	9
	21	59	2390.625	101.0948	-260.3301	1	279.2704	-68.77717	1.226658E-005	-0.0004181	9
	22	62	1884.191	112.2359	-321.5531	1	340.5779	-70.75882	1.142506E-005	3.741944E-005	9
	23	64	1516.544	125.0818	-389.972	1	409.5407	-72.21658	-1.305106E-005	0.0003826	9
	24	66	1193.986	140.9636	-479.4052	1	499.7	-73.61464	-2.751236E-006	0.0012978	8
	25	69	946.5144	160.613	-589.306	1	610.8012	-74.75455	-2.843482E-006	0.0012896	8
	26	71	751.7689	186.2198	-722.0488	1	745.6757	-75.53828	-2.770654E-006	0.0013023	8
	27	73	597.4265	215.5353	-884.1654	1	910.0571	-76.30006	3.821883E-006	-6.27454E-005	8
	28	76	477.4305	252.8847	-1079.068	1	1108.304	-76.81049	5.051659E-007	0.0006583	8
	29	78	376.6741	300.7023	-1330.933	1	1364.48	-77.26872	4.970068E-007	0.0006617	8
	30	80	298.2954	359.0165	-1636.036	1	1674.964	-77.62303	5.127953E-007	0.0006593	8
	31	83	237.7717	428.7413	-1999.063	1	2044.523	-77.89509	5.11147E-007	0.0006524	8
	32	85	189.0121	515.7316	-2448.577	1	2502.301	-78.10593	5.185232E-007	0.0006538	8
	33	88	150.2404	622.6571	-2998.92	1	3062.879	-78.2705	5.132283E-007	0.00066	8
	34	90	119.1737	755.4555	-3679.014	1	3755.776	-78.39608	5.238662E-007	0.000667	8
	35	92	95.0169	918.2587	-4502.08	1	4594.771	-78.47189	4.460576E-008	0.0006395	7
	36	95	75.60484	1116.539	-5508.464	1	5620.483	-78.54166	4.503933E-008	0.000627	7
	37	97	54.50582	1486.599	-7354.265	1	7503.012	-78.57216	4.72955E-008	0.0006332	7
	38	100	45.95588	1731.696	-8560.274	1	8733.675	-78.56371	4.703326E-008	0.0006396	7
	39	102	37.20238	2095.883	-10312.88	1	10523.7	-78.51225	4.387755E-008	0.0006364	7
	40	105	30.04808	2566.658	-12477.08	1	12738.34	-78.37585	4.35843E-008	0.0006372	7
	41	107	23.91582	3195.825	-15253.82	1	15585	-78.16712	4.375747E-008	0.0006325	7
	42	110	18.60119	4138.803	-19055.05	1	19499.35	-77.74556	4.259726E-008	0.0006425	7
	43	112	15.02404	5189.283	-23028.25	1	23605.7	-77.30085	4.880323E-008	0.0006445	7
	44	114	12.01923	6648.473	-27993.43	1	28772.11	-76.63972	4.273478E-008	0.000635	7
	45	117	9.450605	8733.216	-34522.82	1	35610.31	-75.80375	4.546237E-008	0.000648	7
	46	119	7.512019	11434.75	-41931.14	1	43462.33	-74.74617	4.542179E-008	0.0006397	7
	47	122	5.978954	15042.6	-50792.5	1	52973.18	-73.50293	-2.744865E-009	0.0006754	6
	48	125	4.734848	19957.58	-61488.99	1	64646.74	-72.01804	-2.704456E-009	0.0006591	6
	49	129	3.75601	26484.36	-73892.48	1	78495.35	-70.28143	1.573925E-010	0.0006937	6
	50	134	3.004808	34685.84	-87502.84	1	94126.8	-68.37679	-1.960158E-010	0.0006798	6
	51	141	2.372217	46175.77	-103589.4	1	113415	-65.97472	-4.316865E-011	0.0006275	6
	52	145	1.878005	60516.68	-121217.6	1	135484.2	-63.46979	1.48578E-009	0.0006712	6
	53	149	1.512097	76661.61	-138215.3	1	158052.1	-60.9849	5.640254E-010	0.000697	6
	54	155	1.201923	97592.2	-156776	1	184669.9	-58.09796	3.314663E-010	0.0006953	6
	55	161	0.956633	121264.5	-175199.2	1	213072.3	-55.31088	-3.504495E-009	3.600735E-005	6
