EXPLAIN
TAG	EISPOT
TITLE	LABEL	Potentiostatic EIS	Test Identifier
DATE	LABEL	2/28/2021	Date
TIME	LABEL	2:27:57	Time
NOTES	NOTES	1	Notes...
	
PSTAT	PSTAT	REF3000-16137	Potentiostat
VDC	POTEN	0.00000E+000	T	DC Voltage (V)
FREQINIT	QUANT	3.00000E+005	Initial Freq. (Hz)
FREQFINAL	QUANT	1.00000E+000	Final Freq. (Hz)
PTSPERDEC	QUANT	1.00000E+001	Points/decade
VAC	QUANT	5.00000E+001	AC Voltage (mV rms)
AREA	QUANT	1.00000E+000	Sample Area (cm^2)
SPEED	SELECTOR	2	Optimize for:
ZGUESS	QUANT	1.00000E+003	Estimated Z (ohms)
EOC	QUANT	0	Open Circuit (V)
SEQUENCER	TOGGLE	TRUE	Run as Sequence
PSTATMODEL	IQUANT	5	Pstat Model
PSTATSECTION	LABEL	REF3000-16137	Pstat Section
PSTATSERIALNO	LABEL	16137	Pstat Serial Number
CTRLMODE	IQUANT	1	Control Mode
IESTAB	IQUANT	0	I/E Stability
CASPEED	IQUANT	1	Control Amp Speed
CONVENTION	IQUANT	1	Current Convention
ICHRANGE	IQUANT	2	Ich Range
ICHRANGEMODE	TOGGLE	F	Ich Auto Range
ICHOFFSETENABLE	TOGGLE	T	Ich Offset Enable
ICHOFFSET	QUANT	0	Ich Offset (V)
ICHFILTER	IQUANT	3	Ich Filter
VCHRANGE	IQUANT	2	Vch Range
VCHRANGEMODE	TOGGLE	F	Vch Auto Range
VCHOFFSETENABLE	TOGGLE	T	Vch Offset Enable
VCHOFFSET	QUANT	0	Vch Offset (V)
VCHFILTER	IQUANT	3	Vch Filter
ACHRANGE	IQUANT	2	Ach Range
ACHOFFSETENABLE	TOGGLE	F	Ach Offset Enable
ACHOFFSET	QUANT	0	Ach Offset (V)
ACHFILTER	IQUANT	3	Ach Filter
IERANGELOWERLIMIT	IQUANT	2	I/E Range Lower Limit
IERANGEMODE	TOGGLE	F	I/E AutoRange
IERANGE	IQUANT	11	I/E Range
POSFEEDENABLE	TOGGLE	F	Positive Feedback IR Comp
POSFEEDRESISTANCE	QUANT	0	Positive Feedback Resistance (ohm)
ACHSELECT	IQUANT	0	Ach Select
CABLEID	IQUANT	13	Cable ID
DCCALDATE	LABEL	7/31/2020	DC Calibration Date
ACCALDATE	LABEL	7/31/2020	AC Calibration Date
THERMOSELECT	IQUANT	1	Thermo Select
FRAMEWORKVERSION	QUANT	6.33	Framework Version
INSTRUMENTVERSION	LABEL	3.50	Instrument Version
COMPLIANCEVOLTAGE	IQUANT	0	Compliance Voltage
ZCURVE	TABLE
	Pt	Time	Freq	Zreal	Zimag	Zsig	Zmod	Zphz	Idc	Vdc	IERange
	#	s	Hz	ohm	ohm	V	ohm	°	A	V	#
	0	14	300046.9	830.6767	-4615.412	1	4689.568	-79.7972	-3.657994E-006	-0.0021123	9
	1	30	238359.4	1252.221	-5645.284	1	5782.498	-77.49331	2.068608E-005	-0.0021543	9
	2	57	189328.1	1884.926	-7025.154	1	7273.633	-74.98066	1.920994E-005	-0.0020638	9
	3	66	150421.9	2699.216	-8151.157	1	8586.45	-71.67796	-9.122801E-005	0.002225	9
	4	75	119484.4	4489.961	-9872.42	1	10845.48	-65.54404	2.23257E-005	-0.0138578	8
	5	82	94921.88	6088.83	-11508.79	1	13020.22	-62.11852	-2.029064E-005	0.0028664	8
	6	91	75421.88	8382.449	-13218.26	1	15652.09	-57.61889	-2.57557E-005	0.0074465	8
	7	100	59859.37	11001.59	-14717.83	1	18375.24	-53.22185	1.627096E-005	-0.0091778	8
	8	108	47578.12	16759.1	-14997.27	1	22489.67	-41.82451	-1.912377E-006	0.0219527	7
	9	115	37828.12	20054	-15241.71	1	25188.73	-37.23604	2.5974E-006	0.0088442	7
	10	121	30046.88	21751.02	-16262.58	1	27158.39	-36.78434	-2.602167E-005	0.0074981	8
	11	130	23859.38	25266.51	-16618.57	1	30241.91	-33.33416	2.60118E-005	-0.0089013	8
	12	136	18984.38	28950.87	-14481.03	1	32370.56	-26.57392	-1.187376E-005	0.0102331	8
	13	144	15046.87	32365.36	-11604.49	1	34382.85	-19.72513	2.677112E-006	0.0090436	7
	14	149	11953.13	34012.39	-10420.21	1	35572.8	-17.03324	-3.834661E-006	0.0252237	7
	15	154	9515.62	35862.97	-9371.482	1	37067.2	-14.64469	-7.263366E-006	0.0184589	7
	16	160	7546.875	37264.77	-7631.263	1	38038.12	-11.5733	2.965276E-007	0.0164415	7
	17	165	5928.309	38550.34	-7586.453	1	39289.73	-11.13317	6.480568E-006	-0.0095365	7
	18	170	4733.456	37872.73	-7825.226	1	38672.71	-11.67412	8.18113E-006	-0.007613	8
	19	177	3796.875	40489.2	-5249.759	1	40828.11	-7.387657	1.610615E-005	-0.0091784	8
	20	183	2987.132	42508.7	-5188.156	1	42824.13	-6.958494	-3.774736E-006	0.0252411	7
	21	189	2390.625	42856.98	-4035.656	1	43046.57	-5.379432	-6.660548E-006	0.0115654	7
	22	194	1884.191	43405.14	-3613.845	1	43555.32	-4.759382	1.424313E-006	-0.0200071	7
	23	199	1516.544	44637.34	-5040.561	1	44921.04	-6.442691	2.676445E-006	0.0087468	7
	24	205	1193.986	47472.04	-4423.91	1	47677.73	-5.324005	-3.2215E-006	-0.0054496	7
	25	210	946.5144	48746.41	-3836.69	1	48897.16	-4.500309	-6.62493E-006	0.0115746	7
	26	214	751.7689	50383.82	-5305.227	1	50662.36	-6.010881	-6.514601E-006	0.0255901	7
	27	218	597.4265	44294.82	-5282.904	1	44608.74	-6.801361	-1.983076E-005	0.0113199	8
	28	223	477.4305	50873.06	-7863.039	1	51477.14	-8.786222	-2.094979E-007	0.0006336	8
	29	226	376.6741	52298.13	-8441.024	1	52974.95	-9.168585	-7.459466E-009	0.0006756	6
	30	228	298.2954	53467.73	-9998.72	1	54394.6	-10.59224	-7.939527E-009	0.0007068	6
	31	231	237.7717	54820.2	-11829.69	1	56082.05	-12.17717	-6.994013E-009	0.0006312	6
	32	233	189.0121	56344.38	-13949.61	1	58045.5	-13.90554	-7.090628E-009	0.0006949	6
	33	236	150.2404	58166.41	-16381.27	1	60429.11	-15.72868	-7.344247E-009	0.0006787	6
	34	238	119.1737	60143.26	-19221.33	1	63140.09	-17.72349	-6.803855E-009	0.0006313	6
	35	240	95.0169	62395.02	-22551.09	1	66345.24	-19.8711	-6.761924E-009	0.0006289	6
	36	243	75.60484	64962.79	-26276.03	1	70075.63	-22.02226	-6.499375E-009	0.0006171	6
	37	245	54.50582	68734.8	-32780.92	1	76151.57	-25.49735	-7.267885E-009	0.0007035	6
	38	248	45.95588	71444.72	-36750.39	1	80342.63	-27.2208	-7.278443E-009	0.0007099	6
	39	250	37.20238	74572.58	-42408.95	1	85788.05	-29.62661	-6.316107E-009	0.0006414	6
	40	253	30.04808	77919.83	-49162.78	1	92132.94	-32.24949	-7.373494E-009	0.0007082	6
	41	256	23.91582	81530.01	-57825.36	1	99954.6	-35.34627	-7.355751E-009	0.000688	6
	42	258	18.60119	85505.13	-69336.92	1	110085.1	-39.03893	-6.67986E-009	0.0007152	6
	43	260	15.02404	89190.97	-81937.6	1	121114.8	-42.57294	-7.137708E-009	0.0006575	6
	44	263	12.01923	93222.8	-97997.9	1	135255.6	-46.43048	-6.993122E-009	0.0007007	6
	45	265	9.450605	97794.2	-119674.2	1	154549.8	-50.74531	-6.41294E-009	0.0006087	6
	46	268	7.512019	102763.1	-145658.1	1	178259.7	-54.79667	-6.843828E-009	0.0007026	6
	47	271	5.978954	108577.9	-177848.1	1	208372.5	-58.59554	-7.081841E-009	0.0007116	6
	48	275	4.734848	115505	-218844.2	1	247455.5	-62.1751	-6.978599E-009	0.0006866	6
	49	279	3.75601	123698.7	-269731.5	1	296743.1	-65.36384	-6.168213E-009	0.0006572	6
	50	284	3.004808	133807.7	-330438.5	1	356502.6	-67.95501	-7.095183E-009	0.0006831	6
	51	291	2.372217	145629.8	-410543.1	1	435607.2	-70.46915	-7.089335E-009	0.0005963	6
	52	295	1.878005	160237.7	-509149.3	1	533768.8	-72.53035	-7.889995E-010	0.0006536	5
	53	300	1.512097	176094.5	-621740	1	646196.5	-74.18636	-8.01928E-010	0.0005391	5
	54	305	1.201923	196080.4	-769543.7	1	794131.6	-75.70516	-8.25279E-010	0.0006671	5
	55	311	0.956633	219716.2	-951132	1	976180	-76.99256	-8.091254E-010	6.829686E-006	5
