EXPLAIN
TAG	EISPOT
TITLE	LABEL	Potentiostatic EIS	Test Identifier
DATE	LABEL	2/28/2021	Date
TIME	LABEL	1:48:12	Time
NOTES	NOTES	1	Notes...
	
PSTAT	PSTAT	REF3000-16137	Potentiostat
VDC	POTEN	0.00000E+000	T	DC Voltage (V)
FREQINIT	QUANT	3.00000E+005	Initial Freq. (Hz)
FREQFINAL	QUANT	1.00000E+000	Final Freq. (Hz)
PTSPERDEC	QUANT	1.00000E+001	Points/decade
VAC	QUANT	5.00000E+001	AC Voltage (mV rms)
AREA	QUANT	1.00000E+000	Sample Area (cm^2)
SPEED	SELECTOR	2	Optimize for:
ZGUESS	QUANT	1.00000E+003	Estimated Z (ohms)
EOC	QUANT	0	Open Circuit (V)
SEQUENCER	TOGGLE	TRUE	Run as Sequence
PSTATMODEL	IQUANT	5	Pstat Model
PSTATSECTION	LABEL	REF3000-16137	Pstat Section
PSTATSERIALNO	LABEL	16137	Pstat Serial Number
CTRLMODE	IQUANT	1	Control Mode
IESTAB	IQUANT	0	I/E Stability
CASPEED	IQUANT	1	Control Amp Speed
CONVENTION	IQUANT	1	Current Convention
ICHRANGE	IQUANT	2	Ich Range
ICHRANGEMODE	TOGGLE	F	Ich Auto Range
ICHOFFSETENABLE	TOGGLE	T	Ich Offset Enable
ICHOFFSET	QUANT	0	Ich Offset (V)
ICHFILTER	IQUANT	3	Ich Filter
VCHRANGE	IQUANT	2	Vch Range
VCHRANGEMODE	TOGGLE	F	Vch Auto Range
VCHOFFSETENABLE	TOGGLE	T	Vch Offset Enable
VCHOFFSET	QUANT	0	Vch Offset (V)
VCHFILTER	IQUANT	3	Vch Filter
ACHRANGE	IQUANT	2	Ach Range
ACHOFFSETENABLE	TOGGLE	F	Ach Offset Enable
ACHOFFSET	QUANT	0	Ach Offset (V)
ACHFILTER	IQUANT	3	Ach Filter
IERANGELOWERLIMIT	IQUANT	2	I/E Range Lower Limit
IERANGEMODE	TOGGLE	F	I/E AutoRange
IERANGE	IQUANT	11	I/E Range
POSFEEDENABLE	TOGGLE	F	Positive Feedback IR Comp
POSFEEDRESISTANCE	QUANT	0	Positive Feedback Resistance (ohm)
ACHSELECT	IQUANT	0	Ach Select
CABLEID	IQUANT	13	Cable ID
DCCALDATE	LABEL	7/31/2020	DC Calibration Date
ACCALDATE	LABEL	7/31/2020	AC Calibration Date
THERMOSELECT	IQUANT	1	Thermo Select
FRAMEWORKVERSION	QUANT	6.33	Framework Version
INSTRUMENTVERSION	LABEL	3.50	Instrument Version
COMPLIANCEVOLTAGE	IQUANT	0	Compliance Voltage
ZCURVE	TABLE
	Pt	Time	Freq	Zreal	Zimag	Zsig	Zmod	Zphz	Idc	Vdc	IERange
	#	s	Hz	ohm	ohm	V	ohm	°	A	V	#
	0	13	300046.9	215.0005	-15.78978	1	215.5795	-4.200299	-1.096034E-005	0.0012541	9
	1	17	238359.4	217.1636	-18.22434	1	217.927	-4.797014	2.317306E-005	-0.0006116	9
	2	20	189328.1	219.2392	-21.03426	1	220.2459	-5.480301	1.055288E-005	-0.0017254	9
	3	22	150421.9	221.7175	-23.54563	1	222.9642	-6.061894	2.09241E-005	-0.0016107	9
	4	25	119484.4	223.935	-27.72227	1	225.6444	-7.057087	-5.460026E-005	0.0007446	9
	5	28	94921.88	226.7494	-32.234	1	229.0291	-8.090782	2.622377E-005	-0.0004933	9
	6	30	75421.88	230.2848	-38.07978	1	233.412	-9.389434	1.600452E-005	-0.0007794	9
	7	33	59859.37	234.4442	-44.66436	1	238.6608	-10.78626	1.063378E-005	0.0002586	9
	8	35	47578.12	239.7352	-52.55753	1	245.4287	-12.36542	-1.61317E-005	0.0002694	9
	9	39	37828.12	245.3268	-61.15036	1	252.8332	-13.99637	-1.521401E-006	-0.0003576	9
	10	43	30046.88	252.5706	-72.04578	1	262.6452	-15.9208	9.662302E-006	-0.0007126	9
	11	47	23859.38	260.0831	-83.56437	1	273.178	-17.81215	1.100715E-005	0.0002598	9
	12	49	18984.38	268.6992	-97.1305	1	285.7159	-19.87412	-1.504181E-005	0.0001224	9
	13	52	15046.87	278.4078	-113.2994	1	300.5789	-22.1441	2.121709E-005	-0.0001136	9
	14	54	11953.13	289.5368	-130.9698	1	317.7809	-24.33926	-8.041236E-006	0.0009047	9
	15	57	9515.62	301.7766	-152.1398	1	337.958	-26.75482	-2.031657E-005	0.0010043	9
	16	59	7546.875	314.5996	-177.9419	1	361.4363	-29.49311	2.026567E-005	-2.207988E-005	9
	17	61	5928.309	329.0909	-207.7435	1	389.1763	-32.26278	-1.792931E-005	0.000312	9
	18	64	4733.456	340.9427	-241.1923	1	417.631	-35.27665	-1.00497E-005	0.0038078	8
	19	66	3796.875	354.0742	-283.1692	1	453.3799	-38.65091	-2.478625E-006	0.0039085	8
	20	68	2987.132	369.4469	-340.7291	1	502.5807	-42.68436	8.719092E-006	-0.0002225	8
	21	71	2390.625	384.1039	-406.4883	1	559.2572	-46.62181	5.084359E-006	0.0014692	8
	22	73	1884.191	406.5421	-493.9476	1	639.7349	-50.54401	5.173336E-006	-0.0028993	8
	23	75	1516.544	420.5599	-594.2451	1	728.0095	-54.71215	-5.561036E-006	0.0003335	8
	24	78	1193.986	444.451	-728.4887	1	853.3654	-58.61263	-1.017775E-005	0.0031851	8
	25	80	946.5144	472.9421	-895.3448	1	1012.579	-62.15594	-9.947687E-006	0.0031479	8
	26	83	751.7689	500.4576	-1095.247	1	1204.169	-65.44263	-1.023547E-005	0.0031969	8
	27	86	597.4265	541.1196	-1347.405	1	1452.003	-68.11954	5.27115E-006	0.0013571	8
	28	88	477.4305	584.4307	-1648.243	1	1748.789	-70.47661	1.108743E-007	0.0006615	8
	29	90	376.6741	640.9806	-2041.631	1	2139.886	-72.57005	1.362015E-007	0.0006468	8
	30	93	298.2954	708.2867	-2522.347	1	2619.906	-74.31502	1.090596E-007	0.0006525	8
	31	95	237.7717	787.9529	-3100.921	1	3199.466	-75.74272	1.323551E-007	0.000645	8
	32	98	189.0121	885.9651	-3823.496	1	3924.8	-76.9539	1.197424E-007	0.0006673	8
	33	100	150.2404	1009.964	-4726.317	1	4833.021	-77.93791	1.647837E-009	0.0006331	7
	34	102	119.1737	1160.367	-5845.372	1	5959.432	-78.77216	2.643411E-009	0.000627	7
	35	105	95.0169	1341.195	-7196.996	1	7320.898	-79.44374	2.031912E-009	0.0006279	7
	36	107	75.60484	1571.091	-8880.77	1	9018.669	-79.96764	2.062792E-009	0.0006193	7
	37	110	54.50582	2001.839	-11993.64	1	12159.55	-80.5242	1.942434E-009	0.0006157	7
	38	112	45.95588	2294.254	-14034.71	1	14221	-80.71598	5.341199E-009	0.0006347	7
	39	115	37.20238	2731.146	-17044.22	1	17261.65	-80.89638	1.797903E-009	0.0006203	7
	40	117	30.04808	3281.875	-20727	1	20985.21	-81.00259	2.763756E-009	0.0006303	7
	41	120	23.91582	4024.948	-25515.5	1	25831.01	-81.03574	4.387244E-009	0.0006092	7
	42	122	18.60119	5071.324	-32132.3	1	32530.03	-81.0312	1.753418E-009	0.0006454	7
	43	124	15.02404	6174.819	-38989.08	1	39475.01	-81.00064	5.148348E-009	0.0006238	7
	44	127	12.01923	7650.087	-47756.64	1	48365.48	-80.89916	4.766341E-010	0.0006656	6
	45	129	9.450605	9621.3	-59367.89	1	60142.46	-80.79455	-5.317571E-010	0.0006767	6
	46	131	7.512019	12006.98	-73089.27	1	74068.95	-80.67088	3.125875E-010	0.0006454	6
	47	135	5.978954	14956.02	-89874.01	1	91109.93	-80.55193	1.167307E-010	0.0006618	6
	48	139	4.734848	18902.4	-110996.9	1	112594.9	-80.33543	6.959033E-010	0.0006823	6
	49	142	3.75601	23843.24	-136952.1	1	139012.1	-80.12384	-2.422368E-010	0.000656	6
	50	148	3.004808	30183.23	-167537	1	170234.2	-79.78722	3.751211E-010	0.0006763	6
	51	154	2.372217	39084.89	-207650.3	1	211296.6	-79.34024	6.625572E-012	0.0007469	6
	52	158	1.878005	50828.3	-256081.5	1	261077.1	-78.77357	-2.132993E-010	0.0006456	6
	53	163	1.512097	65622.96	-310681.9	1	317536.8	-78.07316	-6.205027E-011	0.0007653	6
	54	168	1.201923	86095.65	-381202.2	1	390803.7	-77.27311	9.019227E-011	0.0006502	6
	55	175	0.956633	113589.9	-465448.5	1	479108.5	-76.28539	-7.229851E-010	1.618124E-005	5
