EXPLAIN
TAG	EISPOT
TITLE	LABEL	Potentiostatic EIS	Test Identifier
DATE	LABEL	2/28/2021	Date
TIME	LABEL	1:02:32	Time
NOTES	NOTES	1	Notes...
	
PSTAT	PSTAT	REF3000-16137	Potentiostat
VDC	POTEN	0.00000E+000	T	DC Voltage (V)
FREQINIT	QUANT	3.00000E+005	Initial Freq. (Hz)
FREQFINAL	QUANT	1.00000E+000	Final Freq. (Hz)
PTSPERDEC	QUANT	1.00000E+001	Points/decade
VAC	QUANT	5.00000E+001	AC Voltage (mV rms)
AREA	QUANT	1.00000E+000	Sample Area (cm^2)
SPEED	SELECTOR	2	Optimize for:
ZGUESS	QUANT	1.00000E+003	Estimated Z (ohms)
EOC	QUANT	0	Open Circuit (V)
SEQUENCER	TOGGLE	TRUE	Run as Sequence
PSTATMODEL	IQUANT	5	Pstat Model
PSTATSECTION	LABEL	REF3000-16137	Pstat Section
PSTATSERIALNO	LABEL	16137	Pstat Serial Number
CTRLMODE	IQUANT	1	Control Mode
IESTAB	IQUANT	0	I/E Stability
CASPEED	IQUANT	1	Control Amp Speed
CONVENTION	IQUANT	1	Current Convention
ICHRANGE	IQUANT	2	Ich Range
ICHRANGEMODE	TOGGLE	F	Ich Auto Range
ICHOFFSETENABLE	TOGGLE	T	Ich Offset Enable
ICHOFFSET	QUANT	0	Ich Offset (V)
ICHFILTER	IQUANT	3	Ich Filter
VCHRANGE	IQUANT	2	Vch Range
VCHRANGEMODE	TOGGLE	F	Vch Auto Range
VCHOFFSETENABLE	TOGGLE	T	Vch Offset Enable
VCHOFFSET	QUANT	0	Vch Offset (V)
VCHFILTER	IQUANT	3	Vch Filter
ACHRANGE	IQUANT	2	Ach Range
ACHOFFSETENABLE	TOGGLE	F	Ach Offset Enable
ACHOFFSET	QUANT	0	Ach Offset (V)
ACHFILTER	IQUANT	3	Ach Filter
IERANGELOWERLIMIT	IQUANT	2	I/E Range Lower Limit
IERANGEMODE	TOGGLE	F	I/E AutoRange
IERANGE	IQUANT	11	I/E Range
POSFEEDENABLE	TOGGLE	F	Positive Feedback IR Comp
POSFEEDRESISTANCE	QUANT	0	Positive Feedback Resistance (ohm)
ACHSELECT	IQUANT	0	Ach Select
CABLEID	IQUANT	13	Cable ID
DCCALDATE	LABEL	7/31/2020	DC Calibration Date
ACCALDATE	LABEL	7/31/2020	AC Calibration Date
THERMOSELECT	IQUANT	1	Thermo Select
FRAMEWORKVERSION	QUANT	6.33	Framework Version
INSTRUMENTVERSION	LABEL	3.50	Instrument Version
COMPLIANCEVOLTAGE	IQUANT	0	Compliance Voltage
ZCURVE	TABLE
	Pt	Time	Freq	Zreal	Zimag	Zsig	Zmod	Zphz	Idc	Vdc	IERange
	#	s	Hz	ohm	ohm	V	ohm	°	A	V	#
	0	7	300046.9	35.08575	-5.612975	1	35.53189	-9.089089	2.27007E-005	-8.791431E-005	10
	1	11	238359.4	35.90135	-6.638168	1	36.50989	-10.47569	1.392486E-005	6.409683E-005	9
	2	15	189328.1	36.89747	-8.455399	1	37.85389	-12.90701	5.079811E-005	-0.0019453	9
	3	17	150421.9	37.96479	-10.51069	1	39.39289	-15.47494	2.495265E-005	-0.0002516	9
	4	20	119484.4	39.23774	-12.57056	1	41.20218	-17.76385	-5.23642E-005	0.0015428	9
	5	22	94921.88	40.78802	-14.79271	1	43.38764	-19.93433	1.872566E-005	-0.0003486	9
	6	25	75421.88	42.30499	-17.37772	1	45.73508	-22.3315	1.886175E-005	-0.0004557	9
	7	27	59859.37	44.02636	-20.31454	1	48.48712	-24.76943	-3.332612E-006	-5.568091E-005	9
	8	30	47578.12	45.87263	-23.66698	1	51.61806	-27.29048	-6.470354E-006	0.0004764	9
	9	32	37828.12	47.74041	-27.52962	1	55.10923	-29.97001	1.666989E-005	-0.0001393	9
	10	35	30046.88	49.75367	-32.1653	1	59.24554	-32.88231	-1.31253E-005	0.0005558	9
	11	37	23859.38	51.80085	-37.85395	1	64.158	-36.15781	-1.131072E-005	0.0003251	9
	12	40	18984.38	53.95264	-44.9068	1	70.19621	-39.77188	-1.425361E-005	0.0005059	9
	13	42	15046.87	56.29136	-53.72845	1	77.81686	-43.66554	1.835952E-005	-0.0004091	9
	14	44	11953.13	58.92048	-64.5022	1	87.36221	-47.58941	-6.877565E-006	0.0004931	9
	15	47	9515.62	61.9877	-77.57794	1	99.3016	-51.37383	-1.322213E-005	0.0005518	9
	16	49	7546.875	65.55516	-94.18462	1	114.7529	-55.16099	-3.431206E-006	-2.106393E-005	9
	17	51	5928.309	69.88177	-115.7755	1	135.231	-58.88493	1.252664E-005	-0.0004245	9
	18	54	4733.456	74.83173	-140.4509	1	159.1422	-61.95147	-8.505559E-006	0.000144	9
	19	56	3796.875	80.85533	-170.0815	1	188.3223	-64.57397	1.740921E-005	-0.0004218	9
	20	58	2987.132	88.25161	-209.6117	1	227.4322	-67.16773	-1.404417E-005	0.0004585	9
	21	60	2390.625	96.011	-255.5979	1	273.0355	-69.41217	-1.303144E-005	0.0003709	9
	22	63	1884.191	108.7224	-313.9108	1	332.2056	-70.89658	1.804481E-005	-0.0004214	9
	23	65	1516.544	121.4219	-379.6942	1	398.6364	-72.26632	-1.198698E-005	0.0002699	9
	24	67	1193.986	137.6942	-467.3365	1	487.1992	-73.58313	1.096932E-006	0.000117	8
	25	70	946.5144	156.9335	-573.8521	1	594.9238	-74.70508	-2.261255E-006	0.0015218	8
	26	72	751.7689	181.4506	-703.2892	1	726.3196	-75.53302	2.88246E-006	0.0002937	8
	27	75	597.4265	212.5447	-861.5117	1	887.3431	-76.14124	-1.678067E-006	0.0015373	8
	28	77	477.4305	248.6229	-1049.294	1	1078.347	-76.67	5.191317E-007	0.0006636	8
	29	79	376.6741	295.7222	-1293.432	1	1326.807	-77.1216	5.193921E-007	0.0006608	8
	30	82	298.2954	352.9881	-1588.987	1	1627.722	-77.47532	5.224906E-007	0.0006667	8
	31	84	237.7717	421.53	-1940.949	1	1986.195	-77.74693	5.318763E-007	0.0006564	8
	32	86	189.0121	506.9839	-2376.338	1	2429.818	-77.9567	5.350257E-007	0.0006625	8
	33	89	150.2404	612.3261	-2909.269	1	2973.01	-78.1142	5.238427E-007	0.0006578	8
	34	91	119.1737	743.2697	-3567.834	1	3644.433	-78.23216	5.277663E-007	0.0006596	8
	35	93	95.0169	903.7571	-4365.227	1	4457.8	-78.30299	4.351251E-008	0.000636	7
	36	96	75.60484	1099.613	-5339.916	1	5451.958	-78.36411	4.095243E-008	0.0006327	7
	37	99	54.50582	1469.241	-7129.213	1	7279.035	-78.35509	4.535601E-008	0.0006287	7
	38	101	45.95588	1710.834	-8290.771	1	8465.45	-78.34044	4.828641E-008	0.0006476	7
	39	103	37.20238	2078.357	-9991.55	1	10205.42	-78.24939	4.65075E-008	0.000634	7
	40	106	30.04808	2549.641	-12072.81	1	12339.11	-78.07501	4.417478E-008	0.0006318	7
	41	108	23.91582	3217.511	-14795.68	1	15141.49	-77.73132	4.372154E-008	0.0006337	7
	42	111	18.60119	4158.912	-18442.67	1	18905.78	-77.29208	4.873423E-008	0.0006171	7
	43	113	15.02404	5239.666	-22238.04	1	22846.98	-76.74194	4.727713E-008	0.0006413	7
	44	115	12.01923	6730.885	-26981.02	1	27807.91	-75.99248	4.227562E-008	0.0006342	7
	45	118	9.450605	8904.829	-33195.19	1	34368.83	-74.98357	4.667189E-008	0.000644	7
	46	120	7.512019	11674.78	-40262.63	1	41921.11	-73.82965	5.053429E-008	0.0006574	7
	47	123	5.978954	15399.07	-48561.94	1	50945	-72.4061	4.247632E-010	0.0006777	6
	48	126	4.734848	20479.77	-58441.71	1	61926.21	-70.68797	-3.917423E-009	0.0006362	6
	49	129	3.75601	27152.98	-69855.98	1	74947.6	-68.75893	-1.398344E-009	0.0006876	6
	50	135	3.004808	35471.36	-82149.92	1	89480.88	-66.64589	-4.329421E-010	0.0006561	6
	51	141	2.372217	46865.67	-96475.8	1	107256.6	-64.09061	-1.902908E-009	0.0006116	6
	52	146	1.878005	60708.64	-111521.9	1	126975.1	-61.43766	-6.459541E-010	0.0006878	6
	53	150	1.512097	76084.12	-125808.5	1	147025.8	-58.83608	-3.045302E-010	0.0006156	6
	54	156	1.201923	95253.8	-141432.9	1	170518.5	-56.04008	-1.360669E-009	0.0006988	6
	55	162	0.956633	116389.2	-156793.6	1	195270.8	-53.41319	-4.318024E-009	3.512523E-005	6
