EXPLAIN
TAG	EISPOT
TITLE	LABEL	Potentiostatic EIS	Test Identifier
DATE	LABEL	2/28/2021	Date
TIME	LABEL	3:21:37	Time
NOTES	NOTES	1	Notes...
	
PSTAT	PSTAT	REF3000-16137	Potentiostat
VDC	POTEN	0.00000E+000	T	DC Voltage (V)
FREQINIT	QUANT	3.00000E+005	Initial Freq. (Hz)
FREQFINAL	QUANT	1.00000E+000	Final Freq. (Hz)
PTSPERDEC	QUANT	1.00000E+001	Points/decade
VAC	QUANT	5.00000E+001	AC Voltage (mV rms)
AREA	QUANT	1.00000E+000	Sample Area (cm^2)
SPEED	SELECTOR	2	Optimize for:
ZGUESS	QUANT	1.00000E+003	Estimated Z (ohms)
EOC	QUANT	0	Open Circuit (V)
SEQUENCER	TOGGLE	TRUE	Run as Sequence
PSTATMODEL	IQUANT	5	Pstat Model
PSTATSECTION	LABEL	REF3000-16137	Pstat Section
PSTATSERIALNO	LABEL	16137	Pstat Serial Number
CTRLMODE	IQUANT	1	Control Mode
IESTAB	IQUANT	0	I/E Stability
CASPEED	IQUANT	1	Control Amp Speed
CONVENTION	IQUANT	1	Current Convention
ICHRANGE	IQUANT	2	Ich Range
ICHRANGEMODE	TOGGLE	F	Ich Auto Range
ICHOFFSETENABLE	TOGGLE	T	Ich Offset Enable
ICHOFFSET	QUANT	0	Ich Offset (V)
ICHFILTER	IQUANT	3	Ich Filter
VCHRANGE	IQUANT	2	Vch Range
VCHRANGEMODE	TOGGLE	F	Vch Auto Range
VCHOFFSETENABLE	TOGGLE	T	Vch Offset Enable
VCHOFFSET	QUANT	0	Vch Offset (V)
VCHFILTER	IQUANT	3	Vch Filter
ACHRANGE	IQUANT	2	Ach Range
ACHOFFSETENABLE	TOGGLE	F	Ach Offset Enable
ACHOFFSET	QUANT	0	Ach Offset (V)
ACHFILTER	IQUANT	3	Ach Filter
IERANGELOWERLIMIT	IQUANT	2	I/E Range Lower Limit
IERANGEMODE	TOGGLE	F	I/E AutoRange
IERANGE	IQUANT	11	I/E Range
POSFEEDENABLE	TOGGLE	F	Positive Feedback IR Comp
POSFEEDRESISTANCE	QUANT	0	Positive Feedback Resistance (ohm)
ACHSELECT	IQUANT	0	Ach Select
CABLEID	IQUANT	13	Cable ID
DCCALDATE	LABEL	7/31/2020	DC Calibration Date
ACCALDATE	LABEL	7/31/2020	AC Calibration Date
THERMOSELECT	IQUANT	1	Thermo Select
FRAMEWORKVERSION	QUANT	6.33	Framework Version
INSTRUMENTVERSION	LABEL	3.50	Instrument Version
COMPLIANCEVOLTAGE	IQUANT	0	Compliance Voltage
ZCURVE	TABLE
	Pt	Time	Freq	Zreal	Zimag	Zsig	Zmod	Zphz	Idc	Vdc	IERange
	#	s	Hz	ohm	ohm	V	ohm	°	A	V	#
	0	14	300046.9	-52.76009	-4863.97	1	4864.256	-90.62147	1.994327E-005	-0.0010464	9
	1	31	238359.4	39.58292	-6053.967	1	6054.097	-89.62539	2.553079E-005	-0.001572	9
	2	45	189328.1	145.18	-7615.799	1	7617.183	-88.90791	1.903784E-005	-0.0008733	9
	3	52	150421.9	1279.352	-8654.161	1	8748.214	-81.59082	8.416932E-005	-0.0033488	9
	4	60	119484.4	687.3423	-11219.76	1	11240.79	-86.49434	-9.286072E-005	0.0043917	9
	5	73	94921.88	986.26	-14861.3	1	14893.99	-86.20317	-2.590177E-005	0.0074388	8
	6	82	75421.88	940.0853	-18211.01	1	18235.26	-87.04491	8.425595E-006	-0.0077296	8
	7	90	59859.37	836.3318	-23045.31	1	23060.48	-87.92161	-7.93021E-007	-0.0051187	8
	8	99	47578.12	3847.949	-30262.91	1	30506.57	-82.75368	7.763544E-006	-0.024463	7
	9	105	37828.12	4198.313	-37522.69	1	37756.82	-83.61588	-7.316064E-006	0.0237352	7
	10	113	30046.88	1449.994	-45676.92	1	45699.93	-88.18178	-2.376358E-005	0.0051521	8
	11	121	23859.38	-1366.093	-59202.88	1	59218.64	-91.32185	2.732107E-005	-0.0073392	8
	12	129	18984.38	2504.211	-72629.72	1	72672.88	-88.02527	6.631622E-006	-0.0101507	7
	13	135	15046.87	3855.354	-90671.62	1	90753.55	-87.56525	2.946791E-006	0.008381	7
	14	141	11953.13	6357.969	-113284.6	1	113462.9	-86.78771	6.967931E-006	-0.0270769	7
	15	146	9515.62	4388.562	-143879.6	1	143946.5	-88.25293	1.406008E-006	-0.0202305	7
	16	151	7546.875	8589.563	-187494	1	187690.6	-87.37698	4.896759E-006	-0.000557	7
	17	157	5928.309	-39545.29	-236514.6	1	239797.8	-99.4921	-7.295315E-006	0.0236913	7
	18	163	4733.456	-12790.31	-281513.1	1	281803.5	-92.60139	-3.748642E-006	0.0255286	7
	19	170	3796.875	16810.48	-354752.8	1	355150.8	-87.28699	6.643331E-006	-0.010146	7
	20	176	2987.132	-12948.63	-488931.4	1	489102.8	-91.51704	4.941094E-006	-0.0005769	7
	21	183	2390.625	-208557.4	-599701.5	1	634931.6	-109.1761	-5.255104E-006	0.0029803	7
	22	189	1884.191	6803.737	-800654.8	1	800683.7	-89.51313	3.563689E-006	-0.0247242	7
	23	196	1516.544	1069240	-436694.7	1	1154979	-22.21589	-2.472591E-005	0.011028	8
	24	204	1193.986	167227.7	-1050270	1	1063500	-80.9531	-6.57429E-006	0.0260387	7
	25	213	946.5144	1204554	-899141.3	1	1503132	-36.73956	-1.839837E-006	0.02226	7
	26	219	751.7689	116227.1	-1740819	1	1744694	-86.18027	-5.704777E-007	0.026954	6
	27	224	597.4265	181277.9	-2032917	1	2040983	-84.90434	7.356521E-007	-0.0161443	6
	28	228	477.4305	90049.67	-2818914	1	2820352	-88.17032	-6.347499E-009	0.0006366	6
	29	233	376.6741	111767.7	-3574759	1	3576505	-88.20918	-7.144817E-009	0.0007009	6
	30	236	298.2954	544193.1	-4617164	1	4649124	-83.27795	-7.804929E-010	0.000695	5
	31	240	237.7717	602523.9	-5735940	1	5767498	-84.00343	-7.288231E-010	0.0006112	5
	32	244	189.0121	777862.5	-7108091	1	7150527	-83.75478	-7.341524E-010	0.0006138	5
	33	249	150.2404	960349	-8654502	1	8707622	-83.66807	-7.598206E-010	0.0006158	5
	34	254	119.1737	2322748	-1.030208E+007	1	1.056068E+007	-77.29431	-7.761928E-010	0.0006621	5
	35	256	95.0169	2817597	-1.382113E+007	1	1.410541E+007	-78.47749	-8.596769E-010	0.0006944	5
	36	259	75.60484	4415719	-1.489651E+007	1	1.55372E+007	-73.48878	-7.340694E-010	0.0006951	5
	37	262	54.50582	7886360	-2.017439E+007	1	2.166104E+007	-68.64901	-7.783783E-010	0.0006767	5
	38	265	45.95588	1.397528E+007	-2.560941E+007	1	2.917448E+007	-61.37832	-2.326516E-011	0.0006179	4
	39	268	37.20238	1.685064E+007	-2.369804E+007	1	2.907819E+007	-54.58503	-7.13449E-010	0.0006125	5
	40	272	30.04808	2.184392E+007	-1.666722E+007	1	2.74764E+007	-37.34414	-7.965366E-010	0.0006883	5
	41	276	23.91582	2.035953E+007	-1.103263E+007	1	2.315663E+007	-28.45284	-6.530498E-010	0.0006043	5
	42	280	18.60119	2.112167E+007	-3100393	1	2.1348E+007	-8.350658	-2.279399E-010	0.0006282	4
	43	282	15.02404	1.964167E+007	-4017567	1	2.004835E+007	-11.56	-9.164369E-011	0.0006972	4
	44	284	12.01923	1.725452E+007	-2561707	1	1.744364E+007	-8.444781	-5.9492E-011	0.0006697	4
	45	287	9.450605	1.479982E+007	-1538192	1	1.487954E+007	-5.933625	-7.637325E-011	0.0006918	4
	46	290	7.512019	1.258483E+007	-1261107	1	1.264786E+007	-5.722418	-9.435123E-011	0.0007123	4
	47	293	5.978954	1.044436E+007	-914173.9	1	1.048429E+007	-5.002238	-1.574022E-011	0.0006446	4
	48	297	4.734848	8123174	-924007.6	1	8175558	-6.489478	-6.135512E-011	0.0006193	4
	49	302	3.75601	6257674	-978607	1	6333732	-8.888214	1.676628E-011	0.0006945	4
	50	308	3.004808	3947309	-991734	1	4069986	-14.10326	-7.151302E-010	0.0006367	5
	51	317	2.372217	3219522	-1021472	1	3377681	-17.60291	-3.527491E-010	0.0006157	4
	52	322	1.878005	2695046	-1111361	1	2915201	-22.40986	-9.290834E-010	0.0006546	5
	53	326	1.512097	2254304	-1164937	1	2537511	-27.32817	-7.99063E-010	0.0005373	5
	54	332	1.201923	1706460	-1183204	1	2076530	-34.73618	-6.914223E-010	0.0005873	5
	55	340	0.956633	1381891	-1289860	1	1890334	-43.02718	-9.63684E-010	-6.942942E-007	5
