EXPLAIN
TAG	EISPOT
TITLE	LABEL	Potentiostatic EIS	Test Identifier
DATE	LABEL	2/28/2021	Date
TIME	LABEL	2:01:02	Time
NOTES	NOTES	1	Notes...
	
PSTAT	PSTAT	REF3000-16137	Potentiostat
VDC	POTEN	0.00000E+000	T	DC Voltage (V)
FREQINIT	QUANT	3.00000E+005	Initial Freq. (Hz)
FREQFINAL	QUANT	1.00000E+000	Final Freq. (Hz)
PTSPERDEC	QUANT	1.00000E+001	Points/decade
VAC	QUANT	5.00000E+001	AC Voltage (mV rms)
AREA	QUANT	1.00000E+000	Sample Area (cm^2)
SPEED	SELECTOR	2	Optimize for:
ZGUESS	QUANT	1.00000E+003	Estimated Z (ohms)
EOC	QUANT	0	Open Circuit (V)
SEQUENCER	TOGGLE	TRUE	Run as Sequence
PSTATMODEL	IQUANT	5	Pstat Model
PSTATSECTION	LABEL	REF3000-16137	Pstat Section
PSTATSERIALNO	LABEL	16137	Pstat Serial Number
CTRLMODE	IQUANT	1	Control Mode
IESTAB	IQUANT	0	I/E Stability
CASPEED	IQUANT	1	Control Amp Speed
CONVENTION	IQUANT	1	Current Convention
ICHRANGE	IQUANT	2	Ich Range
ICHRANGEMODE	TOGGLE	F	Ich Auto Range
ICHOFFSETENABLE	TOGGLE	T	Ich Offset Enable
ICHOFFSET	QUANT	0	Ich Offset (V)
ICHFILTER	IQUANT	3	Ich Filter
VCHRANGE	IQUANT	2	Vch Range
VCHRANGEMODE	TOGGLE	F	Vch Auto Range
VCHOFFSETENABLE	TOGGLE	T	Vch Offset Enable
VCHOFFSET	QUANT	0	Vch Offset (V)
VCHFILTER	IQUANT	3	Vch Filter
ACHRANGE	IQUANT	2	Ach Range
ACHOFFSETENABLE	TOGGLE	F	Ach Offset Enable
ACHOFFSET	QUANT	0	Ach Offset (V)
ACHFILTER	IQUANT	3	Ach Filter
IERANGELOWERLIMIT	IQUANT	2	I/E Range Lower Limit
IERANGEMODE	TOGGLE	F	I/E AutoRange
IERANGE	IQUANT	11	I/E Range
POSFEEDENABLE	TOGGLE	F	Positive Feedback IR Comp
POSFEEDRESISTANCE	QUANT	0	Positive Feedback Resistance (ohm)
ACHSELECT	IQUANT	0	Ach Select
CABLEID	IQUANT	13	Cable ID
DCCALDATE	LABEL	7/31/2020	DC Calibration Date
ACCALDATE	LABEL	7/31/2020	AC Calibration Date
THERMOSELECT	IQUANT	1	Thermo Select
FRAMEWORKVERSION	QUANT	6.33	Framework Version
INSTRUMENTVERSION	LABEL	3.50	Instrument Version
COMPLIANCEVOLTAGE	IQUANT	0	Compliance Voltage
ZCURVE	TABLE
	Pt	Time	Freq	Zreal	Zimag	Zsig	Zmod	Zphz	Idc	Vdc	IERange
	#	s	Hz	ohm	ohm	V	ohm	°	A	V	#
	0	18	300046.9	588.6749	-76.55466	1	593.6318	-7.409489	-6.145756E-005	0.0004309	9
	1	25	238359.4	602.523	-70.85173	1	606.6745	-6.706711	-0.0001035	0.0035046	9
	2	40	189328.1	615.8677	-64.39651	1	619.2253	-5.969284	-2.90332E-005	-0.0008503	9
	3	48	150421.9	629.0401	-64.88408	1	632.3776	-5.889105	7.565838E-005	-0.0014891	9
	4	58	119484.4	637.9214	-43.68204	1	639.4152	-3.917247	6.650338E-006	0.0082094	8
	5	62	94921.88	644.7085	-46.14627	1	646.3579	-4.094075	-8.00652E-006	-0.0004533	8
	6	64	75421.88	648.7427	-52.78194	1	650.8863	-4.651361	1.380964E-005	-0.0060675	8
	7	67	59859.37	653.6396	-62.55616	1	656.6262	-5.466806	1.655879E-005	-0.0023015	8
	8	69	47578.12	660.9633	-72.80782	1	664.9612	-6.286022	9.541118E-006	-0.0055622	8
	9	72	37828.12	670.7826	-86.43267	1	676.3282	-7.342304	3.268727E-006	-0.0043323	8
	10	74	30046.88	679.6243	-100.8122	1	687.0606	-8.437453	-6.053493E-006	0.0065288	8
	11	77	23859.38	691.6583	-118.8335	1	701.7924	-9.74878	-8.784607E-006	-0.0001511	8
	12	80	18984.38	705.3771	-140.6851	1	719.2699	-11.27944	1.283866E-005	-3.902691E-005	8
	13	83	15046.87	718.0643	-163.2634	1	736.3907	-12.80934	1.674848E-005	-0.005779	8
	14	85	11953.13	740.1058	-194.7671	1	765.3044	-14.74374	9.584853E-006	-0.0055343	8
	15	87	9515.62	760.4667	-225.7353	1	793.2629	-16.53288	-1.119327E-005	0.007456	8
	16	90	7546.875	782.4789	-263.0175	1	825.5008	-18.57923	-1.665553E-005	0.0066319	8
	17	92	5928.309	813.314	-311.6942	1	870.9954	-20.96882	1.692258E-005	-0.0023882	8
	18	95	4733.456	845.5511	-358.3949	1	918.3701	-22.97012	-8.033858E-006	-0.0004653	8
	19	98	3796.875	881.1217	-417.268	1	974.93	-25.34057	-1.727955E-005	0.0056551	8
	20	100	2987.132	920.2148	-488.0705	1	1041.637	-27.94092	1.702278E-005	-0.0058668	8
	21	104	2390.625	960.27	-564.5677	1	1113.937	-30.45237	3.971842E-006	-0.0045036	8
	22	106	1884.191	1007.172	-666.8462	1	1207.923	-33.50845	-1.487638E-005	0.0029047	8
	23	110	1516.544	1044.537	-777.0364	1	1301.861	-36.64574	-1.694982E-005	0.0067821	8
	24	113	1193.986	1088.95	-930.258	1	1432.199	-40.50628	3.968046E-006	-0.0045029	8
	25	117	946.5144	1140.754	-1106.375	1	1589.147	-44.1235	-1.474531E-005	0.0028837	8
	26	119	751.7689	1184.018	-1344.313	1	1791.389	-48.62766	1.713698E-005	-0.0059594	8
	27	122	597.4265	1245.62	-1634.7	1	2055.192	-52.69307	-1.520976E-005	0.0074799	8
	28	124	477.4305	1298.909	-1974.837	1	2363.714	-56.66589	-6.636913E-008	0.0006658	8
	29	127	376.6741	1372.711	-2430.135	1	2791.038	-60.53919	-1.890498E-008	0.0006352	8
	30	129	298.2954	1458.192	-2988.584	1	3325.35	-63.9913	-5.188059E-008	0.0006552	8
	31	131	237.7717	1557.832	-3661.11	1	3978.764	-66.94986	-3.275775E-008	0.0006588	8
	32	134	189.0121	1683.935	-4510.721	1	4814.794	-69.52847	-2.512895E-008	0.0006531	7
	33	136	150.2404	1828.773	-5553.626	1	5846.979	-71.77363	-2.338524E-008	0.0006134	7
	34	139	119.1737	2005.265	-6856.62	1	7143.831	-73.69808	-1.994239E-008	0.0006328	7
	35	141	95.0169	2213.68	-8433.516	1	8719.207	-75.29244	-1.899283E-008	0.0006219	7
	36	144	75.60484	2468.116	-10397.72	1	10686.63	-76.64678	-2.14184E-008	0.0006087	7
	37	146	54.50582	2928.49	-14047.73	1	14349.73	-78.22437	-2.43769E-008	0.0006143	7
	38	149	45.95588	3241.407	-16436.94	1	16753.5	-78.84426	-2.582012E-008	0.0006362	7
	39	151	37.20238	3694.576	-19972.87	1	20311.7	-79.51991	-2.033672E-008	0.0006144	7
	40	153	30.04808	4250.275	-24326.69	1	24695.2	-80.08952	-2.217338E-008	0.000602	7
	41	156	23.91582	4989.375	-30069.16	1	30480.29	-80.57875	-2.612473E-008	0.0006129	7
	42	158	18.60119	5989.281	-37867.23	1	38337.95	-81.01225	-2.522257E-008	0.0006532	7
	43	160	15.02404	7147.05	-46142.31	1	46692.54	-81.19534	-2.005339E-009	0.0006442	6
	44	163	12.01923	8601.951	-56707.69	1	57356.39	-81.3746	-3.022742E-009	0.0006564	6
	45	165	9.450605	10615.77	-70776.53	1	71568.23	-81.4698	-2.940039E-009	0.0006925	6
	46	168	7.512019	12955.84	-87449.64	1	88404.15	-81.57281	-2.440175E-009	0.0006547	6
	47	171	5.978954	15949.76	-107796.1	1	108969.7	-81.58345	-2.756228E-009	0.0006473	6
	48	175	4.734848	19780.91	-133517.5	1	134974.9	-81.57281	-2.300317E-009	0.0006856	6
	49	179	3.75601	24687.56	-165058.5	1	166894.5	-81.49342	-2.434705E-009	0.0006407	6
	50	184	3.004808	30616.64	-202358.5	1	204661.5	-81.39646	-2.292541E-009	0.0006811	6
	51	191	2.372217	38447.79	-251356	1	254279.5	-81.30336	-2.898633E-009	0.0007435	6
	52	195	1.878005	48283.75	-311022	1	314747.5	-81.17571	-2.91929E-009	0.0006406	6
	53	200	1.512097	60152.36	-378727.9	1	383475	-80.97524	-2.762734E-009	0.0007599	6
	54	205	1.201923	75301.16	-467583.9	1	473608.4	-80.85146	-3.264344E-010	0.0006208	5
	55	211	0.956633	94682.41	-576276.9	1	584003.3	-80.66965	-5.206727E-010	9.47881E-006	5
