EXPLAIN
TAG	EISPOT
TITLE	LABEL	Potentiostatic EIS	Test Identifier
DATE	LABEL	2/28/2021	Date
TIME	LABEL	1:54:27	Time
NOTES	NOTES	1	Notes...
	
PSTAT	PSTAT	REF3000-16137	Potentiostat
VDC	POTEN	0.00000E+000	T	DC Voltage (V)
FREQINIT	QUANT	3.00000E+005	Initial Freq. (Hz)
FREQFINAL	QUANT	1.00000E+000	Final Freq. (Hz)
PTSPERDEC	QUANT	1.00000E+001	Points/decade
VAC	QUANT	5.00000E+001	AC Voltage (mV rms)
AREA	QUANT	1.00000E+000	Sample Area (cm^2)
SPEED	SELECTOR	2	Optimize for:
ZGUESS	QUANT	1.00000E+003	Estimated Z (ohms)
EOC	QUANT	0	Open Circuit (V)
SEQUENCER	TOGGLE	TRUE	Run as Sequence
PSTATMODEL	IQUANT	5	Pstat Model
PSTATSECTION	LABEL	REF3000-16137	Pstat Section
PSTATSERIALNO	LABEL	16137	Pstat Serial Number
CTRLMODE	IQUANT	1	Control Mode
IESTAB	IQUANT	0	I/E Stability
CASPEED	IQUANT	1	Control Amp Speed
CONVENTION	IQUANT	1	Current Convention
ICHRANGE	IQUANT	2	Ich Range
ICHRANGEMODE	TOGGLE	F	Ich Auto Range
ICHOFFSETENABLE	TOGGLE	T	Ich Offset Enable
ICHOFFSET	QUANT	0	Ich Offset (V)
ICHFILTER	IQUANT	3	Ich Filter
VCHRANGE	IQUANT	2	Vch Range
VCHRANGEMODE	TOGGLE	F	Vch Auto Range
VCHOFFSETENABLE	TOGGLE	T	Vch Offset Enable
VCHOFFSET	QUANT	0	Vch Offset (V)
VCHFILTER	IQUANT	3	Vch Filter
ACHRANGE	IQUANT	2	Ach Range
ACHOFFSETENABLE	TOGGLE	F	Ach Offset Enable
ACHOFFSET	QUANT	0	Ach Offset (V)
ACHFILTER	IQUANT	3	Ach Filter
IERANGELOWERLIMIT	IQUANT	2	I/E Range Lower Limit
IERANGEMODE	TOGGLE	F	I/E AutoRange
IERANGE	IQUANT	11	I/E Range
POSFEEDENABLE	TOGGLE	F	Positive Feedback IR Comp
POSFEEDRESISTANCE	QUANT	0	Positive Feedback Resistance (ohm)
ACHSELECT	IQUANT	0	Ach Select
CABLEID	IQUANT	13	Cable ID
DCCALDATE	LABEL	7/31/2020	DC Calibration Date
ACCALDATE	LABEL	7/31/2020	AC Calibration Date
THERMOSELECT	IQUANT	1	Thermo Select
FRAMEWORKVERSION	QUANT	6.33	Framework Version
INSTRUMENTVERSION	LABEL	3.50	Instrument Version
COMPLIANCEVOLTAGE	IQUANT	0	Compliance Voltage
ZCURVE	TABLE
	Pt	Time	Freq	Zreal	Zimag	Zsig	Zmod	Zphz	Idc	Vdc	IERange
	#	s	Hz	ohm	ohm	V	ohm	°	A	V	#
	0	9	300046.9	334.8223	-29.72571	1	336.1393	-5.073449	-0.0000991	0.003395	9
	1	13	238359.4	337.6898	-29.47993	1	338.9742	-4.989207	-8.401566E-005	0.0037489	9
	2	20	189328.1	342.0897	-35.67047	1	343.9444	-5.952849	4.867227E-005	0.0008005	10
	3	27	150421.9	347.5413	-33.83771	1	349.1847	-5.56097	4.443586E-006	0.0013608	9
	4	32	119484.4	352.5273	-36.69564	1	354.432	-5.94269	2.183945E-005	-0.0015957	9
	5	39	94921.88	356.7942	-40.91768	1	359.1328	-6.542183	-1.843627E-005	0.0002709	9
	6	42	75421.88	360.9005	-46.54592	1	363.8896	-7.348962	-2.103821E-005	0.0004633	9
	7	44	59859.37	365.8919	-53.95309	1	369.8484	-8.38818	2.662964E-005	-0.0004813	9
	8	47	47578.12	371.4424	-61.93001	1	376.5698	-9.465764	-2.382739E-005	0.0005129	9
	9	50	37828.12	378.0856	-71.05885	1	384.7052	-10.64422	-2.707783E-005	0.000791	9
	10	52	30046.88	386.4402	-85.0448	1	395.6875	-12.41137	8.287233E-007	0.0006979	9
	11	55	23859.38	394.4084	-96.5794	1	406.0611	-13.75935	1.429513E-005	-0.0029967	8
	12	57	18984.38	404.8131	-113.4409	1	420.4075	-15.65448	1.332321E-005	-0.0018676	8
	13	59	15046.87	415.8928	-131.6579	1	436.2346	-17.56606	6.339901E-006	0.0018446	8
	14	62	11953.13	431.1081	-157.6026	1	459.0128	-20.08118	-1.460617E-005	0.0055272	8
	15	64	9515.62	447.4473	-180.6182	1	482.5267	-21.98214	1.14356E-005	-0.0042631	8
	16	67	7546.875	464.5094	-211.6326	1	510.4482	-24.49422	1.434048E-005	-0.0022057	8
	17	69	5928.309	486.9653	-245.5967	1	545.3925	-26.76369	6.283857E-006	0.0017103	8
	18	71	4733.456	505.1564	-285.4172	1	580.212	-29.46678	1.095579E-005	-0.0003763	8
	19	74	3796.875	528.7964	-330.2759	1	623.4644	-31.9881	-1.285729E-005	0.0036565	8
	20	76	2987.132	549.3559	-390.5935	1	674.0587	-35.41293	1.441464E-005	-0.0039159	8
	21	78	2390.625	571.9174	-460.6077	1	734.3358	-38.84708	1.302178E-005	-0.0044842	8
	22	81	1884.191	592.1782	-550.8948	1	808.8016	-42.93159	1.426613E-005	-0.003885	8
	23	83	1516.544	618.8823	-658.951	1	904.0087	-46.79602	1.314972E-005	-0.0044902	8
	24	86	1193.986	646.6397	-799.2252	1	1028.058	-51.02426	6.227399E-006	0.0018016	8
	25	88	946.5144	677.0583	-975.932	1	1187.793	-55.2488	1.081654E-005	-0.0046055	8
	26	91	751.7689	714.0416	-1185.571	1	1383.992	-58.94044	-6.880325E-006	2.501157E-005	8
	27	94	597.4265	760.7479	-1452.601	1	1639.752	-62.3583	-1.111085E-005	0.0058706	8
	28	96	477.4305	807.5702	-1779.47	1	1954.145	-65.5902	5.806577E-008	0.0006493	8
	29	98	376.6741	869.9162	-2200.78	1	2366.472	-68.43229	3.450821E-008	0.00066	8
	30	101	298.2954	944.0714	-2716.094	1	2875.489	-70.83336	3.275065E-008	0.000655	8
	31	103	237.7717	1030.757	-3335.664	1	3491.291	-72.82828	4.10679E-008	0.0006403	8
	32	106	189.0121	1141.033	-4117.312	1	4272.495	-74.51031	-5.628093E-009	0.0006145	7
	33	108	150.2404	1269.462	-5076.763	1	5233.073	-75.96088	-5.769882E-009	0.0006085	7
	34	110	119.1737	1427.293	-6276.101	1	6436.35	-77.18787	-9.665659E-009	0.0006402	7
	35	113	95.0169	1617.228	-7725.473	1	7892.931	-78.17661	-1.051146E-008	0.0006408	7
	36	115	75.60484	1852.386	-9532.67	1	9710.98	-79.00335	-7.189846E-009	0.0006224	7
	37	118	54.50582	2286.931	-12885.77	1	13087.13	-79.9361	-9.202502E-009	0.0006105	7
	38	120	45.95588	2582.861	-15079.64	1	15299.23	-80.28061	-1.060861E-008	0.0006435	7
	39	123	37.20238	3017.598	-18321.26	1	18568.1	-80.64709	-8.054035E-009	0.0006354	7
	40	125	30.04808	3564.011	-22303.47	1	22586.44	-80.9211	-6.168228E-009	0.0006218	7
	41	128	23.91582	4299.066	-27535.38	1	27868.96	-81.12611	-1.147742E-008	0.0006305	7
	42	130	18.60119	5348.496	-34730.58	1	35140	-81.24525	-5.891008E-009	0.0006134	7
	43	132	15.02404	6454.771	-42191.96	1	42682.84	-81.30199	-1.266514E-009	0.000693	6
	44	135	12.01923	7910.405	-51764.79	1	52365.72	-81.31159	-1.301132E-009	0.000654	6
	45	137	9.450605	9877.5	-64462.58	1	65214.95	-81.28841	-9.397574E-010	0.0007025	6
	46	140	7.512019	12297.39	-79484.53	1	80430.2	-81.20526	-1.10299E-009	0.0007049	6
	47	143	5.978954	15267.18	-97828.5	1	99012.6	-81.12993	-1.188939E-009	0.0006896	6
	48	147	4.734848	19109.76	-120969.3	1	122469.4	-81.02306	-6.322182E-010	0.000703	6
	49	150	3.75601	23940.91	-149352.3	1	151259	-80.89307	-7.365719E-010	0.0006625	6
	50	156	3.004808	29829.05	-182882.3	1	185299	-80.73634	-8.707791E-010	0.0006954	6
	51	162	2.372217	37766.49	-226947.9	1	230068.8	-80.55196	-1.286415E-009	0.0007408	6
	52	166	1.878005	48127.99	-280591.2	1	284688.8	-80.26714	-1.357836E-009	0.0006378	6
	53	171	1.512097	60973.86	-341546.1	1	346946.1	-79.87801	-1.271652E-009	0.0007604	6
	54	176	1.201923	78270.68	-421181.8	1	428392.8	-79.47248	-1.150588E-009	0.0006424	6
	55	183	0.956633	101415.8	-517654.6	1	527495.4	-78.91534	-5.380916E-010	6.41865E-006	5
