EXPLAIN
TAG	EISPOT
TITLE	LABEL	Potentiostatic EIS	Test Identifier
DATE	LABEL	2/28/2021	Date
TIME	LABEL	1:42:26	Time
NOTES	NOTES	1	Notes...
	
PSTAT	PSTAT	REF3000-16137	Potentiostat
VDC	POTEN	0.00000E+000	T	DC Voltage (V)
FREQINIT	QUANT	3.00000E+005	Initial Freq. (Hz)
FREQFINAL	QUANT	1.00000E+000	Final Freq. (Hz)
PTSPERDEC	QUANT	1.00000E+001	Points/decade
VAC	QUANT	5.00000E+001	AC Voltage (mV rms)
AREA	QUANT	1.00000E+000	Sample Area (cm^2)
SPEED	SELECTOR	2	Optimize for:
ZGUESS	QUANT	1.00000E+003	Estimated Z (ohms)
EOC	QUANT	0	Open Circuit (V)
SEQUENCER	TOGGLE	TRUE	Run as Sequence
PSTATMODEL	IQUANT	5	Pstat Model
PSTATSECTION	LABEL	REF3000-16137	Pstat Section
PSTATSERIALNO	LABEL	16137	Pstat Serial Number
CTRLMODE	IQUANT	1	Control Mode
IESTAB	IQUANT	0	I/E Stability
CASPEED	IQUANT	1	Control Amp Speed
CONVENTION	IQUANT	1	Current Convention
ICHRANGE	IQUANT	2	Ich Range
ICHRANGEMODE	TOGGLE	F	Ich Auto Range
ICHOFFSETENABLE	TOGGLE	T	Ich Offset Enable
ICHOFFSET	QUANT	0	Ich Offset (V)
ICHFILTER	IQUANT	3	Ich Filter
VCHRANGE	IQUANT	2	Vch Range
VCHRANGEMODE	TOGGLE	F	Vch Auto Range
VCHOFFSETENABLE	TOGGLE	T	Vch Offset Enable
VCHOFFSET	QUANT	0	Vch Offset (V)
VCHFILTER	IQUANT	3	Vch Filter
ACHRANGE	IQUANT	2	Ach Range
ACHOFFSETENABLE	TOGGLE	F	Ach Offset Enable
ACHOFFSET	QUANT	0	Ach Offset (V)
ACHFILTER	IQUANT	3	Ach Filter
IERANGELOWERLIMIT	IQUANT	2	I/E Range Lower Limit
IERANGEMODE	TOGGLE	F	I/E AutoRange
IERANGE	IQUANT	11	I/E Range
POSFEEDENABLE	TOGGLE	F	Positive Feedback IR Comp
POSFEEDRESISTANCE	QUANT	0	Positive Feedback Resistance (ohm)
ACHSELECT	IQUANT	0	Ach Select
CABLEID	IQUANT	13	Cable ID
DCCALDATE	LABEL	7/31/2020	DC Calibration Date
ACCALDATE	LABEL	7/31/2020	AC Calibration Date
THERMOSELECT	IQUANT	1	Thermo Select
FRAMEWORKVERSION	QUANT	6.33	Framework Version
INSTRUMENTVERSION	LABEL	3.50	Instrument Version
COMPLIANCEVOLTAGE	IQUANT	0	Compliance Voltage
ZCURVE	TABLE
	Pt	Time	Freq	Zreal	Zimag	Zsig	Zmod	Zphz	Idc	Vdc	IERange
	#	s	Hz	ohm	ohm	V	ohm	°	A	V	#
	0	7	300046.9	150.4933	-10.93145	1	150.8898	-4.154523	-8.479453E-005	0.0029963	9
	1	11	238359.4	151.7223	-13.97655	1	152.3647	-5.26319	1.145499E-005	0.0009285	9
	2	14	189328.1	153.273	-16.77936	1	154.1887	-6.247501	1.680434E-005	-0.0014979	9
	3	16	150421.9	155.2929	-19.90582	1	156.5635	-7.304477	8.66481E-006	-0.0015079	9
	4	19	119484.4	157.3811	-23.68954	1	159.1541	-8.56009	4.861352E-005	-0.0002178	9
	5	21	94921.88	160.1031	-27.9271	1	162.5205	-9.89466	2.182088E-005	-0.0008322	9
	6	24	75421.88	162.8798	-32.94575	1	166.1784	-11.43496	-5.835457E-007	-0.0003204	9
	7	26	59859.37	166.6947	-38.78003	1	171.1462	-13.0964	2.463878E-005	-0.000803	9
	8	29	47578.12	170.6486	-45.59141	1	176.6339	-14.95809	-1.403589E-005	0.0009059	9
	9	31	37828.12	175.5782	-53.17055	1	183.4525	-16.84795	2.140806E-005	-0.000758	9
	10	34	30046.88	181.3073	-62.23453	1	191.6911	-18.94501	2.04076E-005	-0.0007331	9
	11	37	23859.38	187.8123	-72.31805	1	201.2544	-21.05945	2.630505E-005	-0.0006376	9
	12	39	18984.38	194.8066	-83.67831	1	212.0181	-23.24573	-1.552507E-005	0.0002376	9
	13	41	15046.87	203.0036	-97.5617	1	225.2304	-25.66853	2.559581E-005	-0.0004722	9
	14	43	11953.13	211.317	-112.8262	1	239.5509	-28.0986	2.015657E-005	-0.0007793	9
	15	46	9515.62	220.3284	-130.9134	1	256.2868	-30.71768	-1.755029E-005	0.0003776	9
	16	49	7546.875	230.7742	-153.7995	1	277.3283	-33.68148	1.416899E-005	-0.0007162	9
	17	52	5928.309	239.6622	-181.9107	1	300.8812	-37.19957	-1.798768E-005	0.0003592	9
	18	54	4733.456	249.4841	-215.2052	1	329.4778	-40.78109	1.503209E-005	-0.0007322	9
	19	56	3796.875	259.5836	-256.7661	1	365.1198	-44.68736	2.5463E-005	-0.0004716	9
	20	59	2987.132	270.7327	-311.5627	1	412.756	-49.01096	-1.420332E-005	0.0009154	9
	21	61	2390.625	282.3876	-371.9702	1	467.0167	-52.79543	1.891344E-006	-0.0018183	8
	22	64	1884.191	296.0301	-455.0917	1	542.9017	-56.95663	-7.957172E-006	0.002676	8
	23	66	1516.544	312.586	-551.6857	1	634.0876	-60.46404	-4.462813E-006	0.0005418	8
	24	68	1193.986	334.8752	-680.7391	1	758.6482	-63.80609	-8.008818E-006	0.003228	8
	25	71	946.5144	358.2107	-835.4984	1	909.0503	-66.7933	-1.685722E-006	0.0031397	8
	26	73	751.7689	389.1119	-1031.454	1	1102.409	-69.33122	1.415392E-006	-0.0015164	8
	27	75	597.4265	423.4162	-1265.848	1	1334.785	-71.50531	-7.969486E-006	0.0031913	8
	28	78	477.4305	464.2974	-1547.423	1	1615.577	-73.29836	2.027072E-007	0.0006519	8
	29	80	376.6741	517.153	-1918.085	1	1986.579	-74.91075	1.920654E-007	0.0006565	8
	30	82	298.2954	580.737	-2371.192	1	2441.272	-76.23837	1.942003E-007	0.000662	8
	31	85	237.7717	656.7139	-2916.134	1	2989.166	-77.3087	2.08646E-007	0.0006597	8
	32	87	189.0121	751.0588	-3596.593	1	3674.177	-78.20471	2.042268E-007	0.0006578	8
	33	90	150.2404	871.4326	-4445.979	1	4530.576	-78.91035	1.265533E-008	0.0006338	7
	34	92	119.1737	1018.615	-5497.877	1	5591.443	-79.50359	1.385179E-008	0.0006334	7
	35	94	95.0169	1200.374	-6767.277	1	6872.913	-79.94154	1.434155E-008	0.0006323	7
	36	97	75.60484	1430.75	-8344.921	1	8466.685	-80.27114	1.221631E-008	0.0006202	7
	37	99	54.50582	1874.151	-11258.13	1	11413.06	-80.54859	1.398488E-008	0.0006089	7
	38	102	45.95588	2166.627	-13157.59	1	13334.78	-80.64916	1.547126E-008	0.0006236	7
	39	104	37.20238	2610.408	-15943.22	1	16155.51	-80.70138	1.348584E-008	0.0006155	7
	40	107	30.04808	3176.626	-19379.04	1	19637.67	-80.69083	1.175563E-008	0.0006321	7
	41	109	23.91582	3927.605	-23838.65	1	24160.03	-80.64412	1.316414E-008	0.0006199	7
	42	112	18.60119	4988.849	-29905.15	1	30318.42	-80.529	1.10901E-008	0.0006366	7
	43	114	15.02404	6085.128	-36246.2	1	36753.44	-80.46987	1.38066E-008	0.000628	7
	44	116	12.01923	7549.276	-44313.63	1	44952.08	-80.3319	5.042251E-010	0.0006662	6
	45	119	9.450605	9483.421	-55048.44	1	55859.34	-80.22536	1.557254E-009	0.0006764	6
	46	121	7.512019	11954.55	-67680.18	1	68727.85	-79.983	1.292513E-009	0.0006555	6
	47	124	5.978954	15030.71	-83127.07	1	84475.04	-79.75075	8.474225E-010	0.0006826	6
	48	128	4.734848	19134.65	-102596.5	1	104365.6	-79.43549	1.833129E-009	0.0006846	6
	49	132	3.75601	24562.14	-126257.2	1	128624.1	-78.99115	1.04416E-009	0.0006457	6
	50	137	3.004808	31468.56	-154048.4	1	157229.7	-78.45463	1.104579E-009	0.0006869	6
	51	144	2.372217	41544.5	-190104.4	1	194591	-77.67266	1.053477E-009	0.0007425	6
	52	148	1.878005	54444.59	-233502.4	1	239765.6	-76.87512	5.406829E-010	0.0006471	6
	53	153	1.512097	70835.39	-281225.7	1	290009.5	-75.86237	8.24883E-010	0.0007256	6
	54	158	1.201923	93617.44	-343056	1	355600.4	-74.73606	8.317036E-010	0.000641	6
	55	164	0.956633	124310.5	-415399.6	1	433601.1	-73.33991	-9.723851E-010	9.856964E-006	5
