EXPLAIN
TAG	EISPOT
TITLE	LABEL	Potentiostatic EIS	Test Identifier
DATE	LABEL	2/28/2021	Date
TIME	LABEL	1:25:16	Time
NOTES	NOTES	1	Notes...
	
PSTAT	PSTAT	REF3000-16137	Potentiostat
VDC	POTEN	0.00000E+000	T	DC Voltage (V)
FREQINIT	QUANT	3.00000E+005	Initial Freq. (Hz)
FREQFINAL	QUANT	1.00000E+000	Final Freq. (Hz)
PTSPERDEC	QUANT	1.00000E+001	Points/decade
VAC	QUANT	5.00000E+001	AC Voltage (mV rms)
AREA	QUANT	1.00000E+000	Sample Area (cm^2)
SPEED	SELECTOR	2	Optimize for:
ZGUESS	QUANT	1.00000E+003	Estimated Z (ohms)
EOC	QUANT	0	Open Circuit (V)
SEQUENCER	TOGGLE	TRUE	Run as Sequence
PSTATMODEL	IQUANT	5	Pstat Model
PSTATSECTION	LABEL	REF3000-16137	Pstat Section
PSTATSERIALNO	LABEL	16137	Pstat Serial Number
CTRLMODE	IQUANT	1	Control Mode
IESTAB	IQUANT	0	I/E Stability
CASPEED	IQUANT	1	Control Amp Speed
CONVENTION	IQUANT	1	Current Convention
ICHRANGE	IQUANT	2	Ich Range
ICHRANGEMODE	TOGGLE	F	Ich Auto Range
ICHOFFSETENABLE	TOGGLE	T	Ich Offset Enable
ICHOFFSET	QUANT	0	Ich Offset (V)
ICHFILTER	IQUANT	3	Ich Filter
VCHRANGE	IQUANT	2	Vch Range
VCHRANGEMODE	TOGGLE	F	Vch Auto Range
VCHOFFSETENABLE	TOGGLE	T	Vch Offset Enable
VCHOFFSET	QUANT	0	Vch Offset (V)
VCHFILTER	IQUANT	3	Vch Filter
ACHRANGE	IQUANT	2	Ach Range
ACHOFFSETENABLE	TOGGLE	F	Ach Offset Enable
ACHOFFSET	QUANT	0	Ach Offset (V)
ACHFILTER	IQUANT	3	Ach Filter
IERANGELOWERLIMIT	IQUANT	2	I/E Range Lower Limit
IERANGEMODE	TOGGLE	F	I/E AutoRange
IERANGE	IQUANT	11	I/E Range
POSFEEDENABLE	TOGGLE	F	Positive Feedback IR Comp
POSFEEDRESISTANCE	QUANT	0	Positive Feedback Resistance (ohm)
ACHSELECT	IQUANT	0	Ach Select
CABLEID	IQUANT	13	Cable ID
DCCALDATE	LABEL	7/31/2020	DC Calibration Date
ACCALDATE	LABEL	7/31/2020	AC Calibration Date
THERMOSELECT	IQUANT	1	Thermo Select
FRAMEWORKVERSION	QUANT	6.33	Framework Version
INSTRUMENTVERSION	LABEL	3.50	Instrument Version
COMPLIANCEVOLTAGE	IQUANT	0	Compliance Voltage
ZCURVE	TABLE
	Pt	Time	Freq	Zreal	Zimag	Zsig	Zmod	Zphz	Idc	Vdc	IERange
	#	s	Hz	ohm	ohm	V	ohm	°	A	V	#
	0	7	300046.9	67.78779	-6.733454	1	68.12139	-5.67266	6.334058E-005	-0.0019778	9
	1	10	238359.4	68.78777	-8.972262	1	69.37045	-7.431362	2.67926E-005	-0.0002121	9
	2	13	189328.1	70.03092	-11.35876	1	70.94611	-9.212935	5.916703E-005	-0.0016811	9
	3	15	150421.9	71.446	-14.02103	1	72.80879	-11.103	5.790658E-005	-0.0015779	9
	4	18	119484.4	72.96442	-16.86765	1	74.88874	-13.01677	1.142611E-005	0.0006302	9
	5	21	94921.88	74.97987	-19.9283	1	77.58298	-14.88409	-9.793502E-006	2.858344E-005	9
	6	23	75421.88	77.18301	-23.6147	1	80.71475	-17.01187	2.143384E-005	-0.0003552	9
	7	26	59859.37	79.66137	-27.75736	1	84.35879	-19.21048	-1.366737E-005	0.0002265	9
	8	28	47578.12	82.57674	-32.52464	1	88.75117	-21.49807	2.083311E-005	-0.0003076	9
	9	31	37828.12	85.75832	-37.78129	1	93.71187	-23.77615	2.260562E-005	-0.0004001	9
	10	33	30046.88	89.28965	-43.87708	1	99.4879	-26.16958	-2.994874E-006	-0.0001788	9
	11	36	23859.38	93.01478	-50.94374	1	106.0519	-28.70931	1.646507E-005	-0.0005819	9
	12	38	18984.38	96.9396	-59.13715	1	113.5539	-31.3849	4.232313E-006	-0.000387	9
	13	40	15046.87	100.9478	-69.48889	1	122.5527	-34.54214	2.005243E-005	-0.0006081	9
	14	43	11953.13	105.1236	-82.02467	1	133.338	-37.96381	1.869871E-005	-0.0001004	9
	15	45	9515.62	109.3407	-97.44	1	146.458	-41.70614	-1.757138E-005	0.0004756	9
	16	47	7546.875	113.8455	-117.0189	1	163.2612	-45.78754	-3.910698E-006	0.0005745	9
	17	50	5928.309	119.5158	-142.0065	1	185.6068	-49.91529	2.240849E-005	-0.000427	9
	18	52	4733.456	125.2761	-171.4769	1	212.3639	-53.84922	-1.011144E-005	0.0007355	9
	19	54	3796.875	131.4866	-207.2617	1	245.4509	-57.60899	-4.714851E-006	0.0005884	9
	20	57	2987.132	140.2131	-254.7344	1	290.7736	-61.17036	-1.485054E-005	0.0007743	9
	21	59	2390.625	149.429	-309.575	1	343.7523	-64.23383	2.018501E-005	-0.0002438	9
	22	61	1884.191	159.756	-382.8562	1	414.8504	-67.35049	-1.861025E-005	0.0006459	9
	23	64	1516.544	174.0105	-461.422	1	493.1429	-69.33764	5.504889E-006	-0.0004712	8
	24	66	1193.986	191.5234	-571.6763	1	602.9055	-71.47808	-2.030987E-006	0.0021351	8
	25	69	946.5144	213.6682	-703.2595	1	735.0021	-73.09988	2.546477E-006	-0.0007448	8
	26	71	751.7689	236.1255	-866.3047	1	897.9081	-74.75346	-2.05907E-006	0.002171	8
	27	73	597.4265	269.3036	-1066.491	1	1099.967	-75.82829	-3.21445E-006	0.0022896	8
	28	75	477.4305	305.879	-1305.03	1	1340.397	-76.80886	3.988028E-007	0.0006564	8
	29	78	376.6741	354.7425	-1617.509	1	1655.952	-77.63007	3.975353E-007	0.0006506	8
	30	80	298.2954	415.0722	-1998.212	1	2040.866	-78.2653	3.997049E-007	0.0006539	8
	31	82	237.7717	488.6331	-2454.144	1	2502.316	-78.73936	4.035101E-007	0.0006495	8
	32	85	189.0121	581.9003	-3021.61	1	3077.131	-79.09946	4.001485E-007	0.0006533	8
	33	87	150.2404	699.8818	-3718.5	1	3783.791	-79.34071	4.008415E-007	0.0006532	8
	34	90	119.1737	853.5053	-4592.637	1	4671.272	-79.47214	3.78695E-008	0.0006294	7
	35	92	95.0169	1038.689	-5629.804	1	5724.82	-79.54658	3.457555E-008	0.0006302	7
	36	95	75.60484	1273.184	-6910.68	1	7026.983	-79.5612	3.382489E-008	0.00063	7
	37	97	54.50582	1710.85	-9252.757	1	9409.597	-79.52423	3.568089E-008	0.0006251	7
	38	100	45.95588	2004.119	-10774.83	1	10959.63	-79.46339	3.670019E-008	0.0006443	7
	39	102	37.20238	2432.56	-12995.5	1	13221.21	-79.39779	3.500617E-008	0.0006333	7
	40	104	30.04808	2964.174	-15720.17	1	15997.19	-79.32176	3.369069E-008	0.000631	7
	41	107	23.91582	3661.748	-19267.02	1	19611.89	-79.23912	3.322582E-008	0.0006366	7
	42	109	18.60119	4625.281	-24055.09	1	24495.72	-79.11607	3.197967E-008	0.0006358	7
	43	111	15.02404	5675.327	-29096.04	1	29644.37	-78.96275	3.699927E-008	0.000624	7
	44	114	12.01923	7070.68	-35498.75	1	36196.08	-78.73519	3.640772E-008	0.0006254	7
	45	116	9.450605	9046.512	-43947.3	1	44868.75	-78.36819	3.601366E-009	0.0006698	6
	46	119	7.512019	11542.4	-53883.05	1	55105.44	-77.90928	3.099131E-009	0.000675	6
	47	122	5.978954	14788.14	-65908.66	1	67547.32	-77.3538	2.959616E-009	0.0006769	6
	48	126	4.734848	19306.22	-80916.27	1	83187.58	-76.58041	2.289588E-009	0.0006366	6
	49	129	3.75601	25338.48	-98861.1	1	102056.6	-75.62432	2.996082E-009	0.000679	6
	50	135	3.004808	33079.96	-119543.4	1	124035.9	-74.53221	2.0438E-009	0.0007128	6
	51	141	2.372217	44102.99	-145496.3	1	152033.7	-73.13684	2.745735E-009	0.0007162	6
	52	145	1.878005	59213.6	-175845.5	1	185547.5	-71.38974	2.613163E-009	0.0006554	6
	53	150	1.512097	77449.82	-208121.9	1	222065.7	-69.58791	1.948901E-009	0.0007802	6
	54	156	1.201923	102648.8	-247209.3	1	267673.8	-67.45029	2.974908E-009	0.0006574	6
	55	162	0.956633	134491.9	-290117.1	1	319774.9	-65.12859	4.147298E-010	3.589867E-005	6
