EXPLAIN
TAG	EISPOT
TITLE	LABEL	Potentiostatic EIS	Test Identifier
DATE	LABEL	2/28/2021	Date
TIME	LABEL	4:11:54	Time
NOTES	NOTES	1	Notes...
	
PSTAT	PSTAT	REF3000-16137	Potentiostat
VDC	POTEN	0.00000E+000	T	DC Voltage (V)
FREQINIT	QUANT	3.00000E+005	Initial Freq. (Hz)
FREQFINAL	QUANT	1.00000E+000	Final Freq. (Hz)
PTSPERDEC	QUANT	1.00000E+001	Points/decade
VAC	QUANT	5.00000E+001	AC Voltage (mV rms)
AREA	QUANT	1.00000E+000	Sample Area (cm^2)
SPEED	SELECTOR	2	Optimize for:
ZGUESS	QUANT	1.00000E+003	Estimated Z (ohms)
EOC	QUANT	0	Open Circuit (V)
SEQUENCER	TOGGLE	TRUE	Run as Sequence
PSTATMODEL	IQUANT	5	Pstat Model
PSTATSECTION	LABEL	REF3000-16137	Pstat Section
PSTATSERIALNO	LABEL	16137	Pstat Serial Number
CTRLMODE	IQUANT	1	Control Mode
IESTAB	IQUANT	0	I/E Stability
CASPEED	IQUANT	1	Control Amp Speed
CONVENTION	IQUANT	1	Current Convention
ICHRANGE	IQUANT	2	Ich Range
ICHRANGEMODE	TOGGLE	F	Ich Auto Range
ICHOFFSETENABLE	TOGGLE	T	Ich Offset Enable
ICHOFFSET	QUANT	0	Ich Offset (V)
ICHFILTER	IQUANT	3	Ich Filter
VCHRANGE	IQUANT	2	Vch Range
VCHRANGEMODE	TOGGLE	F	Vch Auto Range
VCHOFFSETENABLE	TOGGLE	T	Vch Offset Enable
VCHOFFSET	QUANT	0	Vch Offset (V)
VCHFILTER	IQUANT	3	Vch Filter
ACHRANGE	IQUANT	2	Ach Range
ACHOFFSETENABLE	TOGGLE	F	Ach Offset Enable
ACHOFFSET	QUANT	0	Ach Offset (V)
ACHFILTER	IQUANT	3	Ach Filter
IERANGELOWERLIMIT	IQUANT	2	I/E Range Lower Limit
IERANGEMODE	TOGGLE	F	I/E AutoRange
IERANGE	IQUANT	11	I/E Range
POSFEEDENABLE	TOGGLE	F	Positive Feedback IR Comp
POSFEEDRESISTANCE	QUANT	0	Positive Feedback Resistance (ohm)
ACHSELECT	IQUANT	0	Ach Select
CABLEID	IQUANT	13	Cable ID
DCCALDATE	LABEL	7/31/2020	DC Calibration Date
ACCALDATE	LABEL	7/31/2020	AC Calibration Date
THERMOSELECT	IQUANT	1	Thermo Select
FRAMEWORKVERSION	QUANT	6.33	Framework Version
INSTRUMENTVERSION	LABEL	3.50	Instrument Version
COMPLIANCEVOLTAGE	IQUANT	0	Compliance Voltage
ZCURVE	TABLE
	Pt	Time	Freq	Zreal	Zimag	Zsig	Zmod	Zphz	Idc	Vdc	IERange
	#	s	Hz	ohm	ohm	V	ohm	°	A	V	#
	0	7	300046.9	24.41248	-4.794101	1	24.87876	-11.11031	-3.921318E-005	-0.0003115	11
	1	11	238359.4	25.21487	-5.949356	1	25.90723	-13.27592	-0.000108	0.0004094	10
	2	16	189328.1	26.06112	-7.475454	1	27.11207	-16.00518	2.648192E-005	0.0005587	10
	3	20	150421.9	27.01272	-9.117134	1	28.50981	-18.65019	1.263963E-005	0.0005663	10
	4	22	119484.4	28.0476	-10.80063	1	30.0553	-21.0608	2.19311E-005	0.0006202	10
	5	25	94921.88	29.25971	-12.69644	1	31.89561	-23.45709	2.451392E-005	0.0006207	10
	6	27	75421.88	30.5057	-14.75867	1	33.88829	-25.81772	-2.302171E-005	0.0007445	10
	7	30	59859.37	31.85063	-17.18194	1	36.18953	-28.3448	2.441658E-005	0.0006343	10
	8	32	47578.12	33.31892	-19.79693	1	38.75653	-30.7173	1.514138E-005	-0.0003541	9
	9	35	37828.12	34.72346	-23.17068	1	41.74445	-33.71486	-4.494553E-006	0.0004365	9
	10	38	30046.88	36.27091	-27.35115	1	45.42757	-37.01919	-1.153499E-005	0.0004691	9
	11	40	23859.38	37.94849	-32.41554	1	49.90847	-40.5039	1.295143E-005	-0.0001588	9
	12	42	18984.38	39.76603	-38.60143	1	55.42028	-44.1486	-1.271483E-005	0.0004365	9
	13	45	15046.87	41.85096	-46.37774	1	62.46917	-47.93712	-1.160483E-005	0.0003496	9
	14	47	11953.13	44.35025	-55.78144	1	71.26369	-51.51278	1.325635E-005	-0.0001656	9
	15	49	9515.62	47.16541	-67.24593	1	82.13763	-54.95469	-1.205144E-005	0.0003478	9
	16	52	7546.875	50.63232	-81.54736	1	95.9875	-58.16408	-1.250828E-005	0.000382	9
	17	54	5928.309	55.22094	-99.5987	1	113.8826	-60.9945	1.015636E-005	-0.0003181	9
	18	56	4733.456	60.27327	-120.3901	1	134.6352	-63.40517	1.019831E-005	-0.0003087	9
	19	59	3796.875	66.45872	-144.7827	1	159.3072	-65.34375	1.293239E-005	-0.0003408	9
	20	61	2987.132	73.8878	-177.8293	1	192.5686	-67.43719	-3.596583E-007	0.0003006	9
	21	63	2390.625	82.76079	-214.837	1	230.2266	-68.93201	1.726907E-005	-0.0002368	9
	22	66	1884.191	94.47627	-263.1925	1	279.6356	-70.25375	4.254498E-006	0.0001685	9
	23	68	1516.544	107.63	-316.2251	1	334.0397	-71.20355	1.487623E-005	-0.0003288	9
	24	70	1193.986	125.2282	-387.8499	1	407.5655	-72.10587	-1.175227E-005	0.0004563	9
	25	73	946.5144	145.3388	-471.3214	1	493.2213	-72.86209	-2.325326E-006	0.0011788	8
	26	75	751.7689	172.3312	-574.5157	1	599.8052	-73.30291	4.609274E-009	0.000503	8
	27	77	597.4265	205.1338	-699.4254	1	728.8866	-73.65417	-1.592988E-006	0.0012642	8
	28	80	477.4305	247.592	-847.6525	1	883.0723	-73.71737	2.108393E-007	0.0006576	8
	29	82	376.6741	305.1791	-1038.478	1	1082.391	-73.62344	2.053983E-007	0.0006556	8
	30	84	298.2954	380.2045	-1266.938	1	1322.757	-73.29565	2.04183E-007	0.0006572	8
	31	87	237.7717	477.0985	-1534.48	1	1606.938	-72.72855	2.056975E-007	0.0006588	8
	32	89	189.0121	617.7266	-1850.098	1	1950.499	-71.53642	2.05746E-007	0.0006616	8
	33	92	150.2404	798.1703	-2229.135	1	2367.724	-70.29944	2.261117E-007	0.0006537	8
	34	94	119.1737	1043.259	-2673.387	1	2869.737	-68.68236	2.228249E-007	0.0006631	8
	35	96	95.0169	1361.399	-3166.477	1	3446.735	-66.73514	2.181954E-007	0.0006622	8
	36	99	75.60484	1781.416	-3716.805	1	4121.66	-64.3922	2.152777E-007	0.0006597	8
	37	102	54.50582	2597.867	-4570.741	1	5257.432	-60.38745	-3.115587E-007	0.0006345	7
	38	104	45.95588	3128.337	-5008.537	1	5905.247	-58.01106	-3.126334E-007	0.0006409	7
	39	106	37.20238	3882.126	-5492.004	1	6725.549	-54.74471	-3.429359E-007	0.0006501	7
	40	109	30.04808	4749.87	-5885.02	1	7562.719	-51.09258	-3.772109E-007	0.000642	7
	41	111	23.91582	5686.506	-6310.095	1	8494.33	-47.97559	-3.684674E-007	0.0006325	7
	42	114	18.60119	6773.748	-6726.351	1	9546.07	-44.79884	-3.668322E-007	0.0006332	7
	43	116	15.02404	7699.078	-7081.046	1	10460.26	-42.60557	-3.769354E-007	0.0006323	7
	44	118	12.01923	8657.402	-7472.232	1	11436.12	-40.79758	-3.674271E-007	0.0006393	7
	45	121	9.450605	9720.72	-7956.059	1	12561.5	-39.29909	-3.650566E-007	0.0006487	7
	46	123	7.512019	10801.57	-8494.175	1	13741.35	-38.18093	-3.511153E-007	0.0006606	7
	47	126	5.978954	11974.64	-9103.94	1	15042.4	-37.24458	-3.547359E-007	0.0006039	7
	48	129	4.734848	13312.7	-9793.69	1	16527.08	-36.34062	-3.483498E-007	0.0006627	7
	49	132	3.75601	14821.12	-10501.78	1	18164.61	-35.32017	-3.58402E-007	0.0006251	7
	50	136	3.004808	16439.07	-11174.04	1	19877.18	-34.2049	-3.612614E-007	0.0006578	7
	51	139	2.372217	18355.76	-11785.87	1	21813.78	-32.70372	-3.494347E-007	0.0007156	7
	52	144	1.878005	20367.35	-12277.5	1	23781.63	-31.08169	-3.567433E-007	0.0006109	7
	53	148	1.512097	22309.17	-12538.14	1	25591.09	-29.33675	-3.534113E-007	0.0007016	7
	54	154	1.201923	24429.16	-12619.82	1	27496.25	-27.32035	-3.535242E-007	0.0006032	7
	55	160	0.956633	25813.89	-11778.68	1	28374.19	-24.52685	-3.977947E-007	-5.350659E-006	7
