EXPLAIN
TAG	EISPOT
TITLE	LABEL	Potentiostatic EIS	Test Identifier
DATE	LABEL	2/28/2021	Date
TIME	LABEL	1:22:25	Time
NOTES	NOTES	1	Notes...
	
PSTAT	PSTAT	REF3000-16137	Potentiostat
VDC	POTEN	0.00000E+000	T	DC Voltage (V)
FREQINIT	QUANT	3.00000E+005	Initial Freq. (Hz)
FREQFINAL	QUANT	1.00000E+000	Final Freq. (Hz)
PTSPERDEC	QUANT	1.00000E+001	Points/decade
VAC	QUANT	5.00000E+001	AC Voltage (mV rms)
AREA	QUANT	1.00000E+000	Sample Area (cm^2)
SPEED	SELECTOR	2	Optimize for:
ZGUESS	QUANT	1.00000E+003	Estimated Z (ohms)
EOC	QUANT	0	Open Circuit (V)
SEQUENCER	TOGGLE	TRUE	Run as Sequence
PSTATMODEL	IQUANT	5	Pstat Model
PSTATSECTION	LABEL	REF3000-16137	Pstat Section
PSTATSERIALNO	LABEL	16137	Pstat Serial Number
CTRLMODE	IQUANT	1	Control Mode
IESTAB	IQUANT	0	I/E Stability
CASPEED	IQUANT	1	Control Amp Speed
CONVENTION	IQUANT	1	Current Convention
ICHRANGE	IQUANT	2	Ich Range
ICHRANGEMODE	TOGGLE	F	Ich Auto Range
ICHOFFSETENABLE	TOGGLE	T	Ich Offset Enable
ICHOFFSET	QUANT	0	Ich Offset (V)
ICHFILTER	IQUANT	3	Ich Filter
VCHRANGE	IQUANT	2	Vch Range
VCHRANGEMODE	TOGGLE	F	Vch Auto Range
VCHOFFSETENABLE	TOGGLE	T	Vch Offset Enable
VCHOFFSET	QUANT	0	Vch Offset (V)
VCHFILTER	IQUANT	3	Vch Filter
ACHRANGE	IQUANT	2	Ach Range
ACHOFFSETENABLE	TOGGLE	F	Ach Offset Enable
ACHOFFSET	QUANT	0	Ach Offset (V)
ACHFILTER	IQUANT	3	Ach Filter
IERANGELOWERLIMIT	IQUANT	2	I/E Range Lower Limit
IERANGEMODE	TOGGLE	F	I/E AutoRange
IERANGE	IQUANT	11	I/E Range
POSFEEDENABLE	TOGGLE	F	Positive Feedback IR Comp
POSFEEDRESISTANCE	QUANT	0	Positive Feedback Resistance (ohm)
ACHSELECT	IQUANT	0	Ach Select
CABLEID	IQUANT	13	Cable ID
DCCALDATE	LABEL	7/31/2020	DC Calibration Date
ACCALDATE	LABEL	7/31/2020	AC Calibration Date
THERMOSELECT	IQUANT	1	Thermo Select
FRAMEWORKVERSION	QUANT	6.33	Framework Version
INSTRUMENTVERSION	LABEL	3.50	Instrument Version
COMPLIANCEVOLTAGE	IQUANT	0	Compliance Voltage
ZCURVE	TABLE
	Pt	Time	Freq	Zreal	Zimag	Zsig	Zmod	Zphz	Idc	Vdc	IERange
	#	s	Hz	ohm	ohm	V	ohm	°	A	V	#
	0	7	300046.9	61.2114	-6.40299	1	61.54538	-5.971681	1.778683E-005	-0.0008376	9
	1	10	238359.4	62.16352	-8.565247	1	62.75083	-7.845144	7.973546E-006	-0.001276	9
	2	13	189328.1	63.17919	-10.60196	1	64.06256	-9.52592	1.797741E-005	-0.000636	9
	3	16	150421.9	64.65425	-13.34635	1	66.0174	-11.66354	-2.921199E-006	0.0008094	9
	4	18	119484.4	66.11751	-16.13921	1	68.05879	-13.71758	7.402545E-006	-0.0009668	9
	5	21	94921.88	68.15502	-18.99193	1	70.75168	-15.57091	1.55314E-005	-0.0006146	9
	6	23	75421.88	70.11783	-22.52814	1	73.64799	-17.81168	2.122456E-005	-0.0002814	9
	7	26	59859.37	72.53761	-26.56947	1	77.25051	-20.11705	-1.69653E-005	0.000663	9
	8	28	47578.12	75.24987	-31.00909	1	81.38862	-22.39566	-1.670337E-005	0.0006674	9
	9	31	37828.12	78.23477	-36.01411	1	86.12605	-24.71821	2.207785E-005	-0.0005063	9
	10	33	30046.88	81.5349	-41.70366	1	91.5813	-27.08894	-1.720372E-005	0.0006367	9
	11	36	23859.38	84.96066	-48.53921	1	97.8487	-29.73993	2.137428E-005	-0.0005124	9
	12	38	18984.38	88.4227	-56.60739	1	104.9903	-32.62699	2.145224E-005	-0.000326	9
	13	40	15046.87	92.16003	-66.55904	1	113.6819	-35.83725	-1.33768E-005	0.0002493	9
	14	43	11953.13	95.9282	-78.85951	1	124.1815	-39.42253	1.901533E-005	-0.0005637	9
	15	45	9515.62	99.8796	-93.83712	1	137.045	-43.21338	-3.317388E-006	0.0006219	9
	16	47	7546.875	104.1478	-113.1433	1	153.7796	-47.37059	-1.833492E-005	0.0006036	9
	17	50	5928.309	109.4919	-137.7547	1	175.9682	-51.52119	-1.669778E-005	0.000708	9
	18	52	4733.456	114.9606	-166.5245	1	202.352	-55.38065	-9.65984E-006	8.432501E-005	9
	19	54	3796.875	120.913	-201.1727	1	234.7135	-58.99241	4.419172E-006	-0.0003723	9
	20	57	2987.132	129.3395	-247.7217	1	279.4544	-62.43021	4.185441E-006	-0.000354	9
	21	59	2390.625	138.6378	-300.9787	1	331.3738	-65.2681	1.892317E-005	-0.000525	9
	22	62	1884.191	148.4377	-370.8938	1	399.4947	-68.18791	2.010959E-005	-0.0005882	9
	23	64	1516.544	162.892	-449.3592	1	477.9723	-70.07449	-3.933556E-006	0.0019488	8
	24	66	1193.986	179.6929	-556.3585	1	584.6574	-72.10056	-2.803646E-006	0.00211	8
	25	69	946.5144	200.0493	-685.793	1	714.3751	-73.73777	-1.879707E-006	0.0019967	8
	26	71	751.7689	225.8272	-843.5168	1	873.223	-75.0122	-4.848832E-007	0.0017364	8
	27	73	597.4265	256.9688	-1038.792	1	1070.104	-76.10553	-2.128209E-006	0.0007162	8
	28	76	477.4305	293.5432	-1269.966	1	1303.45	-76.98508	4.15963E-007	0.0006625	8
	29	78	376.6741	342.5871	-1573.306	1	1610.173	-77.71561	4.152856E-007	0.0006469	8
	30	80	298.2954	403.2658	-1942.64	1	1984.055	-78.27273	4.082894E-007	0.0006568	8
	31	83	237.7717	477.1923	-2384.328	1	2431.611	-78.68252	4.224428E-007	0.0006564	8
	32	85	189.0121	571.1197	-2933.258	1	2988.341	-78.98208	4.13125E-007	0.0006535	8
	33	87	150.2404	689.745	-3606.602	1	3671.965	-79.17319	4.142506E-007	0.0006623	8
	34	90	119.1737	843.3626	-4448.961	1	4528.191	-79.26615	4.040479E-008	0.0006304	7
	35	92	95.0169	1028.125	-5448.751	1	5544.902	-79.31448	3.734682E-008	0.0006313	7
	36	95	75.60484	1259.66	-6679.966	1	6797.698	-79.32098	3.682495E-008	0.0006345	7
	37	97	54.50582	1690.581	-8934.974	1	9093.504	-79.28576	3.670041E-008	0.0006288	7
	38	100	45.95588	1976.665	-10397.94	1	10584.15	-79.23641	4.11417E-008	0.0006338	7
	39	102	37.20238	2391.435	-12528.02	1	12754.23	-79.193	3.770159E-008	0.0006249	7
	40	104	30.04808	2904.192	-15139.94	1	15415.97	-79.14124	3.64779E-008	0.0006329	7
	41	107	23.91582	3587.314	-18572.45	1	18915.73	-79.06781	3.860728E-008	0.0006332	7
	42	109	18.60119	4545.723	-23193.41	1	23634.68	-78.91105	3.718691E-008	0.00064	7
	43	112	15.02404	5572.851	-28055.69	1	28603.82	-78.76527	3.777052E-008	0.0006266	7
	44	114	12.01923	6974.824	-34216.41	1	34920.06	-78.47842	3.87091E-008	0.0006295	7
	45	116	9.450605	8913.538	-42351.34	1	43279.18	-78.11462	3.733474E-008	0.0006233	7
	46	119	7.512019	11493.24	-51914.62	1	53171.63	-77.51678	7.902807E-010	0.000667	6
	47	122	5.978954	14818.66	-63430	1	65137.98	-76.85028	1.606569E-009	0.0006796	6
	48	126	4.734848	19409.78	-77702.4	1	80089.96	-75.97474	1.264746E-009	0.000655	6
	49	129	3.75601	25618.39	-94792.89	1	98193.7	-74.87673	3.187396E-009	0.0006964	6
	50	134	3.004808	33587.38	-114297.6	1	119130.4	-73.62409	2.400937E-009	0.0006821	6
	51	141	2.372217	45190.55	-138584.1	1	145766	-71.93949	2.573195E-009	0.0006191	6
	52	145	1.878005	60262.09	-166929.5	1	177473.9	-70.15025	3.491081E-009	0.0006742	6
	53	150	1.512097	78337.63	-196256.9	1	211313.9	-68.24017	3.086697E-009	0.0006787	6
	54	155	1.201923	103875.4	-231469.4	1	253708.9	-65.83112	2.768906E-009	0.0006992	6
	55	161	0.956633	135595.4	-269259.9	1	301474.8	-63.27084	4.864326E-010	3.363584E-005	6
