EXPLAIN
TAG	EISPOT
TITLE	LABEL	Potentiostatic EIS	Test Identifier
DATE	LABEL	8/25/2020	Date
TIME	LABEL	15:31:48	Time
NOTES	NOTES	1	Notes...
	
PSTAT	PSTAT	REF3000-16137	Potentiostat
VDC	POTEN	0.00000E+000	T	DC Voltage (V)
FREQINIT	QUANT	3.00000E+005	Initial Freq. (Hz)
FREQFINAL	QUANT	1.00000E+000	Final Freq. (Hz)
PTSPERDEC	QUANT	1.00000E+001	Points/decade
VAC	QUANT	5.00000E+001	AC Voltage (mV rms)
AREA	QUANT	1.00000E+000	Sample Area (cm^2)
SPEED	SELECTOR	2	Optimize for:
ZGUESS	QUANT	1.00000E+003	Estimated Z (ohms)
EOC	QUANT	0	Open Circuit (V)
SEQUENCER	TOGGLE	TRUE	Run as Sequence
PSTATMODEL	IQUANT	5	Pstat Model
PSTATSECTION	LABEL	REF3000-16137	Pstat Section
PSTATSERIALNO	LABEL	16137	Pstat Serial Number
CTRLMODE	IQUANT	1	Control Mode
IESTAB	IQUANT	0	I/E Stability
CASPEED	IQUANT	1	Control Amp Speed
CONVENTION	IQUANT	1	Current Convention
ICHRANGE	IQUANT	2	Ich Range
ICHRANGEMODE	TOGGLE	F	Ich Auto Range
ICHOFFSETENABLE	TOGGLE	T	Ich Offset Enable
ICHOFFSET	QUANT	0	Ich Offset (V)
ICHFILTER	IQUANT	3	Ich Filter
VCHRANGE	IQUANT	2	Vch Range
VCHRANGEMODE	TOGGLE	F	Vch Auto Range
VCHOFFSETENABLE	TOGGLE	T	Vch Offset Enable
VCHOFFSET	QUANT	0	Vch Offset (V)
VCHFILTER	IQUANT	3	Vch Filter
ACHRANGE	IQUANT	2	Ach Range
ACHOFFSETENABLE	TOGGLE	F	Ach Offset Enable
ACHOFFSET	QUANT	0	Ach Offset (V)
ACHFILTER	IQUANT	3	Ach Filter
IERANGELOWERLIMIT	IQUANT	2	I/E Range Lower Limit
IERANGEMODE	TOGGLE	F	I/E AutoRange
IERANGE	IQUANT	11	I/E Range
POSFEEDENABLE	TOGGLE	F	Positive Feedback IR Comp
POSFEEDRESISTANCE	QUANT	0	Positive Feedback Resistance (ohm)
ACHSELECT	IQUANT	0	Ach Select
CABLEID	IQUANT	13	Cable ID
DCCALDATE	LABEL	7/31/2020	DC Calibration Date
ACCALDATE	LABEL	7/31/2020	AC Calibration Date
THERMOSELECT	IQUANT	1	Thermo Select
FRAMEWORKVERSION	QUANT	6.33	Framework Version
INSTRUMENTVERSION	LABEL	3.50	Instrument Version
COMPLIANCEVOLTAGE	IQUANT	0	Compliance Voltage
ZCURVE	TABLE
	Pt	Time	Freq	Zreal	Zimag	Zsig	Zmod	Zphz	Idc	Vdc	IERange
	#	s	Hz	ohm	ohm	V	ohm	°	A	V	#
	0	9	300046.9	222.7314	-13.19159	1	223.1217	-3.389464	-5.582374E-005	0.0006766	9
	1	12	238359.4	223.1112	-13.76913	1	223.5357	-3.531486	2.312933E-005	-0.0018992	9
	2	16	189328.1	224.2465	-14.55492	1	224.7183	-3.713624	-5.873135E-005	0.0007181	9
	3	19	150421.9	225.3759	-15.80646	1	225.9295	-4.0118	2.173725E-005	-0.0016891	9
	4	21	119484.4	226.6816	-17.59008	1	227.363	-4.437157	2.843677E-005	0.0007335	9
	5	24	94921.88	227.9828	-19.13793	1	228.7847	-4.798422	-2.092959E-005	0.0009685	9
	6	27	75421.88	229.595	-21.77138	1	230.625	-5.416883	-2.137049E-005	0.00098	9
	7	29	59859.37	231.7445	-24.85221	1	233.0733	-6.120988	1.283614E-005	0.0002732	9
	8	32	47578.12	233.8667	-28.54801	1	235.6027	-6.959641	1.655006E-005	-0.0008562	9
	9	34	37828.12	236.3853	-32.74359	1	238.6423	-7.886307	2.208762E-005	-0.0008351	9
	10	37	30046.88	239.23	-37.74871	1	242.1899	-8.966912	2.8209E-005	-0.0007005	9
	11	40	23859.38	242.3716	-43.65413	1	246.2715	-10.21021	-2.315585E-005	0.0007098	9
	12	44	18984.38	245.709	-50.51299	1	250.8475	-11.61704	-2.384498E-005	0.0006663	9
	13	46	15046.87	249.3305	-58.69174	1	256.1454	-13.24612	-1.640931E-005	0.0009567	9
	14	48	11953.13	252.6149	-69.05113	1	261.8824	-15.28808	-8.809313E-006	0.0009334	9
	15	51	9515.62	255.8556	-81.33597	1	268.4728	-17.63535	-1.860813E-005	0.000392	9
	16	53	7546.875	259.113	-97.5865	1	276.8803	-20.63725	-1.578801E-005	0.0001493	9
	17	56	5928.309	262.4178	-118.8893	1	288.0933	-24.37307	-8.006459E-006	0.0008615	9
	18	60	4733.456	265.2477	-143.5774	1	301.6136	-28.42649	1.184328E-005	0.0002788	9
	19	62	3796.875	268.8625	-173.776	1	320.133	-32.87613	-2.179587E-005	0.000516	9
	20	65	2987.132	273.1926	-216.7394	1	348.7265	-38.42699	-1.631588E-005	0.0010021	9
	21	67	2390.625	278.6431	-264.5747	1	384.2418	-43.51648	2.584818E-005	-0.0008116	9
	22	70	1884.191	287.0503	-331.0619	1	438.1779	-49.07277	1.639392E-006	0.000618	9
	23	72	1516.544	293.9864	-403.0682	1	498.8907	-53.89406	1.14635E-005	-0.0023419	8
	24	75	1193.986	305.8586	-505.8896	1	591.1631	-58.84303	5.210971E-006	0.0012953	8
	25	77	946.5144	322.7445	-626.9469	1	705.1428	-62.76115	1.244425E-006	0.0028104	8
	26	79	751.7689	343.5946	-779.0687	1	851.4724	-66.20096	-8.39324E-006	0.0046326	8
	27	82	597.4265	375.0334	-961.914	1	1032.438	-68.70007	1.09423E-005	-0.0016275	8
	28	84	477.4305	411.9435	-1182.991	1	1252.663	-70.80075	6.264931E-009	0.000647	8
	29	87	376.6741	465.6756	-1470.359	1	1542.339	-72.42655	1.85034E-008	0.0006391	8
	30	89	298.2954	536.8094	-1819.324	1	1896.867	-73.56078	1.646345E-008	0.0006413	8
	31	91	237.7717	629.6018	-2234.666	1	2321.666	-74.26518	1.601325E-008	0.0006423	8
	32	94	189.0121	755.7078	-2746.87	1	2848.927	-74.61757	-4.471914E-009	0.0006401	8
	33	96	150.2404	926.3503	-3370.336	1	3495.324	-74.63152	2.500656E-008	0.0006351	8
	34	98	119.1737	1163.071	-4140.688	1	4300.934	-74.31058	-2.416492E-008	0.0006174	7
	35	101	95.0169	1475.191	-5038.22	1	5249.748	-73.67996	-2.628435E-008	0.0006087	7
	36	103	75.60484	1899.373	-6115.764	1	6403.919	-72.74677	-2.632661E-008	0.0006141	7
	37	106	54.50582	2781.829	-7996.835	1	8466.873	-70.81894	-2.470811E-008	0.0005956	7
	38	108	45.95588	3410.901	-9152.289	1	9767.22	-69.56044	-2.425141E-008	0.0006308	7
	39	111	37.20238	4408.811	-10744.04	1	11613.44	-67.68923	-2.412982E-008	0.0006434	7
	40	113	30.04808	5709.114	-12510.65	1	13751.74	-65.47087	-2.166685E-008	0.0006101	7
	41	116	23.91582	7463.25	-14534.91	1	16339.03	-62.82084	-2.170121E-008	0.0006085	7
	42	118	18.60119	9953.61	-16901.26	1	19614.46	-59.505	-3.035466E-008	0.0006273	7
	43	120	15.02404	12524.28	-18820.38	1	22606.73	-56.35769	-1.735158E-008	0.0006029	7
	44	123	12.01923	15679.84	-20665.68	1	25940.85	-52.81102	-1.86433E-008	0.0006373	7
	45	125	9.450605	19497.87	-22331.25	1	29645.43	-48.87513	-2.838423E-008	0.0006191	7
	46	128	7.512019	23431.63	-23487.05	1	33176.54	-45.06768	-2.653422E-008	0.0006014	7
	47	130	5.978954	27517.19	-23919.39	1	36460.02	-40.99889	-2.162995E-008	0.0006172	7
	48	133	4.734848	31572.08	-23970.38	1	39640.58	-37.20676	-2.894686E-008	0.0006355	6
	49	137	3.75601	35075.21	-22784.07	1	41825.64	-33.00684	-2.11767E-008	0.0007281	6
	50	142	3.004808	37976.07	-21500.76	1	43640.17	-29.51707	-2.78406E-008	0.0006844	6
	51	148	2.372217	40651.19	-20008.46	1	45308.47	-26.20634	-2.861467E-008	0.0006906	6
	52	156	1.878005	42364.53	-17899.02	1	45990.52	-22.90406	-3.223267E-008	0.0006458	6
	53	165	1.512097	43949.59	-16635.59	1	46992.65	-20.73241	-3.719789E-008	0.0007561	6
	54	176	1.201923	45287.6	-15174.63	1	47762.29	-18.52458	-4.044485E-008	0.0006442	6
	55	189	0.956633	46787.49	-14055.39	1	48853.08	-16.72075	-6.840331E-008	2.735007E-005	6
