EXPLAIN
TAG	EISPOT
TITLE	LABEL	Potentiostatic EIS	Test Identifier
DATE	LABEL	8/25/2020	Date
TIME	LABEL	13:40:42	Time
NOTES	NOTES	1	Notes...
	
PSTAT	PSTAT	REF3000-16137	Potentiostat
VDC	POTEN	0.00000E+000	T	DC Voltage (V)
FREQINIT	QUANT	3.00000E+005	Initial Freq. (Hz)
FREQFINAL	QUANT	1.00000E+000	Final Freq. (Hz)
PTSPERDEC	QUANT	1.00000E+001	Points/decade
VAC	QUANT	5.00000E+001	AC Voltage (mV rms)
AREA	QUANT	1.00000E+000	Sample Area (cm^2)
SPEED	SELECTOR	2	Optimize for:
ZGUESS	QUANT	1.00000E+003	Estimated Z (ohms)
EOC	QUANT	0	Open Circuit (V)
SEQUENCER	TOGGLE	TRUE	Run as Sequence
PSTATMODEL	IQUANT	5	Pstat Model
PSTATSECTION	LABEL	REF3000-16137	Pstat Section
PSTATSERIALNO	LABEL	16137	Pstat Serial Number
CTRLMODE	IQUANT	1	Control Mode
IESTAB	IQUANT	0	I/E Stability
CASPEED	IQUANT	1	Control Amp Speed
CONVENTION	IQUANT	1	Current Convention
ICHRANGE	IQUANT	2	Ich Range
ICHRANGEMODE	TOGGLE	F	Ich Auto Range
ICHOFFSETENABLE	TOGGLE	T	Ich Offset Enable
ICHOFFSET	QUANT	0	Ich Offset (V)
ICHFILTER	IQUANT	3	Ich Filter
VCHRANGE	IQUANT	2	Vch Range
VCHRANGEMODE	TOGGLE	F	Vch Auto Range
VCHOFFSETENABLE	TOGGLE	T	Vch Offset Enable
VCHOFFSET	QUANT	0	Vch Offset (V)
VCHFILTER	IQUANT	3	Vch Filter
ACHRANGE	IQUANT	2	Ach Range
ACHOFFSETENABLE	TOGGLE	F	Ach Offset Enable
ACHOFFSET	QUANT	0	Ach Offset (V)
ACHFILTER	IQUANT	3	Ach Filter
IERANGELOWERLIMIT	IQUANT	2	I/E Range Lower Limit
IERANGEMODE	TOGGLE	F	I/E AutoRange
IERANGE	IQUANT	11	I/E Range
POSFEEDENABLE	TOGGLE	F	Positive Feedback IR Comp
POSFEEDRESISTANCE	QUANT	0	Positive Feedback Resistance (ohm)
ACHSELECT	IQUANT	0	Ach Select
CABLEID	IQUANT	13	Cable ID
DCCALDATE	LABEL	7/31/2020	DC Calibration Date
ACCALDATE	LABEL	7/31/2020	AC Calibration Date
THERMOSELECT	IQUANT	1	Thermo Select
FRAMEWORKVERSION	QUANT	6.33	Framework Version
INSTRUMENTVERSION	LABEL	3.50	Instrument Version
COMPLIANCEVOLTAGE	IQUANT	0	Compliance Voltage
ZCURVE	TABLE
	Pt	Time	Freq	Zreal	Zimag	Zsig	Zmod	Zphz	Idc	Vdc	IERange
	#	s	Hz	ohm	ohm	V	ohm	°	A	V	#
	0	27	300046.9	158.4391	-4787.214	1	4789.835	-88.10442	-1.779114E-005	0.0016608	9
	1	43	238359.4	317.8351	-5918.852	1	5927.379	-86.92624	2.134363E-005	-0.0005473	9
	2	57	189328.1	231.3042	-7450.969	1	7454.558	-88.22191	1.956625E-005	-0.0021735	9
	3	65	150421.9	790.5168	-9095.703	1	9129.991	-85.03284	5.068589E-005	0.0001977	9
	4	72	119484.4	571.1877	-11611.1	1	11625.14	-87.1837	7.82447E-005	-0.0014695	9
	5	83	94921.88	2019.643	-14245.06	1	14387.52	-81.93047	-2.526528E-005	0.0111565	8
	6	92	75421.88	2290.752	-17792.23	1	17939.09	-82.66352	2.738064E-005	-0.0074685	8
	7	100	59859.37	3444.397	-21913.15	1	22182.2	-81.06711	2.635668E-005	-0.0052088	8
	8	109	47578.12	8470.33	-28264.96	1	29506.86	-73.31779	-3.387264E-006	-0.0054078	7
	9	116	37828.12	11273.97	-34164.82	1	35976.9	-71.73774	-6.782573E-006	0.011962	7
	10	124	30046.88	14568.36	-41968.24	1	44424.88	-70.85667	5.388589E-006	-0.0270205	7
	11	131	23859.38	19780.2	-54177.47	1	57675.43	-69.94286	2.212399E-005	-0.0095525	8
	12	138	18984.38	23513.03	-58643.77	1	63181.91	-68.15184	-1.664309E-005	0.0006202	8
	13	145	15046.87	37554.55	-70662.95	1	80022.48	-62.01113	-7.289909E-006	0.0239823	7
	14	151	11953.13	49842.55	-82229.52	1	96156	-58.7783	-6.656081E-006	0.0262313	7
	15	156	9515.62	61764.61	-90027.8	1	109178.2	-55.54748	-2.518982E-005	0.0112059	8
	16	164	7546.875	84068.45	-92100.4	1	124699.6	-47.61044	2.672062E-005	-0.0073272	8
	17	171	5928.309	107660.8	-79060.51	1	133571.7	-36.29163	-1.611017E-005	0.0006295	8
	18	179	4733.456	129268.6	-99453.8	1	163099.5	-37.57317	6.901532E-006	-0.0272817	7
	19	185	3796.875	157733.3	-101116.7	1	187361.6	-32.66235	-3.414918E-006	-0.0052734	7
	20	192	2987.132	168482.6	-90632.48	1	191312.9	-28.27731	-7.327305E-006	0.0237382	7
	21	197	2390.625	175676.1	-68374.16	1	188513	-21.26627	-7.626296E-006	0.0195564	7
	22	204	1884.191	219931	-76128.06	1	232734	-19.09305	-1.122786E-006	-0.013424	7
	23	210	1516.544	219957.5	-58373.54	1	227571.5	-14.86287	2.218846E-007	0.0105226	6
	24	214	1193.986	226311.5	-50016.3	1	231772.6	-12.46241	1.824646E-007	-0.0213958	6
	25	219	946.5144	233870.5	-42439.48	1	237689.9	-10.2853	7.352864E-007	-0.0160092	6
	26	222	751.7689	105785.6	-129179.3	1	166966.7	-50.68579	-2.058039E-005	0.0028015	8
	27	228	597.4265	265200.1	-18682.03	1	265857.3	-4.029546	-3.487331E-006	-0.0051358	7
	28	232	477.4305	253302.3	-37569.05	1	256073.2	-8.436439	-9.714682E-008	0.0006688	7
	29	237	376.6741	258858.5	-31913.51	1	260818.3	-7.028277	-9.458582E-009	0.0006059	6
	30	240	298.2954	263704.1	-30830.65	1	265500.3	-6.668394	-1.012457E-008	0.0007042	6
	31	243	237.7717	267252.3	-30099.58	1	268942	-6.42592	-9.919832E-009	0.0006969	6
	32	245	189.0121	271694.8	-29769.55	1	273320.8	-6.252946	-9.51972E-009	0.0006451	6
	33	247	150.2404	276396.2	-31078.39	1	278138	-6.415474	-9.544086E-009	0.0006119	6
	34	250	119.1737	277866.6	-34012.07	1	279940.5	-6.978535	-1.015445E-008	0.000706	6
	35	253	95.0169	285709.6	-33837.32	1	287706.3	-6.754225	-9.309853E-009	0.0006413	6
	36	255	75.60484	290524.3	-36208.21	1	292771.9	-7.104176	-9.18293E-009	0.0006126	6
	37	258	54.50582	296515.5	-40065.96	1	299210.2	-7.69535	-9.347354E-009	0.0006012	6
	38	260	45.95588	301925.3	-44729.64	1	305220.6	-8.426963	-1.044281E-008	0.0006394	6
	39	263	37.20238	307033.8	-49837.93	1	311052.3	-9.219875	-1.085474E-008	0.0006899	6
	40	265	30.04808	312705.4	-55784.44	1	317642.3	-10.11476	-9.078147E-009	0.0006067	6
	41	268	23.91582	319161.2	-63958.36	1	325506.6	-11.3317	-1.005626E-008	0.0006923	6
	42	271	18.60119	326623.9	-75863.6	1	335318.4	-13.07601	-1.144582E-008	0.0007097	6
	43	273	15.02404	332610.9	-86443.9	1	343660.5	-14.56858	-1.047103E-008	0.0006956	6
	44	275	12.01923	340170.3	-100953.5	1	354834.4	-16.52948	-8.586828E-009	0.0006237	6
	45	278	9.450605	348633.6	-121147	1	369082.6	-19.16187	-1.008838E-008	0.0006861	6
	46	280	7.512019	359143	-143939.6	1	386913.8	-21.84023	-1.177496E-009	0.0006984	5
	47	284	5.978954	369953.9	-172879.2	1	408354.2	-25.04665	-1.269672E-009	0.0005931	5
	48	288	4.734848	383051.5	-209309.6	1	436507.7	-28.65337	-6.491357E-010	0.0006634	5
	49	291	3.75601	397946.3	-253113.7	1	471622.6	-32.45839	-1.190542E-009	0.000579	5
	50	297	3.004808	416235.9	-304989.7	1	516014.6	-36.23146	-1.008004E-009	0.0005858	5
	51	303	2.372217	437812.2	-371645.2	1	574281.9	-40.3269	-1.157345E-009	0.0006802	5
	52	307	1.878005	462326.8	-453962.7	1	647941.5	-44.47701	-1.284659E-009	0.0006235	5
	53	312	1.512097	488488.8	-545121.1	1	731968.8	-48.13615	-1.115473E-009	0.0006256	5
	54	317	1.201923	523373.3	-664354.9	1	845746.4	-51.76925	-1.169093E-009	0.0006088	5
	55	324	0.956633	564203.3	-808107.4	1	985577	-55.07808	-1.224662E-009	3.799381E-005	5
