EXPLAIN
TAG	EISPOT
TITLE	LABEL	Potentiostatic EIS	Test Identifier
DATE	LABEL	8/25/2020	Date
TIME	LABEL	13:01:03	Time
NOTES	NOTES	1	Notes...
	
PSTAT	PSTAT	REF3000-16137	Potentiostat
VDC	POTEN	0.00000E+000	T	DC Voltage (V)
FREQINIT	QUANT	3.00000E+005	Initial Freq. (Hz)
FREQFINAL	QUANT	1.00000E+000	Final Freq. (Hz)
PTSPERDEC	QUANT	1.00000E+001	Points/decade
VAC	QUANT	5.00000E+001	AC Voltage (mV rms)
AREA	QUANT	1.00000E+000	Sample Area (cm^2)
SPEED	SELECTOR	2	Optimize for:
ZGUESS	QUANT	1.00000E+003	Estimated Z (ohms)
EOC	QUANT	0	Open Circuit (V)
SEQUENCER	TOGGLE	TRUE	Run as Sequence
PSTATMODEL	IQUANT	5	Pstat Model
PSTATSECTION	LABEL	REF3000-16137	Pstat Section
PSTATSERIALNO	LABEL	16137	Pstat Serial Number
CTRLMODE	IQUANT	1	Control Mode
IESTAB	IQUANT	0	I/E Stability
CASPEED	IQUANT	1	Control Amp Speed
CONVENTION	IQUANT	1	Current Convention
ICHRANGE	IQUANT	2	Ich Range
ICHRANGEMODE	TOGGLE	F	Ich Auto Range
ICHOFFSETENABLE	TOGGLE	T	Ich Offset Enable
ICHOFFSET	QUANT	0	Ich Offset (V)
ICHFILTER	IQUANT	3	Ich Filter
VCHRANGE	IQUANT	2	Vch Range
VCHRANGEMODE	TOGGLE	F	Vch Auto Range
VCHOFFSETENABLE	TOGGLE	T	Vch Offset Enable
VCHOFFSET	QUANT	0	Vch Offset (V)
VCHFILTER	IQUANT	3	Vch Filter
ACHRANGE	IQUANT	2	Ach Range
ACHOFFSETENABLE	TOGGLE	F	Ach Offset Enable
ACHOFFSET	QUANT	0	Ach Offset (V)
ACHFILTER	IQUANT	3	Ach Filter
IERANGELOWERLIMIT	IQUANT	2	I/E Range Lower Limit
IERANGEMODE	TOGGLE	F	I/E AutoRange
IERANGE	IQUANT	11	I/E Range
POSFEEDENABLE	TOGGLE	F	Positive Feedback IR Comp
POSFEEDRESISTANCE	QUANT	0	Positive Feedback Resistance (ohm)
ACHSELECT	IQUANT	0	Ach Select
CABLEID	IQUANT	13	Cable ID
DCCALDATE	LABEL	7/31/2020	DC Calibration Date
ACCALDATE	LABEL	7/31/2020	AC Calibration Date
THERMOSELECT	IQUANT	1	Thermo Select
FRAMEWORKVERSION	QUANT	6.33	Framework Version
INSTRUMENTVERSION	LABEL	3.50	Instrument Version
COMPLIANCEVOLTAGE	IQUANT	0	Compliance Voltage
ZCURVE	TABLE
	Pt	Time	Freq	Zreal	Zimag	Zsig	Zmod	Zphz	Idc	Vdc	IERange
	#	s	Hz	ohm	ohm	V	ohm	°	A	V	#
	0	14	300046.9	2225.154	-1615.421	1	2749.708	-35.97896	3.448685E-007	0.0014941	9
	1	35	238359.4	2514.397	-1532.858	1	2944.8	-31.36783	-6.36997E-005	0.0005676	9
	2	50	189328.1	2760.055	-1434.587	1	3110.618	-27.46394	-8.83705E-005	0.0041234	9
	3	57	150421.9	3018.487	-1213.756	1	3253.378	-21.90542	-9.201247E-005	0.0022531	9
	4	66	119484.4	3242.914	-1022.614	1	3400.328	-17.50204	-7.792911E-005	0.0209222	8
	5	74	94921.88	3364.509	-857.4506	1	3472.052	-14.29757	2.522495E-005	-0.0070349	8
	6	80	75421.88	3483.362	-755.0293	1	3564.25	-12.22985	-1.549866E-005	0.0010263	8
	7	87	59859.37	3574.26	-642.061	1	3631.471	-10.1837	-2.252206E-005	0.0051886	8
	8	93	47578.12	3651.69	-590.98	1	3699.202	-9.192895	-2.44371E-005	0.0090582	8
	9	101	37828.12	3722.746	-517.5417	1	3758.548	-7.914618	8.835338E-006	0.0034986	8
	10	108	30046.88	3807.753	-473.5674	1	3837.089	-7.08943	-1.772139E-005	0.0104246	8
	11	115	23859.38	3876.757	-477.814	1	3906.091	-7.026324	-2.476326E-005	0.007422	8
	12	121	18984.38	3932.926	-427.7239	1	3956.116	-6.206789	-1.194019E-005	0.0010686	9
	13	126	15046.87	3975.373	-391.3972	1	3994.594	-5.622961	1.468358E-005	-0.0085665	8
	14	132	11953.13	4013.643	-398.2749	1	4033.355	-5.666925	-9.730369E-006	-0.0016316	8
	15	137	9515.62	4090.073	-393.5618	1	4108.964	-5.496288	2.17858E-005	-0.0027614	8
	16	142	7546.875	4136.069	-404.1567	1	4155.769	-5.580949	-2.281151E-005	0.0052508	8
	17	148	5928.309	4202.633	-419.7609	1	4223.544	-5.703812	-1.280395E-006	0.0070475	8
	18	153	4733.456	4292.56	-407.1929	1	4311.83	-5.418871	6.21257E-006	-0.0130852	7
	19	156	3796.875	4338.78	-502.111	1	4367.737	-6.601264	-9.7413E-006	-0.0016632	8
	20	162	2987.132	4409.66	-516.5236	1	4439.808	-6.680872	-1.060267E-005	0.0094835	8
	21	167	2390.625	4516.197	-599.4783	1	4555.811	-7.561218	2.045161E-005	-0.0090644	8
	22	172	1884.191	4558.024	-689.6735	1	4609.906	-8.604143	-2.265818E-005	0.0103605	8
	23	178	1516.544	4571.457	-821.4445	1	4644.673	-10.18676	-9.639164E-006	-0.0016696	8
	24	183	1193.986	4764.885	-939.4031	1	4856.605	-11.1529	-1.800461E-005	0.0106123	8
	25	189	946.5144	4778.013	-1087.793	1	4900.275	-12.82571	-1.47372E-006	0.0071314	8
	26	193	751.7689	4935.535	-1285.56	1	5100.213	-14.59945	-6.237204E-006	0.0185096	7
	27	196	597.4265	4977.164	-1495.358	1	5196.947	-16.72257	-5.93885E-006	0.0215222	7
	28	198	477.4305	5127.56	-1782.284	1	5428.481	-19.16689	-8.718078E-008	0.0006708	7
	29	200	376.6741	5250.68	-2139.556	1	5669.862	-22.16999	-8.752887E-008	0.0006741	7
	30	203	298.2954	5390.501	-2571.73	1	5972.545	-25.50513	-8.637264E-008	0.0006315	7
	31	205	237.7717	5546.653	-3082.834	1	6345.804	-29.06534	-8.35734E-008	0.0006592	7
	32	208	189.0121	5731.204	-3713.647	1	6829.193	-32.94202	-8.034989E-008	0.0005857	7
	33	210	150.2404	5948.398	-4482.626	1	7448.314	-37.00114	-8.053903E-008	0.0005812	7
	34	212	119.1737	6208.453	-5430.197	1	8248.146	-41.17443	-7.616318E-008	0.0005742	7
	35	215	95.0169	6503.66	-6555.55	1	9234.329	-45.22766	-7.542231E-008	0.0006062	7
	36	217	75.60484	6863.889	-7941.727	1	10496.86	-49.16375	-7.909013E-008	0.0005709	7
	37	220	54.50582	7499.536	-10465.87	1	12875.46	-54.37572	-8.472094E-008	0.0006484	7
	38	222	45.95588	7917.438	-12106.82	1	14465.86	-56.81672	-7.646497E-008	0.0006243	7
	39	225	37.20238	8526.348	-14495.6	1	16817.29	-59.53585	-8.211927E-008	0.0006654	7
	40	227	30.04808	9277.021	-17405.73	1	19723.66	-61.94299	-8.114302E-008	0.0005962	7
	41	229	23.91582	10276.41	-21160.94	1	23524.24	-64.09736	-7.768142E-008	0.0005712	7
	42	232	18.60119	11682.05	-26250.05	1	28732.13	-66.00952	-8.097766E-008	0.0006325	7
	43	234	15.02404	13243.12	-31513.3	1	34182.87	-67.20595	-7.46421E-008	0.0005864	7
	44	236	12.01923	15339.88	-38092.62	1	41065.31	-68.06537	-7.613554E-008	0.0006029	7
	45	239	9.450605	18248.88	-46632.41	1	50075.97	-68.62787	-6.693946E-009	0.000625	6
	46	241	7.512019	21846.7	-56366.54	1	60452.18	-68.81452	-7.210067E-009	0.0007146	6
	47	244	5.978954	26469.22	-67854.99	1	72834.88	-68.68999	-6.82205E-009	0.0006256	6
	48	247	4.734848	32578.7	-81669.73	1	87927.9	-68.25256	-8.023557E-009	0.0007266	6
	49	250	3.75601	40261.07	-97750.6	1	105717.2	-67.61444	-9.795204E-009	0.0006915	6
	50	254	3.004808	49420.13	-115580.8	1	125703.1	-66.84937	-1.041108E-008	0.0007276	6
	51	257	2.372217	61806.13	-137369.8	1	150633.5	-65.77583	-9.239102E-009	0.0007399	6
	52	262	1.878005	76427.34	-162152.2	1	179261	-64.76405	-1.007278E-008	0.0006351	6
	53	266	1.512097	92689.22	-187736.7	1	209371.4	-63.72357	-9.738672E-009	0.0006878	6
	54	272	1.201923	113713.2	-219087.9	1	246840.4	-62.56933	-9.956493E-009	0.0006721	6
	55	278	0.956633	138058.4	-253978.8	1	289076.7	-61.47229	-1.027874E-008	2.119975E-005	6
