EXPLAIN
TAG	EISPOT
TITLE	LABEL	Potentiostatic EIS	Test Identifier
DATE	LABEL	8/25/2020	Date
TIME	LABEL	14:53:19	Time
NOTES	NOTES	1	Notes...
	
PSTAT	PSTAT	REF3000-16137	Potentiostat
VDC	POTEN	0.00000E+000	T	DC Voltage (V)
FREQINIT	QUANT	3.00000E+005	Initial Freq. (Hz)
FREQFINAL	QUANT	1.00000E+000	Final Freq. (Hz)
PTSPERDEC	QUANT	1.00000E+001	Points/decade
VAC	QUANT	5.00000E+001	AC Voltage (mV rms)
AREA	QUANT	1.00000E+000	Sample Area (cm^2)
SPEED	SELECTOR	2	Optimize for:
ZGUESS	QUANT	1.00000E+003	Estimated Z (ohms)
EOC	QUANT	0	Open Circuit (V)
SEQUENCER	TOGGLE	TRUE	Run as Sequence
PSTATMODEL	IQUANT	5	Pstat Model
PSTATSECTION	LABEL	REF3000-16137	Pstat Section
PSTATSERIALNO	LABEL	16137	Pstat Serial Number
CTRLMODE	IQUANT	1	Control Mode
IESTAB	IQUANT	0	I/E Stability
CASPEED	IQUANT	1	Control Amp Speed
CONVENTION	IQUANT	1	Current Convention
ICHRANGE	IQUANT	2	Ich Range
ICHRANGEMODE	TOGGLE	F	Ich Auto Range
ICHOFFSETENABLE	TOGGLE	T	Ich Offset Enable
ICHOFFSET	QUANT	0	Ich Offset (V)
ICHFILTER	IQUANT	3	Ich Filter
VCHRANGE	IQUANT	2	Vch Range
VCHRANGEMODE	TOGGLE	F	Vch Auto Range
VCHOFFSETENABLE	TOGGLE	T	Vch Offset Enable
VCHOFFSET	QUANT	0	Vch Offset (V)
VCHFILTER	IQUANT	3	Vch Filter
ACHRANGE	IQUANT	2	Ach Range
ACHOFFSETENABLE	TOGGLE	F	Ach Offset Enable
ACHOFFSET	QUANT	0	Ach Offset (V)
ACHFILTER	IQUANT	3	Ach Filter
IERANGELOWERLIMIT	IQUANT	2	I/E Range Lower Limit
IERANGEMODE	TOGGLE	F	I/E AutoRange
IERANGE	IQUANT	11	I/E Range
POSFEEDENABLE	TOGGLE	F	Positive Feedback IR Comp
POSFEEDRESISTANCE	QUANT	0	Positive Feedback Resistance (ohm)
ACHSELECT	IQUANT	0	Ach Select
CABLEID	IQUANT	13	Cable ID
DCCALDATE	LABEL	7/31/2020	DC Calibration Date
ACCALDATE	LABEL	7/31/2020	AC Calibration Date
THERMOSELECT	IQUANT	1	Thermo Select
FRAMEWORKVERSION	QUANT	6.33	Framework Version
INSTRUMENTVERSION	LABEL	3.50	Instrument Version
COMPLIANCEVOLTAGE	IQUANT	0	Compliance Voltage
ZCURVE	TABLE
	Pt	Time	Freq	Zreal	Zimag	Zsig	Zmod	Zphz	Idc	Vdc	IERange
	#	s	Hz	ohm	ohm	V	ohm	°	A	V	#
	0	14	300046.9	-118.8883	-4863.485	1	4864.938	-91.40032	-0.0001171	0.0037745	9
	1	29	238359.4	264.0669	-6136.781	1	6142.459	-87.53607	2.577955E-005	-0.0020649	9
	2	46	189328.1	177.0485	-7409.335	1	7411.451	-88.63116	-3.004599E-005	-0.0010777	9
	3	53	150421.9	178.6876	-9829.12	1	9830.74	-88.95851	-9.105722E-005	0.0022332	9
	4	66	119484.4	629.7375	-11440.47	1	11457.79	-86.84935	-9.440401E-005	0.0338134	8
	5	75	94921.88	406.1117	-14519.29	1	14524.96	-88.39783	1.733363E-005	0.0004065	8
	6	83	75421.88	631.571	-18133	1	18144	-88.0052	-2.420689E-005	0.0052148	8
	7	92	59859.37	543.9028	-22521.38	1	22527.94	-88.61655	8.082104E-006	-0.0077722	8
	8	100	47578.12	4187.627	-30134.36	1	30423.93	-82.08855	-3.700346E-006	0.0255323	7
	9	107	37828.12	1471.384	-35117.43	1	35148.24	-87.60077	-1.969792E-005	0.0113694	8
	10	116	30046.88	1708.114	-43721.86	1	43755.21	-87.76272	1.747493E-005	0.0002836	8
	11	125	23859.38	5375.815	-58037.08	1	58285.52	-84.70795	5.146859E-006	-0.0013826	7
	12	131	18984.38	4809.499	-71978.82	1	72139.32	-86.17728	-1.311797E-006	-0.0130931	7
	13	136	15046.87	191.2234	-91917.16	1	91917.36	-89.88081	-2.519693E-005	0.0112612	8
	14	144	11953.13	1347.296	-108823.9	1	108832.2	-89.29069	-2.07984E-005	0.0028847	8
	15	151	9515.62	-3955.205	-137650.1	1	137706.9	-91.64587	2.636241E-005	-0.0089951	8
	16	159	7546.875	451.3413	-188872.8	1	188873.4	-89.86308	2.323471E-005	-0.0027944	8
	17	168	5928.309	26415.8	-207139.4	1	208816.9	-82.73248	-6.620825E-006	0.0262099	7
	18	174	4733.456	30771.41	-260025.9	1	261840.3	-83.25101	-6.617653E-006	0.0261795	7
	19	181	3796.875	79483.57	-306042.7	1	316195.8	-75.44113	-5.402163E-006	0.0038226	7
	20	187	2987.132	119061	-391276.8	1	408990.3	-73.07561	-6.613174E-006	0.0262475	7
	21	194	2390.625	280078.5	-504639.8	1	577152.8	-60.96943	4.754917E-007	0.0162391	7
	22	201	1884.191	348506.6	-431012.2	1	554281.8	-51.04179	2.248966E-007	0.0104202	6
	23	206	1516.544	415951.7	-382062.7	1	564790	-42.5683	-5.221515E-008	-0.0152625	6
	24	212	1193.986	465242.7	-300343.1	1	553765.9	-32.84476	7.821357E-007	-0.0233455	6
	25	218	946.5144	749159.2	-733418	1	1048399	-44.39169	-7.353989E-006	0.018917	7
	26	222	751.7689	445204	-245180.9	1	508252.2	-28.84228	7.695308E-006	-0.0188972	7
	27	228	597.4265	432415.5	23935.56	1	433077.5	3.168268	-1.800601E-006	0.0221954	7
	28	233	477.4305	390002.5	-98126.2	1	402157.5	-14.12271	-9.478191E-009	0.0006193	6
	29	236	376.6741	400792.8	-48016.16	1	403658.8	-6.831644	-1.154255E-009	0.0006791	5
	30	239	298.2954	379118.8	-46619.61	1	381974.4	-7.010375	-1.294442E-009	0.0006233	5
	31	241	237.7717	361167.1	-47293.56	1	364250.4	-7.460234	-1.147051E-009	0.0005996	5
	32	244	189.0121	344168.4	-49374.25	1	347691.9	-8.163925	-1.056755E-009	0.0006253	5
	33	246	150.2404	321552.1	-65423.43	1	328140.2	-11.5005	-9.197001E-009	0.0006414	6
	34	249	119.1737	309747	-69477.89	1	317443.5	-12.64249	-1.006082E-008	0.0007019	6
	35	251	95.0169	298819.1	-65261.52	1	305862.6	-12.31984	-9.446494E-009	0.0006882	6
	36	254	75.60484	289134.7	-65832.11	1	296534.5	-12.82682	-1.028481E-008	0.0007053	6
	37	256	54.50582	283654.7	-68907.78	1	291904.5	-13.65427	-9.786044E-009	0.0006875	6
	38	259	45.95588	273052.5	-70891.2	1	282105	-14.55408	-8.899544E-009	0.0006094	6
	39	261	37.20238	266382	-73614.33	1	276366.5	-15.44807	-8.912402E-009	0.0006221	6
	40	263	30.04808	259253.7	-76846.6	1	270403.2	-16.5106	-9.104264E-009	0.0006388	6
	41	266	23.91582	252971.2	-80599.42	1	265500.9	-17.67245	-9.407287E-009	0.0006966	6
	42	269	18.60119	250001	-86283.63	1	264471.8	-19.04125	-1.060812E-008	0.0006934	6
	43	271	15.02404	246365	-91172.09	1	262693.9	-20.30796	-1.034064E-008	0.0006334	6
	44	274	12.01923	242298	-96948.4	1	260973.8	-21.80736	-1.110469E-008	0.0006178	6
	45	276	9.450605	238846.5	-105685.3	1	261183.9	-23.86853	-9.077575E-009	0.0006818	6
	46	279	7.512019	233940.5	-116325.5	1	261265.7	-26.43859	-9.327058E-009	0.0005976	6
	47	282	5.978954	225415	-128547.4	1	259492.5	-29.6948	-9.837708E-009	0.0007041	6
	48	286	4.734848	218312.9	-145250.4	1	262217.9	-33.63707	-1.006861E-008	0.00064	6
	49	289	3.75601	213655.3	-165683.7	1	270369.5	-37.79256	-9.890929E-009	0.0007021	6
	50	295	3.004808	209087.2	-187691.3	1	280972.4	-41.91336	-1.11374E-008	0.0006743	6
	51	301	2.372217	197497.2	-218187.8	1	294297.6	-47.84953	-1.045382E-008	0.000608	6
	52	306	1.878005	224436.3	-255207.3	1	339856.5	-48.67071	-1.010449E-008	0.0006543	6
	53	311	1.512097	214209.1	-288359.8	1	359217.1	-53.39305	-1.0138E-008	0.0005431	6
	54	318	1.201923	212872.4	-337130.8	1	398712.8	-57.73071	-1.028052E-008	0.0006767	6
	55	324	0.956633	228464.1	-388354.5	1	450571.9	-59.53223	-1.69589E-009	-6.325322E-007	5
