EXPLAIN
TAG	EISPOT
TITLE	LABEL	Potentiostatic EIS	Test Identifier
DATE	LABEL	8/25/2020	Date
TIME	LABEL	12:39:41	Time
NOTES	NOTES	1	Notes...
	
PSTAT	PSTAT	REF3000-16137	Potentiostat
VDC	POTEN	0.00000E+000	T	DC Voltage (V)
FREQINIT	QUANT	3.00000E+005	Initial Freq. (Hz)
FREQFINAL	QUANT	1.00000E+000	Final Freq. (Hz)
PTSPERDEC	QUANT	1.00000E+001	Points/decade
VAC	QUANT	5.00000E+001	AC Voltage (mV rms)
AREA	QUANT	1.00000E+000	Sample Area (cm^2)
SPEED	SELECTOR	2	Optimize for:
ZGUESS	QUANT	1.00000E+003	Estimated Z (ohms)
EOC	QUANT	0	Open Circuit (V)
SEQUENCER	TOGGLE	TRUE	Run as Sequence
PSTATMODEL	IQUANT	5	Pstat Model
PSTATSECTION	LABEL	REF3000-16137	Pstat Section
PSTATSERIALNO	LABEL	16137	Pstat Serial Number
CTRLMODE	IQUANT	1	Control Mode
IESTAB	IQUANT	0	I/E Stability
CASPEED	IQUANT	1	Control Amp Speed
CONVENTION	IQUANT	1	Current Convention
ICHRANGE	IQUANT	2	Ich Range
ICHRANGEMODE	TOGGLE	F	Ich Auto Range
ICHOFFSETENABLE	TOGGLE	T	Ich Offset Enable
ICHOFFSET	QUANT	0	Ich Offset (V)
ICHFILTER	IQUANT	3	Ich Filter
VCHRANGE	IQUANT	2	Vch Range
VCHRANGEMODE	TOGGLE	F	Vch Auto Range
VCHOFFSETENABLE	TOGGLE	T	Vch Offset Enable
VCHOFFSET	QUANT	0	Vch Offset (V)
VCHFILTER	IQUANT	3	Vch Filter
ACHRANGE	IQUANT	2	Ach Range
ACHOFFSETENABLE	TOGGLE	F	Ach Offset Enable
ACHOFFSET	QUANT	0	Ach Offset (V)
ACHFILTER	IQUANT	3	Ach Filter
IERANGELOWERLIMIT	IQUANT	2	I/E Range Lower Limit
IERANGEMODE	TOGGLE	F	I/E AutoRange
IERANGE	IQUANT	11	I/E Range
POSFEEDENABLE	TOGGLE	F	Positive Feedback IR Comp
POSFEEDRESISTANCE	QUANT	0	Positive Feedback Resistance (ohm)
ACHSELECT	IQUANT	0	Ach Select
CABLEID	IQUANT	13	Cable ID
DCCALDATE	LABEL	7/31/2020	DC Calibration Date
ACCALDATE	LABEL	7/31/2020	AC Calibration Date
THERMOSELECT	IQUANT	1	Thermo Select
FRAMEWORKVERSION	QUANT	6.33	Framework Version
INSTRUMENTVERSION	LABEL	3.50	Instrument Version
COMPLIANCEVOLTAGE	IQUANT	0	Compliance Voltage
ZCURVE	TABLE
	Pt	Time	Freq	Zreal	Zimag	Zsig	Zmod	Zphz	Idc	Vdc	IERange
	#	s	Hz	ohm	ohm	V	ohm	°	A	V	#
	0	12	300046.9	310.536	-23.96349	1	311.4592	-4.412665	-8.493439E-005	0.0036221	9
	1	17	238359.4	312.639	-28.68873	1	313.9525	-5.242957	-2.704964E-005	0.0001882	10
	2	21	189328.1	314.062	-26.83315	1	315.2063	-4.883435	-9.14316E-005	0.0008072	10
	3	25	150421.9	315.6829	-23.41886	1	316.5504	-4.242702	-3.127617E-005	-0.0006665	9
	4	32	119484.4	319.2744	-24.60145	1	320.2209	-4.406176	-5.929549E-005	0.0008563	9
	5	40	94921.88	321.6403	-26.73649	1	322.7496	-4.751813	2.772099E-005	-0.0005364	9
	6	44	75421.88	323.7671	-29.7002	1	325.1265	-5.241258	1.684085E-005	-0.0008519	9
	7	46	59859.37	326.6629	-33.20104	1	328.3458	-5.803443	-1.683824E-005	0.0010408	9
	8	49	47578.12	329.9607	-37.54545	1	332.09	-6.49163	2.77679E-005	-0.0005333	9
	9	51	37828.12	333.3719	-42.71011	1	336.0966	-7.300708	2.083982E-005	-3.238409E-005	9
	10	54	30046.88	337.6101	-48.65396	1	341.0979	-8.200599	-1.595162E-005	0.0000997	9
	11	56	23859.38	342.2351	-56.17568	1	346.8149	-9.321607	2.881525E-005	-0.0006697	9
	12	59	18984.38	347.1615	-64.62803	1	353.1259	-10.54554	1.144864E-005	0.0002674	9
	13	61	15046.87	352.6099	-74.17495	1	360.3271	-11.87952	-2.386377E-005	0.0008813	9
	14	63	11953.13	358.0167	-86.66888	1	368.3577	-13.6084	-1.579687E-005	0.0001363	9
	15	66	9515.62	363.8576	-101.9041	1	377.8582	-15.64575	2.200011E-005	-0.0007984	9
	16	68	7546.875	370.0108	-119.6023	1	388.8608	-17.9129	-9.438997E-006	-0.000121	9
	17	70	5928.309	373.8891	-142.5026	1	400.125	-20.86364	9.841901E-006	-0.0043171	8
	18	73	4733.456	378.9651	-169.0885	1	414.9765	-24.04571	1.994196E-006	-0.0028668	8
	19	75	3796.875	383.4897	-203.4569	1	434.1187	-27.94778	-1.145215E-005	0.002683	8
	20	77	2987.132	390.2942	-250.8529	1	463.9577	-32.72998	-1.261374E-005	0.0044597	8
	21	80	2390.625	395.5917	-306.4161	1	500.3835	-37.76053	-1.231848E-005	0.0042866	8
	22	82	1884.191	406.812	-380.2363	1	556.8444	-43.06607	1.120692E-006	0.0033766	8
	23	84	1516.544	410.9651	-464.8601	1	620.4734	-48.52133	1.357955E-005	-0.0028101	8
	24	87	1193.986	425.1393	-582.8181	1	721.4016	-53.89095	-6.711387E-006	0.000149	8
	25	89	946.5144	439.9931	-720.7703	1	844.4547	-58.59809	-1.251905E-005	0.004482	8
	26	92	751.7689	459.1668	-896.256	1	1007.03	-62.87318	9.742002E-006	-0.0042712	8
	27	94	597.4265	483.9806	-1115.499	1	1215.967	-66.54547	1.342829E-005	-0.0037149	8
	28	97	477.4305	517.1496	-1375.895	1	1469.874	-69.40056	-8.449182E-008	0.0006547	8
	29	99	376.6741	563.5318	-1717.259	1	1807.359	-71.83235	-6.211532E-008	0.0006478	8
	30	102	298.2954	623.8187	-2133.996	1	2223.306	-73.70509	-7.776585E-008	0.0006472	8
	31	104	237.7717	700.7432	-2633.392	1	2725.031	-75.09895	-7.383994E-008	0.0006495	8
	32	106	189.0121	803.1462	-3256.19	1	3353.777	-76.14443	-3.887967E-008	0.0006443	8
	33	109	150.2404	937.9758	-4021.911	1	4129.839	-76.87233	-4.153504E-008	0.0006322	8
	34	111	119.1737	1123.15	-4983.646	1	5108.64	-77.2996	-1.894905E-008	0.0006051	7
	35	114	95.0169	1360.616	-6125.341	1	6274.638	-77.47628	-2.290538E-008	0.0006182	7
	36	116	75.60484	1681.844	-7533.745	1	7719.191	-77.41556	-2.149982E-008	0.0006265	7
	37	119	54.50582	2348.616	-10100.87	1	10370.32	-76.91039	-2.040809E-008	0.0006049	7
	38	121	45.95588	2826.658	-11741.23	1	12076.69	-76.46384	-2.112854E-008	0.000626	7
	39	124	37.20238	3593.294	-14116.86	1	14567	-75.71925	-2.347355E-008	0.0006288	7
	40	126	30.04808	4619.976	-16957.88	1	17575.95	-74.76029	-2.079051E-008	0.000599	7
	41	128	23.91582	6082.085	-20541.98	1	21423.46	-73.507	-2.515292E-008	0.0006281	7
	42	131	18.60119	8220.87	-25168.21	1	26476.81	-71.91104	-2.062385E-008	0.0006266	7
	43	133	15.02404	10658.96	-29753.64	1	31605.26	-70.29042	-1.795553E-008	0.0006404	7
	44	135	12.01923	13910.79	-35138.37	1	37791.73	-68.40208	-2.095081E-008	0.0006008	7
	45	138	9.450605	18416.86	-41612.76	1	45506.07	-66.12691	-7.416088E-010	0.0006649	6
	46	140	7.512019	23730.72	-48454.01	1	53953.11	-63.90634	-4.286833E-009	0.0006946	6
	47	143	5.978954	30227.76	-55711.45	1	63383.62	-61.51675	-2.819479E-009	0.0006605	6
	48	146	4.734848	38203.94	-63486.1	1	74094.71	-58.96179	-2.414083E-009	0.0006997	6
	49	149	3.75601	47418.96	-71475.99	1	85775.14	-56.43871	-7.371689E-009	0.0006591	6
	50	153	3.004808	57528.8	-79343.34	1	98004.7	-54.05558	-7.229084E-009	0.0006717	6
	51	156	2.372217	69682.81	-87615.8	1	111947.4	-51.50398	-4.988332E-009	0.0007407	6
	52	161	1.878005	82733.8	-95465.5	1	126327.1	-49.08663	-5.894074E-009	0.0006379	6
	53	165	1.512097	95720.6	-102767.5	1	140440.7	-47.03332	-6.063693E-009	0.0007289	6
	54	171	1.201923	110906.1	-111035.7	1	156936.6	-45.03346	-4.625846E-009	0.0006291	6
	55	177	0.956633	127219.4	-119103.2	1	174270.9	-43.11281	-8.013155E-009	2.745815E-005	6
