EXPLAIN
TAG	EISPOT
TITLE	LABEL	Potentiostatic EIS	Test Identifier
DATE	LABEL	8/25/2020	Date
TIME	LABEL	13:51:40	Time
NOTES	NOTES	1	Notes...
	
PSTAT	PSTAT	REF3000-16137	Potentiostat
VDC	POTEN	0.00000E+000	T	DC Voltage (V)
FREQINIT	QUANT	3.00000E+005	Initial Freq. (Hz)
FREQFINAL	QUANT	1.00000E+000	Final Freq. (Hz)
PTSPERDEC	QUANT	1.00000E+001	Points/decade
VAC	QUANT	5.00000E+001	AC Voltage (mV rms)
AREA	QUANT	1.00000E+000	Sample Area (cm^2)
SPEED	SELECTOR	2	Optimize for:
ZGUESS	QUANT	1.00000E+003	Estimated Z (ohms)
EOC	QUANT	0	Open Circuit (V)
SEQUENCER	TOGGLE	TRUE	Run as Sequence
PSTATMODEL	IQUANT	5	Pstat Model
PSTATSECTION	LABEL	REF3000-16137	Pstat Section
PSTATSERIALNO	LABEL	16137	Pstat Serial Number
CTRLMODE	IQUANT	1	Control Mode
IESTAB	IQUANT	0	I/E Stability
CASPEED	IQUANT	1	Control Amp Speed
CONVENTION	IQUANT	1	Current Convention
ICHRANGE	IQUANT	2	Ich Range
ICHRANGEMODE	TOGGLE	F	Ich Auto Range
ICHOFFSETENABLE	TOGGLE	T	Ich Offset Enable
ICHOFFSET	QUANT	0	Ich Offset (V)
ICHFILTER	IQUANT	3	Ich Filter
VCHRANGE	IQUANT	2	Vch Range
VCHRANGEMODE	TOGGLE	F	Vch Auto Range
VCHOFFSETENABLE	TOGGLE	T	Vch Offset Enable
VCHOFFSET	QUANT	0	Vch Offset (V)
VCHFILTER	IQUANT	3	Vch Filter
ACHRANGE	IQUANT	2	Ach Range
ACHOFFSETENABLE	TOGGLE	F	Ach Offset Enable
ACHOFFSET	QUANT	0	Ach Offset (V)
ACHFILTER	IQUANT	3	Ach Filter
IERANGELOWERLIMIT	IQUANT	2	I/E Range Lower Limit
IERANGEMODE	TOGGLE	F	I/E AutoRange
IERANGE	IQUANT	11	I/E Range
POSFEEDENABLE	TOGGLE	F	Positive Feedback IR Comp
POSFEEDRESISTANCE	QUANT	0	Positive Feedback Resistance (ohm)
ACHSELECT	IQUANT	0	Ach Select
CABLEID	IQUANT	13	Cable ID
DCCALDATE	LABEL	7/31/2020	DC Calibration Date
ACCALDATE	LABEL	7/31/2020	AC Calibration Date
THERMOSELECT	IQUANT	1	Thermo Select
FRAMEWORKVERSION	QUANT	6.33	Framework Version
INSTRUMENTVERSION	LABEL	3.50	Instrument Version
COMPLIANCEVOLTAGE	IQUANT	0	Compliance Voltage
ZCURVE	TABLE
	Pt	Time	Freq	Zreal	Zimag	Zsig	Zmod	Zphz	Idc	Vdc	IERange
	#	s	Hz	ohm	ohm	V	ohm	°	A	V	#
	0	22	300046.9	-61.17093	-4862.907	1	4863.292	-90.72069	8.736991E-005	-0.0035895	9
	1	37	238359.4	130.9868	-5633.646	1	5635.168	-88.66807	-1.40416E-005	0.0018106	9
	2	58	189328.1	10.93343	-7311.428	1	7311.437	-89.91432	-2.785266E-005	-0.0011108	9
	3	65	150421.9	209.9026	-8743.664	1	8746.184	-88.62481	-6.210665E-005	0.0006002	9
	4	75	119484.4	256.3581	-11345.97	1	11348.87	-88.70564	-3.105278E-005	-0.0062615	8
	5	83	94921.88	685.5894	-14267.89	1	14284.35	-87.24899	8.311687E-006	0.0041531	8
	6	91	75421.88	908.1613	-17989.72	1	18012.63	-87.11003	2.636914E-005	-0.0090807	8
	7	100	59859.37	1014.132	-22413.95	1	22436.88	-87.40939	-2.216771E-006	0.0078848	8
	8	109	47578.12	4715.004	-29693.05	1	30065.07	-80.97725	-7.212361E-006	0.0234392	7
	9	115	37828.12	5440.691	-36574.4	1	36976.86	-81.53891	-3.382328E-006	-0.0052607	7
	10	122	30046.88	3301.47	-44166.79	1	44290.01	-85.72509	-2.666985E-005	0.0076625	8
	11	131	23859.38	2847.415	-54207.64	1	54282.37	-86.99313	2.741751E-005	-0.0074043	8
	12	137	18984.38	4267.744	-72286.04	1	72411.91	-86.6212	2.343713E-005	-0.0028335	8
	13	144	15046.87	2398.589	-88253.99	1	88286.58	-88.44318	-1.230166E-006	-0.0051989	8
	14	153	11953.13	13502.24	-111413	1	112228.2	-83.08997	-6.754926E-006	0.0114947	7
	15	159	9515.62	19191.5	-138012.2	1	139340.2	-82.08341	3.56239E-006	-0.0249364	7
	16	164	7546.875	27356.88	-178629.4	1	180712.1	-81.29287	2.799915E-006	0.0085242	7
	17	171	5928.309	48429.68	-210775.1	1	216267.3	-77.05978	7.671358E-006	-0.0187669	7
	18	176	4733.456	78236.14	-260332.4	1	271834.3	-73.27322	-6.834726E-006	0.0122082	7
	19	184	3796.875	59860.65	-351950	1	357004.3	-80.34734	-3.373638E-006	-0.0053599	7
	20	190	2987.132	157599.9	-409116.9	1	438422.6	-68.93233	6.190492E-007	-0.0073641	6
	21	197	2390.625	202727.7	-482529	1	523385.8	-67.21098	4.371614E-007	0.001809	6
	22	202	1884.191	304069.4	-579245.4	1	654204.4	-62.3032	7.409327E-007	-0.0162313	6
	23	207	1516.544	405629.8	-651471	1	767430.8	-58.09209	7.321801E-007	-0.0274641	6
	24	213	1193.986	517669.2	-755043.9	1	915463.1	-55.5649	7.336628E-007	-0.0274875	6
	25	218	946.5144	621196.4	-675849.6	1	917963.9	-47.41283	1.857251E-007	-0.0214838	6
	26	223	751.7689	891004.8	-877329.7	1	1250439	-44.55692	5.947226E-007	-0.0279741	6
	27	227	597.4265	919392.8	-948480.6	1	1320946	-45.89218	-2.830725E-007	-0.0077531	6
	28	232	477.4305	1429713	-709882.1	1	1596249	-26.40535	-1.022235E-009	0.0005952	5
	29	235	376.6741	1551389	-638627.2	1	1677692	-22.37445	-1.030452E-009	0.0006078	5
	30	238	298.2954	1655187	-569921.6	1	1750558	-18.99985	-1.031236E-009	0.0005953	5
	31	241	237.7717	1726138	-499437.5	1	1796940	-16.13717	-1.098982E-009	0.0006076	5
	32	244	189.0121	1806077	-448054.7	1	1860824	-13.93275	-1.039479E-009	0.000592	5
	33	246	150.2404	1859639	-405576.9	1	1903352	-12.30324	-1.006337E-009	0.0005914	5
	34	249	119.1737	2046662	-400241.3	1	2085430	-11.06501	-1.123635E-009	0.0006846	5
	35	252	95.0169	1968701	-320920.9	1	1994686	-9.258436	-1.065968E-009	0.0006224	5
	36	255	75.60484	2023949	-303223	1	2046537	-8.52054	-1.05279E-009	0.0006793	5
	37	258	54.50582	2063957	-254281.9	1	2079562	-7.023512	-1.039682E-009	0.0005861	5
	38	261	45.95588	2117751	-262454.2	1	2133952	-7.064682	-9.502044E-010	0.0005957	5
	39	263	37.20238	2154604	-259060.1	1	2170122	-6.85608	-9.806718E-010	0.0006737	5
	40	266	30.04808	2193879	-253807.6	1	2208512	-6.599154	-9.173274E-010	0.0005971	5
	41	269	23.91582	2230507	-260306.5	1	2245646	-6.656468	-9.502391E-010	0.0006725	5
	42	272	18.60119	2275934	-268868.5	1	2291760	-6.737436	-1.210106E-009	0.0006025	5
	43	274	15.02404	2328950	-269183.5	1	2344454	-6.593078	-1.215549E-009	0.0006503	5
	44	276	12.01923	2372783	-282542	1	2389546	-6.790591	-9.045907E-010	0.0006242	5
	45	279	9.450605	2431617	-313438.9	1	2451735	-7.345008	-1.012755E-008	0.0006622	6
	46	283	7.512019	2493199	-341308.5	1	2516452	-7.795101	-1.03606E-008	0.0007043	6
	47	287	5.978954	2568809	-380789	1	2596879	-8.431874	-9.246449E-009	0.0006338	6
	48	293	4.734848	2651257	-428320.1	1	2685632	-9.177051	-1.010036E-008	0.0006962	6
	49	298	3.75601	2739187	-481989.6	1	2781269	-9.97965	-9.170801E-010	0.0006979	5
	50	305	3.004808	2845772	-555881.5	1	2899556	-11.05275	-1.03328E-008	0.0006938	6
	51	313	2.372217	2960250	-644901.7	1	3029682	-12.29008	-9.592357E-010	0.0005708	5
	52	319	1.878005	3057103	-759766.3	1	3150099	-13.95667	-8.037953E-010	0.0006385	5
	53	323	1.512097	3157569	-884380.8	1	3279081	-15.64665	-8.587391E-010	0.0006412	5
	54	329	1.201923	3267784	-1050225	1	3432402	-17.81676	-1.001397E-009	0.0006548	5
	55	335	0.956633	3412122	-1254189	1	3635322	-20.18185	-1.273312E-009	-3.022745E-006	5
