EXPLAIN
TAG	EISPOT
TITLE	LABEL	Potentiostatic EIS	Test Identifier
DATE	LABEL	8/25/2020	Date
TIME	LABEL	13:05:50	Time
NOTES	NOTES	1	Notes...
	
PSTAT	PSTAT	REF3000-16137	Potentiostat
VDC	POTEN	0.00000E+000	T	DC Voltage (V)
FREQINIT	QUANT	3.00000E+005	Initial Freq. (Hz)
FREQFINAL	QUANT	1.00000E+000	Final Freq. (Hz)
PTSPERDEC	QUANT	1.00000E+001	Points/decade
VAC	QUANT	5.00000E+001	AC Voltage (mV rms)
AREA	QUANT	1.00000E+000	Sample Area (cm^2)
SPEED	SELECTOR	2	Optimize for:
ZGUESS	QUANT	1.00000E+003	Estimated Z (ohms)
EOC	QUANT	0	Open Circuit (V)
SEQUENCER	TOGGLE	TRUE	Run as Sequence
PSTATMODEL	IQUANT	5	Pstat Model
PSTATSECTION	LABEL	REF3000-16137	Pstat Section
PSTATSERIALNO	LABEL	16137	Pstat Serial Number
CTRLMODE	IQUANT	1	Control Mode
IESTAB	IQUANT	0	I/E Stability
CASPEED	IQUANT	1	Control Amp Speed
CONVENTION	IQUANT	1	Current Convention
ICHRANGE	IQUANT	2	Ich Range
ICHRANGEMODE	TOGGLE	F	Ich Auto Range
ICHOFFSETENABLE	TOGGLE	T	Ich Offset Enable
ICHOFFSET	QUANT	0	Ich Offset (V)
ICHFILTER	IQUANT	3	Ich Filter
VCHRANGE	IQUANT	2	Vch Range
VCHRANGEMODE	TOGGLE	F	Vch Auto Range
VCHOFFSETENABLE	TOGGLE	T	Vch Offset Enable
VCHOFFSET	QUANT	0	Vch Offset (V)
VCHFILTER	IQUANT	3	Vch Filter
ACHRANGE	IQUANT	2	Ach Range
ACHOFFSETENABLE	TOGGLE	F	Ach Offset Enable
ACHOFFSET	QUANT	0	Ach Offset (V)
ACHFILTER	IQUANT	3	Ach Filter
IERANGELOWERLIMIT	IQUANT	2	I/E Range Lower Limit
IERANGEMODE	TOGGLE	F	I/E AutoRange
IERANGE	IQUANT	11	I/E Range
POSFEEDENABLE	TOGGLE	F	Positive Feedback IR Comp
POSFEEDRESISTANCE	QUANT	0	Positive Feedback Resistance (ohm)
ACHSELECT	IQUANT	0	Ach Select
CABLEID	IQUANT	13	Cable ID
DCCALDATE	LABEL	7/31/2020	DC Calibration Date
ACCALDATE	LABEL	7/31/2020	AC Calibration Date
THERMOSELECT	IQUANT	1	Thermo Select
FRAMEWORKVERSION	QUANT	6.33	Framework Version
INSTRUMENTVERSION	LABEL	3.50	Instrument Version
COMPLIANCEVOLTAGE	IQUANT	0	Compliance Voltage
ZCURVE	TABLE
	Pt	Time	Freq	Zreal	Zimag	Zsig	Zmod	Zphz	Idc	Vdc	IERange
	#	s	Hz	ohm	ohm	V	ohm	°	A	V	#
	0	30	300046.9	2283.549	-2366.478	1	3288.588	-46.02171	8.93524E-005	-0.0035997	9
	1	45	238359.4	2821.976	-2358.479	1	3677.768	-39.88734	2.846892E-005	-0.0020289	9
	2	73	189328.1	3306.558	-2322.154	1	4040.51	-35.07988	2.640784E-005	-0.001478	9
	3	82	150421.9	3715.771	-2121.624	1	4278.813	-29.72542	1.349023E-006	0.0017113	9
	4	90	119484.4	4177.938	-1816.431	1	4555.721	-23.49783	2.568659E-005	0.0073078	8
	5	97	94921.88	4498.608	-1625.71	1	4783.347	-19.86888	-2.307288E-005	0.0052707	8
	6	105	75421.88	4720.528	-1423.438	1	4930.473	-16.78027	2.423828E-005	-0.0084939	8
	7	112	59859.37	4917.633	-1253.827	1	5074.958	-14.3037	2.431042E-005	-0.008503	8
	8	120	47578.12	5077.006	-1087.903	1	5192.256	-12.09446	-1.579026E-005	0.0008847	8
	9	127	37828.12	5229.929	-961.341	1	5317.55	-10.41557	-2.537286E-005	0.0093462	8
	10	134	30046.88	5363.639	-849.5861	1	5430.508	-9.000721	-1.812431E-005	0.0106342	8
	11	142	23859.38	5415.329	-807.4951	1	5475.202	-8.481047	-8.854375E-006	-0.002017	8
	12	147	18984.38	5536.361	-710.1783	1	5581.725	-7.309714	2.514388E-005	-0.0052539	8
	13	153	15046.87	5641.521	-655.6689	1	5679.494	-6.62929	2.268798E-005	-0.0029423	8
	14	158	11953.13	5706.815	-642.1699	1	5742.832	-6.420306	-2.515518E-005	0.0074001	8
	15	163	9515.62	5804.545	-591.9153	1	5834.647	-5.822578	-2.304279E-005	0.0052379	8
	16	169	7546.875	5899.262	-606.1284	1	5930.319	-5.866354	8.629445E-006	0.0036127	8
	17	174	5928.309	6015.433	-561.7668	1	6041.607	-5.335241	-2.30951E-005	0.0052853	8
	18	180	4733.456	6142.76	-644.1033	1	6176.437	-5.985914	2.100088E-005	-0.009184	8
	19	185	3796.875	6197.277	-671.9837	1	6233.603	-6.188523	1.511998E-005	-0.0088102	8
	20	190	2987.132	6241.417	-700.4103	1	6280.594	-6.40293	-1.475242E-006	0.0072531	8
	21	196	2390.625	6407.526	-787.1625	1	6455.697	-7.003675	-6.440628E-006	0.0196041	7
	22	199	1884.191	6511.744	-880.392	1	6570.989	-7.699739	-2.951979E-007	0.0166642	7
	23	204	1516.544	6603.21	-951.343	1	6671.389	-8.198346	-3.137065E-007	0.0167102	7
	24	208	1193.986	6697.987	-1116.492	1	6790.404	-9.463663	-2.232796E-006	0.0210198	7
	25	213	946.5144	6734.102	-1304.027	1	6859.199	-10.95941	-5.291352E-006	0.0242264	7
	26	215	751.7689	6957.767	-1540.666	1	7126.302	-12.48561	-5.974644E-006	0.0221472	7
	27	218	597.4265	7110.144	-1755.303	1	7323.608	-13.8675	1.908766E-006	0.0099442	7
	28	220	477.4305	7216.634	-2053.774	1	7503.186	-15.88576	-8.588905E-008	0.0006653	7
	29	223	376.6741	7373.069	-2439.517	1	7766.17	-18.30775	-8.219098E-008	0.0005844	7
	30	225	298.2954	7549.397	-2906.5	1	8089.569	-21.05659	-8.867821E-008	0.0006399	7
	31	227	237.7717	7743.462	-3459.57	1	8481.146	-24.07381	-8.831958E-008	0.0006469	7
	32	230	189.0121	7967.251	-4140.133	1	8978.741	-27.45837	-8.03264E-008	0.0005768	7
	33	232	150.2404	8229.787	-4972.202	1	9615.21	-31.13917	-8.19179E-008	0.0005777	7
	34	235	119.1737	8532.536	-5991.17	1	10425.85	-35.07484	-8.332545E-008	0.0006355	7
	35	237	95.0169	8887.069	-7210.409	1	11444.21	-39.0537	-8.631547E-008	0.000661	7
	36	240	75.60484	9310.499	-8703.465	1	12745.03	-43.06998	-7.915959E-008	0.0005897	7
	37	242	54.50582	10042.17	-11419.04	1	15206.57	-48.67085	-7.854296E-008	0.0005817	7
	38	245	45.95588	10525.14	-13170.48	1	16859.42	-51.37003	-8.818103E-008	0.0006466	7
	39	247	37.20238	11218.42	-15727.81	1	19318.83	-54.50029	-7.825685E-008	0.0005886	7
	40	249	30.04808	12061.75	-18824.85	1	22357.57	-57.35085	-9.136085E-008	0.0006798	7
	41	252	23.91582	13158.72	-22825.6	1	26346.91	-60.037	-8.725523E-008	0.0006569	7
	42	254	18.60119	14671.09	-28256.9	1	31838.55	-62.56148	-8.406619E-008	0.0006218	7
	43	256	15.02404	16279.43	-33824.37	1	37538.09	-64.29882	-8.973735E-008	0.0006408	7
	44	259	12.01923	18464.69	-40857.72	1	44836.35	-65.68053	-1.176979E-008	0.0006729	6
	45	261	9.450605	21375.04	-50008.43	1	54385.06	-66.85675	-1.229373E-008	0.0007426	6
	46	264	7.512019	24918.18	-60525.97	1	65454.63	-67.62333	-8.34128E-009	0.0006374	6
	47	266	5.978954	29501.36	-73007.62	1	78742.89	-67.99706	-1.008225E-008	0.0006137	6
	48	269	4.734848	35405.45	-88260.77	1	95097.4	-68.14201	-7.886145E-009	0.0007297	6
	49	273	3.75601	42980.17	-106098	1	114473.1	-67.94719	-1.087881E-008	0.0006786	6
	50	276	3.004808	52146.38	-126265.7	1	136609.9	-67.5599	-8.716854E-009	0.0006105	6
	51	282	2.372217	64435.1	-151068.7	1	164236.5	-66.90037	-9.814331E-009	0.0006963	6
	52	286	1.878005	79455.05	-180137.7	1	196882.5	-66.19872	-1.038094E-008	0.0006428	6
	53	290	1.512097	96008.7	-210476.6	1	231339.7	-65.47994	-9.756451E-009	0.0006338	6
	54	296	1.201923	118066.3	-247859.4	1	274543.2	-64.5295	-9.753119E-009	0.0006327	6
	55	302	0.956633	143987.6	-290257.7	1	324009.2	-63.61545	-1.017417E-008	2.028665E-005	6
