EXPLAIN
TAG	EISPOT
TITLE	LABEL	Potentiostatic EIS	Test Identifier
DATE	LABEL	8/25/2020	Date
TIME	LABEL	15:15:02	Time
NOTES	NOTES	1	Notes...
	
PSTAT	PSTAT	REF3000-16137	Potentiostat
VDC	POTEN	0.00000E+000	T	DC Voltage (V)
FREQINIT	QUANT	3.00000E+005	Initial Freq. (Hz)
FREQFINAL	QUANT	1.00000E+000	Final Freq. (Hz)
PTSPERDEC	QUANT	1.00000E+001	Points/decade
VAC	QUANT	5.00000E+001	AC Voltage (mV rms)
AREA	QUANT	1.00000E+000	Sample Area (cm^2)
SPEED	SELECTOR	2	Optimize for:
ZGUESS	QUANT	1.00000E+003	Estimated Z (ohms)
EOC	QUANT	0	Open Circuit (V)
SEQUENCER	TOGGLE	TRUE	Run as Sequence
PSTATMODEL	IQUANT	5	Pstat Model
PSTATSECTION	LABEL	REF3000-16137	Pstat Section
PSTATSERIALNO	LABEL	16137	Pstat Serial Number
CTRLMODE	IQUANT	1	Control Mode
IESTAB	IQUANT	0	I/E Stability
CASPEED	IQUANT	1	Control Amp Speed
CONVENTION	IQUANT	1	Current Convention
ICHRANGE	IQUANT	2	Ich Range
ICHRANGEMODE	TOGGLE	F	Ich Auto Range
ICHOFFSETENABLE	TOGGLE	T	Ich Offset Enable
ICHOFFSET	QUANT	0	Ich Offset (V)
ICHFILTER	IQUANT	3	Ich Filter
VCHRANGE	IQUANT	2	Vch Range
VCHRANGEMODE	TOGGLE	F	Vch Auto Range
VCHOFFSETENABLE	TOGGLE	T	Vch Offset Enable
VCHOFFSET	QUANT	0	Vch Offset (V)
VCHFILTER	IQUANT	3	Vch Filter
ACHRANGE	IQUANT	2	Ach Range
ACHOFFSETENABLE	TOGGLE	F	Ach Offset Enable
ACHOFFSET	QUANT	0	Ach Offset (V)
ACHFILTER	IQUANT	3	Ach Filter
IERANGELOWERLIMIT	IQUANT	2	I/E Range Lower Limit
IERANGEMODE	TOGGLE	F	I/E AutoRange
IERANGE	IQUANT	11	I/E Range
POSFEEDENABLE	TOGGLE	F	Positive Feedback IR Comp
POSFEEDRESISTANCE	QUANT	0	Positive Feedback Resistance (ohm)
ACHSELECT	IQUANT	0	Ach Select
CABLEID	IQUANT	13	Cable ID
DCCALDATE	LABEL	7/31/2020	DC Calibration Date
ACCALDATE	LABEL	7/31/2020	AC Calibration Date
THERMOSELECT	IQUANT	1	Thermo Select
FRAMEWORKVERSION	QUANT	6.33	Framework Version
INSTRUMENTVERSION	LABEL	3.50	Instrument Version
COMPLIANCEVOLTAGE	IQUANT	0	Compliance Voltage
ZCURVE	TABLE
	Pt	Time	Freq	Zreal	Zimag	Zsig	Zmod	Zphz	Idc	Vdc	IERange
	#	s	Hz	ohm	ohm	V	ohm	°	A	V	#
	0	12	300046.9	221.37	-13.33126	1	221.771	-3.446284	-1.882264E-005	0.0008794	9
	1	17	238359.4	222.4226	-13.64895	1	222.841	-3.511549	7.875876E-005	-0.0031094	9
	2	20	189328.1	223.7218	-14.84796	1	224.214	-3.797035	-3.471176E-005	-0.000679	9
	3	23	150421.9	225.1013	-16.07892	1	225.6749	-4.085681	7.509851E-005	-0.0016406	9
	4	25	119484.4	225.9869	-17.50917	1	226.6642	-4.430352	-6.202562E-005	0.0010089	9
	5	28	94921.88	227.6172	-19.32739	1	228.4363	-4.853445	-2.554535E-005	0.0007229	9
	6	31	75421.88	229.0901	-21.94546	1	230.1388	-5.471897	-2.274999E-005	0.0005208	9
	7	33	59859.37	231.0998	-24.87828	1	232.4351	-6.144324	2.580286E-005	-0.0007608	9
	8	36	47578.12	233.5115	-28.69847	1	235.2684	-7.006495	2.915447E-005	-0.0007344	9
	9	39	37828.12	236.1879	-32.79371	1	238.4536	-7.904744	2.482841E-005	-0.0007913	9
	10	41	30046.88	238.889	-37.36702	1	241.7939	-8.890166	-1.940749E-005	0.000954	9
	11	45	23859.38	241.9846	-43.61235	1	245.8833	-10.21661	1.698901E-005	2.690375E-005	9
	12	48	18984.38	245.6392	-50.17612	1	250.7115	-11.54485	-1.978191E-005	0.0003589	9
	13	52	15046.87	249.238	-58.08986	1	255.918	-13.1197	2.788328E-005	-0.0004709	9
	14	55	11953.13	252.9334	-67.82375	1	261.869	-15.01066	-1.632297E-005	0.0010058	9
	15	59	9515.62	256.0171	-80.1282	1	268.2635	-17.37907	-2.387053E-005	0.0009095	9
	16	61	7546.875	259.5951	-95.0667	1	276.4548	-20.11332	2.74205E-005	-0.0006377	9
	17	65	5928.309	263.3827	-115.5307	1	287.607	-23.68427	7.482159E-006	-0.0006391	9
	18	67	4733.456	266.4124	-139.3785	1	300.6692	-27.61714	-2.174988E-005	0.0004905	9
	19	69	3796.875	270.5928	-168.2128	1	318.6158	-31.86696	-9.023703E-006	-0.0001272	9
	20	72	2987.132	274.8185	-208.9397	1	345.226	-37.2451	-1.907119E-005	0.0003737	9
	21	74	2390.625	280.0655	-255.7968	1	379.3002	-42.4069	2.709834E-005	-0.0004555	9
	22	76	1884.191	287.1811	-319.4688	1	429.5734	-48.04658	2.765084E-005	-0.0006616	9
	23	79	1516.544	294.7439	-387.2043	1	486.6221	-52.72124	5.289992E-006	0.0012894	8
	24	81	1193.986	308.4455	-484.1657	1	574.0688	-57.50017	-5.518945E-006	0.0002857	8
	25	84	946.5144	322.5461	-600.9637	1	682.0508	-61.77689	-5.970394E-006	0.004437	8
	26	86	751.7689	343.9092	-744.006	1	819.6454	-65.19174	5.026429E-006	-0.0029789	8
	27	88	597.4265	372.1698	-920.1766	1	992.59	-67.9789	-2.949081E-006	0.0039394	8
	28	91	477.4305	410.7939	-1131.028	1	1203.319	-70.03878	9.571958E-009	0.0006334	8
	29	93	376.6741	462.8669	-1404.754	1	1479.047	-71.76293	-1.098209E-008	0.0006355	8
	30	95	298.2954	531.5062	-1736.912	1	1816.415	-72.98555	-6.659784E-009	0.0006355	8
	31	98	237.7717	620.7792	-2131.592	1	2220.146	-73.76296	9.038426E-009	0.0006272	8
	32	100	189.0121	741.6021	-2618.671	1	2721.656	-74.18799	-1.908015E-008	0.0006606	8
	33	102	150.2404	905.1534	-3211.361	1	3336.487	-74.259	-3.849214E-009	0.0006378	8
	34	105	119.1737	1129.671	-3935.837	1	4094.749	-73.98537	1.613831E-008	0.0006362	8
	35	107	95.0169	1430.991	-4798.114	1	5006.958	-73.3933	-3.446428E-008	0.0006224	7
	36	110	75.60484	1837.278	-5823.063	1	6106.034	-72.4886	-3.20214E-008	0.0006133	7
	37	112	54.50582	2681.707	-7615.56	1	8073.927	-70.60104	-3.465677E-008	0.0006328	7
	38	115	45.95588	3285.531	-8709.221	1	9308.343	-69.33115	-2.617728E-008	0.0006254	7
	39	117	37.20238	4237.732	-10219.24	1	11063.06	-67.47711	-3.236744E-008	0.0006334	7
	40	119	30.04808	5477.217	-11886.84	1	13088.04	-65.2607	-2.678357E-008	0.0006182	7
	41	122	23.91582	7163.045	-13807.44	1	15554.89	-62.58055	-2.589043E-008	0.000622	7
	42	124	18.60119	9542.66	-16019.17	1	18646.08	-59.21765	-2.268641E-008	0.0006095	7
	43	126	15.02404	11985.13	-17855.4	1	21504.86	-56.12919	-2.662015E-008	0.0006156	7
	44	129	12.01923	14996.86	-19570.41	1	24655.77	-52.53695	-2.093896E-008	0.0006134	7
	45	131	9.450605	18659.61	-21124.55	1	28185.59	-48.54539	-3.812774E-008	0.0006753	7
	46	134	7.512019	22421.92	-22141.59	1	31511.78	-44.63957	-3.79256E-008	0.0006324	7
	47	136	5.978954	26221.19	-22573.82	1	34599.55	-40.72516	-3.610631E-008	0.0006735	7
	48	140	4.734848	29899.61	-21982	1	37110.58	-36.32308	-3.388395E-008	0.0005913	7
	49	144	3.75601	33246.54	-21069.11	1	39360.38	-32.36338	-3.29679E-008	0.0006717	6
	50	150	3.004808	35963.47	-19874.39	1	41089.7	-28.92624	-3.020562E-008	0.0006384	6
	51	156	2.372217	38976.88	-19024.61	1	43372.03	-26.017	-4.075635E-008	0.000636	6
	52	160	1.878005	40379.25	-16766.3	1	43721.77	-22.54924	-4.173014E-008	0.0006604	6
	53	171	1.512097	41505.2	-15237.63	1	44213.88	-20.15949	-4.229141E-008	0.0005572	6
	54	181	1.201923	42764.2	-13937.57	1	44978.14	-18.05166	-4.757301E-008	0.0006891	6
	55	194	0.956633	43855.68	-12684.63	1	45653.26	-16.13177	-6.740234E-008	2.697173E-005	6
