EXPLAIN
TAG	EISPOT
TITLE	LABEL	Potentiostatic EIS	Test Identifier
DATE	LABEL	8/25/2020	Date
TIME	LABEL	12:33:32	Time
NOTES	NOTES	1	Notes...
	
PSTAT	PSTAT	REF3000-16137	Potentiostat
VDC	POTEN	0.00000E+000	T	DC Voltage (V)
FREQINIT	QUANT	3.00000E+005	Initial Freq. (Hz)
FREQFINAL	QUANT	1.00000E+000	Final Freq. (Hz)
PTSPERDEC	QUANT	1.00000E+001	Points/decade
VAC	QUANT	5.00000E+001	AC Voltage (mV rms)
AREA	QUANT	1.00000E+000	Sample Area (cm^2)
SPEED	SELECTOR	2	Optimize for:
ZGUESS	QUANT	1.00000E+003	Estimated Z (ohms)
EOC	QUANT	0	Open Circuit (V)
SEQUENCER	TOGGLE	TRUE	Run as Sequence
PSTATMODEL	IQUANT	5	Pstat Model
PSTATSECTION	LABEL	REF3000-16137	Pstat Section
PSTATSERIALNO	LABEL	16137	Pstat Serial Number
CTRLMODE	IQUANT	1	Control Mode
IESTAB	IQUANT	0	I/E Stability
CASPEED	IQUANT	1	Control Amp Speed
CONVENTION	IQUANT	1	Current Convention
ICHRANGE	IQUANT	2	Ich Range
ICHRANGEMODE	TOGGLE	F	Ich Auto Range
ICHOFFSETENABLE	TOGGLE	T	Ich Offset Enable
ICHOFFSET	QUANT	0	Ich Offset (V)
ICHFILTER	IQUANT	3	Ich Filter
VCHRANGE	IQUANT	2	Vch Range
VCHRANGEMODE	TOGGLE	F	Vch Auto Range
VCHOFFSETENABLE	TOGGLE	T	Vch Offset Enable
VCHOFFSET	QUANT	0	Vch Offset (V)
VCHFILTER	IQUANT	3	Vch Filter
ACHRANGE	IQUANT	2	Ach Range
ACHOFFSETENABLE	TOGGLE	F	Ach Offset Enable
ACHOFFSET	QUANT	0	Ach Offset (V)
ACHFILTER	IQUANT	3	Ach Filter
IERANGELOWERLIMIT	IQUANT	2	I/E Range Lower Limit
IERANGEMODE	TOGGLE	F	I/E AutoRange
IERANGE	IQUANT	11	I/E Range
POSFEEDENABLE	TOGGLE	F	Positive Feedback IR Comp
POSFEEDRESISTANCE	QUANT	0	Positive Feedback Resistance (ohm)
ACHSELECT	IQUANT	0	Ach Select
CABLEID	IQUANT	13	Cable ID
DCCALDATE	LABEL	7/31/2020	DC Calibration Date
ACCALDATE	LABEL	7/31/2020	AC Calibration Date
THERMOSELECT	IQUANT	1	Thermo Select
FRAMEWORKVERSION	QUANT	6.33	Framework Version
INSTRUMENTVERSION	LABEL	3.50	Instrument Version
COMPLIANCEVOLTAGE	IQUANT	0	Compliance Voltage
ZCURVE	TABLE
	Pt	Time	Freq	Zreal	Zimag	Zsig	Zmod	Zphz	Idc	Vdc	IERange
	#	s	Hz	ohm	ohm	V	ohm	°	A	V	#
	0	9	300046.9	277.493	-19.57082	1	278.1823	-4.034234	7.261432E-005	-0.0018489	9
	1	14	238359.4	277.0424	-25.73722	1	278.2354	-5.307539	-2.555945E-005	0.0004454	10
	2	20	189328.1	281.0232	-19.63632	1	281.7084	-3.997011	-1.303228E-005	0.0015146	9
	3	25	150421.9	282.8311	-21.04364	1	283.6129	-4.25517	2.282621E-005	-0.0013541	9
	4	33	119484.4	285.1053	-21.92476	1	285.947	-4.397424	-6.002626E-005	0.0009007	9
	5	37	94921.88	286.5568	-24.45506	1	287.5984	-4.877865	2.676607E-005	-0.0008307	9
	6	41	75421.88	289.0676	-27.24311	1	290.3485	-5.383925	-9.956183E-006	-0.0001175	9
	7	45	59859.37	291.6251	-30.95181	1	293.2631	-6.058441	-2.021479E-005	0.0008815	9
	8	47	47578.12	294.7844	-35.36656	1	296.8983	-6.841324	-1.419855E-006	-0.0003425	9
	9	50	37828.12	297.7356	-40.34904	1	300.4572	-7.717691	2.656924E-005	-0.0004743	9
	10	52	30046.88	301.8512	-46.11332	1	305.3532	-8.685829	-1.645261E-005	0.0010383	9
	11	56	23859.38	306.2514	-52.96738	1	310.7981	-9.81246	-2.460908E-005	0.0007324	9
	12	59	18984.38	310.731	-60.9944	1	316.6608	-11.10558	1.258171E-005	0.0002158	9
	13	62	15046.87	314.9807	-71.25121	1	322.9389	-12.74625	-1.563239E-005	0.0001363	9
	14	65	11953.13	321.1052	-83.44574	1	331.7706	-14.56726	3.177921E-005	-0.0007265	9
	15	67	9515.62	325.7187	-97.1484	1	339.8978	-16.60766	2.777587E-005	-0.0004648	9
	16	69	7546.875	330.5667	-114.7887	1	349.9297	-19.14947	1.128769E-006	0.0006809	9
	17	72	5928.309	335.8723	-137.6411	1	362.9811	-22.28391	8.369298E-007	0.0006524	9
	18	74	4733.456	339.306	-165.1124	1	377.3469	-25.94838	1.218719E-006	0.0031211	8
	19	77	3796.875	344.0151	-196.8988	1	396.3781	-29.78489	-1.140613E-005	0.0028191	8
	20	79	2987.132	349.4513	-244.002	1	426.2079	-34.92441	9.099437E-006	-0.0039528	8
	21	81	2390.625	355.1873	-297.4926	1	463.314	-39.94838	-1.099607E-005	0.0026364	8
	22	83	1884.191	362.5248	-372.5211	1	519.804	-45.77915	1.130841E-006	0.0031713	8
	23	86	1516.544	372.265	-455.6349	1	588.3743	-50.75033	-2.229656E-006	-0.0013897	8
	24	88	1193.986	382.9676	-567.7352	1	684.8266	-55.99824	-3.441472E-006	0.0044626	8
	25	91	946.5144	400.3572	-707.0249	1	812.5085	-60.47903	-1.111399E-005	0.0048828	8
	26	93	751.7689	419.7712	-876.633	1	971.953	-64.41281	1.058007E-006	0.003229	8
	27	95	597.4265	448.3419	-1088.269	1	1177.004	-67.60946	1.913865E-006	-0.0026689	8
	28	98	477.4305	481.1092	-1341.203	1	1424.883	-70.26635	-4.424331E-008	0.0006467	8
	29	100	376.6741	529.4532	-1672.233	1	1754.048	-72.43147	-2.10594E-008	0.0006394	8
	30	103	298.2954	592.1868	-2076.012	1	2158.822	-74.07909	-1.84651E-008	0.0006377	8
	31	105	237.7717	672.6671	-2559.295	1	2646.219	-75.27385	-7.91353E-008	0.0006997	8
	32	107	189.0121	779.8206	-3161.044	1	3255.813	-76.14201	-2.209491E-008	0.0006523	8
	33	110	150.2404	921.2214	-3899.233	1	4006.578	-76.70721	-4.600023E-008	0.0006529	8
	34	112	119.1737	1117.635	-4825.262	1	4953.005	-76.95902	-2.429203E-008	0.0006783	7
	35	115	95.0169	1367.089	-5922.1	1	6077.845	-77.00124	-1.840749E-008	0.0006307	7
	36	117	75.60484	1707.292	-7270.109	1	7467.887	-76.78429	-2.110532E-008	0.0006242	7
	37	120	54.50582	2415.728	-9711.06	1	10007.02	-76.03062	-2.33164E-008	0.0006252	7
	38	122	45.95588	2924.206	-11272.97	1	11646.07	-75.45801	-1.506893E-008	0.0006257	7
	39	124	37.20238	3738.133	-13513.17	1	14020.67	-74.53702	-2.058771E-008	0.0006318	7
	40	127	30.04808	4816.632	-16156.75	1	16859.43	-73.39969	-1.762437E-008	0.0006142	7
	41	129	23.91582	6349.735	-19454.3	1	20464.33	-71.92371	-2.016679E-008	0.0006091	7
	42	132	18.60119	8612.077	-23728.36	1	25242.88	-70.05192	-3.108516E-008	0.0006777	7
	43	134	15.02404	11159.28	-27827.43	1	29981.58	-68.14837	-2.118351E-008	0.0006216	7
	44	136	12.01923	14520.7	-32573.85	1	35663.8	-65.97375	-1.456659E-008	0.000681	7
	45	139	9.450605	19068.82	-38151.64	1	42651.7	-63.44335	-7.140501E-009	0.0006668	6
	46	141	7.512019	24463.97	-43801.18	1	50170	-60.81564	-9.138187E-010	0.0006865	6
	47	144	5.978954	30873.23	-49582.13	1	58408.43	-58.09078	-2.047643E-009	0.0006575	6
	48	147	4.734848	38500.93	-55572.22	1	67606.16	-55.28544	-7.812289E-009	0.0006463	6
	49	150	3.75601	47126	-61247.54	1	77279.5	-52.42405	-1.174486E-009	0.000676	6
	50	154	3.004808	56336.32	-66408.8	1	87085.65	-49.69119	-3.986619E-009	0.0006804	6
	51	157	2.372217	66874.62	-71515.59	1	97911.7	-46.92072	-2.445669E-009	0.000663	6
	52	162	1.878005	78196.34	-75852.59	1	108941.6	-44.12835	-1.216438E-009	0.0006574	6
	53	166	1.512097	88869.63	-79917.13	1	119518	-41.96386	-2.233353E-009	0.0007418	6
	54	172	1.201923	100940.1	-83823.95	1	131207.3	-39.70736	-1.530801E-009	0.0006808	6
	55	178	0.956633	113576.1	-87571.45	1	143416.5	-37.63358	-8.345857E-009	2.433114E-005	6
