EXPLAIN
TAG	EISPOT
TITLE	LABEL	Potentiostatic EIS	Test Identifier
DATE	LABEL	8/25/2020	Date
TIME	LABEL	15:55:13	Time
NOTES	NOTES	1	Notes...
	
PSTAT	PSTAT	REF3000-16137	Potentiostat
VDC	POTEN	0.00000E+000	T	DC Voltage (V)
FREQINIT	QUANT	3.00000E+005	Initial Freq. (Hz)
FREQFINAL	QUANT	1.00000E+000	Final Freq. (Hz)
PTSPERDEC	QUANT	1.00000E+001	Points/decade
VAC	QUANT	5.00000E+001	AC Voltage (mV rms)
AREA	QUANT	1.00000E+000	Sample Area (cm^2)
SPEED	SELECTOR	2	Optimize for:
ZGUESS	QUANT	1.00000E+003	Estimated Z (ohms)
EOC	QUANT	0	Open Circuit (V)
SEQUENCER	TOGGLE	TRUE	Run as Sequence
PSTATMODEL	IQUANT	5	Pstat Model
PSTATSECTION	LABEL	REF3000-16137	Pstat Section
PSTATSERIALNO	LABEL	16137	Pstat Serial Number
CTRLMODE	IQUANT	1	Control Mode
IESTAB	IQUANT	0	I/E Stability
CASPEED	IQUANT	1	Control Amp Speed
CONVENTION	IQUANT	1	Current Convention
ICHRANGE	IQUANT	2	Ich Range
ICHRANGEMODE	TOGGLE	F	Ich Auto Range
ICHOFFSETENABLE	TOGGLE	T	Ich Offset Enable
ICHOFFSET	QUANT	0	Ich Offset (V)
ICHFILTER	IQUANT	3	Ich Filter
VCHRANGE	IQUANT	2	Vch Range
VCHRANGEMODE	TOGGLE	F	Vch Auto Range
VCHOFFSETENABLE	TOGGLE	T	Vch Offset Enable
VCHOFFSET	QUANT	0	Vch Offset (V)
VCHFILTER	IQUANT	3	Vch Filter
ACHRANGE	IQUANT	2	Ach Range
ACHOFFSETENABLE	TOGGLE	F	Ach Offset Enable
ACHOFFSET	QUANT	0	Ach Offset (V)
ACHFILTER	IQUANT	3	Ach Filter
IERANGELOWERLIMIT	IQUANT	2	I/E Range Lower Limit
IERANGEMODE	TOGGLE	F	I/E AutoRange
IERANGE	IQUANT	11	I/E Range
POSFEEDENABLE	TOGGLE	F	Positive Feedback IR Comp
POSFEEDRESISTANCE	QUANT	0	Positive Feedback Resistance (ohm)
ACHSELECT	IQUANT	0	Ach Select
CABLEID	IQUANT	13	Cable ID
DCCALDATE	LABEL	7/31/2020	DC Calibration Date
ACCALDATE	LABEL	7/31/2020	AC Calibration Date
THERMOSELECT	IQUANT	1	Thermo Select
FRAMEWORKVERSION	QUANT	6.33	Framework Version
INSTRUMENTVERSION	LABEL	3.50	Instrument Version
COMPLIANCEVOLTAGE	IQUANT	0	Compliance Voltage
ZCURVE	TABLE
	Pt	Time	Freq	Zreal	Zimag	Zsig	Zmod	Zphz	Idc	Vdc	IERange
	#	s	Hz	ohm	ohm	V	ohm	°	A	V	#
	0	9	300046.9	223.9091	-13.20821	1	224.2983	-3.375919	8.106769E-005	-0.003298	9
	1	12	238359.4	224.6947	-14.01356	1	225.1312	-3.56875	1.839915E-005	-0.0018867	9
	2	15	189328.1	226.031	-15.48226	1	226.5606	-3.918422	4.989649E-005	-0.0002363	9
	3	18	150421.9	226.6355	-16.20391	1	227.214	-4.089556	1.942205E-005	-0.0016203	9
	4	21	119484.4	228.221	-17.67168	1	228.9042	-4.427709	-6.586378E-006	-0.0013334	9
	5	24	94921.88	229.5892	-19.71193	1	230.4339	-4.907232	-9.927904E-006	-0.0001265	9
	6	26	75421.88	231.4149	-22.32294	1	232.4891	-5.509865	1.165112E-005	0.0002954	9
	7	29	59859.37	233.3348	-25.45876	1	234.7196	-6.226811	2.643918E-005	-0.0008304	9
	8	31	47578.12	235.584	-29.06667	1	237.3704	-7.033682	1.561088E-005	-0.0008922	9
	9	34	37828.12	238.1203	-33.68238	1	240.4907	-8.051138	-1.668431E-005	0.0010365	9
	10	38	30046.88	240.9315	-39.03217	1	244.0728	-9.202267	1.492703E-005	-0.0007656	9
	11	41	23859.38	243.8068	-45.25254	1	247.9709	-10.51491	3.004756E-006	0.0005944	9
	12	45	18984.38	247.0294	-52.35398	1	252.5163	-11.96588	2.104673E-006	0.0007018	9
	13	48	15046.87	249.9232	-61.57045	1	257.3956	-13.83965	-1.575325E-005	0.0001499	9
	14	52	11953.13	253.7429	-72.78595	1	263.9759	-16.0055	2.436068E-005	-0.0002888	9
	15	56	9515.62	256.6542	-86.07182	1	270.7023	-18.53945	-2.131538E-005	0.0004506	9
	16	59	7546.875	259.4446	-102.8338	1	279.0812	-21.62145	-1.902288E-005	0.0003885	9
	17	61	5928.309	262.9788	-126.5	1	291.822	-25.68883	2.389371E-005	-0.0002276	9
	18	64	4733.456	266.5586	-153.414	1	307.5538	-29.92197	7.445553E-006	-0.0006284	9
	19	66	3796.875	270.1631	-186.6792	1	328.3857	-34.64397	-2.036407E-005	0.0004426	9
	20	68	2987.132	275.5266	-232.5846	1	360.5697	-40.16925	-1.578316E-005	0.0001423	9
	21	71	2390.625	280.944	-285.6961	1	400.6891	-45.4805	-2.178256E-005	0.0004428	9
	22	74	1884.191	287.9244	-352.5911	1	455.2153	-50.76507	-5.451699E-006	0.0002431	8
	23	76	1516.544	297.6378	-434.6248	1	526.7704	-55.59605	-8.339242E-006	0.0046567	8
	24	78	1193.986	310.3805	-543.3441	1	625.7466	-60.26321	1.143044E-005	-0.0023323	8
	25	81	946.5144	329.6211	-675.0639	1	751.2399	-63.97461	-8.434907E-006	0.0046894	8
	26	83	751.7689	355.1939	-837.3572	1	909.5767	-67.0141	1.559893E-006	-0.002176	8
	27	86	597.4265	382.7617	-1035.491	1	1103.97	-69.71354	1.110371E-005	-0.0016607	8
	28	88	477.4305	426.9998	-1274.553	1	1344.178	-71.47816	2.363331E-008	0.0006405	8
	29	90	376.6741	486.4012	-1584.102	1	1657.096	-72.93081	1.681944E-008	0.000639	8
	30	93	298.2954	564.9971	-1959.273	1	2039.111	-73.91399	2.333759E-008	0.000638	8
	31	95	237.7717	667.6986	-2405.158	1	2496.119	-74.48476	-1.412732E-009	0.0006445	8
	32	98	189.0121	807.8576	-2955.972	1	3064.377	-74.71452	2.302746E-008	0.0006463	8
	33	100	150.2404	997.136	-3623.639	1	3758.329	-74.6144	3.359557E-008	0.0006353	8
	34	102	119.1737	1262.307	-4448.542	1	4624.17	-74.15831	-2.150764E-008	0.0006231	7
	35	105	95.0169	1606.248	-5406.901	1	5640.444	-73.4547	-2.792679E-008	0.0006682	7
	36	107	75.60484	2077.815	-6556.83	1	6878.178	-72.41695	-2.914308E-008	0.0006706	7
	37	110	54.50582	3054.261	-8556.545	1	9085.316	-70.35596	-2.825215E-008	0.0006689	7
	38	112	45.95588	3752.707	-9770.9	1	10466.77	-68.98973	-1.615028E-008	0.0006118	7
	39	115	37.20238	4847.831	-11436	1	12421.09	-67.02744	-1.820771E-008	0.0006064	7
	40	117	30.04808	6284.729	-13280.68	1	14692.66	-64.67538	-1.506696E-008	0.0006082	7
	41	120	23.91582	8219.557	-15379.88	1	17438.52	-61.87837	-2.566074E-008	0.0006116	7
	42	122	18.60119	10900.57	-17742.54	1	20823.54	-58.43449	-1.039299E-008	0.0006191	7
	43	124	15.02404	13658.02	-19652.28	1	23932.27	-55.20132	-1.090863E-008	0.0006134	7
	44	126	12.01923	16996.85	-21468.07	1	27381.94	-51.63039	-2.924473E-008	0.0006723	7
	45	129	9.450605	20982.45	-23022.63	1	31149.72	-47.65447	-1.420958E-008	0.0006066	7
	46	131	7.512019	25003.92	-24005.99	1	34662.42	-43.83352	-1.311888E-008	0.0006322	7
	47	134	5.978954	29062.76	-24521.63	1	38025.7	-40.15591	-1.754012E-008	0.0006284	7
	48	137	4.734848	33158.94	-24403.86	1	41171.15	-36.35182	-1.556377E-008	0.0006654	6
	49	140	3.75601	36730.42	-23527.18	1	43619.4	-32.64106	-1.978275E-008	0.0006749	6
	50	146	3.004808	39774.78	-22456.99	1	45676.58	-29.44924	-2.442946E-008	0.0006901	6
	51	152	2.372217	43016.28	-21595.87	1	48132.96	-26.65846	-1.930202E-008	0.0007424	6
	52	157	1.878005	44920.46	-19543.6	1	48987.75	-23.51247	-2.887698E-008	0.0006354	6
	53	166	1.512097	46503.97	-18096.37	1	49900.88	-21.26281	-2.914619E-008	0.0007427	6
	54	176	1.201923	47866.74	-16555.43	1	50648.86	-19.07872	-3.032069E-008	0.0006317	6
	55	189	0.956633	49257.25	-15200.36	1	51549.27	-17.14977	-5.607094E-008	2.591837E-005	6
