EXPLAIN
TAG	EISPOT
TITLE	LABEL	Potentiostatic EIS	Test Identifier
DATE	LABEL	8/25/2020	Date
TIME	LABEL	13:15:45	Time
NOTES	NOTES	1	Notes...
	
PSTAT	PSTAT	REF3000-16137	Potentiostat
VDC	POTEN	0.00000E+000	T	DC Voltage (V)
FREQINIT	QUANT	3.00000E+005	Initial Freq. (Hz)
FREQFINAL	QUANT	1.00000E+000	Final Freq. (Hz)
PTSPERDEC	QUANT	1.00000E+001	Points/decade
VAC	QUANT	5.00000E+001	AC Voltage (mV rms)
AREA	QUANT	1.00000E+000	Sample Area (cm^2)
SPEED	SELECTOR	2	Optimize for:
ZGUESS	QUANT	1.00000E+003	Estimated Z (ohms)
EOC	QUANT	0	Open Circuit (V)
SEQUENCER	TOGGLE	TRUE	Run as Sequence
PSTATMODEL	IQUANT	5	Pstat Model
PSTATSECTION	LABEL	REF3000-16137	Pstat Section
PSTATSERIALNO	LABEL	16137	Pstat Serial Number
CTRLMODE	IQUANT	1	Control Mode
IESTAB	IQUANT	0	I/E Stability
CASPEED	IQUANT	1	Control Amp Speed
CONVENTION	IQUANT	1	Current Convention
ICHRANGE	IQUANT	2	Ich Range
ICHRANGEMODE	TOGGLE	F	Ich Auto Range
ICHOFFSETENABLE	TOGGLE	T	Ich Offset Enable
ICHOFFSET	QUANT	0	Ich Offset (V)
ICHFILTER	IQUANT	3	Ich Filter
VCHRANGE	IQUANT	2	Vch Range
VCHRANGEMODE	TOGGLE	F	Vch Auto Range
VCHOFFSETENABLE	TOGGLE	T	Vch Offset Enable
VCHOFFSET	QUANT	0	Vch Offset (V)
VCHFILTER	IQUANT	3	Vch Filter
ACHRANGE	IQUANT	2	Ach Range
ACHOFFSETENABLE	TOGGLE	F	Ach Offset Enable
ACHOFFSET	QUANT	0	Ach Offset (V)
ACHFILTER	IQUANT	3	Ach Filter
IERANGELOWERLIMIT	IQUANT	2	I/E Range Lower Limit
IERANGEMODE	TOGGLE	F	I/E AutoRange
IERANGE	IQUANT	11	I/E Range
POSFEEDENABLE	TOGGLE	F	Positive Feedback IR Comp
POSFEEDRESISTANCE	QUANT	0	Positive Feedback Resistance (ohm)
ACHSELECT	IQUANT	0	Ach Select
CABLEID	IQUANT	13	Cable ID
DCCALDATE	LABEL	7/31/2020	DC Calibration Date
ACCALDATE	LABEL	7/31/2020	AC Calibration Date
THERMOSELECT	IQUANT	1	Thermo Select
FRAMEWORKVERSION	QUANT	6.33	Framework Version
INSTRUMENTVERSION	LABEL	3.50	Instrument Version
COMPLIANCEVOLTAGE	IQUANT	0	Compliance Voltage
ZCURVE	TABLE
	Pt	Time	Freq	Zreal	Zimag	Zsig	Zmod	Zphz	Idc	Vdc	IERange
	#	s	Hz	ohm	ohm	V	ohm	°	A	V	#
	0	14	300046.9	1859.169	-3708.588	1	4148.51	-63.37472	-6.898864E-005	0.0004372	9
	1	30	238359.4	2270.864	-4257.654	1	4825.395	-61.9263	2.432685E-005	0.0009571	9
	2	46	189328.1	3619.873	-4505.581	1	5779.597	-51.22092	2.705414E-005	-0.0015637	9
	3	54	150421.9	4428.785	-5151.393	1	6793.452	-49.3135	7.97946E-005	-0.0015207	9
	4	63	119484.4	5611.412	-4714.309	1	7328.891	-40.03459	3.963714E-005	-0.018382	8
	5	70	94921.88	6591.11	-4864.966	1	8192.107	-36.43142	-1.39987E-006	0.0008131	9
	6	79	75421.88	7597.096	-4437.469	1	8798.124	-30.28923	1.725892E-005	0.000096	8
	7	87	59859.37	8498.753	-4007.86	1	9396.368	-25.24772	-2.058862E-005	0.002949	8
	8	96	47578.12	9136.684	-3642.377	1	9835.95	-21.7349	-2.026701E-005	0.0028815	8
	9	104	37828.12	9665.05	-3259.821	1	10199.98	-18.63818	7.696108E-006	-0.0074637	8
	10	113	30046.88	10588.6	-2117.615	1	10798.27	-11.30939	-6.199258E-006	0.010198	7
	11	117	23859.38	10798.27	-1870.616	1	10959.1	-9.82798	7.114448E-006	-0.0164645	7
	12	121	18984.38	11021.1	-1681.339	1	11148.61	-8.673962	-6.365848E-006	0.0242203	7
	13	125	15046.87	11228.78	-1515.776	1	11330.62	-7.687901	6.070967E-006	-0.0083052	7
	14	129	11953.13	11385.34	-1333.82	1	11463.21	-6.681877	5.346704E-006	-0.0254748	7
	15	133	9515.62	11594.79	-1272.464	1	11664.4	-6.262835	6.0897E-006	-0.0085911	7
	16	137	7546.875	11772.31	-1241.128	1	11837.56	-6.018332	5.413179E-006	-0.0253431	7
	17	142	5928.309	11947.65	-1185.71	1	12006.34	-5.667596	-2.078227E-006	0.0217298	7
	18	146	4733.456	12064.23	-1193.64	1	12123.14	-5.65048	-2.069915E-006	0.0218017	7
	19	150	3796.875	12229.45	-1202.501	1	12288.42	-5.615748	2.244393E-006	0.0093455	7
	20	155	2987.132	12469.14	-1307.325	1	12537.48	-5.985302	7.106049E-006	-0.0164715	7
	21	159	2390.625	12590.28	-1320.464	1	12659.34	-5.987273	-5.320444E-006	0.0254471	7
	22	163	1884.191	12929.98	-1351.616	1	13000.43	-5.967656	-6.930678E-006	0.0169717	7
	23	167	1516.544	13120.58	-1561.5	1	13213.17	-6.786933	-6.932328E-006	0.0170679	7
	24	172	1193.986	13266.28	-1644.274	1	13367.79	-7.065429	-2.089337E-006	0.0218645	7
	25	176	946.5144	13499.48	-1980.769	1	13644.02	-8.347403	-4.713073E-006	0.0020718	7
	26	179	751.7689	13475.95	-2112.992	1	13640.6	-8.911265	7.470122E-006	-0.0230563	7
	27	181	597.4265	14010.82	-2369.934	1	14209.84	-9.60072	-6.848577E-006	0.0212435	7
	28	184	477.4305	14189.34	-2836.654	1	14470.1	-11.30522	-9.014857E-008	0.0005983	7
	29	186	376.6741	14466.3	-3289.313	1	14835.55	-12.80998	-9.056957E-008	0.0005942	7
	30	189	298.2954	14754.48	-3833.667	1	15244.39	-14.56513	-8.993327E-008	0.0006607	7
	31	191	237.7717	15069.85	-4476.799	1	15720.75	-16.5451	-8.628475E-008	0.0006272	7
	32	194	189.0121	15426.36	-5275.899	1	16303.61	-18.88097	-8.430493E-008	0.0005729	7
	33	196	150.2404	15809.56	-6240.353	1	16996.6	-21.54015	-8.399664E-008	0.0005652	7
	34	198	119.1737	16251.39	-7416.013	1	17863.51	-24.52868	-8.2924E-008	0.0006005	7
	35	201	95.0169	16768.97	-8852.809	1	18962.35	-27.83082	-9.301661E-008	0.0006163	7
	36	203	75.60484	17344.52	-10589.02	1	20321.4	-31.40452	-9.078035E-008	0.0006173	7
	37	206	54.50582	18326.27	-13751.67	1	22912.02	-36.88383	-8.896623E-008	0.0006588	7
	38	208	45.95588	18950.94	-15792.82	1	24668.83	-39.80623	-8.372228E-008	0.0005751	7
	39	211	37.20238	19826.95	-18765.12	1	27299.04	-43.42395	-9.130169E-008	0.0006383	7
	40	213	30.04808	20871.7	-22369.52	1	30594.5	-46.98386	-9.105746E-008	0.0006633	7
	41	215	23.91582	22207.64	-27036.28	1	34987.71	-50.60027	-9.170608E-008	0.0006343	7
	42	218	18.60119	23968.52	-33307.5	1	41035.1	-54.2607	-9.079961E-008	0.000647	7
	43	220	15.02404	25844.25	-39841.88	1	47490.01	-57.02972	-8.029588E-009	0.0006147	6
	44	222	12.01923	28216.1	-48043.5	1	55716.48	-59.57415	-9.690736E-009	0.0007018	6
	45	225	9.450605	31350.17	-58729.73	1	66573.38	-61.90652	-8.672661E-009	0.0006967	6
	46	227	7.512019	35052.2	-71096.07	1	79267.32	-63.75551	-7.671886E-009	0.0006359	6
	47	230	5.978954	39657.18	-86044.19	1	94743.3	-65.25535	-9.091385E-009	0.000703	6
	48	233	4.734848	45594.68	-104469.2	1	113985.5	-66.42155	-9.206373E-009	0.0007318	6
	49	236	3.75601	53100.36	-126545.1	1	137234.5	-67.2363	-8.939694E-009	0.0006054	6
	50	241	3.004808	62109.37	-152024.8	1	164222.8	-67.77765	-9.152167E-009	0.0006682	6
	51	247	2.372217	74054.88	-184008.9	1	198351.7	-68.07755	-9.473987E-009	0.0006502	6
	52	251	1.878005	89382.95	-222396.1	1	239686	-68.10438	-9.055251E-009	0.0006311	6
	53	256	1.512097	106583.2	-264134.5	1	284828.1	-68.025	-9.51029E-009	0.0007472	6
	54	261	1.201923	129534.8	-316243.1	1	341744	-67.72574	-9.143887E-009	0.0006477	6
	55	268	0.956633	157264	-376979.7	1	408467.4	-67.35564	-1.037577E-008	2.001313E-005	6
