EXPLAIN
TAG	EISPOT
TITLE	LABEL	Potentiostatic EIS	Test Identifier
DATE	LABEL	8/25/2020	Date
TIME	LABEL	14:40:41	Time
NOTES	NOTES	1	Notes...
	
PSTAT	PSTAT	REF3000-16137	Potentiostat
VDC	POTEN	0.00000E+000	T	DC Voltage (V)
FREQINIT	QUANT	3.00000E+005	Initial Freq. (Hz)
FREQFINAL	QUANT	1.00000E+000	Final Freq. (Hz)
PTSPERDEC	QUANT	1.00000E+001	Points/decade
VAC	QUANT	5.00000E+001	AC Voltage (mV rms)
AREA	QUANT	1.00000E+000	Sample Area (cm^2)
SPEED	SELECTOR	2	Optimize for:
ZGUESS	QUANT	1.00000E+003	Estimated Z (ohms)
EOC	QUANT	0	Open Circuit (V)
SEQUENCER	TOGGLE	TRUE	Run as Sequence
PSTATMODEL	IQUANT	5	Pstat Model
PSTATSECTION	LABEL	REF3000-16137	Pstat Section
PSTATSERIALNO	LABEL	16137	Pstat Serial Number
CTRLMODE	IQUANT	1	Control Mode
IESTAB	IQUANT	0	I/E Stability
CASPEED	IQUANT	1	Control Amp Speed
CONVENTION	IQUANT	1	Current Convention
ICHRANGE	IQUANT	2	Ich Range
ICHRANGEMODE	TOGGLE	F	Ich Auto Range
ICHOFFSETENABLE	TOGGLE	T	Ich Offset Enable
ICHOFFSET	QUANT	0	Ich Offset (V)
ICHFILTER	IQUANT	3	Ich Filter
VCHRANGE	IQUANT	2	Vch Range
VCHRANGEMODE	TOGGLE	F	Vch Auto Range
VCHOFFSETENABLE	TOGGLE	T	Vch Offset Enable
VCHOFFSET	QUANT	0	Vch Offset (V)
VCHFILTER	IQUANT	3	Vch Filter
ACHRANGE	IQUANT	2	Ach Range
ACHOFFSETENABLE	TOGGLE	F	Ach Offset Enable
ACHOFFSET	QUANT	0	Ach Offset (V)
ACHFILTER	IQUANT	3	Ach Filter
IERANGELOWERLIMIT	IQUANT	2	I/E Range Lower Limit
IERANGEMODE	TOGGLE	F	I/E AutoRange
IERANGE	IQUANT	11	I/E Range
POSFEEDENABLE	TOGGLE	F	Positive Feedback IR Comp
POSFEEDRESISTANCE	QUANT	0	Positive Feedback Resistance (ohm)
ACHSELECT	IQUANT	0	Ach Select
CABLEID	IQUANT	13	Cable ID
DCCALDATE	LABEL	7/31/2020	DC Calibration Date
ACCALDATE	LABEL	7/31/2020	AC Calibration Date
THERMOSELECT	IQUANT	1	Thermo Select
FRAMEWORKVERSION	QUANT	6.33	Framework Version
INSTRUMENTVERSION	LABEL	3.50	Instrument Version
COMPLIANCEVOLTAGE	IQUANT	0	Compliance Voltage
ZCURVE	TABLE
	Pt	Time	Freq	Zreal	Zimag	Zsig	Zmod	Zphz	Idc	Vdc	IERange
	#	s	Hz	ohm	ohm	V	ohm	°	A	V	#
	0	15	300046.9	-62.21761	-4806.591	1	4806.994	-90.74161	-1.685183E-005	0.0017557	9
	1	33	238359.4	22.39537	-6002.337	1	6002.379	-89.78622	2.327815E-005	-0.000993	9
	2	57	189328.1	153.8249	-7533.318	1	7534.888	-88.83022	1.922689E-005	-0.0021691	9
	3	64	150421.9	-191.8615	-9351.157	1	9353.125	-91.17539	1.994579E-005	-0.0008802	9
	4	72	119484.4	559.6767	-11652.5	1	11665.93	-87.25016	-6.084791E-005	0.0068118	8
	5	79	94921.88	564.6715	-14668.04	1	14678.9	-87.79539	2.224833E-005	-0.009652	8
	6	88	75421.88	661.1602	-18121.93	1	18133.98	-87.91055	-1.21678E-005	0.0102995	8
	7	96	59859.37	1060.101	-22801.98	1	22826.61	-87.33814	-2.702313E-005	0.0097688	8
	8	105	47578.12	3978.625	-30116.52	1	30378.19	-82.47437	-3.867152E-006	0.0259343	7
	9	112	37828.12	904.6256	-36379.83	1	36391.07	-88.57557	-2.663849E-005	0.007651	8
	10	121	30046.88	-210.2212	-45130.67	1	45131.16	-90.26688	-1.437768E-006	0.0007444	9
	11	130	23859.38	4306.814	-59055.79	1	59212.62	-85.82893	-6.747163E-006	0.011932	7
	12	135	18984.38	5198.868	-73036.57	1	73221.37	-85.92846	-3.311125E-006	-0.0055102	7
	13	140	15046.87	1693.831	-94154.57	1	94169.8	-88.96937	1.595683E-005	-0.0090613	8
	14	148	11953.13	4842.467	-112467.1	1	112571.3	-87.53455	-1.817427E-006	0.0222143	7
	15	155	9515.62	5412.013	-143753.6	1	143855.4	-87.84396	2.807534E-006	0.0084522	7
	16	160	7546.875	10334.18	-176238.6	1	176541.4	-86.64417	-5.42569E-006	0.0037469	7
	17	166	5928.309	21080.25	-223958.9	1	224948.8	-84.62285	4.903356E-007	0.0164187	7
	18	172	4733.456	35706.82	-302374.1	1	304475.1	-83.26523	-7.483349E-007	0.0178989	6
	19	176	3796.875	10555.48	-354971.9	1	355128.8	-88.29675	-6.833862E-006	0.0123565	7
	20	182	2987.132	-58318.79	-433308.7	1	437215.7	-97.6653	-3.428626E-006	-0.0052959	7
	21	189	2390.625	-58410.12	-508887.6	1	512228.8	-96.5478	2.773433E-006	0.0085434	7
	22	195	1884.191	257425.4	-696827.5	1	742856.9	-69.72452	7.741871E-006	-0.0247229	7
	23	202	1516.544	-93566.62	-988481	1	992900	-95.4073	-3.769887E-006	0.0257425	7
	24	210	1193.986	66797.49	-742109.4	1	745109.6	-84.85665	3.509542E-006	-0.0248618	7
	25	216	946.5144	-1896667	1196447	1	2242505	147.7556	-1.115322E-006	-0.0051913	8
	26	223	751.7689	-81597.59	-1786751	1	1788613	-92.61478	4.401886E-007	0.0019891	6
	27	229	597.4265	-26091.54	-1872394	1	1872576	-90.79836	6.141632E-007	-0.0072539	6
	28	234	477.4305	83395.18	-2816557	1	2817792	-88.30403	-1.011659E-008	0.0007078	6
	29	239	376.6741	481899.1	-3670550	1	3702049	-82.52053	-1.071077E-009	0.0006388	5
	30	243	298.2954	519287.7	-4581925	1	4611257	-83.53403	-1.052886E-009	0.0007136	5
	31	246	237.7717	439117.6	-5746012	1	5762766	-85.62988	-9.955669E-010	0.0006408	5
	32	248	189.0121	567126.9	-7115299	1	7137864	-85.44286	-1.01007E-009	0.0006832	5
	33	251	150.2404	744603.1	-8408415	1	8441320	-84.9394	-9.766958E-010	0.0005932	5
	34	254	119.1737	2268575	-8441905	1	8741407	-74.95838	-1.00507E-009	0.0005934	5
	35	257	95.0169	758904.5	-1.420127E+007	1	1.422153E+007	-86.94107	-1.01588E-009	0.0006703	5
	36	260	75.60484	1548231	-1.714643E+007	1	1.721619E+007	-84.84049	-9.924986E-010	0.0006803	5
	37	262	54.50582	719412.9	-2.458212E+007	1	2.459264E+007	-88.32368	-9.699016E-010	0.0005873	5
	38	266	45.95588	-693962.1	-2.807503E+007	1	2.80836E+007	-91.41595	-1.022861E-009	0.0006689	5
	39	269	37.20238	3996538	-3.475243E+007	1	3.498148E+007	-83.43979	-1.086758E-009	0.000641	5
	40	273	30.04808	1017723	-4.301713E+007	1	4.302916E+007	-88.64471	-1.078645E-009	0.0007216	5
	41	277	23.91582	1.040981E+007	-5.332588E+007	1	5.433244E+007	-78.95414	-1.525036E-010	0.0006885	4
	42	281	18.60119	2.82497E+007	-5.58047E+007	1	6.254766E+007	-63.15036	-2.819316E-010	0.0006011	4
	43	285	15.02404	7104860	-8.537342E+007	1	8.566854E+007	-85.24275	-1.041705E-010	0.0006639	4
	44	288	12.01923	7476818	-1.05179E+008	1	1.054444E+008	-85.93388	-9.962544E-011	0.0006423	4
	45	292	9.450605	1.01342E+007	-1.330747E+008	1	1.3346E+008	-85.64509	-9.162139E-011	0.0006001	4
	46	296	7.512019	8678619	-1.721839E+008	1	1.724025E+008	-87.11455	-1.09322E-010	0.0006626	4
	47	300	5.978954	6637241	-2.351422E+008	1	2.352358E+008	-88.38317	-8.827859E-011	0.0006975	4
	48	306	4.734848	5.132695E+007	-2.815013E+008	1	2.861423E+008	-79.66661	-1.515661E-011	0.0006748	3
	49	311	3.75601	1.131861E+007	-3.260303E+008	1	3.262267E+008	-88.0117	-9.683048E-010	0.0006225	5
	50	319	3.004808	5.310442E+007	-3.926416E+008	1	3.962165E+008	-82.29754	-1.064879E-009	0.0007053	5
	51	328	2.372217	7.34881E+007	-5.357769E+008	1	5.407933E+008	-82.18994	-1.538728E-011	0.0006485	3
	52	334	1.878005	8.781855E+007	-6.685857E+008	1	6.743285E+008	-82.51705	-1.530104E-011	0.0007224	3
	53	343	1.512097	1.052866E+008	-8.234771E+008	1	8.301806E+008	-82.71391	-1.530031E-011	0.0006106	3
	54	350	1.201923	1.335654E+008	-1.027225E+009	1	1.035872E+009	-82.59165	-1.520846E-011	0.0007804	3
	55	363	0.956633	1.681802E+008	-1.279693E+009	1	1.290697E+009	-82.51297	-1.514971E-011	6.922276E-005	3
