EXPLAIN
TAG	EISPOT
TITLE	LABEL	Potentiostatic EIS	Test Identifier
DATE	LABEL	8/25/2020	Date
TIME	LABEL	15:18:26	Time
NOTES	NOTES	1	Notes...
	
PSTAT	PSTAT	REF3000-16137	Potentiostat
VDC	POTEN	0.00000E+000	T	DC Voltage (V)
FREQINIT	QUANT	3.00000E+005	Initial Freq. (Hz)
FREQFINAL	QUANT	1.00000E+000	Final Freq. (Hz)
PTSPERDEC	QUANT	1.00000E+001	Points/decade
VAC	QUANT	5.00000E+001	AC Voltage (mV rms)
AREA	QUANT	1.00000E+000	Sample Area (cm^2)
SPEED	SELECTOR	2	Optimize for:
ZGUESS	QUANT	1.00000E+003	Estimated Z (ohms)
EOC	QUANT	0	Open Circuit (V)
SEQUENCER	TOGGLE	TRUE	Run as Sequence
PSTATMODEL	IQUANT	5	Pstat Model
PSTATSECTION	LABEL	REF3000-16137	Pstat Section
PSTATSERIALNO	LABEL	16137	Pstat Serial Number
CTRLMODE	IQUANT	1	Control Mode
IESTAB	IQUANT	0	I/E Stability
CASPEED	IQUANT	1	Control Amp Speed
CONVENTION	IQUANT	1	Current Convention
ICHRANGE	IQUANT	2	Ich Range
ICHRANGEMODE	TOGGLE	F	Ich Auto Range
ICHOFFSETENABLE	TOGGLE	T	Ich Offset Enable
ICHOFFSET	QUANT	0	Ich Offset (V)
ICHFILTER	IQUANT	3	Ich Filter
VCHRANGE	IQUANT	2	Vch Range
VCHRANGEMODE	TOGGLE	F	Vch Auto Range
VCHOFFSETENABLE	TOGGLE	T	Vch Offset Enable
VCHOFFSET	QUANT	0	Vch Offset (V)
VCHFILTER	IQUANT	3	Vch Filter
ACHRANGE	IQUANT	2	Ach Range
ACHOFFSETENABLE	TOGGLE	F	Ach Offset Enable
ACHOFFSET	QUANT	0	Ach Offset (V)
ACHFILTER	IQUANT	3	Ach Filter
IERANGELOWERLIMIT	IQUANT	2	I/E Range Lower Limit
IERANGEMODE	TOGGLE	F	I/E AutoRange
IERANGE	IQUANT	11	I/E Range
POSFEEDENABLE	TOGGLE	F	Positive Feedback IR Comp
POSFEEDRESISTANCE	QUANT	0	Positive Feedback Resistance (ohm)
ACHSELECT	IQUANT	0	Ach Select
CABLEID	IQUANT	13	Cable ID
DCCALDATE	LABEL	7/31/2020	DC Calibration Date
ACCALDATE	LABEL	7/31/2020	AC Calibration Date
THERMOSELECT	IQUANT	1	Thermo Select
FRAMEWORKVERSION	QUANT	6.33	Framework Version
INSTRUMENTVERSION	LABEL	3.50	Instrument Version
COMPLIANCEVOLTAGE	IQUANT	0	Compliance Voltage
ZCURVE	TABLE
	Pt	Time	Freq	Zreal	Zimag	Zsig	Zmod	Zphz	Idc	Vdc	IERange
	#	s	Hz	ohm	ohm	V	ohm	°	A	V	#
	0	8	300046.9	221.098	-13.16035	1	221.4893	-3.40638	-1.529903E-005	0.0012496	9
	1	11	238359.4	221.9072	-14.95674	1	222.4106	-3.855956	7.988768E-005	-0.0031575	9
	2	15	189328.1	223.3352	-14.36658	1	223.7968	-3.68062	-1.094344E-005	-0.0014211	9
	3	19	150421.9	224.1896	-15.62368	1	224.7334	-3.986475	5.180818E-005	-0.0002242	9
	4	22	119484.4	225.6292	-17.20876	1	226.2845	-4.361509	-3.212081E-005	-0.0005573	9
	5	25	94921.88	227.0458	-19.23109	1	227.8588	-4.841475	-2.010926E-005	0.0003918	9
	6	28	75421.88	228.8676	-21.68666	1	229.8927	-5.41298	-8.740579E-006	0.0008235	9
	7	30	59859.37	230.6542	-24.67922	1	231.9707	-6.10722	-1.44987E-005	0.0000974	9
	8	33	47578.12	233.2555	-28.36049	1	234.9733	-6.932311	1.584488E-005	-0.00083	9
	9	35	37828.12	235.8177	-32.7614	1	238.0826	-7.909292	-2.416687E-005	0.0008231	9
	10	38	30046.88	238.325	-37.49519	1	241.2565	-8.940942	-1.967352E-005	0.0008835	9
	11	41	23859.38	241.6438	-43.20818	1	245.4764	-10.13788	-1.8315E-005	0.0003526	9
	12	45	18984.38	245.0669	-50.00832	1	250.1172	-11.53342	-2.233382E-005	0.0004898	9
	13	47	15046.87	248.2422	-57.7352	1	254.8677	-13.09287	-2.015906E-005	0.0003972	9
	14	51	11953.13	252.0605	-67.83932	1	261.03	-15.06359	-1.592722E-005	0.0001567	9
	15	54	9515.62	255.4645	-79.9297	1	267.6768	-17.37385	-1.653877E-005	0.00037	9
	16	57	7546.875	259.0499	-94.98498	1	275.9149	-20.1363	-2.115368E-005	0.0010086	9
	17	59	5928.309	262.7149	-114.9446	1	286.7601	-23.63063	-2.098914E-005	0.0009708	9
	18	61	4733.456	265.8864	-139.457	1	300.2396	-27.67695	-2.36127E-005	0.0006953	9
	19	63	3796.875	268.9882	-169.9279	1	318.1668	-32.28183	-8.364537E-006	0.0009163	9
	20	66	2987.132	273.9304	-209.4767	1	344.8454	-37.40542	-2.386156E-005	0.0007087	9
	21	68	2390.625	279.2701	-256.8424	1	379.4203	-42.60449	-7.714638E-006	0.0009034	9
	22	71	1884.191	285.2318	-318.0642	1	427.226	-48.11506	1.126441E-005	-0.0030697	8
	23	73	1516.544	293.7097	-389.5975	1	487.9053	-52.9881	-8.222133E-006	0.004557	8
	24	75	1193.986	306.387	-486.9803	1	575.3458	-57.82366	-8.319081E-006	0.004612	8
	25	78	946.5144	321.9701	-601.9617	1	682.6585	-61.85909	-9.663097E-006	0.0024461	8
	26	80	751.7689	343.1722	-748.921	1	823.802	-65.3817	-9.766463E-006	0.0043806	8
	27	82	597.4265	371.3241	-920.8597	1	992.907	-68.03892	-9.645923E-006	0.0024071	8
	28	85	477.4305	408.468	-1138.43	1	1209.491	-70.26205	6.716273E-009	0.0006505	8
	29	87	376.6741	460.2976	-1414.983	1	1487.969	-71.98016	-1.495752E-008	0.0006467	8
	30	90	298.2954	528.7703	-1750.635	1	1828.749	-73.19333	1.908459E-008	0.0006426	8
	31	92	237.7717	618.025	-2149.81	1	2236.882	-73.96117	-3.842431E-008	0.0006946	8
	32	94	189.0121	739.1942	-2642.063	1	2743.521	-74.36948	-8.08489E-009	0.0006511	8
	33	97	150.2404	903.7833	-3241.381	1	3365.022	-74.42011	2.26076E-008	0.000633	8
	34	99	119.1737	1129.266	-3974.21	1	4131.536	-74.13757	2.756611E-008	0.0006432	8
	35	101	95.0169	1431.472	-4844.406	1	5051.473	-73.53814	-3.163992E-008	0.0006223	7
	36	104	75.60484	1840.582	-5881.311	1	6162.593	-72.62225	-3.380814E-008	0.0006694	7
	37	107	54.50582	2689.798	-7690.48	1	8147.3	-70.72237	-3.099259E-008	0.0006177	7
	38	109	45.95588	3299.518	-8798.539	1	9396.867	-69.44358	-2.282483E-008	0.0006116	7
	39	111	37.20238	4253.662	-10320.38	1	11162.61	-67.60043	-2.159457E-008	0.0006082	7
	40	114	30.04808	5510.14	-12020.55	1	13223.29	-65.3736	-2.089404E-008	0.000615	7
	41	116	23.91582	7212.757	-13969.63	1	15721.78	-62.69193	-2.89468E-008	0.0006201	7
	42	119	18.60119	9576.05	-16222.34	1	18837.86	-59.44665	-3.17102E-008	0.0006422	7
	43	121	15.02404	12075.71	-18064.69	1	21729.14	-56.23845	-1.689715E-008	0.0006531	7
	44	123	12.01923	15094.06	-19825.62	1	24917.58	-52.7165	-1.986471E-008	0.0006095	7
	45	126	9.450605	18771.03	-21397.79	1	28464.31	-48.74141	-3.115502E-008	0.0006043	7
	46	128	7.512019	22580	-22490.65	1	31869.82	-44.88641	-2.885646E-008	0.0006418	7
	47	131	5.978954	26468.95	-22867.08	1	34978.69	-40.82442	-2.929785E-008	0.0006274	7
	48	134	4.734848	30326.81	-22807.95	1	37946.25	-36.94581	-2.087875E-008	0.0006371	7
	49	137	3.75601	33688.61	-21725.57	1	40086.44	-32.81772	-3.240537E-008	0.0006534	6
	50	143	3.004808	36489.3	-20462.07	1	41834.98	-29.28236	-3.19656E-008	0.0006638	6
	51	149	2.372217	39003.07	-18949.93	1	43362.88	-25.91314	-3.21787E-008	0.0007391	6
	52	157	1.878005	40648.93	-17002.4	1	44061.52	-22.6983	-4.157045E-008	0.0006367	6
	53	166	1.512097	42150.2	-15731.34	1	44990.16	-20.46663	-4.291449E-008	0.0007207	6
	54	177	1.201923	43352.8	-14293.57	1	45648.34	-18.24757	-4.535932E-008	0.0006328	6
	55	189	0.956633	44561.73	-13037.1	1	46429.66	-16.3075	-7.058177E-008	2.622007E-005	6
