EXPLAIN
TAG	EISPOT
TITLE	LABEL	Potentiostatic EIS	Test Identifier
DATE	LABEL	8/25/2020	Date
TIME	LABEL	12:27:09	Time
NOTES	NOTES	1	Notes...
	
PSTAT	PSTAT	REF3000-16137	Potentiostat
VDC	POTEN	0.00000E+000	T	DC Voltage (V)
FREQINIT	QUANT	3.00000E+005	Initial Freq. (Hz)
FREQFINAL	QUANT	1.00000E+000	Final Freq. (Hz)
PTSPERDEC	QUANT	1.00000E+001	Points/decade
VAC	QUANT	5.00000E+001	AC Voltage (mV rms)
AREA	QUANT	1.00000E+000	Sample Area (cm^2)
SPEED	SELECTOR	2	Optimize for:
ZGUESS	QUANT	1.00000E+003	Estimated Z (ohms)
EOC	QUANT	0	Open Circuit (V)
SEQUENCER	TOGGLE	TRUE	Run as Sequence
PSTATMODEL	IQUANT	5	Pstat Model
PSTATSECTION	LABEL	REF3000-16137	Pstat Section
PSTATSERIALNO	LABEL	16137	Pstat Serial Number
CTRLMODE	IQUANT	1	Control Mode
IESTAB	IQUANT	0	I/E Stability
CASPEED	IQUANT	1	Control Amp Speed
CONVENTION	IQUANT	1	Current Convention
ICHRANGE	IQUANT	2	Ich Range
ICHRANGEMODE	TOGGLE	F	Ich Auto Range
ICHOFFSETENABLE	TOGGLE	T	Ich Offset Enable
ICHOFFSET	QUANT	0	Ich Offset (V)
ICHFILTER	IQUANT	3	Ich Filter
VCHRANGE	IQUANT	2	Vch Range
VCHRANGEMODE	TOGGLE	F	Vch Auto Range
VCHOFFSETENABLE	TOGGLE	T	Vch Offset Enable
VCHOFFSET	QUANT	0	Vch Offset (V)
VCHFILTER	IQUANT	3	Vch Filter
ACHRANGE	IQUANT	2	Ach Range
ACHOFFSETENABLE	TOGGLE	F	Ach Offset Enable
ACHOFFSET	QUANT	0	Ach Offset (V)
ACHFILTER	IQUANT	3	Ach Filter
IERANGELOWERLIMIT	IQUANT	2	I/E Range Lower Limit
IERANGEMODE	TOGGLE	F	I/E AutoRange
IERANGE	IQUANT	11	I/E Range
POSFEEDENABLE	TOGGLE	F	Positive Feedback IR Comp
POSFEEDRESISTANCE	QUANT	0	Positive Feedback Resistance (ohm)
ACHSELECT	IQUANT	0	Ach Select
CABLEID	IQUANT	13	Cable ID
DCCALDATE	LABEL	7/31/2020	DC Calibration Date
ACCALDATE	LABEL	7/31/2020	AC Calibration Date
THERMOSELECT	IQUANT	1	Thermo Select
FRAMEWORKVERSION	QUANT	6.33	Framework Version
INSTRUMENTVERSION	LABEL	3.50	Instrument Version
COMPLIANCEVOLTAGE	IQUANT	0	Compliance Voltage
ZCURVE	TABLE
	Pt	Time	Freq	Zreal	Zimag	Zsig	Zmod	Zphz	Idc	Vdc	IERange
	#	s	Hz	ohm	ohm	V	ohm	°	A	V	#
	0	12	300046.9	252.6769	-16.75826	1	253.232	-3.794464	-8.439298E-005	0.0021114	9
	1	16	238359.4	254.0538	-16.72528	1	254.6038	-3.766554	1.601607E-005	-0.0010196	9
	2	21	189328.1	255.4883	-17.53846	1	256.0896	-3.927011	-1.547615E-005	0.0011635	9
	3	28	150421.9	256.9057	-21.78107	1	257.8273	-4.846083	1.872825E-005	0.0005605	10
	4	34	119484.4	258.7215	-20.48908	1	259.5316	-4.528008	-1.652562E-005	0.0015193	9
	5	38	94921.88	260.919	-22.5037	1	261.8877	-4.929438	-2.202833E-005	0.0009517	9
	6	42	75421.88	262.8708	-26.85145	1	264.2387	-5.83236	-2.234498E-005	0.0007274	10
	7	45	59859.37	265.2236	-28.93687	1	266.7975	-6.226552	2.47401E-005	-0.0002258	9
	8	49	47578.12	268.3267	-33.00894	1	270.3494	-7.01316	1.644398E-005	-0.0008473	9
	9	52	37828.12	271.2843	-37.67021	1	273.8873	-7.90547	-1.86129E-005	0.0003528	9
	10	56	30046.88	274.7224	-43.87972	1	278.2047	-9.074848	-1.74469E-005	0.00098	9
	11	60	23859.38	279.1306	-50.65233	1	283.6892	-10.28524	-1.008965E-005	-0.000108	9
	12	63	18984.38	282.9528	-58.45725	1	288.9283	-11.67292	2.061631E-005	-3.709495E-005	9
	13	66	15046.87	287.0684	-67.43004	1	294.8815	-13.21868	-1.501847E-005	0.000101	9
	14	69	11953.13	292.6693	-78.9944	1	303.1426	-15.10478	-1.892348E-005	0.0003762	9
	15	72	9515.62	296.8544	-93.48466	1	311.2265	-17.48013	1.41218E-005	-0.0007318	9
	16	74	7546.875	301.2741	-110.1527	1	320.7799	-20.08357	1.668249E-005	-0.0008182	9
	17	76	5928.309	305.3963	-133.4871	1	333.2952	-23.60989	-1.669204E-005	0.0010094	9
	18	79	4733.456	310.4286	-160.0832	1	349.2744	-27.27945	2.762667E-005	-0.0004955	9
	19	81	3796.875	315.0694	-192.9906	1	369.4781	-31.48887	3.457471E-007	0.0006145	9
	20	83	2987.132	319.5248	-237.0709	1	397.8677	-36.57351	1.224244E-005	-0.0025493	8
	21	86	2390.625	324.8828	-289.8586	1	435.3928	-41.73917	-9.256253E-006	0.0050145	8
	22	88	1884.191	335.2055	-359.9942	1	491.8929	-47.04213	-2.397242E-006	-0.0011852	8
	23	90	1516.544	340.2849	-440.0144	1	556.2432	-52.28344	-8.89537E-006	0.0016059	8
	24	93	1193.986	353.7081	-551.1392	1	654.877	-57.30861	1.065939E-005	-0.0036393	8
	25	95	946.5144	370.0538	-685.1876	1	778.731	-61.62755	-6.566468E-006	0.0048951	8
	26	98	751.7689	392.1878	-849.6331	1	935.7818	-65.22211	-1.069672E-005	0.0046929	8
	27	100	597.4265	418.1479	-1050.751	1	1130.896	-68.29985	-8.993373E-006	0.0016959	8
	28	103	477.4305	453.7758	-1297.098	1	1374.182	-70.71816	-1.050466E-008	0.0006389	8
	29	105	376.6741	503.3191	-1615.838	1	1692.413	-72.69865	-4.123158E-008	0.0006528	8
	30	107	298.2954	567.7258	-2004.047	1	2082.911	-74.18312	-3.813325E-008	0.0006491	8
	31	110	237.7717	650.3602	-2468.202	1	2552.448	-75.23835	-2.314087E-008	0.0006507	8
	32	112	189.0121	760.6624	-3045.145	1	3138.712	-75.9748	-5.086466E-009	0.0006396	8
	33	115	150.2404	907.2944	-3751.815	1	3859.961	-76.40527	-2.478704E-008	0.0006435	8
	34	117	119.1737	1110.413	-4635.25	1	4766.399	-76.52819	-1.797142E-008	0.0006226	7
	35	119	95.0169	1370.736	-5681.033	1	5844.061	-76.43479	-1.551673E-008	0.0006107	7
	36	122	75.60484	1725.967	-6960.648	1	7171.442	-76.07378	-1.83982E-008	0.0006296	7
	37	124	54.50582	2463.163	-9267.261	1	9589.02	-75.11539	-2.166014E-008	0.0006268	7
	38	127	45.95588	2994.313	-10728.25	1	11138.28	-74.40529	-1.432045E-008	0.0006143	7
	39	129	37.20238	3837.342	-12814.73	1	13376.94	-73.32979	-1.814328E-008	0.0006326	7
	40	132	30.04808	4965.848	-15270.39	1	16057.54	-71.98576	-1.682553E-008	0.0006225	7
	41	134	23.91582	6533.219	-18284.63	1	19416.76	-70.33785	-1.16524E-008	0.0006073	7
	42	136	18.60119	8886.742	-22134.11	1	23851.48	-68.12476	-1.614712E-008	0.0006097	7
	43	139	15.02404	11453.39	-25780.37	1	28210.07	-66.04596	-2.47137E-008	0.0006286	7
	44	141	12.01923	14854.95	-29886.03	1	33374.31	-63.57018	-1.073038E-008	0.0006325	7
	45	143	9.450605	19375.15	-34554.39	1	39615.68	-60.72001	-1.110555E-008	0.0006044	7
	46	146	7.512019	24644.01	-39134.63	1	46247.66	-57.8004	-4.551219E-009	0.0006535	6
	47	149	5.978954	30770.77	-43486.25	1	53271.89	-54.71687	-3.642314E-009	0.000683	6
	48	152	4.734848	37855.31	-47785.48	1	60962.91	-51.61399	-8.25294E-009	0.0006386	6
	49	155	3.75601	45615.58	-51475.02	1	68778.33	-48.45362	-6.095312E-010	0.0006805	6
	50	158	3.004808	53643.44	-54533.65	1	76495.34	-45.47149	-4.057348E-009	0.0006938	6
	51	162	2.372217	62528.7	-57248.65	1	84777.63	-42.47591	-1.304536E-009	0.0006596	6
	52	166	1.878005	71682.22	-58921.33	1	92790.43	-39.41951	1.738641E-010	0.0006552	6
	53	171	1.512097	80055.03	-60554.45	1	100377.5	-37.10424	-1.380491E-009	0.0007518	6
	54	176	1.201923	89243.29	-61791.92	1	108547.7	-34.69867	-2.280362E-010	0.0006675	6
	55	183	0.956633	98375.9	-62481.09	1	116540.6	-32.42068	-1.001736E-008	6.03999E-005	6
