EXPLAIN
TAG	EISPOT
TITLE	LABEL	Potentiostatic EIS	Test Identifier
DATE	LABEL	8/25/2020	Date
TIME	LABEL	13:57:24	Time
NOTES	NOTES	1	Notes...
	
PSTAT	PSTAT	REF3000-16137	Potentiostat
VDC	POTEN	0.00000E+000	T	DC Voltage (V)
FREQINIT	QUANT	3.00000E+005	Initial Freq. (Hz)
FREQFINAL	QUANT	1.00000E+000	Final Freq. (Hz)
PTSPERDEC	QUANT	1.00000E+001	Points/decade
VAC	QUANT	5.00000E+001	AC Voltage (mV rms)
AREA	QUANT	1.00000E+000	Sample Area (cm^2)
SPEED	SELECTOR	2	Optimize for:
ZGUESS	QUANT	1.00000E+003	Estimated Z (ohms)
EOC	QUANT	0	Open Circuit (V)
SEQUENCER	TOGGLE	TRUE	Run as Sequence
PSTATMODEL	IQUANT	5	Pstat Model
PSTATSECTION	LABEL	REF3000-16137	Pstat Section
PSTATSERIALNO	LABEL	16137	Pstat Serial Number
CTRLMODE	IQUANT	1	Control Mode
IESTAB	IQUANT	0	I/E Stability
CASPEED	IQUANT	1	Control Amp Speed
CONVENTION	IQUANT	1	Current Convention
ICHRANGE	IQUANT	2	Ich Range
ICHRANGEMODE	TOGGLE	F	Ich Auto Range
ICHOFFSETENABLE	TOGGLE	T	Ich Offset Enable
ICHOFFSET	QUANT	0	Ich Offset (V)
ICHFILTER	IQUANT	3	Ich Filter
VCHRANGE	IQUANT	2	Vch Range
VCHRANGEMODE	TOGGLE	F	Vch Auto Range
VCHOFFSETENABLE	TOGGLE	T	Vch Offset Enable
VCHOFFSET	QUANT	0	Vch Offset (V)
VCHFILTER	IQUANT	3	Vch Filter
ACHRANGE	IQUANT	2	Ach Range
ACHOFFSETENABLE	TOGGLE	F	Ach Offset Enable
ACHOFFSET	QUANT	0	Ach Offset (V)
ACHFILTER	IQUANT	3	Ach Filter
IERANGELOWERLIMIT	IQUANT	2	I/E Range Lower Limit
IERANGEMODE	TOGGLE	F	I/E AutoRange
IERANGE	IQUANT	11	I/E Range
POSFEEDENABLE	TOGGLE	F	Positive Feedback IR Comp
POSFEEDRESISTANCE	QUANT	0	Positive Feedback Resistance (ohm)
ACHSELECT	IQUANT	0	Ach Select
CABLEID	IQUANT	13	Cable ID
DCCALDATE	LABEL	7/31/2020	DC Calibration Date
ACCALDATE	LABEL	7/31/2020	AC Calibration Date
THERMOSELECT	IQUANT	1	Thermo Select
FRAMEWORKVERSION	QUANT	6.33	Framework Version
INSTRUMENTVERSION	LABEL	3.50	Instrument Version
COMPLIANCEVOLTAGE	IQUANT	0	Compliance Voltage
ZCURVE	TABLE
	Pt	Time	Freq	Zreal	Zimag	Zsig	Zmod	Zphz	Idc	Vdc	IERange
	#	s	Hz	ohm	ohm	V	ohm	°	A	V	#
	0	14	300046.9	-144.5807	-4751.75	1	4753.95	-91.74279	5.780745E-005	2.829205E-005	9
	1	29	238359.4	99.5163	-6157.885	1	6158.689	-89.07413	2.569478E-005	-0.0016248	9
	2	44	189328.1	328.8851	-7241.151	1	7248.616	-87.39948	-2.171441E-005	0.0011584	9
	3	53	150421.9	161.0426	-9039.284	1	9040.719	-88.97933	-9.234999E-005	0.0022322	9
	4	67	119484.4	-322.7544	-11747.94	1	11752.37	-91.57371	4.869969E-007	-0.0018568	9
	5	79	94921.88	837.0575	-14516.95	1	14541.06	-86.69994	-2.51408E-005	0.0112148	8
	6	88	75421.88	695.175	-18003.54	1	18016.95	-87.78872	-2.713917E-005	0.009761	8
	7	96	59859.37	913.0289	-22255.9	1	22274.62	-87.65081	2.332054E-005	-0.0028726	8
	8	104	47578.12	4212.22	-29792.68	1	30088.98	-81.95261	3.504815E-006	-0.0250598	7
	9	111	37828.12	4525.587	-36964.17	1	37240.18	-83.01992	2.776951E-006	0.0085891	7
	10	119	30046.88	1931.981	-44275.69	1	44317.82	-87.50147	-1.976082E-005	0.0114542	8
	11	127	23859.38	4993.597	-51684.83	1	51925.5	-84.48142	2.641798E-005	-0.0091244	8
	12	135	18984.38	3956.458	-69482.92	1	69595.48	-86.74101	-1.604371E-005	0.0005788	8
	13	141	15046.87	4243.458	-89347.34	1	89448.05	-87.28084	-5.434496E-006	0.0269177	7
	14	146	11953.13	10953.29	-105576.9	1	106143.5	-84.07692	-1.233985E-005	0.0104725	8
	15	154	9515.62	8971.08	-144406.7	1	144685.1	-86.44514	4.987531E-006	-0.0007992	7
	16	160	7546.875	9916.91	-173372.4	1	173655.8	-86.72624	6.984658E-006	-0.0275452	7
	17	167	5928.309	20344.83	-219451.7	1	220392.7	-84.70338	-5.407647E-006	0.0270403	7
	18	173	4733.456	24721.52	-261389.7	1	262556.2	-84.59719	5.00009E-006	-0.0007489	7
	19	179	3796.875	30740.73	-344619.6	1	345988	-84.9026	1.332736E-006	-0.0202687	7
	20	185	2987.132	83172.02	-458116.8	1	465605.6	-79.70992	-6.889163E-007	0.0264851	6
	21	191	2390.625	88367.36	-574299.9	1	581058.6	-81.25252	5.958465E-007	-0.0281149	6
	22	196	1884.191	112254.2	-692839.9	1	701874.7	-80.79689	-2.90105E-007	-0.0073855	6
	23	201	1516.544	202109.1	-860535.3	1	883950.9	-76.78281	-2.918278E-007	-0.0073423	6
	24	207	1193.986	220281.5	-1072245	1	1094638	-78.3907	-7.568436E-007	0.0235115	6
	25	213	946.5144	577806.9	-1370179	1	1487028	-67.13477	3.757576E-009	0.0174448	6
	26	217	751.7689	493338.6	-1942856	1	2004513	-75.75233	-7.479956E-007	0.0179493	6
	27	221	597.4265	476585	-2078586	1	2132523	-77.08624	7.344486E-007	-0.0160599	6
	28	225	477.4305	1042594	-2322157	1	2545470	-65.82104	-9.512238E-009	0.0006124	6
	29	229	376.6741	1821366	-2650942	1	3216344	-55.50845	-9.645058E-010	0.0005979	5
	30	233	298.2954	2039787	-3057404	1	3675384	-56.29025	-9.374733E-009	0.000648	6
	31	237	237.7717	2917482	-3142145	1	4287747	-47.12329	-1.067393E-009	0.0006781	5
	32	241	189.0121	3650922	-3321862	1	4935990	-42.29809	-1.075943E-009	0.0006866	5
	33	244	150.2404	4318248	-3354372	1	5468005	-37.8397	-1.023174E-009	0.0006094	5
	34	247	119.1737	5322017	-4405061	1	6908576	-39.61473	-1.013324E-009	0.0006963	5
	35	250	95.0169	5664122	-3046188	1	6431294	-28.27154	-1.100623E-009	0.0006765	5
	36	252	75.60484	6376729	-2735563	1	6938730	-23.21893	-9.550005E-010	0.0005986	5
	37	255	54.50582	6942285	-2459559	1	7365104	-19.50856	-9.667199E-010	0.0005948	5
	38	258	45.95588	7840128	-1278457	1	7943680	-9.261473	-1.200369E-010	0.000699	4
	39	261	37.20238	8039402	-1260340	1	8137594	-8.909759	-1.532704E-010	0.0006393	4
	40	264	30.04808	8103912	-1116884	1	8180514	-7.847091	-1.484734E-010	0.0006715	4
	41	267	23.91582	8352407	-1103671	1	8425010	-7.527346	-5.451389E-011	0.0006896	4
	42	269	18.60119	8183085	-850258.8	1	8227139	-5.931999	-2.253751E-011	0.0006854	4
	43	272	15.02404	8564145	-941951.5	1	8615791	-6.276608	-8.01265E-011	0.0006338	4
	44	274	12.01923	8719516	-910077.7	1	8766881	-5.958529	-8.776394E-011	0.0007008	4
	45	277	9.450605	8880011	-907679.4	1	8926280	-5.836277	-1.219514E-010	0.0006096	4
	46	280	7.512019	9098337	-927104.4	1	9145450	-5.818256	-1.703462E-010	0.0006902	4
	47	283	5.978954	9304025	-946631.3	1	9352058	-5.809526	-1.571821E-010	0.0006002	4
	48	287	4.734848	9.61909E+006	-1014550	1	9.672446E+006	-6.020871	-6.026647E-011	0.0006238	4
	49	292	3.75601	9.908975E+006	-1085629	1	9.968268E+006	-6.2524	-8.502676E-011	0.0006756	4
	50	297	3.004808	1.027744E+007	-1175722	1	1.034447E+007	-6.526168	-1.457843E-010	0.0006554	4
	51	304	2.372217	1.06248E+007	-1260253	1	1.069928E+007	-6.764494	-5.362531E-011	0.0006796	4
	52	308	1.878005	1.093895E+007	-1391117	1	1.102705E+007	-7.247459	-9.037922E-011	0.0006235	4
	53	313	1.512097	1.128754E+007	-1548564	1	1.139327E+007	-7.81178	-1.255433E-010	0.0007408	4
	54	318	1.201923	1.172283E+007	-1748108	1	1.185245E+007	-8.481447	-5.408125E-011	0.0006411	4
	55	324	0.956633	1.221765E+007	-2000323	1	1.238032E+007	-9.298204	-2.698859E-010	1.331604E-005	4
