EXPLAIN
TAG	EISPOT
TITLE	LABEL	Potentiostatic EIS	Test Identifier
DATE	LABEL	8/25/2020	Date
TIME	LABEL	15:48:36	Time
NOTES	NOTES	1	Notes...
	
PSTAT	PSTAT	REF3000-16137	Potentiostat
VDC	POTEN	0.00000E+000	T	DC Voltage (V)
FREQINIT	QUANT	3.00000E+005	Initial Freq. (Hz)
FREQFINAL	QUANT	1.00000E+000	Final Freq. (Hz)
PTSPERDEC	QUANT	1.00000E+001	Points/decade
VAC	QUANT	5.00000E+001	AC Voltage (mV rms)
AREA	QUANT	1.00000E+000	Sample Area (cm^2)
SPEED	SELECTOR	2	Optimize for:
ZGUESS	QUANT	1.00000E+003	Estimated Z (ohms)
EOC	QUANT	0	Open Circuit (V)
SEQUENCER	TOGGLE	TRUE	Run as Sequence
PSTATMODEL	IQUANT	5	Pstat Model
PSTATSECTION	LABEL	REF3000-16137	Pstat Section
PSTATSERIALNO	LABEL	16137	Pstat Serial Number
CTRLMODE	IQUANT	1	Control Mode
IESTAB	IQUANT	0	I/E Stability
CASPEED	IQUANT	1	Control Amp Speed
CONVENTION	IQUANT	1	Current Convention
ICHRANGE	IQUANT	2	Ich Range
ICHRANGEMODE	TOGGLE	F	Ich Auto Range
ICHOFFSETENABLE	TOGGLE	T	Ich Offset Enable
ICHOFFSET	QUANT	0	Ich Offset (V)
ICHFILTER	IQUANT	3	Ich Filter
VCHRANGE	IQUANT	2	Vch Range
VCHRANGEMODE	TOGGLE	F	Vch Auto Range
VCHOFFSETENABLE	TOGGLE	T	Vch Offset Enable
VCHOFFSET	QUANT	0	Vch Offset (V)
VCHFILTER	IQUANT	3	Vch Filter
ACHRANGE	IQUANT	2	Ach Range
ACHOFFSETENABLE	TOGGLE	F	Ach Offset Enable
ACHOFFSET	QUANT	0	Ach Offset (V)
ACHFILTER	IQUANT	3	Ach Filter
IERANGELOWERLIMIT	IQUANT	2	I/E Range Lower Limit
IERANGEMODE	TOGGLE	F	I/E AutoRange
IERANGE	IQUANT	11	I/E Range
POSFEEDENABLE	TOGGLE	F	Positive Feedback IR Comp
POSFEEDRESISTANCE	QUANT	0	Positive Feedback Resistance (ohm)
ACHSELECT	IQUANT	0	Ach Select
CABLEID	IQUANT	13	Cable ID
DCCALDATE	LABEL	7/31/2020	DC Calibration Date
ACCALDATE	LABEL	7/31/2020	AC Calibration Date
THERMOSELECT	IQUANT	1	Thermo Select
FRAMEWORKVERSION	QUANT	6.33	Framework Version
INSTRUMENTVERSION	LABEL	3.50	Instrument Version
COMPLIANCEVOLTAGE	IQUANT	0	Compliance Voltage
ZCURVE	TABLE
	Pt	Time	Freq	Zreal	Zimag	Zsig	Zmod	Zphz	Idc	Vdc	IERange
	#	s	Hz	ohm	ohm	V	ohm	°	A	V	#
	0	8	300046.9	223.3644	-13.5218	1	223.7733	-3.464283	-1.399221E-005	0.0011524	9
	1	13	238359.4	224.4793	-14.18823	1	224.9272	-3.616572	-7.541839E-006	0.0013463	9
	2	16	189328.1	224.9947	-14.8811	1	225.4862	-3.784019	8.219585E-005	-0.002575	9
	3	19	150421.9	226.6581	-16.4654	1	227.2554	-4.154909	5.723954E-006	0.0012171	9
	4	22	119484.4	227.8365	-17.5912	1	228.5146	-4.415033	7.530014E-005	-0.0028172	9
	5	25	94921.88	229.4502	-19.60314	1	230.286	-4.883224	-2.125296E-005	0.0009303	9
	6	27	75421.88	230.8887	-22.11776	1	231.9457	-5.471897	2.739059E-005	-0.0004878	9
	7	30	59859.37	232.7759	-25.23555	1	234.1398	-6.187347	7.756126E-006	-0.0006633	9
	8	32	47578.12	234.9629	-28.9354	1	236.7379	-7.020559	1.557912E-005	-0.0007858	9
	9	35	37828.12	237.5665	-33.341	1	239.8947	-7.988931	1.12742E-005	0.0002459	9
	10	38	30046.88	240.5788	-39.02638	1	243.7236	-9.214184	2.573201E-005	0.0006216	10
	11	42	23859.38	243.3685	-44.60339	1	247.422	-10.38563	-2.172784E-005	0.0004516	9
	12	46	18984.38	246.7155	-51.86396	1	252.1079	-11.87172	-2.154317E-005	0.0009495	9
	13	49	15046.87	249.5218	-61.28362	1	256.9373	-13.79896	-2.29382E-005	0.0007226	9
	14	51	11953.13	253.0514	-71.72989	1	263.0213	-15.8259	2.649355E-005	-0.0008171	9
	15	55	9515.62	256.4124	-84.72224	1	270.0466	-18.28428	-2.131561E-005	0.0009529	9
	16	58	7546.875	259.2674	-101.6434	1	278.4797	-21.40721	5.154307E-006	-0.000626	9
	17	62	5928.309	262.6401	-123.8972	1	290.3969	-25.25501	-2.235533E-005	0.0005133	9
	18	64	4733.456	266.4198	-150.7164	1	306.0963	-29.49728	-8.400159E-006	0.0008811	9
	19	67	3796.875	269.7968	-183.1111	1	326.0675	-34.16474	-9.553519E-006	-8.603172E-005	9
	20	69	2987.132	274.6411	-227.6439	1	356.7204	-39.65458	-1.74838E-006	-0.0003757	9
	21	71	2390.625	279.31	-278.0936	1	394.1448	-44.87497	-2.044949E-006	-0.0010533	8
	22	74	1884.191	286.2347	-345.7271	1	448.8402	-50.37793	4.867824E-006	-0.0028812	8
	23	76	1516.544	297.248	-424.6835	1	518.3748	-55.01074	1.694023E-006	-0.0022208	8
	24	78	1193.986	309.4755	-532.3812	1	615.7961	-59.83038	1.562578E-006	-0.0021782	8
	25	81	946.5144	326.4484	-660.0715	1	736.3851	-63.6846	1.115515E-005	-0.0016819	8
	26	83	751.7689	350.4558	-818.0172	1	889.9277	-66.80869	-5.704875E-006	0.0003568	8
	27	86	597.4265	381.844	-1012.423	1	1082.037	-69.33559	-9.588419E-006	0.0023773	8
	28	88	477.4305	421.666	-1245.84	1	1315.265	-71.30114	1.71668E-008	0.0006395	8
	29	91	376.6741	479.0459	-1548.808	1	1621.201	-72.81318	9.024982E-009	0.0006398	8
	30	93	298.2954	555.2905	-1916.109	1	1994.949	-73.83835	1.244446E-008	0.0006521	8
	31	95	237.7717	654.4835	-2352.625	1	2441.966	-74.45382	-2.729593E-009	0.0006506	8
	32	98	189.0121	789.7825	-2891.585	1	2997.502	-74.72334	8.633045E-009	0.0006478	8
	33	100	150.2404	972.779	-3545.748	1	3676.769	-74.65833	3.417047E-008	0.0006384	8
	34	103	119.1737	1228.918	-4353.631	1	4523.753	-74.23698	-2.125959E-008	0.0006156	7
	35	105	95.0169	1561.085	-5293.073	1	5518.479	-73.56763	-1.980991E-008	0.0006151	7
	36	107	75.60484	2016.19	-6420.337	1	6729.469	-72.56605	-2.551328E-008	0.0006266	7
	37	110	54.50582	2959.829	-8386.942	1	8893.896	-70.5616	-2.135548E-008	0.0006071	7
	38	113	45.95588	3636.288	-9587.06	1	10253.5	-69.2287	-1.647687E-008	0.0006182	7
	39	115	37.20238	4699.614	-11235.03	1	12178.35	-67.30043	-1.534335E-008	0.000619	7
	40	117	30.04808	6087.604	-13057.54	1	14406.88	-65.00443	-2.448269E-008	0.0006254	7
	41	120	23.91582	7982.168	-15154.08	1	17127.79	-62.2227	-2.341534E-008	0.0006113	7
	42	122	18.60119	10565.34	-17515.25	1	20455.09	-58.90129	-2.3163E-008	0.0006315	7
	43	124	15.02404	13276.79	-19464.7	1	23561.57	-55.70227	-2.772176E-008	0.0006195	7
	44	127	12.01923	16563.78	-21287.32	1	26972.37	-52.11332	-2.80525E-008	0.000614	7
	45	129	9.450605	20486.45	-22900.25	1	30726.47	-48.18434	-2.053971E-008	0.0006425	7
	46	132	7.512019	24533.67	-24040.15	1	34348.66	-44.41788	-1.839642E-008	0.0006439	7
	47	134	5.978954	28619.03	-24467.09	1	37652.19	-40.52792	-2.616693E-008	0.0006256	7
	48	137	4.734848	32745.82	-24533.1	1	40916.52	-36.84047	-1.207496E-008	0.0006891	6
	49	141	3.75601	36318.35	-23518.26	1	43268.13	-32.92542	-2.388642E-008	0.000651	6
	50	146	3.004808	39402.29	-22413.19	1	45330.91	-29.6325	-2.485381E-008	0.0006972	6
	51	153	2.372217	42613.01	-21475.96	1	47718.82	-26.74704	-2.320889E-008	0.0007416	6
	52	157	1.878005	44468.14	-19352.48	1	48496.74	-23.51862	-3.01514E-008	0.0006362	6
	53	166	1.512097	46002.39	-17845.1	1	49342.35	-21.20211	-3.197949E-008	0.0007369	6
	54	177	1.201923	47439.25	-16353.93	1	50179.02	-19.02082	-3.228153E-008	0.0006469	6
	55	189	0.956633	48916.35	-15068.44	1	51184.64	-17.12119	-5.734586E-008	2.896633E-005	6
