EXPLAIN
TAG	EISPOT
TITLE	LABEL	Potentiostatic EIS	Test Identifier
DATE	LABEL	8/25/2020	Date
TIME	LABEL	12:17:31	Time
NOTES	NOTES	1	Notes...
	
PSTAT	PSTAT	REF3000-16137	Potentiostat
VDC	POTEN	0.00000E+000	T	DC Voltage (V)
FREQINIT	QUANT	3.00000E+005	Initial Freq. (Hz)
FREQFINAL	QUANT	1.00000E+000	Final Freq. (Hz)
PTSPERDEC	QUANT	1.00000E+001	Points/decade
VAC	QUANT	5.00000E+001	AC Voltage (mV rms)
AREA	QUANT	1.00000E+000	Sample Area (cm^2)
SPEED	SELECTOR	2	Optimize for:
ZGUESS	QUANT	1.00000E+003	Estimated Z (ohms)
EOC	QUANT	0	Open Circuit (V)
SEQUENCER	TOGGLE	TRUE	Run as Sequence
PSTATMODEL	IQUANT	5	Pstat Model
PSTATSECTION	LABEL	REF3000-16137	Pstat Section
PSTATSERIALNO	LABEL	16137	Pstat Serial Number
CTRLMODE	IQUANT	1	Control Mode
IESTAB	IQUANT	0	I/E Stability
CASPEED	IQUANT	1	Control Amp Speed
CONVENTION	IQUANT	1	Current Convention
ICHRANGE	IQUANT	2	Ich Range
ICHRANGEMODE	TOGGLE	F	Ich Auto Range
ICHOFFSETENABLE	TOGGLE	T	Ich Offset Enable
ICHOFFSET	QUANT	0	Ich Offset (V)
ICHFILTER	IQUANT	3	Ich Filter
VCHRANGE	IQUANT	2	Vch Range
VCHRANGEMODE	TOGGLE	F	Vch Auto Range
VCHOFFSETENABLE	TOGGLE	T	Vch Offset Enable
VCHOFFSET	QUANT	0	Vch Offset (V)
VCHFILTER	IQUANT	3	Vch Filter
ACHRANGE	IQUANT	2	Ach Range
ACHOFFSETENABLE	TOGGLE	F	Ach Offset Enable
ACHOFFSET	QUANT	0	Ach Offset (V)
ACHFILTER	IQUANT	3	Ach Filter
IERANGELOWERLIMIT	IQUANT	2	I/E Range Lower Limit
IERANGEMODE	TOGGLE	F	I/E AutoRange
IERANGE	IQUANT	11	I/E Range
POSFEEDENABLE	TOGGLE	F	Positive Feedback IR Comp
POSFEEDRESISTANCE	QUANT	0	Positive Feedback Resistance (ohm)
ACHSELECT	IQUANT	0	Ach Select
CABLEID	IQUANT	13	Cable ID
DCCALDATE	LABEL	7/31/2020	DC Calibration Date
ACCALDATE	LABEL	7/31/2020	AC Calibration Date
THERMOSELECT	IQUANT	1	Thermo Select
FRAMEWORKVERSION	QUANT	6.33	Framework Version
INSTRUMENTVERSION	LABEL	3.50	Instrument Version
COMPLIANCEVOLTAGE	IQUANT	0	Compliance Voltage
ZCURVE	TABLE
	Pt	Time	Freq	Zreal	Zimag	Zsig	Zmod	Zphz	Idc	Vdc	IERange
	#	s	Hz	ohm	ohm	V	ohm	°	A	V	#
	0	8	300046.9	225.3977	-13.46743	1	225.7996	-3.419336	-9.609241E-006	0.0012618	9
	1	13	238359.4	225.4352	-13.51542	1	225.84	-3.430924	-8.003074E-005	0.0033128	9
	2	16	189328.1	227.769	-15.71489	1	228.3105	-3.946859	-8.523942E-005	0.002245	9
	3	19	150421.9	228.8598	-16.38384	1	229.4455	-4.094761	2.193274E-005	-0.0016335	9
	4	22	119484.4	230.6111	-18.15658	1	231.3248	-4.501752	3.192588E-005	0.0006406	9
	5	25	94921.88	232.5948	-20.53457	1	233.4995	-5.045263	-2.347356E-005	0.0008344	9
	6	28	75421.88	234.1821	-23.16572	1	235.3251	-5.649425	-1.729621E-005	0.0009622	9
	7	30	59859.37	236.5184	-26.79943	1	238.0319	-6.464498	-1.230904E-005	0.0008186	9
	8	33	47578.12	238.9804	-30.48136	1	240.9165	-7.268688	-2.001947E-006	-0.0003729	9
	9	36	37828.12	241.7615	-34.92833	1	244.2716	-8.220887	2.222405E-005	-0.0008667	9
	10	40	30046.88	244.877	-40.27752	1	248.1674	-9.340411	-2.134947E-005	0.0005361	9
	11	44	23859.38	248.6819	-46.75858	1	253.0396	-10.64875	-1.912102E-005	0.0003442	9
	12	47	18984.38	252.3937	-53.97707	1	258.1009	-12.07147	-1.016869E-005	-7.28603E-005	9
	13	49	15046.87	256.1283	-63.22307	1	263.8159	-13.86579	-1.572078E-005	0.0010283	9
	14	52	11953.13	260.3535	-73.96801	1	270.657	-15.86017	-2.464636E-005	0.0009599	9
	15	55	9515.62	264.5429	-87.19585	1	278.5428	-18.24271	1.568779E-006	0.0005875	9
	16	59	7546.875	268.4756	-103.7246	1	287.8159	-21.12386	-7.819143E-006	0.000919	9
	17	61	5928.309	272.9893	-125.0865	1	300.2828	-24.61773	2.629226E-005	-0.000787	9
	18	63	4733.456	277.2924	-150.8686	1	315.6777	-28.54962	-2.092574E-005	0.0009806	9
	19	65	3796.875	282.0959	-182.3336	1	335.8923	-32.87675	2.670002E-005	-0.0007621	9
	20	68	2987.132	285.4395	-225.4816	1	363.7549	-38.30681	-2.120663E-005	0.000994	9
	21	70	2390.625	291.0797	-276.2071	1	401.2701	-43.49822	-2.270175E-005	0.000652	9
	22	73	1884.191	299.2327	-340.6531	1	453.4145	-48.70364	9.992264E-006	-0.0033467	8
	23	75	1516.544	307.842	-417.0918	1	518.3939	-53.57016	-1.041603E-005	0.0032685	8
	24	77	1193.986	320.0089	-522.5961	1	612.7906	-58.519	1.105469E-005	-0.0016271	8
	25	80	946.5144	336.8672	-648.4719	1	730.7498	-62.5491	1.007314E-005	-0.0034031	8
	26	82	751.7689	359.8552	-805.0901	1	881.8536	-65.91655	1.123205E-005	-0.0030115	8
	27	84	597.4265	388.3746	-993.314	1	1066.54	-68.64506	-9.63304E-006	0.0023813	8
	28	87	477.4305	422.7445	-1224.22	1	1295.155	-70.94931	-1.957507E-008	0.0006585	8
	29	89	376.6741	473.653	-1523.082	1	1595.031	-72.72518	-6.971965E-009	0.0006507	8
	30	92	298.2954	539.9056	-1886.389	1	1962.132	-74.02829	4.580553E-009	0.0006392	8
	31	94	237.7717	625.3629	-2319.976	1	2402.784	-74.91415	-1.718712E-008	0.0006473	8
	32	96	189.0121	740.2631	-2857.55	1	2951.877	-75.4765	-6.231851E-009	0.0006963	8
	33	99	150.2404	893.8511	-3514.215	1	3626.11	-75.72926	1.506714E-008	0.0006458	8
	34	101	119.1737	1105.571	-4333.177	1	4471.992	-75.68687	-1.740982E-008	0.0006141	7
	35	103	95.0169	1382.117	-5293.978	1	5471.421	-75.36819	-1.782435E-008	0.0006228	7
	36	106	75.60484	1757.24	-6464.066	1	6698.66	-74.79181	-1.673717E-008	0.0006106	7
	37	109	54.50582	2535.386	-8551.505	1	8919.44	-73.48574	-2.035538E-008	0.000626	7
	38	111	45.95588	3095.844	-9858.95	1	10333.59	-72.567	-1.443305E-008	0.0006126	7
	39	113	37.20238	3985.924	-11711.5	1	12371.21	-71.20438	-1.67028E-008	0.00063	7
	40	116	30.04808	5161.226	-13845.34	1	14776.05	-69.55569	-1.603967E-008	0.0006253	7
	41	118	23.91582	6798.964	-16429.97	1	17781.16	-67.5195	-2.075275E-008	0.0006238	7
	42	121	18.60119	9177.637	-19604.65	1	21646.51	-64.91403	-1.454939E-008	0.0006285	7
	43	123	15.02404	11755.25	-22499.59	1	25385.38	-62.41451	-7.14287E-009	0.0006222	7
	44	125	12.01923	15094.91	-25635.75	1	29749.75	-59.50946	-1.612915E-008	0.0006275	7
	45	128	9.450605	19411.21	-28934.18	1	34842.24	-56.14334	-6.44562E-009	0.0006083	7
	46	130	7.512019	24243.03	-31916.43	1	40079.71	-52.78049	-1.126906E-008	0.0006639	7
	47	133	5.978954	29666.94	-34399.03	1	45424.89	-49.22435	-6.808437E-009	0.0006939	6
	48	136	4.734848	35587.3	-36420.82	1	50920.85	-45.66319	-1.083875E-008	0.0006402	6
	49	139	3.75601	41742.2	-37617.94	1	56191.82	-42.02508	-1.674291E-009	0.0006767	6
	50	143	3.004808	47736.62	-38380.74	1	61252.48	-38.79964	-1.638081E-009	0.0006777	6
	51	146	2.372217	53914.04	-38455.54	1	66223.5	-35.49931	-1.929938E-009	0.0006344	6
	52	150	1.878005	59678.13	-37549.57	1	70508.51	-32.17817	-7.232526E-011	0.0006478	6
	53	155	1.512097	64298.79	-36410.21	1	73892.07	-29.52139	-3.800312E-009	0.000742	6
	54	166	1.201923	69161.53	-35132.55	1	77573.28	-26.92958	-4.412713E-009	0.0006612	6
	55	179	0.956633	74260.41	-34340.09	1	81815.96	-24.81714	-1.833179E-008	2.543833E-005	6
