EXPLAIN
TAG	EISPOT
TITLE	LABEL	Potentiostatic EIS	Test Identifier
DATE	LABEL	8/25/2020	Date
TIME	LABEL	12:45:49	Time
NOTES	NOTES	1	Notes...
	
PSTAT	PSTAT	REF3000-16137	Potentiostat
VDC	POTEN	0.00000E+000	T	DC Voltage (V)
FREQINIT	QUANT	3.00000E+005	Initial Freq. (Hz)
FREQFINAL	QUANT	1.00000E+000	Final Freq. (Hz)
PTSPERDEC	QUANT	1.00000E+001	Points/decade
VAC	QUANT	5.00000E+001	AC Voltage (mV rms)
AREA	QUANT	1.00000E+000	Sample Area (cm^2)
SPEED	SELECTOR	2	Optimize for:
ZGUESS	QUANT	1.00000E+003	Estimated Z (ohms)
EOC	QUANT	0	Open Circuit (V)
SEQUENCER	TOGGLE	TRUE	Run as Sequence
PSTATMODEL	IQUANT	5	Pstat Model
PSTATSECTION	LABEL	REF3000-16137	Pstat Section
PSTATSERIALNO	LABEL	16137	Pstat Serial Number
CTRLMODE	IQUANT	1	Control Mode
IESTAB	IQUANT	0	I/E Stability
CASPEED	IQUANT	1	Control Amp Speed
CONVENTION	IQUANT	1	Current Convention
ICHRANGE	IQUANT	2	Ich Range
ICHRANGEMODE	TOGGLE	F	Ich Auto Range
ICHOFFSETENABLE	TOGGLE	T	Ich Offset Enable
ICHOFFSET	QUANT	0	Ich Offset (V)
ICHFILTER	IQUANT	3	Ich Filter
VCHRANGE	IQUANT	2	Vch Range
VCHRANGEMODE	TOGGLE	F	Vch Auto Range
VCHOFFSETENABLE	TOGGLE	T	Vch Offset Enable
VCHOFFSET	QUANT	0	Vch Offset (V)
VCHFILTER	IQUANT	3	Vch Filter
ACHRANGE	IQUANT	2	Ach Range
ACHOFFSETENABLE	TOGGLE	F	Ach Offset Enable
ACHOFFSET	QUANT	0	Ach Offset (V)
ACHFILTER	IQUANT	3	Ach Filter
IERANGELOWERLIMIT	IQUANT	2	I/E Range Lower Limit
IERANGEMODE	TOGGLE	F	I/E AutoRange
IERANGE	IQUANT	11	I/E Range
POSFEEDENABLE	TOGGLE	F	Positive Feedback IR Comp
POSFEEDRESISTANCE	QUANT	0	Positive Feedback Resistance (ohm)
ACHSELECT	IQUANT	0	Ach Select
CABLEID	IQUANT	13	Cable ID
DCCALDATE	LABEL	7/31/2020	DC Calibration Date
ACCALDATE	LABEL	7/31/2020	AC Calibration Date
THERMOSELECT	IQUANT	1	Thermo Select
FRAMEWORKVERSION	QUANT	6.33	Framework Version
INSTRUMENTVERSION	LABEL	3.50	Instrument Version
COMPLIANCEVOLTAGE	IQUANT	0	Compliance Voltage
ZCURVE	TABLE
	Pt	Time	Freq	Zreal	Zimag	Zsig	Zmod	Zphz	Idc	Vdc	IERange
	#	s	Hz	ohm	ohm	V	ohm	°	A	V	#
	0	14	300046.9	356.7189	-29.99702	1	357.9779	-4.806778	2.136242E-005	-0.0006373	9
	1	22	238359.4	358.3472	-28.36761	1	359.4682	-4.526231	2.073614E-005	-0.0005911	9
	2	26	189328.1	362.0731	-26.98176	1	363.077	-4.261817	2.44588E-005	-0.001748	9
	3	32	150421.9	365.0615	-27.46456	1	366.0931	-4.302411	-8.768067E-006	0.0016823	9
	4	38	119484.4	368.2748	-16.40178	1	368.6398	-2.550085	3.675981E-005	-0.0074913	8
	5	40	94921.88	368.3747	-30.15935	1	369.6073	-4.680445	2.742907E-005	-0.000459	9
	6	44	75421.88	371.4859	-32.7124	1	372.9234	-5.032386	-2.222976E-005	0.0010279	9
	7	46	59859.37	374.5679	-36.22119	1	376.3152	-5.5234	-1.718423E-005	0.0010657	9
	8	49	47578.12	377.951	-40.13163	1	380.0757	-6.061076	3.081554E-005	-0.0007096	9
	9	51	37828.12	382.429	-45.90662	1	385.1744	-6.845011	-1.165797E-005	-0.0000992	9
	10	54	30046.88	385.6058	-48.74332	1	388.6744	-7.204383	1.424573E-005	-0.0039558	8
	11	57	23859.38	390.4143	-57.25312	1	394.5899	-8.342793	1.503188E-005	-0.0041666	8
	12	59	18984.38	395.8553	-66.50411	1	401.4028	-9.5367	6.401565E-007	0.0036909	8
	13	62	15046.87	402.8185	-76.30679	1	409.9823	-10.72656	1.056871E-005	-0.0048712	8
	14	64	11953.13	408.8593	-90.14975	1	418.68	-12.43424	1.091856E-005	-0.0003844	8
	15	66	9515.62	414.5916	-105.4073	1	427.7814	-14.26486	1.537286E-005	-0.003603	8
	16	68	7546.875	422.6759	-122.5666	1	440.088	-16.17098	1.440581E-005	-0.0030663	8
	17	71	5928.309	428.3058	-147.2343	1	452.906	-18.97091	1.457503E-005	-0.0030162	8
	18	73	4733.456	433.0916	-174.791	1	467.0334	-21.97847	1.076837E-005	-0.0003419	8
	19	75	3796.875	440.3373	-209.2945	1	487.5461	-25.42197	-1.413906E-005	0.0042754	8
	20	78	2987.132	447.1708	-254.6012	1	514.5712	-29.65546	-1.32635E-005	0.0038323	8
	21	80	2390.625	452.8875	-311.4662	1	549.6529	-34.51763	-3.559111E-006	0.0048628	8
	22	82	1884.191	458.5485	-384.8491	1	598.6447	-40.00595	-1.289167E-005	0.0054567	8
	23	85	1516.544	469.265	-468.1557	1	662.857	-44.93219	6.539624E-006	0.0017039	8
	24	87	1193.986	478.9697	-587.741	1	758.1895	-50.82226	-1.337199E-005	0.0038389	8
	25	89	946.5144	494.4846	-730.9906	1	882.5317	-55.92329	6.860055E-006	-0.0041876	8
	26	92	751.7689	514.2187	-906.8239	1	1042.473	-60.44439	-1.038213E-005	0.0016093	8
	27	95	597.4265	533.1743	-1124.656	1	1244.639	-64.63542	6.214297E-006	0.0017719	8
	28	97	477.4305	567.3457	-1390.115	1	1501.432	-67.79822	-6.56998E-008	0.0006362	8
	29	99	376.6741	610.6192	-1737.113	1	1841.308	-70.63271	-8.734763E-008	0.0006402	8
	30	102	298.2954	666.822	-2161.258	1	2261.788	-72.85322	-6.413836E-008	0.0006454	8
	31	104	237.7717	738.8503	-2670.823	1	2771.136	-74.53655	-7.138478E-008	0.0006541	8
	32	107	189.0121	834.9331	-3306.764	1	3410.543	-75.82943	-8.982281E-008	0.0006565	8
	33	109	150.2404	961.288	-4090.365	1	4201.804	-76.77476	-8.281491E-008	0.0006554	8
	34	111	119.1737	1134.866	-5074.141	1	5199.502	-77.39289	-2.381651E-008	0.0006332	7
	35	114	95.0169	1354.01	-6246.702	1	6391.762	-77.76998	-2.257616E-008	0.0006074	7
	36	116	75.60484	1650.587	-7696.239	1	7871.248	-77.89532	-2.577499E-008	0.0006447	7
	37	119	54.50582	2262.188	-10346.85	1	10591.26	-77.66717	-2.303996E-008	0.0006028	7
	38	121	45.95588	2697.376	-12058.45	1	12356.46	-77.39098	-2.419036E-008	0.000616	7
	39	124	37.20238	3398.777	-14543.64	1	14935.5	-76.84632	-2.463863E-008	0.0006242	7
	40	126	30.04808	4336.885	-17532.17	1	18060.61	-76.10581	-2.348723E-008	0.0006095	7
	41	129	23.91582	5660.479	-21327.67	1	22066.05	-75.13607	-2.760613E-008	0.0006255	7
	42	131	18.60119	7638.335	-26315.86	1	27401.98	-73.81432	-2.635453E-008	0.0006243	7
	43	133	15.02404	9876.02	-31313.67	1	32834.16	-72.49525	-1.789679E-008	0.0006044	7
	44	135	12.01923	12905.64	-37344.95	1	39512.04	-70.93591	-2.126631E-008	0.0006037	7
	45	138	9.450605	17138.29	-44744.51	1	47914.43	-69.04188	-1.327259E-009	0.0006714	6
	46	140	7.512019	22247.97	-52793.06	1	57289.43	-67.14854	-3.111043E-009	0.0007383	6
	47	143	5.978954	28617.33	-61696	1	68009.91	-65.11605	-3.71047E-009	0.0006491	6
	48	146	4.734848	36579.39	-71716.05	1	80506.16	-62.97575	-3.091178E-009	0.0006849	6
	49	149	3.75601	46026.93	-82445.09	1	94422.83	-60.82652	-6.414543E-009	0.0006433	6
	50	153	3.004808	56793.84	-93399.96	1	109311.9	-58.69741	-3.202125E-009	0.0006443	6
	51	157	2.372217	69966.73	-105806.3	1	126847.6	-56.52446	-6.087828E-009	0.0006392	6
	52	161	1.878005	85079.8	-118362.4	1	145767.8	-54.29114	-5.457969E-009	0.000676	6
	53	165	1.512097	100469.5	-130651.1	1	164814.5	-52.44004	-4.900964E-009	0.0005546	6
	54	171	1.201923	118555.3	-144427.5	1	186854.7	-50.61866	-5.649563E-009	0.0006872	6
	55	177	0.956633	138255	-158881.8	1	210613.1	-48.97103	-6.820456E-009	1.938767E-005	6
