EXPLAIN
TAG	EISPOT
TITLE	LABEL	Potentiostatic EIS	Test Identifier
DATE	LABEL	8/25/2020	Date
TIME	LABEL	14:08:51	Time
NOTES	NOTES	1	Notes...
	
PSTAT	PSTAT	REF3000-16137	Potentiostat
VDC	POTEN	0.00000E+000	T	DC Voltage (V)
FREQINIT	QUANT	3.00000E+005	Initial Freq. (Hz)
FREQFINAL	QUANT	1.00000E+000	Final Freq. (Hz)
PTSPERDEC	QUANT	1.00000E+001	Points/decade
VAC	QUANT	5.00000E+001	AC Voltage (mV rms)
AREA	QUANT	1.00000E+000	Sample Area (cm^2)
SPEED	SELECTOR	2	Optimize for:
ZGUESS	QUANT	1.00000E+003	Estimated Z (ohms)
EOC	QUANT	0	Open Circuit (V)
SEQUENCER	TOGGLE	TRUE	Run as Sequence
PSTATMODEL	IQUANT	5	Pstat Model
PSTATSECTION	LABEL	REF3000-16137	Pstat Section
PSTATSERIALNO	LABEL	16137	Pstat Serial Number
CTRLMODE	IQUANT	1	Control Mode
IESTAB	IQUANT	0	I/E Stability
CASPEED	IQUANT	1	Control Amp Speed
CONVENTION	IQUANT	1	Current Convention
ICHRANGE	IQUANT	2	Ich Range
ICHRANGEMODE	TOGGLE	F	Ich Auto Range
ICHOFFSETENABLE	TOGGLE	T	Ich Offset Enable
ICHOFFSET	QUANT	0	Ich Offset (V)
ICHFILTER	IQUANT	3	Ich Filter
VCHRANGE	IQUANT	2	Vch Range
VCHRANGEMODE	TOGGLE	F	Vch Auto Range
VCHOFFSETENABLE	TOGGLE	T	Vch Offset Enable
VCHOFFSET	QUANT	0	Vch Offset (V)
VCHFILTER	IQUANT	3	Vch Filter
ACHRANGE	IQUANT	2	Ach Range
ACHOFFSETENABLE	TOGGLE	F	Ach Offset Enable
ACHOFFSET	QUANT	0	Ach Offset (V)
ACHFILTER	IQUANT	3	Ach Filter
IERANGELOWERLIMIT	IQUANT	2	I/E Range Lower Limit
IERANGEMODE	TOGGLE	F	I/E AutoRange
IERANGE	IQUANT	11	I/E Range
POSFEEDENABLE	TOGGLE	F	Positive Feedback IR Comp
POSFEEDRESISTANCE	QUANT	0	Positive Feedback Resistance (ohm)
ACHSELECT	IQUANT	0	Ach Select
CABLEID	IQUANT	13	Cable ID
DCCALDATE	LABEL	7/31/2020	DC Calibration Date
ACCALDATE	LABEL	7/31/2020	AC Calibration Date
THERMOSELECT	IQUANT	1	Thermo Select
FRAMEWORKVERSION	QUANT	6.33	Framework Version
INSTRUMENTVERSION	LABEL	3.50	Instrument Version
COMPLIANCEVOLTAGE	IQUANT	0	Compliance Voltage
ZCURVE	TABLE
	Pt	Time	Freq	Zreal	Zimag	Zsig	Zmod	Zphz	Idc	Vdc	IERange
	#	s	Hz	ohm	ohm	V	ohm	°	A	V	#
	0	18	300046.9	-18.11469	-4822.238	1	4822.272	-90.21523	-8.733751E-005	0.0042261	9
	1	33	238359.4	-317.7023	-5903.82	1	5912.362	-93.08028	-9.327111E-005	0.0042544	9
	2	50	189328.1	254.2015	-7525.795	1	7530.087	-88.06544	-1.963536E-005	0.0016602	9
	3	59	150421.9	-680.5862	-9424.056	1	9448.599	-94.13062	-2.773976E-005	-0.0010825	9
	4	67	119484.4	-53.06405	-11380.17	1	11380.29	-90.26716	-2.754174E-005	-0.0010297	9
	5	78	94921.88	567.2133	-14665.41	1	14676.37	-87.78508	2.633437E-005	-0.0052507	8
	6	87	75421.88	759.6383	-18246.46	1	18262.27	-87.61604	-2.715641E-005	0.0097911	8
	7	95	59859.37	732.3356	-22784.86	1	22796.63	-88.15907	-2.668348E-005	0.0076374	8
	8	104	47578.12	464.6575	-28980.49	1	28984.21	-89.08143	8.395502E-006	0.0041678	8
	9	114	37828.12	4258.665	-37257.41	1	37500.02	-83.47917	-1.194838E-006	-0.0132717	7
	10	121	30046.88	4568.294	-46318.88	1	46543.61	-84.3673	-7.341263E-006	0.0238131	7
	11	129	23859.38	2254.227	-56090.91	1	56136.19	-87.69859	2.604519E-005	-0.0051765	8
	12	135	18984.38	1753.524	-68913.95	1	68936.26	-88.54242	2.623594E-005	-0.005183	8
	13	142	15046.87	-4254.969	-95052.8	1	95148	-92.5631	-2.384982E-005	0.0051597	8
	14	148	11953.13	-12336.49	-110664.1	1	111349.6	-96.3609	2.928468E-005	-0.000888	9
	15	156	9515.62	-5765.611	-134366.9	1	134490.5	-92.45702	-2.516372E-006	0.0078475	8
	16	164	7546.875	6485.848	-182276.8	1	182392.1	-87.96214	7.360039E-006	-0.0181498	7
	17	170	5928.309	14768.46	-238263.7	1	238720.9	-86.45313	1.295874E-006	-0.0202141	7
	18	176	4733.456	38565.3	-302508.1	1	304956.4	-82.73483	-4.072747E-007	0.0258733	6
	19	181	3796.875	-60728.73	-366153.2	1	371155.1	-99.4171	2.352424E-005	-0.0029945	8
	20	189	2987.132	-243507.7	-413060.1	1	479494.1	-120.5202	2.74819E-005	-0.0074986	8
	21	196	2390.625	90020.63	-673480.1	1	679469.8	-82.3867	4.706857E-007	0.0164187	7
	22	205	1884.191	46027.36	-736624.6	1	738061.2	-86.42457	5.968116E-007	-0.0280301	6
	23	210	1516.544	72566.43	-909894	1	912783.1	-85.44016	-2.91214E-007	-0.0072866	6
	24	217	1193.986	918557.9	-725390.8	1	1170444	-38.29837	5.061838E-007	0.0163808	7
	25	225	946.5144	231577.2	-1190815	1	1213124	-78.99508	-6.921064E-007	0.0264729	6
	26	230	751.7689	-912233.6	-451221.2	1	1017728	-153.6815	6.736333E-006	-0.0102928	7
	27	236	597.4265	773205.1	-61478.6	1	775645.4	-4.546102	5.394021E-006	-0.0271243	7
	28	241	477.4305	78678.37	-2781309	1	2782422	-88.37964	-9.057484E-008	0.0006052	7
	29	247	376.6741	546109.8	-3634537	1	3675336	-81.45491	-1.031358E-009	0.000584	5
	30	251	298.2954	616135.6	-4526403	1	4568145	-82.24852	-1.043686E-009	0.0006789	5
	31	254	237.7717	776087.2	-5708510	1	5761025	-82.25795	-9.94869E-010	0.000584	5
	32	257	189.0121	793200	-7019637	1	7064310	-83.55308	-1.050265E-009	0.000657	5
	33	260	150.2404	669512.2	-9197121	1	9221458	-85.83645	-9.700595E-010	0.0006166	5
	34	262	119.1737	657342.3	-8312857	1	8338806	-85.47872	-1.033307E-009	0.0006697	5
	35	265	95.0169	1924231	-1.38385E+007	1	1.397165E+007	-82.08383	-9.640124E-010	0.0005832	5
	36	268	75.60484	1811336	-1.633707E+007	1	1.643718E+007	-83.6733	-9.898075E-010	0.0006011	5
	37	271	54.50582	2769148	-2.312889E+007	1	2.329407E+007	-83.17265	-1.022085E-009	0.00068	5
	38	274	45.95588	7172576	-3.049488E+007	1	3.132704E+007	-76.76427	-1.31985E-010	0.0006015	4
	39	277	37.20238	7356472	-3.297236E+007	1	3.378304E+007	-77.42271	-1.065238E-009	0.0006837	5
	40	280	30.04808	8656962	-4.110098E+007	1	4.200278E+007	-78.10583	-9.75751E-010	0.0005787	5
	41	284	23.91582	1.34606E+007	-4.648136E+007	1	4.839116E+007	-73.84943	-4.345474E-011	0.0006101	4
	42	288	18.60119	3.04562E+007	-7.435409E+007	1	8.034993E+007	-67.72549	-3.486707E-011	0.0006434	4
	43	292	15.02404	2.870341E+007	-7.424436E+007	1	7.959969E+007	-68.86314	-1.042056E-010	0.0007008	4
	44	295	12.01923	3.787322E+007	-9.050493E+007	1	9.810975E+007	-67.29236	-1.022251E-010	0.0006105	4
	45	299	9.450605	4.894466E+007	-9.857498E+007	1	1.100573E+008	-63.59458	-1.28585E-010	0.0006982	4
	46	303	7.512019	6.926525E+007	-1.185477E+008	1	1.372998E+008	-59.70304	-1.092398E-010	0.0006088	4
	47	308	5.978954	9.148234E+007	-1.314341E+008	1	1.601372E+008	-55.16084	-9.234209E-011	0.0006863	4
	48	313	4.734848	1.547632E+008	-1.468124E+008	1	2.133202E+008	-43.48979	-1.520863E-011	0.0007381	3
	49	318	3.75601	1.840256E+008	-1.554288E+008	1	2.408808E+008	-40.18457	-1.679063E-011	0.0006934	3
	50	324	3.004808	1.909832E+008	-1.741289E+008	1	2.584482E+008	-42.35699	-1.069964E-009	0.0006627	5
	51	333	2.372217	2.553174E+008	-1.641279E+008	1	3.035209E+008	-32.73448	-1.619838E-011	0.0007869	3
	52	338	1.878005	2.94117E+008	-1.648592E+008	1	3.371697E+008	-29.27162	-1.656427E-011	0.000687	3
	53	349	1.512097	3.29972E+008	-1.616986E+008	1	3.674615E+008	-26.10658	-1.647524E-011	0.0008059	3
	54	354	1.201923	3.699221E+008	-1.585068E+008	1	4.02451E+008	-23.1945	-1.638089E-011	0.0006926	3
	55	367	0.956633	4.101722E+008	-1.538794E+008	1	4.380869E+008	-20.56399	-1.816336E-011	8.003975E-005	3
