EXPLAIN
TAG	EISPOT
TITLE	LABEL	Potentiostatic EIS	Test Identifier
DATE	LABEL	8/25/2020	Date
TIME	LABEL	12:52:10	Time
NOTES	NOTES	1	Notes...
	
PSTAT	PSTAT	REF3000-16137	Potentiostat
VDC	POTEN	0.00000E+000	T	DC Voltage (V)
FREQINIT	QUANT	3.00000E+005	Initial Freq. (Hz)
FREQFINAL	QUANT	1.00000E+000	Final Freq. (Hz)
PTSPERDEC	QUANT	1.00000E+001	Points/decade
VAC	QUANT	5.00000E+001	AC Voltage (mV rms)
AREA	QUANT	1.00000E+000	Sample Area (cm^2)
SPEED	SELECTOR	2	Optimize for:
ZGUESS	QUANT	1.00000E+003	Estimated Z (ohms)
EOC	QUANT	0	Open Circuit (V)
SEQUENCER	TOGGLE	TRUE	Run as Sequence
PSTATMODEL	IQUANT	5	Pstat Model
PSTATSECTION	LABEL	REF3000-16137	Pstat Section
PSTATSERIALNO	LABEL	16137	Pstat Serial Number
CTRLMODE	IQUANT	1	Control Mode
IESTAB	IQUANT	0	I/E Stability
CASPEED	IQUANT	1	Control Amp Speed
CONVENTION	IQUANT	1	Current Convention
ICHRANGE	IQUANT	2	Ich Range
ICHRANGEMODE	TOGGLE	F	Ich Auto Range
ICHOFFSETENABLE	TOGGLE	T	Ich Offset Enable
ICHOFFSET	QUANT	0	Ich Offset (V)
ICHFILTER	IQUANT	3	Ich Filter
VCHRANGE	IQUANT	2	Vch Range
VCHRANGEMODE	TOGGLE	F	Vch Auto Range
VCHOFFSETENABLE	TOGGLE	T	Vch Offset Enable
VCHOFFSET	QUANT	0	Vch Offset (V)
VCHFILTER	IQUANT	3	Vch Filter
ACHRANGE	IQUANT	2	Ach Range
ACHOFFSETENABLE	TOGGLE	F	Ach Offset Enable
ACHOFFSET	QUANT	0	Ach Offset (V)
ACHFILTER	IQUANT	3	Ach Filter
IERANGELOWERLIMIT	IQUANT	2	I/E Range Lower Limit
IERANGEMODE	TOGGLE	F	I/E AutoRange
IERANGE	IQUANT	11	I/E Range
POSFEEDENABLE	TOGGLE	F	Positive Feedback IR Comp
POSFEEDRESISTANCE	QUANT	0	Positive Feedback Resistance (ohm)
ACHSELECT	IQUANT	0	Ach Select
CABLEID	IQUANT	13	Cable ID
DCCALDATE	LABEL	7/31/2020	DC Calibration Date
ACCALDATE	LABEL	7/31/2020	AC Calibration Date
THERMOSELECT	IQUANT	1	Thermo Select
FRAMEWORKVERSION	QUANT	6.33	Framework Version
INSTRUMENTVERSION	LABEL	3.50	Instrument Version
COMPLIANCEVOLTAGE	IQUANT	0	Compliance Voltage
ZCURVE	TABLE
	Pt	Time	Freq	Zreal	Zimag	Zsig	Zmod	Zphz	Idc	Vdc	IERange
	#	s	Hz	ohm	ohm	V	ohm	°	A	V	#
	0	15	300046.9	897.7458	-179.4477	1	915.5048	-11.3037	-9.051092E-005	0.0021575	9
	1	28	238359.4	1015.73	-205.44	1	1036.298	-11.4343	2.629519E-005	0.0008656	9
	2	48	189328.1	1098.224	-186.9374	1	1114.02	-9.66018	2.536041E-005	-0.0014595	9
	3	55	150421.9	1178.347	-178.8805	1	1191.847	-8.631956	-1.253149E-005	0.0017165	9
	4	64	119484.4	1247.797	-126.6448	1	1254.207	-5.795377	3.270256E-005	-0.0158329	8
	5	71	94921.88	1293.772	-118.7638	1	1299.212	-5.244857	-1.713375E-005	0.002888	8
	6	74	75421.88	1321.536	-113.603	1	1326.409	-4.91323	8.134008E-006	0.0029442	8
	7	77	59859.37	1359.066	-109.8193	1	1363.496	-4.619746	-8.546554E-006	0.0080151	8
	8	80	47578.12	1389.552	-112.6037	1	1394.108	-4.632894	2.016417E-005	-0.0072868	8
	9	83	37828.12	1428.092	-108.0445	1	1432.173	-4.326561	-1.436557E-005	0.0012032	8
	10	87	30046.88	1461.799	-114.1868	1	1466.252	-4.466525	1.812971E-005	-0.0079683	8
	11	90	23859.38	1499.384	-119.9962	1	1504.178	-4.575648	1.576401E-005	-0.0001485	8
	12	94	18984.38	1543.012	-124.879	1	1548.057	-4.626976	-1.491375E-005	0.0092474	8
	13	97	15046.87	1577.27	-136.3291	1	1583.15	-4.940004	2.127778E-005	-0.0074846	8
	14	100	11953.13	1613.343	-152.9491	1	1620.576	-5.415606	5.18002E-006	-0.0059852	8
	15	103	9515.62	1652.176	-163.278	1	1660.224	-5.64399	5.205125E-006	-0.0061018	8
	16	107	7546.875	1696.009	-184.1712	1	1705.979	-6.197517	2.159874E-005	-0.0044657	8
	17	111	5928.309	1730.719	-216.0224	1	1744.149	-7.114668	1.787154E-005	-0.0079229	8
	18	115	4733.456	1787.567	-244.4244	1	1804.2	-7.786099	1.800837E-005	-0.0079829	8
	19	119	3796.875	1833.81	-280.5915	1	1855.153	-8.699362	1.880972E-005	-0.0080757	8
	20	123	2987.132	1880.957	-333.4868	1	1910.291	-10.05386	2.238754E-005	-0.004653	8
	21	128	2390.625	1927.498	-382.9217	1	1965.167	-11.23623	-2.020956E-005	0.0094786	8
	22	131	1884.191	1981.148	-447.694	1	2031.102	-12.73366	-2.243732E-006	-0.0038478	8
	23	136	1516.544	2040.661	-537.1437	1	2110.171	-14.74691	2.258736E-005	-0.0046787	8
	24	140	1193.986	2101.72	-643.4116	1	2198	-17.02122	2.256893E-005	-0.004671	8
	25	144	946.5144	2159.864	-792.1478	1	2300.545	-20.14093	-1.485219E-005	0.001171	8
	26	147	751.7689	2228.946	-948.6686	1	2422.431	-23.05524	2.267258E-005	-0.0046953	8
	27	150	597.4265	2308.397	-1111.427	1	2562.024	-25.7095	2.258808E-005	-0.0046868	8
	28	153	477.4305	2356.946	-1364.172	1	2723.262	-30.06174	-3.273378E-007	0.0006525	8
	29	157	376.6741	2435.715	-1665.856	1	2950.895	-34.36935	-3.262796E-007	0.0006814	8
	30	159	298.2954	2523.772	-2031.336	1	3239.715	-38.82993	-3.156659E-007	0.000634	8
	31	161	237.7717	2622.873	-2469.637	1	3602.578	-43.27646	-2.975991E-007	0.0006246	8
	32	164	189.0121	2747.031	-3021.161	1	4083.332	-47.7209	-6.350916E-008	0.0005922	7
	33	166	150.2404	2883.677	-3696.528	1	4688.274	-52.04206	-6.922919E-008	0.00066	7
	34	169	119.1737	3049.042	-4537.735	1	5466.964	-56.10165	-6.378293E-008	0.0005985	7
	35	171	95.0169	3246.079	-5555.234	1	6434.101	-59.70106	-7.171025E-008	0.000652	7
	36	173	75.60484	3495.029	-6819.186	1	7662.671	-62.86355	-6.607026E-008	0.0005783	7
	37	176	54.50582	3964.76	-9148.927	1	9971.07	-66.57012	-7.132992E-008	0.0006115	7
	38	179	45.95588	4299.296	-10670.92	1	11504.45	-68.05557	-7.094211E-008	0.0006649	7
	39	181	37.20238	4813.515	-12898.14	1	13767.06	-69.53471	-6.517042E-008	0.0005757	7
	40	183	30.04808	5486.363	-15601.81	1	16538.33	-70.62582	-6.883916E-008	0.0006096	7
	41	186	23.91582	6436	-19097.27	1	20152.61	-71.37559	-6.476377E-008	0.0006014	7
	42	188	18.60119	7840.211	-23789.09	1	25047.75	-71.75924	-6.855922E-008	0.0006602	7
	43	190	15.02404	9437.584	-28609.2	1	30125.64	-71.74335	-7.090699E-008	0.0006224	7
	44	193	12.01923	11624.83	-34508.62	1	36414.03	-71.383	-6.737468E-008	0.0006276	7
	45	195	9.450605	14759.01	-42097.3	1	44609.54	-70.67971	-7.244643E-009	0.0006791	6
	46	198	7.512019	18661.07	-50576.27	1	53909.13	-69.74751	-6.004739E-009	0.0007196	6
	47	200	5.978954	23645.55	-60367.25	1	64832.99	-68.60997	-9.057588E-009	0.0006996	6
	48	203	4.734848	30073.18	-71817.65	1	77859.95	-67.27882	-5.82221E-009	0.0006608	6
	49	206	3.75601	38096.95	-84738.69	1	92908.68	-65.7922	-1.09078E-008	0.0006396	6
	50	210	3.004808	47612.43	-98668.2	1	109555.3	-64.24033	-8.189195E-009	0.0006558	6
	51	214	2.372217	59718.74	-114961.6	1	129547.3	-62.54961	-1.028115E-008	0.0007226	6
	52	218	1.878005	74365.83	-132988.7	1	152368.9	-60.78656	-1.024454E-008	0.0006616	6
	53	223	1.512097	89741.74	-151109.3	1	175748.7	-59.29451	-9.336364E-009	0.0005598	6
	54	228	1.201923	108618.5	-172039.2	1	203458.8	-57.73335	-1.003033E-008	0.0006673	6
	55	234	0.956633	129692.7	-194931	1	234133	-56.36313	-1.050381E-008	2.117472E-005	6
