EXPLAIN
TAG	EISPOT
TITLE	LABEL	Potentiostatic EIS	Test Identifier
DATE	LABEL	8/25/2020	Date
TIME	LABEL	16:01:55	Time
NOTES	NOTES	1	Notes...
	
PSTAT	PSTAT	REF3000-16137	Potentiostat
VDC	POTEN	0.00000E+000	T	DC Voltage (V)
FREQINIT	QUANT	3.00000E+005	Initial Freq. (Hz)
FREQFINAL	QUANT	1.00000E+000	Final Freq. (Hz)
PTSPERDEC	QUANT	1.00000E+001	Points/decade
VAC	QUANT	5.00000E+001	AC Voltage (mV rms)
AREA	QUANT	1.00000E+000	Sample Area (cm^2)
SPEED	SELECTOR	2	Optimize for:
ZGUESS	QUANT	1.00000E+003	Estimated Z (ohms)
EOC	QUANT	0	Open Circuit (V)
SEQUENCER	TOGGLE	TRUE	Run as Sequence
PSTATMODEL	IQUANT	5	Pstat Model
PSTATSECTION	LABEL	REF3000-16137	Pstat Section
PSTATSERIALNO	LABEL	16137	Pstat Serial Number
CTRLMODE	IQUANT	1	Control Mode
IESTAB	IQUANT	0	I/E Stability
CASPEED	IQUANT	1	Control Amp Speed
CONVENTION	IQUANT	1	Current Convention
ICHRANGE	IQUANT	2	Ich Range
ICHRANGEMODE	TOGGLE	F	Ich Auto Range
ICHOFFSETENABLE	TOGGLE	T	Ich Offset Enable
ICHOFFSET	QUANT	0	Ich Offset (V)
ICHFILTER	IQUANT	3	Ich Filter
VCHRANGE	IQUANT	2	Vch Range
VCHRANGEMODE	TOGGLE	F	Vch Auto Range
VCHOFFSETENABLE	TOGGLE	T	Vch Offset Enable
VCHOFFSET	QUANT	0	Vch Offset (V)
VCHFILTER	IQUANT	3	Vch Filter
ACHRANGE	IQUANT	2	Ach Range
ACHOFFSETENABLE	TOGGLE	F	Ach Offset Enable
ACHOFFSET	QUANT	0	Ach Offset (V)
ACHFILTER	IQUANT	3	Ach Filter
IERANGELOWERLIMIT	IQUANT	2	I/E Range Lower Limit
IERANGEMODE	TOGGLE	F	I/E AutoRange
IERANGE	IQUANT	11	I/E Range
POSFEEDENABLE	TOGGLE	F	Positive Feedback IR Comp
POSFEEDRESISTANCE	QUANT	0	Positive Feedback Resistance (ohm)
ACHSELECT	IQUANT	0	Ach Select
CABLEID	IQUANT	13	Cable ID
DCCALDATE	LABEL	7/31/2020	DC Calibration Date
ACCALDATE	LABEL	7/31/2020	AC Calibration Date
THERMOSELECT	IQUANT	1	Thermo Select
FRAMEWORKVERSION	QUANT	6.33	Framework Version
INSTRUMENTVERSION	LABEL	3.50	Instrument Version
COMPLIANCEVOLTAGE	IQUANT	0	Compliance Voltage
ZCURVE	TABLE
	Pt	Time	Freq	Zreal	Zimag	Zsig	Zmod	Zphz	Idc	Vdc	IERange
	#	s	Hz	ohm	ohm	V	ohm	°	A	V	#
	0	8	300046.9	223.9937	-14.12981	1	224.4389	-3.609508	-8.971699E-006	0.0013585	9
	1	11	238359.4	225.5085	-14.0275	1	225.9443	-3.559433	-8.537309E-005	0.0020828	9
	2	14	189328.1	225.9064	-14.87753	1	226.3958	-3.76789	2.242145E-005	-0.0014636	9
	3	17	150421.9	227.7149	-16.28008	1	228.2961	-4.089305	6.495397E-006	0.0013277	9
	4	20	119484.4	228.6737	-17.64725	1	229.3536	-4.412896	5.670331E-006	0.0013722	9
	5	24	94921.88	230.2301	-19.66245	1	231.0682	-4.881413	-2.364917E-005	0.000711	9
	6	27	75421.88	231.8683	-22.59104	1	232.9662	-5.564792	1.26812E-005	0.0001387	9
	7	29	59859.37	233.8233	-25.68954	1	235.2303	-6.269786	7.900258E-006	-0.0006515	9
	8	32	47578.12	236.1504	-29.48875	1	237.9845	-7.117838	2.748933E-005	-0.0004853	9
	9	34	37828.12	238.4011	-33.86255	1	240.7941	-8.084226	-2.194712E-005	0.0004585	9
	10	38	30046.88	241.4718	-39.93204	1	244.7513	-9.389985	7.95599E-006	0.000709	10
	11	42	23859.38	244.0891	-45.73015	1	248.3359	-10.61137	2.639293E-005	-0.000775	9
	12	45	18984.38	247.4215	-53.25896	1	253.0887	-12.1479	1.60533E-005	-0.0008122	9
	13	49	15046.87	250.7271	-62.93821	1	258.5059	-14.09139	-2.243185E-005	0.0004801	9
	14	52	11953.13	253.9835	-73.01604	1	264.2706	-16.03907	-2.340744E-005	0.0008816	9
	15	54	9515.62	257.1441	-87.65359	1	271.673	-18.82288	-2.187082E-005	0.0009583	9
	16	57	7546.875	260.2441	-105.5854	1	280.8474	-22.08322	-2.21495E-005	0.0004756	9
	17	59	5928.309	263.4228	-129.1683	1	293.3872	-26.12084	-2.431761E-005	0.0008869	9
	18	61	4733.456	266.8418	-157.24	1	309.724	-30.50926	1.561312E-005	-0.0007915	9
	19	64	3796.875	270.6357	-191.2891	1	331.4139	-35.25321	-1.835688E-005	0.0008962	9
	20	66	2987.132	275.5874	-238.1152	1	364.2078	-40.82793	-1.004008E-005	-7.956344E-005	9
	21	69	2390.625	281.9717	-292.0104	1	405.9287	-46.00198	7.435226E-006	-0.000637	9
	22	71	1884.191	289.3312	-361.0805	1	462.7005	-51.29506	1.107019E-005	-0.0016924	8
	23	73	1516.544	298.421	-444.0597	1	535.0178	-56.09776	-1.032734E-005	0.0032799	8
	24	76	1193.986	313.3553	-555.4962	1	637.7834	-60.57266	1.101188E-005	-0.0016324	8
	25	78	946.5144	330.9571	-689.8083	1	765.0935	-64.36919	1.122521E-006	0.002779	8
	26	81	751.7689	353.6019	-854.6569	1	924.9177	-67.52338	5.150113E-006	-0.0030284	8
	27	83	597.4265	388.1242	-1060.864	1	1129.634	-69.90462	-5.74179E-006	0.0003606	8
	28	86	477.4305	432.2535	-1301.412	1	1371.319	-71.62651	-2.821145E-008	0.0006914	8
	29	88	376.6741	493.4417	-1617.255	1	1690.857	-73.03249	1.470157E-008	0.0006428	8
	30	90	298.2954	574.5764	-2000.388	1	2081.271	-73.97422	2.062071E-008	0.0006421	8
	31	93	237.7717	680.4612	-2455.202	1	2547.753	-74.50925	2.872673E-009	0.0006424	8
	32	95	189.0121	824.662	-3016.245	1	3126.947	-74.70864	9.206329E-009	0.0006436	8
	33	98	150.2404	1019.413	-3696.249	1	3834.249	-74.58132	2.258722E-010	0.0006423	8
	34	100	119.1737	1290.198	-4535.863	1	4715.789	-74.12193	-2.473728E-008	0.0006264	7
	35	102	95.0169	1647.277	-5511.308	1	5752.22	-73.35909	-2.464266E-008	0.0006288	7
	36	105	75.60484	2133.529	-6679.478	1	7011.944	-72.28571	-2.297566E-008	0.0006386	7
	37	107	54.50582	3139.904	-8708.928	1	9257.668	-70.17381	-2.285062E-008	0.0006142	7
	38	110	45.95588	3859.156	-9939.35	1	10662.26	-68.78028	-2.409587E-008	0.0006731	7
	39	112	37.20238	4986.84	-11622.27	1	12646.97	-66.77698	-1.618128E-008	0.0006138	7
	40	115	30.04808	6463.442	-13482.33	1	14951.56	-64.38689	-1.450969E-008	0.0006016	7
	41	117	23.91582	8445.593	-15576.39	1	17718.69	-61.53323	-1.249307E-008	0.0006034	7
	42	120	18.60119	11176.52	-17941.93	1	21138.29	-58.08009	-1.79792E-008	0.0006201	7
	43	122	15.02404	13992.25	-19853.01	1	24288.37	-54.82411	-1.555856E-008	0.0006289	7
	44	124	12.01923	17366.63	-21632.09	1	27740.71	-51.24188	-1.975897E-008	0.0006096	7
	45	127	9.450605	21372.12	-23152.36	1	31508.71	-47.28967	-1.819411E-008	0.0006187	7
	46	129	7.512019	25442.39	-24100.04	1	35044.64	-43.44796	-1.568785E-008	0.0006329	7
	47	132	5.978954	29487.39	-24488.1	1	38329.8	-39.70827	-1.972808E-008	0.0006266	7
	48	135	4.734848	33576.2	-24527.15	1	41580.55	-36.14783	-2.132635E-008	0.0006519	6
	49	138	3.75601	37086.18	-23575.71	1	43945.4	-32.44415	-1.373633E-008	0.0006804	6
	50	144	3.004808	40104.14	-22484.21	1	45976.97	-29.27699	-1.893707E-008	0.0006799	6
	51	150	2.372217	43268.29	-21580.39	1	48351.4	-26.50809	-1.978979E-008	0.0006009	6
	52	154	1.878005	45208.38	-19575.73	1	49264.66	-23.41315	-1.997783E-008	0.000668	6
	53	163	1.512097	46776.13	-18149.22	1	50173.7	-21.20635	-2.381778E-008	0.0006453	6
	54	174	1.201923	48275.57	-16734.6	1	51093.81	-19.11874	-2.817917E-008	0.0006842	6
	55	187	0.956633	49856.31	-15500.8	1	52210.41	-17.27097	-5.198049E-008	2.80666E-005	6
