EXPLAIN
TAG	EISPOT
TITLE	LABEL	Potentiostatic EIS	Test Identifier
DATE	LABEL	8/25/2020	Date
TIME	LABEL	14:58:52	Time
NOTES	NOTES	1	Notes...
	
PSTAT	PSTAT	REF3000-16137	Potentiostat
VDC	POTEN	0.00000E+000	T	DC Voltage (V)
FREQINIT	QUANT	3.00000E+005	Initial Freq. (Hz)
FREQFINAL	QUANT	1.00000E+000	Final Freq. (Hz)
PTSPERDEC	QUANT	1.00000E+001	Points/decade
VAC	QUANT	5.00000E+001	AC Voltage (mV rms)
AREA	QUANT	1.00000E+000	Sample Area (cm^2)
SPEED	SELECTOR	2	Optimize for:
ZGUESS	QUANT	1.00000E+003	Estimated Z (ohms)
EOC	QUANT	0	Open Circuit (V)
SEQUENCER	TOGGLE	TRUE	Run as Sequence
PSTATMODEL	IQUANT	5	Pstat Model
PSTATSECTION	LABEL	REF3000-16137	Pstat Section
PSTATSERIALNO	LABEL	16137	Pstat Serial Number
CTRLMODE	IQUANT	1	Control Mode
IESTAB	IQUANT	0	I/E Stability
CASPEED	IQUANT	1	Control Amp Speed
CONVENTION	IQUANT	1	Current Convention
ICHRANGE	IQUANT	2	Ich Range
ICHRANGEMODE	TOGGLE	F	Ich Auto Range
ICHOFFSETENABLE	TOGGLE	T	Ich Offset Enable
ICHOFFSET	QUANT	0	Ich Offset (V)
ICHFILTER	IQUANT	3	Ich Filter
VCHRANGE	IQUANT	2	Vch Range
VCHRANGEMODE	TOGGLE	F	Vch Auto Range
VCHOFFSETENABLE	TOGGLE	T	Vch Offset Enable
VCHOFFSET	QUANT	0	Vch Offset (V)
VCHFILTER	IQUANT	3	Vch Filter
ACHRANGE	IQUANT	2	Ach Range
ACHOFFSETENABLE	TOGGLE	F	Ach Offset Enable
ACHOFFSET	QUANT	0	Ach Offset (V)
ACHFILTER	IQUANT	3	Ach Filter
IERANGELOWERLIMIT	IQUANT	2	I/E Range Lower Limit
IERANGEMODE	TOGGLE	F	I/E AutoRange
IERANGE	IQUANT	11	I/E Range
POSFEEDENABLE	TOGGLE	F	Positive Feedback IR Comp
POSFEEDRESISTANCE	QUANT	0	Positive Feedback Resistance (ohm)
ACHSELECT	IQUANT	0	Ach Select
CABLEID	IQUANT	13	Cable ID
DCCALDATE	LABEL	7/31/2020	DC Calibration Date
ACCALDATE	LABEL	7/31/2020	AC Calibration Date
THERMOSELECT	IQUANT	1	Thermo Select
FRAMEWORKVERSION	QUANT	6.33	Framework Version
INSTRUMENTVERSION	LABEL	3.50	Instrument Version
COMPLIANCEVOLTAGE	IQUANT	0	Compliance Voltage
ZCURVE	TABLE
	Pt	Time	Freq	Zreal	Zimag	Zsig	Zmod	Zphz	Idc	Vdc	IERange
	#	s	Hz	ohm	ohm	V	ohm	°	A	V	#
	0	25	300046.9	1079.428	-4527.762	1	4654.653	-76.59087	-0.0001141	0.0038648	9
	1	43	238359.4	1951.525	-5339.37	1	5684.833	-69.92278	-0.0001132	0.0038653	9
	2	60	189328.1	2929.234	-5392.911	1	6137.092	-61.4908	2.421707E-006	0.001635	9
	3	71	150421.9	4079.989	-5805.089	1	7095.447	-54.89931	2.787707E-005	-0.0019354	9
	4	79	119484.4	5414.929	-5499.865	1	7718.159	-45.44585	2.123488E-005	-0.0140224	8
	5	86	94921.88	6415.12	-5193.128	1	8253.626	-38.99065	2.069886E-005	-4.100499E-005	9
	6	95	75421.88	7174.633	-4170.019	1	8298.459	-30.16588	1.727111E-005	0.0001379	8
	7	103	59859.37	7452.5	-3337.811	1	8165.827	-24.12656	2.536927E-005	-0.0088604	8
	8	112	47578.12	7503.835	-2629.744	1	7951.295	-19.31318	8.663206E-006	0.0038152	8
	9	119	37828.12	7950.445	-1513.359	1	8093.196	-10.77726	-6.216887E-006	0.0234415	7
	10	123	30046.88	7778.792	-1257.053	1	7879.708	-9.179644	5.200224E-006	-0.0243045	7
	11	127	23859.38	7637.377	-1028.316	1	7706.294	-7.668336	-4.426893E-006	0.0012677	7
	12	131	18984.38	7494.354	-890.9889	1	7547.132	-6.779958	-6.307819E-006	0.0237421	7
	13	135	15046.87	7281.642	-790.5281	1	7324.428	-6.196023	-3.937153E-006	0.0239773	7
	14	139	11953.13	7108.801	-742.4564	1	7147.467	-5.962461	6.727377E-006	-0.0149634	7
	15	143	9515.62	6939.105	-710.1979	1	6975.354	-5.843714	6.153785E-006	-0.0229696	7
	16	147	7546.875	6770.086	-683.79	1	6804.53	-5.767411	-5.334039E-006	0.0242377	7
	17	150	5928.309	6620.959	-676.9722	1	6655.479	-5.838024	-6.568162E-006	0.0200147	7
	18	154	4733.456	6464.603	-692.603	1	6501.599	-6.115215	-4.293125E-006	0.0009323	7
	19	159	3796.875	6289.402	-709.8509	1	6329.333	-6.439415	3.778099E-006	0.0022624	7
	20	162	2987.132	6161.984	-747.1398	1	6207.114	-6.913359	3.768729E-006	0.0021542	7
	21	166	2390.625	6093.499	-773.0365	1	6142.337	-7.230064	6.882733E-006	-0.0204186	7
	22	170	1884.191	5914.34	-881.4288	1	5979.66	-8.476543	-3.934038E-006	0.0232098	7
	23	175	1516.544	5807.435	-926.3439	1	5880.852	-9.062901	3.655032E-006	0.0023286	7
	24	179	1193.986	5665.446	-1040.278	1	5760.162	-10.40464	-3.93262E-006	0.0230404	7
	25	183	946.5144	5650.427	-1175.564	1	5771.419	-11.75266	-4.057626E-006	0.0004454	7
	26	186	751.7689	5611.375	-1299.572	1	5759.898	-13.03958	1.811962E-006	-0.0186395	7
	27	188	597.4265	5597.632	-1489.924	1	5792.526	-14.90487	-6.346178E-006	0.0186833	7
	28	191	477.4305	5606.035	-1713.308	1	5862	-16.99412	-7.727157E-008	0.0005726	7
	29	193	376.6741	5636.29	-1988.981	1	5976.939	-19.43734	-7.638959E-008	0.0005917	7
	30	196	298.2954	5675.41	-2319.657	1	6131.157	-22.23085	-8.43656E-008	0.0006637	7
	31	198	237.7717	5713.744	-2710.256	1	6323.951	-25.37685	-8.785427E-008	0.0006802	7
	32	200	189.0121	5769.572	-3195.896	1	6595.583	-28.98306	-8.510207E-008	0.0006309	7
	33	203	150.2404	5840.463	-3793.657	1	6964.398	-33.00563	-8.464202E-008	0.0006453	7
	34	205	119.1737	5934.713	-4538.868	1	7471.422	-37.40875	-7.496688E-008	0.0006094	7
	35	208	95.0169	6055.666	-5437.454	1	8138.611	-41.92104	-8.027803E-008	0.0005983	7
	36	210	75.60484	6210.406	-6559.813	1	9033.288	-46.56729	-8.251224E-008	0.0006551	7
	37	213	54.50582	6587.513	-8653.382	1	10875.49	-52.71927	-7.614347E-008	0.0005724	7
	38	215	45.95588	6809.587	-10012.98	1	12109.1	-55.78133	-8.342226E-008	0.0006344	7
	39	218	37.20238	7225.988	-12022.66	1	14027.09	-58.99283	-7.318341E-008	0.0005717	7
	40	220	30.04808	7810.88	-14465	1	16439.17	-61.63163	-7.678349E-008	0.0005893	7
	41	222	23.91582	8706.237	-17604.45	1	19639.63	-63.68541	-8.281756E-008	0.0006566	7
	42	225	18.60119	10121.37	-21787.76	1	24023.91	-65.08307	-8.605987E-008	0.0006553	7
	43	227	15.02404	11787.17	-26016.32	1	28561.98	-65.62622	-7.716513E-008	0.0006616	7
	44	229	12.01923	14144.26	-31076.11	1	34143.59	-65.52739	-7.892524E-008	0.0005866	7
	45	232	9.450605	17567.74	-37325.86	1	41253.43	-64.79558	-7.737498E-008	0.0005935	7
	46	234	7.512019	21885.33	-44016.53	1	49157.12	-63.56311	-1.837851E-008	0.000684	6
	47	237	5.978954	27282.68	-51195.97	1	58011.82	-61.94654	-1.540057E-008	0.0006322	6
	48	240	4.734848	34138.27	-58823.98	1	68012.38	-59.87143	-1.736254E-008	0.0006004	6
	49	243	3.75601	42584.54	-66435.08	1	78911.74	-57.34034	-1.342395E-008	0.0006534	6
	50	247	3.004808	52025.39	-73569.83	1	90106.38	-54.73371	-1.286658E-008	0.000592	6
	51	250	2.372217	63527.5	-80515.3	1	102559.5	-51.72615	-1.721306E-008	0.0005843	6
	52	255	1.878005	76043.97	-85776.71	1	114631.3	-48.44192	-1.627043E-008	0.0006646	6
	53	259	1.512097	88297.42	-88688.89	1	125148.5	-45.12673	-1.669757E-008	0.0005925	6
	54	265	1.201923	101324.6	-90113.66	1	135599.2	-41.6485	-1.984105E-008	0.0006911	6
	55	271	0.956633	113823.5	-87892.32	1	143808.4	-37.67463	-2.645791E-008	2.025973E-005	6
