EXPLAIN
TAG	EISPOT
TITLE	LABEL	Potentiostatic EIS	Test Identifier
DATE	LABEL	8/25/2020	Date
TIME	LABEL	16:11:50	Time
NOTES	NOTES	1	Notes...
	
PSTAT	PSTAT	REF3000-16137	Potentiostat
VDC	POTEN	0.00000E+000	T	DC Voltage (V)
FREQINIT	QUANT	3.00000E+005	Initial Freq. (Hz)
FREQFINAL	QUANT	1.00000E+000	Final Freq. (Hz)
PTSPERDEC	QUANT	1.00000E+001	Points/decade
VAC	QUANT	5.00000E+001	AC Voltage (mV rms)
AREA	QUANT	1.00000E+000	Sample Area (cm^2)
SPEED	SELECTOR	2	Optimize for:
ZGUESS	QUANT	1.00000E+003	Estimated Z (ohms)
EOC	QUANT	0	Open Circuit (V)
SEQUENCER	TOGGLE	TRUE	Run as Sequence
PSTATMODEL	IQUANT	5	Pstat Model
PSTATSECTION	LABEL	REF3000-16137	Pstat Section
PSTATSERIALNO	LABEL	16137	Pstat Serial Number
CTRLMODE	IQUANT	1	Control Mode
IESTAB	IQUANT	0	I/E Stability
CASPEED	IQUANT	1	Control Amp Speed
CONVENTION	IQUANT	1	Current Convention
ICHRANGE	IQUANT	2	Ich Range
ICHRANGEMODE	TOGGLE	F	Ich Auto Range
ICHOFFSETENABLE	TOGGLE	T	Ich Offset Enable
ICHOFFSET	QUANT	0	Ich Offset (V)
ICHFILTER	IQUANT	3	Ich Filter
VCHRANGE	IQUANT	2	Vch Range
VCHRANGEMODE	TOGGLE	F	Vch Auto Range
VCHOFFSETENABLE	TOGGLE	T	Vch Offset Enable
VCHOFFSET	QUANT	0	Vch Offset (V)
VCHFILTER	IQUANT	3	Vch Filter
ACHRANGE	IQUANT	2	Ach Range
ACHOFFSETENABLE	TOGGLE	F	Ach Offset Enable
ACHOFFSET	QUANT	0	Ach Offset (V)
ACHFILTER	IQUANT	3	Ach Filter
IERANGELOWERLIMIT	IQUANT	2	I/E Range Lower Limit
IERANGEMODE	TOGGLE	F	I/E AutoRange
IERANGE	IQUANT	11	I/E Range
POSFEEDENABLE	TOGGLE	F	Positive Feedback IR Comp
POSFEEDRESISTANCE	QUANT	0	Positive Feedback Resistance (ohm)
ACHSELECT	IQUANT	0	Ach Select
CABLEID	IQUANT	13	Cable ID
DCCALDATE	LABEL	7/31/2020	DC Calibration Date
ACCALDATE	LABEL	7/31/2020	AC Calibration Date
THERMOSELECT	IQUANT	1	Thermo Select
FRAMEWORKVERSION	QUANT	6.33	Framework Version
INSTRUMENTVERSION	LABEL	3.50	Instrument Version
COMPLIANCEVOLTAGE	IQUANT	0	Compliance Voltage
ZCURVE	TABLE
	Pt	Time	Freq	Zreal	Zimag	Zsig	Zmod	Zphz	Idc	Vdc	IERange
	#	s	Hz	ohm	ohm	V	ohm	°	A	V	#
	0	7	300046.9	225.2559	-13.67429	1	225.6706	-3.47391	4.477157E-006	0.0010829	9
	1	11	238359.4	226.8343	-14.2627	1	227.2823	-3.59786	-5.960365E-005	0.000684	9
	2	14	189328.1	227.1758	-15.2497	1	227.687	-3.840351	-7.438657E-005	0.0033657	9
	3	18	150421.9	228.3633	-16.65516	1	228.9699	-4.171353	7.168262E-006	0.0013333	9
	4	21	119484.4	229.6174	-17.89875	1	230.3139	-4.457211	-8.527189E-005	0.0022867	9
	5	24	94921.88	230.875	-20.06776	1	231.7455	-4.967691	-9.207378E-006	-0.0001254	9
	6	26	75421.88	232.6711	-22.82857	1	233.7884	-5.60365	-9.020205E-006	-0.0001524	9
	7	29	59859.37	234.8021	-25.93133	1	236.2297	-6.302154	-2.053923E-005	0.0007791	9
	8	31	47578.12	236.6744	-29.96039	1	238.5632	-7.214645	1.207437E-005	0.0002828	9
	9	35	37828.12	239.8287	-34.71717	1	242.3285	-8.236817	-8.791082E-006	0.0008857	9
	10	39	30046.88	241.9866	-40.05694	1	245.2796	-9.399151	-1.672092E-006	-0.0003726	9
	11	42	23859.38	245.075	-46.53901	1	249.4546	-10.75227	1.086037E-005	0.0003346	9
	12	46	18984.38	248.0383	-54.4035	1	253.9345	-12.37108	-1.616556E-005	0.0010424	9
	13	49	15046.87	251.8253	-64.03113	1	259.8384	-14.26617	-1.043431E-005	-7.360252E-005	9
	14	53	11953.13	254.5759	-75.94154	1	265.6615	-16.61016	2.382923E-005	-0.0002132	9
	15	55	9515.62	257.8557	-90.16914	1	273.1667	-19.27414	2.188949E-006	0.0005296	9
	16	57	7546.875	261.2609	-109.2166	1	283.1705	-22.68671	2.256855E-005	-0.0008302	9
	17	60	5928.309	264.2887	-133.6375	1	296.1545	-26.82343	2.627337E-005	-0.0007986	9
	18	62	4733.456	267.7731	-161.2111	1	312.5563	-31.04977	-1.895773E-006	-0.0003813	9
	19	64	3796.875	272.0558	-196.4528	1	335.5712	-35.83323	-1.607016E-005	0.0009313	9
	20	67	2987.132	277.5074	-244.6781	1	369.9698	-41.4026	-9.797007E-006	-8.602416E-005	9
	21	69	2390.625	282.7921	-299.0197	1	411.563	-46.59764	5.10843E-006	-0.003337	8
	22	71	1884.191	289.15	-374.5789	1	473.1988	-52.33425	1.005772E-005	-0.0033924	8
	23	73	1516.544	300.8846	-456.7886	1	546.9802	-56.62728	-8.470764E-006	0.0016638	8
	24	76	1193.986	315.1946	-572.6127	1	653.6306	-61.16942	1.120244E-005	-0.0030133	8
	25	78	946.5144	334.5439	-711.8817	1	786.5717	-64.82915	-9.740989E-006	0.0023858	8
	26	81	751.7689	360.9272	-882.7609	1	953.696	-67.76222	-5.72108E-006	0.0003249	8
	27	83	597.4265	394.0462	-1089.267	1	1158.35	-70.11222	7.996802E-006	-0.0033698	8
	28	86	477.4305	440.1335	-1340.821	1	1411.212	-71.82723	1.662862E-008	0.0006408	8
	29	88	376.6741	503.9921	-1665.88	1	1740.449	-73.16743	-5.609504E-009	0.0006451	8
	30	90	298.2954	588.5519	-2059.646	1	2142.086	-74.05251	-6.608235E-009	0.0006469	8
	31	93	237.7717	698.8599	-2527.014	1	2621.871	-74.54092	1.245888E-008	0.0006321	8
	32	95	189.0121	849.2794	-3103.205	1	3217.321	-74.69418	2.335851E-008	0.0006337	8
	33	98	150.2404	1052.383	-3801.522	1	3944.5	-74.52621	1.424406E-009	0.0006446	8
	34	100	119.1737	1336.536	-4661.192	1	4849.025	-74.00045	-2.218546E-008	0.0006196	7
	35	102	95.0169	1705.947	-5660.811	1	5912.278	-73.22925	-2.04399E-008	0.0006011	7
	36	105	75.60484	2212.345	-6856.764	1	7204.837	-72.11763	-2.059511E-008	0.0006053	7
	37	107	54.50582	3259.335	-8925.344	1	9501.84	-69.93894	-2.441315E-008	0.0006274	7
	38	110	45.95588	4007.638	-10185.96	1	10946	-68.52298	-2.148168E-008	0.0006245	7
	39	112	37.20238	5175.813	-11895.95	1	12973.15	-66.48661	-1.585217E-008	0.0006178	7
	40	115	30.04808	6689.079	-13769.37	1	15308.14	-64.08978	-1.542508E-008	0.000599	7
	41	117	23.91582	8746.625	-15887.43	1	18135.98	-61.16557	-1.564319E-008	0.0006134	7
	42	119	18.60119	11543.03	-18246.97	1	21591.51	-57.68257	-1.303371E-008	0.0006206	7
	43	122	15.02404	14412.5	-20157.19	1	24779.68	-54.43503	-1.858211E-008	0.0006189	7
	44	124	12.01923	17859.85	-21909.87	1	28266.88	-50.81477	-2.909096E-008	0.0006198	7
	45	127	9.450605	21902.19	-23361.21	1	32022.68	-46.84623	-1.503978E-008	0.0006288	7
	46	129	7.512019	25981.44	-24286.88	1	35565.26	-43.06927	-8.656738E-009	0.0006232	7
	47	132	5.978954	30050.12	-24689.21	1	38891.73	-39.40657	-9.348505E-009	0.0006633	6
	48	135	4.734848	34114.45	-24536.65	1	42021.93	-35.72539	-1.501977E-008	0.0006549	6
	49	138	3.75601	37639.48	-23670.75	1	44463.86	-32.16501	-1.622983E-008	0.0006622	6
	50	144	3.004808	40600.94	-22536.95	1	46436.52	-29.03397	-2.191294E-008	0.0006938	6
	51	150	2.372217	43826.71	-21713.34	1	48910.62	-26.35548	-1.679806E-008	0.0007566	6
	52	154	1.878005	45681.77	-19655.97	1	49731.09	-23.28126	-2.24623E-008	0.0006437	6
	53	163	1.512097	47339.61	-18333.49	1	50765.69	-21.17019	-2.530785E-008	0.0007588	6
	54	174	1.201923	48742.86	-16829.28	1	51566.38	-19.04808	-2.780568E-008	0.0006408	6
	55	187	0.956633	50296.01	-15610.76	1	52662.93	-17.24318	-5.440914E-008	2.85841E-005	6
