EXPLAIN
TAG	EISPOT
TITLE	LABEL	Potentiostatic EIS	Test Identifier
DATE	LABEL	8/25/2020	Date
TIME	LABEL	13:35:27	Time
NOTES	NOTES	1	Notes...
	
PSTAT	PSTAT	REF3000-16137	Potentiostat
VDC	POTEN	0.00000E+000	T	DC Voltage (V)
FREQINIT	QUANT	3.00000E+005	Initial Freq. (Hz)
FREQFINAL	QUANT	1.00000E+000	Final Freq. (Hz)
PTSPERDEC	QUANT	1.00000E+001	Points/decade
VAC	QUANT	5.00000E+001	AC Voltage (mV rms)
AREA	QUANT	1.00000E+000	Sample Area (cm^2)
SPEED	SELECTOR	2	Optimize for:
ZGUESS	QUANT	1.00000E+003	Estimated Z (ohms)
EOC	QUANT	0	Open Circuit (V)
SEQUENCER	TOGGLE	TRUE	Run as Sequence
PSTATMODEL	IQUANT	5	Pstat Model
PSTATSECTION	LABEL	REF3000-16137	Pstat Section
PSTATSERIALNO	LABEL	16137	Pstat Serial Number
CTRLMODE	IQUANT	1	Control Mode
IESTAB	IQUANT	0	I/E Stability
CASPEED	IQUANT	1	Control Amp Speed
CONVENTION	IQUANT	1	Current Convention
ICHRANGE	IQUANT	2	Ich Range
ICHRANGEMODE	TOGGLE	F	Ich Auto Range
ICHOFFSETENABLE	TOGGLE	T	Ich Offset Enable
ICHOFFSET	QUANT	0	Ich Offset (V)
ICHFILTER	IQUANT	3	Ich Filter
VCHRANGE	IQUANT	2	Vch Range
VCHRANGEMODE	TOGGLE	F	Vch Auto Range
VCHOFFSETENABLE	TOGGLE	T	Vch Offset Enable
VCHOFFSET	QUANT	0	Vch Offset (V)
VCHFILTER	IQUANT	3	Vch Filter
ACHRANGE	IQUANT	2	Ach Range
ACHOFFSETENABLE	TOGGLE	F	Ach Offset Enable
ACHOFFSET	QUANT	0	Ach Offset (V)
ACHFILTER	IQUANT	3	Ach Filter
IERANGELOWERLIMIT	IQUANT	2	I/E Range Lower Limit
IERANGEMODE	TOGGLE	F	I/E AutoRange
IERANGE	IQUANT	11	I/E Range
POSFEEDENABLE	TOGGLE	F	Positive Feedback IR Comp
POSFEEDRESISTANCE	QUANT	0	Positive Feedback Resistance (ohm)
ACHSELECT	IQUANT	0	Ach Select
CABLEID	IQUANT	13	Cable ID
DCCALDATE	LABEL	7/31/2020	DC Calibration Date
ACCALDATE	LABEL	7/31/2020	AC Calibration Date
THERMOSELECT	IQUANT	1	Thermo Select
FRAMEWORKVERSION	QUANT	6.33	Framework Version
INSTRUMENTVERSION	LABEL	3.50	Instrument Version
COMPLIANCEVOLTAGE	IQUANT	0	Compliance Voltage
ZCURVE	TABLE
	Pt	Time	Freq	Zreal	Zimag	Zsig	Zmod	Zphz	Idc	Vdc	IERange
	#	s	Hz	ohm	ohm	V	ohm	°	A	V	#
	0	14	300046.9	299.707	-4821.388	1	4830.694	-86.44296	2.313212E-005	-0.0010706	9
	1	28	238359.4	480.7098	-5843.703	1	5863.442	-85.29737	8.258221E-005	-0.0016424	9
	2	53	189328.1	827.9007	-7300.969	1	7347.76	-83.53053	2.905615E-005	-0.0019624	9
	3	69	150421.9	563.6757	-8939.168	1	8956.922	-86.39188	2.012455E-005	-0.0008902	9
	4	76	119484.4	2190.909	-11141	1	11354.38	-78.87459	-3.188402E-005	-0.0059977	8
	5	84	94921.88	2768.191	-13611.83	1	13890.46	-78.50472	-1.209877E-005	0.0102957	8
	6	92	75421.88	4355.405	-16966.16	1	17516.29	-75.60242	-1.228501E-006	-0.0051641	8
	7	101	59859.37	6270.584	-20458.15	1	21397.57	-72.95928	1.753046E-005	0.0002456	8
	8	110	47578.12	9070.232	-25005.79	1	26599.97	-70.06301	1.762997E-005	0.0002924	8
	9	119	37828.12	12863.15	-29805.82	1	32463.02	-66.65667	2.338925E-005	-0.0029281	8
	10	128	30046.88	17628.28	-34771.68	1	38984.94	-63.11625	-2.503009E-005	0.0112147	8
	11	138	23859.38	26291.47	-41884.02	1	49452.12	-57.88265	2.254566E-005	-0.0097071	8
	12	144	18984.38	34844.5	-43825.83	1	55989.66	-51.51292	-9.717047E-006	-0.0021573	8
	13	152	15046.87	45735.05	-44762.24	1	63994.95	-44.38411	5.020303E-007	0.0162948	7
	14	157	11953.13	54780.15	-44548.57	1	70607.65	-39.11886	-1.82716E-006	0.0223322	7
	15	162	9515.62	64748.01	-44697.35	1	78677.55	-34.6184	5.450837E-006	-0.0270466	7
	16	168	7546.875	74615.72	-40999.84	1	85138.08	-28.78791	5.441441E-006	-0.0270176	7
	17	174	5928.309	82429.02	-38192.83	1	90847.32	-24.86027	-1.080963E-006	-0.0134614	7
	18	181	4733.456	96894.9	-25521.51	1	100199.6	-14.75621	-2.179144E-007	0.0226485	6
	19	185	3796.875	100514.7	-21747.85	1	102840.5	-12.20861	-6.474419E-007	0.0100711	6
	20	189	2987.132	103090.4	-19081.35	1	104841.4	-10.48639	-7.207469E-009	0.0176327	6
	21	193	2390.625	104653.4	-15955.05	1	105862.7	-8.668343	4.221765E-007	0.0020265	6
	22	198	1884.191	106698.9	-14802.85	1	107720.9	-7.8985	-5.512102E-009	0.0175867	6
	23	202	1516.544	108216.4	-13951.92	1	109112.1	-7.346398	-4.920348E-007	0.0012082	6
	24	206	1193.986	110248	-12703.05	1	110977.4	-6.57278	2.191503E-007	0.0105807	6
	25	211	946.5144	115564.5	-12544.64	1	116243.3	-6.195256	-4.973452E-008	-0.0151984	6
	26	213	751.7689	114022.9	-10783.43	1	114531.6	-5.402538	-2.166778E-007	0.0226622	6
	27	216	597.4265	116137	-9637.52	1	116536.2	-4.74377	-5.671242E-007	0.0267616	6
	28	219	477.4305	117639.1	-11619.17	1	118211.5	-5.640791	-1.030472E-008	0.0006737	6
	29	221	376.6741	119356.6	-11950	1	119953.3	-5.717408	-1.057607E-008	0.0007308	6
	30	223	298.2954	121011.2	-12562.95	1	121661.6	-5.92701	-1.039691E-008	0.0006519	6
	31	225	237.7717	122892.3	-13347.87	1	123615.1	-6.198844	-1.0027E-008	0.0006528	6
	32	228	189.0121	124834.1	-14396.4	1	125661.5	-6.57853	-1.022239E-008	0.0006353	6
	33	230	150.2404	126890.1	-15762.48	1	127865.4	-7.081093	-9.356636E-009	0.0006287	6
	34	233	119.1737	128475.9	-17058	1	129603.3	-7.563043	-1.006524E-008	0.0006972	6
	35	236	95.0169	131136.6	-19802.47	1	132623.4	-8.587152	-9.333148E-009	0.0006031	6
	36	238	75.60484	133534.2	-22410.54	1	135401.6	-9.52695	-9.911526E-009	0.0006835	6
	37	241	54.50582	136779.6	-27502.27	1	139517.1	-11.36887	-1.036753E-008	0.0006819	6
	38	243	45.95588	139101.3	-30350.47	1	142373.9	-12.30845	-1.085989E-008	0.0007049	6
	39	245	37.20238	141797	-34997.3	1	146052.1	-13.86423	-9.545281E-009	0.0006727	6
	40	248	30.04808	144757.4	-40547.68	1	150329	-15.64798	-9.130739E-009	0.0006366	6
	41	251	23.91582	148031.5	-47682.36	1	155521.5	-17.85424	-9.726463E-009	0.0006064	6
	42	253	18.60119	151789.5	-57668.23	1	162375.2	-20.8029	-1.095601E-008	0.0006994	6
	43	255	15.02404	155931.4	-67976.22	1	170104	-23.55415	-9.118573E-009	0.0006639	6
	44	258	12.01923	160286	-81098.38	1	179634.5	-26.8376	-1.033256E-008	0.0006528	6
	45	260	9.450605	165617.5	-98467.9	1	192678.7	-30.73359	-9.749967E-009	0.0007467	6
	46	263	7.512019	172050.9	-118911.2	1	209144.4	-34.64988	-9.563476E-009	0.000719	6
	47	266	5.978954	179767.5	-143797.8	1	230204.6	-38.65667	-9.448348E-009	0.0006064	6
	48	270	4.734848	188842.9	-174790.4	1	257319.5	-42.78692	-9.067261E-009	0.0006448	6
	49	273	3.75601	200083.2	-212675.2	1	292000	-46.74738	-9.860196E-009	0.0007063	6
	50	279	3.004808	213297.4	-256935.9	1	333933.9	-50.30197	-9.397401E-009	0.0006442	6
	51	285	2.372217	229368	-314291.5	1	389087.2	-53.87827	-9.998794E-009	0.0007032	6
	52	290	1.878005	249069.7	-383719	1	457466.9	-57.01264	-9.995349E-010	0.0006214	5
	53	294	1.512097	270055.8	-461766	1	534937.3	-59.67951	-1.028062E-009	0.000737	5
	54	300	1.201923	296948.3	-562583	1	636143	-62.17356	-9.389683E-010	0.000637	5
	55	306	0.956633	328882.9	-684518.2	1	759426.8	-64.33762	-1.261339E-009	3.124056E-006	5
