EXPLAIN
TAG	EISPOT
TITLE	LABEL	Potentiostatic EIS	Test Identifier
DATE	LABEL	8/25/2020	Date
TIME	LABEL	16:05:12	Time
NOTES	NOTES	1	Notes...
	
PSTAT	PSTAT	REF3000-16137	Potentiostat
VDC	POTEN	0.00000E+000	T	DC Voltage (V)
FREQINIT	QUANT	3.00000E+005	Initial Freq. (Hz)
FREQFINAL	QUANT	1.00000E+000	Final Freq. (Hz)
PTSPERDEC	QUANT	1.00000E+001	Points/decade
VAC	QUANT	5.00000E+001	AC Voltage (mV rms)
AREA	QUANT	1.00000E+000	Sample Area (cm^2)
SPEED	SELECTOR	2	Optimize for:
ZGUESS	QUANT	1.00000E+003	Estimated Z (ohms)
EOC	QUANT	0	Open Circuit (V)
SEQUENCER	TOGGLE	TRUE	Run as Sequence
PSTATMODEL	IQUANT	5	Pstat Model
PSTATSECTION	LABEL	REF3000-16137	Pstat Section
PSTATSERIALNO	LABEL	16137	Pstat Serial Number
CTRLMODE	IQUANT	1	Control Mode
IESTAB	IQUANT	0	I/E Stability
CASPEED	IQUANT	1	Control Amp Speed
CONVENTION	IQUANT	1	Current Convention
ICHRANGE	IQUANT	2	Ich Range
ICHRANGEMODE	TOGGLE	F	Ich Auto Range
ICHOFFSETENABLE	TOGGLE	T	Ich Offset Enable
ICHOFFSET	QUANT	0	Ich Offset (V)
ICHFILTER	IQUANT	3	Ich Filter
VCHRANGE	IQUANT	2	Vch Range
VCHRANGEMODE	TOGGLE	F	Vch Auto Range
VCHOFFSETENABLE	TOGGLE	T	Vch Offset Enable
VCHOFFSET	QUANT	0	Vch Offset (V)
VCHFILTER	IQUANT	3	Vch Filter
ACHRANGE	IQUANT	2	Ach Range
ACHOFFSETENABLE	TOGGLE	F	Ach Offset Enable
ACHOFFSET	QUANT	0	Ach Offset (V)
ACHFILTER	IQUANT	3	Ach Filter
IERANGELOWERLIMIT	IQUANT	2	I/E Range Lower Limit
IERANGEMODE	TOGGLE	F	I/E AutoRange
IERANGE	IQUANT	11	I/E Range
POSFEEDENABLE	TOGGLE	F	Positive Feedback IR Comp
POSFEEDRESISTANCE	QUANT	0	Positive Feedback Resistance (ohm)
ACHSELECT	IQUANT	0	Ach Select
CABLEID	IQUANT	13	Cable ID
DCCALDATE	LABEL	7/31/2020	DC Calibration Date
ACCALDATE	LABEL	7/31/2020	AC Calibration Date
THERMOSELECT	IQUANT	1	Thermo Select
FRAMEWORKVERSION	QUANT	6.33	Framework Version
INSTRUMENTVERSION	LABEL	3.50	Instrument Version
COMPLIANCEVOLTAGE	IQUANT	0	Compliance Voltage
ZCURVE	TABLE
	Pt	Time	Freq	Zreal	Zimag	Zsig	Zmod	Zphz	Idc	Vdc	IERange
	#	s	Hz	ohm	ohm	V	ohm	°	A	V	#
	0	11	300046.9	224.9123	-13.43825	1	225.3134	-3.419292	-1.479634E-005	0.0012411	9
	1	15	238359.4	225.6301	-14.07838	1	226.0689	-3.57039	8.527095E-006	0.0009856	9
	2	18	189328.1	226.9531	-15.00413	1	227.4485	-3.782387	2.120261E-005	-0.0017717	9
	3	20	150421.9	227.6054	-15.54146	1	228.1354	-3.906234	1.023793E-005	-0.0016468	9
	4	23	119484.4	228.9909	-18.00724	1	229.6978	-4.496336	2.938464E-005	0.0007141	9
	5	26	94921.88	230.5571	-19.61238	1	231.3897	-4.86217	-2.289064E-005	0.0010071	9
	6	28	75421.88	232.1179	-22.62235	1	233.2177	-5.5665	2.764342E-005	-0.000702	9
	7	31	59859.37	234.1382	-25.77132	1	235.5522	-6.281198	-2.414694E-005	0.0006724	9
	8	33	47578.12	236.2009	-29.75011	1	238.0671	-7.178748	2.84403E-005	-0.0005057	9
	9	36	37828.12	238.7665	-34.1704	1	241.1992	-8.144423	2.743761E-005	-0.0004867	9
	10	40	30046.88	241.4359	-39.78069	1	244.6912	-9.356393	2.439274E-005	-0.0007658	9
	11	43	23859.38	244.5102	-46.00851	1	248.8011	-10.65652	1.631547E-005	-0.0008367	9
	12	47	18984.38	247.7321	-53.53085	1	253.4496	-12.19321	2.502687E-005	-0.00025	9
	13	50	15046.87	250.7956	-63.89401	1	258.8066	-14.29292	-2.162816E-005	0.0005185	9
	14	54	11953.13	254.4737	-74.49596	1	265.1537	-16.31714	-1.517349E-005	0.0001261	9
	15	56	9515.62	257.2323	-88.36538	1	271.9869	-18.95881	7.82538E-006	-0.000655	9
	16	60	7546.875	260.2825	-106.3925	1	281.1874	-22.23267	2.050276E-005	-0.0001289	9
	17	62	5928.309	264.1843	-130.2006	1	294.526	-26.23592	-2.102857E-005	0.0009794	9
	18	64	4733.456	267.2087	-158.695	1	310.7806	-30.70603	1.195152E-005	0.0002649	9
	19	67	3796.875	270.3387	-192.665	1	331.968	-35.47672	-2.190197E-005	0.0005163	9
	20	69	2987.132	276.0291	-241.1716	1	366.5458	-41.14429	2.633793E-005	-0.0007933	9
	21	71	2390.625	281.9565	-295.0166	1	408.0861	-46.2967	1.189907E-005	0.0002311	9
	22	74	1884.191	290.5032	-366.8247	1	467.9236	-51.62288	-9.827215E-006	0.0024352	8
	23	76	1516.544	298.7819	-449.2937	1	539.5697	-56.37595	8.215936E-006	-0.0034751	8
	24	78	1193.986	313.498	-561.7121	1	643.274	-60.83361	1.139779E-006	0.0028	8
	25	81	946.5144	333.773	-697.9168	1	773.6229	-64.44093	-8.420377E-006	0.0016265	8
	26	83	751.7689	358.1168	-866.2966	1	937.3993	-67.54038	-5.689143E-006	0.0003001	8
	27	86	597.4265	389.3042	-1069.225	1	1137.893	-69.99347	-2.673552E-006	0.0038559	8
	28	88	477.4305	434.856	-1315.462	1	1385.475	-71.70752	-3.476487E-008	0.0006945	8
	29	91	376.6741	496.8878	-1634.448	1	1708.309	-73.09023	-1.182727E-009	0.000641	8
	30	93	298.2954	579.197	-2020.82	1	2102.185	-74.00691	-3.170773E-009	0.0006507	8
	31	95	237.7717	686.5084	-2480.07	1	2573.333	-74.52737	2.376937E-008	0.000637	8
	32	98	189.0121	832.9523	-3046.532	1	3158.349	-74.70848	3.293195E-008	0.0006354	8
	33	100	150.2404	1030.636	-3732.821	1	3872.488	-74.5651	8.763522E-009	0.0006399	8
	34	103	119.1737	1307.634	-4580.79	1	4763.773	-74.06806	-2.332607E-008	0.0006282	7
	35	105	95.0169	1666.697	-5563.178	1	5807.48	-73.32208	-1.959446E-008	0.0006152	7
	36	107	75.60484	2158.436	-6740.037	1	7077.212	-72.24281	-2.667661E-008	0.0006696	7
	37	110	54.50582	3180.17	-8783.919	1	9341.88	-70.09749	-1.912683E-008	0.0006147	7
	38	113	45.95588	3906.198	-10023.81	1	10758.03	-68.70954	-1.877768E-008	0.0006072	7
	39	115	37.20238	5046.577	-11717.71	1	12758.24	-66.69944	-2.41562E-008	0.0006276	7
	40	117	30.04808	6524.452	-13579.82	1	15065.85	-64.33794	-2.0159E-008	0.000603	7
	41	120	23.91582	8552.394	-15705.85	1	17883.44	-61.43014	-2.220124E-008	0.0006209	7
	42	122	18.60119	11285.97	-18059.24	1	21295.75	-57.99702	-2.581544E-008	0.000628	7
	43	124	15.02404	14132.72	-19970.31	1	24465.22	-54.71348	-8.783565E-009	0.0006158	7
	44	127	12.01923	17511.36	-21740.02	1	27915.52	-51.14891	-2.572871E-008	0.0006038	7
	45	129	9.450605	21546.97	-23232.36	1	31686.19	-47.15546	-1.282184E-008	0.0006172	7
	46	132	7.512019	25616.85	-24211.22	1	35247.79	-43.38414	-1.661888E-008	0.0006207	7
	47	134	5.978954	29678.94	-24553.17	1	38518.8	-39.60071	-1.177343E-008	0.000664	6
	48	137	4.734848	33774.59	-24603.74	1	41785.96	-36.07218	-2.118586E-008	0.0006391	6
	49	141	3.75601	37239.48	-23622.94	1	44100.13	-32.38908	-1.400427E-008	0.0006764	6
	50	146	3.004808	40269.34	-22546.17	1	46151.38	-29.24378	-1.589659E-008	0.0006405	6
	51	153	2.372217	43532.96	-21724.43	1	48652.54	-26.52076	-2.487728E-008	0.0005851	6
	52	157	1.878005	45384.78	-19685.84	1	49470.3	-23.449	-2.087198E-008	0.00067	6
	53	166	1.512097	46952.42	-18217.05	1	50362.59	-21.20573	-2.457038E-008	0.0005762	6
	54	177	1.201923	48553.33	-16876.29	1	51402.68	-19.16656	-3.03577E-008	0.0006862	6
	55	189	0.956633	49943.3	-15545.48	1	52306.74	-17.28942	-4.769424E-008	2.67762E-005	6
