EXPLAIN
TAG	EISPOT
TITLE	LABEL	Potentiostatic EIS	Test Identifier
DATE	LABEL	8/25/2020	Date
TIME	LABEL	15:51:56	Time
NOTES	NOTES	1	Notes...
	
PSTAT	PSTAT	REF3000-16137	Potentiostat
VDC	POTEN	0.00000E+000	T	DC Voltage (V)
FREQINIT	QUANT	3.00000E+005	Initial Freq. (Hz)
FREQFINAL	QUANT	1.00000E+000	Final Freq. (Hz)
PTSPERDEC	QUANT	1.00000E+001	Points/decade
VAC	QUANT	5.00000E+001	AC Voltage (mV rms)
AREA	QUANT	1.00000E+000	Sample Area (cm^2)
SPEED	SELECTOR	2	Optimize for:
ZGUESS	QUANT	1.00000E+003	Estimated Z (ohms)
EOC	QUANT	0	Open Circuit (V)
SEQUENCER	TOGGLE	TRUE	Run as Sequence
PSTATMODEL	IQUANT	5	Pstat Model
PSTATSECTION	LABEL	REF3000-16137	Pstat Section
PSTATSERIALNO	LABEL	16137	Pstat Serial Number
CTRLMODE	IQUANT	1	Control Mode
IESTAB	IQUANT	0	I/E Stability
CASPEED	IQUANT	1	Control Amp Speed
CONVENTION	IQUANT	1	Current Convention
ICHRANGE	IQUANT	2	Ich Range
ICHRANGEMODE	TOGGLE	F	Ich Auto Range
ICHOFFSETENABLE	TOGGLE	T	Ich Offset Enable
ICHOFFSET	QUANT	0	Ich Offset (V)
ICHFILTER	IQUANT	3	Ich Filter
VCHRANGE	IQUANT	2	Vch Range
VCHRANGEMODE	TOGGLE	F	Vch Auto Range
VCHOFFSETENABLE	TOGGLE	T	Vch Offset Enable
VCHOFFSET	QUANT	0	Vch Offset (V)
VCHFILTER	IQUANT	3	Vch Filter
ACHRANGE	IQUANT	2	Ach Range
ACHOFFSETENABLE	TOGGLE	F	Ach Offset Enable
ACHOFFSET	QUANT	0	Ach Offset (V)
ACHFILTER	IQUANT	3	Ach Filter
IERANGELOWERLIMIT	IQUANT	2	I/E Range Lower Limit
IERANGEMODE	TOGGLE	F	I/E AutoRange
IERANGE	IQUANT	11	I/E Range
POSFEEDENABLE	TOGGLE	F	Positive Feedback IR Comp
POSFEEDRESISTANCE	QUANT	0	Positive Feedback Resistance (ohm)
ACHSELECT	IQUANT	0	Ach Select
CABLEID	IQUANT	13	Cable ID
DCCALDATE	LABEL	7/31/2020	DC Calibration Date
ACCALDATE	LABEL	7/31/2020	AC Calibration Date
THERMOSELECT	IQUANT	1	Thermo Select
FRAMEWORKVERSION	QUANT	6.33	Framework Version
INSTRUMENTVERSION	LABEL	3.50	Instrument Version
COMPLIANCEVOLTAGE	IQUANT	0	Compliance Voltage
ZCURVE	TABLE
	Pt	Time	Freq	Zreal	Zimag	Zsig	Zmod	Zphz	Idc	Vdc	IERange
	#	s	Hz	ohm	ohm	V	ohm	°	A	V	#
	0	8	300046.9	223.9952	-13.31874	1	224.3908	-3.402798	-0.0000988	0.0033407	9
	1	11	238359.4	224.5811	-13.95886	1	225.0145	-3.556648	-5.196056E-006	0.0012555	9
	2	14	189328.1	225.2794	-15.02764	1	225.7801	-3.816356	1.435035E-005	-0.0009283	9
	3	17	150421.9	226.7824	-16.10771	1	227.3537	-4.062733	-7.741184E-005	0.0034727	9
	4	20	119484.4	227.8776	-17.6591	1	228.5608	-4.431211	-1.506478E-005	0.0011906	9
	5	23	94921.88	229.3891	-19.68329	1	230.232	-4.904391	1.621079E-005	-0.0008193	9
	6	26	75421.88	231.2181	-22.16746	1	232.2783	-5.476353	-2.365347E-005	0.0007011	9
	7	28	59859.37	233.1389	-25.21981	1	234.499	-6.173966	-2.214E-005	0.0005169	9
	8	31	47578.12	235.2692	-29.18718	1	237.0728	-7.071904	2.457296E-005	-0.0002377	9
	9	33	37828.12	237.8921	-34.0873	1	240.3219	-8.154343	-1.452179E-005	0.0007528	10
	10	37	30046.88	240.3993	-38.58145	1	243.4756	-9.117594	-2.786101E-006	-0.0002975	9
	11	41	23859.38	243.7718	-45.00193	1	247.8908	-10.45943	2.689453E-005	-0.0007969	9
	12	44	18984.38	246.7794	-52.06174	1	252.2112	-11.91271	-1.602768E-005	0.0001357	9
	13	48	15046.87	250.5831	-60.67998	1	257.8254	-13.61243	-1.865179E-005	0.0003521	9
	14	50	11953.13	253.7906	-71.52156	1	263.6759	-15.73854	2.622802E-005	-0.0008033	9
	15	54	9515.62	256.5376	-85.14148	1	270.2973	-18.36033	2.229881E-005	-0.0008618	9
	16	57	7546.875	259.757	-102.7963	1	279.3578	-21.59071	1.048405E-005	0.0003482	9
	17	60	5928.309	262.2814	-125.2665	1	290.6599	-25.5293	2.764403E-005	-0.0006484	9
	18	62	4733.456	266.6117	-152.4263	1	307.1084	-29.75732	1.566172E-005	-0.0007927	9
	19	64	3796.875	269.3365	-185.1304	1	326.8263	-34.50297	-1.5596E-005	0.001011	9
	20	66	2987.132	274.9668	-230.3708	1	358.7163	-39.95672	-2.375622E-005	0.000874	9
	21	69	2390.625	279.9981	-282.0356	1	397.4205	-45.2077	-2.358676E-005	0.000647	9
	22	71	1884.191	289.204	-351.0326	1	454.8218	-50.51603	-5.904397E-006	0.004477	8
	23	73	1516.544	296.2118	-428.9485	1	521.2852	-55.37285	1.115939E-005	-0.0016883	8
	24	76	1193.986	310.5324	-537.0874	1	620.3976	-59.96442	5.191272E-006	-0.0030063	8
	25	78	946.5144	328.0183	-665.5813	1	742.0206	-63.76455	-1.020434E-005	0.0038281	8
	26	81	751.7689	350.8714	-827.1456	1	898.4879	-67.01357	7.856562E-006	-0.0033657	8
	27	83	597.4265	384.2905	-1025.071	1	1094.737	-69.44939	1.000991E-005	-0.0033232	8
	28	86	477.4305	424.1664	-1259.333	1	1328.848	-71.38554	1.412003E-008	0.0006407	8
	29	88	376.6741	482.5091	-1565.419	1	1638.094	-72.86913	7.150105E-009	0.0006501	8
	30	90	298.2954	559.9066	-1936.527	1	2015.845	-73.87387	1.84162E-008	0.0006346	8
	31	93	237.7717	660.9415	-2378.01	1	2468.152	-74.46732	2.215675E-008	0.0006443	8
	32	95	189.0121	798.3083	-2922.344	1	3029.421	-74.72106	1.462963E-008	0.0006542	8
	33	97	150.2404	984.713	-3583.651	1	3716.479	-74.63551	1.161168E-008	0.0006426	8
	34	100	119.1737	1245.08	-4401.715	1	4574.42	-74.20578	-2.072146E-008	0.0006158	7
	35	102	95.0169	1583.318	-5349.493	1	5578.886	-73.51254	-1.99823E-008	0.000607	7
	36	105	75.60484	2046.984	-6488.844	1	6804.061	-72.49149	-2.459996E-008	0.0006225	7
	37	107	54.50582	3009.223	-8471.853	1	8990.423	-70.44483	-2.263966E-008	0.0006203	7
	38	110	45.95588	3699.881	-9685.79	1	10368.4	-69.09362	-2.31271E-008	0.000621	7
	39	112	37.20238	4777.845	-11341.47	1	12306.77	-67.15565	-2.361416E-008	0.0006323	7
	40	115	30.04808	6198.667	-13180.94	1	14565.73	-64.81356	-1.742902E-008	0.000621	7
	41	117	23.91582	8091.735	-15257.88	1	17270.76	-62.06158	-1.730262E-008	0.0006196	7
	42	119	18.60119	10747.06	-17642.92	1	20658.46	-58.65261	-1.292434E-008	0.0006086	7
	43	122	15.02404	13484.64	-19568.43	1	23764.66	-55.4292	-1.570308E-008	0.000636	7
	44	124	12.01923	16798.79	-21396.8	1	27203.36	-51.86427	-2.335688E-008	0.0006105	7
	45	126	9.450605	20739.93	-22962.63	1	30942.32	-47.91154	-1.653788E-008	0.0006313	7
	46	129	7.512019	24790.75	-24081.64	1	34561.64	-44.16873	-2.099391E-008	0.0006397	7
	47	132	5.978954	28880.94	-24548.6	1	37904.39	-40.36431	-1.879536E-008	0.0006694	7
	48	135	4.734848	32954.45	-24393	1	41000.17	-36.50898	-1.443434E-008	0.0006968	6
	49	138	3.75601	36575.88	-23533.04	1	43492.52	-32.75737	-1.779113E-008	0.0006747	6
	50	144	3.004808	39591.06	-22412.99	1	45494.99	-29.51474	-2.488837E-008	0.0007444	6
	51	150	2.372217	42843.61	-21535.27	1	47951.46	-26.68631	-1.844518E-008	0.0007347	6
	52	154	1.878005	44683.17	-19425.23	1	48722.94	-23.49616	-2.740249E-008	0.0006416	6
	53	163	1.512097	46241.4	-17935.79	1	49597.98	-21.19993	-3.041727E-008	0.0007553	6
	54	174	1.201923	47648.88	-16438.94	1	50404.9	-19.03452	-3.122272E-008	0.0006326	6
	55	187	0.956633	49099.2	-15125.79	1	51376.27	-17.12228	-5.655766E-008	3.036058E-005	6
