EXPLAIN
TAG	EISPOT
TITLE	LABEL	Potentiostatic EIS	Test Identifier
DATE	LABEL	8/25/2020	Date
TIME	LABEL	15:35:07	Time
NOTES	NOTES	1	Notes...
	
PSTAT	PSTAT	REF3000-16137	Potentiostat
VDC	POTEN	0.00000E+000	T	DC Voltage (V)
FREQINIT	QUANT	3.00000E+005	Initial Freq. (Hz)
FREQFINAL	QUANT	1.00000E+000	Final Freq. (Hz)
PTSPERDEC	QUANT	1.00000E+001	Points/decade
VAC	QUANT	5.00000E+001	AC Voltage (mV rms)
AREA	QUANT	1.00000E+000	Sample Area (cm^2)
SPEED	SELECTOR	2	Optimize for:
ZGUESS	QUANT	1.00000E+003	Estimated Z (ohms)
EOC	QUANT	0	Open Circuit (V)
SEQUENCER	TOGGLE	TRUE	Run as Sequence
PSTATMODEL	IQUANT	5	Pstat Model
PSTATSECTION	LABEL	REF3000-16137	Pstat Section
PSTATSERIALNO	LABEL	16137	Pstat Serial Number
CTRLMODE	IQUANT	1	Control Mode
IESTAB	IQUANT	0	I/E Stability
CASPEED	IQUANT	1	Control Amp Speed
CONVENTION	IQUANT	1	Current Convention
ICHRANGE	IQUANT	2	Ich Range
ICHRANGEMODE	TOGGLE	F	Ich Auto Range
ICHOFFSETENABLE	TOGGLE	T	Ich Offset Enable
ICHOFFSET	QUANT	0	Ich Offset (V)
ICHFILTER	IQUANT	3	Ich Filter
VCHRANGE	IQUANT	2	Vch Range
VCHRANGEMODE	TOGGLE	F	Vch Auto Range
VCHOFFSETENABLE	TOGGLE	T	Vch Offset Enable
VCHOFFSET	QUANT	0	Vch Offset (V)
VCHFILTER	IQUANT	3	Vch Filter
ACHRANGE	IQUANT	2	Ach Range
ACHOFFSETENABLE	TOGGLE	F	Ach Offset Enable
ACHOFFSET	QUANT	0	Ach Offset (V)
ACHFILTER	IQUANT	3	Ach Filter
IERANGELOWERLIMIT	IQUANT	2	I/E Range Lower Limit
IERANGEMODE	TOGGLE	F	I/E AutoRange
IERANGE	IQUANT	11	I/E Range
POSFEEDENABLE	TOGGLE	F	Positive Feedback IR Comp
POSFEEDRESISTANCE	QUANT	0	Positive Feedback Resistance (ohm)
ACHSELECT	IQUANT	0	Ach Select
CABLEID	IQUANT	13	Cable ID
DCCALDATE	LABEL	7/31/2020	DC Calibration Date
ACCALDATE	LABEL	7/31/2020	AC Calibration Date
THERMOSELECT	IQUANT	1	Thermo Select
FRAMEWORKVERSION	QUANT	6.33	Framework Version
INSTRUMENTVERSION	LABEL	3.50	Instrument Version
COMPLIANCEVOLTAGE	IQUANT	0	Compliance Voltage
ZCURVE	TABLE
	Pt	Time	Freq	Zreal	Zimag	Zsig	Zmod	Zphz	Idc	Vdc	IERange
	#	s	Hz	ohm	ohm	V	ohm	°	A	V	#
	0	12	300046.9	222.5165	-13.54562	1	222.9284	-3.483565	-8.61029E-005	0.0033605	9
	1	15	238359.4	225.4559	-13.3112	1	225.8486	-3.378891	-4.448994E-006	0.0011993	9
	2	19	189328.1	224.6765	-15.23122	1	225.1922	-3.878249	-8.433865E-005	0.0021514	9
	3	22	150421.9	225.77	-15.89814	1	226.3291	-4.027971	-9.184729E-005	0.0034516	9
	4	25	119484.4	226.6465	-17.36039	1	227.3104	-4.38012	-1.607807E-005	0.0013742	9
	5	29	94921.88	228.3248	-19.20946	1	229.1315	-4.809092	2.411472E-005	-0.0003094	9
	6	32	75421.88	229.8751	-21.95122	1	230.9208	-5.454745	-9.4995E-006	-0.0001319	9
	7	34	59859.37	232.0393	-25.0015	1	233.3823	-6.149714	1.991244E-006	0.0005217	9
	8	37	47578.12	234.1331	-28.60917	1	235.8745	-6.966547	-1.919454E-006	-0.0003831	9
	9	39	37828.12	236.6905	-32.93144	1	238.9704	-7.920879	-1.902783E-005	0.0003871	9
	10	43	30046.88	239.8499	-38.56139	1	242.9299	-9.133458	2.297751E-005	0.0006197	10
	11	47	23859.38	242.6719	-43.65418	1	246.5671	-10.19785	-2.117461E-005	0.0004161	9
	12	50	18984.38	245.7984	-50.7643	1	250.9858	-11.66913	-8.143479E-006	0.000891	9
	13	54	15046.87	249.5169	-59.56369	1	256.5278	-13.42616	-2.140842E-005	0.000457	9
	14	58	11953.13	252.3358	-69.55691	1	261.747	-15.41098	-2.394938E-005	0.0008281	9
	15	61	9515.62	255.87	-81.85738	1	268.6449	-17.7404	-1.534539E-005	0.0001312	9
	16	65	7546.875	259.1198	-97.2883	1	276.7816	-20.57898	-2.076877E-005	0.0010044	9
	17	67	5928.309	261.9669	-119.7904	1	288.0562	-24.57335	-1.285833E-006	-0.0003885	9
	18	71	4733.456	265.4618	-144.3568	1	302.1736	-28.53713	-1.496439E-006	-0.0003828	9
	19	73	3796.875	268.3948	-176.4539	1	321.2036	-33.32259	2.010279E-005	-0.0001125	9
	20	75	2987.132	273.3444	-218.7966	1	350.1273	-38.67528	2.739661E-005	-0.0004939	9
	21	78	2390.625	279.1803	-268.0819	1	387.0524	-43.8382	2.565485E-005	-0.0007945	9
	22	80	1884.191	285.8208	-335.5149	1	440.7537	-49.57275	1.582759E-005	-0.0008081	9
	23	83	1516.544	293.8843	-407.313	1	502.2668	-54.18881	1.596812E-006	-0.0021937	8
	24	85	1193.986	307.0853	-511.0145	1	596.1856	-58.99697	-1.022068E-005	0.0037795	8
	25	88	946.5144	324.3846	-631.1666	1	709.6454	-62.79935	1.41945E-006	-0.0021296	8
	26	90	751.7689	345.2872	-785.3086	1	857.8653	-66.2657	1.017619E-006	0.0028461	8
	27	92	597.4265	375.5933	-972.601	1	1042.604	-68.88474	1.633012E-006	-0.0021821	8
	28	95	477.4305	413.4232	-1194.793	1	1264.298	-70.91331	3.964733E-009	0.0006506	8
	29	97	376.6741	467.7136	-1485.48	1	1557.372	-72.52303	-6.357572E-010	0.0006402	8
	30	100	298.2954	539.5516	-1837.948	1	1915.508	-73.63977	2.029107E-008	0.0006362	8
	31	102	237.7717	633.321	-2257.574	1	2344.725	-74.32951	-6.786201E-009	0.0006352	8
	32	104	189.0121	760.8949	-2774.985	1	2877.412	-74.66648	1.031209E-008	0.0006405	8
	33	107	150.2404	933.6317	-3404.783	1	3530.469	-74.66574	-4.819977E-009	0.0006386	8
	34	109	119.1737	1174.7	-4184.596	1	4346.351	-74.3195	-2.352822E-008	0.0006056	7
	35	112	95.0169	1488.535	-5089.548	1	5302.757	-73.69743	-2.670738E-008	0.0006225	7
	36	114	75.60484	1918.437	-6178.548	1	6469.533	-72.75045	-2.373038E-008	0.000605	7
	37	117	54.50582	2809.194	-8082.886	1	8557.139	-70.83519	-2.381549E-008	0.0006191	7
	38	119	45.95588	3451.041	-9250.545	1	9873.31	-69.54129	-2.452174E-008	0.0006208	7
	39	122	37.20238	4455.62	-10853.97	1	11732.92	-67.68156	-1.815401E-008	0.0006083	7
	40	124	30.04808	5772.514	-12639.23	1	13895.04	-65.45316	-2.584734E-008	0.0006095	7
	41	126	23.91582	7559.453	-14686.64	1	16517.95	-62.76438	-2.217623E-008	0.000616	7
	42	129	18.60119	10056.17	-17065.66	1	19808.16	-59.49072	-3.053047E-008	0.0006259	7
	43	131	15.02404	12681.18	-19006.9	1	22848.96	-56.28925	-1.52825E-008	0.0006218	7
	44	133	12.01923	15867.36	-20879.87	1	26224.83	-52.76749	-3.352797E-008	0.0006196	7
	45	136	9.450605	19721.28	-22544.61	1	29953.1	-48.82165	-2.242502E-008	0.0006347	7
	46	138	7.512019	23698.2	-23727.64	1	33535.14	-45.03556	-2.399786E-008	0.000689	7
	47	141	5.978954	27801.02	-24191.23	1	36852.57	-41.02836	-2.653248E-008	0.0006233	7
	48	144	4.734848	31940.08	-24203.89	1	40074.89	-37.1545	-1.837583E-008	0.0006671	6
	49	147	3.75601	35463.41	-23148.78	1	42349.96	-33.13454	-2.816887E-008	0.0006414	6
	50	153	3.004808	38422.49	-21824.74	1	44188.32	-29.59744	-2.736368E-008	0.0006548	6
	51	159	2.372217	41563.84	-20808.8	1	46481.81	-26.59468	-3.474945E-008	0.000675	6
	52	163	1.878005	43208.05	-18473.65	1	46991.61	-23.14918	-3.76736E-008	0.0006533	6
	53	172	1.512097	44610.07	-16994.79	1	47737.63	-20.85499	-3.94661E-008	0.0005777	6
	54	183	1.201923	45894.29	-15463.69	1	48429.45	-18.62081	-4.335512E-008	0.0006631	6
	55	196	0.956633	47103.28	-14142.52	1	49180.58	-16.71211	-5.99961E-008	2.820945E-005	6
