EXPLAIN
TAG	EISPOT
TITLE	LABEL	Potentiostatic EIS	Test Identifier
DATE	LABEL	8/9/2020	Date
TIME	LABEL	18:03:02	Time
NOTES	NOTES	1	Notes...
	
PSTAT	PSTAT	REF3000-16137	Potentiostat
VDC	POTEN	0.00000E+000	T	DC Voltage (V)
FREQINIT	QUANT	3.00000E+005	Initial Freq. (Hz)
FREQFINAL	QUANT	1.00000E+000	Final Freq. (Hz)
PTSPERDEC	QUANT	1.00000E+001	Points/decade
VAC	QUANT	5.00000E+001	AC Voltage (mV rms)
AREA	QUANT	1.00000E+000	Sample Area (cm^2)
SPEED	SELECTOR	2	Optimize for:
ZGUESS	QUANT	1.00000E+003	Estimated Z (ohms)
EOC	QUANT	0	Open Circuit (V)
SEQUENCER	TOGGLE	TRUE	Run as Sequence
PSTATMODEL	IQUANT	5	Pstat Model
PSTATSECTION	LABEL	REF3000-16137	Pstat Section
PSTATSERIALNO	LABEL	16137	Pstat Serial Number
CTRLMODE	IQUANT	1	Control Mode
IESTAB	IQUANT	0	I/E Stability
CASPEED	IQUANT	1	Control Amp Speed
CONVENTION	IQUANT	1	Current Convention
ICHRANGE	IQUANT	2	Ich Range
ICHRANGEMODE	TOGGLE	F	Ich Auto Range
ICHOFFSETENABLE	TOGGLE	T	Ich Offset Enable
ICHOFFSET	QUANT	0	Ich Offset (V)
ICHFILTER	IQUANT	3	Ich Filter
VCHRANGE	IQUANT	2	Vch Range
VCHRANGEMODE	TOGGLE	F	Vch Auto Range
VCHOFFSETENABLE	TOGGLE	T	Vch Offset Enable
VCHOFFSET	QUANT	0	Vch Offset (V)
VCHFILTER	IQUANT	3	Vch Filter
ACHRANGE	IQUANT	2	Ach Range
ACHOFFSETENABLE	TOGGLE	F	Ach Offset Enable
ACHOFFSET	QUANT	0	Ach Offset (V)
ACHFILTER	IQUANT	3	Ach Filter
IERANGELOWERLIMIT	IQUANT	2	I/E Range Lower Limit
IERANGEMODE	TOGGLE	F	I/E AutoRange
IERANGE	IQUANT	11	I/E Range
POSFEEDENABLE	TOGGLE	F	Positive Feedback IR Comp
POSFEEDRESISTANCE	QUANT	0	Positive Feedback Resistance (ohm)
ACHSELECT	IQUANT	0	Ach Select
CABLEID	IQUANT	13	Cable ID
DCCALDATE	LABEL	7/31/2020	DC Calibration Date
ACCALDATE	LABEL	7/31/2020	AC Calibration Date
THERMOSELECT	IQUANT	1	Thermo Select
FRAMEWORKVERSION	QUANT	6.33	Framework Version
INSTRUMENTVERSION	LABEL	3.50	Instrument Version
COMPLIANCEVOLTAGE	IQUANT	0	Compliance Voltage
ZCURVE	TABLE
	Pt	Time	Freq	Zreal	Zimag	Zsig	Zmod	Zphz	Idc	Vdc	IERange
	#	s	Hz	ohm	ohm	V	ohm	°	A	V	#
	0	10	300046.9	4.485539	1.323214	1	4.67664	16.43582	5.512375E-006	0.0001279	10
	1	13	238359.4	4.499502	1.045578	1	4.619388	13.08201	3.76209E-005	-0.000216	10
	2	16	189328.1	4.508962	0.8185518	1	4.582659	10.28936	1.58629E-005	2.59495E-005	10
	3	19	150421.9	4.52451	0.6337321	1	4.568677	7.973345	-2.258701E-005	0.0002765	10
	4	21	119484.4	4.527494	0.4781474	1	4.552673	6.028644	6.656155E-005	0.0002666	10
	5	24	94921.88	4.543797	0.3660312	1	4.558516	4.605587	3.066261E-005	0.0004706	10
	6	26	75421.88	4.557135	0.2509608	1	4.56404	3.152086	-7.17223E-006	0.0005516	10
	7	29	59859.37	4.572066	0.1492157	1	4.5745	1.869264	2.67548E-006	0.0005666	10
	8	31	47578.12	4.588468	0.056809	1	4.58882	0.7093319	1.802037E-005	0.0005829	10
	9	34	37828.12	4.607752	-0.0313768	1	4.607859	-0.3901536	-3.04781E-005	0.000626	10
	10	36	30046.88	4.62893	-0.1197771	1	4.630479	-1.482241	-1.54594E-005	0.0006666	10
	11	39	23859.38	4.650474	-0.2120973	1	4.655308	-2.611318	2.24192E-005	0.0006565	10
	12	41	18984.38	4.673128	-0.311284	1	4.683484	-3.810928	4.900268E-006	0.0006451	10
	13	43	15046.87	4.697717	-0.4265462	1	4.717042	-5.188151	1.509404E-005	0.0006418	10
	14	46	11953.13	4.725807	-0.560241	1	4.758899	-6.760819	1.160521E-005	0.0006415	10
	15	48	9515.62	4.756595	-0.7163011	1	4.810227	-8.563888	9.118681E-006	0.0006442	10
	16	50	7546.875	4.792335	-0.9088699	1	4.877757	-10.73865	6.429881E-006	0.0006478	10
	17	52	5928.309	4.834609	-1.154774	1	4.970608	-13.43373	-5.004435E-006	0.0006826	10
	18	55	4733.456	4.881769	-1.435808	1	5.088537	-16.38947	-1.914699E-005	0.0006772	10
	19	57	3796.875	4.936273	-1.772099	1	5.244723	-19.7479	-1.018366E-005	0.0006677	10
	20	59	2987.132	5.007434	-2.221996	1	5.47829	-23.92875	1.076234E-005	0.0006432	10
	21	62	2390.625	5.086965	-2.739899	1	5.777911	-28.30743	2.329881E-005	0.0006587	10
	22	64	1884.191	5.190884	-3.419518	1	6.215978	-33.37507	-6.034801E-006	0.000692	10
	23	66	1516.544	5.309604	-4.182545	1	6.75911	-38.22863	1.037637E-005	0.0006434	10
	24	69	1193.986	5.470873	-5.218896	1	7.560908	-43.64968	1.566299E-005	0.0006438	10
	25	71	946.5144	5.669345	-6.461788	1	8.596289	-48.73743	1.950916E-005	0.0006451	10
	26	73	751.7689	5.913402	-7.991705	1	9.94161	-53.50069	1.002012E-005	0.0006409	10
	27	76	597.4265	6.220602	-9.86881	1	11.66573	-57.77556	-2.774183E-005	0.0006986	10
	28	78	477.4305	6.60795	-12.11378	1	13.79886	-61.38795	-2.419245E-006	0.0006776	10
	29	80	376.6741	7.125858	-15.03373	1	16.63703	-64.63945	-3.189162E-006	0.0006758	10
	30	83	298.2954	7.780391	-18.58239	1	20.14546	-67.28108	-3.350647E-006	0.0006906	10
	31	85	237.7717	8.598201	-22.81389	1	24.38037	-69.34935	-3.10517E-006	0.0006862	10
	32	87	189.0121	9.66666	-28.05984	1	29.67825	-70.99109	-1.995764E-006	0.0006823	10
	33	90	150.2404	11.04939	-34.46725	1	36.19503	-72.22536	-2.776628E-006	0.0006806	10
	34	92	119.1737	12.84867	-42.30957	1	44.21751	-73.10739	1.36772E-006	8.517112E-005	9
	35	94	95.0169	15.14762	-51.66472	1	53.83952	-73.65935	1.294646E-006	7.700572E-005	9
	36	97	75.60484	18.1456	-63.07365	1	65.63191	-73.95005	1.237246E-006	7.564203E-005	9
	37	100	54.50582	23.97091	-83.5392	1	86.91032	-73.98959	1.200252E-006	7.195845E-005	9
	38	102	45.95588	27.91286	-96.5302	1	100.4848	-73.87214	1.337237E-006	8.504829E-005	9
	39	104	37.20238	33.80532	-115.1135	1	119.9747	-73.6341	1.328664E-006	7.812059E-005	9
	40	107	30.04808	41.10374	-137.1844	1	143.2099	-73.32053	1.319191E-006	7.766134E-005	9
	41	109	23.91582	50.49986	-164.883	1	172.4431	-72.97138	1.392387E-006	7.732161E-005	9
	42	112	18.60119	62.9776	-201.3279	1	210.9481	-72.62975	1.332469E-006	8.018087E-005	9
	43	114	15.02404	75.21092	-238.0876	1	249.6846	-72.46888	1.381164E-006	8.244662E-005	9
	44	116	12.01923	89.70026	-283.5918	1	297.4398	-72.44781	1.551644E-006	8.351439E-005	9
	45	119	9.450605	106.762	-342.6134	1	358.8622	-72.69241	1.473951E-006	6.76617E-005	9
	46	121	7.512019	124.2286	-409.6585	1	428.0804	-73.13012	5.455313E-007	0.0006791	8
	47	124	5.978954	143.769	-493.3606	1	513.8815	-73.75348	4.742093E-007	0.0006529	8
	48	127	4.734848	165.9271	-599.5232	1	622.061	-74.52977	5.653867E-007	0.0006723	8
	49	130	3.75601	191.2761	-729.98	1	754.624	-75.31693	4.570676E-007	0.0006552	8
	50	133	3.004808	220.0678	-885.3204	1	912.2621	-76.04067	5.057203E-007	0.0006253	8
	51	137	2.372217	256.5937	-1090.431	1	1120.214	-76.7584	4.758427E-007	0.000587	8
	52	141	1.878005	302.3376	-1342.374	1	1376	-77.30729	4.818549E-007	0.0006647	8
	53	146	1.512097	356.2356	-1627.486	1	1666.017	-77.65342	4.328391E-007	0.0006047	8
	54	151	1.201923	426.8454	-2008.555	1	2053.41	-78.00236	4.868471E-007	0.0006849	8
	55	158	0.956633	520.3762	-2471.864	1	2526.044	-78.1117	4.547244E-007	1.440653E-005	8
