EXPLAIN
TAG	EISPOT
TITLE	LABEL	Potentiostatic EIS	Test Identifier
DATE	LABEL	8/9/2020	Date
TIME	LABEL	17:51:43	Time
NOTES	NOTES	1	Notes...
	
PSTAT	PSTAT	REF3000-16137	Potentiostat
VDC	POTEN	0.00000E+000	T	DC Voltage (V)
FREQINIT	QUANT	3.00000E+005	Initial Freq. (Hz)
FREQFINAL	QUANT	1.00000E+000	Final Freq. (Hz)
PTSPERDEC	QUANT	1.00000E+001	Points/decade
VAC	QUANT	5.00000E+001	AC Voltage (mV rms)
AREA	QUANT	1.00000E+000	Sample Area (cm^2)
SPEED	SELECTOR	2	Optimize for:
ZGUESS	QUANT	1.00000E+003	Estimated Z (ohms)
EOC	QUANT	0	Open Circuit (V)
SEQUENCER	TOGGLE	TRUE	Run as Sequence
PSTATMODEL	IQUANT	5	Pstat Model
PSTATSECTION	LABEL	REF3000-16137	Pstat Section
PSTATSERIALNO	LABEL	16137	Pstat Serial Number
CTRLMODE	IQUANT	1	Control Mode
IESTAB	IQUANT	0	I/E Stability
CASPEED	IQUANT	1	Control Amp Speed
CONVENTION	IQUANT	1	Current Convention
ICHRANGE	IQUANT	2	Ich Range
ICHRANGEMODE	TOGGLE	F	Ich Auto Range
ICHOFFSETENABLE	TOGGLE	T	Ich Offset Enable
ICHOFFSET	QUANT	0	Ich Offset (V)
ICHFILTER	IQUANT	3	Ich Filter
VCHRANGE	IQUANT	2	Vch Range
VCHRANGEMODE	TOGGLE	F	Vch Auto Range
VCHOFFSETENABLE	TOGGLE	T	Vch Offset Enable
VCHOFFSET	QUANT	0	Vch Offset (V)
VCHFILTER	IQUANT	3	Vch Filter
ACHRANGE	IQUANT	2	Ach Range
ACHOFFSETENABLE	TOGGLE	F	Ach Offset Enable
ACHOFFSET	QUANT	0	Ach Offset (V)
ACHFILTER	IQUANT	3	Ach Filter
IERANGELOWERLIMIT	IQUANT	2	I/E Range Lower Limit
IERANGEMODE	TOGGLE	F	I/E AutoRange
IERANGE	IQUANT	11	I/E Range
POSFEEDENABLE	TOGGLE	F	Positive Feedback IR Comp
POSFEEDRESISTANCE	QUANT	0	Positive Feedback Resistance (ohm)
ACHSELECT	IQUANT	0	Ach Select
CABLEID	IQUANT	13	Cable ID
DCCALDATE	LABEL	7/31/2020	DC Calibration Date
ACCALDATE	LABEL	7/31/2020	AC Calibration Date
THERMOSELECT	IQUANT	1	Thermo Select
FRAMEWORKVERSION	QUANT	6.33	Framework Version
INSTRUMENTVERSION	LABEL	3.50	Instrument Version
COMPLIANCEVOLTAGE	IQUANT	0	Compliance Voltage
ZCURVE	TABLE
	Pt	Time	Freq	Zreal	Zimag	Zsig	Zmod	Zphz	Idc	Vdc	IERange
	#	s	Hz	ohm	ohm	V	ohm	°	A	V	#
	0	9	300046.9	2.632824	1.025839	1	2.825617	21.2876	-0.0002018	0.0010296	12
	1	13	238359.4	2.513342	1.035361	1	2.718246	22.38901	4.784996E-005	-2.74338E-005	11
	2	16	189328.1	2.543175	0.6425774	1	2.623098	14.17999	-0.0001507	1.687748E-005	12
	3	20	150421.9	2.525838	0.4893457	1	2.572803	10.96442	-0.0001397	0.0003802	12
	4	23	119484.4	2.512012	0.3713113	1	2.539306	8.408252	-0.0002264	0.000224	12
	5	27	94921.88	2.499198	0.3534881	1	2.524073	8.050548	4.087462E-006	0.000556	11
	6	29	75421.88	2.505617	0.1763709	1	2.511817	4.026421	-5.653791E-005	0.0006118	12
	7	33	59859.37	2.506973	0.1504186	1	2.511481	3.433636	2.360842E-005	0.0006444	11
	8	35	47578.12	2.512668	0.0655734	1	2.513524	1.494916	8.785883E-007	0.0006649	11
	9	38	37828.12	2.518769	-0.0152273	1	2.518815	-0.3463803	-5.397427E-005	0.0006251	11
	10	40	30046.88	2.526809	-0.0957552	1	2.528622	-2.170226	-2.575783E-005	0.0006608	11
	11	43	23859.38	2.535698	-0.179872	1	2.54207	-4.057529	2.631172E-005	0.000703	11
	12	45	18984.38	2.546391	-0.2708845	1	2.560759	-6.072274	-3.021336E-005	0.0006689	11
	13	48	15046.87	2.558681	-0.3753625	1	2.586068	-8.345846	1.732663E-005	0.0006946	11
	14	50	11953.13	2.573807	-0.4961002	1	2.621182	-10.90994	-2.063834E-005	0.0006806	11
	15	52	9515.62	2.592812	-0.6376581	1	2.670071	-13.81672	-2.826587E-005	0.0007623	11
	16	54	7546.875	2.615325	-0.8107547	1	2.73811	-17.22351	-7.057401E-006	0.0007078	11
	17	57	5928.309	2.644169	-1.032047	1	2.838442	-21.32123	-2.649103E-005	0.000692	11
	18	59	4733.456	2.678901	-1.283847	1	2.970652	-25.60579	-3.582534E-005	0.0007497	11
	19	61	3796.875	2.719987	-1.58496	1	3.148083	-30.22973	2.065681E-005	0.0007248	11
	20	64	2987.132	2.777241	-1.985891	1	3.41421	-35.56701	2.76257E-005	0.000725	11
	21	66	2390.625	2.843741	-2.445758	1	3.750813	-40.69716	-4.531286E-005	0.000669	11
	22	68	1884.191	2.938158	-3.052416	1	4.236745	-46.09267	6.313488E-006	0.0006666	10
	23	71	1516.544	3.044225	-3.730236	1	4.814765	-50.78231	-2.288183E-005	0.0006827	10
	24	73	1193.986	3.192222	-4.646135	1	5.637096	-55.5082	1.986928E-005	0.000665	10
	25	75	946.5144	3.374413	-5.747114	1	6.664531	-59.58072	-7.160502E-006	0.0006515	10
	26	78	751.7689	3.612338	-7.088693	1	7.956039	-62.99699	-2.42001E-005	0.0006893	10
	27	80	597.4265	3.917239	-8.731249	1	9.56972	-65.83681	-3.710082E-006	0.0006552	10
	28	82	477.4305	4.294665	-10.69053	1	11.52092	-68.11339	-1.670153E-006	0.0006786	10
	29	85	376.6741	4.813353	-13.22964	1	14.07806	-70.00704	-1.189309E-006	0.0006738	10
	30	87	298.2954	5.480806	-16.29726	1	17.19418	-71.41209	-1.214516E-006	0.0006779	10
	31	89	237.7717	6.323565	-19.92838	1	20.9076	-72.39501	-1.415558E-006	0.000672	10
	32	92	189.0121	7.429268	-24.38401	1	25.49066	-73.05518	-1.514914E-006	0.0006728	10
	33	94	150.2404	8.863375	-29.77591	1	31.06709	-73.42335	-1.29067E-006	0.0006757	10
	34	96	119.1737	10.72069	-36.32746	1	37.87635	-73.55801	-1.672265E-006	0.0006777	10
	35	99	95.0169	13.01593	-43.94831	1	45.83524	-73.50258	1.244755E-006	8.000275E-005	9
	36	101	75.60484	15.9414	-53.16428	1	55.50287	-73.30856	1.107959E-006	8.401691E-005	9
	37	104	54.50582	21.37306	-69.42427	1	72.63978	-72.88842	1.012186E-006	7.734923E-005	9
	38	106	45.95588	24.87667	-79.63331	1	83.42849	-72.6517	1.506987E-006	8.275134E-005	9
	39	109	37.20238	29.85283	-94.11402	1	98.7352	-72.40105	7.931595E-007	0.0001401	9
	40	111	30.04808	35.66503	-111.2908	1	116.8659	-72.23106	1.141988E-006	8.506406E-005	9
	41	113	23.91582	42.71487	-133.0542	1	139.7425	-72.20162	1.068195E-006	8.186851E-005	9
	42	116	18.60119	51.42909	-162.1496	1	170.1101	-72.4025	1.452382E-006	8.467337E-005	9
	43	118	15.02404	59.69096	-192.1977	1	201.2535	-72.74674	1.338589E-006	7.227753E-005	9
	44	120	12.01923	69.3323	-230.343	1	240.5512	-73.24842	1.152018E-006	7.359243E-005	9
	45	123	9.450605	81.20338	-281.249	1	292.737	-73.89529	1.271301E-006	8.956551E-005	9
	46	125	7.512019	94.73391	-341.6364	1	354.5278	-74.50159	1.37087E-006	7.329993E-005	9
	47	128	5.978954	110.4768	-413.9536	1	428.4421	-75.05705	4.350717E-007	0.0006641	8
	48	131	4.734848	131.4652	-507.565	1	524.3141	-75.47885	4.295661E-007	0.0006346	8
	49	134	3.75601	158.8994	-622.6099	1	642.5668	-75.68288	5.534316E-007	0.0006819	8
	50	138	3.004808	193.5623	-758.5082	1	782.8162	-75.68433	4.661424E-007	0.0006818	8
	51	141	2.372217	244.3064	-933.7333	1	965.165	-75.33755	4.177735E-007	0.0006667	8
	52	146	1.878005	314.9529	-1148.579	1	1190.979	-74.66579	4.973298E-007	0.0006379	8
	53	150	1.512097	402.0838	-1387.775	1	1444.85	-73.84197	4.548328E-007	0.0007563	8
	54	156	1.201923	531.8972	-1688.698	1	1770.484	-72.51689	4.97435E-007	0.000635	8
	55	162	0.956633	706.4184	-2041.215	1	2159.996	-70.91042	3.330329E-007	1.3469E-005	8
