EXPLAIN
TAG	EISPOT
TITLE	LABEL	Potentiostatic EIS	Test Identifier
DATE	LABEL	8/9/2020	Date
TIME	LABEL	18:05:49	Time
NOTES	NOTES	1	Notes...
	
PSTAT	PSTAT	REF3000-16137	Potentiostat
VDC	POTEN	0.00000E+000	T	DC Voltage (V)
FREQINIT	QUANT	3.00000E+005	Initial Freq. (Hz)
FREQFINAL	QUANT	1.00000E+000	Final Freq. (Hz)
PTSPERDEC	QUANT	1.00000E+001	Points/decade
VAC	QUANT	5.00000E+001	AC Voltage (mV rms)
AREA	QUANT	1.00000E+000	Sample Area (cm^2)
SPEED	SELECTOR	2	Optimize for:
ZGUESS	QUANT	1.00000E+003	Estimated Z (ohms)
EOC	QUANT	0	Open Circuit (V)
SEQUENCER	TOGGLE	TRUE	Run as Sequence
PSTATMODEL	IQUANT	5	Pstat Model
PSTATSECTION	LABEL	REF3000-16137	Pstat Section
PSTATSERIALNO	LABEL	16137	Pstat Serial Number
CTRLMODE	IQUANT	1	Control Mode
IESTAB	IQUANT	0	I/E Stability
CASPEED	IQUANT	1	Control Amp Speed
CONVENTION	IQUANT	1	Current Convention
ICHRANGE	IQUANT	2	Ich Range
ICHRANGEMODE	TOGGLE	F	Ich Auto Range
ICHOFFSETENABLE	TOGGLE	T	Ich Offset Enable
ICHOFFSET	QUANT	0	Ich Offset (V)
ICHFILTER	IQUANT	3	Ich Filter
VCHRANGE	IQUANT	2	Vch Range
VCHRANGEMODE	TOGGLE	F	Vch Auto Range
VCHOFFSETENABLE	TOGGLE	T	Vch Offset Enable
VCHOFFSET	QUANT	0	Vch Offset (V)
VCHFILTER	IQUANT	3	Vch Filter
ACHRANGE	IQUANT	2	Ach Range
ACHOFFSETENABLE	TOGGLE	F	Ach Offset Enable
ACHOFFSET	QUANT	0	Ach Offset (V)
ACHFILTER	IQUANT	3	Ach Filter
IERANGELOWERLIMIT	IQUANT	2	I/E Range Lower Limit
IERANGEMODE	TOGGLE	F	I/E AutoRange
IERANGE	IQUANT	11	I/E Range
POSFEEDENABLE	TOGGLE	F	Positive Feedback IR Comp
POSFEEDRESISTANCE	QUANT	0	Positive Feedback Resistance (ohm)
ACHSELECT	IQUANT	0	Ach Select
CABLEID	IQUANT	13	Cable ID
DCCALDATE	LABEL	7/31/2020	DC Calibration Date
ACCALDATE	LABEL	7/31/2020	AC Calibration Date
THERMOSELECT	IQUANT	1	Thermo Select
FRAMEWORKVERSION	QUANT	6.33	Framework Version
INSTRUMENTVERSION	LABEL	3.50	Instrument Version
COMPLIANCEVOLTAGE	IQUANT	0	Compliance Voltage
ZCURVE	TABLE
	Pt	Time	Freq	Zreal	Zimag	Zsig	Zmod	Zphz	Idc	Vdc	IERange
	#	s	Hz	ohm	ohm	V	ohm	°	A	V	#
	0	10	300046.9	5.647153	1.3247	1	5.800445	13.20165	-0.0001017	0.0001962	10
	1	13	238359.4	5.666311	1.036746	1	5.760375	10.36853	-2.46569E-005	-0.0001152	10
	2	16	189328.1	5.679002	0.8082323	1	5.736227	8.099908	9.707879E-006	0.000143	10
	3	19	150421.9	5.704504	0.6259595	1	5.738745	6.262055	-4.522115E-005	0.0004773	10
	4	21	119484.4	5.714424	0.4717809	1	5.733866	4.719616	-4.21761E-005	0.0005879	10
	5	24	94921.88	5.737661	0.364473	1	5.749226	3.634712	-2.279553E-005	0.0005453	10
	6	26	75421.88	5.757154	0.2475971	1	5.762475	2.462594	2.435103E-005	0.0005576	10
	7	29	59859.37	5.779012	0.1430801	1	5.780783	1.418272	-1.104963E-005	0.0006474	10
	8	31	47578.12	5.802926	0.0476595	1	5.803121	0.47056	1.762306E-005	0.0006012	10
	9	34	37828.12	5.830184	-0.042053	1	5.830336	-0.4132665	7.274321E-006	0.0006128	10
	10	36	30046.88	5.858467	-0.1316365	1	5.859945	-1.287188	2.205864E-005	0.0006254	10
	11	39	23859.38	5.887696	-0.2255675	1	5.892015	-2.194024	-2.811266E-005	0.0006565	10
	12	41	18984.38	5.917156	-0.3270454	1	5.926188	-3.163559	-1.917932E-006	0.0006502	10
	13	44	15046.87	5.949352	-0.4460643	1	5.966051	-4.28784	3.383203E-006	0.0006359	10
	14	46	11953.13	5.984717	-0.5832074	1	6.013067	-5.565867	-2.387786E-005	0.000715	10
	15	48	9515.62	6.022615	-0.7454592	1	6.068575	-7.055993	2.844954E-006	0.0006507	10
	16	51	7546.875	6.065777	-0.9452111	1	6.13898	-8.856992	2.138174E-005	0.0006545	10
	17	53	5928.309	6.116508	-1.197938	1	6.232715	-11.08129	1.069511E-005	0.0006381	10
	18	55	4733.456	6.171482	-1.489423	1	6.348667	-13.56828	4.91743E-006	0.0006706	10
	19	57	3796.875	6.233937	-1.837414	1	6.499081	-16.42255	-4.287245E-006	0.0006625	10
	20	60	2987.132	6.312644	-2.303885	1	6.719923	-20.05023	2.272925E-005	0.0006646	10
	21	62	2390.625	6.401384	-2.840093	1	7.003131	-23.92535	1.15505E-005	0.000639	10
	22	64	1884.191	6.514593	-3.545414	1	7.416865	-28.5562	-2.734872E-005	0.000698	10
	23	67	1516.544	6.641228	-4.338979	1	7.93301	-33.15818	-1.498647E-005	0.0006961	10
	24	69	1193.986	6.811095	-5.412742	1	8.69993	-38.47399	-2.59526E-005	0.0007471	10
	25	71	946.5144	7.016185	-6.709215	1	9.70775	-43.71879	2.208962E-006	0.0006528	10
	26	74	751.7689	7.270976	-8.294097	1	11.02992	-48.76075	2.175173E-005	0.000661	10
	27	76	597.4265	7.585764	-10.24782	1	12.74996	-53.48996	-6.278721E-006	0.0006903	10
	28	78	477.4305	7.983045	-12.58187	1	14.90076	-57.60537	-2.721309E-006	0.0006798	10
	29	81	376.6741	8.507311	-15.62354	1	17.78959	-61.43088	-2.736092E-006	0.0006777	10
	30	83	298.2954	9.167805	-19.3238	1	21.38827	-64.6189	-1.856013E-006	0.0006833	10
	31	85	237.7717	9.98874	-23.74138	1	25.7571	-67.18199	-2.615815E-006	0.0006745	10
	32	88	189.0121	11.05432	-29.22728	1	31.24791	-69.28242	-2.124558E-006	0.0006805	10
	33	90	150.2404	12.42453	-35.94112	1	38.02806	-70.93018	-2.425816E-006	0.0006775	10
	34	93	119.1737	14.20097	-44.18237	1	46.4085	-72.1817	1.368305E-006	8.642125E-005	9
	35	95	95.0169	16.47371	-54.04893	1	56.50372	-73.04916	1.254296E-006	8.67212E-005	9
	36	97	75.60484	19.44275	-66.12371	1	68.9229	-73.61476	1.378247E-006	7.278271E-005	9
	37	100	54.50582	25.25051	-87.90277	1	91.45757	-73.97302	1.260116E-006	7.743692E-005	9
	38	102	45.95588	29.2144	-101.7918	1	105.9011	-73.98643	1.502224E-006	8.375154E-005	9
	39	105	37.20238	35.22448	-121.7996	1	126.7908	-73.87012	1.484021E-006	7.809127E-005	9
	40	107	30.04808	42.71809	-145.5697	1	151.7082	-73.64544	1.313786E-006	7.945194E-005	9
	41	110	23.91582	52.61672	-175.5808	1	183.2952	-73.31797	1.339423E-006	7.238411E-005	9
	42	112	18.60119	65.98479	-215.1044	1	224.9975	-72.94624	1.700801E-006	8.08452E-005	9
	43	114	15.02404	79.64548	-254.8114	1	266.9687	-72.64251	1.400304E-006	7.368388E-005	9
	44	116	12.01923	96.0214	-303.8114	1	318.6244	-72.46054	1.334877E-006	7.97904E-005	9
	45	119	9.450605	115.8382	-366.6717	1	384.5343	-72.46774	1.431532E-006	0.0000964	9
	46	121	7.512019	136.3829	-437.3652	1	458.136	-72.68104	3.946778E-007	0.0006558	8
	47	124	5.978954	159.0402	-524.8447	1	548.412	-73.14197	4.809839E-007	0.0006665	8
	48	127	4.734848	184.311	-634.8866	1	661.0988	-73.8117	4.449561E-007	0.0006467	8
	49	130	3.75601	212.6067	-769.7435	1	798.5654	-74.5596	5.450699E-007	0.0006737	8
	50	134	3.004808	243.4009	-930.2947	1	961.609	-75.33788	4.789806E-007	0.0006969	8
	51	137	2.372217	280.9484	-1141.951	1	1176.003	-76.17831	4.696332E-007	0.0007239	8
	52	142	1.878005	327.0126	-1402.703	1	1440.317	-76.87701	4.683387E-007	0.0006378	8
	53	146	1.512097	379.9232	-1698.6	1	1740.57	-77.39225	5.107564E-007	0.0007208	8
	54	152	1.201923	445.9028	-2093.892	1	2140.844	-77.97821	4.701632E-007	0.0006266	8
	55	158	0.956633	531.9171	-2575.324	1	2629.682	-78.33002	4.559174E-007	1.647618E-005	8
