EXPLAIN
TAG	EISPOT
TITLE	LABEL	Potentiostatic EIS	Test Identifier
DATE	LABEL	8/9/2020	Date
TIME	LABEL	18:28:09	Time
NOTES	NOTES	1	Notes...
	
PSTAT	PSTAT	REF3000-16137	Potentiostat
VDC	POTEN	0.00000E+000	T	DC Voltage (V)
FREQINIT	QUANT	3.00000E+005	Initial Freq. (Hz)
FREQFINAL	QUANT	1.00000E+000	Final Freq. (Hz)
PTSPERDEC	QUANT	1.00000E+001	Points/decade
VAC	QUANT	5.00000E+001	AC Voltage (mV rms)
AREA	QUANT	1.00000E+000	Sample Area (cm^2)
SPEED	SELECTOR	2	Optimize for:
ZGUESS	QUANT	1.00000E+003	Estimated Z (ohms)
EOC	QUANT	0	Open Circuit (V)
SEQUENCER	TOGGLE	TRUE	Run as Sequence
PSTATMODEL	IQUANT	5	Pstat Model
PSTATSECTION	LABEL	REF3000-16137	Pstat Section
PSTATSERIALNO	LABEL	16137	Pstat Serial Number
CTRLMODE	IQUANT	1	Control Mode
IESTAB	IQUANT	0	I/E Stability
CASPEED	IQUANT	1	Control Amp Speed
CONVENTION	IQUANT	1	Current Convention
ICHRANGE	IQUANT	2	Ich Range
ICHRANGEMODE	TOGGLE	F	Ich Auto Range
ICHOFFSETENABLE	TOGGLE	T	Ich Offset Enable
ICHOFFSET	QUANT	0	Ich Offset (V)
ICHFILTER	IQUANT	3	Ich Filter
VCHRANGE	IQUANT	2	Vch Range
VCHRANGEMODE	TOGGLE	F	Vch Auto Range
VCHOFFSETENABLE	TOGGLE	T	Vch Offset Enable
VCHOFFSET	QUANT	0	Vch Offset (V)
VCHFILTER	IQUANT	3	Vch Filter
ACHRANGE	IQUANT	2	Ach Range
ACHOFFSETENABLE	TOGGLE	F	Ach Offset Enable
ACHOFFSET	QUANT	0	Ach Offset (V)
ACHFILTER	IQUANT	3	Ach Filter
IERANGELOWERLIMIT	IQUANT	2	I/E Range Lower Limit
IERANGEMODE	TOGGLE	F	I/E AutoRange
IERANGE	IQUANT	11	I/E Range
POSFEEDENABLE	TOGGLE	F	Positive Feedback IR Comp
POSFEEDRESISTANCE	QUANT	0	Positive Feedback Resistance (ohm)
ACHSELECT	IQUANT	0	Ach Select
CABLEID	IQUANT	13	Cable ID
DCCALDATE	LABEL	7/31/2020	DC Calibration Date
ACCALDATE	LABEL	7/31/2020	AC Calibration Date
THERMOSELECT	IQUANT	1	Thermo Select
FRAMEWORKVERSION	QUANT	6.33	Framework Version
INSTRUMENTVERSION	LABEL	3.50	Instrument Version
COMPLIANCEVOLTAGE	IQUANT	0	Compliance Voltage
ZCURVE	TABLE
	Pt	Time	Freq	Zreal	Zimag	Zsig	Zmod	Zphz	Idc	Vdc	IERange
	#	s	Hz	ohm	ohm	V	ohm	°	A	V	#
	0	10	300046.9	190.0817	-6.54356	1	190.1943	-1.971628	1.488202E-005	-0.0020413	9
	1	13	238359.4	192.9641	-5.533579	1	193.0434	-1.642606	-6.077576E-006	-0.001623	9
	2	16	189328.1	196.3212	-4.890135	1	196.3821	-1.426877	-1.117615E-005	0.0014261	9
	3	19	150421.9	199.0185	-4.11164	1	199.061	-1.183539	-3.248678E-005	-0.0003703	9
	4	22	119484.4	201.2742	-3.52618	1	201.3051	-1.003678	5.077401E-005	-0.0001978	9
	5	24	94921.88	203.493	-2.724059	1	203.5112	-0.7669443	1.577622E-005	-9.591081E-007	9
	6	27	75421.88	205.896	-2.511384	1	205.9113	-0.6988216	-2.312046E-005	0.0005378	9
	7	29	59859.37	208.1868	-1.884062	1	208.1954	-0.5185046	2.409023E-005	-0.0002032	9
	8	32	47578.12	210.7201	-1.831489	1	210.7281	-0.4979779	-2.362605E-005	0.0007314	9
	9	34	37828.12	213.0509	-1.797359	1	213.0585	-0.4833522	-1.784933E-006	-0.0003643	9
	10	37	30046.88	215.4001	-1.583237	1	215.4059	-0.4211288	-7.813623E-006	0.0008973	9
	11	39	23859.38	217.8647	-1.48427	1	217.8698	-0.390339	2.397336E-005	-0.0002838	9
	12	42	18984.38	220.2719	-1.529866	1	220.2773	-0.3979329	-8.354243E-006	0.0009336	9
	13	44	15046.87	222.4131	-1.547314	1	222.4185	-0.3985967	2.629591E-005	-0.0004142	9
	14	46	11953.13	224.7981	-1.387201	1	224.8024	-0.3535607	-8.557507E-006	0.0009114	9
	15	50	9515.62	229.092	-1.621027	1	229.0977	-0.4054113	-8.450719E-006	0.0009229	9
	16	53	7546.875	231.6332	-1.496769	1	231.638	-0.370229	2.477252E-005	-0.0002551	9
	17	55	5928.309	234.2141	-2.425384	1	234.2267	-0.5933003	2.731669E-005	-0.0004848	9
	18	57	4733.456	236.6977	-2.326118	1	236.7091	-0.5630491	2.809568E-005	-0.0006493	9
	19	60	3796.875	240.8048	-3.261432	1	240.8269	-0.7759597	-2.617588E-005	0.0006642	10
	20	63	2987.132	244.3207	-3.549246	1	244.3464	-0.8322772	2.087463E-005	-7.617292E-005	9
	21	67	2390.625	247.9867	-4.529573	1	248.028	-1.046413	1.090536E-005	0.0002573	9
	22	70	1884.191	252.5276	-5.297421	1	252.5831	-1.201752	-2.165871E-005	0.000498	9
	23	73	1516.544	256.4024	-6.828104	1	256.4933	-1.52545	-1.876363E-005	0.0003434	9
	24	77	1193.986	260.7643	-8.653287	1	260.9078	-1.900624	2.450871E-005	-0.0002255	9
	25	80	946.5144	264.7253	-10.60725	1	264.9377	-2.294552	2.309758E-005	-0.0008395	9
	26	84	751.7689	268.075	-13.25426	1	268.4024	-2.830533	2.789635E-005	-0.0006428	9
	27	86	597.4265	272.1545	-16.33031	1	272.644	-3.433849	2.765256E-005	-0.0004854	9
	28	88	477.4305	274.887	-20.04628	1	275.617	-4.170941	1.173883E-006	8.791526E-005	9
	29	91	376.6741	278.4704	-24.92849	1	279.584	-5.115447	1.23058E-006	7.656129E-005	9
	30	93	298.2954	282.2179	-30.89997	1	283.9045	-6.248413	1.207153E-006	8.021577E-005	9
	31	95	237.7717	286.321	-38.08902	1	288.8433	-7.577517	1.253975E-006	7.61464E-005	9
	32	98	189.0121	290.714	-47.07842	1	294.5013	-9.19866	1.172061E-006	8.467316E-005	9
	33	100	150.2404	295.4321	-58.18343	1	301.1071	-11.14144	1.249025E-006	7.731657E-005	9
	34	103	119.1737	300.5889	-72.03539	1	309.0999	-13.47664	1.247114E-006	7.777854E-005	9
	35	105	95.0169	306.2759	-88.75886	1	318.8779	-16.1616	1.197987E-006	7.518654E-005	9
	36	107	75.60484	312.7583	-109.56	1	331.3928	-19.30548	1.246662E-006	7.509461E-005	9
	37	110	54.50582	321.9634	-147.9449	1	354.3277	-24.67917	1.088152E-006	7.879452E-005	9
	38	112	45.95588	327.8	-172.3354	1	370.3409	-27.7324	-5.367512E-008	0.0006616	8
	39	115	37.20238	336.7838	-209.1263	1	396.4305	-31.83826	1.896201E-008	0.0006603	8
	40	117	30.04808	347.4269	-254.2639	1	430.5295	-36.19848	-6.313095E-008	0.0006569	8
	41	120	23.91582	360.4575	-313.1117	1	477.4605	-40.97924	-4.180832E-008	0.0006542	8
	42	122	18.60119	377.0461	-393.5921	1	545.0491	-46.22998	8.566631E-008	0.0006475	8
	43	124	15.02404	394.9425	-477.8128	1	619.907	-50.42411	-7.286279E-008	0.0006515	8
	44	126	12.01923	417.1687	-585.027	1	718.5306	-54.50825	-4.063878E-008	0.0006753	8
	45	129	9.450605	446.7192	-727.1141	1	853.3774	-58.43456	3.60906E-008	0.0006535	8
	46	131	7.512019	481.8999	-895.2078	1	1016.673	-61.70594	-3.106128E-008	0.0006714	8
	47	134	5.978954	525.7236	-1099.184	1	1218.438	-64.4389	-5.471965E-008	0.0006522	8
	48	137	4.734848	582.8876	-1356.143	1	1476.104	-66.74135	-6.29202E-008	0.0006415	8
	49	140	3.75601	653.9805	-1669.565	1	1793.081	-68.60937	-2.344597E-008	0.0006829	8
	50	144	3.004808	740.2617	-2037.297	1	2167.618	-70.03115	-3.145795E-009	0.0006455	8
	51	147	2.372217	860.5247	-2513.194	1	2656.435	-71.09866	-4.194864E-008	0.0006058	8
	52	152	1.878005	1007.384	-3098.066	1	3257.735	-71.98726	5.02803E-009	0.0006499	8
	53	156	1.512097	1177.297	-3747.18	1	3927.771	-72.5582	-3.964534E-008	0.0007645	8
	54	162	1.201923	1423.244	-4602.078	1	4817.13	-72.81519	8.932092E-009	0.0006329	7
	55	168	0.956633	1719.654	-5613.554	1	5871.047	-72.9681	-4.593376E-008	-8.872541E-006	7
