EXPLAIN
TAG	EISPOT
TITLE	LABEL	Potentiostatic EIS	Test Identifier
DATE	LABEL	8/9/2020	Date
TIME	LABEL	17:43:11	Time
NOTES	NOTES	1	Notes...
	
PSTAT	PSTAT	REF3000-16137	Potentiostat
VDC	POTEN	0.00000E+000	T	DC Voltage (V)
FREQINIT	QUANT	3.00000E+005	Initial Freq. (Hz)
FREQFINAL	QUANT	1.00000E+000	Final Freq. (Hz)
PTSPERDEC	QUANT	1.00000E+001	Points/decade
VAC	QUANT	5.00000E+001	AC Voltage (mV rms)
AREA	QUANT	1.00000E+000	Sample Area (cm^2)
SPEED	SELECTOR	2	Optimize for:
ZGUESS	QUANT	1.00000E+003	Estimated Z (ohms)
EOC	QUANT	0	Open Circuit (V)
SEQUENCER	TOGGLE	TRUE	Run as Sequence
PSTATMODEL	IQUANT	5	Pstat Model
PSTATSECTION	LABEL	REF3000-16137	Pstat Section
PSTATSERIALNO	LABEL	16137	Pstat Serial Number
CTRLMODE	IQUANT	1	Control Mode
IESTAB	IQUANT	0	I/E Stability
CASPEED	IQUANT	1	Control Amp Speed
CONVENTION	IQUANT	1	Current Convention
ICHRANGE	IQUANT	2	Ich Range
ICHRANGEMODE	TOGGLE	F	Ich Auto Range
ICHOFFSETENABLE	TOGGLE	T	Ich Offset Enable
ICHOFFSET	QUANT	0	Ich Offset (V)
ICHFILTER	IQUANT	3	Ich Filter
VCHRANGE	IQUANT	2	Vch Range
VCHRANGEMODE	TOGGLE	F	Vch Auto Range
VCHOFFSETENABLE	TOGGLE	T	Vch Offset Enable
VCHOFFSET	QUANT	0	Vch Offset (V)
VCHFILTER	IQUANT	3	Vch Filter
ACHRANGE	IQUANT	2	Ach Range
ACHOFFSETENABLE	TOGGLE	F	Ach Offset Enable
ACHOFFSET	QUANT	0	Ach Offset (V)
ACHFILTER	IQUANT	3	Ach Filter
IERANGELOWERLIMIT	IQUANT	2	I/E Range Lower Limit
IERANGEMODE	TOGGLE	F	I/E AutoRange
IERANGE	IQUANT	11	I/E Range
POSFEEDENABLE	TOGGLE	F	Positive Feedback IR Comp
POSFEEDRESISTANCE	QUANT	0	Positive Feedback Resistance (ohm)
ACHSELECT	IQUANT	0	Ach Select
CABLEID	IQUANT	13	Cable ID
DCCALDATE	LABEL	7/31/2020	DC Calibration Date
ACCALDATE	LABEL	7/31/2020	AC Calibration Date
THERMOSELECT	IQUANT	1	Thermo Select
FRAMEWORKVERSION	QUANT	6.33	Framework Version
INSTRUMENTVERSION	LABEL	3.50	Instrument Version
COMPLIANCEVOLTAGE	IQUANT	0	Compliance Voltage
ZCURVE	TABLE
	Pt	Time	Freq	Zreal	Zimag	Zsig	Zmod	Zphz	Idc	Vdc	IERange
	#	s	Hz	ohm	ohm	V	ohm	°	A	V	#
	0	9	300046.9	2.320443	1.067984	1	2.554416	24.71425	-0.0001116	0.000762	12
	1	13	238359.4	2.260846	0.8535827	1	2.416615	20.68403	-0.000125	-0.0002804	12
	2	18	189328.1	2.216543	0.6693761	1	2.315411	16.80384	-0.0001083	-1.001342E-005	12
	3	21	150421.9	2.172527	0.6314316	1	2.262428	16.20618	-6.769331E-006	0.000327	11
	4	24	119484.4	2.163901	0.4831312	1	2.217179	12.58593	7.484935E-005	0.0003875	11
	5	26	94921.88	2.160374	0.3589127	1	2.189985	9.432652	-2.599157E-005	0.0005184	11
	6	29	75421.88	2.159432	0.2509443	1	2.173964	6.628524	-4.376342E-005	0.0005325	11
	7	31	59859.37	2.160147	0.1564879	1	2.165808	4.143449	-4.906789E-005	0.0005696	11
	8	34	47578.12	2.162429	0.0717469	1	2.163619	1.900312	2.527402E-005	0.0006532	11
	9	36	37828.12	2.16611	-0.0077095	1	2.166124	-0.2039218	1.861018E-005	0.0006753	11
	10	39	30046.88	2.170924	-0.0868287	1	2.17266	-2.290392	-2.207396E-005	0.000694	11
	11	42	23859.38	2.176813	-0.1692991	1	2.183386	-4.447161	-1.263743E-005	0.0007064	11
	12	44	18984.38	2.184014	-0.2580025	1	2.199201	-6.737254	-3.823715E-005	0.000681	11
	13	46	15046.87	2.193463	-0.3595631	1	2.222739	-9.309405	2.241405E-005	0.0007293	11
	14	48	11953.13	2.205765	-0.4767643	1	2.256702	-12.19655	-2.115256E-005	0.0007199	11
	15	51	9515.62	2.22056	-0.6140326	1	2.303893	-15.45727	-3.832304E-005	0.0006946	11
	16	53	7546.875	2.240043	-0.781433	1	2.372432	-19.23119	-4.461948E-005	0.0006757	11
	17	55	5928.309	2.266701	-0.99411	1	2.475114	-23.68087	3.155068E-006	0.0006997	11
	18	58	4733.456	2.297619	-1.236855	1	2.60938	-28.29448	7.638412E-007	0.0007046	11
	19	60	3796.875	2.33595	-1.526161	1	2.79031	-33.15805	-3.795258E-005	0.0006704	11
	20	62	2987.132	2.390146	-1.91247	1	3.061101	-38.66497	-3.647058E-005	0.0006924	11
	21	65	2390.625	2.45343	-2.354533	1	3.400462	-43.82163	2.527907E-005	0.0007324	11
	22	67	1884.191	2.54214	-2.932207	1	3.880762	-49.07564	1.213849E-006	0.0007	11
	23	69	1516.544	2.647147	-3.582921	1	4.45474	-53.54213	2.251606E-005	0.0006638	10
	24	71	1193.986	2.791854	-4.460316	1	5.262022	-57.95623	-1.367052E-005	0.0006885	10
	25	74	946.5144	2.978593	-5.506916	1	6.260842	-61.59183	1.484787E-005	0.0006534	10
	26	76	751.7689	3.205963	-6.79003	1	7.508842	-64.72531	-2.917086E-006	0.0006865	10
	27	79	597.4265	3.503296	-8.353302	1	9.058187	-67.24728	-2.46357E-005	0.0006901	10
	28	81	477.4305	3.883069	-10.21686	1	10.92988	-69.18996	-1.087743E-006	0.0006753	10
	29	83	376.6741	4.401949	-12.62517	1	13.37057	-70.77815	-8.794357E-007	0.0006758	10
	30	85	298.2954	5.070069	-15.52654	1	16.33337	-71.91596	-8.664298E-007	0.0006818	10
	31	88	237.7717	5.913845	-18.94826	1	19.84969	-72.6666	-1.618643E-006	0.0006887	10
	32	90	189.0121	7.01839	-23.13126	1	24.17257	-73.12138	-1.105769E-006	0.0006786	10
	33	93	150.2404	8.440176	-28.16899	1	29.40627	-73.32039	-1.680875E-006	0.0006786	10
	34	95	119.1737	10.26948	-34.26626	1	35.77204	-73.31671	-7.498711E-007	0.0006752	10
	35	97	95.0169	12.50752	-41.32537	1	43.17667	-73.16105	9.974525E-007	8.128585E-005	9
	36	100	75.60484	15.32574	-49.82533	1	52.12909	-72.90266	4.733194E-007	0.0001357	9
	37	102	54.50582	20.45744	-64.78623	1	67.93941	-72.47553	8.374888E-007	7.438056E-005	9
	38	105	45.95588	23.70073	-74.1566	1	77.85195	-72.27592	1.293254E-006	8.270441E-005	9
	39	107	37.20238	28.25555	-87.50072	1	91.94973	-72.10381	1.073604E-006	8.715377E-005	9
	40	110	30.04808	33.49714	-103.4255	1	108.7148	-72.05406	7.802377E-007	7.984226E-005	9
	41	112	23.91582	39.71436	-123.6415	1	129.8632	-72.19269	9.000847E-007	7.736857E-005	9
	42	114	18.60119	47.5154	-150.8994	1	158.2035	-72.52177	9.282044E-007	8.494658E-005	9
	43	117	15.02404	55.01067	-179.289	1	187.5386	-72.94258	1.22076E-006	9.018054E-005	9
	44	119	12.01923	64.04446	-215.5012	1	224.8165	-73.44866	1.2662E-006	8.235555E-005	9
	45	121	9.450605	75.72579	-263.8535	1	274.5051	-73.98655	1.227988E-006	8.49466E-005	9
	46	124	7.512019	89.54834	-321.1598	1	333.4104	-74.42004	1.289919E-006	0.0001004	9
	47	127	5.978954	107.3004	-391.1154	1	405.567	-74.65867	1.229245E-006	8.740469E-005	9
	48	130	4.734848	130.8375	-477.8135	1	495.4031	-74.68633	3.795024E-007	0.0006709	8
	49	133	3.75601	163.0651	-584.6288	1	606.944	-74.41511	2.212608E-007	0.0006563	8
	50	136	3.004808	205.8137	-709.0472	1	738.3138	-73.81367	3.990448E-007	0.0006323	8
	51	140	2.372217	268.5467	-868.1054	1	908.6937	-72.81065	2.798171E-007	0.0005961	8
	52	144	1.878005	356.5036	-1053.996	1	1112.655	-71.3124	3.395439E-007	0.0006705	8
	53	149	1.512097	468.2344	-1252.029	1	1336.72	-69.49519	3.32544E-007	0.0005783	8
	54	154	1.201923	627.3649	-1495.583	1	1621.837	-67.243	3.264021E-007	0.0006908	8
	55	161	0.956633	840.0142	-1758.755	1	1949.062	-64.46999	1.402572E-007	2.131276E-005	8
