EXPLAIN
TAG	EISPOT
TITLE	LABEL	Potentiostatic EIS	Test Identifier
DATE	LABEL	8/9/2020	Date
TIME	LABEL	18:38:42	Time
NOTES	NOTES	1	Notes...
	
PSTAT	PSTAT	REF3000-16137	Potentiostat
VDC	POTEN	0.00000E+000	T	DC Voltage (V)
FREQINIT	QUANT	3.00000E+005	Initial Freq. (Hz)
FREQFINAL	QUANT	1.00000E+000	Final Freq. (Hz)
PTSPERDEC	QUANT	1.00000E+001	Points/decade
VAC	QUANT	5.00000E+001	AC Voltage (mV rms)
AREA	QUANT	1.00000E+000	Sample Area (cm^2)
SPEED	SELECTOR	2	Optimize for:
ZGUESS	QUANT	1.00000E+003	Estimated Z (ohms)
EOC	QUANT	0	Open Circuit (V)
SEQUENCER	TOGGLE	TRUE	Run as Sequence
PSTATMODEL	IQUANT	5	Pstat Model
PSTATSECTION	LABEL	REF3000-16137	Pstat Section
PSTATSERIALNO	LABEL	16137	Pstat Serial Number
CTRLMODE	IQUANT	1	Control Mode
IESTAB	IQUANT	0	I/E Stability
CASPEED	IQUANT	1	Control Amp Speed
CONVENTION	IQUANT	1	Current Convention
ICHRANGE	IQUANT	2	Ich Range
ICHRANGEMODE	TOGGLE	F	Ich Auto Range
ICHOFFSETENABLE	TOGGLE	T	Ich Offset Enable
ICHOFFSET	QUANT	0	Ich Offset (V)
ICHFILTER	IQUANT	3	Ich Filter
VCHRANGE	IQUANT	2	Vch Range
VCHRANGEMODE	TOGGLE	F	Vch Auto Range
VCHOFFSETENABLE	TOGGLE	T	Vch Offset Enable
VCHOFFSET	QUANT	0	Vch Offset (V)
VCHFILTER	IQUANT	3	Vch Filter
ACHRANGE	IQUANT	2	Ach Range
ACHOFFSETENABLE	TOGGLE	F	Ach Offset Enable
ACHOFFSET	QUANT	0	Ach Offset (V)
ACHFILTER	IQUANT	3	Ach Filter
IERANGELOWERLIMIT	IQUANT	2	I/E Range Lower Limit
IERANGEMODE	TOGGLE	F	I/E AutoRange
IERANGE	IQUANT	11	I/E Range
POSFEEDENABLE	TOGGLE	F	Positive Feedback IR Comp
POSFEEDRESISTANCE	QUANT	0	Positive Feedback Resistance (ohm)
ACHSELECT	IQUANT	0	Ach Select
CABLEID	IQUANT	13	Cable ID
DCCALDATE	LABEL	7/31/2020	DC Calibration Date
ACCALDATE	LABEL	7/31/2020	AC Calibration Date
THERMOSELECT	IQUANT	1	Thermo Select
FRAMEWORKVERSION	QUANT	6.33	Framework Version
INSTRUMENTVERSION	LABEL	3.50	Instrument Version
COMPLIANCEVOLTAGE	IQUANT	0	Compliance Voltage
ZCURVE	TABLE
	Pt	Time	Freq	Zreal	Zimag	Zsig	Zmod	Zphz	Idc	Vdc	IERange
	#	s	Hz	ohm	ohm	V	ohm	°	A	V	#
	0	14	300046.9	1730.206	-3139.619	1	3584.804	-61.14137	-6.479087E-005	0.0005479	9
	1	28	238359.4	2187.689	-3782.673	1	4369.736	-59.95728	7.772519E-005	-0.0016648	9
	2	44	189328.1	2903.092	-4297.196	1	5185.926	-55.9579	7.965125E-005	-0.001599	9
	3	53	150421.9	3701.674	-4824.218	1	6080.746	-52.50059	2.068129E-005	-0.0009145	9
	4	60	119484.4	4860.779	-5193.213	1	7113.131	-46.89379	-1.703692E-005	0.0168604	8
	5	68	94921.88	6150.297	-5564.386	1	8293.886	-42.13673	-2.421721E-005	0.0055649	8
	6	75	75421.88	7398.313	-5926.32	1	9479.256	-38.69601	2.711778E-005	-0.0075385	8
	7	83	59859.37	8757.988	-6438.533	1	10870.01	-36.32188	3.074469E-005	-0.0006713	9
	8	91	47578.12	10373.88	-6572.159	1	12280.5	-32.35545	3.059365E-005	-0.0006717	9
	9	100	37828.12	13196.25	-5495.224	1	14294.71	-22.60797	-6.251267E-006	0.0247298	7
	10	108	30046.88	14451.91	-5339.765	1	15406.84	-20.27852	7.367277E-006	-0.023121	7
	11	113	23859.38	15710.32	-4832.337	1	16436.72	-17.09737	-2.917199E-006	-0.0058043	7
	12	118	18984.38	16830.23	-4550.089	1	17434.45	-15.12838	7.406736E-006	-0.0229392	7
	13	122	15046.87	17955.97	-4109.792	1	18420.3	-12.89189	-3.079592E-006	-0.0055763	7
	14	126	11953.13	19115.67	-3714.555	1	19473.24	-10.99666	-7.327774E-006	0.0188367	7
	15	130	9515.62	19972.91	-3316.996	1	20246.47	-9.429322	7.443678E-006	-0.0233898	7
	16	134	7546.875	20951.21	-2802.637	1	21137.83	-7.619209	6.288231E-006	-0.0094042	7
	17	139	5928.309	22071.8	-2558.854	1	22219.64	-6.612959	-7.022106E-006	0.0225779	7
	18	143	4733.456	22895.96	-2357.763	1	23017.03	-5.879438	-1.839332E-006	0.0215177	7
	19	147	3796.875	23963.38	-2053.074	1	24051.17	-4.896885	-5.057544E-006	0.003057	7
	20	151	2987.132	25194.77	-2042.29	1	25277.41	-4.634268	7.44453E-006	-0.0235014	7
	21	157	2390.625	25098.7	-2293.727	1	25203.29	-5.221658	2.758436E-005	-0.0076358	8
	22	163	1884.191	27961.76	-1112.659	1	27983.89	-2.27872	-1.605258E-006	-0.0050275	8
	23	170	1516.544	30190.51	-1496.366	1	30227.57	-2.837492	8.864644E-006	0.0040571	8
	24	176	1193.986	31915.97	-1650.584	1	31958.62	-2.960502	-9.833419E-007	-0.013178	7
	25	182	946.5144	34105.78	-1925.513	1	34160.09	-3.231322	-1.821004E-006	0.0216235	7
	26	185	751.7689	35001.61	-1730.101	1	35044.35	-2.829781	-1.543897E-006	-0.0050468	8
	27	190	597.4265	35311.84	-1695.78	1	35352.53	-2.749402	1.633665E-005	-0.009338	8
	28	195	477.4305	37580.73	-726.3231	1	37587.75	-1.107218	-9.643442E-008	0.0006669	7
	29	198	376.6741	38525.23	-171.9606	1	38525.62	-0.2557428	-1.390533E-008	0.0006742	6
	30	201	298.2954	39367.06	-188.6958	1	39367.51	-0.2746303	-1.431754E-008	0.0006442	6
	31	203	237.7717	40258.88	-182.3869	1	40259.29	-0.2595682	-1.51633E-008	0.0007106	6
	32	206	189.0121	41169.52	-189.3622	1	41169.96	-0.2635343	-1.623719E-008	0.0006706	6
	33	208	150.2404	42097.73	-207.5554	1	42098.24	-0.2824844	-1.538422E-008	0.0007107	6
	34	210	119.1737	43161.97	-218.7768	1	43162.52	-0.2904149	-1.459132E-008	0.0006498	6
	35	213	95.0169	44094.08	-238.1808	1	44094.73	-0.3094887	-1.227276E-008	0.0007124	6
	36	215	75.60484	45170.53	-277.6821	1	45171.38	-0.3522166	-1.665882E-008	0.0006631	6
	37	218	54.50582	46319.37	-312.9872	1	46320.43	-0.3871506	-1.677881E-008	0.0006495	6
	38	220	45.95588	47386.09	-372.483	1	47387.56	-0.4503698	-1.643408E-008	0.0007189	6
	39	223	37.20238	48449.33	-430.4551	1	48451.25	-0.5090392	-1.974044E-008	0.0006894	6
	40	225	30.04808	49602.27	-512.2341	1	49604.92	-0.5916625	-1.95992E-008	0.0006198	6
	41	227	23.91582	50756.77	-606.3314	1	50760.39	-0.6844127	-1.740392E-008	0.0006336	6
	42	230	18.60119	51918.14	-705.7495	1	51922.93	-0.7788025	-1.970481E-008	0.0006243	6
	43	232	15.02404	53100.23	-895.3623	1	53107.77	-0.966015	-2.376558E-008	0.000659	6
	44	234	12.01923	54352.97	-1091.907	1	54363.94	-1.15087	-1.073593E-008	0.000619	6
	45	237	9.450605	55693.57	-1347.633	1	55709.87	-1.386131	1.000113E-009	0.0006141	6
	46	239	7.512019	57171.72	-1664.902	1	57195.96	-1.668043	-4.559221E-009	0.0006759	6
	47	242	5.978954	58823.28	-2024.162	1	58858.1	-1.970822	-1.850089E-008	0.0007119	6
	48	245	4.734848	60759.82	-2527.445	1	60812.36	-2.381977	-7.844061E-009	0.0006842	6
	49	248	3.75601	62966.62	-3127.934	1	63044.27	-2.843891	-2.051358E-008	0.0006279	6
	50	252	3.004808	65290.58	-3889.609	1	65406.34	-3.409299	7.712949E-009	0.0005858	6
	51	255	2.372217	68059.79	-4617.278	1	68216.23	-3.881085	-1.564637E-008	0.000604	6
	52	259	1.878005	71271.62	-5872.138	1	71513.12	-4.710016	-1.572879E-009	0.0006762	6
	53	264	1.512097	75278.46	-7251.228	1	75626.89	-5.502064	5.665066E-009	0.0006168	6
	54	270	1.201923	79938.34	-8821.581	1	80423.62	-6.297385	-8.664984E-009	0.0006891	6
	55	276	0.956633	85872.05	-10978.1	1	86570.94	-7.285319	-2.692995E-008	2.903395E-005	6
