EXPLAIN
TAG	EISPOT
TITLE	LABEL	Potentiostatic EIS	Test Identifier
DATE	LABEL	8/9/2020	Date
TIME	LABEL	18:34:14	Time
NOTES	NOTES	1	Notes...
	
PSTAT	PSTAT	REF3000-16137	Potentiostat
VDC	POTEN	0.00000E+000	T	DC Voltage (V)
FREQINIT	QUANT	3.00000E+005	Initial Freq. (Hz)
FREQFINAL	QUANT	1.00000E+000	Final Freq. (Hz)
PTSPERDEC	QUANT	1.00000E+001	Points/decade
VAC	QUANT	5.00000E+001	AC Voltage (mV rms)
AREA	QUANT	1.00000E+000	Sample Area (cm^2)
SPEED	SELECTOR	2	Optimize for:
ZGUESS	QUANT	1.00000E+003	Estimated Z (ohms)
EOC	QUANT	0	Open Circuit (V)
SEQUENCER	TOGGLE	TRUE	Run as Sequence
PSTATMODEL	IQUANT	5	Pstat Model
PSTATSECTION	LABEL	REF3000-16137	Pstat Section
PSTATSERIALNO	LABEL	16137	Pstat Serial Number
CTRLMODE	IQUANT	1	Control Mode
IESTAB	IQUANT	0	I/E Stability
CASPEED	IQUANT	1	Control Amp Speed
CONVENTION	IQUANT	1	Current Convention
ICHRANGE	IQUANT	2	Ich Range
ICHRANGEMODE	TOGGLE	F	Ich Auto Range
ICHOFFSETENABLE	TOGGLE	T	Ich Offset Enable
ICHOFFSET	QUANT	0	Ich Offset (V)
ICHFILTER	IQUANT	3	Ich Filter
VCHRANGE	IQUANT	2	Vch Range
VCHRANGEMODE	TOGGLE	F	Vch Auto Range
VCHOFFSETENABLE	TOGGLE	T	Vch Offset Enable
VCHOFFSET	QUANT	0	Vch Offset (V)
VCHFILTER	IQUANT	3	Vch Filter
ACHRANGE	IQUANT	2	Ach Range
ACHOFFSETENABLE	TOGGLE	F	Ach Offset Enable
ACHOFFSET	QUANT	0	Ach Offset (V)
ACHFILTER	IQUANT	3	Ach Filter
IERANGELOWERLIMIT	IQUANT	2	I/E Range Lower Limit
IERANGEMODE	TOGGLE	F	I/E AutoRange
IERANGE	IQUANT	11	I/E Range
POSFEEDENABLE	TOGGLE	F	Positive Feedback IR Comp
POSFEEDRESISTANCE	QUANT	0	Positive Feedback Resistance (ohm)
ACHSELECT	IQUANT	0	Ach Select
CABLEID	IQUANT	13	Cable ID
DCCALDATE	LABEL	7/31/2020	DC Calibration Date
ACCALDATE	LABEL	7/31/2020	AC Calibration Date
THERMOSELECT	IQUANT	1	Thermo Select
FRAMEWORKVERSION	QUANT	6.33	Framework Version
INSTRUMENTVERSION	LABEL	3.50	Instrument Version
COMPLIANCEVOLTAGE	IQUANT	0	Compliance Voltage
ZCURVE	TABLE
	Pt	Time	Freq	Zreal	Zimag	Zsig	Zmod	Zphz	Idc	Vdc	IERange
	#	s	Hz	ohm	ohm	V	ohm	°	A	V	#
	0	14	300046.9	1165.096	-390.2449	1	1228.715	-18.51809	-3.203351E-005	-0.0011224	9
	1	31	238359.4	1284.582	-386.1352	1	1341.361	-16.73037	-1.951672E-005	0.0011022	9
	2	44	189328.1	1437.535	-383.7704	1	1487.88	-14.94733	-9.08169E-005	0.0022721	9
	3	55	150421.9	1564.58	-360.7843	1	1605.639	-12.98514	-1.25526E-005	0.0018698	9
	4	65	119484.4	1681.491	-269.8126	1	1703.001	-9.115988	-2.923878E-005	-0.0036662	8
	5	72	94921.88	1746.078	-233.2057	1	1761.583	-7.607387	2.074906E-005	-0.0028476	8
	6	76	75421.88	1811.179	-204.9984	1	1822.743	-6.457546	2.335654E-005	-0.0066476	8
	7	81	59859.37	1878.691	-170.8077	1	1886.44	-5.194963	-1.531317E-005	0.0013493	8
	8	84	47578.12	1941.893	-151.5378	1	1947.796	-4.462098	8.58078E-006	0.0031765	8
	9	90	37828.12	2010.256	-129.077	1	2014.396	-3.673875	-1.904143E-005	0.0031281	8
	10	94	30046.88	2067.192	-111.61	1	2070.202	-3.090463	-1.89379E-005	0.0031711	8
	11	98	23859.38	2121.012	-100.5709	1	2123.396	-2.714729	2.142146E-005	-0.0029973	8
	12	102	18984.38	2197.503	-85.57748	1	2199.169	-2.230146	1.907332E-005	-0.0084325	8
	13	107	15046.87	2260.311	-71.41452	1	2261.439	-1.809658	2.170778E-005	-0.0029677	8
	14	111	11953.13	2321.792	-61.77036	1	2322.613	-1.523973	-5.556042E-007	0.0066171	8
	15	115	9515.62	2391.403	-56.77859	1	2392.076	-1.360107	5.968534E-006	-0.0065035	8
	16	119	7546.875	2474.442	-48.19336	1	2474.912	-1.115777	-1.634541E-005	0.0100247	8
	17	124	5928.309	2574.042	-45.71478	1	2574.448	-1.017461	-9.234835E-006	-0.0001772	9
	18	130	4733.456	2662.373	-39.16953	1	2662.661	-0.8428896	-5.235325E-007	0.0066666	8
	19	135	3796.875	2754.688	-30.1933	1	2754.854	-0.6279765	2.503567E-005	-0.0069533	8
	20	140	2987.132	2880.639	-34.37811	1	2880.844	-0.6837466	3.106154E-008	-0.0005094	9
	21	145	2390.625	2963.979	-28.65491	1	2964.118	-0.5539021	8.946396E-006	0.0033745	8
	22	151	1884.191	3079.264	-27.15054	1	3079.384	-0.5051762	2.367824E-005	-0.0083211	8
	23	156	1516.544	3199.949	-8.822898	1	3199.961	-0.1579755	-1.977922E-005	0.0031717	8
	24	161	1193.986	3329.013	7.597198	1	3329.022	0.1307555	-1.203486E-005	0.0010579	9
	25	167	946.5144	3470.596	-29.14146	1	3470.718	-0.4810826	1.043964E-005	0.0004524	9
	26	171	751.7689	3528.447	-7.992002	1	3528.456	-0.1297759	-2.475337E-005	0.009276	8
	27	174	597.4265	3621.992	-74.54211	1	3622.759	-1.179005	2.233855E-005	-0.0029928	8
	28	178	477.4305	3702.285	-34.76744	1	3702.449	-0.5380376	-3.267039E-007	0.000664	8
	29	181	376.6741	3777.15	-35.52879	1	3777.317	-0.5389222	-8.124277E-008	0.0006682	7
	30	184	298.2954	3841.285	-43.24196	1	3841.529	-0.6449604	-6.944628E-008	0.0005958	7
	31	186	237.7717	3908.744	-52.93774	1	3909.102	-0.7759331	-7.361182E-008	0.0006702	7
	32	189	189.0121	3977.491	-64.69103	1	3978.017	-0.9317925	-6.312823E-008	0.0005844	7
	33	191	150.2404	4047.91	-79.51254	1	4048.691	-1.125308	-9.615454E-008	0.0006684	7
	34	193	119.1737	4121.039	-97.8393	1	4122.2	-1.360028	-5.728037E-008	0.000674	7
	35	196	95.0169	4195.636	-120.2857	1	4197.36	-1.642177	-1.024634E-007	0.000649	7
	36	198	75.60484	4275.329	-148.0715	1	4277.893	-1.983586	-6.013303E-008	0.0006614	7
	37	201	54.50582	4361.535	-200.0375	1	4366.12	-2.625974	-7.46717E-008	0.0005857	7
	38	203	45.95588	4442.329	-233.79	1	4448.476	-3.012572	-8.736851E-008	0.0006694	7
	39	206	37.20238	4523.808	-284.5319	1	4532.747	-3.598965	-1.169614E-007	0.0006708	7
	40	208	30.04808	4609.276	-343.974	1	4622.093	-4.267871	-1.077462E-007	0.0005879	7
	41	210	23.91582	4699.363	-428.5967	1	4718.868	-5.211138	-2.024111E-007	0.0006715	7
	42	213	18.60119	4796.677	-534.1298	1	4826.324	-6.353945	-5.141405E-008	0.0005816	7
	43	215	15.02404	4892.827	-642.1089	1	4934.78	-7.476471	-2.170401E-007	0.000606	7
	44	217	12.01923	5000.544	-785.5739	1	5061.874	-8.928063	-2.561223E-007	0.0005946	7
	45	220	9.450605	5119.113	-991.977	1	5214.34	-10.9668	-1.510761E-007	0.000654	7
	46	222	7.512019	5236.687	-1222.983	1	5377.599	-13.14533	-1.779528E-007	0.0005974	7
	47	225	5.978954	5388.508	-1523.608	1	5599.768	-15.78833	-1.457881E-007	0.0006444	7
	48	228	4.734848	5572.139	-1885.216	1	5882.412	-18.69217	-1.060294E-007	0.000661	7
	49	231	3.75601	5782.765	-2332.462	1	6235.443	-21.96655	-7.187256E-008	0.0006799	7
	50	235	3.004808	6016.434	-2866.424	1	6664.373	-25.47464	-5.303474E-008	0.0006078	7
	51	238	2.372217	6298.849	-3544.674	1	7227.739	-29.36861	-7.73306E-008	0.0005545	7
	52	242	1.878005	6640.322	-4405.522	1	7968.846	-33.56229	-5.933872E-008	0.0006252	7
	53	247	1.512097	7033.322	-5373.486	1	8851.1	-37.37997	-7.12243E-008	0.0006694	7
	54	253	1.201923	7539.673	-6640.026	1	10046.72	-41.36967	-6.652059E-008	0.0006321	7
	55	259	0.956633	8130.97	-8188.163	1	11539.44	-45.2008	-9.098955E-008	-1.43468E-005	7
