EXPLAIN
TAG	EISPOT
TITLE	LABEL	Potentiostatic EIS	Test Identifier
DATE	LABEL	8/9/2020	Date
TIME	LABEL	18:16:58	Time
NOTES	NOTES	1	Notes...
	
PSTAT	PSTAT	REF3000-16137	Potentiostat
VDC	POTEN	0.00000E+000	T	DC Voltage (V)
FREQINIT	QUANT	3.00000E+005	Initial Freq. (Hz)
FREQFINAL	QUANT	1.00000E+000	Final Freq. (Hz)
PTSPERDEC	QUANT	1.00000E+001	Points/decade
VAC	QUANT	5.00000E+001	AC Voltage (mV rms)
AREA	QUANT	1.00000E+000	Sample Area (cm^2)
SPEED	SELECTOR	2	Optimize for:
ZGUESS	QUANT	1.00000E+003	Estimated Z (ohms)
EOC	QUANT	0	Open Circuit (V)
SEQUENCER	TOGGLE	TRUE	Run as Sequence
PSTATMODEL	IQUANT	5	Pstat Model
PSTATSECTION	LABEL	REF3000-16137	Pstat Section
PSTATSERIALNO	LABEL	16137	Pstat Serial Number
CTRLMODE	IQUANT	1	Control Mode
IESTAB	IQUANT	0	I/E Stability
CASPEED	IQUANT	1	Control Amp Speed
CONVENTION	IQUANT	1	Current Convention
ICHRANGE	IQUANT	2	Ich Range
ICHRANGEMODE	TOGGLE	F	Ich Auto Range
ICHOFFSETENABLE	TOGGLE	T	Ich Offset Enable
ICHOFFSET	QUANT	0	Ich Offset (V)
ICHFILTER	IQUANT	3	Ich Filter
VCHRANGE	IQUANT	2	Vch Range
VCHRANGEMODE	TOGGLE	F	Vch Auto Range
VCHOFFSETENABLE	TOGGLE	T	Vch Offset Enable
VCHOFFSET	QUANT	0	Vch Offset (V)
VCHFILTER	IQUANT	3	Vch Filter
ACHRANGE	IQUANT	2	Ach Range
ACHOFFSETENABLE	TOGGLE	F	Ach Offset Enable
ACHOFFSET	QUANT	0	Ach Offset (V)
ACHFILTER	IQUANT	3	Ach Filter
IERANGELOWERLIMIT	IQUANT	2	I/E Range Lower Limit
IERANGEMODE	TOGGLE	F	I/E AutoRange
IERANGE	IQUANT	11	I/E Range
POSFEEDENABLE	TOGGLE	F	Positive Feedback IR Comp
POSFEEDRESISTANCE	QUANT	0	Positive Feedback Resistance (ohm)
ACHSELECT	IQUANT	0	Ach Select
CABLEID	IQUANT	13	Cable ID
DCCALDATE	LABEL	7/31/2020	DC Calibration Date
ACCALDATE	LABEL	7/31/2020	AC Calibration Date
THERMOSELECT	IQUANT	1	Thermo Select
FRAMEWORKVERSION	QUANT	6.33	Framework Version
INSTRUMENTVERSION	LABEL	3.50	Instrument Version
COMPLIANCEVOLTAGE	IQUANT	0	Compliance Voltage
ZCURVE	TABLE
	Pt	Time	Freq	Zreal	Zimag	Zsig	Zmod	Zphz	Idc	Vdc	IERange
	#	s	Hz	ohm	ohm	V	ohm	°	A	V	#
	0	8	300046.9	20.73345	1.080973	1	20.76161	2.984509	-2.00758E-005	0.0003745	10
	1	11	238359.4	20.92439	0.8401038	1	20.94125	2.299162	-5.529743E-005	0.0005121	10
	2	15	189328.1	21.06728	0.6501715	1	21.07731	1.767682	2.186708E-005	0.0004257	10
	3	17	150421.9	21.2211	0.4849547	1	21.22664	1.309123	-0.0000967	0.0006347	10
	4	20	119484.4	21.34933	0.3587392	1	21.35235	0.962667	2.204859E-005	0.0005881	10
	5	22	94921.88	21.48211	0.2592852	1	21.48367	0.6915162	-1.3671E-005	0.000719	10
	6	25	75421.88	21.62567	0.1513938	1	21.6262	0.4011014	1.923843E-005	0.0005869	10
	7	27	59859.37	21.77191	0.0546635	1	21.77198	0.1438542	-3.058799E-005	0.000666	10
	8	30	47578.12	21.91532	-0.0327641	1	21.91534	-0.0856589	2.387166E-005	0.0006907	10
	9	32	37828.12	22.06348	-0.1217405	1	22.06382	-0.3161398	2.415253E-005	0.0006242	10
	10	35	30046.88	22.21482	-0.2160873	1	22.21587	-0.5573081	-1.999663E-005	0.0006482	10
	11	37	23859.38	22.36102	-0.3148392	1	22.36324	-0.8066612	-2.624651E-005	0.0007545	10
	12	41	18984.38	22.61852	-0.4310084	1	22.62262	-1.091671	-1.028531E-005	0.0006488	10
	13	44	15046.87	22.76441	-0.5672075	1	22.77147	-1.42731	-1.823388E-005	0.0006802	10
	14	46	11953.13	22.91987	-0.7227384	1	22.93126	-1.806125	-1.385767E-005	0.0007458	10
	15	48	9515.62	23.07818	-0.9164196	1	23.09636	-2.273984	5.503258E-006	0.0006472	10
	16	51	7546.875	23.24602	-1.148555	1	23.27437	-2.828608	-2.180155E-005	0.000755	10
	17	53	5928.309	23.41613	-1.451248	1	23.46106	-3.546451	-2.228043E-005	0.000723	10
	18	55	4733.456	23.59258	-1.793376	1	23.66065	-4.346944	2.387754E-005	0.000668	10
	19	58	3796.875	23.78707	-2.215375	1	23.89001	-5.320814	-1.663757E-005	0.000675	10
	20	60	2987.132	24.00067	-2.772052	1	24.16023	-6.588409	-2.204519E-005	0.0007421	10
	21	62	2390.625	24.22165	-3.409752	1	24.46047	-8.01304	-2.390839E-005	0.0006896	10
	22	65	1884.191	24.47062	-4.257268	1	24.83819	-9.86923	2.165665E-005	0.0006801	10
	23	67	1516.544	24.7355	-5.200144	1	25.27621	-11.8724	1.406235E-005	0.0006161	10
	24	69	1193.986	25.05253	-6.493097	1	25.88029	-14.53016	6.686814E-006	0.000682	10
	25	72	946.5144	25.40821	-8.04691	1	26.65201	-17.57326	-2.697916E-005	0.0007217	10
	26	74	751.7689	25.80292	-9.96564	1	27.66052	-21.11764	-2.223497E-005	0.000718	10
	27	76	597.4265	26.26902	-12.3167	1	29.01315	-25.12038	-2.761567E-005	0.000721	10
	28	79	477.4305	26.81396	-15.14299	1	30.79446	-29.45527	-1.923373E-006	0.0006894	10
	29	81	376.6741	27.49133	-18.83553	1	33.32492	-34.41677	-2.003926E-006	0.0006767	10
	30	83	298.2954	28.3011	-23.33893	1	36.68321	-39.51122	-2.338792E-006	0.0006829	10
	31	85	237.7717	29.23622	-28.7002	1	40.96899	-44.46992	1.406291E-006	7.91041E-005	9
	32	88	189.0121	30.43639	-35.4124	1	46.69488	-49.32147	1.3769E-006	8.117717E-005	9
	33	90	150.2404	31.9182	-43.67619	1	54.09604	-53.84098	1.477184E-006	8.139191E-005	9
	34	93	119.1737	33.77755	-53.94604	1	63.64824	-57.94784	1.401019E-006	8.65288E-005	9
	35	95	95.0169	36.05571	-66.28726	1	75.45869	-61.45685	1.366675E-006	7.754729E-005	9
	36	98	75.60484	38.94798	-81.56538	1	90.38725	-64.47523	1.39356E-006	7.706384E-005	9
	37	100	54.50582	44.37489	-109.6113	1	118.253	-67.96	1.443304E-006	7.688034E-005	9
	38	103	45.95588	48.12939	-127.8603	1	136.6188	-69.37257	1.521284E-006	8.75871E-005	9
	39	105	37.20238	53.77994	-154.5511	1	163.6409	-70.81338	1.383443E-006	8.770087E-005	9
	40	107	30.04808	60.99708	-187.1045	1	196.7962	-71.94376	1.335009E-006	8.433464E-005	9
	41	110	23.91582	70.82083	-229.0954	1	239.7922	-72.82192	1.290989E-006	7.485299E-005	9
	42	112	18.60119	84.92219	-285.9546	1	298.2982	-73.45975	1.5994E-006	8.303261E-005	9
	43	114	15.02404	100.5094	-344.5155	1	358.8775	-73.73585	1.247279E-006	7.359267E-005	9
	44	117	12.01923	120.4281	-415.9265	1	433.0102	-73.85207	2.672526E-007	0.0006549	8
	45	119	9.450605	148.3864	-510.1954	1	531.3359	-73.78334	3.922332E-007	0.0006639	8
	46	122	7.512019	182.5033	-618.295	1	644.6675	-73.55488	2.896279E-007	0.0006519	8
	47	124	5.978954	223.8564	-746.7348	1	779.5669	-73.3123	4.054397E-007	0.0006612	8
	48	127	4.734848	275.6473	-902.7758	1	943.9203	-73.02084	3.676605E-007	0.000637	8
	49	131	3.75601	337.332	-1087.509	1	1138.626	-72.76675	5.033006E-007	0.0006782	8
	50	134	3.004808	406.9269	-1298.227	1	1360.508	-72.5965	3.753144E-007	0.000746	8
	51	138	2.372217	490.4422	-1563.258	1	1638.386	-72.58175	4.131903E-007	0.0006815	8
	52	142	1.878005	586.1659	-1884.446	1	1973.506	-72.72144	4.529912E-007	0.0006343	8
	53	147	1.512097	681.8795	-2244.376	1	2345.673	-73.10033	4.496604E-007	0.000756	8
	54	152	1.201923	793.6708	-2709.557	1	2823.404	-73.67388	4.555138E-007	0.0006382	8
	55	158	0.956633	914.5815	-3279.485	1	3404.626	-74.4173	4.231104E-007	1.999734E-005	8
