EXPLAIN
TAG	EISPOT
TITLE	LABEL	Potentiostatic EIS	Test Identifier
DATE	LABEL	8/9/2020	Date
TIME	LABEL	18:31:07	Time
NOTES	NOTES	1	Notes...
	
PSTAT	PSTAT	REF3000-16137	Potentiostat
VDC	POTEN	0.00000E+000	T	DC Voltage (V)
FREQINIT	QUANT	3.00000E+005	Initial Freq. (Hz)
FREQFINAL	QUANT	1.00000E+000	Final Freq. (Hz)
PTSPERDEC	QUANT	1.00000E+001	Points/decade
VAC	QUANT	5.00000E+001	AC Voltage (mV rms)
AREA	QUANT	1.00000E+000	Sample Area (cm^2)
SPEED	SELECTOR	2	Optimize for:
ZGUESS	QUANT	1.00000E+003	Estimated Z (ohms)
EOC	QUANT	0	Open Circuit (V)
SEQUENCER	TOGGLE	TRUE	Run as Sequence
PSTATMODEL	IQUANT	5	Pstat Model
PSTATSECTION	LABEL	REF3000-16137	Pstat Section
PSTATSERIALNO	LABEL	16137	Pstat Serial Number
CTRLMODE	IQUANT	1	Control Mode
IESTAB	IQUANT	0	I/E Stability
CASPEED	IQUANT	1	Control Amp Speed
CONVENTION	IQUANT	1	Current Convention
ICHRANGE	IQUANT	2	Ich Range
ICHRANGEMODE	TOGGLE	F	Ich Auto Range
ICHOFFSETENABLE	TOGGLE	T	Ich Offset Enable
ICHOFFSET	QUANT	0	Ich Offset (V)
ICHFILTER	IQUANT	3	Ich Filter
VCHRANGE	IQUANT	2	Vch Range
VCHRANGEMODE	TOGGLE	F	Vch Auto Range
VCHOFFSETENABLE	TOGGLE	T	Vch Offset Enable
VCHOFFSET	QUANT	0	Vch Offset (V)
VCHFILTER	IQUANT	3	Vch Filter
ACHRANGE	IQUANT	2	Ach Range
ACHOFFSETENABLE	TOGGLE	F	Ach Offset Enable
ACHOFFSET	QUANT	0	Ach Offset (V)
ACHFILTER	IQUANT	3	Ach Filter
IERANGELOWERLIMIT	IQUANT	2	I/E Range Lower Limit
IERANGEMODE	TOGGLE	F	I/E AutoRange
IERANGE	IQUANT	11	I/E Range
POSFEEDENABLE	TOGGLE	F	Positive Feedback IR Comp
POSFEEDRESISTANCE	QUANT	0	Positive Feedback Resistance (ohm)
ACHSELECT	IQUANT	0	Ach Select
CABLEID	IQUANT	13	Cable ID
DCCALDATE	LABEL	7/31/2020	DC Calibration Date
ACCALDATE	LABEL	7/31/2020	AC Calibration Date
THERMOSELECT	IQUANT	1	Thermo Select
FRAMEWORKVERSION	QUANT	6.33	Framework Version
INSTRUMENTVERSION	LABEL	3.50	Instrument Version
COMPLIANCEVOLTAGE	IQUANT	0	Compliance Voltage
ZCURVE	TABLE
	Pt	Time	Freq	Zreal	Zimag	Zsig	Zmod	Zphz	Idc	Vdc	IERange
	#	s	Hz	ohm	ohm	V	ohm	°	A	V	#
	0	9	300046.9	432.6624	-45.50225	1	435.0485	-6.003615	2.944182E-005	0.0006399	9
	1	15	238359.4	448.2534	-39.66807	1	450.0052	-5.0572	2.258765E-005	-0.001027	9
	2	21	189328.1	464.4655	-35.63851	1	465.8307	-4.387717	5.157998E-005	-0.0001421	9
	3	27	150421.9	480.9483	-30.51578	1	481.9155	-3.630504	-8.365254E-005	0.0038665	9
	4	34	119484.4	501.202	-27.50811	1	501.9563	-3.141486	-5.367365E-006	-0.0015433	9
	5	42	94921.88	513.569	-7.385012	1	513.6221	-0.8238442	1.517415E-005	-0.0053588	8
	6	44	75421.88	520.0271	-7.010024	1	520.0743	-0.7723068	1.285375E-005	-0.0056699	8
	7	47	59859.37	526.6259	-6.526917	1	526.6664	-0.7100783	1.223525E-005	-0.0004089	8
	8	49	47578.12	533.0526	-6.140783	1	533.088	-0.6600201	1.741976E-005	-0.0038054	8
	9	52	37828.12	540.8575	-5.014541	1	540.8807	-0.5312005	-1.228085E-005	0.0017026	8
	10	54	30046.88	547.7415	-4.365807	1	547.7589	-0.4566698	1.57328E-005	-0.0056219	8
	11	57	23859.38	556.0923	-4.348968	1	556.1093	-0.4480774	-8.829277E-006	-0.0002562	8
	12	59	18984.38	562.7998	-3.892192	1	562.8133	-0.3962379	-1.420183E-005	0.0071093	8
	13	62	15046.87	570.8405	-3.328547	1	570.8502	-0.3340855	1.346557E-005	-0.0059643	8
	14	64	11953.13	576.4185	-0.8909637	1	576.4191	-0.0885614	1.659118E-005	-0.0025424	8
	15	66	9515.62	584.7632	-3.702483	1	584.7749	-0.3627687	1.665743E-005	-0.005954	8
	16	69	7546.875	594.1337	-3.581002	1	594.1445	-0.3453327	3.729998E-006	-0.0043425	8
	17	71	5928.309	600.4605	-4.77221	1	600.4795	-0.4553534	1.6317E-005	-0.0057393	8
	18	73	4733.456	605.4285	-5.391336	1	605.4525	-0.510205	5.689319E-007	0.0046617	8
	19	76	3796.875	615.2057	-5.576667	1	615.231	-0.519356	2.862897E-006	-0.0040569	8
	20	78	2987.132	622.3418	-5.177917	1	622.3633	-0.4766929	7.441283E-006	0.002245	8
	21	80	2390.625	631.3561	-5.680597	1	631.3817	-0.5155022	1.818829E-005	-0.0051069	8
	22	83	1884.191	634.907	-5.607597	1	634.9318	-0.5060321	6.44957E-007	0.0047255	8
	23	85	1516.544	648.5093	-7.082287	1	648.548	-0.625695	1.35367E-005	-0.0004629	8
	24	88	1193.986	656.1719	-9.66548	1	656.243	-0.8439118	1.351791E-005	-0.0004284	8
	25	90	946.5144	666.6778	-11.90623	1	666.7841	-1.023139	-5.961701E-006	0.0065908	8
	26	93	751.7689	675.5632	-15.83805	1	675.7488	-1.343009	-1.520829E-005	0.0075851	8
	27	95	597.4265	686.3115	-19.41625	1	686.5861	-1.620507	1.409878E-005	-0.0063104	8
	28	98	477.4305	696.4449	-22.3948	1	696.8049	-1.841762	-1.774548E-007	0.0007116	8
	29	100	376.6741	706.0133	-27.74901	1	706.5584	-2.250784	-1.324757E-007	0.0006597	8
	30	103	298.2954	715.8777	-34.3387	1	716.7008	-2.746217	-1.228238E-007	0.0006416	8
	31	105	237.7717	726.4284	-42.25456	1	727.6563	-3.329004	-1.540635E-007	0.0006588	8
	32	107	189.0121	737.3751	-52.20353	1	739.2206	-4.049581	-1.414149E-007	0.0006437	8
	33	110	150.2404	748.8295	-64.45641	1	751.5985	-4.919678	-1.513586E-007	0.0006599	8
	34	112	119.1737	760.8196	-79.81767	1	764.9949	-5.988999	-1.263866E-007	0.0006406	8
	35	114	95.0169	773.4851	-98.3229	1	779.7093	-7.244402	-1.289203E-007	0.000654	8
	36	117	75.60484	787.4884	-121.3916	1	796.7897	-8.763186	-1.599231E-007	0.0006677	8
	37	119	54.50582	804.4351	-164.009	1	820.984	-11.52359	-1.382014E-007	0.0006495	8
	38	122	45.95588	819.1228	-192.0058	1	841.3254	-13.1922	-1.502831E-007	0.0006543	8
	39	124	37.20238	835.3668	-233.2892	1	867.3301	-15.60322	-9.024676E-008	0.000665	8
	40	127	30.04808	853.6563	-283.7903	1	899.5922	-18.38892	-1.204231E-007	0.0006579	8
	41	129	23.91582	874.5392	-350.1833	1	942.0441	-21.82217	-1.185507E-007	0.0006577	8
	42	131	18.60119	899.2382	-440.7933	1	1001.463	-26.11341	-2.191518E-007	0.0006482	8
	43	134	15.02404	924.968	-535.9675	1	1069.031	-30.0899	-2.564661E-007	0.0006629	8
	44	136	12.01923	955.447	-656.7307	1	1159.385	-34.50286	-1.50732E-007	0.0006501	8
	45	138	9.450605	993.822	-817.2477	1	1286.692	-39.43141	-9.030403E-008	0.000662	8
	46	141	7.512019	1039.117	-1007.609	1	1447.426	-44.11805	-1.651255E-007	0.0006701	8
	47	144	5.978954	1093.048	-1239.318	1	1652.472	-48.58851	-2.153932E-007	0.0006684	8
	48	147	4.734848	1161.644	-1531.47	1	1922.191	-52.81913	-2.052268E-007	0.0006444	8
	49	150	3.75601	1244.663	-1889.374	1	2262.503	-56.62432	-1.547708E-007	0.0006681	8
	50	153	3.004808	1343.613	-2311.424	1	2673.57	-59.83091	-1.608584E-007	0.0006309	8
	51	157	2.372217	1476.346	-2861.652	1	3220.039	-62.71048	-1.85632E-007	0.0005834	8
	52	161	1.878005	1634.026	-3539.804	1	3898.75	-65.22126	-1.570565E-007	0.0006586	8
	53	166	1.512097	1820.733	-4307.491	1	4676.488	-67.08672	-4.223736E-008	0.0006651	7
	54	171	1.201923	2078.313	-5313.493	1	5705.488	-68.6376	-2.517899E-008	0.0006386	7
	55	178	0.956633	2391.948	-6525.5	1	6950.076	-69.86939	-6.587265E-008	-8.803103E-006	7
