EXPLAIN
TAG	EISPOT
TITLE	LABEL	Potentiostatic EIS	Test Identifier
DATE	LABEL	8/9/2020	Date
TIME	LABEL	17:48:51	Time
NOTES	NOTES	1	Notes...
	
PSTAT	PSTAT	REF3000-16137	Potentiostat
VDC	POTEN	0.00000E+000	T	DC Voltage (V)
FREQINIT	QUANT	3.00000E+005	Initial Freq. (Hz)
FREQFINAL	QUANT	1.00000E+000	Final Freq. (Hz)
PTSPERDEC	QUANT	1.00000E+001	Points/decade
VAC	QUANT	5.00000E+001	AC Voltage (mV rms)
AREA	QUANT	1.00000E+000	Sample Area (cm^2)
SPEED	SELECTOR	2	Optimize for:
ZGUESS	QUANT	1.00000E+003	Estimated Z (ohms)
EOC	QUANT	0	Open Circuit (V)
SEQUENCER	TOGGLE	TRUE	Run as Sequence
PSTATMODEL	IQUANT	5	Pstat Model
PSTATSECTION	LABEL	REF3000-16137	Pstat Section
PSTATSERIALNO	LABEL	16137	Pstat Serial Number
CTRLMODE	IQUANT	1	Control Mode
IESTAB	IQUANT	0	I/E Stability
CASPEED	IQUANT	1	Control Amp Speed
CONVENTION	IQUANT	1	Current Convention
ICHRANGE	IQUANT	2	Ich Range
ICHRANGEMODE	TOGGLE	F	Ich Auto Range
ICHOFFSETENABLE	TOGGLE	T	Ich Offset Enable
ICHOFFSET	QUANT	0	Ich Offset (V)
ICHFILTER	IQUANT	3	Ich Filter
VCHRANGE	IQUANT	2	Vch Range
VCHRANGEMODE	TOGGLE	F	Vch Auto Range
VCHOFFSETENABLE	TOGGLE	T	Vch Offset Enable
VCHOFFSET	QUANT	0	Vch Offset (V)
VCHFILTER	IQUANT	3	Vch Filter
ACHRANGE	IQUANT	2	Ach Range
ACHOFFSETENABLE	TOGGLE	F	Ach Offset Enable
ACHOFFSET	QUANT	0	Ach Offset (V)
ACHFILTER	IQUANT	3	Ach Filter
IERANGELOWERLIMIT	IQUANT	2	I/E Range Lower Limit
IERANGEMODE	TOGGLE	F	I/E AutoRange
IERANGE	IQUANT	11	I/E Range
POSFEEDENABLE	TOGGLE	F	Positive Feedback IR Comp
POSFEEDRESISTANCE	QUANT	0	Positive Feedback Resistance (ohm)
ACHSELECT	IQUANT	0	Ach Select
CABLEID	IQUANT	13	Cable ID
DCCALDATE	LABEL	7/31/2020	DC Calibration Date
ACCALDATE	LABEL	7/31/2020	AC Calibration Date
THERMOSELECT	IQUANT	1	Thermo Select
FRAMEWORKVERSION	QUANT	6.33	Framework Version
INSTRUMENTVERSION	LABEL	3.50	Instrument Version
COMPLIANCEVOLTAGE	IQUANT	0	Compliance Voltage
ZCURVE	TABLE
	Pt	Time	Freq	Zreal	Zimag	Zsig	Zmod	Zphz	Idc	Vdc	IERange
	#	s	Hz	ohm	ohm	V	ohm	°	A	V	#
	0	9	300046.9	2.460767	1.049279	1	2.675138	23.09357	-4.666812E-005	0.0009043	12
	1	13	238359.4	2.402356	0.8388556	1	2.544601	19.2482	-0.0001595	-0.0002918	12
	2	17	189328.1	2.36653	0.6564322	1	2.455884	15.50304	-6.34489E-005	-7.283229E-005	12
	3	21	150421.9	2.341119	0.5084732	1	2.395701	12.25389	3.97846E-005	0.0002586	12
	4	24	119484.4	2.33047	0.3815936	1	2.361505	9.299151	-0.0001813	0.0002335	12
	5	28	94921.88	2.324118	0.2760228	1	2.340451	6.772982	-0.0001275	0.0005097	12
	6	32	75421.88	2.317103	0.2478422	1	2.330321	6.105264	-3.180257E-007	0.0005632	11
	7	34	59859.37	2.320501	0.1534564	1	2.325569	3.783502	7.915638E-006	0.0006133	11
	8	37	47578.12	2.324221	0.0686383	1	2.325234	1.691553	2.074643E-005	0.000654	11
	9	39	37828.12	2.329524	-0.011389	1	2.329552	-0.2801148	-8.948697E-005	0.0006895	11
	10	42	30046.88	2.336117	-0.0912043	1	2.337897	-2.235748	-9.716062E-006	0.0006623	11
	11	44	23859.38	2.344021	-0.1746093	1	2.350515	-4.260173	9.594909E-006	0.0006892	11
	12	46	18984.38	2.353011	-0.2642528	1	2.367803	-6.407701	2.867933E-005	0.000708	11
	13	49	15046.87	2.365342	-0.3676299	1	2.393741	-8.834429	-2.524264E-005	0.0006991	11
	14	51	11953.13	2.378776	-0.4863744	1	2.427989	-11.55566	-4.811967E-005	0.0006643	11
	15	53	9515.62	2.395781	-0.6260836	1	2.476236	-14.64544	-1.921347E-005	0.0006774	11
	16	56	7546.875	2.417048	-0.7967329	1	2.544976	-18.2438	-3.093124E-005	0.0006719	11
	17	58	5928.309	2.445143	-1.013247	1	2.646771	-22.50872	-3.903214E-005	0.0006818	11
	18	60	4733.456	2.478263	-1.260475	1	2.780393	-26.95844	-2.270925E-005	0.0006924	11
	19	63	3796.875	2.518257	-1.556161	1	2.960279	-31.71406	-6.81368E-006	0.0006864	11
	20	65	2987.132	2.57414	-1.950033	1	3.229369	-37.14566	-2.945481E-005	0.0006841	11
	21	67	2390.625	2.639418	-2.400098	1	3.567492	-42.28113	-2.646208E-005	0.0006678	11
	22	70	1884.191	2.732286	-2.995189	1	4.054201	-47.62816	-4.712965E-006	0.0006746	10
	23	72	1516.544	2.836654	-3.658992	1	4.629776	-52.21516	-6.133976E-006	0.0006807	10
	24	74	1193.986	2.983834	-4.554824	1	5.445152	-56.77147	2.107098E-005	0.0006613	10
	25	77	946.5144	3.165946	-5.632767	1	6.461523	-60.66146	-3.121636E-005	0.0006791	10
	26	79	751.7689	3.403258	-6.94433	1	7.733426	-63.89157	2.281259E-005	0.0006605	10
	27	81	597.4265	3.701656	-8.548011	1	9.315082	-66.58532	-2.331313E-005	0.0007357	10
	28	84	477.4305	4.081532	-10.4638	1	11.23166	-68.69113	-1.105983E-006	0.0006791	10
	29	86	376.6741	4.60069	-12.94173	1	13.73517	-70.43008	-1.35597E-006	0.000678	10
	30	88	298.2954	5.26873	-15.93132	1	16.77995	-71.70016	-1.474912E-006	0.0006778	10
	31	90	237.7717	6.113838	-19.46556	1	20.40311	-72.56328	-1.46464E-006	0.0006795	10
	32	93	189.0121	7.221196	-23.7942	1	24.86583	-73.11771	-1.820545E-006	0.0006779	10
	33	95	150.2404	8.651578	-29.01964	1	30.28183	-73.39919	-1.287225E-006	0.0006794	10
	34	98	119.1737	10.50166	-35.3597	1	36.88622	-73.45883	-1.540041E-006	0.0006713	10
	35	100	95.0169	12.77622	-42.71661	1	44.58632	-73.34846	1.22595E-006	8.070014E-005	9
	36	103	75.60484	15.65951	-51.59547	1	53.91951	-73.11667	1.046397E-006	7.884504E-005	9
	37	105	54.50582	20.97696	-67.23731	1	70.43358	-72.67291	9.316219E-007	7.785678E-005	9
	38	108	45.95588	24.3599	-77.0304	1	80.79039	-72.4511	1.306768E-006	8.595456E-005	9
	39	110	37.20238	29.14639	-90.96452	1	95.5199	-72.23376	1.172423E-006	8.678247E-005	9
	40	112	30.04808	34.71395	-107.5378	1	113.0019	-72.10955	1.000202E-006	7.844944E-005	9
	41	115	23.91582	41.31514	-128.4721	1	134.952	-72.17281	1.07335E-006	7.638436E-005	9
	42	117	18.60119	49.60485	-156.7384	1	164.4006	-72.43837	1.062569E-006	8.607945E-005	9
	43	119	15.02404	57.52827	-185.98	1	194.6742	-72.81185	1.404471E-006	8.981627E-005	9
	44	122	12.01923	66.83367	-223.205	1	232.9961	-73.33086	1.32583E-006	8.59494E-005	9
	45	124	9.450605	78.49943	-272.7876	1	283.8578	-73.9459	1.311183E-006	7.270047E-005	9
	46	127	7.512019	92.26513	-331.7919	1	344.3816	-74.45974	1.521301E-006	0.0000966	9
	47	129	5.978954	109.0491	-403.9953	1	418.4542	-74.89435	1.490543E-006	8.012797E-005	9
	48	132	4.734848	130.7134	-493.4388	1	510.4585	-75.16297	5.605514E-007	0.0006836	8
	49	136	3.75601	160.3508	-604.8817	1	625.7749	-75.15272	3.633312E-007	0.000647	8
	50	139	3.004808	198.5909	-735.9219	1	762.2463	-74.89826	4.948616E-007	0.0006341	8
	51	143	2.372217	254.4547	-904.4529	1	939.5649	-74.28683	4.333048E-007	0.0006183	8
	52	147	1.878005	333.544	-1106.674	1	1155.845	-73.22755	4.143108E-007	0.0006647	8
	53	152	1.512097	433.4469	-1328.14	1	1397.08	-71.92558	4.392329E-007	0.0005489	8
	54	157	1.201923	576.3937	-1605.187	1	1705.537	-70.2477	4.313678E-007	0.0006846	8
	55	163	0.956633	770.4874	-1920.287	1	2069.094	-68.13759	3.259745E-007	1.542053E-005	8
