EXPLAIN
TAG	EISPOT
TITLE	LABEL	Potentiostatic EIS	Test Identifier
DATE	LABEL	8/9/2020	Date
TIME	LABEL	17:46:01	Time
NOTES	NOTES	1	Notes...
	
PSTAT	PSTAT	REF3000-16137	Potentiostat
VDC	POTEN	0.00000E+000	T	DC Voltage (V)
FREQINIT	QUANT	3.00000E+005	Initial Freq. (Hz)
FREQFINAL	QUANT	1.00000E+000	Final Freq. (Hz)
PTSPERDEC	QUANT	1.00000E+001	Points/decade
VAC	QUANT	5.00000E+001	AC Voltage (mV rms)
AREA	QUANT	1.00000E+000	Sample Area (cm^2)
SPEED	SELECTOR	2	Optimize for:
ZGUESS	QUANT	1.00000E+003	Estimated Z (ohms)
EOC	QUANT	0	Open Circuit (V)
SEQUENCER	TOGGLE	TRUE	Run as Sequence
PSTATMODEL	IQUANT	5	Pstat Model
PSTATSECTION	LABEL	REF3000-16137	Pstat Section
PSTATSERIALNO	LABEL	16137	Pstat Serial Number
CTRLMODE	IQUANT	1	Control Mode
IESTAB	IQUANT	0	I/E Stability
CASPEED	IQUANT	1	Control Amp Speed
CONVENTION	IQUANT	1	Current Convention
ICHRANGE	IQUANT	2	Ich Range
ICHRANGEMODE	TOGGLE	F	Ich Auto Range
ICHOFFSETENABLE	TOGGLE	T	Ich Offset Enable
ICHOFFSET	QUANT	0	Ich Offset (V)
ICHFILTER	IQUANT	3	Ich Filter
VCHRANGE	IQUANT	2	Vch Range
VCHRANGEMODE	TOGGLE	F	Vch Auto Range
VCHOFFSETENABLE	TOGGLE	T	Vch Offset Enable
VCHOFFSET	QUANT	0	Vch Offset (V)
VCHFILTER	IQUANT	3	Vch Filter
ACHRANGE	IQUANT	2	Ach Range
ACHOFFSETENABLE	TOGGLE	F	Ach Offset Enable
ACHOFFSET	QUANT	0	Ach Offset (V)
ACHFILTER	IQUANT	3	Ach Filter
IERANGELOWERLIMIT	IQUANT	2	I/E Range Lower Limit
IERANGEMODE	TOGGLE	F	I/E AutoRange
IERANGE	IQUANT	11	I/E Range
POSFEEDENABLE	TOGGLE	F	Positive Feedback IR Comp
POSFEEDRESISTANCE	QUANT	0	Positive Feedback Resistance (ohm)
ACHSELECT	IQUANT	0	Ach Select
CABLEID	IQUANT	13	Cable ID
DCCALDATE	LABEL	7/31/2020	DC Calibration Date
ACCALDATE	LABEL	7/31/2020	AC Calibration Date
THERMOSELECT	IQUANT	1	Thermo Select
FRAMEWORKVERSION	QUANT	6.33	Framework Version
INSTRUMENTVERSION	LABEL	3.50	Instrument Version
COMPLIANCEVOLTAGE	IQUANT	0	Compliance Voltage
ZCURVE	TABLE
	Pt	Time	Freq	Zreal	Zimag	Zsig	Zmod	Zphz	Idc	Vdc	IERange
	#	s	Hz	ohm	ohm	V	ohm	°	A	V	#
	0	9	300046.9	2.36003	1.06292	1	2.588347	24.24604	-0.0001372	0.000952	12
	1	13	238359.4	2.302274	0.8484784	1	2.453646	20.23083	-0.0001583	-0.0003058	12
	2	17	189328.1	2.258219	0.6657908	1	2.354322	16.4271	-0.0000981	9.594563E-006	12
	3	21	150421.9	2.209081	0.6349841	1	2.298531	16.03691	9.726264E-006	0.0003422	11
	4	24	119484.4	2.206944	0.4816042	1	2.258881	12.31023	7.549319E-005	0.0003555	11
	5	26	94921.88	2.204849	0.3581907	1	2.233754	9.227427	-2.667496E-005	0.0004942	11
	6	29	75421.88	2.204958	0.2502826	1	2.219117	6.475871	-8.580287E-005	0.0005776	11
	7	31	59859.37	2.206657	0.155239	1	2.212111	4.024145	2.740248E-005	0.0006226	11
	8	34	47578.12	2.209542	0.0709561	1	2.210681	1.839335	-1.581293E-005	0.0006248	11
	9	36	37828.12	2.214219	-0.008841	1	2.214237	-0.2287713	2.74688E-005	0.0006816	11
	10	39	30046.88	2.219296	-0.0883707	1	2.221054	-2.280271	2.160586E-005	0.0006889	11
	11	41	23859.38	2.226691	-0.1708045	1	2.233232	-4.386444	-3.589356E-005	0.0006817	11
	12	43	18984.38	2.234266	-0.2599062	1	2.249332	-6.635243	1.688331E-005	0.0007015	11
	13	46	15046.87	2.245354	-0.3619504	1	2.27434	-9.157288	-2.69803E-005	0.0007102	11
	14	48	11953.13	2.257982	-0.4798707	1	2.30841	-11.9981	2.001595E-005	0.0007257	11
	15	50	9515.62	2.273585	-0.6172931	1	2.355895	-15.18999	1.729737E-005	0.0007112	11
	16	53	7546.875	2.294107	-0.7864734	1	2.425174	-18.92291	-1.302035E-005	0.0006793	11
	17	55	5928.309	2.3213	-1.000399	1	2.527693	-23.31435	-2.376631E-005	0.0006839	11
	18	57	4733.456	2.353277	-1.244634	1	2.662147	-27.87409	-2.136875E-005	0.0006901	11
	19	60	3796.875	2.392652	-1.536301	1	2.843414	-32.70416	-3.199164E-006	0.0006857	11
	20	62	2987.132	2.447311	-1.92471	1	3.113493	-38.18361	-1.108523E-005	0.0006978	11
	21	64	2390.625	2.512544	-2.367696	1	3.45237	-43.29994	1.87366E-005	0.0006943	11
	22	67	1884.191	2.601326	-2.952206	1	3.93477	-48.61523	2.296832E-005	0.0007118	11
	23	69	1516.544	2.707106	-3.608458	1	4.51103	-53.12235	-9.543057E-006	0.0006659	10
	24	71	1193.986	2.853578	-4.491418	1	5.321254	-57.57057	-9.189532E-006	0.0006717	10
	25	74	946.5144	3.033762	-5.553996	1	6.328553	-61.35528	-2.227799E-005	0.0006713	10
	26	76	751.7689	3.269369	-6.841925	1	7.582922	-64.4595	-1.56357E-005	0.0006828	10
	27	78	597.4265	3.570985	-8.4214	1	9.147235	-67.02126	2.020048E-005	0.0006516	10
	28	81	477.4305	3.946331	-10.30313	1	11.03305	-69.04205	-1.82293E-006	0.0006804	10
	29	83	376.6741	4.464776	-12.73667	1	13.49656	-70.68214	-1.237062E-006	0.0006796	10
	30	85	298.2954	5.132703	-15.67076	1	16.48992	-71.86463	-2.100719E-006	0.0006852	10
	31	88	237.7717	5.976932	-19.13351	1	20.04533	-72.65223	-1.403268E-006	0.0006771	10
	32	90	189.0121	7.082773	-23.37134	1	24.421	-73.14037	-1.419215E-006	0.0006776	10
	33	92	150.2404	8.507731	-28.47824	1	29.7219	-73.36674	-1.32042E-006	0.0006782	10
	34	95	119.1737	10.34652	-34.66589	1	36.17698	-73.38153	-1.504693E-006	0.00068	10
	35	97	95.0169	12.60151	-41.83563	1	43.69231	-73.23692	6.714712E-007	0.0001311	9
	36	100	75.60484	15.44878	-50.48322	1	52.79412	-72.98494	1.044837E-006	7.367333E-005	9
	37	102	54.50582	20.65505	-65.69655	1	68.86703	-72.54681	8.860244E-007	7.511267E-005	9
	38	105	45.95588	23.96293	-75.22799	1	78.95234	-72.33138	1.360593E-006	7.75873E-005	9
	39	107	37.20238	28.62586	-88.80007	1	93.30001	-72.1326	1.11354E-006	9.043451E-005	9
	40	109	30.04808	33.9354	-104.8725	1	110.2264	-72.06908	9.551584E-007	8.398997E-005	9
	41	112	23.91582	40.34075	-125.346	1	131.6776	-72.16	9.144575E-007	8.327454E-005	9
	42	114	18.60119	48.39207	-153.0346	1	160.5035	-72.45219	1.178578E-006	8.369661E-005	9
	43	116	15.02404	56.05521	-181.7502	1	190.1982	-72.85925	1.181701E-006	7.320182E-005	9
	44	119	12.01923	65.14893	-218.275	1	227.7902	-73.38112	1.055539E-006	7.652217E-005	9
	45	121	9.450605	76.91579	-267.0081	1	277.8658	-73.93014	1.272906E-006	7.806182E-005	9
	46	124	7.512019	90.62526	-325.0174	1	337.4156	-74.41983	1.478862E-006	0.0001013	9
	47	126	5.978954	108.0024	-395.8461	1	410.3153	-74.73891	1.333319E-006	8.004411E-005	9
	48	129	4.734848	131.1169	-483.5439	1	501.0053	-74.82858	4.63858E-007	0.000667	8
	49	133	3.75601	162.4722	-592.0939	1	613.9808	-74.65557	3.337744E-007	0.0006545	8
	50	136	3.004808	203.9184	-718.7706	1	747.1371	-74.16113	4.894025E-007	0.0006275	8
	51	140	2.372217	264.6219	-881.6782	1	920.5331	-73.2937	3.741341E-007	0.00058	8
	52	144	1.878005	348.726	-1073.397	1	1128.624	-72.00203	4.452489E-007	0.0006616	8
	53	149	1.512097	455.765	-1279.475	1	1358.226	-70.39346	4.096678E-007	0.0005903	8
	54	154	1.201923	609.5981	-1536.951	1	1653.43	-68.36533	4.246274E-007	0.0006831	8
	55	160	0.956633	816.4996	-1820.046	1	1994.803	-65.83829	2.35379E-007	1.977219E-005	8
