EXPLAIN
TAG	EISPOT
TITLE	LABEL	Potentiostatic EIS	Test Identifier
DATE	LABEL	8/9/2020	Date
TIME	LABEL	17:54:35	Time
NOTES	NOTES	1	Notes...
	
PSTAT	PSTAT	REF3000-16137	Potentiostat
VDC	POTEN	0.00000E+000	T	DC Voltage (V)
FREQINIT	QUANT	3.00000E+005	Initial Freq. (Hz)
FREQFINAL	QUANT	1.00000E+000	Final Freq. (Hz)
PTSPERDEC	QUANT	1.00000E+001	Points/decade
VAC	QUANT	5.00000E+001	AC Voltage (mV rms)
AREA	QUANT	1.00000E+000	Sample Area (cm^2)
SPEED	SELECTOR	2	Optimize for:
ZGUESS	QUANT	1.00000E+003	Estimated Z (ohms)
EOC	QUANT	0	Open Circuit (V)
SEQUENCER	TOGGLE	TRUE	Run as Sequence
PSTATMODEL	IQUANT	5	Pstat Model
PSTATSECTION	LABEL	REF3000-16137	Pstat Section
PSTATSERIALNO	LABEL	16137	Pstat Serial Number
CTRLMODE	IQUANT	1	Control Mode
IESTAB	IQUANT	0	I/E Stability
CASPEED	IQUANT	1	Control Amp Speed
CONVENTION	IQUANT	1	Current Convention
ICHRANGE	IQUANT	2	Ich Range
ICHRANGEMODE	TOGGLE	F	Ich Auto Range
ICHOFFSETENABLE	TOGGLE	T	Ich Offset Enable
ICHOFFSET	QUANT	0	Ich Offset (V)
ICHFILTER	IQUANT	3	Ich Filter
VCHRANGE	IQUANT	2	Vch Range
VCHRANGEMODE	TOGGLE	F	Vch Auto Range
VCHOFFSETENABLE	TOGGLE	T	Vch Offset Enable
VCHOFFSET	QUANT	0	Vch Offset (V)
VCHFILTER	IQUANT	3	Vch Filter
ACHRANGE	IQUANT	2	Ach Range
ACHOFFSETENABLE	TOGGLE	F	Ach Offset Enable
ACHOFFSET	QUANT	0	Ach Offset (V)
ACHFILTER	IQUANT	3	Ach Filter
IERANGELOWERLIMIT	IQUANT	2	I/E Range Lower Limit
IERANGEMODE	TOGGLE	F	I/E AutoRange
IERANGE	IQUANT	11	I/E Range
POSFEEDENABLE	TOGGLE	F	Positive Feedback IR Comp
POSFEEDRESISTANCE	QUANT	0	Positive Feedback Resistance (ohm)
ACHSELECT	IQUANT	0	Ach Select
CABLEID	IQUANT	13	Cable ID
DCCALDATE	LABEL	7/31/2020	DC Calibration Date
ACCALDATE	LABEL	7/31/2020	AC Calibration Date
THERMOSELECT	IQUANT	1	Thermo Select
FRAMEWORKVERSION	QUANT	6.33	Framework Version
INSTRUMENTVERSION	LABEL	3.50	Instrument Version
COMPLIANCEVOLTAGE	IQUANT	0	Compliance Voltage
ZCURVE	TABLE
	Pt	Time	Freq	Zreal	Zimag	Zsig	Zmod	Zphz	Idc	Vdc	IERange
	#	s	Hz	ohm	ohm	V	ohm	°	A	V	#
	0	10	300046.9	2.789381	1.308929	1	3.081224	25.13853	-0.0001517	-0.0003948	11
	1	13	238359.4	2.780831	1.033516	1	2.966678	20.38795	-0.0001459	-0.0003303	11
	2	17	189328.1	2.771848	0.8077462	1	2.887143	16.24669	-7.059155E-005	0.0001854	11
	3	19	150421.9	2.767958	0.6296273	1	2.838665	12.81501	-1.89543E-005	0.0003716	11
	4	22	119484.4	2.766307	0.4747269	1	2.806745	9.7377	1.543388E-005	0.000528	11
	5	24	94921.88	2.767173	0.3497681	1	2.789191	7.20393	-2.728798E-007	0.0005566	11
	6	27	75421.88	2.770513	0.2415041	1	2.781019	4.981848	-1.14481E-005	0.0005794	11
	7	29	59859.37	2.776404	0.1469171	1	2.780288	3.029058	-5.295417E-005	0.0005861	11
	8	32	47578.12	2.783195	0.0609241	1	2.783861	1.254003	1.652694E-005	0.0006617	11
	9	34	37828.12	2.791697	-0.0201492	1	2.79177	-0.4135283	6.79271E-006	0.0006616	11
	10	37	30046.88	2.801332	-0.1014359	1	2.803168	-2.073768	2.12364E-005	0.0007078	11
	11	39	23859.38	2.811774	-0.1868146	1	2.817973	-3.801151	-4.929616E-005	0.0007178	11
	12	42	18984.38	2.823753	-0.27888	1	2.837491	-5.640365	2.030443E-005	0.0007081	11
	13	44	15046.87	2.837859	-0.3852335	1	2.863887	-7.73053	-3.670728E-005	0.0006595	11
	14	46	11953.13	2.854711	-0.5083118	1	2.899613	-10.09631	-4.882196E-005	0.0006627	11
	15	50	9515.62	2.878789	-0.6528255	1	2.951882	-12.77692	-1.407715E-005	0.0007163	11
	16	53	7546.875	2.902548	-0.8298023	1	3.018834	-15.95457	-4.438562E-005	0.000666	11
	17	55	5928.309	2.933489	-1.054873	1	3.117389	-19.77842	2.566113E-005	0.0007312	11
	18	57	4733.456	2.969624	-1.312094	1	3.246576	-23.83768	1.908033E-005	0.0007193	11
	19	60	3796.875	3.012679	-1.620532	1	3.420871	-28.27599	-4.360681E-005	0.0007317	11
	20	62	2987.132	3.071776	-2.030983	1	3.682486	-33.4717	-2.624726E-005	0.0007016	11
	21	64	2390.625	3.143024	-2.503324	1	4.018113	-38.53627	-1.942032E-005	0.000678	10
	22	67	1884.191	3.23667	-3.122741	1	4.497504	-43.97365	4.979975E-006	0.0006556	10
	23	69	1516.544	3.34332	-3.817606	1	5.074633	-48.78931	-2.39786E-005	0.0007381	10
	24	71	1193.986	3.493895	-4.757539	1	5.902667	-53.70676	-1.168502E-005	0.0006779	10
	25	74	946.5144	3.676268	-5.888866	1	6.942167	-58.02452	-1.522936E-005	0.0006651	10
	26	76	751.7689	3.917022	-7.262478	1	8.251463	-61.65977	4.76017E-006	0.0006613	10
	27	78	597.4265	4.219243	-8.954259	1	9.89852	-64.77021	1.962239E-005	0.000657	10
	28	81	477.4305	4.596339	-10.97045	1	11.89442	-67.26756	-7.292535E-007	0.0006865	10
	29	83	376.6741	5.11195	-13.58564	1	14.51557	-69.37988	-1.376801E-006	0.0006765	10
	30	85	298.2954	5.773428	-16.75088	1	17.71791	-70.98276	-1.612929E-006	0.0006885	10
	31	88	237.7717	6.609407	-20.50715	1	21.54594	-72.13599	-1.296158E-006	0.0006815	10
	32	90	189.0121	7.706083	-25.12513	1	26.28033	-72.9488	-1.771726E-006	0.0006853	10
	33	92	150.2404	9.130095	-30.72828	1	32.05598	-73.45208	-1.575614E-006	0.0006835	10
	34	95	119.1737	10.98614	-37.55743	1	39.13126	-73.69498	-1.386346E-006	0.0006811	10
	35	97	95.0169	13.2913	-45.52842	1	47.42885	-73.72568	1.290453E-006	8.481264E-005	9
	36	100	75.60484	16.25415	-55.19251	1	57.53617	-73.59034	1.179905E-006	8.213443E-005	9
	37	102	54.50582	21.81937	-72.29221	1	75.51324	-73.20504	1.082783E-006	7.566004E-005	9
	38	105	45.95588	25.44903	-83.02862	1	86.84126	-72.95922	1.376139E-006	9.186057E-005	9
	39	107	37.20238	30.70509	-98.3235	1	103.0064	-72.65714	1.303958E-006	8.452662E-005	9
	40	109	30.04808	36.90287	-116.4266	1	122.135	-72.41333	1.219265E-006	8.07538E-005	9
	41	112	23.91582	44.50684	-139.272	1	146.2106	-72.2778	1.27974E-006	8.435267E-005	9
	42	114	18.60119	53.83981	-169.4568	1	177.8042	-72.37391	1.303957E-006	8.432187E-005	9
	43	116	15.02404	62.73306	-200.5939	1	210.1746	-72.63363	1.361243E-006	8.591024E-005	9
	44	119	12.01923	73.07291	-239.8847	1	250.7675	-73.05838	1.236906E-006	8.322803E-005	9
	45	121	9.450605	85.50487	-292.2153	1	304.4682	-73.69004	1.428378E-006	8.544443E-005	9
	46	124	7.512019	99.0783	-354.2087	1	367.8048	-74.37277	1.419844E-006	0.0000989	9
	47	126	5.978954	114.7967	-428.517	1	443.6273	-75.00301	4.347897E-007	0.0006677	8
	48	129	4.734848	135.201	-524.8919	1	542.0248	-75.5558	4.93131E-007	0.0006448	8
	49	133	3.75601	160.527	-643.828	1	663.5386	-75.99978	4.904141E-007	0.0006777	8
	50	136	3.004808	192.3752	-784.0285	1	807.2849	-76.21383	5.089037E-007	0.0006423	8
	51	140	2.372217	238.6443	-967.964	1	996.948	-76.15035	4.374504E-007	0.0005938	8
	52	144	1.878005	298.2419	-1193.118	1	1229.829	-75.96546	5.252807E-007	0.0006649	8
	53	149	1.512097	372.7276	-1443.392	1	1490.74	-75.5208	4.505022E-007	0.0006726	8
	54	154	1.201923	485.339	-1772.306	1	1837.559	-74.68523	5.212022E-007	0.0006718	8
	55	160	0.956633	638.0894	-2158.929	1	2251.251	-73.53452	3.967544E-007	1.544068E-005	8
