EXPLAIN
TAG	EISPOT
TITLE	LABEL	Potentiostatic EIS	Test Identifier
DATE	LABEL	8/9/2020	Date
TIME	LABEL	18:08:36	Time
NOTES	NOTES	1	Notes...
	
PSTAT	PSTAT	REF3000-16137	Potentiostat
VDC	POTEN	0.00000E+000	T	DC Voltage (V)
FREQINIT	QUANT	3.00000E+005	Initial Freq. (Hz)
FREQFINAL	QUANT	1.00000E+000	Final Freq. (Hz)
PTSPERDEC	QUANT	1.00000E+001	Points/decade
VAC	QUANT	5.00000E+001	AC Voltage (mV rms)
AREA	QUANT	1.00000E+000	Sample Area (cm^2)
SPEED	SELECTOR	2	Optimize for:
ZGUESS	QUANT	1.00000E+003	Estimated Z (ohms)
EOC	QUANT	0	Open Circuit (V)
SEQUENCER	TOGGLE	TRUE	Run as Sequence
PSTATMODEL	IQUANT	5	Pstat Model
PSTATSECTION	LABEL	REF3000-16137	Pstat Section
PSTATSERIALNO	LABEL	16137	Pstat Serial Number
CTRLMODE	IQUANT	1	Control Mode
IESTAB	IQUANT	0	I/E Stability
CASPEED	IQUANT	1	Control Amp Speed
CONVENTION	IQUANT	1	Current Convention
ICHRANGE	IQUANT	2	Ich Range
ICHRANGEMODE	TOGGLE	F	Ich Auto Range
ICHOFFSETENABLE	TOGGLE	T	Ich Offset Enable
ICHOFFSET	QUANT	0	Ich Offset (V)
ICHFILTER	IQUANT	3	Ich Filter
VCHRANGE	IQUANT	2	Vch Range
VCHRANGEMODE	TOGGLE	F	Vch Auto Range
VCHOFFSETENABLE	TOGGLE	T	Vch Offset Enable
VCHOFFSET	QUANT	0	Vch Offset (V)
VCHFILTER	IQUANT	3	Vch Filter
ACHRANGE	IQUANT	2	Ach Range
ACHOFFSETENABLE	TOGGLE	F	Ach Offset Enable
ACHOFFSET	QUANT	0	Ach Offset (V)
ACHFILTER	IQUANT	3	Ach Filter
IERANGELOWERLIMIT	IQUANT	2	I/E Range Lower Limit
IERANGEMODE	TOGGLE	F	I/E AutoRange
IERANGE	IQUANT	11	I/E Range
POSFEEDENABLE	TOGGLE	F	Positive Feedback IR Comp
POSFEEDRESISTANCE	QUANT	0	Positive Feedback Resistance (ohm)
ACHSELECT	IQUANT	0	Ach Select
CABLEID	IQUANT	13	Cable ID
DCCALDATE	LABEL	7/31/2020	DC Calibration Date
ACCALDATE	LABEL	7/31/2020	AC Calibration Date
THERMOSELECT	IQUANT	1	Thermo Select
FRAMEWORKVERSION	QUANT	6.33	Framework Version
INSTRUMENTVERSION	LABEL	3.50	Instrument Version
COMPLIANCEVOLTAGE	IQUANT	0	Compliance Voltage
ZCURVE	TABLE
	Pt	Time	Freq	Zreal	Zimag	Zsig	Zmod	Zphz	Idc	Vdc	IERange
	#	s	Hz	ohm	ohm	V	ohm	°	A	V	#
	0	10	300046.9	7.357078	1.278372	1	7.467317	9.85734	5.185825E-005	0.0003015	10
	1	14	238359.4	7.392908	1.022846	1	7.463331	7.877154	-3.345576E-005	3.703353E-005	10
	2	17	189328.1	7.422047	0.794662	1	7.464467	6.11125	-0.0001013	0.0003162	10
	3	19	150421.9	7.444919	0.6206813	1	7.470747	4.765716	2.290079E-005	0.0004652	10
	4	22	119484.4	7.479762	0.4614015	1	7.49398	3.529912	-3.062264E-005	0.00051	10
	5	24	94921.88	7.514147	0.3572638	1	7.522635	2.722106	-1.234368E-005	0.0005588	10
	6	27	75421.88	7.543678	0.2381296	1	7.547436	1.808043	-5.305221E-006	0.0005666	10
	7	29	59859.37	7.577301	0.1315174	1	7.578442	0.99437	-2.598945E-005	0.00063	10
	8	32	47578.12	7.614461	0.035759	1	7.614545	0.2690701	-2.145547E-005	0.0006746	10
	9	34	37828.12	7.653305	-0.0546816	1	7.6535	-0.4093618	-9.406994E-007	0.0006272	10
	10	37	30046.88	7.694016	-0.1454475	1	7.695391	-1.082989	-2.757918E-005	0.0006567	10
	11	39	23859.38	7.733964	-0.2410818	1	7.73772	-1.785436	2.328234E-005	0.000638	10
	12	42	18984.38	7.774477	-0.345937	1	7.782169	-2.547781	1.293004E-005	0.0006412	10
	13	44	15046.87	7.817975	-0.4686769	1	7.83201	-3.430698	-2.127343E-005	0.0006717	10
	14	46	11953.13	7.865126	-0.6103265	1	7.888771	-4.437208	-1.782449E-005	0.0007257	10
	15	49	9515.62	7.914895	-0.7784999	1	7.953089	-5.617477	2.318544E-005	0.0006824	10
	16	51	7546.875	7.970165	-0.985451	1	8.030856	-7.048422	-3.065003E-005	0.0006732	10
	17	53	5928.309	8.032521	-1.248615	1	8.128987	-8.835629	-2.51997E-005	0.0007102	10
	18	56	4733.456	8.114206	-1.55042	1	8.261002	-10.81739	2.278549E-005	0.0006583	10
	19	59	3796.875	8.189867	-1.913613	1	8.41046	-13.15156	-2.103127E-005	0.0006686	10
	20	61	2987.132	8.28155	-2.39758	1	8.621628	-16.14618	2.014191E-005	0.0006666	10
	21	63	2390.625	8.383332	-2.955736	1	8.88913	-19.42127	-1.778391E-005	0.0006752	10
	22	66	1884.191	8.509688	-3.690475	1	9.275474	-23.44538	-2.597154E-005	0.0007027	10
	23	68	1516.544	8.651222	-4.514521	1	9.75831	-27.55718	1.6093E-005	0.0006694	10
	24	70	1193.986	8.836384	-5.632249	1	10.47874	-32.51315	3.634761E-006	0.0006353	10
	25	73	946.5144	9.054164	-6.986621	1	11.43638	-37.65548	-2.507174E-005	0.0006791	10
	26	75	751.7689	9.328088	-8.637688	1	12.7131	-42.79929	-2.491461E-005	0.0006886	10
	27	77	597.4265	9.6623	-10.66821	1	14.39343	-47.83257	-4.158564E-006	0.0006537	10
	28	80	477.4305	10.06511	-13.10875	1	16.52713	-52.48237	-1.925374E-006	0.0006826	10
	29	82	376.6741	10.60215	-16.28687	1	19.43367	-56.93736	-2.165835E-006	0.0006794	10
	30	84	298.2954	11.27363	-20.15579	1	23.09439	-60.78065	-1.628611E-006	0.0006751	10
	31	87	237.7717	12.10288	-24.77925	1	27.577	-63.96782	-2.857429E-006	0.0006854	10
	32	89	189.0121	13.17241	-30.528	1	33.24863	-66.66047	-2.043709E-006	0.0006817	10
	33	91	150.2404	14.53709	-37.57723	1	40.29113	-68.85059	-2.044926E-006	0.0006813	10
	34	94	119.1737	16.2911	-46.25163	1	49.03685	-70.59633	1.420155E-006	7.971226E-005	9
	35	96	95.0169	18.52766	-56.66877	1	59.62067	-71.89502	1.412043E-006	7.237992E-005	9
	36	99	75.60484	21.44704	-69.47214	1	72.70731	-72.8438	1.365828E-006	7.707181E-005	9
	37	101	54.50582	27.17659	-92.69509	1	96.5968	-73.65977	1.273395E-006	7.488809E-005	9
	38	104	45.95588	31.11893	-107.5885	1	111.9986	-73.868	1.326142E-006	7.746247E-005	9
	39	106	37.20238	37.12901	-129.1042	1	134.3371	-73.95533	1.373094E-006	8.196806E-005	9
	40	108	30.04808	44.75102	-154.9274	1	161.2611	-73.88855	1.349982E-006	7.480985E-005	9
	41	111	23.91582	54.95328	-187.6554	1	195.5362	-73.67779	1.488004E-006	7.330617E-005	9
	42	113	18.60119	69.06115	-230.7358	1	240.8494	-73.33712	1.58284E-006	7.006402E-005	9
	43	115	15.02404	83.7448	-274.4512	1	286.9436	-73.03119	1.361998E-006	8.171739E-005	9
	44	118	12.01923	102.1042	-327.8365	1	343.3687	-72.70087	1.602485E-006	0.0001315	9
	45	120	9.450605	125.0261	-396.3734	1	415.6241	-72.49342	1.562301E-006	6.223207E-005	9
	46	123	7.512019	149.4592	-472.415	1	495.4937	-72.44405	5.618386E-007	0.0006692	8
	47	125	5.978954	176.8078	-565.3357	1	592.3389	-72.63302	4.769965E-007	0.0006589	8
	48	128	4.734848	207.2072	-680.9576	1	711.7852	-73.07562	5.486459E-007	0.0006874	8
	49	132	3.75601	240.6811	-821.3871	1	855.923	-73.66847	3.924325E-007	0.0007043	8
	50	135	3.004808	275.8038	-987.684	1	1025.469	-74.39798	5.05077E-007	0.0006592	8
	51	139	2.372217	319.2031	-1205.24	1	1246.794	-75.16602	5.029488E-007	0.000686	8
	52	143	1.878005	367.5256	-1478.557	1	1523.55	-76.04087	4.418299E-007	0.000651	8
	53	148	1.512097	417.4089	-1786.919	1	1835.023	-76.85196	4.993043E-007	0.0005948	8
	54	153	1.201923	488.1856	-2196.863	1	2250.452	-77.47135	4.509185E-007	0.0006475	8
	55	159	0.956633	571.5294	-2696.367	1	2756.273	-78.03255	4.3933E-007	5.311456E-005	8
