EXPLAIN
TAG	EISPOT
TITLE	LABEL	Potentiostatic EIS	Test Identifier
DATE	LABEL	8/9/2020	Date
TIME	LABEL	17:57:25	Time
NOTES	NOTES	1	Notes...
	
PSTAT	PSTAT	REF3000-16137	Potentiostat
VDC	POTEN	0.00000E+000	T	DC Voltage (V)
FREQINIT	QUANT	3.00000E+005	Initial Freq. (Hz)
FREQFINAL	QUANT	1.00000E+000	Final Freq. (Hz)
PTSPERDEC	QUANT	1.00000E+001	Points/decade
VAC	QUANT	5.00000E+001	AC Voltage (mV rms)
AREA	QUANT	1.00000E+000	Sample Area (cm^2)
SPEED	SELECTOR	2	Optimize for:
ZGUESS	QUANT	1.00000E+003	Estimated Z (ohms)
EOC	QUANT	0	Open Circuit (V)
SEQUENCER	TOGGLE	TRUE	Run as Sequence
PSTATMODEL	IQUANT	5	Pstat Model
PSTATSECTION	LABEL	REF3000-16137	Pstat Section
PSTATSERIALNO	LABEL	16137	Pstat Serial Number
CTRLMODE	IQUANT	1	Control Mode
IESTAB	IQUANT	0	I/E Stability
CASPEED	IQUANT	1	Control Amp Speed
CONVENTION	IQUANT	1	Current Convention
ICHRANGE	IQUANT	2	Ich Range
ICHRANGEMODE	TOGGLE	F	Ich Auto Range
ICHOFFSETENABLE	TOGGLE	T	Ich Offset Enable
ICHOFFSET	QUANT	0	Ich Offset (V)
ICHFILTER	IQUANT	3	Ich Filter
VCHRANGE	IQUANT	2	Vch Range
VCHRANGEMODE	TOGGLE	F	Vch Auto Range
VCHOFFSETENABLE	TOGGLE	T	Vch Offset Enable
VCHOFFSET	QUANT	0	Vch Offset (V)
VCHFILTER	IQUANT	3	Vch Filter
ACHRANGE	IQUANT	2	Ach Range
ACHOFFSETENABLE	TOGGLE	F	Ach Offset Enable
ACHOFFSET	QUANT	0	Ach Offset (V)
ACHFILTER	IQUANT	3	Ach Filter
IERANGELOWERLIMIT	IQUANT	2	I/E Range Lower Limit
IERANGEMODE	TOGGLE	F	I/E AutoRange
IERANGE	IQUANT	11	I/E Range
POSFEEDENABLE	TOGGLE	F	Positive Feedback IR Comp
POSFEEDRESISTANCE	QUANT	0	Positive Feedback Resistance (ohm)
ACHSELECT	IQUANT	0	Ach Select
CABLEID	IQUANT	13	Cable ID
DCCALDATE	LABEL	7/31/2020	DC Calibration Date
ACCALDATE	LABEL	7/31/2020	AC Calibration Date
THERMOSELECT	IQUANT	1	Thermo Select
FRAMEWORKVERSION	QUANT	6.33	Framework Version
INSTRUMENTVERSION	LABEL	3.50	Instrument Version
COMPLIANCEVOLTAGE	IQUANT	0	Compliance Voltage
ZCURVE	TABLE
	Pt	Time	Freq	Zreal	Zimag	Zsig	Zmod	Zphz	Idc	Vdc	IERange
	#	s	Hz	ohm	ohm	V	ohm	°	A	V	#
	0	10	300046.9	3.167723	1.301646	1	3.424726	22.3382	-0.0001228	-0.0001353	11
	1	13	238359.4	3.157901	1.020518	1	3.318704	17.90893	2.224405E-005	-1.017771E-005	11
	2	16	189328.1	3.151214	0.8011389	1	3.251457	14.26422	-2.173592E-005	0.0002501	11
	3	19	150421.9	3.15094	0.62395	1	3.212124	11.20082	-1.762372E-005	0.0004188	11
	4	21	119484.4	3.150196	0.4696707	1	3.185016	8.47991	-0.0001329	0.000323	11
	5	24	94921.88	3.153317	0.3448586	1	3.172118	6.241278	-2.875533E-005	0.0005531	11
	6	26	75421.88	3.16051	0.2369342	1	3.169378	4.287279	1.523841E-005	0.0006243	11
	7	29	59859.37	3.168262	0.1419953	1	3.171442	2.566167	-4.684864E-005	0.0006735	11
	8	31	47578.12	3.177596	0.0557441	1	3.178085	1.005028	2.569776E-005	0.0007048	11
	9	34	37828.12	3.187484	-0.0263066	1	3.187593	-0.4728561	2.106647E-005	0.0006881	11
	10	36	30046.88	3.200296	-0.1083884	1	3.202131	-1.939766	-2.867668E-005	0.0006916	11
	11	39	23859.38	3.213091	-0.1950988	1	3.219009	-3.474732	1.589695E-005	0.0007138	11
	12	41	18984.38	3.227426	-0.288903	1	3.240331	-5.115197	-2.027356E-005	0.0006773	11
	13	43	15046.87	3.243746	-0.3975081	1	3.268012	-6.986534	-5.167881E-005	0.0006577	11
	14	46	11953.13	3.263279	-0.5225831	1	3.304858	-9.098125	-2.687059E-005	0.0007091	11
	15	48	9515.62	3.28507	-0.6709262	1	3.352884	-11.54305	-3.844083E-005	0.0006821	11
	16	50	7546.875	3.311693	-0.8519699	1	3.419527	-14.42713	-2.355683E-005	0.0006856	11
	17	53	5928.309	3.344976	-1.08233	1	3.515722	-17.92997	-3.770483E-005	0.000746	11
	18	55	4733.456	3.386145	-1.346867	1	3.644177	-21.69061	6.480686E-006	0.0006674	10
	19	57	3796.875	3.432585	-1.662592	1	3.814033	-25.84349	-2.001639E-005	0.0007129	10
	20	59	2987.132	3.493346	-2.085343	1	4.06843	-30.83497	-1.721976E-005	0.0006852	10
	21	62	2390.625	3.563678	-2.569255	1	4.393276	-35.78995	-9.024352E-006	0.0006701	10
	22	64	1884.191	3.658032	-3.20628	1	4.864301	-41.2347	2.191294E-005	0.0006587	10
	23	66	1516.544	3.767603	-3.921797	1	5.43832	-46.14878	-2.487385E-005	0.0006886	10
	24	69	1193.986	3.918343	-4.889541	1	6.265861	-51.29228	-2.478812E-005	0.000694	10
	25	71	946.5144	4.107281	-6.051627	1	7.313818	-55.83499	2.422339E-006	0.0006559	10
	26	76	751.7689	4.348783	-7.477654	1	8.650273	-59.81898	-2.404213E-005	0.0006944	10
	27	78	597.4265	4.654458	-9.21862	1	10.327	-63.21091	1.648123E-005	0.0006488	10
	28	80	477.4305	5.030633	-11.30544	1	12.37417	-66.01215	-1.518286E-006	0.0006814	10
	29	82	376.6741	5.54307	-14.01209	1	15.06865	-68.41664	-1.532171E-006	0.0006797	10
	30	85	298.2954	6.197341	-17.29358	1	18.37049	-70.28431	-1.882005E-006	0.0006835	10
	31	87	237.7717	7.021721	-21.1955	1	22.32832	-71.67081	-1.767678E-006	0.0006793	10
	32	90	189.0121	8.104606	-26.00771	1	27.24125	-72.69176	-2.388855E-006	0.0006897	10
	33	92	150.2404	9.51324	-31.86402	1	33.25383	-73.37662	-2.151076E-006	0.0007238	10
	34	94	119.1737	11.35819	-39.02958	1	40.6487	-73.77422	-1.63281E-006	0.000684	10
	35	97	95.0169	13.66669	-47.41789	1	49.3481	-73.92207	1.29776E-006	8.059415E-005	9
	36	99	75.60484	16.66084	-57.6259	1	59.98606	-73.87432	1.176857E-006	7.839983E-005	9
	37	102	54.50582	22.36569	-75.76163	1	78.99398	-73.5528	1.120575E-006	7.539606E-005	9
	38	104	45.95588	26.14106	-87.18795	1	91.02249	-73.30999	1.494566E-006	8.227465E-005	9
	39	107	37.20238	31.66787	-103.448	1	108.1866	-72.97942	1.290092E-006	8.83451E-005	9
	40	109	30.04808	38.24973	-122.624	1	128.4511	-72.6759	7.61099E-007	0.0001407	9
	41	111	23.91582	46.54073	-146.8488	1	154.0475	-72.41505	1.109128E-006	8.086844E-005	9
	42	114	18.60119	56.82383	-178.6556	1	187.4747	-72.35603	1.472694E-006	8.311067E-005	9
	43	116	15.02404	66.70371	-211.2196	1	221.5019	-72.47375	1.298489E-006	7.766816E-005	9
	44	118	12.01923	78.01983	-252.0521	1	263.851	-72.80069	1.23261E-006	8.192605E-005	9
	45	121	9.450605	91.48589	-306.102	1	319.481	-73.35997	1.422822E-006	8.579603E-005	9
	46	123	7.512019	105.8157	-369.8469	1	384.6865	-74.03381	1.53969E-006	0.0001046	9
	47	126	5.978954	121.7977	-446.5289	1	462.842	-74.74284	4.604128E-007	0.0006647	8
	48	129	4.734848	141.7555	-546.2355	1	564.3295	-75.4519	5.627026E-007	0.00066	8
	49	132	3.75601	166.0594	-668.7385	1	689.0479	-76.05453	4.648919E-007	0.000661	8
	50	136	3.004808	195.6753	-814.2297	1	837.412	-76.48695	5.329345E-007	0.0006299	8
	51	139	2.372217	235.542	-1005.523	1	1032.742	-76.81628	4.927812E-007	0.0005932	8
	52	143	1.878005	289.9801	-1239.833	1	1273.293	-76.83593	4.818622E-007	0.0006623	8
	53	148	1.512097	357.4927	-1504.479	1	1546.369	-76.63333	4.619849E-007	0.0005692	8
	54	154	1.201923	450.9106	-1851.727	1	1905.837	-76.31436	4.711139E-007	0.0006803	8
	55	160	0.956633	579.0116	-2269.572	1	2342.266	-75.68803	4.369011E-007	1.455411E-005	8
