EXPLAIN
TAG	EISPOT
TITLE	LABEL	Potentiostatic EIS	Test Identifier
DATE	LABEL	8/9/2020	Date
TIME	LABEL	18:00:14	Time
NOTES	NOTES	1	Notes...
	
PSTAT	PSTAT	REF3000-16137	Potentiostat
VDC	POTEN	0.00000E+000	T	DC Voltage (V)
FREQINIT	QUANT	3.00000E+005	Initial Freq. (Hz)
FREQFINAL	QUANT	1.00000E+000	Final Freq. (Hz)
PTSPERDEC	QUANT	1.00000E+001	Points/decade
VAC	QUANT	5.00000E+001	AC Voltage (mV rms)
AREA	QUANT	1.00000E+000	Sample Area (cm^2)
SPEED	SELECTOR	2	Optimize for:
ZGUESS	QUANT	1.00000E+003	Estimated Z (ohms)
EOC	QUANT	0	Open Circuit (V)
SEQUENCER	TOGGLE	TRUE	Run as Sequence
PSTATMODEL	IQUANT	5	Pstat Model
PSTATSECTION	LABEL	REF3000-16137	Pstat Section
PSTATSERIALNO	LABEL	16137	Pstat Serial Number
CTRLMODE	IQUANT	1	Control Mode
IESTAB	IQUANT	0	I/E Stability
CASPEED	IQUANT	1	Control Amp Speed
CONVENTION	IQUANT	1	Current Convention
ICHRANGE	IQUANT	2	Ich Range
ICHRANGEMODE	TOGGLE	F	Ich Auto Range
ICHOFFSETENABLE	TOGGLE	T	Ich Offset Enable
ICHOFFSET	QUANT	0	Ich Offset (V)
ICHFILTER	IQUANT	3	Ich Filter
VCHRANGE	IQUANT	2	Vch Range
VCHRANGEMODE	TOGGLE	F	Vch Auto Range
VCHOFFSETENABLE	TOGGLE	T	Vch Offset Enable
VCHOFFSET	QUANT	0	Vch Offset (V)
VCHFILTER	IQUANT	3	Vch Filter
ACHRANGE	IQUANT	2	Ach Range
ACHOFFSETENABLE	TOGGLE	F	Ach Offset Enable
ACHOFFSET	QUANT	0	Ach Offset (V)
ACHFILTER	IQUANT	3	Ach Filter
IERANGELOWERLIMIT	IQUANT	2	I/E Range Lower Limit
IERANGEMODE	TOGGLE	F	I/E AutoRange
IERANGE	IQUANT	11	I/E Range
POSFEEDENABLE	TOGGLE	F	Positive Feedback IR Comp
POSFEEDRESISTANCE	QUANT	0	Positive Feedback Resistance (ohm)
ACHSELECT	IQUANT	0	Ach Select
CABLEID	IQUANT	13	Cable ID
DCCALDATE	LABEL	7/31/2020	DC Calibration Date
ACCALDATE	LABEL	7/31/2020	AC Calibration Date
THERMOSELECT	IQUANT	1	Thermo Select
FRAMEWORKVERSION	QUANT	6.33	Framework Version
INSTRUMENTVERSION	LABEL	3.50	Instrument Version
COMPLIANCEVOLTAGE	IQUANT	0	Compliance Voltage
ZCURVE	TABLE
	Pt	Time	Freq	Zreal	Zimag	Zsig	Zmod	Zphz	Idc	Vdc	IERange
	#	s	Hz	ohm	ohm	V	ohm	°	A	V	#
	0	10	300046.9	3.695407	1.340658	1	3.931081	19.94028	-3.603402E-005	-4.732601E-005	10
	1	13	238359.4	3.699802	1.054312	1	3.847091	15.90567	2.638798E-005	-0.0003716	10
	2	17	189328.1	3.701516	0.8235995	1	3.792036	12.54415	5.002422E-005	-0.0001192	10
	3	19	150421.9	3.715669	0.6373684	1	3.769938	9.73352	1.576199E-005	0.0001574	10
	4	22	119484.4	3.714338	0.4831516	1	3.74563	7.411275	1.153987E-005	0.0003348	10
	5	24	94921.88	3.725449	0.3681227	1	3.743593	5.643246	8.019957E-006	0.0004493	10
	6	27	75421.88	3.734089	0.2536072	1	3.742691	3.885377	3.279627E-005	0.0004644	10
	7	29	59859.37	3.744832	0.1537193	1	3.747985	2.350579	3.078028E-005	0.0005424	10
	8	32	47578.12	3.757308	0.063108	1	3.757838	0.962254	2.757157E-006	0.0006179	10
	9	34	37828.12	3.770817	-0.0230588	1	3.770888	-0.3503626	-1.346974E-005	0.0005973	10
	10	37	30046.88	3.786313	-0.1097026	1	3.787902	-1.659592	9.381587E-006	0.000644	10
	11	39	23859.38	3.803231	-0.2002826	1	3.808501	-3.014479	2.262933E-005	0.0006473	10
	12	42	18984.38	3.821447	-0.2976022	1	3.833018	-4.453026	-2.399188E-005	0.0007013	10
	13	44	15046.87	3.841294	-0.4095457	1	3.863064	-6.085693	-6.844803E-006	0.0006722	10
	14	46	11953.13	3.864251	-0.5394856	1	3.901727	-7.947659	1.721497E-005	0.0006711	10
	15	48	9515.62	3.890192	-0.6915592	1	3.951183	-10.08016	-2.107179E-005	0.0007144	10
	16	51	7546.875	3.920174	-0.8786629	1	4.017438	-12.63341	2.067404E-005	0.0006549	10
	17	53	5928.309	3.957155	-1.116221	1	4.111572	-15.75251	2.124043E-005	0.0006544	10
	18	55	4733.456	3.999217	-1.388528	1	4.233408	-19.147	-1.599492E-005	0.0006871	10
	19	58	3796.875	4.048703	-1.714285	1	4.396677	-22.94857	2.568611E-005	0.0006665	10
	20	60	2987.132	4.11336	-2.149509	1	4.641133	-27.59011	2.114197E-005	0.0006562	10
	21	62	2390.625	4.189174	-2.647264	1	4.95552	-32.29001	4.7659E-006	0.0006589	10
	22	65	1884.191	4.285981	-3.307378	1	5.413722	-37.65642	2.069742E-005	0.0006643	10
	23	67	1516.544	4.399161	-4.045617	1	5.976591	-42.60269	-2.208659E-005	0.0006954	10
	24	69	1193.986	4.554749	-5.046323	1	6.797875	-47.93098	-2.421222E-005	0.0006872	10
	25	72	946.5144	4.748539	-6.247749	1	7.847484	-52.76371	2.020523E-005	0.0006544	10
	26	74	751.7689	4.98803	-7.722623	1	9.19344	-57.14165	-1.2432E-005	0.0006712	10
	27	76	597.4265	5.29125	-9.52616	1	10.89702	-60.95027	-2.552323E-005	0.0006863	10
	28	79	477.4305	5.671395	-11.68892	1	12.99213	-64.11761	-2.10936E-006	0.000678	10
	29	81	376.6741	6.185018	-14.49729	1	15.76153	-66.89532	-2.613689E-006	0.0006775	10
	30	83	298.2954	6.838246	-17.90673	1	19.16801	-69.09908	-2.578127E-006	0.0006792	10
	31	85	237.7717	7.656899	-21.96655	1	23.26279	-70.78293	-6.193658E-006	0.0007227	10
	32	88	189.0121	8.732046	-26.98598	1	28.36356	-72.0696	-2.601738E-006	0.0006751	10
	33	90	150.2404	10.12816	-33.11283	1	34.62714	-72.99279	-2.270218E-006	0.000684	10
	34	93	119.1737	11.96066	-40.62797	1	42.35197	-73.59585	-2.986618E-006	0.000731	10
	35	95	95.0169	14.2628	-49.45987	1	51.4753	-73.91396	1.287438E-006	7.835082E-005	9
	36	98	75.60484	17.26888	-60.24461	1	62.67078	-74.00526	1.212407E-006	8.107933E-005	9
	37	100	54.50582	23.05246	-79.48948	1	82.76469	-73.8275	1.121651E-006	7.970265E-005	9
	38	103	45.95588	26.93385	-91.661	1	95.5362	-73.625	1.344655E-006	8.097033E-005	9
	39	105	37.20238	32.66249	-109.0149	1	113.8028	-73.32099	1.323876E-006	8.034686E-005	9
	40	107	30.04808	39.61954	-129.5362	1	135.4597	-72.99339	1.278634E-006	7.441293E-005	9
	41	110	23.91582	48.54199	-155.4211	1	162.8252	-72.65508	1.27021E-006	8.155617E-005	9
	42	112	18.60119	59.85244	-189.231	1	198.4709	-72.4482	1.241462E-006	8.256343E-005	9
	43	114	15.02404	70.83517	-223.5942	1	234.5464	-72.42168	1.307733E-006	8.801964E-005	9
	44	117	12.01923	83.58765	-266.4431	1	279.2469	-72.58249	1.420615E-006	8.303242E-005	9
	45	119	9.450605	98.5667	-322.6903	1	337.4084	-73.01456	1.399553E-006	7.953673E-005	9
	46	122	7.512019	114.375	-388.7393	1	405.2158	-73.60504	1.519893E-006	0.0001084	9
	47	124	5.978954	131.2545	-467.8394	1	485.9028	-74.32829	4.720607E-007	0.0006658	8
	48	127	4.734848	151.6008	-570.5958	1	590.3917	-75.12091	5.72018E-007	0.000682	8
	49	131	3.75601	175.733	-697.0858	1	718.8954	-75.85075	4.493679E-007	0.0006654	8
	50	134	3.004808	204.0834	-847.7009	1	871.9214	-76.46368	5.185025E-007	0.0006265	8
	51	138	2.372217	240.9218	-1045.2	1	1072.607	-77.01986	5.001397E-007	0.0006192	8
	52	142	1.878005	290.2764	-1289.467	1	1321.736	-77.31343	4.684583E-007	0.0006666	8
	53	147	1.512097	349.3196	-1567.249	1	1605.707	-77.4349	4.599438E-007	0.000547	8
	54	152	1.201923	429.4118	-1930.658	1	1977.836	-77.46054	4.693752E-007	0.0006833	8
	55	158	0.956633	536.6781	-2373.117	1	2433.045	-77.25697	4.472289E-007	1.790578E-005	8
