EXPLAIN
TAG	EISPOT
TITLE	LABEL	Potentiostatic EIS	Test Identifier
DATE	LABEL	8/9/2020	Date
TIME	LABEL	18:22:32	Time
NOTES	NOTES	1	Notes...
	
PSTAT	PSTAT	REF3000-16137	Potentiostat
VDC	POTEN	0.00000E+000	T	DC Voltage (V)
FREQINIT	QUANT	3.00000E+005	Initial Freq. (Hz)
FREQFINAL	QUANT	1.00000E+000	Final Freq. (Hz)
PTSPERDEC	QUANT	1.00000E+001	Points/decade
VAC	QUANT	5.00000E+001	AC Voltage (mV rms)
AREA	QUANT	1.00000E+000	Sample Area (cm^2)
SPEED	SELECTOR	2	Optimize for:
ZGUESS	QUANT	1.00000E+003	Estimated Z (ohms)
EOC	QUANT	0	Open Circuit (V)
SEQUENCER	TOGGLE	TRUE	Run as Sequence
PSTATMODEL	IQUANT	5	Pstat Model
PSTATSECTION	LABEL	REF3000-16137	Pstat Section
PSTATSERIALNO	LABEL	16137	Pstat Serial Number
CTRLMODE	IQUANT	1	Control Mode
IESTAB	IQUANT	0	I/E Stability
CASPEED	IQUANT	1	Control Amp Speed
CONVENTION	IQUANT	1	Current Convention
ICHRANGE	IQUANT	2	Ich Range
ICHRANGEMODE	TOGGLE	F	Ich Auto Range
ICHOFFSETENABLE	TOGGLE	T	Ich Offset Enable
ICHOFFSET	QUANT	0	Ich Offset (V)
ICHFILTER	IQUANT	3	Ich Filter
VCHRANGE	IQUANT	2	Vch Range
VCHRANGEMODE	TOGGLE	F	Vch Auto Range
VCHOFFSETENABLE	TOGGLE	T	Vch Offset Enable
VCHOFFSET	QUANT	0	Vch Offset (V)
VCHFILTER	IQUANT	3	Vch Filter
ACHRANGE	IQUANT	2	Ach Range
ACHOFFSETENABLE	TOGGLE	F	Ach Offset Enable
ACHOFFSET	QUANT	0	Ach Offset (V)
ACHFILTER	IQUANT	3	Ach Filter
IERANGELOWERLIMIT	IQUANT	2	I/E Range Lower Limit
IERANGEMODE	TOGGLE	F	I/E AutoRange
IERANGE	IQUANT	11	I/E Range
POSFEEDENABLE	TOGGLE	F	Positive Feedback IR Comp
POSFEEDRESISTANCE	QUANT	0	Positive Feedback Resistance (ohm)
ACHSELECT	IQUANT	0	Ach Select
CABLEID	IQUANT	13	Cable ID
DCCALDATE	LABEL	7/31/2020	DC Calibration Date
ACCALDATE	LABEL	7/31/2020	AC Calibration Date
THERMOSELECT	IQUANT	1	Thermo Select
FRAMEWORKVERSION	QUANT	6.33	Framework Version
INSTRUMENTVERSION	LABEL	3.50	Instrument Version
COMPLIANCEVOLTAGE	IQUANT	0	Compliance Voltage
ZCURVE	TABLE
	Pt	Time	Freq	Zreal	Zimag	Zsig	Zmod	Zphz	Idc	Vdc	IERange
	#	s	Hz	ohm	ohm	V	ohm	°	A	V	#
	0	7	300046.9	53.14614	1.401993	1	53.16463	1.51111	3.887262E-006	0.0003631	9
	1	10	238359.4	53.81645	0.984786	1	53.82546	1.048337	2.531959E-005	-0.000278	9
	2	13	189328.1	54.28526	0.700295	1	54.28978	0.7390905	1.727201E-005	-0.0007145	9
	3	15	150421.9	54.81984	0.5265056	1	54.82237	0.5502684	-4.484118E-005	0.0008394	9
	4	18	119484.4	55.28296	0.3551125	1	55.2841	0.3680369	-5.971376E-005	0.0022441	9
	5	20	94921.88	55.81533	0.4783105	1	55.81738	0.4909852	1.779214E-005	-0.0001846	9
	6	23	75421.88	56.23451	0.2970522	1	56.2353	0.3026554	-1.343744E-005	0.0002036	9
	7	26	59859.37	56.89801	0.1340546	1	56.89817	0.1349915	-1.635606E-005	0.0004413	9
	8	29	47578.12	57.36577	-0.0082812	1	57.36577	-0.0082711	1.596164E-005	-0.000599	9
	9	32	37828.12	57.86279	-0.1381201	1	57.86296	-0.1367663	-1.449761E-005	0.0003055	9
	10	34	30046.88	58.35899	-0.2559939	1	58.35955	-0.2513285	-1.336961E-005	0.0002251	9
	11	37	23859.38	58.88736	-0.3642667	1	58.88848	-0.3544169	-2.029046E-005	0.0007328	9
	12	39	18984.38	59.32358	-0.4978341	1	59.32567	-0.4808058	-3.714934E-006	0.0006097	9
	13	41	15046.87	59.78278	-0.6516559	1	59.78633	-0.6245219	-1.579567E-005	0.0003796	9
	14	45	11953.13	60.68332	-0.8141966	1	60.68879	-0.7686993	-1.676246E-005	0.0007177	9
	15	48	9515.62	61.19054	-1.040173	1	61.19938	-0.973873	-3.801805E-006	0.0006172	9
	16	50	7546.875	61.69512	-1.293525	1	61.70868	-1.201111	-1.915298E-005	0.0005307	9
	17	52	5928.309	62.19382	-1.663148	1	62.21606	-1.531802	4.330584E-006	-0.0003726	9
	18	55	4733.456	62.75717	-2.039159	1	62.79029	-1.861048	-1.760646E-005	0.0007081	9
	19	57	3796.875	63.30782	-2.496892	1	63.35704	-2.258604	2.182838E-005	-0.0005358	9
	20	59	2987.132	63.84721	-3.125629	1	63.92367	-2.802667	1.123026E-005	0.0001186	9
	21	62	2390.625	64.4509	-3.835809	1	64.56495	-3.405953	-9.336351E-006	4.523939E-005	9
	22	64	1884.191	65.06992	-4.797585	1	65.24654	-4.216771	1.782558E-005	-0.0001306	9
	23	66	1516.544	65.7212	-5.869231	1	65.98276	-5.103261	-9.1384E-006	5.038039E-005	9
	24	69	1193.986	66.42668	-7.32318	1	66.82913	-6.291142	1.788963E-005	-0.0001168	9
	25	71	946.5144	67.14767	-9.057794	1	67.75584	-7.682462	-1.631844E-005	0.0003811	9
	26	73	751.7689	67.99651	-11.20791	1	68.91402	-9.359937	-4.438588E-006	0.000632	9
	27	76	597.4265	68.85062	-13.84847	1	70.22954	-11.37261	-2.708611E-006	-0.0001805	9
	28	78	477.4305	69.81856	-17.05712	1	71.87194	-13.7288	1.373396E-006	8.788049E-005	9
	29	80	376.6741	70.92104	-21.2298	1	74.0304	-16.66477	1.413321E-006	8.281121E-005	9
	30	83	298.2954	72.16427	-26.32842	1	76.81711	-20.044	1.375303E-006	8.687371E-005	9
	31	85	237.7717	73.59119	-32.44883	1	80.42755	-23.7943	1.363327E-006	7.950566E-005	9
	32	87	189.0121	75.26228	-40.08143	1	85.26976	-28.03783	1.45121E-006	8.097219E-005	9
	33	90	150.2404	77.22279	-49.48972	1	91.72018	-32.65456	1.406227E-006	7.777875E-005	9
	34	92	119.1737	79.56866	-61.20127	1	100.3831	-37.56615	1.405513E-006	7.936087E-005	9
	35	94	95.0169	82.3402	-75.2942	1	111.5757	-42.44068	1.380739E-006	7.369641E-005	9
	36	97	75.60484	85.73779	-92.77267	1	126.3239	-47.25679	1.434884E-006	7.893095E-005	9
	37	100	54.50582	91.6673	-124.9501	1	154.9691	-53.73506	1.432169E-006	7.913617E-005	9
	38	102	45.95588	95.8428	-145.9531	1	174.6086	-56.70836	1.325284E-006	8.459524E-005	9
	39	104	37.20238	101.8122	-176.7948	1	204.015	-60.06331	1.467226E-006	8.283734E-005	9
	40	107	30.04808	109.2604	-214.5366	1	240.7567	-63.01091	1.444767E-006	7.35794E-005	9
	41	109	23.91582	119.1258	-263.7189	1	289.3763	-65.69058	1.418766E-006	0.0001305	9
	42	113	18.60119	133.3479	-330.9531	1	356.8075	-68.05447	1.321375E-006	8.397031E-005	9
	43	116	15.02404	147.6386	-399.1149	1	425.5465	-69.6998	1.896678E-007	0.0006661	8
	44	118	12.01923	167.357	-487.3491	1	515.2839	-71.04739	4.172538E-007	0.000661	8
	45	121	9.450605	194.6527	-603.7168	1	634.3214	-72.12944	3.269943E-007	0.0006489	8
	46	124	7.512019	228.4113	-739.0657	1	773.5566	-72.82603	4.023598E-007	0.0006701	8
	47	127	5.978954	270.8672	-902.7491	1	942.5099	-73.29829	2.97023E-007	0.0006553	8
	48	130	4.734848	326.3152	-1105.404	1	1152.562	-73.5534	3.642008E-007	0.0006834	8
	49	133	3.75601	397.1834	-1348.261	1	1405.547	-73.58559	2.019624E-007	0.0006427	8
	50	136	3.004808	482.9127	-1628.243	1	1698.346	-73.48042	3.006115E-007	0.0006302	8
	51	140	2.372217	595.9437	-1981.818	1	2069.481	-73.26368	2.784953E-007	0.0006507	8
	52	144	1.878005	738.3472	-2407.102	1	2517.796	-72.94728	2.463012E-007	0.0006618	8
	53	149	1.512097	893.9791	-2874.417	1	3010.228	-72.72366	2.751827E-007	0.0005473	8
	54	154	1.201923	1092.427	-3463.273	1	3631.482	-72.49306	2.614991E-007	0.0006755	8
	55	161	0.956633	1321.814	-4170.193	1	4374.666	-72.41309	8.35292E-009	-3.920757E-006	7
