EXPLAIN
TAG	EISPOT
TITLE	LABEL	Potentiostatic EIS	Test Identifier
DATE	LABEL	8/9/2020	Date
TIME	LABEL	18:11:25	Time
NOTES	NOTES	1	Notes...
	
PSTAT	PSTAT	REF3000-16137	Potentiostat
VDC	POTEN	0.00000E+000	T	DC Voltage (V)
FREQINIT	QUANT	3.00000E+005	Initial Freq. (Hz)
FREQFINAL	QUANT	1.00000E+000	Final Freq. (Hz)
PTSPERDEC	QUANT	1.00000E+001	Points/decade
VAC	QUANT	5.00000E+001	AC Voltage (mV rms)
AREA	QUANT	1.00000E+000	Sample Area (cm^2)
SPEED	SELECTOR	2	Optimize for:
ZGUESS	QUANT	1.00000E+003	Estimated Z (ohms)
EOC	QUANT	0	Open Circuit (V)
SEQUENCER	TOGGLE	TRUE	Run as Sequence
PSTATMODEL	IQUANT	5	Pstat Model
PSTATSECTION	LABEL	REF3000-16137	Pstat Section
PSTATSERIALNO	LABEL	16137	Pstat Serial Number
CTRLMODE	IQUANT	1	Control Mode
IESTAB	IQUANT	0	I/E Stability
CASPEED	IQUANT	1	Control Amp Speed
CONVENTION	IQUANT	1	Current Convention
ICHRANGE	IQUANT	2	Ich Range
ICHRANGEMODE	TOGGLE	F	Ich Auto Range
ICHOFFSETENABLE	TOGGLE	T	Ich Offset Enable
ICHOFFSET	QUANT	0	Ich Offset (V)
ICHFILTER	IQUANT	3	Ich Filter
VCHRANGE	IQUANT	2	Vch Range
VCHRANGEMODE	TOGGLE	F	Vch Auto Range
VCHOFFSETENABLE	TOGGLE	T	Vch Offset Enable
VCHOFFSET	QUANT	0	Vch Offset (V)
VCHFILTER	IQUANT	3	Vch Filter
ACHRANGE	IQUANT	2	Ach Range
ACHOFFSETENABLE	TOGGLE	F	Ach Offset Enable
ACHOFFSET	QUANT	0	Ach Offset (V)
ACHFILTER	IQUANT	3	Ach Filter
IERANGELOWERLIMIT	IQUANT	2	I/E Range Lower Limit
IERANGEMODE	TOGGLE	F	I/E AutoRange
IERANGE	IQUANT	11	I/E Range
POSFEEDENABLE	TOGGLE	F	Positive Feedback IR Comp
POSFEEDRESISTANCE	QUANT	0	Positive Feedback Resistance (ohm)
ACHSELECT	IQUANT	0	Ach Select
CABLEID	IQUANT	13	Cable ID
DCCALDATE	LABEL	7/31/2020	DC Calibration Date
ACCALDATE	LABEL	7/31/2020	AC Calibration Date
THERMOSELECT	IQUANT	1	Thermo Select
FRAMEWORKVERSION	QUANT	6.33	Framework Version
INSTRUMENTVERSION	LABEL	3.50	Instrument Version
COMPLIANCEVOLTAGE	IQUANT	0	Compliance Voltage
ZCURVE	TABLE
	Pt	Time	Freq	Zreal	Zimag	Zsig	Zmod	Zphz	Idc	Vdc	IERange
	#	s	Hz	ohm	ohm	V	ohm	°	A	V	#
	0	8	300046.9	9.9474	1.270492	1	10.0282	7.278469	-2.421432E-005	0.0001195	10
	1	11	238359.4	10.00732	0.989632	1	10.05614	5.647661	2.448356E-005	0.0001822	10
	2	14	189328.1	10.0602	0.7725158	1	10.08982	4.391084	-8.385001E-005	0.0005011	10
	3	17	150421.9	10.10338	0.603124	1	10.12136	3.416235	2.923036E-005	0.0005284	10
	4	19	119484.4	10.15458	0.4441974	1	10.16429	2.504724	-2.726697E-005	0.0005666	10
	5	22	94921.88	10.20428	0.3418317	1	10.21	1.918625	-2.073057E-005	0.0006123	10
	6	24	75421.88	10.25353	0.2218969	1	10.25593	1.239746	1.899784E-005	0.0006387	10
	7	27	59859.37	10.3076	0.1139714	1	10.30823	0.6334952	2.288971E-005	0.0006192	10
	8	29	47578.12	10.36435	0.0195288	1	10.36436	0.1079584	-7.605097E-006	0.0006384	10
	9	32	37828.12	10.42192	-0.0702689	1	10.42216	-0.3863058	-2.947637E-005	0.0006637	10
	10	34	30046.88	10.48092	-0.1614617	1	10.48217	-0.8825886	-1.65954E-005	0.0006825	10
	11	37	23859.38	10.53965	-0.2597386	1	10.54285	-1.411708	-3.185941E-005	0.0006604	10
	12	39	18984.38	10.59678	-0.3679162	1	10.60316	-1.988489	-7.005962E-006	0.0006631	10
	13	41	15046.87	10.65783	-0.4945631	1	10.6693	-2.656833	2.249789E-005	0.0006428	10
	14	44	11953.13	10.72272	-0.6415644	1	10.7419	-3.424053	1.398451E-005	0.0006513	10
	15	46	9515.62	10.79147	-0.8165455	1	10.82232	-4.327087	-3.171962E-005	0.0006795	10
	16	48	7546.875	10.86591	-1.030701	1	10.91468	-5.418658	2.521089E-005	0.000669	10
	17	51	5928.309	10.94717	-1.304654	1	11.02464	-6.796299	1.294862E-005	0.0006338	10
	18	53	4733.456	11.03533	-1.619485	1	11.15353	-8.348824	-4.112472E-006	0.0006525	10
	19	55	3796.875	11.1291	-1.99703	1	11.30685	-10.17302	4.301171E-007	0.0006565	10
	20	57	2987.132	11.24137	-2.502196	1	11.51649	-12.54879	1.859425E-005	0.0006302	10
	21	60	2390.625	11.36479	-3.079254	1	11.77456	-15.16013	-1.614121E-005	0.0006968	10
	22	62	1884.191	11.50836	-3.848496	1	12.1348	-18.49039	1.930593E-005	0.0006315	10
	23	64	1516.544	11.674	-4.707395	1	12.58737	-21.96115	-4.555407E-006	0.0006478	10
	24	67	1193.986	11.8814	-5.879152	1	13.2564	-26.32711	1.627691E-005	0.0006736	10
	25	69	946.5144	12.1239	-7.294989	1	14.14941	-31.03546	-3.050487E-005	0.0006767	10
	26	71	751.7689	12.41761	-9.018033	1	15.34673	-35.98825	1.610897E-005	0.0006714	10
	27	74	597.4265	12.77691	-11.13816	1	16.95017	-41.07999	4.141565E-006	0.0006352	10
	28	76	477.4305	13.20213	-13.69013	1	19.01883	-46.03959	-2.693576E-006	0.000684	10
	29	78	376.6741	13.76184	-17.01638	1	21.88482	-51.03612	-2.465355E-006	0.0006803	10
	30	81	298.2954	14.45544	-21.06604	1	25.54873	-55.54222	-2.454066E-006	0.0006863	10
	31	83	237.7717	15.30796	-25.91924	1	30.10217	-59.43381	-2.296191E-006	0.0006782	10
	32	85	189.0121	16.39125	-31.94698	1	35.90659	-62.8387	-2.257561E-006	0.0006846	10
	33	88	150.2404	17.74212	-39.30756	1	43.12618	-65.70717	1.392488E-006	8.24661E-005	9
	34	90	119.1737	19.50541	-48.48337	1	52.25991	-68.08451	1.365181E-006	8.395058E-005	9
	35	93	95.0169	21.7179	-59.47775	1	63.31879	-69.94067	1.349045E-006	8.742412E-005	9
	36	95	75.60484	24.58722	-73.03115	1	77.05894	-71.3933	1.363483E-006	8.88918E-005	9
	37	98	54.50582	30.19139	-97.7485	1	102.3049	-72.83575	1.342431E-006	7.430238E-005	9
	38	100	45.95588	34.06607	-113.6866	1	118.6809	-73.31921	1.524643E-006	7.847795E-005	9
	39	104	37.20238	40.04758	-136.9354	1	142.6713	-73.69812	1.302004E-006	8.852043E-005	9
	40	107	30.04808	47.61026	-164.8205	1	171.5591	-73.88804	1.35343E-006	8.704278E-005	9
	41	109	23.91582	57.91088	-200.5219	1	208.7168	-73.89124	1.375514E-006	8.294677E-005	9
	42	112	18.60119	72.32662	-247.79	1	258.1299	-73.72817	1.302395E-006	8.697796E-005	9
	43	114	15.02404	87.7974	-295.869	1	308.6208	-73.47205	1.453903E-006	0.0000952	9
	44	116	12.01923	107.6199	-355.2039	1	371.1494	-73.1442	1.685147E-006	8.128783E-005	9
	45	119	9.450605	132.7097	-429.017	1	449.074	-72.81137	4.933283E-007	0.0006444	8
	46	121	7.512019	161.4529	-514.6872	1	539.4163	-72.58381	4.417189E-007	0.0006433	8
	47	124	5.978954	194.6252	-615.7472	1	645.7736	-72.45931	4.789356E-007	0.0006596	8
	48	127	4.734848	232.2271	-740.3444	1	775.9119	-72.58469	4.172351E-007	0.0006443	8
	49	130	3.75601	273.536	-889.377	1	930.4909	-72.90424	5.209644E-007	0.0006779	8
	50	134	3.004808	316.9613	-1064.341	1	1110.534	-73.41644	4.500426E-007	0.000692	8
	51	137	2.372217	367.0201	-1291.301	1	1342.446	-74.13351	4.402955E-007	0.0006849	8
	52	141	1.878005	424.8329	-1573.541	1	1629.881	-74.8912	4.828714E-007	0.0006311	8
	53	146	1.512097	485.2919	-1895.092	1	1956.241	-75.63645	4.537373E-007	0.0008023	8
	54	152	1.201923	557.3337	-2318.889	1	2384.925	-76.48557	4.910663E-007	0.0006209	8
	55	158	0.956633	643.0997	-2840.791	1	2912.674	-77.24435	4.591238E-007	1.857591E-005	8
