EXPLAIN
TAG	EISPOT
TITLE	LABEL	Potentiostatic EIS	Test Identifier
DATE	LABEL	9/12/2020	Date
TIME	LABEL	18:09:49	Time
NOTES	NOTES	1	Notes...
	
PSTAT	PSTAT	REF3000-16137	Potentiostat
VDC	POTEN	0.00000E+000	T	DC Voltage (V)
FREQINIT	QUANT	3.00000E+005	Initial Freq. (Hz)
FREQFINAL	QUANT	1.00000E+000	Final Freq. (Hz)
PTSPERDEC	QUANT	1.00000E+001	Points/decade
VAC	QUANT	5.00000E+001	AC Voltage (mV rms)
AREA	QUANT	1.00000E+000	Sample Area (cm^2)
SPEED	SELECTOR	2	Optimize for:
ZGUESS	QUANT	1.00000E+003	Estimated Z (ohms)
EOC	QUANT	0	Open Circuit (V)
SEQUENCER	TOGGLE	TRUE	Run as Sequence
PSTATMODEL	IQUANT	5	Pstat Model
PSTATSECTION	LABEL	REF3000-16137	Pstat Section
PSTATSERIALNO	LABEL	16137	Pstat Serial Number
CTRLMODE	IQUANT	1	Control Mode
IESTAB	IQUANT	0	I/E Stability
CASPEED	IQUANT	1	Control Amp Speed
CONVENTION	IQUANT	1	Current Convention
ICHRANGE	IQUANT	2	Ich Range
ICHRANGEMODE	TOGGLE	F	Ich Auto Range
ICHOFFSETENABLE	TOGGLE	T	Ich Offset Enable
ICHOFFSET	QUANT	0	Ich Offset (V)
ICHFILTER	IQUANT	3	Ich Filter
VCHRANGE	IQUANT	2	Vch Range
VCHRANGEMODE	TOGGLE	F	Vch Auto Range
VCHOFFSETENABLE	TOGGLE	T	Vch Offset Enable
VCHOFFSET	QUANT	0	Vch Offset (V)
VCHFILTER	IQUANT	3	Vch Filter
ACHRANGE	IQUANT	2	Ach Range
ACHOFFSETENABLE	TOGGLE	F	Ach Offset Enable
ACHOFFSET	QUANT	0	Ach Offset (V)
ACHFILTER	IQUANT	3	Ach Filter
IERANGELOWERLIMIT	IQUANT	2	I/E Range Lower Limit
IERANGEMODE	TOGGLE	F	I/E AutoRange
IERANGE	IQUANT	11	I/E Range
POSFEEDENABLE	TOGGLE	F	Positive Feedback IR Comp
POSFEEDRESISTANCE	QUANT	0	Positive Feedback Resistance (ohm)
ACHSELECT	IQUANT	0	Ach Select
CABLEID	IQUANT	13	Cable ID
DCCALDATE	LABEL	7/31/2020	DC Calibration Date
ACCALDATE	LABEL	7/31/2020	AC Calibration Date
THERMOSELECT	IQUANT	1	Thermo Select
FRAMEWORKVERSION	QUANT	6.33	Framework Version
INSTRUMENTVERSION	LABEL	3.50	Instrument Version
COMPLIANCEVOLTAGE	IQUANT	0	Compliance Voltage
ZCURVE	TABLE
	Pt	Time	Freq	Zreal	Zimag	Zsig	Zmod	Zphz	Idc	Vdc	IERange
	#	s	Hz	ohm	ohm	V	ohm	°	A	V	#
	0	17	300046.9	885.3407	-226.4372	1	913.8391	-14.34658	5.13314E-005	-0.0001544	9
	1	33	238359.4	944.2036	-210.4244	1	967.367	-12.56358	3.41168E-006	0.0015301	9
	2	50	189328.1	989.034	-182.0752	1	1005.654	-10.43102	3.281017E-006	0.0014727	9
	3	58	150421.9	1027.408	-159.9786	1	1039.789	-8.850502	-1.505814E-006	-0.0017606	9
	4	64	119484.4	1059.943	-101.4279	1	1064.784	-5.466097	1.102401E-005	-0.0063159	8
	5	70	94921.88	1081.646	-81.96767	1	1084.747	-4.33362	-1.70687E-005	0.0031505	8
	6	73	75421.88	1091.603	-69.25224	1	1093.797	-3.63003	-1.288585E-005	0.0010634	8
	7	76	59859.37	1107.061	-57.95688	1	1108.577	-2.996815	-1.734774E-005	0.0083574	8
	8	80	47578.12	1119.394	-49.3588	1	1120.482	-2.524776	-1.962741E-005	0.0062147	8
	9	83	37828.12	1131.31	-40.49507	1	1132.034	-2.050019	-1.384758E-005	0.0086442	8
	10	86	30046.88	1142.629	-32.32416	1	1143.086	-1.620425	-1.643402E-005	0.0029037	8
	11	89	23859.38	1152.112	-27.35236	1	1152.437	-1.360007	-8.664243E-006	-0.0008855	8
	12	92	18984.38	1166.042	-21.87597	1	1166.247	-1.074793	-7.838047E-006	0.0075847	8
	13	95	15046.87	1175.046	-19.14924	1	1175.202	-0.9336433	1.921767E-005	-0.0026669	8
	14	98	11953.13	1187.275	-15.89268	1	1187.381	-0.7669069	-3.838351E-007	0.0057952	8
	15	101	9515.62	1198.617	-12.62932	1	1198.684	-0.6036791	-1.6962E-005	0.0031571	8
	16	105	7546.875	1208.687	-11.35845	1	1208.74	-0.5384126	2.108979E-005	-0.0059368	8
	17	108	5928.309	1223.093	-9.62295	1	1223.131	-0.4507779	-9.001193E-006	-0.0009141	8
	18	111	4733.456	1237.846	-9.184325	1	1237.88	-0.425104	2.132935E-005	-0.0060027	8
	19	115	3796.875	1247.848	-7.121672	1	1247.868	-0.3269929	-1.823406E-005	0.0087128	8
	20	119	2987.132	1264.626	-10.80749	1	1264.672	-0.4896379	2.104377E-005	-0.0044267	8
	21	123	2390.625	1274.26	-16.26703	1	1274.364	-0.7313901	-1.411689E-005	0.0089249	8
	22	126	1884.191	1294.255	-5.429777	1	1294.266	-0.2403712	2.006914E-005	-0.007111	8
	23	130	1516.544	1307.187	-12.79606	1	1307.25	-0.5608506	-1.724754E-005	0.0030314	8
	24	134	1193.986	1323.976	-10.74565	1	1324.019	-0.4650138	1.523084E-005	-0.0002835	8
	25	138	946.5144	1343.836	-6.479619	1	1343.852	-0.2762628	-7.858833E-006	0.0077023	8
	26	140	751.7689	1351.872	-12.26232	1	1351.928	-0.5196941	-9.147125E-006	-0.0009934	8
	27	143	597.4265	1358.888	-13.40316	1	1358.954	-0.5651087	2.019173E-005	-0.007174	8
	28	145	477.4305	1369.512	-20.95465	1	1369.672	-0.8766036	-2.66491E-007	0.0006264	8
	29	148	376.6741	1379.896	-25.49063	1	1380.131	-1.058297	-2.415884E-007	0.000619	8
	30	150	298.2954	1390.379	-31.21582	1	1390.729	-1.286149	-2.52039E-007	0.000621	8
	31	152	237.7717	1401.329	-38.27684	1	1401.852	-1.564626	-2.686781E-007	0.0006211	8
	32	155	189.0121	1412.704	-47.09146	1	1413.488	-1.909207	-2.330855E-007	0.0006211	8
	33	157	150.2404	1424.355	-58.22745	1	1425.545	-2.34094	-2.705401E-007	0.0006419	8
	34	160	119.1737	1436.429	-72.05217	1	1438.235	-2.871585	-1.932646E-007	0.0006089	8
	35	162	95.0169	1449.021	-88.84048	1	1451.742	-3.508451	-2.847877E-007	0.000628	8
	36	165	75.60484	1462.238	-109.8821	1	1466.361	-4.2975	-2.249945E-007	0.0006146	8
	37	167	54.50582	1477.913	-149.0559	1	1485.411	-5.759128	-2.698208E-007	0.0006342	8
	38	170	45.95588	1491.945	-174.5953	1	1502.126	-6.674696	-1.60898E-007	0.0006284	8
	39	172	37.20238	1506.042	-213.2553	1	1521.066	-8.059491	-3.631239E-007	0.0006578	8
	40	174	30.04808	1522.709	-259.9484	1	1544.738	-9.68783	-2.893928E-007	0.0006507	8
	41	177	23.91582	1540.223	-322.5098	1	1573.626	-11.82639	-1.864506E-007	0.0006296	8
	42	179	18.60119	1560.826	-409.1634	1	1613.565	-14.68929	-6.631192E-008	0.0006173	8
	43	181	15.02404	1584.912	-496.6938	1	1660.919	-17.40041	-9.953854E-008	0.0006336	8
	44	184	12.01923	1608.454	-612.4185	1	1721.098	-20.84432	-3.0378E-007	0.0006784	8
	45	186	9.450605	1640.452	-766.5824	1	1810.726	-25.04667	-2.729753E-007	0.0006354	8
	46	189	7.512019	1677.54	-947.348	1	1926.554	-29.45448	-2.369431E-007	0.0006296	8
	47	191	5.978954	1722.965	-1170.439	1	2082.916	-34.18892	-2.480835E-007	0.0006383	8
	48	194	4.734848	1780.426	-1453.346	1	2298.289	-39.22447	-2.800216E-007	0.0005938	8
	49	198	3.75601	1850.298	-1795.119	1	2577.995	-44.13281	-2.613654E-007	0.0006576	8
	50	201	3.004808	1932.541	-2200.695	1	2928.783	-48.71199	-2.318242E-007	0.0006072	8
	51	205	2.372217	2043.016	-2725.983	1	3406.596	-53.14989	-2.827283E-007	0.0005548	8
	52	209	1.878005	2170.839	-3377.541	1	4015.012	-57.27002	-2.483757E-007	0.0006165	8
	53	214	1.512097	2320.44	-4111.067	1	4720.732	-60.55799	-6.32695E-008	0.000594	7
	54	219	1.201923	2518.033	-5075.724	1	5665.992	-63.61429	-4.850935E-008	0.0006206	7
	55	225	0.956633	2754.977	-6242.649	1	6823.531	-66.1874	-6.98155E-008	-3.519372E-005	7
