EXPLAIN
TAG	EISPOT
TITLE	LABEL	Potentiostatic EIS	Test Identifier
DATE	LABEL	9/12/2020	Date
TIME	LABEL	18:18:32	Time
NOTES	NOTES	1	Notes...
	
PSTAT	PSTAT	REF3000-16137	Potentiostat
VDC	POTEN	0.00000E+000	T	DC Voltage (V)
FREQINIT	QUANT	3.00000E+005	Initial Freq. (Hz)
FREQFINAL	QUANT	1.00000E+000	Final Freq. (Hz)
PTSPERDEC	QUANT	1.00000E+001	Points/decade
VAC	QUANT	5.00000E+001	AC Voltage (mV rms)
AREA	QUANT	1.00000E+000	Sample Area (cm^2)
SPEED	SELECTOR	2	Optimize for:
ZGUESS	QUANT	1.00000E+003	Estimated Z (ohms)
EOC	QUANT	0	Open Circuit (V)
SEQUENCER	TOGGLE	TRUE	Run as Sequence
PSTATMODEL	IQUANT	5	Pstat Model
PSTATSECTION	LABEL	REF3000-16137	Pstat Section
PSTATSERIALNO	LABEL	16137	Pstat Serial Number
CTRLMODE	IQUANT	1	Control Mode
IESTAB	IQUANT	0	I/E Stability
CASPEED	IQUANT	1	Control Amp Speed
CONVENTION	IQUANT	1	Current Convention
ICHRANGE	IQUANT	2	Ich Range
ICHRANGEMODE	TOGGLE	F	Ich Auto Range
ICHOFFSETENABLE	TOGGLE	T	Ich Offset Enable
ICHOFFSET	QUANT	0	Ich Offset (V)
ICHFILTER	IQUANT	3	Ich Filter
VCHRANGE	IQUANT	2	Vch Range
VCHRANGEMODE	TOGGLE	F	Vch Auto Range
VCHOFFSETENABLE	TOGGLE	T	Vch Offset Enable
VCHOFFSET	QUANT	0	Vch Offset (V)
VCHFILTER	IQUANT	3	Vch Filter
ACHRANGE	IQUANT	2	Ach Range
ACHOFFSETENABLE	TOGGLE	F	Ach Offset Enable
ACHOFFSET	QUANT	0	Ach Offset (V)
ACHFILTER	IQUANT	3	Ach Filter
IERANGELOWERLIMIT	IQUANT	2	I/E Range Lower Limit
IERANGEMODE	TOGGLE	F	I/E AutoRange
IERANGE	IQUANT	11	I/E Range
POSFEEDENABLE	TOGGLE	F	Positive Feedback IR Comp
POSFEEDRESISTANCE	QUANT	0	Positive Feedback Resistance (ohm)
ACHSELECT	IQUANT	0	Ach Select
CABLEID	IQUANT	13	Cable ID
DCCALDATE	LABEL	7/31/2020	DC Calibration Date
ACCALDATE	LABEL	7/31/2020	AC Calibration Date
THERMOSELECT	IQUANT	1	Thermo Select
FRAMEWORKVERSION	QUANT	6.33	Framework Version
INSTRUMENTVERSION	LABEL	3.50	Instrument Version
COMPLIANCEVOLTAGE	IQUANT	0	Compliance Voltage
ZCURVE	TABLE
	Pt	Time	Freq	Zreal	Zimag	Zsig	Zmod	Zphz	Idc	Vdc	IERange
	#	s	Hz	ohm	ohm	V	ohm	°	A	V	#
	0	14	300046.9	1867.676	-2332.072	1	2987.771	-51.30997	8.763061E-005	-0.0035982	9
	1	35	238359.4	2439.626	-2576.631	1	3548.352	-46.56448	2.62126E-005	0.0010034	9
	2	52	189328.1	2936.378	-2661.763	1	3963.243	-42.19162	1.873082E-005	-0.0021162	9
	3	60	150421.9	3559.165	-2626.325	1	4423.261	-36.4238	2.602582E-005	0.0010176	9
	4	69	119484.4	4169.96	-2526.051	1	4875.397	-31.20637	-8.804295E-005	0.0317345	8
	5	76	94921.88	4749.504	-2424.642	1	5332.605	-27.0445	-2.311689E-005	0.0105424	8
	6	84	75421.88	5254.636	-2260.946	1	5720.409	-23.28107	-1.741866E-006	-0.0046375	8
	7	91	59859.37	5740.19	-2054.198	1	6096.68	-19.69038	-1.993183E-005	0.0029882	8
	8	99	47578.12	6143.331	-1885.229	1	6426.087	-17.05989	2.444651E-005	-0.0085632	8
	9	106	37828.12	6543.157	-1654.882	1	6749.188	-14.19349	-2.325328E-005	0.0106186	8
	10	114	30046.88	6878.072	-1443.811	1	7027.978	-11.85512	-1.491099E-006	-0.0047202	8
	11	121	23859.38	7358.473	-808.1246	1	7402.715	-6.26724	-2.080759E-006	0.0203716	7
	12	125	18984.38	7477.995	-683.8683	1	7509.2	-5.225209	-4.99328E-006	0.0234728	7
	13	128	15046.87	7611.786	-548.5548	1	7631.526	-4.121981	-2.043307E-006	0.0206209	7
	14	132	11953.13	7693.825	-467.3975	1	7708.009	-3.476429	-5.751507E-006	0.0091783	7
	15	135	9515.62	7837.672	-396.3142	1	7847.686	-2.894713	4.142953E-006	0.0007672	7
	16	139	7546.875	7944.598	-321.3719	1	7951.096	-2.316444	-5.737548E-006	0.0093803	7
	17	142	5928.309	8118.651	-282.9879	1	8123.582	-1.996323	-6.455574E-006	0.0201182	7
	18	147	4733.456	8262.602	-259.6684	1	8266.681	-1.800039	5.033946E-006	-0.0237997	7
	19	151	3796.875	8372.929	-198.1927	1	8375.274	-1.355975	6.267298E-006	-0.0236965	7
	20	155	2987.132	8516.209	-152.9444	1	8517.582	-1.028877	1.531639E-006	-0.018573	7
	21	159	2390.625	8575.993	-161.6443	1	8577.517	-1.079809	-2.144772E-006	0.0210847	7
	22	163	1884.191	8791.402	-116.8009	1	8792.178	-0.7611761	5.023742E-006	-0.0238935	7
	23	167	1516.544	8946.509	-98.2785	1	8947.049	-0.6293759	-3.683386E-006	0.0231704	7
	24	172	1193.986	9036.36	-126.1361	1	9037.24	-0.7997243	4.79376E-008	0.0155819	7
	25	176	946.5144	9205.378	-51.91337	1	9205.524	-0.3231139	-3.605008E-006	0.0229337	7
	26	179	751.7689	9226.838	-48.06197	1	9226.963	-0.2984471	-1.992431E-006	0.0205401	7
	27	182	597.4265	9374.461	-23.32446	1	9374.49	-0.1425565	2.12509E-006	0.0089567	7
	28	184	477.4305	9527.39	-62.2098	1	9527.59	-0.3741119	-1.007906E-007	0.0006439	7
	29	186	376.6741	9616.94	-61.34481	1	9617.14	-0.3654749	-9.775833E-008	0.0006655	7
	30	189	298.2954	9707.66	-62.97982	1	9707.87	-0.3717093	-8.36953E-008	0.0005649	7
	31	191	237.7717	9803.47	-68.06486	1	9803.71	-0.3977945	-9.646716E-008	0.0006164	7
	32	194	189.0121	9899.69	-75.53288	1	9899.97	-0.4371483	-8.464682E-008	0.0005753	7
	33	196	150.2404	9994.71	-87.10378	1	9995.08	-0.4993196	-8.302401E-008	0.000562	7
	34	198	119.1737	10097.23	-100.1072	1	10097.73	-0.5680302	-7.570215E-008	0.0006184	7
	35	201	95.0169	10194.26	-119.7733	1	10194.96	-0.6731424	-1.012748E-007	0.0005831	7
	36	203	75.60484	10301.58	-144.9111	1	10302.6	-0.8059194	-8.168396E-008	0.0006239	7
	37	206	54.50582	10415.94	-190.3743	1	10417.68	-1.047091	-9.571456E-008	0.0006391	7
	38	208	45.95588	10515.45	-219.5096	1	10517.74	-1.195873	-6.269264E-008	0.0005927	7
	39	211	37.20238	10619.15	-266.0889	1	10622.48	-1.435387	-1.104524E-007	0.0006118	7
	40	213	30.04808	10731.75	-320.5678	1	10736.53	-1.710973	-4.593796E-008	0.0005874	7
	41	216	23.91582	10840.03	-395.0204	1	10847.23	-2.086986	-1.242957E-007	0.0006036	7
	42	218	18.60119	10954.8	-510.4315	1	10966.68	-2.667729	-2.029861E-007	0.0006329	7
	43	220	15.02404	11081.83	-590.8577	1	11097.57	-3.05199	-1.915599E-007	0.0005814	7
	44	223	12.01923	11172.23	-725.7253	1	11195.78	-3.716595	-1.955444E-007	0.0005601	7
	45	225	9.450605	11299.41	-936.9614	1	11338.19	-4.740194	9.858751E-009	0.0006511	7
	46	228	7.512019	11435.87	-1170.946	1	11495.66	-5.846278	3.342442E-008	0.0006198	7
	47	230	5.978954	11610.01	-1441.698	1	11699.18	-7.078593	-3.626535E-009	0.000569	7
	48	233	4.734848	11802.59	-1772.531	1	11934.95	-8.540938	-4.797812E-008	0.0006585	7
	49	237	3.75601	12052.79	-2216.503	1	12254.9	-10.42024	-2.60402E-008	0.0006016	7
	50	240	3.004808	12257.12	-2716.206	1	12554.47	-12.49496	-1.175441E-007	0.0006683	7
	51	244	2.372217	12585.73	-3356.417	1	13025.59	-14.93237	-4.590835E-008	0.0006397	7
	52	248	1.878005	12909.18	-4175.791	1	13567.76	-17.92507	-5.740977E-008	0.000585	7
	53	253	1.512097	13277.57	-5103.298	1	14224.54	-21.02451	-7.287228E-008	0.0006978	7
	54	258	1.201923	13759.39	-6360.596	1	15158.43	-24.80984	-6.911493E-008	0.0005981	7
	55	264	0.956633	14320.31	-7863.517	1	16337.26	-28.77191	-1.037088E-007	-3.730684E-005	7
