EXPLAIN
TAG	EISPOT
TITLE	LABEL	Potentiostatic EIS	Test Identifier
DATE	LABEL	9/12/2020	Date
TIME	LABEL	17:51:55	Time
NOTES	NOTES	1	Notes...
	
PSTAT	PSTAT	REF3000-16137	Potentiostat
VDC	POTEN	0.00000E+000	T	DC Voltage (V)
FREQINIT	QUANT	3.00000E+005	Initial Freq. (Hz)
FREQFINAL	QUANT	1.00000E+000	Final Freq. (Hz)
PTSPERDEC	QUANT	1.00000E+001	Points/decade
VAC	QUANT	5.00000E+001	AC Voltage (mV rms)
AREA	QUANT	1.00000E+000	Sample Area (cm^2)
SPEED	SELECTOR	2	Optimize for:
ZGUESS	QUANT	1.00000E+003	Estimated Z (ohms)
EOC	QUANT	0	Open Circuit (V)
SEQUENCER	TOGGLE	TRUE	Run as Sequence
PSTATMODEL	IQUANT	5	Pstat Model
PSTATSECTION	LABEL	REF3000-16137	Pstat Section
PSTATSERIALNO	LABEL	16137	Pstat Serial Number
CTRLMODE	IQUANT	1	Control Mode
IESTAB	IQUANT	0	I/E Stability
CASPEED	IQUANT	1	Control Amp Speed
CONVENTION	IQUANT	1	Current Convention
ICHRANGE	IQUANT	2	Ich Range
ICHRANGEMODE	TOGGLE	F	Ich Auto Range
ICHOFFSETENABLE	TOGGLE	T	Ich Offset Enable
ICHOFFSET	QUANT	0	Ich Offset (V)
ICHFILTER	IQUANT	3	Ich Filter
VCHRANGE	IQUANT	2	Vch Range
VCHRANGEMODE	TOGGLE	F	Vch Auto Range
VCHOFFSETENABLE	TOGGLE	T	Vch Offset Enable
VCHOFFSET	QUANT	0	Vch Offset (V)
VCHFILTER	IQUANT	3	Vch Filter
ACHRANGE	IQUANT	2	Ach Range
ACHOFFSETENABLE	TOGGLE	F	Ach Offset Enable
ACHOFFSET	QUANT	0	Ach Offset (V)
ACHFILTER	IQUANT	3	Ach Filter
IERANGELOWERLIMIT	IQUANT	2	I/E Range Lower Limit
IERANGEMODE	TOGGLE	F	I/E AutoRange
IERANGE	IQUANT	11	I/E Range
POSFEEDENABLE	TOGGLE	F	Positive Feedback IR Comp
POSFEEDRESISTANCE	QUANT	0	Positive Feedback Resistance (ohm)
ACHSELECT	IQUANT	0	Ach Select
CABLEID	IQUANT	13	Cable ID
DCCALDATE	LABEL	7/31/2020	DC Calibration Date
ACCALDATE	LABEL	7/31/2020	AC Calibration Date
THERMOSELECT	IQUANT	1	Thermo Select
FRAMEWORKVERSION	QUANT	6.33	Framework Version
INSTRUMENTVERSION	LABEL	3.50	Instrument Version
COMPLIANCEVOLTAGE	IQUANT	0	Compliance Voltage
ZCURVE	TABLE
	Pt	Time	Freq	Zreal	Zimag	Zsig	Zmod	Zphz	Idc	Vdc	IERange
	#	s	Hz	ohm	ohm	V	ohm	°	A	V	#
	0	6	300046.9	82.04755	1.416385	1	82.05978	0.988998	-7.812564E-005	0.0023618	9
	1	10	238359.4	82.57894	0.9318445	1	82.5842	0.6465146	1.684797E-005	-0.0016241	9
	2	13	189328.1	83.23205	0.8007903	1	83.2359	0.5512358	2.185303E-005	-0.0008537	9
	3	15	150421.9	83.47844	0.6116349	1	83.48068	0.4197907	1.6535E-005	-0.000502	9
	4	18	119484.4	83.91733	0.3353069	1	83.918	0.2289345	1.21847E-005	-0.0007708	9
	5	20	94921.88	84.34881	0.4468319	1	84.34999	0.3035175	-1.358987E-005	8.591457E-005	9
	6	23	75421.88	84.71112	0.2386695	1	84.71146	0.1614277	-1.208886E-005	0.0007637	9
	7	25	59859.37	85.07309	0.0836314	1	85.07313	0.0563248	1.878457E-005	-0.0001473	9
	8	28	47578.12	85.49074	-0.0404524	1	85.49075	-0.0271111	-1.854435E-005	0.000582	9
	9	30	37828.12	85.91233	-0.1279116	1	85.91242	-0.0853055	-1.87307E-005	0.0006671	9
	10	33	30046.88	86.32031	-0.2395273	1	86.32065	-0.1589877	-1.775012E-006	-0.0002833	9
	11	36	23859.38	86.72791	-0.3302531	1	86.72854	-0.2181768	-1.880629E-006	-0.0002782	9
	12	38	18984.38	87.05779	-0.464548	1	87.05903	-0.3057324	1.744819E-005	-0.0001374	9
	13	40	15046.87	87.50812	-0.5423496	1	87.5098	-0.3550979	-1.979214E-005	0.0007897	9
	14	42	11953.13	87.79948	-0.7574382	1	87.80274	-0.4942733	1.817539E-005	-8.691463E-005	9
	15	45	9515.62	88.23012	-0.9386972	1	88.23511	-0.6095578	1.729492E-005	-0.0001404	9
	16	47	7546.875	88.60842	-1.194039	1	88.61646	-0.7720399	2.213679E-005	-0.0004508	9
	17	49	5928.309	89.05051	-1.444111	1	89.06223	-0.9290703	2.347168E-005	-0.0004658	9
	18	52	4733.456	89.43955	-1.771861	1	89.4571	-1.134921	2.195056E-006	0.0004316	9
	19	54	3796.875	89.83864	-2.092774	1	89.86301	-1.334453	1.749264E-005	-0.0005599	9
	20	56	2987.132	90.30576	-2.677206	1	90.34543	-1.698094	2.29511E-005	-0.0004334	9
	21	59	2390.625	90.74717	-3.203593	1	90.8037	-2.021839	-1.71008E-005	0.0007841	9
	22	61	1884.191	91.14378	-4.198706	1	91.24043	-2.637571	1.257335E-005	-0.0006447	9
	23	63	1516.544	91.63843	-5.154789	1	91.78329	-3.219574	-1.654069E-005	0.0007923	9
	24	66	1193.986	92.1608	-6.405799	1	92.38316	-3.976049	2.335498E-005	-0.0004444	9
	25	68	946.5144	92.74831	-7.968625	1	93.09	-4.910603	2.302524E-005	-0.0005471	9
	26	70	751.7689	93.32395	-9.89216	1	93.84676	-6.050647	1.09993E-005	0.0001716	9
	27	73	597.4265	93.90715	-12.25741	1	94.70374	-7.436597	2.104618E-005	-0.0002608	9
	28	75	477.4305	94.61633	-15.15126	1	95.8218	-9.097742	1.279654E-006	5.457379E-005	9
	29	77	376.6741	95.4085	-18.92952	1	97.2682	-11.22204	1.278439E-006	4.797679E-005	9
	30	80	298.2954	96.3062	-23.56934	1	99.1483	-13.75189	1.243372E-006	6.075406E-005	9
	31	82	237.7717	97.3391	-29.16359	1	101.6141	-16.67864	1.250278E-006	5.19003E-005	9
	32	85	189.0121	98.5678	-36.16557	1	104.9931	-20.14863	1.298782E-006	5.227131E-005	9
	33	87	150.2404	100.0288	-44.82979	1	109.6151	-24.14043	1.208327E-006	5.497949E-005	9
	34	89	119.1737	101.8105	-55.64405	1	116.0243	-28.65861	1.256304E-006	5.443929E-005	9
	35	92	95.0169	103.9606	-68.68155	1	124.5992	-33.45073	1.201621E-006	5.545501E-005	9
	36	94	75.60484	106.6354	-84.8565	1	136.2782	-38.51147	8.550871E-007	0.0001076	9
	37	97	54.50582	111.3731	-114.6787	1	159.8598	-45.8378	1.219392E-006	5.168549E-005	9
	38	99	45.95588	114.6998	-134.1273	1	176.4828	-49.4644	1.166234E-006	5.707976E-005	9
	39	102	37.20238	119.4453	-162.7074	1	201.8437	-53.7172	1.227205E-006	5.099192E-005	9
	40	104	30.04808	125.3164	-197.7227	1	234.0907	-57.63354	1.253115E-006	6.030498E-005	9
	41	106	23.91582	132.9413	-243.3603	1	277.3042	-61.35339	1.177093E-006	5.300962E-005	9
	42	109	18.60119	143.3723	-305.8694	1	337.8043	-64.88577	1.393712E-006	5.533751E-005	9
	43	111	15.02404	154.4753	-371.4293	1	402.2715	-67.41785	1.277772E-006	4.816347E-005	9
	44	113	12.01923	168.2325	-453.0448	1	483.2719	-69.62815	3.16195E-007	0.0006276	8
	45	116	9.450605	187.8666	-563.6014	1	594.0879	-71.56509	2.516391E-007	0.0006132	8
	46	118	7.512019	212.3448	-694.3476	1	726.0916	-72.99536	2.876683E-007	0.0006262	8
	47	121	5.978954	243.4348	-853.3452	1	887.3886	-74.07808	2.899392E-007	0.0006281	8
	48	124	4.734848	285.4615	-1054.182	1	1092.148	-74.84827	1.943055E-007	0.0006303	8
	49	127	3.75601	339.6673	-1297.037	1	1340.776	-75.32497	2.775882E-007	0.0006393	8
	50	131	3.004808	407.7491	-1580.278	1	1632.035	-75.5319	1.908093E-007	0.0006616	8
	51	135	2.372217	503.1748	-1942.47	1	2006.583	-75.47739	2.317803E-007	0.0006255	8
	52	139	1.878005	627.611	-2384.545	1	2465.755	-75.25421	2.631103E-007	0.0006221	8
	53	143	1.512097	767.1503	-2868.747	1	2969.55	-75.02848	2.221357E-007	0.0006938	8
	54	149	1.201923	965.573	-3486.927	1	3618.147	-74.52193	2.612861E-007	0.0006369	8
	55	155	0.956633	1207.709	-4220.805	1	4390.188	-74.03246	-2.213359E-008	-3.52557E-005	7
