EXPLAIN
TAG	EISPOT
TITLE	LABEL	Potentiostatic EIS	Test Identifier
DATE	LABEL	9/12/2020	Date
TIME	LABEL	16:39:27	Time
NOTES	NOTES	1	Notes...
	
PSTAT	PSTAT	REF3000-16137	Potentiostat
VDC	POTEN	0.00000E+000	T	DC Voltage (V)
FREQINIT	QUANT	3.00000E+005	Initial Freq. (Hz)
FREQFINAL	QUANT	1.00000E+000	Final Freq. (Hz)
PTSPERDEC	QUANT	1.00000E+001	Points/decade
VAC	QUANT	5.00000E+001	AC Voltage (mV rms)
AREA	QUANT	1.00000E+000	Sample Area (cm^2)
SPEED	SELECTOR	2	Optimize for:
ZGUESS	QUANT	1.00000E+003	Estimated Z (ohms)
EOC	QUANT	0	Open Circuit (V)
SEQUENCER	TOGGLE	TRUE	Run as Sequence
PSTATMODEL	IQUANT	5	Pstat Model
PSTATSECTION	LABEL	REF3000-16137	Pstat Section
PSTATSERIALNO	LABEL	16137	Pstat Serial Number
CTRLMODE	IQUANT	1	Control Mode
IESTAB	IQUANT	0	I/E Stability
CASPEED	IQUANT	1	Control Amp Speed
CONVENTION	IQUANT	1	Current Convention
ICHRANGE	IQUANT	2	Ich Range
ICHRANGEMODE	TOGGLE	F	Ich Auto Range
ICHOFFSETENABLE	TOGGLE	T	Ich Offset Enable
ICHOFFSET	QUANT	0	Ich Offset (V)
ICHFILTER	IQUANT	3	Ich Filter
VCHRANGE	IQUANT	2	Vch Range
VCHRANGEMODE	TOGGLE	F	Vch Auto Range
VCHOFFSETENABLE	TOGGLE	T	Vch Offset Enable
VCHOFFSET	QUANT	0	Vch Offset (V)
VCHFILTER	IQUANT	3	Vch Filter
ACHRANGE	IQUANT	2	Ach Range
ACHOFFSETENABLE	TOGGLE	F	Ach Offset Enable
ACHOFFSET	QUANT	0	Ach Offset (V)
ACHFILTER	IQUANT	3	Ach Filter
IERANGELOWERLIMIT	IQUANT	2	I/E Range Lower Limit
IERANGEMODE	TOGGLE	F	I/E AutoRange
IERANGE	IQUANT	11	I/E Range
POSFEEDENABLE	TOGGLE	F	Positive Feedback IR Comp
POSFEEDRESISTANCE	QUANT	0	Positive Feedback Resistance (ohm)
ACHSELECT	IQUANT	0	Ach Select
CABLEID	IQUANT	13	Cable ID
DCCALDATE	LABEL	7/31/2020	DC Calibration Date
ACCALDATE	LABEL	7/31/2020	AC Calibration Date
THERMOSELECT	IQUANT	1	Thermo Select
FRAMEWORKVERSION	QUANT	6.33	Framework Version
INSTRUMENTVERSION	LABEL	3.50	Instrument Version
COMPLIANCEVOLTAGE	IQUANT	0	Compliance Voltage
ZCURVE	TABLE
	Pt	Time	Freq	Zreal	Zimag	Zsig	Zmod	Zphz	Idc	Vdc	IERange
	#	s	Hz	ohm	ohm	V	ohm	°	A	V	#
	0	10	300046.9	3.216115	2.267107	1	3.934866	35.18082	2.503762E-006	-0.0001216	10
	1	13	238359.4	3.16939	1.8028	1	3.646247	29.63191	6.083468E-006	-0.0004881	10
	2	16	189328.1	3.144603	1.427658	1	3.45351	24.41817	1.216341E-005	-0.0001801	10
	3	19	150421.9	3.174988	0.9337976	1	3.30946	16.38917	-1.107213E-005	-1.183992E-005	12
	4	22	119484.4	3.11887	0.8593768	1	3.235101	15.40507	-1.470524E-005	0.0005193	11
	5	25	94921.88	3.107376	0.6614033	1	3.176986	12.01606	-5.852037E-005	0.000499	11
	6	27	75421.88	3.103423	0.4961632	1	3.142835	9.083356	-3.457309E-005	0.0005778	11
	7	30	59859.37	3.09943	0.3564025	1	3.119854	6.559613	-7.889408E-006	0.0006078	11
	8	32	47578.12	3.098011	0.2372137	1	3.107079	4.378577	1.361205E-005	0.0006672	11
	9	35	37828.12	3.097244	0.1309381	1	3.100011	2.420777	1.233277E-005	0.0006531	11
	10	37	30046.88	3.098921	0.0328665	1	3.099096	0.6076449	-1.865811E-005	0.000642	11
	11	40	23859.38	3.101552	-0.0628171	1	3.102188	-1.160278	-2.101175E-005	0.0006452	11
	12	42	18984.38	3.10534	-0.1594104	1	3.109429	-2.938658	-3.671113E-005	0.0006424	11
	13	44	15046.87	3.111413	-0.2643897	1	3.122626	-4.856992	-4.852761E-007	0.0006675	11
	14	47	11953.13	3.118626	-0.380463	1	3.141748	-6.955541	-4.430674E-005	0.0006273	11
	15	49	9515.62	3.128883	-0.5123308	1	3.170551	-9.299225	-4.329113E-005	0.000636	11
	16	51	7546.875	3.144069	-0.6701182	1	3.214689	-12.03183	-3.9693E-005	0.0007184	11
	17	54	5928.309	3.163089	-0.8682328	1	3.280086	-15.34902	1.478925E-005	0.000688	11
	18	56	4733.456	3.187302	-1.091799	1	3.369112	-18.90871	1.644777E-005	0.0006854	11
	19	58	3796.875	3.218248	-1.357536	1	3.492853	-22.87121	-2.203587E-005	0.0006838	11
	20	61	2987.132	3.263892	-1.711056	1	3.6852	-27.66523	-2.826572E-005	0.0006662	10
	21	63	2390.625	3.315612	-2.113901	1	3.932158	-32.51995	-2.025624E-005	0.000689	10
	22	65	1884.191	3.386483	-2.641777	1	4.295026	-37.9576	-1.487309E-005	0.0006424	10
	23	68	1516.544	3.46812	-3.233469	1	4.741643	-42.99466	-2.476135E-005	0.0006745	10
	24	70	1193.986	3.583987	-4.032131	1	5.394723	-48.36749	-1.487442E-005	0.0006398	10
	25	72	946.5144	3.729135	-4.990521	1	6.229908	-53.23131	1.754299E-005	0.0006311	10
	26	75	751.7689	3.910522	-6.16864	1	7.303719	-57.62793	7.212261E-006	0.0006163	10
	27	77	597.4265	4.142543	-7.612779	1	8.666895	-61.44689	-2.872208E-005	0.0006599	10
	28	79	477.4305	4.438623	-9.343228	1	10.34395	-64.58933	-6.181932E-006	0.0006547	10
	29	82	376.6741	4.848147	-11.59284	1	12.56577	-67.30523	-6.506575E-006	0.0006519	10
	30	84	298.2954	5.381649	-14.32163	1	15.29939	-69.40525	-5.839117E-006	0.0006532	10
	31	86	237.7717	6.0643	-17.5612	1	18.57879	-70.94899	-6.442458E-006	0.0006535	10
	32	89	189.0121	6.974804	-21.5532	1	22.65366	-72.06797	-5.805571E-006	0.0006581	10
	33	91	150.2404	8.168795	-26.38827	1	27.62372	-72.79948	-7.127081E-006	0.0006537	10
	34	94	119.1737	9.7441	-32.3012	1	33.73892	-73.21334	-6.388673E-006	0.0007156	10
	35	96	95.0169	11.7338	-39.23035	1	40.94756	-73.34807	-6.214903E-006	0.0006564	10
	36	98	75.60484	14.27776	-47.52701	1	49.62531	-73.27902	-3.439872E-006	5.693149E-005	9
	37	101	54.50582	19.11152	-62.28242	1	65.14867	-72.94124	-3.468311E-006	5.259326E-005	9
	38	104	45.95588	22.27993	-71.5491	1	74.93777	-72.70375	-3.130604E-006	6.589217E-005	9
	39	106	37.20238	26.86092	-84.73109	1	88.88682	-72.41067	-3.177808E-006	5.532784E-005	9
	40	108	30.04808	32.29842	-100.3627	1	105.4318	-72.16094	-3.317479E-006	5.177019E-005	9
	41	111	23.91582	39.08017	-120.1157	1	126.3133	-71.97747	-3.260361E-006	5.280639E-005	9
	42	113	18.60119	48.01396	-146.6302	1	154.2911	-71.869	-3.063657E-006	5.229105E-005	9
	43	115	15.02404	56.9168	-173.8701	1	182.949	-71.87402	-3.110266E-006	6.443887E-005	9
	44	118	12.01923	68.04127	-208.2427	1	219.0768	-71.9057	-3.046991E-006	6.251224E-005	9
	45	120	9.450605	82.86356	-253.5195	1	266.718	-71.89987	-3.14363E-006	4.636304E-005	9
	46	123	7.512019	101.3664	-306.9762	1	323.2793	-71.7263	-2.851534E-006	6.520698E-005	9
	47	125	5.978954	125.4561	-371.2614	1	391.8855	-71.32893	-2.855788E-006	5.942209E-005	9
	48	128	4.734848	158.9878	-449.2401	1	476.5436	-70.51093	-3.68554E-006	0.0006515	8
	49	132	3.75601	205.5816	-542.9302	1	580.5488	-69.26073	-3.659632E-006	0.0006354	8
	50	135	3.004808	267.7496	-647.467	1	700.645	-67.53324	-3.730359E-006	0.0006723	8
	51	139	2.372217	359.5289	-772.3942	1	851.9705	-65.03928	-3.640852E-006	0.0007126	8
	52	143	1.878005	481.091	-906.2637	1	1026.042	-62.03836	-3.758125E-006	0.0006217	8
	53	148	1.512097	625.9877	-1029.646	1	1205.003	-58.7019	-3.636049E-006	0.0006588	8
	54	153	1.201923	822.0522	-1154.986	1	1417.661	-54.55894	-3.616458E-006	0.0006088	8
	55	159	0.956633	1050.822	-1254.95	1	1636.804	-50.05916	-3.837022E-006	1.213751E-006	8
